95.403,-3.8102e-05,0
95.404,-0.00012538,0
95.404,-0.00016533,0
95.405,-0.00015979,0
95.406,-0.00014099,0
95.406,-0.00012068,0
95.407,-7.1168e-05,0
95.407,1.4603e-05,0
95.408,9.1814e-05,0
95.408,0.00013243,0
95.409,0.00013948,0
95.409,0.00011867,0
95.41,3.8437e-05,0
95.41,-0.00012924,0
95.411,-0.00034426,0
95.411,-0.00047669,0
95.412,-0.00042181,0
95.412,-0.00020427,0
95.413,7.2847e-05,0
95.413,0.00031203,0
95.414,0.00044262,0
95.414,0.0004349,0
95.415,0.00031673,0
95.415,0.00015006,0
95.416,1.326e-05,0
95.416,-1.3092e-05,0
95.417,7.5364e-05,0
95.417,0.00022425,0
95.418,0.00037162,0
95.419,0.00046796,0
95.419,0.00048576,0
95.42,0.0004265,0
95.42,0.00032412,0
95.421,0.00021602,0
95.421,0.00012706,0
95.422,7.0497e-05,0
95.422,4.1459e-05,0
95.423,2.4002e-05,0
95.423,1.0575e-05,0
95.424,2.8534e-06,0
95.424,-4.5319e-06,0
95.425,-9.9031e-06,0
95.425,-9.7353e-06,0
95.426,-1.1917e-05,0
95.426,-1.7456e-05,0
95.427,-2.2492e-05,0
95.427,-2.5849e-05,0
95.428,-2.4674e-05,0
95.428,-2.7024e-05,0
95.429,-4.0116e-05,0
95.429,-5.9754e-05,0
95.43,-7.5364e-05,0
95.43,-7.8721e-05,0
95.431,-8.6107e-05,0
95.431,-0.00010927,0
95.432,-0.00013445,0
95.433,-0.00014351,0
95.433,-0.00013394,0
95.434,-0.00010893,0
95.434,-7.4357e-05,0
95.435,-3.5752e-05,0
95.435,1.5106e-06,0
95.436,2.0478e-05,0
95.436,1.9471e-05,0
95.437,-1.5106e-06,0
95.437,-4.5151e-05,0
95.438,-8.0064e-05,0
95.438,-0.00010088,0
95.439,-0.00011733,0
95.439,-0.00014855,0
95.44,-0.00020981,0
95.44,-0.00029961,0
95.441,-0.00038236,0
95.441,-0.0004062,0
95.442,-0.00033822,0
95.442,-0.00016466,0
95.443,7.4189e-05,0
95.443,0.00027779,0
95.444,0.00038387,0
95.444,0.0003832,0
95.445,0.00030532,0
95.446,0.00020595,0
95.446,0.0001321,0
95.447,8.8792e-05,0
95.447,6.244e-05,0
95.448,3.978e-05,0
95.448,1.0575e-05,0
95.449,-8.5603e-06,0
95.449,-7.5532e-06,0
95.45,1.6785e-07,0
95.45,2.3667e-05,0
95.451,8.0903e-05,0
95.451,0.00014821,0
95.452,0.00020192,0
95.452,0.00022509,0
95.453,0.00020578,0
95.453,0.0001697,0
95.454,0.00013848,0
95.454,0.00010088,0
95.455,4.8676e-05,0
95.455,-9.5674e-06,0
95.456,-4.8508e-05,0
95.456,-6.2608e-05,0
95.457,-7.5868e-05,0
95.457,-0.00010105,0
95.458,-0.00013344,0
95.459,-0.00016718,0
95.459,-0.00017507,0
95.46,-0.00014821,0
95.46,-0.00010541,0
95.461,-5.5558e-05,0
95.461,-1.8296e-05,0
95.462,-2.1988e-05,0
95.462,-6.949e-05,0
95.463,-0.00012136,0
95.463,-0.00013159,0
95.464,-9.5171e-05,0
95.464,-5.2705e-05,0
95.465,-2.1988e-05,0
95.465,1.8631e-05,0
95.466,6.244e-05,0
95.466,7.0329e-05,0
95.467,3.3906e-05,0
95.467,-2.0813e-05,0
95.468,-4.7166e-05,0
95.468,-4.3305e-05,0
95.469,-2.031e-05,0
95.469,3.7263e-05,0
95.47,0.00011649,0
95.47,0.00018111,0
95.471,0.00017104,0
95.471,9.3492e-05,0
95.472,1.3931e-05,0
95.473,-4.9516e-05,0
95.473,-0.00011162,0
95.474,-0.0001697,0
95.474,-0.00018883,0
95.475,-0.00012605,0
95.475,-4.5319e-06,0
95.476,0.00010826,0
95.476,0.00017826,0
95.477,0.00023214,0
95.477,0.00028585,0
95.478,0.00030901,0
95.478,0.00027359,0
95.479,0.00021401,0
95.479,0.00018161,0
95.48,0.00017607,0
95.48,0.00018346,0
95.481,0.00020629,0
95.481,0.00022794,0
95.482,0.00022811,0
95.482,0.00020729,0
95.483,0.00017708,0
95.483,0.00015241,0
95.484,0.00013143,0
95.484,9.836e-05,0
95.485,4.3473e-05,0
95.486,-1.6617e-05,0
95.486,-6.7979e-05,0
95.487,-0.00010591,0
95.487,-0.00012723,0
95.488,-0.00013042,0
95.488,-0.00010608,0
95.489,-5.1698e-05,0
95.489,1.6281e-05,0
95.49,7.0665e-05,0
95.49,9.5842e-05,0
95.491,0.00010524,0
95.491,0.0001086,0
95.492,0.00011733,0
95.492,0.00013814,0
95.493,0.00015727,0
95.493,0.00015425,0
95.494,0.00010726,0
95.494,3.0716e-05,0
95.495,-4.7837e-05,0
95.495,-0.00011061,0
95.496,-0.00017137,0
95.496,-0.0002501,0
95.497,-0.00031388,0
95.497,-0.00029928,0
95.498,-0.0001942,0
95.498,-5.0858e-05,0
95.499,7.0329e-05,0
95.5,0.00015962,0
95.5,0.00022928,0
95.501,0.00026537,0
95.501,0.00022458,0
95.502,0.00013713,0
95.502,8.9799e-05,0
95.503,0.00012605,0
95.503,0.00020394,0
95.504,0.00023986,0
95.504,0.00020327,0
95.505,0.00011498,0
95.505,-1.1917e-05,0
95.506,-0.00014771,0
95.506,-0.00024791,0
95.507,-0.00031505,0
95.507,-0.00037145,0
95.508,-0.00041761,0
95.508,-0.00043909,0
95.509,-0.0004354,0
95.509,-0.00041677,0
95.51,-0.00039075,0
95.51,-0.00036793,0
95.511,-0.00033402,0
95.511,-0.00026436,0
95.512,-0.00016365,0
95.513,-5.7908e-05,0
95.513,4.213e-05,0
95.514,0.00016432,0
95.514,0.0003174,0
95.515,0.00043272,0
95.515,0.00043825,0
95.516,0.00033939,0
95.516,0.00021451,0
95.517,0.00012471,0
95.517,7.335e-05,0
95.518,4.2802e-05,0
95.518,5.1194e-05,0
95.519,0.00011397,0
95.519,0.0001848,0
95.52,0.00020092,0
95.52,0.00015392,0
95.521,8.4764e-05,0
95.521,2.5681e-05,0
95.522,-2.1653e-05,0
95.522,-5.9922e-05,0
95.523,-8.661e-05,0
95.523,-9.3492e-05,0
95.524,-7.7043e-05,0
95.524,-5.7572e-05,0
95.525,-6.2272e-05,0
95.525,-9.987e-05,0
95.526,-0.00013797,0
95.527,-0.00013176,0
95.527,-9.0806e-05,0
95.528,-6.2943e-05,0
95.528,-7.4693e-05,0
95.529,-0.00012639,0
95.529,-0.00019319,0
95.53,-0.00023314,0
95.53,-0.00021787,0
95.531,-0.00015325,0
95.531,-4.6494e-05,0
95.532,8.7449e-05,0
95.532,0.00020662,0
95.533,0.00028014,0
95.533,0.00029558,0
95.534,0.00025765,0
95.534,0.00018967,0
95.535,0.00013864,0
95.535,0.00010961,0
95.536,8.3085e-05,0
95.536,6.0258e-05,0
95.537,4.5319e-05,0
95.537,4.0787e-05,0
95.538,5.0858e-05,0
95.538,6.1936e-05,0
95.539,5.4551e-05,0
95.54,2.3499e-05,0
95.54,-1.7288e-05,0
95.541,-2.8702e-05,0
95.541,2.501e-05,0
95.542,0.0001086,0
95.542,0.0001603,0
95.543,0.00014569,0
95.543,0.00011028,0
95.544,0.0001039,0
95.544,0.00011296,0
95.545,0.00011548,0
95.545,0.00011498,0
95.546,0.00011095,0
95.546,0.00010927,0
95.547,0.00010726,0
95.547,9.9199e-05,0
95.548,8.51e-05,0
95.548,8.2246e-05,0
95.549,0.00010356,0
95.549,0.00013948,0
95.55,0.00016533,0
95.55,0.00017423,0
95.551,0.00016684,0
95.551,0.00013814,0
95.552,0.00010893,0
95.552,9.8192e-05,0
95.553,9.3828e-05,0
95.554,7.4022e-05,0
95.554,5.623e-05,0
95.555,6.4622e-05,0
95.555,9.4499e-05,0
95.556,0.00012337,0
95.556,0.00011901,0
95.557,7.8218e-05,0
95.557,3.0884e-05,0
95.558,7.5532e-06,0
95.558,1.4603e-05,0
95.559,5.2873e-05,0
95.559,0.00010088,0
95.56,0.0001232,0
95.56,0.0001044,0
95.561,6.3615e-05,0
95.561,1.8631e-05,0
95.562,-4.8844e-05,0
95.562,-0.00017775,0
95.563,-0.00035215,0
95.563,-0.00048878,0
95.564,-0.00051496,0
95.564,-0.00043255,0
95.565,-0.00030163,0
95.565,-0.00018161,0
95.566,-0.00011431,0
95.567,-0.00010239,0
95.567,-0.00011196,0
95.568,-0.00011598,0
95.568,-0.00011498,0
95.569,-0.00011666,0
95.569,-0.00010608,0
95.57,-7.4357e-05,0
95.57,-6.0258e-05,0
95.571,-8.426e-05,0
95.571,-0.00013562,0
95.572,-0.00018379,0
95.572,-0.00020897,0
95.573,-0.0002224,0
95.573,-0.00024388,0
95.574,-0.0002694,0
95.574,-0.00029357,0
95.575,-0.00032328,0
95.575,-0.00034728,0
95.576,-0.00031035,0
95.576,-0.00015744,0
95.577,0.00010625,0
95.577,0.00038521,0
95.578,0.00058428,0
95.578,0.00069003,0
95.579,0.00073031,0
95.579,0.00070178,0
95.58,0.00059939,0
95.581,0.00046645,0
95.581,0.00036507,0
95.582,0.00032462,0
95.582,0.00032076,0
95.583,0.00030935,0
95.583,0.00026906,0
95.584,0.00021401,0
95.584,0.00017121,0
95.585,0.00014939,0
95.585,0.0001368,0
95.586,0.00012169,0
95.586,9.9031e-05,0
95.587,6.9657e-05,0
95.587,3.4073e-05,0
95.588,-1.6785e-07,0
95.588,-3.5416e-05,0
95.589,-6.8818e-05,0
95.589,-0.00010155,0
95.59,-0.00013848,0
95.59,-0.00017507,0
95.591,-0.00021703,0
95.591,-0.00025547,0
95.592,-0.00028232,0
95.592,-0.00033184,0
95.593,-0.00039747,0
95.594,-0.00042164,0
95.594,-0.0003921,0
95.595,-0.00034157,0
95.595,-0.00031539,0
95.596,-0.00032563,0
95.596,-0.0003263,0
95.597,-0.00029642,0
95.597,-0.0002647,0
95.598,-0.00023952,0
95.598,-0.00017607,0
95.599,-3.7766e-05,0
95.599,0.00017423,0
95.6,0.00041375,0
95.6,0.00063481,0
95.601,0.00079712,0
95.601,0.00083304,0
95.602,0.00072393,0
95.602,0.00055273,0
95.603,0.0004062,0
95.603,0.00032126,0
95.604,0.00028618,0
95.604,0.00026688,0
95.605,0.00023264,0
95.605,0.00018396,0
95.606,0.00012958,0
95.606,6.9657e-05,0
95.607,2.8534e-06,0
95.608,-6.5965e-05,0
95.608,-0.00011649,0
95.609,-0.00013529,0
95.609,-0.0001378,0
95.61,-0.00015056,0
95.61,-0.00017423,0
95.611,-0.00019252,0
95.611,-0.00019521,0
95.612,-0.00018094,0
95.612,-0.00014955,0
95.613,-0.00011263,0
95.613,-8.9967e-05,0
95.614,-7.9225e-05,0
95.614,-6.1936e-05,0
95.615,-3.2395e-05,0
95.615,-4.1962e-06,0
95.616,1.7288e-05,0
95.616,3.0716e-05,0
95.617,3.4073e-05,0
95.617,3.0213e-05,0
95.618,3.0884e-05,0
95.618,4.6159e-05,0
95.619,7.5029e-05,0
95.619,0.00010121,0
95.62,0.00011044,0
95.621,0.00011196,0
95.621,0.00010323,0
95.622,7.7714e-05,0
95.622,5.3544e-05,0
95.623,3.9109e-05,0
95.623,2.9709e-05,0
95.624,7.8889e-06,0
95.624,-4.0284e-05,0
95.625,-0.00011162,0
95.625,-0.00019622,0
95.626,-0.00027309,0
95.626,-0.00031489,0
95.627,-0.0003028,0
95.627,-0.00023684,0
95.628,-0.00014015,0
95.628,-3.0381e-05,0
95.629,7.7043e-05,0
95.629,0.00016768,0
95.63,0.00023684,0
95.63,0.00027477,0
95.631,0.00026436,0
95.631,0.00021099,0
95.632,0.00014284,0
95.632,8.3085e-05,0
95.633,3.9612e-05,0
95.633,1.796e-05,0
95.634,5.2033e-06,0
95.635,-6.8818e-06,0
95.635,-1.3092e-05,0
95.636,-7.2175e-06,0
95.636,4.5319e-06,0
95.637,1.1917e-05,0
95.637,4.8676e-06,0
95.638,-7.5532e-06,0
95.638,-1.326e-05,0
95.639,-1.4771e-05,0
95.639,-1.6281e-05,0
95.64,-2.2156e-05,0
95.64,-3.5752e-05,0
95.641,-4.5487e-05,0
95.641,-4.0452e-05,0
95.642,-2.9206e-05,0
95.642,-2.7863e-05,0
95.643,-4.4648e-05,0
95.643,-6.4286e-05,0
95.644,-7.805e-05,0
95.644,-8.8457e-05,0
95.645,-9.8024e-05,0
95.645,-0.00011028,0
95.646,-0.00013277,0
95.646,-0.00016063,0
95.647,-0.00019001,0
95.647,-0.00021787,0
95.648,-0.00022206,0
95.649,-0.00019672,0
95.649,-0.00015711,0
95.65,-0.00010977,0
95.65,-6.0594e-05,0
95.651,-1.7288e-05,0
95.651,4.2802e-05,0
95.652,0.0001378,0
95.652,0.0002501,0
95.653,0.00036507,0
95.653,0.0004584,0
95.654,0.00048861,0
95.654,0.00044094,0
95.655,0.00034493,0
95.655,0.00024691,0
95.656,0.00016684,0
95.656,0.00010491,0
95.657,5.7908e-05,0
95.657,2.3667e-05,0
95.658,1.8463e-06,0
95.658,-6.2104e-06,0
95.659,-9.2317e-06,0
95.659,-1.6114e-05,0
95.66,-2.8534e-05,0
95.66,-2.9038e-05,0
95.661,-6.8818e-06,0
95.662,1.7456e-05,0
95.662,1.326e-05,0
95.663,-3.1891e-06,0
95.663,1.8463e-06,0
95.664,3.743e-05,0
95.664,7.6707e-05,0
95.665,9.0974e-05,0
95.665,7.9057e-05,0
95.666,6.9993e-05,0
95.666,9.0806e-05,0
95.667,0.00011867,0
95.667,0.00012958,0
95.668,0.00013814,0
95.668,0.00014603,0
95.669,0.00014972,0
95.669,0.00014955,0
95.67,0.0001284,0
95.67,8.8457e-05,0
95.671,3.743e-05,0
95.671,-1.6617e-05,0
95.672,-5.9419e-05,0
95.672,-7.8721e-05,0
95.673,-6.2608e-05,0
95.673,-2.9709e-05,0
95.674,-1.6281e-05,0
95.674,-3.2563e-05,0
95.675,-4.2466e-05,0
95.676,-2.0478e-05,0
95.676,1.5946e-05,0
95.677,5.5558e-05,0
95.677,0.00010423,0
95.678,0.00013277,0
95.678,0.00010507,0
95.679,2.6688e-05,0
95.679,-4.6494e-05,0
95.68,-7.0161e-05,0
95.68,-5.5222e-05,0
95.681,-4.4648e-05,0
95.681,-3.827e-05,0
95.682,-1.0239e-05,0
95.682,3.508e-05,0
95.683,8.5771e-05,0
95.683,0.00013747,0
95.684,0.00017775,0
95.684,0.00020478,0
95.685,0.00021736,0
95.685,0.00020092,0
95.686,0.00013545,0
95.686,3.2059e-05,0
95.687,-6.479e-05,0
95.687,-0.00012303,0
95.688,-0.00015375,0
95.689,-0.00017742,0
95.689,-0.00019471,0
95.69,-0.00020562,0
95.69,-0.00021099,0
95.691,-0.00019118,0
95.691,-0.00015023,0
95.692,-0.00011179,0
95.692,-9.1142e-05,0
95.693,-9.8863e-05,0
95.693,-0.00010826,0
95.694,-9.0639e-05,0
95.694,-6.2272e-05,0
95.695,-3.3906e-05,0
95.695,1.6785e-05,0
95.696,8.4764e-05,0
95.696,0.00014821,0
95.697,0.00018547,0
95.697,0.00017775,0
95.698,0.00013864,0
95.698,9.1142e-05,0
95.699,3.3066e-05,0
95.699,-5.5055e-05,0
95.7,-0.00017104,0
95.7,-0.00027326,0
95.701,-0.00031807,0
95.701,-0.00028887,0
95.702,-0.0001937,0
95.703,-6.1265e-05,0
95.703,7.0665e-05,0
95.704,0.0001509,0
95.704,0.00014519,0
95.705,9.1646e-05,0
95.705,6.4958e-05,0
95.706,8.275e-05,0
95.706,0.00010726,0
95.707,0.0001227,0
95.707,0.00012337,0
95.708,9.836e-05,0
95.708,6.7308e-05,0
95.709,4.8508e-05,0
95.709,3.0716e-05,0
95.71,-3.5248e-06,0
95.71,-5.7404e-05,0
95.711,-0.00010625,0
95.711,-0.00012186,0
95.712,-0.00011296,0
95.712,-9.3492e-05,0
95.713,-7.1672e-05,0
95.713,-3.3738e-05,0
95.714,3.8773e-05,0
95.714,0.00011884,0
95.715,0.0001613,0
95.716,0.000165,0
95.716,0.0001561,0
95.717,0.00014636,0
95.717,0.00015526,0
95.718,0.00020461,0
95.718,0.00026117,0
95.719,0.00029055,0
95.719,0.00029659,0
95.72,0.00029021,0
95.72,0.00026134,0
95.721,0.00019823,0
95.721,0.000118,0
95.722,6.4622e-05,0
95.722,5.2033e-05,0
95.723,4.2802e-05,0
95.723,2.4338e-05,0
95.724,6.5461e-06,0
95.724,-2.9877e-05,0
95.725,-9.5171e-05,0
95.725,-0.00017053,0
95.726,-0.00022106,0
95.726,-0.00024422,0
95.727,-0.00025177,0
95.727,-0.00026554,0
95.728,-0.00029105,0
95.728,-0.00030632,0
95.729,-0.00028786,0
95.73,-0.00021283,0
95.73,-0.00010323,0
95.731,-5.539e-06,0
95.731,7.8553e-05,0
95.732,0.00017389,0
95.732,0.00028417,0
95.733,0.00037581,0
95.733,0.00040972,0
95.734,0.00038756,0
95.734,0.00035618,0
95.735,0.00034292,0
95.735,0.00034057,0
95.736,0.00032613,0
95.736,0.00027208,0
95.737,0.00017842,0
95.737,8.2078e-05,0
95.738,1.3764e-05,0
95.738,-2.3835e-05,0
95.739,-4.5487e-05,0
95.739,-6.4286e-05,0
95.74,-8.191e-05,0
95.74,-9.1142e-05,0
95.741,-9.3156e-05,0
95.741,-8.6946e-05,0
95.742,-6.8315e-05,0
95.743,-4.5487e-05,0
95.743,-2.2324e-05,0
95.744,3.5248e-06,0
95.744,2.4674e-05,0
95.745,2.9709e-05,0
95.745,1.3931e-05,0
95.746,-3.5248e-06,0
95.746,-8.3925e-07,0
95.747,1.1246e-05,0
95.747,1.4603e-05,0
95.748,5.0355e-07,0
95.748,-2.8199e-05,0
95.749,-6.1097e-05,0
95.749,-8.7617e-05,0
95.75,-0.00010423,0
95.75,-0.00010558,0
95.751,-9.366e-05,0
95.751,-7.5029e-05,0
95.752,-5.0858e-05,0
95.752,-2.8367e-05,0
95.753,-1.0071e-05,0
95.753,-2.182e-06,0
95.754,-2.031e-05,0
95.754,-6.9322e-05,0
95.755,-0.00011565,0
95.755,-0.00015341,0
95.756,-0.0002036,0
95.757,-0.00026755,0
95.757,-0.00033603,0
95.758,-0.00038538,0
95.758,-0.00038404,0
95.759,-0.00033704,0
95.759,-0.00027796,0
95.76,-0.00023096,0
95.76,-0.00019823,0
95.761,-0.00014855,0
95.761,-5.7908e-05,0
95.762,5.1865e-05,0
95.762,0.00015308,0
95.763,0.00024355,0
95.763,0.00029609,0
95.764,0.00026973,0
95.764,0.00018967,0
95.765,0.00010088,0
95.765,3.2898e-05,0
95.766,-1.0071e-05,0
95.766,-3.3738e-05,0
95.767,-3.6423e-05,0
95.767,-1.1078e-05,0
95.768,4.1794e-05,0
95.768,0.00010541,0
95.769,0.00015056,0
95.77,0.00015895,0
95.77,0.00014351,0
95.771,0.00014636,0
95.771,0.00017607,0
95.772,0.00020427,0
95.772,0.00020595,0
95.773,0.00018984,0
95.773,0.00017574,0
95.774,0.00015727,0
95.774,0.00011934,0
95.775,6.8986e-05,0
95.775,1.4099e-05,0
95.776,-1.796e-05,0
95.776,-6.8818e-06,0
95.777,1.7121e-05,0
95.777,4.2634e-05,0
95.778,7.4189e-05,0
95.778,0.00010289,0
95.779,0.00011447,0
95.779,0.00010457,0
95.78,9.4163e-05,0
95.78,9.1646e-05,0
95.781,8.3085e-05,0
95.781,5.1026e-05,0
95.782,1.9638e-05,0
95.782,2.4674e-05,0
95.783,8.2078e-05,0
95.784,0.00017423,0
95.784,0.00026168,0
95.785,0.00032042,0
95.785,0.00034359,0
95.786,0.00033184,0
95.786,0.00028786,0
95.787,0.00022441,0
95.787,0.00014972,0
95.788,7.6371e-05,0
95.788,1.9806e-05,0
95.789,-1.3428e-05,0
95.789,-2.5849e-05,0
95.79,-3.0381e-05,0
95.79,-3.5752e-05,0
95.791,-4.0787e-05,0
95.791,-4.7166e-05,0
95.792,-5.5726e-05,0
95.792,-5.8579e-05,0
95.793,-5.4047e-05,0
95.793,-4.4312e-05,0
95.794,-2.7527e-05,0
95.794,-6.3783e-06,0
95.795,1.1917e-05,0
95.795,1.6785e-05,0
95.796,9.2317e-06,0
95.797,-1.1749e-06,0
95.797,-1.091e-05,0
95.798,-2.0981e-05,0
95.798,-2.266e-05,0
95.799,-7.2175e-06,0
95.799,2.031e-05,0
95.8,4.6494e-05,0
95.8,6.5293e-05,0
95.801,7.6539e-05,0
95.801,8.7785e-05,0
95.802,9.9702e-05,0
95.802,0.00010088,0
95.803,8.8457e-05,0
95.803,6.3951e-05,0
95.804,3.6591e-05,0
95.804,9.2317e-06,0
95.805,-2.6184e-05,0
95.805,-7.5029e-05,0
95.806,-0.00013915,0
95.806,-0.00021015,0
95.807,-0.00026571,0
95.807,-0.00029256,0
95.808,-0.0002892,0
95.808,-0.00025429,0
95.809,-0.00020394,0
95.809,-0.00015946,0
95.81,-0.00014032,0
95.811,-0.00014553,0
95.811,-0.0001603,0
95.812,-0.00015996,0
95.812,-0.0001415,0
95.813,-0.00012236,0
95.813,-0.00011044,0
95.814,-0.00010155,0
95.814,-8.7449e-05,0
95.815,-6.865e-05,0
95.815,-5.4383e-05,0
95.816,-4.5823e-05,0
95.816,-2.5681e-05,0
95.817,1.9135e-05,0
95.817,7.9728e-05,0
95.818,0.00011431,0
95.818,0.00010272,0
95.819,6.5797e-05,0
95.819,2.652e-05,0
95.82,-4.5319e-06,0
95.82,-2.9709e-05,0
95.821,-5.3376e-05,0
95.821,-7.1672e-05,0
95.822,-7.6036e-05,0
95.822,-5.4887e-05,0
95.823,-7.2175e-06,0
95.824,5.153e-05,0
95.824,8.426e-05,0
95.825,5.7237e-05,0
95.825,-1.6617e-05,0
95.826,-9.2149e-05,0
95.826,-0.00014049,0
95.827,-0.00014116,0
95.827,-8.1239e-05,0
95.828,4.1794e-05,0
95.828,0.00019185,0
95.829,0.00032328,0
95.829,0.00039646,0
95.83,0.0003884,0
95.83,0.00032479,0
95.831,0.00026571,0
95.831,0.00023717,0
95.832,0.00023012,0
95.832,0.00023062,0
95.833,0.0002266,0
95.833,0.00021267,0
95.834,0.00019252,0
95.834,0.00018749,0
95.835,0.00018379,0
95.835,0.00015962,0
95.836,0.00012807,0
95.837,0.00012035,0
95.837,0.00013411,0
95.838,0.00014267,0
95.838,0.00013327,0
95.839,0.00010826,0
95.839,8.0903e-05,0
95.84,5.623e-05,0
95.84,3.0045e-05,0
95.841,-3.357e-06,0
95.841,-4.4648e-05,0
95.842,-6.9154e-05,0
95.842,-5.388e-05,0
95.843,-1.9638e-05,0
95.843,5.2033e-06,0
95.844,1.3092e-05,0
95.844,1.1078e-05,0
95.845,1.2421e-05,0
95.845,1.6449e-05,0
95.846,1.7288e-05,0
95.846,1.5442e-05,0
95.847,1.796e-05,0
95.847,2.3331e-05,0
95.848,2.2492e-05,0
95.848,1.5106e-05,0
95.849,2.8534e-06,0
95.849,-1.1582e-05,0
95.85,-2.7192e-05,0
95.851,-4.3473e-05,0
95.851,-5.6062e-05,0
95.852,-6.5965e-05,0
95.852,-8.4764e-05,0
95.853,-0.00010457,0
95.853,-0.00011565,0
95.854,-0.00013344,0
95.854,-0.00015593,0
95.855,-0.0001655,0
95.855,-0.00015241,0
95.856,-0.00012102,0
95.856,-9.0806e-05,0
95.857,-6.5461e-05,0
95.857,-3.7766e-05,0
95.858,-2.182e-06,0
95.858,2.3667e-05,0
95.859,2.7863e-05,0
95.859,2.9206e-05,0
95.86,4.8676e-05,0
95.86,8.5771e-05,0
95.861,0.00012236,0
95.861,0.00015492,0
95.862,0.00018833,0
95.862,0.00020528,0
95.863,0.00018379,0
95.864,0.0001274,0
95.864,7.4693e-05,0
95.865,5.539e-05,0
95.865,6.0426e-05,0
95.866,5.0858e-05,0
95.866,5.2033e-06,0
95.867,-5.6565e-05,0
95.867,-9.6513e-05,0
95.868,-0.00011313,0
95.868,-0.00013931,0
95.869,-0.00018228,0
95.869,-0.00023281,0
95.87,-0.00029021,0
95.87,-0.00032982,0
95.871,-0.00033117,0
95.871,-0.00030716,0
95.872,-0.00026503,0
95.872,-0.00019957,0
95.873,-0.00010776,0
95.873,1.0239e-05,0
95.874,0.00015325,0
95.874,0.00030062,0
95.875,0.00040099,0
95.875,0.00040938,0
95.876,0.00033738,0
95.876,0.00025832,0
95.877,0.00022676,0
95.878,0.00022274,0
95.878,0.00022005,0
95.879,0.00021032,0
95.879,0.00018514,0
95.88,0.0001378,0
95.88,7.2343e-05,0
95.881,-1.5106e-06,0
95.881,-7.0161e-05,0
95.882,-0.00012706,0
95.882,-0.00016265,0
95.883,-0.00015912,0
95.883,-0.00011112,0
95.884,-1.5274e-05,0
95.884,0.00010037,0
95.885,0.00017893,0
95.885,0.00019571,0
95.886,0.00016869,0
95.886,0.00011598,0
95.887,4.6494e-05,0
95.887,-2.0645e-05,0
95.888,-6.4622e-05,0
95.888,-8.4428e-05,0
95.889,-8.7449e-05,0
95.889,-7.6036e-05,0
95.89,-5.8747e-05,0
95.891,-4.213e-05,0
95.891,-3.8437e-05,0
95.892,-4.8676e-05,0
95.892,-6.8818e-05,0
95.893,-9.4499e-05,0
95.893,-0.00010188,0
95.894,-7.8889e-05,0
95.894,-4.8341e-05,0
95.895,-2.1653e-05,0
95.895,-8.3925e-07,0
95.896,8.896e-06,0
95.896,1.1582e-05,0
95.897,9.7353e-06,0
95.897,1.0407e-05,0
95.898,2.3667e-05,0
95.898,5.7404e-05,0
95.899,0.00011128,0
95.899,0.00016332,0
95.9,0.0001895,0
95.9,0.00018379,0
95.901,0.00016281,0
95.901,0.00013982,0
95.902,0.00011766,0
95.902,9.2821e-05,0
95.903,6.4622e-05,0
95.903,3.9612e-05,0
95.904,2.4002e-05,0
95.905,1.796e-05,0
95.905,1.7288e-05,0
95.906,1.9303e-05,0
95.906,2.5345e-05,0
95.907,3.6088e-05,0
95.907,4.213e-05,0
95.908,3.743e-05,0
95.908,2.7527e-05,0
95.909,2.4674e-05,0
95.909,2.4842e-05,0
95.91,2.4002e-05,0
95.91,1.9974e-05,0
95.911,1.4435e-05,0
95.911,1.6281e-05,0
95.912,1.796e-05,0
95.912,1.4603e-05,0
95.913,1.4603e-05,0
95.913,1.326e-05,0
95.914,6.8818e-06,0
95.914,3.1891e-06,0
95.915,2.8534e-06,0
95.915,-2.3499e-06,0
95.916,-5.0355e-06,0
95.916,4.1962e-06,0
95.917,1.7121e-05,0
95.918,2.7359e-05,0
95.918,3.3402e-05,0
95.919,3.5584e-05,0
95.919,3.0549e-05,0
95.92,9.7353e-06,0
95.92,-1.6953e-05,0
95.921,-3.5416e-05,0
95.921,-4.3641e-05,0
95.922,-4.9348e-05,0
95.922,-5.1865e-05,0
95.923,-4.5823e-05,0
95.923,-3.7766e-05,0
95.924,-5.1026e-05,0
95.924,-8.7449e-05,0
95.925,-0.00010994,0
95.925,-7.7211e-05,0
95.926,-2.6856e-06,0
95.926,6.5629e-05,0
95.927,0.00010793,0
95.927,0.00013411,0
95.928,0.0001566,0
95.928,0.00017356,0
95.929,0.00016365,0
95.929,0.00012522,0
95.93,7.1672e-05,0
95.93,1.6953e-05,0
95.931,-3.1724e-05,0
95.932,-7.0161e-05,0
95.932,-9.6849e-05,0
95.933,-0.00010759,0
95.933,-0.00010642,0
95.934,-0.00010826,0
95.934,-0.00011431,0
95.935,-0.00012119,0
95.935,-0.00012505,0
95.936,-0.0001185,0
95.936,-0.00010944,0
95.937,-0.00010625,0
95.937,-9.6178e-05,0
95.938,-6.714e-05,0
95.938,-3.3906e-05,0
95.939,-2.4338e-05,0
95.939,-2.7024e-05,0
95.94,-1.3931e-05,0
95.94,1.9135e-05,0
95.941,6.2943e-05,0
95.941,0.00012001,0
95.942,0.00018245,0
95.942,0.00022878,0
95.943,0.00024506,0
95.943,0.00023012,0
95.944,0.00017708,0
95.945,0.0001039,0
95.945,5.153e-05,0
95.946,3.5416e-05,0
95.946,2.3163e-05,0
95.947,-2.182e-06,0
95.947,-1.9806e-05,0
95.948,-2.182e-05,0
95.948,-1.6617e-05,0
95.949,-9.9031e-06,0
95.949,0,0
95.95,1.2253e-05,0
95.95,2.1317e-05,0
95.951,2.1988e-05,0
95.951,2.3331e-05,0
95.952,3.1556e-05,0
95.952,2.7024e-05,0
95.953,5.8747e-06,0
95.953,-2.1149e-05,0
95.954,-6.0929e-05,0
95.954,-0.00011632,0
95.955,-0.00017406,0
95.955,-0.00019773,0
95.956,-0.00015694,0
95.956,-7.0329e-05,0
95.957,1.8631e-05,0
95.957,9.6513e-05,0
95.958,0.00017708,0
95.959,0.00027276,0
95.959,0.00037279,0
95.96,0.00044698,0
95.96,0.00045772,0
95.961,0.00039847,0
95.961,0.00031405,0
95.962,0.00024691,0
95.962,0.0001984,0
95.963,0.00015023,0
95.963,0.00010222,0
95.964,6.865e-05,0
95.964,5.3544e-05,0
95.965,3.1388e-05,0
95.965,-2.501e-05,0
95.966,-0.00010222,0
95.966,-0.00016281,0
95.967,-0.0001989,0
95.967,-0.00024573,0
95.968,-0.00030045,0
95.968,-0.00032244,0
95.969,-0.00029659,0
95.969,-0.00023902,0
95.97,-0.000166,0
95.97,-9.1478e-05,0
95.971,-1.7624e-05,0
95.972,5.7237e-05,0
95.972,0.00012605,0
95.973,0.00017842,0
95.973,0.00019588,0
95.974,0.00017372,0
95.974,0.00012924,0
95.975,8.275e-05,0
95.975,5.3208e-05,0
95.976,4.1291e-05,0
95.976,3.6759e-05,0
95.977,3.4745e-05,0
95.977,3.978e-05,0
95.978,4.5487e-05,0
95.978,4.4144e-05,0
95.979,4.1459e-05,0
95.979,3.8941e-05,0
95.98,3.3402e-05,0
95.98,2.1653e-05,0
95.981,5.0355e-06,0
95.981,-3.8605e-06,0
95.982,3.1891e-06,0
95.982,1.0575e-05,0
95.983,-1.8463e-06,0
95.983,-4.213e-05,0
95.984,-8.3421e-05,0
95.984,-0.00010054,0
95.985,-9.4331e-05,0
95.986,-9.1646e-05,0
95.986,-9.5506e-05,0
95.987,-9.601e-05,0
95.987,-9.6513e-05,0
95.988,-0.00010021,0
95.988,-0.00010625,0
95.989,-9.1478e-05,0
95.989,-4.0452e-05,0
95.99,3.4073e-05,0
95.99,0.00010977,0
95.991,0.00016365,0
95.991,0.00018782,0
95.992,0.00019319,0
95.992,0.00017607,0
95.993,0.00013243,0
95.993,8.0064e-05,0
95.994,3.6088e-05,0
95.994,-5.539e-06,0
95.995,-5.0858e-05,0
95.995,-9.2653e-05,0
95.996,-0.00012874,0
95.996,-0.00015694,0
95.997,-0.0001707,0
95.997,-0.00015492,0
95.998,-0.0001133,0
95.999,-6.4622e-05,0
95.999,-1.7288e-05,0
96,3.2395e-05,0
96,7.3182e-05,0
96.001,8.51e-05,0
96.001,8.426e-05,0
96.002,9.9031e-05,0
96.002,0.00013545,0
96.003,0.00018077,0
96.003,0.00022307,0
96.004,0.00025429,0
96.004,0.00026755,0
96.005,0.00025261,0
96.005,0.00021183,0
96.006,0.00013545,0
96.006,3.1891e-05,0
96.007,-4.6494e-05,0
96.007,-8.5771e-05,0
96.008,-0.00011112,0
96.008,-0.00015123,0
96.009,-0.00020243,0
96.009,-0.00024053,0
96.01,-0.0002501,0
96.01,-0.00022593,0
96.011,-0.00017154,0
96.011,-0.00012136,0
96.012,-9.4499e-05,0
96.013,-7.2679e-05,0
96.013,-3.8437e-05,0
96.014,1.0239e-05,0
96.014,7.5868e-05,0
96.015,0.00015593,0
96.015,0.00023348,0
96.016,0.00028551,0
96.016,0.00031539,0
96.017,0.00033251,0
96.017,0.00033603,0
96.018,0.00030028,0
96.018,0.00021971,0
96.019,0.00015157,0
96.019,0.0001284,0
96.02,0.00012136,0
96.02,9.7185e-05,0
96.021,5.0187e-05,0
96.021,-1.6617e-05,0
96.022,-0.00010625,0
96.022,-0.00018245,0
96.023,-0.00020125,0
96.023,-0.00015358,0
96.024,-8.0735e-05,0
96.024,-4.2802e-05,0
96.025,-5.8412e-05,0
96.025,-8.3085e-05,0
96.026,-6.4958e-05,0
96.027,4.5319e-06,0
96.027,8.275e-05,0
96.028,0.00012337,0
96.028,0.00011984,0
96.029,0.00010591,0
96.029,8.3421e-05,0
96.03,1.0407e-05,0
96.03,-0.00011565,0
96.031,-0.0002219,0
96.031,-0.00023986,0
96.032,-0.00015308,0
96.032,1.7456e-05,0
96.033,0.00023583,0
96.033,0.00043758,0
96.034,0.0005299,0
96.034,0.00045437,0
96.035,0.00029239,0
96.035,0.00016399,0
96.036,9.836e-05,0
96.036,7.4357e-05,0
96.037,4.7166e-05,0
96.037,-2.2324e-05,0
96.038,-0.00013176,0
96.038,-0.00024154,0
96.039,-0.00032193,0
96.04,-0.00035618,0
96.04,-0.00032596,0
96.041,-0.00024573,0
96.041,-0.00016181,0
96.042,-0.00011061,0
96.042,-8.896e-05,0
96.043,-4.4144e-05,0
96.043,5.8747e-05,0
96.044,0.00016466,0
96.044,0.00022005,0
96.045,0.00025026,0
96.045,0.00027427,0
96.046,0.00028635,0
96.046,0.00027846,0
96.047,0.00024959,0
96.047,0.00022173,0
96.048,0.00020092,0
96.048,0.00016852,0
96.049,0.00011229,0
96.049,5.2537e-05,0
96.05,1.2253e-05,0
96.05,-1.4099e-05,0
96.051,-3.6591e-05,0
96.051,-5.6733e-05,0
96.052,-7.8721e-05,0
96.052,-9.9367e-05,0
96.053,-0.00011246,0
96.054,-0.00012068,0
96.054,-0.00013613,0
96.055,-0.00015795,0
96.055,-0.00017154,0
96.056,-0.00019219,0
96.056,-0.00022492,0
96.057,-0.00025261,0
96.057,-0.00025345,0
96.058,-0.00021518,0
96.058,-0.00015274,0
96.059,-9.0303e-05,0
96.059,-3.2563e-05,0
96.06,2.9038e-05,0
96.06,8.3421e-05,0
96.061,9.987e-05,0
96.061,5.7908e-05,0
96.062,-1.0071e-05,0
96.062,-4.3137e-05,0
96.063,-1.4939e-05,0
96.063,4.7166e-05,0
96.064,9.1814e-05,0
96.064,8.3085e-05,0
96.065,2.7024e-05,0
96.065,-4.9683e-05,0
96.066,-0.00011833,0
96.067,-0.00016114,0
96.067,-0.00017288,0
96.068,-0.00014821,0
96.068,-7.7882e-05,0
96.069,2.0981e-05,0
96.069,0.00010658,0
96.07,0.00015694,0
96.07,0.00015006,0
96.071,8.6778e-05,0
96.071,1.3764e-05,0
96.072,-3.7095e-05,0
96.072,-6.1769e-05,0
96.073,-6.5126e-05,0
96.073,-2.8702e-05,0
96.074,4.7166e-05,0
96.074,0.00014166,0
96.075,0.00021602,0
96.075,0.00024623,0
96.076,0.00024221,0
96.076,0.00022593,0
96.077,0.00020041,0
96.077,0.00016399,0
96.078,0.00013512,0
96.078,0.00012874,0
96.079,0.00010491,0
96.079,4.4144e-05,0
96.08,-5.7069e-06,0
96.081,-2.0478e-05,0
96.081,-2.1149e-05,0
96.082,-3.7766e-05,0
96.082,-7.335e-05,0
96.083,-0.00010961,0
96.083,-0.00014318,0
96.084,-0.00016013,0
96.084,-0.00015761,0
96.085,-0.00016181,0
96.085,-0.00015492,0
96.086,-0.00010994,0
96.086,-2.1317e-05,0
96.087,9.8863e-05,0
96.087,0.00020864,0
96.088,0.00026571,0
96.088,0.00026033,0
96.089,0.00022341,0
96.089,0.00019319,0
96.09,0.00019236,0
96.09,0.0002083,0
96.091,0.00023684,0
96.091,0.00029793,0
96.092,0.00037279,0
96.092,0.0003968,0
96.093,0.00032747,0
96.094,0.00018984,0
96.094,4.8508e-05,0
96.095,-5.3208e-05,0
96.095,-0.00011447,0
96.096,-0.0001467,0
96.096,-0.00017272,0
96.097,-0.00020914,0
96.097,-0.000237,0
96.098,-0.00023784,0
96.098,-0.00021199,0
96.099,-0.00017087,0
96.099,-0.00012824,0
96.1,-7.9896e-05,0
96.1,-2.5681e-05,0
96.101,3.1388e-05,0
96.101,8.9799e-05,0
96.102,0.00013075,0
96.102,0.00013999,0
96.103,0.00012404,0
96.103,0.00010591,0
96.104,9.9031e-05,0
96.104,0.00011028,0
96.105,0.00013814,0
96.105,0.00016533,0
96.106,0.00016768,0
96.106,0.00013042,0
96.107,6.4958e-05,0
96.108,-1.3596e-05,0
96.108,-9.5171e-05,0
96.109,-0.00018715,0
96.109,-0.00030465,0
96.11,-0.0004166,0
96.11,-0.0004772,0
96.111,-0.00046528,0
96.111,-0.00039025,0
96.112,-0.0002746,0
96.112,-0.00014469,0
96.113,-2.9374e-05,0
96.113,8.1239e-05,0
96.114,0.00021602,0
96.114,0.00037263,0
96.115,0.00048156,0
96.115,0.00047552,0
96.116,0.00037111,0
96.116,0.00024556,0
96.117,0.00015358,0
96.117,9.2485e-05,0
96.118,4.8844e-05,0
96.118,2.1653e-05,0
96.119,2.0142e-05,0
96.119,3.3906e-05,0
96.12,2.9374e-05,0
96.121,8.3925e-07,0
96.121,-3.8102e-05,0
96.122,-6.9322e-05,0
96.122,-8.661e-05,0
96.123,-8.5267e-05,0
96.123,-7.9728e-05,0
96.124,-8.661e-05,0
96.124,-0.00010021,0
96.125,-0.00011229,0
96.125,-0.00013092,0
96.126,-0.00014788,0
96.126,-0.00014385,0
96.127,-0.00011212,0
96.127,-6.1265e-05,0
96.128,1.796e-05,0
96.128,0.00010239,0
96.129,0.00014318,0
96.129,0.00015526,0
96.13,0.00016634,0
96.13,0.00014821,0
96.131,6.8147e-05,0
96.131,-3.7766e-05,0
96.132,-0.00010877,0
96.132,-0.00012924,0
96.133,-0.00012035,0
96.133,-0.00010289,0
96.134,-8.1743e-05,0
96.135,-5.8915e-05,0
96.135,-3.7095e-05,0
96.136,-1.3428e-05,0
96.136,1.4435e-05,0
96.137,5.0858e-05,0
96.137,0.00010423,0
96.138,0.00017137,0
96.138,0.00023449,0
96.139,0.00028048,0
96.139,0.0002892,0
96.14,0.00022861,0
96.14,0.00012001,0
96.141,2.7359e-05,0
96.141,-2.2492e-05,0
96.142,-3.8605e-05,0
96.142,-3.2731e-05,0
96.143,-4.1962e-06,0
96.143,3.6088e-05,0
96.144,6.0929e-05,0
96.144,5.9586e-05,0
96.145,3.0716e-05,0
96.145,-2.3499e-06,0
96.146,4.5319e-06,0
96.146,6.5293e-05,0
96.147,0.00015593,0
96.148,0.00023952,0
96.148,0.00028048,0
96.149,0.00026621,0
96.149,0.00020259,0
96.15,0.00010893,0
96.15,-8.3925e-07,0
96.151,-9.6513e-05,0
96.151,-0.00014737,0
96.152,-0.00014788,0
96.152,-0.00013344,0
96.153,-0.0001279,0
96.153,-0.00010843,0
96.154,-6.2272e-05,0
96.154,-1.6281e-05,0
96.155,-2.3499e-06,0
96.155,-1.7624e-05,0
96.156,-3.0549e-05,0
96.156,-2.8367e-05,0
96.157,-1.2924e-05,0
96.157,1.6617e-05,0
96.158,5.9419e-05,0
96.158,9.6513e-05,0
96.159,0.00011313,0
96.159,0.00011044,0
96.16,0.00010709,0
96.16,0.0001091,0
96.161,0.00010591,0
96.162,0.00010121,0
96.162,0.00010323,0
96.163,9.9199e-05,0
96.163,7.4693e-05,0
96.164,3.2059e-05,0
96.164,-7.7211e-06,0
96.165,-4.5151e-05,0
96.165,-9.5338e-05,0
96.166,-0.00014553,0
96.166,-0.00016248,0
96.167,-0.00014032,0
96.167,-9.2988e-05,0
96.168,-4.8676e-05,0
96.168,-2.2828e-05,0
96.169,-1.4099e-05,0
96.169,-1.3596e-05,0
96.17,-1.4267e-05,0
96.17,-1.4939e-05,0
96.171,-1.6785e-05,0
96.171,-1.6617e-05,0
96.172,-2.0478e-05,0
96.172,-3.4073e-05,0
96.173,-5.1194e-05,0
96.173,-5.8076e-05,0
96.174,-5.7908e-05,0
96.175,-5.3376e-05,0
96.175,-4.5487e-05,0
96.176,-4.3137e-05,0
96.176,-4.5151e-05,0
96.177,-4.1123e-05,0
96.177,-2.8367e-05,0
96.178,-9.2317e-06,0
96.178,1.4603e-05,0
96.179,5.1194e-05,0
96.179,0.00011028,0
96.18,0.00017003,0
96.18,0.00018447,0
96.181,0.0001472,0
96.181,9.752e-05,0
96.182,5.9922e-05,0
96.182,3.6759e-05,0
96.183,1.4435e-05,0
96.183,-3.5248e-06,0
96.184,-3.357e-06,0
96.184,2.0813e-05,0
96.185,5.2705e-05,0
96.185,6.5629e-05,0
96.186,5.0523e-05,0
96.186,2.1317e-05,0
96.187,6.714e-07,0
96.188,5.0355e-07,0
96.188,1.2589e-05,0
96.189,3.7766e-05,0
96.189,8.2078e-05,0
96.19,0.00013277,0
96.19,0.00015425,0
96.191,0.0001274,0
96.191,8.275e-05,0
96.192,4.7333e-05,0
96.192,1.2589e-05,0
96.193,-2.4842e-05,0
96.193,-5.2873e-05,0
96.194,-6.2776e-05,0
96.194,-4.918e-05,0
96.195,-3.0045e-05,0
96.195,-2.2324e-05,0
96.196,-3.0381e-05,0
96.196,-5.2705e-05,0
96.197,-7.335e-05,0
96.197,-8.9296e-05,0
96.198,-0.00010239,0
96.198,-9.3828e-05,0
96.199,-6.5293e-05,0
96.199,-4.3137e-05,0
96.2,-3.6759e-05,0
96.2,-1.9303e-05,0
96.201,2.7863e-05,0
96.202,8.7785e-05,0
96.202,0.00013579,0
96.203,0.00015258,0
96.203,0.00014099,0
96.204,0.00012538,0
96.204,0.00011095,0
96.205,9.752e-05,0
96.205,9.2821e-05,0
96.206,9.5171e-05,0
96.206,0.00010373,0
96.207,0.00011498,0
96.207,0.00012001,0
96.208,0.00012203,0
96.208,0.00012421,0
96.209,0.00011833,0
96.209,0.00010121,0
96.21,7.2343e-05,0
96.21,2.8367e-05,0
96.211,-1.9135e-05,0
96.211,-6.7308e-05,0
96.212,-0.00011901,0
96.212,-0.00017171,0
96.213,-0.00021569,0
96.213,-0.00023499,0
96.214,-0.00020629,0
96.215,-0.00013764,0
96.215,-6.5965e-05,0
96.216,3.8605e-06,0
96.216,8.4932e-05,0
96.217,0.0001655,0
96.217,0.0002219,0
96.218,0.00024775,0
96.218,0.00024825,0
96.219,0.00022324,0
96.219,0.00017977,0
96.22,0.00013277,0
96.22,8.9464e-05,0
96.221,4.8508e-05,0
96.221,1.8967e-05,0
96.222,-1.5106e-06,0
96.222,-1.7624e-05,0
96.223,-3.5752e-05,0
96.223,-6.4286e-05,0
96.224,-8.9967e-05,0
96.224,-7.9896e-05,0
96.225,-3.2563e-05,0
96.225,2.2995e-05,0
96.226,6.4286e-05,0
96.226,6.7979e-05,0
96.227,2.9877e-05,0
96.227,-2.4002e-05,0
96.228,-5.9586e-05,0
96.229,-5.1194e-05,0
96.229,-3.1891e-06,0
96.23,5.2369e-05,0
96.23,8.2414e-05,0
96.231,7.6371e-05,0
96.231,4.8173e-05,0
96.232,2.6688e-05,0
96.232,3.743e-05,0
96.233,6.4958e-05,0
96.233,7.7379e-05,0
96.234,6.8315e-05,0
96.234,5.623e-05,0
96.235,5.0187e-05,0
96.235,3.6423e-05,0
96.236,-1.6785e-06,0
96.236,-5.2033e-05,0
96.237,-9.3492e-05,0
96.237,-0.00011531,0
96.238,-0.00013109,0
96.238,-0.00015509,0
96.239,-0.00018128,0
96.239,-0.00018128,0
96.24,-0.00014821,0
96.24,-9.0471e-05,0
96.241,-5.0355e-07,0
96.242,0.00010356,0
96.242,0.00017876,0
96.243,0.00020931,0
96.243,0.00019051,0
96.244,0.00012035,0
96.244,1.4267e-05,0
96.245,-8.7114e-05,0
96.245,-0.00013898,0
96.246,-0.00014452,0
96.246,-0.00012438,0
96.247,-0.00010222,0
96.247,-0.00011179,0
96.248,-0.00014099,0
96.248,-0.00014653,0
96.249,-0.0001133,0
96.249,-5.6901e-05,0
96.25,9.9031e-06,0
96.25,9.6178e-05,0
96.251,0.00019823,0
96.251,0.0002845,0
96.252,0.00032177,0
96.252,0.00030666,0
96.253,0.00025899,0
96.253,0.0002177,0
96.254,0.00020058,0
96.254,0.0001848,0
96.255,0.00015258,0
96.256,0.00011263,0
96.256,7.8553e-05,0
96.257,4.7501e-05,0
96.257,1.1917e-05,0
96.258,-2.7695e-05,0
96.258,-6.7308e-05,0
96.259,-0.00010306,0
96.259,-0.00012136,0
96.26,-0.00012219,0
96.26,-0.00012874,0
96.261,-0.00015207,0
96.261,-0.00017859,0
96.262,-0.00019554,0
96.262,-0.00019588,0
96.263,-0.00015442,0
96.263,-8.0064e-05,0
96.264,-5.8747e-06,0
96.264,6.3951e-05,0
96.265,0.00014485,0
96.265,0.00021938,0
96.266,0.0002553,0
96.266,0.00024422,0
96.267,0.00019387,0
96.267,0.00013378,0
96.268,8.9799e-05,0
96.269,7.5029e-05,0
96.269,8.8121e-05,0
96.27,9.2485e-05,0
96.27,5.9922e-05,0
96.271,1.3428e-06,0
96.271,-5.1698e-05,0
96.272,-0.00010004,0
96.272,-0.00015946,0
96.273,-0.00021451,0
96.273,-0.00025849,0
96.274,-0.00029592,0
96.274,-0.00031102,0
96.275,-0.00027695,0
96.275,-0.0001655,0
96.276,2.7024e-05,0
96.276,0.0002506,0
96.277,0.0004302,0
96.277,0.00051211,0
96.278,0.00048324,0
96.278,0.00038119,0
96.279,0.00026906,0
96.279,0.00019118,0
96.28,0.00014687,0
96.28,0.0001133,0
96.281,9.1142e-05,0
96.281,8.2246e-05,0
96.282,7.1839e-05,0
96.283,5.6733e-05,0
96.283,3.7095e-05,0
96.284,1.8463e-06,0
96.284,-4.1459e-05,0
96.285,-8.1575e-05,0
96.285,-0.00012471,0
96.286,-0.00017339,0
96.286,-0.00021283,0
96.287,-0.00025077,0
96.287,-0.00030364,0
96.288,-0.00036356,0
96.288,-0.0003931,0
96.289,-0.00034711,0
96.289,-0.00021518,0
96.29,-1.7624e-05,0
96.29,0.00020797,0
96.291,0.00040133,0
96.291,0.00051546,0
96.292,0.00053091,0
96.292,0.00046444,0
96.293,0.00036893,0
96.293,0.00028383,0
96.294,0.00020528,0
96.294,0.0001232,0
96.295,5.4047e-05,0
96.296,1.4099e-05,0
96.296,2.182e-06,0
96.297,-1.2253e-05,0
96.297,-5.2369e-05,0
96.298,-0.0001034,0
96.298,-0.0001425,0
96.299,-0.00015358,0
96.299,-0.00014116,0
96.3,-0.00013243,0
96.3,-0.00015308,0
96.301,-0.00019722,0
96.301,-0.0002459,0
96.302,-0.00029189,0
96.302,-0.00032798,0
96.303,-0.00034946,0
96.303,-0.00032345,0
96.304,-0.00022341,0
96.304,-8.2918e-05,0
96.305,5.4719e-05,0
96.305,0.00015761,0
96.306,0.00020192,0
96.306,0.00021334,0
96.307,0.00023449,0
96.307,0.00026453,0
96.308,0.00027813,0
96.308,0.00027594,0
96.309,0.0002788,0
96.31,0.00029827,0
96.31,0.00030062,0
96.311,0.00023482,0
96.311,0.00011917,0
96.312,1.5274e-05,0
96.312,-5.8579e-05,0
96.313,-0.00012337,0
96.313,-0.00018312,0
96.314,-0.00024254,0
96.314,-0.000308,0
96.315,-0.00036323,0
96.315,-0.00037095,0
96.316,-0.00031472,0
96.316,-0.00020427,0
96.317,-4.4816e-05,0
96.317,0.00013931,0
96.318,0.00030163,0
96.318,0.00039814,0
96.319,0.00039998,0
96.319,0.00028954,0
96.32,0.00011431,0
96.32,-3.6759e-05,0
96.321,-0.00010574,0
96.321,-6.6636e-05,0
96.322,5.8412e-05,0
96.323,0.00018698,0
96.323,0.00024758,0
96.324,0.0002266,0
96.324,0.00016231,0
96.325,9.9199e-05,0
96.325,6.5629e-05,0
96.326,5.4551e-05,0
96.326,3.4745e-05,0
96.327,-1.6785e-05,0
96.327,-0.00010491,0
96.328,-0.00019638,0
96.328,-0.00024288,0
96.329,-0.00023415,0
96.329,-0.0001744,0
96.33,-6.6972e-05,0
96.33,6.0426e-05,0
96.331,0.00017641,0
96.331,0.00024926,0
96.332,0.00026436,0
96.332,0.00022995,0
96.333,0.00016147,0
96.333,6.9993e-05,0
96.334,-4.2634e-05,0
96.334,-0.00015476,0
96.335,-0.00022173,0
96.335,-0.00021569,0
96.336,-0.00013646,0
96.337,3.0213e-06,0
96.337,0.00015023,0
96.338,0.00025899,0
96.338,0.0003268,0
96.339,0.00035164,0
96.339,0.00032345,0
96.34,0.00024691,0
96.34,0.00016013,0
96.341,8.9128e-05,0
96.341,4.1794e-05,0
96.342,2.031e-05,0
96.342,2.7695e-05,0
96.343,5.3544e-05,0
96.343,6.949e-05,0
96.344,6.2608e-05,0
96.344,3.9109e-05,0
96.345,1.0575e-05,0
96.345,-5.8747e-06,0
96.346,-1.7288e-05,0
96.346,-3.6759e-05,0
96.347,-4.9851e-05,0
96.347,-4.8508e-05,0
96.348,-5.153e-05,0
96.348,-7.7546e-05,0
96.349,-0.00012471,0
96.35,-0.00018648,0
96.35,-0.00025966,0
96.351,-0.00033973,0
96.351,-0.00041694,0
96.352,-0.00046192,0
96.352,-0.00044749,0
96.353,-0.00038068,0
96.353,-0.00027662,0
96.354,-0.0001373,0
96.354,1.5946e-05,0
96.355,0.00015795,0
96.355,0.00025563,0
96.356,0.00025631,0
96.356,0.00015962,0
96.357,4.5319e-05,0
96.357,1.3428e-06,0
96.358,5.9922e-05,0
96.358,0.00017792,0
96.359,0.00026302,0
96.359,0.00025547,0
96.36,0.00018228,0
96.36,9.8527e-05,0
96.361,3.4745e-05,0
96.361,-1.326e-05,0
96.362,-5.1194e-05,0
96.362,-7.9728e-05,0
96.363,-0.00010004,0
96.364,-9.9702e-05,0
96.364,-6.1601e-05,0
96.365,4.3641e-06,0
96.365,5.304e-05,0
96.366,5.8244e-05,0
96.366,3.1052e-05,0
96.367,1.8463e-06,0
96.367,1.5106e-06,0
96.368,1.5946e-05,0
96.368,1.0239e-05,0
96.369,-2.1653e-05,0
96.369,-6.5461e-05,0
96.37,-9.1814e-05,0
96.37,-8.2414e-05,0
96.371,-6.479e-05,0
96.371,-7.3182e-05,0
96.372,-0.00010927,0
96.372,-0.00014267,0
96.373,-0.00015308,0
96.373,-0.00011917,0
96.374,-1.7288e-05,0
96.374,0.00014653,0
96.375,0.00032747,0
96.375,0.0004584,0
96.376,0.00048794,0
96.376,0.00043893,0
96.377,0.00034896,0
96.378,0.00024154,0
96.378,0.00013747,0
96.379,6.3447e-05,0
96.379,4.0452e-05,0
96.38,5.7404e-05,0
96.38,0.00010574,0
96.381,0.00016869,0
96.381,0.00019672,0
96.382,0.00016063,0
96.382,9.8192e-05,0
96.383,5.6062e-05,0
96.383,4.8508e-05,0
96.384,5.9922e-05,0
96.384,7.1e-05,0
96.385,7.7379e-05,0
96.385,8.275e-05,0
96.386,8.3421e-05,0
96.386,6.7979e-05,0
96.387,3.122e-05,0
96.387,-1.4267e-05,0
96.388,-4.9683e-05,0
96.388,-6.1265e-05,0
96.389,-4.918e-05,0
96.389,-2.2995e-05,0
96.39,1.0071e-05,0
96.391,5.153e-05,0
96.391,0.00010054,0
96.392,0.00013747,0
96.392,0.00014435,0
96.393,0.00012572,0
96.393,7.9393e-05,0
96.394,1.0071e-05,0
96.394,-5.9251e-05,0
96.395,-0.00011917,0
96.395,-0.0001613,0
96.396,-0.0001697,0
96.396,-0.00014536,0
96.397,-9.1478e-05,0
96.397,-1.2589e-05,0
96.398,5.8076e-05,0
96.398,8.5771e-05,0
96.399,6.2943e-05,0
96.399,5.7069e-06,0
96.4,-6.0594e-05,0
96.4,-0.00011095,0
96.401,-0.00014469,0
96.401,-0.00017607,0
96.402,-0.00020696,0
96.402,-0.00022609,0
96.403,-0.00022559,0
96.403,-0.00020444,0
96.404,-0.00015727,0
96.405,-8.7785e-05,0
96.405,-3.2059e-05,0
96.406,-2.2828e-05,0
96.406,-4.2802e-05,0
96.407,-4.8844e-05,0
96.407,-2.5681e-05,0
96.408,1.6617e-05,0
96.408,5.8412e-05,0
96.409,8.8457e-05,0
96.409,0.00010709,0
96.41,0.00010961,0
96.41,9.8192e-05,0
96.411,8.04e-05,0
96.411,6.63e-05,0
96.412,5.8076e-05,0
96.412,5.3544e-05,0
96.413,4.9516e-05,0
96.413,4.683e-05,0
96.414,4.1627e-05,0
96.414,2.1988e-05,0
96.415,-1.2924e-05,0
96.415,-5.8412e-05,0
96.416,-0.00010709,0
96.416,-0.000142,0
96.417,-0.00015358,0
96.418,-0.00014939,0
96.418,-0.00014116,0
96.419,-0.00013411,0
96.419,-0.0001227,0
96.42,-8.661e-05,0
96.42,-4.3977e-05,0
96.421,-2.1653e-05,0
96.421,-1.1582e-05,0
96.422,1.3764e-05,0
96.422,5.2369e-05,0
96.423,6.8147e-05,0
96.423,8.896e-06,0
96.424,-0.00010893,0
96.424,-0.00022374,0
96.425,-0.00026906,0
96.425,-0.00020377,0
96.426,-5.2537e-05,0
96.426,0.00012538,0
96.427,0.00028719,0
96.427,0.00041408,0
96.428,0.00049499,0
96.428,0.00051009,0
96.429,0.00044698,0
96.429,0.00033519,0
96.43,0.00023482,0
96.43,0.00018984,0
96.431,0.00019588,0
96.432,0.00021736,0
96.432,0.00021938,0
96.433,0.00020058,0
96.433,0.00017826,0
96.434,0.00013797,0
96.434,7.4525e-05,0
96.435,4.6998e-06,0
96.435,-5.4887e-05,0
96.436,-9.0135e-05,0
96.436,-0.00010256,0
96.437,-0.00010776,0
96.437,-0.00011363,0
96.438,-0.0001274,0
96.438,-0.00014788,0
96.439,-0.00015727,0
96.439,-0.00013999,0
96.44,-8.7114e-05,0
96.44,2.8534e-06,0
96.441,0.00010037,0
96.441,0.0001697,0
96.442,0.00020528,0
96.442,0.00019789,0
96.443,0.00015073,0
96.443,9.2485e-05,0
96.444,5.3208e-05,0
96.445,4.4144e-05,0
96.445,4.9516e-05,0
96.446,4.683e-05,0
96.446,4.0787e-05,0
96.447,4.7333e-05,0
96.447,6.2943e-05,0
96.448,7.9728e-05,0
96.448,9.5842e-05,0
96.449,0.00010457,0
96.449,0.00010088,0
96.45,9.5003e-05,0
96.45,9.6178e-05,0
96.451,9.5842e-05,0
96.451,8.2246e-05,0
96.452,5.7237e-05,0
96.452,2.266e-05,0
96.453,-2.2324e-05,0
96.453,-6.8986e-05,0
96.454,-9.8863e-05,0
96.454,-0.00011296,0
96.455,-0.00012757,0
96.455,-0.00014083,0
96.456,-0.00014234,0
96.456,-0.00012354,0
96.457,-7.8386e-05,0
96.457,-6.5461e-06,0
96.458,8.8289e-05,0
96.459,0.00018111,0
96.459,0.00022005,0
96.46,0.00018077,0
96.46,9.7856e-05,0
96.461,1.4939e-05,0
96.461,-4.5991e-05,0
96.462,-8.8792e-05,0
96.462,-0.00012018,0
96.463,-0.0001368,0
96.463,-0.00013579,0
96.464,-0.0001284,0
96.464,-0.0001227,0
96.465,-0.00011464,0
96.465,-0.00010256,0
96.466,-8.9632e-05,0
96.466,-7.4861e-05,0
96.467,-4.683e-05,0
96.467,-2.182e-06,0
96.468,2.6017e-05,0
96.468,6.5461e-06,0
96.469,-3.2563e-05,0
96.469,-6.0594e-05,0
96.47,-7.6875e-05,0
96.47,-9.3996e-05,0
96.471,-0.00011196,0
96.472,-0.00012874,0
96.472,-0.00013999,0
96.473,-0.00014653,0
96.473,-0.00015811,0
96.474,-0.00016785,0
96.474,-0.00015845,0
96.475,-0.00013109,0
96.475,-9.0471e-05,0
96.476,-4.448e-05,0
96.476,7.2175e-06,0
96.477,6.3615e-05,0
96.477,0.00010524,0
96.478,0.00012001,0
96.478,0.00011246,0
96.479,9.7856e-05,0
96.479,0.00010155,0
96.48,0.00012639,0
96.48,0.00014452,0
96.481,0.00013378,0
96.481,0.00010457,0
96.482,8.3757e-05,0
96.482,8.3085e-05,0
96.483,0.00010054,0
96.483,0.00012438,0
96.484,0.00013478,0
96.484,0.00012538,0
96.485,0.00011263,0
96.486,0.00011447,0
96.486,0.00012119,0
96.487,0.0001274,0
96.487,0.00013277,0
96.488,0.00011867,0
96.488,8.6442e-05,0
96.489,5.539e-05,0
96.489,2.9709e-05,0
96.49,1.1917e-05,0
96.49,8.896e-06,0
96.491,9.2317e-06,0
96.491,1.6785e-06,0
96.492,-1.6785e-06,0
96.492,1.3596e-05,0
96.493,5.7572e-05,0
96.493,0.00010759,0
96.494,0.00013008,0
96.494,0.00012052,0
96.495,8.3757e-05,0
96.495,3.4745e-05,0
96.496,-3.5248e-06,0
96.496,-2.4338e-05,0
96.497,-3.3066e-05,0
96.497,-4.5151e-05,0
96.498,-6.5629e-05,0
96.499,-8.2414e-05,0
96.499,-8.6442e-05,0
96.5,-8.2414e-05,0
96.5,-6.9322e-05,0
96.501,-3.0045e-05,0
96.501,3.5752e-05,0
96.502,0.00012773,0
96.502,0.00024556,0
96.503,0.00035668,0
96.503,0.00042684,0
96.504,0.00044564,0
96.504,0.00040569,0
96.505,0.00031203,0
96.505,0.00020125,0
96.506,0.00011498,0
96.506,6.63e-05,0
96.507,3.6423e-05,0
96.507,7.3854e-06,0
96.508,-2.1653e-05,0
96.508,-5.7908e-05,0
96.509,-9.8863e-05,0
96.509,-0.0001284,0
96.51,-0.00014217,0
96.51,-0.00013999,0
96.511,-0.00013512,0
96.511,-0.00013982,0
96.512,-0.00014653,0
96.513,-0.00015123,0
96.513,-0.00016063,0
96.514,-0.00017977,0
96.514,-0.00019705,0
96.515,-0.00019118,0
96.515,-0.00015962,0
96.516,-0.00012136,0
96.516,-9.5171e-05,0
96.517,-7.5364e-05,0
96.517,-4.213e-05,0
96.518,1.6281e-05,0
96.518,9.5674e-05,0
96.519,0.00018463,0
96.519,0.00024825,0
96.52,0.00024321,0
96.52,0.00017708,0
96.521,9.3492e-05,0
96.521,2.9877e-05,0
96.522,3.5248e-06,0
96.522,-2.182e-06,0
96.523,-2.182e-06,0
96.523,7.7211e-06,0
96.524,2.501e-05,0
96.524,3.7263e-05,0
96.525,4.2802e-05,0
96.526,4.683e-05,0
96.526,5.388e-05,0
96.527,5.6565e-05,0
96.527,5.1865e-05,0
96.528,3.743e-05,0
96.528,1.091e-05,0
96.529,-4.5319e-06,0
96.529,-3.6927e-06,0
96.53,-9.9031e-06,0
96.53,-3.6927e-05,0
96.531,-7.4525e-05,0
96.531,-0.00013176,0
96.532,-0.00020209,0
96.532,-0.00026151,0
96.533,-0.00030716,0
96.533,-0.00033184,0
96.534,-0.00033133,0
96.534,-0.00031891,0
96.535,-0.00029105,0
96.535,-0.00023952,0
96.536,-0.000165,0
96.536,-5.5894e-05,0
96.537,8.4596e-05,0
96.537,0.00022055,0
96.538,0.00031136,0
96.538,0.00033687,0
96.539,0.00031774,0
96.54,0.00029726,0
96.54,0.00028988,0
96.541,0.00028249,0
96.541,0.00025899,0
96.542,0.00021971,0
96.542,0.00017809,0
96.543,0.00014871,0
96.543,0.00012303,0
96.544,0.00010188,0
96.544,9.2149e-05,0
96.545,8.5771e-05,0
96.545,8.04e-05,0
96.546,8.04e-05,0
96.546,8.1407e-05,0
96.547,7.7379e-05,0
96.547,6.7475e-05,0
96.548,5.3544e-05,0
96.548,2.8367e-05,0
96.549,-7.2175e-06,0
96.549,-3.5248e-05,0
96.55,-5.1026e-05,0
96.55,-7.2007e-05,0
96.551,-0.0001086,0
96.551,-0.00015325,0
96.552,-0.00019454,0
96.553,-0.00021485,0
96.553,-0.00019353,0
96.554,-0.00012219,0
96.554,-1.2757e-05,0
96.555,8.8457e-05,0
96.555,0.00012454,0
96.556,8.1743e-05,0
96.556,1.1749e-06,0
96.557,-5.7404e-05,0
96.557,-4.8508e-05,0
96.558,4.2802e-05,0
96.558,0.00018346,0
96.559,0.00031707,0
96.559,0.00039528,0
96.56,0.00039025,0
96.56,0.00032663,0
96.561,0.00025496,0
96.561,0.00020058,0
96.562,0.00015795,0
96.562,0.00012203,0
96.563,8.9799e-05,0
96.563,6.2943e-05,0
96.564,4.6159e-05,0
96.564,3.6759e-05,0
96.565,2.3331e-05,0
96.566,-1.1749e-06,0
96.566,-2.5513e-05,0
96.567,-4.0116e-05,0
96.567,-5.2873e-05,0
96.568,-7.1672e-05,0
96.568,-9.7688e-05,0
96.569,-0.00013075,0
96.569,-0.00015929,0
96.57,-0.00016667,0
96.57,-0.00015106,0
96.571,-0.00011968,0
96.571,-8.51e-05,0
96.572,-6.1601e-05,0
96.572,-4.6326e-05,0
96.573,-3.4409e-05,0
96.573,-2.7024e-05,0
96.574,-2.8031e-05,0
96.574,-3.4073e-05,0
96.575,-3.4409e-05,0
96.575,-1.4099e-05,0
96.576,1.9638e-05,0
96.576,4.9516e-05,0
96.577,6.949e-05,0
96.577,7.4861e-05,0
96.578,6.7643e-05,0
96.578,5.9754e-05,0
96.579,5.4551e-05,0
96.58,4.1962e-05,0
96.58,2.2995e-05,0
96.581,1.0071e-06,0
96.581,-2.1653e-05,0
96.582,-3.4745e-05,0
96.582,-4.3137e-05,0
96.583,-5.6565e-05,0
96.583,-7.0832e-05,0
96.584,-8.04e-05,0
96.584,-8.2414e-05,0
96.585,-7.7043e-05,0
96.585,-7.8721e-05,0
96.586,-8.1743e-05,0
96.586,-7.1e-05,0
96.587,-5.388e-05,0
96.587,-4.1794e-05,0
96.588,-3.5416e-05,0
96.588,-4.8676e-05,0
96.589,-9.7185e-05,0
96.589,-0.00014351,0
96.59,-0.00015828,0
96.59,-0.00015392,0
96.591,-0.00014972,0
96.591,-0.00014267,0
96.592,-0.00012035,0
96.593,-7.8553e-05,0
96.593,-1.9806e-05,0
96.594,3.5416e-05,0
96.594,8.1743e-05,0
96.595,0.0001415,0
96.595,0.00023247,0
96.596,0.00032982,0
96.596,0.00039596,0
96.597,0.00040938,0
96.597,0.00037229,0
96.598,0.00031539,0
96.598,0.00026839,0
96.599,0.00023348,0
96.599,0.0002031,0
96.6,0.00017037,0
96.6,0.00013075,0
96.601,9.987e-05,0
96.601,8.7114e-05,0
96.602,7.2175e-05,0
96.602,3.7095e-05,0
96.603,-1.5274e-05,0
96.603,-7.2847e-05,0
96.604,-0.00011565,0
96.604,-0.0001378,0
96.605,-0.00017037,0
96.605,-0.00021468,0
96.606,-0.00022576,0
96.607,-0.0001801,0
96.607,-9.4331e-05,0
96.608,-8.3925e-07,0
96.608,7.335e-05,0
96.609,0.00012773,0
96.609,0.00014888,0
96.61,0.00012438,0
96.61,6.865e-05,0
96.611,1.2253e-05,0
96.611,-2.7024e-05,0
96.612,-4.7333e-05,0
96.612,-5.3208e-05,0
96.613,-4.3809e-05,0
96.613,-1.7624e-05,0
96.614,3.8605e-06,0
96.614,6.8818e-06,0
96.615,3.8605e-06,0
96.615,6.2104e-06,0
96.616,3.357e-06,0
96.616,-2.5681e-05,0
96.617,-7.4357e-05,0
96.617,-0.00011951,0
96.618,-0.00015744,0
96.618,-0.00020041,0
96.619,-0.00023952,0
96.62,-0.00024321,0
96.62,-0.00020578,0
96.621,-0.00012387,0
96.621,-3.0213e-06,0
96.622,0.00012723,0
96.622,0.0002459,0
96.623,0.00032613,0
96.623,0.00034292,0
96.624,0.00030599,0
96.624,0.00025496,0
96.625,0.00021267,0
96.625,0.00018363,0
96.626,0.00016298,0
96.626,0.00016701,0
96.627,0.00020394,0
96.627,0.00024808,0
96.628,0.00026705,0
96.628,0.00025161,0
96.629,0.00022358,0
96.629,0.0002036,0
96.63,0.00018917,0
96.63,0.00016349,0
96.631,0.00012857,0
96.631,9.8527e-05,0
96.632,6.9657e-05,0
96.632,3.4409e-05,0
96.633,-1.561e-05,0
96.634,-7.0497e-05,0
96.634,-0.00011397,0
96.635,-0.00014099,0
96.635,-0.00015341,0
96.636,-0.00014553,0
96.636,-0.00012757,0
96.637,-0.00011867,0
96.637,-0.00011397,0
96.638,-0.00011414,0
96.638,-0.00011901,0
96.639,-0.00013579,0
96.639,-0.0001702,0
96.64,-0.00020327,0
96.64,-0.00022055,0
96.641,-0.00021854,0
96.641,-0.00019806,0
96.642,-0.00016936,0
96.642,-0.000142,0
96.643,-0.00011968,0
96.643,-0.00010172,0
96.644,-8.1407e-05,0
96.644,-5.4047e-05,0
96.645,-2.5345e-05,0
96.645,-4.8676e-06,0
96.646,8.2246e-06,0
96.647,2.0981e-05,0
96.647,3.2059e-05,0
96.648,3.8437e-05,0
96.648,4.3137e-05,0
96.649,5.2033e-05,0
96.649,6.63e-05,0
96.65,7.6371e-05,0
96.65,7.8889e-05,0
96.651,8.0903e-05,0
96.651,8.3421e-05,0
96.652,7.9896e-05,0
96.652,7.57e-05,0
96.653,7.4693e-05,0
96.653,7.5029e-05,0
96.654,7.7379e-05,0
96.654,7.1504e-05,0
96.655,5.1698e-05,0
96.655,2.9206e-05,0
96.656,2.1988e-05,0
96.656,2.5345e-05,0
96.657,2.4338e-05,0
96.657,1.7288e-05,0
96.658,-6.714e-07,0
96.658,-2.887e-05,0
96.659,-5.0858e-05,0
96.659,-6.2943e-05,0
96.66,-6.5126e-05,0
96.661,-5.153e-05,0
96.661,-1.5778e-05,0
96.662,4.0116e-05,0
96.662,9.8863e-05,0
96.663,0.0001368,0
96.663,0.00013848,0
96.664,0.00011649,0
96.664,0.00010961,0
96.665,0.00014418,0
96.665,0.00020931,0
96.666,0.00027376,0
96.666,0.00031069,0
96.667,0.00031254,0
96.667,0.0002798,0
96.668,0.00022979,0
96.668,0.00018648,0
96.669,0.00014888,0
96.669,0.00010373,0
96.67,5.2705e-05,0
96.67,1.091e-05,0
96.671,-1.4603e-05,0
96.671,-3.3066e-05,0
96.672,-5.069e-05,0
96.672,-6.5965e-05,0
96.673,-7.2679e-05,0
96.674,-7.0832e-05,0
96.674,-5.8244e-05,0
96.675,-3.3906e-05,0
96.675,-1.2253e-05,0
96.676,8.3925e-07,0
96.676,7.2175e-06,0
96.677,1.0239e-05,0
96.677,9.5674e-06,0
96.678,1.3596e-05,0
96.678,2.031e-05,0
96.679,5.8747e-06,0
96.679,-3.8437e-05,0
96.68,-9.3828e-05,0
96.68,-0.00014368,0
96.681,-0.00019017,0
96.681,-0.00024002,0
96.682,-0.00027578,0
96.682,-0.00026973,0
96.683,-0.00021736,0
96.683,-0.00014166,0
96.684,-6.5126e-05,0
96.684,1.4267e-05,0
96.685,9.7856e-05,0
96.685,0.0001796,0
96.686,0.00023969,0
96.686,0.00025161,0
96.687,0.00020528,0
96.688,0.00013042,0
96.688,7.6371e-05,0
96.689,6.1936e-05,0
96.689,7.2343e-05,0
96.69,9.4331e-05,0
96.69,0.0001133,0
96.691,0.00011531,0
96.691,0.00010188,0
96.692,8.7114e-05,0
96.692,8.1239e-05,0
96.693,8.275e-05,0
96.693,8.0735e-05,0
96.694,7.2175e-05,0
96.694,5.5558e-05,0
96.695,2.5345e-05,0
96.695,-1.9638e-05,0
96.696,-7.5532e-05,0
96.696,-0.00012001,0
96.697,-0.00013378,0
96.697,-0.00011716,0
96.698,-7.8721e-05,0
96.698,-3.827e-05,0
96.699,-8.2246e-06,0
96.699,9.7353e-06,0
96.7,2.4002e-05,0
96.701,4.918e-05,0
96.701,7.0832e-05,0
96.702,6.8315e-05,0
96.702,4.0116e-05,0
96.703,4.8676e-06,0
96.703,-1.796e-05,0
96.704,-3.1388e-05,0
96.704,-4.213e-05,0
96.705,-4.8844e-05,0
96.705,-4.918e-05,0
96.706,-4.1291e-05,0
96.706,-2.4674e-05,0
96.707,-6.714e-06,0
96.707,7.3854e-06,0
96.708,1.5946e-05,0
96.708,2.1317e-05,0
96.709,2.3499e-05,0
96.709,2.4338e-05,0
96.71,2.8031e-05,0
96.71,3.3906e-05,0
96.711,3.8437e-05,0
96.711,3.4409e-05,0
96.712,2.4674e-05,0
96.712,1.6449e-05,0
96.713,2.8534e-06,0
96.713,-2.2995e-05,0
96.714,-5.0187e-05,0
96.715,-6.6972e-05,0
96.715,-7.7882e-05,0
96.716,-9.2821e-05,0
96.716,-0.00011145,0
96.717,-0.00010726,0
96.717,-6.63e-05,0
96.718,-1.0407e-05,0
96.718,2.8199e-05,0
96.719,4.8005e-05,0
96.719,6.4286e-05,0
96.72,8.4764e-05,0
96.72,0.00010709,0
96.721,0.00011749,0
96.721,0.0001086,0
96.722,7.7714e-05,0
96.722,4.0787e-05,0
96.723,1.5106e-05,0
96.723,8.3925e-07,0
96.724,-1.4603e-05,0
96.724,-3.1724e-05,0
96.725,-3.6088e-05,0
96.725,-2.9709e-05,0
96.726,-1.3764e-05,0
96.726,1.0239e-05,0
96.727,3.2731e-05,0
96.728,4.0284e-05,0
96.728,3.5752e-05,0
96.729,4.448e-05,0
96.729,7.7714e-05,0
96.73,0.00011431,0
96.73,0.00011649,0
96.731,6.7979e-05,0
96.731,1.0239e-05,0
96.732,-1.5274e-05,0
96.732,-1.2421e-05,0
96.733,1.3596e-05,0
96.733,5.6565e-05,0
96.734,8.5603e-05,0
96.734,8.2918e-05,0
96.735,6.2104e-05,0
96.735,4.2466e-05,0
96.736,3.3402e-05,0
96.736,3.8773e-05,0
96.737,5.623e-05,0
96.737,8.0903e-05,0
96.738,0.0001039,0
96.738,0.0001232,0
96.739,0.00014519,0
96.739,0.00015962,0
96.74,0.00014519,0
96.74,9.7856e-05,0
96.741,5.2201e-05,0
96.742,4.0452e-05,0
96.742,6.1936e-05,0
96.743,9.4499e-05,0
96.743,0.00012404,0
96.744,0.00014888,0
96.744,0.0001603,0
96.745,0.00013948,0
96.745,9.2485e-05,0
96.746,4.683e-05,0
96.746,1.4771e-05,0
96.747,-1.2924e-05,0
96.747,-4.3305e-05,0
96.748,-5.7572e-05,0
96.748,-3.8437e-05,0
96.749,1.8463e-06,0
96.749,3.3066e-05,0
96.75,4.5319e-05,0
96.75,4.0452e-05,0
96.751,2.4002e-05,0
96.751,5.0355e-06,0
96.752,-1.4939e-05,0
96.752,-3.6591e-05,0
96.753,-6.2104e-05,0
96.753,-8.9128e-05,0
96.754,-0.00010373,0
96.754,-9.0639e-05,0
96.755,-4.8508e-05,0
96.756,1.6785e-07,0
96.756,1.9974e-05,0
96.757,8.3925e-07,0
96.757,-4.0116e-05,0
96.758,-7.6036e-05,0
96.758,-9.3492e-05,0
96.759,-9.5171e-05,0
96.759,-8.04e-05,0
96.76,-6.3951e-05,0
96.76,-6.6133e-05,0
96.761,-8.9632e-05,0
96.761,-0.00012757,0
96.762,-0.00017473,0
96.762,-0.00021854,0
96.763,-0.00023616,0
96.763,-0.00021602,0
96.764,-0.00018178,0
96.764,-0.00015627,0
96.765,-0.00013478,0
96.765,-8.6946e-05,0
96.766,-9.9031e-06,0
96.766,5.2201e-05,0
96.767,7.6875e-05,0
96.767,8.9128e-05,0
96.768,0.00010927,0
96.769,0.00011984,0
96.769,0.00010356,0
96.77,6.7643e-05,0
96.77,3.6927e-05,0
96.771,4.3977e-05,0
96.771,0.00010054,0
96.772,0.00018178,0
96.772,0.00024053,0
96.773,0.00025261,0
96.773,0.00022861,0
96.774,0.00018883,0
96.774,0.00015325,0
96.775,0.00013344,0
96.775,0.00011917,0
96.776,9.9199e-05,0
96.776,6.4286e-05,0
96.777,2.2324e-05,0
96.777,8.3925e-07,0
96.778,8.2246e-06,0
96.778,1.4603e-05,0
96.779,1.2253e-05,0
96.779,1.5274e-05,0
96.78,2.4002e-05,0
96.78,3.2059e-05,0
96.781,3.2395e-05,0
96.781,1.561e-05,0
96.782,-1.0071e-05,0
96.783,-5.3208e-05,0
96.783,-0.00012152,0
96.784,-0.00018917,0
96.784,-0.00022408,0
96.785,-0.000213,0
96.785,-0.00014351,0
96.786,-2.6856e-06,0
96.786,0.00019051,0
96.787,0.0003597,0
96.787,0.00042416,0
96.788,0.00038102,0
96.788,0.00028434,0
96.789,0.00017641,0
96.789,8.1575e-05,0
96.79,1.3428e-05,0
96.79,-3.2395e-05,0
96.791,-5.774e-05,0
96.791,-6.7643e-05,0
96.792,-7.3518e-05,0
96.792,-7.57e-05,0
96.793,-7.6707e-05,0
96.793,-8.275e-05,0
96.794,-8.4764e-05,0
96.794,-7.9896e-05,0
96.795,-7.4022e-05,0
96.796,-6.3615e-05,0
96.796,-5.5894e-05,0
96.797,-5.8244e-05,0
96.797,-6.0761e-05,0
96.798,-5.5894e-05,0
96.798,-5.2201e-05,0
96.799,-5.388e-05,0
96.799,-5.7237e-05,0
96.8,-6.2943e-05,0
96.8,-6.2776e-05,0
96.801,-5.0523e-05,0
96.801,-3.7263e-05,0
96.802,-6.5461e-06,0
96.802,6.4118e-05,0
96.803,0.00015492,0
96.803,0.00023616,0
96.804,0.00030297,0
96.804,0.00035282,0
96.805,0.00036574,0
96.805,0.00033855,0
96.806,0.00027913,0
96.806,0.00019672,0
96.807,0.0001138,0
96.807,5.5222e-05,0
96.808,2.9374e-05,0
96.808,1.796e-05,0
96.809,7.2175e-06,0
96.81,1.3092e-05,0
96.81,3.4913e-05,0
96.811,5.9419e-05,0
96.811,7.4022e-05,0
96.812,6.1433e-05,0
96.812,3.1724e-05,0
96.813,2.266e-05,0
96.813,2.7359e-05,0
96.814,1.5442e-05,0
96.814,-2.031e-05,0
96.815,-8.9128e-05,0
96.815,-0.00017037,0
96.816,-0.00024439,0
96.816,-0.00032042,0
96.817,-0.00039931,0
96.817,-0.00045772,0
96.818,-0.00047048,0
96.818,-0.00042113,0
96.819,-0.00030112,0
96.819,-0.00011766,0
96.82,9.9702e-05,0
96.82,0.00027544,0
96.821,0.00036709,0
96.821,0.00037632,0
96.822,0.00033016,0
96.823,0.00025866,0
96.823,0.00018648,0
96.824,0.00013008,0
96.824,0.00010423,0
96.825,0.0001039,0
96.825,0.00011649,0
96.826,0.0001415,0
96.826,0.00017977,0
96.827,0.00020394,0
96.827,0.00018111,0
96.828,0.00012236,0
96.828,6.63e-05,0
96.829,2.3499e-05,0
96.829,-7.8889e-06,0
96.83,-3.4745e-05,0
96.83,-5.0523e-05,0
96.831,-5.0019e-05,0
96.831,-4.5487e-05,0
96.832,-6.0594e-05,0
96.832,-9.3828e-05,0
96.833,-0.00011447,0
96.833,-0.0001185,0
96.834,-0.00012723,0
96.834,-0.00014955,0
96.835,-0.00017926,0
96.835,-0.00019353,0
96.836,-0.00017557,0
96.837,-0.0001331,0
96.837,-7.2679e-05,0
96.838,-2.8534e-06,0
96.838,6.6133e-05,0
96.839,0.00012908,0
96.839,0.00017691,0
96.84,0.00021065,0
96.84,0.00024154,0
96.841,0.00026957,0
96.841,0.00029642,0
96.842,0.00029995,0
96.842,0.00026,0
96.843,0.00018984,0
96.843,0.00010843,0
96.844,2.7863e-05,0
96.844,-4.0284e-05,0
96.845,-9.987e-05,0
96.845,-0.00014485,0
96.846,-0.00015862,0
96.846,-0.00015962,0
96.847,-0.00014972,0
96.847,-0.00012219,0
96.848,-0.00010155,0
96.848,-9.6178e-05,0
96.849,-9.3996e-05,0
96.85,-8.0903e-05,0
96.85,-4.448e-05,0
96.851,-4.3641e-06,0
96.851,1.8296e-05,0
96.852,2.1988e-05,0
96.852,1.1582e-05,0
96.853,0,0
96.853,3.0213e-06,0
96.854,2.8031e-05,0
96.854,5.0187e-05,0
96.855,6.2272e-05,0
96.855,7.1336e-05,0
96.856,6.2943e-05,0
96.856,2.6352e-05,0
96.857,-2.4674e-05,0
96.857,-6.009e-05,0
96.858,-5.6397e-05,0
96.858,-3.6423e-05,0
96.859,-3.6927e-05,0
96.859,-7.0161e-05,0
96.86,-0.00011128,0
96.86,-0.00012555,0
96.861,-9.1142e-05,0
96.861,-1.6953e-05,0
96.862,6.8818e-05,0
96.862,0.00015106,0
96.863,0.00023398,0
96.864,0.00030733,0
96.864,0.00034795,0
96.865,0.0003456,0
96.865,0.00030918,0
96.866,0.00025312,0
96.866,0.0001989,0
96.867,0.00015996,0
96.867,0.00012572,0
96.868,8.4932e-05,0
96.868,3.6927e-05,0
96.869,-1.1917e-05,0
96.869,-3.5752e-05,0
96.87,-2.2492e-05,0
96.87,-3.357e-07,0
96.871,7.8889e-06,0
96.871,2.5177e-06,0
96.872,-9.5674e-06,0
96.872,-2.4506e-05,0
96.873,-3.4409e-05,0
96.873,-3.7934e-05,0
96.874,-4.0787e-05,0
96.874,-4.0452e-05,0
96.875,-3.9948e-05,0
96.875,-4.8844e-05,0
96.876,-6.3615e-05,0
96.877,-7.8721e-05,0
96.877,-9.6178e-05,0
96.878,-0.00011011,0
96.878,-0.00010491,0
96.879,-6.6636e-05,0
96.879,-1.2757e-05,0
96.88,1.796e-05,0
96.88,3.8605e-06,0
96.881,-3.5584e-05,0
96.881,-6.8986e-05,0
96.882,-7.6371e-05,0
96.882,-6.4958e-05,0
96.883,-4.7837e-05,0
96.883,-2.9206e-05,0
96.884,-1.5274e-05,0
96.884,2.0142e-06,0
96.885,4.8341e-05,0
96.885,0.0001185,0
96.886,0.00017943,0
96.886,0.00020024,0
96.887,0.00016332,0
96.887,8.8121e-05,0
96.888,7.0497e-06,0
96.888,-5.8915e-05,0
96.889,-9.2149e-05,0
96.889,-9.2485e-05,0
96.89,-7.335e-05,0
96.891,-3.6927e-05,0
96.891,7.2175e-06,0
96.892,2.9877e-05,0
96.892,2.6017e-05,0
96.893,1.3764e-05,0
96.893,0,0
96.894,-6.5461e-06,0
96.894,-2.8534e-06,0
96.895,1.326e-05,0
96.895,3.9948e-05,0
96.896,6.0929e-05,0
96.896,6.0929e-05,0
96.897,4.8844e-05,0
96.897,3.6591e-05,0
96.898,1.3931e-05,0
96.898,-1.9303e-05,0
96.899,-4.918e-05,0
96.899,-6.3951e-05,0
96.9,-6.9993e-05,0
96.9,-7.1839e-05,0
96.901,-7.335e-05,0
96.901,-7.4693e-05,0
96.902,-6.1601e-05,0
96.902,-3.1052e-05,0
96.903,1.6785e-06,0
96.904,2.6688e-05,0
96.904,3.6088e-05,0
96.905,3.3402e-05,0
96.905,3.6759e-05,0
96.906,5.2705e-05,0
96.906,6.2943e-05,0
96.907,6.4286e-05,0
96.907,6.1936e-05,0
96.908,5.153e-05,0
96.908,4.3473e-05,0
96.909,4.0116e-05,0
96.909,2.6017e-05,0
96.91,1.8463e-06,0
96.91,-3.357e-06,0
96.911,2.4674e-05,0
96.911,8.3757e-05,0
96.912,0.00016197,0
96.912,0.00022408,0
96.913,0.00023532,0
96.913,0.00018648,0
96.914,0.00011951,0
96.914,7.4022e-05,0
96.915,5.4215e-05,0
96.915,3.6088e-05,0
96.916,5.7069e-06,0
96.916,-1.8967e-05,0
96.917,-1.6281e-05,0
96.918,7.7211e-06,0
96.918,1.326e-05,0
96.919,-2.0981e-05,0
96.919,-6.3951e-05,0
96.92,-8.7114e-05,0
96.92,-9.5171e-05,0
96.921,-0.00010121,0
96.921,-0.00011229,0
96.922,-0.00011733,0
96.922,-0.00010625,0
96.923,-9.4163e-05,0
96.923,-9.5171e-05,0
96.924,-9.6178e-05,0
96.924,-6.2608e-05,0
96.925,3.357e-06,0
96.925,5.2705e-05,0
96.926,5.3208e-05,0
96.926,1.4099e-05,0
96.927,-3.8102e-05,0
96.927,-8.0903e-05,0
96.928,-0.00011279,0
96.928,-0.00014821,0
96.929,-0.00017406,0
96.929,-0.00014469,0
96.93,-3.3402e-05,0
96.931,0.00014334,0
96.931,0.00033251,0
96.932,0.00047652,0
96.932,0.00052168,0
96.933,0.00045672,0
96.933,0.00032512,0
96.934,0.00019017,0
96.934,9.2485e-05,0
96.935,3.1052e-05,0
96.935,-1.2924e-05,0
96.936,-4.1459e-05,0
96.936,-3.978e-05,0
96.937,-1.5274e-05,0
96.937,1.4267e-05,0
96.938,3.8605e-05,0
96.938,5.5222e-05,0
96.939,7.2343e-05,0
96.939,9.6513e-05,0
96.94,0.00012572,0
96.94,0.00015258,0
96.941,0.00017037,0
96.941,0.00016902,0
96.942,0.0001509,0
96.942,0.00013008,0
96.943,0.00012052,0
96.944,0.00011733,0
96.944,9.3492e-05,0
96.945,3.3402e-05,0
96.945,-3.0381e-05,0
96.946,-6.865e-05,0
96.946,-8.6778e-05,0
96.947,-0.00010188,0
96.947,-0.00011179,0
96.948,-0.00011481,0
96.948,-0.00013327,0
96.949,-0.00017121,0
96.949,-0.00020327,0
96.95,-0.00019051,0
96.95,-0.00012253,0
96.951,-2.8367e-05,0
96.951,5.5222e-05,0
96.952,0.00011934,0
96.952,0.00017171,0
96.953,0.00020981,0
96.953,0.00022911,0
96.954,0.00022828,0
96.954,0.0001942,0
96.955,0.00013327,0
96.955,8.1239e-05,0
96.956,5.9419e-05,0
96.956,6.7475e-05,0
96.957,8.51e-05,0
96.958,9.5842e-05,0
96.958,8.426e-05,0
96.959,5.0523e-05,0
96.959,4.1962e-06,0
96.96,-4.2466e-05,0
96.96,-9.0303e-05,0
96.961,-0.00015291,0
96.961,-0.00022542,0
96.962,-0.00029139,0
96.962,-0.00035131,0
96.963,-0.00041056,0
96.963,-0.00045588,0
96.964,-0.00045655,0
96.964,-0.00039008,0
96.965,-0.00027074,0
96.965,-0.00011884,0
96.966,3.122e-05,0
96.966,0.00012656,0
96.967,0.00013176,0
96.967,6.6804e-05,0
96.968,-1.3428e-05,0
96.968,-5.388e-05,0
96.969,-3.978e-05,0
96.969,5.2033e-06,0
96.97,4.8173e-05,0
96.971,7.5364e-05,0
96.971,9.6513e-05,0
96.972,0.00012673,0
96.972,0.00015895,0
96.973,0.00017893,0
96.973,0.00018447,0
96.974,0.00017977,0
96.974,0.00015526,0
96.975,0.00011498,0
96.975,6.865e-05,0
96.976,2.5345e-05,0
96.976,-1.3931e-05,0
96.977,-4.6662e-05,0
96.977,-5.3376e-05,0
96.978,-3.5584e-05,0
96.978,-1.5106e-05,0
96.979,1.1749e-05,0
96.979,5.2201e-05,0
96.98,7.8386e-05,0
96.98,7.7546e-05,0
96.981,7.7714e-05,0
96.981,9.836e-05,0
96.982,0.00010289,0
96.982,7.9225e-05,0
96.983,7.5029e-05,0
96.983,0.0001227,0
96.984,0.00019773,0
96.985,0.00024422,0
96.985,0.00025429,0
96.986,0.00024338,0
96.986,0.00020595,0
96.987,0.0001509,0
96.987,9.8527e-05,0
96.988,6.8986e-05,0
96.988,6.0929e-05,0
96.989,5.1362e-05,0
96.989,2.9709e-05,0
96.99,1.7624e-05,0
96.99,3.4073e-05,0
96.991,6.8315e-05,0
96.991,0.00011044,0
96.992,0.00014485,0
96.992,0.0001556,0
96.993,0.00013931,0
96.993,0.00010407,0
96.994,6.2608e-05,0
96.994,1.0407e-05,0
96.995,-5.2033e-05,0
96.995,-0.00011699,0
96.996,-0.00017826,0
96.996,-0.00022777,0
96.997,-0.00026419,0
96.998,-0.00028484,0
96.998,-0.00027192,0
96.999,-0.00022274,0
96.999,-0.00015828,0
97,-0.00010893,0
97,-8.7449e-05,0
97.001,-7.6036e-05,0
97.001,-4.5823e-05,0
97.002,1.9974e-05,0
97.002,9.3492e-05,0
97.003,0.00014519,0
97.003,0.00016147,0
97.004,0.00013545,0
97.004,8.04e-05,0
97.005,3.2059e-05,0
97.005,9.2317e-06,0
97.006,1.0239e-05,0
97.006,2.6688e-05,0
97.007,4.918e-05,0
97.007,6.1265e-05,0
97.008,5.8412e-05,0
97.008,5.9586e-05,0
97.009,6.6636e-05,0
97.009,6.3279e-05,0
97.01,4.5151e-05,0
97.01,2.2324e-05,0
97.011,8.3925e-06,0
97.012,-2.3499e-06,0
97.012,-2.9877e-05,0
97.013,-8.1239e-05,0
97.013,-0.00013126,0
97.014,-0.00014334,0
97.014,-0.00011783,0
97.015,-7.57e-05,0
97.015,-2.031e-05,0
97.016,4.7166e-05,0
97.016,0.0001133,0
97.017,0.00016298,0
97.017,0.00019118,0
97.018,0.00020931,0
97.018,0.00021535,0
97.019,0.00020394,0
97.019,0.00018782,0
97.02,0.00017339,0
97.02,0.0001472,0
97.021,0.00011128,0
97.021,7.7043e-05,0
97.022,4.6662e-05,0
97.022,1.8631e-05,0
97.023,-7.8889e-06,0
97.023,-3.2059e-05,0
97.024,-5.3544e-05,0
97.025,-7.4022e-05,0
97.025,-9.3492e-05,0
97.026,-0.0001039,0
97.026,-0.00010222,0
97.027,-9.836e-05,0
97.027,-9.1478e-05,0
97.028,-8.51e-05,0
97.028,-7.5364e-05,0
97.029,-6.0258e-05,0
97.029,-5.8244e-05,0
97.03,-7.2007e-05,0
97.03,-8.1575e-05,0
97.031,-8.3421e-05,0
97.031,-7.8721e-05,0
97.032,-6.7979e-05,0
97.032,-5.1865e-05,0
97.033,-2.9709e-05,0
97.033,-3.357e-07,0
97.034,3.978e-05,0
97.034,8.0064e-05,0
97.035,0.00010491,0
97.035,0.00011347,0
97.036,0.00012236,0
97.036,0.0001321,0
97.037,0.00013881,0
97.037,0.00013881,0
97.038,0.0001227,0
97.039,9.6178e-05,0
97.039,6.0258e-05,0
97.04,8.2246e-06,0
97.04,-4.6159e-05,0
97.041,-7.7546e-05,0
97.041,-8.2414e-05,0
97.042,-9.2485e-05,0
97.042,-0.0001185,0
97.043,-0.00011514,0
97.043,-4.9348e-05,0
97.044,5.3544e-05,0
97.044,0.00013327,0
97.045,0.0001556,0
97.045,0.00013243,0
97.046,8.5771e-05,0
97.046,2.2995e-05,0
97.047,-4.4648e-05,0
97.047,-9.1814e-05,0
97.048,-0.00012773,0
97.048,-0.00015409,0
97.049,-0.00015023,0
97.049,-0.000118,0
97.05,-7.7714e-05,0
97.05,-4.8844e-05,0
97.051,-3.0381e-05,0
97.052,1.8463e-06,0
97.052,5.8244e-05,0
97.053,0.00012303,0
97.053,0.00017305,0
97.054,0.00019252,0
97.054,0.00018984,0
97.055,0.00018782,0
97.055,0.00019622,0
97.056,0.00019806,0
97.056,0.0001744,0
97.057,0.00013931,0
97.057,0.00011917,0
97.058,0.00011263,0
97.058,0.00010826,0
97.059,9.9199e-05,0
97.059,8.3757e-05,0
97.06,6.7811e-05,0
97.06,5.2873e-05,0
97.061,4.3305e-05,0
97.061,4.1291e-05,0
97.062,3.8605e-05,0
97.062,2.9038e-05,0
97.063,1.1749e-05,0
97.063,-7.2175e-06,0
97.064,-1.9638e-05,0
97.064,-2.887e-05,0
97.065,-4.0452e-05,0
97.066,-5.1865e-05,0
97.066,-6.3951e-05,0
97.067,-7.5364e-05,0
97.067,-6.7643e-05,0
97.068,-2.4338e-05,0
97.068,3.6423e-05,0
97.069,7.9057e-05,0
97.069,8.1407e-05,0
97.07,5.2033e-05,0
97.07,2.4842e-05,0
97.071,2.8031e-05,0
97.071,5.3208e-05,0
97.072,8.1071e-05,0
97.072,0.0001034,0
97.073,0.00011481,0
97.073,0.00011783,0
97.074,0.0001133,0
97.074,0.00010306,0
97.075,9.1981e-05,0
97.075,8.1575e-05,0
97.076,7.1672e-05,0
97.076,6.6972e-05,0
97.077,6.3615e-05,0
97.077,4.6662e-05,0
97.078,1.8631e-05,0
97.079,-1.0742e-05,0
97.079,-3.3402e-05,0
97.08,-4.5991e-05,0
97.08,-5.9251e-05,0
97.081,-7.9057e-05,0
97.081,-0.00010272,0
97.082,-0.00012975,0
97.082,-0.00016164,0
97.083,-0.00019437,0
97.083,-0.00021871,0
97.084,-0.00023113,0
97.084,-0.00022374,0
97.085,-0.00019873,0
97.085,-0.00016046,0
97.086,-0.00011196,0
97.086,-5.5055e-05,0
97.087,2.5177e-06,0
97.087,3.5248e-05,0
97.088,3.6591e-05,0
97.088,2.5177e-05,0
97.089,9.7353e-06,0
97.089,-5.8747e-06,0
97.09,-6.2104e-06,0
97.09,9.7353e-06,0
97.091,2.1149e-05,0
97.091,1.6617e-05,0
97.092,-1.0071e-06,0
97.093,-1.7121e-05,0
97.093,-1.8967e-05,0
97.094,-8.2246e-06,0
97.094,4.1962e-06,0
97.095,2.2324e-05,0
97.095,4.6998e-05,0
97.096,6.6972e-05,0
97.096,7.4693e-05,0
97.097,6.9657e-05,0
97.097,6.2943e-05,0
97.098,5.8915e-05,0
97.098,5.1194e-05,0
97.099,3.2898e-05,0
97.099,1.4771e-05,0
97.1,5.0355e-07,0
97.1,-4.0284e-06,0
97.101,-4.3641e-06,0
97.101,-2.5345e-05,0
97.102,-6.1936e-05,0
97.102,-7.8386e-05,0
97.103,-5.6062e-05,0
97.103,-6.8818e-06,0
97.104,4.7837e-05,0
97.104,9.3828e-05,0
97.105,0.0001232,0
97.106,0.00013176,0
97.106,0.00011531,0
97.107,8.1071e-05,0
97.107,4.9012e-05,0
97.108,4.0787e-05,0
97.108,6.3615e-05,0
97.109,8.3757e-05,0
97.109,7.1504e-05,0
97.11,3.6759e-05,0
97.11,8.7282e-06,0
97.111,6.8818e-06,0
97.111,3.9277e-05,0
97.112,9.0471e-05,0
97.112,0.00014804,0
97.113,0.00019286,0
97.113,0.00019756,0
97.114,0.00017406,0
97.114,0.0001702,0
97.115,0.000189,0
97.115,0.00019487,0
97.116,0.00017003,0
97.116,0.00013361,0
97.117,0.0001133,0
97.117,0.00011263,0
97.118,0.00011565,0
97.118,0.00010658,0
97.119,8.6946e-05,0
97.12,6.5126e-05,0
97.12,5.069e-05,0
97.121,3.5416e-05,0
97.121,9.9031e-06,0
97.122,-1.796e-05,0
97.122,-3.6423e-05,0
97.123,-4.3137e-05,0
97.123,-4.062e-05,0
97.124,-4.0452e-05,0
97.124,-4.3809e-05,0
97.125,-4.6326e-05,0
97.125,-4.448e-05,0
97.126,-4.0116e-05,0
97.126,-4.1459e-05,0
97.127,-4.2802e-05,0
97.127,-2.6184e-05,0
97.128,1.1414e-05,0
97.128,5.5894e-05,0
97.129,8.2078e-05,0
97.129,8.3757e-05,0
97.13,7.3854e-05,0
97.13,6.5965e-05,0
97.131,5.9922e-05,0
97.131,4.7166e-05,0
97.132,2.3835e-05,0
97.132,-5.8747e-06,0
97.133,-3.5584e-05,0
97.134,-5.8244e-05,0
97.134,-7.5364e-05,0
97.135,-9.2485e-05,0
97.135,-0.00011196,0
97.136,-0.00013982,0
97.136,-0.00016936,0
97.137,-0.00018312,0
97.137,-0.00018631,0
97.138,-0.00018212,0
97.138,-0.00015862,0
97.139,-0.00010893,0
97.139,-4.0116e-05,0
97.14,2.9206e-05,0
97.14,7.1336e-05,0
97.141,9.1478e-05,0
97.141,0.00010726,0
97.142,0.00011548,0
97.142,0.00010809,0
97.143,9.0806e-05,0
97.143,7.7211e-05,0
97.144,7.2007e-05,0
97.144,6.7979e-05,0
97.145,5.8915e-05,0
97.145,5.1362e-05,0
97.146,5.153e-05,0
97.147,4.5823e-05,0
97.147,2.8702e-05,0
97.148,7.2175e-06,0
97.148,-7.8889e-06,0
97.149,-1.0575e-05,0
97.149,-1.7792e-05,0
97.15,-3.7766e-05,0
97.15,-5.5726e-05,0
97.151,-5.6733e-05,0
97.151,-4.2634e-05,0
97.152,-2.8367e-05,0
97.152,-2.1988e-05,0
97.153,-1.5274e-05,0
97.153,-5.539e-06,0
97.154,-1.8463e-06,0
97.154,-4.6998e-06,0
97.155,-8.3925e-06,0
97.155,-1.2421e-05,0
97.156,-2.0478e-05,0
97.156,-3.4745e-05,0
97.157,-4.8173e-05,0
97.157,-5.2537e-05,0
97.158,-4.8173e-05,0
97.158,-3.827e-05,0
97.159,-3.0213e-05,0
97.159,-3.4745e-05,0
97.16,-4.918e-05,0
97.161,-5.2369e-05,0
97.161,-2.7863e-05,0
97.162,1.3596e-05,0
97.162,6.1936e-05,0
97.163,0.00010507,0
97.163,0.0001321,0
97.164,0.0001462,0
97.164,0.00014989,0
97.165,0.00014989,0
97.165,0.00014737,0
97.166,0.00014015,0
97.166,0.0001274,0
97.167,0.00010726,0
97.167,8.0568e-05,0
97.168,5.7908e-05,0
97.168,4.2466e-05,0
97.169,2.6184e-05,0
97.169,9.0639e-06,0
97.17,-2.6856e-06,0
97.17,-7.0497e-06,0
97.171,-1.2253e-05,0
97.171,-2.0645e-05,0
97.172,-2.7695e-05,0
97.172,-1.8631e-05,0
97.173,1.8631e-05,0
97.174,6.479e-05,0
97.174,8.9799e-05,0
97.175,8.7953e-05,0
97.175,6.9657e-05,0
97.176,4.8173e-05,0
97.176,2.9374e-05,0
97.177,1.8631e-05,0
97.177,1.5442e-05,0
97.178,1.1749e-05,0
97.178,5.7069e-06,0
97.179,3.6927e-06,0
97.179,-1.6785e-06,0
97.18,-1.2253e-05,0
97.18,-6.3783e-06,0
97.181,1.8631e-05,0
97.181,6.3951e-05,0
97.182,0.00011397,0
97.182,0.00014083,0
97.183,0.00013344,0
97.183,0.00010491,0
97.184,8.3085e-05,0
97.184,7.1e-05,0
97.185,5.8076e-05,0
97.185,4.4816e-05,0
97.186,4.1459e-05,0
97.186,4.9851e-05,0
97.187,6.1265e-05,0
97.188,6.6636e-05,0
97.188,6.0929e-05,0
97.189,5.0187e-05,0
97.189,5.4887e-05,0
97.19,6.949e-05,0
97.19,7.2679e-05,0
97.191,6.1601e-05,0
97.191,4.0787e-05,0
97.192,2.1988e-05,0
97.192,2.031e-05,0
97.193,2.3667e-05,0
97.193,1.3092e-05,0
97.194,5.8747e-06,0
97.194,1.6617e-05,0
97.195,2.3163e-05,0
97.195,3.6927e-06,0
97.196,-3.4241e-05,0
97.196,-7.1336e-05,0
97.197,-9.5506e-05,0
97.197,-0.0001185,0
97.198,-0.00014603,0
97.198,-0.00014922,0
97.199,-0.00010692,0
97.199,-3.2898e-05,0
97.2,5.3544e-05,0
97.201,0.00014015,0
97.201,0.00020645,0
97.202,0.00023952,0
97.202,0.00023885,0
97.203,0.00020494,0
97.203,0.00014284,0
97.204,7.3518e-05,0
97.204,1.2085e-05,0
97.205,-3.592e-05,0
97.205,-6.5126e-05,0
97.206,-7.9057e-05,0
97.206,-9.2821e-05,0
97.207,-0.00010256,0
97.207,-9.752e-05,0
97.208,-8.7953e-05,0
97.208,-8.2582e-05,0
97.209,-8.9128e-05,0
97.209,-0.0001185,0
97.21,-0.0001613,0
97.21,-0.0001984,0
97.211,-0.00022911,0
97.211,-0.00027964,0
97.212,-0.00034376,0
97.212,-0.00037229,0
97.213,-0.00033251,0
97.213,-0.00024053,0
97.214,-0.00013579,0
97.215,-2.3331e-05,0
97.215,9.1981e-05,0
97.216,0.00017842,0
97.216,0.00021099,0
97.217,0.00019622,0
97.217,0.00017893,0
97.218,0.00019571,0
97.218,0.00024405,0
97.219,0.00029424,0
97.219,0.00031405,0
97.22,0.00029105,0
97.22,0.00023851,0
97.221,0.00018497,0
97.221,0.00014284,0
97.222,0.00011145,0
97.222,8.7449e-05,0
97.223,6.865e-05,0
97.223,4.8173e-05,0
97.224,2.3163e-05,0
97.224,1.6785e-07,0
97.225,-2.0478e-05,0
97.225,-4.062e-05,0
97.226,-5.5222e-05,0
97.226,-6.9657e-05,0
97.227,-8.5771e-05,0
97.228,-9.2988e-05,0
97.228,-8.8792e-05,0
97.229,-7.3854e-05,0
97.229,-5.2873e-05,0
97.23,-2.4338e-05,0
97.23,1.3596e-05,0
97.231,5.3208e-05,0
97.231,8.0232e-05,0
97.232,8.5771e-05,0
97.232,7.8721e-05,0
97.233,7.7714e-05,0
97.233,8.4764e-05,0
97.234,8.9128e-05,0
97.234,8.7617e-05,0
97.235,8.8121e-05,0
97.235,9.4835e-05,0
97.236,0.0001086,0
97.236,0.00011934,0
97.237,0.00011263,0
97.237,9.2485e-05,0
97.238,6.8986e-05,0
97.238,4.7501e-05,0
97.239,3.0884e-05,0
97.239,1.7288e-05,0
97.24,2.182e-06,0
97.24,-1.3596e-05,0
97.241,-2.4002e-05,0
97.242,-2.8534e-05,0
97.242,-3.4241e-05,0
97.243,-3.6591e-05,0
97.243,-2.2492e-05,0
97.244,3.5248e-06,0
97.244,3.2563e-05,0
97.245,5.9586e-05,0
97.245,8.1071e-05,0
97.246,9.5842e-05,0
97.246,0.00010054,0
97.247,8.6778e-05,0
97.247,5.3376e-05,0
97.248,1.6953e-05,0
97.248,-1.5106e-06,0
97.249,-8.896e-06,0
97.249,-1.6449e-05,0
97.25,-2.0645e-05,0
97.25,-1.4603e-05,0
97.251,-1.4267e-05,0
97.251,-3.508e-05,0
97.252,-7.1336e-05,0
97.252,-0.00010524,0
97.253,-0.00012169,0
97.253,-0.00011347,0
97.254,-8.0735e-05,0
97.255,-2.031e-05,0
97.255,5.4887e-05,0
97.256,0.00010356,0
97.256,9.4499e-05,0
97.257,5.0858e-05,0
97.257,1.3931e-05,0
97.258,1.1078e-05,0
97.258,3.978e-05,0
97.259,8.4764e-05,0
97.259,0.00014485,0
97.26,0.00021199,0
97.26,0.00024691,0
97.261,0.00022878,0
97.261,0.00017826,0
97.262,0.00012857,0
97.262,0.00010256,0
97.263,9.0471e-05,0
97.263,6.6972e-05,0
97.264,3.0549e-05,0
97.264,-1.2589e-05,0
97.265,-5.6062e-05,0
97.265,-9.9199e-05,0
97.266,-0.00014351,0
97.266,-0.00018178,0
97.267,-0.00020327,0
97.267,-0.00020377,0
97.268,-0.00018514,0
97.269,-0.00015543,0
97.269,-0.00012773,0
97.27,-0.00010877,0
97.27,-8.8121e-05,0
97.271,-5.5558e-05,0
97.271,-1.4267e-05,0
97.272,1.9974e-05,0
97.272,2.7695e-05,0
97.273,1.0239e-05,0
97.273,-1.8296e-05,0
97.274,-3.8437e-05,0
97.274,-3.2395e-05,0
97.275,5.2033e-06,0
97.275,4.683e-05,0
97.276,6.8315e-05,0
97.276,7.4861e-05,0
97.277,7.5364e-05,0
97.277,7.805e-05,0
97.278,8.3757e-05,0
97.278,8.7449e-05,0
97.279,8.6946e-05,0
97.279,8.6107e-05,0
97.28,8.6275e-05,0
97.28,8.3085e-05,0
97.281,7.2007e-05,0
97.282,5.623e-05,0
97.282,4.5487e-05,0
97.283,3.978e-05,0
97.283,3.1724e-05,0
97.284,2.8031e-05,0
97.284,2.7024e-05,0
97.285,1.796e-05,0
97.285,7.8889e-06,0
97.286,4.1962e-06,0
97.286,2.5177e-06,0
97.287,-1.1749e-06,0
97.287,-1.5274e-05,0
97.288,-3.1388e-05,0
97.288,-3.5752e-05,0
97.289,-3.9612e-05,0
97.289,-5.4887e-05,0
97.29,-7.4189e-05,0
97.29,-8.1743e-05,0
97.291,-7.6539e-05,0
97.291,-5.8579e-05,0
97.292,-3.2395e-05,0
97.292,-1.1246e-05,0
97.293,3.0213e-06,0
97.293,3.1891e-06,0
97.294,-4.1962e-06,0
97.294,1.5106e-06,0
97.295,2.4842e-05,0
97.296,4.683e-05,0
97.296,5.6733e-05,0
97.297,5.8244e-05,0
97.297,5.6901e-05,0
97.298,5.0187e-05,0
97.298,4.4984e-05,0
97.299,5.0523e-05,0
97.299,7.1e-05,0
97.3,9.8024e-05,0
97.3,0.00011901,0
97.301,0.00012471,0
97.301,0.000118,0
97.302,0.00011229,0
97.302,0.00010692,0
97.303,9.5674e-05,0
97.303,7.6371e-05,0
97.304,5.5558e-05,0
97.304,3.8605e-05,0
97.305,2.7863e-05,0
97.305,2.8702e-05,0
97.306,3.8605e-05,0
97.306,4.4312e-05,0
97.307,3.2731e-05,0
97.307,9.9031e-06,0
97.308,-6.3783e-06,0
97.309,-4.5319e-06,0
97.309,1.091e-05,0
97.31,2.5345e-05,0
97.31,3.5752e-05,0
97.311,5.2033e-05,0
97.311,6.6972e-05,0
97.312,6.0258e-05,0
97.312,3.0716e-05,0
97.313,2.8534e-06,0
97.313,-5.7069e-06,0
97.314,0,0
97.314,4.6998e-06,0
97.315,4.8676e-06,0
97.315,5.8747e-06,0
97.316,1.3092e-05,0
97.316,2.9374e-05,0
97.317,5.5558e-05,0
97.317,9.4331e-05,0
97.318,0.00013948,0
97.318,0.00017154,0
97.319,0.00017171,0
97.319,0.00014418,0
97.32,0.00010457,0
97.32,6.2272e-05,0
97.321,2.6184e-05,0
97.322,-7.3854e-06,0
97.322,-3.2395e-05,0
97.323,-5.3208e-05,0
97.323,-8.0232e-05,0
97.324,-0.00010121,0
97.324,-9.6849e-05,0
97.325,-7.5364e-05,0
97.325,-4.918e-05,0
97.326,-3.1724e-05,0
97.326,-3.1891e-05,0
97.327,-3.6423e-05,0
97.327,-2.1653e-05,0
97.328,1.1749e-05,0
97.328,4.4816e-05,0
97.329,6.7979e-05,0
97.329,8.0568e-05,0
97.33,8.1743e-05,0
97.33,6.009e-05,0
97.331,1.4603e-05,0
97.331,-4.5823e-05,0
97.332,-0.00011229,0
97.332,-0.00016634,0
97.333,-0.00019168,0
97.333,-0.00018732,0
97.334,-0.00016332,0
97.334,-0.00012522,0
97.335,-9.131e-05,0
97.336,-7.5364e-05,0
97.336,-6.9993e-05,0
97.337,-6.5293e-05,0
97.337,-5.304e-05,0
97.338,-3.4073e-05,0
97.338,-2.6352e-05,0
97.339,-3.4745e-05,0
97.339,-5.2201e-05,0
97.34,-7.9561e-05,0
97.34,-0.00011649,0
97.341,-0.00014469,0
97.341,-0.00013277,0
97.342,-5.8579e-05,0
97.342,6.3279e-05,0
97.343,0.00018917,0
97.343,0.00027779,0
97.344,0.00031337,0
97.344,0.00029995,0
97.345,0.00026436,0
97.345,0.00022878,0
97.346,0.00019689,0
97.346,0.00017087,0
97.347,0.00015241,0
97.347,0.00013814,0
97.348,0.00012605,0
97.349,0.00011196,0
97.349,9.2821e-05,0
97.35,6.9657e-05,0
97.35,5.0019e-05,0
97.351,4.1962e-05,0
97.351,4.0787e-05,0
97.352,3.3738e-05,0
97.352,3.1388e-05,0
97.353,4.6494e-05,0
97.353,6.63e-05,0
97.354,7.0329e-05,0
97.354,6.1936e-05,0
97.355,4.918e-05,0
97.355,4.2466e-05,0
97.356,4.918e-05,0
97.356,6.1601e-05,0
97.357,7.3014e-05,0
97.357,9.0471e-05,0
97.358,0.00011968,0
97.358,0.00014318,0
97.359,0.00013848,0
97.359,0.00011632,0
97.36,0.00010558,0
97.36,0.00010591,0
97.361,9.6513e-05,0
97.361,7.2679e-05,0
97.362,4.1459e-05,0
97.363,-1.1749e-06,0
97.363,-5.1698e-05,0
97.364,-0.00010356,0
97.364,-0.00015862,0
97.365,-0.0002182,0
97.365,-0.00027645,0
97.366,-0.00032428,0
97.366,-0.00034359,0
97.367,-0.00033184,0
97.367,-0.00030196,0
97.368,-0.00024993,0
97.368,-0.0001754,0
97.369,-9.7353e-05,0
97.369,-1.6953e-05,0
97.37,6.9322e-05,0
97.37,0.00014334,0
97.371,0.00019118,0
97.371,0.00021032,0
97.372,0.00020343,0
97.372,0.00017943,0
97.373,0.00014939,0
97.373,0.00012538,0
97.374,0.00011095,0
97.374,0.00010658,0
97.375,0.00010574,0
97.376,9.7856e-05,0
97.376,8.1407e-05,0
97.377,7.2343e-05,0
97.377,7.4357e-05,0
97.378,7.7714e-05,0
97.378,8.191e-05,0
97.379,8.3085e-05,0
97.379,7.2679e-05,0
97.38,4.8173e-05,0
97.38,1.9135e-05,0
97.381,-4.8676e-06,0
97.381,-3.2059e-05,0
97.382,-6.9322e-05,0
97.382,-0.00010591,0
97.383,-0.00013176,0
97.383,-0.00014821,0
97.384,-0.00015879,0
97.384,-0.00015576,0
97.385,-0.00012052,0
97.385,-5.9251e-05,0
97.386,1.0071e-06,0
97.386,3.2731e-05,0
97.387,3.1052e-05,0
97.387,9.7353e-06,0
97.388,-1.2085e-05,0
97.388,-2.1653e-05,0
97.389,-1.4603e-05,0
97.39,1.5106e-06,0
97.39,1.9974e-05,0
97.391,3.8437e-05,0
97.391,4.9348e-05,0
97.392,5.153e-05,0
97.392,5.0019e-05,0
97.393,4.9516e-05,0
97.393,5.0858e-05,0
97.394,5.0187e-05,0
97.394,5.8244e-05,0
97.395,7.4693e-05,0
97.395,8.5771e-05,0
97.396,7.5364e-05,0
97.396,4.062e-05,0
97.397,-1.1078e-05,0
97.397,-6.3447e-05,0
97.398,-0.00011145,0
97.398,-0.0001509,0
97.399,-0.00018279,0
97.399,-0.00019705,0
97.4,-0.00017305,0
97.4,-0.00010356,0
97.401,9.5674e-06,0
97.401,0.00014687,0
97.402,0.00026134,0
97.403,0.00031875,0
97.403,0.00031405,0
97.404,0.00026436,0
97.404,0.00019135,0
97.405,0.00011699,0
97.405,6.4286e-05,0
97.406,4.1794e-05,0
97.406,4.6159e-05,0
97.407,6.8986e-05,0
97.407,8.7785e-05,0
97.408,9.3492e-05,0
97.408,9.1981e-05,0
97.409,8.4932e-05,0
97.409,7.8553e-05,0
97.41,7.4525e-05,0
97.41,6.6972e-05,0
97.411,6.2943e-05,0
97.411,6.5629e-05,0
97.412,6.7643e-05,0
97.412,6.1097e-05,0
97.413,4.6159e-05,0
97.413,2.4674e-05,0
97.414,6.5461e-06,0
97.414,-4.6998e-06,0
97.415,-2.8702e-05,0
97.415,-6.4286e-05,0
97.416,-9.6513e-05,0
97.417,-0.00011414,0
97.417,-0.00011733,0
97.418,-0.00011296,0
97.418,-0.00011095,0
97.419,-0.00010826,0
97.419,-0.00010222,0
97.42,-9.5338e-05,0
97.42,-7.805e-05,0
97.421,-3.9277e-05,0
97.421,2.3835e-05,0
97.422,9.9535e-05,0
97.422,0.00015073,0
97.423,0.00016432,0
97.423,0.00015073,0
97.424,0.00012303,0
97.424,9.1981e-05,0
97.425,6.2943e-05,0
97.425,4.1123e-05,0
97.426,3.2059e-05,0
97.426,3.9445e-05,0
97.427,5.4383e-05,0
97.427,5.8579e-05,0
97.428,4.7669e-05,0
97.428,3.2731e-05,0
97.429,2.4674e-05,0
97.43,2.3331e-05,0
97.43,1.5274e-05,0
97.431,-2.5177e-06,0
97.431,-2.266e-05,0
97.432,-3.6423e-05,0
97.432,-3.7934e-05,0
97.433,-4.2466e-05,0
97.433,-5.7908e-05,0
97.434,-6.6804e-05,0
97.434,-5.7237e-05,0
97.435,-4.8005e-05,0
97.435,-4.2969e-05,0
97.436,-3.4409e-05,0
97.436,-2.2995e-05,0
97.437,6.5461e-06,0
97.437,6.009e-05,0
97.438,0.00011632,0
97.438,0.00015425,0
97.439,0.00017154,0
97.439,0.00017658,0
97.44,0.00017574,0
97.44,0.0001603,0
97.441,0.00012874,0
97.441,9.7856e-05,0
97.442,7.5029e-05,0
97.442,6.2272e-05,0
97.443,4.6326e-05,0
97.444,2.652e-05,0
97.444,1.2253e-05,0
97.445,8.3925e-07,0
97.445,-1.2421e-05,0
97.446,-3.1724e-05,0
97.446,-5.8076e-05,0
97.447,-8.0064e-05,0
97.447,-9.0135e-05,0
97.448,-9.5842e-05,0
97.448,-0.00010407,0
97.449,-0.00011397,0
97.449,-0.00012723,0
97.45,-0.00013294,0
97.45,-0.00011162,0
97.451,-6.009e-05,0
97.451,7.2175e-06,0
97.452,6.4286e-05,0
97.452,8.3085e-05,0
97.453,6.0929e-05,0
97.453,2.0813e-05,0
97.454,-1.4939e-05,0
97.454,-4.3641e-05,0
97.455,-6.7643e-05,0
97.455,-8.2582e-05,0
97.456,-7.7043e-05,0
97.457,-4.9851e-05,0
97.457,-2.1149e-05,0
97.458,-1.0071e-05,0
97.458,-1.4771e-05,0
97.459,-2.4338e-05,0
97.459,-2.182e-05,0
97.46,-1.561e-05,0
97.46,-1.7456e-05,0
97.461,-1.7121e-05,0
97.461,-9.5674e-06,0
97.462,1.8463e-06,0
97.462,1.561e-05,0
97.463,1.8463e-05,0
97.463,9.2317e-06,0
97.464,3.8605e-06,0
97.464,6.3783e-06,0
97.465,9.9031e-06,0
97.465,9.2317e-06,0
97.466,1.2924e-05,0
97.466,2.5681e-05,0
97.467,3.9109e-05,0
97.467,5.3208e-05,0
97.468,6.4286e-05,0
97.468,7.0832e-05,0
97.469,7.4861e-05,0
97.469,7.6036e-05,0
97.47,7.1839e-05,0
97.471,6.2104e-05,0
97.471,4.7669e-05,0
97.472,3.9948e-05,0
97.472,4.5823e-05,0
97.473,6.2104e-05,0
97.473,7.9057e-05,0
97.474,9.7353e-05,0
97.474,0.00011716,0
97.475,0.00012421,0
97.475,0.00011531,0
97.476,0.00011095,0
97.476,0.00011733,0
97.477,0.00012337,0
97.477,0.00012001,0
97.478,0.00010021,0
97.478,5.8747e-05,0
97.479,1.4771e-05,0
97.479,-6.5461e-06,0
97.48,-3.1891e-06,0
97.48,1.091e-05,0
97.481,2.7695e-05,0
97.481,1.9806e-05,0
97.482,-2.0142e-05,0
97.482,-4.8173e-05,0
97.483,-3.8773e-05,0
97.484,-3.357e-06,0
97.484,3.5416e-05,0
97.485,7.1672e-05,0
97.485,0.00010558,0
97.486,0.00011934,0
97.486,0.00011263,0
97.487,9.836e-05,0
97.487,8.9464e-05,0
97.488,9.7017e-05,0
97.488,0.00010994,0
97.489,0.00011447,0
97.489,9.9199e-05,0
97.49,6.3951e-05,0
97.49,2.1317e-05,0
97.491,-1.5274e-05,0
97.491,-4.3137e-05,0
97.492,-6.0929e-05,0
97.492,-6.949e-05,0
97.493,-7.1672e-05,0
97.493,-6.865e-05,0
97.494,-6.1433e-05,0
97.494,-5.1865e-05,0
97.495,-3.9612e-05,0
97.495,-2.501e-05,0
97.496,-8.5603e-06,0
97.496,5.539e-06,0
97.497,1.4939e-05,0
97.498,2.6688e-05,0
97.498,4.5991e-05,0
97.499,6.1433e-05,0
97.499,6.4118e-05,0
97.5,5.8244e-05,0
97.5,4.2802e-05,0
97.501,2.7359e-05,0
97.501,2.2324e-05,0
97.502,1.2085e-05,0
97.502,-1.4099e-05,0
97.503,-4.1291e-05,0
97.503,-5.6565e-05,0
97.504,-5.3208e-05,0
97.504,-3.2898e-05,0
97.505,-2.182e-06,0
97.505,3.0045e-05,0
97.506,4.4984e-05,0
97.506,3.9445e-05,0
97.507,2.0478e-05,0
97.507,-3.5248e-06,0
97.508,-2.3331e-05,0
97.508,-3.2898e-05,0
97.509,-2.9038e-05,0
97.509,-1.9135e-05,0
97.51,-8.896e-06,0
97.51,1.5106e-06,0
97.511,1.1917e-05,0
97.512,1.8128e-05,0
97.512,1.2589e-05,0
97.513,-3.357e-07,0
97.513,-7.5532e-06,0
97.514,-1.5106e-05,0
97.514,-3.3402e-05,0
97.515,-5.4047e-05,0
97.515,-6.009e-05,0
97.516,-4.7166e-05,0
97.516,-1.9806e-05,0
97.517,4.5319e-06,0
97.517,2.6352e-05,0
97.518,6.0929e-05,0
97.518,0.00010491,0
97.519,0.00013176,0
97.519,0.00011833,0
97.52,7.4357e-05,0
97.52,2.1988e-05,0
97.521,-2.4338e-05,0
97.521,-5.388e-05,0
97.522,-6.6972e-05,0
97.522,-7.6036e-05,0
97.523,-8.8289e-05,0
97.523,-9.1814e-05,0
97.524,-7.9393e-05,0
97.525,-5.388e-05,0
97.525,-1.561e-05,0
97.526,3.7598e-05,0
97.526,9.8863e-05,0
97.527,0.00015106,0
97.527,0.00017574,0
97.528,0.00016684,0
97.528,0.00014888,0
97.529,0.00013411,0
97.529,0.00011431,0
97.53,9.5674e-05,0
97.53,8.1575e-05,0
97.531,6.1601e-05,0
97.531,2.887e-05,0
97.532,-8.7282e-06,0
97.532,-3.3738e-05,0
97.533,-4.7166e-05,0
97.533,-5.4551e-05,0
97.534,-4.448e-05,0
97.534,-1.3596e-05,0
97.535,1.8463e-05,0
97.535,2.9374e-05,0
97.536,2.4674e-05,0
97.536,1.8296e-05,0
97.537,2.501e-05,0
97.537,4.4144e-05,0
97.538,5.8076e-05,0
97.539,6.3447e-05,0
97.539,6.4622e-05,0
97.54,6.6636e-05,0
97.54,6.5797e-05,0
97.541,5.8579e-05,0
97.541,5.0858e-05,0
97.542,4.9516e-05,0
97.542,4.8844e-05,0
97.543,4.7669e-05,0
97.543,4.8173e-05,0
97.544,4.6159e-05,0
97.544,3.978e-05,0
97.545,3.0045e-05,0
97.545,1.6785e-05,0
97.546,9.2317e-06,0
97.546,1.326e-05,0
97.547,1.4435e-05,0
97.547,2.5177e-06,0
97.548,-1.2421e-05,0
97.548,-2.8031e-05,0
97.549,-4.683e-05,0
97.549,-7.1672e-05,0
97.55,-0.00010222,0
97.55,-0.00013361,0
97.551,-0.0001556,0
97.552,-0.00015644,0
97.552,-0.00013579,0
97.553,-9.6178e-05,0
97.553,-3.7934e-05,0
97.554,1.4939e-05,0
97.554,3.5752e-05,0
97.555,3.1556e-05,0
97.555,2.8702e-05,0
97.556,4.0955e-05,0
97.556,6.479e-05,0
97.557,8.51e-05,0
97.557,8.275e-05,0
97.558,6.5629e-05,0
97.558,5.3208e-05,0
97.559,4.5151e-05,0
97.559,4.1123e-05,0
97.56,4.4144e-05,0
97.56,6.0426e-05,0
97.561,9.2821e-05,0
97.561,0.00014804,0
97.562,0.00020024,0
97.562,0.00020159,0
97.563,0.00015627,0
97.563,9.2485e-05,0
97.564,1.9806e-05,0
97.564,-4.6326e-05,0
97.565,-8.6946e-05,0
97.566,-8.8121e-05,0
97.566,-4.8173e-05,0
97.567,1.9974e-05,0
97.567,9.7353e-05,0
97.568,0.00014586,0
97.568,0.00013848,0
97.569,9.9199e-05,0
97.569,6.5629e-05,0
97.57,5.6565e-05,0
97.57,6.6133e-05,0
97.571,7.4693e-05,0
97.571,6.8986e-05,0
97.572,5.1865e-05,0
97.572,3.6591e-05,0
97.573,2.4002e-05,0
97.573,2.5177e-06,0
97.574,-3.1724e-05,0
97.574,-6.5629e-05,0
97.575,-8.7617e-05,0
97.575,-8.8792e-05,0
97.576,-6.8986e-05,0
97.576,-3.9109e-05,0
97.577,-9.0639e-06,0
97.577,1.1917e-05,0
97.578,2.4002e-05,0
97.579,3.592e-05,0
97.579,4.2802e-05,0
97.58,3.7263e-05,0
97.58,2.266e-05,0
97.581,1.2589e-05,0
97.581,6.5461e-06,0
97.582,0,0
97.582,-6.714e-07,0
97.583,-6.3783e-06,0
97.583,-3.1891e-05,0
97.584,-6.244e-05,0
97.584,-7.8721e-05,0
97.585,-6.9993e-05,0
97.585,-4.4648e-05,0
97.586,-2.5345e-05,0
97.586,-3.0213e-05,0
97.587,-5.388e-05,0
97.587,-7.9896e-05,0
97.588,-7.8721e-05,0
97.588,-3.6927e-05,0
97.589,2.0478e-05,0
97.589,6.6972e-05,0
97.59,0.00010021,0
97.59,0.00012169,0
97.591,0.00012857,0
97.591,0.00012857,0
97.592,0.00011934,0
97.593,9.7185e-05,0
97.593,7.0665e-05,0
97.594,5.2537e-05,0
97.594,4.918e-05,0
97.595,4.7669e-05,0
97.595,4.5319e-05,0
97.596,5.0019e-05,0
97.596,4.9012e-05,0
97.597,2.5345e-05,0
97.597,-2.7695e-05,0
97.598,-0.0001044,0
97.598,-0.00017087,0
97.599,-0.00019823,0
97.599,-0.00018312,0
97.6,-0.00013747,0
97.6,-9.3492e-05,0
97.601,-7.4693e-05,0
97.601,-6.5965e-05,0
97.602,-3.8102e-05,0
97.602,4.8676e-06,0
97.603,4.7501e-05,0
97.603,7.6371e-05,0
97.604,7.8721e-05,0
97.604,6.9657e-05,0
97.605,7.5029e-05,0
97.606,8.6442e-05,0
97.606,8.8121e-05,0
97.607,8.2414e-05,0
97.607,7.2175e-05,0
97.608,6.8986e-05,0
97.608,7.5029e-05,0
97.609,8.0064e-05,0
97.609,8.0903e-05,0
97.61,8.426e-05,0
97.61,8.4092e-05,0
97.611,6.8315e-05,0
97.611,3.592e-05,0
97.612,1.1917e-05,0
97.612,1.0575e-05,0
97.613,1.5274e-05,0
97.613,1.561e-05,0
97.614,1.3596e-05,0
97.614,1.4603e-05,0
97.615,1.1917e-05,0
97.615,4.5319e-06,0
97.616,3.6927e-06,0
97.616,6.2104e-06,0
97.617,1.326e-05,0
97.617,2.8702e-05,0
97.618,4.6494e-05,0
97.618,6.1936e-05,0
97.619,8.275e-05,0
97.62,0.00012052,0
97.62,0.00017255,0
97.621,0.00021199,0
97.621,0.00022055,0
97.622,0.00020058,0
97.622,0.00016902,0
97.623,0.00014401,0
97.623,0.0001227,0
97.624,9.8527e-05,0
97.624,6.7811e-05,0
97.625,3.0381e-05,0
97.625,-8.3925e-07,0
97.626,-8.2246e-06,0
97.626,6.3783e-06,0
97.627,2.4002e-05,0
97.627,3.0549e-05,0
97.628,2.8031e-05,0
97.628,1.9974e-05,0
97.629,1.1749e-06,0
97.629,-3.1724e-05,0
97.63,-7.7379e-05,0
97.63,-0.00012605,0
97.631,-0.00016164,0
97.631,-0.00017205,0
97.632,-0.00016466,0
97.633,-0.00014939,0
97.633,-0.00012723,0
97.634,-9.6513e-05,0
97.634,-7.4861e-05,0
97.635,-7.0665e-05,0
97.635,-6.9825e-05,0
97.636,-5.9922e-05,0
97.636,-3.5416e-05,0
97.637,-5.0355e-06,0
97.637,1.6281e-05,0
97.638,2.2492e-05,0
97.638,1.2924e-05,0
97.639,-4.1962e-06,0
97.639,-2.3331e-05,0
97.64,-4.062e-05,0
97.64,-5.2537e-05,0
97.641,-6.5629e-05,0
97.641,-7.2679e-05,0
97.642,-7.5364e-05,0
97.642,-7.57e-05,0
97.643,-7.3182e-05,0
97.643,-5.9586e-05,0
97.644,-3.743e-05,0
97.644,-8.2246e-06,0
97.645,3.7095e-05,0
97.645,0.00011632,0
97.646,0.00021703,0
97.647,0.00029709,0
97.647,0.00033486,0
97.648,0.00033402,0
97.648,0.00029894,0
97.649,0.00023616,0
97.649,0.00017255,0
97.65,0.00012807,0
97.65,0.00010188,0
97.651,8.7114e-05,0
97.651,7.4022e-05,0
97.652,4.9851e-05,0
97.652,2.6017e-05,0
97.653,5.2033e-06,0
97.653,-2.9877e-05,0
97.654,-6.1601e-05,0
97.654,-7.5532e-05,0
97.655,-8.3253e-05,0
97.655,-9.6513e-05,0
97.656,-0.00012303,0
97.656,-0.00015308,0
97.657,-0.00016919,0
97.657,-0.00017406,0
97.658,-0.00017456,0
97.658,-0.00015862,0
97.659,-0.00011951,0
97.66,-6.7979e-05,0
97.66,-1.796e-05,0
97.661,2.1317e-05,0
97.661,6.1265e-05,0
97.662,0.00010776,0
97.662,0.00014452,0
97.663,0.00015341,0
97.663,0.00013713,0
97.664,0.00010994,0
97.664,9.1646e-05,0
97.665,8.0735e-05,0
97.665,6.7979e-05,0
97.666,6.3783e-05,0
97.666,7.2175e-05,0
97.667,7.1e-05,0
97.667,5.3208e-05,0
97.668,3.6591e-05,0
97.668,3.743e-05,0
97.669,5.1194e-05,0
97.669,6.2608e-05,0
97.67,6.479e-05,0
97.67,5.1865e-05,0
97.671,3.1388e-05,0
97.671,1.8463e-05,0
97.672,1.1582e-05,0
97.672,3.1891e-06,0
97.673,5.0355e-07,0
97.674,0,0
97.674,-3.6927e-06,0
97.675,-8.896e-06,0
97.675,-9.2317e-06,0
97.676,-4.6998e-06,0
97.676,3.1891e-06,0
97.677,1.7792e-05,0
97.677,3.5416e-05,0
97.678,4.5487e-05,0
97.678,5.0187e-05,0
97.679,4.8173e-05,0
97.679,4.2634e-05,0
97.68,4.1291e-05,0
97.68,4.3977e-05,0
97.681,4.683e-05,0
97.681,4.4816e-05,0
97.682,3.8605e-05,0
97.682,3.2059e-05,0
97.683,3.2563e-05,0
97.683,3.3234e-05,0
97.684,2.7695e-05,0
97.684,2.0478e-05,0
97.685,1.9303e-05,0
97.685,2.4338e-05,0
97.686,3.2059e-05,0
97.687,2.7695e-05,0
97.687,4.6998e-06,0
97.688,-2.4002e-05,0
97.688,-4.5319e-05,0
97.689,-4.1459e-05,0
97.689,-1.9638e-05,0
97.69,1.0575e-05,0
97.69,4.7333e-05,0
97.691,7.7882e-05,0
97.691,8.6442e-05,0
97.692,7.2343e-05,0
97.692,3.8102e-05,0
97.693,-4.0284e-06,0
97.693,-3.2059e-05,0
97.694,-3.978e-05,0
97.694,-3.3738e-05,0
97.695,-2.5345e-05,0
97.695,-2.3667e-05,0
97.696,-2.6352e-05,0
97.696,-3.3066e-05,0
97.697,-5.4551e-05,0
97.697,-9.601e-05,0
97.698,-0.00013512,0
97.698,-0.00015409,0
97.699,-0.00015727,0
97.7,-0.00014922,0
97.7,-0.00013008,0
97.701,-0.00010726,0
97.701,-8.275e-05,0
97.702,-3.8102e-05,0
97.702,3.6927e-05,0
97.703,0.00011229,0
97.703,0.00015946,0
97.704,0.00016634,0
97.704,0.00015492,0
97.705,0.0001603,0
97.705,0.00016835,0
97.706,0.00014569,0
97.706,9.1814e-05,0
97.707,3.592e-05,0
97.707,6.714e-07,0
97.708,-1.796e-05,0
97.708,-4.4144e-05,0
97.709,-8.4596e-05,0
97.709,-0.00011632,0
97.71,-0.00012589,0
97.71,-0.0001185,0
97.711,-0.00010272,0
97.711,-6.6972e-05,0
97.712,-6.8818e-06,0
97.712,6.2943e-05,0
97.713,0.00011128,0
97.714,0.00012505,0
97.714,0.00012303,0
97.715,0.00011229,0
97.715,0.00010591,0
97.716,0.00013881,0
97.716,0.00020259,0
97.717,0.00025228,0
97.717,0.00025765,0
97.718,0.00022794,0
97.718,0.00020041,0
97.719,0.00018648,0
97.719,0.00015996,0
97.72,0.00012035,0
97.72,9.3828e-05,0
97.721,8.4932e-05,0
97.721,8.1407e-05,0
97.722,7.4357e-05,0
97.722,5.9419e-05,0
97.723,4.062e-05,0
97.723,2.2492e-05,0
97.724,1.1246e-05,0
97.724,4.5319e-06,0
97.725,-7.3854e-06,0
97.725,-3.1388e-05,0
97.726,-5.6901e-05,0
97.727,-7.4189e-05,0
97.727,-8.4764e-05,0
97.728,-9.3156e-05,0
97.728,-0.00010558,0
97.729,-0.00011397,0
97.729,-0.00011028,0
97.73,-9.8527e-05,0
97.73,-8.3589e-05,0
97.731,-7.0832e-05,0
97.731,-6.0761e-05,0
97.732,-3.8437e-05,0
97.732,1.1582e-05,0
97.733,7.9393e-05,0
97.733,0.00013948,0
97.734,0.0001754,0
97.734,0.00017691,0
97.735,0.0001556,0
97.735,0.00013445,0
97.736,0.000118,0
97.736,9.6849e-05,0
97.737,6.865e-05,0
97.737,4.4984e-05,0
97.738,3.7766e-05,0
97.738,4.062e-05,0
97.739,4.4648e-05,0
97.739,4.7837e-05,0
97.74,4.0955e-05,0
97.741,2.4002e-05,0
97.741,4.6998e-06,0
97.742,-2.8031e-05,0
97.742,-8.0903e-05,0
97.743,-0.00012857,0
97.743,-0.00015879,0
97.744,-0.00018614,0
97.744,-0.00022022,0
97.745,-0.00024607,0
97.745,-0.00023113,0
97.746,-0.00017003,0
97.746,-9.9367e-05,0
97.747,-5.4383e-05,0
97.747,-3.5752e-05,0
97.748,-2.6017e-05,0
97.748,-1.091e-05,0
97.749,1.7288e-05,0
97.749,4.8005e-05,0
97.75,7.2679e-05,0
97.75,9.1814e-05,0
97.751,0.00010692,0
97.751,0.00011498,0
97.752,0.00010809,0
97.752,8.4596e-05,0
97.753,5.9419e-05,0
97.754,4.5151e-05,0
97.754,4.1123e-05,0
97.755,4.4312e-05,0
97.755,5.0187e-05,0
97.756,5.2873e-05,0
97.756,6.1097e-05,0
97.757,7.1504e-05,0
97.757,7.4189e-05,0
97.758,6.0929e-05,0
97.758,3.122e-05,0
97.759,-2.182e-06,0
97.759,-1.9471e-05,0
97.76,-2.4338e-05,0
97.76,-3.0381e-05,0
97.761,-3.978e-05,0
97.761,-4.7501e-05,0
97.762,-4.1794e-05,0
97.762,-1.6953e-05,0
97.763,1.796e-05,0
97.763,4.2634e-05,0
97.764,5.8579e-05,0
97.764,5.8915e-05,0
97.765,2.9374e-05,0
97.765,-1.1246e-05,0
97.766,-3.2059e-05,0
97.766,-3.8102e-05,0
97.767,-4.8173e-05,0
97.768,-6.9322e-05,0
97.768,-9.6849e-05,0
97.769,-0.00013545,0
97.769,-0.00016533,0
97.77,-0.00014603,0
97.77,-9.6178e-05,0
97.771,-5.4719e-05,0
97.771,-2.8534e-05,0
97.772,-6.5461e-06,0
97.772,1.9638e-05,0
97.773,5.7572e-05,0
97.773,0.00010457,0
97.774,0.00014217,0
97.774,0.00014871,0
97.775,0.00013646,0
97.775,0.00013344,0
97.776,0.00014351,0
97.776,0.00015492,0
97.777,0.00014318,0
97.777,9.5506e-05,0
97.778,4.4312e-05,0
97.778,2.2156e-05,0
97.779,2.4002e-05,0
97.779,2.7863e-05,0
97.78,2.1317e-05,0
97.781,9.7353e-06,0
97.781,3.1891e-06,0
97.782,1.561e-05,0
97.782,5.3544e-05,0
97.783,0.0001039,0
97.783,0.00014485,0
97.784,0.00017255,0
97.784,0.00019487,0
97.785,0.00021065,0
97.785,0.00021267,0
97.786,0.00019924,0
97.786,0.00017893,0
97.787,0.00015727,0
97.787,0.00013428,0
97.788,0.00011061,0
97.788,9.2485e-05,0
97.789,7.6204e-05,0
97.789,5.3544e-05,0
97.79,3.0716e-05,0
97.79,1.8296e-05,0
97.791,2.1317e-05,0
97.791,3.4409e-05,0
97.792,4.3473e-05,0
97.792,4.448e-05,0
97.793,3.3738e-05,0
97.793,1.1582e-05,0
97.794,-1.0071e-05,0
97.795,-2.0645e-05,0
97.795,-2.3331e-05,0
97.796,-2.2828e-05,0
97.796,-3.3066e-05,0
97.797,-5.539e-05,0
97.797,-8.4428e-05,0
97.798,-0.00012505,0
97.798,-0.00018346,0
97.799,-0.0002412,0
97.799,-0.00027007,0
97.8,-0.00026369,0
97.8,-0.00023197,0
97.801,-0.00017893,0
97.801,-0.00010457,0
97.802,-3.3738e-05,0
97.802,-2.3499e-06,0
97.803,-9.9031e-06,0
97.803,-1.2589e-05,0
97.804,1.5946e-05,0
97.804,5.5894e-05,0
97.805,9.7017e-05,0
97.805,0.00015425,0
97.806,0.00021401,0
97.806,0.00023163,0
97.807,0.00019638,0
97.808,0.00014351,0
97.808,0.00010155,0
97.809,6.8986e-05,0
97.809,3.4409e-05,0
97.81,-1.3428e-06,0
97.81,-2.4674e-05,0
97.811,-2.6352e-05,0
97.811,-8.896e-06,0
97.812,9.9031e-06,0
97.812,2.3163e-05,0
97.813,3.1724e-05,0
97.813,3.0884e-05,0
97.814,1.5946e-05,0
97.814,-4.8676e-06,0
97.815,-1.8967e-05,0
97.815,-2.5513e-05,0
97.816,-3.9109e-05,0
97.816,-6.7643e-05,0
97.817,-9.601e-05,0
97.817,-9.7185e-05,0
97.818,-6.7475e-05,0
97.818,-2.652e-05,0
97.819,2.3667e-05,0
97.819,9.2485e-05,0
97.82,0.00016634,0
97.82,0.00020981,0
97.821,0.00020259,0
97.822,0.00015962,0
97.822,9.9199e-05,0
97.823,4.4144e-05,0
97.823,9.0639e-06,0
97.824,-9.5674e-06,0
97.824,-3.8773e-05,0
97.825,-7.9561e-05,0
97.825,-0.00011145,0
97.826,-0.00013243,0
97.826,-0.00015492,0
97.827,-0.00019437,0
97.827,-0.00024103,0
97.828,-0.00025631,0
97.828,-0.00020159,0
97.829,-7.2679e-05,0
97.829,6.9322e-05,0
97.83,0.00015106,0
97.83,0.00016667,0
97.831,0.00015862,0
97.831,0.00014737,0
97.832,0.00012807,0
97.832,9.7017e-05,0
97.833,5.2201e-05,0
97.833,6.5461e-06,0
97.834,-1.561e-05,0
97.835,-1.8967e-05,0
97.835,-2.4674e-05,0
97.836,-2.8199e-05,0
97.836,-2.4506e-05,0
97.837,-1.9135e-05,0
97.837,-2.2995e-05,0
97.838,-3.7766e-05,0
97.838,-5.0858e-05,0
97.839,-4.9348e-05,0
97.839,-3.9277e-05,0
97.84,-3.827e-05,0
97.84,-5.0858e-05,0
97.841,-7.3518e-05,0
97.841,-8.7953e-05,0
97.842,-6.3951e-05,0
97.842,1.1582e-05,0
97.843,0.00011263,0
97.843,0.00020998,0
97.844,0.00029122,0
97.844,0.00032848,0
97.845,0.00029659,0
97.845,0.00022173,0
97.846,0.0001603,0
97.846,0.0001237,0
97.847,9.9367e-05,0
97.847,7.1839e-05,0
97.848,4.0116e-05,0
97.849,2.1317e-05,0
97.849,2.5513e-05,0
97.85,3.6088e-05,0
97.85,2.9374e-05,0
97.851,4.8676e-06,0
97.851,-2.1653e-05,0
97.852,-4.0452e-05,0
97.852,-4.683e-05,0
97.853,-4.5319e-05,0
97.853,-3.0213e-05,0
97.854,6.5461e-06,0
97.854,5.9251e-05,0
97.855,0.00012337,0
97.855,0.00018967,0
97.856,0.00023214,0
97.856,0.00023885,0
97.857,0.00022542,0
97.857,0.00020461,0
97.858,0.00018178,0
97.858,0.0001603,0
97.859,0.00013948,0
97.859,0.00012203,0
97.86,0.00011263,0
97.86,0.00010793,0
97.861,0.00010054,0
97.862,8.6946e-05,0
97.862,5.3376e-05,0
97.863,-1.5106e-06,0
97.863,-6.6468e-05,0
97.864,-0.000118,0
97.864,-0.00014351,0
97.865,-0.00015727,0
97.865,-0.0001655,0
97.866,-0.00016684,0
97.866,-0.0001702,0
97.867,-0.00018094,0
97.867,-0.00020108,0
97.868,-0.00022576,0
97.868,-0.0002177,0
97.869,-0.00014704,0
97.869,-2.9038e-05,0
97.87,8.3421e-05,0
97.87,0.00014939,0
97.871,0.0001702,0
97.871,0.00016701,0
97.872,0.00014922,0
97.872,0.00011514,0
97.873,6.8986e-05,0
97.873,2.6184e-05,0
97.874,-4.3641e-06,0
97.874,-2.1317e-05,0
97.875,-2.9709e-05,0
97.876,-3.0716e-05,0
97.876,-2.4002e-05,0
97.877,-1.5946e-05,0
97.877,-1.5442e-05,0
97.878,-1.0071e-05,0
97.878,9.2317e-06,0
97.879,3.4409e-05,0
97.879,6.2776e-05,0
97.88,9.0639e-05,0
97.88,0.00011447,0
97.881,0.00013143,0
97.881,0.00013864,0
97.882,0.0001321,0
97.882,0.00011162,0
97.883,8.0064e-05,0
97.883,5.1362e-05,0
97.884,2.2828e-05,0
97.884,-1.5442e-05,0
97.885,-5.4215e-05,0
97.885,-8.5603e-05,0
97.886,-0.00011179,0
97.886,-0.00013931,0
97.887,-0.00016835,0
97.887,-0.00018665,0
97.888,-0.00019101,0
97.888,-0.00018581,0
97.889,-0.00016869,0
97.89,-0.00014905,0
97.89,-0.0001373,0
97.891,-0.00014469,0
97.891,-0.00015744,0
97.892,-0.00015593,0
97.892,-0.00012421,0
97.893,-6.4454e-05,0
97.893,-2.3835e-05,0
97.894,-3.827e-05,0
97.894,-6.8986e-05,0
97.895,-7.805e-05,0
97.895,-7.4022e-05,0
97.896,-8.3085e-05,0
97.896,-9.836e-05,0
97.897,-0.0001034,0
97.897,-0.00010121,0
97.898,-9.987e-05,0
97.898,-0.00010121,0
97.899,-8.191e-05,0
97.899,-3.2731e-05,0
97.9,2.9877e-05,0
97.9,8.9128e-05,0
97.901,0.00012874,0
97.901,0.00014401,0
97.902,0.00013999,0
97.903,0.00013008,0
97.903,0.00012404,0
97.904,0.00012421,0
97.904,0.00014133,0
97.905,0.00018413,0
97.905,0.00023952,0
97.906,0.00028249,0
97.906,0.00029038,0
97.907,0.00026537,0
97.907,0.00023079,0
97.908,0.00021955,0
97.908,0.00024154,0
97.909,0.00026705,0
97.909,0.00026772,0
97.91,0.00024657,0
97.91,0.00022458,0
97.911,0.00020729,0
97.911,0.00019236,0
97.912,0.0001848,0
97.912,0.00018379,0
97.913,0.00017977,0
97.913,0.00015929,0
97.914,0.00012572,0
97.914,9.2821e-05,0
97.915,6.4286e-05,0
97.915,3.2059e-05,0
97.916,-6.2104e-06,0
97.917,-4.0955e-05,0
97.917,-6.2943e-05,0
97.918,-7.3686e-05,0
97.918,-8.1071e-05,0
97.919,-9.0135e-05,0
97.919,-9.0974e-05,0
97.92,-7.4525e-05,0
97.92,-5.1194e-05,0
97.921,-2.9038e-05,0
97.921,-1.1582e-05,0
97.922,-3.357e-06,0
97.922,-5.539e-06,0
97.923,-6.3783e-06,0
97.923,3.357e-07,0
97.924,1.7792e-05,0
97.924,4.0116e-05,0
97.925,5.8244e-05,0
97.925,6.7643e-05,0
97.926,6.9322e-05,0
97.926,6.479e-05,0
97.927,5.3544e-05,0
97.927,3.0045e-05,0
97.928,-2.0142e-06,0
97.928,-3.2731e-05,0
97.929,-6.2608e-05,0
97.93,-8.7449e-05,0
97.93,-0.00010625,0
97.931,-0.00012253,0
97.931,-0.00014318,0
97.932,-0.00016718,0
97.932,-0.00019722,0
97.933,-0.0002229,0
97.933,-0.00023969,0
97.934,-0.00025127,0
97.934,-0.0002558,0
97.935,-0.00025261,0
97.935,-0.00024321,0
97.936,-0.00021904,0
97.936,-0.00017372,0
97.937,-0.00011162,0
97.937,-4.5823e-05,0
97.938,-1.8463e-06,0
97.938,1.6617e-05,0
97.939,1.6617e-05,0
97.939,2.1149e-05,0
97.94,4.6662e-05,0
97.94,7.3686e-05,0
97.941,8.4764e-05,0
97.941,8.661e-05,0
97.942,8.2414e-05,0
97.942,6.7308e-05,0
97.943,5.0523e-05,0
97.944,4.7166e-05,0
97.944,5.388e-05,0
97.945,6.4286e-05,0
97.945,8.9967e-05,0
97.946,0.00013277,0
97.946,0.00017171,0
97.947,0.00018682,0
97.947,0.00017104,0
97.948,0.00014955,0
97.948,0.00014704,0
97.949,0.000166,0
97.949,0.00018682,0
97.95,0.00019319,0
97.95,0.00019319,0
97.951,0.00019722,0
97.951,0.00019991,0
97.952,0.00019554,0
97.952,0.00018648,0
97.953,0.00017691,0
97.953,0.00015727,0
97.954,0.00011431,0
97.954,4.8173e-05,0
97.955,1.1749e-06,0
97.955,-1.1078e-05,0
97.956,-1.091e-05,0
97.957,-1.2924e-05,0
97.957,-2.2995e-05,0
97.958,-5.1698e-05,0
97.958,-0.00010155,0
97.959,-0.00015811,0
97.959,-0.00020478,0
97.96,-0.00021418,0
97.96,-0.00018077,0
97.961,-0.0001373,0
97.961,-0.00010474,0
97.962,-6.865e-05,0
97.962,-3.1724e-05,0
97.963,-2.8534e-06,0
97.963,1.8128e-05,0
97.964,3.9109e-05,0
97.964,7.1672e-05,0
97.965,0.00010692,0
97.965,0.00012555,0
97.966,0.00012253,0
97.966,0.00011028,0
97.967,9.8863e-05,0
97.967,9.0303e-05,0
97.968,8.0903e-05,0
97.968,6.5629e-05,0
97.969,5.5558e-05,0
97.969,5.774e-05,0
97.97,6.0929e-05,0
97.971,6.3111e-05,0
97.971,5.9586e-05,0
97.972,4.3137e-05,0
97.972,1.5106e-05,0
97.973,-2.9709e-05,0
97.973,-8.3757e-05,0
97.974,-0.00013092,0
97.974,-0.00016466,0
97.975,-0.00017255,0
97.975,-0.00014469,0
97.976,-9.752e-05,0
97.976,-6.0594e-05,0
97.977,-3.9277e-05,0
97.977,-2.0645e-05,0
97.978,1.9638e-05,0
97.978,8.2918e-05,0
97.979,0.00014821,0
97.979,0.00019353,0
97.98,0.00020343,0
97.98,0.00017742,0
97.981,0.00014015,0
97.981,0.00011531,0
97.982,0.00010457,0
97.982,9.2485e-05,0
97.983,7.4525e-05,0
97.984,6.3783e-05,0
97.984,6.63e-05,0
97.985,6.3951e-05,0
97.985,4.918e-05,0
97.986,3.1388e-05,0
97.986,1.6785e-05,0
97.987,0,0
97.987,-2.8534e-05,0
97.988,-5.9922e-05,0
97.988,-7.8889e-05,0
97.989,-8.2582e-05,0
97.989,-8.04e-05,0
97.99,-7.4189e-05,0
97.99,-6.4958e-05,0
97.991,-5.388e-05,0
97.991,-3.9445e-05,0
97.992,-3.2731e-05,0
97.992,-4.1794e-05,0
97.993,-5.8915e-05,0
97.993,-8.3085e-05,0
97.994,-0.00010726,0
97.994,-0.00012102,0
97.995,-0.00012119,0
97.995,-0.00012891,0
97.996,-0.00015006,0
97.996,-0.00014788,0
97.997,-9.8527e-05,0
97.998,-1.1078e-05,0
97.998,8.275e-05,0
97.999,0.00015828,0
97.999,0.00020729,0
98,0.00023348,0
98,0.00024523,0
98.001,0.00023851,0
98.001,0.00021669,0
98.002,0.00019387,0
98.002,0.00017473,0
98.003,0.00014871,0
98.003,0.00011414,0
98.004,8.1071e-05,0
98.004,4.7501e-05,0
98.005,1.326e-05,0
98.005,-1.4267e-05,0
98.006,-2.7024e-05,0
98.006,-2.7024e-05,0
98.007,-2.6688e-05,0
98.007,-2.9038e-05,0
98.008,-3.3402e-05,0
98.008,-3.9445e-05,0
98.009,-3.978e-05,0
98.009,-2.9038e-05,0
98.01,-1.6617e-05,0
98.011,-1.561e-05,0
98.011,-2.7192e-05,0
98.012,-5.153e-05,0
98.012,-9.0806e-05,0
98.013,-0.00012908,0
98.013,-0.00014687,0
98.014,-0.00014536,0
98.014,-0.00013176,0
98.015,-0.0001138,0
98.015,-8.51e-05,0
98.016,-3.6759e-05,0
98.016,1.4435e-05,0
98.017,5.0858e-05,0
98.017,7.8889e-05,0
98.018,0.000118,0
98.018,0.00016466,0
98.019,0.00019991,0
98.019,0.0002088,0
98.02,0.00019974,0
98.02,0.00018698,0
98.021,0.00016399,0
98.021,0.00012471,0
98.022,8.3421e-05,0
98.022,5.7237e-05,0
98.023,4.9012e-05,0
98.023,4.1627e-05,0
98.024,2.266e-05,0
98.025,8.2246e-06,0
98.025,7.2175e-06,0
98.026,8.896e-06,0
98.026,8.896e-06,0
98.027,1.0575e-05,0
98.027,1.6953e-05,0
98.028,3.1724e-05,0
98.028,4.4984e-05,0
98.029,4.4144e-05,0
98.029,2.8031e-05,0
98.03,2.8534e-06,0
98.03,-1.6953e-05,0
98.031,-2.9374e-05,0
98.031,-4.1459e-05,0
98.032,-5.1194e-05,0
98.032,-5.2537e-05,0
98.033,-5.2201e-05,0
98.033,-4.6159e-05,0
98.034,-1.796e-05,0
98.034,2.9038e-05,0
98.035,6.8315e-05,0
98.035,8.3085e-05,0
98.036,8.1575e-05,0
98.036,7.7714e-05,0
98.037,7.4357e-05,0
98.038,6.8315e-05,0
98.038,6.4286e-05,0
98.039,5.623e-05,0
98.039,4.2634e-05,0
98.04,3.2731e-05,0
98.04,3.8437e-05,0
98.041,5.5894e-05,0
98.041,6.2608e-05,0
98.042,4.1291e-05,0
98.042,1.6785e-07,0
98.043,-3.8941e-05,0
98.043,-7.805e-05,0
98.044,-0.00012589,0
98.044,-0.00016516,0
98.045,-0.0001697,0
98.045,-0.00013898,0
98.046,-8.9632e-05,0
98.046,-3.9277e-05,0
98.047,2.182e-06,0
98.047,3.2395e-05,0
98.048,5.2537e-05,0
98.048,7.1504e-05,0
98.049,0.00010323,0
98.049,0.00012773,0
98.05,0.00011766,0
98.05,0.00010809,0
98.051,0.00014318,0
98.052,0.00020159,0
98.052,0.00023616,0
98.053,0.00022039,0
98.053,0.00016365,0
98.054,8.9128e-05,0
98.054,1.7288e-05,0
98.055,-3.0213e-05,0
98.055,-6.3447e-05,0
98.056,-9.7017e-05,0
98.056,-0.00012656,0
98.057,-0.00013596,0
98.057,-0.00012303,0
98.058,-0.00011112,0
98.058,-0.00011397,0
98.059,-0.00011833,0
98.059,-9.5338e-05,0
98.06,-4.0116e-05,0
98.06,4.062e-05,0
98.061,0.00012337,0
98.061,0.0001791,0
98.062,0.00020562,0
98.062,0.00021703,0
98.063,0.00021971,0
98.063,0.00021367,0
98.064,0.00019387,0
98.065,0.00016265,0
98.065,0.0001321,0
98.066,0.00010323,0
98.066,7.2847e-05,0
98.067,5.2369e-05,0
98.067,4.0116e-05,0
98.068,2.1988e-05,0
98.068,-1.0239e-05,0
98.069,-6.3447e-05,0
98.069,-0.00012505,0
98.07,-0.0001744,0
98.07,-0.00021468,0
98.071,-0.0002511,0
98.071,-0.00027376,0
98.072,-0.00025949,0
98.072,-0.00019823,0
98.073,-0.00010826,0
98.073,-2.8031e-05,0
98.074,1.8967e-05,0
98.074,3.8773e-05,0
98.075,5.1362e-05,0
98.075,7.4022e-05,0
98.076,9.7185e-05,0
98.076,0.00010088,0
98.077,7.9057e-05,0
98.078,5.4719e-05,0
98.078,4.4816e-05,0
98.079,4.9851e-05,0
98.079,4.7837e-05,0
98.08,3.1388e-05,0
98.08,1.9806e-05,0
98.081,1.561e-05,0
98.081,1.4603e-05,0
98.082,1.6953e-05,0
98.082,1.1917e-05,0
98.083,-5.539e-06,0
98.083,-1.1078e-05,0
98.084,3.1891e-06,0
98.084,1.7288e-05,0
98.085,1.7792e-05,0
98.085,1.1749e-05,0
98.086,1.3931e-05,0
98.086,2.4338e-05,0
98.087,3.2563e-05,0
98.087,3.2059e-05,0
98.088,2.3163e-05,0
98.088,2.2156e-05,0
98.089,3.978e-05,0
98.089,8.3589e-05,0
98.09,0.00014989,0
98.09,0.00020125,0
98.091,0.00020864,0
98.092,0.00017288,0
98.092,0.00010927,0
98.093,4.1459e-05,0
98.093,-7.2175e-06,0
98.094,-3.2731e-05,0
98.094,-4.5319e-05,0
98.095,-4.918e-05,0
98.095,-4.6998e-05,0
98.096,-4.9516e-05,0
98.096,-5.8076e-05,0
98.097,-5.4551e-05,0
98.097,-3.8437e-05,0
98.098,-1.4771e-05,0
98.098,1.4603e-05,0
98.099,3.7934e-05,0
98.099,5.0858e-05,0
98.1,5.4719e-05,0
98.1,4.5319e-05,0
98.101,2.9709e-05,0
98.101,2.4338e-05,0
98.102,3.5416e-05,0
98.102,5.3208e-05,0
98.103,6.9657e-05,0
98.103,8.51e-05,0
98.104,9.1981e-05,0
98.105,8.5771e-05,0
98.105,7.5029e-05,0
98.106,6.2943e-05,0
98.106,4.4144e-05,0
98.107,2.0478e-05,0
98.107,-5.2033e-06,0
98.108,-3.827e-05,0
98.108,-7.2175e-05,0
98.109,-0.00010776,0
98.109,-0.00015409,0
98.11,-0.00020964,0
98.11,-0.00024926,0
98.111,-0.00024506,0
98.111,-0.00017507,0
98.112,-4.918e-05,0
98.112,7.1672e-05,0
98.113,0.00013411,0
98.113,0.00014267,0
98.114,0.00013075,0
98.114,0.00012404,0
98.115,0.00012941,0
98.115,0.00013915,0
98.116,0.00013025,0
98.116,0.00010558,0
98.117,8.8792e-05,0
98.117,8.5435e-05,0
98.118,9.0806e-05,0
98.119,9.7185e-05,0
98.119,9.5506e-05,0
98.12,8.5435e-05,0
98.12,6.9154e-05,0
98.121,5.2033e-05,0
98.121,3.2059e-05,0
98.122,1.0575e-05,0
98.122,-3.0213e-06,0
98.123,-1.3596e-05,0
98.123,-2.7527e-05,0
98.124,-4.3137e-05,0
98.124,-5.7069e-05,0
98.125,-5.069e-05,0
98.125,-1.9638e-05,0
98.126,2.031e-05,0
98.126,5.539e-05,0
98.127,8.1743e-05,0
98.127,0.00011028,0
98.128,0.00014385,0
98.128,0.0001603,0
98.129,0.00014217,0
98.129,0.00010524,0
98.13,8.04e-05,0
98.13,6.8147e-05,0
98.131,5.8579e-05,0
98.132,5.5222e-05,0
98.132,5.4215e-05,0
98.133,4.5151e-05,0
98.133,2.5345e-05,0
98.134,5.0355e-06,0
98.134,-9.7353e-06,0
98.135,-2.0981e-05,0
98.135,-3.2395e-05,0
98.136,-4.9516e-05,0
98.136,-7.6539e-05,0
98.137,-0.00010558,0
98.137,-0.00012438,0
98.138,-0.00014368,0
98.138,-0.00016902,0
98.139,-0.00018682,0
98.139,-0.00018984,0
98.14,-0.00017943,0
98.14,-0.0001566,0
98.141,-0.00012152,0
98.141,-6.4454e-05,0
98.142,1.3764e-05,0
98.142,8.8121e-05,0
98.143,0.00013764,0
98.143,0.00015325,0
98.144,0.00015341,0
98.144,0.00017272,0
98.145,0.00021804,0
98.146,0.0002506,0
98.146,0.00023885,0
98.147,0.00018581,0
98.147,0.00011934,0
98.148,6.1601e-05,0
98.148,1.5106e-05,0
98.149,-1.8296e-05,0
98.149,-3.3402e-05,0
98.15,-4.0787e-05,0
98.15,-5.5222e-05,0
98.151,-7.7211e-05,0
98.151,-0.00010507,0
98.152,-0.0001321,0
98.152,-0.0001425,0
98.153,-0.00013982,0
98.153,-0.00013529,0
98.154,-0.00013176,0
98.154,-0.00012706,0
98.155,-0.00012589,0
98.155,-0.00012471,0
98.156,-0.00011716,0
98.156,-9.2485e-05,0
98.157,-5.0019e-05,0
98.157,5.0355e-07,0
98.158,4.8844e-05,0
98.159,8.9464e-05,0
98.159,0.00011397,0
98.16,0.00012337,0
98.16,0.0001321,0
98.161,0.00015023,0
98.161,0.00017037,0
98.162,0.00017339,0
98.162,0.00015492,0
98.163,0.00013344,0
98.163,0.00011162,0
98.164,7.4022e-05,0
98.164,2.1988e-05,0
98.165,-3.1388e-05,0
98.165,-6.9322e-05,0
98.166,-7.805e-05,0
98.166,-7.0665e-05,0
98.167,-6.2943e-05,0
98.167,-6.0258e-05,0
98.168,-5.0523e-05,0
98.168,-2.8031e-05,0
98.169,5.7069e-06,0
98.169,4.7501e-05,0
98.17,8.5603e-05,0
98.17,0.00011565,0
98.171,0.00014049,0
98.171,0.00016197,0
98.172,0.00017406,0
98.173,0.00016617,0
98.173,0.00014066,0
98.174,0.00010407,0
98.174,6.009e-05,0
98.175,3.4745e-05,0
98.175,3.2731e-05,0
98.176,3.4073e-05,0
98.176,2.1317e-05,0
98.177,-4.5319e-06,0
98.177,-2.8367e-05,0
98.178,-5.1865e-05,0
98.178,-9.5171e-05,0
98.179,-0.00015459,0
98.179,-0.00020494,0
98.18,-0.00022257,0
98.18,-0.0001984,0
98.181,-0.00013629,0
98.181,-5.7572e-05,0
98.182,1.7624e-05,0
98.182,8.5267e-05,0
98.183,0.00015459,0
98.183,0.00021569,0
98.184,0.00024825,0
98.184,0.00025362,0
98.185,0.00024691,0
98.186,0.00023381,0
98.186,0.00021434,0
98.187,0.00018178,0
98.187,0.00014015,0
98.188,0.00010272,0
98.188,8.4092e-05,0
98.189,7.3182e-05,0
98.189,5.6062e-05,0
98.19,3.7095e-05,0
98.19,2.5345e-05,0
98.191,1.8631e-05,0
98.191,1.2924e-05,0
98.192,3.8605e-06,0
98.192,-1.0239e-05,0
98.193,-2.266e-05,0
98.193,-2.182e-05,0
98.194,-2.3499e-06,0
98.194,2.7695e-05,0
98.195,4.9012e-05,0
98.195,5.7237e-05,0
98.196,5.774e-05,0
98.196,5.2873e-05,0
98.197,4.5823e-05,0
98.197,4.1459e-05,0
98.198,4.6998e-05,0
98.198,5.4887e-05,0
98.199,5.8579e-05,0
98.2,6.7308e-05,0
98.2,8.9128e-05,0
98.201,0.00011095,0
98.201,0.00012186,0
98.202,0.00011968,0
98.202,0.00010457,0
98.203,8.0064e-05,0
98.203,5.2873e-05,0
98.204,2.0813e-05,0
98.204,-1.9806e-05,0
98.205,-6.0426e-05,0
98.205,-9.4163e-05,0
98.206,-0.00011666,0
98.206,-0.00013243,0
98.207,-0.00015593,0
98.207,-0.00018698,0
98.208,-0.00021703,0
98.208,-0.00022861,0
98.209,-0.00020444,0
98.209,-0.0001556,0
98.21,-0.00010961,0
98.21,-8.3085e-05,0
98.211,-6.63e-05,0
98.211,-4.8173e-05,0
98.212,-3.1052e-05,0
98.213,-2.1653e-05,0
98.213,-2.2828e-05,0
98.214,-3.1388e-05,0
98.214,-3.9445e-05,0
98.215,-5.4215e-05,0
98.215,-7.7043e-05,0
98.216,-0.0001039,0
98.216,-0.00012656,0
98.217,-0.00013512,0
98.217,-0.00013243,0
98.218,-0.00012689,0
98.218,-0.00011431,0
98.219,-9.4667e-05,0
98.219,-7.4693e-05,0
98.22,-6.0594e-05,0
98.22,-3.8941e-05,0
98.221,5.7069e-06,0
98.221,7.1e-05,0
98.222,0.0001368,0
98.222,0.00018413,0
98.223,0.00020327,0
98.223,0.00020092,0
98.224,0.00019017,0
98.224,0.00017641,0
98.225,0.00015828,0
98.225,0.00014116,0
98.226,0.00012874,0
98.227,0.00012219,0
98.227,0.00011934,0
98.228,0.00011531,0
98.228,0.00010256,0
98.229,7.4357e-05,0
98.229,3.4073e-05,0
98.23,1.6785e-07,0
98.23,-1.7792e-05,0
98.231,-2.7695e-05,0
98.231,-3.3906e-05,0
98.232,-2.6017e-05,0
98.232,5.539e-06,0
98.233,5.2033e-05,0
98.233,9.4331e-05,0
98.234,0.00010826,0
98.234,8.9799e-05,0
98.235,6.714e-05,0
98.235,6.865e-05,0
98.236,8.7785e-05,0
98.236,0.00010138,0
98.237,9.5842e-05,0
98.237,7.6371e-05,0
98.238,5.3376e-05,0
98.238,3.5416e-05,0
98.239,1.8296e-05,0
98.24,6.714e-06,0
98.24,1.0071e-06,0
98.241,-7.2175e-06,0
98.241,-2.6184e-05,0
98.242,-4.5655e-05,0
98.242,-5.4551e-05,0
98.243,-6.0258e-05,0
98.243,-6.7811e-05,0
98.244,-7.7379e-05,0
98.244,-8.5603e-05,0
98.245,-8.3589e-05,0
98.245,-7.7714e-05,0
98.246,-8.5603e-05,0
98.246,-0.00010423,0
98.247,-0.00011011,0
98.247,-7.805e-05,0
98.248,3.6927e-06,0
98.248,0.0001133,0
98.249,0.00020797,0
98.249,0.00026302,0
98.25,0.00028249,0
98.25,0.00028518,0
98.251,0.00027779,0
98.251,0.00025597,0
98.252,0.00022945,0
98.252,0.00020897,0
98.253,0.00019017,0
98.254,0.00016533,0
98.254,0.00013646,0
98.255,0.00010726,0
98.255,8.0232e-05,0
98.256,6.1433e-05,0
98.256,5.0187e-05,0
98.257,4.0116e-05,0
98.257,3.1724e-05,0
98.258,2.5849e-05,0
98.258,1.9974e-05,0
98.259,1.2924e-05,0
98.259,-4.8676e-06,0
98.26,-3.8605e-05,0
98.26,-6.9993e-05,0
98.261,-8.9128e-05,0
98.261,-0.00010407,0
98.262,-0.00011565,0
98.262,-0.00012001,0
98.263,-0.00011699,0
98.263,-0.00011833,0
98.264,-0.00012018,0
98.264,-0.00010591,0
98.265,-7.5364e-05,0
98.265,-3.978e-05,0
98.266,-7.5532e-06,0
98.266,1.2589e-05,0
98.267,1.0575e-05,0
98.268,-1.0239e-05,0
98.268,-3.5752e-05,0
98.269,-4.8173e-05,0
98.269,-4.0787e-05,0
98.27,-3.508e-05,0
98.27,-4.0116e-05,0
98.271,-4.8173e-05,0
98.271,-5.4887e-05,0
98.272,-5.8579e-05,0
98.272,-5.5558e-05,0
98.273,-4.9516e-05,0
98.273,-4.1459e-05,0
98.274,-2.9374e-05,0
98.274,-1.2589e-05,0
98.275,6.5461e-06,0
98.275,2.4338e-05,0
98.276,4.1459e-05,0
98.276,6.3447e-05,0
98.277,8.9799e-05,0
98.277,0.00010037,0
98.278,7.3014e-05,0
98.278,2.6688e-05,0
98.279,-1.1078e-05,0
98.279,-5.4551e-05,0
98.28,-0.00011901,0
98.281,-0.00018262,0
98.281,-0.00021535,0
98.282,-0.00020494,0
98.282,-0.00015912,0
98.283,-8.9128e-05,0
98.283,-1.8296e-05,0
98.284,4.1794e-05,0
98.284,9.2821e-05,0
98.285,0.00013512,0
98.285,0.00016902,0
98.286,0.00020511,0
98.286,0.00024456,0
98.287,0.00027729,0
98.287,0.00028518,0
98.288,0.00024942,0
98.288,0.00018027,0
98.289,0.0001133,0
98.289,7.2343e-05,0
98.29,5.0858e-05,0
98.29,3.2059e-05,0
98.291,1.4771e-05,0
98.291,8.7282e-06,0
98.292,1.8463e-05,0
98.292,3.3066e-05,0
98.293,4.3137e-05,0
98.293,3.8437e-05,0
98.294,1.9638e-05,0
98.295,2.182e-06,0
98.295,-3.6927e-06,0
98.296,2.5177e-06,0
98.296,1.3428e-05,0
98.297,2.4002e-05,0
98.297,3.7934e-05,0
98.298,5.2537e-05,0
98.298,5.2201e-05,0
98.299,1.7792e-05,0
98.299,-3.4577e-05,0
98.3,-7.2007e-05,0
98.3,-8.6946e-05,0
98.301,-9.1981e-05,0
98.301,-9.752e-05,0
98.302,-0.00010239,0
98.302,-0.00011078,0
98.303,-0.000118,0
98.303,-9.8527e-05,0
98.304,-4.3137e-05,0
98.304,2.4338e-05,0
98.305,7.6371e-05,0
98.305,0.00011296,0
98.306,0.00014217,0
98.306,0.00015157,0
98.307,0.00013848,0
98.308,0.00012908,0
98.308,0.00013512,0
98.309,0.00014838,0
98.309,0.00016802,0
98.31,0.00018245,0
98.31,0.00016365,0
98.311,0.00011833,0
98.311,7.5029e-05,0
98.312,4.3809e-05,0
98.312,2.2156e-05,0
98.313,8.896e-06,0
98.313,3.357e-07,0
98.314,-1.6785e-07,0
98.314,2.182e-06,0
98.315,1.0071e-06,0
98.315,-5.539e-06,0
98.316,-1.1749e-05,0
98.316,-2.4842e-05,0
98.317,-4.062e-05,0
98.317,-4.4144e-05,0
98.318,-3.8605e-05,0
98.318,-3.4409e-05,0
98.319,-4.2466e-05,0
98.319,-5.7572e-05,0
98.32,-6.009e-05,0
98.32,-4.6998e-05,0
98.321,-3.3738e-05,0
98.322,-2.5681e-05,0
98.322,-2.0478e-05,0
98.323,-1.4603e-05,0
98.323,1.7121e-05,0
98.324,7.7379e-05,0
98.324,0.00012404,0
98.325,0.00013394,0
98.325,0.00012589,0
98.326,0.00012337,0
98.326,0.00012035,0
98.327,0.00010574,0
98.327,7.5029e-05,0
98.328,3.592e-05,0
98.328,1.8463e-06,0
98.329,-1.4267e-05,0
98.329,-1.0575e-05,0
98.33,1.2421e-05,0
98.33,3.5416e-05,0
98.331,3.7095e-05,0
98.331,1.7121e-05,0
98.332,-1.4099e-05,0
98.332,-4.8676e-05,0
98.333,-7.6875e-05,0
98.333,-9.0303e-05,0
98.334,-9.3492e-05,0
98.335,-9.1814e-05,0
98.335,-9.0806e-05,0
98.336,-9.836e-05,0
98.336,-0.00011229,0
98.337,-0.00011968,0
98.337,-0.00011296,0
98.338,-9.8527e-05,0
98.338,-9.0135e-05,0
98.339,-8.8792e-05,0
98.339,-7.8889e-05,0
98.34,-4.6662e-05,0
98.34,1.6785e-06,0
98.341,5.2705e-05,0
98.341,9.9031e-05,0
98.342,0.00013243,0
98.342,0.00014519,0
98.343,0.00013613,0
98.343,0.00011699,0
98.344,0.00010507,0
98.344,0.00010961,0
98.345,0.00012169,0
98.345,0.00013008,0
98.346,0.00012404,0
98.346,0.00010423,0
98.347,8.191e-05,0
98.347,6.4958e-05,0
98.348,3.9445e-05,0
98.349,-1.0407e-05,0
98.349,-8.0903e-05,0
98.35,-0.00014301,0
98.35,-0.00017708,0
98.351,-0.00018682,0
98.351,-0.00018463,0
98.352,-0.00017473,0
98.352,-0.00016063,0
98.353,-0.00013915,0
98.353,-0.00010457,0
98.354,-6.4622e-05,0
98.354,-3.0381e-05,0
98.355,3.357e-07,0
98.355,5.6565e-05,0
98.356,0.00016197,0
98.356,0.0002788,0
98.357,0.00034359,0
98.357,0.00033553,0
98.358,0.00028064,0
98.358,0.00021888,0
98.359,0.00017003,0
98.359,0.00013361,0
98.36,0.00010726,0
98.36,9.2149e-05,0
98.361,9.1142e-05,0
98.362,9.5506e-05,0
98.362,9.6513e-05,0
98.363,9.4499e-05,0
98.363,8.7785e-05,0
98.364,7.0329e-05,0
98.364,3.0381e-05,0
98.365,-1.2589e-05,0
98.365,-3.1052e-05,0
98.366,-3.4745e-05,0
98.366,-5.1865e-05,0
98.367,-8.2078e-05,0
98.367,-0.00010356,0
98.368,-0.00010843,0
98.368,-0.00010692,0
98.369,-9.5506e-05,0
98.369,-7.4525e-05,0
98.37,-4.4816e-05,0
98.37,5.0355e-07,0
98.371,5.153e-05,0
98.371,8.7114e-05,0
98.372,9.987e-05,0
98.372,0.00010021,0
98.373,0.00010608,0
98.373,0.00012303,0
98.374,0.00013059,0
98.374,0.00011061,0
98.375,7.4693e-05,0
98.376,4.683e-05,0
98.376,3.1724e-05,0
98.377,1.9974e-05,0
98.377,7.7211e-06,0
98.378,-2.5177e-06,0
98.378,-2.8534e-06,0
98.379,9.9031e-06,0
98.379,1.2589e-05,0
98.38,-1.5106e-06,0
98.38,-2.0142e-05,0
98.381,-4.3137e-05,0
98.381,-6.865e-05,0
98.382,-8.3757e-05,0
98.382,-8.3085e-05,0
98.383,-6.6972e-05,0
98.383,-4.1962e-05,0
98.384,-2.2995e-05,0
98.384,-9.9031e-06,0
98.385,1.561e-05,0
98.385,4.3473e-05,0
98.386,5.8244e-05,0
98.386,5.9922e-05,0
98.387,4.9012e-05,0
98.387,2.3667e-05,0
98.388,-1.0742e-05,0
98.389,-3.978e-05,0
98.389,-5.2033e-05,0
98.39,-5.153e-05,0
98.39,-6.8818e-05,0
98.391,-0.00011145,0
98.391,-0.00014788,0
98.392,-0.00015627,0
98.392,-0.000142,0
98.393,-0.00011901,0
98.393,-9.3492e-05,0
98.394,-5.4551e-05,0
98.394,-1.5106e-05,0
98.395,-4.6998e-06,0
98.395,-2.7024e-05,0
98.396,-6.1936e-05,0
98.396,-6.8986e-05,0
98.397,-1.8296e-05,0
98.397,8.7617e-05,0
98.398,0.00021283,0
98.398,0.000308,0
98.399,0.00033419,0
98.399,0.00028685,0
98.4,0.00021015,0
98.4,0.00013982,0
98.401,7.9561e-05,0
98.401,2.4674e-05,0
98.402,-2.3331e-05,0
98.403,-5.5894e-05,0
98.403,-7.0665e-05,0
98.404,-7.5532e-05,0
98.404,-7.0329e-05,0
98.405,-5.8076e-05,0
98.405,-4.4144e-05,0
98.406,-3.1052e-05,0
98.406,-1.5106e-05,0
98.407,3.8605e-06,0
98.407,1.6449e-05,0
98.408,2.4002e-05,0
98.408,4.0116e-05,0
98.409,6.0258e-05,0
98.409,7.0329e-05,0
98.41,6.9993e-05,0
98.41,6.7308e-05,0
98.411,6.6804e-05,0
98.411,7.1336e-05,0
98.412,7.7714e-05,0
98.412,8.0232e-05,0
98.413,7.8386e-05,0
98.413,7.1168e-05,0
98.414,6.3615e-05,0
98.414,5.8915e-05,0
98.415,5.304e-05,0
98.416,4.2634e-05,0
98.416,3.3066e-05,0
98.417,2.7695e-05,0
98.417,2.3667e-05,0
98.418,1.9974e-05,0
98.418,1.7624e-05,0
98.419,1.9135e-05,0
98.419,2.0142e-05,0
98.42,1.3428e-05,0
98.42,6.8818e-06,0
98.421,7.8889e-06,0
98.421,1.4435e-05,0
98.422,2.3331e-05,0
98.422,3.2059e-05,0
98.423,4.6662e-05,0
98.423,7.335e-05,0
98.424,0.0001044,0
98.424,0.000118,0
98.425,0.0001086,0
98.425,8.7617e-05,0
98.426,6.5965e-05,0
98.426,4.7333e-05,0
98.427,3.0716e-05,0
98.427,1.326e-05,0
98.428,-4.1962e-06,0
98.428,-1.5778e-05,0
98.429,-2.5345e-05,0
98.43,-3.7766e-05,0
98.43,-5.0523e-05,0
98.431,-4.683e-05,0
98.431,-2.031e-05,0
98.432,2.0142e-06,0
98.432,2.182e-06,0
98.433,1.1749e-06,0
98.433,1.4939e-05,0
98.434,3.2059e-05,0
98.434,4.1794e-05,0
98.435,4.8508e-05,0
98.435,5.7572e-05,0
98.436,6.4118e-05,0
98.436,5.623e-05,0
98.437,3.1724e-05,0
98.437,8.5603e-06,0
98.438,2.3499e-06,0
98.438,2.2995e-05,0
98.439,6.6133e-05,0
98.439,0.00011464,0
98.44,0.00014401,0
98.44,0.00013881,0
98.441,0.00011078,0
98.441,7.8721e-05,0
98.442,5.1865e-05,0
98.443,2.5849e-05,0
98.443,6.5461e-06,0
98.444,-2.3499e-06,0
98.444,-1.2253e-05,0
98.445,-2.2324e-05,0
98.445,-2.417e-05,0
98.446,-1.7792e-05,0
98.446,-2.8534e-06,0
98.447,1.2253e-05,0
98.447,1.9135e-05,0
98.448,1.0575e-05,0
98.448,-1.8967e-05,0
98.449,-5.5894e-05,0
98.449,-8.275e-05,0
98.45,-9.4331e-05,0
98.45,-0.00010239,0
98.451,-0.00011061,0
98.451,-0.00011162,0
98.452,-9.8192e-05,0
98.452,-6.865e-05,0
98.453,-3.9612e-05,0
98.453,-4.1123e-05,0
98.454,-6.0258e-05,0
98.454,-5.9251e-05,0
98.455,-4.5487e-05,0
98.456,-3.5416e-05,0
98.456,-3.2395e-05,0
98.457,-3.9109e-05,0
98.457,-4.6662e-05,0
98.458,-4.5151e-05,0
98.458,-3.4241e-05,0
98.459,-3.0213e-05,0
98.459,-4.3137e-05,0
98.46,-5.8747e-05,0
98.46,-5.4215e-05,0
98.461,-2.2995e-05,0
98.461,1.4435e-05,0
98.462,3.743e-05,0
98.462,5.5894e-05,0
98.463,7.7714e-05,0
98.463,8.2414e-05,0
98.464,5.3376e-05,0
98.464,7.8889e-06,0
98.465,-2.7024e-05,0
98.465,-5.069e-05,0
98.466,-6.9993e-05,0
98.466,-9.1478e-05,0
98.467,-0.00010591,0
98.467,-8.9967e-05,0
98.468,-3.7934e-05,0
98.468,3.6927e-05,0
98.469,0.00011867,0
98.47,0.00018413,0
98.47,0.00021535,0
98.471,0.00020998,0
98.471,0.00019168,0
98.472,0.00018279,0
98.472,0.00017977,0
98.473,0.00017708,0
98.473,0.00017003,0
98.474,0.00015929,0
98.474,0.00015492,0
98.475,0.00014955,0
98.475,0.00012941,0
98.476,0.00010222,0
98.476,7.9393e-05,0
98.477,6.4286e-05,0
98.477,5.5222e-05,0
98.478,4.1794e-05,0
98.478,1.8967e-05,0
98.479,-1.3428e-06,0
98.479,-3.0213e-06,0
98.48,1.1582e-05,0
98.48,2.652e-05,0
98.481,3.6088e-05,0
98.481,4.1123e-05,0
98.482,3.6759e-05,0
98.483,2.1988e-05,0
98.483,4.5319e-06,0
98.484,3.357e-07,0
98.484,1.9806e-05,0
98.485,4.4648e-05,0
98.485,5.8076e-05,0
98.486,5.6901e-05,0
98.486,4.683e-05,0
98.487,3.357e-05,0
98.487,1.7624e-05,0
98.488,6.8818e-06,0
98.488,1.2757e-05,0
