139.16,7.805e-05,0
139.16,1.8967e-05,0
139.16,-5.388e-05,0
139.16,-0.00010793,0
139.16,-0.00010222,0
139.16,-1.7456e-05,0
139.16,0.00011833,0
139.16,0.00025463,0
139.16,0.00033184,0
139.16,0.00032882,0
139.16,0.00027041,0
139.16,0.00018715,0
139.16,9.8527e-05,0
139.16,-3.0213e-06,0
139.17,-0.00010977,0
139.17,-0.00018178,0
139.17,-0.00018228,0
139.17,-0.0001373,0
139.17,-0.00010809,0
139.17,-0.00011968,0
139.17,-0.00014401,0
139.17,-0.00014771,0
139.17,-0.00013462,0
139.17,-0.00012723,0
139.17,-0.00013109,0
139.17,-0.0001368,0
139.17,-0.0001326,0
139.17,-0.0001284,0
139.17,-0.00012975,0
139.17,-0.00012773,0
139.17,-0.00012387,0
139.17,-0.00012018,0
139.17,-0.00010692,0
139.18,-7.8889e-05,0
139.18,-4.7837e-05,0
139.18,-3.2563e-05,0
139.18,-2.6688e-05,0
139.18,1.4435e-05,0
139.18,0.00010138,0
139.18,0.00019857,0
139.18,0.00027712,0
139.18,0.00033066,0
139.18,0.00035802,0
139.18,0.00037246,0
139.18,0.00038924,0
139.18,0.00038857,0
139.18,0.00034963,0
139.18,0.0002788,0
139.18,0.00020259,0
139.18,0.00013512,0
139.18,7.3686e-05,0
139.18,1.4939e-05,0
139.19,-2.8031e-05,0
139.19,-2.2324e-05,0
139.19,3.8102e-05,0
139.19,9.4163e-05,0
139.19,0.00010121,0
139.19,6.6972e-05,0
139.19,-1.0071e-06,0
139.19,-9.4667e-05,0
139.19,-0.00018497,0
139.19,-0.00024808,0
139.19,-0.00028031,0
139.19,-0.00027947,0
139.19,-0.00024254,0
139.19,-0.00018178,0
139.19,-0.00011464,0
139.19,-5.1194e-05,0
139.19,5.8747e-06,0
139.19,5.3208e-05,0
139.19,0.00010457,0
139.19,0.00017104,0
139.2,0.00022341,0
139.2,0.00023616,0
139.2,0.00022878,0
139.2,0.00021971,0
139.2,0.00020511,0
139.2,0.00020058,0
139.2,0.00025026,0
139.2,0.00031539,0
139.2,0.00033285,0
139.2,0.00031673,0
139.2,0.00031522,0
139.2,0.00033201,0
139.2,0.00031019,0
139.2,0.00022139,0
139.2,0.00010289,0
139.2,3.0213e-06,0
139.2,-7.3014e-05,0
139.2,-0.00014871,0
139.2,-0.00022928,0
139.21,-0.00028064,0
139.21,-0.0002929,0
139.21,-0.00029625,0
139.21,-0.00031556,0
139.21,-0.00035198,0
139.21,-0.00039059,0
139.21,-0.00042197,0
139.21,-0.00045588,0
139.21,-0.00048743,0
139.21,-0.00049146,0
139.21,-0.00045336,0
139.21,-0.00038035,0
139.21,-0.00028484,0
139.21,-0.00018279,0
139.21,-8.5267e-05,0
139.21,1.0071e-06,0
139.21,5.623e-05,0
139.21,7.4189e-05,0
139.21,7.5029e-05,0
139.22,8.2414e-05,0
139.22,0.00011934,0
139.22,0.00019454,0
139.22,0.00027645,0
139.22,0.00032412,0
139.22,0.00032747,0
139.22,0.00030196,0
139.22,0.00027813,0
139.22,0.00028316,0
139.22,0.00032345,0
139.22,0.00034896,0
139.22,0.0003127,0
139.22,0.00022861,0
139.22,0.00014267,0
139.22,8.1407e-05,0
139.22,2.4674e-05,0
139.22,-3.592e-05,0
139.22,-9.4499e-05,0
139.22,-0.00014166,0
139.22,-0.00015258,0
139.23,-0.00013109,0
139.23,-9.8863e-05,0
139.23,-6.4622e-05,0
139.23,-3.9109e-05,0
139.23,-2.182e-05,0
139.23,1.9638e-05,0
139.23,0.00010574,0
139.23,0.00022274,0
139.23,0.00032261,0
139.23,0.00036172,0
139.23,0.00033654,0
139.23,0.00028434,0
139.23,0.00025161,0
139.23,0.00023717,0
139.23,0.00020327,0
139.23,0.0001279,0
139.23,4.7501e-05,0
139.23,-6.714e-07,0
139.23,-2.4674e-05,0
139.24,-4.3977e-05,0
139.24,-5.9083e-05,0
139.24,-7.3518e-05,0
139.24,-8.1071e-05,0
139.24,-8.51e-05,0
139.24,-9.8695e-05,0
139.24,-0.00012488,0
139.24,-0.00014737,0
139.24,-0.00014838,0
139.24,-0.00012555,0
139.24,-8.8624e-05,0
139.24,-4.6998e-05,0
139.24,-1.1414e-05,0
139.24,-3.5248e-06,0
139.24,-4.7333e-05,0
139.24,-0.00012253,0
139.24,-0.00017977,0
139.24,-0.00020159,0
139.24,-0.00019051,0
139.25,-0.00016835,0
139.25,-0.00016063,0
139.25,-0.00015325,0
139.25,-0.0001331,0
139.25,-0.00012908,0
139.25,-0.00014485,0
139.25,-0.00013797,0
139.25,-0.00011263,0
139.25,-0.00011028,0
139.25,-0.00012001,0
139.25,-9.9535e-05,0
139.25,-5.0187e-05,0
139.25,-8.3925e-06,0
139.25,1.0575e-05,0
139.25,2.8367e-05,0
139.25,3.9109e-05,0
139.25,2.5681e-05,0
139.25,7.2175e-06,0
139.25,-1.2253e-05,0
139.26,-4.0452e-05,0
139.26,-6.2272e-05,0
139.26,-4.5487e-05,0
139.26,1.3428e-06,0
139.26,4.5151e-05,0
139.26,0.00010004,0
139.26,0.00020511,0
139.26,0.00033419,0
139.26,0.00040267,0
139.26,0.00037514,0
139.26,0.00028685,0
139.26,0.00020024,0
139.26,0.00015006,0
139.26,0.00012874,0
139.26,0.00011498,0
139.26,9.2485e-05,0
139.26,6.5965e-05,0
139.26,5.1194e-05,0
139.26,5.304e-05,0
139.26,5.9922e-05,0
139.27,5.6565e-05,0
139.27,6.1601e-05,0
139.27,0.00011229,0
139.27,0.00019118,0
139.27,0.00025127,0
139.27,0.0002751,0
139.27,0.00028719,0
139.27,0.00029995,0
139.27,0.00030263,0
139.27,0.00027645,0
139.27,0.00023449,0
139.27,0.00020562,0
139.27,0.00016768,0
139.27,0.00011028,0
139.27,7.1504e-05,0
139.27,4.4144e-05,0
139.27,-7.5532e-06,0
139.27,-7.5364e-05,0
139.27,-0.00014183,0
139.28,-0.00019219,0
139.28,-0.00019924,0
139.28,-0.00016936,0
139.28,-0.00012908,0
139.28,-0.00010642,0
139.28,-0.0001227,0
139.28,-0.00015895,0
139.28,-0.00018682,0
139.28,-0.00022878,0
139.28,-0.00028652,0
139.28,-0.00032294,0
139.28,-0.00033754,0
139.28,-0.00035198,0
139.28,-0.00037346,0
139.28,-0.00039394,0
139.28,-0.00040821,0
139.28,-0.00040368,0
139.28,-0.00036977,0
139.28,-0.00029961,0
139.29,-0.00018379,0
139.29,-6.9154e-05,0
139.29,-1.0239e-05,0
139.29,4.8676e-06,0
139.29,1.5946e-05,0
139.29,4.9516e-05,0
139.29,0.00012656,0
139.29,0.00023784,0
139.29,0.00033822,0
139.29,0.00039495,0
139.29,0.00041039,0
139.29,0.00039461,0
139.29,0.00034224,0
139.29,0.00025295,0
139.29,0.0001556,0
139.29,0.00010121,0
139.29,0.00013008,0
139.29,0.00022139,0
139.29,0.00029592,0
139.3,0.000307,0
139.3,0.0002882,0
139.3,0.0002741,0
139.3,0.00024959,0
139.3,0.00020528,0
139.3,0.00013411,0
139.3,4.1794e-05,0
139.3,-3.8773e-05,0
139.3,-9.5842e-05,0
139.3,-0.00013948,0
139.3,-0.00017675,0
139.3,-0.00020444,0
139.3,-0.00020696,0
139.3,-0.00018111,0
139.3,-0.0001331,0
139.3,-6.9322e-05,0
139.3,-8.7282e-06,0
139.3,3.5248e-05,0
139.3,8.5603e-05,0
139.3,0.00015207,0
139.31,0.00020159,0
139.31,0.00023717,0
139.31,0.00030129,0
139.31,0.00036407,0
139.31,0.00037279,0
139.31,0.00031472,0
139.31,0.00020713,0
139.31,8.9632e-05,0
139.31,-4.1962e-06,0
139.31,-7.2679e-05,0
139.31,-0.00013529,0
139.31,-0.00018279,0
139.31,-0.00018531,0
139.31,-0.00014485,0
139.31,-9.2317e-05,0
139.31,-5.8579e-05,0
139.31,-4.5655e-05,0
139.31,-2.9038e-05,0
139.31,-1.8463e-06,0
139.32,6.5461e-06,0
139.32,-1.3931e-05,0
139.32,-3.4577e-05,0
139.32,-3.9445e-05,0
139.32,-3.7766e-05,0
139.32,-5.069e-05,0
139.32,-5.9251e-05,0
139.32,-3.2059e-05,0
139.32,1.9303e-05,0
139.32,5.6733e-05,0
139.32,5.6733e-05,0
139.32,5.4215e-05,0
139.32,0.00010021,0
139.32,0.00015895,0
139.32,0.00016835,0
139.32,0.00011196,0
139.32,2.5177e-06,0
139.32,-0.00013075,0
139.32,-0.0002511,0
139.33,-0.00033536,0
139.33,-0.00036037,0
139.33,-0.00029978,0
139.33,-0.00017473,0
139.33,-4.6159e-05,0
139.33,5.2033e-05,0
139.33,9.8527e-05,0
139.33,0.00010256,0
139.33,9.5506e-05,0
139.33,8.1575e-05,0
139.33,6.3111e-05,0
139.33,5.8244e-05,0
139.33,6.63e-05,0
139.33,6.9322e-05,0
139.33,9.0303e-05,0
139.33,0.00014653,0
139.33,0.00018245,0
139.33,0.00016365,0
139.33,0.00011397,0
139.34,4.2802e-05,0
139.34,-5.069e-05,0
139.34,-0.0001331,0
139.34,-0.00016802,0
139.34,-0.00015476,0
139.34,-0.00012035,0
139.34,-9.6849e-05,0
139.34,-9.6178e-05,0
139.34,-0.00010742,0
139.34,-0.00011128,0
139.34,-9.0639e-05,0
139.34,-4.5823e-05,0
139.34,6.5461e-06,0
139.34,5.6565e-05,0
139.34,0.00010054,0
139.34,0.00014485,0
139.34,0.00017977,0
139.34,0.00019454,0
139.34,0.00018514,0
139.34,0.00014385,0
139.35,8.9799e-05,0
139.35,5.9251e-05,0
139.35,5.7572e-05,0
139.35,5.6565e-05,0
139.35,4.0452e-05,0
139.35,3.2731e-05,0
139.35,4.8844e-05,0
139.35,6.2943e-05,0
139.35,6.2272e-05,0
139.35,5.7237e-05,0
139.35,6.5293e-05,0
139.35,9.6178e-05,0
139.35,0.00013344,0
139.35,0.00016063,0
139.35,0.000166,0
139.35,0.00015526,0
139.35,0.00014754,0
139.35,0.00013931,0
139.35,0.00012673,0
139.36,0.00012236,0
139.36,0.00016197,0
139.36,0.00026638,0
139.36,0.00036709,0
139.36,0.00040267,0
139.36,0.0003832,0
139.36,0.00033553,0
139.36,0.00028585,0
139.36,0.00022911,0
139.36,0.00013277,0
139.36,1.0407e-05,0
139.36,-5.8076e-05,0
139.36,-6.6972e-05,0
139.36,-7.9057e-05,0
139.36,-0.00011481,0
139.36,-0.0001514,0
139.36,-0.00018027,0
139.36,-0.00019185,0
139.36,-0.00019353,0
139.37,-0.00022055,0
139.37,-0.00027276,0
139.37,-0.00031455,0
139.37,-0.00034862,0
139.37,-0.00040871,0
139.37,-0.00046561,0
139.37,-0.00044279,0
139.37,-0.00035886,0
139.37,-0.0002939,0
139.37,-0.00026336,0
139.37,-0.0002459,0
139.37,-0.00024489,0
139.37,-0.00025177,0
139.37,-0.0002506,0
139.37,-0.00024724,0
139.37,-0.00022643,0
139.37,-0.00016349,0
139.37,-9.6345e-05,0
139.37,-5.3544e-05,0
139.38,-1.091e-05,0
139.38,4.8508e-05,0
139.38,0.00010927,0
139.38,0.00016466,0
139.38,0.00021585,0
139.38,0.00023146,0
139.38,0.00019454,0
139.38,0.00013445,0
139.38,9.2485e-05,0
139.38,7.6875e-05,0
139.38,5.5222e-05,0
139.38,7.5532e-06,0
139.38,-4.6326e-05,0
139.38,-7.4189e-05,0
139.38,-7.4022e-05,0
139.38,-7.1168e-05,0
139.38,-7.5532e-05,0
139.38,-8.6107e-05,0
139.38,-8.9464e-05,0
139.38,-6.3279e-05,0
139.39,-5.8747e-06,0
139.39,6.0761e-05,0
139.39,0.00012975,0
139.39,0.00019319,0
139.39,0.00022945,0
139.39,0.00023549,0
139.39,0.00022777,0
139.39,0.00021384,0
139.39,0.00019773,0
139.39,0.000189,0
139.39,0.00020394,0
139.39,0.00026101,0
139.39,0.00034627,0
139.39,0.00041073,0
139.39,0.00042885,0
139.39,0.00041878,0
139.39,0.00040871,0
139.39,0.0004161,0
139.39,0.0004255,0
139.4,0.00039461,0
139.4,0.00032126,0
139.4,0.0002412,0
139.4,0.0001519,0
139.4,4.918e-05,0
139.4,-4.5655e-05,0
139.4,-0.00010524,0
139.4,-0.00012992,0
139.4,-0.00013696,0
139.4,-0.00013109,0
139.4,-0.00012203,0
139.4,-0.00012605,0
139.4,-0.00015795,0
139.4,-0.00020696,0
139.4,-0.0002407,0
139.4,-0.00023214,0
139.4,-0.00016466,0
139.4,-3.2731e-05,0
139.4,0.00011363,0
139.41,0.0001942,0
139.41,0.00019857,0
139.41,0.00015962,0
139.41,0.00010558,0
139.41,4.9516e-05,0
139.41,-4.3641e-06,0
139.41,-4.6494e-05,0
139.41,-7.4022e-05,0
139.41,-8.9967e-05,0
139.41,-0.00010658,0
139.41,-0.00013176,0
139.41,-0.00017221,0
139.41,-0.00021585,0
139.41,-0.00022542,0
139.41,-0.00019571,0
139.41,-0.00016013,0
139.41,-0.00013999,0
139.41,-0.0001284,0
139.41,-0.00011162,0
139.41,-9.1646e-05,0
139.42,-7.8721e-05,0
139.42,-6.7643e-05,0
139.42,-3.7766e-05,0
139.42,2.7695e-05,0
139.42,0.00010373,0
139.42,0.00016114,0
139.42,0.00020897,0
139.42,0.0002506,0
139.42,0.00028988,0
139.42,0.00033519,0
139.42,0.00036037,0
139.42,0.00034493,0
139.42,0.00028081,0
139.42,0.00019387,0
139.42,0.00011582,0
139.42,6.3783e-05,0
139.42,2.4842e-05,0
139.42,-8.5603e-06,0
139.42,-4.1962e-05,0
139.43,-8.426e-05,0
139.43,-0.00012337,0
139.43,-0.00013126,0
139.43,-0.00012203,0
139.43,-0.00012505,0
139.43,-0.00015023,0
139.43,-0.00019017,0
139.43,-0.00022106,0
139.43,-0.00023532,0
139.43,-0.00024691,0
139.43,-0.00025949,0
139.43,-0.00025748,0
139.43,-0.00023398,0
139.43,-0.00020327,0
139.43,-0.00016886,0
139.43,-0.00011095,0
139.43,-3.9277e-05,0
139.43,7.5532e-06,0
139.43,2.8031e-05,0
139.44,5.8747e-05,0
139.44,0.00011733,0
139.44,0.00017238,0
139.44,0.00018833,0
139.44,0.00017037,0
139.44,0.00015224,0
139.44,0.00013814,0
139.44,0.00011649,0
139.44,8.6778e-05,0
139.44,3.4241e-05,0
139.44,-2.1653e-05,0
139.44,-3.7766e-05,0
139.44,-5.539e-06,0
139.44,5.2201e-05,0
139.44,0.00011263,0
139.44,0.00018312,0
139.44,0.0002647,0
139.44,0.00032076,0
139.44,0.00032311,0
139.45,0.00027846,0
139.45,0.00020562,0
139.45,0.00013411,0
139.45,5.9251e-05,0
139.45,-3.0381e-05,0
139.45,-0.00011363,0
139.45,-0.00017758,0
139.45,-0.00021804,0
139.45,-0.00023566,0
139.45,-0.0002501,0
139.45,-0.0002929,0
139.45,-0.00033066,0
139.45,-0.00031019,0
139.45,-0.00025765,0
139.45,-0.00021669,0
139.45,-0.00018833,0
139.45,-0.00015274,0
139.45,-0.00010491,0
139.45,-4.9012e-05,0
139.46,1.5274e-05,0
139.46,7.9728e-05,0
139.46,0.00013545,0
139.46,0.00019454,0
139.46,0.00025328,0
139.46,0.00028249,0
139.46,0.00026973,0
139.46,0.00024523,0
139.46,0.00023549,0
139.46,0.00023868,0
139.46,0.00024388,0
139.46,0.00023734,0
139.46,0.00020797,0
139.46,0.00017037,0
139.46,0.00013545,0
139.46,9.3828e-05,0
139.46,5.7404e-05,0
139.46,3.5416e-05,0
139.46,2.3835e-05,0
139.46,1.326e-05,0
139.47,3.6927e-06,0
139.47,1.1246e-05,0
139.47,4.213e-05,0
139.47,7.5029e-05,0
139.47,9.4331e-05,0
139.47,0.00011263,0
139.47,0.00013478,0
139.47,0.00014653,0
139.47,0.0001368,0
139.47,0.00010591,0
139.47,7.1839e-05,0
139.47,4.1962e-05,0
139.47,7.5532e-06,0
139.47,-2.8031e-05,0
139.47,-4.918e-05,0
139.47,-5.4215e-05,0
139.47,-5.7908e-05,0
139.47,-5.9754e-05,0
139.47,-5.5222e-05,0
139.48,-4.6494e-05,0
139.48,-2.1653e-05,0
139.48,3.743e-05,0
139.48,0.00012857,0
139.48,0.00021921,0
139.48,0.00027108,0
139.48,0.00026235,0
139.48,0.00020729,0
139.48,0.00014066,0
139.48,7.6875e-05,0
139.48,1.9135e-05,0
139.48,-2.4338e-05,0
139.48,-6.3279e-05,0
139.48,-0.00010222,0
139.48,-0.00013008,0
139.48,-0.00014905,0
139.48,-0.00016466,0
139.48,-0.00016164,0
139.48,-0.00011615,0
139.49,-5.2537e-05,0
139.49,-7.8889e-06,0
139.49,3.1388e-05,0
139.49,7.0161e-05,0
139.49,0.00010172,0
139.49,0.00012203,0
139.49,0.00011128,0
139.49,6.7979e-05,0
139.49,2.266e-05,0
139.49,-2.031e-05,0
139.49,-8.0064e-05,0
139.49,-0.00014855,0
139.49,-0.0002083,0
139.49,-0.00025631,0
139.49,-0.00030398,0
139.49,-0.00035467,0
139.49,-0.00036709,0
139.49,-0.00031405,0
139.49,-0.0002229,0
139.5,-0.00011733,0
139.5,7.5532e-06,0
139.5,0.0001425,0
139.5,0.00025345,0
139.5,0.0003211,0
139.5,0.00033989,0
139.5,0.0003258,0
139.5,0.00028971,0
139.5,0.00022945,0
139.5,0.0001415,0
139.5,6.0426e-05,0
139.5,2.3667e-05,0
139.5,1.7624e-05,0
139.5,5.2033e-06,0
139.5,-2.1988e-05,0
139.5,-4.8005e-05,0
139.5,-6.4286e-05,0
139.5,-8.5435e-05,0
139.5,-0.00010759,0
139.5,-9.6345e-05,0
139.51,-4.0116e-05,0
139.51,1.9638e-05,0
139.51,3.2898e-05,0
139.51,-5.8747e-06,0
139.51,-4.8844e-05,0
139.51,-5.774e-05,0
139.51,-4.0452e-05,0
139.51,-2.8031e-05,0
139.51,-3.5248e-05,0
139.51,-6.3951e-05,0
139.51,-0.00012555,0
139.51,-0.00020847,0
139.51,-0.00028467,0
139.51,-0.00032949,0
139.51,-0.00032781,0
139.51,-0.00029525,0
139.51,-0.00024422,0
139.51,-0.00016902,0
139.51,-7.4022e-05,0
139.52,3.1724e-05,0
139.52,0.00014435,0
139.52,0.00026336,0
139.52,0.00037481,0
139.52,0.00043993,0
139.52,0.00043725,0
139.52,0.00038488,0
139.52,0.00030968,0
139.52,0.00022878,0
139.52,0.00015207,0
139.52,7.1336e-05,0
139.52,-1.3596e-05,0
139.52,-7.1336e-05,0
139.52,-8.6778e-05,0
139.52,-8.0064e-05,0
139.52,-8.6442e-05,0
139.52,-0.00012522,0
139.52,-0.0001603,0
139.52,-0.00013982,0
139.53,-8.3421e-05,0
139.53,-4.6159e-05,0
139.53,-3.0213e-05,0
139.53,-1.8967e-05,0
139.53,-1.4267e-05,0
139.53,-9.0639e-06,0
139.53,2.7192e-05,0
139.53,8.896e-05,0
139.53,0.00015358,0
139.53,0.00021183,0
139.53,0.00024187,0
139.53,0.00022777,0
139.53,0.00019051,0
139.53,0.00014603,0
139.53,9.3156e-05,0
139.53,4.448e-05,0
139.53,2.1988e-05,0
139.53,1.561e-05,0
139.53,-1.2421e-05,0
139.53,-6.5629e-05,0
139.54,-0.00011447,0
139.54,-0.00012874,0
139.54,-0.00010726,0
139.54,-6.244e-05,0
139.54,9.5674e-06,0
139.54,9.4499e-05,0
139.54,0.0001566,0
139.54,0.00018027,0
139.54,0.0001801,0
139.54,0.00017037,0
139.54,0.00014653,0
139.54,0.00010574,0
139.54,6.63e-05,0
139.54,4.8676e-05,0
139.54,4.9516e-05,0
139.54,5.0187e-05,0
139.54,4.3809e-05,0
139.54,3.5416e-05,0
139.54,3.0045e-05,0
139.55,2.9877e-05,0
139.55,3.0213e-05,0
139.55,2.8534e-05,0
139.55,3.2395e-05,0
139.55,4.6998e-05,0
139.55,7.3686e-05,0
139.55,0.00011632,0
139.55,0.00015962,0
139.55,0.00018514,0
139.55,0.00018581,0
139.55,0.00017406,0
139.55,0.00015895,0
139.55,0.00012908,0
139.55,9.6513e-05,0
139.55,8.1575e-05,0
139.55,8.3421e-05,0
139.55,8.4764e-05,0
139.55,8.9296e-05,0
139.55,9.5506e-05,0
139.56,8.04e-05,0
139.56,4.448e-05,0
139.56,-1.5106e-06,0
139.56,-6.0258e-05,0
139.56,-0.00010356,0
139.56,-0.00010289,0
139.56,-7.6036e-05,0
139.56,-3.7766e-05,0
139.56,-8.3925e-07,0
139.56,2.9374e-05,0
139.56,5.8915e-05,0
139.56,7.57e-05,0
139.56,5.8915e-05,0
139.56,1.6617e-05,0
139.56,-2.8031e-05,0
139.56,-6.1097e-05,0
139.56,-7.9393e-05,0
139.56,-8.2414e-05,0
139.56,-8.3925e-05,0
139.57,-0.00010692,0
139.57,-0.00013646,0
139.57,-0.00014653,0
139.57,-0.0001279,0
139.57,-9.1478e-05,0
139.57,-5.623e-05,0
139.57,-2.6688e-05,0
139.57,-7.7211e-06,0
139.57,-7.8889e-06,0
139.57,-1.9303e-05,0
139.57,-2.7024e-05,0
139.57,-1.9974e-05,0
139.57,9.0639e-06,0
139.57,5.2369e-05,0
139.57,0.00010256,0
139.57,0.00016097,0
139.57,0.00023012,0
139.57,0.00027108,0
139.57,0.00024623,0
139.57,0.00018178,0
139.58,9.6513e-05,0
139.58,-1.1414e-05,0
139.58,-0.00012589,0
139.58,-0.00023381,0
139.58,-0.00032647,0
139.58,-0.00037699,0
139.58,-0.00037598,0
139.58,-0.00034292,0
139.58,-0.0002845,0
139.58,-0.00020696,0
139.58,-0.00012035,0
139.58,-2.4842e-05,0
139.58,8.3253e-05,0
139.58,0.00017507,0
139.58,0.00021938,0
139.58,0.00021468,0
139.58,0.00017574,0
139.58,0.00012538,0
139.58,7.9728e-05,0
139.59,2.4842e-05,0
139.59,-4.3977e-05,0
139.59,-9.6849e-05,0
139.59,-0.00011565,0
139.59,-0.00012757,0
139.59,-0.00016197,0
139.59,-0.0001937,0
139.59,-0.00018782,0
139.59,-0.0001415,0
139.59,-6.0594e-05,0
139.59,2.9206e-05,0
139.59,7.4693e-05,0
139.59,6.1265e-05,0
139.59,3.508e-05,0
139.59,2.9206e-05,0
139.59,2.9541e-05,0
139.59,2.6688e-05,0
139.59,1.9974e-05,0
139.59,1.0239e-05,0
139.6,0,0
139.6,1.0071e-06,0
139.6,1.9974e-05,0
139.6,4.8173e-05,0
139.6,6.9657e-05,0
139.6,7.805e-05,0
139.6,8.4764e-05,0
139.6,9.4835e-05,0
139.6,9.7856e-05,0
139.6,8.6946e-05,0
139.6,7.1e-05,0
139.6,6.5629e-05,0
139.6,7.0832e-05,0
139.6,8.2246e-05,0
139.6,0.00010021,0
139.6,0.00011984,0
139.6,0.00013713,0
139.6,0.00014821,0
139.6,0.0001556,0
139.61,0.00016869,0
139.61,0.00020696,0
139.61,0.00026973,0
139.61,0.0003211,0
139.61,0.00032747,0
139.61,0.0003023,0
139.61,0.00026839,0
139.61,0.00024691,0
139.61,0.0002459,0
139.61,0.00025161,0
139.61,0.00024691,0
139.61,0.00022055,0
139.61,0.00018178,0
139.61,0.00014133,0
139.61,9.3828e-05,0
139.61,3.2731e-05,0
139.61,-4.7837e-05,0
139.61,-0.00012505,0
139.61,-0.00016902,0
139.61,-0.00019185,0
139.62,-0.00021199,0
139.62,-0.00022542,0
139.62,-0.00022828,0
139.62,-0.00022878,0
139.62,-0.00022576,0
139.62,-0.00020494,0
139.62,-0.00016936,0
139.62,-0.00013294,0
139.62,-9.4163e-05,0
139.62,-4.7837e-05,0
139.62,1.9974e-05,0
139.62,0.00010105,0
139.62,0.00017003,0
139.62,0.00022441,0
139.62,0.00027376,0
139.62,0.00030834,0
139.62,0.00030733,0
139.62,0.00025093,0
139.62,0.00013075,0
139.63,-3.4409e-05,0
139.63,-0.00018379,0
139.63,-0.00028031,0
139.63,-0.0003305,0
139.63,-0.0003545,0
139.63,-0.00036306,0
139.63,-0.00034745,0
139.63,-0.00029894,0
139.63,-0.00021837,0
139.63,-0.00011447,0
139.63,1.5946e-05,0
139.63,0.00015392,0
139.63,0.00025547,0
139.63,0.00028148,0
139.63,0.00023818,0
139.63,0.00017557,0
139.63,0.00013109,0
139.63,0.00010625,0
139.63,8.6107e-05,0
139.64,6.7643e-05,0
139.64,5.623e-05,0
139.64,4.213e-05,0
139.64,7.8889e-06,0
139.64,-2.9709e-05,0
139.64,-6.6972e-05,0
139.64,-0.00011615,0
139.64,-0.00015962,0
139.64,-0.00018094,0
139.64,-0.00017473,0
139.64,-0.00015006,0
139.64,-0.00012706,0
139.64,-0.00010692,0
139.64,-8.6107e-05,0
139.64,-8.7114e-05,0
139.64,-0.00012136,0
139.64,-0.00015392,0
139.64,-0.00014788,0
139.64,-0.00011044,0
139.65,-6.8315e-05,0
139.65,-4.062e-05,0
139.65,-2.6017e-05,0
139.65,-8.5603e-06,0
139.65,1.1917e-05,0
139.65,3.1556e-05,0
139.65,5.0187e-05,0
139.65,6.4286e-05,0
139.65,8.2246e-05,0
139.65,0.00011514,0
139.65,0.00014888,0
139.65,0.00017507,0
139.65,0.00017792,0
139.65,0.0001425,0
139.65,8.8289e-05,0
139.65,4.4648e-05,0
139.65,2.2995e-05,0
139.65,1.6449e-05,0
139.65,1.8296e-05,0
139.65,3.9109e-05,0
139.66,7.6036e-05,0
139.66,0.00010726,0
139.66,0.00012001,0
139.66,0.00012035,0
139.66,0.00011363,0
139.66,9.8192e-05,0
139.66,6.9154e-05,0
139.66,3.8773e-05,0
139.66,3.1724e-05,0
139.66,6.0929e-05,0
139.66,0.00011397,0
139.66,0.00016231,0
139.66,0.00019236,0
139.66,0.00020662,0
139.66,0.00020595,0
139.66,0.00020092,0
139.66,0.00020159,0
139.66,0.00020125,0
139.66,0.00018984,0
139.67,0.00016432,0
139.67,0.00013529,0
139.67,0.00010323,0
139.67,5.8244e-05,0
139.67,2.3499e-06,0
139.67,-4.9851e-05,0
139.67,-8.51e-05,0
139.67,-0.00010524,0
139.67,-0.00012001,0
139.67,-0.00013092,0
139.67,-0.00013327,0
139.67,-0.00012119,0
139.67,-0.00010188,0
139.67,-8.4092e-05,0
139.67,-7.6371e-05,0
139.67,-8.4764e-05,0
139.67,-9.4835e-05,0
139.67,-9.5506e-05,0
139.67,-8.6442e-05,0
139.68,-6.1097e-05,0
139.68,-2.2995e-05,0
139.68,9.7353e-06,0
139.68,4.2802e-05,0
139.68,9.1142e-05,0
139.68,0.00015409,0
139.68,0.00021535,0
139.68,0.00025597,0
139.68,0.00026772,0
139.68,0.00025832,0
139.68,0.00023398,0
139.68,0.00019487,0
139.68,0.0001462,0
139.68,8.6778e-05,0
139.68,2.5345e-05,0
139.68,-1.2253e-05,0
139.68,-1.5778e-05,0
139.68,-6.8818e-06,0
139.68,-1.5778e-05,0
139.69,-3.7766e-05,0
139.69,-4.1794e-05,0
139.69,-1.0071e-06,0
139.69,6.2776e-05,0
139.69,0.00011481,0
139.69,0.00015224,0
139.69,0.00018698,0
139.69,0.00022777,0
139.69,0.00026889,0
139.69,0.00027645,0
139.69,0.00021535,0
139.69,9.9199e-05,0
139.69,-2.7192e-05,0
139.69,-0.00013848,0
139.69,-0.00023281,0
139.69,-0.00030767,0
139.69,-0.00036088,0
139.69,-0.00040771,0
139.69,-0.00045235,0
139.69,-0.00047082,0
139.7,-0.00046192,0
139.7,-0.00043876,0
139.7,-0.00040485,0
139.7,-0.00035349,0
139.7,-0.00029306,0
139.7,-0.00024036,0
139.7,-0.00019487,0
139.7,-0.00012572,0
139.7,-4.062e-05,0
139.7,1.6281e-05,0
139.7,3.7095e-05,0
139.7,4.4144e-05,0
139.7,5.2201e-05,0
139.7,5.8412e-05,0
139.7,5.8915e-05,0
139.7,5.388e-05,0
139.7,5.5894e-05,0
139.7,6.949e-05,0
139.7,7.57e-05,0
139.71,7.2847e-05,0
139.71,7.2679e-05,0
139.71,7.6036e-05,0
139.71,8.7114e-05,0
139.71,0.00011028,0
139.71,0.00013277,0
139.71,0.00013948,0
139.71,0.00013277,0
139.71,0.0001227,0
139.71,0.00011196,0
139.71,0.00010105,0
139.71,0.00010457,0
139.71,0.00012068,0
139.71,0.00013344,0
139.71,0.00013075,0
139.71,0.00011363,0
139.71,9.5842e-05,0
139.71,9.0806e-05,0
139.71,9.8527e-05,0
139.72,0.00011263,0
139.72,0.00012001,0
139.72,0.00011565,0
139.72,0.00010239,0
139.72,8.3757e-05,0
139.72,5.8076e-05,0
139.72,3.2563e-05,0
139.72,1.4435e-05,0
139.72,2.182e-06,0
139.72,-5.539e-06,0
139.72,-2.8534e-06,0
139.72,1.2589e-05,0
139.72,3.5752e-05,0
139.72,5.2873e-05,0
139.72,5.5726e-05,0
139.72,5.5894e-05,0
139.72,6.2943e-05,0
139.72,7.57e-05,0
139.72,8.2078e-05,0
139.72,8.0232e-05,0
139.73,7.6371e-05,0
139.73,7.1672e-05,0
139.73,6.5629e-05,0
139.73,6.1097e-05,0
139.73,6.2272e-05,0
139.73,6.6636e-05,0
139.73,6.9657e-05,0
139.73,7.57e-05,0
139.73,8.7114e-05,0
139.73,9.7856e-05,0
139.73,9.9702e-05,0
139.73,9.2485e-05,0
139.73,7.6371e-05,0
139.73,5.3208e-05,0
139.73,2.7359e-05,0
139.73,-5.0355e-07,0
139.73,-2.0981e-05,0
139.73,-1.8799e-05,0
139.73,-3.1891e-06,0
139.74,7.2175e-06,0
139.74,1.7288e-05,0
139.74,3.6088e-05,0
139.74,6.479e-05,0
139.74,9.2653e-05,0
139.74,0.00010239,0
139.74,8.5435e-05,0
139.74,5.3376e-05,0
139.74,2.0645e-05,0
139.74,-6.8818e-06,0
139.74,-2.031e-05,0
139.74,-3.6927e-06,0
139.74,2.266e-05,0
139.74,2.7863e-05,0
139.74,1.0575e-05,0
139.74,1.1749e-06,0
139.74,1.0239e-05,0
139.74,1.3931e-05,0
139.74,-2.3499e-06,0
139.75,-4.0787e-05,0
139.75,-9.1478e-05,0
139.75,-0.00013613,0
139.75,-0.000166,0
139.75,-0.00017121,0
139.75,-0.00015862,0
139.75,-0.00014922,0
139.75,-0.00014351,0
139.75,-0.00011733,0
139.75,-6.6636e-05,0
139.75,-3.0549e-05,0
139.75,-3.3738e-05,0
139.75,-5.6901e-05,0
139.75,-6.0761e-05,0
139.75,-2.501e-05,0
139.75,3.2898e-05,0
139.75,7.2847e-05,0
139.75,9.2485e-05,0
139.75,0.00011766,0
139.76,0.00015023,0
139.76,0.00018245,0
139.76,0.00020864,0
139.76,0.00020058,0
139.76,0.00014922,0
139.76,7.7379e-05,0
139.76,0,0
139.76,-7.7379e-05,0
139.76,-0.00015274,0
139.76,-0.00022408,0
139.76,-0.00028467,0
139.76,-0.00033402,0
139.76,-0.00035668,0
139.76,-0.00034392,0
139.76,-0.00030784,0
139.76,-0.00027041,0
139.76,-0.00023449,0
139.76,-0.00018883,0
139.76,-0.00013075,0
139.76,-6.2104e-05,0
139.77,1.8631e-05,0
139.77,9.2485e-05,0
139.77,0.00014754,0
139.77,0.00020461,0
139.77,0.00027242,0
139.77,0.00030834,0
139.77,0.00028652,0
139.77,0.00023667,0
139.77,0.00018497,0
139.77,0.00013277,0
139.77,8.7617e-05,0
139.77,6.5629e-05,0
139.77,6.8315e-05,0
139.77,8.3421e-05,0
139.77,9.8527e-05,0
139.77,9.9199e-05,0
139.77,8.3925e-05,0
139.77,5.623e-05,0
139.77,1.4939e-05,0
139.78,-2.4338e-05,0
139.78,-2.1988e-05,0
139.78,3.122e-05,0
139.78,9.0135e-05,0
139.78,0.00012253,0
139.78,0.00013579,0
139.78,0.00014217,0
139.78,0.00015123,0
139.78,0.00016298,0
139.78,0.0001556,0
139.78,0.0001138,0
139.78,5.4047e-05,0
139.78,2.6856e-06,0
139.78,-3.0213e-05,0
139.78,-5.2873e-05,0
139.78,-6.7979e-05,0
139.78,-7.7714e-05,0
139.78,-8.8457e-05,0
139.78,-8.9128e-05,0
139.79,-7.0665e-05,0
139.79,-4.062e-05,0
139.79,-9.5674e-06,0
139.79,1.5274e-05,0
139.79,3.0381e-05,0
139.79,4.0955e-05,0
139.79,4.8173e-05,0
139.79,5.1026e-05,0
139.79,5.1698e-05,0
139.79,5.153e-05,0
139.79,5.0187e-05,0
139.79,5.623e-05,0
139.79,7.3686e-05,0
139.79,9.2317e-05,0
139.79,0.00010105,0
139.79,9.7017e-05,0
139.79,8.8121e-05,0
139.79,8.0064e-05,0
139.79,7.0665e-05,0
139.8,5.9754e-05,0
139.8,4.918e-05,0
139.8,3.827e-05,0
139.8,2.7359e-05,0
139.8,1.9806e-05,0
139.8,2.1317e-05,0
139.8,3.5248e-05,0
139.8,5.6901e-05,0
139.8,7.6707e-05,0
139.8,8.3925e-05,0
139.8,8.5603e-05,0
139.8,9.7017e-05,0
139.8,0.00012035,0
139.8,0.00014116,0
139.8,0.00014871,0
139.8,0.00014485,0
139.8,0.00013277,0
139.8,0.00010927,0
139.8,9.6513e-05,0
139.81,0.00013848,0
139.81,0.00021871,0
139.81,0.00028988,0
139.81,0.00033335,0
139.81,0.00035013,0
139.81,0.00035937,0
139.81,0.00036373,0
139.81,0.00033671,0
139.81,0.00025446,0
139.81,0.00013898,0
139.81,2.9709e-05,0
139.81,-6.7308e-05,0
139.81,-0.0001707,0
139.81,-0.00027729,0
139.81,-0.00036994,0
139.81,-0.00043876,0
139.81,-0.00047938,0
139.81,-0.00048475,0
139.81,-0.00045487,0
139.81,-0.00041492,0
139.82,-0.0003837,0
139.82,-0.00034459,0
139.82,-0.00025396,0
139.82,-0.00012639,0
139.82,-4.1794e-05,0
139.82,-3.2563e-05,0
139.82,-6.8482e-05,0
139.82,-0.00010759,0
139.82,-0.00012975,0
139.82,-0.00013545,0
139.82,-0.00013193,0
139.82,-0.00011162,0
139.82,-6.2776e-05,0
139.82,-1.4603e-05,0
139.82,3.8605e-06,0
139.82,9.7353e-06,0
139.82,1.7624e-05,0
139.82,6.8818e-06,0
139.82,-2.652e-05,0
139.83,-5.2873e-05,0
139.83,-6.1097e-05,0
139.83,-6.0594e-05,0
139.83,-5.7572e-05,0
139.83,-5.8244e-05,0
139.83,-6.5293e-05,0
139.83,-7.2343e-05,0
139.83,-6.7979e-05,0
139.83,-4.918e-05,0
139.83,-2.0981e-05,0
139.83,4.6998e-06,0
139.83,1.9303e-05,0
139.83,2.7695e-05,0
139.83,4.2298e-05,0
139.83,6.2272e-05,0
139.83,7.7882e-05,0
139.83,8.4764e-05,0
139.83,9.1646e-05,0
139.83,0.00010558,0
139.84,0.00012236,0
139.84,0.00013982,0
139.84,0.00016349,0
139.84,0.00018917,0
139.84,0.00021602,0
139.84,0.00024623,0
139.84,0.00026302,0
139.84,0.00025832,0
139.84,0.00024472,0
139.84,0.00025026,0
139.84,0.00027863,0
139.84,0.00030834,0
139.84,0.00033285,0
139.84,0.00036172,0
139.84,0.00037514,0
139.84,0.00035433,0
139.84,0.00030867,0
139.84,0.00024221,0
139.84,0.00014536,0
139.84,5.0858e-05,0
139.85,-3.1891e-06,0
139.85,-3.2563e-05,0
139.85,-6.2943e-05,0
139.85,-0.00010507,0
139.85,-0.00015425,0
139.85,-0.00019185,0
139.85,-0.00019387,0
139.85,-0.00014821,0
139.85,-6.5629e-05,0
139.85,4.4312e-05,0
139.85,0.00014519,0
139.85,0.00019789,0
139.85,0.00020058,0
139.85,0.000165,0
139.85,9.2485e-05,0
139.85,-3.1891e-06,0
139.85,-7.0161e-05,0
139.85,-8.2414e-05,0
139.85,-7.5868e-05,0
139.86,-9.5338e-05,0
139.86,-0.00016214,0
139.86,-0.00026268,0
139.86,-0.00035937,0
139.86,-0.00041828,0
139.86,-0.00041241,0
139.86,-0.00035366,0
139.86,-0.00027729,0
139.86,-0.00020175,0
139.86,-0.00013831,0
139.86,-9.3324e-05,0
139.86,-6.7811e-05,0
139.86,-6.4622e-05,0
139.86,-7.2679e-05,0
139.86,-7.0832e-05,0
139.86,-4.8844e-05,0
139.86,-1.5946e-05,0
139.86,5.8747e-06,0
139.86,8.5603e-06,0
139.87,-2.3499e-06,0
139.87,-1.8967e-05,0
139.87,-3.2395e-05,0
139.87,-3.0213e-05,0
139.87,-1.2924e-05,0
139.87,-2.5177e-06,0
139.87,6.5461e-06,0
139.87,3.743e-05,0
139.87,9.0303e-05,0
139.87,0.00014234,0
139.87,0.00019907,0
139.87,0.00026789,0
139.87,0.000307,0
139.87,0.00029088,0
139.87,0.00023952,0
139.87,0.00018379,0
139.87,0.00014586,0
139.87,0.00013327,0
139.87,0.0001368,0
139.88,0.00013529,0
139.88,0.00013075,0
139.88,0.00013529,0
139.88,0.00014217,0
139.88,0.00014418,0
139.88,0.00013478,0
139.88,0.00011699,0
139.88,0.00010054,0
139.88,0.00010642,0
139.88,0.00014737,0
139.88,0.00020192,0
139.88,0.00022945,0
139.88,0.00021434,0
139.88,0.00017137,0
139.88,0.00012186,0
139.88,7.0832e-05,0
139.88,2.6184e-05,0
139.88,-2.3499e-06,0
139.88,-2.4674e-05,0
139.88,-6.1936e-05,0
139.89,-0.00011431,0
139.89,-0.0001608,0
139.89,-0.00019118,0
139.89,-0.00022425,0
139.89,-0.00026705,0
139.89,-0.00030632,0
139.89,-0.00031791,0
139.89,-0.00029306,0
139.89,-0.00024556,0
139.89,-0.00018967,0
139.89,-0.00013982,0
139.89,-0.00010407,0
139.89,-8.3085e-05,0
139.89,-7.1504e-05,0
139.89,-6.1601e-05,0
139.89,-4.6494e-05,0
139.89,-1.8463e-05,0
139.89,2.4338e-05,0
139.89,7.4861e-05,0
139.9,0.00012169,0
139.9,0.00015761,0
139.9,0.00018027,0
139.9,0.0001796,0
139.9,0.00015341,0
139.9,0.00013042,0
139.9,0.00012673,0
139.9,0.00013948,0
139.9,0.00016432,0
139.9,0.00019051,0
139.9,0.00019857,0
139.9,0.00018816,0
139.9,0.00017675,0
139.9,0.00017641,0
139.9,0.00017977,0
139.9,0.0001655,0
139.9,0.00012152,0
139.9,6.3783e-05,0
139.9,1.2757e-05,0
139.91,-2.9877e-05,0
139.91,-6.4118e-05,0
139.91,-8.8457e-05,0
139.91,-0.00010004,0
139.91,-9.5674e-05,0
139.91,-6.4622e-05,0
139.91,-1.2589e-05,0
139.91,3.3402e-05,0
139.91,5.4887e-05,0
139.91,5.7908e-05,0
139.91,6.4118e-05,0
139.91,8.275e-05,0
139.91,0.00010692,0
139.91,0.0001232,0
139.91,0.00012605,0
139.91,0.00012773,0
139.91,0.00012589,0
139.91,9.6513e-05,0
139.91,3.4073e-05,0
139.91,-2.8199e-05,0
139.92,-6.6972e-05,0
139.92,-8.8289e-05,0
139.92,-9.752e-05,0
139.92,-9.8863e-05,0
139.92,-9.987e-05,0
139.92,-8.9128e-05,0
139.92,-5.388e-05,0
139.92,-9.0639e-06,0
139.92,2.2324e-05,0
139.92,3.4577e-05,0
139.92,3.4745e-05,0
139.92,2.9709e-05,0
139.92,3.4409e-05,0
139.92,5.8915e-05,0
139.92,8.896e-05,0
139.92,0.00010121,0
139.92,0.00010021,0
139.92,0.00010021,0
139.92,8.7114e-05,0
139.93,4.5487e-05,0
139.93,-4.5319e-06,0
139.93,-2.7192e-05,0
139.93,-2.1317e-05,0
139.93,-4.1962e-06,0
139.93,7.8889e-06,0
139.93,2.7024e-05,0
139.93,7.9393e-05,0
139.93,0.0001556,0
139.93,0.00022055,0
139.93,0.00022593,0
139.93,0.00017255,0
139.93,0.00011061,0
139.93,7.2343e-05,0
139.93,4.683e-05,0
139.93,2.6017e-05,0
139.93,2.6352e-05,0
139.93,2.9709e-05,0
139.93,-4.6998e-06,0
139.94,-7.2343e-05,0
139.94,-0.00014771,0
139.94,-0.00021804,0
139.94,-0.00025949,0
139.94,-0.00025312,0
139.94,-0.00021569,0
139.94,-0.00019672,0
139.94,-0.00021753,0
139.94,-0.00025782,0
139.94,-0.0002741,0
139.94,-0.00025412,0
139.94,-0.00021468,0
139.94,-0.00017104,0
139.94,-0.00014301,0
139.94,-0.00013327,0
139.94,-0.00011733,0
139.94,-8.0735e-05,0
139.94,-3.2059e-05,0
139.94,6.5461e-06,0
139.95,2.8031e-05,0
139.95,4.1123e-05,0
139.95,5.2873e-05,0
139.95,5.2537e-05,0
139.95,2.6184e-05,0
139.95,-7.5532e-06,0
139.95,-2.7192e-05,0
139.95,-2.4338e-05,0
139.95,-8.7282e-06,0
139.95,3.8605e-06,0
139.95,6.714e-06,0
139.95,-5.0355e-07,0
139.95,-1.3596e-05,0
139.95,-2.417e-05,0
139.95,-1.4435e-05,0
139.95,1.9303e-05,0
139.95,5.9754e-05,0
139.95,9.1646e-05,0
139.95,0.00012001,0
139.96,0.00014989,0
139.96,0.00017137,0
139.96,0.00018447,0
139.96,0.00020528,0
139.96,0.00025077,0
139.96,0.00031136,0
139.96,0.0003644,0
139.96,0.00039025,0
139.96,0.00038656,0
139.96,0.00036004,0
139.96,0.00031069,0
139.96,0.00024388,0
139.96,0.00016298,0
139.96,7.3014e-05,0
139.96,-1.2253e-05,0
139.96,-7.6371e-05,0
139.96,-0.00011951,0
139.96,-0.00015879,0
139.96,-0.00019739,0
139.96,-0.00022676,0
139.97,-0.00023919,0
139.97,-0.00022509,0
139.97,-0.00019622,0
139.97,-0.00016735,0
139.97,-0.00013814,0
139.97,-0.00010524,0
139.97,-6.8818e-05,0
139.97,-3.2731e-05,0
139.97,-4.1962e-06,0
139.97,1.1749e-05,0
139.97,1.9806e-05,0
139.97,3.0716e-05,0
139.97,4.7333e-05,0
139.97,6.8986e-05,0
139.97,9.9535e-05,0
139.97,0.00014049,0
139.97,0.00018346,0
139.97,0.00021267,0
139.97,0.00022744,0
139.98,0.00023046,0
139.98,0.00021602,0
139.98,0.00018396,0
139.98,0.00014301,0
139.98,0.00010541,0
139.98,8.3253e-05,0
139.98,8.4764e-05,0
139.98,9.8192e-05,0
139.98,0.00010726,0
139.98,9.9031e-05,0
139.98,7.2007e-05,0
139.98,4.0787e-05,0
139.98,3.9277e-05,0
139.98,8.6107e-05,0
139.98,0.00015123,0
139.98,0.00019152,0
139.98,0.00019319,0
139.98,0.00019319,0
139.98,0.0002224,0
139.99,0.00024808,0
139.99,0.00023465,0
139.99,0.00017624,0
139.99,0.00010054,0
139.99,4.5487e-05,0
139.99,7.2175e-06,0
139.99,-4.5823e-05,0
139.99,-0.00012454,0
139.99,-0.00021367,0
139.99,-0.00029642,0
139.99,-0.00036323,0
139.99,-0.0004067,0
139.99,-0.00042449,0
139.99,-0.00040905,0
139.99,-0.0003555,0
139.99,-0.00027192,0
139.99,-0.00019789,0
139.99,-0.00015761,0
139.99,-0.00013915,0
140,-0.00011968,0
140,-8.9464e-05,0
140,-5.388e-05,0
140,-2.1653e-05,0
140,1.1078e-05,0
140,4.2466e-05,0
140,5.539e-05,0
140,4.7501e-05,0
140,2.7192e-05,0
140,-3.357e-07,0
140,-2.1988e-05,0
140,-2.4002e-05,0
140,-1.091e-05,0
140,7.8889e-06,0
140,3.2395e-05,0
140,6.0258e-05,0
140,8.3589e-05,0
140,9.2988e-05,0
140,8.7449e-05,0
140,7.6539e-05,0
140.01,6.8986e-05,0
140.01,6.3951e-05,0
140.01,5.6901e-05,0
140.01,5.4551e-05,0
140.01,5.8915e-05,0
140.01,5.8915e-05,0
140.01,5.304e-05,0
140.01,4.918e-05,0
140.01,6.4958e-05,0
140.01,0.00010658,0
140.01,0.00016181,0
140.01,0.00020427,0
140.01,0.00020763,0
140.01,0.00018648,0
140.01,0.00015962,0
140.01,0.00011968,0
140.01,7.335e-05,0
140.01,4.9012e-05,0
140.01,4.6662e-05,0
140.02,6.0594e-05,0
140.02,8.4428e-05,0
140.02,9.1478e-05,0
140.02,7.8386e-05,0
140.02,6.0258e-05,0
140.02,4.2802e-05,0
140.02,2.3331e-05,0
140.02,-8.3925e-07,0
140.02,-5.8747e-06,0
140.02,2.182e-06,0
140.02,-7.7211e-06,0
140.02,-3.9948e-05,0
140.02,-6.1936e-05,0
140.02,-5.0523e-05,0
140.02,-1.091e-05,0
140.02,3.2059e-05,0
140.02,5.9419e-05,0
140.02,6.2608e-05,0
140.02,3.508e-05,0
140.03,-2.0142e-05,0
140.03,-7.6204e-05,0
140.03,-0.00011867,0
140.03,-0.00014015,0
140.03,-0.00014049,0
140.03,-0.00013529,0
140.03,-0.00013478,0
140.03,-0.00013193,0
140.03,-0.00011833,0
140.03,-0.00010457,0
140.03,-0.00011128,0
140.03,-0.00014452,0
140.03,-0.00018329,0
140.03,-0.00019622,0
140.03,-0.00017238,0
140.03,-0.00012723,0
140.03,-7.9393e-05,0
140.03,-3.508e-05,0
140.03,1.2757e-05,0
140.03,7.8386e-05,0
140.04,0.00016432,0
140.04,0.00024691,0
140.04,0.00027947,0
140.04,0.00025093,0
140.04,0.00019353,0
140.04,0.0001472,0
140.04,0.00012169,0
140.04,0.00010843,0
140.04,0.00010239,0
140.04,9.5674e-05,0
140.04,8.0735e-05,0
140.04,5.9922e-05,0
140.04,3.9109e-05,0
140.04,2.2324e-05,0
140.04,5.7069e-06,0
140.04,-1.8967e-05,0
140.04,-4.4144e-05,0
140.04,-6.5461e-05,0
140.04,-8.6442e-05,0
140.05,-9.1814e-05,0
140.05,-6.5293e-05,0
140.05,-1.1246e-05,0
140.05,5.069e-05,0
140.05,8.8121e-05,0
140.05,9.0303e-05,0
140.05,7.0497e-05,0
140.05,4.1459e-05,0
140.05,1.7288e-05,0
140.05,6.2104e-06,0
140.05,8.2246e-06,0
140.05,1.6953e-05,0
140.05,3.0045e-05,0
140.05,5.1194e-05,0
140.05,6.9657e-05,0
140.05,7.4189e-05,0
140.05,6.6133e-05,0
140.05,5.7572e-05,0
140.05,5.7572e-05,0
140.06,6.3447e-05,0
140.06,6.6636e-05,0
140.06,7.1168e-05,0
140.06,8.191e-05,0
140.06,9.4499e-05,0
140.06,0.00010726,0
140.06,0.00011833,0
140.06,0.00012605,0
140.06,0.00013512,0
140.06,0.00014553,0
140.06,0.00014838,0
140.06,0.00014217,0
140.06,0.0001321,0
140.06,0.00012337,0
140.06,0.00012337,0
140.06,0.0001519,0
140.06,0.00023986,0
140.06,0.00036188,0
140.06,0.00044648,0
140.07,0.00045537,0
140.07,0.00040536,0
140.07,0.00033217,0
140.07,0.00025396,0
140.07,0.00016953,0
140.07,7.3014e-05,0
140.07,-4.7333e-05,0
140.07,-0.00017188,0
140.07,-0.00026369,0
140.07,-0.00030649,0
140.07,-0.00030817,0
140.07,-0.00029911,0
140.07,-0.00030079,0
140.07,-0.00031556,0
140.07,-0.00032479,0
140.07,-0.0003211,0
140.07,-0.00029357,0
140.07,-0.00021871,0
140.07,-0.00012287,0
140.07,-6.0761e-05,0
140.08,-4.448e-05,0
140.08,-5.3208e-05,0
140.08,-6.9657e-05,0
140.08,-8.3589e-05,0
140.08,-0.00010155,0
140.08,-0.00013931,0
140.08,-0.00018849,0
140.08,-0.0002271,0
140.08,-0.00024472,0
140.08,-0.00024388,0
140.08,-0.00023331,0
140.08,-0.00023482,0
140.08,-0.00024942,0
140.08,-0.00025194,0
140.08,-0.0002135,0
140.08,-0.00014871,0
140.08,-9.366e-05,0
140.08,-6.3111e-05,0
140.08,-4.213e-05,0
140.09,-1.6281e-05,0
140.09,3.0213e-06,0
140.09,5.8747e-06,0
140.09,7.8889e-06,0
140.09,3.8605e-05,0
140.09,9.5171e-05,0
140.09,0.00014183,0
140.09,0.00015795,0
140.09,0.00015392,0
140.09,0.0001509,0
140.09,0.0001556,0
140.09,0.00017003,0
140.09,0.00018698,0
140.09,0.00019588,0
140.09,0.00019387,0
140.09,0.00018413,0
140.09,0.00017607,0
140.09,0.00017087,0
140.09,0.00016533,0
140.1,0.00016432,0
140.1,0.00017809,0
140.1,0.00020125,0
140.1,0.00021468,0
140.1,0.00021048,0
140.1,0.00019655,0
140.1,0.0001754,0
140.1,0.00015023,0
140.1,0.00013075,0
140.1,0.00011968,0
140.1,0.00011196,0
140.1,0.00011481,0
140.1,0.00012639,0
140.1,0.00013881,0
140.1,0.00014804,0
140.1,0.00014939,0
140.1,0.00015023,0
140.1,0.00017691,0
140.1,0.00020797,0
140.11,0.00019588,0
140.11,0.00014217,0
140.11,8.5771e-05,0
140.11,5.1362e-05,0
140.11,3.9445e-05,0
140.11,3.6759e-05,0
140.11,4.2466e-05,0
140.11,5.1865e-05,0
140.11,4.7501e-05,0
140.11,1.9135e-05,0
140.11,-2.4338e-05,0
140.11,-6.8315e-05,0
140.11,-9.5171e-05,0
140.11,-0.00010793,0
140.11,-0.00012488,0
140.11,-0.00013915,0
140.11,-0.00013327,0
140.11,-0.00011481,0
140.11,-9.3996e-05,0
140.11,-7.4693e-05,0
140.12,-4.2634e-05,0
140.12,1.7624e-05,0
140.12,7.6371e-05,0
140.12,9.4163e-05,0
140.12,6.63e-05,0
140.12,3.4409e-05,0
140.12,1.561e-05,0
140.12,-1.9638e-05,0
140.12,-8.4092e-05,0
140.12,-0.00015409,0
140.12,-0.00020729,0
140.12,-0.00024002,0
140.12,-0.00025681,0
140.12,-0.00026436,0
140.12,-0.00025496,0
140.12,-0.00020729,0
140.12,-0.00011615,0
140.12,-1.8128e-05,0
140.12,4.5487e-05,0
140.13,6.2943e-05,0
140.13,5.7572e-05,0
140.13,5.9251e-05,0
140.13,7.4022e-05,0
140.13,8.0232e-05,0
140.13,6.479e-05,0
140.13,4.2466e-05,0
140.13,1.9638e-05,0
140.13,-1.091e-05,0
140.13,-4.9516e-05,0
140.13,-8.7114e-05,0
140.13,-9.8863e-05,0
140.13,-7.6707e-05,0
140.13,-4.3977e-05,0
140.13,-1.3596e-05,0
140.13,8.2246e-06,0
140.13,1.9974e-05,0
140.13,1.561e-05,0
140.13,-4.8676e-06,0
140.14,-3.5248e-05,0
140.14,-6.0258e-05,0
140.14,-5.774e-05,0
140.14,-2.0645e-05,0
140.14,3.5584e-05,0
140.14,8.3925e-05,0
140.14,0.00010239,0
140.14,8.4932e-05,0
140.14,5.2537e-05,0
140.14,3.6088e-05,0
140.14,3.7934e-05,0
140.14,4.0955e-05,0
140.14,3.8437e-05,0
140.14,4.1459e-05,0
140.14,5.6565e-05,0
140.14,8.5267e-05,0
140.14,0.00011699,0
140.14,0.0001368,0
140.14,0.00014888,0
140.15,0.00016097,0
140.15,0.00016298,0
140.15,0.00015258,0
140.15,0.00013579,0
140.15,0.00012505,0
140.15,0.00012169,0
140.15,0.00011984,0
140.15,0.00011766,0
140.15,0.00011733,0
140.15,0.00012471,0
140.15,0.00013797,0
140.15,0.00014922,0
140.15,0.00015492,0
140.15,0.00014754,0
140.15,0.00012236,0
140.15,9.3828e-05,0
140.15,8.3589e-05,0
140.15,9.5171e-05,0
140.15,0.00011531,0
140.15,0.00012404,0
140.16,0.00011196,0
140.16,8.8792e-05,0
140.16,6.3951e-05,0
140.16,2.4338e-05,0
140.16,-3.6927e-05,0
140.16,-0.00010742,0
140.16,-0.00015677,0
140.16,-0.00015795,0
140.16,-0.00011044,0
140.16,-4.1291e-05,0
140.16,1.561e-05,0
140.16,3.4745e-05,0
140.16,1.8631e-05,0
140.16,-1.8296e-05,0
140.16,-6.3783e-05,0
140.16,-0.00010776,0
140.16,-0.00012706,0
140.16,-8.275e-05,0
140.16,1.3428e-05,0
140.17,9.9199e-05,0
140.17,0.00014754,0
140.17,0.00016533,0
140.17,0.00016097,0
140.17,0.0001378,0
140.17,0.00010105,0
140.17,5.0858e-05,0
140.17,-2.8534e-06,0
140.17,-5.1194e-05,0
140.17,-9.3828e-05,0
140.17,-0.00013193,0
140.17,-0.00016315,0
140.17,-0.00017624,0
140.17,-0.00017675,0
140.17,-0.00018245,0
140.17,-0.00018749,0
140.17,-0.00018245,0
140.17,-0.00016936,0
140.17,-0.00015157,0
140.18,-0.00013411,0
140.18,-0.0001237,0
140.18,-0.00011615,0
140.18,-9.9199e-05,0
140.18,-6.7475e-05,0
140.18,-2.8702e-05,0
140.18,5.2033e-06,0
140.18,2.8702e-05,0
140.18,4.8173e-05,0
140.18,6.7308e-05,0
140.18,8.4092e-05,0
140.18,9.9199e-05,0
140.18,0.00012068,0
140.18,0.00014267,0
140.18,0.00015895,0
140.18,0.00017641,0
140.18,0.00018782,0
140.18,0.00018195,0
140.18,0.00016902,0
140.19,0.00016332,0
140.19,0.00016533,0
140.19,0.00016835,0
140.19,0.00016902,0
140.19,0.00015946,0
140.19,0.00013243,0
140.19,9.5842e-05,0
140.19,6.6972e-05,0
140.19,5.304e-05,0
140.19,4.3473e-05,0
140.19,2.4338e-05,0
140.19,-1.8463e-06,0
140.19,-2.0813e-05,0
140.19,-3.4409e-05,0
140.19,-4.7166e-05,0
140.19,-6.4958e-05,0
140.19,-8.8792e-05,0
140.19,-0.00010625,0
140.19,-0.00010222,0
140.19,-7.3182e-05,0
140.2,-3.2731e-05,0
140.2,2.266e-05,0
140.2,9.4499e-05,0
140.2,0.00014586,0
140.2,0.00014821,0
140.2,0.00011128,0
140.2,6.6972e-05,0
140.2,3.9445e-05,0
140.2,3.6759e-05,0
140.2,5.8915e-05,0
140.2,8.7449e-05,0
140.2,0.00010625,0
140.2,0.00011128,0
140.2,9.9199e-05,0
140.2,9.0639e-05,0
140.2,9.6513e-05,0
140.2,9.8527e-05,0
140.2,8.7785e-05,0
140.2,6.3111e-05,0
140.21,3.0381e-05,0
140.21,5.539e-06,0
140.21,-3.5248e-06,0
140.21,-1.2085e-05,0
140.21,-3.4745e-05,0
140.21,-6.9657e-05,0
140.21,-0.00011095,0
140.21,-0.00015761,0
140.21,-0.00020276,0
140.21,-0.00024221,0
140.21,-0.00026537,0
140.21,-0.00024623,0
140.21,-0.00019622,0
140.21,-0.00015459,0
140.21,-0.00013931,0
140.21,-0.00013579,0
140.21,-0.0001237,0
140.21,-0.00010423,0
140.21,-7.5868e-05,0
140.22,-2.8534e-05,0
140.22,3.0716e-05,0
140.22,8.2414e-05,0
140.22,0.00010642,0
140.22,0.00010625,0
140.22,0.00010726,0
140.22,0.00012303,0
140.22,0.00014821,0
140.22,0.00016432,0
140.22,0.00015744,0
140.22,0.00013445,0
140.22,0.00011263,0
140.22,9.4499e-05,0
140.22,6.9322e-05,0
140.22,4.0452e-05,0
140.22,1.5274e-05,0
140.22,-8.5603e-06,0
140.22,-3.2395e-05,0
140.22,-4.9683e-05,0
140.22,-5.8915e-05,0
140.23,-8.0735e-05,0
140.23,-0.00012253,0
140.23,-0.00016265,0
140.23,-0.00018044,0
140.23,-0.0001796,0
140.23,-0.00016701,0
140.23,-0.00014855,0
140.23,-0.00012958,0
140.23,-0.00011028,0
140.23,-8.9296e-05,0
140.23,-6.8315e-05,0
140.23,-4.2298e-05,0
140.23,-7.5532e-06,0
140.23,2.9206e-05,0
140.23,5.6733e-05,0
140.23,7.2511e-05,0
140.23,8.4092e-05,0
140.23,9.5171e-05,0
140.23,0.00010373,0
140.24,0.0001133,0
140.24,0.00012337,0
140.24,0.00013008,0
140.24,0.00013512,0
140.24,0.00014553,0
140.24,0.00016432,0
140.24,0.00018346,0
140.24,0.00019924,0
140.24,0.00021451,0
140.24,0.00022643,0
140.24,0.00023079,0
140.24,0.00022039,0
140.24,0.00018363,0
140.24,0.0001185,0
140.24,5.2201e-05,0
140.24,2.5177e-06,0
140.24,-3.6927e-05,0
140.24,-7.6539e-05,0
140.24,-0.00010558,0
140.25,-0.0001086,0
140.25,-9.1981e-05,0
140.25,-7.1e-05,0
140.25,-5.0019e-05,0
140.25,-1.9806e-05,0
140.25,1.6617e-05,0
140.25,4.6494e-05,0
140.25,6.2943e-05,0
140.25,6.6804e-05,0
140.25,6.0426e-05,0
140.25,5.8915e-05,0
140.25,7.1672e-05,0
140.25,8.4764e-05,0
140.25,8.275e-05,0
140.25,6.8986e-05,0
140.25,4.6159e-05,0
140.25,1.3596e-05,0
140.25,-1.4267e-05,0
140.25,-2.1988e-05,0
140.26,-1.091e-05,0
140.26,1.6785e-06,0
140.26,6.3783e-06,0
140.26,1.3596e-05,0
140.26,2.7024e-05,0
140.26,3.9445e-05,0
140.26,4.5487e-05,0
140.26,5.1698e-05,0
140.26,6.3615e-05,0
140.26,7.5029e-05,0
140.26,7.9057e-05,0
140.26,7.4693e-05,0
140.26,6.4958e-05,0
140.26,5.9419e-05,0
140.26,6.4958e-05,0
140.26,7.8553e-05,0
140.26,0.00010155,0
140.26,0.00012706,0
140.26,0.00015392,0
140.26,0.00017708,0
140.27,0.00018698,0
140.27,0.00018061,0
140.27,0.00015258,0
140.27,0.00010256,0
140.27,4.5151e-05,0
140.27,-1.2253e-05,0
140.27,-6.3951e-05,0
140.27,-9.9199e-05,0
140.27,-0.00011363,0
140.27,-0.00011145,0
140.27,-9.8192e-05,0
140.27,-7.2007e-05,0
140.27,-3.4073e-05,0
140.27,2.182e-06,0
140.27,4.0787e-05,0
140.27,7.7714e-05,0
140.27,9.6345e-05,0
140.27,9.1814e-05,0
140.27,6.6972e-05,0
140.28,2.9709e-05,0
140.28,-1.6281e-05,0
140.28,-5.6733e-05,0
140.28,-7.7546e-05,0
140.28,-7.805e-05,0
140.28,-7.7714e-05,0
140.28,-8.0735e-05,0
140.28,-8.0064e-05,0
140.28,-7.1672e-05,0
140.28,-5.2201e-05,0
140.28,-3.1052e-05,0
140.28,-2.4674e-05,0
140.28,-2.3163e-05,0
140.28,-1.4099e-05,0
140.28,-1.2253e-05,0
140.28,-2.1485e-05,0
140.28,-2.4002e-05,0
140.28,6.714e-06,0
140.28,7.2343e-05,0
140.29,0.00013512,0
140.29,0.00017288,0
140.29,0.00019924,0
140.29,0.00021669,0
140.29,0.00021988,0
140.29,0.00020864,0
140.29,0.00018984,0
140.29,0.00015962,0
140.29,0.00010961,0
140.29,4.7837e-05,0
140.29,-1.6617e-05,0
140.29,-8.4932e-05,0
140.29,-0.00015308,0
140.29,-0.0002224,0
140.29,-0.00029256,0
140.29,-0.000331,0
140.29,-0.00032546,0
140.29,-0.00030817,0
140.29,-0.00030968,0
140.3,-0.00032898,0
140.3,-0.00033167,0
140.3,-0.0003033,0
140.3,-0.00025916,0
140.3,-0.00021334,0
140.3,-0.00017691,0
140.3,-0.00015492,0
140.3,-0.0001425,0
140.3,-0.00012908,0
140.3,-0.00010306,0
140.3,-6.7979e-05,0
140.3,-2.8702e-05,0
140.3,6.5461e-06,0
140.3,3.9109e-05,0
140.3,7.5029e-05,0
140.3,0.00010877,0
140.3,0.00013243,0
140.3,0.00014519,0
140.3,0.00015828,0
140.31,0.00018178,0
140.31,0.00020998,0
140.31,0.00022979,0
140.31,0.0002454,0
140.31,0.00025496,0
140.31,0.00024791,0
140.31,0.00021938,0
140.31,0.00018178,0
140.31,0.00014788,0
140.31,0.00012169,0
140.31,0.00010407,0
140.31,0.00010054,0
140.31,0.00010893,0
140.31,0.0001138,0
140.31,0.00010188,0
140.31,8.3757e-05,0
140.31,7.8386e-05,0
140.31,8.6778e-05,0
140.31,9.3828e-05,0
140.31,9.2485e-05,0
140.32,8.6778e-05,0
140.32,7.57e-05,0
140.32,6.1601e-05,0
140.32,5.2873e-05,0
140.32,5.5222e-05,0
140.32,6.0929e-05,0
140.32,5.7908e-05,0
140.32,4.2802e-05,0
140.32,2.7192e-05,0
140.32,1.7624e-05,0
140.32,1.3092e-05,0
140.32,1.3596e-05,0
140.32,1.4267e-05,0
140.32,1.1749e-05,0
140.32,9.2317e-06,0
140.32,1.1749e-05,0
140.32,1.8128e-05,0
140.32,2.4338e-05,0
140.32,2.9374e-05,0
140.33,3.2731e-05,0
140.33,4.3809e-05,0
140.33,6.4286e-05,0
140.33,8.6946e-05,0
140.33,0.00010457,0
140.33,0.00010591,0
140.33,8.6946e-05,0
140.33,6.1265e-05,0
140.33,4.1794e-05,0
140.33,3.6759e-05,0
140.33,4.8508e-05,0
140.33,6.9993e-05,0
140.33,8.4092e-05,0
140.33,8.04e-05,0
140.33,6.5629e-05,0
140.33,5.623e-05,0
140.33,6.8482e-05,0
140.33,9.1814e-05,0
140.33,9.7856e-05,0
140.34,8.2078e-05,0
140.34,6.0258e-05,0
140.34,4.0787e-05,0
140.34,2.652e-05,0
140.34,2.7695e-05,0
140.34,3.9445e-05,0
140.34,4.448e-05,0
140.34,3.1388e-05,0
140.34,-1.6785e-07,0
140.34,-4.213e-05,0
140.34,-9.0471e-05,0
140.34,-0.00014083,0
140.34,-0.00019084,0
140.34,-0.00023046,0
140.34,-0.00024691,0
140.34,-0.0002464,0
140.34,-0.00022979,0
140.34,-0.00018698,0
140.34,-0.00012169,0
140.34,-4.0452e-05,0
140.35,3.978e-05,0
140.35,9.5506e-05,0
140.35,0.00011666,0
140.35,0.00010877,0
140.35,8.4092e-05,0
140.35,5.3544e-05,0
140.35,3.1388e-05,0
140.35,1.9806e-05,0
140.35,9.5674e-06,0
140.35,-2.182e-06,0
140.35,-6.8818e-06,0
140.35,1.1917e-05,0
140.35,5.9586e-05,0
140.35,0.00010591,0
140.35,0.00011951,0
140.35,9.2485e-05,0
140.35,4.918e-05,0
140.35,1.4435e-05,0
140.35,-8.5603e-06,0
140.36,-1.6617e-05,0
140.36,7.2175e-06,0
140.36,4.8844e-05,0
140.36,8.9128e-05,0
140.36,0.0001091,0
140.36,9.5506e-05,0
140.36,5.2201e-05,0
140.36,3.357e-07,0
140.36,-4.3137e-05,0
140.36,-8.7449e-05,0
140.36,-0.00013579,0
140.36,-0.00015979,0
140.36,-0.00011749,0
140.36,-2.8367e-05,0
140.36,3.743e-05,0
140.36,4.7837e-05,0
140.36,1.2253e-05,0
140.36,-3.1724e-05,0
140.36,-4.0284e-05,0
140.37,-3.827e-05,0
140.37,-8.4428e-05,0
140.37,-0.00015828,0
140.37,-0.00019118,0
140.37,-0.00018245,0
140.37,-0.00017591,0
140.37,-0.00017574,0
140.37,-0.00016063,0
140.37,-0.00012706,0
140.37,-8.2414e-05,0
140.37,-2.9877e-05,0
140.37,2.0478e-05,0
140.37,5.6901e-05,0
140.37,7.3014e-05,0
140.37,7.57e-05,0
140.37,7.8386e-05,0
140.37,8.04e-05,0
140.37,8.2414e-05,0
140.37,9.6513e-05,0
140.38,0.00012001,0
140.38,0.00013915,0
140.38,0.00014754,0
140.38,0.00015023,0
140.38,0.00015677,0
140.38,0.00016718,0
140.38,0.00017053,0
140.38,0.00015677,0
140.38,0.00013243,0
140.38,0.00011666,0
140.38,0.0001133,0
140.38,0.00010121,0
140.38,6.4958e-05,0
140.38,1.7121e-05,0
140.38,-1.2589e-05,0
140.38,-1.3931e-05,0
140.38,-3.8605e-06,0
140.38,-1.1749e-06,0
140.38,-6.714e-07,0
140.38,8.2246e-06,0
140.39,1.3931e-05,0
140.39,1.1078e-05,0
140.39,9.0639e-06,0
140.39,1.5946e-05,0
140.39,2.7527e-05,0
140.39,3.8102e-05,0
140.39,5.2201e-05,0
140.39,7.57e-05,0
140.39,0.00010625,0
140.39,0.00013277,0
140.39,0.00014334,0
140.39,0.00013411,0
140.39,0.00011699,0
140.39,9.836e-05,0
140.39,8.04e-05,0
140.39,6.4622e-05,0
140.39,4.5487e-05,0
140.39,2.9374e-05,0
140.39,3.3402e-05,0
140.4,6.3615e-05,0
140.4,0.0001044,0
140.4,0.00012035,0
140.4,0.00010188,0
140.4,6.8986e-05,0
140.4,4.5151e-05,0
140.4,3.8102e-05,0
140.4,3.978e-05,0
140.4,4.683e-05,0
140.4,7.1839e-05,0
140.4,9.987e-05,0
140.4,0.0001133,0
140.4,0.00012421,0
140.4,0.00013109,0
140.4,0.00010239,0
140.4,2.6688e-05,0
140.4,-7.5029e-05,0
140.4,-0.00018379,0
140.4,-0.00028266,0
140.41,-0.00034208,0
140.41,-0.0003451,0
140.41,-0.00030582,0
140.41,-0.00024556,0
140.41,-0.00018379,0
140.41,-0.00013596,0
140.41,-0.00010826,0
140.41,-9.0471e-05,0
140.41,-6.8482e-05,0
140.41,-3.9445e-05,0
140.41,-8.5603e-06,0
140.41,1.9303e-05,0
140.41,3.7095e-05,0
140.41,5.0858e-05,0
140.41,7.2847e-05,0
140.41,9.5171e-05,0
140.41,0.00011196,0
140.41,0.00012219,0
140.41,0.00012807,0
140.42,0.0001321,0
140.42,0.00013059,0
140.42,0.00011716,0
140.42,9.1478e-05,0
140.42,6.3447e-05,0
140.42,3.6591e-05,0
140.42,1.1582e-05,0
140.42,-9.5674e-06,0
140.42,-2.0981e-05,0
140.42,-2.501e-05,0
140.42,-1.9303e-05,0
140.42,8.3925e-07,0
140.42,3.1052e-05,0
140.42,6.0258e-05,0
140.42,8.5771e-05,0
140.42,0.00011263,0
140.42,0.00014519,0
140.42,0.00018044,0
140.42,0.00020226,0
140.42,0.00020629,0
140.43,0.0002036,0
140.43,0.00019857,0
140.43,0.0001848,0
140.43,0.00016902,0
140.43,0.00015258,0
140.43,0.00012337,0
140.43,8.3757e-05,0
140.43,4.918e-05,0
140.43,1.8631e-05,0
140.43,-2.3499e-05,0
140.43,-6.5126e-05,0
140.43,-7.9561e-05,0
140.43,-6.9657e-05,0
140.43,-5.8244e-05,0
140.43,-5.8915e-05,0
140.43,-6.2272e-05,0
140.43,-5.5558e-05,0
140.43,-3.9445e-05,0
140.43,-2.4674e-05,0
140.44,-2.1317e-05,0
140.44,-3.6088e-05,0
140.44,-6.1601e-05,0
140.44,-8.5771e-05,0
140.44,-0.00010088,0
140.44,-0.00010373,0
140.44,-0.00010893,0
140.44,-0.0001232,0
140.44,-0.00013579,0
140.44,-0.0001373,0
140.44,-0.00013193,0
140.44,-0.00013327,0
140.44,-0.00014955,0
140.44,-0.00016953,0
140.44,-0.00016533,0
140.44,-0.00013159,0
140.44,-8.8289e-05,0
140.44,-4.8844e-05,0
140.44,-1.6953e-05,0
140.45,7.2175e-06,0
140.45,2.3499e-05,0
140.45,4.7166e-05,0
140.45,7.8386e-05,0
140.45,9.5171e-05,0
140.45,8.5771e-05,0
140.45,6.8818e-05,0
140.45,7.4693e-05,0
140.45,0.00012824,0
140.45,0.00021602,0
140.45,0.00028316,0
140.45,0.00029055,0
140.45,0.0002506,0
140.45,0.00020662,0
140.45,0.00017104,0
140.45,0.00013462,0
140.45,9.1142e-05,0
140.45,3.9277e-05,0
140.45,-1.1749e-05,0
140.46,-4.8676e-05,0
140.46,-6.3615e-05,0
140.46,-6.2272e-05,0
140.46,-5.7069e-05,0
140.46,-6.1433e-05,0
140.46,-7.5868e-05,0
140.46,-9.0135e-05,0
140.46,-0.00010289,0
140.46,-0.00012203,0
140.46,-0.00013663,0
140.46,-0.00013227,0
140.46,-0.00011011,0
140.46,-7.7882e-05,0
140.46,-3.9109e-05,0
140.46,1.0239e-05,0
140.46,6.4286e-05,0
140.46,0.00010138,0
140.46,0.00012068,0
140.46,0.00015795,0
140.46,0.00021468,0
140.47,0.00024926,0
140.47,0.00024607,0
140.47,0.000213,0
140.47,0.00016315,0
140.47,0.00010776,0
140.47,5.7572e-05,0
140.47,1.1582e-05,0
140.47,-2.652e-05,0
140.47,-3.9445e-05,0
140.47,-2.6688e-05,0
140.47,-9.2317e-06,0
140.47,1.5106e-06,0
140.47,1.0071e-06,0
140.47,2.182e-06,0
140.47,2.6352e-05,0
140.47,6.2776e-05,0
140.47,8.2246e-05,0
140.47,7.4357e-05,0
140.47,4.6326e-05,0
140.48,1.4603e-05,0
140.48,-8.5603e-06,0
140.48,-1.9638e-05,0
140.48,-2.0981e-05,0
140.48,-1.2757e-05,0
140.48,-5.0355e-07,0
140.48,3.6927e-06,0
140.48,-7.7211e-06,0
140.48,-2.8534e-05,0
140.48,-3.6927e-05,0
140.48,-7.8889e-06,0
140.48,5.9922e-05,0
140.48,0.00012824,0
140.48,0.00015627,0
140.48,0.00015056,0
140.48,0.00013999,0
140.48,0.0001326,0
140.48,0.00011901,0
140.48,0.00010088,0
140.49,9.1478e-05,0
140.49,0.00010726,0
140.49,0.00015123,0
140.49,0.00019101,0
140.49,0.00020075,0
140.49,0.0001796,0
140.49,0.00013042,0
140.49,6.8986e-05,0
140.49,4.1962e-06,0
140.49,-6.9657e-05,0
140.49,-0.00015056,0
140.49,-0.00022391,0
140.49,-0.00025966,0
140.49,-0.00024926,0
140.49,-0.00022576,0
140.49,-0.00021468,0
140.49,-0.00022055,0
140.49,-0.00022391,0
140.49,-0.00019168,0
140.5,-0.00011884,0
140.5,-5.0523e-05,0
140.5,-2.7024e-05,0
140.5,-3.7766e-05,0
140.5,-5.4719e-05,0
140.5,-7.1336e-05,0
140.5,-8.5603e-05,0
140.5,-9.3156e-05,0
140.5,-9.5338e-05,0
140.5,-9.5338e-05,0
140.5,-8.9799e-05,0
140.5,-7.5196e-05,0
140.5,-5.8076e-05,0
140.5,-4.1794e-05,0
140.5,-2.3667e-05,0
140.5,-5.7069e-06,0
140.5,3.5248e-06,0
140.5,3.0213e-06,0
140.5,1.5106e-06,0
140.5,1.326e-05,0
140.51,4.9516e-05,0
140.51,9.3492e-05,0
140.51,0.00011699,0
140.51,0.00011397,0
140.51,9.987e-05,0
140.51,9.1142e-05,0
140.51,9.9199e-05,0
140.51,0.00012337,0
140.51,0.00015929,0
140.51,0.00019185,0
140.51,0.00019991,0
140.51,0.00018547,0
140.51,0.00016231,0
140.51,0.00013075,0
140.51,9.7017e-05,0
140.51,7.6707e-05,0
140.51,7.1336e-05,0
140.51,7.5532e-05,0
140.51,8.7449e-05,0
140.52,9.2821e-05,0
140.52,8.9128e-05,0
140.52,8.7449e-05,0
140.52,8.7785e-05,0
140.52,7.2679e-05,0
140.52,4.0787e-05,0
140.52,7.2175e-06,0
140.52,-2.652e-05,0
140.52,-5.8412e-05,0
140.52,-7.4189e-05,0
140.52,-7.0665e-05,0
140.52,-5.8579e-05,0
140.52,-4.4144e-05,0
140.52,-3.5416e-05,0
140.52,-3.5584e-05,0
140.52,-3.508e-05,0
140.52,-2.4002e-05,0
140.52,-1.0071e-06,0
140.52,1.8128e-05,0
140.53,2.8702e-05,0
140.53,4.2802e-05,0
140.53,6.5461e-05,0
140.53,8.5267e-05,0
140.53,9.0806e-05,0
140.53,8.1575e-05,0
140.53,6.6972e-05,0
140.53,6.8986e-05,0
140.53,8.8792e-05,0
140.53,0.00010054,0
140.53,9.4499e-05,0
140.53,8.1071e-05,0
140.53,7.5364e-05,0
140.53,8.6778e-05,0
140.53,0.00010507,0
140.53,0.00011867,0
140.53,0.00012958,0
140.53,0.00013663,0
140.53,0.0001368,0
140.53,0.00012136,0
140.54,8.51e-05,0
140.54,3.2395e-05,0
140.54,-2.7359e-05,0
140.54,-8.1407e-05,0
140.54,-0.00012438,0
140.54,-0.00016147,0
140.54,-0.00019202,0
140.54,-0.00020595,0
140.54,-0.00019655,0
140.54,-0.000165,0
140.54,-0.00011263,0
140.54,-5.0523e-05,0
140.54,4.1962e-06,0
140.54,4.9516e-05,0
140.54,9.7856e-05,0
140.54,0.00015425,0
140.54,0.00020998,0
140.54,0.00024607,0
140.54,0.00023919,0
140.55,0.00019051,0
140.55,0.00012941,0
140.55,7.6707e-05,0
140.55,3.0381e-05,0
140.55,-1.5106e-06,0
140.55,-1.0407e-05,0
140.55,-9.0639e-06,0
140.55,-1.1582e-05,0
140.55,-2.1653e-05,0
140.55,-3.9109e-05,0
140.55,-5.4887e-05,0
140.55,-5.623e-05,0
140.55,-4.448e-05,0
140.55,-3.8605e-05,0
140.55,-4.3305e-05,0
140.55,-4.2802e-05,0
140.55,-1.561e-05,0
140.55,2.6184e-05,0
140.55,4.0116e-05,0
140.56,2.1317e-05,0
140.56,-5.7069e-06,0
140.56,-3.1724e-05,0
140.56,-6.0594e-05,0
140.56,-8.6442e-05,0
140.56,-9.5506e-05,0
140.56,-8.4764e-05,0
140.56,-6.6972e-05,0
140.56,-4.9851e-05,0
140.56,-1.6953e-05,0
140.56,3.0549e-05,0
140.56,6.7643e-05,0
140.56,8.4596e-05,0
140.56,8.896e-05,0
140.56,8.8792e-05,0
140.56,7.8721e-05,0
140.56,4.5487e-05,0
140.56,-5.2033e-06,0
140.56,-4.7166e-05,0
140.57,-7.2007e-05,0
140.57,-8.6778e-05,0
140.57,-9.3156e-05,0
140.57,-9.4667e-05,0
140.57,-8.6442e-05,0
140.57,-6.5629e-05,0
140.57,-3.9445e-05,0
140.57,-1.2253e-05,0
140.57,1.2757e-05,0
140.57,2.6017e-05,0
140.57,1.9638e-05,0
140.57,1.326e-05,0
140.57,3.0045e-05,0
140.57,5.4551e-05,0
140.57,5.6901e-05,0
140.57,4.1291e-05,0
140.57,2.5177e-05,0
140.57,1.561e-05,0
140.57,1.326e-05,0
140.57,1.3931e-05,0
140.58,1.6449e-05,0
140.58,2.1149e-05,0
140.58,3.7095e-05,0
140.58,5.539e-05,0
140.58,5.9922e-05,0
140.58,5.1698e-05,0
140.58,3.7934e-05,0
140.58,2.2995e-05,0
140.58,1.6281e-05,0
140.58,2.6184e-05,0
140.58,4.7166e-05,0
140.58,6.949e-05,0
140.58,8.6778e-05,0
140.58,9.0806e-05,0
140.58,7.9225e-05,0
140.58,6.1433e-05,0
140.58,5.0187e-05,0
140.58,3.9109e-05,0
140.58,2.4002e-05,0
140.59,1.2085e-05,0
140.59,-5.0355e-07,0
140.59,-1.5442e-05,0
140.59,-3.2563e-05,0
140.59,-4.3809e-05,0
140.59,-3.9109e-05,0
140.59,-2.2995e-05,0
140.59,1.5106e-06,0
140.59,4.4648e-05,0
140.59,0.00010927,0
140.59,0.00017708,0
140.59,0.00022106,0
140.59,0.00022005,0
140.59,0.00016533,0
140.59,8.7785e-05,0
140.59,3.7095e-05,0
140.59,3.7766e-05,0
140.59,6.8986e-05,0
140.59,9.7856e-05,0
140.6,0.00010625,0
140.6,0.00010121,0
140.6,0.00011666,0
140.6,0.00014855,0
140.6,0.00015761,0
140.6,0.00013059,0
140.6,7.9561e-05,0
140.6,8.5603e-06,0
140.6,-6.8986e-05,0
140.6,-0.00013428,0
140.6,-0.00017003,0
140.6,-0.0001707,0
140.6,-0.00015492,0
140.6,-0.00013411,0
140.6,-0.00010457,0
140.6,-7.3014e-05,0
140.6,-5.623e-05,0
140.6,-5.069e-05,0
140.6,-3.9948e-05,0
140.61,-3.1724e-05,0
140.61,-4.8508e-05,0
140.61,-8.9296e-05,0
140.61,-0.00012891,0
140.61,-0.00014955,0
140.61,-0.00015174,0
140.61,-0.00013982,0
140.61,-0.0001133,0
140.61,-6.4958e-05,0
140.61,-2.5177e-06,0
140.61,4.7837e-05,0
140.61,7.2343e-05,0
140.61,8.7953e-05,0
140.61,0.00010893,0
140.61,0.00013143,0
140.61,0.00015476,0
140.61,0.0001744,0
140.61,0.00017977,0
140.61,0.00017171,0
140.62,0.00015996,0
140.62,0.00014351,0
140.62,0.00011984,0
140.62,8.9128e-05,0
140.62,6.0929e-05,0
140.62,4.2802e-05,0
140.62,3.0716e-05,0
140.62,1.1749e-05,0
140.62,-1.7624e-05,0
140.62,-4.3977e-05,0
140.62,-5.7237e-05,0
140.62,-6.2104e-05,0
140.62,-6.3279e-05,0
140.62,-5.069e-05,0
140.62,-2.6688e-05,0
140.62,-3.357e-07,0
140.62,3.2395e-05,0
140.62,7.0329e-05,0
140.62,0.00010172,0
140.62,0.0001227,0
140.63,0.00014318,0
140.63,0.00016164,0
140.63,0.00016936,0
140.63,0.00016735,0
140.63,0.00015023,0
140.63,0.0001091,0
140.63,5.9922e-05,0
140.63,2.3499e-05,0
140.63,8.5603e-06,0
140.63,8.896e-06,0
140.63,4.1962e-06,0
140.63,-1.796e-05,0
140.63,-5.6565e-05,0
140.63,-9.5338e-05,0
140.63,-0.00012287,0
140.63,-0.00014049,0
140.63,-0.00015056,0
140.63,-0.00014284,0
140.63,-0.00011514,0
140.64,-7.9728e-05,0
140.64,-5.0187e-05,0
140.64,-3.1052e-05,0
140.64,-1.9471e-05,0
140.64,-1.0239e-05,0
140.64,5.539e-06,0
140.64,3.0884e-05,0
140.64,4.3977e-05,0
140.64,3.743e-05,0
140.64,3.5416e-05,0
140.64,4.7837e-05,0
140.64,6.2104e-05,0
140.64,6.5629e-05,0
140.64,5.9419e-05,0
140.64,5.8579e-05,0
140.64,7.6875e-05,0
140.64,9.7688e-05,0
140.64,9.4499e-05,0
140.64,6.8315e-05,0
140.65,3.8773e-05,0
140.65,1.3931e-05,0
140.65,-4.8676e-06,0
140.65,-1.4939e-05,0
140.65,-1.9303e-05,0
140.65,-2.6017e-05,0
140.65,-4.3137e-05,0
140.65,-6.5293e-05,0
140.65,-7.7211e-05,0
140.65,-6.2943e-05,0
140.65,-2.5849e-05,0
140.65,2.0981e-05,0
140.65,7.6371e-05,0
140.65,0.00014133,0
140.65,0.00021199,0
140.65,0.00029189,0
140.65,0.00034627,0
140.65,0.00033687,0
140.65,0.00028367,0
140.65,0.0002177,0
140.66,0.0001462,0
140.66,7.4022e-05,0
140.66,1.2589e-05,0
140.66,-3.4745e-05,0
140.66,-6.8147e-05,0
140.66,-8.6778e-05,0
140.66,-9.8695e-05,0
140.66,-0.0001091,0
140.66,-0.00012572,0
140.66,-0.00015459,0
140.66,-0.00018883,0
140.66,-0.00021804,0
140.66,-0.00021938,0
140.66,-0.00017691,0
140.66,-0.00010423,0
140.66,-3.1891e-05,0
140.66,1.9974e-05,0
140.66,5.3544e-05,0
140.66,7.8889e-05,0
140.67,0.00010155,0
140.67,0.00011296,0
140.67,9.1646e-05,0
140.67,4.1291e-05,0
140.67,-5.3712e-06,0
140.67,-2.9206e-05,0
140.67,-2.9374e-05,0
140.67,-1.2757e-05,0
140.67,1.0407e-05,0
140.67,3.4073e-05,0
140.67,5.0355e-05,0
140.67,5.7069e-05,0
140.67,5.1865e-05,0
140.67,3.3738e-05,0
140.67,5.2033e-06,0
140.67,-1.7792e-05,0
140.67,-1.0575e-05,0
140.67,1.1917e-05,0
140.67,1.8128e-05,0
140.68,2.182e-06,0
140.68,-1.9806e-05,0
140.68,-3.7095e-05,0
140.68,-4.6494e-05,0
140.68,-4.7501e-05,0
140.68,-4.448e-05,0
140.68,-2.8534e-05,0
140.68,-2.5177e-06,0
140.68,1.5442e-05,0
140.68,2.5849e-05,0
140.68,3.508e-05,0
140.68,3.3906e-05,0
140.68,1.6114e-05,0
140.68,-1.3596e-05,0
140.68,-3.1388e-05,0
140.68,-2.5681e-05,0
140.68,-1.3428e-05,0
140.68,-1.091e-05,0
140.68,-2.0478e-05,0
140.69,-3.5248e-05,0
140.69,-4.4144e-05,0
140.69,-4.0787e-05,0
140.69,-2.031e-05,0
140.69,2.266e-05,0
140.69,7.4022e-05,0
140.69,0.00011044,0
140.69,0.00012605,0
140.69,0.00014334,0
140.69,0.00016584,0
140.69,0.0001744,0
140.69,0.00015593,0
140.69,0.00011531,0
140.69,6.7979e-05,0
140.69,3.0549e-05,0
140.69,1.4267e-05,0
140.69,1.3931e-05,0
140.69,1.8463e-05,0
140.69,3.1724e-05,0
140.69,6.3615e-05,0
140.7,0.00011498,0
140.7,0.00016953,0
140.7,0.00019437,0
140.7,0.0001791,0
140.7,0.00014368,0
140.7,0.00011531,0
140.7,9.9199e-05,0
140.7,7.8386e-05,0
140.7,3.4745e-05,0
140.7,-1.9638e-05,0
140.7,-5.9922e-05,0
140.7,-8.5267e-05,0
140.7,-0.0001039,0
140.7,-0.00011481,0
140.7,-0.00011498,0
140.7,-0.00011666,0
140.7,-0.00012169,0
140.7,-0.0001044,0
140.7,-4.4648e-05,0
140.71,3.5416e-05,0
140.71,9.2317e-05,0
140.71,0.00010944,0
140.71,0.00010524,0
140.71,0.00010088,0
140.71,0.00010105,0
140.71,0.00010524,0
140.71,0.00011397,0
140.71,0.00011464,0
140.71,9.7856e-05,0
140.71,7.3014e-05,0
140.71,4.7837e-05,0
140.71,2.1653e-05,0
140.71,-9.5674e-06,0
140.71,-4.3137e-05,0
140.71,-6.2943e-05,0
140.71,-6.5293e-05,0
140.71,-6.5293e-05,0
140.71,-7.2679e-05,0
140.72,-8.2414e-05,0
140.72,-8.5939e-05,0
140.72,-8.3925e-05,0
140.72,-8.4092e-05,0
140.72,-8.3085e-05,0
140.72,-7.1336e-05,0
140.72,-5.4887e-05,0
140.72,-4.7837e-05,0
140.72,-5.0187e-05,0
140.72,-5.0523e-05,0
140.72,-3.9445e-05,0
140.72,-2.2156e-05,0
140.72,-6.2104e-06,0
140.72,7.2175e-06,0
140.72,2.8702e-05,0
140.72,6.9657e-05,0
140.72,0.00010994,0
140.72,0.00013881,0
140.72,0.00015811,0
140.72,0.000165,0
140.73,0.00016214,0
140.73,0.00015627,0
140.73,0.0001556,0
140.73,0.00016768,0
140.73,0.00019756,0
140.73,0.00022609,0
140.73,0.00023331,0
140.73,0.00022139,0
140.73,0.00020562,0
140.73,0.00018715,0
140.73,0.00015258,0
140.73,0.00010323,0
140.73,4.5151e-05,0
140.73,-2.3835e-05,0
140.73,-9.4667e-05,0
140.73,-0.00014401,0
140.73,-0.00015996,0
140.73,-0.00014049,0
140.73,-7.805e-05,0
140.74,2.8534e-06,0
140.74,4.0955e-05,0
140.74,1.6953e-05,0
140.74,-3.9277e-05,0
140.74,-8.9799e-05,0
140.74,-0.00012337,0
140.74,-0.00014586,0
140.74,-0.00016902,0
140.74,-0.00019487,0
140.74,-0.0002224,0
140.74,-0.00024724,0
140.74,-0.00026101,0
140.74,-0.00024691,0
140.74,-0.00019051,0
140.74,-0.00011246,0
140.74,-5.2537e-05,0
140.74,-3.0381e-05,0
140.74,-3.8437e-05,0
140.74,-6.5461e-05,0
140.75,-9.8863e-05,0
140.75,-0.00011212,0
140.75,-8.8792e-05,0
140.75,-4.3137e-05,0
140.75,7.2175e-06,0
140.75,4.9683e-05,0
140.75,9.0135e-05,0
140.75,0.0001378,0
140.75,0.00018245,0
140.75,0.00020394,0
140.75,0.00020461,0
140.75,0.00019789,0
140.75,0.000189,0
140.75,0.00017238,0
140.75,0.00014284,0
140.75,0.00010256,0
140.75,6.4286e-05,0
140.75,4.2634e-05,0
140.75,3.4409e-05,0
140.76,3.3402e-05,0
140.76,3.6255e-05,0
140.76,2.9877e-05,0
140.76,7.5532e-06,0
140.76,-1.8463e-05,0
140.76,-2.9038e-05,0
140.76,-3.3402e-05,0
140.76,-4.8005e-05,0
140.76,-6.8482e-05,0
140.76,-8.5771e-05,0
140.76,-8.8457e-05,0
140.76,-7.4022e-05,0
140.76,-5.304e-05,0
140.76,-3.1891e-05,0
140.76,-1.2924e-05,0
140.76,4.8676e-06,0
140.76,1.8128e-05,0
140.76,3.827e-05,0
140.76,7.335e-05,0
140.76,0.00011212,0
140.77,0.00015744,0
140.77,0.00021535,0
140.77,0.00026806,0
140.77,0.00029206,0
140.77,0.00027309,0
140.77,0.00021233,0
140.77,0.00012824,0
140.77,4.0452e-05,0
140.77,-3.2563e-05,0
140.77,-8.0735e-05,0
140.77,-0.00010457,0
140.77,-0.00011363,0
140.77,-0.00011044,0
140.77,-9.7856e-05,0
140.77,-8.3421e-05,0
140.77,-7.2007e-05,0
140.77,-6.3783e-05,0
140.77,-5.1194e-05,0
140.77,-2.9038e-05,0
140.78,-5.0355e-07,0
140.78,2.4338e-05,0
140.78,3.8773e-05,0
140.78,4.1627e-05,0
140.78,3.978e-05,0
140.78,4.5487e-05,0
140.78,5.9251e-05,0
140.78,6.009e-05,0
140.78,4.6326e-05,0
140.78,3.4241e-05,0
140.78,3.3402e-05,0
140.78,4.5487e-05,0
140.78,6.5629e-05,0
140.78,8.8457e-05,0
140.78,0.00011263,0
140.78,0.00013764,0
140.78,0.00016953,0
140.78,0.00019857,0
140.78,0.00020226,0
140.79,0.00017775,0
140.79,0.0001415,0
140.79,0.00010809,0
140.79,7.6875e-05,0
140.79,4.4144e-05,0
140.79,9.2317e-06,0
140.79,-2.3163e-05,0
140.79,-4.7166e-05,0
140.79,-6.244e-05,0
140.79,-7.2175e-05,0
140.79,-7.8721e-05,0
140.79,-7.7546e-05,0
140.79,-7.1336e-05,0
140.79,-6.949e-05,0
140.79,-7.3014e-05,0
140.79,-7.6539e-05,0
140.79,-7.5532e-05,0
140.79,-6.8315e-05,0
140.79,-5.3208e-05,0
140.8,-3.122e-05,0
140.8,2.182e-06,0
140.8,4.5991e-05,0
140.8,9.3828e-05,0
140.8,0.0001378,0
140.8,0.00016281,0
140.8,0.00016298,0
140.8,0.00015023,0
140.8,0.00013277,0
140.8,0.00010692,0
140.8,8.1407e-05,0
140.8,7.2175e-05,0
140.8,7.5868e-05,0
140.8,8.2078e-05,0
140.8,8.5771e-05,0
140.8,9.1646e-05,0
140.8,9.6345e-05,0
140.8,9.6849e-05,0
140.8,8.8457e-05,0
140.81,6.1936e-05,0
140.81,3.2395e-05,0
140.81,1.8128e-05,0
140.81,1.4771e-05,0
140.81,1.2253e-05,0
140.81,1.1917e-05,0
140.81,2.2324e-05,0
140.81,4.4144e-05,0
140.81,5.8244e-05,0
140.81,5.0858e-05,0
140.81,3.5752e-05,0
140.81,2.2995e-05,0
140.81,-5.2033e-06,0
140.81,-5.3544e-05,0
140.81,-0.00010121,0
140.81,-0.00012689,0
140.81,-0.00012387,0
140.81,-9.3156e-05,0
140.81,-4.0116e-05,0
140.81,-1.5106e-06,0
140.82,-7.8889e-06,0
140.82,-3.978e-05,0
140.82,-6.8818e-05,0
140.82,-9.601e-05,0
140.82,-0.00012253,0
140.82,-0.00014922,0
140.82,-0.00018598,0
140.82,-0.00022039,0
140.82,-0.00023549,0
140.82,-0.00023851,0
140.82,-0.00023717,0
140.82,-0.00022744,0
140.82,-0.00021166,0
140.82,-0.00020444,0
140.82,-0.00021569,0
140.82,-0.00022475,0
140.82,-0.00019437,0
140.82,-0.00011901,0
140.82,-2.5681e-05,0
140.83,6.3615e-05,0
140.83,0.00012975,0
140.83,0.00017926,0
140.83,0.00022593,0
140.83,0.00025966,0
140.83,0.00026705,0
140.83,0.00025194,0
140.83,0.00022676,0
140.83,0.00019588,0
140.83,0.00016953,0
140.83,0.0001509,0
140.83,0.00012404,0
140.83,7.9057e-05,0
140.83,3.6255e-05,0
140.83,1.7624e-05,0
140.83,2.9374e-05,0
140.83,4.3977e-05,0
140.83,3.2898e-05,0
140.83,1.6785e-07,0
140.84,-3.5584e-05,0
140.84,-6.1936e-05,0
140.84,-7.5196e-05,0
140.84,-8.1743e-05,0
140.84,-8.4092e-05,0
140.84,-7.7211e-05,0
140.84,-4.8844e-05,0
140.84,-4.8676e-06,0
140.84,2.9877e-05,0
140.84,5.0019e-05,0
140.84,7.6707e-05,0
140.84,0.00011481,0
140.84,0.00014469,0
140.84,0.0001608,0
140.84,0.00016365,0
140.84,0.00014821,0
140.84,0.00011968,0
140.84,9.1478e-05,0
140.84,6.9657e-05,0
140.84,6.2943e-05,0
140.85,7.0329e-05,0
140.85,7.4357e-05,0
140.85,6.9993e-05,0
140.85,5.8579e-05,0
140.85,3.5752e-05,0
140.85,7.2175e-06,0
140.85,-9.7353e-06,0
140.85,6.2104e-06,0
140.85,4.8341e-05,0
140.85,8.4428e-05,0
140.85,0.00010054,0
140.85,0.0001039,0
140.85,9.9199e-05,0
140.85,8.9464e-05,0
140.85,7.6204e-05,0
140.85,5.8244e-05,0
140.85,3.7263e-05,0
140.85,2.3667e-05,0
140.85,2.3163e-05,0
140.86,3.4409e-05,0
140.86,4.448e-05,0
140.86,4.8508e-05,0
140.86,5.6901e-05,0
140.86,6.949e-05,0
140.86,8.04e-05,0
140.86,7.9057e-05,0
140.86,5.7908e-05,0
140.86,2.9877e-05,0
140.86,9.9031e-06,0
140.86,3.8605e-06,0
140.86,1.3931e-05,0
140.86,3.4745e-05,0
140.86,5.1362e-05,0
140.86,5.774e-05,0
140.86,5.623e-05,0
140.86,5.1194e-05,0
140.86,4.5151e-05,0
140.86,3.8773e-05,0
140.87,3.2059e-05,0
140.87,2.5345e-05,0
140.87,2.1653e-05,0
140.87,1.9974e-05,0
140.87,1.3931e-05,0
140.87,5.2033e-06,0
140.87,-1.6785e-07,0
140.87,1.8463e-06,0
140.87,5.539e-06,0
140.87,5.0355e-07,0
140.87,-1.2757e-05,0
140.87,-3.0213e-05,0
140.87,-5.2201e-05,0
140.87,-7.4189e-05,0
140.87,-8.7449e-05,0
140.87,-9.0806e-05,0
140.87,-8.8792e-05,0
140.87,-8.1239e-05,0
140.87,-6.5965e-05,0
140.88,-4.7669e-05,0
140.88,-3.6255e-05,0
140.88,-3.0045e-05,0
140.88,-1.8967e-05,0
140.88,-3.0213e-06,0
140.88,8.0568e-06,0
140.88,2.4506e-05,0
140.88,5.4047e-05,0
140.88,9.4331e-05,0
140.88,0.00015023,0
140.88,0.00022542,0
140.88,0.00028719,0
140.88,0.00031035,0
140.88,0.00031405,0
140.88,0.00031002,0
140.88,0.00029256,0
140.88,0.00025765,0
140.88,0.00020595,0
140.88,0.00013999,0
140.88,7.5532e-05,0
140.89,1.8128e-05,0
140.89,-5.1026e-05,0
140.89,-0.00012908,0
140.89,-0.00018665,0
140.89,-0.00022089,0
140.89,-0.00024825,0
140.89,-0.00026503,0
140.89,-0.00025782,0
140.89,-0.00023952,0
140.89,-0.00023331,0
140.89,-0.00025916,0
140.89,-0.00031203,0
140.89,-0.00036423,0
140.89,-0.00037984,0
140.89,-0.00035802,0
140.89,-0.00031472,0
140.89,-0.00025597,0
140.89,-0.00017473,0
140.89,-7.2679e-05,0
140.9,1.5274e-05,0
140.9,6.63e-05,0
140.9,8.9128e-05,0
140.9,8.896e-05,0
140.9,7.4189e-05,0
140.9,5.9419e-05,0
140.9,4.4144e-05,0
140.9,2.3667e-05,0
140.9,1.0239e-05,0
140.9,1.7456e-05,0
140.9,4.1794e-05,0
140.9,6.5965e-05,0
140.9,7.57e-05,0
140.9,8.04e-05,0
140.9,8.5603e-05,0
140.9,9.1478e-05,0
140.9,9.5171e-05,0
140.9,9.1814e-05,0
140.9,8.2246e-05,0
140.91,7.4189e-05,0
140.91,8.1743e-05,0
140.91,0.00012136,0
140.91,0.00018849,0
140.91,0.00026101,0
140.91,0.00030112,0
140.91,0.00029088,0
140.91,0.00024456,0
140.91,0.0001843,0
140.91,0.0001284,0
140.91,8.7449e-05,0
140.91,5.4551e-05,0
140.91,2.0478e-05,0
140.91,-1.3092e-05,0
140.91,-3.6423e-05,0
140.91,-4.2298e-05,0
140.91,-4.0116e-05,0
140.91,-3.8773e-05,0
140.91,-4.5487e-05,0
140.92,-6.1769e-05,0
140.92,-8.0064e-05,0
140.92,-8.6275e-05,0
140.92,-7.5364e-05,0
140.92,-4.8173e-05,0
140.92,-1.2085e-05,0
140.92,2.0981e-05,0
140.92,4.6662e-05,0
140.92,6.8986e-05,0
140.92,8.2918e-05,0
140.92,8.4428e-05,0
140.92,8.0232e-05,0
140.92,7.6036e-05,0
140.92,7.335e-05,0
140.92,7.1504e-05,0
140.92,7.1e-05,0
140.92,7.2343e-05,0
140.92,7.1504e-05,0
140.92,6.479e-05,0
140.92,5.2537e-05,0
140.93,4.448e-05,0
140.93,4.2802e-05,0
140.93,4.3305e-05,0
140.93,4.1291e-05,0
140.93,3.9277e-05,0
140.93,3.8102e-05,0
140.93,3.6423e-05,0
140.93,3.3906e-05,0
140.93,3.1724e-05,0
140.93,3.2059e-05,0
140.93,3.2563e-05,0
140.93,3.122e-05,0
140.93,3.2059e-05,0
140.93,3.9109e-05,0
140.93,4.7166e-05,0
140.93,5.153e-05,0
140.93,5.6901e-05,0
140.93,7.1504e-05,0
140.93,9.1142e-05,0
140.94,0.00010188,0
140.94,0.00010037,0
140.94,9.8863e-05,0
140.94,0.00010625,0
140.94,0.00012068,0
140.94,0.00013143,0
140.94,0.0001321,0
140.94,0.00012404,0
140.94,0.00011263,0
140.94,0.00010054,0
140.94,8.5771e-05,0
140.94,6.4622e-05,0
140.94,3.592e-05,0
140.94,1.6785e-07,0
140.94,-3.6591e-05,0
140.94,-6.4118e-05,0
140.94,-7.6707e-05,0
140.94,-7.5364e-05,0
140.94,-7.3014e-05,0
140.95,-8.1407e-05,0
140.95,-8.8457e-05,0
140.95,-8.6778e-05,0
140.95,-7.4189e-05,0
140.95,-4.7669e-05,0
140.95,-1.1749e-06,0
140.95,4.9851e-05,0
140.95,9.5506e-05,0
140.95,0.00012605,0
140.95,0.00013075,0
140.95,0.0001138,0
140.95,8.8457e-05,0
140.95,6.1265e-05,0
140.95,2.266e-05,0
140.95,-3.6423e-05,0
140.95,-0.00011431,0
140.95,-0.00018463,0
140.95,-0.00021552,0
140.95,-0.00020327,0
140.96,-0.00016533,0
140.96,-0.00014015,0
140.96,-0.0001368,0
140.96,-0.00014351,0
140.96,-0.0001462,0
140.96,-0.00013915,0
140.96,-0.00013529,0
140.96,-0.00013982,0
140.96,-0.00014502,0
140.96,-0.00013613,0
140.96,-0.00010961,0
140.96,-7.335e-05,0
140.96,-3.3906e-05,0
140.96,7.8889e-06,0
140.96,4.4144e-05,0
140.96,7.4189e-05,0
140.96,0.00010037,0
140.96,0.00011984,0
140.96,0.0001237,0
140.96,0.00011464,0
140.97,0.00010356,0
140.97,9.2821e-05,0
140.97,7.8553e-05,0
140.97,5.8412e-05,0
140.97,3.0716e-05,0
140.97,1.1749e-06,0
140.97,-1.0071e-05,0
140.97,-4.5319e-06,0
140.97,-3.6927e-06,0
140.97,-1.091e-05,0
140.97,-7.7211e-06,0
140.97,1.7121e-05,0
140.97,5.4887e-05,0
140.97,8.9128e-05,0
140.97,0.00012035,0
140.97,0.00016097,0
140.97,0.00020175,0
140.97,0.00021065,0
140.97,0.00017842,0
140.98,0.00013495,0
140.98,9.6513e-05,0
140.98,5.8747e-05,0
140.98,9.2317e-06,0
140.98,-4.9012e-05,0
140.98,-9.0806e-05,0
140.98,-9.9535e-05,0
140.98,-7.7379e-05,0
140.98,-4.4144e-05,0
140.98,-1.7624e-05,0
140.98,-1.0071e-05,0
140.98,-1.9303e-05,0
140.98,-2.3667e-05,0
140.98,-1.326e-05,0
140.98,-8.2246e-06,0
140.98,-1.4603e-05,0
140.98,-7.8889e-06,0
140.98,1.7624e-05,0
140.98,3.5752e-05,0
140.99,3.2395e-05,0
140.99,2.182e-05,0
140.99,2.0478e-05,0
140.99,2.8702e-05,0
140.99,3.592e-05,0
140.99,2.8367e-05,0
140.99,6.2104e-06,0
140.99,-1.8296e-05,0
140.99,-3.0884e-05,0
140.99,-2.6352e-05,0
140.99,-1.4435e-05,0
140.99,-7.8889e-06,0
140.99,-8.2246e-06,0
140.99,-9.5674e-06,0
140.99,2.5177e-06,0
140.99,3.0716e-05,0
140.99,6.4286e-05,0
140.99,9.5506e-05,0
140.99,0.00011481,0
141,0.00013008,0
141,0.00014032,0
141,0.00014586,0
141,0.00015224,0
141,0.00015358,0
141,0.00013814,0
141,0.00010625,0
141,6.6804e-05,0
141,3.3066e-05,0
141,1.6114e-05,0
141,1.2253e-05,0
141,1.3764e-05,0
141,8.7282e-06,0
141,-4.1962e-06,0
141,-8.896e-06,0
141,6.8818e-06,0
141,2.8702e-05,0
141,3.1724e-05,0
141,1.3931e-05,0
141,-8.5603e-06,0
141.01,-2.6017e-05,0
141.01,-3.6591e-05,0
141.01,-4.3809e-05,0
141.01,-4.8508e-05,0
141.01,-4.8173e-05,0
141.01,-3.9445e-05,0
141.01,-1.9303e-05,0
141.01,6.2104e-06,0
141.01,2.9206e-05,0
141.01,4.8676e-05,0
141.01,6.1265e-05,0
141.01,6.4286e-05,0
141.01,6.2272e-05,0
141.01,6.009e-05,0
141.01,6.6972e-05,0
141.01,9.0135e-05,0
141.01,0.00011246,0
141.01,0.00011901,0
141.01,0.00011733,0
141.02,0.0001138,0
141.02,0.00010927,0
141.02,0.00010054,0
141.02,7.9896e-05,0
141.02,5.1194e-05,0
141.02,2.6017e-05,0
141.02,1.1917e-05,0
141.02,7.8889e-06,0
141.02,7.3854e-06,0
141.02,6.5461e-06,0
141.02,8.2246e-06,0
141.02,1.4435e-05,0
141.02,2.031e-05,0
141.02,2.182e-05,0
141.02,1.5946e-05,0
141.02,1.3764e-05,0
141.02,2.7527e-05,0
141.02,5.1194e-05,0
141.02,7.0665e-05,0
141.03,8.0064e-05,0
141.03,7.6371e-05,0
141.03,5.4215e-05,0
141.03,1.1414e-05,0
141.03,-4.7166e-05,0
141.03,-9.752e-05,0
141.03,-0.0001185,0
141.03,-0.00010625,0
141.03,-7.4861e-05,0
141.03,-3.6423e-05,0
141.03,-1.5106e-06,0
141.03,2.4674e-05,0
141.03,2.7695e-05,0
141.03,-3.1891e-06,0
141.03,-4.8341e-05,0
141.03,-8.3421e-05,0
141.03,-0.0001044,0
141.03,-0.00011347,0
141.03,-0.0001086,0
141.03,-9.4163e-05,0
141.04,-8.1071e-05,0
141.04,-7.7379e-05,0
141.04,-7.3686e-05,0
141.04,-4.9516e-05,0
141.04,-1.2253e-05,0
141.04,2.4506e-05,0
141.04,6.6133e-05,0
141.04,0.00010591,0
141.04,0.00012555,0
141.04,0.00012303,0
141.04,0.00010524,0
141.04,8.1743e-05,0
141.04,6.6972e-05,0
141.04,7.7546e-05,0
141.04,9.752e-05,0
141.04,9.5506e-05,0
141.04,7.7379e-05,0
141.04,5.8244e-05,0
141.04,3.1724e-05,0
141.05,6.0426e-06,0
141.05,-1.5106e-06,0
141.05,-4.5319e-06,0
141.05,-1.0407e-05,0
141.05,-8.896e-06,0
141.05,3.5248e-06,0
141.05,2.1317e-05,0
141.05,4.2634e-05,0
141.05,6.8147e-05,0
141.05,7.9393e-05,0
141.05,6.2943e-05,0
141.05,2.4002e-05,0
141.05,-1.9974e-05,0
141.05,-5.8915e-05,0
141.05,-9.4835e-05,0
141.05,-0.00012773,0
141.05,-0.00014401,0
141.05,-0.0001425,0
141.05,-0.0001425,0
141.06,-0.00014653,0
141.06,-0.00014032,0
141.06,-0.00012169,0
141.06,-9.7185e-05,0
141.06,-6.8315e-05,0
141.06,-3.7263e-05,0
141.06,1.8463e-06,0
141.06,5.2033e-05,0
141.06,9.7017e-05,0
141.06,0.00012522,0
141.06,0.00013378,0
141.06,0.00012908,0
141.06,0.00011833,0
141.06,0.00011263,0
141.06,0.00012035,0
141.06,0.00012303,0
141.06,0.00010809,0
141.06,8.275e-05,0
141.06,4.7501e-05,0
141.07,-2.8534e-06,0
141.07,-4.8844e-05,0
141.07,-6.3951e-05,0
141.07,-5.153e-05,0
141.07,-2.4506e-05,0
141.07,1.1582e-05,0
141.07,4.5151e-05,0
141.07,6.6468e-05,0
141.07,7.4022e-05,0
141.07,6.7643e-05,0
141.07,5.3376e-05,0
141.07,4.1794e-05,0
141.07,4.1627e-05,0
141.07,5.3544e-05,0
141.07,7.0329e-05,0
141.07,9.0471e-05,0
141.07,0.00011582,0
141.07,0.00014183,0
141.07,0.00015828,0
141.07,0.00016701,0
141.08,0.00016466,0
141.08,0.00015207,0
141.08,0.00013008,0
141.08,0.00010407,0
141.08,8.04e-05,0
141.08,5.539e-05,0
141.08,2.8367e-05,0
141.08,2.3667e-05,0
141.08,5.3544e-05,0
141.08,8.5603e-05,0
141.08,9.0639e-05,0
141.08,7.1168e-05,0
141.08,4.2802e-05,0
141.08,1.4267e-05,0
141.08,-1.3596e-05,0
141.08,-4.5991e-05,0
141.08,-7.9561e-05,0
141.08,-0.00010306,0
141.08,-0.00011498,0
141.09,-0.0001138,0
141.09,-0.00010893,0
141.09,-0.00010759,0
141.09,-0.00011431,0
141.09,-0.00012522,0
141.09,-0.00012505,0
141.09,-0.00010709,0
141.09,-8.3085e-05,0
141.09,-5.9419e-05,0
141.09,-2.7695e-05,0
141.09,8.5603e-06,0
141.09,3.6088e-05,0
141.09,4.7837e-05,0
141.09,4.683e-05,0
141.09,4.062e-05,0
141.09,3.743e-05,0
141.09,3.743e-05,0
141.09,4.1459e-05,0
141.09,4.4816e-05,0
141.1,4.9851e-05,0
141.1,6.3951e-05,0
141.1,8.7114e-05,0
141.1,0.00011531,0
141.1,0.00014687,0
141.1,0.00017037,0
141.1,0.00017708,0
141.1,0.00017221,0
141.1,0.00016164,0
141.1,0.00014855,0
141.1,0.00013042,0
141.1,0.00010658,0
141.1,8.51e-05,0
141.1,6.5293e-05,0
141.1,3.5416e-05,0
141.1,-9.0639e-06,0
141.1,-6.0258e-05,0
141.1,-0.00010222,0
141.1,-0.00012404,0
141.11,-0.00012824,0
141.11,-0.00011666,0
141.11,-8.04e-05,0
141.11,-2.5849e-05,0
141.11,2.4002e-05,0
141.11,5.4215e-05,0
141.11,6.4286e-05,0
141.11,5.1865e-05,0
141.11,3.0381e-05,0
141.11,1.796e-05,0
141.11,1.5946e-05,0
141.11,1.1749e-05,0
141.11,-3.5248e-06,0
141.11,-2.5681e-05,0
141.11,-4.7166e-05,0
141.11,-6.3615e-05,0
141.11,-7.4693e-05,0
141.11,-8.0903e-05,0
141.11,-7.5868e-05,0
141.12,-6.0594e-05,0
141.12,-4.8173e-05,0
141.12,-3.8102e-05,0
141.12,-1.3931e-05,0
141.12,3.3738e-05,0
141.12,9.0806e-05,0
141.12,0.00013848,0
141.12,0.00016432,0
141.12,0.0001603,0
141.12,0.00013495,0
141.12,0.00010574,0
141.12,8.5435e-05,0
141.12,8.1071e-05,0
141.12,7.7714e-05,0
141.12,6.0258e-05,0
141.12,2.8702e-05,0
141.12,-3.357e-06,0
141.12,-2.5849e-05,0
141.12,-4.1123e-05,0
141.12,-4.9851e-05,0
141.13,-5.1026e-05,0
141.13,-4.4816e-05,0
141.13,-2.7024e-05,0
141.13,-8.3925e-07,0
141.13,1.561e-05,0
141.13,6.5461e-06,0
141.13,-1.1917e-05,0
141.13,-1.6785e-05,0
141.13,-1.6785e-06,0
141.13,1.6449e-05,0
141.13,1.9471e-05,0
141.13,8.5603e-06,0
141.13,-1.8463e-06,0
141.13,-8.3925e-07,0
141.13,3.3738e-05,0
141.13,0.00010121,0
141.13,0.00016231,0
141.13,0.00018245,0
141.13,0.00016735,0
141.14,0.00013948,0
141.14,0.00011464,0
141.14,8.8121e-05,0
141.14,4.213e-05,0
141.14,-1.6281e-05,0
141.14,-5.6565e-05,0
141.14,-7.4693e-05,0
141.14,-8.3757e-05,0
141.14,-9.4163e-05,0
141.14,-0.00011867,0
141.14,-0.0001613,0
141.14,-0.00020729,0
141.14,-0.00024187,0
141.14,-0.0002647,0
141.14,-0.00027779,0
141.14,-0.00028551,0
141.14,-0.00029055,0
141.14,-0.00027678,0
141.14,-0.0002313,0
141.15,-0.00017171,0
141.15,-0.00012035,0
141.15,-7.4189e-05,0
141.15,-2.8702e-05,0
141.15,1.5106e-05,0
141.15,5.2705e-05,0
141.15,8.7785e-05,0
141.15,0.0001284,0
141.15,0.00017372,0
141.15,0.00022005,0
141.15,0.00025815,0
141.15,0.00028182,0
141.15,0.00028853,0
141.15,0.00027443,0
141.15,0.00024053,0
141.15,0.00019219,0
141.15,0.00013042,0
141.15,7.6036e-05,0
141.15,5.4719e-05,0
141.16,5.6733e-05,0
141.16,6.1601e-05,0
141.16,6.3279e-05,0
141.16,5.8076e-05,0
141.16,4.4312e-05,0
141.16,2.8702e-05,0
141.16,2.3667e-05,0
141.16,2.6352e-05,0
141.16,3.3738e-05,0
141.16,4.6494e-05,0
141.16,5.623e-05,0
141.16,5.5222e-05,0
141.16,4.3977e-05,0
141.16,2.8367e-05,0
141.16,1.3596e-05,0
141.16,6.5461e-06,0
141.16,1.4603e-05,0
141.16,3.2059e-05,0
141.16,4.3473e-05,0
141.16,4.4816e-05,0
141.17,4.1123e-05,0
141.17,3.4745e-05,0
141.17,3.8102e-05,0
141.17,5.6565e-05,0
141.17,7.7714e-05,0
141.17,8.8792e-05,0
141.17,8.3589e-05,0
141.17,6.949e-05,0
141.17,6.1936e-05,0
141.17,6.2943e-05,0
141.17,5.9251e-05,0
141.17,4.8173e-05,0
141.17,3.6591e-05,0
141.17,2.7695e-05,0
141.17,2.3835e-05,0
141.17,2.5849e-05,0
141.17,3.3738e-05,0
141.17,4.3473e-05,0
141.17,5.623e-05,0
141.18,7.3686e-05,0
141.18,9.1814e-05,0
141.18,0.00010155,0
141.18,9.3156e-05,0
141.18,6.8986e-05,0
141.18,3.8773e-05,0
141.18,1.4939e-05,0
141.18,8.3925e-07,0
141.18,-8.2246e-06,0
141.18,-1.3764e-05,0
141.18,-1.1582e-05,0
141.18,-2.182e-06,0
141.18,1.4435e-05,0
141.18,4.1794e-05,0
141.18,6.4118e-05,0
141.18,6.4958e-05,0
141.18,4.7333e-05,0
141.18,1.7624e-05,0
141.18,-1.6953e-05,0
141.19,-4.1794e-05,0
141.19,-4.918e-05,0
141.19,-5.0523e-05,0
141.19,-5.6565e-05,0
141.19,-5.623e-05,0
141.19,-3.8941e-05,0
141.19,-1.4099e-05,0
141.19,1.8463e-06,0
141.19,9.2317e-06,0
141.19,1.7288e-05,0
141.19,2.9374e-05,0
141.19,3.8102e-05,0
141.19,3.7263e-05,0
141.19,3.3066e-05,0
141.19,4.8676e-05,0
141.19,9.3828e-05,0
141.19,0.00014166,0
141.19,0.00016634,0
141.19,0.00016533,0
141.19,0.00013982,0
141.2,9.7185e-05,0
141.2,5.153e-05,0
141.2,1.5442e-05,0
141.2,-1.2253e-05,0
141.2,-3.743e-05,0
141.2,-5.4887e-05,0
141.2,-5.6062e-05,0
141.2,-4.918e-05,0
141.2,-5.6733e-05,0
141.2,-8.6107e-05,0
141.2,-0.00012538,0
141.2,-0.00016365,0
141.2,-0.00019789,0
141.2,-0.00022979,0
141.2,-0.00026117,0
141.2,-0.00028031,0
141.2,-0.00027863,0
141.2,-0.00025748,0
141.2,-0.00021921,0
141.21,-0.0001754,0
141.21,-0.00013059,0
141.21,-7.5029e-05,0
141.21,-6.0426e-06,0
141.21,6.0258e-05,0
141.21,0.00010188,0
141.21,0.00010944,0
141.21,0.00010188,0
141.21,0.00011061,0
141.21,0.0001378,0
141.21,0.00016768,0
141.21,0.00018648,0
141.21,0.00019001,0
141.21,0.0001744,0
141.21,0.00014485,0
141.21,0.00011431,0
141.21,8.51e-05,0
141.21,5.7237e-05,0
141.21,3.743e-05,0
141.22,3.1724e-05,0
141.22,4.0452e-05,0
141.22,5.9922e-05,0
141.22,6.7979e-05,0
141.22,5.9083e-05,0
141.22,4.6159e-05,0
141.22,4.2802e-05,0
141.22,5.0858e-05,0
141.22,5.069e-05,0
141.22,2.9709e-05,0
141.22,-2.5177e-06,0
141.22,-3.1724e-05,0
141.22,-5.774e-05,0
141.22,-8.1743e-05,0
141.22,-9.3828e-05,0
141.22,-8.3085e-05,0
141.22,-6.6133e-05,0
141.22,-6.1601e-05,0
141.22,-6.0761e-05,0
141.23,-4.448e-05,0
141.23,-1.0575e-05,0
141.23,2.4002e-05,0
141.23,4.3473e-05,0
141.23,5.6062e-05,0
141.23,8.6442e-05,0
141.23,0.00013277,0
141.23,0.00017003,0
141.23,0.00018447,0
141.23,0.00017775,0
141.23,0.00015392,0
141.23,0.00011766,0
141.23,8.661e-05,0
141.23,6.5293e-05,0
141.23,4.2802e-05,0
141.23,2.4674e-05,0
141.23,1.9974e-05,0
141.23,1.6785e-05,0
141.23,1.0575e-05,0
141.23,9.2317e-06,0
141.24,1.5442e-05,0
141.24,2.4002e-05,0
141.24,2.887e-05,0
141.24,3.0716e-05,0
141.24,2.9541e-05,0
141.24,1.8967e-05,0
141.24,-6.5461e-06,0
141.24,-3.3402e-05,0
141.24,-3.508e-05,0
141.24,-6.5461e-06,0
141.24,2.5345e-05,0
141.24,3.7934e-05,0
141.24,3.4241e-05,0
141.24,2.5681e-05,0
141.24,2.0645e-05,0
141.24,1.8631e-05,0
141.24,2.2492e-05,0
141.24,3.8437e-05,0
141.24,6.3951e-05,0
141.25,8.1071e-05,0
141.25,7.7379e-05,0
141.25,6.0258e-05,0
141.25,3.9109e-05,0
141.25,1.7288e-05,0
141.25,1.1749e-06,0
141.25,5.0355e-07,0
141.25,1.4603e-05,0
141.25,2.6017e-05,0
141.25,2.5345e-05,0
141.25,2.5513e-05,0
141.25,3.4745e-05,0
141.25,4.683e-05,0
141.25,5.6733e-05,0
141.25,6.0594e-05,0
141.25,5.4551e-05,0
141.25,3.1724e-05,0
141.25,3.5248e-06,0
141.25,4.5319e-06,0
141.26,4.1459e-05,0
141.26,8.51e-05,0
141.26,0.0001086,0
141.26,0.00010977,0
141.26,9.5674e-05,0
141.26,7.0665e-05,0
141.26,3.8437e-05,0
141.26,1.6785e-07,0
141.26,-3.4745e-05,0
141.26,-5.6062e-05,0
141.26,-5.9586e-05,0
141.26,-5.0858e-05,0
141.26,-3.3402e-05,0
141.26,-1.2421e-05,0
141.26,4.3641e-06,0
141.26,1.5274e-05,0
141.26,2.5849e-05,0
141.26,3.8773e-05,0
141.26,4.8173e-05,0
141.26,5.2033e-05,0
141.27,6.1265e-05,0
141.27,7.1672e-05,0
141.27,7.2007e-05,0
141.27,6.2943e-05,0
141.27,4.8508e-05,0
141.27,2.7359e-05,0
141.27,-1.091e-05,0
141.27,-5.9922e-05,0
141.27,-9.6178e-05,0
141.27,-0.00011565,0
141.27,-0.00012538,0
141.27,-0.00012773,0
141.27,-0.00012169,0
141.27,-0.00010776,0
141.27,-8.3421e-05,0
141.27,-4.9012e-05,0
141.27,-1.9471e-05,0
141.27,9.2317e-06,0
141.27,5.2705e-05,0
141.28,0.00010021,0
141.28,0.00012807,0
141.28,0.00012538,0
141.28,9.8863e-05,0
141.28,6.4286e-05,0
141.28,4.3977e-05,0
141.28,4.5487e-05,0
141.28,4.5487e-05,0
141.28,2.182e-05,0
141.28,-8.896e-06,0
141.28,-3.6591e-05,0
141.28,-6.865e-05,0
141.28,-9.7856e-05,0
141.28,-0.00010927,0
141.28,-0.00011397,0
141.28,-0.00012589,0
141.28,-0.0001462,0
141.28,-0.00016164,0
141.28,-0.00015258,0
141.29,-0.00012471,0
141.29,-9.752e-05,0
141.29,-7.5029e-05,0
141.29,-5.0523e-05,0
141.29,-2.1149e-05,0
141.29,3.357e-06,0
141.29,2.4674e-05,0
141.29,4.6998e-05,0
141.29,6.3279e-05,0
141.29,7.2007e-05,0
141.29,7.7714e-05,0
141.29,8.1575e-05,0
141.29,8.1743e-05,0
141.29,7.805e-05,0
141.29,7.0329e-05,0
141.29,5.4215e-05,0
141.29,3.0884e-05,0
141.29,1.4435e-05,0
141.29,1.9806e-05,0
141.3,3.9109e-05,0
141.3,5.2705e-05,0
141.3,6.7475e-05,0
141.3,9.1981e-05,0
141.3,0.00011061,0
141.3,0.00010507,0
141.3,7.7379e-05,0
141.3,4.5823e-05,0
141.3,2.5177e-05,0
141.3,1.8631e-05,0
141.3,2.4002e-05,0
141.3,3.3234e-05,0
141.3,3.9445e-05,0
141.3,4.3809e-05,0
141.3,5.153e-05,0
141.3,6.3615e-05,0
141.3,7.4525e-05,0
141.3,8.2078e-05,0
141.3,8.51e-05,0
141.31,8.9464e-05,0
141.31,0.0001138,0
141.31,0.00016634,0
141.31,0.00021904,0
141.31,0.00024422,0
141.31,0.000237,0
141.31,0.0002083,0
141.31,0.0001749,0
141.31,0.00013848,0
141.31,9.4163e-05,0
141.31,3.8773e-05,0
141.31,-2.0813e-05,0
141.31,-6.63e-05,0
141.31,-8.8457e-05,0
141.31,-9.7353e-05,0
141.31,-0.00010306,0
141.31,-0.0001086,0
141.31,-0.00011766,0
141.31,-0.0001237,0
141.31,-0.00012287,0
141.32,-0.00011498,0
141.32,-8.9799e-05,0
141.32,-4.3305e-05,0
141.32,1.0071e-06,0
141.32,2.4338e-05,0
141.32,2.8031e-05,0
141.32,2.7024e-05,0
141.32,3.0381e-05,0
141.32,3.592e-05,0
141.32,4.1459e-05,0
141.32,4.5655e-05,0
141.32,4.8173e-05,0
141.32,5.0523e-05,0
141.32,4.9516e-05,0
141.32,4.2466e-05,0
141.32,3.2059e-05,0
141.32,2.2492e-05,0
141.32,1.6281e-05,0
141.32,1.4603e-05,0
141.33,1.4603e-05,0
141.33,1.4435e-05,0
141.33,1.091e-05,0
141.33,4.1962e-06,0
141.33,6.714e-07,0
141.33,7.2175e-06,0
141.33,2.1988e-05,0
141.33,3.9445e-05,0
141.33,5.5055e-05,0
141.33,6.6636e-05,0
141.33,7.7714e-05,0
141.33,9.9199e-05,0
141.33,0.00012589,0
141.33,0.00014418,0
141.33,0.00015325,0
141.33,0.00016365,0
141.33,0.0001791,0
141.33,0.00019689,0
141.33,0.00021065,0
141.34,0.00020662,0
141.34,0.00018077,0
141.34,0.00014452,0
141.34,0.00010658,0
141.34,7.2175e-05,0
141.34,4.0452e-05,0
141.34,-5.0355e-07,0
141.34,-5.2537e-05,0
141.34,-0.00010541,0
141.34,-0.00015492,0
141.34,-0.00019689,0
141.34,-0.00022106,0
141.34,-0.00022911,0
141.34,-0.00023281,0
141.34,-0.00022811,0
141.34,-0.00020461,0
141.34,-0.00016349,0
141.34,-0.00011263,0
141.34,-6.6804e-05,0
141.34,-3.743e-05,0
141.35,-1.561e-05,0
141.35,1.2589e-05,0
141.35,3.8941e-05,0
141.35,5.2873e-05,0
141.35,6.2943e-05,0
141.35,7.7714e-05,0
141.35,8.1743e-05,0
141.35,6.8315e-05,0
141.35,4.4144e-05,0
141.35,1.5946e-05,0
141.35,-7.2175e-06,0
141.35,-1.8296e-05,0
141.35,-2.3835e-05,0
141.35,-2.9206e-05,0
141.35,-3.7263e-05,0
141.35,-4.2634e-05,0
141.35,-3.743e-05,0
141.35,-3.4745e-05,0
141.35,-4.683e-05,0
141.36,-6.9993e-05,0
141.36,-8.8457e-05,0
141.36,-8.3421e-05,0
141.36,-5.7572e-05,0
141.36,-2.7695e-05,0
141.36,2.8534e-06,0
141.36,3.8605e-05,0
141.36,7.7714e-05,0
141.36,0.00011598,0
141.36,0.0001509,0
141.36,0.00017406,0
141.36,0.00018212,0
141.36,0.00017691,0
141.36,0.00016634,0
141.36,0.00015828,0
141.36,0.00015291,0
141.36,0.00013596,0
141.36,0.00010256,0
141.36,6.0426e-05,0
141.37,3.122e-05,0
141.37,2.1317e-05,0
141.37,1.4603e-05,0
141.37,-3.6927e-06,0
141.37,-2.9877e-05,0
141.37,-5.5222e-05,0
141.37,-7.6204e-05,0
141.37,-0.00010222,0
141.37,-0.00012924,0
141.37,-0.00014385,0
141.37,-0.00013898,0
141.37,-0.00011145,0
141.37,-7.1504e-05,0
141.37,-3.5416e-05,0
141.37,-8.896e-06,0
141.37,1.0071e-06,0
141.37,-7.0497e-06,0
141.37,-1.8296e-05,0
141.37,-1.7624e-05,0
141.38,-1.0071e-05,0
141.38,-1.1749e-06,0
141.38,1.2253e-05,0
141.38,3.0045e-05,0
141.38,4.4984e-05,0
141.38,4.9851e-05,0
141.38,4.1794e-05,0
141.38,2.9038e-05,0
141.38,2.266e-05,0
141.38,2.4674e-05,0
141.38,3.2059e-05,0
141.38,4.1794e-05,0
141.38,5.8747e-05,0
141.38,8.9799e-05,0
141.38,0.00012992,0
141.38,0.00015677,0
141.38,0.00015627,0
141.38,0.0001368,0
141.38,0.00012421,0
141.38,0.00014485,0
141.39,0.00019152,0
141.39,0.00022206,0
141.39,0.00020394,0
141.39,0.00015023,0
141.39,8.5771e-05,0
141.39,2.1317e-05,0
141.39,-3.0716e-05,0
141.39,-5.9251e-05,0
141.39,-6.6972e-05,0
141.39,-5.8579e-05,0
141.39,-3.4913e-05,0
141.39,-8.7282e-06,0
141.39,-1.5106e-06,0
141.39,-1.8967e-05,0
141.39,-4.1794e-05,0
141.39,-5.6565e-05,0
141.39,-5.8747e-05,0
141.39,-4.5487e-05,0
141.39,-2.0478e-05,0
141.4,2.8534e-06,0
141.4,1.5442e-05,0
141.4,2.1988e-05,0
141.4,2.7527e-05,0
141.4,3.3738e-05,0
141.4,3.8437e-05,0
141.4,3.8102e-05,0
141.4,3.508e-05,0
141.4,3.4577e-05,0
141.4,4.1459e-05,0
141.4,5.388e-05,0
141.4,6.0258e-05,0
141.4,6.1769e-05,0
141.4,6.5126e-05,0
141.4,7.1672e-05,0
141.4,7.6036e-05,0
141.4,7.6204e-05,0
141.4,7.57e-05,0
141.4,7.9728e-05,0
141.41,9.2149e-05,0
141.41,0.00011112,0
141.41,0.00012522,0
141.41,0.00012035,0
141.41,8.896e-05,0
141.41,4.4312e-05,0
141.41,5.0355e-07,0
141.41,-3.3066e-05,0
141.41,-5.069e-05,0
141.41,-5.8076e-05,0
141.41,-7.1839e-05,0
141.41,-9.3492e-05,0
141.41,-0.00010776,0
141.41,-0.00010491,0
141.41,-8.9799e-05,0
141.41,-7.3854e-05,0
141.41,-6.4622e-05,0
141.41,-6.1769e-05,0
141.41,-5.8579e-05,0
141.42,-3.6088e-05,0
141.42,1.5106e-06,0
141.42,3.1556e-05,0
141.42,4.1123e-05,0
141.42,3.4745e-05,0
141.42,2.8031e-05,0
141.42,2.6688e-05,0
141.42,1.9974e-05,0
141.42,1.6785e-07,0
141.42,-2.5681e-05,0
141.42,-4.6494e-05,0
141.42,-6.2272e-05,0
141.42,-7.7546e-05,0
141.42,-8.7114e-05,0
141.42,-8.2414e-05,0
141.42,-6.4958e-05,0
141.42,-3.4409e-05,0
141.42,9.7353e-06,0
141.42,6.9657e-05,0
141.43,0.00013696,0
141.43,0.00019185,0
141.43,0.00022676,0
141.43,0.00024338,0
141.43,0.00024154,0
141.43,0.0002172,0
141.43,0.00017238,0
141.43,0.00011733,0
141.43,5.9922e-05,0
141.43,8.3925e-06,0
141.43,-2.652e-05,0
141.43,-4.5823e-05,0
141.43,-6.244e-05,0
141.43,-8.04e-05,0
141.43,-8.9967e-05,0
141.43,-7.9561e-05,0
141.43,-4.5319e-05,0
141.43,-7.7211e-06,0
141.43,1.5106e-05,0
141.43,3.508e-05,0
141.44,5.5726e-05,0
141.44,6.7475e-05,0
141.44,6.8147e-05,0
141.44,6.5629e-05,0
141.44,5.5558e-05,0
141.44,2.4506e-05,0
141.44,-2.4506e-05,0
141.44,-6.714e-05,0
141.44,-8.7953e-05,0
141.44,-9.4163e-05,0
141.44,-0.00010121,0
141.44,-0.00011666,0
141.44,-0.00013059,0
141.44,-0.00013176,0
141.44,-0.00012102,0
141.44,-0.00010356,0
141.44,-8.6442e-05,0
141.44,-7.2175e-05,0
141.44,-5.623e-05,0
141.45,-3.3738e-05,0
141.45,6.714e-07,0
141.45,4.4312e-05,0
141.45,8.0903e-05,0
141.45,9.8695e-05,0
141.45,0.00010759,0
141.45,0.00011783,0
141.45,0.00012807,0
141.45,0.00013512,0
141.45,0.00014653,0
141.45,0.00017574,0
141.45,0.00021015,0
141.45,0.00021669,0
141.45,0.00017574,0
141.45,0.00010658,0
141.45,4.3809e-05,0
141.45,3.8605e-06,0
141.45,-9.5674e-06,0
141.45,-9.9031e-06,0
141.46,-1.326e-05,0
141.46,-2.2492e-05,0
141.46,-3.592e-05,0
141.46,-5.6062e-05,0
141.46,-7.5868e-05,0
141.46,-8.0064e-05,0
141.46,-6.5629e-05,0
141.46,-4.1291e-05,0
141.46,-1.5778e-05,0
141.46,7.0497e-06,0
141.46,2.4674e-05,0
141.46,3.2731e-05,0
141.46,3.1052e-05,0
141.46,2.7024e-05,0
141.46,2.8031e-05,0
141.46,3.3402e-05,0
141.46,3.8437e-05,0
141.46,4.2802e-05,0
141.46,4.8173e-05,0
141.47,5.5558e-05,0
141.47,6.6468e-05,0
141.47,8.3421e-05,0
141.47,0.00010843,0
141.47,0.00013176,0
141.47,0.00014066,0
141.47,0.00013411,0
141.47,0.00011598,0
141.47,9.2485e-05,0
141.47,7.4022e-05,0
141.47,6.5965e-05,0
141.47,5.8244e-05,0
141.47,4.1459e-05,0
141.47,2.1317e-05,0
141.47,1.1414e-05,0
141.47,1.2589e-05,0
141.47,2.0478e-05,0
141.47,3.0716e-05,0
141.47,4.1794e-05,0
141.47,4.5991e-05,0
141.48,3.508e-05,0
141.48,1.4603e-05,0
141.48,2.6856e-06,0
141.48,1.3428e-05,0
141.48,3.8773e-05,0
141.48,5.5222e-05,0
141.48,5.8244e-05,0
141.48,5.0523e-05,0
141.48,3.2395e-05,0
141.48,7.7211e-06,0
141.48,-1.7288e-05,0
141.48,-4.1123e-05,0
141.48,-7.1839e-05,0
141.48,-0.0001044,0
141.48,-0.00012438,0
141.48,-0.00011833,0
141.48,-9.2317e-05,0
141.48,-6.6133e-05,0
141.48,-4.5487e-05,0
141.49,-2.4674e-05,0
141.49,-6.8818e-06,0
141.49,-4.8676e-06,0
141.49,-1.6449e-05,0
141.49,-1.2421e-05,0
141.49,1.7456e-05,0
141.49,5.2873e-05,0
141.49,7.9728e-05,0
141.49,0.00010121,0
141.49,0.00011682,0
141.49,0.00011447,0
141.49,7.8721e-05,0
141.49,2.4674e-05,0
141.49,-2.0981e-05,0
141.49,-4.9851e-05,0
141.49,-7.3014e-05,0
141.49,-9.4163e-05,0
141.49,-0.00010877,0
141.49,-0.00011783,0
141.5,-0.00013159,0
141.5,-0.00015023,0
141.5,-0.00016214,0
141.5,-0.00015996,0
141.5,-0.0001519,0
141.5,-0.00014401,0
141.5,-0.0001326,0
141.5,-0.00011548,0
141.5,-8.7617e-05,0
141.5,-5.3208e-05,0
141.5,-1.8799e-05,0
141.5,1.561e-05,0
141.5,5.7237e-05,0
141.5,0.00011179,0
141.5,0.00016399,0
141.5,0.00020763,0
141.5,0.00023818,0
141.5,0.00025295,0
141.5,0.00025362,0
141.5,0.00023969,0
141.51,0.00020797,0
141.51,0.0001744,0
141.51,0.00015258,0
141.51,0.0001274,0
141.51,9.0303e-05,0
141.51,4.5487e-05,0
141.51,8.3925e-07,0
141.51,-3.6759e-05,0
141.51,-5.4047e-05,0
141.51,-5.2201e-05,0
141.51,-4.6326e-05,0
141.51,-2.9374e-05,0
141.51,6.714e-07,0
141.51,2.3331e-05,0
141.51,1.9638e-05,0
141.51,-6.2104e-06,0
141.51,-3.1724e-05,0
141.51,-4.6494e-05,0
141.51,-5.4215e-05,0
141.52,-5.7404e-05,0
141.52,-5.6062e-05,0
141.52,-4.7837e-05,0
141.52,-2.9709e-05,0
141.52,-4.8676e-06,0
141.52,1.326e-05,0
141.52,1.8967e-05,0
141.52,1.8128e-05,0
141.52,1.6953e-05,0
141.52,2.0981e-05,0
141.52,3.5248e-05,0
141.52,5.0858e-05,0
141.52,5.5222e-05,0
141.52,4.7501e-05,0
141.52,3.4073e-05,0
141.52,2.1988e-05,0
141.52,1.2757e-05,0
141.52,8.5603e-06,0
141.52,7.7211e-06,0
141.53,9.7353e-06,0
141.53,1.8296e-05,0
141.53,3.2059e-05,0
141.53,4.4144e-05,0
141.53,5.4887e-05,0
141.53,6.9322e-05,0
141.53,8.275e-05,0
141.53,9.1646e-05,0
141.53,9.4835e-05,0
141.53,9.8527e-05,0
141.53,0.00011498,0
141.53,0.00013143,0
141.53,0.00012874,0
141.53,0.00010323,0
141.53,6.4958e-05,0
141.53,2.6352e-05,0
141.53,-5.7069e-06,0
141.53,-2.4338e-05,0
141.53,-3.2059e-05,0
141.53,-3.978e-05,0
141.54,-4.4648e-05,0
141.54,-3.8437e-05,0
141.54,-2.501e-05,0
141.54,-1.5778e-05,0
141.54,-1.1246e-05,0
141.54,-6.714e-07,0
141.54,1.6617e-05,0
141.54,3.4409e-05,0
141.54,5.0858e-05,0
141.54,6.3951e-05,0
141.54,7.4525e-05,0
141.54,8.6946e-05,0
141.54,0.00010457,0
141.54,0.00012068,0
141.54,0.0001237,0
141.54,0.00012001,0
141.54,0.00011934,0
141.54,0.00011598,0
141.54,0.00010491,0
141.55,9.0639e-05,0
141.55,7.1672e-05,0
141.55,4.9516e-05,0
141.55,3.7934e-05,0
141.55,4.2802e-05,0
141.55,5.153e-05,0
141.55,5.0858e-05,0
141.55,4.2466e-05,0
141.55,3.3402e-05,0
141.55,2.8702e-05,0
141.55,1.9471e-05,0
141.55,6.8818e-06,0
141.55,-5.2033e-06,0
141.55,-1.3596e-05,0
141.55,-2.9206e-05,0
141.55,-5.7572e-05,0
141.55,-9.0135e-05,0
141.55,-0.00011649,0
141.55,-0.00012622,0
141.56,-0.00011598,0
141.56,-9.4667e-05,0
141.56,-7.9057e-05,0
141.56,-7.8721e-05,0
141.56,-8.1575e-05,0
141.56,-7.6707e-05,0
141.56,-6.9993e-05,0
141.56,-6.5965e-05,0
141.56,-6.4286e-05,0
141.56,-6.8986e-05,0
141.56,-6.714e-05,0
141.56,-4.4144e-05,0
141.56,-1.1246e-05,0
141.56,1.4603e-05,0
141.56,3.1724e-05,0
141.56,4.4144e-05,0
141.56,5.9251e-05,0
141.56,6.9322e-05,0
141.56,6.3951e-05,0
141.57,5.388e-05,0
141.57,4.6662e-05,0
141.57,3.9109e-05,0
141.57,2.6688e-05,0
141.57,1.5778e-05,0
141.57,1.5778e-05,0
141.57,1.7792e-05,0
141.57,1.326e-05,0
141.57,4.5319e-06,0
141.57,6.714e-07,0
141.57,8.896e-06,0
141.57,2.2156e-05,0
141.57,2.7359e-05,0
141.57,2.2828e-05,0
141.57,2.182e-05,0
141.57,2.0981e-05,0
141.57,1.3764e-05,0
141.57,3.357e-06,0
141.57,-6.3783e-06,0
141.57,-1.1582e-05,0
141.58,-1.8799e-05,0
141.58,-3.3402e-05,0
141.58,-5.0523e-05,0
141.58,-6.1433e-05,0
141.58,-6.3951e-05,0
141.58,-6.6133e-05,0
141.58,-6.8818e-05,0
141.58,-6.0426e-05,0
141.58,-3.6927e-05,0
141.58,-8.5603e-06,0
141.58,1.2589e-05,0
141.58,2.182e-05,0
141.58,1.9974e-05,0
141.58,2.1988e-05,0
141.58,4.683e-05,0
141.58,8.6778e-05,0
141.58,0.000118,0
141.58,0.00013075,0
141.58,0.00012454,0
141.59,0.00010893,0
141.59,9.752e-05,0
141.59,9.6345e-05,0
141.59,9.987e-05,0
141.59,0.00010256,0
141.59,0.00010658,0
141.59,0.00010961,0
141.59,0.00010558,0
141.59,9.5842e-05,0
141.59,8.1575e-05,0
141.59,6.4286e-05,0
141.59,4.3641e-05,0
141.59,2.5681e-05,0
141.59,1.7624e-05,0
141.59,1.0575e-05,0
141.59,7.8889e-06,0
141.59,2.5345e-05,0
141.59,5.3544e-05,0
141.59,7.4189e-05,0
141.6,7.4693e-05,0
141.6,5.5222e-05,0
141.6,2.6017e-05,0
141.6,-4.5319e-06,0
141.6,-2.5681e-05,0
141.6,-3.0213e-05,0
141.6,-2.1653e-05,0
141.6,-1.091e-05,0
141.6,-3.1891e-06,0
141.6,-1.5106e-06,0
141.6,-4.6998e-06,0
141.6,-9.9031e-06,0
141.6,-1.3092e-05,0
141.6,-1.2757e-05,0
141.6,-1.0071e-05,0
141.6,-7.5532e-06,0
141.6,-5.7069e-06,0
141.6,-2.8534e-06,0
141.6,-6.714e-06,0
141.61,-1.8631e-05,0
141.61,-2.8367e-05,0
141.61,-3.1556e-05,0
141.61,-3.2563e-05,0
141.61,-3.1724e-05,0
141.61,-2.0981e-05,0
141.61,3.0213e-06,0
141.61,2.6352e-05,0
141.61,3.9277e-05,0
141.61,4.4984e-05,0
141.61,4.9516e-05,0
141.61,5.3208e-05,0
141.61,5.7572e-05,0
141.61,6.5293e-05,0
141.61,7.6371e-05,0
141.61,9.7856e-05,0
141.61,0.00012773,0
141.61,0.00015258,0
141.61,0.00016768,0
141.62,0.00017977,0
141.62,0.00018682,0
141.62,0.00019286,0
141.62,0.0002083,0
141.62,0.00021971,0
141.62,0.00021099,0
141.62,0.00018329,0
141.62,0.00014418,0
141.62,9.5003e-05,0
141.62,3.3402e-05,0
141.62,-3.122e-05,0
141.62,-8.1071e-05,0
141.62,-0.00010423,0
141.62,-9.9031e-05,0
141.62,-8.4428e-05,0
141.62,-8.3421e-05,0
141.62,-0.00010323,0
141.62,-0.00013411,0
141.62,-0.00016483,0
141.62,-0.00018799,0
141.63,-0.00020008,0
141.63,-0.00020226,0
141.63,-0.00018698,0
141.63,-0.00015459,0
141.63,-0.00011447,0
141.63,-7.3518e-05,0
141.63,-3.508e-05,0
141.63,8.3925e-07,0
141.63,3.1388e-05,0
141.63,6.244e-05,0
141.63,0.00010407,0
141.63,0.00014217,0
141.63,0.00014418,0
141.63,0.00010524,0
141.63,5.6733e-05,0
141.63,1.7624e-05,0
141.63,-1.5106e-05,0
141.63,-3.5752e-05,0
141.63,-4.3473e-05,0
141.64,-4.0787e-05,0
141.64,-3.3066e-05,0
141.64,-3.508e-05,0
141.64,-5.0523e-05,0
141.64,-6.8986e-05,0
141.64,-7.5364e-05,0
141.64,-6.9154e-05,0
141.64,-6.3279e-05,0
141.64,-6.4958e-05,0
141.64,-6.5293e-05,0
141.64,-5.5558e-05,0
141.64,-3.0884e-05,0
141.64,3.8605e-06,0
141.64,4.8173e-05,0
141.64,9.3828e-05,0
141.64,0.00012236,0
141.64,0.00012807,0
141.64,0.00011414,0
141.64,8.8457e-05,0
141.65,5.8579e-05,0
141.65,3.1556e-05,0
141.65,9.7353e-06,0
141.65,0,0
141.65,1.0239e-05,0
141.65,3.5248e-05,0
141.65,6.4286e-05,0
141.65,8.4764e-05,0
141.65,8.4428e-05,0
141.65,5.9419e-05,0
141.65,2.3835e-05,0
141.65,-5.0355e-07,0
141.65,-8.2246e-06,0
141.65,-1.3931e-05,0
141.65,-2.3835e-05,0
141.65,-2.4338e-05,0
141.65,-6.2104e-06,0
141.65,1.8631e-05,0
141.65,3.6591e-05,0
141.66,4.2634e-05,0
141.66,3.7934e-05,0
141.66,2.7024e-05,0
141.66,1.4939e-05,0
141.66,1.4771e-05,0
141.66,3.0549e-05,0
141.66,5.0187e-05,0
141.66,5.4719e-05,0
141.66,3.7598e-05,0
141.66,8.5603e-06,0
141.66,-1.9471e-05,0
141.66,-3.743e-05,0
141.66,-4.1459e-05,0
141.66,-3.8437e-05,0
141.66,-2.9877e-05,0
141.66,-1.5106e-05,0
141.66,5.2033e-06,0
141.66,2.6688e-05,0
141.66,4.3473e-05,0
141.66,5.5558e-05,0
141.67,6.6133e-05,0
141.67,7.2343e-05,0
141.67,7.5029e-05,0
141.67,7.6875e-05,0
141.67,8.1407e-05,0
141.67,8.7114e-05,0
141.67,9.6178e-05,0
141.67,0.00011128,0
141.67,0.00012522,0
141.67,0.00013176,0
141.67,0.00012773,0
141.67,0.00011531,0
141.67,0.00010155,0
141.67,8.2414e-05,0
141.67,6.0929e-05,0
141.67,4.0116e-05,0
141.67,1.5946e-05,0
141.67,-6.5461e-06,0
141.67,-1.1749e-05,0
141.68,2.182e-06,0
141.68,2.8031e-05,0
141.68,5.1865e-05,0
141.68,6.6636e-05,0
141.68,7.1672e-05,0
141.68,6.7643e-05,0
141.68,5.1865e-05,0
141.68,2.7359e-05,0
141.68,2.5177e-06,0
141.68,-1.2253e-05,0
141.68,-1.2421e-05,0
141.68,-4.8676e-06,0
141.68,-1.3428e-06,0
141.68,-3.0213e-06,0
141.68,-1.1749e-06,0
141.68,9.5674e-06,0
141.68,2.3331e-05,0
141.68,2.8031e-05,0
141.68,3.6759e-05,0
141.69,7.3014e-05,0
141.69,0.00013848,0
141.69,0.00021032,0
141.69,0.00024926,0
141.69,0.00023482,0
141.69,0.00018312,0
141.69,0.00011666,0
141.69,4.683e-05,0
141.69,-1.7288e-05,0
141.69,-6.1936e-05,0
141.69,-8.3757e-05,0
141.69,-9.2485e-05,0
141.69,-9.0135e-05,0
141.69,-7.7546e-05,0
141.69,-6.5461e-05,0
141.69,-6.0426e-05,0
141.69,-6.009e-05,0
141.69,-5.4719e-05,0
141.69,-4.0284e-05,0
141.69,-2.7527e-05,0
141.7,-2.3835e-05,0
141.7,-1.6449e-05,0
141.7,5.0355e-07,0
141.7,1.5106e-05,0
141.7,2.2828e-05,0
141.7,3.1388e-05,0
141.7,4.2802e-05,0
141.7,4.1962e-05,0
141.7,1.7288e-05,0
141.7,-2.1653e-05,0
141.7,-6.3447e-05,0
141.7,-0.00010692,0
141.7,-0.00015207,0
141.7,-0.000189,0
141.7,-0.00020377,0
141.7,-0.00019454,0
141.7,-0.00016869,0
141.7,-0.00013713,0
141.7,-0.00010658,0
141.71,-7.9561e-05,0
141.71,-5.3544e-05,0
141.71,-2.8031e-05,0
141.71,-1.5106e-06,0
141.71,2.4002e-05,0
141.71,4.3473e-05,0
141.71,6.0594e-05,0
141.71,8.04e-05,0
141.71,0.00010457,0
141.71,0.00013512,0
141.71,0.00016617,0
141.71,0.00018245,0
141.71,0.00017137,0
141.71,0.00014166,0
141.71,0.00010994,0
141.71,8.9464e-05,0
141.71,7.6875e-05,0
141.71,6.7308e-05,0
141.71,6.2776e-05,0
141.72,7.5532e-05,0
141.72,0.00010591,0
141.72,0.00012639,0
141.72,0.00011867,0
141.72,9.1814e-05,0
141.72,5.8915e-05,0
141.72,2.9374e-05,0
141.72,5.7069e-06,0
141.72,-1.2924e-05,0
141.72,-2.3835e-05,0
141.72,-2.4002e-05,0
141.72,-8.896e-06,0
141.72,1.4603e-05,0
141.72,2.2324e-05,0
141.72,-4.6998e-06,0
141.72,-5.7237e-05,0
141.72,-0.00010843,0
141.72,-0.00014385,0
141.72,-0.00015459,0
141.73,-0.00014368,0
141.73,-0.00011598,0
141.73,-7.6371e-05,0
141.73,-3.4073e-05,0
141.73,1.8463e-06,0
141.73,3.2059e-05,0
141.73,5.8915e-05,0
141.73,8.7617e-05,0
141.73,0.0001185,0
141.73,0.00015241,0
141.73,0.00019252,0
141.73,0.0002271,0
141.73,0.00024959,0
141.73,0.00026285,0
141.73,0.00026369,0
141.73,0.00024556,0
141.73,0.00020192,0
141.73,0.00013646,0
141.73,6.6133e-05,0
141.73,2.0813e-05,0
141.74,7.8889e-06,0
141.74,-1.5106e-06,0
141.74,-3.1388e-05,0
141.74,-8.0568e-05,0
141.74,-0.0001326,0
141.74,-0.00017037,0
141.74,-0.00018447,0
141.74,-0.00017003,0
141.74,-0.00012908,0
141.74,-8.3421e-05,0
141.74,-4.9516e-05,0
141.74,-2.7359e-05,0
141.74,-4.1962e-06,0
141.74,2.2995e-05,0
141.74,4.5151e-05,0
141.74,5.388e-05,0
141.74,4.448e-05,0
141.74,3.2731e-05,0
141.74,3.8773e-05,0
141.75,6.0929e-05,0
141.75,7.57e-05,0
141.75,7.4357e-05,0
141.75,5.7908e-05,0
141.75,3.0045e-05,0
141.75,2.5177e-06,0
141.75,-1.3596e-05,0
141.75,-1.2924e-05,0
141.75,-5.0355e-07,0
141.75,1.0239e-05,0
141.75,1.5274e-05,0
141.75,1.3596e-05,0
141.75,2.8534e-06,0
141.75,-1.5106e-05,0
141.75,-3.6423e-05,0
141.75,-5.4383e-05,0
141.75,-5.9586e-05,0
141.75,-5.3208e-05,0
141.75,-4.7166e-05,0
141.76,-4.0955e-05,0
141.76,-2.8367e-05,0
141.76,-1.326e-05,0
141.76,-7.0497e-06,0
141.76,-1.1246e-05,0
141.76,-1.1582e-05,0
141.76,4.1962e-06,0
141.76,2.3667e-05,0
141.76,2.9709e-05,0
141.76,2.6017e-05,0
141.76,2.3667e-05,0
141.76,3.1388e-05,0
141.76,4.7333e-05,0
141.76,6.3279e-05,0
141.76,7.1504e-05,0
141.76,7.2343e-05,0
141.76,6.9993e-05,0
141.76,6.8147e-05,0
141.76,6.6804e-05,0
141.77,5.7572e-05,0
141.77,4.213e-05,0
141.77,2.9038e-05,0
141.77,2.6017e-05,0
141.77,3.1388e-05,0
141.77,3.6423e-05,0
141.77,3.9612e-05,0
141.77,4.0116e-05,0
141.77,3.6088e-05,0
141.77,2.8367e-05,0
141.77,2.5345e-05,0
141.77,3.1556e-05,0
141.77,4.7669e-05,0
141.77,7.4357e-05,0
141.77,0.00010709,0
141.77,0.00013898,0
141.77,0.00015828,0
141.77,0.00016281,0
141.77,0.00016097,0
141.77,0.00016567,0
141.78,0.00018849,0
141.78,0.00021065,0
141.78,0.00019924,0
141.78,0.00015157,0
141.78,0.00010021,0
141.78,5.623e-05,0
141.78,1.6953e-05,0
141.78,-2.3835e-05,0
141.78,-6.9154e-05,0
141.78,-0.00011162,0
141.78,-0.00014485,0
141.78,-0.00016197,0
141.78,-0.00016449,0
141.78,-0.00016567,0
141.78,-0.0001744,0
141.78,-0.00018866,0
141.78,-0.00020024,0
141.78,-0.00020108,0
141.78,-0.00018749,0
141.79,-0.00016164,0
141.79,-0.00012874,0
141.79,-8.8457e-05,0
141.79,-4.3977e-05,0
141.79,-3.8605e-06,0
141.79,2.2995e-05,0
141.79,3.1388e-05,0
141.79,3.1052e-05,0
141.79,3.6759e-05,0
141.79,6.1601e-05,0
141.79,0.00010407,0
141.79,0.00015962,0
141.79,0.00022274,0
141.79,0.00028048,0
141.79,0.00031119,0
141.79,0.00029525,0
141.79,0.00023549,0
141.79,0.00016097,0
141.79,9.6513e-05,0
141.8,4.4984e-05,0
141.8,-2.5177e-06,0
141.8,-4.4984e-05,0
141.8,-7.2679e-05,0
141.8,-6.9993e-05,0
141.8,-5.5222e-05,0
141.8,-6.4622e-05,0
141.8,-9.2988e-05,0
141.8,-0.00011397,0
141.8,-0.00011447,0
141.8,-9.752e-05,0
141.8,-7.6371e-05,0
141.8,-5.9922e-05,0
141.8,-4.3137e-05,0
141.8,-3.1052e-05,0
141.8,-2.5345e-05,0
141.8,-2.6017e-05,0
141.8,-3.3066e-05,0
141.8,-3.9948e-05,0
141.81,-3.8773e-05,0
141.81,-2.3835e-05,0
141.81,-6.5461e-06,0
141.81,2.5177e-06,0
141.81,-1.3092e-05,0
141.81,-4.6998e-05,0
141.81,-7.6707e-05,0
141.81,-8.7282e-05,0
141.81,-8.1071e-05,0
141.81,-6.7308e-05,0
141.81,-4.5823e-05,0
141.81,-1.0239e-05,0
141.81,3.4745e-05,0
141.81,7.0329e-05,0
141.81,8.51e-05,0
141.81,8.0735e-05,0
141.81,6.7979e-05,0
141.81,5.6565e-05,0
141.81,4.7166e-05,0
141.81,3.5752e-05,0
141.82,2.0981e-05,0
141.82,1.7624e-05,0
141.82,3.0716e-05,0
141.82,5.069e-05,0
141.82,7.1839e-05,0
141.82,9.836e-05,0
141.82,0.00012673,0
141.82,0.00014485,0
141.82,0.00014452,0
141.82,0.00012605,0
141.82,9.6513e-05,0
141.82,6.8315e-05,0
141.82,5.069e-05,0
141.82,4.1123e-05,0
141.82,3.0381e-05,0
141.82,2.0645e-05,0
141.82,1.4939e-05,0
141.82,1.091e-05,0
141.82,7.8889e-06,0
141.83,5.0355e-07,0
141.83,-1.1078e-05,0
141.83,-1.9135e-05,0
141.83,-1.4939e-05,0
141.83,1.6785e-07,0
141.83,1.6281e-05,0
141.83,2.9374e-05,0
141.83,4.2802e-05,0
141.83,5.6733e-05,0
141.83,6.7811e-05,0
141.83,7.9728e-05,0
141.83,9.6513e-05,0
141.83,0.00011968,0
141.83,0.00014116,0
141.83,0.00014855,0
141.83,0.00013948,0
141.83,0.00012303,0
141.83,0.00010793,0
141.83,8.6946e-05,0
141.84,6.1601e-05,0
141.84,4.5823e-05,0
141.84,4.8173e-05,0
141.84,5.9922e-05,0
141.84,6.6972e-05,0
141.84,6.1601e-05,0
141.84,4.1794e-05,0
141.84,7.8889e-06,0
141.84,-2.8534e-05,0
141.84,-5.6565e-05,0
141.84,-7.805e-05,0
141.84,-9.5171e-05,0
141.84,-0.00010256,0
141.84,-9.9199e-05,0
141.84,-7.6707e-05,0
141.84,-2.9038e-05,0
141.84,2.4002e-05,0
141.84,5.539e-05,0
141.84,5.8747e-05,0
141.84,4.1459e-05,0
141.85,2.1149e-05,0
141.85,1.6617e-05,0
141.85,2.7024e-05,0
141.85,3.508e-05,0
141.85,4.1459e-05,0
141.85,5.7572e-05,0
141.85,6.1433e-05,0
141.85,2.4002e-05,0
141.85,-5.5894e-05,0
141.85,-0.00015039,0
141.85,-0.00022861,0
141.85,-0.00027846,0
141.85,-0.00030582,0
141.85,-0.00031774,0
141.85,-0.00029776,0
141.85,-0.00023549,0
141.85,-0.00014955,0
141.85,-6.6972e-05,0
141.85,1.1917e-05,0
141.86,8.4092e-05,0
141.86,0.0001321,0
141.86,0.00014888,0
141.86,0.0001368,0
141.86,0.00010105,0
141.86,5.8076e-05,0
141.86,2.4674e-05,0
141.86,8.896e-06,0
141.86,5.0355e-06,0
141.86,6.8818e-06,0
141.86,1.2253e-05,0
141.86,1.6449e-05,0
141.86,2.4002e-05,0
141.86,4.5823e-05,0
141.86,7.2847e-05,0
141.86,8.896e-05,0
141.86,8.7785e-05,0
141.86,7.1336e-05,0
141.86,5.7404e-05,0
141.87,5.8244e-05,0
141.87,6.3279e-05,0
141.87,6.0929e-05,0
141.87,5.2201e-05,0
141.87,4.8508e-05,0
141.87,4.8844e-05,0
141.87,4.6159e-05,0
141.87,4.6159e-05,0
141.87,6.0761e-05,0
141.87,9.1142e-05,0
141.87,0.00012874,0
141.87,0.00015241,0
141.87,0.00015123,0
141.87,0.00013109,0
141.87,0.00010507,0
141.87,8.0735e-05,0
141.87,6.9154e-05,0
141.87,7.5029e-05,0
141.87,8.8457e-05,0
141.88,9.0974e-05,0
141.88,7.8721e-05,0
141.88,6.2104e-05,0
141.88,4.5151e-05,0
141.88,2.9877e-05,0
141.88,2.5513e-05,0
141.88,3.6759e-05,0
141.88,5.7572e-05,0
141.88,7.8721e-05,0
141.88,8.3757e-05,0
141.88,6.7643e-05,0
141.88,4.7166e-05,0
141.88,3.5416e-05,0
141.88,2.9877e-05,0
141.88,2.031e-05,0
141.88,3.1891e-06,0
141.88,-1.6281e-05,0
141.88,-3.0381e-05,0
141.88,-3.7766e-05,0
141.88,-4.0787e-05,0
141.89,-4.2802e-05,0
141.89,-4.8508e-05,0
141.89,-6.1433e-05,0
141.89,-7.5868e-05,0
141.89,-8.7114e-05,0
141.89,-9.6345e-05,0
141.89,-9.7688e-05,0
141.89,-8.9799e-05,0
141.89,-7.1e-05,0
141.89,-4.8844e-05,0
141.89,-3.508e-05,0
141.89,-2.9206e-05,0
141.89,-2.2156e-05,0
141.89,-4.5319e-06,0
141.89,2.1149e-05,0
141.89,5.2201e-05,0
141.89,8.275e-05,0
141.89,9.8863e-05,0
141.89,0.00010037,0
141.9,9.7856e-05,0
141.9,9.6513e-05,0
141.9,9.5506e-05,0
141.9,9.1814e-05,0
141.9,8.9128e-05,0
141.9,9.0303e-05,0
141.9,9.3828e-05,0
141.9,0.00010306,0
141.9,0.00011833,0
141.9,0.0001368,0
141.9,0.00014888,0
141.9,0.00014569,0
141.9,0.00013378,0
141.9,0.00012337,0
141.9,0.00011229,0
141.9,9.5842e-05,0
141.9,7.8721e-05,0
141.9,5.8579e-05,0
141.9,3.978e-05,0
141.91,4.1794e-05,0
141.91,5.8915e-05,0
141.91,6.4958e-05,0
141.91,4.0787e-05,0
141.91,-1.1246e-05,0
141.91,-7.5364e-05,0
141.91,-0.0001331,0
141.91,-0.00017507,0
141.91,-0.00019219,0
141.91,-0.00018228,0
141.91,-0.00015375,0
141.91,-0.00011716,0
141.91,-7.2511e-05,0
141.91,-1.5106e-05,0
141.91,4.2298e-05,0
141.91,8.2414e-05,0
141.91,9.7185e-05,0
141.91,8.3421e-05,0
141.91,5.2201e-05,0
141.92,1.1917e-05,0
141.92,-3.6591e-05,0
141.92,-9.0974e-05,0
141.92,-0.00013814,0
141.92,-0.00015576,0
141.92,-0.00014536,0
141.92,-0.00012924,0
141.92,-0.00011884,0
141.92,-0.00012052,0
141.92,-0.00012924,0
141.92,-0.00013529,0
141.92,-0.00013143,0
141.92,-0.00011196,0
141.92,-6.7308e-05,0
141.92,-5.7069e-06,0
141.92,4.3641e-05,0
141.92,6.6972e-05,0
141.92,7.2343e-05,0
141.92,7.8889e-05,0
141.93,9.1814e-05,0
141.93,0.00010558,0
141.93,0.000118,0
141.93,0.00012773,0
141.93,0.00012572,0
141.93,0.00011246,0
141.93,9.601e-05,0
141.93,7.3686e-05,0
141.93,4.448e-05,0
141.93,1.326e-05,0
141.93,-1.4939e-05,0
141.93,-3.8437e-05,0
141.93,-4.918e-05,0
141.93,-4.7333e-05,0
141.93,-3.978e-05,0
141.93,-3.6423e-05,0
141.93,-3.5752e-05,0
141.93,-2.7024e-05,0
141.93,-1.0071e-05,0
141.93,2.182e-06,0
141.94,6.5461e-06,0
141.94,9.9031e-06,0
141.94,1.9638e-05,0
141.94,3.4745e-05,0
141.94,4.9516e-05,0
141.94,6.3279e-05,0
141.94,7.3182e-05,0
141.94,7.8721e-05,0
141.94,8.6778e-05,0
141.94,9.9702e-05,0
141.94,0.00010826,0
141.94,0.00010222,0
141.94,8.0735e-05,0
141.94,5.1194e-05,0
141.94,2.1988e-05,0
141.94,1.5106e-06,0
141.94,-1.091e-05,0
141.94,-1.6785e-05,0
141.94,-1.5946e-05,0
141.95,-6.0426e-06,0
141.95,8.896e-06,0
141.95,2.0645e-05,0
141.95,2.3499e-05,0
141.95,2.5177e-05,0
141.95,3.0549e-05,0
141.95,3.6591e-05,0
141.95,3.8773e-05,0
141.95,4.0116e-05,0
141.95,4.7166e-05,0
141.95,5.8915e-05,0
141.95,7.1839e-05,0
141.95,8.6442e-05,0
141.95,9.987e-05,0
141.95,0.00010793,0
141.95,0.00011112,0
141.95,0.00010726,0
141.95,9.8863e-05,0
141.95,8.6946e-05,0
141.96,6.5629e-05,0
141.96,2.9374e-05,0
141.96,-7.3854e-06,0
141.96,-2.7024e-05,0
141.96,-3.0045e-05,0
141.96,-2.8031e-05,0
141.96,-2.7024e-05,0
141.96,-3.0381e-05,0
141.96,-3.3906e-05,0
141.96,-3.5248e-05,0
141.96,-3.1388e-05,0
141.96,-1.8296e-05,0
141.96,-1.6785e-07,0
141.96,1.4603e-05,0
141.96,2.6688e-05,0
141.96,3.743e-05,0
141.96,4.448e-05,0
141.96,5.0355e-05,0
141.96,5.4551e-05,0
141.97,5.7069e-05,0
141.97,6.9322e-05,0
141.97,9.2149e-05,0
141.97,0.00011598,0
141.97,0.00014217,0
141.97,0.00016785,0
141.97,0.00018178,0
141.97,0.0001843,0
141.97,0.00017104,0
141.97,0.0001373,0
141.97,8.6778e-05,0
141.97,3.1388e-05,0
141.97,-1.1246e-05,0
141.97,-2.7527e-05,0
141.97,-2.7024e-05,0
141.97,-3.0045e-05,0
141.97,-4.8508e-05,0
141.97,-6.9825e-05,0
141.97,-6.9657e-05,0
141.97,-4.7166e-05,0
141.98,-1.2924e-05,0
141.98,2.4842e-05,0
141.98,6.0258e-05,0
141.98,8.3421e-05,0
141.98,8.51e-05,0
141.98,7.1672e-05,0
141.98,4.918e-05,0
141.98,1.5946e-05,0
141.98,-1.6617e-05,0
141.98,-2.7863e-05,0
141.98,-1.7624e-05,0
141.98,5.0355e-07,0
141.98,9.2317e-06,0
141.98,5.0355e-06,0
141.98,5.539e-06,0
141.98,1.2589e-05,0
141.98,-3.357e-06,0
141.98,-5.0858e-05,0
141.98,-9.5506e-05,0
141.99,-0.00010726,0
141.99,-8.7449e-05,0
141.99,-5.2537e-05,0
141.99,-2.3163e-05,0
141.99,-1.0239e-05,0
141.99,-1.7121e-05,0
141.99,-3.6423e-05,0
141.99,-5.623e-05,0
141.99,-6.9322e-05,0
141.99,-7.8721e-05,0
141.99,-8.6778e-05,0
141.99,-9.2485e-05,0
141.99,-9.0974e-05,0
141.99,-8.6778e-05,0
141.99,-8.7617e-05,0
141.99,-8.8121e-05,0
141.99,-7.8386e-05,0
141.99,-5.9922e-05,0
141.99,-4.1291e-05,0
142,-2.8534e-05,0
142,-1.8967e-05,0
142,1.1749e-06,0
142,3.4073e-05,0
142,7.2007e-05,0
142,0.00010591,0
142,0.00012706,0
142,0.00013596,0
142,0.00014284,0
142,0.00015761,0
142,0.00017641,0
142,0.00018849,0
142,0.00018665,0
142,0.00017507,0
142,0.00015962,0
142,0.00014049,0
142,0.00011531,0
142,8.3757e-05,0
142,4.8844e-05,0
142,9.2317e-06,0
142.01,-2.8367e-05,0
142.01,-5.3208e-05,0
142.01,-5.6733e-05,0
142.01,-3.7095e-05,0
142.01,-5.0355e-07,0
142.01,3.6423e-05,0
142.01,6.1433e-05,0
142.01,7.6371e-05,0
142.01,9.1814e-05,0
142.01,0.00011917,0
142.01,0.00016684,0
142.01,0.0002172,0
142.01,0.00023751,0
142.01,0.00021837,0
142.01,0.00017708,0
142.01,0.00013411,0
142.01,9.752e-05,0
142.01,7.805e-05,0
142.01,7.3854e-05,0
142.02,7.1336e-05,0
142.02,5.6565e-05,0
142.02,3.0716e-05,0
142.02,5.0355e-07,0
142.02,-3.508e-05,0
142.02,-6.9993e-05,0
142.02,-9.2485e-05,0
142.02,-9.8695e-05,0
142.02,-0.00010507,0
142.02,-0.00011498,0
142.02,-0.00012572,0
142.02,-0.00013562,0
142.02,-0.0001331,0
142.02,-0.0001321,0
142.02,-0.00014099,0
142.02,-0.0001467,0
142.02,-0.00014754,0
142.02,-0.00015157,0
142.02,-0.00016097,0
142.03,-0.00017339,0
142.03,-0.00017775,0
142.03,-0.00016516,0
142.03,-0.00013965,0
142.03,-0.00010507,0
142.03,-6.7308e-05,0
142.03,-2.9038e-05,0
142.03,1.6785e-07,0
142.03,1.8296e-05,0
142.03,3.9948e-05,0
142.03,7.5532e-05,0
142.03,0.00011867,0
142.03,0.00015492,0
142.03,0.00018178,0
142.03,0.00020125,0
142.03,0.00020981,0
142.03,0.00019722,0
142.03,0.00015962,0
142.03,0.00010524,0
142.04,5.2705e-05,0
142.04,1.8296e-05,0
142.04,4.5319e-06,0
142.04,3.8605e-06,0
142.04,1.0239e-05,0
142.04,1.9974e-05,0
142.04,3.4745e-05,0
142.04,5.4887e-05,0
142.04,6.5965e-05,0
142.04,5.2201e-05,0
142.04,2.266e-05,0
142.04,-4.8676e-06,0
142.04,-1.8631e-05,0
142.04,-2.1653e-05,0
142.04,-1.2253e-05,0
142.04,1.7288e-05,0
142.04,5.7572e-05,0
142.04,8.3589e-05,0
142.04,9.3828e-05,0
142.04,0.00010826,0
142.05,0.00012572,0
142.05,0.00012706,0
142.05,0.00011263,0
142.05,9.7856e-05,0
142.05,9.2149e-05,0
142.05,8.8792e-05,0
142.05,8.3421e-05,0
142.05,7.9561e-05,0
142.05,7.9225e-05,0
142.05,7.5364e-05,0
142.05,5.7572e-05,0
142.05,2.6688e-05,0
142.05,-4.1962e-06,0
142.05,-2.3331e-05,0
142.05,-2.7024e-05,0
142.05,-1.9638e-05,0
142.05,-1.2253e-05,0
142.05,-1.0071e-06,0
142.05,2.3667e-05,0
142.06,6.2272e-05,0
142.06,0.00010726,0
142.06,0.0001509,0
142.06,0.00019588,0
142.06,0.00024523,0
142.06,0.0002986,0
142.06,0.0003315,0
142.06,0.00031925,0
142.06,0.00026503,0
142.06,0.00019471,0
142.06,0.00012522,0
142.06,4.5319e-05,0
142.06,-5.5558e-05,0
142.06,-0.00016835,0
142.06,-0.00026738,0
142.06,-0.00032378,0
142.06,-0.00032395,0
142.06,-0.00028148,0
142.06,-0.00023365,0
142.07,-0.00021468,0
142.07,-0.00022979,0
142.07,-0.00025295,0
142.07,-0.00025194,0
142.07,-0.00022173,0
142.07,-0.00018682,0
142.07,-0.000165,0
142.07,-0.00015644,0
142.07,-0.00015593,0
142.07,-0.00014922,0
142.07,-0.00012522,0
142.07,-8.4428e-05,0
142.07,-4.0452e-05,0
142.07,-9.5674e-06,0
142.07,1.4603e-05,0
142.07,3.7766e-05,0
142.07,4.9851e-05,0
142.07,4.1291e-05,0
142.07,2.182e-05,0
142.07,9.9031e-06,0
142.08,3.8605e-06,0
142.08,-1.3931e-05,0
142.08,-4.3137e-05,0
142.08,-6.1601e-05,0
142.08,-5.7237e-05,0
142.08,-3.592e-05,0
142.08,-1.3092e-05,0
142.08,3.5248e-06,0
142.08,2.031e-05,0
142.08,3.3402e-05,0
142.08,4.5991e-05,0
142.08,7.0161e-05,0
142.08,0.00011464,0
142.08,0.0001566,0
142.08,0.00017372,0
142.08,0.00017238,0
142.08,0.00016751,0
142.08,0.00016902,0
142.08,0.00017943,0
142.09,0.00019252,0
142.09,0.00020645,0
142.09,0.00022391,0
142.09,0.00024388,0
142.09,0.00025228,0
142.09,0.0002313,0
142.09,0.00018312,0
142.09,0.00012572,0
142.09,8.3757e-05,0
142.09,6.2608e-05,0
142.09,4.6998e-05,0
142.09,2.9709e-05,0
142.09,9.7353e-06,0
142.09,-2.0981e-05,0
142.09,-6.2776e-05,0
142.09,-0.00010893,0
142.09,-0.00013915,0
142.09,-0.00013109,0
142.09,-8.6442e-05,0
142.1,-2.0981e-05,0
142.1,4.1291e-05,0
142.1,8.4428e-05,0
142.1,0.00011464,0
142.1,0.0001331,0
142.1,0.00013881,0
142.1,0.00013948,0
142.1,0.00012689,0
142.1,8.8792e-05,0
142.1,3.508e-05,0
142.1,-1.2421e-05,0
142.1,-4.7669e-05,0
142.1,-8.2078e-05,0
142.1,-0.0001091,0
142.1,-0.00010373,0
142.1,-7.2679e-05,0
142.1,-3.9948e-05,0
142.1,-1.9974e-05,0
142.1,-1.4939e-05,0
142.11,-1.9135e-05,0
142.11,-2.6017e-05,0
142.11,-3.5416e-05,0
142.11,-4.7333e-05,0
142.11,-5.4047e-05,0
142.11,-5.1698e-05,0
142.11,-4.0452e-05,0
142.11,-2.6688e-05,0
142.11,-1.0071e-05,0
142.11,1.7121e-05,0
142.11,4.1459e-05,0
142.11,3.7934e-05,0
142.11,9.7353e-06,0
142.11,-2.3835e-05,0
142.11,-4.9516e-05,0
142.11,-5.9419e-05,0
142.11,-4.9012e-05,0
142.11,-3.1388e-05,0
142.11,-2.2828e-05,0
142.12,-3.0381e-05,0
142.12,-4.1962e-05,0
142.12,-1.8631e-05,0
142.12,3.8437e-05,0
142.12,7.4693e-05,0
142.12,6.7811e-05,0
142.12,4.6159e-05,0
142.12,3.2059e-05,0
142.12,2.0645e-05,0
142.12,-3.357e-07,0
142.12,-3.2563e-05,0
142.12,-6.8986e-05,0
142.12,-0.00010105,0
142.12,-0.00011766,0
142.12,-0.00011531,0
142.12,-0.00010088,0
142.12,-7.2175e-05,0
142.12,-2.6017e-05,0
142.12,3.3402e-05,0
142.12,8.6778e-05,0
142.13,0.0001086,0
142.13,9.1646e-05,0
142.13,5.3544e-05,0
142.13,1.7456e-05,0
142.13,-3.1891e-06,0
142.13,-3.1891e-06,0
142.13,1.0239e-05,0
142.13,2.2995e-05,0
142.13,2.7527e-05,0
142.13,2.9374e-05,0
142.13,4.2466e-05,0
142.13,7.1839e-05,0
142.13,0.00011766,0
142.13,0.00016231,0
142.13,0.00018614,0
142.13,0.00019118,0
142.13,0.00019319,0
142.13,0.00019655,0
142.13,0.00019001,0
142.14,0.00016265,0
142.14,0.00012035,0
142.14,7.2343e-05,0
142.14,2.5849e-05,0
142.14,-1.1414e-05,0
142.14,-3.2563e-05,0
142.14,-3.7598e-05,0
142.14,-3.8941e-05,0
142.14,-5.2369e-05,0
142.14,-6.5629e-05,0
142.14,-6.3447e-05,0
142.14,-5.4551e-05,0
142.14,-5.5222e-05,0
142.14,-6.3615e-05,0
142.14,-6.3615e-05,0
142.14,-5.4215e-05,0
142.14,-3.9612e-05,0
142.14,-1.5274e-05,0
142.14,1.4603e-05,0
142.15,4.4648e-05,0
142.15,8.04e-05,0
142.15,0.00012387,0
142.15,0.00016432,0
142.15,0.0001895,0
142.15,0.00019487,0
142.15,0.00017221,0
142.15,0.00012186,0
142.15,6.4286e-05,0
142.15,2.0981e-05,0
142.15,-1.0239e-05,0
142.15,-3.4577e-05,0
142.15,-4.8508e-05,0
142.15,-4.3641e-05,0
142.15,-3.4241e-05,0
142.15,-3.4745e-05,0
142.15,-3.122e-05,0
142.15,-5.7069e-06,0
142.15,2.9709e-05,0
142.16,5.1698e-05,0
142.16,5.1865e-05,0
142.16,4.0116e-05,0
142.16,3.6759e-05,0
142.16,4.5991e-05,0
142.16,6.4622e-05,0
142.16,9.9535e-05,0
142.16,0.00014015,0
142.16,0.00016802,0
142.16,0.00017775,0
142.16,0.00017607,0
142.16,0.00017053,0
142.16,0.00016399,0
142.16,0.00016063,0
142.16,0.00015459,0
142.16,0.00013008,0
142.16,8.8457e-05,0
142.16,5.069e-05,0
142.16,1.9303e-05,0
142.16,-1.4939e-05,0
142.17,-4.448e-05,0
142.17,-6.3279e-05,0
142.17,-8.2414e-05,0
142.17,-0.00011733,0
142.17,-0.0001613,0
142.17,-0.00019353,0
142.17,-0.00020427,0
142.17,-0.00018581,0
142.17,-0.0001274,0
142.17,-5.2201e-05,0
142.17,2.8534e-06,0
142.17,3.8102e-05,0
142.17,7.3014e-05,0
142.17,0.00011447,0
142.17,0.00015258,0
142.17,0.00016298,0
142.17,0.00013948,0
142.17,9.8024e-05,0
142.17,4.8676e-05,0
142.18,-6.8818e-06,0
142.18,-6.3279e-05,0
142.18,-9.8863e-05,0
142.18,-0.00010977,0
142.18,-0.00012354,0
142.18,-0.00015023,0
142.18,-0.00018212,0
142.18,-0.0002083,0
142.18,-0.00022005,0
142.18,-0.0002078,0
142.18,-0.00017473,0
142.18,-0.00013344,0
142.18,-0.00010222,0
142.18,-8.04e-05,0
142.18,-5.8244e-05,0
142.18,-4.1291e-05,0
142.18,-3.5416e-05,0
142.18,-3.6423e-05,0
142.18,-3.5752e-05,0
142.19,-4.0116e-05,0
142.19,-5.6733e-05,0
142.19,-7.0832e-05,0
142.19,-6.5293e-05,0
142.19,-4.0452e-05,0
142.19,-1.1582e-05,0
142.19,1.3931e-05,0
142.19,3.7766e-05,0
142.19,5.6901e-05,0
142.19,6.6133e-05,0
142.19,6.949e-05,0
142.19,7.2679e-05,0
142.19,7.9057e-05,0
142.19,8.4932e-05,0
142.19,8.8457e-05,0
142.19,9.0806e-05,0
142.19,9.5506e-05,0
142.19,9.9031e-05,0
142.19,9.7185e-05,0
142.19,9.1814e-05,0
142.2,8.8457e-05,0
142.2,9.7856e-05,0
142.2,0.0001133,0
142.2,0.00011867,0
142.2,0.00011934,0
142.2,0.00013411,0
142.2,0.00015023,0
142.2,0.0001472,0
142.2,0.00012941,0
142.2,0.00011263,0
142.2,0.00011263,0
142.2,0.0001331,0
142.2,0.00015895,0
142.2,0.00017423,0
142.2,0.00017372,0
142.2,0.00015425,0
142.2,0.00012337,0
142.2,8.51e-05,0
142.2,3.827e-05,0
142.21,-1.1582e-05,0
142.21,-5.774e-05,0
142.21,-9.1478e-05,0
142.21,-0.00010071,0
142.21,-8.9128e-05,0
142.21,-7.6371e-05,0
142.21,-7.0329e-05,0
142.21,-6.5293e-05,0
142.21,-5.5558e-05,0
142.21,-4.3473e-05,0
142.21,-3.6088e-05,0
142.21,-3.1388e-05,0
142.21,-2.1653e-05,0
142.21,-8.3925e-06,0
142.21,6.2104e-06,0
142.21,2.2828e-05,0
142.21,4.1459e-05,0
142.21,6.009e-05,0
142.21,7.2343e-05,0
142.22,8.2918e-05,0
142.22,0.00010138,0
142.22,0.00012706,0
142.22,0.00015258,0
142.22,0.00016332,0
142.22,0.00014955,0
142.22,0.00012136,0
142.22,9.3828e-05,0
142.22,6.7643e-05,0
142.22,3.2731e-05,0
142.22,-6.714e-07,0
142.22,-1.7624e-05,0
142.22,-1.8631e-05,0
142.22,-5.539e-06,0
142.22,7.2175e-06,0
142.22,1.2589e-05,0
142.22,1.4435e-05,0
142.22,1.2421e-05,0
142.22,-1.5106e-06,0
142.23,-2.7024e-05,0
142.23,-5.4887e-05,0
142.23,-8.1743e-05,0
142.23,-0.00010541,0
142.23,-0.00012001,0
142.23,-0.00011917,0
142.23,-0.00010356,0
142.23,-8.4764e-05,0
142.23,-6.1433e-05,0
142.23,-2.1653e-05,0
142.23,3.2731e-05,0
142.23,9.2988e-05,0
142.23,0.00014485,0
142.23,0.00016567,0
142.23,0.0001566,0
142.23,0.00014284,0
142.23,0.0001274,0
142.23,0.00010491,0
142.23,7.3686e-05,0
142.24,2.8702e-05,0
142.24,-3.2395e-05,0
142.24,-9.6513e-05,0
142.24,-0.00014737,0
142.24,-0.00017154,0
142.24,-0.00017372,0
142.24,-0.00016567,0
142.24,-0.00014788,0
142.24,-0.00012471,0
142.24,-0.00010927,0
142.24,-0.00010021,0
142.24,-8.6107e-05,0
142.24,-6.3279e-05,0
142.24,-3.8773e-05,0
142.24,-1.1078e-05,0
142.24,4.1291e-05,0
142.24,0.00010356,0
142.24,0.00013529,0
142.24,0.00012874,0
142.24,0.00011229,0
142.25,0.00010239,0
142.25,9.0471e-05,0
142.25,7.2175e-05,0
