2.8334,5.8915e-05,0
2.834,0.00010692,0
2.8345,0.00014519,0
2.835,0.00015744,0
2.8355,0.00014603,0
2.836,0.00013143,0
2.8366,0.0001133,0
2.8371,8.5771e-05,0
2.8376,7.0497e-05,0
2.8381,6.1601e-05,0
2.8386,5.304e-05,0
2.8392,5.4887e-05,0
2.8397,5.3544e-05,0
2.8402,2.7359e-05,0
2.8407,-3.2395e-05,0
2.8412,-0.00010323,0
2.8418,-0.0001472,0
2.8423,-0.00015879,0
2.8428,-0.00015341,0
2.8433,-0.00013243,0
2.8438,-8.9296e-05,0
2.8443,-2.8367e-05,0
2.8449,2.182e-05,0
2.8454,4.6662e-05,0
2.8459,7.9728e-05,0
2.8464,0.00014418,0
2.8469,0.00021669,0
2.8475,0.00025849,0
2.848,0.00024942,0
2.8485,0.00019756,0
2.849,0.00012119,0
2.8495,3.8773e-05,0
2.8501,-4.2298e-05,0
2.8506,-0.00010574,0
2.8511,-0.00013075,0
2.8516,-0.00012857,0
2.8521,-0.00013562,0
2.8527,-0.0001462,0
2.8532,-0.00013848,0
2.8537,-0.00011481,0
2.8542,-8.3757e-05,0
2.8547,-5.7908e-05,0
2.8552,-5.8747e-05,0
2.8558,-8.0735e-05,0
2.8563,-9.6849e-05,0
2.8568,-0.00010088,0
2.8573,-8.8792e-05,0
2.8578,-4.9516e-05,0
2.8584,5.8747e-06,0
2.8589,5.0355e-05,0
2.8594,0.00010491,0
2.8599,0.00017137,0
2.8604,0.00019286,0
2.861,0.00012992,0
2.8615,2.1317e-05,0
2.862,-7.6371e-05,0
2.8625,-0.00013613,0
2.863,-0.00017104,0
2.8636,-0.00018967,0
2.8641,-0.00017826,0
2.8646,-0.00012085,0
2.8651,-4.1962e-05,0
2.8656,2.9374e-05,0
2.8662,9.3156e-05,0
2.8667,0.00015862,0
2.8672,0.00020897,0
2.8677,0.00023163,0
2.8682,0.00022441,0
2.8687,0.00018245,0
2.8693,0.00011397,0
2.8698,5.1865e-05,0
2.8703,1.2589e-05,0
2.8708,-1.5442e-05,0
2.8713,-3.9109e-05,0
2.8719,-4.6159e-05,0
2.8724,-3.4073e-05,0
2.8729,-1.5442e-05,0
2.8734,-1.7121e-05,0
2.8739,-5.2201e-05,0
2.8745,-0.00010558,0
2.875,-0.0001519,0
2.8755,-0.00018312,0
2.876,-0.00020494,0
2.8765,-0.00021132,0
2.8771,-0.00020343,0
2.8776,-0.00018917,0
2.8781,-0.00016214,0
2.8786,-0.00010625,0
2.8791,-5.7069e-06,0
2.8797,0.00012538,0
2.8802,0.00024691,0
2.8807,0.00034577,0
2.8812,0.00043355,0
2.8817,0.00049935,0
2.8822,0.00052419,0
2.8828,0.00049465,0
2.8833,0.00041929,0
2.8838,0.00031237,0
2.8843,0.00019118,0
2.8848,8.8121e-05,0
2.8854,1.8631e-05,0
2.8859,-2.7359e-05,0
2.8864,-6.3447e-05,0
2.8869,-0.00010692,0
2.8874,-0.0001613,0
2.888,-0.00021569,0
2.8885,-0.00025748,0
2.889,-0.00027745,0
2.8895,-0.00029122,0
2.89,-0.00029978,0
2.8906,-0.00028199,0
2.8911,-0.0002365,0
2.8916,-0.00017389,0
2.8921,-0.00010893,0
2.8926,-3.4577e-05,0
2.8932,7.2343e-05,0
2.8937,0.00019857,0
2.8942,0.00031724,0
2.8947,0.00042281,0
2.8952,0.00047988,0
2.8958,0.0004725,0
2.8963,0.00045219,0
2.8968,0.00045437,0
2.8973,0.00046545,0
2.8978,0.00044765,0
2.8983,0.00039025,0
2.8989,0.00031472,0
2.8994,0.00023432,0
2.8999,0.00014855,0
2.9004,6.0258e-05,0
2.9009,-2.8702e-05,0
2.9015,-0.00010877,0
2.902,-0.00016701,0
2.9025,-0.00019873,0
2.903,-0.00019554,0
2.9035,-0.00014804,0
2.9041,-8.1239e-05,0
2.9046,-3.6927e-05,0
2.9051,-1.3764e-05,0
2.9056,1.7121e-05,0
2.9061,4.8173e-05,0
2.9067,5.6733e-05,0
2.9072,3.6423e-05,0
2.9077,-7.8889e-06,0
2.9082,-5.2033e-05,0
2.9087,-6.9322e-05,0
2.9093,-5.7572e-05,0
2.9098,-3.2731e-05,0
2.9103,-1.796e-05,0
2.9108,-2.1988e-05,0
2.9113,-3.6088e-05,0
2.9118,-4.5655e-05,0
2.9124,-4.3473e-05,0
2.9129,-3.8941e-05,0
2.9134,-4.0284e-05,0
2.9139,-5.3376e-05,0
2.9144,-6.7308e-05,0
2.915,-7.2847e-05,0
2.9155,-8.04e-05,0
2.916,-9.4667e-05,0
2.9165,-0.00011934,0
2.917,-0.00014469,0
2.9176,-0.00017456,0
2.9181,-0.00022425,0
2.9186,-0.00027124,0
2.9191,-0.00029239,0
2.9196,-0.0002845,0
2.9202,-0.00026856,0
2.9207,-0.00026923,0
2.9212,-0.00029256,0
2.9217,-0.00033234,0
2.9222,-0.00037649,0
2.9228,-0.00040468,0
2.9233,-0.00039495,0
2.9238,-0.00034459,0
2.9243,-0.00025295,0
2.9248,-0.00010021,0
2.9253,0.00010423,0
2.9259,0.00029055,0
2.9264,0.00038975,0
2.9269,0.00037984,0
2.9274,0.00031002,0
2.9279,0.00024221,0
2.9285,0.0002031,0
2.929,0.00020259,0
2.9295,0.00022441,0
2.93,0.00023549,0
2.9305,0.00022676,0
2.9311,0.00021132,0
2.9316,0.00019118,0
2.9321,0.00016768,0
2.9326,0.00016399,0
2.9331,0.00020562,0
2.9337,0.00027443,0
2.9342,0.00033486,0
2.9347,0.00037581,0
2.9352,0.000378,0
2.9357,0.00031002,0
2.9362,0.00018816,0
2.9368,7.2343e-05,0
2.9373,8.3925e-07,0
2.9378,-4.0116e-05,0
2.9383,-6.4958e-05,0
2.9388,-8.0232e-05,0
2.9394,-8.4428e-05,0
2.9399,-8.3421e-05,0
2.9404,-7.8553e-05,0
2.9409,-7.2847e-05,0
2.9414,-7.7379e-05,0
2.942,-9.4163e-05,0
2.9425,-0.00012924,0
2.943,-0.00016651,0
2.9435,-0.00019504,0
2.944,-0.00022458,0
2.9446,-0.00026,0
2.9451,-0.00028652,0
2.9456,-0.00028501,0
2.9461,-0.00025245,0
2.9466,-0.00018161,0
2.9472,-7.2511e-05,0
2.9477,3.0549e-05,0
2.9482,9.3156e-05,0
2.9487,0.00011666,0
2.9492,0.00011447,0
2.9497,8.3925e-05,0
2.9503,3.8605e-05,0
2.9508,7.8889e-06,0
2.9513,4.6159e-05,0
2.9518,0.00015996,0
2.9523,0.00028215,0
2.9529,0.00034493,0
2.9534,0.00031472,0
2.9539,0.00021048,0
2.9544,0.00011968,0
2.9549,0.00011162,0
2.9555,0.00015358,0
2.956,0.00017641,0
2.9565,0.0001754,0
2.957,0.00017104,0
2.9575,0.00014922,0
2.9581,0.00010726,0
2.9586,7.7714e-05,0
2.9591,8.6778e-05,0
2.9596,0.00010726,0
2.9601,0.00010188,0
2.9607,6.9322e-05,0
2.9612,3.2731e-05,0
2.9617,2.3331e-05,0
2.9622,4.9851e-05,0
2.9627,9.5842e-05,0
2.9632,0.00014318,0
2.9638,0.00017406,0
2.9643,0.00016667,0
2.9648,0.0001227,0
2.9653,6.3951e-05,0
2.9658,-1.0407e-05,0
2.9664,-0.00010507,0
2.9669,-0.00019319,0
2.9674,-0.00023717,0
2.9679,-0.00022962,0
2.9684,-0.00019605,0
2.969,-0.00015727,0
2.9695,-0.00010356,0
2.97,-3.3066e-05,0
2.9705,4.1794e-05,0
2.971,0.00012438,0
2.9716,0.00019588,0
2.9721,0.00023734,0
2.9726,0.00025429,0
2.9731,0.00022609,0
2.9736,0.00013596,0
2.9742,2.5849e-05,0
2.9747,-7.4693e-05,0
2.9752,-0.00016365,0
2.9757,-0.00023549,0
2.9762,-0.00028182,0
2.9768,-0.00030146,0
2.9773,-0.00028652,0
2.9778,-0.00022744,0
2.9783,-0.0001279,0
2.9788,-1.1917e-05,0
2.9793,9.0471e-05,0
2.9799,0.00017708,0
2.9804,0.00023012,0
2.9809,0.00020226,0
2.9814,0.00012035,0
2.9819,4.8508e-05,0
2.9825,1.3596e-05,0
2.983,5.0355e-07,0
2.9835,-1.7456e-05,0
2.984,-4.8005e-05,0
2.9845,-7.4861e-05,0
2.9851,-9.3828e-05,0
2.9856,-0.00011632,0
2.9861,-0.00014754,0
2.9866,-0.00015962,0
2.9871,-0.00010759,0
2.9877,1.5274e-05,0
2.9882,0.0001462,0
2.9887,0.00022072,0
2.9892,0.00023146,0
2.9897,0.00019504,0
2.9903,0.00014217,0
2.9908,8.275e-05,0
2.9913,2.8534e-06,0
2.9918,-9.4331e-05,0
2.9923,-0.00019034,0
2.9928,-0.00027427,0
2.9934,-0.0003305,0
2.9939,-0.00034711,0
2.9944,-0.00031942,0
2.9949,-0.00025966,0
2.9954,-0.0001754,0
2.996,-7.9393e-05,0
2.9965,1.2589e-05,0
2.997,9.4331e-05,0
2.9975,0.00015828,0
2.998,0.00017037,0
2.9986,0.00011833,0
2.9991,4.2802e-05,0
2.9996,-1.2924e-05,0
3.0001,-3.2898e-05,0
3.0006,-4.9516e-05,0
3.0012,-8.4932e-05,0
3.0017,-0.00010037,0
3.0022,-7.5364e-05,0
3.0027,-2.5345e-05,0
3.0032,9.5674e-06,0
3.0038,2.1317e-05,0
3.0043,3.1388e-05,0
3.0048,7.8386e-05,0
3.0053,0.00017809,0
3.0058,0.00029441,0
3.0063,0.00037111,0
3.0069,0.00039126,0
3.0074,0.00036709,0
3.0079,0.00029256,0
3.0084,0.0001702,0
3.0089,4.3641e-05,0
3.0095,-3.6927e-05,0
3.01,-6.7308e-05,0
3.0105,-6.7643e-05,0
3.011,-4.6494e-05,0
3.0115,-1.3931e-05,0
3.0121,2.8534e-06,0
3.0126,-1.6281e-05,0
3.0131,-4.3137e-05,0
3.0136,-5.4719e-05,0
3.0141,-4.6159e-05,0
3.0147,-4.1962e-06,0
3.0152,6.1601e-05,0
3.0157,0.00011984,0
3.0162,0.00013378,0
3.0167,0.00010759,0
3.0173,6.1936e-05,0
3.0178,3.2059e-05,0
3.0183,3.9277e-05,0
3.0188,8.1743e-05,0
3.0193,0.00015946,0
3.0198,0.00025631,0
3.0204,0.00033754,0
3.0209,0.00040502,0
3.0214,0.0004688,0
3.0219,0.00050338,0
3.0224,0.00048861,0
3.023,0.00042885,0
3.0235,0.00033419,0
3.024,0.00021837,0
3.0245,9.9199e-05,0
3.025,5.539e-06,0
3.0256,-6.0426e-05,0
3.0261,-0.00010088,0
3.0266,-0.00010088,0
3.0271,-7.6875e-05,0
3.0276,-6.009e-05,0
3.0282,-6.9993e-05,0
3.0287,-0.00010155,0
3.0292,-0.00014015,0
3.0297,-0.00017574,0
3.0302,-0.00021518,0
3.0307,-0.00025748,0
3.0313,-0.00029374,0
3.0318,-0.00032479,0
3.0323,-0.00033704,0
3.0328,-0.00032294,0
3.0333,-0.0002835,0
3.0339,-0.00023784,0
3.0344,-0.00022727,0
3.0349,-0.00026957,0
3.0354,-0.00034258,0
3.0359,-0.00038874,0
3.0365,-0.00039226,0
3.037,-0.00036977,0
3.0375,-0.0003174,0
3.038,-0.00021367,0
3.0385,-6.7811e-05,0
3.0391,9.4667e-05,0
3.0396,0.00022542,0
3.0401,0.00030968,0
3.0406,0.00038857,0
3.0411,0.00047652,0
3.0417,0.00052621,0
3.0422,0.00048727,0
3.0427,0.00038186,0
3.0432,0.0002751,0
3.0437,0.00021636,0
3.0442,0.000213,0
3.0448,0.00021736,0
3.0453,0.00018094,0
3.0458,0.00010994,0
3.0463,4.5151e-05,0
3.0468,2.5345e-05,0
3.0474,4.5823e-05,0
3.0479,7.4189e-05,0
3.0484,7.2175e-05,0
3.0489,2.7695e-05,0
3.0494,-3.6423e-05,0
3.05,-8.0064e-05,0
3.0505,-8.7785e-05,0
3.051,-7.4022e-05,0
3.0515,-8.04e-05,0
3.052,-0.00013059,0
3.0526,-0.00019286,0
3.0531,-0.00024858,0
3.0536,-0.00029508,0
3.0541,-0.00033285,0
3.0546,-0.0003263,0
3.0552,-0.00021669,0
3.0557,-1.8296e-05,0
3.0562,0.00016466,0
3.0567,0.00026906,0
3.0572,0.00029374,0
3.0577,0.00026705,0
3.0583,0.000213,0
3.0588,0.00015425,0
3.0593,0.00010323,0
3.0598,7.9728e-05,0
3.0603,9.7185e-05,0
3.0609,0.00012337,0
3.0614,0.00011565,0
3.0619,6.0594e-05,0
3.0624,-3.2395e-05,0
3.0629,-0.00012505,0
3.0635,-0.00019387,0
3.064,-0.00024775,0
3.0645,-0.00029206,0
3.065,-0.00031707,0
3.0655,-0.0002887,0
3.0661,-0.0001994,0
3.0666,-0.00010054,0
3.0671,-4.1123e-05,0
3.0676,-2.1653e-05,0
3.0681,1.3596e-05,0
3.0687,9.9535e-05,0
3.0692,0.00020377,0
3.0697,0.00027376,0
3.0702,0.0002929,0
3.0707,0.00027007,0
3.0713,0.00022072,0
3.0718,0.00017171,0
3.0723,0.00013613,0
3.0728,9.6513e-05,0
3.0733,6.8315e-05,0
3.0738,8.1575e-05,0
3.0744,0.00013243,0
3.0749,0.00019521,0
3.0754,0.00027007,0
3.0759,0.00035534,0
3.0764,0.00039998,0
3.077,0.0003691,0
3.0775,0.00029071,0
3.078,0.00019588,0
3.0785,9.7856e-05,0
3.079,2.4338e-05,0
3.0796,-1.1917e-05,0
3.0801,-2.0981e-05,0
3.0806,-5.539e-06,0
3.0811,1.5274e-05,0
3.0816,9.2317e-06,0
3.0822,-4.3305e-05,0
3.0827,-0.00011917,0
3.0832,-0.00017826,0
3.0837,-0.00021501,0
3.0842,-0.00023415,0
3.0848,-0.00021787,0
3.0853,-0.00017137,0
3.0858,-0.00013445,0
3.0863,-0.0001274,0
3.0868,-0.00013059,0
3.0873,-0.00013075,0
3.0879,-0.00012119,0
3.0884,-9.3156e-05,0
3.0889,-6.1433e-05,0
3.0894,-5.304e-05,0
3.0899,-5.9922e-05,0
3.0905,-5.9083e-05,0
3.091,-6.7979e-05,0
3.0915,-9.9702e-05,0
3.092,-0.00013445,0
3.0925,-0.00014687,0
3.0931,-0.00012773,0
3.0936,-9.1814e-05,0
3.0941,-6.1265e-05,0
3.0946,-4.0955e-05,0
3.0951,-2.4002e-05,0
3.0957,-9.2317e-06,0
3.0962,-1.5946e-05,0
3.0967,-4.1627e-05,0
3.0972,-4.9683e-05,0
3.0977,-4.0116e-05,0
3.0983,-2.7024e-05,0
3.0988,1.7624e-05,0
3.0993,0.00010927,0
3.0998,0.00020931,0
3.1003,0.00027594,0
3.1008,0.00031069,0
3.1014,0.0003268,0
3.1019,0.00032311,0
3.1024,0.00029223,0
3.1029,0.00023667,0
3.1034,0.00016802,0
3.104,0.00010608,0
3.1045,5.623e-05,0
3.105,1.6617e-05,0
3.1055,-3.0716e-05,0
3.106,-0.00010591,0
3.1066,-0.00017893,0
3.1071,-0.0002229,0
3.1076,-0.00023365,0
3.1081,-0.00021971,0
3.1086,-0.00019118,0
3.1092,-0.00014922,0
3.1097,-9.0135e-05,0
3.1102,-9.9031e-06,0
3.1107,8.2918e-05,0
3.1112,0.00015879,0
3.1117,0.00020377,0
3.1123,0.00023348,0
3.1128,0.00025664,0
3.1133,0.00024388,0
3.1138,0.00018044,0
3.1143,9.6178e-05,0
3.1149,2.8367e-05,0
3.1154,-1.8296e-05,0
3.1159,-6.8315e-05,0
3.1164,-0.00013109,0
3.1169,-0.00017675,0
3.1175,-0.00016231,0
3.118,-7.7379e-05,0
3.1185,5.3376e-05,0
3.119,0.00016046,0
3.1195,0.00020192,0
3.1201,0.00019521,0
3.1206,0.00017809,0
3.1211,0.00015962,0
3.1216,0.00013814,0
3.1221,0.0001425,0
3.1227,0.00019286,0
3.1232,0.00028417,0
3.1237,0.00036239,0
3.1242,0.00034275,0
3.1247,0.00023885,0
3.1252,0.0001415,0
3.1258,9.7688e-05,0
3.1263,6.5126e-05,0
3.1268,-1.796e-05,0
3.1273,-0.00015241,0
3.1278,-0.00026705,0
3.1284,-0.00031724,0
3.1289,-0.00032126,0
3.1294,-0.00029995,0
3.1299,-0.00026201,0
3.1304,-0.00022559,0
3.131,-0.00020209,0
3.1315,-0.00018866,0
3.132,-0.00018346,0
3.1325,-0.00015862,0
3.133,-9.5842e-05,0
3.1336,-1.9806e-05,0
3.1341,3.2731e-05,0
3.1346,6.3951e-05,0
3.1351,9.836e-05,0
3.1356,0.00012438,0
3.1362,0.00013109,0
3.1367,0.00012572,0
3.1372,0.00011397,0
3.1377,8.5771e-05,0
3.1382,1.4267e-05,0
3.1387,-9.9367e-05,0
3.1393,-0.0002224,0
3.1398,-0.00030951,0
3.1403,-0.00032697,0
3.1408,-0.0002746,0
3.1413,-0.0001848,0
3.1419,-7.9057e-05,0
3.1424,2.8534e-05,0
3.1429,0.00010726,0
3.1434,0.00015123,0
3.1439,0.00020729,0
3.1445,0.00030129,0
3.145,0.00041643,0
3.1455,0.00050741,0
3.146,0.00052956,0
3.1465,0.00047787,0
3.1471,0.00038051,0
3.1476,0.00028048,0
3.1481,0.00020998,0
3.1486,0.00015962,0
3.1491,0.00010507,0
3.1497,5.1194e-05,0
3.1502,5.2033e-06,0
3.1507,-3.5416e-05,0
3.1512,-6.8147e-05,0
3.1517,-9.3828e-05,0
3.1522,-0.0001091,0
3.1528,-0.00011632,0
3.1533,-0.00011766,0
3.1538,-0.00011061,0
3.1543,-0.00010356,0
3.1548,-9.7856e-05,0
3.1554,-9.0135e-05,0
3.1559,-8.5267e-05,0
3.1564,-8.8457e-05,0
3.1569,-9.2485e-05,0
3.1574,-8.6107e-05,0
3.158,-7.1839e-05,0
3.1585,-6.0594e-05,0
3.159,-6.1769e-05,0
3.1595,-7.2343e-05,0
3.16,-8.1407e-05,0
3.1606,-8.2246e-05,0
3.1611,-7.2007e-05,0
3.1616,-5.7572e-05,0
3.1621,-5.623e-05,0
3.1626,-4.8844e-05,0
3.1632,-1.796e-05,0
3.1637,1.3931e-05,0
3.1642,2.2828e-05,0
3.1647,1.9974e-05,0
3.1652,2.4842e-05,0
3.1658,4.2802e-05,0
3.1663,5.2873e-05,0
3.1668,4.0116e-05,0
3.1673,1.796e-05,0
3.1678,6.5461e-06,0
3.1683,1.6617e-05,0
3.1689,3.2731e-05,0
3.1694,2.2324e-05,0
3.1699,-1.561e-05,0
3.1704,-4.1291e-05,0
3.1709,-3.9277e-05,0
3.1715,-3.5752e-05,0
3.172,-5.0355e-05,0
3.1725,-6.1265e-05,0
3.173,-5.4887e-05,0
3.1735,-3.3234e-05,0
3.1741,-3.0213e-06,0
3.1746,2.8031e-05,0
3.1751,6.3447e-05,0
3.1756,9.1142e-05,0
3.1761,0.00010709,0
3.1767,0.00012438,0
3.1772,0.00015627,0
3.1777,0.00020192,0
3.1782,0.0002459,0
3.1787,0.00027309,0
3.1793,0.00026268,0
3.1798,0.00022005,0
3.1803,0.00017675,0
3.1808,0.00015828,0
3.1813,0.00013948,0
3.1818,0.00010155,0
3.1824,6.244e-05,0
3.1829,3.3738e-05,0
3.1834,2.3667e-05,0
3.1839,2.4674e-05,0
3.1844,1.1917e-05,0
3.185,-2.9206e-05,0
3.1855,-7.5868e-05,0
3.186,-9.836e-05,0
3.1865,-0.00012035,0
3.187,-0.00016684,0
3.1876,-0.0002454,0
3.1881,-0.00033117,0
3.1886,-0.00037028,0
3.1891,-0.00034745,0
3.1896,-0.00025547,0
3.1902,-9.1142e-05,0
3.1907,0.00010541,0
3.1912,0.00024523,0
3.1917,0.00028215,0
3.1922,0.00025345,0
3.1928,0.00021032,0
3.1933,0.00017288,0
3.1938,0.00014586,0
3.1943,0.00013478,0
3.1948,0.00012236,0
3.1953,0.00010524,0
3.1959,8.7785e-05,0
3.1964,5.4215e-05,0
3.1969,-2.0142e-06,0
3.1974,-5.5726e-05,0
3.1979,-8.0064e-05,0
3.1985,-7.335e-05,0
3.199,-4.7166e-05,0
3.1995,-1.2421e-05,0
3.2,4.2802e-05,0
3.2005,0.00013814,0
3.2011,0.00024741,0
3.2016,0.00030851,0
3.2021,0.00027074,0
3.2026,0.00013394,0
3.2031,-4.0452e-05,0
3.2037,-0.00016265,0
3.2042,-0.00023415,0
3.2047,-0.00030028,0
3.2052,-0.00037363,0
3.2057,-0.0004396,0
3.2062,-0.00045655,0
3.2068,-0.00040687,0
3.2073,-0.00030968,0
3.2078,-0.00017826,0
3.2083,-3.8941e-05,0
3.2088,9.6178e-05,0
3.2094,0.00024758,0
3.2099,0.00042533,0
3.2104,0.00059435,0
3.2109,0.00068734,0
3.2114,0.00064706,0
3.212,0.00051009,0
3.2125,0.00036423,0
3.213,0.00024959,0
3.2135,0.0001519,0
3.214,6.7811e-05,0
3.2146,4.8676e-06,0
3.2151,-3.1388e-05,0
3.2156,-3.8437e-05,0
3.2161,-3.3906e-05,0
3.2166,-4.5991e-05,0
3.2172,-7.3182e-05,0
3.2177,-9.2149e-05,0
3.2182,-9.2988e-05,0
3.2187,-8.5267e-05,0
3.2192,-9.2821e-05,0
3.2197,-0.00011498,0
3.2203,-0.00013059,0
3.2208,-0.00013378,0
3.2213,-0.0001326,0
3.2218,-0.00014166,0
3.2223,-0.00016063,0
3.2229,-0.00015828,0
3.2234,-0.00010356,0
3.2239,-3.1724e-05,0
3.2244,8.7282e-06,0
3.2249,2.4338e-05,0
3.2255,2.5345e-05,0
3.226,1.5442e-05,0
3.2265,7.8889e-06,0
3.227,7.8889e-06,0
3.2275,9.5674e-06,0
3.2281,8.0568e-06,0
3.2286,1.3092e-05,0
3.2291,4.0116e-05,0
3.2296,8.4764e-05,0
3.2301,0.00013881,0
3.2307,0.00019487,0
3.2312,0.00022878,0
3.2317,0.00021871,0
3.2322,0.00017607,0
3.2327,0.00013344,0
3.2332,0.00010558,0
3.2338,8.8289e-05,0
3.2343,7.7211e-05,0
3.2348,7.1839e-05,0
3.2353,7.5196e-05,0
3.2358,8.7617e-05,0
3.2364,9.1981e-05,0
3.2369,7.4861e-05,0
3.2374,3.6591e-05,0
3.2379,-2.0142e-06,0
3.2384,-1.8967e-05,0
3.239,-1.9638e-05,0
3.2395,-2.2995e-05,0
3.24,-4.7837e-05,0
3.2405,-9.2317e-05,0
3.241,-0.00012018,0
3.2416,-0.00013059,0
3.2421,-0.00015744,0
3.2426,-0.00021015,0
3.2431,-0.00025866,0
3.2436,-0.00027611,0
3.2442,-0.00026218,0
3.2447,-0.00024019,0
3.2452,-0.00021569,0
3.2457,-0.00019219,0
3.2462,-0.00017893,0
3.2468,-0.00017658,0
3.2473,-0.00017742,0
3.2478,-0.0001472,0
3.2483,-2.4674e-05,0
3.2488,0.00020226,0
3.2493,0.00045772,0
3.2499,0.00064874,0
3.2504,0.00069641,0
3.2509,0.00059603,0
3.2514,0.00042516,0
3.2519,0.00026168,0
3.2525,0.00012706,0
3.253,1.5946e-05,0
3.2535,-7.4861e-05,0
3.254,-0.00014183,0
3.2545,-0.00018212,0
3.2551,-0.00020612,0
3.2556,-0.00024607,0
3.2561,-0.00030347,0
3.2566,-0.00033872,0
3.2571,-0.00036155,0
3.2577,-0.00038437,0
3.2582,-0.00039411,0
3.2587,-0.00037598,0
3.2592,-0.00031237,0
3.2597,-0.00021267,0
3.2603,-0.00011162,0
3.2608,-3.9445e-05,0
3.2613,1.9135e-05,0
3.2618,0.00011229,0
3.2623,0.00024154,0
3.2628,0.00037447,0
3.2634,0.00048525,0
3.2639,0.00055474,0
3.2644,0.00056985,0
3.2649,0.00053964,0
3.2654,0.00049129,0
3.266,0.0004349,0
3.2665,0.00035433,0
3.267,0.00025547,0
3.2675,0.0001613,0
3.268,9.2821e-05,0
3.2686,4.7837e-05,0
3.2691,7.2175e-06,0
3.2696,-3.7934e-05,0
3.2701,-8.8121e-05,0
3.2706,-0.0001331,0
3.2712,-0.00015056,0
3.2717,-0.00015912,0
3.2722,-0.00017742,0
3.2727,-0.00019739,0
3.2732,-0.00021854,0
3.2738,-0.00025026,0
3.2743,-0.00028769,0
3.2748,-0.00026722,0
3.2753,-0.00013529,0
3.2758,6.949e-05,0
3.2763,0.00025228,0
3.2769,0.00034258,0
3.2774,0.00034997,0
3.2779,0.00031841,0
3.2784,0.00026772,0
3.2789,0.00019051,0
3.2795,9.5842e-05,0
3.28,3.0716e-05,0
3.2805,2.887e-05,0
3.281,4.7837e-05,0
3.2815,1.8631e-05,0
3.2821,-6.1936e-05,0
3.2826,-0.00013764,0
3.2831,-0.00015291,0
3.2836,-0.00012924,0
3.2841,-0.00010759,0
3.2847,-0.00010423,0
3.2852,-0.00011565,0
3.2857,-0.00013092,0
3.2862,-0.00014418,0
3.2867,-0.00015895,0
3.2872,-0.00017507,0
3.2878,-0.00016751,0
3.2883,-0.00013495,0
3.2888,-0.00011313,0
3.2893,-9.2821e-05,0
3.2898,-4.9012e-05,0
3.2904,-6.5461e-06,0
3.2909,1.091e-05,0
3.2914,3.5584e-05,0
3.2919,9.8192e-05,0
3.2924,0.00017826,0
3.293,0.00026067,0
3.2935,0.00035668,0
3.294,0.00044916,0
3.2945,0.00049129,0
3.295,0.00045101,0
3.2956,0.00035232,0
3.2961,0.0002506,0
3.2966,0.00017607,0
3.2971,0.00011481,0
3.2976,5.2537e-05,0
3.2982,-1.2421e-05,0
3.2987,-7.3854e-05,0
3.2992,-0.00010927,0
3.2997,-0.00010944,0
3.3002,-0.00010155,0
3.3007,-0.00012085,0
3.3013,-0.00014452,0
3.3018,-0.0001467,0
3.3023,-0.00012337,0
3.3028,-9.5842e-05,0
3.3033,-8.2414e-05,0
3.3039,-7.1504e-05,0
3.3044,-4.1794e-05,0
3.3049,4.8676e-06,0
3.3054,3.8773e-05,0
3.3059,4.2634e-05,0
3.3065,2.8534e-05,0
3.307,1.5778e-05,0
3.3075,1.8631e-05,0
3.308,2.8031e-05,0
3.3085,2.3499e-05,0
3.3091,6.714e-06,0
3.3096,-3.357e-07,0
3.3101,1.0575e-05,0
3.3106,2.3331e-05,0
3.3111,2.5345e-05,0
3.3117,2.5849e-05,0
3.3122,3.3402e-05,0
3.3127,4.6494e-05,0
3.3132,6.2272e-05,0
3.3137,8.04e-05,0
3.3142,9.2821e-05,0
3.3148,8.5435e-05,0
3.3153,6.4286e-05,0
3.3158,4.7501e-05,0
3.3163,4.1794e-05,0
3.3168,4.1459e-05,0
3.3174,3.4409e-05,0
3.3179,2.3331e-05,0
3.3184,2.8534e-06,0
3.3189,-2.4674e-05,0
3.3194,-2.9038e-05,0
3.32,1.1078e-05,0
3.3205,6.9657e-05,0
3.321,9.0135e-05,0
3.3215,3.0213e-05,0
3.322,-8.0232e-05,0
3.3226,-0.00017876,0
3.3231,-0.00023499,0
3.3236,-0.00023163,0
3.3241,-0.00018379,0
3.3246,-0.00013361,0
3.3252,-8.8457e-05,0
3.3257,-2.652e-05,0
3.3262,4.1794e-05,0
3.3267,7.0832e-05,0
3.3272,4.6494e-05,0
3.3277,9.5674e-06,0
3.3283,7.5532e-06,0
3.3288,3.5416e-05,0
3.3293,6.2272e-05,0
3.3298,7.9561e-05,0
3.3303,8.0903e-05,0
3.3309,6.949e-05,0
3.3314,5.2873e-05,0
3.3319,4.5487e-05,0
3.3324,5.7572e-05,0
3.3329,7.0832e-05,0
3.3335,6.4286e-05,0
3.334,4.5487e-05,0
3.3345,3.743e-05,0
3.335,3.9109e-05,0
3.3355,2.3835e-05,0
3.3361,-1.6785e-05,0
3.3366,-5.1698e-05,0
3.3371,-5.8076e-05,0
3.3376,-4.683e-05,0
3.3381,-4.4816e-05,0
3.3387,-4.683e-05,0
3.3392,-4.3137e-05,0
3.3397,-2.8367e-05,0
3.3402,1.0575e-05,0
3.3407,7.5029e-05,0
3.3413,0.00014955,0
3.3418,0.00021048,0
3.3423,0.00024422,0
3.3428,0.00024825,0
3.3433,0.00021065,0
3.3438,0.00014183,0
3.3444,8.0064e-05,0
3.3449,5.0019e-05,0
3.3454,5.1865e-05,0
3.3459,6.2104e-05,0
3.3464,6.2943e-05,0
3.347,4.9516e-05,0
3.3475,2.8367e-05,0
3.348,3.1891e-06,0
3.3485,-1.9806e-05,0
3.349,-3.2898e-05,0
3.3496,-5.4719e-05,0
3.3501,-8.7617e-05,0
3.3506,-0.00011095,0
3.3511,-0.00011498,0
3.3516,-0.00010625,0
3.3522,-9.5171e-05,0
3.3527,-7.805e-05,0
3.3532,-4.1459e-05,0
3.3537,1.091e-05,0
3.3542,4.8173e-05,0
3.3548,6.3279e-05,0
3.3553,7.1504e-05,0
3.3558,8.2918e-05,0
3.3563,8.5771e-05,0
3.3568,6.8986e-05,0
3.3573,3.2731e-05,0
3.3579,-2.5177e-06,0
3.3584,-2.4674e-05,0
3.3589,-5.4551e-05,0
3.3594,-9.9367e-05,0
3.3599,-0.00014116,0
3.3605,-0.0001509,0
3.361,-0.00011246,0
3.3615,-4.9683e-05,0
3.362,-7.5532e-06,0
3.3625,6.8818e-06,0
3.3631,1.1749e-05,0
3.3636,4.5319e-06,0
3.3641,-8.3925e-07,0
3.3646,1.0071e-05,0
3.3651,2.9206e-05,0
3.3657,5.2705e-05,0
3.3662,8.1407e-05,0
3.3667,0.00010524,0
3.3672,0.00012505,0
3.3677,0.00013143,0
3.3683,0.00013462,0
3.3688,0.00016634,0
3.3693,0.00022408,0
3.3698,0.00028988,0
3.3703,0.00033721,0
3.3708,0.00033822,0
3.3714,0.00029995,0
3.3719,0.00023952,0
3.3724,0.00016768,0
3.3729,8.9128e-05,0
3.3734,7.8889e-06,0
3.374,-6.6468e-05,0
3.3745,-0.00012656,0
3.375,-0.00016013,0
3.3755,-0.00016147,0
3.376,-0.0001326,0
3.3766,-9.3492e-05,0
3.3771,-6.2943e-05,0
3.3776,-3.6423e-05,0
3.3781,-1.796e-05,0
3.3786,-1.8967e-05,0
3.3792,-5.8244e-05,0
3.3797,-0.00013394,0
3.3802,-0.00020948,0
3.3807,-0.00024422,0
3.3812,-0.00023146,0
3.3817,-0.00018665,0
3.3823,-0.00010558,0
3.3828,1.1749e-05,0
3.3833,0.00012572,0
3.3838,0.00019689,0
3.3843,0.00022055,0
3.3849,0.00019991,0
3.3854,0.0001378,0
3.3859,5.7237e-05,0
3.3864,-1.1246e-05,0
3.3869,-5.8579e-05,0
3.3875,-0.00010172,0
3.388,-0.00013797,0
3.3885,-0.00015409,0
3.389,-0.00016667,0
3.3895,-0.00019252,0
3.3901,-0.00021384,0
3.3906,-0.00020377,0
3.3911,-0.00015241,0
3.3916,-7.6036e-05,0
3.3921,9.3996e-06,0
3.3927,0.00010591,0
3.3932,0.00019756,0
3.3937,0.00025563,0
3.3942,0.00027443,0
3.3947,0.00025631,0
3.3952,0.00021451,0
3.3958,0.00017238,0
3.3963,0.00013646,0
3.3968,0.00010138,0
3.3973,7.4693e-05,0
3.3978,6.3783e-05,0
3.3984,6.7308e-05,0
3.3989,7.9728e-05,0
3.3994,8.9128e-05,0
3.3999,8.2414e-05,0
3.4004,4.8005e-05,0
3.401,-8.3925e-06,0
3.4015,-5.388e-05,0
3.402,-7.57e-05,0
3.4025,-9.4163e-05,0
3.403,-0.00012337,0
3.4036,-0.00015811,0
3.4041,-0.00017943,0
3.4046,-0.00017473,0
3.4051,-0.00016231,0
3.4056,-0.00014418,0
3.4062,-0.00010121,0
3.4067,-2.887e-05,0
3.4072,4.448e-05,0
3.4077,9.3324e-05,0
3.4082,0.00010239,0
3.4087,6.865e-05,0
3.4093,1.4603e-05,0
3.4098,-4.5487e-05,0
3.4103,-0.00010457,0
3.4108,-0.00013864,0
3.4113,-0.00011968,0
3.4119,-4.683e-05,0
3.4124,4.2466e-05,0
3.4129,0.00010457,0
3.4134,0.00014469,0
3.4139,0.00018984,0
3.4145,0.00021602,0
3.415,0.00020175,0
3.4155,0.0001608,0
3.416,0.00011397,0
3.4165,7.7714e-05,0
3.4171,4.8844e-05,0
3.4176,2.652e-05,0
3.4181,2.1317e-05,0
3.4186,3.1891e-05,0
3.4191,6.0761e-05,0
3.4197,9.987e-05,0
3.4202,0.00012471,0
3.4207,0.00012706,0
3.4212,0.00013008,0
3.4217,0.00014284,0
3.4223,0.00015929,0
3.4228,0.00016835,0
3.4233,0.00014301,0
3.4238,8.3757e-05,0
3.4243,1.7624e-05,0
3.4248,-2.0981e-05,0
3.4254,-2.7024e-05,0
3.4259,-2.0478e-05,0
3.4264,-4.1962e-06,0
3.4269,5.0355e-07,0
3.4274,-3.9109e-05,0
3.428,-0.00013092,0
3.4285,-0.0002365,0
3.429,-0.0003033,0
3.4295,-0.0003075,0
3.43,-0.00024959,0
3.4306,-0.00011901,0
3.4311,6.1936e-05,0
3.4316,0.00023381,0
3.4321,0.00035534,0
3.4326,0.00041811,0
3.4332,0.00039797,0
3.4337,0.00029625,0
3.4342,0.00017742,0
3.4347,0.00010373,0
3.4352,7.8218e-05,0
3.4358,7.3182e-05,0
3.4363,6.009e-05,0
3.4368,2.9038e-05,0
3.4373,-3.5248e-06,0
3.4378,-2.7695e-05,0
3.4383,-5.4551e-05,0
3.4389,-8.2414e-05,0
3.4394,-9.7688e-05,0
3.4399,-0.00010172,0
3.4404,-0.00010256,0
3.4409,-0.00010658,0
3.4415,-0.00011179,0
3.442,-0.00010709,0
3.4425,-8.7282e-05,0
3.443,-6.4958e-05,0
3.4435,-5.2705e-05,0
3.4441,-3.7095e-05,0
3.4446,2.5177e-06,0
3.4451,5.7572e-05,0
3.4456,0.00011397,0
3.4461,0.00017238,0
3.4467,0.00020897,0
3.4472,0.00020125,0
3.4477,0.00017171,0
3.4482,0.00015492,0
3.4487,0.00015392,0
3.4493,0.00015459,0
3.4498,0.00013478,0
3.4503,8.2918e-05,0
3.4508,3.2731e-05,0
3.4513,9.5674e-06,0
3.4518,1.0575e-05,0
3.4524,8.5603e-06,0
3.4529,-1.0071e-05,0
3.4534,-5.388e-05,0
3.4539,-0.00011363,0
3.4544,-0.00016449,0
3.455,-0.00018329,0
3.4555,-0.00018212,0
3.456,-0.0001744,0
3.4565,-0.0001561,0
3.457,-0.00011766,0
3.4576,-7.1168e-05,0
3.4581,-3.7766e-05,0
3.4586,-5.2033e-06,0
3.4591,5.5222e-05,0
3.4596,0.0001425,0
3.4602,0.00021804,0
3.4607,0.00023532,0
3.4612,0.00017842,0
3.4617,9.0135e-05,0
3.4622,1.5106e-05,0
3.4628,-3.6759e-05,0
3.4633,-6.714e-05,0
3.4638,-7.6875e-05,0
3.4643,-6.7308e-05,0
3.4648,-5.6733e-05,0
3.4653,-6.5629e-05,0
3.4659,-9.4163e-05,0
3.4664,-0.00011917,0
3.4669,-0.00013445,0
3.4674,-0.00015325,0
3.4679,-0.00017037,0
3.4685,-0.00016617,0
3.469,-0.00013629,0
3.4695,-0.00010222,0
3.47,-7.2007e-05,0
3.4705,-3.9445e-05,0
3.4711,7.5532e-06,0
3.4716,7.9057e-05,0
3.4721,0.00016567,0
3.4726,0.00023549,0
3.4731,0.00025647,0
3.4737,0.00022005,0
3.4742,0.00015325,0
3.4747,8.1071e-05,0
3.4752,-3.357e-06,0
3.4757,-7.7379e-05,0
3.4762,-0.00010037,0
3.4768,-8.1407e-05,0
3.4773,-5.0355e-05,0
3.4778,-1.8967e-05,0
3.4783,1.2924e-05,0
3.4788,3.978e-05,0
3.4794,5.2537e-05,0
3.4799,4.5991e-05,0
3.4804,3.0045e-05,0
3.4809,2.4506e-05,0
3.4814,4.7166e-05,0
3.482,8.5771e-05,0
3.4825,0.00010793,0
3.483,0.00010994,0
3.4835,0.00010323,0
3.484,9.836e-05,0
3.4846,8.5771e-05,0
3.4851,6.63e-05,0
3.4856,5.8579e-05,0
3.4861,6.3951e-05,0
3.4866,6.0929e-05,0
3.4872,3.5752e-05,0
3.4877,-1.1749e-06,0
3.4882,-2.7024e-05,0
3.4887,-4.4648e-05,0
3.4892,-8.3085e-05,0
3.4897,-0.00014401,0
3.4903,-0.00018514,0
3.4908,-0.00017708,0
3.4913,-0.00011296,0
3.4918,-1.1582e-05,0
3.4923,9.7017e-05,0
3.4929,0.00018648,0
3.4934,0.00021367,0
3.4939,0.00016902,0
3.4944,9.8863e-05,0
3.4949,5.1865e-05,0
3.4955,3.8437e-05,0
3.496,4.4648e-05,0
3.4965,4.4816e-05,0
3.497,2.6017e-05,0
3.4975,7.5532e-06,0
3.4981,1.091e-05,0
3.4986,4.5151e-05,0
3.4991,0.00010692,0
3.4996,0.00017037,0
3.5001,0.00020595,0
3.5007,0.00020562,0
3.5012,0.0001791,0
3.5017,0.000142,0
3.5022,0.00010776,0
3.5027,8.7114e-05,0
3.5032,6.6804e-05,0
3.5038,2.887e-05,0
3.5043,-1.6281e-05,0
3.5048,-5.1698e-05,0
3.5053,-6.9993e-05,0
3.5058,-7.2007e-05,0
3.5064,-5.9754e-05,0
3.5069,-3.2731e-05,0
3.5074,-1.9303e-05,0
3.5079,-2.8367e-05,0
3.5084,-4.1123e-05,0
3.509,-4.1459e-05,0
3.5095,-1.6617e-05,0
3.51,2.1149e-05,0
3.5105,5.4887e-05,0
3.511,8.661e-05,0
3.5116,0.00011901,0
3.5121,0.0001566,0
3.5126,0.0001895,0
3.5131,0.00020226,0
3.5136,0.00020528,0
3.5142,0.00022005,0
3.5147,0.00023314,0
3.5152,0.00022206,0
3.5157,0.00019991,0
3.5162,0.00017557,0
3.5168,0.00013109,0
3.5173,6.0594e-05,0
3.5178,-2.5681e-05,0
3.5183,-0.00010323,0
3.5188,-0.00014888,0
3.5193,-0.00016852,0
3.5199,-0.00018581,0
3.5204,-0.00019991,0
3.5209,-0.00019873,0
3.5214,-0.00018413,0
3.5219,-0.00015694,0
3.5225,-0.00011582,0
3.523,-8.4932e-05,0
3.5235,-6.8315e-05,0
3.524,-4.7166e-05,0
3.5245,-3.5248e-05,0
3.5251,-6.1265e-05,0
3.5256,-0.00011363,0
3.5261,-0.00016432,0
3.5266,-0.00020209,0
3.5271,-0.00020058,0
3.5277,-0.00014234,0
3.5282,-6.1265e-05,0
3.5287,2.5177e-06,0
3.5292,2.7863e-05,0
3.5297,4.1962e-06,0
3.5303,-3.4241e-05,0
3.5308,-4.8844e-05,0
3.5313,-4.4816e-05,0
3.5318,-4.4648e-05,0
3.5323,-5.8244e-05,0
3.5328,-6.6133e-05,0
3.5334,-5.7069e-05,0
3.5339,-4.1627e-05,0
3.5344,-3.1891e-05,0
3.5349,-2.4002e-05,0
3.5354,7.2175e-06,0
3.536,7.6371e-05,0
3.5365,0.00016818,0
3.537,0.00024002,0
3.5375,0.00024691,0
3.538,0.00019655,0
3.5386,0.00013277,0
3.5391,7.6539e-05,0
3.5396,4.0787e-05,0
3.5401,3.6759e-05,0
3.5406,6.1097e-05,0
3.5412,9.3828e-05,0
3.5417,9.5842e-05,0
3.5422,6.2272e-05,0
3.5427,2.9374e-05,0
3.5432,2.9709e-05,0
3.5438,7.4022e-05,0
3.5443,0.00014804,0
3.5448,0.00021703,0
3.5453,0.00025228,0
3.5458,0.00025261,0
3.5463,0.00023717,0
3.5469,0.00023079,0
3.5474,0.00022475,0
3.5479,0.0001848,0
3.5484,0.00010155,0
3.5489,8.5603e-06,0
3.5495,-6.2943e-05,0
3.55,-0.00010977,0
3.5505,-0.00014653,0
3.551,-0.00018379,0
3.5515,-0.00023465,0
3.5521,-0.00029844,0
3.5526,-0.00036709,0
3.5531,-0.00041744,0
3.5536,-0.00042029,0
3.5541,-0.00036188,0
3.5547,-0.0002751,0
3.5552,-0.00020998,0
3.5557,-0.00016248,0
3.5562,-9.4499e-05,0
3.5567,1.6449e-05,0
3.5572,0.00016835,0
3.5578,0.00031539,0
3.5583,0.00040317,0
3.5588,0.00041207,0
3.5593,0.0003597,0
3.5598,0.00028182,0
3.5604,0.00021401,0
3.5609,0.00016265,0
3.5614,0.00010642,0
3.5619,3.0716e-05,0
3.5624,-5.153e-05,0
3.563,-0.00011145,0
3.5635,-0.00015174,0
3.564,-0.00017943,0
3.5645,-0.00019219,0
3.565,-0.00019471,0
3.5656,-0.00019084,0
3.5661,-0.00017641,0
3.5666,-0.00014049,0
3.5671,-8.6107e-05,0
3.5676,-9.5674e-06,0
3.5682,9.5506e-05,0
3.5687,0.00022055,0
3.5692,0.00033922,0
3.5697,0.0004161,0
3.5702,0.00044211,0
3.5707,0.00043053,0
3.5713,0.00039394,0
3.5718,0.00033251,0
3.5723,0.00025949,0
3.5728,0.0001994,0
3.5733,0.0001556,0
3.5739,0.00011934,0
3.5744,8.7114e-05,0
3.5749,6.4958e-05,0
3.5754,6.5965e-05,0
3.5759,7.7714e-05,0
3.5765,6.9322e-05,0
3.577,3.1388e-05,0
3.5775,-1.4267e-05,0
3.578,-5.6062e-05,0
3.5785,-9.8024e-05,0
3.5791,-0.00013764,0
3.5796,-0.00018296,0
3.5801,-0.00023935,0
3.5806,-0.000308,0
3.5811,-0.00038135,0
3.5817,-0.00043305,0
3.5822,-0.00042231,0
3.5827,-0.00032898,0
3.5832,-0.00016735,0
3.5837,3.1724e-05,0
3.5842,0.00021367,0
3.5848,0.00032815,0
3.5853,0.00036507,0
3.5858,0.00037481,0
3.5863,0.00039864,0
3.5868,0.00041643,0
3.5874,0.00038488,0
3.5879,0.00030179,0
3.5884,0.00021216,0
3.5889,0.0001462,0
3.5894,0.00010155,0
3.59,5.4215e-05,0
3.5905,4.8676e-06,0
3.591,-3.4577e-05,0
3.5915,-6.244e-05,0
3.592,-9.1981e-05,0
3.5926,-0.00013042,0
3.5931,-0.00017356,0
3.5936,-0.00021753,0
3.5941,-0.00026319,0
3.5946,-0.00027494,0
3.5952,-0.00023717,0
3.5957,-0.00019219,0
3.5962,-0.0001561,0
3.5967,-9.8024e-05,0
3.5972,-1.4267e-05,0
3.5978,6.7643e-05,0
3.5983,0.00010977,0
3.5988,8.8121e-05,0
3.5993,2.2995e-05,0
3.5998,-2.2324e-05,0
3.6003,-5.3712e-06,0
3.6009,5.0858e-05,0
3.6014,9.1646e-05,0
3.6019,9.0806e-05,0
3.6024,6.0929e-05,0
3.6029,1.4603e-05,0
3.6035,-3.9109e-05,0
3.604,-8.3085e-05,0
3.6045,-0.00010591,0
3.605,-0.00011498,0
3.6055,-0.00011296,0
3.6061,-0.00010138,0
3.6066,-9.0303e-05,0
3.6071,-7.805e-05,0
3.6076,-6.2943e-05,0
3.6081,-3.6423e-05,0
3.6087,1.5946e-05,0
3.6092,8.7449e-05,0
3.6097,0.00015291,0
3.6102,0.00018782,0
3.6107,0.00019689,0
3.6113,0.00021434,0
3.6118,0.00023583,0
3.6123,0.00022123,0
3.6128,0.00014788,0
3.6133,5.5558e-05,0
3.6138,-3.4577e-05,0
3.6144,-0.0001378,0
3.6149,-0.00026168,0
3.6154,-0.00036524,0
3.6159,-0.00040385,0
3.6164,-0.00038941,0
3.617,-0.00035467,0
3.6175,-0.00031321,0
3.618,-0.00027007,0
3.6185,-0.00021602,0
3.619,-0.00015023,0
3.6196,-8.275e-05,0
3.6201,-3.0045e-05,0
3.6206,2.0645e-05,0
3.6211,9.7017e-05,0
3.6216,0.00019924,0
3.6222,0.0002835,0
3.6227,0.00032009,0
3.6232,0.00031908,0
3.6237,0.00031807,0
3.6242,0.00031656,0
3.6248,0.00029357,0
3.6253,0.00024154,0
3.6258,0.00017977,0
3.6263,0.00013042,0
3.6268,9.0471e-05,0
3.6273,3.3906e-05,0
3.6279,-4.1459e-05,0
3.6284,-0.00010037,0
3.6289,-0.00012773,0
3.6294,-0.00014083,0
3.6299,-0.00013361,0
3.6305,-7.57e-05,0
3.631,2.4674e-05,0
3.6315,0.0001274,0
3.632,0.00020226,0
3.6325,0.00023801,0
3.6331,0.00025228,0
3.6336,0.00026268,0
3.6341,0.00027208,0
3.6346,0.00027645,0
3.6351,0.00026033,0
3.6357,0.00023146,0
3.6362,0.00020075,0
3.6367,0.00017842,0
3.6372,0.00015929,0
3.6377,0.00013143,0
3.6383,0.00010138,0
3.6388,6.5629e-05,0
3.6393,1.9638e-05,0
3.6398,-1.7624e-05,0
3.6403,-4.3641e-05,0
3.6408,-7.2007e-05,0
3.6414,-0.00011044,0
3.6419,-0.00015576,0
3.6424,-0.00017423,0
3.6429,-0.00012404,0
3.6434,-1.3092e-05,0
3.644,0.00010423,0
3.6445,0.00018917,0
3.645,0.00022609,0
3.6455,0.00019722,0
3.646,0.00012236,0
3.6466,5.8244e-05,0
3.6471,1.9974e-05,0
3.6476,-4.3641e-06,0
3.6481,-2.1988e-05,0
3.6486,-4.1123e-05,0
3.6492,-7.335e-05,0
3.6497,-0.00011246,0
3.6502,-0.00014267,0
3.6507,-0.00015996,0
3.6512,-0.00017607,0
3.6517,-0.00018531,0
3.6523,-0.00018128,0
3.6528,-0.00017003,0
3.6533,-0.00014871,0
3.6538,-0.00011313,0
3.6543,-5.7908e-05,0
3.6549,7.3854e-06,0
3.6554,6.5461e-05,0
3.6559,0.00010323,0
3.6564,0.00010188,0
3.6569,7.6875e-05,0
3.6575,8.896e-05,0
3.658,0.00015862,0
3.6585,0.00024422,0
3.659,0.00030129,0
3.6595,0.00030398,0
3.6601,0.00025194,0
3.6606,0.00016986,0
3.6611,9.6345e-05,0
3.6616,4.7837e-05,0
3.6621,4.1962e-06,0
3.6627,-4.6662e-05,0
3.6632,-9.3492e-05,0
3.6637,-0.00012488,0
3.6642,-0.00012908,0
3.6647,-0.00012438,0
3.6652,-0.00012824,0
3.6658,-0.000118,0
3.6663,-8.0903e-05,0
3.6668,-4.3305e-05,0
3.6673,-2.3331e-05,0
3.6678,-1.091e-05,0
3.6684,-3.6927e-06,0
3.6689,-8.3925e-07,0
3.6694,8.3925e-07,0
3.6699,-8.3925e-07,0
3.6704,-5.7069e-06,0
3.671,-1.7456e-05,0
3.6715,-3.7766e-05,0
3.672,-6.6972e-05,0
3.6725,-9.1142e-05,0
3.673,-0.00010054,0
3.6736,-0.00010155,0
3.6741,-9.9367e-05,0
3.6746,-9.0303e-05,0
3.6751,-6.9993e-05,0
3.6756,-4.918e-05,0
3.6762,-3.743e-05,0
3.6767,-4.7501e-05,0
3.6772,-8.2246e-05,0
3.6777,-0.00011598,0
3.6782,-0.00012253,0
3.6787,-0.0001039,0
3.6793,-8.0735e-05,0
3.6798,-6.7643e-05,0
3.6803,-7.3518e-05,0
3.6808,-9.3492e-05,0
3.6813,-0.00011296,0
3.6819,-0.00012152,0
3.6824,-0.00011514,0
3.6829,-9.1814e-05,0
3.6834,-5.304e-05,0
3.6839,-9.0639e-06,0
3.6845,2.652e-05,0
3.685,4.4144e-05,0
3.6855,4.3977e-05,0
3.686,3.2059e-05,0
3.6865,2.0645e-05,0
3.6871,-9.9031e-06,0
3.6876,-5.623e-05,0
3.6881,-9.4835e-05,0
3.6886,-0.00012605,0
3.6891,-0.0001425,0
3.6897,-0.00012908,0
3.6902,-0.00010222,0
3.6907,-6.4622e-05,0
3.6912,-1.3764e-05,0
3.6917,5.0019e-05,0
3.6923,0.00012169,0
3.6928,0.00020108,0
3.6933,0.00029726,0
3.6938,0.00041308,0
3.6943,0.00051009,0
3.6948,0.000544,0
3.6954,0.00051127,0
3.6959,0.00045873,0
3.6964,0.0004161,0
3.6969,0.00037111,0
3.6974,0.00032009,0
3.698,0.00027242,0
3.6985,0.00021669,0
3.699,0.0001462,0
3.6995,9.2653e-05,0
3.7,7.4357e-05,0
3.7006,5.3208e-05,0
3.7011,-1.091e-05,0
3.7016,-9.6513e-05,0
3.7021,-0.00014855,0
3.7026,-0.00014099,0
3.7032,-6.4118e-05,0
3.7037,4.1794e-05,0
3.7042,0.00010726,0
3.7047,0.00010608,0
3.7052,4.3977e-05,0
3.7058,-3.6088e-05,0
3.7063,-8.0903e-05,0
3.7068,-7.7043e-05,0
3.7073,-4.0452e-05,0
3.7078,1.5274e-05,0
3.7083,8.6442e-05,0
3.7089,0.00016466,0
3.7094,0.00023214,0
3.7099,0.0002845,0
3.7104,0.00030196,0
3.7109,0.00027024,0
3.7115,0.00019571,0
3.712,0.00010155,0
3.7125,3.1891e-06,0
3.713,-0.00011565,0
3.7135,-0.00026201,0
3.7141,-0.00036994,0
3.7146,-0.00041425,0
3.7151,-0.00042583,0
3.7156,-0.000426,0
3.7161,-0.00040888,0
3.7167,-0.00036423,0
3.7172,-0.00028434,0
3.7177,-0.00017456,0
3.7182,-5.8915e-05,0
3.7187,5.0523e-05,0
3.7193,0.00018514,0
3.7198,0.00034493,0
3.7203,0.00047921,0
3.7208,0.00053359,0
3.7213,0.00049331,0
3.7218,0.00039327,0
3.7224,0.00027158,0
3.7229,0.00016533,0
3.7234,0.00010423,0
3.7239,8.8457e-05,0
3.7244,9.1814e-05,0
3.725,9.0806e-05,0
3.7255,6.7308e-05,0
3.726,2.8031e-05,0
3.7265,-5.8747e-06,0
3.727,-2.3331e-05,0
3.7276,-3.2731e-05,0
3.7281,-5.539e-05,0
3.7286,-8.04e-05,0
3.7291,-8.896e-05,0
3.7296,-0.00010423,0
3.7302,-0.00015073,0
3.7307,-0.00022576,0
3.7312,-0.00029155,0
3.7317,-0.00031589,0
3.7322,-0.00031875,0
3.7327,-0.0003164,0
3.7333,-0.00029911,0
3.7338,-0.00027108,0
3.7343,-0.00025345,0
3.7348,-0.00025966,0
3.7353,-0.00024657,0
3.7359,-0.00015509,0
3.7364,6.5461e-06,0
3.7369,0.00018144,0
3.7374,0.00032378,0
3.7379,0.00040066,0
3.7385,0.00039294,0
3.739,0.00031807,0
3.7395,0.00022139,0
3.74,0.00014334,0
3.7405,0.0001034,0
3.7411,9.6513e-05,0
3.7416,0.00010558,0
3.7421,0.00011582,0
3.7426,9.5842e-05,0
3.7431,2.8031e-05,0
3.7437,-6.1433e-05,0
3.7442,-0.00014771,0
3.7447,-0.00023214,0
3.7452,-0.000307,0
3.7457,-0.00035198,0
3.7462,-0.00035853,0
3.7468,-0.0003174,0
3.7473,-0.00022005,0
3.7478,-8.0735e-05,0
3.7483,7.3014e-05,0
3.7488,0.00019974,0
3.7494,0.00025597,0
3.7499,0.00022441,0
3.7504,0.00014519,0
3.7509,8.1407e-05,0
3.7514,6.3615e-05,0
3.752,6.6972e-05,0
3.7525,4.2802e-05,0
3.753,-7.2175e-06,0
3.7535,-6.2272e-05,0
3.754,-0.00011028,0
3.7546,-0.00015224,0
3.7551,-0.00017675,0
3.7556,-0.00016886,0
3.7561,-0.00015157,0
3.7566,-0.00012992,0
3.7572,-8.8457e-05,0
3.7577,-4.6159e-05,0
3.7582,-1.5274e-05,0
3.7587,3.0045e-05,0
3.7592,9.6513e-05,0
3.7597,0.00014553,0
3.7603,0.00016231,0
3.7608,0.00019454,0
3.7613,0.0002788,0
3.7618,0.00038253,0
3.7623,0.00045705,0
3.7629,0.00048592,0
3.7634,0.00045638,0
3.7639,0.00036776,0
3.7644,0.00024154,0
3.7649,0.00011699,0
3.7655,4.1459e-05,0
3.766,4.1291e-05,0
3.7665,0.0001034,0
3.767,0.00018665,0
3.7675,0.00024086,0
3.7681,0.00023952,0
3.7686,0.0001984,0
3.7691,0.00015258,0
3.7696,0.00010591,0
3.7701,5.3208e-05,0
3.7707,-5.539e-06,0
3.7712,-7.3014e-05,0
3.7717,-0.00012673,0
3.7722,-0.00013629,0
3.7727,-0.00010977,0
3.7732,-7.6539e-05,0
3.7738,-5.5558e-05,0
3.7743,-4.1123e-05,0
3.7748,-2.8367e-05,0
3.7753,-9.0639e-06,0
3.7758,1.1917e-05,0
3.7764,1.7456e-05,0
3.7769,-1.4267e-05,0
3.7774,-7.4861e-05,0
3.7779,-0.00011565,0
3.7784,-0.00012992,0
3.779,-0.00015996,0
3.7795,-0.00020931,0
3.78,-0.00026722,0
3.7805,-0.00032512,0
3.781,-0.00035349,0
3.7816,-0.00033385,0
3.7821,-0.00026806,0
3.7826,-0.00017842,0
3.7831,-9.7688e-05,0
3.7836,-3.7934e-05,0
3.7842,1.1582e-05,0
3.7847,8.51e-05,0
3.7852,0.00020662,0
3.7857,0.00035232,0
3.7862,0.00047065,0
3.7868,0.00053359,0
3.7873,0.00055306,0
3.7878,0.00052621,0
3.7883,0.0004349,0
3.7888,0.00029055,0
3.7893,0.00013495,0
3.7899,1.8296e-05,0
3.7904,-3.9612e-05,0
3.7909,-5.0858e-05,0
3.7914,-4.0452e-05,0
3.7919,-2.3331e-05,0
3.7925,-3.6927e-06,0
3.793,1.561e-05,0
3.7935,2.1653e-05,0
3.794,1.0407e-05,0
3.7945,-1.6114e-05,0
3.7951,-4.8173e-05,0
3.7956,-8.0064e-05,0
3.7961,-9.9535e-05,0
3.7966,-0.00010726,0
3.7971,-0.00011917,0
3.7977,-0.00013545,0
3.7982,-0.00014821,0
3.7987,-0.0001514,0
3.7992,-0.00013579,0
3.7997,-9.9031e-05,0
3.8003,-5.6397e-05,0
3.8008,-2.9206e-05,0
3.8013,-2.1988e-05,0
3.8018,-2.6017e-05,0
3.8023,-1.4603e-05,0
3.8028,2.6352e-05,0
3.8034,7.2847e-05,0
3.8039,9.7856e-05,0
3.8044,9.987e-05,0
3.8049,9.0974e-05,0
3.8054,7.8721e-05,0
3.806,6.63e-05,0
3.8065,6.4286e-05,0
3.807,7.7546e-05,0
3.8075,8.9967e-05,0
3.808,8.04e-05,0
3.8086,4.4816e-05,0
3.8091,-3.1891e-06,0
3.8096,-4.7166e-05,0
3.8101,-8.3925e-05,0
3.8106,-0.00011766,0
3.8112,-0.00014636,0
3.8117,-0.00016785,0
3.8122,-0.00018547,0
3.8127,-0.00019303,0
3.8132,-0.00019034,0
3.8138,-0.00017372,0
3.8143,-0.00013982,0
3.8148,-0.00010407,0
3.8153,-7.9896e-05,0
3.8158,-6.7643e-05,0
3.8163,-5.7237e-05,0
3.8169,-5.153e-05,0
3.8174,-5.8412e-05,0
3.8179,-6.5293e-05,0
3.8184,-5.1865e-05,0
3.8189,-3.0213e-05,0
3.8195,-2.2995e-05,0
3.82,-2.2324e-05,0
3.8205,-1.9303e-05,0
3.821,-1.8128e-05,0
3.8215,-2.8031e-05,0
3.8221,-4.5487e-05,0
3.8226,-5.388e-05,0
3.8231,-4.0787e-05,0
3.8236,-2.9374e-05,0
3.8241,-3.7263e-05,0
3.8247,-3.6423e-05,0
3.8252,-6.8818e-06,0
3.8257,4.5487e-05,0
3.8262,0.00011044,0
3.8267,0.00017809,0
3.8272,0.00023449,0
3.8278,0.00026671,0
3.8283,0.00027292,0
3.8288,0.00026302,0
3.8293,0.00024204,0
3.8298,0.00022509,0
3.8304,0.00022777,0
3.8309,0.00024691,0
3.8314,0.00026889,0
3.8319,0.00028182,0
3.8324,0.00028249,0
3.833,0.00027628,0
3.8335,0.00027745,0
3.834,0.00027645,0
3.8345,0.00025161,0
3.835,0.00019286,0
3.8356,0.000118,0
3.8361,6.7979e-05,0
3.8366,4.683e-05,0
3.8371,2.266e-05,0
3.8376,-1.0407e-05,0
3.8382,-2.8031e-05,0
3.8387,-3.0213e-05,0
3.8392,-3.3402e-05,0
3.8397,-3.7095e-05,0
3.8402,-4.2969e-05,0
3.8407,-7.2511e-05,0
3.8413,-0.00012488,0
3.8418,-0.00015879,0
3.8423,-0.00014955,0
3.8428,-0.00011431,0
3.8433,-7.7379e-05,0
3.8439,-4.0787e-05,0
3.8444,9.9031e-06,0
3.8449,7.0665e-05,0
3.8454,0.00011666,0
3.8459,0.00011565,0
3.8465,6.1097e-05,0
3.847,-1.4267e-05,0
3.8475,-6.7308e-05,0
3.848,-9.0974e-05,0
3.8485,-0.00010105,0
3.8491,-0.00011565,0
3.8496,-0.00013646,0
3.8501,-0.00015845,0
3.8506,-0.0001754,0
3.8511,-0.0001749,0
3.8517,-0.00015593,0
3.8522,-0.00012757,0
3.8527,-9.4835e-05,0
3.8532,-4.5487e-05,0
3.8537,1.7121e-05,0
3.8542,8.1743e-05,0
3.8548,0.00013713,0
3.8553,0.00016768,0
3.8558,0.00016214,0
3.8563,0.00011884,0
3.8568,5.4887e-05,0
3.8574,2.182e-06,0
3.8579,-2.9877e-05,0
3.8584,-4.448e-05,0
3.8589,-6.1601e-05,0
3.8594,-9.2821e-05,0
3.86,-0.00013445,0
3.8605,-0.00017087,0
3.861,-0.00017826,0
3.8615,-0.00015476,0
3.862,-0.00011867,0
3.8626,-7.6036e-05,0
3.8631,-8.5603e-06,0
3.8636,0.00011531,0
3.8641,0.00026537,0
3.8646,0.00038169,0
3.8652,0.00044379,0
3.8657,0.00044027,0
3.8662,0.00039126,0
3.8667,0.00033989,0
3.8672,0.00029525,0
3.8678,0.00023952,0
3.8683,0.00016902,0
3.8688,9.2149e-05,0
3.8693,1.8296e-05,0
3.8698,-5.8579e-05,0
3.8703,-0.00013596,0
3.8709,-0.000189,0
3.8714,-0.00019857,0
3.8719,-0.00017238,0
3.8724,-0.00012924,0
3.8729,-8.5435e-05,0
3.8735,-6.7308e-05,0
3.874,-8.5267e-05,0
3.8745,-0.00010977,0
3.875,-9.3828e-05,0
3.8755,-3.4745e-05,0
3.8761,3.4241e-05,0
3.8766,8.0903e-05,0
3.8771,8.6778e-05,0
3.8776,4.2802e-05,0
3.8781,-2.2828e-05,0
3.8787,-6.2272e-05,0
3.8792,-6.5629e-05,0
3.8797,-5.153e-05,0
3.8802,-3.4241e-05,0
3.8807,-1.5106e-05,0
3.8813,5.2033e-06,0
3.8818,1.6617e-05,0
3.8823,1.7288e-05,0
3.8828,2.0645e-05,0
3.8833,2.8367e-05,0
3.8838,3.5584e-05,0
3.8844,3.3906e-05,0
3.8849,9.9031e-06,0
3.8854,-5.1194e-05,0
3.8859,-0.00013663,0
3.8864,-0.00020209,0
3.887,-0.00022593,0
3.8875,-0.00020797,0
3.888,-0.00014687,0
3.8885,-5.0187e-05,0
3.889,8.275e-05,0
3.8896,0.00024472,0
3.8901,0.00039831,0
3.8906,0.00048928,0
3.8911,0.00048861,0
3.8916,0.00042248,0
3.8922,0.00034258,0
3.8927,0.00026973,0
3.8932,0.00021451,0
3.8937,0.00017624,0
3.8942,0.00014217,0
3.8948,0.00010994,0
3.8953,8.0903e-05,0
3.8958,4.8508e-05,0
3.8963,2.3499e-06,0
3.8968,-4.5823e-05,0
3.8973,-7.0665e-05,0
3.8979,-6.8986e-05,0
3.8984,-6.1601e-05,0
3.8989,-7.9225e-05,0
3.8994,-0.00011833,0
3.8999,-0.00015224,0
3.9005,-0.00019135,0
3.901,-0.00024607,0
3.9015,-0.00030196,0
3.902,-0.00032529,0
3.9025,-0.0002694,0
3.9031,-0.00014704,0
3.9036,-3.357e-05,0
3.9041,2.6688e-05,0
3.9046,4.6159e-05,0
3.9051,3.508e-05,0
3.9057,-1.5274e-05,0
3.9062,-6.7308e-05,0
3.9067,-5.8747e-05,0
3.9072,1.326e-05,0
3.9077,9.0471e-05,0
3.9082,0.00013864,0
3.9088,0.00016097,0
3.9093,0.00017574,0
3.9098,0.00018866,0
3.9103,0.00018883,0
3.9108,0.00017003,0
3.9114,0.00013915,0
3.9119,0.00010524,0
3.9124,7.9728e-05,0
3.9129,6.4958e-05,0
3.9134,5.4215e-05,0
3.914,3.8437e-05,0
3.9145,1.796e-05,0
3.915,-1.5106e-06,0
3.9155,-2.3667e-05,0
3.916,-3.5248e-05,0
3.9166,-3.592e-05,0
3.9171,-3.7095e-05,0
3.9176,-4.7166e-05,0
3.9181,-6.3447e-05,0
3.9186,-7.7546e-05,0
3.9192,-8.8121e-05,0
3.9197,-0.00010172,0
3.9202,-0.00011212,0
3.9207,-0.00012303,0
3.9212,-0.00013294,0
3.9217,-0.00011565,0
3.9223,-6.1936e-05,0
3.9228,-6.8818e-06,0
3.9233,2.266e-05,0
3.9238,4.448e-05,0
3.9243,7.1e-05,0
3.9249,9.3828e-05,0
3.9254,0.00011061,0
3.9259,0.00013277,0
3.9264,0.0001561,0
3.9269,0.00016617,0
3.9275,0.00014871,0
3.928,0.00010675,0
3.9285,5.0523e-05,0
3.929,0,0
3.9295,-3.1724e-05,0
3.9301,-5.2033e-05,0
3.9306,-8.1743e-05,0
3.9311,-0.00011263,0
3.9316,-0.0001284,0
3.9321,-0.00013663,0
3.9327,-0.0001519,0
3.9332,-0.00016231,0
3.9337,-0.00014804,0
3.9342,-0.00011699,0
3.9347,-9.4835e-05,0
3.9352,-7.0329e-05,0
3.9358,-4.448e-05,0
3.9363,-1.5946e-05,0
3.9368,3.4745e-05,0
3.9373,0.00010138,0
3.9378,0.00017154,0
3.9384,0.00022643,0
3.9389,0.00024875,0
3.9394,0.00025194,0
3.9399,0.00025463,0
3.9404,0.00024892,0
3.941,0.00024019,0
3.9415,0.00025278,0
3.942,0.00027913,0
3.9425,0.00028316,0
3.943,0.00024321,0
3.9436,0.0001744,0
3.9441,0.00011431,0
3.9446,8.5267e-05,0
3.9451,6.865e-05,0
3.9456,4.0116e-05,0
3.9462,4.5319e-06,0
3.9467,-1.9135e-05,0
3.9472,-2.4674e-05,0
3.9477,-1.8967e-05,0
3.9482,-2.2324e-05,0
3.9487,-3.0381e-05,0
3.9493,-1.4267e-05,0
3.9498,1.5946e-05,0
3.9503,3.7095e-05,0
3.9508,4.9516e-05,0
3.9513,5.4887e-05,0
3.9519,5.4887e-05,0
3.9524,5.2873e-05,0
3.9529,4.9516e-05,0
3.9534,2.8031e-05,0
3.9539,-3.3234e-05,0
3.9545,-0.0001091,0
3.955,-0.000166,0
3.9555,-0.00020293,0
3.956,-0.00023046,0
3.9565,-0.00023919,0
3.9571,-0.00022089,0
3.9576,-0.00018749,0
3.9581,-0.00014636,0
3.9586,-0.00010004,0
3.9591,-4.5487e-05,0
3.9597,2.5513e-05,0
3.9602,0.00010188,0
3.9607,0.00014989,0
3.9612,0.0001603,0
3.9617,0.00013797,0
3.9623,9.5338e-05,0
3.9628,5.4047e-05,0
3.9633,2.417e-05,0
3.9638,2.5177e-06,0
3.9643,-1.4267e-05,0
3.9648,-2.9206e-05,0
3.9654,-4.5151e-05,0
3.9659,-5.6733e-05,0
3.9664,-5.4719e-05,0
3.9669,-4.1459e-05,0
3.9674,-2.8534e-05,0
3.968,-1.6953e-05,0
3.9685,-3.357e-07,0
3.969,1.8967e-05,0
3.9695,2.266e-05,0
3.97,1.8463e-06,0
3.9706,-3.6255e-05,0
3.9711,-7.2679e-05,0
3.9716,-9.3492e-05,0
3.9721,-0.00010323,0
3.9726,-0.00011263,0
3.9732,-0.00012438,0
3.9737,-0.00013713,0
3.9742,-0.00013327,0
3.9747,-0.00010524,0
3.9752,-5.304e-05,0
3.9758,2.9709e-05,0
3.9763,0.00012589,0
3.9768,0.00019101,0
3.9773,0.00021233,0
3.9778,0.0001994,0
3.9783,0.00015979,0
3.9789,0.00010054,0
3.9794,4.1962e-05,0
3.9799,6.2104e-06,0
3.9804,-7.5532e-06,0
3.9809,-2.182e-05,0
3.9815,-3.6423e-05,0
3.982,-3.592e-05,0
3.9825,-1.4267e-05,0
3.983,3.0045e-05,0
3.9835,6.5126e-05,0
3.9841,5.7404e-05,0
3.9846,3.0045e-05,0
3.9851,2.031e-05,0
3.9856,2.4002e-05,0
3.9861,1.0742e-05,0
3.9867,-2.2492e-05,0
3.9872,-6.0929e-05,0
3.9877,-7.8553e-05,0
3.9882,-6.8986e-05,0
3.9887,-6.4958e-05,0
3.9893,-7.0497e-05,0
3.9898,-4.4984e-05,0
3.9903,1.8296e-05,0
3.9908,8.5435e-05,0
3.9913,0.00014049,0
3.9918,0.00020159,0
3.9924,0.00027175,0
3.9929,0.00032529,0
3.9934,0.00034728,0
3.9939,0.000355,0
3.9944,0.00036272,0
3.995,0.00034997,0
3.9955,0.00030448,0
3.996,0.00022911,0
3.9965,0.00014452,0
3.997,8.5435e-05,0
3.9976,6.6972e-05,0
3.9981,7.1504e-05,0
3.9986,7.7379e-05,0
3.9991,6.8986e-05,0
3.9996,4.4312e-05,0
4.0002,2.1988e-05,0
4.0007,8.0568e-06,0
4.0012,-2.8534e-06,0
4.0017,-1.1246e-05,0
4.0022,-1.796e-05,0
4.0027,-2.8367e-05,0
4.0033,-5.5055e-05,0
4.0038,-0.00010507,0
4.0043,-0.00015744,0
4.0048,-0.00018732,0
4.0053,-0.00018715,0
4.0059,-0.00015543,0
4.0064,-0.00010591,0
4.0069,-6.6636e-05,0
4.0074,-4.062e-05,0
4.0079,-1.8128e-05,0
4.0085,2.8534e-06,0
4.009,1.6281e-05,0
4.0095,2.5849e-05,0
4.01,3.978e-05,0
4.0105,5.5726e-05,0
4.0111,6.7643e-05,0
4.0116,7.3182e-05,0
4.0121,7.9728e-05,0
4.0126,8.6778e-05,0
4.0131,9.2149e-05,0
4.0137,9.5171e-05,0
4.0142,9.6178e-05,0
4.0147,9.4163e-05,0
4.0152,9.3156e-05,0
4.0157,9.1814e-05,0
4.0163,8.0903e-05,0
4.0168,6.2608e-05,0
4.0173,4.5487e-05,0
4.0178,3.0045e-05,0
4.0183,1.2589e-05,0
4.0188,-9.5674e-06,0
4.0194,-3.0045e-05,0
4.0199,-4.7333e-05,0
4.0204,-6.3951e-05,0
4.0209,-8.1071e-05,0
4.0214,-9.8192e-05,0
4.022,-0.00012119,0
4.0225,-0.00014318,0
4.023,-0.00014737,0
4.0235,-0.00013529,0
4.024,-0.00012421,0
4.0246,-0.00011699,0
4.0251,-0.00010692,0
4.0256,-9.6345e-05,0
4.0261,-9.7688e-05,0
4.0266,-0.00010944,0
4.0272,-0.00012102,0
4.0277,-0.00014234,0
4.0282,-0.00017104,0
4.0287,-0.00019538,0
4.0292,-0.00021888,0
4.0297,-0.00022878,0
4.0303,-0.0002036,0
4.0308,-0.00016667,0
4.0313,-0.00015325,0
4.0318,-0.00015409,0
4.0323,-0.00015341,0
4.0329,-0.00015425,0
4.0334,-0.0001321,0
4.0339,-6.7308e-05,0
4.0344,3.6088e-05,0
4.0349,0.0001613,0
4.0355,0.0002694,0
4.036,0.00031203,0
4.0365,0.00029592,0
4.037,0.00027611,0
4.0375,0.0002845,0
4.0381,0.00031405,0
4.0386,0.00033956,0
4.0391,0.00033754,0
4.0396,0.00029793,0
4.0401,0.00023197,0
4.0407,0.00016231,0
4.0412,0.00011112,0
4.0417,9.3324e-05,0
4.0422,9.0471e-05,0
4.0427,6.8315e-05,0
4.0432,2.7359e-05,0
4.0438,-1.2924e-05,0
4.0443,-2.9206e-05,0
4.0448,-2.9038e-05,0
4.0453,-1.3092e-05,0
4.0458,3.1556e-05,0
4.0464,7.9057e-05,0
4.0469,9.3828e-05,0
4.0474,8.2414e-05,0
4.0479,8.2918e-05,0
4.0484,9.5171e-05,0
4.049,0.00010037,0
4.0495,9.0974e-05,0
4.05,6.9993e-05,0
4.0505,4.8173e-05,0
4.051,4.4816e-05,0
4.0516,5.8244e-05,0
4.0521,6.865e-05,0
4.0526,6.0929e-05,0
4.0531,2.2828e-05,0
4.0536,-3.0381e-05,0
4.0542,-7.0329e-05,0
4.0547,-8.7785e-05,0
4.0552,-9.0806e-05,0
4.0557,-8.9799e-05,0
4.0562,-9.0135e-05,0
4.0568,-8.6275e-05,0
4.0573,-7.3014e-05,0
4.0578,-5.8244e-05,0
4.0583,-4.9012e-05,0
4.0588,-3.0045e-05,0
4.0593,8.896e-06,0
4.0599,4.5991e-05,0
4.0604,6.6972e-05,0
4.0609,8.1743e-05,0
4.0614,8.7617e-05,0
4.0619,8.2918e-05,0
4.0625,7.4022e-05,0
4.063,6.5126e-05,0
4.0635,5.5222e-05,0
4.064,4.2802e-05,0
4.0645,2.7024e-05,0
4.0651,3.6927e-06,0
4.0656,-1.796e-05,0
4.0661,-2.7695e-05,0
4.0666,-4.4648e-05,0
4.0671,-7.4861e-05,0
4.0677,-0.00010323,0
4.0682,-0.00013176,0
4.0687,-0.00014133,0
4.0692,-0.00011128,0
4.0697,-5.8076e-05,0
4.0702,2.5177e-06,0
4.0708,7.6371e-05,0
4.0713,0.00014754,0
4.0718,0.00020125,0
4.0723,0.00023079,0
4.0728,0.00022072,0
4.0734,0.00017557,0
4.0739,0.00013495,0
4.0744,0.00011649,0
4.0749,0.00011666,0
4.0754,0.00012001,0
4.076,0.00011565,0
4.0765,0.00010625,0
4.077,8.896e-05,0
4.0775,4.7837e-05,0
4.078,-1.9638e-05,0
4.0786,-9.1478e-05,0
4.0791,-0.00013512,0
4.0796,-0.00014502,0
4.0801,-0.00015593,0
4.0806,-0.00017356,0
4.0812,-0.00017037,0
4.0817,-0.00014687,0
4.0822,-0.00012068,0
4.0827,-8.8121e-05,0
4.0832,-4.062e-05,0
4.0838,2.2324e-05,0
4.0843,9.4835e-05,0
4.0848,0.00016265,0
4.0853,0.00020192,0
4.0858,0.00021065,0
4.0863,0.00020931,0
4.0869,0.00021736,0
4.0874,0.00024254,0
4.0879,0.0002694,0
4.0884,0.00026621,0
4.0889,0.00022055,0
4.0895,0.00015929,0
4.09,9.9199e-05,0
4.0905,4.6494e-05,0
4.091,-4.5319e-06,0
4.0915,-5.0187e-05,0
4.0921,-9.0806e-05,0
4.0926,-0.00012605,0
4.0931,-0.00014972,0
4.0936,-0.00016667,0
4.0941,-0.00018245,0
4.0947,-0.00018967,0
4.0952,-0.00018648,0
4.0957,-0.00017675,0
4.0962,-0.00016533,0
4.0967,-0.00015358,0
4.0972,-0.00013646,0
4.0978,-0.00010742,0
4.0983,-7.5868e-05,0
4.0988,-5.2705e-05,0
4.0993,-3.3906e-05,0
4.0998,-1.3931e-05,0
4.1004,1.1917e-05,0
4.1009,3.2059e-05,0
4.1014,4.0116e-05,0
4.1019,5.0523e-05,0
4.1024,6.5126e-05,0
4.103,7.9057e-05,0
4.1035,8.275e-05,0
4.104,6.1601e-05,0
4.1045,1.9303e-05,0
4.105,-3.1052e-05,0
4.1056,-7.2679e-05,0
4.1061,-9.1646e-05,0
4.1066,-8.8289e-05,0
4.1071,-7.8721e-05,0
4.1076,-6.8147e-05,0
4.1082,-5.153e-05,0
4.1087,-3.6255e-05,0
4.1092,-4.2634e-05,0
4.1097,-6.6468e-05,0
4.1102,-8.9632e-05,0
4.1108,-9.5506e-05,0
4.1113,-6.8818e-05,0
4.1118,-1.7624e-05,0
4.1123,3.0716e-05,0
4.1128,5.153e-05,0
4.1133,5.0523e-05,0
4.1139,3.8102e-05,0
4.1144,1.7624e-05,0
4.1149,5.7069e-06,0
4.1154,2.1988e-05,0
4.1159,5.8747e-05,0
4.1165,9.5506e-05,0
4.117,0.00010977,0
4.1175,8.1743e-05,0
4.118,3.0045e-05,0
4.1185,4.3641e-06,0
4.1191,3.8437e-05,0
4.1196,0.00011733,0
4.1201,0.00020125,0
4.1206,0.00025396,0
4.1211,0.00026973,0
4.1217,0.00027343,0
4.1222,0.00026571,0
4.1227,0.00022911,0
4.1232,0.00016835,0
4.1237,0.00010726,0
4.1242,6.9322e-05,0
4.1248,5.4719e-05,0
4.1253,5.0187e-05,0
4.1258,4.1123e-05,0
4.1263,2.6688e-05,0
4.1268,1.9638e-05,0
4.1274,2.0645e-05,0
4.1279,2.0478e-05,0
4.1284,1.8296e-05,0
4.1289,8.896e-06,0
4.1294,-1.326e-05,0
4.13,-3.0381e-05,0
4.1305,-3.0045e-05,0
4.131,-2.6688e-05,0
4.1315,-3.1556e-05,0
4.132,-3.5416e-05,0
4.1326,-3.2395e-05,0
4.1331,-2.4338e-05,0
4.1336,-1.3596e-05,0
4.1341,-7.2175e-06,0
4.1346,4.3641e-06,0
4.1352,5.2537e-05,0
4.1357,0.00013176,0
4.1362,0.00019773,0
4.1367,0.00021468,0
4.1372,0.00020226,0
4.1377,0.00021401,0
4.1383,0.00026436,0
4.1388,0.00030532,0
4.1393,0.00028786,0
4.1398,0.00020494,0
4.1403,0.00010524,0
4.1409,4.1459e-05,0
4.1414,2.7863e-05,0
4.1419,3.2563e-05,0
4.1424,2.4674e-05,0
4.1429,-8.3925e-07,0
4.1435,-4.683e-05,0
4.144,-0.00010105,0
4.1445,-0.00013747,0
4.145,-0.00014922,0
4.1455,-0.00014519,0
4.1461,-0.00014821,0
4.1466,-0.00015996,0
4.1471,-0.00016516,0
4.1476,-0.00016835,0
4.1481,-0.00017137,0
4.1487,-0.00017154,0
4.1492,-0.00017171,0
4.1497,-0.0001702,0
4.1502,-0.00016802,0
4.1507,-0.00016751,0
4.1513,-0.00015828,0
4.1518,-0.00012723,0
4.1523,-8.8457e-05,0
4.1528,-5.6901e-05,0
4.1533,-2.7863e-05,0
4.1538,1.5106e-06,0
4.1544,1.5274e-05,0
4.1549,5.0355e-07,0
4.1554,-2.6856e-05,0
4.1559,-3.5752e-05,0
4.1564,-1.2589e-05,0
4.157,3.0381e-05,0
4.1575,6.1265e-05,0
4.158,6.2272e-05,0
4.1585,5.4719e-05,0
4.159,6.2608e-05,0
4.1596,7.4357e-05,0
4.1601,7.0665e-05,0
4.1606,5.8412e-05,0
4.1611,4.2634e-05,0
4.1616,2.501e-05,0
4.1622,1.4603e-05,0
4.1627,8.3925e-06,0
4.1632,-6.714e-07,0
4.1637,-9.5674e-06,0
4.1642,-1.4603e-05,0
4.1647,-1.326e-05,0
4.1653,-1.6953e-05,0
4.1658,-2.9038e-05,0
4.1663,-2.5849e-05,0
4.1668,2.5177e-06,0
4.1673,3.0213e-05,0
4.1679,3.5416e-05,0
4.1684,2.4002e-05,0
4.1689,1.8128e-05,0
4.1694,2.9374e-05,0
4.1699,4.7837e-05,0
4.1705,6.4118e-05,0
4.171,8.9464e-05,0
4.1715,0.00012522,0
4.172,0.00015593,0
4.1725,0.00017641,0
4.1731,0.00017792,0
4.1736,0.00015207,0
4.1741,0.00012102,0
4.1746,0.00010927,0
4.1751,0.00011095,0
4.1757,9.7017e-05,0
4.1762,5.7572e-05,0
4.1767,-8.3925e-07,0
4.1772,-5.5222e-05,0
4.1777,-7.9225e-05,0
4.1783,-7.4525e-05,0
4.1788,-6.6133e-05,0
4.1793,-8.2918e-05,0
4.1798,-0.00012068,0
4.1803,-0.00017104,0
4.1808,-0.00021451,0
4.1814,-0.000213,0
4.1819,-0.00013764,0
4.1824,0,0
4.1829,0.00014821,0
4.1834,0.00027141,0
4.184,0.00034493,0
4.1845,0.00036474,0
4.185,0.00035299,0
4.1855,0.00033419,0
4.186,0.00033016,0
4.1866,0.00034493,0
4.1871,0.0003503,0
4.1876,0.00031673,0
4.1881,0.00024422,0
4.1886,0.00015694,0
4.1892,8.9128e-05,0
4.1897,4.918e-05,0
4.1902,2.501e-05,0
4.1907,-8.3925e-07,0
4.1912,-3.2059e-05,0
4.1917,-6.0594e-05,0
4.1923,-8.1407e-05,0
4.1928,-0.00010323,0
4.1933,-0.00012303,0
4.1938,-0.00012689,0
4.1943,-0.00011867,0
4.1949,-0.00010759,0
4.1954,-9.0471e-05,0
4.1959,-7.1504e-05,0
4.1964,-4.9348e-05,0
4.1969,-2.7695e-05,0
4.1975,-1.4771e-05,0
4.198,-6.5461e-06,0
4.1985,2.8534e-06,0
4.199,1.0575e-05,0
4.1995,1.2924e-05,0
4.2001,7.3854e-06,0
4.2006,-8.896e-06,0
4.2011,-3.2059e-05,0
4.2016,-5.5726e-05,0
4.2021,-7.7379e-05,0
4.2027,-9.5842e-05,0
4.2032,-0.00011363,0
4.2037,-0.00012975,0
4.2042,-0.00014217,0
4.2047,-0.00015174,0
4.2053,-0.00015207,0
4.2058,-0.00014368,0
4.2063,-0.00013948,0
4.2068,-0.00013948,0
4.2073,-0.00013143,0
4.2078,-0.00010658,0
4.2084,-7.805e-05,0
4.2089,-6.0258e-05,0
4.2094,-4.3137e-05,0
4.2099,-1.1917e-05,0
4.2104,3.6088e-05,0
4.211,7.9728e-05,0
4.2115,0.00010658,0
4.212,0.00012941,0
4.2125,0.00014855,0
4.213,0.00016063,0
4.2136,0.00016768,0
4.2141,0.00017171,0
4.2146,0.0001697,0
4.2151,0.00015358,0
4.2156,0.00012605,0
4.2162,0.00010054,0
4.2167,9.0806e-05,0
4.2172,8.4764e-05,0
4.2177,5.5894e-05,0
4.2182,2.8534e-06,0
4.2188,-5.1865e-05,0
4.2193,-0.00010658,0
4.2198,-0.00017037,0
4.2203,-0.0002313,0
4.2208,-0.00027913,0
4.2213,-0.00031656,0
4.2219,-0.00031388,0
4.2224,-0.00023935,0
4.2229,-9.3324e-05,0
4.2234,8.7953e-05,0
4.2239,0.00025496,0
4.2245,0.00035869,0
4.225,0.00037581,0
4.2255,0.00032882,0
4.226,0.00025362,0
4.2265,0.00017675,0
4.2271,0.00010558,0
4.2276,4.2802e-05,0
4.2281,1.1749e-06,0
4.2286,-1.8967e-05,0
4.2291,-2.8367e-05,0
4.2297,-2.652e-05,0
4.2302,-7.8889e-06,0
4.2307,3.0045e-05,0
4.2312,7.4022e-05,0
4.2317,8.5771e-05,0
4.2322,6.0258e-05,0
4.2328,3.0213e-05,0
4.2333,3.7263e-05,0
4.2338,8.2918e-05,0
4.2343,0.00013176,0
4.2348,0.00016214,0
4.2354,0.00017037,0
4.2359,0.00015291,0
4.2364,0.00011934,0
4.2369,9.0974e-05,0
4.2374,8.5603e-05,0
4.238,9.7017e-05,0
4.2385,0.00010457,0
4.239,9.6345e-05,0
4.2395,7.9728e-05,0
4.24,6.3279e-05,0
4.2406,4.683e-05,0
4.2411,2.5177e-05,0
4.2416,1.1749e-06,0
4.2421,-2.0645e-05,0
4.2426,-4.0787e-05,0
4.2432,-6.4622e-05,0
4.2437,-9.5003e-05,0
4.2442,-0.000118,0
4.2447,-0.00010793,0
4.2452,-6.2776e-05,0
4.2458,3.0213e-06,0
4.2463,5.9251e-05,0
4.2468,8.4596e-05,0
4.2473,8.2582e-05,0
4.2478,7.4022e-05,0
4.2483,7.4693e-05,0
4.2489,8.3253e-05,0
4.2494,8.2582e-05,0
4.2499,6.5629e-05,0
4.2504,5.0187e-05,0
4.2509,5.1865e-05,0
4.2515,6.1936e-05,0
4.252,6.9993e-05,0
4.2525,7.2007e-05,0
4.253,5.6062e-05,0
4.2535,2.0645e-05,0
4.2541,-1.9806e-05,0
4.2546,-4.448e-05,0
4.2551,-4.7501e-05,0
4.2556,-4.4312e-05,0
4.2561,-4.1627e-05,0
4.2567,-3.7095e-05,0
4.2572,-3.5752e-05,0
4.2577,-4.3641e-05,0
4.2582,-5.5558e-05,0
4.2587,-7.3014e-05,0
4.2592,-0.00010021,0
4.2598,-0.0001237,0
4.2603,-0.00013277,0
4.2608,-0.0001326,0
4.2613,-0.00012555,0
4.2618,-0.00011044,0
4.2624,-9.0303e-05,0
4.2629,-7.3014e-05,0
4.2634,-6.3615e-05,0
4.2639,-6.1265e-05,0
4.2644,-6.1769e-05,0
4.265,-5.8579e-05,0
4.2655,-5.388e-05,0
4.266,-5.7908e-05,0
4.2665,-6.9657e-05,0
4.267,-7.9728e-05,0
4.2676,-8.2246e-05,0
4.2681,-7.4189e-05,0
4.2686,-5.5894e-05,0
4.2691,-3.2731e-05,0
4.2696,-2.5177e-06,0
4.2702,3.9109e-05,0
4.2707,7.6707e-05,0
4.2712,8.6946e-05,0
4.2717,6.63e-05,0
4.2722,3.7263e-05,0
4.2728,3.6759e-05,0
4.2733,6.5965e-05,0
4.2738,9.7688e-05,0
4.2743,0.00011128,0
4.2748,0.00010675,0
4.2753,8.9632e-05,0
4.2759,6.9322e-05,0
4.2764,5.9251e-05,0
4.2769,6.9993e-05,0
4.2774,8.7785e-05,0
4.2779,9.3324e-05,0
4.2785,8.6442e-05,0
4.279,7.7546e-05,0
4.2795,7.6204e-05,0
4.28,7.8386e-05,0
4.2805,8.1407e-05,0
4.2811,8.1407e-05,0
4.2816,6.5461e-05,0
4.2821,3.6088e-05,0
4.2826,-8.3925e-07,0
4.2831,-3.4073e-05,0
4.2837,-4.8844e-05,0
4.2842,-3.8437e-05,0
4.2847,-1.7624e-05,0
4.2852,-2.182e-06,0
4.2857,2.5177e-06,0
4.2862,4.5319e-06,0
4.2868,1.1246e-05,0
4.2873,7.8889e-06,0
4.2878,-1.4099e-05,0
4.2883,-4.0787e-05,0
4.2888,-4.8005e-05,0
4.2894,-4.4144e-05,0
4.2899,-5.7572e-05,0
4.2904,-7.1336e-05,0
4.2909,-6.1097e-05,0
4.2914,-3.4745e-05,0
4.292,-1.6281e-05,0
4.2925,-1.2253e-05,0
4.293,-2.2492e-05,0
4.2935,-3.827e-05,0
4.294,-4.0452e-05,0
4.2946,-3.5752e-05,0
4.2951,-2.2492e-05,0
4.2956,4.0116e-05,0
4.2961,0.00014318,0
4.2966,0.00024305,0
4.2972,0.00031673,0
4.2977,0.00035702,0
4.2982,0.00037111,0
4.2987,0.00035836,0
4.2992,0.00031707,0
4.2998,0.00026419,0
4.3003,0.00022039,0
4.3008,0.00018715,0
4.3013,0.00015962,0
4.3018,0.00013361,0
4.3023,0.00010675,0
4.3029,7.8386e-05,0
4.3034,5.2201e-05,0
4.3039,3.4745e-05,0
4.3044,2.0813e-05,0
4.3049,7.0497e-06,0
4.3055,-3.5248e-06,0
4.306,-1.2589e-05,0
4.3065,-2.1149e-05,0
4.307,-2.9709e-05,0
4.3075,-3.2731e-05,0
4.3081,-3.2898e-05,0
4.3086,-3.3906e-05,0
4.3091,-3.1388e-05,0
4.3096,-2.4674e-05,0
4.3101,-2.0478e-05,0
4.3107,-1.8128e-05,0
4.3112,-1.6953e-05,0
4.3117,-1.2924e-05,0
4.3122,-4.5319e-06,0
4.3127,3.357e-07,0
4.3133,-6.3783e-06,0
4.3138,-2.5849e-05,0
4.3143,-5.623e-05,0
4.3148,-8.8121e-05,0
4.3153,-0.00011464,0
4.3158,-0.00014351,0
4.3164,-0.00017473,0
4.3169,-0.00020142,0
4.3174,-0.00021569,0
4.3179,-0.00021401,0
4.3184,-0.00019722,0
4.319,-0.00017473,0
4.3195,-0.00015862,0
4.32,-0.00014385,0
4.3205,-0.00010642,0
4.321,-5.4215e-05,0
4.3216,-2.5177e-05,0
4.3221,-2.266e-05,0
4.3226,-2.1988e-05,0
4.3231,-9.5674e-06,0
4.3236,1.4099e-05,0
4.3242,3.6088e-05,0
4.3247,3.9445e-05,0
4.3252,2.5849e-05,0
4.3257,7.0497e-06,0
4.3262,-7.7211e-06,0
4.3267,3.5248e-06,0
4.3273,3.9948e-05,0
4.3278,8.426e-05,0
4.3283,0.00012253,0
4.3288,0.00014217,0
4.3293,0.0001378,0
4.3299,0.00011397,0
4.3304,9.3156e-05,0
4.3309,8.9128e-05,0
4.3314,9.5674e-05,0
4.3319,9.8192e-05,0
4.3325,9.752e-05,0
4.333,9.7688e-05,0
4.3335,9.8192e-05,0
4.334,8.7953e-05,0
4.3345,7.2679e-05,0
4.3351,5.7237e-05,0
4.3356,3.8102e-05,0
4.3361,1.561e-05,0
4.3366,-1.6785e-07,0
4.3371,2.8534e-06,0
4.3377,1.3931e-05,0
4.3382,1.561e-05,0
4.3387,9.9031e-06,0
4.3392,1.1246e-05,0
4.3397,2.1317e-05,0
4.3403,3.6088e-05,0
4.3408,5.7572e-05,0
4.3413,8.6778e-05,0
4.3418,0.00011431,0
4.3423,0.00012001,0
4.3428,9.1142e-05,0
4.3434,3.8605e-05,0
4.3439,-1.7624e-05,0
4.3444,-6.6636e-05,0
4.3449,-9.7688e-05,0
4.3454,-0.00010272,0
4.346,-8.7785e-05,0
4.3465,-5.2033e-05,0
4.347,1.2589e-05,0
4.3475,9.3492e-05,0
4.348,0.00015929,0
4.3486,0.00019823,0
4.3491,0.00020797,0
4.3496,0.00018917,0
4.3501,0.0001415,0
4.3506,9.0806e-05,0
4.3512,5.7069e-05,0
4.3517,3.4073e-05,0
4.3522,1.9303e-05,0
4.3527,1.7624e-05,0
4.3532,2.1317e-05,0
4.3537,3.2898e-05,0
4.3543,5.2705e-05,0
4.3548,5.0187e-05,0
4.3553,2.5681e-05,0
4.3558,-4.1962e-06,0
4.3563,-3.3738e-05,0
4.3569,-5.9251e-05,0
4.3574,-7.1672e-05,0
4.3579,-6.7811e-05,0
4.3584,-6.6636e-05,0
4.3589,-8.8457e-05,0
4.3595,-0.00012438,0
4.36,-0.00015409,0
4.3605,-0.0001566,0
4.361,-0.00010541,0
4.3615,3.6927e-06,0
4.3621,0.00013948,0
4.3626,0.00024741,0
4.3631,0.0002939,0
4.3636,0.0002788,0
4.3641,0.00022206,0
4.3647,0.00015962,0
4.3652,0.00011565,0
4.3657,9.1981e-05,0
4.3662,7.7546e-05,0
4.3667,5.7572e-05,0
4.3673,3.2731e-05,0
4.3678,1.0575e-05,0
4.3683,5.0355e-07,0
4.3688,-3.357e-07,0
4.3693,-1.091e-05,0
4.3698,-3.3402e-05,0
4.3704,-4.5991e-05,0
4.3709,-3.6423e-05,0
4.3714,-2.2324e-05,0
4.3719,-2.501e-05,0
4.3724,-4.6998e-05,0
4.373,-8.04e-05,0
4.3735,-9.7353e-05,0
4.374,-8.3757e-05,0
4.3745,-5.0858e-05,0
4.375,-1.3596e-05,0
4.3756,1.7792e-05,0
4.3761,3.5752e-05,0
4.3766,3.9109e-05,0
4.3771,2.6688e-05,0
4.3776,1.0407e-05,0
4.3782,3.8605e-06,0
4.3787,3.1891e-06,0
4.3792,-1.6785e-06,0
4.3797,-1.4939e-05,0
4.3802,-3.508e-05,0
4.3807,-5.0019e-05,0
4.3813,-5.153e-05,0
4.3818,-5.153e-05,0
4.3823,-5.4047e-05,0
4.3828,-5.4887e-05,0
4.3833,-5.7908e-05,0
4.3839,-6.009e-05,0
4.3844,-6.2104e-05,0
4.3849,-6.2272e-05,0
4.3854,-6.0594e-05,0
4.3859,-5.4215e-05,0
4.3865,-4.9516e-05,0
4.387,-5.388e-05,0
4.3875,-6.2272e-05,0
4.388,-7.2847e-05,0
4.3885,-8.04e-05,0
4.3891,-8.3253e-05,0
4.3896,-7.7379e-05,0
4.3901,-6.2104e-05,0
4.3906,-3.2395e-05,0
4.3911,1.0575e-05,0
4.3917,3.978e-05,0
4.3922,4.8173e-05,0
4.3927,6.4286e-05,0
4.3932,9.5842e-05,0
4.3937,0.0001227,0
4.3943,0.00013042,0
4.3948,0.00013613,0
4.3953,0.00016365,0
4.3958,0.00020394,0
4.3963,0.00022475,0
4.3968,0.00021334,0
4.3974,0.00018077,0
4.3979,0.0001425,0
4.3984,0.00010256,0
4.3989,5.8915e-05,0
4.3994,2.7527e-05,0
4.4,1.9638e-05,0
4.4005,1.9638e-05,0
4.401,2.031e-05,0
4.4015,2.1149e-05,0
4.402,1.796e-05,0
4.4026,1.4435e-05,0
4.4031,1.2924e-05,0
4.4036,1.2589e-05,0
4.4041,1.2421e-05,0
4.4046,1.3596e-05,0
4.4052,1.7624e-05,0
4.4057,1.7624e-05,0
4.4062,1.2589e-05,0
4.4067,1.2924e-05,0
4.4072,1.2589e-05,0
4.4078,7.0497e-06,0
4.4083,6.714e-07,0
4.4088,-5.7069e-06,0
4.4093,-1.5778e-05,0
4.4098,-2.7024e-05,0
4.4103,-3.2395e-05,0
4.4109,-2.7695e-05,0
4.4114,-2.3835e-05,0
4.4119,-2.1653e-05,0
4.4124,-1.4267e-05,0
4.4129,-6.3783e-06,0
4.4135,-1.1749e-06,0
4.414,1.3428e-05,0
4.4145,4.2802e-05,0
4.415,7.4693e-05,0
4.4155,9.7856e-05,0
4.4161,0.00010994,0
4.4166,0.00011733,0
4.4171,0.00012605,0
4.4176,0.00013545,0
4.4181,0.00014653,0
4.4187,0.00014989,0
4.4192,0.0001227,0
4.4197,8.0064e-05,0
4.4202,4.0452e-05,0
4.4207,-6.2104e-06,0
4.4212,-6.1433e-05,0
4.4218,-9.9031e-05,0
4.4223,-0.00011196,0
4.4228,-0.00011263,0
4.4233,-0.00011632,0
4.4238,-0.00012454,0
4.4244,-0.00012639,0
4.4249,-0.00010893,0
4.4254,-6.63e-05,0
4.4259,-6.2104e-06,0
4.4264,3.7766e-05,0
4.427,3.8773e-05,0
4.4275,2.887e-05,0
4.428,4.3809e-05,0
4.4285,6.5293e-05,0
4.429,5.8244e-05,0
4.4296,2.5849e-05,0
4.4301,2.0142e-06,0
4.4306,-4.8676e-06,0
4.4311,-6.714e-06,0
4.4316,-3.8605e-06,0
4.4322,7.3854e-06,0
4.4327,1.8128e-05,0
4.4332,2.1317e-05,0
4.4337,2.0645e-05,0
4.4342,1.4267e-05,0
4.4348,8.2246e-06,0
4.4353,-2.182e-06,0
4.4358,-2.2995e-05,0
4.4363,-4.6494e-05,0
4.4368,-6.7979e-05,0
4.4373,-7.7714e-05,0
4.4379,-7.6371e-05,0
4.4384,-7.2175e-05,0
4.4389,-7.3686e-05,0
4.4394,-7.7546e-05,0
4.4399,-7.2343e-05,0
4.4405,-4.9683e-05,0
4.441,-1.0239e-05,0
4.4415,3.978e-05,0
4.442,0.00010289,0
4.4425,0.0001754,0
4.4431,0.00023482,0
4.4436,0.00026168,0
4.4441,0.00025765,0
4.4446,0.00022643,0
4.4451,0.00019017,0
4.4457,0.00018413,0
4.4462,0.00020192,0
4.4467,0.00021921,0
4.4472,0.00021804,0
4.4477,0.00018178,0
4.4482,0.00012555,0
4.4488,7.6371e-05,0
4.4493,4.5487e-05,0
4.4498,2.5849e-05,0
4.4503,1.2421e-05,0
4.4508,-3.357e-07,0
4.4514,-1.5442e-05,0
4.4519,-3.2395e-05,0
4.4524,-4.9348e-05,0
4.4529,-6.6972e-05,0
4.4534,-8.4764e-05,0
4.454,-9.8863e-05,0
4.4545,-0.00010457,0
4.455,-9.8192e-05,0
4.4555,-8.4092e-05,0
4.456,-6.0594e-05,0
4.4566,-2.8031e-05,0
4.4571,3.5248e-06,0
4.4576,2.7695e-05,0
4.4581,4.2802e-05,0
4.4586,5.388e-05,0
4.4592,6.3951e-05,0
4.4597,5.9754e-05,0
4.4602,3.8102e-05,0
4.4607,2.1317e-05,0
4.4612,2.1149e-05,0
4.4618,2.9374e-05,0
4.4623,2.9374e-05,0
4.4628,2.2156e-05,0
4.4633,1.5106e-05,0
4.4638,1.6953e-05,0
4.4643,2.0813e-05,0
4.4649,5.2033e-06,0
4.4654,-2.2156e-05,0
4.4659,-3.6591e-05,0
4.4664,-3.9109e-05,0
4.4669,-3.9445e-05,0
4.4675,-4.448e-05,0
4.468,-5.1698e-05,0
4.4685,-6.0929e-05,0
4.469,-6.9993e-05,0
4.4695,-7.7882e-05,0
4.4701,-8.7449e-05,0
4.4706,-9.5506e-05,0
4.4711,-7.5364e-05,0
4.4716,-2.4002e-05,0
4.4721,3.0045e-05,0
4.4727,6.3951e-05,0
4.4732,7.2343e-05,0
4.4737,6.6133e-05,0
4.4742,6.1601e-05,0
4.4747,6.2104e-05,0
4.4752,6.865e-05,0
4.4758,7.1e-05,0
4.4763,6.4286e-05,0
4.4768,5.5894e-05,0
4.4773,5.623e-05,0
4.4778,6.2943e-05,0
4.4784,6.1433e-05,0
4.4789,5.5222e-05,0
4.4794,5.4719e-05,0
4.4799,5.9922e-05,0
4.4804,5.5222e-05,0
4.481,4.0452e-05,0
4.4815,2.9038e-05,0
4.482,2.6352e-05,0
4.4825,2.5345e-05,0
4.483,1.6785e-05,0
4.4836,-5.0355e-07,0
4.4841,-1.8967e-05,0
4.4846,-3.1891e-05,0
4.4851,-3.7095e-05,0
4.4856,-3.6423e-05,0
4.4862,-2.3835e-05,0
4.4867,-4.8676e-06,0
4.4872,2.0142e-06,0
4.4877,-6.8818e-06,0
4.4882,-2.3163e-05,0
4.4887,-3.7095e-05,0
4.4893,-4.1123e-05,0
4.4898,-3.1388e-05,0
4.4903,-6.714e-07,0
4.4908,3.978e-05,0
4.4913,5.4551e-05,0
4.4919,3.9445e-05,0
4.4924,1.9974e-05,0
4.4929,9.9031e-06,0
4.4934,-5.0355e-07,0
4.4939,-1.5274e-05,0
4.4945,-2.8702e-05,0
4.495,-3.2731e-05,0
4.4955,-2.6856e-05,0
4.496,-1.7624e-05,0
4.4965,-6.2104e-06,0
4.4971,2.0142e-06,0
4.4976,1.1749e-06,0
4.4981,2.3499e-06,0
4.4986,6.2104e-06,0
4.4991,5.8747e-06,0
4.4997,2.3499e-06,0
4.5002,2.7359e-05,0
4.5007,9.2988e-05,0
4.5012,0.0001744,0
4.5017,0.00024053,0
4.5023,0.0002694,0
4.5028,0.00026168,0
4.5033,0.0002219,0
4.5038,0.00016298,0
4.5043,0.0001086,0
4.5048,7.2343e-05,0
4.5054,5.4887e-05,0
4.5059,4.5487e-05,0
4.5064,3.8437e-05,0
4.5069,3.6591e-05,0
4.5074,3.7766e-05,0
4.508,3.9277e-05,0
4.5085,3.2059e-05,0
4.509,-1.1749e-06,0
4.5095,-5.8244e-05,0
4.51,-0.00011548,0
4.5106,-0.00015509,0
4.5111,-0.00017842,0
4.5116,-0.00019034,0
4.5121,-0.00019487,0
4.5126,-0.00017926,0
4.5132,-0.00014519,0
4.5137,-0.00010256,0
4.5142,-5.4551e-05,0
4.5147,-8.3925e-07,0
4.5152,5.0355e-05,0
4.5157,9.4835e-05,0
4.5163,0.00013495,0
4.5168,0.00018312,0
4.5173,0.00022861,0
4.5178,0.00024472,0
4.5183,0.00023197,0
4.5189,0.00020528,0
4.5194,0.00017137,0
4.5199,0.00013411,0
4.5204,9.9535e-05,0
4.5209,7.4189e-05,0
4.5215,5.0858e-05,0
4.522,1.8967e-05,0
4.5225,-1.9638e-05,0
4.523,-4.9348e-05,0
4.5235,-5.2537e-05,0
4.5241,-2.3331e-05,0
4.5246,2.4002e-05,0
4.5251,6.5461e-05,0
4.5256,8.1575e-05,0
4.5261,7.7714e-05,0
4.5267,6.6972e-05,0
4.5272,4.7166e-05,0
4.5277,1.8463e-05,0
4.5282,9.2317e-06,0
4.5287,1.7456e-05,0
4.5293,1.1246e-05,0
4.5298,-1.9974e-05,0
4.5303,-5.539e-05,0
4.5308,-7.5364e-05,0
4.5313,-7.9057e-05,0
4.5318,-7.7546e-05,0
4.5324,-7.5364e-05,0
4.5329,-6.5629e-05,0
4.5334,-5.2033e-05,0
4.5339,-3.3234e-05,0
4.5344,-1.4267e-05,0
4.535,-6.5461e-06,0
4.5355,-3.1891e-06,0
4.536,3.1891e-06,0
4.5365,7.8889e-06,0
4.537,1.1246e-05,0
4.5376,1.326e-05,0
4.5381,1.1917e-05,0
4.5386,7.3854e-06,0
4.5391,-4.5319e-06,0
4.5396,-2.4338e-05,0
4.5402,-5.5222e-05,0
4.5407,-8.3421e-05,0
4.5412,-8.8457e-05,0
4.5417,-5.4215e-05,0
4.5422,3.8605e-06,0
4.5427,5.0523e-05,0
4.5433,6.63e-05,0
4.5438,6.0594e-05,0
4.5443,5.3376e-05,0
4.5448,4.3305e-05,0
4.5453,1.5106e-05,0
4.5459,-3.2395e-05,0
4.5464,-7.805e-05,0
4.5469,-0.00010793,0
4.5474,-0.00011733,0
4.5479,-0.00010457,0
4.5485,-7.1672e-05,0
4.549,-3.2395e-05,0
4.5495,-5.539e-06,0
4.55,5.539e-06,0
4.5505,7.5532e-06,0
4.5511,2.182e-06,0
4.5516,-1.1414e-05,0
4.5521,-2.3499e-05,0
4.5526,-2.9877e-05,0
4.5531,-2.6352e-05,0
4.5537,-1.9638e-05,0
4.5542,-2.1653e-05,0
4.5547,-2.1317e-05,0
4.5552,-7.5532e-06,0
4.5557,7.8889e-06,0
4.5563,2.5345e-05,0
4.5568,5.153e-05,0
4.5573,7.6036e-05,0
4.5578,9.0471e-05,0
4.5583,9.0639e-05,0
4.5588,7.8386e-05,0
4.5594,6.3951e-05,0
4.5599,5.6901e-05,0
4.5604,6.2272e-05,0
4.5609,7.1839e-05,0
4.5614,7.1336e-05,0
4.562,6.0594e-05,0
4.5625,4.6159e-05,0
4.563,2.2324e-05,0
4.5635,-5.2033e-06,0
4.564,-2.1653e-05,0
4.5646,-1.6953e-05,0
4.5651,6.2104e-06,0
4.5656,3.3234e-05,0
4.5661,4.2634e-05,0
4.5666,3.6088e-05,0
4.5672,2.6688e-05,0
4.5677,2.7863e-05,0
4.5682,4.7166e-05,0
4.5687,9.1646e-05,0
4.5692,0.00014015,0
4.5697,0.00016617,0
4.5703,0.00017708,0
4.5708,0.00018614,0
4.5713,0.00019185,0
4.5718,0.00018413,0
4.5723,0.00016567,0
4.5729,0.00014788,0
4.5734,0.00013545,0
4.5739,0.00012337,0
4.5744,0.00011464,0
4.5749,0.00012035,0
4.5755,0.00013092,0
4.576,0.00013344,0
4.5765,0.00011901,0
4.577,8.4764e-05,0
4.5775,4.4816e-05,0
4.5781,9.5674e-06,0
4.5786,-2.7695e-05,0
4.5791,-6.4622e-05,0
4.5796,-9.4499e-05,0
4.5801,-0.00010709,0
4.5807,-0.00010306,0
4.5812,-9.4163e-05,0
4.5817,-7.9561e-05,0
4.5822,-4.4144e-05,0
4.5827,7.8889e-06,0
4.5832,6.6804e-05,0
4.5838,0.00012035,0
4.5843,0.000165,0
4.5848,0.00019319,0
4.5853,0.00019286,0
4.5858,0.00016197,0
4.5864,0.00012337,0
4.5869,9.1142e-05,0
4.5874,5.8915e-05,0
4.5879,2.4842e-05,0
4.5884,0,0
4.589,-1.1582e-05,0
4.5895,-2.0645e-05,0
4.59,-3.7766e-05,0
4.5905,-5.5726e-05,0
4.591,-7.5364e-05,0
4.5916,-0.00010893,0
4.5921,-0.00015341,0
4.5926,-0.00018866,0
4.5931,-0.00019823,0
4.5936,-0.00017053,0
4.5942,-0.00011716,0
4.5947,-5.8412e-05,0
4.5952,-1.6281e-05,0
4.5957,-3.1891e-06,0
4.5962,-1.6617e-05,0
4.5968,-3.4409e-05,0
4.5973,-4.1123e-05,0
4.5978,-4.6494e-05,0
4.5983,-5.388e-05,0
4.5988,-5.7237e-05,0
4.5993,-5.0187e-05,0
4.5999,-3.357e-05,0
4.6004,-2.2492e-05,0
4.6009,-2.7024e-05,0
4.6014,-4.1459e-05,0
4.6019,-5.5894e-05,0
4.6025,-6.5797e-05,0
4.603,-7.7043e-05,0
4.6035,-9.2821e-05,0
4.604,-0.00010826,0
4.6045,-0.00012102,0
4.6051,-0.00013008,0
4.6056,-0.00012639,0
4.6061,-9.3156e-05,0
4.6066,-3.0381e-05,0
4.6071,3.6255e-05,0
4.6077,8.8457e-05,0
4.6082,0.00012438,0
4.6087,0.00014049,0
4.6092,0.00014536,0
4.6097,0.0001415,0
4.6102,0.00013176,0
4.6108,0.00012471,0
4.6113,0.00012001,0
4.6118,0.00011884,0
4.6123,0.00011632,0
4.6128,9.7688e-05,0
4.6134,5.1194e-05,0
4.6139,-6.5461e-06,0
4.6144,-5.0523e-05,0
4.6149,-7.6875e-05,0
4.6154,-8.7282e-05,0
4.616,-8.4764e-05,0
4.6165,-6.6636e-05,0
4.617,-3.4913e-05,0
4.6175,4.8676e-06,0
4.618,3.8773e-05,0
4.6186,5.774e-05,0
4.6191,8.2582e-05,0
4.6196,0.00012522,0
4.6201,0.00016701,0
4.6206,0.00017775,0
4.6212,0.00013915,0
4.6217,6.9657e-05,0
4.6222,1.0575e-05,0
4.6227,-8.896e-06,0
4.6232,-2.8534e-06,0
4.6238,1.5106e-06,0
4.6243,-4.6998e-06,0
4.6248,-1.5778e-05,0
4.6253,-1.7288e-05,0
4.6258,-1.5274e-05,0
4.6263,-2.0478e-05,0
4.6269,-3.4745e-05,0
4.6274,-4.3809e-05,0
4.6279,-4.2802e-05,0
4.6284,-3.7095e-05,0
4.6289,-1.8463e-05,0
4.6295,1.8799e-05,0
4.63,6.1601e-05,0
4.6305,9.6849e-05,0
4.631,0.00013008,0
4.6315,0.00015593,0
4.6321,0.00015778,0
4.6326,0.00014888,0
4.6331,0.00015862,0
4.6336,0.00018581,0
4.6341,0.00021048,0
4.6347,0.00021468,0
4.6352,0.00019957,0
4.6357,0.00017557,0
4.6362,0.0001462,0
4.6367,0.0001133,0
4.6372,8.4764e-05,0
4.6378,6.9657e-05,0
4.6383,5.9419e-05,0
4.6388,3.8102e-05,0
4.6393,8.3925e-06,0
4.6398,-2.4002e-05,0
4.6404,-5.5894e-05,0
4.6409,-9.0974e-05,0
4.6414,-0.0001279,0
4.6419,-0.00015862,0
4.6424,-0.00017037,0
4.643,-0.00016567,0
4.6435,-0.0001509,0
4.644,-0.00012505,0
4.6445,-8.661e-05,0
4.645,-2.7024e-05,0
4.6456,5.153e-05,0
4.6461,0.00012941,0
4.6466,0.00019655,0
4.6471,0.00023012,0
4.6476,0.00021636,0
4.6482,0.000166,0
4.6487,9.5674e-05,0
4.6492,2.8031e-05,0
4.6497,-3.1891e-06,0
4.6502,5.0355e-07,0
4.6508,2.4338e-05,0
4.6513,4.6494e-05,0
4.6518,4.5655e-05,0
4.6523,2.3667e-05,0
4.6528,-6.2104e-06,0
4.6533,-4.1291e-05,0
4.6539,-7.4022e-05,0
4.6544,-9.3996e-05,0
4.6549,-0.00010407,0
4.6554,-0.00010759,0
4.6559,-0.00010944,0
4.6565,-0.0001091,0
4.657,-0.00010121,0
4.6575,-8.5267e-05,0
4.658,-6.6972e-05,0
4.6585,-5.0019e-05,0
4.6591,-3.0549e-05,0
4.6596,-7.8889e-06,0
4.6601,2.9374e-05,0
4.6606,7.4357e-05,0
4.6611,0.00011162,0
4.6617,0.0001284,0
4.6622,0.00011666,0
4.6627,8.191e-05,0
4.6632,4.1291e-05,0
4.6637,4.3641e-06,0
4.6643,-2.031e-05,0
4.6648,-3.0045e-05,0
4.6653,-3.4409e-05,0
4.6658,-3.8437e-05,0
4.6663,-4.1123e-05,0
4.6668,-4.6326e-05,0
4.6674,-6.4286e-05,0
4.6679,-8.9464e-05,0
4.6684,-0.00010793,0
4.6689,-0.00011296,0
4.6694,-0.00010625,0
4.67,-9.2653e-05,0
4.6705,-6.6972e-05,0
4.671,-3.4409e-05,0
4.6715,-2.8534e-06,0
4.672,2.031e-05,0
4.6726,2.652e-05,0
4.6731,2.9374e-05,0
4.6736,4.7333e-05,0
4.6741,6.8315e-05,0
4.6746,8.5435e-05,0
4.6752,0.00010574,0
4.6757,0.00012639,0
4.6762,0.00014284,0
4.6767,0.0001519,0
4.6772,0.00014116,0
4.6777,0.00011363,0
4.6783,8.8289e-05,0
4.6788,7.7714e-05,0
4.6793,7.2343e-05,0
4.6798,5.3208e-05,0
4.6803,2.5345e-05,0
4.6809,-6.0426e-06,0
4.6814,-4.4312e-05,0
4.6819,-9.4667e-05,0
4.6824,-0.00016013,0
4.6829,-0.00022576,0
4.6835,-0.00025597,0
4.684,-0.00022576,0
4.6845,-0.00016617,0
4.685,-0.00011582,0
4.6855,-7.4357e-05,0
4.6861,-3.9109e-05,0
4.6866,-1.3428e-05,0
4.6871,1.3596e-05,0
4.6876,4.7837e-05,0
4.6881,6.865e-05,0
4.6887,7.1e-05,0
4.6892,6.6972e-05,0
4.6897,6.63e-05,0
4.6902,7.9728e-05,0
4.6907,9.9199e-05,0
4.6913,0.00011313,0
4.6918,0.00011867,0
4.6923,0.00010726,0
4.6928,9.3492e-05,0
4.6933,9.6345e-05,0
4.6938,0.00011363,0
4.6944,0.00013462,0
4.6949,0.00015325,0
4.6954,0.00015996,0
4.6959,0.00014821,0
4.6964,0.00012589,0
4.697,0.00010826,0
4.6975,0.00010692,0
4.698,0.00011833,0
4.6985,0.00012874,0
4.699,0.00013327,0
4.6996,0.00013243,0
4.7001,0.00011984,0
4.7006,0.00010289,0
4.7011,8.7785e-05,0
4.7016,7.3014e-05,0
4.7022,6.4118e-05,0
4.7027,6.4118e-05,0
4.7032,7.3686e-05,0
4.7037,8.5771e-05,0
4.7042,8.4764e-05,0
4.7047,6.479e-05,0
4.7053,4.1123e-05,0
4.7058,2.6017e-05,0
4.7063,2.5849e-05,0
4.7068,3.8605e-05,0
4.7073,5.7404e-05,0
4.7079,6.8986e-05,0
4.7084,6.5965e-05,0
4.7089,5.3544e-05,0
4.7094,4.7166e-05,0
4.7099,5.3376e-05,0
4.7105,6.7643e-05,0
4.711,7.3014e-05,0
4.7115,5.6565e-05,0
4.712,2.1988e-05,0
4.7125,-9.9031e-06,0
4.7131,-2.7695e-05,0
4.7136,-3.8605e-05,0
4.7141,-4.4816e-05,0
4.7146,-5.2873e-05,0
4.7151,-5.8915e-05,0
4.7157,-5.5222e-05,0
4.7162,-4.2802e-05,0
4.7167,-1.6953e-05,0
4.7172,2.2828e-05,0
4.7177,5.0187e-05,0
4.7183,5.5894e-05,0
4.7188,4.9012e-05,0
4.7193,4.2802e-05,0
4.7198,3.9948e-05,0
4.7203,3.3066e-05,0
4.7208,2.3163e-05,0
4.7214,1.6617e-05,0
4.7219,2.6688e-05,0
4.7224,4.3977e-05,0
4.7229,5.0858e-05,0
4.7234,4.7501e-05,0
4.724,3.9612e-05,0
4.7245,2.6017e-05,0
4.725,7.2175e-06,0
4.7255,-1.0071e-05,0
4.726,-2.0645e-05,0
4.7266,-3.0549e-05,0
4.7271,-4.1291e-05,0
4.7276,-4.918e-05,0
4.7281,-5.9754e-05,0
4.7286,-7.5364e-05,0
4.7292,-8.9128e-05,0
4.7297,-0.00010893,0
4.7302,-0.00013042,0
4.7307,-0.00013462,0
4.7312,-0.00012622,0
4.7317,-0.00011666,0
4.7323,-0.00011296,0
4.7328,-0.00011649,0
4.7333,-0.00012303,0
4.7338,-0.00012404,0
4.7343,-0.00011229,0
4.7349,-8.9632e-05,0
4.7354,-6.2608e-05,0
4.7359,-3.5584e-05,0
4.7364,-1.5274e-05,0
4.7369,-3.1891e-06,0
4.7375,6.3783e-06,0
4.738,1.5778e-05,0
4.7385,2.7359e-05,0
4.739,3.508e-05,0
4.7395,3.508e-05,0
4.7401,2.7695e-05,0
4.7406,1.5274e-05,0
4.7411,5.539e-06,0
4.7416,-2.182e-06,0
4.7421,-1.8463e-06,0
4.7427,8.7282e-06,0
4.7432,1.6953e-05,0
4.7437,2.2492e-05,0
4.7442,3.0213e-05,0
4.7447,4.8173e-05,0
4.7453,8.1071e-05,0
4.7458,0.00012068,0
4.7463,0.00014687,0
4.7468,0.00015123,0
4.7473,0.00014116,0
4.7478,0.00012303,0
4.7484,0.00010826,0
4.7489,0.0001034,0
4.7494,9.6178e-05,0
4.7499,8.1407e-05,0
4.7504,6.9322e-05,0
4.751,6.0258e-05,0
4.7515,4.8005e-05,0
4.752,2.1317e-05,0
4.7525,-2.0645e-05,0
4.753,-6.5629e-05,0
4.7536,-0.00010306,0
4.7541,-0.00014401,0
4.7546,-0.00018698,0
4.7551,-0.00021468,0
4.7556,-0.00021099,0
4.7562,-0.00017205,0
4.7567,-0.00011699,0
4.7572,-6.1601e-05,0
4.7577,-1.2589e-05,0
4.7582,1.8296e-05,0
4.7588,4.3473e-05,0
4.7593,8.3421e-05,0
4.7598,0.0001331,0
4.7603,0.00017943,0
4.7608,0.00021955,0
4.7613,0.00025731,0
4.7619,0.00027007,0
4.7624,0.0002276,0
4.7629,0.00015123,0
4.7634,8.8121e-05,0
4.7639,6.1936e-05,0
4.7645,6.6468e-05,0
4.765,7.9728e-05,0
4.7655,7.9728e-05,0
4.766,6.7979e-05,0
4.7665,4.9516e-05,0
4.7671,3.3066e-05,0
4.7676,2.4674e-05,0
4.7681,2.8367e-05,0
4.7686,3.2059e-05,0
4.7691,3.0716e-05,0
4.7697,3.1388e-05,0
4.7702,3.0045e-05,0
4.7707,1.3596e-05,0
4.7712,-1.4099e-05,0
4.7717,-3.7095e-05,0
4.7722,-4.1123e-05,0
4.7728,-2.7695e-05,0
4.7733,-1.5946e-05,0
4.7738,-1.4099e-05,0
4.7743,-2.2492e-05,0
4.7748,-3.3402e-05,0
4.7754,-3.9445e-05,0
4.7759,-2.9374e-05,0
4.7764,8.3925e-07,0
4.7769,5.2033e-05,0
4.7774,0.0001133,0
4.778,0.00015291,0
4.7785,0.00015526,0
4.779,0.0001326,0
4.7795,9.5506e-05,0
4.78,6.0594e-05,0
4.7806,3.508e-05,0
4.7811,1.7792e-05,0
4.7816,1.0239e-05,0
4.7821,1.091e-05,0
4.7826,1.5946e-05,0
4.7832,1.4771e-05,0
4.7837,-7.8889e-06,0
4.7842,-3.7934e-05,0
4.7847,-5.8915e-05,0
4.7852,-5.9586e-05,0
4.7858,-4.3809e-05,0
4.7863,-3.1052e-05,0
4.7868,-1.9638e-05,0
4.7873,1.0239e-05,0
4.7878,6.2608e-05,0
4.7883,0.0001133,0
4.7889,0.00014418,0
4.7894,0.00014871,0
4.7899,0.00013176,0
4.7904,0.00010423,0
4.7909,8.1743e-05,0
4.7915,7.2679e-05,0
4.792,7.8218e-05,0
4.7925,8.7114e-05,0
4.793,8.8457e-05,0
4.7935,8.3421e-05,0
4.7941,6.6972e-05,0
4.7946,4.5823e-05,0
4.7951,2.9709e-05,0
4.7956,1.3931e-05,0
4.7961,-7.5532e-06,0
4.7967,-2.182e-05,0
4.7972,-2.4338e-05,0
4.7977,-2.501e-05,0
4.7982,-3.1891e-05,0
4.7987,-4.4816e-05,0
4.7992,-5.153e-05,0
4.7998,-5.0523e-05,0
4.8003,-5.3376e-05,0
4.8008,-6.009e-05,0
4.8013,-5.4887e-05,0
4.8018,-2.4002e-05,0
4.8024,2.1988e-05,0
4.8029,5.5726e-05,0
4.8034,6.949e-05,0
4.8039,6.4118e-05,0
4.8044,3.122e-05,0
4.805,-2.2324e-05,0
4.8055,-7.4022e-05,0
4.806,-9.9702e-05,0
4.8065,-0.00010373,0
4.807,-0.00010356,0
4.8076,-0.00010709,0
4.8081,-0.00011061,0
4.8086,-0.00011514,0
4.8091,-0.00011833,0
4.8096,-0.00011498,0
4.8102,-0.00010054,0
4.8107,-8.51e-05,0
4.8112,-7.9561e-05,0
4.8117,-7.7043e-05,0
4.8122,-6.9993e-05,0
4.8128,-5.5222e-05,0
4.8133,-2.9374e-05,0
4.8138,1.8463e-06,0
4.8143,2.5681e-05,0
4.8148,3.8102e-05,0
4.8153,5.4215e-05,0
4.8159,7.9057e-05,0
4.8164,0.00010558,0
4.8169,0.00013579,0
4.8174,0.0001655,0
4.8179,0.00017473,0
4.8185,0.00014687,0
4.819,9.836e-05,0
4.8195,5.5222e-05,0
4.82,2.6688e-05,0
4.8205,3.1891e-06,0
4.8211,-2.4506e-05,0
4.8216,-4.8173e-05,0
4.8221,-5.6062e-05,0
4.8226,-5.7404e-05,0
4.8231,-6.4118e-05,0
4.8237,-7.7379e-05,0
4.8242,-8.9799e-05,0
4.8247,-8.4932e-05,0
4.8252,-5.0355e-05,0
4.8257,-1.0239e-05,0
4.8262,3.1891e-06,0
4.8268,-1.1246e-05,0
4.8273,-1.9638e-05,0
4.8278,1.2924e-05,0
4.8283,8.3253e-05,0
4.8288,0.00014452,0
4.8294,0.00015795,0
4.8299,0.00010776,0
4.8304,3.0381e-05,0
4.8309,-1.3596e-05,0
4.8314,-1.2589e-05,0
4.832,1.2589e-05,0
4.8325,3.6759e-05,0
4.833,5.3544e-05,0
4.8335,6.9993e-05,0
4.834,8.1407e-05,0
4.8346,8.1407e-05,0
4.8351,7.3014e-05,0
4.8356,7.4022e-05,0
4.8361,0.00010356,0
4.8366,0.0001697,0
4.8372,0.00024053,0
4.8377,0.00026302,0
4.8382,0.00024237,0
4.8387,0.00021988,0
4.8392,0.0001994,0
4.8398,0.00017221,0
4.8403,0.00014234,0
4.8408,0.00011666,0
4.8413,9.5171e-05,0
4.8418,7.6875e-05,0
4.8423,6.3951e-05,0
4.8429,5.7404e-05,0
4.8434,5.8915e-05,0
4.8439,6.0258e-05,0
4.8444,5.0019e-05,0
4.8449,2.4002e-05,0
4.8455,-3.5248e-06,0
4.846,-1.9974e-05,0
4.8465,-2.3163e-05,0
4.847,-3.0716e-05,0
4.8475,-4.683e-05,0
4.8481,-5.4887e-05,0
4.8486,-4.7837e-05,0
4.8491,-3.2395e-05,0
4.8496,-2.7024e-05,0
4.8501,-3.1724e-05,0
4.8507,-3.1052e-05,0
4.8512,-1.6953e-05,0
4.8517,9.9031e-06,0
4.8522,4.1123e-05,0
4.8527,6.7979e-05,0
4.8533,8.6778e-05,0
4.8538,9.6849e-05,0
4.8543,9.4499e-05,0
4.8548,7.9393e-05,0
4.8553,5.8579e-05,0
4.8558,4.2466e-05,0
4.8564,2.7192e-05,0
4.8569,9.2317e-06,0
4.8574,-1.0239e-05,0
4.8579,-2.7863e-05,0
4.8584,-4.6494e-05,0
4.859,-7.1336e-05,0
4.8595,-9.7017e-05,0
4.86,-0.00011414,0
4.8605,-0.00012186,0
4.861,-0.00011833,0
4.8616,-0.00010407,0
4.8621,-8.3925e-05,0
4.8626,-6.1097e-05,0
4.8631,-4.5319e-05,0
4.8636,-3.7095e-05,0
4.8642,-2.4002e-05,0
4.8647,-7.3854e-06,0
4.8652,5.8747e-06,0
4.8657,1.9135e-05,0
4.8662,2.9374e-05,0
4.8667,3.2731e-05,0
4.8673,3.0381e-05,0
4.8678,1.9303e-05,0
4.8683,-1.0071e-06,0
4.8688,-2.7695e-05,0
4.8693,-5.8915e-05,0
4.8699,-9.7353e-05,0
4.8704,-0.0001425,0
4.8709,-0.00018212,0
4.8714,-0.00020427,0
4.8719,-0.00020444,0
4.8725,-0.00018833,0
4.873,-0.00016063,0
4.8735,-0.00011968,0
4.874,-6.3951e-05,0
4.8745,-2.8534e-06,0
4.8751,4.5151e-05,0
4.8756,7.335e-05,0
4.8761,9.3828e-05,0
4.8766,0.00011229,0
4.8771,0.00013814,0
4.8777,0.00016483,0
4.8782,0.00017842,0
4.8787,0.00018161,0
4.8792,0.00017977,0
4.8797,0.00016936,0
4.8803,0.00014871,0
4.8808,0.00012471,0
4.8813,0.00010524,0
4.8818,9.0471e-05,0
4.8823,7.7379e-05,0
4.8828,6.2272e-05,0
4.8834,4.8676e-05,0
4.8839,4.3977e-05,0
4.8844,4.8844e-05,0
4.8849,6.2608e-05,0
4.8854,7.2679e-05,0
4.886,7.1672e-05,0
4.8865,5.5055e-05,0
4.887,2.5345e-05,0
4.8875,7.3854e-06,0
4.888,1.6953e-05,0
4.8886,4.4816e-05,0
4.8891,7.4189e-05,0
4.8896,0.00010155,0
4.8901,0.000118,0
4.8906,0.00011263,0
4.8912,9.2485e-05,0
4.8917,7.2511e-05,0
4.8922,5.3544e-05,0
4.8927,2.9206e-05,0
4.8932,-1.5106e-06,0
4.8937,-3.3402e-05,0
4.8943,-5.0355e-05,0
4.8948,-5.2537e-05,0
4.8953,-4.5151e-05,0
4.8958,-3.3738e-05,0
4.8963,-2.7024e-05,0
4.8969,-3.8437e-05,0
4.8974,-7.1336e-05,0
4.8979,-0.00011464,0
4.8984,-0.00014788,0
4.8989,-0.00017037,0
4.8995,-0.00018279,0
4.9,-0.00017826,0
4.9005,-0.00015996,0
4.901,-0.00013965,0
4.9015,-0.0001086,0
4.9021,-5.5222e-05,0
4.9026,5.2033e-06,0
4.9031,5.388e-05,0
4.9036,9.4499e-05,0
4.9041,0.0001415,0
4.9047,0.0002036,0
4.9052,0.00025396,0
4.9057,0.00026218,0
4.9062,0.00023029,0
4.9067,0.00017943,0
4.9073,0.0001274,0
4.9078,8.4764e-05,0
4.9083,4.5151e-05,0
4.9088,8.0568e-06,0
4.9093,-2.6352e-05,0
4.9098,-4.7501e-05,0
4.9104,-3.9109e-05,0
4.9109,-1.1582e-05,0
4.9114,9.2317e-06,0
4.9119,2.2492e-05,0
4.9124,3.9445e-05,0
4.913,5.8244e-05,0
4.9135,6.1936e-05,0
4.914,4.448e-05,0
4.9145,1.2589e-05,0
4.915,-1.4603e-05,0
4.9156,-2.4674e-05,0
4.9161,-2.5681e-05,0
4.9166,-3.0381e-05,0
4.9171,-4.7501e-05,0
4.9176,-8.0232e-05,0
4.9182,-0.00010373,0
4.9187,-9.987e-05,0
4.9192,-7.9057e-05,0
4.9197,-5.6062e-05,0
4.9202,-4.2634e-05,0
4.9207,-3.508e-05,0
4.9213,-1.6449e-05,0
4.9218,1.4267e-05,0
4.9223,3.7095e-05,0
4.9228,3.7934e-05,0
4.9233,4.4816e-05,0
4.9239,9.0471e-05,0
4.9244,0.00016567,0
4.9249,0.0002313,0
4.9254,0.00025614,0
4.9259,0.00024623,0
4.9265,0.00022123,0
4.927,0.00019437,0
4.9275,0.000165,0
4.928,0.00012874,0
4.9285,9.3492e-05,0
4.9291,6.865e-05,0
4.9296,5.0858e-05,0
4.9301,4.3641e-05,0
4.9306,4.3473e-05,0
4.9311,4.7501e-05,0
4.9317,5.3544e-05,0
4.9322,5.5558e-05,0
4.9327,5.7572e-05,0
4.9332,6.4286e-05,0
4.9337,5.9922e-05,0
4.9342,4.1459e-05,0
4.9348,2.5345e-05,0
4.9353,7.8889e-06,0
4.9358,-1.8631e-05,0
4.9363,-5.304e-05,0
4.9368,-9.0639e-05,0
4.9374,-0.00013478,0
4.9379,-0.00019219,0
4.9384,-0.00025127,0
4.9389,-0.00028853,0
4.9394,-0.00029172,0
4.94,-0.00025765,0
4.9405,-0.00018245,0
4.941,-8.7953e-05,0
4.9415,-1.561e-05,0
4.942,1.8631e-05,0
4.9426,3.2059e-05,0
4.9431,3.8437e-05,0
4.9436,4.8844e-05,0
4.9441,7.4357e-05,0
4.9446,0.00011246,0
4.9452,0.00015795,0
4.9457,0.00019168,0
4.9462,0.00019554,0
4.9467,0.0001744,0
4.9472,0.00014603,0
4.9478,0.00012605,0
4.9483,0.00011699,0
4.9488,0.00010608,0
4.9493,8.0735e-05,0
4.9498,4.7837e-05,0
4.9503,1.6785e-05,0
4.9509,-1.1414e-05,0
4.9514,-4.0116e-05,0
4.9519,-6.1936e-05,0
4.9524,-7.1672e-05,0
4.9529,-7.6707e-05,0
4.9535,-8.4428e-05,0
4.954,-9.1646e-05,0
4.9545,-9.366e-05,0
4.955,-9.1646e-05,0
4.9555,-8.5435e-05,0
4.9561,-6.7979e-05,0
4.9566,-3.4745e-05,0
4.9571,1.1917e-05,0
4.9576,6.2608e-05,0
4.9581,0.00011397,0
4.9587,0.00015828,0
4.9592,0.00017322,0
4.9597,0.00014939,0
4.9602,0.00010524,0
4.9607,6.4118e-05,0
4.9612,3.9948e-05,0
4.9618,3.1388e-05,0
4.9623,2.5345e-05,0
4.9628,2.2492e-05,0
4.9633,2.417e-05,0
4.9638,2.2828e-05,0
4.9644,7.7211e-06,0
4.9649,-1.9303e-05,0
4.9654,-5.5222e-05,0
4.9659,-9.0471e-05,0
4.9664,-0.00010776,0
4.967,-0.00011263,0
4.9675,-0.00011481,0
4.968,-0.00010776,0
4.9685,-9.2485e-05,0
4.969,-7.8721e-05,0
4.9696,-6.5293e-05,0
4.9701,-4.3809e-05,0
4.9706,-1.5946e-05,0
4.9711,9.2317e-06,0
4.9716,2.4338e-05,0
4.9722,3.0716e-05,0
4.9727,2.8367e-05,0
4.9732,1.3931e-05,0
4.9737,-4.1962e-06,0
4.9742,-2.3163e-05,0
4.9748,-3.978e-05,0
4.9753,-4.9851e-05,0
4.9758,-5.2033e-05,0
4.9763,-4.3137e-05,0
4.9768,-2.0478e-05,0
4.9773,1.4603e-05,0
4.9779,5.2201e-05,0
4.9784,7.0329e-05,0
4.9789,7.3014e-05,0
4.9794,8.9799e-05,0
4.9799,0.0001321,0
4.9805,0.00017977,0
4.981,0.00021636,0
4.9815,0.00024422,0
4.982,0.00025966,0
4.9825,0.00025026,0
4.9831,0.00021367,0
4.9836,0.00017238,0
4.9841,0.00014553,0
4.9846,0.00012958,0
4.9851,0.00012605,0
4.9857,0.00014133,0
4.9862,0.00015358,0
4.9867,0.00014351,0
4.9872,0.00012337,0
4.9877,0.0001044,0
4.9882,8.7114e-05,0
4.9888,6.6804e-05,0
4.9893,4.0116e-05,0
4.9898,5.2033e-06,0
4.9903,-4.6159e-05,0
4.9908,-9.8695e-05,0
4.9914,-0.00013294,0
4.9919,-0.00014771,0
4.9924,-0.00015358,0
4.9929,-0.00015325,0
4.9934,-0.00014838,0
4.994,-0.00013361,0
4.9945,-8.7953e-05,0
4.995,-9.0639e-06,0
4.9955,6.9657e-05,0
4.996,0.00012958,0
4.9966,0.00018648,0
4.9971,0.00023851,0
4.9976,0.00026101,0
4.9981,0.00022962,0
4.9986,0.00016046,0
4.9992,9.1142e-05,0
4.9997,4.0116e-05,0
5.0002,7.3854e-06,0
5.0007,-1.3596e-05,0
5.0012,-2.8534e-05,0
5.0018,-3.6927e-05,0
5.0023,-3.9109e-05,0
5.0028,-4.1962e-05,0
5.0033,-4.8508e-05,0
5.0038,-4.8844e-05,0
5.0043,-4.448e-05,0
5.0049,-4.5823e-05,0
5.0054,-5.4887e-05,0
5.0059,-6.3279e-05,0
5.0064,-7.3854e-05,0
5.0069,-9.0471e-05,0
5.0075,-0.00010675,0
5.008,-0.00012169,0
5.0085,-0.00012924,0
5.009,-0.0001237,0
5.0095,-0.00011313,0
5.0101,-0.00010608,0
5.0106,-0.00010222,0
5.0111,-9.7017e-05,0
5.0116,-9.5674e-05,0
5.0121,-9.5506e-05,0
5.0127,-8.0735e-05,0
5.0132,-4.9683e-05,0
5.0137,-1.5946e-05,0
5.0142,7.2175e-06,0
5.0147,1.3596e-05,0
5.0152,1.2757e-05,0
5.0158,1.4267e-05,0
5.0163,2.266e-05,0
5.0168,3.3402e-05,0
5.0173,3.5248e-05,0
5.0178,2.5345e-05,0
5.0184,1.0575e-05,0
5.0189,1.0071e-06,0
5.0194,-1.0575e-05,0
5.0199,-3.6759e-05,0
5.0204,-7.0161e-05,0
5.021,-8.9464e-05,0
5.0215,-9.0974e-05,0
5.022,-9.0806e-05,0
5.0225,-9.2821e-05,0
5.023,-7.9393e-05,0
5.0236,-4.7501e-05,0
5.0241,-1.1749e-05,0
5.0246,1.6617e-05,0
5.0251,4.1794e-05,0
5.0256,8.5771e-05,0
5.0262,0.00017221,0
5.0267,0.00027141,0
5.0272,0.00033016,0
5.0277,0.00032865,0
5.0282,0.00027846,0
5.0287,0.00021921,0
5.0293,0.00018245,0
5.0298,0.00018312,0
5.0303,0.00020864,0
5.0308,0.00022307,0
5.0313,0.00019991,0
5.0319,0.00015006,0
5.0324,0.00010054,0
5.0329,6.3279e-05,0
5.0334,3.4745e-05,0
5.0339,7.7211e-06,0
5.0345,-2.0981e-05,0
5.035,-5.6733e-05,0
5.0355,-9.0806e-05,0
5.036,-0.00011464,0
5.0365,-0.00013042,0
5.0371,-0.00012337,0
5.0376,-7.9057e-05,0
5.0381,-2.3835e-05,0
5.0386,1.0407e-05,0
5.0391,1.8463e-05,0
5.0397,2.4338e-05,0
5.0402,4.2802e-05,0
5.0407,5.3208e-05,0
5.0412,3.2059e-05,0
5.0417,-6.5461e-06,0
5.0423,-1.2253e-05,0
5.0428,3.0549e-05,0
5.0433,7.7714e-05,0
5.0438,8.9464e-05,0
5.0443,7.0832e-05,0
5.0448,4.7501e-05,0
5.0454,3.6088e-05,0
5.0459,4.1123e-05,0
5.0464,6.4622e-05,0
5.0469,0.00010591,0
5.0474,0.00014955,0
5.048,0.00016835,0
5.0485,0.00015509,0
5.049,0.00011968,0
5.0495,7.4693e-05,0
5.05,3.978e-05,0
5.0506,1.8296e-05,0
5.0511,3.357e-07,0
5.0516,-1.7624e-05,0
5.0521,-3.4745e-05,0
5.0526,-4.3809e-05,0
5.0532,-3.7263e-05,0
5.0537,-2.1988e-05,0
5.0542,-6.5461e-06,0
5.0547,4.3641e-06,0
5.0552,7.8889e-06,0
5.0557,1.1078e-05,0
5.0563,2.0142e-05,0
5.0568,3.2059e-05,0
5.0573,4.2802e-05,0
5.0578,5.153e-05,0
5.0583,4.9851e-05,0
5.0589,3.743e-05,0
5.0594,2.1317e-05,0
5.0599,3.1891e-06,0
5.0604,-1.0071e-05,0
5.0609,-1.4435e-05,0
5.0615,-1.3428e-05,0
5.062,-9.0639e-06,0
5.0625,-3.5248e-06,0
5.063,-2.3499e-06,0
5.0635,-3.5248e-06,0
5.0641,-5.2033e-06,0
5.0646,-7.7211e-06,0
5.0651,-6.2104e-06,0
5.0656,-5.0355e-07,0
5.0661,3.1891e-06,0
5.0667,9.2317e-06,0
5.0672,9.9031e-06,0
5.0677,4.6998e-06,0
5.0682,3.5248e-06,0
5.0687,4.6998e-06,0
5.0693,3.5248e-06,0
5.0698,2.5177e-06,0
5.0703,-1.3428e-06,0
5.0708,-1.1078e-05,0
5.0713,-2.266e-05,0
5.0718,-3.2227e-05,0
5.0724,-4.1794e-05,0
5.0729,-5.1194e-05,0
5.0734,-5.4047e-05,0
5.0739,-5.069e-05,0
5.0744,-4.3473e-05,0
5.075,-3.6927e-05,0
5.0755,-3.4073e-05,0
5.076,-3.0045e-05,0
5.0765,-3.0045e-05,0
5.077,-4.0955e-05,0
5.0776,-5.7237e-05,0
5.0781,-6.9154e-05,0
5.0786,-7.7882e-05,0
5.0791,-9.2317e-05,0
5.0796,-0.00010558,0
5.0802,-0.00010692,0
5.0807,-0.00010625,0
5.0812,-0.00010826,0
5.0817,-0.00010256,0
5.0822,-8.5603e-05,0
5.0827,-6.6468e-05,0
5.0833,-5.7908e-05,0
5.0838,-4.5991e-05,0
5.0843,-1.2924e-05,0
5.0848,3.0716e-05,0
5.0853,6.7811e-05,0
5.0859,9.752e-05,0
5.0864,0.00011934,0
5.0869,0.00012471,0
5.0874,0.000118,0
5.0879,0.00011531,0
5.0885,0.00012471,0
5.089,0.00014066,0
5.0895,0.00015526,0
5.09,0.00015879,0
5.0905,0.00015241,0
5.0911,0.00013478,0
5.0916,9.0806e-05,0
5.0921,2.5345e-05,0
5.0926,-3.9109e-05,0
5.0931,-8.3421e-05,0
5.0937,-0.00010927,0
5.0942,-0.00012723,0
5.0947,-0.00012068,0
5.0952,-7.9057e-05,0
5.0957,-2.7024e-05,0
5.0963,1.0575e-05,0
5.0968,3.1388e-05,0
5.0973,4.918e-05,0
5.0978,9.3828e-05,0
5.0983,0.0001613,0
5.0988,0.0002125,0
5.0994,0.00021401,0
5.0999,0.00016097,0
5.1004,8.7114e-05,0
5.1009,3.4409e-05,0
5.1014,1.0575e-05,0
5.102,-2.8534e-06,0
5.1025,-1.4603e-05,0
5.103,-2.031e-05,0
5.1035,-2.2156e-05,0
5.104,-1.4939e-05,0
5.1046,4.1962e-06,0
5.1051,3.4073e-05,0
5.1056,7.4022e-05,0
5.1061,0.00011598,0
5.1066,0.00014788,0
5.1072,0.00015056,0
5.1077,0.00011565,0
5.1082,7.0832e-05,0
5.1087,5.0858e-05,0
5.1092,5.8579e-05,0
5.1098,8.6442e-05,0
5.1103,0.00012119,0
5.1108,0.00013344,0
5.1113,0.00011498,0
5.1118,8.4764e-05,0
5.1123,6.1097e-05,0
5.1129,4.7166e-05,0
5.1134,4.3137e-05,0
5.1139,4.5487e-05,0
5.1144,4.7166e-05,0
5.1149,3.9445e-05,0
5.1155,2.2995e-05,0
5.116,6.2104e-06,0
5.1165,-5.3712e-06,0
5.117,-6.0426e-06,0
5.1175,3.0213e-06,0
5.1181,3.1891e-06,0
5.1186,-1.5106e-05,0
5.1191,-2.5345e-05,0
5.1196,-1.9303e-05,0
5.1201,-7.5532e-06,0
5.1207,1.3092e-05,0
5.1212,3.508e-05,0
5.1217,4.8173e-05,0
5.1222,4.5487e-05,0
5.1227,3.0716e-05,0
5.1232,2.7359e-05,0
5.1238,4.448e-05,0
5.1243,6.865e-05,0
5.1248,9.1814e-05,0
5.1253,0.000118,0
5.1258,0.00013948,0
5.1264,0.00013747,0
5.1269,0.00010793,0
5.1274,6.63e-05,0
5.1279,3.2395e-05,0
5.1284,1.4939e-05,0
5.129,4.1962e-06,0
5.1295,-1.4771e-05,0
5.13,-3.592e-05,0
5.1305,-4.5991e-05,0
5.131,-4.8005e-05,0
5.1316,-5.1865e-05,0
5.1321,-6.7643e-05,0
5.1326,-9.2149e-05,0
5.1331,-0.00012236,0
5.1336,-0.00014687,0
5.1342,-0.00016399,0
5.1347,-0.00017372,0
5.1352,-0.00016667,0
5.1357,-0.00014653,0
5.1362,-0.00013713,0
5.1368,-0.0001462,0
5.1373,-0.00015795,0
5.1378,-0.00016046,0
5.1383,-0.00014401,0
5.1388,-9.8863e-05,0
5.1393,-3.6759e-05,0
5.1399,1.7456e-05,0
5.1404,5.0187e-05,0
5.1409,6.3111e-05,0
5.1414,7.0665e-05,0
5.1419,8.3085e-05,0
5.1425,9.5842e-05,0
5.143,9.1646e-05,0
5.1435,7.335e-05,0
5.144,5.623e-05,0
5.1445,5.2033e-05,0
5.1451,5.8244e-05,0
5.1456,6.2608e-05,0
5.1461,5.8412e-05,0
5.1466,4.5487e-05,0
5.1471,2.7527e-05,0
5.1477,6.2104e-06,0
5.1482,-2.8031e-05,0
5.1487,-6.865e-05,0
5.1492,-9.8192e-05,0
5.1497,-0.00010256,0
5.1502,-8.2918e-05,0
5.1508,-5.304e-05,0
5.1513,-4.9348e-05,0
5.1518,-6.8818e-05,0
5.1523,-7.0665e-05,0
5.1528,-5.2537e-05,0
5.1534,-3.9109e-05,0
5.1539,-3.8437e-05,0
5.1544,-2.3667e-05,0
5.1549,2.3331e-05,0
5.1554,8.7114e-05,0
5.156,0.00013462,0
5.1565,0.00014754,0
5.157,0.00015358,0
5.1575,0.00019252,0
5.158,0.00027108,0
5.1586,0.00034208,0
5.1591,0.0003503,0
5.1596,0.00030448,0
5.1601,0.00024825,0
5.1606,0.00020864,0
5.1612,0.00018547,0
5.1617,0.00015962,0
5.1622,0.00011934,0
5.1627,7.9057e-05,0
5.1632,4.683e-05,0
5.1638,2.3331e-05,0
5.1643,4.1962e-06,0
5.1648,-3.0381e-05,0
5.1653,-7.9728e-05,0
5.1658,-0.00012287,0
5.1663,-0.00014301,0
5.1669,-0.00014687,0
5.1674,-0.00014469,0
5.1679,-0.00012589,0
5.1684,-6.7308e-05,0
5.1689,2.182e-05,0
5.1695,0.00010239,0
5.17,0.00014452,0
5.1705,0.00015593,0
5.171,0.00015795,0
5.1715,0.00015341,0
5.1721,0.0001415,0
5.1726,0.00012874,0
5.1731,0.00011951,0
5.1736,0.00010793,0
5.1741,0.00010021,0
5.1747,0.0001227,0
5.1752,0.00016634,0
5.1757,0.00020394,0
5.1762,0.00021736,0
5.1767,0.00019403,0
5.1772,0.00014351,0
5.1778,8.9296e-05,0
5.1783,4.8508e-05,0
5.1788,2.0645e-05,0
5.1793,-9.2317e-06,0
5.1798,-4.683e-05,0
5.1804,-7.805e-05,0
5.1809,-9.2988e-05,0
5.1814,-0.00010642,0
5.1819,-0.0001237,0
5.1824,-0.00014217,0
5.183,-0.00015325,0
5.1835,-0.0001509,0
5.184,-0.00012589,0
5.1845,-9.5171e-05,0
5.185,-8.4428e-05,0
5.1856,-9.4499e-05,0
5.1861,-0.00011112,0
5.1866,-0.00012169,0
5.1871,-0.00012555,0
5.1876,-0.00011934,0
5.1882,-0.00010004,0
5.1887,-8.0903e-05,0
5.1892,-7.0832e-05,0
5.1897,-6.6636e-05,0
5.1902,-6.4622e-05,0
5.1908,-6.2776e-05,0
5.1913,-5.9251e-05,0
5.1918,-5.8244e-05,0
5.1923,-6.2608e-05,0
5.1928,-6.5965e-05,0
5.1933,-6.2608e-05,0
5.1939,-5.0523e-05,0
5.1944,-3.9109e-05,0
5.1949,-3.8102e-05,0
5.1954,-3.5752e-05,0
5.1959,-2.3499e-05,0
5.1965,-8.2246e-06,0
5.197,-1.1749e-06,0
5.1975,-6.5461e-06,0
5.198,-1.561e-05,0
5.1985,-2.3163e-05,0
5.1991,-3.0716e-05,0
5.1996,-3.2563e-05,0
5.2001,-2.2995e-05,0
5.2006,-1.1749e-05,0
5.2011,-4.8676e-06,0
5.2017,3.5248e-06,0
5.2022,1.1917e-05,0
5.2027,2.1317e-05,0
5.2032,3.3402e-05,0
5.2037,4.6662e-05,0
5.2043,6.6972e-05,0
5.2048,9.6849e-05,0
5.2053,0.00011162,0
5.2058,9.7856e-05,0
5.2063,8.1071e-05,0
5.2068,7.335e-05,0
5.2074,6.0929e-05,0
5.2079,3.9445e-05,0
5.2084,1.6953e-05,0
5.2089,4.1962e-06,0
5.2094,-2.8534e-06,0
5.21,-1.8463e-06,0
5.2105,1.2253e-05,0
5.211,3.7095e-05,0
5.2115,7.1504e-05,0
5.212,0.00011766,0
5.2126,0.00017372,0
5.2131,0.00022811,0
5.2136,0.00027108,0
5.2141,0.00028853,0
5.2146,0.0002694,0
5.2152,0.0002135,0
5.2157,0.00013646,0
5.2162,8.6442e-05,0
5.2167,8.4764e-05,0
5.2172,9.5674e-05,0
5.2177,9.4835e-05,0
5.2183,7.8721e-05,0
5.2188,5.1698e-05,0
5.2193,2.8702e-05,0
5.2198,1.4267e-05,0
5.2203,7.8889e-06,0
5.2209,1.6953e-05,0
5.2214,3.2395e-05,0
5.2219,2.7359e-05,0
5.2224,-4.5319e-06,0
5.2229,-4.7166e-05,0
5.2235,-7.9393e-05,0
5.224,-9.752e-05,0
5.2245,-0.00011431,0
5.225,-0.00012471,0
5.2255,-0.00012421,0
5.2261,-0.00012001,0
5.2266,-0.00011766,0
5.2271,-0.00010608,0
5.2276,-8.0735e-05,0
5.2281,-4.5319e-05,0
5.2287,2.8534e-06,0
5.2292,4.7669e-05,0
5.2297,7.1672e-05,0
5.2302,8.4092e-05,0
5.2307,9.5506e-05,0
5.2313,9.8527e-05,0
5.2318,8.5771e-05,0
5.2323,5.8915e-05,0
5.2328,2.7024e-05,0
5.2333,1.091e-05,0
5.2338,3.122e-05,0
5.2344,6.3615e-05,0
5.2349,6.6133e-05,0
5.2354,4.0787e-05,0
5.2359,1.2589e-05,0
5.2364,-5.3712e-06,0
5.237,-2.4506e-05,0
5.2375,-4.448e-05,0
5.238,-4.3137e-05,0
5.2385,-2.3667e-05,0
5.239,-2.8534e-06,0
5.2396,8.5603e-06,0
5.2401,1.2589e-05,0
5.2406,3.3066e-05,0
5.2411,6.865e-05,0
5.2416,8.896e-05,0
5.2422,7.6707e-05,0
5.2427,4.4144e-05,0
5.2432,1.0575e-05,0
5.2437,-2.8534e-06,0
5.2442,9.0639e-06,0
5.2447,2.7192e-05,0
5.2453,3.6927e-05,0
5.2458,3.5584e-05,0
5.2463,2.6688e-05,0
5.2468,2.7695e-05,0
5.2473,4.5151e-05,0
5.2479,5.9586e-05,0
5.2484,5.9922e-05,0
5.2489,5.3544e-05,0
5.2494,5.153e-05,0
5.2499,5.2201e-05,0
5.2505,5.2537e-05,0
5.251,4.3473e-05,0
5.2515,2.3667e-05,0
5.252,5.8747e-06,0
5.2525,-6.2104e-06,0
5.2531,-2.4338e-05,0
5.2536,-5.4887e-05,0
5.2541,-8.4764e-05,0
5.2546,-9.8192e-05,0
5.2551,-8.426e-05,0
5.2557,-5.7237e-05,0
5.2562,-5.2537e-05,0
5.2567,-8.04e-05,0
5.2572,-0.00011263,0
5.2577,-0.00012723,0
5.2583,-0.00011296,0
5.2588,-6.7811e-05,0
5.2593,-1.3596e-05,0
5.2598,3.743e-05,0
5.2603,7.3686e-05,0
5.2608,8.3589e-05,0
5.2614,6.7811e-05,0
5.2619,4.8676e-05,0
5.2624,4.0116e-05,0
5.2629,5.4047e-05,0
5.2634,8.6778e-05,0
5.264,0.00011699,0
5.2645,0.0001373,0
5.265,0.00014922,0
5.2655,0.00016097,0
5.266,0.00018648,0
5.2666,0.00021132,0
5.2671,0.00020931,0
5.2676,0.00017758,0
5.2681,0.00013344,0
5.2686,9.4163e-05,0
5.2692,6.5461e-05,0
5.2697,2.2995e-05,0
5.2702,-5.1865e-05,0
5.2707,-0.00012538,0
5.2712,-0.0001744,0
5.2717,-0.00020008,0
5.2723,-0.00020545,0
5.2728,-0.0001989,0
5.2733,-0.00018279,0
5.2738,-0.00014519,0
5.2743,-8.7785e-05,0
5.2749,-4.6662e-05,0
5.2754,-3.9277e-05,0
5.2759,-2.9038e-05,0
5.2764,2.2324e-05,0
5.2769,9.8695e-05,0
5.2775,0.00015325,0
5.278,0.00015929,0
5.2785,0.00012538,0
5.279,7.9728e-05,0
5.2795,4.5823e-05,0
5.2801,2.4674e-05,0
5.2806,1.0239e-05,0
5.2811,-1.8463e-06,0
5.2816,-6.8818e-06,0
5.2821,3.357e-07,0
5.2827,6.714e-06,0
5.2832,-8.3925e-06,0
5.2837,-4.3473e-05,0
5.2842,-8.4764e-05,0
5.2847,-0.00012203,0
5.2852,-0.00014015,0
5.2858,-0.00012438,0
5.2863,-8.7449e-05,0
5.2868,-4.5487e-05,0
5.2873,-1.8799e-05,0
5.2878,-2.2324e-05,0
5.2884,-3.1724e-05,0
5.2889,4.5319e-06,0
5.2894,8.4092e-05,0
5.2899,0.00016231,0
5.2904,0.00020981,0
5.291,0.00021904,0
5.2915,0.00020075,0
5.292,0.00018379,0
5.2925,0.00017708,0
5.293,0.0001697,0
5.2936,0.00015862,0
5.2941,0.00014049,0
5.2946,0.00011699,0
5.2951,8.6442e-05,0
5.2956,6.1601e-05,0
5.2962,5.6565e-05,0
5.2967,5.4887e-05,0
5.2972,4.3305e-05,0
5.2977,2.4506e-05,0
5.2982,2.182e-06,0
5.2988,-1.9638e-05,0
5.2993,-2.9038e-05,0
5.2998,-1.6617e-05,0
5.3003,2.0645e-05,0
5.3008,7.9393e-05,0
5.3013,0.00014284,0
5.3019,0.00019319,0
5.3024,0.00021535,0
5.3029,0.00020864,0
5.3034,0.00018648,0
5.3039,0.00016902,0
5.3045,0.00016231,0
5.305,0.00014217,0
5.3055,0.00010507,0
5.306,6.4286e-05,0
5.3065,2.9038e-05,0
5.3071,5.7069e-06,0
5.3076,-3.5248e-06,0
5.3081,-1.1582e-05,0
5.3086,-3.592e-05,0
5.3091,-7.805e-05,0
5.3097,-0.00012085,0
5.3102,-0.00014821,0
5.3107,-0.00014821,0
5.3112,-0.00010625,0
5.3117,-4.0116e-05,0
5.3122,3.1891e-06,0
5.3128,-2.8534e-06,0
5.3133,-4.213e-05,0
5.3138,-8.6107e-05,0
5.3143,-0.00011514,0
5.3148,-0.00010826,0
5.3154,-5.1362e-05,0
5.3159,2.9374e-05,0
5.3164,9.4835e-05,0
5.3169,0.00012438,0
5.3174,0.00010994,0
5.318,6.3111e-05,0
5.3185,1.1749e-05,0
5.319,-2.4002e-05,0
5.3195,-4.9012e-05,0
5.32,-6.8986e-05,0
5.3206,-8.6778e-05,0
5.3211,-0.00010306,0
5.3216,-0.00010608,0
5.3221,-9.9702e-05,0
5.3226,-9.9199e-05,0
5.3232,-0.00010457,0
5.3237,-0.00010188,0
5.3242,-8.3589e-05,0
5.3247,-5.5558e-05,0
5.3252,-2.4674e-05,0
5.3258,9.5674e-06,0
5.3263,4.8005e-05,0
5.3268,8.2078e-05,0
5.3273,0.00010121,0
5.3278,0.00010088,0
5.3283,9.0974e-05,0
5.3289,8.3925e-05,0
5.3294,8.275e-05,0
5.3299,8.3925e-05,0
5.3304,8.4428e-05,0
5.3309,7.9393e-05,0
5.3315,7.1e-05,0
5.332,6.714e-05,0
5.3325,7.3686e-05,0
5.333,8.04e-05,0
5.3335,7.8721e-05,0
5.3341,7.1672e-05,0
5.3346,6.5965e-05,0
5.3351,5.4047e-05,0
5.3356,2.182e-05,0
5.3361,-1.561e-05,0
5.3367,-3.6423e-05,0
5.3372,-4.9851e-05,0
5.3377,-6.8986e-05,0
5.3382,-8.7953e-05,0
5.3387,-0.00010407,0
5.3392,-0.00011733,0
5.3398,-0.00012757,0
5.3403,-0.00013428,0
5.3408,-0.00013411,0
5.3413,-0.00011531,0
5.3418,-7.2175e-05,0
5.3424,-1.3764e-05,0
5.3429,3.2059e-05,0
5.3434,4.6159e-05,0
5.3439,4.2466e-05,0
5.3444,3.9109e-05,0
5.345,4.3809e-05,0
5.3455,4.3809e-05,0
5.346,2.2492e-05,0
5.3465,-4.1962e-06,0
5.347,-1.4771e-05,0
5.3476,-2.2156e-05,0
5.3481,-3.8773e-05,0
5.3486,-5.3544e-05,0
5.3491,-5.8747e-05,0
5.3496,-5.3376e-05,0
5.3502,-4.1459e-05,0
5.3507,-3.8773e-05,0
5.3512,-5.8412e-05,0
5.3517,-0.00010105,0
5.3522,-0.00015476,0
5.3528,-0.00020159,0
5.3533,-0.0002365,0
5.3538,-0.00024355,0
5.3543,-0.00020528,0
5.3548,-0.00012438,0
5.3553,-1.091e-05,0
5.3559,0.00011414,0
5.3564,0.00022173,0
5.3569,0.0002845,0
5.3574,0.00030062,0
5.3579,0.00030515,0
5.3585,0.00031925,0
5.359,0.0003315,0
5.3595,0.00033989,0
5.36,0.00034611,0
5.3605,0.00033788,0
5.3611,0.00029776,0
5.3616,0.00022542,0
5.3621,0.00014318,0
5.3626,8.5435e-05,0
5.3631,6.1936e-05,0
5.3637,6.1601e-05,0
5.3642,5.8579e-05,0
5.3647,5.2873e-05,0
5.3652,6.4958e-05,0
5.3657,8.4764e-05,0
5.3662,9.5506e-05,0
5.3668,9.2149e-05,0
5.3673,7.8721e-05,0
5.3678,6.2608e-05,0
5.3683,5.3544e-05,0
5.3688,4.9516e-05,0
5.3694,4.0116e-05,0
5.3699,1.9303e-05,0
5.3704,-7.8889e-06,0
5.3709,-2.8702e-05,0
5.3714,-3.978e-05,0
5.372,-4.8173e-05,0
5.3725,-6.0761e-05,0
5.373,-7.9393e-05,0
5.3735,-9.8695e-05,0
5.374,-0.00011867,0
5.3746,-0.00013931,0
5.3751,-0.00015341,0
5.3756,-0.00014821,0
5.3761,-0.00012001,0
5.3766,-6.6133e-05,0
5.3772,-5.7069e-06,0
5.3777,3.2059e-05,0
5.3782,4.0284e-05,0
5.3787,4.1123e-05,0
5.3792,5.1194e-05,0
5.3797,6.5293e-05,0
5.3803,7.0832e-05,0
5.3808,6.3447e-05,0
5.3813,5.2033e-05,0
5.3818,4.3473e-05,0
5.3823,3.9445e-05,0
5.3829,4.2802e-05,0
5.3834,5.0858e-05,0
5.3839,5.7908e-05,0
5.3844,6.1936e-05,0
5.3849,5.9586e-05,0
5.3855,5.9419e-05,0
5.386,6.2272e-05,0
5.3865,6.6636e-05,0
5.387,7.5029e-05,0
5.3875,8.5771e-05,0
5.3881,8.5771e-05,0
5.3886,7.0329e-05,0
5.3891,5.4215e-05,0
5.3896,4.6494e-05,0
5.3901,4.3473e-05,0
5.3907,3.8437e-05,0
5.3912,2.7024e-05,0
5.3917,1.1582e-05,0
5.3922,-6.5461e-06,0
5.3927,-3.2395e-05,0
5.3933,-7.4861e-05,0
5.3938,-0.00012203,0
5.3943,-0.00014687,0
5.3948,-0.00012757,0
5.3953,-8.1407e-05,0
5.3958,-4.5319e-05,0
5.3964,-3.7095e-05,0
5.3969,-4.683e-05,0
5.3974,-5.4551e-05,0
5.3979,-4.9348e-05,0
5.3984,-3.9109e-05,0
5.399,-3.0045e-05,0
5.3995,-1.7624e-05,0
5.4,1.4939e-05,0
5.4005,6.3615e-05,0
5.401,9.6513e-05,0
5.4016,0.00010188,0
5.4021,8.7282e-05,0
5.4026,7.3686e-05,0
5.4031,6.9154e-05,0
5.4036,6.9657e-05,0
5.4042,6.7979e-05,0
5.4047,4.8508e-05,0
5.4052,1.7792e-05,0
5.4057,3.6927e-06,0
5.4062,4.5319e-06,0
5.4067,1.6785e-06,0
5.4073,-6.8818e-06,0
5.4078,-2.3331e-05,0
5.4083,-4.213e-05,0
5.4088,-6.009e-05,0
5.4093,-7.9728e-05,0
5.4099,-0.00010121,0
5.4104,-0.00011263,0
5.4109,-0.00010709,0
5.4114,-9.3156e-05,0
5.4119,-8.3421e-05,0
5.4125,-6.7308e-05,0
5.413,-3.4241e-05,0
5.4135,7.8889e-06,0
5.414,4.683e-05,0
5.4145,7.0329e-05,0
5.4151,6.9993e-05,0
5.4156,5.9251e-05,0
5.4161,5.623e-05,0
5.4166,5.4215e-05,0
5.4171,4.7501e-05,0
5.4177,3.4745e-05,0
5.4182,1.326e-05,0
5.4187,1.0071e-06,0
5.4192,1.326e-05,0
5.4197,4.1123e-05,0
5.4203,6.1601e-05,0
5.4208,5.9419e-05,0
5.4213,4.2298e-05,0
5.4218,2.887e-05,0
5.4223,2.2324e-05,0
5.4228,2.7695e-05,0
5.4234,3.743e-05,0
5.4239,4.1627e-05,0
5.4244,4.4816e-05,0
5.4249,5.4047e-05,0
5.4254,5.8244e-05,0
5.426,5.153e-05,0
5.4265,3.9948e-05,0
5.427,3.3738e-05,0
5.4275,2.7695e-05,0
5.428,2.0645e-05,0
5.4286,1.5442e-05,0
5.4291,-1.0071e-06,0
5.4296,-2.7024e-05,0
5.4301,-5.2201e-05,0
5.4306,-7.3854e-05,0
5.4312,-7.9561e-05,0
5.4317,-6.0761e-05,0
5.4322,-2.4506e-05,0
5.4327,1.9974e-05,0
5.4332,6.4286e-05,0
5.4337,0.00010826,0
5.4343,0.00016399,0
5.4348,0.00022609,0
5.4353,0.00026772,0
5.4358,0.00027276,0
5.4363,0.00024623,0
5.4369,0.00019655,0
5.4374,0.00014972,0
5.4379,0.00012538,0
5.4384,0.00011632,0
5.4389,0.00010726,0
5.4395,9.752e-05,0
5.44,9.3828e-05,0
5.4405,9.7688e-05,0
5.441,0.00010172,0
5.4415,0.00010306,0
5.4421,9.9031e-05,0
5.4426,8.6442e-05,0
5.4431,7.0329e-05,0
5.4436,4.9348e-05,0
5.4441,2.5345e-05,0
5.4447,3.357e-06,0
5.4452,-2.2492e-05,0
5.4457,-5.7572e-05,0
5.4462,-9.6345e-05,0
5.4467,-0.00012857,0
5.4473,-0.00013411,0
5.4478,-0.00010407,0
5.4483,-6.3279e-05,0
5.4488,-4.0452e-05,0
5.4493,-4.1627e-05,0
5.4498,-5.0858e-05,0
5.4504,-5.5894e-05,0
5.4509,-5.1865e-05,0
5.4514,-4.5319e-05,0
5.4519,-4.1123e-05,0
5.4524,-3.8941e-05,0
5.453,-3.6759e-05,0
5.4535,-3.2395e-05,0
5.454,-2.0142e-05,0
5.4545,-1.8463e-06,0
5.455,1.1246e-05,0
5.4556,1.561e-05,0
5.4561,1.6953e-05,0
5.4566,2.0981e-05,0
5.4571,2.5345e-05,0
5.4576,2.7695e-05,0
5.4582,2.8367e-05,0
5.4587,2.5513e-05,0
5.4592,2.0645e-05,0
5.4597,1.4435e-05,0
5.4602,3.8605e-06,0
5.4607,-5.539e-06,0
5.4613,-1.091e-05,0
5.4618,-2.1149e-05,0
5.4623,-4.3809e-05,0
5.4628,-6.7308e-05,0
5.4633,-7.9728e-05,0
5.4639,-8.4092e-05,0
5.4644,-8.8792e-05,0
5.4649,-8.8792e-05,0
5.4654,-7.4525e-05,0
5.4659,-4.7166e-05,0
5.4665,-1.5778e-05,0
5.467,1.3931e-05,0
5.4675,3.2059e-05,0
5.468,3.2059e-05,0
5.4685,2.0645e-05,0
5.4691,1.1078e-05,0
5.4696,9.9031e-06,0
5.4701,1.326e-05,0
5.4706,1.3092e-05,0
5.4711,1.5946e-05,0
5.4717,3.8605e-05,0
5.4722,7.2847e-05,0
5.4727,9.5506e-05,0
5.4732,9.1478e-05,0
5.4737,5.8915e-05,0
5.4742,9.3996e-06,0
5.4748,-4.448e-05,0
5.4753,-8.0735e-05,0
5.4758,-8.6107e-05,0
5.4763,-6.4958e-05,0
5.4768,-3.3234e-05,0
5.4774,-9.3996e-06,0
5.4779,8.3925e-07,0
5.4784,-3.6927e-06,0
5.4789,-1.7624e-05,0
5.4794,-2.501e-05,0
5.48,-1.7121e-05,0
5.4805,-9.0639e-06,0
5.481,-1.4939e-05,0
5.4815,-1.7792e-05,0
5.482,5.2033e-06,0
5.4826,4.5151e-05,0
5.4831,7.5029e-05,0
5.4836,0.00010054,0
5.4841,0.00013545,0
5.4846,0.00018044,0
5.4852,0.00022509,0
5.4857,0.00024288,0
5.4862,0.00021804,0
5.4867,0.00016701,0
5.4872,0.00011934,0
5.4878,9.3156e-05,0
5.4883,8.9464e-05,0
5.4888,0.00010037,0
5.4893,0.0001138,0
5.4898,0.00011884,0
5.4903,0.00011128,0
5.4909,9.752e-05,0
5.4914,9.0471e-05,0
5.4919,8.1743e-05,0
5.4924,4.7501e-05,0
5.4929,5.0355e-07,0
5.4935,-2.9877e-05,0
5.494,-4.3641e-05,0
5.4945,-6.0426e-05,0
5.495,-8.5603e-05,0
5.4955,-0.0001039,0
5.4961,-0.00011279,0
5.4966,-0.00012404,0
5.4971,-0.00014368,0
5.4976,-0.00016097,0
5.4981,-0.00015207,0
5.4987,-0.00010306,0
5.4992,-2.1988e-05,0
5.4997,5.9922e-05,0
5.5002,0.00010793,0
5.5007,0.00011481,0
5.5012,0.00011666,0
5.5018,0.00015543,0
5.5023,0.00022123,0
5.5028,0.00026671,0
5.5033,0.00026688,0
5.5038,0.00022979,0
5.5044,0.00017842,0
5.5049,0.00013411,0
5.5054,0.0001086,0
5.5059,9.8527e-05,0
5.5064,8.5771e-05,0
5.507,6.2776e-05,0
5.5075,4.3137e-05,0
5.508,3.8605e-05,0
5.5085,4.3137e-05,0
5.509,4.4816e-05,0
5.5096,3.6759e-05,0
5.5101,2.3835e-05,0
5.5106,1.4267e-05,0
5.5111,1.3092e-05,0
5.5116,2.0478e-05,0
5.5122,2.7359e-05,0
5.5127,1.5946e-05,0
5.5132,-1.0407e-05,0
5.5137,-4.0955e-05,0
5.5142,-6.8315e-05,0
5.5148,-8.661e-05,0
5.5153,-9.5506e-05,0
5.5158,-0.00010071,0
5.5163,-0.00010793,0
5.5168,-0.00011682,0
5.5173,-0.00012387,0
5.5179,-0.00012454,0
5.5184,-0.0001237,0
5.5189,-0.00012975,0
5.5194,-0.00014083,0
5.5199,-0.0001472,0
5.5205,-0.00013948,0
5.521,-0.00012136,0
5.5215,-9.7688e-05,0
5.522,-7.1e-05,0
5.5225,-4.2466e-05,0
5.5231,-1.9135e-05,0
5.5236,-8.896e-06,0
5.5241,-3.1891e-06,0
5.5246,1.5106e-06,0
5.5251,5.8747e-06,0
5.5257,6.2104e-06,0
5.5262,3.0213e-06,0
5.5267,-1.5106e-06,0
5.5272,-3.8605e-06,0
5.5277,-2.031e-05,0
5.5282,-4.213e-05,0
5.5288,-4.8508e-05,0
5.5293,-3.0045e-05,0
5.5298,5.0355e-06,0
5.5303,3.1556e-05,0
5.5308,3.3906e-05,0
5.5314,1.9806e-05,0
5.5319,6.5461e-06,0
5.5324,4.5319e-06,0
5.5329,3.6927e-06,0
5.5334,-7.5532e-06,0
5.534,-1.6449e-05,0
5.5345,-1.561e-05,0
5.535,-1.5778e-05,0
5.5355,-2.7192e-05,0
5.536,-3.3738e-05,0
5.5366,-1.2253e-05,0
5.5371,3.6759e-05,0
5.5376,0.00010188,0
5.5381,0.00015627,0
5.5386,0.00017943,0
5.5392,0.00018984,0
5.5397,0.00019705,0
5.5402,0.00019319,0
5.5407,0.0001707,0
5.5412,0.00012958,0
5.5418,9.2653e-05,0
5.5423,7.2679e-05,0
5.5428,4.8173e-05,0
5.5433,1.4939e-05,0
5.5438,-2.8534e-06,0
5.5443,4.5319e-06,0
5.5449,2.8702e-05,0
5.5454,6.2943e-05,0
5.5459,0.00010256,0
5.5464,0.00013277,0
5.5469,0.00013999,0
5.5475,0.00012471,0
5.548,9.836e-05,0
5.5485,6.4958e-05,0
5.549,3.2563e-05,0
5.5495,1.1917e-05,0
5.5501,1.561e-05,0
5.5506,4.1123e-05,0
5.5511,6.3783e-05,0
5.5516,6.4958e-05,0
5.5521,4.9516e-05,0
5.5527,2.9374e-05,0
5.5532,5.539e-06,0
5.5537,-1.3596e-05,0
5.5542,-1.4435e-05,0
5.5547,1.0071e-06,0
5.5553,1.5946e-05,0
5.5558,1.9303e-05,0
5.5563,1.5946e-05,0
5.5568,1.6617e-05,0
5.5573,2.5849e-05,0
5.5578,3.5416e-05,0
5.5584,3.6759e-05,0
5.5589,2.9541e-05,0
5.5594,1.4939e-05,0
5.5599,5.0355e-07,0
5.5604,-1.0239e-05,0
5.561,-9.9031e-06,0
5.5615,3.357e-06,0
5.562,1.7624e-05,0
5.5625,2.2492e-05,0
5.563,1.9303e-05,0
5.5636,1.3428e-05,0
5.5641,7.5532e-06,0
5.5646,1.0407e-05,0
5.5651,2.4842e-05,0
5.5656,3.4409e-05,0
5.5662,3.8605e-05,0
5.5667,3.8102e-05,0
5.5672,3.8437e-05,0
5.5677,4.683e-05,0
5.5682,5.8579e-05,0
5.5687,6.3951e-05,0
5.5693,6.2608e-05,0
5.5698,6.2104e-05,0
5.5703,6.1601e-05,0
5.5708,5.5558e-05,0
5.5713,3.978e-05,0
5.5719,2.2995e-05,0
5.5724,7.0497e-06,0
5.5729,-9.2317e-06,0
5.5734,-2.6688e-05,0
5.5739,-4.6159e-05,0
5.5745,-6.0594e-05,0
5.575,-7.4189e-05,0
5.5755,-9.8695e-05,0
5.576,-0.00013143,0
5.5765,-0.00015644,0
5.5771,-0.000166,0
5.5776,-0.00016063,0
5.5781,-0.00014418,0
5.5786,-0.00012236,0
5.5791,-9.7353e-05,0
5.5797,-7.6204e-05,0
5.5802,-5.8244e-05,0
5.5807,-3.0381e-05,0
5.5812,6.3783e-06,0
5.5817,3.6088e-05,0
5.5823,4.8005e-05,0
5.5828,4.448e-05,0
5.5833,3.6759e-05,0
5.5838,3.2059e-05,0
5.5843,3.0716e-05,0
5.5848,3.6088e-05,0
5.5854,4.7166e-05,0
5.5859,5.9754e-05,0
5.5864,6.9993e-05,0
5.5869,7.2679e-05,0
5.5874,7.2175e-05,0
5.588,6.9657e-05,0
5.5885,6.1601e-05,0
5.589,6.0258e-05,0
5.5895,8.0064e-05,0
5.59,0.00010625,0
5.5906,0.00011196,0
5.5911,8.5771e-05,0
5.5916,3.9109e-05,0
5.5921,-1.8631e-05,0
5.5926,-7.3686e-05,0
5.5932,-0.00010323,0
5.5937,-0.00010423,0
5.5942,-7.9728e-05,0
5.5947,-4.1459e-05,0
5.5952,-1.5106e-06,0
5.5957,2.9877e-05,0
5.5963,4.4144e-05,0
5.5968,5.5894e-05,0
5.5973,7.3686e-05,0
5.5978,9.0974e-05,0
5.5983,9.8863e-05,0
5.5989,9.7856e-05,0
5.5994,0.00010574,0
5.5999,0.00012337,0
5.6004,0.00013176,0
5.6009,0.00011464,0
5.6015,8.9632e-05,0
5.602,7.7714e-05,0
5.6025,7.1839e-05,0
5.603,6.1936e-05,0
5.6035,4.9012e-05,0
5.6041,3.8773e-05,0
5.6046,3.6255e-05,0
5.6051,3.6591e-05,0
5.6056,3.4745e-05,0
5.6061,2.6688e-05,0
5.6067,9.7353e-06,0
5.6072,-1.0575e-05,0
5.6077,-2.5849e-05,0
5.6082,-2.8031e-05,0
5.6087,-3.0716e-05,0
5.6093,-4.4312e-05,0
5.6098,-5.6733e-05,0
5.6103,-6.0929e-05,0
5.6108,-5.5222e-05,0
5.6113,-4.3473e-05,0
5.6118,-3.7095e-05,0
5.6124,-2.8702e-05,0
5.6129,-1.1749e-05,0
5.6134,1.326e-05,0
5.6139,5.1362e-05,0
5.6144,0.00010105,0
5.615,0.00014754,0
5.6155,0.00018984,0
5.616,0.00022643,0
5.6165,0.00023751,0
5.617,0.00020797,0
5.6176,0.00015056,0
5.6181,8.5771e-05,0
5.6186,2.8367e-05,0
5.6191,-2.5177e-05,0
5.6196,-8.04e-05,0
5.6202,-0.00012992,0
5.6207,-0.00016416,0
5.6212,-0.00016013,0
5.6217,-0.00010893,0
5.6222,-4.213e-05,0
5.6227,8.3925e-07,0
5.6233,7.8889e-06,0
5.6238,1.6785e-07,0
5.6243,-6.0426e-06,0
5.6248,-3.8605e-06,0
5.6253,1.6617e-05,0
5.6259,5.4551e-05,0
5.6264,7.6539e-05,0
5.6269,6.6804e-05,0
5.6274,4.2802e-05,0
5.6279,2.266e-05,0
5.6285,1.1078e-05,0
5.629,1.0575e-05,0
5.6295,1.5778e-05,0
5.63,1.8631e-05,0
5.6305,1.8631e-05,0
5.6311,1.1582e-05,0
5.6316,3.8605e-06,0
5.6321,-1.0071e-06,0
5.6326,-7.5532e-06,0
5.6331,-1.3931e-05,0
5.6337,-1.7456e-05,0
5.6342,-2.4506e-05,0
5.6347,-4.0955e-05,0
5.6352,-5.4215e-05,0
5.6357,-6.5965e-05,0
5.6363,-8.0568e-05,0
5.6368,-9.1478e-05,0
5.6373,-9.0471e-05,0
5.6378,-7.9057e-05,0
5.6383,-5.6733e-05,0
5.6388,-2.8702e-05,0
5.6394,-8.896e-06,0
5.6399,3.8605e-06,0
5.6404,1.9638e-05,0
5.6409,4.8173e-05,0
5.6414,8.5771e-05,0
5.642,0.00010692,0
5.6425,0.00010642,0
5.643,0.00010188,0
5.6435,0.00010491,0
5.644,0.00010272,0
5.6446,8.2918e-05,0
5.6451,5.6062e-05,0
5.6456,4.5151e-05,0
5.6461,3.9445e-05,0
5.6466,2.3331e-05,0
5.6472,6.2104e-06,0
5.6477,-1.5274e-05,0
5.6482,-3.4577e-05,0
5.6487,-4.0116e-05,0
5.6492,-4.5823e-05,0
5.6498,-5.7237e-05,0
5.6503,-6.4622e-05,0
5.6508,-6.479e-05,0
5.6513,-5.2201e-05,0
5.6518,-2.3163e-05,0
5.6523,6.714e-06,0
5.6529,2.182e-05,0
5.6534,2.4674e-05,0
5.6539,3.1891e-05,0
5.6544,5.1194e-05,0
5.6549,7.4357e-05,0
5.6555,9.5842e-05,0
5.656,0.00011934,0
5.6565,0.00013948,0
5.657,0.00013948,0
5.6575,0.00011682,0
5.6581,8.3757e-05,0
5.6586,5.623e-05,0
5.6591,4.5151e-05,0
5.6596,4.213e-05,0
5.6601,2.8534e-05,0
5.6607,5.2033e-06,0
5.6612,-1.1749e-05,0
5.6617,-1.6785e-05,0
5.6622,-1.9638e-05,0
5.6627,-3.508e-05,0
5.6632,-5.9922e-05,0
5.6638,-8.2078e-05,0
5.6643,-8.9464e-05,0
5.6648,-7.8553e-05,0
5.6653,-5.2873e-05,0
5.6658,-1.3596e-05,0
5.6664,3.7934e-05,0
5.6669,8.8457e-05,0
5.6674,0.00012018,0
5.6679,0.00012874,0
5.6684,0.00013126,0
5.669,0.00014569,0
5.6695,0.00016265,0
5.67,0.00015996,0
5.6705,0.00013646,0
5.671,0.00010272,0
5.6716,6.6468e-05,0
5.6721,2.3835e-05,0
5.6726,-1.7288e-05,0
5.6731,-3.6927e-05,0
5.6736,-3.1052e-05,0
5.6742,-1.2924e-05,0
5.6747,-7.0497e-06,0
5.6752,-1.1917e-05,0
5.6757,-1.1582e-05,0
5.6762,7.7211e-06,0
5.6768,5.5558e-05,0
5.6773,0.0001091,0
5.6778,0.00014485,0
5.6783,0.0001707,0
5.6788,0.00019236,0
5.6793,0.00019756,0
5.6799,0.00017137,0
5.6804,0.00012337,0
5.6809,7.8218e-05,0
5.6814,5.153e-05,0
5.6819,5.5894e-05,0
5.6825,8.8289e-05,0
5.683,0.000118,0
5.6835,0.00011162,0
5.684,7.2007e-05,0
5.6845,3.2227e-05,0
5.6851,6.8818e-06,0
5.6856,-1.1917e-05,0
5.6861,-3.2059e-05,0
5.6866,-5.8244e-05,0
5.6871,-8.5603e-05,0
5.6877,-0.00011028,0
5.6882,-0.00013562,0
5.6887,-0.00015879,0
5.6892,-0.00018161,0
5.6897,-0.00019387,0
5.6902,-0.0001744,0
5.6908,-0.00011565,0
5.6913,-4.1627e-05,0
5.6918,8.2246e-06,0
5.6923,2.1653e-05,0
5.6928,1.3764e-05,0
5.6934,-4.1962e-06,0
5.6939,-1.2924e-05,0
5.6944,6.8818e-06,0
5.6949,4.2802e-05,0
5.6954,7.7714e-05,0
5.696,0.00010625,0
5.6965,0.00013243,0
5.697,0.00014351,0
5.6975,0.0001133,0
5.698,4.8676e-05,0
5.6986,-2.1317e-05,0
5.6991,-8.5939e-05,0
5.6996,-0.00013713,0
5.7001,-0.00019001,0
5.7006,-0.00024959,0
5.7012,-0.00030179,0
5.7017,-0.00034577,0
5.7022,-0.00038337,0
5.7027,-0.00039075,0
5.7032,-0.00035769,0
5.7038,-0.0002788,0
5.7043,-0.00016231,0
5.7048,-2.7024e-05,0
5.7053,0.00010877,0
5.7058,0.00024137,0
5.7063,0.0003555,0
5.7069,0.00043221,0
5.7074,0.00047787,0
5.7079,0.00049062,0
5.7084,0.00045403,0
5.7089,0.00037111,0
5.7095,0.00028098,0
5.71,0.00020864,0
5.7105,0.00014821,0
5.711,0.0001039,0
5.7115,8.6778e-05,0
5.7121,7.7714e-05,0
5.7126,4.6326e-05,0
5.7131,4.5319e-06,0
5.7136,-3.8773e-05,0
5.7141,-8.8624e-05,0
5.7147,-0.00012505,0
5.7152,-0.00012404,0
5.7157,-9.3828e-05,0
5.7162,-5.2537e-05,0
5.7167,-2.1653e-05,0
5.7172,-1.091e-05,0
5.7178,-7.8889e-06,0
5.7183,-1.3092e-05,0
5.7188,-2.2156e-05,0
5.7193,-3.0716e-05,0
5.7198,-4.448e-05,0
5.7204,-6.7643e-05,0
5.7209,-9.4835e-05,0
5.7214,-0.00011699,0
5.7219,-0.00011901,0
5.7224,-8.6107e-05,0
5.723,-3.9109e-05,0
5.7235,-1.2924e-05,0
5.724,-2.5681e-05,0
5.7245,-5.6062e-05,0
5.725,-8.4428e-05,0
5.7256,-0.00010021,0
5.7261,-8.3421e-05,0
5.7266,-4.8005e-05,0
5.7271,-2.9709e-05,0
5.7276,-4.683e-05,0
5.7282,-9.0303e-05,0
5.7287,-0.00014469,0
5.7292,-0.00017205,0
5.7297,-0.00014586,0
5.7302,-8.4764e-05,0
5.7307,-7.8889e-06,0
5.7313,8.5267e-05,0
5.7318,0.00017171,0
5.7323,0.00022039,0
5.7328,0.00022374,0
5.7333,0.00021468,0
5.7339,0.00022525,0
5.7344,0.00026201,0
5.7349,0.000307,0
5.7354,0.00033754,0
5.7359,0.00034694,0
5.7365,0.0003409,0
5.737,0.00031875,0
5.7375,0.0002845,0
5.738,0.00024271,0
5.7385,0.00019756,0
5.7391,0.0001613,0
5.7396,0.00014133,0
5.7401,0.00013243,0
5.7406,0.00012337,0
5.7411,0.00010591,0
5.7417,8.4092e-05,0
5.7422,5.539e-05,0
5.7427,2.4338e-05,0
5.7432,1.5106e-06,0
5.7437,-1.4603e-05,0
5.7443,-2.9038e-05,0
5.7448,-4.0452e-05,0
5.7453,-5.304e-05,0
5.7458,-6.3279e-05,0
5.7463,-6.1097e-05,0
5.7468,-5.388e-05,0
5.7474,-5.0523e-05,0
5.7479,-5.0858e-05,0
5.7484,-5.0187e-05,0
5.7489,-4.7837e-05,0
5.7494,-4.0452e-05,0
5.75,-3.0045e-05,0
5.7505,-2.2324e-05,0
5.751,-1.796e-05,0
5.7515,-9.9031e-06,0
5.752,2.5177e-06,0
5.7526,9.2317e-06,0
5.7531,7.0497e-06,0
5.7536,4.1962e-06,0
5.7541,-2.0142e-06,0
5.7546,-1.2757e-05,0
5.7552,-2.0813e-05,0
5.7557,-2.6688e-05,0
5.7562,-3.6088e-05,0
5.7567,-4.7333e-05,0
5.7572,-6.1433e-05,0
5.7577,-7.2343e-05,0
5.7583,-7.5364e-05,0
5.7588,-8.3085e-05,0
5.7593,-0.00010105,0
5.7598,-0.00011884,0
5.7603,-0.00013445,0
5.7609,-0.00014418,0
5.7614,-0.00014334,0
5.7619,-0.00013764,0
5.7624,-0.00013478,0
5.7629,-0.00011699,0
5.7635,-7.8721e-05,0
5.764,-3.6423e-05,0
5.7645,-1.0239e-05,0
5.765,-6.714e-06,0
5.7655,-1.9471e-05,0
5.7661,-4.1794e-05,0
5.7666,-5.9251e-05,0
5.7671,-5.6565e-05,0
5.7676,-4.8676e-05,0
5.7681,-4.7501e-05,0
5.7687,-4.5319e-05,0
5.7692,-2.7024e-05,0
5.7697,1.9135e-05,0
5.7702,7.805e-05,0
5.7707,0.00010692,0
5.7713,0.00010054,0
5.7718,8.0232e-05,0
5.7723,5.623e-05,0
5.7728,3.8102e-05,0
5.7733,2.6184e-05,0
5.7738,2.2324e-05,0
5.7744,2.9374e-05,0
5.7749,4.4816e-05,0
5.7754,5.3544e-05,0
5.7759,3.592e-05,0
5.7764,-1.8631e-05,0
5.777,-8.7449e-05,0
5.7775,-0.00014116,0
5.778,-0.00015744,0
5.7785,-0.00010574,0
5.779,1.7288e-05,0
5.7796,0.00013982,0
5.7801,0.00019622,0
5.7806,0.00019168,0
5.7811,0.00015761,0
5.7816,0.00011313,0
5.7822,7.9561e-05,0
5.7827,5.623e-05,0
5.7832,2.9374e-05,0
5.7837,-2.5177e-06,0
5.7842,-3.1724e-05,0
5.7847,-3.3066e-05,0
5.7853,8.3925e-07,0
5.7858,5.0187e-05,0
5.7863,9.0639e-05,0
5.7868,0.00011548,0
5.7873,0.00012824,0
5.7879,0.0001415,0
5.7884,0.00016298,0
5.7889,0.0001791,0
5.7894,0.00017842,0
5.7899,0.00017406,0
5.7905,0.00018883,0
5.791,0.00022139,0
5.7915,0.00023885,0
5.792,0.00022123,0
5.7925,0.00018111,0
5.7931,0.0001425,0
5.7936,0.00011833,0
5.7941,0.0001086,0
5.7946,9.6849e-05,0
5.7951,7.7043e-05,0
5.7957,5.8579e-05,0
5.7962,4.3809e-05,0
5.7967,3.827e-05,0
5.7972,4.3809e-05,0
5.7977,4.4144e-05,0
5.7983,2.5681e-05,0
5.7988,1.0071e-06,0
5.7993,-2.2995e-05,0
5.7998,-4.7669e-05,0
5.8003,-7.2343e-05,0
5.8008,-8.9128e-05,0
5.8014,-9.7688e-05,0
5.8019,-0.00010893,0
5.8024,-0.0001274,0
5.8029,-0.00013931,0
5.8034,-0.00013663,0
5.804,-0.00011498,0
5.8045,-7.1168e-05,0
5.805,-1.2253e-05,0
5.8055,5.623e-05,0
5.806,0.00011162,0
5.8066,0.00013646,0
5.8071,0.00013864,0
5.8076,0.0001378,0
5.8081,0.00013411,0
5.8086,0.00012035,0
5.8092,0.00011313,0
5.8097,0.00011615,0
5.8102,0.000118,0
5.8107,0.00011229,0
5.8112,9.3324e-05,0
5.8117,5.8915e-05,0
5.8123,2.4338e-05,0
5.8128,-5.539e-06,0
5.8133,-3.2059e-05,0
5.8138,-5.7908e-05,0
5.8143,-9.0806e-05,0
5.8149,-0.00013378,0
5.8154,-0.00017339,0
5.8159,-0.00019135,0
5.8164,-0.00018497,0
5.8169,-0.00016701,0
5.8175,-0.00014804,0
5.818,-0.00013243,0
5.8185,-0.00011968,0
5.819,-0.0001133,0
5.8195,-0.0001091,0
5.8201,-0.00010541,0
5.8206,-9.1478e-05,0
5.8211,-6.2272e-05,0
5.8216,-4.1794e-05,0
5.8221,-3.9109e-05,0
5.8227,-3.6088e-05,0
5.8232,-3.1388e-05,0
5.8237,-2.6352e-05,0
5.8242,-1.796e-05,0
5.8247,-1.3931e-05,0
5.8252,-1.8631e-05,0
5.8258,-2.2324e-05,0
5.8263,-3.2395e-05,0
5.8268,-5.7572e-05,0
5.8273,-8.6107e-05,0
5.8278,-0.00010809,0
5.8284,-0.00011783,0
5.8289,-0.00011397,0
5.8294,-0.00011078,0
5.8299,-0.00010759,0
5.8304,-0.00010491,0
5.831,-9.7185e-05,0
5.8315,-7.5029e-05,0
5.832,-3.6591e-05,0
5.8325,1.1917e-05,0
5.833,7.1672e-05,0
5.8336,0.0001326,0
5.8341,0.00018514,0
5.8346,0.00023079,0
5.8351,0.0002501,0
5.8356,0.00023214,0
5.8362,0.00020058,0
5.8367,0.00017758,0
5.8372,0.00017607,0
5.8377,0.00018849,0
5.8382,0.00020394,0
5.8388,0.00021199,0
5.8393,0.00020226,0
5.8398,0.00017842,0
5.8403,0.00015694,0
5.8408,0.00013814,0
5.8413,0.00011951,0
5.8419,0.00010893,0
5.8424,0.00010759,0
5.8429,9.3156e-05,0
5.8434,4.2802e-05,0
5.8439,-3.8102e-05,0
5.8445,-0.00010793,0
5.845,-0.00013042,0
5.8455,-0.00011666,0
5.846,-9.0806e-05,0
5.8465,-5.5558e-05,0
5.8471,-1.6953e-05,0
5.8476,5.0355e-06,0
5.8481,1.2085e-05,0
5.8486,9.0639e-06,0
5.8491,4.8676e-06,0
5.8497,1.7288e-05,0
5.8502,5.4047e-05,0
5.8507,0.00011615,0
5.8512,0.00018648,0
5.8517,0.00023549,0
5.8522,0.00025563,0
5.8528,0.00026101,0
5.8533,0.0002501,0
5.8538,0.00019857,0
5.8543,0.00010994,0
5.8548,3.7095e-05,0
5.8554,8.896e-06,0
5.8559,9.2317e-06,0
5.8564,9.9031e-06,0
5.8569,5.2033e-06,0
5.8574,2.5177e-06,0
5.858,7.7211e-06,0
5.8585,1.6617e-05,0
5.859,2.1149e-05,0
5.8595,1.5946e-05,0
5.86,1.3092e-05,0
5.8606,3.978e-05,0
5.8611,9.3156e-05,0
5.8616,0.00013176,0
5.8621,0.000118,0
5.8626,5.6565e-05,0
5.8632,-1.6785e-06,0
5.8637,-3.2395e-05,0
5.8642,-4.1459e-05,0
5.8647,-3.508e-05,0
5.8652,-2.7024e-05,0
5.8658,-2.6688e-05,0
5.8663,-3.3402e-05,0
5.8668,-4.3473e-05,0
5.8673,-4.4144e-05,0
5.8678,-3.508e-05,0
5.8683,-2.4002e-05,0
5.8689,-1.091e-05,0
5.8694,0,0
5.8699,2.5177e-06,0
5.8704,-4.0284e-06,0
5.8709,-9.2317e-06,0
5.8715,-7.5532e-06,0
5.872,-5.8747e-06,0
5.8725,-1.4939e-05,0
5.873,-3.1724e-05,0
5.8735,-5.0187e-05,0
5.8741,-6.4286e-05,0
5.8746,-6.7811e-05,0
5.8751,-5.7237e-05,0
5.8756,-4.7166e-05,0
5.8761,-6.0594e-05,0
5.8767,-8.7114e-05,0
5.8772,-0.00010256,0
5.8777,-9.7185e-05,0
5.8782,-7.3854e-05,0
5.8787,-4.3137e-05,0
5.8792,-8.2246e-06,0
5.8798,1.3931e-05,0
5.8803,1.0575e-05,0
5.8808,-6.714e-06,0
5.8813,-2.2156e-05,0
5.8818,-2.031e-05,0
5.8824,-7.5532e-06,0
5.8829,0,0
5.8834,3.357e-06,0
5.8839,2.031e-05,0
5.8844,5.2705e-05,0
5.885,8.6778e-05,0
5.8855,0.0001039,0
5.886,9.4499e-05,0
5.8865,6.6972e-05,0
5.887,4.3473e-05,0
5.8876,2.9206e-05,0
5.8881,1.6617e-05,0
5.8886,9.5674e-06,0
5.8891,6.5461e-06,0
5.8896,1.1749e-06,0
5.8902,-7.0497e-06,0
5.8907,-2.5849e-05,0
5.8912,-5.5222e-05,0
5.8917,-8.7785e-05,0
5.8922,-0.00012303,0
5.8928,-0.00014553,0
5.8933,-0.00014922,0
5.8938,-0.00014754,0
5.8943,-0.00015912,0
5.8948,-0.00016399,0
5.8953,-0.00013848,0
5.8959,-8.3589e-05,0
5.8964,-1.8631e-05,0
5.8969,3.508e-05,0
5.8974,8.2918e-05,0
5.8979,0.00013394,0
5.8985,0.00018044,0
5.899,0.00020931,0
5.8995,0.00021032,0
5.9,0.00019084,0
5.9005,0.0001556,0
5.9011,0.00012102,0
5.9016,0.00010776,0
5.9021,0.00011028,0
5.9026,0.00011263,0
5.9031,0.00011447,0
5.9037,0.00012136,0
5.9042,0.00012203,0
5.9047,0.00010306,0
5.9052,7.2175e-05,0
5.9057,4.5823e-05,0
5.9062,3.8102e-05,0
5.9068,4.6159e-05,0
5.9073,4.7333e-05,0
5.9078,3.743e-05,0
5.9083,2.7695e-05,0
5.9088,2.3499e-05,0
5.9094,1.8463e-05,0
5.9099,1.3596e-05,0
5.9104,1.3931e-05,0
5.9109,1.6281e-05,0
5.9114,1.5778e-05,0
