6.5174,-6.7979e-05,0
6.5179,-0.00011699,0
6.5184,-0.00013075,0
6.5189,-0.00015996,0
6.5195,-0.00020494,0
6.52,-0.00021317,0
6.5205,-0.00016751,0
6.521,-8.7953e-05,0
6.5215,-9.5674e-06,0
6.5221,4.5487e-05,0
6.5226,7.5029e-05,0
6.5231,8.4764e-05,0
6.5236,8.3589e-05,0
6.5241,7.6371e-05,0
6.5247,5.9922e-05,0
6.5252,3.0716e-05,0
6.5257,3.357e-07,0
6.5262,-1.1414e-05,0
6.5267,3.8605e-06,0
6.5273,4.5823e-05,0
6.5278,0.00010188,0
6.5283,0.00017876,0
6.5288,0.00030901,0
6.5293,0.00046477,0
6.5298,0.00056028,0
6.5304,0.00054971,0
6.5309,0.00046175,0
6.5314,0.00035131,0
6.5319,0.00025161,0
6.5324,0.00017037,0
6.533,9.0135e-05,0
6.5335,-2.8534e-06,0
6.534,-0.00010205,0
6.5345,-0.00018816,0
6.535,-0.00025278,0
6.5356,-0.00029659,0
6.5361,-0.00032093,0
6.5366,-0.00031035,0
6.5371,-0.00024926,0
6.5376,-0.00016063,0
6.5382,-7.9728e-05,0
6.5387,-2.1317e-05,0
6.5392,4.3641e-06,0
6.5397,-6.0426e-06,0
6.5402,-2.9038e-05,0
6.5408,-3.4409e-05,0
6.5413,-1.5946e-05,0
6.5418,7.2175e-06,0
6.5423,2.0645e-05,0
6.5428,2.5849e-05,0
6.5433,3.0213e-05,0
6.5439,3.5416e-05,0
6.5444,4.3473e-05,0
6.5449,5.8579e-05,0
6.5454,8.7449e-05,0
6.5459,0.00012186,0
6.5465,0.00014284,0
6.547,0.000142,0
6.5475,0.00012924,0
6.548,0.00012068,0
6.5485,0.00012706,0
6.5491,0.00015744,0
6.5496,0.00022861,0
6.5501,0.00032177,0
6.5506,0.0003926,0
6.5511,0.00041811,0
6.5517,0.0004067,0
6.5522,0.00036977,0
6.5527,0.00030465,0
6.5532,0.00021703,0
6.5537,0.00010877,0
6.5542,-7.8889e-06,0
6.5548,-0.00010105,0
6.5553,-0.00014015,0
6.5558,-0.00014217,0
6.5563,-0.00013999,0
6.5568,-0.0001415,0
6.5574,-0.00012052,0
6.5579,-7.2007e-05,0
6.5584,-6.3783e-06,0
6.5589,9.5506e-05,0
6.5594,0.000236,0
6.56,0.00033335,0
6.5605,0.00031841,0
6.561,0.00022441,0
6.5615,0.00011414,0
6.562,5.0355e-07,0
6.5626,-0.00014368,0
6.5631,-0.00029961,0
6.5636,-0.00039881,0
6.5641,-0.00042298,0
6.5646,-0.00041643,0
6.5652,-0.00039898,0
6.5657,-0.00036759,0
6.5662,-0.00033721,0
6.5667,-0.0003315,0
6.5672,-0.00034342,0
6.5678,-0.00034694,0
6.5683,-0.00032546,0
6.5688,-0.00029189,0
6.5693,-0.00026117,0
6.5698,-0.00022962,0
6.5703,-0.00018598,0
6.5709,-0.00013176,0
6.5714,-8.5267e-05,0
6.5719,-5.3544e-05,0
6.5724,-2.8534e-06,0
6.5729,6.5797e-05,0
6.5735,0.00013243,0
6.574,0.00019554,0
6.5745,0.00026503,0
6.575,0.00034359,0
6.5755,0.00045101,0
6.5761,0.00057707,0
6.5766,0.00065747,0
6.5771,0.00064974,0
6.5776,0.00056851,0
6.5781,0.00046444,0
6.5787,0.00032798,0
6.5792,0.00012404,0
6.5797,-0.00011112,0
6.5802,-0.00032663,0
6.5807,-0.0005017,0
6.5812,-0.00063095,0
6.5818,-0.00069221,0
6.5823,-0.0006536,0
6.5828,-0.00053712,0
6.5833,-0.00039411,0
6.5838,-0.00026839,0
6.5844,-0.00017288,0
6.5849,-8.661e-05,0
6.5854,-1.1582e-05,0
6.5859,3.5584e-05,0
6.5864,5.8244e-05,0
6.587,7.3686e-05,0
6.5875,0.0001039,0
6.588,0.00014485,0
6.5885,0.00018228,0
6.589,0.000213,0
6.5896,0.00023465,0
6.5901,0.00025547,0
6.5906,0.00027846,0
6.5911,0.00029323,0
6.5916,0.00029995,0
6.5922,0.00030465,0
6.5927,0.00030196,0
6.5932,0.00028249,0
6.5937,0.00025832,0
6.5942,0.00023516,0
6.5948,0.00019823,0
6.5953,0.00017171,0
6.5958,0.00020259,0
6.5963,0.00029793,0
6.5968,0.00041375,0
6.5973,0.00046377,0
6.5979,0.00039596,0
6.5984,0.00023885,0
6.5989,6.4958e-05,0
6.5994,-9.1981e-05,0
6.5999,-0.00021921,0
6.6005,-0.00029122,0
6.601,-0.00032093,0
6.6015,-0.00033956,0
6.602,-0.00033553,0
6.6025,-0.0003127,0
6.6031,-0.000307,0
6.6036,-0.00031891,0
6.6041,-0.00028199,0
6.6046,-0.00014066,0
6.6051,6.5629e-05,0
6.6057,0.00021233,0
6.6062,0.00023549,0
6.6067,0.00019588,0
6.6072,0.00016634,0
6.6077,0.00012958,0
6.6082,5.539e-05,0
6.6088,-4.062e-05,0
6.6093,-0.00012152,0
6.6098,-0.00017104,0
6.6103,-0.00020729,0
6.6108,-0.0002365,0
6.6114,-0.00024842,0
6.6119,-0.00023465,0
6.6124,-0.00018413,0
6.6129,-9.5842e-05,0
6.6134,3.6759e-05,0
6.614,0.00019722,0
6.6145,0.00030935,0
6.615,0.00033452,0
6.6155,0.00031908,0
6.616,0.00030968,0
6.6166,0.00029659,0
6.6171,0.00025328,0
6.6176,0.00017523,0
6.6181,8.9799e-05,0
6.6186,7.8889e-06,0
6.6192,-7.8218e-05,0
6.6197,-0.00015694,0
6.6202,-0.00019034,0
6.6207,-0.00017943,0
6.6212,-0.00015946,0
6.6217,-0.00014385,0
6.6223,-0.0001284,0
6.6228,-0.00011162,0
6.6233,-9.4331e-05,0
6.6238,-5.8747e-05,0
6.6243,4.5319e-06,0
6.6249,6.5965e-05,0
6.6254,0.00010692,0
6.6259,0.00013797,0
6.6264,0.00017339,0
6.6269,0.00021149,0
6.6275,0.00025496,0
6.628,0.00029575,0
6.6285,0.00030834,0
6.629,0.00028316,0
6.6295,0.00024456,0
6.6301,0.0002224,0
6.6306,0.0001895,0
6.6311,0.00011397,0
6.6316,8.3925e-06,0
6.6321,-0.00010373,0
6.6327,-0.00018346,0
6.6332,-0.00020343,0
6.6337,-0.00018682,0
6.6342,-0.00016533,0
6.6347,-0.00014418,0
6.6353,-0.00012052,0
6.6358,-0.0001086,0
6.6363,-0.00011162,0
6.6368,-0.00012253,0
6.6373,-0.00013713,0
6.6378,-0.00014804,0
6.6384,-0.00014485,0
6.6389,-0.0001321,0
6.6394,-0.00012908,0
6.6399,-0.00014083,0
6.6404,-0.0001284,0
6.641,-4.0955e-05,0
6.6415,0.00010457,0
6.642,0.00022878,0
6.6425,0.00027343,0
6.643,0.00024556,0
6.6436,0.00018228,0
6.6441,0.00011061,0
6.6446,5.4887e-05,0
6.6451,6.2104e-06,0
6.6456,-3.9277e-05,0
6.6462,-4.8508e-05,0
6.6467,-1.7121e-05,0
6.6472,1.1246e-05,0
6.6477,2.3499e-06,0
6.6482,-5.0187e-05,0
6.6487,-0.0001227,0
6.6493,-0.00016617,0
6.6498,-0.00014855,0
6.6503,-8.9464e-05,0
6.6508,-2.4674e-05,0
6.6513,3.8773e-05,0
6.6519,9.6345e-05,0
6.6524,0.00013814,0
6.6529,0.00016147,0
6.6534,0.00016483,0
6.6539,0.00014704,0
6.6545,0.00012438,0
6.655,0.00011061,0
6.6555,0.00010726,0
6.656,0.00010608,0
6.6565,0.00010054,0
6.6571,9.366e-05,0
6.6576,8.3253e-05,0
6.6581,8.1071e-05,0
6.6586,8.1407e-05,0
6.6591,6.6804e-05,0
6.6597,4.9683e-05,0
6.6602,4.6159e-05,0
6.6607,7.2679e-05,0
6.6612,0.00013075,0
6.6617,0.00019219,0
6.6623,0.00023616,0
6.6628,0.00024154,0
6.6633,0.00017876,0
6.6638,5.539e-05,0
6.6643,-8.5435e-05,0
6.6648,-0.00021501,0
6.6654,-0.00032512,0
6.6659,-0.00038941,0
6.6664,-0.00039445,0
6.6669,-0.00035886,0
6.6674,-0.00030129,0
6.668,-0.00022693,0
6.6685,-0.00013478,0
6.669,-3.7598e-05,0
6.6695,4.3809e-05,0
6.67,9.8863e-05,0
6.6706,0.00014636,0
6.6711,0.00018917,0
6.6716,0.00020931,0
6.6721,0.00019487,0
6.6726,0.00014788,0
6.6732,9.0471e-05,0
6.6737,3.6423e-05,0
6.6742,-5.2033e-06,0
6.6747,-3.1891e-05,0
6.6752,-5.539e-05,0
6.6757,-7.5364e-05,0
6.6763,-8.0064e-05,0
6.6768,-6.865e-05,0
6.6773,-5.388e-05,0
6.6778,-4.7669e-05,0
6.6783,-5.3208e-05,0
6.6789,-6.5461e-05,0
6.6794,-6.7308e-05,0
6.6799,-4.6662e-05,0
6.6804,-1.0575e-05,0
6.6809,2.4338e-05,0
6.6815,4.9348e-05,0
6.682,6.6636e-05,0
6.6825,7.7379e-05,0
6.683,8.3085e-05,0
6.6835,8.7785e-05,0
6.6841,0.00010457,0
6.6846,0.00014955,0
6.6851,0.00021569,0
6.6856,0.00028098,0
6.6861,0.00034141,0
6.6867,0.00040267,0
6.6872,0.00045454,0
6.6877,0.00046444,0
6.6882,0.00041006,0
6.6887,0.00030599,0
6.6893,0.00020763,0
6.6898,0.00013344,0
6.6903,6.479e-05,0
6.6908,2.3163e-05,0
6.6913,2.8367e-05,0
6.6918,3.7766e-05,0
6.6924,-7.8889e-06,0
6.6929,-7.3014e-05,0
6.6934,-8.9296e-05,0
6.6939,-7.7379e-05,0
6.6944,-0.00010222,0
6.695,-0.00017557,0
6.6955,-0.00023684,0
6.696,-0.00022458,0
6.6965,-0.00016365,0
6.697,-0.00011296,0
6.6976,-9.8695e-05,0
6.6981,-0.00013462,0
6.6986,-0.00019504,0
6.6991,-0.0002313,0
6.6996,-0.00023818,0
6.7002,-0.00024489,0
6.7007,-0.00026738,0
6.7012,-0.00028837,0
6.7017,-0.00029525,0
6.7022,-0.0002887,0
6.7027,-0.00026168,0
6.7033,-0.00021434,0
6.7038,-0.00015912,0
6.7043,-9.8527e-05,0
6.7048,-1.796e-05,0
6.7053,0.0001086,0
6.7059,0.00026571,0
6.7064,0.00038488,0
6.7069,0.0004631,0
6.7074,0.00052084,0
6.7079,0.00052067,0
6.7085,0.00044833,0
6.709,0.00033855,0
6.7095,0.00023079,0
6.71,0.00016197,0
6.7105,0.00012169,0
6.7111,7.7211e-05,0
6.7116,3.0716e-05,0
6.7121,1.6449e-05,0
6.7126,2.7359e-05,0
6.7131,1.8463e-06,0
6.7137,-8.0064e-05,0
6.7142,-0.00018262,0
6.7147,-0.00028786,0
6.7152,-0.00037816,0
6.7157,-0.0004406,0
6.7162,-0.00047636,0
6.7168,-0.00045806,0
6.7173,-0.000378,0
6.7178,-0.00026436,0
6.7183,-0.00016399,0
6.7188,-0.00010021,0
6.7194,-6.63e-05,0
6.7199,-6.009e-05,0
6.7204,-7.8889e-05,0
6.7209,-0.00010105,0
6.7214,-0.00010491,0
6.722,-8.3253e-05,0
6.7225,-3.5248e-05,0
6.723,2.2324e-05,0
6.7235,6.9657e-05,0
6.724,0.0001039,0
6.7246,0.00012555,0
6.7251,0.00013948,0
6.7256,0.00017171,0
6.7261,0.0002459,0
6.7266,0.00034728,0
6.7272,0.00045101,0
6.7277,0.00054266,0
6.7282,0.00060006,0
6.7287,0.00059939,0
6.7292,0.00053359,0
6.7298,0.00043221,0
6.7303,0.00031656,0
6.7308,0.00017591,0
6.7313,2.9038e-05,0
6.7318,-8.1071e-05,0
6.7323,-0.00015325,0
6.7329,-0.00021233,0
6.7334,-0.00024472,0
6.7339,-0.00022274,0
6.7344,-0.00016802,0
6.7349,-8.8289e-05,0
6.7355,3.743e-05,0
6.736,0.0001895,0
6.7365,0.00030028,0
6.737,0.00032311,0
6.7375,0.000307,0
6.7381,0.0003033,0
6.7386,0.00030062,0
6.7391,0.00026906,0
6.7396,0.00018279,0
6.7401,4.7166e-05,0
6.7407,-0.00010306,0
6.7412,-0.00024724,0
6.7417,-0.00038454,0
6.7422,-0.00049398,0
6.7427,-0.00055306,0
6.7432,-0.00056347,0
6.7438,-0.00052537,0
6.7443,-0.00043154,0
6.7448,-0.000307,0
6.7453,-0.00020058,0
6.7458,-0.00012639,0
6.7464,-6.714e-05,0
6.7469,-2.4002e-05,0
6.7474,-9.2317e-06,0
6.7479,-2.3163e-05,0
6.7484,-5.1362e-05,0
6.749,-6.7643e-05,0
6.7495,-5.6062e-05,0
6.75,-1.2589e-05,0
6.7505,7.2007e-05,0
6.751,0.00018279,0
6.7516,0.00025429,0
6.7521,0.00025362,0
6.7526,0.00021451,0
6.7531,0.0001754,0
6.7536,0.00015023,0
6.7542,0.00013713,0
6.7547,0.00011901,0
6.7552,8.8457e-05,0
6.7557,5.5222e-05,0
6.7562,3.508e-05,0
6.7568,3.743e-05,0
6.7573,4.6159e-05,0
6.7578,4.0787e-05,0
6.7583,2.7192e-05,0
6.7588,2.6856e-05,0
6.7593,4.448e-05,0
6.7599,6.9993e-05,0
6.7604,9.7856e-05,0
6.7609,0.00012119,0
6.7614,0.00013411,0
6.7619,0.00014116,0
6.7625,0.00015392,0
6.763,0.00018363,0
6.7635,0.00021367,0
6.764,0.00021619,0
6.7645,0.00019387,0
6.7651,0.00016013,0
6.7656,0.00011598,0
6.7661,6.8818e-05,0
6.7666,7.57e-05,0
6.7671,0.00017238,0
6.7677,0.00031304,0
6.7682,0.00041543,0
6.7687,0.00043221,0
6.7692,0.00037212,0
6.7697,0.0002798,0
6.7702,0.00019806,0
6.7708,0.00012471,0
6.7713,4.0955e-05,0
6.7718,-4.1459e-05,0
6.7723,-0.00013042,0
6.7728,-0.00023919,0
6.7734,-0.00034594,0
6.7739,-0.00043104,0
6.7744,-0.00050539,0
6.7749,-0.00055944,0
6.7754,-0.00056095,0
6.776,-0.00050539,0
6.7765,-0.0004067,0
6.777,-0.00027611,0
6.7775,-0.00013025,0
6.778,2.9709e-05,0
6.7786,0.00018967,0
6.7791,0.00029793,0
6.7796,0.00032882,0
6.7801,0.00031589,0
6.7806,0.00027913,0
6.7812,0.00020175,0
6.7817,8.1071e-05,0
6.7822,-5.304e-05,0
6.7827,-0.00016785,0
6.7832,-0.00024002,0
6.7838,-0.00025597,0
6.7843,-0.00020964,0
6.7848,-0.00011867,0
6.7853,-4.1794e-05,0
6.7858,-1.8967e-05,0
6.7863,-2.3499e-05,0
6.7869,-1.796e-05,0
6.7874,-1.6449e-05,0
6.7879,-3.4073e-05,0
6.7884,-6.9657e-05,0
6.7889,-0.00010675,0
6.7895,-0.0001237,0
6.79,-0.00011867,0
6.7905,-0.00010759,0
6.791,-9.5171e-05,0
6.7915,-4.9851e-05,0
6.7921,2.2492e-05,0
6.7926,7.4357e-05,0
6.7931,9.5171e-05,0
6.7936,0.00010826,0
6.7941,0.00013713,0
6.7947,0.0002031,0
6.7952,0.00029306,0
6.7957,0.00035064,0
6.7962,0.00037884,0
6.7967,0.00041459,0
6.7973,0.00045772,0
6.7978,0.00046511,0
6.7983,0.00040855,0
6.7988,0.00032412,0
6.7993,0.00022979,0
6.7998,0.00010658,0
6.8004,-3.3066e-05,0
6.8009,-0.00016751,0
6.8014,-0.00029508,0
6.8019,-0.00041257,0
6.8024,-0.00050724,0
6.803,-0.00053544,0
6.8035,-0.0004829,0
6.804,-0.00040166,0
6.8045,-0.00032697,0
6.805,-0.00025278,0
6.8056,-0.00018715,0
6.8061,-0.00014267,0
6.8066,-9.6178e-05,0
6.8071,-3.4577e-05,0
6.8076,2.6688e-05,0
6.8082,9.1478e-05,0
6.8087,0.00015459,0
6.8092,0.00018581,0
6.8097,0.00017305,0
6.8102,0.00014553,0
6.8107,0.00012941,0
6.8113,0.00011766,0
6.8118,9.601e-05,0
6.8123,7.2679e-05,0
6.8128,6.2943e-05,0
6.8133,6.7475e-05,0
6.8139,8.0735e-05,0
6.8144,9.7185e-05,0
6.8149,0.00010927,0
6.8154,0.00011128,0
6.8159,0.00010088,0
6.8165,7.9728e-05,0
6.817,5.5222e-05,0
6.8175,2.6688e-05,0
6.818,-5.2033e-06,0
6.8185,-2.7024e-05,0
6.8191,-2.4338e-05,0
6.8196,1.1246e-05,0
6.8201,6.8315e-05,0
6.8206,0.0001086,0
6.8211,0.00011632,0
6.8217,0.00011397,0
6.8222,0.0001368,0
6.8227,0.00020377,0
6.8232,0.00030918,0
6.8237,0.00041123,0
6.8243,0.00047787,0
6.8248,0.00048257,0
6.8253,0.00040989,0
6.8258,0.00027309,0
6.8263,0.00010188,0
6.8268,-6.2776e-05,0
6.8274,-0.00019034,0
6.8279,-0.00026453,0
6.8284,-0.0002798,0
6.8289,-0.00025278,0
6.8294,-0.00020964,0
6.83,-0.0001707,0
6.8305,-0.00011028,0
6.831,-1.6785e-05,0
6.8315,5.4551e-05,0
6.832,6.4958e-05,0
6.8326,4.1291e-05,0
6.8331,1.5106e-05,0
6.8336,-1.6785e-06,0
6.8341,-9.5674e-06,0
6.8346,-2.1317e-05,0
6.8352,-4.8676e-05,0
6.8357,-7.4022e-05,0
6.8362,-9.1646e-05,0
6.8367,-0.00010642,0
6.8372,-0.0001133,0
6.8377,-0.00011783,0
6.8383,-0.00013931,0
6.8388,-0.00016399,0
6.8393,-0.00017188,0
6.8398,-0.00016298,0
6.8403,-0.00014066,0
6.8409,-0.00011632,0
6.8414,-0.00010021,0
6.8419,-7.0665e-05,0
6.8424,1.1749e-06,0
6.8429,9.1142e-05,0
6.8435,0.00016567,0
6.844,0.0002506,0
6.8445,0.0003926,0
6.845,0.00053393,0
6.8455,0.00057455,0
6.8461,0.00052016,0
6.8466,0.00039663,0
6.8471,0.0002088,0
6.8476,1.2589e-05,0
6.8481,-0.00011498,0
6.8487,-0.00018514,0
6.8492,-0.00025161,0
6.8497,-0.00033469,0
6.8502,-0.00040922,0
6.8507,-0.00043339,0
6.8513,-0.00043809,0
6.8518,-0.00047988,0
6.8523,-0.00053007,0
6.8528,-0.00052369,0
6.8533,-0.00045336,0
6.8538,-0.00035399,0
6.8544,-0.00026654,0
6.8549,-0.00020192,0
6.8554,-0.00012975,0
6.8559,-3.8437e-05,0
6.8564,6.1601e-05,0
6.857,0.00015627,0
6.8575,0.00025228,0
6.858,0.00037111,0
6.8585,0.00047636,0
6.859,0.00051412,0
6.8596,0.00049062,0
6.8601,0.00045571,0
6.8606,0.00042885,0
6.8611,0.0003879,0
6.8616,0.00030398,0
6.8622,0.0001791,0
6.8627,5.623e-05,0
6.8632,-3.0549e-05,0
6.8637,-9.2821e-05,0
6.8642,-0.00012824,0
6.8647,-0.00012706,0
6.8653,-0.00010088,0
6.8658,-5.9251e-05,0
6.8663,3.5248e-06,0
6.8668,5.9922e-05,0
6.8673,7.4357e-05,0
6.8679,4.8173e-05,0
6.8684,1.1749e-06,0
6.8689,-4.0955e-05,0
6.8694,-5.2873e-05,0
6.8699,-3.9948e-05,0
6.8705,-2.6688e-05,0
6.871,-2.1149e-05,0
6.8715,-9.5674e-06,0
6.872,1.8463e-05,0
6.8725,4.683e-05,0
6.8731,5.9419e-05,0
6.8736,7.1e-05,0
6.8741,0.00012924,0
6.8746,0.00025261,0
6.8751,0.00038236,0
6.8757,0.0004542,0
6.8762,0.00046813,0
6.8767,0.00043221,0
6.8772,0.00035567,0
6.8777,0.00026336,0
6.8783,0.00017104,0
6.8788,8.3589e-05,0
6.8793,-3.5248e-06,0
6.8798,-9.3324e-05,0
6.8803,-0.0001702,0
6.8808,-0.00021485,0
6.8814,-0.00023532,0
6.8819,-0.00025983,0
6.8824,-0.00028736,0
6.8829,-0.00029642,0
6.8834,-0.00027024,0
6.884,-0.0002135,0
6.8845,-0.00015157,0
6.885,-0.00011078,0
6.8855,-0.00010356,0
6.886,-0.00010642,0
6.8866,-8.2582e-05,0
6.8871,-3.9948e-05,0
6.8876,-1.4939e-05,0
6.8881,-7.5532e-06,0
6.8886,2.5177e-06,0
6.8892,2.2324e-05,0
6.8897,5.623e-05,0
6.8902,0.0001227,0
6.8907,0.00019789,0
6.8912,0.00024271,0
6.8918,0.00025664,0
6.8923,0.00027645,0
6.8928,0.00031069,0
6.8933,0.00033788,0
6.8938,0.00035836,0
6.8943,0.00034829,0
6.8949,0.00025933,0
6.8954,9.8863e-05,0
6.8959,-4.7501e-05,0
6.8964,-0.0001227,0
6.8969,-0.00017473,0
6.8975,-0.00024456,0
6.898,-0.00031388,0
6.8985,-0.00036037,0
6.899,-0.00038488,0
6.8995,-0.00038186,0
6.9001,-0.00034359,0
6.9006,-0.00029407,0
6.9011,-0.00026722,0
6.9016,-0.00025144,0
6.9021,-0.00020847,0
6.9027,-0.00013948,0
6.9032,-8.3085e-05,0
6.9037,-4.3473e-05,0
6.9042,3.6927e-06,0
6.9047,7.9896e-05,0
6.9052,0.00016802,0
6.9058,0.00023616,0
6.9063,0.00025899,0
6.9068,0.00022106,0
6.9073,0.00013881,0
6.9078,4.7333e-05,0
6.9084,-1.9471e-05,0
6.9089,-6.0426e-05,0
6.9094,-8.6778e-05,0
6.9099,-9.4835e-05,0
6.9104,-7.9057e-05,0
6.911,-5.2369e-05,0
6.9115,-2.9541e-05,0
6.912,-5.3712e-06,0
6.9125,3.3234e-05,0
6.913,0.00010155,0
6.9136,0.00019722,0
6.9141,0.00029458,0
6.9146,0.00037095,0
6.9151,0.00041006,0
6.9156,0.00039847,0
6.9162,0.00036373,0
6.9167,0.00032915,0
6.9172,0.0002751,0
6.9177,0.00018296,0
6.9182,6.3279e-05,0
6.9188,-5.6397e-05,0
6.9193,-0.00016617,0
6.9198,-0.00026201,0
6.9203,-0.00032244,0
6.9208,-0.00034325,0
6.9213,-0.00033083,0
6.9219,-0.00029189,0
6.9224,-0.00023398,0
6.9229,-0.00016349,0
6.9234,-8.6442e-05,0
6.9239,-2.031e-05,0
6.9245,2.0478e-05,0
6.925,4.8676e-05,0
6.9255,8.2414e-05,0
6.926,0.00012068,0
6.9265,0.00014351,0
6.9271,0.0001472,0
6.9276,0.00014687,0
6.9281,0.00014418,0
6.9286,0.00013344,0
6.9291,0.00013462,0
6.9297,0.00018061,0
6.9302,0.00024959,0
6.9307,0.00029592,0
6.9312,0.00030129,0
6.9317,0.0002788,0
6.9322,0.00025093,0
6.9328,0.00021401,0
6.9333,0.00016063,0
6.9338,9.4163e-05,0
6.9343,1.5946e-05,0
6.9348,-5.2705e-05,0
6.9354,-7.5532e-05,0
6.9359,-5.1362e-05,0
6.9364,-3.6927e-06,0
6.9369,5.6565e-05,0
6.9374,9.0135e-05,0
6.938,8.7114e-05,0
6.9385,7.7043e-05,0
6.939,8.5603e-05,0
6.9395,8.7953e-05,0
6.94,3.2395e-05,0
6.9406,-7.8386e-05,0
6.9411,-0.00015862,0
6.9416,-0.00013445,0
6.9421,-6.0594e-05,0
6.9426,-3.7766e-05,0
6.9432,-6.8986e-05,0
6.9437,-0.0001091,0
6.9442,-0.00015174,0
6.9447,-0.00020444,0
6.9452,-0.00025765,0
6.9458,-0.00029424,0
6.9463,-0.00030649,0
6.9468,-0.0003033,0
6.9473,-0.00028518,0
6.9478,-0.00024288,0
6.9483,-0.00019185,0
6.9489,-0.00016332,0
6.9494,-0.00015593,0
6.9499,-0.00013646,0
6.9504,-9.1646e-05,0
6.9509,-4.0116e-05,0
6.9515,8.7282e-06,0
6.952,5.539e-05,0
6.9525,9.8192e-05,0
6.953,0.00014586,0
6.9535,0.00022257,0
6.9541,0.00032009,0
6.9546,0.0004161,0
6.9551,0.00048458,0
6.9556,0.00050607,0
6.9561,0.00047518,0
6.9567,0.0003931,0
6.9572,0.00027443,0
6.9577,0.00015492,0
6.9582,6.865e-05,0
6.9587,-6.8818e-06,0
6.9592,-8.6946e-05,0
6.9598,-0.00014435,0
6.9603,-0.00017473,0
6.9608,-0.00019974,0
6.9613,-0.00023264,0
6.9618,-0.00028685,0
6.9624,-0.00033889,0
6.9629,-0.00034006,0
6.9634,-0.00028853,0
6.9639,-0.00021283,0
6.9644,-0.0001284,0
6.965,-1.796e-05,0
6.9655,0.00013915,0
6.966,0.00030112,0
6.9665,0.00041408,0
6.967,0.00050002,0
6.9676,0.00059469,0
6.9681,0.00066787,0
6.9686,0.00067391,0
6.9691,0.00060812,0
6.9696,0.0004923,0
6.9702,0.00032042,0
6.9707,9.0639e-05,0
6.9712,-0.00016617,0
6.9717,-0.00041576,0
6.9722,-0.0006385,0
6.9727,-0.00082347,0
6.9733,-0.0009319,0
6.9738,-0.00091713,0
6.9743,-0.00078352,0
6.9748,-0.00059889,0
6.9753,-0.00042936,0
6.9759,-0.00029709,0
6.9764,-0.00018917,0
6.9769,-9.1478e-05,0
6.9774,-1.0239e-05,0
6.9779,4.0955e-05,0
6.9785,7.2679e-05,0
6.979,0.00010524,0
6.9795,0.00014553,0
6.98,0.00018849,0
6.9805,0.00025093,0
6.9811,0.00031472,0
6.9816,0.00033822,0
6.9821,0.00032126,0
6.9826,0.00029776,0
6.9831,0.00027913,0
6.9837,0.00025832,0
6.9842,0.00023163,0
6.9847,0.00020729,0
6.9852,0.00019554,0
6.9857,0.00019521,0
6.9863,0.00019857,0
6.9868,0.00021636,0
6.9873,0.00023415,0
6.9878,0.00023281,0
6.9883,0.00021988,0
6.9888,0.00021535,0
6.9894,0.00021065,0
6.9899,0.0001796,0
6.9904,0.00011397,0
6.9909,3.2395e-05,0
6.9914,-3.978e-05,0
6.992,-9.9535e-05,0
6.9925,-0.0001566,0
6.993,-0.00020612,0
6.9935,-0.00025597,0
6.994,-0.00029827,0
6.9946,-0.00029978,0
6.9951,-0.00024523,0
6.9956,-0.00016332,0
6.9961,-8.9632e-05,0
6.9966,-3.3066e-05,0
6.9972,1.3596e-05,0
6.9977,5.1865e-05,0
6.9982,7.8218e-05,0
6.9987,9.8863e-05,0
6.9992,0.00013075,0
6.9997,0.00021535,0
7.0003,0.00035769,0
7.0008,0.00048861,0
7.0013,0.00054199,0
7.0018,0.00050271,0
7.0023,0.0004114,0
7.0029,0.00032848,0
7.0034,0.00027242,0
7.0039,0.00019924,0
7.0044,9.1478e-05,0
7.0049,-3.8437e-05,0
7.0055,-0.00017507,0
7.006,-0.00029407,0
7.0065,-0.00039294,0
7.007,-0.00048525,0
7.0075,-0.00054954,0
7.0081,-0.00056078,0
7.0086,-0.00051362,0
7.0091,-0.00041089,0
7.0096,-0.00028551,0
7.0101,-0.00018077,0
7.0107,-0.00011196,0
7.0112,-7.805e-05,0
7.0117,-7.0832e-05,0
7.0122,-7.3686e-05,0
7.0127,-8.2078e-05,0
7.0133,-7.7882e-05,0
7.0138,-3.7766e-05,0
7.0143,2.4338e-05,0
7.0148,8.0064e-05,0
7.0153,0.00012589,0
7.0158,0.00016181,0
7.0164,0.00017574,0
7.0169,0.00017842,0
7.0174,0.0001994,0
7.0179,0.00022039,0
7.0184,0.00020629,0
7.019,0.00016953,0
7.0195,0.00015694,0
7.02,0.00016265,0
7.0205,0.00013663,0
7.021,7.4861e-05,0
7.0216,1.4603e-05,0
7.0221,-1.8967e-05,0
7.0226,-3.4241e-05,0
7.0231,-4.7166e-05,0
7.0236,-4.3977e-05,0
7.0242,-1.3596e-05,0
7.0247,3.0884e-05,0
7.0252,7.1672e-05,0
7.0257,0.00010541,0
7.0262,0.00014318,0
7.0267,0.00020125,0
7.0273,0.00026839,0
7.0278,0.00031472,0
7.0283,0.00032613,0
7.0288,0.00031908,0
7.0293,0.00031371,0
7.0299,0.00029525,0
7.0304,0.00023348,0
7.0309,0.00012975,0
7.0314,2.501e-05,0
7.0319,-5.6901e-05,0
7.0325,-0.00012958,0
7.033,-0.00018816,0
7.0335,-0.00022744,0
7.034,-0.00026873,0
7.0345,-0.00030297,0
7.0351,-0.00027729,0
7.0356,-0.00015006,0
7.0361,4.3305e-05,0
7.0366,0.00022475,0
7.0371,0.00034795,0
7.0377,0.00040603,0
7.0382,0.00042013,0
7.0387,0.00041711,0
7.0392,0.00041274,0
7.0397,0.00036407,0
7.0403,0.00022223,0
7.0408,1.2253e-05,0
7.0413,-0.00019957,0
7.0418,-0.00036658,0
7.0423,-0.0004871,0
7.0428,-0.00058042,0
7.0434,-0.00064454,0
7.0439,-0.00064353,0
7.0444,-0.00056565,0
7.0449,-0.00044363,0
7.0454,-0.00032663,0
7.046,-0.00025463,0
7.0465,-0.00024237,0
7.047,-0.00027813,0
7.0475,-0.0003268,0
7.048,-0.00034426,0
7.0486,-0.00031002,0
7.0491,-0.00024254,0
7.0496,-0.00017725,0
7.0501,-0.00012337,0
7.0506,-6.5293e-05,0
7.0512,1.8463e-06,0
7.0517,5.9922e-05,0
7.0522,0.00010323,0
7.0527,0.00015358,0
7.0532,0.00022223,0
7.0537,0.00028685,0
7.0543,0.00031824,0
7.0548,0.00031405,0
7.0553,0.0002845,0
7.0558,0.00024288,0
7.0563,0.00021267,0
7.0569,0.00020461,0
7.0574,0.00020595,0
7.0579,0.00019454,0
7.0584,0.00016835,0
7.0589,0.00014922,0
7.0595,0.00014586,0
7.06,0.00014318,0
7.0605,0.00013512,0
7.061,0.00012471,0
7.0615,0.00011666,0
7.0621,0.00010977,0
7.0626,0.00010021,0
7.0631,0.00011313,0
7.0636,0.0001744,0
7.0641,0.00024875,0
7.0647,0.00028904,0
7.0652,0.00029239,0
7.0657,0.00028165,0
7.0662,0.00026302,0
7.0667,0.00022542,0
7.0672,0.00018212,0
7.0678,0.0001415,0
7.0683,9.0303e-05,0
7.0688,2.0478e-05,0
7.0693,-4.2298e-05,0
7.0698,-6.7979e-05,0
7.0704,-7.1e-05,0
7.0709,-6.5126e-05,0
7.0714,-4.8508e-05,0
7.0719,-2.0981e-05,0
7.0724,1.1414e-05,0
7.073,3.6423e-05,0
7.0735,5.2873e-05,0
7.074,4.3809e-05,0
7.0745,-1.9806e-05,0
7.075,-0.00012773,0
7.0756,-0.00023482,0
7.0761,-0.00031153,0
7.0766,-0.00035366,0
7.0771,-0.00036155,0
7.0776,-0.00034124,0
7.0782,-0.00031069,0
7.0787,-0.00027712,0
7.0792,-0.00022274,0
7.0797,-0.00014234,0
7.0802,-5.8747e-05,0
7.0808,1.0071e-05,0
7.0813,7.335e-05,0
7.0818,0.0001378,0
7.0823,0.00018883,0
7.0828,0.00020931,0
7.0833,0.0001989,0
7.0839,0.00017087,0
7.0844,0.00016197,0
7.0849,0.00021233,0
7.0854,0.0002788,0
7.0859,0.00030045,0
7.0865,0.00027913,0
7.087,0.00025429,0
7.0875,0.00022828,0
7.088,0.00015492,0
7.0885,1.0239e-05,0
7.0891,-0.00016315,0
7.0896,-0.0002934,0
7.0901,-0.00034376,0
7.0906,-0.00032966,0
7.0911,-0.00027108,0
7.0917,-0.00019185,0
7.0922,-0.00013294,0
7.0927,-0.00010222,0
7.0932,-7.8386e-05,0
7.0937,-5.2705e-05,0
7.0942,-3.0716e-05,0
7.0948,-1.8967e-05,0
7.0953,-1.4939e-05,0
7.0958,-8.0568e-06,0
7.0963,1.9471e-05,0
7.0968,0.00010004,0
7.0974,0.00025748,0
7.0979,0.0004307,0
7.0984,0.00052453,0
7.0989,0.00052889,0
7.0994,0.00051463,0
7.1,0.00052587,0
7.1005,0.00053024,0
7.101,0.00046444,0
7.1015,0.00031807,0
7.102,0.0001425,0
7.1026,-2.9541e-05,0
7.1031,-0.00018698,0
7.1036,-0.00032328,0
7.1041,-0.00042113,0
7.1046,-0.0004678,0
7.1052,-0.00046796,0
7.1057,-0.0004166,0
7.1062,-0.00030347,0
7.1067,-0.00016735,0
7.1072,-6.6636e-05,0
7.1078,-4.8676e-06,0
7.1083,3.508e-05,0
7.1088,5.7572e-05,0
7.1093,7.3014e-05,0
7.1098,8.9128e-05,0
7.1103,7.7546e-05,0
7.1109,1.7456e-05,0
7.1114,-7.6707e-05,0
7.1119,-0.00015996,0
7.1124,-0.00020562,0
7.1129,-0.00022811,0
7.1135,-0.00023952,0
7.114,-0.00021736,0
7.1145,-0.00016818,0
7.115,-0.00011817,0
7.1155,-7.7211e-05,0
7.1161,-3.3066e-05,0
7.1166,2.031e-05,0
7.1171,6.6972e-05,0
7.1176,9.3828e-05,0
7.1181,9.4835e-05,0
7.1187,7.3686e-05,0
7.1192,4.8173e-05,0
7.1197,2.9374e-05,0
7.1202,1.4939e-05,0
7.1207,1.8463e-06,0
7.1212,-2.182e-06,0
7.1218,1.8631e-05,0
7.1223,5.0523e-05,0
7.1228,6.8147e-05,0
7.1233,6.9657e-05,0
7.1238,6.4286e-05,0
7.1244,5.5055e-05,0
7.1249,5.2201e-05,0
7.1254,7.4693e-05,0
7.1259,0.00013948,0
7.1264,0.00023851,0
7.127,0.00032663,0
7.1275,0.00035836,0
7.128,0.00032747,0
7.1285,0.00025631,0
7.129,0.00016634,0
7.1296,7.0497e-05,0
7.1301,-1.796e-05,0
7.1306,-8.3757e-05,0
7.1311,-0.00012387,0
7.1316,-0.00014922,0
7.1322,-0.00015996,0
7.1327,-0.00014704,0
7.1332,-0.0001034,0
7.1337,-1.9638e-05,0
7.1342,8.3085e-05,0
7.1348,0.00015492,0
7.1353,0.00018447,0
7.1358,0.00018782,0
7.1363,0.000166,0
7.1368,0.00010893,0
7.1373,2.9877e-05,0
7.1379,-3.8102e-05,0
7.1384,-7.6036e-05,0
7.1389,-8.2918e-05,0
7.1394,-5.304e-05,0
7.1399,-1.6785e-07,0
7.1405,3.6759e-05,0
7.141,3.0549e-05,0
7.1415,-3.6927e-06,0
7.142,-4.2802e-05,0
7.1425,-7.7714e-05,0
7.1431,-0.00011028,0
7.1436,-0.0001378,0
7.1441,-0.00013948,0
7.1446,-0.00010692,0
7.1451,-5.9754e-05,0
7.1457,-1.5946e-05,0
7.1462,3.2059e-05,0
7.1467,9.7856e-05,0
7.1472,0.0001556,0
7.1477,0.00017339,0
7.1482,0.00016466,0
7.1488,0.00015123,0
7.1493,0.00013864,0
7.1498,0.00012941,0
7.1503,0.00012035,0
7.1508,0.00010625,0
7.1514,8.8792e-05,0
7.1519,6.7979e-05,0
7.1524,4.448e-05,0
7.1529,2.1988e-05,0
7.1534,4.1962e-06,0
7.154,-4.6998e-06,0
7.1545,-4.5319e-06,0
7.155,-6.714e-07,0
7.1555,8.5603e-06,0
7.156,1.9135e-05,0
7.1566,1.4099e-05,0
7.1571,-2.5177e-06,0
7.1576,-1.4939e-05,0
7.1581,-1.9806e-05,0
7.1586,-2.8702e-05,0
7.1592,-5.5222e-05,0
7.1597,-9.2653e-05,0
7.1602,-0.00010709,0
7.1607,-8.8121e-05,0
7.1612,-5.8244e-05,0
7.1617,-2.8367e-05,0
7.1623,9.9031e-06,0
7.1628,6.7979e-05,0
7.1633,0.00014687,0
7.1638,0.00022005,0
7.1643,0.00027578,0
7.1649,0.00034224,0
7.1654,0.00042416,0
7.1659,0.00049264,0
7.1664,0.00052789,0
7.1669,0.00053259,0
7.1675,0.00048928,0
7.168,0.00037514,0
7.1685,0.0002276,0
7.169,0.00010188,0
7.1695,3.8102e-05,0
7.1701,2.8534e-06,0
7.1706,-7.9393e-05,0
7.1711,-0.00021233,0
7.1716,-0.0003639,0
7.1721,-0.00051698,0
7.1727,-0.00067005,0
7.1732,-0.00079997,0
7.1737,-0.00085838,0
7.1742,-0.00083488,0
7.1747,-0.00074206,0
7.1753,-0.00059268,0
7.1758,-0.00041291,0
7.1763,-0.00024724,0
7.1768,-0.00011917,0
7.1773,-3.2395e-05,0
7.1778,9.7353e-06,0
7.1784,1.2421e-05,0
7.1789,-7.2175e-06,0
7.1794,-2.9709e-05,0
7.1799,-4.7501e-05,0
7.1804,-6.009e-05,0
7.181,-6.3615e-05,0
7.1815,-5.0523e-05,0
7.182,-2.2995e-05,0
7.1825,1.3931e-05,0
7.183,5.2033e-05,0
7.1836,8.896e-05,0
7.1841,0.00012992,0
7.1846,0.00017339,0
7.1851,0.00020494,0
7.1856,0.00022274,0
7.1862,0.00023751,0
7.1867,0.00025765,0
7.1872,0.00028551,0
7.1877,0.00031002,0
7.1882,0.00032647,0
7.1887,0.00031908,0
7.1893,0.00027947,0
7.1898,0.00022408,0
7.1903,0.00015811,0
7.1908,8.896e-05,0
7.1913,4.1794e-05,0
7.1919,2.6017e-05,0
7.1924,3.9445e-05,0
7.1929,6.5126e-05,0
7.1934,9.5842e-05,0
7.1939,0.00015341,0
7.1945,0.00024892,0
7.195,0.00034208,0
7.1955,0.0003879,0
7.196,0.0003926,0
7.1965,0.0003931,0
7.1971,0.0004265,0
7.1976,0.00046377,0
7.1981,0.00042348,0
7.1986,0.00028853,0
7.1991,0.00011565,0
7.1997,-4.3473e-05,0
7.2002,-0.00017977,0
7.2007,-0.0002882,0
7.2012,-0.00036709,0
7.2017,-0.00041761,0
7.2023,-0.00043557,0
7.2028,-0.00041375,0
7.2033,-0.00036104,0
7.2038,-0.00030062,0
7.2043,-0.00025748,0
7.2048,-0.00024271,0
7.2054,-0.00024053,0
7.2059,-0.00021669,0
7.2064,-0.000165,0
7.2069,-0.00010994,0
7.2074,-7.0832e-05,0
7.208,-4.0787e-05,0
7.2085,-1.1749e-05,0
7.209,1.0575e-05,0
7.2095,2.4674e-05,0
7.21,4.5151e-05,0
7.2106,8.5771e-05,0
7.2111,0.00014855,0
7.2116,0.00024086,0
7.2121,0.00034292,0
7.2126,0.00040804,0
7.2132,0.00041711,0
7.2137,0.0003832,0
7.2142,0.00032663,0
7.2147,0.00024674,0
7.2152,0.00012773,0
7.2157,-2.1317e-05,0
7.2163,-0.00015694,0
7.2168,-0.00025446,0
7.2173,-0.00031908,0
7.2178,-0.00034661,0
7.2183,-0.00032882,0
7.2189,-0.0002845,0
7.2194,-0.0002323,0
7.2199,-0.00017305,0
7.2204,-0.00010574,0
7.2209,-4.213e-05,0
7.2215,-6.714e-07,0
7.222,1.4267e-05,0
7.2225,1.5946e-05,0
7.223,1.6281e-05,0
7.2235,1.7288e-05,0
7.2241,1.9974e-05,0
7.2246,2.7192e-05,0
7.2251,4.5151e-05,0
7.2256,6.6804e-05,0
7.2261,8.4596e-05,0
7.2267,9.5506e-05,0
7.2272,0.00010356,0
7.2277,0.00011363,0
7.2282,0.00012773,0
7.2287,0.00014485,0
7.2293,0.00017154,0
7.2298,0.00020528,0
7.2303,0.00023751,0
7.2308,0.00025228,0
7.2313,0.00024221,0
7.2318,0.00022274,0
7.2324,0.00021921,0
7.2329,0.00023835,0
7.2334,0.0002506,0
7.2339,0.00022072,0
7.2344,0.00015425,0
7.235,8.3421e-05,0
7.2355,1.1582e-05,0
7.236,-8.0735e-05,0
7.2365,-0.00018497,0
7.237,-0.0002647,0
7.2376,-0.00029827,0
7.2381,-0.00027242,0
7.2386,-0.00018698,0
7.2391,-8.7617e-05,0
7.2396,-1.3596e-05,0
7.2402,3.5416e-05,0
7.2407,5.8915e-05,0
7.2412,5.6901e-05,0
7.2417,3.0716e-05,0
7.2422,-1.2253e-05,0
7.2428,-5.1194e-05,0
7.2433,-6.5797e-05,0
7.2438,-4.3473e-05,0
7.2443,2.5177e-06,0
7.2448,4.7669e-05,0
7.2453,8.7785e-05,0
7.2459,0.0001133,0
7.2464,0.00010188,0
7.2469,5.6901e-05,0
7.2474,-8.5603e-06,0
7.2479,-9.2149e-05,0
7.2485,-0.00016768,0
7.249,-0.0002078,0
7.2495,-0.00021602,0
7.25,-0.00020897,0
7.2505,-0.00018212,0
7.2511,-0.0001091,0
7.2516,3.8605e-06,0
7.2521,0.00010994,0
7.2526,0.00017272,0
7.2531,0.00019101,0
7.2537,0.00018312,0
7.2542,0.00016332,0
7.2547,0.00013008,0
7.2552,7.9057e-05,0
7.2557,2.0981e-05,0
7.2562,-3.4241e-05,0
7.2568,-8.51e-05,0
7.2573,-0.00012287,0
7.2578,-0.00013462,0
7.2583,-0.00013545,0
7.2588,-0.0001509,0
7.2594,-0.00017205,0
7.2599,-0.00015895,0
7.2604,-9.836e-05,0
7.2609,-2.3163e-05,0
7.2614,2.9374e-05,0
7.262,5.5894e-05,0
7.2625,7.1504e-05,0
7.263,8.4764e-05,0
7.2635,0.00010574,0
7.264,0.00015073,0
7.2646,0.00022374,0
7.2651,0.00028266,0
7.2656,0.00028182,0
7.2661,0.00025547,0
7.2666,0.00026268,0
7.2672,0.00028904,0
7.2677,0.00027427,0
7.2682,0.0002083,0
7.2687,0.0001514,0
7.2692,0.00012102,0
7.2698,6.949e-05,0
7.2703,-2.9709e-05,0
7.2708,-0.0001462,0
7.2713,-0.00022878,0
7.2718,-0.00026017,0
7.2723,-0.00025933,0
7.2729,-0.00023902,0
7.2734,-0.00019857,0
7.2739,-0.00015325,0
7.2744,-0.00010726,0
7.2749,-5.6565e-05,0
7.2755,-5.0355e-06,0
7.276,3.5752e-05,0
7.2765,5.0019e-05,0
7.277,3.2395e-05,0
7.2775,-4.5319e-06,0
7.2781,-5.0355e-05,0
7.2786,-8.8289e-05,0
7.2791,-0.00010088,0
7.2796,-9.2149e-05,0
7.2801,-7.5532e-05,0
7.2807,-5.5894e-05,0
7.2812,-2.887e-05,0
7.2817,6.5461e-06,0
7.2822,4.0116e-05,0
7.2827,7.5364e-05,0
7.2832,0.00011649,0
7.2838,0.00015056,0
7.2843,0.00016919,0
7.2848,0.00017641,0
7.2853,0.00018212,0
7.2858,0.00019084,0
7.2864,0.00021065,0
7.2869,0.00023818,0
7.2874,0.00025177,0
7.2879,0.00023566,0
7.2884,0.00019924,0
7.289,0.00015341,0
7.2895,9.4331e-05,0
7.29,1.6281e-05,0
7.2905,-6.0761e-05,0
7.291,-0.00011095,0
7.2916,-0.00013562,0
7.2921,-0.00014015,0
7.2926,-0.0001227,0
7.2931,-0.00010054,0
7.2936,-0.00010541,0
7.2942,-0.00013495,0
7.2947,-0.00015845,0
7.2952,-0.00013327,0
7.2957,-3.4745e-05,0
7.2962,8.4092e-05,0
7.2968,0.00016063,0
7.2973,0.00019437,0
7.2978,0.00020729,0
7.2983,0.00022643,0
7.2988,0.00027477,0
7.2993,0.00031673,0
7.2999,0.00031136,0
7.3004,0.00027712,0
7.3009,0.00023986,0
7.3014,0.00018245,0
7.3019,0.00010994,0
7.3025,3.1724e-05,0
7.303,-6.7643e-05,0
7.3035,-0.00017943,0
7.304,-0.00026889,0
7.3045,-0.00032244,0
7.3051,-0.00036071,0
7.3056,-0.00038622,0
7.3061,-0.00037615,0
7.3066,-0.00032915,0
7.3071,-0.00027712,0
7.3077,-0.00022374,0
7.3082,-0.00015811,0
7.3087,-0.00010256,0
7.3092,-7.3518e-05,0
7.3097,-6.5293e-05,0
7.3102,-6.5629e-05,0
7.3108,-5.4047e-05,0
7.3113,-2.6352e-05,0
7.3118,5.2033e-06,0
7.3123,3.8773e-05,0
7.3128,8.9464e-05,0
7.3134,0.0001697,0
7.3139,0.00024355,0
7.3144,0.00026973,0
7.3149,0.00025278,0
7.3154,0.00023465,0
7.316,0.00023348,0
7.3165,0.00021703,0
7.317,0.00016651,0
7.3175,0.00010239,0
7.318,4.683e-05,0
7.3186,2.5177e-06,0
7.3191,-3.9445e-05,0
7.3196,-6.7811e-05,0
7.3201,-7.9057e-05,0
7.3206,-9.131e-05,0
7.3212,-0.00011598,0
7.3217,-0.00013982,0
7.3222,-0.0001425,0
7.3227,-0.00012941,0
7.3232,-0.00011531,0
7.3238,-9.5674e-05,0
7.3243,-6.1097e-05,0
7.3248,-1.4939e-05,0
7.3253,3.3066e-05,0
7.3258,7.2343e-05,0
7.3263,9.5842e-05,0
7.3269,0.00010893,0
7.3274,0.0001274,0
7.3279,0.00015912,0
7.3284,0.00018849,0
7.3289,0.0001984,0
7.3295,0.00019588,0
7.33,0.00019051,0
7.3305,0.00017775,0
7.331,0.00015291,0
7.3315,0.00011833,0
7.3321,8.1743e-05,0
7.3326,5.4047e-05,0
7.3331,4.4984e-05,0
7.3336,4.7333e-05,0
7.3341,5.0187e-05,0
7.3347,4.7166e-05,0
7.3352,3.508e-05,0
7.3357,1.8631e-05,0
7.3362,4.1962e-06,0
7.3367,-1.1078e-05,0
7.3373,-2.9709e-05,0
7.3378,-4.4144e-05,0
7.3383,-3.2898e-05,0
7.3388,2.6184e-05,0
7.3393,0.00011363,0
7.3398,0.00018648,0
7.3404,0.00023818,0
7.3409,0.00030062,0
7.3414,0.00037984,0
7.3419,0.00044799,0
7.3424,0.00047115,0
7.343,0.00042818,0
7.3435,0.0003221,0
7.344,0.00017137,0
7.3445,2.3499e-06,0
7.345,-0.00015006,0
7.3456,-0.00025866,0
7.3461,-0.00031891,0
7.3466,-0.00035148,0
7.3471,-0.00037296,0
7.3476,-0.0003837,0
7.3482,-0.00039092,0
7.3487,-0.00040334,0
7.3492,-0.00041291,0
7.3497,-0.00040536,0
7.3502,-0.00037313,0
7.3507,-0.00031186,0
7.3513,-0.00023532,0
7.3518,-0.00016667,0
7.3523,-0.00011699,0
7.3528,-8.4764e-05,0
7.3533,-6.5965e-05,0
7.3539,-4.7837e-05,0
7.3544,-7.5532e-06,0
7.3549,5.0523e-05,0
7.3554,0.00010121,0
7.3559,0.00013059,0
7.3565,0.00014821,0
7.357,0.00016332,0
7.3575,0.00019051,0
7.358,0.00023113,0
7.3585,0.00025698,0
7.3591,0.00024791,0
7.3596,0.00022374,0
7.3601,0.00021401,0
7.3606,0.00024288,0
7.3611,0.00033889,0
7.3617,0.0004537,0
7.3622,0.00047552,0
7.3627,0.00037632,0
7.3632,0.00023818,0
7.3637,0.00013294,0
7.3643,4.4144e-05,0
7.3648,-6.4958e-05,0
7.3653,-0.00018665,0
7.3658,-0.00028014,0
7.3663,-0.00032126,0
7.3668,-0.00032193,0
7.3674,-0.0003117,0
7.3679,-0.00029021,0
7.3684,-0.00026638,0
7.3689,-0.00028165,0
7.3694,-0.00032898,0
7.37,-0.00034929,0
7.3705,-0.0003174,0
7.371,-0.00025782,0
7.3715,-0.00020595,0
7.372,-0.00016886,0
7.3726,-0.00014284,0
7.3731,-0.00012639,0
7.3736,-0.00010927,0
7.3741,-8.3421e-05,0
7.3746,-4.448e-05,0
7.3752,3.8605e-06,0
7.3757,5.0187e-05,0
7.3762,9.0974e-05,0
7.3767,0.00013075,0
7.3772,0.00016953,0
7.3777,0.00020427,0
7.3783,0.00024321,0
7.3788,0.0002887,0
7.3793,0.0003305,0
7.3798,0.00035534,0
7.3803,0.00034292,0
7.3809,0.00028417,0
7.3814,0.00020343,0
7.3819,0.00013999,0
7.3824,0.00010994,0
7.3829,0.0001039,0
7.3835,0.00010692,0
7.384,0.00011196,0
7.3845,0.00011095,0
7.385,9.987e-05,0
7.3855,7.5532e-05,0
7.3861,3.9445e-05,0
7.3866,2.182e-06,0
7.3871,-1.561e-05,0
7.3876,-6.0426e-06,0
7.3881,1.5274e-05,0
7.3887,4.213e-05,0
7.3892,7.4525e-05,0
7.3897,9.987e-05,0
7.3902,9.8695e-05,0
7.3907,6.5126e-05,0
7.3913,2.266e-05,0
7.3918,-9.0639e-06,0
7.3923,-2.9709e-05,0
7.3928,-3.9445e-05,0
7.3933,-3.2731e-05,0
7.3938,-5.0355e-07,0
7.3944,5.623e-05,0
7.3949,0.0001185,0
7.3954,0.00017842,0
7.3959,0.00023616,0
7.3964,0.00027309,0
7.397,0.00025765,0
7.3975,0.00018648,0
7.398,0.00010927,0
7.3985,6.244e-05,0
7.399,2.9374e-05,0
7.3996,-1.7624e-05,0
7.4001,-7.3014e-05,0
7.4006,-9.9702e-05,0
7.4011,-9.3828e-05,0
7.4016,-9.4499e-05,0
7.4022,-0.00010323,0
7.4027,-0.00010188,0
7.4032,-9.0471e-05,0
7.4037,-8.0232e-05,0
7.4042,-7.9728e-05,0
7.4047,-6.8818e-05,0
7.4053,-2.3331e-05,0
7.4058,4.0787e-05,0
7.4063,8.0064e-05,0
7.4068,7.6371e-05,0
7.4073,4.918e-05,0
7.4079,1.4099e-05,0
7.4084,-1.561e-05,0
7.4089,-1.8967e-05,0
7.4094,-1.2757e-05,0
7.4099,-3.1388e-05,0
7.4105,-7.7043e-05,0
7.411,-0.00012438,0
7.4115,-0.00016147,0
7.412,-0.00020427,0
7.4125,-0.00026235,0
7.4131,-0.00031186,0
7.4136,-0.00032126,0
7.4141,-0.00029474,0
7.4146,-0.00026117,0
7.4151,-0.00021669,0
7.4157,-0.00014687,0
7.4162,-7.8218e-05,0
7.4167,-2.7359e-05,0
7.4172,1.5274e-05,0
7.4177,6.0258e-05,0
7.4182,0.00010793,0
7.4188,0.0001561,0
7.4193,0.00019487,0
7.4198,0.00021468,0
7.4203,0.00021585,0
7.4208,0.00021468,0
7.4214,0.00023079,0
7.4219,0.00026235,0
7.4224,0.00028551,0
7.4229,0.00027108,0
7.4234,0.00021804,0
7.424,0.00015828,0
7.4245,0.00012203,0
7.425,0.00011833,0
7.4255,0.0001274,0
7.426,0.00012807,0
7.4266,0.00010776,0
7.4271,6.7475e-05,0
7.4276,1.1917e-05,0
7.4281,-4.6494e-05,0
7.4286,-9.2149e-05,0
7.4292,-0.00010658,0
7.4297,-9.8863e-05,0
7.4302,-9.6849e-05,0
7.4307,-9.4835e-05,0
7.4312,-7.6707e-05,0
7.4318,-5.5222e-05,0
7.4323,-4.6326e-05,0
7.4328,-4.5655e-05,0
7.4333,-4.2634e-05,0
7.4338,-3.7263e-05,0
7.4343,-3.2731e-05,0
7.4349,-3.8773e-05,0
7.4354,-6.4118e-05,0
7.4359,-0.00010088,0
7.4364,-0.00013344,0
7.4369,-0.00014653,0
7.4375,-0.00012018,0
7.438,-6.2943e-05,0
7.4385,2.8534e-06,0
7.439,7.2847e-05,0
7.4395,0.00014687,0
7.4401,0.0002266,0
7.4406,0.00031925,0
7.4411,0.00040133,0
7.4416,0.00043355,0
7.4421,0.00039327,0
7.4427,0.0003023,0
7.4432,0.00020729,0
7.4437,0.00013294,0
7.4442,8.1743e-05,0
7.4447,3.6423e-05,0
7.4452,-1.8128e-05,0
7.4458,-7.5029e-05,0
7.4463,-0.00012253,0
7.4468,-0.0001566,0
7.4473,-0.00018144,0
7.4478,-0.00020125,0
7.4484,-0.00020427,0
7.4489,-0.00016869,0
7.4494,-0.00010574,0
7.4499,-5.2201e-05,0
7.4504,-2.3331e-05,0
7.451,-2.7527e-05,0
7.4515,-7.0329e-05,0
7.452,-0.00012505,0
7.4525,-0.00015476,0
7.453,-0.0001472,0
7.4536,-0.00011414,0
7.4541,-7.7211e-05,0
7.4546,-4.1291e-05,0
7.4551,1.4267e-05,0
7.4556,0.00010726,0
7.4562,0.00020914,0
7.4567,0.00027007,0
7.4572,0.00028148,0
7.4577,0.00027276,0
7.4582,0.00026738,0
7.4588,0.00025597,0
7.4593,0.000213,0
7.4598,0.00013646,0
7.4603,4.4984e-05,0
7.4608,-4.7837e-05,0
7.4613,-0.00012253,0
7.4619,-0.00015879,0
7.4624,-0.00016667,0
7.4629,-0.00016114,0
7.4634,-0.00013999,0
7.4639,-9.2653e-05,0
7.4645,-2.7695e-05,0
7.465,1.8128e-05,0
7.4655,1.4603e-05,0
7.466,-2.0813e-05,0
7.4665,-4.5151e-05,0
7.4671,-3.1052e-05,0
7.4676,5.8747e-06,0
7.4681,3.5584e-05,0
7.4686,5.0858e-05,0
7.4691,7.2343e-05,0
7.4697,9.987e-05,0
7.4702,0.00010994,0
7.4707,0.00010121,0
7.4712,8.3757e-05,0
7.4717,7.2343e-05,0
7.4722,6.7979e-05,0
7.4728,7.5029e-05,0
7.4733,9.0806e-05,0
7.4738,8.9464e-05,0
7.4743,4.9012e-05,0
7.4748,-1.091e-05,0
7.4754,-5.7237e-05,0
7.4759,-8.9799e-05,0
7.4764,-0.00011279,0
7.4769,-0.00012068,0
7.4774,-0.00011061,0
7.478,-7.8218e-05,0
7.4785,-3.5416e-05,0
7.479,-4.3641e-06,0
7.4795,2.4002e-05,0
7.48,7.2343e-05,0
7.4806,0.00013193,0
7.4811,0.00016516,0
7.4816,0.00015526,0
7.4821,0.00012471,0
7.4826,0.00011196,0
7.4832,0.00012605,0
7.4837,0.00014788,0
7.4842,0.00016365,0
7.4847,0.00015962,0
7.4852,0.00012589,0
7.4858,8.0232e-05,0
7.4863,4.683e-05,0
7.4868,3.0381e-05,0
7.4873,1.5946e-05,0
7.4878,-8.3925e-06,0
7.4883,-3.6591e-05,0
7.4889,-4.7166e-05,0
7.4894,-4.4144e-05,0
7.4899,-5.774e-05,0
7.4904,-0.00010558,0
7.4909,-0.00016466,0
7.4915,-0.0001895,0
7.492,-0.00017893,0
7.4925,-0.0001519,0
7.493,-0.00011531,0
7.4935,-7.7379e-05,0
7.4941,-5.5894e-05,0
7.4946,-4.7501e-05,0
7.4951,-3.6759e-05,0
7.4956,-2.3331e-05,0
7.4961,-8.2246e-06,0
7.4967,1.7456e-05,0
7.4972,5.1362e-05,0
7.4977,8.5771e-05,0
7.4982,0.00012203,0
7.4987,0.00015761,0
7.4992,0.00018631,0
7.4998,0.00020578,0
7.5003,0.00021736,0
7.5008,0.00020108,0
7.5013,0.00014519,0
7.5018,6.2943e-05,0
7.5024,-1.6281e-05,0
7.5029,-6.9993e-05,0
7.5034,-0.00010507,0
7.5039,-0.0001279,0
7.5044,-0.00013948,0
7.505,-0.00014905,0
7.5055,-0.00016667,0
7.506,-0.00018463,0
7.5065,-0.00018866,0
7.507,-0.00016432,0
7.5076,-9.6178e-05,0
7.5081,4.6998e-06,0
7.5086,0.00010356,0
7.5091,0.00019185,0
7.5096,0.00027242,0
7.5102,0.00031673,0
7.5107,0.0003164,0
7.5112,0.00030263,0
7.5117,0.00028148,0
7.5122,0.00021653,0
7.5127,0.00010289,0
7.5133,-1.9135e-05,0
7.5138,-0.00011598,0
7.5143,-0.00017171,0
7.5148,-0.00018228,0
7.5153,-0.0001603,0
7.5159,-0.00012068,0
7.5164,-7.1504e-05,0
7.5169,-1.6281e-05,0
7.5174,3.3402e-05,0
7.5179,5.2201e-05,0
7.5185,2.266e-05,0
7.519,-3.2563e-05,0
7.5195,-8.2078e-05,0
7.52,-0.00010994,0
7.5205,-0.00012689,0
7.5211,-0.0001467,0
7.5216,-0.00016869,0
7.5221,-0.00018279,0
7.5226,-0.00017624,0
7.5231,-0.00013579,0
7.5237,-5.8915e-05,0
7.5242,4.4312e-05,0
7.5247,0.0001754,0
7.5252,0.00033519,0
7.5257,0.00046897,0
7.5263,0.00050925,0
7.5268,0.00045571,0
7.5273,0.00035164,0
7.5278,0.00022542,0
7.5283,8.9128e-05,0
7.5288,-3.6088e-05,0
7.5294,-0.00011548,0
7.5299,-0.00014183,0
7.5304,-0.00013545,0
7.5309,-0.0001133,0
7.5314,-7.5364e-05,0
7.532,-2.1653e-05,0
7.5325,2.8199e-05,0
7.533,4.1459e-05,0
7.5335,1.6617e-05,0
7.534,-2.2324e-05,0
7.5346,-8.2414e-05,0
7.5351,-0.00017255,0
7.5356,-0.0002459,0
7.5361,-0.00025849,0
7.5366,-0.00021938,0
7.5372,-0.00016197,0
7.5377,-0.00010726,0
7.5382,-6.0594e-05,0
7.5387,-2.0478e-05,0
7.5392,2.9374e-05,0
7.5397,8.8289e-05,0
7.5403,0.00012874,0
7.5408,0.00013545,0
7.5413,0.00012035,0
7.5418,0.00010037,0
7.5423,8.6107e-05,0
7.5429,8.1071e-05,0
7.5434,7.6371e-05,0
7.5439,6.6804e-05,0
7.5444,5.623e-05,0
7.5449,4.7837e-05,0
7.5455,4.2634e-05,0
7.546,4.3641e-05,0
7.5465,5.4719e-05,0
7.547,7.0665e-05,0
7.5475,8.6778e-05,0
7.5481,0.00010054,0
7.5486,0.00010927,0
7.5491,0.00012035,0
7.5496,0.0001368,0
7.5501,0.00015543,0
7.5507,0.00018027,0
7.5512,0.00021233,0
7.5517,0.00025832,0
7.5522,0.00031237,0
7.5527,0.00032714,0
7.5533,0.00027578,0
7.5538,0.00019084,0
7.5543,0.00013327,0
7.5548,0.00011464,0
7.5553,9.0806e-05,0
7.5558,3.8605e-05,0
7.5564,-1.9471e-05,0
7.5569,-6.244e-05,0
7.5574,-0.00010558,0
7.5579,-0.00016802,0
7.5584,-0.00023499,0
7.559,-0.00028081,0
7.5595,-0.00031438,0
7.56,-0.00035836,0
7.5605,-0.00038454,0
7.561,-0.00035349,0
7.5616,-0.0002798,0
7.5621,-0.00020041,0
7.5626,-0.00010893,0
7.5631,-9.9031e-06,0
7.5636,6.244e-05,0
7.5642,0.00010507,0
7.5647,0.00015727,0
7.5652,0.0002135,0
7.5657,0.0002318,0
7.5662,0.00021199,0
7.5667,0.00019588,0
7.5673,0.00018363,0
7.5678,0.00013881,0
7.5683,5.7572e-05,0
7.5688,-2.887e-05,0
7.5693,-0.00010054,0
7.5699,-0.000165,0
7.5704,-0.00022676,0
7.5709,-0.00025849,0
7.5714,-0.00024775,0
7.5719,-0.00021871,0
7.5725,-0.00019185,0
7.573,-0.00016315,0
7.5735,-0.00010776,0
7.574,-2.0813e-05,0
7.5745,5.7237e-05,0
7.5751,9.6513e-05,0
7.5756,0.00011145,0
7.5761,0.0001274,0
7.5766,0.00014418,0
7.5771,0.00014318,0
7.5777,0.00012538,0
7.5782,0.00010491,0
7.5787,8.4428e-05,0
7.5792,5.5558e-05,0
7.5797,2.5681e-05,0
7.5803,1.7624e-05,0
7.5808,2.6184e-05,0
7.5813,3.0549e-05,0
7.5818,2.3667e-05,0
7.5823,1.7121e-05,0
7.5828,1.9806e-05,0
7.5834,2.8534e-05,0
7.5839,4.5487e-05,0
7.5844,7.3014e-05,0
7.5849,9.7353e-05,0
7.5854,0.00010524,0
7.586,9.6513e-05,0
7.5865,8.0064e-05,0
7.587,6.1097e-05,0
7.5875,4.6326e-05,0
7.588,3.7766e-05,0
7.5886,3.2059e-05,0
7.5891,3.5584e-05,0
7.5896,4.8173e-05,0
7.5901,6.7811e-05,0
7.5906,8.9799e-05,0
7.5912,0.00010507,0
7.5917,0.0001039,0
7.5922,8.9128e-05,0
7.5927,7.57e-05,0
7.5932,7.2343e-05,0
7.5938,7.57e-05,0
7.5943,7.6707e-05,0
7.5948,7.8721e-05,0
7.5953,9.4331e-05,0
7.5958,0.00011582,0
7.5963,0.00012924,0
7.5969,0.00014083,0
7.5974,0.00015996,0
7.5979,0.00019387,0
7.5984,0.00023415,0
7.5989,0.00024657,0
7.5995,0.00021736,0
7.6,0.00015761,0
7.6005,8.3085e-05,0
7.601,2.182e-06,0
7.6015,-7.8218e-05,0
7.6021,-0.00015392,0
7.6026,-0.00021636,0
7.6031,-0.00025261,0
7.6036,-0.00025328,0
7.6041,-0.00022156,0
7.6047,-0.00017339,0
7.6052,-0.00014032,0
7.6057,-0.00014032,0
7.6062,-0.00015442,0
7.6067,-0.00015358,0
7.6072,-0.00014166,0
7.6078,-0.00014418,0
7.6083,-0.00015073,0
7.6088,-0.00012522,0
7.6093,-6.3783e-05,0
7.6098,1.1917e-05,0
7.6104,8.9464e-05,0
7.6109,0.00015862,0
7.6114,0.00021099,0
7.6119,0.00028585,0
7.6124,0.00041811,0
7.613,0.0005299,0
7.6135,0.0005252,0
7.614,0.00041643,0
7.6145,0.00027678,0
7.615,0.0001274,0
7.6156,-4.3137e-05,0
7.6161,-0.00021199,0
7.6166,-0.00034879,0
7.6171,-0.00044413,0
7.6176,-0.00050909,0
7.6182,-0.00054719,0
7.6187,-0.00053292,0
7.6192,-0.00046511,0
7.6197,-0.00039663,0
7.6202,-0.00035215,0
7.6208,-0.00030129,0
7.6213,-0.00023046,0
7.6218,-0.00016164,0
7.6223,-0.00010222,0
7.6228,-4.0284e-05,0
7.6233,2.7863e-05,0
7.6239,8.5771e-05,0
7.6244,0.00012589,0
7.6249,0.00015946,0
7.6254,0.00019252,0
7.6259,0.00023616,0
7.6265,0.0003221,0
7.627,0.0004307,0
7.6275,0.00050858,0
7.628,0.00054366,0
7.6285,0.00057153,0
7.6291,0.00060409,0
7.6296,0.00057119,0
7.6301,0.00042785,0
7.6306,0.00022139,0
7.6311,3.1388e-05,0
7.6317,-9.987e-05,0
7.6322,-0.00018984,0
7.6327,-0.00025496,0
7.6332,-0.0002929,0
7.6337,-0.00032026,0
7.6342,-0.00034879,0
7.6348,-0.00035987,0
7.6353,-0.00035517,0
7.6358,-0.00036205,0
7.6363,-0.00037279,0
7.6368,-0.00035282,0
7.6374,-0.00028249,0
7.6379,-0.00018212,0
7.6384,-8.51e-05,0
7.6389,-6.714e-06,0
7.6394,5.3544e-05,0
7.64,9.5506e-05,0
7.6405,0.000118,0
7.641,0.00012303,0
7.6415,0.00011212,0
7.642,8.9799e-05,0
7.6426,6.8147e-05,0
7.6431,6.0258e-05,0
7.6436,7.2343e-05,0
7.6441,9.7185e-05,0
7.6446,0.00012522,0
7.6452,0.00015459,0
7.6457,0.00018715,0
7.6462,0.00021736,0
7.6467,0.00023415,0
7.6472,0.00023012,0
7.6478,0.00021518,0
7.6483,0.00021199,0
7.6488,0.00021468,0
7.6493,0.00020897,0
7.6498,0.00019286,0
7.6503,0.00017708,0
7.6509,0.0001556,0
7.6514,0.00011934,0
7.6519,7.1672e-05,0
7.6524,1.5778e-05,0
7.6529,-2.8199e-05,0
7.6535,-4.3137e-05,0
7.654,-4.062e-05,0
7.6545,-2.8702e-05,0
7.655,-1.5274e-05,0
7.6555,-3.8605e-06,0
7.6561,1.0071e-06,0
7.6566,-2.5177e-06,0
7.6571,-3.5248e-06,0
7.6576,8.5603e-06,0
7.6581,2.8702e-05,0
7.6587,4.5991e-05,0
7.6592,5.6733e-05,0
7.6597,6.5629e-05,0
7.6602,8.9128e-05,0
7.6607,0.00013545,0
7.6612,0.00018833,0
7.6618,0.00022139,0
7.6623,0.00021837,0
7.6628,0.00018833,0
7.6633,0.00015291,0
7.6638,0.00012522,0
7.6644,8.8289e-05,0
7.6649,3.1724e-05,0
7.6654,-2.3331e-05,0
7.6659,-6.5126e-05,0
7.6664,-0.00010877,0
7.667,-0.00015392,0
7.6675,-0.00018447,0
7.668,-0.00018715,0
7.6685,-0.00016684,0
7.669,-0.0001237,0
7.6696,-2.8367e-05,0
7.6701,0.00011565,0
7.6706,0.00023247,0
7.6711,0.00026571,0
7.6716,0.00022861,0
7.6722,0.00017473,0
7.6727,0.00012035,0
7.6732,2.4338e-05,0
7.6737,-0.00012001,0
7.6742,-0.00027057,0
7.6748,-0.00038135,0
7.6753,-0.00043893,0
7.6758,-0.00045554,0
7.6763,-0.0004307,0
7.6768,-0.00036658,0
7.6773,-0.00029407,0
7.6779,-0.00022643,0
7.6784,-0.00014922,0
7.6789,-7.1839e-05,0
7.6794,-3.7766e-05,0
7.6799,-5.6901e-05,0
7.6805,-8.2582e-05,0
7.681,-7.1504e-05,0
7.6815,-2.1988e-05,0
7.682,4.7166e-05,0
7.6825,0.00011884,0
7.6831,0.00018581,0
7.6836,0.00023919,0
7.6841,0.0002751,0
7.6846,0.00028954,0
7.6851,0.00026369,0
7.6857,0.00020511,0
7.6862,0.00015325,0
7.6867,0.0001237,0
7.6872,0.00010289,0
7.6877,5.7237e-05,0
7.6883,-1.326e-05,0
7.6888,-7.9225e-05,0
7.6893,-0.00012656,0
7.6898,-0.00015543,0
7.6903,-0.00016382,0
7.6908,-0.00016265,0
7.6914,-0.00015946,0
7.6919,-0.00015174,0
7.6924,-0.00013428,0
7.6929,-0.00010407,0
7.6934,-6.7979e-05,0
7.694,-4.0452e-05,0
7.6945,-2.4674e-05,0
7.695,-1.3092e-05,0
7.6955,8.3925e-06,0
7.696,4.1459e-05,0
7.6966,8.5771e-05,0
7.6971,0.00014049,0
7.6976,0.00019252,0
7.6981,0.00022861,0
7.6986,0.00026436,0
7.6992,0.00031841,0
7.6997,0.00036104,0
7.7002,0.00035802,0
7.7007,0.00030867,0
7.7012,0.00023516,0
7.7017,0.00015677,0
7.7023,8.3085e-05,0
7.7028,1.3931e-05,0
7.7033,-4.8676e-05,0
7.7038,-9.5842e-05,0
7.7043,-0.00011632,0
7.7049,-0.00011296,0
7.7054,-9.8192e-05,0
7.7059,-8.0735e-05,0
7.7064,-6.3783e-05,0
7.7069,-5.1194e-05,0
7.7075,-3.9445e-05,0
7.708,-2.031e-05,0
7.7085,1.2924e-05,0
7.709,5.6901e-05,0
7.7095,0.00010591,0
7.7101,0.00015157,0
7.7106,0.00019286,0
7.7111,0.00024556,0
7.7116,0.00031002,0
7.7121,0.00036608,0
7.7127,0.00038572,0
7.7132,0.0003503,0
7.7137,0.00027443,0
7.7142,0.00019857,0
7.7147,0.0001368,0
7.7153,8.275e-05,0
7.7158,3.4073e-05,0
7.7163,-2.6017e-05,0
7.7168,-0.00010893,0
7.7173,-0.00020008,0
7.7178,-0.00027829,0
7.7184,-0.00032714,0
7.7189,-0.00034073,0
7.7194,-0.0003305,0
7.7199,-0.00030028,0
7.7204,-0.00024808,0
7.721,-0.00017742,0
7.7215,-0.00010927,0
7.722,-7.3182e-05,0
7.7225,-7.0497e-05,0
7.723,-8.3253e-05,0
7.7236,-9.3996e-05,0
7.7241,-9.3156e-05,0
7.7246,-6.9993e-05,0
7.7251,-3.0381e-05,0
7.7256,3.8605e-06,0
7.7262,2.501e-05,0
7.7267,5.1698e-05,0
7.7272,0.00010256,0
7.7277,0.00015795,0
7.7282,0.00018849,0
7.7287,0.00019722,0
7.7293,0.00019655,0
7.7298,0.00019722,0
7.7303,0.00020847,0
7.7308,0.00022206,0
7.7313,0.00021619,0
7.7319,0.000166,0
7.7324,8.9799e-05,0
7.7329,4.2802e-05,0
7.7334,3.2059e-05,0
7.7339,2.2324e-05,0
7.7345,-3.357e-06,0
7.735,-4.2466e-05,0
7.7355,-8.896e-05,0
7.736,-0.00013059,0
7.7365,-0.00013713,0
7.7371,-0.00012555,0
7.7376,-0.00013848,0
7.7381,-0.00018363,0
7.7386,-0.00023516,0
7.7391,-0.00025748,0
7.7397,-0.00024305,0
7.7402,-0.00021468,0
7.7407,-0.00018682,0
7.7412,-0.00014989,0
7.7417,-0.00010507,0
7.7423,-6.2608e-05,0
7.7428,-2.3163e-05,0
7.7433,9.0639e-06,0
7.7438,3.0045e-05,0
7.7443,3.978e-05,0
7.7448,4.0452e-05,0
7.7454,4.2466e-05,0
7.7459,5.2369e-05,0
7.7464,6.63e-05,0
7.7469,9.9535e-05,0
7.7474,0.00016533,0
7.748,0.00026201,0
7.7485,0.00037296,0
7.749,0.00048055,0
7.7495,0.00055978,0
7.75,0.00058328,0
7.7506,0.00056381,0
7.7511,0.00052587,0
7.7516,0.00046142,0
7.7521,0.00036104,0
7.7526,0.00024288,0
7.7532,0.00013478,0
7.7537,4.3137e-05,0
7.7542,-3.7766e-05,0
7.7547,-0.00012639,0
7.7552,-0.00024472,0
7.7557,-0.00038135,0
7.7563,-0.00050237,0
7.7568,-0.00058546,0
7.7573,-0.00062272,0
7.7578,-0.00059855,0
7.7583,-0.00052386,0
7.7589,-0.00044262,0
7.7594,-0.00038387,0
7.7599,-0.00033301,0
7.7604,-0.00026487,0
7.7609,-0.00018933,0
7.7615,-0.00012706,0
7.762,-7.8721e-05,0
7.7625,-3.9445e-05,0
7.763,-1.2589e-05,0
7.7635,-1.5106e-06,0
7.7641,-3.357e-07,0
7.7646,2.5177e-06,0
7.7651,1.4939e-05,0
7.7656,3.7766e-05,0
7.7661,7.5364e-05,0
7.7667,0.00013814,0
7.7672,0.00020394,0
7.7677,0.00024254,0
7.7682,0.00025228,0
7.7687,0.00025362,0
7.7693,0.00025698,0
7.7698,0.0002548,0
7.7703,0.00023583,0
7.7708,0.00020175,0
7.7713,0.00016936,0
7.7718,0.00015258,0
7.7724,0.0001519,0
7.7729,0.00015711,0
7.7734,0.00015006,0
7.7739,0.00012337,0
7.7744,8.8457e-05,0
7.775,6.5293e-05,0
7.7755,6.6133e-05,0
7.776,8.3085e-05,0
7.7765,9.9199e-05,0
7.777,0.00010323,0
7.7776,9.8863e-05,0
7.7781,8.7114e-05,0
7.7786,6.7979e-05,0
7.7791,4.7837e-05,0
7.7796,3.6591e-05,0
7.7802,3.4577e-05,0
7.7807,3.4745e-05,0
7.7812,3.3402e-05,0
7.7817,3.5752e-05,0
7.7822,4.8173e-05,0
7.7828,8.1407e-05,0
7.7833,0.00013747,0
7.7838,0.00019538,0
7.7843,0.00023851,0
7.7848,0.00026268,0
7.7853,0.00028316,0
7.7859,0.00029625,0
7.7864,0.00028081,0
7.7869,0.00023398,0
7.7874,0.00018833,0
7.7879,0.00017641,0
7.7885,0.00017288,0
7.789,0.0001368,0
7.7895,8.3253e-05,0
7.79,4.213e-05,0
7.7905,7.2175e-06,0
7.7911,-2.6352e-05,0
7.7916,-4.8005e-05,0
7.7921,-5.4551e-05,0
7.7926,-7.2343e-05,0
7.7931,-0.00012807,0
7.7937,-0.00021888,0
7.7942,-0.00031992,0
7.7947,-0.00041308,0
7.7952,-0.00048005,0
7.7957,-0.00049599,0
7.7962,-0.0004631,0
7.7968,-0.00041224,0
7.7973,-0.00035685,0
7.7978,-0.00029558,0
7.7983,-0.0002454,0
7.7988,-0.00022777,0
7.7994,-0.00023667,0
7.7999,-0.00024842,0
7.8004,-0.00024506,0
7.8009,-0.0002135,0
7.8014,-0.00015593,0
7.802,-9.366e-05,0
7.8025,-4.5991e-05,0
7.803,-1.1582e-05,0
7.8035,2.501e-05,0
7.804,7.3518e-05,0
7.8046,0.00013092,0
7.8051,0.00017104,0
7.8056,0.00018178,0
7.8061,0.00017507,0
7.8066,0.00017137,0
7.8072,0.00018245,0
7.8077,0.00019554,0
7.8082,0.00019319,0
7.8087,0.00017523,0
7.8092,0.00015241,0
7.8098,0.0001378,0
7.8103,0.00014217,0
7.8108,0.00016432,0
7.8113,0.00018044,0
7.8118,0.00017574,0
7.8123,0.00016063,0
7.8129,0.00017087,0
7.8134,0.00020377,0
7.8139,0.00021267,0
7.8144,0.00018917,0
7.8149,0.00015996,0
7.8155,0.00013864,0
7.816,0.00012337,0
7.8165,0.00010927,0
7.817,9.9535e-05,0
7.8175,9.4163e-05,0
7.8181,6.865e-05,0
7.8186,-1.5106e-06,0
7.8191,-9.8527e-05,0
7.8196,-0.00018212,0
7.8201,-0.00022727,0
7.8207,-0.00022844,0
7.8212,-0.00018279,0
7.8217,-0.0001044,0
7.8222,-3.2059e-05,0
7.8227,1.0575e-05,0
7.8232,3.1724e-05,0
7.8238,4.7501e-05,0
7.8243,5.153e-05,0
7.8248,3.4241e-05,0
7.8253,1.091e-05,0
7.8258,3.5248e-06,0
7.8264,1.5106e-05,0
7.8269,3.1388e-05,0
7.8274,4.3305e-05,0
7.8279,5.5894e-05,0
7.8284,6.5293e-05,0
7.829,5.9251e-05,0
7.8295,4.0955e-05,0
7.83,2.1149e-05,0
7.8305,3.357e-07,0
7.831,-1.8967e-05,0
7.8316,-2.4338e-05,0
7.8321,-1.7288e-05,0
7.8326,-5.2033e-06,0
7.8331,2.3331e-05,0
7.8336,7.3686e-05,0
7.8342,0.00012287,0
7.8347,0.00014704,0
7.8352,0.0001561,0
7.8357,0.0001744,0
7.8362,0.00019219,0
7.8368,0.00018631,0
7.8373,0.00015694,0
7.8378,0.00013545,0
7.8383,0.0001556,0
7.8388,0.00018379,0
7.8393,0.0001744,0
7.8399,0.00013881,0
7.8404,0.00010692,0
7.8409,9.5171e-05,0
7.8414,8.3085e-05,0
7.8419,4.7166e-05,0
7.8425,-1.3428e-06,0
7.843,-3.6423e-05,0
7.8435,-6.8818e-05,0
7.844,-0.00012891,0
7.8445,-0.00020461,0
7.8451,-0.00026285,0
7.8456,-0.00027645,0
7.8461,-0.00024288,0
7.8466,-0.00020864,0
7.8471,-0.00018363,0
7.8477,-0.00014284,0
7.8482,-0.00010021,0
7.8487,-8.0903e-05,0
7.8492,-7.8386e-05,0
7.8497,-7.4022e-05,0
7.8502,-6.479e-05,0
7.8508,-5.6565e-05,0
7.8513,-5.623e-05,0
7.8518,-7.1e-05,0
7.8523,-9.836e-05,0
7.8528,-0.00012773,0
7.8534,-0.0001368,0
7.8539,-0.00011431,0
7.8544,-7.9057e-05,0
7.8549,-4.2634e-05,0
7.8554,2.182e-06,0
7.856,8.1743e-05,0
7.8565,0.00021183,0
7.857,0.00034627,0
7.8575,0.0004307,0
7.858,0.00046444,0
7.8586,0.0004584,0
7.8591,0.00039394,0
7.8596,0.00025765,0
7.8601,8.2078e-05,0
7.8606,-7.7379e-05,0
7.8612,-0.00018279,0
7.8617,-0.0002313,0
7.8622,-0.00024271,0
7.8627,-0.00024237,0
7.8632,-0.0002365,0
7.8637,-0.00021384,0
7.8643,-0.0001697,0
7.8648,-0.00013982,0
7.8653,-0.00013394,0
7.8658,-0.0001237,0
7.8663,-9.752e-05,0
7.8669,-5.8579e-05,0
7.8674,-3.8605e-06,0
7.8679,5.3544e-05,0
7.8684,8.04e-05,0
7.8689,8.1071e-05,0
7.8695,0.00010323,0
7.87,0.00016634,0
7.8705,0.00022005,0
7.871,0.00022391,0
7.8715,0.00018631,0
7.8721,0.00012555,0
7.8726,6.4622e-05,0
7.8731,1.2253e-05,0
7.8736,-3.7766e-05,0
7.8741,-8.3589e-05,0
7.8747,-0.00011951,0
7.8752,-0.00015056,0
7.8757,-0.00016684,0
7.8762,-0.00015979,0
7.8767,-0.00014687,0
7.8773,-0.0001467,0
7.8778,-0.00014519,0
7.8783,-0.00012068,0
7.8788,-7.3014e-05,0
7.8793,-2.1317e-05,0
7.8798,1.9303e-05,0
7.8804,5.0019e-05,0
7.8809,7.6371e-05,0
7.8814,9.6178e-05,0
7.8819,0.00010809,0
7.8824,0.00011514,0
7.883,0.0001284,0
7.8835,0.00015023,0
7.884,0.00017154,0
7.8845,0.00020192,0
7.885,0.00024691,0
7.8856,0.00028048,0
7.8861,0.00028685,0
7.8866,0.0002751,0
7.8871,0.00025765,0
7.8876,0.00021938,0
7.8882,0.00014754,0
7.8887,6.8482e-05,0
7.8892,1.9638e-05,0
7.8897,9.9031e-06,0
7.8902,5.539e-06,0
7.8907,-1.2924e-05,0
7.8913,-1.6114e-05,0
7.8918,5.2033e-06,0
7.8923,3.2898e-05,0
7.8928,6.1936e-05,0
7.8933,9.2653e-05,0
7.8939,0.00010726,0
7.8944,8.7114e-05,0
7.8949,3.9948e-05,0
7.8954,-5.539e-06,0
7.8959,-3.7934e-05,0
7.8965,-7.5364e-05,0
7.897,-0.00011498,0
7.8975,-0.00013344,0
7.898,-0.00011968,0
7.8985,-8.6778e-05,0
7.8991,-6.2272e-05,0
7.8996,-4.6494e-05,0
7.9001,-2.0645e-05,0
7.9006,1.3092e-05,0
7.9011,3.743e-05,0
7.9017,4.8173e-05,0
7.9022,5.3544e-05,0
7.9027,5.623e-05,0
7.9032,6.4958e-05,0
7.9037,8.5435e-05,0
7.9043,0.00010759,0
7.9048,0.00012404,0
7.9053,0.00013411,0
7.9058,0.00013881,0
7.9063,0.00013109,0
7.9068,0.00010054,0
7.9074,4.7837e-05,0
7.9079,-3.5248e-06,0
7.9084,-2.0813e-05,0
7.9089,2.5177e-06,0
7.9094,2.7359e-05,0
7.91,2.5681e-05,0
7.9105,1.1917e-05,0
7.911,1.0575e-05,0
7.9115,1.4939e-05,0
7.912,2.1988e-05,0
7.9126,2.2995e-05,0
7.9131,6.3783e-06,0
7.9136,-4.1962e-06,0
7.9141,1.9135e-05,0
7.9146,6.8315e-05,0
7.9152,0.0001185,0
7.9157,0.00014351,0
7.9162,0.00014603,0
7.9167,0.00015425,0
7.9172,0.00017104,0
7.9177,0.00017104,0
7.9183,0.00012807,0
7.9188,4.213e-05,0
7.9193,-6.5461e-05,0
7.9198,-0.00017591,0
7.9203,-0.00027846,0
7.9209,-0.00036407,0
7.9214,-0.00042516,0
7.9219,-0.00045991,0
7.9224,-0.0004537,0
7.9229,-0.00040267,0
7.9235,-0.00033587,0
7.924,-0.00027494,0
7.9245,-0.00021955,0
7.925,-0.00016886,0
7.9255,-0.00012337,0
7.9261,-7.7379e-05,0
7.9266,-3.0381e-05,0
7.9271,7.7211e-06,0
7.9276,3.0045e-05,0
7.9281,4.1459e-05,0
7.9287,5.5222e-05,0
7.9292,7.3518e-05,0
7.9297,8.1743e-05,0
7.9302,8.1575e-05,0
7.9307,8.7282e-05,0
7.9313,0.00010625,0
7.9318,0.00013143,0
7.9323,0.0001509,0
7.9328,0.00015929,0
7.9333,0.00016147,0
7.9338,0.00016533,0
7.9344,0.00017842,0
7.9349,0.00020175,0
7.9354,0.00021871,0
7.9359,0.00022475,0
7.9364,0.00023935,0
7.937,0.00026436,0
7.9375,0.00027947,0
7.938,0.00027242,0
7.9385,0.00024858,0
7.939,0.0002219,0
7.9396,0.00022005,0
7.9401,0.00023986,0
7.9406,0.00023751,0
7.9411,0.000189,0
7.9416,0.00011917,0
7.9422,5.9586e-05,0
7.9427,1.0575e-05,0
7.9432,-3.743e-05,0
7.9437,-8.5771e-05,0
7.9442,-0.00011632,0
7.9447,-0.00012404,0
7.9453,-0.0001415,0
7.9458,-0.00016735,0
7.9463,-0.00015325,0
7.9468,-0.00010709,0
7.9473,-8.3925e-05,0
7.9479,-9.5171e-05,0
7.9484,-0.0001044,0
7.9489,-0.00010642,0
7.9494,-0.0001274,0
7.9499,-0.00017423,0
7.9505,-0.00022492,0
7.951,-0.00025362,0
7.9515,-0.00024372,0
7.952,-0.0001754,0
7.9525,-5.4215e-05,0
7.9531,9.7856e-05,0
7.9536,0.00023348,0
7.9541,0.00028434,0
7.9546,0.00024103,0
7.9551,0.00015946,0
7.9557,8.6442e-05,0
7.9562,2.182e-05,0
7.9567,-3.9277e-05,0
7.9572,-8.2246e-05,0
7.9577,-8.5939e-05,0
7.9582,-5.1194e-05,0
7.9588,-1.6953e-05,0
7.9593,-1.7288e-05,0
7.9598,-4.5151e-05,0
7.9603,-7.3518e-05,0
7.9608,-9.0135e-05,0
7.9614,-9.1646e-05,0
7.9619,-7.57e-05,0
7.9624,-4.8844e-05,0
7.9629,-2.3499e-05,0
7.9634,-6.3783e-06,0
7.964,6.3783e-06,0
7.9645,1.5946e-05,0
7.965,1.3092e-05,0
7.9655,-4.6998e-06,0
7.966,-2.5177e-05,0
7.9666,-3.0045e-05,0
7.9671,-1.7624e-05,0
7.9676,2.8534e-06,0
7.9681,2.3835e-05,0
7.9686,4.0116e-05,0
7.9692,5.153e-05,0
7.9697,6.9154e-05,0
7.9702,0.00011128,0
7.9707,0.00017037,0
7.9712,0.0002135,0
7.9718,0.00022643,0
7.9723,0.00022206,0
7.9728,0.00020864,0
7.9733,0.00018027,0
7.9738,0.00014955,0
7.9743,0.00013109,0
7.9749,0.00011229,0
7.9754,8.2078e-05,0
7.9759,5.6901e-05,0
7.9764,3.9948e-05,0
7.9769,2.0142e-05,0
7.9775,-9.0639e-06,0
7.978,-4.4816e-05,0
7.9785,-6.8986e-05,0
7.979,-5.3208e-05,0
7.9795,-2.0142e-06,0
7.9801,4.5487e-05,0
7.9806,8.7785e-05,0
7.9811,0.00018044,0
7.9816,0.00034258,0
7.9821,0.00048727,0
7.9827,0.00052889,0
7.9832,0.00048525,0
7.9837,0.00041341,0
7.9842,0.00033184,0
7.9847,0.00021871,0
7.9852,7.6707e-05,0
7.9858,-6.479e-05,0
7.9863,-0.00018732,0
7.9868,-0.00029676,0
7.9873,-0.00039797,0
7.9878,-0.00047367,0
7.9884,-0.00050288,0
7.9889,-0.00049213,0
7.9894,-0.0004537,0
7.9899,-0.00038622,0
7.9904,-0.00029894,0
7.991,-0.00020998,0
7.9915,-0.00010692,0
7.992,-5.0355e-06,0
7.9925,5.4215e-05,0
7.993,6.0761e-05,0
7.9936,3.1388e-05,0
7.9941,-2.4338e-05,0
7.9946,-9.0639e-05,0
7.9951,-0.00014435,0
7.9956,-0.00016936,0
7.9962,-0.0001613,0
7.9967,-0.00012387,0
7.9972,-6.9993e-05,0
7.9977,-1.6785e-07,0
7.9982,7.8218e-05,0
7.9988,0.00013042,0
7.9993,0.00014066,0
7.9998,0.00013579,0
8.0003,0.00013881,0
8.0008,0.00013075,0
8.0013,9.2821e-05,0
8.0019,3.8102e-05,0
8.0024,-4.6998e-06,0
8.0029,-2.501e-05,0
8.0034,-3.9612e-05,0
8.0039,-5.5055e-05,0
8.0045,-6.5629e-05,0
8.005,-7.5364e-05,0
8.0055,-8.3421e-05,0
8.006,-7.0329e-05,0
8.0065,-2.2995e-05,0
8.0071,5.5726e-05,0
8.0076,0.0001472,0
8.0081,0.00021602,0
8.0086,0.00024221,0
8.0091,0.00023549,0
8.0097,0.00021334,0
8.0102,0.00018296,0
8.0107,0.00014788,0
8.0112,0.00011229,0
8.0117,8.4428e-05,0
8.0122,7.1e-05,0
8.0128,7.5029e-05,0
8.0133,9.1814e-05,0
8.0138,0.0001039,0
8.0143,9.8527e-05,0
8.0148,9.366e-05,0
8.0154,0.00010256,0
8.0159,0.00010088,0
8.0164,7.0329e-05,0
8.0169,2.7695e-05,0
8.0174,-2.5177e-06,0
8.018,-2.0645e-05,0
8.0185,-4.7333e-05,0
8.019,-8.4596e-05,0
8.0195,-0.00010675,0
8.02,-8.7617e-05,0
8.0206,-3.5584e-05,0
8.0211,3.0716e-05,0
8.0216,0.0001138,0
8.0221,0.0002078,0
8.0226,0.00026973,0
8.0232,0.00027007,0
8.0237,0.00021804,0
8.0242,0.00014217,0
8.0247,7.4861e-05,0
8.0252,3.9109e-05,0
8.0258,3.5416e-05,0
8.0263,3.743e-05,0
8.0268,2.6688e-05,0
8.0273,1.2757e-05,0
8.0278,4.5319e-06,0
8.0283,-6.8818e-06,0
8.0289,-2.6017e-05,0
8.0294,-3.8102e-05,0
8.0299,-5.0523e-05,0
8.0304,-8.6275e-05,0
8.0309,-0.00014133,0
8.0315,-0.00018749,0
8.032,-0.00020058,0
8.0325,-0.00018245,0
8.033,-0.00015962,0
8.0335,-0.00014116,0
8.0341,-9.7185e-05,0
8.0346,-2.0981e-05,0
8.0351,7.4693e-05,0
8.0356,0.00016886,0
8.0361,0.00023767,0
8.0367,0.00025631,0
8.0372,0.00021871,0
8.0377,0.00015727,0
8.0382,0.00011414,0
8.0387,9.1142e-05,0
8.0392,6.63e-05,0
8.0398,3.508e-05,0
8.0403,1.6617e-05,0
8.0408,1.8631e-05,0
8.0413,2.4506e-05,0
8.0418,1.1078e-05,0
8.0424,-3.508e-05,0
8.0429,-0.00010205,0
8.0434,-0.000165,0
8.0439,-0.00020562,0
8.0444,-0.00021921,0
8.045,-0.00021216,0
8.0455,-0.00020075,0
8.046,-0.00019538,0
8.0465,-0.00018816,0
8.047,-0.00014855,0
8.0476,-6.3615e-05,0
8.0481,2.1317e-05,0
8.0486,8.3085e-05,0
8.0491,0.00016181,0
8.0496,0.00026336,0
8.0502,0.00032781,0
8.0507,0.00030935,0
8.0512,0.00022878,0
8.0517,0.00012236,0
8.0522,1.326e-05,0
8.0527,-8.8121e-05,0
8.0533,-0.00017977,0
8.0538,-0.00024993,0
8.0543,-0.00027477,0
8.0548,-0.00025899,0
8.0553,-0.00023314,0
8.0559,-0.00020494,0
8.0564,-0.00016231,0
8.0569,-0.00011481,0
8.0574,-7.2007e-05,0
8.0579,-1.6281e-05,0
8.0585,5.5222e-05,0
8.059,0.0001044,0
8.0595,0.00011632,0
8.06,0.0001086,0
8.0605,9.0471e-05,0
8.0611,6.9657e-05,0
8.0616,6.3615e-05,0
8.0621,7.9057e-05,0
8.0626,9.6513e-05,0
8.0631,0.00010088,0
8.0637,9.9031e-05,0
8.0642,0.00010994,0
8.0647,0.00012941,0
8.0652,0.00014049,0
8.0657,0.00013495,0
8.0663,0.00012102,0
8.0668,0.00011498,0
8.0673,0.00011447,0
8.0678,0.00010323,0
8.0683,7.5029e-05,0
8.0688,4.1794e-05,0
8.0694,2.8031e-05,0
8.0699,5.6565e-05,0
8.0704,0.00013613,0
8.0709,0.00022509,0
8.0714,0.00027779,0
8.072,0.00028652,0
8.0725,0.00027208,0
8.073,0.00023751,0
8.0735,0.00017708,0
8.074,9.6513e-05,0
8.0746,1.9638e-05,0
8.0751,-2.3667e-05,0
8.0756,-4.6998e-05,0
8.0761,-8.4092e-05,0
8.0766,-0.00014401,0
8.0772,-0.00020931,0
8.0777,-0.00025933,0
8.0782,-0.00028199,0
8.0787,-0.00027141,0
8.0792,-0.00024321,0
8.0798,-0.00021434,0
8.0803,-0.00018547,0
8.0808,-0.00015492,0
8.0813,-0.00012203,0
8.0818,-6.2608e-05,0
8.0823,4.2802e-05,0
8.0829,0.00017003,0
8.0834,0.00028719,0
8.0839,0.00038521,0
8.0844,0.00045,0
8.0849,0.0004631,0
8.0855,0.00041039,0
8.086,0.00029592,0
8.0865,0.0001509,0
8.087,3.5248e-06,0
8.0875,-0.00013713,0
8.0881,-0.00025496,0
8.0886,-0.00033184,0
8.0891,-0.00037195,0
8.0896,-0.00039126,0
8.0901,-0.00037565,0
8.0907,-0.00025664,0
8.0912,-3.3234e-05,0
8.0917,0.00017758,0
8.0922,0.00027645,0
8.0927,0.00028602,0
8.0932,0.00026302,0
8.0938,0.00020914,0
8.0943,0.00011917,0
8.0948,2.0142e-05,0
8.0953,-6.3615e-05,0
8.0958,-0.00010977,0
8.0964,-0.00011044,0
8.0969,-8.3085e-05,0
8.0974,-5.6062e-05,0
8.0979,-4.5487e-05,0
8.0984,-4.918e-05,0
8.099,-6.5126e-05,0
8.0995,-7.2343e-05,0
8.1,-4.6326e-05,0
8.1005,-5.8747e-06,0
8.101,2.5345e-05,0
8.1016,4.0955e-05,0
8.1021,2.9038e-05,0
8.1026,-2.0142e-06,0
8.1031,-2.501e-05,0
8.1036,-3.2059e-05,0
8.1042,-3.4745e-05,0
8.1047,-4.1291e-05,0
8.1052,-4.8844e-05,0
8.1057,-5.4551e-05,0
8.1062,-6.4118e-05,0
8.1067,-7.8889e-05,0
8.1073,-8.4428e-05,0
8.1078,-6.8986e-05,0
8.1083,-4.0452e-05,0
8.1088,-1.2757e-05,0
8.1093,1.2589e-05,0
8.1099,4.3305e-05,0
8.1104,7.7211e-05,0
8.1109,0.00011867,0
8.1114,0.00016802,0
8.1119,0.00019521,0
8.1125,0.00018396,0
8.113,0.00015627,0
8.1135,0.00014351,0
8.114,0.00015778,0
8.1145,0.00018346,0
8.1151,0.00020394,0
8.1156,0.00021569,0
8.1161,0.00021518,0
8.1166,0.00019554,0
8.1171,0.00014687,0
8.1177,7.0329e-05,0
8.1182,-1.326e-05,0
8.1187,-8.0735e-05,0
8.1192,-0.00011481,0
8.1197,-0.000118,0
8.1203,-0.00010927,0
8.1208,-0.00010977,0
8.1213,-0.0001274,0
8.1218,-0.00014469,0
8.1223,-0.00013462,0
8.1228,-0.00010004,0
8.1234,-5.9251e-05,0
8.1239,-5.539e-06,0
8.1244,9.1142e-05,0
8.1249,0.00021669,0
8.1254,0.00030599,0
8.126,0.00032126,0
8.1265,0.00028853,0
8.127,0.00025396,0
8.1275,0.0002318,0
8.128,0.00019319,0
8.1286,0.00012572,0
8.1291,4.8844e-05,0
8.1296,-2.2492e-05,0
8.1301,-8.3925e-05,0
8.1306,-0.00011397,0
8.1312,-0.00010289,0
8.1317,-7.5532e-05,0
8.1322,-4.7669e-05,0
8.1327,-1.4939e-05,0
8.1332,1.7792e-05,0
8.1337,3.2395e-05,0
8.1343,2.5345e-05,0
8.1348,1.8463e-06,0
8.1353,-4.5487e-05,0
8.1358,-0.00011901,0
8.1363,-0.00019924,0
8.1369,-0.00024842,0
8.1374,-0.00021938,0
8.1379,-0.00012119,0
8.1384,-1.091e-05,0
8.1389,6.3447e-05,0
8.1395,9.4667e-05,0
8.14,0.00010491,0
8.1405,0.00010037,0
8.141,6.7979e-05,0
8.1415,1.2421e-05,0
8.1421,-4.4144e-05,0
8.1426,-8.6442e-05,0
8.1431,-0.00011699,0
8.1436,-0.00013042,0
8.1441,-0.00011145,0
8.1447,-8.2078e-05,0
8.1452,-7.5029e-05,0
8.1457,-8.4764e-05,0
8.1462,-8.5771e-05,0
8.1467,-7.4022e-05,0
8.1472,-6.3951e-05,0
8.1478,-7.0665e-05,0
8.1483,-9.0639e-05,0
8.1488,-0.00010289,0
8.1493,-9.1478e-05,0
8.1498,-5.3544e-05,0
8.1504,-4.5319e-06,0
8.1509,3.5248e-05,0
8.1514,6.3615e-05,0
8.1519,9.8695e-05,0
8.1524,0.00015375,0
8.153,0.00021434,0
8.1535,0.00026789,0
8.154,0.00031136,0
8.1545,0.00033285,0
8.155,0.00030465,0
8.1556,0.00022593,0
8.1561,0.00013462,0
8.1566,6.4286e-05,0
8.1571,2.8702e-05,0
8.1576,2.5345e-05,0
8.1582,4.6662e-05,0
8.1587,8.1071e-05,0
8.1592,0.00010726,0
8.1597,0.00010726,0
8.1602,8.2078e-05,0
8.1608,4.0452e-05,0
8.1613,-1.0239e-05,0
8.1618,-5.9922e-05,0
8.1623,-8.3253e-05,0
8.1628,-6.8818e-05,0
8.1633,-4.5991e-05,0
8.1639,-2.9038e-05,0
8.1644,-8.5603e-06,0
8.1649,1.4603e-05,0
8.1654,2.5177e-05,0
8.1659,1.7121e-05,0
8.1665,-7.5532e-06,0
8.167,-4.5151e-05,0
8.1675,-8.2246e-05,0
8.168,-0.00010423,0
8.1685,-0.00011212,0
8.1691,-0.00011229,0
8.1696,-0.00010759,0
8.1701,-9.3156e-05,0
8.1706,-5.4383e-05,0
8.1711,3.7766e-05,0
8.1717,0.00016835,0
8.1722,0.00025933,0
8.1727,0.00026571,0
8.1732,0.0002266,0
8.1737,0.00017943,0
8.1743,0.00012253,0
8.1748,5.7908e-05,0
8.1753,-6.0426e-06,0
8.1758,-6.1433e-05,0
8.1763,-9.5842e-05,0
8.1768,-0.00011481,0
8.1774,-0.00012908,0
8.1779,-0.00014083,0
8.1784,-0.00014418,0
8.1789,-0.00012102,0
8.1794,-4.3137e-05,0
8.18,6.3279e-05,0
8.1805,0.00014351,0
8.181,0.00017641,0
8.1815,0.00017876,0
8.182,0.0001697,0
8.1826,0.00014939,0
8.1831,0.00012219,0
8.1836,0.00012975,0
8.1841,0.00017238,0
8.1846,0.00021132,0
8.1852,0.00023516,0
8.1857,0.00022173,0
8.1862,0.00014955,0
8.1867,3.4241e-05,0
8.1872,-7.2679e-05,0
8.1877,-0.00013797,0
8.1883,-0.00017641,0
8.1888,-0.00021015,0
8.1893,-0.0002454,0
8.1898,-0.00026705,0
8.1903,-0.00025715,0
8.1909,-0.00023717,0
8.1914,-0.00023029,0
8.1919,-0.00022072,0
8.1924,-0.00018245,0
8.1929,-0.00012757,0
8.1935,-8.8457e-05,0
8.194,-7.2343e-05,0
8.1945,-6.5965e-05,0
8.195,-5.9251e-05,0
8.1955,-5.2033e-05,0
8.1961,-4.7837e-05,0
8.1966,-3.1388e-05,0
8.1971,9.2317e-06,0
8.1976,5.9586e-05,0
8.1981,9.2317e-05,0
8.1987,0.00010323,0
8.1992,0.00010239,0
8.1997,9.601e-05,0
8.2002,7.9057e-05,0
8.2007,5.1194e-05,0
8.2012,2.5177e-05,0
8.2018,1.7121e-05,0
8.2023,2.9038e-05,0
8.2028,6.0258e-05,0
8.2033,0.00010457,0
8.2038,0.00014653,0
8.2044,0.00017272,0
8.2049,0.00018514,0
8.2054,0.00018984,0
8.2059,0.00018766,0
8.2064,0.00017137,0
8.207,0.00015274,0
8.2075,0.0001472,0
8.208,0.00014217,0
8.2085,0.00012052,0
8.209,9.2988e-05,0
8.2096,8.04e-05,0
8.2101,7.9728e-05,0
8.2106,7.3686e-05,0
8.2111,7.2007e-05,0
8.2116,0.00010457,0
8.2122,0.00015761,0
8.2127,0.00018849,0
8.2132,0.00019051,0
8.2137,0.00019387,0
8.2142,0.00020595,0
8.2148,0.00019722,0
8.2153,0.0001509,0
8.2158,8.4932e-05,0
8.2163,1.5106e-05,0
8.2168,-6.0594e-05,0
8.2173,-0.00012673,0
8.2179,-0.00015106,0
8.2184,-0.00012639,0
8.2189,-8.426e-05,0
8.2194,-6.6972e-05,0
8.2199,-8.3421e-05,0
8.2205,-0.00010961,0
8.221,-0.00014905,0
8.2215,-0.00022358,0
8.222,-0.00031472,0
8.2225,-0.0003639,0
8.2231,-0.00035097,0
8.2236,-0.000307,0
8.2241,-0.00025261,0
8.2246,-0.00019857,0
8.2251,-0.00015459,0
8.2257,-0.00011296,0
8.2262,-6.0594e-05,0
8.2267,-4.8676e-06,0
8.2272,3.7766e-05,0
8.2277,5.8915e-05,0
8.2283,6.0761e-05,0
8.2288,6.0258e-05,0
8.2293,6.5629e-05,0
8.2298,7.6036e-05,0
8.2303,9.1814e-05,0
8.2308,0.00011766,0
8.2314,0.00016147,0
8.2319,0.0002224,0
8.2324,0.00027762,0
8.2329,0.00029424,0
8.2334,0.00026336,0
8.234,0.00020259,0
8.2345,0.00013411,0
8.235,6.7643e-05,0
8.2355,2.8534e-06,0
8.236,-4.9683e-05,0
8.2366,-7.5364e-05,0
8.2371,-7.8386e-05,0
8.2376,-7.2847e-05,0
8.2381,-7.0665e-05,0
8.2386,-7.2343e-05,0
8.2392,-7.4693e-05,0
8.2397,-7.4693e-05,0
8.2402,-6.63e-05,0
8.2407,-3.2563e-05,0
8.2412,3.0381e-05,0
8.2417,9.3492e-05,0
8.2423,0.00015358,0
8.2428,0.00022374,0
8.2433,0.0002751,0
8.2438,0.00028937,0
8.2443,0.00029995,0
8.2449,0.00032126,0
8.2454,0.00031774,0
8.2459,0.00027141,0
8.2464,0.00020394,0
8.2469,0.0001331,0
8.2475,6.2943e-05,0
8.248,-6.3783e-06,0
8.2485,-6.7475e-05,0
8.249,-0.00010121,0
8.2495,-0.00010994,0
8.2501,-0.00011934,0
8.2506,-0.0001321,0
8.2511,-0.0001378,0
8.2516,-0.00014888,0
8.2521,-0.00018044,0
8.2527,-0.00022391,0
8.2532,-0.00025731,0
8.2537,-0.00027141,0
8.2542,-0.00027477,0
8.2547,-0.00026755,0
8.2553,-0.00023751,0
8.2558,-0.00017053,0
8.2563,-7.4189e-05,0
8.2568,2.1317e-05,0
8.2573,8.896e-05,0
8.2578,0.00012874,0
8.2584,0.00015593,0
8.2589,0.00017859,0
8.2594,0.00019236,0
8.2599,0.00018178,0
8.2604,0.0001519,0
8.261,0.00012874,0
8.2615,0.0001415,0
8.262,0.00018178,0
8.2625,0.00022408,0
8.263,0.0002746,0
8.2636,0.00032345,0
8.2641,0.00031304,0
8.2646,0.00020864,0
8.2651,5.2873e-05,0
8.2656,-8.4932e-05,0
8.2662,-0.00018279,0
8.2667,-0.00025077,0
8.2672,-0.00028803,0
8.2677,-0.00028753,0
8.2682,-0.00025211,0
8.2688,-0.00019857,0
8.2693,-0.00014351,0
8.2698,-9.9535e-05,0
8.2703,-8.9128e-05,0
8.2708,-0.00011582,0
8.2713,-0.0001378,0
8.2719,-0.00012438,0
8.2724,-8.5603e-05,0
8.2729,-3.1052e-05,0
8.2734,3.8773e-05,0
8.2739,0.00010222,0
8.2745,0.00013915,0
8.275,0.00015526,0
8.2755,0.00018161,0
8.276,0.00022878,0
8.2765,0.00027276,0
8.2771,0.00028568,0
8.2776,0.00027829,0
8.2781,0.00029122,0
8.2786,0.00032378,0
8.2791,0.00031757,0
8.2797,0.00023012,0
8.2802,8.7953e-05,0
8.2807,-5.1026e-05,0
8.2812,-0.00014636,0
8.2817,-0.00019219,0
8.2822,-0.00021149,0
8.2828,-0.0002224,0
8.2833,-0.00022878,0
8.2838,-0.0002088,0
8.2843,-0.00015157,0
8.2848,-8.1071e-05,0
8.2854,-2.9541e-05,0
8.2859,-1.5946e-05,0
8.2864,-3.0381e-05,0
8.2869,-4.7669e-05,0
8.2874,-3.9109e-05,0
8.288,-6.8818e-06,0
8.2885,2.266e-05,0
8.289,3.9109e-05,0
8.2895,5.4887e-05,0
8.29,7.3014e-05,0
8.2906,7.9728e-05,0
8.2911,6.8818e-05,0
8.2916,5.4215e-05,0
8.2921,5.8915e-05,0
8.2926,0.00011246,0
8.2932,0.00019722,0
8.2937,0.00024523,0
8.2942,0.00022542,0
8.2947,0.00017507,0
8.2952,0.00012656,0
8.2957,7.8553e-05,0
8.2963,1.796e-05,0
8.2968,-6.4622e-05,0
8.2973,-0.00014586,0
8.2978,-0.00018463,0
8.2983,-0.00018312,0
8.2989,-0.00015778,0
8.2994,-0.0001237,0
8.2999,-0.00010423,0
8.3004,-0.00010054,0
8.3009,-9.0471e-05,0
8.3015,-6.3615e-05,0
8.302,-3.0045e-05,0
8.3025,4.1962e-06,0
8.303,4.0116e-05,0
8.3035,8.04e-05,0
8.3041,0.0001091,0
8.3046,0.00011128,0
8.3051,9.7856e-05,0
8.3056,7.8889e-05,0
8.3061,5.0858e-05,0
8.3067,1.2589e-05,0
8.3072,-3.3066e-05,0
8.3077,-7.805e-05,0
8.3082,-0.00011162,0
8.3087,-0.00012941,0
8.3093,-0.00013327,0
8.3098,-0.00011901,0
8.3103,-7.8386e-05,0
8.3108,-2.1485e-05,0
8.3113,3.4409e-05,0
8.3118,8.1575e-05,0
8.3124,0.00012689,0
8.3129,0.00018044,0
8.3134,0.00022878,0
8.3139,0.00026084,0
8.3144,0.0002751,0
8.315,0.00026789,0
8.3155,0.00024825,0
8.316,0.00024758,0
8.3165,0.00027376,0
8.317,0.00028316,0
8.3176,0.00023868,0
8.3181,0.00015895,0
8.3186,8.3085e-05,0
8.3191,2.6856e-05,0
8.3196,-1.9806e-05,0
8.3202,-6.8986e-05,0
8.3207,-0.00011716,0
8.3212,-0.00015442,0
8.3217,-0.000189,0
8.3222,-0.0002224,0
8.3227,-0.00024456,0
8.3233,-0.00024775,0
8.3238,-0.00022509,0
8.3243,-0.00017641,0
8.3248,-0.00011615,0
8.3253,-6.2943e-05,0
8.3259,-1.8128e-05,0
8.3264,4.0116e-05,0
8.3269,0.0001227,0
8.3274,0.00019655,0
8.3279,0.00023331,0
8.3285,0.00025681,0
8.329,0.00032042,0
8.3295,0.00042013,0
8.33,0.00048794,0
8.3305,0.00046377,0
8.3311,0.00034073,0
8.3316,0.00016902,0
8.3321,5.8747e-06,0
8.3326,-0.00013948,0
8.3331,-0.00026671,0
8.3337,-0.00036339,0
8.3342,-0.00042869,0
8.3347,-0.00046662,0
8.3352,-0.00046645,0
8.3357,-0.00042164,0
8.3362,-0.00034762,0
8.3368,-0.00027578,0
8.3373,-0.00022307,0
8.3378,-0.00017675,0
8.3383,-0.00012773,0
8.3388,-8.2078e-05,0
8.3394,-4.2466e-05,0
8.3399,-1.2085e-05,0
8.3404,6.2104e-06,0
8.3409,1.7288e-05,0
8.3414,2.3835e-05,0
8.342,2.7695e-05,0
8.3425,5.7908e-05,0
8.343,0.00015627,0
8.3435,0.00028988,0
8.344,0.00037145,0
8.3446,0.00037984,0
8.3451,0.00035869,0
8.3456,0.00033385,0
8.3461,0.00028417,0
8.3466,0.00020528,0
8.3472,0.00011112,0
8.3477,1.9638e-05,0
8.3482,-4.213e-05,0
8.3487,-6.7643e-05,0
8.3492,-8.0568e-05,0
8.3498,-8.7953e-05,0
8.3503,-9.8695e-05,0
8.3508,-0.00011095,0
8.3513,-0.00011162,0
8.3518,-8.6442e-05,0
8.3523,-2.7359e-05,0
8.3529,5.153e-05,0
8.3534,0.00011431,0
8.3539,0.00012807,0
8.3544,0.00010155,0
8.3549,7.3014e-05,0
8.3555,6.0426e-05,0
8.356,4.8844e-05,0
8.3565,1.6449e-05,0
8.357,-3.0045e-05,0
8.3575,-7.2679e-05,0
8.3581,-0.00010843,0
8.3586,-0.00013445,0
8.3591,-0.00013545,0
8.3596,-0.0001086,0
8.3601,-6.6972e-05,0
8.3607,-1.4939e-05,0
8.3612,3.8102e-05,0
8.3617,9.4499e-05,0
8.3622,0.00015996,0
8.3627,0.00020763,0
8.3633,0.00020108,0
8.3638,0.00014855,0
8.3643,9.1142e-05,0
8.3648,5.1865e-05,0
8.3653,2.4002e-05,0
8.3658,3.8605e-06,0
8.3664,-1.6281e-05,0
8.3669,-4.7837e-05,0
8.3674,-8.7114e-05,0
8.3679,-0.00012689,0
8.3684,-0.00015325,0
8.369,-0.00015023,0
8.3695,-0.00011011,0
8.37,-3.4577e-05,0
8.3705,5.4887e-05,0
8.371,0.00012068,0
8.3716,0.00014217,0
8.3721,0.00013613,0
8.3726,0.00012404,0
8.3731,0.00010692,0
8.3736,8.2414e-05,0
8.3742,5.6901e-05,0
8.3747,3.592e-05,0
8.3752,2.1317e-05,0
8.3757,1.3092e-05,0
8.3762,6.8818e-06,0
8.3767,1.5106e-06,0
8.3773,-5.539e-06,0
8.3778,-1.4267e-05,0
8.3783,-2.4674e-05,0
8.3788,-2.887e-05,0
8.3793,-1.6281e-05,0
8.3799,3.1891e-06,0
8.3804,1.4771e-05,0
8.3809,1.6953e-05,0
8.3814,1.5274e-05,0
8.3819,9.9031e-06,0
8.3825,9.2317e-06,0
8.383,2.2156e-05,0
8.3835,5.069e-05,0
8.384,8.8289e-05,0
8.3845,0.00012169,0
8.3851,0.00014804,0
8.3856,0.00018178,0
8.3861,0.00021736,0
8.3866,0.0002271,0
8.3871,0.00020696,0
8.3877,0.0001697,0
8.3882,0.00013143,0
8.3887,0.00012589,0
8.3892,0.00016768,0
8.3897,0.00023113,0
8.3902,0.00027443,0
8.3908,0.00027041,0
8.3913,0.00020797,0
8.3918,0.00010222,0
8.3923,-5.539e-06,0
8.3928,-9.5338e-05,0
8.3934,-0.00017288,0
8.3939,-0.00024154,0
8.3944,-0.0003033,0
8.3949,-0.00035483,0
8.3954,-0.00039344,0
8.396,-0.00041492,0
8.3965,-0.00040771,0
8.397,-0.00035668,0
8.3975,-0.00026806,0
8.398,-0.00015459,0
8.3986,-3.4241e-05,0
8.3991,5.1026e-05,0
8.3996,8.5771e-05,0
8.4001,9.987e-05,0
8.4006,0.00010994,0
8.4012,9.5338e-05,0
8.4017,4.8844e-05,0
8.4022,-1.5106e-06,0
8.4027,-2.887e-05,0
8.4032,-3.4745e-05,0
8.4038,-3.7766e-05,0
8.4043,-3.7934e-05,0
8.4048,-2.2995e-05,0
8.4053,1.4939e-05,0
8.4058,5.9419e-05,0
8.4063,9.3156e-05,0
8.4069,0.00011128,0
8.4074,0.0001138,0
8.4079,0.00011666,0
8.4084,0.0001274,0
8.4089,0.00013579,0
8.4095,0.00012404,0
8.41,9.3156e-05,0
8.4105,6.2943e-05,0
8.411,4.3809e-05,0
8.4115,2.5177e-05,0
8.4121,-4.8676e-06,0
8.4126,-4.2298e-05,0
8.4131,-6.0426e-05,0
8.4136,-4.3137e-05,0
8.4141,-3.1891e-06,0
8.4147,4.1291e-05,0
8.4152,7.6036e-05,0
8.4157,9.6345e-05,0
8.4162,0.00010524,0
8.4167,0.00010524,0
8.4172,0.00010222,0
8.4178,9.5171e-05,0
8.4183,7.5868e-05,0
8.4188,4.7333e-05,0
8.4193,2.3163e-05,0
8.4198,1.2924e-05,0
8.4204,1.8967e-05,0
8.4209,3.3402e-05,0
8.4214,3.1891e-05,0
8.4219,1.8463e-06,0
8.4224,-3.4073e-05,0
8.423,-4.1794e-05,0
8.4235,-2.2324e-05,0
8.424,-2.8534e-06,0
8.4245,1.7121e-05,0
8.425,5.9922e-05,0
8.4256,9.9702e-05,0
8.4261,9.7185e-05,0
8.4266,6.5965e-05,0
8.4271,3.7263e-05,0
8.4276,1.0071e-05,0
8.4282,-2.2995e-05,0
8.4287,-5.3208e-05,0
8.4292,-7.4022e-05,0
8.4297,-8.7953e-05,0
8.4302,-9.366e-05,0
8.4307,-9.0135e-05,0
8.4313,-8.2918e-05,0
8.4318,-8.2414e-05,0
8.4323,-8.6107e-05,0
8.4328,-8.1743e-05,0
8.4333,-6.9322e-05,0
8.4339,-5.9586e-05,0
8.4344,-6.0929e-05,0
8.4349,-6.3951e-05,0
8.4354,-4.9516e-05,0
8.4359,-4.1962e-06,0
8.4365,5.3544e-05,0
8.437,9.5171e-05,0
8.4375,0.00011582,0
8.438,0.0001279,0
8.4385,0.0001321,0
8.4391,0.00012068,0
8.4396,8.9799e-05,0
8.4401,5.4887e-05,0
8.4406,3.7766e-05,0
8.4411,5.1865e-05,0
8.4417,8.3085e-05,0
8.4422,0.00011867,0
8.4427,0.00015476,0
8.4432,0.00021636,0
8.4437,0.00030196,0
8.4443,0.00036977,0
8.4448,0.00038857,0
8.4453,0.00036071,0
8.4458,0.00031136,0
8.4463,0.00026352,0
8.4468,0.00020327,0
8.4474,0.00011699,0
8.4479,1.1582e-05,0
8.4484,-9.5842e-05,0
8.4489,-0.00018531,0
8.4494,-0.00023969,0
8.45,-0.00026403,0
8.4505,-0.00027913,0
8.451,-0.00028064,0
8.4515,-0.00025866,0
8.452,-0.00020578,0
8.4526,-0.00012102,0
8.4531,-4.7837e-05,0
8.4536,-1.5946e-05,0
8.4541,-1.4267e-05,0
8.4546,-3.5752e-05,0
8.4552,-7.9393e-05,0
8.4557,-0.00012975,0
8.4562,-0.00016147,0
8.4567,-0.00016936,0
8.4572,-0.0001613,0
8.4578,-0.0001331,0
8.4583,-9.2317e-05,0
8.4588,-5.2705e-05,0
8.4593,-6.5461e-06,0
8.4598,7.4357e-05,0
8.4603,0.00016365,0
8.4609,0.00022055,0
8.4614,0.00023281,0
8.4619,0.00020897,0
8.4624,0.00016298,0
8.4629,0.00011598,0
8.4635,7.4693e-05,0
8.464,2.8367e-05,0
8.4645,-3.3066e-05,0
8.465,-9.5171e-05,0
8.4655,-0.00014452,0
8.4661,-0.00017859,0
8.4666,-0.00020427,0
8.4671,-0.00022576,0
8.4676,-0.00023096,0
8.4681,-0.00020797,0
8.4687,-0.000165,0
8.4692,-0.00012941,0
8.4697,-0.00010961,0
8.4702,-8.0064e-05,0
8.4707,-1.8296e-05,0
8.4713,6.7475e-05,0
8.4718,0.00015023,0
8.4723,0.00022475,0
8.4728,0.0002882,0
8.4733,0.00031673,0
8.4738,0.00030515,0
8.4744,0.00026973,0
8.4749,0.00022811,0
8.4754,0.00018497,0
8.4759,0.00014401,0
8.4764,0.00012001,0
8.477,0.00011464,0
8.4775,0.00011431,0
8.478,0.00010457,0
8.4785,8.9296e-05,0
8.479,7.5029e-05,0
8.4796,5.5222e-05,0
8.4801,3.0045e-05,0
8.4806,1.326e-05,0
8.4811,5.2033e-06,0
8.4816,1.6785e-06,0
8.4822,7.8889e-06,0
8.4827,2.4338e-05,0
8.4832,4.3977e-05,0
8.4837,5.8076e-05,0
8.4842,6.7643e-05,0
8.4848,8.6778e-05,0
8.4853,0.00012102,0
8.4858,0.00017641,0
8.4863,0.00025731,0
8.4868,0.00031539,0
8.4873,0.00029625,0
8.4879,0.00021602,0
8.4884,0.0001284,0
8.4889,5.5055e-05,0
8.4894,-8.896e-06,0
8.4899,-7.9393e-05,0
8.4905,-0.00016265,0
8.491,-0.000237,0
8.4915,-0.00027208,0
8.492,-0.00026352,0
8.4925,-0.00023499,0
8.4931,-0.00021099,0
8.4936,-0.00018984,0
8.4941,-0.00015895,0
8.4946,-0.00012975,0
8.4951,-0.00011582,0
8.4957,-0.00011917,0
8.4962,-0.00014653,0
8.4967,-0.00018883,0
8.4972,-0.00021485,0
8.4977,-0.00020226,0
8.4983,-0.0001603,0
8.4988,-0.00011095,0
8.4993,-5.9251e-05,0
8.4998,-3.357e-07,0
8.5003,6.4958e-05,0
8.5008,0.0001237,0
8.5014,0.00017104,0
8.5019,0.00021367,0
8.5024,0.00024858,0
8.5029,0.00028417,0
8.5034,0.00032042,0
8.504,0.00032076,0
8.5045,0.00026571,0
8.505,0.00018312,0
8.5055,0.00011061,0
8.506,4.8676e-05,0
8.5066,-1.9638e-05,0
8.5071,-9.5842e-05,0
8.5076,-0.00016936,0
8.5081,-0.00021736,0
8.5086,-0.00022559,0
8.5092,-0.00019521,0
8.5097,-0.00012941,0
8.5102,-4.7501e-05,0
8.5107,2.7359e-05,0
8.5112,0.00010491,0
8.5117,0.00019353,0
8.5123,0.00026302,0
8.5128,0.00028803,0
8.5133,0.00026755,0
8.5138,0.00021955,0
8.5143,0.00015929,0
8.5149,8.7449e-05,0
8.5154,1.8631e-05,0
8.5159,-3.1388e-05,0
8.5164,-5.7237e-05,0
8.5169,-6.2608e-05,0
8.5175,-5.5055e-05,0
8.518,-3.9445e-05,0
8.5185,-3.1388e-05,0
8.519,-4.3137e-05,0
8.5195,-7.1672e-05,0
8.5201,-9.7688e-05,0
8.5206,-9.0974e-05,0
8.5211,-4.3137e-05,0
8.5216,1.9806e-05,0
8.5221,6.8986e-05,0
8.5227,0.00011061,0
8.5232,0.00016097,0
8.5237,0.00022123,0
8.5242,0.00028652,0
8.5247,0.00033251,0
8.5252,0.00035634,0
8.5258,0.00036239,0
8.5263,0.00031942,0
8.5268,0.00021736,0
8.5273,6.9154e-05,0
8.5278,-0.00010021,0
8.5284,-0.00026436,0
8.5289,-0.00039159,0
8.5294,-0.00044883,0
8.5299,-0.0004448,0
8.5304,-0.00041526,0
8.531,-0.00038035,0
8.5315,-0.00035718,0
8.532,-0.0003404,0
8.5325,-0.0003028,0
8.533,-0.00024657,0
8.5336,-0.00019622,0
8.5341,-0.00015476,0
8.5346,-0.00011464,0
8.5351,-7.5532e-05,0
8.5356,-3.8437e-05,0
8.5362,6.5461e-06,0
8.5367,7.6707e-05,0
8.5372,0.00016164,0
8.5377,0.00022911,0
8.5382,0.00025161,0
8.5388,0.00023717,0
8.5393,0.00020729,0
8.5398,0.00017473,0
8.5403,0.00014452,0
8.5408,0.00011867,0
8.5413,9.6513e-05,0
8.5419,8.2414e-05,0
8.5424,8.2078e-05,0
8.5429,8.896e-05,0
8.5434,9.0471e-05,0
8.5439,8.1743e-05,0
8.5445,6.8315e-05,0
8.545,5.9419e-05,0
8.5455,5.8412e-05,0
8.546,6.0594e-05,0
8.5465,6.3615e-05,0
8.5471,6.9322e-05,0
8.5476,7.2007e-05,0
8.5481,6.8147e-05,0
8.5486,6.5461e-05,0
8.5491,7.5868e-05,0
8.5497,9.8527e-05,0
8.5502,0.00011666,0
8.5507,0.00012387,0
8.5512,0.0001368,0
8.5517,0.00016197,0
8.5523,0.00017574,0
8.5528,0.00015828,0
8.5533,0.00012421,0
8.5538,9.601e-05,0
8.5543,7.9057e-05,0
8.5548,7.0665e-05,0
8.5554,6.8818e-05,0
8.5559,7.1672e-05,0
8.5564,7.2343e-05,0
8.5569,5.8076e-05,0
8.5574,2.3667e-05,0
8.558,-1.9806e-05,0
8.5585,-6.0594e-05,0
8.559,-8.6107e-05,0
8.5595,-8.5603e-05,0
8.56,-6.7811e-05,0
8.5606,-5.153e-05,0
8.5611,-4.3305e-05,0
8.5616,-3.7934e-05,0
8.5621,-3.508e-05,0
8.5626,-4.4144e-05,0
8.5632,-6.4622e-05,0
8.5637,-7.1336e-05,0
8.5642,1.6785e-07,0
8.5647,0.00016332,0
8.5652,0.00033385,0
8.5657,0.00043691,0
8.5663,0.00047149,0
8.5668,0.00045739,0
8.5673,0.00039059,0
8.5678,0.00027913,0
8.5683,0.0001556,0
8.5689,4.8844e-05,0
8.5694,-3.9109e-05,0
8.5699,-0.0001284,0
8.5704,-0.0001984,0
8.5709,-0.00023264,0
8.5715,-0.00028232,0
8.572,-0.0003832,0
8.5725,-0.00049146,0
8.573,-0.00055457,0
8.5735,-0.00056616,0
8.5741,-0.0005304,0
8.5746,-0.00045319,0
8.5751,-0.00036071,0
8.5756,-0.00028518,0
8.5761,-0.0002365,0
8.5767,-0.00020125,0
8.5772,-0.00017003,0
8.5777,-0.00014955,0
8.5782,-0.00013764,0
8.5787,-0.00012102,0
8.5793,-9.3492e-05,0
8.5798,-4.5319e-05,0
8.5803,2.0645e-05,0
8.5808,8.5771e-05,0
8.5813,0.00014116,0
8.5818,0.00018346,0
8.5824,0.00021804,0
8.5829,0.00024355,0
8.5834,0.00024691,0
8.5839,0.00022744,0
8.5844,0.00019689,0
8.585,0.0001707,0
8.5855,0.0001509,0
8.586,0.00013545,0
8.5865,0.00013478,0
8.587,0.0001509,0
8.5876,0.00016432,0
8.5881,0.00016231,0
8.5886,0.00015593,0
8.5891,0.00015694,0
8.5896,0.00015627,0
8.5902,0.00015056,0
8.5907,0.0001514,0
8.5912,0.00014922,0
8.5917,0.00013411,0
8.5922,0.00010843,0
8.5928,8.8289e-05,0
8.5933,9.6345e-05,0
8.5938,0.00012857,0
8.5943,0.00015828,0
8.5948,0.0001801,0
8.5953,0.00021115,0
8.5959,0.00025882,0
8.5964,0.00031606,0
8.5969,0.00035433,0
8.5974,0.00033285,0
8.5979,0.00023935,0
8.5985,9.9199e-05,0
8.599,-5.2873e-05,0
8.5995,-0.00018077,0
8.6,-0.00026386,0
8.6005,-0.00030465,0
8.6011,-0.00031707,0
8.6016,-0.00031589,0
8.6021,-0.00031203,0
8.6026,-0.00030935,0
8.6031,-0.00030565,0
8.6037,-0.00029944,0
8.6042,-0.00028988,0
8.6047,-0.00026352,0
8.6052,-0.00019789,0
8.6057,-9.752e-05,0
8.6062,-3.357e-07,0
8.6068,6.714e-05,0
8.6073,0.00011011,0
8.6078,0.00014318,0
8.6083,0.00015459,0
8.6088,0.00013277,0
8.6094,9.0974e-05,0
8.6099,5.9586e-05,0
8.6104,5.2873e-05,0
8.6109,5.388e-05,0
8.6114,4.1123e-05,0
8.612,2.0981e-05,0
8.6125,8.896e-06,0
8.613,8.5603e-06,0
8.6135,1.561e-05,0
8.614,2.5849e-05,0
8.6146,3.4241e-05,0
8.6151,3.508e-05,0
8.6156,3.0045e-05,0
8.6161,2.6688e-05,0
8.6166,2.5681e-05,0
8.6172,2.3163e-05,0
8.6177,1.7624e-05,0
8.6182,1.3596e-05,0
8.6187,1.4267e-05,0
8.6192,2.4338e-05,0
8.6197,4.0787e-05,0
8.6203,5.4215e-05,0
8.6208,6.3615e-05,0
8.6213,7.0665e-05,0
8.6218,7.8386e-05,0
8.6223,8.3421e-05,0
8.6229,8.1071e-05,0
8.6234,7.3182e-05,0
8.6239,6.6972e-05,0
8.6244,6.7979e-05,0
8.6249,8.7785e-05,0
8.6255,0.000142,0
8.626,0.00022945,0
8.6265,0.00030867,0
8.627,0.00034224,0
8.6275,0.00033855,0
8.6281,0.00033016,0
8.6286,0.00032479,0
8.6291,0.00030062,0
8.6296,0.00023734,0
8.6301,0.00013143,0
8.6307,9.7353e-06,0
8.6312,-9.2317e-05,0
8.6317,-0.00016936,0
8.6322,-0.00022492,0
8.6327,-0.00025966,0
8.6333,-0.00029038,0
8.6338,-0.00032143,0
8.6343,-0.00032815,0
8.6348,-0.00029088,0
8.6353,-0.00022643,0
8.6358,-0.00017221,0
8.6364,-0.00014015,0
8.6369,-0.0001185,0
8.6374,-9.366e-05,0
8.6379,-5.9586e-05,0
8.6384,-1.9303e-05,0
8.639,2.1317e-05,0
8.6395,5.4215e-05,0
8.64,7.2007e-05,0
8.6405,8.4932e-05,0
8.641,0.00011431,0
8.6416,0.00015224,0
8.6421,0.00015996,0
8.6426,0.00013378,0
8.6431,0.00010004,0
8.6436,7.335e-05,0
8.6442,5.4551e-05,0
8.6447,4.7501e-05,0
8.6452,5.9586e-05,0
8.6457,8.9799e-05,0
8.6462,0.00013948,0
8.6468,0.00022794,0
8.6473,0.0003211,0
8.6478,0.00034124,0
8.6483,0.00025194,0
8.6488,0.00010491,0
8.6493,-2.1149e-05,0
8.6499,-9.8527e-05,0
8.6504,-0.0001566,0
8.6509,-0.00021703,0
8.6514,-0.00027091,0
8.6519,-0.00030834,0
8.6525,-0.0003268,0
8.653,-0.0003023,0
8.6535,-0.00020562,0
8.654,-8.426e-05,0
8.6545,-2.8031e-05,0
8.6551,-3.6423e-05,0
8.6556,-4.2802e-05,0
8.6561,-1.8128e-05,0
8.6566,1.4267e-05,0
8.6571,1.9638e-05,0
8.6577,-9.5674e-06,0
8.6582,-5.2033e-05,0
8.6587,-9.6513e-05,0
8.6592,-0.00014318,0
8.6597,-0.00019336,0
8.6602,-0.00023197,0
8.6608,-0.00024909,0
8.6613,-0.00023885,0
8.6618,-0.00019554,0
8.6623,-0.00012522,0
8.6628,-4.9516e-05,0
8.6634,8.2246e-06,0
8.6639,5.8244e-05,0
8.6644,0.00012605,0
8.6649,0.00020662,0
8.6654,0.00026554,0
8.666,0.00028635,0
8.6665,0.00028249,0
8.667,0.00026201,0
8.6675,0.00022341,0
8.668,0.0001791,0
8.6686,0.00013931,0
8.6691,0.00010507,0
8.6696,8.04e-05,0
8.6701,7.1e-05,0
8.6706,7.6707e-05,0
8.6712,8.9632e-05,0
8.6717,0.0001039,0
8.6722,0.00011347,0
8.6727,9.5842e-05,0
8.6732,3.978e-05,0
8.6738,-2.4338e-05,0
8.6743,-5.6733e-05,0
8.6748,-5.5558e-05,0
8.6753,-4.1459e-05,0
8.6758,-2.6184e-05,0
8.6763,-9.7353e-06,0
8.6769,1.091e-05,0
8.6774,3.6591e-05,0
8.6779,8.0232e-05,0
8.6784,0.00015996,0
8.6789,0.00025631,0
8.6795,0.00032613,0
8.68,0.00035702,0
8.6805,0.00036323,0
8.681,0.00034208,0
8.6815,0.00028283,0
8.6821,0.00019924,0
8.6826,0.000118,0
8.6831,4.8005e-05,0
8.6836,-2.2828e-05,0
8.6841,-9.6178e-05,0
8.6847,-0.00014788,0
8.6852,-0.00017288,0
8.6857,-0.00019471,0
8.6862,-0.00022509,0
8.6867,-0.00023247,0
8.6873,-0.00019454,0
8.6878,-0.00013663,0
8.6883,-9.0471e-05,0
8.6888,-4.3641e-05,0
8.6893,1.5946e-05,0
8.6898,8.4428e-05,0
8.6904,0.00014351,0
8.6909,0.0001514,0
8.6914,9.5842e-05,0
8.6919,6.8818e-06,0
8.6924,-8.7785e-05,0
8.693,-0.00017272,0
8.6935,-0.00022911,0
8.694,-0.00024506,0
8.6945,-0.00022374,0
8.695,-0.00017238,0
8.6956,-0.00011028,0
8.6961,-5.4719e-05,0
8.6966,-1.5778e-05,0
8.6971,-2.0142e-06,0
8.6976,-1.1078e-05,0
8.6982,-1.7288e-05,0
8.6987,5.8747e-06,0
8.6992,5.1698e-05,0
8.6997,8.6946e-05,0
8.7002,9.5338e-05,0
8.7007,8.9464e-05,0
8.7013,8.6275e-05,0
8.7018,8.9632e-05,0
8.7023,9.987e-05,0
8.7028,0.0001138,0
8.7033,0.00011833,0
8.7039,0.00010793,0
8.7044,8.6275e-05,0
8.7049,7.7043e-05,0
8.7054,9.6513e-05,0
8.7059,0.00012102,0
8.7065,0.00012169,0
8.707,0.000118,0
8.7075,0.00014838,0
8.708,0.00019454,0
8.7085,0.00021871,0
8.7091,0.00022089,0
8.7096,0.00021384,0
8.7101,0.00018782,0
8.7106,0.00013579,0
8.7111,5.6565e-05,0
8.7117,-3.8773e-05,0
8.7122,-0.00012471,0
8.7127,-0.00018799,0
8.7132,-0.00022391,0
8.7137,-0.00023113,0
8.7143,-0.00021501,0
8.7148,-0.00018766,0
8.7153,-0.00015425,0
8.7158,-0.00011313,0
8.7163,-6.2608e-05,0
8.7168,-5.539e-06,0
8.7174,4.8173e-05,0
8.7179,7.335e-05,0
8.7184,6.0929e-05,0
8.7189,3.1891e-05,0
8.7194,-8.3925e-07,0
8.72,-4.0116e-05,0
8.7205,-8.51e-05,0
8.721,-0.00012874,0
8.7215,-0.00015727,0
8.722,-0.00016667,0
8.7226,-0.00015996,0
8.7231,-0.0001274,0
8.7236,-5.6901e-05,0
8.7241,2.7863e-05,0
8.7246,8.3421e-05,0
8.7252,0.00010071,0
8.7257,0.00010188,0
8.7262,0.00010927,0
8.7267,0.00012673,0
8.7272,0.00014469,0
8.7278,0.00018782,0
8.7283,0.00029693,0
8.7288,0.00044463,0
8.7293,0.00056515,0
8.7298,0.00061819,0
8.7303,0.00062692,0
8.7309,0.0005779,0
8.7314,0.00041878,0
8.7319,0.00015627,0
8.7324,-0.00011951,0
8.7329,-0.00031455,0
8.7335,-0.00041643,0
8.734,-0.00045957,0
8.7345,-0.00045017,0
8.735,-0.00037565,0
8.7355,-0.00025194,0
8.7361,-0.00013898,0
8.7366,-7.4022e-05,0
8.7371,-5.1865e-05,0
8.7376,-4.3977e-05,0
8.7381,-4.0955e-05,0
8.7387,-5.2705e-05,0
8.7392,-8.04e-05,0
8.7397,-0.00010977,0
8.7402,-0.00012924,0
8.7407,-0.00013411,0
8.7413,-0.00014603,0
8.7418,-0.00018598,0
8.7423,-0.00023902,0
8.7428,-0.00026889,0
8.7433,-0.00026638,0
8.7438,-0.00025882,0
8.7444,-0.00025463,0
8.7449,-0.0002271,0
8.7454,-0.00016332,0
8.7459,-8.4932e-05,0
8.7464,-1.8296e-05,0
8.747,2.5177e-05,0
8.7475,4.1962e-05,0
8.748,4.1962e-05,0
8.7485,3.9612e-05,0
8.749,4.2802e-05,0
8.7496,6.2272e-05,0
8.7501,9.9535e-05,0
8.7506,0.00013982,0
8.7511,0.00016735,0
8.7516,0.00018279,0
8.7522,0.00019655,0
8.7527,0.00020797,0
8.7532,0.0002177,0
8.7537,0.00023146,0
8.7542,0.00024623,0
8.7547,0.00026084,0
8.7553,0.00027578,0
8.7558,0.00028551,0
8.7563,0.00027779,0
8.7568,0.00024556,0
8.7573,0.00019588,0
8.7579,0.00014536,0
8.7584,0.00010423,0
8.7589,7.7546e-05,0
8.7594,6.3279e-05,0
8.7599,5.2873e-05,0
8.7605,3.743e-05,0
8.761,2.1988e-05,0
8.7615,2.5849e-05,0
8.762,6.8818e-05,0
8.7625,0.00012471,0
8.7631,0.00016214,0
8.7636,0.00018749,0
8.7641,0.00020444,0
8.7646,0.00019303,0
8.7651,0.00014939,0
8.7657,9.0806e-05,0
8.7662,2.9877e-05,0
8.7667,-2.3835e-05,0
8.7672,-5.9586e-05,0
8.7677,-6.9825e-05,0
8.7683,-5.7908e-05,0
8.7688,-5.3208e-05,0
8.7693,-8.1743e-05,0
8.7698,-0.00012605,0
8.7703,-0.00015157,0
8.7708,-0.00014116,0
8.7714,-0.00010742,0
8.7719,-7.4357e-05,0
8.7724,-5.8579e-05,0
8.7729,-5.7572e-05,0
8.7734,-6.5965e-05,0
8.774,-8.3757e-05,0
8.7745,-9.987e-05,0
8.775,-9.6681e-05,0
8.7755,-6.7643e-05,0
8.776,-1.3596e-05,0
8.7766,4.7166e-05,0
8.7771,8.9799e-05,0
8.7776,0.00011615,0
8.7781,0.00015828,0
8.7786,0.00023919,0
8.7792,0.00033687,0
8.7797,0.00038924,0
8.7802,0.00035735,0
8.7807,0.00027208,0
8.7812,0.00018984,0
8.7818,0.00011833,0
8.7823,2.6688e-05,0
8.7828,-9.5003e-05,0
8.7833,-0.00020528,0
8.7838,-0.00025949,0
8.7843,-0.00026117,0
8.7849,-0.00023751,0
8.7854,-0.00020662,0
8.7859,-0.00017389,0
8.7864,-0.00012975,0
8.7869,-6.5965e-05,0
8.7875,2.2995e-05,0
8.788,0.00010524,0
8.7885,0.00013378,0
8.789,0.00010927,0
8.7895,7.57e-05,0
8.7901,6.6972e-05,0
8.7906,7.6707e-05,0
8.7911,7.3854e-05,0
8.7916,3.6088e-05,0
8.7921,-3.1388e-05,0
8.7927,-0.00010692,0
8.7932,-0.0001655,0
8.7937,-0.00020092,0
8.7942,-0.00022861,0
8.7947,-0.00025261,0
8.7952,-0.00025664,0
8.7958,-0.00023751,0
8.7963,-0.00020444,0
8.7968,-0.00016735,0
8.7973,-0.00013378,0
8.7978,-0.00011968,0
8.7984,-0.00012505,0
8.7989,-0.00012572,0
8.7994,-0.00010793,0
8.7999,-7.335e-05,0
8.8004,-2.9038e-05,0
8.801,1.561e-05,0
8.8015,4.5991e-05,0
8.802,5.7404e-05,0
8.8025,6.0929e-05,0
8.803,6.1097e-05,0
8.8036,5.3544e-05,0
8.8041,3.827e-05,0
8.8046,2.4002e-05,0
8.8051,1.8296e-05,0
8.8056,2.266e-05,0
8.8062,3.827e-05,0
8.8067,6.0929e-05,0
8.8072,8.3589e-05,0
8.8077,0.00011095,0
8.8082,0.00015644,0
8.8087,0.00023717,0
8.8093,0.00032932,0
8.8098,0.00038589,0
8.8103,0.00039193,0
8.8108,0.00036272,0
8.8113,0.000307,0
8.8119,0.00023079,0
8.8124,0.00014687,0
8.8129,6.4286e-05,0
8.8134,8.3925e-07,0
8.8139,-3.3906e-05,0
8.8145,-4.7333e-05,0
8.815,-5.0523e-05,0
8.8155,-4.2466e-05,0
8.816,-2.8367e-05,0
8.8165,-1.9638e-05,0
8.8171,-2.1988e-05,0
8.8176,-2.8534e-05,0
8.8181,-2.6017e-05,0
8.8186,-1.1917e-05,0
8.8191,8.3925e-07,0
8.8197,7.8889e-06,0
8.8202,1.3596e-05,0
8.8207,1.9638e-05,0
8.8212,3.4409e-05,0
8.8217,6.2943e-05,0
8.8223,9.0135e-05,0
8.8228,9.2821e-05,0
8.8233,7.2007e-05,0
8.8238,4.3809e-05,0
8.8243,3.1891e-05,0
8.8248,5.6901e-05,0
8.8254,0.00010121,0
8.8259,0.0001227,0
8.8264,0.00011128,0
8.8269,9.5171e-05,0
8.8274,9.7185e-05,0
8.828,0.00010826,0
8.8285,0.00010423,0
8.829,8.896e-05,0
8.8295,8.5771e-05,0
8.83,0.00010323,0
8.8306,0.00011464,0
8.8311,9.4163e-05,0
8.8316,5.5558e-05,0
8.8321,-1.6785e-07,0
8.8326,-8.8289e-05,0
8.8332,-0.00018833,0
8.8337,-0.00025513,0
8.8342,-0.00026889,0
8.8347,-0.0002412,0
8.8352,-0.00018447,0
8.8358,-0.00010088,0
8.8363,-1.1749e-06,0
8.8368,8.9799e-05,0
8.8373,0.00013948,0
8.8378,0.00014485,0
8.8383,0.00013931,0
8.8389,0.0001514,0
8.8394,0.0001791,0
8.8399,0.00020175,0
8.8404,0.00021115,0
8.8409,0.0002078,0
8.8415,0.0001754,0
8.842,9.3156e-05,0
8.8425,-3.357e-06,0
8.843,-5.9754e-05,0
8.8435,-7.4693e-05,0
8.8441,-0.00010524,0
8.8446,-0.00017238,0
8.8451,-0.00022626,0
8.8456,-0.00022844,0
8.8461,-0.00020293,0
8.8467,-0.00017272,0
8.8472,-0.00012807,0
8.8477,-5.5558e-05,0
8.8482,2.5345e-05,0
8.8487,6.4118e-05,0
8.8492,4.9516e-05,0
8.8498,3.592e-05,0
8.8503,5.8579e-05,0
8.8508,0.00011531,0
8.8513,0.00016768,0
8.8518,0.00017137,0
8.8524,0.00012303,0
8.8529,4.3473e-05,0
8.8534,-5.388e-05,0
8.8539,-0.00015627,0
8.8544,-0.00023381,0
8.855,-0.0002647,0
8.8555,-0.00026705,0
8.856,-0.0002553,0
8.8565,-0.00025362,0
8.857,-0.00029541,0
8.8576,-0.00038102,0
8.8581,-0.00045,0
8.8586,-0.00045621,0
8.8591,-0.00039797,0
8.8596,-0.00030599,0
8.8602,-0.00021401,0
8.8607,-0.00012773,0
8.8612,-3.7095e-05,0
8.8617,5.0019e-05,0
8.8622,0.00010121,0
8.8628,0.00010423,0
8.8633,8.3085e-05,0
8.8638,6.1601e-05,0
8.8643,4.8676e-05,0
8.8648,4.9516e-05,0
8.8653,6.9993e-05,0
8.8659,0.00010239,0
8.8664,0.00013277,0
8.8669,0.00017037,0
8.8674,0.00024154,0
8.8679,0.00034023,0
8.8685,0.00040267,0
8.869,0.00038958,0
8.8695,0.00034292,0
8.87,0.00030834,0
8.8705,0.00028719,0
8.8711,0.00025765,0
8.8716,0.00021434,0
8.8721,0.00018749,0
8.8726,0.00021132,0
8.8731,0.00028904,0
8.8737,0.00037665,0
8.8742,0.00042348,0
8.8747,0.0004547,0
8.8752,0.00050405,0
8.8757,0.00053594,0
8.8763,0.00050002,0
8.8768,0.00039998,0
8.8773,0.00029525,0
8.8778,0.00021418,0
8.8783,0.00012169,0
8.8788,-1.2589e-05,0
8.8794,-0.00017053,0
8.8799,-0.00030935,0
8.8804,-0.00041056,0
8.8809,-0.00047283,0
8.8814,-0.00048458,0
8.882,-0.00042029,0
8.8825,-0.00030431,0
8.883,-0.00021099,0
8.8835,-0.00016735,0
8.884,-0.00012723,0
8.8846,-7.4357e-05,0
8.8851,-5.7237e-05,0
8.8856,-9.1981e-05,0
8.8861,-0.00015325,0
8.8866,-0.00021199,0
8.8872,-0.00024892,0
8.8877,-0.00023381,0
8.8882,-0.00015258,0
8.8887,-5.5894e-05,0
8.8892,2.5177e-06,0
8.8897,2.8702e-05,0
8.8903,4.6159e-05,0
8.8908,3.9612e-05,0
8.8913,3.1891e-06,0
8.8918,-3.1556e-05,0
8.8923,-3.978e-05,0
8.8929,-3.1891e-05,0
8.8934,-3.3738e-05,0
8.8939,-2.0645e-05,0
8.8944,5.1194e-05,0
8.8949,0.00013613,0
8.8955,0.00016634,0
8.896,0.00013898,0
8.8965,9.3156e-05,0
8.897,6.244e-05,0
8.8975,6.2272e-05,0
8.8981,9.0806e-05,0
8.8986,0.0001462,0
8.8991,0.00021451,0
8.8996,0.00026201,0
8.9001,0.00027964,0
8.9007,0.00027913,0
8.9012,0.00026957,0
8.9017,0.00023583,0
8.9022,0.00017708,0
8.9027,0.00012119,0
8.9032,9.3828e-05,0
8.9038,9.3156e-05,0
8.9043,9.4499e-05,0
8.9048,6.244e-05,0
8.9053,-1.561e-05,0
8.9058,-0.00010558,0
8.9064,-0.00016164,0
8.9069,-0.00018665,0
8.9074,-0.00021602,0
8.9079,-0.00025379,0
8.9084,-0.00027544,0
8.909,-0.00027124,0
8.9095,-0.00026084,0
8.91,-0.00026268,0
8.9105,-0.00027192,0
8.911,-0.00026369,0
8.9116,-0.00021317,0
8.9121,-0.00012287,0
8.9126,-3.5416e-05,0
8.9131,2.7863e-05,0
8.9136,0.00010155,0
8.9142,0.00022072,0
8.9147,0.00034493,0
8.9152,0.00039663,0
8.9157,0.00037145,0
8.9162,0.00032042,0
8.9168,0.00026722,0
8.9173,0.00019001,0
8.9178,8.7617e-05,0
8.9183,-1.1246e-05,0
8.9188,-8.1743e-05,0
8.9193,-0.00012169,0
8.9199,-0.00014318,0
8.9204,-0.0001655,0
8.9209,-0.00019152,0
8.9214,-0.00021233,0
8.9219,-0.00020797,0
8.9225,-0.0001895,0
8.923,-0.00018128,0
8.9235,-0.00016584,0
8.924,-0.00012488,0
8.9245,-7.6036e-05,0
8.9251,-2.2828e-05,0
8.9256,5.0858e-05,0
8.9261,0.00013378,0
8.9266,0.00018849,0
8.9271,0.00020729,0
8.9277,0.00020377,0
8.9282,0.00019504,0
8.9287,0.00019319,0
8.9292,0.00019521,0
8.9297,0.00020024,0
8.9302,0.00022525,0
8.9308,0.00024993,0
8.9313,0.00023935,0
8.9318,0.00019991,0
8.9323,0.00016164,0
8.9328,0.00012639,0
8.9334,7.7043e-05,0
8.9339,1.9638e-05,0
8.9344,-2.3163e-05,0
8.9349,-2.9709e-05,0
8.9354,-6.3783e-06,0
8.936,2.4674e-05,0
8.9365,5.5726e-05,0
8.937,8.1743e-05,0
8.9375,9.5171e-05,0
8.938,9.3156e-05,0
8.9386,6.3279e-05,0
8.9391,7.7211e-06,0
8.9396,-3.9948e-05,0
8.9401,-5.9251e-05,0
8.9406,-5.3208e-05,0
8.9412,-1.2924e-05,0
8.9417,4.1459e-05,0
8.9422,5.5894e-05,0
8.9427,3.0716e-05,0
8.9432,-6.8818e-06,0
8.9437,-5.1865e-05,0
8.9443,-8.7114e-05,0
8.9448,-9.4163e-05,0
8.9453,-6.1601e-05,0
8.9458,2.5177e-06,0
8.9463,7.9728e-05,0
8.9469,0.00014351,0
8.9474,0.00015409,0
8.9479,9.4499e-05,0
8.9484,-1.3931e-05,0
8.9489,-0.00014368,0
8.9495,-0.00025496,0
8.95,-0.00031875,0
8.9505,-0.00033503,0
8.951,-0.000307,0
8.9515,-0.00023935,0
8.9521,-0.00014636,0
8.9526,-7.0832e-05,0
8.9531,-3.1388e-05,0
8.9536,2.0142e-06,0
8.9541,5.388e-05,0
8.9547,9.9199e-05,0
8.9552,0.0001232,0
8.9557,0.00012807,0
8.9562,0.00014385,0
8.9567,0.00023079,0
8.9573,0.00035836,0
8.9578,0.00043859,0
8.9583,0.0004443,0
8.9588,0.00041274,0
8.9593,0.00039562,0
8.9598,0.00035534,0
8.9604,0.00021569,0
8.9609,-5.7069e-06,0
8.9614,-0.00021837,0
8.9619,-0.00037514,0
8.9624,-0.00047585,0
8.963,-0.00053376,0
8.9635,-0.0005576,0
8.964,-0.00053896,0
8.9645,-0.00048458,0
8.965,-0.00042214,0
8.9656,-0.00037179,0
8.9661,-0.00031841,0
8.9666,-0.0002365,0
8.9671,-0.00013193,0
8.9676,-3.4577e-05,0
8.9682,4.1459e-05,0
8.9687,9.8863e-05,0
8.9692,0.00014015,0
8.9697,0.00016466,0
8.9702,0.00017641,0
8.9708,0.00018279,0
8.9713,0.00019722,0
8.9718,0.00023062,0
8.9723,0.00027108,0
8.9728,0.00031237,0
8.9733,0.00036239,0
8.9739,0.00041946,0
8.9744,0.00047787,0
8.9749,0.00053661,0
8.9754,0.00055911,0
8.9759,0.00049935,0
8.9765,0.00036759,0
8.977,0.00021602,0
8.9775,8.5603e-05,0
8.978,-1.3764e-05,0
8.9785,-8.1239e-05,0
8.9791,-8.7617e-05,0
8.9796,-3.6423e-05,0
8.9801,-1.0071e-05,0
8.9806,-5.4047e-05,0
8.9811,-0.0001519,0
8.9817,-0.00028266,0
8.9822,-0.00040284,0
8.9827,-0.0004542,0
8.9832,-0.00042029,0
8.9837,-0.00032328,0
8.9842,-0.00019991,0
8.9848,-8.4932e-05,0
8.9853,1.1749e-06,0
8.9858,6.1936e-05,0
8.9863,0.00012874,0
8.9868,0.00023079,0
8.9874,0.0003409,0
8.9879,0.00042416,0
8.9884,0.00046175,0
8.9889,0.00046545,0
8.9894,0.0004396,0
8.99,0.00037581,0
8.9905,0.00028014,0
8.991,0.00014754,0
8.9915,-1.1414e-05,0
8.992,-0.0001749,0
8.9926,-0.00033738,0
8.9931,-0.00048139,0
8.9936,-0.00059855,0
8.9941,-0.00067324,0
8.9946,-0.00066502,0
8.9952,-0.00056179,0
8.9957,-0.00041056,0
8.9962,-0.00027561,0
8.9967,-0.00017003,0
8.9972,-7.1839e-05,0
8.9977,1.091e-05,0
8.9983,5.9586e-05,0
8.9988,7.6036e-05,0
8.9993,7.5029e-05,0
8.9998,6.5629e-05,0
9.0003,5.3544e-05,0
9.0009,4.3305e-05,0
9.0014,3.7263e-05,0
9.0019,4.1123e-05,0
9.0024,6.2776e-05,0
9.0029,0.00010188,0
9.0035,0.00016231,0
9.004,0.0002318,0
9.0045,0.00027578,0
9.005,0.00028618,0
9.0055,0.00028954,0
9.0061,0.00032311,0
9.0066,0.00039361,0
9.0071,0.00047317,0
9.0076,0.00051328,0
9.0081,0.00051009,0
9.0087,0.00047988,0
9.0092,0.00042416,0
9.0097,0.00033687,0
9.0102,0.00020159,0
9.0107,3.2059e-05,0
9.0113,-0.00012773,0
9.0118,-0.00024254,0
9.0123,-0.00030918,0
9.0128,-0.00034191,0
9.0133,-0.00035819,0
9.0138,-0.00037044,0
9.0144,-0.00038202,0
9.0149,-0.00038941,0
9.0154,-0.00037917,0
9.0159,-0.00033486,0
9.0164,-0.00025563,0
9.017,-0.00015979,0
9.0175,-7.0497e-05,0
9.018,-2.182e-06,0
9.0185,4.2802e-05,0
9.019,6.9322e-05,0
9.0196,8.7785e-05,0
9.0201,0.00013277,0
9.0206,0.00023801,0
9.0211,0.00037212,0
9.0216,0.00046914,0
9.0222,0.0005299,0
9.0227,0.00060006,0
9.0232,0.00065512,0
9.0237,0.00063497,0
9.0242,0.00051379,0
9.0247,0.00031673,0
9.0253,0.00010188,0
9.0258,-9.5506e-05,0
9.0263,-0.00027645,0
9.0268,-0.00041727,0
9.0273,-0.00050623,0
9.0279,-0.0005727,0
9.0284,-0.00063128,0
9.0289,-0.00064555,0
9.0294,-0.0005967,0
9.0299,-0.00051614,0
9.0305,-0.00044547,0
9.031,-0.00038639,0
9.0315,-0.00031707,0
9.032,-0.00022005,0
9.0325,-9.131e-05,0
9.0331,4.7333e-05,0
9.0336,0.00017523,0
9.0341,0.00029525,0
9.0346,0.00038219,0
9.0351,0.00039579,0
9.0357,0.00034459,0
9.0362,0.00028081,0
9.0367,0.0002365,0
9.0372,0.00019017,0
9.0377,0.00012001,0
9.0382,4.6326e-05,0
9.0388,2.182e-06,0
9.0393,-2.1653e-05,0
9.0398,-5.388e-05,0
9.0403,-8.2414e-05,0
9.0408,-8.6778e-05,0
9.0414,-8.6778e-05,0
9.0419,-9.2821e-05,0
9.0424,-7.9057e-05,0
9.0429,-2.7527e-05,0
9.0434,5.8412e-05,0
9.044,0.00015627,0
9.0445,0.00021199,0
9.045,0.00020343,0
9.0455,0.00016432,0
9.046,0.00013143,0
9.0466,0.00010256,0
9.0471,7.7211e-05,0
9.0476,7.5029e-05,0
9.0481,0.00010893,0
9.0486,0.00014217,0
9.0492,0.00013747,0
9.0497,0.00010625,0
9.0502,6.1936e-05,0
9.0507,4.8676e-06,0
9.0512,-6.1601e-05,0
9.0518,-0.0001086,0
9.0523,-0.00010658,0
9.0528,-7.7043e-05,0
9.0533,-4.5151e-05,0
9.0538,-1.3092e-05,0
9.0543,2.0981e-05,0
9.0549,5.0187e-05,0
9.0554,6.5126e-05,0
9.0559,6.4286e-05,0
9.0564,5.2033e-05,0
9.0569,3.2395e-05,0
9.0575,8.2246e-06,0
9.058,-1.5778e-05,0
9.0585,-3.8437e-05,0
9.059,-6.1601e-05,0
9.0595,-7.3182e-05,0
9.0601,-5.2201e-05,0
9.0606,6.714e-07,0
9.0611,5.2201e-05,0
9.0616,8.5435e-05,0
9.0621,0.00012085,0
9.0627,0.00015828,0
9.0632,0.00016617,0
9.0637,0.0001368,0
9.0642,0.00010121,0
9.0647,8.2414e-05,0
9.0653,7.7714e-05,0
9.0658,7.4189e-05,0
9.0663,6.2608e-05,0
9.0668,4.6159e-05,0
9.0673,3.7095e-05,0
9.0678,4.3473e-05,0
9.0684,6.7811e-05,0
9.0689,0.00010121,0
9.0694,0.00013948,0
9.0699,0.00018144,0
9.0704,0.00020998,0
9.071,0.00019437,0
9.0715,0.00012941,0
9.072,5.1194e-05,0
9.0725,-1.0575e-05,0
9.073,-4.9851e-05,0
9.0736,-7.6539e-05,0
9.0741,-0.00010658,0
9.0746,-0.00012941,0
9.0751,-0.00014133,0
9.0756,-0.00017037,0
9.0762,-0.00021451,0
9.0767,-0.00024439,0
9.0772,-0.00023851,0
9.0777,-0.00019605,0
9.0782,-0.00013613,0
9.0787,-6.5293e-05,0
9.0793,8.5603e-06,0
9.0798,5.3544e-05,0
9.0803,5.8579e-05,0
9.0808,3.7934e-05,0
9.0813,1.0575e-05,0
9.0819,-7.7211e-06,0
9.0824,-1.3428e-05,0
9.0829,-3.0213e-06,0
9.0834,2.8031e-05,0
9.0839,7.0161e-05,0
9.0845,0.0001086,0
9.085,0.00012992,0
9.0855,0.0001462,0
9.086,0.00016147,0
9.0865,0.00016013,0
9.0871,0.00013713,0
9.0876,0.00010709,0
9.0881,9.3828e-05,0
9.0886,0.00011666,0
9.0891,0.00015123,0
9.0897,0.00013613,0
9.0902,7.4525e-05,0
9.0907,2.6184e-05,0
9.0912,2.5177e-06,0
9.0917,-3.4241e-05,0
9.0922,-0.00010188,0
9.0928,-0.00016869,0
9.0933,-0.00021418,0
9.0938,-0.00026453,0
9.0943,-0.00032177,0
9.0948,-0.00035164,0
9.0954,-0.00033654,0
9.0959,-0.00029004,0
9.0964,-0.00024154,0
9.0969,-0.00019605,0
9.0974,-0.00010927,0
9.098,2.9038e-05,0
9.0985,0.00017356,0
9.099,0.00027108,0
9.0995,0.00031136,0
9.1,0.00030129,0
9.1006,0.00025228,0
9.1011,0.00017826,0
9.1016,0.00010658,0
9.1021,5.1865e-05,0
9.1026,4.8676e-06,0
9.1032,-3.4913e-05,0
9.1037,-6.2272e-05,0
9.1042,-7.2007e-05,0
9.1047,-6.3951e-05,0
9.1052,-6.2608e-05,0
9.1058,-8.5435e-05,0
9.1063,-0.00012874,0
9.1068,-0.00017003,0
9.1073,-0.00018312,0
9.1078,-0.00015157,0
9.1083,-8.5435e-05,0
9.1089,-1.5946e-05,0
9.1094,3.7934e-05,0
9.1099,7.5532e-05,0
9.1104,9.8527e-05,0
9.1109,0.00010994,0
9.1115,0.00011128,0
9.112,0.00010256,0
9.1125,8.8121e-05,0
9.113,7.3518e-05,0
9.1135,6.1265e-05,0
9.1141,5.4887e-05,0
9.1146,6.2272e-05,0
9.1151,8.9799e-05,0
9.1156,0.00013831,0
9.1161,0.00018984,0
9.1167,0.00023381,0
9.1172,0.00026302,0
9.1177,0.00026671,0
9.1182,0.00024271,0
9.1187,0.00020394,0
9.1192,0.00017943,0
9.1198,0.00018279,0
9.1203,0.00019722,0
9.1208,0.00020612,0
9.1213,0.00020931,0
9.1218,0.00020645,0
9.1224,0.00018849,0
9.1229,0.00015476,0
9.1234,0.00010675,0
9.1239,4.7501e-05,0
9.1244,-1.6449e-05,0
9.125,-7.7714e-05,0
9.1255,-0.00013243,0
9.126,-0.00018665,0
9.1265,-0.00024523,0
9.127,-0.00029088,0
9.1276,-0.0003033,0
9.1281,-0.00028064,0
9.1286,-0.00022643,0
9.1291,-0.00013109,0
9.1296,1.2421e-05,0
9.1302,0.00016869,0
9.1307,0.00027443,0
9.1312,0.00029978,0
9.1317,0.00026067,0
9.1322,0.00021317,0
9.1328,0.00021468,0
9.1333,0.0002511,0
9.1338,0.00026101,0
9.1343,0.00021199,0
9.1348,0.00013411,0
9.1353,4.448e-05,0
9.1359,-6.9322e-05,0
9.1364,-0.00019756,0
9.1369,-0.00031254,0
9.1374,-0.00037447,0
9.1379,-0.00037917,0
9.1385,-0.00034829,0
9.139,-0.00028719,0
9.1395,-0.00022156,0
9.14,-0.00019403,0
9.1405,-0.00020679,0
9.1411,-0.00021837,0
9.1416,-0.00019319,0
9.1421,-0.00013344,0
9.1426,-6.5293e-05,0
9.1431,-2.5681e-05,0
9.1437,-1.5946e-05,0
9.1442,4.6998e-06,0
9.1447,5.623e-05,0
9.1452,0.00011196,0
9.1457,0.00015946,0
9.1463,0.00021367,0
9.1468,0.00027611,0
9.1473,0.00032277,0
9.1478,0.00033452,0
9.1483,0.00030297,0
9.1488,0.00023835,0
9.1494,0.00017423,0
9.1499,0.00013344,0
9.1504,0.00011632,0
9.1509,0.00011649,0
9.1514,9.6849e-05,0
9.152,3.3402e-05,0
9.1525,-4.2466e-05,0
9.153,-8.51e-05,0
9.1535,-0.00010591,0
9.154,-0.00014166,0
9.1546,-0.00019471,0
9.1551,-0.00023331,0
9.1556,-0.00023835,0
9.1561,-0.00021518,0
9.1566,-0.00017876,0
9.1572,-0.00013613,0
9.1577,-9.6681e-05,0
9.1582,-7.335e-05,0
9.1587,-6.865e-05,0
9.1592,-6.9657e-05,0
9.1598,-4.8676e-05,0
9.1603,1.2924e-05,0
9.1608,9.5506e-05,0
9.1613,0.00015425,0
9.1618,0.00018379,0
9.1623,0.00020662,0
9.1629,0.00023432,0
9.1634,0.00027309,0
9.1639,0.00031505,0
9.1644,0.0003221,0
9.1649,0.00027745,0
9.1655,0.00022173,0
9.166,0.00018379,0
9.1665,0.00014871,0
9.167,0.00010608,0
9.1675,5.5894e-05,0
9.1681,-8.3925e-06,0
9.1686,-8.1407e-05,0
9.1691,-0.00014586,0
9.1696,-0.00019554,0
9.1701,-0.0002365,0
9.1707,-0.00027897,0
9.1712,-0.00031086,0
9.1717,-0.00029122,0
9.1722,-0.00020595,0
9.1727,-0.00010021,0
9.1732,-2.6017e-05,0
9.1738,4.8676e-06,0
9.1743,1.1582e-05,0
9.1748,1.326e-05,0
9.1753,2.0645e-05,0
9.1758,3.8437e-05,0
9.1764,6.7811e-05,0
9.1769,9.8527e-05,0
9.1774,0.00014116,0
9.1779,0.00023784,0
9.1784,0.00039042,0
9.179,0.0005252,0
9.1795,0.00055273,0
9.18,0.00046545,0
9.1805,0.0003409,0
9.181,0.00024288,0
9.1816,0.00015543,0
9.1821,3.5752e-05,0
9.1826,-0.00010759,0
9.1831,-0.00023264,0
9.1836,-0.00031942,0
9.1842,-0.00037766,0
9.1847,-0.00041727,0
9.1852,-0.00044111,0
9.1857,-0.00044581,0
9.1862,-0.00041509,0
9.1867,-0.0003362,0
9.1873,-0.00022643,0
9.1878,-0.00012706,0
9.1883,-6.1433e-05,0
9.1888,-2.2995e-05,0
9.1893,5.0355e-06,0
9.1899,3.0045e-05,0
9.1904,4.2802e-05,0
9.1909,4.5823e-05,0
9.1914,4.9348e-05,0
9.1919,6.5293e-05,0
9.1925,0.00012102,0
9.193,0.00022408,0
9.1935,0.00036222,0
9.194,0.00050842,0
9.1945,0.00062759,0
9.1951,0.0007048,0
9.1956,0.00075448,0
9.1961,0.00077597,0
9.1966,0.00072863,0
9.1971,0.0006051,0
9.1977,0.00045101,0
9.1982,0.00028283,0
9.1987,8.3085e-05,0
9.1992,-0.00015862,0
9.1997,-0.00040955,0
9.2003,-0.00061215,0
9.2008,-0.00074844,0
9.2013,-0.00084781,0
9.2018,-0.00089934,0
9.2023,-0.00085435,0
9.2028,-0.00072427,0
9.2034,-0.00056532,0
9.2039,-0.0004208,0
9.2044,-0.00030011,0
9.2049,-0.00020343,0
9.2054,-0.00013008,0
9.206,-8.0735e-05,0
9.2065,-4.5823e-05,0
9.207,-1.9471e-05,0
9.2075,3.6927e-06,0
9.208,2.7863e-05,0
9.2086,5.2033e-05,0
9.2091,7.1e-05,0
9.2096,8.4428e-05,0
9.2101,9.6513e-05,0
9.2106,0.00011095,0
9.2112,0.00013042,0
9.2117,0.00015442,0
9.2122,0.00017406,0
9.2127,0.00018749,0
9.2132,0.00020813,0
9.2137,0.000237,0
9.2143,0.00025866,0
9.2148,0.0002647,0
9.2153,0.00026403,0
9.2158,0.00026201,0
9.2163,0.00025328,0
9.2169,0.00022979,0
9.2174,0.00020024,0
9.2179,0.00017842,0
9.2184,0.00015996,0
9.2189,0.00013848,0
9.2195,0.00011263,0
9.22,9.0303e-05,0
9.2205,7.0161e-05,0
9.221,3.9948e-05,0
9.2215,4.1962e-06,0
9.2221,-1.7624e-05,0
9.2226,-2.266e-05,0
9.2231,-2.1317e-05,0
9.2236,-1.9638e-05,0
9.2241,-1.1917e-05,0
9.2247,4.8676e-06,0
9.2252,2.0981e-05,0
9.2257,3.4409e-05,0
9.2262,4.9516e-05,0
9.2267,6.244e-05,0
9.2272,7.1e-05,0
9.2278,7.9561e-05,0
9.2283,8.9464e-05,0
9.2288,9.5674e-05,0
9.2293,9.752e-05,0
9.2298,0.00010507,0
9.2304,0.00012773,0
9.2309,0.00016214,0
9.2314,0.00019857,0
9.2319,0.00023012,0
9.2324,0.00025731,0
9.233,0.00027108,0
9.2335,0.00025228,0
9.234,0.00019823,0
9.2345,0.00012471,0
9.235,4.3305e-05,0
9.2356,-3.978e-05,0
9.2361,-0.00011884,0
9.2366,-0.0001848,0
9.2371,-0.00021804,0
9.2376,-0.00020797,0
9.2382,-0.0001754,0
9.2387,-0.00015543,0
9.2392,-0.00015895,0
9.2397,-0.00017708,0
9.2402,-0.00018665,0
9.2408,-0.00013663,0
9.2413,-9.5674e-06,0
9.2418,0.00012807,0
9.2423,0.00019403,0
9.2428,0.00018547,0
9.2433,0.00015744,0
9.2439,0.0001509,0
9.2444,0.00015325,0
9.2449,0.00013176,0
9.2454,8.9799e-05,0
9.2459,1.8967e-05,0
9.2465,-6.4958e-05,0
9.247,-0.00010692,0
9.2475,-0.00012102,0
9.248,-0.0001514,0
9.2485,-0.00021082,0
9.2491,-0.00029306,0
9.2496,-0.00037128,0
9.2501,-0.00040687,0
9.2506,-0.00040787,0
9.2511,-0.00039025,0
9.2517,-0.00034678,0
9.2522,-0.00029273,0
9.2527,-0.00025899,0
9.2532,-0.00024053,0
9.2537,-0.0002182,0
9.2543,-0.00018917,0
9.2548,-0.00016214,0
9.2553,-0.00013042,0
9.2558,-9.8192e-05,0
9.2563,-6.9322e-05,0
9.2568,-3.6088e-05,0
9.2574,2.1653e-05,0
9.2579,0.0001321,0
9.2584,0.0002694,0
9.2589,0.00035769,0
9.2594,0.00037447,0
9.26,0.00036037,0
9.2605,0.00034292,0
9.261,0.00032009,0
9.2615,0.00027913,0
9.262,0.00020864,0
9.2626,0.00011514,0
9.2631,1.8631e-05,0
9.2636,-6.0594e-05,0
9.2641,-0.00010457,0
9.2646,-0.00011984,0
9.2652,-0.00012454,0
9.2657,-0.00013025,0
9.2662,-0.0001237,0
9.2667,-8.6442e-05,0
9.2672,-2.9038e-05,0
9.2677,2.6017e-05,0
9.2683,6.7475e-05,0
9.2688,0.00010054,0
9.2693,0.0001321,0
9.2698,0.00016231,0
9.2703,0.00018212,0
9.2709,0.0001801,0
9.2714,0.0001603,0
9.2719,0.00013915,0
9.2724,0.00012404,0
9.2729,0.000118,0
9.2735,0.00012522,0
9.274,0.00013143,0
9.2745,0.00012605,0
9.275,0.00010994,0
9.2755,9.1814e-05,0
9.2761,8.0064e-05,0
9.2766,6.9154e-05,0
9.2771,5.388e-05,0
9.2776,4.0452e-05,0
9.2781,3.2563e-05,0
9.2787,2.0981e-05,0
9.2792,3.0213e-06,0
9.2797,-1.4435e-05,0
9.2802,-1.7624e-05,0
9.2807,-3.1891e-06,0
9.2812,1.5946e-05,0
9.2818,3.1891e-05,0
9.2823,4.1459e-05,0
9.2828,4.4984e-05,0
9.2833,4.6662e-05,0
9.2838,5.069e-05,0
9.2844,5.5558e-05,0
9.2849,5.4887e-05,0
9.2854,5.0355e-05,0
9.2859,4.7501e-05,0
9.2864,4.7166e-05,0
9.287,4.8173e-05,0
9.2875,5.2201e-05,0
9.288,5.8915e-05,0
9.2885,6.8818e-05,0
9.289,9.0639e-05,0
9.2896,0.00012438,0
9.2901,0.00017557,0
9.2906,0.00025899,0
9.2911,0.00035399,0
9.2916,0.00040401,0
9.2922,0.00038471,0
9.2927,0.00031707,0
9.2932,0.0002323,0
9.2937,0.00014435,0
9.2942,5.388e-05,0
9.2948,-3.8773e-05,0
9.2953,-0.00012673,0
9.2958,-0.00020645,0
9.2963,-0.00027678,0
9.2968,-0.00032882,0
9.2973,-0.00034946,0
9.2979,-0.00034527,0
9.2984,-0.00033402,0
9.2989,-0.00030666,0
9.2994,-0.000236,0
9.2999,-0.00013243,0
9.3005,-3.592e-05,0
9.301,2.8031e-05,0
9.3015,5.9922e-05,0
9.302,8.4428e-05,0
9.3025,0.00010961,0
9.3031,0.0001284,0
9.3036,0.00015023,0
9.3041,0.00018917,0
9.3046,0.00022274,0
9.3051,0.00022542,0
9.3057,0.00019487,0
9.3062,0.000142,0
9.3067,6.8986e-05,0
9.3072,-2.9038e-05,0
9.3077,-0.00013411,0
9.3082,-0.00021971,0
9.3088,-0.00027913,0
9.3093,-0.00032647,0
9.3098,-0.00036289,0
9.3103,-0.00036541,0
9.3108,-0.00033637,0
9.3114,-0.00030532,0
9.3119,-0.00027359,0
9.3124,-0.00022274,0
9.3129,-0.00015056,0
9.3134,-7.805e-05,0
9.314,-1.3596e-05,0
9.3145,5.539e-05,0
9.315,0.00012622,0
9.3155,0.00018111,0
9.316,0.00020125,0
9.3166,0.0001895,0
9.3171,0.00015912,0
9.3176,0.00011699,0
9.3181,7.3686e-05,0
9.3186,4.7837e-05,0
9.3192,4.6159e-05,0
9.3197,4.7333e-05,0
9.3202,3.6088e-05,0
9.3207,1.8631e-05,0
9.3212,3.5248e-06,0
9.3217,1.5106e-06,0
9.3223,2.5177e-06,0
9.3228,-1.561e-05,0
9.3233,-4.3305e-05,0
9.3238,-4.448e-05,0
9.3243,-1.796e-05,0
9.3249,6.8818e-06,0
9.3254,1.6617e-05,0
9.3259,1.5274e-05,0
9.3264,8.5603e-06,0
9.3269,1.0071e-05,0
9.3275,3.0716e-05,0
9.328,6.63e-05,0
9.3285,0.00010658,0
9.329,0.00013579,0
9.3295,0.00014687,0
9.3301,0.00014821,0
9.3306,0.00015358,0
9.3311,0.00016399,0
9.3316,0.00016634,0
9.3321,0.00015157,0
9.3327,0.00012337,0
9.3332,8.6778e-05,0
9.3337,5.2033e-05,0
9.3342,2.9709e-05,0
9.3347,1.4771e-05,0
9.3353,4.5319e-06,0
9.3358,1.6785e-07,0
9.3363,2.031e-05,0
9.3368,6.9657e-05,0
9.3373,0.00012538,0
9.3378,0.00016902,0
9.3384,0.00019185,0
9.3389,0.00018228,0
9.3394,0.00014821,0
9.3399,0.00010893,0
9.3404,7.1672e-05,0
9.341,3.6591e-05,0
9.3415,9.5674e-06,0
9.342,-1.5106e-06,0
9.3425,6.2104e-06,0
9.343,1.5946e-05,0
9.3436,1.5106e-05,0
9.3441,6.5461e-06,0
9.3446,1.3764e-05,0
9.3451,5.8915e-05,0
9.3456,0.00014351,0
9.3462,0.00022408,0
9.3467,0.00024758,0
9.3472,0.00020998,0
9.3477,0.0001368,0
9.3482,4.3305e-05,0
9.3488,-6.5629e-05,0
9.3493,-0.00015996,0
9.3498,-0.00019403,0
9.3503,-0.0001603,0
9.3508,-0.00010524,0
9.3513,-6.7308e-05,0
9.3519,-4.0787e-05,0
9.3524,-1.1078e-05,0
9.3529,-4.8676e-06,0
9.3534,-3.4073e-05,0
9.3539,-5.539e-05,0
9.3545,-2.8367e-05,0
9.355,5.0355e-06,0
9.3555,-1.4099e-05,0
9.356,-6.7308e-05,0
9.3565,-0.00011263,0
9.3571,-0.00015056,0
9.3576,-0.00018648,0
9.3581,-0.00020511,0
9.3586,-0.0001895,0
9.3591,-0.00013428,0
9.3597,-5.0523e-05,0
9.3602,2.031e-05,0
9.3607,4.213e-05,0
9.3612,3.3402e-05,0
9.3617,5.7069e-06,0
9.3622,-4.4312e-05,0
9.3628,-8.6946e-05,0
9.3633,-0.00011128,0
9.3638,-0.00012052,0
9.3643,-0.00010893,0
9.3648,-7.3686e-05,0
9.3654,-3.592e-05,0
9.3659,-2.031e-05,0
9.3664,-2.7695e-05,0
9.3669,-4.3809e-05,0
9.3674,-6.3615e-05,0
9.368,-8.0232e-05,0
9.3685,-8.4428e-05,0
9.369,-7.6371e-05,0
9.3695,-5.388e-05,0
9.37,-4.1962e-06,0
9.3706,8.04e-05,0
9.3711,0.00017775,0
9.3716,0.00025765,0
9.3721,0.0002986,0
9.3726,0.00030599,0
9.3732,0.00028853,0
9.3737,0.00025765,0
9.3742,0.00024019,0
9.3747,0.00025429,0
9.3752,0.00026671,0
9.3758,0.00022945,0
9.3763,0.00014385,0
9.3768,4.5487e-05,0
9.3773,-3.8605e-05,0
9.3778,-9.8863e-05,0
9.3783,-0.00013445,0
9.3789,-0.00015677,0
9.3794,-0.00016751,0
9.3799,-0.00015996,0
9.3804,-0.000142,0
9.3809,-0.00012538,0
9.3815,-0.00012303,0
9.382,-0.00013999,0
9.3825,-0.0001608,0
9.383,-0.00016382,0
9.3835,-0.00013243,0
9.3841,-6.7475e-05,0
9.3846,1.796e-05,0
9.3851,9.9199e-05,0
9.3856,0.00015006,0
9.3861,0.00016399,0
9.3867,0.00015744,0
9.3872,0.0001472,0
9.3877,0.00014116,0
9.3882,0.00013931,0
9.3887,0.0001415,0
9.3893,0.00015291,0
9.3898,0.00018044,0
9.3903,0.00021938,0
9.3908,0.00025463,0
9.3913,0.00025698,0
9.3918,0.00022626,0
9.3924,0.0001895,0
9.3929,0.00015828,0
9.3934,0.00012236,0
9.3939,8.2246e-05,0
9.3944,3.9445e-05,0
9.395,-1.3428e-05,0
9.3955,-9.1478e-05,0
9.396,-0.000189,0
9.3965,-0.00026856,0
9.397,-0.00030045,0
9.3976,-0.00028316,0
9.3981,-0.00023281,0
9.3986,-0.00017053,0
9.3991,-0.00011833,0
9.3996,-8.6107e-05,0
9.4002,-6.6133e-05,0
9.4007,-3.978e-05,0
9.4012,3.0213e-06,0
9.4017,4.6159e-05,0
9.4022,6.8315e-05,0
9.4027,7.57e-05,0
9.4033,9.3156e-05,0
9.4038,0.00013797,0
9.4043,0.00021468,0
9.4048,0.00032882,0
9.4053,0.00046377,0
9.4059,0.00055776,0
9.4064,0.00055222,0
9.4069,0.0004725,0
9.4074,0.00038538,0
9.4079,0.00030263,0
9.4085,0.00019319,0
9.409,4.0116e-05,0
9.4095,-0.0001232,0
9.41,-0.0002511,0
9.4105,-0.00033922,0
9.4111,-0.00039763,0
9.4116,-0.00042567,0
9.4121,-0.00044312,0
9.4126,-0.00046629,0
9.4131,-0.00047921,0
9.4137,-0.00044396,0
9.4142,-0.00034543,0
9.4147,-0.00022072,0
9.4152,-0.0001274,0
9.4157,-7.6371e-05,0
9.4162,-2.501e-05,0
9.4168,5.3544e-05,0
9.4173,0.00012538,0
9.4178,0.00015056,0
9.4183,0.00013848,0
9.4188,0.00011397,0
9.4194,9.5506e-05,0
9.4199,0.00010524,0
9.4204,0.00015224,0
9.4209,0.0002125,0
9.4214,0.00024758,0
9.422,0.00023835,0
9.4225,0.00020864,0
9.423,0.00019051,0
9.4235,0.00017893,0
9.424,0.00014485,0
9.4246,8.9128e-05,0
9.4251,3.8437e-05,0
9.4256,-8.3925e-07,0
9.4261,-4.7166e-05,0
9.4266,-0.00011179,0
9.4272,-0.00018312,0
9.4277,-0.00024086,0
9.4282,-0.00027326,0
9.4287,-0.00027477,0
9.4292,-0.00023902,0
9.4298,-0.00017037,0
9.4303,-8.6946e-05,0
9.4308,-1.1582e-05,0
9.4313,3.4745e-05,0
9.4318,3.9445e-05,0
9.4323,1.0239e-05,0
9.4329,-2.3331e-05,0
9.4334,-3.8605e-05,0
9.4339,-3.4577e-05,0
9.4344,-1.561e-05,0
9.4349,2.9038e-05,0
9.4355,0.00010793,0
9.436,0.00018463,0
9.4365,0.00022358,0
9.437,0.00023919,0
9.4375,0.00026571,0
9.4381,0.0003211,0
9.4386,0.00036507,0
9.4391,0.00035097,0
9.4396,0.00028115,0
9.4401,0.00018849,0
9.4407,9.5842e-05,0
9.4412,1.2253e-05,0
9.4417,-5.9754e-05,0
9.4422,-0.00012303,0
9.4427,-0.00017322,0
9.4433,-0.00019319,0
9.4438,-0.00018833,0
9.4443,-0.00018027,0
9.4448,-0.00018044,0
9.4453,-0.00018413,0
9.4458,-0.00017591,0
9.4464,-0.00013848,0
9.4469,-7.1672e-05,0
9.4474,-3.357e-07,0
9.4479,5.304e-05,0
9.4484,9.0135e-05,0
9.449,0.00012992,0
9.4495,0.00018111,0
9.45,0.00023012,0
9.4505,0.0002746,0
9.451,0.00032059,0
9.4516,0.00036776,0
9.4521,0.00039126,0
9.4526,0.00037313,0
9.4531,0.00032177,0
9.4536,0.00027208,0
9.4542,0.00025295,0
9.4547,0.00024959,0
9.4552,0.00022139,0
9.4557,0.00013512,0
9.4562,-5.2033e-06,0
9.4567,-0.00015576,0
9.4573,-0.00028769,0
9.4578,-0.00039596,0
9.4583,-0.00046192,0
9.4588,-0.00047266,0
9.4593,-0.0004359,0
9.4599,-0.00036944,0
9.4604,-0.00030095,0
9.4609,-0.00022609,0
9.4614,-0.00013445,0
9.4619,-4.3641e-05,0
9.4625,2.5345e-05,0
9.463,7.4022e-05,0
9.4635,0.00010709,0
9.464,0.00012454,0
9.4645,0.00012253,0
9.4651,9.1142e-05,0
9.4656,2.2156e-05,0
9.4661,-6.3951e-05,0
9.4666,-0.00012908,0
9.4671,-0.00015006,0
9.4677,-0.00014569,0
9.4682,-0.00013965,0
9.4687,-0.0001227,0
9.4692,-8.275e-05,0
9.4697,-3.7263e-05,0
9.4703,-4.3641e-06,0
9.4708,1.0575e-05,0
9.4713,1.561e-05,0
9.4718,1.6953e-05,0
9.4723,9.5674e-06,0
9.4728,-3.5248e-06,0
9.4734,-4.1962e-06,0
9.4739,1.2589e-05,0
9.4744,2.266e-05,0
9.4749,1.2421e-05,0
9.4754,-3.6927e-06,0
9.476,-4.8676e-06,0
9.4765,1.1246e-05,0
9.477,3.2395e-05,0
9.4775,5.8915e-05,0
9.478,9.2653e-05,0
9.4786,0.00011498,0
9.4791,0.00011582,0
9.4796,0.00010927,0
9.4801,0.00010726,0
9.4806,0.00010692,0
9.4812,0.00010893,0
9.4817,0.00011716,0
9.4822,0.00012605,0
9.4827,0.00013663,0
9.4832,0.0001603,0
9.4838,0.00019286,0
9.4843,0.00021401,0
9.4848,0.00022324,0
9.4853,0.00023986,0
9.4858,0.00027309,0
9.4863,0.00030498,0
9.4869,0.00030582,0
9.4874,0.00026688,0
9.4879,0.00020444,0
9.4884,0.00014939,0
9.4889,0.00011867,0
9.4895,0.00010155,0
9.49,8.2414e-05,0
9.4905,4.6662e-05,0
9.491,-3.1891e-06,0
9.4915,-5.7572e-05,0
9.4921,-0.0001138,0
9.4926,-0.00017272,0
9.4931,-0.00021804,0
9.4936,-0.00024758,0
9.4941,-0.00027494,0
9.4947,-0.00029357,0
9.4952,-0.00028685,0
9.4957,-0.00024976,0
9.4962,-0.00019202,0
9.4967,-0.00013159,0
9.4973,-6.5293e-05,0
9.4978,1.6617e-05,0
9.4983,0.00010188,0
9.4988,0.00016634,0
9.4993,0.00020444,0
9.4998,0.00022223,0
9.5004,0.00022542,0
9.5009,0.00020444,0
9.5014,0.00014922,0
9.5019,7.5364e-05,0
9.5024,8.896e-06,0
9.503,-4.3473e-05,0
9.5035,-8.8457e-05,0
9.504,-0.00012958,0
9.5045,-0.00016516,0
9.505,-0.00018715,0
9.5056,-0.00017423,0
9.5061,-0.00011884,0
9.5066,-5.4887e-05,0
9.5071,-1.8296e-05,0
9.5076,-6.2104e-06,0
9.5082,-9.2317e-06,0
9.5087,-3.1724e-05,0
9.5092,-6.7811e-05,0
9.5097,-0.00010407,0
9.5102,-0.00013109,0
9.5107,-0.00013915,0
9.5113,-0.00012236,0
9.5118,-8.2078e-05,0
9.5123,-2.7359e-05,0
9.5128,5.539e-05,0
9.5133,0.00017775,0
9.5139,0.00030062,0
9.5144,0.00038186,0
9.5149,0.00042953,0
9.5154,0.00045303,0
9.5159,0.00042718,0
9.5165,0.0003409,0
9.517,0.00021653,0
9.5175,7.5029e-05,0
9.518,-5.2537e-05,0
9.5185,-0.00013814,0
9.5191,-0.00019487,0
9.5196,-0.00022626,0
9.5201,-0.00023146,0
9.5206,-0.00022777,0
9.5211,-0.00022005,0
9.5217,-0.00019017,0
9.5222,-0.00012639,0
9.5227,-4.4144e-05,0
9.5232,1.6281e-05,0
9.5237,3.6759e-05,0
9.5243,1.9303e-05,0
9.5248,-2.7863e-05,0
9.5253,-8.3421e-05,0
9.5258,-0.00012605,0
9.5263,-0.00015526,0
9.5268,-0.00016634,0
9.5274,-0.0001514,0
9.5279,-0.00012001,0
9.5284,-8.4764e-05,0
9.5289,-5.1698e-05,0
9.5294,-3.2395e-05,0
9.53,-2.4674e-05,0
9.5305,-1.4435e-05,0
9.531,8.2246e-06,0
9.5315,4.2466e-05,0
9.532,8.2414e-05,0
9.5326,0.00011968,0
9.5331,0.00014586,0
9.5336,0.00015811,0
9.5341,0.00015996,0
9.5346,0.00015795,0
9.5352,0.0001556,0
9.5357,0.00015879,0
9.5362,0.00019017,0
9.5367,0.00025093,0
9.5372,0.00029256,0
9.5378,0.00027695,0
9.5383,0.00022106,0
9.5388,0.00014905,0
9.5393,7.0497e-05,0
9.5398,-4.1962e-06,0
9.5403,-5.5894e-05,0
9.5409,-8.4428e-05,0
9.5414,-0.00010558,0
9.5419,-0.00012992,0
9.5424,-0.0001425,0
9.5429,-0.00013277,0
9.5435,-0.00011766,0
9.544,-0.00011431,0
9.5445,-0.00011699,0
9.545,-0.00010776,0
9.5455,-7.5364e-05,0
9.5461,-2.8367e-05,0
9.5466,1.561e-05,0
9.5471,4.5823e-05,0
9.5476,6.3615e-05,0
9.5481,7.57e-05,0
9.5487,8.9128e-05,0
9.5492,0.00010289,0
9.5497,0.00010994,0
9.5502,0.00010726,0
9.5507,9.5171e-05,0
9.5512,8.1239e-05,0
9.5518,7.0832e-05,0
9.5523,6.5965e-05,0
9.5528,6.865e-05,0
9.5533,8.3589e-05,0
9.5538,0.0001091,0
9.5544,0.00013881,0
9.5549,0.00016667,0
9.5554,0.00018984,0
9.5559,0.00019773,0
9.5564,0.00018447,0
9.557,0.00016483,0
9.5575,0.00016013,0
9.558,0.0001697,0
9.5585,0.00017574,0
9.559,0.00018782,0
9.5596,0.00023046,0
9.5601,0.00026772,0
9.5606,0.00025194,0
9.5611,0.0001895,0
9.5616,0.00011464,0
9.5622,3.508e-05,0
9.5627,-3.6423e-05,0
9.5632,-7.5532e-05,0
9.5637,-9.3996e-05,0
9.5642,-0.00011498,0
9.5648,-0.00014519,0
9.5653,-0.0001754,0
9.5658,-0.00018749,0
9.5663,-0.00017456,0
9.5668,-0.00015593,0
9.5673,-0.0001514,0
9.5679,-0.00016265,0
9.5684,-0.00017876,0
9.5689,-0.00018849,0
9.5694,-0.00019118,0
9.5699,-0.00019957,0
9.5705,-0.00021686,0
9.571,-0.00022928,0
9.5715,-0.00022979,0
9.572,-0.00020897,0
9.5725,-0.00014922,0
9.5731,-3.4409e-05,0
9.5736,0.00010893,0
9.5741,0.00021602,0
9.5746,0.00025664,0
9.5751,0.00025026,0
9.5757,0.00022911,0
9.5762,0.00018614,0
9.5767,0.00010927,0
9.5772,1.1749e-05,0
9.5777,-7.9561e-05,0
9.5783,-0.00014452,0
9.5788,-0.00019521,0
9.5793,-0.00024489,0
9.5798,-0.00026772,0
9.5803,-0.00024758,0
9.5808,-0.00019387,0
9.5814,-0.0001237,0
9.5819,-5.3712e-05,0
9.5824,1.5106e-06,0
9.5829,4.062e-05,0
9.5834,7.2175e-05,0
9.584,0.00011196,0
9.5845,0.0001556,0
9.585,0.00017574,0
9.5855,0.00015492,0
9.586,0.00010591,0
9.5866,5.388e-05,0
9.5871,2.1653e-05,0
9.5876,1.4939e-05,0
9.5881,1.9806e-05,0
9.5886,2.6352e-05,0
9.5892,4.3809e-05,0
9.5897,7.4861e-05,0
9.5902,0.00010088,0
9.5907,9.987e-05,0
9.5912,7.0665e-05,0
9.5917,3.592e-05,0
9.5923,2.1149e-05,0
9.5928,2.6688e-05,0
9.5933,3.9277e-05,0
9.5938,5.0858e-05,0
9.5943,5.3208e-05,0
9.5949,4.2466e-05,0
9.5954,2.3163e-05,0
9.5959,3.1891e-06,0
9.5964,-2.182e-06,0
9.5969,1.5274e-05,0
9.5975,4.3137e-05,0
9.598,6.63e-05,0
9.5985,8.2246e-05,0
9.599,9.6513e-05,0
