50.308,1.1917e-05,0
50.309,0.00013008,0
50.309,0.00026738,0
50.31,0.00042684,0
50.31,0.00059268,0
50.311,0.00075381,0
50.311,0.00086795,0
50.312,0.00087231,0
50.312,0.00076573,0
50.313,0.00060459,0
50.313,0.00041123,0
50.314,0.00021183,0
50.315,5.4887e-05,0
50.315,-4.1123e-05,0
50.316,-9.6513e-05,0
50.316,-0.00011901,0
50.317,-0.00011397,0
50.317,-7.8218e-05,0
50.318,-1.8631e-05,0
50.318,4.5151e-05,0
50.319,7.7546e-05,0
50.319,5.8915e-05,0
50.32,1.5442e-05,0
50.32,-1.3428e-06,0
50.321,3.7766e-05,0
50.321,0.00010726,0
50.322,0.00016902,0
50.322,0.00019991,0
50.323,0.00018044,0
50.323,0.00011632,0
50.324,4.5151e-05,0
50.324,-4.6998e-06,0
50.325,-3.122e-05,0
50.325,-4.9851e-05,0
50.326,-6.2608e-05,0
50.326,-7.9393e-05,0
50.327,-0.00012941,0
50.327,-0.00019789,0
50.328,-0.00024305,0
50.329,-0.00028702,0
50.329,-0.00034829,0
50.33,-0.00039361,0
50.33,-0.00038169,0
50.331,-0.00029844,0
50.331,-0.00017037,0
50.332,-2.5849e-05,0
50.332,0.00010356,0
50.333,0.00019152,0
50.333,0.0002694,0
50.334,0.00036239,0
50.334,0.00045403,0
50.335,0.00050237,0
50.335,0.00047233,0
50.336,0.00037548,0
50.336,0.00024288,0
50.337,0.00011397,0
50.337,2.031e-05,0
50.338,-4.3305e-05,0
50.338,-7.7043e-05,0
50.339,-7.9896e-05,0
50.339,-8.3421e-05,0
50.34,-0.00011934,0
50.34,-0.00015795,0
50.341,-0.00015325,0
50.342,-9.2821e-05,0
50.342,6.8818e-06,0
50.343,0.00010524,0
50.343,0.0001566,0
50.344,0.00013008,0
50.344,4.5823e-05,0
50.345,-4.5151e-05,0
50.345,-0.00011128,0
50.346,-0.00014284,0
50.346,-0.00016197,0
50.347,-0.00017607,0
50.347,-0.00017137,0
50.348,-0.00015341,0
50.348,-0.00012219,0
50.349,-7.2847e-05,0
50.349,-1.6281e-05,0
50.35,3.5752e-05,0
50.35,8.3421e-05,0
50.351,0.00010188,0
50.351,6.2272e-05,0
50.352,-1.3931e-05,0
50.352,-7.8721e-05,0
50.353,-8.7953e-05,0
50.353,-6.2272e-05,0
50.354,-6.2272e-05,0
50.354,-0.00011212,0
50.355,-0.00017658,0
50.356,-0.00023297,0
50.356,-0.00028786,0
50.357,-0.00030867,0
50.357,-0.00027343,0
50.358,-0.00018749,0
50.358,-8.3925e-05,0
50.359,2.3667e-05,0
50.359,0.00013361,0
50.36,0.00020931,0
50.36,0.00021636,0
50.361,0.00018111,0
50.361,0.00016063,0
50.362,0.00019219,0
50.362,0.00028954,0
50.363,0.00043221,0
50.363,0.00055306,0
50.364,0.00059721,0
50.364,0.00055441,0
50.365,0.00044262,0
50.365,0.00030062,0
50.366,0.00016835,0
50.366,5.9586e-05,0
50.367,-1.0071e-05,0
50.367,-3.8773e-05,0
50.368,-4.2634e-05,0
50.368,-3.6759e-05,0
50.369,-2.7695e-05,0
50.37,-1.8967e-05,0
50.37,-1.6281e-05,0
50.371,-2.7192e-05,0
50.371,-4.3137e-05,0
50.372,-7.4022e-05,0
50.372,-0.00012992,0
50.373,-0.00020931,0
50.373,-0.0002845,0
50.374,-0.00032949,0
50.374,-0.00034023,0
50.375,-0.00032042,0
50.375,-0.0002553,0
50.376,-0.00014788,0
50.376,-4.5487e-05,0
50.377,-1.9974e-05,0
50.377,-9.0471e-05,0
50.378,-0.00021267,0
50.378,-0.00033922,0
50.379,-0.00043288,0
50.379,-0.00045521,0
50.38,-0.00036944,0
50.38,-0.00014401,0
50.381,0.00018027,0
50.381,0.00050271,0
50.382,0.00072074,0
50.383,0.00077194,0
50.383,0.00068936,0
50.384,0.00057287,0
50.384,0.00049935,0
50.385,0.00046981,0
50.385,0.00045403,0
50.386,0.00043423,0
50.386,0.00038253,0
50.387,0.00028904,0
50.387,0.00017372,0
50.388,6.3279e-05,0
50.388,-7.7211e-06,0
50.389,-6.714e-07,0
50.389,7.7714e-05,0
50.39,0.00015123,0
50.39,0.00017288,0
50.391,0.0001509,0
50.391,0.00010188,0
50.392,3.4745e-05,0
50.392,-3.9109e-05,0
50.393,-9.6178e-05,0
50.393,-0.00013931,0
50.394,-0.00017356,0
50.394,-0.00019185,0
50.395,-0.00022055,0
50.395,-0.00028904,0
50.396,-0.00038941,0
50.397,-0.00046427,0
50.397,-0.00047787,0
50.398,-0.00046796,0
50.398,-0.00049398,0
50.399,-0.00055726,0
50.399,-0.00060208,0
50.4,-0.00059973,0
50.4,-0.00055625,0
50.401,-0.00045135,0
50.401,-0.00027796,0
50.402,-9.2485e-05,0
50.402,4.0452e-05,0
50.403,0.00011112,0
50.403,0.00016197,0
50.404,0.00023751,0
50.404,0.00033133,0
50.405,0.00042013,0
50.405,0.00049264,0
50.406,0.00053964,0
50.406,0.00054836,0
50.407,0.00051849,0
50.407,0.00045403,0
50.408,0.00035702,0
50.408,0.00026436,0
50.409,0.00020394,0
50.41,0.0001603,0
50.41,9.836e-05,0
50.411,4.1962e-06,0
50.411,-9.5003e-05,0
50.412,-0.00016886,0
50.412,-0.00020159,0
50.413,-0.00019622,0
50.413,-0.00016735,0
50.414,-0.00014939,0
50.414,-0.00015157,0
50.415,-0.00012203,0
50.415,-3.122e-05,0
50.416,7.9896e-05,0
50.416,0.0001697,0
50.417,0.00022055,0
50.417,0.00024489,0
50.418,0.00025228,0
50.418,0.00023348,0
50.419,0.00017406,0
50.419,9.4835e-05,0
50.42,4.4144e-05,0
50.42,2.501e-05,0
50.421,1.6785e-06,0
50.421,-4.213e-05,0
50.422,-9.7185e-05,0
50.422,-0.00014804,0
50.423,-0.00018732,0
50.424,-0.00021653,0
50.424,-0.00024724,0
50.425,-0.00026554,0
50.425,-0.00025177,0
50.426,-0.00019873,0
50.426,-8.9296e-05,0
50.427,6.6804e-05,0
50.427,0.00020998,0
50.428,0.00029776,0
50.428,0.00034862,0
50.429,0.00036709,0
50.429,0.00033754,0
50.43,0.00026436,0
50.43,0.00017372,0
50.431,0.00010188,0
50.431,5.4047e-05,0
50.432,9.5674e-06,0
50.432,-3.3738e-05,0
50.433,-6.4958e-05,0
50.433,-7.4693e-05,0
50.434,-7.1504e-05,0
50.434,-0.00010524,0
50.435,-0.00019605,0
50.435,-0.00028736,0
50.436,-0.00033167,0
50.437,-0.00032059,0
50.437,-0.00027477,0
50.438,-0.00022979,0
50.438,-0.00022274,0
50.439,-0.00023902,0
50.439,-0.0002412,0
50.44,-0.00021032,0
50.44,-0.00011615,0
50.441,7.8386e-05,0
50.441,0.00034359,0
50.442,0.00059603,0
50.442,0.00076388,0
50.443,0.00078,0
50.443,0.00063766,0
50.444,0.00044396,0
50.444,0.00030733,0
50.445,0.0002323,0
50.445,0.00018245,0
50.446,0.0001227,0
50.446,4.7501e-05,0
50.447,-2.0981e-05,0
50.447,-7.5196e-05,0
50.448,-0.00012958,0
50.448,-0.00016735,0
50.449,-0.00016181,0
50.45,-0.00011061,0
50.45,-4.8676e-05,0
50.451,-2.5177e-06,0
50.451,2.3331e-05,0
50.452,1.1917e-05,0
50.452,-2.7024e-05,0
50.453,-7.0832e-05,0
50.453,-0.00011968,0
50.454,-0.00018077,0
50.454,-0.00026134,0
50.455,-0.00035064,0
50.455,-0.00042097,0
50.456,-0.0004537,0
50.456,-0.00043641,0
50.457,-0.00036692,0
50.457,-0.00027427,0
50.458,-0.00018346,0
50.458,-7.9393e-05,0
50.459,3.122e-05,0
50.459,0.00014301,0
50.46,0.00027779,0
50.46,0.00042416,0
50.461,0.00053074,0
50.461,0.00055978,0
50.462,0.00051681,0
50.462,0.00043993,0
50.463,0.00036641,0
50.464,0.00030901,0
50.464,0.00026369,0
50.465,0.00022811,0
50.465,0.00019857,0
50.466,0.00017104,0
50.466,0.0001368,0
50.467,9.4163e-05,0
50.467,5.774e-05,0
50.468,3.5248e-05,0
50.468,2.6184e-05,0
50.469,2.1988e-05,0
50.469,1.3596e-05,0
50.47,-1.6785e-07,0
50.47,-1.561e-05,0
50.471,-3.6423e-05,0
50.471,-5.6901e-05,0
50.472,-6.4622e-05,0
50.472,-6.3615e-05,0
50.473,-6.5461e-05,0
50.473,-7.4861e-05,0
50.474,-8.1071e-05,0
50.474,-7.6371e-05,0
50.475,-7.9393e-05,0
50.475,-0.00011565,0
50.476,-0.00018614,0
50.477,-0.00026235,0
50.477,-0.00031354,0
50.478,-0.00032747,0
50.478,-0.00033503,0
50.479,-0.00036591,0
50.479,-0.00040082,0
50.48,-0.00041123,0
50.48,-0.0003921,0
50.481,-0.0003592,0
50.481,-0.00030767,0
50.482,-0.00022425,0
50.482,-9.3492e-05,0
50.483,3.1724e-05,0
50.483,7.9057e-05,0
50.484,6.479e-05,0
50.484,6.6468e-05,0
50.485,0.00012975,0
50.485,0.0002459,0
50.486,0.00036457,0
50.486,0.00043087,0
50.487,0.00043523,0
50.487,0.00039512,0
50.488,0.00032815,0
50.488,0.00025228,0
50.489,0.00017876,0
50.489,0.00011968,0
50.49,9.752e-05,0
50.491,9.5842e-05,0
50.491,9.8527e-05,0
50.492,9.5506e-05,0
50.492,8.5771e-05,0
50.493,6.8147e-05,0
50.493,1.2924e-05,0
50.494,-7.805e-05,0
50.494,-0.0001697,0
50.495,-0.00023751,0
50.495,-0.00027645,0
50.496,-0.00027124,0
50.496,-0.00022274,0
50.497,-0.00015358,0
50.497,-6.6133e-05,0
50.498,6.1601e-05,0
50.498,0.00021736,0
50.499,0.00035601,0
50.499,0.00042214,0
50.5,0.00040855,0
50.5,0.00034896,0
50.501,0.00029155,0
50.501,0.00027276,0
50.502,0.0002882,0
50.502,0.00030263,0
50.503,0.00027175,0
50.504,0.00018614,0
50.504,7.4357e-05,0
50.505,-1.6953e-05,0
50.505,-5.9922e-05,0
50.506,-6.865e-05,0
50.506,-7.8721e-05,0
50.507,-0.00010625,0
50.507,-0.00014015,0
50.508,-0.00016667,0
50.508,-0.0001994,0
50.509,-0.00023616,0
50.509,-0.00024523,0
50.51,-0.00023365,0
50.51,-0.00023549,0
50.511,-0.00023398,0
50.511,-0.00019252,0
50.512,-0.00011766,0
50.512,-5.5055e-05,0
50.513,-4.1123e-05,0
50.513,-3.4577e-05,0
50.514,5.5222e-05,0
50.514,0.00022744,0
50.515,0.00039931,0
50.515,0.00050741,0
50.516,0.00053359,0
50.516,0.00051748,0
50.517,0.00050607,0
50.518,0.00050875,0
50.518,0.00050741,0
50.519,0.0004537,0
50.519,0.00034023,0
50.52,0.00021804,0
50.52,0.00012236,0
50.521,4.4312e-05,0
50.521,-3.9445e-05,0
50.522,-0.00013378,0
50.522,-0.0002219,0
50.523,-0.00028837,0
50.523,-0.00033234,0
50.524,-0.00036793,0
50.524,-0.00039092,0
50.525,-0.00040502,0
50.525,-0.00041811,0
50.526,-0.00042248,0
50.526,-0.00040787,0
50.527,-0.00036289,0
50.527,-0.00027041,0
50.528,-0.00011196,0
50.528,9.0806e-05,0
50.529,0.00026873,0
50.529,0.00037581,0
50.53,0.0004208,0
50.531,0.00042416,0
50.531,0.00040603,0
50.532,0.00037699,0
50.532,0.00033016,0
50.533,0.00025563,0
50.533,0.00017305,0
50.534,0.00011196,0
50.534,7.5029e-05,0
50.535,4.3473e-05,0
50.535,-8.5603e-06,0
50.536,-7.2343e-05,0
50.536,-0.00012471,0
50.537,-0.00018715,0
50.537,-0.00025882,0
50.538,-0.00030549,0
50.538,-0.00033133,0
50.539,-0.0003508,0
50.539,-0.00036239,0
50.54,-0.00035567,0
50.54,-0.00033536,0
50.541,-0.00031841,0
50.541,-0.0002939,0
50.542,-0.00024422,0
50.542,-0.00016818,0
50.543,-7.6707e-05,0
50.543,2.0645e-05,0
50.544,0.00010524,0
50.545,0.00016147,0
50.545,0.00018463,0
50.546,0.0001702,0
50.546,0.00012471,0
50.547,7.7043e-05,0
50.547,5.3376e-05,0
50.548,6.4958e-05,0
50.548,9.6178e-05,0
50.549,0.00010591,0
50.549,8.8121e-05,0
50.55,6.8147e-05,0
50.55,4.4312e-05,0
50.551,8.3925e-07,0
50.551,-4.2802e-05,0
50.552,-6.865e-05,0
50.552,-8.6107e-05,0
50.553,-8.7785e-05,0
50.553,-5.388e-05,0
50.554,-8.3925e-07,0
50.554,4.7501e-05,0
50.555,0.00010021,0
50.555,0.00014351,0
50.556,0.00016097,0
50.556,0.00016701,0
50.557,0.00017305,0
50.557,0.0001707,0
50.558,0.00012941,0
50.559,3.8102e-05,0
50.559,-6.5126e-05,0
50.56,-0.00015425,0
50.56,-0.00021703,0
50.561,-0.00024154,0
50.561,-0.00021501,0
50.562,-0.00011699,0
50.562,2.182e-05,0
50.563,0.00011632,0
50.563,0.00011229,0
50.564,2.8702e-05,0
50.564,-6.9322e-05,0
50.565,-0.00012354,0
50.565,-0.00010004,0
50.566,-2.2492e-05,0
50.566,4.4144e-05,0
50.567,8.2246e-05,0
50.567,0.00011783,0
50.568,0.00015258,0
50.568,0.00017675,0
50.569,0.00020243,0
50.569,0.00024892,0
50.57,0.0003033,0
50.57,0.00033016,0
50.571,0.00031203,0
50.572,0.00025161,0
50.572,0.00016886,0
50.573,8.8457e-05,0
50.573,3.8605e-06,0
50.574,-7.3686e-05,0
50.574,-0.00012102,0
50.575,-0.0001274,0
50.575,-8.04e-05,0
50.576,2.0813e-05,0
50.576,0.00014166,0
50.577,0.00021468,0
50.577,0.00018917,0
50.578,0.00010893,0
50.578,5.2537e-05,0
50.579,4.2802e-05,0
50.579,7.4861e-05,0
50.58,0.00014049,0
50.58,0.00021115,0
50.581,0.00025328,0
50.581,0.00025043,0
50.582,0.00021602,0
50.582,0.00017104,0
50.583,0.000118,0
50.583,5.9922e-05,0
50.584,1.1246e-05,0
50.584,-2.501e-05,0
50.585,-5.4215e-05,0
50.586,-8.3253e-05,0
50.586,-9.6513e-05,0
50.587,-9.3492e-05,0
50.587,-9.3156e-05,0
50.588,-0.00011196,0
50.588,-0.00014569,0
50.589,-0.0001791,0
50.589,-0.00020629,0
50.59,-0.0002036,0
50.59,-0.00017372,0
50.591,-0.00016197,0
50.591,-0.00017859,0
50.592,-0.00020847,0
50.592,-0.00022374,0
50.593,-0.00020293,0
50.593,-0.00014922,0
50.594,-6.9322e-05,0
50.594,2.4002e-05,0
50.595,9.7185e-05,0
50.595,0.00010726,0
50.596,6.8315e-05,0
50.596,4.448e-05,0
50.597,7.5364e-05,0
50.597,0.00015341,0
50.598,0.00025614,0
50.599,0.00035836,0
50.599,0.00042919,0
50.6,0.00042281,0
50.6,0.00032479,0
50.601,0.00019051,0
50.601,8.1575e-05,0
50.602,1.8967e-05,0
50.602,-1.0239e-05,0
50.603,-2.9038e-05,0
50.603,-4.6159e-05,0
50.604,-5.5894e-05,0
50.604,-5.6733e-05,0
50.605,-5.4551e-05,0
50.605,-5.0187e-05,0
50.606,-4.4648e-05,0
50.606,-4.0116e-05,0
50.607,-3.3906e-05,0
50.607,-2.2324e-05,0
50.608,-8.2246e-06,0
50.608,3.6927e-06,0
50.609,1.1246e-05,0
50.609,1.3092e-05,0
50.61,1.0575e-05,0
50.61,9.0639e-06,0
50.611,7.2175e-06,0
50.611,2.182e-06,0
50.612,-3.5248e-06,0
50.613,-5.7069e-06,0
50.613,-7.0497e-06,0
50.614,-7.2175e-06,0
50.614,-1.9638e-05,0
50.615,-4.8844e-05,0
50.615,-6.2776e-05,0
50.616,-5.5726e-05,0
50.616,-5.0858e-05,0
50.617,-5.7908e-05,0
50.617,-6.1433e-05,0
50.618,-4.5151e-05,0
50.618,-7.3854e-06,0
50.619,2.6688e-05,0
50.619,2.3331e-05,0
50.62,-1.7121e-05,0
50.62,-6.3279e-05,0
50.621,-8.9632e-05,0
50.621,-8.0735e-05,0
50.622,-4.5991e-05,0
50.622,-7.8889e-06,0
50.623,2.182e-05,0
50.623,5.623e-05,0
50.624,0.00010658,0
50.624,0.00015509,0
50.625,0.00018363,0
50.626,0.00018379,0
50.626,0.00014788,0
50.627,8.1575e-05,0
50.627,1.6281e-05,0
50.628,-3.0716e-05,0
50.628,-5.7572e-05,0
50.629,-6.8986e-05,0
50.629,-7.2343e-05,0
50.63,-7.5364e-05,0
50.63,-7.9728e-05,0
50.631,-8.3085e-05,0
50.631,-9.4163e-05,0
50.632,-0.00011061,0
50.632,-9.1981e-05,0
50.633,-4.8005e-05,0
50.633,-1.3596e-05,0
50.634,1.1749e-06,0
50.634,1.0239e-05,0
50.635,1.6281e-05,0
50.635,1.6114e-05,0
50.636,6.8818e-06,0
50.636,-8.5603e-06,0
50.637,-7.8889e-06,0
50.637,3.5584e-05,0
50.638,0.00011699,0
50.639,0.00019487,0
50.639,0.00023281,0
50.64,0.00023079,0
50.64,0.00022072,0
50.641,0.00023415,0
50.641,0.00025882,0
50.642,0.00025093,0
50.642,0.00019185,0
50.643,0.00010658,0
50.643,4.1962e-05,0
50.644,1.9974e-05,0
50.644,1.6617e-05,0
50.645,-5.8747e-06,0
50.645,-5.1865e-05,0
50.646,-9.0471e-05,0
50.646,-0.00010088,0
50.647,-9.7017e-05,0
50.647,-9.7185e-05,0
50.648,-9.7185e-05,0
50.648,-8.5771e-05,0
50.649,-5.7237e-05,0
50.649,-2.1149e-05,0
50.65,1.1917e-05,0
50.65,3.8773e-05,0
50.651,4.1794e-05,0
50.651,-2.0478e-05,0
50.652,-0.00012908,0
50.653,-0.00021736,0
50.653,-0.0002558,0
50.654,-0.00027057,0
50.654,-0.00030146,0
50.655,-0.00034443,0
50.655,-0.0003545,0
50.656,-0.00029088,0
50.656,-0.0001519,0
50.657,2.5681e-05,0
50.657,0.00021971,0
50.658,0.00041711,0
50.658,0.00055978,0
50.659,0.00058764,0
50.659,0.00051748,0
50.66,0.00041543,0
50.66,0.00032697,0
50.661,0.00025228,0
50.661,0.00018379,0
50.662,0.00013075,0
50.662,9.9367e-05,0
50.663,7.9561e-05,0
50.663,5.9922e-05,0
50.664,4.2466e-05,0
50.664,3.5416e-05,0
50.665,3.357e-05,0
50.666,1.796e-05,0
50.666,-8.5603e-06,0
50.667,-1.8967e-05,0
50.667,-4.3641e-06,0
50.668,3.1891e-06,0
50.668,-1.7288e-05,0
50.669,-6.4622e-05,0
50.669,-0.00014183,0
50.67,-0.00023734,0
50.67,-0.00032831,0
50.671,-0.00039193,0
50.671,-0.00041056,0
50.672,-0.00038773,0
50.672,-0.0002986,0
50.673,-0.0001613,0
50.673,-2.7695e-05,0
50.674,8.1239e-05,0
50.674,0.0001754,0
50.675,0.00026302,0
50.675,0.00035164,0
50.676,0.00043725,0
50.676,0.00049247,0
50.677,0.00048928,0
50.677,0.00042818,0
50.678,0.00033956,0
50.678,0.0002558,0
50.679,0.00018396,0
50.68,0.00012438,0
50.68,8.1407e-05,0
50.681,5.3376e-05,0
50.681,3.9109e-05,0
50.682,3.0549e-05,0
50.682,1.326e-05,0
50.683,-1.8463e-05,0
50.683,-6.0594e-05,0
50.684,-0.00010692,0
50.684,-0.00014519,0
50.685,-0.00016818,0
50.685,-0.00018077,0
50.686,-0.00017876,0
50.686,-0.00016416,0
50.687,-0.00016835,0
50.687,-0.00019319,0
50.688,-0.00022525,0
50.688,-0.0002647,0
50.689,-0.00030146,0
50.689,-0.00029743,0
50.69,-0.00022962,0
50.69,-0.00012572,0
50.691,-2.7192e-05,0
50.691,4.4144e-05,0
50.692,9.8863e-05,0
50.693,0.00016164,0
50.693,0.00023818,0
50.694,0.00031925,0
50.694,0.00037682,0
50.695,0.0003785,0
50.695,0.0003211,0
50.696,0.000236,0
50.696,0.00015828,0
50.697,0.00011514,0
50.697,9.5003e-05,0
50.698,6.9322e-05,0
50.698,2.8367e-05,0
50.699,-1.3596e-05,0
50.699,-5.5894e-05,0
50.7,-0.0001039,0
50.7,-0.00015241,0
50.701,-0.00019353,0
50.701,-0.00022576,0
50.702,-0.00024657,0
50.702,-0.00025765,0
50.703,-0.00024842,0
50.703,-0.0002036,0
50.704,-0.00012656,0
50.704,-6.4958e-05,0
50.705,-4.448e-05,0
50.705,-2.2324e-05,0
50.706,3.8102e-05,0
50.707,0.00012874,0
50.707,0.00021602,0
50.708,0.00026889,0
50.708,0.00027913,0
50.709,0.00026101,0
50.709,0.0002266,0
50.71,0.00018514,0
50.71,0.00014553,0
50.711,0.00011632,0
50.711,0.00010457,0
50.712,0.00010071,0
50.712,7.9057e-05,0
50.713,3.2731e-05,0
50.713,-2.4002e-05,0
50.714,-7.8386e-05,0
50.714,-0.00011095,0
50.715,-0.00011934,0
50.715,-0.00012673,0
50.716,-0.00015325,0
50.716,-0.00018782,0
50.717,-0.00022156,0
50.717,-0.00025194,0
50.718,-0.0002652,0
50.718,-0.00027041,0
50.719,-0.00026201,0
50.719,-0.00023449,0
50.72,-0.00021183,0
50.721,-0.00021501,0
50.721,-0.00022022,0
50.722,-0.00020444,0
50.722,-0.00013848,0
50.723,-8.3925e-07,0
50.723,0.00016936,0
50.724,0.00031304,0
50.724,0.00038907,0
50.725,0.00040435,0
50.725,0.00038824,0
50.726,0.00035634,0
50.726,0.00032009,0
50.727,0.00028249,0
50.727,0.00023616,0
50.728,0.00020175,0
50.728,0.00020192,0
50.729,0.00021669,0
50.729,0.00021837,0
50.73,0.00019487,0
50.73,0.00015425,0
50.731,0.00011514,0
50.731,8.8624e-05,0
50.732,7.8218e-05,0
50.732,7.6036e-05,0
50.733,7.1336e-05,0
50.734,6.0426e-05,0
50.734,4.7333e-05,0
50.735,3.4745e-05,0
50.735,2.6017e-05,0
50.736,1.8296e-05,0
50.736,8.896e-06,0
50.737,-6.714e-07,0
50.737,-1.1078e-05,0
50.738,-2.0645e-05,0
50.738,-2.5681e-05,0
50.739,-2.7024e-05,0
50.739,-3.9109e-05,0
50.74,-5.9251e-05,0
50.74,-7.335e-05,0
50.741,-7.8218e-05,0
50.741,-7.5364e-05,0
50.742,-6.3951e-05,0
50.742,-5.0355e-05,0
50.743,-4.1459e-05,0
50.743,-3.4241e-05,0
50.744,-2.2828e-05,0
50.744,-1.6785e-05,0
50.745,-1.0239e-05,0
50.745,1.0407e-05,0
50.746,3.4409e-05,0
50.746,4.0787e-05,0
50.747,2.8367e-05,0
50.748,1.326e-05,0
50.748,3.1891e-06,0
50.749,-5.2033e-06,0
50.749,-9.3996e-06,0
50.75,-8.2246e-06,0
50.75,-3.357e-07,0
50.751,1.2924e-05,0
50.751,1.4939e-05,0
50.752,9.9031e-06,0
50.752,8.896e-06,0
50.753,4.5319e-06,0
50.753,5.0355e-07,0
50.754,-2.8534e-06,0
50.754,-8.5603e-06,0
50.755,-1.8631e-05,0
50.755,-3.1724e-05,0
50.756,-4.6494e-05,0
50.756,-4.5151e-05,0
50.757,-3.0213e-06,0
50.757,5.2201e-05,0
50.758,8.4428e-05,0
50.758,8.4428e-05,0
50.759,7.3686e-05,0
50.759,5.9251e-05,0
50.76,4.3305e-05,0
50.761,3.743e-05,0
50.761,4.2802e-05,0
50.762,4.4816e-05,0
50.762,4.1123e-05,0
50.763,4.5151e-05,0
50.763,5.388e-05,0
50.764,5.8915e-05,0
50.764,4.5487e-05,0
50.765,2.7192e-05,0
50.765,2.1653e-05,0
50.766,1.7624e-05,0
50.766,-3.357e-06,0
50.767,-4.213e-05,0
50.767,-8.3085e-05,0
50.768,-0.00011229,0
50.768,-0.00012992,0
50.769,-0.00014821,0
50.769,-0.00017037,0
50.77,-0.00019034,0
50.77,-0.00020998,0
50.771,-0.00022441,0
50.771,-0.0002313,0
50.772,-0.00020562,0
50.772,-0.00012924,0
50.773,-2.6352e-05,0
50.773,6.0929e-05,0
50.774,8.2246e-05,0
50.775,4.3641e-05,0
50.775,5.8747e-06,0
50.776,1.4267e-05,0
50.776,6.0258e-05,0
50.777,0.00011984,0
50.777,0.00018514,0
50.778,0.00023616,0
50.778,0.00024691,0
50.779,0.00022475,0
50.779,0.00020847,0
50.78,0.00021703,0
50.78,0.00023868,0
50.781,0.00024489,0
50.781,0.00021132,0
50.782,0.00015392,0
50.782,0.00010457,0
50.783,7.1504e-05,0
50.783,5.3544e-05,0
50.784,4.448e-05,0
50.784,3.9948e-05,0
50.785,3.9948e-05,0
50.785,4.7333e-05,0
50.786,5.623e-05,0
50.786,5.0858e-05,0
50.787,3.0045e-05,0
50.788,2.1149e-05,0
50.788,3.357e-05,0
50.789,5.0355e-05,0
50.789,6.2608e-05,0
50.79,5.388e-05,0
50.79,1.9638e-05,0
50.791,-1.8799e-05,0
50.791,-5.304e-05,0
50.792,-8.0232e-05,0
50.792,-6.6133e-05,0
50.793,1.326e-05,0
50.793,0.0001086,0
50.794,0.00014855,0
50.794,0.00011733,0
50.795,4.2466e-05,0
50.795,-4.3809e-05,0
50.796,-0.00010541,0
50.796,-0.00010491,0
50.797,-2.9709e-05,0
50.797,7.2343e-05,0
50.798,0.00014267,0
50.798,0.00015761,0
50.799,0.0001284,0
50.799,8.0064e-05,0
50.8,3.1052e-05,0
50.8,-4.8676e-06,0
50.801,-2.8199e-05,0
50.802,-5.4719e-05,0
50.802,-8.8457e-05,0
50.803,-0.00012102,0
50.803,-0.0001462,0
50.804,-0.000165,0
50.804,-0.00017557,0
50.805,-0.0001796,0
50.805,-0.00019084,0
50.806,-0.0001989,0
50.806,-0.00018883,0
50.807,-0.00016869,0
50.807,-0.00014485,0
50.808,-0.00011246,0
50.808,-7.2343e-05,0
50.809,-3.3906e-05,0
50.809,-4.3641e-06,0
50.81,1.9638e-05,0
50.81,4.918e-05,0
50.811,7.8889e-05,0
50.811,0.00010893,0
50.812,0.00013948,0
50.812,0.00015962,0
50.813,0.00016097,0
50.813,0.00014083,0
50.814,0.000118,0
50.815,0.00011128,0
50.815,0.00012303,0
50.816,0.00013327,0
50.816,0.00012253,0
50.817,9.2485e-05,0
50.817,4.7837e-05,0
50.818,5.0355e-07,0
50.818,-3.3738e-05,0
50.819,-4.4816e-05,0
50.819,-2.7359e-05,0
50.82,7.3854e-06,0
50.82,4.3137e-05,0
50.821,7.8218e-05,0
50.821,0.00012119,0
50.822,0.00015425,0
50.822,0.0001509,0
50.823,0.00011464,0
50.823,8.5435e-05,0
50.824,9.0471e-05,0
50.824,0.00011867,0
50.825,0.00014401,0
50.825,0.00014284,0
50.826,0.00012035,0
50.826,9.7353e-05,0
50.827,8.3757e-05,0
50.828,7.5029e-05,0
50.828,5.623e-05,0
50.829,1.091e-05,0
50.829,-6.7475e-05,0
50.83,-0.00015962,0
50.83,-0.00022005,0
50.831,-0.00023616,0
50.831,-0.00021267,0
50.832,-0.00014015,0
50.832,-3.2898e-05,0
50.833,6.3111e-05,0
50.833,0.00013512,0
50.834,0.00019387,0
50.834,0.00022945,0
50.835,0.00021971,0
50.835,0.00017423,0
50.836,0.00012656,0
50.836,8.9799e-05,0
50.837,6.244e-05,0
50.837,4.1627e-05,0
50.838,1.8128e-05,0
50.838,-6.2104e-06,0
50.839,-1.9806e-05,0
50.839,-2.2324e-05,0
50.84,-2.266e-05,0
50.84,-2.0645e-05,0
50.841,-1.6617e-05,0
50.842,-1.4939e-05,0
50.842,-1.7456e-05,0
50.843,-3.4577e-05,0
50.843,-5.388e-05,0
50.844,-5.0858e-05,0
50.844,-3.6088e-05,0
50.845,-2.6017e-05,0
50.845,-2.8534e-05,0
50.846,-4.6494e-05,0
50.846,-7.0665e-05,0
50.847,-7.9393e-05,0
50.847,-7.1672e-05,0
50.848,-6.5293e-05,0
50.848,-6.3111e-05,0
50.849,-5.9251e-05,0
50.849,-4.9516e-05,0
50.85,-3.4073e-05,0
50.85,-1.4939e-05,0
50.851,-1.6785e-06,0
50.851,8.3925e-06,0
50.852,1.6953e-05,0
50.852,2.4002e-05,0
50.853,2.7024e-05,0
50.853,1.4435e-05,0
50.854,5.0355e-07,0
50.855,-2.5177e-06,0
50.855,-6.714e-07,0
50.856,1.5106e-06,0
50.856,2.5177e-06,0
50.857,-3.5248e-06,0
50.857,-2.031e-05,0
50.858,-4.7333e-05,0
50.858,-6.865e-05,0
50.859,-8.0903e-05,0
50.859,-9.7185e-05,0
50.86,-0.00011565,0
50.86,-0.00012068,0
50.861,-0.00011028,0
50.861,-9.4667e-05,0
50.862,-7.7379e-05,0
50.862,-4.918e-05,0
50.863,-2.8367e-05,0
50.863,-2.4506e-05,0
50.864,-9.9031e-06,0
50.864,4.5487e-05,0
50.865,0.00012001,0
50.865,0.0001707,0
50.866,0.00017137,0
50.866,0.00013378,0
50.867,9.0471e-05,0
50.867,6.5126e-05,0
50.868,5.153e-05,0
50.869,5.1698e-05,0
50.869,9.5842e-05,0
50.87,0.00018883,0
50.87,0.00029575,0
50.871,0.00038991,0
50.871,0.00045,0
50.872,0.00045504,0
50.872,0.00039294,0
50.873,0.00028585,0
50.873,0.00018245,0
50.874,0.00011531,0
50.874,7.2679e-05,0
50.875,3.0716e-05,0
50.875,-8.2246e-06,0
50.876,-2.9709e-05,0
50.876,-3.6088e-05,0
50.877,-4.5823e-05,0
50.877,-6.1936e-05,0
50.878,-6.6636e-05,0
50.878,-5.388e-05,0
50.879,-5.2537e-05,0
50.879,-9.836e-05,0
50.88,-0.0001697,0
50.88,-0.0002219,0
50.881,-0.00023952,0
50.882,-0.00024254,0
50.882,-0.00023801,0
50.883,-0.00022811,0
50.883,-0.00022593,0
50.884,-0.00021199,0
50.884,-0.00015996,0
50.885,-8.0735e-05,0
50.885,2.3331e-05,0
50.886,0.00014318,0
50.886,0.00023146,0
50.887,0.00026369,0
50.887,0.00026738,0
50.888,0.00027175,0
50.888,0.00028249,0
50.889,0.00030196,0
50.889,0.00031405,0
50.89,0.00030448,0
50.89,0.00027443,0
50.891,0.00022408,0
50.891,0.00015325,0
50.892,8.0735e-05,0
50.892,2.7863e-05,0
50.893,-5.0355e-06,0
50.893,-2.3667e-05,0
50.894,-3.4913e-05,0
50.894,-4.1794e-05,0
50.895,-4.3977e-05,0
50.896,-4.4312e-05,0
50.896,-4.1291e-05,0
50.897,-3.4073e-05,0
50.897,-2.8199e-05,0
50.898,-1.7456e-05,0
50.898,-4.1962e-06,0
50.899,3.5248e-06,0
50.899,5.0355e-06,0
50.9,1.5106e-06,0
50.9,0,0
50.901,1.5106e-06,0
50.901,4.1962e-06,0
50.902,3.8605e-06,0
50.902,-1.0071e-06,0
50.903,-1.4771e-05,0
50.903,-3.2731e-05,0
50.904,-4.4648e-05,0
50.904,-4.7166e-05,0
50.905,-4.6998e-05,0
50.905,-5.2369e-05,0
50.906,-6.1769e-05,0
50.906,-7.3014e-05,0
50.907,-8.8121e-05,0
50.907,-9.2821e-05,0
50.908,-8.275e-05,0
50.908,-7.9561e-05,0
50.909,-8.7785e-05,0
50.91,-9.0303e-05,0
50.91,-8.2918e-05,0
50.911,-7.5029e-05,0
50.911,-7.5532e-05,0
50.912,-9.4163e-05,0
50.912,-0.0001227,0
50.913,-0.000142,0
50.913,-0.00014519,0
50.914,-0.00013394,0
50.914,-0.00011028,0
50.915,-8.8457e-05,0
50.915,-7.8721e-05,0
50.916,-7.2007e-05,0
50.916,-7.1839e-05,0
50.917,-7.335e-05,0
50.917,-4.683e-05,0
50.918,4.6998e-06,0
50.918,4.5991e-05,0
50.919,5.5894e-05,0
50.919,4.5487e-05,0
50.92,4.1123e-05,0
50.92,4.5823e-05,0
50.921,4.7166e-05,0
50.921,3.8773e-05,0
50.922,2.7024e-05,0
50.923,2.4002e-05,0
50.923,3.2731e-05,0
50.924,4.2802e-05,0
50.924,5.2873e-05,0
50.925,7.7379e-05,0
50.925,0.00012438,0
50.926,0.00019588,0
50.926,0.00026806,0
50.927,0.00031035,0
50.927,0.00031388,0
50.928,0.0002882,0
50.928,0.00025228,0
50.929,0.00022139,0
50.929,0.00020159,0
50.93,0.00018614,0
50.93,0.00017507,0
50.931,0.00016332,0
50.931,0.00013109,0
50.932,7.2679e-05,0
50.932,1.091e-05,0
50.933,-4.7837e-05,0
50.933,-0.00011162,0
50.934,-0.00016466,0
50.934,-0.0001942,0
50.935,-0.00020847,0
50.935,-0.0002172,0
50.936,-0.00021535,0
50.937,-0.00018212,0
50.937,-0.00011901,0
50.938,-5.3208e-05,0
50.938,-3.5248e-06,0
50.939,1.561e-05,0
50.939,1.5946e-05,0
50.94,3.6423e-05,0
50.94,7.9393e-05,0
50.941,0.00011363,0
50.941,0.00012673,0
50.942,0.00013075,0
50.942,0.0001274,0
50.943,0.00010994,0
50.943,9.2988e-05,0
50.944,9.7017e-05,0
50.944,0.00012001,0
50.945,0.00014049,0
50.945,0.00014754,0
50.946,0.00014586,0
50.946,0.00013948,0
50.947,0.0001237,0
50.947,9.6513e-05,0
50.948,7.5029e-05,0
50.948,6.63e-05,0
50.949,6.8818e-05,0
50.95,8.0064e-05,0
50.95,0.0001039,0
50.951,0.00012673,0
50.951,0.00011666,0
50.952,6.7308e-05,0
50.952,5.8747e-06,0
50.953,-3.5752e-05,0
50.953,-5.3376e-05,0
50.954,-5.7404e-05,0
50.954,-4.5655e-05,0
50.955,-2.0981e-05,0
50.955,-8.3925e-07,0
50.956,3.357e-07,0
50.956,-2.7695e-05,0
50.957,-8.2414e-05,0
50.957,-0.00012857,0
50.958,-0.00012421,0
50.958,-6.5461e-05,0
50.959,1.1749e-05,0
50.959,6.8315e-05,0
50.96,8.3757e-05,0
50.96,6.6972e-05,0
50.961,3.8437e-05,0
50.961,1.2924e-05,0
50.962,-3.357e-06,0
50.962,-6.8818e-06,0
50.963,-4.1962e-06,0
50.964,1.6785e-07,0
50.964,0,0
50.965,-1.0239e-05,0
50.965,-2.0478e-05,0
50.966,-2.8702e-05,0
50.966,-3.1891e-05,0
50.967,-2.8534e-05,0
50.967,-2.6688e-05,0
50.968,-3.2227e-05,0
50.968,-4.0452e-05,0
50.969,-4.9851e-05,0
50.969,-6.0594e-05,0
50.97,-7.3854e-05,0
50.97,-9.2317e-05,0
50.971,-0.00011212,0
50.971,-0.00012924,0
50.972,-0.00014485,0
50.972,-0.00015274,0
50.973,-0.00015761,0
50.973,-0.00016701,0
50.974,-0.00016416,0
50.974,-0.0001274,0
50.975,-6.5965e-05,0
50.975,5.0355e-07,0
50.976,5.2537e-05,0
50.977,7.1336e-05,0
50.977,5.2873e-05,0
50.978,2.1317e-05,0
50.978,6.2104e-06,0
50.979,2.5849e-05,0
50.979,6.7979e-05,0
50.98,0.0001044,0
50.98,0.00012303,0
50.981,0.00013881,0
50.981,0.00016097,0
50.982,0.00018161,0
50.982,0.00018379,0
50.983,0.00017842,0
50.983,0.00017238,0
50.984,0.00015325,0
50.984,0.00010927,0
50.985,4.8844e-05,0
50.985,-5.2033e-06,0
50.986,-3.0213e-05,0
50.986,-3.0381e-05,0
50.987,-2.031e-05,0
50.987,-1.5106e-06,0
50.988,1.3596e-05,0
50.988,1.0407e-05,0
50.989,-3.5248e-06,0
50.989,-1.561e-05,0
50.99,-2.4674e-05,0
50.991,-3.5584e-05,0
50.991,-5.3544e-05,0
50.992,-7.0329e-05,0
50.992,-6.4622e-05,0
50.993,-3.6088e-05,0
50.993,7.0497e-06,0
50.994,5.4215e-05,0
50.994,8.1575e-05,0
50.995,9.4499e-05,0
50.995,0.00011699,0
50.996,0.00014217,0
50.996,0.00014452,0
50.997,0.00010843,0
50.997,5.2369e-05,0
50.998,1.8463e-06,0
50.998,-2.501e-05,0
50.999,-2.1653e-05,0
50.999,-4.8676e-06,0
51,2.6856e-06,0
51,3.1891e-06,0
51.001,1.5442e-05,0
51.001,3.2059e-05,0
51.002,4.1962e-05,0
51.002,3.5752e-05,0
51.003,2.266e-05,0
51.004,4.2466e-05,0
51.004,0.00010591,0
51.005,0.00018161,0
51.005,0.00023012,0
51.006,0.00023566,0
51.006,0.00019588,0
51.007,0.00013948,0
51.007,0.00010457,0
51.008,9.8527e-05,0
51.008,0.00010272,0
51.009,9.4835e-05,0
51.009,6.9657e-05,0
51.01,5.388e-05,0
51.01,5.6565e-05,0
51.011,5.6733e-05,0
51.011,3.743e-05,0
51.012,5.0355e-07,0
51.012,-3.8605e-05,0
51.013,-6.3447e-05,0
51.013,-8.1071e-05,0
51.014,-0.00011363,0
51.014,-0.000165,0
51.015,-0.0002135,0
51.015,-0.00024489,0
51.016,-0.00026537,0
51.017,-0.00027997,0
51.017,-0.00027141,0
51.018,-0.00023365,0
51.018,-0.0001744,0
51.019,-9.6178e-05,0
51.019,1.0071e-05,0
51.02,0.00014217,0
51.02,0.00027477,0
51.021,0.00037649,0
51.021,0.00043288,0
51.022,0.00046511,0
51.022,0.00049264,0
51.023,0.00048022,0
51.023,0.00039998,0
51.024,0.00026957,0
51.024,0.00014015,0
51.025,4.7501e-05,0
51.025,-9.0639e-06,0
51.026,-4.213e-05,0
51.026,-6.3447e-05,0
51.027,-7.6707e-05,0
51.027,-8.3085e-05,0
51.028,-8.6778e-05,0
51.028,-9.3156e-05,0
51.029,-9.2653e-05,0
51.029,-7.3686e-05,0
51.03,-4.8508e-05,0
51.031,-3.5752e-05,0
51.031,-3.1556e-05,0
51.032,-3.2059e-05,0
51.032,-4.2634e-05,0
51.033,-5.1362e-05,0
51.033,-5.5894e-05,0
51.034,-6.3279e-05,0
51.034,-8.191e-05,0
51.035,-0.00011279,0
51.035,-0.00014519,0
51.036,-0.00016768,0
51.036,-0.00018279,0
51.037,-0.00018212,0
51.037,-0.00016667,0
51.038,-0.00015442,0
51.038,-0.000165,0
51.039,-0.00018732,0
51.039,-0.00019756,0
51.04,-0.00018094,0
51.04,-0.00014267,0
51.041,-0.00010927,0
51.041,-9.6849e-05,0
51.042,-9.0135e-05,0
51.042,-7.0665e-05,0
51.043,-3.1891e-05,0
51.044,1.4603e-05,0
51.044,5.5055e-05,0
51.045,7.6371e-05,0
51.045,7.335e-05,0
51.046,5.3544e-05,0
51.046,3.592e-05,0
51.047,3.4913e-05,0
51.047,5.8579e-05,0
51.048,8.7953e-05,0
51.048,8.7114e-05,0
51.049,5.8915e-05,0
51.049,3.0716e-05,0
51.05,9.5674e-06,0
51.05,-5.8747e-06,0
51.051,-1.4939e-05,0
51.051,-2.8702e-05,0
51.052,-5.1865e-05,0
51.052,-6.9322e-05,0
51.053,-6.6636e-05,0
51.053,-4.6159e-05,0
51.054,-1.4099e-05,0
51.054,2.4338e-05,0
51.055,8.51e-05,0
51.055,0.00017507,0
51.056,0.00025731,0
51.056,0.00029458,0
51.057,0.00028585,0
51.058,0.00025597,0
51.058,0.00022374,0
51.059,0.00019084,0
51.059,0.00016197,0
51.06,0.00015207,0
51.06,0.00015123,0
51.061,0.00014939,0
51.061,0.00014519,0
51.062,0.00013948,0
51.062,0.00013747,0
51.063,0.00014385,0
51.063,0.00014636,0
51.064,0.00012924,0
51.064,0.00010054,0
51.065,7.2343e-05,0
51.065,3.2059e-05,0
51.066,-2.0813e-05,0
51.066,-4.9516e-05,0
51.067,-1.9303e-05,0
51.067,6.3615e-05,0
51.068,0.00015375,0
51.068,0.00019319,0
51.069,0.00016298,0
51.069,9.7017e-05,0
51.07,3.5416e-05,0
51.071,-5.7069e-06,0
51.071,-4.0452e-05,0
51.072,-6.9657e-05,0
51.072,-8.4428e-05,0
51.073,-8.1071e-05,0
51.073,-5.9251e-05,0
51.074,-2.5345e-05,0
51.074,3.1891e-06,0
51.075,1.9638e-05,0
51.075,3.4073e-05,0
51.076,5.4887e-05,0
51.076,7.4357e-05,0
51.077,7.3686e-05,0
51.077,5.7404e-05,0
51.078,4.2466e-05,0
51.078,3.0381e-05,0
51.079,6.8818e-06,0
51.079,-3.5416e-05,0
51.08,-7.9393e-05,0
51.08,-0.00010323,0
51.081,-0.0001039,0
51.081,-9.3828e-05,0
51.082,-8.2078e-05,0
51.082,-6.7979e-05,0
51.083,-4.0452e-05,0
51.083,4.6998e-06,0
51.084,4.683e-05,0
51.085,7.1672e-05,0
51.085,8.7617e-05,0
51.086,9.0135e-05,0
51.086,5.7069e-05,0
51.087,1.0575e-05,0
51.087,-2.031e-05,0
51.088,-3.0716e-05,0
51.088,-3.1556e-05,0
51.089,-4.2969e-05,0
51.089,-6.2104e-05,0
51.09,-6.7475e-05,0
51.09,-5.4887e-05,0
51.091,-3.8605e-05,0
51.091,-3.1724e-05,0
51.092,-3.2395e-05,0
51.092,-3.7766e-05,0
51.093,-4.7166e-05,0
51.093,-5.153e-05,0
51.094,-4.3137e-05,0
51.094,-2.2492e-05,0
51.095,6.3783e-06,0
51.095,4.0955e-05,0
51.096,7.4693e-05,0
51.096,8.4764e-05,0
51.097,6.865e-05,0
51.097,4.5991e-05,0
51.098,2.6688e-05,0
51.099,1.4435e-05,0
51.099,7.2175e-06,0
51.1,1.1749e-06,0
51.1,-1.8463e-06,0
51.101,-3.5248e-06,0
51.101,1.0071e-06,0
51.102,1.2757e-05,0
51.102,3.0045e-05,0
51.103,5.2873e-05,0
51.103,7.2007e-05,0
51.104,7.2175e-05,0
51.104,6.6972e-05,0
51.105,6.7475e-05,0
51.105,6.0929e-05,0
51.106,3.978e-05,0
51.106,1.8967e-05,0
51.107,1.4267e-05,0
51.107,2.7359e-05,0
51.108,4.3809e-05,0
51.108,4.5487e-05,0
51.109,2.6017e-05,0
51.109,-4.1962e-06,0
51.11,-3.5584e-05,0
51.11,-6.009e-05,0
51.111,-7.4022e-05,0
51.112,-7.7714e-05,0
51.112,-7.4357e-05,0
51.113,-6.9154e-05,0
51.113,-6.2776e-05,0
51.114,-4.5487e-05,0
51.114,-2.0813e-05,0
51.115,7.8889e-06,0
51.115,3.592e-05,0
51.116,5.2033e-05,0
51.116,4.9012e-05,0
51.117,3.8102e-05,0
51.117,3.0716e-05,0
51.118,3.2731e-05,0
51.118,4.2466e-05,0
51.119,5.539e-05,0
51.119,6.7308e-05,0
51.12,7.2679e-05,0
51.12,7.2343e-05,0
51.121,6.7643e-05,0
51.121,4.918e-05,0
51.122,1.1917e-05,0
51.122,-1.6953e-05,0
51.123,-2.2995e-05,0
51.123,-2.0813e-05,0
51.124,-2.7192e-05,0
51.124,-5.4887e-05,0
51.125,-7.9561e-05,0
51.126,-6.8818e-05,0
51.126,-3.1891e-05,0
51.127,3.0213e-06,0
51.127,3.5248e-06,0
51.128,-3.7766e-05,0
51.128,-9.4163e-05,0
51.129,-0.00012253,0
51.129,-0.00010256,0
51.13,-4.6998e-05,0
51.13,2.6352e-05,0
51.131,9.4835e-05,0
51.131,0.00014351,0
51.132,0.00018312,0
51.132,0.00021569,0
51.133,0.00023549,0
51.133,0.0002318,0
51.134,0.00019387,0
51.134,0.00013143,0
51.135,7.2343e-05,0
51.135,5.3544e-05,0
51.136,7.4693e-05,0
51.136,0.00010457,0
51.137,0.00013277,0
51.137,0.00016164,0
51.138,0.00019185,0
51.139,0.00021653,0
51.139,0.00023465,0
51.14,0.00025328,0
51.14,0.00026201,0
51.141,0.00023986,0
51.141,0.00019387,0
51.142,0.00016063,0
51.142,0.00015224,0
51.143,0.00015593,0
51.143,0.00015761,0
51.144,0.00014939,0
51.144,0.00012605,0
51.145,8.8457e-05,0
51.145,5.1865e-05,0
51.146,2.2324e-05,0
51.146,-3.5248e-06,0
51.147,-3.1724e-05,0
51.147,-6.3615e-05,0
51.148,-8.6275e-05,0
51.148,-0.00010574,0
51.149,-0.0001279,0
51.149,-0.00014183,0
51.15,-0.00014687,0
51.15,-0.00015207,0
51.151,-0.00015996,0
51.151,-0.00017053,0
51.152,-0.00018614,0
51.153,-0.00020914,0
51.153,-0.00024019,0
51.154,-0.00025882,0
51.154,-0.00024036,0
51.155,-0.00019454,0
51.155,-0.00014049,0
51.156,-0.00010088,0
51.156,-8.896e-05,0
51.157,-8.9128e-05,0
51.157,-9.2988e-05,0
51.158,-0.00010625,0
51.158,-0.000118,0
51.159,-0.00010994,0
51.159,-8.5771e-05,0
51.16,-5.9586e-05,0
51.16,-3.4745e-05,0
51.161,-9.0639e-06,0
51.161,1.3596e-05,0
51.162,2.4338e-05,0
51.162,3.1891e-05,0
51.163,3.7934e-05,0
51.163,3.1891e-05,0
51.164,2.4842e-05,0
51.164,3.743e-05,0
51.165,6.3951e-05,0
51.166,7.9393e-05,0
51.166,7.0161e-05,0
51.167,4.4816e-05,0
51.167,2.266e-05,0
51.168,2.3667e-05,0
51.168,5.1698e-05,0
51.169,9.3492e-05,0
51.169,0.00012337,0
51.17,0.00012757,0
51.17,0.00011934,0
51.171,0.0001086,0
51.171,8.7114e-05,0
51.172,4.0452e-05,0
51.172,-2.4338e-05,0
51.173,-8.1575e-05,0
51.173,-0.00010256,0
51.174,-9.3828e-05,0
51.174,-8.1575e-05,0
51.175,-6.9657e-05,0
51.175,-2.7024e-05,0
51.176,6.3951e-05,0
51.176,0.00017003,0
51.177,0.00023415,0
51.177,0.00022878,0
51.178,0.00017473,0
51.178,0.00011397,0
51.179,7.5532e-05,0
51.18,5.6901e-05,0
51.18,4.6494e-05,0
51.181,3.0045e-05,0
51.181,1.5106e-06,0
51.182,-3.4745e-05,0
51.182,-8.2414e-05,0
51.183,-0.00011615,0
51.183,-0.00010105,0
51.184,-4.4984e-05,0
51.184,9.2317e-06,0
51.185,2.9709e-05,0
51.185,2.6017e-05,0
51.186,2.6688e-05,0
51.186,2.8367e-05,0
51.187,1.0071e-05,0
51.187,-1.3092e-05,0
51.188,-2.3835e-05,0
51.188,-2.2995e-05,0
51.189,-1.1414e-05,0
51.189,1.3092e-05,0
51.19,4.3977e-05,0
51.19,7.0832e-05,0
51.191,9.0974e-05,0
51.191,0.00011867,0
51.192,0.00016365,0
51.193,0.00020931,0
51.193,0.00023616,0
51.194,0.00022777,0
51.194,0.00019319,0
51.195,0.00015946,0
51.195,0.0001368,0
51.196,0.00011666,0
51.196,9.6849e-05,0
51.197,7.7714e-05,0
51.197,6.0761e-05,0
51.198,4.9012e-05,0
51.198,3.6088e-05,0
51.199,2.031e-05,0
51.199,8.5603e-06,0
51.2,-1.3428e-06,0
51.2,-2.031e-05,0
51.201,-4.5487e-05,0
51.201,-7.3686e-05,0
51.202,-0.0001091,0
51.202,-0.00014284,0
51.203,-0.00016936,0
51.203,-0.00019554,0
51.204,-0.00021854,0
51.204,-0.00023096,0
51.205,-0.00022593,0
51.206,-0.00020293,0
51.206,-0.00016298,0
51.207,-0.00010994,0
51.207,-3.8941e-05,0
51.208,5.7069e-05,0
51.208,0.0001702,0
51.209,0.00026705,0
51.209,0.00031606,0
51.21,0.00030263,0
51.21,0.00023516,0
51.211,0.00015677,0
51.211,0.00011363,0
51.212,0.00010188,0
51.212,0.00010306,0
51.213,0.00010457,0
51.213,9.7856e-05,0
51.214,8.3757e-05,0
51.214,6.2943e-05,0
51.215,3.9445e-05,0
51.215,2.4002e-05,0
51.216,3.0381e-05,0
51.216,3.6423e-05,0
51.217,7.2175e-06,0
51.217,-2.7359e-05,0
51.218,-3.7598e-05,0
51.218,-4.448e-05,0
51.219,-6.5126e-05,0
51.22,-9.7017e-05,0
51.22,-0.00012572,0
51.221,-0.00013982,0
51.221,-0.00013092,0
51.222,-9.7688e-05,0
51.222,-6.0594e-05,0
51.223,-3.357e-05,0
51.223,-8.2246e-06,0
51.224,9.9031e-06,0
51.224,2.501e-05,0
51.225,5.4215e-05,0
51.225,9.5171e-05,0
51.226,0.00012303,0
51.226,0.00011531,0
51.227,6.2272e-05,0
51.227,1.6785e-06,0
51.228,-1.9303e-05,0
51.228,3.357e-07,0
51.229,3.1388e-05,0
51.229,3.9948e-05,0
51.23,2.5681e-05,0
51.23,7.8889e-06,0
51.231,1.6785e-07,0
51.231,-7.7211e-06,0
51.232,-2.8367e-05,0
51.233,-4.6662e-05,0
51.233,-4.8844e-05,0
51.234,-5.4719e-05,0
51.234,-8.4428e-05,0
51.235,-0.00012941,0
51.235,-0.00015627,0
51.236,-0.00014855,0
51.236,-0.00010961,0
51.237,-6.9825e-05,0
51.237,-4.0452e-05,0
51.238,-2.0813e-05,0
51.238,-9.0639e-06,0
51.239,-5.539e-06,0
51.239,-1.8463e-06,0
51.24,1.326e-05,0
51.24,3.8773e-05,0
51.241,7.1672e-05,0
51.241,0.00010088,0
51.242,0.00011901,0
51.242,0.00013478,0
51.243,0.00016902,0
51.243,0.00020075,0
51.244,0.00019051,0
51.244,0.0001462,0
51.245,0.00010188,0
51.245,7.7714e-05,0
51.246,6.1601e-05,0
51.247,5.1194e-05,0
51.247,5.9251e-05,0
51.248,7.7211e-05,0
51.248,9.6178e-05,0
51.249,0.00011464,0
51.249,0.0001274,0
51.25,0.00013227,0
51.25,0.00012975,0
51.251,0.00010726,0
51.251,7.8386e-05,0
51.252,6.7643e-05,0
51.252,7.6371e-05,0
51.253,8.2078e-05,0
51.253,7.7882e-05,0
51.254,7.9057e-05,0
51.254,7.4525e-05,0
51.255,4.8173e-05,0
51.255,1.0407e-05,0
51.256,-2.031e-05,0
51.256,-4.4984e-05,0
51.257,-8.6778e-05,0
51.257,-0.00013848,0
51.258,-0.00016533,0
51.258,-0.00016567,0
51.259,-0.00015727,0
51.26,-0.00014049,0
51.26,-0.00011901,0
51.261,-9.2821e-05,0
51.261,-5.5222e-05,0
51.262,-7.8889e-06,0
51.262,4.6159e-05,0
51.263,9.0806e-05,0
51.263,0.00013277,0
51.264,0.00017238,0
51.264,0.00019991,0
51.265,0.00020662,0
51.265,0.00018346,0
51.266,0.00014821,0
51.266,0.0001284,0
51.267,0.0001185,0
51.267,9.9702e-05,0
51.268,7.5364e-05,0
51.268,5.6901e-05,0
51.269,4.9012e-05,0
51.269,3.508e-05,0
51.27,-2.2492e-05,0
51.27,-0.00010037,0
51.271,-0.00014754,0
51.271,-0.00016332,0
51.272,-0.00016265,0
51.272,-0.00016332,0
51.273,-0.00017288,0
51.274,-0.00016986,0
51.274,-0.00013646,0
51.275,-7.9561e-05,0
51.275,-1.1749e-05,0
51.276,7.57e-05,0
51.276,0.00017037,0
51.277,0.0002506,0
51.277,0.00030095,0
51.278,0.00031707,0
51.278,0.00031102,0
51.279,0.00029323,0
51.279,0.00026352,0
51.28,0.00022593,0
51.28,0.00018782,0
51.281,0.00013529,0
51.281,5.3544e-05,0
51.282,-4.1794e-05,0
51.282,-0.00012757,0
51.283,-0.0001942,0
51.283,-0.00023482,0
51.284,-0.00025664,0
51.284,-0.00027611,0
51.285,-0.00029642,0
51.285,-0.00030901,0
51.286,-0.00031572,0
51.286,-0.000307,0
51.287,-0.00027846,0
51.288,-0.00023583,0
51.288,-0.00017675,0
51.289,-9.6345e-05,0
51.289,-2.5177e-05,0
51.29,3.8605e-06,0
51.29,1.3428e-05,0
51.291,3.7095e-05,0
51.291,7.0329e-05,0
51.292,9.5842e-05,0
51.292,0.00010188,0
51.293,0.00010037,0
51.293,0.00012203,0
51.294,0.000165,0
51.294,0.00019857,0
51.295,0.00020914,0
51.295,0.0002036,0
51.296,0.00019403,0
51.296,0.00018631,0
51.297,0.00018044,0
51.297,0.0001749,0
51.298,0.00016768,0
51.298,0.00015761,0
51.299,0.00014015,0
51.299,0.00011733,0
51.3,0.00010088,0
51.301,9.2821e-05,0
51.301,8.3085e-05,0
51.302,5.4887e-05,0
51.302,-4.5319e-06,0
51.303,-6.3615e-05,0
51.303,-9.4499e-05,0
51.304,-0.00010877,0
51.304,-0.00011984,0
51.305,-0.00013596,0
51.305,-0.00015258,0
51.306,-0.00015811,0
51.306,-0.00014469,0
51.307,-0.00010809,0
51.307,-6.3615e-05,0
51.308,-4.1291e-05,0
51.308,-4.0452e-05,0
51.309,-3.2731e-05,0
51.309,-6.5461e-06,0
51.31,1.9638e-05,0
51.31,3.6759e-05,0
51.311,5.153e-05,0
51.311,6.1936e-05,0
51.312,6.5965e-05,0
51.312,6.8986e-05,0
51.313,6.9322e-05,0
51.313,6.1433e-05,0
51.314,4.9516e-05,0
51.315,4.2802e-05,0
51.315,3.5416e-05,0
51.316,1.9135e-05,0
51.316,8.7282e-06,0
51.317,4.1962e-06,0
51.317,-6.3783e-06,0
51.318,-2.2995e-05,0
51.318,-2.0478e-05,0
51.319,1.2253e-05,0
51.319,5.539e-05,0
51.32,7.7546e-05,0
51.32,7.7379e-05,0
51.321,7.2175e-05,0
51.321,6.2943e-05,0
51.322,4.5151e-05,0
51.322,2.3163e-05,0
51.323,7.8889e-06,0
51.323,3.5248e-06,0
51.324,1.1749e-06,0
51.324,4.3641e-06,0
51.325,1.7792e-05,0
51.325,4.1627e-05,0
51.326,5.7908e-05,0
51.326,4.9683e-05,0
51.327,2.031e-05,0
51.328,-9.7353e-06,0
51.328,-2.3163e-05,0
51.329,-1.6449e-05,0
51.329,1.1749e-06,0
51.33,2.7695e-05,0
51.33,5.623e-05,0
51.331,8.8792e-05,0
51.331,0.00012572,0
51.332,0.00014418,0
51.332,0.0001284,0
51.333,8.5771e-05,0
51.333,3.978e-05,0
51.334,1.4939e-05,0
51.334,7.2175e-06,0
51.335,-3.1891e-06,0
51.335,-1.3931e-05,0
51.336,-1.1917e-05,0
51.336,1.5106e-06,0
51.337,1.3931e-05,0
51.337,1.2421e-05,0
51.338,-1.6785e-07,0
51.338,-2.8534e-06,0
51.339,2.3331e-05,0
51.339,7.1672e-05,0
51.34,0.00012773,0
51.34,0.00016835,0
51.341,0.00017574,0
51.342,0.00014385,0
51.342,8.8121e-05,0
51.343,4.0787e-05,0
51.343,2.6688e-05,0
51.344,3.0045e-05,0
51.344,3.0381e-05,0
51.345,2.6352e-05,0
51.345,2.0478e-05,0
51.346,1.8296e-05,0
51.346,1.7288e-05,0
51.347,8.5603e-06,0
51.347,8.3925e-07,0
51.348,3.8605e-06,0
51.348,7.8889e-06,0
51.349,-1.6785e-06,0
51.349,-2.501e-05,0
51.35,-5.2537e-05,0
51.35,-7.5532e-05,0
51.351,-9.2821e-05,0
51.351,-9.6849e-05,0
51.352,-8.2918e-05,0
51.352,-5.1362e-05,0
51.353,-4.8676e-06,0
51.353,2.8702e-05,0
51.354,2.3499e-05,0
51.355,-1.091e-05,0
51.355,-4.062e-05,0
51.356,-2.6017e-05,0
51.356,4.5151e-05,0
51.357,0.00013898,0
51.357,0.00020461,0
51.358,0.00021636,0
51.358,0.00018782,0
51.359,0.00015023,0
51.359,0.00011414,0
51.36,7.2343e-05,0
51.36,2.5345e-05,0
51.361,-9.0639e-06,0
51.361,-3.4073e-05,0
51.362,-6.6133e-05,0
51.362,-0.00010541,0
51.363,-0.00014687,0
51.363,-0.00018296,0
51.364,-0.0001984,0
51.364,-0.00018195,0
51.365,-0.00013948,0
51.365,-7.6036e-05,0
51.366,-1.2421e-05,0
51.366,3.1724e-05,0
51.367,5.7572e-05,0
51.367,7.0329e-05,0
51.368,7.7043e-05,0
51.369,8.4764e-05,0
51.369,9.5506e-05,0
51.37,0.00010726,0
51.37,0.00011733,0
51.371,0.00011347,0
51.371,9.5003e-05,0
51.372,7.3518e-05,0
51.372,5.2873e-05,0
51.373,3.3906e-05,0
51.373,1.7288e-05,0
51.374,-3.1891e-06,0
51.374,-1.6953e-05,0
51.375,-8.2246e-06,0
51.375,1.2924e-05,0
51.376,2.3331e-05,0
51.376,1.6785e-05,0
51.377,-1.6785e-07,0
51.377,-2.3835e-05,0
51.378,-4.6662e-05,0
51.378,-5.9586e-05,0
51.379,-6.2943e-05,0
51.379,-5.6565e-05,0
51.38,-4.683e-05,0
51.38,-4.0284e-05,0
51.381,-3.1724e-05,0
51.382,-4.1962e-06,0
51.382,4.3809e-05,0
51.383,8.7785e-05,0
51.383,9.6513e-05,0
51.384,5.8915e-05,0
51.384,-6.714e-07,0
51.385,-5.2033e-05,0
51.385,-8.04e-05,0
51.386,-9.4163e-05,0
51.386,-9.836e-05,0
51.387,-8.7785e-05,0
51.387,-7.7379e-05,0
51.388,-8.3421e-05,0
51.388,-8.9464e-05,0
51.389,-7.8721e-05,0
51.389,-6.244e-05,0
51.39,-6.1265e-05,0
51.39,-7.7714e-05,0
51.391,-9.4331e-05,0
51.391,-8.6107e-05,0
51.392,-6.6636e-05,0
51.392,-5.3208e-05,0
51.393,-2.2156e-05,0
51.393,6.2104e-05,0
51.394,0.00018816,0
51.395,0.00029256,0
51.395,0.00032546,0
51.396,0.00028568,0
51.396,0.00021552,0
51.397,0.00015694,0
51.397,0.00013008,0
51.398,0.0001279,0
51.398,0.00013143,0
51.399,0.0001331,0
51.399,0.0001279,0
51.4,0.00011833,0
51.4,0.00010793,0
51.401,9.6345e-05,0
51.401,8.8121e-05,0
51.402,6.0929e-05,0
51.402,-9.5674e-06,0
51.403,-9.987e-05,0
51.403,-0.0001603,0
51.404,-0.00017859,0
51.404,-0.00017305,0
51.405,-0.00015425,0
51.405,-0.00012035,0
51.406,-7.7882e-05,0
51.406,-5.6565e-05,0
51.407,-6.8482e-05,0
51.407,-7.9393e-05,0
51.408,-5.3208e-05,0
51.409,2.887e-05,0
51.409,0.00015727,0
51.41,0.00027376,0
51.41,0.00032009,0
51.411,0.00029928,0
51.411,0.00025463,0
51.412,0.00020931,0
51.412,0.00015627,0
51.413,8.5771e-05,0
51.413,3.0381e-05,0
51.414,9.9031e-06,0
51.414,2.3835e-05,0
51.415,6.3783e-05,0
51.415,0.00010491,0
51.416,0.00013042,0
51.416,0.0001368,0
51.417,0.00011783,0
51.417,7.4189e-05,0
51.418,2.6017e-05,0
51.418,-7.5532e-06,0
51.419,-2.3667e-05,0
51.419,-3.0716e-05,0
51.42,-3.7263e-05,0
51.42,-4.4312e-05,0
51.421,-5.0019e-05,0
51.422,-5.5055e-05,0
51.422,-5.8076e-05,0
51.423,-5.2873e-05,0
51.423,-4.6159e-05,0
51.424,-4.6494e-05,0
51.424,-5.5558e-05,0
51.425,-6.63e-05,0
51.425,-7.6371e-05,0
51.426,-8.7617e-05,0
51.426,-9.7185e-05,0
51.427,-9.9702e-05,0
51.427,-9.0303e-05,0
51.428,-6.5629e-05,0
51.428,-3.6759e-05,0
51.429,-1.7792e-05,0
51.429,-5.7069e-06,0
51.43,2.1317e-05,0
51.43,6.7643e-05,0
51.431,0.00010591,0
51.431,0.00012001,0
51.432,0.00012589,0
51.432,0.00013747,0
51.433,0.00014821,0
51.433,0.00014888,0
51.434,0.00014066,0
51.434,0.0001321,0
51.435,0.0001237,0
51.436,0.00011028,0
51.436,9.366e-05,0
51.437,7.4357e-05,0
51.437,5.4719e-05,0
51.438,4.0116e-05,0
51.438,2.2324e-05,0
51.439,-8.3925e-07,0
51.439,-2.3331e-05,0
51.44,-4.3473e-05,0
51.44,-5.8747e-05,0
51.441,-7.1672e-05,0
51.441,-8.5603e-05,0
51.442,-0.00010188,0
51.442,-0.00012656,0
51.443,-0.00016349,0
51.443,-0.00019773,0
51.444,-0.00021837,0
51.444,-0.00022928,0
51.445,-0.00023096,0
51.445,-0.00022089,0
51.446,-0.00019739,0
51.446,-0.0001566,0
51.447,-0.00010826,0
51.447,-6.63e-05,0
51.448,-3.743e-05,0
51.449,-1.8296e-05,0
51.449,1.8463e-06,0
51.45,2.4002e-05,0
51.45,4.6159e-05,0
51.451,6.6972e-05,0
51.451,8.6275e-05,0
51.452,0.00010121,0
51.452,0.00011481,0
51.453,0.00012992,0
51.453,0.00013378,0
51.454,0.000118,0
51.454,0.00010172,0
51.455,8.7785e-05,0
51.455,6.9657e-05,0
51.456,4.4144e-05,0
51.456,6.5461e-06,0
51.457,-2.266e-05,0
51.457,-2.2492e-05,0
51.458,6.8818e-06,0
51.458,5.539e-05,0
51.459,0.00010491,0
51.459,0.00013327,0
51.46,0.00013646,0
51.46,0.00012505,0
51.461,0.00011263,0
51.461,9.4499e-05,0
51.462,6.8315e-05,0
51.463,4.683e-05,0
51.463,4.8844e-05,0
51.464,7.2343e-05,0
51.464,9.0639e-05,0
51.465,8.7785e-05,0
51.465,7.2847e-05,0
51.466,5.4215e-05,0
51.466,3.978e-05,0
51.467,2.9877e-05,0
51.467,2.501e-05,0
51.468,2.8702e-05,0
51.468,3.0549e-05,0
51.469,2.266e-05,0
51.469,7.5532e-06,0
51.47,-1.2253e-05,0
51.47,-3.8437e-05,0
51.471,-6.2608e-05,0
51.471,-7.6371e-05,0
51.472,-8.3253e-05,0
51.472,-8.1743e-05,0
51.473,-6.5629e-05,0
51.473,-4.0452e-05,0
51.474,-1.2924e-05,0
51.474,1.6953e-05,0
51.475,4.8844e-05,0
51.475,9.2485e-05,0
51.476,0.00016634,0
51.477,0.00025698,0
51.477,0.00032781,0
51.478,0.00036809,0
51.478,0.00038622,0
51.479,0.00037682,0
51.479,0.00032177,0
51.48,0.00022123,0
51.48,0.00011347,0
51.481,4.4144e-05,0
51.481,1.6785e-05,0
51.482,0,0
51.482,-2.4002e-05,0
51.483,-3.9948e-05,0
51.483,-3.7095e-05,0
51.484,-3.1052e-05,0
51.484,-3.122e-05,0
51.485,-3.827e-05,0
51.485,-5.623e-05,0
51.486,-7.4357e-05,0
51.486,-7.8386e-05,0
51.487,-6.9322e-05,0
51.487,-5.7404e-05,0
51.488,-5.2537e-05,0
51.488,-5.3712e-05,0
51.489,-5.4215e-05,0
51.49,-4.8508e-05,0
51.49,-4.0452e-05,0
51.491,-3.3066e-05,0
51.491,-1.9303e-05,0
51.492,-2.3499e-06,0
51.492,-3.357e-07,0
51.493,-8.7282e-06,0
51.493,-3.1891e-06,0
51.494,1.6617e-05,0
51.494,3.4241e-05,0
51.495,4.4648e-05,0
51.495,4.9516e-05,0
51.496,3.6759e-05,0
51.496,1.1246e-05,0
51.497,-7.2175e-06,0
51.497,-1.6281e-05,0
51.498,-3.0045e-05,0
51.498,-4.9516e-05,0
51.499,-5.8244e-05,0
51.499,-5.1865e-05,0
51.5,-2.7024e-05,0
51.5,1.0407e-05,0
51.501,4.448e-05,0
51.501,6.7643e-05,0
51.502,7.5029e-05,0
51.502,6.2943e-05,0
51.503,3.8773e-05,0
51.504,3.8605e-06,0
51.504,-3.6759e-05,0
51.505,-6.9657e-05,0
51.505,-7.7714e-05,0
51.506,-6.5965e-05,0
51.506,-5.5222e-05,0
51.507,-5.304e-05,0
51.507,-5.2201e-05,0
51.508,-4.6494e-05,0
51.508,-3.743e-05,0
51.509,-3.1388e-05,0
51.509,-3.1052e-05,0
51.51,-3.8773e-05,0
51.51,-4.8341e-05,0
51.511,-5.153e-05,0
51.511,-5.8579e-05,0
51.512,-6.4622e-05,0
51.512,-4.5487e-05,0
51.513,5.0355e-07,0
51.513,5.0523e-05,0
51.514,8.7114e-05,0
51.514,0.00010121,0
51.515,9.8192e-05,0
51.515,9.0974e-05,0
51.516,8.426e-05,0
51.517,7.6539e-05,0
51.517,6.865e-05,0
51.518,5.304e-05,0
51.518,3.592e-05,0
51.519,2.7024e-05,0
51.519,2.7527e-05,0
51.52,2.9038e-05,0
51.52,2.5849e-05,0
51.521,1.2421e-05,0
51.521,-1.7792e-05,0
51.522,-5.7572e-05,0
51.522,-9.5003e-05,0
51.523,-0.00011666,0
51.523,-0.000118,0
51.524,-0.00011498,0
51.524,-0.00011968,0
51.525,-0.00012505,0
51.525,-0.00011431,0
51.526,-7.6539e-05,0
51.526,-1.3931e-05,0
51.527,5.153e-05,0
51.527,9.7185e-05,0
51.528,0.00010188,0
51.528,7.3686e-05,0
51.529,4.3473e-05,0
51.529,2.8702e-05,0
51.53,3.0716e-05,0
51.531,4.2802e-05,0
51.531,6.1601e-05,0
51.532,8.3757e-05,0
51.532,8.5603e-05,0
51.533,6.5629e-05,0
51.533,4.8844e-05,0
51.534,3.6423e-05,0
51.534,3.5248e-06,0
51.535,-4.8005e-05,0
51.535,-8.3421e-05,0
51.536,-8.6442e-05,0
51.536,-6.0426e-05,0
51.537,-1.1078e-05,0
51.537,4.2802e-05,0
51.538,7.4693e-05,0
51.538,8.6442e-05,0
51.539,9.8863e-05,0
51.539,0.00012992,0
51.54,0.00016735,0
51.54,0.00020797,0
51.541,0.00025396,0
51.541,0.0002892,0
51.542,0.00029374,0
51.542,0.00026101,0
51.543,0.00021048,0
51.544,0.00016533,0
51.544,0.0001331,0
51.545,0.00011061,0
51.545,9.5171e-05,0
51.546,9.5842e-05,0
51.546,0.00010457,0
51.547,0.00010625,0
51.547,9.5171e-05,0
51.548,7.1504e-05,0
51.548,3.9612e-05,0
51.549,5.2033e-06,0
51.549,-3.1724e-05,0
51.55,-5.1194e-05,0
51.55,-3.7766e-05,0
51.551,-6.5461e-06,0
51.551,2.0645e-05,0
51.552,3.978e-05,0
51.552,5.0858e-05,0
51.553,5.069e-05,0
51.553,4.5487e-05,0
51.554,3.8773e-05,0
51.554,2.2324e-05,0
51.555,-7.2175e-06,0
51.555,-4.1291e-05,0
51.556,-6.5461e-05,0
51.556,-7.805e-05,0
51.557,-8.3421e-05,0
51.558,-8.6778e-05,0
51.558,-9.9199e-05,0
51.559,-0.00011632,0
51.559,-0.00012757,0
51.56,-0.00012941,0
51.56,-0.00011565,0
51.561,-9.0806e-05,0
51.561,-6.9322e-05,0
51.562,-5.4551e-05,0
51.562,-4.3137e-05,0
51.563,-3.2563e-05,0
51.563,-1.9638e-05,0
51.564,3.357e-06,0
51.564,2.6688e-05,0
51.565,4.4816e-05,0
51.565,5.8244e-05,0
51.566,6.3615e-05,0
51.566,6.3615e-05,0
51.567,6.9657e-05,0
51.567,7.805e-05,0
51.568,7.8889e-05,0
51.568,6.949e-05,0
51.569,5.9922e-05,0
51.569,5.2873e-05,0
51.57,4.1627e-05,0
51.571,2.3331e-05,0
51.571,-2.0142e-06,0
51.572,-3.1724e-05,0
51.572,-6.2272e-05,0
51.573,-9.4499e-05,0
51.573,-0.00012773,0
51.574,-0.00015056,0
51.574,-0.00015392,0
51.575,-0.00014401,0
51.575,-0.00012471,0
51.576,-9.3828e-05,0
51.576,-6.3111e-05,0
51.577,-4.1962e-05,0
51.577,-2.7527e-05,0
51.578,-1.8967e-05,0
51.578,-5.539e-06,0
51.579,1.561e-05,0
51.579,3.7095e-05,0
51.58,4.7837e-05,0
51.58,5.153e-05,0
51.581,5.4047e-05,0
51.581,5.7572e-05,0
51.582,6.3279e-05,0
51.582,7.4189e-05,0
51.583,8.9632e-05,0
51.584,0.00010776,0
51.584,0.00012337,0
51.585,0.00013411,0
51.585,0.00013747,0
51.586,0.00012471,0
51.586,9.3492e-05,0
51.587,4.8005e-05,0
51.587,0,0
51.588,-3.5248e-05,0
51.588,-6.6133e-05,0
51.589,-9.8863e-05,0
51.589,-0.00012471,0
51.59,-0.00014385,0
51.59,-0.00016147,0
51.591,-0.00017037,0
51.591,-0.00015761,0
51.592,-0.00012555,0
51.592,-9.1646e-05,0
51.593,-6.3951e-05,0
51.593,-2.9038e-05,0
51.594,2.0142e-05,0
51.594,7.4022e-05,0
51.595,0.00012522,0
51.595,0.00014754,0
51.596,0.00011565,0
51.596,5.774e-05,0
51.597,1.2589e-05,0
51.598,-9.0639e-06,0
51.598,-1.3092e-05,0
51.599,-6.0426e-06,0
51.599,1.091e-05,0
51.6,4.918e-05,0
51.6,0.00011296,0
51.601,0.0001744,0
51.601,0.00021199,0
51.602,0.00021569,0
51.602,0.00019739,0
51.603,0.00019051,0
51.603,0.00020662,0
51.604,0.00023348,0
51.604,0.00023818,0
51.605,0.00020662,0
51.605,0.00016634,0
51.606,0.0001378,0
51.606,0.00011766,0
51.607,0.00010726,0
51.607,0.00010558,0
51.608,9.9702e-05,0
51.608,7.805e-05,0
51.609,4.213e-05,0
51.609,-8.896e-06,0
51.61,-6.3447e-05,0
51.611,-8.3757e-05,0
51.611,-5.2537e-05,0
51.612,5.8747e-06,0
51.612,5.1362e-05,0
51.613,6.8986e-05,0
51.613,6.8147e-05,0
51.614,5.7069e-05,0
51.614,4.3473e-05,0
51.615,3.5416e-05,0
51.615,2.5513e-05,0
51.616,1.5778e-05,0
51.616,1.8967e-05,0
51.617,2.9374e-05,0
51.617,4.1459e-05,0
51.618,5.5222e-05,0
51.618,6.2608e-05,0
51.619,6.479e-05,0
51.619,7.0329e-05,0
51.62,7.7043e-05,0
51.62,7.0497e-05,0
51.621,5.3544e-05,0
51.621,3.7766e-05,0
51.622,2.6688e-05,0
51.622,1.2085e-05,0
51.623,-1.0071e-05,0
51.623,-2.9374e-05,0
51.624,-4.3137e-05,0
51.625,-5.8915e-05,0
51.625,-6.9657e-05,0
51.626,-6.9825e-05,0
51.626,-6.3783e-05,0
51.627,-6.0761e-05,0
51.627,-6.8147e-05,0
51.628,-8.0064e-05,0
51.628,-9.2317e-05,0
51.629,-0.0001091,0
51.629,-0.00012303,0
51.63,-0.00013143,0
51.63,-0.00013864,0
51.631,-0.00013361,0
51.631,-0.00010893,0
51.632,-6.9154e-05,0
51.632,-1.8296e-05,0
51.633,4.0452e-05,0
51.633,9.4499e-05,0
51.634,0.00012706,0
51.634,0.00013613,0
51.635,0.00013411,0
51.635,0.00013243,0
51.636,0.00013948,0
51.636,0.00015157,0
51.637,0.00015677,0
51.638,0.00016181,0
51.638,0.000165,0
51.639,0.00016063,0
51.639,0.00014469,0
51.64,0.00012337,0
51.64,0.00010172,0
51.641,7.1e-05,0
51.641,2.6352e-05,0
51.642,-2.4338e-05,0
51.642,-7.6204e-05,0
51.643,-0.00011196,0
51.643,-0.00011783,0
51.644,-0.00012001,0
51.644,-0.00013176,0
51.645,-0.00013478,0
51.645,-0.00012773,0
51.646,-0.00012454,0
51.646,-0.0001321,0
51.647,-0.00015325,0
51.647,-0.00017792,0
51.648,-0.00019269,0
51.648,-0.00019068,0
51.649,-0.0001702,0
51.649,-0.00013864,0
51.65,-0.00010054,0
51.65,-5.5726e-05,0
51.651,-2.182e-05,0
51.652,-1.1246e-05,0
51.652,-1.1917e-05,0
51.653,-1.8463e-05,0
51.653,-3.2563e-05,0
51.654,-3.978e-05,0
51.654,-3.0213e-05,0
51.655,-1.0407e-05,0
51.655,1.091e-05,0
51.656,1.5442e-05,0
51.656,9.3996e-06,0
51.657,6.8818e-06,0
51.657,1.6785e-07,0
51.658,3.357e-07,0
51.658,1.8296e-05,0
51.659,4.2634e-05,0
51.659,6.0594e-05,0
51.66,7.6204e-05,0
51.66,9.0135e-05,0
51.661,9.1478e-05,0
51.661,8.275e-05,0
51.662,7.2679e-05,0
51.662,7.4022e-05,0
51.663,8.7449e-05,0
51.663,0.00011061,0
51.664,0.00014485,0
51.664,0.00018614,0
51.665,0.00021434,0
51.666,0.00021233,0
51.666,0.00019219,0
51.667,0.000165,0
51.667,0.00012018,0
51.668,5.0858e-05,0
51.668,-2.1653e-05,0
51.669,-7.2343e-05,0
51.669,-0.00010541,0
51.67,-0.00012857,0
51.67,-0.00014502,0
51.671,-0.00014519,0
51.671,-0.00011615,0
51.672,-5.5222e-05,0
51.672,2.0142e-05,0
51.673,9.2317e-05,0
51.673,0.0001702,0
51.674,0.00025446,0
51.674,0.0003127,0
51.675,0.00033066,0
51.675,0.00031539,0
51.676,0.00028048,0
51.676,0.0002365,0
51.677,0.00019823,0
51.677,0.0001744,0
51.678,0.00015392,0
51.679,0.00012572,0
51.679,9.4499e-05,0
51.68,6.5293e-05,0
51.68,4.3305e-05,0
51.681,3.743e-05,0
51.681,3.9109e-05,0
51.682,3.7095e-05,0
51.682,3.2059e-05,0
51.683,1.6114e-05,0
51.683,-6.8818e-06,0
51.684,-1.6785e-05,0
51.684,-1.1582e-05,0
51.685,-2.0142e-06,0
51.685,2.5177e-06,0
51.686,-9.5674e-06,0
51.686,-3.4073e-05,0
51.687,-6.4622e-05,0
51.687,-9.2149e-05,0
51.688,-0.00011028,0
51.688,-0.00011649,0
51.689,-0.00011011,0
51.689,-9.5171e-05,0
51.69,-7.7043e-05,0
51.69,-6.0426e-05,0
51.691,-4.448e-05,0
51.691,-3.0381e-05,0
51.692,-2.2156e-05,0
51.693,-2.1653e-05,0
51.693,-1.796e-05,0
51.694,-6.8818e-06,0
51.694,7.7211e-06,0
51.695,7.3854e-06,0
51.695,-1.091e-05,0
51.696,-2.266e-05,0
51.696,-2.2995e-05,0
51.697,-2.2324e-05,0
51.697,-1.9638e-05,0
51.698,-1.6281e-05,0
51.698,-8.896e-06,0
51.699,9.5674e-06,0
51.699,3.5584e-05,0
51.7,5.7069e-05,0
51.7,6.7475e-05,0
51.701,7.5029e-05,0
51.701,8.4764e-05,0
51.702,8.8121e-05,0
51.702,8.1743e-05,0
51.703,7.4861e-05,0
51.703,7.5029e-05,0
51.704,8.04e-05,0
51.704,8.2414e-05,0
51.705,6.3279e-05,0
51.706,2.6017e-05,0
51.706,-7.8889e-06,0
51.707,-3.4241e-05,0
51.707,-5.3544e-05,0
51.708,-6.1936e-05,0
51.708,-6.3447e-05,0
51.709,-6.0594e-05,0
51.709,-5.5055e-05,0
51.71,-5.9922e-05,0
51.71,-7.7882e-05,0
51.711,-9.5171e-05,0
51.711,-0.0001034,0
51.712,-0.00010071,0
51.712,-8.1407e-05,0
51.713,-4.3809e-05,0
51.713,-2.8534e-06,0
51.714,2.1988e-05,0
51.714,2.4002e-05,0
51.715,2.2156e-05,0
51.715,2.501e-05,0
51.716,3.0716e-05,0
51.716,3.5416e-05,0
51.717,3.3738e-05,0
51.717,2.6017e-05,0
51.718,1.561e-05,0
51.718,-1.8463e-06,0
51.719,-3.3906e-05,0
51.72,-8.2078e-05,0
51.72,-0.00012941,0
51.721,-0.00016735,0
51.721,-0.00019101,0
51.722,-0.00020981,0
51.722,-0.00022576,0
51.723,-0.0002229,0
51.723,-0.00017607,0
51.724,-0.00010088,0
51.724,-4.062e-05,0
51.725,-1.5274e-05,0
51.725,-5.0355e-06,0
51.726,2.1653e-05,0
51.726,6.2272e-05,0
51.727,9.2821e-05,0
51.727,9.5842e-05,0
51.728,7.9896e-05,0
51.728,7.9057e-05,0
51.729,0.00011028,0
51.729,0.00015879,0
51.73,0.00019789,0
51.73,0.00020931,0
51.731,0.00020058,0
51.731,0.00019319,0
51.732,0.00020864,0
51.733,0.00023784,0
51.733,0.00026252,0
51.734,0.00028098,0
51.734,0.00029256,0
51.735,0.00028652,0
51.735,0.00024892,0
51.736,0.00019152,0
51.736,0.00014653,0
51.737,0.00012404,0
51.737,0.00011263,0
51.738,9.9199e-05,0
51.738,7.8218e-05,0
51.739,4.9012e-05,0
51.739,1.796e-05,0
51.74,-8.5603e-06,0
51.74,-2.5177e-05,0
51.741,-3.7263e-05,0
51.741,-5.1194e-05,0
51.742,-7.2847e-05,0
51.742,-9.7688e-05,0
51.743,-0.00011716,0
51.743,-0.00012555,0
51.744,-0.00012136,0
51.744,-0.00010692,0
51.745,-8.1239e-05,0
51.745,-4.2298e-05,0
51.746,2.5177e-06,0
51.747,2.8534e-05,0
51.747,1.2924e-05,0
51.748,-2.9374e-05,0
51.748,-6.2608e-05,0
51.749,-6.5797e-05,0
51.749,-3.9612e-05,0
51.75,-2.182e-06,0
51.75,2.7024e-05,0
51.751,4.3809e-05,0
51.751,6.2776e-05,0
51.752,8.2918e-05,0
51.752,9.3156e-05,0
51.753,8.896e-05,0
51.753,7.6875e-05,0
51.754,6.2943e-05,0
51.754,5.8915e-05,0
51.755,7.4022e-05,0
51.755,9.5506e-05,0
51.756,9.9031e-05,0
51.756,8.3757e-05,0
51.757,6.9657e-05,0
51.757,6.5965e-05,0
51.758,6.2943e-05,0
51.758,5.1865e-05,0
51.759,3.1556e-05,0
51.76,1.1078e-05,0
51.76,-6.3783e-06,0
51.761,-1.9135e-05,0
51.761,-2.8199e-05,0
51.762,-2.9709e-05,0
51.762,-2.5345e-05,0
51.763,-1.3092e-05,0
51.763,5.2033e-06,0
51.764,2.3331e-05,0
51.764,4.1291e-05,0
51.765,5.2873e-05,0
51.765,4.5487e-05,0
51.766,3.6088e-05,0
51.766,4.213e-05,0
51.767,5.7404e-05,0
51.767,7.1672e-05,0
51.768,7.8721e-05,0
51.768,8.2414e-05,0
51.769,8.4092e-05,0
51.769,8.0903e-05,0
51.77,7.2679e-05,0
51.77,6.2608e-05,0
51.771,4.5991e-05,0
51.771,2.0813e-05,0
51.772,1.5106e-06,0
51.773,-1.0575e-05,0
51.773,-4.0284e-05,0
51.774,-8.6107e-05,0
51.774,-0.00013176,0
51.775,-0.00017406,0
51.775,-0.00021837,0
51.776,-0.00026319,0
51.776,-0.00029038,0
51.777,-0.00028165,0
51.777,-0.00022861,0
51.778,-0.00013881,0
51.778,-3.8773e-05,0
51.779,3.1724e-05,0
51.779,6.7475e-05,0
51.78,7.1168e-05,0
51.78,4.213e-05,0
51.781,-1.6785e-07,0
51.781,-2.5345e-05,0
51.782,-2.3667e-05,0
51.782,-6.8818e-06,0
51.783,9.5674e-06,0
51.783,2.1149e-05,0
51.784,3.9109e-05,0
51.784,6.1601e-05,0
51.785,8.5771e-05,0
51.785,0.00010121,0
51.786,0.00010491,0
51.787,0.00010809,0
51.787,0.00011095,0
51.788,0.00010373,0
51.788,9.0135e-05,0
51.789,8.9799e-05,0
51.789,9.7185e-05,0
51.79,9.6513e-05,0
51.79,8.51e-05,0
51.791,5.9922e-05,0
51.791,2.8031e-05,0
51.792,2.3499e-06,0
51.792,-1.4939e-05,0
51.793,-2.3667e-05,0
51.793,-9.7353e-06,0
51.794,1.9806e-05,0
51.794,3.6759e-05,0
51.795,3.9948e-05,0
51.795,4.7837e-05,0
51.796,6.4958e-05,0
51.796,7.8721e-05,0
51.797,7.7043e-05,0
51.797,7.1672e-05,0
51.798,7.9057e-05,0
51.798,8.7282e-05,0
51.799,7.3686e-05,0
51.8,3.2395e-05,0
51.8,-2.5177e-05,0
51.801,-7.3182e-05,0
51.801,-9.9199e-05,0
51.802,-0.00011565,0
51.802,-0.00011884,0
51.803,-0.00010608,0
51.803,-6.865e-05,0
51.804,-8.5603e-06,0
51.804,5.6901e-05,0
51.805,0.00012068,0
51.805,0.00017708,0
51.806,0.00020914,0
51.806,0.00021468,0
51.807,0.00021736,0
51.807,0.00023214,0
51.808,0.00025463,0
51.808,0.00025563,0
51.809,0.00022173,0
51.809,0.00016701,0
51.81,0.00010793,0
51.81,5.5726e-05,0
51.811,1.4939e-05,0
51.811,-1.3596e-05,0
51.812,-2.9877e-05,0
51.812,-2.7695e-05,0
51.813,-9.7353e-06,0
51.814,3.357e-06,0
51.814,1.6785e-07,0
51.815,-1.4267e-05,0
51.815,-3.5584e-05,0
51.816,-4.8844e-05,0
51.816,-6.5797e-05,0
51.817,-9.131e-05,0
51.817,-0.00010323,0
51.818,-0.00010222,0
51.818,-9.5003e-05,0
51.819,-8.0735e-05,0
51.819,-6.5126e-05,0
51.82,-5.304e-05,0
51.82,-4.3641e-05,0
51.821,-3.3906e-05,0
51.821,-2.3667e-05,0
51.822,-1.4771e-05,0
51.822,-6.8818e-06,0
51.823,5.7069e-06,0
51.823,2.3163e-05,0
51.824,2.1988e-05,0
51.824,-5.8747e-06,0
51.825,-3.7263e-05,0
51.825,-5.069e-05,0
51.826,-4.9348e-05,0
51.827,-4.7837e-05,0
51.827,-4.7837e-05,0
51.828,-4.6662e-05,0
51.828,-3.827e-05,0
51.829,-2.4506e-05,0
51.829,-1.5946e-05,0
51.83,-8.896e-06,0
51.83,1.2421e-05,0
51.831,5.0523e-05,0
51.831,8.5771e-05,0
51.832,0.00010457,0
51.832,9.9199e-05,0
51.833,7.1672e-05,0
51.833,4.0452e-05,0
51.834,2.8367e-05,0
51.834,4.0116e-05,0
51.835,6.6636e-05,0
51.835,8.9799e-05,0
51.836,0.00010323,0
51.836,0.00010977,0
51.837,0.00011347,0
51.837,0.00011514,0
51.838,0.00011179,0
51.838,0.00010188,0
51.839,8.5771e-05,0
51.839,6.2272e-05,0
51.84,2.6688e-05,0
51.841,-1.1414e-05,0
51.841,-3.8941e-05,0
51.842,-6.2104e-05,0
51.842,-8.275e-05,0
51.843,-8.8121e-05,0
51.843,-8.5771e-05,0
51.844,-8.5771e-05,0
51.844,-8.4428e-05,0
51.845,-8.0735e-05,0
51.845,-6.3951e-05,0
51.846,-2.9709e-05,0
51.846,2.182e-06,0
51.847,1.5946e-05,0
51.847,1.1582e-05,0
51.848,-8.7282e-06,0
51.848,-2.7024e-05,0
51.849,-3.5752e-05,0
51.849,-4.3137e-05,0
51.85,-5.2537e-05,0
51.85,-5.4047e-05,0
51.851,-5.4215e-05,0
51.851,-5.2873e-05,0
51.852,-5.4383e-05,0
51.852,-7.0665e-05,0
51.853,-9.4331e-05,0
51.853,-9.4499e-05,0
51.854,-6.2943e-05,0
51.855,-2.1317e-05,0
51.855,6.8818e-06,0
51.856,1.2924e-05,0
51.856,4.0284e-06,0
51.857,-3.0213e-06,0
51.857,1.5106e-06,0
51.858,2.1988e-05,0
51.858,5.0858e-05,0
51.859,8.6778e-05,0
51.859,0.00013915,0
51.86,0.00019655,0
51.86,0.00023549,0
51.861,0.00023818,0
51.861,0.00020662,0
51.862,0.00015375,0
51.862,9.8695e-05,0
51.863,3.8773e-05,0
51.863,-3.5416e-05,0
51.864,-0.00010323,0
51.864,-0.00014553,0
51.865,-0.00015325,0
51.865,-0.00013512,0
51.866,-0.00010658,0
51.866,-6.3279e-05,0
51.867,-1.5106e-06,0
51.868,4.8844e-05,0
51.868,6.6636e-05,0
51.869,5.3208e-05,0
51.869,1.8631e-05,0
51.87,-7.7211e-06,0
51.87,4.1962e-06,0
51.871,4.9851e-05,0
51.871,9.4835e-05,0
51.872,0.00012438,0
51.872,0.00014737,0
51.873,0.000166,0
51.873,0.00018144,0
51.874,0.00018984,0
51.874,0.00018296,0
51.875,0.00017137,0
51.875,0.00016869,0
51.876,0.00017087,0
51.876,0.00017574,0
51.877,0.0001895,0
51.877,0.00021871,0
51.878,0.00025396,0
51.878,0.00026973,0
51.879,0.00024489,0
51.879,0.00018833,0
51.88,0.00012857,0
51.88,7.6036e-05,0
51.881,3.0381e-05,0
51.882,-6.3783e-06,0
51.882,-3.1556e-05,0
51.883,-4.6159e-05,0
51.883,-5.388e-05,0
51.884,-6.7308e-05,0
51.884,-8.4764e-05,0
51.885,-9.1646e-05,0
51.885,-8.5267e-05,0
51.886,-7.5364e-05,0
51.886,-6.3279e-05,0
51.887,-4.8676e-05,0
51.887,-3.2563e-05,0
51.888,-1.6114e-05,0
51.888,-8.896e-06,0
51.889,-1.2253e-05,0
51.889,-1.7624e-05,0
51.89,-1.091e-05,0
51.89,1.1582e-05,0
51.891,3.8605e-05,0
51.891,5.4887e-05,0
51.892,5.623e-05,0
51.892,5.388e-05,0
51.893,4.8508e-05,0
51.893,3.4409e-05,0
51.894,1.4603e-05,0
51.895,-3.5248e-06,0
51.895,-2.182e-05,0
51.896,-4.448e-05,0
51.896,-6.4118e-05,0
51.897,-7.2511e-05,0
51.897,-7.8553e-05,0
51.898,-8.7449e-05,0
51.898,-9.8192e-05,0
51.899,-0.00011582,0
51.899,-0.00013143,0
51.9,-0.00013143,0
51.9,-0.0001284,0
51.901,-0.00012908,0
51.901,-0.00012622,0
51.902,-0.00012001,0
51.902,-0.00010961,0
51.903,-9.4667e-05,0
51.903,-7.2679e-05,0
51.904,-4.6326e-05,0
51.904,-1.9638e-05,0
51.905,-1.6785e-07,0
51.905,9.2317e-06,0
51.906,1.5106e-05,0
51.906,2.3499e-05,0
51.907,2.6017e-05,0
51.907,2.031e-05,0
51.908,1.6449e-05,0
51.909,2.0645e-05,0
51.909,2.4002e-05,0
51.91,2.0142e-05,0
51.91,1.4603e-05,0
51.911,3.5248e-06,0
51.911,-2.031e-05,0
51.912,-5.153e-05,0
51.912,-7.6875e-05,0
51.913,-8.896e-05,0
51.913,-8.6442e-05,0
51.914,-7.6539e-05,0
51.914,-6.7643e-05,0
51.915,-5.8747e-05,0
51.915,-5.4887e-05,0
51.916,-4.7333e-05,0
51.916,-2.1149e-05,0
51.917,1.2589e-05,0
51.917,4.1794e-05,0
51.918,5.9754e-05,0
51.918,8.5771e-05,0
51.919,0.00014284,0
51.919,0.00021669,0
51.92,0.00027494,0
51.92,0.00029726,0
51.921,0.0002751,0
51.922,0.00021871,0
51.922,0.00016197,0
51.923,0.00012018,0
51.923,8.4764e-05,0
51.924,5.7572e-05,0
51.924,4.8173e-05,0
51.925,4.9516e-05,0
51.925,5.1865e-05,0
51.926,5.2537e-05,0
51.926,5.0858e-05,0
51.927,4.7166e-05,0
51.927,4.2466e-05,0
51.928,3.9445e-05,0
51.928,4.1794e-05,0
51.929,5.0019e-05,0
51.929,5.7572e-05,0
51.93,6.3279e-05,0
51.93,7.0665e-05,0
51.931,7.2511e-05,0
51.931,5.069e-05,0
51.932,1.1917e-05,0
51.932,-8.896e-06,0
51.933,3.8605e-06,0
51.933,2.7359e-05,0
51.934,3.6423e-05,0
51.934,3.3738e-05,0
51.935,3.3066e-05,0
51.936,4.0284e-05,0
51.936,5.3544e-05,0
51.937,6.0929e-05,0
51.937,6.0761e-05,0
51.938,6.2104e-05,0
51.938,7.7043e-05,0
51.939,9.4163e-05,0
51.939,8.9128e-05,0
51.94,5.9922e-05,0
51.94,3.4073e-05,0
51.941,2.6017e-05,0
51.941,3.1556e-05,0
51.942,3.5248e-05,0
51.942,2.8702e-05,0
51.943,1.4603e-05,0
51.943,2.3499e-06,0
51.944,-4.1962e-06,0
51.944,-1.561e-05,0
51.945,-4.5151e-05,0
51.945,-7.9057e-05,0
51.946,-9.0135e-05,0
51.946,-6.1097e-05,0
51.947,-1.4267e-05,0
51.947,1.8296e-05,0
51.948,2.1988e-05,0
51.949,1.1749e-06,0
51.949,-2.1317e-05,0
51.95,-3.2395e-05,0
51.95,-3.122e-05,0
51.951,-2.5681e-05,0
51.951,-2.0645e-05,0
51.952,-1.3931e-05,0
51.952,-5.8747e-06,0
51.953,-1.6785e-06,0
51.953,1.6785e-06,0
51.954,1.4267e-05,0
51.954,3.7766e-05,0
51.955,6.5461e-05,0
51.955,8.8457e-05,0
51.956,0.00010121,0
51.956,0.0001039,0
51.957,9.8192e-05,0
51.957,8.2078e-05,0
51.958,5.9922e-05,0
51.958,3.978e-05,0
51.959,3.2898e-05,0
51.959,3.3402e-05,0
51.96,2.1988e-05,0
51.96,-5.539e-06,0
51.961,-3.5752e-05,0
51.962,-6.0594e-05,0
51.962,-8.3421e-05,0
51.963,-0.00010877,0
51.963,-0.00013999,0
51.964,-0.00017288,0
51.964,-0.00019974,0
51.965,-0.00022744,0
51.965,-0.00025345,0
51.966,-0.00026033,0
51.966,-0.00023281,0
51.967,-0.00016197,0
51.967,-6.5629e-05,0
51.968,1.7288e-05,0
51.968,7.0497e-05,0
51.969,9.8527e-05,0
51.969,0.00010323,0
51.97,8.9128e-05,0
51.97,7.3854e-05,0
51.971,7.4357e-05,0
51.971,9.3828e-05,0
51.972,0.00012253,0
51.972,0.00014284,0
51.973,0.00015207,0
51.973,0.00015157,0
51.974,0.00013999,0
51.974,0.00012773,0
51.975,0.00012337,0
51.976,0.00012001,0
51.976,0.00010994,0
51.977,9.2821e-05,0
51.977,7.1336e-05,0
51.978,5.2033e-05,0
51.978,3.1388e-05,0
51.979,1.326e-05,0
51.979,4.6998e-06,0
51.98,-2.182e-06,0
51.98,-2.2324e-05,0
51.981,-3.7095e-05,0
51.981,-2.6352e-05,0
51.982,-1.5106e-06,0
51.982,2.887e-05,0
51.983,5.4383e-05,0
51.983,6.4286e-05,0
51.984,6.3951e-05,0
51.984,6.0594e-05,0
51.985,5.2369e-05,0
51.985,3.8773e-05,0
51.986,2.5345e-05,0
51.986,1.6281e-05,0
51.987,1.7121e-05,0
51.987,2.501e-05,0
51.988,4.7333e-05,0
51.989,9.5506e-05,0
51.989,0.00015694,0
51.99,0.00019571,0
51.99,0.00019252,0
51.991,0.00016936,0
51.991,0.00014754,0
51.992,0.00011984,0
51.992,7.6371e-05,0
51.993,3.0549e-05,0
51.993,6.5461e-06,0
51.994,7.2175e-06,0
51.994,1.2421e-05,0
51.995,3.8605e-06,0
51.995,-9.2317e-06,0
51.996,-2.2156e-05,0
51.996,-5.4383e-05,0
51.997,-0.00011061,0
51.997,-0.00016164,0
51.998,-0.00018967,0
51.998,-0.0001989,0
51.999,-0.00018648,0
51.999,-0.00016567,0
52,-0.00014888,0
52,-0.00012471,0
52.001,-7.2175e-05,0
52.001,5.0355e-07,0
52.002,6.1601e-05,0
52.003,9.9031e-05,0
52.003,0.00012471,0
52.004,0.00014485,0
52.004,0.00016365,0
52.005,0.00018715,0
52.005,0.00020394,0
52.006,0.00020897,0
52.006,0.00020444,0
52.007,0.00018463,0
52.007,0.00015258,0
52.008,0.00011901,0
52.008,8.5267e-05,0
52.009,5.8915e-05,0
52.009,4.4816e-05,0
52.01,3.3066e-05,0
52.01,1.6953e-05,0
52.011,1.6785e-06,0
52.011,-2.6856e-06,0
52.012,1.5106e-06,0
52.012,3.6927e-06,0
52.013,1.3428e-06,0
52.013,-1.2253e-05,0
52.014,-3.2059e-05,0
52.014,-4.5319e-05,0
52.015,-4.1962e-05,0
52.016,-2.7024e-05,0
52.016,-8.2246e-06,0
52.017,1.0575e-05,0
52.017,2.4506e-05,0
52.018,3.0549e-05,0
52.018,4.2466e-05,0
52.019,5.9922e-05,0
52.019,7.9393e-05,0
52.02,0.00010021,0
52.02,0.00011028,0
52.021,0.00010423,0
52.021,7.4189e-05,0
52.022,1.7121e-05,0
52.022,-4.0452e-05,0
52.023,-7.4189e-05,0
52.023,-8.6107e-05,0
52.024,-8.9632e-05,0
52.024,-9.5171e-05,0
52.025,-9.6513e-05,0
52.025,-9.2821e-05,0
52.026,-8.2918e-05,0
52.026,-6.7643e-05,0
52.027,-5.1865e-05,0
52.027,-3.7095e-05,0
52.028,-1.8631e-05,0
52.028,1.8463e-06,0
52.029,1.6785e-05,0
52.03,2.3667e-05,0
52.03,2.9374e-05,0
52.031,3.5752e-05,0
52.031,3.3234e-05,0
52.032,2.1317e-05,0
52.032,1.1749e-06,0
52.033,-2.5681e-05,0
52.033,-5.0523e-05,0
52.034,-6.7979e-05,0
52.034,-8.3421e-05,0
52.035,-9.8863e-05,0
52.035,-0.0001227,0
52.036,-0.00016181,0
52.036,-0.0001989,0
52.037,-0.00021317,0
52.037,-0.00020008,0
52.038,-0.00016567,0
52.038,-0.00011833,0
52.039,-5.9251e-05,0
52.039,1.3764e-05,0
52.04,8.7449e-05,0
52.04,0.0001415,0
52.041,0.0001509,0
52.041,0.0001227,0
52.042,8.04e-05,0
52.042,4.683e-05,0
52.043,3.2059e-05,0
52.044,3.3738e-05,0
52.044,3.9109e-05,0
52.045,4.683e-05,0
52.045,6.3279e-05,0
52.046,8.8792e-05,0
52.046,0.00011464,0
52.047,0.00012236,0
52.047,0.00011095,0
52.048,9.5674e-05,0
52.048,8.04e-05,0
52.049,6.0929e-05,0
52.049,3.6591e-05,0
52.05,1.1917e-05,0
52.05,-6.0426e-06,0
52.051,-1.8463e-05,0
52.051,-2.031e-05,0
52.052,-3.8605e-06,0
52.052,1.7121e-05,0
52.053,3.2731e-05,0
52.053,4.4816e-05,0
52.054,6.0761e-05,0
52.054,7.1672e-05,0
52.055,7.6707e-05,0
52.055,8.8457e-05,0
52.056,0.00011498,0
52.057,0.00014737,0
52.057,0.00017288,0
52.058,0.00017607,0
52.058,0.00016063,0
52.059,0.00015157,0
52.059,0.0001462,0
52.06,0.00013378,0
52.06,0.00012438,0
52.061,0.00011968,0
52.061,0.00010944,0
52.062,9.2988e-05,0
52.062,7.7546e-05,0
52.063,6.7475e-05,0
52.063,5.7404e-05,0
52.064,3.8102e-05,0
52.064,2.0478e-05,0
52.065,1.5274e-05,0
52.065,1.6953e-05,0
52.066,1.5106e-05,0
52.066,-4.1962e-06,0
52.067,-3.0716e-05,0
52.067,-5.1026e-05,0
52.068,-7.2007e-05,0
52.068,-9.4163e-05,0
52.069,-0.00010877,0
52.069,-0.00011531,0
52.07,-0.00011028,0
52.071,-8.7953e-05,0
52.071,-6.5293e-05,0
52.072,-6.2608e-05,0
52.072,-7.2847e-05,0
52.073,-7.1168e-05,0
52.073,-4.448e-05,0
52.074,-7.8889e-06,0
52.074,1.7288e-05,0
52.075,2.6017e-05,0
52.075,3.2898e-05,0
52.076,4.5487e-05,0
52.076,5.8915e-05,0
52.077,7.2679e-05,0
52.077,8.4428e-05,0
52.078,9.4835e-05,0
52.078,9.3492e-05,0
52.079,7.8386e-05,0
52.079,4.918e-05,0
52.08,9.2317e-06,0
52.08,-1.796e-05,0
52.081,-2.8367e-05,0
52.081,-4.5823e-05,0
52.082,-0.00010037,0
52.082,-0.00017423,0
52.083,-0.00023432,0
52.084,-0.00027242,0
52.084,-0.00027712,0
52.085,-0.0002459,0
52.085,-0.00019001,0
52.086,-0.00011867,0
52.086,-3.0045e-05,0
52.087,6.4622e-05,0
52.087,0.00014754,0
52.088,0.00020595,0
52.088,0.00023616,0
52.089,0.00024405,0
52.089,0.00023214,0
52.09,0.00021367,0
52.09,0.00020327,0
52.091,0.00018698,0
52.091,0.00015425,0
52.092,0.00011833,0
52.092,8.6442e-05,0
52.093,6.2943e-05,0
52.093,4.9348e-05,0
52.094,4.5487e-05,0
52.094,5.2201e-05,0
52.095,6.6468e-05,0
52.095,8.3085e-05,0
52.096,9.752e-05,0
52.096,0.00010793,0
52.097,0.00010558,0
52.098,9.3324e-05,0
52.098,8.1407e-05,0
52.099,7.2847e-05,0
52.099,6.2943e-05,0
52.1,4.9851e-05,0
52.1,4.0116e-05,0
52.101,2.7359e-05,0
52.101,6.714e-07,0
52.102,-2.8367e-05,0
52.102,-5.0355e-05,0
52.103,-7.2679e-05,0
52.103,-9.3492e-05,0
52.104,-0.00010239,0
52.104,-9.0303e-05,0
52.105,-6.1936e-05,0
52.105,-2.9877e-05,0
52.106,-5.8747e-06,0
52.106,4.5319e-06,0
52.107,4.1962e-06,0
52.107,3.0213e-06,0
52.108,4.5319e-06,0
52.108,5.0355e-06,0
52.109,4.1962e-06,0
52.109,9.7353e-06,0
52.11,1.7121e-05,0
52.111,1.8967e-05,0
52.111,3.8605e-06,0
52.112,-2.9709e-05,0
52.112,-6.9657e-05,0
52.113,-9.4835e-05,0
52.113,-9.6681e-05,0
52.114,-7.8553e-05,0
52.114,-4.4648e-05,0
52.115,1.8463e-06,0
52.115,5.6901e-05,0
52.116,0.00011531,0
52.116,0.00015627,0
52.117,0.00016869,0
52.117,0.00015962,0
52.118,0.00013814,0
52.118,0.00011128,0
52.119,8.3085e-05,0
52.119,5.2033e-05,0
52.12,2.4002e-05,0
52.12,-3.0213e-06,0
52.121,-3.743e-05,0
52.121,-7.0161e-05,0
52.122,-8.2246e-05,0
52.122,-7.0832e-05,0
52.123,-5.8076e-05,0
52.123,-5.4215e-05,0
52.124,-5.8244e-05,0
52.125,-6.8147e-05,0
52.125,-7.1168e-05,0
52.126,-5.3208e-05,0
52.126,-1.561e-05,0
52.127,1.9135e-05,0
52.127,3.1556e-05,0
52.128,7.5532e-06,0
52.128,-3.9109e-05,0
52.129,-7.335e-05,0
52.129,-7.3518e-05,0
52.13,-5.6397e-05,0
52.13,-3.9109e-05,0
52.131,-1.6953e-05,0
52.131,1.3596e-05,0
52.132,5.1865e-05,0
52.132,8.7785e-05,0
52.133,0.00011749,0
52.133,0.00014972,0
52.134,0.00018161,0
52.134,0.00019857,0
52.135,0.00018917,0
52.135,0.00015459,0
52.136,0.00011196,0
52.136,8.5771e-05,0
52.137,8.8289e-05,0
52.138,0.00010558,0
52.138,0.00011196,0
52.139,9.4163e-05,0
52.139,6.2943e-05,0
52.14,4.5151e-05,0
52.14,3.743e-05,0
52.141,2.6184e-05,0
52.141,8.896e-06,0
52.142,-9.5674e-06,0
52.142,-1.7624e-05,0
52.143,-1.9974e-05,0
52.143,-3.0549e-05,0
52.144,-4.3809e-05,0
52.144,-4.7501e-05,0
52.145,-4.6159e-05,0
52.145,-4.8844e-05,0
52.146,-5.7404e-05,0
52.146,-6.4622e-05,0
52.147,-6.2104e-05,0
52.147,-5.2369e-05,0
52.148,-4.7837e-05,0
52.148,-4.5823e-05,0
52.149,-3.6423e-05,0
52.149,-9.2317e-06,0
52.15,3.0716e-05,0
52.151,6.7979e-05,0
52.151,9.3828e-05,0
52.152,0.00010256,0
52.152,9.836e-05,0
52.153,9.3156e-05,0
52.153,8.6275e-05,0
52.154,7.0329e-05,0
52.154,5.5894e-05,0
52.155,5.6901e-05,0
52.155,6.5965e-05,0
52.156,6.5629e-05,0
52.156,5.539e-05,0
52.157,3.7766e-05,0
52.157,2.1988e-05,0
52.158,1.1917e-05,0
52.158,0,0
52.159,-2.0981e-05,0
52.159,-4.918e-05,0
52.16,-6.9322e-05,0
52.16,-7.2007e-05,0
52.161,-5.388e-05,0
52.161,-1.2924e-05,0
52.162,3.2059e-05,0
52.162,5.5222e-05,0
52.163,5.5894e-05,0
52.163,4.2802e-05,0
52.164,2.7024e-05,0
52.165,1.326e-05,0
52.165,9.7353e-06,0
52.166,8.5603e-06,0
52.166,-3.1891e-06,0
52.167,-2.0981e-05,0
52.167,-3.8102e-05,0
52.168,-5.153e-05,0
52.168,-5.6397e-05,0
52.169,-5.6062e-05,0
52.169,-5.1362e-05,0
52.17,-3.6759e-05,0
52.17,-1.9303e-05,0
52.171,-5.8747e-06,0
52.171,5.2033e-06,0
52.172,1.6785e-05,0
52.172,2.8367e-05,0
52.173,3.2731e-05,0
52.173,2.8702e-05,0
52.174,1.5274e-05,0
52.174,-3.8605e-06,0
52.175,-1.8296e-05,0
52.175,-2.4002e-05,0
52.176,-2.5681e-05,0
52.176,-3.0045e-05,0
52.177,-3.0716e-05,0
52.178,-2.5513e-05,0
52.178,-2.031e-05,0
52.179,-9.2317e-06,0
52.179,-3.5248e-06,0
52.18,-1.561e-05,0
52.18,-2.9541e-05,0
52.181,-3.5416e-05,0
52.181,-3.1891e-05,0
52.182,-1.4939e-05,0
52.182,1.2085e-05,0
52.183,4.683e-05,0
52.183,8.4092e-05,0
52.184,0.00010675,0
52.184,0.00010675,0
52.185,9.5338e-05,0
52.185,8.9799e-05,0
52.186,9.1142e-05,0
52.186,8.4428e-05,0
52.187,7.2007e-05,0
52.187,6.6636e-05,0
52.188,7.1336e-05,0
52.188,7.4022e-05,0
52.189,6.2943e-05,0
52.189,4.7501e-05,0
52.19,2.8702e-05,0
52.19,9.9031e-06,0
52.191,-2.8534e-06,0
52.192,-9.7353e-06,0
52.192,-1.7121e-05,0
52.193,-3.0549e-05,0
52.193,-4.5151e-05,0
52.194,-3.8437e-05,0
52.194,-7.2175e-06,0
52.195,2.5345e-05,0
52.195,4.3473e-05,0
52.196,4.8676e-05,0
52.196,5.0187e-05,0
52.197,5.8076e-05,0
52.197,6.6972e-05,0
52.198,7.4861e-05,0
52.198,8.1407e-05,0
52.199,8.4428e-05,0
52.199,8.8457e-05,0
52.2,0.00010188,0
52.2,0.00012186,0
52.201,0.00012807,0
52.201,0.00010994,0
52.202,8.2414e-05,0
52.202,6.3951e-05,0
52.203,5.4887e-05,0
52.203,4.8005e-05,0
52.204,3.3402e-05,0
52.205,9.9031e-06,0
52.205,-1.8967e-05,0
52.206,-3.5752e-05,0
52.206,-2.8702e-05,0
52.207,-8.2246e-06,0
52.207,2.6017e-05,0
52.208,5.6901e-05,0
52.208,7.4525e-05,0
52.209,8.5771e-05,0
52.209,9.3828e-05,0
52.21,9.1142e-05,0
52.21,8.1575e-05,0
52.211,7.1e-05,0
52.211,6.3951e-05,0
52.212,5.8747e-05,0
52.212,4.9516e-05,0
52.213,4.062e-05,0
52.213,4.0787e-05,0
52.214,4.4144e-05,0
52.214,4.0787e-05,0
52.215,2.3667e-05,0
52.215,6.3783e-06,0
52.216,-8.3925e-07,0
52.216,-3.6927e-06,0
52.217,-6.8818e-06,0
52.217,-8.2246e-06,0
52.218,-4.3641e-06,0
52.219,1.6785e-07,0
52.219,5.0355e-07,0
52.22,-2.8534e-06,0
52.22,-9.0639e-06,0
52.221,-8.5603e-06,0
52.221,-6.8818e-06,0
52.222,-6.8818e-06,0
52.222,0,0
52.223,5.7069e-06,0
52.223,2.182e-06,0
52.224,-5.2033e-06,0
52.224,-1.091e-05,0
52.225,-4.8676e-06,0
52.225,1.3596e-05,0
52.226,2.6352e-05,0
52.226,2.6856e-05,0
52.227,2.5177e-05,0
52.227,2.5513e-05,0
52.228,2.2156e-05,0
52.228,9.5674e-06,0
52.229,-5.2033e-06,0
52.229,-1.8128e-05,0
52.23,-2.887e-05,0
52.23,-3.6759e-05,0
52.231,-4.0955e-05,0
52.231,-4.0284e-05,0
52.232,-3.508e-05,0
52.233,-2.6017e-05,0
52.233,-2.1653e-05,0
52.234,-2.8702e-05,0
52.234,-4.3809e-05,0
52.235,-6.4622e-05,0
52.235,-8.6778e-05,0
52.236,-9.7353e-05,0
52.236,-9.7017e-05,0
52.237,-0.0001039,0
52.237,-0.00011666,0
52.238,-0.00012639,0
52.238,-0.00013143,0
52.239,-0.00012908,0
52.239,-0.00011615,0
52.24,-9.5003e-05,0
52.24,-7.0161e-05,0
52.241,-3.7766e-05,0
52.241,2.5177e-06,0
52.242,4.1459e-05,0
52.242,6.7308e-05,0
52.243,7.1672e-05,0
52.243,5.7908e-05,0
52.244,3.9948e-05,0
52.244,3.4409e-05,0
52.245,5.3208e-05,0
52.246,8.9799e-05,0
52.246,0.00012068,0
52.247,0.00012807,0
52.247,0.00011397,0
52.248,9.5003e-05,0
52.248,7.6371e-05,0
52.249,5.9586e-05,0
52.249,4.4984e-05,0
52.25,1.9638e-05,0
52.25,-1.6449e-05,0
52.251,-5.4215e-05,0
52.251,-8.0735e-05,0
52.252,-8.9799e-05,0
52.252,-9.3996e-05,0
52.253,-9.7353e-05,0
52.253,-8.8457e-05,0
52.254,-6.6468e-05,0
52.254,-3.5416e-05,0
52.255,1.1582e-05,0
52.255,8.04e-05,0
52.256,0.00015258,0
52.256,0.00020075,0
52.257,0.00022676,0
52.257,0.00024909,0
52.258,0.00026873,0
52.258,0.00027343,0
52.259,0.00024942,0
52.26,0.00020729,0
52.26,0.00017037,0
52.261,0.00014217,0
52.261,0.00011968,0
52.262,9.9702e-05,0
52.262,7.8386e-05,0
52.263,5.9419e-05,0
52.263,3.3402e-05,0
52.264,-5.0355e-06,0
52.264,-3.3906e-05,0
52.265,-4.8844e-05,0
52.265,-6.0594e-05,0
52.266,-7.335e-05,0
52.266,-8.2414e-05,0
52.267,-8.3085e-05,0
52.267,-7.2007e-05,0
52.268,-4.7501e-05,0
52.268,-1.2757e-05,0
52.269,2.266e-05,0
52.269,5.8244e-05,0
52.27,9.8527e-05,0
52.27,0.00013881,0
52.271,0.00017121,0
52.271,0.00019622,0
52.272,0.00020629,0
52.273,0.00019806,0
52.273,0.00018111,0
52.274,0.00016667,0
52.274,0.00015744,0
52.275,0.00014351,0
52.275,0.00011028,0
52.276,5.8747e-05,0
52.276,8.3925e-06,0
52.277,-3.0716e-05,0
52.277,-5.4551e-05,0
52.278,-6.3783e-05,0
52.278,-6.4286e-05,0
52.279,-6.0929e-05,0
52.279,-6.0929e-05,0
52.28,-6.9657e-05,0
52.28,-8.2414e-05,0
52.281,-9.6513e-05,0
52.281,-9.987e-05,0
52.282,-7.0497e-05,0
52.282,-1.1749e-05,0
52.283,5.153e-05,0
52.283,9.1142e-05,0
52.284,8.7953e-05,0
52.284,5.2033e-05,0
52.285,1.5946e-05,0
52.285,-3.1891e-06,0
52.286,-6.2104e-06,0
52.287,3.5248e-06,0
52.287,1.5274e-05,0
52.288,2.1317e-05,0
52.288,2.417e-05,0
52.289,1.8463e-05,0
52.289,-1.3428e-06,0
52.29,-2.5345e-05,0
52.29,-4.2298e-05,0
52.291,-4.9348e-05,0
52.291,-6.1769e-05,0
52.292,-8.8792e-05,0
52.292,-0.00012136,0
52.293,-0.00014015,0
52.293,-0.00013227,0
52.294,-9.2485e-05,0
52.294,-3.2059e-05,0
52.295,2.0478e-05,0
52.295,5.4551e-05,0
52.296,7.3686e-05,0
52.296,7.9393e-05,0
52.297,6.6468e-05,0
52.297,4.4144e-05,0
52.298,2.4842e-05,0
52.298,6.5461e-06,0
52.299,-1.6617e-05,0
52.3,-4.8173e-05,0
52.3,-8.1239e-05,0
52.301,-0.00011044,0
52.301,-0.00013512,0
52.302,-0.00015023,0
52.302,-0.00015879,0
52.303,-0.00016063,0
52.303,-0.00015123,0
52.304,-0.00012505,0
52.304,-8.3421e-05,0
52.305,-3.3234e-05,0
52.305,2.4674e-05,0
52.306,0.00010759,0
52.306,0.00021736,0
52.307,0.00031119,0
52.307,0.00034577,0
52.308,0.00031942,0
52.308,0.00025815,0
52.309,0.00018228,0
52.309,0.00011498,0
52.31,6.4286e-05,0
52.31,3.0045e-05,0
52.311,9.2317e-06,0
52.311,-1.6785e-06,0
52.312,-5.0355e-07,0
52.312,7.2175e-06,0
52.313,9.0639e-06,0
52.314,6.2104e-06,0
52.314,4.8676e-06,0
52.315,-1.1749e-06,0
52.315,-1.0575e-05,0
52.316,-1.1414e-05,0
52.316,-1.091e-05,0
52.317,-2.182e-05,0
52.317,-3.508e-05,0
52.318,-4.7501e-05,0
52.318,-5.5726e-05,0
52.319,-6.5126e-05,0
52.319,-8.4764e-05,0
52.32,-0.00011363,0
52.32,-0.00012824,0
52.321,-0.00011296,0
52.321,-7.8386e-05,0
52.322,-5.3544e-05,0
52.322,-7.1336e-05,0
52.323,-0.00011363,0
52.323,-0.00012471,0
52.324,-9.2149e-05,0
52.324,-4.8508e-05,0
52.325,-2.3331e-05,0
52.325,-1.3092e-05,0
52.326,5.8747e-06,0
52.327,5.3376e-05,0
52.327,0.00012169,0
52.328,0.00018161,0
52.328,0.00022408,0
52.329,0.00025899,0
52.329,0.00028249,0
52.33,0.00029357,0
52.33,0.00029592,0
52.331,0.0002845,0
52.331,0.00026168,0
52.332,0.00024187,0
52.332,0.00021955,0
52.333,0.00018715,0
52.333,0.00015073,0
52.334,0.00011917,0
52.334,9.5003e-05,0
52.335,7.7043e-05,0
52.335,5.7572e-05,0
52.336,2.6017e-05,0
52.336,-1.6953e-05,0
52.337,-4.4816e-05,0
52.337,-5.1194e-05,0
52.338,-5.0019e-05,0
52.338,-5.4047e-05,0
52.339,-5.6565e-05,0
52.34,-5.4551e-05,0
52.34,-5.0523e-05,0
52.341,-4.8341e-05,0
52.341,-5.069e-05,0
52.342,-5.069e-05,0
52.342,-4.2466e-05,0
52.343,-3.592e-05,0
52.343,-3.2395e-05,0
52.344,-2.6352e-05,0
52.344,-1.8296e-05,0
52.345,-1.2421e-05,0
52.345,-1.1917e-05,0
52.346,-2.2828e-05,0
52.346,-3.2898e-05,0
52.347,-3.3066e-05,0
52.347,-2.9038e-05,0
52.348,-2.9038e-05,0
52.348,-2.9374e-05,0
52.349,-1.326e-05,0
52.349,2.031e-05,0
52.35,5.069e-05,0
52.35,6.3615e-05,0
52.351,6.3951e-05,0
52.351,5.8747e-05,0
52.352,5.0858e-05,0
52.352,4.4816e-05,0
52.353,4.0116e-05,0
52.354,3.3738e-05,0
52.354,2.9877e-05,0
52.355,2.8534e-05,0
52.355,2.7863e-05,0
52.356,2.5681e-05,0
52.356,1.7624e-05,0
52.357,1.091e-05,0
52.357,1.2589e-05,0
52.358,1.326e-05,0
52.358,3.1891e-06,0
52.359,-8.3925e-06,0
52.359,-1.6617e-05,0
52.36,-1.6281e-05,0
52.36,-1.1917e-05,0
52.361,-9.5674e-06,0
52.361,-7.8889e-06,0
52.362,-2.5177e-06,0
52.362,5.0355e-06,0
52.363,1.6953e-05,0
52.363,3.0381e-05,0
52.364,4.213e-05,0
52.364,5.153e-05,0
52.365,6.009e-05,0
52.365,6.2608e-05,0
52.366,5.8915e-05,0
52.367,5.3544e-05,0
52.367,4.2802e-05,0
52.368,3.0716e-05,0
52.368,1.3931e-05,0
52.369,-5.2033e-06,0
52.369,-2.3499e-05,0
52.37,-4.6998e-05,0
52.37,-7.4693e-05,0
52.371,-9.9535e-05,0
52.371,-0.00012001,0
52.372,-0.00012723,0
52.372,-0.00012136,0
52.373,-0.00011833,0
52.373,-0.00012052,0
52.374,-0.00011733,0
52.374,-0.00011095,0
52.375,-0.00010893,0
52.375,-0.00010961,0
52.376,-0.0001091,0
52.376,-0.00010491,0
52.377,-9.6178e-05,0
52.377,-8.6107e-05,0
52.378,-7.3518e-05,0
52.378,-6.3279e-05,0
52.379,-5.9251e-05,0
52.379,-5.6901e-05,0
52.38,-4.5319e-05,0
52.381,-9.0639e-06,0
52.381,5.2201e-05,0
52.382,0.00011498,0
52.382,0.00015291,0
52.383,0.00016332,0
52.383,0.00015476,0
52.384,0.00014301,0
52.384,0.00013344,0
52.385,0.00012287,0
52.385,0.00011766,0
52.386,0.0001227,0
52.386,0.00012773,0
52.387,0.00012136,0
52.387,8.9799e-05,0
52.388,4.5319e-05,0
52.388,1.6617e-05,0
52.389,1.4603e-05,0
52.389,2.6688e-05,0
52.39,3.9109e-05,0
52.39,6.1601e-05,0
52.391,9.9535e-05,0
52.391,0.00013478,0
52.392,0.00015224,0
52.392,0.00016432,0
52.393,0.00017809,0
52.394,0.00018346,0
52.394,0.00018094,0
52.395,0.00017876,0
52.395,0.00017288,0
52.396,0.00014922,0
52.396,0.00011598,0
52.397,8.3085e-05,0
52.397,5.7908e-05,0
52.398,3.8102e-05,0
52.398,2.0981e-05,0
52.399,7.5532e-06,0
52.399,5.2033e-06,0
52.4,9.5674e-06,0
52.4,1.0575e-05,0
52.401,2.3499e-06,0
52.401,-1.091e-05,0
52.402,-1.4267e-05,0
52.402,-1.0575e-05,0
52.403,-1.1917e-05,0
52.403,-1.4267e-05,0
52.404,-6.5461e-06,0
52.404,1.4771e-05,0
52.405,3.3066e-05,0
52.405,3.7095e-05,0
52.406,3.0381e-05,0
52.406,1.9974e-05,0
52.407,1.2924e-05,0
52.408,7.5532e-06,0
52.408,3.8605e-06,0
52.409,1.6785e-06,0
52.409,-5.8747e-06,0
52.41,-1.7792e-05,0
52.41,-3.8941e-05,0
52.411,-5.7237e-05,0
52.411,-5.7069e-05,0
52.412,-4.4144e-05,0
52.412,-2.9038e-05,0
52.413,-1.7121e-05,0
52.413,-6.2104e-06,0
52.414,6.2104e-06,0
52.414,1.4939e-05,0
52.415,1.8296e-05,0
52.415,2.031e-05,0
52.416,2.2492e-05,0
52.416,1.9638e-05,0
52.417,9.0639e-06,0
52.417,-1.6785e-07,0
52.418,-3.6927e-06,0
52.418,2.5177e-06,0
52.419,1.6953e-05,0
52.419,3.2059e-05,0
52.42,3.9948e-05,0
52.42,3.7263e-05,0
52.421,3.1052e-05,0
52.422,2.9374e-05,0
52.422,3.2059e-05,0
52.423,3.6088e-05,0
52.423,4.2802e-05,0
52.424,4.8844e-05,0
52.424,5.3544e-05,0
52.425,5.8579e-05,0
52.425,6.2608e-05,0
52.426,6.1265e-05,0
52.426,5.6565e-05,0
52.427,5.0187e-05,0
52.427,4.7333e-05,0
52.428,4.683e-05,0
52.428,4.2802e-05,0
52.429,3.8102e-05,0
52.429,3.4073e-05,0
52.43,3.0045e-05,0
52.43,2.5849e-05,0
52.431,2.031e-05,0
52.431,5.8747e-06,0
52.432,-1.5946e-05,0
52.432,-3.4409e-05,0
52.433,-5.1698e-05,0
52.433,-6.8315e-05,0
52.434,-8.4932e-05,0
52.435,-9.6513e-05,0
52.435,-0.00010188,0
52.436,-0.0001044,0
52.436,-0.00011431,0
52.437,-0.00013092,0
52.437,-0.0001472,0
52.438,-0.0001509,0
52.438,-0.00013042,0
52.439,-9.6849e-05,0
52.439,-6.4622e-05,0
52.44,-3.0213e-05,0
52.44,3.0213e-06,0
52.441,2.8031e-05,0
52.441,4.2466e-05,0
52.442,4.2802e-05,0
52.442,3.6255e-05,0
52.443,2.266e-05,0
52.443,1.3764e-05,0
52.444,1.4939e-05,0
52.444,2.4338e-05,0
52.445,3.357e-05,0
52.445,3.1724e-05,0
52.446,2.5177e-05,0
52.446,2.2324e-05,0
52.447,2.7359e-05,0
52.447,3.978e-05,0
52.448,5.7069e-05,0
52.449,7.4357e-05,0
52.449,8.2918e-05,0
52.45,8.4428e-05,0
52.45,8.9128e-05,0
52.451,8.8289e-05,0
52.451,8.1407e-05,0
52.452,7.9393e-05,0
52.452,8.0903e-05,0
52.453,8.3421e-05,0
52.453,8.7785e-05,0
52.454,8.8457e-05,0
52.454,8.3757e-05,0
52.455,8.2246e-05,0
52.455,8.6442e-05,0
52.456,8.8457e-05,0
52.456,8.0064e-05,0
52.457,6.6972e-05,0
52.457,5.6901e-05,0
52.458,5.2201e-05,0
52.458,4.8005e-05,0
52.459,3.4073e-05,0
52.459,1.4267e-05,0
52.46,4.5319e-06,0
52.46,3.5248e-06,0
52.461,1.6785e-07,0
52.462,-1.0407e-05,0
52.462,-2.2156e-05,0
52.463,-2.266e-05,0
52.463,-4.1962e-06,0
52.464,3.0381e-05,0
52.464,5.3208e-05,0
52.465,6.3615e-05,0
52.465,7.1672e-05,0
52.466,6.9154e-05,0
52.466,5.4215e-05,0
52.467,3.122e-05,0
52.467,2.3499e-06,0
52.468,-2.1988e-05,0
52.468,-3.592e-05,0
52.469,-4.6998e-05,0
52.469,-6.2608e-05,0
52.47,-7.335e-05,0
52.47,-7.1672e-05,0
52.471,-6.2943e-05,0
52.471,-5.3544e-05,0
52.472,-4.3137e-05,0
52.472,-2.4338e-05,0
52.473,1.1749e-06,0
52.473,3.3234e-05,0
52.474,6.9657e-05,0
52.474,9.9031e-05,0
52.475,0.00010843,0
52.476,0.00010121,0
52.476,8.5771e-05,0
52.477,6.7979e-05,0
52.477,5.2873e-05,0
52.478,4.4816e-05,0
52.478,4.1459e-05,0
52.479,3.8773e-05,0
52.479,3.8773e-05,0
52.48,3.9445e-05,0
52.48,3.6759e-05,0
52.481,2.7695e-05,0
52.481,2.0981e-05,0
52.482,3.0213e-05,0
52.482,4.7837e-05,0
52.483,5.623e-05,0
52.483,4.8173e-05,0
52.484,2.8199e-05,0
52.484,1.3092e-05,0
52.485,1.6785e-05,0
52.485,3.5416e-05,0
52.486,5.0858e-05,0
52.486,4.9851e-05,0
52.487,4.2802e-05,0
52.487,5.0523e-05,0
52.488,6.5293e-05,0
52.489,6.7643e-05,0
52.489,5.069e-05,0
52.49,3.2059e-05,0
52.49,2.9038e-05,0
52.491,3.743e-05,0
52.491,3.6088e-05,0
52.492,1.9974e-05,0
52.492,1.1749e-06,0
52.493,-1.091e-05,0
52.493,-1.3092e-05,0
52.494,-1.0239e-05,0
52.494,-6.5461e-06,0
52.495,3.1891e-06,0
52.495,3.0716e-05,0
52.496,7.4189e-05,0
52.496,0.000118,0
52.497,0.00014788,0
52.497,0.00015459,0
52.498,0.00013797,0
52.498,0.00010893,0
52.499,8.4764e-05,0
52.499,6.9657e-05,0
52.5,5.7404e-05,0
52.5,3.9445e-05,0
52.501,2.031e-05,0
52.502,3.1891e-06,0
52.502,-1.0575e-05,0
52.503,-2.2492e-05,0
52.503,-4.1459e-05,0
52.504,-6.7811e-05,0
52.504,-8.6778e-05,0
52.505,-9.9367e-05,0
52.505,-0.00010608,0
52.506,-0.00010423,0
52.506,-9.3324e-05,0
52.507,-8.4092e-05,0
52.507,-7.9561e-05,0
52.508,-7.9561e-05,0
52.508,-8.3925e-05,0
52.509,-9.3492e-05,0
52.509,-0.00010558,0
52.51,-0.00010759,0
52.51,-9.7688e-05,0
52.511,-9.4331e-05,0
52.511,-0.00011028,0
52.512,-0.00013092,0
52.512,-0.00013814,0
52.513,-0.00012622,0
52.513,-0.00010121,0
52.514,-6.7643e-05,0
52.514,-2.9038e-05,0
52.515,7.2175e-06,0
52.516,4.3137e-05,0
52.516,8.04e-05,0
52.517,0.00010675,0
52.517,0.00010625,0
52.518,7.9057e-05,0
52.518,4.3977e-05,0
52.519,2.0813e-05,0
52.519,1.8631e-05,0
52.52,2.3499e-05,0
52.52,2.9877e-05,0
52.521,3.9612e-05,0
52.521,4.5487e-05,0
52.522,5.0355e-05,0
52.522,5.623e-05,0
52.523,6.1936e-05,0
52.523,6.6133e-05,0
52.524,6.4118e-05,0
52.524,5.4719e-05,0
52.525,3.7934e-05,0
52.525,2.0813e-05,0
52.526,5.2033e-06,0
52.526,-9.5674e-06,0
52.527,-2.3331e-05,0
52.527,-3.8437e-05,0
52.528,-6.2272e-05,0
52.529,-8.191e-05,0
52.529,-7.0832e-05,0
52.53,-3.0549e-05,0
52.53,1.9974e-05,0
52.531,6.7811e-05,0
52.531,0.00010793,0
52.532,0.00012706,0
52.532,0.00012203,0
52.533,9.987e-05,0
52.533,7.5364e-05,0
52.534,5.2873e-05,0
52.534,1.8296e-05,0
52.535,-2.7024e-05,0
52.535,-6.5293e-05,0
52.536,-7.8386e-05,0
52.536,-6.4622e-05,0
52.537,-3.978e-05,0
52.537,-1.4099e-05,0
52.538,1.4267e-05,0
52.538,4.7333e-05,0
52.539,8.2078e-05,0
52.539,0.00011179,0
52.54,0.00014452,0
52.54,0.00019017,0
52.541,0.00024388,0
52.541,0.00029206,0
52.542,0.00031774,0
52.543,0.000307,0
52.543,0.00026671,0
52.544,0.00021669,0
52.544,0.00016701,0
52.545,0.00012538,0
52.545,9.5842e-05,0
52.546,7.6204e-05,0
52.546,6.3951e-05,0
52.547,5.6565e-05,0
52.547,4.1459e-05,0
52.548,1.6617e-05,0
52.548,-9.9031e-06,0
52.549,-2.9206e-05,0
52.549,-3.8437e-05,0
52.55,-4.0452e-05,0
52.55,-3.7095e-05,0
52.551,-3.508e-05,0
52.551,-3.1052e-05,0
52.552,-2.6184e-05,0
52.552,-2.5849e-05,0
52.553,-2.9206e-05,0
52.553,-3.3066e-05,0
52.554,-2.887e-05,0
52.554,-1.7624e-05,0
52.555,-1.2924e-05,0
52.556,-2.8031e-05,0
52.556,-5.388e-05,0
52.557,-6.7979e-05,0
52.557,-5.3208e-05,0
52.558,-4.5319e-06,0
52.558,6.3111e-05,0
52.559,0.00011128,0
52.559,0.00012975,0
52.56,0.00012807,0
52.56,0.00010692,0
52.561,7.6371e-05,0
52.561,5.2201e-05,0
52.562,3.5752e-05,0
52.562,1.796e-05,0
52.563,-2.182e-06,0
52.563,-2.6017e-05,0
52.564,-5.1362e-05,0
52.564,-7.0329e-05,0
52.565,-7.8386e-05,0
52.565,-7.5532e-05,0
52.566,-6.5293e-05,0
52.566,-5.8579e-05,0
52.567,-5.9251e-05,0
52.567,-5.9251e-05,0
52.568,-5.2537e-05,0
52.568,-4.918e-05,0
52.569,-5.7237e-05,0
52.57,-6.1769e-05,0
52.57,-4.9851e-05,0
52.571,-4.1459e-05,0
52.571,-5.1362e-05,0
52.572,-5.9419e-05,0
52.572,-5.9083e-05,0
52.573,-6.3279e-05,0
52.573,-7.6371e-05,0
52.574,-8.5435e-05,0
52.574,-8.2078e-05,0
52.575,-7.1672e-05,0
52.575,-6.63e-05,0
52.576,-4.8508e-05,0
52.576,-9.5674e-06,0
52.577,3.122e-05,0
52.577,5.0858e-05,0
52.578,4.8508e-05,0
52.578,5.4551e-05,0
52.579,8.8121e-05,0
52.579,0.00014116,0
52.58,0.00019571,0
52.58,0.00022962,0
52.581,0.00023214,0
52.581,0.00020864,0
52.582,0.0001754,0
52.583,0.00014217,0
52.583,0.00010625,0
52.584,7.6036e-05,0
52.584,6.0258e-05,0
52.585,4.683e-05,0
52.585,2.8534e-05,0
52.586,3.5248e-06,0
52.586,-2.4674e-05,0
52.587,-5.2705e-05,0
52.587,-7.7043e-05,0
52.588,-9.2485e-05,0
52.588,-0.00010944,0
52.589,-0.00013512,0
52.589,-0.00015006,0
52.59,-0.00013915,0
52.59,-0.00011817,0
52.591,-9.2485e-05,0
52.591,-4.8173e-05,0
52.592,1.0071e-05,0
52.592,5.5558e-05,0
52.593,6.8986e-05,0
52.593,6.8986e-05,0
52.594,8.3589e-05,0
52.594,0.00011313,0
52.595,0.00013545,0
52.595,0.00012773,0
52.596,9.5171e-05,0
52.597,5.8244e-05,0
52.597,3.5752e-05,0
52.598,2.6352e-05,0
52.598,2.0981e-05,0
52.599,2.1317e-05,0
52.599,2.5345e-05,0
52.6,3.6255e-05,0
52.6,5.8747e-05,0
52.601,8.9128e-05,0
52.601,0.00011598,0
52.602,0.00012941,0
52.602,0.00012673,0
52.603,0.00011934,0
52.603,0.00011565,0
52.604,0.00010457,0
52.604,9.1981e-05,0
52.605,8.1407e-05,0
52.605,7.4525e-05,0
52.606,7.5029e-05,0
52.606,8.0735e-05,0
52.607,7.8553e-05,0
52.607,6.0258e-05,0
52.608,3.1388e-05,0
52.608,3.357e-07,0
52.609,-2.9206e-05,0
52.609,-5.6565e-05,0
52.61,-8.1743e-05,0
52.611,-9.2317e-05,0
52.611,-7.6371e-05,0
52.612,-4.918e-05,0
52.612,-4.1794e-05,0
52.613,-6.7643e-05,0
52.613,-0.00010625,0
52.614,-0.00013294,0
52.614,-0.00015106,0
52.615,-0.00016114,0
52.615,-0.00016315,0
52.616,-0.00016936,0
52.616,-0.00017641,0
52.617,-0.00016147,0
52.617,-0.00012471,0
52.618,-8.2078e-05,0
52.618,-5.1194e-05,0
52.619,-4.0116e-05,0
52.619,-4.6159e-05,0
52.62,-5.069e-05,0
52.62,-2.8702e-05,0
52.621,2.4674e-05,0
52.621,9.0639e-05,0
52.622,0.00014116,0
52.622,0.0001697,0
52.623,0.00019185,0
52.624,0.00020763,0
52.624,0.00020192,0
52.625,0.00016684,0
52.625,0.00011514,0
52.626,7.7211e-05,0
52.626,6.3783e-05,0
52.627,7.1839e-05,0
52.627,8.3757e-05,0
52.628,8.2246e-05,0
52.628,7.5364e-05,0
52.629,9.2317e-05,0
52.629,0.00012639,0
52.63,0.00014871,0
52.63,0.00015492,0
52.631,0.00016735,0
52.631,0.00018984,0
52.632,0.00019924,0
52.632,0.00017876,0
52.633,0.00014553,0
52.633,0.000118,0
52.634,9.5338e-05,0
52.634,6.7475e-05,0
52.635,2.8031e-05,0
52.635,-1.1917e-05,0
52.636,-3.743e-05,0
52.636,-5.2033e-05,0
52.637,-5.4887e-05,0
52.638,-3.4241e-05,0
52.638,5.2033e-06,0
52.639,4.7501e-05,0
52.639,9.2821e-05,0
52.64,0.00012941,0
52.64,0.00014553,0
52.641,0.00014469,0
52.641,0.00011968,0
52.642,8.3085e-05,0
52.642,5.0523e-05,0
52.643,9.5674e-06,0
52.643,-5.2201e-05,0
52.644,-0.00011162,0
52.644,-0.0001467,0
52.645,-0.000166,0
52.645,-0.00018463,0
52.646,-0.00019991,0
52.646,-0.00021132,0
52.647,-0.00021267,0
52.647,-0.00017977,0
52.648,-0.00011968,0
52.648,-7.3686e-05,0
52.649,-5.388e-05,0
52.649,-3.9109e-05,0
52.65,-2.031e-05,0
52.651,2.182e-06,0
52.651,4.2802e-05,0
52.652,9.7856e-05,0
52.652,0.0001368,0
52.653,0.00015023,0
52.653,0.00015157,0
52.654,0.00014687,0
52.654,0.00014083,0
52.655,0.00013344,0
52.655,0.00012035,0
52.656,9.9199e-05,0
52.656,7.1672e-05,0
52.657,5.0187e-05,0
52.657,4.3809e-05,0
52.658,3.7766e-05,0
52.658,2.266e-05,0
52.659,6.714e-06,0
52.659,-1.1749e-05,0
52.66,-3.9109e-05,0
52.66,-7.1672e-05,0
52.661,-0.00011749,0
52.661,-0.00017137,0
52.662,-0.00020494,0
52.662,-0.00020377,0
52.663,-0.00018497,0
52.663,-0.0001801,0
52.664,-0.00020964,0
52.665,-0.00025362,0
52.665,-0.00028568,0
52.666,-0.00031019,0
52.666,-0.00031052,0
52.667,-0.00026806,0
52.667,-0.00018413,0
52.668,-9.8695e-05,0
52.668,-6.5461e-05,0
52.669,-7.6707e-05,0
52.669,-7.1504e-05,0
52.67,-2.182e-05,0
52.67,4.2802e-05,0
52.671,8.4092e-05,0
52.671,0.00010356,0
52.672,0.00012555,0
52.672,0.00015023,0
52.673,0.0001744,0
52.673,0.00021065,0
52.674,0.00026772,0
52.674,0.00033587,0
52.675,0.00039126,0
52.675,0.00040771,0
52.676,0.00038723,0
52.676,0.00035433,0
52.677,0.00032647,0
52.678,0.0002939,0
52.678,0.00024858,0
52.679,0.00020125,0
52.679,0.00016483,0
52.68,0.00014183,0
52.68,0.00011968,0
52.681,8.5771e-05,0
52.681,4.3977e-05,0
52.682,3.8605e-06,0
52.682,-2.4338e-05,0
52.683,-4.5991e-05,0
52.683,-7.2847e-05,0
52.684,-9.4499e-05,0
52.684,-9.6345e-05,0
52.685,-8.4932e-05,0
52.685,-7.2175e-05,0
52.686,-6.9993e-05,0
52.686,-7.0497e-05,0
52.687,-6.5293e-05,0
52.687,-6.0761e-05,0
52.688,-6.4118e-05,0
52.688,-7.1504e-05,0
52.689,-6.865e-05,0
52.689,-5.0523e-05,0
52.69,-3.1388e-05,0
52.691,-2.3499e-05,0
52.691,-2.7359e-05,0
52.692,-3.9445e-05,0
52.692,-5.388e-05,0
52.693,-5.7908e-05,0
52.693,-3.9109e-05,0
52.694,1.5106e-06,0
52.694,5.3208e-05,0
52.695,0.00010524,0
52.695,0.00012924,0
52.696,0.00011901,0
52.696,9.752e-05,0
52.697,8.1743e-05,0
52.697,7.8721e-05,0
52.698,8.7449e-05,0
52.698,9.9031e-05,0
52.699,0.00011128,0
52.699,0.00012236,0
52.7,0.00012404,0
52.7,0.00010826,0
52.701,8.8121e-05,0
52.701,7.4357e-05,0
52.702,4.9851e-05,0
52.702,4.6998e-06,0
52.703,-3.2059e-05,0
52.703,-4.4144e-05,0
52.704,-4.3137e-05,0
52.705,-4.1794e-05,0
52.705,-3.9948e-05,0
52.706,-3.6423e-05,0
52.706,-3.743e-05,0
52.707,-3.2395e-05,0
52.707,-9.0639e-06,0
52.708,1.9471e-05,0
52.708,3.6088e-05,0
52.709,3.6423e-05,0
52.709,2.7863e-05,0
52.71,2.3331e-05,0
52.71,1.5106e-05,0
52.711,-1.2589e-05,0
52.711,-6.7811e-05,0
52.712,-0.00013109,0
52.712,-0.00016751,0
52.713,-0.00015929,0
52.713,-0.00011011,0
52.714,-5.2369e-05,0
52.714,-6.0426e-06,0
52.715,3.4745e-05,0
52.715,7.4525e-05,0
52.716,0.00012538,0
52.716,0.00019101,0
52.717,0.00025664,0
52.718,0.00030599,0
52.718,0.00032009,0
52.719,0.00029189,0
52.719,0.00024758,0
52.72,0.0002318,0
52.72,0.00025429,0
52.721,0.00027846,0
52.721,0.00026705,0
52.722,0.00023482,0
52.722,0.00020394,0
52.723,0.00016869,0
52.723,0.0001227,0
52.724,5.8579e-05,0
52.724,-2.501e-05,0
52.725,-0.00010541,0
52.725,-0.00016735,0
52.726,-0.00020864,0
52.726,-0.00023583,0
52.727,-0.00025312,0
52.727,-0.00025849,0
52.728,-0.00024607,0
52.728,-0.00021653,0
52.729,-0.00018564,0
52.729,-0.00015509,0
52.73,-0.00010692,0
52.73,-3.9109e-05,0
52.731,2.5345e-05,0
52.732,6.9322e-05,0
52.732,9.1814e-05,0
52.733,9.6513e-05,0
52.733,8.275e-05,0
52.734,5.2201e-05,0
52.734,7.2175e-06,0
52.735,-3.4073e-05,0
52.735,-5.7572e-05,0
52.736,-7.5029e-05,0
52.736,-9.6345e-05,0
52.737,-0.00012035,0
52.737,-0.0001462,0
52.738,-0.00016634,0
52.738,-0.00016164,0
52.739,-0.00013277,0
52.739,-0.00010642,0
52.74,-8.8792e-05,0
52.74,-6.1936e-05,0
52.741,-2.3331e-05,0
52.741,1.4771e-05,0
52.742,3.2227e-05,0
52.742,3.0045e-05,0
52.743,2.3331e-05,0
52.743,2.5177e-05,0
52.744,3.0884e-05,0
52.745,3.3066e-05,0
52.745,3.2563e-05,0
52.746,3.0045e-05,0
52.746,2.3667e-05,0
52.747,1.8631e-05,0
52.747,1.9974e-05,0
52.748,2.0813e-05,0
52.748,1.5778e-05,0
52.749,1.0239e-05,0
52.749,1.6785e-07,0
52.75,-1.7288e-05,0
52.75,-4.062e-05,0
52.751,-7.0329e-05,0
52.751,-9.1814e-05,0
52.752,-8.8457e-05,0
52.752,-7.3854e-05,0
52.753,-6.2608e-05,0
52.753,-5.3544e-05,0
52.754,-2.8534e-05,0
52.754,1.1078e-05,0
52.755,4.9348e-05,0
52.755,7.4861e-05,0
52.756,8.5603e-05,0
52.756,9.0974e-05,0
52.757,9.6178e-05,0
52.757,9.752e-05,0
52.758,9.5003e-05,0
52.759,8.9799e-05,0
52.759,8.4428e-05,0
52.76,8.1743e-05,0
52.76,8.9967e-05,0
52.761,0.00010155,0
52.761,9.3828e-05,0
52.762,6.244e-05,0
52.762,2.4842e-05,0
52.763,-1.1246e-05,0
52.763,-4.1794e-05,0
52.764,-5.6062e-05,0
52.764,-6.0258e-05,0
52.765,-6.9322e-05,0
52.765,-8.1071e-05,0
52.766,-8.9799e-05,0
52.766,-9.9367e-05,0
52.767,-0.00011095,0
52.767,-0.00010222,0
52.768,-4.2466e-05,0
52.768,6.2272e-05,0
52.769,0.00016667,0
52.769,0.00024388,0
52.77,0.00028215,0
52.77,0.00029122,0
52.771,0.0002835,0
52.772,0.00025664,0
52.772,0.00021636,0
52.773,0.00017238,0
52.773,0.0001274,0
52.774,9.0135e-05,0
52.774,7.3686e-05,0
52.775,6.3951e-05,0
52.775,5.5222e-05,0
52.776,5.1865e-05,0
52.776,5.2873e-05,0
52.777,5.7908e-05,0
52.777,6.8818e-05,0
52.778,7.2007e-05,0
52.778,6.4454e-05,0
52.779,5.6565e-05,0
52.779,4.5991e-05,0
52.78,3.6423e-05,0
52.78,3.0045e-05,0
52.781,2.5849e-05,0
52.781,3.3234e-05,0
52.782,6.2272e-05,0
52.782,0.00011263,0
52.783,0.00016281,0
52.783,0.00018581,0
52.784,0.00018245,0
52.784,0.00018245,0
52.785,0.00020461,0
52.786,0.00023734,0
52.786,0.00025362,0
52.787,0.00023566,0
52.787,0.00018816,0
52.788,0.00013713,0
52.788,8.8457e-05,0
52.789,4.1291e-05,0
52.789,5.539e-06,0
52.79,-2.031e-05,0
52.79,-3.2395e-05,0
52.791,-2.9038e-05,0
52.791,-2.7527e-05,0
52.792,-4.0787e-05,0
52.792,-6.7643e-05,0
52.793,-0.0001039,0
52.793,-0.0001472,0
52.794,-0.00018312,0
52.794,-0.00020125,0
52.795,-0.0002036,0
52.795,-0.00019017,0
52.796,-0.0001702,0
52.796,-0.00015996,0
52.797,-0.00016197,0
52.797,-0.00016701,0
52.798,-0.00016231,0
52.798,-0.0001425,0
52.799,-0.0001133,0
52.8,-8.5435e-05,0
52.8,-6.714e-05,0
52.801,-5.304e-05,0
52.801,-3.8102e-05,0
52.802,-2.7024e-05,0
52.802,-1.6281e-05,0
52.803,-2.182e-06,0
52.803,5.8747e-06,0
52.804,9.5674e-06,0
52.804,8.2246e-06,0
52.805,-1.6785e-07,0
52.805,-7.5532e-06,0
52.806,-1.0742e-05,0
52.806,-1.2924e-05,0
52.807,-1.7624e-05,0
52.807,-2.7863e-05,0
52.808,-4.2802e-05,0
52.808,-5.7404e-05,0
52.809,-5.8915e-05,0
52.809,-4.6494e-05,0
52.81,-2.8702e-05,0
52.81,-1.8799e-05,0
52.811,-2.182e-05,0
52.811,-2.3331e-05,0
52.812,-9.5674e-06,0
52.813,7.7211e-06,0
52.813,2.031e-05,0
52.814,2.5345e-05,0
52.814,2.1317e-05,0
52.815,1.4267e-05,0
52.815,-3.5248e-06,0
52.816,-3.2395e-05,0
52.816,-6.0594e-05,0
52.817,-7.805e-05,0
52.817,-7.1168e-05,0
52.818,-4.2466e-05,0
52.818,-1.0575e-05,0
52.819,1.796e-05,0
52.819,3.7095e-05,0
52.82,3.9612e-05,0
52.82,3.743e-05,0
52.821,4.8005e-05,0
52.821,7.2343e-05,0
52.822,9.8192e-05,0
52.822,0.00012136,0
52.823,0.00014217,0
52.823,0.00014989,0
52.824,0.00013747,0
52.824,0.00011128,0
52.825,8.5267e-05,0
52.825,6.9322e-05,0
52.826,6.1265e-05,0
52.827,5.2537e-05,0
52.827,4.2466e-05,0
52.828,3.6423e-05,0
52.828,3.7263e-05,0
52.829,4.683e-05,0
52.829,6.8147e-05,0
52.83,8.191e-05,0
52.83,6.2272e-05,0
52.831,2.5345e-05,0
52.831,7.7211e-06,0
52.832,1.2924e-05,0
52.832,3.0381e-05,0
52.833,5.7237e-05,0
52.833,9.2988e-05,0
52.834,0.00012639,0
52.834,0.00013411,0
52.835,0.00011397,0
52.835,8.6946e-05,0
52.836,6.0929e-05,0
52.836,2.4842e-05,0
52.837,-1.6953e-05,0
52.837,-3.8102e-05,0
52.838,-3.0045e-05,0
52.838,-1.0071e-05,0
52.839,3.0213e-06,0
52.84,6.2104e-06,0
52.84,1.5274e-05,0
52.841,3.7263e-05,0
52.841,6.2272e-05,0
52.842,8.0735e-05,0
52.842,9.7185e-05,0
52.843,0.00012203,0
52.843,0.00014855,0
52.844,0.00015761,0
52.844,0.00014318,0
52.845,0.00012068,0
52.845,0.00010356,0
52.846,9.1814e-05,0
52.846,7.3014e-05,0
52.847,4.7837e-05,0
52.847,3.3066e-05,0
52.848,3.2563e-05,0
52.848,4.2802e-05,0
52.849,5.8412e-05,0
52.849,6.7475e-05,0
52.85,7.0329e-05,0
52.85,7.8553e-05,0
52.851,8.7114e-05,0
52.851,7.6539e-05,0
52.852,4.3809e-05,0
52.852,7.2175e-06,0
52.853,-1.8967e-05,0
52.854,-3.0549e-05,0
52.854,-4.1794e-05,0
52.855,-4.918e-05,0
52.855,-3.4913e-05,0
52.856,2.8534e-06,0
52.856,4.8676e-05,0
52.857,8.4764e-05,0
52.857,9.9199e-05,0
52.858,7.8889e-05,0
52.858,2.7359e-05,0
52.859,-3.4913e-05,0
52.859,-8.2078e-05,0
52.86,-0.0001138,0
52.86,-0.00014217,0
52.861,-0.0001556,0
52.861,-0.00014267,0
52.862,-0.00012404,0
52.862,-0.00011296,0
52.863,-9.7185e-05,0
52.863,-6.6636e-05,0
52.864,-3.6759e-05,0
52.864,-2.1988e-05,0
52.865,-2.1149e-05,0
52.865,-2.8534e-05,0
52.866,-3.4913e-05,0
52.867,-3.5416e-05,0
52.867,-3.3402e-05,0
52.868,-2.9877e-05,0
52.868,-2.3163e-05,0
52.869,-1.7121e-05,0
52.869,-1.9638e-05,0
52.87,-2.6688e-05,0
52.87,-3.3402e-05,0
52.871,-4.3137e-05,0
52.871,-5.2201e-05,0
52.872,-6.0761e-05,0
52.872,-6.479e-05,0
52.873,-5.9586e-05,0
52.873,-5.0858e-05,0
52.874,-4.2634e-05,0
52.874,-3.6423e-05,0
52.875,-2.7695e-05,0
52.875,-1.091e-05,0
52.876,2.182e-06,0
52.876,-1.4939e-05,0
52.877,-6.2943e-05,0
52.877,-0.00011196,0
52.878,-0.0001331,0
52.878,-0.00012857,0
52.879,-0.00011716,0
52.88,-0.0001133,0
52.88,-0.00011296,0
52.881,-0.0001039,0
52.881,-7.8386e-05,0
52.882,-2.9877e-05,0
52.882,3.3066e-05,0
52.883,8.6778e-05,0
52.883,0.00012337,0
52.884,0.0001608,0
52.884,0.0001942,0
52.885,0.00019672,0
52.885,0.00017171,0
52.886,0.00014989,0
52.886,0.00015895,0
52.887,0.00019454,0
52.887,0.00021736,0
52.888,0.00020528,0
52.888,0.00017876,0
52.889,0.00014821,0
52.889,0.00010457,0
52.89,5.7572e-05,0
52.89,2.1988e-05,0
52.891,6.2104e-06,0
52.891,-6.2104e-06,0
52.892,-1.7121e-05,0
52.892,-1.8296e-05,0
52.893,-1.091e-05,0
52.894,1.0071e-06,0
52.894,1.6281e-05,0
52.895,2.2492e-05,0
52.895,1.6617e-05,0
52.896,1.7624e-05,0
52.896,3.2731e-05,0
52.897,6.1601e-05,0
52.897,9.987e-05,0
52.898,0.00014049,0
52.898,0.00017943,0
52.899,0.00019588,0
52.899,0.00019387,0
52.9,0.00019319,0
52.9,0.00020394,0
52.901,0.00022005,0
52.901,0.00022676,0
52.902,0.00021569,0
52.902,0.00019252,0
52.903,0.0001613,0
52.903,0.00012605,0
52.904,9.3324e-05,0
52.904,5.8915e-05,0
52.905,2.4338e-05,0
52.905,-4.8676e-06,0
52.906,-2.1988e-05,0
52.907,-3.2059e-05,0
52.907,-4.1459e-05,0
52.908,-5.3712e-05,0
52.908,-6.8315e-05,0
52.909,-8.6946e-05,0
52.909,-0.00010222,0
52.91,-0.00011212,0
52.91,-0.00011128,0
52.911,-9.6513e-05,0
52.911,-7.6036e-05,0
52.912,-5.539e-05,0
52.912,-3.2395e-05,0
52.913,-1.4267e-05,0
52.913,-2.182e-06,0
52.914,3.0213e-06,0
52.914,-2.8534e-06,0
52.915,-1.796e-05,0
52.915,-4.2466e-05,0
52.916,-7.7211e-05,0
52.916,-0.00011565,0
52.917,-0.00013814,0
52.917,-0.00013764,0
52.918,-0.0001284,0
52.918,-0.00013008,0
52.919,-0.00014385,0
52.919,-0.00015811,0
52.92,-0.00016298,0
52.921,-0.00015862,0
52.921,-0.0001425,0
52.922,-9.5506e-05,0
52.922,-2.4674e-05,0
52.923,3.8437e-05,0
52.923,7.2343e-05,0
52.924,8.4428e-05,0
52.924,9.6513e-05,0
52.925,0.00010608,0
52.925,0.00010373,0
52.926,9.6849e-05,0
52.926,9.3156e-05,0
52.927,8.9799e-05,0
52.927,9.2149e-05,0
52.928,0.00010407,0
52.928,0.00012203,0
52.929,0.00013931,0
52.929,0.00014687,0
52.93,0.00014183,0
52.93,0.0001274,0
52.931,0.0001133,0
52.931,9.7688e-05,0
52.932,8.2414e-05,0
52.932,7.3014e-05,0
52.933,7.3014e-05,0
52.934,7.7714e-05,0
52.934,7.1672e-05,0
52.935,3.6423e-05,0
52.935,-3.2395e-05,0
52.936,-9.9535e-05,0
52.936,-0.00013462,0
52.937,-0.00013008,0
52.937,-0.00010256,0
52.938,-7.2511e-05,0
52.938,-4.3305e-05,0
52.939,-1.4939e-05,0
52.939,1.1749e-06,0
52.94,0,0
52.94,-1.6785e-06,0
52.941,2.0645e-05,0
52.941,6.5965e-05,0
52.942,9.8192e-05,0
52.942,9.9199e-05,0
52.943,8.1743e-05,0
52.943,5.8244e-05,0
52.944,3.5416e-05,0
52.944,3.2563e-05,0
52.945,5.0858e-05,0
52.945,6.9322e-05,0
52.946,7.5029e-05,0
52.946,6.5629e-05,0
52.947,4.7837e-05,0
52.948,3.0045e-05,0
52.948,1.6785e-05,0
52.949,8.5603e-06,0
52.949,2.8534e-06,0
52.95,-8.3925e-07,0
52.95,-6.5461e-06,0
52.951,-2.1988e-05,0
52.951,-4.1962e-05,0
52.952,-5.5558e-05,0
52.952,-5.4047e-05,0
52.953,-3.6423e-05,0
52.953,-1.6617e-05,0
52.954,9.9031e-06,0
52.954,4.918e-05,0
52.955,7.3686e-05,0
52.955,7.2679e-05,0
52.956,6.1936e-05,0
52.956,5.0523e-05,0
52.957,3.4745e-05,0
52.957,2.2324e-05,0
52.958,2.5681e-05,0
52.958,4.0787e-05,0
52.959,4.5487e-05,0
52.959,2.7359e-05,0
52.96,2.3499e-06,0
52.961,-4.5319e-06,0
52.961,3.6927e-06,0
52.962,1.0575e-05,0
52.962,3.0213e-06,0
52.963,-1.1749e-05,0
52.963,-1.8967e-05,0
52.964,-5.539e-06,0
52.964,2.0478e-05,0
52.965,4.2466e-05,0
52.965,5.2537e-05,0
52.966,6.1936e-05,0
52.966,7.4189e-05,0
52.967,7.5029e-05,0
52.967,6.63e-05,0
52.968,6.4286e-05,0
52.968,7.1336e-05,0
52.969,7.1672e-05,0
52.969,5.8747e-05,0
52.97,4.0452e-05,0
52.97,2.5345e-05,0
52.971,8.5603e-06,0
52.971,-1.6449e-05,0
52.972,-4.6326e-05,0
52.972,-6.0258e-05,0
52.973,-3.743e-05,0
52.973,2.5849e-05,0
52.974,0.00010524,0
52.975,0.00016516,0
52.975,0.00019084,0
52.976,0.00018514,0
52.976,0.00015879,0
52.977,0.00012337,0
52.977,8.8457e-05,0
52.978,6.3615e-05,0
52.978,5.3376e-05,0
52.979,5.0858e-05,0
52.979,4.918e-05,0
52.98,5.069e-05,0
52.98,5.0523e-05,0
52.981,4.5151e-05,0
52.981,3.4745e-05,0
52.982,2.2492e-05,0
52.982,1.9638e-05,0
52.983,2.7359e-05,0
52.983,2.9877e-05,0
52.984,1.4603e-05,0
52.984,-8.3925e-06,0
52.985,-2.5513e-05,0
52.985,-3.4241e-05,0
52.986,-4.5319e-05,0
52.986,-6.1936e-05,0
52.987,-7.7546e-05,0
52.987,-9.4163e-05,0
52.988,-0.00011044,0
52.989,-0.00012052,0
52.989,-0.00012102,0
52.99,-0.00011028,0
52.99,-8.8624e-05,0
52.991,-7.3014e-05,0
52.991,-6.714e-05,0
52.992,-6.8986e-05,0
52.992,-7.7043e-05,0
52.993,-7.5364e-05,0
52.993,-5.8747e-05,0
52.994,-4.0116e-05,0
52.994,-2.5681e-05,0
52.995,-1.4435e-05,0
52.995,-5.539e-06,0
52.996,1.5106e-06,0
52.996,1.2421e-05,0
52.997,2.5513e-05,0
52.997,3.6423e-05,0
52.998,4.0452e-05,0
52.998,2.4674e-05,0
52.999,-6.8818e-06,0
52.999,-3.8437e-05,0
53,-5.4215e-05,0
53,-5.1194e-05,0
53.001,-3.4073e-05,0
53.002,-6.5461e-06,0
53.002,3.2563e-05,0
53.003,6.3783e-05,0
53.003,6.6972e-05,0
53.004,4.6159e-05,0
53.004,2.5345e-05,0
53.005,2.9374e-05,0
53.005,4.7501e-05,0
53.006,6.2943e-05,0
53.006,7.9057e-05,0
53.007,9.6178e-05,0
53.007,0.00010188,0
53.008,9.8192e-05,0
53.008,9.2988e-05,0
53.009,9.0639e-05,0
53.009,8.9632e-05,0
53.01,8.191e-05,0
53.01,7.3014e-05,0
53.011,6.8482e-05,0
53.011,5.8915e-05,0
53.012,4.0452e-05,0
53.012,1.7624e-05,0
53.013,1.8463e-06,0
53.013,0,0
53.014,1.1749e-06,0
53.014,-6.2104e-06,0
53.015,-2.8031e-05,0
53.016,-5.6565e-05,0
53.016,-7.805e-05,0
53.017,-9.1478e-05,0
53.017,-0.00011095,0
53.018,-0.00013075,0
53.018,-0.00010759,0
53.019,-1.2253e-05,0
53.019,0.00011733,0
53.02,0.00021384,0
53.02,0.00024489,0
53.021,0.00022374,0
53.021,0.00018346,0
53.022,0.00013881,0
53.022,9.3492e-05,0
53.023,5.0858e-05,0
53.023,1.2421e-05,0
53.024,-1.8631e-05,0
53.024,-3.6088e-05,0
53.025,-4.8676e-05,0
53.025,-5.7237e-05,0
53.026,-3.3906e-05,0
53.026,3.1724e-05,0
53.027,0.00010256,0
53.027,0.00014855,0
53.028,0.0001707,0
53.029,0.0001744,0
53.029,0.00016365,0
53.03,0.00014603,0
53.03,0.00013378,0
53.031,0.00012454,0
53.031,0.00010809,0
53.032,9.2485e-05,0
53.032,7.7714e-05,0
53.033,4.5487e-05,0
53.033,-5.2033e-06,0
53.034,-5.5894e-05,0
53.034,-0.0001034,0
53.035,-0.00014788,0
53.035,-0.00018363,0
53.036,-0.00020024,0
53.036,-0.00019084,0
53.037,-0.00015023,0
53.037,-8.9296e-05,0
53.038,-2.2828e-05,0
53.038,3.3066e-05,0
53.039,5.4887e-05,0
53.039,3.3234e-05,0
53.04,-1.4267e-05,0
53.04,-5.8076e-05,0
53.041,-8.1407e-05,0
53.041,-9.601e-05,0
53.042,-0.00011145,0
53.043,-0.00011749,0
53.043,-0.00011347,0
53.044,-0.00010692,0
53.044,-9.6178e-05,0
53.045,-7.5364e-05,0
53.045,-3.508e-05,0
53.046,2.266e-05,0
53.046,7.6707e-05,0
53.047,0.00012136,0
53.047,0.00015476,0
53.048,0.000165,0
53.048,0.00015694,0
53.049,0.00013864,0
53.049,0.00011229,0
53.05,8.7282e-05,0
53.05,6.9657e-05,0
53.051,5.6062e-05,0
53.051,4.6326e-05,0
53.052,4.3809e-05,0
53.052,3.8773e-05,0
53.053,2.1988e-05,0
53.053,3.0213e-06,0
53.054,-4.3641e-06,0
53.054,2.5177e-06,0
53.055,2.266e-05,0
53.056,5.304e-05,0
53.056,8.7114e-05,0
53.057,0.0001227,0
53.057,0.00016248,0
53.058,0.00019974,0
53.058,0.00020528,0
53.059,0.00017977,0
53.059,0.0001467,0
53.06,0.00011498,0
53.06,8.5771e-05,0
53.061,6.3279e-05,0
53.061,3.8102e-05,0
53.062,1.6617e-05,0
53.062,1.1749e-06,0
53.063,-1.6281e-05,0
53.063,-4.0787e-05,0
53.064,-6.5461e-05,0
53.064,-8.3421e-05,0
53.065,-9.0303e-05,0
53.065,-8.8457e-05,0
53.066,-8.275e-05,0
53.066,-7.3686e-05,0
53.067,-5.8915e-05,0
53.067,-3.9948e-05,0
53.068,-1.9638e-05,0
53.069,4.8676e-06,0
53.069,2.4002e-05,0
53.07,2.887e-05,0
53.07,2.5513e-05,0
53.071,3.2059e-05,0
53.071,4.3977e-05,0
53.072,3.3402e-05,0
53.072,1.8463e-06,0
53.073,-1.9974e-05,0
53.073,-1.9638e-05,0
53.074,-8.3925e-06,0
53.074,1.0575e-05,0
53.075,3.2395e-05,0
53.075,4.2802e-05,0
53.076,3.5416e-05,0
53.076,1.5274e-05,0
53.077,-4.0284e-06,0
53.077,-1.4435e-05,0
53.078,-1.6953e-05,0
53.078,-1.561e-05,0
53.079,-1.5946e-05,0
53.079,-2.5177e-05,0
53.08,-3.1891e-05,0
53.08,-2.7359e-05,0
53.081,-1.5778e-05,0
53.081,-4.3641e-06,0
53.082,1.8463e-06,0
53.083,2.5177e-06,0
53.083,-3.6927e-06,0
53.084,-1.9974e-05,0
53.084,-3.4577e-05,0
53.085,-3.5416e-05,0
53.085,-3.0716e-05,0
53.086,-2.9374e-05,0
53.086,-2.5849e-05,0
53.087,-1.561e-05,0
53.087,3.5248e-06,0
53.088,2.4002e-05,0
53.088,3.2059e-05,0
53.089,3.7263e-05,0
53.089,5.623e-05,0
53.09,7.9561e-05,0
53.09,8.8289e-05,0
53.091,8.51e-05,0
53.091,7.4022e-05,0
53.092,5.153e-05,0
53.092,2.5681e-05,0
53.093,2.0142e-06,0
53.093,-1.3764e-05,0
53.094,-2.266e-05,0
53.094,-2.4506e-05,0
53.095,-1.1917e-05,0
53.096,1.0239e-05,0
53.096,3.1891e-05,0
53.097,4.3137e-05,0
53.097,5.2201e-05,0
53.098,7.0329e-05,0
53.098,9.4835e-05,0
53.099,0.00011263,0
53.099,0.00011901,0
53.1,0.00011263,0
53.1,7.5029e-05,0
53.101,5.8747e-06,0
53.101,-5.6733e-05,0
53.102,-7.8218e-05,0
53.102,-5.8579e-05,0
53.103,-1.9974e-05,0
53.103,1.4771e-05,0
53.104,3.8773e-05,0
53.104,5.5222e-05,0
53.105,6.2776e-05,0
53.105,6.2943e-05,0
53.106,6.1936e-05,0
53.106,5.9754e-05,0
53.107,5.623e-05,0
53.107,5.539e-05,0
53.108,5.9251e-05,0
53.108,5.8579e-05,0
53.109,4.683e-05,0
53.11,3.4409e-05,0
53.11,2.7359e-05,0
53.111,2.0645e-05,0
53.111,1.2589e-05,0
53.112,3.8605e-06,0
53.112,-1.1917e-05,0
53.113,-2.7695e-05,0
53.113,-2.8199e-05,0
53.114,-1.6281e-05,0
53.114,3.8605e-06,0
53.115,3.1052e-05,0
53.115,6.4118e-05,0
53.116,9.0471e-05,0
53.116,9.7185e-05,0
53.117,8.1743e-05,0
53.117,5.5558e-05,0
53.118,3.743e-05,0
53.118,2.9038e-05,0
53.119,1.6617e-05,0
53.119,-5.0355e-07,0
53.12,-8.896e-06,0
53.12,-1.1749e-06,0
53.121,1.0239e-05,0
53.121,8.5603e-06,0
53.122,-8.2246e-06,0
53.123,-2.9709e-05,0
53.123,-4.3977e-05,0
53.124,-5.0523e-05,0
53.124,-5.623e-05,0
53.125,-5.9419e-05,0
53.125,-4.8508e-05,0
53.126,-3.0213e-05,0
53.126,-1.8463e-05,0
53.127,-1.6617e-05,0
53.127,-1.8128e-05,0
53.128,-6.5461e-06,0
53.128,1.4435e-05,0
53.129,2.7359e-05,0
53.129,3.3906e-05,0
53.13,4.5823e-05,0
53.13,6.5629e-05,0
53.131,8.6778e-05,0
53.131,9.6513e-05,0
53.132,8.6275e-05,0
53.132,6.63e-05,0
53.133,5.1698e-05,0
53.133,4.448e-05,0
53.134,3.7766e-05,0
53.134,3.3402e-05,0
53.135,3.2059e-05,0
53.135,3.0045e-05,0
53.136,2.1317e-05,0
53.137,1.5106e-05,0
53.137,2.1653e-05,0
53.138,3.8437e-05,0
53.138,5.623e-05,0
53.139,7.5364e-05,0
53.139,8.5267e-05,0
53.14,8.6442e-05,0
53.14,8.7114e-05,0
53.141,7.4022e-05,0
53.141,4.0116e-05,0
53.142,1.1749e-06,0
53.142,-2.8534e-05,0
53.143,-2.9206e-05,0
53.143,5.539e-06,0
53.144,4.4816e-05,0
53.144,6.0594e-05,0
53.145,4.7669e-05,0
53.145,1.9303e-05,0
53.146,-6.5461e-06,0
53.146,-2.7863e-05,0
53.147,-4.062e-05,0
53.147,-3.5248e-05,0
53.148,-1.4099e-05,0
53.148,-1.5106e-06,0
53.149,-1.0239e-05,0
53.15,-2.5849e-05,0
53.15,-3.2563e-05,0
53.151,-2.6352e-05,0
53.151,-1.3596e-05,0
53.152,-2.3499e-06,0
53.152,5.7069e-06,0
53.153,7.5532e-06,0
53.153,1.1582e-05,0
53.154,2.501e-05,0
53.154,3.6927e-05,0
53.155,3.7934e-05,0
53.155,3.2563e-05,0
53.156,2.5513e-05,0
53.156,1.796e-05,0
53.157,1.0575e-05,0
53.157,3.357e-06,0
53.158,-3.8605e-06,0
53.158,-8.7282e-06,0
53.159,-3.8605e-06,0
53.159,5.7069e-06,0
53.16,9.0639e-06,0
53.16,3.8605e-06,0
53.161,-2.5177e-06,0
53.161,-4.5319e-06,0
53.162,-1.2589e-05,0
53.162,-2.6352e-05,0
53.163,-3.3738e-05,0
53.164,-2.501e-05,0
53.164,1.0071e-06,0
53.165,3.2563e-05,0
53.165,5.9251e-05,0
53.166,8.4932e-05,0
53.166,0.0001086,0
53.167,0.00012874,0
53.167,0.00014133,0
53.168,0.00013881,0
53.168,0.00011263,0
53.169,6.1936e-05,0
53.169,4.8676e-06,0
53.17,-2.4002e-05,0
53.17,-1.796e-05,0
53.171,-3.357e-06,0
53.171,1.0071e-06,0
53.172,3.357e-06,0
53.172,5.539e-06,0
53.173,5.2033e-06,0
53.173,1.4603e-05,0
53.174,3.2395e-05,0
53.174,4.8173e-05,0
53.175,5.623e-05,0
53.175,4.3473e-05,0
53.176,1.4267e-05,0
53.176,-1.6953e-05,0
53.177,-4.1962e-05,0
53.178,-5.0523e-05,0
53.178,-3.9109e-05,0
53.179,-1.7288e-05,0
53.179,-2.8534e-06,0
53.18,-1.091e-05,0
53.18,-3.7766e-05,0
53.181,-5.6901e-05,0
53.181,-5.9419e-05,0
53.182,-5.2705e-05,0
53.182,-4.0452e-05,0
53.183,-2.7695e-05,0
53.183,-1.4603e-05,0
53.184,-1.5106e-06,0
53.184,2.182e-06,0
53.185,-3.1891e-06,0
53.185,-2.182e-06,0
53.186,2.4002e-05,0
53.186,8.1407e-05,0
53.187,0.00015694,0
53.187,0.00023482,0
53.188,0.0002882,0
53.188,0.00029323,0
53.189,0.00025396,0
53.189,0.00019504,0
53.19,0.00013059,0
53.191,7.1e-05,0
53.191,2.8367e-05,0
53.192,1.1749e-06,0
53.192,-1.8967e-05,0
53.193,-3.6088e-05,0
53.193,-5.0019e-05,0
53.194,-6.0258e-05,0
53.194,-6.7475e-05,0
53.195,-7.1504e-05,0
53.195,-7.1e-05,0
53.196,-6.8315e-05,0
53.196,-7.9393e-05,0
53.197,-0.00010625,0
53.197,-0.00012454,0
53.198,-0.0001237,0
53.198,-0.00010692,0
53.199,-8.2078e-05,0
53.199,-5.8747e-05,0
53.2,-3.6423e-05,0
53.2,-1.1582e-05,0
53.201,9.3996e-06,0
53.201,1.8296e-05,0
53.202,1.326e-05,0
53.202,2.5177e-06,0
53.203,3.8605e-06,0
53.203,2.3331e-05,0
53.204,5.0858e-05,0
53.205,7.1336e-05,0
53.205,7.8386e-05,0
53.206,7.6875e-05,0
53.206,7.5029e-05,0
53.207,7.2679e-05,0
53.207,7.7546e-05,0
53.208,0.00010356,0
53.208,0.00013411,0
53.209,0.00013613,0
53.209,0.00010843,0
53.21,6.7475e-05,0
53.21,3.3066e-05,0
53.211,1.4603e-05,0
53.211,1.4099e-05,0
53.212,2.2995e-05,0
53.212,2.9038e-05,0
53.213,3.6088e-05,0
53.213,5.623e-05,0
53.214,7.7714e-05,0
53.214,8.7617e-05,0
53.215,8.2078e-05,0
53.215,6.5461e-05,0
53.216,4.213e-05,0
53.216,1.9974e-05,0
53.217,9.2317e-06,0
53.218,2.8534e-06,0
53.218,-5.539e-06,0
53.219,-1.0407e-05,0
53.219,-8.5603e-06,0
53.22,-4.1962e-06,0
53.22,-5.539e-06,0
53.221,-5.539e-06,0
53.221,1.3931e-05,0
53.222,6.0929e-05,0
53.222,0.00013109,0
53.223,0.00019101,0
53.223,0.00020394,0
53.224,0.00017288,0
53.224,0.0001185,0
53.225,5.2033e-05,0
53.225,-1.6281e-05,0
53.226,-7.7211e-05,0
53.226,-0.00011951,0
53.227,-0.00013579,0
53.227,-0.00014066,0
53.228,-0.0001462,0
53.228,-0.0001509,0
53.229,-0.00015694,0
53.229,-0.0001655,0
53.23,-0.00017708,0
53.23,-0.00018144,0
53.231,-0.00016869,0
53.232,-0.00014032,0
53.232,-0.0001133,0
53.233,-9.6849e-05,0
53.233,-8.1239e-05,0
53.234,-6.009e-05,0
53.234,-4.3473e-05,0
53.235,-2.8031e-05,0
53.235,2.8534e-06,0
53.236,4.3137e-05,0
53.236,7.335e-05,0
53.237,8.5435e-05,0
53.237,9.0303e-05,0
53.238,0.00010054,0
53.238,0.00011296,0
53.239,0.00012068,0
53.239,0.00012068,0
53.24,0.00011867,0
53.24,0.00011783,0
53.241,0.00011733,0
53.241,0.00011397,0
53.242,0.00010726,0
53.242,9.5171e-05,0
53.243,7.57e-05,0
53.243,5.069e-05,0
53.244,1.8967e-05,0
53.245,-1.1246e-05,0
53.245,-2.7359e-05,0
53.246,-3.2731e-05,0
53.246,-3.6759e-05,0
53.247,-3.6423e-05,0
53.247,-2.887e-05,0
53.248,-1.3596e-05,0
53.248,6.8818e-06,0
53.249,2.9206e-05,0
53.249,5.7069e-05,0
53.25,8.1743e-05,0
53.25,8.51e-05,0
53.251,7.4357e-05,0
53.251,7.3182e-05,0
53.252,8.0232e-05,0
53.252,9.0806e-05,0
53.253,0.00010054,0
53.253,0.00010239,0
53.254,8.9799e-05,0
53.254,6.9993e-05,0
53.255,4.9851e-05,0
53.255,2.887e-05,0
53.256,3.8605e-06,0
53.256,-3.3066e-05,0
53.257,-7.8218e-05,0
53.258,-0.00012068,0
53.258,-0.00013713,0
53.259,-0.00011598,0
53.259,-7.7379e-05,0
53.26,-4.8005e-05,0
53.26,-2.3163e-05,0
53.261,4.6998e-06,0
53.261,3.3402e-05,0
53.262,5.8244e-05,0
53.262,6.479e-05,0
53.263,3.8605e-05,0
53.263,1.0071e-06,0
53.264,-2.1653e-05,0
53.264,-1.4267e-05,0
53.265,1.8631e-05,0
53.265,5.7572e-05,0
53.266,9.0806e-05,0
53.266,0.00011531,0
53.267,0.00012303,0
53.267,0.00012438,0
53.268,0.00013713,0
53.268,0.000165,0
53.269,0.00020629,0
53.269,0.00024691,0
53.27,0.00026638,0
53.27,0.00026101,0
53.271,0.00023482,0
53.272,0.00019017,0
53.272,0.00014284,0
53.273,0.00010323,0
53.273,6.9993e-05,0
53.274,4.3809e-05,0
53.274,2.3835e-05,0
53.275,5.0355e-07,0
53.275,-2.6352e-05,0
53.276,-4.3809e-05,0
53.276,-4.8844e-05,0
53.277,-5.0187e-05,0
53.277,-5.9419e-05,0
53.278,-6.4622e-05,0
53.278,-4.8173e-05,0
53.279,-1.4939e-05,0
53.279,2.2156e-05,0
53.28,4.1459e-05,0
53.28,3.8102e-05,0
53.281,3.5584e-05,0
53.281,5.4551e-05,0
53.282,8.8792e-05,0
53.282,0.00012454,0
53.283,0.00014553,0
53.283,0.00013948,0
53.284,0.00011263,0
53.285,7.7043e-05,0
53.285,3.6423e-05,0
53.286,3.5248e-06,0
53.286,-2.4674e-05,0
53.287,-5.6565e-05,0
53.287,-8.6107e-05,0
53.288,-0.00011229,0
53.288,-0.00013999,0
53.289,-0.0001697,0
53.289,-0.0001989,0
53.29,-0.00021669,0
53.29,-0.00020948,0
53.291,-0.0001895,0
53.291,-0.00017339,0
53.292,-0.00015744,0
53.292,-0.00013562,0
53.293,-0.00010675,0
53.293,-7.2007e-05,0
53.294,-3.6088e-05,0
53.294,-6.5461e-06,0
53.295,1.5778e-05,0
53.295,3.0381e-05,0
53.296,4.1459e-05,0
53.296,4.9851e-05,0
53.297,5.5558e-05,0
53.297,5.9754e-05,0
53.298,6.0594e-05,0
53.299,5.6565e-05,0
53.299,4.6494e-05,0
53.3,2.6017e-05,0
53.3,8.3925e-07,0
53.301,-1.2253e-05,0
53.301,-1.561e-05,0
53.302,-2.266e-05,0
53.302,-3.7095e-05,0
53.303,-5.6565e-05,0
53.303,-7.9896e-05,0
53.304,-9.7017e-05,0
53.304,-9.9199e-05,0
53.305,-8.5603e-05,0
53.305,-6.1601e-05,0
53.306,-3.2731e-05,0
53.306,1.3428e-06,0
53.307,4.6998e-05,0
53.307,0.00010675,0
53.308,0.000165,0
53.308,0.00020293,0
53.309,0.00020511,0
53.309,0.00016953,0
53.31,0.000118,0
53.31,7.9057e-05,0
53.311,6.5629e-05,0
53.312,6.63e-05,0
53.312,6.1936e-05,0
53.313,4.4144e-05,0
53.313,1.7288e-05,0
53.314,-7.8889e-06,0
53.314,-2.3331e-05,0
53.315,-3.0884e-05,0
53.315,-4.1962e-05,0
53.316,-5.4719e-05,0
53.316,-6.3615e-05,0
53.317,-5.6062e-05,0
53.317,-2.0645e-05,0
53.318,3.5416e-05,0
53.318,7.6875e-05,0
53.319,9.1814e-05,0
53.319,9.9199e-05,0
53.32,0.00010726,0
53.32,9.9199e-05,0
53.321,6.2608e-05,0
53.321,-1.5106e-06,0
53.322,-6.9993e-05,0
53.322,-0.00011598,0
53.323,-0.00013864,0
53.323,-0.00015174,0
53.324,-0.00016567,0
53.324,-0.0001791,0
53.325,-0.00018816,0
53.326,-0.00018346,0
53.326,-0.00016248,0
53.327,-0.00012589,0
53.327,-6.7643e-05,0
53.328,1.796e-05,0
53.328,0.00011196,0
53.329,0.00018917,0
53.329,0.00023616,0
53.33,0.00024691,0
53.33,0.00024691,0
53.331,0.00025698,0
53.331,0.00026571,0
53.332,0.00026436,0
53.332,0.00025949,0
53.333,0.00024657,0
53.333,0.00022257,0
53.334,0.00018212,0
53.334,0.00011984,0
53.335,3.357e-05,0
53.335,-5.0858e-05,0
53.336,-8.9296e-05,0
53.336,-6.1265e-05,0
53.337,6.2104e-06,0
53.337,6.4958e-05,0
53.338,8.5771e-05,0
53.339,7.0832e-05,0
53.339,3.9109e-05,0
53.34,7.2175e-06,0
53.34,-3.1052e-05,0
53.341,-6.8818e-05,0
53.341,-8.1407e-05,0
53.342,-6.8482e-05,0
53.342,-4.6662e-05,0
53.343,-2.5177e-06,0
53.343,5.1698e-05,0
53.344,9.7185e-05,0
53.344,0.00012975,0
53.345,0.00015476,0
53.345,0.00016684,0
53.346,0.00015157,0
53.346,0.00010323,0
53.347,3.2059e-05,0
53.347,-2.4338e-05,0
53.348,-4.213e-05,0
53.348,-3.743e-05,0
53.349,-1.796e-05,0
53.349,1.796e-05,0
53.35,7.0161e-05,0
53.35,0.00011531,0
53.351,0.00013864,0
53.351,0.00013814,0
53.352,0.00012035,0
53.353,0.00010927,0
53.353,0.00011565,0
53.354,0.00010726,0
53.354,6.4958e-05,0
53.355,1.7288e-05,0
53.355,-5.8747e-06,0
53.356,-2.1653e-05,0
53.356,-3.743e-05,0
53.357,-4.1291e-05,0
53.357,-3.9445e-05,0
53.358,-4.2634e-05,0
53.358,-5.9586e-05,0
53.359,-9.366e-05,0
53.359,-0.00012538,0
53.36,-0.0001227,0
53.36,-7.4861e-05,0
53.361,-7.7211e-06,0
53.361,6.2943e-05,0
53.362,0.00013848,0
53.362,0.00021015,0
53.363,0.00025295,0
53.363,0.00024909,0
53.364,0.00020528,0
53.364,0.00014788,0
53.365,9.987e-05,0
53.365,6.6804e-05,0
53.366,4.8508e-05,0
53.367,4.213e-05,0
53.367,3.2731e-05,0
53.368,5.539e-06,0
53.368,-3.6423e-05,0
53.369,-8.51e-05,0
53.369,-0.00013478,0
53.37,-0.00017993,0
53.37,-0.00022509,0
53.371,-0.00027326,0
53.371,-0.00032412,0
53.372,-0.00037548,0
53.372,-0.00041291,0
53.373,-0.0004213,0
53.373,-0.00039562,0
53.374,-0.00032915,0
53.374,-0.00020998,0
53.375,-4.3305e-05,0
53.375,0.00012035,0
53.376,0.00022123,0
53.376,0.0002464,0
53.377,0.00022441,0
53.377,0.00018245,0
53.378,0.00014687,0
53.378,0.00013059,0
53.379,0.00012538,0
53.38,0.00012102,0
53.38,0.00011229,0
53.381,8.8457e-05,0
53.381,3.9948e-05,0
53.382,-1.9303e-05,0
53.382,-6.7643e-05,0
53.383,-0.00010608,0
53.383,-0.00013797,0
53.384,-0.00016197,0
53.384,-0.00016735,0
53.385,-0.00016231,0
53.385,-0.00016869,0
53.386,-0.00017473,0
53.386,-0.00015509,0
53.387,-0.00010809,0
53.387,-5.8244e-05,0
53.388,-4.7501e-05,0
53.388,-7.8218e-05,0
53.389,-0.00011363,0
53.389,-0.00014351,0
53.39,-0.00016902,0
53.39,-0.00016298,0
53.391,-0.00012169,0
53.391,-6.1265e-05,0
