68.583,0.00064907,0
68.584,0.00065713,0
68.584,0.00067794,0
68.585,0.0007189,0
68.585,0.00069372,0
68.586,0.00055306,0
68.586,0.00031807,0
68.587,4.0284e-05,0
68.587,-0.00022055,0
68.588,-0.00044195,0
68.588,-0.00062306,0
68.589,-0.00075264,0
68.589,-0.00084143,0
68.59,-0.00088624,0
68.59,-0.00086342,0
68.591,-0.0007805,0
68.591,-0.00066569,0
68.592,-0.00053426,0
68.592,-0.00041039,0
68.593,-0.00031102,0
68.594,-0.0002177,0
68.594,-0.00010088,0
68.595,6.4286e-05,0
68.595,0.00027628,0
68.596,0.00049599,0
68.596,0.0006813,0
68.597,0.0008374,0
68.597,0.00096866,0
68.598,0.0010496,0
68.598,0.001066,0
68.599,0.0010083,0
68.599,0.00088272,0
68.6,0.0007518,0
68.6,0.00066686,0
68.601,0.00055827,0
68.601,0.00034627,0
68.602,4.8173e-05,0
68.602,-0.00025496,0
68.603,-0.00050758,0
68.603,-0.00073568,0
68.604,-0.0009658,0
68.604,-0.0011565,0
68.605,-0.0012387,0
68.605,-0.0012112,0
68.606,-0.001095,0
68.606,-0.00089564,0
68.607,-0.00064605,0
68.608,-0.00040166,0
68.608,-0.0002172,0
68.609,-0.00010071,0
68.609,-3.5248e-06,0
68.61,0.00013848,0
68.61,0.0003503,0
68.611,0.00059603,0
68.611,0.00083102,0
68.612,0.0010096,0
68.612,0.0010721,0
68.613,0.0010116,0
68.613,0.00086459,0
68.614,0.00068835,0
68.614,0.00053561,0
68.615,0.00041207,0
68.615,0.0002835,0
68.616,0.00011397,0
68.616,-7.9057e-05,0
68.617,-0.00024976,0
68.617,-0.00038991,0
68.618,-0.00052335,0
68.618,-0.00064001,0
68.619,-0.00069473,0
68.619,-0.0006865,0
68.62,-0.0006484,0
68.621,-0.00057606,0
68.621,-0.00045856,0
68.622,-0.00032932,0
68.622,-0.00022374,0
68.623,-0.00015828,0
68.623,-0.00012807,0
68.624,-0.00011162,0
68.624,-8.426e-05,0
68.625,-3.7095e-05,0
68.625,2.1317e-05,0
68.626,0.00010356,0
68.626,0.00021132,0
68.627,0.0003174,0
68.627,0.00039797,0
68.628,0.00044514,0
68.628,0.00046007,0
68.629,0.0004453,0
68.629,0.00041543,0
68.63,0.00039998,0
68.63,0.00042483,0
68.631,0.00047971,0
68.631,0.00051345,0
68.632,0.00050237,0
68.632,0.00045252,0
68.633,0.00037917,0
68.633,0.00028988,0
68.634,0.00019387,0
68.635,0.00012337,0
68.635,0.00012337,0
68.636,0.00018178,0
68.636,0.00023717,0
68.637,0.00028417,0
68.637,0.00034057,0
68.638,0.00036641,0
68.638,0.0003221,0
68.639,0.00022139,0
68.639,0.00010222,0
68.64,-3.5248e-06,0
68.64,-9.1142e-05,0
68.641,-0.00017372,0
68.641,-0.00024237,0
68.642,-0.00027678,0
68.642,-0.00029122,0
68.643,-0.00027007,0
68.643,-0.00021267,0
68.644,-0.0002125,0
68.644,-0.00030632,0
68.645,-0.00041526,0
68.645,-0.00049868,0
68.646,-0.00057958,0
68.646,-0.00067173,0
68.647,-0.00074844,0
68.647,-0.00076942,0
68.648,-0.00071235,0
68.649,-0.00057102,0
68.649,-0.00034443,0
68.65,-7.6875e-05,0
68.65,0.00013512,0
68.651,0.00022744,0
68.651,0.00022123,0
68.652,0.0001749,0
68.652,0.00013243,0
68.653,0.00012203,0
68.653,0.00014553,0
68.654,0.00016634,0
68.654,0.00015862,0
68.655,0.00011867,0
68.655,6.0594e-05,0
68.656,1.8463e-06,0
68.656,-6.5965e-05,0
68.657,-0.00015795,0
68.657,-0.00028585,0
68.658,-0.00043909,0
68.658,-0.00056649,0
68.659,-0.00061198,0
68.659,-0.00053628,0
68.66,-0.00035534,0
68.66,-0.00016567,0
68.661,-3.9948e-05,0
68.662,3.2059e-05,0
68.662,0.00010826,0
68.663,0.0002454,0
68.663,0.00045504,0
68.664,0.00067593,0
68.664,0.00080685,0
68.665,0.00081625,0
68.665,0.0007612,0
68.666,0.00068869,0
68.666,0.0006014,0
68.667,0.00050791,0
68.667,0.00039461,0
68.668,0.00025513,0
68.668,0.00010927,0
68.669,-1.6953e-05,0
68.669,-0.00011514,0
68.67,-0.00021585,0
68.67,-0.00034241,0
68.671,-0.00046242,0
68.671,-0.00053007,0
68.672,-0.00053494,0
68.672,-0.0004594,0
68.673,-0.00028652,0
68.673,-4.8676e-05,0
68.674,0.00018144,0
68.674,0.00033788,0
68.675,0.00042063,0
68.676,0.00046612,0
68.676,0.00048324,0
68.677,0.00046007,0
68.677,0.00040099,0
68.678,0.00034459,0
68.678,0.00032982,0
68.679,0.00035735,0
68.679,0.00041274,0
68.68,0.00047317,0
68.68,0.00048156,0
68.681,0.00039998,0
68.681,0.0002412,0
68.682,5.5726e-05,0
68.682,-8.7114e-05,0
68.683,-0.00017205,0
68.683,-0.00024892,0
68.684,-0.00032848,0
68.684,-0.00037984,0
68.685,-0.00040435,0
68.685,-0.00043909,0
68.686,-0.00049096,0
68.686,-0.00052016,0
68.687,-0.00049902,0
68.687,-0.00044598,0
68.688,-0.00038807,0
68.689,-0.00031539,0
68.689,-0.00020343,0
68.69,-5.9754e-05,0
68.69,6.8147e-05,0
68.691,0.00013596,0
68.691,0.00014955,0
68.692,0.00020914,0
68.692,0.00036457,0
68.693,0.00053393,0
68.693,0.00065914,0
68.694,0.00071957,0
68.694,0.00069372,0
68.695,0.00059939,0
68.695,0.00049046,0
68.696,0.00038924,0
68.696,0.00028367,0
68.697,0.00015023,0
68.697,-1.1749e-05,0
68.698,-0.0001942,0
68.698,-0.00036625,0
68.699,-0.00049986,0
68.699,-0.0005915,0
68.7,-0.00064286,0
68.7,-0.00067408,0
68.701,-0.00069322,0
68.701,-0.00067073,0
68.702,-0.00056028,0
68.703,-0.00036826,0
68.703,-0.00014871,0
68.704,4.6159e-05,0
68.704,0.00019269,0
68.705,0.00026806,0
68.705,0.00026671,0
68.706,0.00021787,0
68.706,0.00015828,0
68.707,0.00011934,0
68.707,0.00013344,0
68.708,0.00021938,0
68.708,0.0003174,0
68.709,0.00033419,0
68.709,0.00024607,0
68.71,8.9296e-05,0
68.71,-9.0806e-05,0
68.711,-0.00024086,0
68.711,-0.00031958,0
68.712,-0.00030666,0
68.712,-0.00025228,0
68.713,-0.00024724,0
68.713,-0.00025966,0
68.714,-0.00021199,0
68.714,-0.00012505,0
68.715,-6.9993e-05,0
68.716,-7.2847e-05,0
68.716,-9.7185e-05,0
68.717,-7.1e-05,0
68.717,1.4939e-05,0
68.718,0.00011514,0
68.718,0.00019773,0
68.719,0.00025496,0
68.719,0.00028904,0
68.72,0.00031337,0
68.72,0.00033536,0
68.721,0.00032647,0
68.721,0.00025228,0
68.722,0.00012874,0
68.722,5.2033e-06,0
68.723,-8.7449e-05,0
68.723,-0.00014804,0
68.724,-0.00019017,0
68.724,-0.00020797,0
68.725,-0.00020981,0
68.725,-0.00018262,0
68.726,-0.00012052,0
68.726,-3.7766e-05,0
68.727,6.8986e-05,0
68.727,0.00018514,0
68.728,0.00026806,0
68.728,0.00031724,0
68.729,0.00038169,0
68.73,0.00046645,0
68.73,0.00050103,0
68.731,0.00043288,0
68.731,0.0003033,0
68.732,0.00022878,0
68.732,0.00025026,0
68.733,0.00027745,0
68.733,0.00023264,0
68.734,0.00012505,0
68.734,-2.3163e-05,0
68.735,-0.00018077,0
68.735,-0.00033587,0
68.736,-0.00047384,0
68.736,-0.00055525,0
68.737,-0.00052973,0
68.737,-0.00042315,0
68.738,-0.00031908,0
68.738,-0.00023432,0
68.739,-0.00016399,0
68.739,-0.00011867,0
68.74,-9.3156e-05,0
68.74,-6.1601e-05,0
68.741,1.4435e-05,0
68.741,0.00010726,0
68.742,0.00015006,0
68.743,0.00013797,0
68.743,0.00011666,0
68.744,0.00012572,0
68.744,0.00015358,0
68.745,0.00015593,0
68.745,0.00012001,0
68.746,6.9322e-05,0
68.746,2.5345e-05,0
68.747,3.6927e-06,0
68.747,-1.0239e-05,0
68.748,-2.1988e-05,0
68.748,-1.2421e-05,0
68.749,3.3402e-05,0
68.749,0.00010121,0
68.75,0.00017893,0
68.75,0.00026839,0
68.751,0.00037313,0
68.751,0.00047098,0
68.752,0.00054299,0
68.752,0.00058596,0
68.753,0.00061013,0
68.753,0.00062692,0
68.754,0.00062692,0
68.754,0.00058865,0
68.755,0.00053695,0
68.755,0.00048995,0
68.756,0.00039998,0
68.757,0.000237,0
68.757,2.5177e-05,0
68.758,-0.00018195,0
68.758,-0.00039696,0
68.759,-0.00065176,0
68.759,-0.00091092,0
68.76,-0.0011185,0
68.76,-0.0012285,0
68.761,-0.0012005,0
68.761,-0.0010585,0
68.762,-0.00086677,0
68.762,-0.00065377,0
68.763,-0.0004359,0
68.763,-0.00025161,0
68.764,-0.00012958,0
68.764,-5.2873e-05,0
68.765,-7.3854e-06,0
68.765,2.7863e-05,0
68.766,0.00011028,0
68.766,0.00028719,0
68.767,0.0004725,0
68.767,0.00055373,0
68.768,0.00055306,0
68.768,0.00052218,0
68.769,0.00046981,0
68.77,0.00041543,0
68.77,0.00038085,0
68.771,0.00034795,0
68.771,0.00029592,0
68.772,0.00023146,0
68.772,0.00016751,0
68.773,0.00010625,0
68.773,3.0884e-05,0
68.774,-7.4861e-05,0
68.774,-0.00019873,0
68.775,-0.0003117,0
68.775,-0.00040418,0
68.776,-0.00046947,0
68.776,-0.00049818,0
68.777,-0.00048223,0
68.777,-0.00041912,0
68.778,-0.00033721,0
68.778,-0.00024254,0
68.779,-0.00012538,0
68.779,1.1749e-06,0
68.78,0.00010927,0
68.78,0.00021099,0
68.781,0.00032999,0
68.781,0.00047115,0
68.782,0.00060879,0
68.782,0.00072226,0
68.783,0.00081894,0
68.784,0.00085838,0
68.784,0.00079812,0
68.785,0.0006766,0
68.785,0.00052554,0
68.786,0.00031908,0
68.786,6.4286e-05,0
68.787,-0.00020243,0
68.787,-0.00041946,0
68.788,-0.00057925,0
68.788,-0.00071151,0
68.789,-0.00083018,0
68.789,-0.00092351,0
68.79,-0.00096278,0
68.79,-0.00093072,0
68.791,-0.00084596,0
68.791,-0.00072343,0
68.792,-0.00053544,0
68.792,-0.00026923,0
68.793,6.0258e-05,0
68.793,0.00041543,0
68.794,0.00074105,0
68.794,0.00099081,0
68.795,0.001117,0
68.795,0.0011083,0
68.796,0.0010177,0
68.797,0.00092099,0
68.797,0.00078604,0
68.798,0.00057858,0
68.798,0.00034476,0
68.799,0.00014469,0
68.799,2.3499e-06,0
68.8,-9.9702e-05,0
68.8,-0.00019454,0
68.801,-0.00031908,0
68.801,-0.00047518,0
68.802,-0.00060795,0
68.802,-0.00067878,0
68.803,-0.00070228,0
68.803,-0.00070698,0
68.804,-0.00067727,0
68.804,-0.00057874,0
68.805,-0.00043893,0
68.805,-0.0003164,0
68.806,-0.00022173,0
68.806,-0.00013445,0
68.807,-6.1433e-05,0
68.807,-1.8631e-05,0
68.808,-2.6856e-06,0
68.808,2.266e-05,0
68.809,9.0806e-05,0
68.809,0.00019487,0
68.81,0.00030767,0
68.811,0.00039528,0
68.811,0.0004678,0
68.812,0.00054836,0
68.812,0.00060006,0
68.813,0.00061147,0
68.813,0.00061181,0
68.814,0.00060208,0
68.814,0.00053208,0
68.815,0.00040536,0
68.815,0.00027544,0
68.816,0.00018984,0
68.816,0.00018346,0
68.817,0.0002083,0
68.817,0.00016886,0
68.818,5.623e-05,0
68.818,-5.2873e-05,0
68.819,-0.00012203,0
68.819,-0.00019672,0
68.82,-0.000307,0
68.82,-0.00041274,0
68.821,-0.00047703,0
68.821,-0.00049834,0
68.822,-0.00045336,0
68.822,-0.00030884,0
68.823,-8.6107e-05,0
68.824,0.00014553,0
68.824,0.00035248,0
68.825,0.00051916,0
68.825,0.00064706,0
68.826,0.00074475,0
68.826,0.00079611,0
68.827,0.00079879,0
68.827,0.00072964,0
68.828,0.00055373,0
68.828,0.00027208,0
68.829,-6.4286e-05,0
68.829,-0.00036591,0
68.83,-0.00058898,0
68.83,-0.00075331,0
68.831,-0.00085989,0
68.831,-0.00089145,0
68.832,-0.00085049,0
68.832,-0.00074827,0
68.833,-0.00062423,0
68.833,-0.00052621,0
68.834,-0.00044228,0
68.834,-0.00034258,0
68.835,-0.00020964,0
68.835,-4.7501e-05,0
68.836,8.51e-05,0
68.837,0.00011682,0
68.837,5.3544e-05,0
68.838,-3.0381e-05,0
68.838,-8.6275e-05,0
68.839,-0.00012992,0
68.839,-0.00016768,0
68.84,-0.00016516,0
68.84,-8.8121e-05,0
68.841,4.6494e-05,0
68.841,0.00014553,0
68.842,0.00016902,0
68.842,0.00017574,0
68.843,0.00026638,0
68.843,0.00046175,0
68.844,0.00061886,0
68.844,0.00063967,0
68.845,0.00056851,0
68.845,0.00047787,0
68.846,0.00039528,0
68.846,0.00030498,0
68.847,0.0001655,0
68.847,-3.4073e-05,0
68.848,-0.00025983,0
68.848,-0.00045051,0
68.849,-0.0005393,0
68.849,-0.00053024,0
68.85,-0.00050388,0
68.851,-0.00054668,0
68.851,-0.00066149,0
68.852,-0.00076271,0
68.852,-0.00078,0
68.853,-0.00070832,0
68.853,-0.00056464,0
68.854,-0.00039596,0
68.854,-0.00023297,0
68.855,-8.6442e-05,0
68.855,4.5151e-05,0
68.856,0.00021804,0
68.856,0.00043188,0
68.857,0.00064135,0
68.857,0.00083505,0
68.858,0.00095322,0
68.858,0.00094247,0
68.859,0.00082397,0
68.859,0.00067022,0
68.86,0.00055843,0
68.86,0.00047787,0
68.861,0.00036994,0
68.861,0.00019857,0
68.862,1.5106e-06,0
68.862,-0.00012102,0
68.863,-0.00017876,0
68.864,-0.00023566,0
68.864,-0.0002892,0
68.865,-0.00031337,0
68.865,-0.00031875,0
68.866,-0.00031321,0
68.866,-0.00027359,0
68.867,-0.00020125,0
68.867,-0.0001237,0
68.868,-3.8102e-05,0
68.868,5.2369e-05,0
68.869,0.00011296,0
68.869,0.00013143,0
68.87,0.0001368,0
68.87,0.00015677,0
68.871,0.00022005,0
68.871,0.0003503,0
68.872,0.00054064,0
68.872,0.00072024,0
68.873,0.00078335,0
68.873,0.00069741,0
68.874,0.00053762,0
68.874,0.00039461,0
68.875,0.00029458,0
68.875,0.00021367,0
68.876,0.0001274,0
68.876,2.7024e-05,0
68.877,-7.335e-05,0
68.878,-0.00014418,0
68.878,-0.00017003,0
68.879,-0.00019118,0
68.879,-0.00025715,0
68.88,-0.00034527,0
68.88,-0.00035349,0
68.881,-0.00023717,0
68.881,-8.1575e-05,0
68.882,-2.5177e-06,0
68.882,-1.2589e-05,0
68.883,-4.213e-05,0
68.883,-7.0665e-05,0
68.884,-0.00011313,0
68.884,-0.0001556,0
68.885,-0.00017087,0
68.885,-0.0001279,0
68.886,-3.5752e-05,0
68.886,3.5416e-05,0
68.887,3.122e-05,0
68.887,-2.6017e-05,0
68.888,-8.7785e-05,0
68.888,-0.00012773,0
68.889,-0.00013428,0
68.889,-9.7856e-05,0
68.89,-1.6281e-05,0
68.891,0.00010289,0
68.891,0.00022139,0
68.892,0.00028988,0
68.892,0.00029122,0
68.893,0.00026201,0
68.893,0.00024791,0
68.894,0.00022727,0
68.894,0.00018749,0
68.895,0.00014972,0
68.895,0.00013008,0
68.896,0.00012287,0
68.896,0.0001467,0
68.897,0.00021099,0
68.897,0.00028685,0
68.898,0.00032378,0
68.898,0.00031505,0
68.899,0.000307,0
68.899,0.00037011,0
68.9,0.00052352,0
68.9,0.00067626,0
68.901,0.00067358,0
68.901,0.00048693,0
68.902,0.00021669,0
68.902,-7.57e-05,0
68.903,-0.00036323,0
68.903,-0.00060392,0
68.904,-0.00078604,0
68.905,-0.00090773,0
68.905,-0.00094701,0
68.906,-0.00090001,0
68.906,-0.00079493,0
68.907,-0.00067828,0
68.907,-0.00057723,0
68.908,-0.00046075,0
68.908,-0.00029944,0
68.909,-0.00012757,0
68.909,-2.0981e-05,0
68.91,-2.0478e-05,0
68.91,-0.00010759,0
68.911,-0.00022962,0
68.911,-0.00033251,0
68.912,-0.00038605,0
68.912,-0.00038773,0
68.913,-0.00036104,0
68.913,-0.00031656,0
68.914,-0.00024573,0
68.914,-0.00016768,0
68.915,-0.00011632,0
68.915,-6.8482e-05,0
68.916,1.8631e-05,0
68.916,0.00012203,0
68.917,0.00019487,0
68.918,0.00024926,0
68.918,0.00031304,0
68.919,0.00037581,0
68.919,0.00040233,0
68.92,0.00037716,0
68.92,0.00033083,0
68.921,0.00030448,0
68.921,0.00031304,0
68.922,0.00035433,0
68.922,0.00038991,0
68.923,0.00038236,0
68.923,0.00034292,0
68.924,0.00030398,0
68.924,0.00031522,0
68.925,0.0003926,0
68.925,0.00048324,0
68.926,0.00054971,0
68.926,0.00056112,0
68.927,0.00050271,0
68.927,0.00042617,0
68.928,0.00039126,0
68.928,0.00043087,0
68.929,0.00045772,0
68.929,0.0003738,0
68.93,0.00019756,0
68.93,-3.5248e-06,0
68.931,-0.00018346,0
68.932,-0.00033452,0
68.932,-0.00045168,0
68.933,-0.00054568,0
68.933,-0.00060627,0
68.934,-0.00059989,0
68.934,-0.00058076,0
68.935,-0.00058882,0
68.935,-0.00059889,0
68.936,-0.00058949,0
68.936,-0.00055004,0
68.937,-0.0004735,0
68.937,-0.00038202,0
68.938,-0.00029474,0
68.938,-0.00020578,0
68.939,-0.00011598,0
68.939,-4.8173e-05,0
68.94,-2.0142e-06,0
68.94,4.8844e-05,0
68.941,0.00011397,0
68.941,0.0001791,0
68.942,0.00025496,0
68.942,0.00034057,0
68.943,0.0003973,0
68.943,0.00039008,0
68.944,0.0003409,0
68.945,0.00030465,0
68.945,0.00028719,0
68.946,0.00024892,0
68.946,0.00016432,0
68.947,7.0665e-05,0
68.947,-3.357e-07,0
68.948,-6.6133e-05,0
68.948,-0.00012992,0
68.949,-0.00017675,0
68.949,-0.00018413,0
68.95,-0.00011716,0
68.95,1.5106e-06,0
68.951,9.8192e-05,0
68.951,0.00014401,0
68.952,0.00016416,0
68.952,0.00015879,0
68.953,9.8527e-05,0
68.953,5.2033e-06,0
68.954,-4.4816e-05,0
68.954,-2.1317e-05,0
68.955,2.6856e-05,0
68.955,3.3066e-05,0
68.956,-1.6953e-05,0
68.956,-7.335e-05,0
68.957,-8.4092e-05,0
68.957,-3.4745e-05,0
68.958,6.3279e-05,0
68.959,0.00023616,0
68.959,0.00058663,0
68.96,0.0010277,0
68.96,0.001254,0
68.961,0.0011667,0
68.961,0.00097202,0
68.962,0.00083908,0
68.962,0.00072226,0
68.963,0.00053695,0
68.963,0.00025664,0
68.964,-6.3447e-05,0
68.964,-0.00032932,0
68.965,-0.00050623,0
68.965,-0.00062792,0
68.966,-0.00073417,0
68.966,-0.00081491,0
68.967,-0.00087198,0
68.967,-0.00092837,0
68.968,-0.00093962,0
68.968,-0.00083958,0
68.969,-0.00065193,0
68.969,-0.00044312,0
68.97,-0.00026,0
68.97,-0.00015593,0
68.971,-0.00015727,0
68.972,-0.00022055,0
68.972,-0.00025815,0
68.973,-0.00023784,0
68.973,-0.00019873,0
68.974,-0.00017809,0
68.974,-0.0001519,0
68.975,-8.6442e-05,0
68.975,-1.3428e-06,0
68.976,7.6707e-05,0
68.976,0.00010793,0
68.977,6.6972e-05,0
68.977,-1.9471e-05,0
68.978,-9.7688e-05,0
68.978,-0.00011196,0
68.979,-4.683e-05,0
68.979,6.1265e-05,0
68.98,0.00015106,0
68.98,0.00016533,0
68.981,0.00010759,0
68.981,4.8173e-05,0
68.982,3.4409e-05,0
68.982,5.388e-05,0
68.983,7.5029e-05,0
68.983,8.5771e-05,0
68.984,9.2988e-05,0
68.984,0.00011179,0
68.985,0.00014788,0
68.986,0.00020192,0
68.986,0.00025563,0
68.987,0.00028115,0
68.987,0.00026806,0
68.988,0.0002224,0
68.988,0.00015895,0
68.989,9.5171e-05,0
68.989,7.1672e-05,0
68.99,0.0001044,0
68.99,0.00019303,0
68.991,0.00031606,0
68.991,0.00041274,0
68.992,0.00053628,0
68.992,0.00075851,0
68.993,0.0010378,0
68.993,0.0012654,0
68.994,0.0013171,0
68.994,0.0012053,0
68.995,0.0010264,0
68.995,0.00083085,0
68.996,0.00063548,0
68.996,0.00042583,0
68.997,0.00018044,0
68.997,-9.1478e-05,0
68.998,-0.00031606,0
68.999,-0.00043137,0
68.999,-0.00048827,0
69,-0.00059687,0
69,-0.00079577,0
69.001,-0.0010469,0
69.001,-0.0012938,0
69.002,-0.0014717,0
69.002,-0.001521,0
69.003,-0.0014522,0
69.003,-0.0013126,0
69.004,-0.0011373,0
69.004,-0.00095657,0
69.005,-0.00078,0
69.005,-0.00057908,0
69.006,-0.00034711,0
69.006,-0.00012068,0
69.007,6.865e-05,0
69.007,0.00020394,0
69.008,0.00029525,0
69.008,0.00037179,0
69.009,0.00046712,0
69.009,0.0005863,0
69.01,0.00070446,0
69.01,0.00081592,0
69.011,0.00094046,0
69.011,0.0011519,0
69.012,0.0013987,0
69.013,0.0015239,0
69.013,0.0014178,0
69.014,0.0010902,0
69.014,0.00067358,0
69.015,0.00024993,0
69.015,-0.00013663,0
69.016,-0.00046007,0
69.016,-0.00071269,0
69.017,-0.00090823,0
69.017,-0.0010726,0
69.018,-0.0011743,0
69.018,-0.0011884,0
69.019,-0.0011427,0
69.019,-0.0010387,0
69.02,-0.00089665,0
69.02,-0.00075901,0
69.021,-0.00062943,0
69.021,-0.00048072,0
69.022,-0.00030431,0
69.022,-0.00012673,0
69.023,2.9709e-05,0
69.023,0.00016164,0
69.024,0.00029323,0
69.024,0.00043473,0
69.025,0.00054769,0
69.025,0.00060678,0
69.026,0.00060409,0
69.027,0.00055843,0
69.027,0.00049935,0
69.028,0.00044363,0
69.028,0.00038891,0
69.029,0.00032009,0
69.029,0.00023247,0
69.03,0.00012471,0
69.03,1.4939e-05,0
69.031,-6.0929e-05,0
69.031,-8.3589e-05,0
69.032,-6.3615e-05,0
69.032,-9.9031e-06,0
69.033,6.9657e-05,0
69.033,0.00015727,0
69.034,0.00022408,0
69.034,0.00025362,0
69.035,0.00025362,0
69.035,0.00022676,0
69.036,0.00018296,0
69.036,0.00014183,0
69.037,0.00011917,0
69.037,0.00016097,0
69.038,0.00032479,0
69.038,0.00057186,0
69.039,0.00078402,0
69.04,0.00089413,0
69.04,0.00089212,0
69.041,0.00078738,0
69.041,0.00059167,0
69.042,0.0003362,0
69.042,8.0232e-05,0
69.043,-0.00014301,0
69.043,-0.00033788,0
69.044,-0.00046528,0
69.044,-0.00045957,0
69.045,-0.00038824,0
69.045,-0.00038337,0
69.046,-0.0004547,0
69.046,-0.00048727,0
69.047,-0.00043104,0
69.047,-0.00036356,0
69.048,-0.00031707,0
69.048,-0.00026923,0
69.049,-0.00021283,0
69.049,-0.00012874,0
69.05,-4.3641e-06,0
69.05,0.00012186,0
69.051,0.00019353,0
69.051,0.00019655,0
69.052,0.000142,0
69.052,3.1891e-05,0
69.053,-0.00010574,0
69.054,-0.00023079,0
69.054,-0.00033452,0
69.055,-0.00039562,0
69.055,-0.00040989,0
69.056,-0.00041056,0
69.056,-0.00041559,0
69.057,-0.00042063,0
69.057,-0.00039176,0
69.058,-0.00028199,0
69.058,-0.00010256,0
69.059,7.6036e-05,0
69.059,0.0001843,0
69.06,0.00021703,0
69.06,0.00020981,0
69.061,0.000189,0
69.061,0.00014636,0
69.062,7.4693e-05,0
69.062,-2.1653e-05,0
69.063,-0.00011044,0
69.063,-0.0001561,0
69.064,-0.00017037,0
69.064,-0.00017557,0
69.065,-0.00016802,0
69.065,-0.00014032,0
69.066,-9.1478e-05,0
69.067,-1.6281e-05,0
69.067,9.2149e-05,0
69.068,0.00022206,0
69.068,0.00034157,0
69.069,0.00042248,0
69.069,0.0004725,0
69.07,0.00054836,0
69.07,0.00073803,0
69.071,0.001015,0
69.071,0.0012003,0
69.072,0.0011949,0
69.072,0.0011301,0
69.073,0.0011164,0
69.073,0.0010687,0
69.074,0.00089883,0
69.074,0.00063833,0
69.075,0.00034963,0
69.075,5.8412e-05,0
69.076,-0.00021837,0
69.076,-0.00043943,0
69.077,-0.0005779,0
69.077,-0.00066519,0
69.078,-0.00078889,0
69.078,-0.00096547,0
69.079,-0.0010922,0
69.079,-0.0011194,0
69.08,-0.0011169,0
69.081,-0.0011548,0
69.081,-0.0012172,0
69.082,-0.001229,0
69.082,-0.0011326,0
69.083,-0.00092166,0
69.083,-0.00066552,0
69.084,-0.00045084,0
69.084,-0.00029609,0
69.085,-0.00018984,0
69.085,-0.00011968,0
69.086,-6.7811e-05,0
69.086,-1.8967e-05,0
69.087,4.6998e-05,0
69.087,0.00015744,0
69.088,0.00033989,0
69.088,0.00059973,0
69.089,0.0008807,0
69.089,0.00106,0
69.09,0.0010714,0
69.09,0.00096396,0
69.091,0.00084948,0
69.091,0.00078218,0
69.092,0.0007142,0
69.092,0.00062423,0
69.093,0.00054299,0
69.094,0.00048324,0
69.094,0.00042483,0
69.095,0.00033385,0
69.095,0.00021653,0
69.096,0.00010407,0
69.096,-2.0645e-05,0
69.097,-0.00018984,0
69.097,-0.0003738,0
69.098,-0.0005059,0
69.098,-0.00055961,0
69.099,-0.00055709,0
69.099,-0.00052671,0
69.1,-0.00047015,0
69.1,-0.00037699,0
69.101,-0.0002459,0
69.101,-7.6875e-05,0
69.102,7.6875e-05,0
69.102,0.00018379,0
69.103,0.00027242,0
69.103,0.00029155,0
69.104,0.00018866,0
69.104,7.2175e-06,0
69.105,-0.00015879,0
69.105,-0.00026151,0
69.106,-0.0003221,0
69.106,-0.00034711,0
69.107,-0.00033335,0
69.108,-0.00029726,0
69.108,-0.00027007,0
69.109,-0.00027124,0
69.109,-0.00028014,0
69.11,-0.0002511,0
69.11,-0.00018262,0
69.111,-0.00012203,0
69.111,-8.1071e-05,0
69.112,-9.5674e-06,0
69.112,0.0001034,0
69.113,0.00020528,0
69.113,0.00026352,0
69.114,0.00032815,0
69.114,0.00045537,0
69.115,0.00058529,0
69.115,0.00065176,0
69.116,0.00064941,0
69.116,0.0005967,0
69.117,0.00050271,0
69.117,0.00036742,0
69.118,0.00023684,0
69.118,0.0001791,0
69.119,0.00024221,0
69.119,0.00039898,0
69.12,0.00050405,0
69.121,0.00049197,0
69.121,0.00049113,0
69.122,0.00058898,0
69.122,0.00064974,0
69.123,0.00054232,0
69.123,0.00029323,0
69.124,3.357e-07,0
69.124,-0.00024674,0
69.125,-0.0004678,0
69.125,-0.00068466,0
69.126,-0.0008181,0
69.126,-0.00083639,0
69.127,-0.00080702,0
69.127,-0.00078486,0
69.128,-0.00076405,0
69.128,-0.0007001,0
69.129,-0.00059301,0
69.129,-0.00047938,0
69.13,-0.00037514,0
69.13,-0.00027947,0
69.131,-0.00020964,0
69.131,-0.00019219,0
69.132,-0.0002219,0
69.132,-0.0002506,0
69.133,-0.00023146,0
69.133,-0.0001613,0
69.134,-6.6636e-05,0
69.135,5.4383e-05,0
69.135,0.00020511,0
69.136,0.00037699,0
69.136,0.00057388,0
69.137,0.00074575,0
69.137,0.00081088,0
69.138,0.00073904,0
69.138,0.00058059,0
69.139,0.00042416,0
69.139,0.00032512,0
69.14,0.00027779,0
69.14,0.0002553,0
69.141,0.00026369,0
69.141,0.00032865,0
69.142,0.00038555,0
69.142,0.00035702,0
69.143,0.00025899,0
69.143,0.00016432,0
69.144,0.0001227,0
69.144,0.00012152,0
69.145,0.00013059,0
69.145,0.00013663,0
69.146,0.00013646,0
69.146,0.00016567,0
69.147,0.0002318,0
69.148,0.00026839,0
69.148,0.00017406,0
69.149,-6.4286e-05,0
69.149,-0.00036054,0
69.15,-0.00062406,0
69.15,-0.0008144,0
69.151,-0.00093257,0
69.151,-0.00095926,0
69.152,-0.00085771,0
69.152,-0.00068164,0
69.153,-0.00053074,0
69.153,-0.0003973,0
69.154,-0.00021334,0
69.154,2.031e-05,0
69.155,0.00017675,0
69.155,0.0001791,0
69.156,9.4499e-05,0
69.156,1.8799e-05,0
69.157,-7.7211e-06,0
69.157,-2.9709e-05,0
69.158,-6.3951e-05,0
69.158,-3.3738e-05,0
69.159,4.7501e-05,0
69.159,0.00010692,0
69.16,0.00013075,0
69.16,0.00014871,0
69.161,0.00018883,0
69.162,0.00028048,0
69.162,0.00044094,0
69.163,0.00066384,0
69.163,0.00091226,0
69.164,0.0010613,0
69.164,0.001017,0
69.165,0.0008374,0
69.165,0.00060678,0
69.166,0.00035702,0
69.166,0.00012303,0
69.167,-7.9728e-05,0
69.167,-0.00025614,0
69.168,-0.00042046,0
69.168,-0.00058344,0
69.169,-0.00075532,0
69.169,-0.00094113,0
69.17,-0.0010776,0
69.17,-0.0011132,0
69.171,-0.0010716,0
69.171,-0.0009611,0
69.172,-0.00081407,0
69.172,-0.00068013,0
69.173,-0.00054199,0
69.173,-0.00037447,0
69.174,-0.00020713,0
69.175,-7.7379e-05,0
69.175,1.6785e-05,0
69.176,0.00011095,0
69.176,0.00023449,0
69.177,0.00037984,0
69.177,0.00047955,0
69.178,0.00049314,0
69.178,0.00046041,0
69.179,0.00045537,0
69.179,0.00049734,0
69.18,0.00054131,0
69.18,0.00053158,0
69.181,0.00045823,0
69.181,0.00036675,0
69.182,0.00029088,0
69.182,0.00022139,0
69.183,0.00015123,0
69.183,8.3757e-05,0
69.184,3.3906e-05,0
69.184,1.326e-05,0
69.185,3.8605e-06,0
69.185,-1.8128e-05,0
69.186,-4.1794e-05,0
69.186,-3.592e-05,0
69.187,1.8463e-06,0
69.188,4.7501e-05,0
69.188,9.8527e-05,0
69.189,0.00016718,0
69.189,0.0002318,0
69.19,0.00025463,0
69.19,0.00024187,0
69.191,0.00022542,0
69.191,0.00024741,0
69.192,0.00033956,0
69.192,0.00045907,0
69.193,0.00051681,0
69.193,0.00051882,0
69.194,0.00059234,0
69.194,0.00080383,0
69.195,0.0010499,0
69.195,0.0011838,0
69.196,0.0011365,0
69.196,0.0009183,0
69.197,0.0006108,0
69.197,0.00034191,0
69.198,0.00015241,0
69.198,2.0981e-05,0
69.199,-0.00010222,0
69.199,-0.0002939,0
69.2,-0.00054417,0
69.2,-0.00077244,0
69.201,-0.00093039,0
69.202,-0.0010004,0
69.202,-0.001015,0
69.203,-0.0009977,0
69.203,-0.00095775,0
69.204,-0.00092351,0
69.204,-0.00090555,0
69.205,-0.0008614,0
69.205,-0.00078335,0
69.206,-0.00071386,0
69.206,-0.00064236,0
69.207,-0.00054618,0
69.207,-0.00045084,0
69.208,-0.00038286,0
69.208,-0.00034275,0
69.209,-0.00029155,0
69.209,-0.0001655,0
69.21,1.9638e-05,0
69.21,0.00016869,0
69.211,0.00025765,0
69.211,0.00038119,0
69.212,0.00055743,0
69.212,0.0006766,0
69.213,0.00066804,0
69.213,0.00057052,0
69.214,0.00044732,0
69.215,0.00032747,0
69.215,0.00019387,0
69.216,4.0787e-05,0
69.216,-8.4764e-05,0
69.217,-0.00013663,0
69.217,-0.00011279,0
69.218,-5.6565e-05,0
69.218,-4.5823e-05,0
69.219,-9.9031e-05,0
69.219,-0.00017557,0
69.22,-0.00023348,0
69.22,-0.00024422,0
69.221,-0.00019823,0
69.221,-0.00013109,0
69.222,-8.9632e-05,0
69.222,-8.4092e-05,0
69.223,-8.1407e-05,0
69.223,-4.1459e-05,0
69.224,5.4383e-05,0
69.224,0.00022055,0
69.225,0.00043523,0
69.225,0.00065713,0
69.226,0.00089531,0
69.226,0.0011332,0
69.227,0.0012661,0
69.227,0.001203,0
69.228,0.00098544,0
69.229,0.00070144,0
69.229,0.00039193,0
69.23,6.8315e-05,0
69.23,-0.00027192,0
69.231,-0.00057656,0
69.231,-0.00076187,0
69.232,-0.00083169,0
69.232,-0.00083992,0
69.233,-0.00080551,0
69.233,-0.00075247,0
69.234,-0.00071185,0
69.234,-0.00065898,0
69.235,-0.00054047,0
69.235,-0.00035836,0
69.236,-0.00017087,0
69.236,-3.9109e-05,0
69.237,2.1149e-05,0
69.237,4.2802e-05,0
69.238,8.2078e-05,0
69.238,0.00017221,0
69.239,0.00029458,0
69.239,0.00039713,0
69.24,0.0004359,0
69.24,0.0004255,0
69.241,0.00044027,0
69.242,0.00053695,0
69.242,0.0006578,0
69.243,0.00069104,0
69.243,0.00059268,0
69.244,0.00040804,0
69.244,0.00022408,0
69.245,8.1575e-05,0
69.245,-4.7333e-05,0
69.246,-0.00015912,0
69.246,-0.00023986,0
69.247,-0.00030767,0
69.247,-0.00036742,0
69.248,-0.00041425,0
69.248,-0.00043859,0
69.249,-0.00044698,0
69.249,-0.00046662,0
69.25,-0.00048139,0
69.25,-0.00044514,0
69.251,-0.00033637,0
69.251,-0.00019454,0
69.252,-6.5461e-05,0
69.252,4.2802e-05,0
69.253,0.00012471,0
69.253,0.00017708,0
69.254,0.00019924,0
69.254,0.00018228,0
69.255,0.00014116,0
69.256,0.00010826,0
69.256,0.00010155,0
69.257,0.00011363,0
69.257,0.0001415,0
69.258,0.00019554,0
69.258,0.00025211,0
69.259,0.00028719,0
69.259,0.00030834,0
69.26,0.00033016,0
69.26,0.00033452,0
69.261,0.00028585,0
69.261,0.00019924,0
69.262,0.00012488,0
69.262,8.275e-05,0
69.263,4.8173e-05,0
69.263,1.2589e-05,0
69.264,1.6785e-06,0
69.264,2.7695e-05,0
69.265,6.9154e-05,0
69.265,9.752e-05,0
69.266,0.00011716,0
69.266,0.00013629,0
69.267,0.00017406,0
69.267,0.00027443,0
69.268,0.00042147,0
69.269,0.0005393,0
69.269,0.0005826,0
69.27,0.00058177,0
69.27,0.00056381,0
69.271,0.00048844,0
69.271,0.00031505,0
69.272,8.4428e-05,0
69.272,-0.0001514,0
69.273,-0.00036205,0
69.273,-0.00052016,0
69.274,-0.00060761,0
69.274,-0.00062037,0
69.275,-0.00059117,0
69.275,-0.0005586,0
69.276,-0.00049482,0
69.276,-0.00035987,0
69.277,-0.00017658,0
69.277,-1.6953e-05,0
69.278,5.0355e-05,0
69.278,2.1317e-05,0
69.279,-6.9154e-05,0
69.279,-0.00019353,0
69.28,-0.00031724,0
69.28,-0.00040284,0
69.281,-0.00044312,0
69.281,-0.00044665,0
69.282,-0.00042969,0
69.283,-0.00040116,0
69.283,-0.0003738,0
69.284,-0.00036323,0
69.284,-0.00036725,0
69.285,-0.00036507,0
69.285,-0.00034795,0
69.286,-0.00029609,0
69.286,-0.00019554,0
69.287,-7.5364e-05,0
69.287,3.4409e-05,0
69.288,0.00013394,0
69.288,0.00024154,0
69.289,0.00036776,0
69.289,0.00046142,0
69.29,0.00046914,0
69.29,0.00042617,0
69.291,0.0004067,0
69.291,0.00041811,0
69.292,0.00040536,0
69.292,0.00033402,0
69.293,0.00022878,0
69.293,0.00015593,0
69.294,0.00015492,0
69.294,0.00016902,0
69.295,0.00016617,0
69.296,0.00018816,0
69.296,0.00024623,0
69.297,0.00026503,0
69.297,0.00020494,0
69.298,0.00011968,0
69.298,5.6901e-05,0
69.299,3.6927e-05,0
69.299,6.2272e-05,0
69.3,9.6513e-05,0
69.3,0.0001227,0
69.301,0.00016298,0
69.301,0.00026067,0
69.302,0.00036776,0
69.302,0.00037481,0
69.303,0.0002845,0
69.303,0.00019857,0
69.304,0.00016667,0
69.304,0.00013411,0
69.305,6.1601e-05,0
69.305,-3.5248e-05,0
69.306,-0.00015291,0
69.306,-0.00029693,0
69.307,-0.00045068,0
69.307,-0.00057505,0
69.308,-0.00064387,0
69.308,-0.00065595,0
69.309,-0.0006103,0
69.31,-0.00051865,0
69.31,-0.00038756,0
69.311,-0.00023751,0
69.311,-0.00012874,0
69.312,-9.0303e-05,0
69.312,-8.8792e-05,0
69.313,-8.7617e-05,0
69.313,-7.3518e-05,0
69.314,-4.3977e-05,0
69.314,-5.0355e-07,0
69.315,5.6565e-05,0
69.315,0.00011749,0
69.316,0.00018312,0
69.316,0.00028014,0
69.317,0.00041425,0
69.317,0.00054551,0
69.318,0.00064504,0
69.318,0.00069993,0
69.319,0.00068365,0
69.319,0.0006014,0
69.32,0.00048324,0
69.32,0.00035769,0
69.321,0.0002182,0
69.321,5.9251e-05,0
69.322,-9.5842e-05,0
69.323,-0.00023046,0
69.323,-0.00034308,0
69.324,-0.00042734,0
69.324,-0.00046259,0
69.325,-0.0004255,0
69.325,-0.00033872,0
69.326,-0.00025933,0
69.326,-0.00021233,0
69.327,-0.00018413,0
69.327,-0.0001556,0
69.328,-0.00011582,0
69.328,-6.7475e-05,0
69.329,-2.3667e-05,0
69.329,4.8676e-06,0
69.33,2.4506e-05,0
69.33,3.8605e-05,0
69.331,3.9948e-05,0
69.331,3.1556e-05,0
69.332,2.2492e-05,0
69.332,2.1317e-05,0
69.333,4.7333e-05,0
69.333,0.00011968,0
69.334,0.00020998,0
69.334,0.00028853,0
69.335,0.00038756,0
69.335,0.00053158,0
69.336,0.00071688,0
69.337,0.00086929,0
69.337,0.00092032,0
69.338,0.0008797,0
69.338,0.00076522,0
69.339,0.00057455,0
69.339,0.00034527,0
69.34,0.0001227,0
69.34,-6.5629e-05,0
69.341,-0.00020377,0
69.341,-0.00028518,0
69.342,-0.00031908,0
69.342,-0.00034006,0
69.343,-0.00039445,0
69.343,-0.00048257,0
69.344,-0.00056313,0
69.344,-0.00060594,0
69.345,-0.00061685,0
69.345,-0.00061265,0
69.346,-0.00059486,0
69.346,-0.00056062,0
69.347,-0.00051328,0
69.347,-0.00046075,0
69.348,-0.00040468,0
69.348,-0.00032815,0
69.349,-0.00023717,0
69.35,-0.00014318,0
69.35,-5.4215e-05,0
69.351,1.5274e-05,0
69.351,6.6133e-05,0
69.352,9.9199e-05,0
69.352,0.00011766,0
69.353,0.00014385,0
69.353,0.00020175,0
69.354,0.00027376,0
69.354,0.00033553,0
69.355,0.0003597,0
69.355,0.00035131,0
69.356,0.00032613,0
69.356,0.0002882,0
69.357,0.00021736,0
69.357,0.00010692,0
69.358,2.3331e-05,0
69.358,1.8128e-05,0
69.359,3.5248e-05,0
69.359,1.5274e-05,0
69.36,-1.9806e-05,0
69.36,9.2317e-06,0
69.361,0.00012924,0
69.361,0.00026755,0
69.362,0.00034057,0
69.362,0.00034493,0
69.363,0.00037313,0
69.364,0.00050707,0
69.364,0.00070883,0
69.365,0.00083018,0
69.365,0.00074542,0
69.366,0.00052218,0
69.366,0.00030565,0
69.367,0.00014116,0
69.367,-2.8534e-06,0
69.368,-0.00012035,0
69.368,-0.00019991,0
69.369,-0.0002751,0
69.369,-0.00038471,0
69.37,-0.00051278,0
69.37,-0.00063716,0
69.371,-0.00076909,0
69.371,-0.00090974,0
69.372,-0.0010084,0
69.372,-0.00098796,0
69.373,-0.00083455,0
69.373,-0.00063749,0
69.374,-0.000473,0
69.374,-0.00034258,0
69.375,-0.00024892,0
69.375,-0.00020578,0
69.376,-0.00019554,0
69.376,-0.00019554,0
69.377,-0.00019622,0
69.378,-0.00019773,0
69.378,-0.00020024,0
69.379,-0.00019353,0
69.379,-0.00016718,0
69.38,-0.00012639,0
69.38,-6.7811e-05,0
69.381,1.5778e-05,0
69.381,0.0001034,0
69.382,0.00016902,0
69.382,0.00021065,0
69.383,0.00024036,0
69.383,0.00027108,0
69.384,0.00031673,0
69.384,0.00037783,0
69.385,0.000426,0
69.385,0.00044262,0
69.386,0.00046444,0
69.386,0.00053191,0
69.387,0.00061282,0
69.387,0.00064807,0
69.388,0.00063565,0
69.388,0.00062625,0
69.389,0.00069641,0
69.389,0.00081357,0
69.39,0.00084109,0
69.391,0.00074005,0
69.391,0.00058193,0
69.392,0.00044195,0
69.392,0.00033117,0
69.393,0.00023751,0
69.393,0.00013445,0
69.394,2.7863e-05,0
69.394,-1.4939e-05,0
69.395,4.6326e-05,0
69.395,0.00012001,0
69.396,0.00011128,0
69.396,3.6927e-05,0
69.397,-8.0232e-05,0
69.397,-0.00024439,0
69.398,-0.00042399,0
69.398,-0.00057069,0
69.399,-0.0006479,0
69.399,-0.00065998,0
69.4,-0.00063951,0
69.4,-0.00061349,0
69.401,-0.0005868,0
69.401,-0.00053863,0
69.402,-0.00046864,0
69.402,-0.00038975,0
69.403,-0.00030062,0
69.403,-0.00020293,0
69.404,-9.2317e-05,0
69.405,2.8702e-05,0
69.405,0.00012874,0
69.406,0.00018917,0
69.406,0.00023851,0
69.407,0.00029928,0
69.407,0.0003555,0
69.408,0.00037414,0
69.408,0.00035769,0
69.409,0.00034124,0
69.409,0.00031673,0
69.41,0.00024053,0
69.41,0.00011028,0
69.411,-3.3066e-05,0
69.411,-0.00011833,0
69.412,-0.00012975,0
69.412,-0.00011397,0
69.413,-8.8121e-05,0
69.413,-6.5629e-05,0
69.414,-7.4189e-05,0
69.414,-0.00011632,0
69.415,-0.00016902,0
69.415,-0.0001942,0
69.416,-0.00018917,0
69.416,-0.00018027,0
69.417,-0.00015459,0
69.418,-8.1071e-05,0
69.418,5.4215e-05,0
69.419,0.00026537,0
69.419,0.00048861,0
69.42,0.00061483,0
69.42,0.00062423,0
69.421,0.00060073,0
69.421,0.00058378,0
69.422,0.00055911,0
69.422,0.00053762,0
69.423,0.00050455,0
69.423,0.0004208,0
69.424,0.00027041,0
69.424,5.9586e-05,0
69.425,-0.0001613,0
69.425,-0.00034141,0
69.426,-0.00047317,0
69.426,-0.00057102,0
69.427,-0.00064538,0
69.427,-0.00069171,0
69.428,-0.00068986,0
69.428,-0.00063313,0
69.429,-0.00056196,0
69.429,-0.0005059,0
69.43,-0.00045655,0
69.43,-0.00039915,0
69.431,-0.00032848,0
69.432,-0.00024875,0
69.432,-0.00017322,0
69.433,-0.0001138,0
69.433,-6.4958e-05,0
69.434,-1.4267e-05,0
69.434,4.6159e-05,0
69.435,0.00012941,0
69.435,0.00021854,0
69.436,0.00026218,0
69.436,0.00026436,0
69.437,0.00028719,0
69.437,0.00033889,0
69.438,0.0003649,0
69.438,0.00033553,0
69.439,0.00027645,0
69.439,0.00020511,0
69.44,0.00012052,0
69.44,3.1724e-05,0
69.441,-2.4842e-05,0
69.441,-2.3835e-05,0
69.442,3.0716e-05,0
69.442,0.00011934,0
69.443,0.00021804,0
69.443,0.00030028,0
69.444,0.00039159,0
69.445,0.00049599,0
69.445,0.00056901,0
69.446,0.00057589,0
69.446,0.00054702,0
69.447,0.00049918,0
69.447,0.00042869,0
69.448,0.00029793,0
69.448,7.4022e-05,0
69.449,-0.0001754,0
69.449,-0.00035315,0
69.45,-0.00045286,0
69.45,-0.00050069,0
69.451,-0.00051345,0
69.451,-0.00048324,0
69.452,-0.00041828,0
69.452,-0.00037615,0
69.453,-0.00037917,0
69.453,-0.00038941,0
69.454,-0.00037195,0
69.454,-0.00033301,0
69.455,-0.00031203,0
69.455,-0.00030968,0
69.456,-0.0002751,0
69.456,-0.00019974,0
69.457,-0.00012136,0
69.457,-2.7359e-05,0
69.458,0.00013814,0
69.459,0.00039562,0
69.459,0.00070278,0
69.46,0.0010042,0
69.46,0.0011949,0
69.461,0.0011728,0
69.461,0.00095389,0
69.462,0.00066989,0
69.462,0.00040183,0
69.463,0.00015207,0
69.463,-8.0735e-05,0
69.464,-0.0002652,0
69.464,-0.00037447,0
69.465,-0.00045353,0
69.465,-0.00053762,0
69.466,-0.00059872,0
69.466,-0.00062658,0
69.467,-0.00063749,0
69.467,-0.00061886,0
69.468,-0.00058529,0
69.468,-0.00057321,0
69.469,-0.00057069,0
69.469,-0.00053779,0
69.47,-0.000449,0
69.47,-0.00032949,0
69.471,-0.00022475,0
69.472,-0.00016265,0
69.472,-0.00013176,0
69.473,-0.00010054,0
69.473,-5.2369e-05,0
69.474,5.2033e-06,0
69.474,6.009e-05,0
69.475,0.00011363,0
69.475,0.0001707,0
69.476,0.00023667,0
69.476,0.00033855,0
69.477,0.00047149,0
69.477,0.00056985,0
69.478,0.00060543,0
69.478,0.00061886,0
69.479,0.00062692,0
69.479,0.00059973,0
69.48,0.00051546,0
69.48,0.00039663,0
69.481,0.00026403,0
69.481,0.00013008,0
69.482,1.4603e-05,0
69.482,-6.7308e-05,0
69.483,-0.00012186,0
69.483,-0.00016332,0
69.484,-0.00019487,0
69.484,-0.00021384,0
69.485,-0.00021669,0
69.486,-0.00019387,0
69.486,-0.00013814,0
69.487,-6.3279e-05,0
69.487,3.1891e-06,0
69.488,4.4144e-05,0
69.488,6.6972e-05,0
69.489,8.2414e-05,0
69.489,9.0471e-05,0
69.49,8.9632e-05,0
69.49,8.9128e-05,0
69.491,9.9199e-05,0
69.491,0.0001185,0
69.492,0.00015157,0
69.492,0.0002271,0
69.493,0.00039495,0
69.493,0.00067559,0
69.494,0.00095557,0
69.494,0.0010848,0
69.495,0.0010338,0
69.495,0.00091629,0
69.496,0.00081289,0
69.496,0.000733,0
69.497,0.00061953,0
69.497,0.00040133,0
69.498,0.00011095,0
69.499,-0.00017708,0
69.499,-0.00041358,0
69.5,-0.00060476,0
69.5,-0.0007622,0
69.501,-0.0008844,0
69.501,-0.00097453,0
69.502,-0.0010178,0
69.502,-0.00099837,0
69.503,-0.00092284,0
69.503,-0.00077278,0
69.504,-0.00055424,0
69.504,-0.00033402,0
69.505,-0.00016751,0
69.505,-7.7714e-05,0
69.506,-6.3951e-05,0
69.506,-9.9535e-05,0
69.507,-0.0001321,0
69.507,-0.00013344,0
69.508,-9.9199e-05,0
69.508,-8.2246e-06,0
69.509,0.00012068,0
69.509,0.0002125,0
69.51,0.00022542,0
69.51,0.00020713,0
69.511,0.00021199,0
69.511,0.00022643,0
69.512,0.00019387,0
69.513,0.0001138,0
69.513,2.5345e-05,0
69.514,-7.9057e-05,0
69.514,-0.00020159,0
69.515,-0.00030884,0
69.515,-0.0003743,0
69.516,-0.0003921,0
69.516,-0.00038035,0
69.517,-0.00036172,0
69.517,-0.00033771,0
69.518,-0.00029541,0
69.518,-0.00022744,0
69.519,-0.00015828,0
69.519,-0.00011128,0
69.52,-6.2776e-05,0
69.52,2.266e-05,0
69.521,0.00014989,0
69.521,0.00032882,0
69.522,0.00055407,0
69.522,0.000734,0
69.523,0.000804,0
69.523,0.00080517,0
69.524,0.00075616,0
69.524,0.0006484,0
69.525,0.00053141,0
69.526,0.00046007,0
69.526,0.00041257,0
69.527,0.00030028,0
69.527,0.0001091,0
69.528,-9.9702e-05,0
69.528,-0.00027779,0
69.529,-0.00042567,0
69.529,-0.00056733,0
69.53,-0.00068885,0
69.53,-0.00075465,0
69.531,-0.00075448,0
69.531,-0.00069137,0
69.532,-0.00057774,0
69.532,-0.00043423,0
69.533,-0.00029357,0
69.533,-0.00020427,0
69.534,-0.00016416,0
69.534,-0.00012673,0
69.535,-7.4022e-05,0
69.535,-2.3331e-05,0
69.536,1.8631e-05,0
69.536,6.3951e-05,0
69.537,0.00011766,0
69.537,0.00017574,0
69.538,0.00025429,0
69.538,0.00038891,0
69.539,0.00054501,0
69.54,0.00065042,0
69.54,0.00070144,0
69.541,0.0007194,0
69.541,0.000686,0
69.542,0.00058529,0
69.542,0.00042583,0
69.543,0.00025177,0
69.543,0.00011498,0
69.544,3.592e-05,0
69.544,-4.5319e-06,0
69.545,-2.7695e-05,0
69.545,-3.8102e-05,0
69.546,-4.8676e-05,0
69.546,-6.9657e-05,0
69.547,-9.0471e-05,0
69.547,-0.00010507,0
69.548,-0.00012001,0
69.548,-0.0001232,0
69.549,-9.4163e-05,0
69.549,9.7353e-06,0
69.55,0.00021099,0
69.55,0.00042382,0
69.551,0.00051865,0
69.551,0.00050137,0
69.552,0.00047787,0
69.553,0.00047787,0
69.553,0.0004208,0
69.554,0.00028988,0
69.554,0.00018061,0
69.555,0.00010994,0
69.555,1.8631e-05,0
69.556,-9.4163e-05,0
69.556,-0.00017322,0
69.557,-0.00018782,0
69.557,-0.00018463,0
69.558,-0.00020259,0
69.558,-0.00022055,0
69.559,-0.00022542,0
69.559,-0.00023432,0
69.56,-0.00027007,0
69.56,-0.00034611,0
69.561,-0.00042734,0
69.561,-0.00046142,0
69.562,-0.00044195,0
69.562,-0.00041173,0
69.563,-0.00040737,0
69.563,-0.00041643,0
69.564,-0.00040233,0
69.564,-0.00034325,0
69.565,-0.0002647,0
69.566,-0.00020545,0
69.566,-0.00015593,0
69.567,-7.4693e-05,0
69.567,2.8702e-05,0
69.568,8.9296e-05,0
69.568,8.6778e-05,0
69.569,7.1504e-05,0
69.569,9.0471e-05,0
69.57,0.00014855,0
69.57,0.00021971,0
69.571,0.00026671,0
69.571,0.00027359,0
69.572,0.00026302,0
69.572,0.00025127,0
69.573,0.00023062,0
69.573,0.00018849,0
69.574,0.00013747,0
69.574,0.000118,0
69.575,0.00018111,0
69.575,0.00034896,0
69.576,0.00057253,0
69.576,0.00075717,0
69.577,0.00083505,0
69.577,0.00082834,0
69.578,0.00080148,0
69.578,0.0007142,0
69.579,0.00051647,0
69.58,0.00025228,0
69.58,-2.501e-05,0
69.581,-0.00029139,0
69.581,-0.00052503,0
69.582,-0.00069674,0
69.582,-0.00080803,0
69.583,-0.00089397,0
69.583,-0.000946,0
69.584,-0.00093458,0
69.584,-0.0008802,0
69.585,-0.00079863,0
69.585,-0.00067945,0
69.586,-0.00053628,0
69.586,-0.00039411,0
69.587,-0.00026235,0
69.587,-0.00014183,0
69.588,-4.3137e-05,0
69.588,2.6184e-05,0
69.589,7.1672e-05,0
69.589,0.0001133,0
69.59,0.00019051,0
69.59,0.00029038,0
69.591,0.00034862,0
69.591,0.00034359,0
69.592,0.00031337,0
69.593,0.00028685,0
69.593,0.0002647,0
69.594,0.00023163,0
69.594,0.00018782,0
69.595,0.00015459,0
69.595,0.00014049,0
69.596,0.00013361,0
69.596,0.00013008,0
69.597,0.00013075,0
69.597,0.00013143,0
69.598,0.0001227,0
69.598,9.7688e-05,0
69.599,6.6636e-05,0
69.599,4.1459e-05,0
69.6,2.6352e-05,0
69.6,2.5849e-05,0
69.601,4.1459e-05,0
69.601,6.4958e-05,0
69.602,9.0806e-05,0
69.602,0.00011766,0
69.603,0.00014888,0
69.603,0.00019521,0
69.604,0.00023952,0
69.604,0.00025933,0
69.605,0.0002506,0
69.605,0.00023281,0
69.606,0.00022274,0
69.607,0.00022223,0
69.607,0.0002219,0
69.608,0.00021837,0
69.608,0.00022542,0
69.609,0.00023348,0
69.609,0.00020394,0
69.61,0.0001232,0
69.61,1.3596e-05,0
69.611,-8.8121e-05,0
69.611,-0.00015694,0
69.612,-0.00019286,0
69.612,-0.00021183,0
69.613,-0.00020679,0
69.613,-0.00015425,0
69.614,-8.3757e-05,0
69.614,-3.978e-05,0
69.615,-3.2395e-05,0
69.615,-2.0478e-05,0
69.616,0.00010323,0
69.616,0.00036776,0
69.617,0.00065579,0
69.617,0.00087332,0
69.618,0.00096228,0
69.618,0.00089581,0
69.619,0.00073837,0
69.62,0.0005769,0
69.62,0.00040183,0
69.621,0.00014083,0
69.621,-0.0002031,0
69.622,-0.00053829,0
69.622,-0.00078016,0
69.623,-0.00089631,0
69.623,-0.00089732,0
69.624,-0.00083371,0
69.624,-0.00075666,0
69.625,-0.00068852,0
69.625,-0.00058227,0
69.626,-0.00042097,0
69.626,-0.00027477,0
69.627,-0.00021418,0
69.627,-0.00024775,0
69.628,-0.00033822,0
69.628,-0.00044329,0
69.629,-0.0005398,0
69.629,-0.00059335,0
69.63,-0.00057942,0
69.63,-0.00051026,0
69.631,-0.00039881,0
69.631,-0.00024942,0
69.632,-0.00010373,0
69.632,-1.5106e-06,0
69.633,7.6371e-05,0
69.634,0.00016365,0
69.634,0.00023247,0
69.635,0.00024254,0
69.635,0.00019806,0
69.636,0.00013814,0
69.636,0.00011531,0
69.637,0.0001373,0
69.637,0.0001697,0
69.638,0.00018312,0
69.638,0.00017876,0
69.639,0.00018212,0
69.639,0.00020276,0
69.64,0.00022878,0
69.64,0.00025597,0
69.641,0.00030062,0
69.641,0.00037481,0
69.642,0.00045571,0
69.642,0.00049902,0
69.643,0.00046981,0
69.643,0.00036339,0
69.644,0.00020998,0
69.644,5.1026e-05,0
69.645,-8.3421e-05,0
69.645,-0.00017708,0
69.646,-0.00022609,0
69.647,-0.00023297,0
69.647,-0.00021317,0
69.648,-0.00018614,0
69.648,-0.00015274,0
69.649,-0.00010826,0
69.649,-5.4215e-05,0
69.65,2.1317e-05,0
69.65,0.00016097,0
69.651,0.00036272,0
69.651,0.00056851,0
69.652,0.00069808,0
69.652,0.0007095,0
69.653,0.0006249,0
69.653,0.00050858,0
69.654,0.0004114,0
69.654,0.00033553,0
69.655,0.0002788,0
69.655,0.00026084,0
69.656,0.00026705,0
69.656,0.00024221,0
69.657,0.00017523,0
69.657,7.7379e-05,0
69.658,-4.3137e-05,0
69.658,-0.00017423,0
69.659,-0.00029978,0
69.659,-0.00040737,0
69.66,-0.00049331,0
69.661,-0.00055105,0
69.661,-0.00058042,0
69.662,-0.00059519,0
69.662,-0.00059821,0
69.663,-0.00058395,0
69.663,-0.00054551,0
69.664,-0.00047199,0
69.664,-0.00036423,0
69.665,-0.00024707,0
69.665,-0.00015492,0
69.666,-9.5003e-05,0
69.666,-5.2537e-05,0
69.667,-1.1917e-05,0
69.667,4.2802e-05,0
69.668,0.0001039,0
69.668,0.0001603,0
69.669,0.00022643,0
69.669,0.00033687,0
69.67,0.00049801,0
69.67,0.00065377,0
69.671,0.00077697,0
69.671,0.00090353,0
69.672,0.0010257,0
69.672,0.0010674,0
69.673,0.00094516,0
69.674,0.00069808,0
69.674,0.00042483,0
69.675,0.00013545,0
69.675,-0.00017574,0
69.676,-0.00043188,0
69.676,-0.0006004,0
69.677,-0.00069003,0
69.677,-0.00072746,0
69.678,-0.00074525,0
69.678,-0.0007429,0
69.679,-0.0007194,0
69.679,-0.00067375,0
69.68,-0.00060157,0
69.68,-0.00051882,0
69.681,-0.0004307,0
69.681,-0.00033922,0
69.682,-0.00025278,0
69.682,-0.00017591,0
69.683,-0.00010776,0
69.683,-4.448e-05,0
69.684,1.5442e-05,0
69.684,6.3279e-05,0
69.685,9.8527e-05,0
69.685,0.00012639,0
69.686,0.00014737,0
69.686,0.00016231,0
69.687,0.000189,0
69.688,0.0002454,0
69.688,0.00030767,0
69.689,0.00034963,0
69.689,0.00037548,0
69.69,0.0003973,0
69.69,0.00040569,0
69.691,0.00038773,0
69.691,0.00035836,0
69.692,0.00033587,0
69.692,0.00031673,0
69.693,0.00028887,0
69.693,0.00024338,0
69.694,0.00018715,0
69.694,0.00014536,0
69.695,0.00012186,0
69.695,0.00010222,0
69.696,7.9728e-05,0
69.696,5.4887e-05,0
69.697,1.8296e-05,0
69.697,-2.0478e-05,0
69.698,-2.5849e-05,0
69.698,6.8818e-06,0
69.699,3.743e-05,0
69.699,4.0452e-05,0
69.7,1.6617e-05,0
69.701,-2.3499e-05,0
69.701,-3.6088e-05,0
69.702,4.8173e-05,0
69.702,0.00019118,0
69.703,0.00029155,0
69.703,0.00031807,0
69.704,0.00032747,0
69.704,0.00041845,0
69.705,0.00056095,0
69.705,0.0006014,0
69.706,0.00048794,0
69.706,0.00031673,0
69.707,0.00014922,0
69.707,-4.1794e-05,0
69.708,-0.00028115,0
69.708,-0.00053544,0
69.709,-0.00074257,0
69.709,-0.00088692,0
69.71,-0.00098024,0
69.71,-0.00099736,0
69.711,-0.00092586,0
69.711,-0.00081239,0
69.712,-0.00070564,0
69.712,-0.00060879,0
69.713,-0.00051362,0
69.713,-0.00041257,0
69.714,-0.00031505,0
69.715,-0.00022542,0
69.715,-0.0001284,0
69.716,-1.3931e-05,0
69.716,9.4835e-05,0
69.717,0.00015879,0
69.717,0.0001848,0
69.718,0.00021099,0
69.718,0.00024456,0
69.719,0.00027678,0
69.719,0.00031371,0
69.72,0.00035433,0
69.72,0.00037581,0
69.721,0.00036071,0
69.721,0.00030834,0
69.722,0.00023667,0
69.722,0.00015459,0
69.723,6.6972e-05,0
69.723,-3.357e-06,0
69.724,-3.4409e-05,0
69.724,-1.5946e-05,0
69.725,3.7095e-05,0
69.725,8.2078e-05,0
69.726,9.2988e-05,0
69.726,8.8289e-05,0
69.727,8.7953e-05,0
69.728,8.9799e-05,0
69.728,9.9199e-05,0
69.729,0.00013613,0
69.729,0.00021132,0
69.73,0.0002892,0
69.73,0.0003409,0
69.731,0.00039528,0
69.731,0.00047317,0
69.732,0.00051882,0
69.732,0.0004631,0
69.733,0.00034023,0
69.733,0.00023616,0
69.734,0.00015543,0
69.734,7.4861e-05,0
69.735,1.6617e-05,0
69.735,-3.1891e-06,0
69.736,-1.8296e-05,0
69.736,-2.9374e-05,0
69.737,1.2924e-05,0
69.737,9.4499e-05,0
69.738,0.00012874,0
69.738,7.7379e-05,0
69.739,-4.3473e-05,0
69.739,-0.00019219,0
69.74,-0.00029743,0
69.74,-0.00027343,0
69.741,-0.00010608,0
69.742,0.00011531,0
69.742,0.00028031,0
69.743,0.00035215,0
69.743,0.00039663,0
69.744,0.0004547,0
69.744,0.0004725,0
69.745,0.00038723,0
69.745,0.00020192,0
69.746,-2.7024e-05,0
69.746,-0.00023415,0
69.747,-0.0004119,0
69.747,-0.00056616,0
69.748,-0.00067073,0
69.748,-0.00075163,0
69.749,-0.00082296,0
69.749,-0.00084663,0
69.75,-0.00078083,0
69.75,-0.00064068,0
69.751,-0.0004918,0
69.751,-0.00039512,0
69.752,-0.00034913,0
69.752,-0.00030582,0
69.753,-0.00023717,0
69.753,-0.00014804,0
69.754,-6.0594e-05,0
69.754,5.539e-06,0
69.755,5.2033e-05,0
69.756,0.00010994,0
69.756,0.00018212,0
69.757,0.00024472,0
69.757,0.00028887,0
69.758,0.00029625,0
69.758,0.0002553,0
69.759,0.0002078,0
69.759,0.00023046,0
69.76,0.00030784,0
69.76,0.00034997,0
69.761,0.00032613,0
69.761,0.00027745,0
69.762,0.00023449,0
69.762,0.00018296,0
69.763,8.8792e-05,0
69.763,-3.827e-05,0
69.764,-0.00015006,0
69.764,-0.00023851,0
69.765,-0.00030364,0
69.765,-0.00031354,0
69.766,-0.00027141,0
69.766,-0.0002182,0
69.767,-0.00017826,0
69.767,-0.00015795,0
69.768,-0.00014368,0
69.769,-0.00010239,0
69.769,-2.8199e-05,0
69.77,5.5894e-05,0
69.77,0.00012673,0
69.771,0.00017137,0
69.771,0.00019185,0
69.772,0.00020175,0
69.772,0.00020797,0
69.773,0.00021166,0
69.773,0.00021703,0
69.774,0.00022676,0
69.774,0.00023952,0
69.775,0.00025496,0
69.775,0.00030431,0
69.776,0.00041962,0
69.776,0.00057455,0
69.777,0.00071051,0
69.777,0.00075096,0
69.778,0.00066921,0
69.778,0.00053024,0
69.779,0.0003968,0
69.779,0.00027242,0
69.78,0.00014704,0
69.78,2.0645e-05,0
69.781,-8.5771e-05,0
69.781,-0.00015627,0
69.782,-0.00021149,0
69.783,-0.0002694,0
69.783,-0.00032445,0
69.784,-0.00036323,0
69.784,-0.00037229,0
69.785,-0.00034493,0
69.785,-0.00028098,0
69.786,-0.00019185,0
69.786,-0.0001039,0
69.787,-3.978e-05,0
69.787,-3.8605e-06,0
69.788,7.8889e-06,0
69.788,3.8605e-06,0
69.789,2.5177e-06,0
69.789,2.1149e-05,0
69.79,6.0929e-05,0
69.79,0.00011649,0
69.791,0.00020125,0
69.791,0.00036507,0
69.792,0.00059402,0
69.792,0.00077496,0
69.793,0.00082683,0
69.793,0.00081155,0
69.794,0.00084848,0
69.794,0.00092837,0
69.795,0.00094046,0
69.796,0.00080685,0
69.796,0.00056246,0
69.797,0.00025177,0
69.797,-0.00016147,0
69.798,-0.00062087,0
69.798,-0.00098729,0
69.799,-0.0011854,0
69.799,-0.0012475,0
69.8,-0.0012508,0
69.8,-0.0011904,0
69.801,-0.0010256,0
69.801,-0.00082548,0
69.802,-0.00069003,0
69.802,-0.00063816,0
69.803,-0.00061231,0
69.803,-0.00055323,0
69.804,-0.00044295,0
69.804,-0.0002981,0
69.805,-0.00012824,0
69.805,9.4163e-05,0
69.806,0.00033654,0
69.806,0.00050338,0
69.807,0.00056011,0
69.807,0.00055508,0
69.808,0.0005393,0
69.808,0.00051647,0
69.809,0.0004772,0
69.81,0.0003926,0
69.81,0.00023532,0
69.811,1.6114e-05,0
69.811,-0.00021569,0
69.812,-0.0003874,0
69.812,-0.0004725,0
69.813,-0.00050455,0
69.813,-0.00050472,0
69.814,-0.00047199,0
69.814,-0.00041173,0
69.815,-0.00032848,0
69.815,-0.00024506,0
69.816,-0.00019437,0
69.816,-0.00018497,0
69.817,-0.00019622,0
69.817,-0.00018984,0
69.818,-0.00014553,0
69.818,-7.5364e-05,0
69.819,-1.0071e-06,0
69.819,7.5868e-05,0
69.82,0.00016735,0
69.82,0.00027108,0
69.821,0.00038488,0
69.821,0.00049398,0
69.822,0.00058462,0
69.823,0.00065579,0
69.823,0.0007241,0
69.824,0.00080349,0
69.824,0.00084579,0
69.825,0.00078604,0
69.825,0.00062826,0
69.826,0.00043221,0
69.826,0.00023348,0
69.827,3.743e-05,0
69.827,-0.00013982,0
69.828,-0.00026084,0
69.828,-0.00031975,0
69.829,-0.00033603,0
69.829,-0.00031321,0
69.83,-0.00025563,0
69.83,-0.00018144,0
69.831,-0.00011783,0
69.831,-7.0665e-05,0
69.832,2.1988e-05,0
69.832,0.00022039,0
69.833,0.00043758,0
69.833,0.00056918,0
69.834,0.00063363,0
69.834,0.00069339,0
69.835,0.00072226,0
69.835,0.00065377,0
69.836,0.00046578,0
69.837,0.00021065,0
69.837,-1.2757e-05,0
69.838,-0.00012605,0
69.838,-0.00018816,0
69.839,-0.00028367,0
69.839,-0.00039243,0
69.84,-0.00046897,0
69.84,-0.00050405,0
69.841,-0.00052117,0
69.841,-0.00053997,0
69.842,-0.00053594,0
69.842,-0.00050271,0
69.843,-0.00049734,0
69.843,-0.00054702,0
69.844,-0.00058193,0
69.844,-0.00054903,0
69.845,-0.00046729,0
69.845,-0.00036138,0
69.846,-0.00024724,0
69.846,-0.00013848,0
69.847,-5.0187e-05,0
69.847,-5.0355e-07,0
69.848,1.6953e-05,0
69.848,2.6017e-05,0
69.849,4.1794e-05,0
69.85,6.6972e-05,0
69.85,0.00010692,0
69.851,0.00016231,0
69.851,0.00022274,0
69.852,0.00026336,0
69.852,0.00028232,0
69.853,0.00029793,0
69.853,0.00030867,0
69.854,0.00030935,0
69.854,0.00032009,0
69.855,0.00035164,0
69.855,0.00037917,0
69.856,0.00039226,0
69.856,0.00039998,0
69.857,0.00037783,0
69.857,0.00031606,0
69.858,0.0002412,0
69.858,0.00018514,0
69.859,0.00015325,0
69.859,0.00013512,0
69.86,9.9031e-05,0
69.86,2.9374e-05,0
69.861,-4.062e-05,0
69.861,-8.2078e-05,0
69.862,-0.00010709,0
69.862,-0.00013025,0
69.863,-0.00014015,0
69.864,-0.00012639,0
69.864,-9.3996e-05,0
69.865,-6.3111e-05,0
69.865,-4.5487e-05,0
69.866,-3.1052e-05,0
69.866,-1.2253e-05,0
69.867,3.1891e-06,0
69.867,1.1917e-05,0
69.868,1.6281e-05,0
69.868,2.182e-05,0
69.869,2.2995e-05,0
69.869,1.8631e-05,0
69.87,1.5442e-05,0
69.87,1.2924e-05,0
69.871,7.8889e-06,0
69.871,5.2033e-06,0
69.872,2.9038e-05,0
69.872,9.7856e-05,0
69.873,0.00019689,0
69.873,0.00028048,0
69.874,0.00032596,0
69.874,0.00034057,0
69.875,0.00032714,0
69.875,0.0002939,0
69.876,0.00025614,0
69.877,0.0002224,0
69.877,0.00019017,0
69.878,0.00015962,0
69.878,0.00013378,0
69.879,0.00010037,0
69.879,4.9851e-05,0
69.88,5.539e-06,0
69.88,-2.9877e-05,0
69.881,-7.2847e-05,0
69.881,-0.00012471,0
69.882,-0.00015392,0
69.882,-0.00014636,0
69.883,-0.00014922,0
69.883,-0.00018782,0
69.884,-0.00021132,0
69.884,-0.00018984,0
69.885,-0.00016013,0
69.885,-0.00011649,0
69.886,-3.4241e-05,0
69.886,3.0381e-05,0
69.887,1.4435e-05,0
69.887,-8.3589e-05,0
69.888,-0.00025043,0
69.888,-0.00043926,0
69.889,-0.00057589,0
69.889,-0.00061584,0
69.89,-0.00056532,0
69.891,-0.00045202,0
69.891,-0.00032026,0
69.892,-0.00021955,0
69.892,-0.00015325,0
69.893,-8.7785e-05,0
69.893,-1.9638e-05,0
69.894,3.743e-05,0
69.894,7.2679e-05,0
69.895,8.4932e-05,0
69.895,0.00010726,0
69.896,0.000142,0
69.896,0.0001697,0
69.897,0.0002036,0
69.897,0.00024405,0
69.898,0.00025228,0
69.898,0.00018816,0
69.899,7.2343e-05,0
69.899,-2.4506e-05,0
69.9,-2.0645e-05,0
69.9,8.1575e-05,0
69.901,0.00018379,0
69.901,0.0002271,0
69.902,0.00023449,0
69.902,0.00028081,0
69.903,0.00037011,0
69.904,0.00040536,0
69.904,0.0003644,0
69.905,0.00033285,0
69.905,0.00033822,0
69.906,0.00032126,0
69.906,0.00024019,0
69.907,0.00015291,0
69.907,0.00014939,0
69.908,0.00019638,0
69.908,0.00019504,0
69.909,0.00010088,0
69.909,-6.6972e-05,0
69.91,-0.00025446,0
69.91,-0.00041375,0
69.911,-0.00053913,0
69.911,-0.00062742,0
69.912,-0.00066401,0
69.912,-0.00066183,0
69.913,-0.00062625,0
69.913,-0.00055911,0
69.914,-0.00046444,0
69.914,-0.00035987,0
69.915,-0.00026503,0
69.915,-0.00019605,0
69.916,-0.0001603,0
69.916,-0.00013982,0
69.917,-0.00010491,0
69.918,-4.6326e-05,0
69.918,1.796e-05,0
69.919,6.3951e-05,0
69.919,8.7114e-05,0
69.92,0.00010021,0
69.92,0.00011749,0
69.921,0.00015157,0
69.921,0.00019588,0
69.922,0.00022811,0
69.922,0.00024472,0
69.923,0.00025899,0
69.923,0.00027091,0
69.924,0.00027175,0
69.924,0.0002647,0
69.925,0.00026,0
69.925,0.00027913,0
69.926,0.00035433,0
69.926,0.00048324,0
69.927,0.00061886,0
69.927,0.00069523,0
69.928,0.00070312,0
69.928,0.00069741,0
69.929,0.00069506,0
69.929,0.00063061,0
69.93,0.00046645,0
69.931,0.00028367,0
69.931,0.000166,0
69.932,8.6442e-05,0
69.932,-1.1917e-05,0
69.933,-0.00013042,0
69.933,-0.00023465,0
69.934,-0.00031875,0
69.934,-0.00040334,0
69.935,-0.00047619,0
69.935,-0.00049801,0
69.936,-0.00047468,0
69.936,-0.00044211,0
69.937,-0.00041173,0
69.937,-0.00036121,0
69.938,-0.00028098,0
69.938,-0.00019739,0
69.939,-0.00012941,0
69.939,-6.0761e-05,0
69.94,1.5946e-05,0
69.94,7.6707e-05,0
69.941,0.00011347,0
69.941,0.00013864,0
69.942,0.00015862,0
69.942,0.00017171,0
69.943,0.00018178,0
69.944,0.00021233,0
69.944,0.00026537,0
69.945,0.0003221,0
69.945,0.00035836,0
69.946,0.00035769,0
69.946,0.00034224,0
69.947,0.00036239,0
69.947,0.00038152,0
69.948,0.00031908,0
69.948,0.00018161,0
69.949,4.5151e-05,0
69.949,-4.7837e-05,0
69.95,-0.00012488,0
69.95,-0.00019974,0
69.951,-0.00025362,0
69.951,-0.00029995,0
69.952,-0.00037749,0
69.952,-0.00048139,0
69.953,-0.00053577,0
69.953,-0.00051765,0
69.954,-0.0004688,0
69.954,-0.00042567,0
69.955,-0.00039428,0
69.955,-0.000355,0
69.956,-0.00028753,0
69.956,-0.00020696,0
69.957,-0.00014536,0
69.958,-9.6178e-05,0
69.958,-2.652e-05,0
69.959,6.4958e-05,0
69.959,0.0001613,0
69.96,0.00023919,0
69.96,0.00028988,0
69.961,0.00035567,0
69.961,0.00047031,0
69.962,0.0005967,0
69.962,0.00068801,0
69.963,0.00070883,0
69.963,0.00062826,0
69.964,0.00047585,0
69.964,0.0003409,0
69.965,0.00024388,0
69.965,0.00010994,0
69.966,-8.0064e-05,0
69.966,-0.0002652,0
69.967,-0.00040938,0
69.967,-0.00052755,0
69.968,-0.00063665,0
69.968,-0.00069154,0
69.969,-0.0006573,0
69.969,-0.00056263,0
69.97,-0.00043708,0
69.971,-0.00028299,0
69.971,-0.00012287,0
69.972,1.0071e-05,0
69.972,0.00013008,0
69.973,0.00028971,0
69.973,0.00049465,0
69.974,0.00067224,0
69.974,0.00074643,0
69.975,0.00068399,0
69.975,0.00052201,0
69.976,0.00032663,0
69.976,0.00014049,0
69.977,-3.3066e-05,0
69.977,-0.00018329,0
69.978,-0.00028031,0
69.978,-0.00031438,0
69.979,-0.00031858,0
69.979,-0.00031824,0
69.98,-0.00032227,0
69.98,-0.00033687,0
69.981,-0.00036222,0
69.981,-0.00037229,0
69.982,-0.00033671,0
69.982,-0.00025228,0
69.983,-0.00015341,0
69.983,-8.275e-05,0
69.984,-5.9754e-05,0
69.985,-8.0735e-05,0
69.985,-0.00011061,0
69.986,-0.00011061,0
69.986,-7.3686e-05,0
69.987,-1.6785e-05,0
69.987,4.5823e-05,0
69.988,0.00010256,0
69.988,0.00014871,0
69.989,0.00018077,0
69.989,0.00020864,0
69.99,0.00026973,0
69.99,0.00036306,0
69.991,0.0004161,0
69.991,0.00038505,0
69.992,0.00030867,0
69.992,0.00024741,0
69.993,0.00020461,0
69.993,0.00016365,0
69.994,0.00013545,0
69.994,0.00013512,0
69.995,0.00015744,0
69.995,0.00018849,0
69.996,0.00021451,0
69.996,0.00023851,0
69.997,0.00025194,0
69.998,0.00022995,0
69.998,0.00015895,0
69.999,7.1672e-05,0
69.999,1.2589e-05,0
70,-1.7288e-05,0
70,-2.8199e-05,0
70.001,-7.8889e-06,0
70.001,3.9109e-05,0
70.002,6.865e-05,0
70.002,5.388e-05,0
70.003,3.0213e-06,0
70.003,-6.1265e-05,0
70.004,-0.00012471,0
70.004,-0.00018077,0
70.005,-0.00022123,0
70.005,-0.00022458,0
70.006,-0.00017943,0
70.006,-0.00010558,0
70.007,-4.3473e-05,0
70.007,3.8605e-06,0
70.008,5.9083e-05,0
70.008,0.00014754,0
70.009,0.00032345,0
70.009,0.00056649,0
70.01,0.0007716,0
70.01,0.00085486,0
70.011,0.00080148,0
70.012,0.0006343,0
70.012,0.00039998,0
70.013,0.00016365,0
70.013,-5.8747e-06,0
70.014,-0.00010021,0
70.014,-0.00018849,0
70.015,-0.00030196,0
70.015,-0.00039847,0
70.016,-0.00046259,0
70.016,-0.00053208,0
70.017,-0.00061685,0
70.017,-0.00065109,0
70.018,-0.00057824,0
70.018,-0.00044446,0
70.019,-0.0003023,0
70.019,-0.00017456,0
70.02,-9.3492e-05,0
70.02,-7.6707e-05,0
70.021,-0.00012908,0
70.021,-0.000237,0
70.022,-0.00036339,0
70.022,-0.00046813,0
70.023,-0.00051614,0
70.023,-0.00049834,0
70.024,-0.00042399,0
70.025,-0.00031472,0
70.025,-0.0002182,0
70.026,-0.00017154,0
70.026,-0.0001561,0
70.027,-0.00012068,0
70.027,-3.7934e-05,0
70.028,0.00010155,0
70.028,0.00027108,0
70.029,0.00043389,0
70.029,0.0005769,0
70.03,0.00068432,0
70.03,0.0007434,0
70.031,0.00071823,0
70.031,0.0006014,0
70.032,0.00044833,0
70.032,0.00031337,0
70.033,0.00020377,0
70.033,9.0135e-05,0
70.034,-3.4745e-05,0
70.034,-0.00013294,0
70.035,-0.00019118,0
70.035,-0.00024103,0
70.036,-0.00029726,0
70.036,-0.00032697,0
70.037,-0.00030028,0
70.037,-0.000236,0
70.038,-0.00015694,0
70.039,-6.3951e-05,0
70.039,2.887e-05,0
70.04,9.6345e-05,0
70.04,0.00013881,0
70.041,0.00016197,0
70.041,0.00015727,0
70.042,0.0001462,0
70.042,0.00020293,0
70.043,0.00033822,0
70.043,0.00047317,0
70.044,0.00056112,0
70.044,0.00061483,0
70.045,0.00062557,0
70.045,0.00056515,0
70.046,0.00043557,0
70.046,0.0002986,0
70.047,0.00022811,0
70.047,0.00018044,0
70.048,8.6107e-05,0
70.048,-2.7359e-05,0
70.049,-0.00010524,0
70.049,-0.00016164,0
70.05,-0.00024724,0
70.05,-0.00037128,0
70.051,-0.00047837,0
70.052,-0.00052671,0
70.052,-0.00051261,0
70.053,-0.00045537,0
70.053,-0.0003968,0
70.054,-0.00035685,0
70.054,-0.00032294,0
70.055,-0.00029491,0
70.055,-0.00027594,0
70.056,-0.00026201,0
70.056,-0.0002459,0
70.057,-0.00021065,0
70.057,-0.00014066,0
70.058,-2.4506e-05,0
70.058,0.0001133,0
70.059,0.00021669,0
70.059,0.00027645,0
70.06,0.00033251,0
70.06,0.00041677,0
70.061,0.00050657,0
70.061,0.00054232,0
70.062,0.00049868,0
70.062,0.00040066,0
70.063,0.00027712,0
70.063,0.00015224,0
70.064,3.8102e-05,0
70.064,-6.1936e-05,0
70.065,-0.00014737,0
70.066,-0.0001989,0
70.066,-0.00021166,0
70.067,-0.00021065,0
70.067,-0.00019185,0
70.068,-0.00013445,0
70.068,-7.5364e-05,0
70.069,-6.8147e-05,0
70.069,-0.00010877,0
70.07,-0.00015106,0
70.07,-0.00016365,0
70.071,-0.00016248,0
70.071,-0.00015711,0
70.072,-0.00011313,0
70.072,7.5532e-06,0
70.073,0.00019974,0
70.073,0.00038152,0
70.074,0.00051077,0
70.074,0.0006051,0
70.075,0.00068533,0
70.075,0.00073568,0
70.076,0.00076455,0
70.076,0.00075381,0
70.077,0.00065344,0
70.077,0.00047921,0
70.078,0.00027427,0
70.079,4.2634e-05,0
70.079,-0.00018497,0
70.08,-0.00036037,0
70.08,-0.00046511,0
70.081,-0.00053342,0
70.081,-0.00059889,0
70.082,-0.00066065,0
70.082,-0.00072377,0
70.083,-0.00076237,0
70.083,-0.00072544,0
70.084,-0.00060761,0
70.084,-0.00044631,0
70.085,-0.00029306,0
70.085,-0.00018631,0
70.086,-0.00013579,0
70.086,-0.00012639,0
70.087,-0.00012773,0
70.087,-0.00012505,0
70.088,-0.00012421,0
70.088,-0.00012387,0
70.089,-0.00011196,0
70.089,-8.51e-05,0
70.09,-4.2802e-05,0
70.09,2.0478e-05,0
70.091,0.00011716,0
70.091,0.00022391,0
70.092,0.00029323,0
70.093,0.00031908,0
70.093,0.00033285,0
70.094,0.00034997,0
70.094,0.00035618,0
70.095,0.00033989,0
70.095,0.00030431,0
70.096,0.0002741,0
70.096,0.00026906,0
70.097,0.00028618,0
70.097,0.00030901,0
70.098,0.00032009,0
70.098,0.00032076,0
70.099,0.00030666,0
70.099,0.00025966,0
70.1,0.00018379,0
70.1,0.0001274,0
70.101,0.00011397,0
70.101,8.6107e-05,0
70.102,5.2537e-05,0
70.102,0.00012908,0
70.103,0.00035198,0
70.103,0.00058462,0
70.104,0.00066317,0
70.104,0.00056246,0
70.105,0.00042483,0
70.106,0.00033217,0
70.106,0.0002271,0
70.107,6.63e-05,0
70.107,-0.0001044,0
70.108,-0.00023952,0
70.108,-0.00034073,0
70.109,-0.00042416,0
70.109,-0.00047736,0
70.11,-0.00049516,0
70.11,-0.00051479,0
70.111,-0.00057958,0
70.111,-0.0006719,0
70.112,-0.00072041,0
70.112,-0.00070127,0
70.113,-0.00064421,0
70.113,-0.00056548,0
70.114,-0.00045571,0
70.114,-0.00032898,0
70.115,-0.00022811,0
70.115,-0.00017507,0
70.116,-0.0001462,0
70.116,-0.00010105,0
70.117,-4.0787e-05,0
70.117,8.3925e-06,0
70.118,4.5151e-05,0
70.118,7.7043e-05,0
70.119,8.2414e-05,0
70.12,4.3305e-05,0
70.12,-1.6281e-05,0
70.121,-4.6494e-05,0
70.121,-4.1123e-05,0
70.122,-3.1388e-05,0
70.122,-2.8031e-05,0
70.123,-1.6953e-05,0
70.123,1.4603e-05,0
70.124,7.1504e-05,0
70.124,0.00015459,0
70.125,0.00026487,0
70.125,0.00039075,0
70.126,0.00048055,0
70.126,0.00050925,0
70.127,0.00050204,0
70.127,0.00047753,0
70.128,0.00041878,0
70.128,0.00032815,0
70.129,0.0002412,0
70.129,0.00017775,0
70.13,0.00012773,0
70.13,8.3085e-05,0
70.131,4.7501e-05,0
70.131,1.6953e-05,0
70.132,-2.182e-05,0
70.132,-6.8147e-05,0
70.133,-9.9031e-05,0
70.134,-0.00010172,0
70.134,-8.426e-05,0
70.135,-5.4887e-05,0
70.135,-8.2246e-06,0
70.136,4.5487e-05,0
70.136,9.4499e-05,0
70.137,0.00015962,0
70.137,0.00026218,0
70.138,0.00036373,0
70.138,0.00039998,0
70.139,0.00036104,0
70.139,0.00029424,0
70.14,0.00024456,0
70.14,0.00021384,0
70.141,0.00020797,0
70.141,0.00024858,0
70.142,0.00030045,0
70.142,0.0003127,0
70.143,0.00028182,0
70.143,0.00020394,0
70.144,9.7185e-05,0
70.144,-1.9135e-05,0
70.145,-0.00011968,0
70.145,-0.00013176,0
70.146,-5.5894e-05,0
70.147,1.0239e-05,0
70.147,5.7069e-06,0
70.148,-4.9851e-05,0
70.148,-0.0001034,0
70.149,-0.00015123,0
70.149,-0.00022928,0
70.15,-0.00034963,0
70.15,-0.00047384,0
70.151,-0.00053913,0
70.151,-0.00052839,0
70.152,-0.00047166,0
70.152,-0.00039747,0
70.153,-0.00031774,0
70.153,-0.00025328,0
70.154,-0.00022525,0
70.154,-0.00022811,0
70.155,-0.00023046,0
70.155,-0.00021166,0
70.156,-0.00018547,0
70.156,-0.00015912,0
70.157,-0.00011984,0
70.157,-6.1601e-05,0
70.158,8.2246e-06,0
70.158,7.8386e-05,0
70.159,0.00012605,0
70.159,0.0001331,0
70.16,0.00010994,0
70.161,9.6513e-05,0
70.161,0.00012656,0
70.162,0.00019168,0
70.162,0.00026537,0
70.163,0.00033217,0
70.163,0.0004213,0
70.164,0.00059905,0
70.164,0.00086258,0
70.165,0.0010657,0
70.165,0.0010996,0
70.166,0.00098209,0
70.166,0.00080198,0
70.167,0.00059301,0
70.167,0.00033738,0
70.168,6.6636e-05,0
70.168,-0.00017305,0
70.169,-0.00037632,0
70.169,-0.00055306,0
70.17,-0.00066905,0
70.17,-0.00064387,0
70.171,-0.00046159,0
70.171,-0.00027527,0
70.172,-0.00024456,0
70.172,-0.00031589,0
70.173,-0.00036155,0
70.174,-0.00035181,0
70.174,-0.00030011,0
70.175,-0.00022928,0
70.175,-0.00017255,0
70.176,-0.0001749,0
70.176,-0.00026,0
70.177,-0.00037884,0
70.177,-0.0004735,0
70.178,-0.00054568,0
70.178,-0.00060661,0
70.179,-0.00063917,0
70.179,-0.00060459,0
70.18,-0.00048928,0
70.18,-0.00031556,0
70.181,-0.00014351,0
70.181,5.2033e-06,0
70.182,0.00016567,0
70.182,0.00033452,0
70.183,0.00046427,0
70.183,0.00050539,0
70.184,0.00048324,0
70.184,0.00044262,0
70.185,0.00038505,0
70.185,0.0002892,0
70.186,0.00016835,0
70.186,5.4215e-05,0
70.187,-2.6688e-05,0
70.188,-7.7546e-05,0
70.188,-0.00011984,0
70.189,-0.00014888,0
70.189,-0.00017188,0
70.19,-0.0001989,0
70.19,-0.00020797,0
70.191,-0.00018044,0
70.191,-0.00012303,0
70.192,-4.0452e-05,0
70.192,4.6494e-05,0
70.193,0.00011263,0
70.193,0.00015727,0
70.194,0.00018984,0
70.194,0.00021602,0
70.195,0.00024154,0
70.195,0.00026973,0
70.196,0.00029659,0
70.196,0.0003028,0
70.197,0.00028182,0
70.197,0.00024221,0
70.198,0.00019118,0
70.198,0.00014821,0
70.199,0.00013478,0
70.199,0.00014704,0
70.2,0.00016231,0
70.201,0.00017238,0
70.201,0.00018984,0
70.202,0.00022626,0
70.202,0.00027913,0
70.203,0.00032412,0
70.203,0.00035164,0
70.204,0.00037884,0
70.204,0.00041845,0
70.205,0.00045823,0
70.205,0.00046847,0
70.206,0.00043557,0
70.206,0.00036373,0
70.207,0.00028048,0
70.207,0.00022206,0
70.208,0.00020226,0
70.208,0.00019857,0
70.209,0.00018413,0
70.209,0.0001697,0
70.21,0.00014737,0
70.21,7.9728e-05,0
70.211,-5.388e-05,0
70.211,-0.00021233,0
70.212,-0.00033268,0
70.212,-0.00039075,0
70.213,-0.00040066,0
70.213,-0.00037044,0
70.214,-0.00029004,0
70.215,-0.00019353,0
70.215,-0.00014922,0
70.216,-0.00016533,0
70.216,-0.00020159,0
70.217,-0.00020897,0
70.217,-0.00018799,0
70.218,-0.00011884,0
70.218,-1.5442e-05,0
70.219,5.1362e-05,0
70.219,7.7043e-05,0
70.22,0.00010692,0
70.22,0.00018111,0
70.221,0.0002553,0
70.221,0.00020645,0
70.222,1.0239e-05,0
70.222,-0.00025882,0
70.223,-0.00051312,0
70.223,-0.00067509,0
70.224,-0.00073787,0
70.224,-0.00070967,0
70.225,-0.00060661,0
70.225,-0.00049818,0
70.226,-0.00045303,0
70.226,-0.00045823,0
70.227,-0.00044396,0
70.228,-0.00037313,0
70.228,-0.00027124,0
70.229,-0.0001801,0
70.229,-0.00010155,0
70.23,-1.4939e-05,0
70.23,6.9657e-05,0
70.231,0.00012992,0
70.231,0.0001556,0
70.232,0.0001509,0
70.232,0.00014015,0
70.233,0.00015727,0
70.233,0.00018967,0
70.234,0.00021367,0
70.234,0.00022979,0
70.235,0.00024422,0
70.235,0.00026252,0
70.236,0.00028383,0
70.236,0.00031472,0
70.237,0.00036239,0
70.237,0.00041056,0
70.238,0.00044497,0
70.238,0.00045101,0
70.239,0.00042802,0
70.239,0.00039847,0
70.24,0.00037581,0
70.24,0.00036239,0
70.241,0.00035953,0
70.242,0.00037179,0
70.242,0.00037917,0
70.243,0.0003503,0
70.243,0.00029961,0
70.244,0.00023449,0
70.244,0.00014318,0
70.245,1.5274e-05,0
70.245,-0.00013915,0
70.246,-0.00027276,0
70.246,-0.00035433,0
70.247,-0.00039998,0
70.247,-0.00042684,0
70.248,-0.00043171,0
70.248,-0.00040166,0
70.249,-0.00033318,0
70.249,-0.00024674,0
70.25,-0.00016902,0
70.25,-0.00011699,0
70.251,-9.1478e-05,0
70.251,-7.8721e-05,0
70.252,-6.6133e-05,0
70.252,-4.9012e-05,0
70.253,-2.2492e-05,0
70.253,2.7695e-05,0
70.254,9.9535e-05,0
70.255,0.00018984,0
70.255,0.0003033,0
70.256,0.00046914,0
70.256,0.00065344,0
70.257,0.00080786,0
70.257,0.00092502,0
70.258,0.0010016,0
70.258,0.0010012,0
70.259,0.00089111,0
70.259,0.00070883,0
70.26,0.00052016,0
70.26,0.00031472,0
70.261,4.918e-05,0
70.261,-0.0002746,0
70.262,-0.00061534,0
70.262,-0.00091679,0
70.263,-0.0011447,0
70.263,-0.0012807,0
70.264,-0.0012971,0
70.264,-0.0012065,0
70.265,-0.0010615,0
70.265,-0.00090706,0
70.266,-0.00075868,0
70.266,-0.00060392,0
70.267,-0.00043154,0
70.267,-0.00026201,0
70.268,-0.00012622,0
70.269,-3.7766e-05,0
70.269,3.3738e-05,0
70.27,0.0001237,0
70.27,0.00021199,0
70.271,0.00025547,0
70.271,0.00026168,0
70.272,0.00029592,0
70.272,0.00038488,0
70.273,0.00045907,0
70.273,0.00045504,0
70.274,0.00038924,0
70.274,0.00034359,0
70.275,0.00033822,0
70.275,0.0003033,0
70.276,0.00022794,0
70.276,0.00015828,0
70.277,0.00010658,0
70.277,6.3615e-05,0
70.278,2.2324e-05,0
70.278,-9.5674e-06,0
70.279,-4.8676e-06,0
70.279,1.1582e-05,0
70.28,1.0239e-05,0
70.28,-6.714e-07,0
70.281,-1.5274e-05,0
70.282,-3.6423e-05,0
70.282,-5.9251e-05,0
70.283,-7.6707e-05,0
70.283,-8.2078e-05,0
70.284,-7.4693e-05,0
70.284,-5.4383e-05,0
70.285,-2.5681e-05,0
70.285,2.0142e-06,0
70.286,2.6017e-05,0
70.286,5.6733e-05,0
70.287,0.00011363,0
70.287,0.00020024,0
70.288,0.00028988,0
70.288,0.0003503,0
70.289,0.0003649,0
70.289,0.0003362,0
70.29,0.00029206,0
70.29,0.00026168,0
70.291,0.00025228,0
70.291,0.00025328,0
70.292,0.00024456,0
70.292,0.00020964,0
70.293,0.0001467,0
70.293,6.0929e-05,0
70.294,-3.3066e-05,0
70.294,-0.00011901,0
70.295,-0.00018447,0
70.296,-0.00020964,0
70.296,-0.00020259,0
70.297,-0.00018715,0
70.297,-0.00016013,0
70.298,-0.0001185,0
70.298,-7.8218e-05,0
70.299,-5.2033e-05,0
70.299,-3.122e-05,0
70.3,-1.6785e-07,0
70.3,4.213e-05,0
70.301,7.4022e-05,0
70.301,8.7114e-05,0
70.302,9.3492e-05,0
70.302,9.987e-05,0
70.303,0.00011196,0
70.303,0.00014804,0
70.304,0.00023482,0
70.304,0.00039864,0
70.305,0.00057891,0
70.305,0.00063883,0
70.306,0.00055172,0
70.306,0.00042953,0
70.307,0.00033855,0
70.307,0.00024422,0
70.308,0.00011296,0
70.309,-4.1627e-05,0
70.309,-0.0001843,0
70.31,-0.00030901,0
70.31,-0.00042936,0
70.311,-0.0005341,0
70.311,-0.00061131,0
70.312,-0.00066821,0
70.312,-0.00070665,0
70.313,-0.00072544,0
70.313,-0.00070933,0
70.314,-0.00062406,0
70.314,-0.00047485,0
70.315,-0.00031673,0
70.315,-0.00017809,0
70.316,-4.1962e-05,0
70.316,6.5797e-05,0
70.317,0.00012186,0
70.317,0.00015895,0
70.318,0.0002036,0
70.318,0.00028048,0
70.319,0.00039428,0
70.319,0.00049566,0
70.32,0.00051479,0
70.32,0.00043943,0
70.321,0.00032177,0
70.322,0.00021602,0
70.322,0.00016248,0
70.323,0.0001467,0
70.323,0.00011968,0
70.324,5.8579e-05,0
70.324,-3.0716e-05,0
70.325,-0.00012303,0
70.325,-0.00019387,0
70.326,-0.00025161,0
70.326,-0.00030381,0
70.327,-0.00033906,0
70.327,-0.00032915,0
70.328,-0.0002647,0
70.328,-0.00017272,0
70.329,-9.0806e-05,0
70.329,-4.918e-05,0
70.33,-6.9993e-05,0
70.33,-0.00014636,0
70.331,-0.00024254,0
70.331,-0.00031858,0
70.332,-0.00033217,0
70.332,-0.00026369,0
70.333,-0.00014049,0
70.333,-1.8631e-05,0
70.334,6.6972e-05,0
70.334,0.00012203,0
70.335,0.00016835,0
70.336,0.00021468,0
70.336,0.00025496,0
70.337,0.00028081,0
70.337,0.00028853,0
70.338,0.00029021,0
70.338,0.00028215,0
70.339,0.00025362,0
70.339,0.00020629,0
70.34,0.00015006,0
70.34,9.8527e-05,0
70.341,5.6733e-05,0
70.341,3.9277e-05,0
70.342,5.4383e-05,0
70.342,8.1071e-05,0
70.343,9.8863e-05,0
70.343,0.00010188,0
70.344,9.4835e-05,0
70.344,8.6778e-05,0
70.345,9.366e-05,0
70.345,0.00011531,0
70.346,0.00013512,0
70.346,0.00014284,0
70.347,0.00014351,0
70.347,0.00013411,0
70.348,0.00010994,0
70.349,7.5532e-05,0
70.349,4.3809e-05,0
70.35,3.5584e-05,0
70.35,4.3641e-05,0
70.351,5.8244e-05,0
70.351,9.5506e-05,0
70.352,0.00014939,0
70.352,0.00018077,0
70.353,0.00017255,0
70.353,0.00014586,0
70.354,0.00013344,0
70.354,0.000165,0
70.355,0.00024422,0
70.355,0.00034258,0
70.356,0.00041408,0
70.356,0.00041878,0
70.357,0.0003503,0
70.357,0.00024137,0
70.358,0.00017675,0
70.358,0.00019521,0
70.359,0.00023012,0
70.359,0.00021837,0
70.36,0.00016886,0
70.36,0.0001237,0
70.361,5.8244e-05,0
70.361,-8.4428e-05,0
70.362,-0.0002981,0
70.363,-0.0005106,0
70.363,-0.00063313,0
70.364,-0.00062004,0
70.364,-0.00052352,0
70.365,-0.00042768,0
70.365,-0.00034812,0
70.366,-0.00022173,0
70.366,-8.4764e-05,0
70.367,-5.0523e-05,0
70.367,-0.00012438,0
70.368,-0.00020998,0
70.368,-0.0002501,0
70.369,-0.00027544,0
70.369,-0.00030095,0
70.37,-0.00031791,0
70.37,-0.00033167,0
70.371,-0.00035299,0
70.371,-0.00038622,0
70.372,-0.00041727,0
70.372,-0.00040653,0
70.373,-0.00034476,0
70.373,-0.00024691,0
70.374,-0.00012287,0
70.374,2.0981e-05,0
70.375,0.0001603,0
70.376,0.00024691,0
70.376,0.00024993,0
70.377,0.00018648,0
70.377,0.00011229,0
70.378,7.7546e-05,0
70.378,8.0568e-05,0
70.379,8.6778e-05,0
70.379,9.7688e-05,0
70.38,0.00012773,0
70.38,0.00015929,0
70.381,0.0001801,0
70.381,0.00019487,0
70.382,0.00021871,0
70.382,0.00025194,0
70.383,0.00026806,0
70.383,0.00025261,0
70.384,0.00022995,0
70.384,0.00022609,0
70.385,0.00024388,0
70.385,0.00026671,0
70.386,0.00026487,0
70.386,0.00023348,0
70.387,0.00019017,0
70.387,0.00015962,0
70.388,0.00015727,0
70.388,0.00016567,0
70.389,0.0001509,0
70.39,0.00010608,0
70.39,5.6901e-05,0
70.391,1.5442e-05,0
70.391,-2.8199e-05,0
70.392,-7.9393e-05,0
70.392,-0.00012908,0
70.393,-0.00016214,0
70.393,-0.00017557,0
70.394,-0.0001801,0
70.394,-0.00017305,0
70.395,-0.00014905,0
70.395,-0.00013042,0
70.396,-0.00012236,0
70.396,-0.00010625,0
70.397,-7.0497e-05,0
70.397,-3.0213e-05,0
70.398,-1.6785e-07,0
70.398,1.9806e-05,0
70.399,4.9851e-05,0
70.399,0.00011615,0
70.4,0.00019286,0
70.4,0.00022911,0
70.401,0.00022274,0
70.401,0.00022089,0
70.402,0.00024926,0
70.403,0.00028299,0
70.403,0.00029055,0
70.404,0.00026973,0
70.404,0.00024154,0
70.405,0.00020998,0
70.405,0.00015962,0
70.406,7.8386e-05,0
70.406,-2.0813e-05,0
70.407,-0.00011363,0
70.407,-0.00019454,0
70.408,-0.00024204,0
70.408,-0.00022139,0
70.409,-0.00013646,0
70.409,-4.2466e-05,0
70.41,1.1917e-05,0
70.41,2.9374e-05,0
70.411,4.1123e-05,0
70.411,6.1265e-05,0
70.412,0.00010054,0
70.412,0.00020629,0
70.413,0.00040502,0
70.413,0.00061953,0
70.414,0.00072024,0
70.414,0.00065914,0
70.415,0.00049902,0
70.415,0.00031388,0
70.416,0.00011447,0
70.417,-0.00011179,0
70.417,-0.00033385,0
70.418,-0.00049264,0
70.418,-0.00053896,0
70.419,-0.00046813,0
70.419,-0.00034174,0
70.42,-0.00023163,0
70.42,-0.00015526,0
70.421,-0.00010239,0
70.421,-9.0135e-05,0
70.422,-0.00013915,0
70.422,-0.00022408,0
70.423,-0.0003033,0
70.423,-0.00035752,0
70.424,-0.00040099,0
70.424,-0.00044094,0
70.425,-0.00043775,0
70.425,-0.00038723,0
70.426,-0.0003362,0
70.426,-0.00030867,0
70.427,-0.00028568,0
70.427,-0.00023146,0
70.428,-0.0001368,0
70.428,-3.3402e-05,0
70.429,5.539e-05,0
70.43,0.00012975,0
70.43,0.00017238,0
70.431,0.00017406,0
70.431,0.00015492,0
70.432,0.00013545,0
70.432,0.00012186,0
70.433,0.00011363,0
70.433,0.00011263,0
70.434,0.00011766,0
70.434,0.0001227,0
70.435,0.00012807,0
70.435,0.00014788,0
70.436,0.00017993,0
70.436,0.00020058,0
70.437,0.00019554,0
70.437,0.00018144,0
70.438,0.00018296,0
70.438,0.00019554,0
70.439,0.00020226,0
70.439,0.0002036,0
70.44,0.00020461,0
70.44,0.00018984,0
70.441,0.00014334,0
70.441,7.7714e-05,0
70.442,2.4506e-05,0
70.442,-1.1078e-05,0
70.443,-4.3809e-05,0
70.444,-7.0161e-05,0
70.444,-7.2679e-05,0
70.445,-5.3376e-05,0
70.445,-3.0381e-05,0
70.446,-9.2317e-06,0
70.446,1.4939e-05,0
70.447,5.3376e-05,0
70.447,0.00012203,0
70.448,0.00020713,0
70.448,0.00028132,0
70.449,0.00033486,0
70.449,0.00035702,0
70.45,0.00035819,0
70.45,0.00036373,0
70.451,0.00040603,0
70.451,0.00047854,0
70.452,0.00051194,0
70.452,0.0004589,0
70.453,0.00034057,0
70.453,0.00020729,0
70.454,9.1478e-05,0
70.454,-3.8605e-06,0
70.455,-9.752e-05,0
70.455,-0.00019319,0
70.456,-0.00027796,0
70.457,-0.00035366,0
70.457,-0.00041727,0
70.458,-0.00046024,0
70.458,-0.00048508,0
70.459,-0.00050674,0
70.459,-0.00052738,0
70.46,-0.00051949,0
70.46,-0.00046377,0
70.461,-0.00037498,0
70.461,-0.00028635,0
70.462,-0.00022425,0
70.462,-0.00017238,0
70.463,-0.00010155,0
70.463,-2.6352e-05,0
70.464,2.0142e-05,0
70.464,3.0381e-05,0
70.465,2.1149e-05,0
70.465,2.5345e-05,0
70.466,7.8553e-05,0
70.466,0.00017372,0
70.467,0.00026033,0
70.467,0.00029928,0
70.468,0.00030498,0
70.468,0.00033016,0
70.469,0.0003879,0
70.469,0.00044228,0
70.47,0.0004443,0
70.471,0.00036608,0
70.471,0.00024825,0
70.472,0.00013814,0
70.472,5.7572e-05,0
70.473,-3.5248e-06,0
70.473,-7.3014e-05,0
70.474,-0.00017507,0
70.474,-0.00028904,0
70.475,-0.00036944,0
70.475,-0.00039881,0
70.476,-0.00038891,0
70.476,-0.00034308,0
70.477,-0.00027309,0
70.477,-0.00022072,0
70.478,-0.00018514,0
70.478,-0.00011514,0
70.479,2.2324e-05,0
70.479,0.00021669,0
70.48,0.00042483,0
70.48,0.00061215,0
70.481,0.00072192,0
70.481,0.00069674,0
70.482,0.00057522,0
70.482,0.00044799,0
70.483,0.00033285,0
70.484,0.00018849,0
70.484,-1.1749e-06,0
70.485,-0.00018984,0
70.485,-0.00034778,0
70.486,-0.00049633,0
70.486,-0.00063648,0
70.487,-0.00071286,0
70.487,-0.00067391,0
70.488,-0.00053477,0
70.488,-0.00038303,0
70.489,-0.00026537,0
70.489,-0.00013999,0
70.49,4.213e-05,0
70.49,0.00022005,0
70.491,0.0002892,0
70.491,0.00024154,0
70.492,0.0001331,0
70.492,1.7288e-05,0
70.493,-6.8818e-05,0
70.493,-0.00013025,0
70.494,-0.00016684,0
70.494,-0.00015258,0
70.495,-0.00011498,0
70.495,-0.00010709,0
70.496,-0.00012639,0
70.496,-0.00012924,0
70.497,-8.6107e-05,0
70.498,-7.5532e-06,0
70.498,9.987e-05,0
70.499,0.00021988,0
70.499,0.00030733,0
70.5,0.00033385,0
70.5,0.00028551,0
70.501,0.0001791,0
70.501,6.9657e-05,0
70.502,9.2317e-06,0
70.502,2.0142e-06,0
70.503,3.3066e-05,0
70.503,9.4667e-05,0
70.504,0.00016701,0
70.504,0.00024221,0
70.505,0.00031237,0
70.505,0.00034057,0
70.506,0.00031455,0
70.506,0.00027326,0
70.507,0.0002454,0
70.507,0.00021468,0
70.508,0.00018497,0
70.508,0.00017675,0
70.509,0.00016902,0
70.509,0.00014217,0
70.51,0.0001227,0
70.51,0.00014955,0
70.511,0.00019907,0
70.512,0.0002036,0
70.512,0.00014754,0
70.513,6.3111e-05,0
70.513,-4.8844e-05,0
70.514,-0.00019789,0
70.514,-0.00037246,0
70.515,-0.00052638,0
70.515,-0.00060795,0
70.516,-0.0006051,0
70.516,-0.00054853,0
70.517,-0.00046142,0
70.517,-0.00035618,0
70.518,-0.00024808,0
70.518,-0.00014301,0
70.519,-4.5319e-05,0
70.519,2.3835e-05,0
70.52,5.4887e-05,0
70.52,6.4958e-05,0
70.521,8.1743e-05,0
70.521,0.00013512,0
70.522,0.00021636,0
70.522,0.00028098,0
70.523,0.00031505,0
70.523,0.00034627,0
70.524,0.00040099,0
70.525,0.00048727,0
70.525,0.00055625,0
70.526,0.00055843,0
70.526,0.00049801,0
70.527,0.00041274,0
70.527,0.00033201,0
70.528,0.00025026,0
70.528,0.00014687,0
70.529,1.6953e-05,0
70.529,-0.00011128,0
70.53,-0.00021115,0
70.53,-0.00028434,0
70.531,-0.00034208,0
70.531,-0.00038454,0
70.532,-0.00041375,0
70.532,-0.00043137,0
70.533,-0.00042348,0
70.533,-0.00037565,0
70.534,-0.00028501,0
70.534,-0.00017154,0
70.535,-7.4189e-05,0
70.535,-1.4267e-05,0
70.536,1.4939e-05,0
70.536,2.9709e-05,0
70.537,3.6255e-05,0
70.537,3.7766e-05,0
70.538,4.6326e-05,0
70.539,9.4667e-05,0
70.539,0.00022676,0
70.54,0.00046545,0
70.54,0.00074206,0
70.541,0.00090051,0
70.541,0.00087668,0
70.542,0.0007659,0
70.542,0.00067257,0
70.543,0.00060678,0
70.543,0.0005252,0
70.544,0.00042499,0
70.544,0.00031237,0
70.545,0.0001556,0
70.545,-6.9322e-05,0
70.546,-0.00030666,0
70.546,-0.00048156,0
70.547,-0.00062188,0
70.547,-0.00077244,0
70.548,-0.00088423,0
70.548,-0.00089531,0
70.549,-0.00080652,0
70.549,-0.00067761,0
70.55,-0.00058412,0
70.55,-0.00053544,0
70.551,-0.00049834,0
70.552,-0.00047451,0
70.552,-0.00046293,0
70.553,-0.00042969,0
70.553,-0.00035232,0
70.554,-0.0002417,0
70.554,-0.00013227,0
70.555,-4.0452e-05,0
70.555,5.5894e-05,0
70.556,0.00015425,0
70.556,0.00022542,0
70.557,0.00028165,0
70.557,0.00035735,0
70.558,0.00043624,0
70.558,0.0004688,0
70.559,0.00044211,0
70.559,0.00036339,0
70.56,0.00024523,0
70.56,0.00011884,0
70.561,3.1891e-06,0
70.561,-8.04e-05,0
70.562,-0.00011229,0
70.562,-9.8863e-05,0
70.563,-6.3615e-05,0
70.563,-1.9303e-05,0
70.564,3.3402e-05,0
70.564,8.4092e-05,0
70.565,0.00011464,0
70.566,0.0001227,0
70.566,0.00011296,0
70.567,9.4835e-05,0
70.567,8.3421e-05,0
70.568,9.4835e-05,0
70.568,0.00012287,0
70.569,0.00015157,0
70.569,0.00016936,0
70.57,0.00017423,0
70.57,0.00018631,0
70.571,0.00020729,0
70.571,0.00020797,0
70.572,0.00019991,0
70.572,0.00022643,0
70.573,0.00026302,0
70.573,0.00026302,0
70.574,0.00021904,0
70.574,0.00016332,0
70.575,0.00013109,0
70.575,0.00011968,0
70.576,0.00011766,0
70.576,0.00010893,0
70.577,8.1071e-05,0
70.577,3.7095e-05,0
70.578,-2.4002e-05,0
70.579,-9.1142e-05,0
70.579,-0.00014133,0
70.58,-0.00016382,0
70.58,-0.0001707,0
70.581,-0.00017456,0
70.581,-0.00016701,0
70.582,-0.00013713,0
70.582,-7.5029e-05,0
70.583,3.743e-05,0
70.583,0.00018245,0
70.584,0.00029256,0
70.584,0.00031724,0
70.585,0.00026302,0
70.585,0.00017003,0
70.586,6.5293e-05,0
70.586,-4.1291e-05,0
70.587,-0.00013344,0
70.587,-0.00020494,0
70.588,-0.00025631,0
70.588,-0.00027225,0
70.589,-0.00023381,0
70.589,-0.00015828,0
70.59,-9.836e-05,0
70.59,-8.9632e-05,0
70.591,-0.00011363,0
70.591,-0.00013361,0
70.592,-0.00013025,0
70.593,-0.00010692,0
70.593,-8.1407e-05,0
70.594,-5.9251e-05,0
70.594,-3.2395e-05,0
70.595,2.5177e-06,0
70.595,5.2873e-05,0
70.596,0.00011968,0
70.596,0.00019135,0
70.597,0.00027041,0
70.597,0.00034359,0
70.598,0.00037917,0
70.598,0.00037246,0
70.599,0.0003503,0
70.599,0.00032177,0
70.6,0.00027712,0
70.6,0.00021015,0
70.601,0.00014049,0
70.601,8.2078e-05,0
70.602,1.2421e-05,0
70.602,-9.1478e-05,0
70.603,-0.0002041,0
70.603,-0.00027997,0
70.604,-0.00031572,0
70.604,-0.00033721,0
70.605,-0.00033838,0
70.606,-0.0002976,0
70.606,-0.00022408,0
70.607,-0.00013814,0
70.607,-3.1388e-05,0
70.608,9.2485e-05,0
70.608,0.00019219,0
70.609,0.00024926,0
70.609,0.00026604,0
70.61,0.00023717,0
70.61,0.00018178,0
70.611,0.0001284,0
70.611,8.04e-05,0
70.612,7.0329e-05,0
70.612,0.00013495,0
70.613,0.00019454,0
70.613,0.0001697,0
70.614,0.00011196,0
70.614,7.4861e-05,0
70.615,2.2324e-05,0
70.615,-7.9393e-05,0
70.616,-0.00019471,0
70.616,-0.00026839,0
70.617,-0.00030213,0
70.617,-0.00032932,0
70.618,-0.00034527,0
70.618,-0.00031354,0
70.619,-0.00024019,0
70.62,-0.00019034,0
70.62,-0.00019034,0
70.621,-0.00021501,0
70.621,-0.00024439,0
70.622,-0.00023499,0
70.622,-0.00012605,0
70.623,9.2149e-05,0
70.623,0.00033285,0
70.624,0.00049516,0
70.624,0.00058126,0
70.625,0.0006672,0
70.625,0.0007612,0
70.626,0.00074105,0
70.626,0.00054366,0
70.627,0.00025228,0
70.627,-4.1794e-05,0
70.628,-0.0002929,0
70.628,-0.00048458,0
70.629,-0.00061231,0
70.629,-0.00065075,0
70.63,-0.00060879,0
70.63,-0.00054635,0
70.631,-0.00048307,0
70.631,-0.00041274,0
70.632,-0.00034896,0
70.633,-0.00029088,0
70.633,-0.00022811,0
70.634,-0.00014989,0
70.634,-7.805e-05,0
70.635,-3.2898e-05,0
70.635,1.3596e-05,0
70.636,8.9128e-05,0
70.636,0.00016231,0
70.637,0.00019084,0
70.637,0.0001744,0
70.638,0.00013915,0
70.638,0.00011783,0
70.639,0.00012992,0
70.639,0.00017121,0
70.64,0.00021468,0
70.64,0.00023616,0
70.641,0.00022744,0
70.641,0.00020494,0
70.642,0.00018648,0
70.642,0.00017137,0
70.643,0.00016197,0
70.643,0.00015694,0
70.644,0.00015526,0
70.644,0.00015425,0
70.645,0.00014871,0
70.645,0.0001331,0
70.646,0.00010843,0
70.647,7.8889e-05,0
70.647,4.9516e-05,0
70.648,2.1988e-05,0
70.648,-2.3499e-06,0
70.649,-1.7456e-05,0
70.649,-1.6617e-05,0
70.65,3.8605e-06,0
70.65,4.6159e-05,0
70.651,0.0001039,0
70.651,0.00016634,0
70.652,0.00021233,0
70.652,0.00022676,0
70.653,0.00021669,0
70.653,0.00019387,0
70.654,0.00015677,0
70.654,0.0001039,0
70.655,4.5319e-05,0
70.655,-4.1962e-06,0
70.656,-3.0549e-05,0
70.656,-4.1123e-05,0
70.657,-4.0955e-05,0
70.657,-2.3163e-05,0
70.658,3.8605e-06,0
70.658,2.3667e-05,0
70.659,2.8031e-05,0
70.66,2.2156e-05,0
70.66,9.5674e-06,0
70.661,-1.7624e-05,0
70.661,-5.6397e-05,0
70.662,-8.7114e-05,0
70.662,-9.5171e-05,0
70.663,-7.3014e-05,0
70.663,-2.4674e-05,0
70.664,2.3835e-05,0
70.664,5.1865e-05,0
70.665,7.7211e-05,0
70.665,0.0001331,0
70.666,0.00023415,0
70.666,0.00035299,0
70.667,0.00043087,0
70.667,0.00043288,0
70.668,0.0003926,0
70.668,0.00035433,0
70.669,0.00031136,0
70.669,0.00025026,0
70.67,0.00015224,0
70.67,1.0239e-05,0
70.671,-0.00014015,0
70.671,-0.00021602,0
70.672,-0.00016181,0
70.672,1.7288e-05,0
70.673,0.00025463,0
70.674,0.00040603,0
70.674,0.00039025,0
70.675,0.00027175,0
70.675,0.00014687,0
70.676,2.0645e-05,0
70.676,-0.00012958,0
70.677,-0.00029105,0
70.677,-0.00043909,0
70.678,-0.00056649,0
70.678,-0.0006667,0
70.679,-0.00072746,0
70.679,-0.00075415,0
70.68,-0.00076405,0
70.68,-0.00076002,0
70.681,-0.00072444,0
70.681,-0.0006385,0
70.682,-0.00050657,0
70.682,-0.00035869,0
70.683,-0.00022341,0
70.683,-0.00011212,0
70.684,-6.5461e-06,0
70.684,0.0001133,0
70.685,0.0002271,0
70.685,0.00030716,0
70.686,0.00034292,0
70.687,0.00032982,0
70.687,0.00027376,0
70.688,0.00020763,0
70.688,0.00015526,0
70.689,0.00012522,0
70.689,0.00011313,0
70.69,0.00010961,0
70.69,0.00010692,0
70.691,0.00010121,0
70.691,8.9464e-05,0
70.692,6.865e-05,0
70.692,3.8773e-05,0
70.693,8.7282e-06,0
70.693,-4.8676e-06,0
70.694,4.1962e-06,0
70.694,2.5849e-05,0
70.695,4.5487e-05,0
70.695,5.7572e-05,0
70.696,7.2343e-05,0
70.696,8.5771e-05,0
70.697,8.04e-05,0
70.697,5.3544e-05,0
70.698,9.0639e-06,0
70.698,-3.5752e-05,0
70.699,-5.6062e-05,0
70.7,-3.8773e-05,0
70.7,6.5461e-06,0
70.701,5.8915e-05,0
70.701,0.00010155,0
70.702,0.00013529,0
70.702,0.00016332,0
70.703,0.00018413,0
70.703,0.00020729,0
70.704,0.00025463,0
70.704,0.0003456,0
70.705,0.00049096,0
70.705,0.00064974,0
70.706,0.0007424,0
70.706,0.00072964,0
70.707,0.00063497,0
70.707,0.00050069,0
70.708,0.00035164,0
70.708,0.00018648,0
70.709,1.1414e-05,0
70.709,-0.00014871,0
70.71,-0.00026957,0
70.71,-0.00034678,0
70.711,-0.0003921,0
70.711,-0.00041845,0
70.712,-0.00044463,0
70.712,-0.00047451,0
70.713,-0.00048576,0
70.714,-0.00046242,0
70.714,-0.00040485,0
70.715,-0.00032345,0
70.715,-0.00023146,0
70.716,-0.00014687,0
70.716,-8.1071e-05,0
70.717,-2.8702e-05,0
70.717,2.2324e-05,0
70.718,9.5506e-05,0
70.718,0.00021569,0
70.719,0.00036339,0
70.719,0.0004688,0
70.72,0.00047955,0
70.72,0.0004114,0
70.721,0.00032613,0
70.721,0.0002318,0
70.722,0.0001039,0
70.722,-3.2731e-05,0
70.723,-0.00012538,0
70.723,-0.00017003,0
70.724,-0.0001989,0
70.724,-0.00022274,0
70.725,-0.00020864,0
70.725,-0.00015677,0
70.726,-0.00012068,0
70.727,-0.00012807,0
70.727,-0.00015476,0
70.728,-0.00016835,0
70.728,-0.00017137,0
70.729,-0.00017255,0
70.729,-0.00016349,0
70.73,-0.00014418,0
70.73,-0.0001321,0
70.731,-0.00012505,0
70.731,-0.00010138,0
70.732,-5.6901e-05,0
70.732,-4.8676e-06,0
70.733,4.2634e-05,0
70.733,8.2078e-05,0
70.734,0.00011632,0
70.734,0.0001415,0
70.735,0.0001519,0
70.735,0.0001509,0
70.736,0.00015023,0
70.736,0.00015895,0
70.737,0.00016365,0
70.737,0.00015258,0
70.738,0.00012589,0
70.738,9.3156e-05,0
70.739,6.1601e-05,0
70.739,4.0116e-05,0
70.74,4.7166e-05,0
70.741,7.7714e-05,0
70.741,9.8192e-05,0
70.742,9.9535e-05,0
70.742,8.9799e-05,0
70.743,7.5029e-05,0
70.743,6.6804e-05,0
70.744,7.0329e-05,0
70.744,7.9225e-05,0
70.745,8.4092e-05,0
70.745,8.1743e-05,0
70.746,7.3518e-05,0
70.746,5.9419e-05,0
70.747,4.3809e-05,0
70.747,4.0787e-05,0
70.748,5.6062e-05,0
70.748,7.7546e-05,0
70.749,0.00010541,0
70.749,0.00015392,0
70.75,0.00022408,0
70.75,0.00027443,0
70.751,0.00027108,0
70.751,0.00023885,0
70.752,0.00020394,0
70.752,0.00016483,0
70.753,0.00011666,0
70.754,6.3951e-05,0
70.754,1.1582e-05,0
70.755,-3.5752e-05,0
70.755,-8.3589e-05,0
70.756,-0.00012236,0
70.756,-0.0001331,0
70.757,-0.00013109,0
70.757,-0.00014972,0
70.758,-0.00018044,0
70.758,-0.00020427,0
70.759,-0.00020864,0
70.759,-0.00019084,0
70.76,-0.00016466,0
70.76,-0.00013478,0
70.761,-9.3996e-05,0
70.761,-4.8508e-05,0
70.762,-5.8747e-06,0
70.762,2.0142e-05,0
70.763,1.796e-05,0
70.763,-5.8747e-06,0
70.764,-3.7934e-05,0
70.764,-6.4118e-05,0
70.765,-8.8792e-05,0
70.765,-0.00012454,0
70.766,-0.00016718,0
70.766,-0.00020175,0
70.767,-0.00021535,0
70.768,-0.00020981,0
70.768,-0.00020108,0
70.769,-0.00019554,0
70.769,-0.0001937,0
70.77,-0.0001843,0
70.77,-0.00015073,0
70.771,-9.1646e-05,0
70.771,-1.9303e-05,0
70.772,4.0116e-05,0
70.772,7.0497e-05,0
70.773,7.3686e-05,0
70.773,6.4958e-05,0
70.774,5.4215e-05,0
70.774,4.6159e-05,0
70.775,4.6159e-05,0
70.775,7.6036e-05,0
70.776,0.0001561,0
70.776,0.00025866,0
70.777,0.00035097,0
70.777,0.00043137,0
70.778,0.00050204,0
70.778,0.00054668,0
70.779,0.00055978,0
70.779,0.00054165,0
70.78,0.0004876,0
70.781,0.00040855,0
70.781,0.00031841,0
70.782,0.00021434,0
70.782,7.1e-05,0
70.783,-0.00012035,0
70.783,-0.00032076,0
70.784,-0.00046444,0
70.784,-0.00052251,0
70.785,-0.00052033,0
70.785,-0.0004871,0
70.786,-0.00042113,0
70.786,-0.00032294,0
70.787,-0.00021535,0
70.787,-0.0001237,0
70.788,-5.8747e-05,0
70.788,-2.1653e-05,0
70.789,-7.2175e-06,0
70.789,-6.2104e-06,0
70.79,-6.0426e-06,0
70.79,-2.8534e-06,0
70.791,0,0
70.791,1.1749e-06,0
70.792,5.7069e-06,0
70.792,2.501e-05,0
70.793,6.2943e-05,0
70.793,0.00011028,0
70.794,0.00016332,0
70.795,0.00021971,0
70.795,0.00026403,0
70.796,0.00027628,0
70.796,0.00025933,0
70.797,0.00024422,0
70.797,0.00024053,0
70.798,0.00022525,0
70.798,0.00019034,0
70.799,0.00014754,0
70.799,0.00010323,0
70.8,5.2705e-05,0
70.8,-9.5674e-06,0
70.801,-7.1336e-05,0
70.801,-0.00011296,0
70.802,-0.00012605,0
70.802,-0.00011112,0
70.803,-8.8457e-05,0
70.803,-6.6468e-05,0
70.804,-3.1388e-05,0
70.804,1.2253e-05,0
70.805,4.1627e-05,0
70.805,5.9251e-05,0
70.806,7.7714e-05,0
70.806,8.0064e-05,0
70.807,4.8173e-05,0
70.808,-1.0071e-06,0
70.808,-4.3473e-05,0
70.809,-6.7308e-05,0
70.809,-8.2414e-05,0
70.81,-8.9799e-05,0
70.81,-5.9419e-05,0
70.811,3.2059e-05,0
70.811,0.00015996,0
70.812,0.00026084,0
70.812,0.0003164,0
70.813,0.00036776,0
70.813,0.0004354,0
70.814,0.00051009,0
70.814,0.00059066,0
70.815,0.00061953,0
70.815,0.00054064,0
70.816,0.00038572,0
70.816,0.00021804,0
70.817,4.683e-05,0
70.817,-0.00015526,0
70.818,-0.00037632,0
70.818,-0.00057186,0
70.819,-0.00070631,0
70.819,-0.00077949,0
70.82,-0.00080769,0
70.82,-0.00079863,0
70.821,-0.00073971,0
70.822,-0.0006338,0
70.822,-0.00050539,0
70.823,-0.00038437,0
70.823,-0.00029306,0
70.824,-0.00021636,0
70.824,-0.00013344,0
70.825,-5.304e-05,0
70.825,7.2175e-06,0
70.826,6.1433e-05,0
70.826,0.00013378,0
70.827,0.00021048,0
70.827,0.00026671,0
70.828,0.00030431,0
70.828,0.00033956,0
70.829,0.00036574,0
70.829,0.00035232,0
70.83,0.00029256,0
70.83,0.00021267,0
70.831,0.00013596,0
70.831,6.865e-05,0
70.832,1.3931e-05,0
70.832,-8.2246e-06,0
70.833,1.8631e-05,0
70.833,5.2705e-05,0
70.834,5.2873e-05,0
70.835,3.3066e-05,0
70.835,2.652e-05,0
70.836,2.3835e-05,0
70.836,4.3641e-06,0
70.837,-2.8031e-05,0
70.837,-6.4118e-05,0
70.838,-9.4667e-05,0
70.838,-0.00011095,0
70.839,-0.00010507,0
70.839,-6.8818e-05,0
70.84,-1.2421e-05,0
70.84,3.6423e-05,0
70.841,6.2943e-05,0
70.841,7.4189e-05,0
70.842,8.7114e-05,0
70.842,0.00010407,0
70.843,0.00011061,0
70.843,0.00010658,0
70.844,0.00010457,0
70.844,0.00011229,0
70.845,0.00012337,0
70.845,0.0001326,0
70.846,0.00014687,0
70.846,0.00016869,0
70.847,0.00019219,0
70.847,0.00021736,0
70.848,0.00024691,0
70.849,0.0002694,0
70.849,0.0002788,0
70.85,0.0002845,0
70.85,0.00028988,0
70.851,0.00029441,0
70.851,0.00028988,0
70.852,0.00026738,0
70.852,0.00023079,0
70.853,0.00017272,0
70.853,8.4596e-05,0
70.854,-1.6617e-05,0
70.854,-0.00010692,0
70.855,-0.00017775,0
70.855,-0.00022945,0
70.856,-0.00025312,0
70.856,-0.0002417,0
70.857,-0.0002078,0
70.857,-0.00017708,0
70.858,-0.00016466,0
70.858,-0.00015946,0
70.859,-0.00014452,0
70.859,-0.00012186,0
70.86,-9.987e-05,0
70.86,-7.6539e-05,0
70.861,-4.1291e-05,0
70.862,2.3499e-06,0
70.862,3.4409e-05,0
70.863,4.1794e-05,0
70.863,3.0884e-05,0
70.864,1.6281e-05,0
70.864,9.5674e-06,0
70.865,1.6281e-05,0
70.865,4.8844e-05,0
70.866,0.00010524,0
70.866,0.00015207,0
70.867,0.00017137,0
70.867,0.00017742,0
70.868,0.00017775,0
70.868,0.00016231,0
70.869,0.00011498,0
70.869,4.5487e-05,0
70.87,-7.2175e-06,0
70.87,-3.2395e-05,0
70.871,-5.0523e-05,0
70.871,-7.6875e-05,0
70.872,-0.00010423,0
70.872,-0.00012589,0
70.873,-0.0001514,0
70.873,-0.00019286,0
70.874,-0.00023046,0
70.874,-0.00023667,0
70.875,-0.00019957,0
70.876,-0.00013898,0
70.876,-9.5171e-05,0
70.877,-7.4693e-05,0
70.877,-4.3977e-05,0
70.878,3.4409e-05,0
70.878,0.00015862,0
70.879,0.00027242,0
70.879,0.00032378,0
70.88,0.0003268,0
70.88,0.0003305,0
70.881,0.0003837,0
70.881,0.00047451,0
70.882,0.00053695,0
70.882,0.00053158,0
70.883,0.00047384,0
70.883,0.00039059,0
70.884,0.00030163,0
70.884,0.00019857,0
70.885,6.3615e-05,0
70.885,-0.00010726,0
70.886,-0.00028988,0
70.886,-0.00044446,0
70.887,-0.00055357,0
70.887,-0.00061584,0
70.888,-0.00063732,0
70.888,-0.00063531,0
70.889,-0.00063078,0
70.89,-0.00062423,0
70.89,-0.00060795,0
70.891,-0.00057069,0
70.891,-0.00050271,0
70.892,-0.00040385,0
70.892,-0.00028853,0
70.893,-0.00017809,0
70.893,-9.3324e-05,0
70.894,-4.1962e-05,0
70.894,-1.3428e-05,0
70.895,5.7069e-06,0
70.895,2.4002e-05,0
70.896,4.6494e-05,0
70.896,7.1839e-05,0
70.897,0.00010222,0
70.897,0.00013948,0
70.898,0.00017977,0
70.898,0.00021703,0
70.899,0.00024959,0
70.899,0.00027074,0
70.9,0.00027578,0
70.9,0.00026839,0
70.901,0.00026436,0
70.901,0.00027175,0
70.902,0.00027359,0
70.903,0.00025228,0
70.903,0.00021149,0
70.904,0.0001702,0
70.904,0.00014385,0
70.905,0.00013478,0
70.905,0.00012992,0
70.906,0.00012337,0
70.906,0.00012203,0
70.907,0.0001321,0
70.907,0.00014855,0
70.908,0.00015912,0
70.908,0.00015811,0
70.909,0.0001472,0
70.909,0.00013915,0
70.91,0.0001462,0
70.91,0.00015593,0
70.911,0.00015325,0
70.911,0.00014368,0
70.912,0.0001368,0
70.912,0.00013109,0
70.913,0.00012404,0
70.913,0.0001279,0
70.914,0.00016298,0
70.914,0.00023818,0
70.915,0.00032714,0
70.915,0.00038958,0
70.916,0.00044564,0
70.917,0.00052218,0
70.917,0.00055105,0
70.918,0.00045772,0
70.918,0.00025899,0
70.919,2.2995e-05,0
70.919,-0.00016919,0
70.92,-0.00028215,0
70.92,-0.00033771,0
70.921,-0.00037313,0
70.921,-0.00039294,0
70.922,-0.00038941,0
70.922,-0.00035416,0
70.923,-0.00030196,0
70.923,-0.00026369,0
70.924,-0.00025362,0
70.924,-0.00024053,0
70.925,-0.00018883,0
70.925,-0.00012438,0
70.926,-9.0471e-05,0
70.926,-9.131e-05,0
70.927,-0.00011095,0
70.927,-0.00012538,0
70.928,-0.00010877,0
70.928,-5.774e-05,0
70.929,1.0239e-05,0
70.93,6.8482e-05,0
70.93,0.00010172,0
70.931,0.0001039,0
70.931,7.5029e-05,0
70.932,2.8031e-05,0
70.932,-2.1653e-05,0
70.933,-5.3712e-05,0
70.933,-6.7475e-05,0
70.934,-9.1142e-05,0
70.934,-0.00013512,0
70.935,-0.00015862,0
70.935,-0.00014519,0
70.936,-0.00012689,0
70.936,-0.00013982,0
70.937,-0.00017053,0
70.937,-0.00017205,0
70.938,-0.00013042,0
70.938,-7.7546e-05,0
70.939,-5.304e-05,0
70.939,-7.3518e-05,0
70.94,-0.00010474,0
70.94,-9.4331e-05,0
70.941,-3.3234e-05,0
70.941,3.743e-05,0
70.942,7.7043e-05,0
70.942,8.4428e-05,0
70.943,8.6107e-05,0
70.944,0.00010188,0
70.944,0.00012992,0
70.945,0.00015325,0
70.945,0.00015694,0
70.946,0.00013982,0
70.946,9.5842e-05,0
70.947,4.0116e-05,0
70.947,4.5319e-06,0
70.948,4.8676e-06,0
70.948,5.1194e-05,0
70.949,0.00011766,0
70.949,0.00015358,0
70.95,0.00015476,0
70.95,0.00014284,0
70.951,0.00012975,0
70.951,0.00010642,0
70.952,7.7043e-05,0
70.952,4.4144e-05,0
70.953,0,0
70.953,-5.2033e-05,0
70.954,-8.7785e-05,0
70.954,-0.00010088,0
70.955,-0.00010558,0
70.955,-0.00010323,0
70.956,-8.8624e-05,0
70.957,-6.479e-05,0
70.957,-4.062e-05,0
70.958,-9.5674e-06,0
70.958,4.1123e-05,0
70.959,0.00010071,0
70.959,0.00015962,0
70.96,0.00021804,0
70.96,0.00027326,0
70.961,0.00030565,0
70.961,0.00029525,0
70.962,0.00024825,0
70.962,0.00018581,0
70.963,0.0001331,0
70.963,0.00012505,0
70.964,0.0001566,0
70.964,0.00017607,0
70.965,0.00015224,0
70.965,0.00010088,0
70.966,4.8173e-05,0
70.966,-1.091e-05,0
70.967,-8.1407e-05,0
70.967,-0.00015509,0
70.968,-0.00022525,0
70.968,-0.00027343,0
70.969,-0.00028031,0
70.969,-0.00024204,0
70.97,-0.0001655,0
70.971,-8.1743e-05,0
70.971,-2.5345e-05,0
70.972,-5.2033e-06,0
70.972,-1.6785e-06,0
70.973,3.6927e-06,0
70.973,1.0575e-05,0
70.974,1.561e-05,0
70.974,2.2995e-05,0
70.975,4.213e-05,0
70.975,7.3014e-05,0
70.976,0.00011296,0
70.976,0.00015795,0
70.977,0.00021921,0
70.977,0.00030599,0
70.978,0.00038253,0
70.978,0.00040502,0
70.979,0.00037246,0
70.979,0.000331,0
70.98,0.00032915,0
70.98,0.00037481,0
70.981,0.00041744,0
70.981,0.00041593,0
70.982,0.00039797,0
70.982,0.00043154,0
70.983,0.00049331,0
70.984,0.00049264,0
70.984,0.00039562,0
70.985,0.0002313,0
70.985,4.0452e-05,0
70.986,-0.00017675,0
70.986,-0.00042332,0
70.987,-0.00065713,0
70.987,-0.00080769,0
70.988,-0.00085603,0
70.988,-0.00084512,0
70.989,-0.00080551,0
70.989,-0.00073115,0
70.99,-0.00063615,0
70.99,-0.00056196,0
70.991,-0.00052067,0
70.991,-0.00049918,0
70.992,-0.00048492,0
70.992,-0.00045924,0
70.993,-0.00041089,0
70.993,-0.00033201,0
70.994,-0.0002182,0
70.994,-7.3518e-05,0
70.995,0.00011162,0
70.995,0.0002986,0
70.996,0.00042751,0
70.996,0.00048156,0
70.997,0.00048357,0
70.998,0.00043993,0
70.998,0.00035164,0
70.999,0.00025093,0
70.999,0.00017372,0
71,0.00011632,0
71,6.2776e-05,0
71.001,2.0813e-05,0
71.001,1.8463e-06,0
71.002,-3.8605e-06,0
71.002,-1.7288e-05,0
71.003,-4.0787e-05,0
71.003,-4.8676e-05,0
71.004,-2.5681e-05,0
71.004,1.5946e-05,0
71.005,4.3809e-05,0
71.005,5.0187e-05,0
71.006,5.6901e-05,0
71.006,7.0329e-05,0
71.007,8.1071e-05,0
71.007,8.2918e-05,0
71.008,7.1672e-05,0
71.008,4.7837e-05,0
71.009,2.266e-05,0
71.009,1.0071e-05,0
71.01,1.7288e-05,0
71.011,4.0452e-05,0
71.011,6.8315e-05,0
71.012,9.2485e-05,0
71.012,0.00011363,0
71.013,0.00013462,0
71.013,0.0001556,0
71.014,0.00017406,0
71.014,0.00018833,0
71.015,0.00021585,0
71.015,0.00027678,0
71.016,0.0003738,0
71.016,0.00048659,0
71.017,0.00057858,0
71.017,0.0006145,0
71.018,0.00057656,0
71.018,0.00049163,0
71.019,0.0003973,0
71.019,0.0002798,0
71.02,0.00012824,0
71.02,-3.6088e-05,0
71.021,-0.00018312,0
71.021,-0.00029575,0
71.022,-0.00037229,0
71.022,-0.00041828,0
71.023,-0.00043507,0
71.023,-0.00042181,0
71.024,-0.00038354,0
71.025,-0.00033452,0
71.025,-0.00027897,0
71.026,-0.00020327,0
71.026,-0.00010323,0
71.027,-5.539e-06,0
71.027,6.009e-05,0
71.028,0.00010524,0
71.028,0.000166,0
71.029,0.00023717,0
71.029,0.00028652,0
71.03,0.00030196,0
71.03,0.00027645,0
71.031,0.0002078,0
71.031,0.0001133,0
71.032,3.1388e-05,0
71.032,-2.2324e-05,0
71.033,-7.7379e-05,0
71.033,-0.00013646,0
71.034,-0.00016399,0
71.034,-0.00013378,0
71.035,-7.9057e-05,0
71.035,-5.5055e-05,0
71.036,-8.8121e-05,0
71.036,-0.00014687,0
71.037,-0.00017188,0
71.038,-0.00015694,0
71.038,-0.00014049,0
71.039,-0.00013327,0
71.039,-0.00011699,0
71.04,-0.00010507,0
71.04,-0.0001237,0
71.041,-0.00015274,0
71.041,-0.00016651,0
71.042,-0.00016466,0
71.042,-0.0001707,0
71.043,-0.00019084,0
71.043,-0.0002036,0
71.044,-0.00018598,0
71.044,-0.00014267,0
71.045,-8.8289e-05,0
71.045,-3.4073e-05,0
71.046,1.1414e-05,0
71.046,4.7501e-05,0
71.047,8.3589e-05,0
71.047,0.00013327,0
71.048,0.00019051,0
71.048,0.000236,0
71.049,0.00026017,0
71.049,0.00027124,0
71.05,0.00029189,0
71.05,0.00033687,0
71.051,0.00038253,0
71.052,0.00040099,0
71.052,0.00038186,0
71.053,0.00033385,0
71.053,0.00027158,0
71.054,0.00019252,0
71.054,8.9632e-05,0
71.055,-3.122e-05,0
71.055,-0.00015207,0
71.056,-0.0002553,0
71.056,-0.00033251,0
71.057,-0.00037296,0
71.057,-0.00036088,0
71.058,-0.00030666,0
71.058,-0.00023919,0
71.059,-0.0001697,0
71.059,-9.5003e-05,0
71.06,-1.6281e-05,0
71.06,6.3951e-05,0
71.061,0.00013545,0
71.061,0.00018346,0
71.062,0.0001989,0
71.062,0.00019437,0
71.063,0.00019454,0
71.063,0.00020629,0
71.064,0.00020864,0
71.065,0.00019034,0
71.065,0.00015929,0
71.066,0.00012404,0
71.066,9.0471e-05,0
71.067,6.5293e-05,0
71.067,5.2537e-05,0
71.068,5.6901e-05,0
71.068,6.7979e-05,0
71.069,6.3615e-05,0
71.069,4.9851e-05,0
71.07,3.6759e-05,0
71.07,1.8967e-05,0
71.071,4.8676e-06,0
71.071,7.8889e-06,0
71.072,2.8031e-05,0
71.072,3.5752e-05,0
71.073,1.326e-05,0
71.073,-2.6352e-05,0
71.074,-6.63e-05,0
71.074,-9.7017e-05,0
71.075,-0.00011296,0
71.075,-0.00012589,0
71.076,-0.00014569,0
71.076,-0.00016735,0
71.077,-0.00017876,0
71.078,-0.00017859,0
71.078,-0.00015979,0
71.079,-0.00012589,0
71.079,-8.8457e-05,0
71.08,-4.9851e-05,0
71.08,-1.2924e-05,0
71.081,1.5946e-05,0
71.081,4.9516e-05,0
71.082,0.00010675,0
71.082,0.0002078,0
71.083,0.00031707,0
71.083,0.00036709,0
71.084,0.00035164,0
71.084,0.00032412,0
71.085,0.00031119,0
71.085,0.00029525,0
71.086,0.00026571,0
71.086,0.00021653,0
71.087,0.00014939,0
71.087,8.04e-05,0
71.088,-6.714e-07,0
71.088,-0.00010289,0
71.089,-0.0001895,0
71.089,-0.00022727,0
71.09,-0.00022257,0
71.09,-0.00019084,0
71.091,-0.00014351,0
71.092,-9.5506e-05,0
71.092,-6.6468e-05,0
71.093,-3.9612e-05,0
71.093,6.5461e-06,0
71.094,4.2802e-05,0
71.094,3.2731e-05,0
71.095,-1.6114e-05,0
71.095,-4.6326e-05,0
71.096,-4.8676e-06,0
71.096,0.00011431,0
71.097,0.00023348,0
71.097,0.00025496,0
71.098,0.00019152,0
71.098,0.00011615,0
71.099,4.2634e-05,0
71.099,-4.6159e-05,0
71.1,-0.00012807,0
71.1,-0.0001608,0
71.101,-0.00016802,0
71.101,-0.00021317,0
71.102,-0.00029357,0
71.102,-0.00032798,0
71.103,-0.00028602,0
71.103,-0.00024187,0
71.104,-0.00024002,0
71.105,-0.00024456,0
71.105,-0.00021468,0
71.106,-0.00015291,0
71.106,-9.0471e-05,0
71.107,-2.652e-05,0
71.107,6.0761e-05,0
71.108,0.00012001,0
71.108,0.00011179,0
71.109,9.2821e-05,0
71.109,0.00012136,0
71.11,0.00018077,0
71.11,0.00020931,0
71.111,0.00017372,0
71.111,9.5171e-05,0
71.112,3.6759e-05,0
71.112,3.3906e-05,0
71.113,6.5629e-05,0
71.113,8.8121e-05,0
71.114,0.00011716,0
71.114,0.00016567,0
71.115,0.00020092,0
71.115,0.00019017,0
71.116,0.00014066,0
71.116,9.8527e-05,0
71.117,0.00011582,0
71.117,0.00022945,0
71.118,0.00036944,0
71.119,0.00042147,0
71.119,0.00035634,0
71.12,0.00023281,0
71.12,0.00010004,0
71.121,-5.5222e-05,0
71.121,-0.0002412,0
71.122,-0.00042533,0
71.122,-0.00055776,0
71.123,-0.00060929,0
71.123,-0.0005816,0
71.124,-0.00052738,0
71.124,-0.00048458,0
71.125,-0.0004495,0
71.125,-0.00041727,0
71.126,-0.00038068,0
71.126,-0.00031539,0
71.127,-0.00020545,0
71.127,-6.5629e-05,0
71.128,6.8147e-05,0
71.128,0.00016097,0
71.129,0.00020528,0
71.129,0.00021585,0
71.13,0.00021837,0
71.13,0.00022408,0
71.131,0.00024204,0
71.132,0.00028853,0
71.132,0.00037716,0
71.133,0.00047619,0
71.133,0.00053561,0
71.134,0.00054836,0
71.134,0.00053695,0
71.135,0.00051312,0
71.135,0.00046125,0
71.136,0.00036641,0
71.136,0.00023734,0
71.137,0.00011682,0
71.137,3.7095e-05,0
71.138,-1.0407e-05,0
71.138,-4.2466e-05,0
71.139,-6.7811e-05,0
71.139,-9.9702e-05,0
71.14,-0.00013915,0
71.14,-0.00016265,0
71.141,-0.00014452,0
71.141,-8.3421e-05,0
71.142,-1.6953e-05,0
71.142,1.7792e-05,0
71.143,2.9709e-05,0
71.143,5.0187e-05,0
71.144,8.4596e-05,0
71.144,0.00012169,0
71.145,0.00015795,0
71.146,0.00017977,0
71.146,0.00017121,0
71.147,0.00013126,0
71.147,6.5629e-05,0
71.148,-1.1078e-05,0
71.148,-7.5029e-05,0
71.149,-0.00010692,0
71.149,-0.00010121,0
71.15,-7.335e-05,0
71.15,-3.8773e-05,0
71.151,1.2757e-05,0
71.151,9.1981e-05,0
71.152,0.00018296,0
71.152,0.00024808,0
71.153,0.00027913,0
71.153,0.00030935,0
71.154,0.00037313,0
71.154,0.00045168,0
71.155,0.00046511,0
71.155,0.00037699,0
71.156,0.0002459,0
71.156,0.0001519,0
71.157,9.0806e-05,0
71.157,1.1917e-05,0
71.158,-7.7211e-05,0
71.159,-0.0001378,0
71.159,-0.00018413,0
71.16,-0.00024439,0
71.16,-0.00030683,0
71.161,-0.00029894,0
71.161,-0.00020511,0
71.162,-0.00013176,0
71.162,-0.00014318,0
71.163,-0.00021451,0
71.163,-0.00030733,0
71.164,-0.00040502,0
71.164,-0.00049146,0
71.165,-0.00055625,0
71.165,-0.00058059,0
71.166,-0.00056313,0
71.166,-0.00053443,0
71.167,-0.0005022,0
71.167,-0.00044295,0
71.168,-0.00034476,0
71.168,-0.00023415,0
71.169,-0.00014653,0
71.169,-9.0303e-05,0
71.17,-4.3473e-05,0
71.17,1.4771e-05,0
71.171,8.3421e-05,0
71.171,0.00014788,0
71.172,0.00019118,0
71.173,0.00020259,0
71.173,0.00018715,0
71.174,0.00014989,0
71.174,9.836e-05,0
71.175,5.4215e-05,0
71.175,3.4745e-05,0
71.176,4.5487e-05,0
71.176,7.6036e-05,0
71.177,0.00010491,0
71.177,0.00012589,0
71.178,0.00014083,0
71.178,0.00014888,0
71.179,0.00016315,0
71.179,0.00019319,0
71.18,0.00023297,0
71.18,0.00026621,0
71.181,0.00029793,0
71.181,0.00034224,0
71.182,0.00038119,0
71.182,0.00039327,0
71.183,0.00038756,0
71.183,0.00036876,0
71.184,0.00033889,0
71.184,0.00032848,0
71.185,0.00034359,0
71.186,0.00034963,0
71.186,0.00032529,0
71.187,0.00030129,0
71.187,0.00030565,0
71.188,0.00029558,0
71.188,0.00021988,0
71.189,8.6442e-05,0
71.189,-6.1601e-05,0
71.19,-0.00019286,0
71.19,-0.0002929,0
71.191,-0.0003597,0
71.191,-0.00040233,0
71.192,-0.0004265,0
71.192,-0.00043171,0
71.193,-0.00041526,0
71.193,-0.0003738,0
71.194,-0.00031421,0
71.194,-0.00025261,0
71.195,-0.00020427,0
71.195,-0.00017876,0
71.196,-0.00016667,0
71.196,-0.00015056,0
71.197,-0.00012035,0
71.197,-7.6539e-05,0
71.198,-2.7024e-05,0
71.198,1.1246e-05,0
71.199,2.7863e-05,0
71.2,5.069e-05,0
71.2,0.00012102,0
71.201,0.00022794,0
71.201,0.00030867,0
71.202,0.0003315,0
71.202,0.00032026,0
71.203,0.00028585,0
71.203,0.0002182,0
71.204,0.00012203,0
71.204,4.9348e-05,0
71.205,5.623e-05,0
71.205,0.00013747,0
71.206,0.00026201,0
71.206,0.00041442,0
71.207,0.00051748,0
71.207,0.00050858,0
71.208,0.00043221,0
71.208,0.00037313,0
71.209,0.00033822,0
71.209,0.0002939,0
71.21,0.00023851,0
71.21,0.00017003,0
71.211,0.00011028,0
71.211,9.7185e-05,0
71.212,0.00010155,0
71.213,5.623e-05,0
71.213,-6.9993e-05,0
71.214,-0.00024623,0
71.214,-0.00040368,0
71.215,-0.00052302,0
71.215,-0.00063716,0
71.216,-0.00072847,0
71.216,-0.00076287,0
71.217,-0.00074777,0
71.217,-0.00070497,0
71.218,-0.00065243,0
71.218,-0.00060459,0
71.219,-0.00049986,0
71.219,-0.00028417,0
71.22,-4.3809e-05,0
71.22,9.4499e-05,0
71.221,9.8527e-05,0
71.221,4.8844e-05,0
71.222,4.7501e-05,0
71.222,8.6442e-05,0
71.223,8.8457e-05,0
71.223,3.978e-05,0
71.224,-1.091e-05,0
71.224,-3.3906e-05,0
71.225,-4.8844e-05,0
71.225,-7.9225e-05,0
71.226,-0.00011179,0
71.227,-0.00011733,0
71.227,-0.00010323,0
71.228,-8.4428e-05,0
71.228,-4.7333e-05,0
71.229,1.4939e-05,0
71.229,7.3686e-05,0
71.23,0.00011162,0
71.23,0.00013109,0
71.231,0.00012958,0
71.231,0.00011867,0
71.232,0.00012605,0
71.232,0.00016835,0
71.233,0.00023449,0
71.233,0.00028769,0
71.234,0.000308,0
71.234,0.00030398,0
71.235,0.00030062,0
71.235,0.00030834,0
71.236,0.00030163,0
71.236,0.00026268,0
71.237,0.00020125,0
71.237,0.00013545,0
71.238,7.8889e-05,0
71.238,4.3473e-05,0
71.239,2.9877e-05,0
71.24,2.1988e-05,0
71.24,1.1749e-06,0
71.241,-3.3906e-05,0
71.241,-6.1936e-05,0
71.242,-4.062e-05,0
71.242,7.7546e-05,0
71.243,0.00026168,0
71.243,0.00040703,0
71.244,0.00048055,0
71.244,0.00049935,0
71.245,0.0004819,0
71.245,0.00043825,0
71.246,0.00034661,0
71.246,0.00019689,0
71.247,2.7695e-05,0
71.247,-0.00012572,0
71.248,-0.00024993,0
71.248,-0.00034224,0
71.249,-0.00036641,0
71.249,-0.00028266,0
71.25,-0.00015509,0
71.25,-7.805e-05,0
71.251,-4.5823e-05,0
71.251,1.1917e-05,0
71.252,0.00010088,0
71.252,0.00019504,0
71.253,0.00030498,0
71.254,0.00042147,0
71.254,0.00050875,0
71.255,0.00052956,0
71.255,0.0004772,0
71.256,0.0004025,0
71.256,0.00033385,0
71.257,0.00025429,0
71.257,0.00013545,0
71.258,-3.8102e-05,0
71.258,-0.0002558,0
71.259,-0.00047518,0
71.259,-0.00064823,0
71.26,-0.00074559,0
71.26,-0.00076338,0
71.261,-0.00072813,0
71.261,-0.00067845,0
71.262,-0.00063732,0
71.262,-0.00059603,0
71.263,-0.00053947,0
71.263,-0.00045504,0
71.264,-0.00032361,0
71.264,-0.00013092,0
71.265,5.9419e-05,0
71.265,0.00016835,0
71.266,0.00019118,0
71.266,0.0001848,0
71.267,0.00018967,0
71.268,0.00019823,0
71.268,0.00018581,0
71.269,0.00016432,0
71.269,0.00015325,0
71.27,0.00014603,0
71.27,0.00013008,0
71.271,0.00011296,0
71.271,0.00012068,0
71.272,0.0001519,0
71.272,0.00016533,0
71.273,0.00014452,0
71.273,0.00012975,0
71.274,0.0001415,0
71.274,0.000165,0
71.275,0.00017104,0
71.275,0.00012807,0
71.276,3.2731e-05,0
71.276,-8.2414e-05,0
71.277,-0.00016483,0
71.277,-0.00019051,0
71.278,-0.00017658,0
71.278,-0.0001425,0
71.279,-9.3492e-05,0
71.279,-4.0284e-05,0
71.28,7.5532e-06,0
71.281,4.1459e-05,0
71.281,5.7908e-05,0
71.282,7.4189e-05,0
71.282,0.00010172,0
71.283,0.00012438,0
71.283,0.00012522,0
71.284,9.8527e-05,0
71.284,4.9683e-05,0
71.285,-1.8463e-06,0
71.285,-3.2395e-05,0
71.286,-3.1891e-05,0
71.286,-1.1749e-05,0
71.287,1.2421e-05,0
71.287,2.5849e-05,0
71.288,2.9038e-05,0
71.288,3.6759e-05,0
71.289,5.7572e-05,0
71.289,8.3085e-05,0
71.29,9.4499e-05,0
71.29,8.51e-05,0
71.291,7.0329e-05,0
71.291,6.0929e-05,0
71.292,5.5726e-05,0
71.292,4.918e-05,0
71.293,4.1123e-05,0
71.293,3.4073e-05,0
71.294,3.5584e-05,0
71.295,4.7333e-05,0
71.295,7.1336e-05,0
71.296,0.0001039,0
71.296,0.0001519,0
71.297,0.00021518,0
71.297,0.00026101,0
71.298,0.00026352,0
71.298,0.00023079,0
71.299,0.00018413,0
71.299,0.00013814,0
71.3,9.6849e-05,0
71.3,6.3615e-05,0
71.301,4.2802e-05,0
71.301,3.6759e-05,0
71.302,4.213e-05,0
71.302,4.8676e-05,0
71.303,3.743e-05,0
71.303,1.6785e-06,0
71.304,-4.3809e-05,0
71.304,-7.4189e-05,0
71.305,-6.4622e-05,0
71.305,5.2033e-06,0
71.306,0.00013378,0
71.306,0.00030381,0
71.307,0.00045974,0
71.308,0.00059335,0
71.308,0.00071873,0
71.309,0.00080014,0
71.309,0.00078201,0
71.31,0.00063766,0
71.31,0.00041509,0
71.311,0.00015962,0
71.311,-0.00010474,0
71.312,-0.00034124,0
71.312,-0.00051933,0
71.313,-0.00063632,0
71.313,-0.00071,0
71.314,-0.00075851,0
71.314,-0.00077882,0
71.315,-0.00077076,0
71.315,-0.00074794,0
71.316,-0.00072645,0
71.316,-0.00072041,0
71.317,-0.0006818,0
71.317,-0.00052755,0
71.318,-0.00029424,0
71.318,-8.9799e-05,0
71.319,3.3906e-05,0
71.319,9.0303e-05,0
71.32,0.00011128,0
71.32,9.7185e-05,0
71.321,4.918e-05,0
71.322,-1.561e-05,0
71.322,-7.1839e-05,0
71.323,-9.2317e-05,0
71.323,-6.4286e-05,0
71.324,-1.0742e-05,0
71.324,4.4312e-05,0
71.325,0.00011028,0
71.325,0.00021871,0
71.326,0.00035433,0
71.326,0.00045991,0
71.327,0.00050741,0
71.327,0.00052151,0
71.328,0.00051513,0
71.328,0.0004819,0
71.329,0.00038085,0
71.329,0.00020595,0
71.33,3.8605e-06,0
71.33,-0.00017372,0
71.331,-0.0002976,0
71.331,-0.00037447,0
71.332,-0.00041324,0
71.332,-0.00038773,0
71.333,-0.00028383,0
71.333,-0.00014788,0
71.334,-4.5151e-05,0
71.335,-5.0355e-07,0
71.335,1.4939e-05,0
71.336,4.0787e-05,0
71.336,8.51e-05,0
71.337,0.0001232,0
71.337,0.00012404,0
71.338,8.9128e-05,0
71.338,4.8508e-05,0
71.339,3.6088e-05,0
71.339,7.8721e-05,0
71.34,0.00016365,0
71.34,0.00024456,0
71.341,0.00030465,0
71.341,0.00036071,0
71.342,0.00040099,0
71.342,0.00039461,0
71.343,0.00033083,0
71.343,0.00023247,0
71.344,0.00011531,0
71.344,-1.1246e-05,0
71.345,-0.00012505,0
71.345,-0.000213,0
71.346,-0.00026923,0
71.346,-0.00029592,0
71.347,-0.00030179,0
71.347,-0.00028954,0
71.348,-0.00025144,0
71.349,-0.00020075,0
71.349,-0.00015795,0
71.35,-0.00013109,0
71.35,-0.00010188,0
71.351,-4.7501e-05,0
71.351,1.561e-05,0
71.352,5.3544e-05,0
71.352,7.2007e-05,0
71.353,8.7114e-05,0
71.353,8.7785e-05,0
71.354,6.8147e-05,0
71.354,5.5894e-05,0
71.355,5.8244e-05,0
71.355,6.4958e-05,0
71.356,7.1e-05,0
71.356,9.3492e-05,0
71.357,0.0001942,0
71.357,0.00036457,0
71.358,0.00051546,0
71.358,0.00057555,0
71.359,0.00056045,0
71.359,0.00052621,0
71.36,0.00046007,0
71.36,0.00032747,0
71.361,0.0001744,0
71.362,4.7333e-05,0
71.362,-6.0594e-05,0
71.363,-0.00015711,0
71.363,-0.00024271,0
71.364,-0.00030733,0
71.364,-0.00036121,0
71.365,-0.00043557,0
71.365,-0.00052218,0
71.366,-0.00058059,0
71.366,-0.00058109,0
71.367,-0.00051748,0
71.367,-0.00041946,0
71.368,-0.00032798,0
71.368,-0.00025194,0
71.369,-0.00017859,0
71.369,-0.00010977,0
71.37,-5.1865e-05,0
71.37,5.8747e-06,0
71.371,6.8986e-05,0
71.371,0.00012438,0
71.372,0.00016164,0
71.372,0.00019403,0
71.373,0.00023381,0
71.373,0.00028518,0
71.374,0.00033553,0
71.374,0.00035634,0
71.375,0.00033519,0
71.376,0.00030398,0
71.376,0.00030364,0
71.377,0.00034594,0
71.377,0.00040099,0
71.378,0.00042734,0
71.378,0.00041341,0
71.379,0.00038756,0
71.379,0.0003649,0
71.38,0.00031908,0
71.38,0.00024305,0
71.381,0.00016432,0
71.381,8.6778e-05,0
71.382,7.2175e-06,0
71.382,-4.7837e-05,0
71.383,-4.8676e-05,0
71.383,-1.6617e-05,0
71.384,-2.2995e-05,0
71.384,-9.6178e-05,0
71.385,-0.00018631,0
71.385,-0.0002182,0
71.386,-0.00017809,0
71.386,-0.00013059,0
71.387,-0.00012387,0
71.387,-0.00014687,0
71.388,-0.00017809,0
71.389,-0.00022475,0
71.389,-0.00029726,0
71.39,-0.00035886,0
71.39,-0.00036524,0
71.391,-0.00031354,0
71.391,-0.00024758,0
71.392,-0.00018682,0
71.392,-0.00010793,0
71.393,-1.5274e-05,0
71.393,5.4551e-05,0
71.394,9.0806e-05,0
71.394,8.5771e-05,0
71.395,4.448e-05,0
71.395,-1.2924e-05,0
71.396,-7.8553e-05,0
71.396,-0.00013529,0
71.397,-0.00016516,0
71.397,-0.00017624,0
71.398,-0.00018631,0
71.398,-0.0001942,0
71.399,-0.000189,0
71.399,-0.00016449,0
71.4,-0.00010977,0
71.4,-2.8367e-05,0
71.401,5.5558e-05,0
71.401,0.00012253,0
71.402,0.00017675,0
71.403,0.00023247,0
71.403,0.00028618,0
71.404,0.00031992,0
71.404,0.00032613,0
71.405,0.00030851,0
71.405,0.00026839,0
71.406,0.00020293,0
71.406,0.00013478,0
71.407,8.275e-05,0
71.407,3.0716e-05,0
71.408,-3.3402e-05,0
71.408,-9.7353e-05,0
71.409,-0.00014536,0
71.409,-0.00017003,0
71.41,-0.00016416,0
71.41,-0.00011716,0
71.411,-2.6017e-05,0
71.411,9.1814e-05,0
71.412,0.00019756,0
71.412,0.00025597,0
71.413,0.00027645,0
71.413,0.00030028,0
71.414,0.00032412,0
71.414,0.00031254,0
71.415,0.00026638,0
71.416,0.00021166,0
71.416,0.000165,0
71.417,0.00012538,0
71.417,9.4163e-05,0
71.418,9.6513e-05,0
71.418,0.00012438,0
71.419,0.00013344,0
71.419,0.00010944,0
71.42,7.3686e-05,0
71.42,3.2395e-05,0
71.421,-3.0381e-05,0
71.421,-0.00011296,0
71.422,-0.00017406,0
71.422,-0.00016533,0
71.423,-8.3253e-05,0
71.423,2.4002e-05,0
71.424,0.00011095,0
71.424,0.00019454,0
71.425,0.00026235,0
71.425,0.00026302,0
71.426,0.00021132,0
71.426,0.00014049,0
71.427,6.2608e-05,0
71.427,-1.9303e-05,0
71.428,-0.00010323,0
71.428,-0.00017557,0
71.429,-0.00023281,0
71.43,-0.00029508,0
71.43,-0.00036004,0
71.431,-0.00041526,0
71.431,-0.00046209,0
71.432,-0.00049281,0
71.432,-0.00048794,0
71.433,-0.00044178,0
71.433,-0.00037649,0
71.434,-0.00031086,0
71.434,-0.0002548,0
71.435,-0.00020444,0
71.435,-0.00014116,0
71.436,-6.1936e-05,0
71.436,1.1246e-05,0
71.437,7.335e-05,0
71.437,0.00014821,0
71.438,0.00023214,0
71.438,0.00028518,0
71.439,0.00029323,0
71.439,0.00028988,0
71.44,0.00029525,0
71.44,0.00029357,0
71.441,0.00027259,0
71.441,0.00024154,0
71.442,0.0002125,0
71.443,0.00018782,0
71.443,0.0001608,0
71.444,0.00012203,0
71.444,8.1743e-05,0
71.445,4.8844e-05,0
71.445,2.4002e-05,0
71.446,1.2253e-05,0
71.446,8.7282e-06,0
71.447,-5.0355e-07,0
71.447,5.0355e-07,0
71.448,3.1388e-05,0
71.448,6.9993e-05,0
71.449,9.2821e-05,0
71.449,0.00010323,0
71.45,0.00010407,0
71.45,9.3828e-05,0
71.451,6.6804e-05,0
71.451,2.8031e-05,0
71.452,-2.0142e-06,0
71.452,-9.5674e-06,0
71.453,-8.3925e-07,0
71.453,1.5106e-06,0
71.454,-1.1582e-05,0
71.454,-2.6688e-05,0
71.455,-2.6352e-05,0
71.456,-1.2253e-05,0
71.456,-2.182e-06,0
71.457,-6.714e-06,0
71.457,-2.266e-05,0
71.458,-4.4312e-05,0
71.458,-3.6423e-05,0
71.459,1.0575e-05,0
71.459,5.8915e-05,0
71.46,8.5771e-05,0
71.46,9.5506e-05,0
71.461,9.1142e-05,0
71.461,7.0329e-05,0
71.462,3.1052e-05,0
71.462,-1.3764e-05,0
71.463,-4.8508e-05,0
71.463,-5.9251e-05,0
71.464,-4.5487e-05,0
71.464,-2.0981e-05,0
71.465,4.8676e-06,0
71.465,3.1388e-05,0
71.466,5.9586e-05,0
71.466,8.7953e-05,0
71.467,0.00011649,0
71.467,0.00012975,0
71.468,0.00011363,0
71.468,8.2078e-05,0
71.469,7.5029e-05,0
71.47,0.00011095,0
71.47,0.00018631,0
71.471,0.00027376,0
71.471,0.00031774,0
71.472,0.00028534,0
71.472,0.00019655,0
71.473,0.00011263,0
71.473,6.0594e-05,0
71.474,-6.714e-07,0
71.474,-9.8024e-05,0
71.475,-0.00021451,0
71.475,-0.00031791,0
71.476,-0.00038521,0
71.476,-0.00041056,0
71.477,-0.00039495,0
71.477,-0.0003498,0
71.478,-0.00029558,0
71.478,-0.00023633,0
71.479,-0.00017188,0
71.479,-0.00010994,0
71.48,-4.448e-05,0
71.48,3.0045e-05,0
71.481,0.0001086,0
71.481,0.00017574,0
71.482,0.00022441,0
71.483,0.00025362,0
71.483,0.00025093,0
71.484,0.00021971,0
71.484,0.00017943,0
71.485,0.00015845,0
71.485,0.00017775,0
71.486,0.00020981,0
71.486,0.0002177,0
71.487,0.00019689,0
71.487,0.00018413,0
71.488,0.00020293,0
71.488,0.00022089,0
71.489,0.00019857,0
71.489,0.0001472,0
71.49,9.2485e-05,0
71.49,4.5823e-05,0
71.491,1.1749e-06,0
71.491,-5.2537e-05,0
71.492,-9.987e-05,0
71.492,-0.00011431,0
71.493,-0.00010591,0
71.493,-0.00010491,0
71.494,-0.00012018,0
71.494,-0.00014015,0
71.495,-0.00015459,0
71.495,-0.00017725,0
71.496,-0.00020897,0
71.497,-0.00022878,0
71.497,-0.00022878,0
71.498,-0.00022106,0
71.498,-0.00022274,0
71.499,-0.00021988,0
71.499,-0.00018984,0
71.5,-0.00014452,0
71.5,-0.00010474,0
71.501,-8.1239e-05,0
71.501,-7.0161e-05,0
71.502,-6.4958e-05,0
71.502,-6.5629e-05,0
71.503,-7.1672e-05,0
71.503,-8.3925e-05,0
71.504,-9.752e-05,0
71.504,-9.1142e-05,0
71.505,-4.7669e-05,0
71.505,1.796e-05,0
71.506,0.00010121,0
71.506,0.00020528,0
71.507,0.0002939,0
71.507,0.00034292,0
71.508,0.00036373,0
71.508,0.00036104,0
71.509,0.00033452,0
71.51,0.00028837,0
71.51,0.0002224,0
71.511,0.00013948,0
71.511,4.9012e-05,0
71.512,-3.8437e-05,0
71.512,-0.0001091,0
71.513,-0.00015073,0
71.513,-0.00016802,0
71.514,-0.00017255,0
71.514,-0.00017658,0
71.515,-0.00016869,0
71.515,-0.0001321,0
71.516,-7.7379e-05,0
71.516,-3.0381e-05,0
71.517,-8.3925e-07,0
71.517,2.3331e-05,0
71.518,4.6662e-05,0
71.518,6.0258e-05,0
71.519,5.7572e-05,0
71.519,4.5151e-05,0
71.52,4.0787e-05,0
71.52,5.623e-05,0
71.521,8.5771e-05,0
71.521,0.00011749,0
71.522,0.00014586,0
71.522,0.00016298,0
71.523,0.00016399,0
71.524,0.00015358,0
71.524,0.00014351,0
71.525,0.00014049,0
71.525,0.00013915,0
71.526,0.0001368,0
71.526,0.00012773,0
71.527,0.00011246,0
71.527,9.6178e-05,0
71.528,8.5771e-05,0
71.528,9.6513e-05,0
71.529,0.00013948,0
71.529,0.00022139,0
71.53,0.00031002,0
71.53,0.00034694,0
71.531,0.00032647,0
71.531,0.00028853,0
71.532,0.00025496,0
71.532,0.00020998,0
71.533,0.00013881,0
71.533,5.5222e-05,0
71.534,-2.4338e-05,0
71.534,-9.2653e-05,0
71.535,-0.00014788,0
71.535,-0.00018144,0
71.536,-0.00017842,0
71.537,-0.00015123,0
71.537,-0.00013411,0
71.538,-0.00013814,0
71.538,-0.00013848,0
71.539,-0.00011313,0
71.539,-8.0232e-05,0
71.54,-4.1459e-05,0
71.54,3.4409e-05,0
71.541,0.00013478,0
71.541,0.00023079,0
71.542,0.00030767,0
71.542,0.00035702,0
71.543,0.00035634,0
71.543,0.00030867,0
71.544,0.00022979,0
71.544,0.00010994,0
71.545,-5.2537e-05,0
71.545,-0.00021703,0
71.546,-0.00034023,0
71.546,-0.0004166,0
71.547,-0.00046226,0
71.547,-0.00048643,0
71.548,-0.00048945,0
71.548,-0.00048945,0
71.549,-0.00051681,0
71.549,-0.0005633,0
71.55,-0.00058277,0
71.551,-0.00054668,0
71.551,-0.00045655,0
71.552,-0.00033167,0
71.552,-0.00020763,0
71.553,-0.00010759,0
71.553,-5.3544e-05,0
71.554,-4.4312e-05,0
71.554,-4.0787e-05,0
71.555,-1.4771e-05,0
71.555,2.9038e-05,0
71.556,7.2847e-05,0
71.556,0.00010642,0
71.557,0.0001368,0
71.557,0.00016768,0
71.558,0.00018849,0
71.558,0.00018883,0
71.559,0.00017406,0
71.559,0.0001566,0
71.56,0.00014855,0
71.56,0.0001566,0
71.561,0.00017624,0
71.561,0.00019689,0
71.562,0.00021233,0
71.562,0.00022408,0
71.563,0.00023348,0
71.564,0.00024237,0
71.564,0.00025496,0
71.565,0.00027376,0
71.565,0.00030431,0
71.566,0.00033587,0
71.566,0.00035702,0
71.567,0.00036306,0
71.567,0.00034359,0
71.568,0.00029424,0
71.568,0.00022878,0
71.569,0.00015123,0
71.569,6.7979e-05,0
71.57,-2.5177e-06,0
71.57,-5.1362e-05,0
71.571,-8.2582e-05,0
71.571,-9.752e-05,0
71.572,-0.00010625,0
71.572,-0.00012337,0
71.573,-0.00014586,0
71.573,-0.00015627,0
71.574,-0.00014788,0
71.574,-0.00012807,0
71.575,-0.00010105,0
71.575,-6.3615e-05,0
71.576,-2.0142e-05,0
71.576,1.6281e-05,0
71.577,3.6088e-05,0
71.578,3.743e-05,0
71.578,3.4577e-05,0
71.579,3.4745e-05,0
71.579,3.3402e-05,0
71.58,3.2395e-05,0
71.58,4.7669e-05,0
71.581,8.426e-05,0
71.581,0.00012673,0
71.582,0.00015761,0
71.582,0.00016869,0
71.583,0.00016416,0
71.583,0.00015358,0
71.584,0.00014754,0
71.584,0.00014015,0
71.585,0.00012438,0
71.585,9.9702e-05,0
71.586,7.2007e-05,0
71.586,4.3137e-05,0
71.587,1.3092e-05,0
71.587,-1.6617e-05,0
71.588,-4.4648e-05,0
71.588,-6.7475e-05,0
71.589,-7.5029e-05,0
71.589,-7.0832e-05,0
71.59,-6.4622e-05,0
71.591,-5.4551e-05,0
71.591,-3.8773e-05,0
71.592,-2.3667e-05,0
71.592,-1.3764e-05,0
71.593,-2.8534e-06,0
71.593,2.2324e-05,0
71.594,5.3376e-05,0
71.594,6.4286e-05,0
71.595,4.4648e-05,0
71.595,1.3596e-05,0
71.596,1.6785e-07,0
71.596,3.8605e-06,0
71.597,6.8818e-06,0
71.597,-1.5106e-06,0
71.598,-1.4603e-05,0
71.598,-1.9974e-05,0
71.599,-2.266e-05,0
71.599,-3.6088e-05,0
71.6,-6.1265e-05,0
71.6,-8.7785e-05,0
71.601,-0.00010608,0
71.601,-0.00011582,0
71.602,-0.00012236,0
71.602,-0.00011884,0
71.603,-0.00010927,0
71.603,-9.987e-05,0
71.604,-9.0974e-05,0
71.605,-8.1239e-05,0
71.605,-6.6972e-05,0
71.606,-4.9683e-05,0
71.606,-2.7695e-05,0
71.607,5.8747e-06,0
71.607,4.6159e-05,0
71.608,9.2485e-05,0
71.608,0.0001425,0
71.609,0.00018514,0
71.609,0.00021334,0
71.61,0.00022139,0
71.61,0.0002088,0
71.611,0.00018967,0
71.611,0.00019319,0
71.612,0.00023348,0
71.612,0.00027578,0
71.613,0.00028853,0
71.613,0.00028585,0
71.614,0.00028702,0
71.614,0.00027443,0
71.615,0.00024556,0
71.615,0.00022072,0
71.616,0.00018933,0
71.616,0.00011246,0
71.617,-2.8702e-05,0
71.618,-0.00019286,0
71.618,-0.00030884,0
71.619,-0.00034325,0
71.619,-0.0003315,0
71.62,-0.00032966,0
71.62,-0.00035399,0
71.621,-0.00038354,0
71.621,-0.00039831,0
71.622,-0.00039025,0
71.622,-0.0003696,0
71.623,-0.00034896,0
71.623,-0.00033536,0
71.624,-0.00032932,0
71.624,-0.0003169,0
71.625,-0.00027645,0
71.625,-0.00020696,0
71.626,-0.00013411,0
71.626,-7.57e-05,0
71.627,-3.1724e-05,0
71.627,5.8747e-06,0
71.628,4.4648e-05,0
71.628,8.1575e-05,0
71.629,0.00011162,0
71.629,0.00013613,0
71.63,0.00016365,0
71.63,0.00019001,0
71.631,0.00020092,0
71.632,0.00019185,0
71.632,0.00016936,0
71.633,0.00014049,0
71.633,0.00011431,0
71.634,9.6513e-05,0
71.634,9.4667e-05,0
71.635,0.00010709,0
71.635,0.00012471,0
71.636,0.00014385,0
71.636,0.00017037,0
71.637,0.00020394,0
71.637,0.00023751,0
71.638,0.00026302,0
71.638,0.00028786,0
71.639,0.00031136,0
71.639,0.00033285,0
71.64,0.00038186,0
71.64,0.00046612,0
71.641,0.00055843,0
71.641,0.00063027,0
71.642,0.00064236,0
71.642,0.00057656,0
71.643,0.00045554,0
71.643,0.00030196,0
71.644,0.00012119,0
71.644,-6.8147e-05,0
71.645,-0.00024288,0
71.646,-0.00038538,0
71.646,-0.00048928,0
71.647,-0.00055877,0
71.647,-0.00060594,0
71.648,-0.00062876,0
71.648,-0.00062138,0
71.649,-0.00059016,0
71.649,-0.00055256,0
71.65,-0.00050942,0
71.65,-0.00044547,0
71.651,-0.00035383,0
71.651,-0.00025295,0
71.652,-0.00016248,0
71.652,-8.7785e-05,0
71.653,-2.9206e-05,0
71.653,1.4939e-05,0
71.654,5.2873e-05,0
71.654,0.00010088,0
71.655,0.00016432,0
71.655,0.00023062,0
71.656,0.00027745,0
71.656,0.0002939,0
71.657,0.0002892,0
71.657,0.00028182,0
71.658,0.0002788,0
71.659,0.00027527,0
71.659,0.00027343,0
71.66,0.00026285,0
71.66,0.00023684,0
71.661,0.00020327,0
71.661,0.0001848,0
71.662,0.00019924,0
71.662,0.00024523,0
71.663,0.000308,0
71.663,0.00034157,0
71.664,0.00030565,0
71.664,0.0002224,0
71.665,0.0001331,0
71.665,5.6901e-05,0
71.666,6.2104e-06,0
71.666,-2.0981e-05,0
71.667,-3.8102e-05,0
71.667,-3.7934e-05,0
