75.561,-1.6785e-07,0
75.562,6.5461e-06,0
75.562,4.1962e-06,0
75.563,-6.2104e-06,0
75.563,-1.8799e-05,0
75.564,-1.5778e-05,0
75.564,2.2492e-05,0
75.565,8.7449e-05,0
75.565,0.00013378,0
75.566,0.0001284,0
75.566,8.6442e-05,0
75.567,3.9277e-05,0
75.567,1.0575e-05,0
75.568,2.5177e-06,0
75.568,-2.3499e-06,0
75.569,-1.9135e-05,0
75.569,-4.3137e-05,0
75.57,-6.5293e-05,0
75.57,-9.1478e-05,0
75.571,-0.00011431,0
75.571,-0.00011229,0
75.572,-8.3085e-05,0
75.572,-3.6423e-05,0
75.573,1.3764e-05,0
75.574,5.0523e-05,0
75.574,6.7308e-05,0
75.575,6.9657e-05,0
75.575,6.5293e-05,0
75.576,5.7237e-05,0
75.576,4.8508e-05,0
75.577,2.6017e-05,0
75.577,-1.0407e-05,0
75.578,-3.6423e-05,0
75.578,-4.9516e-05,0
75.579,-6.0594e-05,0
75.579,-6.0426e-05,0
75.58,-2.4338e-05,0
75.58,6.1265e-05,0
75.581,0.00016718,0
75.581,0.00023684,0
75.582,0.00024691,0
75.582,0.00024288,0
75.583,0.00025496,0
75.583,0.00026873,0
75.584,0.00026806,0
75.584,0.00022358,0
75.585,0.00012068,0
75.585,-1.6785e-07,0
75.586,-8.8457e-05,0
75.587,-0.0001368,0
75.587,-0.00015862,0
75.588,-0.00015157,0
75.588,-0.00011682,0
75.589,-9.0639e-05,0
75.589,-7.9561e-05,0
75.59,-6.4118e-05,0
75.59,-4.3473e-05,0
75.591,-2.5177e-05,0
75.591,5.7069e-06,0
75.592,5.4047e-05,0
75.592,0.00010021,0
75.593,0.00012773,0
75.593,0.00013075,0
75.594,0.00010423,0
75.594,6.1936e-05,0
75.595,3.0045e-05,0
75.595,1.4267e-05,0
75.596,3.5248e-06,0
75.596,-8.896e-06,0
75.597,-2.7359e-05,0
75.597,-4.7501e-05,0
75.598,-6.3279e-05,0
75.598,-8.3757e-05,0
75.599,-0.00010574,0
75.599,-0.00011128,0
75.6,-9.9367e-05,0
75.601,-7.57e-05,0
75.601,-4.7501e-05,0
75.602,-2.2492e-05,0
75.602,-2.8534e-06,0
75.603,1.8296e-05,0
75.603,5.3544e-05,0
75.604,9.9199e-05,0
75.604,0.00012941,0
75.605,0.00013143,0
75.605,0.0001086,0
75.606,6.5293e-05,0
75.606,1.4603e-05,0
75.607,-2.2995e-05,0
75.607,-3.7095e-05,0
75.608,-2.8534e-05,0
75.608,-8.2246e-06,0
75.609,2.1988e-05,0
75.609,6.0594e-05,0
75.61,8.8792e-05,0
75.61,9.6513e-05,0
75.611,9.4331e-05,0
75.611,8.426e-05,0
75.612,5.7572e-05,0
75.612,2.0981e-05,0
75.613,-4.8676e-06,0
75.614,-1.5106e-05,0
75.614,-1.0239e-05,0
75.615,1.6953e-05,0
75.615,6.2608e-05,0
75.616,9.3828e-05,0
75.616,8.7114e-05,0
75.617,5.7908e-05,0
75.617,3.4073e-05,0
75.618,2.2324e-05,0
75.618,1.4435e-05,0
75.619,7.2175e-06,0
75.619,-4.1962e-06,0
75.62,-1.7288e-05,0
75.62,-1.0071e-05,0
75.621,2.1317e-05,0
75.621,4.8844e-05,0
75.622,4.3473e-05,0
75.622,1.9638e-05,0
75.623,-1.5106e-06,0
75.623,-1.7624e-05,0
75.624,-2.1653e-05,0
75.624,-1.0575e-05,0
75.625,-1.8463e-06,0
75.625,-7.8889e-06,0
75.626,-1.6281e-05,0
75.626,-5.7069e-06,0
75.627,3.3234e-05,0
75.628,9.6345e-05,0
75.628,0.00014754,0
75.629,0.00014905,0
75.629,9.8863e-05,0
75.63,3.8605e-05,0
75.63,8.5603e-06,0
75.631,1.4939e-05,0
75.631,2.887e-05,0
75.632,3.6591e-05,0
75.632,5.1362e-05,0
75.633,6.9154e-05,0
75.633,6.5965e-05,0
75.634,3.7766e-05,0
75.634,5.8747e-06,0
75.635,-3.8605e-06,0
75.635,7.5532e-06,0
75.636,1.6953e-05,0
75.636,7.8889e-06,0
75.637,-2.0142e-05,0
75.637,-4.5151e-05,0
75.638,-4.1459e-05,0
75.638,-1.5106e-05,0
75.639,8.2246e-06,0
75.639,7.5532e-06,0
75.64,-1.7121e-05,0
75.641,-4.4144e-05,0
75.641,-5.539e-05,0
75.642,-4.5991e-05,0
75.642,-3.4073e-05,0
75.643,-3.8437e-05,0
75.643,-4.4144e-05,0
75.644,-4.683e-05,0
75.644,-5.3208e-05,0
75.645,-5.5726e-05,0
75.645,-4.448e-05,0
75.646,-1.9638e-05,0
75.646,2.5177e-06,0
75.647,1.4435e-05,0
75.647,1.6953e-05,0
75.648,-3.6927e-06,0
75.648,-4.6662e-05,0
75.649,-8.426e-05,0
75.649,-9.2821e-05,0
75.65,-6.6636e-05,0
75.65,-2.266e-05,0
75.651,1.561e-05,0
75.651,4.6998e-05,0
75.652,7.9393e-05,0
75.652,9.2485e-05,0
75.653,7.1672e-05,0
75.653,3.0716e-05,0
75.654,1.6785e-07,0
75.655,1.8463e-06,0
75.655,1.796e-05,0
75.656,1.7121e-05,0
75.656,7.0497e-06,0
75.657,-6.3783e-06,0
75.657,-2.9374e-05,0
75.658,-4.3137e-05,0
75.658,-2.9374e-05,0
75.659,1.1582e-05,0
75.659,5.8915e-05,0
75.66,8.7785e-05,0
75.66,9.5506e-05,0
75.661,9.9199e-05,0
75.661,0.00010994,0
75.662,0.00011984,0
75.662,0.00012068,0
75.663,0.00011498,0
75.663,0.00011112,0
75.664,0.00011061,0
75.664,0.0001086,0
75.665,0.00010726,0
75.665,0.00011128,0
75.666,0.00011649,0
75.666,0.00011934,0
75.667,0.0001086,0
75.668,7.8553e-05,0
75.668,3.9948e-05,0
75.669,5.2033e-06,0
75.669,-2.2995e-05,0
75.67,-5.9251e-05,0
75.67,-0.00011028,0
75.671,-0.00013948,0
75.671,-0.0001227,0
75.672,-8.1239e-05,0
75.672,-4.8508e-05,0
75.673,-2.7359e-05,0
75.673,-6.5461e-06,0
75.674,2.3667e-05,0
75.674,6.4958e-05,0
75.675,0.00010977,0
75.675,0.0001373,0
75.676,0.00011598,0
75.676,4.5991e-05,0
75.677,-2.7359e-05,0
75.677,-6.2943e-05,0
75.678,-7.0665e-05,0
75.678,-7.1336e-05,0
75.679,-6.7979e-05,0
75.679,-6.6972e-05,0
75.68,-4.3473e-05,0
75.68,2.0981e-05,0
75.681,9.4499e-05,0
75.682,0.00013143,0
75.682,0.00012404,0
75.683,0.00010591,0
75.683,0.00010826,0
75.684,0.00013008,0
75.684,0.0001519,0
75.685,0.0001603,0
75.685,0.00016416,0
75.686,0.00017473,0
75.686,0.00019554,0
75.687,0.00021401,0
75.687,0.00020864,0
75.688,0.00017305,0
75.688,0.00012253,0
75.689,7.5029e-05,0
75.689,2.5681e-05,0
75.69,-3.7263e-05,0
75.69,-0.00011699,0
75.691,-0.00020545,0
75.691,-0.0002699,0
75.692,-0.00028081,0
75.692,-0.00023616,0
75.693,-0.00016013,0
75.693,-8.3925e-05,0
75.694,-2.2156e-05,0
75.695,2.031e-05,0
75.695,4.3473e-05,0
75.696,4.918e-05,0
75.696,4.3473e-05,0
75.697,3.6591e-05,0
75.697,2.6352e-05,0
75.698,1.5106e-06,0
75.698,-3.7766e-05,0
75.699,-7.6707e-05,0
75.699,-9.8863e-05,0
75.7,-0.00010105,0
75.7,-8.7114e-05,0
75.701,-6.3615e-05,0
75.701,-3.7766e-05,0
75.702,-2.266e-05,0
75.702,-2.0981e-05,0
75.703,-1.8967e-05,0
75.703,-6.5461e-06,0
75.704,1.9806e-05,0
75.704,5.0019e-05,0
75.705,7.4357e-05,0
75.705,8.7282e-05,0
75.706,8.9128e-05,0
75.706,8.7953e-05,0
75.707,8.896e-05,0
75.707,8.5771e-05,0
75.708,7.1672e-05,0
75.709,5.5558e-05,0
75.709,5.0019e-05,0
75.71,6.3783e-05,0
75.71,8.9464e-05,0
75.711,0.00011212,0
75.711,0.0001086,0
75.712,7.9057e-05,0
75.712,5.0858e-05,0
75.713,3.3066e-05,0
75.713,1.7624e-05,0
75.714,-8.2246e-06,0
75.714,-5.9419e-05,0
75.715,-0.00012605,0
75.715,-0.00016399,0
75.716,-0.0001472,0
75.716,-9.5171e-05,0
75.717,-4.7166e-05,0
75.717,-1.9638e-05,0
75.718,-4.5319e-06,0
75.718,8.5603e-06,0
75.719,1.3092e-05,0
75.719,7.8889e-06,0
75.72,2.182e-06,0
75.72,-4.5319e-06,0
75.721,-1.3931e-05,0
75.722,-2.6184e-05,0
75.722,-2.7863e-05,0
75.723,-4.8676e-06,0
75.723,3.6088e-05,0
75.724,6.949e-05,0
75.724,9.9199e-05,0
75.725,0.00013545,0
75.725,0.0001697,0
75.726,0.00018161,0
75.726,0.0001707,0
75.727,0.00014217,0
75.727,9.1142e-05,0
75.728,3.8773e-05,0
75.728,2.9038e-05,0
75.729,5.8915e-05,0
75.729,9.2149e-05,0
75.73,0.00011044,0
75.73,0.00012169,0
75.731,0.00013378,0
75.731,0.00014385,0
75.732,0.00015224,0
75.732,0.00014989,0
75.733,0.00011028,0
75.733,2.6352e-05,0
75.734,-6.3447e-05,0
75.734,-0.00012136,0
75.735,-0.0001425,0
75.736,-0.0001368,0
75.736,-9.3828e-05,0
75.737,-1.8463e-05,0
75.737,4.3641e-05,0
75.738,6.4286e-05,0
75.738,5.5055e-05,0
75.739,2.3331e-05,0
75.739,-1.2421e-05,0
75.74,-1.6449e-05,0
75.74,1.3931e-05,0
75.741,5.9251e-05,0
75.741,0.00011431,0
75.742,0.00014351,0
75.742,0.00012236,0
75.743,7.4861e-05,0
75.743,2.5681e-05,0
75.744,-1.3764e-05,0
75.744,-4.2802e-05,0
75.745,-5.9586e-05,0
75.745,-6.5965e-05,0
75.746,-8.9128e-05,0
75.746,-0.00013327,0
75.747,-0.00018027,0
75.747,-0.00020444,0
75.748,-0.00018682,0
75.749,-0.00012874,0
75.749,-4.9851e-05,0
75.75,2.2324e-05,0
75.75,6.0594e-05,0
75.751,6.63e-05,0
75.751,6.8818e-05,0
75.752,8.1071e-05,0
75.752,9.7017e-05,0
75.753,0.00010138,0
75.753,8.7785e-05,0
75.754,6.865e-05,0
75.754,6.0258e-05,0
75.755,5.3208e-05,0
75.755,3.9445e-05,0
75.756,1.9471e-05,0
75.756,-1.0407e-05,0
75.757,-4.2802e-05,0
75.757,-5.8579e-05,0
75.758,-5.5055e-05,0
75.758,-4.9851e-05,0
75.759,-6.3615e-05,0
75.759,-9.0639e-05,0
75.76,-0.00010558,0
75.76,-9.7017e-05,0
75.761,-6.5293e-05,0
75.761,-1.9303e-05,0
75.762,2.2324e-05,0
75.763,5.3544e-05,0
75.763,7.9728e-05,0
75.764,0.00011128,0
75.764,0.00015207,0
75.765,0.00018614,0
75.765,0.00019319,0
75.766,0.0001697,0
75.766,0.0001279,0
75.767,8.5435e-05,0
75.767,5.2705e-05,0
75.768,4.683e-05,0
75.768,6.3783e-05,0
75.769,7.0161e-05,0
75.769,6.0258e-05,0
75.77,4.5823e-05,0
75.77,2.7192e-05,0
75.771,2.4674e-05,0
75.771,5.7237e-05,0
75.772,0.00010558,0
75.772,0.00012706,0
75.773,0.00010105,0
75.773,4.2802e-05,0
75.774,-1.5274e-05,0
75.774,-6.244e-05,0
75.775,-9.7185e-05,0
75.775,-0.00011112,0
75.776,-9.9199e-05,0
75.777,-7.5364e-05,0
75.777,-5.4887e-05,0
75.778,-4.5319e-05,0
75.778,-3.9948e-05,0
75.779,-3.5584e-05,0
75.779,-3.3234e-05,0
75.78,-3.1556e-05,0
75.78,-3.1556e-05,0
75.781,-3.1052e-05,0
75.781,-2.7359e-05,0
75.782,-1.9303e-05,0
75.782,-2.8534e-06,0
75.783,2.4674e-05,0
75.783,6.0258e-05,0
75.784,9.4499e-05,0
75.784,0.00012253,0
75.785,0.00013931,0
75.785,0.00014284,0
75.786,0.00014368,0
75.786,0.00013881,0
75.787,0.00012203,0
75.787,9.6513e-05,0
75.788,6.6972e-05,0
75.788,3.7095e-05,0
75.789,5.2033e-06,0
75.79,-4.1459e-05,0
75.79,-9.5171e-05,0
75.791,-0.0001274,0
75.791,-0.00012538,0
75.792,-0.00010591,0
75.792,-9.5506e-05,0
75.793,-0.00010088,0
75.793,-0.00010574,0
75.794,-9.8695e-05,0
75.794,-7.9728e-05,0
75.795,-4.6494e-05,0
75.795,-1.5106e-06,0
75.796,4.0116e-05,0
75.796,6.7811e-05,0
75.797,9.366e-05,0
75.797,0.00012421,0
75.798,0.00014368,0
75.798,0.00014754,0
75.799,0.0001472,0
75.799,0.00013646,0
75.8,0.00010423,0
75.8,5.5894e-05,0
75.801,1.0239e-05,0
75.801,-1.5778e-05,0
75.802,-1.9135e-05,0
75.802,-8.896e-06,0
75.803,-3.357e-07,0
75.804,1.6785e-07,0
75.804,-8.5603e-06,0
75.805,-2.3835e-05,0
75.805,-3.6088e-05,0
75.806,-3.2395e-05,0
75.806,-6.8818e-06,0
75.807,3.1724e-05,0
75.807,6.1936e-05,0
75.808,7.7379e-05,0
75.808,8.2078e-05,0
75.809,6.6636e-05,0
75.809,4.4144e-05,0
75.81,4.1291e-05,0
75.81,5.5558e-05,0
75.811,6.0929e-05,0
75.811,5.0858e-05,0
75.812,3.743e-05,0
75.812,2.7192e-05,0
75.813,1.1246e-05,0
75.813,-4.1962e-06,0
75.814,-1.2757e-05,0
75.814,-1.5442e-05,0
75.815,-1.6785e-05,0
75.815,-2.6017e-05,0
75.816,-3.7095e-05,0
75.817,-3.4409e-05,0
75.817,-1.2924e-05,0
75.818,3.1388e-05,0
75.818,9.7017e-05,0
75.819,0.00015795,0
75.819,0.00017305,0
75.82,0.00014217,0
75.82,0.00010306,0
75.821,8.1743e-05,0
75.821,6.9322e-05,0
75.822,4.1291e-05,0
75.822,-2.8534e-06,0
75.823,-4.8508e-05,0
75.823,-9.1981e-05,0
75.824,-0.00013982,0
75.824,-0.00019017,0
75.825,-0.00020645,0
75.825,-0.00017305,0
75.826,-0.00012203,0
75.826,-8.2918e-05,0
75.827,-5.304e-05,0
75.827,-1.8967e-05,0
75.828,1.6617e-05,0
75.828,5.5222e-05,0
75.829,8.9967e-05,0
75.829,0.00010155,0
75.83,8.5603e-05,0
75.831,5.4551e-05,0
75.831,2.501e-05,0
75.832,1.5274e-05,0
75.832,2.4002e-05,0
75.833,2.8702e-05,0
75.833,2.6688e-05,0
75.834,3.2059e-05,0
75.834,5.4719e-05,0
75.835,8.1407e-05,0
75.835,9.752e-05,0
75.836,0.00010105,0
75.836,9.7353e-05,0
75.837,8.4092e-05,0
75.837,5.6565e-05,0
75.838,1.5778e-05,0
75.838,-2.6352e-05,0
75.839,-4.7837e-05,0
75.839,-4.3137e-05,0
75.84,-3.3738e-05,0
75.84,-2.2324e-05,0
75.841,7.8889e-06,0
75.841,5.153e-05,0
75.842,8.3757e-05,0
75.842,9.7185e-05,0
75.843,9.9702e-05,0
75.844,0.00010927,0
75.844,0.00014334,0
75.845,0.00018413,0
75.845,0.00018245,0
75.846,0.00012186,0
75.846,3.4745e-05,0
75.847,-3.2731e-05,0
75.847,-5.9754e-05,0
75.848,-6.1097e-05,0
75.848,-6.9993e-05,0
75.849,-0.00010658,0
75.849,-0.0001519,0
75.85,-0.00016516,0
75.85,-0.00014049,0
75.851,-0.00010423,0
75.851,-7.1336e-05,0
75.852,-3.7766e-05,0
75.852,1.1749e-06,0
75.853,4.7333e-05,0
75.853,9.1981e-05,0
75.854,0.00011363,0
75.854,0.00011061,0
75.855,9.4163e-05,0
75.855,8.0064e-05,0
75.856,7.7379e-05,0
75.856,8.5771e-05,0
75.857,9.987e-05,0
75.858,0.00011431,0
75.858,0.00012605,0
75.859,0.00012404,0
75.859,0.00010507,0
75.86,9.1142e-05,0
75.86,9.8527e-05,0
75.861,0.00011464,0
75.861,0.00012908,0
75.862,0.0001415,0
75.862,0.00015157,0
75.863,0.00016349,0
75.863,0.00017238,0
75.864,0.00016214,0
75.864,0.00012068,0
75.865,4.8173e-05,0
75.865,-3.4241e-05,0
75.866,-9.4835e-05,0
75.866,-0.00011867,0
75.867,-0.00012438,0
75.867,-0.00014922,0
75.868,-0.00020394,0
75.868,-0.00023214,0
75.869,-0.0001843,0
75.869,-9.7185e-05,0
75.87,-3.2059e-05,0
75.871,-4.8676e-06,0
75.871,4.8676e-06,0
75.872,2.3163e-05,0
75.872,5.539e-05,0
75.873,7.5364e-05,0
75.873,5.2033e-05,0
75.874,-3.357e-06,0
75.874,-5.9586e-05,0
75.875,-8.2078e-05,0
75.875,-7.1336e-05,0
75.876,-6.0258e-05,0
75.876,-7.5364e-05,0
75.877,-0.00012354,0
75.877,-0.00017742,0
75.878,-0.00019387,0
75.878,-0.00016265,0
75.879,-0.00011867,0
75.879,-8.2582e-05,0
75.88,-3.978e-05,0
75.88,1.2757e-05,0
75.881,7.0497e-05,0
75.881,0.00012505,0
75.882,0.00016349,0
75.882,0.00017624,0
75.883,0.00017288,0
75.883,0.00017641,0
75.884,0.00019034,0
75.885,0.00019319,0
75.885,0.00016718,0
75.886,0.00011397,0
75.886,5.4887e-05,0
75.887,3.357e-07,0
75.887,-3.9109e-05,0
75.888,-4.683e-05,0
75.888,-4.3641e-06,0
75.889,7.1e-05,0
75.889,0.00012605,0
75.89,0.0001462,0
75.89,0.00016197,0
75.891,0.00019286,0
75.891,0.0002083,0
75.892,0.00017826,0
75.892,0.00013109,0
75.893,9.601e-05,0
75.893,4.2802e-05,0
75.894,-3.9109e-05,0
75.894,-0.00012001,0
75.895,-0.00018564,0
75.895,-0.00023062,0
75.896,-0.00024388,0
75.896,-0.00022576,0
75.897,-0.0002078,0
75.898,-0.00020964,0
75.898,-0.00020494,0
75.899,-0.00018396,0
75.899,-0.00016567,0
75.9,-0.0001514,0
75.9,-0.00012169,0
75.901,-5.1865e-05,0
75.901,9.8192e-05,0
75.902,0.00028954,0
75.902,0.0004265,0
75.903,0.00051916,0
75.903,0.00060325,0
75.904,0.00062457,0
75.904,0.00055306,0
75.905,0.00045168,0
75.905,0.00040099,0
75.906,0.00038471,0
75.906,0.00032479,0
75.907,0.00020327,0
75.907,4.1459e-05,0
75.908,-0.00015274,0
75.908,-0.00032831,0
75.909,-0.00041895,0
75.909,-0.00042617,0
75.91,-0.00039663,0
75.91,-0.00035248,0
75.911,-0.00031421,0
75.912,-0.00031606,0
75.912,-0.00034711,0
75.913,-0.0003686,0
75.913,-0.00034493,0
75.914,-0.0002882,0
75.914,-0.00024808,0
75.915,-0.00024288,0
75.915,-0.00023801,0
75.916,-0.00020494,0
75.916,-0.00014989,0
75.917,-8.1575e-05,0
75.917,-1.0071e-05,0
75.918,5.2201e-05,0
75.918,0.00010893,0
75.919,0.00013948,0
75.919,0.00012404,0
75.92,7.9057e-05,0
75.92,2.7024e-05,0
75.921,-1.2924e-05,0
75.921,-1.6953e-05,0
75.922,2.2828e-05,0
75.922,7.6539e-05,0
75.923,0.00010524,0
75.923,0.00010071,0
75.924,8.3757e-05,0
75.925,7.5029e-05,0
75.925,8.51e-05,0
75.926,0.00010574,0
75.926,0.00013143,0
75.927,0.0001561,0
75.927,0.00016701,0
75.928,0.00017154,0
75.928,0.00018715,0
75.929,0.00021602,0
75.929,0.000237,0
75.93,0.00024623,0
75.93,0.00025681,0
75.931,0.00026218,0
75.931,0.00024321,0
75.932,0.00020259,0
75.932,0.0001603,0
75.933,0.00012757,0
75.933,0.00010021,0
75.934,7.5029e-05,0
75.934,5.1698e-05,0
75.935,2.4674e-05,0
75.935,-9.7353e-06,0
75.936,-5.153e-05,0
75.936,-8.0735e-05,0
75.937,-8.6107e-05,0
75.938,-8.7282e-05,0
75.938,-0.00010793,0
75.939,-0.00014116,0
75.939,-0.00015929,0
75.94,-0.00014704,0
75.94,-0.00011028,0
75.941,-6.5965e-05,0
75.941,-2.9206e-05,0
75.942,-2.0142e-06,0
75.942,2.0478e-05,0
75.943,4.0787e-05,0
75.943,4.7669e-05,0
75.944,3.7095e-05,0
75.944,2.652e-05,0
75.945,3.2059e-05,0
75.945,4.5487e-05,0
75.946,5.7572e-05,0
75.946,6.8818e-05,0
75.947,8.7282e-05,0
75.947,0.00011749,0
75.948,0.0001509,0
75.948,0.00016936,0
75.949,0.00016097,0
75.949,0.00013294,0
75.95,0.000118,0
75.95,0.00017339,0
75.951,0.00028417,0
75.952,0.00034946,0
75.952,0.00032747,0
75.953,0.00026268,0
75.953,0.0001848,0
75.954,8.6275e-05,0
75.954,-2.8534e-05,0
75.955,-0.00013545,0
75.955,-0.00022206,0
75.956,-0.00028988,0
75.956,-0.00034493,0
75.957,-0.00040166,0
75.957,-0.00045135,0
75.958,-0.00046259,0
75.958,-0.00042147,0
75.959,-0.0003357,0
75.959,-0.00021921,0
75.96,-8.4428e-05,0
75.96,3.8773e-05,0
75.961,0.00011179,0
75.961,0.00014351,0
75.962,0.00018044,0
75.962,0.0002412,0
75.963,0.00028283,0
75.963,0.00028719,0
75.964,0.0002845,0
75.965,0.00026839,0
75.965,0.00021317,0
75.966,0.00013277,0
75.966,7.1504e-05,0
75.967,4.4816e-05,0
75.967,3.1724e-05,0
75.968,1.326e-05,0
75.968,-3.8605e-06,0
75.969,-2.031e-05,0
75.969,-2.6352e-05,0
75.97,1.1749e-06,0
75.97,5.6901e-05,0
75.971,0.00010121,0
75.971,0.00011263,0
75.972,9.3828e-05,0
75.972,5.8076e-05,0
75.973,2.6352e-05,0
75.973,-8.3925e-06,0
75.974,-5.8579e-05,0
75.974,-0.00010356,0
75.975,-0.00012236,0
75.975,-0.00013025,0
75.976,-0.0001472,0
75.976,-0.00014939,0
75.977,-0.00010994,0
75.977,-5.5558e-05,0
75.978,-1.9974e-05,0
75.979,-3.8605e-06,0
75.979,7.2175e-06,0
75.98,2.5177e-05,0
75.98,4.3473e-05,0
75.981,4.3305e-05,0
75.981,1.9135e-05,0
75.982,-1.2421e-05,0
75.982,-3.9109e-05,0
75.983,-4.7501e-05,0
75.983,-4.5655e-05,0
75.984,-5.3208e-05,0
75.984,-6.9322e-05,0
75.985,-7.7379e-05,0
75.985,-7.8218e-05,0
75.986,-8.4092e-05,0
75.986,-7.8721e-05,0
75.987,-3.743e-05,0
75.987,3.4073e-05,0
75.988,0.00010759,0
75.988,0.00015828,0
75.989,0.00017171,0
75.989,0.00014955,0
75.99,0.00010306,0
75.99,4.4648e-05,0
75.991,9.3996e-06,0
75.992,2.4674e-05,0
75.992,7.8721e-05,0
75.993,0.00015761,0
75.993,0.00024926,0
75.994,0.00030733,0
75.994,0.00029323,0
75.995,0.00023465,0
75.995,0.00017641,0
75.996,0.00013008,0
75.996,8.51e-05,0
75.997,2.2828e-05,0
75.997,-6.3783e-05,0
75.998,-0.00016449,0
75.998,-0.00024993,0
75.999,-0.00029306,0
75.999,-0.00029709,0
76,-0.00027192,0
76,-0.00022626,0
76.001,-0.00017272,0
76.001,-0.00012052,0
76.002,-6.3279e-05,0
76.002,6.714e-06,0
76.003,0.00010491,0
76.003,0.00022676,0
76.004,0.00032261,0
76.004,0.00034896,0
76.005,0.0003221,0
76.006,0.00028081,0
76.006,0.00024758,0
76.007,0.00022878,0
76.007,0.00020713,0
76.008,0.00016046,0
76.008,0.00011162,0
76.009,8.04e-05,0
76.009,3.0045e-05,0
76.01,-5.9251e-05,0
76.01,-0.00015056,0
76.011,-0.00020696,0
76.011,-0.00024221,0
76.012,-0.00027578,0
76.012,-0.00030884,0
76.013,-0.00032932,0
76.013,-0.00031019,0
76.014,-0.00025698,0
76.014,-0.00019437,0
76.015,-0.00012924,0
76.015,-7.2511e-05,0
76.016,-3.2731e-05,0
76.016,8.2246e-06,0
76.017,5.5558e-05,0
76.017,9.366e-05,0
76.018,0.00011716,0
76.019,0.00012589,0
76.019,0.00012706,0
76.02,0.00013109,0
76.02,0.00013109,0
76.021,0.00012337,0
76.021,0.00012035,0
76.022,0.0001321,0
76.022,0.00014083,0
76.023,0.0001227,0
76.023,9.1981e-05,0
76.024,7.1e-05,0
76.024,4.8173e-05,0
76.025,2.4674e-05,0
76.025,1.0071e-05,0
76.026,1.4267e-05,0
76.026,3.8102e-05,0
76.027,6.3951e-05,0
76.027,6.8315e-05,0
76.028,5.7572e-05,0
76.028,4.5823e-05,0
76.029,3.1052e-05,0
76.029,1.561e-05,0
76.03,9.7353e-06,0
76.03,1.326e-05,0
76.031,5.2033e-06,0
76.031,-3.5752e-05,0
76.032,-9.8192e-05,0
76.033,-0.0001425,0
76.033,-0.00014955,0
76.034,-0.00013411,0
76.034,-0.00010323,0
76.035,-6.1936e-05,0
76.035,-2.3667e-05,0
76.036,1.6785e-07,0
76.036,3.4577e-05,0
76.037,0.00010323,0
76.037,0.00017507,0
76.038,0.00021166,0
76.038,0.00020931,0
76.039,0.0001942,0
76.039,0.0001707,0
76.04,0.00013143,0
76.04,8.9128e-05,0
76.041,5.539e-05,0
76.041,2.6688e-05,0
76.042,4.3641e-06,0
76.042,-5.539e-06,0
76.043,-1.1582e-05,0
76.043,-2.0645e-05,0
76.044,-2.501e-05,0
76.044,-6.2104e-06,0
76.045,3.5584e-05,0
76.046,8.04e-05,0
76.046,0.00011028,0
76.047,0.0001227,0
76.047,0.00012152,0
76.048,0.0001133,0
76.048,0.00010004,0
76.049,8.5771e-05,0
76.049,7.5532e-05,0
76.05,4.7837e-05,0
76.05,-8.896e-06,0
76.051,-6.949e-05,0
76.051,-9.7856e-05,0
76.052,-8.896e-05,0
76.052,-6.6133e-05,0
76.053,-5.2537e-05,0
76.053,-5.5894e-05,0
76.054,-7.1336e-05,0
76.054,-7.9393e-05,0
76.055,-6.1433e-05,0
76.055,-1.9974e-05,0
76.056,2.3331e-05,0
76.056,5.1865e-05,0
76.057,6.1601e-05,0
76.057,5.539e-05,0
76.058,3.7095e-05,0
76.058,1.9974e-05,0
76.059,1.2421e-05,0
76.06,1.0239e-05,0
76.06,1.0407e-05,0
76.061,1.4099e-05,0
76.061,3.0045e-05,0
76.062,6.1936e-05,0
76.062,0.00010256,0
76.063,0.00013747,0
76.063,0.0001519,0
76.064,0.00013327,0
76.064,8.4092e-05,0
76.065,2.8367e-05,0
76.065,-1.1246e-05,0
76.066,-3.1052e-05,0
76.066,-3.5752e-05,0
76.067,-2.3331e-05,0
76.067,1.5442e-05,0
76.068,9.987e-05,0
76.068,0.00020058,0
76.069,0.00023348,0
76.069,0.00017171,0
76.07,7.335e-05,0
76.07,9.7353e-06,0
76.071,-1.7288e-05,0
76.071,-5.7908e-05,0
76.072,-0.00013965,0
76.073,-0.00024691,0
76.073,-0.00034527,0
76.074,-0.00038672,0
76.074,-0.00034208,0
76.075,-0.00024623,0
76.075,-0.00016214,0
76.076,-0.00011649,0
76.076,-8.4092e-05,0
76.077,-3.8102e-05,0
76.077,1.5274e-05,0
76.078,5.6901e-05,0
76.078,8.2582e-05,0
76.079,0.00010054,0
76.079,0.00011313,0
76.08,0.00010759,0
76.08,8.5771e-05,0
76.081,6.4958e-05,0
76.081,5.7572e-05,0
76.082,6.0929e-05,0
76.082,6.7811e-05,0
76.083,7.8721e-05,0
76.083,9.4163e-05,0
76.084,0.00010457,0
76.084,0.00010558,0
76.085,9.5171e-05,0
76.085,7.5029e-05,0
76.086,5.3208e-05,0
76.087,3.4073e-05,0
76.087,1.5274e-05,0
76.088,-5.0355e-07,0
76.088,-6.8818e-06,0
76.089,-2.182e-06,0
76.089,1.0239e-05,0
76.09,1.8463e-05,0
76.09,2.4002e-05,0
76.091,4.448e-05,0
76.091,8.3757e-05,0
76.092,0.00011968,0
76.092,0.000118,0
76.093,7.1e-05,0
76.093,1.3428e-06,0
76.094,-5.7404e-05,0
76.094,-8.1407e-05,0
76.095,-6.9993e-05,0
76.095,-2.9877e-05,0
76.096,2.8031e-05,0
76.096,8.3421e-05,0
76.097,0.00012639,0
76.097,0.00017842,0
76.098,0.00024388,0
76.098,0.00029407,0
76.099,0.00030465,0
76.1,0.00028064,0
76.1,0.00023331,0
76.101,0.00017104,0
76.101,0.00012052,0
76.102,8.6778e-05,0
76.102,3.3066e-05,0
76.103,-5.0523e-05,0
76.103,-0.00013999,0
76.104,-0.00019454,0
76.104,-0.00018967,0
76.105,-0.00017221,0
76.105,-0.00019588,0
76.106,-0.00024875,0
76.106,-0.00027997,0
76.107,-0.00026638,0
76.107,-0.00022139,0
76.108,-0.000165,0
76.108,-0.00011044,0
76.109,-6.2608e-05,0
76.109,-1.8967e-05,0
76.11,1.6449e-05,0
76.11,4.4144e-05,0
76.111,5.4887e-05,0
76.111,5.4719e-05,0
76.112,6.5965e-05,0
76.112,8.896e-05,0
76.113,0.00010172,0
76.114,8.7785e-05,0
76.114,6.5293e-05,0
76.115,4.6494e-05,0
76.115,1.5274e-05,0
76.116,-2.2156e-05,0
76.116,-4.9348e-05,0
76.117,-5.8244e-05,0
76.117,-5.6062e-05,0
76.118,-5.0019e-05,0
76.118,-3.6423e-05,0
76.119,-9.5674e-06,0
76.119,1.1749e-05,0
76.12,1.5442e-05,0
76.12,2.6184e-05,0
76.121,5.6733e-05,0
76.121,8.51e-05,0
76.122,0.00011531,0
76.122,0.00018061,0
76.123,0.00026738,0
76.123,0.00033553,0
76.124,0.00034997,0
76.124,0.00030867,0
76.125,0.00024086,0
76.125,0.00016701,0
76.126,9.9702e-05,0
76.126,4.918e-05,0
76.127,-1.1749e-06,0
76.128,-8.7785e-05,0
76.128,-0.00018564,0
76.129,-0.00022525,0
76.129,-0.00020243,0
76.13,-0.00016046,0
76.13,-0.00012572,0
76.131,-9.987e-05,0
76.131,-8.0903e-05,0
76.132,-7.0665e-05,0
76.132,-7.0329e-05,0
76.133,-6.949e-05,0
76.133,-5.8915e-05,0
76.134,-3.978e-05,0
76.134,-1.326e-05,0
76.135,1.6617e-05,0
76.135,3.1891e-05,0
76.136,2.2156e-05,0
76.136,3.6927e-06,0
76.137,0,0
76.137,1.3931e-05,0
76.138,3.2731e-05,0
76.138,4.4816e-05,0
76.139,5.388e-05,0
76.139,6.7308e-05,0
76.14,7.5868e-05,0
76.141,7.1504e-05,0
76.141,5.8244e-05,0
76.142,4.4144e-05,0
76.142,4.3137e-05,0
76.143,6.7475e-05,0
76.143,9.8863e-05,0
76.144,0.00010272,0
76.144,7.4357e-05,0
76.145,4.3977e-05,0
76.145,4.062e-05,0
76.146,5.2705e-05,0
76.146,5.153e-05,0
76.147,3.1388e-05,0
76.147,1.5778e-05,0
76.148,2.7024e-05,0
76.148,5.153e-05,0
76.149,5.1698e-05,0
76.149,1.9135e-05,0
76.15,-2.266e-05,0
76.15,-4.1962e-05,0
76.151,-3.592e-05,0
76.151,-2.7024e-05,0
76.152,-3.0381e-05,0
76.152,-4.5151e-05,0
76.153,-4.8173e-05,0
76.153,-2.1653e-05,0
76.154,2.3667e-05,0
76.155,6.8986e-05,0
76.155,9.9031e-05,0
76.156,9.8863e-05,0
76.156,7.8386e-05,0
76.157,6.5629e-05,0
76.157,7.1504e-05,0
76.158,8.2582e-05,0
76.158,8.3589e-05,0
76.159,7.0329e-05,0
76.159,5.1698e-05,0
76.16,3.5416e-05,0
76.16,2.0981e-05,0
76.161,9.0639e-06,0
76.161,1.326e-05,0
76.162,3.2563e-05,0
76.162,3.9109e-05,0
76.163,1.8631e-05,0
76.163,-1.0071e-05,0
76.164,-2.8367e-05,0
76.164,-2.9709e-05,0
76.165,-1.1078e-05,0
76.165,1.326e-05,0
76.166,3.0716e-05,0
76.166,4.2802e-05,0
76.167,4.3473e-05,0
76.168,3.0716e-05,0
76.168,2.4338e-05,0
76.169,3.0213e-05,0
76.169,3.7095e-05,0
76.17,4.2802e-05,0
76.17,4.062e-05,0
76.171,4.7333e-05,0
76.171,8.04e-05,0
76.172,0.00011833,0
76.172,0.00013579,0
76.173,0.00012337,0
76.173,7.9728e-05,0
76.174,7.7211e-06,0
76.174,-7.7546e-05,0
76.175,-0.00014754,0
76.175,-0.00018195,0
76.176,-0.00019185,0
76.176,-0.00020444,0
76.177,-0.00021267,0
76.177,-0.00018144,0
76.178,-9.6849e-05,0
76.178,1.9303e-05,0
76.179,0.00013478,0
76.179,0.00022005,0
76.18,0.00025127,0
76.18,0.00022341,0
76.181,0.00016751,0
76.182,0.00012136,0
76.182,9.5842e-05,0
76.183,7.6036e-05,0
76.183,4.4816e-05,0
76.184,8.2246e-06,0
76.184,-3.357e-07,0
76.185,2.4002e-05,0
76.185,4.0116e-05,0
76.186,2.2324e-05,0
76.186,-7.5532e-06,0
76.187,-2.4338e-05,0
76.187,-2.266e-05,0
76.188,2.6856e-06,0
76.188,3.7263e-05,0
76.189,3.9277e-05,0
76.189,1.8463e-06,0
76.19,-3.8773e-05,0
76.19,-6.2272e-05,0
76.191,-6.8315e-05,0
76.191,-5.2537e-05,0
76.192,-2.1653e-05,0
76.192,9.3996e-06,0
76.193,2.4002e-05,0
76.193,9.9031e-06,0
76.194,-3.2563e-05,0
76.195,-8.2918e-05,0
76.195,-0.00010726,0
76.196,-0.00010541,0
76.196,-9.6178e-05,0
76.197,-5.3208e-05,0
76.197,3.8773e-05,0
76.198,0.00014083,0
76.198,0.0002031,0
76.199,0.00021535,0
76.199,0.00019252,0
76.2,0.00014972,0
76.2,9.7856e-05,0
76.201,5.2201e-05,0
76.201,4.5319e-06,0
76.202,-5.1194e-05,0
76.202,-0.00010256,0
76.203,-0.00013713,0
76.203,-0.00015023,0
76.204,-0.00013931,0
76.204,-9.9199e-05,0
76.205,-3.9109e-05,0
76.205,1.5442e-05,0
76.206,4.7501e-05,0
76.206,5.7572e-05,0
76.207,5.5726e-05,0
76.207,5.1362e-05,0
76.208,5.0858e-05,0
76.209,5.6733e-05,0
76.209,6.3111e-05,0
76.21,6.1433e-05,0
76.21,5.0187e-05,0
76.211,3.5416e-05,0
76.211,2.7695e-05,0
76.212,2.9709e-05,0
76.212,3.4073e-05,0
76.213,3.3906e-05,0
76.213,2.7024e-05,0
76.214,1.5946e-05,0
76.214,4.8676e-06,0
76.215,3.0213e-06,0
76.215,1.2589e-05,0
76.216,2.5345e-05,0
76.216,3.1724e-05,0
76.217,2.1653e-05,0
76.217,-2.5177e-06,0
76.218,-1.8128e-05,0
76.218,-1.5946e-05,0
76.219,8.5603e-06,0
76.219,4.8173e-05,0
76.22,8.5267e-05,0
76.22,0.00010776,0
76.221,0.00011464,0
76.222,0.00011649,0
76.222,0.00011749,0
76.223,0.00011162,0
76.223,9.4499e-05,0
76.224,6.8818e-05,0
76.224,3.3066e-05,0
76.225,-6.714e-06,0
76.225,-3.6759e-05,0
76.226,-4.9516e-05,0
76.226,-4.3809e-05,0
76.227,-3.0716e-05,0
76.227,-1.8631e-05,0
76.228,-3.6927e-06,0
76.228,1.5946e-05,0
76.229,3.8605e-05,0
76.229,5.5558e-05,0
76.23,5.5558e-05,0
76.23,4.1794e-05,0
76.231,2.3331e-05,0
76.231,3.8605e-06,0
76.232,-1.6617e-05,0
76.232,-3.3402e-05,0
76.233,-4.2466e-05,0
76.233,-5.5558e-05,0
76.234,-7.1e-05,0
76.234,-5.8244e-05,0
76.235,-7.5532e-06,0
76.236,4.8676e-05,0
76.236,8.3925e-05,0
76.237,0.00010356,0
76.237,0.00011229,0
76.238,0.00011128,0
76.238,8.8121e-05,0
76.239,4.8844e-05,0
76.239,2.0645e-05,0
76.24,1.3428e-05,0
76.24,1.3596e-05,0
76.241,2.2324e-05,0
76.241,5.0858e-05,0
76.242,8.6442e-05,0
76.242,0.00010323,0
76.243,0.00010558,0
76.243,0.00010491,0
76.244,0.00010491,0
76.244,9.4163e-05,0
76.245,6.6972e-05,0
76.245,3.2059e-05,0
76.246,1.1749e-06,0
76.246,-4.5319e-06,0
76.247,1.7792e-05,0
76.247,4.0787e-05,0
76.248,3.8102e-05,0
76.249,1.1917e-05,0
76.249,-1.5946e-05,0
76.25,-2.9038e-05,0
76.25,-2.7359e-05,0
76.251,-1.8128e-05,0
76.251,-1.2589e-05,0
76.252,4.5319e-06,0
76.252,4.9516e-05,0
76.253,9.0471e-05,0
76.253,9.1814e-05,0
76.254,6.6804e-05,0
76.254,2.4506e-05,0
76.255,-5.8076e-05,0
76.255,-0.00016466,0
76.256,-0.00024154,0
76.256,-0.0002788,0
76.257,-0.00029693,0
76.257,-0.00029928,0
76.258,-0.00027846,0
76.258,-0.00022693,0
76.259,-0.00014855,0
76.259,-6.7308e-05,0
76.26,-6.5461e-06,0
76.26,3.2395e-05,0
76.261,6.2272e-05,0
76.261,9.4835e-05,0
76.262,0.0001373,0
76.263,0.00018027,0
76.263,0.00020797,0
76.264,0.00021115,0
76.264,0.00018732,0
76.265,0.00015962,0
76.265,0.0001509,0
76.266,0.00014334,0
76.266,0.00010927,0
76.267,5.4215e-05,0
76.267,-6.714e-07,0
76.268,-4.2298e-05,0
76.268,-6.2608e-05,0
76.269,-5.2201e-05,0
76.269,-1.1917e-05,0
76.27,3.1724e-05,0
76.27,5.5894e-05,0
76.271,6.949e-05,0
76.271,8.3421e-05,0
76.272,9.3156e-05,0
76.272,9.2485e-05,0
76.273,8.6778e-05,0
76.273,8.275e-05,0
76.274,9.0303e-05,0
76.274,0.00011112,0
76.275,0.00010759,0
76.276,6.009e-05,0
76.276,-1.0071e-05,0
76.277,-6.1936e-05,0
76.277,-6.865e-05,0
76.278,-4.4312e-05,0
76.278,-1.5946e-05,0
76.279,5.0355e-06,0
76.279,1.2421e-05,0
76.28,-9.5674e-06,0
76.28,-5.5894e-05,0
76.281,-8.3757e-05,0
76.281,-6.2272e-05,0
76.282,-6.8818e-06,0
76.282,4.8173e-05,0
76.283,7.5532e-05,0
76.283,7.8218e-05,0
76.284,8.3253e-05,0
76.284,9.9702e-05,0
76.285,0.00010927,0
76.285,9.752e-05,0
76.286,7.3686e-05,0
76.286,5.5558e-05,0
76.287,5.0523e-05,0
76.287,5.0523e-05,0
76.288,4.5319e-05,0
76.288,2.6352e-05,0
76.289,-6.8818e-06,0
76.29,-4.0452e-05,0
76.29,-5.1865e-05,0
76.291,-4.6662e-05,0
76.291,-4.8508e-05,0
76.292,-6.009e-05,0
76.292,-7.2847e-05,0
76.293,-8.5435e-05,0
76.293,-8.8289e-05,0
76.294,-6.3279e-05,0
76.294,-9.3996e-06,0
76.295,4.6159e-05,0
76.295,7.3014e-05,0
76.296,7.0329e-05,0
76.296,6.2943e-05,0
76.297,5.9586e-05,0
76.297,4.2802e-05,0
76.298,-6.714e-07,0
76.298,-6.2272e-05,0
76.299,-0.00011481,0
76.299,-0.00013613,0
76.3,-0.0001321,0
76.3,-0.00011565,0
76.301,-8.7449e-05,0
76.301,-3.8102e-05,0
76.302,2.4002e-05,0
76.303,7.2343e-05,0
76.303,9.7353e-05,0
76.304,0.00011095,0
76.304,0.00011431,0
76.305,0.00010323,0
76.305,8.6442e-05,0
76.306,7.3518e-05,0
76.306,6.7643e-05,0
76.307,5.8915e-05,0
76.307,4.6159e-05,0
76.308,3.5752e-05,0
76.308,3.5752e-05,0
76.309,4.5151e-05,0
76.309,5.153e-05,0
76.31,3.9109e-05,0
76.31,1.1078e-05,0
76.311,-1.6785e-07,0
76.311,1.8128e-05,0
76.312,4.5823e-05,0
76.312,6.5629e-05,0
76.313,6.5293e-05,0
76.313,4.7501e-05,0
76.314,2.8702e-05,0
76.314,2.0645e-05,0
76.315,2.1653e-05,0
76.316,2.5681e-05,0
76.316,2.8031e-05,0
76.317,3.1891e-05,0
76.317,3.6088e-05,0
76.318,3.6088e-05,0
76.318,3.3402e-05,0
76.319,3.3402e-05,0
76.319,3.6759e-05,0
76.32,3.7766e-05,0
76.32,2.8367e-05,0
76.321,8.7282e-06,0
76.321,-9.7353e-06,0
76.322,-1.0071e-05,0
76.322,1.0575e-05,0
76.323,2.6017e-05,0
76.323,2.6017e-05,0
76.324,3.3906e-05,0
76.324,7.6707e-05,0
76.325,0.00014133,0
76.325,0.00018631,0
76.326,0.00019319,0
76.326,0.00016818,0
76.327,0.00012807,0
76.327,8.9128e-05,0
76.328,6.2608e-05,0
76.328,4.5319e-05,0
76.329,1.326e-05,0
76.33,-3.3402e-05,0
76.33,-6.7308e-05,0
76.331,-8.9632e-05,0
76.331,-0.00011582,0
76.332,-0.00013445,0
76.332,-0.00012992,0
76.333,-0.00011095,0
76.333,-8.275e-05,0
76.334,-5.0019e-05,0
76.334,-2.5849e-05,0
76.335,-1.5106e-05,0
76.335,-9.5674e-06,0
76.336,-2.5177e-06,0
76.336,1.3092e-05,0
76.337,3.4409e-05,0
76.337,4.3473e-05,0
76.338,3.2059e-05,0
76.338,2.6352e-05,0
76.339,5.2705e-05,0
76.339,9.7185e-05,0
76.34,0.00013193,0
76.34,0.00014871,0
76.341,0.00015392,0
76.341,0.00013646,0
76.342,7.7043e-05,0
76.343,-1.1749e-05,0
76.343,-9.0303e-05,0
76.344,-0.00014939,0
76.344,-0.00019353,0
76.345,-0.00020964,0
76.345,-0.00018833,0
76.346,-0.00015946,0
76.346,-0.00015308,0
76.347,-0.00016986,0
76.347,-0.0001895,0
76.348,-0.00018044,0
76.348,-0.00013378,0
76.349,-7.335e-05,0
76.349,-1.9471e-05,0
76.35,3.8605e-05,0
76.35,0.00013512,0
76.351,0.00026419,0
76.351,0.0003785,0
76.352,0.00044514,0
76.352,0.00045588,0
76.353,0.00041677,0
76.353,0.00034107,0
76.354,0.00024623,0
76.354,0.00014301,0
76.355,4.9516e-05,0
76.355,-1.2757e-05,0
76.356,-4.4144e-05,0
76.357,-5.9754e-05,0
76.357,-5.1026e-05,0
76.358,-1.2421e-05,0
76.358,3.4577e-05,0
76.359,6.3615e-05,0
76.359,6.1265e-05,0
76.36,2.9709e-05,0
76.36,-2.4674e-05,0
76.361,-9.3156e-05,0
76.361,-0.00015694,0
76.362,-0.00019336,0
76.362,-0.00019689,0
76.363,-0.00017456,0
76.363,-0.00013344,0
76.364,-9.0974e-05,0
76.364,-6.0258e-05,0
76.365,-3.122e-05,0
76.365,1.2589e-05,0
76.366,6.479e-05,0
76.366,0.00010289,0
76.367,0.00012958,0
76.367,0.00015727,0
76.368,0.00015929,0
76.368,0.00010759,0
76.369,4.5319e-05,0
76.37,2.3331e-05,0
76.37,3.1724e-05,0
76.371,2.9206e-05,0
76.371,1.0575e-05,0
76.372,-5.3712e-06,0
76.372,-2.4506e-05,0
76.373,-5.0019e-05,0
76.373,-5.8747e-05,0
76.374,-3.6759e-05,0
76.374,-2.3499e-06,0
76.375,1.7288e-05,0
76.375,9.9031e-06,0
76.376,-4.5319e-06,0
76.376,9.2317e-06,0
76.377,4.2802e-05,0
76.377,6.6468e-05,0
76.378,7.8218e-05,0
76.378,7.7043e-05,0
76.379,5.1698e-05,0
76.379,1.7456e-05,0
76.38,-7.2175e-06,0
76.38,-2.2995e-05,0
76.381,-2.3499e-05,0
76.381,-5.7069e-06,0
76.382,1.4099e-05,0
76.382,2.0981e-05,0
76.383,1.9638e-05,0
76.384,3.3402e-05,0
76.384,6.9657e-05,0
76.385,0.00010088,0
76.385,9.7185e-05,0
76.386,6.2776e-05,0
76.386,1.1749e-05,0
76.387,-3.3402e-05,0
76.387,-5.1194e-05,0
76.388,-3.9109e-05,0
76.388,-6.5461e-06,0
76.389,3.5248e-05,0
76.389,7.6371e-05,0
76.39,0.00012102,0
76.39,0.0001697,0
76.391,0.00019924,0
76.391,0.00019403,0
76.392,0.00015912,0
76.392,0.00011498,0
76.393,7.3686e-05,0
76.393,2.7527e-05,0
76.394,-1.9974e-05,0
76.394,-4.6159e-05,0
76.395,-4.7166e-05,0
76.395,-6.0258e-05,0
76.396,-0.00010373,0
76.397,-0.00015224,0
76.397,-0.00017758,0
76.398,-0.00017288,0
76.398,-0.00014301,0
76.399,-0.00010491,0
76.399,-7.5029e-05,0
76.4,-4.918e-05,0
76.4,-1.1246e-05,0
76.401,3.2395e-05,0
76.401,7.1e-05,0
76.402,0.00011733,0
76.402,0.00017507,0
76.403,0.00021736,0
76.403,0.00022139,0
76.404,0.00019319,0
76.404,0.00014737,0
76.405,9.1142e-05,0
76.405,3.9109e-05,0
76.406,5.0355e-07,0
76.406,-3.8773e-05,0
76.407,-8.9632e-05,0
76.407,-0.00014871,0
76.408,-0.00021032,0
76.408,-0.00025631,0
76.409,-0.00025933,0
76.409,-0.00022156,0
76.41,-0.0001707,0
76.411,-0.00011162,0
76.411,-3.4577e-05,0
76.412,5.1865e-05,0
76.412,0.00011464,0
76.413,0.00014049,0
76.413,0.00013394,0
76.414,0.00010558,0
76.414,8.1743e-05,0
76.415,6.9322e-05,0
76.415,5.7069e-05,0
76.416,4.5823e-05,0
76.416,4.1459e-05,0
76.417,3.9277e-05,0
76.417,2.9709e-05,0
76.418,1.1246e-05,0
76.418,-2.5177e-06,0
76.419,-4.8676e-06,0
76.419,-3.6927e-06,0
76.42,-7.8889e-06,0
76.42,-1.2924e-05,0
76.421,-6.8818e-06,0
76.421,-1.8463e-06,0
76.422,-1.4939e-05,0
76.422,-2.266e-05,0
76.423,-1.1749e-05,0
76.424,1.1582e-05,0
76.424,4.1962e-05,0
76.425,8.1743e-05,0
76.425,0.00013948,0
76.426,0.00021804,0
76.426,0.0002986,0
76.427,0.00034157,0
76.427,0.00032848,0
76.428,0.00027309,0
76.428,0.00020125,0
76.429,0.00013848,0
76.429,9.2485e-05,0
76.43,5.6901e-05,0
76.43,8.896e-06,0
76.431,-6.4622e-05,0
76.431,-0.00013848,0
76.432,-0.00017607,0
76.432,-0.00016281,0
76.433,-0.00011162,0
76.433,-4.8508e-05,0
76.434,1.0071e-06,0
76.434,2.9374e-05,0
76.435,5.4215e-05,0
76.435,8.3757e-05,0
76.436,0.00011028,0
76.436,0.00014015,0
76.437,0.00018178,0
76.438,0.00020478,0
76.438,0.00017842,0
76.439,0.00011884,0
76.439,5.153e-05,0
76.44,-1.4267e-05,0
76.44,-7.4861e-05,0
76.441,-0.00010491,0
76.441,-8.8121e-05,0
76.442,-5.2705e-05,0
76.442,-3.6759e-05,0
76.443,-4.6494e-05,0
76.443,-6.3447e-05,0
76.444,-8.0232e-05,0
76.444,-0.00011363,0
76.445,-0.00015073,0
76.445,-0.00016063,0
76.446,-0.00015073,0
76.446,-0.00015258,0
76.447,-0.00015979,0
76.447,-0.00014435,0
76.448,-0.00010574,0
76.448,-6.1601e-05,0
76.449,-1.5778e-05,0
76.449,3.6927e-05,0
76.45,8.1071e-05,0
76.451,9.7185e-05,0
76.451,9.2821e-05,0
76.452,8.3757e-05,0
76.452,6.7979e-05,0
76.453,5.7908e-05,0
76.453,8.2078e-05,0
76.454,0.00013931,0
76.454,0.00019957,0
76.455,0.00022475,0
76.455,0.00019185,0
76.456,0.00012438,0
76.456,5.9754e-05,0
76.457,8.896e-06,0
76.457,-1.6953e-05,0
76.458,-1.9471e-05,0
76.458,-3.5752e-05,0
76.459,-7.5868e-05,0
76.459,-0.00011951,0
76.46,-0.0001655,0
76.46,-0.00021048,0
76.461,-0.00023449,0
76.461,-0.00023046,0
76.462,-0.00020327,0
76.462,-0.00016802,0
76.463,-0.0001368,0
76.463,-9.6345e-05,0
76.464,-4.683e-05,0
76.465,-2.8534e-06,0
76.465,3.3066e-05,0
76.466,6.7475e-05,0
76.466,0.00010776,0
76.467,0.00014418,0
76.467,0.00015912,0
76.468,0.00015761,0
76.468,0.00014955,0
76.469,0.00014385,0
76.469,0.00014234,0
76.47,0.00013075,0
76.47,9.752e-05,0
76.471,5.6901e-05,0
76.471,3.6423e-05,0
76.472,4.213e-05,0
76.472,6.3279e-05,0
76.473,9.0974e-05,0
76.473,0.00011162,0
76.474,0.00011128,0
76.474,9.987e-05,0
76.475,9.9702e-05,0
76.475,0.00011934,0
76.476,0.0001425,0
76.476,0.0001415,0
76.477,0.00011699,0
76.478,0.00010105,0
76.478,0.00011481,0
76.479,0.0001378,0
76.479,0.00012941,0
76.48,7.6707e-05,0
76.48,1.8463e-05,0
76.481,3.5248e-06,0
76.481,3.743e-05,0
76.482,8.8624e-05,0
76.482,0.0001279,0
76.483,0.00015425,0
76.483,0.00018883,0
76.484,0.00022072,0
76.484,0.0002172,0
76.485,0.00017977,0
76.485,0.00010826,0
76.486,3.357e-07,0
76.486,-0.00010457,0
76.487,-0.00017003,0
76.487,-0.00021653,0
76.488,-0.00028417,0
76.488,-0.00037615,0
76.489,-0.00044514,0
76.489,-0.00045353,0
76.49,-0.00040317,0
76.49,-0.0003028,0
76.491,-0.0001608,0
76.492,-1.561e-05,0
76.492,7.7714e-05,0
76.493,0.00011028,0
76.493,0.00010524,0
76.494,8.3421e-05,0
76.494,6.5797e-05,0
76.495,6.7308e-05,0
76.495,8.7449e-05,0
76.496,9.7353e-05,0
76.496,6.6972e-05,0
76.497,1.1917e-05,0
76.497,-3.508e-05,0
76.498,-5.6397e-05,0
76.498,-3.508e-05,0
76.499,2.9038e-05,0
76.499,0.00010793,0
76.5,0.0001744,0
76.5,0.0002219,0
76.501,0.00023012,0
76.501,0.00019185,0
76.502,0.00014049,0
76.502,0.000118,0
76.503,0.0001138,0
76.503,9.2149e-05,0
76.504,4.7837e-05,0
76.504,3.0045e-05,0
76.505,7.2847e-05,0
76.506,0.00013143,0
76.506,0.00015123,0
76.507,0.00012471,0
76.507,7.9728e-05,0
76.508,3.1388e-05,0
76.508,-5.2033e-06,0
76.509,-1.2924e-05,0
76.509,-8.0568e-06,0
76.51,-5.2537e-05,0
76.51,-0.00017842,0
76.511,-0.00033201,0
76.511,-0.00042449,0
76.512,-0.00041962,0
76.512,-0.0003555,0
76.513,-0.00027913,0
76.513,-0.00016281,0
76.514,3.9277e-05,0
76.514,0.00026151,0
76.515,0.00038051,0
76.515,0.00038085,0
76.516,0.00034627,0
76.516,0.00033587,0
76.517,0.00032378,0
76.517,0.00027477,0
76.518,0.00019504,0
76.519,0.00010188,0
76.519,-7.7211e-06,0
76.52,-0.0001044,0
76.52,-0.00015123,0
76.521,-0.00016365,0
76.521,-0.00018866,0
76.522,-0.00023365,0
76.522,-0.00026873,0
76.523,-0.0002751,0
76.523,-0.00026487,0
76.524,-0.00024489,0
76.524,-0.00021535,0
76.525,-0.00015761,0
76.525,-6.3279e-05,0
76.526,1.6785e-05,0
76.526,6.3783e-05,0
76.527,9.3324e-05,0
76.527,9.601e-05,0
76.528,6.5293e-05,0
76.528,1.8463e-05,0
76.529,-2.7695e-05,0
76.529,-5.8579e-05,0
76.53,-6.7308e-05,0
76.53,-7.8218e-05,0
76.531,-0.00010373,0
76.531,-0.00011783,0
76.532,-9.3324e-05,0
76.533,-3.8941e-05,0
76.533,1.0575e-05,0
76.534,3.9948e-05,0
76.534,5.9586e-05,0
76.535,8.3085e-05,0
76.535,0.00011884,0
76.536,0.00015929,0
76.536,0.00018379,0
76.537,0.00020024,0
76.537,0.00023214,0
76.538,0.00027041,0
76.538,0.00028518,0
76.539,0.00026839,0
76.539,0.00024926,0
76.54,0.00024892,0
76.54,0.00024892,0
76.541,0.0002271,0
76.541,0.00018245,0
76.542,0.00013025,0
76.542,7.5029e-05,0
76.543,1.5274e-05,0
76.543,-3.9445e-05,0
76.544,-7.57e-05,0
76.544,-9.5003e-05,0
76.545,-0.00011196,0
76.546,-0.00012908,0
76.546,-0.00012824,0
76.547,-0.00010826,0
76.547,-8.3757e-05,0
76.548,-5.7572e-05,0
76.548,-2.5177e-05,0
76.549,1.4939e-05,0
76.549,6.4286e-05,0
76.55,0.00010692,0
76.55,0.00012538,0
76.551,0.00014855,0
76.551,0.00019991,0
76.552,0.00025614,0
76.552,0.00028652,0
76.553,0.00027309,0
76.553,0.00021636,0
76.554,0.00015023,0
76.554,0.00010809,0
76.555,0.00010155,0
76.555,0.00012236,0
76.556,0.00011682,0
76.556,5.2537e-05,0
76.557,-4.7669e-05,0
76.557,-0.00014401,0
76.558,-0.00021183,0
76.558,-0.00023029,0
76.559,-0.00018933,0
76.56,-0.00013982,0
76.56,-0.00015023,0
76.561,-0.0002083,0
76.561,-0.00022962,0
76.562,-0.00014955,0
76.562,-1.6785e-06,0
76.563,0.0001368,0
76.563,0.00021535,0
76.564,0.00021434,0
76.564,0.00015358,0
76.565,5.7908e-05,0
76.565,-5.7069e-05,0
76.566,-0.00015996,0
76.566,-0.00019236,0
76.567,-0.00010558,0
76.567,8.5435e-05,0
76.568,0.00028148,0
76.568,0.0003832,0
76.569,0.00037951,0
76.569,0.0003117,0
76.57,0.00021602,0
76.57,9.5506e-05,0
76.571,-5.6565e-05,0
76.571,-0.00022811,0
76.572,-0.00038236,0
76.573,-0.00049734,0
76.573,-0.00055038,0
76.574,-0.00050909,0
76.574,-0.00038924,0
76.575,-0.00026017,0
76.575,-0.00018027,0
76.576,-0.00014032,0
76.576,-0.00010155,0
76.577,-4.7501e-05,0
76.577,2.5177e-06,0
76.578,3.122e-05,0
76.578,3.4745e-05,0
76.579,2.9206e-05,0
76.579,4.0116e-05,0
76.58,7.4693e-05,0
76.58,0.00011162,0
76.581,0.0001331,0
76.581,0.00014452,0
76.582,0.00014653,0
76.582,0.00013613,0
76.583,0.00012706,0
76.583,0.00012186,0
76.584,0.00011582,0
76.584,0.00010558,0
76.585,8.6442e-05,0
76.585,6.9657e-05,0
76.586,6.949e-05,0
76.587,7.9393e-05,0
76.587,8.6778e-05,0
76.588,9.4667e-05,0
76.588,0.00010541,0
76.589,0.0001091,0
76.589,0.00010726,0
76.59,0.0001086,0
76.59,0.00011263,0
76.591,0.00011263,0
76.591,0.00010507,0
76.592,9.3156e-05,0
76.592,8.5771e-05,0
76.593,8.8792e-05,0
76.593,9.4163e-05,0
76.594,9.3156e-05,0
76.594,8.6275e-05,0
76.595,7.5364e-05,0
76.595,6.2608e-05,0
76.596,4.5823e-05,0
76.596,2.8031e-05,0
76.597,1.8463e-05,0
76.597,1.6449e-05,0
76.598,1.2253e-05,0
76.598,1.1749e-06,0
76.599,-9.7353e-06,0
76.6,-8.896e-06,0
76.6,7.8889e-06,0
76.601,3.3066e-05,0
76.601,6.1936e-05,0
76.602,0.00010826,0
76.602,0.00016197,0
76.603,0.00019286,0
76.603,0.00019454,0
76.604,0.00018766,0
76.604,0.00018984,0
76.605,0.00019084,0
76.605,0.00016768,0
76.606,0.00011598,0
76.606,4.1794e-05,0
76.607,-4.4816e-05,0
76.607,-0.0001368,0
76.608,-0.00020075,0
76.608,-0.00019991,0
76.609,-0.00015845,0
76.609,-0.00012673,0
76.61,-0.00011598,0
76.61,-9.7185e-05,0
76.611,-4.5487e-05,0
76.611,2.2995e-05,0
76.612,5.8244e-05,0
76.612,2.7695e-05,0
76.613,-4.4144e-05,0
76.614,-8.04e-05,0
76.614,-7.6539e-05,0
76.615,-9.4163e-05,0
76.615,-0.00014334,0
76.616,-0.00018933,0
76.616,-0.00020629,0
76.617,-0.00020763,0
76.617,-0.00021653,0
76.618,-0.00024204,0
76.618,-0.00026671,0
76.619,-0.00025345,0
76.619,-0.00020125,0
76.62,-0.00014318,0
76.62,-9.0639e-05,0
76.621,-1.6617e-05,0
76.621,7.6371e-05,0
76.622,0.00013999,0
76.622,0.00015258,0
76.623,0.00015023,0
76.623,0.00016802,0
76.624,0.00019857,0
76.624,0.00023214,0
76.625,0.00025866,0
76.625,0.00026705,0
76.626,0.00024489,0
76.627,0.00018195,0
76.627,0.00011028,0
76.628,8.51e-05,0
76.628,0.00011196,0
76.629,0.00014754,0
76.629,0.00014116,0
76.63,8.0232e-05,0
76.63,1.1749e-06,0
76.631,-5.5726e-05,0
76.631,-7.5364e-05,0
76.632,-6.6804e-05,0
76.632,-5.2201e-05,0
76.633,-5.2537e-05,0
76.633,-6.5461e-05,0
76.634,-7.1504e-05,0
76.634,-6.63e-05,0
76.635,-5.9922e-05,0
76.635,-5.774e-05,0
76.636,-4.8173e-05,0
76.636,-1.7121e-05,0
76.637,3.0381e-05,0
76.637,7.4022e-05,0
76.638,9.5171e-05,0
76.638,0.0001044,0
76.639,0.00013143,0
76.639,0.0001801,0
76.64,0.00021804,0
76.641,0.00021804,0
76.641,0.00018883,0
76.642,0.00016466,0
76.642,0.00016063,0
76.643,0.00014754,0
76.643,8.9128e-05,0
76.644,-2.0478e-05,0
76.644,-0.00015711,0
76.645,-0.00026235,0
76.645,-0.00028904,0
76.646,-0.00025312,0
76.646,-0.00019554,0
76.647,-0.00013948,0
76.647,-7.805e-05,0
76.648,-6.8818e-06,0
76.648,6.0258e-05,0
76.649,0.00010323,0
76.649,0.00011531,0
76.65,0.0001138,0
76.65,0.00012337,0
76.651,0.0001378,0
76.651,0.00013814,0
76.652,0.00010642,0
76.652,4.6662e-05,0
76.653,-2.5681e-05,0
76.654,-8.6275e-05,0
76.654,-0.00012068,0
76.655,-0.00012589,0
76.655,-0.00010239,0
76.656,-6.4454e-05,0
76.656,-3.4745e-05,0
76.657,-2.4338e-05,0
76.657,-2.0645e-05,0
76.658,-2.182e-06,0
76.658,4.2298e-05,0
76.659,8.7449e-05,0
76.659,0.000118,0
76.66,0.00014318,0
76.66,0.00015677,0
76.661,0.00015224,0
76.661,0.00014318,0
76.662,0.00014049,0
76.662,0.00013814,0
76.663,0.0001284,0
76.663,0.0001091,0
76.664,8.2414e-05,0
76.664,5.1698e-05,0
76.665,2.266e-05,0
76.665,-3.5248e-06,0
76.666,-1.796e-05,0
76.666,-9.3996e-06,0
76.667,1.7288e-05,0
76.668,3.9445e-05,0
76.668,4.2634e-05,0
76.669,3.7263e-05,0
76.669,2.8031e-05,0
76.67,8.3925e-07,0
76.67,-4.9851e-05,0
76.671,-0.00011229,0
76.671,-0.00016567,0
76.672,-0.00018094,0
76.672,-0.00015392,0
76.673,-0.00010524,0
76.673,-5.2369e-05,0
76.674,3.6927e-06,0
76.674,7.9393e-05,0
76.675,0.0001697,0
76.675,0.00022509,0
76.676,0.00020763,0
76.676,0.00012975,0
76.677,3.9445e-05,0
76.677,-2.7024e-05,0
76.678,-6.865e-05,0
76.678,-9.6849e-05,0
76.679,-0.00012253,0
76.679,-0.00015425,0
76.68,-0.00018849,0
76.681,-0.0001989,0
76.681,-0.00015375,0
76.682,-6.479e-05,0
76.682,1.4939e-05,0
76.683,4.9516e-05,0
76.683,4.5319e-05,0
76.684,2.5849e-05,0
76.684,7.5532e-06,0
76.685,3.2731e-05,0
76.685,0.00011632,0
76.686,0.00019387,0
76.686,0.00021468,0
76.687,0.00019286,0
76.687,0.000165,0
76.688,0.00015442,0
76.688,0.00015409,0
76.689,0.00014334,0
76.689,0.00011901,0
76.69,9.8695e-05,0
76.69,0.00011196,0
76.691,0.00016533,0
76.691,0.00022072,0
76.692,0.00022408,0
76.692,0.0001744,0
76.693,0.00011901,0
76.694,8.3421e-05,0
76.694,5.3376e-05,0
76.695,1.0071e-06,0
76.695,-6.5126e-05,0
76.696,-0.00013143,0
76.696,-0.00020092,0
76.697,-0.0002459,0
76.697,-0.00024086,0
76.698,-0.00020645,0
76.698,-0.00017322,0
76.699,-0.0001519,0
76.699,-0.00014737,0
76.7,-0.00014603,0
76.7,-0.00012656,0
76.701,-9.131e-05,0
76.701,-5.9251e-05,0
76.702,-3.978e-05,0
76.702,-2.4506e-05,0
76.703,-5.539e-06,0
76.703,1.0407e-05,0
76.704,1.2757e-05,0
76.704,6.5461e-06,0
76.705,1.8463e-06,0
76.705,6.0426e-06,0
76.706,1.7288e-05,0
76.706,3.2563e-05,0
76.707,4.5319e-05,0
76.708,5.2873e-05,0
76.708,6.0761e-05,0
76.709,7.2847e-05,0
76.709,9.1478e-05,0
76.71,0.0001227,0
76.71,0.00017675,0
76.711,0.00025429,0
76.711,0.00032798,0
76.712,0.00036205,0
76.712,0.00034627,0
76.713,0.00030666,0
76.713,0.00025496,0
76.714,0.00018766,0
76.714,8.9128e-05,0
76.715,-4.0787e-05,0
76.715,-0.00017137,0
76.716,-0.00027561,0
76.716,-0.00033217,0
76.717,-0.00032479,0
76.717,-0.00027729,0
76.718,-0.0002271,0
76.718,-0.00019051,0
76.719,-0.00015778,0
76.719,-0.00012136,0
76.72,-8.7114e-05,0
76.721,-5.9586e-05,0
76.721,-3.4577e-05,0
76.722,0,0
76.722,4.9516e-05,0
76.723,8.51e-05,0
76.723,9.8192e-05,0
76.724,9.987e-05,0
76.724,9.8192e-05,0
76.725,0.00010021,0
76.725,0.00010188,0
76.726,8.6275e-05,0
76.726,5.2369e-05,0
76.727,9.2317e-06,0
76.727,-1.7792e-05,0
76.728,-1.3428e-06,0
76.728,6.1601e-05,0
76.729,0.0001425,0
76.729,0.00017641,0
76.73,0.00014939,0
76.73,0.0001227,0
76.731,0.00013663,0
76.731,0.00016751,0
76.732,0.00016164,0
76.732,9.4835e-05,0
76.733,-5.539e-06,0
76.733,-7.8553e-05,0
76.734,-8.3085e-05,0
76.735,-2.8702e-05,0
76.735,3.0716e-05,0
76.736,3.7934e-05,0
76.736,-2.0645e-05,0
76.737,-0.0001039,0
76.737,-0.00016466,0
76.738,-0.00017641,0
76.738,-0.00014888,0
76.739,-0.0001138,0
76.739,-7.1336e-05,0
76.74,-6.3783e-06,0
76.74,5.2873e-05,0
76.741,8.04e-05,0
76.741,8.9799e-05,0
76.742,0.00010423,0
76.742,0.00012438,0
76.743,0.00013008,0
76.743,0.00011514,0
76.744,9.9535e-05,0
76.744,0.00010507,0
76.745,0.00013344,0
76.745,0.00016533,0
76.746,0.00017607,0
76.746,0.00017339,0
76.747,0.00016886,0
76.748,0.00015358,0
76.748,0.00012303,0
76.749,8.6778e-05,0
76.749,5.6565e-05,0
76.75,3.8773e-05,0
76.75,4.2466e-05,0
76.751,5.3544e-05,0
76.751,5.2873e-05,0
76.752,4.6662e-05,0
76.752,5.1194e-05,0
76.753,5.8915e-05,0
76.753,4.8844e-05,0
76.754,1.9638e-05,0
76.754,-1.1582e-05,0
76.755,-4.1794e-05,0
76.755,-9.5171e-05,0
76.756,-0.00015828,0
76.756,-0.00019873,0
76.757,-0.00021703,0
76.757,-0.00021787,0
76.758,-0.00019873,0
76.758,-0.00016382,0
76.759,-0.0001284,0
76.759,-0.00010222,0
76.76,-8.0735e-05,0
76.76,-6.4622e-05,0
76.761,-6.6133e-05,0
76.762,-7.8721e-05,0
76.762,-7.2007e-05,0
76.763,-3.9109e-05,0
76.763,-3.5248e-06,0
76.764,1.091e-05,0
76.764,5.7069e-06,0
76.765,-4.8676e-06,0
76.765,-9.9031e-06,0
76.766,-3.6927e-06,0
76.766,2.266e-05,0
76.767,7.6707e-05,0
76.767,0.0001415,0
76.768,0.00018715,0
76.768,0.0001843,0
76.769,0.00013915,0
76.769,8.8457e-05,0
76.77,5.4047e-05,0
76.77,3.0381e-05,0
76.771,1.5946e-05,0
76.771,1.1582e-05,0
76.772,1.8967e-05,0
76.772,5.0523e-05,0
76.773,0.0001044,0
76.773,0.0001519,0
76.774,0.0001702,0
76.775,0.0001603,0
76.775,0.00013613,0
76.776,8.6442e-05,0
76.776,1.2589e-05,0
76.777,-5.2537e-05,0
76.777,-8.2414e-05,0
76.778,-7.6707e-05,0
76.778,-4.8844e-05,0
76.779,-1.7624e-05,0
76.779,6.2104e-06,0
76.78,2.9374e-05,0
76.78,5.6901e-05,0
76.781,7.335e-05,0
76.781,7.1336e-05,0
76.782,5.8747e-05,0
76.782,4.6159e-05,0
76.783,3.4409e-05,0
76.783,2.1317e-05,0
76.784,1.2253e-05,0
76.784,6.3783e-06,0
76.785,-2.5177e-06,0
76.785,-1.561e-05,0
76.786,-2.8031e-05,0
76.786,-3.3738e-05,0
76.787,-3.4409e-05,0
76.787,-3.5416e-05,0
76.788,-2.9709e-05,0
76.789,-5.2033e-06,0
76.789,3.5416e-05,0
76.79,7.6036e-05,0
76.79,0.00010256,0
76.791,0.00012203,0
76.791,0.00014687,0
76.792,0.00016365,0
76.792,0.00015996,0
76.793,0.00013277,0
76.793,9.1646e-05,0
76.794,5.153e-05,0
76.794,2.031e-05,0
76.795,-1.3596e-05,0
76.795,-6.4622e-05,0
76.796,-0.00011498,0
76.796,-0.00012052,0
76.797,-8.7953e-05,0
76.797,-5.1362e-05,0
76.798,-3.6088e-05,0
76.798,-4.7837e-05,0
76.799,-7.7043e-05,0
76.799,-0.0001091,0
76.8,-0.00013092,0
76.8,-0.00013092,0
76.801,-0.00011447,0
76.802,-9.1478e-05,0
76.802,-5.4551e-05,0
76.803,-9.5674e-06,0
76.803,2.7359e-05,0
76.804,5.2201e-05,0
76.804,6.9657e-05,0
76.805,8.5771e-05,0
76.805,9.2485e-05,0
76.806,7.4693e-05,0
76.806,3.8773e-05,0
76.807,7.7211e-06,0
76.807,-3.1891e-06,0
76.808,1.8463e-06,0
76.808,3.357e-07,0
76.809,-6.2104e-06,0
76.809,9.5674e-06,0
76.81,5.0187e-05,0
76.81,8.6442e-05,0
76.811,0.00010188,0
76.811,0.00010994,0
76.812,0.0001086,0
76.812,8.51e-05,0
76.813,3.4409e-05,0
76.813,-1.561e-05,0
76.814,-2.5681e-05,0
76.814,2.5177e-06,0
76.815,3.8773e-05,0
76.816,6.0594e-05,0
76.816,6.4622e-05,0
76.817,6.6133e-05,0
76.817,8.5771e-05,0
76.818,0.00012522,0
76.818,0.00017037,0
76.819,0.0002083,0
76.819,0.00022492,0
76.82,0.00022307,0
76.82,0.00021602,0
76.821,0.00021015,0
76.821,0.00016902,0
76.822,7.5029e-05,0
76.822,-3.1052e-05,0
76.823,-0.00013713,0
76.823,-0.00024388,0
76.824,-0.00032277,0
76.824,-0.00034745,0
76.825,-0.00031505,0
76.825,-0.00025161,0
76.826,-0.00018766,0
76.826,-0.00013327,0
76.827,-7.7379e-05,0
76.827,-1.326e-05,0
76.828,3.7766e-05,0
76.829,5.539e-05,0
76.829,4.4144e-05,0
76.83,2.501e-05,0
76.83,6.2104e-06,0
76.831,-1.3931e-05,0
76.831,-2.0813e-05,0
76.832,1.2589e-05,0
76.832,8.2246e-05,0
76.833,0.0001378,0
76.833,0.00012807,0
76.834,6.0929e-05,0
76.834,-2.182e-06,0
76.835,-1.1917e-05,0
76.835,1.4603e-05,0
76.836,3.8437e-05,0
76.836,2.7863e-05,0
76.837,-1.6281e-05,0
76.837,-6.3783e-05,0
76.838,-7.9057e-05,0
76.838,-3.1388e-05,0
76.839,6.0258e-05,0
76.839,0.00014939,0
76.84,0.0002036,0
76.84,0.00020528,0
76.841,0.00016365,0
76.841,0.00010793,0
76.842,5.9251e-05,0
76.843,1.9806e-05,0
76.843,-1.2924e-05,0
76.844,-3.1052e-05,0
76.844,-2.0142e-05,0
76.845,1.8631e-05,0
76.845,5.069e-05,0
76.846,4.7837e-05,0
76.846,3.743e-05,0
76.847,5.8244e-05,0
76.847,0.00011061,0
76.848,0.00015711,0
76.848,0.00017205,0
76.849,0.00016298,0
76.849,0.00013848,0
76.85,9.7185e-05,0
76.85,4.3809e-05,0
76.851,2.5177e-06,0
76.851,-1.091e-05,0
76.852,-9.5674e-06,0
76.852,-1.9135e-05,0
76.853,-4.9012e-05,0
76.853,-9.7688e-05,0
76.854,-0.00014267,0
76.854,-0.00015073,0
76.855,-0.00011901,0
76.856,-7.8889e-05,0
76.856,-4.9683e-05,0
76.857,-2.9877e-05,0
76.857,-1.6617e-05,0
76.858,-8.3925e-07,0
76.858,1.5106e-05,0
76.859,3.2563e-05,0
76.859,5.2873e-05,0
76.86,6.9322e-05,0
76.86,7.4022e-05,0
76.861,6.5965e-05,0
76.861,5.2201e-05,0
76.862,4.213e-05,0
76.862,4.2802e-05,0
76.863,5.1865e-05,0
76.863,5.623e-05,0
76.864,4.1962e-05,0
76.864,1.3764e-05,0
76.865,-4.8676e-06,0
76.865,6.3783e-06,0
76.866,5.1194e-05,0
76.866,0.0001039,0
76.867,0.00013176,0
76.867,0.00012589,0
76.868,0.00010524,0
76.868,9.0471e-05,0
76.869,8.5267e-05,0
76.87,8.7617e-05,0
76.87,8.04e-05,0
76.871,4.7837e-05,0
76.871,-8.896e-06,0
76.872,-6.0929e-05,0
76.872,-8.3421e-05,0
76.873,-7.335e-05,0
76.873,-4.3473e-05,0
76.874,-1.5106e-06,0
76.874,4.1123e-05,0
76.875,6.5461e-05,0
76.875,6.4958e-05,0
76.876,4.2802e-05,0
76.876,1.0575e-05,0
76.877,-2.5177e-05,0
76.877,-6.8986e-05,0
76.878,-0.00011531,0
76.878,-0.00014418,0
76.879,-0.00014855,0
76.879,-0.00014284,0
76.88,-0.00013629,0
76.88,-0.00010877,0
76.881,-4.0116e-05,0
76.881,4.2802e-05,0
76.882,0.00010893,0
76.882,0.00014905,0
76.883,0.0001556,0
76.884,0.00013277,0
76.884,0.00011447,0
76.885,0.00010423,0
76.885,7.805e-05,0
76.886,3.9445e-05,0
76.886,1.2589e-05,0
76.887,5.0355e-06,0
76.887,8.896e-06,0
76.888,7.0497e-06,0
76.888,-1.3596e-05,0
76.889,-4.5319e-05,0
76.889,-5.7908e-05,0
76.89,-3.0381e-05,0
76.89,1.8463e-05,0
76.891,5.0187e-05,0
76.891,5.0858e-05,0
76.892,3.8605e-05,0
76.892,3.4913e-05,0
76.893,3.9445e-05,0
76.893,4.6494e-05,0
76.894,5.1865e-05,0
76.894,4.6662e-05,0
76.895,1.9974e-05,0
76.895,-8.0568e-06,0
76.896,9.0639e-06,0
76.897,6.6804e-05,0
76.897,0.00011447,0
76.898,0.00014653,0
76.898,0.00019655,0
76.899,0.00026638,0
76.899,0.00034057,0
76.9,0.00038824,0
76.9,0.0003644,0
76.901,0.0002751,0
76.901,0.00017574,0
76.902,0.00010121,0
76.902,2.7359e-05,0
76.903,-8.8121e-05,0
76.903,-0.00024439,0
76.904,-0.00037028,0
76.904,-0.00040703,0
76.905,-0.00037565,0
76.905,-0.00031572,0
76.906,-0.0002506,0
76.906,-0.00021552,0
76.907,-0.00022072,0
76.907,-0.00026772,0
76.908,-0.00033939,0
76.908,-0.00036474,0
76.909,-0.00030062,0
76.909,-0.00019655,0
76.91,-0.00011028,0
76.911,-5.2201e-05,0
76.911,5.539e-06,0
76.912,8.2078e-05,0
76.912,0.00015157,0
76.913,0.00018514,0
76.913,0.00017842,0
76.914,0.00014653,0
76.914,0.00011095,0
76.915,7.6204e-05,0
76.915,4.4144e-05,0
76.916,3.9277e-05,0
76.916,9.3156e-05,0
76.917,0.00020662,0
76.917,0.00033352,0
76.918,0.00040133,0
76.918,0.0003832,0
76.919,0.00028853,0
76.919,0.00015392,0
76.92,4.1123e-05,0
76.92,-2.3331e-05,0
76.921,-6.1601e-05,0
76.921,-8.9632e-05,0
76.922,-9.9702e-05,0
76.922,-9.3828e-05,0
76.923,-7.4861e-05,0
76.924,-5.4551e-05,0
76.924,-2.6184e-05,0
76.925,2.8031e-05,0
76.925,9.1478e-05,0
76.926,0.00013227,0
76.926,0.00015962,0
76.927,0.00019135,0
76.927,0.00020864,0
76.928,0.00017977,0
76.928,0.00010457,0
76.929,2.8031e-05,0
76.929,-8.896e-06,0
76.93,-1.9303e-05,0
76.93,-4.6159e-05,0
76.931,-0.00011095,0
76.931,-0.00019857,0
76.932,-0.00027729,0
76.932,-0.0003164,0
76.933,-0.00029609,0
76.933,-0.00024472,0
76.934,-0.00019236,0
76.934,-0.00013193,0
76.935,-6.7643e-05,0
76.935,-1.2085e-05,0
76.936,5.7908e-05,0
76.936,0.00015023,0
76.937,0.00021938,0
76.938,0.00024858,0
76.938,0.00027897,0
76.939,0.00034829,0
76.939,0.00043725,0
76.94,0.00049163,0
76.94,0.00046377,0
76.941,0.00036239,0
76.941,0.00023415,0
76.942,9.6178e-05,0
76.942,-5.8747e-05,0
76.943,-0.00020008,0
76.943,-0.00029038,0
76.944,-0.00033033,0
76.944,-0.00034896,0
76.945,-0.00035634,0
76.945,-0.00032982,0
76.946,-0.00027141,0
76.946,-0.00020763,0
76.947,-0.0001566,0
76.947,-0.00011901,0
76.948,-8.6442e-05,0
76.948,-3.3234e-05,0
76.949,5.6565e-05,0
76.949,0.00015157,0
76.95,0.00022039,0
76.951,0.00026067,0
76.951,0.00027108,0
76.952,0.00025614,0
76.952,0.00024321,0
76.953,0.00024456,0
76.953,0.00024355,0
76.954,0.00022576,0
76.954,0.00018614,0
76.955,0.00012505,0
76.955,5.5558e-05,0
76.956,-4.1962e-06,0
76.956,-5.4887e-05,0
76.957,-0.00011196,0
76.957,-0.0001796,0
76.958,-0.00023029,0
76.958,-0.00025396,0
76.959,-0.00025328,0
76.959,-0.00019907,0
76.96,-8.9799e-05,0
76.96,4.1459e-05,0
76.961,0.0001566,0
76.961,0.00022643,0
76.962,0.00022274,0
76.962,0.00013999,0
76.963,2.9877e-05,0
76.963,-4.3137e-05,0
76.964,-6.5293e-05,0
76.965,-5.9251e-05,0
76.965,-4.5487e-05,0
76.966,-2.1653e-05,0
76.966,5.0858e-05,0
76.967,0.00016902,0
76.967,0.00026906,0
76.968,0.00029575,0
76.968,0.00026252,0
76.969,0.00019857,0
76.969,0.00011263,0
76.97,2.8199e-05,0
76.97,-2.1988e-05,0
76.971,-4.5823e-05,0
76.971,-8.0232e-05,0
76.972,-0.00014653,0
76.972,-0.00022341,0
76.973,-0.00025899,0
76.973,-0.00022676,0
76.974,-0.00015929,0
76.974,-0.00011128,0
76.975,-9.5674e-05,0
76.975,-8.7114e-05,0
76.976,-6.1936e-05,0
76.976,-2.4506e-05,0
76.977,6.8818e-06,0
76.978,3.2731e-05,0
76.978,6.2272e-05,0
76.979,8.3085e-05,0
76.979,8.9799e-05,0
76.98,0.00012052,0
76.98,0.00020125,0
76.981,0.00027645,0
76.981,0.0002939,0
76.982,0.00024741,0
76.982,0.00016483,0
76.983,8.8457e-05,0
76.983,2.8367e-05,0
76.984,-2.1988e-05,0
76.984,-5.0858e-05,0
76.985,-6.3783e-05,0
76.985,-6.9657e-05,0
76.986,-7.0329e-05,0
76.986,-6.2104e-05,0
76.987,-4.1794e-05,0
76.987,-1.326e-05,0
76.988,1.8631e-05,0
76.988,4.9851e-05,0
76.989,7.9393e-05,0
76.989,0.00010524,0
76.99,0.00010625,0
76.99,8.5435e-05,0
76.991,6.6468e-05,0
76.992,6.1433e-05,0
76.992,7.2007e-05,0
76.993,8.9128e-05,0
76.993,8.9464e-05,0
76.994,5.2201e-05,0
76.994,-1.4435e-05,0
76.995,-7.4189e-05,0
76.995,-7.5532e-05,0
76.996,-1.7624e-05,0
76.996,4.213e-05,0
76.997,5.153e-05,0
76.997,-4.8676e-06,0
76.998,-9.6849e-05,0
76.998,-0.00016332,0
76.999,-0.00016835,0
76.999,-0.00012572,0
77,-7.6036e-05,0
77,-3.1388e-05,0
77.001,1.3596e-05,0
77.001,4.683e-05,0
77.002,6.63e-05,0
77.002,6.6972e-05,0
77.003,4.8676e-05,0
77.003,1.2421e-05,0
77.004,-2.7695e-05,0
77.005,-4.1794e-05,0
77.005,-3.0549e-05,0
77.006,-2.9206e-05,0
77.006,-4.3305e-05,0
77.007,-4.0787e-05,0
77.007,-7.2175e-06,0
77.008,5.4551e-05,0
77.008,0.00012555,0
77.009,0.00017087,0
77.009,0.00017154,0
77.01,0.00013462,0
77.01,8.3925e-05,0
77.011,3.743e-05,0
77.011,1.0407e-05,0
77.012,1.4267e-05,0
77.012,4.0452e-05,0
77.013,6.1265e-05,0
77.013,5.9922e-05,0
77.014,4.2634e-05,0
77.014,2.5513e-05,0
77.015,3.0045e-05,0
77.015,5.4887e-05,0
77.016,6.0258e-05,0
77.016,2.4338e-05,0
77.017,-2.9374e-05,0
77.017,-9.6345e-05,0
77.018,-0.00018917,0
77.019,-0.00027611,0
77.019,-0.00029625,0
77.02,-0.00022861,0
77.02,-0.00010961,0
77.021,-9.9031e-06,0
77.021,4.6159e-05,0
77.022,9.5674e-05,0
77.022,0.00014821,0
77.023,0.00018178,0
77.023,0.00018144,0
77.024,0.00015795,0
77.024,0.00013764,0
77.025,0.00013176,0
77.025,0.00014922,0
77.026,0.00018581,0
77.026,0.00020377,0
77.027,0.00020243,0
77.027,0.00021418,0
77.028,0.00023885,0
77.028,0.00025731,0
77.029,0.00025261,0
77.029,0.00022374,0
77.03,0.00016634,0
77.03,6.714e-05,0
77.031,-6.0258e-05,0
77.032,-0.00017624,0
77.032,-0.00025664,0
77.033,-0.00030448,0
77.033,-0.00033654,0
77.034,-0.00035735,0
77.034,-0.00033822,0
77.035,-0.00025043,0
77.035,-0.00011229,0
77.036,1.6785e-07,0
77.036,2.3331e-05,0
77.037,-1.2924e-05,0
77.037,-4.3977e-05,0
77.038,-5.4383e-05,0
77.038,-5.3544e-05,0
77.039,-3.9612e-05,0
77.039,-1.4939e-05,0
77.04,8.5603e-06,0
77.04,3.9277e-05,0
77.041,7.9225e-05,0
77.041,0.00011598,0
77.042,0.00013243,0
77.042,0.00012136,0
77.043,9.8527e-05,0
77.043,8.4428e-05,0
77.044,8.4428e-05,0
77.044,8.7114e-05,0
77.045,7.5029e-05,0
77.046,3.743e-05,0
77.046,-7.2175e-06,0
77.047,-2.8367e-05,0
77.047,-2.7527e-05,0
77.048,-2.3835e-05,0
77.048,-1.1582e-05,0
77.049,1.1917e-05,0
77.049,1.2253e-05,0
77.05,-1.9303e-05,0
77.05,-5.4215e-05,0
77.051,-3.827e-05,0
77.051,5.8244e-05,0
77.052,0.00017507,0
77.052,0.00027007,0
77.053,0.00033687,0
77.053,0.00035702,0
77.054,0.00033217,0
77.054,0.0002788,0
77.055,0.00022307,0
77.055,0.00017758,0
77.056,0.00010188,0
77.056,-1.6449e-05,0
77.057,-0.00011951,0
77.057,-0.00015492,0
77.058,-0.00014368,0
77.059,-0.00013831,0
77.059,-0.00014301,0
77.06,-0.00012639,0
77.06,-7.4357e-05,0
77.061,1.1749e-06,0
77.061,5.539e-05,0
77.062,5.8915e-05,0
77.062,3.8437e-05,0
77.063,2.5513e-05,0
77.063,3.9277e-05,0
77.064,7.2007e-05,0
77.064,6.1097e-05,0
77.065,-1.9974e-05,0
77.065,-0.00012421,0
77.066,-0.00021384,0
77.066,-0.00026923,0
77.067,-0.0002845,0
77.067,-0.00027544,0
77.068,-0.00025966,0
77.068,-0.000213,0
77.069,-0.00011296,0
77.069,1.7288e-05,0
77.07,0.00012337,0
77.07,0.00017356,0
77.071,0.00016869,0
77.072,0.00013327,0
77.072,0.00010121,0
77.073,8.4428e-05,0
77.073,6.4958e-05,0
77.074,2.9709e-05,0
77.074,-8.5603e-06,0
77.075,-3.4073e-05,0
77.075,-3.6927e-05,0
77.076,-1.9471e-05,0
77.076,7.8889e-06,0
77.077,3.9109e-05,0
77.077,7.2343e-05,0
77.078,9.6345e-05,0
77.078,9.5506e-05,0
77.079,8.0064e-05,0
77.079,7.9728e-05,0
77.08,0.00011431,0
77.08,0.00015811,0
77.081,0.00017372,0
77.081,0.00015946,0
77.082,0.00016063,0
77.082,0.00021283,0
77.083,0.00028551,0
77.083,0.00032613,0
77.084,0.00029525,0
77.084,0.0001848,0
77.085,3.4409e-05,0
77.086,-9.5842e-05,0
77.086,-0.00013747,0
77.087,-8.9967e-05,0
77.087,-5.4551e-05,0
77.088,-8.3925e-05,0
77.088,-0.00013613,0
77.089,-0.00017104,0
77.089,-0.00019353,0
77.09,-0.00020444,0
77.09,-0.0001937,0
77.091,-0.00016449,0
77.091,-0.00013445,0
77.092,-0.00011363,0
77.092,-9.7856e-05,0
77.093,-8.2918e-05,0
77.093,-7.0832e-05,0
77.094,-6.4622e-05,0
77.094,-5.8076e-05,0
77.095,-4.3809e-05,0
77.095,-2.031e-05,0
77.096,4.1962e-06,0
77.096,2.6352e-05,0
77.097,5.0858e-05,0
77.097,7.805e-05,0
77.098,0.00010021,0
77.099,0.00010726,0
77.099,9.987e-05,0
77.1,8.6275e-05,0
77.1,7.5868e-05,0
77.101,6.5965e-05,0
77.101,5.1362e-05,0
77.102,3.2059e-05,0
77.102,1.796e-05,0
77.103,1.8631e-05,0
77.103,4.448e-05,0
77.104,0.00010222,0
77.104,0.00016466,0
77.105,0.0001994,0
77.105,0.00022039,0
77.106,0.00025177,0
77.106,0.00027376,0
77.107,0.00026134,0
77.107,0.00022609,0
77.108,0.00019454,0
77.108,0.00016265,0
77.109,0.00012673,0
77.109,9.2485e-05,0
77.11,4.1627e-05,0
77.11,-3.0884e-05,0
77.111,-0.00010457,0
77.111,-0.0001613,0
77.112,-0.00018665,0
77.113,-0.00018296,0
77.113,-0.00017272,0
77.114,-0.00017624,0
77.114,-0.00017641,0
77.115,-0.00015006,0
77.115,-8.9128e-05,0
77.116,-1.4099e-05,0
77.116,4.1123e-05,0
77.117,5.9251e-05,0
77.117,4.8676e-05,0
77.118,2.7863e-05,0
77.118,-2.5177e-06,0
77.119,-3.9109e-05,0
77.119,-5.539e-05,0
77.12,-4.3977e-05,0
77.12,-2.8702e-05,0
77.121,-2.4338e-05,0
77.121,-2.652e-05,0
77.122,-2.7024e-05,0
77.122,-2.2492e-05,0
77.123,-1.1917e-05,0
77.123,-3.5248e-06,0
77.124,-4.1962e-06,0
77.124,-8.2246e-06,0
77.125,-1.4267e-05,0
77.126,-1.8967e-05,0
77.126,-8.7282e-06,0
77.127,1.8296e-05,0
77.127,4.213e-05,0
77.128,4.9683e-05,0
77.128,5.388e-05,0
77.129,6.5965e-05,0
77.129,8.1071e-05,0
77.13,8.4932e-05,0
77.13,5.7908e-05,0
77.131,-1.1749e-06,0
77.131,-5.8244e-05,0
77.132,-7.2007e-05,0
77.132,-4.3305e-05,0
77.133,-1.6953e-05,0
77.133,-1.3092e-05,0
77.134,3.8605e-06,0
77.134,6.479e-05,0
77.135,0.00015023,0
77.135,0.00021904,0
77.136,0.00025412,0
77.136,0.00026352,0
77.137,0.00025278,0
77.137,0.00023415,0
77.138,0.00022878,0
77.138,0.00023079,0
77.139,0.00021804,0
77.14,0.00020327,0
77.14,0.00020243,0
77.141,0.00020024,0
77.141,0.00017842,0
77.142,0.0001185,0
77.142,1.9135e-05,0
77.143,-6.865e-05,0
77.143,-0.00012152,0
77.144,-0.00016063,0
77.144,-0.00020024,0
77.145,-0.00023113,0
77.145,-0.00025261,0
77.146,-0.00025597,0
77.146,-0.000236,0
77.147,-0.00022156,0
77.147,-0.00022995,0
77.148,-0.00023331,0
77.148,-0.00021166,0
77.149,-0.00017876,0
77.149,-0.00014435,0
77.15,-0.00011296,0
77.15,-7.4357e-05,0
77.151,-9.0639e-06,0
77.151,8.7114e-05,0
77.152,0.0002036,0
77.153,0.00030666,0
77.153,0.00035903,0
77.154,0.00036709,0
77.154,0.00037447,0
77.155,0.00038857,0
77.155,0.00036977,0
77.156,0.00030431,0
77.156,0.00020897,0
77.157,0.00010524,0
77.157,2.0645e-05,0
77.158,-2.7359e-05,0
77.158,-3.743e-05,0
77.159,-4.4648e-05,0
77.159,-9.4667e-05,0
77.16,-0.00017356,0
77.16,-0.00023449,0
77.161,-0.00026722,0
77.161,-0.00027662,0
77.162,-0.00025882,0
77.162,-0.00021804,0
77.163,-0.00017171,0
77.163,-0.00014385,0
77.164,-0.00013696,0
77.164,-0.00011414,0
77.165,-5.4383e-05,0
77.165,2.3835e-05,0
77.166,8.5435e-05,0
77.167,0.00011061,0
77.167,0.00010054,0
77.168,6.7979e-05,0
77.168,3.508e-05,0
77.169,9.9031e-06,0
77.169,-1.6617e-05,0
77.17,-4.3473e-05,0
77.17,-5.3208e-05,0
77.171,-3.6423e-05,0
77.171,-4.5319e-06,0
77.172,2.4674e-05,0
77.172,4.3305e-05,0
77.173,5.7572e-05,0
77.173,7.3014e-05,0
77.174,8.4092e-05,0
77.174,8.5771e-05,0
77.175,8.3253e-05,0
77.175,8.426e-05,0
77.176,8.1743e-05,0
77.176,6.949e-05,0
77.177,5.4551e-05,0
77.177,4.5991e-05,0
77.178,4.9851e-05,0
77.178,6.0594e-05,0
77.179,6.4286e-05,0
77.18,6.1601e-05,0
77.18,6.9993e-05,0
77.181,8.6107e-05,0
77.181,8.7785e-05,0
77.182,7.0161e-05,0
77.182,4.6326e-05,0
77.183,2.8702e-05,0
77.183,2.6688e-05,0
77.184,4.6159e-05,0
77.184,7.0329e-05,0
77.185,6.865e-05,0
77.185,4.2298e-05,0
77.186,1.326e-05,0
77.186,-3.5248e-06,0
77.187,-6.5461e-06,0
77.187,-5.0355e-06,0
77.188,-6.2104e-06,0
77.188,-2.8534e-06,0
77.189,1.5106e-05,0
77.189,5.2537e-05,0
77.19,0.00010323,0
77.19,0.00015526,0
77.191,0.00018514,0
77.191,0.00017826,0
77.192,0.00014821,0
77.192,0.00012136,0
77.193,0.00010188,0
77.194,7.5364e-05,0
77.194,4.0116e-05,0
77.195,4.3641e-06,0
77.195,-4.0955e-05,0
77.196,-9.752e-05,0
77.196,-0.00015006,0
77.197,-0.00017507,0
77.197,-0.00017003,0
77.198,-0.00015442,0
77.198,-0.00014015,0
77.199,-9.5338e-05,0
77.199,-1.326e-05,0
77.2,6.6972e-05,0
77.2,0.00012136,0
77.201,0.00014905,0
77.201,0.00015996,0
77.202,0.00016298,0
77.202,0.00012941,0
77.203,4.2466e-05,0
77.203,-3.9109e-05,0
77.204,-6.6636e-05,0
77.204,-7.2343e-05,0
77.205,-9.5674e-05,0
77.205,-0.00010474,0
77.206,-6.5965e-05,0
77.207,2.6017e-05,0
77.207,0.00015291,0
77.208,0.00025983,0
77.208,0.00031405,0
77.209,0.00031337,0
77.209,0.00025228,0
77.21,0.00013948,0
77.21,5.0355e-06,0
77.211,-9.7185e-05,0
77.211,-0.0001368,0
77.212,-0.00013848,0
77.212,-0.00013814,0
77.213,-0.00013361,0
77.213,-0.00010507,0
77.214,-6.0929e-05,0
77.214,-2.7695e-05,0
77.215,-1.5274e-05,0
77.215,-1.5778e-05,0
77.216,-2.1988e-05,0
77.216,-3.2395e-05,0
77.217,-6.4118e-05,0
77.217,-0.0001331,0
77.218,-0.00021384,0
77.218,-0.00026319,0
77.219,-0.00026235,0
77.219,-0.00022509,0
77.22,-0.00017943,0
77.221,-0.00013378,0
77.221,-8.3085e-05,0
77.222,-2.7695e-05,0
77.222,2.9709e-05,0
77.223,8.5771e-05,0
77.223,0.00013344,0
77.224,0.000166,0
77.224,0.00017053,0
77.225,0.00014955,0
77.225,0.00012068,0
77.226,0.00010574,0
77.226,0.00010877,0
77.227,0.00011716,0
77.227,0.00012186,0
77.228,0.00012203,0
77.228,0.00012136,0
77.229,0.0001227,0
77.229,0.00012723,0
77.23,0.00013075,0
77.23,0.00012203,0
77.231,0.00010121,0
77.231,8.191e-05,0
77.232,6.7643e-05,0
77.232,6.2943e-05,0
77.233,7.6036e-05,0
77.234,0.00010658,0
77.234,0.00013545,0
77.235,0.00014217,0
77.235,0.00012068,0
77.236,8.4428e-05,0
77.236,5.3544e-05,0
77.237,3.8437e-05,0
77.237,3.3066e-05,0
77.238,1.6617e-05,0
77.238,-2.7024e-05,0
77.239,-8.896e-05,0
77.239,-0.00013277,0
77.24,-0.0001321,0
77.24,-9.9535e-05,0
77.241,-6.2272e-05,0
77.241,-3.4073e-05,0
77.242,-1.2253e-05,0
77.242,6.5461e-06,0
77.243,2.3499e-05,0
77.243,3.978e-05,0
77.244,5.4047e-05,0
77.244,5.5055e-05,0
77.245,4.6326e-05,0
77.245,4.6159e-05,0
77.246,7.7379e-05,0
77.246,0.00014888,0
77.247,0.00022324,0
77.248,0.00024623,0
77.248,0.00022005,0
77.249,0.00017977,0
77.249,0.00013713,0
77.25,9.836e-05,0
77.25,4.9348e-05,0
77.251,-1.561e-05,0
77.251,-8.6778e-05,0
77.252,-0.0001519,0
77.252,-0.00018077,0
77.253,-0.0001603,0
77.253,-0.00012992,0
77.254,-0.00015123,0
77.254,-0.00021199,0
77.255,-0.00024842,0
77.255,-0.00024724,0
77.256,-0.00022341,0
77.256,-0.00018128,0
77.257,-0.00013176,0
77.257,-9.8695e-05,0
77.258,-8.7449e-05,0
77.258,-7.6371e-05,0
77.259,-4.6662e-05,0
77.259,-4.8676e-06,0
77.26,3.6088e-05,0
77.26,5.7572e-05,0
77.261,6.6972e-05,0
77.262,7.2343e-05,0
77.262,4.918e-05,0
77.263,-3.6927e-06,0
77.263,-3.5416e-05,0
77.264,-2.7527e-05,0
77.264,-6.8818e-06,0
77.265,1.6617e-05,0
77.265,5.1362e-05,0
77.266,9.987e-05,0
77.266,0.0001556,0
77.267,0.00021468,0
77.267,0.00027041,0
77.268,0.00030297,0
77.268,0.00027645,0
77.269,0.00019051,0
77.269,9.1142e-05,0
77.27,1.5778e-05,0
77.27,-1.9303e-05,0
77.271,-6.3783e-06,0
77.271,2.7695e-05,0
77.272,5.388e-05,0
77.272,6.7643e-05,0
77.273,6.9657e-05,0
77.273,6.0594e-05,0
77.274,4.918e-05,0
77.275,4.213e-05,0
77.275,2.8199e-05,0
77.276,-4.5319e-06,0
77.276,-4.3137e-05,0
77.277,-6.5293e-05,0
77.277,-6.8482e-05,0
77.278,-6.3111e-05,0
77.278,-5.4551e-05,0
77.279,-4.7669e-05,0
77.279,-4.5823e-05,0
77.28,-3.9277e-05,0
77.28,-2.2324e-05,0
77.281,2.3499e-06,0
77.281,3.6255e-05,0
77.282,8.04e-05,0
77.282,0.0001232,0
77.283,0.00014922,0
77.283,0.00015392,0
77.284,0.0001415,0
77.284,0.00012303,0
77.285,0.00010054,0
77.285,7.7379e-05,0
77.286,5.069e-05,0
77.286,1.3596e-05,0
77.287,-2.3331e-05,0
77.287,-4.2802e-05,0
77.288,-5.8915e-05,0
77.289,-8.426e-05,0
77.289,-0.00011095,0
77.29,-0.00010961,0
77.29,-6.7979e-05,0
77.291,-1.5778e-05,0
77.291,1.0239e-05,0
77.292,2.8534e-06,0
77.292,-2.4674e-05,0
77.293,-5.7572e-05,0
77.293,-7.6371e-05,0
77.294,-5.9586e-05,0
77.294,-1.9806e-05,0
77.295,1.4435e-05,0
77.295,5.0523e-05,0
77.296,9.1814e-05,0
77.296,0.00011263,0
77.297,8.8792e-05,0
77.297,3.3738e-05,0
77.298,-1.561e-05,0
77.298,-3.6255e-05,0
77.299,-2.9709e-05,0
77.299,-1.3931e-05,0
77.3,-1.0239e-05,0
77.3,-3.5752e-05,0
77.301,-8.5267e-05,0
77.302,-0.00012891,0
77.302,-0.00013915,0
77.303,-0.00012253,0
77.303,-0.00010541,0
77.304,-9.4163e-05,0
77.304,-6.9993e-05,0
77.305,-2.031e-05,0
77.305,3.9948e-05,0
77.306,8.2078e-05,0
77.306,9.8863e-05,0
77.307,9.752e-05,0
77.307,8.896e-05,0
77.308,8.3757e-05,0
77.308,9.0806e-05,0
77.309,0.00010121,0
77.309,9.7017e-05,0
77.31,8.275e-05,0
77.31,8.3421e-05,0
77.311,0.00010457,0
77.311,0.00012538,0
77.312,0.00013478,0
77.312,0.0001321,0
77.313,0.00011682,0
77.313,8.5771e-05,0
77.314,4.9012e-05,0
77.314,3.3402e-05,0
77.315,4.8676e-05,0
77.316,8.51e-05,0
77.316,0.00011397,0
77.317,0.00011901,0
77.317,0.00010809,0
77.318,9.6513e-05,0
77.318,7.8721e-05,0
77.319,5.7572e-05,0
77.319,4.3977e-05,0
77.32,3.3402e-05,0
77.32,1.9471e-05,0
77.321,-1.9303e-05,0
77.321,-8.2246e-05,0
77.322,-0.00012169,0
77.322,-0.00010289,0
77.323,-4.8005e-05,0
77.323,-1.6785e-07,0
77.324,1.796e-05,0
77.324,6.5461e-06,0
77.325,-2.3499e-05,0
77.325,-4.8508e-05,0
77.326,-6.3279e-05,0
77.326,-7.0665e-05,0
77.327,-5.9419e-05,0
77.327,-3.5752e-05,0
77.328,-3.0716e-05,0
77.329,-4.0787e-05,0
77.329,-2.3163e-05,0
77.33,3.6255e-05,0
77.33,8.2078e-05,0
77.331,7.5532e-05,0
77.331,3.7766e-05,0
77.332,-3.357e-07,0
77.332,-1.6953e-05,0
77.333,-3.0213e-06,0
77.333,3.0716e-05,0
77.334,4.9516e-05,0
77.334,2.2828e-05,0
77.335,-5.9083e-05,0
77.335,-0.0001603,0
77.336,-0.00021048,0
77.336,-0.00018296,0
77.337,-0.00011917,0
77.337,-6.4622e-05,0
77.338,-3.4577e-05,0
77.338,-1.1414e-05,0
77.339,4.7501e-05,0
77.339,0.00015761,0
77.34,0.00027443,0
77.34,0.00034694,0
77.341,0.00035601,0
77.341,0.00030867,0
77.342,0.00023516,0
77.343,0.00016432,0
77.343,0.00011363,0
77.344,8.3757e-05,0
77.344,6.3279e-05,0
77.345,4.0452e-05,0
77.345,1.4267e-05,0
77.346,-7.5532e-06,0
77.346,-1.6281e-05,0
77.347,-1.6281e-05,0
77.347,-1.8296e-05,0
77.348,-3.0381e-05,0
77.348,-4.5823e-05,0
77.349,-5.2873e-05,0
77.349,-5.5558e-05,0
77.35,-7.805e-05,0
77.35,-0.00011901,0
77.351,-0.00013948,0
77.351,-0.00011128,0
77.352,-5.0523e-05,0
77.352,6.5461e-06,0
77.353,4.6494e-05,0
77.353,7.6036e-05,0
77.354,0.00010843,0
77.354,0.0001514,0
77.355,0.00019554,0
77.356,0.00021367,0
77.356,0.00017876,0
77.357,9.2149e-05,0
77.357,3.1891e-06,0
77.358,-3.978e-05,0
77.358,-1.1582e-05,0
77.359,7.7714e-05,0
77.359,0.000166,0
77.36,0.00019487,0
77.36,0.00017104,0
77.361,0.00012975,0
77.361,8.3925e-05,0
77.362,4.2802e-05,0
77.362,9.9031e-06,0
77.363,-2.8031e-05,0
77.363,-8.51e-05,0
77.364,-0.00014385,0
77.364,-0.00017758,0
77.365,-0.00017708,0
77.365,-0.00016147,0
77.366,-0.00013999,0
77.366,-9.8192e-05,0
77.367,-4.3137e-05,0
77.367,-1.3596e-05,0
77.368,-3.508e-05,0
77.368,-7.1504e-05,0
77.369,-9.987e-05,0
77.37,-0.00013797,0
77.37,-0.00017523,0
77.371,-0.00018195,0
77.371,-0.00015106,0
77.372,-9.4835e-05,0
77.372,-2.9038e-05,0
77.373,2.5177e-05,0
77.373,4.7333e-05,0
77.374,4.1123e-05,0
77.374,3.2731e-05,0
77.375,4.1123e-05,0
77.375,5.8915e-05,0
77.376,7.0329e-05,0
77.376,6.1601e-05,0
77.377,3.3402e-05,0
77.377,1.2757e-05,0
77.378,1.7624e-05,0
77.378,3.2059e-05,0
77.379,3.6423e-05,0
77.379,2.8367e-05,0
77.38,2.7024e-05,0
77.38,4.4648e-05,0
77.381,7.5029e-05,0
77.381,9.987e-05,0
77.382,0.0001086,0
77.383,0.00010625,0
77.383,0.00010054,0
77.384,9.6513e-05,0
77.384,9.5003e-05,0
77.385,0.00010256,0
77.385,0.00011867,0
77.386,0.00012857,0
77.386,0.00012052,0
77.387,0.00010726,0
77.387,0.00010423,0
77.388,0.00011263,0
77.388,0.00011917,0
77.389,0.00011565,0
77.389,9.987e-05,0
77.39,7.5532e-05,0
77.39,4.5487e-05,0
77.391,1.8631e-05,0
77.391,2.0142e-06,0
77.392,-9.2317e-06,0
77.392,-3.4241e-05,0
77.393,-7.7043e-05,0
77.393,-0.00011582,0
77.394,-0.00013075,0
77.394,-0.00012253,0
77.395,-0.00011296,0
77.395,-0.0001133,0
77.396,-0.0001086,0
77.397,-9.1478e-05,0
77.397,-7.3014e-05,0
77.398,-5.2873e-05,0
77.398,-1.7456e-05,0
77.399,3.4409e-05,0
77.399,9.366e-05,0
77.4,0.00017121,0
77.4,0.00027813,0
77.401,0.00037917,0
77.401,0.00042802,0
77.402,0.00041526,0
77.402,0.00036776,0
77.403,0.00029458,0
77.403,0.00018917,0
77.404,6.7308e-05,0
77.404,-4.448e-05,0
77.405,-0.00013512,0
77.405,-0.00021334,0
77.406,-0.00028081,0
77.406,-0.0003122,0
77.407,-0.00029592,0
77.407,-0.00025043,0
77.408,-0.00019689,0
77.408,-0.00014821,0
77.409,-0.00011414,0
77.41,-7.8721e-05,0
77.41,-2.2995e-05,0
77.411,4.0452e-05,0
77.411,8.1071e-05,0
77.412,8.6778e-05,0
77.412,7.8218e-05,0
77.413,8.1071e-05,0
77.413,9.2149e-05,0
77.414,0.00010088,0
77.414,0.00010222,0
77.415,9.7017e-05,0
77.415,8.7282e-05,0
77.416,6.8147e-05,0
77.416,4.3473e-05,0
77.417,1.6617e-05,0
77.417,-6.5461e-06,0
77.418,-1.7288e-05,0
77.418,-1.7624e-05,0
77.419,-1.6281e-05,0
77.419,-1.3764e-05,0
77.42,-1.091e-05,0
77.42,-1.3931e-05,0
77.421,-2.266e-05,0
77.421,-2.8367e-05,0
77.422,-2.501e-05,0
77.422,-1.6281e-05,0
77.423,-8.896e-06,0
77.424,1.0407e-05,0
77.424,5.6901e-05,0
77.425,0.00010423,0
77.425,0.00010524,0
77.426,6.0929e-05,0
77.426,1.1917e-05,0
77.427,-1.0071e-05,0
77.427,-5.0355e-07,0
77.428,2.266e-05,0
77.428,3.6088e-05,0
77.429,3.3738e-05,0
77.429,2.5345e-05,0
77.43,1.9806e-05,0
77.43,1.6617e-05,0
77.431,1.326e-05,0
77.431,9.9031e-06,0
77.432,8.7282e-06,0
77.432,8.0568e-06,0
77.433,7.3854e-06,0
77.433,7.5532e-06,0
77.434,1.326e-05,0
77.434,2.8367e-05,0
77.435,4.7333e-05,0
77.435,5.623e-05,0
77.436,5.1194e-05,0
77.437,4.8173e-05,0
77.437,5.774e-05,0
77.438,6.0929e-05,0
77.438,4.5151e-05,0
77.439,2.7024e-05,0
77.439,1.8631e-05,0
77.44,2.2995e-05,0
77.44,3.1388e-05,0
77.441,3.122e-05,0
77.441,1.7288e-05,0
77.442,3.1891e-06,0
77.442,-2.5177e-06,0
77.443,3.5248e-06,0
77.443,1.7624e-05,0
77.444,3.2898e-05,0
77.444,4.8173e-05,0
77.445,6.0594e-05,0
77.445,6.5126e-05,0
77.446,6.0594e-05,0
77.446,4.7837e-05,0
77.447,3.6759e-05,0
77.447,4.1962e-05,0
77.448,6.1601e-05,0
77.448,8.8457e-05,0
77.449,0.00012119,0
77.45,0.00015224,0
77.45,0.00017154,0
77.451,0.00016835,0
77.451,0.0001378,0
77.452,9.0471e-05,0
77.452,4.062e-05,0
77.453,-4.1962e-06,0
77.453,-5.3376e-05,0
77.454,-0.00011984,0
77.454,-0.00018614,0
77.455,-0.00019672,0
77.455,-0.00011162,0
77.456,-1.0071e-06,0
77.456,4.2298e-05,0
77.457,1.9303e-05,0
77.457,-2.6688e-05,0
77.458,-6.7979e-05,0
77.458,-9.6178e-05,0
77.459,-0.00011397,0
77.459,-0.00012505,0
77.46,-0.0001284,0
77.46,-0.00013848,0
77.461,-0.00017372,0
77.461,-0.00021485,0
77.462,-0.00020427,0
77.462,-0.00013092,0
77.463,-4.5823e-05,0
77.464,1.2924e-05,0
77.464,3.8773e-05,0
77.465,4.6662e-05,0
77.465,5.7237e-05,0
77.466,8.1071e-05,0
77.466,0.00010726,0
77.467,0.0001133,0
77.467,8.6442e-05,0
77.468,3.9277e-05,0
77.468,-4.8676e-06,0
77.469,-2.8534e-05,0
77.469,-3.4745e-05,0
77.47,-2.2324e-05,0
77.47,2.6017e-05,0
77.471,0.00011447,0
77.471,0.00021334,0
77.472,0.00028165,0
77.472,0.00030196,0
77.473,0.00028518,0
77.473,0.00024489,0
77.474,0.00020092,0
77.474,0.00015962,0
77.475,0.00010759,0
77.475,4.3305e-05,0
77.476,-3.2395e-05,0
77.477,-0.00010457,0
77.477,-0.00014603,0
77.478,-0.00015392,0
77.478,-0.00014418,0
77.479,-0.0001232,0
77.479,-0.00010256,0
77.48,-8.7449e-05,0
77.48,-6.63e-05,0
77.481,-2.5849e-05,0
77.481,2.8367e-05,0
77.482,7.9057e-05,0
77.482,0.00012068,0
77.483,0.00014318,0
77.483,0.00013747,0
77.484,0.00011347,0
77.484,8.2582e-05,0
77.485,5.153e-05,0
77.485,2.6184e-05,0
77.486,1.7121e-05,0
77.486,1.8463e-05,0
77.487,1.0407e-05,0
77.487,-6.0426e-06,0
77.488,-2.1149e-05,0
77.488,-3.3906e-05,0
77.489,-4.4312e-05,0
77.489,-4.1459e-05,0
77.49,-2.2828e-05,0
77.491,-6.714e-06,0
77.491,-1.0071e-05,0
77.492,-1.8463e-05,0
77.492,-1.8967e-05,0
77.493,-1.2924e-05,0
77.493,-1.8463e-06,0
77.494,2.3499e-05,0
77.494,7.0161e-05,0
77.495,0.00011649,0
77.495,0.00013411,0
77.496,0.00012605,0
77.496,0.00010927,0
77.497,9.1981e-05,0
77.497,7.8386e-05,0
77.498,6.4118e-05,0
77.498,4.2802e-05,0
77.499,1.1582e-05,0
77.499,-3.3402e-05,0
77.5,-9.4499e-05,0
77.5,-0.00014653,0
77.501,-0.00015526,0
77.501,-0.00012253,0
77.502,-7.9393e-05,0
77.502,-4.6998e-05,0
77.503,-2.9541e-05,0
77.504,-1.9974e-05,0
77.504,-1.8463e-06,0
77.505,3.9445e-05,0
77.505,8.3085e-05,0
77.506,0.00010256,0
77.506,9.6178e-05,0
77.507,7.7882e-05,0
77.507,5.5222e-05,0
77.508,3.7263e-05,0
77.508,4.6159e-05,0
77.509,8.04e-05,0
77.509,0.00010994,0
77.51,0.00011431,0
77.51,0.00010088,0
77.511,8.3085e-05,0
77.511,7.4525e-05,0
77.512,7.6036e-05,0
77.512,7.9393e-05,0
77.513,9.6178e-05,0
77.513,0.00012136,0
77.514,0.00012169,0
77.514,8.4764e-05,0
77.515,3.508e-05,0
77.515,3.1891e-06,0
77.516,-9.2317e-06,0
77.516,-1.5946e-05,0
77.517,-2.9038e-05,0
77.518,-5.7908e-05,0
77.518,-8.7617e-05,0
77.519,-8.8792e-05,0
77.519,-6.3783e-05,0
77.52,-3.1891e-05,0
77.52,-2.0142e-06,0
77.521,2.5345e-05,0
77.521,4.5487e-05,0
77.522,5.539e-05,0
77.522,6.1936e-05,0
77.523,6.7643e-05,0
77.523,6.7308e-05,0
77.524,4.9683e-05,0
77.524,2.266e-05,0
77.525,1.7288e-05,0
77.525,5.5558e-05,0
77.526,0.00010323,0
77.526,0.00011397,0
77.527,9.4331e-05,0
77.527,7.9393e-05,0
77.528,9.1142e-05,0
77.528,0.00010893,0
77.529,0.00010188,0
77.529,6.1265e-05,0
77.53,-5.0355e-06,0
77.531,-7.2343e-05,0
77.531,-0.00012522,0
77.532,-0.00015459,0
77.532,-0.000165,0
77.533,-0.00018044,0
77.533,-0.00021199,0
77.534,-0.00023465,0
77.534,-0.00021888,0
77.535,-0.00017523,0
77.535,-0.00013075,0
77.536,-8.8624e-05,0
77.536,-4.7501e-05,0
77.537,-1.7456e-05,0
77.537,9.5674e-06,0
77.538,4.4144e-05,0
77.538,8.2078e-05,0
77.539,0.00011028,0
77.539,0.00012337,0
77.54,0.00012068,0
77.54,0.00010726,0
77.541,9.5171e-05,0
77.541,8.8457e-05,0
77.542,7.805e-05,0
77.542,6.3279e-05,0
77.543,6.3615e-05,0
77.543,8.1071e-05,0
77.544,8.9128e-05,0
77.545,7.9057e-05,0
77.545,6.6636e-05,0
77.546,6.1936e-05,0
77.546,6.5965e-05,0
77.547,7.2343e-05,0
77.547,6.865e-05,0
77.548,3.5416e-05,0
77.548,-3.0716e-05,0
77.549,-9.2149e-05,0
77.549,-0.0001039,0
77.55,-7.2343e-05,0
77.55,-3.2731e-05,0
77.551,-1.6785e-06,0
77.551,1.7121e-05,0
77.552,2.9206e-05,0
77.552,4.448e-05,0
77.553,5.774e-05,0
77.553,6.2943e-05,0
77.554,6.7475e-05,0
77.554,8.4764e-05,0
77.555,0.00011028,0
77.555,0.00012706,0
77.556,0.00013109,0
77.556,0.00012723,0
77.557,0.00012421,0
77.558,0.00011867,0
77.558,0.00010457,0
77.559,7.7379e-05,0
77.559,3.2059e-05,0
77.56,-1.9974e-05,0
77.56,-6.6972e-05,0
77.561,-0.00010692,0
77.561,-0.00012975,0
77.562,-0.00012924,0
77.562,-0.00011179,0
77.563,-8.6778e-05,0
77.563,-6.1433e-05,0
77.564,-4.1962e-05,0
77.564,-2.7695e-05,0
77.565,-1.7624e-05,0
77.565,-4.6998e-06,0
77.566,1.7121e-05,0
77.566,4.4144e-05,0
77.567,6.9322e-05,0
77.567,9.3828e-05,0
77.568,0.00011666,0
77.568,0.00012807,0
77.569,0.00012555,0
77.569,0.00013109,0
77.57,0.00015694,0
77.57,0.00017691,0
77.571,0.00017708,0
77.572,0.00015845,0
77.572,0.00011666,0
77.573,6.0258e-05,0
77.573,3.1891e-06,0
77.574,-5.2201e-05,0
77.574,-9.752e-05,0
77.575,-0.00012119,0
77.575,-0.00013646,0
77.576,-0.0001613,0
77.576,-0.00017356,0
77.577,-0.00013881,0
77.577,-6.7643e-05,0
77.578,5.539e-06,0
77.578,6.4286e-05,0
77.579,0.00010776,0
77.579,0.00012538,0
77.58,0.00010558,0
77.58,6.3279e-05,0
77.581,2.4002e-05,0
77.581,-5.8747e-06,0
77.582,-3.7095e-05,0
77.582,-6.865e-05,0
77.583,-7.6036e-05,0
77.583,-6.6972e-05,0
77.584,-5.4551e-05,0
77.585,-3.5752e-05,0
77.585,-1.091e-05,0
77.586,7.0497e-06,0
77.586,1.4603e-05,0
77.587,2.2492e-05,0
77.587,3.8437e-05,0
77.588,4.9851e-05,0
77.588,3.6255e-05,0
77.589,-8.3925e-07,0
77.589,-3.3738e-05,0
77.59,-4.7837e-05,0
77.59,-4.5991e-05,0
77.591,-3.0381e-05,0
77.591,-1.6785e-07,0
77.592,3.4241e-05,0
77.592,5.4719e-05,0
77.593,5.2201e-05,0
77.593,3.1052e-05,0
77.594,-3.5248e-06,0
77.594,-4.1794e-05,0
77.595,-5.9586e-05,0
77.595,-5.1194e-05,0
77.596,-3.1388e-05,0
77.596,-8.7282e-06,0
77.597,1.7624e-05,0
77.597,3.9445e-05,0
77.598,4.4648e-05,0
77.599,3.2731e-05,0
77.599,9.9031e-06,0
77.6,-1.5274e-05,0
77.6,-3.1388e-05,0
77.601,-3.5248e-05,0
77.601,-2.5681e-05,0
77.602,-2.5177e-06,0
77.602,2.6688e-05,0
77.603,6.8315e-05,0
77.603,0.00012572,0
77.604,0.00017691,0
77.604,0.00020125,0
77.605,0.00019991,0
77.605,0.00018094,0
77.606,0.00014939,0
77.606,0.00011615,0
77.607,9.1981e-05,0
77.607,7.7546e-05,0
77.608,6.9657e-05,0
77.608,6.8986e-05,0
77.609,6.8986e-05,0
77.609,6.5629e-05,0
77.61,5.7237e-05,0
77.61,4.3137e-05,0
77.611,2.7359e-05,0
77.612,2.5849e-05,0
77.612,6.1936e-05,0
77.613,0.00012068,0
77.613,0.00015123,0
77.614,0.00015023,0
77.614,0.00014788,0
77.615,0.00013764,0
77.615,0.00010188,0
77.616,5.4215e-05,0
77.616,7.5532e-06,0
77.617,-3.8437e-05,0
77.617,-9.3828e-05,0
77.618,-0.00016231,0
77.618,-0.00021384,0
77.619,-0.00022425,0
77.619,-0.00021434,0
77.62,-0.00020192,0
77.62,-0.00017591,0
77.621,-0.00012908,0
77.621,-6.9154e-05,0
77.622,-9.5674e-06,0
77.622,4.3305e-05,0
77.623,7.57e-05,0
77.623,8.7617e-05,0
77.624,9.2821e-05,0
77.624,9.6513e-05,0
77.625,9.1814e-05,0
77.626,7.2343e-05,0
77.626,5.6565e-05,0
77.627,6.3783e-05,0
77.627,8.9128e-05,0
77.628,0.00011632,0
77.628,0.00012706,0
77.629,0.00011464,0
77.629,7.57e-05,0
77.63,7.0497e-06,0
77.63,-6.3279e-05,0
77.631,-0.00010591,0
77.631,-0.00011968,0
77.632,-0.00012639,0
77.632,-0.00014485,0
77.633,-0.0001519,0
77.633,-0.00011044,0
77.634,-3.1052e-05,0
77.634,3.3402e-05,0
77.635,5.304e-05,0
77.635,3.4241e-05,0
77.636,-7.2175e-06,0
77.636,-4.9851e-05,0
77.637,-7.2679e-05,0
77.637,-6.5629e-05,0
77.638,-2.7695e-05,0
77.638,2.4338e-05,0
77.639,6.4286e-05,0
77.64,7.8721e-05,0
77.64,7.9393e-05,0
77.641,7.8553e-05,0
77.641,8.2078e-05,0
77.642,8.9464e-05,0
77.642,9.2485e-05,0
77.643,8.2246e-05,0
77.643,6.4286e-05,0
77.644,4.7501e-05,0
77.644,3.7263e-05,0
77.645,4.0452e-05,0
77.645,5.9419e-05,0
77.646,8.0064e-05,0
77.646,8.51e-05,0
77.647,6.63e-05,0
77.647,3.122e-05,0
77.648,-1.6785e-07,0
77.648,-1.2589e-05,0
77.649,-1.1582e-05,0
77.649,-1.3764e-05,0
77.65,-2.266e-05,0
77.65,-3.0549e-05,0
77.651,-3.6255e-05,0
77.651,-3.4241e-05,0
77.652,-1.1917e-05,0
77.653,2.9374e-05,0
77.653,7.1336e-05,0
77.654,8.6107e-05,0
77.654,7.6707e-05,0
77.655,8.3085e-05,0
77.655,0.00011699,0
77.656,0.00014838,0
77.656,0.00015459,0
77.657,0.0001425,0
77.657,0.00012102,0
77.658,8.9464e-05,0
77.658,5.4215e-05,0
77.659,3.3402e-05,0
77.659,3.6088e-05,0
77.66,5.8915e-05,0
77.66,8.9128e-05,0
77.661,0.00010037,0
77.661,7.9561e-05,0
77.662,4.2298e-05,0
77.662,-2.182e-06,0
77.663,-5.6062e-05,0
77.663,-0.00011179,0
77.664,-0.00015207,0
77.664,-0.00016197,0
77.665,-0.00015425,0
77.665,-0.00013663,0
77.666,-0.00010121,0
77.667,-4.5151e-05,0
77.667,8.3925e-06,0
77.668,3.4409e-05,0
77.668,3.743e-05,0
77.669,3.3402e-05,0
77.669,3.9948e-05,0
77.67,5.9922e-05,0
77.67,9.6178e-05,0
77.671,0.00014418,0
77.671,0.00017473,0
77.672,0.00016768,0
77.672,0.00013545,0
77.673,9.0135e-05,0
77.673,4.3809e-05,0
77.674,1.0575e-05,0
77.674,-4.5319e-06,0
77.675,-6.714e-06,0
77.675,-1.9638e-05,0
77.676,-5.7237e-05,0
77.676,-0.00011011,0
77.677,-0.0001566,0
77.677,-0.00016584,0
77.678,-0.00013092,0
77.678,-8.2078e-05,0
77.679,-4.213e-05,0
77.68,-1.3931e-05,0
77.68,7.5532e-06,0
77.681,2.0981e-05,0
77.681,2.9541e-05,0
77.682,2.9374e-05,0
77.682,7.8889e-06,0
77.683,-3.3906e-05,0
77.683,-7.7379e-05,0
77.684,-9.8192e-05,0
77.684,-8.0735e-05,0
77.685,-3.6088e-05,0
77.685,0,0
77.686,5.8747e-06,0
77.686,-1.1078e-05,0
77.687,-2.2828e-05,0
77.687,-5.7069e-06,0
77.688,3.2731e-05,0
77.688,7.1672e-05,0
77.689,9.5842e-05,0
77.689,0.00011498,0
77.69,0.0001415,0
77.69,0.00016751,0
77.691,0.00017792,0
77.691,0.00017339,0
77.692,0.00015962,0
77.692,0.00013613,0
77.693,9.5171e-05,0
77.694,4.6159e-05,0
77.694,1.0575e-05,0
77.695,0,0
77.695,1.0407e-05,0
77.696,2.8367e-05,0
77.696,3.7934e-05,0
77.697,3.3234e-05,0
77.697,2.2995e-05,0
77.698,1.9806e-05,0
77.698,2.3835e-05,0
77.699,2.7024e-05,0
77.699,2.0478e-05,0
77.7,3.357e-07,0
77.7,-2.9374e-05,0
77.701,-4.8005e-05,0
77.701,-3.508e-05,0
77.702,1.0407e-05,0
77.702,6.3615e-05,0
77.703,9.7856e-05,0
77.703,0.0001086,0
77.704,0.00011229,0
77.704,0.0001044,0
77.705,7.9728e-05,0
77.705,5.069e-05,0
77.706,2.6017e-05,0
77.707,-9.0639e-06,0
77.707,-5.2873e-05,0
77.708,-7.6371e-05,0
77.708,-6.6468e-05,0
77.709,-3.6591e-05,0
77.709,-4.1962e-06,0
77.71,4.1123e-05,0
77.71,0.00010994,0
77.711,0.00017171,0
77.711,0.00018849,0
77.712,0.00015694,0
77.712,0.00010893,0
77.713,7.3518e-05,0
77.713,5.0355e-05,0
77.714,1.796e-05,0
77.714,-3.4073e-05,0
77.715,-0.00010692,0
77.715,-0.000189,0
77.716,-0.00024321,0
77.716,-0.00024842,0
77.717,-0.00022928,0
77.717,-0.00021317,0
77.718,-0.000189,0
77.718,-0.00013797,0
77.719,-6.7308e-05,0
77.719,3.0213e-06,0
77.72,6.6972e-05,0
77.721,0.00013344,0
77.721,0.00019689,0
77.722,0.00022811,0
77.722,0.00022509,0
77.723,0.00019857,0
77.723,0.00015006,0
77.724,8.1575e-05,0
77.724,1.6281e-05,0
77.725,-2.7024e-05,0
77.725,-5.0858e-05,0
77.726,-6.7308e-05,0
77.726,-9.6178e-05,0
77.727,-0.00014099,0
77.727,-0.00017037,0
77.728,-0.00014905,0
77.728,-8.51e-05,0
77.729,-2.6184e-05,0
77.729,4.5319e-06,0
77.73,1.8631e-05,0
77.73,3.122e-05,0
77.731,4.5319e-05,0
77.731,5.5558e-05,0
77.732,5.7069e-05,0
77.732,4.5487e-05,0
77.733,3.7934e-05,0
77.734,4.0955e-05,0
77.734,3.508e-05,0
77.735,2.3499e-06,0
77.735,-3.3738e-05,0
77.736,-3.9277e-05,0
77.736,1.3428e-06,0
77.737,7.1e-05,0
77.737,0.00012807,0
77.738,0.00014401,0
77.738,0.00011733,0
77.739,7.1e-05,0
77.739,4.1459e-05,0
77.74,5.153e-05,0
77.74,7.9393e-05,0
77.741,9.3156e-05,0
77.741,8.5771e-05,0
77.742,6.9657e-05,0
77.742,5.5726e-05,0
77.743,4.8508e-05,0
77.743,4.5823e-05,0
77.744,4.2466e-05,0
77.744,3.6423e-05,0
77.745,2.501e-05,0
77.745,8.2246e-06,0
77.746,-3.357e-06,0
77.746,-5.539e-06,0
77.747,-4.3641e-06,0
77.748,8.3925e-07,0
77.748,1.8296e-05,0
77.749,4.3809e-05,0
77.749,7.2679e-05,0
77.75,0.00010188,0
77.75,0.00012924,0
77.751,0.00015761,0
77.751,0.00018816,0
77.752,0.00021518,0
77.752,0.00022173,0
77.753,0.00019118,0
77.753,0.0001368,0
77.754,8.8792e-05,0
77.754,6.1601e-05,0
77.755,3.6759e-05,0
77.755,-1.0742e-05,0
77.756,-7.1672e-05,0
77.756,-0.00011968,0
77.757,-0.00015006,0
77.757,-0.00015862,0
77.758,-0.00014653,0
77.758,-0.00011699,0
77.759,-7.9896e-05,0
77.759,-5.8244e-05,0
77.76,-5.3544e-05,0
77.761,-4.8676e-05,0
77.761,-3.978e-05,0
77.762,-2.9709e-05,0
77.762,-1.7288e-05,0
77.763,6.2104e-06,0
77.763,4.2298e-05,0
77.764,6.6468e-05,0
77.764,6.9993e-05,0
77.765,7.2679e-05,0
77.765,7.8553e-05,0
77.766,8.3421e-05,0
77.766,8.2918e-05,0
77.767,8.6946e-05,0
77.767,8.7785e-05,0
77.768,5.4887e-05,0
77.768,-2.7527e-05,0
77.769,-0.0001091,0
77.769,-0.00013831,0
77.77,-0.00012673,0
77.77,-9.6849e-05,0
77.771,-7.1e-05,0
77.771,-7.335e-05,0
77.772,-9.9535e-05,0
77.772,-0.00010994,0
77.773,-7.3854e-05,0
77.773,-9.7353e-06,0
77.774,3.0381e-05,0
77.775,2.6856e-05,0
77.775,6.8818e-06,0
77.776,-5.0355e-06,0
77.776,-3.5248e-06,0
77.777,6.714e-06,0
77.777,9.2317e-06,0
77.778,-1.7121e-05,0
77.778,-6.1936e-05,0
77.779,-8.8457e-05,0
77.779,-7.6204e-05,0
77.78,-3.5752e-05,0
77.78,1.0239e-05,0
77.781,5.1698e-05,0
77.781,8.7785e-05,0
77.782,0.00011749,0
77.782,0.00014603,0
77.783,0.00017977,0
77.783,0.00021334,0
77.784,0.00022039,0
77.784,0.00019118,0
77.785,0.00014385,0
77.785,0.00010826,0
77.786,9.1646e-05,0
77.786,8.191e-05,0
77.787,6.479e-05,0
77.788,2.6688e-05,0
77.788,-3.2395e-05,0
77.789,-8.3925e-05,0
77.789,-8.7785e-05,0
77.79,-4.9516e-05,0
77.79,-6.8818e-06,0
77.791,1.9135e-05,0
77.791,3.1388e-05,0
77.792,3.743e-05,0
77.792,4.1794e-05,0
77.793,4.7333e-05,0
77.793,4.683e-05,0
77.794,3.2059e-05,0
77.794,1.4099e-05,0
77.795,2.0142e-06,0
77.795,-7.2175e-06,0
77.796,-1.5946e-05,0
77.796,-2.0645e-05,0
77.797,-1.0239e-05,0
77.797,2.266e-05,0
77.798,6.6133e-05,0
77.798,0.0001086,0
77.799,0.00014015,0
77.799,0.00014754,0
77.8,0.00012874,0
77.8,0.00010893,0
77.801,9.4163e-05,0
77.802,7.9728e-05,0
77.802,6.1097e-05,0
77.803,3.3066e-05,0
77.803,2.6856e-06,0
77.804,-1.6281e-05,0
77.804,-3.5752e-05,0
77.805,-6.5965e-05,0
77.805,-9.4499e-05,0
77.806,-0.00011263,0
77.806,-0.00011649,0
77.807,-0.00010272,0
77.807,-7.3518e-05,0
77.808,-4.5823e-05,0
77.808,-3.357e-05,0
77.809,-3.2395e-05,0
77.809,-2.9709e-05,0
77.81,-1.5778e-05,0
77.81,6.8818e-06,0
77.811,3.1556e-05,0
77.811,5.5894e-05,0
77.812,7.57e-05,0
77.812,8.896e-05,0
77.813,0.00010188,0
77.813,0.00010658,0
77.814,8.2246e-05,0
77.815,3.0381e-05,0
77.815,-6.8818e-06,0
77.816,-1.8967e-05,0
77.816,-3.1891e-05,0
77.817,-5.0858e-05,0
77.817,-5.8915e-05,0
77.818,-5.6565e-05,0
77.818,-3.8437e-05,0
77.819,3.357e-06,0
77.819,5.069e-05,0
77.82,8.1743e-05,0
77.82,8.6442e-05,0
77.821,6.9657e-05,0
77.821,4.2802e-05,0
77.822,1.8631e-05,0
77.822,1.0575e-05,0
77.823,1.6785e-05,0
77.823,2.3163e-05,0
77.824,2.4002e-05,0
77.824,2.1988e-05,0
77.825,2.2156e-05,0
77.825,2.5177e-05,0
77.826,2.8031e-05,0
77.826,3.0381e-05,0
77.827,3.1556e-05,0
77.828,3.0381e-05,0
77.828,2.7192e-05,0
77.829,2.031e-05,0
77.829,1.561e-05,0
77.83,2.2324e-05,0
77.83,4.1962e-05,0
77.831,6.5965e-05,0
77.831,8.1407e-05,0
77.832,8.3589e-05,0
77.832,9.1142e-05,0
77.833,0.00012253,0
77.833,0.00016483,0
77.834,0.00016919,0
77.834,9.7185e-05,0
77.835,-2.2324e-05,0
77.835,-0.00011431,0
77.836,-0.0001472,0
77.836,-0.00014653,0
77.837,-0.00014569,0
77.837,-0.00015258,0
77.838,-0.00016298,0
77.838,-0.00016718,0
77.839,-0.00014553,0
77.839,-8.8792e-05,0
77.84,-1.3596e-05,0
77.84,5.0355e-05,0
77.841,8.0735e-05,0
77.842,8.3085e-05,0
77.842,8.4764e-05,0
77.843,0.00010222,0
77.843,0.00011901,0
77.844,0.00011901,0
77.844,0.000118,0
77.845,0.0001279,0
77.845,0.00013143,0
77.846,0.00010558,0
77.846,5.4047e-05,0
77.847,6.2104e-06,0
77.847,-2.4338e-05,0
77.848,-4.9851e-05,0
77.848,-8.0064e-05,0
77.849,-0.00010004,0
77.849,-0.00010088,0
77.85,-8.3589e-05,0
77.85,-4.7501e-05,0
77.851,-3.1891e-06,0
77.851,2.5345e-05,0
77.852,2.7024e-05,0
77.852,3.1388e-05,0
77.853,6.2104e-05,0
77.853,0.00010172,0
77.854,0.00011968,0
77.855,0.00010809,0
77.855,8.2414e-05,0
77.856,6.1601e-05,0
77.856,5.2201e-05,0
77.857,5.1698e-05,0
77.857,5.2537e-05,0
77.858,4.9516e-05,0
77.858,5.2369e-05,0
77.859,6.5629e-05,0
77.859,7.8721e-05,0
77.86,8.9128e-05,0
77.86,9.3156e-05,0
77.861,8.5771e-05,0
77.861,7.1168e-05,0
77.862,5.9922e-05,0
77.862,5.3544e-05,0
77.863,4.5319e-05,0
77.863,2.2324e-05,0
77.864,-1.3092e-05,0
77.864,-4.6998e-05,0
77.865,-7.0665e-05,0
77.865,-8.6107e-05,0
77.866,-9.987e-05,0
77.866,-0.00010373,0
77.867,-7.805e-05,0
77.867,-2.8199e-05,0
77.868,2.8031e-05,0
77.869,8.3421e-05,0
77.869,0.00012706,0
77.87,0.00014888,0
77.87,0.00015828,0
77.871,0.0001744,0
77.871,0.00017708,0
77.872,0.00013075,0
77.872,3.6088e-05,0
77.873,-6.2608e-05,0
77.873,-0.00012505,0
77.874,-0.00013512,0
77.874,-0.00010105,0
77.875,-5.2369e-05,0
77.875,-1.091e-05,0
77.876,1.5274e-05,0
77.876,2.3331e-05,0
77.877,1.2924e-05,0
77.877,-6.714e-06,0
77.878,-3.0884e-05,0
77.878,-5.623e-05,0
77.879,-6.0929e-05,0
77.879,-3.2059e-05,0
77.88,3.8605e-06,0
77.88,2.3331e-05,0
77.881,3.5416e-05,0
77.882,4.8173e-05,0
77.882,7.4693e-05,0
77.883,0.00012136,0
77.883,0.00018094,0
77.884,0.00022542,0
77.884,0.00022878,0
77.885,0.00018346,0
77.885,0.00011196,0
77.886,4.1291e-05,0
77.886,-2.5681e-05,0
77.887,-8.8792e-05,0
77.887,-0.00012404,0
77.888,-0.00011783,0
77.888,-0.00010323,0
77.889,-0.00012538,0
77.889,-0.00018698,0
77.89,-0.00024053,0
77.89,-0.00024422,0
77.891,-0.00020545,0
77.891,-0.00014989,0
77.892,-0.00010155,0
77.892,-6.865e-05,0
77.893,-4.4984e-05,0
77.893,-2.7359e-05,0
77.894,-4.6998e-06,0
77.894,3.1724e-05,0
77.895,7.2007e-05,0
77.896,9.0303e-05,0
77.896,7.8386e-05,0
77.897,5.2873e-05,0
77.897,3.743e-05,0
77.898,4.448e-05,0
77.898,6.4286e-05,0
77.899,7.9057e-05,0
77.899,8.8457e-05,0
77.9,0.00010289,0
77.9,0.00012773,0
77.901,0.00016818,0
77.901,0.00020998,0
77.902,0.0002177,0
77.902,0.00018245,0
77.903,0.00011531,0
77.903,3.4409e-05,0
77.904,-3.1724e-05,0
77.904,-5.623e-05,0
77.905,-3.978e-05,0
77.905,-2.8534e-06,0
77.906,3.6088e-05,0
77.906,5.8747e-05,0
77.907,6.244e-05,0
77.907,6.2104e-05,0
77.908,7.5029e-05,0
77.909,9.3156e-05,0
77.909,9.8695e-05,0
77.91,8.8457e-05,0
77.91,6.7643e-05,0
77.911,3.978e-05,0
77.911,1.326e-05,0
77.912,-5.539e-06,0
77.912,-2.7359e-05,0
77.913,-4.9851e-05,0
77.913,-5.0355e-05,0
77.914,-2.5681e-05,0
77.914,3.5248e-06,0
77.915,1.9638e-05,0
77.915,2.7359e-05,0
77.916,3.1388e-05,0
77.916,2.9877e-05,0
77.917,2.2324e-05,0
77.917,9.9031e-06,0
77.918,-5.8747e-06,0
77.918,-2.4002e-05,0
77.919,-4.1627e-05,0
77.919,-4.9851e-05,0
77.92,-3.3738e-05,0
77.92,-2.8534e-06,0
77.921,1.7456e-05,0
77.921,2.652e-05,0
77.922,4.1962e-05,0
77.923,6.3615e-05,0
77.923,7.9393e-05,0
77.924,8.0232e-05,0
77.924,6.9154e-05,0
77.925,4.918e-05,0
77.925,1.561e-05,0
77.926,-3.5416e-05,0
77.926,-0.00010407,0
77.927,-0.00016886,0
77.927,-0.00018883,0
77.928,-0.00013445,0
77.928,-2.6184e-05,0
77.929,7.8721e-05,0
77.929,0.00013478,0
77.93,0.00015224,0
77.93,0.00016986,0
77.931,0.00018849,0
77.931,0.00017742,0
77.932,0.00013344,0
77.932,7.6204e-05,0
77.933,9.0639e-06,0
77.933,-5.774e-05,0
77.934,-9.4835e-05,0
77.934,-9.1646e-05,0
77.935,-7.0665e-05,0
77.936,-5.153e-05,0
77.936,-4.2634e-05,0
77.937,-3.8102e-05,0
77.937,-2.031e-05,0
77.938,9.7353e-06,0
77.938,3.0381e-05,0
77.939,2.5177e-05,0
77.939,-1.0239e-05,0
77.94,-6.7811e-05,0
77.94,-0.00011984,0
77.941,-0.00013411,0
77.941,-0.00010373,0
77.942,-5.3376e-05,0
77.942,-1.6281e-05,0
77.943,-5.0355e-07,0
77.943,7.8889e-06,0
77.944,2.6688e-05,0
77.944,5.6565e-05,0
77.945,7.8721e-05,0
77.945,8.661e-05,0
77.946,9.0639e-05,0
77.946,0.00010088,0
77.947,0.00010961,0
77.947,0.00011028,0
77.948,0.00010726,0
77.948,0.00010373,0
77.949,0.00010306,0
77.95,9.5171e-05,0
77.95,6.6468e-05,0
77.951,1.9303e-05,0
77.951,-1.8463e-05,0
77.952,-1.7792e-05,0
77.952,1.8296e-05,0
77.953,6.9657e-05,0
77.953,9.7856e-05,0
77.954,8.9464e-05,0
77.954,6.2776e-05,0
77.955,4.1291e-05,0
77.955,3.743e-05,0
77.956,3.9445e-05,0
77.956,3.3906e-05,0
77.957,2.4338e-05,0
77.957,2.4002e-05,0
77.958,3.3402e-05,0
77.958,3.592e-05,0
77.959,2.4002e-05,0
77.959,7.2175e-06,0
77.96,-7.2175e-06,0
77.96,-2.4338e-05,0
77.961,-4.3137e-05,0
77.961,-5.2537e-05,0
77.962,-5.1865e-05,0
77.963,-4.918e-05,0
77.963,-5.0858e-05,0
77.964,-4.918e-05,0
77.964,-1.4939e-05,0
77.965,6.9657e-05,0
77.965,0.00016869,0
77.966,0.00023499,0
77.966,0.00025228,0
77.967,0.00022089,0
77.967,0.00015291,0
77.968,8.2582e-05,0
77.968,4.4144e-05,0
77.969,1.6953e-05,0
77.969,-4.3137e-05,0
77.97,-0.00013243,0
77.97,-0.00020528,0
77.971,-0.00022005,0
77.971,-0.00015677,0
77.972,-4.6662e-05,0
77.972,3.6423e-05,0
77.973,5.3544e-05,0
77.973,2.8031e-05,0
77.974,4.0284e-06,0
77.974,5.539e-06,0
77.975,2.3331e-05,0
77.975,5.0523e-05,0
77.976,7.7043e-05,0
77.977,9.2149e-05,0
77.977,9.7353e-05,0
77.978,0.00010121,0
77.978,0.00011078,0
77.979,0.00011531,0
77.979,9.5171e-05,0
77.98,6.3447e-05,0
77.98,3.3906e-05,0
77.981,-1.5274e-05,0
77.981,-8.3085e-05,0
77.982,-0.0001284,0
77.982,-0.0001373,0
77.983,-0.00013176,0
77.983,-0.00011984,0
77.984,-0.00010088,0
77.984,-8.4932e-05,0
77.985,-7.7043e-05,0
77.985,-6.3951e-05,0
77.986,-3.592e-05,0
77.986,-3.0213e-06,0
77.987,1.9806e-05,0
77.987,2.8702e-05,0
77.988,2.501e-05,0
77.988,1.1917e-05,0
77.989,-2.182e-06,0
77.99,-6.714e-06,0
77.99,-2.8534e-06,0
77.991,-6.714e-07,0
77.991,4.5319e-06,0
77.992,2.4002e-05,0
77.992,4.5991e-05,0
77.993,5.069e-05,0
77.993,3.3402e-05,0
77.994,6.2104e-06,0
77.994,-9.9031e-06,0
77.995,-5.0355e-06,0
77.995,6.2104e-06,0
77.996,8.896e-06,0
77.996,1.1917e-05,0
77.997,2.9374e-05,0
77.997,5.5894e-05,0
77.998,8.4932e-05,0
77.998,0.00012303,0
77.999,0.00016097,0
77.999,0.00016886,0
78,0.00014855,0
78,0.00011867,0
78.001,7.9057e-05,0
78.001,3.1724e-05,0
78.002,-4.1962e-06,0
78.002,-1.2757e-05,0
78.003,9.2317e-06,0
78.004,4.683e-05,0
78.004,8.5771e-05,0
78.005,0.00011934,0
78.005,0.00014368,0
78.006,0.00015459,0
78.006,0.00014754,0
78.007,0.00012052,0
78.007,7.7379e-05,0
78.008,2.2324e-05,0
78.008,-3.5248e-05,0
78.009,-7.2175e-05,0
78.009,-7.9225e-05,0
78.01,-6.1936e-05,0
78.01,-4.4816e-05,0
78.011,-4.5319e-05,0
78.011,-5.1194e-05,0
78.012,-4.4816e-05,0
78.012,-2.7024e-05,0
78.013,-5.8747e-06,0
78.013,1.2589e-05,0
78.014,2.9374e-05,0
78.014,4.7501e-05,0
78.015,5.9419e-05,0
78.015,5.7572e-05,0
78.016,5.4719e-05,0
78.016,5.8747e-05,0
78.017,5.8244e-05,0
78.018,4.8173e-05,0
78.018,3.743e-05,0
78.019,3.6255e-05,0
78.019,4.4816e-05,0
78.02,4.5823e-05,0
78.02,3.0716e-05,0
78.021,7.2175e-06,0
78.021,-1.8296e-05,0
78.022,-3.508e-05,0
78.022,-3.1724e-05,0
78.023,-7.8889e-06,0
78.023,3.2059e-05,0
78.024,7.3182e-05,0
78.024,0.00010423,0
78.025,0.00011531,0
78.025,9.1814e-05,0
78.026,4.1794e-05,0
78.026,-1.1414e-05,0
78.027,-4.8508e-05,0
78.027,-6.5461e-05,0
78.028,-6.3447e-05,0
78.028,-4.918e-05,0
78.029,-5.2201e-05,0
78.029,-8.51e-05,0
78.03,-0.00011296,0
78.031,-9.6345e-05,0
78.031,-3.7095e-05,0
78.032,1.7792e-05,0
78.032,2.5849e-05,0
78.033,-4.1962e-06,0
78.033,-3.5752e-05,0
78.034,-4.8508e-05,0
78.034,-4.4312e-05,0
78.035,-2.7695e-05,0
78.035,-9.2317e-06,0
78.036,-7.7211e-06,0
78.036,-2.6184e-05,0
78.037,-4.0284e-05,0
78.037,-3.0045e-05,0
78.038,-6.8818e-06,0
78.038,8.2246e-06,0
78.039,2.3331e-05,0
78.039,4.1123e-05,0
78.04,4.9516e-05,0
78.04,4.7837e-05,0
78.041,4.8173e-05,0
78.041,4.6662e-05,0
78.042,2.887e-05,0
78.042,2.4674e-05,0
78.043,6.9993e-05,0
78.043,0.00014469,0
78.044,0.00019789,0
78.045,0.00020259,0
78.045,0.00016349,0
78.046,0.00010658,0
78.046,5.4047e-05,0
78.047,-2.3499e-06,0
78.047,-5.8076e-05,0
78.048,-0.00010407,0
78.048,-0.00013478,0
78.049,-0.00013613,0
78.049,-0.00010524,0
78.05,-4.8005e-05,0
78.05,2.1149e-05,0
78.051,9.8192e-05,0
78.051,0.00017742,0
78.052,0.00022878,0
78.052,0.00023616,0
78.053,0.00019588,0
78.053,0.00011867,0
78.054,3.1052e-05,0
78.054,-3.6088e-05,0
78.055,-8.04e-05,0
78.055,-0.0001086,0
78.056,-0.0001086,0
78.056,-7.4022e-05,0
78.057,-2.7359e-05,0
78.058,1.1582e-05,0
78.058,4.7501e-05,0
78.059,9.5171e-05,0
78.059,0.00014838,0
78.06,0.00018547,0
78.06,0.00019118,0
78.061,0.00016869,0
78.061,0.00013059,0
78.062,8.7282e-05,0
78.062,4.9851e-05,0
78.063,2.1988e-05,0
78.063,-2.3499e-06,0
78.064,-1.8631e-05,0
78.064,-2.4338e-05,0
78.065,-2.7024e-05,0
78.065,-3.2563e-05,0
78.066,-4.3641e-05,0
78.066,-4.9012e-05,0
78.067,-4.2969e-05,0
78.067,-3.1724e-05,0
78.068,-2.417e-05,0
78.068,-1.796e-05,0
78.069,-6.3783e-06,0
78.069,8.896e-06,0
78.07,2.6017e-05,0
78.07,4.8508e-05,0
78.071,6.8818e-05,0
78.072,7.335e-05,0
78.072,6.3279e-05,0
78.073,4.7166e-05,0
78.073,2.8534e-05,0
78.074,3.1891e-06,0
78.074,-2.1317e-05,0
78.075,-3.3906e-05,0
78.075,-3.7934e-05,0
78.076,-4.1459e-05,0
78.076,-4.448e-05,0
78.077,-4.1123e-05,0
78.077,-2.7024e-05,0
78.078,-4.1962e-06,0
78.078,1.4603e-05,0
78.079,2.182e-05,0
78.079,1.3764e-05,0
78.08,-3.5248e-06,0
78.08,-1.5946e-05,0
78.081,-1.4603e-05,0
78.081,-1.2253e-05,0
78.082,-2.7359e-05,0
78.082,-5.1698e-05,0
78.083,-6.3279e-05,0
78.083,-5.2537e-05,0
78.084,-2.7024e-05,0
78.085,3.6927e-06,0
78.085,3.3738e-05,0
78.086,5.153e-05,0
78.086,4.2802e-05,0
78.087,1.9135e-05,0
78.087,5.7069e-06,0
78.088,1.2589e-05,0
78.088,2.7359e-05,0
78.089,4.8173e-05,0
78.089,7.1336e-05,0
78.09,8.7282e-05,0
78.09,9.0639e-05,0
78.091,7.7379e-05,0
78.091,5.388e-05,0
78.092,3.0549e-05,0
78.092,5.0355e-06,0
78.093,-1.6617e-05,0
78.093,-2.3331e-05,0
78.094,-1.8128e-05,0
78.094,-1.6281e-05,0
78.095,-2.266e-05,0
78.095,-2.4506e-05,0
78.096,-1.2924e-05,0
78.096,9.2317e-06,0
78.097,2.8534e-05,0
78.097,4.4144e-05,0
78.098,6.2776e-05,0
78.099,8.1071e-05,0
78.099,8.9632e-05,0
78.1,7.9225e-05,0
78.1,5.8412e-05,0
78.101,4.6494e-05,0
78.101,4.2466e-05,0
78.102,2.6352e-05,0
78.102,-1.8463e-06,0
78.103,-1.9135e-05,0
78.103,-5.7069e-06,0
78.104,2.4674e-05,0
78.104,4.4816e-05,0
78.105,4.4648e-05,0
78.105,3.4745e-05,0
78.106,2.9374e-05,0
78.106,1.6617e-05,0
78.107,-1.2924e-05,0
78.107,-4.1123e-05,0
78.108,-4.4648e-05,0
78.108,-2.8702e-05,0
78.109,-1.2421e-05,0
78.109,-5.8747e-06,0
78.11,-9.9031e-06,0
78.11,-2.2492e-05,0
78.111,-3.6759e-05,0
78.112,-2.5849e-05,0
78.112,2.1149e-05,0
78.113,7.8889e-05,0
78.113,0.000118,0
78.114,0.00011934,0
78.114,8.7282e-05,0
78.115,5.5726e-05,0
78.115,4.6159e-05,0
78.116,3.8437e-05,0
78.116,1.2589e-05,0
78.117,-2.2492e-05,0
78.117,-7.335e-05,0
78.118,-0.0001415,0
78.118,-0.00018581,0
78.119,-0.00015224,0
78.119,-5.4383e-05,0
78.12,5.3208e-05,0
78.12,0.00013042,0
78.121,0.00016936,0
78.121,0.00017977,0
78.122,0.00017372,0
78.122,0.00015727,0
78.123,0.00012589,0
78.123,7.6036e-05,0
78.124,1.2253e-05,0
78.124,-4.3809e-05,0
78.125,-5.2705e-05,0
78.126,-9.9031e-06,0
78.126,4.4648e-05,0
78.127,7.1672e-05,0
78.127,7.9728e-05,0
78.128,8.3085e-05,0
78.128,8.5771e-05,0
78.129,8.5771e-05,0
78.129,9.1142e-05,0
78.13,9.4835e-05,0
78.13,6.6972e-05,0
78.131,1.0407e-05,0
78.131,-3.3066e-05,0
78.132,-3.9612e-05,0
78.132,-2.1653e-05,0
78.133,5.8747e-06,0
78.133,3.743e-05,0
78.134,6.4622e-05,0
78.134,7.6371e-05,0
78.135,7.1e-05,0
78.135,6.6804e-05,0
78.136,8.4092e-05,0
78.136,0.00011833,0
78.137,0.00015023,0
78.137,0.00015895,0
78.138,0.00014687,0
78.139,0.00011733,0
78.139,7.1336e-05,0
78.14,8.5603e-06,0
78.14,-5.9754e-05,0
78.141,-0.00010776,0
78.141,-0.0001425,0
78.142,-0.00019185,0
78.142,-0.00022844,0
78.143,-0.00021501,0
78.143,-0.00017406,0
78.144,-0.00014871,0
78.144,-0.00012941,0
78.145,-9.9199e-05,0
78.145,-7.4525e-05,0
78.146,-5.9419e-05,0
78.146,-3.6927e-05,0
78.147,-7.8889e-06,0
78.147,1.2253e-05,0
78.148,1.9974e-05,0
78.148,3.0381e-05,0
78.149,4.8173e-05,0
78.149,6.4286e-05,0
78.15,6.5293e-05,0
78.15,5.304e-05,0
78.151,4.0452e-05,0
78.151,3.743e-05,0
78.152,5.3544e-05,0
78.153,9.4331e-05,0
78.153,0.0001462,0
78.154,0.00017675,0
78.154,0.00017003,0
78.155,0.0001566,0
78.155,0.00016902,0
78.156,0.000165,0
78.156,0.00010222,0
78.157,1.5274e-05,0
78.157,-4.4312e-05,0
78.158,-6.5797e-05,0
78.158,-7.1672e-05,0
78.159,-8.8289e-05,0
78.159,-0.00010877,0
78.16,-0.0001138,0
78.16,-0.0001034,0
78.161,-9.0806e-05,0
78.161,-9.1142e-05,0
78.162,-0.0001091,0
78.162,-0.00012018,0
78.163,-9.8024e-05,0
78.163,-4.1123e-05,0
78.164,1.6953e-05,0
78.164,4.7501e-05,0
78.165,6.1601e-05,0
78.166,7.5029e-05,0
78.166,8.04e-05,0
78.167,7.7379e-05,0
78.167,7.6371e-05,0
78.168,7.9057e-05,0
78.168,7.7714e-05,0
78.169,6.8818e-05,0
78.169,5.7237e-05,0
78.17,4.7166e-05,0
78.17,3.4073e-05,0
78.171,2.4338e-05,0
78.171,2.4506e-05,0
78.172,3.0045e-05,0
78.172,3.2059e-05,0
78.173,3.1388e-05,0
78.173,3.1388e-05,0
78.174,3.5584e-05,0
78.174,4.1459e-05,0
78.175,4.6159e-05,0
78.175,4.683e-05,0
78.176,4.1123e-05,0
78.176,3.0716e-05,0
78.177,1.8967e-05,0
78.177,4.1962e-06,0
78.178,-5.7069e-06,0
78.178,3.357e-07,0
78.179,1.9974e-05,0
78.18,4.213e-05,0
78.18,5.5726e-05,0
78.181,5.4887e-05,0
78.181,4.9851e-05,0
78.182,5.1698e-05,0
78.182,6.5965e-05,0
78.183,9.0974e-05,0
78.183,0.00011632,0
78.184,0.00012102,0
78.184,9.6513e-05,0
78.185,5.2201e-05,0
78.185,1.1078e-05,0
78.186,-1.091e-05,0
78.186,-1.6281e-05,0
78.187,-1.1917e-05,0
78.187,-8.3925e-07,0
78.188,3.357e-06,0
78.188,-6.0426e-06,0
78.189,-1.9303e-05,0
78.189,-3.5248e-05,0
78.19,-5.2873e-05,0
78.19,-6.1265e-05,0
78.191,-4.0787e-05,0
78.191,1.5106e-06,0
78.192,3.0213e-05,0
78.193,3.2059e-05,0
78.193,2.0981e-05,0
78.194,1.2924e-05,0
78.194,2.0645e-05,0
78.195,4.6998e-05,0
78.195,6.9322e-05,0
78.196,6.2608e-05,0
78.196,3.2395e-05,0
78.197,-1.5106e-06,0
78.197,-1.9638e-05,0
78.198,-1.9135e-05,0
78.198,-8.3925e-06,0
78.199,5.2033e-06,0
78.199,1.9303e-05,0
78.2,3.0716e-05,0
78.2,3.8102e-05,0
78.201,4.5151e-05,0
78.201,5.153e-05,0
78.202,5.8915e-05,0
78.202,7.0161e-05,0
78.203,7.7043e-05,0
78.203,7.9728e-05,0
78.204,7.7043e-05,0
78.204,7.3518e-05,0
78.205,7.2343e-05,0
78.206,7.0665e-05,0
78.206,5.623e-05,0
78.207,2.031e-05,0
78.207,-1.7624e-05,0
78.208,-3.0884e-05,0
78.208,-2.2995e-05,0
78.209,-1.0071e-05,0
78.209,-6.714e-07,0
78.21,5.0355e-07,0
78.21,-2.8534e-06,0
78.211,-7.5532e-06,0
78.211,-8.2246e-06,0
78.212,-4.1962e-06,0
78.212,-2.3499e-06,0
78.213,-3.8605e-06,0
78.213,-4.5319e-06,0
78.214,-3.1891e-06,0
78.214,-1.3428e-06,0
78.215,-1.0071e-06,0
78.215,0,0
78.216,1.326e-05,0
78.216,5.5558e-05,0
78.217,0.00011716,0
78.217,0.00016802,0
78.218,0.00018782,0
78.218,0.00017641,0
78.219,0.00014099,0
78.22,9.4163e-05,0
78.22,4.7333e-05,0
78.221,6.714e-06,0
78.221,-2.887e-05,0
78.222,-6.6133e-05,0
78.222,-0.0001039,0
78.223,-0.0001279,0
78.223,-0.00012807,0
78.224,-0.00010692,0
78.224,-7.7379e-05,0
78.225,-5.5894e-05,0
78.225,-4.7837e-05,0
78.226,-4.3809e-05,0
78.226,-3.357e-05,0
78.227,-2.7192e-05,0
78.227,-4.0452e-05,0
78.228,-8.0903e-05,0
78.228,-0.00013999,0
78.229,-0.00018212,0
78.229,-0.00017708,0
78.23,-0.00012404,0
78.23,-4.7166e-05,0
78.231,2.8031e-05,0
78.231,0.00010323,0
78.232,0.00017926,0
78.233,0.00023583,0
78.233,0.0002506,0
78.234,0.00021401,0
78.234,0.0001326,0
78.235,3.8102e-05,0
78.235,-3.8773e-05,0
78.236,-9.1814e-05,0
78.236,-0.00012454,0
78.237,-0.00013462,0
78.237,-0.00012605,0
78.238,-0.00010759,0
78.238,-5.7572e-05,0
78.239,3.1388e-05,0
78.239,0.00012639,0
78.24,0.00018715,0
78.24,0.00019454,0
78.241,0.00016298,0
78.241,0.00011934,0
78.242,8.8457e-05,0
78.242,7.6204e-05,0
78.243,6.5965e-05,0
78.243,4.9516e-05,0
78.244,3.5248e-05,0
78.244,2.9038e-05,0
78.245,3.7263e-05,0
78.245,6.2272e-05,0
78.246,9.3492e-05,0
78.247,0.00011028,0
78.247,0.00010289,0
78.248,7.4357e-05,0
78.248,2.9709e-05,0
78.249,-2.7024e-05,0
78.249,-8.7114e-05,0
78.25,-0.00012572,0
78.25,-0.00012337,0
78.251,-8.2414e-05,0
78.251,-2.9374e-05,0
78.252,1.5946e-05,0
78.252,8.5771e-05,0
78.253,0.00019554,0
78.253,0.00029122,0
78.254,0.00032042,0
78.254,0.00029021,0
78.255,0.00023163,0
78.255,0.00016097,0
78.256,9.5842e-05,0
78.256,4.2802e-05,0
78.257,-1.1749e-06,0
78.257,-3.9109e-05,0
78.258,-6.5293e-05,0
78.258,-7.2679e-05,0
78.259,-7.2679e-05,0
78.26,-7.2679e-05,0
78.26,-6.5629e-05,0
78.261,-4.9851e-05,0
78.261,-3.978e-05,0
78.262,-3.6255e-05,0
78.262,-2.9709e-05,0
78.263,-2.6856e-05,0
78.263,-3.5752e-05,0
78.264,-4.9516e-05,0
78.264,-6.6468e-05,0
78.265,-7.8386e-05,0
78.265,-7.4357e-05,0
78.266,-6.2608e-05,0
78.266,-4.8005e-05,0
78.267,-3.743e-05,0
78.267,-3.508e-05,0
78.268,-3.4409e-05,0
78.268,-3.592e-05,0
78.269,-3.8773e-05,0
78.269,-3.592e-05,0
78.27,-3.9948e-05,0
78.27,-7.3686e-05,0
78.271,-0.00012337,0
78.271,-0.00015157,0
78.272,-0.00015157,0
78.272,-0.00014452,0
78.273,-0.00013495,0
78.274,-0.00010776,0
78.274,-4.8341e-05,0
78.275,4.6159e-05,0
78.275,0.00015795,0
78.276,0.00024825,0
78.276,0.00028283,0
78.277,0.0002647,0
78.277,0.00022106,0
78.278,0.00018094,0
78.278,0.00015392,0
78.279,0.00012471,0
78.279,8.8289e-05,0
78.28,6.0594e-05,0
78.28,4.5823e-05,0
78.281,3.743e-05,0
78.281,3.4745e-05,0
78.282,3.4577e-05,0
78.282,2.9038e-05,0
78.283,1.8296e-05,0
78.283,1.561e-05,0
78.284,3.2898e-05,0
78.284,6.0258e-05,0
78.285,7.9561e-05,0
78.285,8.3757e-05,0
78.286,8.1239e-05,0
78.287,8.7114e-05,0
78.287,0.0001044,0
78.288,0.00011498,0
78.288,9.5506e-05,0
78.289,4.5823e-05,0
78.289,-4.5319e-06,0
78.29,-2.2492e-05,0
78.29,-9.2317e-06,0
78.291,1.0239e-05,0
78.291,3.1724e-05,0
78.292,6.8315e-05,0
78.292,0.00010289,0
78.293,0.00010491,0
78.293,6.1601e-05,0
78.294,-1.4603e-05,0
78.294,-0.00010709,0
78.295,-0.00019957,0
78.295,-0.00026268,0
78.296,-0.00027158,0
78.296,-0.00024506,0
78.297,-0.00021115,0
78.297,-0.00016298,0
78.298,-9.6513e-05,0
78.298,-3.1052e-05,0
78.299,2.501e-05,0
78.299,7.4189e-05,0
78.3,0.00011766,0
78.301,0.00014687,0
78.301,0.00014855,0
78.302,0.00012656,0
78.302,9.1478e-05,0
78.303,3.978e-05,0
78.303,-3.2731e-05,0
78.304,-8.6107e-05,0
78.304,-8.1743e-05,0
78.305,-3.2731e-05,0
78.305,-1.6785e-07,0
78.306,-2.3331e-05,0
78.306,-7.0329e-05,0
78.307,-9.2485e-05,0
78.307,-7.1e-05,0
78.308,-7.0497e-06,0
78.308,6.6972e-05,0
78.309,0.00011431,0
78.309,0.00012874,0
78.31,0.000118,0
78.31,9.5171e-05,0
78.311,7.5029e-05,0
78.311,6.8315e-05,0
78.312,7.6371e-05,0
78.312,8.9128e-05,0
78.313,9.752e-05,0
78.314,0.00010105,0
78.314,0.00010776,0
78.315,0.00011498,0
78.315,0.0001133,0
78.316,0.00010155,0
78.316,8.8624e-05,0
78.317,8.8457e-05,0
78.317,0.00011531,0
78.318,0.00016197,0
78.318,0.00019823,0
78.319,0.00019387,0
78.319,0.00013948,0
78.32,5.539e-05,0
78.32,-2.4002e-05,0
78.321,-7.2679e-05,0
78.321,-8.8624e-05,0
78.322,-9.7856e-05,0
78.322,-0.00012908,0
78.323,-0.00017003,0
78.323,-0.00018715,0
78.324,-0.00017456,0
78.324,-0.00014318,0
78.325,-9.6849e-05,0
78.325,-4.6494e-05,0
78.326,-1.561e-05,0
78.326,-7.2175e-06,0
78.327,-8.2246e-06,0
78.328,-1.3428e-05,0
78.328,-1.9471e-05,0
78.329,-1.6281e-05,0
78.329,2.8534e-06,0
78.33,3.5584e-05,0
78.33,7.5532e-05,0
78.331,0.00011179,0
78.331,0.00013629,0
78.332,0.00014972,0
78.332,0.00016315,0
78.333,0.00016852,0
78.333,0.00014871,0
78.334,0.00010021,0
78.334,3.4577e-05,0
78.335,-3.9277e-05,0
78.335,-0.00010423,0
78.336,-0.00013814,0
78.336,-0.00014133,0
78.337,-0.00012639,0
78.337,-0.00010155,0
78.338,-6.5797e-05,0
78.338,-3.0716e-05,0
78.339,-9.9031e-06,0
78.339,1.8631e-05,0
78.34,6.9154e-05,0
78.341,0.0001274,0
78.341,0.00018849,0
78.342,0.00023767,0
78.342,0.00024154,0
78.343,0.00020092,0
78.343,0.00017037,0
78.344,0.00016902,0
78.344,0.00015392,0
78.345,9.5674e-05,0
78.345,-5.3712e-06,0
78.346,-0.0001039,0
78.346,-0.00015761,0
78.347,-0.00016164,0
78.347,-0.00013545,0
78.348,-0.0001034,0
78.348,-7.1e-05,0
78.349,-3.3402e-05,0
78.349,-3.5248e-06,0
78.35,-7.7211e-06,0
78.35,-5.9251e-05,0
78.351,-0.00012303,0
78.351,-0.00014855,0
78.352,-0.00013042,0
78.352,-9.8527e-05,0
78.353,-6.8147e-05,0
78.353,-2.8702e-05,0
78.354,2.1653e-05,0
78.355,8.7449e-05,0
78.355,0.00016365,0
78.356,0.00023348,0
78.356,0.00027343,0
78.357,0.00026973,0
78.357,0.00022643,0
78.358,0.0001603,0
78.358,8.7449e-05,0
78.359,2.5513e-05,0
78.359,-1.1582e-05,0
78.36,-2.5681e-05,0
78.36,-2.7024e-05,0
78.361,-2.031e-05,0
78.361,-8.2246e-06,0
78.362,1.1246e-05,0
78.362,3.1556e-05,0
78.363,4.1962e-05,0
78.363,4.5487e-05,0
78.364,4.9516e-05,0
78.364,5.4047e-05,0
78.365,5.8915e-05,0
78.365,7.1672e-05,0
78.366,9.4835e-05,0
78.366,0.00011699,0
78.367,0.0001284,0
78.368,0.0001232,0
78.368,9.7185e-05,0
78.369,5.7237e-05,0
78.369,1.1246e-05,0
78.37,-3.6759e-05,0
78.37,-8.3253e-05,0
78.371,-0.00011951,0
78.371,-0.00013529,0
78.372,-0.00012992,0
78.372,-0.00010105,0
78.373,-5.2369e-05,0
78.373,-2.5177e-06,0
78.374,2.9206e-05,0
78.374,4.1291e-05,0
78.375,5.5894e-05,0
78.375,8.1743e-05,0
78.376,0.00010658,0
78.376,0.00011666,0
78.377,9.9199e-05,0
78.377,5.2537e-05,0
78.378,-2.182e-06,0
78.378,-4.7166e-05,0
78.379,-8.1743e-05,0
78.379,-0.00010222,0
78.38,-0.00010155,0
78.38,-8.3589e-05,0
78.381,-6.2272e-05,0
78.382,-4.3473e-05,0
78.382,-1.9974e-05,0
78.383,5.0355e-07,0
78.383,0,0
78.384,-1.8967e-05,0
78.384,-3.4241e-05,0
78.385,-3.2395e-05,0
78.385,-2.0813e-05,0
78.386,-1.7288e-05,0
78.386,-1.6617e-05,0
78.387,1.8463e-06,0
78.387,3.6927e-05,0
78.388,7.9728e-05,0
78.388,0.00013143,0
78.389,0.00017288,0
78.389,0.00018514,0
78.39,0.00017238,0
78.39,0.00012572,0
78.391,4.4816e-05,0
78.391,-3.8773e-05,0
78.392,-0.00010172,0
78.392,-0.00014469,0
78.393,-0.0001707,0
78.393,-0.00019319,0
78.394,-0.00019152,0
78.394,-0.00013092,0
78.395,-3.1388e-05,0
78.396,7.5364e-05,0
78.396,0.00017104,0
78.397,0.00022794,0
78.397,0.00022341,0
78.398,0.00017708,0
78.398,0.00013378,0
78.399,0.00011044,0
78.399,9.987e-05,0
78.4,9.0303e-05,0
78.4,7.9393e-05,0
78.401,6.8315e-05,0
78.401,5.9251e-05,0
78.402,5.1865e-05,0
78.402,4.8676e-05,0
78.403,5.153e-05,0
78.403,5.5222e-05,0
78.404,5.388e-05,0
78.404,4.9516e-05,0
78.405,4.5487e-05,0
78.405,4.4144e-05,0
78.406,4.4312e-05,0
78.406,4.448e-05,0
78.407,3.9109e-05,0
78.407,2.7359e-05,0
78.408,1.5946e-05,0
78.409,1.0575e-05,0
78.409,1.0575e-05,0
78.41,1.3931e-05,0
78.41,1.796e-05,0
78.411,1.7792e-05,0
78.411,1.4939e-05,0
78.412,2.031e-05,0
78.412,2.6688e-05,0
78.413,2.5681e-05,0
78.413,1.6953e-05,0
78.414,1.1749e-06,0
78.414,-1.9638e-05,0
78.415,-1.7288e-05,0
78.415,2.266e-05,0
78.416,7.2511e-05,0
78.416,0.00010423,0
78.417,0.00011682,0
78.417,0.00011615,0
78.418,0.00010524,0
78.418,9.2317e-05,0
78.419,7.6371e-05,0
78.419,4.8173e-05,0
78.42,1.6785e-06,0
78.42,-6.479e-05,0
78.421,-0.00013663,0
78.421,-0.00019152,0
78.422,-0.00021904,0
78.423,-0.00021099,0
78.423,-0.00017238,0
78.424,-0.00012471,0
78.424,-9.1814e-05,0
78.425,-8.2414e-05,0
78.425,-6.9322e-05,0
78.426,-2.3835e-05,0
78.426,4.2802e-05,0
78.427,0.00010021,0
78.427,0.00014485,0
78.428,0.00016197,0
78.428,0.00013747,0
78.429,9.1142e-05,0
78.429,5.7404e-05,0
78.43,6.3951e-05,0
78.43,0.00010323,0
78.431,0.00013227,0
78.431,0.00012505,0
78.432,9.2485e-05,0
78.432,5.623e-05,0
78.433,2.4338e-05,0
78.433,1.3428e-06,0
78.434,-6.5461e-06,0
78.434,1.1749e-06,0
78.435,1.8631e-05,0
78.436,3.6423e-05,0
78.436,5.1194e-05,0
78.437,4.9516e-05,0
78.437,2.4842e-05,0
78.438,6.714e-07,0
78.438,-4.1962e-06,0
78.439,1.8463e-06,0
78.439,2.0142e-06,0
78.44,-6.3783e-06,0
78.44,-2.266e-05,0
78.441,-5.1865e-05,0
78.441,-8.3253e-05,0
78.442,-0.00010373,0
78.442,-0.00011666,0
78.443,-0.0001279,0
78.443,-0.00012723,0
78.444,-0.00011061,0
78.444,-9.3324e-05,0
78.445,-8.426e-05,0
78.445,-7.7379e-05,0
78.446,-6.1265e-05,0
78.446,-3.8773e-05,0
78.447,-2.7024e-05,0
78.447,-2.6688e-05,0
78.448,-3.0549e-05,0
78.448,-4.5319e-05,0
78.449,-6.63e-05,0
78.45,-6.7308e-05,0
78.45,-4.4312e-05,0
78.451,-2.9709e-05,0
78.451,-3.9445e-05,0
78.452,-5.8579e-05,0
78.452,-5.2873e-05,0
78.453,-4.5319e-06,0
78.453,6.5629e-05,0
78.454,0.00012656,0
78.454,0.00016768,0
78.455,0.00016953,0
78.455,0.00011783,0
78.456,5.1194e-05,0
78.456,3.3402e-05,0
78.457,6.6804e-05,0
78.457,0.0001039,0
78.458,0.00011347,0
78.458,9.6849e-05,0
78.459,7.1e-05,0
78.459,4.9516e-05,0
78.46,3.0549e-05,0
78.46,2.266e-05,0
78.461,3.7766e-05,0
78.461,5.153e-05,0
78.462,2.7359e-05,0
78.463,-1.8967e-05,0
78.463,-4.4648e-05,0
78.464,-4.5151e-05,0
78.464,-3.3066e-05,0
78.465,-5.3712e-06,0
78.465,3.1052e-05,0
78.466,5.539e-05,0
78.466,4.918e-05,0
78.467,3.1388e-05,0
78.467,2.4506e-05,0
78.468,2.0981e-05,0
78.468,1.0575e-05,0
78.469,3.1891e-06,0
78.469,7.0497e-06,0
78.47,2.4338e-05,0
78.47,4.448e-05,0
78.471,5.623e-05,0
78.471,6.0929e-05,0
78.472,6.5293e-05,0
78.472,6.8315e-05,0
78.473,6.5461e-05,0
78.473,5.4383e-05,0
78.474,3.8605e-05,0
78.474,2.5849e-05,0
78.475,1.8463e-05,0
78.475,1.3092e-05,0
78.476,1.1749e-06,0
78.477,-2.3499e-05,0
78.477,-4.9516e-05,0
78.478,-5.7404e-05,0
78.478,-3.6423e-05,0
78.479,-2.8534e-06,0
78.479,1.8631e-05,0
78.48,2.5849e-05,0
78.48,2.9709e-05,0
78.481,4.0452e-05,0
78.481,5.7908e-05,0
78.482,7.0161e-05,0
78.482,7.5364e-05,0
78.483,8.5771e-05,0
78.483,9.4331e-05,0
78.484,0.00010239,0
78.484,0.00011968,0
78.485,0.00012454,0
78.485,0.00010726,0
78.486,9.0974e-05,0
78.486,8.2414e-05,0
78.487,6.8818e-05,0
78.487,4.5487e-05,0
78.488,2.8367e-05,0
78.488,1.6617e-05,0
78.489,-5.539e-06,0
78.49,-3.5752e-05,0
78.49,-7.9561e-05,0
78.491,-0.00012924,0
78.491,-0.00015962,0
78.492,-0.00016466,0
78.492,-0.00015392,0
78.493,-0.00013495,0
78.493,-0.00011296,0
78.494,-8.4596e-05,0
78.494,-4.9683e-05,0
78.495,-1.6953e-05,0
78.495,1.4939e-05,0
78.496,4.5319e-05,0
78.496,6.6468e-05,0
78.497,7.1168e-05,0
78.497,6.009e-05,0
78.498,4.5151e-05,0
78.498,3.6759e-05,0
78.499,3.8437e-05,0
78.499,5.4887e-05,0
78.5,8.9128e-05,0
78.5,0.00013529,0
78.501,0.00017708,0
78.501,0.00019521,0
78.502,0.00019689,0
78.502,0.00019789,0
78.503,0.00019219,0
78.504,0.00016684,0
78.504,0.00012068,0
78.505,6.2943e-05,0
78.505,1.2924e-05,0
78.506,-1.5946e-05,0
78.506,-3.0381e-05,0
78.507,-3.7095e-05,0
78.507,-3.2059e-05,0
78.508,-1.3931e-05,0
78.508,-5.8747e-06,0
78.509,-1.2924e-05,0
78.509,-1.2924e-05,0
78.51,3.357e-07,0
78.51,1.8631e-05,0
78.511,2.9038e-05,0
78.511,2.0478e-05,0
78.512,-6.8818e-06,0
78.512,-3.8605e-05,0
78.513,-6.479e-05,0
78.513,-9.0806e-05,0
78.514,-0.0001091,0
78.514,-9.987e-05,0
78.515,-6.4958e-05,0
78.515,-3.3234e-05,0
78.516,-1.8296e-05,0
78.517,-1.7624e-05,0
78.517,-1.7121e-05,0
78.518,-7.7211e-06,0
78.518,1.1078e-05,0
78.519,3.2395e-05,0
78.519,4.9516e-05,0
78.52,7.2343e-05,0
78.52,0.00010256,0
78.521,0.00012522,0
78.521,0.00013143,0
78.522,0.00011666,0
78.522,8.9128e-05,0
78.523,5.8579e-05,0
78.523,2.9038e-05,0
78.524,1.1749e-06,0
78.524,-2.7024e-05,0
78.525,-5.3208e-05,0
78.525,-5.6062e-05,0
78.526,-3.3738e-05,0
78.526,-3.357e-06,0
78.527,2.4506e-05,0
78.527,4.4816e-05,0
78.528,5.0858e-05,0
78.528,4.4648e-05,0
78.529,4.5319e-05,0
78.529,6.0258e-05,0
78.53,6.8315e-05,0
78.531,5.5055e-05,0
78.531,2.1988e-05,0
78.532,-2.266e-05,0
78.532,-5.3544e-05,0
78.533,-4.8341e-05,0
78.533,-1.4771e-05,0
78.534,3.2563e-05,0
78.534,8.3757e-05,0
78.535,0.00011783,0
78.535,0.00012068,0
78.536,0.00010105,0
78.536,7.1336e-05,0
78.537,4.1123e-05,0
78.537,1.8967e-05,0
78.538,3.5248e-06,0
78.538,-1.9806e-05,0
78.539,-5.0019e-05,0
78.539,-7.1e-05,0
78.54,-7.8218e-05,0
78.54,-7.335e-05,0
78.541,-4.683e-05,0
78.541,6.714e-07,0
78.542,5.4215e-05,0
78.542,9.5338e-05,0
78.543,0.00011162,0
78.544,0.00010054,0
78.544,7.0329e-05,0
78.545,3.3066e-05,0
78.545,1.3428e-06,0
78.546,-1.7121e-05,0
78.546,-2.7527e-05,0
78.547,-3.2898e-05,0
78.547,-3.1052e-05,0
78.548,-1.9135e-05,0
78.548,-7.2175e-06,0
78.549,-8.5603e-06,0
78.549,-1.8967e-05,0
78.55,-2.2324e-05,0
78.55,-1.8463e-06,0
78.551,3.978e-05,0
78.551,7.8386e-05,0
78.552,8.7449e-05,0
78.552,6.9657e-05,0
78.553,4.4144e-05,0
78.553,3.0716e-05,0
78.554,3.1724e-05,0
78.554,3.9612e-05,0
78.555,5.2537e-05,0
78.555,7.3014e-05,0
78.556,8.1575e-05,0
78.556,6.0594e-05,0
78.557,3.2731e-05,0
78.558,1.4099e-05,0
78.558,-5.539e-06,0
78.559,-2.3163e-05,0
78.559,-2.4674e-05,0
78.56,-1.1582e-05,0
78.56,5.0355e-06,0
78.561,1.8631e-05,0
78.561,3.5416e-05,0
78.562,6.0258e-05,0
78.562,8.2246e-05,0
78.563,9.0471e-05,0
78.563,8.3085e-05,0
78.564,5.2873e-05,0
78.564,-1.6953e-05,0
78.565,-0.00010809,0
78.565,-0.00016214,0
78.566,-0.00015912,0
78.566,-0.00012773,0
78.567,-9.752e-05,0
78.567,-8.2414e-05,0
78.568,-9.0806e-05,0
78.568,-0.00012404,0
78.569,-0.00014737,0
78.569,-0.00013059,0
78.57,-8.6107e-05,0
78.571,-2.9541e-05,0
78.571,2.9038e-05,0
78.572,7.0497e-05,0
78.572,0.00010021,0
78.573,0.00014351,0
78.573,0.00020578,0
78.574,0.00027376,0
78.574,0.00032949,0
78.575,0.00035567,0
78.575,0.00033419,0
78.576,0.00026101,0
78.576,0.00017121,0
78.577,0.00010457,0
78.577,6.6972e-05,0
78.578,4.7166e-05,0
78.578,2.4002e-05,0
78.579,-1.2924e-05,0
78.579,-4.5823e-05,0
78.58,-5.8412e-05,0
78.58,-5.3208e-05,0
78.581,-3.7263e-05,0
78.581,-1.6449e-05,0
78.582,-8.3925e-07,0
78.582,3.0213e-06,0
78.583,-4.6998e-06,0
78.584,-1.9303e-05,0
78.584,-3.592e-05,0
78.585,-3.7766e-05,0
78.585,-2.1653e-05,0
78.586,5.0355e-07,0
78.586,2.6017e-05,0
78.587,4.4144e-05,0
78.587,4.3473e-05,0
78.588,2.1988e-05,0
78.588,-1.1078e-05,0
78.589,-3.743e-05,0
78.589,-4.4144e-05,0
78.59,-3.7766e-05,0
78.59,-2.4674e-05,0
78.591,-6.8818e-06,0
78.591,1.5946e-05,0
78.592,3.9109e-05,0
78.592,5.5894e-05,0
78.593,7.1e-05,0
78.593,8.3421e-05,0
78.594,8.3421e-05,0
78.594,6.865e-05,0
78.595,4.4312e-05,0
78.595,2.1988e-05,0
78.596,1.091e-05,0
78.596,6.5461e-06,0
78.597,-2.0142e-06,0
78.598,-1.561e-05,0
78.598,-2.417e-05,0
78.599,-2.031e-05,0
78.599,-5.7069e-06,0
78.6,1.6281e-05,0
78.6,3.8102e-05,0
78.601,4.683e-05,0
78.601,4.448e-05,0
78.602,4.3977e-05,0
78.602,4.918e-05,0
78.603,5.2201e-05,0
78.603,5.5558e-05,0
78.604,6.6972e-05,0
78.604,7.3518e-05,0
78.605,5.8244e-05,0
78.605,1.4603e-05,0
78.606,-4.8508e-05,0
78.606,-0.00010021,0
78.607,-0.00011565,0
78.607,-9.1981e-05,0
78.608,-5.4551e-05,0
78.608,-3.5752e-05,0
78.609,-4.3809e-05,0
78.609,-5.6062e-05,0
78.61,-3.5248e-05,0
78.611,1.6953e-05,0
78.611,5.8579e-05,0
78.612,5.7572e-05,0
78.612,1.7624e-05,0
78.613,-2.2324e-05,0
78.613,-3.8102e-05,0
78.614,-3.7095e-05,0
78.614,-2.7695e-05,0
78.615,-9.0639e-06,0
78.615,2.0142e-05,0
78.616,4.8676e-05,0
78.616,6.7979e-05,0
78.617,7.6875e-05,0
78.617,7.9057e-05,0
78.618,8.2414e-05,0
78.618,8.9128e-05,0
78.619,8.3589e-05,0
78.619,5.3208e-05,0
78.62,1.561e-05,0
78.62,1.8463e-06,0
78.621,2.501e-05,0
78.621,7.6204e-05,0
78.622,0.0001368,0
78.622,0.00018782,0
78.623,0.00020662,0
78.623,0.00017389,0
78.624,0.00011263,0
78.625,6.2104e-05,0
78.625,1.8463e-05,0
78.626,-4.448e-05,0
78.626,-0.00013227,0
78.627,-0.00022223,0
78.627,-0.00028719,0
78.628,-0.00030683,0
78.628,-0.00028837,0
78.629,-0.00025597,0
78.629,-0.00021317,0
78.63,-0.00015492,0
78.63,-9.1478e-05,0
78.631,-3.9109e-05,0
78.631,1.3428e-06,0
78.632,3.5752e-05,0
78.632,8.1239e-05,0
78.633,0.00014217,0
78.633,0.00019152,0
78.634,0.00020159,0
78.634,0.00017171,0
78.635,0.00013445,0
78.635,0.00011615,0
78.636,0.00011347,0
78.636,0.00011128,0
78.637,0.00010524,0
78.638,0.00010054,0
78.638,0.00010658,0
78.639,0.00012538,0
78.639,0.00014418,0
78.64,0.00013478,0
78.64,8.896e-05,0
78.641,3.8605e-05,0
78.641,1.0071e-05,0
78.642,4.1962e-06,0
78.642,1.3428e-05,0
78.643,2.8031e-05,0
78.643,3.7095e-05,0
78.644,3.357e-05,0
78.644,2.2828e-05,0
78.645,1.5946e-05,0
78.645,2.9709e-05,0
78.646,6.2272e-05,0
78.646,8.6778e-05,0
78.647,8.4764e-05,0
78.647,6.8315e-05,0
78.648,5.2705e-05,0
78.648,3.6423e-05,0
78.649,1.4939e-05,0
78.649,1.5106e-06,0
78.65,-1.6785e-07,0
78.65,-1.6449e-05,0
