3.4804,-3.8773e-05,0
3.4809,-1.2757e-05,0
3.4814,1.4603e-05,0
3.482,3.0884e-05,0
3.4825,2.8199e-05,0
3.483,1.326e-05,0
3.4835,-5.0355e-07,0
3.484,-6.5461e-06,0
3.4846,-1.0575e-05,0
3.4851,-1.5106e-05,0
3.4856,-1.4267e-05,0
3.4861,-1.0239e-05,0
3.4866,4.5319e-06,0
3.4872,3.3066e-05,0
3.4877,6.2608e-05,0
3.4882,8.7449e-05,0
3.4887,0.00011313,0
3.4892,0.00013613,0
3.4897,0.00013881,0
3.4903,0.00011565,0
3.4908,7.9728e-05,0
3.4913,3.6591e-05,0
3.4918,-1.8463e-06,0
3.4923,-1.6953e-05,0
3.4929,-1.8967e-05,0
3.4934,-3.1724e-05,0
3.4939,-5.7908e-05,0
3.4944,-8.8121e-05,0
3.4949,-0.00011397,0
3.4955,-0.00011632,0
3.496,-7.5364e-05,0
3.4965,-7.5532e-06,0
3.497,5.2201e-05,0
3.4975,8.1407e-05,0
3.4981,7.9057e-05,0
3.4986,6.9657e-05,0
3.4991,7.6204e-05,0
3.4996,8.7953e-05,0
3.5001,7.7546e-05,0
3.5007,4.1962e-05,0
3.5012,9.2317e-06,0
3.5017,-8.3925e-06,0
3.5022,-2.9206e-05,0
3.5027,-6.1433e-05,0
3.5032,-0.00010021,0
3.5038,-0.00013579,0
3.5043,-0.00015392,0
3.5048,-0.00014133,0
3.5053,-0.00010507,0
3.5058,-6.4958e-05,0
3.5064,-3.2059e-05,0
3.5069,-1.0407e-05,0
3.5074,1.5946e-05,0
3.5079,6.1433e-05,0
3.5084,0.00010105,0
3.509,0.0001086,0
3.5095,8.896e-05,0
3.51,7.3182e-05,0
3.5105,8.3085e-05,0
3.511,0.0001044,0
3.5116,0.00011649,0
3.5121,0.00012068,0
3.5126,0.00011783,0
3.5131,0.00010524,0
3.5136,9.2485e-05,0
3.5142,8.0735e-05,0
3.5147,6.3951e-05,0
3.5152,5.0523e-05,0
3.5157,4.6159e-05,0
3.5162,3.3402e-05,0
3.5168,5.0355e-06,0
3.5173,-3.6088e-05,0
3.5178,-9.1646e-05,0
3.5183,-0.00015174,0
3.5188,-0.00018967,0
3.5193,-0.00017943,0
3.5199,-0.00011666,0
3.5204,-3.592e-05,0
3.5209,2.8534e-05,0
3.5214,6.4286e-05,0
3.5219,6.9154e-05,0
3.5225,6.63e-05,0
3.523,7.4861e-05,0
3.5235,9.1142e-05,0
3.524,0.00010323,0
3.5245,0.00010306,0
3.5251,8.6275e-05,0
3.5256,7.0665e-05,0
3.5261,6.865e-05,0
3.5266,6.5797e-05,0
3.5271,4.448e-05,0
3.5277,1.3931e-05,0
3.5282,-8.3925e-06,0
3.5287,-1.1917e-05,0
3.5292,1.8463e-06,0
3.5297,1.7624e-05,0
3.5303,2.3835e-05,0
3.5308,2.2324e-05,0
3.5313,2.5177e-05,0
3.5318,3.8437e-05,0
3.5323,5.1194e-05,0
3.5328,4.8508e-05,0
3.5334,2.7359e-05,0
3.5339,3.6927e-06,0
3.5344,-1.0071e-06,0
3.5349,1.326e-05,0
3.5354,2.6688e-05,0
3.536,3.4073e-05,0
3.5365,3.357e-05,0
3.537,1.796e-05,0
3.5375,-5.539e-06,0
3.538,-1.796e-05,0
3.5386,-1.3428e-05,0
3.5391,-1.6785e-07,0
3.5396,2.0645e-05,0
3.5401,4.1794e-05,0
3.5406,4.9348e-05,0
3.5412,3.7263e-05,0
3.5417,1.6449e-05,0
3.5422,4.5319e-06,0
3.5427,4.1962e-06,0
3.5432,-1.5106e-06,0
3.5438,-1.8296e-05,0
3.5443,-3.2731e-05,0
3.5448,-3.2395e-05,0
3.5453,-8.3925e-06,0
3.5458,3.1891e-05,0
3.5463,6.5965e-05,0
3.5469,9.3324e-05,0
3.5474,0.00013277,0
3.5479,0.00017121,0
3.5484,0.00018849,0
3.5489,0.00018413,0
3.5495,0.00016634,0
3.55,0.00013512,0
3.5505,9.5506e-05,0
3.551,5.3376e-05,0
3.5515,8.7282e-06,0
3.5521,-3.4409e-05,0
3.5526,-6.8482e-05,0
3.5531,-8.2078e-05,0
3.5536,-6.8986e-05,0
3.5541,-4.3473e-05,0
3.5547,-2.0645e-05,0
3.5552,-1.5106e-05,0
3.5557,-3.7766e-05,0
3.5562,-7.4357e-05,0
3.5567,-9.8527e-05,0
3.5572,-9.4163e-05,0
3.5578,-6.4958e-05,0
3.5583,-3.1052e-05,0
3.5588,-7.8889e-06,0
3.5593,3.1891e-06,0
3.5598,1.1917e-05,0
3.5604,2.2995e-05,0
3.5609,2.9038e-05,0
3.5614,2.7192e-05,0
3.5619,3.0549e-05,0
3.5624,5.0187e-05,0
3.563,7.5532e-05,0
3.5635,8.3589e-05,0
3.564,7.0832e-05,0
3.5645,5.5558e-05,0
3.565,3.9109e-05,0
3.5656,5.2033e-06,0
3.5661,-3.827e-05,0
3.5666,-5.9586e-05,0
3.5671,-4.5991e-05,0
3.5676,-5.539e-06,0
3.5682,3.3066e-05,0
3.5687,3.1388e-05,0
3.5692,-1.5106e-06,0
3.5697,-2.7695e-05,0
3.5702,-3.6423e-05,0
3.5707,-3.2731e-05,0
3.5713,-2.3835e-05,0
3.5718,-1.9806e-05,0
3.5723,-2.1485e-05,0
3.5728,-2.3163e-05,0
3.5733,-2.7024e-05,0
3.5739,-2.7695e-05,0
3.5744,-2.417e-05,0
3.5749,-1.9806e-05,0
3.5754,-1.7288e-05,0
3.5759,-1.1917e-05,0
3.5765,1.8463e-06,0
3.577,1.9303e-05,0
3.5775,2.8367e-05,0
3.578,2.6688e-05,0
3.5785,2.7863e-05,0
3.5791,4.2466e-05,0
3.5796,6.7643e-05,0
3.5801,9.4835e-05,0
3.5806,0.00011632,0
3.5811,0.00012068,0
3.5817,0.000118,0
3.5822,0.00011934,0
3.5827,0.00011128,0
3.5832,7.9728e-05,0
3.5837,3.8437e-05,0
3.5842,7.5532e-06,0
3.5848,-7.8889e-06,0
3.5853,-1.4939e-05,0
3.5858,-2.1988e-05,0
3.5863,-2.9541e-05,0
3.5868,-2.4338e-05,0
3.5874,-7.2175e-06,0
3.5879,9.2317e-06,0
3.5884,1.8967e-05,0
3.5889,2.2324e-05,0
3.5894,6.5461e-06,0
3.59,-1.8296e-05,0
3.5905,-3.0716e-05,0
3.591,-2.031e-05,0
3.5915,-2.8534e-06,0
3.592,6.2104e-06,0
3.5926,8.2246e-06,0
3.5931,1.2421e-05,0
3.5936,2.0981e-05,0
3.5941,3.1724e-05,0
3.5946,4.683e-05,0
3.5952,7.57e-05,0
3.5957,0.00010373,0
3.5962,0.00011783,0
3.5967,0.00012471,0
3.5972,0.00012337,0
3.5978,0.00010491,0
3.5983,7.9057e-05,0
3.5988,6.3111e-05,0
3.5993,5.6901e-05,0
3.5998,5.0019e-05,0
3.6003,3.8773e-05,0
3.6009,2.3331e-05,0
3.6014,5.8747e-06,0
3.6019,-8.0568e-06,0
3.6024,-9.5674e-06,0
3.6029,-1.0071e-06,0
3.6035,8.5603e-06,0
3.604,1.8463e-05,0
3.6045,3.0549e-05,0
3.605,4.213e-05,0
3.6055,5.0187e-05,0
3.6061,5.0019e-05,0
3.6066,3.827e-05,0
3.6071,2.6017e-05,0
3.6076,2.2828e-05,0
3.6081,2.9709e-05,0
3.6087,3.8773e-05,0
3.6092,4.5151e-05,0
3.6097,5.3544e-05,0
3.6102,7.2007e-05,0
3.6107,8.5771e-05,0
3.6113,7.2007e-05,0
3.6118,3.3402e-05,0
3.6123,1.0071e-06,0
3.6128,-5.2033e-06,0
3.6133,7.5532e-06,0
3.6138,1.796e-05,0
3.6144,-1.1917e-05,0
3.6149,-8.9464e-05,0
3.6154,-0.00017003,0
3.6159,-0.00020948,0
3.6164,-0.00020427,0
3.617,-0.00017943,0
3.6175,-0.00015023,0
3.618,-0.00011514,0
3.6185,-7.6707e-05,0
3.619,-2.7192e-05,0
3.6196,3.1556e-05,0
3.6201,8.3757e-05,0
3.6206,0.00012136,0
3.6211,0.00013529,0
3.6216,0.00012471,0
3.6222,0.00010222,0
3.6227,7.8218e-05,0
3.6232,5.4047e-05,0
3.6237,3.2731e-05,0
3.6242,1.2421e-05,0
3.6248,-4.3641e-06,0
3.6253,-2.1653e-05,0
3.6258,-3.592e-05,0
3.6263,-3.7766e-05,0
3.6268,-2.7359e-05,0
3.6273,-1.4939e-05,0
3.6279,-7.5532e-06,0
3.6284,-2.182e-06,0
3.6289,1.4939e-05,0
3.6294,4.9516e-05,0
3.6299,7.6875e-05,0
3.6305,7.0329e-05,0
3.631,4.0116e-05,0
3.6315,2.2492e-05,0
3.632,2.8031e-05,0
3.6325,4.0116e-05,0
3.6331,4.3473e-05,0
3.6336,4.5655e-05,0
3.6341,6.7979e-05,0
3.6346,9.6513e-05,0
3.6351,9.9702e-05,0
3.6357,8.3421e-05,0
3.6362,6.4958e-05,0
3.6367,4.6159e-05,0
3.6372,2.3331e-05,0
3.6377,-8.5603e-06,0
3.6383,-3.9445e-05,0
3.6388,-5.5558e-05,0
3.6393,-5.3544e-05,0
3.6398,-3.7263e-05,0
3.6403,-1.3596e-05,0
3.6408,4.5319e-06,0
3.6414,9.2317e-06,0
3.6419,1.326e-05,0
3.6424,3.1388e-05,0
3.6429,7.6036e-05,0
3.6434,0.00013764,0
3.644,0.00017893,0
3.6445,0.00018379,0
3.645,0.0001801,0
3.6455,0.00019454,0
3.646,0.0002271,0
3.6466,0.00024523,0
3.6471,0.00022257,0
3.6476,0.00016835,0
3.6481,0.00010709,0
3.6486,4.6159e-05,0
3.6492,-1.7288e-05,0
3.6497,-8.1071e-05,0
3.6502,-0.00013243,0
3.6507,-0.00016902,0
3.6512,-0.00020478,0
3.6517,-0.00024741,0
3.6523,-0.00026973,0
3.6528,-0.00023667,0
3.6533,-0.00015207,0
3.6538,-5.9419e-05,0
3.6543,6.3783e-06,0
3.6549,4.4312e-05,0
3.6554,6.5629e-05,0
3.6559,7.4861e-05,0
3.6564,6.7643e-05,0
3.6569,3.1388e-05,0
3.6575,-2.4338e-05,0
3.658,-6.3111e-05,0
3.6585,-6.4286e-05,0
3.659,-4.4312e-05,0
3.6595,-2.0645e-05,0
3.6601,3.1891e-06,0
3.6606,2.4002e-05,0
3.6611,3.9948e-05,0
3.6616,4.4816e-05,0
3.6621,4.3473e-05,0
3.6627,5.0019e-05,0
3.6632,7.8218e-05,0
3.6637,0.00013462,0
3.6642,0.00020897,0
3.6647,0.00025362,0
3.6652,0.00022878,0
3.6658,0.00014133,0
3.6663,3.6591e-05,0
3.6668,-4.1962e-05,0
3.6673,-7.3014e-05,0
3.6678,-6.7811e-05,0
3.6684,-5.7908e-05,0
3.6689,-5.8579e-05,0
3.6694,-6.2104e-05,0
3.6699,-6.2943e-05,0
3.6704,-6.3783e-05,0
3.671,-6.6804e-05,0
3.6715,-6.4454e-05,0
3.672,-5.153e-05,0
3.6725,-2.8367e-05,0
3.673,4.3641e-06,0
3.6736,2.417e-05,0
3.6741,1.5778e-05,0
3.6746,1.1749e-06,0
3.6751,-1.0071e-06,0
3.6756,6.5461e-06,0
3.6762,1.9974e-05,0
3.6767,3.9612e-05,0
3.6772,5.7908e-05,0
3.6777,6.4286e-05,0
3.6782,5.7572e-05,0
3.6787,4.6494e-05,0
3.6793,3.0549e-05,0
3.6798,4.8676e-06,0
3.6803,-2.7527e-05,0
3.6808,-5.5055e-05,0
3.6813,-5.388e-05,0
3.6819,-1.7288e-05,0
3.6824,3.508e-05,0
3.6829,7.5029e-05,0
3.6834,8.4428e-05,0
3.6839,7.2679e-05,0
3.6845,5.623e-05,0
3.685,4.0787e-05,0
3.6855,2.6688e-05,0
3.686,1.9638e-05,0
3.6865,2.3331e-05,0
3.6871,2.8031e-05,0
3.6876,3.3066e-05,0
3.6881,4.7333e-05,0
3.6886,7.0329e-05,0
3.6891,9.6849e-05,0
3.6897,0.00012169,0
3.6902,0.00014015,0
3.6907,0.00014888,0
3.6912,0.00014116,0
3.6917,0.00011498,0
3.6923,8.2414e-05,0
3.6928,5.6565e-05,0
3.6933,4.1794e-05,0
3.6938,3.2731e-05,0
3.6943,2.8031e-05,0
3.6948,2.7024e-05,0
3.6954,1.9638e-05,0
3.6959,2.8534e-06,0
3.6964,-1.561e-05,0
3.6969,-2.6352e-05,0
3.6974,-3.0045e-05,0
3.698,-2.8199e-05,0
3.6985,-2.1653e-05,0
3.699,-8.3925e-06,0
3.6995,6.714e-07,0
3.7,-1.5106e-06,0
3.7006,-1.6785e-06,0
3.7011,7.0497e-06,0
3.7016,1.091e-05,0
3.7021,-3.8605e-06,0
3.7026,-2.3163e-05,0
3.7032,-2.8367e-05,0
3.7037,-2.501e-05,0
3.7042,-2.4002e-05,0
3.7047,-1.8967e-05,0
3.7052,-4.6998e-06,0
3.7058,1.0575e-05,0
3.7063,1.9806e-05,0
3.7068,2.0813e-05,0
3.7073,1.326e-05,0
3.7078,-6.8818e-06,0
3.7083,-3.592e-05,0
3.7089,-5.5558e-05,0
3.7094,-5.304e-05,0
3.7099,-3.743e-05,0
3.7104,-2.0981e-05,0
3.7109,-1.2085e-05,0
3.7115,-7.2175e-06,0
3.712,5.2033e-06,0
3.7125,3.0045e-05,0
3.713,6.1265e-05,0
3.7135,8.8457e-05,0
3.7141,0.00011162,0
3.7146,0.0001321,0
3.7151,0.00014452,0
3.7156,0.00013663,0
3.7161,0.00010625,0
3.7167,6.5461e-05,0
3.7172,3.2059e-05,0
3.7177,1.4939e-05,0
3.7182,3.5248e-06,0
3.7187,-1.9471e-05,0
3.7193,-4.7837e-05,0
3.7198,-7.3014e-05,0
3.7203,-8.6946e-05,0
3.7208,-8.1407e-05,0
3.7213,-6.6804e-05,0
3.7218,-5.4047e-05,0
3.7224,-4.0116e-05,0
3.7229,-2.7695e-05,0
3.7234,-2.7695e-05,0
3.7239,-2.7695e-05,0
3.7244,-1.5274e-05,0
3.725,3.0213e-06,0
3.7255,2.266e-05,0
3.726,5.1698e-05,0
3.7265,9.3492e-05,0
3.727,0.00012438,0
3.7276,0.00011632,0
3.7281,7.2679e-05,0
3.7286,2.9374e-05,0
3.7291,8.5603e-06,0
3.7296,9.0639e-06,0
3.7302,1.3764e-05,0
3.7307,3.1891e-06,0
3.7312,-1.9974e-05,0
3.7317,-3.4577e-05,0
3.7322,-3.9109e-05,0
3.7327,-4.5991e-05,0
3.7333,-4.5319e-05,0
3.7338,-2.5849e-05,0
3.7343,4.5319e-06,0
3.7348,2.5345e-05,0
3.7353,2.266e-05,0
3.7359,5.0355e-06,0
3.7364,-1.1414e-05,0
3.7369,-1.2924e-05,0
3.7374,9.2317e-06,0
3.7379,5.7237e-05,0
3.7385,0.00012287,0
3.739,0.00018044,0
3.7395,0.0002031,0
3.74,0.00019118,0
3.7405,0.00016265,0
3.7411,0.00012471,0
3.7416,8.1743e-05,0
3.7421,3.827e-05,0
3.7426,-5.2033e-06,0
3.7431,-4.2802e-05,0
3.7437,-6.5293e-05,0
3.7442,-6.1601e-05,0
3.7447,-3.3738e-05,0
3.7452,9.2317e-06,0
3.7457,5.8915e-05,0
3.7462,9.4163e-05,0
3.7468,9.8527e-05,0
3.7473,8.1743e-05,0
3.7478,6.1601e-05,0
3.7483,4.5991e-05,0
3.7488,3.8102e-05,0
3.7494,3.5416e-05,0
3.7499,3.1052e-05,0
3.7504,2.1317e-05,0
3.7509,2.182e-06,0
3.7514,-2.031e-05,0
3.752,-2.9709e-05,0
3.7525,-2.3835e-05,0
3.753,-1.9135e-05,0
3.7535,-3.0884e-05,0
3.754,-4.9516e-05,0
3.7546,-5.388e-05,0
3.7551,-3.9445e-05,0
3.7556,-1.9135e-05,0
3.7561,-4.0284e-06,0
3.7566,1.1749e-05,0
3.7572,3.4073e-05,0
3.7577,5.0187e-05,0
3.7582,5.4887e-05,0
3.7587,5.7237e-05,0
3.7592,5.8579e-05,0
3.7597,5.4215e-05,0
3.7603,4.9683e-05,0
3.7608,6.1936e-05,0
3.7613,9.2821e-05,0
3.7618,0.00013143,0
3.7623,0.00016751,0
3.7629,0.00018497,0
3.7634,0.00017758,0
3.7639,0.00014284,0
3.7644,8.4932e-05,0
3.7649,1.7792e-05,0
3.7655,-4.3473e-05,0
3.766,-9.7688e-05,0
3.7665,-0.00014385,0
3.767,-0.00018564,0
3.7675,-0.00022374,0
3.7681,-0.00024858,0
3.7686,-0.00023247,0
3.7691,-0.00015375,0
3.7696,-4.7501e-05,0
3.7701,4.5991e-05,0
3.7707,0.00013646,0
3.7712,0.00022676,0
3.7717,0.00028165,0
3.7722,0.0002788,0
3.7727,0.00023449,0
3.7732,0.00017053,0
3.7738,0.00010423,0
3.7743,5.3544e-05,0
3.7748,2.7695e-05,0
3.7753,4.3641e-06,0
3.7758,-3.7263e-05,0
3.7764,-8.4932e-05,0
3.7769,-0.00012924,0
3.7774,-0.00017708,0
3.7779,-0.00021636,0
3.7784,-0.00023616,0
3.779,-0.00024002,0
3.7795,-0.00023163,0
3.78,-0.00020629,0
3.7805,-0.00016248,0
3.781,-0.00010944,0
3.7816,-5.1194e-05,0
3.7821,2.8534e-06,0
3.7826,4.1291e-05,0
3.7831,6.4622e-05,0
3.7836,8.04e-05,0
3.7842,8.0568e-05,0
3.7847,5.4887e-05,0
3.7852,2.887e-05,0
3.7857,4.0116e-05,0
3.7862,8.9464e-05,0
3.7868,0.00016046,0
3.7873,0.00023046,0
3.7878,0.0002647,0
3.7883,0.00026789,0
3.7888,0.00025765,0
3.7893,0.00022593,0
3.7899,0.00017154,0
3.7904,0.00011397,0
3.7909,6.4622e-05,0
3.7914,1.8967e-05,0
3.7919,-3.2395e-05,0
3.7925,-7.4525e-05,0
3.793,-9.6681e-05,0
3.7935,-0.00010877,0
3.794,-0.00011867,0
3.7945,-0.00011565,0
3.7951,-8.9632e-05,0
3.7956,-4.9516e-05,0
3.7961,-8.896e-06,0
3.7966,2.1653e-05,0
3.7971,4.0787e-05,0
3.7977,5.4887e-05,0
3.7982,6.4118e-05,0
3.7987,6.7643e-05,0
3.7992,6.3783e-05,0
3.7997,4.8173e-05,0
3.8003,2.9038e-05,0
3.8008,1.2757e-05,0
3.8013,-1.091e-05,0
3.8018,-5.5222e-05,0
3.8023,-0.00010222,0
3.8028,-0.00012673,0
3.8034,-0.00012622,0
3.8039,-0.00010759,0
3.8044,-7.7882e-05,0
3.8049,-4.3641e-05,0
3.8054,-5.0355e-07,0
3.806,4.7333e-05,0
3.8065,8.0735e-05,0
3.807,9.0639e-05,0
3.8075,9.1814e-05,0
3.808,0.00010021,0
3.8086,0.000118,0
3.8091,0.00013613,0
3.8096,0.00014452,0
3.8101,0.00015023,0
3.8106,0.00016197,0
3.8112,0.00016298,0
3.8117,0.00014032,0
3.8122,0.00010692,0
3.8127,8.426e-05,0
3.8132,8.3085e-05,0
3.8138,9.5842e-05,0
3.8143,9.5171e-05,0
3.8148,6.6133e-05,0
3.8153,2.9374e-05,0
3.8158,9.7353e-06,0
3.8163,-8.3925e-07,0
3.8169,-1.2757e-05,0
3.8174,-6.0426e-06,0
3.8179,3.2395e-05,0
3.8184,7.1504e-05,0
3.8189,8.6778e-05,0
3.8195,6.1936e-05,0
3.82,-6.8818e-06,0
3.8205,-8.9632e-05,0
3.821,-0.00015341,0
3.8215,-0.00017977,0
3.8221,-0.00015157,0
3.8226,-7.7379e-05,0
3.8231,-8.5603e-06,0
3.8236,2.182e-05,0
3.8241,3.7766e-05,0
3.8247,5.9251e-05,0
3.8252,7.5364e-05,0
3.8257,8.191e-05,0
3.8262,8.5771e-05,0
3.8267,7.0497e-05,0
3.8272,1.7121e-05,0
3.8278,-5.5558e-05,0
3.8283,-0.00011162,0
3.8288,-0.00013445,0
3.8293,-0.00012605,0
3.8298,-0.00010105,0
3.8304,-7.6371e-05,0
3.8309,-6.2104e-05,0
3.8314,-6.1265e-05,0
3.8319,-7.1336e-05,0
3.8324,-6.3279e-05,0
3.833,-1.3596e-05,0
3.8335,5.388e-05,0
3.834,9.2821e-05,0
3.8345,9.1478e-05,0
3.835,8.1071e-05,0
3.8356,9.3324e-05,0
3.8361,0.00012605,0
3.8366,0.00015258,0
3.8371,0.00013915,0
3.8376,8.3757e-05,0
3.8382,5.2033e-06,0
3.8387,-6.6972e-05,0
3.8392,-9.8863e-05,0
3.8397,-7.4525e-05,0
3.8402,-1.5442e-05,0
3.8407,4.2802e-05,0
3.8413,6.0426e-05,0
3.8418,3.3234e-05,0
3.8423,0,0
3.8428,-1.4603e-05,0
3.8433,-1.9806e-05,0
3.8439,-2.4338e-05,0
3.8444,-2.8031e-05,0
3.8449,-4.4144e-05,0
3.8454,-7.0832e-05,0
3.8459,-6.479e-05,0
3.8465,-4.1962e-06,0
3.847,8.5771e-05,0
3.8475,0.00016567,0
3.848,0.00021938,0
3.8485,0.00025194,0
3.8491,0.00026705,0
3.8496,0.00025832,0
3.8501,0.00022206,0
3.8506,0.00016432,0
3.8511,9.0303e-05,0
3.8517,1.5274e-05,0
3.8522,-5.2369e-05,0
3.8527,-0.00010323,0
3.8532,-0.00012001,0
3.8537,-9.1142e-05,0
3.8542,-2.182e-05,0
3.8548,6.5461e-05,0
3.8553,0.00013948,0
3.8558,0.00018782,0
3.8563,0.00020645,0
3.8568,0.00018514,0
3.8574,0.00013613,0
3.8579,7.1504e-05,0
3.8584,3.357e-06,0
3.8589,-5.9419e-05,0
3.8594,-0.00011632,0
3.86,-0.00016466,0
3.8605,-0.00019521,0
3.861,-0.0001989,0
3.8615,-0.00017876,0
3.862,-0.00015123,0
3.8626,-0.00014166,0
3.8631,-0.00016013,0
3.8636,-0.00017288,0
3.8641,-0.00014334,0
3.8646,-8.2078e-05,0
3.8652,-2.6688e-05,0
3.8657,-1.3428e-06,0
3.8662,1.3596e-05,0
3.8667,5.1026e-05,0
3.8672,0.0001039,0
3.8678,0.000142,0
3.8683,0.00015006,0
3.8688,0.00013646,0
3.8693,0.00013411,0
3.8698,0.00016953,0
3.8703,0.00022257,0
3.8709,0.0002501,0
3.8714,0.00024556,0
3.8719,0.0002172,0
3.8724,0.00016617,0
3.8729,0.00010994,0
3.8735,8.0735e-05,0
3.874,7.4022e-05,0
3.8745,7.1e-05,0
3.875,5.4215e-05,0
3.8755,2.7192e-05,0
3.8761,1.0071e-05,0
3.8766,-6.2104e-06,0
3.8771,-3.743e-05,0
3.8776,-6.1936e-05,0
3.8781,-6.0426e-05,0
3.8787,-5.0858e-05,0
3.8792,-5.4887e-05,0
3.8797,-5.774e-05,0
3.8802,-4.5487e-05,0
3.8807,-5.8076e-05,0
3.8813,-0.00011112,0
3.8818,-0.00015627,0
3.8823,-0.00016349,0
3.8828,-0.00014166,0
3.8833,-0.00010457,0
3.8838,-5.1362e-05,0
3.8844,-1.1749e-05,0
3.8849,-1.8463e-05,0
3.8854,-3.7766e-05,0
3.8859,-1.6953e-05,0
3.8864,4.1962e-05,0
3.887,9.6513e-05,0
3.8875,0.00010726,0
3.888,7.0161e-05,0
3.8885,-5.539e-06,0
3.889,-8.0064e-05,0
3.8896,-9.7017e-05,0
3.8901,-4.0955e-05,0
3.8906,6.9657e-05,0
3.8911,0.00019185,0
3.8916,0.00027175,0
3.8922,0.00028232,0
3.8927,0.00023868,0
3.8932,0.0001796,0
3.8937,0.00013915,0
3.8942,0.00011951,0
3.8948,9.2821e-05,0
3.8953,4.7669e-05,0
3.8958,-4.8676e-06,0
3.8963,-6.0594e-05,0
3.8968,-0.00013176,0
3.8973,-0.00020713,0
3.8979,-0.00024556,0
3.8984,-0.00023113,0
3.8989,-0.00018816,0
3.8994,-0.00014704,0
3.8999,-0.00012874,0
3.9005,-0.00013445,0
3.901,-0.00014469,0
3.9015,-0.00013663,0
3.902,-0.00010423,0
3.9025,-6.4118e-05,0
3.9031,-2.9877e-05,0
3.9036,-6.0426e-06,0
3.9041,7.8889e-06,0
3.9046,1.5946e-05,0
3.9051,2.9877e-05,0
3.9057,5.069e-05,0
3.9062,6.5629e-05,0
3.9067,7.2343e-05,0
3.9072,7.2007e-05,0
3.9077,6.5461e-05,0
3.9082,6.0761e-05,0
3.9088,6.6468e-05,0
3.9093,8.2078e-05,0
3.9098,9.752e-05,0
3.9103,9.7856e-05,0
3.9108,8.1743e-05,0
3.9114,6.4958e-05,0
3.9119,6.1601e-05,0
3.9124,7.1336e-05,0
3.9129,8.6442e-05,0
3.9134,0.00010625,0
3.914,0.00012589,0
3.9145,0.00014351,0
3.915,0.00015962,0
3.9155,0.00016097,0
3.916,0.00013613,0
3.9166,8.6778e-05,0
3.9171,3.5584e-05,0
3.9176,4.5319e-06,0
3.9181,-3.8605e-06,0
3.9186,1.1749e-06,0
3.9192,8.896e-06,0
3.9197,2.4506e-05,0
3.9202,5.9586e-05,0
3.9207,9.8863e-05,0
3.9212,0.00011598,0
3.9217,0.00010793,0
3.9223,8.6778e-05,0
3.9228,6.7643e-05,0
3.9233,6.2943e-05,0
3.9238,7.3854e-05,0
3.9243,8.04e-05,0
3.9249,6.6133e-05,0
3.9254,3.743e-05,0
3.9259,1.5274e-05,0
3.9264,1.7288e-05,0
3.9269,3.1891e-05,0
3.9275,3.743e-05,0
3.928,2.4338e-05,0
3.9285,-8.7282e-06,0
3.929,-5.2033e-05,0
3.9295,-9.4835e-05,0
3.9301,-0.0001284,0
3.9306,-0.00014066,0
3.9311,-0.00012572,0
3.9316,-8.9967e-05,0
3.9321,-3.8102e-05,0
3.9327,2.266e-05,0
3.9332,7.3518e-05,0
3.9337,9.0303e-05,0
3.9342,7.5029e-05,0
3.9347,4.5487e-05,0
3.9352,1.326e-05,0
3.9358,-9.5674e-06,0
3.9363,-7.5532e-06,0
3.9368,2.8702e-05,0
3.9373,7.7714e-05,0
3.9378,0.00010994,0
3.9384,0.00011431,0
3.9389,0.00010188,0
3.9394,9.1142e-05,0
3.9399,9.7185e-05,0
3.9404,0.00011716,0
3.941,0.00013613,0
3.9415,0.00014989,0
3.942,0.0001514,0
3.9425,0.00012337,0
3.943,6.1265e-05,0
3.9436,-3.1724e-05,0
3.9441,-0.0001378,0
3.9446,-0.00021938,0
3.9451,-0.00025278,0
3.9456,-0.00024993,0
3.9462,-0.000236,0
3.9467,-0.00021703,0
3.9472,-0.00019252,0
3.9477,-0.00016265,0
3.9482,-0.00010272,0
3.9487,1.6617e-05,0
3.9493,0.00013848,0
3.9498,0.00018782,0
3.9503,0.00018027,0
3.9508,0.00016416,0
3.9513,0.00014536,0
3.9519,0.00011901,0
3.9524,7.57e-05,0
3.9529,2.2492e-05,0
3.9534,-8.2246e-06,0
3.9539,-1.6114e-05,0
3.9545,-2.5177e-05,0
3.955,-3.6255e-05,0
3.9555,-3.6591e-05,0
3.956,-1.6449e-05,0
3.9565,2.182e-05,0
3.9571,5.0523e-05,0
3.9576,5.4719e-05,0
3.9581,4.683e-05,0
3.9586,2.4674e-05,0
3.9591,-1.326e-05,0
3.9597,-5.2873e-05,0
3.9602,-8.275e-05,0
3.9607,-9.0639e-05,0
3.9612,-7.805e-05,0
3.9617,-5.6901e-05,0
3.9623,-3.3738e-05,0
3.9628,-5.0355e-07,0
3.9633,4.3809e-05,0
3.9638,6.7475e-05,0
3.9643,4.213e-05,0
3.9648,2.5177e-06,0
3.9654,1.3092e-05,0
3.9659,6.6468e-05,0
3.9664,9.2821e-05,0
3.9669,6.2943e-05,0
3.9674,2.2324e-05,0
3.968,2.3331e-05,0
3.9685,4.5991e-05,0
3.969,4.683e-05,0
3.9695,1.5274e-05,0
3.97,-3.122e-05,0
3.9706,-6.949e-05,0
3.9711,-8.5435e-05,0
3.9716,-7.9393e-05,0
3.9721,-6.1936e-05,0
3.9726,-4.0452e-05,0
3.9732,-1.4939e-05,0
3.9737,1.1078e-05,0
3.9742,3.2563e-05,0
3.9747,4.213e-05,0
3.9752,4.213e-05,0
3.9758,4.0116e-05,0
3.9763,4.6326e-05,0
3.9768,5.9251e-05,0
3.9773,6.7811e-05,0
3.9778,6.8986e-05,0
3.9783,7.2343e-05,0
3.9789,7.6204e-05,0
3.9794,7.6371e-05,0
3.9799,8.0735e-05,0
3.9804,7.7714e-05,0
3.9809,5.7237e-05,0
3.9815,4.4144e-05,0
3.982,6.3951e-05,0
3.9825,0.00010054,0
3.983,0.00011833,0
3.9835,0.00010793,0
3.9841,9.4499e-05,0
3.9846,9.4835e-05,0
3.9851,0.00010524,0
3.9856,0.00012471,0
3.9861,0.0001519,0
3.9867,0.00017171,0
3.9872,0.00017809,0
3.9877,0.00018883,0
3.9882,0.00021166,0
3.9887,0.00022609,0
3.9893,0.00021132,0
3.9898,0.00016365,0
3.9903,0.00010524,0
3.9908,6.009e-05,0
3.9913,2.2156e-05,0
3.9918,-1.796e-05,0
3.9924,-4.5151e-05,0
3.9929,-5.774e-05,0
3.9934,-8.6107e-05,0
3.9939,-0.00014099,0
3.9944,-0.00019101,0
3.995,-0.00020797,0
3.9955,-0.00018984,0
3.996,-0.0001566,0
3.9965,-0.00012824,0
3.997,-0.0001133,0
3.9976,-0.00011162,0
3.9981,-0.0001133,0
3.9986,-0.00010121,0
3.9991,-6.7979e-05,0
3.9996,-2.3331e-05,0
4.0002,1.0575e-05,0
4.0007,1.9806e-05,0
4.0012,1.4603e-05,0
4.0017,1.2589e-05,0
4.0022,1.4267e-05,0
4.0027,1.6785e-05,0
4.0033,1.6617e-05,0
4.0038,5.539e-06,0
4.0043,-1.091e-05,0
4.0048,-2.5681e-05,0
4.0053,-4.3473e-05,0
4.0059,-6.1601e-05,0
4.0064,-7.2007e-05,0
4.0069,-7.3014e-05,0
4.0074,-5.9419e-05,0
4.0079,-4.0452e-05,0
4.0085,-3.6759e-05,0
4.009,-3.3738e-05,0
4.0095,-8.2246e-06,0
4.01,3.4409e-05,0
4.0105,6.9322e-05,0
4.0111,9.752e-05,0
4.0116,0.00012404,0
4.0121,0.00015459,0
4.0126,0.00018648,0
4.0131,0.00022274,0
4.0137,0.0002454,0
4.0142,0.00022878,0
4.0147,0.00019454,0
4.0152,0.00017842,0
4.0157,0.00018077,0
4.0163,0.00019387,0
4.0168,0.00019521,0
4.0173,0.00016231,0
4.0178,0.00010692,0
4.0183,3.3402e-05,0
4.0188,-5.3712e-05,0
4.0194,-0.00011531,0
4.0199,-0.00012203,0
4.0204,-9.9031e-05,0
4.0209,-9.8527e-05,0
4.0214,-0.00013881,0
4.022,-0.00018849,0
4.0225,-0.00021753,0
4.023,-0.00021653,0
4.0235,-0.00018547,0
4.024,-0.0001368,0
4.0246,-7.57e-05,0
4.0251,-2.0478e-05,0
4.0256,2.1988e-05,0
4.0261,6.949e-05,0
4.0266,0.00011196,0
4.0272,0.00012807,0
4.0277,0.00012018,0
4.0282,0.00010927,0
4.0287,0.00010927,0
4.0292,0.00010759,0
4.0297,9.5171e-05,0
4.0303,9.3492e-05,0
4.0308,0.00010524,0
4.0313,9.7185e-05,0
4.0318,3.8102e-05,0
4.0323,-5.9922e-05,0
4.0329,-0.00014519,0
4.0334,-0.0001843,0
4.0339,-0.00017607,0
4.0344,-0.00013915,0
4.0349,-9.2485e-05,0
4.0355,-4.4144e-05,0
4.036,3.8605e-06,0
4.0365,4.5151e-05,0
4.037,7.3518e-05,0
4.0375,7.9896e-05,0
4.0381,6.5126e-05,0
4.0386,4.1123e-05,0
4.0391,3.5416e-05,0
4.0396,5.6565e-05,0
4.0401,8.2078e-05,0
4.0407,0.00010222,0
4.0412,0.00012404,0
4.0417,0.00014553,0
4.0422,0.00014519,0
4.0427,0.00010927,0
4.0432,5.0355e-05,0
4.0438,-4.1962e-06,0
4.0443,-4.0116e-05,0
4.0448,-7.2343e-05,0
4.0453,-0.00011431,0
4.0458,-0.00014855,0
4.0464,-0.00014318,0
4.0469,-8.3757e-05,0
4.0474,-2.0142e-06,0
4.0479,5.8579e-05,0
4.0484,7.8386e-05,0
4.049,6.0929e-05,0
4.0495,3.0045e-05,0
4.05,9.9031e-06,0
4.0505,9.5674e-06,0
4.051,1.4939e-05,0
4.0516,2.3667e-05,0
4.0521,5.1865e-05,0
4.0526,0.00010088,0
4.0531,0.00014636,0
4.0536,0.00017876,0
4.0542,0.00020175,0
4.0547,0.00022441,0
4.0552,0.00025832,0
4.0557,0.0002788,0
4.0562,0.00026285,0
4.0568,0.00020108,0
4.0573,9.3156e-05,0
4.0578,-2.7863e-05,0
4.0583,-0.00011397,0
4.0588,-0.00015106,0
4.0593,-0.00016097,0
4.0599,-0.00016835,0
4.0604,-0.00018564,0
4.0609,-0.00019739,0
4.0614,-0.00017809,0
4.0619,-0.00013344,0
4.0625,-8.8624e-05,0
4.063,-6.0426e-05,0
4.0635,-5.0858e-05,0
4.064,-5.388e-05,0
4.0645,-5.6565e-05,0
4.0651,-4.6662e-05,0
4.0656,-2.7024e-05,0
4.0661,-5.539e-06,0
4.0666,1.8631e-05,0
4.0671,5.7572e-05,0
4.0677,0.00010793,0
4.0682,0.0001415,0
4.0687,0.00015392,0
4.0692,0.00016516,0
4.0697,0.00017641,0
4.0702,0.00018363,0
4.0708,0.0001754,0
4.0713,0.00014687,0
4.0718,0.00010188,0
4.0723,3.5752e-05,0
4.0728,-3.1724e-05,0
4.0734,-7.1336e-05,0
4.0739,-8.4428e-05,0
4.0744,-8.5603e-05,0
4.0749,-7.6036e-05,0
4.0754,-4.6662e-05,0
4.076,-2.0142e-06,0
4.0765,4.1962e-05,0
4.077,6.0761e-05,0
4.0775,4.7837e-05,0
4.078,1.8463e-05,0
4.0786,-4.8676e-06,0
4.0791,-9.9031e-06,0
4.0796,3.1891e-06,0
4.0801,3.2059e-05,0
4.0806,8.3757e-05,0
4.0812,0.00013982,0
4.0817,0.00016013,0
4.0822,0.00013663,0
4.0827,9.8527e-05,0
4.0832,5.623e-05,0
4.0838,-9.9031e-06,0
4.0843,-9.2317e-05,0
4.0848,-0.00015157,0
4.0853,-0.00016298,0
4.0858,-0.00013411,0
4.0863,-9.0303e-05,0
4.0869,-5.5726e-05,0
4.0874,-4.5823e-05,0
4.0879,-5.8747e-05,0
4.0884,-6.9993e-05,0
4.0889,-5.2873e-05,0
4.0895,-1.1414e-05,0
4.09,2.2828e-05,0
4.0905,3.4073e-05,0
4.091,2.9374e-05,0
4.0915,2.4002e-05,0
4.0921,3.2059e-05,0
4.0926,6.2776e-05,0
4.0931,0.00010457,0
4.0936,0.00014217,0
4.0941,0.00017372,0
4.0947,0.00019303,0
4.0952,0.00019319,0
4.0957,0.00017675,0
4.0962,0.00014653,0
4.0967,0.00010625,0
4.0972,6.479e-05,0
4.0978,3.0381e-05,0
4.0983,1.5106e-06,0
4.0988,-1.6617e-05,0
4.0993,-2.031e-05,0
4.0998,-1.7121e-05,0
4.1004,-1.5442e-05,0
4.1009,-9.7353e-06,0
4.1014,5.2033e-06,0
4.1019,1.6617e-05,0
4.1024,8.3925e-06,0
4.103,-1.4435e-05,0
4.1035,-3.6591e-05,0
4.104,-5.5222e-05,0
4.1045,-7.5868e-05,0
4.105,-9.8192e-05,0
4.1056,-0.00012773,0
4.1061,-0.00016986,0
4.1066,-0.00020864,0
4.1071,-0.00021602,0
4.1076,-0.00019504,0
4.1082,-0.00015727,0
4.1087,-0.00010121,0
4.1092,-3.7095e-05,0
4.1097,3.9445e-05,0
4.1102,0.00012706,0
4.1108,0.00020662,0
4.1113,0.00026638,0
4.1118,0.000307,0
4.1123,0.00034426,0
4.1128,0.00037044,0
4.1133,0.00035819,0
4.1139,0.00029357,0
4.1144,0.00018027,0
4.1149,4.7333e-05,0
4.1154,-4.9012e-05,0
4.1159,-7.0832e-05,0
4.1165,-4.5655e-05,0
4.117,-2.6352e-05,0
4.1175,-2.8534e-05,0
4.118,-3.8102e-05,0
4.1185,-4.5487e-05,0
4.1191,-4.4312e-05,0
4.1196,-2.8702e-05,0
4.1201,7.0497e-06,0
4.1206,5.623e-05,0
4.1211,9.4667e-05,0
4.1217,9.1478e-05,0
4.1222,4.3305e-05,0
4.1227,-2.6017e-05,0
4.1232,-8.2078e-05,0
4.1237,-0.00010155,0
4.1242,-8.6107e-05,0
4.1248,-5.0523e-05,0
4.1253,-1.561e-05,0
4.1258,-8.896e-06,0
4.1263,-1.8967e-05,0
4.1268,-2.4674e-05,0
4.1274,-2.501e-05,0
4.1279,-2.8199e-05,0
4.1284,-4.4648e-05,0
4.1289,-7.0329e-05,0
4.1294,-9.1646e-05,0
4.13,-0.00010105,0
4.1305,-0.00010323,0
4.131,-9.601e-05,0
4.1315,-7.5868e-05,0
4.132,-4.2298e-05,0
4.1326,-5.0355e-07,0
4.1331,3.7095e-05,0
4.1336,5.5894e-05,0
4.1341,5.9586e-05,0
4.1346,6.4286e-05,0
4.1352,7.2679e-05,0
4.1357,7.5532e-05,0
4.1362,6.4958e-05,0
4.1367,4.2298e-05,0
4.1372,1.3931e-05,0
4.1377,-9.2317e-06,0
4.1383,-1.9471e-05,0
4.1388,-1.9638e-05,0
4.1393,-2.031e-05,0
4.1398,-2.2324e-05,0
4.1403,-2.0981e-05,0
4.1409,-1.1917e-05,0
4.1414,1.3764e-05,0
4.1419,5.0523e-05,0
4.1424,8.1743e-05,0
4.1429,0.00010625,0
4.1435,0.00012203,0
4.144,0.00012807,0
4.1445,0.00013545,0
4.145,0.00016902,0
4.1455,0.00022005,0
4.1461,0.00024489,0
4.1466,0.00022274,0
4.1471,0.00017272,0
4.1476,0.00011901,0
4.1481,6.8986e-05,0
4.1487,1.4267e-05,0
4.1492,-4.4144e-05,0
4.1497,-8.8457e-05,0
4.1502,-0.0001185,0
4.1507,-0.00014603,0
4.1513,-0.00015106,0
4.1518,-0.00011749,0
4.1523,-6.5293e-05,0
4.1528,-2.4842e-05,0
4.1533,-9.0639e-06,0
4.1538,-2.887e-05,0
4.1544,-9.9535e-05,0
4.1549,-0.00019219,0
4.1554,-0.00024825,0
4.1559,-0.00024237,0
4.1564,-0.00018849,0
4.157,-9.3828e-05,0
4.1575,3.1556e-05,0
4.158,0.00014955,0
4.1585,0.00023549,0
4.159,0.00029357,0
4.1596,0.00033285,0
4.1601,0.00034694,0
4.1606,0.00033419,0
4.1611,0.00032193,0
4.1616,0.00034728,0
4.1622,0.00039579,0
4.1627,0.00040385,0
4.1632,0.00033754,0
4.1637,0.00023919,0
4.1642,0.00014871,0
4.1647,7.5868e-05,0
4.1653,3.2059e-05,0
4.1658,5.8747e-06,0
4.1663,-1.8296e-05,0
4.1668,-5.623e-05,0
4.1673,-0.00012773,0
4.1679,-0.00023314,0
4.1684,-0.00033637,0
4.1689,-0.00038068,0
4.1694,-0.00034325,0
4.1699,-0.00026117,0
4.1705,-0.00018027,0
4.171,-0.00012891,0
4.1715,-0.00011363,0
4.172,-0.00011901,0
4.1725,-0.00012404,0
4.1731,-0.00012303,0
4.1736,-0.00011565,0
4.1741,-9.5003e-05,0
4.1746,-6.0594e-05,0
4.1751,-1.1078e-05,0
4.1757,4.683e-05,0
4.1762,9.3828e-05,0
4.1767,0.00011699,0
4.1772,0.000118,0
4.1777,0.00010541,0
4.1783,8.8457e-05,0
4.1788,6.7475e-05,0
4.1793,3.7766e-05,0
4.1798,3.8605e-06,0
4.1803,-2.2995e-05,0
4.1808,-4.0787e-05,0
4.1814,-5.2537e-05,0
4.1819,-5.8244e-05,0
4.1824,-6.1936e-05,0
4.1829,-6.3279e-05,0
4.1834,-5.2369e-05,0
4.184,-2.6184e-05,0
4.1845,4.0284e-06,0
4.185,2.3331e-05,0
4.1855,3.1388e-05,0
4.186,4.0787e-05,0
4.1866,5.4047e-05,0
4.1871,6.5629e-05,0
4.1876,6.9657e-05,0
4.1881,6.0761e-05,0
4.1886,5.0858e-05,0
4.1892,5.2873e-05,0
4.1897,6.2104e-05,0
4.1902,7.9393e-05,0
4.1907,0.00010826,0
4.1912,0.00012656,0
4.1917,0.0001237,0
4.1923,0.00011313,0
4.1928,9.8695e-05,0
4.1933,7.2343e-05,0
4.1938,3.1052e-05,0
4.1943,-1.091e-05,0
4.1949,-3.508e-05,0
4.1954,-4.1123e-05,0
4.1959,-3.6759e-05,0
4.1964,-2.6856e-05,0
4.1969,-1.3596e-05,0
4.1975,2.182e-06,0
4.198,1.9974e-05,0
4.1985,3.4745e-05,0
4.199,4.1794e-05,0
4.1995,4.3977e-05,0
4.2001,4.7837e-05,0
4.2006,5.6901e-05,0
4.2011,7.5364e-05,0
4.2016,9.9702e-05,0
4.2021,0.00011884,0
4.2027,0.00013243,0
4.2032,0.00013579,0
4.2037,0.00012706,0
4.2042,0.00010994,0
4.2047,8.5771e-05,0
4.2053,5.8244e-05,0
4.2058,3.508e-05,0
4.2063,1.2757e-05,0
4.2068,-2.1653e-05,0
4.2073,-5.3208e-05,0
4.2078,-7.1672e-05,0
4.2084,-8.8792e-05,0
4.2089,-0.00010524,0
4.2094,-0.00010457,0
4.2099,-7.9057e-05,0
4.2104,-3.9445e-05,0
4.211,8.3925e-07,0
4.2115,4.0116e-05,0
4.212,8.3757e-05,0
4.2125,0.00013008,0
4.213,0.00016164,0
4.2136,0.00016936,0
4.2141,0.00016802,0
4.2146,0.00015509,0
4.2151,0.0001227,0
4.2156,8.04e-05,0
4.2162,3.6423e-05,0
4.2167,-6.8818e-06,0
4.2172,-3.9445e-05,0
4.2177,-5.1194e-05,0
4.2182,-3.508e-05,0
4.2188,3.6927e-06,0
4.2193,2.3331e-05,0
4.2198,-3.357e-06,0
4.2203,-4.3137e-05,0
4.2208,-6.1601e-05,0
4.2213,-5.539e-05,0
4.2219,-3.9277e-05,0
4.2224,-3.3738e-05,0
4.2229,-4.5823e-05,0
4.2234,-6.9154e-05,0
4.2239,-8.0064e-05,0
4.2245,-6.6972e-05,0
4.225,-3.7766e-05,0
4.2255,-7.7211e-06,0
4.226,1.5106e-05,0
4.2265,2.9709e-05,0
4.2271,3.2059e-05,0
4.2276,1.9806e-05,0
4.2281,4.3641e-06,0
4.2286,-7.3854e-06,0
4.2291,-2.8031e-05,0
4.2297,-7.0329e-05,0
4.2302,-0.00011347,0
4.2307,-0.00014066,0
4.2312,-0.00016399,0
4.2317,-0.00018094,0
4.2322,-0.00017607,0
4.2328,-0.00013814,0
4.2333,-6.5461e-05,0
4.2338,2.9038e-05,0
4.2343,0.0001321,0
4.2348,0.00022609,0
4.2354,0.00030196,0
4.2359,0.00037649,0
4.2364,0.00044799,0
4.2369,0.00047115,0
4.2374,0.00040938,0
4.238,0.0002882,0
4.2385,0.00016533,0
4.239,7.5029e-05,0
4.2395,3.0381e-05,0
4.24,1.8463e-06,0
4.2406,-5.539e-05,0
4.2411,-0.00014603,0
4.2416,-0.00023398,0
4.2421,-0.00029441,0
4.2426,-0.00031774,0
4.2432,-0.00029642,0
4.2437,-0.00024305,0
4.2442,-0.00019437,0
4.2447,-0.00016617,0
4.2452,-0.00013277,0
4.2458,-7.335e-05,0
4.2463,7.8889e-06,0
4.2468,0.00011263,0
4.2473,0.00023465,0
4.2478,0.00034476,0
4.2483,0.00041274,0
4.2489,0.00042617,0
4.2494,0.00040972,0
4.2499,0.00037649,0
4.2504,0.00032815,0
4.2509,0.00026151,0
4.2515,0.00017087,0
4.252,7.4022e-05,0
4.2525,-7.2175e-06,0
4.253,-7.5029e-05,0
4.2535,-0.00014116,0
4.2541,-0.00020864,0
4.2546,-0.00026067,0
4.2551,-0.00027359,0
4.2556,-0.0002647,0
4.2561,-0.00026134,0
4.2567,-0.00026268,0
4.2572,-0.00024623,0
4.2577,-0.00020276,0
4.2582,-0.00013864,0
4.2587,-7.4022e-05,0
4.2592,-2.5177e-05,0
4.2598,7.8889e-06,0
4.2603,3.6591e-05,0
4.2608,6.63e-05,0
4.2613,9.1814e-05,0
4.2618,0.0001044,0
4.2624,9.9702e-05,0
4.2629,8.6275e-05,0
4.2634,7.7043e-05,0
4.2639,7.57e-05,0
4.2644,6.9657e-05,0
4.265,5.2537e-05,0
4.2655,3.2731e-05,0
4.266,2.3667e-05,0
4.2665,2.4506e-05,0
4.267,2.8031e-05,0
4.2676,3.3234e-05,0
4.2681,4.4144e-05,0
4.2686,5.4551e-05,0
4.2691,4.8173e-05,0
4.2696,2.7024e-05,0
4.2702,9.0639e-06,0
4.2707,5.0355e-07,0
4.2712,-6.0426e-06,0
4.2717,-1.3092e-05,0
4.2722,-1.6281e-05,0
4.2728,-6.2104e-06,0
4.2733,1.7456e-05,0
4.2738,4.0116e-05,0
4.2743,4.7166e-05,0
4.2748,3.9445e-05,0
4.2753,2.9206e-05,0
4.2759,3.3402e-05,0
4.2764,6.5629e-05,0
4.2769,0.00012203,0
4.2774,0.0001754,0
4.2779,0.00021149,0
4.2785,0.00022844,0
4.279,0.00022039,0
4.2795,0.00019236,0
4.28,0.00014754,0
4.2805,8.9128e-05,0
4.2811,2.2324e-05,0
4.2816,-4.5823e-05,0
4.2821,-0.0001039,0
4.2826,-0.0001326,0
4.2831,-0.00012605,0
4.2837,-0.00010188,0
4.2842,-7.335e-05,0
4.2847,-4.5823e-05,0
4.2852,-2.3667e-05,0
4.2857,-9.2317e-06,0
4.2862,1.0071e-06,0
4.2868,7.8889e-06,0
4.2873,2.8534e-06,0
4.2878,-1.6449e-05,0
4.2883,-3.508e-05,0
4.2888,-3.7095e-05,0
4.2894,-2.5681e-05,0
4.2899,-2.9541e-05,0
4.2904,-6.5126e-05,0
4.2909,-0.00010222,0
4.2914,-0.00011431,0
4.292,-9.5842e-05,0
4.2925,-5.623e-05,0
4.293,-2.1653e-05,0
4.2935,-1.0742e-05,0
4.294,1.9303e-05,0
4.2946,9.6513e-05,0
4.2951,0.0001509,0
4.2956,0.00012689,0
4.2961,5.6901e-05,0
4.2966,1.091e-05,0
4.2972,2.2995e-05,0
4.2977,6.6972e-05,0
4.2982,0.00011095,0
4.2987,0.00014586,0
4.2992,0.00017456,0
4.2998,0.00018447,0
4.3003,0.0001472,0
4.3008,7.1e-05,0
4.3013,-2.0981e-05,0
4.3018,-9.9199e-05,0
4.3023,-0.00013848,0
4.3029,-0.00013797,0
4.3034,-0.00011179,0
4.3039,-5.8076e-05,0
4.3044,3.3402e-05,0
4.3049,0.00013143,0
4.3055,0.00017641,0
4.306,0.00017154,0
4.3065,0.00016298,0
4.307,0.00015442,0
4.3075,0.00012253,0
4.3081,7.4861e-05,0
4.3086,5.153e-05,0
4.3091,8.4932e-05,0
4.3096,0.00015056,0
4.3101,0.00020729,0
4.3107,0.00022945,0
4.3112,0.00020192,0
4.3117,0.0001274,0
4.3122,4.0787e-05,0
4.3127,-3.0213e-05,0
4.3133,-8.0735e-05,0
4.3138,-0.00012001,0
4.3143,-0.00013176,0
4.3148,-9.601e-05,0
4.3153,-4.9516e-05,0
4.3158,-4.5823e-05,0
4.3164,-8.1407e-05,0
4.3169,-0.00011514,0
4.3174,-0.00012656,0
4.3179,-0.00012169,0
4.3184,-0.00012035,0
4.319,-0.00012203,0
4.3195,-0.0001133,0
4.32,-0.00010272,0
4.3205,-0.00010256,0
4.321,-0.00010524,0
4.3216,-8.9296e-05,0
4.3221,-5.4047e-05,0
4.3226,-3.0045e-05,0
4.3231,-3.1052e-05,0
4.3236,-4.3137e-05,0
4.3242,-4.9851e-05,0
4.3247,-4.6159e-05,0
4.3252,-2.9709e-05,0
4.3257,-6.8818e-06,0
4.3262,5.7069e-06,0
4.3267,8.2246e-06,0
4.3273,1.7288e-05,0
4.3278,3.743e-05,0
4.3283,5.3376e-05,0
4.3288,6.2104e-05,0
4.3293,7.7211e-05,0
4.3299,0.00010054,0
4.3304,0.00011833,0
4.3309,0.00012505,0
4.3314,0.00012673,0
4.3319,0.00013109,0
4.3325,0.00012874,0
4.333,0.00010826,0
4.3335,8.04e-05,0
4.334,5.8915e-05,0
4.3345,3.6088e-05,0
4.3351,8.896e-06,0
4.3356,-3.8605e-06,0
4.3361,6.0426e-06,0
4.3366,1.5946e-05,0
4.3371,5.539e-06,0
4.3377,-1.0407e-05,0
4.3382,-3.0213e-06,0
4.3387,2.6352e-05,0
4.3392,5.069e-05,0
4.3397,5.5222e-05,0
4.3403,5.0355e-05,0
4.3408,4.5991e-05,0
4.3413,3.6759e-05,0
4.3418,8.5603e-06,0
4.3423,-2.3163e-05,0
4.3428,-2.8367e-05,0
4.3434,1.8463e-06,0
4.3439,5.153e-05,0
4.3444,0.00010407,0
4.3449,0.00013646,0
4.3454,0.00013042,0
4.346,0.00010356,0
4.3465,7.8721e-05,0
4.347,6.3615e-05,0
4.3475,5.1865e-05,0
4.348,4.062e-05,0
4.3486,3.2898e-05,0
4.3491,2.8031e-05,0
4.3496,1.7288e-05,0
4.3501,8.5603e-06,0
4.3506,1.5946e-05,0
4.3512,2.3667e-05,0
4.3517,1.326e-05,0
4.3522,1.4435e-05,0
4.3527,9.0639e-05,0
4.3532,0.00023197,0
4.3537,0.00033754,0
4.3543,0.00035416,0
4.3548,0.00031186,0
4.3553,0.00025144,0
4.3558,0.00018413,0
4.3563,0.00011733,0
4.3569,4.9516e-05,0
4.3574,-2.652e-05,0
4.3579,-0.00012152,0
4.3584,-0.00023297,0
4.3589,-0.00032663,0
4.3595,-0.00037078,0
4.36,-0.0003686,0
4.3605,-0.00033536,0
4.361,-0.00028081,0
4.3615,-0.00021753,0
4.3621,-0.00016231,0
4.3626,-0.00012018,0
4.3631,-8.0232e-05,0
4.3636,-4.2298e-05,0
4.3641,-9.3996e-06,0
4.3647,1.6617e-05,0
4.3652,3.6088e-05,0
4.3657,6.1265e-05,0
4.3662,9.4667e-05,0
4.3667,0.00012001,0
4.3673,0.00012454,0
4.3678,0.00010793,0
4.3683,8.1071e-05,0
4.3688,5.0858e-05,0
4.3693,2.1653e-05,0
4.3698,-6.714e-07,0
4.3704,-1.8463e-05,0
4.3709,-3.9612e-05,0
4.3714,-6.5461e-05,0
4.3719,-7.9896e-05,0
4.3724,-5.9083e-05,0
4.373,9.9031e-06,0
4.3735,0.00011061,0
4.374,0.00019722,0
4.3745,0.00022408,0
4.375,0.00018715,0
4.3756,0.00011397,0
4.3761,4.2802e-05,0
4.3766,1.6785e-07,0
4.3771,-1.3764e-05,0
4.3776,-1.4099e-05,0
4.3782,-2.4002e-05,0
4.3787,-4.2298e-05,0
4.3792,-4.3305e-05,0
4.3797,-2.5345e-05,0
4.3802,-1.4267e-05,0
4.3807,-1.0071e-06,0
4.3813,4.0284e-05,0
4.3818,9.6513e-05,0
4.3823,0.00013663,0
4.3828,0.00014939,0
4.3833,0.00014804,0
4.3839,0.00014385,0
4.3844,0.00013075,0
4.3849,9.8695e-05,0
4.3854,5.4551e-05,0
4.3859,1.1246e-05,0
4.3865,-4.6159e-05,0
4.387,-0.0001331,0
4.3875,-0.00023281,0
4.388,-0.00030347,0
4.3885,-0.00031304,0
4.3891,-0.00026806,0
4.3896,-0.00018581,0
4.3901,-8.7785e-05,0
4.3906,5.539e-06,0
4.3911,8.9464e-05,0
4.3917,0.00014469,0
4.3922,0.00015459,0
4.3927,0.00014267,0
4.3932,0.00014083,0
4.3937,0.00015123,0
4.3943,0.00015358,0
4.3948,0.0001415,0
4.3953,0.00012052,0
4.3958,9.8695e-05,0
4.3963,7.9057e-05,0
4.3968,6.6468e-05,0
4.3974,6.63e-05,0
4.3979,6.7979e-05,0
4.3984,5.5726e-05,0
4.3989,3.2563e-05,0
4.3994,2.8702e-05,0
4.4,6.3783e-05,0
4.4005,0.00010625,0
4.401,0.00011766,0
4.4015,0.0001086,0
4.402,0.00010457,0
4.4026,0.0001039,0
4.4031,8.7617e-05,0
4.4036,5.7069e-05,0
4.4041,2.5345e-05,0
4.4046,8.3925e-07,0
4.4052,-9.0639e-06,0
4.4057,-2.6856e-06,0
4.4062,6.8818e-06,0
4.4067,1.1414e-05,0
4.4072,1.0407e-05,0
4.4078,3.5248e-06,0
4.4083,-6.0426e-06,0
4.4088,-1.1246e-05,0
4.4093,-6.8818e-06,0
4.4098,8.5603e-06,0
4.4103,3.0716e-05,0
4.4109,4.3473e-05,0
4.4114,2.7863e-05,0
4.4119,-1.2924e-05,0
4.4124,-1.6281e-05,0
4.4129,5.5558e-05,0
4.4135,0.00012068,0
4.414,0.00011464,0
4.4145,7.7714e-05,0
4.415,9.2317e-05,0
4.4155,0.00015459,0
4.4161,0.00019789,0
4.4166,0.00019252,0
4.4171,0.00012757,0
4.4176,3.8605e-06,0
4.4181,-0.00014485,0
4.4187,-0.00027024,0
4.4192,-0.00035064,0
4.4197,-0.00038589,0
4.4202,-0.00037111,0
4.4207,-0.00030011,0
4.4212,-0.00019789,0
4.4218,-0.0001133,0
4.4223,-6.63e-05,0
4.4228,-3.9109e-05,0
4.4233,-1.2924e-05,0
4.4238,2.0981e-05,0
4.4244,6.4622e-05,0
4.4249,0.00012639,0
4.4254,0.0001895,0
4.4259,0.00021166,0
4.4264,0.00017121,0
4.427,9.2821e-05,0
4.4275,3.0045e-05,0
4.428,1.561e-05,0
4.4285,2.7359e-05,0
4.429,5.6901e-05,0
4.4296,9.7017e-05,0
4.4301,0.00011498,0
4.4306,8.6946e-05,0
4.4311,1.4603e-05,0
4.4316,-7.0329e-05,0
4.4322,-0.00012303,0
4.4327,-0.00012471,0
4.4332,-9.7353e-05,0
4.4337,-7.4357e-05,0
4.4342,-6.8818e-05,0
4.4348,-7.0329e-05,0
4.4353,-6.7308e-05,0
4.4358,-5.3376e-05,0
4.4363,-2.8702e-05,0
4.4368,-5.2033e-06,0
4.4373,1.1582e-05,0
4.4379,2.5345e-05,0
4.4384,3.5416e-05,0
4.4389,4.1459e-05,0
4.4394,4.4144e-05,0
4.4399,4.7837e-05,0
4.4405,5.2537e-05,0
4.441,6.1936e-05,0
4.4415,9.0471e-05,0
4.442,0.00013915,0
4.4425,0.0001791,0
4.4431,0.00017507,0
4.4436,0.00013008,0
4.4441,9.0471e-05,0
4.4446,7.9393e-05,0
4.4451,7.4357e-05,0
4.4457,6.1936e-05,0
4.4462,5.774e-05,0
4.4467,5.8579e-05,0
4.4472,3.8437e-05,0
4.4477,-2.1988e-05,0
4.4482,-0.00010323,0
4.4488,-0.00016231,0
4.4493,-0.00016919,0
4.4498,-0.00013495,0
4.4503,-8.9799e-05,0
4.4508,-4.1459e-05,0
4.4514,1.4099e-05,0
4.4519,7.8721e-05,0
4.4524,0.00014485,0
4.4529,0.00019622,0
4.4534,0.00023079,0
4.454,0.00024321,0
4.4545,0.00022643,0
4.455,0.00020259,0
4.4555,0.00019823,0
4.456,0.00019252,0
4.4566,0.00015375,0
4.4571,9.2821e-05,0
4.4576,3.4241e-05,0
4.4581,-1.5778e-05,0
4.4586,-5.623e-05,0
4.4592,-7.4357e-05,0
4.4597,-6.4958e-05,0
4.4602,-4.2634e-05,0
4.4607,-2.3331e-05,0
4.4612,-9.0639e-06,0
4.4618,4.1962e-06,0
4.4623,1.5274e-05,0
4.4628,1.8296e-05,0
4.4633,1.3931e-05,0
4.4638,5.0355e-06,0
4.4643,-5.0355e-07,0
4.4649,0,0
4.4654,-8.3925e-07,0
4.4659,-3.357e-07,0
4.4664,0,0
4.4669,-1.5106e-06,0
4.4675,1.6785e-06,0
4.468,8.2246e-06,0
4.4685,1.4435e-05,0
4.469,2.0981e-05,0
4.4695,3.3906e-05,0
4.4701,5.069e-05,0
4.4706,6.4958e-05,0
4.4711,6.8818e-05,0
4.4716,6.0929e-05,0
4.4721,5.2537e-05,0
4.4727,5.2033e-05,0
4.4732,5.2873e-05,0
4.4737,5.0858e-05,0
4.4742,4.8173e-05,0
4.4747,4.5991e-05,0
4.4752,4.2298e-05,0
4.4758,3.4745e-05,0
4.4763,2.2995e-05,0
4.4768,1.0575e-05,0
4.4773,7.8889e-06,0
4.4778,6.0426e-06,0
4.4784,-6.0426e-06,0
4.4789,-1.0575e-05,0
4.4794,7.0497e-06,0
4.4799,2.5681e-05,0
4.4804,2.1149e-05,0
4.481,-7.0497e-06,0
4.4815,-4.5319e-05,0
4.482,-7.9393e-05,0
4.4825,-9.9535e-05,0
4.483,-9.0806e-05,0
4.4836,-5.1194e-05,0
4.4841,-1.561e-05,0
4.4846,-9.5674e-06,0
4.4851,-2.4506e-05,0
4.4856,-4.3137e-05,0
4.4862,-5.5222e-05,0
4.4867,-6.009e-05,0
4.4872,-6.1936e-05,0
4.4877,-6.5965e-05,0
4.4882,-7.1e-05,0
4.4887,-7.4189e-05,0
4.4893,-7.805e-05,0
4.4898,-7.6036e-05,0
4.4903,-6.63e-05,0
4.4908,-6.0594e-05,0
4.4913,-5.623e-05,0
4.4919,-4.3305e-05,0
4.4924,-2.0981e-05,0
4.4929,1.3596e-05,0
4.4934,7.335e-05,0
4.4939,0.00015962,0
4.4945,0.00024825,0
4.495,0.00029256,0
4.4955,0.00026806,0
4.496,0.00018514,0
4.4965,7.335e-05,0
4.4971,-3.4745e-05,0
4.4976,-0.00012085,0
4.4981,-0.00016986,0
4.4986,-0.00018917,0
4.4991,-0.00020377,0
4.4997,-0.00022509,0
4.5002,-0.00022391,0
4.5007,-0.00016818,0
4.5012,-6.5461e-05,0
4.5017,6.3279e-05,0
4.5023,0.0001796,0
4.5028,0.00023214,0
4.5033,0.00021032,0
4.5038,0.00015224,0
4.5043,0.00011162,0
4.5048,0.00010675,0
4.5054,0.00011296,0
4.5059,0.00010893,0
4.5064,0.00010356,0
4.5069,0.00011901,0
4.5074,0.00015526,0
4.508,0.00019487,0
4.5085,0.00022676,0
4.509,0.00023952,0
4.5095,0.00022055,0
4.51,0.00017037,0
4.5106,0.00011884,0
4.5111,8.3253e-05,0
4.5116,4.448e-05,0
4.5121,-3.1891e-05,0
4.5126,-0.00014519,0
4.5132,-0.00026738,0
4.5137,-0.00034409,0
4.5142,-0.00033855,0
4.5147,-0.0002788,0
4.5152,-0.00020259,0
4.5157,-0.00012203,0
4.5163,-3.7934e-05,0
4.5168,3.2059e-05,0
4.5173,8.0232e-05,0
4.5178,0.00013411,0
4.5183,0.00019319,0
4.5189,0.00021032,0
4.5194,0.00016634,0
4.5199,0.00010037,0
4.5204,6.5629e-05,0
4.5209,7.57e-05,0
4.5215,0.00010121,0
4.522,0.00010591,0
4.5225,8.2918e-05,0
4.523,4.6159e-05,0
4.5235,1.7792e-05,0
4.5241,3.357e-06,0
4.5246,-1.091e-05,0
4.5251,-3.4577e-05,0
4.5256,-5.7572e-05,0
4.5261,-7.57e-05,0
4.5267,-9.752e-05,0
4.5272,-0.00012354,0
4.5277,-0.00013277,0
4.5282,-9.7688e-05,0
4.5287,-2.501e-05,0
4.5293,4.5991e-05,0
4.5298,8.8792e-05,0
4.5303,0.00010574,0
4.5308,0.00010927,0
4.5313,9.987e-05,0
4.5318,7.7379e-05,0
4.5324,4.9516e-05,0
4.5329,3.1891e-05,0
4.5334,3.4409e-05,0
4.5339,4.9851e-05,0
4.5344,6.4286e-05,0
4.535,6.8315e-05,0
4.5355,6.2943e-05,0
4.536,5.5222e-05,0
4.5365,4.6662e-05,0
4.537,3.5416e-05,0
4.5376,2.2324e-05,0
4.5381,1.3764e-05,0
4.5386,1.1246e-05,0
4.5391,7.8889e-06,0
4.5396,-3.5248e-06,0
4.5402,-2.0645e-05,0
4.5407,-3.0716e-05,0
4.5412,-2.3163e-05,0
4.5417,-7.2175e-06,0
4.5422,3.1891e-06,0
4.5427,7.8889e-06,0
4.5433,1.2589e-05,0
4.5438,1.796e-05,0
4.5443,2.1149e-05,0
4.5448,2.2492e-05,0
4.5453,2.6688e-05,0
4.5459,3.6759e-05,0
4.5464,4.7501e-05,0
4.5469,5.2705e-05,0
4.5474,5.3544e-05,0
4.5479,4.9516e-05,0
4.5485,4.2802e-05,0
4.549,3.8941e-05,0
4.5495,3.8605e-05,0
4.55,3.743e-05,0
4.5505,3.6759e-05,0
4.5511,3.3402e-05,0
4.5516,2.4002e-05,0
4.5521,1.3931e-05,0
4.5526,9.0639e-06,0
4.5531,9.9031e-06,0
4.5537,1.4435e-05,0
4.5542,1.8631e-05,0
4.5547,2.3667e-05,0
4.5552,2.8702e-05,0
4.5557,3.5416e-05,0
4.5563,4.683e-05,0
4.5568,6.0929e-05,0
4.5573,7.6371e-05,0
4.5578,0.00010121,0
4.5583,0.00013378,0
4.5588,0.00015694,0
4.5594,0.00016231,0
4.5599,0.00014888,0
4.5604,0.00012723,0
4.5609,0.00011666,0
4.5614,0.0001138,0
4.562,9.3492e-05,0
4.5625,5.388e-05,0
4.563,1.0239e-05,0
4.5635,-3.5752e-05,0
4.564,-9.0806e-05,0
4.5646,-0.0001566,0
4.5651,-0.00021132,0
4.5656,-0.00021904,0
4.5661,-0.00017926,0
4.5666,-0.00013277,0
4.5672,-9.8192e-05,0
4.5677,-6.5126e-05,0
4.5682,-4.4984e-05,0
4.5687,-5.8579e-05,0
4.5692,-0.00010893,0
4.5697,-0.00016718,0
4.5703,-0.00018984,0
4.5708,-0.00015593,0
4.5713,-9.3828e-05,0
4.5718,-4.5655e-05,0
4.5723,-1.796e-05,0
4.5729,2.3499e-06,0
4.5734,7.3854e-06,0
4.5739,1.2589e-05,0
4.5744,5.3208e-05,0
4.5749,0.0001227,0
4.5755,0.00018917,0
4.576,0.00021804,0
4.5765,0.00019806,0
4.577,0.00018144,0
4.5775,0.00022945,0
4.5781,0.0003174,0
4.5786,0.00038119,0
4.5791,0.00040737,0
4.5796,0.00040116,0
4.5801,0.00033822,0
4.5807,0.00020797,0
4.5812,3.2059e-05,0
4.5817,-0.00013512,0
4.5822,-0.0002548,0
4.5827,-0.00032563,0
4.5832,-0.00036323,0
4.5838,-0.00037279,0
4.5843,-0.00036709,0
4.5848,-0.00035248,0
4.5853,-0.00030549,0
4.5858,-0.00021283,0
4.5864,-0.00010877,0
4.5869,-4.2634e-05,0
4.5874,-1.6953e-05,0
4.5879,5.8747e-06,0
4.5884,5.8244e-05,0
4.589,0.0001274,0
4.5895,0.00016567,0
4.59,0.00015929,0
4.5905,0.00013075,0
4.591,0.00010726,0
4.5916,9.8527e-05,0
4.5921,0.00010256,0
4.5926,0.00010272,0
4.5931,7.6371e-05,0
4.5936,3.2395e-05,0
4.5942,-1.091e-05,0
4.5947,-4.9348e-05,0
4.5952,-7.57e-05,0
4.5957,-7.4022e-05,0
4.5962,-4.6494e-05,0
4.5968,-1.561e-05,0
4.5973,1.1749e-06,0
4.5978,1.1246e-05,0
4.5983,3.2898e-05,0
4.5988,6.2608e-05,0
4.5993,8.4596e-05,0
4.5999,9.5171e-05,0
4.6004,0.00010188,0
4.6009,0.00011028,0
4.6014,0.00011565,0
4.6019,0.00012068,0
4.6025,0.00013948,0
4.603,0.00016416,0
4.6035,0.00016835,0
4.604,0.00015291,0
4.6045,0.00014737,0
4.6051,0.00017037,0
4.6056,0.00019487,0
4.6061,0.00018044,0
4.6066,0.00012203,0
4.6071,5.3376e-05,0
4.6077,-2.0142e-06,0
4.6082,-5.5222e-05,0
4.6087,-9.9199e-05,0
4.6092,-0.00011783,0
4.6097,-0.00011783,0
4.6102,-0.0001185,0
4.6108,-0.00012639,0
4.6113,-0.00013176,0
4.6118,-0.0001279,0
4.6123,-0.00010692,0
4.6128,-6.6972e-05,0
4.6134,-1.4771e-05,0
4.6139,3.743e-05,0
4.6144,6.949e-05,0
4.6149,7.6204e-05,0
4.6154,8.426e-05,0
4.616,0.00012136,0
4.6165,0.00017339,0
4.617,0.00018883,0
4.6175,0.00014603,0
4.618,7.1336e-05,0
4.6186,-6.3783e-06,0
4.6191,-7.6539e-05,0
4.6196,-0.00013814,0
4.6201,-0.00018077,0
4.6206,-0.00018514,0
4.6212,-0.0001509,0
4.6217,-0.00010205,0
4.6222,-4.7166e-05,0
4.6227,2.2995e-05,0
4.6232,9.2317e-05,0
4.6238,0.00015459,0
4.6243,0.00020897,0
4.6248,0.00022995,0
4.6253,0.00021367,0
4.6258,0.00017137,0
4.6263,0.0001086,0
4.6269,5.3544e-05,0
4.6274,3.4577e-05,0
4.6279,3.8773e-05,0
4.6284,2.9709e-05,0
4.6289,-9.5674e-06,0
4.6295,-6.3111e-05,0
4.63,-0.00011044,0
4.6305,-0.00014838,0
4.631,-0.00017003,0
4.6315,-0.00016432,0
4.6321,-0.00013361,0
4.6326,-0.00010239,0
4.6331,-8.6107e-05,0
4.6336,-7.2847e-05,0
4.6341,-6.2776e-05,0
4.6347,-6.1769e-05,0
4.6352,-6.1265e-05,0
4.6357,-4.8173e-05,0
4.6362,-2.1653e-05,0
4.6367,9.9031e-06,0
4.6372,3.9109e-05,0
4.6378,7.3686e-05,0
4.6383,0.0001091,0
4.6388,0.00011984,0
4.6393,0.00010289,0
4.6398,8.2918e-05,0
4.6404,7.0497e-05,0
4.6409,8.6275e-05,0
4.6414,0.00016097,0
4.6419,0.00026302,0
4.6424,0.00033251,0
4.643,0.00034275,0
4.6435,0.00030297,0
4.644,0.00023516,0
4.6445,0.00015644,0
4.645,8.7449e-05,0
4.6456,5.7572e-05,0
4.6461,6.0258e-05,0
4.6466,3.2563e-05,0
4.6471,-6.6972e-05,0
4.6476,-0.00018228,0
4.6482,-0.00024523,0
4.6487,-0.00025815,0
4.6492,-0.0002417,0
4.6497,-0.00020478,0
4.6502,-0.00016399,0
4.6508,-0.0001415,0
4.6513,-0.00014385,0
4.6518,-0.0001519,0
4.6523,-0.00014485,0
4.6528,-0.00012337,0
4.6533,-9.1646e-05,0
4.6539,-4.8173e-05,0
4.6544,1.7624e-05,0
4.6549,0.00011095,0
4.6554,0.00019554,0
4.6559,0.00022911,0
4.6565,0.00021938,0
4.657,0.00019252,0
4.6575,0.00015425,0
4.658,0.0001039,0
4.6585,5.8915e-05,0
4.6591,3.7095e-05,0
4.6596,3.3906e-05,0
4.6601,3.2059e-05,0
4.6606,1.4267e-05,0
4.6611,-2.2828e-05,0
4.6617,-6.4622e-05,0
4.6622,-8.9128e-05,0
4.6627,-8.1743e-05,0
4.6632,-4.4648e-05,0
4.6637,1.6785e-06,0
4.6643,3.5752e-05,0
4.6648,5.0187e-05,0
4.6653,5.0523e-05,0
4.6658,4.7501e-05,0
4.6663,4.8844e-05,0
4.6668,5.2705e-05,0
4.6674,5.2873e-05,0
4.6679,4.5487e-05,0
4.6684,3.4745e-05,0
4.6689,2.1317e-05,0
4.6694,9.2317e-06,0
4.67,-1.1749e-06,0
4.6705,-1.1078e-05,0
4.671,-1.4435e-05,0
4.6715,-3.6927e-06,0
4.672,1.9974e-05,0
4.6726,3.508e-05,0
4.6731,3.2731e-05,0
4.6736,2.3331e-05,0
4.6741,1.3092e-05,0
4.6746,6.5461e-06,0
4.6752,7.3854e-06,0
4.6757,1.9471e-05,0
4.6762,3.8102e-05,0
4.6767,5.3376e-05,0
4.6772,6.1265e-05,0
4.6777,6.5629e-05,0
4.6783,6.8986e-05,0
4.6788,6.9154e-05,0
4.6793,6.5293e-05,0
4.6798,6.5293e-05,0
4.6803,7.5868e-05,0
4.6809,8.661e-05,0
4.6814,8.8792e-05,0
4.6819,7.3686e-05,0
4.6824,5.539e-05,0
4.6829,5.8747e-05,0
4.6835,8.0735e-05,0
4.684,9.7017e-05,0
4.6845,9.3156e-05,0
4.685,7.6707e-05,0
4.6855,7.8889e-05,0
4.6861,0.00011498,0
4.6866,0.00013814,0
4.6871,0.00011397,0
4.6876,4.6494e-05,0
4.6881,-4.1123e-05,0
4.6887,-0.00011263,0
4.6892,-0.00013982,0
4.6897,-0.00012505,0
4.6902,-8.8121e-05,0
4.6907,-3.592e-05,0
4.6913,1.9303e-05,0
4.6918,4.9012e-05,0
4.6923,5.623e-05,0
4.6928,7.3686e-05,0
4.6933,0.00013109,0
4.6938,0.00020998,0
4.6944,0.00024674,0
4.6949,0.00021468,0
4.6954,0.00014284,0
4.6959,7.1e-05,0
4.6964,2.0645e-05,0
4.697,-2.7359e-05,0
4.6975,-0.00011229,0
4.698,-0.00022962,0
4.6985,-0.00033889,0
4.699,-0.00041207,0
4.6996,-0.00042969,0
4.7001,-0.00037682,0
4.7006,-0.0002746,0
4.7011,-0.00014217,0
4.7016,-6.714e-07,0
4.7022,9.2149e-05,0
4.7027,0.00012941,0
4.7032,0.00017154,0
4.7037,0.00021971,0
4.7042,0.00022643,0
4.7047,0.00019185,0
4.7053,0.00016063,0
4.7058,0.00015425,0
4.7063,0.00012656,0
4.7068,3.0213e-05,0
4.7073,-0.00010373,0
4.7079,-0.0002125,0
4.7084,-0.00027091,0
4.7089,-0.00028501,0
4.7094,-0.0002605,0
4.7099,-0.00019504,0
4.7105,-8.8289e-05,0
4.711,2.6688e-05,0
4.7115,0.00010457,0
4.712,0.00013915,0
4.7125,0.00014049,0
4.7131,0.00010692,0
4.7136,5.9586e-05,0
4.7141,2.8367e-05,0
4.7146,1.7624e-05,0
4.7151,9.0639e-06,0
4.7157,-1.1078e-05,0
4.7162,-3.1556e-05,0
4.7167,-2.5681e-05,0
4.7172,5.8747e-06,0
4.7177,3.4073e-05,0
4.7183,4.4144e-05,0
4.7188,4.5487e-05,0
4.7193,4.9851e-05,0
4.7198,6.0258e-05,0
4.7203,7.4189e-05,0
4.7208,9.1814e-05,0
4.7214,0.00011162,0
4.7219,0.00012941,0
4.7224,0.00014519,0
4.7229,0.00016097,0
4.7234,0.00017624,0
4.724,0.00018144,0
4.7245,0.00016365,0
4.725,0.00012404,0
4.7255,7.6875e-05,0
4.726,3.6759e-05,0
4.7266,2.0645e-05,0
4.7271,2.0813e-05,0
4.7276,1.796e-05,0
4.7281,0,0
4.7286,-2.0142e-05,0
4.7292,-2.266e-05,0
4.7297,-3.357e-06,0
4.7302,2.7359e-05,0
4.7307,5.9922e-05,0
4.7312,8.9128e-05,0
4.7317,0.00011078,0
4.7323,0.00012555,0
4.7328,0.00013864,0
4.7333,0.00015425,0
4.7338,0.0001603,0
4.7343,0.00014267,0
4.7349,0.0001086,0
4.7354,7.4357e-05,0
4.7359,4.8005e-05,0
4.7364,2.2995e-05,0
4.7369,-7.5532e-06,0
4.7375,-4.4648e-05,0
4.738,-8.4764e-05,0
4.7385,-0.00012136,0
4.739,-0.00014653,0
4.7395,-0.00015325,0
4.7401,-0.00014318,0
4.7406,-0.0001368,0
4.7411,-0.00013143,0
4.7416,-0.0001138,0
4.7421,-9.1142e-05,0
4.7427,-6.0594e-05,0
4.7432,-1.6617e-05,0
4.7437,3.743e-05,0
4.7442,8.2918e-05,0
4.7447,0.00010289,0
4.7453,0.00010172,0
4.7458,6.865e-05,0
4.7463,-9.5674e-06,0
4.7468,-0.0001086,0
4.7473,-0.00018665,0
4.7478,-0.00021199,0
4.7484,-0.00017171,0
4.7489,-6.6636e-05,0
4.7494,7.3518e-05,0
4.7499,0.00019454,0
4.7504,0.00028753,0
4.751,0.00035131,0
4.7515,0.00038354,0
4.752,0.00040267,0
4.7525,0.00040066,0
4.753,0.00035702,0
4.7536,0.00027494,0
4.7541,0.00018044,0
4.7546,9.7185e-05,0
4.7551,3.6088e-05,0
4.7556,-9.5674e-06,0
4.7562,-3.6255e-05,0
4.7567,-3.2227e-05,0
4.7572,-2.8367e-05,0
4.7577,-6.5461e-05,0
4.7582,-0.00012773,0
4.7588,-0.00016768,0
4.7593,-0.00018195,0
4.7598,-0.00018766,0
4.7603,-0.00019236,0
4.7608,-0.00018799,0
4.7613,-0.00016735,0
4.7619,-0.00012488,0
4.7624,-5.8076e-05,0
4.7629,1.0239e-05,0
4.7634,4.1794e-05,0
4.7639,1.7121e-05,0
4.7645,-3.8102e-05,0
4.765,-8.4764e-05,0
4.7655,-0.00011699,0
4.766,-0.00013864,0
4.7665,-0.00014418,0
4.7671,-0.00012908,0
4.7676,-0.00010172,0
4.7681,-8.2078e-05,0
4.7686,-6.865e-05,0
4.7691,-4.7837e-05,0
4.7697,-2.3835e-05,0
4.7702,-1.091e-05,0
4.7707,-9.5674e-06,0
4.7712,-6.8818e-06,0
4.7717,-8.3925e-07,0
4.7722,7.8889e-06,0
4.7728,1.3764e-05,0
4.7733,1.7288e-05,0
4.7738,3.0213e-05,0
4.7743,5.7237e-05,0
4.7748,8.9632e-05,0
4.7754,0.00010927,0
4.7759,0.00011682,0
4.7764,0.00012857,0
4.7769,0.00014922,0
4.7774,0.00017171,0
4.778,0.00018614,0
4.7785,0.00017171,0
4.779,0.00012236,0
4.7795,5.304e-05,0
4.78,-7.8889e-06,0
4.7806,-3.6423e-05,0
4.7811,-3.6759e-05,0
4.7816,-2.7024e-05,0
4.7821,-2.0981e-05,0
4.7826,-2.1317e-05,0
4.7832,-2.2492e-05,0
4.7837,-2.1988e-05,0
4.7842,-2.2995e-05,0
4.7847,-2.5345e-05,0
4.7852,-2.5849e-05,0
4.7858,-1.4267e-05,0
4.7863,9.5674e-06,0
4.7868,3.9445e-05,0
4.7873,7.4357e-05,0
4.7878,9.8527e-05,0
4.7883,9.6178e-05,0
4.7889,8.5267e-05,0
4.7894,7.8386e-05,0
4.7899,5.7237e-05,0
4.7904,2.182e-05,0
4.7909,-1.2253e-05,0
4.7915,-2.9206e-05,0
4.792,-1.9638e-05,0
4.7925,7.0497e-06,0
4.793,3.7766e-05,0
4.7935,7.4693e-05,0
4.7941,0.00011867,0
4.7946,0.00016466,0
4.7951,0.00020159,0
4.7956,0.00021367,0
4.7961,0.00019487,0
4.7967,0.00016063,0
4.7972,0.00011934,0
4.7977,7.2679e-05,0
4.7982,3.1891e-05,0
4.7987,1.1749e-06,0
4.7992,-1.9471e-05,0
4.7998,-3.1052e-05,0
4.8003,-2.7024e-05,0
4.8008,-5.7069e-06,0
4.8013,1.561e-05,0
4.8018,2.5345e-05,0
4.8024,3.6759e-05,0
4.8029,6.0761e-05,0
4.8034,8.2246e-05,0
4.8039,9.0135e-05,0
4.8044,0.00010021,0
4.805,0.00012874,0
4.8055,0.00013344,0
4.806,5.8412e-05,0
4.8065,-7.5364e-05,0
4.807,-0.00019353,0
4.8076,-0.00025211,0
4.8081,-0.00025832,0
4.8086,-0.00023046,0
4.8091,-0.00017691,0
4.8096,-0.00010373,0
4.8102,-3.3738e-05,0
4.8107,7.3854e-06,0
4.8112,2.7527e-05,0
4.8117,4.2466e-05,0
4.8122,5.304e-05,0
4.8128,6.2943e-05,0
4.8133,7.0665e-05,0
4.8138,6.5629e-05,0
4.8143,6.1265e-05,0
4.8148,7.2511e-05,0
4.8153,8.5603e-05,0
4.8159,7.9057e-05,0
4.8164,5.4215e-05,0
4.8169,3.2059e-05,0
4.8174,3.2059e-05,0
4.8179,6.1936e-05,0
4.8185,0.00010692,0
4.819,0.00014015,0
4.8195,0.00015023,0
4.82,0.00012992,0
4.8205,7.0665e-05,0
4.8211,-1.1917e-05,0
4.8216,-8.5267e-05,0
4.8221,-0.00012253,0
4.8226,-0.00012639,0
4.8231,-0.00012102,0
4.8237,-0.00012975,0
4.8242,-0.00014922,0
4.8247,-0.00014922,0
4.8252,-0.00010726,0
4.8257,-4.4144e-05,0
4.8262,8.3925e-07,0
4.8268,1.8463e-05,0
4.8273,2.7359e-05,0
4.8278,3.6423e-05,0
4.8283,2.8367e-05,0
4.8288,-6.2104e-06,0
4.8294,-6.5461e-05,0
4.8299,-0.00012438,0
4.8304,-0.00014183,0
4.8309,-0.00010373,0
4.8314,-3.9109e-05,0
4.832,1.5106e-05,0
4.8325,4.2466e-05,0
4.833,5.069e-05,0
4.8335,7.0329e-05,0
4.834,0.00011514,0
4.8346,0.00017255,0
4.8351,0.0002172,0
4.8356,0.00022441,0
4.8361,0.00019001,0
4.8366,0.00012538,0
4.8372,5.6565e-05,0
4.8377,1.2253e-05,0
4.8382,1.1749e-06,0
4.8387,1.0575e-05,0
4.8392,2.3331e-05,0
4.8398,3.1388e-05,0
4.8403,4.5991e-05,0
4.8408,7.8218e-05,0
4.8413,0.00011531,0
4.8418,0.00013529,0
4.8423,0.00013411,0
4.8429,0.00012119,0
4.8434,9.7856e-05,0
4.8439,5.5222e-05,0
4.8444,-1.5106e-06,0
4.8449,-4.918e-05,0
4.8455,-7.7211e-05,0
4.846,-8.5435e-05,0
4.8465,-9.4499e-05,0
4.847,-9.9535e-05,0
4.8475,-5.9251e-05,0
4.8481,3.2898e-05,0
4.8486,0.00013059,0
4.8491,0.00019051,0
4.8496,0.00020427,0
4.8501,0.00018447,0
4.8507,0.00015358,0
4.8512,0.00013529,0
4.8517,0.0001368,0
4.8522,0.00014888,0
4.8527,0.00013713,0
4.8533,9.7856e-05,0
4.8538,6.1433e-05,0
4.8543,4.0116e-05,0
4.8548,1.0071e-05,0
4.8553,-3.3738e-05,0
4.8558,-4.7166e-05,0
4.8564,1.2253e-05,0
4.8569,8.9128e-05,0
4.8574,9.4835e-05,0
4.8579,3.0381e-05,0
4.8584,-4.918e-05,0
4.859,-0.00010574,0
4.8595,-0.00013092,0
4.86,-0.00012706,0
4.8605,-0.00010893,0
4.861,-0.00010491,0
4.8616,-0.00012572,0
4.8621,-0.00017272,0
4.8626,-0.00024623,0
4.8631,-0.00030129,0
4.8636,-0.00030095,0
4.8642,-0.00025647,0
4.8647,-0.00019202,0
4.8652,-0.00012773,0
4.8657,-6.7979e-05,0
4.8662,-6.2104e-06,0
4.8667,4.9348e-05,0
4.8673,8.275e-05,0
4.8678,9.8527e-05,0
4.8683,0.00010642,0
4.8688,0.00010793,0
4.8693,9.7017e-05,0
4.8699,8.2414e-05,0
4.8704,8.3085e-05,0
4.8709,0.00010491,0
4.8714,0.00012538,0
4.8719,0.00011934,0
4.8725,9.3324e-05,0
4.873,5.6901e-05,0
4.8735,2.1317e-05,0
4.874,-1.6785e-06,0
4.8745,-2.4338e-05,0
4.8751,-6.0761e-05,0
4.8756,-0.00010507,0
4.8761,-0.00014015,0
4.8766,-0.0001467,0
4.8771,-0.00010927,0
4.8777,-4.7837e-05,0
4.8782,1.4267e-05,0
4.8787,8.4764e-05,0
4.8792,0.0001744,0
4.8797,0.00024842,0
4.8803,0.00027091,0
4.8808,0.00023986,0
4.8813,0.00017977,0
4.8818,0.00012673,0
4.8823,8.426e-05,0
4.8828,4.213e-05,0
4.8834,4.5319e-06,0
4.8839,-1.6281e-05,0
4.8844,-1.4267e-05,0
4.8849,1.8463e-06,0
4.8854,1.9974e-05,0
4.886,3.0716e-05,0
4.8865,3.5248e-05,0
4.887,3.6088e-05,0
4.8875,3.4409e-05,0
4.888,3.4745e-05,0
4.8886,3.9445e-05,0
4.8891,4.7837e-05,0
4.8896,5.8412e-05,0
4.8901,7.57e-05,0
4.8906,0.00010591,0
4.8912,0.00013075,0
4.8917,0.00012941,0
4.8922,0.00010356,0
4.8927,7.2847e-05,0
4.8932,4.5991e-05,0
4.8937,2.266e-05,0
4.8943,6.2104e-06,0
4.8948,-2.8534e-06,0
4.8953,-1.4939e-05,0
4.8958,-2.9877e-05,0
4.8963,-3.8605e-05,0
4.8969,-3.7934e-05,0
4.8974,-3.0381e-05,0
4.8979,-1.6617e-05,0
4.8984,5.0355e-06,0
4.8989,2.1317e-05,0
4.8995,1.561e-05,0
4.9,-8.3925e-07,0
4.9005,-1.0239e-05,0
4.901,-1.1582e-05,0
4.9015,-1.0575e-05,0
4.9021,-2.1653e-05,0
4.9026,-4.9851e-05,0
4.9031,-6.7811e-05,0
4.9036,-4.8173e-05,0
4.9041,-3.0213e-06,0
4.9047,3.6255e-05,0
4.9052,5.6565e-05,0
4.9057,7.0665e-05,0
4.9062,9.2149e-05,0
4.9067,0.00011582,0
4.9073,0.00012773,0
4.9078,0.00012572,0
4.9083,0.0001086,0
4.9088,7.9728e-05,0
4.9093,5.1865e-05,0
4.9098,2.4002e-05,0
4.9104,-1.4603e-05,0
4.9109,-6.009e-05,0
4.9114,-9.1646e-05,0
4.9119,-9.601e-05,0
4.9124,-7.3518e-05,0
4.913,-1.9303e-05,0
4.9135,5.2705e-05,0
4.914,0.00010323,0
4.9145,0.00010776,0
4.915,6.8315e-05,0
4.9156,1.4267e-05,0
4.9161,-1.9303e-05,0
4.9166,-3.7766e-05,0
4.9171,-6.5461e-05,0
4.9176,-0.00010591,0
4.9182,-0.00012589,0
4.9187,-0.00010474,0
4.9192,-5.4551e-05,0
4.9197,-2.6856e-06,0
4.9202,3.2395e-05,0
4.9207,5.9922e-05,0
4.9213,9.2485e-05,0
4.9218,0.00012538,0
4.9223,0.0001519,0
4.9228,0.00015425,0
4.9233,0.00013646,0
4.9239,0.00012589,0
4.9244,0.0001321,0
4.9249,0.00013008,0
4.9254,0.00010323,0
4.9259,7.2343e-05,0
4.9265,5.1194e-05,0
4.927,2.8031e-05,0
4.9275,8.5603e-06,0
4.928,-1.5106e-06,0
4.9285,-1.1246e-05,0
4.9291,-3.3066e-05,0
4.9296,-6.9993e-05,0
4.9301,-0.00010457,0
4.9306,-0.00012102,0
4.9311,-0.00011984,0
4.9317,-0.00010658,0
4.9322,-8.3757e-05,0
4.9327,-6.3951e-05,0
4.9332,-4.8676e-05,0
4.9337,-2.0981e-05,0
4.9342,4.1123e-05,0
4.9348,0.00012337,0
4.9353,0.00018379,0
4.9358,0.00020159,0
4.9363,0.00018715,0
4.9368,0.00015761,0
4.9374,0.00012052,0
4.9379,8.1743e-05,0
4.9384,3.4409e-05,0
4.9389,-3.3402e-05,0
4.9394,-0.0001044,0
4.94,-0.00015459,0
4.9405,-0.00018379,0
4.941,-0.00020461,0
4.9415,-0.00021485,0
4.942,-0.00019756,0
4.9426,-0.00015224,0
4.9431,-0.00010071,0
4.9436,-6.4622e-05,0
4.9441,-3.508e-05,0
4.9446,4.8676e-06,0
4.9452,4.7501e-05,0
4.9457,7.1e-05,0
4.9462,6.5293e-05,0
4.9467,5.0858e-05,0
4.9472,4.683e-05,0
4.9478,5.539e-05,0
4.9483,6.6468e-05,0
4.9488,7.1168e-05,0
4.9493,6.7811e-05,0
4.9498,5.7069e-05,0
4.9503,4.6662e-05,0
4.9509,4.2466e-05,0
4.9514,3.9445e-05,0
4.9519,3.4745e-05,0
4.9524,3.3738e-05,0
4.9529,3.4073e-05,0
4.9535,3.1388e-05,0
4.954,2.7359e-05,0
4.9545,2.8031e-05,0
4.955,3.978e-05,0
4.9555,5.6733e-05,0
4.9561,6.3615e-05,0
4.9566,5.2201e-05,0
4.9571,2.6352e-05,0
4.9576,3.357e-07,0
4.9581,-8.5603e-06,0
4.9587,3.0213e-06,0
4.9592,2.6688e-05,0
4.9597,4.8844e-05,0
4.9602,6.009e-05,0
4.9607,5.8915e-05,0
4.9612,4.7501e-05,0
4.9618,2.9374e-05,0
4.9623,5.539e-06,0
4.9628,-1.3428e-05,0
4.9633,-8.2246e-06,0
4.9638,1.3931e-05,0
4.9644,4.7166e-05,0
4.9649,0.0001039,0
4.9654,0.00017406,0
4.9659,0.00022055,0
4.9664,0.00021468,0
4.967,0.00016701,0
4.9675,0.00010793,0
4.968,5.2873e-05,0
4.9685,1.3596e-05,0
4.969,9.5674e-06,0
4.9696,4.213e-05,0
4.9701,9.1142e-05,0
4.9706,0.00012874,0
4.9711,0.00013747,0
4.9716,0.00011598,0
4.9722,8.2078e-05,0
4.9727,4.4312e-05,0
4.9732,-2.182e-06,0
4.9737,-5.5055e-05,0
4.9742,-0.00010625,0
4.9748,-0.00014687,0
4.9753,-0.00017288,0
4.9758,-0.00018614,0
4.9763,-0.00018329,0
4.9768,-0.00015476,0
4.9773,-0.00010457,0
4.9779,-4.8676e-05,0
4.9784,-1.5106e-06,0
4.9789,3.3402e-05,0
4.9794,6.865e-05,0
4.9799,9.7688e-05,0
4.9805,0.00010524,0
4.981,0.00010323,0
4.9815,0.00010323,0
4.982,8.9128e-05,0
4.9825,5.774e-05,0
4.9831,2.3667e-05,0
4.9836,-9.7353e-06,0
4.9841,-3.4073e-05,0
4.9846,-4.4144e-05,0
4.9851,-4.3473e-05,0
4.9857,-4.1123e-05,0
4.9862,-4.1459e-05,0
4.9867,-2.9038e-05,0
4.9872,1.2589e-05,0
4.9877,6.8315e-05,0
4.9882,0.00011531,0
4.9888,0.00015157,0
4.9893,0.00017339,0
4.9898,0.00017641,0
4.9903,0.0001697,0
4.9908,0.00016197,0
4.9914,0.0001707,0
4.9919,0.00021569,0
4.9924,0.00024355,0
4.9929,0.00019319,0
4.9934,8.04e-05,0
4.994,-5.9419e-05,0
4.9945,-0.00020226,0
4.995,-0.00032294,0
4.9955,-0.00038152,0
4.996,-0.00034141,0
4.9966,-0.00021669,0
4.9971,-8.3421e-05,0
4.9976,-1.3596e-05,0
4.9981,-1.0407e-05,0
4.9986,-4.3473e-05,0
4.9992,-8.9632e-05,0
4.9997,-0.00013159,0
5.0002,-0.00015258,0
5.0007,-0.00014569,0
5.0012,-0.00012169,0
5.0018,-9.2317e-05,0
5.0023,-5.5894e-05,0
5.0028,-1.6449e-05,0
5.0033,1.796e-05,0
5.0038,3.8102e-05,0
5.0043,4.9516e-05,0
5.0049,6.1936e-05,0
5.0054,7.57e-05,0
5.0059,8.5771e-05,0
5.0064,8.8457e-05,0
5.0069,7.8721e-05,0
5.0075,6.1601e-05,0
5.008,5.5055e-05,0
5.0085,6.5629e-05,0
5.009,7.0665e-05,0
5.0095,4.4648e-05,0
5.0101,-5.2033e-06,0
5.0106,-3.9445e-05,0
5.0111,-3.4409e-05,0
5.0116,-3.8605e-06,0
5.0121,3.3234e-05,0
5.0127,7.7714e-05,0
5.0132,0.00011666,0
5.0137,0.00013176,0
5.0142,0.00014015,0
5.0147,0.00015929,0
5.0152,0.00018279,0
5.0158,0.00019051,0
5.0163,0.00017708,0
5.0168,0.00015291,0
5.0173,0.00011867,0
5.0178,7.2007e-05,0
5.0184,2.0478e-05,0
5.0189,-2.2828e-05,0
5.0194,-5.7572e-05,0
5.0199,-8.896e-05,0
5.0204,-9.2317e-05,0
5.021,-4.2802e-05,0
5.0215,4.1962e-05,0
5.022,0.00011598,0
5.0225,0.0001566,0
5.023,0.00016701,0
5.0236,0.00014083,0
5.0241,7.2679e-05,0
5.0246,-1.9974e-05,0
5.0251,-9.9702e-05,0
5.0256,-0.00012673,0
5.0262,-0.00010574,0
5.0267,-8.275e-05,0
5.0272,-7.9057e-05,0
5.0277,-7.0161e-05,0
5.0282,-2.9038e-05,0
5.0287,3.6591e-05,0
5.0293,9.9199e-05,0
5.0298,0.00014166,0
5.0303,0.00016147,0
5.0308,0.00015006,0
5.0313,0.00011044,0
5.0319,6.4958e-05,0
5.0324,3.592e-05,0
5.0329,3.2898e-05,0
5.0334,5.623e-05,0
5.0339,9.8192e-05,0
5.0345,0.0001425,0
5.035,0.00017121,0
5.0355,0.00017574,0
5.036,0.00016231,0
5.0365,0.00013848,0
5.0371,0.00011044,0
5.0376,8.4092e-05,0
5.0381,5.4551e-05,0
5.0386,1.6617e-05,0
5.0391,-4.1794e-05,0
5.0397,-0.00012891,0
5.0402,-0.00022525,0
5.0407,-0.00028568,0
5.0412,-0.00028283,0
5.0417,-0.00022358,0
5.0423,-0.00012538,0
5.0428,-3.2059e-05,0
5.0433,2.266e-05,0
5.0438,3.2731e-05,0
5.0443,2.266e-05,0
5.0448,2.9374e-05,0
5.0454,6.8986e-05,0
5.0459,0.00013227,0
5.0464,0.00017607,0
5.0469,0.00015761,0
5.0474,8.0735e-05,0
5.048,-1.6785e-05,0
5.0485,-0.00010642,0
5.049,-0.00016869,0
5.0495,-0.00019051,0
5.05,-0.00017473,0
5.0506,-0.00012656,0
5.0511,-5.5222e-05,0
5.0516,1.1582e-05,0
5.0521,5.2201e-05,0
5.0526,5.8915e-05,0
5.0532,3.3738e-05,0
5.0537,5.0355e-07,0
5.0542,-1.326e-05,0
5.0547,1.1749e-06,0
5.0552,2.8031e-05,0
5.0557,5.3544e-05,0
5.0563,9.1814e-05,0
5.0568,0.00014116,0
5.0573,0.00017372,0
5.0578,0.00017742,0
5.0583,0.00015828,0
5.0589,0.00012639,0
5.0594,9.0806e-05,0
5.0599,7.7043e-05,0
5.0604,7.4189e-05,0
5.0609,5.6901e-05,0
5.0615,2.182e-05,0
5.062,-3.2731e-05,0
5.0625,-9.4835e-05,0
5.063,-0.00013982,0
5.0635,-0.00015056,0
5.0641,-0.0001373,0
5.0646,-0.0001185,0
5.0651,-0.00010172,0
5.0656,-9.131e-05,0
5.0661,-8.8624e-05,0
5.0667,-9.0471e-05,0
5.0672,-8.6778e-05,0
5.0677,-7.3014e-05,0
5.0682,-5.2201e-05,0
5.0687,-3.3738e-05,0
5.0693,-1.9638e-05,0
5.0698,-7.5532e-06,0
5.0703,1.3428e-05,0
5.0708,5.0858e-05,0
5.0713,8.9967e-05,0
5.0718,0.00011128,0
5.0724,0.00010423,0
5.0729,9.6513e-05,0
5.0734,0.00013596,0
5.0739,0.00019521,0
5.0744,0.00020125,0
5.075,0.00016164,0
5.0755,0.00011313,0
5.076,6.63e-05,0
5.0765,3.9445e-05,0
5.077,5.304e-05,0
5.0776,0.0001039,0
5.0781,0.00017171,0
5.0786,0.00022408,0
5.0791,0.0002271,0
5.0796,0.00018077,0
5.0802,9.3324e-05,0
5.0807,-9.2317e-06,0
5.0812,-7.805e-05,0
5.0817,-7.8386e-05,0
5.0822,-9.5674e-06,0
5.0827,7.6707e-05,0
5.0833,0.00011968,0
5.0838,0.0001133,0
5.0843,8.1575e-05,0
5.0848,4.6159e-05,0
5.0853,1.9974e-05,0
5.0859,9.7353e-06,0
5.0864,5.0355e-06,0
5.0869,8.3925e-07,0
5.0874,1.6785e-07,0
5.0879,-1.3596e-05,0
5.0885,-6.3279e-05,0
5.089,-0.00013025,0
5.0895,-0.00017926,0
5.09,-0.00019588,0
5.0905,-0.00020024,0
5.0911,-0.00020864,0
5.0916,-0.00020444,0
5.0921,-0.00018648,0
5.0926,-0.00017305,0
5.0931,-0.00016567,0
5.0937,-0.00014083,0
5.0942,-7.9728e-05,0
5.0947,-6.3783e-06,0
5.0952,4.683e-05,0
5.0957,7.4357e-05,0
5.0963,8.275e-05,0
5.0968,8.8457e-05,0
5.0973,0.00010188,0
5.0978,0.00011128,0
5.0983,0.0001133,0
5.0988,0.00013176,0
5.0994,0.00017255,0
5.0999,0.0002172,0
5.1004,0.00024959,0
5.1009,0.00026839,0
5.1014,0.00027913,0
5.102,0.00027208,0
5.1025,0.00023415,0
5.103,0.000165,0
5.1035,8.04e-05,0
5.104,-2.031e-05,0
5.1046,-0.00015224,0
5.1051,-0.00029558,0
5.1056,-0.00038589,0
5.1061,-0.00037346,0
5.1066,-0.00027594,0
5.1072,-0.00014586,0
5.1077,-9.7353e-06,0
5.1082,0.00012908,0
5.1087,0.00024137,0
5.1092,0.00028283,0
5.1098,0.00025463,0
5.1103,0.00019857,0
5.1108,0.00014049,0
5.1113,8.6946e-05,0
5.1118,3.6759e-05,0
5.1123,-1.4267e-05,0
5.1129,-7.6539e-05,0
5.1134,-0.0001462,0
5.1139,-0.00019924,0
5.1144,-0.00022022,0
5.1149,-0.00020511,0
5.1155,-0.00016248,0
5.116,-0.00011867,0
5.1165,-9.6178e-05,0
5.117,-8.7449e-05,0
5.1175,-7.5364e-05,0
5.1181,-5.2201e-05,0
5.1186,-1.9303e-05,0
5.1191,1.8296e-05,0
5.1196,5.4383e-05,0
5.1201,8.0735e-05,0
5.1207,0.00010188,0
5.1212,0.0001284,0
5.1217,0.00015962,0
5.1222,0.00019319,0
5.1227,0.00020494,0
5.1232,0.00017037,0
5.1238,0.00011061,0
5.1243,4.8844e-05,0
5.1248,-2.182e-06,0
5.1253,-4.1459e-05,0
5.1258,-7.4525e-05,0
5.1264,-0.00010138,0
5.1269,-9.6681e-05,0
5.1274,-2.6184e-05,0
5.1279,8.04e-05,0
5.1284,0.00017977,0
5.129,0.00025949,0
5.1295,0.0002986,0
5.13,0.00027913,0
5.1305,0.00022173,0
5.131,0.00016197,0
5.1316,0.00012186,0
5.1321,0.00010172,0
5.1326,9.6178e-05,0
5.1331,9.4163e-05,0
5.1336,8.7785e-05,0
5.1342,7.4357e-05,0
5.1347,5.8412e-05,0
5.1352,3.743e-05,0
5.1357,1.8128e-05,0
5.1362,8.896e-06,0
5.1368,8.2246e-06,0
5.1373,2.8702e-05,0
5.1378,6.865e-05,0
5.1383,9.5171e-05,0
5.1388,8.6946e-05,0
5.1393,5.7404e-05,0
5.1399,2.0645e-05,0
5.1404,-3.0884e-05,0
5.1409,-0.00010088,0
5.1414,-0.00015576,0
5.1419,-0.00016432,0
5.1425,-0.00014418,0
5.143,-0.00012824,0
5.1435,-0.0001133,0
5.144,-8.3925e-05,0
5.1445,-5.2705e-05,0
5.1451,-4.0284e-05,0
5.1456,-4.8173e-05,0
5.1461,-5.6901e-05,0
5.1466,-4.5487e-05,0
5.1471,-7.5532e-06,0
5.1477,5.2705e-05,0
5.1482,0.00012001,0
5.1487,0.0001707,0
5.1492,0.00019303,0
5.1497,0.00018077,0
5.1502,0.00013948,0
5.1508,8.8457e-05,0
5.1513,3.6927e-05,0
5.1518,-6.2104e-06,0
5.1523,-4.5151e-05,0
5.1528,-9.3156e-05,0
5.1534,-0.00014519,0
5.1539,-0.00018581,0
5.1544,-0.00020377,0
5.1549,-0.00019152,0
5.1554,-0.00015073,0
5.156,-8.6778e-05,0
5.1565,-2.3331e-05,0
5.157,1.326e-05,0
5.1575,1.5946e-05,0
5.158,-3.5248e-06,0
5.1586,-1.9303e-05,0
5.1591,-1.6281e-05,0
5.1596,7.2175e-06,0
5.1601,4.7166e-05,0
5.1606,8.0735e-05,0
5.1612,8.7282e-05,0
5.1617,8.661e-05,0
5.1622,9.9031e-05,0
5.1627,0.00015543,0
5.1632,0.00032076,0
5.1638,0.00056347,0
5.1643,0.00071588,0
5.1648,0.00068197,0
5.1653,0.00053829,0
5.1658,0.00038589,0
5.1663,0.00025093,0
5.1669,0.0001472,0
5.1674,7.4357e-05,0
5.1679,-3.5248e-06,0
5.1684,-0.00012522,0
5.1689,-0.00031002,0
5.1695,-0.00051278,0
5.17,-0.00065092,0
5.1705,-0.00068818,0
5.171,-0.00065864,0
5.1715,-0.00060308,0
5.1721,-0.00053158,0
5.1726,-0.00045823,0
5.1731,-0.0003926,0
5.1736,-0.0003498,0
5.1741,-0.00032898,0
5.1747,-0.00030649,0
5.1752,-0.00025949,0
5.1757,-0.00020192,0
5.1762,-0.00017037,0
5.1767,-0.00017372,0
5.1772,-0.00017154,0
5.1778,-0.00011934,0
5.1783,-3.2898e-05,0
5.1788,3.2563e-05,0
5.1793,7.2343e-05,0
5.1798,0.00013176,0
5.1804,0.00022106,0
5.1809,0.00029961,0
5.1814,0.00033805,0
5.1819,0.00035685,0
5.1824,0.0003973,0
5.183,0.00046343,0
5.1835,0.00051681,0
5.184,0.000544,0
5.1845,0.00053997,0
5.185,0.00050573,0
5.1856,0.00046041,0
5.1861,0.00042483,0
5.1866,0.00038102,0
5.1871,0.0003164,0
5.1876,0.00024959,0
5.1882,0.00019118,0
5.1887,0.00011783,0
5.1892,2.266e-05,0
5.1897,-5.8747e-05,0
5.1902,-9.9702e-05,0
5.1908,-0.00011565,0
5.1913,-0.00013831,0
5.1918,-0.00018111,0
5.1923,-0.00022593,0
5.1928,-0.00023902,0
5.1933,-0.00020763,0
5.1939,-0.00016097,0
5.1944,-0.00012303,0
5.1949,-9.3156e-05,0
5.1954,-8.1071e-05,0
5.1959,-0.00010491,0
5.1965,-0.00015727,0
5.197,-0.00020226,0
5.1975,-0.00021367,0
5.198,-0.00019353,0
5.1985,-0.00015023,0
5.1991,-9.6849e-05,0
5.1996,-4.1627e-05,0
5.2001,6.5461e-06,0
5.2006,3.4745e-05,0
5.2011,4.3641e-05,0
5.2017,4.9516e-05,0
5.2022,6.0258e-05,0
5.2027,7.7043e-05,0
5.2032,0.00010726,0
5.2037,0.0001509,0
5.2043,0.00019487,0
5.2048,0.00022274,0
5.2053,0.0002318,0
5.2058,0.00022391,0
5.2063,0.00020612,0
5.2068,0.00018682,0
5.2074,0.00017003,0
5.2079,0.00015761,0
5.2084,0.00014519,0
5.2089,0.0001274,0
5.2094,0.0001039,0
5.21,8.3085e-05,0
5.2105,6.8986e-05,0
5.211,4.6159e-05,0
5.2115,6.714e-07,0
5.212,-5.5222e-05,0
5.2126,-9.2485e-05,0
5.2131,-9.7353e-05,0
5.2136,-7.805e-05,0
5.2141,-5.2705e-05,0
5.2146,-3.0045e-05,0
5.2152,-1.3092e-05,0
5.2157,-1.8463e-06,0
5.2162,5.8747e-06,0
5.2167,1.2757e-05,0
5.2172,2.1653e-05,0
5.2177,4.6494e-05,0
5.2183,8.1407e-05,0
5.2188,0.00010272,0
5.2193,0.00010256,0
5.2198,8.7617e-05,0
5.2203,6.7308e-05,0
5.2209,4.5991e-05,0
5.2214,2.4842e-05,0
5.2219,1.1078e-05,0
5.2224,1.5946e-05,0
5.2229,2.9709e-05,0
5.2235,2.7359e-05,0
5.224,6.714e-07,0
5.2245,-3.7766e-05,0
5.225,-6.4286e-05,0
5.2255,-6.7643e-05,0
5.2261,-5.5894e-05,0
5.2266,-3.8773e-05,0
5.2271,-1.2757e-05,0
5.2276,2.1653e-05,0
5.2281,4.8844e-05,0
5.2287,5.6565e-05,0
5.2292,4.1459e-05,0
5.2297,1.2253e-05,0
5.2302,-1.6281e-05,0
5.2307,-3.8605e-05,0
5.2313,-5.7404e-05,0
5.2318,-6.5965e-05,0
5.2323,-5.9251e-05,0
5.2328,-5.3544e-05,0
5.2333,-6.4622e-05,0
5.2338,-8.0735e-05,0
5.2344,-7.8553e-05,0
5.2349,-5.4047e-05,0
5.2354,-1.4939e-05,0
5.2359,5.2033e-05,0
5.2364,0.00013747,0
5.237,0.00019538,0
5.2375,0.00020058,0
5.238,0.00017842,0
5.2385,0.00016365,0
5.239,0.00015593,0
5.2396,0.0001227,0
5.2401,6.5293e-05,0
5.2406,1.7624e-05,0
5.2411,-1.4939e-05,0
5.2416,-4.4312e-05,0
5.2422,-6.0594e-05,0
5.2427,-3.5752e-05,0
5.2432,2.1317e-05,0
5.2437,6.4958e-05,0
5.2442,8.04e-05,0
5.2447,9.2485e-05,0
5.2453,0.00012555,0
5.2458,0.00015694,0
5.2463,0.00012505,0
5.2468,2.7527e-05,0
5.2473,-7.57e-05,0
5.2479,-0.00014032,0
5.2484,-0.00016986,0
5.2489,-0.00017675,0
5.2494,-0.00016936,0
5.2499,-0.00014788,0
5.2505,-0.00013092,0
5.251,-0.00014032,0
5.2515,-0.00017356,0
5.252,-0.00020159,0
5.2525,-0.00019789,0
5.2531,-0.00015593,0
5.2536,-8.9799e-05,0
5.2541,-7.0497e-06,0
5.2546,0.00010289,0
5.2551,0.00022861,0
5.2557,0.000355,0
5.2562,0.0004688,0
5.2567,0.00055676,0
5.2572,0.00059805,0
5.2577,0.00056381,0
5.2583,0.00045638,0
5.2588,0.00031673,0
5.2593,0.00018715,0
5.2598,7.7714e-05,0
5.2603,-2.2995e-05,0
5.2608,-0.00013361,0
5.2614,-0.00027695,0
5.2619,-0.00044144,0
5.2624,-0.00058143,0
5.2629,-0.00066435,0
5.2634,-0.00067626,0
5.264,-0.00062591,0
5.2645,-0.00053846,0
5.265,-0.00043037,0
5.2655,-0.00030381,0
5.266,-0.00018598,0
5.2666,-0.00011229,0
5.2671,-7.5364e-05,0
5.2676,-3.592e-05,0
5.2681,3.6927e-05,0
5.2686,0.00012874,0
5.2692,0.00020612,0
5.2697,0.00025731,0
5.2702,0.00028904,0
5.2707,0.00030817,0
5.2712,0.00030767,0
5.2717,0.0002751,0
5.2723,0.00021585,0
5.2728,0.0001603,0
5.2733,0.00013008,0
5.2738,0.00012992,0
5.2743,0.0001462,0
5.2749,0.00016432,0
5.2754,0.00018614,0
5.2759,0.00020662,0
5.2764,0.00021955,0
5.2769,0.00021535,0
5.2775,0.00017641,0
5.278,0.00010256,0
5.2785,1.326e-05,0
5.279,-7.0329e-05,0
5.2795,-0.00013092,0
5.2801,-0.00015459,0
5.2806,-0.00013696,0
5.2811,-8.191e-05,0
5.2816,-9.5674e-06,0
5.2821,4.2802e-05,0
5.2827,5.3208e-05,0
5.2832,2.6352e-05,0
5.2837,-1.4771e-05,0
5.2842,-4.1123e-05,0
5.2847,-5.0858e-05,0
5.2852,-4.4648e-05,0
5.2858,-2.5513e-05,0
5.2863,-4.1962e-06,0
5.2868,1.6953e-05,0
5.2873,5.774e-05,0
5.2878,0.00013613,0
5.2884,0.00025026,0
5.2889,0.00036172,0
5.2894,0.00041341,0
5.2899,0.00039562,0
5.2904,0.00035399,0
5.291,0.00033486,0
5.2915,0.00033536,0
5.292,0.000307,0
5.2925,0.00022139,0
5.293,9.8527e-05,0
5.2936,-3.2563e-05,0
5.2941,-0.00015929,0
5.2946,-0.00027695,0
5.2951,-0.00037044,0
5.2956,-0.00042516,0
5.2962,-0.00042919,0
5.2967,-0.00039159,0
5.2972,-0.00033503,0
5.2977,-0.00027175,0
5.2982,-0.0002088,0
5.2988,-0.00015241,0
5.2993,-0.00010507,0
5.2998,-4.7501e-05,0
5.3003,3.0716e-05,0
5.3008,0.00010239,0
5.3013,0.00014318,0
5.3019,0.00015845,0
5.3024,0.00017574,0
5.3029,0.00020931,0
5.3034,0.00023986,0
5.3039,0.00023214,0
5.3045,0.00018984,0
5.305,0.00012807,0
5.3055,5.069e-05,0
5.306,-7.2175e-06,0
5.3065,-1.4603e-05,0
5.3071,9.7353e-06,0
5.3076,2.9374e-05,0
5.3081,2.0142e-05,0
5.3086,-3.2898e-05,0
5.3091,-0.00012219,0
5.3097,-0.00020243,0
5.3102,-0.00023398,0
5.3107,-0.00021115,0
5.3112,-0.00015207,0
5.3117,-9.3828e-05,0
5.3122,-6.9322e-05,0
5.3128,-7.6707e-05,0
5.3133,-6.6636e-05,0
5.3138,3.357e-06,0
5.3143,9.1814e-05,0
5.3148,0.00012169,0
5.3154,7.7379e-05,0
5.3159,1.1246e-05,0
5.3164,-2.501e-05,0
5.3169,-2.031e-05,0
5.3174,4.8676e-06,0
5.318,1.2253e-05,0
5.3185,-1.3596e-05,0
5.319,-5.1194e-05,0
5.3195,-6.9154e-05,0
5.32,-5.623e-05,0
5.3206,-1.7121e-05,0
5.3211,2.2156e-05,0
5.3216,4.4816e-05,0
5.3221,5.4551e-05,0
5.3226,6.7308e-05,0
5.3232,9.0135e-05,0
5.3237,0.00011498,0
5.3242,0.00014015,0
5.3247,0.00015375,0
5.3252,0.00015425,0
5.3258,0.00015358,0
5.3263,0.00016231,0
5.3268,0.00017171,0
5.3273,0.00016097,0
5.3278,0.00012941,0
5.3283,9.3828e-05,0
5.3289,6.8986e-05,0
5.3294,6.3951e-05,0
5.3299,7.1336e-05,0
5.3304,7.5868e-05,0
5.3309,7.1e-05,0
5.3315,5.7069e-05,0
5.332,3.0549e-05,0
5.3325,3.8605e-06,0
5.333,5.8747e-06,0
5.3335,4.3809e-05,0
5.3341,9.1814e-05,0
5.3346,0.00012538,0
5.3351,0.00013864,0
5.3356,0.0001373,0
5.3361,0.00013344,0
5.3367,0.00012807,0
5.3372,0.00010658,0
5.3377,6.2943e-05,0
5.3382,5.0355e-07,0
5.3387,-7.805e-05,0
5.3392,-0.00013915,0
5.3398,-0.00014166,0
5.3403,-0.00010222,0
5.3408,-7.2679e-05,0
5.3413,-7.805e-05,0
5.3418,-0.00010591,0
5.3424,-0.00013613,0
5.3429,-0.00015023,0
5.3434,-0.00013814,0
5.3439,-0.00010759,0
5.3444,-6.9154e-05,0
5.345,-2.9709e-05,0
5.3455,1.2757e-05,0
5.346,5.8915e-05,0
5.3465,9.4499e-05,0
5.347,0.00011598,0
5.3476,0.00013613,0
5.3481,0.00017288,0
5.3486,0.00022676,0
5.3491,0.00025866,0
5.3496,0.00023885,0
5.3502,0.00018413,0
5.3507,0.00012303,0
5.3512,5.1194e-05,0
5.3517,-3.9109e-05,0
5.3522,-0.00012874,0
5.3528,-0.00018329,0
5.3533,-0.00019202,0
5.3538,-0.00018077,0
5.3543,-0.0001848,0
5.3548,-0.00019957,0
5.3553,-0.00020092,0
5.3559,-0.0001796,0
5.3564,-0.00014821,0
5.3569,-0.00011363,0
5.3574,-6.3111e-05,0
5.3579,2.6688e-05,0
5.3585,0.00014553,0
5.359,0.00027175,0
5.3595,0.00036675,0
5.36,0.00036977,0
5.3605,0.00028954,0
5.3611,0.00020125,0
5.3616,0.0001378,0
5.3621,8.3925e-05,0
5.3626,4.2466e-05,0
5.3631,1.6114e-05,0
5.3637,-1.8631e-05,0
5.3642,-7.3686e-05,0
5.3647,-0.00013462,0
5.3652,-0.00015845,0
5.3657,-0.00014687,0
5.3662,-0.0001467,0
5.3668,-0.00017003,0
5.3673,-0.00018144,0
5.3678,-0.0001561,0
5.3683,-0.00011296,0
5.3688,-7.9393e-05,0
5.3694,-6.4958e-05,0
5.3699,-5.304e-05,0
5.3704,-3.2395e-05,0
5.3709,-2.4674e-05,0
5.3714,-4.2298e-05,0
5.372,-6.479e-05,0
5.3725,-7.3854e-05,0
5.373,-5.2201e-05,0
5.3735,-6.714e-07,0
5.374,4.7837e-05,0
5.3746,6.6468e-05,0
5.3751,6.2943e-05,0
5.3756,5.8244e-05,0
5.3761,6.63e-05,0
5.3766,8.1743e-05,0
5.3772,9.2317e-05,0
5.3777,9.1142e-05,0
5.3782,7.3686e-05,0
5.3787,4.4816e-05,0
5.3792,1.4099e-05,0
5.3797,-1.8631e-05,0
5.3803,-4.3305e-05,0
5.3808,-3.6423e-05,0
5.3813,-5.2033e-06,0
5.3818,1.7288e-05,0
5.3823,1.6281e-05,0
5.3829,8.2246e-06,0
5.3834,1.5274e-05,0
5.3839,4.7669e-05,0
5.3844,9.1142e-05,0
5.3849,0.00011716,0
5.3855,0.00012169,0
5.386,0.00012941,0
5.3865,0.00015492,0
5.387,0.00017708,0
5.3875,0.00017305,0
5.3881,0.00014485,0
5.3886,0.00011229,0
5.3891,9.5171e-05,0
5.3896,9.5842e-05,0
5.3901,0.00010457,0
5.3907,0.0001044,0
5.3912,8.1071e-05,0
5.3917,3.9445e-05,0
5.3922,-6.3783e-06,0
5.3927,-3.6255e-05,0
5.3933,-3.0045e-05,0
5.3938,-3.5248e-06,0
5.3943,2.1653e-05,0
5.3948,4.8005e-05,0
5.3953,7.9057e-05,0
5.3958,0.00010457,0
5.3964,0.00012287,0
5.3969,0.0001415,0
5.3974,0.00014821,0
5.3979,0.00013344,0
5.3984,0.00011078,0
5.399,8.5267e-05,0
5.3995,5.4719e-05,0
5.4,2.1317e-05,0
5.4005,-4.1962e-06,0
5.401,-7.5532e-06,0
5.4016,2.3499e-06,0
5.4021,1.4603e-05,0
5.4026,3.2395e-05,0
5.4031,5.8412e-05,0
5.4036,8.2414e-05,0
5.4042,9.4499e-05,0
5.4047,8.7449e-05,0
5.4052,6.6636e-05,0
5.4057,4.6326e-05,0
5.4062,3.2059e-05,0
5.4067,1.9303e-05,0
5.4073,8.5603e-06,0
5.4078,8.896e-06,0
5.4083,2.8702e-05,0
5.4088,7.4525e-05,0
5.4093,0.00013462,0
5.4099,0.00016617,0
5.4104,0.00013613,0
5.4109,5.7404e-05,0
5.4114,-3.978e-05,0
5.4119,-0.00012522,0
5.4125,-0.00018816,0
5.413,-0.00023281,0
5.4135,-0.00027477,0
5.414,-0.00032026,0
5.4145,-0.00035265,0
5.4151,-0.00035802,0
5.4156,-0.00033352,0
5.4161,-0.00028937,0
5.4166,-0.00024388,0
5.4171,-0.00019353,0
5.4177,-0.00013025,0
5.4182,-6.3279e-05,0
5.4187,-8.2246e-06,0
5.4192,2.2995e-05,0
5.4197,2.9877e-05,0
5.4203,2.4002e-05,0
5.4208,1.7792e-05,0
5.4213,2.1317e-05,0
5.4218,3.6088e-05,0
5.4223,4.9516e-05,0
5.4228,5.623e-05,0
5.4234,6.1601e-05,0
5.4239,7.335e-05,0
5.4244,9.7688e-05,0
5.4249,0.00012941,0
5.4254,0.00015895,0
5.426,0.00017507,0
5.4265,0.00017372,0
5.427,0.00016231,0
5.4275,0.00014418,0
5.428,0.000118,0
5.4286,9.4667e-05,0
5.4291,8.3757e-05,0
5.4296,7.7714e-05,0
5.4301,6.1601e-05,0
5.4306,2.9877e-05,0
5.4312,5.0355e-07,0
5.4317,-1.1078e-05,0
5.4322,-4.1962e-06,0
5.4327,1.8631e-05,0
5.4332,4.9851e-05,0
5.4337,7.1e-05,0
5.4343,7.2679e-05,0
5.4348,6.5965e-05,0
5.4353,7.0329e-05,0
5.4358,8.2414e-05,0
5.4363,8.1743e-05,0
5.4369,6.7979e-05,0
5.4374,6.2943e-05,0
5.4379,8.04e-05,0
5.4384,0.00010172,0
5.4389,9.9535e-05,0
5.4395,7.2007e-05,0
5.44,4.9516e-05,0
5.4405,4.9851e-05,0
5.441,6.0929e-05,0
5.4415,6.5629e-05,0
5.4421,5.6062e-05,0
5.4426,2.9709e-05,0
5.4431,-1.5946e-05,0
5.4436,-6.5126e-05,0
5.4441,-0.00010558,0
5.4447,-0.00014015,0
5.4452,-0.00015677,0
5.4457,-0.00015543,0
5.4462,-0.00014469,0
5.4467,-0.00010893,0
5.4473,-2.4842e-05,0
5.4478,8.9799e-05,0
5.4483,0.00019319,0
5.4488,0.00026369,0
5.4493,0.00031136,0
5.4498,0.00032613,0
5.4504,0.00027678,0
5.4509,0.00017691,0
5.4514,6.7643e-05,0
5.4519,-1.3596e-05,0
5.4524,-5.8915e-05,0
5.453,-9.1478e-05,0
5.4535,-0.00012253,0
5.454,-0.00014553,0
5.4545,-0.00015123,0
5.455,-0.00014099,0
5.4556,-0.00012438,0
5.4561,-0.00010457,0
5.4566,-8.4092e-05,0
5.4571,-6.9657e-05,0
5.4576,-6.1265e-05,0
5.4582,-5.069e-05,0
5.4587,-3.592e-05,0
5.4592,-1.561e-05,0
5.4597,1.6785e-07,0
5.4602,-4.6998e-06,0
5.4607,-1.2589e-05,0
5.4613,7.7211e-06,0
5.4618,6.9657e-05,0
5.4623,0.00015727,0
5.4628,0.00023062,0
5.4633,0.00026067,0
5.4639,0.00025194,0
5.4644,0.00022475,0
5.4649,0.00019387,0
5.4654,0.00016063,0
5.4659,0.00011901,0
5.4665,6.9993e-05,0
5.467,7.8889e-06,0
5.4675,-6.9993e-05,0
5.468,-0.00014821,0
5.4685,-0.00020948,0
5.4691,-0.00024221,0
5.4696,-0.00023566,0
5.4701,-0.00018833,0
5.4706,-0.00010977,0
5.4711,-3.1891e-05,0
5.4717,1.5442e-05,0
5.4722,2.9038e-05,0
5.4727,2.3667e-05,0
5.4732,1.8631e-05,0
5.4737,2.1317e-05,0
5.4742,3.4073e-05,0
5.4748,5.4215e-05,0
5.4753,7.4022e-05,0
5.4758,7.9896e-05,0
5.4763,6.5293e-05,0
5.4768,4.1627e-05,0
5.4774,1.796e-05,0
5.4779,-5.539e-06,0
5.4784,-2.9709e-05,0
5.4789,-5.1698e-05,0
5.4794,-6.4286e-05,0
5.48,-6.5965e-05,0
5.4805,-6.1601e-05,0
5.481,-5.1698e-05,0
5.4815,-3.7766e-05,0
5.482,-1.7456e-05,0
5.4826,1.1246e-05,0
5.4831,4.6662e-05,0
5.4836,7.7714e-05,0
5.4841,8.7785e-05,0
5.4846,7.9225e-05,0
5.4852,6.2943e-05,0
5.4857,4.7837e-05,0
5.4862,2.7359e-05,0
5.4867,1.0071e-06,0
5.4872,-6.2104e-06,0
5.4878,2.3163e-05,0
5.4883,7.8889e-05,0
5.4888,0.00012572,0
5.4893,0.00014553,0
5.4898,0.00014586,0
5.4903,0.00013445,0
5.4909,0.00013075,0
5.4914,0.00014754,0
5.4919,0.0001603,0
5.4924,0.00015073,0
5.4929,0.00011968,0
5.4935,6.8315e-05,0
5.494,-3.0213e-06,0
5.4945,-5.7404e-05,0
5.495,-5.8579e-05,0
5.4955,-2.3835e-05,0
5.4961,9.2317e-06,0
5.4966,1.9806e-05,0
5.4971,6.5461e-06,0
5.4976,-2.4002e-05,0
5.4981,-5.1194e-05,0
5.4987,-5.4551e-05,0
5.4992,-4.918e-05,0
5.4997,-5.2873e-05,0
5.5002,-5.2537e-05,0
5.5007,-3.3066e-05,0
5.5012,3.6927e-06,0
5.5018,5.153e-05,0
5.5023,8.3589e-05,0
5.5028,8.0064e-05,0
5.5033,7.0329e-05,0
5.5038,9.7856e-05,0
5.5044,0.00015509,0
5.5049,0.00019722,0
5.5054,0.00021166,0
5.5059,0.00020864,0
5.5064,0.00018917,0
5.507,0.0001556,0
5.5075,0.00012068,0
5.508,9.3828e-05,0
5.5085,5.1362e-05,0
5.509,-4.7669e-05,0
5.5096,-0.00018833,0
5.5101,-0.00031388,0
5.5106,-0.00039176,0
5.5111,-0.00041324,0
5.5116,-0.00037296,0
5.5122,-0.00029004,0
5.5127,-0.00020528,0
5.5132,-0.00013931,0
5.5137,-8.8624e-05,0
5.5142,-4.6662e-05,0
5.5148,-6.3783e-06,0
5.5153,3.1052e-05,0
5.5158,5.388e-05,0
5.5163,6.1601e-05,0
5.5168,6.6972e-05,0
5.5173,8.0064e-05,0
5.5179,9.2821e-05,0
5.5184,8.9296e-05,0
5.5189,7.6371e-05,0
5.5194,6.865e-05,0
5.5199,7.4189e-05,0
5.5205,8.6442e-05,0
5.521,9.1478e-05,0
5.5215,6.9657e-05,0
5.522,3.7095e-05,0
5.5225,3.0716e-05,0
5.5231,4.6662e-05,0
5.5236,5.7237e-05,0
5.5241,4.2802e-05,0
5.5246,1.2421e-05,0
5.5251,-1.1749e-06,0
5.5257,1.7288e-05,0
5.5262,4.3305e-05,0
5.5267,5.304e-05,0
5.5272,4.9516e-05,0
5.5277,3.4241e-05,0
5.5282,2.0645e-05,0
5.5288,3.4913e-05,0
5.5293,7.2343e-05,0
5.5298,0.00010021,0
5.5303,9.8192e-05,0
5.5308,8.1071e-05,0
5.5314,7.7043e-05,0
5.5319,8.6275e-05,0
5.5324,9.5506e-05,0
5.5329,9.836e-05,0
5.5334,0.00010306,0
5.534,0.00011699,0
5.5345,0.00012605,0
5.535,0.00011397,0
5.5355,8.7449e-05,0
5.536,5.8915e-05,0
5.5366,1.796e-05,0
5.5371,-3.8773e-05,0
5.5376,-9.5171e-05,0
5.5381,-0.00013848,0
5.5386,-0.00015811,0
5.5392,-0.00013344,0
5.5397,-4.1794e-05,0
5.5402,8.5267e-05,0
5.5407,0.00017037,0
5.5412,0.00018346,0
5.5418,0.00016046,0
5.5423,0.00014553,0
5.5428,0.0001462,0
5.5433,0.0001462,0
5.5438,0.00013227,0
5.5443,9.3492e-05,0
5.5449,3.0716e-05,0
5.5454,-3.9445e-05,0
5.5459,-0.0001034,0
5.5464,-0.00014922,0
5.5469,-0.00015979,0
5.5475,-0.0001326,0
5.548,-8.8289e-05,0
5.5485,-5.7237e-05,0
5.549,-4.1962e-05,0
5.5495,-2.4338e-05,0
5.5501,3.1891e-06,0
5.5506,4.3305e-05,0
5.5511,9.1814e-05,0
5.5516,0.00013143,0
5.5521,0.00014284,0
5.5527,0.00012438,0
5.5532,9.0806e-05,0
5.5537,6.6133e-05,0
5.5542,6.5629e-05,0
5.5547,5.8915e-05,0
5.5553,2.0813e-05,0
5.5558,-1.7121e-05,0
5.5563,-3.508e-05,0
5.5568,-5.388e-05,0
5.5573,-7.7379e-05,0
5.5578,-8.8792e-05,0
5.5584,-7.4357e-05,0
5.5589,-2.4674e-05,0
5.5594,2.9709e-05,0
5.5599,3.6759e-05,0
5.5604,-1.2589e-05,0
5.561,-8.2918e-05,0
5.5615,-0.00013428,0
5.562,-0.0001472,0
5.5625,-0.00012438,0
5.563,-8.3085e-05,0
5.5636,-4.9851e-05,0
5.5641,-2.9709e-05,0
5.5646,-7.5532e-06,0
5.5651,7.7211e-06,0
5.5656,9.2317e-06,0
5.5662,5.0355e-07,0
5.5667,-1.0239e-05,0
5.5672,-1.3596e-05,0
5.5677,-1.6785e-07,0
5.5682,2.266e-05,0
5.5687,4.1123e-05,0
5.5693,4.8173e-05,0
5.5698,3.7934e-05,0
5.5703,1.6449e-05,0
5.5708,3.0213e-06,0
5.5713,1.091e-05,0
5.5719,3.0381e-05,0
5.5724,4.0452e-05,0
5.5729,4.0116e-05,0
5.5734,4.3473e-05,0
5.5739,6.4286e-05,0
5.5745,9.5674e-05,0
5.575,0.00011867,0
5.5755,0.00012253,0
5.576,0.00011733,0
5.5765,0.00010474,0
5.5771,7.2343e-05,0
5.5776,2.0645e-05,0
5.5781,-1.5946e-05,0
5.5786,-1.8967e-05,0
5.5791,-2.8534e-06,0
5.5797,8.5603e-06,0
5.5802,1.1246e-05,0
5.5807,2.9038e-05,0
5.5812,7.6371e-05,0
5.5817,0.00012807,0
5.5823,0.00015509,0
5.5828,0.00016013,0
5.5833,0.00016164,0
5.5838,0.00017675,0
5.5843,0.00020041,0
5.5848,0.00021384,0
5.5854,0.00020511,0
5.5859,0.0001697,0
5.5864,0.00011666,0
5.5869,6.1601e-05,0
5.5874,1.3092e-05,0
5.588,-2.1988e-05,0
5.5885,-4.9851e-05,0
5.589,-7.6036e-05,0
5.5895,-8.8121e-05,0
5.59,-7.8386e-05,0
5.5906,-4.5991e-05,0
5.5911,-1.3764e-05,0
5.5916,-2.5177e-06,0
5.5921,-1.6785e-06,0
5.5926,0,0
5.5932,-6.2104e-06,0
5.5937,-2.1317e-05,0
5.5942,-3.5584e-05,0
5.5947,-4.7669e-05,0
5.5952,-6.7308e-05,0
5.5957,-0.00010155,0
5.5963,-0.00015744,0
5.5968,-0.00022626,0
5.5973,-0.00026084,0
5.5978,-0.00024909,0
5.5983,-0.00023365,0
5.5989,-0.00023465,0
5.5994,-0.00022744,0
5.5999,-0.00019269,0
5.6004,-0.00013747,0
5.6009,-6.6972e-05,0
5.6015,5.539e-06,0
5.602,6.0258e-05,0
5.6025,9.6178e-05,0
5.603,0.00012303,0
5.6035,0.00013042,0
5.6041,0.0001086,0
5.6046,7.9393e-05,0
5.6051,0.00010491,0
5.6056,0.00020041,0
5.6061,0.00030867,0
5.6067,0.00036239,0
5.6072,0.00034678,0
5.6077,0.00028971,0
5.6082,0.00022979,0
5.6087,0.00019168,0
5.6093,0.00017037,0
5.6098,0.00014586,0
5.6103,9.5842e-05,0
5.6108,8.5603e-06,0
5.6113,-0.00010188,0
5.6118,-0.00019101,0
5.6124,-0.00022676,0
5.6129,-0.00021451,0
5.6134,-0.00017423,0
5.6139,-0.00012773,0
5.6144,-8.51e-05,0
5.615,-4.3137e-05,0
5.6155,1.5106e-06,0
5.616,4.1123e-05,0
5.6165,7.0329e-05,0
5.617,9.0806e-05,0
5.6176,0.00010726,0
5.6181,0.000118,0
5.6186,0.00011632,0
5.6191,0.00010054,0
5.6196,7.5532e-05,0
5.6202,4.9348e-05,0
5.6207,3.2059e-05,0
5.6212,2.2995e-05,0
5.6217,1.0071e-05,0
5.6222,-8.896e-06,0
5.6227,-2.1988e-05,0
5.6233,-2.1317e-05,0
5.6238,-1.3092e-05,0
5.6243,-3.1891e-06,0
5.6248,9.2317e-06,0
5.6253,3.0716e-05,0
5.6259,4.7166e-05,0
5.6264,3.8437e-05,0
5.6269,1.9135e-05,0
5.6274,1.796e-05,0
5.6279,4.8173e-05,0
5.6285,9.8192e-05,0
5.629,0.0001368,0
5.6295,0.00014435,0
5.63,0.00012454,0
5.6305,9.5842e-05,0
5.6311,6.3279e-05,0
5.6316,2.1988e-05,0
5.6321,-2.9374e-05,0
5.6326,-7.2679e-05,0
5.6331,-9.1981e-05,0
5.6337,-9.4163e-05,0
5.6342,-9.3828e-05,0
5.6347,-9.1478e-05,0
5.6352,-9.0806e-05,0
5.6357,-9.0303e-05,0
5.6363,-7.9225e-05,0
5.6368,-5.5222e-05,0
5.6373,-2.7695e-05,0
5.6378,-5.539e-06,0
5.6383,1.0575e-05,0
5.6388,2.3667e-05,0
5.6394,2.9374e-05,0
5.6399,2.6688e-05,0
5.6404,2.8367e-05,0
5.6409,4.3473e-05,0
5.6414,6.4118e-05,0
5.642,8.2414e-05,0
5.6425,9.8024e-05,0
5.643,0.00011733,0
5.6435,0.00013361,0
5.644,0.00013227,0
5.6446,0.00012119,0
5.6451,0.00011397,0
5.6456,0.00010709,0
5.6461,8.6442e-05,0
5.6466,4.3137e-05,0
5.6472,-2.3667e-05,0
5.6477,-0.00010306,0
5.6482,-0.00017272,0
5.6487,-0.0002177,0
5.6492,-0.00023818,0
5.6498,-0.00023465,0
5.6503,-0.00020897,0
5.6508,-0.0001697,0
5.6513,-0.0001331,0
5.6518,-9.9535e-05,0
5.6523,-5.3544e-05,0
5.6529,1.5946e-05,0
5.6534,8.9128e-05,0
5.6539,0.00014989,0
5.6544,0.00020327,0
5.6549,0.00025412,0
5.6555,0.00029021,0
5.656,0.00029189,0
5.6565,0.00026503,0
5.657,0.00023079,0
5.6575,0.00019437,0
5.6581,0.00015023,0
5.6586,0.00010658,0
5.6591,6.6804e-05,0
5.6596,2.6184e-05,0
5.6601,-1.4603e-05,0
5.6607,-4.8508e-05,0
5.6612,-6.3615e-05,0
5.6617,-6.1601e-05,0
5.6622,-6.1936e-05,0
5.6627,-6.8147e-05,0
5.6632,-7.2511e-05,0
5.6638,-6.479e-05,0
5.6643,-4.5823e-05,0
5.6648,-1.4771e-05,0
5.6653,2.5849e-05,0
5.6658,6.1601e-05,0
5.6664,8.8121e-05,0
5.6669,0.00011363,0
5.6674,0.00012605,0
5.6679,0.00010893,0
5.6684,7.1e-05,0
5.669,3.5416e-05,0
5.6695,1.1917e-05,0
5.67,-1.8463e-06,0
5.6705,1.1246e-05,0
5.671,6.9657e-05,0
5.6716,0.0001462,0
5.6721,0.00019084,0
5.6726,0.00017389,0
5.6731,9.7688e-05,0
5.6736,-5.8747e-06,0
5.6742,-6.8315e-05,0
5.6747,-5.4551e-05,0
5.6752,-6.0426e-06,0
5.6757,2.031e-05,0
5.6762,-8.3925e-06,0
5.6768,-0.00010726,0
5.6773,-0.00025261,0
5.6778,-0.00037414,0
5.6783,-0.00040771,0
5.6788,-0.00034409,0
5.6793,-0.00023381,0
5.6799,-0.00013394,0
5.6804,-7.805e-05,0
5.6809,-6.6636e-05,0
5.6814,-8.0903e-05,0
5.6819,-9.752e-05,0
5.6825,-0.00010105,0
5.683,-8.896e-05,0
5.6835,-7.335e-05,0
5.684,-5.7572e-05,0
5.6845,-3.4241e-05,0
5.6851,4.6998e-06,0
5.6856,6.1265e-05,0
5.6861,0.00013109,0
5.6866,0.00019387,0
5.6871,0.00023986,0
5.6877,0.00027309,0
5.6882,0.00028182,0
5.6887,0.00026268,0
5.6892,0.00023751,0
5.6897,0.00021468,0
5.6902,0.00017507,0
5.6908,0.00012236,0
5.6913,8.04e-05,0
5.6918,8.04e-05,0
5.6923,0.00012924,0
5.6928,0.00019219,0
5.6934,0.00023079,0
5.6939,0.00023684,0
5.6944,0.00022542,0
5.6949,0.00021065,0
5.6954,0.00018984,0
5.696,0.00015627,0
5.6965,0.00011397,0
5.697,6.8986e-05,0
5.6975,2.5345e-05,0
5.698,-1.7624e-05,0
5.6986,-6.6636e-05,0
5.6991,-0.0001138,0
5.6996,-0.0001462,0
5.7001,-0.00017003,0
5.7006,-0.00019823,0
5.7012,-0.00022525,0
5.7017,-0.0002407,0
5.7022,-0.00023062,0
5.7027,-0.00019689,0
5.7032,-0.00015962,0
5.7038,-0.00012102,0
5.7043,-6.5965e-05,0
5.7048,-1.6785e-07,0
5.7053,6.3279e-05,0
5.7058,0.00012438,0
5.7063,0.00018514,0
5.7069,0.00022995,0
5.7074,0.00024221,0
5.7079,0.00022106,0
5.7084,0.00017943,0
5.7089,0.00012807,0
5.7095,7.2343e-05,0
5.71,2.9877e-05,0
5.7105,6.2104e-06,0
5.711,-1.4267e-05,0
5.7115,-4.4984e-05,0
5.7121,-8.1071e-05,0
5.7126,-0.00010356,0
5.7131,-9.3828e-05,0
5.7136,-5.1194e-05,0
5.7141,6.2104e-06,0
5.7147,6.7979e-05,0
5.7152,0.00012454,0
5.7157,0.00016281,0
5.7162,0.00017305,0
5.7167,0.00015258,0
5.7172,0.00011884,0
5.7178,8.7114e-05,0
5.7183,5.8915e-05,0
5.7188,2.1317e-05,0
5.7193,-4.0452e-05,0
5.7198,-0.00012303,0
5.7204,-0.00020125,0
5.7209,-0.000236,0
5.7214,-0.00021149,0
5.7219,-0.00014519,0
5.7224,-6.9657e-05,0
5.723,-1.0239e-05,0
5.7235,2.9206e-05,0
5.724,4.918e-05,0
5.7245,5.8244e-05,0
5.725,5.9754e-05,0
5.7256,4.4984e-05,0
5.7261,1.796e-05,0
5.7266,-7.2175e-06,0
5.7271,-2.3331e-05,0
5.7276,-3.7095e-05,0
5.7282,-5.6565e-05,0
5.7287,-7.5364e-05,0
5.7292,-7.1168e-05,0
5.7297,-3.5752e-05,0
5.7302,1.3428e-05,0
5.7307,4.7501e-05,0
5.7313,6.2943e-05,0
5.7318,7.3854e-05,0
5.7323,9.1142e-05,0
5.7328,0.00011699,0
5.7333,0.000142,0
5.7339,0.00015677,0
5.7344,0.00016046,0
5.7349,0.00015073,0
5.7354,0.00013529,0
5.7359,0.000118,0
5.7365,8.9128e-05,0
5.737,4.9516e-05,0
5.7375,1.1246e-05,0
5.738,-1.8631e-05,0
5.7385,-4.1627e-05,0
5.7391,-7.1336e-05,0
5.7396,-0.0001133,0
5.7401,-0.00015006,0
5.7406,-0.00016248,0
5.7411,-0.00014939,0
5.7417,-0.00011917,0
5.7422,-7.9057e-05,0
5.7427,-3.9948e-05,0
5.7432,-9.5674e-06,0
5.7437,1.0071e-05,0
5.7443,2.0981e-05,0
5.7448,2.8534e-05,0
5.7453,3.8773e-05,0
5.7458,5.153e-05,0
5.7463,6.63e-05,0
5.7468,8.04e-05,0
5.7474,9.5338e-05,0
5.7479,9.9199e-05,0
5.7484,7.9057e-05,0
5.7489,4.4816e-05,0
5.7494,2.3835e-05,0
5.75,1.5274e-05,0
5.7505,-1.1246e-05,0
5.751,-6.4286e-05,0
5.7515,-0.00011615,0
5.752,-0.00013361,0
5.7526,-9.5506e-05,0
5.7531,5.539e-06,0
5.7536,0.00014133,0
5.7541,0.00025765,0
5.7546,0.00031975,0
5.7552,0.0003268,0
5.7557,0.00029508,0
5.7562,0.00022475,0
5.7567,0.00014116,0
5.7572,8.9128e-05,0
5.7577,7.7714e-05,0
5.7583,7.3014e-05,0
5.7588,2.8199e-05,0
5.7593,-6.6972e-05,0
5.7598,-0.00017574,0
5.7603,-0.00024053,0
5.7609,-0.00022609,0
5.7614,-0.00016265,0
5.7619,-8.4092e-05,0
5.7624,-4.1962e-06,0
5.7629,6.1601e-05,0
5.7635,0.00010826,0
5.764,0.00013696,0
5.7645,0.0001514,0
5.765,0.00016634,0
5.7655,0.00018598,0
5.7661,0.0001744,0
5.7666,0.00011095,0
5.7671,2.2492e-05,0
5.7676,-5.5055e-05,0
5.7681,-0.00010658,0
5.7687,-0.00012337,0
5.7692,-0.00011884,0
5.7697,-0.00011447,0
5.7702,-0.00011632,0
5.7707,-0.00012538,0
5.7713,-0.00013411,0
5.7718,-0.00013982,0
5.7723,-0.00014553,0
5.7728,-0.000142,0
5.7733,-0.00011162,0
5.7738,-5.2873e-05,0
5.7744,1.4603e-05,0
5.7749,6.2943e-05,0
5.7754,7.6707e-05,0
5.7759,8.04e-05,0
5.7764,9.7856e-05,0
5.777,0.0001326,0
5.7775,0.00017372,0
5.778,0.00018715,0
5.7785,0.00015392,0
5.779,0.00010021,0
5.7796,5.2705e-05,0
5.7801,2.266e-05,0
5.7806,1.3092e-05,0
5.7811,2.1149e-05,0
5.7816,4.1962e-05,0
5.7822,6.4286e-05,0
5.7827,6.8147e-05,0
5.7832,5.9419e-05,0
5.7837,5.8579e-05,0
5.7842,6.244e-05,0
5.7847,6.4118e-05,0
5.7853,6.1265e-05,0
5.7858,5.153e-05,0
5.7863,3.9109e-05,0
5.7868,2.7192e-05,0
5.7873,1.2589e-05,0
5.7879,-1.8463e-06,0
5.7884,-9.9031e-06,0
5.7889,-9.0639e-06,0
5.7894,-3.1891e-06,0
5.7899,-5.3712e-06,0
5.7905,-1.4939e-05,0
5.791,-2.9709e-05,0
5.7915,-4.7837e-05,0
5.792,-6.2272e-05,0
5.7925,-7.0161e-05,0
5.7931,-7.0329e-05,0
5.7936,-5.4215e-05,0
5.7941,-1.4435e-05,0
5.7946,3.3738e-05,0
5.7951,7.4525e-05,0
5.7957,0.00011028,0
5.7962,0.00013579,0
5.7967,0.00013747,0
5.7972,0.00011968,0
5.7977,9.5171e-05,0
5.7983,7.6371e-05,0
5.7988,7.0665e-05,0
5.7993,6.3279e-05,0
5.7998,3.9612e-05,0
5.8003,8.896e-06,0
5.8008,-1.1917e-05,0
5.8014,-1.9135e-05,0
5.8019,-1.7288e-05,0
5.8024,-1.4771e-05,0
5.8029,-1.6617e-05,0
5.8034,-1.7288e-05,0
5.804,-1.1246e-05,0
5.8045,-2.5177e-06,0
5.805,4.8676e-06,0
5.8055,2.0142e-06,0
5.806,-1.5106e-06,0
5.8066,1.4435e-05,0
5.8071,4.0284e-05,0
5.8076,6.3615e-05,0
5.8081,8.1071e-05,0
5.8086,9.4499e-05,0
5.8092,0.00010927,0
5.8097,0.00012773,0
5.8102,0.00013814,0
5.8107,0.00013327,0
5.8112,0.00011061,0
5.8117,8.1743e-05,0
5.8123,5.7908e-05,0
5.8128,3.3402e-05,0
5.8133,3.0213e-06,0
5.8138,-3.2395e-05,0
5.8143,-7.3518e-05,0
5.8149,-0.00012068,0
5.8154,-0.00015811,0
5.8159,-0.00017339,0
5.8164,-0.00016399,0
5.8169,-0.000118,0
5.8175,-2.501e-05,0
5.818,8.1071e-05,0
5.8185,0.00015224,0
5.819,0.000165,0
5.8195,0.00013478,0
5.8201,8.8792e-05,0
5.8206,4.2802e-05,0
5.8211,5.0355e-06,0
5.8216,-2.1988e-05,0
5.8221,-3.508e-05,0
5.8227,-4.683e-05,0
5.8232,-7.9393e-05,0
5.8237,-0.0001232,0
5.8242,-0.00014788,0
5.8247,-0.00014049,0
5.8252,-0.00011447,0
5.8258,-9.1142e-05,0
5.8263,-7.0497e-05,0
5.8268,-5.069e-05,0
5.8273,-4.1794e-05,0
5.8278,-5.1698e-05,0
5.8284,-6.9993e-05,0
5.8289,-7.2343e-05,0
5.8294,-6.1097e-05,0
5.8299,-4.5823e-05,0
5.8304,-2.4842e-05,0
5.831,9.7353e-06,0
5.8315,5.3376e-05,0
5.832,9.7856e-05,0
5.8325,0.00012639,0
5.833,0.00012605,0
5.8336,0.00010373,0
5.8341,8.426e-05,0
5.8346,9.5003e-05,0
5.8351,0.00012673,0
5.8356,0.00014989,0
5.8362,0.0001467,0
5.8367,0.00011464,0
5.8372,7.335e-05,0
5.8377,4.8341e-05,0
5.8382,4.8844e-05,0
5.8388,5.8076e-05,0
5.8393,4.8844e-05,0
5.8398,1.7792e-05,0
5.8403,-1.8631e-05,0
5.8408,-4.3137e-05,0
5.8413,-3.9277e-05,0
5.8419,-1.2924e-05,0
5.8424,1.2253e-05,0
5.8429,2.7863e-05,0
5.8434,5.1865e-05,0
5.8439,9.0303e-05,0
5.8445,0.00012941,0
5.845,0.0001462,0
5.8455,0.00012656,0
5.846,7.8721e-05,0
5.8465,1.9638e-05,0
5.8471,-1.9303e-05,0
5.8476,-1.6953e-05,0
5.8481,1.4939e-05,0
5.8486,4.1459e-05,0
5.8491,5.1698e-05,0
5.8497,6.8986e-05,0
5.8502,0.00011095,0
5.8507,0.0001603,0
5.8512,0.00019857,0
5.8517,0.00020897,0
5.8522,0.00017641,0
5.8528,0.00011061,0
5.8533,4.5823e-05,0
5.8538,-2.8534e-06,0
5.8543,-3.6759e-05,0
5.8548,-4.9683e-05,0
5.8554,-3.7095e-05,0
5.8559,-2.2324e-05,0
5.8564,-3.2898e-05,0
5.8569,-6.2943e-05,0
5.8574,-8.896e-05,0
5.858,-9.4835e-05,0
5.8585,-8.6778e-05,0
5.859,-7.6371e-05,0
5.8595,-6.4454e-05,0
5.86,-4.9516e-05,0
5.8606,-3.508e-05,0
5.8611,-3.4241e-05,0
5.8616,-5.4215e-05,0
5.8621,-7.9393e-05,0
5.8626,-7.4189e-05,0
5.8632,-3.3402e-05,0
5.8637,1.561e-05,0
5.8642,5.623e-05,0
5.8647,9.4499e-05,0
5.8652,0.0001368,0
5.8658,0.00018866,0
5.8663,0.00025144,0
5.8668,0.00029491,0
5.8673,0.00027846,0
5.8678,0.00020797,0
5.8683,0.00011263,0
5.8689,1.8296e-05,0
5.8694,-5.1362e-05,0
5.8699,-9.0974e-05,0
5.8704,-0.0001237,0
5.8709,-0.00015946,0
5.8715,-0.00018581,0
5.872,-0.00017893,0
5.8725,-0.00012454,0
5.873,-5.5558e-05,0
5.8735,-1.561e-05,0
5.8741,-1.7624e-05,0
5.8746,-4.213e-05,0
5.8751,-5.4551e-05,0
5.8756,-4.5991e-05,0
5.8761,-3.4241e-05,0
5.8767,-3.0381e-05,0
5.8772,-2.7359e-05,0
5.8777,-1.1078e-05,0
5.8782,7.2175e-06,0
5.8787,2.031e-05,0
5.8792,3.2731e-05,0
5.8798,3.8773e-05,0
5.8803,5.1194e-05,0
5.8808,9.3828e-05,0
5.8813,0.00015123,0
5.8818,0.00018044,0
5.8824,0.00016416,0
5.8829,0.00012303,0
5.8834,8.3085e-05,0
5.8839,6.5293e-05,0
5.8844,7.0665e-05,0
5.885,7.3686e-05,0
5.8855,4.2802e-05,0
5.886,-2.9877e-05,0
5.8865,-0.00012689,0
5.887,-0.00021619,0
5.8876,-0.00026386,0
5.8881,-0.00025144,0
5.8886,-0.00019756,0
5.8891,-0.00013529,0
5.8896,-8.2414e-05,0
5.8902,-3.4745e-05,0
5.8907,2.5345e-05,0
5.8912,9.7856e-05,0
5.8917,0.000165,0
5.8922,0.00021065,0
5.8928,0.00021854,0
5.8933,0.00018212,0
5.8938,0.00011565,0
5.8943,4.2802e-05,0
5.8948,-6.8818e-06,0
5.8953,-1.796e-05,0
5.8959,-7.5532e-06,0
5.8964,-1.6785e-07,0
5.8969,-3.357e-07,0
5.8974,7.8889e-06,0
5.8979,3.7934e-05,0
5.8985,8.1743e-05,0
5.899,0.0001373,0
5.8995,0.00018447,0
5.9,0.00018631,0
5.9005,0.00014955,0
5.9011,0.00010927,0
5.9016,8.2414e-05,0
5.9021,6.4622e-05,0
5.9026,5.4215e-05,0
5.9031,5.2873e-05,0
5.9037,4.7837e-05,0
5.9042,1.7624e-05,0
5.9047,-3.3738e-05,0
5.9052,-8.1743e-05,0
5.9057,-0.00011229,0
5.9062,-0.00011783,0
5.9068,-9.1142e-05,0
5.9073,-4.8508e-05,0
5.9078,-2.266e-05,0
5.9083,-2.0645e-05,0
5.9088,-2.031e-05,0
5.9094,-6.2104e-06,0
5.9099,9.7353e-06,0
5.9104,1.4435e-05,0
5.9109,1.1917e-05,0
5.9114,1.326e-05,0
5.912,1.796e-05,0
5.9125,1.7121e-05,0
5.913,1.1582e-05,0
5.9135,1.7624e-05,0
5.914,3.8437e-05,0
5.9146,5.3544e-05,0
5.9151,5.0187e-05,0
5.9156,3.7934e-05,0
5.9161,2.1317e-05,0
5.9166,5.2033e-06,0
5.9172,-1.5106e-06,0
5.9177,1.5106e-06,0
5.9182,1.5946e-05,0
5.9187,3.8773e-05,0
5.9192,5.6733e-05,0
5.9197,7.4357e-05,0
5.9203,0.00010574,0
5.9208,0.00014452,0
5.9213,0.00017557,0
5.9218,0.00018296,0
5.9223,0.00016097,0
5.9229,0.00012253,0
5.9234,8.5771e-05,0
5.9239,6.4286e-05,0
5.9244,4.8173e-05,0
5.9249,2.5345e-05,0
5.9255,-4.3641e-06,0
5.926,-3.0381e-05,0
5.9265,-4.2466e-05,0
5.927,-3.3066e-05,0
5.9275,-1.1078e-05,0
5.9281,3.357e-06,0
5.9286,-7.3854e-06,0
5.9291,-4.0452e-05,0
5.9296,-6.4118e-05,0
5.9301,-5.4887e-05,0
5.9307,-3.122e-05,0
5.9312,-1.6785e-05,0
5.9317,-1.6281e-05,0
5.9322,-1.8463e-05,0
5.9327,-1.7288e-05,0
5.9333,-1.0239e-05,0
5.9338,2.6856e-06,0
5.9343,2.8031e-05,0
5.9348,7.3686e-05,0
5.9353,0.00012001,0
5.9358,0.00012203,0
5.9364,5.4215e-05,0
5.9369,-4.3977e-05,0
5.9374,-0.00011682,0
5.9379,-0.00014318,0
5.9384,-0.0001368,0
5.939,-0.00013126,0
5.9395,-0.00013075,0
5.94,-0.00010692,0
5.9405,-7.335e-05,0
5.941,-5.9586e-05,0
5.9416,-6.1097e-05,0
5.9421,-5.1194e-05,0
5.9426,-8.3925e-06,0
5.9431,4.8005e-05,0
5.9436,8.6107e-05,0
5.9442,9.8024e-05,0
5.9447,9.0471e-05,0
5.9452,7.9728e-05,0
5.9457,8.275e-05,0
5.9462,8.4428e-05,0
5.9467,4.9851e-05,0
5.9473,-1.6953e-05,0
5.9478,-7.0665e-05,0
5.9483,-7.2343e-05,0
5.9488,-2.7359e-05,0
5.9493,3.5416e-05,0
5.9499,9.1814e-05,0
5.9504,0.0001415,0
5.9509,0.00019521,0
5.9514,0.00025396,0
5.9519,0.00029055,0
5.9525,0.00026889,0
5.953,0.00021166,0
5.9535,0.00015157,0
5.954,0.00010121,0
5.9545,8.2078e-05,0
5.9551,0.00011481,0
5.9556,0.00015895,0
5.9561,0.00017809,0
5.9566,0.00016332,0
5.9571,7.9057e-05,0
5.9577,-7.1336e-05,0
5.9582,-0.00020897,0
5.9587,-0.00026923,0
5.9592,-0.00025429,0
5.9597,-0.00020041,0
5.9603,-0.00014586,0
5.9608,-0.000118,0
5.9613,-0.00012874,0
5.9618,-0.00017574,0
5.9623,-0.00023079,0
5.9628,-0.00027225,0
5.9634,-0.00031203,0
5.9639,-0.00035114,0
5.9644,-0.00035651,0
5.9649,-0.00030347,0
5.9654,-0.00020964,0
5.966,-0.00011162,0
5.9665,-3.9109e-05,0
5.967,2.5177e-06,0
5.9675,3.4745e-05,0
5.968,7.1672e-05,0
5.9686,0.00010524,0
5.9691,0.00012807,0
5.9696,0.0001472,0
5.9701,0.00016735,0
5.9706,0.00018413,0
5.9712,0.00019001,0
5.9717,0.00018346,0
5.9722,0.00016835,0
5.9727,0.00014788,0
5.9732,0.00012874,0
5.9737,0.00011128,0
5.9743,8.9464e-05,0
5.9748,7.8721e-05,0
5.9753,8.9632e-05,0
5.9758,0.00010558,0
5.9763,0.00011095,0
5.9769,0.00010994,0
5.9774,0.00011296,0
5.9779,0.00011716,0
5.9784,0.00011431,0
5.9789,0.00010591,0
5.9795,0.00010172,0
5.98,0.00010256,0
5.9805,0.00010037,0
5.981,9.1814e-05,0
5.9815,8.2414e-05,0
5.9821,7.4357e-05,0
5.9826,6.63e-05,0
5.9831,6.2608e-05,0
5.9836,6.5126e-05,0
5.9841,6.7643e-05,0
5.9847,6.5461e-05,0
5.9852,5.7572e-05,0
5.9857,4.8844e-05,0
5.9862,4.4816e-05,0
5.9867,4.3809e-05,0
5.9873,3.8437e-05,0
5.9878,3.2059e-05,0
5.9883,2.9374e-05,0
5.9888,3.0045e-05,0
5.9893,2.9709e-05,0
5.9898,2.8367e-05,0
5.9904,3.1556e-05,0
5.9909,4.1123e-05,0
5.9914,5.0858e-05,0
5.9919,5.3544e-05,0
5.9924,4.8173e-05,0
5.993,3.9109e-05,0
5.9935,3.0716e-05,0
5.994,2.6017e-05,0
5.9945,3.5752e-05,0
5.995,6.4118e-05,0
5.9956,8.426e-05,0
5.9961,7.6036e-05,0
5.9966,5.388e-05,0
5.9971,2.2492e-05,0
5.9976,-1.9303e-05,0
5.9982,-5.539e-05,0
5.9987,-7.5364e-05,0
5.9992,-8.0064e-05,0
5.9997,-7.4693e-05,0
6.0002,-6.8147e-05,0
6.0008,-7.0161e-05,0
6.0013,-8.3085e-05,0
6.0018,-9.5338e-05,0
6.0023,-8.426e-05,0
6.0028,-4.2802e-05,0
6.0033,1.1246e-05,0
6.0039,4.7837e-05,0
6.0044,5.3208e-05,0
6.0049,4.0955e-05,0
6.0054,3.3234e-05,0
6.0059,3.5248e-05,0
6.0065,4.1291e-05,0
6.007,4.7333e-05,0
6.0075,4.918e-05,0
6.008,4.448e-05,0
6.0085,4.1459e-05,0
6.0091,4.2298e-05,0
6.0096,4.1794e-05,0
6.0101,3.6927e-05,0
6.0106,3.0213e-05,0
6.0111,3.508e-05,0
6.0117,6.2272e-05,0
6.0122,9.601e-05,0
6.0127,0.00011766,0
6.0132,0.00012303,0
6.0137,0.00011363,0
6.0142,0.00010692,0
6.0148,0.0001326,0
6.0153,0.00018178,0
6.0158,0.00021669,0
6.0163,0.00020746,0
6.0168,0.00017171,0
6.0174,0.0001472,0
6.0179,0.00014284,0
6.0184,0.00015224,0
6.0189,0.0001331,0
6.0194,5.0858e-05,0
6.02,-7.3518e-05,0
6.0205,-0.00019034,0
6.021,-0.0002652,0
6.0215,-0.00028383,0
6.022,-0.00025983,0
6.0226,-0.00023868,0
6.0231,-0.00024556,0
6.0236,-0.0002741,0
6.0241,-0.000308,0
6.0246,-0.00033385,0
6.0252,-0.00034409,0
6.0257,-0.00033603,0
6.0262,-0.00031774,0
6.0267,-0.00029223,0
6.0272,-0.00024892,0
6.0278,-0.00018447,0
6.0283,-0.00012001,0
6.0288,-7.0665e-05,0
6.0293,-3.2898e-05,0
6.0298,1.8463e-06,0
6.0303,6.7643e-05,0
6.0309,0.00019051,0
6.0314,0.00034258,0
6.0319,0.00045068,0
6.0324,0.00047182,0
6.0329,0.00042953,0
6.0335,0.00036641,0
6.034,0.00030112,0
6.0345,0.00023919,0
6.035,0.00018044,0
6.0355,0.00011934,0
6.0361,3.122e-05,0
6.0366,-0.00010037,0
6.0371,-0.00024137,0
6.0376,-0.00034342,0
6.0381,-0.00038135,0
6.0387,-0.00035886,0
6.0392,-0.00029189,0
6.0397,-0.00019319,0
6.0402,-8.5939e-05,0
6.0407,-4.8676e-06,0
6.0412,4.1123e-05,0
6.0418,8.2918e-05,0
6.0423,0.0001321,0
6.0428,0.00016953,0
6.0433,0.00017641,0
6.0438,0.00015828,0
6.0444,0.00013411,0
6.0449,0.00010927,0
6.0454,8.8457e-05,0
6.0459,6.9657e-05,0
6.0464,3.7766e-05,0
6.047,-1.1749e-05,0
6.0475,-6.5461e-05,0
6.048,-0.00010608,0
6.0485,-0.00011934,0
6.049,-0.00010558,0
6.0496,-7.4861e-05,0
6.0501,-4.062e-05,0
6.0506,1.6785e-07,0
6.0511,7.0665e-05,0
6.0516,0.00017272,0
6.0522,0.0002647,0
6.0527,0.00030599,0
6.0532,0.00029659,0
6.0537,0.00026822,0
6.0542,0.00024573,0
6.0548,0.00022139,0
6.0553,0.00018044,0
6.0558,0.00012119,0
6.0563,5.5558e-05,0
6.0568,4.5319e-06,0
6.0573,-9.5674e-06,0
6.0579,2.182e-05,0
6.0584,7.2847e-05,0
6.0589,0.00011531,0
6.0594,0.00014603,0
6.0599,0.00017238,0
6.0605,0.00018849,0
6.061,0.00018144,0
6.0615,0.0001556,0
6.062,0.00012538,0
6.0625,9.6513e-05,0
6.0631,6.865e-05,0
6.0636,3.978e-05,0
6.0641,1.1917e-05,0
6.0646,-2.2492e-05,0
6.0651,-6.4286e-05,0
6.0657,-0.00010138,0
6.0662,-0.00012253,0
6.0667,-0.0001237,0
6.0672,-0.00010172,0
6.0677,-4.7166e-05,0
6.0682,4.3137e-05,0
6.0688,0.00014452,0
6.0693,0.00020729,0
6.0698,0.00021166,0
6.0703,0.00018044,0
6.0708,0.00013478,0
6.0714,8.1071e-05,0
6.0719,2.6017e-05,0
6.0724,-2.5849e-05,0
6.0729,-7.4357e-05,0
6.0734,-0.00012572,0
6.074,-0.00019303,0
6.0745,-0.00026755,0
6.075,-0.00031304,0
6.0755,-0.0003127,0
6.076,-0.00028501,0
6.0766,-0.00024707,0
6.0771,-0.00019722,0
6.0776,-0.00013126,0
6.0781,-5.4551e-05,0
6.0786,2.3667e-05,0
6.0792,9.0303e-05,0
6.0797,0.00012874,0
6.0802,0.00013109,0
6.0807,0.00011531,0
6.0812,0.00012068,0
6.0818,0.00016147,0
6.0823,0.00022408,0
6.0828,0.00027343,0
6.0833,0.00027645,0
6.0838,0.00023146,0
6.0843,0.00016953,0
6.0849,0.000118,0
6.0854,7.9728e-05,0
6.0859,2.6352e-05,0
6.0864,-5.4551e-05,0
6.0869,-0.00014469,0
6.0875,-0.000237,0
6.088,-0.00032596,0
6.0885,-0.00037816,0
6.089,-0.00036088,0
6.0895,-0.00028988,0
6.0901,-0.00020964,0
6.0906,-0.00014788,0
6.0911,-0.00010809,0
6.0916,-8.6778e-05,0
6.0921,-7.7714e-05,0
6.0927,-7.1336e-05,0
6.0932,-6.0426e-05,0
6.0937,-3.9612e-05,0
6.0942,-1.1078e-05,0
6.0947,1.5106e-05,0
6.0953,3.8102e-05,0
6.0958,6.3279e-05,0
6.0963,8.8121e-05,0
6.0968,0.00010826,0
6.0973,0.00012522,0
6.0978,0.00013931,0
6.0984,0.00014855,0
6.0989,0.00015644,0
6.0994,0.00016231,0
6.0999,0.00016332,0
6.1004,0.00016281,0
6.101,0.00016684,0
6.1015,0.00017171,0
6.102,0.00016667,0
6.1025,0.00014888,0
6.103,0.00012807,0
6.1036,0.00011263,0
6.1041,9.2149e-05,0
6.1046,4.4144e-05,0
6.1051,-1.6617e-05,0
6.1056,-6.1601e-05,0
6.1062,-9.4499e-05,0
6.1067,-0.00012773,0
6.1072,-0.00013025,0
6.1077,-7.8218e-05,0
6.1082,3.1891e-06,0
6.1087,7.0665e-05,0
6.1093,0.00011733,0
6.1098,0.00014939,0
6.1103,0.00016567,0
6.1108,0.00016684,0
6.1113,0.00016835,0
6.1119,0.00017205,0
6.1124,0.00015962,0
6.1129,0.00012538,0
6.1134,7.6539e-05,0
6.1139,3.9612e-05,0
6.1145,5.5055e-05,0
6.115,0.00011666,0
6.1155,0.00018245,0
6.116,0.00023297,0
6.1165,0.00026688,0
6.1171,0.00027846,0
6.1176,0.00025832,0
6.1181,0.00020964,0
6.1186,0.00013915,0
6.1191,6.0929e-05,0
6.1197,-2.0142e-05,0
6.1202,-0.00010121,0
6.1207,-0.00017473,0
6.1212,-0.00024137,0
6.1217,-0.00029189,0
6.1223,-0.00030968,0
6.1228,-0.00030028,0
6.1233,-0.00027695,0
6.1238,-0.00024321,0
6.1243,-0.00020142,0
6.1248,-0.00016449,0
6.1254,-0.00013579,0
6.1259,-0.00010692,0
6.1264,-7.8889e-05,0
6.1269,-5.7572e-05,0
6.1274,-4.213e-05,0
6.128,-2.6352e-05,0
6.1285,-1.0071e-05,0
6.129,3.1891e-06,0
6.1295,1.6281e-05,0
6.13,3.2059e-05,0
6.1306,5.0858e-05,0
6.1311,8.1407e-05,0
6.1316,0.0001232,0
6.1321,0.00016265,0
6.1326,0.00019252,0
6.1332,0.00019387,0
6.1337,0.00014955,0
6.1342,8.3085e-05,0
6.1347,3.0716e-05,0
6.1352,5.8747e-06,0
6.1357,4.8676e-06,0
6.1363,9.9031e-06,0
6.1368,9.7353e-06,0
6.1373,9.9031e-06,0
6.1378,9.2317e-06,0
6.1383,5.0355e-06,0
6.1389,3.8605e-06,0
6.1394,-3.8605e-06,0
6.1399,-3.7095e-05,0
6.1404,-7.2847e-05,0
6.1409,-6.8818e-05,0
6.1415,-3.0213e-05,0
6.142,-2.8534e-06,0
6.1425,-9.0639e-06,0
6.143,-2.7024e-05,0
6.1435,-2.8199e-05,0
6.1441,0,0
6.1446,6.3279e-05,0
6.1451,0.0001697,0
6.1456,0.00029995,0
6.1461,0.00039377,0
6.1467,0.0003973,0
6.1472,0.00032512,0
6.1477,0.00022794,0
6.1482,0.00013008,0
6.1487,3.978e-05,0
6.1493,-3.2731e-05,0
6.1498,-9.5506e-05,0
6.1503,-0.00017104,0
6.1508,-0.00025647,0
6.1513,-0.00034611,0
6.1518,-0.00042382,0
6.1524,-0.00044262,0
6.1529,-0.00037531,0
6.1534,-0.0002454,0
6.1539,-0.00010893,0
6.1544,-1.8296e-05,0
6.155,1.9303e-05,0
6.1555,3.122e-05,0
6.156,4.1459e-05,0
6.1565,5.4215e-05,0
6.157,6.63e-05,0
6.1576,7.4525e-05,0
6.1581,7.8218e-05,0
6.1586,7.8721e-05,0
6.1591,7.6875e-05,0
6.1596,7.3854e-05,0
6.1602,7.5364e-05,0
6.1607,8.7114e-05,0
6.1612,0.0001091,0
6.1617,0.00013143,0
6.1622,0.00013512,0
6.1627,0.00010658,0
6.1633,5.623e-05,0
6.1638,2.5177e-06,0
6.1643,-3.6927e-05,0
6.1648,-6.2104e-05,0
6.1653,-7.3182e-05,0
6.1659,-6.6468e-05,0
6.1664,-4.2466e-05,0
6.1669,5.0355e-07,0
6.1674,5.2033e-05,0
6.1679,0.00010323,0
6.1685,0.00014855,0
6.169,0.00018849,0
6.1695,0.00021233,0
6.17,0.00020595,0
6.1705,0.00017708,0
6.1711,0.00014485,0
6.1716,0.00011363,0
6.1721,8.4092e-05,0
6.1726,5.153e-05,0
6.1731,1.3931e-05,0
6.1737,-1.4939e-05,0
6.1742,-3.2898e-05,0
6.1747,-4.1123e-05,0
6.1752,-3.6423e-05,0
6.1757,-2.1485e-05,0
6.1762,-8.0568e-06,0
6.1768,-4.8676e-06,0
6.1773,7.5532e-06,0
6.1778,6.1936e-05,0
6.1783,0.00014385,0
6.1788,0.00020259,0
6.1794,0.00022928,0
6.1799,0.00024221,0
6.1804,0.00023818,0
6.1809,0.00021065,0
6.1814,0.00017305,0
6.182,0.00014133,0
6.1825,0.00010893,0
6.183,6.9657e-05,0
6.1835,1.2924e-05,0
6.184,-6.5629e-05,0
6.1846,-0.00015123,0
6.1851,-0.00021753,0
6.1856,-0.00024187,0
6.1861,-0.00023952,0
6.1866,-0.00023096,0
6.1872,-0.00020931,0
6.1877,-0.00016214,0
6.1882,-8.9464e-05,0
6.1887,-4.6998e-06,0
6.1892,6.6636e-05,0
6.1898,0.00011397,0
6.1903,0.00014553,0
6.1908,0.00015962,0
6.1913,0.00013948,0
6.1918,7.1839e-05,0
6.1923,-2.6352e-05,0
6.1929,-0.0001133,0
6.1934,-0.00015828,0
6.1939,-0.0001603,0
6.1944,-0.00013982,0
6.1949,-0.00011481,0
6.1955,-9.4667e-05,0
6.196,-7.6371e-05,0
6.1965,-5.0858e-05,0
6.197,-1.796e-05,0
6.1975,1.8296e-05,0
6.1981,5.4047e-05,0
6.1986,6.3615e-05,0
6.1991,3.3234e-05,0
6.1996,-7.3854e-06,0
6.2001,-2.1988e-05,0
6.2007,-8.896e-06,0
6.2012,1.1917e-05,0
6.2017,2.8702e-05,0
6.2022,4.7501e-05,0
6.2027,7.805e-05,0
6.2032,0.00012538,0
6.2038,0.00018279,0
6.2043,0.00022005,0
6.2048,0.00020226,0
6.2053,0.00015224,0
6.2058,0.00013008,0
6.2064,0.00015425,0
6.2069,0.00018044,0
6.2074,0.00017842,0
6.2079,0.00016432,0
6.2084,0.00014217,0
6.209,0.00010591,0
6.2095,4.9851e-05,0
6.21,-2.8031e-05,0
6.2105,-0.00011212,0
6.211,-0.00018514,0
6.2116,-0.00023365,0
6.2121,-0.0002506,0
6.2126,-0.00023616,0
6.2131,-0.00020813,0
6.2136,-0.00018262,0
6.2142,-0.00015946,0
6.2147,-0.00013898,0
6.2152,-0.00012404,0
6.2157,-0.00010574,0
6.2162,-7.5868e-05,0
6.2168,-3.5248e-05,0
6.2173,-6.0426e-06,0
6.2178,-3.8605e-06,0
6.2183,-1.1582e-05,0
6.2188,-1.5106e-05,0
6.2193,1.6785e-07,0
6.2199,5.9083e-05,0
6.2204,0.00014888,0
6.2209,0.00023952,0
6.2214,0.0002939,0
6.2219,0.00029726,0
6.2225,0.00026134,0
6.223,0.00020125,0
6.2235,0.00013713,0
6.224,8.9799e-05,0
6.2245,5.2201e-05,0
6.2251,4.1962e-06,0
6.2256,-4.6159e-05,0
6.2261,-8.1071e-05,0
6.2266,-9.5506e-05,0
6.2271,-8.6946e-05,0
6.2277,-6.479e-05,0
6.2282,-4.5487e-05,0
6.2287,-3.5248e-05,0
6.2292,-3.3738e-05,0
6.2297,-3.827e-05,0
6.2302,-4.6159e-05,0
6.2308,-5.6733e-05,0
6.2313,-7.335e-05,0
6.2318,-8.6107e-05,0
6.2323,-8.2078e-05,0
6.2328,-6.3615e-05,0
6.2334,-3.357e-05,0
6.2339,1.9974e-05,0
6.2344,0.00010054,0
6.2349,0.00018094,0
6.2354,0.00023146,0
6.236,0.00024758,0
6.2365,0.00023012,0
6.237,0.00018027,0
6.2375,0.00012203,0
6.238,8.5771e-05,0
6.2386,7.7379e-05,0
6.2391,7.9728e-05,0
6.2396,6.8147e-05,0
6.2401,3.0213e-05,0
6.2406,-1.0071e-06,0
6.2412,5.539e-06,0
6.2417,2.5345e-05,0
6.2422,2.182e-05,0
6.2427,-7.7211e-06,0
6.2432,-3.827e-05,0
6.2438,-4.6662e-05,0
6.2443,-3.1388e-05,0
6.2448,-6.8818e-06,0
6.2453,1.5106e-05,0
6.2458,2.9709e-05,0
6.2463,1.9974e-05,0
6.2469,-2.266e-05,0
6.2474,-6.7643e-05,0
6.2479,-8.4092e-05,0
6.2484,-6.8818e-05,0
6.2489,-3.743e-05,0
6.2495,-7.2175e-06,0
6.25,1.7121e-05,0
6.2505,4.4144e-05,0
6.251,7.7043e-05,0
6.2515,0.00010138,0
6.2521,0.00010105,0
6.2526,7.7714e-05,0
6.2531,4.448e-05,0
6.2536,9.9031e-06,0
6.2541,-1.7624e-05,0
6.2547,-2.8367e-05,0
6.2552,-1.8296e-05,0
6.2557,-1.3428e-06,0
6.2562,8.2246e-06,0
6.2567,1.1917e-05,0
6.2572,2.6688e-05,0
6.2578,6.1601e-05,0
6.2583,0.00010256,0
6.2588,0.00013478,0
6.2593,0.00015006,0
6.2598,0.00014166,0
6.2604,0.00010323,0
6.2609,3.743e-05,0
6.2614,-2.266e-05,0
6.2619,-4.4984e-05,0
6.2624,-4.1459e-05,0
6.263,-3.978e-05,0
6.2635,-3.9109e-05,0
6.264,-1.7121e-05,0
6.2645,2.2324e-05,0
6.265,5.7404e-05,0
6.2656,7.7714e-05,0
6.2661,8.191e-05,0
6.2666,7.1839e-05,0
6.2671,5.8244e-05,0
6.2676,4.5823e-05,0
6.2682,3.0381e-05,0
6.2687,3.1891e-06,0
6.2692,-4.0955e-05,0
6.2697,-9.6178e-05,0
6.2702,-0.00014519,0
6.2707,-0.00016751,0
6.2713,-0.000165,0
6.2718,-0.00014955,0
6.2723,-0.00013008,0
6.2728,-0.00010507,0
6.2733,-7.5868e-05,0
6.2739,-4.7837e-05,0
6.2744,-2.7863e-05,0
6.2749,-2.5177e-05,0
6.2754,-3.0045e-05,0
6.2759,-2.266e-05,0
6.2765,1.6785e-07,0
6.277,3.0045e-05,0
6.2775,5.8915e-05,0
6.278,8.04e-05,0
6.2785,0.0001039,0
6.2791,0.00013613,0
6.2796,0.00017507,0
6.2801,0.00021468,0
6.2806,0.00023616,0
6.2811,0.00022643,0
6.2817,0.00019504,0
6.2822,0.00015492,0
6.2827,0.00011716,0
6.2832,8.2414e-05,0
6.2837,4.2802e-05,0
6.2843,6.714e-06,0
6.2848,-1.2253e-05,0
6.2853,-1.5946e-05,0
6.2858,-1.6281e-05,0
6.2863,-2.2995e-05,0
6.2868,-3.3906e-05,0
6.2874,-4.3137e-05,0
6.2879,-4.3473e-05,0
6.2884,-3.0381e-05,0
6.2889,-7.0497e-06,0
6.2894,1.4603e-05,0
6.29,2.8534e-05,0
6.2905,3.9109e-05,0
6.291,5.8076e-05,0
6.2915,8.6442e-05,0
6.292,0.00010138,0
6.2926,7.6707e-05,0
6.2931,1.6281e-05,0
6.2936,-4.8508e-05,0
6.2941,-0.00010759,0
6.2946,-0.00015912,0
6.2952,-0.0001801,0
6.2957,-0.00016231,0
6.2962,-0.000118,0
6.2967,-5.7908e-05,0
6.2972,-1.3428e-06,0
6.2977,4.1459e-05,0
6.2983,6.6972e-05,0
6.2988,8.3085e-05,0
6.2993,9.4163e-05,0
6.2998,9.6513e-05,0
6.3003,9.2149e-05,0
6.3009,8.6442e-05,0
6.3014,8.2246e-05,0
6.3019,8.1071e-05,0
6.3024,7.8721e-05,0
6.3029,7.1336e-05,0
6.3035,7.3182e-05,0
6.304,8.5435e-05,0
6.3045,9.2988e-05,0
6.305,8.7617e-05,0
6.3055,7.6707e-05,0
6.3061,6.8986e-05,0
6.3066,7.1e-05,0
6.3071,7.7714e-05,0
6.3076,7.7714e-05,0
6.3081,7.2175e-05,0
6.3087,5.7572e-05,0
6.3092,2.8534e-05,0
6.3097,-3.0213e-06,0
6.3102,-1.7288e-05,0
6.3107,-1.1917e-05,0
6.3113,4.3641e-06,0
6.3118,2.0981e-05,0
6.3123,2.0478e-05,0
6.3128,-6.714e-07,0
6.3133,-2.7359e-05,0
6.3138,-3.6759e-05,0
6.3144,-2.031e-05,0
6.3149,7.3854e-06,0
6.3154,1.8967e-05,0
6.3159,7.8889e-06,0
6.3164,-1.4267e-05,0
6.317,-3.8102e-05,0
6.3175,-5.7069e-05,0
6.318,-7.1168e-05,0
6.3185,-7.9561e-05,0
6.319,-9.0974e-05,0
6.3196,-0.00011531,0
6.3201,-0.00014318,0
6.3206,-0.00015929,0
6.3211,-0.00014603,0
6.3216,-0.00010507,0
6.3222,-5.8747e-05,0
6.3227,-2.8199e-05,0
6.3232,1.1749e-06,0
6.3237,4.4816e-05,0
6.3242,8.5771e-05,0
6.3247,0.00010356,0
6.3253,9.3156e-05,0
6.3258,6.6636e-05,0
6.3263,3.8102e-05,0
6.3268,8.2246e-06,0
6.3273,-2.0478e-05,0
6.3279,-3.4409e-05,0
6.3284,-1.7624e-05,0
6.3289,2.7695e-05,0
6.3294,8.04e-05,0
6.3299,0.00012538,0
6.3305,0.0001467,0
6.331,0.00013881,0
6.3315,0.00011498,0
6.332,8.51e-05,0
6.3325,5.0858e-05,0
6.3331,2.4842e-05,0
6.3336,1.3931e-05,0
6.3341,1.7456e-05,0
6.3346,3.3066e-05,0
6.3351,5.0187e-05,0
6.3357,6.0258e-05,0
6.3362,6.0258e-05,0
6.3367,4.918e-05,0
6.3372,3.4409e-05,0
6.3377,3.0045e-05,0
6.3383,4.3305e-05,0
6.3388,6.865e-05,0
6.3393,9.2988e-05,0
6.3398,0.00010793,0
6.3403,0.00010121,0
6.3408,8.1071e-05,0
6.3414,7.3182e-05,0
6.3419,8.2246e-05,0
6.3424,8.8457e-05,0
6.3429,7.9728e-05,0
6.3434,5.8244e-05,0
6.344,3.0549e-05,0
6.3445,8.3925e-07,0
6.345,-2.9038e-05,0
6.3455,-5.4887e-05,0
6.346,-6.949e-05,0
6.3466,-8.4764e-05,0
6.3471,-0.00010474,0
6.3476,-0.00010726,0
6.3481,-8.2078e-05,0
6.3486,-5.1865e-05,0
6.3492,-4.3305e-05,0
6.3497,-5.6565e-05,0
6.3502,-6.5293e-05,0
6.3507,-4.7166e-05,0
6.3512,-8.5603e-06,0
6.3518,2.7359e-05,0
6.3523,4.683e-05,0
6.3528,5.3544e-05,0
6.3533,6.8818e-05,0
6.3538,9.8527e-05,0
6.3543,0.0001086,0
6.3549,7.7043e-05,0
6.3554,3.2059e-05,0
6.3559,3.8605e-06,0
6.3564,-2.182e-06,0
6.3569,6.5461e-06,0
6.3575,1.4603e-05,0
6.358,1.9638e-05,0
6.3585,2.8031e-05,0
6.359,2.3667e-05,0
6.3595,-8.3925e-07,0
6.3601,-2.5681e-05,0
6.3606,-3.9277e-05,0
6.3611,-5.1026e-05,0
6.3616,-7.4861e-05,0
6.3621,-0.00010642,0
6.3627,-0.00011817,0
6.3632,-9.4667e-05,0
6.3637,-5.8747e-05,0
6.3642,-2.5849e-05,0
6.3647,6.5461e-06,0
6.3652,4.9516e-05,0
6.3658,0.00010524,0
6.3663,0.00015795,0
6.3668,0.00018346,0
6.3673,0.00019135,0
6.3678,0.00021233,0
6.3684,0.00023885,0
6.3689,0.00023818,0
6.3694,0.00019823,0
6.3699,0.00013948,0
6.3704,8.7114e-05,0
6.371,4.8341e-05,0
6.3715,1.8631e-05,0
6.372,-7.8889e-06,0
6.3725,-2.3331e-05,0
6.373,-1.3764e-05,0
6.3736,2.1317e-05,0
6.3741,6.2943e-05,0
6.3746,9.1981e-05,0
6.3751,0.00011968,0
6.3756,0.00016231,0
6.3762,0.00019454,0
6.3767,0.00017842,0
6.3772,0.00012253,0
6.3777,6.8315e-05,0
6.3782,4.0116e-05,0
6.3788,1.7288e-05,0
6.3793,-1.9303e-05,0
6.3798,-6.9154e-05,0
6.3803,-0.00012471,0
6.3808,-0.00017607,0
6.3813,-0.00021837,0
6.3819,-0.00025127,0
6.3824,-0.00026503,0
6.3829,-0.00024506,0
6.3834,-0.00019219,0
6.3839,-0.00012337,0
6.3845,-5.6062e-05,0
6.385,7.2175e-06,0
6.3855,6.63e-05,0
6.386,0.00011649,0
6.3865,0.00015862,0
6.3871,0.00019991,0
6.3876,0.00022777,0
6.3881,0.00022072,0
6.3886,0.00018312,0
6.3891,0.00013075,0
6.3897,8.1407e-05,0
6.3902,3.9445e-05,0
6.3907,-5.539e-06,0
6.3912,-5.388e-05,0
6.3917,-9.0639e-05,0
6.3922,-0.00012605,0
6.3928,-0.00017624,0
6.3933,-0.00022509,0
6.3938,-0.00025261,0
6.3943,-0.00024875,0
6.3948,-0.00021149,0
6.3954,-0.00014855,0
6.3959,-7.8721e-05,0
6.3964,-1.9135e-05,0
6.3969,2.5513e-05,0
6.3974,5.0187e-05,0
6.398,5.3544e-05,0
6.3985,4.7669e-05,0
6.399,4.213e-05,0
6.3995,3.9948e-05,0
6.4,4.0284e-05,0
6.4006,3.5416e-05,0
6.4011,1.8631e-05,0
6.4016,-7.0497e-06,0
6.4021,-3.122e-05,0
6.4026,-3.8605e-05,0
6.4032,-2.5681e-05,0
6.4037,2.8534e-06,0
6.4042,2.8702e-05,0
6.4047,2.7863e-05,0
6.4052,1.2589e-05,0
6.4058,1.5442e-05,0
6.4063,4.6326e-05,0
6.4068,9.4163e-05,0
6.4073,0.00015224,0
6.4078,0.00020729,0
6.4083,0.00023684,0
6.4089,0.00023247,0
6.4094,0.00019387,0
6.4099,0.00013327,0
6.4104,8.1071e-05,0
6.4109,5.4047e-05,0
6.4115,4.5151e-05,0
6.412,4.2802e-05,0
6.4125,4.4144e-05,0
6.413,5.0523e-05,0
6.4135,5.7572e-05,0
6.4141,6.0594e-05,0
6.4146,6.4118e-05,0
6.4151,6.8482e-05,0
6.4156,6.2608e-05,0
6.4161,4.0955e-05,0
6.4167,1.326e-05,0
6.4172,-7.2175e-06,0
6.4177,-1.3092e-05,0
6.4182,-8.2246e-06,0
6.4187,5.2033e-06,0
6.4192,2.3835e-05,0
6.4198,4.4144e-05,0
6.4203,6.3447e-05,0
6.4208,8.3589e-05,0
6.4213,0.0001091,0
6.4218,0.00012992,0
6.4224,0.00012706,0
6.4229,9.9031e-05,0
6.4234,7.0329e-05,0
6.4239,6.5629e-05,0
6.4244,7.3686e-05,0
6.425,6.7308e-05,0
6.4255,4.7837e-05,0
6.426,3.743e-05,0
6.4265,3.9109e-05,0
6.427,3.9277e-05,0
6.4276,2.7863e-05,0
6.4281,7.8889e-06,0
6.4286,-1.1414e-05,0
6.4291,-3.2731e-05,0
6.4296,-6.4286e-05,0
6.4302,-0.00010088,0
6.4307,-0.00012992,0
6.4312,-0.00013646,0
6.4317,-0.00011917,0
6.4322,-8.8289e-05,0
6.4328,-4.7669e-05,0
6.4333,1.0071e-06,0
6.4338,4.4984e-05,0
6.4343,6.9322e-05,0
6.4348,7.0161e-05,0
6.4353,6.0258e-05,0
6.4359,5.4551e-05,0
6.4364,6.2943e-05,0
6.4369,8.6275e-05,0
6.4374,0.00011162,0
6.4379,0.00012706,0
6.4385,0.00012068,0
6.439,8.1071e-05,0
6.4395,1.0239e-05,0
6.44,-7.2511e-05,0
6.4405,-0.00013814,0
6.4411,-0.00017809,0
6.4416,-0.00020343,0
6.4421,-0.00021317,0
6.4426,-0.00018866,0
6.4431,-0.0001133,0
6.4437,-1.3428e-06,0
6.4442,0.00010188,0
6.4447,0.00016097,0
6.4452,0.00015929,0
6.4457,0.00011246,0
6.4463,6.9657e-05,0
6.4468,5.4551e-05,0
6.4473,5.4887e-05,0
6.4478,4.6494e-05,0
6.4483,4.3641e-06,0
6.4488,-7.7714e-05,0
6.4494,-0.00016164,0
6.4499,-0.00020763,0
6.4504,-0.00021233,0
6.4509,-0.0001942,0
6.4514,-0.0001707,0
6.452,-0.0001514,0
6.4525,-0.00013713,0
6.453,-0.00011817,0
6.4535,-8.5939e-05,0
6.454,-4.2802e-05,0
6.4546,2.5177e-06,0
6.4551,5.0187e-05,0
6.4556,9.9199e-05,0
6.4561,0.0001467,0
6.4566,0.00018363,0
6.4572,0.00019722,0
6.4577,0.00018682,0
6.4582,0.00016365,0
6.4587,0.00013948,0
6.4592,0.00012068,0
6.4597,0.0001086,0
6.4603,9.987e-05,0
6.4608,9.1814e-05,0
6.4613,8.6946e-05,0
6.4618,8.6946e-05,0
6.4623,9.3156e-05,0
6.4629,0.00010491,0
6.4634,0.00011028,0
6.4639,0.00010776,0
6.4644,0.00010558,0
6.4649,0.00010541,0
6.4655,9.752e-05,0
6.466,8.4092e-05,0
6.4665,7.8721e-05,0
6.467,9.2149e-05,0
6.4675,0.00010524,0
6.4681,8.6946e-05,0
6.4686,3.508e-05,0
6.4691,-2.9709e-05,0
6.4696,-7.7043e-05,0
6.4701,-9.1142e-05,0
6.4707,-8.2246e-05,0
6.4712,-6.2943e-05,0
6.4717,-3.4073e-05,0
6.4722,-3.8605e-06,0
6.4727,1.5106e-05,0
6.4733,2.1988e-05,0
6.4738,2.2156e-05,0
6.4743,1.7624e-05,0
6.4748,1.0239e-05,0
6.4753,7.3854e-06,0
6.4758,9.2317e-06,0
6.4764,1.0239e-05,0
6.4769,7.2175e-06,0
6.4774,-3.8605e-06,0
6.4779,-3.4409e-05,0
6.4784,-7.8386e-05,0
6.479,-0.0001091,0
6.4795,-0.00010944,0
6.48,-8.1743e-05,0
6.4805,-3.0549e-05,0
6.481,3.2059e-05,0
6.4816,9.4667e-05,0
6.4821,0.00015425,0
6.4826,0.00020696,0
6.4831,0.00024019,0
6.4836,0.00024221,0
6.4842,0.00020931,0
6.4847,0.00014989,0
6.4852,8.3085e-05,0
6.4857,3.0716e-05,0
6.4862,-1.1749e-06,0
6.4867,-2.266e-05,0
6.4873,-3.8605e-05,0
6.4878,-3.6088e-05,0
6.4883,-1.1414e-05,0
6.4888,1.7624e-05,0
6.4893,3.7095e-05,0
6.4899,4.1962e-05,0
6.4904,3.1556e-05,0
6.4909,9.9031e-06,0
6.4914,-1.0742e-05,0
6.4919,-2.3163e-05,0
6.4925,-2.7024e-05,0
6.493,-1.9974e-05,0
6.4935,-1.6617e-05,0
6.494,-2.4506e-05,0
6.4945,-2.6352e-05,0
6.4951,-2.2156e-05,0
6.4956,-2.9877e-05,0
6.4961,-4.1794e-05,0
6.4966,-3.6423e-05,0
6.4971,-4.3641e-06,0
6.4977,2.9206e-05,0
6.4982,2.5345e-05,0
6.4987,-1.6785e-05,0
6.4992,-6.63e-05,0
6.4997,-9.6849e-05,0
6.5003,-0.00010524,0
6.5008,-0.00010944,0
6.5013,-0.00011884,0
6.5018,-0.00012438,0
6.5023,-0.0001091,0
6.5028,-6.7979e-05,0
6.5034,-2.4506e-05,0
6.5039,-1.5778e-05,0
6.5044,-3.7095e-05,0
6.5049,-4.5151e-05,0
6.5054,-1.7792e-05,0
6.506,1.8631e-05,0
6.5065,3.5584e-05,0
6.507,2.8367e-05,0
6.5075,4.8676e-06,0
6.508,-1.8631e-05,0
6.5086,-2.9374e-05,0
6.5091,-2.9374e-05,0
6.5096,-2.8534e-05,0
6.5101,-2.6688e-05,0
6.5106,-1.4267e-05,0
6.5112,1.1246e-05,0
6.5117,4.1962e-05,0
6.5122,8.3421e-05,0
6.5127,0.00013764,0
6.5132,0.00018312,0
6.5137,0.00020092,0
6.5143,0.00018816,0
6.5148,0.00016097,0
6.5153,0.00013378,0
6.5158,0.00011514,0
6.5163,0.00010474,0
6.5169,9.0974e-05,0
6.5174,6.2943e-05,0
6.5179,2.9374e-05,0
6.5184,-5.539e-06,0
6.5189,-4.7669e-05,0
6.5195,-9.0806e-05,0
6.52,-0.00011011,0
6.5205,-9.5171e-05,0
6.521,-5.8579e-05,0
6.5215,-2.5681e-05,0
6.5221,-1.0407e-05,0
6.5226,-1.1582e-05,0
6.5231,-1.9638e-05,0
6.5236,-2.4842e-05,0
6.5241,-2.7695e-05,0
6.5247,-3.1556e-05,0
6.5252,-4.213e-05,0
6.5257,-5.539e-05,0
6.5262,-6.1433e-05,0
6.5267,-5.6565e-05,0
6.5273,-3.9445e-05,0
6.5278,-1.0239e-05,0
6.5283,2.9709e-05,0
6.5288,7.1e-05,0
6.5293,0.00010507,0
6.5298,0.00013579,0
6.5304,0.00015828,0
6.5309,0.00015828,0
6.5314,0.00013176,0
6.5319,9.366e-05,0
6.5324,6.0929e-05,0
6.533,3.5248e-05,0
6.5335,1.1078e-05,0
6.534,-1.2924e-05,0
6.5345,-2.887e-05,0
6.535,-3.8102e-05,0
6.5356,-5.2537e-05,0
6.5361,-8.5771e-05,0
6.5366,-0.00012807,0
6.5371,-0.00015123,0
6.5376,-0.00013948,0
6.5382,-0.00010272,0
6.5387,-6.5629e-05,0
6.5392,-4.4144e-05,0
6.5397,-4.3473e-05,0
6.5402,-5.8579e-05,0
6.5408,-7.3686e-05,0
6.5413,-7.5364e-05,0
6.5418,-6.9657e-05,0
6.5423,-6.1265e-05,0
6.5428,-4.5319e-05,0
6.5433,-2.031e-05,0
6.5439,6.8818e-06,0
6.5444,3.0213e-05,0
6.5449,4.7501e-05,0
6.5454,5.623e-05,0
6.5459,5.153e-05,0
6.5465,3.7095e-05,0
6.547,2.9038e-05,0
6.5475,4.062e-05,0
6.548,6.0929e-05,0
6.5485,7.4022e-05,0
6.5491,7.8218e-05,0
6.5496,8.2414e-05,0
6.5501,8.7785e-05,0
6.5506,8.6442e-05,0
6.5511,7.4357e-05,0
6.5517,5.7572e-05,0
6.5522,4.8173e-05,0
6.5527,5.4215e-05,0
6.5532,6.5293e-05,0
6.5537,6.4958e-05,0
6.5542,5.4719e-05,0
6.5548,4.8173e-05,0
6.5553,5.8915e-05,0
6.5558,9.1814e-05,0
6.5563,0.00012706,0
6.5568,0.00013579,0
6.5574,0.00011363,0
6.5579,8.4932e-05,0
6.5584,6.2943e-05,0
6.5589,4.8173e-05,0
6.5594,3.743e-05,0
6.56,3.1891e-05,0
6.5605,3.7095e-05,0
6.561,5.7069e-05,0
6.5615,7.8889e-05,0
6.562,7.1672e-05,0
6.5626,2.5849e-05,0
6.5631,-3.3738e-05,0
6.5636,-8.3925e-05,0
6.5641,-0.00012236,0
6.5646,-0.00015258,0
6.5652,-0.00017507,0
6.5657,-0.00018564,0
6.5662,-0.00017658,0
6.5667,-0.0001462,0
6.5672,-9.7185e-05,0
6.5678,-3.2059e-05,0
6.5683,3.2395e-05,0
6.5688,7.7379e-05,0
