2.849,1.2085e-05,0
2.8495,1.4267e-05,0
2.8501,1.7288e-05,0
2.8506,2.2492e-05,0
2.8511,3.2059e-05,0
2.8516,3.6088e-05,0
2.8521,3.2731e-05,0
2.8527,2.9374e-05,0
2.8532,3.1556e-05,0
2.8537,3.6591e-05,0
2.8542,4.2466e-05,0
2.8547,4.2802e-05,0
2.8552,3.4409e-05,0
2.8558,2.5681e-05,0
2.8563,1.9974e-05,0
2.8568,1.1749e-05,0
2.8573,-1.0071e-06,0
2.8578,-9.5674e-06,0
2.8584,-1.3092e-05,0
2.8589,-1.8463e-05,0
2.8594,-2.6856e-05,0
2.8599,-3.3234e-05,0
2.8604,-3.3906e-05,0
2.861,-3.1724e-05,0
2.8615,-3.1388e-05,0
2.862,-2.9038e-05,0
2.8625,-2.1149e-05,0
2.863,-7.5532e-06,0
2.8636,4.3641e-06,0
2.8641,1.2589e-05,0
2.8646,2.3163e-05,0
2.8651,3.6759e-05,0
2.8656,4.8508e-05,0
2.8662,5.0858e-05,0
2.8667,4.2802e-05,0
2.8672,3.3906e-05,0
2.8677,3.0549e-05,0
2.8682,2.9038e-05,0
2.8687,2.9038e-05,0
2.8693,3.2731e-05,0
2.8698,3.5248e-05,0
2.8703,3.1891e-05,0
2.8708,2.7863e-05,0
2.8713,2.5177e-05,0
2.8719,2.3835e-05,0
2.8724,2.5681e-05,0
2.8729,2.8702e-05,0
2.8734,2.8367e-05,0
2.8739,2.4674e-05,0
2.8745,2.0478e-05,0
2.875,1.796e-05,0
2.8755,1.7288e-05,0
2.876,7.5532e-06,0
2.8765,-1.3092e-05,0
2.8771,-3.6759e-05,0
2.8776,-5.4215e-05,0
2.8781,-5.9251e-05,0
2.8786,-4.9516e-05,0
2.8791,-3.2059e-05,0
2.8797,-1.6281e-05,0
2.8802,-1.5106e-06,0
2.8807,2.8031e-05,0
2.8812,7.8386e-05,0
2.8817,0.00012706,0
2.8822,0.00015325,0
2.8828,0.00014553,0
2.8833,0.00011632,0
2.8838,8.6442e-05,0
2.8843,5.623e-05,0
2.8848,2.4002e-05,0
2.8854,1.6785e-06,0
2.8859,-3.5248e-06,0
2.8864,-1.6785e-07,0
2.8869,8.896e-06,0
2.8874,2.2995e-05,0
2.888,3.6591e-05,0
2.8885,5.0019e-05,0
2.889,7.4022e-05,0
2.8895,0.00010491,0
2.89,0.00012639,0
2.8906,0.0001237,0
2.8911,9.6849e-05,0
2.8916,6.8482e-05,0
2.8921,5.8244e-05,0
2.8926,6.3615e-05,0
2.8932,7.7211e-05,0
2.8937,8.7953e-05,0
2.8942,8.8792e-05,0
2.8947,7.5029e-05,0
2.8952,4.6159e-05,0
2.8958,1.3931e-05,0
2.8963,-1.6617e-05,0
2.8968,-4.6494e-05,0
2.8973,-7.6707e-05,0
2.8978,-0.00010541,0
2.8983,-0.00012068,0
2.8989,-0.00011363,0
2.8994,-8.6778e-05,0
2.8999,-5.6397e-05,0
2.9004,-3.6927e-05,0
2.9009,-2.2492e-05,0
2.9015,1.8463e-06,0
2.902,1.9638e-05,0
2.9025,9.2317e-06,0
2.903,-8.3925e-07,0
2.9035,3.5248e-06,0
2.9041,-2.182e-06,0
2.9046,-1.8967e-05,0
2.9051,-2.2156e-05,0
2.9056,-6.714e-06,0
2.9061,1.5274e-05,0
2.9067,3.9948e-05,0
2.9072,8.4092e-05,0
2.9077,0.00014955,0
2.9082,0.00019924,0
2.9087,0.00020562,0
2.9093,0.00018044,0
2.9098,0.0001509,0
2.9103,0.00012874,0
2.9108,0.00011061,0
2.9113,8.8792e-05,0
2.9118,6.244e-05,0
2.9124,3.4745e-05,0
2.9129,9.9031e-06,0
2.9134,-5.539e-06,0
2.9139,-7.2175e-06,0
2.9144,2.0142e-06,0
2.915,9.7353e-06,0
2.9155,7.7211e-06,0
2.916,-2.182e-06,0
2.9165,-1.2757e-05,0
2.917,-1.6785e-05,0
2.9176,-1.4939e-05,0
2.9181,-9.9031e-06,0
2.9186,-4.5319e-06,0
2.9191,-7.5532e-06,0
2.9196,-1.8967e-05,0
2.9202,-2.8367e-05,0
2.9207,-3.1556e-05,0
2.9212,-2.9038e-05,0
2.9217,-2.5849e-05,0
2.9222,-2.6017e-05,0
2.9228,-2.9038e-05,0
2.9233,-3.6423e-05,0
2.9238,-5.1194e-05,0
2.9243,-6.5965e-05,0
2.9248,-7.4357e-05,0
2.9253,-7.5364e-05,0
2.9259,-6.9657e-05,0
2.9264,-5.7237e-05,0
2.9269,-4.1123e-05,0
2.9274,-2.7359e-05,0
2.9279,-1.8967e-05,0
2.9285,-1.7792e-05,0
2.929,-1.6281e-05,0
2.9295,-9.0639e-06,0
2.93,-2.3499e-06,0
2.9305,2.3499e-06,0
2.9311,5.2033e-06,0
2.9316,7.0497e-06,0
2.9321,8.5603e-06,0
2.9326,9.2317e-06,0
2.9331,9.9031e-06,0
2.9337,9.0639e-06,0
2.9342,7.2175e-06,0
2.9347,8.3925e-06,0
2.9352,1.2589e-05,0
2.9357,1.6785e-05,0
2.9362,1.9974e-05,0
2.9368,2.6017e-05,0
2.9373,3.1724e-05,0
2.9378,3.3066e-05,0
2.9383,3.508e-05,0
2.9388,4.1627e-05,0
2.9394,4.7501e-05,0
2.9399,4.8508e-05,0
2.9404,4.7166e-05,0
2.9409,4.5823e-05,0
2.9414,4.4816e-05,0
2.942,4.448e-05,0
2.9425,4.3473e-05,0
2.943,4.1794e-05,0
2.9435,3.9948e-05,0
2.944,3.743e-05,0
2.9446,3.3738e-05,0
2.9451,2.6017e-05,0
2.9456,1.7288e-05,0
2.9461,1.0239e-05,0
2.9466,6.5461e-06,0
2.9472,6.2104e-06,0
2.9477,8.5603e-06,0
2.9482,7.3854e-06,0
2.9487,4.5319e-06,0
2.9492,4.3641e-06,0
2.9497,8.896e-06,0
2.9503,2.1149e-05,0
2.9508,3.5584e-05,0
2.9513,4.2466e-05,0
2.9518,4.0787e-05,0
2.9523,3.8437e-05,0
2.9529,3.9277e-05,0
2.9534,4.2466e-05,0
2.9539,4.3137e-05,0
2.9544,4.5823e-05,0
2.9549,5.5558e-05,0
2.9555,7.2679e-05,0
2.956,9.3828e-05,0
2.9565,0.00010793,0
2.957,0.0001086,0
2.9575,9.6513e-05,0
2.9581,8.0064e-05,0
2.9586,6.5965e-05,0
2.9591,5.9922e-05,0
2.9596,5.8915e-05,0
2.9601,5.8915e-05,0
2.9607,5.7572e-05,0
2.9612,5.0019e-05,0
2.9617,3.4073e-05,0
2.9622,2.0981e-05,0
2.9627,2.031e-05,0
2.9632,2.501e-05,0
2.9638,2.7359e-05,0
2.9643,3.0716e-05,0
2.9648,3.1724e-05,0
2.9653,2.7359e-05,0
2.9658,1.8631e-05,0
2.9664,8.2246e-06,0
2.9669,3.6927e-06,0
2.9674,5.2033e-06,0
2.9679,-1.6785e-07,0
2.9684,-1.3931e-05,0
2.969,-2.5681e-05,0
2.9695,-3.122e-05,0
2.97,-3.2059e-05,0
2.9705,-3.122e-05,0
2.971,-3.1388e-05,0
2.9716,-4.0452e-05,0
2.9721,-5.6062e-05,0
2.9726,-6.6468e-05,0
2.9731,-6.3447e-05,0
2.9736,-4.8508e-05,0
2.9742,-2.8199e-05,0
2.9747,-2.182e-06,0
2.9752,2.7192e-05,0
2.9757,5.0187e-05,0
2.9762,6.3279e-05,0
2.9768,7.2175e-05,0
2.9773,7.4022e-05,0
2.9778,6.3783e-05,0
2.9783,4.8005e-05,0
2.9788,3.4409e-05,0
2.9793,2.1317e-05,0
2.9799,5.8747e-06,0
2.9804,-5.7069e-06,0
2.9809,-3.5248e-06,0
2.9814,1.1917e-05,0
2.9819,2.9877e-05,0
2.9825,4.1962e-05,0
2.983,4.4144e-05,0
2.9835,4.1123e-05,0
2.984,3.4409e-05,0
2.9845,2.6688e-05,0
2.9851,1.9974e-05,0
2.9856,1.3428e-05,0
2.9861,9.2317e-06,0
2.9866,1.1246e-05,0
2.9871,1.9974e-05,0
2.9877,2.9709e-05,0
2.9882,4.0787e-05,0
2.9887,5.4383e-05,0
2.9892,5.7404e-05,0
2.9897,4.5823e-05,0
2.9903,2.8702e-05,0
2.9908,1.6617e-05,0
2.9913,1.1749e-05,0
2.9918,9.3996e-06,0
2.9923,1.2757e-05,0
2.9928,2.1317e-05,0
2.9934,2.6352e-05,0
2.9939,2.417e-05,0
2.9944,2.2492e-05,0
2.9949,3.0716e-05,0
2.9954,4.4312e-05,0
2.996,4.6662e-05,0
2.9965,3.6423e-05,0
2.997,2.182e-05,0
2.9975,1.0742e-05,0
2.998,4.8676e-06,0
2.9986,8.3925e-07,0
2.9991,-1.3428e-06,0
2.9996,-2.0142e-06,0
3.0001,-2.8534e-06,0
3.0006,-1.6785e-06,0
3.0012,1.8463e-06,0
3.0017,3.8605e-06,0
3.0022,5.0355e-06,0
3.0027,8.896e-06,0
3.0032,1.2589e-05,0
3.0038,1.326e-05,0
3.0043,1.5274e-05,0
3.0048,1.4435e-05,0
3.0053,9.3996e-06,0
3.0058,7.2175e-06,0
3.0063,7.7211e-06,0
3.0069,7.7211e-06,0
3.0074,1.1749e-06,0
3.0079,-1.0407e-05,0
3.0084,-1.8967e-05,0
3.0089,-2.3163e-05,0
3.0095,-2.0645e-05,0
3.01,-1.091e-05,0
3.0105,-3.5248e-06,0
3.011,-3.1891e-06,0
3.0115,-2.8534e-06,0
3.0121,9.3996e-06,0
3.0126,3.4073e-05,0
3.0131,5.4047e-05,0
3.0136,5.4719e-05,0
3.0141,4.7333e-05,0
3.0147,5.1362e-05,0
3.0152,6.3279e-05,0
3.0157,7.3014e-05,0
3.0162,7.5364e-05,0
3.0167,6.5126e-05,0
3.0173,4.5991e-05,0
3.0178,3.2563e-05,0
3.0183,2.6688e-05,0
3.0188,2.1988e-05,0
3.0193,1.7121e-05,0
3.0198,1.1246e-05,0
3.0204,9.9031e-06,0
3.0209,1.5274e-05,0
3.0214,2.266e-05,0
3.0219,2.6688e-05,0
3.0224,2.8199e-05,0
3.023,3.0381e-05,0
3.0235,3.3738e-05,0
3.024,2.9374e-05,0
3.0245,1.1582e-05,0
3.025,-1.5274e-05,0
3.0256,-4.3977e-05,0
3.0261,-6.5965e-05,0
3.0266,-7.0665e-05,0
3.0271,-5.7572e-05,0
3.0276,-3.1556e-05,0
3.0282,-7.8889e-06,0
3.0287,8.896e-06,0
3.0292,2.5345e-05,0
3.0297,4.3473e-05,0
3.0302,6.5629e-05,0
3.0307,8.3757e-05,0
3.0313,8.2414e-05,0
3.0318,6.1433e-05,0
3.0323,3.1052e-05,0
3.0328,6.8818e-06,0
3.0333,5.0355e-07,0
3.0339,1.1078e-05,0
3.0344,2.9038e-05,0
3.0349,4.2802e-05,0
3.0354,5.153e-05,0
3.0359,6.5629e-05,0
3.0365,8.7449e-05,0
3.037,0.00010726,0
3.0375,0.00011632,0
3.038,0.00011061,0
3.0385,9.1981e-05,0
3.0391,6.8315e-05,0
3.0396,4.4816e-05,0
3.0401,3.0549e-05,0
3.0406,2.5177e-05,0
3.0411,2.501e-05,0
3.0417,2.9038e-05,0
3.0422,3.1724e-05,0
3.0427,2.8702e-05,0
3.0432,2.031e-05,0
3.0437,7.5532e-06,0
3.0442,-2.8534e-06,0
3.0448,-5.539e-06,0
3.0453,-5.0355e-06,0
3.0458,-6.2104e-06,0
3.0463,-1.1414e-05,0
3.0468,-1.9303e-05,0
3.0474,-2.7695e-05,0
3.0479,-3.3738e-05,0
3.0484,-3.6088e-05,0
3.0489,-3.4241e-05,0
3.0494,-2.6352e-05,0
3.05,-1.6953e-05,0
3.0505,-9.9031e-06,0
3.051,-2.182e-06,0
3.0515,7.7211e-06,0
3.052,1.8296e-05,0
3.0526,2.3163e-05,0
3.0531,2.0813e-05,0
3.0536,1.5274e-05,0
3.0541,8.5603e-06,0
3.0546,2.5177e-06,0
3.0552,-2.8534e-06,0
3.0557,-7.5532e-06,0
3.0562,-1.0575e-05,0
3.0567,-7.8889e-06,0
3.0572,1.8463e-06,0
3.0577,1.1582e-05,0
3.0583,1.4603e-05,0
3.0588,1.4603e-05,0
3.0593,2.2995e-05,0
3.0598,3.4745e-05,0
3.0603,4.213e-05,0
3.0609,4.0452e-05,0
3.0614,3.4745e-05,0
3.0619,2.9038e-05,0
3.0624,2.4506e-05,0
3.0629,1.8631e-05,0
3.0635,1.2924e-05,0
3.064,9.2317e-06,0
3.0645,1.1078e-05,0
3.065,2.1317e-05,0
3.0655,3.1388e-05,0
3.0661,3.2395e-05,0
3.0666,2.652e-05,0
3.0671,2.3163e-05,0
3.0676,2.4002e-05,0
3.0681,2.3835e-05,0
3.0687,2.1988e-05,0
3.0692,2.031e-05,0
3.0697,2.4506e-05,0
3.0702,3.3402e-05,0
3.0707,3.2563e-05,0
3.0713,1.9974e-05,0
3.0718,5.2033e-06,0
3.0723,-6.5461e-06,0
3.0728,-2.1988e-05,0
3.0733,-4.1459e-05,0
3.0738,-5.0523e-05,0
3.0744,-4.1123e-05,0
3.0749,-2.4842e-05,0
3.0754,-8.5603e-06,0
3.0759,1.2757e-05,0
3.0764,4.5151e-05,0
3.077,7.2679e-05,0
3.0775,8.6946e-05,0
3.078,9.8192e-05,0
3.0785,0.00010071,0
3.079,8.3589e-05,0
3.0796,5.1865e-05,0
3.0801,2.4842e-05,0
3.0806,4.0284e-06,0
3.0811,-2.3667e-05,0
3.0816,-5.0858e-05,0
3.0822,-6.3447e-05,0
3.0827,-6.5293e-05,0
3.0832,-6.5461e-05,0
3.0837,-6.1433e-05,0
3.0842,-5.2537e-05,0
3.0848,-4.2466e-05,0
3.0853,-3.4073e-05,0
3.0858,-1.9806e-05,0
3.0863,1.2589e-05,0
3.0868,5.7404e-05,0
3.0873,9.7856e-05,0
3.0879,0.00012287,0
3.0884,0.00013579,0
3.0889,0.00014284,0
3.0894,0.00013881,0
3.0899,0.00011867,0
3.0905,9.0471e-05,0
3.091,6.5293e-05,0
3.0915,4.448e-05,0
3.092,2.4338e-05,0
3.0925,9.9031e-06,0
3.0931,5.8747e-06,0
3.0936,8.7282e-06,0
3.0941,1.1078e-05,0
3.0946,8.0568e-06,0
3.0951,5.539e-06,0
3.0957,4.1962e-06,0
3.0962,-5.3712e-06,0
3.0967,-2.266e-05,0
3.0972,-3.6423e-05,0
3.0977,-4.3137e-05,0
3.0983,-4.2298e-05,0
3.0988,-3.8941e-05,0
3.0993,-3.3234e-05,0
3.0998,-1.8967e-05,0
3.1003,4.3641e-06,0
3.1008,3.5416e-05,0
3.1014,7.0497e-05,0
3.1019,0.00010054,0
3.1024,0.00012505,0
3.1029,0.00014485,0
3.1034,0.0001519,0
3.104,0.00014217,0
3.1045,0.0001232,0
3.105,9.6513e-05,0
3.1055,7.0329e-05,0
3.106,5.3544e-05,0
3.1066,4.2802e-05,0
3.1071,3.4409e-05,0
3.1076,2.4338e-05,0
3.1081,1.6281e-05,0
3.1086,1.3931e-05,0
3.1092,1.5106e-05,0
3.1097,1.4939e-05,0
3.1102,1.2421e-05,0
3.1107,8.3925e-06,0
3.1112,1.3428e-06,0
3.1117,-7.0497e-06,0
3.1123,-1.8463e-05,0
3.1128,-3.0549e-05,0
3.1133,-3.7095e-05,0
3.1138,-3.5416e-05,0
3.1143,-2.7359e-05,0
3.1149,-1.9806e-05,0
3.1154,-1.7288e-05,0
3.1159,-1.3596e-05,0
3.1164,3.1891e-06,0
3.1169,3.0884e-05,0
3.1175,4.4144e-05,0
3.118,3.3066e-05,0
3.1185,1.4603e-05,0
3.119,-1.1749e-06,0
3.1195,-1.8631e-05,0
3.1201,-4.1123e-05,0
3.1206,-6.1433e-05,0
3.1211,-7.0832e-05,0
3.1216,-6.8482e-05,0
3.1221,-5.4887e-05,0
3.1227,-3.2059e-05,0
3.1232,-5.539e-06,0
3.1237,1.4603e-05,0
3.1242,2.4002e-05,0
3.1247,2.9374e-05,0
3.1252,3.978e-05,0
3.1258,5.623e-05,0
3.1263,7.2007e-05,0
3.1268,8.1071e-05,0
3.1273,8.3421e-05,0
3.1278,7.8218e-05,0
3.1284,7.0832e-05,0
3.1289,6.8315e-05,0
3.1294,7.1672e-05,0
3.1299,8.2582e-05,0
3.1304,9.5003e-05,0
3.131,9.7185e-05,0
3.1315,8.7449e-05,0
3.132,7.3518e-05,0
3.1325,6.1265e-05,0
3.133,5.1362e-05,0
3.1336,4.062e-05,0
3.1341,2.9541e-05,0
3.1346,2.0981e-05,0
3.1351,1.1917e-05,0
3.1356,1.5106e-06,0
3.1362,-1.0575e-05,0
3.1367,-2.2156e-05,0
3.1372,-3.1724e-05,0
3.1377,-4.0452e-05,0
3.1382,-5.0019e-05,0
3.1387,-6.479e-05,0
3.1393,-7.9393e-05,0
3.1398,-8.4932e-05,0
3.1403,-7.9057e-05,0
3.1408,-7.2679e-05,0
3.1413,-7.3014e-05,0
3.1419,-7.8721e-05,0
3.1424,-7.3518e-05,0
3.1429,-5.5055e-05,0
3.1434,-3.3066e-05,0
3.1439,-1.1078e-05,0
3.1445,1.2589e-05,0
3.145,3.4073e-05,0
3.1455,4.9516e-05,0
3.146,5.8244e-05,0
3.1465,6.2104e-05,0
3.1471,6.4622e-05,0
3.1476,6.4958e-05,0
3.1481,5.9586e-05,0
3.1486,5.0523e-05,0
3.1491,3.978e-05,0
3.1497,3.0549e-05,0
3.1502,2.4002e-05,0
3.1507,1.6617e-05,0
3.1512,1.0575e-05,0
3.1517,1.5274e-05,0
3.1522,3.0045e-05,0
3.1528,4.2802e-05,0
3.1533,4.683e-05,0
3.1538,5.153e-05,0
3.1543,6.3279e-05,0
3.1548,6.7979e-05,0
3.1554,5.7572e-05,0
3.1559,4.2466e-05,0
3.1564,3.3738e-05,0
3.1569,2.9709e-05,0
3.1574,2.501e-05,0
3.158,1.9974e-05,0
3.1585,1.6114e-05,0
3.159,1.3931e-05,0
3.1595,1.326e-05,0
3.16,1.2589e-05,0
3.1606,6.8818e-06,0
3.1611,-2.182e-06,0
3.1616,-5.539e-06,0
3.1621,-2.0142e-06,0
3.1626,5.539e-06,0
3.1632,1.4603e-05,0
3.1637,2.1988e-05,0
3.1642,2.8031e-05,0
3.1647,3.2059e-05,0
3.1652,3.3234e-05,0
3.1658,3.5416e-05,0
3.1663,4.2802e-05,0
3.1668,4.7501e-05,0
3.1673,4.5487e-05,0
3.1678,3.743e-05,0
3.1683,2.8031e-05,0
3.1689,2.1988e-05,0
3.1694,2.031e-05,0
3.1699,2.3499e-05,0
3.1704,3.3402e-05,0
3.1709,4.6998e-05,0
3.1715,5.388e-05,0
3.172,5.3544e-05,0
3.1725,5.2537e-05,0
3.173,4.8844e-05,0
3.1735,3.6423e-05,0
3.1741,1.6617e-05,0
3.1746,-2.5177e-06,0
3.1751,-1.4939e-05,0
3.1756,-2.4002e-05,0
3.1761,-2.7695e-05,0
3.1767,-2.1653e-05,0
3.1772,-7.7211e-06,0
3.1777,1.1582e-05,0
3.1782,3.7095e-05,0
3.1787,6.0761e-05,0
3.1793,6.1601e-05,0
3.1798,3.0716e-05,0
3.1803,-1.4099e-05,0
3.1808,-4.7837e-05,0
3.1813,-6.7643e-05,0
3.1818,-7.5364e-05,0
3.1824,-7.0665e-05,0
3.1829,-5.7908e-05,0
3.1834,-3.978e-05,0
3.1839,-1.6617e-05,0
3.1844,1.3931e-05,0
3.185,6.3447e-05,0
3.1855,0.0001284,0
3.186,0.00018766,0
3.1865,0.00022811,0
3.187,0.00023952,0
3.1876,0.00022542,0
3.1881,0.00019303,0
3.1886,0.00015996,0
3.1891,0.00013613,0
3.1896,0.00011246,0
3.1902,7.9057e-05,0
3.1907,3.9445e-05,0
3.1912,6.8818e-06,0
3.1917,-1.0742e-05,0
3.1922,-1.6617e-05,0
3.1928,-1.4267e-05,0
3.1933,-6.5461e-06,0
3.1938,3.357e-06,0
3.1943,1.1749e-05,0
3.1948,1.2421e-05,0
3.1953,4.6998e-06,0
3.1959,-3.5248e-06,0
3.1964,-1.091e-05,0
3.1969,-1.5442e-05,0
3.1974,-1.8296e-05,0
3.1979,-2.8367e-05,0
3.1985,-4.5991e-05,0
3.199,-5.8747e-05,0
3.1995,-6.2776e-05,0
3.2,-6.2104e-05,0
3.2005,-5.9251e-05,0
3.2011,-5.6901e-05,0
3.2016,-5.1194e-05,0
3.2021,-3.743e-05,0
3.2026,-2.1988e-05,0
3.2031,-1.5274e-05,0
3.2037,-1.8296e-05,0
3.2042,-2.1988e-05,0
3.2047,-2.5345e-05,0
3.2052,-2.7863e-05,0
3.2057,-3.0549e-05,0
3.2062,-2.8702e-05,0
3.2068,-1.796e-05,0
3.2073,-3.0213e-06,0
3.2078,1.6953e-05,0
3.2083,4.2802e-05,0
3.2088,6.6804e-05,0
3.2094,6.9657e-05,0
3.2099,5.0355e-05,0
3.2104,2.5345e-05,0
3.2109,7.5532e-06,0
3.2114,-5.8747e-06,0
3.212,-2.1317e-05,0
3.2125,-3.4073e-05,0
3.213,-3.5248e-05,0
3.2135,-2.5849e-05,0
3.214,-1.5274e-05,0
3.2146,-8.7282e-06,0
3.2151,-2.8534e-06,0
3.2156,7.2175e-06,0
3.2161,1.7624e-05,0
3.2166,2.6688e-05,0
3.2172,3.6423e-05,0
3.2177,4.3809e-05,0
3.2182,5.0187e-05,0
3.2187,5.5055e-05,0
3.2192,5.539e-05,0
3.2197,4.8676e-05,0
3.2203,4.1794e-05,0
3.2208,3.3066e-05,0
3.2213,2.0813e-05,0
3.2218,1.1917e-05,0
3.2223,1.1917e-05,0
3.2229,1.6617e-05,0
3.2234,1.9806e-05,0
3.2239,1.8631e-05,0
3.2244,1.7288e-05,0
3.2249,1.4939e-05,0
3.2255,1.091e-05,0
3.226,6.2104e-06,0
3.2265,3.0213e-06,0
3.227,-1.3428e-06,0
3.2275,-4.3641e-06,0
3.2281,-4.8676e-06,0
3.2286,-4.8676e-06,0
3.2291,-5.8747e-06,0
3.2296,-9.5674e-06,0
3.2301,-1.2924e-05,0
3.2307,-9.5674e-06,0
3.2312,-5.0355e-07,0
3.2317,1.2589e-05,0
3.2322,2.8367e-05,0
3.2327,4.3641e-05,0
3.2332,5.3544e-05,0
3.2338,5.4887e-05,0
3.2343,4.918e-05,0
3.2348,4.1291e-05,0
3.2353,2.8031e-05,0
3.2358,1.0239e-05,0
3.2364,-3.357e-07,0
3.2369,4.1962e-06,0
3.2374,1.4771e-05,0
3.2379,2.1988e-05,0
3.2384,2.7695e-05,0
3.239,3.9109e-05,0
3.2395,5.6733e-05,0
3.24,7.2343e-05,0
3.2405,8.7282e-05,0
3.241,0.00011263,0
3.2416,0.00014821,0
3.2421,0.00017372,0
3.2426,0.00016869,0
3.2431,0.00013411,0
3.2436,9.3156e-05,0
3.2442,6.1433e-05,0
3.2447,3.743e-05,0
3.2452,1.5946e-05,0
3.2457,-7.0497e-06,0
3.2462,-3.0716e-05,0
3.2468,-4.7501e-05,0
3.2473,-5.2033e-05,0
3.2478,-4.6159e-05,0
3.2483,-3.3066e-05,0
3.2488,-2.2995e-05,0
3.2493,-1.8967e-05,0
3.2499,-1.6617e-05,0
3.2504,-2.182e-05,0
3.2509,-3.8773e-05,0
3.2514,-6.2272e-05,0
3.2519,-8.5435e-05,0
3.2525,-0.00010558,0
3.253,-0.00011414,0
3.2535,-9.9535e-05,0
3.254,-6.0426e-05,0
3.2545,-2.182e-06,0
3.2551,6.8986e-05,0
3.2556,0.0001368,0
3.2561,0.00018581,0
3.2566,0.00020259,0
3.2571,0.00019219,0
3.2577,0.00016416,0
3.2582,0.00012169,0
3.2587,7.0665e-05,0
3.2592,2.9877e-05,0
3.2597,1.4603e-05,0
3.2603,2.1653e-05,0
3.2608,3.6759e-05,0
3.2613,4.9851e-05,0
3.2618,7.0665e-05,0
3.2623,9.987e-05,0
3.2628,0.00011766,0
3.2634,0.00011162,0
3.2639,8.9464e-05,0
3.2644,6.1433e-05,0
3.2649,3.5416e-05,0
3.2654,1.5106e-05,0
3.266,1.5106e-06,0
3.2665,-4.6998e-06,0
3.267,-6.8818e-06,0
3.2675,-8.2246e-06,0
3.268,-1.2253e-05,0
3.2686,-1.8967e-05,0
3.2691,-2.3331e-05,0
3.2696,-2.2995e-05,0
3.2701,-2.3835e-05,0
3.2706,-2.8367e-05,0
3.2712,-3.0045e-05,0
3.2717,-2.4338e-05,0
3.2722,-1.1414e-05,0
3.2727,1.8463e-06,0
3.2732,6.8818e-06,0
3.2738,1.8463e-06,0
3.2743,-3.8605e-06,0
3.2748,-6.5461e-06,0
3.2753,-8.896e-06,0
3.2758,-1.1917e-05,0
3.2763,-1.4435e-05,0
3.2769,-1.6449e-05,0
3.2774,-1.8463e-05,0
3.2779,-1.8463e-05,0
3.2784,-1.4267e-05,0
3.2789,-7.3854e-06,0
3.2795,2.5177e-06,0
3.28,1.2924e-05,0
3.2805,1.8463e-05,0
3.281,2.266e-05,0
3.2815,2.5681e-05,0
3.2821,2.9038e-05,0
3.2826,3.4409e-05,0
3.2831,3.9445e-05,0
3.2836,3.4745e-05,0
3.2841,2.182e-05,0
3.2847,1.0071e-05,0
3.2852,5.2033e-06,0
3.2857,7.2175e-06,0
3.2862,1.3596e-05,0
3.2867,1.796e-05,0
3.2872,1.5946e-05,0
3.2878,1.1917e-05,0
3.2883,9.2317e-06,0
3.2888,7.5532e-06,0
3.2893,6.5461e-06,0
3.2898,2.5177e-06,0
3.2904,-3.8605e-06,0
3.2909,-5.0355e-06,0
3.2914,1.6785e-07,0
3.2919,5.2033e-06,0
3.2924,7.5532e-06,0
3.293,9.5674e-06,0
3.2935,1.1749e-05,0
3.294,1.2253e-05,0
3.2945,1.2253e-05,0
3.295,1.3931e-05,0
3.2956,1.7121e-05,0
3.2961,1.8631e-05,0
3.2966,1.9974e-05,0
3.2971,1.9638e-05,0
3.2976,1.3764e-05,0
3.2982,8.896e-06,0
3.2987,1.2085e-05,0
3.2992,2.2995e-05,0
3.2997,3.2059e-05,0
3.3002,3.1724e-05,0
3.3007,2.5345e-05,0
3.3013,2.0645e-05,0
3.3018,1.8967e-05,0
3.3023,1.6281e-05,0
3.3028,8.3925e-06,0
3.3033,-4.3641e-06,0
3.3039,-1.6953e-05,0
3.3044,-3.3738e-05,0
3.3049,-5.623e-05,0
3.3054,-7.7546e-05,0
3.3059,-8.7114e-05,0
3.3065,-7.9393e-05,0
3.307,-6.0594e-05,0
3.3075,-3.9277e-05,0
3.308,-9.5674e-06,0
3.3085,3.4073e-05,0
3.3091,8.4428e-05,0
3.3096,0.00012203,0
3.3101,0.0001425,0
3.3106,0.00015761,0
3.3111,0.00016584,0
3.3117,0.00016197,0
3.3122,0.00015023,0
3.3127,0.00013243,0
3.3132,0.00010591,0
3.3137,8.2078e-05,0
3.3142,7.1e-05,0
3.3148,6.7979e-05,0
3.3153,6.6804e-05,0
3.3158,6.6972e-05,0
3.3163,5.8412e-05,0
3.3168,3.6088e-05,0
3.3174,1.2589e-05,0
3.3179,-2.6856e-06,0
3.3184,-1.3931e-05,0
3.3189,-2.5177e-05,0
3.3194,-3.5752e-05,0
3.32,-4.3137e-05,0
3.3205,-4.3977e-05,0
3.321,-2.9038e-05,0
3.3215,-1.1749e-06,0
3.322,2.5849e-05,0
3.3226,3.8605e-05,0
3.3231,3.7263e-05,0
3.3236,3.9612e-05,0
3.3241,5.6062e-05,0
3.3246,7.0665e-05,0
3.3252,6.6972e-05,0
3.3257,5.0019e-05,0
3.3262,3.592e-05,0
3.3267,3.6759e-05,0
3.3272,4.7501e-05,0
3.3277,5.7237e-05,0
3.3283,6.0258e-05,0
3.3288,5.4215e-05,0
3.3293,4.2802e-05,0
3.3298,3.4745e-05,0
3.3303,3.1388e-05,0
3.3309,2.6688e-05,0
3.3314,1.5274e-05,0
3.3319,1.6785e-07,0
3.3324,-1.0407e-05,0
3.3329,-1.8631e-05,0
3.3335,-2.6017e-05,0
3.334,-2.4506e-05,0
3.3345,-1.4771e-05,0
3.335,-7.5532e-06,0
3.3355,-8.0568e-06,0
3.3361,-8.896e-06,0
3.3366,-2.8534e-06,0
3.3371,4.5319e-06,0
3.3376,8.2246e-06,0
3.3381,9.7353e-06,0
3.3387,1.091e-05,0
3.3392,1.0575e-05,0
3.3397,1.2253e-05,0
3.3402,1.4603e-05,0
3.3407,1.326e-05,0
3.3413,6.5461e-06,0
3.3418,-1.5106e-06,0
3.3423,-9.5674e-06,0
3.3428,-1.4099e-05,0
3.3433,-1.6617e-05,0
3.3438,-1.561e-05,0
3.3444,-9.5674e-06,0
3.3449,-6.0426e-06,0
3.3454,-9.7353e-06,0
3.3459,-1.3931e-05,0
3.3464,-1.3596e-05,0
3.347,-1.0239e-05,0
3.3475,-8.2246e-06,0
3.348,-5.8747e-06,0
3.3485,-4.0284e-06,0
3.349,-3.1891e-06,0
3.3496,0,0
3.3501,3.6927e-06,0
3.3506,8.2246e-06,0
3.3511,1.1246e-05,0
3.3516,7.5532e-06,0
3.3522,1.5106e-06,0
3.3527,2.3499e-06,0
3.3532,9.9031e-06,0
3.3537,1.7288e-05,0
3.3542,2.0645e-05,0
3.3548,1.9638e-05,0
3.3553,1.5946e-05,0
3.3558,1.5274e-05,0
3.3563,1.7288e-05,0
3.3568,1.9303e-05,0
3.3573,2.1317e-05,0
3.3579,2.1317e-05,0
3.3584,1.8799e-05,0
3.3589,1.3596e-05,0
3.3594,4.5319e-06,0
3.3599,-5.2033e-06,0
3.3605,-1.9471e-05,0
3.361,-3.3066e-05,0
3.3615,-4.0284e-05,0
3.362,-4.7669e-05,0
3.3625,-5.4887e-05,0
3.3631,-5.5726e-05,0
3.3636,-4.448e-05,0
3.3641,-1.6449e-05,0
3.3646,2.4002e-05,0
3.3651,6.2608e-05,0
3.3657,9.1142e-05,0
3.3662,0.00011766,0
3.3667,0.00014586,0
3.3672,0.00016399,0
3.3677,0.00016147,0
3.3683,0.0001462,0
3.3688,0.00012908,0
3.3693,0.00010491,0
3.3698,7.6371e-05,0
3.3703,5.5558e-05,0
3.3708,4.4984e-05,0
3.3714,3.8773e-05,0
3.3719,3.6088e-05,0
3.3724,3.978e-05,0
3.3729,4.5487e-05,0
3.3734,4.6494e-05,0
3.374,4.3305e-05,0
3.3745,4.1291e-05,0
3.375,4.5823e-05,0
3.3755,4.9851e-05,0
3.376,4.683e-05,0
3.3766,3.5752e-05,0
3.3771,1.5274e-05,0
3.3776,-8.2246e-06,0
3.3781,-2.1988e-05,0
3.3786,-2.031e-05,0
3.3792,-1.1582e-05,0
3.3797,-8.3925e-07,0
3.3802,1.4267e-05,0
3.3807,3.1052e-05,0
3.3812,4.4144e-05,0
3.3817,5.623e-05,0
3.3823,7.1e-05,0
3.3828,7.9057e-05,0
3.3833,7.57e-05,0
3.3838,6.7643e-05,0
3.3843,5.4887e-05,0
3.3849,3.4073e-05,0
3.3854,9.9031e-06,0
3.3859,-8.896e-06,0
3.3864,-1.326e-05,0
3.3869,-8.2246e-06,0
3.3875,-1.1749e-06,0
3.388,6.2104e-06,0
3.3885,1.2253e-05,0
3.389,1.8128e-05,0
3.3895,1.9974e-05,0
3.3901,1.561e-05,0
3.3906,8.3925e-06,0
3.3911,6.2104e-06,0
3.3916,7.5532e-06,0
3.3921,7.8889e-06,0
3.3927,3.357e-06,0
3.3932,-1.0239e-05,0
3.3937,-2.8534e-05,0
3.3942,-3.8773e-05,0
3.3947,-3.8102e-05,0
3.3952,-3.6423e-05,0
3.3958,-3.6423e-05,0
3.3963,-3.4745e-05,0
3.3968,-3.1052e-05,0
3.3973,-2.8702e-05,0
3.3978,-2.7695e-05,0
3.3984,-2.5513e-05,0
3.3989,-2.501e-05,0
3.3994,-2.2492e-05,0
3.3999,-1.6281e-05,0
3.4004,-5.539e-06,0
3.401,5.2033e-06,0
3.4015,1.2253e-05,0
3.402,1.6953e-05,0
3.4025,2.0645e-05,0
3.403,2.031e-05,0
3.4036,1.5274e-05,0
3.4041,9.7353e-06,0
3.4046,5.7069e-06,0
3.4051,4.8676e-06,0
3.4056,9.2317e-06,0
3.4062,1.5778e-05,0
3.4067,1.9806e-05,0
3.4072,2.1317e-05,0
3.4077,2.4842e-05,0
3.4082,2.8199e-05,0
3.4087,2.8367e-05,0
3.4093,2.8367e-05,0
3.4098,2.9374e-05,0
3.4103,3.122e-05,0
3.4108,3.3402e-05,0
3.4113,3.4073e-05,0
3.4119,2.9709e-05,0
3.4124,2.3331e-05,0
3.4129,1.9135e-05,0
3.4134,1.7288e-05,0
3.4139,1.5778e-05,0
3.4145,1.2924e-05,0
3.415,8.2246e-06,0
3.4155,8.2246e-06,0
3.416,1.326e-05,0
3.4165,1.7288e-05,0
3.4171,1.9471e-05,0
3.4176,1.5274e-05,0
3.4181,5.8747e-06,0
3.4186,0,0
3.4191,6.8818e-06,0
3.4197,2.182e-05,0
3.4202,3.0045e-05,0
3.4207,2.652e-05,0
3.4212,2.0813e-05,0
3.4217,1.9638e-05,0
3.4223,2.2492e-05,0
3.4228,2.8702e-05,0
3.4233,3.9109e-05,0
3.4238,5.7404e-05,0
3.4243,7.7379e-05,0
3.4248,8.5771e-05,0
3.4254,7.9896e-05,0
3.4259,6.949e-05,0
3.4264,6.3951e-05,0
3.4269,6.865e-05,0
3.4274,7.805e-05,0
3.428,7.9728e-05,0
3.4285,7.0665e-05,0
3.429,5.9586e-05,0
3.4295,4.8005e-05,0
3.43,3.3738e-05,0
3.4306,1.8631e-05,0
3.4311,4.8676e-06,0
3.4316,-8.2246e-06,0
3.4321,-1.5442e-05,0
3.4326,-1.4939e-05,0
3.4332,-6.5461e-06,0
3.4337,6.8818e-06,0
3.4342,1.9974e-05,0
3.4347,2.7192e-05,0
3.4352,2.8702e-05,0
3.4358,3.3402e-05,0
3.4363,4.5823e-05,0
3.4368,5.6733e-05,0
3.4373,5.1362e-05,0
3.4378,2.7863e-05,0
3.4383,-2.182e-06,0
3.4389,-2.266e-05,0
3.4394,-2.6017e-05,0
3.4399,-1.326e-05,0
3.4404,9.7353e-06,0
3.4409,3.6088e-05,0
3.4415,6.009e-05,0
3.442,7.1336e-05,0
3.4425,6.4286e-05,0
3.443,5.2873e-05,0
3.4435,4.8173e-05,0
3.4441,4.8005e-05,0
3.4446,3.6759e-05,0
3.4451,1.3092e-05,0
3.4456,-9.7353e-06,0
3.4461,-1.9471e-05,0
3.4467,-1.5106e-05,0
3.4472,-1.0239e-05,0
3.4477,-1.4267e-05,0
3.4482,-1.8463e-05,0
3.4487,-8.2246e-06,0
3.4493,1.1917e-05,0
3.4498,2.7695e-05,0
3.4503,3.2059e-05,0
3.4508,2.8367e-05,0
3.4513,2.1988e-05,0
3.4518,1.796e-05,0
3.4524,1.8631e-05,0
3.4529,1.7121e-05,0
3.4534,8.3925e-06,0
3.4539,-2.3499e-06,0
3.4544,-7.7211e-06,0
3.455,-7.8889e-06,0
3.4555,-3.8605e-06,0
3.456,3.0213e-06,0
3.4565,7.5532e-06,0
3.457,8.0568e-06,0
3.4576,7.2175e-06,0
3.4581,8.896e-06,0
3.4586,1.2253e-05,0
3.4591,1.1917e-05,0
3.4596,9.3996e-06,0
3.4602,9.3996e-06,0
3.4607,1.1414e-05,0
3.4612,9.9031e-06,0
3.4617,3.1891e-06,0
3.4622,-7.3854e-06,0
3.4628,-1.8128e-05,0
3.4633,-2.3667e-05,0
3.4638,-2.3163e-05,0
3.4643,-2.0981e-05,0
3.4648,-1.5946e-05,0
3.4653,-5.7069e-06,0
3.4659,9.2317e-06,0
3.4664,2.6184e-05,0
3.4669,4.2802e-05,0
3.4674,5.7237e-05,0
3.4679,7.1e-05,0
3.4685,8.9128e-05,0
3.469,0.00010323,0
3.4695,0.00010121,0
3.47,8.3085e-05,0
3.4705,5.8747e-05,0
3.4711,3.9445e-05,0
3.4716,3.0549e-05,0
3.4721,2.8031e-05,0
3.4726,2.8031e-05,0
3.4731,2.8031e-05,0
3.4737,2.4674e-05,0
3.4742,1.561e-05,0
3.4747,6.5461e-06,0
3.4752,3.8605e-06,0
3.4757,1.1749e-06,0
3.4762,0,0
3.4768,8.3925e-07,0
3.4773,1.5106e-06,0
3.4778,1.1749e-06,0
3.4783,2.5177e-06,0
3.4788,5.2033e-06,0
3.4794,7.8889e-06,0
3.4799,1.0575e-05,0
3.4804,1.0407e-05,0
3.4809,8.7282e-06,0
3.4814,8.3925e-06,0
3.482,8.3925e-06,0
3.4825,8.3925e-06,0
3.483,8.896e-06,0
3.4835,7.5532e-06,0
3.484,2.0142e-06,0
3.4846,-2.5177e-06,0
3.4851,-3.5248e-06,0
3.4856,1.3428e-06,0
3.4861,9.9031e-06,0
3.4866,1.6785e-05,0
3.4872,1.796e-05,0
3.4877,1.4939e-05,0
3.4882,1.3764e-05,0
3.4887,1.6953e-05,0
3.4892,2.652e-05,0
3.4897,4.1291e-05,0
3.4903,5.0858e-05,0
3.4908,4.5487e-05,0
3.4913,2.9038e-05,0
3.4918,1.4099e-05,0
3.4923,7.7211e-06,0
3.4929,6.2104e-06,0
3.4934,3.5248e-06,0
3.4939,4.8676e-06,0
3.4944,1.4939e-05,0
3.4949,2.6017e-05,0
3.4955,3.0381e-05,0
3.496,3.9612e-05,0
3.4965,6.1601e-05,0
3.497,8.2414e-05,0
3.4975,8.5435e-05,0
3.4981,7.1504e-05,0
3.4986,5.388e-05,0
3.4991,4.683e-05,0
3.4996,5.0187e-05,0
3.5001,5.4719e-05,0
3.5007,5.1865e-05,0
3.5012,3.2059e-05,0
3.5017,-4.1962e-06,0
3.5022,-3.7934e-05,0
3.5027,-5.1362e-05,0
3.5032,-5.1698e-05,0
3.5038,-5.5222e-05,0
3.5043,-6.6133e-05,0
3.5048,-7.3518e-05,0
3.5053,-6.9154e-05,0
3.5058,-5.5055e-05,0
3.5064,-3.7934e-05,0
3.5069,-1.9471e-05,0
3.5074,3.8605e-06,0
3.5079,3.3906e-05,0
3.5084,6.1265e-05,0
3.509,8.5771e-05,0
3.5095,0.00011565,0
3.51,0.0001368,0
3.5105,0.00013411,0
3.511,0.00011397,0
3.5116,9.366e-05,0
3.5121,8.04e-05,0
3.5126,7.4189e-05,0
3.5131,6.9993e-05,0
3.5136,6.1601e-05,0
3.5142,4.683e-05,0
3.5147,2.6688e-05,0
3.5152,7.7211e-06,0
3.5157,-1.0071e-06,0
3.5162,-1.5106e-06,0
3.5168,3.6927e-06,0
3.5173,1.4939e-05,0
3.5178,2.6688e-05,0
3.5183,3.743e-05,0
3.5188,4.5823e-05,0
3.5193,4.5319e-05,0
3.5199,3.3738e-05,0
3.5204,1.8967e-05,0
3.5209,7.5532e-06,0
3.5214,-1.6785e-06,0
3.5219,-1.091e-05,0
3.5225,-1.9471e-05,0
3.523,-2.7359e-05,0
3.5235,-3.2059e-05,0
3.524,-3.1724e-05,0
3.5245,-2.4506e-05,0
3.5251,-1.1917e-05,0
3.5256,-4.6998e-06,0
3.5261,-1.8463e-06,0
3.5266,-8.3925e-07,0
3.5271,0,0
3.5277,3.5248e-06,0
3.5282,3.8605e-06,0
3.5287,1.1749e-06,0
3.5292,1.6785e-07,0
3.5297,0,0
3.5303,1.6785e-07,0
3.5308,3.1891e-06,0
3.5313,4.5319e-06,0
3.5318,1.3428e-06,0
3.5323,-8.3925e-07,0
3.5328,3.1891e-06,0
3.5334,1.1582e-05,0
3.5339,1.8631e-05,0
3.5344,2.3331e-05,0
3.5349,2.5681e-05,0
3.5354,2.4002e-05,0
3.536,2.0142e-05,0
3.5365,2.1317e-05,0
3.537,2.6688e-05,0
3.5375,2.7359e-05,0
3.538,2.5513e-05,0
3.5386,2.7359e-05,0
3.5391,3.0381e-05,0
3.5396,2.9709e-05,0
3.5401,2.266e-05,0
3.5406,1.326e-05,0
3.5412,1.2589e-05,0
3.5417,1.8631e-05,0
3.5422,2.2324e-05,0
3.5427,2.1317e-05,0
3.5432,1.8967e-05,0
3.5438,1.561e-05,0
3.5443,1.1582e-05,0
3.5448,1.1078e-05,0
3.5453,1.2253e-05,0
3.5458,1.2253e-05,0
3.5463,1.091e-05,0
3.5469,1.0575e-05,0
3.5474,1.1246e-05,0
3.5479,1.0575e-05,0
3.5484,1.2253e-05,0
3.5489,2.0478e-05,0
3.5495,2.7695e-05,0
3.55,2.4674e-05,0
3.5505,1.6449e-05,0
3.551,1.5106e-05,0
3.5515,2.1988e-05,0
3.5521,2.7359e-05,0
3.5526,2.9374e-05,0
3.5531,3.0549e-05,0
3.5536,3.4745e-05,0
3.5541,4.2466e-05,0
3.5547,5.2873e-05,0
3.5552,6.1433e-05,0
3.5557,6.2104e-05,0
3.5562,5.1194e-05,0
3.5567,3.6088e-05,0
3.5572,3.0381e-05,0
3.5578,3.357e-05,0
3.5583,3.7095e-05,0
3.5588,3.5584e-05,0
3.5593,3.3066e-05,0
3.5598,3.1556e-05,0
3.5604,2.8534e-05,0
3.5609,2.3163e-05,0
3.5614,2.031e-05,0
3.5619,2.0981e-05,0
3.5624,2.3499e-05,0
3.563,2.6184e-05,0
3.5635,2.8031e-05,0
3.564,2.7359e-05,0
3.5645,2.2324e-05,0
3.565,1.561e-05,0
3.5656,1.0239e-05,0
3.5661,8.896e-06,0
3.5666,1.2589e-05,0
3.5671,1.0575e-05,0
3.5676,-1.8463e-06,0
3.5682,-1.5274e-05,0
3.5687,-2.1653e-05,0
3.5692,-2.1653e-05,0
3.5697,-2.2324e-05,0
3.5702,-2.8367e-05,0
3.5707,-4.062e-05,0
3.5713,-4.9516e-05,0
3.5718,-4.8173e-05,0
3.5723,-4.1291e-05,0
3.5728,-3.5752e-05,0
3.5733,-3.2563e-05,0
3.5739,-2.8031e-05,0
3.5744,-1.9638e-05,0
3.5749,-7.2175e-06,0
3.5754,8.3925e-06,0
3.5759,3.1052e-05,0
3.5765,5.6733e-05,0
3.577,7.7714e-05,0
3.5775,0.00010306,0
3.578,0.00014183,0
3.5785,0.0001702,0
3.5791,0.0001608,0
3.5796,0.0001274,0
3.5801,9.987e-05,0
3.5806,8.3085e-05,0
3.5811,7.0329e-05,0
3.5817,5.7404e-05,0
3.5822,4.8508e-05,0
3.5827,4.6998e-05,0
3.5832,4.5991e-05,0
3.5837,3.9445e-05,0
3.5842,3.3738e-05,0
3.5848,3.0716e-05,0
3.5853,2.7695e-05,0
3.5858,2.0981e-05,0
3.5863,5.539e-06,0
3.5868,-6.8818e-06,0
3.5874,-5.0355e-06,0
3.5879,3.8605e-06,0
3.5884,5.8747e-06,0
3.5889,-6.2104e-06,0
3.5894,-2.6017e-05,0
3.59,-3.7766e-05,0
3.5905,-3.3738e-05,0
3.591,-1.8296e-05,0
3.5915,-5.0355e-07,0
3.592,1.1582e-05,0
3.5926,5.0355e-06,0
3.5931,-1.8967e-05,0
3.5936,-3.9277e-05,0
3.5941,-4.9516e-05,0
3.5946,-5.0187e-05,0
3.5952,-3.9109e-05,0
3.5957,-1.7288e-05,0
3.5962,9.9031e-06,0
3.5967,3.7263e-05,0
3.5972,5.8076e-05,0
3.5978,7.1e-05,0
3.5983,7.9561e-05,0
3.5988,7.8386e-05,0
3.5993,6.714e-05,0
3.5998,5.153e-05,0
3.6003,3.5416e-05,0
3.6009,2.1149e-05,0
3.6014,1.091e-05,0
3.6019,4.1962e-06,0
3.6024,5.0355e-07,0
3.6029,-2.182e-06,0
3.6035,-2.5177e-06,0
3.604,3.357e-07,0
3.6045,4.3641e-06,0
3.605,7.2175e-06,0
3.6055,1.1582e-05,0
3.6061,1.4939e-05,0
3.6066,1.4267e-05,0
3.6071,1.2421e-05,0
3.6076,1.1917e-05,0
3.6081,1.3931e-05,0
3.6087,1.9303e-05,0
3.6092,2.7192e-05,0
3.6097,3.4745e-05,0
3.6102,4.1794e-05,0
3.6107,4.4984e-05,0
3.6113,4.8844e-05,0
3.6118,5.0858e-05,0
3.6123,4.2802e-05,0
3.6128,3.0213e-05,0
3.6133,2.031e-05,0
3.6138,1.6953e-05,0
3.6144,1.796e-05,0
3.6149,1.6953e-05,0
3.6154,1.3092e-05,0
3.6159,1.3931e-05,0
3.6164,2.1653e-05,0
3.617,2.7695e-05,0
3.6175,2.4338e-05,0
3.618,1.6953e-05,0
3.6185,1.4939e-05,0
3.619,1.5274e-05,0
3.6196,1.3596e-05,0
3.6201,9.9031e-06,0
3.6206,7.5532e-06,0
3.6211,8.5603e-06,0
3.6216,1.4603e-05,0
3.6222,2.266e-05,0
3.6227,2.7359e-05,0
3.6232,2.4506e-05,0
3.6237,1.796e-05,0
3.6242,1.2757e-05,0
3.6248,1.2757e-05,0
3.6253,1.796e-05,0
3.6258,2.3667e-05,0
3.6263,2.4506e-05,0
3.6268,1.9974e-05,0
3.6273,1.2924e-05,0
3.6279,6.5461e-06,0
3.6284,4.1962e-06,0
3.6289,3.5248e-06,0
3.6294,1.8463e-06,0
3.6299,-5.0355e-07,0
3.6305,-1.8463e-06,0
3.631,-2.3499e-06,0
3.6315,-3.1891e-06,0
3.632,-4.8676e-06,0
3.6325,-4.5319e-06,0
3.6331,-5.0355e-07,0
3.6336,4.3641e-06,0
3.6341,7.0497e-06,0
3.6346,6.0426e-06,0
3.6351,7.2175e-06,0
3.6357,1.2589e-05,0
3.6362,1.8631e-05,0
3.6367,2.0645e-05,0
3.6372,2.4506e-05,0
3.6377,3.4073e-05,0
3.6383,4.448e-05,0
3.6388,4.7333e-05,0
3.6393,4.213e-05,0
3.6398,3.6088e-05,0
3.6403,3.5416e-05,0
3.6408,4.0116e-05,0
3.6414,4.3473e-05,0
3.6419,4.1459e-05,0
3.6424,3.5752e-05,0
3.6429,2.9374e-05,0
3.6434,2.6688e-05,0
3.644,2.501e-05,0
3.6445,2.3499e-05,0
3.645,2.1317e-05,0
3.6455,1.796e-05,0
3.646,1.2253e-05,0
3.6466,5.539e-06,0
3.6471,3.6927e-06,0
3.6476,8.896e-06,0
3.6481,1.3092e-05,0
3.6486,1.1246e-05,0
3.6492,4.5319e-06,0
3.6497,-2.0142e-06,0
3.6502,-6.0426e-06,0
3.6507,-6.5461e-06,0
3.6512,5.0355e-07,0
3.6517,1.3931e-05,0
3.6523,2.3835e-05,0
3.6528,2.1988e-05,0
3.6533,1.8631e-05,0
3.6538,2.9038e-05,0
3.6543,4.8844e-05,0
3.6549,6.1097e-05,0
3.6554,6.2104e-05,0
3.6559,5.8412e-05,0
3.6564,4.4144e-05,0
3.6569,2.4674e-05,0
3.6575,1.6953e-05,0
3.658,2.266e-05,0
3.6585,3.1388e-05,0
3.659,3.6591e-05,0
3.6595,4.4816e-05,0
3.6601,5.4719e-05,0
3.6606,5.0523e-05,0
3.6611,3.4409e-05,0
3.6616,1.7288e-05,0
3.6621,7.8889e-06,0
3.6627,1.0575e-05,0
3.6632,1.561e-05,0
3.6637,1.7121e-05,0
3.6642,1.9303e-05,0
3.6647,2.3163e-05,0
3.6652,3.4577e-05,0
3.6658,5.0523e-05,0
3.6663,5.7572e-05,0
3.6668,5.4719e-05,0
3.6673,4.9516e-05,0
3.6678,4.5487e-05,0
3.6684,4.2802e-05,0
3.6689,3.743e-05,0
3.6694,2.5681e-05,0
3.6699,1.1246e-05,0
3.6704,5.0355e-07,0
3.671,-6.2104e-06,0
3.6715,-6.8818e-06,0
3.672,-6.714e-07,0
3.6725,1.1917e-05,0
3.673,2.501e-05,0
3.6736,3.4073e-05,0
3.6741,3.6423e-05,0
3.6746,3.4241e-05,0
3.6751,2.8534e-05,0
3.6756,1.9135e-05,0
3.6762,9.9031e-06,0
3.6767,1.1749e-06,0
3.6772,-5.8747e-06,0
3.6777,-7.2175e-06,0
3.6782,-5.2033e-06,0
3.6787,-4.3641e-06,0
3.6793,-5.539e-06,0
3.6798,-6.5461e-06,0
3.6803,-7.0497e-06,0
3.6808,-4.1962e-06,0
3.6813,-5.0355e-07,0
3.6819,3.1891e-06,0
3.6824,6.8818e-06,0
3.6829,1.0407e-05,0
3.6834,1.0575e-05,0
3.6839,9.7353e-06,0
3.6845,6.5461e-06,0
3.685,3.0213e-06,0
3.6855,2.0142e-06,0
3.686,3.5248e-06,0
3.6865,4.8676e-06,0
3.6871,7.2175e-06,0
3.6876,1.1246e-05,0
3.6881,1.4435e-05,0
3.6886,1.4939e-05,0
3.6891,1.326e-05,0
3.6897,1.1749e-05,0
3.6902,1.1749e-05,0
3.6907,1.4603e-05,0
3.6912,1.9974e-05,0
3.6917,2.501e-05,0
3.6923,2.8367e-05,0
3.6928,3.0045e-05,0
3.6933,3.1052e-05,0
3.6938,3.1052e-05,0
3.6943,2.7359e-05,0
3.6948,2.4674e-05,0
3.6954,2.3331e-05,0
3.6959,1.9471e-05,0
3.6964,1.1582e-05,0
3.6969,7.5532e-06,0
3.6974,9.2317e-06,0
3.698,1.0575e-05,0
3.6985,9.7353e-06,0
3.699,7.5532e-06,0
3.6995,8.7282e-06,0
3.7,1.326e-05,0
3.7006,2.2324e-05,0
3.7011,3.6423e-05,0
3.7016,5.0858e-05,0
3.7021,5.0858e-05,0
3.7026,3.6255e-05,0
3.7032,2.1653e-05,0
3.7037,1.326e-05,0
3.7042,1.1917e-05,0
3.7047,1.326e-05,0
3.7052,1.2757e-05,0
3.7058,9.2317e-06,0
3.7063,8.896e-06,0
3.7068,1.0575e-05,0
3.7073,1.2253e-05,0
3.7078,1.4603e-05,0
3.7083,1.2757e-05,0
3.7089,7.7211e-06,0
3.7094,4.8676e-06,0
3.7099,5.8747e-06,0
3.7104,6.714e-06,0
3.7109,7.3854e-06,0
3.7115,7.8889e-06,0
3.712,9.9031e-06,0
3.7125,1.2589e-05,0
3.713,1.4435e-05,0
3.7135,1.1917e-05,0
3.7141,6.2104e-06,0
3.7146,3.1891e-06,0
3.7151,9.9031e-06,0
3.7156,2.4002e-05,0
3.7161,3.6759e-05,0
3.7167,4.062e-05,0
3.7172,4.0787e-05,0
3.7177,4.4648e-05,0
3.7182,5.5894e-05,0
3.7187,7.2679e-05,0
3.7193,8.275e-05,0
3.7198,7.3686e-05,0
3.7203,5.2873e-05,0
3.7208,2.9206e-05,0
3.7213,1.1749e-05,0
3.7218,2.5177e-06,0
3.7224,-6.2104e-06,0
3.7229,-1.6617e-05,0
3.7234,-2.2995e-05,0
3.7239,-2.4338e-05,0
3.7244,-1.796e-05,0
3.725,-1.0071e-06,0
3.7255,2.4674e-05,0
3.726,4.8005e-05,0
3.7265,6.5293e-05,0
3.727,7.57e-05,0
3.7276,8.2414e-05,0
3.7281,9.0303e-05,0
3.7286,9.5842e-05,0
3.7291,9.1142e-05,0
3.7296,7.4693e-05,0
3.7302,6.0426e-05,0
3.7307,5.2033e-05,0
3.7312,4.1794e-05,0
3.7317,2.8367e-05,0
3.7322,1.5442e-05,0
3.7327,1.0239e-05,0
3.7333,1.8463e-05,0
3.7338,3.2059e-05,0
3.7343,3.8605e-05,0
3.7348,3.7934e-05,0
3.7353,3.6927e-05,0
3.7359,3.4409e-05,0
3.7364,2.7695e-05,0
3.7369,1.5946e-05,0
3.7374,4.1962e-06,0
3.7379,-5.8747e-06,0
3.7385,-1.1078e-05,0
3.739,-1.091e-05,0
3.7395,-1.091e-05,0
3.74,-1.1078e-05,0
3.7405,-1.1917e-05,0
3.7411,-1.0742e-05,0
3.7416,-3.357e-06,0
3.7421,-3.357e-07,0
3.7426,-3.8605e-06,0
3.7431,-1.0071e-05,0
3.7437,-1.2253e-05,0
3.7442,-9.9031e-06,0
3.7447,-8.5603e-06,0
3.7452,-7.8889e-06,0
3.7457,-4.5319e-06,0
3.7462,5.0355e-07,0
3.7468,2.5177e-06,0
3.7473,6.714e-07,0
3.7478,2.5177e-06,0
3.7483,6.5461e-06,0
3.7488,9.2317e-06,0
3.7494,9.2317e-06,0
3.7499,5.7069e-06,0
3.7504,2.8534e-06,0
3.7509,2.8534e-06,0
3.7514,4.5319e-06,0
3.752,8.2246e-06,0
3.7525,1.1078e-05,0
3.753,1.1246e-05,0
3.7535,1.1749e-05,0
3.754,1.5274e-05,0
3.7546,1.9638e-05,0
3.7551,2.2492e-05,0
3.7556,2.4002e-05,0
3.7561,2.6017e-05,0
3.7566,2.887e-05,0
3.7572,2.8534e-05,0
3.7577,2.417e-05,0
3.7582,1.8296e-05,0
3.7587,1.2421e-05,0
3.7592,6.5461e-06,0
3.7597,1.1749e-06,0
3.7603,-2.182e-06,0
3.7608,-3.5248e-06,0
3.7613,-4.1962e-06,0
3.7618,-1.5106e-06,0
3.7623,6.8818e-06,0
3.7629,1.796e-05,0
3.7634,2.7192e-05,0
3.7639,3.1556e-05,0
3.7644,3.2059e-05,0
3.7649,2.7695e-05,0
3.7655,1.2924e-05,0
3.766,-4.5319e-06,0
3.7665,-1.2253e-05,0
3.767,-3.8605e-06,0
3.7675,1.6785e-05,0
3.7681,3.4745e-05,0
3.7686,3.8773e-05,0
3.7691,3.7263e-05,0
3.7696,4.3137e-05,0
3.7701,6.0426e-05,0
3.7707,8.3085e-05,0
3.7712,9.1142e-05,0
3.7717,7.6036e-05,0
3.7722,5.3208e-05,0
3.7727,3.9277e-05,0
3.7732,4.3137e-05,0
3.7738,6.2104e-05,0
3.7743,7.6539e-05,0
3.7748,7.2343e-05,0
3.7753,5.7237e-05,0
3.7758,4.448e-05,0
3.7764,3.7766e-05,0
3.7769,3.2395e-05,0
3.7774,2.5513e-05,0
3.7779,1.9303e-05,0
3.7784,1.4267e-05,0
3.779,7.2175e-06,0
3.7795,5.0355e-07,0
3.78,-2.5177e-06,0
3.7805,-5.0355e-06,0
3.781,-1.0239e-05,0
3.7816,-1.6617e-05,0
3.7821,-2.0645e-05,0
3.7826,-1.4099e-05,0
3.7831,-8.3925e-07,0
3.7836,7.2175e-06,0
3.7842,3.6927e-06,0
3.7847,-1.2589e-05,0
3.7852,-3.3234e-05,0
3.7857,-4.1794e-05,0
3.7862,-3.6423e-05,0
3.7868,-2.6352e-05,0
3.7873,-1.6281e-05,0
3.7878,-7.7211e-06,0
3.7883,8.3925e-07,0
3.7888,1.7624e-05,0
3.7893,3.9445e-05,0
3.7899,6.0761e-05,0
3.7904,7.8721e-05,0
3.7909,8.4428e-05,0
3.7914,8.3085e-05,0
3.7919,8.04e-05,0
3.7925,7.6875e-05,0
3.793,7.4693e-05,0
3.7935,7.1e-05,0
3.794,5.9922e-05,0
3.7945,4.2466e-05,0
3.7951,2.5681e-05,0
3.7956,1.8631e-05,0
3.7961,2.1317e-05,0
3.7966,2.7695e-05,0
3.7971,2.8367e-05,0
3.7977,1.8463e-05,0
3.7982,5.2033e-06,0
3.7987,1.1749e-06,0
3.7992,6.2104e-06,0
3.7997,1.091e-05,0
3.8003,9.5674e-06,0
3.8008,7.3854e-06,0
3.8013,5.7069e-06,0
3.8018,6.5461e-06,0
3.8023,1.0407e-05,0
3.8028,1.326e-05,0
3.8034,1.4939e-05,0
3.8039,1.4435e-05,0
3.8044,8.5603e-06,0
3.8049,3.357e-06,0
3.8054,0,0
3.806,-4.1962e-06,0
3.8065,-9.5674e-06,0
3.807,-1.5946e-05,0
3.8075,-2.0645e-05,0
3.808,-2.2324e-05,0
3.8086,-2.1149e-05,0
3.8091,-1.4603e-05,0
3.8096,-3.1891e-06,0
3.8101,4.5319e-06,0
3.8106,7.7211e-06,0
3.8112,1.6281e-05,0
3.8117,2.5849e-05,0
3.8122,3.2395e-05,0
3.8127,3.7766e-05,0
3.8132,3.8773e-05,0
3.8138,4.0787e-05,0
3.8143,5.3544e-05,0
3.8148,6.7643e-05,0
3.8153,7.4022e-05,0
3.8158,7.2343e-05,0
3.8163,6.7475e-05,0
3.8169,5.8076e-05,0
3.8174,4.0116e-05,0
3.8179,1.7624e-05,0
3.8184,-2.3499e-06,0
3.8189,-1.6785e-05,0
3.8195,-2.7024e-05,0
3.82,-3.1052e-05,0
3.8205,-2.501e-05,0
3.821,-1.3764e-05,0
3.8215,-2.8534e-06,0
3.8221,3.0213e-06,0
3.8226,6.8818e-06,0
3.8231,1.3764e-05,0
3.8236,2.2828e-05,0
3.8241,2.8534e-05,0
3.8247,2.7359e-05,0
3.8252,1.9974e-05,0
3.8257,7.5532e-06,0
3.8262,-8.896e-06,0
3.8267,-2.4338e-05,0
3.8272,-3.2395e-05,0
3.8278,-3.8102e-05,0
3.8283,-4.5655e-05,0
3.8288,-4.9012e-05,0
3.8293,-4.4312e-05,0
3.8298,-2.5345e-05,0
3.8304,1.0071e-06,0
3.8309,2.4506e-05,0
3.8314,5.0523e-05,0
3.8319,7.9728e-05,0
3.8324,0.00010642,0
3.833,0.00013378,0
3.8335,0.00015258,0
3.834,0.00014267,0
3.8345,0.00011044,0
3.835,7.7546e-05,0
3.8356,6.0761e-05,0
3.8361,5.8915e-05,0
3.8366,5.9419e-05,0
3.8371,5.1362e-05,0
3.8376,3.4241e-05,0
3.8382,1.6449e-05,0
3.8387,0,0
3.8392,-8.2246e-06,0
3.8397,-8.7282e-06,0
3.8402,-5.539e-06,0
3.8407,3.5248e-06,0
3.8413,1.561e-05,0
3.8418,1.8967e-05,0
3.8423,1.4099e-05,0
3.8428,1.3931e-05,0
3.8433,2.4338e-05,0
3.8439,4.062e-05,0
3.8444,4.683e-05,0
3.8449,4.1962e-05,0
3.8454,3.3906e-05,0
3.8459,2.2995e-05,0
3.8465,1.0407e-05,0
3.847,-3.357e-07,0
3.8475,-7.7211e-06,0
3.848,-1.1246e-05,0
3.8485,-1.1749e-05,0
3.8491,-5.2033e-06,0
3.8496,1.1078e-05,0
3.8501,3.3066e-05,0
3.8506,4.918e-05,0
3.8511,4.8508e-05,0
3.8517,3.9109e-05,0
3.8522,3.4409e-05,0
3.8527,3.3402e-05,0
3.8532,3.0213e-05,0
3.8537,2.4002e-05,0
3.8542,2.1317e-05,0
3.8548,2.266e-05,0
3.8553,2.1149e-05,0
3.8558,1.3596e-05,0
3.8563,1.8463e-06,0
3.8568,-5.539e-06,0
3.8574,-4.8676e-06,0
3.8579,-1.5106e-06,0
3.8584,-1.8463e-06,0
3.8589,-6.2104e-06,0
3.8594,-9.5674e-06,0
3.86,-1.0239e-05,0
3.8605,-1.0407e-05,0
3.861,-1.091e-05,0
3.8615,-9.7353e-06,0
3.862,-6.2104e-06,0
3.8626,-4.6998e-06,0
3.8631,-5.539e-06,0
3.8636,-3.1891e-06,0
3.8641,-3.357e-07,0
3.8646,0,0
3.8652,1.5106e-06,0
3.8657,5.0355e-06,0
3.8662,1.2085e-05,0
3.8667,2.6688e-05,0
3.8672,4.3473e-05,0
3.8678,5.2873e-05,0
3.8683,5.2873e-05,0
3.8688,4.8173e-05,0
3.8693,4.1291e-05,0
3.8698,3.0045e-05,0
3.8703,1.8967e-05,0
3.8709,1.4267e-05,0
3.8714,1.3764e-05,0
3.8719,1.5946e-05,0
3.8724,1.8296e-05,0
3.8729,2.0142e-05,0
3.8735,2.1317e-05,0
3.874,2.3331e-05,0
3.8745,2.8367e-05,0
3.875,3.0716e-05,0
3.8755,2.8702e-05,0
3.8761,2.8031e-05,0
3.8766,2.7863e-05,0
3.8771,2.5177e-05,0
3.8776,1.9303e-05,0
3.8781,1.6281e-05,0
3.8787,2.0981e-05,0
3.8792,2.0478e-05,0
3.8797,6.2104e-06,0
3.8802,-9.5674e-06,0
3.8807,-1.326e-05,0
3.8813,-4.6998e-06,0
3.8818,7.8889e-06,0
3.8823,1.6449e-05,0
3.8828,1.9303e-05,0
3.8833,1.9135e-05,0
3.8838,1.7792e-05,0
3.8844,1.9303e-05,0
3.8849,2.3331e-05,0
3.8854,2.652e-05,0
3.8859,2.501e-05,0
3.8864,1.7288e-05,0
3.887,9.7353e-06,0
3.8875,1.2589e-05,0
3.888,2.5681e-05,0
3.8885,3.8605e-05,0
3.889,4.1459e-05,0
3.8896,3.1052e-05,0
3.8901,1.1414e-05,0
3.8906,-1.091e-05,0
3.8911,-3.5752e-05,0
3.8916,-5.1362e-05,0
3.8922,-4.7501e-05,0
3.8927,-3.1052e-05,0
3.8932,-1.1414e-05,0
3.8937,1.0239e-05,0
3.8942,3.3738e-05,0
3.8948,6.6804e-05,0
3.8953,0.00010961,0
3.8958,0.00014435,0
3.8963,0.00015325,0
3.8968,0.00013277,0
3.8973,9.0471e-05,0
3.8979,4.2466e-05,0
3.8984,1.1749e-05,0
3.8989,3.8605e-06,0
3.8994,3.5248e-06,0
3.8999,3.1891e-06,0
3.9005,1.0239e-05,0
3.901,3.0716e-05,0
3.9015,5.5222e-05,0
3.902,7.0329e-05,0
3.9025,6.9322e-05,0
3.9031,5.3376e-05,0
3.9036,3.743e-05,0
3.9041,2.8367e-05,0
3.9046,2.2995e-05,0
3.9051,2.5345e-05,0
3.9057,3.2059e-05,0
3.9062,3.8773e-05,0
3.9067,3.5416e-05,0
3.9072,2.3835e-05,0
3.9077,1.1414e-05,0
3.9082,2.0142e-06,0
3.9088,-2.8534e-06,0
3.9093,-3.1891e-06,0
3.9098,-1.6785e-06,0
3.9103,1.6785e-07,0
3.9108,-3.357e-07,0
3.9114,-5.2033e-06,0
3.9119,-1.4099e-05,0
3.9124,-2.1653e-05,0
3.9129,-2.8367e-05,0
3.9134,-4.1123e-05,0
3.914,-5.1865e-05,0
3.9145,-5.0858e-05,0
3.915,-3.7766e-05,0
3.9155,-2.0981e-05,0
3.916,-1.0742e-05,0
3.9166,-6.714e-06,0
3.9171,-2.5177e-06,0
3.9176,5.2033e-06,0
3.9181,1.1917e-05,0
3.9186,1.1078e-05,0
3.9192,7.0497e-06,0
3.9197,7.8889e-06,0
3.9202,1.326e-05,0
3.9207,2.1317e-05,0
3.9212,3.3402e-05,0
3.9217,4.8676e-05,0
3.9223,6.2272e-05,0
3.9228,6.9657e-05,0
3.9233,7.3518e-05,0
3.9238,6.9657e-05,0
3.9243,6.1097e-05,0
3.9249,5.6062e-05,0
3.9254,5.2537e-05,0
3.9259,4.683e-05,0
3.9264,3.9445e-05,0
3.9269,3.3738e-05,0
3.9275,3.0045e-05,0
3.928,2.7024e-05,0
3.9285,2.1317e-05,0
3.929,1.3596e-05,0
3.9295,7.5532e-06,0
3.9301,5.3712e-06,0
3.9306,4.6998e-06,0
3.9311,4.1962e-06,0
3.9316,3.1891e-06,0
3.9321,1.1749e-06,0
3.9327,2.6856e-06,0
3.9332,5.7069e-06,0
3.9337,3.6927e-06,0
3.9342,-5.0355e-07,0
3.9347,-8.3925e-07,0
3.9352,1.3428e-06,0
3.9358,3.0213e-06,0
3.9363,6.3783e-06,0
3.9368,1.1246e-05,0
3.9373,1.4099e-05,0
3.9378,1.6281e-05,0
3.9384,2.0981e-05,0
3.9389,2.6184e-05,0
3.9394,2.7695e-05,0
3.9399,2.7359e-05,0
3.9404,2.501e-05,0
3.941,1.7456e-05,0
3.9415,6.5461e-06,0
3.942,-4.3641e-06,0
3.9425,-1.3596e-05,0
3.943,-2.0813e-05,0
3.9436,-2.5681e-05,0
3.9441,-2.5681e-05,0
3.9446,-1.6785e-05,0
3.9451,-5.0355e-07,0
3.9456,2.1653e-05,0
3.9462,4.7501e-05,0
3.9467,7.1e-05,0
3.9472,8.8121e-05,0
3.9477,0.00010071,0
3.9482,0.00010658,0
3.9487,9.5171e-05,0
3.9493,7.2343e-05,0
3.9498,6.1936e-05,0
3.9503,6.0258e-05,0
3.9508,5.2033e-05,0
3.9513,3.9445e-05,0
3.9519,2.501e-05,0
3.9524,3.6927e-06,0
3.9529,-1.6953e-05,0
3.9534,-2.652e-05,0
3.9539,-2.652e-05,0
3.9545,-3.2731e-05,0
3.955,-4.7837e-05,0
3.9555,-5.4719e-05,0
3.956,-4.6494e-05,0
3.9565,-2.8702e-05,0
3.9571,-1.0239e-05,0
3.9576,8.5603e-06,0
3.9581,3.2731e-05,0
3.9586,5.4215e-05,0
3.9591,5.8915e-05,0
3.9597,4.448e-05,0
3.9602,1.9806e-05,0
3.9607,1.5106e-06,0
3.9612,-4.8676e-06,0
3.9617,-6.5461e-06,0
3.9623,-4.1962e-06,0
3.9628,8.7282e-06,0
3.9633,2.6688e-05,0
3.9638,4.1459e-05,0
3.9643,5.4047e-05,0
3.9648,7.4022e-05,0
3.9654,9.366e-05,0
3.9659,9.752e-05,0
3.9664,8.4428e-05,0
3.9669,6.7979e-05,0
3.9674,5.6062e-05,0
3.968,4.8508e-05,0
3.9685,4.1123e-05,0
3.969,3.2395e-05,0
3.9695,2.3331e-05,0
3.97,1.9471e-05,0
3.9706,1.796e-05,0
3.9711,1.1414e-05,0
3.9716,2.182e-06,0
3.9721,-5.0355e-06,0
3.9726,-2.8534e-06,0
3.9732,6.5461e-06,0
3.9737,1.1246e-05,0
3.9742,9.5674e-06,0
3.9747,7.0497e-06,0
3.9752,5.7069e-06,0
3.9758,5.0355e-06,0
3.9763,8.896e-06,0
3.9768,1.796e-05,0
3.9773,2.5849e-05,0
3.9778,2.9877e-05,0
3.9783,3.0716e-05,0
3.9789,3.0213e-05,0
3.9794,3.0381e-05,0
3.9799,3.1891e-05,0
3.9804,3.2731e-05,0
3.9809,3.0716e-05,0
3.9815,2.7192e-05,0
3.982,2.6688e-05,0
3.9825,2.5177e-05,0
3.983,2.1988e-05,0
3.9835,1.9303e-05,0
3.9841,1.4603e-05,0
3.9846,5.8747e-06,0
3.9851,-3.1891e-06,0
3.9856,-9.9031e-06,0
3.9861,-1.6281e-05,0
3.9867,-2.1653e-05,0
3.9872,-2.4674e-05,0
3.9877,-2.5177e-05,0
3.9882,-2.4338e-05,0
3.9887,-2.5681e-05,0
3.9893,-2.5681e-05,0
3.9898,-1.8631e-05,0
3.9903,-5.8747e-06,0
3.9908,1.0239e-05,0
3.9913,2.5681e-05,0
3.9918,3.508e-05,0
3.9924,4.0116e-05,0
3.9929,4.448e-05,0
3.9934,4.5991e-05,0
3.9939,4.4984e-05,0
3.9944,4.3809e-05,0
3.995,4.4816e-05,0
3.9955,4.7501e-05,0
3.996,4.7501e-05,0
3.9965,4.3809e-05,0
3.997,3.5752e-05,0
3.9976,2.5345e-05,0
3.9981,1.6114e-05,0
3.9986,1.1749e-05,0
3.9991,1.4267e-05,0
3.9996,2.0645e-05,0
4.0002,2.6688e-05,0
4.0007,3.0884e-05,0
4.0012,2.9206e-05,0
4.0017,2.2156e-05,0
4.0022,1.4435e-05,0
4.0027,9.2317e-06,0
4.0033,9.5674e-06,0
4.0038,9.2317e-06,0
4.0043,3.1891e-06,0
4.0048,-5.539e-06,0
4.0053,-1.1078e-05,0
4.0059,-1.2421e-05,0
4.0064,-1.091e-05,0
4.0069,-1.1246e-05,0
4.0074,-1.5274e-05,0
4.0079,-1.6617e-05,0
4.0085,-1.0575e-05,0
4.009,-1.0071e-06,0
4.0095,4.5319e-06,0
4.01,7.5532e-06,0
4.0105,9.2317e-06,0
4.0111,5.0355e-06,0
4.0116,-1.0071e-06,0
4.0121,3.5248e-06,0
4.0126,1.796e-05,0
4.0131,3.6591e-05,0
4.0137,5.623e-05,0
4.0142,7.4357e-05,0
4.0147,9.6513e-05,0
4.0152,0.000118,0
4.0157,0.00011514,0
4.0163,8.7114e-05,0
4.0168,5.774e-05,0
4.0173,4.062e-05,0
4.0178,3.4409e-05,0
4.0183,3.6088e-05,0
4.0188,3.7263e-05,0
4.0194,3.5416e-05,0
4.0199,3.6088e-05,0
4.0204,3.743e-05,0
4.0209,3.6591e-05,0
4.0214,3.1388e-05,0
4.022,1.7624e-05,0
4.0225,-3.357e-07,0
4.023,-1.0239e-05,0
4.0235,-8.896e-06,0
4.024,-3.0213e-06,0
4.0246,2.182e-06,0
4.0251,2.5177e-06,0
4.0256,-6.3783e-06,0
4.0261,-1.561e-05,0
4.0266,-1.1749e-05,0
4.0272,4.6998e-06,0
4.0277,2.031e-05,0
4.0282,2.6352e-05,0
4.0287,3.2395e-05,0
4.0292,3.6591e-05,0
4.0297,3.0213e-05,0
4.0303,1.8967e-05,0
4.0308,1.3931e-05,0
4.0313,1.1582e-05,0
4.0318,5.2033e-06,0
4.0323,-3.5248e-06,0
4.0329,-9.2317e-06,0
4.0334,-4.3641e-06,0
4.0339,9.0639e-06,0
4.0344,1.9471e-05,0
4.0349,1.9135e-05,0
4.0355,1.8463e-05,0
4.036,2.1149e-05,0
4.0365,2.3331e-05,0
4.037,2.2492e-05,0
4.0375,1.9806e-05,0
4.0381,1.796e-05,0
4.0386,2.1317e-05,0
4.0391,2.652e-05,0
4.0396,2.9877e-05,0
4.0401,3.122e-05,0
4.0407,3.3738e-05,0
4.0412,3.4409e-05,0
4.0417,3.2731e-05,0
4.0422,3.0381e-05,0
4.0427,2.266e-05,0
4.0432,1.2924e-05,0
4.0438,7.0497e-06,0
4.0443,2.8534e-06,0
4.0448,-3.5248e-06,0
4.0453,-1.091e-05,0
4.0458,-1.4939e-05,0
4.0464,-1.2924e-05,0
4.0469,-8.2246e-06,0
4.0474,-1.6785e-06,0
4.0479,9.5674e-06,0
4.0484,1.7288e-05,0
4.049,1.561e-05,0
4.0495,8.5603e-06,0
4.05,6.2104e-06,0
4.0505,1.4267e-05,0
4.051,2.7863e-05,0
4.0516,3.6759e-05,0
4.0521,3.9109e-05,0
4.0526,3.9948e-05,0
4.0531,4.3809e-05,0
4.0536,4.8676e-05,0
4.0542,4.9348e-05,0
4.0547,4.4144e-05,0
4.0552,3.6423e-05,0
4.0557,2.501e-05,0
4.0562,1.2085e-05,0
4.0568,6.0426e-06,0
4.0573,8.5603e-06,0
4.0578,1.0239e-05,0
4.0583,5.2033e-06,0
4.0588,3.8605e-06,0
4.0593,8.3925e-06,0
4.0599,1.0575e-05,0
4.0604,1.0575e-05,0
4.0609,1.1582e-05,0
4.0614,1.4267e-05,0
4.0619,1.8128e-05,0
4.0625,2.0981e-05,0
4.063,2.5345e-05,0
4.0635,3.4745e-05,0
4.064,4.448e-05,0
4.0645,5.2537e-05,0
4.0651,5.9586e-05,0
4.0656,5.9083e-05,0
4.0661,4.8508e-05,0
4.0666,2.652e-05,0
4.0671,-6.714e-07,0
4.0677,-1.9974e-05,0
4.0682,-2.9877e-05,0
4.0687,-2.9374e-05,0
4.0692,-2.1317e-05,0
4.0697,-1.3596e-05,0
4.0702,-4.1962e-06,0
4.0708,1.8296e-05,0
4.0713,4.6998e-05,0
4.0718,6.949e-05,0
4.0723,8.0735e-05,0
4.0728,8.2414e-05,0
4.0734,7.4693e-05,0
4.0739,5.8244e-05,0
4.0744,4.1794e-05,0
4.0749,3.3066e-05,0
4.0754,3.2059e-05,0
4.076,3.508e-05,0
4.0765,3.8102e-05,0
4.077,3.743e-05,0
4.0775,3.2059e-05,0
4.078,2.8367e-05,0
4.0786,3.2059e-05,0
4.0791,3.6927e-05,0
4.0796,3.7934e-05,0
4.0801,3.5584e-05,0
4.0806,3.1891e-05,0
4.0812,2.7863e-05,0
4.0817,2.2828e-05,0
4.0822,1.3931e-05,0
4.0827,1.5106e-06,0
4.0832,-1.0742e-05,0
4.0838,-2.031e-05,0
4.0843,-2.7024e-05,0
4.0848,-2.9206e-05,0
4.0853,-2.6352e-05,0
4.0858,-2.1653e-05,0
4.0863,-1.8967e-05,0
4.0869,-1.6281e-05,0
4.0874,-4.6998e-06,0
4.0879,1.2924e-05,0
4.0884,2.4338e-05,0
4.0889,2.7695e-05,0
4.0895,3.508e-05,0
4.09,4.5151e-05,0
4.0905,4.5319e-05,0
4.091,3.7766e-05,0
4.0915,3.6088e-05,0
4.0921,4.0787e-05,0
4.0926,4.1627e-05,0
4.0931,3.1724e-05,0
4.0936,1.6617e-05,0
4.0941,6.2104e-06,0
4.0947,2.5177e-06,0
4.0952,1.8463e-06,0
4.0957,-4.1962e-06,0
4.0962,-1.326e-05,0
4.0967,-1.7624e-05,0
4.0972,-1.2924e-05,0
4.0978,-3.0213e-06,0
4.0983,4.5319e-06,0
4.0988,9.2317e-06,0
4.0993,1.3764e-05,0
4.0998,1.8631e-05,0
4.1004,1.7121e-05,0
4.1009,3.8605e-06,0
4.1014,-9.0639e-06,0
4.1019,-8.2246e-06,0
4.1024,2.182e-06,0
4.103,9.5674e-06,0
4.1035,1.1078e-05,0
4.104,1.5778e-05,0
4.1045,2.2492e-05,0
4.105,2.5681e-05,0
4.1056,2.7695e-05,0
4.1061,3.4745e-05,0
4.1066,4.6494e-05,0
4.1071,5.3544e-05,0
4.1076,5.2873e-05,0
4.1082,4.9851e-05,0
4.1087,4.6159e-05,0
4.1092,4.1459e-05,0
4.1097,3.7095e-05,0
4.1102,3.0549e-05,0
4.1108,2.3667e-05,0
4.1113,2.2156e-05,0
4.1118,2.4338e-05,0
4.1123,2.4674e-05,0
4.1128,2.6017e-05,0
4.1133,2.6017e-05,0
4.1139,2.3667e-05,0
4.1144,1.7624e-05,0
4.1149,8.5603e-06,0
4.1154,4.8676e-06,0
4.1159,9.5674e-06,0
4.1165,1.326e-05,0
4.117,8.5603e-06,0
4.1175,-3.6927e-06,0
4.118,-1.796e-05,0
4.1185,-2.8702e-05,0
4.1191,-3.1724e-05,0
4.1196,-2.6856e-05,0
4.1201,-2.4842e-05,0
4.1206,-3.2059e-05,0
4.1211,-3.9445e-05,0
4.1217,-3.6591e-05,0
4.1222,-2.5681e-05,0
4.1227,-1.6617e-05,0
4.1232,-1.0239e-05,0
4.1237,1.5106e-06,0
4.1242,2.2828e-05,0
4.1248,4.5655e-05,0
4.1253,6.5461e-05,0
4.1258,8.0568e-05,0
4.1263,8.3421e-05,0
4.1268,7.6875e-05,0
4.1274,7.6707e-05,0
4.1279,7.805e-05,0
4.1284,7.1e-05,0
4.1289,6.1769e-05,0
4.1294,5.4887e-05,0
4.13,4.8173e-05,0
4.1305,3.978e-05,0
4.131,3.827e-05,0
4.1315,5.3544e-05,0
4.132,7.7714e-05,0
4.1326,8.9128e-05,0
4.1331,8.426e-05,0
4.1336,6.9993e-05,0
4.1341,5.388e-05,0
4.1346,4.3473e-05,0
4.1352,4.0955e-05,0
4.1357,4.4816e-05,0
4.1362,4.9683e-05,0
4.1367,4.5487e-05,0
4.1372,3.0045e-05,0
4.1377,1.1246e-05,0
4.1383,-2.8534e-06,0
4.1388,-1.1917e-05,0
4.1393,-2.2828e-05,0
4.1398,-3.2898e-05,0
4.1403,-3.5752e-05,0
4.1409,-3.0213e-05,0
4.1414,-2.266e-05,0
4.1419,-1.5274e-05,0
4.1424,-1.091e-05,0
4.1429,-1.091e-05,0
4.1435,-1.091e-05,0
4.144,-7.3854e-06,0
4.1445,3.6927e-06,0
4.145,2.0645e-05,0
4.1455,3.1724e-05,0
4.1461,3.3402e-05,0
4.1466,3.2395e-05,0
4.1471,3.4745e-05,0
4.1476,4.0452e-05,0
4.1481,4.8844e-05,0
4.1487,5.3544e-05,0
4.1492,4.5823e-05,0
4.1497,2.7695e-05,0
4.1502,6.714e-06,0
4.1507,-1.326e-05,0
4.1513,-2.2324e-05,0
4.1518,-1.3596e-05,0
4.1523,3.357e-06,0
4.1528,1.8631e-05,0
4.1533,2.8367e-05,0
4.1538,3.6255e-05,0
4.1544,4.7166e-05,0
4.1549,5.5726e-05,0
4.1554,5.5558e-05,0
4.1559,4.8676e-05,0
4.1564,4.1459e-05,0
4.157,3.8773e-05,0
4.1575,3.6088e-05,0
4.158,2.6352e-05,0
4.1585,1.0575e-05,0
4.159,-1.6785e-07,0
4.1596,-1.0071e-06,0
4.1601,3.5248e-06,0
4.1606,7.2175e-06,0
4.1611,5.2033e-06,0
4.1616,-2.5177e-06,0
4.1622,-1.1917e-05,0
4.1627,-1.6617e-05,0
4.1632,-1.5106e-05,0
4.1637,-1.3931e-05,0
4.1642,-1.7456e-05,0
4.1647,-1.9135e-05,0
4.1653,-1.6281e-05,0
4.1658,-1.2253e-05,0
4.1663,-8.896e-06,0
4.1668,-5.3712e-06,0
4.1673,-8.3925e-07,0
4.1679,1.1749e-06,0
4.1684,-2.8534e-06,0
4.1689,-2.8534e-06,0
4.1694,1.6785e-06,0
4.1699,2.3499e-06,0
4.1705,-3.1891e-06,0
4.171,-1.0742e-05,0
4.1715,-1.561e-05,0
4.172,-1.796e-05,0
4.1725,-1.4939e-05,0
4.1731,-1.0239e-05,0
4.1736,-6.8818e-06,0
4.1741,3.357e-06,0
4.1746,2.0142e-05,0
4.1751,3.2395e-05,0
4.1757,4.1794e-05,0
4.1762,5.5726e-05,0
4.1767,7.7043e-05,0
4.1772,9.3156e-05,0
4.1777,8.9128e-05,0
4.1783,6.7979e-05,0
4.1788,4.6494e-05,0
4.1793,3.5416e-05,0
4.1798,3.3402e-05,0
4.1803,3.9445e-05,0
4.1808,5.2537e-05,0
4.1814,6.6133e-05,0
4.1819,7.4525e-05,0
4.1824,8.0735e-05,0
4.1829,9.0135e-05,0
4.1834,9.8863e-05,0
4.184,0.00010289,0
4.1845,9.7856e-05,0
4.185,8.51e-05,0
4.1855,6.7979e-05,0
4.186,4.9851e-05,0
4.1866,3.4745e-05,0
4.1871,2.4506e-05,0
4.1876,1.8296e-05,0
4.1881,1.4435e-05,0
4.1886,1.2924e-05,0
4.1892,1.091e-05,0
4.1897,4.5319e-06,0
4.1902,-4.8676e-06,0
4.1907,-1.0071e-05,0
4.1912,-1.3596e-05,0
4.1917,-2.0981e-05,0
4.1923,-3.1052e-05,0
4.1928,-4.0955e-05,0
4.1933,-5.1194e-05,0
4.1938,-6.3447e-05,0
4.1943,-7.6707e-05,0
4.1949,-8.6107e-05,0
4.1954,-8.1575e-05,0
4.1959,-6.2272e-05,0
4.1964,-3.7263e-05,0
4.1969,-7.5532e-06,0
4.1975,2.5177e-05,0
4.198,5.5894e-05,0
4.1985,7.7379e-05,0
4.199,8.0064e-05,0
4.1995,7.0329e-05,0
4.2001,6.7475e-05,0
4.2006,7.5364e-05,0
4.2011,8.3757e-05,0
4.2016,8.4932e-05,0
4.2021,7.8553e-05,0
4.2027,6.8986e-05,0
4.2032,5.8579e-05,0
4.2037,4.8676e-05,0
4.2042,4.062e-05,0
4.2047,3.4409e-05,0
4.2053,2.8367e-05,0
4.2058,2.1317e-05,0
4.2063,1.3596e-05,0
4.2068,8.896e-06,0
4.2073,4.0284e-06,0
4.2078,-2.3499e-06,0
4.2084,-7.5532e-06,0
4.2089,-1.2589e-05,0
4.2094,-1.7121e-05,0
4.2099,-1.9303e-05,0
4.2104,-1.6617e-05,0
4.211,-1.0407e-05,0
4.2115,-4.5319e-06,0
4.212,-3.0213e-06,0
4.2125,-3.8605e-06,0
4.213,-1.1749e-06,0
4.2136,7.5532e-06,0
4.2141,1.6449e-05,0
4.2146,2.0478e-05,0
4.2151,2.0645e-05,0
4.2156,2.0142e-05,0
4.2162,2.0981e-05,0
4.2167,2.1988e-05,0
4.2172,2.0645e-05,0
4.2177,1.8463e-05,0
4.2182,1.8296e-05,0
4.2188,1.9303e-05,0
4.2193,2.1317e-05,0
4.2198,2.1653e-05,0
4.2203,2.2156e-05,0
4.2208,1.8296e-05,0
4.2213,7.2175e-06,0
4.2219,-7.5532e-06,0
4.2224,-1.9806e-05,0
4.2229,-2.4002e-05,0
4.2234,-1.9974e-05,0
4.2239,-1.3596e-05,0
4.2245,-1.0239e-05,0
4.225,-4.5319e-06,0
4.2255,5.8747e-06,0
4.226,1.8631e-05,0
4.2265,3.0549e-05,0
4.2271,3.743e-05,0
4.2276,4.213e-05,0
4.2281,4.918e-05,0
4.2286,5.2537e-05,0
4.2291,5.7908e-05,0
4.2297,6.7475e-05,0
4.2302,7.0665e-05,0
4.2307,6.2272e-05,0
4.2312,4.7501e-05,0
4.2317,3.1891e-05,0
4.2322,1.8967e-05,0
4.2328,9.9031e-06,0
4.2333,5.2033e-06,0
4.2338,1.0071e-05,0
4.2343,2.3163e-05,0
4.2348,3.508e-05,0
4.2354,3.5248e-05,0
4.2359,3.0381e-05,0
4.2364,3.0549e-05,0
4.2369,3.1388e-05,0
4.2374,2.7359e-05,0
4.238,2.2995e-05,0
4.2385,2.5345e-05,0
4.239,2.7695e-05,0
4.2395,1.7288e-05,0
4.24,-5.539e-06,0
4.2406,-2.8031e-05,0
4.2411,-4.2969e-05,0
4.2416,-4.9348e-05,0
4.2421,-5.2705e-05,0
4.2426,-5.4719e-05,0
4.2432,-5.0355e-05,0
4.2437,-4.1962e-05,0
4.2442,-3.1891e-05,0
4.2447,-1.7624e-05,0
4.2452,-2.0142e-06,0
4.2458,1.0575e-05,0
4.2463,1.7288e-05,0
4.2468,2.5345e-05,0
4.2473,3.9445e-05,0
4.2478,5.5726e-05,0
4.2483,6.7811e-05,0
4.2489,7.9561e-05,0
4.2494,9.6513e-05,0
4.2499,0.000118,0
4.2504,0.00014351,0
4.2509,0.00016802,0
4.2515,0.00017104,0
4.252,0.00014871,0
4.2525,0.00011498,0
4.253,8.3421e-05,0
4.2535,6.244e-05,0
4.2541,4.7166e-05,0
4.2546,2.7192e-05,0
4.2551,3.1891e-06,0
4.2556,-1.2924e-05,0
4.2561,-1.7792e-05,0
4.2567,-1.3596e-05,0
4.2572,-5.8747e-06,0
4.2577,-2.8534e-06,0
4.2582,-4.8676e-06,0
4.2587,-7.2175e-06,0
4.2592,-6.2104e-06,0
4.2598,2.0142e-06,0
4.2603,1.5442e-05,0
4.2608,2.4338e-05,0
4.2613,2.6184e-05,0
4.2618,3.1556e-05,0
4.2624,3.978e-05,0
4.2629,4.1627e-05,0
4.2634,3.2227e-05,0
4.2639,1.796e-05,0
4.2644,2.6856e-06,0
4.265,-9.9031e-06,0
4.2655,-2.0813e-05,0
4.266,-2.9206e-05,0
4.2665,-3.9612e-05,0
4.267,-4.8844e-05,0
4.2676,-4.918e-05,0
4.2681,-4.3809e-05,0
4.2686,-3.5752e-05,0
4.2691,-2.4842e-05,0
4.2696,-1.0239e-05,0
4.2702,1.0575e-05,0
4.2707,2.652e-05,0
4.2712,3.3234e-05,0
4.2717,3.2731e-05,0
4.2722,2.8702e-05,0
4.2728,3.3402e-05,0
4.2733,4.3473e-05,0
4.2738,4.2634e-05,0
4.2743,3.1052e-05,0
4.2748,1.9638e-05,0
4.2753,1.3764e-05,0
4.2759,9.5674e-06,0
4.2764,3.6927e-06,0
4.2769,8.3925e-07,0
4.2774,1.8463e-06,0
4.2779,4.0284e-06,0
4.2785,5.539e-06,0
4.279,6.0426e-06,0
4.2795,8.2246e-06,0
4.28,1.2253e-05,0
4.2805,1.9135e-05,0
4.2811,2.6352e-05,0
4.2816,3.1052e-05,0
4.2821,3.2395e-05,0
4.2826,2.8031e-05,0
4.2831,2.0645e-05,0
4.2837,1.6281e-05,0
4.2842,1.6449e-05,0
4.2847,1.9638e-05,0
4.2852,2.1317e-05,0
4.2857,1.9303e-05,0
4.2862,1.1917e-05,0
4.2868,1.6785e-06,0
4.2873,-3.0213e-06,0
4.2878,-1.1749e-06,0
4.2883,8.3925e-07,0
4.2888,-1.6785e-07,0
4.2894,-1.3428e-06,0
4.2899,1.0071e-06,0
4.2904,7.2175e-06,0
4.2909,1.3596e-05,0
4.2914,2.2156e-05,0
4.292,3.1556e-05,0
4.2925,3.6255e-05,0
4.293,3.7095e-05,0
4.2935,3.3402e-05,0
4.294,2.9374e-05,0
4.2946,2.7359e-05,0
4.2951,2.5513e-05,0
4.2956,2.266e-05,0
4.2961,2.0981e-05,0
4.2966,2.266e-05,0
4.2972,2.3667e-05,0
4.2977,2.2492e-05,0
4.2982,2.6688e-05,0
4.2987,4.1291e-05,0
4.2992,5.9251e-05,0
4.2998,6.865e-05,0
4.3003,6.6133e-05,0
4.3008,5.6565e-05,0
4.3013,4.683e-05,0
4.3018,3.978e-05,0
4.3023,3.6423e-05,0
4.3029,3.4409e-05,0
4.3034,3.0381e-05,0
4.3039,2.7863e-05,0
4.3044,2.6017e-05,0
4.3049,2.1317e-05,0
4.3055,1.6785e-05,0
4.306,1.8128e-05,0
4.3065,2.1988e-05,0
4.307,2.1317e-05,0
4.3075,1.796e-05,0
4.3081,1.6617e-05,0
4.3086,1.5946e-05,0
4.3091,1.3931e-05,0
4.3096,1.2253e-05,0
4.3101,9.5674e-06,0
4.3107,8.7282e-06,0
4.3112,8.3925e-06,0
4.3117,7.7211e-06,0
4.3122,4.5319e-06,0
4.3127,-1.5106e-06,0
4.3133,-9.2317e-06,0
4.3138,-1.8631e-05,0
4.3143,-3.1724e-05,0
4.3148,-4.9348e-05,0
4.3153,-7.4357e-05,0
4.3158,-0.00010323,0
4.3164,-0.00012387,0
4.3169,-0.00012337,0
4.3174,-9.9702e-05,0
4.3179,-5.6733e-05,0
4.3184,-2.182e-06,0
4.319,5.4215e-05,0
4.3195,0.00010877,0
4.32,0.00016365,0
4.3205,0.00021166,0
4.321,0.00022676,0
4.3216,0.00020192,0
4.3221,0.00015492,0
4.3226,0.00011061,0
4.3231,7.8386e-05,0
4.3236,5.623e-05,0
4.3242,3.9445e-05,0
4.3247,2.7192e-05,0
4.3252,2.1653e-05,0
4.3257,1.9974e-05,0
4.3262,1.8128e-05,0
4.3267,1.9303e-05,0
4.3273,2.1653e-05,0
4.3278,2.3835e-05,0
4.3283,2.887e-05,0
4.3288,3.5584e-05,0
4.3293,4.0116e-05,0
4.3299,3.7095e-05,0
4.3304,2.5681e-05,0
4.3309,1.2589e-05,0
4.3314,2.5177e-06,0
4.3319,-6.0426e-06,0
4.3325,-1.5442e-05,0
4.333,-2.3163e-05,0
4.3335,-2.9709e-05,0
4.334,-3.7263e-05,0
4.3345,-4.1291e-05,0
4.3351,-3.0381e-05,0
4.3356,-5.8747e-06,0
4.3361,1.6281e-05,0
4.3366,1.6281e-05,0
4.3371,5.0355e-07,0
4.3377,-2.5177e-06,0
4.3382,1.1749e-05,0
4.3387,3.1388e-05,0
4.3392,4.8676e-05,0
4.3397,5.8244e-05,0
4.3403,6.0258e-05,0
4.3408,5.6062e-05,0
4.3413,4.4144e-05,0
4.3418,2.9541e-05,0
4.3423,1.9806e-05,0
4.3428,1.4939e-05,0
4.3434,1.1917e-05,0
4.3439,1.2253e-05,0
4.3444,1.2589e-05,0
4.3449,9.9031e-06,0
4.3454,6.8818e-06,0
4.346,3.8605e-06,0
4.3465,3.5248e-06,0
4.347,5.2033e-06,0
4.3475,7.8889e-06,0
4.348,1.4603e-05,0
4.3486,1.9974e-05,0
4.3491,1.7792e-05,0
4.3496,1.2085e-05,0
4.3501,9.5674e-06,0
4.3506,7.8889e-06,0
4.3512,2.0142e-06,0
4.3517,-5.0355e-06,0
4.3522,-4.8676e-06,0
4.3527,3.1891e-06,0
4.3532,1.2085e-05,0
4.3537,1.6281e-05,0
4.3543,1.3596e-05,0
4.3548,1.1749e-05,0
4.3553,1.3931e-05,0
4.3558,2.0981e-05,0
4.3563,2.9206e-05,0
4.3569,3.2059e-05,0
4.3574,2.7192e-05,0
4.3579,1.9974e-05,0
4.3584,1.4603e-05,0
4.3589,6.5461e-06,0
4.3595,-3.5248e-06,0
4.36,-8.896e-06,0
4.3605,-9.5674e-06,0
4.361,-7.5532e-06,0
4.3615,-2.182e-06,0
4.3621,3.1891e-06,0
4.3626,7.8889e-06,0
4.3631,1.0407e-05,0
4.3636,1.2253e-05,0
4.3641,1.8296e-05,0
4.3647,2.7527e-05,0
4.3652,3.6759e-05,0
4.3657,4.2466e-05,0
4.3662,4.2802e-05,0
4.3667,4.0452e-05,0
4.3673,3.4241e-05,0
4.3678,2.7527e-05,0
4.3683,2.2324e-05,0
4.3688,1.9303e-05,0
4.3693,2.1653e-05,0
4.3698,2.5849e-05,0
4.3704,2.6688e-05,0
4.3709,2.6017e-05,0
4.3714,2.6352e-05,0
4.3719,2.6017e-05,0
4.3724,2.5681e-05,0
4.373,2.6688e-05,0
4.3735,2.8702e-05,0
4.374,3.2059e-05,0
4.3745,3.4577e-05,0
4.375,3.4409e-05,0
4.3756,3.0045e-05,0
4.3761,2.3499e-05,0
4.3766,1.9135e-05,0
4.3771,1.6281e-05,0
4.3776,1.5946e-05,0
4.3782,1.8296e-05,0
4.3787,2.031e-05,0
4.3792,1.9974e-05,0
4.3797,1.8631e-05,0
4.3802,1.9135e-05,0
4.3807,2.3331e-05,0
4.3813,2.9374e-05,0
4.3818,3.1891e-05,0
4.3823,3.0045e-05,0
4.3828,2.4002e-05,0
4.3833,1.561e-05,0
4.3839,5.7069e-06,0
4.3844,1.0071e-06,0
4.3849,9.0639e-06,0
4.3854,2.1149e-05,0
4.3859,2.5513e-05,0
4.3865,2.1317e-05,0
4.387,1.7624e-05,0
4.3875,1.9638e-05,0
4.388,2.2156e-05,0
4.3885,2.0981e-05,0
4.3891,2.0981e-05,0
4.3896,2.031e-05,0
4.3901,9.5674e-06,0
4.3906,-6.3783e-06,0
4.3911,-1.091e-05,0
4.3917,2.3499e-06,0
4.3922,3.0716e-05,0
4.3927,6.3279e-05,0
4.3932,7.9728e-05,0
4.3937,6.4286e-05,0
4.3943,3.1052e-05,0
4.3948,7.8889e-06,0
4.3953,4.8676e-06,0
4.3958,8.5603e-06,0
4.3963,5.2033e-06,0
4.3968,-3.1891e-06,0
4.3974,-6.8818e-06,0
4.3979,-1.6785e-06,0
4.3984,1.3596e-05,0
4.3989,3.2395e-05,0
4.3994,5.0858e-05,0
4.4,6.0929e-05,0
4.4005,5.5558e-05,0
4.401,4.2298e-05,0
4.4015,3.3402e-05,0
4.402,3.2898e-05,0
4.4026,3.3738e-05,0
4.4031,2.6688e-05,0
4.4036,1.7121e-05,0
4.4041,1.2253e-05,0
4.4046,7.2175e-06,0
4.4052,3.1891e-06,0
4.4057,1.8463e-06,0
4.4062,3.1891e-06,0
4.4067,5.7069e-06,0
4.4072,-1.8463e-06,0
4.4078,-1.9303e-05,0
4.4083,-3.0884e-05,0
4.4088,-3.0716e-05,0
4.4093,-2.8199e-05,0
4.4098,-2.887e-05,0
4.4103,-2.7359e-05,0
4.4109,-1.7456e-05,0
4.4114,-1.5106e-06,0
4.4119,1.3596e-05,0
4.4124,2.5345e-05,0
4.4129,3.8773e-05,0
4.4135,5.069e-05,0
4.414,5.8579e-05,0
4.4145,6.0929e-05,0
4.415,5.4887e-05,0
4.4155,3.9445e-05,0
4.4161,2.0478e-05,0
4.4166,6.8818e-06,0
4.4171,2.3499e-06,0
4.4176,2.8534e-06,0
4.4181,8.3925e-06,0
4.4187,1.9806e-05,0
4.4192,3.3402e-05,0
4.4197,4.1459e-05,0
4.4202,4.3305e-05,0
4.4207,4.448e-05,0
4.4212,4.7501e-05,0
4.4218,5.4047e-05,0
4.4223,6.3951e-05,0
4.4228,7.2847e-05,0
4.4233,7.2343e-05,0
4.4238,6.2608e-05,0
4.4244,5.0523e-05,0
4.4249,4.2634e-05,0
4.4254,4.1459e-05,0
4.4259,4.448e-05,0
4.4264,4.4144e-05,0
4.427,3.6759e-05,0
4.4275,2.4674e-05,0
4.428,1.5946e-05,0
4.4285,1.1917e-05,0
4.429,1.1582e-05,0
4.4296,1.1749e-05,0
4.4301,7.8889e-06,0
4.4306,3.6927e-06,0
4.4311,-6.714e-07,0
4.4316,-5.3712e-06,0
4.4322,-8.5603e-06,0
4.4327,-1.0071e-05,0
4.4332,-9.2317e-06,0
4.4337,-8.7282e-06,0
4.4342,-6.2104e-06,0
4.4348,1.1749e-06,0
4.4353,1.5106e-05,0
4.4358,3.3738e-05,0
4.4363,5.0858e-05,0
4.4368,5.8579e-05,0
4.4373,5.4215e-05,0
4.4379,4.3977e-05,0
4.4384,3.2731e-05,0
4.4389,1.8631e-05,0
4.4394,6.5461e-06,0
4.4399,1.5106e-06,0
4.4405,1.1749e-06,0
4.441,-1.1749e-06,0
4.4415,-3.6927e-06,0
4.442,-8.3925e-07,0
4.4425,1.0071e-06,0
4.4431,-1.6785e-06,0
4.4436,-3.8605e-06,0
4.4441,1.5106e-06,0
4.4446,7.8889e-06,0
4.4451,7.2175e-06,0
4.4457,2.3499e-06,0
4.4462,3.8605e-06,0
4.4467,1.4099e-05,0
4.4472,2.8031e-05,0
4.4477,3.6088e-05,0
4.4482,3.4745e-05,0
4.4488,2.5345e-05,0
4.4493,1.3596e-05,0
4.4498,7.0497e-06,0
4.4503,6.8818e-06,0
4.4508,8.5603e-06,0
4.4514,8.896e-06,0
4.4519,7.5532e-06,0
4.4524,8.2246e-06,0
4.4529,1.1246e-05,0
4.4534,1.5946e-05,0
4.454,2.0813e-05,0
4.4545,2.6017e-05,0
4.455,2.7024e-05,0
4.4555,2.1988e-05,0
4.456,1.4939e-05,0
4.4566,1.2589e-05,0
4.4571,1.561e-05,0
4.4576,1.796e-05,0
4.4581,1.4099e-05,0
4.4586,6.5461e-06,0
4.4592,3.357e-07,0
4.4597,-8.3925e-07,0
4.4602,1.0071e-06,0
4.4607,1.5106e-06,0
4.4612,1.5106e-06,0
4.4618,6.714e-06,0
4.4623,2.031e-05,0
4.4628,3.1556e-05,0
4.4633,3.2731e-05,0
4.4638,3.0045e-05,0
4.4643,3.1724e-05,0
4.4649,3.0716e-05,0
4.4654,2.1653e-05,0
4.4659,1.4099e-05,0
4.4664,1.7121e-05,0
4.4669,2.7024e-05,0
4.4675,4.1962e-05,0
4.468,5.623e-05,0
4.4685,5.8244e-05,0
4.469,4.2634e-05,0
4.4695,2.1317e-05,0
4.4701,8.7282e-06,0
4.4706,6.2104e-06,0
4.4711,6.714e-06,0
4.4716,2.5177e-06,0
4.4721,-5.8747e-06,0
4.4727,-1.3092e-05,0
4.4732,-1.6449e-05,0
4.4737,-1.2589e-05,0
4.4742,-2.5177e-06,0
4.4747,8.2246e-06,0
4.4752,1.4435e-05,0
4.4758,1.8296e-05,0
4.4763,2.3331e-05,0
4.4768,2.5177e-05,0
4.4773,1.8799e-05,0
4.4778,1.0239e-05,0
4.4784,1.0239e-05,0
4.4789,1.326e-05,0
4.4794,1.1917e-05,0
4.4799,6.3783e-06,0
4.4804,4.0284e-06,0
4.481,8.3925e-06,0
4.4815,1.4603e-05,0
4.482,1.9471e-05,0
4.4825,2.3331e-05,0
4.483,2.7359e-05,0
4.4836,3.1724e-05,0
4.4841,4.0787e-05,0
4.4846,5.0019e-05,0
4.4851,5.4887e-05,0
4.4856,5.8915e-05,0
4.4862,6.2943e-05,0
4.4867,6.2272e-05,0
4.4872,5.1362e-05,0
4.4877,3.3234e-05,0
4.4882,1.561e-05,0
4.4887,0,0
4.4893,-8.896e-06,0
4.4898,-1.2421e-05,0
4.4903,-1.5946e-05,0
4.4908,-1.4267e-05,0
4.4913,8.3925e-07,0
4.4919,2.5345e-05,0
4.4924,4.8173e-05,0
4.4929,7.2847e-05,0
4.4934,0.00010088,0
4.4939,0.0001274,0
4.4945,0.00014603,0
4.495,0.0001472,0
4.4955,0.00013042,0
4.496,0.00010927,0
4.4965,9.3492e-05,0
4.4971,8.0064e-05,0
4.4976,6.009e-05,0
4.4981,3.508e-05,0
4.4986,1.2924e-05,0
4.4991,-3.357e-07,0
4.4997,-8.896e-06,0
4.5002,-1.8799e-05,0
4.5007,-2.6184e-05,0
4.5012,-2.6688e-05,0
4.5017,-2.6688e-05,0
4.5023,-2.9206e-05,0
4.5028,-2.9709e-05,0
4.5033,-2.652e-05,0
4.5038,-1.9638e-05,0
4.5043,-1.091e-05,0
4.5048,-3.5248e-06,0
4.5054,4.5319e-06,0
4.5059,1.3931e-05,0
4.5064,2.266e-05,0
4.5069,2.3667e-05,0
4.5074,1.4435e-05,0
4.508,8.3925e-07,0
4.5085,-1.2757e-05,0
4.509,-2.501e-05,0
4.5095,-3.2731e-05,0
4.51,-3.1388e-05,0
4.5106,-2.2324e-05,0
4.5111,-1.326e-05,0
4.5116,-5.539e-06,0
4.5121,1.1749e-06,0
4.5126,9.7353e-06,0
4.5132,1.9638e-05,0
4.5137,2.3331e-05,0
4.5142,1.5946e-05,0
4.5147,1.0239e-05,0
4.5152,7.8889e-06,0
4.5157,2.8534e-06,0
4.5163,1.6785e-06,0
4.5168,7.5532e-06,0
4.5173,1.0575e-05,0
4.5178,1.1582e-05,0
4.5183,2.031e-05,0
4.5189,3.3738e-05,0
4.5194,4.2634e-05,0
4.5199,4.4312e-05,0
4.5204,4.213e-05,0
4.5209,4.0787e-05,0
4.5215,3.9445e-05,0
4.522,3.6088e-05,0
4.5225,2.9877e-05,0
4.523,2.266e-05,0
4.5235,1.7288e-05,0
4.5241,1.3931e-05,0
4.5246,9.5674e-06,0
4.5251,6.5461e-06,0
4.5256,6.2104e-06,0
4.5261,5.539e-06,0
4.5267,3.5248e-06,0
4.5272,4.5319e-06,0
4.5277,1.1582e-05,0
4.5282,1.796e-05,0
4.5287,1.7288e-05,0
4.5293,1.4267e-05,0
4.5298,1.9471e-05,0
4.5303,2.7695e-05,0
4.5308,3.0045e-05,0
4.5313,2.4842e-05,0
4.5318,1.8463e-05,0
4.5324,1.561e-05,0
4.5329,1.6617e-05,0
4.5334,1.7792e-05,0
4.5339,1.8799e-05,0
4.5344,1.8296e-05,0
4.535,1.2924e-05,0
4.5355,7.8889e-06,0
4.536,7.5532e-06,0
4.5365,6.3783e-06,0
4.537,-2.3499e-06,0
4.5376,-1.3764e-05,0
4.5381,-1.4603e-05,0
4.5386,-4.1962e-06,0
4.5391,5.2033e-06,0
4.5396,4.5319e-06,0
4.5402,-2.5177e-06,0
4.5407,-6.5461e-06,0
4.5412,-2.6856e-06,0
4.5417,8.2246e-06,0
4.5422,1.7624e-05,0
4.5427,2.2492e-05,0
4.5433,2.7359e-05,0
4.5438,3.4745e-05,0
4.5443,4.1962e-05,0
4.5448,4.9516e-05,0
4.5453,5.9419e-05,0
4.5459,6.6636e-05,0
4.5464,6.4286e-05,0
4.5469,5.5222e-05,0
4.5474,4.6159e-05,0
4.5479,3.6591e-05,0
4.5485,2.501e-05,0
4.549,1.4939e-05,0
4.5495,8.5603e-06,0
4.55,1.1917e-05,0
4.5505,2.1653e-05,0
4.5511,3.0716e-05,0
4.5516,3.5416e-05,0
4.5521,3.6759e-05,0
4.5526,3.5416e-05,0
4.5531,3.3234e-05,0
4.5537,3.3402e-05,0
4.5542,3.9109e-05,0
4.5547,4.6662e-05,0
4.5552,4.213e-05,0
4.5557,1.8631e-05,0
4.5563,-1.0575e-05,0
4.5568,-2.9206e-05,0
4.5573,-2.5681e-05,0
4.5578,-8.3925e-07,0
4.5583,2.7024e-05,0
4.5588,4.3809e-05,0
4.5594,5.7404e-05,0
4.5599,7.2175e-05,0
4.5604,8.6778e-05,0
4.5609,9.752e-05,0
4.5614,9.987e-05,0
4.562,9.6178e-05,0
4.5625,8.7449e-05,0
4.563,7.1839e-05,0
4.5635,5.4719e-05,0
4.564,4.1123e-05,0
4.5646,2.7359e-05,0
4.5651,8.5603e-06,0
4.5656,-8.2246e-06,0
4.5661,-1.5274e-05,0
4.5666,-1.7624e-05,0
4.5672,-2.1988e-05,0
4.5677,-2.7359e-05,0
4.5682,-3.0716e-05,0
4.5687,-3.4745e-05,0
4.5692,-3.8437e-05,0
4.5697,-3.6591e-05,0
4.5703,-2.5681e-05,0
4.5708,-1.0239e-05,0
4.5713,5.2033e-06,0
4.5718,1.7288e-05,0
4.5723,1.8631e-05,0
4.5729,1.4939e-05,0
4.5734,1.5274e-05,0
4.5739,1.9974e-05,0
4.5744,2.266e-05,0
4.5749,1.9303e-05,0
4.5755,1.5778e-05,0
4.576,1.5946e-05,0
4.5765,1.7288e-05,0
4.577,1.8631e-05,0
4.5775,2.2324e-05,0
4.5781,2.9709e-05,0
4.5786,4.3137e-05,0
4.5791,5.4719e-05,0
4.5796,4.8844e-05,0
4.5801,2.8031e-05,0
4.5807,9.7353e-06,0
4.5812,2.0142e-06,0
4.5817,1.8463e-06,0
4.5822,1.3428e-06,0
4.5827,-3.1891e-06,0
4.5832,-5.2033e-06,0
4.5838,0,0
4.5843,6.3783e-06,0
4.5848,9.5674e-06,0
4.5853,1.2589e-05,0
4.5858,1.9638e-05,0
4.5864,3.3402e-05,0
4.5869,4.5151e-05,0
4.5874,4.7501e-05,0
4.5879,4.1459e-05,0
4.5884,3.3066e-05,0
4.589,2.6017e-05,0
4.5895,2.0478e-05,0
4.59,1.796e-05,0
4.5905,1.9974e-05,0
4.591,2.6688e-05,0
4.5916,3.2059e-05,0
4.5921,3.0381e-05,0
4.5926,2.3667e-05,0
4.5931,1.5274e-05,0
4.5936,8.2246e-06,0
4.5942,5.539e-06,0
4.5947,7.8889e-06,0
4.5952,1.3596e-05,0
4.5957,1.8296e-05,0
4.5962,1.5106e-05,0
4.5968,9.2317e-06,0
4.5973,7.8889e-06,0
4.5978,1.1749e-05,0
4.5983,1.5106e-05,0
4.5988,1.5946e-05,0
4.5993,1.6281e-05,0
4.5999,1.6617e-05,0
4.6004,1.4939e-05,0
4.6009,1.1917e-05,0
4.6014,1.1078e-05,0
4.6019,1.1582e-05,0
4.6025,1.3092e-05,0
4.603,1.5274e-05,0
4.6035,1.4267e-05,0
4.604,9.5674e-06,0
4.6045,4.1962e-06,0
4.6051,2.0142e-06,0
4.6056,3.357e-06,0
4.6061,5.8747e-06,0
4.6066,8.5603e-06,0
4.6071,1.1246e-05,0
4.6077,1.2085e-05,0
4.6082,8.5603e-06,0
4.6087,4.1962e-06,0
4.6092,7.5532e-06,0
4.6097,1.9974e-05,0
4.6102,3.3402e-05,0
4.6108,4.3809e-05,0
4.6113,4.8844e-05,0
4.6118,4.8844e-05,0
4.6123,4.4816e-05,0
4.6128,3.2563e-05,0
4.6134,1.6785e-05,0
4.6139,7.2175e-06,0
4.6144,-1.0071e-06,0
4.6149,-1.5274e-05,0
4.6154,-2.9877e-05,0
4.616,-3.3066e-05,0
4.6165,-1.8296e-05,0
4.617,3.0213e-06,0
4.6175,1.5274e-05,0
4.618,2.182e-05,0
4.6186,2.8031e-05,0
4.6191,3.357e-05,0
4.6196,3.4577e-05,0
4.6201,3.6423e-05,0
4.6206,4.0787e-05,0
4.6212,4.1123e-05,0
4.6217,3.122e-05,0
4.6222,2.0142e-05,0
4.6227,1.8967e-05,0
4.6232,2.6688e-05,0
4.6238,3.4073e-05,0
4.6243,3.8605e-05,0
4.6248,4.6159e-05,0
4.6253,6.0426e-05,0
4.6258,7.4189e-05,0
4.6263,7.335e-05,0
4.6269,5.3544e-05,0
4.6274,2.5345e-05,0
4.6279,3.8605e-06,0
4.6284,-1.8463e-06,0
4.6289,4.8676e-06,0
4.6295,1.2085e-05,0
4.63,8.5603e-06,0
4.6305,1.1749e-06,0
4.631,-3.5248e-06,0
4.6315,-1.2924e-05,0
4.6321,-2.4674e-05,0
4.6326,-2.7863e-05,0
4.6331,-2.1149e-05,0
4.6336,-1.2253e-05,0
4.6341,-6.0426e-06,0
4.6347,-3.0213e-06,0
4.6352,3.6927e-06,0
4.6357,1.8128e-05,0
4.6362,3.9277e-05,0
4.6367,6.3615e-05,0
4.6372,8.4932e-05,0
4.6378,9.6178e-05,0
4.6383,8.9799e-05,0
4.6388,7.0665e-05,0
4.6393,5.0019e-05,0
4.6398,3.3402e-05,0
4.6404,1.9974e-05,0
4.6409,1.2589e-05,0
4.6414,1.3764e-05,0
4.6419,1.8128e-05,0
4.6424,2.0645e-05,0
4.643,2.3667e-05,0
4.6435,3.1724e-05,0
4.644,4.0116e-05,0
4.6445,4.4144e-05,0
4.645,4.4816e-05,0
4.6456,4.5487e-05,0
4.6461,4.5151e-05,0
4.6466,4.5151e-05,0
4.6471,3.9109e-05,0
4.6476,2.4674e-05,0
4.6482,1.0575e-05,0
4.6487,4.8676e-06,0
4.6492,9.9031e-06,0
4.6497,2.1317e-05,0
4.6502,2.7359e-05,0
4.6508,2.266e-05,0
4.6513,1.8296e-05,0
4.6518,2.0981e-05,0
4.6523,2.4338e-05,0
4.6528,1.8463e-05,0
4.6533,7.8889e-06,0
4.6539,2.5177e-06,0
4.6544,4.5319e-06,0
4.6549,2.5177e-06,0
4.6554,-3.357e-06,0
4.6559,-4.5319e-06,0
4.6565,-2.182e-06,0
4.657,-5.0355e-07,0
4.6575,8.3925e-07,0
4.658,3.5248e-06,0
4.6585,9.2317e-06,0
4.6591,1.4267e-05,0
4.6596,1.1246e-05,0
4.6601,4.6998e-06,0
4.6606,2.5177e-06,0
4.6611,8.3925e-06,0
4.6617,1.8631e-05,0
4.6622,2.501e-05,0
4.6627,2.7695e-05,0
4.6632,3.122e-05,0
4.6637,3.4409e-05,0
4.6643,3.6088e-05,0
4.6648,3.592e-05,0
4.6653,2.9206e-05,0
4.6658,1.6953e-05,0
4.6663,9.2317e-06,0
4.6668,1.1582e-05,0
4.6674,1.6617e-05,0
4.6679,1.8631e-05,0
4.6684,1.8799e-05,0
4.6689,1.5442e-05,0
4.6694,1.1078e-05,0
4.67,8.2246e-06,0
4.6705,7.2175e-06,0
4.671,5.2033e-06,0
4.6715,2.8534e-06,0
4.672,0,0
4.6726,-1.5106e-06,0
4.6731,-1.6785e-06,0
4.6736,3.0213e-06,0
4.6741,1.0407e-05,0
4.6746,1.5106e-05,0
4.6752,1.2589e-05,0
4.6757,6.2104e-06,0
4.6762,4.6998e-06,0
4.6767,9.5674e-06,0
4.6772,1.6785e-05,0
4.6777,2.417e-05,0
4.6783,2.8367e-05,0
4.6788,2.9206e-05,0
4.6793,2.9374e-05,0
4.6798,3.0213e-05,0
4.6803,2.9877e-05,0
4.6809,2.6688e-05,0
4.6814,2.2995e-05,0
4.6819,2.0645e-05,0
4.6824,2.2324e-05,0
4.6829,2.2492e-05,0
4.6835,1.9638e-05,0
4.684,1.561e-05,0
4.6845,9.2317e-06,0
4.685,6.5461e-06,0
4.6855,6.5461e-06,0
4.6861,2.3499e-06,0
4.6866,-9.7353e-06,0
4.6871,-2.1653e-05,0
4.6876,-2.9877e-05,0
4.6881,-3.743e-05,0
4.6887,-4.6159e-05,0
4.6892,-5.388e-05,0
4.6897,-5.2033e-05,0
4.6902,-3.0549e-05,0
4.6907,5.8747e-06,0
4.6913,4.7501e-05,0
4.6918,9.1478e-05,0
4.6923,0.0001279,0
4.6928,0.00014183,0
4.6933,0.00013881,0
4.6938,0.00013092,0
4.6944,0.00011833,0
4.6949,9.7353e-05,0
4.6954,7.57e-05,0
4.6959,6.1936e-05,0
4.6964,5.2201e-05,0
4.697,4.1123e-05,0
4.6975,2.8367e-05,0
4.698,1.9303e-05,0
4.6985,1.3596e-05,0
4.699,7.3854e-06,0
4.6996,-1.6785e-07,0
4.7001,-8.2246e-06,0
4.7006,-1.6449e-05,0
4.7011,-2.1653e-05,0
4.7016,-1.7456e-05,0
4.7022,-7.0497e-06,0
4.7027,8.3925e-07,0
4.7032,2.0142e-06,0
4.7037,3.8605e-06,0
4.7042,1.1582e-05,0
4.7047,2.2995e-05,0
4.7053,2.9374e-05,0
4.7058,2.0478e-05,0
4.7063,-2.3499e-06,0
4.7068,-2.7024e-05,0
4.7073,-4.1794e-05,0
4.7079,-4.5151e-05,0
4.7084,-4.1123e-05,0
4.7089,-3.4073e-05,0
4.7094,-2.0645e-05,0
4.7099,5.2033e-06,0
4.7105,3.5752e-05,0
4.711,6.2104e-05,0
4.7115,8.7114e-05,0
4.712,0.00010893,0
4.7125,0.00011313,0
4.7131,9.3492e-05,0
4.7136,6.3783e-05,0
4.7141,4.0787e-05,0
4.7146,3.3066e-05,0
4.7151,3.6088e-05,0
4.7157,3.7766e-05,0
4.7162,3.1724e-05,0
4.7167,2.2995e-05,0
4.7172,1.6953e-05,0
4.7177,1.3596e-05,0
4.7183,1.091e-05,0
4.7188,7.8889e-06,0
4.7193,4.1962e-06,0
4.7198,1.5106e-06,0
4.7203,1.1749e-06,0
4.7208,2.182e-06,0
4.7214,3.8605e-06,0
4.7219,6.3783e-06,0
4.7224,9.3996e-06,0
4.7229,1.1414e-05,0
4.7234,1.091e-05,0
4.724,1.091e-05,0
4.7245,1.4267e-05,0
4.725,2.1317e-05,0
4.7255,2.6688e-05,0
4.726,2.8367e-05,0
4.7266,2.6688e-05,0
4.7271,2.3331e-05,0
4.7276,1.7288e-05,0
4.7281,3.6927e-06,0
4.7286,-1.2253e-05,0
4.7292,-1.9303e-05,0
4.7297,-1.4939e-05,0
4.7302,-3.8605e-06,0
4.7307,5.2033e-06,0
4.7312,7.2175e-06,0
4.7317,5.2033e-06,0
4.7323,5.8747e-06,0
4.7328,1.1414e-05,0
4.7333,2.2324e-05,0
4.7338,3.1891e-05,0
4.7343,3.357e-05,0
4.7349,2.9709e-05,0
4.7354,2.8031e-05,0
4.7359,3.2395e-05,0
4.7364,3.5752e-05,0
4.7369,3.3738e-05,0
4.7375,2.7359e-05,0
4.738,1.4603e-05,0
4.7385,-2.182e-06,0
4.739,-1.6281e-05,0
4.7395,-2.7024e-05,0
4.7401,-3.1388e-05,0
4.7406,-2.7024e-05,0
4.7411,-1.5274e-05,0
4.7416,-1.0071e-06,0
4.7421,1.4603e-05,0
4.7427,3.5752e-05,0
4.7432,5.623e-05,0
4.7437,6.3279e-05,0
4.7442,5.774e-05,0
4.7447,5.6062e-05,0
4.7453,6.0258e-05,0
4.7458,6.4958e-05,0
4.7463,6.3951e-05,0
4.7468,5.2873e-05,0
4.7473,3.8605e-05,0
4.7478,3.2059e-05,0
4.7484,3.2731e-05,0
4.7489,3.592e-05,0
4.7494,3.6088e-05,0
4.7499,3.1556e-05,0
4.7504,2.7863e-05,0
4.751,2.8031e-05,0
4.7515,2.8702e-05,0
4.752,2.7024e-05,0
4.7525,1.9974e-05,0
4.753,1.2924e-05,0
4.7536,9.3996e-06,0
4.7541,7.5532e-06,0
4.7546,7.8889e-06,0
4.7551,8.896e-06,0
4.7556,6.8818e-06,0
4.7562,1.1749e-06,0
4.7567,-4.8676e-06,0
4.7572,-7.3854e-06,0
4.7577,-5.8747e-06,0
4.7582,-1.0071e-06,0
4.7588,5.2033e-06,0
4.7593,1.1582e-05,0
4.7598,1.7288e-05,0
4.7603,1.9974e-05,0
4.7608,2.4338e-05,0
4.7613,2.6688e-05,0
4.7619,1.5946e-05,0
4.7624,1.8463e-06,0
4.7629,-4.8676e-06,0
4.7634,-9.3996e-06,0
4.7639,-1.6617e-05,0
4.7645,-2.2324e-05,0
4.765,-1.8967e-05,0
4.7655,-4.5319e-06,0
4.766,1.1582e-05,0
4.7665,1.6617e-05,0
4.7671,1.326e-05,0
4.7676,1.2421e-05,0
4.7681,2.1988e-05,0
4.7686,4.3473e-05,0
4.7691,6.6636e-05,0
4.7697,6.6804e-05,0
4.7702,3.4409e-05,0
4.7707,-8.2246e-06,0
4.7712,-3.2898e-05,0
4.7717,-3.2898e-05,0
4.7722,-1.561e-05,0
4.7728,1.2589e-05,0
4.7733,4.6662e-05,0
4.7738,7.9057e-05,0
4.7743,9.9702e-05,0
4.7748,0.0001086,0
4.7754,0.00011095,0
4.7759,0.00010793,0
4.7764,0.00010121,0
4.7769,9.2653e-05,0
4.7774,7.7043e-05,0
4.778,5.539e-05,0
4.7785,3.2395e-05,0
4.779,1.0071e-05,0
4.7795,-4.8676e-06,0
4.78,-1.091e-05,0
4.7806,-1.8296e-05,0
4.7811,-2.4674e-05,0
4.7816,-2.6184e-05,0
4.7821,-2.7359e-05,0
4.7826,-2.9206e-05,0
4.7832,-2.7863e-05,0
4.7837,-2.3667e-05,0
4.7842,-1.2589e-05,0
4.7847,9.5674e-06,0
4.7852,3.9612e-05,0
4.7858,6.4958e-05,0
4.7863,7.1336e-05,0
4.7868,5.7237e-05,0
4.7873,3.5416e-05,0
4.7878,1.9135e-05,0
4.7883,1.091e-05,0
4.7889,5.2033e-06,0
4.7894,1.6785e-06,0
4.7899,-1.1749e-06,0
4.7904,-1.5106e-06,0
4.7909,3.357e-07,0
4.7915,5.2033e-06,0
4.792,9.0639e-06,0
4.7925,1.0575e-05,0
4.793,1.4603e-05,0
4.7935,2.2492e-05,0
4.7941,3.0381e-05,0
4.7946,3.4409e-05,0
4.7951,3.3738e-05,0
4.7956,3.122e-05,0
4.7961,2.501e-05,0
4.7967,1.9806e-05,0
4.7972,2.266e-05,0
4.7977,2.8702e-05,0
4.7982,2.6184e-05,0
4.7987,1.8631e-05,0
4.7992,1.1749e-05,0
4.7998,5.2033e-06,0
4.8003,-3.0213e-06,0
4.8008,-1.2421e-05,0
4.8013,-2.501e-05,0
4.8018,-3.743e-05,0
4.8024,-4.0452e-05,0
4.8029,-3.2395e-05,0
4.8034,-1.4939e-05,0
4.8039,1.1917e-05,0
4.8044,4.0787e-05,0
4.805,5.6565e-05,0
4.8055,6.0594e-05,0
4.806,6.1936e-05,0
4.8065,6.4286e-05,0
4.807,7.0665e-05,0
4.8076,7.0832e-05,0
4.8081,5.7404e-05,0
4.8086,4.1123e-05,0
4.8091,2.8702e-05,0
4.8096,1.8967e-05,0
4.8102,8.5603e-06,0
4.8107,3.1891e-06,0
4.8112,3.8605e-06,0
4.8117,9.0639e-06,0
4.8122,1.3931e-05,0
4.8128,1.4267e-05,0
4.8133,1.326e-05,0
4.8138,1.5106e-05,0
4.8143,1.7288e-05,0
4.8148,1.5946e-05,0
4.8153,1.3931e-05,0
4.8159,1.6281e-05,0
4.8164,1.8631e-05,0
4.8169,1.796e-05,0
4.8174,1.6617e-05,0
4.8179,2.0645e-05,0
4.8185,2.5345e-05,0
4.819,2.4002e-05,0
4.8195,2.1317e-05,0
4.82,1.5946e-05,0
4.8205,4.3641e-06,0
4.8211,-6.2104e-06,0
4.8216,-7.0497e-06,0
4.8221,-2.5177e-06,0
4.8226,-1.0071e-06,0
4.8231,5.0355e-07,0
4.8237,5.8747e-06,0
4.8242,1.4267e-05,0
4.8247,2.0142e-05,0
4.8252,2.6017e-05,0
4.8257,3.2898e-05,0
4.8262,3.743e-05,0
4.8268,4.0452e-05,0
4.8273,4.1459e-05,0
4.8278,3.8773e-05,0
4.8283,3.4409e-05,0
4.8288,3.0381e-05,0
4.8294,2.7024e-05,0
4.8299,1.9303e-05,0
4.8304,7.0497e-06,0
4.8309,-1.6785e-07,0
4.8314,-1.6785e-07,0
4.832,2.3499e-06,0
4.8325,0,0
4.833,-4.1962e-06,0
4.8335,-6.3783e-06,0
4.834,-6.8818e-06,0
4.8346,-1.8463e-06,0
4.8351,1.0071e-05,0
4.8356,2.501e-05,0
4.8361,3.827e-05,0
4.8366,4.5487e-05,0
4.8372,4.4816e-05,0
4.8377,4.4144e-05,0
4.8382,4.9851e-05,0
4.8387,6.0929e-05,0
4.8392,6.6972e-05,0
4.8398,6.2608e-05,0
4.8403,5.2201e-05,0
4.8408,4.2802e-05,0
4.8413,4.1123e-05,0
4.8418,4.3473e-05,0
4.8423,3.5584e-05,0
4.8429,1.2421e-05,0
4.8434,-1.6953e-05,0
4.8439,-4.1627e-05,0
4.8444,-5.2033e-05,0
4.8449,-4.7669e-05,0
4.8455,-3.0716e-05,0
4.846,-1.091e-05,0
4.8465,2.182e-06,0
4.847,1.4435e-05,0
4.8475,3.0716e-05,0
4.8481,4.6159e-05,0
4.8486,5.2873e-05,0
4.8491,4.918e-05,0
4.8496,3.4745e-05,0
4.8501,1.561e-05,0
4.8507,2.8534e-06,0
4.8512,-1.8463e-06,0
4.8517,-5.539e-06,0
4.8522,-1.091e-05,0
4.8527,-1.7121e-05,0
4.8533,-1.6953e-05,0
4.8538,-9.7353e-06,0
4.8543,1.8463e-06,0
4.8548,1.0071e-05,0
4.8553,1.0239e-05,0
4.8558,8.5603e-06,0
4.8564,1.4435e-05,0
4.8569,3.3402e-05,0
4.8574,5.7908e-05,0
4.8579,7.6371e-05,0
4.8584,8.426e-05,0
4.859,8.51e-05,0
4.8595,8.2078e-05,0
4.86,6.8315e-05,0
4.8605,5.1865e-05,0
4.861,4.213e-05,0
4.8616,3.3066e-05,0
4.8621,1.8631e-05,0
4.8626,7.2175e-06,0
4.8631,7.0497e-06,0
4.8636,1.561e-05,0
4.8642,2.266e-05,0
4.8647,2.5345e-05,0
4.8652,2.6688e-05,0
4.8657,3.0884e-05,0
4.8662,3.743e-05,0
4.8667,4.0955e-05,0
4.8673,3.9948e-05,0
4.8678,3.4409e-05,0
4.8683,2.9541e-05,0
4.8688,2.4674e-05,0
4.8693,2.031e-05,0
4.8699,2.1317e-05,0
4.8704,2.4674e-05,0
4.8709,2.1149e-05,0
4.8714,1.1749e-05,0
4.8719,6.5461e-06,0
4.8725,7.2175e-06,0
4.873,7.8889e-06,0
4.8735,9.0639e-06,0
4.874,1.1414e-05,0
4.8745,1.2421e-05,0
4.8751,9.5674e-06,0
4.8756,6.5461e-06,0
4.8761,6.8818e-06,0
4.8766,9.2317e-06,0
4.8771,1.4099e-05,0
4.8777,2.0478e-05,0
4.8782,2.3499e-05,0
4.8787,2.0981e-05,0
4.8792,2.031e-05,0
4.8797,2.3163e-05,0
4.8803,2.3331e-05,0
4.8808,1.7456e-05,0
4.8813,7.8889e-06,0
4.8818,1.8463e-06,0
4.8823,-1.5106e-06,0
4.8828,-1.8463e-06,0
4.8834,-2.182e-06,0
4.8839,5.0355e-07,0
4.8844,5.8747e-06,0
4.8849,9.0639e-06,0
4.8854,9.2317e-06,0
4.886,7.8889e-06,0
4.8865,6.8818e-06,0
4.887,9.0639e-06,0
4.8875,1.1917e-05,0
4.888,1.5946e-05,0
4.8886,2.2995e-05,0
4.8891,3.2059e-05,0
4.8896,3.827e-05,0
4.8901,3.6088e-05,0
4.8906,3.0045e-05,0
4.8912,2.7192e-05,0
4.8917,2.4002e-05,0
4.8922,1.5946e-05,0
4.8927,9.2317e-06,0
4.8932,7.5532e-06,0
4.8937,1.1246e-05,0
4.8943,1.5778e-05,0
4.8948,1.8128e-05,0
4.8953,1.9471e-05,0
4.8958,2.0981e-05,0
4.8963,2.1988e-05,0
4.8969,2.0645e-05,0
4.8974,1.8631e-05,0
4.8979,1.6785e-05,0
4.8984,1.1917e-05,0
4.8989,9.9031e-06,0
4.8995,1.0071e-05,0
4.9,5.0355e-06,0
4.9005,-3.8605e-06,0
4.901,-9.7353e-06,0
4.9015,-6.8818e-06,0
4.9021,5.0355e-06,0
4.9026,2.3667e-05,0
4.9031,4.2802e-05,0
4.9036,5.4551e-05,0
4.9041,5.7908e-05,0
4.9047,5.6901e-05,0
4.9052,5.2537e-05,0
4.9057,4.7837e-05,0
4.9062,4.4144e-05,0
4.9067,3.6759e-05,0
4.9073,2.5849e-05,0
4.9078,1.1414e-05,0
4.9083,-5.0355e-06,0
4.9088,-1.6617e-05,0
4.9093,-2.0645e-05,0
4.9098,-2.2995e-05,0
4.9104,-2.4338e-05,0
4.9109,-2.2828e-05,0
4.9114,-1.8631e-05,0
4.9119,-9.5674e-06,0
4.9124,5.8747e-06,0
4.913,2.5849e-05,0
4.9135,4.1627e-05,0
4.914,4.7333e-05,0
4.9145,5.2705e-05,0
4.915,7.2007e-05,0
4.9156,9.6513e-05,0
4.9161,0.00010793,0
4.9166,0.00010927,0
4.9171,0.00010726,0
4.9176,9.7856e-05,0
4.9182,7.9057e-05,0
4.9187,5.1865e-05,0
4.9192,2.6017e-05,0
4.9197,1.0575e-05,0
4.9202,5.2033e-06,0
4.9207,6.714e-06,0
4.9213,2.0142e-06,0
4.9218,-1.2757e-05,0
4.9223,-2.8199e-05,0
4.9228,-3.4745e-05,0
4.9233,-3.3738e-05,0
4.9239,-2.7863e-05,0
4.9244,-2.182e-05,0
4.9249,-1.8128e-05,0
4.9254,-2.2492e-05,0
4.9259,-3.9277e-05,0
4.9265,-5.6901e-05,0
4.927,-6.3447e-05,0
4.9275,-5.8244e-05,0
4.928,-5.3544e-05,0
4.9285,-5.0523e-05,0
4.9291,-4.683e-05,0
4.9296,-4.0116e-05,0
4.9301,-2.5849e-05,0
4.9306,-1.5106e-06,0
4.9311,2.6352e-05,0
4.9317,4.8005e-05,0
4.9322,6.3615e-05,0
4.9327,7.3518e-05,0
4.9332,7.7043e-05,0
4.9337,7.7546e-05,0
4.9342,7.6204e-05,0
4.9348,7.1e-05,0
4.9353,6.1097e-05,0
4.9358,5.3376e-05,0
4.9363,4.8508e-05,0
4.9368,4.9012e-05,0
4.9374,5.2537e-05,0
4.9379,5.7237e-05,0
4.9384,6.3951e-05,0
4.9389,6.949e-05,0
4.9394,7.1336e-05,0
4.94,6.6636e-05,0
4.9405,5.3544e-05,0
4.941,4.0787e-05,0
4.9415,3.4241e-05,0
4.942,2.7863e-05,0
4.9426,1.7624e-05,0
4.9431,5.7069e-06,0
4.9436,-8.3925e-07,0
4.9441,-1.1749e-06,0
4.9446,1.1749e-06,0
4.9452,7.0497e-06,0
4.9457,1.7288e-05,0
4.9462,2.7695e-05,0
4.9467,3.1052e-05,0
4.9472,2.2995e-05,0
4.9478,1.1582e-05,0
4.9483,2.182e-06,0
4.9488,-3.5248e-06,0
4.9493,-2.8534e-06,0
4.9498,2.8534e-06,0
4.9503,9.5674e-06,0
4.9509,1.6617e-05,0
4.9514,2.0645e-05,0
4.9519,2.1988e-05,0
4.9524,2.4674e-05,0
4.9529,3.1388e-05,0
4.9535,4.2802e-05,0
4.954,5.4887e-05,0
4.9545,5.6062e-05,0
4.955,4.4648e-05,0
4.9555,2.9709e-05,0
4.9561,1.8967e-05,0
4.9566,1.2589e-05,0
4.9571,9.7353e-06,0
4.9576,9.0639e-06,0
4.9581,1.1078e-05,0
4.9587,1.0071e-05,0
4.9592,-1.5106e-06,0
4.9597,-1.4771e-05,0
4.9602,-2.2156e-05,0
4.9607,-2.5513e-05,0
4.9612,-2.7359e-05,0
4.9618,-2.652e-05,0
4.9623,-2.031e-05,0
4.9628,-1.091e-05,0
4.9633,-3.357e-07,0
4.9638,1.091e-05,0
4.9644,2.0142e-05,0
4.9649,2.3163e-05,0
4.9654,2.5849e-05,0
4.9659,3.4577e-05,0
4.9664,4.2634e-05,0
4.967,4.3473e-05,0
4.9675,4.1123e-05,0
4.968,4.1459e-05,0
4.9685,4.5991e-05,0
4.969,4.8005e-05,0
4.9696,4.8173e-05,0
4.9701,5.0187e-05,0
4.9706,4.9516e-05,0
4.9711,4.3137e-05,0
4.9716,3.4073e-05,0
4.9722,2.4338e-05,0
4.9727,2.031e-05,0
4.9732,1.9303e-05,0
4.9737,1.8799e-05,0
4.9742,1.8128e-05,0
4.9748,1.4939e-05,0
4.9753,1.2589e-05,0
4.9758,1.4939e-05,0
4.9763,2.1317e-05,0
4.9768,2.6688e-05,0
4.9773,2.3835e-05,0
4.9779,1.5946e-05,0
4.9784,8.896e-06,0
4.9789,8.3925e-06,0
4.9794,1.2924e-05,0
4.9799,1.6785e-05,0
4.9805,1.5778e-05,0
4.981,1.0239e-05,0
4.9815,5.0355e-06,0
4.982,4.6998e-06,0
4.9825,9.5674e-06,0
4.9831,1.4939e-05,0
4.9836,1.7624e-05,0
4.9841,1.8967e-05,0
4.9846,2.0981e-05,0
4.9851,2.266e-05,0
4.9857,2.5681e-05,0
4.9862,2.3163e-05,0
4.9867,1.4603e-05,0
4.9872,5.8747e-06,0
4.9877,-2.8534e-06,0
4.9882,-9.5674e-06,0
4.9888,-1.1246e-05,0
4.9893,-9.7353e-06,0
4.9898,-8.896e-06,0
4.9903,-8.2246e-06,0
4.9908,-4.5319e-06,0
4.9914,3.1891e-06,0
4.9919,1.4267e-05,0
4.9924,2.4002e-05,0
4.9929,3.0045e-05,0
4.9934,3.508e-05,0
4.994,3.5752e-05,0
4.9945,2.0981e-05,0
4.995,8.3925e-07,0
4.9955,-1.091e-05,0
4.996,-9.2317e-06,0
4.9966,-2.8534e-06,0
4.9971,-5.0355e-07,0
4.9976,-1.6785e-07,0
4.9981,-8.3925e-07,0
4.9986,-5.0355e-06,0
4.9992,-9.2317e-06,0
4.9997,-9.2317e-06,0
5.0002,-3.6927e-06,0
5.0007,9.9031e-06,0
5.0012,2.9374e-05,0
5.0018,4.8173e-05,0
5.0023,6.8315e-05,0
5.0028,8.4764e-05,0
5.0033,9.2988e-05,0
5.0038,8.4092e-05,0
5.0043,5.8915e-05,0
5.0049,3.4409e-05,0
5.0054,1.6953e-05,0
5.0059,2.8534e-06,0
5.0064,-4.6998e-06,0
5.0069,-5.2033e-06,0
5.0075,-5.0355e-06,0
5.008,-6.8818e-06,0
5.0085,-7.5532e-06,0
5.009,-7.2175e-06,0
5.0095,-8.5603e-06,0
5.0101,-1.8463e-06,0
5.0106,1.6617e-05,0
5.0111,3.8437e-05,0
5.0116,5.8076e-05,0
5.0121,7.6707e-05,0
5.0127,8.4428e-05,0
5.0132,7.8889e-05,0
5.0137,7.0161e-05,0
5.0142,6.8147e-05,0
5.0147,7.8553e-05,0
5.0152,9.0639e-05,0
5.0158,8.7785e-05,0
5.0163,7.1336e-05,0
5.0168,5.2201e-05,0
5.0173,3.9445e-05,0
5.0178,3.0045e-05,0
5.0184,1.7624e-05,0
5.0189,5.8747e-06,0
5.0194,2.0142e-06,0
5.0199,3.8605e-06,0
5.0204,4.1962e-06,0
5.021,5.539e-06,0
5.0215,1.1246e-05,0
5.022,1.3931e-05,0
5.0225,1.2589e-05,0
5.023,1.0575e-05,0
5.0236,5.7069e-06,0
5.0241,-2.8534e-06,0
5.0246,-8.5603e-06,0
5.0251,-1.0407e-05,0
5.0256,-1.3764e-05,0
5.0262,-1.9638e-05,0
5.0267,-2.1653e-05,0
5.0272,-9.5674e-06,0
5.0277,1.6281e-05,0
5.0282,3.8773e-05,0
5.0287,5.0858e-05,0
5.0293,5.2873e-05,0
5.0298,4.683e-05,0
5.0303,3.6423e-05,0
5.0308,2.7192e-05,0
5.0313,2.6184e-05,0
5.0319,3.4241e-05,0
5.0324,4.448e-05,0
5.0329,4.8844e-05,0
5.0334,4.5991e-05,0
5.0339,3.7263e-05,0
5.0345,2.5681e-05,0
5.035,1.3596e-05,0
5.0355,4.5319e-06,0
5.036,8.3925e-07,0
5.0365,-6.714e-07,0
5.0371,-6.2104e-06,0
5.0376,-1.7288e-05,0
5.0381,-2.9877e-05,0
5.0386,-3.6088e-05,0
5.0391,-3.4745e-05,0
5.0397,-2.887e-05,0
5.0402,-2.031e-05,0
5.0407,-6.8818e-06,0
5.0412,1.1078e-05,0
5.0417,2.6688e-05,0
5.0423,3.743e-05,0
5.0428,4.5487e-05,0
5.0433,4.8676e-05,0
5.0438,4.683e-05,0
5.0443,4.2802e-05,0
5.0448,3.9277e-05,0
5.0454,3.743e-05,0
5.0459,3.5248e-05,0
5.0464,3.0549e-05,0
5.0469,2.5177e-05,0
5.0474,2.4842e-05,0
5.048,2.6352e-05,0
5.0485,2.4674e-05,0
5.049,2.0142e-05,0
5.0495,1.5946e-05,0
5.05,1.2421e-05,0
5.0506,1.1078e-05,0
5.0511,1.1582e-05,0
5.0516,1.5106e-05,0
5.0521,1.9303e-05,0
5.0526,2.2324e-05,0
5.0532,2.266e-05,0
5.0537,1.796e-05,0
5.0542,1.4603e-05,0
5.0547,1.5946e-05,0
5.0552,1.3931e-05,0
5.0557,8.5603e-06,0
5.0563,5.2033e-06,0
5.0568,-3.357e-07,0
5.0573,-9.9031e-06,0
5.0578,-1.7121e-05,0
5.0583,-2.1149e-05,0
5.0589,-2.1149e-05,0
5.0594,-1.7456e-05,0
5.0599,-1.091e-05,0
5.0604,-4.1962e-06,0
5.0609,-1.0071e-06,0
5.0615,-4.8676e-06,0
5.062,-4.6998e-06,0
5.0625,7.3854e-06,0
5.063,2.6688e-05,0
5.0635,4.8005e-05,0
5.0641,6.5461e-05,0
5.0646,7.5029e-05,0
5.0651,6.9657e-05,0
5.0656,5.1194e-05,0
5.0661,3.4745e-05,0
5.0667,2.6688e-05,0
5.0672,2.0645e-05,0
5.0677,1.5442e-05,0
5.0682,1.3764e-05,0
5.0687,1.2421e-05,0
5.0693,1.1246e-05,0
5.0698,1.2253e-05,0
5.0703,1.4435e-05,0
5.0708,1.5946e-05,0
5.0713,1.9303e-05,0
5.0718,3.1052e-05,0
5.0724,4.0787e-05,0
5.0729,4.1291e-05,0
5.0734,4.0787e-05,0
5.0739,4.7501e-05,0
5.0744,5.4887e-05,0
5.075,5.3376e-05,0
5.0755,4.4816e-05,0
5.076,3.2731e-05,0
5.0765,2.0142e-05,0
5.077,1.2757e-05,0
5.0776,7.7211e-06,0
5.0781,1.5106e-06,0
5.0786,-4.8676e-06,0
5.0791,-1.7624e-05,0
5.0796,-3.5752e-05,0
5.0802,-5.0858e-05,0
5.0807,-5.7572e-05,0
5.0812,-5.6733e-05,0
5.0817,-4.7837e-05,0
5.0822,-3.6423e-05,0
5.0827,-2.7359e-05,0
5.0833,-2.0645e-05,0
5.0838,-6.0426e-06,0
5.0843,2.8031e-05,0
5.0848,6.8986e-05,0
5.0853,9.6849e-05,0
5.0859,0.00010507,0
5.0864,9.9199e-05,0
5.0869,9.3156e-05,0
5.0874,9.4331e-05,0
5.0879,9.0135e-05,0
5.0885,7.5364e-05,0
5.089,6.0594e-05,0
5.0895,4.8844e-05,0
5.09,3.508e-05,0
5.0905,2.1653e-05,0
5.0911,1.4603e-05,0
5.0916,1.326e-05,0
5.0921,1.1917e-05,0
5.0926,6.2104e-06,0
5.0931,8.3925e-07,0
5.0937,-8.3925e-07,0
5.0942,-2.3499e-06,0
5.0947,-7.5532e-06,0
5.0952,-1.1246e-05,0
5.0957,-9.2317e-06,0
5.0963,-2.182e-06,0
5.0968,1.0575e-05,0
5.0973,2.7024e-05,0
5.0978,4.3977e-05,0
5.0983,6.1936e-05,0
5.0988,7.1839e-05,0
5.0994,6.5629e-05,0
5.0999,5.623e-05,0
5.1004,5.5726e-05,0
5.1009,5.7237e-05,0
5.1014,4.683e-05,0
5.102,3.0884e-05,0
5.1025,1.8799e-05,0
5.103,1.3931e-05,0
5.1035,1.3092e-05,0
5.104,1.4267e-05,0
5.1046,1.7121e-05,0
5.1051,2.2156e-05,0
5.1056,2.501e-05,0
5.1061,2.1317e-05,0
5.1066,1.1414e-05,0
5.1072,8.3925e-07,0
5.1077,-5.539e-06,0
5.1082,-8.896e-06,0
5.1087,-1.1246e-05,0
5.1092,-1.4099e-05,0
5.1098,-1.8967e-05,0
5.1103,-2.417e-05,0
5.1108,-2.9877e-05,0
5.1113,-3.6088e-05,0
5.1118,-3.4409e-05,0
5.1123,-2.7863e-05,0
5.1129,-2.4338e-05,0
5.1134,-2.0645e-05,0
5.1139,-1.4603e-05,0
5.1144,-6.5461e-06,0
5.1149,3.0213e-06,0
5.1155,1.1246e-05,0
5.116,2.1317e-05,0
5.1165,3.5752e-05,0
5.117,5.7908e-05,0
5.1175,8.4428e-05,0
5.1181,0.00010088,0
5.1186,9.9702e-05,0
5.1191,8.9799e-05,0
5.1196,7.5029e-05,0
5.1201,5.8915e-05,0
5.1207,4.5319e-05,0
5.1212,3.7766e-05,0
5.1217,3.6088e-05,0
5.1222,3.8102e-05,0
5.1227,3.743e-05,0
5.1232,3.5752e-05,0
5.1238,3.2395e-05,0
5.1243,2.5177e-05,0
5.1248,1.6449e-05,0
5.1253,1.1582e-05,0
5.1258,1.1917e-05,0
5.1264,1.561e-05,0
5.1269,1.796e-05,0
5.1274,1.5274e-05,0
5.1279,1.0575e-05,0
5.1284,8.5603e-06,0
5.129,1.2253e-05,0
5.1295,1.5274e-05,0
5.13,1.1246e-05,0
5.1305,5.0355e-06,0
5.131,3.1891e-06,0
5.1316,3.357e-06,0
5.1321,4.1962e-06,0
5.1326,5.7069e-06,0
5.1331,5.8747e-06,0
5.1336,5.0355e-07,0
5.1342,-8.2246e-06,0
5.1347,-1.6114e-05,0
5.1352,-1.8296e-05,0
5.1357,-9.3996e-06,0
5.1362,3.1891e-06,0
5.1368,8.896e-06,0
5.1373,5.539e-06,0
5.1378,1.8463e-06,0
5.1383,1.8463e-06,0
5.1388,5.539e-06,0
5.1393,8.5603e-06,0
5.1399,1.1749e-06,0
5.1404,-1.3092e-05,0
5.1409,-1.5106e-05,0
5.1414,-6.8818e-06,0
5.1419,1.8463e-06,0
5.1425,5.8747e-06,0
5.143,7.8889e-06,0
5.1435,1.0239e-05,0
5.144,1.5274e-05,0
5.1445,2.8031e-05,0
5.1451,4.8844e-05,0
5.1456,6.9322e-05,0
5.1461,7.7043e-05,0
5.1466,6.4958e-05,0
5.1471,4.3977e-05,0
5.1477,3.743e-05,0
5.1482,5.4719e-05,0
5.1487,8.0064e-05,0
5.1492,9.0471e-05,0
5.1497,8.04e-05,0
5.1502,6.1265e-05,0
5.1508,4.2466e-05,0
5.1513,3.508e-05,0
5.1518,3.5752e-05,0
5.1523,3.8605e-05,0
5.1528,4.0955e-05,0
5.1534,3.743e-05,0
5.1539,2.2324e-05,0
5.1544,1.1749e-06,0
5.1549,-1.326e-05,0
5.1554,-1.4939e-05,0
5.156,-4.8676e-06,0
5.1565,8.5603e-06,0
5.157,1.8967e-05,0
5.1575,1.9638e-05,0
5.158,1.1749e-05,0
5.1586,4.5319e-06,0
5.1591,1.5106e-06,0
5.1596,1.6785e-07,0
5.1601,2.5177e-06,0
5.1606,1.1414e-05,0
5.1612,2.1149e-05,0
5.1617,2.6352e-05,0
5.1622,2.5849e-05,0
5.1627,2.3331e-05,0
5.1632,2.0478e-05,0
5.1638,1.5946e-05,0
5.1643,1.0575e-05,0
5.1648,8.3925e-07,0
5.1653,-1.3596e-05,0
5.1658,-2.7024e-05,0
5.1663,-3.9612e-05,0
5.1669,-5.5222e-05,0
5.1674,-6.63e-05,0
5.1679,-6.4958e-05,0
5.1684,-5.388e-05,0
5.1689,-3.2898e-05,0
5.1695,-6.714e-07,0
5.17,3.743e-05,0
5.1705,6.9154e-05,0
5.171,8.7449e-05,0
5.1715,9.8863e-05,0
5.1721,0.00011078,0
5.1726,0.000118,0
5.1731,0.00011498,0
5.1736,0.00010155,0
5.1741,8.3085e-05,0
5.1747,6.63e-05,0
5.1752,5.2201e-05,0
5.1757,4.3137e-05,0
5.1762,4.2634e-05,0
5.1767,4.1291e-05,0
5.1772,3.1891e-05,0
5.1778,1.3092e-05,0
5.1783,-7.8889e-06,0
5.1788,-2.3331e-05,0
5.1793,-3.1556e-05,0
5.1798,-3.2898e-05,0
5.1804,-2.6688e-05,0
5.1809,-1.561e-05,0
5.1814,-1.6785e-06,0
5.1819,1.4435e-05,0
5.1824,2.8031e-05,0
5.183,3.7095e-05,0
5.1835,4.3809e-05,0
5.184,4.6662e-05,0
5.1845,4.683e-05,0
5.185,4.9851e-05,0
5.1856,5.153e-05,0
5.1861,4.4144e-05,0
5.1866,3.1388e-05,0
5.1871,1.8631e-05,0
5.1876,1.091e-05,0
5.1882,1.0407e-05,0
5.1887,9.5674e-06,0
5.1892,6.2104e-06,0
5.1897,3.0213e-06,0
5.1902,-3.357e-07,0
5.1908,-3.5248e-06,0
5.1913,-4.3641e-06,0
5.1918,-3.0213e-06,0
5.1923,0,0
5.1928,3.8605e-06,0
5.1933,6.8818e-06,0
5.1939,8.896e-06,0
5.1944,1.0575e-05,0
5.1949,8.5603e-06,0
5.1954,6.0426e-06,0
5.1959,5.0355e-06,0
5.1965,4.5319e-06,0
5.197,5.0355e-06,0
5.1975,2.3499e-06,0
5.198,-2.8534e-06,0
5.1985,-4.1962e-06,0
5.1991,-3.1891e-06,0
5.1996,-3.8605e-06,0
5.2001,-1.5106e-06,0
5.2006,2.5177e-06,0
5.2011,8.5603e-06,0
5.2017,1.9974e-05,0
5.2022,3.2059e-05,0
5.2027,3.4745e-05,0
5.2032,3.1388e-05,0
5.2037,2.8031e-05,0
5.2043,2.8534e-05,0
5.2048,2.8702e-05,0
5.2053,2.8534e-05,0
5.2058,2.7863e-05,0
5.2063,2.6352e-05,0
5.2068,2.4674e-05,0
5.2074,2.4002e-05,0
5.2079,2.6017e-05,0
5.2084,2.7359e-05,0
5.2089,2.7695e-05,0
5.2094,2.8367e-05,0
5.21,2.8367e-05,0
5.2105,2.7024e-05,0
5.211,2.7695e-05,0
5.2115,2.9038e-05,0
5.212,2.7192e-05,0
5.2126,2.2995e-05,0
5.2131,1.796e-05,0
5.2136,1.326e-05,0
5.2141,9.2317e-06,0
5.2146,7.2175e-06,0
5.2152,8.5603e-06,0
5.2157,9.7353e-06,0
5.2162,5.2033e-06,0
5.2167,-5.8747e-06,0
5.2172,-1.6617e-05,0
5.2177,-2.0142e-05,0
5.2183,-1.561e-05,0
5.2188,-4.5319e-06,0
5.2193,7.2175e-06,0
5.2198,1.326e-05,0
5.2203,1.1917e-05,0
5.2209,5.0355e-06,0
5.2214,-1.5106e-06,0
5.2219,8.3925e-07,0
5.2224,7.8889e-06,0
5.2229,7.8889e-06,0
5.2235,3.1891e-06,0
5.224,4.1962e-06,0
5.2245,1.4267e-05,0
5.225,2.7024e-05,0
5.2255,3.9277e-05,0
5.2261,5.6901e-05,0
5.2266,7.7211e-05,0
5.2271,8.7114e-05,0
5.2276,8.2078e-05,0
5.2281,6.7643e-05,0
5.2287,5.0355e-05,0
5.2292,3.6759e-05,0
5.2297,3.0716e-05,0
5.2302,3.1388e-05,0
5.2307,3.7598e-05,0
5.2313,4.5823e-05,0
5.2318,4.8173e-05,0
5.2323,4.683e-05,0
5.2328,4.4816e-05,0
5.2333,4.3305e-05,0
5.2338,4.2802e-05,0
5.2344,4.448e-05,0
5.2349,4.7501e-05,0
5.2354,4.4648e-05,0
5.2359,3.0884e-05,0
5.2364,1.1582e-05,0
5.237,-5.8747e-06,0
5.2375,-2.7192e-05,0
5.238,-5.5222e-05,0
5.2385,-8.1071e-05,0
5.239,-8.6107e-05,0
5.2396,-6.9993e-05,0
5.2401,-4.8005e-05,0
5.2406,-2.6352e-05,0
5.2411,-2.5177e-06,0
5.2416,3.0045e-05,0
5.2422,6.949e-05,0
5.2427,0.00011061,0
5.2432,0.00015157,0
5.2437,0.00018329,0
5.2442,0.00018648,0
5.2447,0.00015023,0
5.2453,9.7185e-05,0
5.2458,5.5558e-05,0
5.2463,3.5416e-05,0
5.2468,2.6352e-05,0
5.2473,1.8799e-05,0
5.2479,7.2175e-06,0
5.2484,-8.3925e-06,0
5.2489,-2.0645e-05,0
5.2494,-2.2156e-05,0
5.2499,-1.7121e-05,0
5.2505,-8.896e-06,0
5.251,-3.357e-07,0
5.2515,4.8676e-06,0
5.252,7.3854e-06,0
5.2525,1.0575e-05,0
5.2531,1.3092e-05,0
5.2536,1.1749e-05,0
5.2541,1.2589e-05,0
5.2546,1.5106e-05,0
5.2551,1.796e-05,0
5.2557,2.0645e-05,0
5.2562,2.1988e-05,0
5.2567,1.9303e-05,0
5.2572,1.3931e-05,0
5.2577,8.5603e-06,0
5.2583,7.2175e-06,0
5.2588,7.8889e-06,0
5.2593,4.1962e-06,0
5.2598,-2.5177e-06,0
5.2603,-5.539e-06,0
5.2608,-5.539e-06,0
5.2614,-1.5106e-06,0
5.2619,4.5319e-06,0
5.2624,1.0575e-05,0
5.2629,1.3764e-05,0
5.2634,1.1749e-05,0
5.264,9.9031e-06,0
5.2645,1.326e-05,0
5.265,1.8631e-05,0
5.2655,1.8128e-05,0
5.266,7.2175e-06,0
5.2666,-7.0497e-06,0
5.2671,-1.5778e-05,0
5.2676,-1.6953e-05,0
5.2681,-1.561e-05,0
5.2686,-1.2757e-05,0
5.2692,-6.5461e-06,0
5.2697,1.3428e-06,0
5.2702,8.2246e-06,0
5.2707,1.326e-05,0
5.2712,1.7121e-05,0
5.2717,1.9638e-05,0
5.2723,1.9806e-05,0
5.2728,1.6617e-05,0
5.2733,1.4267e-05,0
5.2738,1.561e-05,0
5.2743,1.8128e-05,0
5.2749,2.0478e-05,0
5.2754,2.1988e-05,0
5.2759,2.0478e-05,0
5.2764,1.8128e-05,0
5.2769,2.0813e-05,0
5.2775,2.5345e-05,0
5.278,2.5681e-05,0
5.2785,2.1317e-05,0
5.279,1.5946e-05,0
5.2795,1.1582e-05,0
5.2801,8.896e-06,0
5.2806,7.5532e-06,0
5.2811,8.7282e-06,0
5.2816,8.896e-06,0
5.2821,9.3996e-06,0
5.2827,1.091e-05,0
5.2832,8.2246e-06,0
5.2837,3.5248e-06,0
5.2842,4.5319e-06,0
5.2847,1.0575e-05,0
5.2852,2.1317e-05,0
5.2858,3.2563e-05,0
5.2863,3.9277e-05,0
5.2868,4.1962e-05,0
5.2873,4.1291e-05,0
5.2878,4.062e-05,0
5.2884,3.9612e-05,0
5.2889,3.3066e-05,0
5.2894,2.2156e-05,0
5.2899,7.2175e-06,0
5.2904,-2.8534e-06,0
5.291,-1.3428e-06,0
5.2915,6.0426e-06,0
5.292,8.2246e-06,0
5.2925,4.5319e-06,0
5.293,-2.0142e-06,0
5.2936,-8.7282e-06,0
5.2941,-9.9031e-06,0
5.2946,-3.6927e-06,0
5.2951,-2.3499e-06,0
5.2956,-6.8818e-06,0
5.2962,-8.896e-06,0
5.2967,-4.5319e-06,0
5.2972,6.2104e-06,0
5.2977,2.6688e-05,0
5.2982,5.6901e-05,0
5.2988,9.8024e-05,0
5.2993,0.00014116,0
5.2998,0.000166,0
5.3003,0.00016886,0
5.3008,0.0001566,0
5.3013,0.00012857,0
5.3019,9.3828e-05,0
5.3024,7.1672e-05,0
5.3029,6.2943e-05,0
5.3034,4.918e-05,0
5.3039,2.6184e-05,0
5.3045,9.5674e-06,0
5.305,4.3641e-06,0
5.3055,3.357e-06,0
5.306,1.5106e-06,0
5.3065,-3.8605e-06,0
5.3071,-1.0239e-05,0
5.3076,-1.5778e-05,0
5.3081,-2.0142e-05,0
5.3086,-2.2828e-05,0
5.3091,-2.2995e-05,0
5.3097,-2.0813e-05,0
5.3102,-1.5442e-05,0
5.3107,-1.1246e-05,0
5.3112,-9.0639e-06,0
5.3117,-3.5248e-06,0
5.3122,1.2253e-05,0
5.3128,3.0213e-05,0
5.3133,3.2563e-05,0
5.3138,2.501e-05,0
5.3143,2.5513e-05,0
5.3148,3.4241e-05,0
5.3154,3.9277e-05,0
5.3159,3.6088e-05,0
5.3164,2.6352e-05,0
5.3169,1.8128e-05,0
5.3174,1.8631e-05,0
5.318,2.2324e-05,0
5.3185,2.0813e-05,0
5.319,1.4603e-05,0
5.3195,1.091e-05,0
5.32,1.0071e-05,0
5.3206,9.7353e-06,0
5.3211,5.539e-06,0
5.3216,-2.182e-06,0
5.3221,-9.5674e-06,0
5.3226,-1.091e-05,0
5.3232,-7.5532e-06,0
5.3237,-2.182e-06,0
5.3242,5.0355e-06,0
5.3247,1.2253e-05,0
5.3252,1.4267e-05,0
5.3258,9.9031e-06,0
5.3263,6.2104e-06,0
5.3268,6.0426e-06,0
5.3273,3.8605e-06,0
5.3278,-1.5106e-06,0
5.3283,-7.2175e-06,0
5.3289,-9.7353e-06,0
5.3294,-1.0575e-05,0
5.3299,-1.0239e-05,0
5.3304,-5.539e-06,0
5.3309,4.8676e-06,0
5.3315,1.6785e-05,0
5.332,3.0045e-05,0
5.3325,4.3473e-05,0
5.333,5.6733e-05,0
5.3335,5.9922e-05,0
5.3341,5.1026e-05,0
5.3346,3.6759e-05,0
5.3351,2.2492e-05,0
5.3356,8.3925e-06,0
5.3361,-5.539e-06,0
5.3367,-1.2924e-05,0
5.3372,-1.2757e-05,0
5.3377,-8.2246e-06,0
5.3382,-1.3428e-06,0
5.3387,1.0071e-05,0
5.3392,3.0381e-05,0
5.3398,5.3376e-05,0
5.3403,6.6972e-05,0
5.3408,6.8482e-05,0
5.3413,6.5629e-05,0
5.3418,5.8915e-05,0
5.3424,4.2466e-05,0
5.3429,1.9471e-05,0
5.3434,-5.8747e-06,0
5.3439,-2.8702e-05,0
5.3444,-3.8941e-05,0
5.345,-3.5248e-05,0
5.3455,-2.3331e-05,0
5.346,-6.5461e-06,0
5.3465,1.0239e-05,0
5.347,2.5345e-05,0
5.3476,4.6494e-05,0
5.3481,7.1839e-05,0
5.3486,9.0806e-05,0
5.3491,9.3156e-05,0
5.3496,8.3085e-05,0
5.3502,7.6204e-05,0
5.3507,7.9057e-05,0
5.3512,8.3589e-05,0
5.3517,7.6371e-05,0
5.3522,5.388e-05,0
5.3528,2.5681e-05,0
5.3533,8.896e-06,0
5.3538,7.2175e-06,0
5.3543,1.4939e-05,0
5.3548,2.6352e-05,0
5.3553,3.827e-05,0
5.3559,4.2802e-05,0
5.3564,3.6759e-05,0
5.3569,2.9374e-05,0
5.3574,3.3066e-05,0
5.3579,4.2802e-05,0
5.3585,4.5991e-05,0
5.359,3.9445e-05,0
5.3595,2.8702e-05,0
5.36,2.0645e-05,0
5.3605,1.4603e-05,0
5.3611,7.2175e-06,0
5.3616,3.1891e-06,0
5.3621,3.8605e-06,0
5.3626,5.539e-06,0
5.3631,4.5319e-06,0
5.3637,2.5177e-06,0
5.3642,-6.714e-07,0
5.3647,-2.182e-06,0
5.3652,2.5177e-06,0
5.3657,1.0575e-05,0
5.3662,9.3996e-06,0
5.3668,-4.1962e-06,0
5.3673,-1.5274e-05,0
5.3678,-1.8631e-05,0
5.3683,-1.6281e-05,0
5.3688,-1.2253e-05,0
5.3694,-8.3925e-06,0
5.3699,-2.8534e-06,0
5.3704,3.8605e-06,0
5.3709,1.0239e-05,0
5.3714,1.326e-05,0
5.372,1.2253e-05,0
5.3725,1.2085e-05,0
5.373,1.2589e-05,0
5.3735,7.2175e-06,0
5.374,-1.8463e-06,0
5.3746,-8.2246e-06,0
5.3751,-9.5674e-06,0
5.3756,-8.2246e-06,0
5.3761,-8.0568e-06,0
5.3766,-6.8818e-06,0
5.3772,-4.3641e-06,0
5.3777,-2.182e-06,0
5.3782,-6.714e-07,0
5.3787,4.1962e-06,0
5.3792,1.4267e-05,0
5.3797,2.2995e-05,0
5.3803,2.5681e-05,0
5.3808,2.5681e-05,0
5.3813,2.5345e-05,0
5.3818,2.2995e-05,0
5.3823,1.7792e-05,0
5.3829,1.326e-05,0
5.3834,1.2253e-05,0
5.3839,1.0575e-05,0
5.3844,6.2104e-06,0
5.3849,3.6927e-06,0
5.3855,5.0355e-06,0
5.386,7.2175e-06,0
5.3865,1.2253e-05,0
5.387,1.9135e-05,0
5.3875,2.6688e-05,0
5.3881,3.2731e-05,0
5.3886,3.3738e-05,0
5.3891,3.508e-05,0
5.3896,3.592e-05,0
5.3901,3.2563e-05,0
5.3907,2.5681e-05,0
5.3912,1.9471e-05,0
5.3917,1.9974e-05,0
5.3922,3.2059e-05,0
5.3927,4.6662e-05,0
5.3933,5.5222e-05,0
5.3938,5.2873e-05,0
5.3943,4.2634e-05,0
5.3948,3.3906e-05,0
5.3953,3.4745e-05,0
5.3958,4.213e-05,0
5.3964,4.3977e-05,0
5.3969,2.8367e-05,0
5.3974,5.8747e-06,0
5.3979,-5.539e-06,0
5.3984,-5.539e-06,0
5.399,-5.539e-06,0
5.3995,-9.9031e-06,0
5.4,-1.0575e-05,0
5.4005,-6.8818e-06,0
5.401,-1.6785e-07,0
5.4016,1.1582e-05,0
5.4021,2.266e-05,0
5.4026,3.1388e-05,0
5.4031,3.0381e-05,0
5.4036,1.7288e-05,0
5.4042,5.0355e-06,0
5.4047,1.6785e-07,0
5.4052,3.1891e-06,0
5.4057,4.8676e-06,0
5.4062,-1.8463e-06,0
5.4067,-8.2246e-06,0
5.4073,-1.1749e-06,0
5.4078,2.6017e-05,0
5.4083,7.1672e-05,0
5.4088,0.00011128,0
5.4093,0.00012656,0
5.4099,0.00012169,0
5.4104,0.00010944,0
5.4109,9.6513e-05,0
5.4114,8.3085e-05,0
5.4119,6.8315e-05,0
5.4125,5.4215e-05,0
5.413,3.978e-05,0
5.4135,1.8967e-05,0
5.414,-2.182e-06,0
5.4145,-1.0742e-05,0
5.4151,-7.8889e-06,0
5.4156,-2.182e-06,0
5.4161,4.6998e-06,0
5.4166,9.3996e-06,0
5.4171,1.091e-05,0
5.4177,7.8889e-06,0
5.4182,2.3499e-06,0
5.4187,-1.5106e-06,0
5.4192,-3.5248e-06,0
5.4197,-5.8747e-06,0
5.4203,-6.2104e-06,0
5.4208,-6.714e-07,0
5.4213,9.5674e-06,0
5.4218,1.9471e-05,0
5.4223,2.4002e-05,0
5.4228,2.5345e-05,0
5.4234,3.6088e-05,0
5.4239,5.8579e-05,0
5.4244,7.4525e-05,0
5.4249,6.7475e-05,0
5.4254,4.8508e-05,0
5.426,3.3738e-05,0
5.4265,2.7359e-05,0
5.427,2.3331e-05,0
5.4275,1.9638e-05,0
5.428,1.6281e-05,0
5.4286,1.3596e-05,0
5.4291,1.0575e-05,0
5.4296,6.5461e-06,0
5.4301,1.8463e-06,0
5.4306,-3.357e-07,0
5.4312,1.5106e-06,0
5.4317,2.8534e-06,0
5.4322,2.8534e-06,0
5.4327,8.3925e-07,0
5.4332,-5.539e-06,0
5.4337,-1.4939e-05,0
5.4343,-2.0981e-05,0
5.4348,-2.266e-05,0
5.4353,-1.8296e-05,0
5.4358,-1.326e-05,0
5.4363,-1.2924e-05,0
5.4369,-1.6617e-05,0
5.4374,-1.9303e-05,0
5.4379,-1.9303e-05,0
5.4384,-1.6281e-05,0
5.4389,-9.5674e-06,0
5.4395,3.357e-07,0
5.44,1.2589e-05,0
5.4405,2.266e-05,0
5.441,2.652e-05,0
5.4415,2.5345e-05,0
5.4421,1.8631e-05,0
5.4426,1.6449e-05,0
5.4431,1.9974e-05,0
5.4436,2.2995e-05,0
5.4441,2.5177e-05,0
5.4447,3.2059e-05,0
5.4452,4.4816e-05,0
5.4457,5.9251e-05,0
5.4462,6.5629e-05,0
5.4467,6.1265e-05,0
5.4473,5.2537e-05,0
5.4478,4.683e-05,0
5.4483,4.9516e-05,0
5.4488,5.4887e-05,0
5.4493,5.2369e-05,0
5.4498,4.1291e-05,0
5.4504,3.0213e-05,0
5.4509,2.3667e-05,0
5.4514,1.8463e-05,0
5.4519,1.6785e-05,0
5.4524,1.9303e-05,0
5.453,2.1988e-05,0
5.4535,2.0981e-05,0
5.454,1.8296e-05,0
5.4545,1.6281e-05,0
5.455,1.1414e-05,0
5.4556,1.5106e-06,0
5.4561,-9.2317e-06,0
5.4566,-1.4267e-05,0
5.4571,-1.4603e-05,0
5.4576,-1.1414e-05,0
5.4582,-6.5461e-06,0
5.4587,-2.182e-06,0
5.4592,-1.6785e-07,0
5.4597,2.3499e-06,0
5.4602,9.3996e-06,0
5.4607,1.7624e-05,0
5.4613,2.3331e-05,0
5.4618,2.1317e-05,0
5.4623,1.4267e-05,0
5.4628,1.0239e-05,0
5.4633,1.3596e-05,0
5.4639,1.8631e-05,0
5.4644,1.9806e-05,0
5.4649,1.4939e-05,0
5.4654,1.0407e-05,0
5.4659,1.2589e-05,0
5.4665,2.4506e-05,0
5.467,3.4073e-05,0
5.4675,3.1052e-05,0
5.468,1.7792e-05,0
5.4685,6.3783e-06,0
5.4691,6.3783e-06,0
5.4696,1.6449e-05,0
5.4701,2.9038e-05,0
5.4706,3.3402e-05,0
5.4711,2.6688e-05,0
5.4717,2.3331e-05,0
5.4722,3.1052e-05,0
5.4727,4.448e-05,0
5.4732,6.0258e-05,0
5.4737,7.6875e-05,0
5.4742,8.9632e-05,0
5.4748,9.3492e-05,0
5.4753,8.7449e-05,0
5.4758,7.0329e-05,0
5.4763,4.4816e-05,0
5.4768,2.0645e-05,0
5.4774,7.5532e-06,0
5.4779,5.7069e-06,0
5.4784,7.2175e-06,0
5.4789,6.5461e-06,0
5.4794,1.0071e-06,0
5.48,-8.2246e-06,0
5.4805,-1.0239e-05,0
5.481,-2.8534e-06,0
5.4815,4.1962e-06,0
5.482,7.8889e-06,0
5.4826,2.266e-05,0
5.4831,4.8508e-05,0
5.4836,6.865e-05,0
5.4841,7.2343e-05,0
5.4846,6.1936e-05,0
5.4852,4.683e-05,0
5.4857,3.3402e-05,0
5.4862,2.3499e-05,0
5.4867,1.6617e-05,0
5.4872,1.0575e-05,0
5.4878,5.8747e-06,0
5.4883,4.5319e-06,0
5.4888,5.2033e-06,0
5.4893,6.5461e-06,0
5.4898,4.8676e-06,0
5.4903,2.8534e-06,0
5.4909,4.3641e-06,0
5.4914,8.7282e-06,0
5.4919,1.091e-05,0
5.4924,1.4099e-05,0
5.4929,2.2492e-05,0
5.4935,2.9374e-05,0
5.494,2.6017e-05,0
5.4945,1.5778e-05,0
5.495,7.0497e-06,0
5.4955,2.5177e-06,0
5.4961,0,0
5.4966,-2.182e-06,0
5.4971,-2.6856e-06,0
5.4976,-1.6785e-06,0
5.4981,-3.357e-07,0
5.4987,5.0355e-07,0
5.4992,8.3925e-07,0
5.4997,1.5106e-06,0
5.5002,5.0355e-07,0
5.5007,-2.182e-06,0
5.5012,-8.3925e-07,0
5.5018,6.8818e-06,0
5.5023,1.8296e-05,0
5.5028,2.887e-05,0
5.5033,3.5752e-05,0
5.5038,4.1123e-05,0
5.5044,4.4312e-05,0
5.5049,4.2634e-05,0
5.5054,3.4745e-05,0
5.5059,2.3667e-05,0
5.5064,1.326e-05,0
5.507,7.2175e-06,0
5.5075,3.5248e-06,0
5.508,1.5106e-06,0
5.5085,8.3925e-07,0
5.509,3.5248e-06,0
5.5096,8.5603e-06,0
5.5101,1.091e-05,0
5.5106,1.0575e-05,0
5.5111,8.7282e-06,0
5.5116,7.2175e-06,0
5.5122,3.6927e-06,0
5.5127,-1.1749e-06,0
5.5132,-3.6927e-06,0
5.5137,-4.3641e-06,0
5.5142,-2.8534e-06,0
5.5148,2.182e-06,0
5.5153,9.3996e-06,0
5.5158,1.2757e-05,0
5.5163,1.3092e-05,0
5.5168,1.4771e-05,0
5.5173,1.7792e-05,0
5.5179,2.1653e-05,0
5.5184,2.9206e-05,0
5.5189,3.6088e-05,0
5.5194,4.0787e-05,0
5.5199,4.3473e-05,0
5.5205,4.448e-05,0
5.521,4.3809e-05,0
5.5215,4.1794e-05,0
5.522,3.8437e-05,0
5.5225,2.9374e-05,0
5.5231,1.4267e-05,0
5.5236,2.182e-06,0
5.5241,1.5106e-06,0
5.5246,9.9031e-06,0
5.5251,1.9638e-05,0
5.5257,2.4338e-05,0
5.5262,2.5849e-05,0
5.5267,2.7359e-05,0
5.5272,3.2898e-05,0
5.5277,4.3137e-05,0
5.5282,5.5222e-05,0
5.5288,6.0929e-05,0
5.5293,5.3544e-05,0
5.5298,3.9445e-05,0
5.5303,2.5849e-05,0
5.5308,1.7288e-05,0
5.5314,1.1749e-05,0
5.5319,9.2317e-06,0
5.5324,8.896e-06,0
5.5329,8.5603e-06,0
5.5334,7.3854e-06,0
5.534,7.2175e-06,0
5.5345,6.5461e-06,0
5.535,7.2175e-06,0
5.5355,1.0575e-05,0
5.536,1.4099e-05,0
5.5366,1.5106e-05,0
5.5371,1.561e-05,0
5.5376,1.4603e-05,0
5.5381,6.2104e-06,0
5.5386,-6.714e-06,0
5.5392,-1.1749e-05,0
5.5397,-1.2589e-05,0
5.5402,-1.5106e-05,0
5.5407,-1.0239e-05,0
5.5412,6.2104e-06,0
5.5418,2.8031e-05,0
5.5423,4.3977e-05,0
5.5428,5.304e-05,0
5.5433,6.9657e-05,0
5.5438,9.2485e-05,0
5.5443,0.00010121,0
5.5449,9.366e-05,0
5.5454,8.4428e-05,0
5.5459,8.5771e-05,0
5.5464,9.3828e-05,0
5.5469,9.4835e-05,0
5.5475,8.3085e-05,0
5.548,6.5461e-05,0
5.5485,5.304e-05,0
5.549,4.9851e-05,0
5.5495,4.2802e-05,0
5.5501,2.6184e-05,0
5.5506,9.0639e-06,0
5.5511,-2.5177e-06,0
5.5516,-8.0568e-06,0
5.5521,-1.7624e-05,0
5.5527,-3.6759e-05,0
5.5532,-5.9922e-05,0
5.5537,-7.6036e-05,0
5.5542,-7.9057e-05,0
5.5547,-7.0329e-05,0
5.5553,-5.2537e-05,0
5.5558,-3.1388e-05,0
5.5563,-1.2924e-05,0
5.5568,-1.1749e-06,0
5.5573,4.5319e-06,0
5.5578,1.0239e-05,0
5.5584,2.4002e-05,0
5.5589,3.9109e-05,0
5.5594,4.062e-05,0
5.5599,2.9374e-05,0
5.5604,1.4267e-05,0
5.561,5.2033e-06,0
5.5615,5.2033e-06,0
5.562,2.182e-06,0
5.5625,-1.0407e-05,0
5.563,-2.7695e-05,0
5.5636,-4.683e-05,0
5.5641,-6.6468e-05,0
5.5646,-7.6036e-05,0
5.5651,-7.1504e-05,0
5.5656,-5.623e-05,0
5.5662,-3.508e-05,0
5.5667,-1.0071e-05,0
5.5672,1.6617e-05,0
5.5677,4.5319e-05,0
5.5682,7.7043e-05,0
5.5687,0.00011397,0
5.5693,0.0001514,0
5.5698,0.0001754,0
5.5703,0.00018178,0
5.5708,0.00016818,0
5.5713,0.0001368,0
5.5719,0.00010054,0
5.5724,7.1e-05,0
5.5729,4.9516e-05,0
5.5734,3.3738e-05,0
5.5739,2.1653e-05,0
5.5745,1.3596e-05,0
5.575,7.8889e-06,0
5.5755,6.8818e-06,0
5.576,1.0407e-05,0
5.5765,1.5106e-05,0
5.5771,1.796e-05,0
5.5776,1.8296e-05,0
5.5781,1.4267e-05,0
5.5786,7.5532e-06,0
5.5791,2.0142e-06,0
5.5797,-1.1749e-06,0
5.5802,-4.3641e-06,0
5.5807,-6.8818e-06,0
5.5812,-1.1749e-06,0
5.5817,8.5603e-06,0
5.5823,1.5946e-05,0
5.5828,2.0478e-05,0
5.5833,2.1149e-05,0
5.5838,2.0478e-05,0
5.5843,2.1988e-05,0
5.5848,2.4842e-05,0
5.5854,2.6017e-05,0
5.5859,2.4506e-05,0
5.5864,2.1149e-05,0
5.5869,1.7792e-05,0
5.5874,1.4435e-05,0
5.588,9.2317e-06,0
5.5885,1.1749e-06,0
5.589,-4.6998e-06,0
5.5895,-7.0497e-06,0
5.59,-8.5603e-06,0
5.5906,-1.0407e-05,0
5.5911,-1.091e-05,0
5.5916,-8.2246e-06,0
5.5921,-3.1891e-06,0
5.5926,5.0355e-07,0
5.5932,3.357e-07,0
5.5937,-1.5106e-06,0
5.5942,1.6785e-06,0
5.5947,9.0639e-06,0
5.5952,1.1917e-05,0
5.5957,9.9031e-06,0
5.5963,3.5248e-06,0
5.5968,-2.8534e-06,0
5.5973,-9.0639e-06,0
5.5978,-1.4939e-05,0
5.5983,-1.4939e-05,0
5.5989,-7.3854e-06,0
5.5994,9.9031e-06,0
5.5999,2.7359e-05,0
5.6004,3.3402e-05,0
5.6009,3.2395e-05,0
5.6015,4.1459e-05,0
5.602,5.8915e-05,0
5.6025,6.6804e-05,0
5.603,5.9251e-05,0
5.6035,4.683e-05,0
5.6041,3.2059e-05,0
5.6046,1.5274e-05,0
5.6051,1.5106e-06,0
5.6056,-7.5532e-06,0
5.6061,-1.1582e-05,0
5.6067,-1.2253e-05,0
5.6072,-7.2175e-06,0
5.6077,3.8605e-06,0
5.6082,1.796e-05,0
5.6087,2.6017e-05,0
5.6093,3.1052e-05,0
5.6098,3.8437e-05,0
5.6103,5.0019e-05,0
5.6108,6.009e-05,0
5.6113,6.5965e-05,0
5.6118,6.63e-05,0
5.6124,5.6397e-05,0
5.6129,3.9445e-05,0
5.6134,2.6184e-05,0
5.6139,2.266e-05,0
5.6144,2.417e-05,0
5.615,2.6688e-05,0
5.6155,2.266e-05,0
5.616,1.2253e-05,0
5.6165,-8.3925e-07,0
5.617,-6.8818e-06,0
5.6176,-9.9031e-06,0
5.6181,-1.2589e-05,0
5.6186,-4.3641e-06,0
5.6191,1.4603e-05,0
5.6196,3.1388e-05,0
5.6202,3.3402e-05,0
5.6207,2.1988e-05,0
5.6212,1.3931e-05,0
5.6217,1.561e-05,0
5.6222,1.9806e-05,0
5.6227,1.7624e-05,0
5.6233,1.1246e-05,0
5.6238,7.5532e-06,0
5.6243,1.1582e-05,0
5.6248,2.5177e-05,0
5.6253,4.5823e-05,0
5.6259,6.5629e-05,0
5.6264,7.3014e-05,0
5.6269,6.5126e-05,0
5.6274,5.1362e-05,0
5.6279,3.8773e-05,0
5.6285,2.6688e-05,0
5.629,1.4603e-05,0
5.6295,5.0355e-06,0
5.63,-1.3428e-06,0
5.6305,-3.5248e-06,0
5.6311,-4.8676e-06,0
5.6316,-7.2175e-06,0
5.6321,-4.6998e-06,0
5.6326,5.0355e-07,0
5.6331,5.2033e-06,0
5.6337,1.6281e-05,0
5.6342,3.4913e-05,0
5.6347,4.683e-05,0
5.6352,4.7333e-05,0
5.6357,4.5991e-05,0
5.6363,4.5823e-05,0
5.6368,4.5151e-05,0
5.6373,3.8941e-05,0
5.6378,3.0381e-05,0
5.6383,2.7527e-05,0
5.6388,3.2395e-05,0
5.6394,3.978e-05,0
5.6399,4.5487e-05,0
5.6404,4.9516e-05,0
5.6409,5.4551e-05,0
5.6414,5.7237e-05,0
5.642,5.1362e-05,0
5.6425,4.0116e-05,0
5.643,2.8367e-05,0
5.6435,1.5946e-05,0
5.644,6.5461e-06,0
5.6446,1.0071e-06,0
5.6451,-3.1891e-06,0
5.6456,-5.2033e-06,0
5.6461,-7.7211e-06,0
5.6466,-9.0639e-06,0
5.6472,-6.5461e-06,0
5.6477,-2.182e-06,0
5.6482,-1.1749e-06,0
5.6487,-4.1962e-06,0
5.6492,-7.8889e-06,0
5.6498,-8.2246e-06,0
5.6503,-6.2104e-06,0
5.6508,-2.8534e-06,0
5.6513,-6.714e-07,0
5.6518,2.5177e-06,0
5.6523,6.714e-06,0
5.6529,1.0071e-05,0
5.6534,1.1582e-05,0
5.6539,1.7624e-05,0
5.6544,2.2995e-05,0
5.6549,2.2995e-05,0
5.6555,2.2324e-05,0
5.656,2.6352e-05,0
5.6565,3.0884e-05,0
5.657,2.6352e-05,0
5.6575,1.7792e-05,0
5.6581,1.561e-05,0
5.6586,1.7288e-05,0
5.6591,1.7121e-05,0
5.6596,1.2757e-05,0
5.6601,5.2033e-06,0
5.6607,-2.8534e-06,0
5.6612,-1.1582e-05,0
5.6617,-1.5946e-05,0
5.6622,-1.4267e-05,0
5.6627,-1.1582e-05,0
5.6632,-1.091e-05,0
5.6638,-7.5532e-06,0
5.6643,-1.1749e-06,0
5.6648,5.2033e-06,0
5.6653,1.1246e-05,0
5.6658,1.6953e-05,0
5.6664,1.8631e-05,0
5.6669,1.7792e-05,0
5.6674,1.9806e-05,0
5.6679,3.2059e-05,0
5.6684,5.0355e-05,0
5.669,5.9586e-05,0
5.6695,5.623e-05,0
5.67,4.8844e-05,0
5.6705,4.448e-05,0
5.671,4.5319e-05,0
5.6716,5.0019e-05,0
5.6721,5.539e-05,0
5.6726,5.8244e-05,0
5.6731,5.7908e-05,0
5.6736,5.539e-05,0
5.6742,4.918e-05,0
5.6747,3.8437e-05,0
5.6752,2.6352e-05,0
5.6757,1.6281e-05,0
5.6762,8.3925e-06,0
5.6768,1.6785e-07,0
5.6773,-1.0575e-05,0
5.6778,-2.2995e-05,0
5.6783,-3.3738e-05,0
5.6788,-4.213e-05,0
5.6793,-4.8844e-05,0
5.6799,-5.0019e-05,0
5.6804,-4.5487e-05,0
5.6809,-3.6255e-05,0
5.6814,-2.4338e-05,0
5.6819,-7.5532e-06,0
5.6825,1.3931e-05,0
5.683,3.9109e-05,0
5.6835,5.9922e-05,0
5.684,6.4958e-05,0
5.6845,6.4958e-05,0
5.6851,6.8315e-05,0
5.6856,6.5965e-05,0
5.6861,5.623e-05,0
5.6866,4.7333e-05,0
5.6871,4.9012e-05,0
5.6877,5.7069e-05,0
5.6882,4.4984e-05,0
5.6887,9.7353e-06,0
5.6892,-2.3331e-05,0
5.6897,-3.743e-05,0
5.6902,-3.0381e-05,0
5.6908,-6.2104e-06,0
5.6913,2.2492e-05,0
5.6918,4.2466e-05,0
5.6923,5.4719e-05,0
5.6928,7.0161e-05,0
5.6934,8.9799e-05,0
5.6939,0.00010105,0
5.6944,9.6513e-05,0
5.6949,8.5771e-05,0
5.6954,7.805e-05,0
5.696,7.5029e-05,0
5.6965,6.7475e-05,0
5.697,5.4551e-05,0
5.6975,4.7837e-05,0
5.698,5.2873e-05,0
5.6986,6.1936e-05,0
5.6991,6.6972e-05,0
5.6996,6.2943e-05,0
5.7001,4.7837e-05,0
5.7006,2.6688e-05,0
5.7012,1.0407e-05,0
5.7017,-1.1749e-06,0
5.7022,-1.1078e-05,0
5.7027,-1.6449e-05,0
5.7032,-1.8631e-05,0
5.7038,-2.1317e-05,0
5.7043,-2.5681e-05,0
5.7048,-3.2395e-05,0
5.7053,-4.0116e-05,0
5.7058,-4.7837e-05,0
5.7063,-5.4047e-05,0
5.7069,-5.7908e-05,0
5.7074,-5.6397e-05,0
5.7079,-5.0187e-05,0
5.7084,-4.2969e-05,0
5.7089,-3.6423e-05,0
5.7095,-2.1988e-05,0
5.71,-1.8463e-06,0
5.7105,1.2253e-05,0
5.711,2.2324e-05,0
5.7115,3.9445e-05,0
5.7121,5.9586e-05,0
5.7126,6.9657e-05,0
5.7131,6.7308e-05,0
5.7136,5.7572e-05,0
5.7141,4.8508e-05,0
5.7147,3.8773e-05,0
5.7152,2.4002e-05,0
5.7157,1.2253e-05,0
5.7162,9.5674e-06,0
5.7167,1.1246e-05,0
5.7172,1.4099e-05,0
5.7178,1.8967e-05,0
5.7183,2.3331e-05,0
5.7188,2.5177e-05,0
5.7193,2.5345e-05,0
5.7198,2.4674e-05,0
5.7204,2.5345e-05,0
5.7209,2.9709e-05,0
5.7214,3.508e-05,0
5.7219,3.6927e-05,0
5.7224,3.2898e-05,0
5.723,2.4674e-05,0
5.7235,1.7121e-05,0
5.724,1.2757e-05,0
5.7245,1.0239e-05,0
5.725,1.1078e-05,0
5.7256,1.326e-05,0
5.7261,1.326e-05,0
5.7266,1.1917e-05,0
5.7271,9.2317e-06,0
5.7276,1.0575e-05,0
5.7282,1.5946e-05,0
5.7287,1.6953e-05,0
5.7292,1.3092e-05,0
5.7297,1.1749e-05,0
5.7302,1.326e-05,0
5.7307,1.6617e-05,0
5.7313,1.9135e-05,0
5.7318,2.0645e-05,0
5.7323,2.1988e-05,0
5.7328,2.2156e-05,0
5.7333,2.0813e-05,0
5.7339,1.6617e-05,0
5.7344,1.0407e-05,0
5.7349,7.2175e-06,0
5.7354,7.0497e-06,0
5.7359,6.2104e-06,0
5.7365,4.8676e-06,0
5.737,4.8676e-06,0
5.7375,4.0284e-06,0
5.738,1.1749e-06,0
5.7385,-5.0355e-07,0
5.7391,2.5177e-06,0
5.7396,8.7282e-06,0
5.7401,1.4603e-05,0
5.7406,1.7288e-05,0
5.7411,2.1317e-05,0
5.7417,3.0213e-05,0
5.7422,3.9109e-05,0
5.7427,4.213e-05,0
5.7432,3.978e-05,0
5.7437,3.6255e-05,0
5.7443,3.7766e-05,0
5.7448,4.3977e-05,0
5.7453,4.8005e-05,0
5.7458,4.5487e-05,0
5.7463,3.592e-05,0
5.7468,2.501e-05,0
5.7474,1.2589e-05,0
5.7479,-3.357e-06,0
5.7484,-1.5442e-05,0
5.7489,-2.182e-05,0
5.7494,-2.2492e-05,0
5.75,-1.8967e-05,0
5.7505,-1.5946e-05,0
5.751,-1.6281e-05,0
5.7515,-1.4939e-05,0
5.752,-1.0239e-05,0
5.7526,-6.2104e-06,0
5.7531,5.0355e-07,0
5.7536,1.5946e-05,0
5.7541,3.1724e-05,0
5.7546,4.1459e-05,0
5.7552,4.8173e-05,0
5.7557,5.304e-05,0
5.7562,6.0594e-05,0
5.7567,7.9728e-05,0
5.7572,0.00010893,0
5.7577,0.00012706,0
5.7583,0.00011397,0
5.7588,7.8721e-05,0
5.7593,4.8173e-05,0
5.7598,3.3738e-05,0
5.7603,2.6352e-05,0
5.7609,1.3931e-05,0
5.7614,-3.1891e-06,0
5.7619,-1.4939e-05,0
5.7624,-1.5106e-05,0
5.7629,-1.091e-05,0
5.7635,-1.2924e-05,0
5.764,-1.6617e-05,0
5.7645,-1.9974e-05,0
5.765,-3.1052e-05,0
5.7655,-4.3809e-05,0
5.7661,-4.8508e-05,0
5.7666,-3.9277e-05,0
5.7671,-1.5442e-05,0
5.7676,1.4603e-05,0
5.7681,3.3738e-05,0
5.7687,3.6423e-05,0
5.7692,3.7095e-05,0
5.7697,5.8915e-05,0
5.7702,0.00010105,0
5.7707,0.00013092,0
5.7713,0.00013008,0
5.7718,0.00011196,0
5.7723,9.9535e-05,0
5.7728,9.5003e-05,0
5.7733,8.4932e-05,0
5.7738,6.6972e-05,0
5.7744,4.9516e-05,0
5.7749,3.6255e-05,0
5.7754,2.4674e-05,0
5.7759,1.5274e-05,0
5.7764,9.9031e-06,0
5.777,8.896e-06,0
5.7775,1.0239e-05,0
5.778,1.0575e-05,0
5.7785,5.539e-06,0
5.779,-2.182e-06,0
5.7796,-6.2104e-06,0
5.7801,-7.2175e-06,0
5.7806,-7.7211e-06,0
5.7811,-8.5603e-06,0
5.7816,-1.0239e-05,0
5.7822,-1.1246e-05,0
5.7827,-1.6281e-05,0
5.7832,-2.501e-05,0
5.7837,-2.9877e-05,0
5.7842,-2.8534e-05,0
5.7847,-2.6352e-05,0
5.7853,-2.3667e-05,0
5.7858,-1.7288e-05,0
5.7863,-5.539e-06,0
5.7868,8.3925e-06,0
5.7873,1.7624e-05,0
5.7879,2.6184e-05,0
5.7884,3.5752e-05,0
5.7889,3.4073e-05,0
5.7894,1.9806e-05,0
5.7899,1.5106e-06,0
5.7905,-1.0407e-05,0
5.791,-1.3764e-05,0
5.7915,-1.091e-05,0
5.792,-7.7211e-06,0
5.7925,-6.2104e-06,0
5.7931,-2.5177e-06,0
5.7936,5.2033e-06,0
5.7941,1.1246e-05,0
5.7946,1.1749e-05,0
5.7951,1.2253e-05,0
5.7957,1.6617e-05,0
5.7962,1.8631e-05,0
5.7967,1.8463e-05,0
5.7972,2.6184e-05,0
5.7977,4.0116e-05,0
5.7983,5.1865e-05,0
5.7988,5.8076e-05,0
5.7993,5.7572e-05,0
5.7998,4.9851e-05,0
5.8003,3.7934e-05,0
5.8008,2.5849e-05,0
5.8014,1.8296e-05,0
5.8019,1.9471e-05,0
5.8024,2.7359e-05,0
5.8029,3.1388e-05,0
5.8034,2.5345e-05,0
5.804,1.326e-05,0
5.8045,4.1962e-06,0
5.805,8.3925e-07,0
5.8055,1.1749e-06,0
5.806,1.6785e-07,0
5.8066,-5.2033e-06,0
5.8071,-1.0239e-05,0
5.8076,-9.0639e-06,0
5.8081,-5.2033e-06,0
5.8086,1.6785e-07,0
5.8092,9.2317e-06,0
5.8097,1.8967e-05,0
5.8102,2.6688e-05,0
5.8107,3.0716e-05,0
5.8112,3.1388e-05,0
5.8117,3.2731e-05,0
5.8123,4.1459e-05,0
5.8128,6.009e-05,0
5.8133,7.6371e-05,0
5.8138,7.7714e-05,0
5.8143,6.4622e-05,0
5.8149,4.9012e-05,0
5.8154,3.743e-05,0
5.8159,2.9038e-05,0
5.8164,1.8463e-05,0
5.8169,1.326e-05,0
5.8175,1.7121e-05,0
5.818,2.1317e-05,0
5.8185,2.5345e-05,0
5.819,3.2563e-05,0
5.8195,4.0116e-05,0
5.8201,4.0452e-05,0
5.8206,3.4073e-05,0
5.8211,2.7359e-05,0
5.8216,2.1653e-05,0
5.8221,1.3428e-05,0
5.8227,-4.0284e-06,0
5.8232,-2.2492e-05,0
5.8237,-2.8367e-05,0
5.8242,-1.8967e-05,0
5.8247,-9.3996e-06,0
5.8252,-6.0426e-06,0
5.8258,-1.5106e-06,0
5.8263,9.5674e-06,0
5.8268,2.6688e-05,0
5.8273,4.6662e-05,0
5.8278,6.1601e-05,0
5.8284,6.3615e-05,0
5.8289,5.0858e-05,0
5.8294,2.5177e-05,0
5.8299,-2.8534e-06,0
5.8304,-1.5778e-05,0
5.831,-9.5674e-06,0
5.8315,6.0426e-06,0
5.832,1.8799e-05,0
5.8325,2.8702e-05,0
5.833,4.2802e-05,0
5.8336,5.388e-05,0
5.8341,5.539e-05,0
5.8346,4.8005e-05,0
5.8351,3.3402e-05,0
5.8356,1.7288e-05,0
5.8362,1.0575e-05,0
5.8367,1.9974e-05,0
5.8372,3.8773e-05,0
5.8377,4.8844e-05,0
5.8382,4.0116e-05,0
5.8388,1.9974e-05,0
5.8393,1.1749e-06,0
5.8398,-1.0071e-05,0
5.8403,-1.4771e-05,0
5.8408,-1.796e-05,0
5.8413,-2.0645e-05,0
5.8419,-1.2924e-05,0
5.8424,6.5461e-06,0
5.8429,3.1556e-05,0
5.8434,4.8005e-05,0
5.8439,4.5487e-05,0
5.8445,2.8702e-05,0
5.845,1.6785e-05,0
5.8455,1.561e-05,0
5.846,1.5274e-05,0
5.8465,1.3092e-05,0
5.8471,1.1749e-05,0
5.8476,1.0575e-05,0
5.8481,9.2317e-06,0
5.8486,8.2246e-06,0
5.8491,1.0239e-05,0
5.8497,2.3667e-05,0
5.8502,4.1291e-05,0
5.8507,5.4215e-05,0
5.8512,5.8915e-05,0
5.8517,5.5894e-05,0
5.8522,5.1194e-05,0
5.8528,4.8844e-05,0
5.8533,4.8173e-05,0
5.8538,4.4816e-05,0
5.8543,3.7766e-05,0
5.8548,2.9374e-05,0
5.8554,1.9974e-05,0
5.8559,9.7353e-06,0
5.8564,1.3428e-06,0
5.8569,-4.1962e-06,0
5.8574,-3.6927e-06,0
5.858,-3.357e-07,0
5.8585,0,0
5.859,-1.0071e-06,0
5.8595,-1.1749e-06,0
5.86,-3.5248e-06,0
5.8606,-8.5603e-06,0
5.8611,-1.1582e-05,0
5.8616,-7.0497e-06,0
5.8621,0,0
5.8626,5.8747e-06,0
5.8632,1.0407e-05,0
5.8637,1.1246e-05,0
5.8642,1.1917e-05,0
5.8647,1.4267e-05,0
5.8652,1.4435e-05,0
5.8658,1.1246e-05,0
5.8663,1.1582e-05,0
5.8668,1.5946e-05,0
5.8673,1.796e-05,0
5.8678,1.6449e-05,0
5.8683,1.1582e-05,0
5.8689,7.2175e-06,0
5.8694,8.0568e-06,0
5.8699,1.561e-05,0
5.8704,1.8631e-05,0
5.8709,1.4771e-05,0
5.8715,1.2924e-05,0
5.872,1.5946e-05,0
5.8725,1.9135e-05,0
5.873,2.0981e-05,0
5.8735,2.4842e-05,0
5.8741,3.0716e-05,0
5.8746,3.6927e-05,0
5.8751,4.2466e-05,0
5.8756,4.5991e-05,0
5.8761,4.6159e-05,0
5.8767,4.2802e-05,0
5.8772,3.5416e-05,0
5.8777,2.6017e-05,0
5.8782,1.796e-05,0
5.8787,1.1078e-05,0
5.8792,5.8747e-06,0
5.8798,2.8534e-06,0
5.8803,2.5177e-06,0
5.8808,2.8534e-06,0
5.8813,5.539e-06,0
5.8818,1.2589e-05,0
5.8824,2.1317e-05,0
5.8829,3.0716e-05,0
5.8834,3.6088e-05,0
5.8839,3.6423e-05,0
5.8844,3.827e-05,0
5.885,3.9948e-05,0
5.8855,3.1556e-05,0
5.886,1.5778e-05,0
5.8865,0,0
5.887,-8.3925e-06,0
5.8876,-8.3925e-06,0
5.8881,-3.6927e-06,0
5.8886,5.0355e-07,0
5.8891,2.8534e-06,0
5.8896,4.8676e-06,0
5.8902,9.5674e-06,0
5.8907,1.5106e-05,0
5.8912,2.182e-05,0
5.8917,3.8437e-05,0
5.8922,5.9251e-05,0
5.8928,7.1e-05,0
5.8933,6.9657e-05,0
5.8938,5.9922e-05,0
5.8943,5.0523e-05,0
5.8948,4.683e-05,0
5.8953,4.5823e-05,0
5.8959,4.213e-05,0
5.8964,3.3402e-05,0
5.8969,2.7359e-05,0
5.8974,2.9206e-05,0
5.8979,3.2731e-05,0
5.8985,3.1724e-05,0
5.899,2.7192e-05,0
5.8995,2.1317e-05,0
5.9,1.7792e-05,0
5.9005,1.6449e-05,0
5.9011,1.7121e-05,0
5.9016,2.0645e-05,0
5.9021,2.6184e-05,0
5.9026,2.7695e-05,0
5.9031,2.2324e-05,0
5.9037,1.4603e-05,0
5.9042,9.0639e-06,0
5.9047,4.8676e-06,0
5.9052,0,0
5.9057,-1.0071e-05,0
5.9062,-2.6688e-05,0
5.9068,-4.1459e-05,0
5.9073,-5.0523e-05,0
5.9078,-5.4551e-05,0
5.9083,-5.4887e-05,0
5.9088,-5.539e-05,0
5.9094,-5.9586e-05,0
5.9099,-5.8412e-05,0
5.9104,-4.2466e-05,0
5.9109,-1.2253e-05,0
5.9114,2.1988e-05,0
5.912,5.0019e-05,0
5.9125,6.5629e-05,0
5.913,6.7475e-05,0
5.9135,6.865e-05,0
5.914,8.1239e-05,0
5.9146,9.987e-05,0
5.9151,0.00011061,0
5.9156,0.00011044,0
5.9161,9.8695e-05,0
5.9166,8.04e-05,0
5.9172,6.3951e-05,0
5.9177,5.2705e-05,0
5.9182,4.7837e-05,0
5.9187,5.0858e-05,0
5.9192,5.6062e-05,0
5.9197,5.7237e-05,0
5.9203,4.9348e-05,0
5.9208,3.0716e-05,0
5.9213,1.0575e-05,0
5.9218,-5.0355e-06,0
5.9223,-1.796e-05,0
5.9229,-2.7527e-05,0
5.9234,-3.0549e-05,0
5.9239,-2.8702e-05,0
5.9244,-2.2492e-05,0
5.9249,-1.1414e-05,0
5.9255,-2.5177e-06,0
5.926,2.5177e-06,0
5.9265,9.3996e-06,0
5.927,1.9135e-05,0
5.9275,2.8031e-05,0
5.9281,4.2802e-05,0
5.9286,5.5558e-05,0
5.9291,5.2705e-05,0
5.9296,3.6591e-05,0
5.9301,1.7624e-05,0
5.9307,5.539e-06,0
5.9312,-2.0142e-06,0
5.9317,-8.896e-06,0
5.9322,-3.1891e-06,0
5.9327,1.091e-05,0
5.9333,1.6114e-05,0
5.9338,1.0575e-05,0
5.9343,5.539e-06,0
5.9348,8.2246e-06,0
5.9353,1.2924e-05,0
5.9358,9.7353e-06,0
5.9364,1.0071e-06,0
5.9369,-4.8676e-06,0
5.9374,-4.5319e-06,0
5.9379,2.8534e-06,0
5.9384,2.0142e-05,0
5.939,3.1556e-05,0
5.9395,2.0645e-05,0
5.94,-1.3428e-06,0
5.9405,-1.8128e-05,0
5.941,-2.3667e-05,0
5.9416,-2.2995e-05,0
5.9421,-1.796e-05,0
5.9426,-4.1962e-06,0
5.9431,1.7288e-05,0
5.9436,3.5752e-05,0
5.9442,4.2802e-05,0
5.9447,4.3305e-05,0
5.9452,4.1962e-05,0
5.9457,3.9445e-05,0
5.9462,3.4409e-05,0
5.9467,3.1891e-05,0
5.9473,2.9709e-05,0
5.9478,2.6688e-05,0
5.9483,2.9374e-05,0
5.9488,3.508e-05,0
5.9493,3.7766e-05,0
5.9499,3.8437e-05,0
5.9504,3.6088e-05,0
5.9509,2.8702e-05,0
5.9514,2.5177e-05,0
5.9519,2.7863e-05,0
5.9525,3.2395e-05,0
5.953,3.6759e-05,0
5.9535,3.8102e-05,0
5.954,3.3738e-05,0
5.9545,2.3835e-05,0
5.9551,1.0071e-05,0
5.9556,-6.3783e-06,0
5.9561,-2.2995e-05,0
5.9566,-3.5248e-05,0
5.9571,-3.6088e-05,0
5.9577,-3.1724e-05,0
5.9582,-3.3906e-05,0
5.9587,-3.7934e-05,0
5.9592,-3.1052e-05,0
5.9597,-1.2589e-05,0
5.9603,1.326e-05,0
5.9608,4.3977e-05,0
5.9613,6.9657e-05,0
5.9618,8.8121e-05,0
5.9623,0.00010507,0
