122.48,-2.182e-06,0
122.48,-1.1749e-06,0
122.48,4.3641e-06,0
122.48,1.6785e-06,0
122.48,-5.0355e-06,0
122.48,-6.5461e-06,0
122.48,-4.1962e-06,0
122.48,-4.8676e-06,0
122.48,-1.2924e-05,0
122.48,-1.8967e-05,0
122.48,-1.6281e-05,0
122.48,-1.2589e-05,0
122.48,-9.0639e-06,0
122.48,-1.0575e-05,0
122.48,-2.1317e-05,0
122.48,-3.2395e-05,0
122.49,-3.6423e-05,0
122.49,-4.1794e-05,0
122.49,-5.7237e-05,0
122.49,-7.5868e-05,0
122.49,-8.3421e-05,0
122.49,-7.8386e-05,0
122.49,-6.8315e-05,0
122.49,-5.388e-05,0
122.49,-3.0884e-05,0
122.49,3.357e-07,0
122.49,3.2395e-05,0
122.49,5.2705e-05,0
122.49,5.4719e-05,0
122.49,4.9516e-05,0
122.49,4.6159e-05,0
122.49,3.9445e-05,0
122.49,3.4745e-05,0
122.49,4.1794e-05,0
122.49,4.918e-05,0
122.5,4.3473e-05,0
122.5,3.0381e-05,0
122.5,1.9974e-05,0
122.5,9.9031e-06,0
122.5,-3.6927e-06,0
122.5,-1.3092e-05,0
122.5,-1.5946e-05,0
122.5,-1.4267e-05,0
122.5,-1.091e-05,0
122.5,-5.8747e-06,0
122.5,-7.5532e-06,0
122.5,-2.7024e-05,0
122.5,-5.9922e-05,0
122.5,-9.366e-05,0
122.5,-0.00011431,0
122.5,-0.00012102,0
122.5,-0.00011044,0
122.5,-8.1407e-05,0
122.5,-4.3809e-05,0
122.51,-1.326e-05,0
122.51,3.1891e-06,0
122.51,1.796e-05,0
122.51,5.0858e-05,0
122.51,0.00010256,0
122.51,0.00014553,0
122.51,0.00016399,0
122.51,0.00016063,0
122.51,0.00014553,0
122.51,0.00012186,0
122.51,8.8457e-05,0
122.51,5.2873e-05,0
122.51,2.2492e-05,0
122.51,9.5674e-06,0
122.51,2.1317e-05,0
122.51,4.0116e-05,0
122.51,5.1194e-05,0
122.51,5.7908e-05,0
122.51,6.4622e-05,0
122.52,6.6468e-05,0
122.52,5.4887e-05,0
122.52,3.6759e-05,0
122.52,1.7456e-05,0
122.52,-3.357e-06,0
122.52,-1.326e-05,0
122.52,1.8463e-06,0
122.52,2.2324e-05,0
122.52,2.3499e-05,0
122.52,1.4435e-05,0
122.52,5.2033e-06,0
122.52,-4.1962e-06,0
122.52,-4.3641e-06,0
122.52,1.4435e-05,0
122.52,4.7837e-05,0
122.52,8.4092e-05,0
122.52,0.00012102,0
122.52,0.00016298,0
122.52,0.00020394,0
122.53,0.00022744,0
122.53,0.00022341,0
122.53,0.00019437,0
122.53,0.00015929,0
122.53,0.00012572,0
122.53,9.0303e-05,0
122.53,4.918e-05,0
122.53,1.2589e-05,0
122.53,-9.2317e-06,0
122.53,-1.6785e-05,0
122.53,-1.3931e-05,0
122.53,-6.2104e-06,0
122.53,-1.5106e-06,0
122.53,-1.1246e-05,0
122.53,-3.978e-05,0
122.53,-7.3182e-05,0
122.53,-9.3492e-05,0
122.53,-0.0001039,0
122.53,-0.00011783,0
122.53,-0.0001326,0
122.54,-0.00013462,0
122.54,-0.00012119,0
122.54,-0.00010037,0
122.54,-7.9728e-05,0
122.54,-5.9922e-05,0
122.54,-3.2059e-05,0
122.54,3.0213e-06,0
122.54,3.0045e-05,0
122.54,3.5752e-05,0
122.54,2.0645e-05,0
122.54,2.6856e-06,0
122.54,-8.7282e-06,0
122.54,-1.2085e-05,0
122.54,-5.539e-06,0
122.54,6.5461e-06,0
122.54,1.8631e-05,0
122.54,2.9709e-05,0
122.54,4.0787e-05,0
122.54,4.8173e-05,0
122.55,4.6494e-05,0
122.55,3.7263e-05,0
122.55,3.2059e-05,0
122.55,3.3402e-05,0
122.55,3.3402e-05,0
122.55,2.7359e-05,0
122.55,1.2421e-05,0
122.55,-4.5319e-06,0
122.55,-1.4435e-05,0
122.55,-1.7288e-05,0
122.55,-1.6281e-05,0
122.55,-7.5532e-06,0
122.55,6.0426e-06,0
122.55,1.091e-05,0
122.55,7.2175e-06,0
122.55,3.357e-06,0
122.55,1.0575e-05,0
122.55,2.7359e-05,0
122.55,4.3809e-05,0
122.56,5.8915e-05,0
122.56,7.4189e-05,0
122.56,8.5771e-05,0
122.56,9.7185e-05,0
122.56,0.0001086,0
122.56,0.00011061,0
122.56,0.00010121,0
122.56,9.0974e-05,0
122.56,7.7714e-05,0
122.56,5.2033e-05,0
122.56,2.1988e-05,0
122.56,-4.5319e-06,0
122.56,-2.6017e-05,0
122.56,-3.508e-05,0
122.56,-3.3738e-05,0
122.56,-3.0884e-05,0
122.56,-2.9206e-05,0
122.56,-2.8367e-05,0
122.56,-2.7695e-05,0
122.56,-2.4002e-05,0
122.57,-1.2253e-05,0
122.57,4.3641e-06,0
122.57,1.7624e-05,0
122.57,2.652e-05,0
122.57,2.9709e-05,0
122.57,3.2059e-05,0
122.57,3.508e-05,0
122.57,3.6759e-05,0
122.57,2.9709e-05,0
122.57,1.2924e-05,0
122.57,-4.6998e-06,0
122.57,-1.1078e-05,0
122.57,-5.3712e-06,0
122.57,5.8747e-06,0
122.57,9.0639e-06,0
122.57,5.2033e-06,0
122.57,7.5532e-06,0
122.57,1.1078e-05,0
122.57,3.8605e-06,0
122.58,-7.2175e-06,0
122.58,-1.1414e-05,0
122.58,-1.5274e-05,0
122.58,-2.6688e-05,0
122.58,-4.1123e-05,0
122.58,-5.6397e-05,0
122.58,-5.3208e-05,0
122.58,-1.5274e-05,0
122.58,3.5584e-05,0
122.58,7.3014e-05,0
122.58,8.8457e-05,0
122.58,8.6778e-05,0
122.58,8.2414e-05,0
122.58,8.4428e-05,0
122.58,9.7185e-05,0
122.58,0.00011917,0
122.58,0.00013663,0
122.58,0.00013327,0
122.58,0.00011263,0
122.59,8.6778e-05,0
122.59,6.4118e-05,0
122.59,4.9348e-05,0
122.59,3.8437e-05,0
122.59,2.4338e-05,0
122.59,1.3092e-05,0
122.59,9.0639e-06,0
122.59,7.2175e-06,0
122.59,4.1962e-06,0
122.59,-1.6785e-06,0
122.59,-5.0355e-06,0
122.59,-2.8534e-06,0
122.59,-1.6785e-06,0
122.59,-5.0355e-06,0
122.59,-5.8747e-06,0
122.59,3.357e-06,0
122.59,1.4771e-05,0
122.59,1.6281e-05,0
122.59,1.5106e-06,0
122.6,-2.1988e-05,0
122.6,-4.0116e-05,0
122.6,-4.4648e-05,0
122.6,-4.2634e-05,0
122.6,-4.1459e-05,0
122.6,-4.1459e-05,0
122.6,-3.8437e-05,0
122.6,-2.7527e-05,0
122.6,-7.8889e-06,0
122.6,1.3764e-05,0
122.6,2.7863e-05,0
122.6,3.1388e-05,0
122.6,3.0716e-05,0
122.6,2.501e-05,0
122.6,1.7288e-05,0
122.6,1.3931e-05,0
122.6,1.5946e-05,0
122.6,1.6281e-05,0
122.6,9.0639e-06,0
122.6,-1.0239e-05,0
122.61,-4.1794e-05,0
122.61,-7.3014e-05,0
122.61,-8.8121e-05,0
122.61,-7.9896e-05,0
122.61,-5.1194e-05,0
122.61,-1.7121e-05,0
122.61,9.3996e-06,0
122.61,2.4002e-05,0
122.61,2.887e-05,0
122.61,3.9445e-05,0
122.61,7.1672e-05,0
122.61,0.00013629,0
122.61,0.00022676,0
122.61,0.00030767,0
122.61,0.00033587,0
122.61,0.00030364,0
122.61,0.00024422,0
122.61,0.0001895,0
122.61,0.00014754,0
122.62,0.00011598,0
122.62,8.6442e-05,0
122.62,5.5894e-05,0
122.62,2.7359e-05,0
122.62,3.8605e-06,0
122.62,-1.8967e-05,0
122.62,-4.3137e-05,0
122.62,-6.4622e-05,0
122.62,-7.8721e-05,0
122.62,-9.4499e-05,0
122.62,-0.00011397,0
122.62,-0.00013143,0
122.62,-0.00014351,0
122.62,-0.00014418,0
122.62,-0.0001321,0
122.62,-0.00010726,0
122.62,-7.5868e-05,0
122.62,-4.1459e-05,0
122.62,-5.0355e-06,0
122.63,3.1388e-05,0
122.63,6.7308e-05,0
122.63,0.00010457,0
122.63,0.00013881,0
122.63,0.00016231,0
122.63,0.00016667,0
122.63,0.00014351,0
122.63,9.8527e-05,0
122.63,5.5222e-05,0
122.63,3.1724e-05,0
122.63,2.5849e-05,0
122.63,2.5345e-05,0
122.63,1.8631e-05,0
122.63,5.8747e-06,0
122.63,-6.8818e-06,0
122.63,-1.8967e-05,0
122.63,-2.6017e-05,0
122.63,-2.7024e-05,0
122.63,-2.4842e-05,0
122.64,-2.2995e-05,0
122.64,-2.2324e-05,0
122.64,-2.3331e-05,0
122.64,-2.652e-05,0
122.64,-3.0716e-05,0
122.64,-3.4409e-05,0
122.64,-3.7934e-05,0
122.64,-4.213e-05,0
122.64,-4.448e-05,0
122.64,-4.3809e-05,0
122.64,-4.1794e-05,0
122.64,-3.9109e-05,0
122.64,-3.3066e-05,0
122.64,-2.501e-05,0
122.64,-2.2828e-05,0
122.64,-2.417e-05,0
122.64,-2.0645e-05,0
122.64,-1.326e-05,0
122.64,-5.2033e-06,0
122.64,-1.5106e-06,0
122.65,-3.1891e-06,0
122.65,-4.8676e-06,0
122.65,-8.3925e-07,0
122.65,7.7211e-06,0
122.65,1.5778e-05,0
122.65,2.0478e-05,0
122.65,2.3163e-05,0
122.65,2.1988e-05,0
122.65,1.8967e-05,0
122.65,1.4939e-05,0
122.65,9.5674e-06,0
122.65,6.8818e-06,0
122.65,1.1414e-05,0
122.65,1.561e-05,0
122.65,1.3596e-05,0
122.65,6.5461e-06,0
122.65,-5.0355e-06,0
122.65,-1.5946e-05,0
122.65,-1.8296e-05,0
122.66,-1.0575e-05,0
122.66,5.2033e-06,0
122.66,2.7024e-05,0
122.66,5.0523e-05,0
122.66,7.0665e-05,0
122.66,8.3085e-05,0
122.66,8.8457e-05,0
122.66,9.0806e-05,0
122.66,9.6178e-05,0
122.66,0.00010826,0
122.66,0.00011766,0
122.66,0.00011632,0
122.66,0.00010491,0
122.66,8.5435e-05,0
122.66,5.539e-05,0
122.66,1.9135e-05,0
122.66,-6.2104e-06,0
122.66,-6.2104e-06,0
122.66,1.3428e-05,0
122.67,3.0045e-05,0
122.67,3.0884e-05,0
122.67,1.6281e-05,0
122.67,-1.8967e-05,0
122.67,-7.6707e-05,0
122.67,-0.00013394,0
122.67,-0.00015727,0
122.67,-0.00013277,0
122.67,-8.6275e-05,0
122.67,-5.1194e-05,0
122.67,-3.6591e-05,0
122.67,-3.1556e-05,0
122.67,-1.5946e-05,0
122.67,1.6953e-05,0
122.67,5.9419e-05,0
122.67,0.0001185,0
122.67,0.00020478,0
122.67,0.00029223,0
122.67,0.00033352,0
122.67,0.00031673,0
122.68,0.00027611,0
122.68,0.00024204,0
122.68,0.00021669,0
122.68,0.00018984,0
122.68,0.00015895,0
122.68,0.00013176,0
122.68,0.00010222,0
122.68,6.7308e-05,0
122.68,3.4409e-05,0
122.68,3.8605e-06,0
122.68,-2.8367e-05,0
122.68,-5.9251e-05,0
122.68,-7.7043e-05,0
122.68,-7.5029e-05,0
122.68,-6.2608e-05,0
122.68,-5.388e-05,0
122.68,-5.3544e-05,0
122.68,-5.388e-05,0
122.68,-4.6494e-05,0
122.69,-3.5752e-05,0
122.69,-2.5681e-05,0
122.69,-1.326e-05,0
122.69,-1.0071e-06,0
122.69,-2.8534e-06,0
122.69,-2.2156e-05,0
122.69,-4.448e-05,0
122.69,-5.6565e-05,0
122.69,-6.0258e-05,0
122.69,-6.0761e-05,0
122.69,-5.9922e-05,0
122.69,-5.8579e-05,0
122.69,-5.4719e-05,0
122.69,-4.6494e-05,0
122.69,-3.743e-05,0
122.69,-2.887e-05,0
122.69,-2.031e-05,0
122.69,-1.5274e-05,0
122.69,-1.3931e-05,0
122.7,-1.1246e-05,0
122.7,-7.3854e-06,0
122.7,-3.5248e-06,0
122.7,-8.2246e-06,0
122.7,-2.1988e-05,0
122.7,-2.9038e-05,0
122.7,-2.3667e-05,0
122.7,-2.0981e-05,0
122.7,-2.4338e-05,0
122.7,-2.6352e-05,0
122.7,-2.5681e-05,0
122.7,-2.031e-05,0
122.7,-2.5177e-06,0
122.7,2.031e-05,0
122.7,4.213e-05,0
122.7,6.2272e-05,0
122.7,8.0232e-05,0
122.7,9.0303e-05,0
122.7,8.8121e-05,0
122.71,8.04e-05,0
122.71,6.8818e-05,0
122.71,5.7237e-05,0
122.71,5.3208e-05,0
122.71,5.2537e-05,0
122.71,3.978e-05,0
122.71,1.3596e-05,0
122.71,-9.2317e-06,0
122.71,-1.9303e-05,0
122.71,-1.8967e-05,0
122.71,-1.4603e-05,0
122.71,-9.7353e-06,0
122.71,-2.8534e-06,0
122.71,7.8889e-06,0
122.71,2.0813e-05,0
122.71,3.2059e-05,0
122.71,4.3137e-05,0
122.71,5.2705e-05,0
122.71,5.4551e-05,0
122.72,4.8173e-05,0
122.72,3.6759e-05,0
122.72,2.266e-05,0
122.72,1.1414e-05,0
122.72,4.8676e-06,0
122.72,-1.1749e-06,0
122.72,-1.0239e-05,0
122.72,-2.0478e-05,0
122.72,-2.8367e-05,0
122.72,-2.501e-05,0
122.72,-5.7069e-06,0
122.72,2.031e-05,0
122.72,4.7166e-05,0
122.72,7.2175e-05,0
122.72,9.2317e-05,0
122.72,0.00010491,0
122.72,0.00011078,0
122.72,0.00011598,0
122.72,0.00011632,0
122.72,0.00010121,0
122.73,7.57e-05,0
122.73,4.8173e-05,0
122.73,1.8967e-05,0
122.73,-8.896e-06,0
122.73,-3.1052e-05,0
122.73,-5.1865e-05,0
122.73,-6.949e-05,0
122.73,-7.4525e-05,0
122.73,-6.0929e-05,0
122.73,-3.5416e-05,0
122.73,-1.0407e-05,0
122.73,7.5532e-06,0
122.73,2.2324e-05,0
122.73,3.3402e-05,0
122.73,3.4745e-05,0
122.73,2.9374e-05,0
122.73,1.8631e-05,0
122.73,-2.0142e-06,0
122.73,-2.0645e-05,0
122.74,-2.5345e-05,0
122.74,-2.2995e-05,0
122.74,-1.9638e-05,0
122.74,-8.3925e-06,0
122.74,1.7624e-05,0
122.74,6.0258e-05,0
122.74,0.000118,0
122.74,0.00018094,0
122.74,0.00022844,0
122.74,0.00023684,0
122.74,0.00020327,0
122.74,0.00015157,0
122.74,9.7688e-05,0
122.74,4.683e-05,0
122.74,5.0355e-06,0
122.74,-1.8967e-05,0
122.74,-2.2995e-05,0
122.74,-1.8967e-05,0
122.74,-1.9303e-05,0
122.75,-2.5849e-05,0
122.75,-2.7024e-05,0
122.75,-1.6617e-05,0
122.75,5.0355e-07,0
122.75,1.8128e-05,0
122.75,3.5416e-05,0
122.75,4.8508e-05,0
122.75,4.8844e-05,0
122.75,3.9445e-05,0
122.75,2.5849e-05,0
122.75,1.3931e-05,0
122.75,7.8889e-06,0
122.75,6.5461e-06,0
122.75,4.6998e-06,0
122.75,1.6785e-07,0
122.75,-1.091e-05,0
122.75,-2.501e-05,0
122.75,-3.2563e-05,0
122.75,-2.9206e-05,0
122.75,-2.1653e-05,0
122.76,-2.2995e-05,0
122.76,-3.3906e-05,0
122.76,-4.0116e-05,0
122.76,-3.8437e-05,0
122.76,-4.1794e-05,0
122.76,-5.623e-05,0
122.76,-7.2679e-05,0
122.76,-7.6707e-05,0
122.76,-6.0594e-05,0
122.76,-3.4409e-05,0
122.76,-1.091e-05,0
122.76,6.2104e-06,0
122.76,1.9638e-05,0
122.76,3.6255e-05,0
122.76,5.6733e-05,0
122.76,7.3686e-05,0
122.76,8.3757e-05,0
122.76,8.9799e-05,0
122.76,8.7114e-05,0
122.77,7.8889e-05,0
122.77,6.949e-05,0
122.77,5.8244e-05,0
122.77,4.4984e-05,0
122.77,3.2898e-05,0
122.77,2.6017e-05,0
122.77,2.4674e-05,0
122.77,2.6688e-05,0
122.77,2.1653e-05,0
122.77,9.5674e-06,0
122.77,0,0
122.77,-5.539e-06,0
122.77,-1.1582e-05,0
122.77,-2.0478e-05,0
122.77,-2.7527e-05,0
122.77,-3.2898e-05,0
122.77,-3.8773e-05,0
122.77,-4.213e-05,0
122.77,-4.0452e-05,0
122.78,-3.2898e-05,0
122.78,-1.5946e-05,0
122.78,8.3925e-06,0
122.78,2.5177e-05,0
122.78,2.8031e-05,0
122.78,2.1149e-05,0
122.78,1.6281e-05,0
122.78,2.3835e-05,0
122.78,3.6423e-05,0
122.78,4.3977e-05,0
122.78,4.0116e-05,0
122.78,2.5513e-05,0
122.78,1.1749e-06,0
122.78,-3.1724e-05,0
122.78,-6.3615e-05,0
122.78,-7.9896e-05,0
122.78,-6.6468e-05,0
122.78,-2.8702e-05,0
122.78,1.0575e-05,0
122.79,3.7095e-05,0
122.79,4.8173e-05,0
122.79,5.3208e-05,0
122.79,5.8244e-05,0
122.79,6.7811e-05,0
122.79,8.4092e-05,0
122.79,0.00011783,0
122.79,0.0001697,0
122.79,0.00020612,0
122.79,0.00019857,0
122.79,0.00015727,0
122.79,0.00010726,0
122.79,5.7572e-05,0
122.79,1.326e-05,0
122.79,-9.0639e-06,0
122.79,-6.8818e-06,0
122.79,8.3925e-07,0
122.79,0,0
122.79,-8.896e-06,0
122.8,-2.031e-05,0
122.8,-2.2156e-05,0
122.8,-1.2589e-05,0
122.8,1.6785e-06,0
122.8,1.6281e-05,0
122.8,3.1388e-05,0
122.8,4.7669e-05,0
122.8,6.2272e-05,0
122.8,6.479e-05,0
122.8,5.153e-05,0
122.8,2.1317e-05,0
122.8,-9.7353e-06,0
122.8,-2.1485e-05,0
122.8,-1.4099e-05,0
122.8,-8.896e-06,0
122.8,-1.5106e-05,0
122.8,-2.8367e-05,0
122.8,-4.1627e-05,0
122.8,-4.3137e-05,0
122.8,-2.501e-05,0
122.81,3.1891e-06,0
122.81,3.0884e-05,0
122.81,5.9419e-05,0
122.81,8.9128e-05,0
122.81,0.00010944,0
122.81,0.0001091,0
122.81,0.00010172,0
122.81,9.8527e-05,0
122.81,9.2149e-05,0
122.81,8.1239e-05,0
122.81,8.2246e-05,0
122.81,9.6178e-05,0
122.81,9.8863e-05,0
122.81,7.1336e-05,0
122.81,2.5681e-05,0
122.81,-1.091e-05,0
122.81,-3.0549e-05,0
122.81,-3.6759e-05,0
122.81,-3.122e-05,0
122.82,-2.1653e-05,0
122.82,-1.5274e-05,0
122.82,-1.5946e-05,0
122.82,-2.1653e-05,0
122.82,-2.3667e-05,0
122.82,-1.6617e-05,0
122.82,-8.2246e-06,0
122.82,-1.091e-05,0
122.82,-2.417e-05,0
122.82,-3.8437e-05,0
122.82,-4.448e-05,0
122.82,-4.4312e-05,0
122.82,-4.3137e-05,0
122.82,-4.3137e-05,0
122.82,-3.9612e-05,0
122.82,-3.2731e-05,0
122.82,-2.7695e-05,0
122.82,-2.501e-05,0
122.82,-1.6449e-05,0
122.83,-2.8534e-06,0
122.83,8.896e-06,0
122.83,1.6617e-05,0
122.83,2.0478e-05,0
122.83,1.9638e-05,0
122.83,1.2589e-05,0
122.83,6.0426e-06,0
122.83,1.6785e-06,0
122.83,-2.0142e-06,0
122.83,-4.5319e-06,0
122.83,-4.1962e-06,0
122.83,-4.8676e-06,0
122.83,-1.0239e-05,0
122.83,-1.7624e-05,0
122.83,-2.266e-05,0
122.83,-2.1653e-05,0
122.83,-1.4267e-05,0
122.83,-3.357e-07,0
122.83,1.8296e-05,0
122.83,3.2059e-05,0
122.84,3.8437e-05,0
122.84,4.3809e-05,0
122.84,4.8844e-05,0
122.84,5.3544e-05,0
122.84,6.1097e-05,0
122.84,7.0329e-05,0
122.84,7.7379e-05,0
122.84,7.4861e-05,0
122.84,6.7643e-05,0
122.84,6.4286e-05,0
122.84,6.7979e-05,0
122.84,7.3686e-05,0
122.84,7.3686e-05,0
122.84,5.9922e-05,0
122.84,3.4073e-05,0
122.84,7.8889e-06,0
122.84,-8.2246e-06,0
122.84,-1.4267e-05,0
122.84,-1.8967e-05,0
122.85,-3.0716e-05,0
122.85,-4.448e-05,0
122.85,-4.7837e-05,0
122.85,-4.062e-05,0
122.85,-3.4913e-05,0
122.85,-2.8534e-05,0
122.85,-1.2421e-05,0
122.85,1.0575e-05,0
122.85,3.1388e-05,0
122.85,4.7166e-05,0
122.85,6.4286e-05,0
122.85,8.4932e-05,0
122.85,0.00010726,0
122.85,0.00013814,0
122.85,0.00016986,0
122.85,0.00018682,0
122.85,0.00018346,0
122.85,0.00016399,0
122.85,0.00013042,0
122.86,9.2485e-05,0
122.86,6.5293e-05,0
122.86,4.6494e-05,0
122.86,2.9374e-05,0
122.86,1.8296e-05,0
122.86,1.8463e-05,0
122.86,2.1988e-05,0
122.86,2.0645e-05,0
122.86,1.2421e-05,0
122.86,-7.2175e-06,0
122.86,-3.1052e-05,0
122.86,-4.6494e-05,0
122.86,-5.9251e-05,0
122.86,-7.0329e-05,0
122.86,-8.2582e-05,0
122.86,-0.00010507,0
122.86,-0.00013109,0
122.86,-0.00014049,0
122.86,-0.00012723,0
122.87,-0.00010524,0
122.87,-9.5003e-05,0
122.87,-0.00010188,0
122.87,-0.00011112,0
122.87,-0.00010944,0
122.87,-8.9799e-05,0
122.87,-5.0523e-05,0
122.87,3.8605e-06,0
122.87,6.5126e-05,0
122.87,0.00012203,0
122.87,0.00016181,0
122.87,0.00017574,0
122.87,0.00017171,0
122.87,0.0001697,0
122.87,0.00018984,0
122.87,0.0002313,0
122.87,0.00026369,0
122.87,0.00026117,0
122.87,0.00022173,0
122.87,0.00016097,0
122.88,0.00010289,0
122.88,5.6062e-05,0
122.88,2.5345e-05,0
122.88,7.3854e-06,0
122.88,-6.5461e-06,0
122.88,-1.8799e-05,0
122.88,-2.9709e-05,0
122.88,-3.7095e-05,0
122.88,-3.7766e-05,0
122.88,-3.508e-05,0
122.88,-3.4745e-05,0
122.88,-3.7263e-05,0
122.88,-4.1459e-05,0
122.88,-4.5151e-05,0
122.88,-4.7166e-05,0
122.88,-4.7837e-05,0
122.88,-4.4144e-05,0
122.88,-3.8437e-05,0
122.88,-3.7263e-05,0
122.89,-3.7263e-05,0
122.89,-3.5416e-05,0
122.89,-3.5752e-05,0
122.89,-3.6423e-05,0
122.89,-3.508e-05,0
122.89,-3.2395e-05,0
122.89,-2.9709e-05,0
122.89,-3.1052e-05,0
122.89,-3.3738e-05,0
122.89,-3.3234e-05,0
122.89,-2.9374e-05,0
122.89,-2.2324e-05,0
122.89,-1.3931e-05,0
122.89,-4.8676e-06,0
122.89,6.3783e-06,0
122.89,2.1317e-05,0
122.89,3.6423e-05,0
122.89,4.5823e-05,0
122.89,5.5055e-05,0
122.9,6.7308e-05,0
122.9,7.6875e-05,0
122.9,7.57e-05,0
122.9,6.4286e-05,0
122.9,5.4719e-05,0
122.9,5.0019e-05,0
122.9,4.4816e-05,0
122.9,3.508e-05,0
122.9,1.7624e-05,0
122.9,1.8463e-06,0
122.9,-2.5177e-06,0
122.9,2.8534e-06,0
122.9,8.3925e-06,0
122.9,1.0575e-05,0
122.9,1.0575e-05,0
122.9,9.7353e-06,0
122.9,6.2104e-06,0
122.9,2.5177e-06,0
122.9,4.8676e-06,0
122.91,1.1414e-05,0
122.91,1.6953e-05,0
122.91,1.9303e-05,0
122.91,1.9806e-05,0
122.91,1.8463e-05,0
122.91,1.5106e-05,0
122.91,1.1078e-05,0
122.91,8.5603e-06,0
122.91,1.1246e-05,0
122.91,1.6953e-05,0
122.91,2.1149e-05,0
122.91,1.9974e-05,0
122.91,1.5946e-05,0
122.91,9.9031e-06,0
122.91,-6.714e-07,0
122.91,-1.091e-05,0
122.91,-1.9974e-05,0
122.91,-3.0213e-05,0
122.91,-3.6423e-05,0
122.91,-3.4409e-05,0
122.92,-2.1653e-05,0
122.92,-2.0142e-06,0
122.92,1.7121e-05,0
122.92,2.8702e-05,0
122.92,3.2395e-05,0
122.92,3.7766e-05,0
122.92,5.0858e-05,0
122.92,6.4286e-05,0
122.92,6.6133e-05,0
122.92,5.3544e-05,0
122.92,3.2563e-05,0
122.92,1.0575e-05,0
122.92,-5.2033e-06,0
122.92,-1.5946e-05,0
122.92,-2.0981e-05,0
122.92,-1.6114e-05,0
122.92,-6.3783e-06,0
122.92,2.3499e-06,0
122.92,1.2924e-05,0
122.93,2.7359e-05,0
122.93,4.2466e-05,0
122.93,5.3544e-05,0
122.93,6.1433e-05,0
122.93,6.8482e-05,0
122.93,8.3085e-05,0
122.93,9.8527e-05,0
122.93,0.0001039,0
122.93,0.00010356,0
122.93,0.00011128,0
122.93,0.0001321,0
122.93,0.00015023,0
122.93,0.00015291,0
122.93,0.00014788,0
122.93,0.000142,0
122.93,0.0001321,0
122.93,0.00012522,0
122.93,0.00011901,0
122.93,0.00010188,0
122.94,7.5029e-05,0
122.94,5.0858e-05,0
122.94,4.3473e-05,0
122.94,5.1362e-05,0
122.94,6.2608e-05,0
122.94,6.7308e-05,0
122.94,5.5894e-05,0
122.94,2.4674e-05,0
122.94,-1.4603e-05,0
122.94,-5.0523e-05,0
122.94,-8.0735e-05,0
122.94,-0.00010138,0
122.94,-0.00011028,0
122.94,-0.00010961,0
122.94,-0.00010356,0
122.94,-9.4835e-05,0
122.94,-8.7953e-05,0
122.94,-8.1407e-05,0
122.94,-7.0161e-05,0
122.94,-5.2369e-05,0
122.95,-3.4409e-05,0
122.95,-2.1317e-05,0
122.95,-1.1749e-05,0
122.95,-5.539e-06,0
122.95,-1.0071e-06,0
122.95,1.5106e-06,0
122.95,8.3925e-07,0
122.95,-2.182e-06,0
122.95,-5.0355e-06,0
122.95,-5.8747e-06,0
122.95,-7.5532e-06,0
122.95,-1.2253e-05,0
122.95,-1.561e-05,0
122.95,-1.6449e-05,0
122.95,-1.5274e-05,0
122.95,-1.2589e-05,0
122.95,-7.5532e-06,0
122.95,-3.8605e-06,0
122.95,-1.8463e-06,0
122.96,-1.3428e-06,0
122.96,-3.8605e-06,0
122.96,-9.3996e-06,0
122.96,-1.2589e-05,0
122.96,-1.3596e-05,0
122.96,-1.4435e-05,0
122.96,-1.4939e-05,0
122.96,-8.896e-06,0
122.96,8.3925e-07,0
122.96,3.5248e-06,0
122.96,-2.8534e-06,0
122.96,-6.2104e-06,0
122.96,2.5177e-06,0
122.96,2.2324e-05,0
122.96,4.8173e-05,0
122.96,7.2343e-05,0
122.96,8.8792e-05,0
122.96,9.2821e-05,0
122.96,8.9799e-05,0
122.97,8.9799e-05,0
122.97,9.1142e-05,0
122.97,9.4499e-05,0
122.97,0.00010323,0
122.97,0.0001091,0
122.97,9.8192e-05,0
122.97,7.4189e-05,0
122.97,4.918e-05,0
122.97,2.6688e-05,0
122.97,6.0426e-06,0
122.97,-6.8818e-06,0
122.97,-4.1962e-06,0
122.97,5.7069e-06,0
122.97,1.5274e-05,0
122.97,1.9974e-05,0
122.97,2.0813e-05,0
122.97,2.3667e-05,0
122.97,2.7024e-05,0
122.97,2.9374e-05,0
122.98,3.2731e-05,0
122.98,3.7263e-05,0
122.98,4.2634e-05,0
122.98,5.0187e-05,0
122.98,5.7404e-05,0
122.98,5.5558e-05,0
122.98,3.8941e-05,0
122.98,9.7353e-06,0
122.98,-2.3499e-05,0
122.98,-5.153e-05,0
122.98,-7.2175e-05,0
122.98,-8.9128e-05,0
122.98,-9.9535e-05,0
122.98,-0.00010524,0
122.98,-0.00010994,0
122.98,-0.00010826,0
122.98,-9.0639e-05,0
122.98,-5.5558e-05,0
122.98,-9.5674e-06,0
122.98,4.8005e-05,0
122.99,0.00011179,0
122.99,0.00017104,0
122.99,0.00021669,0
122.99,0.00023751,0
122.99,0.00023079,0
122.99,0.00019857,0
122.99,0.00015425,0
122.99,0.00010491,0
122.99,5.2033e-05,0
122.99,1.3428e-06,0
122.99,-3.592e-05,0
122.99,-5.4215e-05,0
122.99,-5.4215e-05,0
122.99,-4.8844e-05,0
122.99,-4.5151e-05,0
122.99,-3.6591e-05,0
122.99,-1.9974e-05,0
122.99,1.8463e-06,0
122.99,2.2156e-05,0
123,4.5319e-05,0
123,7.57e-05,0
123,0.00010608,0
123,0.00012857,0
123,0.00012874,0
123,9.6345e-05,0
123,4.5823e-05,0
123,-5.0355e-07,0
123,-3.2059e-05,0
123,-5.153e-05,0
123,-5.9083e-05,0
123,-5.2201e-05,0
123,-4.2298e-05,0
123,-3.9948e-05,0
123,-4.213e-05,0
123,-4.4984e-05,0
123,-4.5655e-05,0
123,-4.4816e-05,0
123,-4.0787e-05,0
123.01,-3.3402e-05,0
123.01,-1.8967e-05,0
123.01,7.7211e-06,0
123.01,4.3473e-05,0
123.01,7.57e-05,0
123.01,8.9799e-05,0
123.01,8.5435e-05,0
123.01,7.2343e-05,0
123.01,5.5222e-05,0
123.01,3.1052e-05,0
123.01,4.6998e-06,0
123.01,-1.2253e-05,0
123.01,-1.9974e-05,0
123.01,-3.508e-05,0
123.01,-5.6565e-05,0
123.01,-6.8818e-05,0
123.01,-6.8147e-05,0
123.01,-6.0594e-05,0
123.01,-4.9516e-05,0
123.02,-3.6423e-05,0
123.02,-2.031e-05,0
123.02,5.0355e-07,0
123.02,2.5849e-05,0
123.02,5.4719e-05,0
123.02,7.7714e-05,0
123.02,8.7449e-05,0
123.02,9.0135e-05,0
123.02,9.1814e-05,0
123.02,9.1142e-05,0
123.02,8.3085e-05,0
123.02,6.8315e-05,0
123.02,5.153e-05,0
123.02,3.8102e-05,0
123.02,3.3402e-05,0
123.02,3.3402e-05,0
123.02,2.9709e-05,0
123.02,2.5849e-05,0
123.02,2.9038e-05,0
123.03,3.592e-05,0
123.03,3.6423e-05,0
123.03,2.9374e-05,0
123.03,1.9638e-05,0
123.03,6.714e-07,0
123.03,-2.4002e-05,0
123.03,-3.9612e-05,0
123.03,-4.4144e-05,0
123.03,-5.2369e-05,0
123.03,-6.4286e-05,0
123.03,-6.7308e-05,0
123.03,-5.0187e-05,0
123.03,-1.7288e-05,0
123.03,1.6281e-05,0
123.03,4.0116e-05,0
123.03,5.3208e-05,0
123.03,5.623e-05,0
123.03,5.4215e-05,0
123.03,4.683e-05,0
123.03,3.6423e-05,0
123.04,2.9877e-05,0
123.04,3.6927e-05,0
123.04,5.3544e-05,0
123.04,6.3951e-05,0
123.04,6.5293e-05,0
123.04,6.4286e-05,0
123.04,6.0929e-05,0
123.04,5.7069e-05,0
123.04,5.6565e-05,0
123.04,6.1433e-05,0
123.04,6.7308e-05,0
123.04,6.4958e-05,0
123.04,5.7237e-05,0
123.04,4.9516e-05,0
123.04,3.978e-05,0
123.04,2.2156e-05,0
123.04,-1.8463e-06,0
123.04,-2.3835e-05,0
123.04,-3.6088e-05,0
123.05,-4.2634e-05,0
123.05,-4.3137e-05,0
123.05,-3.3066e-05,0
123.05,-1.5946e-05,0
123.05,5.0355e-07,0
123.05,1.1917e-05,0
123.05,2.1317e-05,0
123.05,3.2731e-05,0
123.05,4.7166e-05,0
123.05,6.0929e-05,0
123.05,6.6972e-05,0
123.05,6.8315e-05,0
123.05,7.4022e-05,0
123.05,7.6371e-05,0
123.05,6.9657e-05,0
123.05,5.8076e-05,0
123.05,4.7669e-05,0
123.05,4.5823e-05,0
123.05,4.9516e-05,0
123.06,3.827e-05,0
123.06,-5.7069e-06,0
123.06,-6.0929e-05,0
123.06,-8.9967e-05,0
123.06,-8.7114e-05,0
123.06,-7.1336e-05,0
123.06,-5.069e-05,0
123.06,-2.8702e-05,0
123.06,-8.7282e-06,0
123.06,8.3925e-06,0
123.06,2.3163e-05,0
123.06,3.9445e-05,0
123.06,5.8579e-05,0
123.06,7.5364e-05,0
123.06,7.5029e-05,0
123.06,5.1865e-05,0
123.06,1.4939e-05,0
123.06,-1.8296e-05,0
123.06,-3.1556e-05,0
123.06,-2.9374e-05,0
123.07,-2.6352e-05,0
123.07,-2.1988e-05,0
123.07,-6.5461e-06,0
123.07,9.2317e-06,0
123.07,1.1414e-05,0
123.07,5.8747e-06,0
123.07,4.0284e-06,0
123.07,9.5674e-06,0
123.07,2.3667e-05,0
123.07,4.0452e-05,0
123.07,5.2033e-05,0
123.07,6.0929e-05,0
123.07,7.2343e-05,0
123.07,8.9799e-05,0
123.07,0.00010658,0
123.07,0.00010558,0
123.07,8.9632e-05,0
123.07,7.8218e-05,0
123.07,7.9896e-05,0
123.08,7.9728e-05,0
123.08,5.9586e-05,0
123.08,2.4674e-05,0
123.08,-3.1891e-06,0
123.08,-2.1149e-05,0
123.08,-3.827e-05,0
123.08,-5.5055e-05,0
123.08,-6.6972e-05,0
123.08,-7.9057e-05,0
123.08,-8.9464e-05,0
123.08,-9.2988e-05,0
123.08,-9.0806e-05,0
123.08,-8.3925e-05,0
123.08,-7.0329e-05,0
123.08,-5.5055e-05,0
123.08,-4.3809e-05,0
123.08,-3.2898e-05,0
123.08,-1.8463e-05,0
123.08,1.5106e-06,0
123.09,2.1317e-05,0
123.09,4.1459e-05,0
123.09,6.009e-05,0
123.09,7.57e-05,0
123.09,9.1142e-05,0
123.09,0.00010558,0
123.09,0.00010893,0
123.09,9.1814e-05,0
123.09,6.3279e-05,0
123.09,3.743e-05,0
123.09,2.1149e-05,0
123.09,1.5274e-05,0
123.09,1.3596e-05,0
123.09,1.326e-05,0
123.09,1.6785e-05,0
123.09,2.7024e-05,0
123.09,4.3137e-05,0
123.09,5.7908e-05,0
123.09,6.9657e-05,0
123.1,8.2414e-05,0
123.1,9.4331e-05,0
123.1,9.9199e-05,0
123.1,9.366e-05,0
123.1,8.2414e-05,0
123.1,7.0665e-05,0
123.1,5.7572e-05,0
123.1,4.5487e-05,0
123.1,3.5752e-05,0
123.1,3.2059e-05,0
123.1,3.0716e-05,0
123.1,2.2156e-05,0
123.1,6.8818e-06,0
123.1,-1.0575e-05,0
123.1,-2.417e-05,0
123.1,-3.4241e-05,0
123.1,-4.6494e-05,0
123.1,-5.539e-05,0
123.1,-5.6062e-05,0
123.1,-5.1362e-05,0
123.11,-4.2634e-05,0
123.11,-3.3066e-05,0
123.11,-2.3667e-05,0
123.11,-1.2924e-05,0
123.11,3.5248e-06,0
123.11,2.7192e-05,0
123.11,5.069e-05,0
123.11,6.7475e-05,0
123.11,7.6036e-05,0
123.11,8.1575e-05,0
123.11,7.9728e-05,0
123.11,6.0929e-05,0
123.11,2.8031e-05,0
123.11,-1.9135e-05,0
123.11,-7.4693e-05,0
123.11,-0.00011145,0
123.11,-0.00011464,0
123.11,-9.3492e-05,0
123.11,-6.479e-05,0
123.12,-3.9948e-05,0
123.12,-1.9638e-05,0
123.12,5.7069e-06,0
123.12,4.2466e-05,0
123.12,8.5435e-05,0
123.12,0.00013243,0
123.12,0.00017691,0
123.12,0.00019991,0
123.12,0.00018245,0
123.12,0.00012303,0
123.12,4.7669e-05,0
123.12,-1.4939e-05,0
123.12,-5.1362e-05,0
123.12,-6.63e-05,0
123.12,-7.3014e-05,0
123.12,-7.6371e-05,0
123.12,-7.335e-05,0
123.12,-5.8915e-05,0
123.12,-4.2466e-05,0
123.13,-3.1556e-05,0
123.13,-8.896e-06,0
123.13,4.0452e-05,0
123.13,9.7856e-05,0
123.13,0.00014166,0
123.13,0.00015929,0
123.13,0.00015795,0
123.13,0.00015358,0
123.13,0.0001519,0
123.13,0.00014418,0
123.13,0.00012337,0
123.13,9.6513e-05,0
123.13,7.335e-05,0
123.13,5.0523e-05,0
123.13,1.6785e-05,0
123.13,-2.0645e-05,0
123.13,-4.213e-05,0
123.13,-4.1962e-05,0
123.13,-3.3234e-05,0
123.14,-2.5681e-05,0
123.14,-9.9031e-06,0
123.14,2.0645e-05,0
123.14,5.5558e-05,0
123.14,8.3085e-05,0
123.14,9.5506e-05,0
123.14,9.2149e-05,0
123.14,7.4022e-05,0
123.14,4.0787e-05,0
123.14,-8.2246e-06,0
123.14,-6.3447e-05,0
123.14,-0.00011481,0
123.14,-0.00015425,0
123.14,-0.00018178,0
123.14,-0.00019554,0
123.14,-0.00019605,0
123.14,-0.0001895,0
123.14,-0.00018161,0
123.14,-0.00016382,0
123.14,-0.00012874,0
123.15,-8.1407e-05,0
123.15,-2.8367e-05,0
123.15,3.1724e-05,0
123.15,9.3324e-05,0
123.15,0.00014788,0
123.15,0.00019319,0
123.15,0.00022542,0
123.15,0.00023566,0
123.15,0.00022341,0
123.15,0.00020058,0
123.15,0.00016667,0
123.15,0.00012589,0
123.15,9.2317e-05,0
123.15,7.6036e-05,0
123.15,6.479e-05,0
123.15,5.3376e-05,0
123.15,4.2634e-05,0
123.15,2.8031e-05,0
123.15,9.3996e-06,0
123.16,-1.6281e-05,0
123.16,-4.5319e-05,0
123.16,-6.2943e-05,0
123.16,-6.3951e-05,0
123.16,-6.0761e-05,0
123.16,-4.9851e-05,0
123.16,-2.5177e-05,0
123.16,1.5106e-06,0
123.16,2.031e-05,0
123.16,2.8702e-05,0
123.16,2.6856e-05,0
123.16,1.7624e-05,0
123.16,7.5532e-06,0
123.16,6.5461e-06,0
123.16,1.4267e-05,0
123.16,1.6281e-05,0
123.16,3.5248e-06,0
123.16,-1.1917e-05,0
123.16,-1.6953e-05,0
123.17,-1.2589e-05,0
123.17,-7.5532e-06,0
123.17,-7.8889e-06,0
123.17,-1.7792e-05,0
123.17,-3.2059e-05,0
123.17,-4.0452e-05,0
123.17,-3.7934e-05,0
123.17,-3.0549e-05,0
123.17,-2.6017e-05,0
123.17,-2.3499e-05,0
123.17,-2.3331e-05,0
123.17,-2.1149e-05,0
123.17,-7.3854e-06,0
123.17,1.6114e-05,0
123.17,3.3066e-05,0
123.17,3.6927e-05,0
123.17,4.213e-05,0
123.17,5.8915e-05,0
123.17,7.4357e-05,0
123.17,6.1601e-05,0
123.18,2.1988e-05,0
123.18,-9.7353e-06,0
123.18,-4.1962e-06,0
123.18,1.9974e-05,0
123.18,2.501e-05,0
123.18,1.6617e-05,0
123.18,1.8631e-05,0
123.18,3.6423e-05,0
123.18,6.4118e-05,0
123.18,9.6849e-05,0
123.18,0.00012874,0
123.18,0.00015023,0
123.18,0.00016164,0
123.18,0.00016063,0
123.18,0.00013881,0
123.18,0.00010944,0
123.18,8.3757e-05,0
123.18,6.1601e-05,0
123.18,4.8173e-05,0
123.19,4.5487e-05,0
123.19,4.683e-05,0
123.19,4.5823e-05,0
123.19,3.8941e-05,0
123.19,2.2324e-05,0
123.19,-5.2033e-06,0
123.19,-3.5416e-05,0
123.19,-5.0019e-05,0
123.19,-4.683e-05,0
123.19,-3.6423e-05,0
123.19,-2.5345e-05,0
123.19,-1.7792e-05,0
123.19,-1.4267e-05,0
123.19,-1.2421e-05,0
123.19,-9.0639e-06,0
123.19,3.1891e-06,0
123.19,2.4506e-05,0
123.19,4.0116e-05,0
123.19,3.6591e-05,0
123.2,9.2317e-06,0
123.2,-4.0955e-05,0
123.2,-9.6849e-05,0
123.2,-0.00013462,0
123.2,-0.00014603,0
123.2,-0.00013898,0
123.2,-0.00011984,0
123.2,-9.5338e-05,0
123.2,-7.8721e-05,0
123.2,-8.2078e-05,0
123.2,-9.1814e-05,0
123.2,-7.7546e-05,0
123.2,-2.6184e-05,0
123.2,4.5991e-05,0
123.2,0.00011766,0
123.2,0.00016835,0
123.2,0.00018715,0
123.2,0.00018245,0
123.2,0.00017372,0
123.21,0.00016936,0
123.21,0.00016214,0
123.21,0.0001462,0
123.21,0.00013411,0
123.21,0.0001279,0
123.21,0.00011128,0
123.21,8.3925e-05,0
123.21,5.5894e-05,0
123.21,3.4745e-05,0
123.21,1.8631e-05,0
123.21,2.182e-06,0
123.21,-1.0239e-05,0
123.21,-1.5106e-05,0
123.21,-1.561e-05,0
123.21,-1.8296e-05,0
123.21,-2.7024e-05,0
123.21,-3.8773e-05,0
123.21,-4.6494e-05,0
123.21,-5.0858e-05,0
123.22,-5.4215e-05,0
123.22,-5.5222e-05,0
123.22,-5.2873e-05,0
123.22,-4.5991e-05,0
123.22,-3.9109e-05,0
123.22,-4.8508e-05,0
123.22,-8.1743e-05,0
123.22,-0.00012438,0
123.22,-0.00015341,0
123.22,-0.00015425,0
123.22,-0.00012773,0
123.22,-9.5506e-05,0
123.22,-7.4357e-05,0
123.22,-5.2033e-05,0
123.22,-1.6449e-05,0
123.22,3.0716e-05,0
123.22,7.8386e-05,0
123.22,0.00012673,0
123.22,0.00018715,0
123.22,0.00025429,0
123.23,0.00029928,0
123.23,0.00029693,0
123.23,0.00025698,0
123.23,0.00020713,0
123.23,0.00016751,0
123.23,0.00014351,0
123.23,0.00012538,0
123.23,9.9199e-05,0
123.23,7.3014e-05,0
123.23,6.479e-05,0
123.23,7.5029e-05,0
123.23,8.2414e-05,0
123.23,7.0832e-05,0
123.23,4.8005e-05,0
123.23,2.8031e-05,0
123.23,1.3931e-05,0
123.23,5.2033e-06,0
123.23,-3.5248e-06,0
123.23,-1.5442e-05,0
123.24,-2.7024e-05,0
123.24,-3.6759e-05,0
123.24,-4.6494e-05,0
123.24,-5.2201e-05,0
123.24,-5.7404e-05,0
123.24,-7.0497e-05,0
123.24,-8.5771e-05,0
123.24,-9.836e-05,0
123.24,-0.00011447,0
123.24,-0.00014284,0
123.24,-0.00017423,0
123.24,-0.00019101,0
123.24,-0.00019252,0
123.24,-0.00018111,0
123.24,-0.00015811,0
123.24,-0.00012488,0
123.24,-7.8218e-05,0
123.24,-2.3667e-05,0
123.24,2.9374e-05,0
123.25,6.9993e-05,0
123.25,0.00010155,0
123.25,0.00013378,0
123.25,0.00017523,0
123.25,0.00022811,0
123.25,0.00027024,0
123.25,0.00027343,0
123.25,0.00024355,0
123.25,0.00020511,0
123.25,0.000165,0
123.25,0.00012454,0
123.25,9.0471e-05,0
123.25,6.7811e-05,0
123.25,6.0258e-05,0
123.25,6.3615e-05,0
123.25,7.0665e-05,0
123.25,7.2343e-05,0
123.25,5.4887e-05,0
123.25,2.501e-05,0
123.25,3.357e-07,0
123.26,-1.6281e-05,0
123.26,-2.7527e-05,0
123.26,-3.6088e-05,0
123.26,-3.9109e-05,0
123.26,-3.5752e-05,0
123.26,-3.2395e-05,0
123.26,-3.508e-05,0
123.26,-4.3137e-05,0
123.26,-4.9012e-05,0
123.26,-5.2033e-05,0
123.26,-5.4383e-05,0
123.26,-5.623e-05,0
123.26,-5.4383e-05,0
123.26,-4.9851e-05,0
123.26,-4.5151e-05,0
123.26,-3.978e-05,0
123.26,-3.3402e-05,0
123.26,-2.6184e-05,0
123.26,-2.0981e-05,0
123.27,-1.7792e-05,0
123.27,-1.4435e-05,0
123.27,-1.6281e-05,0
123.27,-2.2828e-05,0
123.27,-2.6352e-05,0
123.27,-2.5345e-05,0
123.27,-2.266e-05,0
123.27,-2.266e-05,0
123.27,-2.417e-05,0
123.27,-2.4506e-05,0
123.27,-2.2156e-05,0
123.27,-1.561e-05,0
123.27,-4.3641e-06,0
123.27,1.1246e-05,0
123.27,2.7527e-05,0
123.27,4.1794e-05,0
123.27,5.4887e-05,0
123.27,6.479e-05,0
123.27,6.949e-05,0
123.28,6.7643e-05,0
123.28,6.479e-05,0
123.28,6.7308e-05,0
123.28,7.4022e-05,0
123.28,7.9225e-05,0
123.28,7.7379e-05,0
123.28,6.7979e-05,0
123.28,5.3544e-05,0
123.28,4.0955e-05,0
123.28,3.4241e-05,0
123.28,3.1388e-05,0
123.28,2.887e-05,0
123.28,2.8367e-05,0
123.28,2.652e-05,0
123.28,2.417e-05,0
123.28,2.4002e-05,0
123.28,2.501e-05,0
123.28,2.5681e-05,0
123.28,2.6688e-05,0
123.29,2.8534e-05,0
123.29,2.8702e-05,0
123.29,2.9374e-05,0
123.29,2.9877e-05,0
123.29,2.3163e-05,0
123.29,1.1582e-05,0
123.29,1.1749e-06,0
123.29,-3.0213e-06,0
123.29,-1.6785e-06,0
123.29,3.357e-07,0
123.29,0,0
123.29,5.0355e-07,0
123.29,2.5177e-06,0
123.29,3.357e-06,0
123.29,4.8676e-06,0
123.29,9.5674e-06,0
123.29,7.8889e-06,0
123.29,-2.266e-05,0
123.29,-8.9632e-05,0
123.3,-0.00016265,0
123.3,-0.00020998,0
123.3,-0.00022374,0
123.3,-0.00020629,0
123.3,-0.00016768,0
123.3,-0.00012035,0
123.3,-6.5629e-05,0
123.3,-1.6785e-06,0
123.3,7.0497e-05,0
123.3,0.0001509,0
123.3,0.00024825,0
123.3,0.00036339,0
123.3,0.00046511,0
123.3,0.00050338,0
123.3,0.00045907,0
123.3,0.00036339,0
123.3,0.00026302,0
123.3,0.00018782,0
123.3,0.00013848,0
123.3,9.6513e-05,0
123.31,5.5894e-05,0
123.31,2.4002e-05,0
123.31,8.3925e-06,0
123.31,5.8747e-06,0
123.31,5.539e-06,0
123.31,6.2104e-06,0
123.31,8.5603e-06,0
123.31,8.0568e-06,0
123.31,5.0355e-07,0
123.31,-1.0742e-05,0
123.31,-2.182e-05,0
123.31,-2.8367e-05,0
123.31,-3.0549e-05,0
123.31,-3.4241e-05,0
123.31,-4.4144e-05,0
123.31,-6.0258e-05,0
123.31,-8.1407e-05,0
123.31,-9.7185e-05,0
123.31,-0.00010256,0
123.32,-0.00010121,0
123.32,-0.00010155,0
123.32,-0.00011028,0
123.32,-0.00012018,0
123.32,-0.0001232,0
123.32,-0.00011498,0
123.32,-9.6345e-05,0
123.32,-7.4525e-05,0
123.32,-5.4215e-05,0
123.32,-3.1052e-05,0
123.32,-3.357e-06,0
123.32,1.8631e-05,0
123.32,3.0381e-05,0
123.32,3.827e-05,0
123.32,4.9851e-05,0
123.32,6.3615e-05,0
123.32,6.6972e-05,0
123.32,4.9516e-05,0
123.32,1.3092e-05,0
123.33,-2.4002e-05,0
123.33,-4.9851e-05,0
123.33,-6.1769e-05,0
123.33,-5.7572e-05,0
123.33,-4.2634e-05,0
123.33,-3.0884e-05,0
123.33,-2.2995e-05,0
123.33,-1.2589e-05,0
123.33,7.0497e-06,0
123.33,3.827e-05,0
123.33,8.2414e-05,0
123.33,0.0001368,0
123.33,0.00018195,0
123.33,0.00019622,0
123.33,0.00017926,0
123.33,0.00014939,0
123.33,0.00012152,0
123.33,9.9535e-05,0
123.33,7.9057e-05,0
123.33,6.0594e-05,0
123.34,4.8173e-05,0
123.34,4.213e-05,0
123.34,3.0716e-05,0
123.34,1.2924e-05,0
123.34,-1.6785e-06,0
123.34,-9.2317e-06,0
123.34,-1.4939e-05,0
123.34,-2.4338e-05,0
123.34,-3.4745e-05,0
123.34,-3.5752e-05,0
123.34,-2.7359e-05,0
123.34,-2.266e-05,0
123.34,-3.1556e-05,0
123.34,-4.5991e-05,0
123.34,-5.5222e-05,0
123.34,-5.6901e-05,0
123.34,-5.5894e-05,0
123.34,-5.2705e-05,0
123.34,-4.4984e-05,0
123.35,-2.7192e-05,0
123.35,5.0355e-07,0
123.35,3.2395e-05,0
123.35,6.2272e-05,0
123.35,8.5603e-05,0
123.35,0.00010306,0
123.35,0.00011766,0
123.35,0.00013126,0
123.35,0.00014217,0
123.35,0.00014485,0
123.35,0.00013629,0
123.35,0.00011699,0
123.35,9.0806e-05,0
123.35,6.4958e-05,0
123.35,4.2466e-05,0
123.35,2.4842e-05,0
123.35,1.1078e-05,0
123.35,2.3499e-06,0
123.35,-5.8747e-06,0
123.36,-1.5946e-05,0
123.36,-3.0381e-05,0
123.36,-4.0116e-05,0
123.36,-4.2634e-05,0
123.36,-4.3473e-05,0
123.36,-4.5991e-05,0
123.36,-5.1194e-05,0
123.36,-5.6062e-05,0
123.36,-5.4887e-05,0
123.36,-4.7669e-05,0
123.36,-3.7766e-05,0
123.36,-2.9374e-05,0
123.36,-2.3835e-05,0
123.36,-1.8967e-05,0
123.36,-1.4939e-05,0
123.36,-1.7792e-05,0
123.36,-3.2395e-05,0
123.36,-5.9251e-05,0
123.36,-8.9128e-05,0
123.37,-0.0001039,0
123.37,-9.4499e-05,0
123.37,-7.4022e-05,0
123.37,-6.63e-05,0
123.37,-7.1672e-05,0
123.37,-6.3279e-05,0
123.37,-2.9709e-05,0
123.37,9.2317e-06,0
123.37,4.8508e-05,0
123.37,0.00010222,0
123.37,0.00017087,0
123.37,0.00023029,0
123.37,0.00025882,0
123.37,0.00024154,0
123.37,0.00018379,0
123.37,0.00011733,0
123.37,6.8147e-05,0
123.37,3.7263e-05,0
123.37,1.5778e-05,0
123.37,-2.8534e-06,0
123.38,-1.1582e-05,0
123.38,-1.5106e-06,0
123.38,2.2156e-05,0
123.38,4.5823e-05,0
123.38,6.7308e-05,0
123.38,9.836e-05,0
123.38,0.00014788,0
123.38,0.00021199,0
123.38,0.00026889,0
123.38,0.00029776,0
123.38,0.0002751,0
123.38,0.00020595,0
123.38,0.00012219,0
123.38,4.4816e-05,0
123.38,-1.4267e-05,0
123.38,-5.069e-05,0
123.38,-7.1672e-05,0
123.38,-8.3421e-05,0
123.38,-9.0135e-05,0
123.39,-9.1142e-05,0
123.39,-8.3421e-05,0
123.39,-7.2847e-05,0
123.39,-6.6636e-05,0
123.39,-6.5797e-05,0
123.39,-6.9657e-05,0
123.39,-7.9728e-05,0
123.39,-9.7017e-05,0
123.39,-0.00011716,0
123.39,-0.0001331,0
123.39,-0.00014015,0
123.39,-0.00013629,0
123.39,-0.00013109,0
123.39,-0.00012656,0
123.39,-0.00011196,0
123.39,-8.4764e-05,0
123.39,-4.6998e-05,0
123.39,-2.3499e-06,0
123.39,4.4144e-05,0
123.4,9.0471e-05,0
123.4,0.00013143,0
123.4,0.00016231,0
123.4,0.00018245,0
123.4,0.00019252,0
123.4,0.00018245,0
123.4,0.00014687,0
123.4,9.8527e-05,0
123.4,5.8747e-05,0
123.4,3.4073e-05,0
123.4,1.4603e-05,0
123.4,-9.9031e-06,0
123.4,-4.4312e-05,0
123.4,-7.5868e-05,0
123.4,-8.8792e-05,0
123.4,-8.2246e-05,0
123.4,-6.2943e-05,0
123.4,-4.2466e-05,0
123.4,-2.1988e-05,0
123.41,5.0355e-07,0
123.41,2.6017e-05,0
123.41,5.4887e-05,0
123.41,7.8721e-05,0
123.41,9.1646e-05,0
123.41,9.987e-05,0
123.41,0.00010826,0
123.41,0.0001034,0
123.41,7.5029e-05,0
123.41,3.9445e-05,0
123.41,1.1246e-05,0
123.41,-9.3996e-06,0
123.41,-2.1485e-05,0
123.41,-2.2828e-05,0
123.41,-1.8967e-05,0
123.41,-1.5274e-05,0
123.41,-1.3596e-05,0
123.41,-1.4939e-05,0
123.41,-1.8631e-05,0
123.41,-3.1388e-05,0
123.42,-6.2776e-05,0
123.42,-0.00010155,0
123.42,-0.00013059,0
123.42,-0.00013915,0
123.42,-0.00012857,0
123.42,-0.00010457,0
123.42,-7.5029e-05,0
123.42,-4.7333e-05,0
123.42,-2.182e-05,0
123.42,3.5248e-06,0
123.42,3.4409e-05,0
123.42,8.1071e-05,0
123.42,0.00013864,0
123.42,0.0001796,0
123.42,0.00018178,0
123.42,0.00015291,0
123.42,0.00012186,0
123.42,0.00010054,0
123.42,8.8457e-05,0
123.43,8.4092e-05,0
123.43,8.9799e-05,0
123.43,0.0001044,0
123.43,0.00012203,0
123.43,0.00013411,0
123.43,0.00013478,0
123.43,0.00013109,0
123.43,0.00013143,0
123.43,0.00013629,0
123.43,0.00013545,0
123.43,0.00011968,0
123.43,9.5506e-05,0
123.43,7.2175e-05,0
123.43,5.6901e-05,0
123.43,5.623e-05,0
123.43,5.9922e-05,0
123.43,4.8676e-05,0
123.43,2.8534e-05,0
123.43,1.6281e-05,0
123.44,1.2085e-05,0
123.44,7.5532e-06,0
123.44,-1.5106e-06,0
123.44,-1.3931e-05,0
123.44,-2.501e-05,0
123.44,-2.7695e-05,0
123.44,-2.3499e-05,0
123.44,-1.6281e-05,0
123.44,-9.2317e-06,0
123.44,-1.3931e-05,0
123.44,-3.3738e-05,0
123.44,-6.1097e-05,0
123.44,-8.5771e-05,0
123.44,-0.00010188,0
123.44,-0.00010927,0
123.44,-0.00011162,0
123.44,-0.0001138,0
123.44,-0.00011615,0
123.44,-0.00011229,0
123.44,-9.7856e-05,0
123.45,-7.7379e-05,0
123.45,-5.7572e-05,0
123.45,-4.0284e-05,0
123.45,-2.6688e-05,0
123.45,-1.6281e-05,0
123.45,-6.8818e-06,0
123.45,-1.6785e-07,0
123.45,1.8463e-06,0
123.45,1.6785e-06,0
123.45,4.0284e-06,0
123.45,1.2253e-05,0
123.45,1.9974e-05,0
123.45,1.8296e-05,0
123.45,7.8889e-06,0
123.45,3.1891e-06,0
123.45,7.8889e-06,0
123.45,2.1149e-05,0
123.45,3.8102e-05,0
123.45,5.4383e-05,0
123.46,6.949e-05,0
123.46,7.8721e-05,0
123.46,8.7449e-05,0
123.46,0.00010188,0
123.46,0.0001138,0
123.46,0.00011565,0
123.46,0.00011565,0
123.46,0.00011833,0
123.46,0.00010726,0
123.46,7.805e-05,0
123.46,4.0116e-05,0
123.46,1.1749e-06,0
123.46,-2.9541e-05,0
123.46,-4.4312e-05,0
123.46,-3.9948e-05,0
123.46,-2.0981e-05,0
123.46,0,0
123.46,1.326e-05,0
123.46,1.5106e-05,0
123.47,5.2033e-06,0
123.47,-9.7353e-06,0
123.47,-2.4506e-05,0
123.47,-3.2059e-05,0
123.47,-2.7863e-05,0
123.47,-1.7288e-05,0
123.47,-1.4603e-05,0
123.47,-1.5274e-05,0
123.47,-6.2104e-06,0
123.47,6.714e-06,0
123.47,1.8128e-05,0
123.47,2.8702e-05,0
123.47,3.508e-05,0
123.47,3.9445e-05,0
123.47,4.4144e-05,0
123.47,4.1962e-05,0
123.47,2.8031e-05,0
123.47,8.3925e-07,0
123.47,-3.2059e-05,0
123.48,-5.5222e-05,0
123.48,-5.8579e-05,0
123.48,-4.3641e-05,0
123.48,-1.5442e-05,0
123.48,2.1317e-05,0
123.48,6.2776e-05,0
123.48,0.00010927,0
123.48,0.00016063,0
123.48,0.00021233,0
123.48,0.00025463,0
123.48,0.00027242,0
123.48,0.00025748,0
123.48,0.00021569,0
123.48,0.00016667,0
123.48,0.00012874,0
123.48,0.00010642,0
123.48,9.0974e-05,0
123.48,7.6371e-05,0
123.48,6.4118e-05,0
123.48,4.7669e-05,0
123.49,1.8799e-05,0
123.49,-1.7121e-05,0
123.49,-4.3305e-05,0
123.49,-5.5558e-05,0
123.49,-6.6133e-05,0
123.49,-8.0064e-05,0
123.49,-9.2149e-05,0
123.49,-9.8527e-05,0
123.49,-9.752e-05,0
123.49,-9.2149e-05,0
123.49,-8.4764e-05,0
123.49,-7.2847e-05,0
123.49,-4.9516e-05,0
123.49,-1.3931e-05,0
123.49,1.5274e-05,0
123.49,2.501e-05,0
123.49,2.2324e-05,0
123.49,1.6953e-05,0
123.49,1.7456e-05,0
123.5,2.7192e-05,0
123.5,4.0955e-05,0
123.5,4.5655e-05,0
123.5,2.7527e-05,0
123.5,-1.1078e-05,0
123.5,-5.1194e-05,0
123.5,-8.0064e-05,0
123.5,-9.4163e-05,0
123.5,-9.5171e-05,0
123.5,-8.6442e-05,0
123.5,-6.4118e-05,0
123.5,-2.7695e-05,0
123.5,1.1078e-05,0
123.5,3.9948e-05,0
123.5,6.2272e-05,0
123.5,8.275e-05,0
123.5,9.5842e-05,0
123.5,9.2988e-05,0
123.5,7.7714e-05,0
123.51,6.3615e-05,0
123.51,5.7572e-05,0
123.51,5.304e-05,0
123.51,4.1794e-05,0
123.51,2.9038e-05,0
123.51,2.3835e-05,0
123.51,2.7359e-05,0
123.51,3.7095e-05,0
123.51,4.4648e-05,0
123.51,4.2466e-05,0
123.51,3.0381e-05,0
123.51,1.1917e-05,0
123.51,-7.8889e-06,0
123.51,-2.8702e-05,0
123.51,-5.6733e-05,0
123.51,-8.4764e-05,0
123.51,-0.00010239,0
123.51,-0.00010994,0
123.51,-0.00010977,0
123.52,-0.00010222,0
123.52,-8.4596e-05,0
123.52,-5.8412e-05,0
123.52,-3.0884e-05,0
123.52,-5.0355e-06,0
123.52,2.7359e-05,0
123.52,8.3757e-05,0
123.52,0.00015929,0
123.52,0.00022777,0
123.52,0.00026403,0
123.52,0.00025345,0
123.52,0.00020797,0
123.52,0.00015543,0
123.52,0.00011246,0
123.52,7.9561e-05,0
123.52,5.1194e-05,0
123.52,2.8367e-05,0
123.52,1.6449e-05,0
123.52,9.2317e-06,0
123.53,-4.3641e-06,0
123.53,-2.5681e-05,0
123.53,-4.5151e-05,0
123.53,-5.8412e-05,0
123.53,-6.8147e-05,0
123.53,-7.7043e-05,0
123.53,-8.191e-05,0
123.53,-7.5029e-05,0
123.53,-5.9922e-05,0
123.53,-4.5151e-05,0
123.53,-3.1891e-05,0
123.53,-1.9974e-05,0
123.53,-8.7282e-06,0
123.53,5.8747e-06,0
123.53,2.1317e-05,0
123.53,3.2059e-05,0
123.53,3.5752e-05,0
123.53,4.213e-05,0
123.53,5.7572e-05,0
123.53,7.3686e-05,0
123.54,7.9393e-05,0
123.54,6.63e-05,0
123.54,3.6759e-05,0
123.54,7.2175e-06,0
123.54,-7.8889e-06,0
123.54,-5.2033e-06,0
123.54,8.2246e-06,0
123.54,2.0645e-05,0
123.54,2.5849e-05,0
123.54,2.3331e-05,0
123.54,1.6281e-05,0
123.54,8.5603e-06,0
123.54,8.2246e-06,0
123.54,1.6617e-05,0
123.54,2.8031e-05,0
123.54,3.8773e-05,0
123.54,5.153e-05,0
123.54,6.7811e-05,0
123.54,7.9728e-05,0
123.55,7.9057e-05,0
123.55,6.4958e-05,0
123.55,4.5487e-05,0
123.55,3.4745e-05,0
123.55,3.2731e-05,0
123.55,2.2995e-05,0
123.55,-3.1891e-06,0
123.55,-3.3738e-05,0
123.55,-4.8173e-05,0
123.55,-4.8173e-05,0
123.55,-5.388e-05,0
123.55,-8.51e-05,0
123.55,-0.00014888,0
123.55,-0.00023113,0
123.55,-0.00029139,0
123.55,-0.00029525,0
123.55,-0.00024875,0
123.55,-0.00017775,0
123.55,-9.8192e-05,0
123.56,-2.1653e-05,0
123.56,4.3809e-05,0
123.56,0.00010507,0
123.56,0.00017121,0
123.56,0.00024556,0
123.56,0.00033285,0
123.56,0.00043557,0
123.56,0.00052352,0
123.56,0.00054333,0
123.56,0.00047854,0
123.56,0.00037044,0
123.56,0.00026822,0
123.56,0.00019185,0
123.56,0.00013478,0
123.56,9.1142e-05,0
123.56,6.244e-05,0
123.56,5.2537e-05,0
123.56,5.1362e-05,0
123.56,3.3738e-05,0
123.56,5.0355e-07,0
123.57,-2.7024e-05,0
123.57,-4.062e-05,0
123.57,-4.8508e-05,0
123.57,-5.9251e-05,0
123.57,-7.5868e-05,0
123.57,-8.9799e-05,0
123.57,-9.6345e-05,0
123.57,-0.00010004,0
123.57,-0.00010457,0
123.57,-0.00011397,0
123.57,-0.0001274,0
123.57,-0.00014083,0
123.57,-0.00014704,0
123.57,-0.00013948,0
123.57,-0.00012035,0
123.57,-9.4835e-05,0
123.57,-6.9993e-05,0
123.57,-5.3376e-05,0
123.57,-4.0452e-05,0
123.58,-2.3667e-05,0
123.58,-1.8463e-06,0
123.58,2.3331e-05,0
123.58,4.6159e-05,0
123.58,5.6062e-05,0
123.58,4.8005e-05,0
123.58,2.5345e-05,0
123.58,-2.0142e-06,0
123.58,-2.0981e-05,0
123.58,-2.8367e-05,0
123.58,-3.3738e-05,0
123.58,-4.1291e-05,0
123.58,-4.1962e-05,0
123.58,-3.2059e-05,0
123.58,-1.8296e-05,0
123.58,-1.1246e-05,0
123.58,-1.2589e-05,0
123.58,-1.091e-05,0
123.58,2.8534e-06,0
123.59,2.3835e-05,0
123.59,4.7166e-05,0
123.59,6.7643e-05,0
123.59,7.5364e-05,0
123.59,6.4286e-05,0
123.59,4.6494e-05,0
123.59,2.8534e-05,0
123.59,1.5274e-05,0
123.59,1.3092e-05,0
123.59,1.9135e-05,0
123.59,2.1317e-05,0
123.59,1.5274e-05,0
123.59,7.8889e-06,0
123.59,9.5674e-06,0
123.59,1.6617e-05,0
123.59,2.1317e-05,0
123.59,2.1149e-05,0
123.59,1.4435e-05,0
123.59,2.5177e-06,0
123.6,-6.8818e-06,0
123.6,-1.326e-05,0
123.6,-2.266e-05,0
123.6,-3.3066e-05,0
123.6,-3.3066e-05,0
123.6,-1.4939e-05,0
123.6,1.091e-05,0
123.6,2.9374e-05,0
123.6,3.8102e-05,0
123.6,4.6998e-05,0
123.6,5.7404e-05,0
123.6,6.009e-05,0
123.6,5.539e-05,0
123.6,4.9516e-05,0
123.6,4.2802e-05,0
123.6,3.6088e-05,0
123.6,3.1724e-05,0
123.6,1.9974e-05,0
123.6,-3.1891e-06,0
123.61,-2.9374e-05,0
123.61,-4.3809e-05,0
123.61,-4.1627e-05,0
123.61,-4.1123e-05,0
123.61,-4.8508e-05,0
123.61,-4.7501e-05,0
123.61,-2.5849e-05,0
123.61,1.091e-05,0
123.61,5.8244e-05,0
123.61,0.00011296,0
123.61,0.00016315,0
123.61,0.000189,0
123.61,0.00017876,0
123.61,0.00015358,0
123.61,0.00014351,0
123.61,0.00014569,0
123.61,0.00014015,0
123.61,0.00012169,0
123.61,9.836e-05,0
123.61,7.6204e-05,0
123.62,5.6565e-05,0
123.62,3.9948e-05,0
123.62,2.6856e-05,0
123.62,1.7121e-05,0
123.62,7.0497e-06,0
123.62,2.5177e-06,0
123.62,5.0355e-07,0
123.62,-3.8605e-06,0
123.62,-3.1891e-06,0
123.62,4.5319e-06,0
123.62,4.8676e-06,0
123.62,-5.3712e-06,0
123.62,-5.7069e-06,0
123.62,1.326e-05,0
123.62,3.4073e-05,0
123.62,4.1291e-05,0
123.62,4.2802e-05,0
123.62,4.8676e-05,0
123.62,5.5726e-05,0
123.63,6.2272e-05,0
123.63,6.2608e-05,0
123.63,5.6565e-05,0
123.63,5.3208e-05,0
123.63,5.153e-05,0
123.63,4.6326e-05,0
123.63,3.7263e-05,0
123.63,1.8128e-05,0
123.63,-1.9135e-05,0
123.63,-6.9657e-05,0
123.63,-0.0001133,0
123.63,-0.00013394,0
123.63,-0.00013646,0
123.63,-0.00013294,0
123.63,-0.00013193,0
123.63,-0.00012639,0
123.63,-0.00010591,0
123.63,-7.5532e-05,0
123.63,-4.3473e-05,0
123.64,-8.2246e-06,0
123.64,3.8102e-05,0
123.64,8.8289e-05,0
123.64,0.0001274,0
123.64,0.00014569,0
123.64,0.00014871,0
123.64,0.0001425,0
123.64,0.00012605,0
123.64,9.7688e-05,0
123.64,6.3615e-05,0
123.64,3.3738e-05,0
123.64,1.2589e-05,0
123.64,-3.5248e-06,0
123.64,-1.9974e-05,0
123.64,-3.6759e-05,0
123.64,-4.9516e-05,0
123.64,-5.2369e-05,0
123.64,-4.7837e-05,0
123.64,-4.3473e-05,0
123.64,-3.1052e-05,0
123.65,-9.2317e-06,0
123.65,1.091e-05,0
123.65,2.4674e-05,0
123.65,3.7095e-05,0
123.65,5.2201e-05,0
123.65,7.1839e-05,0
123.65,9.4331e-05,0
123.65,0.00011498,0
123.65,0.00012337,0
123.65,0.00011162,0
123.65,8.5267e-05,0
123.65,5.1698e-05,0
123.65,7.5532e-06,0
123.65,-3.6927e-05,0
123.65,-6.7308e-05,0
123.65,-8.6275e-05,0
123.65,-9.752e-05,0
123.65,-9.5674e-05,0
123.65,-7.7379e-05,0
123.66,-5.539e-05,0
123.66,-3.978e-05,0
123.66,-2.5849e-05,0
123.66,-8.2246e-06,0
123.66,8.7282e-06,0
123.66,2.0645e-05,0
123.66,3.6255e-05,0
123.66,5.8244e-05,0
123.66,7.5532e-05,0
123.66,8.1407e-05,0
123.66,7.4861e-05,0
123.66,6.3447e-05,0
123.66,5.3544e-05,0
123.66,4.4648e-05,0
123.66,3.9948e-05,0
123.66,4.2802e-05,0
123.66,4.9012e-05,0
123.66,4.918e-05,0
123.66,3.7095e-05,0
123.67,1.5946e-05,0
123.67,-7.7211e-06,0
123.67,-3.1891e-05,0
123.67,-5.2033e-05,0
123.67,-6.2776e-05,0
123.67,-6.63e-05,0
123.67,-6.6636e-05,0
123.67,-5.8244e-05,0
123.67,-3.7934e-05,0
123.67,-1.7121e-05,0
123.67,-4.3641e-06,0
123.67,9.3996e-06,0
123.67,3.7095e-05,0
123.67,8.2918e-05,0
123.67,0.0001326,0
123.67,0.000166,0
123.67,0.00017557,0
123.67,0.00016466,0
123.67,0.00013831,0
123.68,0.00010574,0
123.68,7.2343e-05,0
123.68,4.0452e-05,0
123.68,1.8296e-05,0
123.68,1.1078e-05,0
123.68,5.0355e-06,0
123.68,-8.5603e-06,0
123.68,-1.9135e-05,0
123.68,-1.6953e-05,0
123.68,-8.7282e-06,0
123.68,-3.357e-06,0
123.68,5.0355e-07,0
123.68,3.0213e-06,0
123.68,2.182e-06,0
123.68,-3.5248e-06,0
123.68,-1.5442e-05,0
123.68,-2.9038e-05,0
123.68,-3.5416e-05,0
123.68,-3.2898e-05,0
123.68,-3.3906e-05,0
123.69,-4.3809e-05,0
123.69,-5.5894e-05,0
123.69,-7.2007e-05,0
123.69,-9.0471e-05,0
123.69,-0.00010121,0
123.69,-9.5506e-05,0
123.69,-6.8986e-05,0
123.69,-2.9038e-05,0
123.69,1.3764e-05,0
123.69,5.4887e-05,0
123.69,9.8192e-05,0
123.69,0.00013999,0
123.69,0.00017607,0
123.69,0.00020226,0
123.69,0.00021468,0
123.69,0.00020864,0
123.69,0.00018614,0
123.69,0.0001556,0
123.69,0.00011749,0
123.7,7.2511e-05,0
123.7,4.1627e-05,0
123.7,3.3738e-05,0
123.7,3.4409e-05,0
123.7,3.0716e-05,0
123.7,2.3667e-05,0
123.7,9.9031e-06,0
123.7,-1.091e-05,0
123.7,-2.9374e-05,0
123.7,-3.508e-05,0
123.7,-2.887e-05,0
123.7,-2.4674e-05,0
123.7,-3.122e-05,0
123.7,-4.5151e-05,0
123.7,-5.5055e-05,0
123.7,-4.3977e-05,0
123.7,-1.6953e-05,0
123.7,7.2175e-06,0
123.7,2.6017e-05,0
123.71,3.978e-05,0
123.71,4.3473e-05,0
123.71,3.6255e-05,0
123.71,1.8463e-05,0
123.71,2.8534e-06,0
123.71,1.6785e-06,0
123.71,1.0575e-05,0
123.71,1.6281e-05,0
123.71,1.4603e-05,0
123.71,1.1917e-05,0
123.71,1.6617e-05,0
123.71,2.7359e-05,0
123.71,3.4745e-05,0
123.71,3.9109e-05,0
123.71,4.2802e-05,0
123.71,5.0858e-05,0
123.71,6.0594e-05,0
123.71,5.5894e-05,0
123.71,3.8437e-05,0
123.72,2.6688e-05,0
123.72,2.4002e-05,0
123.72,1.9471e-05,0
123.72,1.1749e-05,0
123.72,-4.5319e-06,0
123.72,-2.4338e-05,0
123.72,-3.5752e-05,0
123.72,-3.1052e-05,0
123.72,-2.0981e-05,0
123.72,-1.9806e-05,0
123.72,-2.8367e-05,0
123.72,-3.6591e-05,0
123.72,-3.8437e-05,0
123.72,-4.2802e-05,0
123.72,-5.1698e-05,0
123.72,-5.4887e-05,0
123.72,-5.153e-05,0
123.72,-4.3137e-05,0
123.72,-2.7695e-05,0
123.72,-1.2253e-05,0
123.73,3.6927e-06,0
123.73,1.6617e-05,0
123.73,1.7792e-05,0
123.73,8.3925e-06,0
123.73,2.5177e-06,0
123.73,6.8818e-06,0
123.73,1.7121e-05,0
123.73,2.8534e-05,0
123.73,4.1794e-05,0
123.73,5.5558e-05,0
123.73,6.479e-05,0
123.73,6.8315e-05,0
123.73,6.7979e-05,0
123.73,6.6636e-05,0
123.73,7.1672e-05,0
123.73,8.275e-05,0
123.73,8.9632e-05,0
123.73,8.1407e-05,0
123.73,6.3447e-05,0
123.74,4.9516e-05,0
123.74,4.3473e-05,0
123.74,3.8773e-05,0
123.74,3.743e-05,0
123.74,4.0116e-05,0
123.74,4.6159e-05,0
123.74,5.2537e-05,0
123.74,5.9586e-05,0
123.74,5.6901e-05,0
123.74,3.9109e-05,0
123.74,1.9303e-05,0
123.74,6.0426e-06,0
123.74,-1.6785e-07,0
123.74,2.182e-06,0
123.74,6.2104e-06,0
123.74,2.3499e-06,0
123.74,-5.0355e-06,0
123.74,-8.3925e-06,0
123.74,-9.5674e-06,0
123.75,-1.2421e-05,0
123.75,-2.1988e-05,0
123.75,-3.6423e-05,0
123.75,-4.8676e-05,0
123.75,-5.9922e-05,0
123.75,-7.0665e-05,0
123.75,-7.9057e-05,0
123.75,-8.3757e-05,0
123.75,-7.57e-05,0
123.75,-5.5222e-05,0
123.75,-4.1794e-05,0
123.75,-4.683e-05,0
123.75,-5.4551e-05,0
123.75,-4.5151e-05,0
123.75,-1.8967e-05,0
123.75,4.8676e-06,0
123.75,1.1917e-05,0
123.75,1.326e-05,0
123.75,2.7359e-05,0
123.75,6.0761e-05,0
123.76,9.4163e-05,0
123.76,0.00011112,0
123.76,0.00011901,0
123.76,0.00013898,0
123.76,0.00017742,0
123.76,0.00021904,0
123.76,0.00024472,0
123.76,0.00025026,0
123.76,0.00023751,0
123.76,0.00020578,0
123.76,0.00016332,0
123.76,0.00012924,0
123.76,0.00010558,0
123.76,7.7714e-05,0
123.76,4.2466e-05,0
123.76,1.1917e-05,0
123.76,-3.0213e-06,0
123.76,-9.7353e-06,0
123.76,-2.0142e-05,0
123.77,-3.6423e-05,0
123.77,-4.6998e-05,0
123.77,-4.4648e-05,0
123.77,-3.4409e-05,0
123.77,-3.2395e-05,0
123.77,-4.4144e-05,0
123.77,-6.1936e-05,0
123.77,-8.1575e-05,0
123.77,-0.00010054,0
123.77,-0.00010994,0
123.77,-0.00011078,0
123.77,-0.00010692,0
123.77,-9.4499e-05,0
123.77,-7.2007e-05,0
123.77,-4.1794e-05,0
123.77,-3.1891e-06,0
123.77,3.9277e-05,0
123.77,6.8818e-05,0
123.77,6.8147e-05,0
123.78,4.8676e-05,0
123.78,4.1794e-05,0
123.78,5.6901e-05,0
123.78,7.1336e-05,0
123.78,7.1672e-05,0
123.78,6.8315e-05,0
123.78,6.8986e-05,0
123.78,7.2511e-05,0
123.78,7.9057e-05,0
123.78,7.9393e-05,0
123.78,6.1097e-05,0
123.78,3.0716e-05,0
123.78,-8.3925e-07,0
123.78,-3.0045e-05,0
123.78,-5.7069e-05,0
123.78,-7.6371e-05,0
123.78,-8.2918e-05,0
123.78,-7.9393e-05,0
123.78,-7.3014e-05,0
123.79,-6.7643e-05,0
123.79,-5.774e-05,0
123.79,-3.7766e-05,0
123.79,-6.5461e-06,0
123.79,2.9709e-05,0
123.79,6.1433e-05,0
123.79,8.6946e-05,0
123.79,0.00010541,0
123.79,0.00011397,0
123.79,0.00011431,0
123.79,0.00010893,0
123.79,0.00010239,0
123.79,8.8457e-05,0
123.79,6.3951e-05,0
123.79,3.5416e-05,0
123.79,1.2757e-05,0
123.79,-5.539e-06,0
123.79,-2.0981e-05,0
123.79,-3.1724e-05,0
123.8,-3.5752e-05,0
123.8,-3.7766e-05,0
123.8,-4.3641e-05,0
123.8,-5.2537e-05,0
123.8,-5.8579e-05,0
123.8,-5.9922e-05,0
123.8,-5.2537e-05,0
123.8,-3.1388e-05,0
123.8,-1.1582e-05,0
123.8,-3.1891e-06,0
123.8,4.5319e-06,0
123.8,1.9974e-05,0
123.8,3.5752e-05,0
123.8,4.448e-05,0
123.8,5.0858e-05,0
123.8,5.7404e-05,0
123.8,6.1936e-05,0
123.8,6.6636e-05,0
123.8,7.2007e-05,0
123.8,7.1672e-05,0
123.81,5.5894e-05,0
123.81,3.0716e-05,0
123.81,1.6785e-05,0
123.81,2.0981e-05,0
123.81,3.3402e-05,0
123.81,3.9948e-05,0
123.81,3.4241e-05,0
123.81,2.2995e-05,0
123.81,1.561e-05,0
123.81,1.3931e-05,0
123.81,1.3596e-05,0
123.81,1.1246e-05,0
123.81,7.7211e-06,0
123.81,6.5461e-06,0
123.81,7.8889e-06,0
123.81,5.7069e-06,0
123.81,1.6785e-07,0
123.81,1.5106e-06,0
123.81,1.3092e-05,0
123.82,2.5681e-05,0
123.82,3.2059e-05,0
123.82,3.3234e-05,0
123.82,3.1052e-05,0
123.82,2.9374e-05,0
123.82,2.9374e-05,0
123.82,3.1724e-05,0
123.82,3.7934e-05,0
123.82,5.1362e-05,0
123.82,6.7308e-05,0
123.82,7.2175e-05,0
123.82,5.8412e-05,0
123.82,3.3738e-05,0
123.82,9.7353e-06,0
123.82,-1.5778e-05,0
123.82,-4.9851e-05,0
123.82,-8.9799e-05,0
123.82,-0.00012018,0
123.82,-0.00012035,0
123.83,-9.5003e-05,0
123.83,-6.5126e-05,0
123.83,-4.2634e-05,0
123.83,-2.6017e-05,0
123.83,-3.6927e-06,0
123.83,3.1052e-05,0
123.83,6.2272e-05,0
123.83,8.5771e-05,0
123.83,0.00011279,0
123.83,0.00014687,0
123.83,0.00018044,0
123.83,0.00020041,0
123.83,0.00019152,0
123.83,0.00015459,0
123.83,0.0001091,0
123.83,7.0832e-05,0
123.83,4.3137e-05,0
123.83,2.5177e-05,0
123.83,1.7624e-05,0
123.83,1.4435e-05,0
123.84,9.7353e-06,0
123.84,5.2033e-06,0
123.84,3.8605e-06,0
123.84,1.6785e-06,0
123.84,-8.3925e-07,0
123.84,2.8534e-06,0
123.84,7.7211e-06,0
123.84,5.2033e-06,0
123.84,1.1749e-06,0
123.84,1.6785e-07,0
123.84,-2.3499e-06,0
123.84,-1.2924e-05,0
123.84,-2.7695e-05,0
123.84,-3.5752e-05,0
123.84,-3.8437e-05,0
123.84,-3.9445e-05,0
123.84,-3.6759e-05,0
123.84,-2.6688e-05,0
123.84,-1.3764e-05,0
123.85,-3.357e-07,0
123.85,1.091e-05,0
123.85,1.5274e-05,0
123.85,1.3092e-05,0
123.85,1.3596e-05,0
123.85,2.5849e-05,0
123.85,3.9445e-05,0
123.85,4.3641e-05,0
123.85,4.8676e-05,0
123.85,6.4286e-05,0
123.85,7.335e-05,0
123.85,6.7308e-05,0
123.85,5.9251e-05,0
123.85,5.3208e-05,0
123.85,4.4144e-05,0
123.85,3.2395e-05,0
123.85,2.031e-05,0
123.85,5.539e-06,0
123.85,-7.3854e-06,0
123.86,-1.0407e-05,0
123.86,-5.539e-06,0
123.86,2.3499e-06,0
123.86,9.0639e-06,0
123.86,1.5946e-05,0
123.86,2.2156e-05,0
123.86,1.8296e-05,0
123.86,6.2104e-06,0
123.86,-1.6785e-07,0
123.86,-3.0213e-06,0
123.86,-9.5674e-06,0
123.86,-1.8967e-05,0
123.86,-3.508e-05,0
123.86,-5.5222e-05,0
123.86,-6.7643e-05,0
123.86,-6.865e-05,0
123.86,-6.1601e-05,0
123.86,-5.153e-05,0
123.86,-3.978e-05,0
123.87,-2.6017e-05,0
123.87,-1.1917e-05,0
123.87,4.6998e-06,0
123.87,1.6953e-05,0
123.87,2.1317e-05,0
123.87,3.4745e-05,0
123.87,6.3615e-05,0
123.87,8.9799e-05,0
123.87,9.601e-05,0
123.87,8.5771e-05,0
123.87,7.3014e-05,0
123.87,7.3686e-05,0
123.87,8.5771e-05,0
123.87,9.5338e-05,0
123.87,9.5842e-05,0
123.87,9.3492e-05,0
123.87,9.3828e-05,0
123.87,9.6513e-05,0
123.87,9.6178e-05,0
123.88,8.5267e-05,0
123.88,6.4286e-05,0
123.88,4.3473e-05,0
123.88,2.652e-05,0
123.88,1.1917e-05,0
123.88,2.182e-06,0
123.88,-1.6785e-07,0
123.88,-1.6785e-07,0
123.88,-9.0639e-06,0
123.88,-2.8031e-05,0
123.88,-4.2802e-05,0
123.88,-4.5991e-05,0
123.88,-3.9109e-05,0
123.88,-2.501e-05,0
123.88,-9.9031e-06,0
123.88,-1.1749e-06,0
123.88,-1.5106e-06,0
123.88,-8.7282e-06,0
123.88,-1.6953e-05,0
123.88,-1.8128e-05,0
123.89,-3.357e-07,0
123.89,3.7766e-05,0
123.89,7.5532e-05,0
123.89,9.601e-05,0
123.89,0.00010037,0
123.89,9.1142e-05,0
123.89,7.1e-05,0
123.89,4.3641e-05,0
123.89,1.8631e-05,0
123.89,1.3428e-06,0
123.89,-9.9031e-06,0
123.89,-2.3163e-05,0
123.89,-3.9612e-05,0
123.89,-5.0523e-05,0
123.89,-4.9516e-05,0
123.89,-3.2059e-05,0
123.89,-2.182e-06,0
123.89,2.5177e-05,0
123.89,3.3066e-05,0
123.9,2.3331e-05,0
123.9,1.4267e-05,0
123.9,1.6281e-05,0
123.9,2.4506e-05,0
123.9,2.9709e-05,0
123.9,2.7527e-05,0
123.9,2.6352e-05,0
123.9,3.2059e-05,0
123.9,4.1459e-05,0
123.9,4.2802e-05,0
123.9,3.5752e-05,0
123.9,3.4073e-05,0
123.9,4.3977e-05,0
123.9,6.4286e-05,0
123.9,8.2918e-05,0
123.9,8.5603e-05,0
123.9,7.2847e-05,0
123.9,5.3544e-05,0
123.9,3.6088e-05,0
123.91,2.4002e-05,0
123.91,1.4939e-05,0
123.91,5.2033e-06,0
123.91,-2.8534e-06,0
123.91,-4.3641e-06,0
123.91,-1.8463e-06,0
123.91,-6.714e-07,0
123.91,-4.0284e-06,0
123.91,-1.2421e-05,0
123.91,-2.0645e-05,0
123.91,-2.6184e-05,0
123.91,-3.2395e-05,0
123.91,-3.9445e-05,0
123.91,-4.5151e-05,0
123.91,-4.3473e-05,0
123.91,-3.1891e-05,0
123.91,-1.2253e-05,0
123.91,1.0575e-05,0
123.91,2.9877e-05,0
123.91,4.3977e-05,0
123.92,5.0523e-05,0
123.92,5.1698e-05,0
123.92,4.8676e-05,0
123.92,3.7095e-05,0
123.92,2.182e-05,0
123.92,1.0575e-05,0
123.92,1.1749e-06,0
123.92,-1.1078e-05,0
123.92,-2.6352e-05,0
123.92,-4.0116e-05,0
123.92,-4.0452e-05,0
123.92,-2.2995e-05,0
123.92,0,0
123.92,2.0478e-05,0
123.92,3.4577e-05,0
123.92,4.2802e-05,0
123.92,5.3208e-05,0
123.92,7.1672e-05,0
123.92,9.8863e-05,0
123.93,0.00012639,0
123.93,0.00014049,0
123.93,0.00013411,0
123.93,0.00011531,0
123.93,9.7185e-05,0
123.93,7.8721e-05,0
123.93,5.3544e-05,0
123.93,2.5345e-05,0
123.93,1.8463e-06,0
123.93,-1.1078e-05,0
123.93,-1.7121e-05,0
123.93,-2.182e-05,0
123.93,-2.4674e-05,0
123.93,-2.4338e-05,0
123.93,-1.8967e-05,0
123.93,-1.2589e-05,0
123.93,-1.091e-05,0
123.93,-1.5778e-05,0
123.93,-2.9709e-05,0
123.94,-5.1865e-05,0
123.94,-7.2007e-05,0
123.94,-8.1071e-05,0
123.94,-7.4693e-05,0
123.94,-5.9251e-05,0
123.94,-4.3137e-05,0
123.94,-2.5849e-05,0
123.94,-9.9031e-06,0
123.94,-1.8463e-06,0
123.94,0,0
123.94,4.8676e-06,0
123.94,1.8967e-05,0
123.94,3.7095e-05,0
123.94,4.7501e-05,0
123.94,3.9612e-05,0
123.94,2.5849e-05,0
123.94,2.266e-05,0
123.94,3.2731e-05,0
123.94,4.2298e-05,0
123.95,4.1459e-05,0
123.95,4.2802e-05,0
123.95,5.6565e-05,0
123.95,6.7643e-05,0
123.95,7.2679e-05,0
123.95,7.7211e-05,0
123.95,7.8386e-05,0
123.95,7.0161e-05,0
123.95,6.4286e-05,0
123.95,6.8315e-05,0
123.95,7.2007e-05,0
123.95,5.9922e-05,0
123.95,3.0381e-05,0
123.95,5.539e-06,0
123.95,1.6785e-06,0
123.95,1.0575e-05,0
123.95,1.9974e-05,0
123.95,2.501e-05,0
123.95,2.8534e-05,0
123.95,3.2059e-05,0
123.96,3.4745e-05,0
123.96,3.9445e-05,0
123.96,4.2802e-05,0
123.96,4.5487e-05,0
123.96,5.4719e-05,0
123.96,7.1672e-05,0
123.96,8.3589e-05,0
123.96,7.9393e-05,0
123.96,6.6636e-05,0
123.96,5.4551e-05,0
123.96,4.6159e-05,0
123.96,4.0787e-05,0
123.96,3.508e-05,0
123.96,2.3667e-05,0
123.96,1.0407e-05,0
123.96,-1.5106e-06,0
123.96,-1.0407e-05,0
123.96,-1.7288e-05,0
123.96,-2.4506e-05,0
123.97,-3.2395e-05,0
123.97,-3.978e-05,0
123.97,-4.6494e-05,0
123.97,-5.2201e-05,0
123.97,-5.3544e-05,0
123.97,-5.0858e-05,0
123.97,-4.7166e-05,0
123.97,-4.4144e-05,0
123.97,-4.5823e-05,0
123.97,-5.388e-05,0
123.97,-6.0426e-05,0
123.97,-6.0761e-05,0
123.97,-5.6565e-05,0
123.97,-4.9683e-05,0
123.97,-4.1291e-05,0
123.97,-3.1724e-05,0
123.97,-2.3667e-05,0
123.97,-1.796e-05,0
123.97,-9.3996e-06,0
123.98,6.0426e-06,0
123.98,2.9038e-05,0
123.98,6.0594e-05,0
123.98,0.00010155,0
123.98,0.00014049,0
123.98,0.00016701,0
123.98,0.00017708,0
123.98,0.00017037,0
123.98,0.0001462,0
123.98,0.00010692,0
123.98,6.1265e-05,0
123.98,2.4002e-05,0
123.98,2.5177e-06,0
123.98,-9.3996e-06,0
123.98,-2.2995e-05,0
123.98,-4.213e-05,0
123.98,-5.6733e-05,0
123.98,-4.6662e-05,0
123.98,-9.7353e-06,0
123.98,2.8702e-05,0
123.99,4.448e-05,0
123.99,3.9612e-05,0
123.99,3.7263e-05,0
123.99,4.7166e-05,0
123.99,6.1601e-05,0
123.99,7.2343e-05,0
123.99,7.57e-05,0
123.99,7.1672e-05,0
123.99,6.865e-05,0
123.99,7.3014e-05,0
123.99,7.3686e-05,0
123.99,6.244e-05,0
123.99,4.2802e-05,0
123.99,2.6688e-05,0
123.99,1.9303e-05,0
123.99,1.5946e-05,0
123.99,8.3925e-06,0
123.99,2.182e-06,0
123.99,-3.5248e-06,0
124,-1.5778e-05,0
124,-2.9541e-05,0
124,-3.3738e-05,0
124,-2.8367e-05,0
124,-1.9806e-05,0
124,-1.5274e-05,0
124,-1.3596e-05,0
124,-1.5946e-05,0
124,-2.4002e-05,0
124,-3.1724e-05,0
124,-2.9877e-05,0
124,-1.6281e-05,0
124,6.5461e-06,0
124,2.9374e-05,0
124,4.448e-05,0
124,4.9516e-05,0
124,4.7669e-05,0
124,3.9277e-05,0
124,2.8702e-05,0
124.01,2.3331e-05,0
124.01,2.4338e-05,0
124.01,2.4674e-05,0
124.01,1.8128e-05,0
124.01,6.5461e-06,0
124.01,-5.7069e-06,0
124.01,-1.8967e-05,0
124.01,-2.8367e-05,0
124.01,-3.1052e-05,0
124.01,-2.9038e-05,0
124.01,-2.1149e-05,0
124.01,-2.8534e-06,0
124.01,2.3499e-05,0
124.01,4.2298e-05,0
124.01,4.6326e-05,0
124.01,4.5823e-05,0
124.01,5.2705e-05,0
124.01,6.5461e-05,0
124.01,7.3518e-05,0
124.02,7.1672e-05,0
124.02,6.3111e-05,0
124.02,5.2873e-05,0
124.02,4.4816e-05,0
124.02,3.8102e-05,0
124.02,3.2395e-05,0
124.02,2.887e-05,0
124.02,2.7192e-05,0
124.02,2.5177e-05,0
124.02,2.3667e-05,0
124.02,2.2492e-05,0
124.02,1.9471e-05,0
124.02,1.796e-05,0
124.02,1.8631e-05,0
124.02,1.6953e-05,0
124.02,7.8889e-06,0
124.02,-1.1582e-05,0
124.02,-4.0452e-05,0
124.02,-6.5293e-05,0
124.03,-7.7546e-05,0
124.03,-7.8386e-05,0
124.03,-7.2343e-05,0
124.03,-6.1936e-05,0
124.03,-4.9851e-05,0
124.03,-3.7934e-05,0
124.03,-2.2492e-05,0
124.03,2.5177e-06,0
124.03,3.8605e-05,0
124.03,8.2078e-05,0
124.03,0.00012337,0
124.03,0.0001509,0
124.03,0.00015023,0
124.03,0.00012471,0
124.03,9.4667e-05,0
124.03,7.2175e-05,0
124.03,5.9922e-05,0
124.03,5.5558e-05,0
124.03,4.9516e-05,0
124.03,3.7095e-05,0
124.04,2.1317e-05,0
124.04,6.3783e-06,0
124.04,-1.326e-05,0
124.04,-4.3809e-05,0
124.04,-6.1433e-05,0
124.04,-4.7669e-05,0
124.04,-1.9806e-05,0
124.04,-6.5461e-06,0
124.04,-1.0239e-05,0
124.04,-1.326e-05,0
124.04,-1.1246e-05,0
124.04,-1.326e-05,0
124.04,-2.7024e-05,0
124.04,-4.4144e-05,0
124.04,-4.683e-05,0
124.04,-2.9374e-05,0
124.04,-5.539e-06,0
124.04,5.539e-06,0
124.04,2.3499e-06,0
124.05,-1.8463e-06,0
124.05,7.8889e-06,0
124.05,3.8437e-05,0
124.05,8.1407e-05,0
124.05,0.00012068,0
124.05,0.00015157,0
124.05,0.00018044,0
124.05,0.0002036,0
124.05,0.00020427,0
124.05,0.00018514,0
124.05,0.00015358,0
124.05,0.00011179,0
124.05,6.0258e-05,0
124.05,1.5946e-05,0
124.05,-6.8818e-06,0
124.05,-1.6449e-05,0
124.05,-2.8199e-05,0
124.05,-4.0116e-05,0
124.05,-4.6494e-05,0
124.06,-4.918e-05,0
124.06,-5.4383e-05,0
124.06,-6.0258e-05,0
124.06,-6.1601e-05,0
124.06,-6.1601e-05,0
124.06,-6.2943e-05,0
124.06,-6.4622e-05,0
124.06,-6.3447e-05,0
124.06,-5.5894e-05,0
124.06,-3.9445e-05,0
124.06,-1.6449e-05,0
124.06,1.0239e-05,0
124.06,3.6088e-05,0
124.06,5.9419e-05,0
124.06,7.6875e-05,0
124.06,8.3085e-05,0
124.06,7.7714e-05,0
124.06,6.0258e-05,0
124.06,3.7095e-05,0
124.06,2.2324e-05,0
124.07,1.9638e-05,0
124.07,2.4674e-05,0
124.07,3.1891e-05,0
124.07,3.5416e-05,0
124.07,3.6423e-05,0
124.07,3.6759e-05,0
124.07,4.3473e-05,0
124.07,5.0858e-05,0
124.07,5.0858e-05,0
124.07,4.4312e-05,0
124.07,3.1724e-05,0
124.07,2.1317e-05,0
124.07,2.266e-05,0
124.07,2.501e-05,0
124.07,1.8463e-05,0
124.07,5.2033e-06,0
124.07,-5.8747e-06,0
124.07,-9.5674e-06,0
124.07,-5.539e-06,0
124.08,-4.5319e-06,0
124.08,-9.2317e-06,0
124.08,-1.4603e-05,0
124.08,-1.6617e-05,0
124.08,-1.5274e-05,0
124.08,-1.2589e-05,0
124.08,-9.2317e-06,0
124.08,-7.2175e-06,0
124.08,-6.0426e-06,0
124.08,-5.7069e-06,0
124.08,-6.2104e-06,0
124.08,-6.5461e-06,0
124.08,-6.0426e-06,0
124.08,-3.5248e-06,0
124.08,1.5106e-06,0
124.08,4.3641e-06,0
124.08,1.1749e-06,0
124.08,-4.1962e-06,0
124.08,-9.3996e-06,0
124.09,-1.2924e-05,0
124.09,-1.3428e-05,0
124.09,-1.326e-05,0
124.09,-2.0478e-05,0
124.09,-2.8031e-05,0
124.09,-2.9541e-05,0
124.09,-2.1988e-05,0
124.09,-1.0239e-05,0
124.09,-6.8818e-06,0
124.09,-9.5674e-06,0
124.09,-6.5461e-06,0
124.09,8.896e-06,0
124.09,3.1724e-05,0
124.09,5.8076e-05,0
124.09,8.6275e-05,0
124.09,0.00010893,0
124.09,0.000118,0
124.09,0.00012169,0
124.09,0.00012438,0
124.1,0.00011934,0
124.1,0.00010692,0
124.1,9.2653e-05,0
124.1,7.6036e-05,0
124.1,5.2873e-05,0
124.1,2.6017e-05,0
124.1,3.5248e-06,0
124.1,-9.0639e-06,0
124.1,-1.2085e-05,0
124.1,-1.1749e-05,0
124.1,-9.5674e-06,0
124.1,-1.1749e-06,0
124.1,1.3092e-05,0
124.1,3.0045e-05,0
124.1,4.8508e-05,0
124.1,7.2007e-05,0
124.1,0.00010155,0
124.1,0.00013042,0
124.1,0.00014351,0
124.11,0.00013327,0
124.11,0.00010491,0
124.11,6.3951e-05,0
124.11,1.7792e-05,0
124.11,-2.1317e-05,0
124.11,-4.5823e-05,0
124.11,-5.3208e-05,0
124.11,-5.0019e-05,0
124.11,-4.213e-05,0
124.11,-3.2898e-05,0
124.11,-2.5345e-05,0
124.11,-1.796e-05,0
124.11,-1.091e-05,0
124.11,5.0355e-06,0
124.11,3.5752e-05,0
124.11,7.4357e-05,0
124.11,0.00010457,0
124.11,0.00011901,0
124.11,0.00011582,0
124.11,9.1981e-05,0
124.12,4.5151e-05,0
124.12,-1.3764e-05,0
124.12,-6.2272e-05,0
124.12,-8.4932e-05,0
124.12,-8.896e-05,0
124.12,-8.8457e-05,0
124.12,-9.5003e-05,0
124.12,-0.0001039,0
124.12,-9.9535e-05,0
124.12,-7.6371e-05,0
124.12,-3.9948e-05,0
124.12,5.2033e-06,0
124.12,4.8844e-05,0
124.12,7.7714e-05,0
124.12,9.8695e-05,0
124.12,0.00012471,0
124.12,0.00014888,0
124.12,0.00015258,0
124.12,0.00013277,0
124.13,9.8192e-05,0
124.13,4.9516e-05,0
124.13,-8.3925e-06,0
124.13,-5.2873e-05,0
124.13,-7.1e-05,0
124.13,-6.2272e-05,0
124.13,-4.213e-05,0
124.13,-2.7695e-05,0
124.13,-2.4338e-05,0
124.13,-2.2324e-05,0
124.13,-1.0575e-05,0
124.13,1.5946e-05,0
124.13,5.6565e-05,0
124.13,0.00010423,0
124.13,0.0001378,0
124.13,0.00014083,0
124.13,0.00011464,0
124.13,7.5532e-05,0
124.13,3.9109e-05,0
124.14,1.4099e-05,0
124.14,-1.3428e-06,0
124.14,-1.0575e-05,0
124.14,-1.4603e-05,0
124.14,-1.8463e-05,0
124.14,-3.0381e-05,0
124.14,-4.6662e-05,0
124.14,-5.9922e-05,0
124.14,-6.9154e-05,0
124.14,-6.9322e-05,0
124.14,-6.1601e-05,0
124.14,-4.8508e-05,0
124.14,-3.508e-05,0
124.14,-2.2324e-05,0
124.14,-6.8818e-06,0
124.14,1.2421e-05,0
124.14,2.9038e-05,0
124.14,3.7934e-05,0
124.14,4.8173e-05,0
124.14,6.7643e-05,0
124.15,8.8457e-05,0
124.15,9.2149e-05,0
124.15,7.2343e-05,0
124.15,4.1962e-05,0
124.15,1.5946e-05,0
124.15,8.3925e-07,0
124.15,-5.3712e-06,0
124.15,-4.6998e-06,0
124.15,1.1749e-06,0
124.15,1.4435e-05,0
124.15,3.3738e-05,0
124.15,5.2537e-05,0
124.15,6.2608e-05,0
124.15,5.5894e-05,0
124.15,3.2898e-05,0
124.15,3.1891e-06,0
124.15,-2.7695e-05,0
124.15,-5.3208e-05,0
124.15,-7.0329e-05,0
124.16,-8.0735e-05,0
124.16,-8.2414e-05,0
124.16,-7.4525e-05,0
124.16,-5.9419e-05,0
124.16,-4.0787e-05,0
124.16,-1.9974e-05,0
124.16,5.0355e-07,0
124.16,2.7024e-05,0
124.16,5.9586e-05,0
124.16,8.5771e-05,0
124.16,9.752e-05,0
124.16,9.987e-05,0
124.16,0.00010457,0
124.16,0.00011884,0
124.16,0.00013462,0
124.16,0.00013243,0
124.16,0.00010407,0
124.16,6.0258e-05,0
124.16,2.7359e-05,0
124.17,1.9303e-05,0
124.17,2.5345e-05,0
124.17,2.9374e-05,0
124.17,2.4002e-05,0
124.17,9.2317e-06,0
124.17,-4.6998e-06,0
124.17,-5.8747e-06,0
124.17,3.5248e-06,0
124.17,1.1582e-05,0
124.17,1.6617e-05,0
124.17,2.501e-05,0
124.17,3.6088e-05,0
124.17,4.2802e-05,0
124.17,4.5487e-05,0
124.17,4.918e-05,0
124.17,5.4215e-05,0
124.17,5.9586e-05,0
124.17,5.6397e-05,0
124.17,4.213e-05,0
124.18,2.4842e-05,0
124.18,1.1414e-05,0
124.18,-7.8889e-06,0
124.18,-3.122e-05,0
124.18,-4.5151e-05,0
124.18,-4.9348e-05,0
124.18,-5.2369e-05,0
124.18,-5.6901e-05,0
124.18,-5.9251e-05,0
124.18,-5.2201e-05,0
124.18,-3.4073e-05,0
124.18,-1.3596e-05,0
124.18,-6.714e-07,0
124.18,6.714e-07,0
124.18,-3.5248e-06,0
124.18,1.6785e-06,0
124.18,1.5274e-05,0
124.18,2.501e-05,0
124.18,3.7766e-05,0
124.18,6.2943e-05,0
124.19,8.7953e-05,0
124.19,9.4499e-05,0
124.19,8.04e-05,0
124.19,6.1936e-05,0
124.19,5.2201e-05,0
124.19,5.0523e-05,0
124.19,4.8844e-05,0
124.19,4.5487e-05,0
124.19,4.3809e-05,0
124.19,4.3641e-05,0
124.19,3.7934e-05,0
124.19,1.796e-05,0
124.19,-1.1246e-05,0
124.19,-3.9445e-05,0
124.19,-6.2272e-05,0
124.19,-7.57e-05,0
124.19,-7.7714e-05,0
124.19,-7.0665e-05,0
124.19,-5.8244e-05,0
124.2,-4.6494e-05,0
124.2,-3.7263e-05,0
124.2,-2.1988e-05,0
124.2,-5.539e-06,0
124.2,1.8463e-06,0
124.2,3.5248e-06,0
124.2,1.2757e-05,0
124.2,3.5416e-05,0
124.2,5.8244e-05,0
124.2,6.6972e-05,0
124.2,6.7308e-05,0
124.2,7.0665e-05,0
124.2,8.3085e-05,0
124.2,0.00010188,0
124.2,0.00011699,0
124.2,0.00013579,0
124.2,0.00016869,0
124.2,0.00019655,0
124.2,0.00019353,0
124.21,0.00015023,0
124.21,8.9799e-05,0
124.21,4.2466e-05,0
124.21,2.1653e-05,0
124.21,1.9303e-05,0
124.21,1.8967e-05,0
124.21,1.2253e-05,0
124.21,4.8676e-06,0
124.21,5.2033e-06,0
124.21,1.1582e-05,0
124.21,1.3931e-05,0
124.21,1.5274e-05,0
124.21,1.8631e-05,0
124.21,1.7624e-05,0
124.21,1.0407e-05,0
124.21,3.0213e-06,0
124.21,-3.357e-06,0
124.21,-1.0575e-05,0
124.21,-1.7121e-05,0
124.22,-2.0981e-05,0
124.22,-2.1988e-05,0
124.22,-2.4002e-05,0
124.22,-3.1724e-05,0
124.22,-4.2466e-05,0
124.22,-4.7333e-05,0
124.22,-4.7333e-05,0
124.22,-4.7669e-05,0
124.22,-4.683e-05,0
124.22,-4.3305e-05,0
124.22,-3.7766e-05,0
124.22,-2.9709e-05,0
124.22,-2.0813e-05,0
124.22,-1.4435e-05,0
124.22,-8.7282e-06,0
124.22,-5.0355e-07,0
124.22,1.1414e-05,0
124.22,2.5345e-05,0
124.22,3.4745e-05,0
124.22,3.4745e-05,0
124.23,2.7192e-05,0
124.23,1.5778e-05,0
124.23,1.8463e-06,0
124.23,-1.4603e-05,0
124.23,-2.8031e-05,0
124.23,-3.4073e-05,0
124.23,-3.4409e-05,0
124.23,-3.6088e-05,0
124.23,-4.0452e-05,0
124.23,-4.1123e-05,0
124.23,-3.4409e-05,0
124.23,-2.3667e-05,0
124.23,-1.5106e-05,0
124.23,-6.8818e-06,0
124.23,5.7069e-06,0
124.23,2.0645e-05,0
124.23,3.8773e-05,0
124.23,6.5629e-05,0
124.23,9.6513e-05,0
124.24,0.00012186,0
124.24,0.00013613,0
124.24,0.00014183,0
124.24,0.0001378,0
124.24,0.00012068,0
124.24,9.5171e-05,0
124.24,6.7979e-05,0
124.24,4.2466e-05,0
124.24,2.5345e-05,0
124.24,2.031e-05,0
124.24,1.9303e-05,0
124.24,1.326e-05,0
124.24,7.5532e-06,0
124.24,8.2246e-06,0
124.24,1.091e-05,0
124.24,1.4603e-05,0
124.24,1.9303e-05,0
124.24,2.5681e-05,0
124.24,3.0716e-05,0
124.25,3.6088e-05,0
124.25,4.4984e-05,0
124.25,5.1865e-05,0
124.25,4.8173e-05,0
124.25,4.1459e-05,0
124.25,3.8773e-05,0
124.25,3.508e-05,0
124.25,2.2828e-05,0
124.25,8.3925e-06,0
124.25,-3.8605e-06,0
124.25,-1.7792e-05,0
124.25,-3.6927e-05,0
124.25,-5.9419e-05,0
124.25,-7.9393e-05,0
124.25,-9.5842e-05,0
124.25,-0.00011363,0
124.25,-0.00012706,0
124.25,-0.00012236,0
124.25,-9.6681e-05,0
124.25,-5.7404e-05,0
124.26,-1.7624e-05,0
124.26,1.7624e-05,0
124.26,5.1362e-05,0
124.26,8.6946e-05,0
124.26,0.00013042,0
124.26,0.00017523,0
124.26,0.00020864,0
124.26,0.00022005,0
124.26,0.0002036,0
124.26,0.00016567,0
124.26,0.00011632,0
124.26,6.8315e-05,0
124.26,3.3738e-05,0
124.26,8.896e-06,0
124.26,-7.5532e-06,0
124.26,-1.5274e-05,0
124.26,-1.3092e-05,0
124.26,-8.3925e-07,0
124.26,1.3931e-05,0
124.27,2.9038e-05,0
124.27,4.9012e-05,0
124.27,6.6972e-05,0
124.27,7.2343e-05,0
124.27,6.63e-05,0
124.27,5.1865e-05,0
124.27,2.8031e-05,0
124.27,-1.1917e-05,0
124.27,-5.388e-05,0
124.27,-7.2679e-05,0
124.27,-6.6972e-05,0
124.27,-5.6901e-05,0
124.27,-5.4719e-05,0
124.27,-5.2537e-05,0
124.27,-4.1794e-05,0
124.27,-2.1149e-05,0
124.27,5.2033e-06,0
124.27,3.0716e-05,0
124.27,5.9251e-05,0
124.28,9.1814e-05,0
124.28,0.00012136,0
124.28,0.00013143,0
124.28,0.00010457,0
124.28,5.4215e-05,0
124.28,1.1749e-05,0
124.28,-9.3996e-06,0
124.28,-1.6281e-05,0
124.28,-1.5274e-05,0
124.28,-1.091e-05,0
124.28,-5.2033e-06,0
124.28,1.8463e-06,0
124.28,9.2317e-06,0
124.28,1.3596e-05,0
124.28,1.4267e-05,0
124.28,1.6281e-05,0
124.28,2.6017e-05,0
124.28,3.8605e-05,0
124.28,4.1962e-05,0
124.29,3.4073e-05,0
124.29,2.1317e-05,0
124.29,1.1917e-05,0
124.29,3.8605e-06,0
124.29,-4.6998e-06,0
124.29,-1.326e-05,0
124.29,-1.561e-05,0
124.29,-7.7211e-06,0
124.29,3.5248e-06,0
124.29,6.3783e-06,0
124.29,1.5106e-06,0
124.29,-3.8605e-06,0
124.29,-1.0742e-05,0
124.29,-1.8296e-05,0
124.29,-1.9806e-05,0
124.29,-1.7288e-05,0
124.29,-2.031e-05,0
124.29,-3.0213e-05,0
124.29,-4.0452e-05,0
124.3,-4.5151e-05,0
124.3,-4.8173e-05,0
124.3,-5.388e-05,0
124.3,-5.623e-05,0
124.3,-5.0187e-05,0
124.3,-3.8941e-05,0
124.3,-2.7024e-05,0
124.3,-1.8296e-05,0
124.3,-1.6281e-05,0
124.3,-2.1485e-05,0
124.3,-2.6184e-05,0
124.3,-2.6688e-05,0
124.3,-1.9974e-05,0
124.3,0,0
124.3,2.7359e-05,0
124.3,5.0019e-05,0
124.3,6.5293e-05,0
124.3,7.6875e-05,0
124.3,9.0303e-05,0
124.3,0.00011363,0
124.31,0.00015224,0
124.31,0.00019353,0
124.31,0.00021569,0
124.31,0.00021367,0
124.31,0.00019185,0
124.31,0.00015492,0
124.31,0.00012438,0
124.31,0.00011128,0
124.31,0.00010239,0
124.31,8.8121e-05,0
124.31,6.3951e-05,0
124.31,2.887e-05,0
124.31,-8.2246e-06,0
124.31,-3.4409e-05,0
124.31,-5.2537e-05,0
124.31,-6.9322e-05,0
124.31,-8.4092e-05,0
124.31,-9.3828e-05,0
124.31,-9.8192e-05,0
124.32,-9.3492e-05,0
124.32,-7.805e-05,0
124.32,-5.7069e-05,0
124.32,-3.8437e-05,0
124.32,-2.4506e-05,0
124.32,-8.2246e-06,0
124.32,1.4435e-05,0
124.32,3.592e-05,0
124.32,5.5558e-05,0
124.32,6.7811e-05,0
124.32,6.865e-05,0
124.32,5.8915e-05,0
124.32,3.9445e-05,0
124.32,1.1582e-05,0
124.32,-1.9135e-05,0
124.32,-4.2466e-05,0
124.32,-4.6326e-05,0
124.32,-2.9709e-05,0
124.32,-5.2033e-06,0
124.33,1.5778e-05,0
124.33,2.5849e-05,0
124.33,3.0045e-05,0
124.33,3.8102e-05,0
124.33,5.623e-05,0
124.33,7.2343e-05,0
124.33,7.4357e-05,0
124.33,7.3518e-05,0
124.33,8.5771e-05,0
124.33,9.836e-05,0
124.33,9.2821e-05,0
124.33,6.9322e-05,0
124.33,4.5655e-05,0
124.33,3.7095e-05,0
124.33,4.1291e-05,0
124.33,4.8844e-05,0
124.33,4.918e-05,0
124.33,4.5487e-05,0
124.33,4.8844e-05,0
124.33,5.623e-05,0
124.34,5.388e-05,0
124.34,3.6088e-05,0
124.34,1.2924e-05,0
124.34,-7.2175e-06,0
124.34,-1.4771e-05,0
124.34,-1.3092e-05,0
124.34,-1.3931e-05,0
124.34,-2.2995e-05,0
124.34,-3.6927e-05,0
124.34,-4.5319e-05,0
124.34,-3.7095e-05,0
124.34,-2.1317e-05,0
124.34,-2.031e-05,0
124.34,-4.2466e-05,0
124.34,-7.2343e-05,0
124.34,-8.6778e-05,0
124.34,-8.275e-05,0
124.34,-7.2175e-05,0
124.34,-6.5293e-05,0
124.35,-6.8147e-05,0
124.35,-7.2511e-05,0
124.35,-5.7908e-05,0
124.35,-2.7695e-05,0
124.35,-1.6281e-05,0
124.35,-3.0381e-05,0
124.35,-5.4047e-05,0
124.35,-6.2608e-05,0
124.35,-3.3234e-05,0
124.35,1.6281e-05,0
124.35,6.0761e-05,0
124.35,0.00010121,0
124.35,0.00014821,0
124.35,0.00019286,0
124.35,0.00021602,0
124.35,0.00022072,0
124.35,0.00021736,0
124.35,0.00020578,0
124.35,0.00019303,0
124.36,0.00019219,0
124.36,0.00019051,0
124.36,0.0001702,0
124.36,0.00014015,0
124.36,0.00011044,0
124.36,7.7043e-05,0
124.36,4.2466e-05,0
124.36,1.6281e-05,0
124.36,-1.1749e-06,0
124.36,-1.5274e-05,0
124.36,-2.9709e-05,0
124.36,-4.4312e-05,0
124.36,-5.8412e-05,0
124.36,-7.3014e-05,0
124.36,-8.4428e-05,0
124.36,-8.9296e-05,0
124.36,-9.2821e-05,0
124.36,-9.7185e-05,0
124.36,-9.7353e-05,0
124.37,-9.0639e-05,0
124.37,-7.9057e-05,0
124.37,-6.7643e-05,0
124.37,-6.3111e-05,0
124.37,-5.8579e-05,0
124.37,-4.5151e-05,0
124.37,-2.031e-05,0
124.37,4.8676e-06,0
124.37,9.2317e-06,0
124.37,-8.2246e-06,0
124.37,-2.6184e-05,0
124.37,-2.8367e-05,0
124.37,-2.1653e-05,0
124.37,-1.7792e-05,0
124.37,-1.4603e-05,0
124.37,3.8605e-06,0
124.37,4.2802e-05,0
124.37,8.4428e-05,0
124.37,0.00012068,0
124.38,0.00015224,0
124.38,0.00017507,0
124.38,0.00018161,0
124.38,0.00016986,0
124.38,0.00014351,0
124.38,0.00010658,0
124.38,6.6972e-05,0
124.38,3.7766e-05,0
124.38,2.182e-05,0
124.38,1.091e-05,0
124.38,3.8605e-06,0
124.38,4.0284e-06,0
124.38,7.0497e-06,0
124.38,5.539e-06,0
124.38,-5.2033e-06,0
124.38,-2.031e-05,0
124.38,-3.122e-05,0
124.38,-3.3234e-05,0
124.38,-3.0045e-05,0
124.38,-2.6184e-05,0
124.39,-2.266e-05,0
124.39,-1.9974e-05,0
124.39,-2.0478e-05,0
124.39,-3.0213e-05,0
124.39,-4.2466e-05,0
124.39,-4.7501e-05,0
124.39,-3.743e-05,0
124.39,-1.9303e-05,0
124.39,-1.091e-05,0
124.39,-1.1749e-05,0
124.39,-7.2175e-06,0
124.39,4.3641e-06,0
124.39,1.5274e-05,0
124.39,2.2324e-05,0
124.39,2.7024e-05,0
124.39,3.0045e-05,0
124.39,2.8702e-05,0
124.39,1.7288e-05,0
124.39,-6.3783e-06,0
124.4,-3.8437e-05,0
124.4,-7.2679e-05,0
124.4,-0.00010507,0
124.4,-0.00012908,0
124.4,-0.0001326,0
124.4,-0.00010977,0
124.4,-6.3447e-05,0
124.4,-1.2589e-05,0
124.4,2.3163e-05,0
124.4,4.1291e-05,0
124.4,5.2873e-05,0
124.4,6.6468e-05,0
124.4,8.9632e-05,0
124.4,0.00012622,0
124.4,0.0001707,0
124.4,0.00021736,0
124.4,0.00025127,0
124.4,0.00025949,0
124.4,0.00023818,0
124.41,0.00019622,0
124.41,0.00014855,0
124.41,0.00011028,0
124.41,8.6275e-05,0
124.41,6.6636e-05,0
124.41,4.918e-05,0
124.41,4.3809e-05,0
124.41,4.062e-05,0
124.41,2.7024e-05,0
124.41,7.8889e-06,0
124.41,-1.3596e-05,0
124.41,-3.5752e-05,0
124.41,-5.9251e-05,0
124.41,-8.4428e-05,0
124.41,-0.00010558,0
124.41,-0.00011447,0
124.41,-9.9535e-05,0
124.41,-6.3279e-05,0
124.41,-2.6688e-05,0
124.42,-1.5106e-06,0
124.42,1.4603e-05,0
124.42,2.6688e-05,0
124.42,4.1962e-05,0
124.42,6.7308e-05,0
124.42,0.00010121,0
124.42,0.00012773,0
124.42,0.00012941,0
124.42,9.7688e-05,0
124.42,4.2802e-05,0
124.42,-1.4603e-05,0
124.42,-5.304e-05,0
124.42,-6.5965e-05,0
124.42,-6.1265e-05,0
124.42,-5.0355e-05,0
124.42,-4.448e-05,0
124.42,-4.6159e-05,0
124.42,-5.2537e-05,0
124.42,-5.069e-05,0
124.42,-3.3906e-05,0
124.43,-1.0071e-06,0
124.43,4.0452e-05,0
124.43,6.9657e-05,0
124.43,7.57e-05,0
124.43,6.63e-05,0
124.43,5.5558e-05,0
124.43,5.0019e-05,0
124.43,4.9516e-05,0
124.43,5.8915e-05,0
124.43,8.0735e-05,0
124.43,9.9702e-05,0
124.43,9.6513e-05,0
124.43,7.1336e-05,0
124.43,3.9445e-05,0
124.43,1.3931e-05,0
124.43,-1.5106e-06,0
124.43,-8.7282e-06,0
124.43,-1.1414e-05,0
124.43,-1.2757e-05,0
124.44,-1.3596e-05,0
124.44,-1.561e-05,0
124.44,-1.6953e-05,0
124.44,-1.6953e-05,0
124.44,-1.8463e-05,0
124.44,-2.6017e-05,0
124.44,-3.8102e-05,0
124.44,-4.918e-05,0
124.44,-5.7069e-05,0
124.44,-6.1265e-05,0
124.44,-6.3111e-05,0
124.44,-6.4958e-05,0
124.44,-6.1936e-05,0
124.44,-5.1362e-05,0
124.44,-3.5416e-05,0
124.44,-1.7288e-05,0
124.44,5.0355e-07,0
124.44,1.6785e-05,0
124.44,3.4073e-05,0
124.45,5.5726e-05,0
124.45,8.2078e-05,0
124.45,0.00010759,0
124.45,0.00012538,0
124.45,0.00012656,0
124.45,0.00011296,0
124.45,9.7353e-05,0
124.45,8.6778e-05,0
124.45,7.6371e-05,0
124.45,6.5797e-05,0
124.45,5.7404e-05,0
124.45,4.6159e-05,0
124.45,3.1052e-05,0
124.45,1.0071e-05,0
124.45,-1.3596e-05,0
124.45,-3.5416e-05,0
124.45,-6.0594e-05,0
124.45,-9.131e-05,0
124.45,-0.00011817,0
124.45,-0.0001331,0
124.46,-0.00013092,0
124.46,-0.00011229,0
124.46,-8.3421e-05,0
124.46,-5.0523e-05,0
124.46,-2.0478e-05,0
124.46,6.5461e-06,0
124.46,3.4745e-05,0
124.46,6.6133e-05,0
124.46,0.00010558,0
124.46,0.00015744,0
124.46,0.00021099,0
124.46,0.00023532,0
124.46,0.00020209,0
124.46,0.00012673,0
124.46,4.5487e-05,0
124.46,-1.2924e-05,0
124.46,-3.2731e-05,0
124.46,-2.4674e-05,0
124.46,-7.8889e-06,0
124.47,1.1582e-05,0
124.47,3.592e-05,0
124.47,6.0258e-05,0
124.47,8.1743e-05,0
124.47,0.00010726,0
124.47,0.00013797,0
124.47,0.00015828,0
124.47,0.0001519,0
124.47,0.00011733,0
124.47,6.865e-05,0
124.47,2.266e-05,0
124.47,-8.5603e-06,0
124.47,-2.9206e-05,0
124.47,-4.683e-05,0
124.47,-6.0929e-05,0
124.47,-6.8147e-05,0
124.47,-6.7308e-05,0
124.47,-5.4215e-05,0
124.47,-3.2059e-05,0
124.48,-7.8889e-06,0
124.48,1.5106e-05,0
124.48,3.9948e-05,0
124.48,6.0594e-05,0
124.48,6.0258e-05,0
124.48,3.8773e-05,0
124.48,1.4939e-05,0
124.48,1.6785e-06,0
124.48,-1.1749e-06,0
124.48,-5.0355e-07,0
124.48,-6.8818e-06,0
124.48,-1.3931e-05,0
124.48,-5.539e-06,0
124.48,2.2995e-05,0
124.48,5.8915e-05,0
124.48,9.2988e-05,0
124.48,0.00011716,0
124.48,0.00012421,0
124.48,0.00011598,0
124.49,0.00010054,0
124.49,7.7714e-05,0
124.49,4.7333e-05,0
124.49,1.6281e-05,0
124.49,-4.5319e-06,0
124.49,-1.091e-05,0
124.49,-1.0239e-05,0
124.49,-9.0639e-06,0
124.49,-1.091e-05,0
124.49,-1.7121e-05,0
124.49,-1.7288e-05,0
124.49,-8.7282e-06,0
124.49,-4.3641e-06,0
124.49,-1.2757e-05,0
124.49,-2.9374e-05,0
124.49,-4.3137e-05,0
124.49,-4.8844e-05,0
124.49,-5.2201e-05,0
124.49,-5.9754e-05,0
124.49,-6.7979e-05,0
124.5,-6.9322e-05,0
124.5,-6.8147e-05,0
124.5,-6.7475e-05,0
124.5,-6.3279e-05,0
124.5,-5.4719e-05,0
124.5,-4.1794e-05,0
124.5,-2.7695e-05,0
124.5,-1.7121e-05,0
124.5,-7.8889e-06,0
124.5,6.3783e-06,0
124.5,1.4771e-05,0
124.5,3.8605e-06,0
124.5,-2.4338e-05,0
124.5,-5.4047e-05,0
124.5,-6.949e-05,0
124.5,-6.6636e-05,0
124.5,-4.8676e-05,0
124.5,-2.2492e-05,0
124.5,4.5319e-06,0
124.51,2.9374e-05,0
124.51,5.2201e-05,0
124.51,7.6036e-05,0
124.51,9.8527e-05,0
124.51,0.0001133,0
124.51,0.0001284,0
124.51,0.00014183,0
124.51,0.00013545,0
124.51,0.00010709,0
124.51,7.2007e-05,0
124.51,4.2466e-05,0
124.51,1.9638e-05,0
124.51,1.1749e-06,0
124.51,-1.1582e-05,0
124.51,-1.2589e-05,0
124.51,5.0355e-07,0
124.51,2.3163e-05,0
124.51,5.6901e-05,0
124.51,9.1814e-05,0
124.52,0.00011196,0
124.52,0.00011363,0
124.52,0.00010625,0
124.52,0.00010306,0
124.52,0.00010726,0
124.52,0.00012001,0
124.52,0.00013008,0
124.52,0.00012102,0
124.52,8.8121e-05,0
124.52,4.3137e-05,0
124.52,4.8676e-06,0
124.52,-1.7624e-05,0
124.52,-2.8702e-05,0
124.52,-3.2731e-05,0
124.52,-2.9709e-05,0
124.52,-2.2995e-05,0
124.52,-1.5274e-05,0
124.52,-1.6785e-06,0
124.52,2.1988e-05,0
124.53,4.6159e-05,0
124.53,5.4887e-05,0
124.53,4.3977e-05,0
124.53,1.4603e-05,0
124.53,-2.6017e-05,0
124.53,-6.3615e-05,0
124.53,-8.7114e-05,0
124.53,-9.7856e-05,0
124.53,-0.00010642,0
124.53,-0.00011196,0
124.53,-0.00010608,0
124.53,-9.0974e-05,0
124.53,-6.7979e-05,0
124.53,-3.2395e-05,0
124.53,1.3596e-05,0
124.53,6.2943e-05,0
124.53,0.00011397,0
124.53,0.00016197,0
124.53,0.00018849,0
124.53,0.00018144,0
124.54,0.00015744,0
124.54,0.00013529,0
124.54,0.0001227,0
124.54,0.00011666,0
124.54,0.00010608,0
124.54,8.7114e-05,0
124.54,6.0929e-05,0
124.54,2.887e-05,0
124.54,-1.8463e-06,0
124.54,-2.4674e-05,0
124.54,-3.7934e-05,0
124.54,-4.7501e-05,0
124.54,-5.8244e-05,0
124.54,-6.4958e-05,0
124.54,-6.3951e-05,0
124.54,-5.5726e-05,0
124.54,-4.6159e-05,0
124.54,-3.7263e-05,0
124.54,-2.8702e-05,0
124.55,-1.9135e-05,0
124.55,-1.0071e-05,0
124.55,-3.8605e-06,0
124.55,1.1749e-06,0
124.55,1.8463e-06,0
124.55,-1.2924e-05,0
124.55,-3.508e-05,0
124.55,-4.9516e-05,0
124.55,-5.2033e-05,0
124.55,-4.2802e-05,0
124.55,-2.5177e-05,0
124.55,-1.0575e-05,0
124.55,3.8605e-06,0
124.55,2.8702e-05,0
124.55,5.6565e-05,0
124.55,8.3085e-05,0
124.55,0.00010507,0
124.55,0.00010658,0
124.55,7.2847e-05,0
124.56,2.0813e-05,0
124.56,-2.1653e-05,0
124.56,-4.8508e-05,0
124.56,-6.1265e-05,0
124.56,-6.0258e-05,0
124.56,-4.918e-05,0
124.56,-3.357e-05,0
124.56,-1.561e-05,0
124.56,5.8747e-06,0
124.56,2.8702e-05,0
124.56,5.6397e-05,0
124.56,9.4667e-05,0
124.56,0.00013478,0
124.56,0.00015962,0
124.56,0.00016097,0
124.56,0.00014855,0
124.56,0.00013462,0
124.56,0.00011934,0
124.56,0.00010037,0
124.56,8.2414e-05,0
124.57,6.9657e-05,0
124.57,6.1601e-05,0
124.57,5.6565e-05,0
124.57,5.4047e-05,0
124.57,5.0187e-05,0
124.57,4.0116e-05,0
124.57,2.266e-05,0
124.57,5.0355e-06,0
124.57,-6.2104e-06,0
124.57,-1.2253e-05,0
124.57,-1.7624e-05,0
124.57,-1.9135e-05,0
124.57,-1.7121e-05,0
124.57,-1.4771e-05,0
124.57,-1.8799e-05,0
124.57,-2.9709e-05,0
124.57,-3.357e-05,0
124.57,-2.7024e-05,0
124.57,-2.182e-05,0
124.58,-2.3499e-05,0
124.58,-3.0549e-05,0
124.58,-3.6927e-05,0
124.58,-4.0452e-05,0
124.58,-4.2802e-05,0
124.58,-4.448e-05,0
124.58,-4.3641e-05,0
124.58,-3.8605e-05,0
124.58,-3.5752e-05,0
124.58,-3.508e-05,0
124.58,-3.122e-05,0
124.58,-2.4674e-05,0
124.58,-1.6953e-05,0
124.58,-4.1962e-06,0
124.58,2.3163e-05,0
124.58,5.6901e-05,0
124.58,8.04e-05,0
124.58,9.0806e-05,0
124.58,9.3156e-05,0
124.59,8.896e-05,0
124.59,7.8218e-05,0
124.59,6.3279e-05,0
124.59,4.8844e-05,0
124.59,3.9109e-05,0
124.59,3.4745e-05,0
124.59,3.3738e-05,0
124.59,3.2059e-05,0
124.59,2.8031e-05,0
124.59,2.031e-05,0
124.59,7.8889e-06,0
124.59,-5.539e-06,0
124.59,-1.6281e-05,0
124.59,-2.4338e-05,0
124.59,-3.0045e-05,0
124.59,-3.2563e-05,0
124.59,-2.7024e-05,0
124.59,-1.3764e-05,0
124.59,-8.896e-06,0
124.6,-1.6281e-05,0
124.6,-2.5849e-05,0
124.6,-3.0716e-05,0
124.6,-3.1556e-05,0
124.6,-2.5177e-05,0
124.6,-8.3925e-06,0
124.6,1.9135e-05,0
124.6,5.3208e-05,0
124.6,8.3253e-05,0
124.6,0.00010188,0
124.6,0.00010793,0
124.6,0.00010591,0
124.6,0.00010138,0
124.6,9.8192e-05,0
124.6,9.5674e-05,0
124.6,9.0806e-05,0
124.6,8.2078e-05,0
124.6,6.6133e-05,0
124.6,3.9445e-05,0
124.61,6.5461e-06,0
124.61,-2.2492e-05,0
124.61,-3.7766e-05,0
124.61,-4.0452e-05,0
124.61,-3.6759e-05,0
124.61,-2.9709e-05,0
124.61,-1.9974e-05,0
124.61,-7.0497e-06,0
124.61,1.1917e-05,0
124.61,3.3066e-05,0
124.61,5.153e-05,0
124.61,6.7308e-05,0
124.61,8.0232e-05,0
124.61,8.9296e-05,0
124.61,9.6513e-05,0
124.61,9.5842e-05,0
124.61,7.9728e-05,0
124.61,5.5894e-05,0
124.61,3.4745e-05,0
124.61,1.6617e-05,0
124.62,-1.6785e-06,0
124.62,-1.3092e-05,0
124.62,-6.2104e-06,0
124.62,1.3092e-05,0
124.62,2.4338e-05,0
124.62,1.561e-05,0
124.62,-8.0568e-06,0
124.62,-3.1388e-05,0
124.62,-4.4144e-05,0
124.62,-5.4047e-05,0
124.62,-7.1672e-05,0
124.62,-8.7785e-05,0
124.62,-8.51e-05,0
124.62,-6.479e-05,0
124.62,-3.8437e-05,0
124.62,-1.5274e-05,0
124.62,4.0284e-06,0
124.62,2.4338e-05,0
124.62,3.7095e-05,0
124.63,3.4745e-05,0
124.63,3.4409e-05,0
124.63,5.4047e-05,0
124.63,9.2821e-05,0
124.63,0.00012992,0
124.63,0.0001509,0
124.63,0.00015258,0
124.63,0.0001425,0
124.63,0.0001237,0
124.63,9.4499e-05,0
124.63,5.9419e-05,0
124.63,3.1556e-05,0
124.63,1.7456e-05,0
124.63,1.0575e-05,0
124.63,6.8818e-06,0
124.63,5.2033e-06,0
124.63,3.5248e-06,0
124.63,5.0355e-07,0
124.63,-5.8747e-06,0
124.64,-1.5946e-05,0
124.64,-2.7024e-05,0
124.64,-3.3402e-05,0
124.64,-3.8437e-05,0
124.64,-5.1026e-05,0
124.64,-7.5029e-05,0
124.64,-0.00010105,0
124.64,-0.00011447,0
124.64,-0.00010944,0
124.64,-9.0471e-05,0
124.64,-6.4454e-05,0
124.64,-3.8102e-05,0
124.64,-1.3931e-05,0
124.64,1.1749e-05,0
124.64,4.448e-05,0
124.64,7.9728e-05,0
124.64,0.00010927,0
124.64,0.00012908,0
124.64,0.00013646,0
124.64,0.00012975,0
124.65,0.00011313,0
124.65,9.0806e-05,0
124.65,6.7979e-05,0
124.65,5.0019e-05,0
124.65,3.6927e-05,0
124.65,2.7359e-05,0
124.65,1.8967e-05,0
124.65,7.3854e-06,0
124.65,-6.714e-06,0
124.65,-1.6617e-05,0
124.65,-2.031e-05,0
124.65,-1.9974e-05,0
124.65,-1.6953e-05,0
124.65,-1.2253e-05,0
124.65,-7.2175e-06,0
124.65,-4.5319e-06,0
124.65,-1.5106e-06,0
124.65,3.5248e-06,0
124.65,6.5461e-06,0
124.66,8.2246e-06,0
124.66,1.2421e-05,0
124.66,2.031e-05,0
124.66,2.7863e-05,0
124.66,3.3402e-05,0
124.66,3.6088e-05,0
124.66,3.6759e-05,0
124.66,3.7766e-05,0
124.66,4.1123e-05,0
124.66,4.5487e-05,0
124.66,4.2634e-05,0
124.66,3.1388e-05,0
124.66,2.1988e-05,0
124.66,1.6281e-05,0
124.66,1.0575e-05,0
124.66,4.3641e-06,0
124.66,2.5177e-06,0
124.66,4.6998e-06,0
124.66,5.8747e-06,0
124.67,4.5319e-06,0
124.67,2.182e-06,0
124.67,5.0355e-07,0
124.67,-1.5106e-06,0
124.67,-1.1749e-06,0
124.67,1.1749e-06,0
124.67,4.5319e-06,0
124.67,6.5461e-06,0
124.67,9.9031e-06,0
124.67,1.6617e-05,0
124.67,2.3499e-05,0
124.67,3.3402e-05,0
124.67,4.4648e-05,0
124.67,5.3544e-05,0
124.67,5.7237e-05,0
124.67,5.7572e-05,0
124.67,5.8244e-05,0
124.67,5.9586e-05,0
124.67,5.4887e-05,0
124.68,4.5151e-05,0
124.68,3.2563e-05,0
124.68,2.3331e-05,0
124.68,2.2995e-05,0
124.68,2.7192e-05,0
124.68,2.4338e-05,0
124.68,1.5106e-05,0
124.68,4.3641e-06,0
124.68,-1.6785e-06,0
124.68,8.3925e-07,0
124.68,9.5674e-06,0
124.68,1.3596e-05,0
124.68,9.2317e-06,0
124.68,2.182e-06,0
124.68,-4.5319e-06,0
124.68,-9.7353e-06,0
124.68,-1.2085e-05,0
124.68,-8.2246e-06,0
124.68,1.8463e-06,0
124.69,1.5274e-05,0
124.69,2.7024e-05,0
124.69,3.3402e-05,0
124.69,3.0716e-05,0
124.69,1.9806e-05,0
124.69,9.0639e-06,0
124.69,8.7282e-06,0
124.69,1.8967e-05,0
124.69,3.0884e-05,0
124.69,4.213e-05,0
124.69,5.2369e-05,0
124.69,5.8244e-05,0
124.69,6.1769e-05,0
124.69,6.2608e-05,0
124.69,6.0258e-05,0
124.69,5.7404e-05,0
124.69,5.6901e-05,0
124.69,5.5894e-05,0
124.69,5.1362e-05,0
124.69,4.3305e-05,0
124.7,2.9709e-05,0
124.7,1.8463e-05,0
124.7,1.326e-05,0
124.7,8.2246e-06,0
124.7,-3.357e-06,0
124.7,-1.6449e-05,0
124.7,-1.9974e-05,0
124.7,-1.6281e-05,0
124.7,-1.8296e-05,0
124.7,-2.5681e-05,0
124.7,-3.2898e-05,0
124.7,-3.7934e-05,0
124.7,-3.9612e-05,0
124.7,-4.0787e-05,0
124.7,-4.3809e-05,0
124.7,-4.2298e-05,0
124.7,-2.3667e-05,0
124.7,9.9031e-06,0
124.7,4.2634e-05,0
124.71,6.7475e-05,0
124.71,9.1142e-05,0
124.71,0.00010961,0
124.71,0.00011431,0
124.71,0.0001039,0
124.71,8.5603e-05,0
124.71,6.3111e-05,0
124.71,3.6927e-05,0
124.71,9.3996e-06,0
124.71,-1.2085e-05,0
124.71,-2.3499e-05,0
124.71,-3.1388e-05,0
124.71,-3.5752e-05,0
124.71,-3.5416e-05,0
124.71,-3.0045e-05,0
124.71,-1.8967e-05,0
124.71,-7.0497e-06,0
124.71,5.539e-06,0
124.71,1.8296e-05,0
124.72,3.0045e-05,0
124.72,4.213e-05,0
124.72,4.5151e-05,0
124.72,3.9109e-05,0
124.72,3.7766e-05,0
124.72,4.6159e-05,0
124.72,5.9251e-05,0
124.72,7.0665e-05,0
124.72,7.7211e-05,0
124.72,7.6371e-05,0
124.72,6.6972e-05,0
124.72,5.539e-05,0
124.72,4.4648e-05,0
124.72,3.3738e-05,0
124.72,2.5345e-05,0
124.72,1.9303e-05,0
124.72,1.2253e-05,0
124.72,2.182e-06,0
124.72,-1.2253e-05,0
124.72,-2.7359e-05,0
124.73,-4.0116e-05,0
124.73,-5.388e-05,0
124.73,-6.9993e-05,0
124.73,-8.7449e-05,0
124.73,-0.00010088,0
124.73,-0.00010071,0
124.73,-8.9799e-05,0
124.73,-7.2847e-05,0
124.73,-5.0858e-05,0
124.73,-2.4674e-05,0
124.73,5.539e-06,0
124.73,3.8437e-05,0
124.73,7.1e-05,0
124.73,0.00010188,0
124.73,0.00012857,0
124.73,0.00014267,0
124.73,0.0001467,0
124.73,0.00014418,0
124.73,0.00012908,0
124.74,9.9031e-05,0
124.74,6.3783e-05,0
124.74,4.0116e-05,0
124.74,2.9374e-05,0
124.74,2.0142e-05,0
124.74,8.5603e-06,0
124.74,8.3925e-07,0
124.74,-2.8534e-06,0
124.74,-6.5461e-06,0
124.74,-1.1917e-05,0
124.74,-1.8967e-05,0
124.74,-2.6352e-05,0
124.74,-3.1388e-05,0
124.74,-3.3738e-05,0
124.74,-3.1388e-05,0
124.74,-2.8534e-05,0
124.74,-2.3667e-05,0
124.74,-1.561e-05,0
124.74,-3.8605e-06,0
124.75,8.0568e-06,0
124.75,1.7624e-05,0
124.75,2.6352e-05,0
124.75,3.6088e-05,0
124.75,4.5151e-05,0
124.75,5.1194e-05,0
124.75,5.1865e-05,0
124.75,5.2537e-05,0
124.75,5.5894e-05,0
124.75,6.3951e-05,0
124.75,7.335e-05,0
124.75,7.3854e-05,0
124.75,6.1936e-05,0
124.75,4.3137e-05,0
124.75,2.5345e-05,0
124.75,7.8889e-06,0
124.75,-9.2317e-06,0
124.75,-1.8296e-05,0
124.75,-1.9806e-05,0
124.76,-1.9638e-05,0
124.76,-2.2156e-05,0
124.76,-2.3667e-05,0
124.76,-2.1988e-05,0
124.76,-2.2995e-05,0
124.76,-1.8631e-05,0
124.76,1.1749e-06,0
124.76,2.9709e-05,0
124.76,5.2201e-05,0
124.76,6.244e-05,0
124.76,6.7308e-05,0
124.76,7.3518e-05,0
124.76,7.9728e-05,0
124.76,7.9057e-05,0
124.76,7.2679e-05,0
124.76,6.5461e-05,0
124.76,5.7908e-05,0
124.76,3.9445e-05,0
124.76,1.3428e-05,0
124.76,-4.3641e-06,0
124.77,-9.2317e-06,0
124.77,-7.2175e-06,0
124.77,-3.0213e-06,0
124.77,3.8605e-06,0
124.77,1.1582e-05,0
124.77,1.561e-05,0
124.77,1.6953e-05,0
124.77,1.7288e-05,0
124.77,1.8631e-05,0
124.77,2.266e-05,0
124.77,2.501e-05,0
124.77,1.8967e-05,0
124.77,7.8889e-06,0
124.77,-1.6785e-06,0
124.77,-1.0575e-05,0
124.77,-1.6281e-05,0
124.77,-1.1749e-05,0
124.77,1.8463e-06,0
124.77,1.7288e-05,0
124.78,3.122e-05,0
124.78,4.2298e-05,0
124.78,4.683e-05,0
124.78,4.2466e-05,0
124.78,3.0045e-05,0
124.78,1.6114e-05,0
124.78,2.3499e-06,0
124.78,-1.1414e-05,0
124.78,-2.2324e-05,0
124.78,-3.2395e-05,0
124.78,-3.9612e-05,0
124.78,-3.6759e-05,0
124.78,-2.2492e-05,0
124.78,-4.3641e-06,0
124.78,9.5674e-06,0
124.78,1.8128e-05,0
124.78,2.3667e-05,0
124.78,3.122e-05,0
124.78,4.2298e-05,0
124.79,5.3544e-05,0
124.79,5.9419e-05,0
124.79,6.5293e-05,0
124.79,7.1336e-05,0
124.79,6.8818e-05,0
124.79,5.7572e-05,0
124.79,4.0116e-05,0
124.79,2.0813e-05,0
124.79,1.1749e-06,0
124.79,-1.4099e-05,0
124.79,-1.9638e-05,0
124.79,-1.796e-05,0
124.79,-1.2253e-05,0
124.79,1.5106e-06,0
124.79,1.6449e-05,0
124.79,2.266e-05,0
124.79,1.8967e-05,0
124.79,1.6617e-05,0
124.79,2.5177e-05,0
124.8,3.5416e-05,0
124.8,4.0284e-05,0
124.8,4.4648e-05,0
124.8,5.2705e-05,0
124.8,5.9251e-05,0
124.8,6.4286e-05,0
124.8,6.6972e-05,0
124.8,6.9322e-05,0
124.8,7.9057e-05,0
124.8,9.601e-05,0
124.8,0.00010524,0
124.8,9.5003e-05,0
124.8,6.8315e-05,0
124.8,3.8102e-05,0
124.8,1.2421e-05,0
124.8,-1.0239e-05,0
124.8,-3.0381e-05,0
124.8,-4.4144e-05,0
124.8,-5.0187e-05,0
124.8,-4.8005e-05,0
124.81,-3.8437e-05,0
124.81,-2.4002e-05,0
124.81,-8.2246e-06,0
124.81,4.3641e-06,0
124.81,8.0568e-06,0
124.81,3.5248e-06,0
124.81,5.0355e-07,0
124.81,8.5603e-06,0
124.81,2.3835e-05,0
124.81,3.8102e-05,0
124.81,4.4144e-05,0
124.81,3.7095e-05,0
124.81,2.5681e-05,0
124.81,2.1317e-05,0
124.81,2.0981e-05,0
124.81,1.5778e-05,0
124.81,3.5248e-06,0
124.81,-1.1582e-05,0
124.81,-2.501e-05,0
124.82,-3.3906e-05,0
124.82,-4.1123e-05,0
124.82,-4.7669e-05,0
124.82,-5.3544e-05,0
124.82,-5.8915e-05,0
124.82,-5.6733e-05,0
124.82,-4.4144e-05,0
124.82,-2.5345e-05,0
124.82,-4.1962e-06,0
124.82,1.326e-05,0
124.82,1.7624e-05,0
124.82,1.1246e-05,0
124.82,7.2175e-06,0
124.82,1.2589e-05,0
124.82,2.8031e-05,0
124.82,4.1794e-05,0
124.82,4.448e-05,0
124.82,3.9612e-05,0
124.82,3.4745e-05,0
124.83,3.2563e-05,0
124.83,3.2059e-05,0
124.83,3.4745e-05,0
124.83,4.5823e-05,0
124.83,6.1936e-05,0
124.83,7.6371e-05,0
124.83,8.5771e-05,0
124.83,9.4331e-05,0
124.83,0.00010054,0
124.83,0.00010491,0
124.83,9.9199e-05,0
124.83,7.2679e-05,0
124.83,3.6591e-05,0
124.83,6.8818e-06,0
124.83,-1.6281e-05,0
124.83,-3.2731e-05,0
124.83,-4.5151e-05,0
124.83,-6.3615e-05,0
124.83,-9.3492e-05,0
124.83,-0.00012068,0
124.84,-0.00012605,0
124.84,-0.00010692,0
124.84,-7.4693e-05,0
124.84,-3.8605e-05,0
124.84,-5.0355e-07,0
124.84,4.062e-05,0
124.84,8.2246e-05,0
124.84,0.00011028,0
124.84,0.00012555,0
124.84,0.00015258,0
124.84,0.00019991,0
124.84,0.00023818,0
124.84,0.00023482,0
124.84,0.0001994,0
124.84,0.00015291,0
124.84,0.00010491,0
124.84,6.2776e-05,0
124.84,3.6927e-05,0
124.84,2.6688e-05,0
124.85,2.0478e-05,0
124.85,7.5532e-06,0
124.85,-9.7353e-06,0
124.85,-2.6352e-05,0
124.85,-4.1794e-05,0
124.85,-5.304e-05,0
124.85,-5.623e-05,0
124.85,-4.9851e-05,0
124.85,-3.743e-05,0
124.85,-2.8534e-05,0
124.85,-2.9709e-05,0
124.85,-3.9109e-05,0
124.85,-4.0787e-05,0
124.85,-2.8199e-05,0
124.85,-6.2104e-06,0
124.85,1.7624e-05,0
124.85,3.6088e-05,0
124.85,4.0787e-05,0
124.85,3.0716e-05,0
124.86,1.7121e-05,0
124.86,1.5106e-05,0
124.86,2.1317e-05,0
124.86,2.6352e-05,0
124.86,2.8702e-05,0
124.86,3.0884e-05,0
124.86,3.0549e-05,0
124.86,2.4002e-05,0
124.86,1.1246e-05,0
124.86,-2.8534e-06,0
124.86,-1.2924e-05,0
124.86,-1.5274e-05,0
124.86,-1.326e-05,0
124.86,-9.2317e-06,0
124.86,-6.5461e-06,0
124.86,-1.8463e-06,0
124.86,7.5532e-06,0
124.86,1.8296e-05,0
124.86,2.6017e-05,0
124.87,2.9541e-05,0
124.87,3.0716e-05,0
124.87,3.4745e-05,0
124.87,4.0116e-05,0
124.87,4.213e-05,0
124.87,3.8773e-05,0
124.87,3.0045e-05,0
124.87,1.6953e-05,0
124.87,5.539e-06,0
124.87,1.6785e-07,0
124.87,1.1749e-06,0
124.87,2.3499e-06,0
124.87,1.6785e-06,0
124.87,5.0355e-07,0
124.87,1.5106e-06,0
124.87,8.2246e-06,0
124.87,1.5946e-05,0
124.87,2.266e-05,0
124.87,3.1556e-05,0
124.88,4.3809e-05,0
124.88,5.4215e-05,0
124.88,6.1601e-05,0
124.88,6.2272e-05,0
124.88,5.4719e-05,0
124.88,4.3305e-05,0
124.88,3.1724e-05,0
124.88,1.6617e-05,0
124.88,-1.6785e-06,0
124.88,-2.0645e-05,0
124.88,-3.8773e-05,0
124.88,-5.4551e-05,0
124.88,-6.5293e-05,0
124.88,-6.8986e-05,0
124.88,-6.949e-05,0
124.88,-6.1936e-05,0
124.88,-4.6662e-05,0
124.88,-3.5416e-05,0
124.88,-2.8367e-05,0
124.88,-1.8631e-05,0
124.89,-1.091e-05,0
124.89,-1.4771e-05,0
124.89,-2.3163e-05,0
124.89,-1.796e-05,0
124.89,7.3854e-06,0
124.89,4.2802e-05,0
124.89,7.9057e-05,0
124.89,0.00010222,0
124.89,0.00010877,0
124.89,0.00010726,0
124.89,0.00010205,0
124.89,9.9535e-05,0
124.89,9.9535e-05,0
124.89,9.0135e-05,0
124.89,7.0832e-05,0
124.89,4.213e-05,0
124.89,2.0142e-06,0
124.89,-3.7934e-05,0
124.89,-7.2511e-05,0
124.9,-0.0001044,0
124.9,-0.00012538,0
124.9,-0.00012656,0
124.9,-0.00010155,0
124.9,-4.8508e-05,0
124.9,1.9974e-05,0
124.9,8.2414e-05,0
124.9,0.00012203,0
124.9,0.00013277,0
124.9,0.0001279,0
124.9,0.00012857,0
124.9,0.00013747,0
124.9,0.00015341,0
124.9,0.00018648,0
124.9,0.00023281,0
124.9,0.00025631,0
124.9,0.00023113,0
124.9,0.00016466,0
124.9,9.1646e-05,0
124.91,4.2466e-05,0
124.91,2.2156e-05,0
124.91,1.8631e-05,0
124.91,1.6281e-05,0
124.91,1.4603e-05,0
124.91,1.796e-05,0
124.91,1.6785e-05,0
124.91,-1.3428e-06,0
124.91,-3.0381e-05,0
124.91,-5.7572e-05,0
124.91,-7.4693e-05,0
124.91,-8.1071e-05,0
124.91,-8.2078e-05,0
124.91,-8.1407e-05,0
124.91,-7.7043e-05,0
124.91,-6.6133e-05,0
124.91,-5.4383e-05,0
124.91,-5.4047e-05,0
124.91,-6.3279e-05,0
124.92,-6.6133e-05,0
124.92,-5.4551e-05,0
124.92,-3.9612e-05,0
124.92,-3.6591e-05,0
124.92,-4.3305e-05,0
124.92,-4.5151e-05,0
124.92,-2.9877e-05,0
124.92,6.714e-07,0
124.92,3.4073e-05,0
124.92,6.4118e-05,0
124.92,8.5771e-05,0
124.92,9.6513e-05,0
124.92,9.9702e-05,0
124.92,0.00010793,0
124.92,0.0001237,0
124.92,0.00013613,0
124.92,0.0001378,0
124.92,0.00012438,0
124.92,9.6345e-05,0
124.92,6.5797e-05,0
124.93,4.1459e-05,0
124.93,2.0981e-05,0
124.93,5.0355e-07,0
124.93,-1.4771e-05,0
124.93,-2.0645e-05,0
124.93,-1.8967e-05,0
124.93,-1.8128e-05,0
124.93,-2.1317e-05,0
124.93,-2.7863e-05,0
124.93,-3.3066e-05,0
124.93,-3.3066e-05,0
124.93,-2.8367e-05,0
124.93,-1.9638e-05,0
124.93,-1.5274e-05,0
124.93,-1.9974e-05,0
124.93,-2.5681e-05,0
124.93,-3.2395e-05,0
124.93,-3.9445e-05,0
124.93,-4.6326e-05,0
124.94,-5.5222e-05,0
124.94,-6.479e-05,0
124.94,-7.0832e-05,0
124.94,-7.2847e-05,0
124.94,-7.4022e-05,0
124.94,-7.57e-05,0
124.94,-7.805e-05,0
124.94,-7.7043e-05,0
124.94,-7.0832e-05,0
124.94,-5.2537e-05,0
124.94,-2.1988e-05,0
124.94,1.1917e-05,0
124.94,4.213e-05,0
124.94,6.244e-05,0
124.94,7.4022e-05,0
124.94,8.9128e-05,0
124.94,0.0001086,0
124.94,0.00012001,0
124.94,0.00011867,0
124.95,0.00011196,0
124.95,0.00010994,0
124.95,0.00010826,0
124.95,9.9199e-05,0
124.95,8.2246e-05,0
124.95,5.9586e-05,0
124.95,3.7934e-05,0
124.95,2.6352e-05,0
124.95,2.7192e-05,0
124.95,3.4409e-05,0
124.95,3.7095e-05,0
124.95,3.5248e-05,0
124.95,3.6423e-05,0
124.95,4.0116e-05,0
124.95,2.8031e-05,0
124.95,-5.0355e-07,0
124.95,-2.6352e-05,0
124.95,-3.5752e-05,0
124.95,-3.0884e-05,0
124.95,-2.3667e-05,0
124.96,-1.9806e-05,0
124.96,-1.1582e-05,0
124.96,7.8889e-06,0
124.96,3.4409e-05,0
124.96,6.5629e-05,0
124.96,0.00010021,0
124.96,0.00013378,0
124.96,0.00016332,0
124.96,0.00018581,0
124.96,0.00019051,0
124.96,0.00015929,0
124.96,9.987e-05,0
124.96,4.3473e-05,0
124.96,9.5674e-06,0
124.96,-4.1962e-06,0
124.96,-7.5532e-06,0
124.96,-5.7069e-06,0
124.96,-3.5248e-06,0
124.96,-6.5461e-06,0
124.97,-1.2589e-05,0
124.97,-1.326e-05,0
124.97,-6.2104e-06,0
124.97,2.182e-06,0
124.97,6.8818e-06,0
124.97,6.5461e-06,0
124.97,8.3925e-07,0
124.97,-8.7282e-06,0
124.97,-2.2324e-05,0
124.97,-3.978e-05,0
124.97,-5.774e-05,0
124.97,-7.6036e-05,0
124.97,-8.275e-05,0
124.97,-7.4861e-05,0
124.97,-6.7308e-05,0
124.97,-6.1097e-05,0
124.97,-4.7669e-05,0
124.97,-2.3499e-05,0
124.97,5.7069e-06,0
124.98,4.448e-05,0
124.98,8.7449e-05,0
124.98,0.00010826,0
124.98,9.9535e-05,0
124.98,7.7546e-05,0
124.98,5.6901e-05,0
124.98,4.213e-05,0
124.98,3.2059e-05,0
124.98,2.4674e-05,0
124.98,2.1317e-05,0
124.98,2.5681e-05,0
124.98,3.978e-05,0
124.98,5.5558e-05,0
124.98,6.0258e-05,0
124.98,5.5726e-05,0
124.98,4.7669e-05,0
124.98,3.357e-05,0
124.98,1.5442e-05,0
124.98,5.0355e-07,0
124.99,-5.8747e-06,0
124.99,-5.2033e-06,0
124.99,-2.8534e-06,0
124.99,-3.357e-06,0
124.99,-3.5248e-06,0
124.99,-1.5106e-06,0
124.99,-2.5177e-06,0
124.99,-6.5461e-06,0
124.99,-8.5603e-06,0
124.99,-7.0497e-06,0
124.99,-7.7211e-06,0
124.99,-1.0239e-05,0
124.99,-9.5674e-06,0
124.99,-3.5248e-06,0
124.99,3.1891e-06,0
124.99,5.8747e-06,0
124.99,2.5177e-06,0
124.99,-4.1962e-06,0
124.99,-8.7282e-06,0
124.99,-7.2175e-06,0
125,-1.5106e-06,0
125,4.1962e-06,0
125,5.2033e-06,0
125,2.5177e-06,0
125,-5.0355e-07,0
125,-3.1891e-06,0
125,-8.896e-06,0
125,-1.4603e-05,0
125,-1.3764e-05,0
125,-5.3712e-06,0
125,3.8605e-06,0
125,9.9031e-06,0
125,1.0575e-05,0
125,8.5603e-06,0
125,8.5603e-06,0
125,1.6617e-05,0
125,3.4073e-05,0
125,5.3208e-05,0
125,6.6972e-05,0
125.01,7.9393e-05,0
125.01,9.4163e-05,0
125.01,0.00010608,0
125.01,0.00010121,0
125.01,7.6036e-05,0
125.01,4.2802e-05,0
125.01,1.5946e-05,0
125.01,-8.3925e-07,0
125.01,-1.3764e-05,0
125.01,-3.1388e-05,0
125.01,-5.5558e-05,0
125.01,-8.0735e-05,0
125.01,-9.6513e-05,0
125.01,-9.6849e-05,0
125.01,-8.3925e-05,0
125.01,-6.1433e-05,0
125.01,-3.2395e-05,0
125.01,2.5177e-06,0
125.01,4.2634e-05,0
125.02,8.3085e-05,0
125.02,0.00012136,0
125.02,0.00015694,0
125.02,0.00019185,0
125.02,0.00021938,0
125.02,0.00022744,0
125.02,0.00021569,0
125.02,0.00019084,0
125.02,0.00015023,0
125.02,9.5842e-05,0
125.02,4.5823e-05,0
125.02,1.796e-05,0
125.02,6.714e-06,0
125.02,-1.6785e-07,0
125.02,-5.539e-06,0
125.02,-3.5248e-06,0
125.02,1.091e-05,0
125.02,3.122e-05,0
125.02,4.683e-05,0
125.03,5.8915e-05,0
125.03,7.4357e-05,0
125.03,9.3828e-05,0
125.03,0.00010893,0
125.03,0.00010591,0
125.03,8.4428e-05,0
125.03,5.3544e-05,0
125.03,2.5513e-05,0
125.03,4.5319e-06,0
125.03,-1.1582e-05,0
125.03,-2.4338e-05,0
125.03,-3.3402e-05,0
125.03,-3.6423e-05,0
125.03,-3.9445e-05,0
125.03,-4.213e-05,0
125.03,-4.0116e-05,0
125.03,-3.2731e-05,0
125.03,-2.5177e-05,0
125.03,-2.266e-05,0
125.03,-2.4338e-05,0
125.04,-2.8702e-05,0
125.04,-3.5248e-05,0
125.04,-4.2969e-05,0
125.04,-4.7501e-05,0
125.04,-4.4144e-05,0
125.04,-3.2395e-05,0
125.04,-1.8631e-05,0
125.04,-9.5674e-06,0
125.04,-9.7353e-06,0
125.04,-1.7624e-05,0
125.04,-2.7359e-05,0
125.04,-3.5584e-05,0
125.04,-4.1123e-05,0
125.04,-4.3473e-05,0
125.04,-4.5991e-05,0
125.04,-5.153e-05,0
125.04,-5.153e-05,0
125.04,-4.2298e-05,0
125.04,-2.9709e-05,0
125.05,-1.6617e-05,0
125.05,-4.8676e-06,0
125.05,6.3783e-06,0
125.05,1.6449e-05,0
125.05,2.6688e-05,0
125.05,3.7263e-05,0
125.05,4.3809e-05,0
125.05,4.6159e-05,0
125.05,5.5894e-05,0
125.05,7.5364e-05,0
125.05,8.9967e-05,0
125.05,9.4835e-05,0
125.05,9.4163e-05,0
125.05,8.9799e-05,0
125.05,8.4428e-05,0
125.05,6.7643e-05,0
125.05,4.1291e-05,0
125.05,1.796e-05,0
125.05,1.8463e-06,0
125.06,-1.3931e-05,0
125.06,-3.2898e-05,0
125.06,-4.6494e-05,0
125.06,-5.1194e-05,0
125.06,-4.6998e-05,0
125.06,-3.7095e-05,0
125.06,-2.8367e-05,0
125.06,-2.182e-05,0
125.06,-1.9303e-05,0
125.06,-1.7792e-05,0
125.06,-1.4435e-05,0
125.06,-8.7282e-06,0
125.06,0,0
125.06,1.091e-05,0
125.06,1.6281e-05,0
125.06,9.0639e-06,0
125.06,-1.8463e-06,0
125.06,2.182e-06,0
125.06,2.4002e-05,0
125.06,4.683e-05,0
125.07,5.7908e-05,0
125.07,5.5558e-05,0
125.07,4.8676e-05,0
125.07,4.5151e-05,0
125.07,4.4648e-05,0
125.07,4.448e-05,0
125.07,3.978e-05,0
125.07,2.8031e-05,0
125.07,1.1246e-05,0
125.07,-1.3428e-06,0
125.07,-8.2246e-06,0
125.07,-1.1749e-05,0
125.07,-7.2175e-06,0
125.07,6.5461e-06,0
125.07,2.3163e-05,0
125.07,3.6423e-05,0
125.07,4.6494e-05,0
125.07,5.153e-05,0
125.07,5.5558e-05,0
125.08,6.8986e-05,0
125.08,9.0471e-05,0
125.08,0.00010994,0
125.08,0.00011246,0
125.08,9.2821e-05,0
125.08,6.1097e-05,0
125.08,2.9038e-05,0
125.08,5.2033e-06,0
125.08,-2.6856e-06,0
125.08,5.2033e-06,0
125.08,2.0478e-05,0
125.08,3.5752e-05,0
125.08,5.304e-05,0
125.08,6.9154e-05,0
125.08,7.9561e-05,0
125.08,8.8457e-05,0
125.08,9.5506e-05,0
125.08,9.9031e-05,0
125.08,0.00010021,0
125.09,9.6345e-05,0
125.09,8.7114e-05,0
125.09,6.8818e-05,0
125.09,3.3066e-05,0
125.09,-1.4939e-05,0
125.09,-5.6733e-05,0
125.09,-7.9393e-05,0
125.09,-8.6778e-05,0
125.09,-8.4764e-05,0
125.09,-7.6371e-05,0
125.09,-6.7308e-05,0
125.09,-6.2272e-05,0
125.09,-6.4958e-05,0
125.09,-6.9154e-05,0
125.09,-6.1265e-05,0
125.09,-3.2395e-05,0
125.09,9.2317e-06,0
125.09,5.3544e-05,0
125.09,9.6178e-05,0
125.1,0.00013075,0
125.1,0.00014435,0
125.1,0.00013713,0
125.1,0.00012941,0
125.1,0.00013394,0
125.1,0.00014452,0
125.1,0.00015157,0
125.1,0.00014871,0
125.1,0.0001274,0
125.1,9.2485e-05,0
125.1,6.2943e-05,0
125.1,4.7669e-05,0
125.1,3.5752e-05,0
125.1,2.1988e-05,0
125.1,9.2317e-06,0
125.1,-1.5106e-06,0
125.1,-1.3764e-05,0
125.1,-3.1052e-05,0
125.1,-5.5222e-05,0
125.11,-8.04e-05,0
125.11,-9.6178e-05,0
125.11,-9.987e-05,0
125.11,-9.4499e-05,0
125.11,-8.4092e-05,0
125.11,-7.57e-05,0
125.11,-6.865e-05,0
125.11,-5.9922e-05,0
125.11,-5.388e-05,0
125.11,-5.3376e-05,0
125.11,-5.539e-05,0
125.11,-5.2873e-05,0
125.11,-3.827e-05,0
125.11,-1.5946e-05,0
125.11,-5.0355e-07,0
125.11,5.2033e-06,0
125.11,7.3854e-06,0
125.11,9.2317e-06,0
125.11,1.2589e-05,0
125.11,2.3331e-05,0
125.12,3.9445e-05,0
125.12,5.2537e-05,0
125.12,6.1265e-05,0
125.12,6.1601e-05,0
125.12,5.4551e-05,0
125.12,3.5416e-05,0
125.12,7.8889e-06,0
125.12,-8.896e-06,0
125.12,-6.8818e-06,0
125.12,1.5106e-06,0
125.12,4.1962e-06,0
125.12,-5.0355e-07,0
125.12,-6.714e-07,0
125.12,6.3783e-06,0
125.12,1.3931e-05,0
125.12,2.5681e-05,0
125.12,3.8102e-05,0
125.12,4.3305e-05,0
125.12,4.0955e-05,0
125.13,3.8605e-05,0
125.13,4.0116e-05,0
125.13,4.2466e-05,0
125.13,4.1794e-05,0
125.13,3.4745e-05,0
125.13,2.3331e-05,0
125.13,1.4435e-05,0
125.13,9.5674e-06,0
125.13,6.8818e-06,0
125.13,2.5177e-06,0
125.13,-2.8534e-06,0
125.13,-5.0355e-06,0
125.13,-8.2246e-06,0
125.13,-1.5106e-05,0
125.13,-1.8631e-05,0
125.13,-1.3596e-05,0
125.13,-4.8676e-06,0
125.13,1.0071e-06,0
125.13,2.182e-06,0
125.14,4.8676e-06,0
125.14,1.2421e-05,0
125.14,2.6352e-05,0
125.14,4.2802e-05,0
125.14,5.9922e-05,0
125.14,7.4357e-05,0
125.14,8.7114e-05,0
125.14,9.8695e-05,0
125.14,0.00010289,0
125.14,9.4835e-05,0
125.14,7.6371e-05,0
125.14,5.8915e-05,0
125.14,4.9516e-05,0
125.14,4.0955e-05,0
125.14,2.8702e-05,0
125.14,1.2589e-05,0
125.14,-7.3854e-06,0
125.14,-2.652e-05,0
125.14,-3.8773e-05,0
125.14,-4.2634e-05,0
125.15,-3.6591e-05,0
125.15,-2.0478e-05,0
125.15,-4.5319e-06,0
125.15,1.6785e-07,0
125.15,-2.8534e-06,0
125.15,-2.182e-06,0
125.15,1.2757e-05,0
125.15,3.8102e-05,0
125.15,6.6972e-05,0
125.15,9.5842e-05,0
125.15,0.000118,0
125.15,0.00012169,0
125.15,0.0001133,0
125.15,0.00010843,0
125.15,0.00011128,0
125.15,0.00011263,0
125.15,0.0001034,0
125.15,8.4092e-05,0
125.15,5.8915e-05,0
125.16,3.2731e-05,0
125.16,8.7282e-06,0
125.16,-1.1246e-05,0
125.16,-2.7192e-05,0
125.16,-4.0955e-05,0
125.16,-5.2537e-05,0
125.16,-6.2943e-05,0
125.16,-7.5196e-05,0
125.16,-8.5267e-05,0
125.16,-8.8624e-05,0
125.16,-8.5603e-05,0
125.16,-7.4022e-05,0
125.16,-5.6733e-05,0
125.16,-4.3809e-05,0
125.16,-4.1962e-05,0
125.16,-4.0787e-05,0
125.16,-2.9709e-05,0
125.16,-6.8818e-06,0
125.16,2.4842e-05,0
125.17,5.9586e-05,0
125.17,8.5771e-05,0
125.17,9.601e-05,0
125.17,9.6178e-05,0
125.17,9.3828e-05,0
125.17,8.896e-05,0
125.17,8.3589e-05,0
125.17,8.9799e-05,0
125.17,0.00010658,0
125.17,0.00011347,0
125.17,0.00010088,0
125.17,7.9561e-05,0
125.17,5.9754e-05,0
125.17,4.3137e-05,0
125.17,3.0716e-05,0
125.17,2.2324e-05,0
125.17,2.0645e-05,0
125.17,2.0645e-05,0
125.17,1.8799e-05,0
125.18,1.6953e-05,0
125.18,1.3764e-05,0
125.18,6.3783e-06,0
125.18,-6.5461e-06,0
125.18,-2.1485e-05,0
125.18,-3.0884e-05,0
125.18,-3.6423e-05,0
125.18,-4.2634e-05,0
125.18,-4.6494e-05,0
125.18,-3.7766e-05,0
125.18,-2.1149e-05,0
125.18,-8.0568e-06,0
125.18,0,0
125.18,1.5106e-06,0
125.18,-1.5106e-06,0
125.18,-5.0355e-06,0
125.18,-4.6998e-06,0
125.18,5.8747e-06,0
125.18,2.5177e-05,0
125.19,4.0452e-05,0
125.19,4.8173e-05,0
125.19,5.5222e-05,0
125.19,6.0594e-05,0
125.19,5.0858e-05,0
125.19,2.031e-05,0
125.19,-1.4435e-05,0
125.19,-3.6255e-05,0
125.19,-4.7166e-05,0
125.19,-5.0523e-05,0
125.19,-4.6494e-05,0
125.19,-3.5416e-05,0
125.19,-2.1988e-05,0
125.19,-1.091e-05,0
125.19,-4.8676e-06,0
125.19,5.0355e-07,0
125.19,1.5778e-05,0
125.19,4.0955e-05,0
125.19,6.6804e-05,0
125.19,8.5771e-05,0
125.2,8.9464e-05,0
125.2,7.9561e-05,0
125.2,6.5965e-05,0
125.2,5.4887e-05,0
125.2,4.8173e-05,0
125.2,4.2802e-05,0
125.2,3.5416e-05,0
125.2,2.6688e-05,0
125.2,2.031e-05,0
125.2,1.5274e-05,0
125.2,8.5603e-06,0
125.2,1.1749e-06,0
125.2,-5.2033e-06,0
125.2,-9.5674e-06,0
125.2,-1.4939e-05,0
125.2,-2.1988e-05,0
125.2,-2.7695e-05,0
125.2,-2.9374e-05,0
125.2,-2.7192e-05,0
125.21,-2.4674e-05,0
125.21,-2.3835e-05,0
125.21,-1.6953e-05,0
125.21,-1.5106e-06,0
125.21,1.5274e-05,0
125.21,2.5849e-05,0
125.21,3.2059e-05,0
125.21,3.8102e-05,0
125.21,4.2466e-05,0
125.21,4.3305e-05,0
125.21,3.9948e-05,0
125.21,3.4073e-05,0
125.21,3.2395e-05,0
125.21,3.3738e-05,0
125.21,3.9445e-05,0
125.21,5.0858e-05,0
125.21,6.2943e-05,0
125.21,6.8818e-05,0
125.21,6.4958e-05,0
125.22,5.8747e-05,0
125.22,5.4215e-05,0
125.22,4.9516e-05,0
125.22,4.6494e-05,0
125.22,4.3137e-05,0
125.22,3.743e-05,0
125.22,2.9038e-05,0
125.22,1.9974e-05,0
125.22,1.5778e-05,0
125.22,1.6617e-05,0
125.22,1.7121e-05,0
125.22,1.1917e-05,0
125.22,1.8463e-06,0
125.22,-7.3854e-06,0
125.22,-1.5442e-05,0
125.22,-1.8967e-05,0
125.22,-1.3596e-05,0
125.22,-2.3499e-06,0
125.22,1.0407e-05,0
125.22,2.0813e-05,0
125.23,2.8367e-05,0
125.23,3.8437e-05,0
125.23,5.0355e-05,0
125.23,6.0929e-05,0
125.23,7.4189e-05,0
125.23,9.5506e-05,0
125.23,0.00011699,0
125.23,0.00012068,0
125.23,0.00010105,0
125.23,7.2343e-05,0
125.23,4.7501e-05,0
125.23,2.8031e-05,0
125.23,1.3931e-05,0
125.23,2.8534e-06,0
125.23,-6.2104e-06,0
125.23,-1.2757e-05,0
125.23,-2.031e-05,0
125.23,-3.0045e-05,0
125.23,-4.2466e-05,0
125.24,-5.3544e-05,0
125.24,-5.9419e-05,0
125.24,-5.9922e-05,0
125.24,-5.7404e-05,0
125.24,-4.918e-05,0
125.24,-3.3738e-05,0
125.24,-1.6281e-05,0
125.24,-3.1891e-06,0
125.24,9.7353e-06,0
125.24,2.6184e-05,0
125.24,5.0019e-05,0
125.24,7.2343e-05,0
125.24,7.8386e-05,0
125.24,6.6468e-05,0
125.24,4.6159e-05,0
125.24,3.0381e-05,0
125.24,2.0645e-05,0
125.24,1.4099e-05,0
125.24,9.7353e-06,0
125.25,5.2033e-06,0
125.25,4.6998e-06,0
125.25,6.5461e-06,0
125.25,6.2104e-06,0
125.25,4.3641e-06,0
125.25,7.2175e-06,0
125.25,1.2253e-05,0
125.25,1.6617e-05,0
125.25,2.1149e-05,0
125.25,2.652e-05,0
125.25,2.9709e-05,0
125.25,2.9374e-05,0
125.25,2.9374e-05,0
125.25,2.9206e-05,0
125.25,2.3667e-05,0
125.25,1.1917e-05,0
125.25,3.1891e-06,0
125.25,1.6785e-07,0
125.25,-2.182e-06,0
125.26,-6.2104e-06,0
125.26,-1.091e-05,0
125.26,-1.1917e-05,0
125.26,-8.896e-06,0
125.26,-5.2033e-06,0
125.26,-3.1891e-06,0
125.26,-1.0071e-06,0
125.26,-1.1749e-06,0
125.26,-6.2104e-06,0
125.26,-1.0239e-05,0
125.26,-7.2175e-06,0
125.26,1.8463e-06,0
125.26,1.0575e-05,0
125.26,1.5274e-05,0
125.26,1.3931e-05,0
125.26,8.896e-06,0
125.26,6.3783e-06,0
125.26,7.8889e-06,0
125.26,1.0575e-05,0
125.26,1.3596e-05,0
125.27,1.5442e-05,0
125.27,1.7288e-05,0
125.27,2.1317e-05,0
125.27,2.5345e-05,0
125.27,2.9709e-05,0
125.27,3.8941e-05,0
125.27,5.0187e-05,0
125.27,6.009e-05,0
125.27,6.5965e-05,0
125.27,6.6133e-05,0
125.27,6.0929e-05,0
125.27,5.1362e-05,0
125.27,4.1962e-05,0
125.27,3.508e-05,0
125.27,2.8702e-05,0
125.27,2.4002e-05,0
125.27,2.1988e-05,0
125.27,1.796e-05,0
125.27,1.2589e-05,0
125.28,1.4267e-05,0
125.28,2.031e-05,0
125.28,2.4338e-05,0
125.28,2.652e-05,0
125.28,3.0381e-05,0
125.28,3.6088e-05,0
125.28,4.0116e-05,0
125.28,4.3809e-05,0
125.28,4.3977e-05,0
125.28,3.9445e-05,0
125.28,3.2059e-05,0
125.28,2.4674e-05,0
125.28,2.0645e-05,0
125.28,1.8631e-05,0
125.28,1.9135e-05,0
125.28,1.9471e-05,0
125.28,1.8463e-05,0
125.28,1.7624e-05,0
125.28,1.4939e-05,0
125.29,1.2421e-05,0
125.29,1.1414e-05,0
125.29,1.1917e-05,0
125.29,1.2253e-05,0
125.29,1.3931e-05,0
125.29,1.5106e-05,0
125.29,1.5274e-05,0
125.29,1.5946e-05,0
125.29,1.7121e-05,0
125.29,1.4939e-05,0
125.29,9.3996e-06,0
125.29,5.2033e-06,0
125.29,5.2033e-06,0
125.29,7.8889e-06,0
125.29,9.7353e-06,0
125.29,7.5532e-06,0
125.29,5.539e-06,0
125.29,6.3783e-06,0
125.29,8.2246e-06,0
125.3,1.2421e-05,0
125.3,1.8463e-05,0
125.3,2.4674e-05,0
125.3,3.2395e-05,0
125.3,3.8773e-05,0
125.3,4.1123e-05,0
125.3,4.062e-05,0
125.3,3.8102e-05,0
125.3,3.3402e-05,0
125.3,2.9374e-05,0
125.3,2.9374e-05,0
125.3,2.9206e-05,0
125.3,2.6017e-05,0
125.3,2.031e-05,0
125.3,1.3931e-05,0
125.3,8.896e-06,0
125.3,3.1891e-06,0
125.3,-5.539e-06,0
125.3,-1.561e-05,0
125.3,-2.0813e-05,0
125.31,-1.9135e-05,0
125.31,-1.6281e-05,0
125.31,-1.8128e-05,0
125.31,-2.417e-05,0
125.31,-2.8702e-05,0
125.31,-2.8031e-05,0
125.31,-2.266e-05,0
125.31,-1.3092e-05,0
125.31,4.6998e-06,0
125.31,2.8702e-05,0
125.31,4.4984e-05,0
125.31,4.7166e-05,0
125.31,3.9445e-05,0
125.31,3.3738e-05,0
125.31,3.7095e-05,0
125.31,4.8173e-05,0
125.31,6.1601e-05,0
125.31,6.7308e-05,0
125.31,5.7404e-05,0
125.32,3.2059e-05,0
125.32,1.8463e-06,0
125.32,-1.8631e-05,0
125.32,-2.1317e-05,0
125.32,-9.5674e-06,0
125.32,5.2033e-06,0
125.32,1.8128e-05,0
125.32,2.8702e-05,0
125.32,4.062e-05,0
125.32,6.3615e-05,0
125.32,9.987e-05,0
125.32,0.00013982,0
125.32,0.00016634,0
125.32,0.00017171,0
125.32,0.00016634,0
125.32,0.00015258,0
125.32,0.00013008,0
125.32,0.00010256,0
125.32,7.3182e-05,0
125.33,4.2466e-05,0
125.33,1.7456e-05,0
125.33,-3.357e-07,0
125.33,-1.4939e-05,0
125.33,-2.7527e-05,0
125.33,-3.5248e-05,0
125.33,-4.3137e-05,0
125.33,-5.2537e-05,0
125.33,-5.4551e-05,0
125.33,-4.5655e-05,0
125.33,-2.7024e-05,0
125.33,-6.2104e-06,0
125.33,1.1246e-05,0
125.33,2.0981e-05,0
125.33,2.5177e-05,0
125.33,2.7863e-05,0
125.33,3.3066e-05,0
125.33,3.8941e-05,0
125.33,4.0116e-05,0
125.33,3.7934e-05,0
125.34,3.5416e-05,0
125.34,3.3738e-05,0
125.34,3.0716e-05,0
125.34,2.1317e-05,0
125.34,6.0426e-06,0
125.34,-7.5532e-06,0
125.34,-1.3596e-05,0
125.34,-1.7624e-05,0
125.34,-2.4842e-05,0
125.34,-3.1052e-05,0
125.34,-3.2395e-05,0
125.34,-2.9709e-05,0
125.34,-2.8702e-05,0
125.34,-2.6017e-05,0
125.34,-2.182e-05,0
125.34,-2.0981e-05,0
125.34,-2.0478e-05,0
125.34,-1.8128e-05,0
125.34,-1.3596e-05,0
125.35,-7.8889e-06,0
125.35,-8.2246e-06,0
125.35,-1.6617e-05,0
125.35,-2.9374e-05,0
125.35,-3.827e-05,0
125.35,-4.0787e-05,0
125.35,-3.9445e-05,0
125.35,-3.3402e-05,0
125.35,-2.3835e-05,0
125.35,-1.561e-05,0
125.35,-9.0639e-06,0
125.35,-6.714e-06,0
125.35,-9.9031e-06,0
125.35,-1.4267e-05,0
125.35,-1.2924e-05,0
125.35,-6.2104e-06,0
125.35,-1.1749e-06,0
125.35,-4.1962e-06,0
125.35,-2.0478e-05,0
125.36,-4.5487e-05,0
125.36,-6.244e-05,0
125.36,-5.8747e-05,0
125.36,-3.5416e-05,0
125.36,-2.8534e-06,0
125.36,3.508e-05,0
125.36,7.5364e-05,0
125.36,0.00011162,0
125.36,0.00013529,0
125.36,0.00014905,0
125.36,0.000165,0
125.36,0.00018144,0
125.36,0.00019319,0
125.36,0.00019907,0
125.36,0.00018766,0
125.36,0.00015123,0
125.36,0.00010188,0
125.36,6.1097e-05,0
125.36,2.652e-05,0
125.37,-7.7211e-06,0
125.37,-3.8605e-05,0
125.37,-5.9419e-05,0
125.37,-6.714e-05,0
125.37,-6.7643e-05,0
125.37,-6.1601e-05,0
125.37,-4.5991e-05,0
125.37,-2.0813e-05,0
125.37,7.8889e-06,0
125.37,3.0549e-05,0
125.37,5.0523e-05,0
125.37,8.1575e-05,0
125.37,0.00012572,0
125.37,0.00016298,0
125.37,0.00017037,0
125.37,0.00014318,0
125.37,9.9535e-05,0
125.37,6.3783e-05,0
125.37,4.2802e-05,0
125.38,3.122e-05,0
125.38,1.4267e-05,0
125.38,-9.2317e-06,0
125.38,-3.1052e-05,0
125.38,-4.4984e-05,0
125.38,-5.6565e-05,0
125.38,-7.3182e-05,0
125.38,-9.0806e-05,0
125.38,-0.00010121,0
125.38,-0.00010323,0
125.38,-0.00010155,0
125.38,-9.836e-05,0
125.38,-9.3156e-05,0
125.38,-8.0903e-05,0
125.38,-5.4719e-05,0
125.38,-1.4603e-05,0
125.38,2.4002e-05,0
125.38,5.0187e-05,0
125.38,6.4286e-05,0
125.38,7.5029e-05,0
125.39,8.6946e-05,0
125.39,9.9199e-05,0
125.39,0.0001039,0
125.39,0.00010105,0
125.39,9.6513e-05,0
125.39,9.3828e-05,0
125.39,9.1814e-05,0
125.39,8.7785e-05,0
125.39,8.1743e-05,0
125.39,7.57e-05,0
125.39,7.0665e-05,0
125.39,6.6133e-05,0
125.39,6.244e-05,0
125.39,5.623e-05,0
125.39,4.1291e-05,0
125.39,1.9135e-05,0
125.39,5.0355e-07,0
125.39,-1.0071e-05,0
125.39,-1.5946e-05,0
125.4,-1.8799e-05,0
125.4,-2.0981e-05,0
125.4,-2.3163e-05,0
125.4,-2.1317e-05,0
125.4,-1.2589e-05,0
125.4,6.714e-07,0
125.4,1.4603e-05,0
125.4,2.1317e-05,0
125.4,1.9135e-05,0
125.4,1.8967e-05,0
125.4,1.9471e-05,0
125.4,1.4603e-05,0
125.4,7.2175e-06,0
125.4,1.1749e-06,0
125.4,-2.8534e-06,0
125.4,-3.5248e-06,0
125.4,-2.5177e-06,0
125.4,-3.357e-06,0
125.4,-8.2246e-06,0
125.41,-1.2757e-05,0
125.41,-1.4267e-05,0
125.41,-1.4603e-05,0
125.41,-1.6281e-05,0
125.41,-1.4939e-05,0
125.41,-1.1078e-05,0
125.41,-7.8889e-06,0
125.41,-6.0426e-06,0
125.41,-8.5603e-06,0
125.41,-1.5778e-05,0
125.41,-2.5345e-05,0
125.41,-3.122e-05,0
125.41,-3.3402e-05,0
125.41,-3.7095e-05,0
125.41,-4.1459e-05,0
125.41,-4.7333e-05,0
125.41,-5.5558e-05,0
125.41,-6.714e-05,0
125.41,-8.0903e-05,0
125.42,-9.0303e-05,0
125.42,-9.1814e-05,0
125.42,-8.2918e-05,0
125.42,-6.1097e-05,0
125.42,-2.9709e-05,0
125.42,4.5319e-06,0
125.42,3.0716e-05,0
125.42,4.7837e-05,0
125.42,6.7643e-05,0
125.42,9.3324e-05,0
125.42,0.00011968,0
125.42,0.00014401,0
125.42,0.0001556,0
125.42,0.00015358,0
125.42,0.00014922,0
125.42,0.0001509,0
125.42,0.00015543,0
125.42,0.00015526,0
125.42,0.00014955,0
125.42,0.0001425,0
125.43,0.00013613,0
125.43,0.0001284,0
125.43,0.00011632,0
125.43,0.00010188,0
125.43,8.4092e-05,0
125.43,5.8244e-05,0
125.43,3.2898e-05,0
125.43,2.2492e-05,0
125.43,2.7192e-05,0
125.43,2.6352e-05,0
125.43,1.1917e-05,0
125.43,-6.0426e-06,0
125.43,-2.0981e-05,0
125.43,-3.8437e-05,0
125.43,-6.0594e-05,0
125.43,-8.1575e-05,0
125.43,-9.1981e-05,0
125.43,-8.7785e-05,0
125.43,-8.1071e-05,0
125.44,-7.9393e-05,0
125.44,-7.4357e-05,0
125.44,-5.6565e-05,0
125.44,-2.9038e-05,0
125.44,-1.1749e-06,0
125.44,2.4506e-05,0
125.44,4.683e-05,0
125.44,6.0929e-05,0
125.44,6.1769e-05,0
125.44,4.9348e-05,0
125.44,2.7527e-05,0
125.44,9.2317e-06,0
125.44,6.8818e-06,0
125.44,2.1653e-05,0
125.44,3.8605e-05,0
125.44,4.1962e-05,0
125.44,3.0716e-05,0
125.44,1.6953e-05,0
125.44,7.7211e-06,0
125.45,4.3641e-06,0
125.45,1.2924e-05,0
125.45,3.3402e-05,0
125.45,5.6062e-05,0
125.45,7.0832e-05,0
125.45,7.5029e-05,0
125.45,6.8986e-05,0
125.45,5.539e-05,0
125.45,4.1962e-05,0
125.45,3.3738e-05,0
125.45,2.5345e-05,0
125.45,1.4603e-05,0
125.45,3.6927e-06,0
125.45,-2.0142e-06,0
125.45,-1.8463e-06,0
125.45,1.8463e-06,0
125.45,8.896e-06,0
125.45,2.1988e-05,0
125.45,3.5416e-05,0
125.45,3.9109e-05,0
125.46,3.4745e-05,0
125.46,3.2059e-05,0
125.46,3.3738e-05,0
125.46,3.508e-05,0
125.46,2.7695e-05,0
125.46,8.7282e-06,0
125.46,-1.8296e-05,0
125.46,-4.4312e-05,0
125.46,-6.1097e-05,0
125.46,-6.63e-05,0
125.46,-5.9251e-05,0
125.46,-4.7837e-05,0
125.46,-3.7598e-05,0
125.46,-2.7695e-05,0
125.46,-1.561e-05,0
125.46,-1.1749e-06,0
125.46,1.6114e-05,0
125.46,4.3809e-05,0
125.46,7.9393e-05,0
125.47,0.00011212,0
125.47,0.00012874,0
125.47,0.00011666,0
125.47,8.04e-05,0
125.47,4.448e-05,0
125.47,2.1317e-05,0
125.47,1.0575e-05,0
125.47,1.0575e-05,0
125.47,1.9974e-05,0
125.47,3.0716e-05,0
125.47,3.827e-05,0
125.47,4.1794e-05,0
125.47,4.3305e-05,0
125.47,4.1962e-05,0
125.47,3.8941e-05,0
125.47,3.6927e-05,0
125.47,3.743e-05,0
125.47,3.7263e-05,0
125.47,3.2731e-05,0
125.48,2.4674e-05,0
125.48,1.3931e-05,0
125.48,-6.714e-07,0
125.48,-1.5106e-05,0
125.48,-2.501e-05,0
125.48,-2.9709e-05,0
125.48,-2.7695e-05,0
125.48,-2.031e-05,0
125.48,-1.0575e-05,0
125.48,-2.5177e-06,0
125.48,1.5106e-06,0
125.48,3.5248e-06,0
125.48,5.539e-06,0
125.48,6.5461e-06,0
125.48,5.2033e-06,0
125.48,4.5319e-06,0
125.48,3.357e-07,0
125.48,-7.5532e-06,0
125.48,-1.7792e-05,0
125.49,-2.6688e-05,0
125.49,-3.0045e-05,0
125.49,-2.2995e-05,0
125.49,-8.2246e-06,0
125.49,3.5248e-06,0
125.49,5.2033e-06,0
125.49,1.6785e-07,0
125.49,-4.8676e-06,0
125.49,-3.1891e-06,0
125.49,4.3641e-06,0
125.49,1.0407e-05,0
125.49,1.1078e-05,0
125.49,1.4603e-05,0
125.49,2.7024e-05,0
125.49,4.0116e-05,0
125.49,4.8676e-05,0
125.49,5.9754e-05,0
125.49,8.0735e-05,0
125.49,0.0001039,0
125.5,0.00011783,0
125.5,0.00011984,0
125.5,0.00011028,0
125.5,9.2149e-05,0
125.5,7.1672e-05,0
125.5,5.4719e-05,0
125.5,4.4312e-05,0
125.5,3.827e-05,0
125.5,2.5345e-05,0
125.5,5.539e-06,0
125.5,-9.5674e-06,0
125.5,-1.4267e-05,0
125.5,-9.3996e-06,0
125.5,1.6785e-07,0
125.5,8.0568e-06,0
125.5,1.091e-05,0
125.5,1.091e-05,0
125.5,9.2317e-06,0
125.5,7.8889e-06,0
125.5,1.0071e-05,0
125.51,1.4435e-05,0
125.51,1.6449e-05,0
125.51,1.561e-05,0
125.51,1.2924e-05,0
125.51,7.3854e-06,0
125.51,2.5177e-06,0
125.51,6.714e-07,0
125.51,6.714e-07,0
125.51,5.0355e-07,0
125.51,-1.5106e-06,0
125.51,-8.2246e-06,0
125.51,-1.561e-05,0
125.51,-1.6953e-05,0
125.51,-1.4939e-05,0
125.51,-1.6281e-05,0
125.51,-2.1317e-05,0
125.51,-2.1653e-05,0
125.51,-1.5946e-05,0
125.51,-1.0575e-05,0
125.52,-8.5603e-06,0
125.52,-6.2104e-06,0
125.52,-2.8534e-06,0
125.52,-5.0355e-07,0
125.52,2.3499e-06,0
125.52,1.8463e-06,0
125.52,-5.7069e-06,0
125.52,-2.1988e-05,0
125.52,-4.3809e-05,0
125.52,-6.6804e-05,0
125.52,-8.6442e-05,0
125.52,-9.5842e-05,0
125.52,-9.2149e-05,0
125.52,-8.0064e-05,0
125.52,-5.8579e-05,0
125.52,-2.8367e-05,0
125.52,8.5603e-06,0
125.52,4.5319e-05,0
125.52,8.04e-05,0
125.53,0.00011128,0
125.53,0.00013931,0
125.53,0.00017607,0
125.53,0.0002266,0
125.53,0.00027141,0
125.53,0.00027897,0
125.53,0.00024187,0
125.53,0.00018514,0
125.53,0.00013344,0
125.53,9.8527e-05,0
125.53,7.9728e-05,0
125.53,7.1e-05,0
125.53,6.4286e-05,0
125.53,5.3208e-05,0
125.53,3.7095e-05,0
125.53,2.1317e-05,0
125.53,1.2421e-05,0
125.53,8.5603e-06,0
125.53,5.2033e-06,0
125.53,6.714e-07,0
125.54,-3.0213e-06,0
125.54,-5.8747e-06,0
125.54,-9.3996e-06,0
125.54,-1.1917e-05,0
125.54,-1.4603e-05,0
125.54,-2.0813e-05,0
125.54,-2.9374e-05,0
125.54,-3.5416e-05,0
125.54,-3.7766e-05,0
125.54,-3.508e-05,0
125.54,-2.9374e-05,0
125.54,-2.501e-05,0
125.54,-2.4338e-05,0
125.54,-2.7024e-05,0
125.54,-2.9877e-05,0
125.54,-2.8199e-05,0
125.54,-2.0645e-05,0
125.54,-1.326e-05,0
125.54,-1.0239e-05,0
125.55,-1.0239e-05,0
125.55,-1.1749e-05,0
125.55,-1.4603e-05,0
125.55,-1.1917e-05,0
125.55,-2.5177e-06,0
125.55,9.7353e-06,0
125.55,2.0981e-05,0
125.55,2.8702e-05,0
125.55,3.5248e-05,0
125.55,4.1459e-05,0
125.55,4.7501e-05,0
125.55,5.0187e-05,0
125.55,4.8173e-05,0
125.55,3.5248e-05,0
125.55,1.8296e-05,0
125.55,9.7353e-06,0
125.55,1.3596e-05,0
125.55,2.7359e-05,0
125.55,4.6159e-05,0
125.56,6.1936e-05,0
125.56,6.8315e-05,0
125.56,6.5461e-05,0
125.56,5.8412e-05,0
125.56,5.0523e-05,0
125.56,3.9612e-05,0
125.56,2.8031e-05,0
125.56,2.0645e-05,0
125.56,1.6953e-05,0
125.56,1.091e-05,0
125.56,-8.3925e-07,0
125.56,-1.4771e-05,0
125.56,-2.9374e-05,0
125.56,-4.1627e-05,0
125.56,-5.1194e-05,0
125.56,-6.2776e-05,0
125.56,-7.6707e-05,0
125.56,-8.2918e-05,0
