66.747,5.0858e-05,0
66.748,1.0407e-05,0
66.748,-3.1388e-05,0
66.749,-6.0594e-05,0
66.749,-7.2007e-05,0
66.75,-6.5293e-05,0
66.75,-5.0523e-05,0
66.751,-3.1388e-05,0
66.751,-5.539e-06,0
66.752,2.652e-05,0
66.752,4.4648e-05,0
66.753,3.4073e-05,0
66.753,1.1246e-05,0
66.754,-3.1891e-06,0
66.754,-8.3925e-06,0
66.755,-1.0575e-05,0
66.755,-6.0426e-06,0
66.756,1.561e-05,0
66.756,4.8173e-05,0
66.757,8.04e-05,0
66.757,0.00010809,0
66.758,0.00012169,0
66.759,0.00011498,0
66.759,9.6513e-05,0
66.76,7.7546e-05,0
66.76,6.1433e-05,0
66.761,4.5823e-05,0
66.761,2.887e-05,0
66.762,1.2253e-05,0
66.762,1.1749e-06,0
66.763,-6.714e-06,0
66.763,-1.8296e-05,0
66.764,-2.9541e-05,0
66.764,-3.4241e-05,0
66.765,-3.4409e-05,0
66.765,-3.2898e-05,0
66.766,-2.6688e-05,0
66.766,-1.6281e-05,0
66.767,-4.8676e-06,0
66.767,3.8605e-06,0
66.768,8.896e-06,0
66.768,8.3925e-06,0
66.769,5.8747e-06,0
66.769,1.0071e-06,0
66.77,-5.2033e-06,0
66.77,-9.0639e-06,0
66.771,-1.4603e-05,0
66.772,-2.6017e-05,0
66.772,-4.3473e-05,0
66.773,-6.1433e-05,0
66.773,-7.2679e-05,0
66.774,-7.4357e-05,0
66.774,-6.7643e-05,0
66.775,-5.5894e-05,0
66.775,-4.1627e-05,0
66.776,-3.0716e-05,0
66.776,-3.0381e-05,0
66.777,-3.1724e-05,0
66.777,-1.8463e-05,0
66.778,6.2104e-06,0
66.778,1.9806e-05,0
66.779,1.3931e-05,0
66.779,-1.6785e-07,0
66.78,-1.5106e-06,0
66.78,1.2253e-05,0
66.781,2.4002e-05,0
66.781,3.4409e-05,0
66.782,5.5894e-05,0
66.782,9.2149e-05,0
66.783,0.00012622,0
66.783,0.00013915,0
66.784,0.00012438,0
66.784,9.3492e-05,0
66.785,6.479e-05,0
66.786,4.9348e-05,0
66.786,4.6494e-05,0
66.787,5.2873e-05,0
66.787,6.2943e-05,0
66.788,7.0497e-05,0
66.788,7.3686e-05,0
66.789,6.949e-05,0
66.789,5.388e-05,0
66.79,3.8773e-05,0
66.79,3.4409e-05,0
66.791,3.4409e-05,0
66.791,3.4745e-05,0
66.792,3.4073e-05,0
66.792,2.8702e-05,0
66.793,1.3092e-05,0
66.793,-1.7624e-05,0
66.794,-5.539e-05,0
66.794,-8.1071e-05,0
66.795,-7.9728e-05,0
66.795,-5.6397e-05,0
66.796,-2.8702e-05,0
66.796,-8.896e-06,0
66.797,6.5461e-06,0
66.797,2.4674e-05,0
66.798,5.1194e-05,0
66.799,8.6442e-05,0
66.799,0.00012773,0
66.8,0.00017758,0
66.8,0.00023214,0
66.801,0.00026705,0
66.801,0.00026117,0
66.802,0.00022441,0
66.802,0.0001801,0
66.803,0.00013864,0
66.803,9.9702e-05,0
66.804,5.9251e-05,0
66.804,1.5274e-05,0
66.805,-2.1485e-05,0
66.805,-4.1459e-05,0
66.806,-5.388e-05,0
66.806,-6.4958e-05,0
66.807,-6.9322e-05,0
66.807,-6.865e-05,0
66.808,-6.5293e-05,0
66.808,-5.2201e-05,0
66.809,-2.8367e-05,0
66.809,-6.8818e-06,0
66.81,5.2033e-06,0
66.81,1.1414e-05,0
66.811,4.5319e-06,0
66.811,-2.0478e-05,0
66.812,-5.1194e-05,0
66.813,-7.0161e-05,0
66.813,-7.9561e-05,0
66.814,-8.7617e-05,0
66.814,-9.1646e-05,0
66.815,-8.7449e-05,0
66.815,-7.8889e-05,0
66.816,-7.1504e-05,0
66.816,-6.5965e-05,0
66.817,-5.7069e-05,0
66.817,-3.508e-05,0
66.818,-8.3925e-07,0
66.818,3.3906e-05,0
66.819,5.2873e-05,0
66.819,5.5558e-05,0
66.82,5.0523e-05,0
66.82,5.0355e-05,0
66.821,6.0929e-05,0
66.821,8.0232e-05,0
66.822,9.987e-05,0
66.822,0.00011128,0
66.823,0.00011666,0
66.823,0.00011145,0
66.824,9.3324e-05,0
66.824,7.0497e-05,0
66.825,4.9348e-05,0
66.826,3.4073e-05,0
66.826,2.4002e-05,0
66.827,1.4603e-05,0
66.827,3.8605e-06,0
66.828,-2.8534e-06,0
66.828,-3.8605e-06,0
66.829,-1.6785e-07,0
66.829,3.8605e-06,0
66.83,2.5177e-06,0
66.83,-4.1962e-06,0
66.831,-1.4939e-05,0
66.831,-2.4338e-05,0
66.832,-3.0381e-05,0
66.832,-3.3402e-05,0
66.833,-3.8605e-05,0
66.833,-4.6998e-05,0
66.834,-5.6565e-05,0
66.834,-6.3111e-05,0
66.835,-5.9251e-05,0
66.835,-4.9012e-05,0
66.836,-4.1794e-05,0
66.836,-3.5752e-05,0
66.837,-2.887e-05,0
66.837,-1.9974e-05,0
66.838,-8.2246e-06,0
66.838,8.5603e-06,0
66.839,2.5681e-05,0
66.84,3.3234e-05,0
66.84,3.2059e-05,0
66.841,3.0716e-05,0
66.841,3.0381e-05,0
66.842,1.3931e-05,0
66.842,-3.9948e-05,0
66.843,-0.00011649,0
66.843,-0.00017121,0
66.844,-0.00017691,0
66.844,-0.00014603,0
66.845,-9.7185e-05,0
66.845,-3.1052e-05,0
66.846,4.7333e-05,0
66.846,0.00011531,0
66.847,0.0001655,0
66.847,0.00021569,0
66.848,0.0002835,0
66.848,0.00035534,0
66.849,0.00039327,0
66.849,0.00037967,0
66.85,0.00032915,0
66.85,0.00025966,0
66.851,0.00018648,0
66.851,0.00012387,0
66.852,7.5532e-05,0
66.853,4.0787e-05,0
66.853,1.8967e-05,0
66.854,3.5248e-06,0
66.854,-9.9031e-06,0
66.855,-2.4002e-05,0
66.855,-3.8102e-05,0
66.856,-5.0523e-05,0
66.856,-5.9586e-05,0
66.857,-6.3279e-05,0
66.857,-6.2608e-05,0
66.858,-6.1265e-05,0
66.858,-6.0594e-05,0
66.859,-5.8244e-05,0
66.859,-5.6733e-05,0
66.86,-6.5629e-05,0
66.86,-8.6946e-05,0
66.861,-0.00010961,0
66.861,-0.00012337,0
66.862,-0.00013176,0
66.862,-0.00013629,0
66.863,-0.00013294,0
66.863,-0.00012236,0
66.864,-0.00010491,0
66.864,-7.5364e-05,0
66.865,-3.2563e-05,0
66.865,2.2324e-05,0
66.866,8.6442e-05,0
66.867,0.00014704,0
66.867,0.00018581,0
66.868,0.00019454,0
66.868,0.00017574,0
66.869,0.00013713,0
66.869,8.9128e-05,0
66.87,4.4648e-05,0
66.87,1.5946e-05,0
66.871,-3.1891e-06,0
66.871,-1.8967e-05,0
66.872,-2.266e-05,0
66.872,-1.0575e-05,0
66.873,9.3996e-06,0
66.873,3.4745e-05,0
66.874,6.8147e-05,0
66.874,0.00010675,0
66.875,0.00014888,0
66.875,0.00018547,0
66.876,0.00019689,0
66.876,0.00017574,0
66.877,0.00013193,0
66.877,8.3085e-05,0
66.878,4.0116e-05,0
66.878,4.6998e-06,0
66.879,-2.3667e-05,0
66.88,-3.8773e-05,0
66.88,-4.448e-05,0
66.881,-5.0858e-05,0
66.881,-6.1097e-05,0
66.882,-6.8315e-05,0
66.882,-7.1504e-05,0
66.883,-6.2104e-05,0
66.883,-3.7766e-05,0
66.884,-1.4435e-05,0
66.884,1.6785e-07,0
66.885,1.326e-05,0
66.885,2.5345e-05,0
66.886,2.9541e-05,0
66.886,1.8967e-05,0
66.887,-1.0071e-06,0
66.887,-1.9303e-05,0
66.888,-3.8437e-05,0
66.888,-5.9586e-05,0
66.889,-7.4022e-05,0
66.889,-7.805e-05,0
66.89,-7.9896e-05,0
66.89,-8.3421e-05,0
66.891,-8.6442e-05,0
66.891,-9.2485e-05,0
66.892,-9.7353e-05,0
66.892,-9.131e-05,0
66.893,-6.7979e-05,0
66.894,-2.8367e-05,0
66.894,1.0575e-05,0
66.895,3.9445e-05,0
66.895,5.8412e-05,0
66.896,6.5965e-05,0
66.896,6.6636e-05,0
66.897,8.4092e-05,0
66.897,0.00013059,0
66.898,0.00018581,0
66.898,0.00022811,0
66.899,0.00025161,0
66.899,0.00025144,0
66.9,0.00022206,0
66.9,0.00016835,0
66.901,0.0001086,0
66.901,6.3783e-05,0
66.902,4.2298e-05,0
66.902,3.9445e-05,0
66.903,3.592e-05,0
66.903,1.326e-05,0
66.904,-1.5946e-05,0
66.904,-3.6088e-05,0
66.905,-5.623e-05,0
66.905,-8.8289e-05,0
66.906,-0.0001331,0
66.907,-0.00017507,0
66.907,-0.0001989,0
66.908,-0.00020142,0
66.908,-0.00019084,0
66.909,-0.0001702,0
66.909,-0.00013814,0
66.91,-9.6178e-05,0
66.91,-4.1459e-05,0
66.911,3.2059e-05,0
66.911,0.00011699,0
66.912,0.00019319,0
66.912,0.00024556,0
66.913,0.00026487,0
66.913,0.00025496,0
66.914,0.00022005,0
66.914,0.00016869,0
66.915,0.00012068,0
66.915,8.0232e-05,0
66.916,4.7333e-05,0
66.916,2.3163e-05,0
66.917,7.5532e-06,0
66.917,-2.5177e-06,0
66.918,-1.1246e-05,0
66.918,-1.6617e-05,0
66.919,-1.6953e-05,0
66.919,-1.5946e-05,0
66.92,-1.3931e-05,0
66.921,-1.0239e-05,0
66.921,-8.2246e-06,0
66.922,-1.091e-05,0
66.922,-1.4267e-05,0
66.923,-1.796e-05,0
66.923,-2.1653e-05,0
66.924,-2.7024e-05,0
66.924,-3.5248e-05,0
66.925,-4.1123e-05,0
66.925,-4.0452e-05,0
66.926,-3.6423e-05,0
66.926,-2.5681e-05,0
66.927,-1.3931e-05,0
66.927,-7.7211e-06,0
66.928,-1.0071e-06,0
66.928,5.2033e-06,0
66.929,9.0639e-06,0
66.929,7.0497e-06,0
66.93,6.5461e-06,0
66.93,1.326e-05,0
66.931,2.0645e-05,0
66.931,2.4338e-05,0
66.932,2.6352e-05,0
66.932,2.501e-05,0
66.933,2.1149e-05,0
66.934,1.9303e-05,0
66.934,2.6184e-05,0
66.935,4.3809e-05,0
66.935,6.6636e-05,0
66.936,8.0735e-05,0
66.936,7.57e-05,0
66.937,6.3783e-05,0
66.937,6.5461e-05,0
66.938,7.5029e-05,0
66.938,7.335e-05,0
66.939,6.1433e-05,0
66.939,4.7837e-05,0
66.94,3.4241e-05,0
66.94,2.4338e-05,0
66.941,1.7792e-05,0
66.941,2.0142e-05,0
66.942,3.3402e-05,0
66.942,4.6159e-05,0
66.943,4.7837e-05,0
66.943,3.2059e-05,0
66.944,6.8818e-06,0
66.944,-1.0239e-05,0
66.945,-1.5946e-05,0
66.945,-1.6114e-05,0
66.946,-1.6449e-05,0
66.947,-1.9471e-05,0
66.947,-2.4002e-05,0
66.948,-2.5681e-05,0
66.948,-2.1653e-05,0
66.949,-1.2253e-05,0
66.949,3.357e-06,0
66.95,2.2995e-05,0
66.95,4.4816e-05,0
66.951,6.0929e-05,0
66.951,6.8818e-05,0
66.952,7.0665e-05,0
66.952,6.0258e-05,0
66.953,3.9109e-05,0
66.953,2.8031e-05,0
66.954,3.5416e-05,0
66.954,5.4383e-05,0
66.955,6.865e-05,0
66.955,6.5461e-05,0
66.956,4.6326e-05,0
66.956,3.1891e-05,0
66.957,3.978e-05,0
66.957,5.7069e-05,0
66.958,6.9322e-05,0
66.958,7.1336e-05,0
66.959,5.623e-05,0
66.959,3.5416e-05,0
66.96,3.0045e-05,0
66.961,3.3234e-05,0
66.961,2.031e-05,0
66.962,-1.7121e-05,0
66.962,-6.009e-05,0
66.963,-8.51e-05,0
66.963,-8.7449e-05,0
66.964,-7.9393e-05,0
66.964,-7.5364e-05,0
66.965,-6.8986e-05,0
66.965,-5.153e-05,0
66.966,-2.4674e-05,0
66.966,-5.0355e-07,0
66.967,1.5106e-05,0
66.967,3.4073e-05,0
66.968,6.3615e-05,0
66.968,8.9128e-05,0
66.969,9.4499e-05,0
66.969,8.8121e-05,0
66.97,8.9128e-05,0
66.97,9.7185e-05,0
66.971,0.00010155,0
66.971,9.1142e-05,0
66.972,6.7811e-05,0
66.972,4.0452e-05,0
66.973,1.4099e-05,0
66.974,-1.2757e-05,0
66.974,-4.1962e-05,0
66.975,-6.5126e-05,0
66.975,-7.4189e-05,0
66.976,-7.3014e-05,0
66.976,-6.4622e-05,0
66.977,-5.2537e-05,0
66.977,-4.0116e-05,0
66.978,-2.501e-05,0
66.978,-6.2104e-06,0
66.979,1.1078e-05,0
66.979,2.8031e-05,0
66.98,4.8844e-05,0
66.98,7.335e-05,0
66.981,8.4428e-05,0
66.981,7.4189e-05,0
66.982,5.7069e-05,0
66.982,4.5823e-05,0
66.983,3.9109e-05,0
66.983,3.4409e-05,0
66.984,3.0549e-05,0
66.984,2.266e-05,0
66.985,1.5778e-05,0
66.985,2.1317e-05,0
66.986,3.8102e-05,0
66.986,5.2705e-05,0
66.987,5.4215e-05,0
66.988,4.1962e-05,0
66.988,2.3835e-05,0
66.989,8.5603e-06,0
66.989,-3.0213e-06,0
66.99,-1.091e-05,0
66.99,-1.5442e-05,0
66.991,-1.8799e-05,0
66.991,-2.1988e-05,0
66.992,-2.4002e-05,0
66.992,-2.5345e-05,0
66.993,-2.9038e-05,0
66.993,-3.4241e-05,0
66.994,-3.8437e-05,0
66.994,-3.743e-05,0
66.995,-3.1891e-05,0
66.995,-2.7359e-05,0
66.996,-2.501e-05,0
66.996,-2.4338e-05,0
66.997,-2.9374e-05,0
66.997,-3.9277e-05,0
66.998,-4.6494e-05,0
66.998,-4.3305e-05,0
66.999,-3.2059e-05,0
66.999,-2.0813e-05,0
67,-9.2317e-06,0
67.001,2.182e-06,0
67.001,8.896e-06,0
67.002,1.4939e-05,0
67.002,2.7527e-05,0
67.003,4.7333e-05,0
67.003,7.3014e-05,0
67.004,9.7017e-05,0
67.004,0.00010994,0
67.005,0.00011061,0
67.005,0.00010457,0
67.006,9.5506e-05,0
67.006,8.896e-05,0
67.007,9.4499e-05,0
67.007,0.00011397,0
67.008,0.00013294,0
67.008,0.00013529,0
67.009,0.00012102,0
67.009,0.00010105,0
67.01,7.9393e-05,0
67.01,5.3544e-05,0
67.011,2.5345e-05,0
67.011,-1.5106e-06,0
67.012,-2.5513e-05,0
67.012,-4.1459e-05,0
67.013,-4.918e-05,0
67.013,-5.1865e-05,0
67.014,-5.0187e-05,0
67.015,-3.827e-05,0
67.015,-1.6953e-05,0
67.016,3.6927e-06,0
67.016,1.4939e-05,0
67.017,1.9303e-05,0
67.017,1.8967e-05,0
67.018,1.8296e-05,0
67.018,1.9135e-05,0
67.019,1.561e-05,0
67.019,1.1414e-05,0
67.02,1.4099e-05,0
67.02,1.1246e-05,0
67.021,-4.1962e-06,0
67.021,-1.2924e-05,0
67.022,-6.5461e-06,0
67.022,-1.5106e-06,0
67.023,-1.2253e-05,0
67.023,-2.7695e-05,0
67.024,-3.2395e-05,0
67.024,-2.8702e-05,0
67.025,-2.031e-05,0
67.025,-1.6785e-07,0
67.026,3.4073e-05,0
67.026,6.9657e-05,0
67.027,8.8457e-05,0
67.028,8.3757e-05,0
67.028,8.5771e-05,0
67.029,0.0001138,0
67.029,0.00014821,0
67.03,0.00016936,0
67.03,0.00017171,0
67.031,0.00014788,0
67.031,0.00010138,0
67.032,4.1291e-05,0
67.032,-2.0142e-05,0
67.033,-6.4286e-05,0
67.033,-8.3421e-05,0
67.034,-9.0639e-05,0
67.034,-9.9367e-05,0
67.035,-0.00010675,0
67.035,-0.00010574,0
67.036,-9.4163e-05,0
67.036,-6.5629e-05,0
67.037,-2.4002e-05,0
67.037,2.266e-05,0
67.038,6.1265e-05,0
67.038,8.0903e-05,0
67.039,8.9128e-05,0
67.039,9.9199e-05,0
67.04,0.00011397,0
67.04,0.00013193,0
67.041,0.00014955,0
67.042,0.0001566,0
67.042,0.00013948,0
67.043,0.00010658,0
67.043,7.6707e-05,0
67.044,5.5222e-05,0
67.044,3.9445e-05,0
67.045,2.5513e-05,0
67.045,1.0071e-05,0
67.046,-4.8676e-06,0
67.046,-2.031e-05,0
67.047,-3.592e-05,0
67.047,-4.918e-05,0
67.048,-5.6397e-05,0
67.048,-5.6565e-05,0
67.049,-5.6565e-05,0
67.049,-5.7237e-05,0
67.05,-5.7908e-05,0
67.05,-5.7572e-05,0
67.051,-5.4215e-05,0
67.051,-4.7501e-05,0
67.052,-3.7766e-05,0
67.052,-2.9709e-05,0
67.053,-2.9709e-05,0
67.053,-4.4144e-05,0
67.054,-6.9322e-05,0
67.055,-8.6275e-05,0
67.055,-8.2078e-05,0
67.056,-6.3279e-05,0
67.056,-4.683e-05,0
67.057,-3.8773e-05,0
67.057,-3.0549e-05,0
67.058,-1.4267e-05,0
67.058,1.1246e-05,0
67.059,4.6159e-05,0
67.059,8.9632e-05,0
67.06,0.0001415,0
67.06,0.00019051,0
67.061,0.00020713,0
67.061,0.00017775,0
67.062,0.00012639,0
67.062,8.2078e-05,0
67.063,5.3208e-05,0
67.063,3.5416e-05,0
67.064,2.7863e-05,0
67.064,2.8031e-05,0
67.065,2.652e-05,0
67.065,1.9303e-05,0
67.066,1.0407e-05,0
67.066,1.6785e-07,0
67.067,-1.091e-05,0
67.067,-1.796e-05,0
67.068,-1.7624e-05,0
67.069,-1.2253e-05,0
67.069,-6.8818e-06,0
67.07,-6.8818e-06,0
67.07,-1.1246e-05,0
67.071,-1.3596e-05,0
67.071,-4.8676e-06,0
67.072,1.3596e-05,0
67.072,3.357e-05,0
67.073,4.9516e-05,0
67.073,6.3111e-05,0
67.074,6.5126e-05,0
67.074,4.8173e-05,0
67.075,2.2324e-05,0
67.075,5.0355e-07,0
67.076,-1.2085e-05,0
67.076,-1.796e-05,0
67.077,-2.2492e-05,0
67.077,-3.6759e-05,0
67.078,-5.8579e-05,0
67.078,-6.8315e-05,0
67.079,-5.8747e-05,0
67.079,-4.3977e-05,0
67.08,-3.122e-05,0
67.08,-1.7456e-05,0
67.081,-5.539e-06,0
67.082,-1.5106e-06,0
67.082,-3.0213e-06,0
67.083,1.6785e-07,0
67.083,2.8031e-05,0
67.084,7.9057e-05,0
67.084,0.00011666,0
67.085,0.00012219,0
67.085,0.00011766,0
67.086,0.0001232,0
67.086,0.00012941,0
67.087,0.00012908,0
67.087,0.00012303,0
67.088,0.00010994,0
67.088,9.9199e-05,0
67.089,9.4331e-05,0
67.089,8.5435e-05,0
67.09,6.6468e-05,0
67.09,4.5319e-05,0
67.091,2.7527e-05,0
67.091,6.5461e-06,0
67.092,-1.2253e-05,0
67.092,-2.266e-05,0
67.093,-2.1653e-05,0
67.093,-6.5461e-06,0
67.094,1.0407e-05,0
67.094,1.4267e-05,0
67.095,1.2757e-05,0
67.096,2.0645e-05,0
67.096,4.2634e-05,0
67.097,6.8818e-05,0
67.097,8.04e-05,0
67.098,6.5629e-05,0
67.098,3.2731e-05,0
67.099,-2.6856e-06,0
67.099,-2.6856e-05,0
67.1,-3.6255e-05,0
67.1,-4.3641e-05,0
67.101,-4.9851e-05,0
67.101,-4.9348e-05,0
67.102,-5.2537e-05,0
67.102,-6.3951e-05,0
67.103,-7.2007e-05,0
67.103,-7.0161e-05,0
67.104,-6.7979e-05,0
67.104,-7.3854e-05,0
67.105,-8.3085e-05,0
67.105,-8.0064e-05,0
67.106,-5.8579e-05,0
67.106,-2.8534e-05,0
67.107,-2.182e-06,0
67.107,1.2757e-05,0
67.108,2.3499e-05,0
67.109,4.4816e-05,0
67.109,7.3014e-05,0
67.11,9.2653e-05,0
67.11,9.9199e-05,0
67.111,8.9464e-05,0
67.111,6.865e-05,0
67.112,4.6159e-05,0
67.112,2.501e-05,0
67.113,5.7069e-06,0
67.113,-9.3996e-06,0
67.114,-1.9638e-05,0
67.114,-2.266e-05,0
67.115,-1.8631e-05,0
67.115,-9.5674e-06,0
67.116,3.0213e-06,0
67.116,1.8463e-05,0
67.117,3.6088e-05,0
67.117,4.8005e-05,0
67.118,5.1865e-05,0
67.118,5.2873e-05,0
67.119,5.9251e-05,0
67.119,7.1e-05,0
67.12,7.8386e-05,0
67.12,7.4693e-05,0
67.121,6.1601e-05,0
67.121,4.8173e-05,0
67.122,4.5487e-05,0
67.123,5.2369e-05,0
67.123,5.6733e-05,0
67.124,5.3544e-05,0
67.124,4.7501e-05,0
67.125,4.5319e-05,0
67.125,4.2802e-05,0
67.126,3.5584e-05,0
67.126,2.6352e-05,0
67.127,1.8967e-05,0
67.127,1.6617e-05,0
67.128,1.8128e-05,0
67.128,1.561e-05,0
67.129,3.357e-06,0
67.129,-1.5946e-05,0
67.13,-3.4745e-05,0
67.13,-5.2537e-05,0
67.131,-6.7308e-05,0
67.131,-7.4022e-05,0
67.132,-6.7643e-05,0
67.132,-6.1601e-05,0
67.133,-6.9322e-05,0
67.133,-8.426e-05,0
67.134,-9.1814e-05,0
67.134,-8.3085e-05,0
67.135,-5.7908e-05,0
67.135,-2.6352e-05,0
67.136,-4.8676e-06,0
67.137,1.1246e-05,0
67.137,3.1724e-05,0
67.138,5.4551e-05,0
67.138,7.6875e-05,0
67.139,0.00010172,0
67.139,0.00012941,0
67.14,0.00015358,0
67.14,0.00016953,0
67.141,0.00017087,0
67.141,0.00016265,0
67.142,0.00015795,0
67.142,0.00014955,0
67.143,0.00011733,0
67.143,5.2201e-05,0
67.144,-2.5681e-05,0
67.144,-8.4092e-05,0
67.145,-0.00010726,0
67.145,-0.00010977,0
67.146,-0.00010373,0
67.146,-9.7856e-05,0
67.147,-9.5842e-05,0
67.147,-8.6778e-05,0
67.148,-5.9922e-05,0
67.148,-1.091e-05,0
67.149,6.0258e-05,0
67.15,0.00013579,0
67.15,0.00019101,0
67.151,0.0002135,0
67.151,0.00020679,0
67.152,0.00018614,0
67.152,0.000165,0
67.153,0.00015761,0
67.153,0.00016164,0
67.154,0.00015929,0
67.154,0.00013831,0
67.155,0.0001034,0
67.155,6.3279e-05,0
67.156,3.0716e-05,0
67.156,1.2253e-05,0
67.157,-4.6998e-06,0
67.157,-3.6423e-05,0
67.158,-8.7449e-05,0
67.158,-0.00013663,0
67.159,-0.00015744,0
67.159,-0.00015694,0
67.16,-0.00015325,0
67.16,-0.00015123,0
67.161,-0.0001467,0
67.161,-0.00013143,0
67.162,-0.00010222,0
67.162,-5.9922e-05,0
67.163,-5.0355e-06,0
67.164,5.4887e-05,0
67.164,0.00010893,0
67.165,0.0001415,0
67.165,0.00014435,0
67.166,0.00012337,0
67.166,9.5674e-05,0
67.167,7.5364e-05,0
67.167,6.1265e-05,0
67.168,4.3977e-05,0
67.168,1.4939e-05,0
67.169,-1.6449e-05,0
67.169,-3.8773e-05,0
67.17,-4.7837e-05,0
67.17,-4.1291e-05,0
67.171,-2.4842e-05,0
67.171,-6.5461e-06,0
67.172,1.6953e-05,0
67.172,4.918e-05,0
67.173,8.3757e-05,0
67.173,0.00011212,0
67.174,0.00012941,0
67.174,0.0001368,0
67.175,0.0001373,0
67.175,0.00011968,0
67.176,7.4022e-05,0
67.177,1.9303e-05,0
67.177,-1.9974e-05,0
67.178,-4.213e-05,0
67.178,-5.8915e-05,0
67.179,-7.3518e-05,0
67.179,-8.1575e-05,0
67.18,-8.0903e-05,0
67.18,-7.1e-05,0
67.181,-6.009e-05,0
67.181,-5.4047e-05,0
67.182,-4.5823e-05,0
67.182,-3.4913e-05,0
67.183,-2.4506e-05,0
67.183,-2.031e-05,0
67.184,-2.8367e-05,0
67.184,-4.9851e-05,0
67.185,-7.57e-05,0
67.185,-9.987e-05,0
67.186,-0.00011951,0
67.186,-0.00013512,0
67.187,-0.00014318,0
67.187,-0.00013663,0
67.188,-0.00011397,0
67.188,-7.6036e-05,0
67.189,-2.9206e-05,0
67.189,1.7288e-05,0
67.19,6.1097e-05,0
67.191,0.00010423,0
67.191,0.00014838,0
67.192,0.00018648,0
67.192,0.00021099,0
67.193,0.00021871,0
67.193,0.00021736,0
67.194,0.00021837,0
67.194,0.00021636,0
67.195,0.00020612,0
67.195,0.00019655,0
67.196,0.00019303,0
67.196,0.00018044,0
67.197,0.00015291,0
67.197,0.00012203,0
67.198,9.2485e-05,0
67.198,6.1936e-05,0
67.199,3.4745e-05,0
67.199,1.1582e-05,0
67.2,-1.9974e-05,0
67.2,-5.9251e-05,0
67.201,-9.0471e-05,0
67.201,-0.00010289,0
67.202,-0.0001044,0
67.202,-0.00010423,0
67.203,-0.00010524,0
67.204,-0.00010826,0
67.204,-0.00011061,0
67.205,-0.00010793,0
67.205,-9.5506e-05,0
67.206,-7.1672e-05,0
67.206,-5.388e-05,0
67.207,-5.4215e-05,0
67.207,-7.0329e-05,0
67.208,-9.8192e-05,0
67.208,-0.00012706,0
67.209,-0.00014368,0
67.209,-0.0001368,0
67.21,-9.9535e-05,0
67.21,-3.9277e-05,0
67.211,2.266e-05,0
67.211,7.2679e-05,0
67.212,0.0001185,0
67.212,0.00017221,0
67.213,0.00023314,0
67.213,0.00027628,0
67.214,0.0002845,0
67.214,0.00028249,0
67.215,0.0002845,0
67.215,0.00028249,0
67.216,0.00026134,0
67.216,0.00021669,0
67.217,0.00015962,0
67.218,0.00010457,0
67.218,6.2943e-05,0
67.219,3.4745e-05,0
67.219,1.0575e-05,0
67.22,-1.3092e-05,0
67.22,-2.7024e-05,0
67.221,-2.7192e-05,0
67.221,-2.6352e-05,0
67.222,-3.3906e-05,0
67.222,-4.7837e-05,0
67.223,-6.4622e-05,0
67.223,-7.8721e-05,0
67.224,-8.1743e-05,0
67.224,-6.9154e-05,0
67.225,-5.6062e-05,0
67.225,-5.539e-05,0
67.226,-6.2272e-05,0
67.226,-6.714e-05,0
67.227,-6.7308e-05,0
67.227,-6.1265e-05,0
67.228,-4.5655e-05,0
67.228,-2.1317e-05,0
67.229,1.0071e-06,0
67.229,2.2324e-05,0
67.23,4.2802e-05,0
67.231,5.623e-05,0
67.231,5.6901e-05,0
67.232,4.7501e-05,0
67.232,3.0549e-05,0
67.233,1.1078e-05,0
67.233,-3.8605e-06,0
67.234,-2.0142e-06,0
67.234,2.1317e-05,0
67.235,5.3544e-05,0
67.235,7.6371e-05,0
67.236,7.805e-05,0
67.236,5.8244e-05,0
67.237,2.7359e-05,0
67.237,-6.0426e-06,0
67.238,-3.7095e-05,0
67.238,-6.2608e-05,0
67.239,-7.8721e-05,0
67.239,-8.4092e-05,0
67.24,-7.9728e-05,0
67.24,-7.7546e-05,0
67.241,-8.8289e-05,0
67.241,-0.00010071,0
67.242,-0.00010222,0
67.242,-9.4499e-05,0
67.243,-8.3757e-05,0
67.243,-6.63e-05,0
67.244,-3.8773e-05,0
67.245,-4.5319e-06,0
67.245,2.4506e-05,0
67.246,3.2731e-05,0
67.246,1.9303e-05,0
67.247,1.6785e-06,0
67.247,-2.5177e-06,0
67.248,1.0575e-05,0
67.248,2.9374e-05,0
67.249,4.5487e-05,0
67.249,5.2705e-05,0
67.25,5.1865e-05,0
67.25,5.1865e-05,0
67.251,5.8579e-05,0
67.251,7.5029e-05,0
67.252,0.00010608,0
67.252,0.00013999,0
67.253,0.00015526,0
67.253,0.00014284,0
67.254,0.00010809,0
67.254,6.4958e-05,0
67.255,2.9038e-05,0
67.255,3.8605e-06,0
67.256,-1.5106e-05,0
67.256,-3.2395e-05,0
67.257,-4.5823e-05,0
67.258,-4.7501e-05,0
67.258,-4.213e-05,0
67.259,-3.8437e-05,0
67.259,-3.3906e-05,0
67.26,-1.4435e-05,0
67.26,2.2492e-05,0
67.261,6.4286e-05,0
67.261,0.00010726,0
67.262,0.00014385,0
67.262,0.00016214,0
67.263,0.00015543,0
67.263,0.00013747,0
67.264,0.00013143,0
67.264,0.00013663,0
67.265,0.00013747,0
67.265,0.00013411,0
67.266,0.00013445,0
67.266,0.00013495,0
67.267,0.00012538,0
67.267,0.00010625,0
67.268,8.9632e-05,0
67.268,7.3854e-05,0
67.269,5.3208e-05,0
67.269,3.1052e-05,0
67.27,1.1246e-05,0
67.27,-3.8605e-06,0
67.271,-1.3596e-05,0
67.272,-1.7792e-05,0
67.272,-2.2995e-05,0
67.273,-3.3402e-05,0
67.273,-3.9109e-05,0
67.274,-3.5416e-05,0
67.274,-2.8031e-05,0
67.275,-2.3835e-05,0
67.275,-2.9206e-05,0
67.276,-5.2873e-05,0
67.276,-9.4835e-05,0
67.277,-0.0001415,0
67.277,-0.00017557,0
67.278,-0.00019084,0
67.278,-0.00019319,0
67.279,-0.00018463,0
67.279,-0.00016046,0
67.28,-0.0001274,0
67.28,-9.2317e-05,0
67.281,-5.388e-05,0
67.281,-6.714e-07,0
67.282,7.7882e-05,0
67.282,0.00016231,0
67.283,0.00021971,0
67.283,0.00024724,0
67.284,0.00025765,0
67.285,0.0002553,0
67.285,0.00024254,0
67.286,0.0002177,0
67.286,0.0001754,0
67.287,0.00012773,0
67.287,8.8457e-05,0
67.288,5.8076e-05,0
67.288,3.3402e-05,0
67.289,1.2253e-05,0
67.289,-7.3854e-06,0
67.29,-1.7792e-05,0
67.29,-2.2995e-05,0
67.291,-3.508e-05,0
67.291,-5.2537e-05,0
67.292,-6.6972e-05,0
67.292,-7.2343e-05,0
67.293,-7.0329e-05,0
67.293,-7.4525e-05,0
67.294,-8.896e-05,0
67.294,-0.00010642,0
67.295,-0.00012303,0
67.295,-0.00014267,0
67.296,-0.00016768,0
67.296,-0.00018698,0
67.297,-0.00018749,0
67.297,-0.00016802,0
67.298,-0.00013646,0
67.299,-9.8863e-05,0
67.299,-5.6397e-05,0
67.3,-4.5319e-06,0
67.3,5.5894e-05,0
67.301,0.0001232,0
67.301,0.00020058,0
67.302,0.00027309,0
67.302,0.00030649,0
67.303,0.0002986,0
67.303,0.00027645,0
67.304,0.00024758,0
67.304,0.00020662,0
67.305,0.00015258,0
67.305,9.7353e-05,0
67.306,5.5222e-05,0
67.306,2.9206e-05,0
67.307,1.2757e-05,0
67.307,1.8463e-06,0
67.308,-6.2104e-06,0
67.308,-1.4939e-05,0
67.309,-2.2995e-05,0
67.309,-3.1052e-05,0
67.31,-3.978e-05,0
67.31,-4.6494e-05,0
67.311,-5.3544e-05,0
67.312,-6.5293e-05,0
67.312,-7.6371e-05,0
67.313,-7.57e-05,0
67.313,-6.5293e-05,0
67.314,-5.6733e-05,0
67.314,-5.1362e-05,0
67.315,-4.9348e-05,0
67.315,-5.0858e-05,0
67.316,-5.153e-05,0
67.316,-4.5655e-05,0
67.317,-2.9709e-05,0
67.317,-9.3996e-06,0
67.318,8.7282e-06,0
67.318,2.7695e-05,0
67.319,5.4719e-05,0
67.319,8.8792e-05,0
67.32,0.00011464,0
67.32,0.00011733,0
67.321,0.00010272,0
67.321,9.0974e-05,0
67.322,8.5771e-05,0
67.322,7.8386e-05,0
67.323,5.9586e-05,0
67.323,3.7934e-05,0
67.324,2.6352e-05,0
67.325,2.8031e-05,0
67.325,4.062e-05,0
67.326,5.7237e-05,0
67.326,7.4022e-05,0
67.327,8.51e-05,0
67.327,7.7211e-05,0
67.328,5.0858e-05,0
67.328,2.2324e-05,0
67.329,3.1891e-06,0
67.329,-9.2317e-06,0
67.33,-1.6281e-05,0
67.33,-1.9303e-05,0
67.331,-2.3667e-05,0
67.331,-2.9038e-05,0
67.332,-3.4409e-05,0
67.332,-3.9445e-05,0
67.333,-4.448e-05,0
67.333,-5.5222e-05,0
67.334,-7.6539e-05,0
67.334,-0.00010054,0
67.335,-0.0001091,0
67.335,-9.9199e-05,0
67.336,-8.3421e-05,0
67.336,-7.0329e-05,0
67.337,-6.0929e-05,0
67.337,-4.1459e-05,0
67.338,-3.6927e-06,0
67.339,4.8844e-05,0
67.339,0.00011128,0
67.34,0.00016432,0
67.34,0.00017977,0
67.341,0.00015694,0
67.341,0.00011666,0
67.342,8.1407e-05,0
67.342,5.9922e-05,0
67.343,4.1794e-05,0
67.343,1.7624e-05,0
67.344,2.5177e-06,0
67.344,1.3931e-05,0
67.345,3.7766e-05,0
67.345,5.2201e-05,0
67.346,6.0594e-05,0
67.346,7.3686e-05,0
67.347,8.661e-05,0
67.347,9.0135e-05,0
67.348,7.8218e-05,0
67.348,6.5629e-05,0
67.349,6.7979e-05,0
67.349,7.7714e-05,0
67.35,8.2918e-05,0
67.35,7.9057e-05,0
67.351,6.2943e-05,0
67.352,3.743e-05,0
67.352,1.4939e-05,0
67.353,2.5177e-06,0
67.353,2.0142e-06,0
67.354,1.2924e-05,0
67.354,3.0045e-05,0
67.355,4.0116e-05,0
67.355,3.2898e-05,0
67.356,1.4603e-05,0
67.356,-3.1891e-06,0
67.357,-1.5106e-05,0
67.357,-1.9638e-05,0
67.358,-1.7288e-05,0
67.358,-7.5532e-06,0
67.359,3.1891e-06,0
67.359,3.5248e-06,0
67.36,-7.7211e-06,0
67.36,-2.2995e-05,0
67.361,-3.3402e-05,0
67.361,-2.9709e-05,0
67.362,-1.6281e-05,0
67.362,-1.1246e-05,0
67.363,-1.9135e-05,0
67.363,-2.4338e-05,0
67.364,-1.8967e-05,0
67.364,-1.6281e-05,0
67.365,-2.6352e-05,0
67.366,-3.9277e-05,0
67.366,-3.8437e-05,0
67.367,-1.561e-05,0
67.367,7.8889e-06,0
67.368,2.8534e-06,0
67.368,-2.6184e-05,0
67.369,-5.6397e-05,0
67.369,-7.4189e-05,0
67.37,-8.0568e-05,0
67.37,-8.0064e-05,0
67.371,-7.1839e-05,0
67.371,-5.5894e-05,0
67.372,-3.508e-05,0
67.372,-1.1582e-05,0
67.373,1.5274e-05,0
67.373,4.213e-05,0
67.374,7.6707e-05,0
67.374,0.00012404,0
67.375,0.00017104,0
67.375,0.0001984,0
67.376,0.00019722,0
67.376,0.00017305,0
67.377,0.00013948,0
67.377,0.00010994,0
67.378,8.7449e-05,0
67.379,6.8986e-05,0
67.379,5.0858e-05,0
67.38,3.4409e-05,0
67.38,2.1988e-05,0
67.381,1.3596e-05,0
67.381,5.8747e-06,0
67.382,-1.5106e-06,0
67.382,-6.0426e-06,0
67.383,-8.896e-06,0
67.383,-1.2253e-05,0
67.384,-1.4603e-05,0
67.384,-1.4267e-05,0
67.385,-1.7288e-05,0
67.385,-2.6856e-05,0
67.386,-3.5416e-05,0
67.386,-3.9948e-05,0
67.387,-4.683e-05,0
67.387,-6.1769e-05,0
67.388,-7.9728e-05,0
67.388,-9.366e-05,0
67.389,-0.00010037,0
67.389,-9.8192e-05,0
67.39,-8.3757e-05,0
67.39,-5.5894e-05,0
67.391,-2.031e-05,0
67.391,1.7288e-05,0
67.392,5.3544e-05,0
67.393,7.9728e-05,0
67.393,8.9128e-05,0
67.394,8.8457e-05,0
67.394,9.5171e-05,0
67.395,0.00011531,0
67.395,0.00013814,0
67.396,0.00014586,0
67.396,0.00012807,0
67.397,9.7185e-05,0
67.397,6.8147e-05,0
67.398,4.7333e-05,0
67.398,3.4745e-05,0
67.399,3.5416e-05,0
67.399,4.8508e-05,0
67.4,5.8244e-05,0
67.4,5.7572e-05,0
67.401,5.1194e-05,0
67.401,4.5991e-05,0
67.402,4.448e-05,0
67.402,5.6733e-05,0
67.403,7.805e-05,0
67.403,8.0903e-05,0
67.404,5.8915e-05,0
67.404,3.8773e-05,0
67.405,3.9948e-05,0
67.406,5.5558e-05,0
67.406,5.8747e-05,0
67.407,3.7766e-05,0
67.407,9.2317e-06,0
67.408,-4.5319e-06,0
67.408,5.0355e-07,0
67.409,1.0575e-05,0
67.409,1.8631e-05,0
67.41,3.2731e-05,0
67.41,5.3544e-05,0
67.411,7.1672e-05,0
67.411,6.9657e-05,0
67.412,3.8773e-05,0
67.412,-3.1891e-06,0
67.413,-3.7095e-05,0
67.413,-6.1433e-05,0
67.414,-8.2918e-05,0
67.414,-9.5338e-05,0
67.415,-9.4331e-05,0
67.415,-8.3589e-05,0
67.416,-6.0258e-05,0
67.416,-2.9206e-05,0
67.417,-7.8889e-06,0
67.417,-2.0142e-06,0
67.418,1.1749e-06,0
67.418,1.6281e-05,0
67.419,3.6088e-05,0
67.42,4.9683e-05,0
67.42,5.6901e-05,0
67.421,6.3447e-05,0
67.421,6.7979e-05,0
67.422,6.0761e-05,0
67.422,4.2466e-05,0
67.423,2.3667e-05,0
67.423,5.539e-06,0
67.424,-1.2421e-05,0
67.424,-2.7863e-05,0
67.425,-4.2298e-05,0
67.425,-5.6733e-05,0
67.426,-6.4286e-05,0
67.426,-6.2272e-05,0
67.427,-5.6397e-05,0
67.427,-4.6159e-05,0
67.428,-3.6088e-05,0
67.428,-2.8534e-05,0
67.429,-1.9638e-05,0
67.429,-8.3925e-06,0
67.43,1.1749e-06,0
67.43,1.0239e-05,0
67.431,2.501e-05,0
67.431,4.2634e-05,0
67.432,4.9516e-05,0
67.433,4.6494e-05,0
67.433,4.213e-05,0
67.434,3.9109e-05,0
67.434,3.6088e-05,0
67.435,3.592e-05,0
67.435,3.8102e-05,0
67.436,3.7095e-05,0
67.436,3.3738e-05,0
67.437,3.122e-05,0
67.437,2.6688e-05,0
67.438,2.1317e-05,0
67.438,1.8128e-05,0
67.439,1.2589e-05,0
67.439,5.2033e-06,0
67.44,1.1749e-06,0
67.44,-6.714e-07,0
67.441,-2.8534e-06,0
67.441,-6.2104e-06,0
67.442,-1.2589e-05,0
67.442,-1.9638e-05,0
67.443,-1.9974e-05,0
67.443,-1.2085e-05,0
67.444,-1.6785e-06,0
67.444,6.5461e-06,0
67.445,1.1078e-05,0
67.445,1.2757e-05,0
67.446,1.9303e-05,0
67.447,3.5416e-05,0
67.447,5.5222e-05,0
67.448,6.6972e-05,0
67.448,6.6133e-05,0
67.449,6.2608e-05,0
67.449,6.6972e-05,0
67.45,8.1071e-05,0
67.45,9.9199e-05,0
67.451,0.00011263,0
67.451,0.00011934,0
67.452,0.00011666,0
67.452,9.7856e-05,0
67.453,6.2943e-05,0
67.453,2.1988e-05,0
67.454,-1.8296e-05,0
67.454,-5.8747e-05,0
67.455,-9.1981e-05,0
67.455,-0.00010155,0
67.456,-8.896e-05,0
67.456,-7.3686e-05,0
67.457,-6.1433e-05,0
67.457,-3.7766e-05,0
67.458,4.5319e-06,0
67.458,5.388e-05,0
67.459,9.2821e-05,0
67.46,0.00012505,0
67.46,0.00015644,0
67.461,0.00018279,0
67.461,0.0001895,0
67.462,0.00016802,0
67.462,0.00012706,0
67.463,8.6442e-05,0
67.463,5.6565e-05,0
67.464,3.0716e-05,0
67.464,1.2924e-05,0
67.465,1.5946e-05,0
67.465,3.3402e-05,0
67.466,4.8844e-05,0
67.466,5.5558e-05,0
67.467,4.8173e-05,0
67.467,2.1988e-05,0
67.468,-1.4771e-05,0
67.468,-3.9109e-05,0
67.469,-3.7263e-05,0
67.469,-2.1485e-05,0
67.47,-5.539e-06,0
67.47,-2.3499e-06,0
67.471,-1.091e-05,0
67.471,-1.561e-05,0
67.472,-1.2421e-05,0
67.472,1.6785e-07,0
67.473,2.7695e-05,0
67.474,6.4286e-05,0
67.474,9.6513e-05,0
67.475,0.00012136,0
67.475,0.00013344,0
67.476,0.00012673,0
67.476,0.00010121,0
67.477,6.7308e-05,0
67.477,3.5416e-05,0
67.478,9.9031e-06,0
67.478,-1.3092e-05,0
67.479,-3.3066e-05,0
67.479,-4.6494e-05,0
67.48,-5.388e-05,0
67.48,-5.774e-05,0
67.481,-6.1097e-05,0
67.481,-6.5293e-05,0
67.482,-6.7979e-05,0
67.482,-6.5965e-05,0
67.483,-5.9586e-05,0
67.483,-5.3544e-05,0
67.484,-5.0858e-05,0
67.484,-4.9516e-05,0
67.485,-5.2873e-05,0
67.485,-5.8579e-05,0
67.486,-5.5055e-05,0
67.487,-3.3402e-05,0
67.487,-2.0142e-06,0
67.488,2.0645e-05,0
67.488,2.7863e-05,0
67.489,2.6352e-05,0
67.489,2.2995e-05,0
67.49,2.2995e-05,0
67.49,2.5177e-05,0
67.491,2.2995e-05,0
67.491,1.9303e-05,0
67.492,1.5778e-05,0
67.492,6.5461e-06,0
67.493,-9.5674e-06,0
67.493,-2.1317e-05,0
67.494,-2.1653e-05,0
67.494,-1.4099e-05,0
67.495,-6.8818e-06,0
67.495,-4.1962e-06,0
67.496,-2.3499e-06,0
67.496,5.0355e-07,0
67.497,5.7069e-06,0
67.497,1.3596e-05,0
67.498,2.266e-05,0
67.498,2.8367e-05,0
67.499,2.5681e-05,0
67.499,1.7288e-05,0
67.5,1.326e-05,0
67.501,1.4603e-05,0
67.501,1.4939e-05,0
67.502,8.5603e-06,0
67.502,0,0
67.503,-5.3712e-06,0
67.503,-1.1582e-05,0
67.504,-2.7359e-05,0
67.504,-4.4648e-05,0
67.505,-4.8844e-05,0
67.505,-3.9109e-05,0
67.506,-2.5849e-05,0
67.506,-1.5274e-05,0
67.507,-3.8605e-06,0
67.507,1.4435e-05,0
67.508,3.7934e-05,0
67.508,6.1936e-05,0
67.509,9.2149e-05,0
67.509,0.00012287,0
67.51,0.00012572,0
67.51,8.9128e-05,0
67.511,4.3473e-05,0
67.511,1.3931e-05,0
67.512,4.8676e-06,0
67.512,1.0575e-05,0
67.513,2.1317e-05,0
67.513,3.3402e-05,0
67.514,5.069e-05,0
67.515,7.6036e-05,0
67.515,0.00010457,0
67.516,0.00012975,0
67.516,0.00015425,0
67.517,0.00018245,0
67.517,0.00019857,0
67.518,0.00018849,0
67.518,0.00015962,0
67.519,0.00013193,0
67.519,0.00011984,0
67.52,0.0001185,0
67.52,0.000118,0
67.521,0.00010994,0
67.521,9.2485e-05,0
67.522,6.7475e-05,0
67.522,4.213e-05,0
67.523,1.8463e-05,0
67.523,-2.8534e-06,0
67.524,-2.2492e-05,0
67.524,-4.1291e-05,0
67.525,-5.8915e-05,0
67.525,-6.8315e-05,0
67.526,-6.7811e-05,0
67.526,-6.1936e-05,0
67.527,-5.069e-05,0
67.528,-3.508e-05,0
67.528,-2.1653e-05,0
67.529,-1.5106e-05,0
67.529,-1.1582e-05,0
67.53,-1.3428e-06,0
67.53,1.1917e-05,0
67.531,1.8296e-05,0
67.531,1.2589e-05,0
67.532,-2.8534e-06,0
67.532,-2.0645e-05,0
67.533,-4.1291e-05,0
67.533,-6.714e-05,0
67.534,-9.3324e-05,0
67.534,-0.00011531,0
67.535,-0.00013109,0
67.535,-0.0001373,0
67.536,-0.00013512,0
67.536,-0.00012908,0
67.537,-0.00011917,0
67.537,-0.00010172,0
67.538,-8.0735e-05,0
67.538,-5.1865e-05,0
67.539,-6.2104e-06,0
67.539,5.2201e-05,0
67.54,0.00010625,0
67.54,0.00014385,0
67.541,0.00015828,0
67.542,0.0001509,0
67.542,0.00013193,0
67.543,0.00011363,0
67.543,0.00010222,0
67.544,0.00010188,0
67.544,0.00010608,0
67.545,0.00010759,0
67.545,0.00010507,0
67.546,0.00010021,0
67.546,8.9632e-05,0
67.547,7.1336e-05,0
67.547,5.7069e-05,0
67.548,5.4719e-05,0
67.548,5.6565e-05,0
67.549,5.5726e-05,0
67.549,5.6733e-05,0
67.55,6.3615e-05,0
67.55,6.5461e-05,0
67.551,5.1194e-05,0
67.551,2.3163e-05,0
67.552,-7.5532e-06,0
67.552,-3.5248e-05,0
67.553,-5.9754e-05,0
67.553,-8.04e-05,0
67.554,-9.9199e-05,0
67.555,-0.00010877,0
67.555,-9.8863e-05,0
67.556,-7.8553e-05,0
67.556,-6.2943e-05,0
67.557,-4.5823e-05,0
67.557,-9.2317e-06,0
67.558,3.592e-05,0
67.558,5.9251e-05,0
67.559,5.4887e-05,0
67.559,3.6423e-05,0
67.56,1.1917e-05,0
67.56,-2.1653e-05,0
67.561,-6.7643e-05,0
67.561,-0.00011884,0
67.562,-0.00015946,0
67.562,-0.00017859,0
67.563,-0.00017876,0
67.563,-0.00016701,0
67.564,-0.00014939,0
67.564,-0.00011833,0
67.565,-7.1e-05,0
67.565,-1.6953e-05,0
67.566,3.8773e-05,0
67.566,9.9535e-05,0
67.567,0.00016835,0
67.567,0.00023986,0
67.568,0.00028685,0
67.569,0.00028887,0
67.569,0.00026638,0
67.57,0.00025278,0
67.57,0.00024758,0
67.571,0.00022643,0
67.571,0.00018363,0
67.572,0.00013176,0
67.572,8.5603e-05,0
67.573,5.2705e-05,0
67.573,3.6759e-05,0
67.574,3.0716e-05,0
67.574,2.1653e-05,0
67.575,7.5532e-06,0
67.575,-8.2246e-06,0
67.576,-1.9974e-05,0
67.576,-2.887e-05,0
67.577,-3.6088e-05,0
67.577,-4.1794e-05,0
67.578,-4.213e-05,0
67.578,-2.9709e-05,0
67.579,-1.0407e-05,0
67.579,1.5106e-06,0
67.58,-5.0355e-07,0
67.58,-9.2317e-06,0
67.581,-1.6953e-05,0
67.582,-1.8631e-05,0
67.582,-2.031e-05,0
67.583,-3.2059e-05,0
67.583,-5.2537e-05,0
67.584,-7.335e-05,0
67.584,-9.1142e-05,0
67.585,-0.00010407,0
67.585,-0.00010172,0
67.586,-8.3589e-05,0
67.586,-5.7572e-05,0
67.587,-2.7024e-05,0
67.587,2.8534e-06,0
67.588,3.0716e-05,0
67.588,6.1936e-05,0
67.589,9.9702e-05,0
67.589,0.00014083,0
67.59,0.00018379,0
67.59,0.00021468,0
67.591,0.00021317,0
67.591,0.00017977,0
67.592,0.00013243,0
67.592,8.9799e-05,0
67.593,5.7908e-05,0
67.593,3.3906e-05,0
67.594,1.6785e-05,0
67.594,4.5319e-06,0
67.595,-4.5319e-06,0
67.596,-1.3596e-05,0
67.596,-2.3163e-05,0
67.597,-2.501e-05,0
67.597,-1.2253e-05,0
67.598,3.6927e-06,0
67.598,1.0575e-05,0
67.599,6.5461e-06,0
67.599,-1.1749e-06,0
67.6,-1.8463e-06,0
67.6,3.0213e-06,0
67.601,1.6785e-06,0
67.601,-1.1414e-05,0
67.602,-2.7695e-05,0
67.602,-4.2298e-05,0
67.603,-5.4047e-05,0
67.603,-6.3447e-05,0
67.604,-7.1336e-05,0
67.604,-7.6707e-05,0
67.605,-8.426e-05,0
67.605,-9.4835e-05,0
67.606,-0.00010524,0
67.606,-0.0001086,0
67.607,-9.8527e-05,0
67.607,-8.1743e-05,0
67.608,-6.6133e-05,0
67.609,-4.9851e-05,0
67.609,-2.3667e-05,0
67.61,1.7288e-05,0
67.61,6.4286e-05,0
67.611,0.00010323,0
67.611,0.00013579,0
67.612,0.00016332,0
67.612,0.00017574,0
67.613,0.000165,0
67.613,0.00013797,0
67.614,0.00011531,0
67.614,9.7856e-05,0
67.615,7.3686e-05,0
67.615,5.1698e-05,0
67.616,5.153e-05,0
67.616,6.9322e-05,0
67.617,8.0903e-05,0
67.617,6.9657e-05,0
67.618,3.9612e-05,0
67.618,6.714e-06,0
67.619,-1.3764e-05,0
67.619,-3.0884e-05,0
67.62,-4.448e-05,0
67.62,-4.0452e-05,0
67.621,-1.6617e-05,0
67.621,2.2324e-05,0
67.622,6.3783e-05,0
67.623,9.3156e-05,0
67.623,0.00010591,0
67.624,0.00010826,0
67.624,0.00011028,0
67.625,0.00010222,0
67.625,6.63e-05,0
67.626,6.0426e-06,0
67.626,-5.4215e-05,0
67.627,-8.9464e-05,0
67.627,-9.2317e-05,0
67.628,-7.57e-05,0
67.628,-5.3544e-05,0
67.629,-2.7359e-05,0
67.629,9.5674e-06,0
67.63,5.5222e-05,0
67.63,9.752e-05,0
67.631,0.00011867,0
67.631,0.00010977,0
67.632,7.6875e-05,0
67.632,3.6423e-05,0
67.633,1.0239e-05,0
67.633,3.6927e-06,0
67.634,-3.357e-06,0
67.634,-2.7695e-05,0
67.635,-5.539e-05,0
67.636,-7.0329e-05,0
67.636,-7.7546e-05,0
67.637,-8.9799e-05,0
67.637,-0.00010944,0
67.638,-0.00013075,0
67.638,-0.00014771,0
67.639,-0.0001519,0
67.639,-0.00013545,0
67.64,-9.8863e-05,0
67.64,-4.6662e-05,0
67.641,7.8889e-06,0
67.641,5.0858e-05,0
67.642,8.4092e-05,0
67.642,0.00012136,0
67.643,0.00015828,0
67.643,0.00018648,0
67.644,0.00020159,0
67.644,0.00021099,0
67.645,0.00022139,0
67.645,0.00022358,0
67.646,0.00021669,0
67.646,0.00020394,0
67.647,0.00018178,0
67.647,0.00014855,0
67.648,0.00011095,0
67.648,7.4022e-05,0
67.649,4.1794e-05,0
67.65,1.5442e-05,0
67.65,-7.5532e-06,0
67.651,-2.8031e-05,0
67.651,-4.3977e-05,0
67.652,-5.4551e-05,0
67.652,-6.0258e-05,0
67.653,-6.1601e-05,0
67.653,-5.9922e-05,0
67.654,-5.388e-05,0
67.654,-4.6662e-05,0
67.655,-4.3809e-05,0
67.655,-4.0787e-05,0
67.656,-3.1052e-05,0
67.656,-1.7624e-05,0
67.657,-8.2246e-06,0
67.657,-7.3854e-06,0
67.658,-1.3092e-05,0
67.658,-1.7624e-05,0
67.659,-1.6617e-05,0
67.659,-1.1414e-05,0
67.66,-3.1891e-06,0
67.66,5.8747e-06,0
67.661,1.326e-05,0
67.661,1.6449e-05,0
67.662,1.4603e-05,0
67.663,5.8747e-06,0
67.663,-6.5461e-06,0
67.664,-1.6785e-05,0
67.664,-1.796e-05,0
67.665,-9.2317e-06,0
67.665,-3.357e-07,0
67.666,2.3499e-06,0
67.666,1.5106e-06,0
67.667,4.1962e-06,0
67.667,8.896e-06,0
67.668,1.2589e-05,0
67.668,1.091e-05,0
67.669,4.8676e-06,0
67.669,-8.3925e-07,0
67.67,-6.5461e-06,0
67.67,-1.1246e-05,0
67.671,-1.3931e-05,0
67.671,-1.091e-05,0
67.672,-2.8534e-06,0
67.672,7.5532e-06,0
67.673,2.1149e-05,0
67.673,3.1556e-05,0
67.674,3.6759e-05,0
67.674,4.1291e-05,0
67.675,5.0187e-05,0
67.675,5.6733e-05,0
67.676,4.5823e-05,0
67.677,1.5106e-05,0
67.677,-1.7624e-05,0
67.678,-3.8437e-05,0
67.678,-5.3208e-05,0
67.679,-6.8482e-05,0
67.679,-7.6204e-05,0
67.68,-6.9322e-05,0
67.68,-4.9851e-05,0
67.681,-1.8967e-05,0
67.681,1.7121e-05,0
67.682,5.0858e-05,0
67.682,8.4428e-05,0
67.683,0.00011229,0
67.683,0.00012605,0
67.684,0.00012992,0
67.684,0.00013545,0
67.685,0.00013411,0
67.685,0.00011598,0
67.686,8.5771e-05,0
67.686,5.5726e-05,0
67.687,3.4577e-05,0
67.687,3.1724e-05,0
67.688,3.9612e-05,0
67.688,4.8844e-05,0
67.689,5.9586e-05,0
67.69,6.6636e-05,0
67.69,6.6972e-05,0
67.691,5.8915e-05,0
67.691,4.4144e-05,0
67.692,3.2731e-05,0
67.692,2.9877e-05,0
67.693,3.6759e-05,0
67.693,4.9851e-05,0
67.694,6.3615e-05,0
67.694,7.0832e-05,0
67.695,6.4286e-05,0
67.695,4.5487e-05,0
67.696,1.9806e-05,0
67.696,-3.5248e-06,0
67.697,-1.1078e-05,0
67.697,-1.0407e-05,0
67.698,-1.6953e-05,0
67.698,-3.9445e-05,0
67.699,-7.2007e-05,0
67.699,-9.9031e-05,0
67.7,-0.00010524,0
67.7,-9.0806e-05,0
67.701,-6.5293e-05,0
67.701,-4.2802e-05,0
67.702,-2.4002e-05,0
67.703,1.8463e-06,0
67.703,4.2802e-05,0
67.704,9.1142e-05,0
67.704,0.00013075,0
67.705,0.00015274,0
67.705,0.00015258,0
67.706,0.00012723,0
67.706,8.51e-05,0
67.707,4.5151e-05,0
67.707,1.9135e-05,0
67.708,7.8889e-06,0
67.708,3.5248e-06,0
67.709,-2.5177e-06,0
67.709,-8.896e-06,0
67.71,-1.3596e-05,0
67.71,-2.3667e-05,0
67.711,-3.4241e-05,0
67.711,-3.6591e-05,0
67.712,-3.0045e-05,0
67.712,-1.8463e-05,0
67.713,-4.8676e-06,0
67.713,7.5532e-06,0
67.714,1.7792e-05,0
67.714,2.5177e-05,0
67.715,3.1556e-05,0
67.715,2.5345e-05,0
67.716,-3.5248e-06,0
67.717,-4.6326e-05,0
67.717,-8.3085e-05,0
67.718,-0.00010776,0
67.718,-0.00012102,0
67.719,-0.00012639,0
67.719,-0.0001227,0
67.72,-0.00010692,0
67.72,-8.1407e-05,0
67.721,-5.0187e-05,0
67.721,-1.1582e-05,0
67.722,3.8773e-05,0
67.722,0.00010222,0
67.723,0.00016886,0
67.723,0.00021401,0
67.724,0.00021871,0
67.724,0.0001942,0
67.725,0.00016298,0
67.725,0.00013462,0
67.726,0.0001086,0
67.726,8.3085e-05,0
67.727,5.8412e-05,0
67.727,3.7934e-05,0
67.728,2.2995e-05,0
67.728,1.1078e-05,0
67.729,5.0355e-07,0
67.73,-6.714e-06,0
67.73,-1.1246e-05,0
67.731,-1.3764e-05,0
67.731,-1.6785e-05,0
67.732,-2.0142e-05,0
67.732,-1.9806e-05,0
67.733,-1.5274e-05,0
67.733,-3.5248e-06,0
67.734,7.7211e-06,0
67.734,9.9031e-06,0
67.735,6.2104e-06,0
67.735,-4.8676e-06,0
67.736,-2.0981e-05,0
67.736,-3.592e-05,0
67.737,-4.7166e-05,0
67.737,-5.9251e-05,0
67.738,-6.9993e-05,0
67.738,-7.0329e-05,0
67.739,-5.9251e-05,0
67.739,-5.0355e-05,0
67.74,-4.9851e-05,0
67.74,-4.9516e-05,0
67.741,-3.8605e-05,0
67.741,-1.2253e-05,0
67.742,2.5681e-05,0
67.742,6.9657e-05,0
67.743,0.00011498,0
67.744,0.00015828,0
67.744,0.00018883,0
67.745,0.00019588,0
67.745,0.00018598,0
67.746,0.00017322,0
67.746,0.00015879,0
67.747,0.00013478,0
67.747,0.00010491,0
67.748,7.3686e-05,0
67.748,5.1865e-05,0
67.749,5.1698e-05,0
67.749,6.3447e-05,0
67.75,6.4958e-05,0
67.75,4.9348e-05,0
67.751,2.0478e-05,0
67.751,-1.0575e-05,0
67.752,-2.8702e-05,0
67.752,-3.4409e-05,0
67.753,-4.0452e-05,0
67.753,-5.1362e-05,0
67.754,-6.0594e-05,0
67.754,-6.2272e-05,0
67.755,-6.6468e-05,0
67.755,-7.2679e-05,0
67.756,-6.4118e-05,0
67.757,-3.0884e-05,0
67.757,2.182e-05,0
67.758,7.8553e-05,0
67.758,0.00011431,0
67.759,0.00011397,0
67.759,9.1814e-05,0
67.76,7.0329e-05,0
67.76,5.8747e-05,0
67.761,5.6062e-05,0
67.761,5.9251e-05,0
67.762,5.4887e-05,0
67.762,3.4409e-05,0
67.763,2.0142e-06,0
67.763,-3.9445e-05,0
67.764,-7.8386e-05,0
67.764,-9.9199e-05,0
67.765,-0.00010491,0
67.765,-0.00010289,0
67.766,-9.2988e-05,0
67.766,-7.2679e-05,0
67.767,-4.9012e-05,0
67.767,-2.5345e-05,0
67.768,1.1917e-05,0
67.768,6.6133e-05,0
67.769,0.00011179,0
67.769,0.00012874,0
67.77,0.00012874,0
67.771,0.00012337,0
67.771,0.00010776,0
67.772,7.9057e-05,0
67.772,4.2802e-05,0
67.773,1.2757e-05,0
67.773,-1.1078e-05,0
67.774,-3.3402e-05,0
67.774,-5.1026e-05,0
67.775,-6.7811e-05,0
67.775,-9.0135e-05,0
67.776,-0.00011498,0
67.776,-0.00012924,0
67.777,-0.00011901,0
67.777,-8.5267e-05,0
67.778,-4.5991e-05,0
67.778,-1.2253e-05,0
67.779,1.9974e-05,0
67.779,5.0858e-05,0
67.78,8.1743e-05,0
67.78,0.00011666,0
67.781,0.00015341,0
67.781,0.00018984,0
67.782,0.00021267,0
67.782,0.00019487,0
67.783,0.00014015,0
67.784,8.5771e-05,0
67.784,5.304e-05,0
67.785,3.0716e-05,0
67.785,4.8676e-06,0
67.786,-1.796e-05,0
67.786,-2.7695e-05,0
67.787,-2.8702e-05,0
67.787,-2.7359e-05,0
67.788,-2.3331e-05,0
67.788,-1.6281e-05,0
67.789,-9.5674e-06,0
67.789,-7.8889e-06,0
67.79,-1.1749e-05,0
67.79,-1.3764e-05,0
67.791,-8.896e-06,0
67.791,-1.8463e-06,0
67.792,2.182e-06,0
67.792,3.357e-06,0
67.793,3.0213e-06,0
67.793,2.182e-06,0
67.794,5.0355e-07,0
67.794,-4.3641e-06,0
67.795,-1.2589e-05,0
67.795,-1.9638e-05,0
67.796,-2.1653e-05,0
67.796,-2.1653e-05,0
67.797,-2.3835e-05,0
67.798,-2.887e-05,0
67.798,-3.4073e-05,0
67.799,-3.5752e-05,0
67.799,-3.6423e-05,0
67.8,-3.3402e-05,0
67.8,-2.7024e-05,0
67.801,-1.7624e-05,0
67.801,-9.3996e-06,0
67.802,-5.539e-06,0
67.802,5.0355e-07,0
67.803,1.5274e-05,0
67.803,4.0787e-05,0
67.804,7.5029e-05,0
67.804,0.00010457,0
67.805,0.00011481,0
67.805,0.00010927,0
67.806,0.00010188,0
67.806,9.9199e-05,0
67.807,9.7185e-05,0
67.807,9.2149e-05,0
67.808,8.8792e-05,0
67.808,8.3757e-05,0
67.809,7.2679e-05,0
67.809,5.5222e-05,0
67.81,3.8102e-05,0
67.811,3.1052e-05,0
67.811,3.9109e-05,0
67.812,5.1362e-05,0
67.812,5.3544e-05,0
67.813,4.2466e-05,0
67.813,3.1388e-05,0
67.814,2.2995e-05,0
67.814,5.7069e-06,0
67.815,-1.6281e-05,0
67.815,-2.9709e-05,0
67.816,-3.0549e-05,0
67.816,-3.1556e-05,0
67.817,-4.3809e-05,0
67.817,-5.9922e-05,0
67.818,-6.2776e-05,0
67.818,-4.7669e-05,0
67.819,-2.2995e-05,0
67.819,5.0355e-07,0
67.82,1.9135e-05,0
67.82,3.5248e-05,0
67.821,5.6062e-05,0
67.821,8.5771e-05,0
67.822,0.00011615,0
67.822,0.00013378,0
67.823,0.00013344,0
67.823,0.00012572,0
67.824,0.00012001,0
67.825,0.00011565,0
67.825,0.00010491,0
67.826,8.04e-05,0
67.826,4.448e-05,0
67.827,1.5274e-05,0
67.827,-3.357e-06,0
67.828,-1.8967e-05,0
67.828,-3.1388e-05,0
67.829,-3.9277e-05,0
67.829,-4.4648e-05,0
67.83,-4.5487e-05,0
67.83,-4.4312e-05,0
67.831,-4.6159e-05,0
67.831,-4.9012e-05,0
67.832,-4.5823e-05,0
67.832,-3.7766e-05,0
67.833,-2.6352e-05,0
67.833,-9.3996e-06,0
67.834,1.5106e-06,0
67.834,5.0355e-06,0
67.835,2.5177e-06,0
67.835,-4.8676e-06,0
67.836,-1.3931e-05,0
67.836,-1.8463e-05,0
67.837,-1.8128e-05,0
67.838,-1.4603e-05,0
67.838,-4.8676e-06,0
67.839,1.0239e-05,0
67.839,2.501e-05,0
67.84,3.743e-05,0
67.84,4.4144e-05,0
67.841,3.5416e-05,0
67.841,1.4267e-05,0
67.842,-8.3925e-07,0
67.842,-5.539e-06,0
67.843,-1.0407e-05,0
67.843,-2.031e-05,0
67.844,-3.2563e-05,0
67.844,-3.8605e-05,0
67.845,-3.2059e-05,0
67.845,-2.1149e-05,0
67.846,-1.9638e-05,0
67.846,-2.3499e-05,0
67.847,-1.6953e-05,0
67.847,5.7069e-06,0
67.848,3.8773e-05,0
67.848,6.6468e-05,0
67.849,8.3421e-05,0
67.849,9.0471e-05,0
67.85,8.3589e-05,0
67.85,6.6972e-05,0
67.851,5.4047e-05,0
67.852,5.1194e-05,0
67.852,5.4719e-05,0
67.853,5.8579e-05,0
67.853,5.9419e-05,0
67.854,5.1865e-05,0
67.854,3.5584e-05,0
67.855,1.7288e-05,0
67.855,3.8605e-06,0
67.856,-3.1891e-06,0
67.856,-4.3641e-06,0
67.857,-2.182e-06,0
67.857,-1.5106e-06,0
67.858,-4.5319e-06,0
67.858,-6.5461e-06,0
67.859,-5.539e-06,0
67.859,1.1749e-06,0
67.86,7.7211e-06,0
67.86,1.091e-05,0
67.861,1.1246e-05,0
67.861,9.5674e-06,0
67.862,1.0071e-05,0
67.862,1.5442e-05,0
67.863,2.501e-05,0
67.863,4.0116e-05,0
67.864,5.9922e-05,0
67.865,8.1239e-05,0
67.865,9.8863e-05,0
67.866,0.00010558,0
67.866,9.7688e-05,0
67.867,8.0064e-05,0
67.867,6.1265e-05,0
67.868,4.4312e-05,0
67.868,2.0981e-05,0
67.869,-1.2253e-05,0
67.869,-4.3809e-05,0
67.87,-6.3447e-05,0
67.87,-7.0329e-05,0
67.871,-6.9993e-05,0
67.871,-6.5461e-05,0
67.872,-5.0523e-05,0
67.872,-2.0981e-05,0
67.873,1.8463e-05,0
67.873,6.4286e-05,0
67.874,0.00010994,0
67.874,0.00014586,0
67.875,0.00016902,0
67.875,0.00018094,0
67.876,0.00017809,0
67.876,0.00015744,0
67.877,0.00012119,0
67.877,6.865e-05,0
67.878,-3.1891e-06,0
67.879,-7.2343e-05,0
67.879,-0.00011817,0
67.88,-0.00013848,0
67.88,-0.00013545,0
67.881,-0.00011531,0
67.881,-8.9632e-05,0
67.882,-5.8412e-05,0
67.882,-1.8296e-05,0
67.883,1.8631e-05,0
67.883,4.8173e-05,0
67.884,7.9393e-05,0
67.884,0.00012052,0
67.885,0.00016164,0
67.885,0.00018245,0
67.886,0.00018111,0
67.886,0.00015996,0
67.887,0.00011397,0
67.887,6.2943e-05,0
67.888,3.1388e-05,0
67.888,1.7792e-05,0
67.889,1.326e-05,0
67.889,1.1582e-05,0
67.89,1.1917e-05,0
67.89,1.326e-05,0
67.891,7.5532e-06,0
67.891,-5.539e-06,0
67.892,-1.6617e-05,0
67.893,-1.7624e-05,0
67.893,-5.7069e-06,0
67.894,5.2033e-06,0
67.894,6.5461e-06,0
67.895,7.8889e-06,0
67.895,9.5674e-06,0
67.896,1.6785e-07,0
67.896,-1.091e-05,0
67.897,-1.5946e-05,0
67.897,-1.6785e-05,0
67.898,-2.031e-05,0
67.898,-2.4338e-05,0
67.899,-2.6688e-05,0
67.899,-3.122e-05,0
67.9,-4.1794e-05,0
67.9,-6.2776e-05,0
67.901,-8.7449e-05,0
67.901,-0.00010759,0
67.902,-0.00011414,0
67.902,-0.00010457,0
67.903,-8.3085e-05,0
67.903,-5.6901e-05,0
67.904,-3.1724e-05,0
67.904,-5.7069e-06,0
67.905,2.3667e-05,0
67.906,4.9851e-05,0
67.906,7.2847e-05,0
67.907,9.366e-05,0
67.907,0.00010658,0
67.908,0.0001086,0
67.908,9.2149e-05,0
67.909,6.1936e-05,0
67.909,3.4577e-05,0
67.91,1.8128e-05,0
67.91,1.1246e-05,0
67.911,9.9031e-06,0
67.911,1.091e-05,0
67.912,1.4939e-05,0
67.912,1.9806e-05,0
67.913,2.2324e-05,0
67.913,2.3331e-05,0
67.914,2.4674e-05,0
67.914,2.3667e-05,0
67.915,1.9471e-05,0
67.915,1.561e-05,0
67.916,1.0575e-05,0
67.916,4.1962e-06,0
67.917,1.1749e-06,0
67.917,6.5461e-06,0
67.918,1.3931e-05,0
67.918,1.6953e-05,0
67.919,1.6617e-05,0
67.92,1.5442e-05,0
67.92,1.6114e-05,0
67.921,2.182e-05,0
67.921,2.6352e-05,0
67.922,1.8967e-05,0
67.922,5.539e-06,0
67.923,-3.1891e-06,0
67.923,-6.8818e-06,0
67.924,-9.2317e-06,0
67.924,-1.3596e-05,0
67.925,-1.9974e-05,0
67.925,-2.1485e-05,0
67.926,-1.2253e-05,0
67.926,1.1749e-06,0
67.927,1.7456e-05,0
67.927,4.2802e-05,0
67.928,7.3014e-05,0
67.928,9.8192e-05,0
67.929,0.00011397,0
67.929,0.00011766,0
67.93,0.00010457,0
67.93,8.3589e-05,0
67.931,6.8147e-05,0
67.931,5.6901e-05,0
67.932,4.2802e-05,0
67.933,2.1653e-05,0
67.933,-4.5319e-06,0
67.934,-3.0213e-05,0
67.934,-4.7166e-05,0
67.935,-4.8508e-05,0
67.935,-3.743e-05,0
67.936,-2.1149e-05,0
67.936,-6.2104e-06,0
67.937,-1.1749e-06,0
67.937,-3.357e-06,0
67.938,-2.0142e-06,0
67.938,9.9031e-06,0
67.939,3.1388e-05,0
67.939,6.2943e-05,0
67.94,9.8527e-05,0
67.94,0.00012102,0
67.941,0.0001232,0
67.941,0.00011363,0
67.942,0.00010054,0
67.942,9.1814e-05,0
67.943,8.9967e-05,0
67.943,9.1814e-05,0
67.944,8.9464e-05,0
67.944,7.7714e-05,0
67.945,5.9251e-05,0
67.945,3.743e-05,0
67.946,1.4603e-05,0
67.947,-2.8534e-06,0
67.947,-1.1582e-05,0
67.948,-1.5946e-05,0
67.948,-2.1653e-05,0
67.949,-3.1052e-05,0
67.949,-3.978e-05,0
67.95,-4.0116e-05,0
67.95,-2.9374e-05,0
67.951,-1.0407e-05,0
67.951,8.2246e-06,0
67.952,1.3092e-05,0
67.952,5.0355e-07,0
67.953,-2.1653e-05,0
67.953,-4.0452e-05,0
67.954,-4.5319e-05,0
67.954,-3.8773e-05,0
67.955,-2.5681e-05,0
67.955,-7.5532e-06,0
67.956,7.2175e-06,0
67.956,1.0239e-05,0
67.957,-1.5106e-06,0
67.957,-1.8463e-05,0
67.958,-3.0716e-05,0
67.958,-3.1724e-05,0
67.959,-5.2033e-06,0
67.96,4.8005e-05,0
67.96,8.8289e-05,0
67.961,8.7785e-05,0
67.961,6.1433e-05,0
67.962,3.978e-05,0
67.962,3.1891e-05,0
67.963,2.9374e-05,0
67.963,3.3738e-05,0
67.964,4.4648e-05,0
67.964,6.6972e-05,0
67.965,0.00010188,0
67.965,0.00013008,0
67.966,0.00012975,0
67.966,0.00010893,0
67.967,8.7785e-05,0
67.967,6.3615e-05,0
67.968,2.8031e-05,0
67.968,-2.182e-06,0
67.969,-1.5946e-05,0
67.969,-3.0884e-05,0
67.97,-4.7333e-05,0
67.97,-4.9348e-05,0
67.971,-3.8941e-05,0
67.971,-3.0716e-05,0
67.972,-2.5681e-05,0
67.972,-1.2757e-05,0
67.973,8.5603e-06,0
67.974,2.6017e-05,0
67.974,3.1388e-05,0
67.975,2.5681e-05,0
67.975,1.1078e-05,0
67.976,-5.2033e-06,0
67.976,-1.6449e-05,0
67.977,-2.182e-05,0
67.977,-2.1653e-05,0
67.978,-1.796e-05,0
67.978,-1.9303e-05,0
67.979,-2.5849e-05,0
67.979,-3.2898e-05,0
67.98,-3.7766e-05,0
67.98,-4.2634e-05,0
67.981,-5.0523e-05,0
67.981,-5.9251e-05,0
67.982,-6.3279e-05,0
67.982,-6.009e-05,0
67.983,-5.2201e-05,0
67.983,-3.6088e-05,0
67.984,-8.2246e-06,0
67.984,3.0549e-05,0
67.985,7.5364e-05,0
67.985,0.00011061,0
67.986,0.00012522,0
67.987,0.00012605,0
67.987,0.00013193,0
67.988,0.00014318,0
67.988,0.00013915,0
67.989,0.00011363,0
67.989,7.9057e-05,0
67.99,4.7837e-05,0
67.99,2.3835e-05,0
67.991,6.0426e-06,0
67.991,-1.091e-05,0
67.992,-2.501e-05,0
67.992,-3.1052e-05,0
67.993,-3.3738e-05,0
67.993,-3.508e-05,0
67.994,-3.3066e-05,0
67.994,-2.6688e-05,0
67.995,-7.7211e-06,0
67.995,2.2324e-05,0
67.996,5.1865e-05,0
67.996,6.9657e-05,0
67.997,6.8315e-05,0
67.997,5.0019e-05,0
67.998,2.5681e-05,0
67.998,1.3428e-06,0
67.999,-3.4409e-05,0
67.999,-9.9535e-05,0
68,-0.00017691,0
68.001,-0.00021971,0
68.001,-0.00021468,0
68.002,-0.0001843,0
68.002,-0.00014485,0
68.003,-9.9535e-05,0
68.003,-5.2033e-05,0
68.004,6.3783e-06,0
68.004,8.04e-05,0
68.005,0.0001603,0
68.005,0.00023986,0
68.006,0.00031724,0
68.006,0.0003738,0
68.007,0.00037498,0
68.007,0.00031875,0
68.008,0.00023818,0
68.008,0.00017238,0
68.009,0.00013411,0
68.009,0.00010793,0
68.01,7.5029e-05,0
68.01,3.508e-05,0
68.011,1.6617e-05,0
68.011,1.9303e-05,0
68.012,1.8296e-05,0
68.012,1.091e-05,0
68.013,6.8818e-06,0
68.014,3.357e-06,0
68.014,-8.2246e-06,0
68.015,-3.0045e-05,0
68.015,-5.1362e-05,0
68.016,-5.4551e-05,0
68.016,-3.8605e-05,0
68.017,-2.3163e-05,0
68.017,-1.7121e-05,0
68.018,-1.4771e-05,0
68.018,-1.4267e-05,0
68.019,-1.8296e-05,0
68.019,-2.0645e-05,0
68.02,-6.3783e-06,0
68.02,1.9806e-05,0
68.021,3.4745e-05,0
68.021,2.9038e-05,0
68.022,4.3641e-06,0
68.022,-2.1317e-05,0
68.023,-3.7766e-05,0
68.023,-5.2369e-05,0
68.024,-8.1743e-05,0
68.024,-0.00012656,0
68.025,-0.00016013,0
68.025,-0.00015962,0
68.026,-0.00013277,0
68.026,-9.2485e-05,0
68.027,-4.1459e-05,0
68.028,8.896e-06,0
68.028,4.6494e-05,0
68.029,7.2175e-05,0
68.029,9.7185e-05,0
68.03,0.0001368,0
68.03,0.00020494,0
68.031,0.00028635,0
68.031,0.00032882,0
68.032,0.00031002,0
68.032,0.00025664,0
68.033,0.00018514,0
68.033,0.00010289,0
68.034,2.6688e-05,0
68.034,-2.4338e-05,0
68.035,-4.4144e-05,0
68.035,-4.7837e-05,0
68.036,-5.7908e-05,0
68.036,-7.6371e-05,0
68.037,-8.9632e-05,0
68.037,-9.1814e-05,0
68.038,-8.9464e-05,0
68.038,-8.5603e-05,0
68.039,-8.1743e-05,0
68.039,-7.9057e-05,0
68.04,-7.6204e-05,0
68.041,-6.9657e-05,0
68.041,-5.5726e-05,0
68.042,-4.3137e-05,0
68.042,-3.7263e-05,0
68.043,-2.4674e-05,0
68.043,8.5603e-06,0
68.044,4.213e-05,0
68.044,5.0523e-05,0
68.045,3.508e-05,0
68.045,1.561e-05,0
68.046,8.0568e-06,0
68.046,9.0639e-06,0
68.047,6.5461e-06,0
68.047,-2.182e-06,0
68.048,-1.4267e-05,0
68.048,-2.3499e-05,0
68.049,-2.7024e-05,0
68.049,-3.3234e-05,0
68.05,-4.8508e-05,0
68.05,-6.4958e-05,0
68.051,-7.1336e-05,0
68.051,-6.8986e-05,0
68.052,-6.5965e-05,0
68.052,-5.8747e-05,0
68.053,-4.3305e-05,0
68.053,-2.4842e-05,0
68.054,-4.3641e-06,0
68.055,1.6953e-05,0
68.055,3.4745e-05,0
68.056,4.7837e-05,0
68.056,6.0258e-05,0
68.057,6.6636e-05,0
68.057,6.3447e-05,0
68.058,6.2104e-05,0
68.058,7.2007e-05,0
68.059,9.0471e-05,0
68.059,0.00010625,0
68.06,0.0001086,0
68.06,9.5506e-05,0
68.061,7.7714e-05,0
68.061,6.865e-05,0
68.062,6.9657e-05,0
68.062,7.2343e-05,0
68.063,6.0594e-05,0
68.063,3.4073e-05,0
68.064,7.5532e-06,0
68.064,-1.0575e-05,0
68.065,-1.6449e-05,0
68.065,-7.2175e-06,0
68.066,1.0407e-05,0
68.066,2.8031e-05,0
68.067,3.7095e-05,0
68.068,3.4577e-05,0
68.068,4.0452e-05,0
68.069,5.9586e-05,0
68.069,7.9728e-05,0
68.07,9.1142e-05,0
68.07,8.7449e-05,0
68.071,7.1336e-05,0
68.071,5.4719e-05,0
68.072,4.3641e-05,0
68.072,4.2466e-05,0
68.073,5.1698e-05,0
68.073,6.4286e-05,0
68.074,7.2175e-05,0
68.074,7.0329e-05,0
68.075,6.8315e-05,0
68.075,7.9057e-05,0
68.076,8.8289e-05,0
68.076,6.9657e-05,0
68.077,2.7192e-05,0
68.077,-1.5778e-05,0
68.078,-3.5584e-05,0
68.078,-2.8367e-05,0
68.079,-1.2589e-05,0
68.079,-3.5248e-06,0
68.08,-1.6785e-06,0
68.081,6.714e-07,0
68.081,6.714e-06,0
68.082,1.8631e-05,0
68.082,3.508e-05,0
68.083,5.6733e-05,0
68.083,7.5029e-05,0
68.084,6.9657e-05,0
68.084,3.9445e-05,0
68.085,6.3783e-06,0
68.085,-1.4771e-05,0
68.086,-2.501e-05,0
68.086,-2.3499e-05,0
68.087,-8.896e-06,0
68.087,1.4267e-05,0
68.088,3.7095e-05,0
68.088,5.153e-05,0
68.089,5.6565e-05,0
68.089,5.4887e-05,0
68.09,5.0187e-05,0
68.09,3.7766e-05,0
68.091,1.4603e-05,0
68.091,-1.4267e-05,0
68.092,-4.6159e-05,0
68.092,-7.7379e-05,0
68.093,-0.00010323,0
68.093,-0.00012119,0
68.094,-0.00013075,0
68.095,-0.00013411,0
68.095,-0.00012773,0
68.096,-0.00010692,0
68.096,-7.57e-05,0
68.097,-4.2466e-05,0
68.097,-1.561e-05,0
68.098,6.2104e-06,0
68.098,2.9038e-05,0
68.099,5.6733e-05,0
68.099,8.9464e-05,0
68.1,0.00011917,0
68.1,0.00013915,0
68.101,0.00014821,0
68.101,0.00014284,0
68.102,0.0001274,0
68.102,0.00011666,0
68.103,0.0001138,0
68.103,0.00011263,0
68.104,0.00010893,0
68.104,9.9199e-05,0
68.105,8.0064e-05,0
68.105,4.8005e-05,0
68.106,6.2104e-06,0
68.106,-3.7095e-05,0
68.107,-7.335e-05,0
68.108,-9.5171e-05,0
68.108,-0.00010222,0
68.109,-9.4835e-05,0
68.109,-7.2847e-05,0
68.11,-4.3641e-05,0
68.11,-2.5513e-05,0
68.111,-2.8031e-05,0
68.111,-2.7024e-05,0
68.112,-5.2033e-06,0
68.112,2.7024e-05,0
68.113,5.5726e-05,0
68.113,8.3757e-05,0
68.114,0.00010457,0
68.114,0.00010457,0
68.115,8.5771e-05,0
68.115,6.4958e-05,0
68.116,5.0523e-05,0
68.116,3.9948e-05,0
68.117,2.7695e-05,0
68.117,1.6281e-05,0
68.118,8.7282e-06,0
68.118,1.0071e-06,0
68.119,-9.9031e-06,0
68.119,-2.3163e-05,0
68.12,-3.3402e-05,0
68.12,-3.6591e-05,0
68.121,-2.7359e-05,0
68.122,-8.5603e-06,0
68.122,4.0284e-06,0
68.123,5.0355e-07,0
68.123,-1.0239e-05,0
68.124,-1.4939e-05,0
68.124,-1.8296e-05,0
68.125,-2.6688e-05,0
68.125,-3.1388e-05,0
68.126,-2.6184e-05,0
68.126,-2.0478e-05,0
68.127,-2.2995e-05,0
68.127,-2.9709e-05,0
68.128,-3.1052e-05,0
68.128,-1.2924e-05,0
68.129,2.8031e-05,0
68.129,8.1743e-05,0
68.13,0.00013629,0
68.13,0.00017708,0
68.131,0.00018581,0
68.131,0.00015962,0
68.132,0.00012404,0
68.132,9.5506e-05,0
68.133,6.9993e-05,0
68.133,4.3473e-05,0
68.134,1.9303e-05,0
68.135,-3.0213e-06,0
68.135,-1.9303e-05,0
68.136,-2.4674e-05,0
68.136,-2.5345e-05,0
68.137,-2.5177e-05,0
68.137,-2.0645e-05,0
68.138,-1.3931e-05,0
68.138,1.1749e-06,0
68.139,2.9709e-05,0
68.139,5.7908e-05,0
68.14,7.2343e-05,0
68.14,7.9057e-05,0
68.141,8.5771e-05,0
68.141,9.2485e-05,0
68.142,9.0806e-05,0
68.142,7.9057e-05,0
68.143,5.9754e-05,0
68.143,3.7598e-05,0
68.144,1.7288e-05,0
68.144,-3.5248e-06,0
68.145,-2.5681e-05,0
68.145,-4.213e-05,0
68.146,-5.1194e-05,0
68.146,-5.8579e-05,0
68.147,-6.6636e-05,0
68.147,-6.8147e-05,0
68.148,-6.4286e-05,0
68.149,-5.8579e-05,0
68.149,-4.918e-05,0
68.15,-3.7095e-05,0
68.15,-2.2995e-05,0
68.151,-2.5177e-06,0
68.151,2.3835e-05,0
68.152,4.7669e-05,0
68.152,6.2608e-05,0
68.153,7.2847e-05,0
68.153,8.3421e-05,0
68.154,8.6946e-05,0
68.154,7.4189e-05,0
68.155,5.7908e-05,0
68.155,5.388e-05,0
68.156,6.2272e-05,0
68.156,7.2343e-05,0
68.157,7.335e-05,0
68.157,6.4286e-05,0
68.158,5.2873e-05,0
68.158,4.1291e-05,0
68.159,3.2059e-05,0
68.159,2.8702e-05,0
68.16,2.3331e-05,0
68.16,1.1917e-05,0
68.161,1.1749e-06,0
68.162,-6.0426e-06,0
68.162,-1.2924e-05,0
68.163,-2.7024e-05,0
68.163,-4.9683e-05,0
68.164,-7.4861e-05,0
68.164,-0.00010054,0
68.165,-0.00012018,0
68.165,-0.00013126,0
68.166,-0.00013529,0
68.166,-0.00011934,0
68.167,-7.805e-05,0
68.167,-2.8534e-05,0
68.168,1.0575e-05,0
68.168,3.9612e-05,0
68.169,7.0329e-05,0
68.169,0.00010927,0
68.17,0.00014183,0
68.17,0.00016063,0
68.171,0.00017238,0
68.171,0.00017708,0
68.172,0.00016197,0
68.172,0.00012438,0
68.173,9.2988e-05,0
68.173,7.805e-05,0
68.174,5.7908e-05,0
68.174,2.2156e-05,0
68.175,-1.2757e-05,0
68.176,-3.2563e-05,0
68.176,-4.2634e-05,0
68.177,-5.5055e-05,0
68.177,-7.0161e-05,0
68.178,-8.0735e-05,0
68.178,-8.7785e-05,0
68.179,-8.8624e-05,0
68.179,-7.8553e-05,0
68.18,-5.7069e-05,0
68.18,-3.4409e-05,0
68.181,-1.8296e-05,0
68.181,-5.539e-06,0
68.182,6.8818e-06,0
68.182,1.5946e-05,0
68.183,2.3667e-05,0
68.183,3.2731e-05,0
68.184,4.1459e-05,0
68.184,4.8173e-05,0
68.185,4.5823e-05,0
68.185,3.4409e-05,0
68.186,2.6184e-05,0
68.186,3.1891e-05,0
68.187,4.5823e-05,0
68.187,5.8579e-05,0
68.188,6.5629e-05,0
68.189,6.4286e-05,0
68.189,5.7237e-05,0
68.19,4.7501e-05,0
68.19,4.448e-05,0
68.191,5.539e-05,0
68.191,8.0735e-05,0
68.192,0.00010021,0
68.192,0.00010222,0
68.193,9.4499e-05,0
68.193,8.3421e-05,0
68.194,6.6804e-05,0
68.194,4.9516e-05,0
68.195,3.978e-05,0
68.195,3.592e-05,0
68.196,2.7359e-05,0
68.196,1.3764e-05,0
68.197,1.5106e-06,0
68.197,-9.9031e-06,0
68.198,-1.8631e-05,0
68.198,-1.7624e-05,0
68.199,-1.1582e-05,0
68.199,-9.7353e-06,0
68.2,-1.1917e-05,0
68.2,-1.2421e-05,0
68.201,-1.0071e-06,0
68.201,1.8631e-05,0
68.202,3.2059e-05,0
68.203,3.4073e-05,0
68.203,3.0045e-05,0
68.204,2.1317e-05,0
68.204,8.5603e-06,0
68.205,-8.3925e-07,0
68.205,-2.3499e-06,0
68.206,-2.6856e-06,0
68.206,-3.8605e-06,0
68.207,-1.5106e-05,0
68.207,-3.6088e-05,0
68.208,-5.2873e-05,0
68.208,-5.4551e-05,0
68.209,-4.1794e-05,0
68.209,-2.6017e-05,0
68.21,-1.3764e-05,0
68.21,-5.7069e-06,0
68.211,4.5319e-06,0
68.211,2.2995e-05,0
68.212,4.6662e-05,0
68.212,7.2007e-05,0
68.213,0.00010037,0
68.213,0.00012471,0
68.214,0.00013025,0
68.214,0.0001086,0
68.215,7.0665e-05,0
68.216,3.4745e-05,0
68.216,6.8818e-06,0
68.217,-1.3596e-05,0
68.217,-2.1653e-05,0
68.218,-1.4939e-05,0
68.218,5.0355e-06,0
68.219,1.9471e-05,0
68.219,9.9031e-06,0
68.22,-9.9031e-06,0
68.22,-1.4771e-05,0
68.221,-6.2104e-06,0
68.221,7.2175e-06,0
68.222,3.1052e-05,0
68.222,6.009e-05,0
68.223,7.7043e-05,0
68.223,7.3686e-05,0
68.224,6.7308e-05,0
68.224,7.3686e-05,0
68.225,8.8792e-05,0
68.225,0.00010155,0
68.226,9.987e-05,0
68.226,7.9896e-05,0
68.227,5.0523e-05,0
68.227,2.501e-05,0
68.228,4.8676e-06,0
68.228,-1.6281e-05,0
68.229,-3.9445e-05,0
68.23,-5.5558e-05,0
68.23,-5.8915e-05,0
68.231,-5.6565e-05,0
68.231,-5.153e-05,0
68.232,-4.3641e-05,0
68.232,-3.2731e-05,0
68.233,-1.6114e-05,0
68.233,2.3499e-06,0
68.234,1.091e-05,0
68.234,1.091e-05,0
68.235,1.0239e-05,0
68.235,1.0575e-05,0
68.236,1.1246e-05,0
68.236,7.2175e-06,0
68.237,1.6785e-07,0
68.237,-4.1962e-06,0
68.238,-5.539e-06,0
68.238,-3.8605e-06,0
68.239,5.0355e-07,0
68.239,4.0284e-06,0
68.24,7.8889e-06,0
68.24,1.1414e-05,0
68.241,9.5674e-06,0
68.241,5.0355e-07,0
68.242,-8.896e-06,0
68.243,-7.5532e-06,0
68.243,4.8676e-06,0
68.244,1.8296e-05,0
68.244,2.3331e-05,0
68.245,2.2995e-05,0
68.245,3.0045e-05,0
68.246,4.4144e-05,0
68.246,5.7237e-05,0
68.247,6.5293e-05,0
68.247,6.8482e-05,0
68.248,6.4286e-05,0
68.248,5.7069e-05,0
68.249,5.1698e-05,0
68.249,4.6159e-05,0
68.25,3.9277e-05,0
68.25,3.2395e-05,0
68.251,2.3667e-05,0
68.251,3.8605e-06,0
68.252,-2.3667e-05,0
68.252,-4.683e-05,0
68.253,-5.2537e-05,0
68.253,-4.213e-05,0
68.254,-2.5345e-05,0
68.254,-8.896e-06,0
68.255,6.2104e-06,0
68.255,1.7288e-05,0
68.256,2.6352e-05,0
68.257,3.8773e-05,0
68.257,5.8412e-05,0
68.258,7.8386e-05,0
68.258,9.5171e-05,0
68.259,0.0001044,0
68.259,9.8527e-05,0
68.26,7.8889e-05,0
68.26,5.6565e-05,0
68.261,3.7934e-05,0
68.261,2.4506e-05,0
68.262,9.5674e-06,0
68.262,-1.0575e-05,0
68.263,-3.0716e-05,0
68.263,-4.5487e-05,0
68.264,-5.388e-05,0
68.264,-5.8076e-05,0
68.265,-6.1601e-05,0
68.265,-6.4958e-05,0
68.266,-6.5965e-05,0
68.266,-5.8579e-05,0
68.267,-3.8941e-05,0
68.267,-1.2924e-05,0
68.268,1.326e-05,0
68.268,4.0116e-05,0
68.269,6.6972e-05,0
68.269,8.7114e-05,0
68.27,9.9031e-05,0
68.271,0.00010105,0
68.271,9.6513e-05,0
68.272,9.0639e-05,0
68.272,8.4092e-05,0
68.273,8.1743e-05,0
68.273,8.7114e-05,0
68.274,9.5674e-05,0
68.274,9.1981e-05,0
68.275,6.7811e-05,0
68.275,3.2731e-05,0
68.276,-1.8463e-06,0
68.276,-2.7695e-05,0
68.277,-3.3738e-05,0
68.277,-2.182e-05,0
68.278,-1.091e-05,0
68.278,-8.5603e-06,0
68.279,-2.031e-05,0
68.279,-3.7766e-05,0
68.28,-4.1459e-05,0
68.28,-2.6688e-05,0
68.281,-7.5532e-06,0
68.281,-1.8463e-06,0
68.282,-1.8463e-06,0
68.282,4.8676e-06,0
68.283,1.5442e-05,0
68.284,2.1317e-05,0
68.284,1.7624e-05,0
68.285,9.2317e-06,0
68.285,7.7211e-06,0
68.286,1.5946e-05,0
68.286,2.7359e-05,0
68.287,3.592e-05,0
68.287,4.9516e-05,0
68.288,7.7379e-05,0
68.288,0.00010692,0
68.289,0.00011699,0
68.289,0.00010726,0
68.29,0.00010793,0
68.29,0.00013411,0
68.291,0.0001613,0
68.291,0.00015795,0
68.292,0.00013025,0
68.292,0.00010726,0
68.293,9.0303e-05,0
68.293,6.4286e-05,0
68.294,3.5752e-05,0
68.294,1.3931e-05,0
68.295,-2.182e-06,0
68.295,-1.3764e-05,0
68.296,-2.417e-05,0
68.296,-3.7934e-05,0
68.297,-5.3208e-05,0
68.298,-6.0594e-05,0
68.298,-5.774e-05,0
68.299,-5.1865e-05,0
68.299,-4.6494e-05,0
68.3,-3.9445e-05,0
68.3,-3.122e-05,0
68.301,-2.9541e-05,0
68.301,-3.8437e-05,0
68.302,-5.0187e-05,0
68.302,-5.3208e-05,0
68.303,-4.6494e-05,0
68.303,-3.827e-05,0
68.304,-3.6423e-05,0
68.304,-4.1459e-05,0
68.305,-4.3137e-05,0
68.305,-4.062e-05,0
68.306,-3.592e-05,0
68.306,-3.2395e-05,0
68.307,-3.2059e-05,0
68.307,-3.3738e-05,0
68.308,-3.0381e-05,0
68.308,-2.6017e-05,0
68.309,-2.4338e-05,0
68.309,-2.4674e-05,0
68.31,-2.6017e-05,0
68.311,-2.3835e-05,0
68.311,-1.6281e-05,0
68.312,-6.2104e-06,0
68.312,5.2033e-06,0
68.313,2.4002e-05,0
68.313,4.7333e-05,0
68.314,6.8482e-05,0
68.314,8.0735e-05,0
68.315,8.51e-05,0
68.315,8.7449e-05,0
68.316,9.0471e-05,0
68.316,9.0639e-05,0
68.317,8.6778e-05,0
68.317,8.2078e-05,0
68.318,7.6371e-05,0
68.318,6.7308e-05,0
68.319,5.7572e-05,0
68.319,5.0355e-05,0
68.32,4.2802e-05,0
68.32,3.4409e-05,0
68.321,2.266e-05,0
68.321,1.0575e-05,0
68.322,-1.1749e-06,0
68.322,-1.2253e-05,0
68.323,-2.0478e-05,0
68.323,-2.652e-05,0
68.324,-3.4241e-05,0
68.325,-4.0787e-05,0
68.325,-4.4144e-05,0
68.326,-3.9948e-05,0
68.326,-2.7192e-05,0
68.327,-1.1246e-05,0
68.327,1.1749e-06,0
68.328,1.1246e-05,0
68.328,2.4842e-05,0
68.329,3.978e-05,0
68.329,4.6998e-05,0
68.33,4.7166e-05,0
68.33,5.4719e-05,0
68.331,6.8147e-05,0
68.331,7.1672e-05,0
68.332,6.0258e-05,0
68.332,4.1123e-05,0
68.333,1.6114e-05,0
68.333,-1.8631e-05,0
68.334,-5.069e-05,0
68.334,-6.3279e-05,0
68.335,-5.3544e-05,0
68.335,-3.2731e-05,0
68.336,-9.0639e-06,0
68.336,1.9974e-05,0
68.337,5.7572e-05,0
68.338,9.987e-05,0
68.338,0.00014318,0
68.339,0.0001744,0
68.339,0.00018547,0
68.34,0.00018614,0
68.34,0.00018346,0
68.341,0.00016936,0
68.341,0.00014284,0
68.342,0.00010927,0
68.342,7.4861e-05,0
68.343,4.9516e-05,0
68.343,3.508e-05,0
68.344,2.4002e-05,0
68.344,1.4939e-05,0
68.345,8.5603e-06,0
68.345,6.5461e-06,0
68.346,3.8605e-06,0
68.346,-5.0355e-06,0
68.347,-1.561e-05,0
68.347,-2.1149e-05,0
68.348,-2.4674e-05,0
68.348,-2.7527e-05,0
68.349,-2.6688e-05,0
68.349,-2.5177e-05,0
68.35,-2.4506e-05,0
68.35,-2.5177e-05,0
68.351,-2.5345e-05,0
68.352,-2.3163e-05,0
68.352,-1.9806e-05,0
68.353,-1.561e-05,0
68.353,-1.0575e-05,0
68.354,-7.0497e-06,0
68.354,-9.0639e-06,0
68.355,-1.6785e-05,0
68.355,-2.7695e-05,0
68.356,-3.9445e-05,0
68.356,-4.9516e-05,0
68.357,-5.2537e-05,0
68.357,-4.8844e-05,0
68.358,-4.3473e-05,0
68.358,-3.6423e-05,0
68.359,-2.4674e-05,0
68.359,-7.2175e-06,0
68.36,9.2317e-06,0
68.36,1.6953e-05,0
68.361,2.0981e-05,0
68.361,2.9374e-05,0
68.362,4.5487e-05,0
68.362,6.9322e-05,0
68.363,8.1239e-05,0
68.363,6.9657e-05,0
68.364,5.0019e-05,0
68.365,4.1627e-05,0
68.365,4.0452e-05,0
68.366,4.3137e-05,0
68.366,5.3544e-05,0
68.367,6.4286e-05,0
68.367,6.6972e-05,0
68.368,6.4286e-05,0
68.368,6.1265e-05,0
68.369,5.4215e-05,0
68.369,4.1794e-05,0
68.37,3.122e-05,0
68.37,2.2324e-05,0
68.371,1.1078e-05,0
68.371,-1.0071e-06,0
68.372,-8.896e-06,0
68.372,-9.5674e-06,0
68.373,-8.5603e-06,0
68.373,-1.1078e-05,0
68.374,-1.561e-05,0
68.374,-1.8967e-05,0
68.375,-1.9806e-05,0
68.375,-2.0981e-05,0
68.376,-2.266e-05,0
68.376,-2.1653e-05,0
68.377,-1.7792e-05,0
68.377,-1.1246e-05,0
68.378,-5.539e-06,0
68.379,-3.8605e-06,0
68.379,-3.5248e-06,0
68.38,1.6785e-07,0
68.38,1.091e-05,0
68.381,2.2995e-05,0
68.381,2.6017e-05,0
68.382,2.1317e-05,0
68.382,1.9638e-05,0
68.383,2.2156e-05,0
68.383,1.9303e-05,0
68.384,7.8889e-06,0
68.384,0,0
68.385,4.1962e-06,0
68.385,1.6617e-05,0
68.386,2.887e-05,0
68.386,3.8773e-05,0
68.387,4.8173e-05,0
68.387,5.1865e-05,0
68.388,4.6159e-05,0
68.388,3.8102e-05,0
68.389,3.4745e-05,0
68.389,3.1556e-05,0
68.39,2.5513e-05,0
68.39,2.0645e-05,0
68.391,1.8799e-05,0
68.392,1.8463e-05,0
68.392,2.266e-05,0
68.393,3.6088e-05,0
68.393,5.2873e-05,0
68.394,6.5965e-05,0
68.394,6.9657e-05,0
68.395,6.4286e-05,0
68.395,5.8579e-05,0
68.396,5.388e-05,0
68.396,4.9516e-05,0
68.397,4.6662e-05,0
68.397,4.0116e-05,0
68.398,3.1388e-05,0
68.398,2.5177e-05,0
68.399,2.4002e-05,0
68.399,2.7695e-05,0
68.4,3.1388e-05,0
68.4,3.0716e-05,0
68.401,2.5177e-05,0
68.401,1.8631e-05,0
68.402,1.7288e-05,0
68.402,2.1988e-05,0
68.403,2.8367e-05,0
68.403,2.7863e-05,0
68.404,1.8463e-05,0
68.404,8.896e-06,0
68.405,7.8889e-06,0
68.406,9.2317e-06,0
68.406,-1.1749e-06,0
68.407,-2.3331e-05,0
68.407,-4.5991e-05,0
68.408,-6.0426e-05,0
68.408,-6.7979e-05,0
68.409,-7.6371e-05,0
68.409,-8.1071e-05,0
68.41,-7.2007e-05,0
68.41,-5.5222e-05,0
68.411,-4.3809e-05,0
68.411,-3.3906e-05,0
68.412,-1.326e-05,0
68.412,1.9638e-05,0
68.413,5.8076e-05,0
68.413,9.752e-05,0
68.414,0.00012807,0
68.414,0.00014485,0
68.415,0.00014888,0
68.415,0.00014217,0
68.416,0.00012622,0
68.416,0.00011229,0
68.417,0.0001039,0
68.417,9.2821e-05,0
68.418,6.9657e-05,0
68.419,4.1291e-05,0
68.419,2.6688e-05,0
68.42,2.9877e-05,0
68.42,3.2395e-05,0
68.421,2.5681e-05,0
68.421,1.0575e-05,0
68.422,-9.9031e-06,0
68.422,-3.4073e-05,0
68.423,-5.5222e-05,0
68.423,-6.4622e-05,0
68.424,-6.0929e-05,0
68.424,-4.8341e-05,0
68.425,-3.2059e-05,0
68.425,-1.7288e-05,0
68.426,-3.6927e-06,0
68.426,1.0071e-05,0
68.427,2.3331e-05,0
68.427,3.3402e-05,0
68.428,4.2298e-05,0
68.428,5.623e-05,0
68.429,6.9322e-05,0
68.429,6.7308e-05,0
68.43,4.4144e-05,0
68.43,7.8889e-06,0
68.431,-2.6352e-05,0
68.431,-4.683e-05,0
68.432,-5.4215e-05,0
68.433,-5.4047e-05,0
68.433,-4.7837e-05,0
68.434,-3.7766e-05,0
68.434,-2.2995e-05,0
68.435,-5.539e-06,0
68.435,8.2246e-06,0
68.436,1.1078e-05,0
68.436,3.0213e-06,0
68.437,-4.8676e-06,0
68.437,2.5177e-06,0
68.438,2.4674e-05,0
68.438,4.7837e-05,0
68.439,6.3951e-05,0
68.439,7.7714e-05,0
68.44,9.5003e-05,0
68.44,0.00010893,0
68.441,0.0001133,0
68.441,0.00010188,0
68.442,7.9728e-05,0
68.442,5.6901e-05,0
68.443,4.062e-05,0
68.443,2.8534e-05,0
68.444,1.9303e-05,0
68.444,1.1917e-05,0
68.445,-1.1749e-06,0
68.446,-2.1317e-05,0
68.446,-4.5151e-05,0
68.447,-6.6972e-05,0
68.447,-7.4693e-05,0
68.448,-7.0161e-05,0
68.448,-6.5629e-05,0
68.449,-6.4118e-05,0
68.449,-5.7908e-05,0
68.45,-4.0955e-05,0
68.45,-1.3596e-05,0
68.451,1.9303e-05,0
68.451,5.1865e-05,0
68.452,7.9057e-05,0
68.452,0.00010188,0
68.453,0.00011565,0
68.453,0.00010893,0
68.454,8.4428e-05,0
68.454,4.683e-05,0
68.455,6.5461e-06,0
68.455,-1.9135e-05,0
68.456,-2.4674e-05,0
68.456,-1.3596e-05,0
68.457,7.0497e-06,0
68.457,2.2995e-05,0
68.458,2.7192e-05,0
68.459,2.3331e-05,0
68.459,2.2156e-05,0
68.46,3.4241e-05,0
68.46,6.3615e-05,0
68.461,0.00010692,0
68.461,0.00014704,0
68.462,0.00016063,0
68.462,0.00014334,0
68.463,0.00010491,0
68.463,6.6804e-05,0
68.464,4.3305e-05,0
68.464,3.4745e-05,0
68.465,3.122e-05,0
68.465,2.1653e-05,0
68.466,1.5106e-06,0
68.466,-3.2395e-05,0
68.467,-6.5797e-05,0
68.467,-8.1575e-05,0
68.468,-8.2582e-05,0
68.468,-8.1407e-05,0
68.469,-7.7379e-05,0
68.469,-6.1097e-05,0
68.47,-3.8437e-05,0
68.47,-2.8702e-05,0
68.471,-2.7863e-05,0
68.471,-1.1078e-05,0
68.472,3.0045e-05,0
68.473,7.5029e-05,0
68.473,0.00010524,0
68.474,0.00011582,0
68.474,0.0001086,0
68.475,9.8527e-05,0
68.475,9.6345e-05,0
68.476,9.1814e-05,0
68.476,7.5868e-05,0
68.477,5.1865e-05,0
68.477,3.0549e-05,0
68.478,1.0407e-05,0
68.478,-1.3092e-05,0
68.479,-3.8605e-05,0
68.479,-5.7908e-05,0
68.48,-6.1769e-05,0
68.48,-5.5894e-05,0
68.481,-5.623e-05,0
68.481,-6.7308e-05,0
68.482,-7.6707e-05,0
68.482,-7.3014e-05,0
68.483,-5.7237e-05,0
68.483,-3.6088e-05,0
68.484,-1.6281e-05,0
68.484,2.5177e-06,0
68.485,3.0716e-05,0
68.486,7.9728e-05,0
68.486,0.0001331,0
68.487,0.00014553,0
68.487,9.836e-05,0
68.488,2.9374e-05,0
68.488,-1.2924e-05,0
68.489,-3.0381e-05,0
68.489,-4.2969e-05,0
68.49,-4.9851e-05,0
68.49,-4.4144e-05,0
68.491,-2.7024e-05,0
68.491,-1.1749e-05,0
68.492,-7.0497e-06,0
68.492,-5.3712e-06,0
68.493,8.5603e-06,0
68.493,3.6423e-05,0
68.494,6.5126e-05,0
68.494,8.5603e-05,0
68.495,9.4163e-05,0
68.495,8.2918e-05,0
68.496,5.6062e-05,0
68.496,2.887e-05,0
68.497,5.539e-06,0
68.497,-1.8799e-05,0
68.498,-3.6088e-05,0
68.498,-4.4144e-05,0
68.499,-5.2873e-05,0
68.5,-6.0594e-05,0
68.5,-5.2201e-05,0
68.501,-3.0884e-05,0
68.501,-3.5248e-06,0
68.502,4.0787e-05,0
68.502,0.00010591,0
68.503,0.00016332,0
68.503,0.00018849,0
68.504,0.00018144,0
68.504,0.00015425,0
68.505,0.00011867,0
68.505,9.0303e-05,0
68.506,7.7043e-05,0
68.506,6.949e-05,0
68.507,5.623e-05,0
68.507,4.0116e-05,0
68.508,2.4338e-05,0
68.508,1.3596e-05,0
68.509,9.5674e-06,0
68.509,6.5461e-06,0
68.51,3.0213e-06,0
68.51,-1.6785e-06,0
68.511,-9.5674e-06,0
68.511,-2.266e-05,0
68.512,-4.1794e-05,0
68.513,-6.8986e-05,0
68.513,-9.9535e-05,0
68.514,-0.00011901,0
68.514,-0.00012303,0
68.515,-0.00011011,0
68.515,-8.1407e-05,0
68.516,-5.0187e-05,0
68.516,-2.6017e-05,0
68.517,-4.0284e-06,0
68.517,1.7288e-05,0
68.518,4.3305e-05,0
68.518,8.1743e-05,0
68.519,0.00012136,0
68.519,0.00014183,0
68.52,0.00012857,0
68.52,8.6778e-05,0
68.521,4.2802e-05,0
68.521,4.8676e-06,0
68.522,-3.0716e-05,0
68.522,-5.388e-05,0
68.523,-5.7404e-05,0
68.523,-4.4816e-05,0
68.524,-1.7792e-05,0
68.524,1.9806e-05,0
68.525,5.8915e-05,0
68.525,8.5435e-05,0
68.526,9.5674e-05,0
68.527,0.00010121,0
68.527,0.00011464,0
68.528,0.00013948,0
68.528,0.0001603,0
68.529,0.0001556,0
68.529,0.00013277,0
68.53,0.00010507,0
68.53,7.3518e-05,0
68.531,4.0116e-05,0
68.531,1.3931e-05,0
68.532,-4.8676e-06,0
68.532,-1.9303e-05,0
68.533,-3.2731e-05,0
68.533,-4.5151e-05,0
68.534,-5.1865e-05,0
68.534,-5.5055e-05,0
68.535,-5.6901e-05,0
68.535,-5.9251e-05,0
68.536,-6.3279e-05,0
68.536,-6.2104e-05,0
68.537,-4.7166e-05,0
68.537,-2.2492e-05,0
68.538,4.3641e-06,0
68.538,3.1724e-05,0
68.539,4.8173e-05,0
68.54,4.3809e-05,0
68.54,2.7527e-05,0
68.541,8.896e-06,0
68.541,-5.0355e-07,0
68.542,8.5603e-06,0
68.542,2.1653e-05,0
68.543,2.0813e-05,0
68.543,1.0575e-05,0
68.544,8.2246e-06,0
68.544,1.7792e-05,0
68.545,3.3066e-05,0
68.545,4.8173e-05,0
68.546,5.9586e-05,0
68.546,7.3686e-05,0
68.547,9.0639e-05,0
68.547,9.836e-05,0
68.548,8.6275e-05,0
68.548,5.9586e-05,0
68.549,3.3738e-05,0
68.549,1.796e-05,0
68.55,8.5603e-06,0
68.55,-1.1749e-06,0
68.551,-9.7353e-06,0
68.551,-1.6617e-05,0
68.552,-2.1485e-05,0
68.552,-2.6352e-05,0
68.553,-3.4745e-05,0
68.554,-4.7501e-05,0
68.554,-5.4887e-05,0
68.555,-5.3376e-05,0
68.555,-4.9516e-05,0
68.556,-4.5823e-05,0
68.556,-4.4984e-05,0
68.557,-4.7501e-05,0
68.557,-4.448e-05,0
68.558,-2.8702e-05,0
68.558,-6.714e-06,0
68.559,7.7211e-06,0
68.559,8.5603e-06,0
68.56,3.357e-06,0
68.56,-2.8534e-06,0
68.561,-8.896e-06,0
68.561,-1.7288e-05,0
68.562,-3.1556e-05,0
68.562,-4.5991e-05,0
68.563,-5.6565e-05,0
68.563,-6.3279e-05,0
68.564,-5.7404e-05,0
68.564,-3.508e-05,0
68.565,-5.0355e-06,0
68.565,2.2324e-05,0
68.566,4.5991e-05,0
68.567,6.8986e-05,0
68.567,9.8527e-05,0
68.568,0.00013361,0
68.568,0.00016701,0
68.569,0.00019219,0
68.569,0.00020612,0
68.57,0.00020998,0
68.57,0.00020192,0
68.571,0.00018379,0
68.571,0.00015627,0
68.572,0.0001274,0
68.572,0.00010927,0
68.573,9.9199e-05,0
68.573,8.4428e-05,0
68.574,6.0929e-05,0
68.574,3.8773e-05,0
68.575,2.266e-05,0
68.575,6.8818e-06,0
68.576,-7.8889e-06,0
68.576,-1.4939e-05,0
68.577,-2.0142e-05,0
68.577,-3.0549e-05,0
68.578,-4.918e-05,0
68.578,-7.2847e-05,0
68.579,-9.6178e-05,0
68.579,-0.00010759,0
68.58,-9.9702e-05,0
68.581,-7.9561e-05,0
68.581,-5.8244e-05,0
68.582,-3.8605e-05,0
68.582,-1.5442e-05,0
68.583,1.1749e-05,0
68.583,4.3473e-05,0
68.584,7.5364e-05,0
68.584,9.8527e-05,0
68.585,0.00010927,0
68.585,0.00011028,0
68.586,9.8192e-05,0
68.586,7.2847e-05,0
68.587,4.6159e-05,0
68.587,2.7695e-05,0
68.588,1.5946e-05,0
68.588,7.8889e-06,0
68.589,-1.1749e-06,0
68.589,-1.7624e-05,0
68.59,-2.8534e-05,0
68.59,-1.7792e-05,0
68.591,6.714e-07,0
68.591,1.1246e-05,0
68.592,1.2085e-05,0
68.592,1.2589e-05,0
68.593,1.4267e-05,0
68.594,8.5603e-06,0
68.594,-3.0213e-06,0
68.595,-1.0239e-05,0
68.595,-1.8463e-06,0
68.596,2.501e-05,0
68.596,5.6733e-05,0
68.597,7.4357e-05,0
68.597,7.4357e-05,0
68.598,6.6804e-05,0
68.598,5.4887e-05,0
68.599,3.8437e-05,0
68.599,2.0645e-05,0
68.6,4.1962e-06,0
68.6,-6.714e-06,0
68.601,-1.0239e-05,0
68.601,-8.5603e-06,0
68.602,-6.2104e-06,0
68.602,-5.539e-06,0
68.603,-5.2033e-06,0
68.603,-3.5248e-06,0
68.604,-8.3925e-07,0
68.604,0,0
68.605,-1.1749e-06,0
68.605,-4.1962e-06,0
68.606,-2.5177e-06,0
68.606,4.1962e-06,0
68.607,1.0239e-05,0
68.608,1.2589e-05,0
68.608,1.2421e-05,0
68.609,9.5674e-06,0
68.609,8.3925e-07,0
68.61,-7.5532e-06,0
68.61,-8.2246e-06,0
68.611,-3.357e-07,0
68.611,8.2246e-06,0
68.612,9.7353e-06,0
68.612,8.7282e-06,0
68.613,1.2421e-05,0
68.613,1.5442e-05,0
68.614,1.2757e-05,0
68.614,8.3925e-06,0
68.615,2.8534e-06,0
68.615,-5.7069e-06,0
68.616,-1.3764e-05,0
68.616,-1.8296e-05,0
68.617,-2.2995e-05,0
68.617,-2.8702e-05,0
68.618,-3.2563e-05,0
68.618,-3.2731e-05,0
68.619,-3.2395e-05,0
68.619,-3.2395e-05,0
68.62,-2.7024e-05,0
68.621,-1.3596e-05,0
68.621,4.8676e-06,0
68.622,2.3331e-05,0
68.622,4.5487e-05,0
68.623,7.1336e-05,0
68.623,9.3156e-05,0
68.624,0.00010256,0
68.624,0.00010541,0
68.625,0.00011011,0
68.625,0.00011347,0
68.626,0.00010004,0
68.626,6.4286e-05,0
68.627,2.3163e-05,0
68.627,-8.0568e-06,0
68.628,-3.2563e-05,0
68.628,-5.9251e-05,0
68.629,-7.7379e-05,0
68.629,-7.9057e-05,0
68.63,-7.5868e-05,0
68.63,-6.8482e-05,0
68.631,-4.6662e-05,0
68.631,-1.9471e-05,0
68.632,6.3783e-06,0
68.632,3.3066e-05,0
68.633,5.8244e-05,0
68.633,8.5435e-05,0
68.634,0.000118,0
68.635,0.0001509,0
68.635,0.00017574,0
68.636,0.00018111,0
68.636,0.00017288,0
68.637,0.00015828,0
68.637,0.0001321,0
68.638,9.6178e-05,0
68.638,6.4958e-05,0
68.639,4.3809e-05,0
68.639,3.122e-05,0
68.64,2.5681e-05,0
68.64,1.9303e-05,0
68.641,1.326e-05,0
68.641,8.7282e-06,0
68.642,1.1749e-06,0
68.642,-1.326e-05,0
68.643,-3.2395e-05,0
68.643,-5.539e-05,0
68.644,-8.8121e-05,0
68.644,-0.000118,0
68.645,-0.00012639,0
68.645,-0.00011749,0
68.646,-0.00010558,0
68.646,-9.2821e-05,0
68.647,-7.3686e-05,0
68.647,-3.7263e-05,0
68.648,1.4267e-05,0
68.649,6.2272e-05,0
68.649,0.00010491,0
68.65,0.00015224,0
68.65,0.00019001,0
68.651,0.0001843,0
68.651,0.0001321,0
68.652,7.3686e-05,0
68.652,3.8437e-05,0
68.653,2.9038e-05,0
68.653,2.8702e-05,0
68.654,2.0478e-05,0
68.654,1.0071e-05,0
68.655,1.0071e-05,0
68.655,1.7288e-05,0
68.656,2.1653e-05,0
68.656,1.561e-05,0
68.657,0,0
68.657,-1.6281e-05,0
68.658,-2.8031e-05,0
68.658,-4.6662e-05,0
68.659,-8.661e-05,0
68.659,-0.00012975,0
68.66,-0.00014586,0
68.66,-0.00013126,0
68.661,-0.00010088,0
68.662,-6.5293e-05,0
68.662,-2.501e-05,0
68.663,2.4002e-05,0
68.663,7.7043e-05,0
68.664,0.0001274,0
68.664,0.00017339,0
68.665,0.00021367,0
68.665,0.00024288,0
68.666,0.00024154,0
68.666,0.00019588,0
68.667,0.0001227,0
68.667,5.5726e-05,0
68.668,1.2757e-05,0
68.668,-6.8818e-06,0
68.669,-1.091e-05,0
68.669,-1.326e-05,0
68.67,-1.6617e-05,0
68.67,-1.9135e-05,0
68.671,-2.0142e-05,0
68.671,-1.9638e-05,0
68.672,-1.7288e-05,0
68.672,-1.4939e-05,0
68.673,-1.4435e-05,0
68.673,-1.9303e-05,0
68.674,-2.7695e-05,0
68.674,-3.7766e-05,0
68.675,-4.8005e-05,0
68.676,-4.7166e-05,0
68.676,-3.6088e-05,0
68.677,-2.9038e-05,0
68.677,-2.182e-05,0
68.678,-9.0639e-06,0
68.678,3.357e-06,0
68.679,9.3996e-06,0
68.679,1.1246e-05,0
68.68,1.4603e-05,0
68.68,2.266e-05,0
68.681,3.3066e-05,0
68.681,4.3305e-05,0
68.682,5.7069e-05,0
68.682,7.3518e-05,0
68.683,8.7785e-05,0
68.683,9.0135e-05,0
68.684,7.7714e-05,0
68.684,6.3447e-05,0
68.685,5.7237e-05,0
68.685,5.4887e-05,0
68.686,5.3208e-05,0
68.686,4.9516e-05,0
68.687,3.9445e-05,0
68.687,2.7359e-05,0
68.688,1.9135e-05,0
68.689,1.3931e-05,0
68.689,1.091e-05,0
68.69,1.1246e-05,0
68.69,1.2253e-05,0
68.691,9.5674e-06,0
68.691,4.5319e-06,0
68.692,0,0
68.692,-5.539e-06,0
68.693,-1.2253e-05,0
68.693,-1.796e-05,0
68.694,-1.9638e-05,0
68.694,-1.8296e-05,0
68.695,-1.5946e-05,0
68.695,-1.2924e-05,0
68.696,-1.1917e-05,0
68.696,-8.896e-06,0
68.697,-5.0355e-07,0
68.697,7.8889e-06,0
68.698,1.1246e-05,0
68.698,1.2924e-05,0
68.699,1.796e-05,0
68.699,2.5681e-05,0
68.7,2.7527e-05,0
68.7,1.7121e-05,0
68.701,-6.714e-07,0
68.701,-1.4435e-05,0
68.702,-2.4674e-05,0
68.703,-3.2059e-05,0
68.703,-3.5416e-05,0
68.704,-3.1724e-05,0
68.704,-2.5849e-05,0
68.705,-2.501e-05,0
68.705,-2.8031e-05,0
68.706,-3.0884e-05,0
68.706,-3.1724e-05,0
68.707,-3.0884e-05,0
68.707,-2.9374e-05,0
68.708,-2.2828e-05,0
68.708,-6.8818e-06,0
68.709,2.3667e-05,0
68.709,6.1097e-05,0
68.71,8.8289e-05,0
68.71,9.1142e-05,0
68.711,7.335e-05,0
68.711,5.388e-05,0
68.712,5.3208e-05,0
68.712,7.2679e-05,0
68.713,0.00010105,0
68.713,0.00012387,0
68.714,0.00013545,0
68.714,0.00013881,0
68.715,0.0001378,0
68.716,0.00012975,0
68.716,0.00011968,0
68.717,0.00011363,0
68.717,0.00010994,0
68.718,0.00010423,0
68.718,9.7353e-05,0
68.719,8.9799e-05,0
68.719,8.2078e-05,0
68.72,7.4022e-05,0
68.72,6.3111e-05,0
68.721,4.3305e-05,0
68.721,1.7792e-05,0
68.722,1.6785e-07,0
68.722,-2.8534e-06,0
68.723,4.5319e-06,0
68.723,6.2104e-06,0
68.724,-5.539e-06,0
68.724,-2.2995e-05,0
68.725,-4.0452e-05,0
68.725,-5.5222e-05,0
68.726,-6.5629e-05,0
68.726,-7.0665e-05,0
68.727,-7.2007e-05,0
68.727,-7.7714e-05,0
68.728,-9.5842e-05,0
68.728,-0.00012219,0
68.729,-0.00014485,0
68.73,-0.000165,0
68.73,-0.00018094,0
68.731,-0.00017792,0
68.731,-0.0001519,0
68.732,-0.00011548,0
68.732,-7.2679e-05,0
68.733,-2.4002e-05,0
68.733,2.9206e-05,0
68.734,8.7449e-05,0
68.734,0.00014418,0
68.735,0.00018144,0
68.735,0.00019017,0
68.736,0.00018648,0
68.736,0.00017842,0
68.737,0.0001509,0
68.737,0.00010105,0
68.738,5.5894e-05,0
68.738,3.2898e-05,0
68.739,2.3331e-05,0
68.739,1.5946e-05,0
68.74,1.0575e-05,0
68.74,1.4267e-05,0
68.741,2.7695e-05,0
68.741,3.2395e-05,0
68.742,1.7456e-05,0
68.743,-8.2246e-06,0
68.743,-2.4002e-05,0
68.744,-2.7695e-05,0
68.744,-2.4506e-05,0
68.745,-1.2253e-05,0
68.745,4.8676e-06,0
68.746,2.4674e-05,0
68.746,4.4144e-05,0
68.747,5.9419e-05,0
68.747,7.1672e-05,0
68.748,8.5435e-05,0
68.748,9.1142e-05,0
68.749,7.5029e-05,0
68.749,4.2802e-05,0
68.75,1.3931e-05,0
68.75,-1.8463e-06,0
68.751,-1.0575e-05,0
68.751,-1.7288e-05,0
68.752,-1.9303e-05,0
68.752,-1.3092e-05,0
68.753,2.182e-06,0
68.753,2.1317e-05,0
68.754,3.6088e-05,0
68.754,4.4816e-05,0
68.755,4.2802e-05,0
68.755,2.2995e-05,0
68.756,-7.2175e-06,0
68.757,-2.9374e-05,0
68.757,-3.8102e-05,0
68.758,-3.7095e-05,0
68.758,-3.0549e-05,0
68.759,-2.0981e-05,0
68.759,-3.5248e-06,0
68.76,2.0142e-05,0
68.76,3.978e-05,0
68.761,5.4887e-05,0
68.761,7.57e-05,0
68.762,0.0001039,0
68.762,0.00012589,0
68.763,0.00013075,0
68.763,0.0001185,0
68.764,9.2485e-05,0
68.764,6.1601e-05,0
68.765,3.2898e-05,0
68.765,8.7282e-06,0
68.766,-5.7069e-06,0
68.766,-1.0239e-05,0
68.767,-9.3996e-06,0
68.767,-8.2246e-06,0
68.768,-8.3925e-06,0
68.768,-8.896e-06,0
68.769,-1.091e-05,0
68.77,-1.6281e-05,0
68.77,-1.9303e-05,0
68.771,-1.2924e-05,0
68.771,3.0213e-06,0
68.772,2.031e-05,0
68.772,2.8702e-05,0
68.773,3.0549e-05,0
68.773,2.5681e-05,0
68.774,1.326e-05,0
68.774,5.8747e-06,0
68.775,6.5461e-06,0
68.775,6.714e-06,0
68.776,5.8747e-06,0
68.776,6.8818e-06,0
68.777,9.5674e-06,0
68.777,1.0575e-05,0
68.778,5.2033e-06,0
68.778,-8.896e-06,0
68.779,-2.5849e-05,0
68.779,-4.1794e-05,0
68.78,-5.7404e-05,0
68.78,-7.6371e-05,0
68.781,-9.0974e-05,0
68.781,-9.2485e-05,0
68.782,-8.3757e-05,0
68.782,-7.0665e-05,0
68.783,-5.0355e-05,0
68.784,-2.1149e-05,0
68.784,1.0239e-05,0
68.785,3.4745e-05,0
68.785,5.9419e-05,0
68.786,8.7114e-05,0
68.786,0.000118,0
68.787,0.000142,0
68.787,0.00014469,0
68.788,0.00012924,0
68.788,0.00011263,0
68.789,0.00010088,0
68.789,8.8792e-05,0
68.79,7.1672e-05,0
68.79,5.0858e-05,0
68.791,2.887e-05,0
68.791,1.0575e-05,0
68.792,7.0497e-06,0
68.792,2.1653e-05,0
68.793,4.0452e-05,0
68.793,5.0187e-05,0
68.794,4.8844e-05,0
68.794,4.5487e-05,0
68.795,4.3977e-05,0
68.795,3.9277e-05,0
68.796,3.3402e-05,0
68.797,3.2059e-05,0
68.797,3.5248e-05,0
68.798,3.6759e-05,0
68.798,3.1724e-05,0
68.799,2.6017e-05,0
68.799,1.9974e-05,0
68.8,1.1917e-05,0
68.8,1.1749e-06,0
68.801,-8.2246e-06,0
68.801,-9.0639e-06,0
68.802,5.0355e-07,0
68.802,1.561e-05,0
68.803,2.5849e-05,0
68.803,2.7863e-05,0
68.804,2.1317e-05,0
68.804,9.0639e-06,0
68.805,8.3925e-07,0
68.805,7.5532e-06,0
68.806,2.0981e-05,0
68.806,2.1317e-05,0
68.807,1.6785e-07,0
68.807,-2.6352e-05,0
68.808,-3.9109e-05,0
68.808,-3.8941e-05,0
68.809,-3.6423e-05,0
68.809,-3.743e-05,0
68.81,-4.1123e-05,0
68.811,-3.8941e-05,0
68.811,-2.7695e-05,0
68.812,-1.3931e-05,0
68.812,1.5106e-06,0
68.813,2.266e-05,0
68.813,5.9586e-05,0
68.814,0.00010256,0
68.814,0.00013008,0
68.815,0.00013512,0
68.815,0.00012236,0
68.816,0.00010088,0
68.816,7.805e-05,0
68.817,5.4887e-05,0
68.817,3.1388e-05,0
68.818,1.2589e-05,0
68.818,1.1749e-06,0
68.819,-8.2246e-06,0
68.819,-1.9303e-05,0
68.82,-3.1052e-05,0
68.82,-3.8102e-05,0
68.821,-3.6423e-05,0
68.821,-2.8534e-05,0
68.822,-1.9974e-05,0
68.822,-1.4267e-05,0
68.823,-3.6927e-06,0
68.824,1.7288e-05,0
68.824,3.7095e-05,0
68.825,4.5319e-05,0
68.825,4.1962e-05,0
68.826,3.7095e-05,0
68.826,3.8102e-05,0
68.827,4.0116e-05,0
68.827,3.508e-05,0
68.828,2.4002e-05,0
68.828,1.2421e-05,0
68.829,-3.357e-06,0
68.829,-2.266e-05,0
68.83,-4.2298e-05,0
68.83,-5.5894e-05,0
68.831,-6.4622e-05,0
68.831,-6.865e-05,0
68.832,-6.4958e-05,0
68.832,-5.5222e-05,0
68.833,-4.5319e-05,0
68.833,-3.1388e-05,0
68.834,-1.1246e-05,0
68.834,1.326e-05,0
68.835,3.3906e-05,0
68.835,4.6159e-05,0
68.836,5.4887e-05,0
68.837,6.865e-05,0
68.837,9.2988e-05,0
68.838,0.00011934,0
68.838,0.00013344,0
68.839,0.00012605,0
68.839,0.00010222,0
68.84,6.9657e-05,0
68.84,3.2898e-05,0
68.841,-1.6785e-07,0
68.841,-1.8967e-05,0
68.842,-1.9806e-05,0
68.842,-9.2317e-06,0
68.843,9.2317e-06,0
68.843,3.0045e-05,0
68.844,4.5823e-05,0
68.844,5.2201e-05,0
68.845,5.6733e-05,0
68.845,6.5629e-05,0
68.846,7.9561e-05,0
68.846,9.6178e-05,0
68.847,0.00010726,0
68.847,0.00010222,0
68.848,8.04e-05,0
68.848,5.2537e-05,0
68.849,2.7695e-05,0
68.849,9.9031e-06,0
68.85,8.3925e-07,0
68.851,-4.1962e-06,0
68.851,-1.1749e-05,0
68.852,-2.266e-05,0
68.852,-3.0716e-05,0
68.853,-3.827e-05,0
68.853,-5.2201e-05,0
68.854,-6.9993e-05,0
68.854,-8.1239e-05,0
68.855,-8.5603e-05,0
68.855,-8.4428e-05,0
68.856,-7.8721e-05,0
68.856,-7.3854e-05,0
68.857,-6.4958e-05,0
68.857,-4.4144e-05,0
68.858,-1.2421e-05,0
68.858,2.4674e-05,0
68.859,6.4622e-05,0
68.859,0.00010843,0
68.86,0.00014217,0
68.86,0.0001462,0
68.861,0.00012773,0
68.861,0.0001086,0
68.862,9.2821e-05,0
68.862,7.4693e-05,0
68.863,5.8244e-05,0
68.864,4.4648e-05,0
68.864,2.7695e-05,0
68.865,7.5532e-06,0
68.865,-6.3783e-06,0
68.866,-1.3596e-05,0
68.866,-1.9806e-05,0
68.867,-2.5849e-05,0
68.867,-2.9877e-05,0
68.868,-2.8031e-05,0
68.868,-2.031e-05,0
68.869,-1.2253e-05,0
68.869,-6.714e-06,0
68.87,-5.2033e-06,0
68.87,-1.6785e-06,0
68.871,1.2421e-05,0
68.871,3.4745e-05,0
68.872,4.8508e-05,0
68.872,3.9445e-05,0
68.873,1.8967e-05,0
68.873,3.357e-06,0
68.874,-8.896e-06,0
68.874,-2.2324e-05,0
68.875,-3.2563e-05,0
68.875,-3.2731e-05,0
68.876,-2.4338e-05,0
68.876,-1.6281e-05,0
68.877,-1.1078e-05,0
68.878,-4.5319e-06,0
68.878,1.0575e-05,0
68.879,3.827e-05,0
68.879,6.8315e-05,0
68.88,8.6778e-05,0
68.88,9.4499e-05,0
68.881,0.00010289,0
68.881,0.00010994,0
68.882,0.00010239,0
68.882,8.4428e-05,0
68.883,6.8147e-05,0
68.883,5.5894e-05,0
68.884,4.3809e-05,0
68.884,3.2898e-05,0
68.885,2.9541e-05,0
68.885,3.1724e-05,0
68.886,3.1556e-05,0
68.886,2.501e-05,0
68.887,1.561e-05,0
68.887,7.8889e-06,0
68.888,6.2104e-06,0
68.888,1.2924e-05,0
68.889,2.4674e-05,0
68.889,3.3906e-05,0
68.89,2.9877e-05,0
68.891,1.2589e-05,0
68.891,-1.0575e-05,0
68.892,-2.6856e-05,0
68.892,-3.1052e-05,0
68.893,-2.6688e-05,0
68.893,-1.6953e-05,0
68.894,-9.0639e-06,0
68.894,-3.5248e-06,0
68.895,-2.5177e-06,0
68.895,-5.539e-06,0
68.896,-8.3925e-06,0
68.896,-5.0355e-06,0
68.897,4.8676e-06,0
68.897,2.266e-05,0
68.898,4.3473e-05,0
68.898,5.8915e-05,0
68.899,6.7308e-05,0
68.899,7.2175e-05,0
68.9,7.6707e-05,0
68.9,7.9225e-05,0
68.901,7.3182e-05,0
68.901,5.4551e-05,0
68.902,2.2828e-05,0
68.902,-6.8818e-06,0
68.903,-2.2995e-05,0
68.903,-2.8367e-05,0
68.904,-3.3234e-05,0
68.905,-4.0452e-05,0
68.905,-4.5991e-05,0
68.906,-4.683e-05,0
68.906,-4.2298e-05,0
68.907,-3.5248e-05,0
68.907,-1.6449e-05,0
68.908,2.5177e-05,0
68.908,7.6036e-05,0
68.909,0.00010323,0
68.909,8.3757e-05,0
68.91,5.1362e-05,0
68.91,4.9851e-05,0
68.911,6.7979e-05,0
68.911,8.0064e-05,0
68.912,8.8457e-05,0
68.912,0.00010121,0
68.913,0.00010726,0
68.913,8.9128e-05,0
68.914,5.388e-05,0
68.914,2.2324e-05,0
68.915,2.5177e-06,0
68.915,-7.2175e-06,0
68.916,-1.1246e-05,0
68.916,-1.1246e-05,0
68.917,-7.2175e-06,0
68.918,-7.8889e-06,0
68.918,-1.7624e-05,0
68.919,-3.0045e-05,0
68.919,-3.7934e-05,0
68.92,-4.1962e-05,0
68.92,-4.4816e-05,0
68.921,-4.6159e-05,0
68.921,-4.3809e-05,0
68.922,-3.7934e-05,0
68.922,-3.2395e-05,0
68.923,-2.9038e-05,0
68.923,-2.8702e-05,0
68.924,-3.1052e-05,0
68.924,-3.2395e-05,0
68.925,-2.6352e-05,0
68.925,-1.5778e-05,0
68.926,6.714e-07,0
68.926,2.4002e-05,0
68.927,4.6494e-05,0
68.927,6.1601e-05,0
68.928,6.2776e-05,0
68.928,5.3544e-05,0
68.929,4.6159e-05,0
68.929,4.7669e-05,0
68.93,4.8844e-05,0
68.93,4.448e-05,0
68.931,3.743e-05,0
68.932,3.4409e-05,0
68.932,3.2395e-05,0
68.933,2.7359e-05,0
68.933,2.2324e-05,0
68.934,1.796e-05,0
68.934,1.326e-05,0
68.935,7.8889e-06,0
68.935,3.5248e-06,0
68.936,3.1891e-06,0
68.936,4.1962e-06,0
68.937,4.1962e-06,0
68.937,5.2033e-06,0
68.938,8.2246e-06,0
68.938,1.1414e-05,0
68.939,1.3428e-05,0
68.939,1.6449e-05,0
68.94,2.3667e-05,0
68.94,3.8773e-05,0
68.941,5.4887e-05,0
68.941,6.0761e-05,0
68.942,5.6565e-05,0
68.942,5.0858e-05,0
68.943,4.6662e-05,0
68.943,4.1291e-05,0
68.944,3.3402e-05,0
68.945,2.3163e-05,0
68.945,1.0575e-05,0
68.946,-6.5461e-06,0
68.946,-3.1388e-05,0
68.947,-5.6901e-05,0
68.947,-7.6204e-05,0
68.948,-8.9464e-05,0
68.948,-9.6178e-05,0
68.949,-0.00010004,0
68.949,-0.00010289,0
68.95,-0.0001034,0
68.95,-0.00010306,0
68.951,-9.6849e-05,0
68.951,-7.4693e-05,0
68.952,-2.3667e-05,0
68.952,5.2873e-05,0
68.953,0.00013075,0
68.953,0.00018833,0
68.954,0.00022811,0
68.954,0.00025949,0
68.955,0.00028014,0
68.955,0.00027276,0
68.956,0.00023734,0
68.956,0.00020763,0
68.957,0.00020226,0
68.957,0.00019756,0
68.958,0.00017037,0
68.959,0.00012438,0
68.959,7.8553e-05,0
68.96,5.0858e-05,0
68.96,3.7766e-05,0
68.961,2.0645e-05,0
68.961,-4.8676e-06,0
68.962,-1.6953e-05,0
68.962,-9.5674e-06,0
68.963,-1.1582e-05,0
68.963,-3.5416e-05,0
68.964,-5.7572e-05,0
68.964,-6.3951e-05,0
68.965,-6.1097e-05,0
68.965,-5.4383e-05,0
68.966,-4.8005e-05,0
68.966,-4.9516e-05,0
68.967,-5.0858e-05,0
68.967,-4.8005e-05,0
68.968,-4.448e-05,0
68.968,-4.6494e-05,0
68.969,-5.0187e-05,0
68.969,-4.6494e-05,0
68.97,-3.8605e-05,0
68.97,-3.2395e-05,0
68.971,-2.8199e-05,0
68.972,-2.501e-05,0
68.972,-2.0478e-05,0
68.973,-1.561e-05,0
68.973,-1.7288e-05,0
68.974,-2.3667e-05,0
68.974,-2.7192e-05,0
68.975,-3.2731e-05,0
68.975,-4.4144e-05,0
68.976,-6.0258e-05,0
68.976,-8.0735e-05,0
68.977,-9.5338e-05,0
68.977,-9.4835e-05,0
68.978,-8.191e-05,0
68.978,-6.5629e-05,0
68.979,-4.1962e-05,0
68.979,3.8605e-06,0
68.98,7.3854e-05,0
68.98,0.00013411,0
68.981,0.00016634,0
68.981,0.00018514,0
68.982,0.00019991,0
68.982,0.00020528,0
68.983,0.00019991,0
68.983,0.00018094,0
68.984,0.0001509,0
68.984,0.00011901,0
68.985,8.4932e-05,0
68.986,5.1026e-05,0
68.986,2.3667e-05,0
68.987,2.0142e-06,0
68.987,-8.0568e-06,0
68.988,-1.1749e-06,0
68.988,8.896e-06,0
68.989,1.326e-05,0
68.989,1.6785e-05,0
68.99,2.182e-05,0
68.99,2.6352e-05,0
68.991,2.6352e-05,0
68.991,1.561e-05,0
68.992,-3.0213e-06,0
68.992,-2.1149e-05,0
68.993,-3.5752e-05,0
68.993,-4.4984e-05,0
68.994,-5.0187e-05,0
68.994,-5.4215e-05,0
68.995,-5.9586e-05,0
68.995,-6.7643e-05,0
68.996,-7.0497e-05,0
68.996,-6.3447e-05,0
68.997,-5.304e-05,0
68.997,-4.0955e-05,0
68.998,-2.3667e-05,0
68.999,-3.357e-07,0
68.999,2.5345e-05,0
69,5.1362e-05,0
69,7.3686e-05,0
69.001,8.4092e-05,0
69.001,8.51e-05,0
69.002,8.6778e-05,0
69.002,9.2149e-05,0
69.003,0.00010121,0
69.003,0.00010423,0
69.004,9.4499e-05,0
69.004,7.4357e-05,0
69.005,4.448e-05,0
69.005,1.7456e-05,0
69.006,3.8605e-06,0
69.006,-3.0213e-06,0
69.007,-1.0742e-05,0
69.007,-1.9638e-05,0
69.008,-3.1556e-05,0
69.008,-4.7166e-05,0
69.009,-5.5222e-05,0
69.009,-5.1865e-05,0
69.01,-4.5487e-05,0
69.01,-4.2802e-05,0
69.011,-3.8102e-05,0
69.011,-2.5345e-05,0
69.012,-1.0575e-05,0
69.013,2.182e-06,0
69.013,1.5274e-05,0
69.014,3.3234e-05,0
69.014,5.0858e-05,0
69.015,6.0594e-05,0
69.015,5.9922e-05,0
69.016,5.5726e-05,0
69.016,5.5222e-05,0
69.017,5.7572e-05,0
69.017,5.623e-05,0
69.018,4.6494e-05,0
69.018,2.8367e-05,0
69.019,6.8818e-06,0
69.019,-9.5674e-06,0
69.02,-1.8463e-05,0
69.02,-2.4338e-05,0
69.021,-3.3402e-05,0
69.021,-4.4144e-05,0
69.022,-5.0355e-05,0
69.022,-4.8341e-05,0
69.023,-3.827e-05,0
69.023,-2.4338e-05,0
69.024,-1.2924e-05,0
69.024,-3.357e-06,0
69.025,1.5946e-05,0
69.025,5.2201e-05,0
69.026,9.6178e-05,0
69.027,0.00014217,0
69.027,0.00018631,0
69.028,0.00021988,0
69.028,0.0002271,0
69.029,0.00020159,0
69.029,0.00016046,0
69.03,0.00012471,0
69.03,0.00010289,0
69.031,8.7785e-05,0
69.031,7.0665e-05,0
69.032,4.7837e-05,0
69.032,2.3667e-05,0
69.033,4.1962e-06,0
69.033,-1.0239e-05,0
69.034,-1.8799e-05,0
69.034,-2.7024e-05,0
69.035,-3.743e-05,0
69.035,-4.5487e-05,0
69.036,-5.0858e-05,0
69.036,-5.623e-05,0
69.037,-6.1936e-05,0
69.037,-6.714e-05,0
69.038,-7.1e-05,0
69.038,-7.5532e-05,0
69.039,-7.9393e-05,0
69.04,-8.0232e-05,0
69.04,-7.805e-05,0
69.041,-7.1e-05,0
69.041,-5.4551e-05,0
69.042,-2.9038e-05,0
69.042,-1.1749e-06,0
69.043,1.9638e-05,0
69.043,3.592e-05,0
69.044,5.2537e-05,0
69.044,6.865e-05,0
69.045,7.8721e-05,0
69.045,8.2078e-05,0
69.046,7.8386e-05,0
69.046,7.4357e-05,0
69.047,7.8218e-05,0
69.047,8.0232e-05,0
69.048,6.63e-05,0
69.048,3.8102e-05,0
69.049,6.5461e-06,0
69.049,-1.7792e-05,0
69.05,-2.8367e-05,0
69.05,-2.9374e-05,0
69.051,-2.5345e-05,0
69.051,-1.6281e-05,0
69.052,-2.182e-06,0
69.052,1.326e-05,0
69.053,2.4506e-05,0
69.054,3.0381e-05,0
69.054,3.7766e-05,0
69.055,5.0523e-05,0
69.055,5.9586e-05,0
69.056,4.9516e-05,0
69.056,2.3331e-05,0
69.057,-2.3499e-06,0
69.057,-1.5778e-05,0
69.058,-1.5946e-05,0
69.058,-1.0575e-05,0
69.059,-6.8818e-06,0
69.059,-6.714e-06,0
69.06,-1.1414e-05,0
69.06,-2.266e-05,0
69.061,-3.5752e-05,0
69.061,-4.2466e-05,0
69.062,-3.8605e-05,0
69.062,-2.4842e-05,0
69.063,-7.5532e-06,0
69.063,-2.0142e-06,0
69.064,-5.539e-06,0
69.064,3.8605e-06,0
69.065,2.7359e-05,0
69.065,5.1194e-05,0
69.066,6.9657e-05,0
69.067,8.661e-05,0
69.067,0.00011028,0
69.068,0.00014015,0
69.068,0.00015795,0
69.069,0.00015492,0
69.069,0.00013931,0
69.07,0.00011565,0
69.07,8.51e-05,0
69.071,5.623e-05,0
69.071,3.592e-05,0
69.072,2.0981e-05,0
69.072,8.5603e-06,0
69.073,1.0071e-06,0
69.073,-4.1962e-06,0
69.074,-1.2924e-05,0
69.074,-2.182e-05,0
69.075,-2.8031e-05,0
69.075,-3.2059e-05,0
69.076,-3.7766e-05,0
69.076,-4.8341e-05,0
69.077,-5.774e-05,0
69.077,-5.9251e-05,0
69.078,-5.4719e-05,0
69.078,-5.0523e-05,0
69.079,-4.8676e-05,0
69.079,-4.6494e-05,0
69.08,-4.213e-05,0
69.081,-3.5416e-05,0
69.081,-2.4506e-05,0
69.082,-1.0575e-05,0
69.082,1.2085e-05,0
69.083,4.3137e-05,0
69.083,6.7643e-05,0
69.084,6.9322e-05,0
69.084,6.1265e-05,0
69.085,5.7237e-05,0
69.085,5.7237e-05,0
69.086,5.623e-05,0
69.086,5.1865e-05,0
69.087,4.8005e-05,0
69.087,4.8173e-05,0
69.088,5.0019e-05,0
69.088,4.7166e-05,0
69.089,4.4816e-05,0
69.089,5.0523e-05,0
69.09,6.1601e-05,0
69.09,6.3615e-05,0
69.091,4.9012e-05,0
69.091,1.9806e-05,0
69.092,-1.3931e-05,0
69.092,-4.0452e-05,0
69.093,-4.9516e-05,0
69.094,-3.9109e-05,0
69.094,-2.1653e-05,0
69.095,-9.3996e-06,0
69.095,-1.3428e-06,0
69.096,1.0575e-05,0
69.096,2.7863e-05,0
69.097,4.5487e-05,0
69.097,5.9754e-05,0
69.098,7.4189e-05,0
69.098,9.1142e-05,0
69.099,0.00010927,0
69.099,0.00011917,0
69.1,0.00011313,0
69.1,8.7785e-05,0
69.101,5.4551e-05,0
69.101,2.8702e-05,0
69.102,1.1749e-05,0
69.102,8.3925e-07,0
69.103,-1.1749e-06,0
69.103,7.5532e-06,0
69.104,1.6281e-05,0
69.104,1.4267e-05,0
69.105,-8.3925e-07,0
69.105,-1.9974e-05,0
69.106,-3.2059e-05,0
69.106,-3.6927e-05,0
69.107,-3.8437e-05,0
69.108,-3.7095e-05,0
69.108,-3.4409e-05,0
69.109,-3.2731e-05,0
69.109,-2.9374e-05,0
69.11,-1.9638e-05,0
69.11,-6.5461e-06,0
69.111,6.0426e-06,0
69.111,2.182e-05,0
69.112,4.8676e-05,0
69.112,8.51e-05,0
69.113,0.00011263,0
69.113,0.00011682,0
69.114,0.00010591,0
69.114,9.3156e-05,0
69.115,8.3589e-05,0
69.115,7.9057e-05,0
69.116,7.5364e-05,0
69.116,6.6972e-05,0
69.117,5.2537e-05,0
69.117,3.6759e-05,0
69.118,2.3667e-05,0
69.118,4.0284e-06,0
69.119,-2.2156e-05,0
69.119,-4.2466e-05,0
69.12,-5.3544e-05,0
69.121,-6.3951e-05,0
69.121,-8.0735e-05,0
69.122,-9.5842e-05,0
69.122,-0.00010071,0
69.123,-9.5171e-05,0
69.123,-8.2246e-05,0
69.124,-6.6133e-05,0
69.124,-5.1026e-05,0
69.125,-3.8437e-05,0
69.125,-2.6017e-05,0
69.126,-1.2757e-05,0
69.126,1.1749e-06,0
69.127,1.5274e-05,0
69.127,2.7695e-05,0
69.128,3.4745e-05,0
69.128,3.1724e-05,0
69.129,2.7527e-05,0
69.129,3.3738e-05,0
69.13,5.2873e-05,0
69.13,8.5435e-05,0
69.131,0.00011867,0
69.131,0.0001331,0
69.132,0.00012203,0
69.132,9.8192e-05,0
69.133,7.6371e-05,0
69.133,6.2776e-05,0
69.134,5.2201e-05,0
69.135,4.3305e-05,0
69.135,3.2059e-05,0
69.136,1.8967e-05,0
69.136,1.326e-05,0
69.137,1.6617e-05,0
69.137,2.652e-05,0
69.138,3.508e-05,0
69.138,4.213e-05,0
69.139,5.1194e-05,0
69.139,6.5461e-05,0
69.14,8.0735e-05,0
69.14,9.3828e-05,0
69.141,9.8527e-05,0
69.141,8.6107e-05,0
69.142,5.4047e-05,0
69.142,1.4603e-05,0
69.143,-1.4267e-05,0
69.143,-2.6856e-05,0
69.144,-2.8702e-05,0
69.144,-3.0549e-05,0
69.145,-3.743e-05,0
69.145,-4.4816e-05,0
69.146,-5.0187e-05,0
69.146,-5.2537e-05,0
69.147,-4.8173e-05,0
69.148,-4.1123e-05,0
69.148,-3.5416e-05,0
69.149,-3.1388e-05,0
69.149,-2.7024e-05,0
69.15,-2.1317e-05,0
69.15,-1.8296e-05,0
69.151,-1.796e-05,0
69.151,-1.8967e-05,0
69.152,-1.8799e-05,0
69.152,-1.2924e-05,0
69.153,-5.2033e-06,0
69.153,-4.5319e-06,0
69.154,-1.1582e-05,0
69.154,-1.6617e-05,0
69.155,-1.3596e-05,0
69.155,-7.5532e-06,0
69.156,-3.5248e-06,0
69.156,1.1749e-06,0
69.157,7.0497e-06,0
69.157,1.1749e-05,0
69.158,1.1917e-05,0
69.158,9.9031e-06,0
69.159,1.326e-05,0
69.159,2.9709e-05,0
69.16,5.9586e-05,0
69.16,8.7953e-05,0
69.161,9.2821e-05,0
69.162,7.7043e-05,0
69.162,6.3279e-05,0
69.163,6.4286e-05,0
69.163,7.9728e-05,0
69.164,9.366e-05,0
69.164,9.3492e-05,0
69.165,8.2582e-05,0
69.165,6.3279e-05,0
69.166,4.4144e-05,0
69.166,3.2059e-05,0
69.167,2.3331e-05,0
69.167,1.6953e-05,0
69.168,1.5442e-05,0
69.168,1.7121e-05,0
69.169,1.8967e-05,0
69.169,2.3331e-05,0
69.17,2.9541e-05,0
69.17,3.743e-05,0
69.171,4.6159e-05,0
69.171,4.9348e-05,0
69.172,4.5151e-05,0
69.172,4.0452e-05,0
69.173,3.8437e-05,0
69.173,3.7934e-05,0
69.174,3.743e-05,0
69.175,3.4073e-05,0
69.175,2.8702e-05,0
69.176,2.2324e-05,0
69.176,1.561e-05,0
69.177,1.2085e-05,0
69.177,1.0239e-05,0
69.178,8.896e-06,0
69.178,5.0355e-07,0
69.179,-1.8463e-05,0
69.179,-4.7501e-05,0
69.18,-7.9393e-05,0
69.18,-0.00010927,0
69.181,-0.00012975,0
69.181,-0.00013344,0
69.182,-0.00012253,0
69.182,-0.00010407,0
69.183,-8.1743e-05,0
69.183,-5.1194e-05,0
69.184,-9.7353e-06,0
69.184,4.4816e-05,0
69.185,0.00010709,0
69.185,0.00015962,0
69.186,0.00019252,0
69.186,0.00020327,0
69.187,0.00019655,0
69.188,0.00017708,0
69.188,0.00014284,0
69.189,0.00010256,0
69.189,7.0665e-05,0
69.19,4.6662e-05,0
69.19,2.652e-05,0
69.191,6.3783e-06,0
69.191,-1.8296e-05,0
69.192,-4.5487e-05,0
69.192,-6.9657e-05,0
69.193,-8.0735e-05,0
69.193,-8.7282e-05,0
69.194,-0.0001044,0
69.194,-0.0001232,0
69.195,-0.00012639,0
69.195,-0.00011363,0
69.196,-8.6275e-05,0
69.196,-4.3137e-05,0
69.197,2.1988e-05,0
69.197,0.00010591,0
69.198,0.00018447,0
69.198,0.00023482,0
69.199,0.00025127,0
69.199,0.00024506,0
69.2,0.00023281,0
69.2,0.00021267,0
69.201,0.00018212,0
69.202,0.00015241,0
69.202,0.00013042,0
69.203,0.00010121,0
69.203,6.3783e-05,0
69.204,3.5416e-05,0
69.204,1.9471e-05,0
69.205,7.7211e-06,0
69.205,-5.0355e-06,0
69.206,-1.8631e-05,0
69.206,-3.1556e-05,0
69.207,-4.2802e-05,0
69.207,-5.1194e-05,0
69.208,-5.6733e-05,0
69.208,-5.7572e-05,0
69.209,-5.7572e-05,0
69.209,-6.2104e-05,0
69.21,-6.9322e-05,0
69.21,-7.0497e-05,0
69.211,-6.8147e-05,0
69.211,-6.6468e-05,0
69.212,-6.3783e-05,0
69.212,-5.7908e-05,0
69.213,-5.4551e-05,0
69.213,-5.5222e-05,0
69.214,-5.5222e-05,0
69.215,-5.4383e-05,0
69.215,-5.4719e-05,0
69.216,-5.5558e-05,0
69.216,-5.4047e-05,0
69.217,-5.2873e-05,0
69.217,-4.9516e-05,0
69.218,-3.978e-05,0
69.218,-2.0645e-05,0
69.219,1.8463e-06,0
69.219,1.8799e-05,0
69.22,3.3402e-05,0
69.22,4.7669e-05,0
69.221,5.6062e-05,0
69.221,5.5222e-05,0
69.222,5.0523e-05,0
69.222,4.213e-05,0
69.223,2.8199e-05,0
69.223,1.3931e-05,0
69.224,9.5674e-06,0
69.224,1.7624e-05,0
69.225,3.2059e-05,0
69.225,4.3641e-05,0
69.226,4.8173e-05,0
69.226,4.7837e-05,0
69.227,4.5487e-05,0
69.227,4.9851e-05,0
69.228,5.8579e-05,0
69.229,6.1601e-05,0
69.229,5.8915e-05,0
69.23,5.539e-05,0
69.23,5.2033e-05,0
69.231,5.4383e-05,0
69.231,6.2608e-05,0
69.232,7.0161e-05,0
69.232,7.1504e-05,0
69.233,6.3951e-05,0
69.233,5.6062e-05,0
69.234,5.623e-05,0
69.234,6.4118e-05,0
69.235,6.949e-05,0
69.235,6.8315e-05,0
69.236,6.3447e-05,0
69.236,5.2537e-05,0
69.237,3.4409e-05,0
69.237,1.4939e-05,0
69.238,-3.1891e-06,0
69.238,-2.5681e-05,0
69.239,-5.6565e-05,0
69.239,-8.8792e-05,0
69.24,-0.00010373,0
69.24,-9.6513e-05,0
69.241,-7.7546e-05,0
69.242,-6.1433e-05,0
69.242,-5.388e-05,0
69.243,-5.4551e-05,0
69.243,-5.4383e-05,0
69.244,-3.592e-05,0
69.244,1.2589e-05,0
69.245,8.6778e-05,0
69.245,0.00016802,0
69.246,0.00022391,0
69.246,0.00022844,0
69.247,0.00018917,0
69.247,0.00013881,0
69.248,0.00010021,0
69.248,7.4861e-05,0
69.249,5.304e-05,0
69.249,3.4241e-05,0
69.25,2.5849e-05,0
69.25,2.0142e-05,0
69.251,1.1749e-06,0
69.251,-2.9374e-05,0
69.252,-5.8412e-05,0
69.252,-7.7882e-05,0
69.253,-8.7785e-05,0
69.253,-9.3492e-05,0
69.254,-9.3156e-05,0
69.254,-8.4092e-05,0
69.255,-7.0665e-05,0
69.256,-5.9419e-05,0
69.256,-4.5487e-05,0
69.257,-2.1317e-05,0
69.257,9.9031e-06,0
69.258,4.5991e-05,0
69.258,8.5267e-05,0
69.259,0.0001086,0
69.259,9.987e-05,0
69.26,7.57e-05,0
69.26,6.5126e-05,0
69.261,7.2007e-05,0
69.261,8.3421e-05,0
69.262,9.1142e-05,0
69.262,8.896e-05,0
69.263,7.2007e-05,0
69.263,4.7837e-05,0
69.264,2.4842e-05,0
69.264,7.3854e-06,0
69.265,-6.714e-07,0
69.265,-6.714e-07,0
69.266,5.0355e-07,0
69.266,8.3925e-07,0
69.267,4.1962e-06,0
69.267,5.8747e-06,0
69.268,3.357e-07,0
69.269,-7.5532e-06,0
69.269,-1.2085e-05,0
69.27,-9.7353e-06,0
69.27,-7.0497e-06,0
69.271,-1.091e-05,0
69.271,-2.0478e-05,0
69.272,-2.9374e-05,0
69.272,-2.9709e-05,0
69.273,-1.8967e-05,0
69.273,-2.8534e-06,0
69.274,1.1582e-05,0
69.274,2.1317e-05,0
69.275,2.3331e-05,0
69.275,1.8631e-05,0
69.276,1.5274e-05,0
69.276,2.0478e-05,0
69.277,2.7192e-05,0
69.277,3.2395e-05,0
69.278,3.5752e-05,0
69.278,3.9612e-05,0
69.279,4.3977e-05,0
69.279,4.2802e-05,0
69.28,3.2059e-05,0
69.28,1.6449e-05,0
69.281,8.3925e-06,0
69.281,8.2246e-06,0
69.282,8.5603e-06,0
69.283,1.561e-05,0
69.283,2.5681e-05,0
69.284,2.6688e-05,0
69.284,1.4267e-05,0
69.285,-1.1749e-06,0
69.285,-6.8818e-06,0
69.286,-1.8463e-06,0
69.286,7.3854e-06,0
69.287,1.5274e-05,0
69.287,1.7624e-05,0
69.288,1.6617e-05,0
69.288,2.2324e-05,0
69.289,3.4073e-05,0
69.289,4.0955e-05,0
69.29,3.508e-05,0
69.29,1.8631e-05,0
69.291,5.0355e-07,0
69.291,-5.539e-06,0
69.292,1.8463e-06,0
69.292,9.3996e-06,0
69.293,1.3931e-05,0
69.293,2.4506e-05,0
69.294,4.683e-05,0
69.294,6.8818e-05,0
69.295,7.9728e-05,0
69.296,8.0903e-05,0
69.296,7.6371e-05,0
69.297,6.6804e-05,0
69.297,5.3208e-05,0
69.298,3.9277e-05,0
69.298,3.0381e-05,0
69.299,2.2995e-05,0
69.299,1.7288e-05,0
69.3,1.4603e-05,0
69.3,1.2589e-05,0
69.301,8.3925e-06,0
69.301,2.8534e-06,0
69.302,-2.8534e-06,0
69.302,-5.8747e-06,0
69.303,-4.1962e-06,0
69.303,-1.6785e-07,0
69.304,2.3499e-06,0
69.304,5.2033e-06,0
69.305,4.8676e-06,0
69.305,-5.0355e-07,0
69.306,-5.2033e-06,0
69.306,-5.7069e-06,0
69.307,-5.7069e-06,0
69.307,-8.2246e-06,0
69.308,-1.3931e-05,0
69.308,-2.1653e-05,0
69.309,-2.7192e-05,0
69.31,-2.7527e-05,0
69.31,-2.3163e-05,0
69.311,-1.561e-05,0
69.311,-1.2253e-05,0
69.312,-2.182e-05,0
69.312,-4.1459e-05,0
69.313,-5.153e-05,0
69.313,-3.8773e-05,0
69.314,-8.3925e-06,0
69.314,2.9709e-05,0
69.315,6.8147e-05,0
69.315,9.8527e-05,0
69.316,0.00011028,0
69.316,0.00010054,0
69.317,8.6275e-05,0
69.317,8.6946e-05,0
69.318,0.00010239,0
69.318,0.00012052,0
69.319,0.00012236,0
69.319,9.4331e-05,0
69.32,5.7572e-05,0
69.32,3.7766e-05,0
69.321,3.1724e-05,0
69.321,2.6352e-05,0
69.322,1.9303e-05,0
69.323,1.3764e-05,0
69.323,2.0981e-05,0
69.324,3.5752e-05,0
69.324,4.2466e-05,0
69.325,3.5416e-05,0
69.325,2.8031e-05,0
69.326,3.122e-05,0
69.326,4.062e-05,0
69.327,5.3376e-05,0
69.327,7.1336e-05,0
69.328,8.8457e-05,0
69.328,9.8527e-05,0
69.329,9.7353e-05,0
69.329,7.9393e-05,0
69.33,4.9348e-05,0
69.33,2.182e-05,0
69.331,7.5532e-06,0
69.331,2.182e-06,0
69.332,-3.5248e-06,0
69.332,-1.1582e-05,0
69.333,-2.1653e-05,0
69.333,-3.8773e-05,0
69.334,-6.244e-05,0
69.334,-7.6371e-05,0
69.335,-7.9393e-05,0
69.335,-8.1743e-05,0
69.336,-8.3421e-05,0
69.337,-7.6707e-05,0
69.337,-6.0426e-05,0
69.338,-4.0787e-05,0
69.338,-2.6352e-05,0
69.339,-1.3092e-05,0
69.339,4.0284e-06,0
69.34,2.266e-05,0
69.34,3.6927e-05,0
69.341,4.7333e-05,0
69.341,5.8747e-05,0
69.342,6.9993e-05,0
69.342,6.8986e-05,0
69.343,4.683e-05,0
69.343,1.5778e-05,0
69.344,-3.5248e-06,0
69.344,-5.7069e-06,0
69.345,-3.1891e-06,0
69.345,-5.0355e-06,0
69.346,-3.5248e-06,0
69.346,3.6927e-06,0
69.347,1.0407e-05,0
69.347,1.2589e-05,0
69.348,9.7353e-06,0
69.348,7.5532e-06,0
69.349,9.2317e-06,0
69.35,1.0239e-05,0
69.35,3.1891e-06,0
69.351,-1.2421e-05,0
69.351,-2.5177e-05,0
69.352,-2.5681e-05,0
69.352,-1.5946e-05,0
69.353,-6.714e-06,0
69.353,-6.8818e-06,0
69.354,-1.0575e-05,0
69.354,-8.5603e-06,0
69.355,-5.2033e-06,0
69.355,-5.0355e-06,0
69.356,-2.182e-06,0
69.356,1.2253e-05,0
69.357,4.1962e-05,0
69.357,7.3686e-05,0
69.358,8.7617e-05,0
69.358,7.8218e-05,0
69.359,6.0258e-05,0
69.359,5.3544e-05,0
69.36,6.1601e-05,0
69.36,7.9225e-05,0
69.361,0.00010188,0
69.361,0.0001232,0
69.362,0.00013143,0
69.362,0.00011934,0
69.363,8.8792e-05,0
69.364,5.2873e-05,0
69.364,2.501e-05,0
69.365,6.3783e-06,0
69.365,-1.0239e-05,0
69.366,-2.5681e-05,0
69.366,-3.8773e-05,0
69.367,-5.2705e-05,0
69.367,-6.3951e-05,0
69.368,-6.5293e-05,0
69.368,-5.7237e-05,0
69.369,-4.2466e-05,0
69.369,-2.6352e-05,0
69.37,-1.1582e-05,0
69.37,1.0239e-05,0
69.371,4.5151e-05,0
69.371,8.7785e-05,0
69.372,0.00011968,0
69.372,0.00012992,0
69.373,0.00012203,0
69.373,0.00010574,0
69.374,8.51e-05,0
69.374,6.3951e-05,0
69.375,5.0858e-05,0
69.375,4.1459e-05,0
69.376,2.7359e-05,0
69.376,1.3092e-05,0
69.377,-3.0213e-06,0
69.378,-3.0381e-05,0
69.378,-6.5797e-05,0
69.379,-9.3156e-05,0
69.379,-0.00010188,0
69.38,-9.366e-05,0
69.38,-7.8721e-05,0
69.381,-6.2104e-05,0
69.381,-4.7166e-05,0
69.382,-2.9709e-05,0
69.382,1.1749e-06,0
69.383,4.8676e-05,0
69.383,0.00011128,0
69.384,0.00017708,0
69.384,0.00021904,0
69.385,0.00021904,0
69.385,0.00018766,0
69.386,0.00014888,0
69.386,0.00012236,0
69.387,0.00011128,0
69.387,0.00010558,0
69.388,9.5506e-05,0
69.388,7.2343e-05,0
69.389,2.4674e-05,0
69.389,-4.1291e-05,0
69.39,-0.00010172,0
69.391,-0.00014754,0
69.391,-0.00018547,0
69.392,-0.00021602,0
69.392,-0.00023851,0
69.393,-0.0002511,0
69.393,-0.00024523,0
69.394,-0.00020729,0
69.394,-0.00014418,0
69.395,-7.8553e-05,0
69.395,-1.0239e-05,0
69.396,7.0832e-05,0
69.396,0.00015392,0
69.397,0.00021988,0
69.397,0.00026302,0
69.398,0.00027645,0
69.398,0.00025295,0
69.399,0.00020461,0
69.399,0.00016046,0
69.4,0.00012874,0
69.4,9.4331e-05,0
69.401,5.7237e-05,0
69.401,2.5849e-05,0
69.402,6.5461e-06,0
69.402,-1.3428e-06,0
69.403,-6.5461e-06,0
69.403,-1.326e-05,0
69.404,-1.8631e-05,0
69.405,-2.4002e-05,0
69.405,-2.9709e-05,0
69.406,-3.1052e-05,0
69.406,-2.887e-05,0
69.407,-2.7024e-05,0
69.407,-2.5177e-05,0
69.408,-2.2995e-05,0
69.408,-2.0645e-05,0
69.409,-1.5946e-05,0
69.409,-9.5674e-06,0
69.41,-3.1891e-06,0
69.41,6.8818e-06,0
69.411,1.7121e-05,0
69.411,1.8631e-05,0
69.412,1.0575e-05,0
69.412,2.182e-06,0
69.413,-2.3499e-06,0
69.413,-1.0071e-06,0
69.414,3.1891e-06,0
69.414,7.8889e-06,0
69.415,1.2421e-05,0
69.415,1.4603e-05,0
69.416,1.5274e-05,0
69.416,1.2253e-05,0
69.417,5.8747e-06,0
69.418,0,0
69.418,-3.357e-06,0
69.419,-6.8818e-06,0
69.419,-1.091e-05,0
69.42,-1.1582e-05,0
69.42,-9.2317e-06,0
69.421,-4.3641e-06,0
69.421,3.5248e-06,0
69.422,1.1917e-05,0
69.422,2.0645e-05,0
69.423,3.3738e-05,0
69.423,4.9348e-05,0
69.424,6.0258e-05,0
69.424,5.8915e-05,0
69.425,4.3977e-05,0
69.425,2.3331e-05,0
69.426,8.0568e-06,0
69.426,1.1749e-06,0
69.427,2.8534e-06,0
69.427,9.9031e-06,0
69.428,1.796e-05,0
69.428,2.0981e-05,0
69.429,1.4267e-05,0
69.429,8.7282e-06,0
69.43,6.8818e-06,0
69.43,5.2033e-06,0
69.431,7.8889e-06,0
69.432,2.0478e-05,0
69.432,3.4913e-05,0
69.433,3.743e-05,0
69.433,3.0381e-05,0
69.434,2.2156e-05,0
69.434,1.2589e-05,0
69.435,5.8747e-06,0
69.435,1.0407e-05,0
69.436,2.9206e-05,0
69.436,5.9922e-05,0
69.437,8.7114e-05,0
69.437,9.6513e-05,0
69.438,8.5771e-05,0
69.438,6.8986e-05,0
69.439,6.0594e-05,0
69.439,5.9922e-05,0
69.44,5.5894e-05,0
69.44,4.6494e-05,0
69.441,3.4745e-05,0
69.441,2.0142e-05,0
69.442,7.8889e-06,0
69.442,5.8747e-06,0
69.443,8.7282e-06,0
69.443,9.5674e-06,0
69.444,6.2104e-06,0
69.445,-1.5106e-06,0
69.445,-1.1917e-05,0
69.446,-2.9709e-05,0
69.446,-6.2272e-05,0
69.447,-0.00011162,0
69.447,-0.00016365,0
69.448,-0.00019504,0
69.448,-0.00019773,0
69.449,-0.00018547,0
69.449,-0.00015946,0
69.45,-0.00010977,0
69.45,-3.8437e-05,0
69.451,3.9612e-05,0
69.451,0.00011196,0
69.452,0.00017255,0
69.452,0.00022475,0
69.453,0.00026957,0
69.453,0.00030062,0
69.454,0.0003127,0
69.454,0.00030398,0
69.455,0.00028249,0
69.455,0.00025026,0
69.456,0.00020092,0
69.456,0.0001415,0
69.457,8.5435e-05,0
69.457,4.2466e-05,0
69.458,1.7288e-05,0
69.459,6.2104e-06,0
69.459,-2.182e-06,0
69.46,-1.2924e-05,0
69.46,-2.1653e-05,0
69.461,-2.7359e-05,0
69.461,-3.3402e-05,0
69.462,-4.2298e-05,0
69.462,-5.7237e-05,0
69.463,-7.8889e-05,0
69.463,-0.00010625,0
69.464,-0.0001227,0
69.464,-0.00011296,0
69.465,-8.8792e-05,0
69.465,-6.6804e-05,0
69.466,-4.1794e-05,0
69.466,-1.0239e-05,0
69.467,2.8031e-05,0
69.467,7.3014e-05,0
69.468,0.00011531,0
69.468,0.0001415,0
69.469,0.00014687,0
69.469,0.00014083,0
69.47,0.00012773,0
69.47,0.00010188,0
69.471,6.5629e-05,0
69.472,3.0045e-05,0
69.472,7.8889e-06,0
69.473,-9.5674e-06,0
69.473,-3.0213e-05,0
69.474,-4.7501e-05,0
69.474,-5.9419e-05,0
69.475,-6.5629e-05,0
69.475,-6.5797e-05,0
69.476,-6.4118e-05,0
69.476,-6.2943e-05,0
69.477,-5.6733e-05,0
69.477,-4.4312e-05,0
69.478,-3.2898e-05,0
69.478,-2.5177e-05,0
69.479,-2.2324e-05,0
69.479,-2.3835e-05,0
69.48,-2.8367e-05,0
69.48,-3.3402e-05,0
69.481,-3.8605e-05,0
69.481,-4.5319e-05,0
69.482,-5.2537e-05,0
69.482,-5.3544e-05,0
69.483,-4.7333e-05,0
69.483,-3.4745e-05,0
69.484,-1.8296e-05,0
69.484,-4.3641e-06,0
69.485,3.8605e-06,0
69.486,1.6281e-05,0
69.486,4.0787e-05,0
69.487,7.5364e-05,0
69.487,0.00010155,0
69.488,0.00010507,0
69.488,9.1478e-05,0
69.489,7.1672e-05,0
69.489,5.2201e-05,0
69.49,4.0116e-05,0
69.49,3.5584e-05,0
69.491,3.2731e-05,0
69.491,2.6688e-05,0
69.492,1.9638e-05,0
69.492,1.4603e-05,0
69.493,1.2924e-05,0
69.493,1.2589e-05,0
69.494,1.3092e-05,0
69.494,1.1917e-05,0
69.495,7.8889e-06,0
69.495,2.182e-06,0
69.496,-4.5319e-06,0
69.496,-7.8889e-06,0
69.497,-5.539e-06,0
69.497,3.1891e-06,0
69.498,1.0071e-05,0
69.499,1.5106e-05,0
69.499,2.6688e-05,0
69.5,4.213e-05,0
69.5,5.0019e-05,0
69.501,4.9516e-05,0
69.501,4.062e-05,0
69.502,2.652e-05,0
69.502,1.1582e-05,0
69.503,-2.5177e-06,0
69.503,-1.6617e-05,0
69.504,-2.9038e-05,0
69.504,-3.9109e-05,0
69.505,-4.4984e-05,0
69.505,-4.8173e-05,0
69.506,-4.8508e-05,0
69.506,-4.1459e-05,0
69.507,-2.7192e-05,0
69.507,-1.1078e-05,0
69.508,1.3596e-05,0
69.508,5.2033e-05,0
69.509,8.4428e-05,0
69.509,9.2988e-05,0
69.51,8.2246e-05,0
69.51,7.335e-05,0
69.511,7.7714e-05,0
69.511,9.3492e-05,0
69.512,0.00011968,0
69.513,0.00014754,0
69.513,0.0001566,0
69.514,0.000142,0
69.514,0.0001284,0
69.515,0.000118,0
69.515,9.3828e-05,0
69.516,6.4286e-05,0
69.516,4.2634e-05,0
69.517,2.8031e-05,0
69.517,2.0478e-05,0
69.518,1.9974e-05,0
69.518,2.1653e-05,0
69.519,2.1988e-05,0
69.519,2.5849e-05,0
69.52,5.0523e-05,0
69.52,8.51e-05,0
69.521,9.8192e-05,0
69.521,8.3757e-05,0
69.522,6.3951e-05,0
69.522,5.5726e-05,0
69.523,5.5894e-05,0
69.523,4.8173e-05,0
69.524,3.1388e-05,0
69.524,6.8818e-06,0
69.525,-3.0045e-05,0
69.526,-7.3014e-05,0
69.526,-0.00010927,0
69.527,-0.00012773,0
69.527,-0.00012706,0
69.528,-0.00011867,0
69.528,-0.00011514,0
69.529,-0.00012052,0
69.529,-0.00012018,0
69.53,-0.00010457,0
69.53,-7.5532e-05,0
69.531,-3.592e-05,0
69.531,1.5106e-06,0
69.532,2.7863e-05,0
69.532,4.5487e-05,0
69.533,5.623e-05,0
69.533,5.8579e-05,0
69.534,5.8076e-05,0
69.534,5.9083e-05,0
69.535,6.4118e-05,0
69.535,7.1336e-05,0
69.536,7.1672e-05,0
69.536,6.63e-05,0
69.537,6.7475e-05,0
69.537,7.8721e-05,0
69.538,7.9561e-05,0
69.538,4.7837e-05,0
69.539,-3.6927e-06,0
69.54,-3.9445e-05,0
69.54,-3.9445e-05,0
69.541,-6.8818e-06,0
69.541,3.1556e-05,0
69.542,5.2201e-05,0
69.542,5.2873e-05,0
69.543,4.918e-05,0
69.543,4.9516e-05,0
69.544,5.2873e-05,0
69.544,5.2873e-05,0
69.545,4.9851e-05,0
69.545,5.0187e-05,0
69.546,5.5055e-05,0
69.546,5.2537e-05,0
69.547,3.508e-05,0
69.547,1.1917e-05,0
69.548,-4.6998e-06,0
69.548,-1.2253e-05,0
69.549,-1.2924e-05,0
69.549,-7.5532e-06,0
69.55,-1.1749e-06,0
69.55,3.357e-06,0
69.551,5.7069e-06,0
69.551,5.2033e-06,0
69.552,4.8676e-06,0
69.553,8.7282e-06,0
69.553,1.2757e-05,0
69.554,8.896e-06,0
69.554,-3.1891e-06,0
69.555,-1.8799e-05,0
69.555,-3.122e-05,0
69.556,-3.6927e-05,0
69.556,-3.6423e-05,0
69.557,-3.2563e-05,0
69.557,-2.5849e-05,0
69.558,-1.5778e-05,0
69.558,-6.8818e-06,0
69.559,-1.5106e-06,0
69.559,5.0355e-06,0
69.56,2.0645e-05,0
69.56,3.7766e-05,0
69.561,4.3809e-05,0
69.561,4.1962e-05,0
69.562,4.3473e-05,0
69.562,4.8844e-05,0
69.563,4.7166e-05,0
69.563,3.7095e-05,0
69.564,2.9038e-05,0
69.564,2.3163e-05,0
69.565,1.7288e-05,0
69.566,1.1414e-05,0
69.566,1.0071e-05,0
69.567,1.2589e-05,0
69.567,1.6617e-05,0
69.568,1.8631e-05,0
69.568,1.5442e-05,0
69.569,2.5177e-06,0
69.569,-2.1317e-05,0
69.57,-4.3137e-05,0
69.57,-4.6494e-05,0
69.571,-3.4577e-05,0
69.571,-2.1653e-05,0
69.572,-1.3931e-05,0
69.572,-6.3783e-06,0
69.573,5.8747e-06,0
69.573,1.9974e-05,0
69.574,3.743e-05,0
69.574,5.9922e-05,0
69.575,8.5771e-05,0
69.575,0.00010692,0
69.576,0.00011699,0
69.576,0.00012119,0
69.577,0.00012119,0
69.577,0.00011464,0
69.578,0.00010256,0
69.578,8.6275e-05,0
69.579,6.9993e-05,0
69.58,5.6901e-05,0
69.58,4.5151e-05,0
69.581,3.2731e-05,0
69.581,2.266e-05,0
69.582,1.5442e-05,0
69.582,7.8889e-06,0
69.583,-1.6785e-07,0
69.583,-5.539e-06,0
69.584,-8.896e-06,0
69.584,-1.1582e-05,0
69.585,-9.0639e-06,0
69.585,1.6785e-06,0
69.586,1.6449e-05,0
69.586,2.6688e-05,0
69.587,2.8702e-05,0
69.587,3.0213e-05,0
69.588,3.978e-05,0
69.588,5.0523e-05,0
69.589,4.9348e-05,0
69.589,3.3066e-05,0
69.59,1.2924e-05,0
69.59,2.0142e-06,0
69.591,-5.7069e-06,0
69.591,-1.9974e-05,0
69.592,-3.4241e-05,0
69.593,-3.9109e-05,0
69.593,-3.9445e-05,0
69.594,-4.5151e-05,0
69.594,-5.3544e-05,0
69.595,-5.153e-05,0
69.595,-4.1794e-05,0
69.596,-3.3066e-05,0
69.596,-1.8631e-05,0
69.597,7.8889e-06,0
69.597,3.743e-05,0
69.598,6.3279e-05,0
69.598,8.6946e-05,0
69.599,0.00011061,0
69.599,0.00012807,0
69.6,0.00013478,0
69.6,0.00013411,0
69.601,0.00012874,0
69.601,0.00012001,0
69.602,0.00010524,0
69.602,8.3421e-05,0
69.603,5.3208e-05,0
69.603,2.2828e-05,0
69.604,4.1962e-06,0
69.604,-2.5177e-06,0
69.605,-1.0575e-05,0
69.605,-2.0478e-05,0
69.606,-2.3667e-05,0
69.607,-2.0478e-05,0
69.607,-1.5946e-05,0
69.608,-1.326e-05,0
69.608,-1.8463e-05,0
69.609,-2.7024e-05,0
69.609,-3.2059e-05,0
69.61,-3.508e-05,0
69.61,-3.7095e-05,0
69.611,-3.6423e-05,0
69.611,-3.2395e-05,0
69.612,-2.5849e-05,0
69.612,-2.3667e-05,0
69.613,-2.4002e-05,0
69.613,-1.8631e-05,0
69.614,-1.1917e-05,0
69.614,-8.2246e-06,0
69.615,-9.9031e-06,0
69.615,-1.5274e-05,0
69.616,-1.7456e-05,0
69.616,-1.2924e-05,0
69.617,-6.2104e-06,0
69.617,-3.5248e-06,0
69.618,-7.7211e-06,0
69.618,-1.4267e-05,0
69.619,-1.8463e-05,0
69.62,-2.0645e-05,0
69.62,-2.0813e-05,0
69.621,-2.1653e-05,0
69.621,-2.3163e-05,0
69.622,-1.9806e-05,0
69.622,-9.7353e-06,0
69.623,1.1749e-06,0
69.623,7.3854e-06,0
69.624,8.5603e-06,0
69.624,1.326e-05,0
69.625,2.9709e-05,0
69.625,5.1698e-05,0
69.626,6.6972e-05,0
69.626,7.3854e-05,0
69.627,7.6707e-05,0
69.627,8.1071e-05,0
69.628,8.4764e-05,0
69.628,8.426e-05,0
69.629,8.0232e-05,0
69.629,7.6707e-05,0
69.63,8.0735e-05,0
69.63,8.7114e-05,0
69.631,8.9128e-05,0
69.631,8.3757e-05,0
69.632,7.2007e-05,0
69.632,5.9922e-05,0
69.633,5.774e-05,0
69.634,6.2608e-05,0
69.634,6.5293e-05,0
69.635,5.9419e-05,0
69.635,4.5991e-05,0
69.636,3.2563e-05,0
69.636,1.796e-05,0
69.637,-1.5106e-06,0
69.637,-3.6423e-05,0
69.638,-8.275e-05,0
69.638,-0.00011867,0
69.639,-0.00012941,0
69.639,-0.00012136,0
69.64,-0.00010054,0
69.64,-7.335e-05,0
69.641,-4.5991e-05,0
69.641,-2.0981e-05,0
69.642,3.8605e-06,0
69.642,3.5416e-05,0
69.643,7.9896e-05,0
69.643,0.00013747,0
69.644,0.00019118,0
69.644,0.0002078,0
69.645,0.00017238,0
69.645,0.00010037,0
69.646,2.5177e-05,0
69.647,-2.3163e-05,0
69.647,-4.3809e-05,0
69.648,-4.5151e-05,0
69.648,-2.9877e-05,0
69.649,1.6785e-06,0
69.649,3.6759e-05,0
69.65,5.623e-05,0
69.65,6.4118e-05,0
69.651,8.3085e-05,0
69.651,0.00012001,0
69.652,0.00015912,0
69.652,0.00018178,0
69.653,0.00016986,0
69.653,0.00013008,0
69.654,8.5267e-05,0
69.654,4.6159e-05,0
69.655,1.8967e-05,0
69.655,3.5248e-06,0
69.656,-6.8818e-06,0
69.656,-1.5274e-05,0
69.657,-2.2324e-05,0
69.657,-2.7527e-05,0
69.658,-3.0045e-05,0
69.658,-3.3234e-05,0
69.659,-3.743e-05,0
69.659,-4.213e-05,0
69.66,-4.5487e-05,0
69.661,-4.5823e-05,0
69.661,-4.7669e-05,0
69.662,-5.3544e-05,0
69.662,-5.8747e-05,0
69.663,-5.6901e-05,0
69.663,-4.8844e-05,0
69.664,-3.9277e-05,0
69.664,-2.8367e-05,0
69.665,-2.2995e-05,0
69.665,-2.3667e-05,0
69.666,-2.3163e-05,0
69.666,-1.6281e-05,0
69.667,-3.0213e-06,0
69.667,1.5778e-05,0
69.668,3.2731e-05,0
69.668,3.9277e-05,0
69.669,3.2395e-05,0
69.669,2.0478e-05,0
69.67,1.326e-05,0
69.67,1.4267e-05,0
69.671,1.6953e-05,0
69.671,2.3331e-05,0
69.672,3.4241e-05,0
69.672,4.1794e-05,0
69.673,3.5584e-05,0
69.674,1.7456e-05,0
69.674,3.8605e-06,0
69.675,2.8534e-06,0
69.675,7.7211e-06,0
69.676,6.8818e-06,0
69.676,-1.0071e-06,0
69.677,-1.1917e-05,0
69.677,-2.266e-05,0
69.678,-2.887e-05,0
69.678,-2.8702e-05,0
69.679,-2.4338e-05,0
69.679,-1.8463e-05,0
69.68,-1.0407e-05,0
69.68,1.6785e-06,0
69.681,1.8296e-05,0
69.681,3.3906e-05,0
69.682,4.4144e-05,0
69.682,5.0858e-05,0
69.683,5.8579e-05,0
69.683,6.1769e-05,0
69.684,5.3544e-05,0
69.684,3.5416e-05,0
69.685,1.5442e-05,0
69.685,-2.5177e-06,0
69.686,-1.8128e-05,0
69.686,-2.8702e-05,0
69.687,-3.5248e-05,0
69.688,-4.1459e-05,0
69.688,-4.1794e-05,0
69.689,-3.0045e-05,0
69.689,-1.3428e-06,0
69.69,4.213e-05,0
69.69,9.2821e-05,0
69.691,0.00013613,0
69.691,0.00015291,0
69.692,0.00013445,0
69.692,9.6513e-05,0
69.693,5.9922e-05,0
69.693,3.2059e-05,0
69.694,1.4603e-05,0
69.694,7.0497e-06,0
69.695,1.1582e-05,0
69.695,2.1988e-05,0
69.696,3.3402e-05,0
69.696,4.213e-05,0
69.697,4.3473e-05,0
69.697,3.9445e-05,0
69.698,4.448e-05,0
69.698,7.3854e-05,0
69.699,0.00011095,0
69.699,0.00012421,0
69.7,0.00010961,0
69.701,9.366e-05,0
69.701,9.0806e-05,0
69.702,9.3492e-05,0
69.702,0.00010088,0
69.703,0.00011464,0
69.703,0.00012186,0
69.704,0.00010961,0
69.704,7.7211e-05,0
69.705,3.9109e-05,0
69.705,4.0284e-06,0
69.706,-2.4674e-05,0
69.706,-4.5991e-05,0
69.707,-6.5126e-05,0
69.707,-8.6107e-05,0
69.708,-0.00010709,0
69.708,-0.00012605,0
69.709,-0.00014116,0
69.709,-0.0001462,0
69.71,-0.00013646,0
69.71,-0.0001133,0
69.711,-8.5435e-05,0
69.711,-5.8244e-05,0
69.712,-3.508e-05,0
69.712,-8.5603e-06,0
69.713,2.6688e-05,0
69.713,6.8315e-05,0
69.714,0.00011078,0
69.715,0.00014452,0
69.715,0.00015979,0
69.716,0.00016197,0
69.716,0.00015291,0
69.717,0.00012874,0
69.717,9.6345e-05,0
69.718,6.6636e-05,0
69.718,4.2466e-05,0
69.719,2.1653e-05,0
69.719,3.6927e-06,0
69.72,-7.3854e-06,0
69.72,-1.4939e-05,0
69.721,-2.0981e-05,0
69.721,-2.5345e-05,0
69.722,-3.0381e-05,0
69.722,-3.743e-05,0
69.723,-4.0116e-05,0
69.723,-3.508e-05,0
69.724,-2.6017e-05,0
69.724,-2.031e-05,0
69.725,-1.796e-05,0
69.725,-1.8296e-05,0
69.726,-1.6281e-05,0
69.726,-1.0575e-05,0
69.727,-3.8605e-06,0
69.728,7.8889e-06,0
69.728,2.031e-05,0
69.729,2.5345e-05,0
69.729,2.0645e-05,0
69.73,1.4267e-05,0
69.73,1.0407e-05,0
69.731,7.7211e-06,0
69.731,4.1962e-06,0
69.732,-2.5177e-06,0
69.732,-1.1917e-05,0
69.733,-1.6281e-05,0
69.733,-1.4603e-05,0
69.734,-1.3931e-05,0
69.734,-1.5106e-05,0
69.735,-1.561e-05,0
69.735,-1.1917e-05,0
69.736,-5.539e-06,0
69.736,-8.3925e-07,0
69.737,6.714e-07,0
69.737,4.1962e-06,0
69.738,1.0407e-05,0
69.738,1.2589e-05,0
69.739,1.0575e-05,0
69.739,1.6953e-05,0
69.74,3.3906e-05,0
69.74,5.153e-05,0
69.741,6.4286e-05,0
69.742,7.6875e-05,0
69.742,8.7617e-05,0
69.743,9.2485e-05,0
69.743,9.2149e-05,0
69.744,8.7785e-05,0
69.744,8.04e-05,0
69.745,6.7979e-05,0
69.745,4.7501e-05,0
69.746,1.5946e-05,0
69.746,-2.501e-05,0
69.747,-6.2943e-05,0
69.747,-8.4764e-05,0
69.748,-8.9128e-05,0
69.748,-8.1407e-05,0
69.749,-6.8986e-05,0
69.749,-5.4383e-05,0
69.75,-3.357e-05,0
69.75,-1.091e-05,0
69.751,1.1078e-05,0
69.751,3.2395e-05,0
69.752,5.9922e-05,0
69.752,0.00010188,0
69.753,0.00014855,0
69.753,0.00018111,0
69.754,0.00018447,0
69.754,0.00015459,0
69.755,0.0001091,0
69.756,6.8818e-05,0
69.756,3.3906e-05,0
69.757,-2.8534e-06,0
69.757,-2.9541e-05,0
69.758,-3.5752e-05,0
69.758,-2.8702e-05,0
69.759,-1.8631e-05,0
69.759,-1.1246e-05,0
69.76,-6.5461e-06,0
69.76,2.5177e-06,0
69.761,2.0981e-05,0
69.761,4.0955e-05,0
69.762,5.4887e-05,0
69.762,6.3783e-05,0
69.763,6.9154e-05,0
69.763,7.2007e-05,0
69.764,7.3518e-05,0
69.764,7.3014e-05,0
69.765,6.3783e-05,0
69.765,4.4816e-05,0
69.766,2.5849e-05,0
69.766,2.0645e-05,0
69.767,2.9374e-05,0
69.767,4.0116e-05,0
69.768,4.4816e-05,0
69.769,3.9109e-05,0
69.769,2.7527e-05,0
69.77,2.0813e-05,0
69.77,2.0478e-05,0
69.771,1.561e-05,0
69.771,-2.182e-06,0
69.772,-2.1653e-05,0
69.772,-3.1052e-05,0
69.773,-2.9206e-05,0
69.773,-1.9471e-05,0
69.774,-1.2421e-05,0
69.774,-2.0981e-05,0
69.775,-3.7095e-05,0
69.775,-5.0858e-05,0
69.776,-6.0761e-05,0
69.776,-6.6804e-05,0
69.777,-6.6636e-05,0
69.777,-5.8412e-05,0
69.778,-3.9109e-05,0
69.778,-1.2924e-05,0
69.779,6.3783e-06,0
69.779,1.6785e-05,0
69.78,2.9541e-05,0
69.78,4.9851e-05,0
69.781,6.9154e-05,0
69.781,8.1575e-05,0
69.782,9.0806e-05,0
69.783,0.00010054,0
69.783,0.00010457,0
69.784,9.5171e-05,0
69.784,7.5364e-05,0
69.785,5.4551e-05,0
69.785,3.5416e-05,0
69.786,1.8967e-05,0
69.786,1.0239e-05,0
69.787,8.5603e-06,0
69.787,1.0239e-05,0
69.788,1.1078e-05,0
69.788,1.0071e-05,0
69.789,9.9031e-06,0
69.789,1.0071e-05,0
69.79,1.326e-05,0
69.79,2.1988e-05,0
69.791,2.7024e-05,0
69.791,2.501e-05,0
69.792,1.6449e-05,0
69.792,5.7069e-06,0
69.793,-5.0355e-06,0
69.793,-1.4603e-05,0
69.794,-1.7288e-05,0
69.794,-1.5106e-05,0
69.795,-1.2924e-05,0
69.796,-1.326e-05,0
69.796,-1.6617e-05,0
69.797,-2.6017e-05,0
69.797,-3.6927e-05,0
69.798,-3.9445e-05,0
69.798,-3.0716e-05,0
69.799,-1.7121e-05,0
69.799,-6.3783e-06,0
69.8,-3.357e-07,0
69.8,-6.714e-07,0
69.801,-7.8889e-06,0
69.801,-1.5106e-05,0
69.802,-1.0575e-05,0
69.802,6.8818e-06,0
69.803,2.8367e-05,0
69.803,4.683e-05,0
69.804,5.7908e-05,0
69.804,6.2776e-05,0
69.805,7.1672e-05,0
69.805,8.7114e-05,0
69.806,0.00010138,0
69.806,0.00010222,0
69.807,9.1142e-05,0
69.807,8.1071e-05,0
69.808,6.949e-05,0
69.808,5.2873e-05,0
69.809,3.7766e-05,0
69.81,2.4002e-05,0
69.81,1.1246e-05,0
69.811,-5.7069e-06,0
69.811,-2.9206e-05,0
69.812,-5.539e-05,0
69.812,-7.8218e-05,0
69.813,-9.3492e-05,0
69.813,-9.7185e-05,0
69.814,-9.0135e-05,0
69.814,-7.5364e-05,0
69.815,-5.3208e-05,0
69.815,-2.266e-05,0
69.816,1.2924e-05,0
69.816,4.8676e-05,0
69.817,8.0064e-05,0
69.817,9.9535e-05,0
69.818,0.00010726,0
69.818,0.00011766,0
69.819,0.00013797,0
69.819,0.0001519,0
69.82,0.00014368,0
69.82,0.00011968,0
69.821,9.0471e-05,0
69.821,6.5461e-05,0
69.822,4.6494e-05,0
69.823,3.2731e-05,0
69.823,1.5946e-05,0
69.824,-1.0575e-05,0
69.824,-3.743e-05,0
69.825,-5.3376e-05,0
69.825,-5.8579e-05,0
69.826,-5.9419e-05,0
69.826,-6.3279e-05,0
69.827,-6.8986e-05,0
69.827,-6.6972e-05,0
69.828,-5.6397e-05,0
69.828,-4.0116e-05,0
69.829,-1.1582e-05,0
69.829,2.6688e-05,0
69.83,6.9322e-05,0
69.83,0.00010356,0
69.831,0.00011498,0
69.831,0.00011598,0
69.832,0.00012723,0
