31.155,-0.00018732,0
31.156,-0.00019672,0
31.156,-0.00014888,0
31.157,-8.5771e-05,0
31.157,-4.2802e-05,0
31.158,-1.3931e-05,0
31.159,-3.1891e-06,0
31.159,-1.1078e-05,0
31.16,-1.091e-05,0
31.16,1.1246e-05,0
31.161,3.8773e-05,0
31.161,5.8747e-05,0
31.162,6.6804e-05,0
31.162,6.2943e-05,0
31.163,5.8915e-05,0
31.163,5.774e-05,0
31.164,7.1504e-05,0
31.164,0.00011061,0
31.165,0.00015274,0
31.165,0.00017607,0
31.166,0.00016886,0
31.166,0.00012186,0
31.167,4.8005e-05,0
31.167,-1.7456e-05,0
31.168,-3.9277e-05,0
31.168,-3.3234e-05,0
31.169,-2.8031e-05,0
31.169,-2.4338e-05,0
31.17,-4.3473e-05,0
31.17,-0.00011246,0
31.171,-0.00018782,0
31.172,-0.00019303,0
31.172,-0.00013176,0
31.173,-5.8244e-05,0
31.173,-4.8676e-06,0
31.174,1.091e-05,0
31.174,7.2175e-06,0
31.175,6.5461e-06,0
31.175,1.1582e-05,0
31.176,2.0478e-05,0
31.176,4.0116e-05,0
31.177,7.2007e-05,0
31.177,0.00010054,0
31.178,0.00010944,0
31.178,9.2149e-05,0
31.179,7.9393e-05,0
31.179,8.7617e-05,0
31.18,9.8192e-05,0
31.18,8.6442e-05,0
31.181,5.304e-05,0
31.181,2.3163e-05,0
31.182,8.896e-06,0
31.182,1.4099e-05,0
31.183,1.7121e-05,0
31.183,-5.2033e-06,0
31.184,-5.2369e-05,0
31.184,-0.00010491,0
31.185,-0.00013378,0
31.186,-0.00011531,0
31.186,-5.5894e-05,0
31.187,6.2104e-06,0
31.187,4.0116e-05,0
31.188,6.4286e-05,0
31.188,9.3492e-05,0
31.189,0.00011095,0
31.189,0.00010994,0
31.19,8.7785e-05,0
31.19,5.2537e-05,0
31.191,2.1317e-05,0
31.191,-1.5106e-06,0
31.192,-2.7695e-05,0
31.192,-5.9251e-05,0
31.193,-5.5894e-05,0
31.193,-3.357e-07,0
31.194,5.2537e-05,0
31.194,7.5029e-05,0
31.195,9.4667e-05,0
31.195,0.00012807,0
31.196,0.00015291,0
31.196,0.00014804,0
31.197,0.00011095,0
31.197,4.6494e-05,0
31.198,-2.0981e-05,0
31.198,-8.0735e-05,0
31.199,-0.00012874,0
31.2,-0.00014015,0
31.2,-9.5171e-05,0
31.201,-3.4745e-05,0
31.201,1.1078e-05,0
31.202,5.0523e-05,0
31.202,8.3589e-05,0
31.203,8.6442e-05,0
31.203,5.4215e-05,0
31.204,3.1052e-05,0
31.204,3.9445e-05,0
31.205,5.388e-05,0
31.205,5.9251e-05,0
31.206,6.7643e-05,0
31.206,7.9896e-05,0
31.207,7.8386e-05,0
31.207,3.4409e-05,0
31.208,-4.8508e-05,0
31.208,-0.00012958,0
31.209,-0.00019219,0
31.209,-0.00023381,0
31.21,-0.00022408,0
31.21,-0.00014284,0
31.211,-3.5416e-05,0
31.211,4.213e-05,0
31.212,7.1672e-05,0
31.213,3.9948e-05,0
31.213,-1.9638e-05,0
31.214,-4.448e-05,0
31.214,-2.6352e-05,0
31.215,5.539e-06,0
31.215,3.0716e-05,0
31.216,5.069e-05,0
31.216,7.4525e-05,0
31.217,9.3156e-05,0
31.217,9.7017e-05,0
31.218,0.00010625,0
31.218,0.00012773,0
31.219,0.00012807,0
31.219,0.00010121,0
31.22,8.3589e-05,0
31.22,8.3757e-05,0
31.221,7.4022e-05,0
31.221,5.1865e-05,0
31.222,4.7333e-05,0
31.222,7.2343e-05,0
31.223,8.9799e-05,0
31.223,6.7475e-05,0
31.224,2.5513e-05,0
31.224,3.6927e-06,0
31.225,-7.8889e-06,0
31.226,6.714e-07,0
31.226,4.7166e-05,0
31.227,9.0303e-05,0
31.227,9.1478e-05,0
31.228,7.57e-05,0
31.228,6.9154e-05,0
31.229,4.3641e-05,0
31.229,1.6785e-06,0
31.23,-2.5681e-05,0
31.23,-4.0787e-05,0
31.231,-7.8218e-05,0
31.231,-0.00011666,0
31.232,-0.00010373,0
31.232,-3.1388e-05,0
31.233,4.9516e-05,0
31.233,9.2149e-05,0
31.234,0.00010457,0
31.234,0.00011531,0
31.235,0.00013378,0
31.235,0.00015023,0
31.236,0.00015258,0
31.236,0.00014217,0
31.237,0.00011733,0
31.237,7.2343e-05,0
31.238,2.4002e-05,0
31.238,-1.0575e-05,0
31.239,-5.4551e-05,0
31.24,-0.00013462,0
31.24,-0.00021401,0
31.241,-0.00021082,0
31.241,-0.000118,0
31.242,-1.1749e-05,0
31.242,4.1459e-05,0
31.243,4.2802e-05,0
31.243,3.2731e-05,0
31.244,3.6088e-05,0
31.244,5.2201e-05,0
31.245,6.63e-05,0
31.245,6.4286e-05,0
31.246,7.1504e-05,0
31.246,9.987e-05,0
31.247,0.00012538,0
31.247,0.00012169,0
31.248,9.1981e-05,0
31.248,6.0594e-05,0
31.249,5.2537e-05,0
31.249,5.9586e-05,0
31.25,3.3234e-05,0
31.25,-2.501e-05,0
31.251,-4.683e-05,0
31.251,-4.5319e-06,0
31.252,4.5487e-05,0
31.253,6.8315e-05,0
31.253,8.5435e-05,0
31.254,0.00010172,0
31.254,0.00010222,0
31.255,7.5364e-05,0
31.255,3.1724e-05,0
31.256,-1.3596e-05,0
31.256,-5.3544e-05,0
31.257,-7.8721e-05,0
31.257,-8.7785e-05,0
31.258,-9.0806e-05,0
31.258,-9.1814e-05,0
31.259,-9.4835e-05,0
31.259,-9.8527e-05,0
31.26,-0.00011011,0
31.26,-0.00012035,0
31.261,-0.00012052,0
31.261,-0.00011179,0
31.262,-9.5003e-05,0
31.262,-7.6036e-05,0
31.263,-6.9154e-05,0
31.263,-6.5629e-05,0
31.264,-4.6159e-05,0
31.264,-1.7792e-05,0
31.265,-6.5461e-06,0
31.265,-3.4073e-05,0
31.266,-8.5771e-05,0
31.267,-0.00010272,0
31.267,-6.2104e-05,0
31.268,-6.2104e-06,0
31.268,4.4312e-05,0
31.269,0.00011397,0
31.269,0.00019857,0
31.27,0.00025765,0
31.27,0.00027108,0
31.271,0.00024489,0
31.271,0.00021317,0
31.272,0.00020259,0
31.272,0.00019454,0
31.273,0.00014015,0
31.273,2.1988e-05,0
31.274,-9.8527e-05,0
31.274,-0.00015711,0
31.275,-0.00014435,0
31.275,-7.6036e-05,0
31.276,1.8296e-05,0
31.276,0.00011397,0
31.277,0.00020125,0
31.277,0.00025463,0
31.278,0.00026101,0
31.278,0.00022274,0
31.279,0.00016735,0
31.279,0.00012471,0
31.28,8.9799e-05,0
31.281,3.2731e-05,0
31.281,-6.714e-05,0
31.282,-0.00014586,0
31.282,-0.00014351,0
31.283,-7.9057e-05,0
31.283,-2.1988e-05,0
31.284,-8.3925e-06,0
31.284,-1.1078e-05,0
31.285,4.1962e-06,0
31.285,4.2466e-05,0
31.286,7.6204e-05,0
31.286,0.0001039,0
31.287,0.0001556,0
31.287,0.00020629,0
31.288,0.00020394,0
31.288,0.00013109,0
31.289,-1.8128e-05,0
31.289,-0.00020578,0
31.29,-0.00032663,0
31.29,-0.00033201,0
31.291,-0.00026184,0
31.291,-0.00017305,0
31.292,-9.8527e-05,0
31.292,-4.5487e-05,0
31.293,-1.5274e-05,0
31.294,-2.4002e-05,0
31.294,-7.6036e-05,0
31.295,-0.00013529,0
31.295,-0.00018245,0
31.296,-0.00018732,0
31.296,-0.0001279,0
31.297,-2.8534e-05,0
31.297,5.6901e-05,0
31.298,8.7785e-05,0
31.298,7.5029e-05,0
31.299,5.0019e-05,0
31.299,2.3331e-05,0
31.3,1.3931e-05,0
31.3,4.8508e-05,0
31.301,0.00010759,0
31.301,0.0001556,0
31.302,0.00018379,0
31.302,0.00020108,0
31.303,0.00021233,0
31.303,0.00022374,0
31.304,0.00023986,0
31.304,0.00024993,0
31.305,0.00023751,0
31.305,0.00020243,0
31.306,0.00016063,0
31.306,0.00011128,0
31.307,7.1672e-05,0
31.308,6.2272e-05,0
31.308,4.9348e-05,0
31.309,1.0407e-05,0
31.309,-3.9109e-05,0
31.31,-8.3421e-05,0
31.31,-0.00012203,0
31.311,-0.00015459,0
31.311,-0.00016181,0
31.312,-0.0001472,0
31.312,-0.0001415,0
31.313,-0.00012421,0
31.313,-6.1265e-05,0
31.314,2.4002e-05,0
31.314,6.865e-05,0
31.315,4.4816e-05,0
31.315,-7.8889e-06,0
31.316,-3.3402e-05,0
31.316,-2.1317e-05,0
31.317,-1.0575e-05,0
31.317,-7.0497e-06,0
31.318,4.5319e-06,0
31.318,8.3925e-07,0
31.319,-3.7766e-05,0
31.319,-7.3182e-05,0
31.32,-6.8147e-05,0
31.321,-2.9206e-05,0
31.321,2.3331e-05,0
31.322,7.4693e-05,0
31.322,0.00010591,0
31.323,0.00011582,0
31.323,0.00010222,0
31.324,6.3447e-05,0
31.324,2.266e-05,0
31.325,1.6785e-06,0
31.325,1.2589e-05,0
31.326,5.7237e-05,0
31.326,0.00010222,0
31.327,0.00012253,0
31.327,0.00013126,0
31.328,0.00014217,0
31.328,0.00015895,0
31.329,0.00018111,0
31.329,0.00020041,0
31.33,0.00019991,0
31.33,0.00017389,0
31.331,0.00012992,0
31.331,7.1336e-05,0
31.332,-1.1582e-05,0
31.332,-0.00011246,0
31.333,-0.00019252,0
31.334,-0.0002088,0
31.334,-0.00015375,0
31.335,-5.8244e-05,0
31.335,1.796e-05,0
31.336,3.8102e-05,0
31.336,2.7527e-05,0
31.337,1.796e-05,0
31.337,1.2253e-05,0
31.338,1.8463e-06,0
31.338,-2.0645e-05,0
31.339,-4.8341e-05,0
31.339,-7.1336e-05,0
31.34,-9.9367e-05,0
31.34,-0.00012656,0
31.341,-0.00011347,0
31.341,-6.2104e-05,0
31.342,-1.1917e-05,0
31.342,2.5177e-05,0
31.343,5.8412e-05,0
31.343,8.6107e-05,0
31.344,0.00010037,0
31.344,0.00010423,0
31.345,0.00010759,0
31.345,0.00011565,0
31.346,0.00012068,0
31.346,0.0001138,0
31.347,8.8457e-05,0
31.348,5.153e-05,0
31.348,1.7288e-05,0
31.349,-1.1414e-05,0
31.349,-5.0187e-05,0
31.35,-9.836e-05,0
31.35,-0.00012505,0
31.351,-0.00010809,0
31.351,-4.9851e-05,0
31.352,1.3596e-05,0
31.352,6.0258e-05,0
31.353,9.7017e-05,0
31.353,0.00012992,0
31.354,0.00015073,0
31.354,0.00015929,0
31.355,0.00015492,0
31.355,0.00014603,0
31.356,0.00014821,0
31.356,0.00016936,0
31.357,0.00017121,0
31.357,0.00012438,0
31.358,8.2078e-05,0
31.358,8.5771e-05,0
31.359,9.836e-05,0
31.359,6.1433e-05,0
31.36,-6.3279e-05,0
31.36,-0.00023046,0
31.361,-0.00033536,0
31.362,-0.00035047,0
31.362,-0.00033687,0
31.363,-0.00032848,0
31.363,-0.00030095,0
31.364,-0.00024506,0
31.364,-0.00017742,0
31.365,-0.00010793,0
31.365,-3.743e-05,0
31.366,1.8799e-05,0
31.366,5.4047e-05,0
31.367,7.4022e-05,0
31.367,8.8457e-05,0
31.368,0.0001039,0
31.368,0.00010826,0
31.369,9.5674e-05,0
31.369,8.7114e-05,0
31.37,9.4835e-05,0
31.37,0.00011112,0
31.371,0.00011766,0
31.371,0.0001138,0
31.372,0.00011447,0
31.372,0.00011934,0
31.373,0.00012421,0
31.373,0.00012186,0
31.374,0.00010994,0
31.375,0.00010121,0
31.375,0.00010121,0
31.376,0.00010088,0
31.376,9.5506e-05,0
31.377,9.6513e-05,0
31.377,0.00010306,0
31.378,9.9199e-05,0
31.378,8.0735e-05,0
31.379,5.0858e-05,0
31.379,2.8031e-05,0
31.38,2.7359e-05,0
31.38,3.4073e-05,0
31.381,4.1794e-05,0
31.381,5.4719e-05,0
31.382,5.8915e-05,0
31.382,4.0116e-05,0
31.383,-9.9031e-06,0
31.383,-8.04e-05,0
31.384,-0.00012119,0
31.384,-0.00010927,0
31.385,-5.9922e-05,0
31.385,-1.4603e-05,0
31.386,-2.031e-05,0
31.386,-6.2608e-05,0
31.387,-9.4331e-05,0
31.387,-9.6513e-05,0
31.388,-9.366e-05,0
31.389,-0.00010541,0
31.389,-0.00010088,0
31.39,-6.3615e-05,0
31.39,-1.5442e-05,0
31.391,2.3331e-05,0
31.391,4.5487e-05,0
31.392,5.4887e-05,0
31.392,5.6901e-05,0
31.393,5.2201e-05,0
31.393,4.8005e-05,0
31.394,4.5487e-05,0
31.394,3.8605e-05,0
31.395,3.4409e-05,0
31.395,3.9612e-05,0
31.396,5.2873e-05,0
31.396,6.3615e-05,0
31.397,6.8315e-05,0
31.397,7.2343e-05,0
31.398,7.7211e-05,0
31.398,8.51e-05,0
31.399,0.00010373,0
31.399,0.00012471,0
31.4,0.00014452,0
31.4,0.000165,0
31.401,0.00018547,0
31.402,0.00020713,0
31.402,0.00023449,0
31.403,0.00026973,0
31.403,0.00029189,0
31.404,0.00027779,0
31.404,0.00021468,0
31.405,0.00012337,0
31.405,4.1459e-05,0
31.406,-5.153e-05,0
31.406,-0.00015509,0
31.407,-0.00019924,0
31.407,-0.00018077,0
31.408,-0.00016701,0
31.408,-0.0001707,0
31.409,-0.00016869,0
31.409,-0.00018665,0
31.41,-0.00022593,0
31.41,-0.00023314,0
31.411,-0.00017507,0
31.411,-0.00010574,0
31.412,-7.3182e-05,0
31.412,-7.4189e-05,0
31.413,-9.3492e-05,0
31.413,-0.00011598,0
31.414,-0.00012589,0
31.415,-0.00010239,0
31.415,-5.2537e-05,0
31.416,1.7288e-05,0
31.416,8.8792e-05,0
31.417,0.00012723,0
31.417,0.00013814,0
31.418,0.00014301,0
31.418,0.00015123,0
31.419,0.00015761,0
31.419,0.00015425,0
31.42,0.00014418,0
31.42,0.00012673,0
31.421,0.00010524,0
31.421,9.0135e-05,0
31.422,8.9632e-05,0
31.422,9.2149e-05,0
31.423,9.3828e-05,0
31.423,8.9128e-05,0
31.424,8.5771e-05,0
31.424,8.8457e-05,0
31.425,8.6275e-05,0
31.425,6.7979e-05,0
31.426,3.7263e-05,0
31.426,-3.1891e-06,0
31.427,-6.009e-05,0
31.427,-0.00012421,0
31.428,-0.00017137,0
31.429,-0.00017053,0
31.429,-0.00011934,0
31.43,-6.6133e-05,0
31.43,-5.4719e-05,0
31.431,-6.479e-05,0
31.431,-6.4622e-05,0
31.432,-4.3137e-05,0
31.432,-3.6927e-06,0
31.433,3.2395e-05,0
31.433,5.4383e-05,0
31.434,7.7043e-05,0
31.434,9.987e-05,0
31.435,0.00010356,0
31.435,8.7449e-05,0
31.436,6.6133e-05,0
31.436,5.8915e-05,0
31.437,7.5029e-05,0
31.437,0.00011531,0
31.438,0.00017272,0
31.438,0.00023549,0
31.439,0.00027494,0
31.439,0.00027276,0
31.44,0.00023062,0
31.44,0.00016013,0
31.441,4.2802e-05,0
31.442,-0.00015073,0
31.442,-0.00036138,0
31.443,-0.00047048,0
31.443,-0.00042734,0
31.444,-0.00030045,0
31.444,-0.00016902,0
31.445,-7.335e-05,0
31.445,-1.2924e-05,0
31.446,2.3331e-05,0
31.446,4.1123e-05,0
31.447,4.4144e-05,0
31.447,3.0045e-05,0
31.448,-1.0575e-05,0
31.448,-4.5823e-05,0
31.449,-5.1362e-05,0
31.449,-5.4551e-05,0
31.45,-5.6733e-05,0
31.45,-3.4745e-05,0
31.451,2.3499e-06,0
31.451,5.0187e-05,0
31.452,0.00011263,0
31.452,0.0001608,0
31.453,0.00018111,0
31.453,0.00018161,0
31.454,0.00016902,0
31.454,0.00014066,0
31.455,0.00010558,0
31.456,8.6778e-05,0
31.456,0.00010188,0
31.457,0.00011833,0
31.457,0.00010457,0
31.458,7.7379e-05,0
31.458,5.8915e-05,0
31.459,4.5823e-05,0
31.459,2.3163e-05,0
31.46,-1.5274e-05,0
31.46,-4.4648e-05,0
31.461,-4.0787e-05,0
31.461,-9.2317e-06,0
31.462,1.9974e-05,0
31.462,3.6423e-05,0
31.463,3.1052e-05,0
31.463,8.5603e-06,0
31.464,-1.6785e-05,0
31.464,-2.0813e-05,0
31.465,-2.3499e-06,0
31.465,2.417e-05,0
31.466,5.3376e-05,0
31.466,7.5532e-05,0
31.467,7.7379e-05,0
31.467,4.7837e-05,0
31.468,1.0071e-05,0
31.468,-1.1414e-05,0
31.469,-1.4771e-05,0
31.47,1.1749e-06,0
31.47,4.7501e-05,0
31.471,0.00010407,0
31.471,0.0001321,0
31.472,0.00011615,0
31.472,8.51e-05,0
31.473,7.6707e-05,0
31.473,7.6875e-05,0
31.474,3.3402e-05,0
31.474,-5.153e-05,0
31.475,-0.00010608,0
31.475,-9.5171e-05,0
31.476,-6.2608e-05,0
31.476,-4.1794e-05,0
31.477,-1.9471e-05,0
31.477,5.8747e-06,0
31.478,1.2589e-05,0
31.478,-1.2253e-05,0
31.479,-3.7934e-05,0
31.479,-2.4506e-05,0
31.48,1.7121e-05,0
31.48,4.5823e-05,0
31.481,4.3641e-05,0
31.481,2.9374e-05,0
31.482,3.1052e-05,0
31.483,4.8844e-05,0
31.483,5.9754e-05,0
31.484,4.5487e-05,0
31.484,1.1917e-05,0
31.485,-2.5681e-05,0
31.485,-4.0452e-05,0
31.486,-2.1317e-05,0
31.486,1.5946e-05,0
31.487,4.5991e-05,0
31.487,5.8076e-05,0
31.488,4.8844e-05,0
31.488,4.5319e-06,0
31.489,-5.6565e-05,0
31.489,-7.4189e-05,0
31.49,-5.1698e-05,0
31.49,-3.0549e-05,0
31.491,-9.5674e-06,0
31.491,1.5946e-05,0
31.492,3.0884e-05,0
31.492,3.0045e-05,0
31.493,2.4674e-05,0
31.493,2.3331e-05,0
31.494,2.182e-05,0
31.494,1.9974e-05,0
31.495,2.4506e-05,0
31.495,3.2059e-05,0
31.496,3.2563e-05,0
31.497,3.7934e-05,0
31.497,5.6062e-05,0
31.498,7.0665e-05,0
31.498,7.9393e-05,0
31.499,7.8386e-05,0
31.499,6.63e-05,0
31.5,5.5894e-05,0
31.5,4.8173e-05,0
31.501,3.4073e-05,0
31.501,2.9038e-05,0
31.502,4.4144e-05,0
31.502,7.4022e-05,0
31.503,0.00011901,0
31.503,0.00015828,0
31.504,0.00016164,0
31.504,0.00013613,0
31.505,0.00011699,0
31.505,0.000118,0
31.506,0.00013109,0
31.506,0.00012824,0
31.507,7.2343e-05,0
31.507,-3.0213e-05,0
31.508,-0.00014636,0
31.508,-0.00024791,0
31.509,-0.00029743,0
31.51,-0.00026134,0
31.51,-0.00016684,0
31.511,-6.7811e-05,0
31.511,1.1917e-05,0
31.512,7.2847e-05,0
31.512,0.00010961,0
31.513,0.00011028,0
31.513,8.4092e-05,0
31.514,4.9516e-05,0
31.514,2.1317e-05,0
31.515,2.0645e-05,0
31.515,4.2466e-05,0
31.516,4.8173e-05,0
31.516,4.0116e-05,0
31.517,3.4577e-05,0
31.517,2.4674e-05,0
31.518,2.4674e-05,0
31.518,4.9012e-05,0
31.519,7.8386e-05,0
31.519,8.2078e-05,0
31.52,5.1362e-05,0
31.52,3.5248e-06,0
31.521,-4.8844e-05,0
31.521,-8.6107e-05,0
31.522,-0.00010658,0
31.523,-0.00011296,0
31.523,-0.00012471,0
31.524,-0.00013193,0
31.524,-9.8527e-05,0
31.525,-3.1388e-05,0
31.525,4.8844e-05,0
31.526,0.00010961,0
31.526,0.00013361,0
31.527,0.00014183,0
31.527,0.00014838,0
31.528,0.00014318,0
31.528,0.0001321,0
31.529,0.00012337,0
31.529,9.9199e-05,0
31.53,3.9445e-05,0
31.53,-3.2563e-05,0
31.531,-5.2705e-05,0
31.531,-1.3596e-05,0
31.532,1.3931e-05,0
31.532,-1.561e-05,0
31.533,-7.1336e-05,0
31.533,-0.00012572,0
31.534,-0.00017691,0
31.534,-0.00020327,0
31.535,-0.00018228,0
31.535,-0.00010742,0
31.536,-1.0239e-05,0
31.537,5.8915e-05,0
31.537,7.1672e-05,0
31.538,5.623e-05,0
31.538,4.7166e-05,0
31.539,5.8076e-05,0
31.539,8.0735e-05,0
31.54,9.5003e-05,0
31.54,9.2988e-05,0
31.541,8.7785e-05,0
31.541,8.5771e-05,0
31.542,9.3828e-05,0
31.542,0.00010138,0
31.543,9.5171e-05,0
31.543,8.5603e-05,0
31.544,6.5629e-05,0
31.544,3.1388e-05,0
31.545,-8.3925e-07,0
31.545,-8.896e-06,0
31.546,-4.8676e-06,0
31.546,-2.1149e-05,0
31.547,-3.8941e-05,0
31.547,-2.5345e-05,0
31.548,-3.5248e-06,0
31.548,2.0142e-05,0
31.549,5.5894e-05,0
31.549,9.8024e-05,0
31.55,0.00012572,0
31.551,0.0001237,0
31.551,0.00010457,0
31.552,9.8863e-05,0
31.552,0.00010776,0
31.553,0.00010491,0
31.553,7.7714e-05,0
31.554,4.5823e-05,0
31.554,2.4002e-05,0
31.555,-1.2085e-05,0
31.555,-8.6107e-05,0
31.556,-0.00017154,0
31.556,-0.00023197,0
31.557,-0.00024422,0
31.557,-0.00020394,0
31.558,-0.00012656,0
31.558,-3.7263e-05,0
31.559,4.8005e-05,0
31.559,0.00010188,0
31.56,0.00010793,0
31.56,9.1142e-05,0
31.561,7.6204e-05,0
31.561,4.9516e-05,0
31.562,-2.3499e-06,0
31.562,-6.4958e-05,0
31.563,-0.0001034,0
31.564,-8.8289e-05,0
31.564,-1.3092e-05,0
31.565,8.4764e-05,0
31.565,0.0001462,0
31.566,0.000165,0
31.566,0.00016265,0
31.567,0.00015325,0
31.567,0.00014821,0
31.568,0.00014855,0
31.568,0.00014133,0
31.569,0.00012673,0
31.569,0.00012337,0
31.57,0.00013478,0
31.57,0.00013579,0
31.571,0.00010776,0
31.571,6.0258e-05,0
31.572,1.8296e-05,0
31.572,-1.6785e-06,0
31.573,-8.5603e-06,0
31.573,-2.9038e-05,0
31.574,-6.5629e-05,0
31.574,-8.275e-05,0
31.575,-6.0761e-05,0
31.575,-1.7288e-05,0
31.576,2.1149e-05,0
31.576,5.0019e-05,0
31.577,7.5029e-05,0
31.578,8.8121e-05,0
31.578,8.2414e-05,0
31.579,6.0258e-05,0
31.579,2.5849e-05,0
31.58,-2.1653e-05,0
31.58,-6.5461e-05,0
31.581,-7.9896e-05,0
31.581,-6.1936e-05,0
31.582,-4.3473e-05,0
31.582,-4.3137e-05,0
31.583,-5.0523e-05,0
31.583,-4.6159e-05,0
31.584,-1.6281e-05,0
31.584,3.5416e-05,0
31.585,8.1071e-05,0
31.585,8.51e-05,0
31.586,5.2537e-05,0
31.586,2.0645e-05,0
31.587,1.1078e-05,0
31.587,5.2033e-06,0
31.588,-4.3305e-05,0
31.588,-0.0001331,0
31.589,-0.00021585,0
31.589,-0.00022676,0
31.59,-0.00017121,0
31.591,-0.00010356,0
31.591,-5.4551e-05,0
31.592,-2.417e-05,0
31.592,-5.0355e-06,0
31.593,1.7288e-05,0
31.593,4.8676e-05,0
31.594,6.8986e-05,0
31.594,7.805e-05,0
31.595,9.1142e-05,0
31.595,0.00010726,0
31.596,0.00012723,0
31.596,0.00015157,0
31.597,0.00017003,0
31.597,0.00016902,0
31.598,0.0001368,0
31.598,0.00010306,0
31.599,8.51e-05,0
31.599,5.8244e-05,0
31.6,3.4745e-05,0
31.6,2.5345e-05,0
31.601,2.8031e-05,0
31.601,2.501e-05,0
31.602,-1.6785e-05,0
31.602,-8.9632e-05,0
31.603,-0.00013092,0
31.604,-0.00011061,0
31.604,-4.918e-05,0
31.605,2.2995e-05,0
31.605,7.1504e-05,0
31.606,9.3828e-05,0
31.606,0.000118,0
31.607,0.00014116,0
31.607,0.00013378,0
31.608,8.4092e-05,0
31.608,1.9638e-05,0
31.609,-2.4506e-05,0
31.609,-2.4002e-05,0
31.61,8.896e-06,0
31.61,3.592e-05,0
31.611,4.2298e-05,0
31.611,3.0381e-05,0
31.612,1.8463e-06,0
31.612,-1.3596e-05,0
31.613,-6.5461e-06,0
31.613,1.1246e-05,0
31.614,5.2873e-05,0
31.614,0.00011632,0
31.615,0.00016164,0
31.615,0.00013814,0
31.616,5.304e-05,0
31.616,-3.4577e-05,0
31.617,-0.00010658,0
31.618,-0.00019118,0
31.618,-0.0002506,0
31.619,-0.00022408,0
31.619,-0.00010961,0
31.62,1.6785e-05,0
31.62,8.0232e-05,0
31.621,8.7114e-05,0
31.621,8.426e-05,0
31.622,6.865e-05,0
31.622,1.6953e-05,0
31.623,-3.3066e-05,0
31.623,-2.8702e-05,0
31.624,2.3331e-05,0
31.624,7.5532e-05,0
31.625,0.00010239,0
31.625,0.00011347,0
31.626,0.00011666,0
31.626,0.00011666,0
31.627,0.00011766,0
31.627,0.00011598,0
31.628,0.00011061,0
31.628,8.6946e-05,0
31.629,2.9877e-05,0
31.629,-1.7288e-05,0
31.63,-2.5681e-05,0
31.631,-2.9374e-05,0
31.631,-4.8508e-05,0
31.632,-5.5726e-05,0
31.632,-2.9038e-05,0
31.633,4.5319e-06,0
31.633,2.3667e-05,0
31.634,3.0716e-05,0
31.634,3.1724e-05,0
31.635,3.2898e-05,0
31.635,3.4745e-05,0
31.636,3.7934e-05,0
31.636,5.1026e-05,0
31.637,7.0329e-05,0
31.637,8.1743e-05,0
31.638,8.5435e-05,0
31.638,8.1743e-05,0
31.639,7.3854e-05,0
31.639,6.63e-05,0
31.64,5.9922e-05,0
31.64,4.9012e-05,0
31.641,3.2731e-05,0
31.641,1.0575e-05,0
31.642,-1.561e-05,0
31.642,-3.3738e-05,0
31.643,-3.9948e-05,0
31.643,-4.2466e-05,0
31.644,-4.3473e-05,0
31.645,-3.5584e-05,0
31.645,-2.031e-05,0
31.646,1.1749e-06,0
31.646,1.9638e-05,0
31.647,1.6114e-05,0
31.647,2.0142e-06,0
31.648,5.8747e-06,0
31.648,2.652e-05,0
31.649,3.1388e-05,0
31.649,1.5106e-06,0
31.65,-3.2395e-05,0
31.65,-4.2969e-05,0
31.651,-4.0452e-05,0
31.651,-2.8199e-05,0
31.652,-1.6617e-05,0
31.652,-1.6281e-05,0
31.653,-2.6184e-05,0
31.653,-3.508e-05,0
31.654,-4.7837e-05,0
31.654,-6.4958e-05,0
31.655,-7.2175e-05,0
31.655,-7.6707e-05,0
31.656,-7.8218e-05,0
31.656,-6.6972e-05,0
31.657,-5.1362e-05,0
31.657,-4.1291e-05,0
31.658,-2.8702e-05,0
31.659,-2.8534e-06,0
31.659,2.8534e-05,0
31.66,5.1362e-05,0
31.66,6.6636e-05,0
31.661,8.3421e-05,0
31.661,0.00011128,0
31.662,0.00014553,0
31.662,0.00015879,0
31.663,0.00014888,0
31.663,0.00013999,0
31.664,0.0001227,0
31.664,7.2343e-05,0
31.665,-2.4674e-05,0
31.665,-0.00016449,0
31.666,-0.00029676,0
31.666,-0.00033704,0
31.667,-0.00022324,0
31.667,-2.031e-05,0
31.668,0.00014536,0
31.668,0.00021837,0
31.669,0.00022005,0
31.669,0.00020041,0
31.67,0.00018749,0
31.67,0.00017574,0
31.671,0.00015476,0
31.672,0.00011531,0
31.672,6.4118e-05,0
31.673,3.0045e-05,0
31.673,2.3331e-05,0
31.674,3.743e-05,0
31.674,6.4286e-05,0
31.675,9.752e-05,0
31.675,0.00012001,0
31.676,0.00011363,0
31.676,7.5029e-05,0
31.677,1.3764e-05,0
31.677,-2.9877e-05,0
31.678,-2.7192e-05,0
31.678,1.2924e-05,0
31.679,6.8986e-05,0
31.679,0.00012303,0
31.68,0.00016265,0
31.68,0.00017977,0
31.681,0.00016533,0
31.681,0.00012572,0
31.682,6.3615e-05,0
31.682,-6.8818e-06,0
31.683,-7.6371e-05,0
31.683,-0.00011481,0
31.684,-9.0303e-05,0
31.684,-2.9038e-05,0
31.685,1.3764e-05,0
31.686,1.3596e-05,0
31.686,-1.4435e-05,0
31.687,-6.4118e-05,0
31.687,-0.00010961,0
31.688,-0.00012203,0
31.688,-0.00011095,0
31.689,-9.6849e-05,0
31.689,-7.5868e-05,0
31.69,-5.1194e-05,0
31.69,-2.7192e-05,0
31.691,-6.8818e-06,0
31.691,-8.2246e-06,0
31.692,-2.2324e-05,0
31.692,-1.7121e-05,0
31.693,-5.539e-06,0
31.693,-9.9031e-06,0
31.694,-2.8367e-05,0
31.694,-2.9877e-05,0
31.695,-1.1078e-05,0
31.695,9.5674e-06,0
31.696,3.0045e-05,0
31.696,6.3615e-05,0
31.697,9.7856e-05,0
31.697,0.00011095,0
31.698,0.00010558,0
31.699,8.8121e-05,0
31.699,7.4357e-05,0
31.7,7.6707e-05,0
31.7,7.805e-05,0
31.701,6.5293e-05,0
31.701,4.7501e-05,0
31.702,3.7766e-05,0
31.702,3.9445e-05,0
31.703,4.5151e-05,0
31.703,4.683e-05,0
31.704,4.7669e-05,0
31.704,5.7572e-05,0
31.705,9.4835e-05,0
31.705,0.00015912,0
31.706,0.00021032,0
31.706,0.00022106,0
31.707,0.00018581,0
31.707,0.00011431,0
31.708,1.9974e-05,0
31.708,-9.601e-05,0
31.709,-0.00022257,0
31.709,-0.000307,0
31.71,-0.00028165,0
31.71,-0.00017758,0
31.711,-9.3996e-05,0
31.712,-7.7546e-05,0
31.712,-8.51e-05,0
31.713,-6.1433e-05,0
31.713,-1.1749e-05,0
31.714,3.4577e-05,0
31.714,8.2078e-05,0
31.715,0.00012706,0
31.715,0.00014653,0
31.716,0.000142,0
31.716,0.00012203,0
31.717,7.5868e-05,0
31.717,-5.0355e-07,0
31.718,-8.7449e-05,0
31.718,-0.0001425,0
31.719,-0.00011246,0
31.719,-2.3499e-06,0
31.72,0.0001039,0
31.72,0.00015291,0
31.721,0.00016332,0
31.721,0.00015392,0
31.722,0.00013059,0
31.722,0.00010323,0
31.723,7.0497e-05,0
31.723,1.0575e-05,0
31.724,-5.7908e-05,0
31.724,-8.1575e-05,0
31.725,-5.8747e-05,0
31.726,-3.7934e-05,0
31.726,-3.3906e-05,0
31.727,-4.3137e-05,0
31.727,-6.9657e-05,0
31.728,-0.00010172,0
31.728,-0.00012052,0
31.729,-0.00011699,0
31.729,-0.00010256,0
31.73,-8.9128e-05,0
31.73,-7.0161e-05,0
31.731,-3.0549e-05,0
31.731,2.4002e-05,0
31.732,6.0594e-05,0
31.732,5.8747e-05,0
31.733,2.5345e-05,0
31.733,1.1749e-06,0
31.734,2.182e-06,0
31.734,1.3092e-05,0
31.735,3.0213e-05,0
31.735,5.9586e-05,0
31.736,9.5506e-05,0
31.736,0.00011984,0
31.737,0.000118,0
31.737,0.00010289,0
31.738,9.2821e-05,0
31.738,9.366e-05,0
31.739,9.7856e-05,0
31.74,8.8121e-05,0
31.74,6.8315e-05,0
31.741,5.3208e-05,0
31.741,5.1362e-05,0
31.742,6.5293e-05,0
31.742,7.57e-05,0
31.743,7.5364e-05,0
31.743,8.9464e-05,0
31.744,0.00011498,0
31.744,0.00012001,0
31.745,9.1814e-05,0
31.745,6.3783e-05,0
31.746,7.5029e-05,0
31.746,0.00010289,0
31.747,9.987e-05,0
31.747,7.8386e-05,0
31.748,8.2582e-05,0
31.748,0.00010356,0
31.749,9.6513e-05,0
31.749,2.6688e-05,0
31.75,-9.7688e-05,0
31.75,-0.00017943,0
31.751,-0.00013948,0
31.751,-1.3931e-05,0
31.752,9.5506e-05,0
31.753,0.00013327,0
31.753,0.00010642,0
31.754,3.1388e-05,0
31.754,-9.2821e-05,0
31.755,-0.00020008,0
31.755,-0.00022139,0
31.756,-0.00019722,0
31.756,-0.0001613,0
31.757,-0.0001044,0
31.757,-4.8508e-05,0
31.758,-2.4002e-05,0
31.758,-2.2156e-05,0
31.759,-1.4099e-05,0
31.759,1.1582e-05,0
31.76,4.2466e-05,0
31.76,6.5797e-05,0
31.761,7.805e-05,0
31.761,7.8889e-05,0
31.762,6.5293e-05,0
31.762,4.1123e-05,0
31.763,2.6184e-05,0
31.763,2.7863e-05,0
31.764,3.1052e-05,0
31.764,2.5513e-05,0
31.765,1.5106e-05,0
31.765,-3.5248e-06,0
31.766,-2.4506e-05,0
31.767,-3.2731e-05,0
31.767,-3.357e-06,0
31.768,5.0523e-05,0
31.768,9.601e-05,0
31.769,0.00011498,0
31.769,0.00010423,0
31.77,8.5771e-05,0
31.77,9.6178e-05,0
31.771,0.00012807,0
31.771,0.00015694,0
31.772,0.00017037,0
31.772,0.00017305,0
31.773,0.00015593,0
31.773,9.7688e-05,0
31.774,1.0575e-05,0
31.774,-8.2246e-05,0
31.775,-0.00015593,0
31.775,-0.00018715,0
31.776,-0.00015442,0
31.776,-4.9516e-05,0
31.777,7.6036e-05,0
31.777,0.00015274,0
31.778,0.00017171,0
31.778,0.00015862,0
31.779,0.00012924,0
31.78,9.9199e-05,0
31.78,8.3589e-05,0
31.781,6.7308e-05,0
31.781,2.6688e-05,0
31.782,-2.6017e-05,0
31.782,-6.3951e-05,0
31.783,-8.04e-05,0
31.783,-8.0735e-05,0
31.784,-7.0832e-05,0
31.784,-5.4215e-05,0
31.785,-4.1794e-05,0
31.785,-5.1865e-05,0
31.786,-7.8386e-05,0
31.786,-0.00011028,0
31.787,-0.00014469,0
31.787,-0.0001613,0
31.788,-0.00011531,0
31.788,-2.0478e-05,0
31.789,4.213e-05,0
31.789,3.5248e-05,0
31.79,-2.9038e-05,0
31.79,-0.00010021,0
31.791,-0.00011397,0
31.791,-6.7643e-05,0
31.792,-1.4267e-05,0
31.793,1.7288e-05,0
31.793,3.4745e-05,0
31.794,4.9851e-05,0
31.794,7.1839e-05,0
31.795,9.9031e-05,0
31.795,0.00013126,0
31.796,0.00015627,0
31.796,0.00015291,0
31.797,0.00013579,0
31.797,0.00012505,0
31.798,0.00011464,0
31.798,9.2149e-05,0
31.799,6.479e-05,0
31.799,6.1936e-05,0
31.8,9.6513e-05,0
31.8,0.00013277,0
31.801,0.00012538,0
31.801,7.8386e-05,0
31.802,3.592e-05,0
31.802,2.4674e-05,0
31.803,1.4435e-05,0
31.803,-5.9083e-05,0
31.804,-0.00019084,0
31.804,-0.0002835,0
31.805,-0.00026201,0
31.805,-0.00014922,0
31.806,-3.3066e-05,0
31.807,2.9877e-05,0
31.807,3.6088e-05,0
31.808,2.4002e-05,0
31.808,1.7121e-05,0
31.809,1.4771e-05,0
31.809,1.5946e-05,0
31.81,2.6184e-05,0
31.81,4.9516e-05,0
31.811,7.2343e-05,0
31.811,8.3757e-05,0
31.812,8.9632e-05,0
31.812,9.4499e-05,0
31.813,9.5842e-05,0
31.813,8.7449e-05,0
31.814,6.1265e-05,0
31.814,2.8031e-05,0
31.815,9.9031e-06,0
31.815,1.2589e-05,0
31.816,2.4506e-05,0
31.816,3.6088e-05,0
31.817,5.0019e-05,0
31.817,6.244e-05,0
31.818,7.8553e-05,0
31.818,9.2653e-05,0
31.819,9.2821e-05,0
31.82,8.6442e-05,0
31.82,7.6036e-05,0
31.821,5.3544e-05,0
31.821,2.8534e-05,0
31.822,8.5603e-06,0
31.822,1.2253e-05,0
31.823,4.8844e-05,0
31.823,8.5771e-05,0
31.824,0.00010256,0
31.824,0.00010726,0
31.825,0.00010407,0
31.825,8.4764e-05,0
31.826,3.4073e-05,0
31.826,-7.4022e-05,0
31.827,-0.00020998,0
31.827,-0.00027813,0
31.828,-0.00023012,0
31.828,-0.00013126,0
31.829,-4.9683e-05,0
31.829,5.8747e-06,0
31.83,4.8005e-05,0
31.83,7.2007e-05,0
31.831,7.3686e-05,0
31.831,6.5461e-05,0
31.832,5.8244e-05,0
31.832,5.3208e-05,0
31.833,4.8173e-05,0
31.834,4.2802e-05,0
31.834,4.213e-05,0
31.835,4.7166e-05,0
31.835,5.4215e-05,0
31.836,5.7237e-05,0
31.836,5.6901e-05,0
31.837,5.0523e-05,0
31.837,5.2201e-05,0
31.838,6.63e-05,0
31.838,7.6371e-05,0
31.839,7.6371e-05,0
31.839,7.0161e-05,0
31.84,4.7837e-05,0
31.84,1.4939e-05,0
31.841,2.5177e-06,0
31.841,1.8631e-05,0
31.842,3.3738e-05,0
31.842,3.3066e-05,0
31.843,3.0381e-05,0
31.843,3.0716e-05,0
31.844,3.2563e-05,0
31.844,3.978e-05,0
31.845,4.4144e-05,0
31.845,3.4073e-05,0
31.846,1.6281e-05,0
31.846,-1.8463e-06,0
31.847,-3.4073e-05,0
31.848,-0.00010188,0
31.848,-0.00015862,0
31.849,-0.0001331,0
31.849,-5.4551e-05,0
31.85,4.5319e-06,0
31.85,2.2156e-05,0
31.851,2.9038e-05,0
31.851,4.1794e-05,0
31.852,5.4551e-05,0
31.852,6.9322e-05,0
31.853,9.0471e-05,0
31.853,0.0001086,0
31.854,0.00011481,0
31.854,0.0001138,0
31.855,0.00011044,0
31.855,0.00010323,0
31.856,8.9128e-05,0
31.856,6.1936e-05,0
31.857,2.3331e-05,0
31.857,-1.3596e-05,0
31.858,-3.6088e-05,0
31.858,-4.4816e-05,0
31.859,-5.2201e-05,0
31.859,-6.5126e-05,0
31.86,-8.5603e-05,0
31.861,-0.00011028,0
31.861,-0.00013445,0
31.862,-0.00015073,0
31.862,-0.00014469,0
31.863,-0.00011313,0
31.863,-7.5364e-05,0
31.864,-4.8844e-05,0
31.864,-2.5345e-05,0
31.865,-1.2924e-05,0
31.865,-1.2757e-05,0
31.866,9.9031e-06,0
31.866,6.3951e-05,0
31.867,0.00010927,0
31.867,0.00011867,0
31.868,0.00010188,0
31.868,8.191e-05,0
31.869,6.2272e-05,0
31.869,1.3596e-05,0
31.87,-5.5222e-05,0
31.87,-8.9464e-05,0
31.871,-7.1e-05,0
31.871,-7.3854e-06,0
31.872,6.4958e-05,0
31.872,0.00010826,0
31.873,0.00012001,0
31.873,0.00011498,0
31.874,0.00010289,0
31.875,8.9799e-05,0
31.875,7.4357e-05,0
31.876,3.743e-05,0
31.876,-1.6617e-05,0
31.877,-5.4719e-05,0
31.877,-7.1336e-05,0
31.878,-6.3279e-05,0
31.878,-3.1724e-05,0
31.879,1.4099e-05,0
31.879,5.8915e-05,0
31.88,0.00010021,0
31.88,0.00013344,0
31.881,0.00014687,0
31.881,0.00014334,0
31.882,0.0001415,0
31.882,0.00013243,0
31.883,0.00010054,0
31.883,4.5487e-05,0
31.884,-2.5177e-06,0
31.884,-1.7624e-05,0
31.885,-1.3092e-05,0
31.885,-8.7282e-06,0
31.886,7.2175e-06,0
31.886,4.4144e-05,0
31.887,8.04e-05,0
31.888,8.8792e-05,0
31.888,7.3014e-05,0
31.889,5.4887e-05,0
31.889,4.6662e-05,0
31.89,4.8173e-05,0
31.89,4.4144e-05,0
31.891,2.6688e-05,0
31.891,1.326e-05,0
31.892,1.8463e-05,0
31.892,3.6591e-05,0
31.893,5.6733e-05,0
31.893,7.0329e-05,0
31.894,7.7714e-05,0
31.894,8.6107e-05,0
31.895,9.3828e-05,0
31.895,9.6345e-05,0
31.896,8.3925e-05,0
31.896,5.4551e-05,0
31.897,3.2059e-05,0
31.897,2.1988e-05,0
31.898,-3.357e-06,0
31.898,-4.8508e-05,0
31.899,-8.2918e-05,0
31.899,-9.0639e-05,0
31.9,-8.3085e-05,0
31.901,-7.5029e-05,0
31.901,-5.3544e-05,0
31.902,-1.8967e-05,0
31.902,1.0407e-05,0
31.903,2.8367e-05,0
31.903,4.7837e-05,0
31.904,6.4286e-05,0
31.904,6.8818e-05,0
31.905,7.6036e-05,0
31.905,8.9464e-05,0
31.906,9.2821e-05,0
31.906,8.5603e-05,0
31.907,7.2679e-05,0
31.907,5.7572e-05,0
31.908,4.062e-05,0
31.908,1.3596e-05,0
31.909,-2.3331e-05,0
31.909,-5.6901e-05,0
31.91,-7.3686e-05,0
31.91,-8.3757e-05,0
31.911,-0.00011749,0
31.911,-0.00018195,0
31.912,-0.00023415,0
31.912,-0.00021988,0
31.913,-0.00013579,0
31.913,-3.4409e-05,0
31.914,4.4144e-05,0
31.915,7.6707e-05,0
31.915,6.4958e-05,0
31.916,3.1388e-05,0
31.916,-1.8463e-05,0
31.917,-9.7688e-05,0
31.917,-0.00018245,0
31.918,-0.00021569,0
31.918,-0.0001702,0
31.919,-8.6946e-05,0
31.919,-1.7456e-05,0
31.92,2.3835e-05,0
31.92,4.1794e-05,0
31.921,4.918e-05,0
31.921,6.5797e-05,0
31.922,8.8624e-05,0
31.922,0.00010491,0
31.923,0.00010692,0
31.923,9.2485e-05,0
31.924,7.1e-05,0
31.924,5.623e-05,0
31.925,3.9277e-05,0
31.925,2.652e-05,0
31.926,3.5416e-05,0
31.926,6.5461e-05,0
31.927,9.6178e-05,0
31.927,0.00011095,0
31.928,0.00010893,0
31.929,9.8695e-05,0
31.929,9.0471e-05,0
31.93,8.6442e-05,0
31.93,7.7714e-05,0
31.931,4.3641e-05,0
31.931,-3.0045e-05,0
31.932,-0.00011867,0
31.932,-0.00016164,0
31.933,-0.00013075,0
31.933,-5.7237e-05,0
31.934,2.4674e-05,0
31.934,0.00010491,0
31.935,0.00017372,0
31.935,0.00020897,0
31.936,0.00020209,0
31.936,0.00016634,0
31.937,0.00011733,0
31.937,6.5629e-05,0
31.938,8.3925e-06,0
31.938,-6.1936e-05,0
31.939,-0.00011682,0
31.939,-0.00011984,0
31.94,-7.0329e-05,0
31.94,-1.0071e-06,0
31.941,5.5894e-05,0
31.942,8.5267e-05,0
31.942,9.5674e-05,0
31.943,9.5842e-05,0
31.943,9.4499e-05,0
31.944,9.5506e-05,0
31.944,9.4331e-05,0
31.945,8.7449e-05,0
31.945,8.1071e-05,0
31.946,7.4022e-05,0
31.946,6.4286e-05,0
31.947,5.8915e-05,0
31.947,5.6901e-05,0
31.948,5.1865e-05,0
31.948,4.683e-05,0
31.949,4.8844e-05,0
31.949,5.0523e-05,0
31.95,4.3473e-05,0
31.95,3.0716e-05,0
31.951,2.1317e-05,0
31.951,1.4099e-05,0
31.952,3.1891e-06,0
31.952,-3.357e-07,0
31.953,1.3596e-05,0
31.953,4.448e-05,0
31.954,8.1407e-05,0
31.954,0.00010658,0
31.955,0.00011431,0
31.956,9.8527e-05,0
31.956,5.8579e-05,0
31.957,-6.0426e-06,0
31.957,-8.2918e-05,0
31.958,-0.000142,0
31.958,-0.00014452,0
31.959,-0.00010658,0
31.959,-7.9393e-05,0
31.96,-6.4958e-05,0
31.96,-3.6591e-05,0
31.961,5.0355e-07,0
31.961,2.9038e-05,0
31.962,5.1194e-05,0
31.962,7.0497e-05,0
31.963,7.5532e-05,0
31.963,6.63e-05,0
31.964,5.6733e-05,0
31.964,4.9516e-05,0
31.965,4.1459e-05,0
31.965,2.6688e-05,0
31.966,7.2175e-06,0
31.966,-3.8605e-06,0
31.967,-4.8676e-06,0
31.967,-6.714e-07,0
31.968,1.1917e-05,0
31.969,2.9374e-05,0
31.969,4.5151e-05,0
31.97,5.2873e-05,0
31.97,5.4047e-05,0
31.971,6.8482e-05,0
31.971,9.7185e-05,0
31.972,0.00011666,0
31.972,0.00010625,0
31.973,6.865e-05,0
31.973,1.6785e-05,0
31.974,-2.9709e-05,0
31.974,-6.714e-05,0
31.975,-0.00010977,0
31.975,-0.00015425,0
31.976,-0.00017809,0
31.976,-0.00017356,0
31.977,-0.00015576,0
31.977,-0.00013042,0
31.978,-0.00010574,0
31.978,-8.9128e-05,0
31.979,-7.0161e-05,0
31.979,-4.3137e-05,0
31.98,-1.4939e-05,0
31.98,5.8747e-06,0
31.981,1.8967e-05,0
31.982,3.1556e-05,0
31.982,4.5151e-05,0
31.983,5.2201e-05,0
31.983,4.9012e-05,0
31.984,4.5487e-05,0
31.984,4.6998e-05,0
31.985,5.6565e-05,0
31.985,6.949e-05,0
31.986,8.1239e-05,0
31.986,8.9128e-05,0
31.987,9.366e-05,0
31.987,8.8792e-05,0
31.988,6.2608e-05,0
31.988,2.3499e-05,0
31.989,1.5274e-05,0
31.989,4.9516e-05,0
31.99,9.2485e-05,0
31.99,0.00010809,0
31.991,0.00010759,0
31.991,0.00012337,0
31.992,0.00014955,0
31.992,0.00016197,0
31.993,0.00014217,0
31.993,6.9993e-05,0
31.994,-1.9135e-05,0
31.994,-4.8173e-05,0
31.995,-2.4842e-05,0
31.996,-1.3092e-05,0
31.996,-2.9709e-05,0
31.997,-5.2201e-05,0
31.997,-6.4622e-05,0
31.998,-7.1504e-05,0
31.998,-9.8695e-05,0
31.999,-0.0001378,0
31.999,-0.00012505,0
32,-5.388e-05,0
32,1.6953e-05,0
32.001,3.8773e-05,0
32.001,2.6184e-05,0
32.002,2.4674e-05,0
32.002,5.2873e-05,0
32.003,7.805e-05,0
32.003,7.3518e-05,0
32.004,4.9516e-05,0
32.004,2.8367e-05,0
32.005,2.3499e-05,0
32.005,3.2731e-05,0
32.006,3.9445e-05,0
32.006,1.4099e-05,0
32.007,-5.1026e-05,0
32.007,-0.00010675,0
32.008,-9.7017e-05,0
32.008,-3.5752e-05,0
32.009,3.4409e-05,0
32.01,8.3085e-05,0
32.01,9.9367e-05,0
32.011,9.3828e-05,0
32.011,9.2653e-05,0
32.012,9.8863e-05,0
32.012,9.987e-05,0
32.013,9.8695e-05,0
32.013,0.00010407,0
32.014,0.00011447,0
32.014,0.00010809,0
32.015,8.1743e-05,0
32.015,5.153e-05,0
32.016,2.9709e-05,0
32.016,2.0813e-05,0
32.017,1.9806e-05,0
32.017,1.4099e-05,0
32.018,9.2317e-06,0
32.018,2.7192e-05,0
32.019,6.5629e-05,0
32.019,9.1814e-05,0
32.02,7.6204e-05,0
32.02,3.1891e-05,0
32.021,5.0355e-07,0
32.021,4.1962e-06,0
32.022,2.266e-05,0
32.023,3.7263e-05,0
32.023,5.0858e-05,0
32.024,5.8579e-05,0
32.024,5.623e-05,0
32.025,4.9348e-05,0
32.025,3.5752e-05,0
32.026,1.3931e-05,0
32.026,-9.5674e-06,0
32.027,-3.1052e-05,0
32.027,-4.7837e-05,0
32.028,-4.9012e-05,0
32.028,-3.508e-05,0
32.029,-2.1653e-05,0
32.029,-1.3596e-05,0
32.03,-1.0239e-05,0
32.03,-6.2104e-06,0
32.031,1.5106e-06,0
32.031,8.896e-06,0
32.032,1.5946e-05,0
32.032,2.4506e-05,0
32.033,3.4409e-05,0
32.033,4.0116e-05,0
32.034,4.213e-05,0
32.034,4.0787e-05,0
32.035,3.2563e-05,0
32.035,1.4939e-05,0
32.036,-9.0639e-06,0
32.037,-3.0381e-05,0
32.037,-4.9348e-05,0
32.038,-7.5364e-05,0
32.038,-9.2317e-05,0
32.039,-8.8792e-05,0
32.039,-6.9154e-05,0
32.04,-4.3137e-05,0
32.04,-2.3331e-05,0
32.041,-1.3092e-05,0
32.041,-8.3925e-06,0
32.042,-1.6785e-07,0
32.042,1.796e-05,0
32.043,4.2802e-05,0
32.043,6.1601e-05,0
32.044,6.714e-05,0
32.044,6.6804e-05,0
32.045,7.1504e-05,0
32.045,7.7714e-05,0
32.046,7.9728e-05,0
32.046,7.8218e-05,0
32.047,7.7546e-05,0
32.047,7.4022e-05,0
32.048,6.63e-05,0
32.048,5.8915e-05,0
32.049,5.2369e-05,0
32.05,4.213e-05,0
32.05,3.1388e-05,0
32.051,3.1052e-05,0
32.051,5.0355e-05,0
32.052,8.0735e-05,0
32.052,9.752e-05,0
32.053,9.2653e-05,0
32.053,7.1336e-05,0
32.054,3.7095e-05,0
32.054,-8.896e-06,0
32.055,-7.4189e-05,0
32.055,-0.0001566,0
32.056,-0.00021032,0
32.056,-0.00020024,0
32.057,-0.00015174,0
32.057,-8.8624e-05,0
32.058,-1.6953e-05,0
32.058,4.3473e-05,0
32.059,8.1743e-05,0
32.059,0.00010088,0
32.06,9.3828e-05,0
32.06,6.6804e-05,0
32.061,3.743e-05,0
32.061,1.8296e-05,0
32.062,2.5345e-05,0
32.062,4.5151e-05,0
32.063,3.978e-05,0
32.064,9.0639e-06,0
32.064,-7.7211e-06,0
32.065,-4.0284e-06,0
32.065,2.7695e-05,0
32.066,8.3085e-05,0
32.066,0.00013143,0
32.067,0.00015509,0
32.067,0.00015962,0
32.068,0.00014519,0
32.068,0.00012673,0
32.069,9.987e-05,0
32.069,5.8915e-05,0
32.07,1.091e-05,0
32.07,-4.5823e-05,0
32.071,-9.9535e-05,0
32.071,-0.00012622,0
32.072,-0.00013243,0
32.072,-0.00012337,0
32.073,-9.0303e-05,0
32.073,-4.8676e-05,0
32.074,-2.5513e-05,0
32.074,-7.0497e-06,0
32.075,2.3163e-05,0
32.075,5.4551e-05,0
32.076,7.1672e-05,0
32.077,7.2679e-05,0
32.077,6.2608e-05,0
32.078,5.3376e-05,0
32.078,5.1194e-05,0
32.079,6.0258e-05,0
32.079,7.2679e-05,0
32.08,8.2078e-05,0
32.08,8.7785e-05,0
32.081,9.2149e-05,0
32.081,9.4499e-05,0
32.082,9.4163e-05,0
32.082,9.0974e-05,0
32.083,8.0735e-05,0
32.083,7.0161e-05,0
32.084,6.2943e-05,0
32.084,4.9683e-05,0
32.085,3.0045e-05,0
32.085,1.2589e-05,0
32.086,6.5461e-06,0
32.086,6.3783e-06,0
32.087,-1.1749e-06,0
32.087,-1.7456e-05,0
32.088,-3.0716e-05,0
32.088,-3.1891e-05,0
32.089,-2.1317e-05,0
32.09,-5.8747e-06,0
32.09,5.0355e-07,0
32.091,-3.5248e-06,0
32.091,-1.8463e-06,0
32.092,8.896e-06,0
32.092,2.1653e-05,0
32.093,3.0045e-05,0
32.093,3.3234e-05,0
32.094,3.9277e-05,0
32.094,4.683e-05,0
32.095,4.2802e-05,0
32.095,2.8031e-05,0
32.096,1.4603e-05,0
32.096,1.1917e-05,0
32.097,1.9974e-05,0
32.097,2.5681e-05,0
32.098,2.6688e-05,0
32.098,2.9374e-05,0
32.099,2.9374e-05,0
32.099,1.1078e-05,0
32.1,-2.1317e-05,0
32.1,-3.8773e-05,0
32.101,-2.9877e-05,0
32.101,-1.7624e-05,0
32.102,-2.4002e-05,0
32.102,-4.0787e-05,0
32.103,-5.1362e-05,0
32.104,-5.153e-05,0
32.104,-4.7837e-05,0
32.105,-5.069e-05,0
32.105,-6.7643e-05,0
32.106,-9.0806e-05,0
32.106,-9.9535e-05,0
32.107,-8.7449e-05,0
32.107,-5.1194e-05,0
32.108,-1.796e-05,0
32.108,-9.5674e-06,0
32.109,-1.2924e-05,0
32.109,-1.8967e-05,0
32.11,-3.0045e-05,0
32.11,-3.2731e-05,0
32.111,-7.2175e-06,0
32.111,3.508e-05,0
32.112,6.1433e-05,0
32.112,6.2943e-05,0
32.113,6.4958e-05,0
32.113,9.1142e-05,0
32.114,0.00013747,0
32.114,0.0001843,0
32.115,0.00021569,0
32.115,0.00022609,0
32.116,0.00022324,0
32.117,0.00021048,0
32.117,0.00016802,0
32.118,6.4286e-05,0
32.118,-7.0161e-05,0
32.119,-0.00014838,0
32.119,-0.00014183,0
32.12,-0.00010037,0
32.12,-4.1123e-05,0
32.121,5.6733e-05,0
32.121,0.00016466,0
32.122,0.00022106,0
32.122,0.00020125,0
32.123,0.00012639,0
32.123,3.9948e-05,0
32.124,-2.9206e-05,0
32.124,-7.1504e-05,0
32.125,-8.04e-05,0
32.125,-6.0594e-05,0
32.126,-3.0213e-05,0
32.126,1.6785e-07,0
32.127,3.1052e-05,0
32.127,5.1194e-05,0
32.128,4.1291e-05,0
32.128,5.0355e-07,0
32.129,-4.7669e-05,0
32.129,-0.00010054,0
32.13,-0.0001613,0
32.131,-0.00019571,0
32.131,-0.00019219,0
32.132,-0.00015879,0
32.132,-0.00010289,0
32.133,-3.7263e-05,0
32.133,2.0981e-05,0
32.134,6.0594e-05,0
32.134,8.1743e-05,0
32.135,9.2988e-05,0
32.135,9.6849e-05,0
32.136,9.7185e-05,0
32.136,9.4331e-05,0
32.137,9.366e-05,0
32.137,0.00010088,0
32.138,0.0001039,0
32.138,9.9199e-05,0
32.139,9.0471e-05,0
32.139,8.191e-05,0
32.14,7.4861e-05,0
32.14,7.2343e-05,0
32.141,6.8315e-05,0
32.141,5.6733e-05,0
32.142,4.8005e-05,0
32.142,4.4816e-05,0
32.143,5.153e-05,0
32.144,6.7811e-05,0
32.144,8.04e-05,0
32.145,7.7043e-05,0
32.145,6.5965e-05,0
32.146,5.623e-05,0
32.146,4.8508e-05,0
32.147,5.069e-05,0
32.147,5.8579e-05,0
32.148,6.8315e-05,0
32.148,7.57e-05,0
32.149,7.6371e-05,0
32.149,7.6875e-05,0
32.15,7.2679e-05,0
32.15,6.0929e-05,0
32.151,5.4383e-05,0
32.151,4.9516e-05,0
32.152,3.508e-05,0
32.152,1.1246e-05,0
32.153,-1.4099e-05,0
32.153,-3.6088e-05,0
32.154,-6.0594e-05,0
32.154,-8.04e-05,0
32.155,-7.7714e-05,0
32.155,-5.8412e-05,0
32.156,-4.3137e-05,0
32.156,-3.9948e-05,0
32.157,-3.7934e-05,0
32.158,-2.3163e-05,0
32.158,-2.5177e-06,0
32.159,1.326e-05,0
32.159,1.326e-05,0
32.16,1.1749e-06,0
32.16,-1.5274e-05,0
32.161,-2.9374e-05,0
32.161,-4.1794e-05,0
32.162,-6.6636e-05,0
32.162,-8.2246e-05,0
32.163,-5.8747e-05,0
32.163,-2.1653e-05,0
32.164,-8.2246e-06,0
32.164,-1.326e-05,0
32.165,-1.7624e-05,0
32.165,-2.1317e-05,0
32.166,-1.8967e-05,0
32.166,-3.8605e-06,0
32.167,9.2317e-06,0
32.167,1.3596e-05,0
32.168,2.4338e-05,0
32.168,4.4816e-05,0
32.169,6.1601e-05,0
32.169,6.7475e-05,0
32.17,5.8412e-05,0
32.17,3.8605e-05,0
32.171,2.0142e-05,0
32.172,1.1246e-05,0
32.172,1.1582e-05,0
32.173,1.0071e-05,0
32.173,4.3641e-06,0
32.174,6.8818e-06,0
32.174,2.2156e-05,0
32.175,4.6159e-05,0
32.175,6.1601e-05,0
32.176,7.0329e-05,0
32.176,9.4499e-05,0
32.177,0.0001279,0
32.177,0.00014049,0
32.178,0.00012958,0
32.178,0.00012203,0
32.179,0.00010423,0
32.179,3.0716e-05,0
32.18,-7.2175e-05,0
32.18,-0.00012605,0
32.181,-0.00011968,0
32.181,-8.0064e-05,0
32.182,-4.213e-05,0
32.182,-2.9709e-05,0
32.183,-2.9709e-05,0
32.183,-1.8967e-05,0
32.184,0,0
32.185,1.4267e-05,0
32.185,2.6352e-05,0
32.186,3.978e-05,0
32.186,4.4984e-05,0
32.187,3.5752e-05,0
32.187,1.9638e-05,0
32.188,7.0497e-06,0
32.188,-1.8463e-06,0
32.189,-3.0045e-05,0
32.189,-7.0665e-05,0
32.19,-6.0761e-05,0
32.19,1.1749e-06,0
32.191,6.6804e-05,0
32.191,0.00011649,0
32.192,0.00015157,0
32.192,0.00016432,0
32.193,0.00013948,0
32.193,8.7785e-05,0
32.194,4.0116e-05,0
32.194,-1.3428e-06,0
32.195,-5.8244e-05,0
32.195,-0.00011498,0
32.196,-0.0001279,0
32.196,-0.00010826,0
32.197,-8.1743e-05,0
32.197,-6.2608e-05,0
32.198,-5.0355e-05,0
32.199,-2.6352e-05,0
32.199,8.896e-06,0
32.2,3.9445e-05,0
32.2,5.8747e-05,0
32.201,7.6204e-05,0
32.201,9.6513e-05,0
32.202,0.00011666,0
32.202,0.00012471,0
32.203,0.00011833,0
32.203,0.00011196,0
32.204,0.00011095,0
32.204,0.00011128,0
32.205,0.00010893,0
32.205,9.9199e-05,0
32.206,8.7114e-05,0
32.206,7.3686e-05,0
32.207,4.7333e-05,0
32.207,1.9638e-05,0
32.208,8.896e-06,0
32.208,8.5603e-06,0
32.209,9.9031e-06,0
32.209,1.2924e-05,0
32.21,2.0981e-05,0
32.21,3.9109e-05,0
32.211,5.623e-05,0
32.212,6.1433e-05,0
32.212,5.2873e-05,0
32.213,4.5151e-05,0
32.213,3.3402e-05,0
32.214,9.7353e-06,0
32.214,-3.1556e-05,0
32.215,-6.0258e-05,0
32.215,-4.1123e-05,0
32.216,4.0284e-06,0
32.216,2.8031e-05,0
32.217,2.8367e-05,0
32.217,3.2731e-05,0
32.218,4.5487e-05,0
32.218,5.7908e-05,0
32.219,6.2104e-05,0
32.219,5.5894e-05,0
32.22,4.2802e-05,0
32.22,3.0716e-05,0
32.221,2.7192e-05,0
32.221,2.8702e-05,0
32.222,2.1149e-05,0
32.222,0,0
32.223,-2.6017e-05,0
32.223,-5.0858e-05,0
32.224,-6.3447e-05,0
32.224,-5.1362e-05,0
32.225,-2.4674e-05,0
32.226,3.1891e-06,0
32.226,2.2995e-05,0
32.227,3.0381e-05,0
32.227,2.7024e-05,0
32.228,1.796e-05,0
32.228,1.091e-05,0
32.229,6.2104e-06,0
32.229,3.1891e-06,0
32.23,-1.5106e-06,0
32.23,-4.3641e-06,0
32.231,-1.1749e-06,0
32.231,5.0355e-07,0
32.232,4.3641e-06,0
32.232,1.3931e-05,0
32.233,2.1988e-05,0
32.233,2.2324e-05,0
32.234,3.2731e-05,0
32.234,6.4286e-05,0
32.235,9.752e-05,0
32.235,9.836e-05,0
32.236,5.8579e-05,0
32.236,8.2246e-06,0
32.237,-3.0716e-05,0
32.237,-5.8076e-05,0
32.238,-7.7882e-05,0
32.239,-8.5267e-05,0
32.239,-7.7882e-05,0
32.24,-5.4719e-05,0
32.24,-4.0787e-05,0
32.241,-4.8005e-05,0
32.241,-6.2943e-05,0
32.242,-5.7572e-05,0
32.242,-1.8128e-05,0
32.243,2.4338e-05,0
32.243,4.2802e-05,0
32.244,4.8173e-05,0
32.244,6.0258e-05,0
32.245,7.4525e-05,0
32.245,7.7043e-05,0
32.246,6.9993e-05,0
32.246,6.63e-05,0
32.247,6.6972e-05,0
32.247,6.6636e-05,0
32.248,6.3615e-05,0
32.248,6.244e-05,0
32.249,6.6636e-05,0
32.249,6.8315e-05,0
32.25,5.8915e-05,0
32.25,3.9109e-05,0
32.251,1.8128e-05,0
32.252,9.5674e-06,0
32.252,1.091e-05,0
32.253,2.8534e-06,0
32.253,-2.1317e-05,0
32.254,-4.448e-05,0
32.254,-4.5151e-05,0
32.255,-2.5177e-05,0
32.255,-6.3783e-06,0
32.256,1.5106e-06,0
32.256,3.0213e-06,0
32.257,3.357e-06,0
32.257,1.2421e-05,0
32.258,2.4842e-05,0
32.258,3.2731e-05,0
32.259,3.7263e-05,0
32.259,3.508e-05,0
32.26,2.7695e-05,0
32.26,2.0645e-05,0
32.261,2.3331e-05,0
32.261,3.8773e-05,0
32.262,5.623e-05,0
32.262,6.8482e-05,0
32.263,8.04e-05,0
32.263,8.7953e-05,0
32.264,9.4163e-05,0
32.264,0.0001039,0
32.265,0.00010726,0
32.266,8.9128e-05,0
32.266,4.1459e-05,0
32.267,-2.2492e-05,0
32.267,-6.5797e-05,0
32.268,-4.6326e-05,0
32.268,3.5248e-06,0
32.269,2.6688e-05,0
32.269,2.3163e-05,0
32.27,1.2924e-05,0
32.27,-3.1891e-06,0
32.271,-1.7121e-05,0
32.271,-1.0742e-05,0
32.272,2.0981e-05,0
32.272,5.5222e-05,0
32.273,6.3447e-05,0
32.273,4.5991e-05,0
32.274,1.1414e-05,0
32.274,-2.6352e-05,0
32.275,-3.2227e-05,0
32.275,-2.182e-06,0
32.276,2.6352e-05,0
32.276,3.0716e-05,0
32.277,2.0981e-05,0
32.277,1.2757e-05,0
32.278,1.1414e-05,0
32.279,1.2924e-05,0
32.279,1.561e-05,0
32.28,2.9709e-05,0
32.28,5.2705e-05,0
32.281,6.4958e-05,0
32.281,6.8986e-05,0
32.282,7.57e-05,0
32.282,7.5029e-05,0
32.283,6.2272e-05,0
32.283,4.4648e-05,0
32.284,3.0045e-05,0
32.284,1.796e-05,0
32.285,4.5319e-06,0
32.285,-5.539e-06,0
32.286,2.5177e-06,0
32.286,2.652e-05,0
32.287,4.7166e-05,0
32.287,4.2802e-05,0
32.288,2.1317e-05,0
32.288,1.6785e-06,0
32.289,-9.5674e-06,0
32.289,-1.0407e-05,0
32.29,1.8463e-06,0
32.29,3.8773e-05,0
32.291,9.1142e-05,0
32.291,0.0001227,0
32.292,0.00010692,0
32.293,6.5965e-05,0
32.293,2.2995e-05,0
32.294,-6.0594e-05,0
32.294,-0.00019001,0
32.295,-0.00028602,0
32.295,-0.00027091,0
32.296,-0.00015996,0
32.296,-3.0381e-05,0
32.297,5.9251e-05,0
32.297,0.00010155,0
32.298,0.0001232,0
32.298,0.00012471,0
32.299,9.4499e-05,0
32.299,4.8005e-05,0
32.3,4.5319e-06,0
32.3,-2.5513e-05,0
32.301,-3.5416e-05,0
32.301,-2.3667e-05,0
32.302,-2.5177e-06,0
32.302,9.2317e-06,0
32.303,7.8889e-06,0
32.303,-1.0575e-05,0
32.304,-2.9206e-05,0
32.304,-2.4674e-05,0
32.305,7.3854e-06,0
32.306,5.2369e-05,0
32.306,8.7114e-05,0
32.307,0.00010658,0
32.307,0.00011649,0
32.308,0.00011733,0
32.308,0.00011498,0
32.309,0.00011196,0
32.309,0.00010457,0
32.31,0.00010188,0
32.31,0.00010088,0
32.311,8.9632e-05,0
32.311,6.2776e-05,0
32.312,2.7695e-05,0
32.312,-1.0071e-06,0
32.313,-1.8631e-05,0
32.313,-3.2563e-05,0
32.314,-4.7837e-05,0
32.314,-5.7237e-05,0
32.315,-5.623e-05,0
32.315,-4.3473e-05,0
32.316,-2.7024e-05,0
32.316,-1.1749e-05,0
32.317,8.896e-06,0
32.317,3.122e-05,0
32.318,4.683e-05,0
32.318,5.2537e-05,0
32.319,4.5151e-05,0
32.32,3.3738e-05,0
32.32,1.9974e-05,0
32.321,1.0071e-05,0
32.321,9.5674e-06,0
32.322,1.561e-05,0
32.322,2.1317e-05,0
32.323,1.7456e-05,0
32.323,1.2589e-05,0
32.324,1.9638e-05,0
32.324,3.2395e-05,0
32.325,4.4648e-05,0
32.325,4.8173e-05,0
32.326,3.7095e-05,0
32.326,1.6785e-05,0
32.327,-1.2421e-05,0
32.327,-4.6494e-05,0
32.328,-7.3854e-05,0
32.328,-8.191e-05,0
32.329,-6.5293e-05,0
32.329,-2.8534e-05,0
32.33,9.2317e-06,0
32.33,2.7359e-05,0
32.331,3.3402e-05,0
32.331,3.4745e-05,0
32.332,2.8031e-05,0
32.333,2.4002e-05,0
32.333,3.2059e-05,0
32.334,3.8773e-05,0
32.334,3.2395e-05,0
32.335,2.4002e-05,0
32.335,3.3738e-05,0
32.336,6.5126e-05,0
32.336,0.00010692,0
32.337,0.00013545,0
32.337,0.00014485,0
32.338,0.0001378,0
32.338,0.00012471,0
32.339,0.00012001,0
32.339,0.00010726,0
32.34,5.7572e-05,0
32.34,-2.6017e-05,0
32.341,-0.00011447,0
32.341,-0.0001608,0
32.342,-0.00014704,0
32.342,-0.00010088,0
32.343,-5.8915e-05,0
32.343,-2.7359e-05,0
32.344,-1.6785e-07,0
32.344,1.8296e-05,0
32.345,2.7359e-05,0
32.345,3.6591e-05,0
32.346,4.7501e-05,0
32.347,4.4816e-05,0
32.347,1.9135e-05,0
32.348,-1.3931e-05,0
32.348,-3.1891e-05,0
32.349,-1.8631e-05,0
32.349,3.1052e-05,0
32.35,8.51e-05,0
32.35,9.5338e-05,0
32.351,6.0258e-05,0
32.351,2.2995e-05,0
32.352,1.091e-05,0
32.352,1.9806e-05,0
32.353,4.2634e-05,0
32.353,6.1936e-05,0
32.354,5.6901e-05,0
32.354,3.9277e-05,0
32.355,2.501e-05,0
32.355,1.091e-05,0
32.356,-3.1891e-06,0
32.356,-7.2175e-06,0
32.357,-5.7069e-06,0
32.357,-4.8676e-06,0
32.358,-5.3712e-06,0
32.358,-7.8889e-06,0
32.359,-1.2085e-05,0
32.359,-7.2175e-06,0
32.36,4.8676e-06,0
32.361,2.0478e-05,0
32.361,3.6927e-05,0
32.362,4.1794e-05,0
32.362,4.4816e-05,0
32.363,5.4719e-05,0
32.363,6.5965e-05,0
32.364,6.865e-05,0
32.364,5.9586e-05,0
32.365,5.0187e-05,0
32.365,6.2776e-05,0
32.366,8.5771e-05,0
32.366,8.51e-05,0
32.367,6.1265e-05,0
32.367,4.7837e-05,0
32.368,4.7501e-05,0
32.368,5.388e-05,0
32.369,6.4286e-05,0
32.369,7.0329e-05,0
32.37,5.4551e-05,0
32.37,1.6617e-05,0
32.371,-2.2324e-05,0
32.371,-4.683e-05,0
32.372,-5.7404e-05,0
32.372,-6.6133e-05,0
32.373,-6.9154e-05,0
32.374,-5.8747e-05,0
32.374,-3.743e-05,0
32.375,-2.031e-05,0
32.375,-1.8631e-05,0
32.376,-2.2995e-05,0
32.376,-1.6281e-05,0
32.377,1.5106e-06,0
32.377,1.8296e-05,0
32.378,2.0142e-05,0
32.378,1.5442e-05,0
32.379,1.1749e-05,0
32.379,-6.0426e-06,0
32.38,-3.8773e-05,0
32.38,-5.9922e-05,0
32.381,-6.1936e-05,0
32.381,-5.4215e-05,0
32.382,-3.7095e-05,0
32.382,-8.896e-06,0
32.383,1.9638e-05,0
32.383,3.743e-05,0
32.384,4.5487e-05,0
32.384,4.9683e-05,0
32.385,5.7572e-05,0
32.385,6.9993e-05,0
32.386,8.5771e-05,0
32.386,9.5842e-05,0
32.387,9.8192e-05,0
32.388,0.00010574,0
32.388,0.00012421,0
32.389,0.00013764,0
32.389,0.00014083,0
32.39,0.00013948,0
32.39,0.00013075,0
32.391,0.00011162,0
32.391,6.3615e-05,0
32.392,-2.1317e-05,0
32.392,-9.8024e-05,0
32.393,-0.00010893,0
32.393,-7.57e-05,0
32.394,-4.683e-05,0
32.394,-4.1291e-05,0
32.395,-4.6326e-05,0
32.395,-4.918e-05,0
32.396,-5.0187e-05,0
32.396,-4.6494e-05,0
32.397,-4.6998e-05,0
32.397,-5.9586e-05,0
32.398,-6.8147e-05,0
32.398,-6.714e-05,0
32.399,-7.335e-05,0
32.399,-8.9296e-05,0
32.4,-8.2078e-05,0
32.401,-3.7095e-05,0
32.401,6.8818e-06,0
32.402,3.3234e-05,0
32.402,5.2873e-05,0
32.403,7.5029e-05,0
32.403,9.1814e-05,0
32.404,9.2485e-05,0
32.404,7.7714e-05,0
32.405,5.5222e-05,0
32.405,4.918e-05,0
32.406,6.6972e-05,0
32.406,8.9128e-05,0
32.407,9.3492e-05,0
32.407,8.4428e-05,0
32.408,7.7714e-05,0
32.408,8.4932e-05,0
32.409,9.9031e-05,0
32.409,0.0001039,0
32.41,9.8863e-05,0
32.41,9.2485e-05,0
32.411,8.6946e-05,0
32.411,8.3757e-05,0
32.412,7.4525e-05,0
32.412,6.0594e-05,0
32.413,5.7069e-05,0
32.413,7.3686e-05,0
32.414,8.3253e-05,0
32.415,6.7643e-05,0
32.415,5.0523e-05,0
32.416,4.7837e-05,0
32.416,5.0187e-05,0
32.417,4.8173e-05,0
32.417,5.539e-05,0
32.418,8.2246e-05,0
32.418,0.00010306,0
32.419,9.366e-05,0
32.419,6.63e-05,0
32.42,2.9541e-05,0
32.42,-2.2995e-05,0
32.421,-8.2582e-05,0
32.421,-0.00013478,0
32.422,-0.00015862,0
32.422,-0.00013797,0
32.423,-8.5267e-05,0
32.423,-2.4338e-05,0
32.424,2.3499e-05,0
32.424,4.5151e-05,0
32.425,3.6088e-05,0
32.425,1.0071e-05,0
32.426,-2.0645e-05,0
32.426,-4.3137e-05,0
32.427,-5.0355e-05,0
32.428,-4.8005e-05,0
32.428,-3.6591e-05,0
32.429,-2.5513e-05,0
32.429,-1.8296e-05,0
32.43,-1.2253e-05,0
32.43,-7.5532e-06,0
32.431,-2.8534e-06,0
32.431,1.8463e-06,0
32.432,7.2175e-06,0
32.432,1.4435e-05,0
32.433,2.4002e-05,0
32.433,2.9206e-05,0
32.434,3.2059e-05,0
32.434,4.2802e-05,0
32.435,5.3544e-05,0
32.435,5.4551e-05,0
32.436,5.2873e-05,0
32.436,5.2873e-05,0
32.437,4.6662e-05,0
32.437,3.743e-05,0
32.438,3.1052e-05,0
32.438,2.7863e-05,0
32.439,2.266e-05,0
32.439,1.7456e-05,0
32.44,1.1246e-05,0
32.441,1.2924e-05,0
32.441,2.4842e-05,0
32.442,4.1459e-05,0
32.442,5.2201e-05,0
32.443,5.2705e-05,0
32.443,5.8579e-05,0
32.444,7.4022e-05,0
32.444,8.5435e-05,0
32.445,9.0639e-05,0
32.445,9.6513e-05,0
32.446,0.00010423,0
32.446,0.00010356,0
32.447,8.5435e-05,0
32.447,4.8173e-05,0
32.448,5.8747e-06,0
32.448,-2.9038e-05,0
32.449,-5.623e-05,0
32.449,-8.2414e-05,0
32.45,-0.0001086,0
32.45,-0.00012505,0
32.451,-0.00012404,0
32.451,-0.00010826,0
32.452,-9.3156e-05,0
32.452,-8.6107e-05,0
32.453,-7.5532e-05,0
32.453,-5.4887e-05,0
32.454,-3.8437e-05,0
32.455,-2.7359e-05,0
32.455,-1.3596e-05,0
32.456,2.0142e-06,0
32.456,7.2175e-06,0
32.457,-2.8534e-06,0
32.457,-8.896e-06,0
32.458,-1.1749e-06,0
32.458,6.5461e-06,0
32.459,6.5461e-06,0
32.459,5.539e-06,0
32.46,1.3596e-05,0
32.46,2.9038e-05,0
32.461,4.062e-05,0
32.461,5.0019e-05,0
32.462,6.0594e-05,0
32.462,7.1672e-05,0
32.463,8.2582e-05,0
32.463,9.8192e-05,0
32.464,0.00011666,0
32.464,0.00013143,0
32.465,0.0001368,0
32.465,0.00012505,0
32.466,0.00010289,0
32.466,8.1575e-05,0
32.467,6.5965e-05,0
32.468,5.3544e-05,0
32.468,3.4913e-05,0
32.469,1.1246e-05,0
32.469,-9.9031e-06,0
32.47,-4.3977e-05,0
32.47,-9.6513e-05,0
32.471,-0.00014318,0
32.471,-0.00015795,0
32.472,-0.00012639,0
32.472,-7.0497e-05,0
32.473,-1.5274e-05,0
32.473,3.2563e-05,0
32.474,7.4357e-05,0
32.474,0.0001044,0
32.475,9.2821e-05,0
32.475,3.4073e-05,0
32.476,-1.4939e-05,0
32.476,-2.5345e-05,0
32.477,-2.8199e-05,0
32.477,-2.7024e-05,0
32.478,6.3783e-06,0
32.478,6.8986e-05,0
32.479,0.00012337,0
32.479,0.00015358,0
32.48,0.00017154,0
32.48,0.00018614,0
32.481,0.00017977,0
32.482,0.00014401,0
32.482,9.3828e-05,0
32.483,3.5248e-05,0
32.483,-3.0549e-05,0
32.484,-5.6901e-05,0
32.484,-1.1917e-05,0
32.485,5.304e-05,0
32.485,7.5029e-05,0
32.486,6.0594e-05,0
32.486,6.8147e-05,0
32.487,0.00010591,0
32.487,0.00011968,0
32.488,9.1646e-05,0
32.488,5.0019e-05,0
32.489,2.2156e-05,0
32.489,4.3641e-06,0
32.49,-1.1749e-05,0
32.49,-3.0381e-05,0
32.491,-4.4648e-05,0
32.491,-4.7669e-05,0
32.492,-3.508e-05,0
32.492,-1.3092e-05,0
32.493,7.2175e-06,0
32.493,1.5274e-05,0
32.494,2.0478e-05,0
32.495,2.9709e-05,0
32.495,4.2802e-05,0
32.496,5.2201e-05,0
32.496,5.069e-05,0
32.497,4.2802e-05,0
32.497,4.4648e-05,0
32.498,5.3208e-05,0
32.498,5.7237e-05,0
32.499,5.5222e-05,0
32.499,4.6998e-05,0
32.5,3.508e-05,0
32.5,2.1988e-05,0
32.501,1.0575e-05,0
32.501,9.9031e-06,0
32.502,2.3835e-05,0
32.502,3.9948e-05,0
32.503,4.4816e-05,0
32.503,3.2059e-05,0
32.504,6.0426e-06,0
32.504,-1.326e-05,0
32.505,-1.326e-05,0
32.505,-8.2246e-06,0
32.506,-8.5603e-06,0
32.506,-8.5603e-06,0
32.507,4.1962e-06,0
32.507,2.0645e-05,0
32.508,2.266e-05,0
32.509,1.9638e-05,0
32.509,2.3331e-05,0
32.51,3.2395e-05,0
32.51,3.0549e-05,0
32.511,3.8605e-06,0
32.511,-4.7669e-05,0
32.512,-9.1981e-05,0
32.512,-0.00010642,0
32.513,-0.00011128,0
32.513,-0.00012303,0
32.514,-0.00014032,0
32.514,-0.0001415,0
32.515,-0.00010793,0
32.515,-5.6565e-05,0
32.516,-3.3066e-05,0
32.516,-3.978e-05,0
32.517,-3.9277e-05,0
32.517,-2.8031e-05,0
32.518,-1.8967e-05,0
32.518,-1.6281e-05,0
32.519,-2.031e-05,0
32.519,-3.3234e-05,0
32.52,-4.5487e-05,0
32.52,-3.8773e-05,0
32.521,-1.3764e-05,0
32.522,1.4603e-05,0
32.522,4.4816e-05,0
32.523,7.6371e-05,0
32.523,9.8192e-05,0
32.524,0.00010474,0
32.524,0.0001091,0
32.525,0.0001086,0
32.525,8.8289e-05,0
32.526,5.153e-05,0
32.526,2.1317e-05,0
32.527,6.8818e-06,0
32.527,8.2246e-06,0
32.528,2.9709e-05,0
32.528,7.1672e-05,0
32.529,0.00011128,0
32.529,0.00013008,0
32.53,0.00013881,0
32.53,0.00014469,0
32.531,0.00014351,0
32.531,0.00013663,0
32.532,0.00013243,0
32.532,0.00012522,0
32.533,0.00010726,0
32.533,7.335e-05,0
32.534,3.2059e-05,0
32.534,1.0071e-06,0
32.535,-4.1962e-06,0
32.536,1.0071e-05,0
32.536,1.4939e-05,0
32.537,9.9031e-06,0
32.537,2.5345e-05,0
32.538,6.6804e-05,0
32.538,9.4835e-05,0
32.539,8.1575e-05,0
32.539,3.2059e-05,0
32.54,-3.4409e-05,0
32.54,-7.8553e-05,0
32.541,-5.9922e-05,0
32.541,1.1749e-06,0
32.542,4.7669e-05,0
32.542,5.5055e-05,0
32.543,2.4338e-05,0
32.543,-2.501e-05,0
32.544,-8.2078e-05,0
32.544,-0.0001519,0
32.545,-0.00019487,0
32.545,-0.00016281,0
32.546,-7.1e-05,0
32.546,2.0478e-05,0
32.547,7.335e-05,0
32.547,9.4163e-05,0
32.548,9.4499e-05,0
32.548,8.0903e-05,0
32.549,6.4118e-05,0
32.55,4.6662e-05,0
32.55,3.0045e-05,0
32.551,3.0716e-05,0
32.551,6.009e-05,0
32.552,8.7449e-05,0
32.552,8.7449e-05,0
32.553,8.1239e-05,0
32.553,7.7714e-05,0
32.554,6.6636e-05,0
32.554,5.0355e-05,0
32.555,2.4338e-05,0
32.555,-4.6998e-06,0
32.556,-7.7211e-06,0
32.556,9.9031e-06,0
32.557,2.0645e-05,0
32.557,1.2924e-05,0
32.558,-9.7353e-06,0
32.558,-1.5274e-05,0
32.559,9.7353e-06,0
32.559,3.5416e-05,0
32.56,3.6088e-05,0
32.56,2.1988e-05,0
32.561,1.0575e-05,0
32.561,5.2033e-06,0
32.562,-1.1246e-05,0
32.563,-4.0955e-05,0
32.563,-4.7837e-05,0
32.564,-2.5681e-05,0
32.564,1.8463e-06,0
32.565,1.8631e-05,0
32.565,2.5345e-05,0
32.566,3.0045e-05,0
32.566,3.3906e-05,0
32.567,3.3738e-05,0
32.567,3.8102e-05,0
32.568,6.2272e-05,0
32.568,9.9535e-05,0
32.569,0.0001284,0
32.569,0.00013915,0
32.57,0.00013378,0
32.57,0.0001138,0
32.571,9.1981e-05,0
32.571,7.7379e-05,0
32.572,4.7837e-05,0
32.572,-1.0071e-05,0
32.573,-6.865e-05,0
32.573,-0.00011112,0
32.574,-0.0001378,0
32.574,-0.00013579,0
32.575,-9.4163e-05,0
32.575,-3.4745e-05,0
32.576,-4.0284e-06,0
32.577,-4.5319e-06,0
32.577,-8.2246e-06,0
32.578,-3.5248e-06,0
32.578,8.0568e-06,0
32.579,1.7792e-05,0
32.579,2.0981e-05,0
32.58,2.3331e-05,0
32.58,2.7192e-05,0
32.581,1.8296e-05,0
32.581,-6.714e-07,0
32.582,-1.3931e-05,0
32.582,-1.8463e-05,0
32.583,-2.182e-05,0
32.583,-2.4002e-05,0
32.584,-1.3596e-05,0
32.584,1.4939e-05,0
32.585,4.7669e-05,0
32.585,7.57e-05,0
32.586,0.00010172,0
32.586,0.00011901,0
32.587,0.00011196,0
32.587,6.9322e-05,0
32.588,4.8676e-06,0
32.588,-6.6804e-05,0
32.589,-0.00014284,0
32.59,-0.00019672,0
32.59,-0.00019152,0
32.591,-0.00013109,0
32.591,-5.6733e-05,0
32.592,-7.5532e-06,0
32.592,-1.6785e-07,0
32.593,-2.2995e-05,0
32.593,-3.3234e-05,0
32.594,1.8463e-06,0
32.594,5.1362e-05,0
32.595,7.0665e-05,0
32.595,5.304e-05,0
32.596,3.6088e-05,0
32.596,5.4215e-05,0
32.597,6.4286e-05,0
32.597,3.6088e-05,0
32.598,3.3234e-05,0
32.598,7.9393e-05,0
32.599,0.00012236,0
32.599,0.00013931,0
32.6,0.0001519,0
32.6,0.00018044,0
32.601,0.00021854,0
32.601,0.00024372,0
32.602,0.00023818,0
32.602,0.0002172,0
32.603,0.00019722,0
32.604,0.000165,0
32.604,8.1743e-05,0
32.605,-5.5558e-05,0
32.605,-0.00016298,0
32.606,-0.00019319,0
32.606,-0.00017557,0
32.607,-0.00012807,0
32.607,-5.5055e-05,0
32.608,2.1317e-05,0
32.608,7.5029e-05,0
32.609,0.00010323,0
32.609,0.00011464,0
32.61,0.00010138,0
32.61,4.9348e-05,0
32.611,-2.7527e-05,0
32.611,-9.7185e-05,0
32.612,-0.00015946,0
32.612,-0.00020494,0
32.613,-0.0001984,0
32.613,-0.0001331,0
32.614,-5.388e-05,0
32.614,-1.091e-05,0
32.615,-2.0142e-06,0
32.615,6.5461e-06,0
32.616,2.6184e-05,0
32.617,4.683e-05,0
32.617,5.8244e-05,0
32.618,6.6804e-05,0
32.618,6.9657e-05,0
32.619,7.6707e-05,0
32.619,9.9535e-05,0
32.62,0.00011296,0
32.62,8.0735e-05,0
32.621,1.5946e-05,0
32.621,-4.5487e-05,0
32.622,-0.00010977,0
32.622,-0.00016399,0
32.623,-0.0001744,0
32.623,-0.00013042,0
32.624,-4.5823e-05,0
32.624,3.8102e-05,0
32.625,8.8121e-05,0
32.625,0.00010021,0
32.626,9.7017e-05,0
32.626,9.8863e-05,0
32.627,0.00010893,0
32.627,0.00012471,0
32.628,0.00013512,0
32.628,0.00013361,0
32.629,0.00012572,0
32.63,0.00011296,0
32.63,0.00010155,0
32.631,8.2918e-05,0
32.631,5.1362e-05,0
32.632,1.6617e-05,0
32.632,5.0355e-07,0
32.633,1.5106e-05,0
32.633,4.2802e-05,0
32.634,6.6804e-05,0
32.634,8.0903e-05,0
32.635,7.9728e-05,0
32.635,6.8315e-05,0
32.636,5.9586e-05,0
32.636,6.0929e-05,0
32.637,6.3615e-05,0
32.637,5.6901e-05,0
32.638,5.2033e-05,0
32.638,4.5487e-05,0
32.639,2.6352e-05,0
32.639,1.6785e-06,0
32.64,-2.501e-05,0
32.64,-4.5319e-05,0
32.641,-4.8508e-05,0
32.641,-3.8102e-05,0
32.642,-2.7192e-05,0
32.642,-1.9135e-05,0
32.643,-1.2253e-05,0
32.644,-1.1078e-05,0
32.644,-1.796e-05,0
32.645,-2.8031e-05,0
32.645,-3.4409e-05,0
32.646,-2.4506e-05,0
32.646,-2.5177e-06,0
32.647,2.6352e-05,0
32.647,5.4719e-05,0
32.648,7.0665e-05,0
32.648,7.3518e-05,0
32.649,7.0665e-05,0
32.649,6.2104e-05,0
32.65,4.3809e-05,0
32.65,2.3835e-05,0
32.651,1.6617e-05,0
32.651,3.2059e-05,0
32.652,5.7404e-05,0
32.652,7.8721e-05,0
32.653,9.7185e-05,0
32.653,0.00011666,0
32.654,0.00012874,0
32.654,0.00014083,0
32.655,0.00015492,0
32.655,0.00015996,0
32.656,0.00014754,0
32.657,0.00010289,0
32.657,2.3835e-05,0
32.658,-5.1026e-05,0
32.658,-9.4163e-05,0
32.659,-0.0001279,0
32.659,-0.00016667,0
32.66,-0.00020058,0
32.66,-0.0002182,0
32.661,-0.00021888,0
32.661,-0.00021535,0
32.662,-0.00021971,0
32.662,-0.00022962,0
32.663,-0.00021552,0
32.663,-0.00015543,0
32.664,-7.3518e-05,0
32.664,-4.3641e-06,0
32.665,3.8773e-05,0
32.665,6.5461e-05,0
32.666,7.9057e-05,0
32.666,9.0806e-05,0
32.667,0.00010121,0
32.667,9.1142e-05,0
32.668,8.4092e-05,0
32.668,0.0001133,0
32.669,0.00015929,0
32.669,0.00017238,0
32.67,0.00012471,0
32.671,4.8508e-05,0
32.671,-5.2033e-06,0
32.672,-3.4745e-05,0
32.672,-6.1265e-05,0
32.673,-8.1743e-05,0
32.673,-8.7114e-05,0
32.674,-6.0929e-05,0
32.674,-1.3596e-05,0
32.675,2.1988e-05,0
32.675,5.5222e-05,0
32.676,9.9199e-05,0
32.676,0.00012001,0
32.677,9.6849e-05,0
32.677,6.0929e-05,0
32.678,3.6927e-05,0
32.678,1.8631e-05,0
32.679,8.2246e-06,0
32.679,1.4939e-05,0
32.68,3.3738e-05,0
32.68,5.3544e-05,0
32.681,8.1743e-05,0
32.681,0.00011615,0
32.682,0.00013915,0
32.682,0.0001425,0
32.683,0.00013344,0
32.684,0.00012186,0
32.684,0.00011901,0
32.685,0.00012605,0
32.685,0.00011246,0
32.686,5.3208e-05,0
32.686,-5.0355e-07,0
32.687,-1.2253e-05,0
32.687,-4.6998e-06,0
32.688,-5.539e-06,0
32.688,-1.6953e-05,0
32.689,-3.8102e-05,0
32.689,-5.4719e-05,0
32.69,-5.5222e-05,0
32.69,-4.1123e-05,0
32.691,-9.5674e-06,0
32.691,1.7288e-05,0
32.692,2.1653e-05,0
32.692,2.031e-05,0
32.693,2.4338e-05,0
32.693,2.9038e-05,0
32.694,3.592e-05,0
32.694,3.9445e-05,0
32.695,3.8773e-05,0
32.695,3.592e-05,0
32.696,3.1388e-05,0
32.696,2.9709e-05,0
32.697,2.8031e-05,0
32.698,2.4674e-05,0
32.698,2.4674e-05,0
32.699,2.9038e-05,0
32.699,2.6017e-05,0
32.7,1.6617e-05,0
32.7,1.4771e-05,0
32.701,2.4002e-05,0
32.701,4.0787e-05,0
32.702,4.9516e-05,0
32.702,4.5823e-05,0
32.703,4.2634e-05,0
32.703,4.062e-05,0
32.704,3.5416e-05,0
32.704,2.7863e-05,0
32.705,1.8631e-05,0
32.705,1.0575e-05,0
32.706,8.3925e-07,0
32.706,-1.3596e-05,0
32.707,-2.8534e-05,0
32.707,-3.3738e-05,0
32.708,-3.3234e-05,0
32.708,-2.5849e-05,0
32.709,-1.6281e-05,0
32.709,-1.091e-05,0
32.71,-1.6785e-05,0
32.711,-2.7359e-05,0
32.711,-2.4506e-05,0
32.712,-1.0239e-05,0
32.712,-2.6856e-06,0
32.713,-1.7288e-05,0
32.713,-4.1123e-05,0
32.714,-5.3208e-05,0
32.714,-4.5823e-05,0
32.715,-2.0478e-05,0
32.715,5.2033e-06,0
32.716,3.6423e-05,0
32.716,7.57e-05,0
32.717,0.00010323,0
32.717,0.00010188,0
32.718,8.7617e-05,0
32.718,7.7211e-05,0
32.719,7.7379e-05,0
32.719,8.7785e-05,0
32.72,9.3828e-05,0
32.72,7.8721e-05,0
32.721,6.6636e-05,0
32.721,8.1407e-05,0
32.722,0.00010256,0
32.722,0.00010558,0
32.723,9.0135e-05,0
32.723,6.2943e-05,0
32.724,3.1052e-05,0
32.725,4.8676e-06,0
32.725,-9.2317e-06,0
32.726,-1.2589e-05,0
32.726,-1.8296e-05,0
32.727,-1.9638e-05,0
32.727,-1.4939e-05,0
32.728,-1.4939e-05,0
32.728,-4.1962e-06,0
32.729,1.9806e-05,0
32.729,3.5416e-05,0
32.73,2.7527e-05,0
32.73,-2.1317e-05,0
32.731,-8.8121e-05,0
32.731,-0.00011733,0
32.732,-6.6468e-05,0
32.732,3.5752e-05,0
32.733,0.00010491,0
32.733,0.00010155,0
32.734,5.1698e-05,0
32.734,-7.8889e-06,0
32.735,-5.6901e-05,0
32.735,-9.8192e-05,0
32.736,-0.00012908,0
32.736,-0.00013629,0
32.737,-0.00011968,0
32.737,-8.1071e-05,0
32.738,-2.7192e-05,0
32.739,1.2421e-05,0
32.739,1.9974e-05,0
32.74,1.3931e-05,0
32.74,1.0071e-05,0
32.741,4.1962e-06,0
32.741,3.1891e-06,0
32.742,2.1317e-05,0
32.742,4.4144e-05,0
32.743,5.1026e-05,0
32.743,4.448e-05,0
32.744,3.4073e-05,0
32.744,2.1653e-05,0
32.745,1.7624e-05,0
32.745,2.1653e-05,0
32.746,3.1388e-05,0
32.746,3.6088e-05,0
32.747,2.7863e-05,0
32.747,2.4338e-05,0
32.748,3.4577e-05,0
32.748,4.5823e-05,0
32.749,5.5558e-05,0
32.749,6.2776e-05,0
32.75,6.4958e-05,0
32.75,6.6972e-05,0
32.751,7.7379e-05,0
32.752,9.4499e-05,0
32.752,0.00012052,0
32.753,0.00014586,0
32.753,0.00015694,0
32.754,0.00015694,0
32.754,0.00015274,0
32.755,0.00013948,0
32.755,0.00011901,0
32.756,0.00010491,0
32.756,9.4163e-05,0
32.757,7.5029e-05,0
32.757,3.5248e-05,0
32.758,-2.0142e-05,0
32.758,-6.6133e-05,0
32.759,-9.0639e-05,0
32.759,-9.7856e-05,0
32.76,-0.0001044,0
32.76,-0.00011498,0
32.761,-0.00011968,0
32.761,-0.00011028,0
32.762,-9.8192e-05,0
32.762,-0.00010491,0
32.763,-0.0001284,0
32.763,-0.00013999,0
32.764,-0.00011397,0
32.764,-6.2776e-05,0
32.765,-2.5177e-05,0
32.766,-7.5532e-06,0
32.766,2.652e-05,0
32.767,7.6707e-05,0
32.767,0.00011582,0
32.768,0.00013344,0
32.768,0.0001133,0
32.769,2.9877e-05,0
32.769,-7.2511e-05,0
32.77,-9.5842e-05,0
32.77,-4.8341e-05,0
32.771,-1.326e-05,0
32.771,2.182e-06,0
32.772,3.5416e-05,0
32.772,7.3518e-05,0
32.773,8.7617e-05,0
32.773,8.4428e-05,0
32.774,7.5364e-05,0
32.774,6.5293e-05,0
32.775,5.8412e-05,0
32.775,5.6901e-05,0
32.776,6.0929e-05,0
32.776,7.4693e-05,0
32.777,9.2485e-05,0
32.777,0.00011397,0
32.778,0.00015358,0
32.779,0.00020511,0
32.779,0.00024221,0
32.78,0.00025295,0
32.78,0.00022878,0
32.781,0.0001754,0
32.781,9.366e-05,0
32.782,-3.827e-05,0
32.782,-0.00018715,0
32.783,-0.00028132,0
32.783,-0.00027695,0
32.784,-0.0001942,0
32.784,-8.9799e-05,0
32.785,-1.1749e-05,0
32.785,2.7192e-05,0
32.786,5.2201e-05,0
32.786,8.0232e-05,0
32.787,0.00010423,0
32.787,0.00010927,0
32.788,0.00010121,0
32.788,9.6345e-05,0
32.789,9.6513e-05,0
32.789,9.2988e-05,0
32.79,7.8721e-05,0
32.79,5.9754e-05,0
32.791,3.9109e-05,0
32.791,1.5274e-05,0
32.792,-8.2246e-06,0
32.793,-2.2492e-05,0
32.793,-3.0381e-05,0
32.794,-3.508e-05,0
32.794,-3.1724e-05,0
32.795,-8.5603e-06,0
32.795,2.5177e-05,0
32.796,4.3305e-05,0
32.796,3.3402e-05,0
32.797,4.6998e-06,0
32.797,-1.7288e-05,0
32.798,-1.3931e-05,0
32.798,1.4267e-05,0
32.799,4.9516e-05,0
32.799,6.9657e-05,0
32.8,7.3182e-05,0
32.8,6.5797e-05,0
32.801,5.5558e-05,0
32.801,4.8173e-05,0
32.802,3.9445e-05,0
32.802,2.4002e-05,0
32.803,-2.5177e-06,0
32.803,-1.6281e-05,0
32.804,-5.539e-06,0
32.804,2.8534e-06,0
32.805,-1.6281e-05,0
32.806,-5.9419e-05,0
32.806,-9.9535e-05,0
32.807,-0.0001368,0
32.807,-0.00018933,0
32.808,-0.00022324,0
32.808,-0.00018782,0
32.809,-0.00011044,0
32.809,-5.0858e-05,0
32.81,-1.9974e-05,0
32.81,-8.2246e-06,0
32.811,8.7282e-06,0
32.811,3.3402e-05,0
32.812,5.4047e-05,0
32.812,6.5126e-05,0
32.813,6.4118e-05,0
32.813,5.5726e-05,0
32.814,5.304e-05,0
32.814,6.0929e-05,0
32.815,7.805e-05,0
32.815,9.2485e-05,0
32.816,9.9031e-05,0
32.816,0.00010961,0
32.817,0.00012203,0
32.817,0.00012035,0
32.818,0.00010138,0
32.819,5.5894e-05,0
32.819,-8.2246e-06,0
32.82,-4.3977e-05,0
32.82,-3.0381e-05,0
32.821,-7.5532e-06,0
32.821,8.2246e-06,0
32.822,3.1724e-05,0
32.822,6.7643e-05,0
32.823,9.9535e-05,0
32.823,0.00011934,0
32.824,0.00012203,0
32.824,0.00010457,0
32.825,7.8721e-05,0
32.825,5.7572e-05,0
32.826,3.2731e-05,0
32.826,-1.4267e-05,0
32.827,-7.2007e-05,0
32.827,-0.00011783,0
32.828,-0.00012589,0
32.828,-6.479e-05,0
32.829,3.1724e-05,0
32.829,8.5771e-05,0
32.83,7.9728e-05,0
32.83,5.0523e-05,0
32.831,3.0213e-05,0
32.831,2.5345e-05,0
32.832,2.8702e-05,0
32.833,2.4002e-05,0
32.833,4.1962e-06,0
32.834,-2.7192e-05,0
32.834,-7.1672e-05,0
32.835,-0.00011128,0
32.835,-0.00010994,0
32.836,-5.9922e-05,0
32.836,-1.3428e-06,0
32.837,3.0045e-05,0
32.837,4.2802e-05,0
32.838,5.8412e-05,0
32.838,7.7546e-05,0
32.839,0.00010323,0
32.839,0.00013915,0
32.84,0.00016701,0
32.84,0.00017137,0
32.841,0.00015627,0
32.841,0.0001331,0
32.842,0.00010323,0
32.842,5.4047e-05,0
32.843,-1.091e-05,0
32.843,-6.7475e-05,0
32.844,-0.00011313,0
32.844,-0.0001279,0
32.845,-9.2821e-05,0
32.846,-3.7766e-05,0
32.846,4.3641e-06,0
32.847,2.887e-05,0
32.847,3.3234e-05,0
32.848,2.266e-05,0
32.848,1.3764e-05,0
32.849,2.3331e-05,0
32.849,4.918e-05,0
32.85,7.805e-05,0
32.85,0.00010423,0
32.851,0.00013126,0
32.851,0.00015895,0
32.852,0.00017372,0
32.852,0.00016902,0
32.853,0.00015459,0
32.853,0.00012538,0
32.854,8.6275e-05,0
32.854,4.4144e-05,0
32.855,-1.2589e-05,0
32.855,-8.2414e-05,0
32.856,-0.00012136,0
32.856,-0.00010272,0
32.857,-6.8315e-05,0
32.857,-5.3208e-05,0
32.858,-4.6494e-05,0
32.858,-4.7501e-05,0
32.859,-5.8244e-05,0
32.86,-6.5293e-05,0
32.86,-5.4383e-05,0
32.861,-2.9709e-05,0
32.861,-1.2589e-05,0
32.862,-5.539e-06,0
32.862,-1.0239e-05,0
32.863,-2.6017e-05,0
32.863,-3.9948e-05,0
32.864,-4.9012e-05,0
32.864,-5.5558e-05,0
32.865,-5.5558e-05,0
32.865,-4.7166e-05,0
32.866,-4.3137e-05,0
32.866,-4.5991e-05,0
32.867,-4.6159e-05,0
32.867,-4.8005e-05,0
32.868,-4.6159e-05,0
32.868,-2.501e-05,0
32.869,-1.3428e-06,0
32.869,6.0426e-06,0
32.87,1.1749e-05,0
32.87,3.508e-05,0
32.871,6.2272e-05,0
32.871,7.1336e-05,0
32.872,6.1433e-05,0
32.873,6.2943e-05,0
32.873,9.1478e-05,0
32.874,0.00012404,0
32.874,0.00014083,0
32.875,0.00015795,0
32.875,0.00020226,0
32.876,0.00025463,0
32.876,0.00027175,0
32.877,0.00023801,0
32.877,0.00014888,0
32.878,2.7863e-05,0
32.878,-8.8457e-05,0
32.879,-0.00016902,0
32.879,-0.0001848,0
32.88,-0.00014066,0
32.88,-7.6875e-05,0
32.881,-3.1052e-05,0
32.881,-1.7624e-05,0
32.882,-2.501e-05,0
32.882,-2.4002e-05,0
32.883,-1.6785e-07,0
32.883,3.4745e-05,0
32.884,6.5126e-05,0
32.884,7.9057e-05,0
32.885,7.1e-05,0
32.885,5.6901e-05,0
32.886,5.9251e-05,0
32.887,7.3518e-05,0
32.887,8.3757e-05,0
32.888,9.0135e-05,0
32.888,8.4428e-05,0
32.889,7.3686e-05,0
32.889,6.1936e-05,0
32.89,3.7766e-05,0
32.89,7.8889e-06,0
32.891,-1.6953e-05,0
32.891,-4.4312e-05,0
32.892,-7.2679e-05,0
32.892,-9.2149e-05,0
32.893,-9.752e-05,0
32.893,-8.3757e-05,0
32.894,-5.623e-05,0
32.894,-3.1724e-05,0
32.895,-1.7792e-05,0
32.895,-8.3925e-07,0
32.896,7.7211e-06,0
32.896,-5.0355e-06,0
32.897,-1.3931e-05,0
32.897,1.3931e-05,0
32.898,6.0929e-05,0
32.898,7.6371e-05,0
32.899,4.6662e-05,0
32.9,0,0
32.9,-2.1149e-05,0
32.901,3.8605e-06,0
32.901,4.9516e-05,0
32.902,6.865e-05,0
32.902,4.8508e-05,0
32.903,1.9303e-05,0
32.903,1.9303e-05,0
32.904,5.2201e-05,0
32.904,7.805e-05,0
32.905,6.9657e-05,0
32.905,4.6662e-05,0
32.906,4.6159e-05,0
32.906,6.5629e-05,0
32.907,8.1743e-05,0
32.907,8.3085e-05,0
32.908,7.5029e-05,0
32.908,6.7979e-05,0
32.909,5.8244e-05,0
32.909,4.8173e-05,0
32.91,4.3641e-05,0
32.91,4.3137e-05,0
32.911,4.1459e-05,0
32.911,3.9948e-05,0
32.912,4.4816e-05,0
32.912,5.304e-05,0
32.913,5.4215e-05,0
32.914,5.069e-05,0
32.914,4.8173e-05,0
32.915,5.0187e-05,0
32.915,5.1865e-05,0
32.916,5.8244e-05,0
32.916,6.6636e-05,0
32.917,6.5965e-05,0
32.917,4.1962e-05,0
32.918,-2.8534e-06,0
32.918,-5.0523e-05,0
32.919,-9.2149e-05,0
32.919,-0.00010877,0
32.92,-7.8721e-05,0
32.92,-1.4267e-05,0
32.921,4.2802e-05,0
32.921,6.8986e-05,0
32.922,6.4286e-05,0
32.922,4.2802e-05,0
32.923,1.4267e-05,0
32.923,-2.1653e-05,0
32.924,-5.4719e-05,0
32.924,-6.3447e-05,0
32.925,-4.5487e-05,0
32.925,-2.4338e-05,0
32.926,-2.5681e-05,0
32.926,-4.0452e-05,0
32.927,-4.5319e-05,0
32.928,-3.5416e-05,0
32.928,-9.3996e-06,0
32.929,1.5778e-05,0
32.929,3.0884e-05,0
32.93,4.1627e-05,0
32.93,5.3712e-05,0
32.931,6.3615e-05,0
32.931,6.3279e-05,0
32.932,6.4286e-05,0
32.932,7.2679e-05,0
32.933,7.6875e-05,0
32.933,7.5196e-05,0
32.934,7.0329e-05,0
32.934,5.2537e-05,0
32.935,3.0884e-05,0
32.935,2.5681e-05,0
32.936,2.887e-05,0
32.936,2.6352e-05,0
32.937,2.1317e-05,0
32.937,1.8799e-05,0
32.938,1.9303e-05,0
32.938,1.0071e-05,0
32.939,-9.2317e-06,0
32.939,-2.0981e-05,0
32.94,-1.0575e-05,0
32.941,9.5674e-06,0
32.941,2.7359e-05,0
32.942,3.3066e-05,0
32.942,3.1891e-06,0
32.943,-5.2033e-05,0
32.943,-0.00011179,0
32.944,-0.00017523,0
32.944,-0.00020964,0
32.945,-0.00018463,0
32.945,-0.00011548,0
32.946,-4.3137e-05,0
32.946,-7.0497e-06,0
32.947,-4.8676e-06,0
32.947,-4.5319e-06,0
32.948,5.539e-06,0
32.948,2.5681e-05,0
32.949,5.2873e-05,0
32.949,7.6707e-05,0
32.95,9.1142e-05,0
32.95,0.00010994,0
32.951,0.00014687,0
32.951,0.00018715,0
32.952,0.00021468,0
32.952,0.00022744,0
32.953,0.00023616,0
32.953,0.00024019,0
32.954,0.00022055,0
32.955,0.00016063,0
32.955,7.6204e-05,0
32.956,-7.0497e-06,0
32.956,-7.805e-05,0
32.957,-0.00015912,0
32.957,-0.00024288,0
32.958,-0.0002741,0
32.958,-0.00024204,0
32.959,-0.00019219,0
32.959,-0.00015744,0
32.96,-0.00012924,0
32.96,-8.9464e-05,0
32.961,-3.0716e-05,0
32.961,1.6281e-05,0
32.962,3.1891e-05,0
32.962,2.9709e-05,0
32.963,4.0452e-05,0
32.963,7.9393e-05,0
32.964,0.00013109,0
32.964,0.00016214,0
32.965,0.00015073,0
32.965,0.00011397,0
32.966,8.1743e-05,0
32.966,5.2033e-05,0
32.967,2.1988e-05,0
32.968,2.4674e-05,0
32.968,7.2343e-05,0
32.969,0.00013613,0
32.969,0.00017607,0
32.97,0.00017221,0
32.97,0.00012924,0
32.971,6.5629e-05,0
32.971,5.539e-06,0
32.972,-5.2705e-05,0
32.972,-0.00011749,0
32.973,-0.00017775,0
32.973,-0.00018766,0
32.974,-0.00011716,0
32.974,-1.1246e-05,0
32.975,5.6062e-05,0
32.975,7.2343e-05,0
32.976,7.1504e-05,0
32.976,8.1575e-05,0
32.977,0.00010004,0
32.977,0.00011464,0
32.978,0.00012471,0
32.978,0.00013176,0
32.979,0.00013562,0
32.979,0.00014267,0
32.98,0.00015358,0
32.98,0.00015727,0
32.981,0.0001467,0
32.982,0.0001185,0
32.982,7.1672e-05,0
32.983,5.2033e-06,0
32.983,-7.2175e-05,0
32.984,-0.00014553,0
32.984,-0.00017876,0
32.985,-0.00014603,0
32.985,-8.9799e-05,0
32.986,-5.9922e-05,0
32.986,-5.6565e-05,0
32.987,-4.6494e-05,0
32.987,-1.5946e-05,0
32.988,1.7288e-05,0
32.988,3.3402e-05,0
32.989,3.0549e-05,0
32.989,2.9374e-05,0
32.99,4.448e-05,0
32.99,5.069e-05,0
32.991,3.1724e-05,0
32.991,2.1988e-05,0
32.992,2.2324e-05,0
32.992,-2.182e-06,0
32.993,-5.388e-05,0
32.993,-9.1142e-05,0
32.994,-0.00010289,0
32.995,-0.00011632,0
32.995,-0.00012068,0
32.996,-9.8863e-05,0
32.996,-5.7069e-05,0
32.997,-7.0497e-06,0
32.997,3.8605e-05,0
32.998,6.0929e-05,0
32.998,6.7643e-05,0
32.999,7.9728e-05,0
32.999,9.752e-05,0
33,0.00010994,0
33,0.00011112,0
33.001,9.9535e-05,0
33.001,8.7617e-05,0
33.002,8.4932e-05,0
33.002,9.3492e-05,0
33.003,0.00010256,0
33.003,0.00011128,0
33.004,0.000118,0
33.004,0.00013092,0
33.005,0.00014922,0
33.005,0.00015761,0
33.006,0.00014754,0
33.006,0.00012001,0
33.007,7.4189e-05,0
33.008,2.8702e-05,0
33.008,9.7353e-06,0
33.009,1.7121e-05,0
33.009,2.6688e-05,0
33.01,3.8437e-05,0
33.01,5.0187e-05,0
33.011,4.0787e-05,0
33.011,1.5106e-06,0
33.012,-4.8508e-05,0
33.012,-8.896e-05,0
33.013,-0.00011733,0
33.013,-0.00013243,0
33.014,-0.00013059,0
33.014,-0.00011733,0
33.015,-9.5506e-05,0
33.015,-7.0665e-05,0
33.016,-4.9851e-05,0
33.016,-3.6088e-05,0
33.017,-2.5177e-05,0
33.017,-6.2104e-06,0
33.018,1.7792e-05,0
33.018,3.0716e-05,0
33.019,3.978e-05,0
33.019,5.3544e-05,0
33.02,6.9322e-05,0
33.02,8.04e-05,0
33.021,8.04e-05,0
33.022,8.2078e-05,0
33.022,0.00010172,0
33.023,0.00011733,0
33.023,0.0001091,0
33.024,0.00010423,0
33.024,0.00011061,0
33.025,0.00011598,0
33.025,0.00010004,0
33.026,3.8941e-05,0
33.026,-4.0284e-05,0
33.027,-7.2343e-05,0
33.027,-6.6804e-05,0
33.028,-7.7043e-05,0
33.028,-0.0001039,0
33.029,-0.00011901,0
33.029,-8.3589e-05,0
33.03,1.3428e-06,0
33.03,7.4861e-05,0
33.031,0.00010155,0
33.031,9.9535e-05,0
33.032,7.3182e-05,0
33.032,1.0575e-05,0
33.033,-5.6565e-05,0
33.033,-9.1478e-05,0
33.034,-9.2485e-05,0
33.035,-9.8192e-05,0
33.035,-0.00012941,0
33.036,-0.00014871,0
33.036,-0.00012035,0
33.037,-7.2007e-05,0
33.037,-3.7263e-05,0
33.038,-1.4267e-05,0
33.038,4.8676e-06,0
33.039,3.0045e-05,0
33.039,6.1936e-05,0
33.04,8.8457e-05,0
33.04,0.00010658,0
33.041,0.00011464,0
33.041,0.00011044,0
33.042,0.00010491,0
33.042,0.00010054,0
33.043,9.6513e-05,0
33.043,8.896e-05,0
33.044,7.1e-05,0
33.044,5.4719e-05,0
33.045,5.1865e-05,0
33.045,5.4887e-05,0
33.046,4.9348e-05,0
33.046,4.1794e-05,0
33.047,4.2802e-05,0
33.047,5.0858e-05,0
33.048,5.1865e-05,0
33.049,3.6255e-05,0
33.049,1.4435e-05,0
33.05,4.6998e-06,0
33.05,7.3854e-06,0
33.051,1.8128e-05,0
33.051,3.3402e-05,0
33.052,4.9851e-05,0
33.052,6.4118e-05,0
33.053,6.63e-05,0
33.053,5.3208e-05,0
33.054,3.6591e-05,0
33.054,2.4002e-05,0
33.055,5.8747e-06,0
33.055,-1.9638e-05,0
33.056,-5.0187e-05,0
33.056,-8.3421e-05,0
33.057,-9.987e-05,0
33.057,-8.2078e-05,0
33.058,-4.7501e-05,0
33.058,-2.1988e-05,0
33.059,-1.0575e-05,0
33.059,-1.5106e-06,0
33.06,1.091e-05,0
33.06,2.6017e-05,0
33.061,3.3738e-05,0
33.062,2.8702e-05,0
33.062,1.326e-05,0
33.063,6.0426e-06,0
33.063,1.8967e-05,0
33.064,3.4409e-05,0
33.064,3.8773e-05,0
33.065,3.743e-05,0
33.065,3.7095e-05,0
33.066,4.1123e-05,0
33.066,4.9348e-05,0
33.067,5.4215e-05,0
33.067,5.3712e-05,0
33.068,5.5558e-05,0
33.068,5.6565e-05,0
33.069,5.3544e-05,0
33.069,5.2201e-05,0
33.07,4.6159e-05,0
33.07,3.5752e-05,0
33.071,2.6184e-05,0
33.071,2.0813e-05,0
33.072,1.8296e-05,0
33.072,1.4099e-05,0
33.073,9.0639e-06,0
33.073,4.5319e-06,0
33.074,5.8747e-06,0
33.074,1.5106e-05,0
33.075,3.1388e-05,0
33.076,5.0858e-05,0
33.076,6.9154e-05,0
33.077,8.7785e-05,0
33.077,0.00010692,0
33.078,0.00012723,0
33.078,0.00014754,0
33.079,0.0001603,0
33.079,0.00015291,0
33.08,0.00011531,0
33.08,4.7166e-05,0
33.081,-7.3854e-06,0
33.081,-2.5177e-05,0
33.082,-4.7837e-05,0
33.082,-9.1142e-05,0
33.083,-0.0001232,0
33.083,-0.00013008,0
33.084,-0.00011984,0
33.084,-8.4764e-05,0
33.085,-3.0716e-05,0
33.085,7.5532e-06,0
33.086,1.4603e-05,0
33.086,1.3931e-05,0
33.087,2.1988e-05,0
33.087,1.6953e-05,0
33.088,-1.7624e-05,0
33.089,-4.9851e-05,0
33.089,-4.9516e-05,0
33.09,-2.8367e-05,0
33.09,-1.091e-05,0
33.091,3.5248e-06,0
33.091,9.2317e-06,0
33.092,-7.7211e-06,0
33.092,-3.8102e-05,0
33.093,-5.4551e-05,0
33.093,-5.4047e-05,0
33.094,-3.508e-05,0
33.094,2.0142e-05,0
33.095,8.2078e-05,0
33.095,0.0001086,0
33.096,9.7688e-05,0
33.096,6.6468e-05,0
33.097,3.8102e-05,0
33.097,2.2995e-05,0
33.098,1.6281e-05,0
33.098,1.4939e-05,0
33.099,1.796e-05,0
33.099,2.3331e-05,0
33.1,3.3738e-05,0
33.1,5.4887e-05,0
33.101,7.7546e-05,0
33.101,9.2485e-05,0
33.102,0.00010289,0
33.103,0.00010726,0
33.103,0.00010256,0
33.104,9.0471e-05,0
33.104,7.1672e-05,0
33.105,5.3208e-05,0
33.105,4.1459e-05,0
33.106,3.0549e-05,0
33.106,8.896e-06,0
33.107,-1.9638e-05,0
33.107,-3.122e-05,0
33.108,-1.7288e-05,0
33.108,7.2175e-06,0
33.109,3.8773e-05,0
33.109,8.1743e-05,0
33.11,0.00011296,0
33.11,0.00012236,0
33.111,0.00011347,0
33.111,8.8624e-05,0
33.112,5.9586e-05,0
33.112,3.8773e-05,0
33.113,3.2059e-05,0
33.113,3.978e-05,0
33.114,5.7572e-05,0
33.114,7.6539e-05,0
33.115,7.7546e-05,0
33.115,5.4719e-05,0
33.116,8.3925e-06,0
33.117,-2.9206e-05,0
33.117,-2.9374e-05,0
33.118,-1.7121e-05,0
33.118,-1.4267e-05,0
33.119,-8.5603e-06,0
33.119,3.5248e-06,0
33.12,1.6449e-05,0
33.12,1.4603e-05,0
33.121,-1.1917e-05,0
33.121,-4.7166e-05,0
33.122,-7.1336e-05,0
33.122,-8.5603e-05,0
33.123,-9.2149e-05,0
33.123,-9.2821e-05,0
33.124,-9.9535e-05,0
33.124,-0.00011666,0
33.125,-0.00013008,0
33.125,-0.00012656,0
33.126,-0.00011514,0
33.126,-9.9199e-05,0
33.127,-7.2007e-05,0
33.127,-3.7263e-05,0
33.128,-1.1078e-05,0
33.128,0,0
33.129,1.0407e-05,0
33.13,3.1724e-05,0
33.13,5.0858e-05,0
33.131,6.1265e-05,0
33.131,6.9657e-05,0
33.132,8.0064e-05,0
33.132,8.04e-05,0
33.133,6.2608e-05,0
33.133,3.2563e-05,0
33.134,-1.0071e-06,0
33.134,-2.3163e-05,0
33.135,-2.8031e-05,0
33.135,-3.7766e-05,0
33.136,-3.6423e-05,0
33.136,-2.5177e-06,0
33.137,4.2802e-05,0
33.137,6.949e-05,0
33.138,7.2175e-05,0
33.138,6.3615e-05,0
33.139,5.5558e-05,0
33.139,5.3208e-05,0
33.14,5.4719e-05,0
33.14,5.3544e-05,0
33.141,4.9851e-05,0
33.141,4.3473e-05,0
33.142,4.3137e-05,0
33.142,5.8412e-05,0
33.143,8.2078e-05,0
33.144,0.00010591,0
33.144,0.00012706,0
33.145,0.00013999,0
33.145,0.00015023,0
33.146,0.00015795,0
33.146,0.0001472,0
33.147,0.00011699,0
33.147,8.0903e-05,0
33.148,6.0258e-05,0
33.148,5.4215e-05,0
33.149,4.6159e-05,0
33.149,7.2175e-06,0
33.15,-6.3951e-05,0
33.15,-0.00011296,0
33.151,-0.00011699,0
33.151,-0.00010692,0
33.152,-9.7017e-05,0
33.152,-6.6804e-05,0
33.153,-2.2324e-05,0
33.153,-4.1962e-06,0
33.154,-1.7121e-05,0
33.154,-2.7695e-05,0
33.155,-1.4435e-05,0
33.155,1.561e-05,0
33.156,3.7095e-05,0
33.157,4.4816e-05,0
33.157,5.7572e-05,0
33.158,7.4357e-05,0
33.158,8.7785e-05,0
33.159,0.00010289,0
33.159,0.000118,0
33.16,0.00012404,0
33.16,0.00012337,0
33.161,0.00010977,0
33.161,6.9657e-05,0
33.162,2.0981e-05,0
33.162,-1.2924e-05,0
33.163,-4.5823e-05,0
33.163,-8.4092e-05,0
33.164,-0.00011481,0
33.164,-0.00010541,0
33.165,-4.8173e-05,0
33.165,2.5177e-05,0
33.166,7.7546e-05,0
33.166,8.7114e-05,0
33.167,7.0665e-05,0
33.167,6.1265e-05,0
33.168,6.8482e-05,0
33.168,6.6972e-05,0
33.169,3.7095e-05,0
33.169,-2.3835e-05,0
33.17,-8.2414e-05,0
33.171,-9.4331e-05,0
33.171,-6.1601e-05,0
33.172,-3.3738e-05,0
33.172,-1.796e-05,0
33.173,-1.0071e-06,0
33.173,1.8631e-05,0
33.174,5.0858e-05,0
33.174,9.0974e-05,0
33.175,0.00011061,0
33.175,0.00011716,0
33.176,0.00012656,0
33.176,0.00012136,0
33.177,7.7211e-05,0
33.177,1.0071e-05,0
33.178,-3.5248e-05,0
33.178,-4.6159e-05,0
33.179,-3.3066e-05,0
33.179,5.7069e-06,0
33.18,6.7475e-05,0
33.18,0.00012186,0
33.181,0.00014116,0
33.181,0.00012169,0
33.182,8.3085e-05,0
33.182,4.1459e-05,0
33.183,1.1749e-06,0
33.184,-1.7624e-05,0
33.184,-5.0355e-07,0
33.185,2.5513e-05,0
33.185,2.501e-05,0
33.186,1.326e-05,0
33.186,1.0742e-05,0
33.187,1.6281e-05,0
33.187,1.5946e-05,0
33.188,4.5319e-06,0
33.188,-1.2421e-05,0
33.189,-3.4577e-05,0
33.189,-7.1336e-05,0
33.19,-0.00012337,0
33.19,-0.0001613,0
33.191,-0.00016332,0
33.191,-0.00012102,0
33.192,-5.1194e-05,0
33.192,7.8889e-06,0
33.193,5.2369e-05,0
33.193,9.2821e-05,0
33.194,0.00012337,0
33.194,0.00013411,0
33.195,0.00012303,0
33.195,8.7114e-05,0
33.196,2.2324e-05,0
33.197,-5.7404e-05,0
33.197,-0.00012001,0
33.198,-0.00013294,0
33.198,-8.5435e-05,0
33.199,-1.1917e-05,0
33.199,3.9277e-05,0
33.2,4.4144e-05,0
33.2,1.3596e-05,0
33.201,-1.6617e-05,0
33.201,-2.2324e-05,0
33.202,-2.5177e-06,0
33.202,3.3402e-05,0
33.203,6.4286e-05,0
33.203,7.57e-05,0
33.204,7.4022e-05,0
33.204,5.4215e-05,0
33.205,4.6998e-06,0
33.205,-5.1698e-05,0
33.206,-7.8721e-05,0
33.206,-7.1e-05,0
33.207,-4.4144e-05,0
33.207,-6.0426e-06,0
33.208,3.3402e-05,0
33.208,6.6636e-05,0
33.209,9.1814e-05,0
33.209,0.0001086,0
33.21,0.00010591,0
33.211,9.2485e-05,0
33.211,8.3757e-05,0
33.212,9.2485e-05,0
33.212,0.00011229,0
33.213,0.0001284,0
33.213,0.00013109,0
33.214,0.00012471,0
33.214,0.00012404,0
33.215,0.00011917,0
33.215,9.0974e-05,0
33.216,5.623e-05,0
33.216,3.5248e-05,0
33.217,1.6785e-06,0
33.217,-5.6565e-05,0
33.218,-0.0001039,0
33.218,-0.00010491,0
33.219,-8.0903e-05,0
33.219,-6.8147e-05,0
33.22,-6.63e-05,0
33.22,-4.9851e-05,0
33.221,-1.091e-05,0
33.221,2.4506e-05,0
33.222,3.8773e-05,0
33.222,4.1962e-05,0
33.223,4.4984e-05,0
33.224,4.6159e-05,0
33.224,3.5752e-05,0
33.225,1.2589e-05,0
33.225,-2.1653e-05,0
33.226,-7.0497e-05,0
33.226,-0.00010323,0
33.227,-9.6178e-05,0
33.227,-5.7404e-05,0
33.228,1.3931e-05,0
33.228,9.1814e-05,0
33.229,0.00013075,0
33.229,0.00012035,0
33.23,8.3757e-05,0
33.23,4.5487e-05,0
33.231,1.5778e-05,0
33.231,-1.6281e-05,0
33.232,-5.8076e-05,0
33.232,-0.00010843,0
33.233,-0.00013713,0
33.233,-0.00011061,0
33.234,-3.0549e-05,0
33.234,5.0858e-05,0
33.235,9.2485e-05,0
33.235,0.00010927,0
33.236,0.00011615,0
33.236,0.00010558,0
33.237,7.8553e-05,0
33.238,5.5726e-05,0
33.238,5.4383e-05,0
33.239,5.8747e-05,0
33.239,4.8508e-05,0
33.24,3.122e-05,0
33.24,1.9135e-05,0
33.241,1.5274e-05,0
33.241,2.0645e-05,0
33.242,3.9948e-05,0
33.242,6.4622e-05,0
33.243,9.0974e-05,0
33.243,0.00011766,0
33.244,0.00013797,0
33.244,0.00014586,0
33.245,0.00013075,0
33.245,8.2078e-05,0
33.246,1.0239e-05,0
33.246,-6.4622e-05,0
33.247,-0.00012941,0
33.247,-0.00016936,0
33.248,-0.00016315,0
33.248,-0.00010759,0
33.249,-2.9038e-05,0
33.249,3.2563e-05,0
33.25,6.4118e-05,0
33.251,6.8315e-05,0
33.251,5.4887e-05,0
33.252,4.8173e-05,0
33.252,6.0594e-05,0
33.253,7.5029e-05,0
33.253,7.6036e-05,0
33.254,6.4958e-05,0
33.254,5.2369e-05,0
33.255,4.5487e-05,0
33.255,4.448e-05,0
33.256,4.1794e-05,0
33.256,3.2731e-05,0
33.257,1.2253e-05,0
33.257,-1.4099e-05,0
33.258,-2.2995e-05,0
33.258,-1.9638e-05,0
33.259,-1.6449e-05,0
33.259,-7.3854e-06,0
33.26,7.5532e-06,0
33.26,1.4099e-05,0
33.261,1.2757e-05,0
33.261,1.4939e-05,0
33.262,2.4674e-05,0
33.262,3.2898e-05,0
33.263,3.4073e-05,0
33.263,3.1052e-05,0
33.264,2.9038e-05,0
33.265,2.3667e-05,0
33.265,1.3931e-05,0
33.266,7.2175e-06,0
33.266,-5.8747e-06,0
33.267,-1.4267e-05,0
33.267,-1.5106e-06,0
33.268,1.2924e-05,0
33.268,9.9031e-06,0
33.269,-7.7211e-06,0
33.269,-2.0142e-05,0
33.27,-1.3092e-05,0
33.27,9.7353e-06,0
33.271,3.9445e-05,0
33.271,7.0497e-05,0
33.272,9.4331e-05,0
33.272,0.00010289,0
33.273,9.3156e-05,0
33.273,8.7114e-05,0
33.274,9.5842e-05,0
33.274,9.752e-05,0
33.275,6.6804e-05,0
33.275,2.7024e-05,0
33.276,1.0239e-05,0
33.276,5.8747e-06,0
33.277,-2.2492e-05,0
33.278,-8.8457e-05,0
33.278,-0.00014284,0
33.279,-0.0001279,0
33.279,-5.7237e-05,0
33.28,-1.0575e-05,0
33.28,-1.6785e-07,0
33.281,1.9974e-05,0
33.281,6.5629e-05,0
33.282,0.00010927,0
33.282,0.00012203,0
33.283,0.00010726,0
33.283,9.3156e-05,0
33.284,9.0471e-05,0
33.284,7.7714e-05,0
33.285,2.0142e-05,0
33.285,-5.3544e-05,0
33.286,-6.63e-05,0
33.286,-2.0645e-05,0
33.287,3.5752e-05,0
33.287,6.5629e-05,0
33.288,6.7979e-05,0
33.288,5.3544e-05,0
33.289,2.2324e-05,0
33.289,-3.7766e-05,0
33.29,-0.00010222,0
33.29,-0.00013075,0
33.291,-0.00010826,0
33.292,-6.8986e-05,0
33.292,-4.3473e-05,0
33.293,-3.357e-05,0
33.293,-4.3137e-05,0
33.294,-5.388e-05,0
33.294,-3.8102e-05,0
33.295,-3.0213e-06,0
33.295,3.0045e-05,0
33.296,4.9516e-05,0
33.296,5.3544e-05,0
33.297,5.2873e-05,0
33.297,5.4215e-05,0
33.298,6.1601e-05,0
33.298,7.1336e-05,0
33.299,7.6875e-05,0
33.299,8.51e-05,0
33.3,9.9199e-05,0
33.3,0.00011498,0
33.301,0.00012941,0
33.301,0.00013881,0
33.302,0.00013898,0
33.302,0.00012605,0
33.303,0.00010407,0
33.303,8.3757e-05,0
33.304,7.0329e-05,0
33.304,5.8915e-05,0
33.305,4.7501e-05,0
33.306,3.0213e-05,0
33.306,5.539e-06,0
33.307,-2.1988e-05,0
33.307,-4.5823e-05,0
33.308,-6.3951e-05,0
33.308,-7.4525e-05,0
33.309,-6.7308e-05,0
33.309,-4.6662e-05,0
33.31,-3.4745e-05,0
33.31,-4.1794e-05,0
33.311,-6.0929e-05,0
33.311,-7.4022e-05,0
33.312,-6.865e-05,0
33.312,-5.0355e-05,0
33.313,-3.2059e-05,0
33.313,-1.4267e-05,0
33.314,1.6785e-06,0
33.314,1.091e-05,0
33.315,1.1749e-05,0
33.315,8.5603e-06,0
33.316,9.9031e-06,0
33.316,2.0478e-05,0
33.317,3.9109e-05,0
33.317,5.7572e-05,0
33.318,6.2608e-05,0
33.319,5.388e-05,0
33.319,4.448e-05,0
33.32,4.0452e-05,0
33.32,2.4674e-05,0
33.321,1.5106e-06,0
33.321,-9.9031e-06,0
33.322,-5.539e-06,0
33.322,3.357e-06,0
33.323,-7.8889e-06,0
33.323,-3.2731e-05,0
33.324,-4.4144e-05,0
33.324,-3.1052e-05,0
33.325,-1.1749e-05,0
33.325,4.3641e-06,0
33.326,1.7456e-05,0
33.326,3.0716e-05,0
33.327,3.7095e-05,0
33.327,3.743e-05,0
33.328,4.1459e-05,0
33.328,5.0355e-05,0
33.329,5.9922e-05,0
33.329,7.1e-05,0
33.33,9.2485e-05,0
33.33,0.00010961,0
33.331,0.00010726,0
33.331,9.7856e-05,0
33.332,9.987e-05,0
33.333,9.2485e-05,0
33.333,4.3641e-05,0
33.334,-2.7695e-05,0
33.334,-6.9154e-05,0
33.335,-5.623e-05,0
33.335,-9.7353e-06,0
33.336,1.6449e-05,0
33.336,9.2317e-06,0
33.337,3.6927e-06,0
33.337,1.5946e-05,0
33.338,3.6927e-05,0
33.338,4.683e-05,0
33.339,4.3641e-05,0
33.339,4.0116e-05,0
33.34,5.6733e-05,0
33.34,9.7017e-05,0
33.341,0.0001566,0
33.341,0.00021065,0
33.342,0.00021736,0
33.342,0.00016735,0
33.343,7.0161e-05,0
33.343,-7.6036e-05,0
33.344,-0.000236,0
33.344,-0.0003362,0
33.345,-0.0002981,0
33.346,-0.00015459,0
33.346,-1.5778e-05,0
33.347,6.5293e-05,0
33.347,9.7688e-05,0
33.348,0.00010893,0
33.348,0.00011934,0
33.349,0.00012337,0
33.349,0.00010524,0
33.35,7.4861e-05,0
33.35,5.2033e-05,0
33.351,4.1459e-05,0
33.351,4.0452e-05,0
33.352,5.4887e-05,0
33.352,7.8553e-05,0
33.353,8.6107e-05,0
33.353,8.3085e-05,0
33.354,8.1239e-05,0
33.354,7.2679e-05,0
33.355,5.4887e-05,0
33.355,2.9374e-05,0
33.356,3.357e-07,0
33.356,-1.8967e-05,0
33.357,-1.2421e-05,0
33.357,1.0407e-05,0
33.358,3.2395e-05,0
33.358,4.0787e-05,0
33.359,3.5416e-05,0
33.36,2.9541e-05,0
33.36,2.4842e-05,0
33.361,2.2324e-05,0
33.361,2.9038e-05,0
33.362,4.1291e-05,0
33.362,4.2802e-05,0
33.363,2.9877e-05,0
33.363,1.8799e-05,0
33.364,2.266e-05,0
33.364,3.4745e-05,0
33.365,3.0716e-05,0
33.365,7.8889e-06,0
33.366,-3.1891e-06,0
33.366,7.3854e-06,0
33.367,1.326e-05,0
33.367,1.6785e-06,0
33.368,-2.7695e-05,0
33.368,-6.4286e-05,0
33.369,-8.7953e-05,0
33.369,-7.8889e-05,0
33.37,-5.069e-05,0
33.37,-3.0884e-05,0
33.371,-2.9038e-05,0
33.371,-3.0045e-05,0
33.372,-2.9877e-05,0
33.373,-3.8437e-05,0
33.373,-5.4551e-05,0
33.374,-6.3279e-05,0
33.374,-5.623e-05,0
33.375,-2.5681e-05,0
33.375,2.1149e-05,0
33.376,6.63e-05,0
33.376,9.9702e-05,0
33.377,0.00011196,0
33.377,0.00010272,0
33.378,8.3421e-05,0
33.378,4.2466e-05,0
33.379,-2.2995e-05,0
33.379,-9.0135e-05,0
33.38,-0.00014267,0
33.38,-0.00015727,0
33.381,-0.00012992,0
33.381,-8.7449e-05,0
33.382,-4.8173e-05,0
33.382,-6.0426e-06,0
33.383,2.501e-05,0
33.383,4.3305e-05,0
33.384,6.949e-05,0
33.384,0.00010289,0
33.385,0.00011917,0
33.386,0.00011229,0
33.386,0.00010037,0
33.387,9.4835e-05,0
33.387,0.00010021,0
33.388,0.00010407,0
33.388,9.2988e-05,0
33.389,6.2104e-05,0
33.389,1.5778e-05,0
33.39,-2.6017e-05,0
33.39,-5.5558e-05,0
33.391,-7.0665e-05,0
33.391,-6.1936e-05,0
33.392,-2.9038e-05,0
33.392,1.1246e-05,0
33.393,4.5487e-05,0
33.393,6.7811e-05,0
33.394,7.7714e-05,0
33.394,8.0735e-05,0
33.395,7.6371e-05,0
33.395,6.6636e-05,0
33.396,5.0187e-05,0
33.396,2.4674e-05,0
33.397,-1.2757e-05,0
33.397,-4.8844e-05,0
33.398,-5.6901e-05,0
33.398,-4.1794e-05,0
33.399,-2.9709e-05,0
33.4,-2.9038e-05,0
33.4,-2.4674e-05,0
33.401,-4.0284e-06,0
33.401,2.4002e-05,0
33.402,5.3544e-05,0
33.402,7.9561e-05,0
33.403,9.0806e-05,0
33.403,9.0135e-05,0
33.404,8.0064e-05,0
33.404,7.0665e-05,0
33.405,6.479e-05,0
33.405,3.4409e-05,0
33.406,-4.1123e-05,0
33.406,-0.00011951,0
33.407,-0.00012438,0
33.407,-5.2537e-05,0
33.408,2.7359e-05,0
33.408,6.5965e-05,0
33.409,5.8412e-05,0
33.409,3.1724e-05,0
33.41,1.2253e-05,0
33.41,3.5248e-06,0
33.411,6.8818e-06,0
33.411,2.6688e-05,0
33.412,5.539e-05,0
33.413,8.8121e-05,0
33.413,0.0001279,0
33.414,0.00016164,0
33.414,0.0001707,0
33.415,0.0001462,0
33.415,9.5506e-05,0
33.416,3.5248e-05,0
33.416,-1.0071e-05,0
33.417,-3.1388e-05,0
33.417,-4.0955e-05,0
33.418,-2.7695e-05,0
33.418,3.0381e-05,0
33.419,0.00010323,0
33.419,0.0001331,0
33.42,0.0001091,0
33.42,6.1433e-05,0
33.421,2.182e-05,0
33.421,6.714e-06,0
33.422,8.896e-06,0
33.422,1.8631e-05,0
33.423,2.7024e-05,0
33.423,4.3473e-05,0
33.424,6.9322e-05,0
33.424,8.3253e-05,0
33.425,7.2343e-05,0
33.425,3.3402e-05,0
33.426,-1.5274e-05,0
33.427,-4.3977e-05,0
33.427,-5.0858e-05,0
33.428,-3.743e-05,0
33.428,-4.0284e-06,0
33.429,4.0116e-05,0
33.429,7.335e-05,0
33.43,8.3757e-05,0
33.43,7.5029e-05,0
33.431,6.1433e-05,0
33.431,4.5487e-05,0
33.432,4.0452e-05,0
33.432,4.5487e-05,0
33.433,4.3641e-05,0
33.433,3.743e-05,0
33.434,3.2059e-05,0
33.434,3.2059e-05,0
33.435,3.7263e-05,0
33.435,3.8437e-05,0
33.436,3.6759e-05,0
33.436,3.1891e-05,0
33.437,3.8605e-05,0
33.437,5.6901e-05,0
33.438,7.8386e-05,0
33.438,9.1478e-05,0
33.439,8.3925e-05,0
33.44,5.6901e-05,0
33.44,3.5416e-05,0
33.441,2.9374e-05,0
33.441,1.5946e-05,0
33.442,-5.539e-06,0
33.442,-2.0981e-05,0
33.443,-3.3402e-05,0
33.443,-5.4383e-05,0
33.444,-8.0064e-05,0
33.444,-0.00010222,0
33.445,-0.00011901,0
33.445,-0.0001326,0
33.446,-0.00013848,0
33.446,-0.00013613,0
33.447,-0.00012438,0
33.447,-0.00011196,0
33.448,-0.00010474,0
33.448,-9.8024e-05,0
33.449,-9.0806e-05,0
33.449,-8.0064e-05,0
33.45,-6.9993e-05,0
33.45,-5.9922e-05,0
33.451,-4.448e-05,0
33.451,-2.182e-05,0
33.452,-6.714e-07,0
33.452,1.0407e-05,0
33.453,1.1246e-05,0
33.454,5.8747e-06,0
33.454,3.1891e-06,0
33.455,1.1078e-05,0
33.455,7.5532e-06,0
33.456,-1.0239e-05,0
33.456,-2.5681e-05,0
33.457,-3.1052e-05,0
33.457,-1.9974e-05,0
33.458,1.1749e-06,0
33.458,1.8631e-05,0
33.459,3.6088e-05,0
33.459,5.623e-05,0
33.46,7.2343e-05,0
33.46,8.8792e-05,0
33.461,0.00010356,0
33.461,0.00010961,0
33.462,9.2317e-05,0
33.462,5.0187e-05,0
33.463,-3.8605e-06,0
33.463,-5.2537e-05,0
33.464,-5.8076e-05,0
33.464,-5.539e-06,0
33.465,6.0594e-05,0
33.465,0.00010138,0
33.466,0.00011598,0
33.467,0.0001227,0
33.467,0.0001274,0
33.468,0.0001237,0
33.468,0.0001133,0
33.469,9.8024e-05,0
33.469,8.7785e-05,0
33.47,8.4764e-05,0
33.47,7.5364e-05,0
33.471,5.8076e-05,0
33.471,4.6159e-05,0
33.472,5.4887e-05,0
33.472,8.0064e-05,0
33.473,9.5674e-05,0
33.473,9.987e-05,0
33.474,0.00011699,0
33.474,0.00013344,0
33.475,0.00013109,0
33.475,0.0001133,0
33.476,5.9419e-05,0
33.476,-7.3686e-05,0
33.477,-0.00024842,0
33.477,-0.00033318,0
33.478,-0.00024338,0
33.478,-6.6636e-05,0
33.479,4.1962e-05,0
33.479,6.6636e-05,0
33.48,8.1743e-05,0
33.481,0.00011313,0
33.481,0.00014334,0
33.482,0.0001509,0
33.482,0.00013478,0
33.483,0.00012303,0
33.483,0.00012757,0
33.484,0.00011447,0
33.484,7.7379e-05,0
33.485,4.3809e-05,0
33.485,3.5248e-06,0
33.486,-6.63e-05,0
33.486,-0.00016533,0
33.487,-0.0002365,0
33.487,-0.00020259,0
33.488,-6.9993e-05,0
33.488,6.5965e-05,0
33.489,0.00013646,0
33.489,0.00014217,0
33.49,0.00012102,0
33.49,0.00010272,0
33.491,8.9464e-05,0
33.491,7.57e-05,0
33.492,6.4286e-05,0
33.492,6.1265e-05,0
33.493,6.2943e-05,0
33.493,6.8818e-05,0
33.494,7.6371e-05,0
33.495,8.3757e-05,0
33.495,8.8121e-05,0
33.496,8.5267e-05,0
33.496,7.57e-05,0
33.497,6.4286e-05,0
33.497,5.7908e-05,0
33.498,6.4286e-05,0
33.498,7.6036e-05,0
33.499,7.4357e-05,0
33.499,5.8244e-05,0
33.5,2.8702e-05,0
33.5,-3.6927e-06,0
33.501,-2.1988e-05,0
33.501,-3.592e-05,0
33.502,-4.4816e-05,0
33.502,-4.2298e-05,0
33.503,-3.6927e-05,0
33.503,-3.7095e-05,0
33.504,-5.1698e-05,0
33.504,-7.6036e-05,0
33.505,-8.9464e-05,0
33.505,-7.7714e-05,0
33.506,-6.1936e-05,0
33.506,-6.3279e-05,0
33.507,-7.805e-05,0
33.508,-9.5171e-05,0
33.508,-0.00011666,0
33.509,-0.00012421,0
33.509,-0.00010155,0
33.51,-6.4286e-05,0
33.51,-3.4241e-05,0
33.511,-2.0981e-05,0
33.511,-1.1246e-05,0
33.512,5.7069e-06,0
33.512,2.4674e-05,0
33.513,3.6759e-05,0
33.513,3.2563e-05,0
33.514,1.7792e-05,0
33.514,1.4603e-05,0
33.515,2.9541e-05,0
33.515,4.8676e-05,0
33.516,6.5629e-05,0
33.516,7.5029e-05,0
33.517,7.1672e-05,0
33.517,6.4286e-05,0
33.518,5.6901e-05,0
33.518,3.9948e-05,0
33.519,2.6688e-05,0
33.519,2.7863e-05,0
33.52,3.3234e-05,0
33.52,3.3738e-05,0
33.521,2.6017e-05,0
33.522,-5.7069e-06,0
33.522,-6.2104e-05,0
33.523,-0.0001044,0
33.523,-0.00011095,0
33.524,-8.8792e-05,0
33.524,-5.9754e-05,0
33.525,-4.0116e-05,0
33.525,-3.2395e-05,0
33.526,-2.2324e-05,0
33.526,1.8463e-06,0
33.527,3.0716e-05,0
33.527,5.2201e-05,0
33.528,6.6972e-05,0
33.528,7.6036e-05,0
33.529,8.1071e-05,0
33.529,9.1646e-05,0
33.53,0.00011196,0
33.53,0.00014804,0
33.531,0.00019857,0
33.531,0.00023885,0
33.532,0.00025194,0
33.532,0.00023616,0
33.533,0.00019924,0
33.533,0.00014015,0
33.534,2.2492e-05,0
33.535,-0.00016231,0
33.535,-0.00029256,0
33.536,-0.00024758,0
33.536,-9.3324e-05,0
33.537,1.9806e-05,0
33.537,4.5151e-05,0
33.538,2.8702e-05,0
33.538,1.8296e-05,0
33.539,8.896e-06,0
33.539,-2.0981e-05,0
33.54,-5.5726e-05,0
33.54,-7.9057e-05,0
33.541,-8.0735e-05,0
33.541,-5.6062e-05,0
33.542,-1.8463e-05,0
33.542,2.0142e-05,0
33.543,6.6972e-05,0
33.543,0.00010776,0
33.544,0.00012303,0
33.544,0.00012773,0
33.545,0.0001321,0
33.545,0.00013075,0
33.546,0.00012236,0
33.546,0.00010105,0
33.547,7.4357e-05,0
33.547,5.623e-05,0
33.548,5.304e-05,0
33.549,4.213e-05,0
33.549,-3.6927e-06,0
33.55,-7.5364e-05,0
33.55,-0.00011447,0
33.551,-7.6539e-05,0
33.551,1.3428e-06,0
33.552,6.0258e-05,0
33.552,8.3757e-05,0
33.553,8.4092e-05,0
33.553,8.0064e-05,0
33.554,7.4357e-05,0
33.554,6.4958e-05,0
33.555,5.4719e-05,0
33.555,4.6494e-05,0
33.556,3.7934e-05,0
33.556,2.1149e-05,0
33.557,3.5248e-06,0
33.557,-4.8676e-06,0
33.558,3.8605e-06,0
33.558,3.2898e-05,0
33.559,6.63e-05,0
33.559,8.3925e-05,0
33.56,8.4092e-05,0
33.56,8.1575e-05,0
33.561,7.9057e-05,0
33.562,6.8482e-05,0
33.562,5.3544e-05,0
33.563,4.062e-05,0
33.563,1.8967e-05,0
33.564,-5.539e-06,0
33.564,-2.3331e-05,0
33.565,-2.4002e-05,0
33.565,-6.2104e-06,0
33.566,4.8676e-06,0
33.566,-2.5177e-06,0
33.567,-1.091e-05,0
33.567,-1.0575e-05,0
33.568,-8.0568e-06,0
33.568,-1.1246e-05,0
33.569,-1.4939e-05,0
33.569,-8.5603e-06,0
33.57,1.0071e-06,0
33.57,6.8818e-06,0
33.571,1.4267e-05,0
33.571,2.5681e-05,0
33.572,3.0716e-05,0
33.572,2.5177e-05,0
33.573,1.7624e-05,0
33.573,2.266e-05,0
33.574,3.8773e-05,0
33.575,4.9516e-05,0
33.575,4.9851e-05,0
33.576,4.5151e-05,0
33.576,4.3977e-05,0
33.577,4.4816e-05,0
33.577,3.8773e-05,0
33.578,2.6352e-05,0
33.578,1.1917e-05,0
33.579,1.5106e-06,0
33.579,-1.0575e-05,0
33.58,-3.7598e-05,0
33.58,-5.9251e-05,0
33.581,-6.4622e-05,0
33.581,-6.2776e-05,0
33.582,-5.0858e-05,0
33.582,-2.0981e-05,0
33.583,1.2924e-05,0
33.583,3.122e-05,0
33.584,3.3402e-05,0
33.584,2.2492e-05,0
33.585,3.5248e-06,0
33.585,-1.4603e-05,0
33.586,-2.7192e-05,0
33.586,-3.5752e-05,0
33.587,-4.0452e-05,0
33.587,-3.5752e-05,0
33.588,-2.5513e-05,0
33.589,-1.2589e-05,0
33.589,1.0071e-06,0
33.59,1.4771e-05,0
33.59,2.5345e-05,0
33.591,2.0981e-05,0
33.591,-1.3092e-05,0
33.592,-5.388e-05,0
33.592,-5.7237e-05,0
33.593,-5.0858e-05,0
33.593,-6.3951e-05,0
33.594,-7.1672e-05,0
33.594,-7.9057e-05,0
33.595,-6.8147e-05,0
33.595,-7.5532e-06,0
33.596,4.8844e-05,0
33.596,2.5849e-05,0
33.597,-5.1698e-05,0
33.597,-9.6849e-05,0
33.598,-8.8121e-05,0
33.598,-5.7572e-05,0
33.599,-8.5603e-06,0
33.599,5.1362e-05,0
33.6,0.00010021,0
33.6,0.00011666,0
33.601,0.00011447,0
33.602,0.00012605,0
33.602,0.0001519,0
33.603,0.00016902,0
33.603,0.00015996,0
33.604,0.0001274,0
33.604,0.00010105,0
33.605,9.2988e-05,0
33.605,7.805e-05,0
33.606,5.0019e-05,0
33.606,3.4073e-05,0
33.607,3.1724e-05,0
33.607,3.6255e-05,0
33.608,5.153e-05,0
33.608,7.1e-05,0
33.609,8.2582e-05,0
33.609,8.6778e-05,0
33.61,8.3421e-05,0
33.61,7.6036e-05,0
33.611,6.2272e-05,0
33.611,4.3473e-05,0
33.612,3.2563e-05,0
33.612,2.5681e-05,0
33.613,1.3596e-05,0
33.613,1.2253e-05,0
33.614,2.5849e-05,0
33.614,4.1459e-05,0
33.615,5.6901e-05,0
33.616,6.9657e-05,0
33.616,6.6804e-05,0
33.617,4.5823e-05,0
33.617,1.8296e-05,0
33.618,3.8605e-06,0
33.618,1.5106e-06,0
33.619,4.5319e-06,0
33.619,1.4603e-05,0
33.62,2.9038e-05,0
33.62,3.9109e-05,0
33.621,3.1724e-05,0
33.621,4.1962e-06,0
33.622,-1.796e-05,0
33.622,-1.6617e-05,0
33.623,5.0355e-07,0
33.623,1.0575e-05,0
33.624,4.6998e-06,0
33.624,-2.6856e-06,0
33.625,1.6785e-07,0
33.625,7.2175e-06,0
33.626,1.0575e-05,0
33.626,1.2253e-05,0
33.627,1.1917e-05,0
33.627,9.2317e-06,0
33.628,1.0239e-05,0
33.629,1.3931e-05,0
33.629,2.1988e-05,0
33.63,3.2395e-05,0
33.63,3.6927e-05,0
33.631,2.7695e-05,0
33.631,1.9974e-05,0
33.632,2.4674e-05,0
33.632,3.5752e-05,0
33.633,4.3809e-05,0
33.633,4.8173e-05,0
33.634,5.5894e-05,0
33.634,6.2608e-05,0
33.635,5.7237e-05,0
33.635,4.4144e-05,0
33.636,3.4241e-05,0
33.636,1.6617e-05,0
33.637,-6.0426e-06,0
33.637,-2.2995e-05,0
33.638,-3.8773e-05,0
33.638,-4.8341e-05,0
33.639,-4.5991e-05,0
33.639,-4.3137e-05,0
33.64,-3.8605e-05,0
33.64,-2.9374e-05,0
33.641,-1.7288e-05,0
33.641,-1.2589e-05,0
33.642,-9.5674e-06,0
33.643,1.1749e-06,0
33.643,1.7456e-05,0
33.644,3.1556e-05,0
33.644,3.978e-05,0
33.645,5.3544e-05,0
33.645,7.7714e-05,0
33.646,9.6513e-05,0
33.646,0.00011514,0
33.647,0.00013327,0
33.647,0.00014284,0
33.648,0.00013881,0
33.648,0.00011229,0
33.649,7.1672e-05,0
33.649,4.4816e-05,0
33.65,2.8031e-05,0
33.65,-1.326e-05,0
33.651,-8.7449e-05,0
33.651,-0.000165,0
33.652,-0.00021149,0
33.652,-0.00021334,0
33.653,-0.00018849,0
33.653,-0.00015996,0
33.654,-0.00012337,0
33.654,-6.865e-05,0
33.655,-2.182e-06,0
33.656,5.9419e-05,0
33.656,9.2485e-05,0
33.657,0.00010256,0
33.657,9.5171e-05,0
33.658,5.3208e-05,0
33.658,1.1582e-05,0
33.659,2.5177e-05,0
33.659,7.9393e-05,0
33.66,0.00010977,0
33.66,8.51e-05,0
33.661,1.2924e-05,0
33.661,-7.4861e-05,0
33.662,-0.0001274,0
33.662,-0.00011162,0
33.663,-6.2943e-05,0
33.663,-3.2731e-05,0
33.664,-1.7624e-05,0
33.664,-6.5461e-06,0
33.665,-7.2175e-06,0
33.665,-2.0478e-05,0
33.666,-3.1724e-05,0
33.666,-2.1485e-05,0
33.667,9.2317e-06,0
33.667,4.8173e-05,0
33.668,9.1981e-05,0
33.668,0.00012572,0
33.669,0.00013948,0
33.67,0.00014083,0
33.67,0.00013143,0
33.671,0.00012068,0
33.671,0.00010977,0
33.672,9.3492e-05,0
33.672,7.6371e-05,0
33.673,6.7643e-05,0
33.673,7.0497e-05,0
33.674,7.4022e-05,0
33.674,7.8553e-05,0
33.675,9.6513e-05,0
33.675,0.00012068,0
33.676,0.00013176,0
33.676,0.0001274,0
33.677,0.00012505,0
33.677,0.00012119,0
33.678,6.3951e-05,0
33.678,-5.1194e-05,0
33.679,-0.00013881,0
33.679,-0.00015023,0
33.68,-0.0001138,0
33.68,-6.3111e-05,0
33.681,-1.9974e-05,0
33.681,-3.8605e-06,0
33.682,-1.3428e-06,0
33.682,3.8605e-06,0
33.683,3.8605e-06,0
33.684,-4.3641e-06,0
33.684,-1.1582e-05,0
33.685,-2.3667e-05,0
33.685,-2.3667e-05,0
33.686,4.3641e-06,0
33.686,4.0787e-05,0
33.687,6.1265e-05,0
33.687,6.0594e-05,0
33.688,4.2802e-05,0
33.688,1.3596e-05,0
33.689,-1.091e-05,0
33.689,-2.2492e-05,0
33.69,-1.8296e-05,0
33.69,-7.5532e-06,0
33.691,1.0071e-06,0
33.691,9.3996e-06,0
33.692,1.5946e-05,0
33.692,1.8799e-05,0
33.693,2.3667e-05,0
33.693,2.6017e-05,0
33.694,2.501e-05,0
33.694,2.4002e-05,0
33.695,2.2324e-05,0
33.695,2.266e-05,0
33.696,2.9709e-05,0
33.697,3.7934e-05,0
33.697,4.2802e-05,0
33.698,4.5319e-05,0
33.698,3.8102e-05,0
33.699,2.6017e-05,0
33.699,2.031e-05,0
33.7,2.5345e-05,0
33.7,3.3402e-05,0
33.701,4.1962e-05,0
33.701,5.388e-05,0
33.702,6.4286e-05,0
33.702,6.2104e-05,0
33.703,4.918e-05,0
33.703,4.1459e-05,0
33.704,3.4409e-05,0
33.704,2.2995e-05,0
33.705,1.3092e-05,0
33.705,2.5177e-06,0
33.706,-2.0478e-05,0
33.706,-4.2802e-05,0
33.707,-5.2033e-05,0
33.707,-5.3208e-05,0
33.708,-4.5151e-05,0
33.708,-2.7695e-05,0
33.709,-4.1962e-06,0
33.709,1.8631e-05,0
33.71,3.4241e-05,0
33.711,4.3977e-05,0
33.711,5.1194e-05,0
33.712,5.4215e-05,0
33.712,5.9922e-05,0
33.713,7.2343e-05,0
33.713,8.1071e-05,0
33.714,8.8121e-05,0
33.714,0.00010289,0
33.715,0.00011666,0
33.715,0.00010977,0
33.716,8.1407e-05,0
33.716,5.0858e-05,0
33.717,3.4073e-05,0
33.717,2.6688e-05,0
33.718,1.5946e-05,0
33.718,1.6785e-06,0
33.719,-7.2175e-06,0
33.719,-2.8534e-06,0
33.72,1.6617e-05,0
33.72,5.0523e-05,0
33.721,7.2175e-05,0
33.721,5.4551e-05,0
33.722,2.5345e-05,0
33.722,1.3596e-05,0
33.723,-3.8605e-06,0
33.724,-4.448e-05,0
33.724,-6.4286e-05,0
33.725,-4.4144e-05,0
33.725,-4.0787e-05,0
33.726,-6.4118e-05,0
33.726,-8.7785e-05,0
33.727,-0.00011263,0
33.727,-0.00013126,0
33.728,-0.00012924,0
33.728,-0.00010558,0
33.729,-7.7714e-05,0
33.729,-7.1336e-05,0
33.73,-7.3518e-05,0
33.73,-3.0045e-05,0
33.731,5.8747e-05,0
33.731,0.00013462,0
33.732,0.00015862,0
33.732,0.00015258,0
33.733,0.00014821,0
33.733,0.00014536,0
33.734,0.00013344,0
33.734,0.00011044,0
33.735,8.9967e-05,0
33.735,9.601e-05,0
33.736,0.00012471,0
33.736,0.00013579,0
33.737,0.00010843,0
33.738,6.009e-05,0
33.738,5.3712e-06,0
33.739,-4.6494e-05,0
33.739,-7.6204e-05,0
33.74,-8.5267e-05,0
33.74,-8.5435e-05,0
33.741,-7.5532e-05,0
33.741,-5.6901e-05,0
33.742,-3.9445e-05,0
33.742,-2.5681e-05,0
33.743,-2.0981e-05,0
33.743,-3.7766e-05,0
33.744,-5.4887e-05,0
33.744,-5.2537e-05,0
33.745,-4.448e-05,0
33.745,-4.5823e-05,0
33.746,-3.8102e-05,0
33.746,-1.6281e-05,0
33.747,-6.2104e-06,0
33.747,1.0071e-06,0
33.748,3.2059e-05,0
33.748,5.7069e-05,0
33.749,4.3137e-05,0
33.749,2.266e-05,0
33.75,3.5752e-05,0
33.751,7.57e-05,0
33.751,0.0001086,0
33.752,0.00011363,0
33.752,9.6345e-05,0
33.753,7.6707e-05,0
33.753,6.3279e-05,0
33.754,5.3208e-05,0
33.754,5.2873e-05,0
33.755,5.1194e-05,0
33.755,3.9109e-05,0
33.756,2.9374e-05,0
33.756,2.5681e-05,0
33.757,2.266e-05,0
33.757,1.796e-05,0
33.758,1.3931e-05,0
33.758,1.1917e-05,0
33.759,1.3764e-05,0
33.759,2.3331e-05,0
33.76,3.8102e-05,0
33.76,5.3544e-05,0
33.761,6.2104e-05,0
33.761,5.9922e-05,0
33.762,4.8005e-05,0
33.762,4.448e-05,0
33.763,6.1601e-05,0
33.764,7.6371e-05,0
33.764,7.5364e-05,0
33.765,6.7979e-05,0
33.765,6.1265e-05,0
33.766,5.0019e-05,0
33.766,3.3738e-05,0
33.767,1.9974e-05,0
33.767,1.1917e-05,0
33.768,5.539e-06,0
33.768,8.3925e-07,0
33.769,-8.896e-06,0
33.769,-2.0142e-05,0
33.77,-2.9206e-05,0
33.77,-3.508e-05,0
33.771,-3.6927e-05,0
33.771,-4.1123e-05,0
33.772,-3.7095e-05,0
33.772,-1.2253e-05,0
33.773,1.1582e-05,0
33.773,1.2924e-05,0
33.774,-2.182e-06,0
33.774,-1.5274e-05,0
33.775,-1.2085e-05,0
33.775,1.0071e-06,0
33.776,1.326e-05,0
33.776,1.5442e-05,0
33.777,1.1414e-05,0
33.778,7.3854e-06,0
33.778,5.7069e-06,0
33.779,9.2317e-06,0
33.779,1.1917e-05,0
33.78,1.3092e-05,0
33.78,1.4099e-05,0
33.781,9.5674e-06,0
33.781,6.2104e-06,0
33.782,5.8747e-06,0
33.782,6.714e-06,0
33.783,2.0813e-05,0
33.783,4.8844e-05,0
33.784,8.1071e-05,0
33.784,0.0001138,0
33.785,0.00013864,0
33.785,0.00014888,0
33.786,0.00013713,0
33.786,0.00010977,0
33.787,8.7785e-05,0
33.787,7.7714e-05,0
33.788,6.4118e-05,0
33.788,2.5345e-05,0
33.789,-2.5345e-05,0
33.789,-5.3208e-05,0
33.79,-5.4719e-05,0
33.791,-5.6733e-05,0
33.791,-8.275e-05,0
33.792,-0.00010188,0
33.792,-8.6442e-05,0
33.793,-4.8844e-05,0
33.793,-2.182e-06,0
33.794,3.6088e-05,0
33.794,5.2201e-05,0
33.795,4.8173e-05,0
33.795,0,0
33.796,-8.8792e-05,0
33.796,-0.00015224,0
33.797,-0.0001415,0
33.797,-7.805e-05,0
33.798,-1.9974e-05,0
33.798,-1.5274e-05,0
33.799,-4.3977e-05,0
33.799,-4.213e-05,0
33.8,1.5106e-06,0
33.8,5.2201e-05,0
33.801,7.9728e-05,0
33.801,9.1646e-05,0
33.802,0.00011514,0
33.802,0.00013378,0
33.803,0.00012773,0
33.803,0.00011179,0
33.804,0.00011061,0
33.805,0.00011598,0
33.805,0.00010054,0
33.806,5.6565e-05,0
33.806,1.2589e-05,0
33.807,8.5603e-06,0
33.807,3.2731e-05,0
33.808,4.6494e-05,0
33.808,4.5487e-05,0
33.809,3.6759e-05,0
33.809,3.0549e-05,0
33.81,3.1052e-05,0
33.81,2.9877e-05,0
33.811,3.4745e-05,0
33.811,5.6397e-05,0
33.812,7.6371e-05,0
33.812,7.5364e-05,0
33.813,6.3615e-05,0
33.813,5.4719e-05,0
33.814,5.0858e-05,0
33.814,5.4719e-05,0
33.815,5.5222e-05,0
33.815,3.8102e-05,0
33.816,1.2589e-05,0
33.816,-1.1749e-06,0
33.817,2.5177e-06,0
33.818,1.5778e-05,0
33.818,2.652e-05,0
33.819,2.9038e-05,0
33.819,2.1317e-05,0
33.82,-1.1749e-06,0
33.82,-1.9303e-05,0
33.821,-1.9638e-05,0
33.821,-1.2924e-05,0
33.822,-1.1749e-05,0
33.822,-1.5106e-05,0
33.823,-3.0045e-05,0
33.823,-4.5151e-05,0
33.824,-4.0116e-05,0
33.824,-1.1582e-05,0
33.825,2.8534e-05,0
33.825,5.6733e-05,0
33.826,6.6972e-05,0
33.826,6.63e-05,0
33.827,4.8173e-05,0
33.827,1.4603e-05,0
33.828,-1.6281e-05,0
33.828,-2.3835e-05,0
33.829,-5.8747e-06,0
33.829,2.3835e-05,0
33.83,4.3473e-05,0
33.83,3.9277e-05,0
33.831,2.3331e-05,0
33.832,6.5461e-06,0
33.832,-6.2104e-06,0
33.833,-2.3163e-05,0
33.833,-4.6494e-05,0
33.834,-6.1936e-05,0
33.834,-6.1936e-05,0
33.835,-4.5823e-05,0
33.835,-1.7624e-05,0
33.836,1.1749e-05,0
33.836,3.508e-05,0
33.837,5.539e-05,0
33.837,7.1336e-05,0
33.838,7.8386e-05,0
33.838,8.1407e-05,0
33.839,7.6204e-05,0
33.839,4.4816e-05,0
33.84,-3.6927e-06,0
33.84,-2.9374e-05,0
33.841,-2.4338e-05,0
33.841,-2.0981e-05,0
33.842,-3.6423e-05,0
33.842,-5.388e-05,0
33.843,-6.3783e-05,0
33.843,-6.5965e-05,0
33.844,-6.5461e-05,0
33.844,-6.4622e-05,0
33.845,-6.1265e-05,0
33.846,-4.6662e-05,0
33.846,-2.7359e-05,0
33.847,-2.5849e-05,0
33.847,-4.7333e-05,0
33.848,-6.3279e-05,0
33.848,-4.6159e-05,0
33.849,-4.0284e-06,0
33.849,4.1123e-05,0
33.85,7.7379e-05,0
33.85,0.00010289,0
33.851,0.00011598,0
33.851,0.00011531,0
33.852,0.00011229,0
33.852,0.00010692,0
33.853,9.987e-05,0
33.853,9.5674e-05,0
33.854,9.5842e-05,0
33.854,0.00010054,0
33.855,0.00010188,0
33.855,9.9535e-05,0
33.856,9.1478e-05,0
33.856,7.6371e-05,0
33.857,5.9586e-05,0
33.857,5.0523e-05,0
33.858,5.3544e-05,0
33.859,6.0929e-05,0
33.859,6.8315e-05,0
33.86,7.3686e-05,0
33.86,6.9657e-05,0
33.861,6.7643e-05,0
33.861,7.6204e-05,0
33.862,8.4428e-05,0
33.862,8.4428e-05,0
33.863,7.7714e-05,0
33.863,5.3208e-05,0
33.864,6.3783e-06,0
33.864,-5.9754e-05,0
33.865,-0.00012908,0
33.865,-0.00015627,0
33.866,-0.00012723,0
33.866,-8.1239e-05,0
33.867,-4.9851e-05,0
33.867,-3.1388e-05,0
33.868,-1.2757e-05,0
33.868,3.5248e-06,0
33.869,1.6281e-05,0
33.869,1.8631e-05,0
33.87,-5.0355e-07,0
33.87,-3.1891e-05,0
33.871,-3.8437e-05,0
33.871,-1.5274e-05,0
33.872,5.0355e-06,0
33.873,5.2033e-06,0
33.873,-3.8605e-06,0
33.874,-2.1653e-05,0
33.874,-4.6494e-05,0
33.875,-5.623e-05,0
33.875,-3.4577e-05,0
33.876,1.1246e-05,0
33.876,4.918e-05,0
33.877,6.1601e-05,0
33.877,7.0665e-05,0
33.878,8.8457e-05,0
33.878,0.00010625,0
33.879,0.00011901,0
33.879,0.000118,0
33.88,0.00011061,0
33.88,0.00011095,0
33.881,0.00010793,0
33.881,8.4428e-05,0
33.882,4.8844e-05,0
33.882,2.0645e-05,0
33.883,2.1317e-05,0
33.883,4.448e-05,0
33.884,7.4525e-05,0
33.884,9.2149e-05,0
33.885,9.6849e-05,0
33.886,9.8527e-05,0
33.886,0.00010121,0
33.887,0.00010994,0
33.887,0.00011582,0
33.888,0.00010625,0
33.888,7.7546e-05,0
33.889,4.1794e-05,0
33.889,-6.714e-06,0
33.89,-7.8721e-05,0
33.89,-0.00013445,0
33.891,-0.00013495,0
33.891,-9.8192e-05,0
33.892,-5.9083e-05,0
33.892,-2.6017e-05,0
33.893,-2.3499e-06,0
33.893,5.2033e-06,0
33.894,6.2104e-06,0
33.894,7.2175e-06,0
33.895,1.0407e-05,0
33.895,1.4435e-05,0
33.896,1.2253e-05,0
33.896,-5.0355e-07,0
33.897,-2.0478e-05,0
33.897,-3.3066e-05,0
33.898,-2.8031e-05,0
33.898,-1.8296e-05,0
33.899,-1.6617e-05,0
33.9,-1.7456e-05,0
33.9,-1.4939e-05,0
33.901,-1.1078e-05,0
33.901,-5.539e-06,0
33.902,8.3925e-07,0
33.902,-1.0071e-06,0
33.903,-5.0355e-06,0
33.903,-7.8889e-06,0
33.904,-6.2104e-06,0
33.904,0,0
33.905,0,0
33.905,-3.8605e-06,0
33.906,-6.3783e-06,0
33.906,-6.8818e-06,0
33.907,-5.539e-06,0
33.907,-1.8463e-06,0
33.908,1.3931e-05,0
33.908,4.0452e-05,0
33.909,6.4286e-05,0
33.909,7.805e-05,0
33.91,7.6036e-05,0
33.91,5.623e-05,0
33.911,2.887e-05,0
33.911,1.3931e-05,0
33.912,2.1317e-05,0
33.913,3.6927e-05,0
33.913,4.7837e-05,0
33.914,5.1865e-05,0
33.914,4.1123e-05,0
33.915,2.8367e-05,0
33.915,2.9374e-05,0
33.916,3.4577e-05,0
33.916,2.3331e-05,0
33.917,7.8889e-06,0
33.917,8.0568e-06,0
33.918,2.7527e-05,0
33.918,4.6159e-05,0
33.919,6.0594e-05,0
33.919,8.3925e-05,0
33.92,9.987e-05,0
33.92,8.896e-05,0
33.921,6.6133e-05,0
33.921,5.4215e-05,0
33.922,4.8676e-05,0
33.922,2.8702e-05,0
33.923,1.3428e-06,0
33.923,-1.091e-05,0
33.924,-1.3596e-05,0
33.924,-1.1582e-05,0
33.925,-1.4267e-05,0
33.925,-3.7263e-05,0
33.926,-5.9754e-05,0
33.927,-5.7069e-05,0
33.927,-2.4338e-05,0
33.928,1.6281e-05,0
33.928,4.683e-05,0
33.929,6.2608e-05,0
33.929,6.2104e-05,0
33.93,5.1026e-05,0
33.93,3.0045e-05,0
33.931,-3.0213e-06,0
33.931,-3.2563e-05,0
33.932,-4.4144e-05,0
33.932,-4.0116e-05,0
33.933,-2.6688e-05,0
33.933,-7.0497e-06,0
33.934,2.6352e-05,0
33.934,7.2511e-05,0
33.935,0.00010726,0
33.935,0.0001086,0
33.936,7.9561e-05,0
33.936,4.5487e-05,0
33.937,3.743e-05,0
33.937,4.4816e-05,0
33.938,1.9974e-05,0
33.938,-5.7572e-05,0
33.939,-0.00014435,0
33.94,-0.00017053,0
33.94,-0.0001227,0
33.941,-5.4215e-05,0
33.941,-8.896e-06,0
33.942,2.2324e-05,0
33.942,4.5823e-05,0
33.943,5.6062e-05,0
33.943,5.8076e-05,0
33.944,5.5894e-05,0
33.944,4.9348e-05,0
33.945,5.623e-05,0
33.945,7.2847e-05,0
33.946,8.6442e-05,0
33.946,9.4667e-05,0
33.947,0.00010188,0
33.947,0.00010726,0
33.948,0.00010256,0
33.948,9.0806e-05,0
33.949,8.9128e-05,0
33.949,8.4092e-05,0
33.95,5.3208e-05,0
33.95,9.2317e-06,0
33.951,-2.1653e-05,0
33.951,-4.918e-05,0
33.952,-8.6442e-05,0
33.953,-0.00010927,0
33.953,-7.4693e-05,0
33.954,1.0071e-06,0
33.954,6.0258e-05,0
33.955,7.7546e-05,0
33.955,6.4286e-05,0
33.956,4.7501e-05,0
33.956,3.8437e-05,0
33.957,4.0787e-05,0
33.957,5.1865e-05,0
33.958,5.4551e-05,0
33.958,4.0955e-05,0
33.959,2.1653e-05,0
33.959,1.5274e-05,0
33.96,1.9806e-05,0
33.96,7.5532e-06,0
33.961,-1.4267e-05,0
33.961,-1.2589e-05,0
33.962,1.8631e-05,0
33.962,5.9251e-05,0
33.963,9.5506e-05,0
33.963,0.00011481,0
33.964,0.00010893,0
33.964,9.1142e-05,0
33.965,8.0064e-05,0
33.965,7.1e-05,0
33.966,6.6636e-05,0
33.967,6.63e-05,0
33.967,5.0019e-05,0
33.968,1.5106e-06,0
33.968,-5.2201e-05,0
33.969,-6.3951e-05,0
33.969,-3.3906e-05,0
33.97,-1.6281e-05,0
33.97,-5.8747e-05,0
33.971,-0.00011615,0
33.971,-0.00012639,0
33.972,-8.7785e-05,0
33.972,-4.2298e-05,0
33.973,-2.0645e-05,0
33.973,-1.0407e-05,0
33.974,3.1891e-06,0
33.974,2.8031e-05,0
33.975,6.6636e-05,0
33.975,9.9031e-05,0
33.976,0.00011716,0
33.976,0.00012807,0
33.977,0.0001274,0
33.977,9.6178e-05,0
33.978,3.357e-06,0
33.978,-0.00011431,0
33.979,-0.00017775,0
33.98,-0.00016567,0
33.98,-0.00010256,0
33.981,-2.1317e-05,0
33.981,4.213e-05,0
33.982,6.5461e-05,0
33.982,6.5965e-05,0
33.983,6.6468e-05,0
33.983,6.7979e-05,0
33.984,7.2007e-05,0
33.984,8.04e-05,0
33.985,8.0232e-05,0
33.985,7.3014e-05,0
33.986,6.8986e-05,0
33.986,5.7572e-05,0
33.987,3.4745e-05,0
33.987,5.7069e-06,0
33.988,-1.2924e-05,0
33.988,-1.7624e-05,0
33.989,-1.0239e-05,0
33.989,-1.1749e-06,0
33.99,6.5461e-06,0
33.99,1.5946e-05,0
33.991,2.5849e-05,0
33.991,3.6088e-05,0
33.992,4.0116e-05,0
33.992,4.0787e-05,0
33.993,4.213e-05,0
33.994,4.3473e-05,0
33.994,4.448e-05,0
33.995,4.4816e-05,0
33.995,3.7766e-05,0
33.996,2.8367e-05,0
33.996,1.6449e-05,0
33.997,5.0355e-07,0
33.997,-9.2317e-06,0
33.998,-1.1917e-05,0
33.998,-1.1917e-05,0
33.999,-5.0355e-06,0
33.999,5.0355e-07,0
34,-5.0355e-07,0
34,5.8747e-06,0
34.001,1.9471e-05,0
34.001,2.3163e-05,0
34.002,6.5461e-06,0
34.002,-1.4603e-05,0
34.003,-2.6352e-05,0
34.003,-3.3738e-05,0
34.004,-3.9612e-05,0
34.004,-4.1459e-05,0
34.005,-3.9948e-05,0
34.005,-3.7095e-05,0
34.006,-3.9109e-05,0
34.007,-4.5319e-05,0
34.007,-4.448e-05,0
34.008,-2.7695e-05,0
34.008,5.539e-06,0
34.009,3.7263e-05,0
34.009,6.1433e-05,0
34.01,7.8218e-05,0
34.01,9.0471e-05,0
34.011,0.00010356,0
34.011,0.00010658,0
34.012,9.0471e-05,0
34.012,6.4286e-05,0
34.013,4.1962e-05,0
34.013,3.1052e-05,0
34.014,2.4002e-05,0
34.014,8.5603e-06,0
34.015,1.6785e-06,0
34.015,3.8605e-06,0
34.016,-4.8676e-06,0
34.016,-3.2059e-05,0
34.017,-6.5965e-05,0
34.017,-7.9728e-05,0
34.018,-5.4215e-05,0
34.018,3.1891e-06,0
34.019,6.5629e-05,0
34.019,9.2988e-05,0
34.02,8.3757e-05,0
34.021,6.7979e-05,0
34.021,6.1601e-05,0
34.022,5.623e-05,0
34.022,5.8747e-05,0
34.023,9.0806e-05,0
34.023,0.00013579,0
34.024,0.00015123,0
34.024,0.0001331,0
34.025,0.00010726,0
34.025,8.5771e-05,0
34.026,5.2705e-05,0
34.026,-1.9638e-05,0
34.027,-0.0001237,0
34.027,-0.00019185,0
34.028,-0.0001848,0
34.028,-0.00012639,0
34.029,-6.2608e-05,0
34.029,-1.2924e-05,0
34.03,1.9974e-05,0
34.03,4.2802e-05,0
34.031,6.4622e-05,0
34.031,7.9225e-05,0
34.032,8.51e-05,0
34.032,8.7114e-05,0
34.033,8.7953e-05,0
34.033,8.7785e-05,0
34.034,8.4932e-05,0
34.035,7.805e-05,0
34.035,6.9657e-05,0
34.036,6.0929e-05,0
34.036,5.7572e-05,0
34.037,6.2943e-05,0
34.037,6.9657e-05,0
34.038,7.6707e-05,0
34.038,8.6442e-05,0
34.039,9.0135e-05,0
34.039,8.3085e-05,0
34.04,6.479e-05,0
34.04,4.5487e-05,0
34.041,3.9445e-05,0
34.041,4.2466e-05,0
34.042,3.5752e-05,0
34.042,5.0355e-07,0
34.043,-4.6662e-05,0
34.043,-6.1936e-05,0
34.044,-3.7766e-05,0
34.044,-9.0639e-06,0
34.045,-1.6785e-06,0
34.045,-1.2421e-05,0
34.046,-2.2995e-05,0
34.046,-2.1653e-05,0
34.047,-1.4603e-05,0
34.048,-9.2317e-06,0
34.048,-6.8818e-06,0
34.049,-4.1962e-06,0
34.049,2.8534e-06,0
34.05,2.2492e-05,0
34.05,4.7837e-05,0
34.051,6.8986e-05,0
34.051,8.1239e-05,0
34.052,7.7379e-05,0
34.052,5.8244e-05,0
34.053,3.1556e-05,0
34.053,2.182e-06,0
34.054,-2.4674e-05,0
34.054,-3.3066e-05,0
34.055,-2.6856e-05,0
34.055,-2.9709e-05,0
34.056,-4.7669e-05,0
34.056,-6.1936e-05,0
34.057,-6.5629e-05,0
34.057,-5.8244e-05,0
34.058,-4.3305e-05,0
34.058,-3.122e-05,0
34.059,-2.1317e-05,0
34.059,-1.5778e-05,0
34.06,-1.3596e-05,0
34.06,-1.5442e-05,0
34.061,-1.6953e-05,0
34.062,-5.539e-06,0
34.062,1.0575e-05,0
34.063,2.031e-05,0
34.063,3.2731e-05,0
34.064,4.8676e-05,0
34.064,6.0426e-05,0
34.065,6.1265e-05,0
34.065,5.3544e-05,0
34.066,5.1362e-05,0
34.066,6.5629e-05,0
34.067,9.2485e-05,0
34.067,0.00010826,0
34.068,0.0001133,0
34.068,0.000118,0
34.069,0.0001237,0
34.069,0.00011531,0
34.07,7.9057e-05,0
34.07,3.3402e-05,0
34.071,6.5461e-06,0
34.071,-4.1962e-06,0
34.072,-6.3783e-06,0
34.072,-1.6953e-05,0
34.073,-4.0787e-05,0
34.073,-5.623e-05,0
34.074,-5.4047e-05,0
34.075,-5.2705e-05,0
34.075,-6.0258e-05,0
34.076,-6.2943e-05,0
34.076,-4.7166e-05,0
34.077,-2.182e-05,0
34.077,5.0355e-07,0
34.078,1.5946e-05,0
34.078,3.8102e-05,0
34.079,5.7572e-05,0
34.079,4.9851e-05,0
34.08,2.887e-05,0
34.08,2.4002e-05,0
34.081,4.5823e-05,0
34.081,6.7979e-05,0
34.082,5.8076e-05,0
34.082,2.6184e-05,0
34.083,1.3596e-05,0
34.083,3.2395e-05,0
34.084,4.3305e-05,0
34.084,1.8296e-05,0
34.085,-3.0381e-05,0
34.085,-7.8386e-05,0
34.086,-0.00010491,0
34.086,-9.6849e-05,0
34.087,-6.3783e-05,0
34.087,-3.0716e-05,0
34.088,3.1891e-06,0
34.089,5.623e-05,0
34.089,0.00011968,0
34.09,0.00015828,0
34.09,0.000165,0
34.091,0.0001561,0
34.091,0.00013042,0
34.092,0.00010021,0
34.092,7.9728e-05,0
34.093,5.7237e-05,0
34.093,2.1149e-05,0
34.094,-3.1388e-05,0
34.094,-9.0974e-05,0
34.095,-0.00012555,0
34.095,-0.0001237,0
34.096,-0.00010759,0
34.096,-8.4428e-05,0
34.097,-3.8605e-05,0
34.097,1.9303e-05,0
34.098,5.6733e-05,0
34.098,6.5461e-05,0
34.099,6.6972e-05,0
34.099,7.8721e-05,0
34.1,0.00010188,0
34.1,0.00012236,0
34.101,0.00012639,0
34.102,0.0001232,0
34.102,0.00012337,0
34.103,0.0001274,0
34.103,0.00012471,0
34.104,0.00011666,0
34.104,0.00010121,0
34.105,6.7643e-05,0
34.105,2.3667e-05,0
34.106,-1.1917e-05,0
34.106,-3.5752e-05,0
34.107,-5.8747e-05,0
34.107,-9.0806e-05,0
34.108,-0.00011128,0
34.108,-0.00010709,0
34.109,-8.896e-05,0
34.109,-7.7546e-05,0
34.11,-7.3518e-05,0
34.11,-7.0665e-05,0
34.111,-6.7643e-05,0
34.111,-6.1936e-05,0
34.112,-4.2802e-05,0
34.112,-1.1246e-05,0
34.113,1.3596e-05,0
34.113,2.4002e-05,0
34.114,3.3402e-05,0
34.114,4.8508e-05,0
34.115,6.8315e-05,0
34.116,8.5435e-05,0
34.116,8.9464e-05,0
34.117,7.3854e-05,0
34.117,4.6662e-05,0
34.118,2.7024e-05,0
34.118,2.2324e-05,0
34.119,2.4842e-05,0
34.119,2.6688e-05,0
34.12,2.7695e-05,0
34.12,2.8367e-05,0
34.121,2.2324e-05,0
34.121,1.2421e-05,0
34.122,1.3931e-05,0
34.122,2.1317e-05,0
34.123,1.7121e-05,0
34.123,9.2317e-06,0
34.124,7.8889e-06,0
34.124,7.5532e-06,0
34.125,1.0239e-05,0
34.125,1.6953e-05,0
34.126,2.7359e-05,0
34.126,3.3402e-05,0
34.127,3.743e-05,0
34.127,4.7501e-05,0
34.128,6.2943e-05,0
34.129,7.4861e-05,0
34.129,8.0735e-05,0
34.13,7.5029e-05,0
34.13,5.4215e-05,0
34.131,4.0787e-05,0
34.131,4.2634e-05,0
34.132,4.8508e-05,0
34.132,5.8915e-05,0
34.133,8.0064e-05,0
34.133,0.00010155,0
34.134,0.00011212,0
34.134,8.8121e-05,0
34.135,3.4409e-05,0
34.135,-2.0981e-05,0
34.136,-4.9012e-05,0
34.136,-4.448e-05,0
34.137,-3.0549e-05,0
34.137,-2.3667e-05,0
34.138,-1.5106e-05,0
34.138,-8.2246e-06,0
34.139,-4.1962e-06,0
34.139,5.2033e-06,0
34.14,2.2492e-05,0
34.14,2.9374e-05,0
34.141,-1.1582e-05,0
34.142,-9.4163e-05,0
34.142,-0.00014469,0
34.143,-0.0001284,0
34.143,-8.8289e-05,0
34.144,-4.8508e-05,0
34.144,2.5177e-06,0
34.145,5.8915e-05,0
34.145,0.00011128,0
34.146,0.00016097,0
34.146,0.00019521,0
34.147,0.00020427,0
34.147,0.00019857,0
34.148,0.00019017,0
34.148,0.00017087,0
34.149,0.00011397,0
34.149,4.448e-05,0
34.15,1.4939e-05,0
34.15,1.5946e-05,0
34.151,1.561e-05,0
34.151,7.8889e-06,0
34.152,1.0071e-05,0
34.152,2.9374e-05,0
34.153,3.5752e-05,0
34.153,1.9974e-05,0
34.154,1.0071e-05,0
34.154,5.539e-06,0
34.155,-2.6688e-05,0
34.156,-5.6565e-05,0
34.156,-5.5558e-05,0
34.157,-4.6159e-05,0
34.157,-4.8005e-05,0
34.158,-4.7501e-05,0
34.158,-2.887e-05,0
34.159,-1.091e-05,0
34.159,-8.2246e-06,0
34.16,-1.0575e-05,0
34.16,1.0071e-06,0
34.161,2.9374e-05,0
34.161,4.683e-05,0
34.162,4.5991e-05,0
34.162,4.5991e-05,0
34.163,4.9851e-05,0
34.163,4.5487e-05,0
34.164,3.5416e-05,0
34.164,2.6184e-05,0
34.165,1.4939e-05,0
34.165,-4.1962e-06,0
34.166,-3.1891e-05,0
34.166,-6.3783e-05,0
34.167,-8.5603e-05,0
34.167,-8.5771e-05,0
34.168,-6.6804e-05,0
34.169,-3.8773e-05,0
34.169,-1.9974e-05,0
34.17,-1.796e-05,0
34.17,-2.9206e-05,0
34.171,-4.2802e-05,0
34.171,-4.062e-05,0
34.172,-1.8296e-05,0
34.172,3.8605e-06,0
34.173,1.0407e-05,0
34.173,1.1917e-05,0
34.174,1.0575e-05,0
34.174,1.2421e-05,0
34.175,1.9974e-05,0
34.175,2.4002e-05,0
34.176,1.6785e-05,0
34.176,1.0239e-05,0
34.177,9.9031e-06,0
34.177,1.4267e-05,0
34.178,1.9471e-05,0
34.178,2.6017e-05,0
34.179,4.2298e-05,0
34.179,6.3447e-05,0
34.18,7.8218e-05,0
34.18,7.7211e-05,0
34.181,6.5797e-05,0
34.181,5.8244e-05,0
34.182,5.1194e-05,0
34.183,3.5416e-05,0
34.183,9.2317e-06,0
34.184,-8.896e-06,0
34.184,-6.5461e-06,0
34.185,4.8676e-06,0
34.185,1.1246e-05,0
34.186,1.4435e-05,0
34.186,1.9135e-05,0
34.187,1.9974e-05,0
34.187,1.326e-05,0
34.188,-4.8676e-06,0
34.188,-2.3331e-05,0
34.189,-2.6352e-05,0
34.189,-2.9206e-05,0
34.19,-4.1291e-05,0
34.19,-4.0787e-05,0
34.191,-1.091e-05,0
34.191,3.6088e-05,0
34.192,7.0329e-05,0
34.192,8.7449e-05,0
34.193,9.8192e-05,0
34.193,9.5003e-05,0
34.194,7.4525e-05,0
34.194,5.774e-05,0
34.195,6.0761e-05,0
34.196,6.7979e-05,0
34.196,5.3544e-05,0
34.197,2.501e-05,0
34.197,1.6449e-05,0
34.198,3.8773e-05,0
34.198,5.8579e-05,0
34.199,3.7766e-05,0
34.199,-8.2246e-06,0
34.2,-1.1078e-05,0
34.2,3.2898e-05,0
34.201,6.3615e-05,0
34.201,6.5797e-05,0
34.202,6.8986e-05,0
34.202,8.1575e-05,0
34.203,0.00010726,0
34.203,0.00014972,0
34.204,0.00016768,0
34.204,0.00012152,0
34.205,5.2873e-05,0
34.205,-8.3925e-07,0
34.206,-5.4719e-05,0
34.206,-9.8192e-05,0
34.207,-0.00010994,0
34.207,-0.00010037,0
34.208,-6.6636e-05,0
34.208,-6.8818e-06,0
34.209,5.4551e-05,0
34.21,9.5171e-05,0
34.21,0.00011649,0
34.211,0.0001274,0
34.211,0.00012303,0
34.212,0.00012102,0
34.212,0.00014083,0
34.213,0.0001697,0
34.213,0.00018111,0
34.214,0.000165,0
34.214,0.00013277,0
34.215,9.5842e-05,0
34.215,3.743e-05,0
34.216,-4.2802e-05,0
34.216,-0.00010793,0
34.217,-0.00013327,0
34.217,-0.00012287,0
34.218,-7.7043e-05,0
34.218,-8.5603e-06,0
34.219,5.069e-05,0
34.219,8.2246e-05,0
34.22,8.3421e-05,0
34.22,5.5055e-05,0
34.221,1.2421e-05,0
34.221,-1.9135e-05,0
34.222,-2.1653e-05,0
34.222,-7.8889e-06,0
34.223,2.8534e-06,0
34.224,9.2317e-06,0
34.224,1.8631e-05,0
34.225,3.2059e-05,0
34.225,4.8173e-05,0
34.226,6.0929e-05,0
34.226,6.1601e-05,0
34.227,5.2705e-05,0
34.227,4.062e-05,0
34.228,1.5946e-05,0
34.228,-8.2246e-06,0
34.229,-5.539e-06,0
34.229,6.5461e-06,0
34.23,-1.8463e-06,0
34.23,-3.0381e-05,0
34.231,-6.1936e-05,0
34.231,-7.8721e-05,0
34.232,-7.5364e-05,0
34.232,-6.6972e-05,0
34.233,-6.6133e-05,0
34.233,-6.5965e-05,0
34.234,-5.8747e-05,0
34.234,-5.153e-05,0
34.235,-5.5222e-05,0
34.235,-7.9896e-05,0
34.236,-0.00012941,0
34.237,-0.00018984,0
34.237,-0.00020511,0
34.238,-0.00015476,0
34.238,-8.275e-05,0
34.239,-2.4338e-05,0
34.239,1.1246e-05,0
34.24,2.0645e-05,0
34.24,1.9974e-05,0
34.241,2.5177e-05,0
34.241,3.6088e-05,0
34.242,4.8844e-05,0
34.242,5.3376e-05,0
34.243,4.5151e-05,0
34.243,3.1388e-05,0
34.244,1.7288e-05,0
34.244,7.5532e-06,0
34.245,5.2033e-06,0
34.245,5.2033e-06,0
34.246,-2.5177e-06,0
34.246,-1.3764e-05,0
34.247,-1.5946e-05,0
34.247,-1.3931e-05,0
34.248,-1.561e-05,0
34.248,-1.6449e-05,0
34.249,-1.3931e-05,0
34.249,-6.714e-06,0
34.25,4.5319e-06,0
34.251,2.0645e-05,0
34.251,3.0549e-05,0
34.252,2.8031e-05,0
34.252,2.9374e-05,0
34.253,3.592e-05,0
