5.2473,8.8792e-05,0
5.2479,0.0001091,0
5.2484,0.00011833,0
5.2489,0.00011363,0
5.2494,9.7856e-05,0
5.2499,8.1071e-05,0
5.2505,6.8147e-05,0
5.251,6.6636e-05,0
5.2515,7.6371e-05,0
5.252,8.8457e-05,0
5.2525,9.5171e-05,0
5.2531,9.4331e-05,0
5.2536,8.9464e-05,0
5.2541,8.0232e-05,0
5.2546,6.2943e-05,0
5.2551,3.978e-05,0
5.2557,2.031e-05,0
5.2562,8.2246e-06,0
5.2567,-1.5106e-06,0
5.2572,-1.326e-05,0
5.2577,-2.6017e-05,0
5.2583,-3.7766e-05,0
5.2588,-3.8773e-05,0
5.2593,-3.2395e-05,0
5.2598,-2.8367e-05,0
5.2603,-2.3499e-05,0
5.2608,-8.5603e-06,0
5.2614,1.4435e-05,0
5.2619,3.0045e-05,0
5.2624,3.3906e-05,0
5.2629,3.7095e-05,0
5.2634,4.3473e-05,0
5.264,4.8676e-05,0
5.2645,5.069e-05,0
5.265,4.3641e-05,0
5.2655,2.3331e-05,0
5.266,-3.357e-07,0
5.2666,-1.3931e-05,0
5.2671,-2.031e-05,0
5.2676,-2.1988e-05,0
5.2681,-1.8631e-05,0
5.2686,-1.2253e-05,0
5.2692,-2.5177e-06,0
5.2697,5.2033e-06,0
5.2702,1.4267e-05,0
5.2707,2.7359e-05,0
5.2712,3.9612e-05,0
5.2717,4.5151e-05,0
5.2723,4.1962e-05,0
5.2728,3.2731e-05,0
5.2733,2.2492e-05,0
5.2738,1.2924e-05,0
5.2743,2.182e-06,0
5.2749,-5.7069e-06,0
5.2754,-4.8676e-06,0
5.2759,5.0355e-06,0
5.2764,1.6281e-05,0
5.2769,2.1653e-05,0
5.2775,2.1988e-05,0
5.278,2.3499e-05,0
5.2785,2.5681e-05,0
5.279,1.9974e-05,0
5.2795,1.0071e-05,0
5.2801,8.896e-06,0
5.2806,1.796e-05,0
5.2811,3.1388e-05,0
5.2816,4.4144e-05,0
5.2821,5.7404e-05,0
5.2827,6.4286e-05,0
5.2832,5.6565e-05,0
5.2837,3.8102e-05,0
5.2842,2.501e-05,0
5.2847,1.1078e-05,0
5.2852,-1.326e-05,0
5.2858,-4.1459e-05,0
5.2863,-6.1936e-05,0
5.2868,-6.7811e-05,0
5.2873,-5.8747e-05,0
5.2878,-4.0955e-05,0
5.2884,-2.3331e-05,0
5.2889,-8.896e-06,0
5.2894,1.4603e-05,0
5.2899,5.2201e-05,0
5.2904,9.4163e-05,0
5.291,0.00012337,0
5.2915,0.00012421,0
5.292,0.00010541,0
5.2925,8.5603e-05,0
5.293,6.9657e-05,0
5.2936,6.3279e-05,0
5.2941,7.6371e-05,0
5.2946,0.00010507,0
5.2951,0.00013143,0
5.2956,0.0001321,0
5.2962,0.00010256,0
5.2967,5.9251e-05,0
5.2972,2.1317e-05,0
5.2977,-4.8676e-06,0
5.2982,-2.501e-05,0
5.2988,-4.2634e-05,0
5.2993,-5.4719e-05,0
5.2998,-6.1769e-05,0
5.3003,-6.1769e-05,0
5.3008,-5.3544e-05,0
5.3013,-3.978e-05,0
5.3019,-2.501e-05,0
5.3024,-1.1749e-05,0
5.3029,-1.6785e-06,0
5.3034,9.7353e-06,0
5.3039,3.0045e-05,0
5.3045,5.6062e-05,0
5.305,6.4622e-05,0
5.3055,4.683e-05,0
5.306,2.182e-05,0
5.3065,5.8747e-06,0
5.3071,-3.6927e-06,0
5.3076,-1.1917e-05,0
5.3081,-1.6281e-05,0
5.3086,-1.3931e-05,0
5.3091,-6.3783e-06,0
5.3097,3.5248e-06,0
5.3102,1.326e-05,0
5.3107,1.6617e-05,0
5.3112,6.8818e-06,0
5.3117,-1.6953e-05,0
5.3122,-4.8508e-05,0
5.3128,-7.2679e-05,0
5.3133,-7.6036e-05,0
5.3138,-5.9251e-05,0
5.3143,-3.8437e-05,0
5.3148,-1.9303e-05,0
5.3154,5.2033e-06,0
5.3159,3.2395e-05,0
5.3164,5.3208e-05,0
5.3169,6.9657e-05,0
5.3174,9.0974e-05,0
5.318,0.00012807,0
5.3185,0.00016164,0
5.319,0.00015207,0
5.3195,9.7185e-05,0
5.32,3.5416e-05,0
5.3206,-6.0426e-06,0
5.3211,-2.266e-05,0
5.3216,-2.3667e-05,0
5.3221,-1.7624e-05,0
5.3226,-2.8534e-06,0
5.3232,1.6449e-05,0
5.3237,3.0045e-05,0
5.3242,3.6255e-05,0
5.3247,4.9516e-05,0
5.3252,7.8721e-05,0
5.3258,0.00011061,0
5.3263,0.00012471,0
5.3268,0.00011095,0
5.3273,7.6204e-05,0
5.3278,4.0116e-05,0
5.3283,1.8631e-05,0
5.3289,8.5603e-06,0
5.3294,-4.3641e-06,0
5.3299,-2.4674e-05,0
5.3304,-4.0116e-05,0
5.3309,-3.978e-05,0
5.3315,-3.508e-05,0
5.332,-3.6255e-05,0
5.3325,-3.8773e-05,0
5.333,-3.7095e-05,0
5.3335,-3.1556e-05,0
5.3341,-2.7359e-05,0
5.3346,-2.0981e-05,0
5.3351,-4.1962e-06,0
5.3356,1.6617e-05,0
5.3361,3.1891e-05,0
5.3367,4.1123e-05,0
5.3372,4.7837e-05,0
5.3377,5.069e-05,0
5.3382,5.0187e-05,0
5.3387,4.7166e-05,0
5.3392,3.7934e-05,0
5.3398,2.7359e-05,0
5.3403,2.4842e-05,0
5.3408,2.8534e-05,0
5.3413,2.417e-05,0
5.3418,4.5319e-06,0
5.3424,-1.4267e-05,0
5.3429,-8.5603e-06,0
5.3434,1.7792e-05,0
5.3439,3.9277e-05,0
5.3444,4.5319e-05,0
5.345,4.0452e-05,0
5.3455,2.182e-05,0
5.346,-8.0568e-06,0
5.3465,-2.7024e-05,0
5.347,-2.6017e-05,0
5.3476,-2.2995e-05,0
5.3481,-2.9206e-05,0
5.3486,-3.4913e-05,0
5.3491,-3.3066e-05,0
5.3496,-2.3163e-05,0
5.3502,-1.0239e-05,0
5.3507,2.0142e-06,0
5.3512,1.2924e-05,0
5.3517,2.5849e-05,0
5.3522,3.2059e-05,0
5.3528,1.7288e-05,0
5.3533,-1.2924e-05,0
5.3538,-4.0955e-05,0
5.3543,-5.5222e-05,0
5.3548,-5.3544e-05,0
5.3553,-3.3906e-05,0
5.3559,-3.1891e-06,0
5.3564,2.5177e-05,0
5.3569,3.9109e-05,0
5.3574,4.3473e-05,0
5.3579,5.5222e-05,0
5.3585,7.3518e-05,0
5.359,9.5171e-05,0
5.3595,0.0001232,0
5.36,0.00013814,0
5.3605,0.00012052,0
5.3611,8.1575e-05,0
5.3616,4.8844e-05,0
5.3621,3.978e-05,0
5.3626,4.4312e-05,0
5.3631,4.4816e-05,0
5.3637,3.3402e-05,0
5.3642,9.7353e-06,0
5.3647,-2.3499e-06,0
5.3652,1.4267e-05,0
5.3657,4.3473e-05,0
5.3662,6.6972e-05,0
5.3668,8.4428e-05,0
5.3673,9.8863e-05,0
5.3678,0.00011078,0
5.3683,0.00011196,0
5.3688,9.2317e-05,0
5.3694,5.2201e-05,0
5.3699,1.5946e-05,0
5.3704,-2.182e-06,0
5.3709,-8.2246e-06,0
5.3714,-1.3764e-05,0
5.372,-2.1317e-05,0
5.3725,-2.3331e-05,0
5.373,-1.8631e-05,0
5.3735,-1.8296e-05,0
5.374,-2.5177e-05,0
5.3746,-3.5752e-05,0
5.3751,-4.5487e-05,0
5.3756,-5.1865e-05,0
5.3761,-5.539e-05,0
5.3766,-5.2201e-05,0
5.3772,-3.978e-05,0
5.3777,-2.3835e-05,0
5.3782,-1.1414e-05,0
5.3787,-3.6927e-06,0
5.3792,3.8605e-06,0
5.3797,6.8818e-06,0
5.3803,5.8747e-06,0
5.3808,2.5177e-06,0
5.3813,-4.8676e-06,0
5.3818,-1.326e-05,0
5.3823,-2.0645e-05,0
5.3829,-3.1556e-05,0
5.3834,-5.1362e-05,0
5.3839,-6.2943e-05,0
5.3844,-5.0523e-05,0
5.3849,-1.796e-05,0
5.3855,2.3331e-05,0
5.386,6.5965e-05,0
5.3865,9.987e-05,0
5.387,0.0001185,0
5.3875,0.00012689,0
5.3881,0.00013545,0
5.3886,0.00014754,0
5.3891,0.00015023,0
5.3896,0.00013713,0
5.3901,0.00011934,0
5.3907,0.00010222,0
5.3912,7.7714e-05,0
5.3917,4.2802e-05,0
5.3922,1.8631e-05,0
5.3927,1.7792e-05,0
5.3933,2.501e-05,0
5.3938,2.652e-05,0
5.3943,2.0645e-05,0
5.3948,1.3764e-05,0
5.3953,6.5461e-06,0
5.3958,-5.0355e-06,0
5.3964,-2.0813e-05,0
5.3969,-3.3738e-05,0
5.3974,-4.5151e-05,0
5.3979,-6.0929e-05,0
5.3984,-7.6204e-05,0
5.399,-8.7449e-05,0
5.3995,-9.2317e-05,0
5.4,-9.366e-05,0
5.4005,-9.5506e-05,0
5.401,-9.3828e-05,0
5.4016,-8.1239e-05,0
5.4021,-5.9922e-05,0
5.4026,-3.508e-05,0
5.4031,-2.0142e-06,0
5.4036,4.1123e-05,0
5.4042,9.0303e-05,0
5.4047,0.00013327,0
5.4052,0.00015123,0
5.4057,0.00013613,0
5.4062,0.00010004,0
5.4067,6.2943e-05,0
5.4073,3.2395e-05,0
5.4078,7.2175e-06,0
5.4083,-9.5674e-06,0
5.4088,-1.7288e-05,0
5.4093,-1.8128e-05,0
5.4099,-7.2175e-06,0
5.4104,1.8128e-05,0
5.4109,5.4551e-05,0
5.4114,9.4835e-05,0
5.4119,0.00013075,0
5.4125,0.00016265,0
5.413,0.00018614,0
5.4135,0.00018094,0
5.414,0.00014754,0
5.4145,0.00010591,0
5.4151,6.1433e-05,0
5.4156,1.7288e-05,0
5.4161,-1.4939e-05,0
5.4166,-2.8031e-05,0
5.4171,-2.8199e-05,0
5.4177,-2.1149e-05,0
5.4182,-1.2253e-05,0
5.4187,-4.8676e-06,0
5.4192,1.5106e-06,0
5.4197,5.2033e-06,0
5.4203,5.2033e-06,0
5.4208,2.8534e-06,0
5.4213,-2.5177e-06,0
5.4218,-5.2033e-06,0
5.4223,-5.539e-06,0
5.4228,-9.5674e-06,0
5.4234,-1.4267e-05,0
5.4239,-1.561e-05,0
5.4244,-1.2421e-05,0
5.4249,-1.3596e-05,0
5.4254,-2.1988e-05,0
5.426,-2.6688e-05,0
5.4265,-2.2324e-05,0
5.427,-1.2253e-05,0
5.4275,-4.5319e-06,0
5.428,-6.5461e-06,0
5.4286,-1.4939e-05,0
5.4291,-1.9974e-05,0
5.4296,-1.7624e-05,0
5.4301,-1.2421e-05,0
5.4306,-8.3925e-06,0
5.4312,-4.3641e-06,0
5.4317,-1.6785e-07,0
5.4322,2.8534e-06,0
5.4327,-3.357e-07,0
5.4332,-1.326e-05,0
5.4337,-2.4338e-05,0
5.4343,-2.4506e-05,0
5.4348,-2.0142e-05,0
5.4353,-1.5442e-05,0
5.4358,-1.091e-05,0
5.4363,-3.6927e-06,0
5.4369,7.2175e-06,0
5.4374,1.6281e-05,0
5.4379,2.7695e-05,0
5.4384,4.8173e-05,0
5.4389,7.5029e-05,0
5.4395,8.9799e-05,0
5.44,7.8553e-05,0
5.4405,6.0258e-05,0
5.441,5.0858e-05,0
5.4415,4.6494e-05,0
5.4421,4.3473e-05,0
5.4426,4.4984e-05,0
5.4431,5.1865e-05,0
5.4436,5.4047e-05,0
5.4441,4.7669e-05,0
5.4447,4.1962e-05,0
5.4452,4.1794e-05,0
5.4457,3.7263e-05,0
5.4462,2.1317e-05,0
5.4467,-2.182e-06,0
5.4473,-2.7024e-05,0
5.4478,-4.7501e-05,0
5.4483,-5.4887e-05,0
5.4488,-4.7837e-05,0
5.4493,-3.508e-05,0
5.4498,-2.3499e-05,0
5.4504,-1.0575e-05,0
5.4509,3.8605e-06,0
5.4514,1.8631e-05,0
5.4519,3.8773e-05,0
5.4524,7.0832e-05,0
5.453,0.00010843,0
5.4535,0.00013327,0
5.454,0.00013948,0
5.4545,0.0001331,0
5.455,0.000118,0
5.4556,9.1142e-05,0
5.4561,5.8915e-05,0
5.4566,3.4745e-05,0
5.4571,1.561e-05,0
5.4576,-1.1749e-06,0
5.4582,-7.8889e-06,0
5.4587,-5.539e-06,0
5.4592,0,0
5.4597,-8.3925e-07,0
5.4602,-1.9135e-05,0
5.4607,-5.4551e-05,0
5.4613,-8.6442e-05,0
5.4618,-9.9199e-05,0
5.4623,-9.9199e-05,0
5.4628,-9.7856e-05,0
5.4633,-8.9296e-05,0
5.4639,-6.714e-05,0
5.4644,-3.2563e-05,0
5.4649,8.3925e-06,0
5.4654,4.7166e-05,0
5.4659,8.5771e-05,0
5.4665,0.0001415,0
5.467,0.00020058,0
5.4675,0.00021468,0
5.468,0.00016902,0
5.4685,0.00010491,0
5.4691,5.623e-05,0
5.4696,2.5177e-05,0
5.4701,-2.5177e-06,0
5.4706,-3.7934e-05,0
5.4711,-8.0903e-05,0
5.4717,-0.00012169,0
5.4722,-0.00014838,0
5.4727,-0.00015677,0
5.4732,-0.00014452,0
5.4737,-0.00011128,0
5.4742,-7.3686e-05,0
5.4748,-3.7263e-05,0
5.4753,1.326e-05,0
5.4758,8.7449e-05,0
5.4763,0.00016399,0
5.4768,0.00021854,0
5.4774,0.00025093,0
5.4779,0.00025328,0
5.4784,0.00021518,0
5.4789,0.00015744,0
5.4794,0.00011598,0
5.48,0.00010021,0
5.4805,9.1814e-05,0
5.481,7.8386e-05,0
5.4815,6.0929e-05,0
5.482,4.5151e-05,0
5.4826,3.2563e-05,0
5.4831,2.4002e-05,0
5.4836,1.561e-05,0
5.4841,7.8889e-06,0
5.4846,2.5177e-06,0
5.4852,-2.8534e-06,0
5.4857,-1.0239e-05,0
5.4862,-1.7624e-05,0
5.4867,-2.1317e-05,0
5.4872,-2.1317e-05,0
5.4878,-2.1317e-05,0
5.4883,-2.5849e-05,0
5.4888,-3.4745e-05,0
5.4893,-4.213e-05,0
5.4898,-4.5487e-05,0
5.4903,-4.0452e-05,0
5.4909,-2.8367e-05,0
5.4914,-1.9974e-05,0
5.4919,-1.8967e-05,0
5.4924,-2.0981e-05,0
5.4929,-2.0981e-05,0
5.4935,-1.9638e-05,0
5.494,-2.031e-05,0
5.4945,-1.9974e-05,0
5.495,-9.5674e-06,0
5.4955,1.2421e-05,0
5.4961,3.0045e-05,0
5.4966,3.1388e-05,0
5.4971,2.0981e-05,0
5.4976,8.5603e-06,0
5.4981,-1.6785e-07,0
5.4987,-6.3783e-06,0
5.4992,-1.326e-05,0
5.4997,-2.1653e-05,0
5.5002,-2.3331e-05,0
5.5007,-1.7624e-05,0
5.5012,-1.5274e-05,0
5.5018,-1.9303e-05,0
5.5023,-2.2324e-05,0
5.5028,-1.6953e-05,0
5.5033,-6.714e-07,0
5.5038,1.7288e-05,0
5.5044,2.9709e-05,0
5.5049,3.8102e-05,0
5.5054,4.1459e-05,0
5.5059,3.8102e-05,0
5.5064,3.4745e-05,0
5.507,3.4745e-05,0
5.5075,3.4073e-05,0
5.508,2.9374e-05,0
5.5085,2.3331e-05,0
5.509,1.796e-05,0
5.5096,1.5274e-05,0
5.5101,1.4603e-05,0
5.5106,1.6449e-05,0
5.5111,1.9471e-05,0
5.5116,2.0645e-05,0
5.5122,2.4338e-05,0
5.5127,2.7024e-05,0
5.5132,1.9974e-05,0
5.5137,-1.5106e-06,0
5.5142,-2.4674e-05,0
5.5148,-3.7766e-05,0
5.5153,-4.4144e-05,0
5.5158,-5.1194e-05,0
5.5163,-5.8915e-05,0
5.5168,-6.4118e-05,0
5.5173,-6.5797e-05,0
5.5179,-5.9419e-05,0
5.5184,-4.5487e-05,0
5.5189,-2.031e-05,0
5.5194,1.5778e-05,0
5.5199,5.0523e-05,0
5.5205,8.1575e-05,0
5.521,0.00011666,0
5.5215,0.0001556,0
5.522,0.00018631,0
5.5225,0.00019454,0
5.5231,0.00018027,0
5.5236,0.00015358,0
5.5241,0.0001237,0
5.5246,9.5506e-05,0
5.5251,7.7714e-05,0
5.5257,7.3518e-05,0
5.5262,7.1839e-05,0
5.5267,6.3615e-05,0
5.5272,5.2201e-05,0
5.5277,4.1794e-05,0
5.5282,2.9709e-05,0
5.5288,1.8967e-05,0
5.5293,1.326e-05,0
5.5298,9.9031e-06,0
5.5303,6.5461e-06,0
5.5308,5.2033e-06,0
5.5314,9.9031e-06,0
5.5319,2.6017e-05,0
5.5324,4.448e-05,0
5.5329,3.8773e-05,0
5.5334,1.1917e-05,0
5.534,-8.7282e-06,0
5.5345,-1.7624e-05,0
5.535,-2.417e-05,0
5.5355,-3.8437e-05,0
5.536,-5.0355e-05,0
5.5366,-4.5487e-05,0
5.5371,-2.4842e-05,0
5.5376,-8.3925e-07,0
5.5381,2.1653e-05,0
5.5386,4.7669e-05,0
5.5392,7.0329e-05,0
5.5397,7.2343e-05,0
5.5402,5.623e-05,0
5.5407,3.9612e-05,0
5.5412,2.5849e-05,0
5.5418,1.0575e-05,0
5.5423,-5.539e-06,0
5.5428,-1.3092e-05,0
5.5433,-1.1246e-05,0
5.5438,-4.6998e-06,0
5.5443,6.2104e-06,0
5.5449,1.8631e-05,0
5.5454,3.0381e-05,0
5.5459,3.0381e-05,0
5.5464,1.9303e-05,0
5.5469,8.2246e-06,0
5.5475,1.8463e-06,0
5.548,-3.0213e-06,0
5.5485,-5.2033e-06,0
5.549,-4.3641e-06,0
5.5495,-7.8889e-06,0
5.5501,-1.7288e-05,0
5.5506,-3.2395e-05,0
5.5511,-5.5558e-05,0
5.5516,-7.8386e-05,0
5.5521,-8.3589e-05,0
5.5527,-6.6804e-05,0
5.5532,-4.3641e-05,0
5.5537,-2.652e-05,0
5.5542,-1.0239e-05,0
5.5547,1.1917e-05,0
5.5553,4.0787e-05,0
5.5558,7.1672e-05,0
5.5563,9.6345e-05,0
5.5568,0.00010826,0
5.5573,0.00011666,0
5.5578,0.00012992,0
5.5584,0.00013764,0
5.5589,0.00012169,0
5.5594,7.9896e-05,0
5.5599,3.5416e-05,0
5.5604,7.8889e-06,0
5.561,0,0
5.5615,-8.3925e-07,0
5.562,-4.1962e-06,0
5.5625,-9.5674e-06,0
5.563,-1.091e-05,0
5.5636,-5.7069e-06,0
5.5641,2.3499e-06,0
5.5646,9.5674e-06,0
5.5651,1.2924e-05,0
5.5656,1.1917e-05,0
5.5662,1.4267e-05,0
5.5667,1.8463e-05,0
5.5672,1.9303e-05,0
5.5677,2.0645e-05,0
5.5682,1.9806e-05,0
5.5687,1.4603e-05,0
5.5693,1.1246e-05,0
5.5698,9.3996e-06,0
5.5703,7.8889e-06,0
5.5708,7.3854e-06,0
5.5713,5.539e-06,0
5.5719,4.0284e-06,0
5.5724,4.1962e-06,0
5.5729,3.8605e-06,0
5.5734,1.1749e-06,0
5.5739,-4.5319e-06,0
5.5745,-9.0639e-06,0
5.575,-9.5674e-06,0
5.5755,-4.0284e-06,0
5.576,5.7069e-06,0
5.5765,1.0575e-05,0
5.5771,4.5319e-06,0
5.5776,-1.8463e-06,0
5.5781,1.5106e-06,0
5.5786,1.1246e-05,0
5.5791,2.2324e-05,0
5.5797,3.1724e-05,0
5.5802,2.8367e-05,0
5.5807,1.3931e-05,0
5.5812,2.3499e-06,0
5.5817,0,0
5.5823,1.8463e-06,0
5.5828,2.182e-06,0
5.5833,1.6785e-07,0
5.5838,5.0355e-07,0
5.5843,4.1962e-06,0
5.5848,1.1917e-05,0
5.5854,2.6688e-05,0
5.5859,5.0523e-05,0
5.5864,7.805e-05,0
5.5869,0.00010021,0
5.5874,0.00011196,0
5.588,0.00011229,0
5.5885,0.00010457,0
5.589,9.0806e-05,0
5.5895,7.2007e-05,0
5.59,5.5894e-05,0
5.5906,4.8005e-05,0
5.5911,4.7501e-05,0
5.5916,4.5655e-05,0
5.5921,3.743e-05,0
5.5926,3.0716e-05,0
5.5932,2.6688e-05,0
5.5937,1.3931e-05,0
5.5942,-8.7282e-06,0
5.5947,-2.6184e-05,0
5.5952,-2.9206e-05,0
5.5957,-2.7527e-05,0
5.5963,-2.5681e-05,0
5.5968,-2.3331e-05,0
5.5973,-2.4338e-05,0
5.5978,-2.7359e-05,0
5.5983,-3.3234e-05,0
5.5989,-3.743e-05,0
5.5994,-3.6255e-05,0
5.5999,-3.7766e-05,0
5.6004,-4.1627e-05,0
5.6009,-4.3305e-05,0
5.6015,-4.213e-05,0
5.602,-3.6927e-05,0
5.6025,-2.4506e-05,0
5.603,-6.8818e-06,0
5.6035,1.4099e-05,0
5.6041,3.9612e-05,0
5.6046,5.8747e-05,0
5.6051,5.7572e-05,0
5.6056,3.9277e-05,0
5.6061,2.0981e-05,0
5.6067,1.5778e-05,0
5.6072,2.182e-05,0
5.6077,3.7766e-05,0
5.6082,6.2272e-05,0
5.6087,8.6275e-05,0
5.6093,0.00010625,0
5.6098,0.00012572,0
5.6103,0.00014284,0
5.6108,0.00015023,0
5.6113,0.0001415,0
5.6118,0.00012068,0
5.6124,8.9632e-05,0
5.6129,5.5558e-05,0
5.6134,2.6688e-05,0
5.6139,6.2104e-06,0
5.6144,-9.7353e-06,0
5.615,-2.031e-05,0
5.6155,-2.3667e-05,0
5.616,-1.9471e-05,0
5.6165,-1.3764e-05,0
5.617,-1.326e-05,0
5.6176,-1.6449e-05,0
5.6181,-2.266e-05,0
5.6186,-2.7024e-05,0
5.6191,-2.8031e-05,0
5.6196,-2.6688e-05,0
5.6202,-2.0645e-05,0
5.6207,-9.2317e-06,0
5.6212,2.5177e-06,0
5.6217,1.0407e-05,0
5.6222,1.4435e-05,0
5.6227,1.5274e-05,0
5.6233,1.7624e-05,0
5.6238,2.1988e-05,0
5.6243,2.5681e-05,0
5.6248,2.7359e-05,0
5.6253,2.9374e-05,0
5.6259,2.9374e-05,0
5.6264,1.9974e-05,0
5.6269,4.5319e-06,0
5.6274,-1.4435e-05,0
5.6279,-2.9206e-05,0
5.6285,-3.5752e-05,0
5.629,-2.9877e-05,0
5.6295,-1.4771e-05,0
5.63,3.357e-07,0
5.6305,7.7211e-06,0
5.6311,1.3092e-05,0
5.6316,2.3331e-05,0
5.6321,3.2395e-05,0
5.6326,3.2059e-05,0
5.6331,2.8367e-05,0
5.6337,3.2059e-05,0
5.6342,4.1291e-05,0
5.6347,3.978e-05,0
5.6352,2.0142e-05,0
5.6357,-8.2246e-06,0
5.6363,-2.7024e-05,0
5.6368,-3.2731e-05,0
5.6373,-3.4409e-05,0
5.6378,-3.7263e-05,0
5.6383,-3.508e-05,0
5.6388,-1.8967e-05,0
5.6394,7.5532e-06,0
5.6399,3.3234e-05,0
5.6404,5.1865e-05,0
5.6409,6.7308e-05,0
5.6414,8.0232e-05,0
5.642,8.7114e-05,0
5.6425,8.4932e-05,0
5.643,7.9393e-05,0
5.6435,8.0064e-05,0
5.644,8.0232e-05,0
5.6446,7.0161e-05,0
5.6451,5.7069e-05,0
5.6456,5.304e-05,0
5.6461,5.5222e-05,0
5.6466,5.4551e-05,0
5.6472,5.0858e-05,0
5.6477,4.3809e-05,0
5.6482,3.6088e-05,0
5.6487,2.9374e-05,0
5.6492,2.5345e-05,0
5.6498,2.1653e-05,0
5.6503,1.5946e-05,0
5.6508,5.539e-06,0
5.6513,-8.3925e-06,0
5.6518,-2.4842e-05,0
5.6523,-3.743e-05,0
5.6529,-4.3473e-05,0
5.6534,-4.6494e-05,0
5.6539,-4.7669e-05,0
5.6544,-4.3137e-05,0
5.6549,-3.9277e-05,0
5.6555,-4.8173e-05,0
5.656,-7.4357e-05,0
5.6565,-0.00010423,0
5.657,-0.0001133,0
5.6575,-9.2988e-05,0
5.6581,-6.0258e-05,0
5.6586,-3.1724e-05,0
5.6591,-8.896e-06,0
5.6596,1.326e-05,0
5.6601,3.7095e-05,0
5.6607,6.8315e-05,0
5.6612,0.00011179,0
5.6617,0.00017104,0
5.6622,0.00023415,0
5.6627,0.00026839,0
5.6632,0.00025496,0
5.6638,0.00020696,0
5.6643,0.00015023,0
5.6648,0.00010323,0
5.6653,6.9657e-05,0
5.6658,4.7837e-05,0
5.6664,3.592e-05,0
5.6669,2.8031e-05,0
5.6674,2.2324e-05,0
5.6679,1.6449e-05,0
5.6684,9.0639e-06,0
5.669,3.0213e-06,0
5.6695,5.0355e-07,0
5.67,3.357e-07,0
5.6705,-1.5106e-06,0
5.671,-5.0355e-06,0
5.6716,-9.5674e-06,0
5.6721,-1.4603e-05,0
5.6726,-1.7624e-05,0
5.6731,-1.6953e-05,0
5.6736,-1.5274e-05,0
5.6742,-1.4603e-05,0
5.6747,-1.2924e-05,0
5.6752,-1.1749e-05,0
5.6757,-1.2253e-05,0
5.6762,-1.3428e-05,0
5.6768,-1.2924e-05,0
5.6773,-1.2421e-05,0
5.6778,-1.4939e-05,0
5.6783,-1.7288e-05,0
5.6788,-2.0981e-05,0
5.6793,-2.8367e-05,0
5.6799,-3.1724e-05,0
5.6804,-2.7863e-05,0
5.6809,-2.1988e-05,0
5.6814,-1.9135e-05,0
5.6819,-1.796e-05,0
5.6825,-1.326e-05,0
5.683,-4.8676e-06,0
5.6835,2.182e-06,0
5.684,7.7211e-06,0
5.6845,1.5274e-05,0
5.6851,2.4674e-05,0
5.6856,2.7695e-05,0
5.6861,2.1653e-05,0
5.6866,1.5946e-05,0
5.6871,1.3596e-05,0
5.6877,1.6281e-05,0
5.6882,2.4338e-05,0
5.6887,2.7863e-05,0
5.6892,1.9806e-05,0
5.6897,8.5603e-06,0
5.6902,3.357e-06,0
5.6908,2.5177e-06,0
5.6913,5.8747e-06,0
5.6918,1.1749e-05,0
5.6923,1.6281e-05,0
5.6928,1.9974e-05,0
5.6934,3.0381e-05,0
5.6939,4.2802e-05,0
5.6944,4.448e-05,0
5.6949,3.5248e-05,0
5.6954,3.0045e-05,0
5.696,3.0716e-05,0
5.6965,3.1724e-05,0
5.697,2.6688e-05,0
5.6975,1.7288e-05,0
5.698,5.2033e-06,0
5.6986,-1.2253e-05,0
5.6991,-3.0381e-05,0
5.6996,-4.1794e-05,0
5.7001,-4.918e-05,0
5.7006,-5.7908e-05,0
5.7012,-6.6636e-05,0
5.7017,-6.8315e-05,0
5.7022,-5.9419e-05,0
5.7027,-3.9109e-05,0
5.7032,-1.091e-05,0
5.7038,3.0045e-05,0
5.7043,7.8553e-05,0
5.7048,0.00011229,0
5.7053,0.00012337,0
5.7058,0.00012253,0
5.7063,0.00012136,0
5.7069,0.00012958,0
5.7074,0.00013881,0
5.7079,0.0001368,0
5.7084,0.00012874,0
5.7089,0.00012421,0
5.7095,0.0001279,0
5.71,0.00013059,0
5.7105,0.00011531,0
5.711,8.3589e-05,0
5.7115,5.4215e-05,0
5.7121,3.6423e-05,0
5.7126,2.4674e-05,0
5.7131,1.3931e-05,0
5.7136,5.2033e-06,0
5.7141,-1.1749e-06,0
5.7147,-7.8889e-06,0
5.7152,-1.561e-05,0
5.7157,-2.4506e-05,0
5.7162,-3.0213e-05,0
5.7167,-2.9709e-05,0
5.7172,-2.4674e-05,0
5.7178,-2.0981e-05,0
5.7183,-1.9638e-05,0
5.7188,-1.796e-05,0
5.7193,-1.6617e-05,0
5.7198,-1.5106e-05,0
5.7204,-1.1414e-05,0
5.7209,-3.1891e-06,0
5.7214,3.8605e-06,0
5.7219,2.3499e-06,0
5.7224,-7.0497e-06,0
5.723,-1.3764e-05,0
5.7235,-1.3764e-05,0
5.724,-1.5946e-05,0
5.7245,-1.9471e-05,0
5.725,-2.0142e-05,0
5.7256,-1.8967e-05,0
5.7261,-1.3931e-05,0
5.7266,-3.5248e-06,0
5.7271,8.5603e-06,0
5.7276,1.796e-05,0
5.7282,2.5849e-05,0
5.7287,3.3066e-05,0
5.7292,3.7766e-05,0
5.7297,3.5752e-05,0
5.7302,3.5416e-05,0
5.7307,4.5151e-05,0
5.7313,5.5055e-05,0
5.7318,5.2705e-05,0
5.7323,4.0116e-05,0
5.7328,2.2492e-05,0
5.7333,6.2104e-06,0
5.7339,-4.5319e-06,0
5.7344,-7.5532e-06,0
5.7349,-2.8534e-06,0
5.7354,1.5106e-06,0
5.7359,0,0
5.7365,-2.8534e-06,0
5.737,-6.5461e-06,0
5.7375,-1.2253e-05,0
5.738,-1.3596e-05,0
5.7385,-1.0407e-05,0
5.7391,-8.5603e-06,0
5.7396,-8.2246e-06,0
5.7401,-6.8818e-06,0
5.7406,2.0142e-06,0
5.7411,2.2995e-05,0
5.7417,4.8173e-05,0
5.7422,6.1936e-05,0
5.7427,5.7572e-05,0
5.7432,4.5487e-05,0
5.7437,3.8102e-05,0
5.7443,3.743e-05,0
5.7448,3.6759e-05,0
5.7453,3.1724e-05,0
5.7458,2.8199e-05,0
5.7463,3.0045e-05,0
5.7468,3.6591e-05,0
5.7474,4.7501e-05,0
5.7479,6.4286e-05,0
5.7484,8.6442e-05,0
5.7489,0.00010675,0
5.7494,0.00011263,0
5.75,9.8863e-05,0
5.7505,7.2679e-05,0
5.751,4.2802e-05,0
5.7515,1.5946e-05,0
5.752,-2.5177e-06,0
5.7526,-1.2924e-05,0
5.7531,-2.7024e-05,0
5.7536,-5.388e-05,0
5.7541,-8.1575e-05,0
5.7546,-8.9967e-05,0
5.7552,-7.7714e-05,0
5.7557,-6.1433e-05,0
5.7562,-4.8676e-05,0
5.7567,-3.1891e-05,0
5.7572,-4.8676e-06,0
5.7577,2.7863e-05,0
5.7583,5.8076e-05,0
5.7588,8.9128e-05,0
5.7593,0.00012001,0
5.7598,0.00014066,0
5.7603,0.00014166,0
5.7609,0.00012555,0
5.7614,0.00010524,0
5.7619,8.8457e-05,0
5.7624,7.1336e-05,0
5.7629,5.4551e-05,0
5.7635,3.9445e-05,0
5.764,2.4002e-05,0
5.7645,4.5319e-06,0
5.765,-1.5778e-05,0
5.7655,-3.4577e-05,0
5.7661,-5.069e-05,0
5.7666,-5.6733e-05,0
5.7671,-5.2537e-05,0
5.7676,-5.1698e-05,0
5.7681,-5.9586e-05,0
5.7687,-6.479e-05,0
5.7692,-5.2705e-05,0
5.7697,-1.9806e-05,0
5.7702,2.1988e-05,0
5.7707,5.3208e-05,0
5.7713,6.8818e-05,0
5.7718,7.3014e-05,0
5.7723,6.4118e-05,0
5.7728,4.1794e-05,0
5.7733,1.6617e-05,0
5.7738,-1.1749e-06,0
5.7744,-9.9031e-06,0
5.7749,-1.091e-05,0
5.7754,-8.5603e-06,0
5.7759,-1.1078e-05,0
5.7764,-1.6281e-05,0
5.777,-1.4771e-05,0
5.7775,-8.3925e-07,0
5.778,2.3835e-05,0
5.7785,5.5222e-05,0
5.779,8.0064e-05,0
5.7796,8.3589e-05,0
5.7801,6.865e-05,0
5.7806,4.7166e-05,0
5.7811,1.9974e-05,0
5.7816,-1.1749e-05,0
5.7822,-2.7527e-05,0
5.7827,-2.2492e-05,0
5.7832,-9.2317e-06,0
5.7837,8.3925e-07,0
5.7842,4.6998e-06,0
5.7847,6.714e-06,0
5.7853,1.1246e-05,0
5.7858,1.9638e-05,0
5.7863,3.1052e-05,0
5.7868,3.978e-05,0
5.7873,4.1123e-05,0
5.7879,3.6423e-05,0
5.7884,2.8031e-05,0
5.7889,1.7792e-05,0
5.7894,7.0497e-06,0
5.7899,-3.0213e-06,0
5.7905,-1.0239e-05,0
5.791,-1.4939e-05,0
5.7915,-1.796e-05,0
5.792,-1.7624e-05,0
5.7925,-1.2253e-05,0
5.7931,-5.0355e-06,0
5.7936,5.2033e-06,0
5.7941,2.3331e-05,0
5.7946,4.0116e-05,0
5.7951,4.9348e-05,0
5.7957,5.3208e-05,0
5.7962,5.1362e-05,0
5.7967,4.6998e-05,0
5.7972,4.3977e-05,0
5.7977,3.9445e-05,0
5.7983,3.1388e-05,0
5.7988,2.0478e-05,0
5.7993,9.0639e-06,0
5.7998,-1.3428e-06,0
5.8003,-6.2104e-06,0
5.8008,-2.8534e-06,0
5.8014,1.0407e-05,0
5.8019,3.0716e-05,0
5.8024,5.3544e-05,0
5.8029,6.7811e-05,0
5.8034,7.1336e-05,0
5.804,6.8315e-05,0
5.8045,5.7404e-05,0
5.805,3.5416e-05,0
5.8055,6.5461e-06,0
5.806,-1.6449e-05,0
5.8066,-2.5681e-05,0
5.8071,-2.7359e-05,0
5.8076,-2.6017e-05,0
5.8081,-2.1988e-05,0
5.8086,-1.326e-05,0
5.8092,2.8534e-06,0
5.8097,2.2492e-05,0
5.8102,3.2563e-05,0
5.8107,2.8199e-05,0
5.8112,2.1653e-05,0
5.8117,2.2324e-05,0
5.8123,1.6953e-05,0
5.8128,2.3499e-06,0
5.8133,-1.0239e-05,0
5.8138,-1.8967e-05,0
5.8143,-1.2421e-05,0
5.8149,1.5946e-05,0
5.8154,5.5894e-05,0
5.8159,9.1646e-05,0
5.8164,0.00011246,0
5.8169,0.00011514,0
5.8175,0.00010541,0
5.818,9.2988e-05,0
5.8185,8.0064e-05,0
5.819,7.1e-05,0
5.8195,6.6468e-05,0
5.8201,5.8915e-05,0
5.8206,4.5991e-05,0
5.8211,3.6088e-05,0
5.8216,2.8367e-05,0
5.8221,2.2324e-05,0
5.8227,1.8463e-05,0
5.8232,1.4939e-05,0
5.8237,1.0407e-05,0
5.8242,3.357e-06,0
5.8247,-5.8747e-06,0
5.8252,-1.561e-05,0
5.8258,-2.4506e-05,0
5.8263,-3.4745e-05,0
5.8268,-4.5823e-05,0
5.8273,-5.5726e-05,0
5.8278,-6.7643e-05,0
5.8284,-8.2246e-05,0
5.8289,-9.2149e-05,0
5.8294,-9.2149e-05,0
5.8299,-8.9799e-05,0
5.8304,-8.7617e-05,0
5.831,-7.6539e-05,0
5.8315,-5.0187e-05,0
5.832,-2.1653e-05,0
5.8325,3.357e-07,0
5.833,1.8296e-05,0
5.8336,3.9109e-05,0
5.8341,6.7475e-05,0
5.8346,9.7185e-05,0
5.8351,0.00011498,0
5.8356,0.00012035,0
5.8362,0.00012404,0
5.8367,0.000118,0
5.8372,9.2821e-05,0
5.8377,5.9754e-05,0
5.8382,3.5752e-05,0
5.8388,2.4338e-05,0
5.8393,1.9974e-05,0
5.8398,1.6953e-05,0
5.8403,1.2421e-05,0
5.8408,1.1582e-05,0
5.8413,1.7121e-05,0
5.8419,2.7359e-05,0
5.8424,3.8102e-05,0
5.8429,4.683e-05,0
5.8434,5.3544e-05,0
5.8439,5.3376e-05,0
5.8445,4.6662e-05,0
5.845,4.1459e-05,0
5.8455,3.743e-05,0
5.846,2.9709e-05,0
5.8465,1.8967e-05,0
5.8471,9.7353e-06,0
5.8476,1.0071e-06,0
5.8481,-1.0239e-05,0
5.8486,-2.4506e-05,0
5.8491,-3.8605e-05,0
5.8497,-5.1026e-05,0
5.8502,-6.3111e-05,0
5.8507,-7.0665e-05,0
5.8512,-6.8986e-05,0
5.8517,-6.1936e-05,0
5.8522,-5.388e-05,0
5.8528,-4.7166e-05,0
5.8533,-4.4648e-05,0
5.8538,-4.2802e-05,0
5.8543,-3.1388e-05,0
5.8548,-1.1582e-05,0
5.8554,1.1246e-05,0
5.8559,3.5248e-05,0
5.8564,4.9516e-05,0
5.8569,4.3809e-05,0
5.8574,2.6688e-05,0
5.858,1.5274e-05,0
5.8585,2.2156e-05,0
5.859,4.2802e-05,0
5.8595,6.2272e-05,0
5.86,7.335e-05,0
5.8606,8.4932e-05,0
5.8611,9.8527e-05,0
5.8616,0.00011196,0
5.8621,0.00013143,0
5.8626,0.00015996,0
5.8632,0.00020175,0
5.8637,0.00024288,0
5.8642,0.00025362,0
5.8647,0.00022811,0
5.8652,0.0001791,0
5.8658,0.00012874,0
5.8663,9.2821e-05,0
5.8668,7.0665e-05,0
5.8673,5.3208e-05,0
5.8678,3.8102e-05,0
5.8683,1.8631e-05,0
5.8689,-4.5319e-06,0
5.8694,-2.0981e-05,0
5.8699,-2.4674e-05,0
5.8704,-2.0645e-05,0
5.8709,-1.8463e-05,0
5.8715,-2.1988e-05,0
5.872,-2.5345e-05,0
5.8725,-2.7359e-05,0
5.873,-3.3738e-05,0
5.8735,-4.6159e-05,0
5.8741,-5.2201e-05,0
5.8746,-5.2537e-05,0
5.8751,-5.5222e-05,0
5.8756,-6.5293e-05,0
5.8761,-8.3085e-05,0
5.8767,-9.366e-05,0
5.8772,-8.4092e-05,0
5.8777,-6.2943e-05,0
5.8782,-4.3305e-05,0
5.8787,-2.7527e-05,0
5.8792,-1.2757e-05,0
5.8798,5.0355e-07,0
5.8803,7.2175e-06,0
5.8808,6.5461e-06,0
5.8813,6.5461e-06,0
5.8818,5.8747e-06,0
5.8824,-5.539e-06,0
5.8829,-2.2995e-05,0
5.8834,-3.0381e-05,0
5.8839,-2.266e-05,0
5.8844,-8.5603e-06,0
5.885,6.8818e-06,0
5.8855,2.1317e-05,0
5.886,2.6352e-05,0
5.8865,2.182e-05,0
5.887,1.9638e-05,0
5.8876,2.4002e-05,0
5.8881,2.887e-05,0
5.8886,2.8534e-05,0
5.8891,2.1149e-05,0
5.8896,1.0575e-05,0
5.8902,1.1749e-06,0
5.8907,-6.0426e-06,0
5.8912,-1.3931e-05,0
5.8917,-2.0478e-05,0
5.8922,-2.1988e-05,0
5.8928,-1.9974e-05,0
5.8933,-1.6785e-05,0
5.8938,-1.5442e-05,0
5.8943,-1.5274e-05,0
5.8948,-1.3092e-05,0
5.8953,-6.2104e-06,0
5.8959,1.6785e-06,0
5.8964,6.5461e-06,0
5.8969,1.0239e-05,0
5.8974,1.3931e-05,0
5.8979,1.3092e-05,0
5.8985,4.5319e-06,0
5.899,-6.5461e-06,0
5.8995,-1.7121e-05,0
5.9,-2.3331e-05,0
5.9005,-2.1988e-05,0
5.9011,-1.4267e-05,0
5.9016,-5.8747e-06,0
5.9021,2.8534e-06,0
5.9026,1.9471e-05,0
5.9031,3.6088e-05,0
5.9037,4.0787e-05,0
5.9042,3.3066e-05,0
5.9047,2.7024e-05,0
5.9052,3.357e-05,0
5.9057,4.6494e-05,0
5.9062,4.9516e-05,0
5.9068,3.4409e-05,0
5.9073,9.9031e-06,0
5.9078,-2.0142e-06,0
5.9083,1.326e-05,0
5.9088,4.8173e-05,0
5.9094,8.2078e-05,0
5.9099,0.00010121,0
5.9104,0.00010726,0
5.9109,0.00010658,0
5.9114,0.00010961,0
5.912,0.00013159,0
5.9125,0.00016265,0
5.913,0.00018111,0
5.9135,0.00017842,0
5.914,0.00015996,0
5.9146,0.00013747,0
5.9151,0.00011632,0
5.9156,0.00010272,0
5.9161,8.9799e-05,0
5.9166,7.7379e-05,0
5.9172,7.6036e-05,0
5.9177,7.8386e-05,0
5.9182,5.7572e-05,0
5.9187,1.3931e-05,0
5.9192,-2.1988e-05,0
5.9197,-3.4745e-05,0
5.9203,-3.2227e-05,0
5.9208,-1.8128e-05,0
5.9213,1.2589e-05,0
5.9218,4.4816e-05,0
5.9223,5.0187e-05,0
5.9229,3.0045e-05,0
5.9234,1.1078e-05,0
5.9239,6.714e-06,0
5.9244,7.8889e-06,0
5.9249,2.182e-06,0
5.9255,-8.2246e-06,0
5.926,-1.7288e-05,0
5.9265,-2.652e-05,0
5.927,-3.8773e-05,0
5.9275,-4.8508e-05,0
5.9281,-4.9348e-05,0
5.9286,-4.2802e-05,0
5.9291,-3.4409e-05,0
5.9296,-2.9709e-05,0
5.9301,-2.9206e-05,0
5.9307,-2.501e-05,0
5.9312,-1.8296e-05,0
5.9317,-1.6281e-05,0
5.9322,-2.1653e-05,0
5.9327,-2.9038e-05,0
5.9333,-3.2898e-05,0
5.9338,-3.1556e-05,0
5.9343,-2.9038e-05,0
5.9348,-2.9206e-05,0
5.9353,-3.1052e-05,0
5.9358,-3.122e-05,0
5.9364,-3.1724e-05,0
5.9369,-3.3738e-05,0
5.9374,-3.2563e-05,0
5.9379,-2.6017e-05,0
5.9384,-1.3092e-05,0
5.939,5.8747e-06,0
5.9395,2.1988e-05,0
5.94,2.7024e-05,0
5.9405,2.8534e-05,0
5.941,3.2731e-05,0
5.9416,3.8773e-05,0
5.9421,4.448e-05,0
5.9426,4.7501e-05,0
5.9431,4.4144e-05,0
5.9436,3.357e-05,0
5.9442,2.2156e-05,0
5.9447,1.8967e-05,0
5.9452,1.796e-05,0
5.9457,1.3931e-05,0
5.9462,8.896e-06,0
5.9467,4.6998e-06,0
5.9473,4.3641e-06,0
5.9478,9.5674e-06,0
5.9483,1.9135e-05,0
5.9488,2.7359e-05,0
5.9493,3.0381e-05,0
5.9499,2.9374e-05,0
5.9504,2.7024e-05,0
5.9509,2.3163e-05,0
5.9514,1.5946e-05,0
5.9519,1.6785e-06,0
5.9525,-2.5345e-05,0
5.953,-6.2608e-05,0
5.9535,-0.00010088,0
5.954,-0.00012236,0
5.9545,-0.00011498,0
5.9551,-8.6107e-05,0
5.9556,-5.2537e-05,0
5.9561,-1.7288e-05,0
5.9566,2.2324e-05,0
5.9571,6.9657e-05,0
5.9577,0.00012874,0
5.9582,0.00020528,0
5.9587,0.00028971,0
5.9592,0.00033469,0
5.9597,0.00030196,0
5.9603,0.00021015,0
5.9608,0.00011464,0
5.9613,5.8579e-05,0
5.9618,4.213e-05,0
5.9623,4.4144e-05,0
5.9628,4.8173e-05,0
5.9634,4.5823e-05,0
5.9639,3.6759e-05,0
5.9644,3.0381e-05,0
5.9649,2.5345e-05,0
5.9654,1.4603e-05,0
5.966,-5.7069e-06,0
5.9665,-2.6017e-05,0
5.967,-3.7263e-05,0
5.9675,-3.9612e-05,0
5.968,-4.0452e-05,0
5.9686,-4.3809e-05,0
5.9691,-5.0019e-05,0
5.9696,-5.623e-05,0
5.9701,-5.9251e-05,0
5.9706,-5.6901e-05,0
5.9712,-4.918e-05,0
5.9717,-3.6423e-05,0
5.9722,-1.9806e-05,0
5.9727,8.3925e-07,0
5.9732,2.4002e-05,0
5.9737,3.8102e-05,0
5.9743,3.4745e-05,0
5.9748,2.266e-05,0
5.9753,1.4939e-05,0
5.9758,1.326e-05,0
5.9763,1.0575e-05,0
5.9769,4.1962e-06,0
5.9774,-9.2317e-06,0
5.9779,-2.6688e-05,0
5.9784,-4.2634e-05,0
5.9789,-5.5558e-05,0
5.9795,-5.7069e-05,0
5.98,-3.9109e-05,0
5.9805,-2.8534e-06,0
5.981,4.5151e-05,0
5.9815,8.3085e-05,0
5.9821,8.9799e-05,0
5.9826,7.7379e-05,0
5.9831,7.0832e-05,0
5.9836,7.8386e-05,0
5.9841,9.7856e-05,0
5.9847,0.0001185,0
5.9852,0.00012908,0
5.9857,0.00012807,0
5.9862,0.00012404,0
5.9867,0.0001138,0
5.9873,9.0471e-05,0
5.9878,6.4958e-05,0
5.9883,4.4816e-05,0
5.9888,2.8702e-05,0
5.9893,1.8128e-05,0
5.9898,8.3925e-06,0
5.9904,-5.7069e-06,0
5.9909,-2.0645e-05,0
5.9914,-3.2563e-05,0
5.9919,-3.7095e-05,0
5.9924,-3.5752e-05,0
5.993,-3.3402e-05,0
5.9935,-2.887e-05,0
5.994,-1.6617e-05,0
5.9945,3.5248e-06,0
5.995,2.182e-05,0
5.9956,3.0716e-05,0
5.9961,3.3738e-05,0
5.9966,3.6423e-05,0
5.9971,3.8437e-05,0
5.9976,3.6759e-05,0
5.9982,3.1388e-05,0
5.9987,2.6017e-05,0
5.9992,2.1988e-05,0
5.9997,1.091e-05,0
6.0002,-1.0071e-05,0
6.0008,-2.8367e-05,0
6.0013,-3.5752e-05,0
6.0018,-3.508e-05,0
6.0023,-3.1724e-05,0
6.0028,-2.7024e-05,0
6.0033,-2.2492e-05,0
6.0039,-2.0478e-05,0
6.0044,-1.8967e-05,0
6.0049,-1.091e-05,0
6.0054,8.0568e-06,0
6.0059,3.4073e-05,0
6.0065,5.153e-05,0
6.007,5.5558e-05,0
6.0075,5.4719e-05,0
6.008,5.3376e-05,0
6.0085,4.6494e-05,0
6.0091,2.9206e-05,0
6.0096,9.0639e-06,0
6.0101,1.6785e-07,0
6.0106,2.0142e-06,0
6.0111,5.539e-06,0
6.0117,5.7069e-06,0
6.0122,1.3428e-06,0
6.0127,-7.0497e-06,0
6.0132,-1.796e-05,0
6.0137,-2.7359e-05,0
6.0142,-3.827e-05,0
6.0148,-5.5222e-05,0
6.0153,-7.2007e-05,0
6.0158,-7.8218e-05,0
6.0163,-7.3182e-05,0
6.0168,-5.8579e-05,0
6.0174,-3.6759e-05,0
6.0179,-1.1582e-05,0
6.0184,1.8967e-05,0
6.0189,5.623e-05,0
6.0194,0.00010188,0
6.02,0.00014267,0
6.0205,0.00015778,0
6.021,0.00014553,0
6.0215,0.00011598,0
6.022,8.0064e-05,0
6.0226,5.069e-05,0
6.0231,3.6591e-05,0
6.0236,3.3234e-05,0
6.0241,3.4073e-05,0
6.0246,3.8773e-05,0
6.0252,4.448e-05,0
6.0257,4.2802e-05,0
6.0262,3.6927e-05,0
6.0267,3.7095e-05,0
6.0272,4.5487e-05,0
6.0278,5.2201e-05,0
6.0283,4.4816e-05,0
6.0288,2.1149e-05,0
6.0293,-3.6927e-06,0
6.0298,-1.3764e-05,0
6.0303,-1.2924e-05,0
6.0309,-1.3931e-05,0
6.0314,-1.1749e-05,0
6.0319,-1.0071e-06,0
6.0324,9.3996e-06,0
6.0329,1.4603e-05,0
6.0335,1.6449e-05,0
6.034,1.5274e-05,0
6.0345,1.7456e-05,0
6.035,1.5274e-05,0
6.0355,8.7282e-06,0
6.0361,5.0355e-06,0
6.0366,1.5106e-06,0
6.0371,2.182e-06,0
6.0376,4.1962e-06,0
6.0381,6.714e-07,0
6.0387,-7.8889e-06,0
6.0392,-1.1246e-05,0
6.0397,-5.0355e-07,0
6.0402,1.2589e-05,0
6.0407,1.326e-05,0
6.0412,7.0497e-06,0
6.0418,5.8747e-06,0
6.0423,8.3925e-06,0
6.0428,5.539e-06,0
6.0433,1.1749e-06,0
6.0438,2.182e-06,0
6.0444,1.0239e-05,0
6.0449,2.6184e-05,0
6.0454,4.2802e-05,0
6.0459,5.0019e-05,0
6.0464,4.6494e-05,0
6.047,4.3809e-05,0
6.0475,4.7501e-05,0
6.048,5.4719e-05,0
6.0485,6.5293e-05,0
6.049,7.6539e-05,0
6.0496,8.1071e-05,0
6.0501,7.5029e-05,0
6.0506,5.9251e-05,0
6.0511,4.0116e-05,0
6.0516,2.2995e-05,0
6.0522,9.0639e-06,0
6.0527,-1.5106e-06,0
6.0532,-1.1749e-05,0
6.0537,-2.3667e-05,0
6.0542,-3.3066e-05,0
6.0548,-3.8941e-05,0
6.0553,-3.9277e-05,0
6.0558,-3.5752e-05,0
6.0563,-3.2059e-05,0
6.0568,-3.0716e-05,0
6.0573,-2.7359e-05,0
6.0579,-1.9638e-05,0
6.0584,-9.7353e-06,0
6.0589,1.6785e-07,0
6.0594,1.5946e-05,0
6.0599,4.0452e-05,0
6.0605,5.9754e-05,0
6.061,5.623e-05,0
6.0615,3.3402e-05,0
6.062,1.2757e-05,0
6.0625,6.2104e-06,0
6.0631,7.8889e-06,0
6.0636,6.5461e-06,0
6.0641,-2.5177e-06,0
6.0646,-2.0142e-05,0
6.0651,-3.3066e-05,0
6.0657,-2.4338e-05,0
6.0662,0,0
6.0667,2.1653e-05,0
6.0672,2.652e-05,0
6.0677,1.796e-05,0
6.0682,1.5946e-05,0
6.0688,3.1891e-05,0
6.0693,6.009e-05,0
6.0698,8.51e-05,0
6.0703,0.00010642,0
6.0708,0.00012773,0
6.0714,0.0001378,0
6.0719,0.00012538,0
6.0724,9.7856e-05,0
6.0729,7.1e-05,0
6.0734,5.153e-05,0
6.074,3.0716e-05,0
6.0745,-2.8534e-06,0
6.075,-3.7766e-05,0
6.0755,-5.9251e-05,0
6.076,-5.9586e-05,0
6.0766,-3.508e-05,0
6.0771,8.3925e-06,0
6.0776,5.3376e-05,0
6.0781,8.3925e-05,0
6.0786,9.4835e-05,0
6.0792,9.1814e-05,0
6.0797,9.1814e-05,0
6.0802,0.00010239,0
6.0807,0.00010541,0
6.0812,8.04e-05,0
6.0818,3.5752e-05,0
6.0823,-1.6785e-07,0
6.0828,-1.1414e-05,0
6.0833,-7.7211e-06,0
6.0838,-3.6927e-06,0
6.0843,1.1749e-06,0
6.0849,2.5177e-06,0
6.0854,0,0
6.0859,-6.8818e-06,0
6.0864,-2.7359e-05,0
6.0869,-6.0761e-05,0
6.0875,-8.8121e-05,0
6.088,-9.5506e-05,0
6.0885,-9.0471e-05,0
6.089,-7.805e-05,0
6.0895,-5.6901e-05,0
6.0901,-2.7695e-05,0
6.0906,0,0
6.0911,2.6352e-05,0
6.0916,5.539e-05,0
6.0921,8.4428e-05,0
6.0927,0.00010457,0
6.0932,0.00011514,0
6.0937,0.00011632,0
6.0942,9.6849e-05,0
6.0947,5.3544e-05,0
6.0953,5.8747e-06,0
6.0958,-2.4506e-05,0
6.0963,-3.508e-05,0
6.0968,-3.1388e-05,0
6.0973,-1.326e-05,0
6.0978,1.3596e-05,0
6.0984,3.0716e-05,0
6.0989,3.1891e-05,0
6.0994,3.2059e-05,0
6.0999,4.4984e-05,0
6.1004,6.3279e-05,0
6.101,7.1672e-05,0
6.1015,6.9322e-05,0
6.102,6.0258e-05,0
6.1025,4.6662e-05,0
6.103,3.1052e-05,0
6.1036,1.796e-05,0
6.1041,9.2317e-06,0
6.1046,6.2104e-06,0
6.1051,6.5461e-06,0
6.1056,6.8818e-06,0
6.1062,7.0497e-06,0
6.1067,5.0355e-06,0
6.1072,1.1749e-06,0
6.1077,-5.0355e-06,0
6.1082,-1.0407e-05,0
6.1087,-1.7121e-05,0
6.1093,-2.7024e-05,0
6.1098,-3.2563e-05,0
6.1103,-2.7359e-05,0
6.1108,-2.0981e-05,0
6.1113,-2.4338e-05,0
6.1119,-3.4409e-05,0
6.1124,-3.5416e-05,0
6.1129,-2.3331e-05,0
6.1134,-8.5603e-06,0
6.1139,3.8605e-06,0
6.1145,9.5674e-06,0
6.115,8.896e-06,0
6.1155,1.1246e-05,0
6.116,2.1988e-05,0
6.1165,3.5416e-05,0
6.1171,4.1459e-05,0
6.1176,3.9109e-05,0
6.1181,3.6423e-05,0
6.1186,3.0884e-05,0
6.1191,2.266e-05,0
6.1197,1.5946e-05,0
6.1202,1.1917e-05,0
6.1207,9.9031e-06,0
6.1212,1.0575e-05,0
6.1217,1.0575e-05,0
6.1223,1.7288e-05,0
6.1228,3.1724e-05,0
6.1233,4.1459e-05,0
6.1238,4.683e-05,0
6.1243,5.5894e-05,0
6.1248,5.9922e-05,0
6.1254,5.5894e-05,0
6.1259,4.683e-05,0
6.1264,3.2731e-05,0
6.1269,1.5946e-05,0
6.1274,-2.8534e-06,0
6.128,-2.6184e-05,0
6.1285,-4.8341e-05,0
6.129,-6.2104e-05,0
6.1295,-6.8315e-05,0
6.13,-6.8818e-05,0
6.1306,-6.6636e-05,0
6.1311,-6.479e-05,0
6.1316,-6.0929e-05,0
6.1321,-5.2873e-05,0
6.1326,-3.4409e-05,0
6.1332,8.3925e-07,0
6.1337,4.213e-05,0
6.1342,7.2343e-05,0
6.1347,8.4428e-05,0
6.1352,8.275e-05,0
6.1357,7.9393e-05,0
6.1363,8.7114e-05,0
6.1368,0.00010306,0
6.1373,0.00011363,0
6.1378,0.00011044,0
6.1383,9.7856e-05,0
6.1389,8.8457e-05,0
6.1394,8.5771e-05,0
6.1399,9.0639e-05,0
6.1404,9.7185e-05,0
6.1409,0.00010155,0
6.1415,0.00010423,0
6.142,0.00010927,0
6.1425,0.00011347,0
6.143,0.00010457,0
6.1435,7.9393e-05,0
6.1441,5.0523e-05,0
6.1446,2.8031e-05,0
6.1451,9.2317e-06,0
6.1456,-5.539e-06,0
6.1461,-1.2589e-05,0
6.1467,-1.561e-05,0
6.1472,-1.9806e-05,0
6.1477,-2.9038e-05,0
6.1482,-3.9109e-05,0
6.1487,-4.5487e-05,0
6.1493,-4.213e-05,0
6.1498,-2.3835e-05,0
6.1503,-2.182e-06,0
6.1508,9.0639e-06,0
6.1513,7.5532e-06,0
6.1518,1.5106e-06,0
6.1524,5.0355e-07,0
6.1529,6.2104e-06,0
6.1534,1.2924e-05,0
6.1539,1.5274e-05,0
6.1544,1.1749e-05,0
6.155,7.5532e-06,0
6.1555,5.8747e-06,0
6.156,5.2033e-06,0
6.1565,6.2104e-06,0
6.157,1.0071e-05,0
6.1576,1.6785e-05,0
6.1581,2.4338e-05,0
6.1586,2.9709e-05,0
6.1591,3.3402e-05,0
6.1596,3.6759e-05,0
6.1602,3.508e-05,0
6.1607,2.4506e-05,0
6.1612,8.5603e-06,0
6.1617,-7.5532e-06,0
6.1622,-2.1653e-05,0
6.1627,-2.7695e-05,0
6.1633,-2.1988e-05,0
6.1638,-1.2589e-05,0
6.1643,-1.6617e-05,0
6.1648,-4.1794e-05,0
6.1653,-6.9993e-05,0
6.1659,-8.51e-05,0
6.1664,-8.896e-05,0
6.1669,-8.8121e-05,0
6.1674,-8.04e-05,0
6.1679,-6.3279e-05,0
6.1685,-4.2634e-05,0
6.169,-2.0981e-05,0
6.1695,6.5461e-06,0
6.17,4.5487e-05,0
6.1705,9.8527e-05,0
6.1711,0.00015291,0
6.1716,0.00018581,0
6.1721,0.00018849,0
6.1726,0.0001707,0
6.1731,0.00014116,0
6.1737,0.00010726,0
6.1742,7.7379e-05,0
6.1747,5.4887e-05,0
6.1752,4.1459e-05,0
6.1757,3.2563e-05,0
6.1762,2.031e-05,0
6.1768,6.5461e-06,0
6.1773,-7.0497e-06,0
6.1778,-2.0645e-05,0
6.1783,-2.9374e-05,0
6.1788,-3.0045e-05,0
6.1794,-2.6184e-05,0
6.1799,-2.182e-05,0
6.1804,-1.7121e-05,0
6.1809,-1.1414e-05,0
6.1814,-6.2104e-06,0
6.182,1.1749e-06,0
6.1825,1.8631e-05,0
6.183,4.1459e-05,0
6.1835,5.7404e-05,0
6.184,6.3951e-05,0
6.1846,6.0594e-05,0
6.1851,4.8005e-05,0
6.1856,3.3066e-05,0
6.1861,2.182e-05,0
6.1866,1.2924e-05,0
6.1872,4.1962e-06,0
6.1877,-4.3641e-06,0
6.1882,-1.3428e-05,0
6.1887,-2.3667e-05,0
6.1892,-3.3066e-05,0
6.1898,-4.2802e-05,0
6.1903,-5.0858e-05,0
6.1908,-5.4215e-05,0
6.1913,-5.0187e-05,0
6.1918,-3.6591e-05,0
6.1923,-1.5274e-05,0
6.1929,6.8818e-06,0
6.1934,2.6352e-05,0
6.1939,4.6159e-05,0
6.1944,5.8579e-05,0
6.1949,5.8244e-05,0
6.1955,5.6565e-05,0
6.196,5.623e-05,0
6.1965,4.8173e-05,0
6.197,3.743e-05,0
6.1975,3.8437e-05,0
6.1981,4.448e-05,0
6.1986,4.0787e-05,0
6.1991,3.0549e-05,0
6.1996,2.7024e-05,0
6.2001,3.9612e-05,0
6.2007,6.1265e-05,0
6.2012,7.9057e-05,0
6.2017,9.1478e-05,0
6.2022,0.00010524,0
6.2027,0.00010591,0
6.2032,8.7114e-05,0
6.2038,6.5461e-05,0
6.2043,4.8508e-05,0
6.2048,3.0045e-05,0
6.2053,1.1414e-05,0
6.2058,6.714e-07,0
6.2064,-8.5603e-06,0
6.2069,-2.3667e-05,0
6.2074,-3.6423e-05,0
6.2079,-3.7766e-05,0
6.2084,-2.5345e-05,0
6.209,-5.539e-06,0
6.2095,1.2253e-05,0
6.21,1.2924e-05,0
6.2105,-1.6785e-06,0
6.211,-1.2589e-05,0
6.2116,-9.2317e-06,0
6.2121,8.3925e-07,0
6.2126,4.5319e-06,0
6.2131,3.357e-07,0
6.2136,-3.1891e-06,0
6.2142,-1.5106e-06,0
6.2147,4.1962e-06,0
6.2152,7.2175e-06,0
6.2157,7.2175e-06,0
6.2162,8.5603e-06,0
6.2168,1.2589e-05,0
6.2173,1.9303e-05,0
6.2178,2.6688e-05,0
6.2183,3.1388e-05,0
6.2188,3.0716e-05,0
6.2193,2.3163e-05,0
6.2199,1.1246e-05,0
6.2204,5.2033e-06,0
6.2209,5.2033e-06,0
6.2214,7.5532e-06,0
6.2219,9.5674e-06,0
6.2225,8.5603e-06,0
6.223,4.5319e-06,0
6.2235,-1.1749e-06,0
6.224,-3.1891e-06,0
6.2245,7.2175e-06,0
6.2251,3.3066e-05,0
6.2256,5.9083e-05,0
6.2261,7.1e-05,0
6.2266,6.6972e-05,0
6.2271,5.7572e-05,0
6.2277,5.0858e-05,0
6.2282,4.5487e-05,0
6.2287,3.9109e-05,0
6.2292,3.6927e-05,0
6.2297,3.7095e-05,0
6.2302,3.1388e-05,0
6.2308,2.3163e-05,0
6.2313,2.1317e-05,0
6.2318,2.6352e-05,0
6.2323,3.3402e-05,0
6.2328,3.508e-05,0
6.2334,2.6017e-05,0
6.2339,1.1246e-05,0
6.2344,-1.5106e-06,0
6.2349,-5.539e-06,0
6.2354,4.1962e-06,0
6.236,2.031e-05,0
6.2365,2.5681e-05,0
6.237,2.1149e-05,0
6.2375,2.0478e-05,0
6.238,2.9709e-05,0
6.2386,4.1794e-05,0
6.2391,4.3809e-05,0
6.2396,4.0787e-05,0
6.2401,3.7934e-05,0
6.2406,3.4409e-05,0
6.2412,3.0716e-05,0
6.2417,2.4002e-05,0
6.2422,1.2924e-05,0
6.2427,3.1891e-06,0
6.2432,-2.182e-06,0
6.2438,-5.539e-06,0
6.2443,-8.3925e-06,0
6.2448,-1.5442e-05,0
6.2453,-2.8367e-05,0
6.2458,-4.0116e-05,0
6.2463,-4.5319e-05,0
6.2469,-4.9851e-05,0
6.2474,-5.4887e-05,0
6.2479,-6.0426e-05,0
6.2484,-6.2104e-05,0
6.2489,-6.0594e-05,0
6.2495,-5.4719e-05,0
6.25,-3.8773e-05,0
6.2505,-1.1414e-05,0
6.251,1.7624e-05,0
6.2515,3.4409e-05,0
6.2521,4.1123e-05,0
6.2526,5.069e-05,0
6.2531,8.0064e-05,0
6.2536,0.00012203,0
6.2541,0.00014804,0
6.2547,0.00014888,0
6.2552,0.00013747,0
6.2557,0.00011968,0
6.2562,0.00010054,0
6.2567,8.04e-05,0
6.2572,5.7237e-05,0
6.2578,3.2731e-05,0
6.2583,1.4603e-05,0
6.2588,2.182e-06,0
6.2593,-7.5532e-06,0
6.2598,-1.561e-05,0
6.2604,-1.9638e-05,0
6.2609,-2.0478e-05,0
6.2614,-2.0478e-05,0
6.2619,-1.8967e-05,0
6.2624,-1.4267e-05,0
6.263,-7.2175e-06,0
6.2635,4.3641e-06,0
6.264,1.8967e-05,0
6.2645,2.9877e-05,0
6.265,3.1052e-05,0
6.2656,2.1653e-05,0
6.2661,6.2104e-06,0
6.2666,-3.357e-07,0
6.2671,4.1962e-06,0
6.2676,5.2033e-06,0
6.2682,-3.5248e-06,0
6.2687,-1.7624e-05,0
6.2692,-3.1388e-05,0
6.2697,-4.213e-05,0
6.2702,-4.448e-05,0
6.2707,-3.357e-05,0
6.2713,-1.2924e-05,0
6.2718,9.9031e-06,0
6.2723,3.1052e-05,0
6.2728,4.1794e-05,0
6.2733,4.3977e-05,0
6.2739,4.9683e-05,0
6.2744,6.1265e-05,0
6.2749,7.1672e-05,0
6.2754,7.4022e-05,0
6.2759,6.5965e-05,0
6.2765,4.9516e-05,0
6.277,3.5416e-05,0
6.2775,2.4674e-05,0
6.278,1.2589e-05,0
6.2785,3.8605e-06,0
6.2791,2.5177e-06,0
6.2796,-5.8747e-06,0
6.2801,-2.2828e-05,0
6.2806,-2.652e-05,0
6.2811,-8.2246e-06,0
6.2817,1.3596e-05,0
6.2822,2.5849e-05,0
6.2827,4.0452e-05,0
6.2832,7.0497e-05,0
6.2837,0.0001086,0
6.2843,0.00013629,0
6.2848,0.00014334,0
6.2853,0.0001331,0
6.2858,0.00011447,0
6.2863,9.8527e-05,0
6.2868,9.0135e-05,0
6.2874,8.3421e-05,0
6.2879,7.4357e-05,0
6.2884,6.0258e-05,0
6.2889,3.6927e-05,0
6.2894,1.0575e-05,0
6.29,-3.8605e-06,0
6.2905,-5.2033e-06,0
6.291,-1.0071e-06,0
6.2915,-2.182e-06,0
6.292,-1.2924e-05,0
6.2926,-3.0213e-05,0
6.2931,-4.683e-05,0
6.2936,-5.3376e-05,0
6.2941,-5.2369e-05,0
6.2946,-5.1865e-05,0
6.2952,-5.6565e-05,0
6.2957,-6.4958e-05,0
6.2962,-7.2007e-05,0
6.2967,-7.3686e-05,0
6.2972,-7.2175e-05,0
6.2977,-6.4118e-05,0
6.2983,-4.6494e-05,0
6.2988,-2.6352e-05,0
6.2993,-1.5106e-05,0
6.2998,-1.5778e-05,0
6.3003,-1.561e-05,0
6.3009,1.8463e-06,0
6.3014,2.7024e-05,0
6.3019,4.2298e-05,0
6.3024,5.1362e-05,0
6.3029,5.7069e-05,0
6.3035,5.7572e-05,0
6.304,5.7572e-05,0
6.3045,5.9586e-05,0
6.305,5.6565e-05,0
6.3055,4.7837e-05,0
6.3061,3.4241e-05,0
6.3066,1.796e-05,0
6.3071,7.2175e-06,0
6.3076,2.8534e-06,0
6.3081,1.5106e-06,0
6.3087,5.0355e-07,0
6.3092,-1.3428e-06,0
6.3097,-1.0071e-06,0
6.3102,4.1962e-06,0
6.3107,7.5532e-06,0
6.3113,6.3783e-06,0
6.3118,9.2317e-06,0
6.3123,1.4939e-05,0
6.3128,1.5778e-05,0
6.3133,1.1078e-05,0
6.3138,7.7211e-06,0
6.3144,2.0142e-06,0
6.3149,-7.0497e-06,0
6.3154,-1.1749e-05,0
6.3159,-9.3996e-06,0
6.3164,-4.1962e-06,0
6.317,1.1749e-06,0
6.3175,1.0239e-05,0
6.318,2.3667e-05,0
6.3185,4.1123e-05,0
6.319,6.1936e-05,0
6.3196,8.3421e-05,0
6.3201,9.9031e-05,0
6.3206,0.00010574,0
6.3211,0.00010574,0
6.3216,0.00010037,0
6.3222,9.4163e-05,0
6.3227,8.4932e-05,0
6.3232,7.0329e-05,0
6.3237,5.623e-05,0
6.3242,4.2466e-05,0
6.3247,2.4002e-05,0
6.3253,0,0
6.3258,-2.6688e-05,0
6.3263,-4.5823e-05,0
6.3268,-5.4215e-05,0
6.3273,-6.4622e-05,0
6.3279,-8.6107e-05,0
6.3284,-0.00011145,0
6.3289,-0.0001284,0
6.3294,-0.00012639,0
6.3299,-9.836e-05,0
6.3305,-5.4383e-05,0
6.331,-1.0407e-05,0
6.3315,3.3906e-05,0
6.332,6.7643e-05,0
6.3325,8.0735e-05,0
6.3331,8.3085e-05,0
6.3336,9.0303e-05,0
6.3341,0.00010994,0
6.3346,0.00013529,0
6.3351,0.00014452,0
6.3357,0.00012337,0
6.3362,8.8457e-05,0
6.3367,6.6972e-05,0
6.3372,6.6972e-05,0
6.3377,7.7714e-05,0
6.3383,9.1646e-05,0
6.3388,0.00010927,0
6.3393,0.00012723,0
6.3398,0.00013596,0
6.3403,0.00012908,0
6.3408,0.00010843,0
6.3414,8.3757e-05,0
6.3419,6.4622e-05,0
6.3424,4.7333e-05,0
6.3429,2.5345e-05,0
6.3434,-8.3925e-07,0
6.344,-2.3667e-05,0
6.3445,-3.5752e-05,0
6.345,-3.7934e-05,0
6.3455,-3.3738e-05,0
6.346,-2.8031e-05,0
6.3466,-1.9471e-05,0
6.3471,-1.091e-05,0
6.3476,-9.9031e-06,0
6.3481,-1.3596e-05,0
6.3486,-1.5274e-05,0
6.3492,-1.4267e-05,0
6.3497,-1.1246e-05,0
6.3502,-8.2246e-06,0
6.3507,-3.5248e-06,0
6.3512,-1.1749e-06,0
6.3518,-1.5106e-06,0
6.3523,-3.8605e-06,0
6.3528,-5.8747e-06,0
6.3533,-4.5319e-06,0
6.3538,-4.8676e-06,0
6.3543,-8.3925e-06,0
6.3549,-1.4267e-05,0
6.3554,-1.8631e-05,0
6.3559,-1.7288e-05,0
6.3564,-1.2253e-05,0
6.3569,-8.2246e-06,0
6.3575,-8.7282e-06,0
6.358,-9.2317e-06,0
6.3585,-1.1078e-05,0
6.359,-1.3596e-05,0
6.3595,-1.326e-05,0
6.3601,-9.3996e-06,0
6.3606,-2.182e-06,0
6.3611,3.8605e-06,0
6.3616,2.8534e-06,0
6.3621,-3.6927e-06,0
6.3627,-7.7211e-06,0
6.3632,-9.3996e-06,0
6.3637,-7.2175e-06,0
6.3642,5.0355e-07,0
6.3647,5.7069e-06,0
6.3652,5.8747e-06,0
6.3658,3.6927e-06,0
6.3663,3.5248e-06,0
6.3668,5.0355e-06,0
6.3673,4.5319e-06,0
6.3678,-1.6785e-07,0
6.3684,-7.2175e-06,0
6.3689,-8.2246e-06,0
6.3694,-1.1749e-06,0
6.3699,5.539e-06,0
6.3704,8.2246e-06,0
6.371,1.1749e-05,0
6.3715,1.8296e-05,0
6.372,2.4338e-05,0
6.3725,2.266e-05,0
6.373,1.6617e-05,0
6.3736,1.9303e-05,0
6.3741,3.1052e-05,0
6.3746,4.5487e-05,0
6.3751,5.4719e-05,0
6.3756,5.8244e-05,0
6.3762,5.7572e-05,0
6.3767,5.4551e-05,0
6.3772,5.0019e-05,0
6.3777,4.0955e-05,0
6.3782,2.6688e-05,0
6.3788,1.1246e-05,0
6.3793,5.0355e-07,0
6.3798,-3.357e-07,0
6.3803,7.8889e-06,0
6.3808,2.2995e-05,0
6.3813,3.6088e-05,0
6.3819,4.0116e-05,0
6.3824,3.5584e-05,0
6.3829,2.8702e-05,0
6.3834,2.6688e-05,0
6.3839,3.4073e-05,0
6.3845,4.448e-05,0
6.385,4.9348e-05,0
6.3855,4.8844e-05,0
6.386,4.7669e-05,0
6.3865,4.9516e-05,0
6.3871,5.4719e-05,0
6.3876,6.2272e-05,0
6.3881,7.2007e-05,0
6.3886,8.3757e-05,0
6.3891,9.6849e-05,0
6.3897,0.00010524,0
6.3902,0.00010541,0
6.3907,9.9535e-05,0
6.3912,9.0974e-05,0
6.3917,7.3686e-05,0
6.3922,4.8844e-05,0
6.3928,2.3835e-05,0
6.3933,-8.3925e-07,0
6.3938,-1.7792e-05,0
6.3943,-2.8367e-05,0
6.3948,-4.6662e-05,0
6.3954,-6.7643e-05,0
6.3959,-7.7546e-05,0
6.3964,-7.2679e-05,0
6.3969,-6.0258e-05,0
6.3974,-4.2802e-05,0
6.398,-2.0645e-05,0
6.3985,3.5248e-06,0
6.399,3.0884e-05,0
6.3995,6.244e-05,0
6.4,9.0135e-05,0
6.4006,0.00010457,0
6.4011,0.00010188,0
6.4016,8.2582e-05,0
6.4021,4.9516e-05,0
6.4026,1.3931e-05,0
6.4032,-1.796e-05,0
6.4037,-4.3137e-05,0
6.4042,-5.8915e-05,0
6.4047,-6.9825e-05,0
6.4052,-8.0735e-05,0
6.4058,-8.04e-05,0
6.4063,-6.5293e-05,0
6.4068,-4.3473e-05,0
6.4073,-2.1988e-05,0
6.4078,5.0355e-07,0
6.4083,2.0645e-05,0
6.4089,3.5416e-05,0
6.4094,5.0187e-05,0
6.4099,6.9322e-05,0
6.4104,8.7449e-05,0
6.4109,0.00010088,0
6.4115,0.00010323,0
6.412,8.7449e-05,0
6.4125,5.774e-05,0
6.413,2.0478e-05,0
6.4135,-2.031e-05,0
6.4141,-5.153e-05,0
6.4146,-6.9322e-05,0
6.4151,-7.6371e-05,0
6.4156,-7.9393e-05,0
6.4161,-7.5364e-05,0
6.4167,-5.9419e-05,0
6.4172,-3.827e-05,0
6.4177,-1.2924e-05,0
6.4182,2.1988e-05,0
6.4187,6.0929e-05,0
6.4192,0.00010121,0
6.4198,0.00014351,0
6.4203,0.00017272,0
6.4208,0.0001702,0
6.4213,0.00014166,0
6.4218,0.00010692,0
6.4224,8.1743e-05,0
6.4229,6.7643e-05,0
6.4234,5.3544e-05,0
6.4239,4.0787e-05,0
6.4244,3.3066e-05,0
6.425,2.8367e-05,0
6.4255,2.4002e-05,0
6.426,1.7121e-05,0
6.4265,7.7211e-06,0
6.427,3.357e-06,0
6.4276,5.8747e-06,0
6.4281,6.5461e-06,0
6.4286,1.6785e-07,0
6.4291,-1.1246e-05,0
6.4296,-2.0981e-05,0
6.4302,-2.7527e-05,0
6.4307,-3.122e-05,0
6.4312,-2.7024e-05,0
6.4317,-1.3596e-05,0
6.4322,0,0
6.4328,6.2104e-06,0
6.4333,6.714e-06,0
6.4338,9.9031e-06,0
6.4343,1.7121e-05,0
6.4348,2.1317e-05,0
6.4353,2.2324e-05,0
6.4359,2.652e-05,0
6.4364,3.0045e-05,0
6.4369,3.0549e-05,0
6.4374,2.7527e-05,0
6.4379,1.7288e-05,0
6.4385,-1.6785e-06,0
6.439,-2.2995e-05,0
6.4395,-4.3473e-05,0
6.44,-6.0594e-05,0
6.4405,-6.9657e-05,0
6.4411,-6.6972e-05,0
6.4416,-5.4551e-05,0
6.4421,-3.6591e-05,0
6.4426,-1.6449e-05,0
6.4431,8.3925e-06,0
6.4437,3.8102e-05,0
6.4442,6.479e-05,0
6.4447,8.2078e-05,0
6.4452,8.9128e-05,0
6.4457,8.2246e-05,0
6.4463,7.6036e-05,0
6.4468,7.8721e-05,0
6.4473,6.3615e-05,0
6.4478,2.3667e-05,0
6.4483,-1.3764e-05,0
6.4488,-3.0549e-05,0
6.4494,-3.7263e-05,0
6.4499,-4.1123e-05,0
6.4504,-3.7263e-05,0
6.4509,-2.4506e-05,0
6.4514,-6.3783e-06,0
6.452,1.1078e-05,0
6.4525,3.1556e-05,0
6.453,6.3615e-05,0
6.4535,0.00010105,0
6.454,0.00011984,0
6.4546,0.00010944,0
6.4551,8.6107e-05,0
6.4556,7.4189e-05,0
6.4561,7.4525e-05,0
6.4566,8.1407e-05,0
6.4572,8.6442e-05,0
6.4577,8.3253e-05,0
6.4582,6.5965e-05,0
6.4587,3.6759e-05,0
6.4592,6.714e-06,0
6.4597,-1.4267e-05,0
6.4603,-2.3667e-05,0
6.4608,-2.501e-05,0
6.4613,-2.4506e-05,0
6.4618,-2.7192e-05,0
6.4623,-2.7527e-05,0
6.4629,-1.7624e-05,0
6.4634,-1.5106e-06,0
6.4639,1.1917e-05,0
6.4644,2.031e-05,0
6.4649,2.4674e-05,0
6.4655,2.7527e-05,0
6.466,2.5513e-05,0
6.4665,1.5778e-05,0
6.467,6.0426e-06,0
6.4675,5.2033e-06,0
6.4681,6.5461e-06,0
6.4686,3.6927e-06,0
6.4691,-4.8676e-06,0
6.4696,-2.3331e-05,0
6.4701,-4.1627e-05,0
6.4707,-4.448e-05,0
6.4712,-3.5248e-05,0
6.4717,-2.3331e-05,0
6.4722,-1.2253e-05,0
6.4727,-2.8534e-06,0
6.4733,-1.5106e-06,0
6.4738,-7.7211e-06,0
6.4743,-1.6281e-05,0
6.4748,-1.5946e-05,0
6.4753,3.5248e-06,0
6.4758,2.9374e-05,0
6.4764,4.0116e-05,0
6.4769,3.592e-05,0
6.4774,3.1556e-05,0
6.4779,3.6759e-05,0
6.4784,4.7501e-05,0
6.479,5.4719e-05,0
6.4795,6.0258e-05,0
6.48,6.2943e-05,0
6.4805,5.9922e-05,0
6.481,5.6062e-05,0
6.4816,5.0355e-05,0
6.4821,4.2802e-05,0
6.4826,3.3234e-05,0
6.4831,1.796e-05,0
6.4836,2.182e-06,0
6.4842,-7.2175e-06,0
6.4847,-7.8889e-06,0
6.4852,-5.2033e-06,0
6.4857,-8.3925e-07,0
6.4862,1.091e-05,0
6.4867,3.1724e-05,0
6.4873,4.7837e-05,0
6.4878,4.9851e-05,0
6.4883,4.6494e-05,0
6.4888,4.6159e-05,0
6.4893,4.4984e-05,0
6.4899,3.592e-05,0
6.4904,1.9471e-05,0
6.4909,3.1891e-06,0
6.4914,-9.2317e-06,0
6.4919,-1.8967e-05,0
6.4925,-2.5681e-05,0
6.493,-2.3499e-05,0
6.4935,-1.3931e-05,0
6.494,-5.539e-06,0
6.4945,-1.1749e-06,0
6.4951,2.182e-06,0
6.4956,5.8747e-06,0
6.4961,1.1917e-05,0
6.4966,2.6352e-05,0
6.4971,5.5558e-05,0
6.4977,8.4092e-05,0
6.4982,8.7449e-05,0
6.4987,6.6972e-05,0
6.4992,4.6326e-05,0
6.4997,4.4144e-05,0
6.5003,5.8915e-05,0
6.5008,7.2007e-05,0
6.5013,6.865e-05,0
6.5018,5.0858e-05,0
6.5023,2.9709e-05,0
6.5028,1.5946e-05,0
6.5034,1.1917e-05,0
6.5039,1.4267e-05,0
6.5044,1.5274e-05,0
6.5049,9.5674e-06,0
6.5054,4.8676e-06,0
6.506,7.5532e-06,0
6.5065,1.4771e-05,0
6.507,1.561e-05,0
6.5075,7.3854e-06,0
6.508,3.1891e-06,0
6.5086,5.2033e-06,0
6.5091,2.8534e-06,0
6.5096,-2.182e-06,0
6.5101,-4.5319e-06,0
6.5106,-1.8463e-06,0
6.5112,3.357e-07,0
6.5117,-3.1891e-06,0
6.5122,-4.1962e-06,0
6.5127,8.5603e-06,0
6.5132,2.6688e-05,0
6.5137,3.4913e-05,0
6.5143,2.8367e-05,0
6.5148,1.561e-05,0
6.5153,4.1962e-06,0
6.5158,-1.6785e-06,0
6.5163,-2.8534e-06,0
6.5169,-6.8818e-06,0
6.5174,-1.3596e-05,0
6.5179,-1.7121e-05,0
6.5184,-1.1917e-05,0
6.5189,-1.1749e-06,0
6.5195,6.0426e-06,0
6.52,1.1917e-05,0
6.5205,2.0981e-05,0
6.521,3.0381e-05,0
6.5215,3.1388e-05,0
6.5221,2.2995e-05,0
6.5226,1.4939e-05,0
6.5231,1.1582e-05,0
6.5236,1.0575e-05,0
6.5241,1.5946e-05,0
6.5247,2.5681e-05,0
6.5252,2.7695e-05,0
6.5257,1.9974e-05,0
6.5262,7.7211e-06,0
6.5267,4.8676e-06,0
6.5273,2.6688e-05,0
6.5278,6.0594e-05,0
6.5283,8.0903e-05,0
6.5288,8.4428e-05,0
6.5293,8.1407e-05,0
6.5298,7.7714e-05,0
6.5304,8.1575e-05,0
6.5309,8.9632e-05,0
6.5314,9.6513e-05,0
6.5319,9.836e-05,0
6.5324,9.1142e-05,0
6.533,7.6036e-05,0
6.5335,5.8915e-05,0
6.534,3.9612e-05,0
6.5345,1.7792e-05,0
6.535,4.0284e-06,0
6.5356,4.5319e-06,0
6.5361,1.326e-05,0
6.5366,2.1988e-05,0
6.5371,2.7024e-05,0
6.5376,2.7359e-05,0
6.5382,2.5345e-05,0
6.5387,2.1317e-05,0
6.5392,1.3931e-05,0
6.5397,5.8747e-06,0
6.5402,-1.5106e-06,0
6.5408,-9.5674e-06,0
6.5413,-1.6953e-05,0
6.5418,-2.1653e-05,0
6.5423,-2.6184e-05,0
6.5428,-3.122e-05,0
6.5433,-3.7095e-05,0
6.5439,-4.448e-05,0
6.5444,-4.8173e-05,0
6.5449,-4.3473e-05,0
6.5454,-3.5752e-05,0
6.5459,-3.2563e-05,0
6.5465,-3.3402e-05,0
6.547,-3.2395e-05,0
6.5475,-2.3331e-05,0
6.548,-1.1078e-05,0
6.5485,-6.714e-07,0
6.5491,1.0575e-05,0
6.5496,1.9303e-05,0
6.5501,2.2324e-05,0
6.5506,2.1149e-05,0
6.5511,1.7624e-05,0
6.5517,1.561e-05,0
6.5522,1.6281e-05,0
6.5527,1.9638e-05,0
6.5532,2.3667e-05,0
6.5537,2.417e-05,0
6.5542,2.2156e-05,0
6.5548,1.6281e-05,0
6.5553,8.896e-06,0
6.5558,6.0426e-06,0
6.5563,8.2246e-06,0
6.5568,1.1582e-05,0
6.5574,1.0407e-05,0
6.5579,7.2175e-06,0
6.5584,7.0497e-06,0
6.5589,1.4267e-05,0
6.5594,2.4674e-05,0
6.56,3.1724e-05,0
6.5605,3.6759e-05,0
6.561,3.7766e-05,0
6.5615,3.4241e-05,0
6.562,2.8534e-05,0
6.5626,2.2324e-05,0
6.5631,1.5778e-05,0
6.5636,9.0639e-06,0
6.5641,-2.0142e-06,0
6.5646,-1.6449e-05,0
6.5652,-2.8367e-05,0
6.5657,-3.978e-05,0
6.5662,-5.388e-05,0
6.5667,-6.4622e-05,0
6.5672,-6.3447e-05,0
6.5678,-5.2201e-05,0
6.5683,-3.3738e-05,0
6.5688,-1.4267e-05,0
6.5693,2.5177e-06,0
6.5698,2.266e-05,0
6.5703,4.4816e-05,0
6.5709,6.6804e-05,0
6.5714,9.2821e-05,0
6.5719,0.00011733,0
6.5724,0.00012941,0
6.5729,0.0001274,0
6.5735,0.00011347,0
6.574,9.1814e-05,0
6.5745,7.2343e-05,0
6.575,6.63e-05,0
6.5755,7.8386e-05,0
6.5761,9.4835e-05,0
6.5766,9.5674e-05,0
6.5771,8.0568e-05,0
6.5776,6.1936e-05,0
6.5781,5.2369e-05,0
6.5787,5.8579e-05,0
6.5792,7.1672e-05,0
6.5797,8.0064e-05,0
6.5802,8.3085e-05,0
6.5807,7.4022e-05,0
6.5812,4.7669e-05,0
6.5818,1.3764e-05,0
6.5823,-1.7288e-05,0
6.5828,-3.9445e-05,0
6.5833,-5.0355e-05,0
6.5838,-5.4215e-05,0
6.5844,-5.0523e-05,0
6.5849,-3.6759e-05,0
6.5854,-1.796e-05,0
6.5859,3.357e-07,0
6.5864,1.9974e-05,0
6.587,3.6255e-05,0
6.5875,4.3809e-05,0
6.588,4.1459e-05,0
6.5885,3.5416e-05,0
6.589,3.4577e-05,0
6.5896,4.0787e-05,0
6.5901,4.3137e-05,0
6.5906,3.2059e-05,0
6.5911,1.1414e-05,0
6.5916,-7.7211e-06,0
6.5922,-2.0645e-05,0
6.5927,-2.9709e-05,0
6.5932,-3.9109e-05,0
6.5937,-4.4144e-05,0
6.5942,-4.448e-05,0
6.5948,-4.4648e-05,0
6.5953,-3.9277e-05,0
6.5958,-2.5513e-05,0
6.5963,-7.5532e-06,0
6.5968,1.3596e-05,0
6.5973,4.6326e-05,0
6.5979,8.7449e-05,0
6.5984,0.00012438,0
6.5989,0.00014032,0
6.5994,0.00012924,0
6.5999,0.00010054,0
6.6005,7.3182e-05,0
6.601,5.1698e-05,0
6.6015,3.1556e-05,0
6.602,1.7121e-05,0
6.6025,7.8889e-06,0
6.6031,-1.5106e-06,0
6.6036,-1.796e-05,0
6.6041,-3.9277e-05,0
6.6046,-6.1433e-05,0
6.6051,-7.6371e-05,0
6.6057,-7.8386e-05,0
6.6062,-7.1504e-05,0
6.6067,-6.2776e-05,0
6.6072,-5.4551e-05,0
6.6077,-4.448e-05,0
6.6082,-2.8031e-05,0
6.6088,-1.6785e-06,0
6.6093,3.1388e-05,0
6.6098,6.4286e-05,0
6.6103,8.8289e-05,0
6.6108,9.6178e-05,0
6.6114,8.5435e-05,0
6.6119,6.865e-05,0
6.6124,6.1936e-05,0
6.6129,6.0594e-05,0
6.6134,5.2201e-05,0
6.614,3.743e-05,0
6.6145,2.9709e-05,0
6.615,3.5416e-05,0
6.6155,4.5823e-05,0
6.616,4.918e-05,0
6.6166,4.4144e-05,0
6.6171,3.5752e-05,0
6.6176,2.7359e-05,0
6.6181,2.0981e-05,0
6.6186,1.4435e-05,0
6.6192,7.5532e-06,0
6.6197,1.1749e-06,0
6.6202,-1.5106e-06,0
6.6207,2.3499e-06,0
6.6212,2.182e-06,0
6.6217,-5.539e-06,0
6.6223,-1.1246e-05,0
6.6228,-9.7353e-06,0
6.6233,-6.2104e-06,0
6.6238,-5.539e-06,0
6.6243,-7.8889e-06,0
6.6249,-8.2246e-06,0
6.6254,-2.182e-06,0
6.6259,2.5177e-06,0
6.6264,1.6785e-06,0
6.6269,-1.5106e-06,0
6.6275,-2.5177e-06,0
6.628,-8.3925e-07,0
6.6285,4.0284e-06,0
6.629,1.0239e-05,0
6.6295,1.2924e-05,0
6.6301,1.1246e-05,0
6.6306,6.0426e-06,0
6.6311,-5.0355e-07,0
6.6316,-5.2033e-06,0
6.6321,-9.2317e-06,0
6.6327,-1.6281e-05,0
6.6332,-2.4338e-05,0
6.6337,-2.8367e-05,0
6.6342,-3.1052e-05,0
6.6347,-3.827e-05,0
6.6353,-4.8844e-05,0
6.6358,-5.1865e-05,0
6.6363,-4.1459e-05,0
6.6368,-2.5513e-05,0
6.6373,-7.5532e-06,0
6.6378,1.5274e-05,0
6.6384,3.5248e-05,0
6.6389,5.0019e-05,0
6.6394,6.6133e-05,0
6.6399,8.4764e-05,0
6.6404,0.00010558,0
6.641,0.00012605,0
6.6415,0.00013344,0
6.642,0.0001237,0
6.6425,0.00010222,0
6.643,8.3589e-05,0
6.6436,7.7379e-05,0
6.6441,7.5029e-05,0
6.6446,6.5965e-05,0
6.6451,4.8173e-05,0
6.6456,2.3667e-05,0
6.6462,-5.7069e-06,0
6.6467,-3.357e-05,0
6.6472,-4.4648e-05,0
6.6477,-4.0452e-05,0
6.6482,-3.2059e-05,0
6.6487,-2.6184e-05,0
6.6493,-2.031e-05,0
6.6498,-9.0639e-06,0
6.6503,8.2246e-06,0
6.6508,3.0381e-05,0
6.6513,5.5055e-05,0
6.6519,6.8986e-05,0
6.6524,6.1265e-05,0
6.6529,4.448e-05,0
6.6534,4.0955e-05,0
6.6539,5.0523e-05,0
6.6545,5.4887e-05,0
6.655,5.0858e-05,0
6.6555,5.3544e-05,0
6.656,6.8986e-05,0
6.6565,8.3589e-05,0
6.6571,8.8289e-05,0
6.6576,8.4092e-05,0
6.6581,7.7043e-05,0
6.6586,6.5461e-05,0
6.6591,4.8173e-05,0
6.6597,3.0716e-05,0
6.6602,1.8463e-05,0
6.6607,1.5274e-05,0
6.6612,1.8296e-05,0
6.6617,1.9638e-05,0
6.6623,1.1582e-05,0
6.6628,-3.357e-06,0
6.6633,-1.6281e-05,0
6.6638,-2.266e-05,0
6.6643,-3.5752e-05,0
6.6648,-6.8818e-05,0
6.6654,-9.8192e-05,0
6.6659,-0.00010155,0
6.6664,-8.9464e-05,0
6.6669,-7.2679e-05,0
6.6674,-4.7333e-05,0
6.668,-8.3925e-06,0
6.6685,3.6088e-05,0
6.669,6.7811e-05,0
6.6695,8.1071e-05,0
6.67,9.1814e-05,0
6.6706,0.00010256,0
6.6711,0.00010541,0
6.6716,0.00010088,0
6.6721,8.1743e-05,0
6.6726,5.3208e-05,0
6.6732,3.1052e-05,0
6.6737,1.7624e-05,0
6.6742,8.896e-06,0
6.6747,4.5319e-06,0
6.6752,5.0355e-07,0
6.6757,-2.8534e-06,0
6.6763,2.8534e-06,0
6.6768,1.4267e-05,0
6.6773,1.8967e-05,0
6.6778,1.8463e-05,0
6.6783,2.2324e-05,0
6.6789,2.2995e-05,0
6.6794,1.0575e-05,0
6.6799,-5.2033e-06,0
6.6804,-8.3925e-06,0
6.6809,6.714e-07,0
6.6815,1.4267e-05,0
6.682,2.4506e-05,0
6.6825,2.0813e-05,0
6.683,4.3641e-06,0
6.6835,-1.0239e-05,0
6.6841,-1.6617e-05,0
6.6846,-2.2324e-05,0
6.6851,-2.652e-05,0
6.6856,-2.5177e-05,0
6.6861,-1.9806e-05,0
6.6867,-1.6281e-05,0
6.6872,-2.0645e-05,0
6.6877,-2.9038e-05,0
6.6882,-3.592e-05,0
6.6887,-3.8437e-05,0
6.6893,-3.2563e-05,0
6.6898,-1.796e-05,0
6.6903,-8.3925e-07,0
6.6908,1.4435e-05,0
6.6913,2.5345e-05,0
6.6918,3.8102e-05,0
6.6924,5.6901e-05,0
6.6929,7.5029e-05,0
6.6934,8.275e-05,0
6.6939,7.6371e-05,0
6.6944,6.2943e-05,0
6.695,4.7501e-05,0
6.6955,3.3402e-05,0
6.696,1.796e-05,0
6.6965,2.182e-06,0
6.697,-7.5532e-06,0
6.6976,-1.2253e-05,0
6.6981,-1.2253e-05,0
6.6986,-2.3499e-06,0
6.6991,1.4267e-05,0
6.6996,2.887e-05,0
6.7002,3.6927e-05,0
6.7007,4.3305e-05,0
6.7012,5.4551e-05,0
6.7017,7.1e-05,0
6.7022,8.5435e-05,0
6.7027,8.8289e-05,0
6.7033,7.8553e-05,0
6.7038,6.2608e-05,0
6.7043,4.6998e-05,0
6.7048,3.8773e-05,0
6.7053,3.7766e-05,0
6.7059,3.743e-05,0
6.7064,3.2731e-05,0
6.7069,2.7024e-05,0
6.7074,2.4002e-05,0
6.7079,2.2492e-05,0
6.7085,2.1317e-05,0
6.709,2.1653e-05,0
6.7095,2.0645e-05,0
6.71,1.5106e-05,0
6.7105,8.896e-06,0
6.7111,6.714e-06,0
6.7116,4.5319e-06,0
6.7121,-1.3428e-06,0
6.7126,-8.896e-06,0
6.7131,-1.5442e-05,0
6.7137,-2.1149e-05,0
6.7142,-3.5584e-05,0
6.7147,-6.5965e-05,0
6.7152,-0.00010222,0
6.7157,-0.00013344,0
6.7162,-0.00014871,0
6.7168,-0.00013948,0
6.7173,-0.00011783,0
6.7178,-0.00010105,0
6.7183,-9.1646e-05,0
6.7188,-8.3757e-05,0
6.7194,-5.8747e-05,0
6.7199,3.5248e-06,0
6.7204,9.3828e-05,0
6.7209,0.00018077,0
6.7214,0.00023348,0
6.722,0.00023751,0
6.7225,0.00020998,0
6.723,0.00017574,0
6.7235,0.00014754,0
6.724,0.00013344,0
6.7246,0.00013411,0
6.7251,0.00013881,0
6.7256,0.00013545,0
6.7261,0.00011565,0
6.7266,8.7785e-05,0
6.7272,7.2175e-05,0
6.7277,6.9993e-05,0
6.7282,6.8315e-05,0
6.7287,6.4286e-05,0
6.7292,5.9586e-05,0
6.7298,5.0858e-05,0
6.7303,4.0116e-05,0
6.7308,2.5345e-05,0
6.7313,1.0575e-05,0
6.7318,4.1962e-06,0
6.7323,3.6927e-06,0
6.7329,3.1891e-06,0
6.7334,-8.3925e-07,0
6.7339,-8.2246e-06,0
6.7344,-1.2589e-05,0
6.7349,-1.3931e-05,0
6.7355,-1.6617e-05,0
6.736,-2.3835e-05,0
6.7365,-3.4745e-05,0
6.737,-4.3809e-05,0
6.7375,-4.9012e-05,0
6.7381,-5.1026e-05,0
6.7386,-5.2873e-05,0
6.7391,-5.9251e-05,0
6.7396,-6.865e-05,0
6.7401,-7.0665e-05,0
6.7407,-6.1936e-05,0
6.7412,-5.0523e-05,0
6.7417,-3.9445e-05,0
6.7422,-3.0716e-05,0
6.7427,-2.4338e-05,0
6.7432,-1.4939e-05,0
6.7438,-6.3783e-06,0
6.7443,1.8463e-06,0
6.7448,1.5946e-05,0
6.7453,3.0045e-05,0
6.7458,3.4745e-05,0
6.7464,2.9038e-05,0
6.7469,1.5274e-05,0
6.7474,9.5674e-06,0
6.7479,1.796e-05,0
6.7484,3.0381e-05,0
6.749,3.3738e-05,0
6.7495,2.7359e-05,0
6.75,1.3931e-05,0
6.7505,-1.5106e-06,0
6.751,-1.3764e-05,0
6.7516,-2.1653e-05,0
6.7521,-1.9638e-05,0
6.7526,-5.0355e-06,0
6.7531,1.5946e-05,0
6.7536,2.7359e-05,0
6.7542,2.2156e-05,0
6.7547,1.091e-05,0
6.7552,8.2246e-06,0
6.7557,2.0645e-05,0
6.7562,4.6159e-05,0
6.7568,8.2414e-05,0
6.7573,0.00011716,0
6.7578,0.00012186,0
6.7583,9.5171e-05,0
6.7588,6.5965e-05,0
6.7593,5.2201e-05,0
6.7599,5.4719e-05,0
6.7604,6.3447e-05,0
6.7609,6.6972e-05,0
6.7614,6.1097e-05,0
6.7619,4.8844e-05,0
6.7625,3.5248e-05,0
6.763,2.2324e-05,0
6.7635,8.3925e-06,0
6.764,-8.896e-06,0
6.7645,-2.031e-05,0
6.7651,-2.0981e-05,0
6.7656,-1.4939e-05,0
6.7661,-1.0239e-05,0
6.7666,-8.2246e-06,0
6.7671,-5.0355e-06,0
6.7677,1.8463e-06,0
6.7682,1.4099e-05,0
6.7687,2.6688e-05,0
6.7692,3.6088e-05,0
6.7697,4.1459e-05,0
6.7702,4.3305e-05,0
6.7708,4.2802e-05,0
6.7713,4.3305e-05,0
6.7718,4.4144e-05,0
6.7723,4.2634e-05,0
6.7728,3.5248e-05,0
6.7734,2.3667e-05,0
6.7739,1.6449e-05,0
6.7744,2.266e-05,0
6.7749,3.508e-05,0
6.7754,3.743e-05,0
6.776,2.8702e-05,0
6.7765,1.6953e-05,0
6.777,5.2033e-06,0
6.7775,-1.2253e-05,0
6.778,-3.508e-05,0
6.7786,-4.9851e-05,0
6.7791,-4.8844e-05,0
6.7796,-3.4073e-05,0
6.7801,-1.4099e-05,0
6.7806,1.6785e-07,0
6.7812,3.0213e-06,0
6.7817,8.3925e-07,0
6.7822,7.3854e-06,0
6.7827,2.7527e-05,0
6.7832,5.9419e-05,0
6.7838,8.8121e-05,0
6.7843,8.9632e-05,0
6.7848,6.2272e-05,0
6.7853,3.6591e-05,0
6.7858,2.8702e-05,0
6.7863,2.6688e-05,0
6.7869,1.6785e-05,0
6.7874,4.1962e-06,0
6.7879,-3.8605e-06,0
6.7884,-8.5603e-06,0
6.7889,-1.1582e-05,0
6.7895,-1.0575e-05,0
6.79,-5.8747e-06,0
6.7905,1.0071e-06,0
6.791,1.1246e-05,0
6.7915,2.2492e-05,0
6.7921,2.266e-05,0
6.7926,3.357e-06,0
6.7931,-2.6688e-05,0
6.7936,-5.2873e-05,0
6.7941,-7.2007e-05,0
6.7947,-8.4092e-05,0
6.7952,-8.5267e-05,0
6.7957,-7.1672e-05,0
6.7962,-4.6159e-05,0
6.7967,-1.8128e-05,0
6.7973,9.2317e-06,0
6.7978,4.062e-05,0
6.7983,7.9225e-05,0
6.7988,0.00012404,0
6.7993,0.00017423,0
6.7998,0.00021804,0
6.8004,0.00023482,0
6.8009,0.0002172,0
6.8014,0.00017372,0
6.8019,0.00011716,0
6.8024,6.5293e-05,0
6.803,3.1724e-05,0
6.8035,1.7456e-05,0
6.804,1.3092e-05,0
6.8045,9.7353e-06,0
6.805,6.5461e-06,0
6.8056,3.6927e-06,0
6.8061,3.1891e-06,0
6.8066,5.8747e-06,0
6.8071,7.5532e-06,0
6.8076,4.5319e-06,0
6.8082,0,0
6.8087,-5.539e-06,0
6.8092,-9.7353e-06,0
6.8097,-1.4099e-05,0
6.8102,-1.6953e-05,0
6.8107,-1.7288e-05,0
6.8113,-1.6953e-05,0
6.8118,-1.9303e-05,0
6.8123,-2.2995e-05,0
6.8128,-1.9303e-05,0
6.8133,-8.3925e-06,0
6.8139,4.0284e-06,0
6.8144,8.5603e-06,0
6.8149,1.5106e-06,0
6.8154,-1.1582e-05,0
6.8159,-2.3835e-05,0
6.8165,-3.3402e-05,0
6.817,-4.1123e-05,0
6.8175,-4.6326e-05,0
6.818,-4.6494e-05,0
6.8185,-4.1459e-05,0
6.8191,-3.1724e-05,0
6.8196,-1.9135e-05,0
6.8201,-7.5532e-06,0
6.8206,-2.182e-06,0
6.8211,8.2246e-06,0
6.8217,3.0381e-05,0
6.8222,4.918e-05,0
6.8227,5.6565e-05,0
6.8232,6.2104e-05,0
6.8237,7.1e-05,0
6.8243,7.1672e-05,0
6.8248,5.6901e-05,0
6.8253,3.0716e-05,0
6.8258,5.2033e-06,0
6.8263,-1.0239e-05,0
6.8268,-1.7624e-05,0
6.8274,-2.2995e-05,0
6.8279,-3.0381e-05,0
6.8284,-3.4577e-05,0
6.8289,-2.7695e-05,0
6.8294,-9.7353e-06,0
6.83,2.031e-05,0
6.8305,6.2943e-05,0
6.831,0.00010524,0
6.8315,0.00013243,0
6.832,0.00013881,0
6.8326,0.0001279,0
6.8331,9.8863e-05,0
6.8336,6.2943e-05,0
6.8341,3.743e-05,0
6.8346,2.6017e-05,0
6.8352,1.8967e-05,0
6.8357,9.3996e-06,0
6.8362,5.0355e-07,0
6.8367,0,0
6.8372,9.0639e-06,0
6.8377,2.2324e-05,0
6.8383,3.508e-05,0
6.8388,3.7934e-05,0
6.8393,2.501e-05,0
6.8398,2.0142e-06,0
6.8403,-1.561e-05,0
6.8409,-1.9974e-05,0
6.8414,-1.1582e-05,0
6.8419,3.5248e-06,0
6.8424,1.9471e-05,0
6.8429,3.6423e-05,0
6.8435,5.2537e-05,0
6.844,6.2104e-05,0
6.8445,6.4118e-05,0
6.845,6.4622e-05,0
6.8455,6.2608e-05,0
6.8461,5.8579e-05,0
6.8466,5.4047e-05,0
6.8471,4.9851e-05,0
6.8476,3.743e-05,0
6.8481,1.8967e-05,0
6.8487,-1.0071e-06,0
6.8492,-1.9135e-05,0
6.8497,-3.6088e-05,0
6.8502,-4.8173e-05,0
6.8507,-5.0355e-05,0
6.8513,-5.0187e-05,0
6.8518,-5.2705e-05,0
6.8523,-5.1026e-05,0
6.8528,-3.7766e-05,0
6.8533,-1.8967e-05,0
6.8538,-5.2033e-06,0
6.8544,2.5177e-06,0
6.8549,1.4435e-05,0
6.8554,3.4913e-05,0
6.8559,5.8915e-05,0
6.8564,7.7043e-05,0
6.857,8.4092e-05,0
6.8575,7.7714e-05,0
6.858,6.3447e-05,0
6.8585,5.0523e-05,0
6.859,4.3305e-05,0
6.8596,3.2563e-05,0
6.8601,1.4603e-05,0
6.8606,1.8463e-06,0
6.8611,-2.5177e-06,0
6.8616,-1.2253e-05,0
6.8622,-3.1724e-05,0
6.8627,-5.0858e-05,0
6.8632,-6.0258e-05,0
6.8637,-5.7404e-05,0
6.8642,-4.5319e-05,0
6.8647,-2.7024e-05,0
6.8653,-8.896e-06,0
6.8658,2.8534e-06,0
6.8663,1.0239e-05,0
6.8668,2.1653e-05,0
6.8673,3.9277e-05,0
6.8679,5.6901e-05,0
6.8684,7.4861e-05,0
6.8689,9.2149e-05,0
6.8694,9.4667e-05,0
6.8699,7.7714e-05,0
6.8705,5.6565e-05,0
6.871,4.1962e-05,0
6.8715,3.6423e-05,0
6.872,3.7095e-05,0
6.8725,4.2634e-05,0
6.8731,5.2201e-05,0
6.8736,5.9922e-05,0
6.8741,6.2943e-05,0
6.8746,6.1769e-05,0
6.8751,6.3447e-05,0
6.8757,6.4286e-05,0
6.8762,5.4887e-05,0
6.8767,3.743e-05,0
6.8772,2.3499e-05,0
6.8777,1.2253e-05,0
6.8783,2.5177e-06,0
6.8788,-3.1891e-06,0
6.8793,-5.2033e-06,0
6.8798,-4.8676e-06,0
6.8803,-5.2033e-06,0
6.8808,-6.0426e-06,0
6.8814,-8.2246e-06,0
6.8819,-8.0568e-06,0
6.8824,-5.539e-06,0
6.8829,-3.8605e-06,0
6.8834,-3.1891e-06,0
6.884,5.0355e-07,0
6.8845,5.8747e-06,0
6.885,7.2175e-06,0
6.8855,2.5177e-06,0
6.886,-8.3925e-07,0
6.8866,3.357e-07,0
6.8871,2.5177e-06,0
6.8876,4.1962e-06,0
6.8881,5.8747e-06,0
6.8886,1.326e-05,0
6.8892,2.4002e-05,0
6.8897,2.8534e-05,0
6.8902,2.031e-05,0
6.8907,6.2104e-06,0
6.8912,-3.5248e-06,0
6.8918,-6.3783e-06,0
6.8923,-6.8818e-06,0
6.8928,-9.7353e-06,0
6.8933,-1.1749e-05,0
6.8938,-8.3925e-06,0
6.8943,-8.3925e-07,0
6.8949,3.8605e-06,0
6.8954,6.8818e-06,0
6.8959,1.091e-05,0
6.8964,1.2924e-05,0
6.8969,7.8889e-06,0
6.8975,-1.0071e-06,0
6.898,-9.2317e-06,0
6.8985,-1.5274e-05,0
6.899,-1.8967e-05,0
6.8995,-1.8463e-05,0
6.9001,-2.0478e-05,0
6.9006,-2.6688e-05,0
6.9011,-2.7695e-05,0
6.9016,-1.8967e-05,0
6.9021,-5.0355e-06,0
6.9027,1.2253e-05,0
6.9032,2.5177e-05,0
6.9037,2.8367e-05,0
6.9042,3.6255e-05,0
6.9047,5.1698e-05,0
6.9052,6.3951e-05,0
6.9058,6.2943e-05,0
6.9063,4.8173e-05,0
6.9068,2.9038e-05,0
6.9073,9.5674e-06,0
6.9078,-2.8534e-06,0
6.9084,7.8889e-06,0
6.9089,4.4648e-05,0
6.9094,8.5771e-05,0
6.9099,0.00011246,0
6.9104,0.00012169,0
6.911,0.00012035,0
6.9115,0.00012102,0
6.912,0.00013143,0
6.9125,0.00014888,0
6.913,0.00015828,0
6.9136,0.00014955,0
6.9141,0.0001237,0
6.9146,9.0806e-05,0
6.9151,5.8244e-05,0
6.9156,3.3402e-05,0
6.9162,2.031e-05,0
6.9167,1.5274e-05,0
6.9172,1.2924e-05,0
6.9177,1.2253e-05,0
6.9182,1.1246e-05,0
6.9188,5.539e-06,0
6.9193,-3.6927e-06,0
6.9198,-6.5461e-06,0
6.9203,-7.3854e-06,0
6.9208,-1.7624e-05,0
6.9213,-3.1724e-05,0
6.9219,-3.5752e-05,0
6.9224,-2.9038e-05,0
6.9229,-2.2324e-05,0
6.9234,-2.1149e-05,0
6.9239,-1.8631e-05,0
6.9245,-9.3996e-06,0
6.925,3.0213e-06,0
6.9255,1.5778e-05,0
6.926,2.7527e-05,0
6.9265,3.2059e-05,0
6.9271,2.6017e-05,0
6.9276,1.2085e-05,0
6.9281,-2.6856e-06,0
6.9286,-1.6281e-05,0
6.9291,-2.501e-05,0
6.9297,-2.8199e-05,0
6.9302,-3.3066e-05,0
6.9307,-3.9948e-05,0
6.9312,-4.3809e-05,0
6.9317,-4.4984e-05,0
6.9322,-4.7837e-05,0
6.9328,-5.1362e-05,0
6.9333,-5.0019e-05,0
6.9338,-4.3137e-05,0
6.9343,-3.122e-05,0
6.9348,-1.6617e-05,0
6.9354,-5.0355e-07,0
6.9359,1.8631e-05,0
6.9364,4.4144e-05,0
6.9369,6.6972e-05,0
6.9374,7.5029e-05,0
6.938,7.5364e-05,0
6.9385,7.5364e-05,0
6.939,6.6804e-05,0
6.9395,4.3305e-05,0
6.94,1.4603e-05,0
6.9406,-5.8747e-06,0
6.9411,-1.7456e-05,0
6.9416,-2.0645e-05,0
6.9421,-2.1988e-05,0
6.9426,-2.182e-05,0
6.9432,-1.9303e-05,0
6.9437,-1.7288e-05,0
6.9442,-1.2253e-05,0
6.9447,1.3428e-06,0
6.9452,2.1988e-05,0
6.9458,4.0284e-05,0
6.9463,5.1698e-05,0
6.9468,5.7572e-05,0
6.9473,6.2272e-05,0
6.9478,6.4118e-05,0
6.9483,5.388e-05,0
6.9489,3.3402e-05,0
6.9494,1.7792e-05,0
6.9499,1.6953e-05,0
6.9504,2.417e-05,0
6.9509,3.592e-05,0
6.9515,5.5222e-05,0
6.952,7.7714e-05,0
6.9525,8.6778e-05,0
6.953,7.4693e-05,0
6.9535,5.2369e-05,0
6.9541,3.5416e-05,0
6.9546,3.0381e-05,0
6.9551,3.3234e-05,0
6.9556,3.7095e-05,0
6.9561,3.9445e-05,0
6.9567,4.1459e-05,0
6.9572,4.0787e-05,0
6.9577,4.1794e-05,0
6.9582,4.8844e-05,0
6.9587,4.5151e-05,0
6.9592,2.1317e-05,0
6.9598,-6.2104e-06,0
6.9603,-1.8967e-05,0
6.9608,-1.5946e-05,0
6.9613,-1.091e-05,0
6.9618,-1.4435e-05,0
6.9624,-2.0981e-05,0
6.9629,-2.3835e-05,0
6.9634,-2.4338e-05,0
6.9639,-2.2324e-05,0
6.9644,-1.6617e-05,0
6.965,-1.1917e-05,0
6.9655,-1.1078e-05,0
6.966,-9.0639e-06,0
6.9665,-3.8605e-06,0
6.967,3.5248e-06,0
6.9676,1.4267e-05,0
6.9681,3.0045e-05,0
6.9686,4.2634e-05,0
6.9691,4.0955e-05,0
6.9696,2.7695e-05,0
6.9702,1.7288e-05,0
6.9707,1.6953e-05,0
6.9712,2.1988e-05,0
6.9717,2.5345e-05,0
6.9722,2.887e-05,0
6.9727,3.5248e-05,0
6.9733,4.3809e-05,0
6.9738,4.6494e-05,0
6.9743,4.0116e-05,0
6.9748,3.4745e-05,0
6.9753,3.4745e-05,0
6.9759,2.9374e-05,0
6.9764,1.2253e-05,0
6.9769,-1.3596e-05,0
6.9774,-3.5416e-05,0
6.9779,-4.3137e-05,0
6.9785,-3.6088e-05,0
6.979,-2.0981e-05,0
6.9795,-3.0213e-06,0
6.98,1.6617e-05,0
6.9805,3.8605e-05,0
6.9811,5.7572e-05,0
6.9816,7.0329e-05,0
6.9821,8.1071e-05,0
6.9826,8.7785e-05,0
6.9831,7.9057e-05,0
6.9837,5.2201e-05,0
6.9842,2.1317e-05,0
6.9847,-1.6785e-07,0
6.9852,-1.0407e-05,0
6.9857,-1.2924e-05,0
6.9863,-1.4435e-05,0
6.9868,-1.2757e-05,0
6.9873,-6.2104e-06,0
6.9878,6.2104e-06,0
6.9883,2.5345e-05,0
6.9888,4.5991e-05,0
6.9894,6.0929e-05,0
6.9899,6.5461e-05,0
6.9904,5.8244e-05,0
6.9909,4.9516e-05,0
6.9914,4.683e-05,0
6.992,5.069e-05,0
6.9925,5.1698e-05,0
6.993,3.743e-05,0
6.9935,7.2175e-06,0
6.994,-2.3163e-05,0
6.9946,-3.7766e-05,0
6.9951,-3.4073e-05,0
6.9956,-2.6017e-05,0
6.9961,-2.2324e-05,0
6.9966,-2.031e-05,0
6.9972,-1.4435e-05,0
6.9977,-3.1891e-06,0
6.9982,1.7121e-05,0
6.9987,5.0858e-05,0
6.9992,8.6778e-05,0
6.9997,0.00010423,0
7.0003,9.6345e-05,0
7.0008,7.4693e-05,0
7.0013,5.3544e-05,0
7.0018,3.743e-05,0
7.0023,2.8031e-05,0
7.0029,2.6688e-05,0
7.0034,2.5681e-05,0
7.0039,1.8296e-05,0
7.0044,9.9031e-06,0
7.0049,8.2246e-06,0
7.0055,1.2253e-05,0
7.006,1.7288e-05,0
7.0065,2.0981e-05,0
7.007,2.0645e-05,0
7.0075,1.8296e-05,0
7.0081,1.6449e-05,0
7.0086,1.7288e-05,0
7.0091,1.8967e-05,0
7.0096,2.0645e-05,0
7.0101,2.182e-05,0
7.0107,1.8631e-05,0
7.0112,1.3596e-05,0
7.0117,1.3931e-05,0
7.0122,1.9135e-05,0
7.0127,2.0142e-05,0
7.0133,1.9303e-05,0
7.0138,2.1317e-05,0
7.0143,2.0813e-05,0
7.0148,1.1246e-05,0
7.0153,-2.6856e-06,0
7.0158,-1.4099e-05,0
7.0164,-1.8296e-05,0
7.0169,-1.561e-05,0
7.0174,-1.0407e-05,0
7.0179,-6.3783e-06,0
7.0184,-3.5248e-06,0
7.019,-2.5177e-06,0
7.0195,-4.1962e-06,0
7.02,-3.5248e-06,0
7.0205,2.182e-06,0
7.021,7.8889e-06,0
7.0216,4.3641e-06,0
7.0221,-3.0213e-06,0
7.0226,-1.8463e-06,0
7.0231,6.5461e-06,0
7.0236,1.1414e-05,0
7.0242,1.2253e-05,0
7.0247,1.5274e-05,0
7.0252,2.3667e-05,0
7.0257,3.592e-05,0
7.0262,3.8773e-05,0
7.0267,2.6184e-05,0
7.0273,5.0355e-06,0
7.0278,-1.5274e-05,0
7.0283,-2.6017e-05,0
7.0288,-2.2995e-05,0
7.0293,-1.1582e-05,0
7.0299,3.357e-07,0
7.0304,1.2253e-05,0
7.0309,2.1317e-05,0
7.0314,2.3835e-05,0
7.0319,1.9303e-05,0
7.0325,1.4099e-05,0
7.033,1.6617e-05,0
7.0335,2.9709e-05,0
7.034,4.4144e-05,0
7.0345,4.213e-05,0
7.0351,2.2995e-05,0
7.0356,3.357e-06,0
7.0361,-2.8534e-06,0
7.0366,5.0355e-07,0
7.0371,6.2104e-06,0
7.0377,1.326e-05,0
7.0382,2.2995e-05,0
7.0387,3.4409e-05,0
7.0392,4.1794e-05,0
7.0397,4.1459e-05,0
7.0403,3.8605e-05,0
7.0408,4.0116e-05,0
7.0413,4.683e-05,0
7.0418,5.1865e-05,0
7.0423,4.7837e-05,0
7.0428,4.0452e-05,0
7.0434,3.6759e-05,0
7.0439,3.743e-05,0
7.0444,4.062e-05,0
7.0449,4.3305e-05,0
7.0454,4.213e-05,0
7.046,3.3234e-05,0
7.0465,1.4603e-05,0
7.047,-9.7353e-06,0
7.0475,-3.5416e-05,0
7.048,-5.7069e-05,0
7.0486,-6.6468e-05,0
7.0491,-6.5461e-05,0
7.0496,-5.7908e-05,0
7.0501,-4.6159e-05,0
7.0506,-3.3234e-05,0
7.0512,-2.2492e-05,0
7.0517,-6.8818e-06,0
7.0522,2.8367e-05,0
7.0527,8.2918e-05,0
7.0532,0.00013042,0
7.0537,0.00014687,0
7.0543,0.00014083,0
7.0548,0.00013092,0
7.0553,0.000118,0
7.0558,9.2485e-05,0
7.0563,5.8915e-05,0
7.0569,3.0381e-05,0
7.0574,1.4771e-05,0
7.0579,7.5532e-06,0
7.0584,4.8676e-06,0
7.0589,5.539e-06,0
7.0595,1.0071e-05,0
7.06,1.9974e-05,0
7.0605,3.3738e-05,0
7.061,4.0116e-05,0
7.0615,3.7095e-05,0
7.0621,3.3402e-05,0
7.0626,3.978e-05,0
7.0631,5.1362e-05,0
7.0636,5.8579e-05,0
7.0641,5.8915e-05,0
7.0647,5.9754e-05,0
7.0652,6.2272e-05,0
7.0657,5.7572e-05,0
7.0662,3.6088e-05,0
7.0667,3.8605e-06,0
7.0672,-1.9303e-05,0
7.0678,-2.4674e-05,0
7.0683,-2.2324e-05,0
7.0688,-2.0645e-05,0
7.0693,-2.031e-05,0
7.0698,-2.1653e-05,0
7.0704,-2.7192e-05,0
7.0709,-3.2059e-05,0
7.0714,-2.9374e-05,0
7.0719,-1.9974e-05,0
7.0724,-9.5674e-06,0
7.073,-1.6785e-06,0
7.0735,3.8605e-06,0
7.074,7.2175e-06,0
7.0745,1.0575e-05,0
7.075,1.6617e-05,0
7.0756,2.3667e-05,0
7.0761,2.6017e-05,0
7.0766,2.2492e-05,0
7.0771,1.8128e-05,0
7.0776,1.5946e-05,0
7.0782,9.7353e-06,0
7.0787,-6.714e-07,0
7.0792,-7.2175e-06,0
7.0797,-8.2246e-06,0
7.0802,-7.8889e-06,0
7.0808,-6.714e-06,0
7.0813,0,0
7.0818,9.5674e-06,0
7.0823,1.6617e-05,0
7.0828,2.2324e-05,0
7.0833,2.8031e-05,0
7.0839,3.1724e-05,0
7.0844,3.4241e-05,0
7.0849,3.8102e-05,0
7.0854,4.3473e-05,0
7.0859,5.153e-05,0
7.0865,5.4215e-05,0
7.087,4.6494e-05,0
7.0875,3.3402e-05,0
7.088,2.4674e-05,0
7.0885,2.2156e-05,0
7.0891,2.266e-05,0
7.0896,2.0645e-05,0
7.0901,1.7121e-05,0
7.0906,1.326e-05,0
7.0911,8.5603e-06,0
7.0917,2.182e-06,0
7.0922,-4.3641e-06,0
7.0927,-7.8889e-06,0
7.0932,-7.8889e-06,0
7.0937,-1.1582e-05,0
7.0942,-2.1317e-05,0
7.0948,-3.1891e-05,0
7.0953,-3.8437e-05,0
7.0958,-3.9109e-05,0
7.0963,-3.508e-05,0
7.0968,-3.4913e-05,0
7.0974,-4.0955e-05,0
7.0979,-4.5151e-05,0
7.0984,-3.5752e-05,0
7.0989,-1.0071e-05,0
7.0994,1.9806e-05,0
7.1,4.3809e-05,0
7.1005,6.4622e-05,0
7.101,8.5771e-05,0
7.1015,0.00010054,0
7.102,0.00010121,0
7.1026,9.4499e-05,0
7.1031,9.2988e-05,0
7.1036,9.8863e-05,0
7.1041,9.8863e-05,0
7.1046,9.1646e-05,0
7.1052,8.6778e-05,0
7.1057,8.661e-05,0
7.1062,8.0232e-05,0
7.1067,6.2272e-05,0
7.1072,4.1291e-05,0
7.1078,1.8631e-05,0
7.1083,-1.6785e-06,0
7.1088,-1.6281e-05,0
7.1093,-2.417e-05,0
7.1098,-2.4338e-05,0
7.1103,-1.7624e-05,0
7.1109,-5.8747e-06,0
7.1114,1.1078e-05,0
7.1119,3.508e-05,0
7.1124,6.1936e-05,0
7.1129,8.04e-05,0
7.1135,9.0303e-05,0
7.114,8.9128e-05,0
7.1145,7.3854e-05,0
7.115,4.3305e-05,0
7.1155,-1.6785e-06,0
7.1161,-4.7837e-05,0
7.1166,-7.3686e-05,0
7.1171,-7.1839e-05,0
7.1176,-5.4383e-05,0
7.1181,-3.5416e-05,0
7.1187,-1.7624e-05,0
7.1192,8.3925e-07,0
7.1197,1.8296e-05,0
7.1202,3.4409e-05,0
7.1207,5.069e-05,0
7.1212,6.4958e-05,0
7.1218,7.0665e-05,0
7.1223,6.3111e-05,0
7.1228,4.5823e-05,0
7.1233,2.4002e-05,0
7.1238,1.6785e-07,0
7.1244,-2.3331e-05,0
7.1249,-3.8773e-05,0
7.1254,-4.0452e-05,0
7.1259,-3.0045e-05,0
7.1264,-1.7624e-05,0
7.127,-7.0497e-06,0
7.1275,3.1891e-06,0
7.128,1.2253e-05,0
7.1285,2.2156e-05,0
7.129,3.0045e-05,0
7.1296,3.0045e-05,0
7.1301,1.7121e-05,0
7.1306,-2.6856e-06,0
7.1311,-1.7456e-05,0
7.1316,-2.4002e-05,0
7.1322,-3.0045e-05,0
7.1327,-3.8102e-05,0
7.1332,-3.7095e-05,0
7.1337,-2.1653e-05,0
7.1342,7.2175e-06,0
7.1348,3.8605e-05,0
7.1353,5.8915e-05,0
7.1358,6.4286e-05,0
7.1363,6.0594e-05,0
7.1368,5.7908e-05,0
7.1373,5.9251e-05,0
7.1379,6.4622e-05,0
7.1384,8.0064e-05,0
7.1389,9.9031e-05,0
7.1394,0.00010574,0
7.1399,9.6513e-05,0
7.1405,7.4189e-05,0
7.141,4.8173e-05,0
7.1415,3.0716e-05,0
7.142,2.1317e-05,0
7.1425,2.182e-05,0
7.1431,2.887e-05,0
7.1436,3.0381e-05,0
7.1441,2.5849e-05,0
7.1446,2.0645e-05,0
7.1451,1.561e-05,0
7.1457,1.326e-05,0
7.1462,1.2589e-05,0
7.1467,9.2317e-06,0
7.1472,2.5177e-06,0
7.1477,-3.6927e-06,0
7.1482,-7.5532e-06,0
7.1488,-1.1582e-05,0
7.1493,-1.7121e-05,0
7.1498,-2.3499e-05,0
7.1503,-3.1388e-05,0
7.1508,-3.9109e-05,0
7.1514,-4.3809e-05,0
7.1519,-4.7166e-05,0
7.1524,-5.8915e-05,0
7.1529,-8.0735e-05,0
7.1534,-0.00010155,0
7.154,-0.00010961,0
7.1545,-0.00010675,0
7.155,-9.3492e-05,0
7.1555,-6.9825e-05,0
7.156,-3.4409e-05,0
7.1566,1.1414e-05,0
7.1571,6.1265e-05,0
7.1576,0.00010323,0
7.1581,0.0001185,0
7.1586,0.00011095,0
7.1592,0.00010658,0
7.1597,0.00010524,0
7.1602,9.7856e-05,0
7.1607,7.9393e-05,0
7.1612,4.2802e-05,0
7.1617,2.182e-06,0
7.1623,-2.1653e-05,0
7.1628,-2.2492e-05,0
7.1633,-2.8534e-06,0
7.1638,2.2156e-05,0
7.1643,3.1388e-05,0
7.1649,2.6017e-05,0
7.1654,1.2589e-05,0
7.1659,-1.2924e-05,0
7.1664,-4.3809e-05,0
7.1669,-5.1194e-05,0
7.1675,-2.7695e-05,0
7.168,6.0426e-06,0
7.1685,3.743e-05,0
7.169,6.9657e-05,0
7.1695,0.00011447,0
7.1701,0.00017255,0
7.1706,0.00022005,0
7.1711,0.00023516,0
7.1716,0.00021804,0
7.1721,0.0001848,0
7.1727,0.0001566,0
7.1732,0.00014133,0
7.1737,0.00012203,0
7.1742,9.9199e-05,0
7.1747,7.805e-05,0
7.1753,5.6901e-05,0
7.1758,4.0116e-05,0
7.1763,2.652e-05,0
7.1768,1.6953e-05,0
7.1773,1.0575e-05,0
7.1778,8.5603e-06,0
7.1784,1.1917e-05,0
7.1789,1.4939e-05,0
7.1794,1.0575e-05,0
7.1799,-4.6998e-06,0
7.1804,-1.8967e-05,0
7.181,-1.9303e-05,0
7.1815,-1.8296e-05,0
7.182,-2.3667e-05,0
7.1825,-2.6352e-05,0
7.183,-2.0645e-05,0
7.1836,-1.7792e-05,0
7.1841,-2.8534e-05,0
7.1846,-5.1194e-05,0
7.1851,-6.6972e-05,0
7.1856,-5.9251e-05,0
7.1862,-4.2802e-05,0
7.1867,-3.6255e-05,0
7.1872,-3.7095e-05,0
7.1877,-3.3234e-05,0
7.1882,-2.5849e-05,0
7.1887,-2.4338e-05,0
7.1893,-3.0549e-05,0
7.1898,-4.0116e-05,0
7.1903,-4.2802e-05,0
7.1908,-3.508e-05,0
7.1913,-2.6856e-05,0
7.1919,-2.8367e-05,0
7.1924,-3.3402e-05,0
7.1929,-3.3402e-05,0
7.1934,-2.501e-05,0
7.1939,-1.6281e-05,0
7.1945,-6.5461e-06,0
7.195,3.1891e-06,0
7.1955,1.0575e-05,0
7.196,1.4771e-05,0
7.1965,1.561e-05,0
7.1971,1.1582e-05,0
7.1976,6.5461e-06,0
7.1981,2.6856e-06,0
7.1986,-8.3925e-07,0
7.1991,-5.2033e-06,0
7.1997,-6.0426e-06,0
7.2002,-2.8534e-06,0
7.2007,-1.6785e-07,0
7.2012,3.357e-07,0
7.2017,0,0
7.2023,1.1749e-06,0
7.2028,7.8889e-06,0
7.2033,1.9135e-05,0
7.2038,2.8031e-05,0
7.2043,3.0716e-05,0
7.2048,3.0381e-05,0
7.2054,2.9038e-05,0
7.2059,2.8031e-05,0
7.2064,2.7359e-05,0
7.2069,2.8702e-05,0
7.2074,3.1388e-05,0
7.208,3.4745e-05,0
7.2085,3.8773e-05,0
7.209,4.213e-05,0
7.2095,4.0116e-05,0
7.21,3.3402e-05,0
7.2106,2.6688e-05,0
7.2111,2.1653e-05,0
7.2116,2.0813e-05,0
7.2121,2.3835e-05,0
7.2126,2.9038e-05,0
7.2132,3.0045e-05,0
7.2137,2.266e-05,0
7.2142,1.1414e-05,0
7.2147,4.0284e-06,0
7.2152,5.8747e-06,0
7.2157,1.5274e-05,0
7.2163,2.1317e-05,0
7.2168,1.561e-05,0
7.2173,-3.6927e-06,0
7.2178,-2.4674e-05,0
7.2183,-3.4073e-05,0
7.2189,-3.1388e-05,0
7.2194,-2.0981e-05,0
7.2199,-4.8676e-06,0
7.2204,1.091e-05,0
7.2209,2.4002e-05,0
7.2215,3.6088e-05,0
7.222,5.4215e-05,0
7.2225,7.3686e-05,0
7.223,8.8457e-05,0
7.2235,9.836e-05,0
7.2241,0.00010356,0
7.2246,0.00010726,0
7.2251,0.00012052,0
7.2256,0.00014804,0
7.2261,0.0001744,0
7.2267,0.00016802,0
7.2272,0.00012807,0
7.2277,8.0232e-05,0
7.2282,3.9277e-05,0
7.2287,6.2104e-06,0
7.2293,-1.6114e-05,0
7.2298,-2.7024e-05,0
7.2303,-3.508e-05,0
7.2308,-4.3305e-05,0
7.2313,-4.5823e-05,0
7.2318,-4.1962e-05,0
7.2324,-3.8605e-05,0
7.2329,-2.6184e-05,0
7.2334,5.8747e-06,0
7.2339,4.5655e-05,0
7.2344,7.7379e-05,0
7.235,9.5171e-05,0
7.2355,0.00010004,0
7.236,9.8527e-05,0
7.2365,9.6513e-05,0
7.237,9.0471e-05,0
7.2376,7.4357e-05,0
7.2381,6.5293e-05,0
7.2386,8.3085e-05,0
7.2391,0.00010457,0
7.2396,0.00010491,0
7.2402,8.8121e-05,0
7.2407,6.949e-05,0
7.2412,5.3544e-05,0
7.2417,3.9277e-05,0
7.2422,2.3667e-05,0
7.2428,4.3641e-06,0
7.2433,-1.3092e-05,0
7.2438,-2.5849e-05,0
7.2443,-3.4409e-05,0
7.2448,-4.1794e-05,0
7.2453,-4.9516e-05,0
7.2459,-5.3208e-05,0
7.2464,-5.2705e-05,0
7.2469,-5.069e-05,0
7.2474,-4.8508e-05,0
7.2479,-4.7501e-05,0
7.2485,-4.9348e-05,0
7.249,-5.623e-05,0
7.2495,-6.6636e-05,0
7.25,-7.0161e-05,0
7.2505,-6.7475e-05,0
7.2511,-6.4958e-05,0
7.2516,-5.9251e-05,0
7.2521,-4.6159e-05,0
7.2526,-3.2059e-05,0
7.2531,-2.0478e-05,0
7.2537,-7.2175e-06,0
7.2542,1.5274e-05,0
7.2547,4.3977e-05,0
7.2552,6.4286e-05,0
7.2557,6.4286e-05,0
7.2562,4.8508e-05,0
7.2568,3.4745e-05,0
7.2573,3.0381e-05,0
7.2578,2.6856e-05,0
7.2583,2.0142e-05,0
7.2588,1.3092e-05,0
7.2594,7.2175e-06,0
7.2599,1.6785e-06,0
7.2604,-3.357e-07,0
7.2609,2.5177e-06,0
7.2614,5.2033e-06,0
7.262,7.3854e-06,0
7.2625,1.0239e-05,0
7.263,1.1749e-05,0
7.2635,1.1917e-05,0
7.264,1.2589e-05,0
7.2646,1.9974e-05,0
7.2651,2.9038e-05,0
7.2656,3.2059e-05,0
7.2661,2.4002e-05,0
7.2666,8.896e-06,0
7.2672,-2.5177e-06,0
7.2677,-6.3783e-06,0
7.2682,-8.7282e-06,0
7.2687,-1.0575e-05,0
7.2692,-3.1891e-06,0
7.2698,1.561e-05,0
7.2703,3.2395e-05,0
7.2708,3.3906e-05,0
7.2713,2.501e-05,0
7.2718,1.1917e-05,0
7.2723,-2.8534e-06,0
7.2729,-1.326e-05,0
7.2734,-7.8889e-06,0
7.2739,1.0239e-05,0
7.2744,2.8367e-05,0
7.2749,3.6927e-05,0
7.2755,3.8102e-05,0
7.276,4.1291e-05,0
7.2765,5.2033e-05,0
7.277,7.3686e-05,0
7.2775,9.9199e-05,0
7.2781,0.00010726,0
7.2786,8.9128e-05,0
7.2791,6.4286e-05,0
7.2796,4.9348e-05,0
7.2801,4.2802e-05,0
7.2807,3.7263e-05,0
7.2812,3.0716e-05,0
7.2817,2.9038e-05,0
7.2822,3.0381e-05,0
7.2827,3.2059e-05,0
7.2832,3.5752e-05,0
7.2838,3.8437e-05,0
7.2843,3.1556e-05,0
7.2848,1.5274e-05,0
7.2853,-1.5106e-06,0
7.2858,-1.4771e-05,0
7.2864,-3.1052e-05,0
7.2869,-4.8173e-05,0
7.2874,-5.9922e-05,0
7.2879,-6.3279e-05,0
7.2884,-5.9083e-05,0
7.289,-4.7837e-05,0
7.2895,-2.8534e-05,0
7.29,-5.0355e-06,0
7.2905,1.9135e-05,0
7.291,4.3137e-05,0
7.2916,6.6804e-05,0
7.2921,8.6778e-05,0
7.2926,0.00010037,0
7.2931,0.00011095,0
7.2936,0.00012337,0
7.2942,0.00013109,0
7.2947,0.00012068,0
7.2952,9.0806e-05,0
7.2957,5.5558e-05,0
7.2962,2.6352e-05,0
7.2968,7.2175e-06,0
7.2973,1.6785e-07,0
7.2978,-1.5106e-06,0
7.2983,-5.2033e-06,0
7.2988,-1.1582e-05,0
7.2993,-2.0813e-05,0
7.2999,-2.7695e-05,0
7.3004,-2.7192e-05,0
7.3009,-1.9135e-05,0
7.3014,-1.1582e-05,0
7.3019,-1.3596e-05,0
7.3025,-1.3092e-05,0
7.303,1.3428e-06,0
7.3035,1.4771e-05,0
7.304,1.4939e-05,0
7.3045,4.5319e-06,0
7.3051,-7.5532e-06,0
7.3056,-1.0239e-05,0
7.3061,-2.6856e-06,0
7.3066,3.5248e-06,0
7.3071,5.2033e-06,0
7.3077,1.1246e-05,0
7.3082,2.1988e-05,0
7.3087,3.3402e-05,0
7.3092,4.6326e-05,0
7.3097,6.3447e-05,0
7.3102,8.4428e-05,0
7.3108,9.836e-05,0
7.3113,9.3492e-05,0
7.3118,6.8986e-05,0
7.3123,4.3137e-05,0
7.3128,2.1149e-05,0
7.3134,-4.3641e-06,0
7.3139,-3.3234e-05,0
7.3144,-5.3208e-05,0
7.3149,-5.6565e-05,0
7.3154,-4.5487e-05,0
7.316,-3.2395e-05,0
7.3165,-2.0813e-05,0
7.317,-2.3499e-06,0
7.3175,1.7624e-05,0
7.318,3.508e-05,0
7.3186,5.0187e-05,0
7.3191,6.5797e-05,0
7.3196,7.8721e-05,0
7.3201,8.51e-05,0
7.3206,8.7785e-05,0
7.3212,7.7546e-05,0
7.3217,4.8341e-05,0
7.3222,1.7624e-05,0
7.3227,1.8463e-06,0
7.3232,-2.8534e-06,0
7.3238,0,0
7.3243,8.5603e-06,0
7.3248,2.0981e-05,0
7.3253,3.3738e-05,0
7.3258,3.978e-05,0
7.3263,3.7598e-05,0
7.3269,2.3163e-05,0
7.3274,-2.8534e-06,0
7.3279,-2.6688e-05,0
7.3284,-3.3738e-05,0
7.3289,-2.9038e-05,0
7.3295,-2.0645e-05,0
7.33,-1.1246e-05,0
7.3305,-5.8747e-06,0
7.331,-5.539e-06,0
7.3315,-6.714e-07,0
7.3321,1.7288e-05,0
7.3326,3.9445e-05,0
7.3331,6.244e-05,0
7.3336,8.5771e-05,0
7.3341,9.3492e-05,0
7.3347,7.6204e-05,0
7.3352,4.7166e-05,0
7.3357,2.4674e-05,0
7.3362,1.0239e-05,0
7.3367,-2.0142e-06,0
7.3373,-1.2757e-05,0
7.3378,-1.5106e-05,0
7.3383,-1.8463e-06,0
7.3388,1.561e-05,0
7.3393,2.4338e-05,0
7.3398,2.6352e-05,0
7.3404,2.8031e-05,0
7.3409,2.3835e-05,0
7.3414,1.1246e-05,0
7.3419,-3.1891e-06,0
7.3424,-1.0407e-05,0
7.343,-1.1917e-05,0
7.3435,-1.4939e-05,0
7.344,-1.8463e-05,0
7.3445,-1.9638e-05,0
7.345,-1.6953e-05,0
7.3456,-1.1078e-05,0
7.3461,-6.8818e-06,0
7.3466,-6.2104e-06,0
7.3471,-8.2246e-06,0
7.3476,-1.2253e-05,0
7.3482,-1.7624e-05,0
7.3487,-1.7288e-05,0
7.3492,-9.9031e-06,0
7.3497,-5.2033e-06,0
7.3502,-9.9031e-06,0
7.3507,-1.7456e-05,0
7.3513,-1.9806e-05,0
7.3518,-1.4267e-05,0
7.3523,-5.539e-06,0
7.3528,4.8676e-06,0
7.3533,2.3331e-05,0
7.3539,5.1194e-05,0
7.3544,8.04e-05,0
7.3549,0.00010021,0
7.3554,0.00010004,0
7.3559,8.426e-05,0
7.3565,6.3279e-05,0
7.357,4.3305e-05,0
7.3575,2.501e-05,0
7.358,7.3854e-06,0
7.3585,-2.3499e-06,0
7.3591,1.5106e-06,0
7.3596,1.1917e-05,0
7.3601,2.0981e-05,0
7.3606,2.501e-05,0
7.3611,2.1317e-05,0
7.3617,1.4267e-05,0
7.3622,9.9031e-06,0
7.3627,9.2317e-06,0
7.3632,4.5319e-06,0
7.3637,-1.0071e-05,0
7.3643,-2.5681e-05,0
7.3648,-3.2059e-05,0
7.3653,-2.7863e-05,0
7.3658,-1.5442e-05,0
7.3663,7.7211e-06,0
7.3668,3.8773e-05,0
7.3674,6.2104e-05,0
7.3679,7.4693e-05,0
7.3684,8.7449e-05,0
7.3689,9.8863e-05,0
7.3694,0.00010172,0
7.37,0.00010021,0
7.3705,8.6778e-05,0
7.371,5.3208e-05,0
7.3715,2.1653e-05,0
7.372,1.6617e-05,0
7.3726,2.8031e-05,0
7.3731,3.6423e-05,0
7.3736,4.6159e-05,0
7.3741,5.8244e-05,0
7.3746,6.6972e-05,0
7.3752,6.9154e-05,0
7.3757,7.1e-05,0
7.3762,7.1e-05,0
7.3767,6.0929e-05,0
7.3772,4.3137e-05,0
7.3777,3.1388e-05,0
7.3783,3.1556e-05,0
7.3788,3.8102e-05,0
7.3793,4.448e-05,0
7.3798,4.7837e-05,0
7.3803,4.6159e-05,0
7.3809,4.7669e-05,0
7.3814,5.2873e-05,0
7.3819,4.5487e-05,0
7.3824,2.031e-05,0
7.3829,-6.8818e-06,0
7.3835,-1.4939e-05,0
7.384,-7.0497e-06,0
7.3845,-5.2033e-06,0
7.385,-1.4435e-05,0
7.3855,-2.1988e-05,0
7.3861,-1.8631e-05,0
7.3866,-8.7282e-06,0
7.3871,-5.0355e-07,0
7.3876,2.3499e-06,0
7.3881,1.8463e-06,0
7.3887,0,0
7.3892,-3.1891e-06,0
7.3897,-7.3854e-06,0
7.3902,-1.2421e-05,0
7.3907,-1.796e-05,0
7.3913,-2.4338e-05,0
7.3918,-3.0045e-05,0
7.3923,-3.1388e-05,0
7.3928,-2.8367e-05,0
7.3933,-2.7192e-05,0
7.3938,-2.7024e-05,0
7.3944,-2.417e-05,0
7.3949,-2.0645e-05,0
7.3954,-1.4603e-05,0
7.3959,-3.0213e-06,0
7.3964,1.4267e-05,0
7.397,3.1556e-05,0
7.3975,4.1459e-05,0
7.398,4.1291e-05,0
7.3985,3.3738e-05,0
7.399,2.5849e-05,0
7.3996,2.1317e-05,0
7.4001,1.9638e-05,0
7.4006,2.1988e-05,0
7.4011,2.7527e-05,0
7.4016,3.0716e-05,0
7.4022,2.7359e-05,0
7.4027,1.7792e-05,0
7.4032,4.3641e-06,0
7.4037,-1.1917e-05,0
7.4042,-3.1052e-05,0
7.4047,-4.3641e-05,0
7.4053,-4.3977e-05,0
7.4058,-3.6255e-05,0
7.4063,-2.5513e-05,0
7.4068,-1.6617e-05,0
7.4073,-8.2246e-06,0
7.4079,1.1749e-06,0
7.4084,9.9031e-06,0
7.4089,2.1988e-05,0
7.4094,3.8773e-05,0
7.4099,5.5558e-05,0
7.4105,7.4693e-05,0
7.411,9.7856e-05,0
7.4115,0.0001138,0
7.412,0.00010994,0
7.4125,8.8457e-05,0
7.4131,6.4286e-05,0
7.4136,4.9851e-05,0
7.4141,4.5823e-05,0
7.4146,4.3473e-05,0
7.4151,3.4745e-05,0
7.4157,2.3667e-05,0
7.4162,1.4603e-05,0
7.4167,9.2317e-06,0
7.4172,7.3854e-06,0
7.4177,4.1962e-06,0
7.4182,0,0
7.4188,-4.1962e-06,0
7.4193,-9.3996e-06,0
7.4198,-1.2589e-05,0
7.4203,-1.1582e-05,0
7.4208,-4.8676e-06,0
7.4214,2.182e-06,0
7.4219,1.6785e-06,0
7.4224,-1.0071e-06,0
7.4229,8.3925e-07,0
7.4234,3.5248e-06,0
7.424,-6.714e-07,0
7.4245,-1.6449e-05,0
7.425,-3.6423e-05,0
7.4255,-4.7837e-05,0
7.426,-4.5991e-05,0
7.4266,-3.1891e-05,0
7.4271,-9.5674e-06,0
7.4276,2.266e-05,0
7.4281,6.0594e-05,0
7.4286,8.9128e-05,0
7.4292,9.7688e-05,0
7.4297,8.9632e-05,0
7.4302,7.7379e-05,0
7.4307,6.8315e-05,0
7.4312,5.8915e-05,0
7.4318,4.3641e-05,0
7.4323,2.1988e-05,0
7.4328,2.3499e-06,0
7.4333,-5.539e-06,0
7.4338,-9.5674e-06,0
7.4343,-2.266e-05,0
7.4349,-3.1556e-05,0
7.4354,-1.7792e-05,0
7.4359,1.5946e-05,0
7.4364,4.918e-05,0
7.4369,6.6804e-05,0
7.4375,7.4022e-05,0
7.438,8.1071e-05,0
7.4385,9.1142e-05,0
7.439,0.00010625,0
7.4395,0.00012706,0
7.4401,0.0001368,0
7.4406,0.00012605,0
7.4411,0.00010188,0
7.4416,7.5029e-05,0
7.4421,5.4215e-05,0
7.4427,4.3641e-05,0
7.4432,4.1459e-05,0
7.4437,3.6423e-05,0
7.4442,1.9135e-05,0
7.4447,-3.5248e-06,0
7.4452,-1.2421e-05,0
7.4458,-4.1962e-06,0
7.4463,3.6927e-06,0
7.4468,3.1891e-06,0
7.4473,-4.5319e-06,0
7.4478,-1.1414e-05,0
7.4484,-1.1582e-05,0
7.4489,-4.5319e-06,0
7.4494,4.8676e-06,0
7.4499,2.182e-06,0
7.4504,-2.182e-05,0
7.451,-5.5222e-05,0
7.4515,-7.6371e-05,0
7.452,-8.6107e-05,0
7.4525,-8.9632e-05,0
7.453,-8.6442e-05,0
7.4536,-7.805e-05,0
7.4541,-6.7643e-05,0
7.4546,-5.7908e-05,0
7.4551,-4.8844e-05,0
7.4556,-3.8102e-05,0
7.4562,-2.4338e-05,0
7.4567,-9.7353e-06,0
7.4572,8.7282e-06,0
7.4577,3.9445e-05,0
7.4582,7.2343e-05,0
7.4588,8.0064e-05,0
7.4593,6.4958e-05,0
7.4598,5.4551e-05,0
7.4603,5.6565e-05,0
7.4608,6.5629e-05,0
7.4613,7.335e-05,0
7.4619,7.6371e-05,0
7.4624,7.2175e-05,0
7.4629,6.0929e-05,0
7.4634,4.683e-05,0
7.4639,3.3906e-05,0
7.4645,2.3163e-05,0
7.465,1.3092e-05,0
7.4655,6.5461e-06,0
7.466,6.3783e-06,0
7.4665,9.9031e-06,0
7.4671,1.1246e-05,0
7.4676,8.7282e-06,0
7.4681,5.7069e-06,0
7.4686,-3.357e-07,0
7.4691,-7.0497e-06,0
7.4697,-7.8889e-06,0
7.4702,3.5248e-06,0
7.4707,2.4506e-05,0
7.4712,3.9948e-05,0
7.4717,3.4745e-05,0
7.4722,1.5946e-05,0
7.4728,2.5177e-06,0
7.4733,1.0071e-06,0
7.4738,1.0071e-06,0
7.4743,3.0213e-06,0
7.4748,1.1917e-05,0
7.4754,2.1653e-05,0
7.4759,2.9374e-05,0
7.4764,3.4073e-05,0
7.4769,3.3066e-05,0
7.4774,3.0549e-05,0
7.478,3.4745e-05,0
7.4785,4.0787e-05,0
7.479,3.978e-05,0
7.4795,3.0381e-05,0
7.48,1.3596e-05,0
7.4806,-8.2246e-06,0
7.4811,-1.8967e-05,0
7.4816,-9.0639e-06,0
7.4821,4.5319e-06,0
7.4826,7.8889e-06,0
7.4832,1.0575e-05,0
7.4837,1.9303e-05,0
7.4842,3.1724e-05,0
7.4847,4.8173e-05,0
7.4852,6.6972e-05,0
7.4858,8.1071e-05,0
7.4863,8.51e-05,0
7.4868,8.2078e-05,0
7.4873,7.3518e-05,0
7.4878,6.1433e-05,0
7.4883,5.4887e-05,0
7.4889,5.5894e-05,0
7.4894,5.3376e-05,0
7.4899,3.9109e-05,0
7.4904,1.8296e-05,0
7.4909,5.2033e-06,0
7.4915,-3.5248e-06,0
7.492,-1.9974e-05,0
7.4925,-3.7598e-05,0
7.493,-4.683e-05,0
7.4935,-4.9851e-05,0
7.4941,-5.0187e-05,0
7.4946,-4.4144e-05,0
7.4951,-2.8367e-05,0
7.4956,-1.1246e-05,0
7.4961,1.5106e-06,0
7.4967,1.3931e-05,0
7.4972,3.4745e-05,0
7.4977,7.6036e-05,0
7.4982,0.00012136,0
7.4987,0.00013277,0
7.4992,0.00010188,0
7.4998,4.9516e-05,0
7.5003,1.1749e-06,0
7.5008,-3.1052e-05,0
7.5013,-5.3544e-05,0
7.5018,-6.4622e-05,0
7.5024,-5.9251e-05,0
7.5029,-4.4984e-05,0
7.5034,-3.7766e-05,0
7.5039,-3.6423e-05,0
7.5044,-2.7527e-05,0
7.505,1.8463e-06,0
7.5055,5.3544e-05,0
7.506,0.00010491,0
7.5065,0.00012505,0
7.507,0.00011447,0
7.5076,9.3828e-05,0
7.5081,7.805e-05,0
7.5086,6.63e-05,0
7.5091,4.7333e-05,0
7.5096,1.7288e-05,0
7.5102,-8.5603e-06,0
7.5107,-1.8296e-05,0
7.5112,-1.6281e-05,0
7.5117,-1.3596e-05,0
7.5122,-1.9303e-05,0
7.5127,-2.5177e-05,0
7.5133,-2.1988e-05,0
7.5138,-1.7121e-05,0
7.5143,-1.5274e-05,0
7.5148,-8.2246e-06,0
7.5153,1.5106e-06,0
7.5159,9.9031e-06,0
7.5164,2.4674e-05,0
7.5169,4.3809e-05,0
7.5174,5.8747e-05,0
7.5179,6.4958e-05,0
7.5185,6.0594e-05,0
7.519,4.6998e-05,0
7.5195,3.3402e-05,0
7.52,2.6017e-05,0
7.5205,2.2995e-05,0
7.5211,2.1317e-05,0
7.5216,2.3331e-05,0
7.5221,2.6688e-05,0
7.5226,2.2995e-05,0
7.5231,1.5946e-05,0
7.5237,1.0575e-05,0
7.5242,8.896e-06,0
7.5247,1.4099e-05,0
7.5252,2.5345e-05,0
7.5257,3.9445e-05,0
7.5263,5.3544e-05,0
7.5268,6.5629e-05,0
7.5273,6.8818e-05,0
7.5278,6.0258e-05,0
7.5283,4.8173e-05,0
7.5288,3.8102e-05,0
7.5294,3.3402e-05,0
7.5299,3.3402e-05,0
7.5304,3.1052e-05,0
7.5309,2.4674e-05,0
7.5314,1.6617e-05,0
7.532,6.5461e-06,0
7.5325,0,0
7.533,2.182e-06,0
7.5335,4.5319e-06,0
7.534,-2.182e-06,0
7.5346,-1.3596e-05,0
7.5351,-1.9135e-05,0
7.5356,-1.8128e-05,0
7.5361,-1.9471e-05,0
7.5366,-2.8031e-05,0
7.5372,-3.6927e-05,0
7.5377,-4.1123e-05,0
7.5382,-3.9948e-05,0
7.5387,-3.2059e-05,0
7.5392,-2.2156e-05,0
7.5397,-1.7121e-05,0
7.5403,-1.326e-05,0
7.5408,-3.8605e-06,0
7.5413,9.9031e-06,0
7.5418,1.9974e-05,0
7.5423,2.8031e-05,0
7.5429,3.9445e-05,0
7.5434,4.9012e-05,0
7.5439,4.5151e-05,0
7.5444,3.2059e-05,0
7.5449,2.4674e-05,0
7.5455,2.9877e-05,0
7.546,3.8773e-05,0
7.5465,4.6159e-05,0
7.547,5.0858e-05,0
7.5475,4.8508e-05,0
7.5481,3.8773e-05,0
7.5486,2.9374e-05,0
7.5491,2.6688e-05,0
7.5496,2.1317e-05,0
7.5501,1.0407e-05,0
7.5507,4.5319e-06,0
7.5512,3.8605e-06,0
7.5517,-8.3925e-07,0
7.5522,-1.0407e-05,0
7.5527,-1.7121e-05,0
7.5533,-1.561e-05,0
7.5538,-9.5674e-06,0
7.5543,-6.0426e-06,0
7.5548,-1.5106e-06,0
7.5553,1.4435e-05,0
7.5558,3.4745e-05,0
7.5564,4.4144e-05,0
7.5569,4.5151e-05,0
7.5574,4.5487e-05,0
7.5579,4.7501e-05,0
7.5584,4.9516e-05,0
7.559,4.3473e-05,0
7.5595,2.1317e-05,0
7.56,-3.1891e-06,0
7.5605,-7.7211e-06,0
7.561,5.539e-06,0
7.5616,1.9135e-05,0
7.5621,3.2395e-05,0
7.5626,4.9012e-05,0
7.5631,6.2272e-05,0
7.5636,7.2343e-05,0
7.5642,7.9057e-05,0
7.5647,7.8386e-05,0
7.5652,6.6972e-05,0
7.5657,4.2634e-05,0
7.5662,1.0575e-05,0
7.5667,-8.896e-06,0
7.5673,-1.2589e-05,0
7.5678,-2.0645e-05,0
7.5683,-3.6255e-05,0
7.5688,-4.5655e-05,0
7.5693,-4.2466e-05,0
7.5699,-3.1052e-05,0
7.5704,-1.1917e-05,0
7.5709,1.561e-05,0
7.5714,4.9516e-05,0
7.5719,9.0471e-05,0
7.5725,0.00013277,0
7.573,0.00015157,0
7.5735,0.0001368,0
7.574,0.00010877,0
7.5745,9.1478e-05,0
7.5751,8.2414e-05,0
7.5756,6.0258e-05,0
7.5761,2.6352e-05,0
7.5766,-5.7069e-06,0
7.5771,-3.2395e-05,0
7.5777,-5.6062e-05,0
7.5782,-8.04e-05,0
7.5787,-9.7185e-05,0
7.5792,-0.00010054,0
7.5797,-9.6849e-05,0
7.5803,-9.7353e-05,0
7.5808,-9.6178e-05,0
7.5813,-8.4092e-05,0
7.5818,-6.5629e-05,0
7.5823,-4.8676e-05,0
7.5828,-2.5681e-05,0
7.5834,9.7353e-06,0
7.5839,5.388e-05,0
7.5844,9.5506e-05,0
7.5849,0.00011968,0
7.5854,0.00012303,0
7.586,0.00011783,0
7.5865,0.00011464,0
7.587,0.00010574,0
7.5875,8.6778e-05,0
7.588,6.9657e-05,0
7.5886,6.0258e-05,0
7.5891,5.1194e-05,0
7.5896,4.213e-05,0
7.5901,3.1891e-05,0
7.5906,1.9806e-05,0
7.5912,1.326e-05,0
7.5917,1.5946e-05,0
7.5922,1.9974e-05,0
7.5927,1.8631e-05,0
7.5932,1.1917e-05,0
7.5938,7.0497e-06,0
7.5943,4.8676e-06,0
7.5948,5.0355e-07,0
7.5953,-8.7282e-06,0
7.5958,-1.9974e-05,0
7.5963,-3.0381e-05,0
7.5969,-3.4745e-05,0
7.5974,-2.8702e-05,0
7.5979,-1.5274e-05,0
7.5984,-7.7211e-06,0
7.5989,-7.2175e-06,0
7.5995,-2.5177e-06,0
7.6,1.0575e-05,0
7.6005,2.6688e-05,0
7.601,4.1794e-05,0
7.6015,5.3544e-05,0
7.6021,6.479e-05,0
7.6026,7.1336e-05,0
7.6031,7.0329e-05,0
7.6036,6.0929e-05,0
7.6041,4.5487e-05,0
7.6047,3.0045e-05,0
7.6052,1.796e-05,0
7.6057,9.9031e-06,0
7.6062,7.5532e-06,0
7.6067,6.8818e-06,0
7.6072,5.7069e-06,0
7.6078,5.2033e-06,0
7.6083,4.0284e-06,0
7.6088,4.1962e-06,0
7.6093,5.2033e-06,0
7.6098,4.8676e-06,0
7.6104,1.1749e-06,0
7.6109,-5.8747e-06,0
7.6114,-1.4267e-05,0
7.6119,-1.7121e-05,0
7.6124,-1.3092e-05,0
7.613,-8.2246e-06,0
7.6135,-9.7353e-06,0
7.614,-1.5946e-05,0
7.6145,-1.9638e-05,0
7.615,-1.9638e-05,0
7.6156,-1.9135e-05,0
7.6161,-2.0645e-05,0
7.6166,-2.3667e-05,0
7.6171,-2.2324e-05,0
7.6176,-1.8967e-05,0
7.6182,-1.9974e-05,0
7.6187,-1.7624e-05,0
7.6192,-5.7069e-06,0
7.6197,1.2421e-05,0
7.6202,3.1724e-05,0
7.6208,4.5823e-05,0
7.6213,5.8747e-05,0
7.6218,7.4861e-05,0
7.6223,8.3421e-05,0
7.6228,8.1407e-05,0
7.6233,7.805e-05,0
7.6239,7.57e-05,0
7.6244,6.9993e-05,0
7.6249,7.2007e-05,0
7.6254,8.5603e-05,0
7.6259,0.00010155,0
7.6265,0.00010759,0
7.627,9.9199e-05,0
7.6275,8.1071e-05,0
7.628,6.1601e-05,0
7.6285,5.2537e-05,0
7.6291,5.2537e-05,0
7.6296,4.5487e-05,0
7.6301,2.9877e-05,0
7.6306,1.5274e-05,0
7.6311,1.0071e-05,0
7.6317,9.2317e-06,0
7.6322,6.8818e-06,0
7.6327,8.3925e-07,0
7.6332,-1.4435e-05,0
7.6337,-3.6927e-05,0
7.6342,-5.4047e-05,0
7.6348,-6.2943e-05,0
7.6353,-6.9993e-05,0
7.6358,-6.9154e-05,0
7.6363,-5.4551e-05,0
7.6368,-3.5248e-05,0
7.6374,-2.1988e-05,0
7.6379,-1.7456e-05,0
7.6384,-1.3596e-05,0
7.6389,-2.8534e-06,0
7.6394,1.7121e-05,0
7.64,3.5584e-05,0
7.6405,5.539e-05,0
7.641,7.57e-05,0
7.6415,8.6442e-05,0
7.642,8.2414e-05,0
7.6426,6.9657e-05,0
7.6431,5.7572e-05,0
7.6436,5.2201e-05,0
7.6441,5.5558e-05,0
7.6446,6.4118e-05,0
7.6452,7.2343e-05,0
7.6457,6.9322e-05,0
7.6462,4.9516e-05,0
7.6467,1.7624e-05,0
7.6472,-1.0071e-05,0
7.6478,-1.6617e-05,0
7.6483,-2.5177e-06,0
7.6488,1.7121e-05,0
7.6493,1.5106e-05,0
7.6498,-1.7121e-05,0
7.6503,-5.4887e-05,0
7.6509,-6.7979e-05,0
7.6514,-5.1194e-05,0
7.6519,-2.7359e-05,0
7.6524,-1.4603e-05,0
7.6529,-5.539e-06,0
7.6535,7.8889e-06,0
7.654,2.0478e-05,0
7.6545,2.8702e-05,0
7.655,4.8173e-05,0
7.6555,9.2317e-05,0
7.6561,0.00014284,0
7.6566,0.00015526,0
7.6571,0.0001138,0
7.6576,5.388e-05,0
7.6581,2.2492e-05,0
7.6587,2.7359e-05,0
7.6592,3.6088e-05,0
7.6597,3.1724e-05,0
7.6602,2.4338e-05,0
7.6607,1.6281e-05,0
7.6612,8.5603e-06,0
7.6618,7.2175e-06,0
7.6623,1.2589e-05,0
7.6628,1.8967e-05,0
7.6633,2.2156e-05,0
7.6638,1.8967e-05,0
7.6644,1.0575e-05,0
7.6649,8.3925e-07,0
7.6654,-9.5674e-06,0
7.6659,-1.9471e-05,0
7.6664,-2.8199e-05,0
7.667,-3.4745e-05,0
7.6675,-3.9109e-05,0
7.668,-4.3473e-05,0
7.6685,-4.683e-05,0
7.669,-4.9516e-05,0
7.6696,-5.2033e-05,0
7.6701,-4.9348e-05,0
7.6706,-3.7598e-05,0
7.6711,-2.0981e-05,0
7.6716,-2.3499e-06,0
7.6722,1.326e-05,0
7.6727,2.1988e-05,0
7.6732,2.9374e-05,0
7.6737,4.1459e-05,0
7.6742,5.9586e-05,0
7.6748,7.9561e-05,0
7.6753,8.8792e-05,0
7.6758,8.1575e-05,0
7.6763,6.3615e-05,0
7.6768,4.5487e-05,0
7.6773,3.508e-05,0
7.6779,2.1317e-05,0
7.6784,4.1962e-06,0
7.6789,-9.9031e-06,0
7.6794,-1.5274e-05,0
7.6799,-1.1582e-05,0
7.6805,-9.5674e-06,0
7.681,-1.1582e-05,0
7.6815,-9.5674e-06,0
7.682,-3.6927e-06,0
7.6825,1.6785e-07,0
7.6831,1.8463e-06,0
7.6836,3.8605e-06,0
7.6841,1.2924e-05,0
7.6846,2.7527e-05,0
7.6851,3.5752e-05,0
7.6857,3.5752e-05,0
7.6862,3.2059e-05,0
7.6867,3.2059e-05,0
7.6872,4.0116e-05,0
7.6877,4.2466e-05,0
7.6883,3.0213e-05,0
7.6888,1.5274e-05,0
7.6893,8.2246e-06,0
7.6898,9.9031e-06,0
7.6903,1.6449e-05,0
7.6908,2.1317e-05,0
7.6914,1.6785e-05,0
7.6919,2.3499e-06,0
7.6924,-1.1246e-05,0
7.6929,-1.2253e-05,0
7.6934,5.2033e-06,0
7.694,2.7527e-05,0
7.6945,3.8773e-05,0
7.695,4.1291e-05,0
7.6955,4.4144e-05,0
7.696,4.5991e-05,0
7.6966,4.2802e-05,0
7.6971,4.3305e-05,0
7.6976,5.7908e-05,0
7.6981,8.0735e-05,0
7.6986,9.8527e-05,0
7.6992,0.00010222,0
7.6997,8.1239e-05,0
7.7002,4.0787e-05,0
7.7007,3.8605e-06,0
7.7012,-1.2085e-05,0
7.7017,-1.0239e-05,0
7.7023,0,0
7.7028,1.4435e-05,0
7.7033,1.9303e-05,0
7.7038,7.8889e-06,0
7.7043,-7.5532e-06,0
7.7049,-1.1414e-05,0
7.7054,-2.182e-06,0
7.7059,5.539e-06,0
7.7064,7.2175e-06,0
7.7069,1.1917e-05,0
7.7075,2.6688e-05,0
7.708,4.683e-05,0
7.7085,5.7572e-05,0
7.709,5.2873e-05,0
7.7095,5.0187e-05,0
7.7101,5.6565e-05,0
7.7106,6.1433e-05,0
7.7111,5.9251e-05,0
7.7116,4.9851e-05,0
7.7121,3.9612e-05,0
7.7127,3.8773e-05,0
7.7132,4.0116e-05,0
7.7137,3.592e-05,0
7.7142,2.7359e-05,0
7.7147,1.6449e-05,0
7.7153,8.896e-06,0
7.7158,5.8747e-06,0
7.7163,3.1891e-06,0
7.7168,-4.5319e-06,0
7.7173,-1.6281e-05,0
7.7178,-3.1052e-05,0
7.7184,-4.7669e-05,0
7.7189,-5.9251e-05,0
7.7194,-6.4286e-05,0
7.7199,-6.9657e-05,0
7.7204,-7.3014e-05,0
7.721,-7.0329e-05,0
7.7215,-6.3615e-05,0
7.722,-5.2033e-05,0
7.7225,-3.6423e-05,0
7.723,-2.1317e-05,0
7.7236,1.6785e-07,0
7.7241,4.0284e-05,0
7.7246,8.5603e-05,0
7.7251,0.00010877,0
7.7256,0.00010726,0
7.7262,0.00010222,0
7.7267,9.8863e-05,0
7.7272,9.3828e-05,0
7.7277,7.9561e-05,0
7.7282,5.0355e-05,0
7.7287,1.1246e-05,0
7.7293,-2.5681e-05,0
7.7298,-4.8508e-05,0
7.7303,-5.6901e-05,0
7.7308,-5.7404e-05,0
7.7313,-5.2873e-05,0
7.7319,-4.4648e-05,0
7.7324,-2.9374e-05,0
7.7329,-5.7069e-06,0
7.7334,2.1317e-05,0
7.7339,4.9851e-05,0
7.7345,7.8218e-05,0
7.735,0.00010121,0
7.7355,0.00011716,0
7.736,0.00012303,0
7.7365,0.00011397,0
7.7371,9.5171e-05,0
7.7376,7.5868e-05,0
7.7381,5.8412e-05,0
7.7386,4.3473e-05,0
7.7391,3.4913e-05,0
7.7397,3.0381e-05,0
7.7402,2.6352e-05,0
7.7407,2.2324e-05,0
7.7412,1.5778e-05,0
7.7417,7.8889e-06,0
7.7423,4.0284e-06,0
7.7428,5.0355e-07,0
7.7433,-8.3925e-06,0
7.7438,-2.0645e-05,0
7.7443,-3.357e-05,0
7.7448,-4.683e-05,0
7.7454,-5.7908e-05,0
7.7459,-6.3615e-05,0
7.7464,-5.9922e-05,0
7.7469,-5.0858e-05,0
7.7474,-4.1291e-05,0
7.748,-3.1052e-05,0
7.7485,-1.8463e-05,0
7.749,-5.8747e-06,0
7.7495,1.2253e-05,0
7.75,4.7166e-05,0
7.7506,9.2988e-05,0
7.7511,0.00012807,0
7.7516,0.00013663,0
7.7521,0.00012068,0
7.7526,9.4163e-05,0
7.7532,7.3182e-05,0
7.7537,6.2943e-05,0
7.7542,5.3544e-05,0
7.7547,3.827e-05,0
7.7552,2.1988e-05,0
7.7557,8.896e-06,0
7.7563,-1.8463e-06,0
7.7568,-9.2317e-06,0
7.7573,-1.091e-05,0
7.7578,-7.2175e-06,0
7.7583,-3.0213e-06,0
7.7589,-8.3925e-07,0
7.7594,-2.182e-06,0
7.7599,-5.539e-06,0
7.7604,-5.539e-06,0
7.7609,-3.1891e-06,0
7.7615,1.5106e-06,0
7.762,9.3996e-06,0
7.7625,1.6785e-05,0
7.763,1.3931e-05,0
7.7635,1.6785e-06,0
7.7641,-9.7353e-06,0
7.7646,-1.7288e-05,0
7.7651,-2.6184e-05,0
7.7656,-4.1123e-05,0
7.7661,-5.5726e-05,0
7.7667,-6.3615e-05,0
7.7672,-6.4622e-05,0
7.7677,-6.2776e-05,0
7.7682,-5.9754e-05,0
7.7687,-4.8844e-05,0
7.7693,-3.1556e-05,0
7.7698,-1.0239e-05,0
7.7703,1.9638e-05,0
7.7708,5.8412e-05,0
7.7713,9.7185e-05,0
7.7718,0.00012605,0
7.7724,0.0001415,0
7.7729,0.00014116,0
7.7734,0.00013411,0
7.7739,0.00013764,0
7.7744,0.00014888,0
7.775,0.00014586,0
7.7755,0.00011716,0
7.776,7.7546e-05,0
7.7765,4.0452e-05,0
7.777,1.561e-05,0
7.7776,6.8818e-06,0
7.7781,7.8889e-06,0
7.7786,1.5946e-05,0
7.7791,2.1317e-05,0
7.7796,2.0478e-05,0
7.7802,1.7624e-05,0
7.7807,1.7288e-05,0
7.7812,2.2995e-05,0
7.7817,3.8437e-05,0
7.7822,4.9516e-05,0
7.7828,4.2466e-05,0
7.7833,2.3331e-05,0
7.7838,6.714e-06,0
7.7843,-5.539e-06,0
7.7848,-2.2324e-05,0
7.7853,-4.2634e-05,0
7.7859,-5.5558e-05,0
7.7864,-5.6565e-05,0
7.7869,-5.5726e-05,0
7.7874,-6.0594e-05,0
7.7879,-6.1265e-05,0
7.7885,-4.6159e-05,0
7.789,-2.0142e-05,0
7.7895,7.5532e-06,0
7.79,3.1724e-05,0
7.7905,5.0355e-05,0
7.7911,6.4286e-05,0
7.7916,7.6371e-05,0
7.7921,7.7714e-05,0
7.7926,6.6972e-05,0
7.7931,5.7572e-05,0
7.7937,5.7069e-05,0
7.7942,6.2608e-05,0
7.7947,6.6972e-05,0
7.7952,6.5293e-05,0
7.7957,4.7501e-05,0
7.7962,1.7121e-05,0
7.7968,-5.7069e-06,0
7.7973,-1.1246e-05,0
7.7978,-1.1246e-05,0
7.7983,-1.4267e-05,0
7.7988,-1.6617e-05,0
7.7994,-1.7288e-05,0
7.7999,-1.9471e-05,0
7.8004,-2.1317e-05,0
7.8009,-2.1653e-05,0
7.8014,-2.1149e-05,0
7.802,-1.8631e-05,0
7.8025,-1.1582e-05,0
7.803,-6.3783e-06,0
7.8035,-4.1962e-06,0
7.804,1.0071e-06,0
7.8046,8.896e-06,0
7.8051,1.0575e-05,0
7.8056,6.0426e-06,0
7.8061,0,0
7.8066,-1.0071e-06,0
7.8072,5.2033e-06,0
7.8077,1.4435e-05,0
7.8082,1.8296e-05,0
7.8087,1.7121e-05,0
7.8092,1.6785e-05,0
7.8098,2.3331e-05,0
7.8103,3.5248e-05,0
7.8108,4.2802e-05,0
7.8113,4.4816e-05,0
7.8118,4.3641e-05,0
7.8123,4.5319e-05,0
7.8129,5.0858e-05,0
7.8134,5.1698e-05,0
7.8139,4.5823e-05,0
7.8144,4.0787e-05,0
7.8149,3.9445e-05,0
7.8155,3.9445e-05,0
7.816,3.6591e-05,0
7.8165,3.0045e-05,0
7.817,2.266e-05,0
7.8175,1.8296e-05,0
7.8181,1.5946e-05,0
7.8186,1.2421e-05,0
7.8191,1.1749e-05,0
7.8196,1.4267e-05,0
7.8201,1.5946e-05,0
7.8207,1.7288e-05,0
7.8212,1.6953e-05,0
7.8217,1.5274e-05,0
7.8222,1.4939e-05,0
7.8227,1.3931e-05,0
7.8232,9.9031e-06,0
7.8238,5.2033e-06,0
7.8243,5.2033e-06,0
7.8248,8.2246e-06,0
7.8253,1.2253e-05,0
7.8258,1.4435e-05,0
7.8264,1.3764e-05,0
7.8269,1.1246e-05,0
7.8274,8.7282e-06,0
7.8279,7.3854e-06,0
7.8284,6.8818e-06,0
7.829,7.8889e-06,0
7.8295,7.2175e-06,0
7.83,2.3499e-06,0
7.8305,-4.5319e-06,0
7.831,-1.0239e-05,0
7.8316,-1.2589e-05,0
7.8321,-1.1078e-05,0
7.8326,-6.8818e-06,0
7.8331,-4.6998e-06,0
7.8336,-2.182e-06,0
7.8342,5.7069e-06,0
7.8347,1.8128e-05,0
7.8352,3.0716e-05,0
7.8357,4.3473e-05,0
7.8362,5.6565e-05,0
7.8368,6.6636e-05,0
7.8373,6.949e-05,0
7.8378,6.5461e-05,0
7.8383,6.0594e-05,0
7.8388,6.0258e-05,0
7.8393,5.9586e-05,0
7.8399,5.3208e-05,0
7.8404,4.2634e-05,0
7.8409,2.9709e-05,0
7.8414,2.3331e-05,0
7.8419,2.7863e-05,0
7.8425,3.743e-05,0
7.843,4.3977e-05,0
7.8435,4.3473e-05,0
7.844,4.1627e-05,0
7.8445,4.1291e-05,0
7.8451,3.9948e-05,0
7.8456,3.8102e-05,0
7.8461,3.9445e-05,0
7.8466,4.062e-05,0
7.8471,3.592e-05,0
7.8477,2.5681e-05,0
7.8482,1.1246e-05,0
7.8487,-2.8534e-06,0
7.8492,-1.3596e-05,0
7.8497,-2.3163e-05,0
7.8502,-2.9374e-05,0
7.8508,-3.0381e-05,0
7.8513,-3.0045e-05,0
7.8518,-2.9709e-05,0
7.8523,-2.4338e-05,0
7.8528,-9.9031e-06,0
7.8534,7.2175e-06,0
7.8539,1.8967e-05,0
7.8544,2.6688e-05,0
7.8549,2.9374e-05,0
7.8554,2.7359e-05,0
7.856,2.4002e-05,0
7.8565,1.9638e-05,0
7.857,1.7624e-05,0
7.8575,1.8799e-05,0
7.858,1.7624e-05,0
7.8586,7.8889e-06,0
7.8591,-1.6785e-07,0
7.8596,2.8534e-06,0
7.8601,1.1917e-05,0
7.8606,1.2253e-05,0
7.8612,3.8605e-06,0
7.8617,1.5106e-06,0
7.8622,1.3596e-05,0
7.8627,3.4745e-05,0
7.8632,5.6733e-05,0
7.8637,7.6707e-05,0
7.8643,8.4092e-05,0
7.8648,7.7043e-05,0
7.8653,6.63e-05,0
7.8658,5.8747e-05,0
7.8663,4.9516e-05,0
7.8669,3.4409e-05,0
7.8674,1.4603e-05,0
7.8679,-9.7353e-06,0
7.8684,-3.3738e-05,0
7.8689,-4.5823e-05,0
7.8695,-3.978e-05,0
7.87,-2.1653e-05,0
7.8705,-1.6785e-06,0
7.871,1.1749e-05,0
7.8715,2.2324e-05,0
7.8721,3.6255e-05,0
7.8726,5.3544e-05,0
7.8731,6.9322e-05,0
7.8736,8.0232e-05,0
7.8741,8.4428e-05,0
7.8747,7.3014e-05,0
7.8752,5.0858e-05,0
7.8757,3.1724e-05,0
7.8762,1.9303e-05,0
7.8767,9.7353e-06,0
7.8773,2.5177e-06,0
7.8778,-3.8605e-06,0
7.8783,-1.1582e-05,0
7.8788,-2.0142e-05,0
7.8793,-2.7024e-05,0
7.8798,-2.9877e-05,0
7.8804,-3.1052e-05,0
7.8809,-3.1052e-05,0
7.8814,-3.0045e-05,0
7.8819,-2.5345e-05,0
7.8824,-1.8296e-05,0
7.883,-1.2589e-05,0
7.8835,-8.896e-06,0
7.884,-1.5106e-06,0
7.8845,1.0407e-05,0
7.885,2.2995e-05,0
7.8856,3.1052e-05,0
7.8861,2.652e-05,0
7.8866,1.4267e-05,0
7.8871,4.5319e-06,0
7.8876,2.5177e-06,0
7.8882,6.3783e-06,0
7.8887,1.4603e-05,0
7.8892,2.6184e-05,0
7.8897,3.5416e-05,0
7.8902,3.6088e-05,0
7.8907,3.0884e-05,0
7.8913,3.4073e-05,0
7.8918,4.448e-05,0
7.8923,4.7166e-05,0
7.8928,3.7766e-05,0
7.8933,2.8031e-05,0
7.8939,2.4002e-05,0
7.8944,1.9135e-05,0
7.8949,1.326e-05,0
7.8954,1.3931e-05,0
7.8959,2.6352e-05,0
7.8965,4.3977e-05,0
7.897,5.5558e-05,0
7.8975,5.6565e-05,0
7.898,5.3544e-05,0
7.8985,5.2369e-05,0
7.8991,4.8676e-05,0
7.8996,3.6088e-05,0
7.9001,2.182e-05,0
7.9006,1.2085e-05,0
7.9011,4.8676e-06,0
7.9017,-2.8534e-06,0
7.9022,-8.3925e-06,0
7.9027,-1.1582e-05,0
7.9032,-1.2085e-05,0
7.9037,-1.1582e-05,0
7.9043,-1.6281e-05,0
7.9048,-2.5177e-05,0
7.9053,-3.2395e-05,0
7.9058,-3.2563e-05,0
7.9063,-2.4338e-05,0
7.9068,-1.091e-05,0
7.9074,6.3783e-06,0
7.9079,2.6688e-05,0
7.9084,4.1794e-05,0
7.9089,4.8844e-05,0
7.9094,6.1097e-05,0
7.91,8.1743e-05,0
7.9105,0.00010172,0
7.911,0.00010726,0
7.9115,9.2149e-05,0
7.912,6.2272e-05,0
7.9126,2.4506e-05,0
7.9131,-9.5674e-06,0
7.9136,-2.9877e-05,0
7.9141,-3.3402e-05,0
7.9146,-2.2492e-05,0
7.9152,-9.0639e-06,0
7.9157,0,0
7.9162,1.091e-05,0
7.9167,3.2395e-05,0
7.9172,5.5894e-05,0
7.9177,7.7546e-05,0
7.9183,0.00010172,0
7.9188,0.00012001,0
7.9193,0.00012068,0
7.9198,0.00010558,0
7.9203,8.275e-05,0
7.9209,5.7237e-05,0
7.9214,3.3738e-05,0
7.9219,1.7288e-05,0
7.9224,6.0426e-06,0
7.9229,-2.6856e-06,0
7.9235,-1.0407e-05,0
7.924,-1.6617e-05,0
7.9245,-2.0981e-05,0
7.925,-2.5681e-05,0
7.9255,-3.0716e-05,0
7.9261,-3.4409e-05,0
7.9266,-3.5248e-05,0
7.9271,-3.1388e-05,0
7.9276,-2.6688e-05,0
7.9281,-2.7527e-05,0
7.9287,-3.1388e-05,0
7.9292,-3.2395e-05,0
7.9297,-3.3066e-05,0
7.9302,-3.5416e-05,0
7.9307,-3.7598e-05,0
7.9313,-3.1052e-05,0
7.9318,-1.6281e-05,0
7.9323,-7.8889e-06,0
7.9328,-1.2757e-05,0
7.9333,-1.8296e-05,0
7.9338,-1.2757e-05,0
7.9344,-1.6785e-07,0
7.9349,1.3764e-05,0
7.9354,2.6688e-05,0
7.9359,3.743e-05,0
7.9364,5.0187e-05,0
7.937,6.8986e-05,0
7.9375,8.7785e-05,0
7.938,9.6513e-05,0
7.9385,9.9199e-05,0
7.939,0.00010289,0
7.9396,9.8863e-05,0
7.9401,8.3925e-05,0
7.9406,6.8818e-05,0
7.9411,5.4887e-05,0
7.9416,3.4745e-05,0
7.9422,1.1582e-05,0
7.9427,-6.2104e-06,0
7.9432,-1.2253e-05,0
7.9437,-9.2317e-06,0
7.9442,-1.3428e-06,0
7.9447,1.5106e-05,0
7.9453,3.743e-05,0
7.9458,5.539e-05,0
7.9463,6.3447e-05,0
7.9468,6.1601e-05,0
7.9473,5.5894e-05,0
7.9479,4.8676e-05,0
7.9484,4.0116e-05,0
7.9489,2.8031e-05,0
7.9494,9.2317e-06,0
7.9499,-9.9031e-06,0
7.9505,-1.9974e-05,0
7.951,-2.2828e-05,0
7.9515,-1.9303e-05,0
7.952,-1.2421e-05,0
7.9525,-4.3641e-06,0
7.9531,1.8463e-06,0
7.9536,4.1962e-06,0
7.9541,1.0575e-05,0
7.9546,3.0716e-05,0
7.9551,5.7237e-05,0
7.9557,7.1504e-05,0
7.9562,6.0929e-05,0
7.9567,3.4745e-05,0
7.9572,1.7288e-05,0
7.9577,1.2085e-05,0
7.9582,9.2317e-06,0
7.9588,1.091e-05,0
7.9593,6.5461e-06,0
7.9598,-1.6281e-05,0
7.9603,-5.2873e-05,0
7.9608,-8.8457e-05,0
7.9614,-0.00011565,0
7.9619,-0.00012572,0
7.9624,-0.00011464,0
7.9629,-9.4163e-05,0
7.9634,-7.4189e-05,0
7.964,-5.1362e-05,0
7.9645,-2.6352e-05,0
7.965,-4.3641e-06,0
7.9655,2.0478e-05,0
7.966,4.3137e-05,0
7.9666,4.8173e-05,0
7.9671,4.3473e-05,0
7.9676,4.5151e-05,0
7.9681,4.6159e-05,0
7.9686,3.2395e-05,0
7.9692,1.326e-05,0
7.9697,6.5461e-06,0
7.9702,1.6953e-05,0
7.9707,3.5416e-05,0
7.9712,5.623e-05,0
7.9718,8.3589e-05,0
7.9723,0.00011397,0
7.9728,0.00013075,0
7.9733,0.00013277,0
7.9738,0.00013512,0
7.9743,0.00014385,0
7.9749,0.00014922,0
7.9754,0.00013613,0
7.9759,0.00011733,0
7.9764,0.00010994,0
7.9769,0.00010625,0
7.9775,9.6178e-05,0
7.978,8.8289e-05,0
7.9785,7.9728e-05,0
7.979,5.4719e-05,0
7.9795,2.9038e-05,0
7.9801,1.9638e-05,0
7.9806,1.796e-05,0
7.9811,1.1749e-05,0
7.9816,2.5177e-06,0
7.9821,-4.1962e-06,0
7.9827,-1.4771e-05,0
7.9832,-3.6423e-05,0
7.9837,-6.3447e-05,0
7.9842,-8.1071e-05,0
7.9847,-8.6778e-05,0
7.9852,-8.6442e-05,0
7.9858,-8.2078e-05,0
7.9863,-7.5029e-05,0
7.9868,-6.63e-05,0
7.9873,-5.8076e-05,0
7.9878,-5.153e-05,0
7.9884,-4.4984e-05,0
7.9889,-3.508e-05,0
7.9894,-2.2156e-05,0
7.9899,-7.5532e-06,0
7.9904,5.2033e-06,0
7.991,1.1246e-05,0
7.9915,1.2421e-05,0
7.992,1.5442e-05,0
7.9925,2.2995e-05,0
7.993,3.6088e-05,0
7.9936,5.4215e-05,0
7.9941,7.0665e-05,0
7.9946,7.6707e-05,0
7.9951,7.6539e-05,0
7.9956,7.57e-05,0
7.9962,7.8218e-05,0
7.9967,7.8889e-05,0
7.9972,6.8986e-05,0
7.9977,5.5222e-05,0
7.9982,4.4144e-05,0
7.9988,3.2731e-05,0
7.9993,1.7624e-05,0
7.9998,4.5319e-06,0
8.0003,-1.5106e-06,0
8.0008,-5.8747e-06,0
8.0013,-1.1917e-05,0
8.0019,-1.561e-05,0
8.0024,-1.7792e-05,0
8.0029,-1.9638e-05,0
8.0034,-2.2156e-05,0
8.0039,-2.3667e-05,0
8.0045,-1.6953e-05,0
8.005,-2.182e-06,0
8.0055,5.8747e-06,0
8.006,1.6785e-07,0
8.0065,-1.091e-05,0
8.0071,-1.8128e-05,0
8.0076,-2.0981e-05,0
8.0081,-1.6953e-05,0
8.0086,-2.6856e-06,0
8.0091,1.9303e-05,0
8.0097,4.0116e-05,0
8.0102,5.0187e-05,0
8.0107,5.4887e-05,0
8.0112,5.9586e-05,0
8.0117,6.1936e-05,0
8.0122,6.4958e-05,0
8.0128,7.2007e-05,0
8.0133,7.4022e-05,0
8.0138,6.1265e-05,0
8.0143,3.4073e-05,0
8.0148,3.1891e-06,0
8.0154,-2.4338e-05,0
8.0159,-4.3137e-05,0
8.0164,-4.7333e-05,0
8.0169,-3.5416e-05,0
8.0174,-2.0142e-05,0
8.018,-1.3596e-05,0
8.0185,-2.0478e-05,0
8.019,-3.8437e-05,0
8.0195,-6.0426e-05,0
8.02,-6.9322e-05,0
8.0206,-5.623e-05,0
8.0211,-2.6184e-05,0
8.0216,8.0568e-06,0
8.0221,3.2059e-05,0
8.0226,5.0523e-05,0
8.0232,6.8818e-05,0
8.0237,8.6946e-05,0
8.0242,0.00010692,0
8.0247,0.00012203,0
8.0252,0.00014318,0
8.0258,0.00017691,0
8.0263,0.00019857,0
8.0268,0.00018816,0
8.0273,0.00016013,0
8.0278,0.00012605,0
8.0283,8.5771e-05,0
8.0289,4.4144e-05,0
8.0294,1.3596e-05,0
8.0299,-5.539e-06,0
8.0304,-2.4674e-05,0
8.0309,-4.7669e-05,0
8.0315,-6.3111e-05,0
8.032,-6.2943e-05,0
8.0325,-5.388e-05,0
8.033,-4.2298e-05,0
8.0335,-3.1724e-05,0
8.0341,-2.652e-05,0
8.0346,-2.3331e-05,0
8.0351,-1.6953e-05,0
8.0356,4.8676e-06,0
8.0361,5.2201e-05,0
8.0367,0.00010558,0
8.0372,0.00012773,0
8.0377,0.00011095,0
8.0382,7.6204e-05,0
8.0387,3.8605e-05,0
8.0392,-1.6785e-06,0
8.0398,-3.6423e-05,0
8.0403,-5.2873e-05,0
8.0408,-5.6565e-05,0
8.0413,-6.8986e-05,0
8.0418,-9.9199e-05,0
8.0424,-0.00012656,0
8.0429,-0.00013008,0
8.0434,-0.00011598,0
8.0439,-9.2821e-05,0
8.0444,-5.7908e-05,0
8.045,-5.539e-06,0
8.0455,4.8844e-05,0
8.046,7.7882e-05,0
8.0465,8.6778e-05,0
8.047,0.00010591,0
8.0476,0.0001509,0
8.0481,0.00020729,0
8.0486,0.00023952,0
8.0491,0.00022374,0
8.0496,0.0001791,0
8.0502,0.00013495,0
8.0507,9.8527e-05,0
8.0512,7.0665e-05,0
8.0517,5.0019e-05,0
8.0522,3.2898e-05,0
8.0527,1.9638e-05,0
8.0533,1.4603e-05,0
8.0538,1.2589e-05,0
8.0543,5.2033e-06,0
8.0548,-8.2246e-06,0
8.0553,-1.9638e-05,0
8.0559,-2.5849e-05,0
8.0564,-2.7695e-05,0
8.0569,-2.7359e-05,0
8.0574,-2.6184e-05,0
8.0579,-2.6184e-05,0
8.0585,-2.887e-05,0
8.059,-3.0716e-05,0
8.0595,-2.6017e-05,0
8.06,-1.796e-05,0
8.0605,-1.326e-05,0
8.0611,-1.4603e-05,0
8.0616,-1.9638e-05,0
8.0621,-2.4338e-05,0
8.0626,-2.8534e-05,0
8.0631,-3.0213e-05,0
8.0637,-2.3835e-05,0
8.0642,-1.6281e-05,0
8.0647,-1.3092e-05,0
8.0652,-9.9031e-06,0
8.0657,-4.8676e-06,0
8.0663,-2.5177e-06,0
8.0668,-3.357e-06,0
8.0673,-5.0355e-06,0
8.0678,-7.3854e-06,0
8.0683,-9.5674e-06,0
8.0688,-1.1078e-05,0
8.0694,-1.3596e-05,0
8.0699,-1.6281e-05,0
8.0704,-1.7288e-05,0
8.0709,-1.7792e-05,0
8.0714,-1.4267e-05,0
8.072,-5.2033e-06,0
8.0725,7.2175e-06,0
8.073,1.4435e-05,0
8.0735,1.3764e-05,0
8.074,1.1582e-05,0
8.0746,1.3764e-05,0
8.0751,2.0645e-05,0
8.0756,2.6688e-05,0
8.0761,2.6688e-05,0
8.0766,2.2324e-05,0
8.0772,2.0981e-05,0
8.0777,2.9038e-05,0
8.0782,4.213e-05,0
8.0787,5.2873e-05,0
8.0792,5.6062e-05,0
8.0798,5.0187e-05,0
8.0803,3.9948e-05,0
8.0808,3.5584e-05,0
8.0813,3.743e-05,0
8.0818,3.6759e-05,0
8.0823,2.7695e-05,0
8.0829,1.2421e-05,0
8.0834,0,0
8.0839,-6.5461e-06,0
8.0844,-1.3596e-05,0
8.0849,-2.2324e-05,0
8.0855,-2.6017e-05,0
8.086,-2.2995e-05,0
8.0865,-1.5778e-05,0
8.087,-7.5532e-06,0
8.0875,-8.3925e-07,0
8.0881,1.091e-05,0
8.0886,2.8702e-05,0
8.0891,4.7166e-05,0
8.0896,6.8315e-05,0
8.0901,8.9128e-05,0
8.0907,9.7856e-05,0
8.0912,8.6946e-05,0
8.0917,5.6565e-05,0
8.0922,2.1653e-05,0
8.0927,-2.5177e-06,0
8.0932,-1.3092e-05,0
8.0938,-1.4603e-05,0
8.0943,-1.2085e-05,0
8.0948,-1.1246e-05,0
8.0953,-1.4939e-05,0
8.0958,-1.7288e-05,0
8.0964,-7.5532e-06,0
8.0969,2.501e-05,0
8.0974,7.0497e-05,0
8.0979,0.00011028,0
8.0984,0.00013243,0
8.099,0.00014116,0
8.0995,0.0001472,0
8.1,0.00014704,0
8.1005,0.0001368,0
8.101,0.00012001,0
8.1016,0.00010423,0
8.1021,9.2821e-05,0
8.1026,7.9728e-05,0
8.1031,5.4719e-05,0
8.1036,1.8128e-05,0
8.1042,-1.2589e-05,0
8.1047,-2.501e-05,0
8.1052,-2.501e-05,0
8.1057,-2.2995e-05,0
8.1062,-2.0478e-05,0
8.1067,-1.4267e-05,0
8.1073,-1.8463e-06,0
8.1078,1.3764e-05,0
8.1083,2.652e-05,0
8.1088,2.9374e-05,0
8.1093,2.6352e-05,0
8.1099,2.4674e-05,0
8.1104,2.7359e-05,0
8.1109,3.0045e-05,0
8.1114,2.8031e-05,0
8.1119,2.266e-05,0
8.1125,1.7288e-05,0
8.113,1.2589e-05,0
8.1135,8.2246e-06,0
8.114,5.0355e-06,0
8.1145,1.6785e-07,0
8.1151,-9.0639e-06,0
8.1156,-2.2995e-05,0
8.1161,-3.5752e-05,0
8.1166,-4.2802e-05,0
8.1171,-4.8005e-05,0
8.1177,-5.5894e-05,0
8.1182,-6.714e-05,0
8.1187,-7.9728e-05,0
8.1192,-8.8792e-05,0
8.1197,-8.4764e-05,0
8.1203,-6.2943e-05,0
8.1208,-3.1891e-05,0
8.1213,-4.8676e-06,0
8.1218,1.091e-05,0
8.1223,2.7527e-05,0
8.1228,5.3544e-05,0
8.1234,8.4932e-05,0
8.1239,0.00011263,0
8.1244,0.00012941,0
8.1249,0.00012589,0
8.1254,0.0001039,0
8.126,7.6875e-05,0
8.1265,4.8173e-05,0
8.127,2.1317e-05,0
8.1275,3.1891e-06,0
8.128,-8.2246e-06,0
8.1286,-1.6617e-05,0
8.1291,-2.1149e-05,0
8.1296,-1.9974e-05,0
8.1301,-1.7624e-05,0
8.1306,-1.4603e-05,0
8.1312,-1.2924e-05,0
8.1317,-1.6281e-05,0
8.1322,-1.8631e-05,0
8.1327,-7.5532e-06,0
8.1332,1.796e-05,0
8.1337,4.0452e-05,0
8.1343,4.5151e-05,0
8.1348,3.6423e-05,0
8.1353,2.4506e-05,0
8.1358,1.6617e-05,0
8.1363,1.8967e-05,0
8.1369,2.9374e-05,0
8.1374,4.3809e-05,0
8.1379,5.7908e-05,0
8.1384,7.0329e-05,0
8.1389,7.5029e-05,0
8.1395,6.6972e-05,0
8.14,4.7669e-05,0
8.1405,2.5513e-05,0
8.141,8.3925e-06,0
8.1415,-5.3712e-06,0
8.1421,-1.8967e-05,0
8.1426,-2.7192e-05,0
8.1431,-2.9038e-05,0
8.1436,-3.2395e-05,0
8.1441,-3.7263e-05,0
8.1447,-4.213e-05,0
8.1452,-4.3473e-05,0
8.1457,-3.6759e-05,0
8.1462,-2.9877e-05,0
8.1467,-3.6423e-05,0
8.1472,-5.1865e-05,0
8.1478,-5.6565e-05,0
8.1483,-4.1794e-05,0
8.1488,-1.2253e-05,0
8.1493,2.3835e-05,0
8.1498,6.2272e-05,0
8.1504,9.8192e-05,0
8.1509,0.00012908,0
8.1514,0.00014519,0
8.1519,0.00014066,0
8.1524,0.00013243,0
8.153,0.00013126,0
8.1535,0.00012136,0
8.154,9.0806e-05,0
8.1545,5.7572e-05,0
8.155,4.0787e-05,0
8.1556,3.6927e-05,0
8.1561,4.0116e-05,0
8.1566,5.0187e-05,0
8.1571,5.8915e-05,0
8.1576,6.0594e-05,0
8.1582,5.2201e-05,0
8.1587,3.4745e-05,0
8.1592,1.7288e-05,0
8.1597,3.5248e-06,0
8.1602,-6.8818e-06,0
8.1608,-1.4435e-05,0
8.1613,-1.9471e-05,0
8.1618,-2.1653e-05,0
8.1623,-2.1988e-05,0
8.1628,-3.0716e-05,0
8.1633,-4.3305e-05,0
8.1639,-4.4984e-05,0
8.1644,-3.3738e-05,0
8.1649,-2.2828e-05,0
8.1654,-1.7288e-05,0
8.1659,-1.9303e-05,0
8.1665,-2.7359e-05,0
8.167,-2.8702e-05,0
8.1675,-1.4939e-05,0
8.168,5.8747e-06,0
8.1685,2.1149e-05,0
8.1691,3.0716e-05,0
8.1696,3.743e-05,0
8.1701,3.592e-05,0
8.1706,2.6017e-05,0
8.1711,2.1988e-05,0
8.1717,2.9038e-05,0
8.1722,3.9445e-05,0
8.1727,4.0787e-05,0
8.1732,2.7359e-05,0
8.1737,5.539e-06,0
8.1743,-1.1749e-05,0
8.1748,-1.9471e-05,0
8.1753,-1.8463e-05,0
8.1758,-5.2033e-06,0
8.1763,1.9974e-05,0
8.1768,4.7501e-05,0
8.1774,6.0426e-05,0
8.1779,5.9251e-05,0
8.1784,5.8412e-05,0
8.1789,6.3447e-05,0
8.1794,7.2007e-05,0
8.18,8.0232e-05,0
8.1805,7.9393e-05,0
8.181,6.7979e-05,0
8.1815,5.4551e-05,0
8.182,4.4144e-05,0
8.1826,2.9709e-05,0
8.1831,1.0575e-05,0
8.1836,2.0142e-06,0
8.1841,7.8889e-06,0
8.1846,1.6281e-05,0
8.1852,1.2589e-05,0
8.1857,-4.1962e-06,0
8.1862,-2.2324e-05,0
8.1867,-2.8367e-05,0
8.1872,-2.5681e-05,0
8.1877,-2.1317e-05,0
8.1883,-1.5778e-05,0
8.1888,-1.0407e-05,0
8.1893,-6.8818e-06,0
8.1898,-8.896e-06,0
8.1903,-1.2421e-05,0
8.1909,-4.5319e-06,0
8.1914,1.0239e-05,0
8.1919,1.9638e-05,0
8.1924,2.1149e-05,0
8.1929,2.1317e-05,0
8.1935,2.5513e-05,0
8.194,3.2731e-05,0
8.1945,3.3738e-05,0
8.195,2.2492e-05,0
8.1955,1.1246e-05,0
8.1961,1.4603e-05,0
8.1966,3.3738e-05,0
8.1971,5.5222e-05,0
8.1976,6.6133e-05,0
8.1981,6.6636e-05,0
8.1987,6.2943e-05,0
8.1992,5.623e-05,0
8.1997,4.683e-05,0
8.2002,3.5584e-05,0
8.2007,2.6017e-05,0
8.2012,1.9974e-05,0
8.2018,1.6114e-05,0
8.2023,1.326e-05,0
8.2028,1.0239e-05,0
8.2033,8.5603e-06,0
8.2038,4.1962e-06,0
8.2044,-1.8463e-06,0
8.2049,-3.357e-06,0
8.2054,-6.714e-07,0
8.2059,-1.6785e-07,0
8.2064,-6.714e-07,0
8.207,6.714e-07,0
8.2075,1.8463e-06,0
8.208,3.1891e-06,0
8.2085,5.539e-06,0
8.209,8.7282e-06,0
8.2096,1.2253e-05,0
8.2101,1.3764e-05,0
8.2106,1.2924e-05,0
8.2111,1.2924e-05,0
8.2116,9.0639e-06,0
8.2122,-6.3783e-06,0
8.2127,-2.6017e-05,0
8.2132,-3.8773e-05,0
8.2137,-4.5823e-05,0
8.2142,-5.0523e-05,0
8.2148,-4.8676e-05,0
8.2153,-3.8773e-05,0
8.2158,-2.1317e-05,0
8.2163,1.8463e-06,0
8.2168,2.3499e-05,0
8.2173,4.2634e-05,0
8.2179,6.2608e-05,0
8.2184,8.2414e-05,0
8.2189,9.366e-05,0
8.2194,8.6442e-05,0
8.2199,6.7475e-05,0
8.2205,5.0187e-05,0
8.221,4.2466e-05,0
8.2215,4.3809e-05,0
8.222,4.9516e-05,0
8.2225,6.0594e-05,0
8.2231,7.2511e-05,0
8.2236,7.0329e-05,0
8.2241,4.4648e-05,0
8.2246,6.5461e-06,0
8.2251,-2.2156e-05,0
8.2257,-3.7263e-05,0
8.2262,-4.5487e-05,0
8.2267,-4.6494e-05,0
8.2272,-3.9445e-05,0
8.2277,-3.1556e-05,0
8.2283,-2.4002e-05,0
8.2288,-9.5674e-06,0
8.2293,1.1246e-05,0
8.2298,3.4577e-05,0
8.2303,6.0761e-05,0
8.2308,7.7714e-05,0
8.2314,7.1672e-05,0
8.2319,4.8173e-05,0
8.2324,3.0716e-05,0
8.2329,2.8199e-05,0
8.2334,4.0787e-05,0
8.234,5.8747e-05,0
8.2345,6.6804e-05,0
8.235,6.244e-05,0
8.2355,5.2201e-05,0
8.236,4.7837e-05,0
8.2366,5.5894e-05,0
8.2371,6.6972e-05,0
8.2376,6.7308e-05,0
8.2381,4.8844e-05,0
8.2386,2.3835e-05,0
8.2392,5.8747e-06,0
8.2397,-2.8534e-06,0
8.2402,-6.5461e-06,0
8.2407,-5.0355e-06,0
8.2412,1.3428e-06,0
8.2417,1.3931e-05,0
8.2423,2.7527e-05,0
8.2428,4.3305e-05,0
8.2433,6.2943e-05,0
8.2438,8.2078e-05,0
8.2443,8.9128e-05,0
8.2449,7.6036e-05,0
8.2454,5.3208e-05,0
8.2459,3.6759e-05,0
8.2464,2.9877e-05,0
8.2469,2.7192e-05,0
8.2475,2.3667e-05,0
8.248,1.6281e-05,0
8.2485,6.2104e-06,0
8.249,-5.539e-06,0
8.2495,-1.3931e-05,0
8.2501,-1.7288e-05,0
8.2506,-1.7456e-05,0
8.2511,-1.3931e-05,0
8.2516,-1.2924e-05,0
8.2521,-1.5274e-05,0
8.2527,-1.7456e-05,0
8.2532,-2.4506e-05,0
8.2537,-4.1123e-05,0
8.2542,-5.7237e-05,0
8.2547,-6.2104e-05,0
8.2553,-5.8076e-05,0
8.2558,-5.3376e-05,0
8.2563,-4.5487e-05,0
8.2568,-3.2563e-05,0
8.2573,-1.796e-05,0
8.2578,-2.8534e-06,0
8.2584,1.6953e-05,0
8.2589,3.8941e-05,0
8.2594,6.2943e-05,0
8.2599,8.1743e-05,0
8.2604,8.1743e-05,0
8.261,6.2608e-05,0
8.2615,3.7095e-05,0
8.262,2.182e-05,0
8.2625,1.796e-05,0
8.263,2.0981e-05,0
8.2636,2.501e-05,0
8.2641,2.9374e-05,0
8.2646,3.7095e-05,0
8.2651,4.3809e-05,0
8.2656,4.5823e-05,0
8.2662,4.2802e-05,0
8.2667,3.3738e-05,0
8.2672,2.2995e-05,0
8.2677,1.561e-05,0
8.2682,1.7288e-05,0
8.2688,1.8128e-05,0
8.2693,1.0575e-05,0
8.2698,1.5106e-06,0
8.2703,-2.5177e-06,0
8.2708,-1.3428e-06,0
8.2713,1.8463e-06,0
8.2719,5.7069e-06,0
8.2724,7.8889e-06,0
8.2729,8.2246e-06,0
8.2734,1.326e-05,0
8.2739,2.4338e-05,0
8.2745,3.6088e-05,0
8.275,3.978e-05,0
8.2755,3.0884e-05,0
8.276,1.7792e-05,0
8.2765,3.6927e-06,0
8.2771,-1.0239e-05,0
8.2776,-1.8463e-05,0
8.2781,-1.9638e-05,0
8.2786,-1.8631e-05,0
8.2791,-1.7288e-05,0
8.2797,-1.6785e-05,0
8.2802,-1.091e-05,0
8.2807,1.6785e-07,0
8.2812,1.2589e-05,0
8.2817,2.501e-05,0
8.2822,3.978e-05,0
8.2828,5.1362e-05,0
8.2833,5.1698e-05,0
8.2838,4.3305e-05,0
8.2843,3.5752e-05,0
8.2848,3.3066e-05,0
8.2854,3.7934e-05,0
8.2859,4.8005e-05,0
8.2864,5.2873e-05,0
8.2869,4.4816e-05,0
8.2874,2.4002e-05,0
8.288,3.6927e-06,0
8.2885,-1.6785e-07,0
8.289,7.8889e-06,0
8.2895,1.561e-05,0
8.29,6.3783e-06,0
8.2906,-2.6688e-05,0
8.2911,-5.8915e-05,0
8.2916,-6.0929e-05,0
8.2921,-3.3402e-05,0
8.2926,6.2104e-06,0
8.2932,4.2634e-05,0
8.2937,6.8986e-05,0
8.2942,8.5435e-05,0
8.2947,9.1142e-05,0
8.2952,9.366e-05,0
8.2957,0.00010423,0
8.2963,0.0001227,0
8.2968,0.00012874,0
8.2973,0.00010709,0
8.2978,6.8315e-05,0
8.2983,3.827e-05,0
8.2989,2.2324e-05,0
8.2994,1.1582e-05,0
8.2999,-5.0355e-07,0
8.3004,-9.9031e-06,0
8.3009,-1.5946e-05,0
8.3015,-1.7456e-05,0
8.302,-1.1917e-05,0
8.3025,8.3925e-07,0
8.303,1.2589e-05,0
8.3035,1.3931e-05,0
8.3041,5.8747e-06,0
8.3046,0,0
8.3051,4.3641e-06,0
8.3056,1.5946e-05,0
8.3061,2.8702e-05,0
8.3067,4.6326e-05,0
8.3072,6.9154e-05,0
8.3077,8.0232e-05,0
8.3082,6.6972e-05,0
8.3087,3.3906e-05,0
8.3093,-1.4603e-05,0
8.3098,-5.8244e-05,0
8.3103,-7.1504e-05,0
8.3108,-5.8076e-05,0
8.3113,-3.9109e-05,0
8.3118,-2.9709e-05,0
8.3124,-2.4674e-05,0
8.3129,-1.5946e-05,0
8.3134,-2.182e-06,0
8.3139,1.7288e-05,0
8.3144,4.2634e-05,0
8.315,7.1e-05,0
8.3155,8.8289e-05,0
8.316,8.5771e-05,0
8.3165,7.2679e-05,0
8.317,6.0258e-05,0
8.3176,4.9012e-05,0
8.3181,3.6423e-05,0
8.3186,2.5513e-05,0
8.3191,1.4099e-05,0
8.3196,0,0
8.3202,-1.4099e-05,0
8.3207,-2.4338e-05,0
8.3212,-2.4338e-05,0
8.3217,-1.6449e-05,0
8.3222,-9.7353e-06,0
8.3227,-5.539e-06,0
8.3233,-2.8534e-06,0
8.3238,-2.182e-06,0
8.3243,-3.0213e-06,0
8.3248,-1.5106e-06,0
8.3253,1.1749e-06,0
8.3259,1.5106e-06,0
8.3264,3.8605e-06,0
8.3269,1.2589e-05,0
8.3274,1.9303e-05,0
8.3279,1.796e-05,0
8.3285,1.6953e-05,0
8.329,2.1988e-05,0
8.3295,3.0716e-05,0
8.33,3.4745e-05,0
8.3305,3.3234e-05,0
8.3311,3.2059e-05,0
8.3316,3.3066e-05,0
8.3321,3.3738e-05,0
8.3326,3.1052e-05,0
8.3331,2.3499e-05,0
8.3337,1.8128e-05,0
8.3342,1.5946e-05,0
8.3347,1.4267e-05,0
8.3352,1.2589e-05,0
8.3357,1.0575e-05,0
8.3362,7.5532e-06,0
8.3368,6.0426e-06,0
8.3373,5.7069e-06,0
8.3378,1.8463e-06,0
8.3383,-5.8747e-06,0
8.3388,-1.2421e-05,0
8.3394,-1.3596e-05,0
8.3399,-1.0575e-05,0
8.3404,-5.2033e-06,0
8.3409,2.3499e-06,0
8.3414,7.5532e-06,0
8.342,9.5674e-06,0
8.3425,8.5603e-06,0
