62.933,8.8792e-05,0
62.934,8.6275e-05,0
62.934,8.191e-05,0
62.935,7.9728e-05,0
62.935,7.9393e-05,0
62.936,8.3085e-05,0
62.936,8.5771e-05,0
62.937,7.3014e-05,0
62.938,4.8844e-05,0
62.938,3.9948e-05,0
62.939,4.6494e-05,0
62.939,5.2705e-05,0
62.94,5.9251e-05,0
62.94,6.7643e-05,0
62.941,7.2847e-05,0
62.941,7.3014e-05,0
62.942,6.8315e-05,0
62.942,6.0929e-05,0
62.943,4.918e-05,0
62.943,3.2395e-05,0
62.944,2.6688e-05,0
62.944,3.6255e-05,0
62.945,4.7166e-05,0
62.945,5.0523e-05,0
62.946,4.3473e-05,0
62.946,3.0884e-05,0
62.947,-1.5106e-06,0
62.947,-5.2033e-05,0
62.948,-0.00011196,0
62.948,-0.00016197,0
62.949,-0.00016718,0
62.949,-0.00012169,0
62.95,-4.7837e-05,0
62.95,2.6017e-05,0
62.951,8.04e-05,0
62.952,0.00010675,0
62.952,0.00011447,0
62.953,0.00011363,0
62.953,0.00012471,0
62.954,0.00015325,0
62.954,0.00015879,0
62.955,0.00012572,0
62.955,8.6442e-05,0
62.956,5.4383e-05,0
62.956,2.7192e-05,0
62.957,6.8818e-06,0
62.957,-7.7211e-06,0
62.958,-1.561e-05,0
62.958,-1.6953e-05,0
62.959,-5.2033e-06,0
62.959,1.2757e-05,0
62.96,2.3499e-05,0
62.96,2.2156e-05,0
62.961,-3.5248e-06,0
62.961,-5.9586e-05,0
62.962,-0.00013042,0
62.962,-0.00018077,0
62.963,-0.00018514,0
62.963,-0.00013881,0
62.964,-7.6036e-05,0
62.965,-3.978e-05,0
62.965,-3.5584e-05,0
62.966,-3.7095e-05,0
62.966,-3.1724e-05,0
62.967,-1.9638e-05,0
62.967,-1.2421e-05,0
62.968,-2.1317e-05,0
62.968,-2.5681e-05,0
62.969,-1.4435e-05,0
62.969,3.8605e-06,0
62.97,2.3835e-05,0
62.97,3.5416e-05,0
62.971,4.3809e-05,0
62.971,5.5055e-05,0
62.972,6.009e-05,0
62.972,5.7404e-05,0
62.973,5.623e-05,0
62.973,5.5222e-05,0
62.974,5.2033e-05,0
62.974,5.6733e-05,0
62.975,7.6371e-05,0
62.975,0.00010121,0
62.976,0.00012538,0
62.976,0.00013881,0
62.977,0.00013596,0
62.977,0.00012404,0
62.978,0.00011565,0
62.979,0.0001086,0
62.979,0.00010256,0
62.98,9.4499e-05,0
62.98,8.0232e-05,0
62.981,6.63e-05,0
62.981,6.9993e-05,0
62.982,9.4163e-05,0
62.982,0.00011934,0
62.983,0.00013294,0
62.983,0.00012706,0
62.984,9.8527e-05,0
62.984,5.8244e-05,0
62.985,2.266e-05,0
62.985,1.6785e-07,0
62.986,-1.5106e-06,0
62.986,-5.539e-06,0
62.987,-4.5319e-05,0
62.987,-0.00012035,0
62.988,-0.00019924,0
62.988,-0.00025194,0
62.989,-0.00027309,0
62.989,-0.00026033,0
62.99,-0.00021552,0
62.99,-0.0001608,0
62.991,-9.7688e-05,0
62.992,-2.2324e-05,0
62.992,4.2466e-05,0
62.993,7.6707e-05,0
62.993,7.7882e-05,0
62.994,6.6636e-05,0
62.994,5.6733e-05,0
62.995,3.827e-05,0
62.995,1.1582e-05,0
62.996,-8.896e-06,0
62.996,-1.6953e-05,0
62.997,-3.1891e-06,0
62.997,2.5681e-05,0
62.998,5.6901e-05,0
62.998,8.2414e-05,0
62.999,9.6345e-05,0
62.999,9.987e-05,0
63,9.0806e-05,0
63,5.8915e-05,0
63.001,8.5603e-06,0
63.001,-2.8367e-05,0
63.002,-2.2995e-05,0
63.002,1.0071e-05,0
63.003,4.213e-05,0
63.003,6.7643e-05,0
63.004,8.1407e-05,0
63.005,7.9393e-05,0
63.005,6.8818e-05,0
63.006,5.3544e-05,0
63.006,3.4241e-05,0
63.007,1.0407e-05,0
63.007,-1.091e-05,0
63.008,-1.5442e-05,0
63.008,2.182e-06,0
63.009,4.4648e-05,0
63.009,9.6513e-05,0
63.01,0.00013545,0
63.01,0.00014754,0
63.011,0.00014351,0
63.011,0.00014015,0
63.012,0.00012605,0
63.012,8.1407e-05,0
63.013,1.1246e-05,0
63.013,-3.6591e-05,0
63.014,-4.448e-05,0
63.014,-3.3234e-05,0
63.015,-2.6184e-05,0
63.015,-1.9974e-05,0
63.016,-3.5248e-06,0
63.016,2.9374e-05,0
63.017,6.3615e-05,0
63.017,8.896e-05,0
63.018,0.00010457,0
63.019,0.00010944,0
63.019,0.00010423,0
63.02,9.0974e-05,0
63.02,6.8315e-05,0
63.021,4.8844e-05,0
63.021,3.4577e-05,0
63.022,1.6449e-05,0
63.022,-3.8605e-06,0
63.023,-1.6953e-05,0
63.023,-1.7456e-05,0
63.024,-1.091e-05,0
63.024,-1.7624e-05,0
63.025,-3.7766e-05,0
63.025,-5.8076e-05,0
63.026,-8.1239e-05,0
63.026,-0.00010289,0
63.027,-0.00010809,0
63.027,-9.6513e-05,0
63.028,-7.8721e-05,0
63.028,-6.6972e-05,0
63.029,-5.5558e-05,0
63.029,-3.2563e-05,0
63.03,4.8676e-06,0
63.03,3.9445e-05,0
63.031,6.0258e-05,0
63.032,6.9657e-05,0
63.032,7.3014e-05,0
63.033,8.1239e-05,0
63.033,7.6875e-05,0
63.034,2.8031e-05,0
63.034,-3.743e-05,0
63.035,-5.8915e-05,0
63.035,-3.978e-05,0
63.036,-2.9038e-05,0
63.036,-3.3738e-05,0
63.037,-2.6352e-05,0
63.037,1.0575e-05,0
63.038,4.062e-05,0
63.038,2.7359e-05,0
63.039,-2.5177e-06,0
63.039,-1.091e-05,0
63.04,6.714e-06,0
63.04,3.7766e-05,0
63.041,6.6636e-05,0
63.041,8.426e-05,0
63.042,9.836e-05,0
63.042,0.00010574,0
63.043,0.00010373,0
63.043,9.366e-05,0
63.044,7.1672e-05,0
63.044,4.2634e-05,0
63.045,2.0142e-05,0
63.046,6.2104e-06,0
63.046,-3.0213e-06,0
63.047,-2.5177e-06,0
63.047,4.6998e-06,0
63.048,8.5603e-06,0
63.048,7.5532e-06,0
63.049,1.326e-05,0
63.049,3.5752e-05,0
63.05,5.0019e-05,0
63.05,3.8773e-05,0
63.051,1.0742e-05,0
63.051,3.8605e-06,0
63.052,2.9206e-05,0
63.052,6.0258e-05,0
63.053,7.2343e-05,0
63.053,6.1769e-05,0
63.054,4.2634e-05,0
63.054,2.0981e-05,0
63.055,-6.0426e-06,0
63.055,-2.8702e-05,0
63.056,-3.7095e-05,0
63.056,-2.5345e-05,0
63.057,9.0639e-06,0
63.057,4.7669e-05,0
63.058,6.3615e-05,0
63.059,5.8915e-05,0
63.059,5.1698e-05,0
63.06,5.304e-05,0
63.06,6.6636e-05,0
63.061,7.8721e-05,0
63.061,7.9393e-05,0
63.062,6.9322e-05,0
63.062,5.9586e-05,0
63.063,5.9251e-05,0
63.063,5.7908e-05,0
63.064,3.7766e-05,0
63.064,1.1749e-06,0
63.065,-3.6423e-05,0
63.065,-4.1123e-05,0
63.066,-1.7624e-05,0
63.066,-1.3092e-05,0
63.067,-4.1123e-05,0
63.067,-6.1601e-05,0
63.068,-5.4215e-05,0
63.068,-3.6759e-05,0
63.069,-2.8367e-05,0
63.069,-4.4984e-05,0
63.07,-7.0161e-05,0
63.07,-6.7643e-05,0
63.071,-3.7766e-05,0
63.071,-6.0426e-06,0
63.072,-1.8463e-06,0
63.073,-2.0981e-05,0
63.073,-2.5681e-05,0
63.074,4.1962e-06,0
63.074,4.1459e-05,0
63.075,6.3447e-05,0
63.075,7.5868e-05,0
63.076,9.5003e-05,0
63.076,0.00011128,0
63.077,0.00012035,0
63.077,0.00012723,0
63.078,0.0001368,0
63.078,0.00012924,0
63.079,0.0001039,0
63.079,7.5364e-05,0
63.08,3.8102e-05,0
63.08,1.8463e-06,0
63.081,-3.5248e-05,0
63.081,-9.2485e-05,0
63.082,-0.00015258,0
63.082,-0.00016634,0
63.083,-0.00011028,0
63.083,-3.508e-05,0
63.084,9.2317e-06,0
63.084,3.743e-05,0
63.085,6.4958e-05,0
63.086,8.5435e-05,0
63.086,9.8192e-05,0
63.087,9.9535e-05,0
63.087,8.1575e-05,0
63.088,4.8508e-05,0
63.088,1.561e-05,0
63.089,-3.8605e-06,0
63.089,-5.539e-06,0
63.09,7.8889e-06,0
63.09,2.1988e-05,0
63.091,2.8702e-05,0
63.091,2.7863e-05,0
63.092,1.3764e-05,0
63.092,-8.3925e-06,0
63.093,-2.6017e-05,0
63.093,-3.8773e-05,0
63.094,-4.1794e-05,0
63.094,-2.5681e-05,0
63.095,-1.6785e-07,0
63.095,1.7288e-05,0
63.096,3.4577e-05,0
63.096,5.7572e-05,0
63.097,8.51e-05,0
63.097,0.00010927,0
63.098,0.00012337,0
63.098,0.00011598,0
63.099,9.5842e-05,0
63.1,8.2078e-05,0
63.1,6.5629e-05,0
63.101,4.1459e-05,0
63.101,1.6785e-05,0
63.102,1.8463e-06,0
63.102,-1.5106e-06,0
63.103,-1.6785e-06,0
63.103,-4.5319e-06,0
63.104,-1.2589e-05,0
63.104,-2.2995e-05,0
63.105,-2.9374e-05,0
63.105,-3.3402e-05,0
63.106,-3.508e-05,0
63.106,-2.5345e-05,0
63.107,-7.8889e-06,0
63.107,8.5603e-06,0
63.108,2.0981e-05,0
63.108,2.8702e-05,0
63.109,2.9374e-05,0
63.109,2.6352e-05,0
63.11,3.1052e-05,0
63.11,4.6662e-05,0
63.111,6.5126e-05,0
63.111,7.9561e-05,0
63.112,7.335e-05,0
63.112,5.6062e-05,0
63.113,4.4144e-05,0
63.114,3.122e-05,0
63.114,1.1246e-05,0
63.115,-2.8534e-06,0
63.115,6.8818e-06,0
63.116,3.5416e-05,0
63.116,6.5965e-05,0
63.117,7.8721e-05,0
63.117,6.2608e-05,0
63.118,3.9445e-05,0
63.118,2.9709e-05,0
63.119,3.0716e-05,0
63.119,3.4409e-05,0
63.12,2.9374e-05,0
63.12,5.539e-06,0
63.121,-2.7359e-05,0
63.121,-5.0019e-05,0
63.122,-4.4816e-05,0
63.122,-1.2589e-05,0
63.123,3.2731e-05,0
63.123,7.57e-05,0
63.124,9.9199e-05,0
63.124,8.9464e-05,0
63.125,5.5894e-05,0
63.125,1.6953e-05,0
63.126,-2.7024e-05,0
63.127,-7.57e-05,0
63.127,-0.00011397,0
63.128,-0.00014183,0
63.128,-0.00017809,0
63.129,-0.00020511,0
63.129,-0.00018396,0
63.13,-0.00010642,0
63.13,-1.2757e-05,0
63.131,5.3544e-05,0
63.131,6.8315e-05,0
63.132,5.153e-05,0
63.132,4.448e-05,0
63.133,5.0187e-05,0
63.133,5.2537e-05,0
63.134,5.0187e-05,0
63.134,5.8915e-05,0
63.135,7.4861e-05,0
63.135,8.3253e-05,0
63.136,8.3421e-05,0
63.136,7.8218e-05,0
63.137,7.7379e-05,0
63.137,8.4092e-05,0
63.138,9.3828e-05,0
63.138,0.00010256,0
63.139,0.00010843,0
63.139,0.00010709,0
63.14,8.8121e-05,0
63.141,5.8076e-05,0
63.141,3.743e-05,0
63.142,1.8967e-05,0
63.142,-1.0239e-05,0
63.143,-4.4144e-05,0
63.143,-7.0161e-05,0
63.144,-7.8889e-05,0
63.144,-7.3518e-05,0
63.145,-5.0858e-05,0
63.145,-1.1414e-05,0
63.146,3.0716e-05,0
63.146,6.1265e-05,0
63.147,7.5364e-05,0
63.147,8.9799e-05,0
63.148,0.00010726,0
63.148,0.00011766,0
63.149,0.00011447,0
63.149,8.5771e-05,0
63.15,3.1388e-05,0
63.15,-2.6352e-05,0
63.151,-6.3279e-05,0
63.151,-6.5293e-05,0
63.152,-4.448e-05,0
63.152,-4.1794e-05,0
63.153,-5.7069e-05,0
63.154,-6.3447e-05,0
63.154,-5.153e-05,0
63.155,-3.5416e-05,0
63.155,-3.0716e-05,0
63.156,-2.6688e-05,0
63.156,-1.7624e-05,0
63.157,-8.896e-06,0
63.157,-2.8534e-06,0
63.158,1.6785e-06,0
63.158,1.4267e-05,0
63.159,3.2898e-05,0
63.159,4.9012e-05,0
63.16,5.7908e-05,0
63.16,5.8915e-05,0
63.161,6.1936e-05,0
63.161,6.0929e-05,0
63.162,5.7908e-05,0
63.162,6.7308e-05,0
63.163,9.3828e-05,0
63.163,0.00011666,0
63.164,0.00012068,0
63.164,0.0001133,0
63.165,0.00010457,0
63.165,8.6778e-05,0
63.166,5.623e-05,0
63.166,3.2563e-05,0
63.167,3.8437e-05,0
63.168,6.2272e-05,0
63.168,7.9057e-05,0
63.169,7.9728e-05,0
63.169,8.1239e-05,0
63.17,9.6178e-05,0
63.17,0.0001133,0
63.171,0.00012068,0
63.171,0.00011598,0
63.172,0.00010373,0
63.172,9.752e-05,0
63.173,8.7785e-05,0
63.173,6.1433e-05,0
63.174,3.0884e-05,0
63.174,-5.0355e-07,0
63.175,-3.6088e-05,0
63.175,-7.9057e-05,0
63.176,-0.00013227,0
63.176,-0.0001796,0
63.177,-0.00020998,0
63.177,-0.00023281,0
63.178,-0.00025513,0
63.178,-0.00027108,0
63.179,-0.00026705,0
63.179,-0.00023079,0
63.18,-0.00016818,0
63.181,-9.2821e-05,0
63.181,-2.3667e-05,0
63.182,3.1388e-05,0
63.182,7.2343e-05,0
63.183,0.00010709,0
63.183,0.00013042,0
63.184,0.00013378,0
63.184,0.00012119,0
63.185,0.00010927,0
63.185,0.00010138,0
63.186,8.8121e-05,0
63.186,7.0832e-05,0
63.187,5.3544e-05,0
63.187,3.9109e-05,0
63.188,1.9638e-05,0
63.188,3.5248e-06,0
63.189,8.2246e-06,0
63.189,1.8967e-05,0
63.19,2.9206e-05,0
63.19,4.3137e-05,0
63.191,7.2343e-05,0
63.191,0.00012874,0
63.192,0.00019454,0
63.192,0.00023012,0
63.193,0.00022341,0
63.194,0.00019319,0
63.194,0.0001561,0
63.195,0.00010726,0
63.195,3.3738e-05,0
63.196,-7.0832e-05,0
63.196,-0.00015023,0
63.197,-0.0001472,0
63.197,-8.3253e-05,0
63.198,-1.6617e-05,0
63.198,2.6688e-05,0
63.199,5.5894e-05,0
63.199,7.7546e-05,0
63.2,8.6778e-05,0
63.2,7.7714e-05,0
63.201,5.8076e-05,0
63.201,4.1123e-05,0
63.202,2.8702e-05,0
63.202,1.9638e-05,0
63.203,3.0045e-05,0
63.203,6.0258e-05,0
63.204,8.8792e-05,0
63.204,9.8695e-05,0
63.205,9.3156e-05,0
63.205,7.8386e-05,0
63.206,3.9948e-05,0
63.206,-2.8199e-05,0
63.207,-9.8863e-05,0
63.208,-0.00014049,0
63.208,-0.00011128,0
63.209,-2.5345e-05,0
63.209,5.3544e-05,0
63.21,8.8792e-05,0
63.21,8.2582e-05,0
63.211,5.3544e-05,0
63.211,2.5177e-05,0
63.212,1.8463e-06,0
63.212,-2.501e-05,0
63.213,-4.2634e-05,0
63.213,-3.8102e-05,0
63.214,-1.8967e-05,0
63.214,3.357e-07,0
63.215,-3.8605e-06,0
63.215,-2.6352e-05,0
63.216,-4.5319e-05,0
63.216,-5.2201e-05,0
63.217,-4.1291e-05,0
63.217,-2.0645e-05,0
63.218,-9.5674e-06,0
63.218,-1.8463e-05,0
63.219,-3.3066e-05,0
63.219,-3.6927e-05,0
63.22,-2.5681e-05,0
63.221,-5.539e-06,0
63.221,9.3996e-06,0
63.222,1.5106e-05,0
63.222,1.9974e-05,0
63.223,2.1317e-05,0
63.223,2.4674e-05,0
63.224,3.5416e-05,0
63.224,4.8676e-05,0
63.225,5.9922e-05,0
63.225,6.5965e-05,0
63.226,6.5293e-05,0
63.226,6.5629e-05,0
63.227,6.1601e-05,0
63.227,4.1794e-05,0
63.228,1.8463e-05,0
63.228,5.2033e-06,0
63.229,-5.0355e-06,0
63.229,-1.4267e-05,0
63.23,-1.8463e-05,0
63.23,-1.6617e-05,0
63.231,-1.2253e-05,0
63.231,-2.8534e-06,0
63.232,1.3764e-05,0
63.232,3.7766e-05,0
63.233,5.8915e-05,0
63.233,6.2608e-05,0
63.234,5.5726e-05,0
63.235,5.4887e-05,0
63.235,5.6565e-05,0
63.236,5.3544e-05,0
63.236,3.8941e-05,0
63.237,1.0407e-05,0
63.237,-1.0407e-05,0
63.238,-1.091e-05,0
63.238,-2.5177e-06,0
63.239,5.8747e-06,0
63.239,4.1962e-06,0
63.24,-1.5106e-06,0
63.24,5.539e-06,0
63.241,2.4002e-05,0
63.241,3.8437e-05,0
63.242,3.7263e-05,0
63.242,2.7359e-05,0
63.243,2.1317e-05,0
63.243,2.0645e-05,0
63.244,2.1317e-05,0
63.244,3.0045e-05,0
63.245,4.9851e-05,0
63.245,6.8986e-05,0
63.246,6.9657e-05,0
63.246,4.5991e-05,0
63.247,1.6953e-05,0
63.248,1.3428e-06,0
63.248,-9.5674e-06,0
63.249,-2.031e-05,0
63.249,-1.2757e-05,0
63.25,9.2317e-06,0
63.25,3.3738e-05,0
63.251,5.0523e-05,0
63.251,5.0858e-05,0
63.252,4.0116e-05,0
63.252,1.8296e-05,0
63.253,-6.5461e-06,0
63.253,-8.3925e-06,0
63.254,9.0639e-06,0
63.254,1.6953e-05,0
63.255,2.2324e-05,0
63.255,3.4577e-05,0
63.256,4.213e-05,0
63.256,3.5416e-05,0
63.257,2.8031e-05,0
63.257,2.8367e-05,0
63.258,2.9038e-05,0
63.258,3.4073e-05,0
63.259,4.448e-05,0
63.259,3.3066e-05,0
63.26,5.0355e-07,0
63.26,-1.3931e-05,0
63.261,7.5532e-06,0
63.262,3.827e-05,0
63.262,4.683e-05,0
63.263,3.1724e-05,0
63.263,9.9031e-06,0
63.264,3.8605e-06,0
63.264,8.2246e-06,0
63.265,4.3641e-06,0
63.265,3.357e-07,0
63.266,1.7288e-05,0
63.266,4.5991e-05,0
63.267,6.7979e-05,0
63.267,7.5532e-05,0
63.268,6.4286e-05,0
63.268,4.5991e-05,0
63.269,3.9948e-05,0
63.269,4.5151e-05,0
63.27,4.9348e-05,0
63.27,4.9516e-05,0
63.271,4.4312e-05,0
63.271,3.2563e-05,0
63.272,1.5946e-05,0
63.272,-1.1749e-06,0
63.273,-1.8799e-05,0
63.273,-3.1556e-05,0
63.274,-4.0787e-05,0
63.275,-4.1459e-05,0
63.275,-3.2395e-05,0
63.276,-2.5681e-05,0
63.276,-2.6017e-05,0
63.277,-3.3906e-05,0
63.277,-2.8702e-05,0
63.278,-2.8534e-06,0
63.278,1.5778e-05,0
63.279,1.5778e-05,0
63.279,1.1246e-05,0
63.28,1.4939e-05,0
63.28,2.7527e-05,0
63.281,4.3809e-05,0
63.281,6.0929e-05,0
63.282,7.7714e-05,0
63.282,9.4499e-05,0
63.283,9.9199e-05,0
63.283,9.2653e-05,0
63.284,8.7617e-05,0
63.284,7.7714e-05,0
63.285,5.6062e-05,0
63.285,3.8773e-05,0
63.286,5.5894e-05,0
63.286,9.8527e-05,0
63.287,0.00012136,0
63.287,8.5771e-05,0
63.288,1.7288e-05,0
63.289,-1.1414e-05,0
63.289,1.326e-05,0
63.29,5.623e-05,0
63.29,8.1743e-05,0
63.291,7.6371e-05,0
63.291,3.8773e-05,0
63.292,-2.8367e-05,0
63.292,-9.3828e-05,0
63.293,-0.00012387,0
63.293,-0.00011598,0
63.294,-9.5674e-05,0
63.294,-7.6036e-05,0
63.295,-5.3544e-05,0
63.295,-3.7766e-05,0
63.296,-4.1459e-05,0
63.296,-5.623e-05,0
63.297,-6.2272e-05,0
63.297,-5.1026e-05,0
63.298,-3.2227e-05,0
63.298,-1.9638e-05,0
63.299,-2.1317e-05,0
63.299,-3.2059e-05,0
63.3,-4.1291e-05,0
63.3,-3.6423e-05,0
63.301,-1.4099e-05,0
63.301,1.1582e-05,0
63.302,3.3234e-05,0
63.303,5.1865e-05,0
63.303,7.1336e-05,0
63.304,8.4428e-05,0
63.304,7.9561e-05,0
63.305,4.7669e-05,0
63.305,-6.8818e-06,0
63.306,-5.5726e-05,0
63.306,-6.3279e-05,0
63.307,-3.5416e-05,0
63.307,-3.1891e-06,0
63.308,1.9135e-05,0
63.308,3.1052e-05,0
63.309,4.5487e-05,0
63.309,6.3615e-05,0
63.31,7.8721e-05,0
63.31,8.5771e-05,0
63.311,8.5435e-05,0
63.311,8.4092e-05,0
63.312,8.6442e-05,0
63.312,9.0471e-05,0
63.313,9.0303e-05,0
63.313,8.9632e-05,0
63.314,9.3828e-05,0
63.314,0.00010037,0
63.315,0.00010356,0
63.316,0.00010037,0
63.316,7.9057e-05,0
63.317,4.3305e-05,0
63.317,6.5461e-06,0
63.318,-3.5416e-05,0
63.318,-7.7211e-05,0
63.319,-0.00010021,0
63.319,-0.00010088,0
63.32,-8.1407e-05,0
63.32,-4.2802e-05,0
63.321,6.0426e-06,0
63.321,4.0787e-05,0
63.322,5.388e-05,0
63.322,6.3615e-05,0
63.323,6.9657e-05,0
63.323,5.7908e-05,0
63.324,3.5416e-05,0
63.324,3.4073e-05,0
63.325,5.4047e-05,0
63.325,6.8482e-05,0
63.326,6.3951e-05,0
63.326,5.5222e-05,0
63.327,5.1362e-05,0
63.327,5.5558e-05,0
63.328,7.1e-05,0
63.328,8.7785e-05,0
63.329,9.2485e-05,0
63.33,8.04e-05,0
63.33,6.8986e-05,0
63.331,5.7572e-05,0
63.331,3.3066e-05,0
63.332,-1.2924e-05,0
63.332,-6.1601e-05,0
63.333,-7.1168e-05,0
63.333,-3.978e-05,0
63.334,-1.8463e-06,0
63.334,2.0813e-05,0
63.335,2.8031e-05,0
63.335,2.7527e-05,0
63.336,2.9877e-05,0
63.336,3.8102e-05,0
63.337,5.0523e-05,0
63.337,5.0187e-05,0
63.338,3.7766e-05,0
63.338,2.5345e-05,0
63.339,2.0478e-05,0
63.339,2.4506e-05,0
63.34,2.8367e-05,0
63.34,2.3835e-05,0
63.341,1.0575e-05,0
63.341,-3.0213e-06,0
63.342,-2.182e-06,0
63.343,2.0142e-06,0
63.343,1.5106e-06,0
63.344,5.8747e-06,0
63.344,1.4603e-05,0
63.345,2.9206e-05,0
63.345,4.8844e-05,0
63.346,6.6133e-05,0
63.346,8.0232e-05,0
63.347,9.7856e-05,0
63.347,0.0001227,0
63.348,0.00014083,0
63.348,0.00013915,0
63.349,0.00013344,0
63.349,0.00013613,0
63.35,0.00012773,0
63.35,9.5506e-05,0
63.351,3.743e-05,0
63.351,-3.1052e-05,0
63.352,-8.5435e-05,0
63.352,-0.00013394,0
63.353,-0.00019622,0
63.353,-0.0002652,0
63.354,-0.00029961,0
63.354,-0.00027997,0
63.355,-0.00020981,0
63.355,-0.00012706,0
63.356,-8.5435e-05,0
63.357,-9.6178e-05,0
63.357,-0.00012908,0
63.358,-0.00015174,0
63.358,-0.00015106,0
63.359,-0.00013344,0
63.359,-0.00010625,0
63.36,-6.7643e-05,0
63.36,-1.9638e-05,0
63.361,2.2324e-05,0
63.361,5.1865e-05,0
63.362,8.1071e-05,0
63.362,0.00011632,0
63.363,0.00015425,0
63.363,0.00017624,0
63.364,0.00017372,0
63.364,0.00016164,0
63.365,0.00015291,0
63.365,0.00015593,0
63.366,0.0001603,0
63.366,0.00015358,0
63.367,0.00014133,0
63.367,0.00012941,0
63.368,0.000118,0
63.368,0.00010927,0
63.369,0.00010591,0
63.37,0.00010692,0
63.37,0.00010809,0
63.371,0.00010843,0
63.371,0.00010138,0
63.372,9.0974e-05,0
63.372,8.5771e-05,0
63.373,7.2511e-05,0
63.373,4.683e-05,0
63.374,1.5946e-05,0
63.374,-1.6785e-06,0
63.375,2.0142e-06,0
63.375,4.0284e-06,0
63.376,2.0142e-06,0
63.376,7.5532e-06,0
63.377,1.3596e-05,0
63.377,1.5946e-05,0
63.378,1.6785e-05,0
63.378,9.9031e-06,0
63.379,-3.1891e-06,0
63.379,-1.3931e-05,0
63.38,-3.0213e-05,0
63.38,-5.9251e-05,0
63.381,-7.9393e-05,0
63.381,-9.366e-05,0
63.382,-0.00011162,0
63.383,-0.00010423,0
63.383,-6.2104e-05,0
63.384,-1.2924e-05,0
63.384,3.0549e-05,0
63.385,6.9322e-05,0
63.385,9.752e-05,0
63.386,0.0001133,0
63.386,0.00012538,0
63.387,0.00013864,0
63.387,0.00014452,0
63.388,0.00013545,0
63.388,0.00011917,0
63.389,9.8192e-05,0
63.389,7.8218e-05,0
63.39,5.9251e-05,0
63.39,2.9709e-05,0
63.391,0,0
63.391,-2.8031e-05,0
63.392,-5.9754e-05,0
63.392,-9.0303e-05,0
63.393,-0.000118,0
63.393,-0.00013445,0
63.394,-0.00013529,0
63.394,-0.00012387,0
63.395,-0.00011179,0
63.395,-0.00010541,0
63.396,-9.6178e-05,0
63.397,-8.1407e-05,0
63.397,-7.6707e-05,0
63.398,-8.4092e-05,0
63.398,-9.5003e-05,0
63.399,-8.2582e-05,0
63.399,-3.2395e-05,0
63.4,2.3163e-05,0
63.4,5.8412e-05,0
63.401,6.8818e-05,0
63.401,6.9154e-05,0
63.402,7.57e-05,0
63.402,8.426e-05,0
63.403,8.5771e-05,0
63.403,7.8889e-05,0
63.404,6.7979e-05,0
63.404,4.7837e-05,0
63.405,2.6688e-05,0
63.405,2.6688e-05,0
63.406,4.213e-05,0
63.406,5.5894e-05,0
63.407,6.4958e-05,0
63.407,8.0232e-05,0
63.408,0.00010021,0
63.408,0.00011061,0
63.409,0.00010994,0
63.41,9.601e-05,0
63.41,6.7643e-05,0
63.411,4.6494e-05,0
63.411,4.4816e-05,0
63.412,4.1794e-05,0
63.412,2.6352e-05,0
63.413,1.1917e-05,0
63.413,7.8889e-06,0
63.414,4.6998e-06,0
63.414,-1.5106e-06,0
63.415,1.1078e-05,0
63.415,4.7166e-05,0
63.416,8.4092e-05,0
63.416,0.00010172,0
63.417,0.00010088,0
63.417,9.5003e-05,0
63.418,8.8121e-05,0
63.418,6.7979e-05,0
63.419,2.7024e-05,0
63.419,-4.3641e-06,0
63.42,-4.8676e-06,0
63.42,0,0
63.421,-7.5532e-06,0
63.421,-1.1749e-05,0
63.422,-4.8676e-06,0
63.422,-5.8747e-06,0
63.423,-2.1653e-05,0
63.424,-3.3234e-05,0
63.424,-2.4338e-05,0
63.425,-2.3499e-06,0
63.425,1.2757e-05,0
63.426,1.9303e-05,0
63.426,2.6688e-05,0
63.427,3.827e-05,0
63.427,5.5222e-05,0
63.428,7.2679e-05,0
63.428,8.04e-05,0
63.429,7.7714e-05,0
63.429,7.2511e-05,0
63.43,6.1769e-05,0
63.43,4.8173e-05,0
63.431,3.7095e-05,0
63.431,3.0213e-05,0
63.432,3.6088e-05,0
63.432,4.5823e-05,0
63.433,4.6494e-05,0
63.433,3.2059e-05,0
63.434,9.5674e-06,0
63.434,-1.5274e-05,0
63.435,-3.743e-05,0
63.435,-4.7166e-05,0
63.436,-3.743e-05,0
63.437,-1.561e-05,0
63.437,-5.0355e-07,0
63.438,-1.0071e-05,0
63.438,-3.3738e-05,0
63.439,-4.8341e-05,0
63.439,-4.8676e-05,0
63.44,-5.5222e-05,0
63.44,-7.5196e-05,0
63.441,-7.1504e-05,0
63.441,-3.2563e-05,0
63.442,9.3996e-06,0
63.442,4.2802e-05,0
63.443,7.1336e-05,0
63.443,8.3925e-05,0
63.444,8.04e-05,0
63.444,7.3182e-05,0
63.445,7.5532e-05,0
63.445,8.4092e-05,0
63.446,8.4428e-05,0
63.446,7.7043e-05,0
63.447,6.6972e-05,0
63.447,5.6901e-05,0
63.448,4.2802e-05,0
63.448,3.1052e-05,0
63.449,2.8031e-05,0
63.449,2.6352e-05,0
63.45,2.266e-05,0
63.451,1.2253e-05,0
63.451,-6.2104e-06,0
63.452,-2.9206e-05,0
63.452,-5.1194e-05,0
63.453,-5.6565e-05,0
63.453,-4.3977e-05,0
63.454,-3.0884e-05,0
63.454,-2.266e-05,0
63.455,-2.8367e-05,0
63.455,-6.1265e-05,0
63.456,-0.00010054,0
63.456,-0.00010692,0
63.457,-7.8386e-05,0
63.457,-3.827e-05,0
63.458,-4.6998e-06,0
63.458,1.4435e-05,0
63.459,2.266e-05,0
63.459,2.1149e-05,0
63.46,1.0575e-05,0
63.46,1.1749e-06,0
63.461,-4.8676e-06,0
63.461,-8.2246e-06,0
63.462,-2.182e-06,0
63.462,2.4338e-05,0
63.463,6.7979e-05,0
63.464,0.00010776,0
63.464,0.00012673,0
63.465,0.00012337,0
63.465,0.00011263,0
63.466,9.9535e-05,0
63.466,8.5603e-05,0
63.467,7.7714e-05,0
63.467,7.1672e-05,0
63.468,4.8676e-05,0
63.468,2.3331e-05,0
63.469,2.4338e-05,0
63.469,4.5991e-05,0
63.47,5.8244e-05,0
63.47,4.1459e-05,0
63.471,4.5319e-06,0
63.471,-4.7669e-05,0
63.472,-8.8121e-05,0
63.472,-6.9993e-05,0
63.473,-1.3092e-05,0
63.473,3.0716e-05,0
63.474,5.5558e-05,0
63.474,7.7043e-05,0
63.475,9.6178e-05,0
63.475,0.00010121,0
63.476,9.6345e-05,0
63.476,8.8792e-05,0
63.477,6.9657e-05,0
63.478,3.743e-05,0
63.478,1.3092e-05,0
63.479,3.0213e-06,0
63.479,-5.8747e-06,0
63.48,-6.2104e-06,0
63.48,6.0426e-06,0
63.481,9.9031e-06,0
63.481,6.8818e-06,0
63.482,1.091e-05,0
63.482,1.9806e-05,0
63.483,3.2059e-05,0
63.483,4.213e-05,0
63.484,5.2873e-05,0
63.484,6.4286e-05,0
63.485,7.4693e-05,0
63.485,8.4596e-05,0
63.486,8.9296e-05,0
63.486,8.3589e-05,0
63.487,6.8986e-05,0
63.487,5.2537e-05,0
63.488,3.743e-05,0
63.488,1.1414e-05,0
63.489,-2.031e-05,0
63.489,-3.7263e-05,0
63.49,-3.6423e-05,0
63.49,-3.1724e-05,0
63.491,-2.9374e-05,0
63.492,-3.6423e-05,0
63.492,-5.2705e-05,0
63.493,-6.3279e-05,0
63.493,-5.6062e-05,0
63.494,-4.062e-05,0
63.494,-2.3667e-05,0
63.495,-3.5248e-06,0
63.495,1.8128e-05,0
63.496,3.3402e-05,0
63.496,4.0787e-05,0
63.497,2.5345e-05,0
63.497,-2.182e-06,0
63.498,-1.8967e-05,0
63.498,-2.9877e-05,0
63.499,-3.978e-05,0
63.499,-3.9277e-05,0
63.5,-2.7695e-05,0
63.5,-1.1749e-06,0
63.501,2.8031e-05,0
63.501,4.4312e-05,0
63.502,4.7166e-05,0
63.502,4.1459e-05,0
63.503,3.2563e-05,0
63.503,2.3163e-05,0
63.504,1.5274e-05,0
63.505,1.2589e-05,0
63.505,3.2731e-05,0
63.506,6.8315e-05,0
63.506,8.9967e-05,0
63.507,8.8457e-05,0
63.507,6.8986e-05,0
63.508,4.1627e-05,0
63.508,2.031e-05,0
63.509,6.2104e-06,0
63.509,-1.4267e-05,0
63.51,-3.3738e-05,0
63.51,-3.9612e-05,0
63.511,-3.743e-05,0
63.511,-4.1123e-05,0
63.512,-5.3208e-05,0
63.512,-6.8482e-05,0
63.513,-7.4189e-05,0
63.513,-6.6133e-05,0
63.514,-4.6159e-05,0
63.514,-2.031e-05,0
63.515,3.8605e-06,0
63.515,2.4506e-05,0
63.516,4.0787e-05,0
63.516,5.623e-05,0
63.517,7.335e-05,0
63.517,8.7449e-05,0
63.518,9.1478e-05,0
63.519,8.4764e-05,0
63.519,8.5771e-05,0
63.52,9.5003e-05,0
63.52,0.00010172,0
63.521,9.8695e-05,0
63.521,7.5868e-05,0
63.522,4.2466e-05,0
63.522,8.5603e-06,0
63.523,-2.0981e-05,0
63.523,-3.4409e-05,0
63.524,-2.8031e-05,0
63.524,-5.539e-06,0
63.525,1.6617e-05,0
63.525,1.6953e-05,0
63.526,-4.8676e-06,0
63.526,-2.031e-05,0
63.527,-1.8296e-05,0
63.527,-1.5946e-05,0
63.528,-1.8463e-05,0
63.528,-2.1317e-05,0
63.529,-1.9303e-05,0
63.529,-6.5461e-06,0
63.53,1.1414e-05,0
63.53,3.1052e-05,0
63.531,5.4551e-05,0
63.532,8.3085e-05,0
63.532,0.0001138,0
63.533,0.00013764,0
63.533,0.00013948,0
63.534,0.0001284,0
63.534,0.00010826,0
63.535,6.1936e-05,0
63.535,7.7211e-06,0
63.536,-1.9135e-05,0
63.536,-2.3835e-05,0
63.537,-2.5345e-05,0
63.537,-2.7695e-05,0
63.538,-1.1917e-05,0
63.538,2.1149e-05,0
63.539,4.8005e-05,0
63.539,6.3279e-05,0
63.54,7.6707e-05,0
63.54,9.6345e-05,0
63.541,0.00012068,0
63.541,0.00013613,0
63.542,0.00013042,0
63.542,0.00011464,0
63.543,9.987e-05,0
63.543,7.3182e-05,0
63.544,3.4745e-05,0
63.544,1.5778e-05,0
63.545,1.8631e-05,0
63.546,8.3925e-06,0
63.546,-3.743e-05,0
63.547,-0.00011246,0
63.547,-0.00017104,0
63.548,-0.00015946,0
63.548,-7.2007e-05,0
63.549,4.1459e-05,0
63.549,0.00012404,0
63.55,0.00015358,0
63.55,0.00014922,0
63.551,0.00013982,0
63.551,0.00012605,0
63.552,9.0806e-05,0
63.552,2.9374e-05,0
63.553,-3.9612e-05,0
63.553,-8.2078e-05,0
63.554,-8.9632e-05,0
63.554,-9.8192e-05,0
63.555,-0.00011766,0
63.555,-0.00010356,0
63.556,-5.3208e-05,0
63.556,-1.4603e-05,0
63.557,-1.6785e-07,0
63.557,2.3499e-06,0
63.558,3.8605e-06,0
63.559,7.2175e-06,0
63.559,1.0575e-05,0
63.56,1.4435e-05,0
63.56,1.326e-05,0
63.561,1.8296e-05,0
63.561,3.4241e-05,0
63.562,5.2033e-05,0
63.562,6.479e-05,0
63.563,7.5029e-05,0
63.563,7.9057e-05,0
63.564,7.8386e-05,0
63.564,7.7714e-05,0
63.565,7.9057e-05,0
63.565,8.661e-05,0
63.566,9.6513e-05,0
63.566,9.5003e-05,0
63.567,8.426e-05,0
63.567,7.1839e-05,0
63.568,5.6565e-05,0
63.568,3.2731e-05,0
63.569,1.6785e-07,0
63.569,-2.7695e-05,0
63.57,-4.8508e-05,0
63.57,-7.1672e-05,0
63.571,-0.00010407,0
63.572,-0.0001274,0
63.572,-0.00012203,0
63.573,-9.4163e-05,0
63.573,-6.2272e-05,0
63.574,-4.0787e-05,0
63.574,-3.0045e-05,0
63.575,-2.4674e-05,0
63.575,-2.8199e-05,0
63.576,-2.9709e-05,0
63.576,-2.2995e-05,0
63.577,-1.0239e-05,0
63.577,1.2253e-05,0
63.578,3.743e-05,0
63.578,4.683e-05,0
63.579,4.683e-05,0
63.579,5.5558e-05,0
63.58,6.4286e-05,0
63.58,5.9922e-05,0
63.581,5.1026e-05,0
63.581,5.4719e-05,0
63.582,6.5965e-05,0
63.582,7.805e-05,0
63.583,8.51e-05,0
63.583,7.8218e-05,0
63.584,6.0426e-05,0
63.584,3.9445e-05,0
63.585,2.8702e-05,0
63.586,3.1052e-05,0
63.586,3.6591e-05,0
63.587,3.3906e-05,0
63.587,1.7288e-05,0
63.588,-5.0355e-07,0
63.588,-7.8889e-06,0
63.589,-1.0071e-06,0
63.589,1.5274e-05,0
63.59,3.2059e-05,0
63.59,4.4144e-05,0
63.591,5.7572e-05,0
63.591,7.2679e-05,0
63.592,8.1743e-05,0
63.592,7.9393e-05,0
63.593,5.5222e-05,0
63.593,1.1917e-05,0
63.594,-3.2731e-05,0
63.594,-6.3951e-05,0
63.595,-6.9154e-05,0
63.595,-4.9851e-05,0
63.596,-2.4842e-05,0
63.596,-5.2033e-06,0
63.597,1.5442e-05,0
63.597,1.6449e-05,0
63.598,-6.2104e-06,0
63.599,-5.2033e-06,0
63.599,4.1459e-05,0
63.6,9.2485e-05,0
63.6,0.00010977,0
63.601,8.0232e-05,0
63.601,1.1749e-06,0
63.602,-8.0064e-05,0
63.602,-9.9031e-05,0
63.603,-6.6133e-05,0
63.603,-1.7624e-05,0
63.604,3.3234e-05,0
63.604,7.9561e-05,0
63.605,0.00011582,0
63.605,0.00013277,0
63.606,0.00013613,0
63.606,0.00013747,0
63.607,0.00014099,0
63.607,0.00013529,0
63.608,0.00011783,0
63.608,0.00010188,0
63.609,8.6442e-05,0
63.609,5.3544e-05,0
63.61,8.896e-06,0
63.61,-3.4241e-05,0
63.611,-6.9657e-05,0
63.611,-9.7353e-05,0
63.612,-0.00010591,0
63.613,-7.6371e-05,0
63.613,-1.8128e-05,0
63.614,2.7192e-05,0
63.614,5.1362e-05,0
63.615,8.0232e-05,0
63.615,9.7017e-05,0
63.616,7.4525e-05,0
63.616,3.0045e-05,0
63.617,-1.2253e-05,0
63.617,-5.388e-05,0
63.618,-8.8457e-05,0
63.618,-9.6345e-05,0
63.619,-8.426e-05,0
63.619,-6.9657e-05,0
63.62,-5.5726e-05,0
63.62,-3.1052e-05,0
63.621,1.6785e-06,0
63.621,1.8296e-05,0
63.622,1.796e-05,0
63.622,1.4603e-05,0
63.623,1.091e-05,0
63.623,8.3925e-07,0
63.624,-9.3996e-06,0
63.624,-1.1749e-05,0
63.625,5.0355e-07,0
63.626,2.3331e-05,0
63.626,4.1291e-05,0
63.627,4.5823e-05,0
63.627,4.0452e-05,0
63.628,3.9948e-05,0
63.628,5.0858e-05,0
63.629,6.6133e-05,0
63.629,6.63e-05,0
63.63,5.5558e-05,0
63.63,4.7837e-05,0
63.631,4.2802e-05,0
63.631,3.9948e-05,0
63.632,3.3906e-05,0
63.632,2.8702e-05,0
63.633,2.266e-05,0
63.633,1.1917e-05,0
63.634,4.1962e-06,0
63.634,-8.3925e-07,0
63.635,-1.1582e-05,0
63.635,-2.2324e-05,0
63.636,-2.4338e-05,0
63.636,-2.5681e-05,0
63.637,-3.4745e-05,0
63.637,-4.3977e-05,0
63.638,-4.5991e-05,0
63.638,-3.7263e-05,0
63.639,-2.0645e-05,0
63.64,-3.0213e-06,0
63.64,8.2246e-06,0
63.641,9.0639e-06,0
63.641,-1.3428e-06,0
63.642,-1.9135e-05,0
63.642,-4.062e-05,0
63.643,-6.7308e-05,0
63.643,-8.1575e-05,0
63.644,-6.1433e-05,0
63.644,-2.5681e-05,0
63.645,1.2924e-05,0
63.645,5.1362e-05,0
63.646,7.6875e-05,0
63.646,8.6778e-05,0
63.647,9.0471e-05,0
63.647,9.6345e-05,0
63.648,9.8527e-05,0
63.648,9.9702e-05,0
63.649,0.00010558,0
63.649,0.00010826,0
63.65,0.00010793,0
63.65,0.00011212,0
63.651,0.00012001,0
63.651,0.00012035,0
63.652,0.00010608,0
63.653,8.9464e-05,0
63.653,8.0735e-05,0
63.654,8.3589e-05,0
63.654,9.8863e-05,0
63.655,9.9199e-05,0
63.655,7.8721e-05,0
63.656,5.5222e-05,0
63.656,4.2634e-05,0
63.657,4.2298e-05,0
63.657,3.5416e-05,0
63.658,3.357e-06,0
63.658,-3.7766e-05,0
63.659,-6.4958e-05,0
63.659,-9.0639e-05,0
63.66,-0.00011397,0
63.66,-0.00010961,0
63.661,-6.7308e-05,0
63.661,-8.3925e-07,0
63.662,5.4215e-05,0
63.662,7.57e-05,0
63.663,8.5435e-05,0
63.663,9.6513e-05,0
63.664,9.7688e-05,0
63.664,7.9561e-05,0
63.665,5.4047e-05,0
63.665,3.9612e-05,0
63.666,3.0213e-05,0
63.667,1.326e-05,0
63.667,-6.5461e-06,0
63.668,-1.8128e-05,0
63.668,-2.8367e-05,0
63.669,-2.4842e-05,0
63.669,4.3641e-06,0
63.67,3.3738e-05,0
63.67,3.3402e-05,0
63.671,1.5442e-05,0
63.671,1.1582e-05,0
63.672,2.4002e-05,0
63.672,3.3906e-05,0
63.673,3.9445e-05,0
63.673,4.6998e-05,0
63.674,4.448e-05,0
63.674,2.9038e-05,0
63.675,1.5274e-05,0
63.675,7.0497e-06,0
63.676,-6.5461e-06,0
63.676,-2.7695e-05,0
63.677,-4.3473e-05,0
63.677,-4.3137e-05,0
63.678,-2.9709e-05,0
63.678,-8.5603e-06,0
63.679,2.266e-05,0
63.679,5.8915e-05,0
63.68,8.4596e-05,0
63.681,8.6946e-05,0
63.681,7.4022e-05,0
63.682,5.8915e-05,0
63.682,6.2943e-05,0
63.683,7.335e-05,0
63.683,6.9657e-05,0
63.684,5.539e-05,0
63.684,3.9445e-05,0
63.685,3.0045e-05,0
63.685,3.4409e-05,0
63.686,3.6591e-05,0
63.686,3.3402e-05,0
63.687,3.6927e-05,0
63.687,4.3809e-05,0
63.688,3.8437e-05,0
63.688,2.4674e-05,0
63.689,1.4939e-05,0
63.689,1.5442e-05,0
63.69,2.3163e-05,0
63.69,3.122e-05,0
63.691,2.4506e-05,0
63.691,-6.0426e-06,0
63.692,-4.8508e-05,0
63.692,-8.1575e-05,0
63.693,-0.00010692,0
63.694,-0.00013512,0
63.694,-0.00015073,0
63.695,-0.00013948,0
63.695,-0.00012102,0
63.696,-0.00010625,0
63.696,-9.5338e-05,0
63.697,-8.04e-05,0
63.697,-5.4047e-05,0
63.698,-2.9709e-05,0
63.698,-1.6281e-05,0
63.699,-9.3996e-06,0
63.699,-3.357e-06,0
63.7,7.8889e-06,0
63.7,2.3667e-05,0
63.701,3.6255e-05,0
63.701,4.3137e-05,0
63.702,4.3977e-05,0
63.702,4.0787e-05,0
63.703,3.9445e-05,0
63.703,4.3473e-05,0
63.704,5.8915e-05,0
63.704,7.1839e-05,0
63.705,6.9657e-05,0
63.705,6.0258e-05,0
63.706,5.4887e-05,0
63.706,6.0258e-05,0
63.707,7.1672e-05,0
63.708,8.1743e-05,0
63.708,7.8721e-05,0
63.709,5.7237e-05,0
63.709,4.0452e-05,0
63.71,3.2731e-05,0
63.71,1.2589e-05,0
63.711,-2.0142e-05,0
63.711,-4.9683e-05,0
63.712,-6.0258e-05,0
63.712,-4.8508e-05,0
63.713,-2.8031e-05,0
63.713,-2.8534e-06,0
63.714,2.6688e-05,0
63.714,4.9851e-05,0
63.715,6.8147e-05,0
63.715,8.3421e-05,0
63.716,9.3492e-05,0
63.716,8.5771e-05,0
63.717,7.57e-05,0
63.717,7.9393e-05,0
63.718,8.3421e-05,0
63.718,8.4092e-05,0
63.719,8.4428e-05,0
63.719,7.4022e-05,0
63.72,5.3376e-05,0
63.721,3.2898e-05,0
63.721,1.7288e-05,0
63.722,1.1582e-05,0
63.722,1.7288e-05,0
63.723,2.8702e-05,0
63.723,3.4577e-05,0
63.724,3.6088e-05,0
63.724,4.4816e-05,0
63.725,6.1601e-05,0
63.725,7.4693e-05,0
63.726,8.275e-05,0
63.726,9.2149e-05,0
63.727,9.2149e-05,0
63.727,8.7785e-05,0
63.728,9.2653e-05,0
63.728,0.00011196,0
63.729,0.00013126,0
63.729,0.00013747,0
63.73,0.00013411,0
63.73,0.0001378,0
63.731,0.00015761,0
63.731,0.0001744,0
63.732,0.00017238,0
63.732,0.00014855,0
63.733,0.00010037,0
63.733,3.8102e-05,0
63.734,-3.9445e-05,0
63.735,-0.00012387,0
63.735,-0.00019588,0
63.736,-0.00024691,0
63.736,-0.00026973,0
63.737,-0.00024926,0
63.737,-0.00018849,0
63.738,-0.00012236,0
63.738,-7.3014e-05,0
63.739,-4.4648e-05,0
63.739,-3.1388e-05,0
63.74,-3.3066e-05,0
63.74,-4.6998e-05,0
63.741,-6.3951e-05,0
63.741,-7.4357e-05,0
63.742,-6.9993e-05,0
63.742,-5.7237e-05,0
63.743,-4.1794e-05,0
63.743,-2.1653e-05,0
63.744,2.8534e-06,0
63.744,2.3331e-05,0
63.745,3.3738e-05,0
63.745,3.743e-05,0
63.746,4.213e-05,0
63.746,4.8173e-05,0
63.747,5.4551e-05,0
63.748,5.2705e-05,0
63.748,4.6159e-05,0
63.749,4.6159e-05,0
63.749,5.1698e-05,0
63.75,5.1362e-05,0
63.75,3.7766e-05,0
63.751,1.8296e-05,0
63.751,1.5442e-05,0
63.752,2.6856e-05,0
63.752,3.4577e-05,0
63.753,3.9445e-05,0
63.753,4.1123e-05,0
63.754,4.0452e-05,0
63.754,3.7095e-05,0
63.755,3.0381e-05,0
63.755,3.1891e-05,0
63.756,3.6759e-05,0
63.756,3.3402e-05,0
63.757,2.1653e-05,0
63.757,6.714e-06,0
63.758,-7.0497e-06,0
63.758,-1.0239e-05,0
63.759,1.6785e-07,0
63.759,2.0981e-05,0
63.76,3.743e-05,0
63.761,4.2802e-05,0
63.761,4.062e-05,0
63.762,3.2395e-05,0
63.762,1.8463e-05,0
63.763,1.4267e-05,0
63.763,2.1317e-05,0
63.764,2.5345e-05,0
63.764,2.5177e-05,0
63.765,2.5681e-05,0
63.765,2.8031e-05,0
63.766,2.7359e-05,0
63.766,2.7359e-05,0
63.767,2.7863e-05,0
63.767,3.3906e-05,0
63.768,4.1123e-05,0
63.768,4.4816e-05,0
63.769,4.062e-05,0
63.769,2.9038e-05,0
63.77,1.326e-05,0
63.77,-6.2104e-06,0
63.771,-2.5345e-05,0
63.771,-3.6927e-05,0
63.772,-3.8102e-05,0
63.772,-2.501e-05,0
63.773,-4.3641e-06,0
63.773,1.6281e-05,0
63.774,3.8437e-05,0
63.775,5.9251e-05,0
63.775,7.57e-05,0
63.776,8.7449e-05,0
63.776,9.4499e-05,0
63.777,0.00010105,0
63.777,0.00011061,0
63.778,0.00011431,0
63.778,0.00010658,0
63.779,8.6275e-05,0
63.779,5.7908e-05,0
63.78,4.2802e-05,0
63.78,3.5752e-05,0
63.781,1.6953e-05,0
63.781,-5.539e-06,0
63.782,-2.4674e-05,0
63.782,-4.5319e-05,0
63.783,-5.9754e-05,0
63.783,-5.8579e-05,0
63.784,-4.0116e-05,0
63.784,-1.5946e-05,0
63.785,-4.5319e-06,0
63.785,-5.0355e-07,0
63.786,-5.539e-06,0
63.786,-2.6017e-05,0
63.787,-4.4816e-05,0
63.788,-5.2537e-05,0
63.788,-5.388e-05,0
63.789,-3.357e-05,0
63.789,8.5603e-06,0
63.79,4.2298e-05,0
63.79,6.4286e-05,0
63.791,8.4764e-05,0
63.791,0.00010793,0
63.792,0.00012656,0
63.792,0.00013344,0
63.793,0.00012874,0
63.793,0.00010927,0
63.794,7.5029e-05,0
63.794,3.978e-05,0
63.795,8.2246e-06,0
63.795,-2.0478e-05,0
63.796,-5.1026e-05,0
63.796,-7.7546e-05,0
63.797,-9.2653e-05,0
63.797,-9.0471e-05,0
63.798,-5.774e-05,0
63.798,-3.5248e-06,0
63.799,5.4887e-05,0
63.799,9.9199e-05,0
63.8,0.00011128,0
63.8,0.00010021,0
63.801,8.04e-05,0
63.802,5.3208e-05,0
63.802,8.896e-06,0
63.803,-5.5558e-05,0
63.803,-0.00012807,0
63.804,-0.00016248,0
63.804,-0.00013394,0
63.805,-8.2246e-05,0
63.805,-4.9851e-05,0
63.806,-3.6088e-05,0
63.806,-1.9806e-05,0
63.807,1.2924e-05,0
63.807,4.5991e-05,0
63.808,6.0761e-05,0
63.808,6.0761e-05,0
63.809,5.8579e-05,0
63.809,5.9586e-05,0
63.81,6.3783e-05,0
63.81,7.9057e-05,0
63.811,0.00010558,0
63.811,0.00013092,0
63.812,0.00013797,0
63.812,0.00012874,0
63.813,0.00011296,0
63.813,9.7856e-05,0
63.814,9.3156e-05,0
63.815,9.3492e-05,0
63.815,9.2485e-05,0
63.816,8.9128e-05,0
63.816,8.1743e-05,0
63.817,6.5965e-05,0
63.817,5.4551e-05,0
63.818,4.2466e-05,0
63.818,2.1988e-05,0
63.819,5.7069e-06,0
63.819,1.6785e-07,0
63.82,-5.2033e-06,0
63.82,-2.7527e-05,0
63.821,-6.1433e-05,0
63.821,-7.4525e-05,0
63.822,-4.8844e-05,0
63.822,-1.091e-05,0
63.823,1.0575e-05,0
63.823,1.9974e-05,0
63.824,2.8367e-05,0
63.824,3.3402e-05,0
63.825,3.6088e-05,0
63.825,4.1794e-05,0
63.826,4.7837e-05,0
63.826,4.9851e-05,0
63.827,3.978e-05,0
63.827,1.796e-05,0
63.828,-2.3499e-06,0
63.829,-1.6617e-05,0
63.829,-2.7024e-05,0
63.83,-3.357e-05,0
63.83,-3.743e-05,0
63.831,-2.501e-05,0
63.831,7.2175e-06,0
63.832,4.1123e-05,0
63.832,6.865e-05,0
63.833,8.2414e-05,0
63.833,7.7379e-05,0
63.834,6.1265e-05,0
63.834,5.153e-05,0
63.835,5.0523e-05,0
63.835,5.9251e-05,0
63.836,7.1672e-05,0
63.836,7.5364e-05,0
63.837,7.2679e-05,0
63.837,6.9322e-05,0
63.838,6.3447e-05,0
63.838,4.918e-05,0
63.839,1.7121e-05,0
63.839,-2.5681e-05,0
63.84,-4.7166e-05,0
63.84,-3.1052e-05,0
63.841,-9.5674e-06,0
63.842,-8.3925e-06,0
63.842,-2.3499e-05,0
63.843,-4.6494e-05,0
63.843,-6.7308e-05,0
63.844,-7.3686e-05,0
63.844,-7.335e-05,0
63.845,-7.9393e-05,0
63.845,-9.1646e-05,0
63.846,-8.9799e-05,0
63.846,-8.2078e-05,0
63.847,-9.9702e-05,0
63.847,-0.00012236,0
63.848,-0.00010457,0
63.848,-4.8508e-05,0
63.849,1.0575e-05,0
63.849,4.6494e-05,0
63.85,5.1698e-05,0
63.85,4.4648e-05,0
63.851,4.3473e-05,0
63.851,4.9348e-05,0
63.852,4.6494e-05,0
63.852,3.9948e-05,0
63.853,3.9948e-05,0
63.853,4.5319e-05,0
63.854,4.6159e-05,0
63.854,3.357e-05,0
63.855,1.2421e-05,0
63.856,-1.0239e-05,0
63.856,-3.1052e-05,0
63.857,-4.1123e-05,0
63.857,-3.6088e-05,0
63.858,-2.4674e-05,0
63.858,-2.0478e-05,0
63.859,-1.1749e-05,0
63.859,1.3596e-05,0
63.86,4.1794e-05,0
63.86,5.7908e-05,0
63.861,6.2943e-05,0
63.861,6.5293e-05,0
63.862,6.7979e-05,0
63.862,6.7643e-05,0
63.863,6.7811e-05,0
63.863,6.3615e-05,0
63.864,5.9586e-05,0
63.864,5.2873e-05,0
63.865,4.2298e-05,0
63.865,3.9277e-05,0
63.866,4.8173e-05,0
63.866,5.6901e-05,0
63.867,6.2943e-05,0
63.867,6.9657e-05,0
63.868,7.0665e-05,0
63.868,6.479e-05,0
63.869,6.0594e-05,0
63.87,6.2943e-05,0
63.87,7.4357e-05,0
63.871,8.7953e-05,0
63.871,9.6849e-05,0
63.872,0.0001044,0
63.872,0.00011044,0
63.873,0.00011431,0
63.873,0.00011179,0
63.874,9.2149e-05,0
63.874,5.8915e-05,0
63.875,2.0645e-05,0
63.875,-5.8747e-06,0
63.876,-1.4939e-05,0
63.876,-3.1052e-05,0
63.877,-7.6707e-05,0
63.877,-0.00013713,0
63.878,-0.00015962,0
63.878,-0.00012303,0
63.879,-6.4958e-05,0
63.879,-2.1485e-05,0
63.88,-2.182e-06,0
63.88,1.5106e-06,0
63.881,8.5603e-06,0
63.881,2.0813e-05,0
63.882,4.1123e-05,0
63.883,7.1336e-05,0
63.883,9.7185e-05,0
63.884,0.00011179,0
63.884,0.00011128,0
63.885,0.00010289,0
63.885,8.8457e-05,0
63.886,6.63e-05,0
63.886,4.7501e-05,0
63.887,3.0045e-05,0
63.887,1.796e-05,0
63.888,1.5946e-05,0
63.888,8.7282e-06,0
63.889,2.5177e-06,0
63.889,1.5946e-05,0
63.89,3.6255e-05,0
63.89,4.6159e-05,0
63.891,3.2731e-05,0
63.891,2.8534e-06,0
63.892,-1.5778e-05,0
63.892,-1.3931e-05,0
63.893,-6.2104e-06,0
63.893,0,0
63.894,4.8676e-06,0
63.894,8.7282e-06,0
63.895,1.4267e-05,0
63.895,2.3331e-05,0
63.896,2.8534e-05,0
63.897,3.0381e-05,0
63.897,3.5416e-05,0
63.898,4.0787e-05,0
63.898,4.1794e-05,0
63.899,4.2802e-05,0
63.899,4.9851e-05,0
63.9,5.8915e-05,0
63.9,5.8579e-05,0
63.901,5.153e-05,0
63.901,5.3376e-05,0
63.902,6.2943e-05,0
63.902,7.3014e-05,0
63.903,8.51e-05,0
63.903,8.2918e-05,0
63.904,7.3014e-05,0
63.904,6.9993e-05,0
63.905,7.4022e-05,0
63.905,7.1e-05,0
63.906,6.4118e-05,0
63.906,6.4286e-05,0
63.907,5.7572e-05,0
63.907,2.6184e-05,0
63.908,-3.8437e-05,0
63.908,-0.00011833,0
63.909,-0.00018128,0
63.91,-0.00021183,0
63.91,-0.00021736,0
63.911,-0.00021032,0
63.911,-0.00017993,0
63.912,-0.00012152,0
63.912,-6.1433e-05,0
63.913,-2.266e-05,0
63.913,4.8676e-06,0
63.914,3.3738e-05,0
63.914,5.1362e-05,0
63.915,3.8102e-05,0
63.915,-2.0142e-06,0
63.916,-2.5345e-05,0
63.916,-7.5532e-06,0
63.917,2.031e-05,0
63.917,3.2059e-05,0
63.918,2.1317e-05,0
63.918,-1.5106e-06,0
63.919,-1.4939e-05,0
63.919,-7.8889e-06,0
63.92,1.6281e-05,0
63.92,4.5991e-05,0
63.921,6.4286e-05,0
63.921,7.0329e-05,0
63.922,7.6707e-05,0
63.922,8.5771e-05,0
63.923,0.00010373,0
63.924,0.00012303,0
63.924,0.00013109,0
63.925,0.00011447,0
63.925,8.7449e-05,0
63.926,6.9322e-05,0
63.926,4.4648e-05,0
63.927,5.0355e-06,0
63.927,-2.5849e-05,0
63.928,-3.6255e-05,0
63.928,-3.9612e-05,0
63.929,-5.6733e-05,0
63.929,-9.0303e-05,0
63.93,-0.000118,0
63.93,-0.00013008,0
63.931,-0.00013764,0
63.931,-0.00013982,0
63.932,-0.00011867,0
63.932,-7.3518e-05,0
63.933,-3.1052e-05,0
63.933,-6.3783e-06,0
63.934,2.4002e-05,0
63.934,7.0329e-05,0
63.935,0.00011397,0
63.935,0.00013881,0
63.936,0.00014015,0
63.937,0.00012186,0
63.937,9.3156e-05,0
63.938,6.4286e-05,0
63.938,4.3137e-05,0
63.939,5.0019e-05,0
63.939,7.4357e-05,0
63.94,8.4428e-05,0
63.94,7.7379e-05,0
63.941,7.0329e-05,0
63.941,6.4286e-05,0
63.942,5.3544e-05,0
63.942,5.1698e-05,0
63.943,5.4887e-05,0
63.943,6.3951e-05,0
63.944,7.2007e-05,0
63.944,7.2343e-05,0
63.945,7.2007e-05,0
63.945,7.6707e-05,0
63.946,8.8457e-05,0
63.946,0.00010272,0
63.947,0.00010726,0
63.947,0.00010507,0
63.948,0.00010088,0
63.948,9.7185e-05,0
63.949,8.2078e-05,0
63.95,4.4648e-05,0
63.95,2.5177e-06,0
63.951,-7.2175e-06,0
63.951,1.7288e-05,0
63.952,3.4241e-05,0
63.952,3.0381e-05,0
63.953,2.2156e-05,0
63.953,1.5946e-05,0
63.954,8.896e-06,0
63.954,-1.8463e-06,0
63.955,-7.8889e-06,0
63.955,-3.0213e-06,0
63.956,-2.0142e-06,0
63.956,-1.3596e-05,0
63.957,-2.1485e-05,0
63.957,-2.1317e-05,0
63.958,-1.796e-05,0
63.958,-9.0639e-06,0
63.959,3.1891e-06,0
63.959,1.1917e-05,0
63.96,4.5319e-06,0
63.96,-1.5274e-05,0
63.961,-1.561e-05,0
63.961,5.539e-06,0
63.962,2.0645e-05,0
63.962,2.1988e-05,0
63.963,1.9974e-05,0
63.964,1.9974e-05,0
63.964,2.0645e-05,0
63.965,2.4002e-05,0
63.965,3.1388e-05,0
63.966,4.3809e-05,0
63.966,5.6733e-05,0
63.967,7.0832e-05,0
63.967,9.1814e-05,0
63.968,0.00011598,0
63.968,0.00012488,0
63.969,0.00012387,0
63.969,0.00012992,0
63.97,0.00014485,0
63.97,0.00015593,0
63.971,0.00015895,0
63.971,0.00015593,0
63.972,0.00014183,0
63.972,0.00010373,0
63.973,3.7263e-05,0
63.973,-3.6088e-05,0
63.974,-9.8863e-05,0
63.974,-0.00015174,0
63.975,-0.00019756,0
63.975,-0.00022979,0
63.976,-0.00024103,0
63.977,-0.00022391,0
63.977,-0.00019084,0
63.978,-0.00016449,0
63.978,-0.00014536,0
63.979,-0.00012471,0
63.979,-0.00010239,0
63.98,-9.0806e-05,0
63.98,-9.1981e-05,0
63.981,-9.7688e-05,0
63.981,-0.00010826,0
63.982,-9.8695e-05,0
63.982,-5.1865e-05,0
63.983,-3.357e-07,0
63.983,1.8631e-05,0
63.984,1.1917e-05,0
63.984,1.1749e-06,0
63.985,-3.8605e-06,0
63.985,-1.2924e-05,0
63.986,-4.7669e-05,0
63.986,-7.7714e-05,0
63.987,-5.1194e-05,0
63.987,6.5461e-06,0
63.988,4.8173e-05,0
63.988,7.4357e-05,0
63.989,0.00010843,0
63.989,0.0001566,0
63.99,0.00019789,0
63.991,0.00021367,0
63.991,0.00020629,0
63.992,0.00018766,0
63.992,0.00016902,0
63.993,0.00016466,0
63.993,0.00017574,0
63.994,0.00018212,0
63.994,0.00017221,0
63.995,0.00014687,0
63.995,0.00011363,0
63.996,8.3757e-05,0
63.996,6.8147e-05,0
63.997,5.7908e-05,0
63.997,4.1123e-05,0
63.998,1.8799e-05,0
63.998,-8.2246e-06,0
63.999,-5.1194e-05,0
63.999,-0.00011162,0
64,-0.00015409,0
64,-0.00014855,0
64.001,-0.00011615,0
64.001,-8.8792e-05,0
64.002,-6.2943e-05,0
64.002,-2.8031e-05,0
64.003,5.0355e-06,0
64.004,2.3331e-05,0
64.004,2.9374e-05,0
64.005,2.5681e-05,0
64.005,2.2156e-05,0
64.006,2.652e-05,0
64.006,3.4073e-05,0
64.007,3.8437e-05,0
64.007,4.1794e-05,0
64.008,4.6159e-05,0
64.008,5.623e-05,0
64.009,6.9993e-05,0
64.009,8.8792e-05,0
64.01,9.987e-05,0
64.01,9.366e-05,0
64.011,7.805e-05,0
64.011,5.3376e-05,0
64.012,3.2059e-05,0
64.012,2.9374e-05,0
64.013,3.743e-05,0
64.013,3.827e-05,0
64.014,3.122e-05,0
64.014,3.3402e-05,0
64.015,4.8005e-05,0
64.015,6.1936e-05,0
64.016,7.2679e-05,0
64.016,7.5029e-05,0
64.017,6.3279e-05,0
64.018,4.7501e-05,0
64.018,3.4073e-05,0
64.019,1.8799e-05,0
64.019,7.2175e-06,0
64.02,7.8889e-06,0
64.02,1.796e-05,0
64.021,2.5177e-05,0
64.021,2.5345e-05,0
64.022,1.8631e-05,0
64.022,-8.3925e-07,0
64.023,-2.7024e-05,0
64.023,-4.448e-05,0
64.024,-4.213e-05,0
64.024,-1.8128e-05,0
64.025,9.5674e-06,0
64.025,1.6953e-05,0
64.026,8.5603e-06,0
64.026,4.6998e-06,0
64.027,2.5177e-06,0
64.027,-8.2246e-06,0
64.028,-2.7192e-05,0
64.028,-3.6088e-05,0
64.029,-2.0478e-05,0
64.029,1.3931e-05,0
64.03,3.7095e-05,0
64.031,4.062e-05,0
64.031,3.8773e-05,0
64.032,5.4215e-05,0
64.032,9.2149e-05,0
64.033,0.00013143,0
64.033,0.00015291,0
64.034,0.00015761,0
64.034,0.0001509,0
64.035,0.0001378,0
64.035,0.00011984,0
64.036,0.00010188,0
64.036,9.0303e-05,0
64.037,8.4764e-05,0
64.037,7.7714e-05,0
64.038,5.153e-05,0
64.038,-5.2033e-06,0
64.039,-6.9154e-05,0
64.039,-0.0001133,0
64.04,-0.00013982,0
64.04,-0.00016953,0
64.041,-0.00020797,0
64.041,-0.0002318,0
64.042,-0.00023532,0
64.042,-0.00023919,0
64.043,-0.00022576,0
64.043,-0.00017641,0
64.044,-0.00010759,0
64.045,-4.4144e-05,0
64.045,6.5461e-06,0
64.046,4.7333e-05,0
64.046,7.4357e-05,0
64.047,9.2821e-05,0
64.047,0.00010088,0
64.048,9.5171e-05,0
64.048,9.4835e-05,0
64.049,0.00011028,0
64.049,0.00012706,0
64.05,0.0001227,0
64.05,9.0471e-05,0
64.051,4.4144e-05,0
64.051,1.0407e-05,0
64.052,-7.8889e-06,0
64.052,-1.8631e-05,0
64.053,-1.5274e-05,0
64.053,-8.3925e-07,0
64.054,1.1917e-05,0
64.054,1.8631e-05,0
64.055,1.9974e-05,0
64.055,1.9638e-05,0
64.056,1.9471e-05,0
64.056,2.4842e-05,0
64.057,3.9612e-05,0
64.058,5.069e-05,0
64.058,5.2033e-05,0
64.059,5.0523e-05,0
64.059,6.0258e-05,0
64.06,7.5029e-05,0
64.06,8.4764e-05,0
64.061,8.5771e-05,0
64.061,8.6946e-05,0
64.062,9.4163e-05,0
64.062,8.5771e-05,0
64.063,5.0187e-05,0
64.063,1.8128e-05,0
64.064,1.9471e-05,0
64.064,2.7863e-05,0
64.065,3.2395e-05,0
64.065,5.3376e-05,0
64.066,8.275e-05,0
64.066,9.366e-05,0
64.067,8.7785e-05,0
64.067,6.2943e-05,0
64.068,1.1246e-05,0
64.068,-6.009e-05,0
64.069,-0.0001237,0
64.069,-0.00015224,0
64.07,-0.00013227,0
64.07,-8.1239e-05,0
64.071,-3.2898e-05,0
64.072,-1.0239e-05,0
64.072,-3.357e-07,0
64.073,9.2317e-06,0
64.073,1.6953e-05,0
64.074,2.7863e-05,0
64.074,5.3376e-05,0
64.075,8.2414e-05,0
64.075,9.4835e-05,0
64.076,8.896e-05,0
64.076,7.7714e-05,0
64.077,5.9419e-05,0
64.077,3.0549e-05,0
64.078,6.714e-07,0
64.078,-8.3925e-06,0
64.079,2.182e-06,0
64.079,4.6998e-06,0
64.08,-8.3925e-06,0
64.08,-1.1917e-05,0
64.081,5.2033e-06,0
64.081,2.6688e-05,0
64.082,3.743e-05,0
64.082,3.8773e-05,0
64.083,3.9277e-05,0
64.083,4.7333e-05,0
64.084,5.5894e-05,0
64.085,5.2873e-05,0
64.085,4.2466e-05,0
64.086,3.9948e-05,0
64.086,5.2201e-05,0
64.087,6.6636e-05,0
64.087,7.7714e-05,0
64.088,8.0232e-05,0
64.088,7.0329e-05,0
64.089,6.0929e-05,0
64.089,5.9922e-05,0
64.09,5.623e-05,0
64.09,4.2298e-05,0
64.091,2.6184e-05,0
64.091,1.2589e-05,0
64.092,5.539e-06,0
64.092,-3.1891e-06,0
64.093,-1.8967e-05,0
64.093,-4.1123e-05,0
64.094,-6.5461e-05,0
64.094,-8.9464e-05,0
64.095,-0.00010407,0
64.095,-9.7185e-05,0
64.096,-6.9322e-05,0
64.096,-4.1794e-05,0
64.097,-3.0884e-05,0
64.097,-3.5416e-05,0
64.098,-4.7669e-05,0
64.099,-5.2537e-05,0
64.099,-3.1052e-05,0
64.1,7.5532e-06,0
64.1,3.6423e-05,0
64.101,5.388e-05,0
64.101,6.6972e-05,0
64.102,7.6371e-05,0
64.102,8.5771e-05,0
64.103,8.51e-05,0
64.103,7.5364e-05,0
64.104,6.0594e-05,0
64.104,4.2634e-05,0
64.105,3.5416e-05,0
64.105,3.6423e-05,0
64.106,3.3738e-05,0
64.106,2.6352e-05,0
64.107,2.4002e-05,0
64.107,3.5752e-05,0
64.108,5.7237e-05,0
64.108,7.2343e-05,0
64.109,7.9728e-05,0
64.109,8.2918e-05,0
64.11,6.7979e-05,0
64.11,2.8702e-05,0
64.111,-1.0239e-05,0
64.112,-3.1052e-05,0
64.112,-4.1794e-05,0
64.113,-3.9445e-05,0
64.113,-2.2324e-05,0
64.114,-7.0497e-06,0
64.114,-1.8463e-06,0
64.115,5.0355e-07,0
64.115,8.2246e-06,0
64.116,2.266e-05,0
64.116,4.0116e-05,0
64.117,4.4144e-05,0
64.117,3.5584e-05,0
64.118,3.508e-05,0
64.118,3.8437e-05,0
64.119,4.0452e-05,0
64.119,4.3977e-05,0
64.12,4.4816e-05,0
64.12,1.8631e-05,0
64.121,-3.1724e-05,0
64.121,-5.8244e-05,0
64.122,-3.978e-05,0
64.122,-5.0355e-07,0
64.123,2.7695e-05,0
64.123,3.8437e-05,0
64.124,4.8508e-05,0
64.124,6.5461e-05,0
64.125,8.1743e-05,0
64.126,8.51e-05,0
64.126,7.7546e-05,0
64.127,7.5029e-05,0
64.127,8.0903e-05,0
64.128,8.7785e-05,0
64.128,8.9128e-05,0
64.129,8.6275e-05,0
64.129,9.2149e-05,0
64.13,0.00010188,0
64.13,9.7017e-05,0
64.131,7.4357e-05,0
64.131,4.6159e-05,0
64.132,2.1317e-05,0
64.132,3.0213e-06,0
64.133,-2.1988e-05,0
64.133,-6.0761e-05,0
64.134,-8.8289e-05,0
64.134,-9.0135e-05,0
64.135,-8.0232e-05,0
64.135,-7.4861e-05,0
64.136,-7.2679e-05,0
64.136,-5.2537e-05,0
64.137,-1.4771e-05,0
64.137,2.3163e-05,0
64.138,4.8676e-05,0
64.138,5.9251e-05,0
64.139,5.7237e-05,0
64.14,4.6159e-05,0
64.14,3.5584e-05,0
64.141,2.5849e-05,0
64.141,2.266e-05,0
64.142,2.9709e-05,0
64.142,4.0452e-05,0
64.143,5.0187e-05,0
64.143,5.8412e-05,0
64.144,5.9251e-05,0
64.144,5.069e-05,0
64.145,2.9374e-05,0
64.145,8.896e-06,0
64.146,8.3925e-06,0
64.146,1.6953e-05,0
64.147,2.182e-05,0
64.147,1.5106e-05,0
64.148,-4.1962e-06,0
64.148,-2.2995e-05,0
64.149,-2.8534e-05,0
64.149,-2.2995e-05,0
64.15,-1.796e-05,0
64.15,-1.4267e-05,0
64.151,-1.1749e-05,0
64.151,-1.7288e-05,0
64.152,-2.9709e-05,0
64.153,-3.8437e-05,0
64.153,-3.743e-05,0
64.154,-3.7766e-05,0
64.154,-5.5222e-05,0
64.155,-6.9322e-05,0
64.155,-4.6998e-05,0
64.156,-9.9031e-06,0
64.156,1.2589e-05,0
64.157,1.4603e-05,0
64.157,-1.091e-05,0
64.158,-3.7766e-05,0
64.158,-2.9206e-05,0
64.159,9.9031e-06,0
64.159,5.4887e-05,0
64.16,8.9128e-05,0
64.16,0.00010726,0
64.161,0.00010726,0
64.161,0.00010188,0
64.162,9.6513e-05,0
64.162,8.6107e-05,0
64.163,7.5532e-05,0
64.163,6.7475e-05,0
64.164,6.2608e-05,0
64.164,6.1936e-05,0
64.165,6.7475e-05,0
64.165,7.805e-05,0
64.166,8.9967e-05,0
64.167,8.7449e-05,0
64.167,6.5629e-05,0
64.168,4.5823e-05,0
64.168,3.6759e-05,0
64.169,3.0045e-05,0
64.169,1.8128e-05,0
64.17,-5.8747e-06,0
64.17,-3.7095e-05,0
64.171,-6.0594e-05,0
64.171,-7.5029e-05,0
64.172,-8.1071e-05,0
64.172,-7.7043e-05,0
64.173,-6.1265e-05,0
64.173,-4.5823e-05,0
64.174,-3.3066e-05,0
64.174,-1.8463e-05,0
64.175,-7.0497e-06,0
64.175,6.714e-06,0
64.176,2.501e-05,0
64.176,3.4577e-05,0
64.177,4.2634e-05,0
64.177,6.1936e-05,0
64.178,8.2414e-05,0
64.178,7.7714e-05,0
64.179,3.978e-05,0
64.18,-1.2253e-05,0
64.18,-3.4073e-05,0
64.181,-8.2246e-06,0
64.181,3.1891e-05,0
64.182,5.4215e-05,0
64.182,5.8412e-05,0
64.183,6.0594e-05,0
64.183,6.63e-05,0
64.184,6.8315e-05,0
64.184,6.6468e-05,0
64.185,6.949e-05,0
64.185,7.0497e-05,0
64.186,7.2007e-05,0
64.186,8.8121e-05,0
64.187,0.00010726,0
64.187,0.00011162,0
64.188,9.3156e-05,0
64.188,3.978e-05,0
64.189,-2.7359e-05,0
64.189,-5.0858e-05,0
64.19,-2.3667e-05,0
64.19,1.0575e-05,0
64.191,2.1149e-05,0
64.191,1.561e-05,0
64.192,2.031e-05,0
64.192,3.7934e-05,0
64.193,4.8508e-05,0
64.194,3.978e-05,0
64.194,1.1582e-05,0
64.195,-1.9974e-05,0
64.195,-2.2995e-05,0
64.196,6.0426e-06,0
64.196,4.2634e-05,0
64.197,6.479e-05,0
64.197,7.2343e-05,0
64.198,6.6804e-05,0
64.198,4.5487e-05,0
64.199,2.8031e-05,0
64.199,2.8367e-05,0
64.2,3.9277e-05,0
64.2,4.6159e-05,0
64.201,3.8437e-05,0
64.201,1.9303e-05,0
64.202,-5.0355e-06,0
64.202,-2.3835e-05,0
64.203,-3.2395e-05,0
64.203,-3.5752e-05,0
64.204,-3.827e-05,0
64.204,-3.9277e-05,0
64.205,-4.3473e-05,0
64.205,-6.0258e-05,0
64.206,-9.0303e-05,0
64.207,-0.00012303,0
64.207,-0.00013613,0
64.208,-0.00011347,0
64.208,-7.0161e-05,0
64.209,-2.8031e-05,0
64.209,-5.0355e-07,0
64.21,3.8605e-06,0
64.21,0,0
64.211,8.3925e-07,0
64.211,-4.6998e-06,0
64.212,-1.1246e-05,0
64.212,1.2757e-05,0
64.213,6.6468e-05,0
64.213,0.00011028,0
64.214,0.00012001,0
64.214,0.00010726,0
64.215,8.8457e-05,0
64.215,7.6371e-05,0
64.216,7.0329e-05,0
64.216,5.8076e-05,0
64.217,4.4144e-05,0
64.217,4.5487e-05,0
64.218,6.2943e-05,0
64.218,8.1743e-05,0
64.219,8.7114e-05,0
64.219,7.4693e-05,0
64.22,5.4887e-05,0
64.221,3.6591e-05,0
64.221,1.8631e-05,0
64.222,-2.3499e-06,0
64.222,-1.8967e-05,0
64.223,-2.652e-05,0
64.223,-3.0213e-05,0
64.224,-3.3066e-05,0
64.224,-2.7024e-05,0
64.225,-2.0478e-05,0
64.225,-1.4939e-05,0
64.226,-7.2175e-06,0
64.226,-1.3428e-06,0
64.227,9.0639e-06,0
64.227,3.1724e-05,0
64.228,6.4118e-05,0
64.228,9.2317e-05,0
64.229,0.00010323,0
64.229,9.987e-05,0
64.23,9.5171e-05,0
64.23,9.1478e-05,0
64.231,7.9057e-05,0
64.231,5.4551e-05,0
64.232,2.266e-05,0
64.232,-2.417e-05,0
64.233,-8.8457e-05,0
64.234,-0.00013562,0
64.234,-0.00013948,0
64.235,-0.00010239,0
64.235,-3.7263e-05,0
64.236,2.1317e-05,0
64.236,4.5151e-05,0
64.237,3.8941e-05,0
64.237,2.9374e-05,0
64.238,2.7695e-05,0
64.238,2.9877e-05,0
64.239,3.5248e-05,0
64.239,3.743e-05,0
64.24,3.8102e-05,0
64.24,4.6326e-05,0
64.241,5.6901e-05,0
64.241,6.1601e-05,0
64.242,6.2608e-05,0
64.242,6.2943e-05,0
64.243,6.5629e-05,0
64.243,7.3182e-05,0
64.244,7.5532e-05,0
64.244,7.0329e-05,0
64.245,6.6468e-05,0
64.245,7.2679e-05,0
64.246,7.7546e-05,0
64.246,7.7043e-05,0
64.247,5.8915e-05,0
64.248,2.0981e-05,0
64.248,-1.2757e-05,0
64.249,-1.561e-05,0
64.249,1.9638e-05,0
64.25,4.6494e-05,0
64.25,3.4409e-05,0
64.251,2.5345e-05,0
64.251,4.1794e-05,0
64.252,5.3544e-05,0
64.252,4.9516e-05,0
64.253,4.1962e-05,0
64.253,3.4745e-05,0
64.254,2.8367e-05,0
64.254,1.6281e-05,0
64.255,-4.8676e-06,0
64.255,-2.9877e-05,0
64.256,-4.5823e-05,0
64.256,-4.5823e-05,0
64.257,-3.4745e-05,0
64.257,-2.0813e-05,0
64.258,-9.5674e-06,0
64.258,-3.357e-07,0
64.259,7.5532e-06,0
64.259,8.896e-06,0
64.26,8.896e-06,0
64.261,1.4603e-05,0
64.261,1.5274e-05,0
64.262,6.714e-06,0
64.262,-2.8534e-06,0
64.263,-6.8818e-06,0
64.263,-3.8605e-06,0
64.264,2.3499e-06,0
64.264,8.7282e-06,0
64.265,2.0981e-05,0
64.265,4.2466e-05,0
64.266,6.3783e-05,0
64.266,7.6371e-05,0
64.267,7.0161e-05,0
64.267,5.5558e-05,0
64.268,4.5823e-05,0
64.268,4.0116e-05,0
64.269,4.1459e-05,0
64.269,5.6397e-05,0
64.27,6.9322e-05,0
64.27,7.5029e-05,0
64.271,7.6036e-05,0
64.271,6.6972e-05,0
64.272,4.5823e-05,0
64.272,4.5319e-06,0
64.273,-4.9348e-05,0
64.273,-8.275e-05,0
64.274,-7.7714e-05,0
64.275,-4.3137e-05,0
64.275,-1.3092e-05,0
64.276,-1.5106e-05,0
64.276,-3.2395e-05,0
64.277,-4.3809e-05,0
64.277,-4.8676e-05,0
64.278,-3.4409e-05,0
64.278,-3.357e-07,0
64.279,3.0716e-05,0
64.279,4.2802e-05,0
64.28,4.4144e-05,0
64.28,3.592e-05,0
64.281,1.3764e-05,0
64.281,-2.4674e-05,0
64.282,-6.4622e-05,0
64.282,-8.9799e-05,0
64.283,-9.9031e-05,0
64.283,-9.2988e-05,0
64.284,-7.4861e-05,0
64.284,-4.1291e-05,0
64.285,-1.5106e-06,0
64.285,2.6688e-05,0
64.286,4.0116e-05,0
64.286,4.7501e-05,0
64.287,5.4887e-05,0
64.288,5.5222e-05,0
64.288,4.9516e-05,0
64.289,4.0452e-05,0
64.289,3.6591e-05,0
64.29,4.9851e-05,0
64.29,7.7043e-05,0
64.291,9.5003e-05,0
64.291,9.5842e-05,0
64.292,9.1142e-05,0
64.292,8.9128e-05,0
64.293,8.6442e-05,0
64.293,6.6972e-05,0
64.294,4.0787e-05,0
64.294,3.1556e-05,0
64.295,3.0045e-05,0
64.295,2.4002e-05,0
64.296,2.3163e-05,0
64.296,4.213e-05,0
64.297,6.6972e-05,0
64.297,7.7043e-05,0
64.298,7.3014e-05,0
64.298,7.3014e-05,0
64.299,8.4092e-05,0
64.299,9.6849e-05,0
64.3,0.0001086,0
64.3,0.00011733,0
64.301,0.00011716,0
64.302,0.00010726,0
64.302,9.1814e-05,0
64.303,5.7237e-05,0
64.303,-4.5319e-06,0
64.304,-6.0258e-05,0
64.304,-9.0471e-05,0
64.305,-9.8863e-05,0
64.305,-8.896e-05,0
64.306,-7.6204e-05,0
64.306,-7.4189e-05,0
64.307,-8.0232e-05,0
64.307,-8.4764e-05,0
64.308,-7.7714e-05,0
64.308,-6.3615e-05,0
64.309,-5.0858e-05,0
64.309,-4.1962e-05,0
64.31,-3.2059e-05,0
64.31,-1.2589e-05,0
64.311,7.2175e-06,0
64.311,2.031e-05,0
64.312,2.6017e-05,0
64.312,2.2492e-05,0
64.313,1.7792e-05,0
64.313,1.796e-05,0
64.314,2.266e-05,0
64.315,3.3402e-05,0
64.315,4.7501e-05,0
64.316,5.4887e-05,0
64.316,5.3376e-05,0
64.317,4.213e-05,0
64.317,2.7359e-05,0
64.318,1.4099e-05,0
64.318,1.5274e-05,0
64.319,2.501e-05,0
64.319,2.4002e-05,0
64.32,2.6352e-05,0
64.32,4.8844e-05,0
64.321,7.1336e-05,0
64.321,7.4357e-05,0
64.322,6.1265e-05,0
64.322,4.6494e-05,0
64.323,3.3066e-05,0
64.323,1.4939e-05,0
64.324,-1.0071e-06,0
64.324,-1.561e-05,0
64.325,-3.6759e-05,0
64.325,-4.6159e-05,0
64.326,-1.9806e-05,0
64.326,2.7192e-05,0
64.327,6.0929e-05,0
64.328,7.1336e-05,0
64.328,7.0665e-05,0
64.329,7.2679e-05,0
64.329,7.5364e-05,0
64.33,6.5629e-05,0
64.33,5.3376e-05,0
64.331,4.7837e-05,0
64.331,4.3809e-05,0
64.332,4.5319e-05,0
64.332,5.1362e-05,0
64.333,5.539e-05,0
64.333,5.5558e-05,0
64.334,5.1865e-05,0
64.334,4.2802e-05,0
64.335,3.4073e-05,0
64.335,2.9038e-05,0
64.336,1.7624e-05,0
64.336,-2.5177e-06,0
64.337,-1.7288e-05,0
64.337,-1.8296e-05,0
64.338,-1.1582e-05,0
64.338,-4.6998e-06,0
64.339,-8.3925e-07,0
64.339,-5.0355e-07,0
64.34,4.3641e-06,0
64.34,1.4771e-05,0
64.341,2.652e-05,0
64.342,3.122e-05,0
64.342,2.8702e-05,0
64.343,2.5681e-05,0
64.343,2.1653e-05,0
64.344,2.3667e-05,0
64.344,2.9877e-05,0
64.345,3.3738e-05,0
64.345,4.1627e-05,0
64.346,5.623e-05,0
64.346,7.0665e-05,0
64.347,9.0303e-05,0
64.347,0.00010759,0
64.348,0.00011901,0
64.348,0.00012958,0
64.349,0.00012387,0
64.349,9.1142e-05,0
64.35,6.4286e-05,0
64.35,7.1e-05,0
64.351,9.7185e-05,0
64.351,0.00011716,0
64.352,0.00011313,0
64.352,9.1981e-05,0
64.353,5.9251e-05,0
64.353,1.5778e-05,0
64.354,-3.5752e-05,0
64.355,-8.6442e-05,0
64.355,-0.00012555,0
64.356,-0.00015627,0
64.356,-0.00018363,0
64.357,-0.00020058,0
64.357,-0.00019353,0
64.358,-0.00016936,0
64.358,-0.00015157,0
64.359,-0.00013881,0
64.359,-0.00012454,0
64.36,-0.00011783,0
64.36,-0.00011951,0
64.361,-0.00011145,0
64.361,-8.3421e-05,0
64.362,-3.6423e-05,0
64.362,1.0575e-05,0
64.363,3.9445e-05,0
64.363,5.5894e-05,0
64.364,6.1265e-05,0
64.364,4.9516e-05,0
64.365,3.2059e-05,0
64.365,2.4002e-05,0
64.366,3.4913e-05,0
64.366,6.8986e-05,0
64.367,0.00011212,0
64.367,0.00014351,0
64.368,0.0001566,0
64.369,0.00015459,0
64.369,0.00015274,0
64.37,0.00016214,0
64.37,0.000166,0
64.371,0.0001509,0
64.371,0.00012572,0
64.372,9.6513e-05,0
64.372,7.1336e-05,0
64.373,5.153e-05,0
64.373,3.0716e-05,0
64.374,1.0407e-05,0
64.374,-8.896e-06,0
64.375,-2.4338e-05,0
64.375,-4.1123e-05,0
64.376,-6.6133e-05,0
64.376,-9.4835e-05,0
64.377,-0.00010625,0
64.377,-8.9632e-05,0
64.378,-6.0761e-05,0
64.378,-3.7095e-05,0
64.379,-2.417e-05,0
64.379,-1.1917e-05,0
64.38,7.0497e-06,0
64.38,2.8031e-05,0
64.381,3.6088e-05,0
64.382,3.2059e-05,0
64.382,3.4745e-05,0
64.383,5.8915e-05,0
64.383,9.2317e-05,0
64.384,0.00010591,0
64.384,0.00010323,0
64.385,9.3156e-05,0
64.385,7.6371e-05,0
64.386,5.5726e-05,0
64.386,2.3667e-05,0
64.387,-2.4002e-05,0
64.387,-6.4622e-05,0
64.388,-7.5532e-05,0
64.388,-6.3783e-05,0
64.389,-5.0523e-05,0
64.389,-4.1123e-05,0
64.39,-2.501e-05,0
64.39,-1.4603e-05,0
64.391,-2.2156e-05,0
64.391,-4.0116e-05,0
64.392,-4.7501e-05,0
64.392,-3.0381e-05,0
64.393,4.1962e-06,0
64.393,3.6759e-05,0
64.394,5.8244e-05,0
64.394,7.4357e-05,0
64.395,9.0974e-05,0
64.396,0.00010289,0
64.396,0.00010994,0
64.397,0.00011246,0
64.397,0.00011263,0
64.398,0.00011649,0
64.398,0.00011901,0
64.399,0.00010994,0
64.399,9.7688e-05,0
64.4,9.2821e-05,0
64.4,9.8192e-05,0
64.401,0.00010826,0
64.401,0.00010239,0
64.402,7.4357e-05,0
64.402,4.2298e-05,0
64.403,1.9638e-05,0
64.403,-7.5532e-06,0
64.404,-4.6494e-05,0
64.404,-7.2679e-05,0
64.405,-7.5029e-05,0
64.405,-6.6804e-05,0
64.406,-5.6901e-05,0
64.406,-4.9348e-05,0
64.407,-5.3208e-05,0
64.407,-6.9322e-05,0
64.408,-7.0329e-05,0
64.409,-4.2298e-05,0
64.409,-4.3641e-06,0
64.41,1.7792e-05,0
64.41,1.7792e-05,0
64.411,7.8889e-06,0
64.411,1.0239e-05,0
64.412,2.501e-05,0
64.412,3.5416e-05,0
64.413,4.062e-05,0
64.413,5.0187e-05,0
64.414,5.8915e-05,0
64.414,6.0594e-05,0
64.415,6.1433e-05,0
64.415,6.6468e-05,0
64.416,8.04e-05,0
64.416,9.3828e-05,0
64.417,9.6849e-05,0
64.417,8.9967e-05,0
64.418,7.1336e-05,0
64.418,4.8005e-05,0
64.419,3.0045e-05,0
64.419,1.6953e-05,0
64.42,1.0575e-05,0
64.42,1.8967e-05,0
64.421,3.9445e-05,0
64.421,5.3208e-05,0
64.422,5.0523e-05,0
64.423,3.6423e-05,0
64.423,2.2324e-05,0
64.424,1.8631e-05,0
64.424,2.2324e-05,0
64.425,1.9135e-05,0
64.425,1.8463e-06,0
64.426,-3.2059e-05,0
64.426,-6.0761e-05,0
64.427,-6.8315e-05,0
64.427,-6.1097e-05,0
64.428,-4.6662e-05,0
64.428,-3.1556e-05,0
64.429,-2.3499e-05,0
64.429,-1.9303e-05,0
64.43,-1.3764e-05,0
64.43,-4.8676e-06,0
64.431,7.5532e-06,0
64.431,2.4002e-05,0
64.432,4.2466e-05,0
64.432,5.8915e-05,0
64.433,6.63e-05,0
64.433,5.6901e-05,0
64.434,4.4816e-05,0
64.434,3.7598e-05,0
64.435,3.4745e-05,0
64.436,3.592e-05,0
64.436,3.5416e-05,0
64.437,1.5946e-05,0
64.437,-1.3428e-05,0
64.438,-2.7024e-05,0
64.438,-2.1653e-05,0
64.439,-6.3783e-06,0
64.439,1.2085e-05,0
64.44,3.9277e-05,0
64.44,6.4958e-05,0
64.441,6.63e-05,0
64.441,5.4887e-05,0
64.442,5.1194e-05,0
64.442,4.918e-05,0
64.443,3.9109e-05,0
64.443,1.796e-05,0
64.444,-3.357e-06,0
64.444,-2.0645e-05,0
64.445,-3.4577e-05,0
64.445,-3.2395e-05,0
64.446,-1.5274e-05,0
64.446,-3.1891e-06,0
64.447,-1.2924e-05,0
64.447,-3.3738e-05,0
64.448,-4.4984e-05,0
64.448,-4.1794e-05,0
64.449,-2.8534e-05,0
64.45,-8.5603e-06,0
64.45,1.7792e-05,0
64.451,4.6159e-05,0
64.451,6.2272e-05,0
64.452,6.2943e-05,0
64.452,5.8076e-05,0
64.453,5.0187e-05,0
64.453,3.743e-05,0
64.454,1.2085e-05,0
64.454,5.0355e-07,0
64.455,3.2731e-05,0
64.455,9.2485e-05,0
64.456,0.00013075,0
64.456,0.00012723,0
64.457,0.00010356,0
64.457,8.04e-05,0
64.458,7.4693e-05,0
64.458,8.3421e-05,0
64.459,8.7953e-05,0
64.459,7.1839e-05,0
64.46,3.2395e-05,0
64.46,-2.8534e-05,0
64.461,-9.2821e-05,0
64.461,-0.00013848,0
64.462,-0.00015459,0
64.463,-0.00014653,0
64.463,-0.00012538,0
64.464,-0.00011028,0
64.464,-0.00010138,0
64.465,-9.2653e-05,0
64.465,-7.4861e-05,0
64.466,-5.388e-05,0
64.466,-4.1123e-05,0
64.467,-2.8367e-05,0
64.467,-1.8463e-06,0
64.468,3.5416e-05,0
64.468,6.0258e-05,0
64.469,6.5629e-05,0
64.469,6.5629e-05,0
64.47,6.8482e-05,0
64.47,7.5364e-05,0
64.471,8.8289e-05,0
64.471,9.836e-05,0
64.472,0.00010054,0
64.472,9.4499e-05,0
64.473,7.8553e-05,0
64.473,6.4958e-05,0
64.474,6.0929e-05,0
64.474,5.8244e-05,0
64.475,4.8173e-05,0
64.475,4.918e-05,0
64.476,6.4286e-05,0
64.477,7.8386e-05,0
64.477,7.9393e-05,0
64.478,6.6972e-05,0
64.478,5.4719e-05,0
64.479,5.0858e-05,0
64.479,5.4215e-05,0
64.48,6.1265e-05,0
64.48,6.5965e-05,0
64.481,6.63e-05,0
64.481,5.9586e-05,0
64.482,5.2873e-05,0
64.482,5.7237e-05,0
64.483,7.0665e-05,0
64.483,8.5603e-05,0
64.484,8.7449e-05,0
64.484,7.0329e-05,0
64.485,4.2466e-05,0
64.485,1.3931e-05,0
64.486,-7.2175e-06,0
64.486,-2.6688e-05,0
64.487,-4.3641e-05,0
64.487,-5.2033e-05,0
64.488,-5.7237e-05,0
64.488,-6.8315e-05,0
64.489,-8.8121e-05,0
64.49,-0.00012169,0
64.49,-0.00014183,0
64.491,-0.00010759,0
64.491,-2.9877e-05,0
64.492,2.8702e-05,0
64.492,4.3305e-05,0
64.493,4.5151e-05,0
64.493,5.9586e-05,0
64.494,8.1407e-05,0
64.494,9.752e-05,0
64.495,9.5506e-05,0
64.495,8.0064e-05,0
64.496,6.2943e-05,0
64.496,4.8844e-05,0
64.497,3.6255e-05,0
64.497,3.6927e-05,0
64.498,4.7837e-05,0
64.498,5.9251e-05,0
64.499,6.2943e-05,0
64.499,5.9586e-05,0
64.5,5.6901e-05,0
64.5,5.8579e-05,0
64.501,5.4551e-05,0
64.501,4.0116e-05,0
64.502,2.2492e-05,0
64.502,1.561e-05,0
64.503,1.7792e-05,0
64.504,2.5849e-05,0
64.504,2.7695e-05,0
64.505,1.1917e-05,0
64.505,-3.5248e-05,0
64.506,-9.2821e-05,0
64.506,-0.00010944,0
64.507,-7.57e-05,0
64.507,-2.2995e-05,0
64.508,1.0239e-05,0
64.508,1.4603e-05,0
64.509,7.7211e-06,0
64.509,1.8463e-06,0
64.51,8.3925e-07,0
64.51,9.2317e-06,0
64.511,2.2156e-05,0
64.511,2.8199e-05,0
64.512,3.0549e-05,0
64.512,3.7095e-05,0
64.513,4.5319e-05,0
64.513,4.1291e-05,0
64.514,2.0981e-05,0
64.514,5.0355e-07,0
64.515,2.182e-06,0
64.515,2.887e-05,0
64.516,6.4286e-05,0
64.516,8.51e-05,0
64.517,7.4693e-05,0
64.518,4.918e-05,0
64.518,3.7766e-05,0
64.519,3.978e-05,0
64.519,3.9948e-05,0
64.52,3.2059e-05,0
64.52,2.3835e-05,0
64.521,2.7024e-05,0
64.521,3.2731e-05,0
64.522,2.7024e-05,0
64.522,6.2104e-06,0
64.523,-2.1653e-05,0
64.523,-3.8605e-05,0
64.524,-3.5416e-05,0
64.524,-2.0981e-05,0
64.525,-9.3996e-06,0
64.525,-8.2246e-06,0
64.526,-1.9303e-05,0
64.526,-2.7024e-05,0
64.527,-1.1582e-05,0
64.527,1.091e-05,0
64.528,2.652e-05,0
64.528,3.6423e-05,0
64.529,3.743e-05,0
64.529,1.1414e-05,0
64.53,-2.9374e-05,0
64.531,-3.8605e-05,0
64.531,-6.5461e-06,0
64.532,2.9374e-05,0
64.532,4.5151e-05,0
64.533,4.9516e-05,0
64.533,4.9851e-05,0
64.534,4.6494e-05,0
64.534,4.1794e-05,0
64.535,3.3738e-05,0
64.535,1.561e-05,0
64.536,-5.2033e-06,0
64.536,-1.796e-05,0
64.537,-2.031e-05,0
64.537,-1.3596e-05,0
64.538,-1.1414e-05,0
64.538,-1.5946e-05,0
64.539,-1.1749e-05,0
64.539,3.1891e-06,0
64.54,1.6785e-05,0
64.54,2.1149e-05,0
64.541,2.9206e-05,0
64.541,3.9948e-05,0
64.542,4.2634e-05,0
64.542,3.6759e-05,0
64.543,2.4506e-05,0
64.543,1.4939e-05,0
64.544,8.2246e-06,0
64.545,-1.3428e-06,0
64.545,-1.3092e-05,0
64.546,-2.0981e-05,0
64.546,-6.3783e-06,0
64.547,2.5177e-05,0
64.547,4.5487e-05,0
64.548,5.153e-05,0
64.548,5.5222e-05,0
64.549,6.009e-05,0
64.549,6.1265e-05,0
64.55,5.5055e-05,0
64.55,5.2201e-05,0
64.551,5.7908e-05,0
64.551,6.3615e-05,0
64.552,6.8818e-05,0
64.552,8.0064e-05,0
64.553,8.6778e-05,0
64.553,8.2918e-05,0
64.554,6.9993e-05,0
64.554,3.9948e-05,0
64.555,-9.5674e-06,0
64.555,-4.8341e-05,0
64.556,-5.1194e-05,0
64.556,-1.7792e-05,0
64.557,2.887e-05,0
64.558,6.9322e-05,0
64.558,9.2149e-05,0
64.559,8.9464e-05,0
64.559,5.7237e-05,0
64.56,1.5106e-06,0
64.56,-4.6159e-05,0
64.561,-5.5894e-05,0
64.561,-3.8773e-05,0
64.562,-3.7095e-05,0
64.562,-7.4022e-05,0
64.563,-0.00011279,0
64.563,-9.8192e-05,0
64.564,-2.0813e-05,0
64.564,6.8315e-05,0
64.565,0.00011095,0
64.565,0.00010323,0
64.566,8.3421e-05,0
64.566,7.2007e-05,0
64.567,7.0329e-05,0
64.567,7.2175e-05,0
64.568,7.1e-05,0
64.568,7.7043e-05,0
64.569,7.9561e-05,0
64.569,6.8818e-05,0
64.57,5.539e-05,0
64.57,5.4215e-05,0
64.571,6.2943e-05,0
64.572,6.3279e-05,0
64.572,5.0187e-05,0
64.573,1.2924e-05,0
64.573,-4.3977e-05,0
64.574,-7.3854e-05,0
64.574,-6.7308e-05,0
64.575,-6.3783e-05,0
64.575,-7.4022e-05,0
64.576,-6.8315e-05,0
64.576,-3.2898e-05,0
64.577,1.6785e-07,0
64.577,1.0239e-05,0
64.578,1.1582e-05,0
64.578,2.5513e-05,0
64.579,5.153e-05,0
64.579,7.3014e-05,0
64.58,8.0064e-05,0
64.58,7.6707e-05,0
64.581,7.3014e-05,0
64.581,7.7043e-05,0
64.582,8.04e-05,0
64.582,7.3014e-05,0
64.583,4.1794e-05,0
64.583,-4.6998e-06,0
64.584,-2.9374e-05,0
64.585,-1.561e-05,0
64.585,1.5274e-05,0
64.586,3.0381e-05,0
64.586,2.1988e-05,0
64.587,1.5274e-05,0
64.587,2.6688e-05,0
64.588,3.4577e-05,0
64.588,2.8367e-05,0
64.589,2.3331e-05,0
64.589,2.3667e-05,0
64.59,3.1052e-05,0
64.59,4.448e-05,0
64.591,4.918e-05,0
64.591,4.2802e-05,0
64.592,3.0045e-05,0
64.592,1.5274e-05,0
64.593,6.714e-07,0
64.593,-1.4435e-05,0
64.594,-3.2395e-05,0
64.594,-4.9851e-05,0
64.595,-6.0258e-05,0
64.595,-5.5055e-05,0
64.596,-3.2731e-05,0
64.596,-5.539e-06,0
64.597,1.9303e-05,0
64.597,3.827e-05,0
64.598,4.7501e-05,0
64.599,5.4887e-05,0
64.599,6.0258e-05,0
64.6,6.1601e-05,0
64.6,6.5965e-05,0
64.601,7.0832e-05,0
64.601,6.8315e-05,0
64.602,6.3783e-05,0
64.602,6.1433e-05,0
64.603,5.3376e-05,0
64.603,4.4648e-05,0
64.604,3.8437e-05,0
64.604,2.8367e-05,0
64.605,9.7353e-06,0
64.605,-6.3783e-06,0
64.606,-1.6953e-05,0
64.606,-1.9638e-05,0
64.607,-1.4603e-05,0
64.607,-1.1414e-05,0
64.608,-1.7288e-05,0
64.608,-3.2731e-05,0
64.609,-4.9851e-05,0
64.609,-5.9419e-05,0
64.61,-6.0594e-05,0
64.61,-5.4887e-05,0
64.611,-4.8508e-05,0
64.612,-5.388e-05,0
64.612,-6.2776e-05,0
64.613,-5.2201e-05,0
64.613,-3.2563e-05,0
64.614,-1.9638e-05,0
64.614,-1.3764e-05,0
64.615,-1.3931e-05,0
64.615,-1.8128e-05,0
64.616,-1.0407e-05,0
64.616,1.0239e-05,0
64.617,3.9445e-05,0
64.617,6.3279e-05,0
64.618,7.1336e-05,0
64.618,7.6707e-05,0
64.619,8.3085e-05,0
64.619,9.0974e-05,0
64.62,9.5842e-05,0
64.62,9.6513e-05,0
64.621,9.6513e-05,0
64.621,8.896e-05,0
64.622,8.1071e-05,0
64.622,7.7714e-05,0
64.623,6.9993e-05,0
64.623,5.3208e-05,0
64.624,3.508e-05,0
64.624,1.6617e-05,0
64.625,-3.0213e-06,0
64.626,-1.3931e-05,0
64.626,-9.3996e-06,0
64.627,5.8747e-06,0
64.627,2.0478e-05,0
64.628,2.5177e-05,0
64.628,1.4939e-05,0
64.629,8.3925e-07,0
64.629,-8.5603e-06,0
64.63,-2.3835e-05,0
64.63,-3.7766e-05,0
64.631,-3.4073e-05,0
64.631,-2.8534e-06,0
64.632,5.153e-05,0
64.632,0.0001039,0
64.633,0.00013411,0
64.633,0.00011044,0
64.634,4.3641e-05,0
64.634,-1.5778e-05,0
64.635,-2.7024e-05,0
64.635,4.8676e-06,0
64.636,4.213e-05,0
64.636,6.3951e-05,0
64.637,6.2272e-05,0
64.637,4.6159e-05,0
64.638,3.508e-05,0
64.639,4.0116e-05,0
64.639,5.5726e-05,0
64.64,6.244e-05,0
64.64,4.5151e-05,0
64.641,8.0568e-06,0
64.641,-2.4338e-05,0
64.642,-2.9038e-05,0
64.642,-5.2033e-06,0
64.643,1.6281e-05,0
64.643,2.0142e-05,0
64.644,1.4603e-05,0
64.644,1.0575e-05,0
64.645,1.4603e-05,0
64.645,2.501e-05,0
64.646,3.2563e-05,0
64.646,1.7288e-05,0
64.647,-9.9031e-06,0
64.647,-2.3835e-05,0
64.648,-2.031e-05,0
64.648,1.3428e-06,0
64.649,2.0981e-05,0
64.649,2.652e-05,0
64.65,2.8367e-05,0
64.65,3.4073e-05,0
64.651,4.1794e-05,0
64.651,4.1962e-05,0
64.652,3.9109e-05,0
64.653,4.4144e-05,0
64.653,5.0187e-05,0
64.654,4.5151e-05,0
64.654,3.1891e-05,0
64.655,1.2589e-05,0
64.655,-1.2589e-05,0
64.656,-2.3331e-05,0
64.656,-1.8967e-05,0
64.657,-9.9031e-06,0
64.657,-8.3925e-07,0
64.658,6.2104e-06,0
64.658,7.8889e-06,0
64.659,4.6998e-06,0
64.659,-2.6856e-06,0
64.66,-6.8818e-06,0
64.66,-3.1891e-06,0
64.661,8.3925e-07,0
64.661,-4.8676e-06,0
64.662,-1.2253e-05,0
64.662,-1.0575e-05,0
64.663,-6.5461e-06,0
64.663,-1.0071e-06,0
64.664,1.0575e-05,0
64.664,2.5345e-05,0
64.665,4.1627e-05,0
64.666,5.7908e-05,0
64.666,6.5293e-05,0
64.667,6.5965e-05,0
64.667,6.3951e-05,0
64.668,6.6804e-05,0
64.668,7.2343e-05,0
64.669,7.57e-05,0
64.669,7.8218e-05,0
64.67,8.275e-05,0
64.67,7.9393e-05,0
64.671,6.9657e-05,0
64.671,5.8076e-05,0
64.672,4.5823e-05,0
64.672,3.5416e-05,0
64.673,2.4674e-05,0
64.673,1.796e-05,0
64.674,1.7288e-05,0
64.674,2.0645e-05,0
64.675,2.1988e-05,0
64.675,1.7456e-05,0
64.676,0,0
64.676,-3.0045e-05,0
64.677,-5.7572e-05,0
64.677,-7.5196e-05,0
64.678,-8.9128e-05,0
64.678,-0.00010692,0
64.679,-0.00011968,0
64.68,-0.00010944,0
64.68,-7.3518e-05,0
64.681,-3.3906e-05,0
64.681,-7.2175e-06,0
64.682,1.0575e-05,0
64.682,2.9541e-05,0
64.683,5.7908e-05,0
64.683,8.2078e-05,0
64.684,8.9799e-05,0
64.684,9.1814e-05,0
64.685,9.3996e-05,0
64.685,9.2485e-05,0
64.686,7.9057e-05,0
64.686,5.623e-05,0
64.687,4.5991e-05,0
64.687,4.4816e-05,0
64.688,3.2731e-05,0
64.688,5.8747e-06,0
64.689,-3.0045e-05,0
64.689,-5.3208e-05,0
64.69,-3.6255e-05,0
64.69,1.1582e-05,0
64.691,5.5558e-05,0
64.691,6.7475e-05,0
64.692,4.3473e-05,0
64.693,1.2924e-05,0
64.693,4.8676e-06,0
64.694,7.2175e-06,0
64.694,4.8676e-06,0
64.695,1.3931e-05,0
64.695,2.5681e-05,0
64.696,2.6688e-05,0
64.696,3.0549e-05,0
64.697,2.9877e-05,0
64.697,1.6785e-07,0
64.698,-2.6352e-05,0
64.698,-6.8818e-06,0
64.699,3.4577e-05,0
64.699,6.2776e-05,0
64.7,6.1265e-05,0
64.7,4.4144e-05,0
64.701,3.1388e-05,0
64.701,3.4073e-05,0
64.702,6.2272e-05,0
64.702,0.00010591,0
64.703,0.0001415,0
64.703,0.00014485,0
64.704,0.00011598,0
64.704,7.2343e-05,0
64.705,2.6688e-05,0
64.706,-1.1749e-05,0
64.706,-3.7766e-05,0
64.707,-6.0258e-05,0
64.707,-8.0903e-05,0
64.708,-9.3828e-05,0
64.708,-9.0303e-05,0
64.709,-6.6804e-05,0
64.709,-3.1556e-05,0
64.71,3.1891e-06,0
64.71,2.6352e-05,0
64.711,3.6088e-05,0
64.711,4.7333e-05,0
64.712,6.1601e-05,0
64.712,5.7908e-05,0
64.713,2.8031e-05,0
64.713,2.0142e-06,0
64.714,5.0355e-06,0
64.714,8.2246e-06,0
64.715,-1.3931e-05,0
64.715,-3.5416e-05,0
64.716,-2.501e-05,0
64.716,7.8889e-06,0
64.717,4.7669e-05,0
64.717,7.9057e-05,0
64.718,9.7688e-05,0
64.718,9.7185e-05,0
64.719,8.3757e-05,0
64.72,7.3014e-05,0
64.72,7.1e-05,0
64.721,6.8818e-05,0
64.721,5.8412e-05,0
64.722,4.9012e-05,0
64.722,4.918e-05,0
64.723,5.3544e-05,0
64.723,5.8579e-05,0
64.724,6.1433e-05,0
64.724,5.9586e-05,0
64.725,5.9922e-05,0
64.725,6.7308e-05,0
64.726,7.6875e-05,0
64.726,7.8386e-05,0
64.727,5.7404e-05,0
64.727,2.3667e-05,0
64.728,1.6785e-07,0
64.728,-1.2924e-05,0
64.729,-2.1988e-05,0
64.729,-2.4002e-05,0
64.73,-1.1917e-05,0
64.73,3.1891e-06,0
64.731,2.8534e-06,0
64.731,-9.5674e-06,0
64.732,-1.6953e-05,0
64.733,-1.4939e-05,0
64.733,-9.7353e-06,0
64.734,-1.2589e-05,0
64.734,-2.5681e-05,0
64.735,-4.0116e-05,0
64.735,-4.6494e-05,0
64.736,-4.3641e-05,0
64.736,-4.683e-05,0
64.737,-5.4047e-05,0
64.737,-5.0858e-05,0
64.738,-4.2969e-05,0
64.738,-3.6423e-05,0
64.739,-3.1388e-05,0
64.739,-3.0045e-05,0
64.74,-3.6423e-05,0
64.74,-5.4887e-05,0
64.741,-6.6804e-05,0
64.741,-5.6565e-05,0
64.742,-4.3137e-05,0
64.742,-3.8437e-05,0
64.743,-2.031e-05,0
64.743,1.2589e-05,0
64.744,2.6184e-05,0
64.744,1.3092e-05,0
64.745,3.0213e-06,0
64.745,1.5274e-05,0
64.746,3.743e-05,0
64.747,6.4118e-05,0
64.747,8.5603e-05,0
64.748,8.5771e-05,0
64.748,7.7714e-05,0
64.749,9.5506e-05,0
64.749,0.00013277,0
64.75,0.00015593,0
64.75,0.0001462,0
64.751,0.00010558,0
64.751,6.2272e-05,0
64.752,2.1317e-05,0
64.752,-2.9877e-05,0
64.753,-6.0761e-05,0
64.753,-4.6159e-05,0
64.754,-8.0568e-06,0
64.754,1.9638e-05,0
64.755,2.1988e-05,0
64.755,1.8967e-05,0
64.756,2.5681e-05,0
64.756,3.4241e-05,0
64.757,4.0116e-05,0
64.757,4.3137e-05,0
64.758,4.9516e-05,0
64.758,5.7237e-05,0
64.759,6.5293e-05,0
64.76,6.865e-05,0
64.76,6.63e-05,0
64.761,6.0594e-05,0
64.761,4.1962e-05,0
64.762,8.5603e-06,0
64.762,-1.6953e-05,0
64.763,-4.0452e-05,0
64.763,-7.0665e-05,0
64.764,-7.3014e-05,0
64.764,-4.0955e-05,0
64.765,-4.1962e-06,0
64.765,2.266e-05,0
64.766,4.1794e-05,0
64.766,5.7908e-05,0
64.767,6.9657e-05,0
64.767,7.9728e-05,0
64.768,8.4764e-05,0
64.768,7.5029e-05,0
64.769,6.1601e-05,0
64.769,5.6565e-05,0
64.77,5.5222e-05,0
64.77,5.0858e-05,0
64.771,4.3473e-05,0
64.771,3.357e-05,0
64.772,2.5681e-05,0
64.772,2.4338e-05,0
64.773,2.9206e-05,0
64.774,3.1724e-05,0
64.774,2.6688e-05,0
64.775,1.9974e-05,0
64.775,9.5674e-06,0
64.776,8.2246e-06,0
64.776,1.6449e-05,0
64.777,1.1917e-05,0
64.777,-5.0355e-06,0
64.778,-1.796e-05,0
64.778,-1.8296e-05,0
64.779,-1.2757e-05,0
64.779,-1.9638e-05,0
64.78,-4.3809e-05,0
64.78,-6.4622e-05,0
64.781,-6.1601e-05,0
64.781,-3.4409e-05,0
64.782,3.8605e-06,0
64.782,3.9445e-05,0
64.783,6.0594e-05,0
64.783,6.5629e-05,0
64.784,6.3615e-05,0
64.784,6.2943e-05,0
64.785,6.5461e-05,0
64.785,6.5293e-05,0
64.786,5.9922e-05,0
64.787,4.7837e-05,0
64.787,3.2059e-05,0
64.788,2.5345e-05,0
64.788,2.2324e-05,0
64.789,1.326e-05,0
64.789,3.8605e-06,0
64.79,1.8463e-06,0
64.79,8.5603e-06,0
64.791,2.266e-05,0
64.791,3.122e-05,0
64.792,2.5345e-05,0
64.792,2.0645e-05,0
64.793,2.1988e-05,0
64.793,1.9135e-05,0
64.794,1.7288e-05,0
64.794,2.1317e-05,0
64.795,3.1388e-05,0
64.795,4.448e-05,0
64.796,5.3544e-05,0
64.796,5.9251e-05,0
64.797,6.2272e-05,0
64.797,6.009e-05,0
64.798,5.5558e-05,0
64.798,5.0858e-05,0
64.799,4.8173e-05,0
64.799,4.5319e-05,0
64.8,3.978e-05,0
64.801,2.9709e-05,0
64.801,1.9806e-05,0
64.802,2.1653e-05,0
64.802,3.6759e-05,0
64.803,5.6733e-05,0
64.803,7.0329e-05,0
64.804,6.9657e-05,0
64.804,5.623e-05,0
64.805,3.0045e-05,0
64.805,-4.8676e-06,0
64.806,-4.3641e-05,0
64.806,-7.805e-05,0
64.807,-8.51e-05,0
64.807,-6.3447e-05,0
64.808,-5.623e-05,0
64.808,-8.1071e-05,0
64.809,-0.00010642,0
64.809,-9.8527e-05,0
64.81,-6.5965e-05,0
64.81,-3.592e-05,0
64.811,-2.3499e-05,0
64.811,-2.6184e-05,0
64.812,-3.7095e-05,0
64.812,-5.0858e-05,0
64.813,-5.9922e-05,0
64.814,-5.6733e-05,0
64.814,-4.0284e-05,0
64.815,-2.7024e-05,0
64.815,-1.3764e-05,0
64.816,1.1582e-05,0
64.816,4.4144e-05,0
64.817,6.7979e-05,0
64.817,7.8889e-05,0
64.818,8.5603e-05,0
64.818,9.0471e-05,0
64.819,9.0135e-05,0
64.819,8.5771e-05,0
64.82,8.1743e-05,0
64.82,7.9057e-05,0
64.821,8.4092e-05,0
64.821,9.3324e-05,0
64.822,9.8527e-05,0
64.822,9.9031e-05,0
64.823,0.00010423,0
64.823,0.00012052,0
64.824,0.00013948,0
64.824,0.00014049,0
64.825,0.00011246,0
64.825,7.1839e-05,0
64.826,5.6901e-05,0
64.826,6.9657e-05,0
64.827,7.7379e-05,0
64.828,5.6733e-05,0
64.828,6.8818e-06,0
64.829,-6.9657e-05,0
64.829,-0.00012555,0
64.83,-0.00012522,0
64.83,-0.00011649,0
64.831,-0.00013512,0
64.831,-0.00015962,0
64.832,-0.00015023,0
64.832,-9.6849e-05,0
64.833,-2.652e-05,0
64.833,3.4745e-05,0
64.834,7.9393e-05,0
64.834,0.00011061,0
64.835,0.0001232,0
64.835,0.00011716,0
64.836,9.6849e-05,0
64.836,6.7979e-05,0
64.837,3.7095e-05,0
64.837,1.7288e-05,0
64.838,3.0213e-06,0
64.838,-1.0575e-05,0
64.839,-1.9638e-05,0
64.839,-2.7695e-05,0
64.84,-3.7095e-05,0
64.841,-3.6088e-05,0
64.841,-2.0981e-05,0
64.842,-2.182e-06,0
64.842,8.5603e-06,0
64.843,1.1917e-05,0
64.843,7.2175e-06,0
64.844,-2.8534e-06,0
64.844,5.2033e-06,0
64.845,3.9277e-05,0
64.845,7.7043e-05,0
64.846,0.00010121,0
64.846,0.00011263,0
64.847,0.00010793,0
64.847,8.5771e-05,0
64.848,7.3182e-05,0
64.848,8.4932e-05,0
64.849,0.00011313,0
64.849,0.00013445,0
64.85,0.00012773,0
64.85,9.7185e-05,0
64.851,5.069e-05,0
64.851,-1.326e-05,0
64.852,-7.4022e-05,0
64.852,-0.00010558,0
64.853,-0.00012303,0
64.853,-0.00013579,0
64.854,-0.00011934,0
64.855,-7.2175e-05,0
64.855,-2.9709e-05,0
64.856,-2.0981e-05,0
64.856,-4.0787e-05,0
64.857,-5.6062e-05,0
64.857,-4.6159e-05,0
64.858,-2.3331e-05,0
64.858,-7.3854e-06,0
64.859,5.0355e-07,0
64.859,7.8889e-06,0
64.86,1.6449e-05,0
64.86,1.8631e-05,0
64.861,1.7624e-05,0
64.861,1.8296e-05,0
64.862,1.9638e-05,0
64.862,2.0645e-05,0
64.863,2.6352e-05,0
64.863,3.8102e-05,0
64.864,5.1698e-05,0
64.864,6.7979e-05,0
64.865,8.4932e-05,0
64.865,0.00010021,0
64.866,0.00011078,0
64.866,0.00011179,0
64.867,0.00010726,0
64.868,0.00010037,0
64.868,9.4835e-05,0
64.869,9.2485e-05,0
64.869,9.3492e-05,0
64.87,9.0806e-05,0
64.87,8.426e-05,0
64.871,7.6371e-05,0
64.871,5.6565e-05,0
64.872,2.9206e-05,0
64.872,-1.6785e-07,0
64.873,-4.1794e-05,0
64.873,-8.3757e-05,0
64.874,-0.00010574,0
64.874,-9.6513e-05,0
64.875,-5.9754e-05,0
64.875,-1.9974e-05,0
64.876,8.7282e-06,0
64.876,3.1388e-05,0
64.877,5.3208e-05,0
64.877,6.9657e-05,0
64.878,8.2414e-05,0
64.878,9.1478e-05,0
64.879,9.2821e-05,0
64.879,8.896e-05,0
64.88,7.1504e-05,0
64.88,3.8102e-05,0
64.881,8.2246e-06,0
64.882,-5.0355e-07,0
64.882,-9.0639e-06,0
64.883,-3.4913e-05,0
64.883,-6.9154e-05,0
64.884,-9.1478e-05,0
64.884,-8.3925e-05,0
64.885,-4.9516e-05,0
64.885,-1.091e-05,0
64.886,2.7527e-05,0
64.886,7.1e-05,0
64.887,0.00010658,0
64.887,0.00012404,0
64.888,0.00012807,0
64.888,0.00013008,0
64.889,0.00012874,0
64.889,0.00011783,0
64.89,0.00010256,0
64.89,8.6275e-05,0
64.891,5.623e-05,0
64.891,4.5319e-06,0
64.892,-5.3208e-05,0
64.892,-9.1646e-05,0
64.893,-7.3686e-05,0
64.893,-1.5274e-05,0
64.894,2.3667e-05,0
64.894,2.2995e-05,0
64.895,7.2175e-06,0
64.896,-4.1962e-06,0
64.896,-6.5461e-06,0
64.897,-2.182e-06,0
64.897,9.7353e-06,0
64.898,1.7792e-05,0
64.898,1.4939e-05,0
64.899,2.1317e-05,0
64.899,4.3137e-05,0
64.9,5.7572e-05,0
64.9,4.6494e-05,0
64.901,1.3092e-05,0
64.901,-3.1052e-05,0
64.902,-8.0735e-05,0
64.902,-0.00010675,0
64.903,-7.1e-05,0
64.903,1.1582e-05,0
64.904,8.6946e-05,0
64.904,0.00012203,0
64.905,0.00012018,0
64.905,0.00010726,0
64.906,0.00010155,0
64.906,0.00010222,0
64.907,9.8192e-05,0
64.907,7.8721e-05,0
64.908,4.2802e-05,0
64.909,-6.5461e-06,0
64.909,-6.1433e-05,0
64.91,-9.7856e-05,0
64.91,-0.00011095,0
64.911,-0.00010423,0
64.911,-9.6345e-05,0
64.912,-0.00010205,0
64.912,-0.00010843,0
64.913,-0.00010423,0
64.913,-9.0806e-05,0
64.914,-7.4189e-05,0
64.914,-6.7643e-05,0
64.915,-7.2175e-05,0
64.915,-8.3085e-05,0
64.916,-8.1071e-05,0
64.916,-5.774e-05,0
64.917,-3.1556e-05,0
64.917,-9.5674e-06,0
64.918,-6.2104e-06,0
64.918,-1.0742e-05,0
64.919,1.6785e-06,0
64.919,2.8702e-05,0
64.92,5.2873e-05,0
64.92,7.2007e-05,0
64.921,8.5771e-05,0
64.921,8.5771e-05,0
64.922,7.4693e-05,0
64.923,6.7308e-05,0
64.923,6.5461e-05,0
64.924,6.4958e-05,0
64.924,6.9154e-05,0
64.925,7.5364e-05,0
64.925,7.9057e-05,0
64.926,8.275e-05,0
64.926,8.4092e-05,0
64.927,8.04e-05,0
64.927,8.2414e-05,0
64.928,9.0806e-05,0
64.928,9.8527e-05,0
64.929,0.00010054,0
64.929,9.366e-05,0
64.93,8.2078e-05,0
64.93,7.6707e-05,0
64.931,8.6442e-05,0
64.931,0.00010121,0
64.932,0.00011666,0
64.932,0.00012287,0
64.933,0.00010726,0
64.933,8.4764e-05,0
64.934,6.6972e-05,0
64.934,3.978e-05,0
64.935,-1.561e-05,0
64.936,-8.4428e-05,0
64.936,-0.00011917,0
64.937,-9.9031e-05,0
64.937,-4.8005e-05,0
64.938,-5.3712e-06,0
64.938,8.2246e-06,0
64.939,9.2317e-06,0
64.939,1.0239e-05,0
64.94,1.4603e-05,0
64.94,2.6017e-05,0
64.941,3.508e-05,0
64.941,2.8702e-05,0
64.942,1.9974e-05,0
64.942,3.0549e-05,0
64.943,5.3544e-05,0
64.943,7.5029e-05,0
64.944,9.3828e-05,0
64.944,0.00010289,0
64.945,9.5674e-05,0
64.945,7.8386e-05,0
64.946,5.774e-05,0
64.946,4.1794e-05,0
64.947,2.6352e-05,0
64.947,1.1414e-05,0
64.948,7.5532e-06,0
64.948,1.0575e-05,0
64.949,7.8889e-06,0
64.95,5.539e-06,0
64.95,4.1962e-06,0
64.951,1.6785e-07,0
64.951,-3.0213e-06,0
64.952,-7.8889e-06,0
64.952,-9.9031e-06,0
64.953,-8.3925e-07,0
64.953,1.326e-05,0
64.954,2.2324e-05,0
64.954,2.3835e-05,0
64.955,1.561e-05,0
64.955,1.4939e-05,0
64.956,3.3066e-05,0
64.956,4.5823e-05,0
64.957,3.0045e-05,0
64.957,1.6785e-07,0
64.958,-1.8799e-05,0
64.958,-1.8631e-05,0
64.959,-1.7121e-05,0
64.959,-3.508e-05,0
64.96,-8.6275e-05,0
64.96,-0.00013931,0
64.961,-0.00015006,0
64.961,-0.00012001,0
64.962,-8.04e-05,0
64.963,-5.2201e-05,0
64.963,-2.5849e-05,0
64.964,3.357e-07,0
64.964,2.3163e-05,0
64.965,5.3208e-05,0
64.965,8.3757e-05,0
64.966,9.366e-05,0
64.966,8.5771e-05,0
64.967,6.8315e-05,0
64.967,4.5823e-05,0
64.968,3.0381e-05,0
64.968,1.9974e-05,0
64.969,1.3931e-05,0
64.969,1.9974e-05,0
64.97,3.1052e-05,0
64.97,3.3906e-05,0
64.971,3.2563e-05,0
64.971,3.3402e-05,0
64.972,3.743e-05,0
64.972,3.5752e-05,0
64.973,2.9374e-05,0
64.973,2.9374e-05,0
64.974,3.1052e-05,0
64.974,3.6759e-05,0
64.975,4.3473e-05,0
64.975,3.9445e-05,0
64.976,2.9877e-05,0
64.977,3.0045e-05,0
64.977,4.1962e-05,0
64.978,5.9251e-05,0
64.978,8.0064e-05,0
64.979,9.6513e-05,0
64.979,0.00010105,0
64.98,9.7353e-05,0
64.98,9.2821e-05,0
64.981,8.3589e-05,0
64.981,6.4286e-05,0
64.982,4.2802e-05,0
64.982,2.9709e-05,0
64.983,2.4674e-05,0
64.983,2.4338e-05,0
64.984,2.9374e-05,0
64.984,2.4002e-05,0
64.985,1.6785e-07,0
64.985,-3.5248e-05,0
64.986,-8.3925e-05,0
64.986,-0.0001368,0
64.987,-0.00016584,0
64.987,-0.00015879,0
64.988,-0.00014569,0
64.988,-0.00014821,0
64.989,-0.0001425,0
64.99,-0.00010759,0
64.99,-5.4047e-05,0
64.991,-4.3641e-06,0
64.991,3.0213e-05,0
64.992,4.7837e-05,0
64.992,5.3376e-05,0
64.993,5.388e-05,0
64.993,6.0258e-05,0
64.994,7.4189e-05,0
64.994,8.0064e-05,0
64.995,8.0064e-05,0
64.995,8.3589e-05,0
64.996,8.5771e-05,0
64.996,8.4092e-05,0
64.997,8.3085e-05,0
64.997,8.3757e-05,0
64.998,8.51e-05,0
64.998,9.3492e-05,0
64.999,0.00010625,0
64.999,0.000118,0
65,0.00012572,0
65,0.00013277,0
65.001,0.00014385,0
65.001,0.00014804,0
65.002,0.00014536,0
65.002,0.00013579,0
65.003,0.00012303,0
65.004,0.00010625,0
65.004,8.51e-05,0
65.005,5.9419e-05,0
65.005,2.9709e-05,0
65.006,-5.539e-06,0
65.006,-5.2033e-05,0
65.007,-9.3828e-05,0
65.007,-0.00011951,0
65.008,-0.00013881,0
65.008,-0.00015828,0
65.009,-0.00016869,0
65.009,-0.00017104,0
65.01,-0.000165,0
65.01,-0.00015006,0
65.011,-0.00013579,0
65.011,-0.00011699,0
65.012,-8.6778e-05,0
65.012,-4.7166e-05,0
65.013,-1.2924e-05,0
65.013,4.3641e-06,0
65.014,1.4939e-05,0
65.014,2.2324e-05,0
65.015,2.1988e-05,0
65.015,9.2317e-06,0
65.016,-1.1749e-06,0
65.017,-5.539e-06,0
65.017,-1.4267e-05,0
65.018,-1.0742e-05,0
65.018,2.0981e-05,0
65.019,6.1601e-05,0
65.019,8.8121e-05,0
65.02,0.00010658,0
65.02,0.00012723,0
65.021,0.00013613,0
65.021,0.00012706,0
65.022,0.00011666,0
65.022,0.00011414,0
65.023,0.00010591,0
65.023,9.0974e-05,0
65.024,7.3854e-05,0
65.024,6.2104e-05,0
65.025,6.1265e-05,0
65.025,6.2272e-05,0
65.026,5.2537e-05,0
65.026,3.1556e-05,0
65.027,1.326e-05,0
65.027,1.326e-05,0
65.028,3.0716e-05,0
65.028,5.0187e-05,0
65.029,6.6972e-05,0
65.029,8.0232e-05,0
65.03,8.3757e-05,0
65.031,7.57e-05,0
65.031,6.3615e-05,0
65.032,6.3279e-05,0
65.032,7.1672e-05,0
65.033,6.3279e-05,0
65.033,3.6088e-05,0
65.034,1.9303e-05,0
65.034,2.2324e-05,0
65.035,2.4002e-05,0
65.035,1.6449e-05,0
65.036,1.326e-05,0
65.036,1.8128e-05,0
65.037,1.5778e-05,0
65.037,-4.1962e-06,0
65.038,-3.6088e-05,0
65.038,-6.5293e-05,0
65.039,-7.4022e-05,0
65.039,-8.3421e-05,0
65.04,-9.4499e-05,0
65.04,-6.7979e-05,0
65.041,-7.3854e-06,0
65.041,4.0787e-05,0
65.042,6.1936e-05,0
65.042,6.7475e-05,0
65.043,6.2608e-05,0
65.044,4.6159e-05,0
65.044,1.5274e-05,0
65.045,-1.5946e-05,0
65.045,-2.6352e-05,0
65.046,-8.896e-06,0
65.046,1.561e-05,0
65.047,3.4409e-05,0
65.047,5.5222e-05,0
65.048,7.1336e-05,0
65.048,7.5868e-05,0
65.049,7.2343e-05,0
65.049,5.7404e-05,0
65.05,3.8437e-05,0
65.05,2.9374e-05,0
65.051,4.5991e-05,0
65.051,6.63e-05,0
65.052,6.0258e-05,0
65.052,4.213e-05,0
65.053,3.5416e-05,0
65.053,3.9445e-05,0
65.054,5.0858e-05,0
65.054,5.8076e-05,0
65.055,5.623e-05,0
65.055,5.0523e-05,0
65.056,4.7669e-05,0
65.056,4.2298e-05,0
65.057,2.2995e-05,0
65.058,-8.3925e-07,0
65.058,-1.7288e-05,0
65.059,-2.4338e-05,0
65.059,-1.1414e-05,0
65.06,1.0239e-05,0
65.06,1.796e-05,0
65.061,6.2104e-06,0
65.061,-1.9135e-05,0
65.062,-4.9851e-05,0
65.062,-7.805e-05,0
65.063,-0.00010927,0
65.063,-0.00014855,0
65.064,-0.00016936,0
65.064,-0.00015291,0
65.065,-0.00011565,0
65.065,-7.7714e-05,0
65.066,-4.8173e-05,0
65.066,-2.4842e-05,0
65.067,-3.5248e-06,0
65.067,1.4267e-05,0
65.068,2.5345e-05,0
65.068,2.9709e-05,0
65.069,3.6591e-05,0
65.069,4.8844e-05,0
65.07,5.8915e-05,0
65.071,6.244e-05,0
65.071,6.0929e-05,0
65.072,5.6901e-05,0
65.072,5.153e-05,0
65.073,5.1362e-05,0
65.073,5.5558e-05,0
65.074,5.6565e-05,0
65.074,5.4551e-05,0
65.075,5.1865e-05,0
65.075,3.9445e-05,0
65.076,1.8463e-05,0
65.076,3.357e-07,0
65.077,-3.5248e-06,0
65.077,3.1891e-06,0
65.078,1.3092e-05,0
65.078,2.182e-05,0
65.079,2.9709e-05,0
65.079,3.8437e-05,0
65.08,5.3544e-05,0
65.08,7.1336e-05,0
65.081,8.3085e-05,0
65.081,9.0806e-05,0
65.082,0.00010507,0
65.082,0.00012605,0
65.083,0.00014485,0
65.084,0.0001561,0
65.084,0.00015258,0
65.085,0.00013629,0
65.085,0.00011666,0
65.086,9.2485e-05,0
65.086,6.244e-05,0
65.087,2.0645e-05,0
65.087,-2.501e-05,0
65.088,-5.4887e-05,0
65.088,-6.8818e-05,0
65.089,-7.805e-05,0
65.089,-8.6107e-05,0
65.09,-8.5603e-05,0
65.09,-7.335e-05,0
65.091,-5.9419e-05,0
65.091,-5.6062e-05,0
65.092,-5.9419e-05,0
65.092,-5.8915e-05,0
65.093,-5.2873e-05,0
65.093,-5.0019e-05,0
65.094,-5.388e-05,0
65.094,-6.0258e-05,0
65.095,-7.8386e-05,0
65.095,-0.00010155,0
65.096,-0.00011296,0
65.096,-0.00010021,0
65.097,-6.7811e-05,0
65.098,-2.9709e-05,0
65.098,-1.6785e-07,0
65.099,2.6017e-05,0
65.099,5.623e-05,0
65.1,8.4764e-05,0
65.1,0.00010524,0
65.101,0.00011598,0
65.101,0.00012673,0
65.102,0.0001373,0
65.102,0.00013495,0
65.103,0.00012773,0
65.103,0.00012572,0
65.104,0.00011901,0
65.104,8.8792e-05,0
65.105,4.213e-05,0
65.105,2.6856e-06,0
65.106,-1.8128e-05,0
65.106,-1.6953e-05,0
65.107,8.5603e-06,0
65.107,4.0116e-05,0
65.108,6.0929e-05,0
65.108,6.6972e-05,0
65.109,6.865e-05,0
65.109,7.5029e-05,0
65.11,8.661e-05,0
65.111,9.6513e-05,0
65.111,9.3156e-05,0
65.112,6.7308e-05,0
65.112,3.5752e-05,0
65.113,2.0813e-05,0
65.113,2.182e-05,0
65.114,2.3331e-05,0
65.114,1.7121e-05,0
65.115,8.3925e-06,0
65.115,2.182e-06,0
65.116,1.4435e-05,0
65.116,3.508e-05,0
65.117,2.8702e-05,0
65.117,1.0575e-05,0
65.118,1.5946e-05,0
65.118,3.0213e-05,0
65.119,3.592e-05,0
65.119,3.3066e-05,0
65.12,2.7695e-05,0
65.12,2.7359e-05,0
65.121,2.9038e-05,0
65.121,2.5345e-05,0
65.122,2.1988e-05,0
65.122,1.9638e-05,0
65.123,1.3931e-05,0
65.123,1.1749e-05,0
65.124,1.4603e-05,0
65.125,9.5674e-06,0
65.125,-8.3925e-06,0
65.126,-1.4267e-05,0
65.126,-1.0071e-06,0
65.127,1.6281e-05,0
65.127,2.0142e-05,0
65.128,1.5442e-05,0
65.128,1.3931e-05,0
65.129,1.326e-05,0
65.129,9.5674e-06,0
65.13,1.0239e-05,0
65.13,1.4267e-05,0
65.131,1.0575e-05,0
65.131,1.5106e-06,0
65.132,-3.5248e-06,0
65.132,2.3499e-06,0
65.133,1.5778e-05,0
65.133,2.4674e-05,0
65.134,2.8702e-05,0
65.134,3.2395e-05,0
65.135,3.3402e-05,0
65.135,3.1724e-05,0
65.136,2.8702e-05,0
65.136,2.6352e-05,0
65.137,2.3835e-05,0
65.138,3.1388e-05,0
65.138,4.4984e-05,0
65.139,5.9251e-05,0
65.139,7.1336e-05,0
65.14,8.3085e-05,0
65.14,0.00010054,0
65.141,0.00011447,0
65.141,0.00011128,0
65.142,9.5842e-05,0
65.142,7.8386e-05,0
65.143,5.5222e-05,0
65.143,2.5345e-05,0
65.144,-1.5778e-05,0
65.144,-7.2007e-05,0
65.145,-0.0001368,0
65.145,-0.00019538,0
65.146,-0.00022609,0
65.146,-0.00022626,0
65.147,-0.00020394,0
65.147,-0.00016953,0
65.148,-0.00012404,0
65.148,-6.9657e-05,0
65.149,-2.4338e-05,0
65.149,6.8818e-06,0
65.15,2.7024e-05,0
65.15,3.6759e-05,0
65.151,3.4577e-05,0
65.152,2.031e-05,0
65.152,3.1891e-06,0
65.153,-4.0284e-06,0
65.153,7.3854e-06,0
65.154,3.6255e-05,0
65.154,6.6636e-05,0
65.155,8.3421e-05,0
65.155,8.5603e-05,0
65.156,8.2918e-05,0
65.156,7.6036e-05,0
65.157,6.7643e-05,0
65.157,5.7908e-05,0
65.158,5.1865e-05,0
65.158,5.6733e-05,0
65.159,6.7308e-05,0
65.159,6.7811e-05,0
65.16,6.0594e-05,0
65.16,6.3615e-05,0
65.161,7.1839e-05,0
65.161,7.335e-05,0
65.162,6.5293e-05,0
65.162,5.8579e-05,0
65.163,4.9851e-05,0
65.163,2.8031e-05,0
65.164,1.8967e-05,0
65.165,3.743e-05,0
65.165,8.2078e-05,0
65.166,0.00014166,0
65.166,0.00017977,0
65.167,0.0001791,0
65.167,0.00016768,0
65.168,0.0001566,0
65.168,0.00012454,0
65.169,6.5461e-05,0
65.169,1.2589e-05,0
65.17,2.5177e-06,0
65.17,1.9303e-05,0
65.171,6.3783e-06,0
65.171,-5.6901e-05,0
65.172,-0.0001368,0
65.172,-0.0001942,0
65.173,-0.00020595,0
65.173,-0.00017742,0
65.174,-0.00013999,0
65.174,-0.00010541,0
65.175,-7.1672e-05,0
65.175,-3.7263e-05,0
65.176,-3.6927e-06,0
65.176,2.7024e-05,0
65.177,4.9516e-05,0
65.177,6.1097e-05,0
65.178,6.4622e-05,0
65.179,6.0426e-05,0
65.179,4.6159e-05,0
65.18,1.9974e-05,0
65.18,-4.1962e-06,0
65.181,-1.0071e-06,0
65.181,2.2995e-05,0
65.182,4.0284e-05,0
65.182,4.3473e-05,0
65.183,4.1962e-05,0
65.183,4.1794e-05,0
65.184,5.4887e-05,0
65.184,7.9057e-05,0
65.185,9.4163e-05,0
65.185,9.3492e-05,0
65.186,8.3757e-05,0
65.186,6.8315e-05,0
65.187,4.3809e-05,0
65.187,1.5106e-06,0
65.188,-3.508e-05,0
65.188,-4.1794e-05,0
65.189,-2.9877e-05,0
65.189,-2.2324e-05,0
65.19,-1.561e-05,0
65.19,-6.3783e-06,0
65.191,1.3428e-06,0
65.192,6.5461e-06,0
65.192,1.8296e-05,0
65.193,4.1123e-05,0
65.193,6.9657e-05,0
65.194,8.6442e-05,0
65.194,8.7953e-05,0
65.195,8.5771e-05,0
65.195,7.9393e-05,0
65.196,6.7979e-05,0
65.196,5.0355e-05,0
65.197,2.6352e-05,0
65.197,8.5603e-06,0
65.198,-2.182e-06,0
65.198,-5.539e-06,0
65.199,1.091e-05,0
65.199,3.3234e-05,0
65.2,3.4073e-05,0
65.2,1.5106e-05,0
65.201,-1.8463e-06,0
65.201,-3.8605e-06,0
65.202,7.2175e-06,0
65.202,1.5778e-05,0
65.203,1.6449e-05,0
65.203,1.7121e-05,0
65.204,1.9974e-05,0
65.204,1.5946e-05,0
65.205,1.3931e-05,0
65.206,2.6017e-05,0
65.206,3.7934e-05,0
65.207,4.2802e-05,0
65.207,3.7598e-05,0
65.208,3.3402e-05,0
65.208,3.9445e-05,0
65.209,4.683e-05,0
65.209,4.5319e-05,0
65.21,2.8534e-05,0
65.21,-1.6785e-07,0
65.211,-2.6688e-05,0
65.211,-5.1194e-05,0
65.212,-7.0329e-05,0
65.212,-7.4357e-05,0
65.213,-5.9251e-05,0
65.213,-4.0787e-05,0
65.214,-3.4745e-05,0
65.214,-3.5416e-05,0
65.215,-2.8367e-05,0
65.215,-1.3596e-05,0
65.216,-2.8534e-06,0
65.216,9.5674e-06,0
65.217,2.1988e-05,0
65.217,3.4745e-05,0
65.218,4.5487e-05,0
65.219,4.3473e-05,0
65.219,3.5752e-05,0
65.22,2.9877e-05,0
65.22,1.4939e-05,0
65.221,-2.4674e-05,0
65.221,-5.7404e-05,0
65.222,-4.1123e-05,0
65.222,6.5461e-06,0
65.223,4.1459e-05,0
65.223,5.6733e-05,0
65.224,6.1601e-05,0
65.224,6.8315e-05,0
65.225,7.1504e-05,0
65.225,6.865e-05,0
65.226,7.0329e-05,0
65.226,7.57e-05,0
65.227,7.4525e-05,0
65.227,6.5629e-05,0
65.228,5.0523e-05,0
65.228,4.2802e-05,0
65.229,4.918e-05,0
65.229,6.1601e-05,0
65.23,6.5965e-05,0
65.23,6.0929e-05,0
65.231,5.1362e-05,0
65.231,3.3906e-05,0
65.232,1.1917e-05,0
65.233,8.3925e-07,0
65.233,1.326e-05,0
65.234,3.3738e-05,0
65.234,3.9948e-05,0
65.235,4.2802e-05,0
65.235,6.1433e-05,0
65.236,8.8792e-05,0
65.236,0.00011061,0
65.237,0.00010642,0
65.237,5.8412e-05,0
65.238,1.6785e-06,0
65.238,-2.3331e-05,0
65.239,-1.2253e-05,0
65.239,1.1917e-05,0
65.24,2.266e-05,0
65.24,1.8967e-05,0
65.241,1.3931e-05,0
65.241,8.896e-06,0
65.242,-5.8747e-06,0
65.242,-3.2563e-05,0
65.243,-6.5126e-05,0
65.243,-7.9393e-05,0
65.244,-6.8986e-05,0
65.244,-4.9851e-05,0
65.245,-3.7766e-05,0
65.246,-3.743e-05,0
65.246,-4.448e-05,0
65.247,-4.7333e-05,0
65.247,-3.2563e-05,0
65.248,-3.0213e-06,0
65.248,3.4745e-05,0
65.249,6.4958e-05,0
65.249,8.0903e-05,0
65.25,9.9199e-05,0
65.25,0.0001185,0
65.251,0.00012538,0
65.251,0.00012236,0
65.252,0.00011531,0
65.252,9.9031e-05,0
65.253,7.0329e-05,0
65.253,3.508e-05,0
65.254,-2.8534e-06,0
65.254,-3.7263e-05,0
65.255,-5.6901e-05,0
65.255,-6.479e-05,0
65.256,-7.4693e-05,0
65.256,-8.3421e-05,0
65.257,-8.661e-05,0
65.257,-8.896e-05,0
65.258,-8.5771e-05,0
65.258,-7.3182e-05,0
65.259,-5.388e-05,0
65.26,-3.2395e-05,0
65.26,-1.5946e-05,0
65.261,-4.3641e-06,0
65.261,2.182e-06,0
65.262,1.6449e-05,0
65.262,3.6759e-05,0
65.263,5.0858e-05,0
65.263,5.9922e-05,0
65.264,5.9586e-05,0
65.264,5.4551e-05,0
65.265,5.8915e-05,0
65.265,6.9993e-05,0
65.266,8.4764e-05,0
65.266,9.1142e-05,0
65.267,8.1575e-05,0
65.267,6.3951e-05,0
65.268,4.6494e-05,0
65.268,3.3234e-05,0
65.269,2.4506e-05,0
65.269,1.9471e-05,0
65.27,1.4939e-05,0
65.27,8.7282e-06,0
65.271,5.0355e-06,0
65.271,1.1749e-06,0
65.272,-2.8534e-06,0
65.272,-4.1962e-06,0
65.273,-3.0213e-06,0
65.274,-3.357e-07,0
65.274,7.3854e-06,0
65.275,2.0645e-05,0
65.275,3.4073e-05,0
65.276,4.2802e-05,0
65.276,4.5991e-05,0
65.277,5.0355e-05,0
65.277,6.479e-05,0
65.278,7.6204e-05,0
65.278,8.04e-05,0
65.279,8.1071e-05,0
65.279,8.1071e-05,0
65.28,8.2246e-05,0
65.28,7.9057e-05,0
65.281,7.1e-05,0
65.281,5.9586e-05,0
65.282,4.8173e-05,0
65.282,3.5248e-05,0
65.283,1.4939e-05,0
65.283,-1.1078e-05,0
65.284,-2.8199e-05,0
65.284,-2.7192e-05,0
65.285,-2.2995e-05,0
65.285,-1.9303e-05,0
65.286,3.5248e-06,0
65.287,4.4144e-05,0
65.287,7.3014e-05,0
65.288,6.8147e-05,0
65.288,3.7095e-05,0
65.289,2.3331e-05,0
65.289,2.7359e-05,0
65.29,1.1917e-05,0
65.29,-3.6759e-05,0
65.291,-9.5171e-05,0
65.291,-0.00011984,0
65.292,-9.8695e-05,0
65.292,-7.2007e-05,0
65.293,-4.5655e-05,0
65.293,1.5106e-06,0
65.294,5.8915e-05,0
65.294,0.00010608,0
65.295,0.0001284,0
65.295,0.00012773,0
65.296,0.00012236,0
65.296,0.00011196,0
65.297,8.3589e-05,0
65.297,4.0787e-05,0
65.298,-7.2175e-06,0
65.298,-4.7333e-05,0
65.299,-6.0761e-05,0
65.299,-4.6662e-05,0
65.3,-2.2324e-05,0
65.301,-1.5106e-06,0
65.301,1.1917e-05,0
65.302,1.6617e-05,0
65.302,2.6688e-05,0
65.303,4.2466e-05,0
65.303,5.4047e-05,0
65.304,6.1433e-05,0
65.304,6.1936e-05,0
65.305,5.3376e-05,0
65.305,4.6159e-05,0
65.306,4.5823e-05,0
65.306,4.918e-05,0
65.307,5.623e-05,0
65.307,6.9657e-05,0
65.308,8.1743e-05,0
65.308,9.1646e-05,0
65.309,0.00010155,0
65.309,0.00010625,0
65.31,9.752e-05,0
65.31,6.5293e-05,0
65.311,2.8534e-06,0
65.311,-6.5965e-05,0
65.312,-9.9535e-05,0
65.312,-7.9225e-05,0
65.313,-3.3066e-05,0
65.314,-1.5274e-05,0
65.314,-2.4338e-05,0
65.315,-2.5681e-05,0
65.315,-1.1749e-05,0
65.316,1.5106e-06,0
65.316,6.8818e-06,0
65.317,7.5532e-06,0
65.317,6.2104e-06,0
65.318,5.8747e-06,0
65.318,7.8889e-06,0
65.319,6.2104e-06,0
65.319,-6.714e-07,0
65.32,-3.8605e-06,0
65.32,-6.2104e-06,0
65.321,-1.5778e-05,0
65.321,-2.9206e-05,0
65.322,-3.6591e-05,0
65.322,-4.1291e-05,0
65.323,-4.5655e-05,0
65.323,-4.683e-05,0
65.324,-4.7166e-05,0
65.324,-5.153e-05,0
65.325,-6.4118e-05,0
65.325,-7.5364e-05,0
65.326,-7.5029e-05,0
65.326,-7.57e-05,0
65.327,-7.335e-05,0
65.328,-4.7669e-05,0
65.328,-1.8463e-06,0
65.329,3.5416e-05,0
65.329,5.774e-05,0
65.33,6.9993e-05,0
65.33,7.3182e-05,0
65.331,7.4189e-05,0
65.331,7.7043e-05,0
65.332,8.3757e-05,0
65.332,9.2485e-05,0
65.333,9.752e-05,0
65.333,9.7856e-05,0
65.334,9.6849e-05,0
65.334,9.2485e-05,0
65.335,8.4596e-05,0
65.335,7.6707e-05,0
65.336,7.2175e-05,0
65.336,7.1e-05,0
65.337,6.63e-05,0
65.337,6.1936e-05,0
65.338,5.9754e-05,0
65.338,5.2201e-05,0
65.339,4.1123e-05,0
65.339,2.9374e-05,0
65.34,2.031e-05,0
65.341,1.5946e-05,0
65.341,2.2156e-05,0
65.342,4.1123e-05,0
65.342,5.7572e-05,0
65.343,6.7308e-05,0
65.343,7.1504e-05,0
65.344,6.865e-05,0
65.344,6.2272e-05,0
65.345,5.2537e-05,0
65.345,3.1724e-05,0
65.346,-2.182e-06,0
65.346,-4.3137e-05,0
65.347,-7.5532e-05,0
65.347,-8.275e-05,0
65.348,-6.5629e-05,0
65.348,-3.8102e-05,0
65.349,-5.2033e-06,0
65.349,2.266e-05,0
65.35,4.4984e-05,0
65.35,6.244e-05,0
65.351,6.2943e-05,0
65.351,5.069e-05,0
65.352,3.5752e-05,0
65.352,1.8631e-05,0
65.353,7.8889e-06,0
65.353,9.9031e-06,0
65.354,2.3667e-05,0
65.355,3.1724e-05,0
65.355,2.3163e-05,0
65.356,8.2246e-06,0
65.356,2.182e-06,0
65.357,2.5177e-06,0
65.357,-5.7069e-06,0
65.358,-2.031e-05,0
65.358,-2.2324e-05,0
65.359,-7.2175e-06,0
65.359,1.2924e-05,0
65.36,2.4338e-05,0
65.36,2.9038e-05,0
65.361,3.6591e-05,0
65.361,4.683e-05,0
65.362,5.2033e-05,0
65.362,5.6901e-05,0
65.363,6.8315e-05,0
65.363,6.8818e-05,0
65.364,4.7669e-05,0
65.364,2.417e-05,0
65.365,1.2924e-05,0
65.365,1.6785e-07,0
65.366,-1.8296e-05,0
65.366,-4.1291e-05,0
65.367,-6.7643e-05,0
65.368,-7.9561e-05,0
65.368,-6.8315e-05,0
65.369,-3.6088e-05,0
65.369,1.1582e-05,0
65.37,5.9419e-05,0
65.37,8.8289e-05,0
65.371,9.5003e-05,0
65.371,8.4428e-05,0
65.372,6.4286e-05,0
65.372,4.8676e-05,0
65.373,4.3473e-05,0
65.373,4.3809e-05,0
65.374,4.2802e-05,0
65.374,4.2802e-05,0
65.375,4.6159e-05,0
65.375,4.4312e-05,0
65.376,3.5416e-05,0
65.376,1.6617e-05,0
65.377,-1.6785e-07,0
65.377,-2.5177e-06,0
65.378,9.2317e-06,0
65.378,2.501e-05,0
65.379,3.2563e-05,0
65.379,3.3234e-05,0
65.38,4.2802e-05,0
65.38,6.4118e-05,0
65.381,8.7282e-05,0
65.382,0.00010088,0
65.382,9.987e-05,0
65.383,8.7114e-05,0
65.383,8.04e-05,0
65.384,8.4932e-05,0
65.384,8.5267e-05,0
65.385,6.9154e-05,0
65.385,3.0213e-05,0
65.386,-2.031e-05,0
65.386,-4.8844e-05,0
65.387,-4.448e-05,0
65.387,-2.5345e-05,0
65.388,-1.6953e-05,0
65.388,-2.4674e-05,0
65.389,-3.5584e-05,0
65.389,-4.3641e-05,0
65.39,-6.1601e-05,0
65.39,-8.2582e-05,0
65.391,-9.3492e-05,0
65.391,-9.3492e-05,0
65.392,-8.426e-05,0
65.392,-6.6636e-05,0
65.393,-3.9109e-05,0
65.393,-1.6617e-05,0
65.394,-1.5778e-05,0
65.395,-2.8534e-05,0
65.395,-3.6088e-05,0
65.396,-3.6423e-05,0
65.396,-3.4577e-05,0
65.397,-2.9709e-05,0
65.397,-3.7766e-05,0
65.398,-7.2679e-05,0
65.398,-0.00011095,0
65.399,-0.00013042,0
65.399,-0.00011363,0
65.4,-5.8076e-05,0
65.4,8.5603e-06,0
65.401,5.7069e-05,0
65.401,7.6036e-05,0
65.402,7.8721e-05,0
65.402,8.3925e-05,0
65.403,9.1142e-05,0
65.403,8.7953e-05,0
65.404,7.9728e-05,0
65.404,7.3182e-05,0
65.405,6.4622e-05,0
65.405,5.6901e-05,0
65.406,6.0258e-05,0
65.406,6.7979e-05,0
65.407,6.9657e-05,0
65.407,6.8986e-05,0
65.408,7.2007e-05,0
65.409,6.9657e-05,0
65.409,5.5894e-05,0
65.41,4.0955e-05,0
65.41,3.4745e-05,0
65.411,3.8941e-05,0
65.411,4.7837e-05,0
65.412,6.0258e-05,0
65.412,6.9657e-05,0
65.413,6.4622e-05,0
65.413,5.6565e-05,0
65.414,5.7572e-05,0
65.414,5.9922e-05,0
65.415,6.1265e-05,0
65.415,6.4622e-05,0
65.416,7.4189e-05,1
65.416,8.1407e-05,1
65.417,7.8386e-05,1
65.417,6.7308e-05,1
65.418,5.2705e-05,1
65.418,4.0116e-05,1
65.419,2.8367e-05,1
65.419,1.6953e-05,1
65.42,1.5274e-05,1
65.42,2.1653e-05,1
65.421,2.0813e-05,1
65.422,8.3925e-07,1
65.422,-1.7121e-05,1
65.423,-2.031e-05,1
65.423,-1.9471e-05,1
65.424,-2.031e-05,1
65.424,-2.7359e-05,1
65.425,-2.8367e-05,1
65.425,-8.5603e-06,1
65.426,2.2324e-05,1
65.426,5.1865e-05,1
65.427,7.1839e-05,1
65.427,7.2343e-05,1
65.428,6.2943e-05,1
65.428,5.8244e-05,1
65.429,5.5222e-05,1
65.429,3.5752e-05,1
65.43,1.8463e-06,1
65.43,-1.3931e-05,1
65.431,8.896e-06,1
65.431,4.7166e-05,1
65.432,7.2343e-05,1
65.432,7.2007e-05,1
65.433,4.6159e-05,1
65.433,1.7121e-05,1
65.434,5.8747e-06,1
65.434,1.6281e-05,1
65.435,3.0716e-05,1
65.436,2.4002e-05,1
65.436,-9.9031e-06,1
65.437,-4.0116e-05,1
65.437,-2.9206e-05,1
65.438,6.8818e-06,1
65.438,2.266e-05,1
65.439,1.8296e-05,1
65.439,2.2492e-05,1
65.44,3.8773e-05,1
65.44,5.623e-05,1
65.441,7.1e-05,1
65.441,7.5868e-05,1
65.442,6.8986e-05,1
65.442,6.2272e-05,1
65.443,5.0523e-05,1
65.443,3.3738e-05,1
65.444,1.6953e-05,1
65.444,-5.8747e-06,1
65.445,-3.5752e-05,1
65.445,-6.1097e-05,1
65.446,-8.5603e-05,1
65.446,-0.00011363,1
65.447,-0.00012287,1
65.447,-9.8192e-05,1
65.448,-5.0355e-05,1
65.449,-5.0355e-07,1
65.449,4.0116e-05,1
65.45,6.4958e-05,1
65.45,7.1e-05,1
65.451,6.949e-05,1
65.451,6.3615e-05,1
65.452,4.2466e-05,1
65.452,1.8631e-05,1
65.453,1.8967e-05,1
65.453,3.8773e-05,1
65.454,5.4719e-05,1
65.454,5.0187e-05,1
65.455,3.3738e-05,1
65.455,2.1988e-05,1
65.456,1.6281e-05,1
65.456,2.0813e-05,1
65.457,3.4409e-05,1
65.457,4.9348e-05,1
65.458,5.7404e-05,1
65.458,6.2608e-05,1
65.459,6.5965e-05,1
65.459,6.2272e-05,1
65.46,5.0523e-05,1
65.46,1.1749e-05,1
65.461,-5.7908e-05,1
65.462,-0.00010658,1
65.462,-0.00010088,1
65.463,-7.0665e-05,1
65.463,-5.7069e-05,1
65.464,-6.244e-05,1
65.464,-6.244e-05,1
65.465,-4.5151e-05,1
65.465,-1.8296e-05,1
65.466,1.3092e-05,1
65.466,4.0116e-05,1
65.467,5.5726e-05,1
65.467,6.6972e-05,1
65.468,7.2175e-05,1
65.468,7.1672e-05,1
65.469,8.1407e-05,1
65.469,9.752e-05,1
65.47,0.00010961,1
65.47,0.00011263,1
65.471,0.00010155,1
65.471,7.4357e-05,1
65.472,4.8508e-05,1
65.472,4.2802e-05,1
65.473,6.1936e-05,1
65.473,8.1575e-05,1
65.474,7.8721e-05,1
65.474,5.9586e-05,1
65.475,3.3402e-05,1
65.476,8.2246e-06,1
65.476,-2.2324e-05,1
65.477,-6.5126e-05,1
65.477,-0.00010558,1
65.478,-0.00011632,1
65.478,-9.3492e-05,1
65.479,-6.2608e-05,1
65.479,-4.1123e-05,1
65.48,-2.9877e-05,1
65.48,-2.0981e-05,1
65.481,-8.896e-06,1
65.481,3.1891e-06,1
65.482,1.1582e-05,1
65.482,1.7288e-05,1
65.483,1.3596e-05,1
65.483,1.2924e-05,1
65.484,2.1317e-05,1
65.484,2.5345e-05,1
65.485,2.4002e-05,1
65.485,2.4674e-05,1
65.486,2.5345e-05,1
65.486,2.5345e-05,1
65.487,3.0381e-05,1
65.487,4.2802e-05,1
65.488,5.2201e-05,1
65.489,5.623e-05,1
65.489,5.7404e-05,1
65.49,6.0929e-05,1
65.49,6.9322e-05,1
65.491,7.9728e-05,1
65.491,9.1142e-05,1
65.492,8.6778e-05,1
65.492,5.0019e-05,1
65.493,-8.7282e-06,1
65.493,-6.6636e-05,1
65.494,-9.3492e-05,1
65.494,-6.9993e-05,1
65.495,-1.9638e-05,1
65.495,3.2563e-05,1
65.496,8.04e-05,1
65.496,0.00011431,1
65.497,0.00011934,1
65.497,9.9535e-05,1
65.498,7.4693e-05,1
65.498,5.4887e-05,1
65.499,3.7263e-05,1
65.499,3.1388e-05,1
65.5,4.1962e-05,1
65.5,5.1865e-05,1
65.501,3.3066e-05,1
65.501,-1.4603e-05,1
65.502,-4.9851e-05,1
65.503,-5.2873e-05,1
65.503,-4.1627e-05,1
65.504,-2.9374e-05,1
65.504,-2.4506e-05,1
65.505,-2.417e-05,1
65.505,-2.0478e-05,1
65.506,-1.326e-05,1
65.506,0,1
65.507,1.561e-05,1
65.507,2.8534e-05,1
65.508,4.7501e-05,1
65.508,6.9657e-05,1
65.509,8.2918e-05,1
65.509,8.51e-05,1
65.51,8.4428e-05,1
65.51,9.1646e-05,1
65.511,0.00010709,1
65.511,0.00011968,1
65.512,0.00012589,1
65.512,0.00011951,1
65.513,9.7688e-05,1
65.513,6.5965e-05,1
65.514,3.4241e-05,1
65.514,1.6281e-05,1
65.515,5.7069e-06,1
65.516,-3.0213e-06,1
65.516,-4.8676e-06,1
65.517,-1.0575e-05,1
65.517,-2.887e-05,1
65.518,-5.2201e-05,1
65.518,-6.7308e-05,1
65.519,-7.2679e-05,1
65.519,-7.3518e-05,1
65.52,-6.2104e-05,1
65.52,-4.0452e-05,1
65.521,-2.1317e-05,1
65.521,-4.3641e-06,1
65.522,8.2246e-06,1
65.522,1.326e-05,1
65.523,1.4939e-05,1
65.523,1.8128e-05,1
65.524,2.2828e-05,1
65.524,2.8367e-05,1
65.525,2.8367e-05,1
65.525,1.7288e-05,1
65.526,-4.3641e-06,1
65.526,-1.4939e-05,1
65.527,-1.6785e-06,1
65.527,2.0981e-05,1
65.528,4.3473e-05,1
65.528,6.4286e-05,1
65.529,8.4428e-05,1
65.53,9.8192e-05,1
65.53,9.7185e-05,1
65.531,8.426e-05,1
65.531,7.2511e-05,1
65.532,7.6036e-05,1
65.532,8.3085e-05,1
65.533,6.1265e-05,1
65.533,9.5674e-06,1
65.534,-2.9709e-05,1
65.534,-4.2466e-05,1
65.535,-5.5055e-05,1
65.535,-7.1839e-05,1
65.536,-6.8315e-05,1
65.536,-4.6159e-05,1
65.537,-2.1988e-05,1
65.537,7.3854e-06,1
65.538,2.6688e-05,1
65.538,1.9471e-05,1
65.539,-2.5177e-06,1
65.539,-3.2563e-05,1
65.54,-6.0761e-05,1
65.54,-8.275e-05,1
65.541,-0.00011414,1
65.541,-0.00015341,1
65.542,-0.00016265,1
65.543,-0.00013025,1
65.543,-0.00010155,1
65.544,-0.00010088,1
65.544,-9.6178e-05,1
65.545,-6.6133e-05,1
65.545,-3.0381e-05,1
65.546,-1.091e-05,1
65.546,8.3925e-07,1
65.547,1.7624e-05,1
65.547,3.4745e-05,1
65.548,4.8676e-05,1
65.548,7.1e-05,1
65.549,9.5842e-05,1
65.549,0.00010793,1
65.55,0.00011582,1
65.55,0.00013126,1
65.551,0.00015358,1
65.551,0.00016768,1
65.552,0.000165,1
65.552,0.00015392,1
65.553,0.00014015,1
65.553,0.00013042,1
65.554,0.00012538,1
65.554,0.00011565,1
65.555,0.00010188,1
65.555,8.9799e-05,1
65.556,8.04e-05,1
65.557,7.5196e-05,1
65.557,7.0329e-05,1
65.558,6.2943e-05,1
65.558,5.0523e-05,1
65.559,3.592e-05,1
65.559,2.3499e-05,1
65.56,1.8967e-05,1
65.56,1.7288e-05,1
65.561,8.896e-06,1
65.561,-1.5106e-06,1
65.562,-8.5603e-06,1
65.562,-1.2589e-05,1
65.563,-4.8676e-06,1
65.563,9.9031e-06,1
65.564,1.7288e-05,1
65.564,2.501e-05,1
65.565,5.2201e-05,1
65.565,8.1575e-05,1
65.566,9.0471e-05,1
65.566,8.9128e-05,1
65.567,8.9128e-05,1
65.567,9.0974e-05,1
65.568,7.4693e-05,1
65.568,3.6423e-05,1
65.569,-9.5674e-06,1
65.57,-4.3809e-05,1
65.57,-4.918e-05,1
65.571,-3.8941e-05,1
65.571,-3.743e-05,1
65.572,-4.7501e-05,1
65.572,-4.3473e-05,1
65.573,-3.0381e-05,1
65.573,-2.8367e-05,1
65.574,-3.6591e-05,1
65.574,-3.8773e-05,1
65.575,-2.8534e-05,1
65.575,-5.8747e-06,1
65.576,2.3499e-05,1
65.576,3.9612e-05,1
65.577,4.1123e-05,1
65.577,3.4409e-05,1
65.578,2.6017e-05,1
65.578,2.2995e-05,1
65.579,2.182e-05,1
65.579,2.2492e-05,1
65.58,2.8702e-05,1
65.58,3.2731e-05,1
65.581,3.2059e-05,1
65.581,3.3066e-05,1
65.582,3.7598e-05,1
65.582,4.5151e-05,1
65.583,5.2033e-05,1
65.584,5.7572e-05,1
65.584,5.8244e-05,1
65.585,5.0858e-05,1
65.585,4.0787e-05,1
65.586,3.508e-05,1
65.586,3.1388e-05,1
65.587,2.7695e-05,1
65.587,2.417e-05,1
65.588,1.4603e-05,1
65.588,2.8534e-06,1
65.589,1.8463e-06,1
65.589,2.8534e-06,1
65.59,-1.0239e-05,1
65.59,-1.5106e-05,1
65.591,2.182e-06,1
65.591,3.2059e-05,1
65.592,7.3686e-05,1
65.592,0.00011917,1
65.593,0.0001519,1
65.593,0.0001744,1
65.594,0.00018849,1
65.594,0.0001791,1
65.595,0.00013495,1
65.595,8.275e-05,1
65.596,5.1194e-05,1
65.597,3.3738e-05,1
65.597,1.2924e-05,1
65.598,-2.8367e-05,1
65.598,-9.1814e-05,1
65.599,-0.0001462,1
65.599,-0.00016936,1
65.6,-0.00017372,1
65.6,-0.00016533,1
65.601,-0.000142,1
65.601,-0.00012186,1
65.602,-0.00011481,1
65.602,-0.00011749,1
65.603,-0.00011531,1
65.603,-9.6345e-05,1
65.604,-7.0832e-05,1
65.604,-4.9683e-05,1
65.605,-3.7095e-05,1
65.605,-2.6352e-05,1
65.606,-1.7624e-05,1
65.606,-1.3764e-05,1
65.607,-1.1246e-05,1
65.607,-8.5603e-06,1
65.608,-2.8534e-06,1
65.608,2.8534e-06,1
65.609,4.5319e-06,1
65.609,6.3783e-06,1
65.61,1.5946e-05,1
65.611,3.6088e-05,1
65.611,5.5726e-05,1
65.612,6.9993e-05,1
65.612,7.3014e-05,1
65.613,7.1504e-05,1
65.613,6.5293e-05,1
65.614,5.0355e-05,1
65.614,4.4648e-05,1
65.615,5.8915e-05,1
65.615,7.7043e-05,1
65.616,9.3156e-05,1
65.616,0.00010893,1
65.617,0.00012203,1
65.617,0.00013109,1
65.618,0.00013814,1
65.618,0.00013881,1
65.619,0.00013613,1
65.619,0.00013277,1
65.62,0.00011699,1
65.62,8.5435e-05,1
65.621,5.0355e-05,1
65.621,2.2156e-05,1
65.622,1.5274e-05,1
65.622,3.1052e-05,1
65.623,4.3977e-05,1
65.624,3.508e-05,1
65.624,5.2033e-06,1
65.625,-3.3066e-05,1
65.625,-5.8412e-05,1
65.626,-6.4622e-05,1
65.626,-5.3376e-05,1
65.627,-4.0452e-05,1
65.627,-4.3809e-05,1
65.628,-5.0187e-05,1
65.628,-4.9851e-05,1
65.629,-4.8844e-05,1
65.629,-4.4648e-05,1
65.63,-4.6326e-05,1
65.63,-5.0355e-05,1
65.631,-2.7024e-05,1
65.631,1.4603e-05,1
65.632,3.8605e-05,1
65.632,5.539e-05,1
65.633,8.6778e-05,1
65.633,0.00011649,1
65.634,0.00012706,1
65.634,0.00012253,1
65.635,0.00010121,1
65.635,6.4286e-05,1
65.636,2.1988e-05,1
65.636,-1.1582e-05,1
65.637,-2.4506e-05,1
65.638,-2.6352e-05,1
65.638,-3.4409e-05,1
65.639,-4.4312e-05,1
65.639,-5.1362e-05,1
65.64,-4.7166e-05,1
65.64,-3.6423e-05,1
65.641,-3.2563e-05,1
65.641,-3.122e-05,1
65.642,-2.7359e-05,1
65.642,-1.5106e-05,1
65.643,2.5177e-06,1
65.643,1.8967e-05,1
65.644,3.743e-05,1
65.644,5.4047e-05,1
65.645,5.9922e-05,1
65.645,5.8244e-05,1
65.646,5.539e-05,1
65.646,5.3544e-05,1
65.647,5.2705e-05,1
65.647,5.4215e-05,1
65.648,5.4551e-05,1
65.648,5.153e-05,1
65.649,5.1362e-05,1
65.649,6.4286e-05,1
65.65,7.9561e-05,1
65.65,8.6275e-05,1
65.651,8.7617e-05,1
65.652,8.4764e-05,1
65.652,7.8386e-05,1
65.653,6.8147e-05,1
65.653,5.8244e-05,1
65.654,4.0787e-05,1
65.654,1.8631e-05,1
65.655,5.539e-06,1
65.655,-5.0355e-07,1
65.656,-1.6617e-05,1
65.656,-2.8534e-05,1
65.657,-1.9303e-05,1
65.657,2.182e-06,1
65.658,2.0645e-05,1
65.658,2.4842e-05,1
65.659,1.7456e-05,1
65.659,8.3925e-06,1
65.66,-5.2033e-06,1
65.66,-2.7863e-05,1
65.661,-5.5894e-05,1
65.661,-7.7379e-05,1
65.662,-6.9322e-05,1
65.662,-3.6927e-05,1
65.663,-1.3596e-05,1
65.663,-1.1582e-05,1
65.664,-9.5674e-06,1
65.665,7.5532e-06,1
65.665,3.4577e-05,1
65.666,5.7572e-05,1
65.666,7.1e-05,1
65.667,7.9561e-05,1
65.667,8.3757e-05,1
65.668,8.51e-05,1
65.668,8.5603e-05,1
65.669,7.7379e-05,1
65.669,6.6972e-05,1
65.67,5.8915e-05,1
65.67,5.0019e-05,1
65.671,3.8437e-05,1
65.671,3.2731e-05,1
65.672,3.0716e-05,1
65.672,2.652e-05,1
65.673,2.3331e-05,1
65.673,2.8031e-05,1
65.674,3.4073e-05,1
65.674,3.4409e-05,1
65.675,2.7863e-05,1
65.675,2.1317e-05,1
65.676,1.5274e-05,1
65.676,1.2253e-05,1
65.677,1.4771e-05,1
65.677,1.8631e-05,1
65.678,2.5513e-05,1
65.679,2.9709e-05,1
65.679,2.0981e-05,1
65.68,5.0355e-06,1
65.68,3.8605e-06,1
65.681,1.3764e-05,1
65.681,1.326e-05,1
65.682,-5.539e-06,1
65.682,-3.978e-05,1
65.683,-6.8147e-05,1
65.683,-5.7572e-05,1
65.684,-1.2757e-05,1
65.684,2.5849e-05,1
65.685,3.7766e-05,1
65.685,4.3473e-05,1
65.686,5.9922e-05,1
65.686,6.8986e-05,1
65.687,5.6062e-05,1
65.687,2.5177e-05,1
65.688,-1.3596e-05,1
65.688,-4.4816e-05,1
65.689,-4.9348e-05,1
65.689,-2.652e-05,1
65.69,-2.182e-06,1
65.69,1.1078e-05,1
65.691,1.6617e-05,1
65.692,2.031e-05,1
65.692,2.5681e-05,1
65.693,2.0645e-05,1
65.693,4.8676e-06,1
65.694,-6.8818e-06,1
65.694,-1.5946e-05,1
65.695,-2.031e-05,1
65.695,-1.1917e-05,1
65.696,6.2104e-06,1
65.696,2.1317e-05,1
65.697,2.9709e-05,1
65.697,3.0045e-05,1
65.698,2.266e-05,1
65.698,2.1988e-05,1
65.699,3.6759e-05,1
65.699,5.4551e-05,1
65.7,6.4286e-05,1
65.7,7.4357e-05,1
65.701,8.8289e-05,1
65.701,9.5506e-05,1
65.702,9.1814e-05,1
65.702,8.5771e-05,1
65.703,8.6442e-05,1
65.703,8.7449e-05,1
65.704,7.0665e-05,1
65.704,3.2731e-05,1
65.705,-4.1962e-06,1
65.706,-3.1724e-05,1
65.706,-4.7837e-05,1
65.707,-3.827e-05,1
65.707,5.7069e-06,1
65.708,5.3544e-05,1
65.708,6.7643e-05,1
65.709,3.7766e-05,1
65.709,-3.1891e-05,1
65.71,-0.00010558,1
65.71,-0.00011901,1
65.711,-7.9896e-05,1
65.711,-4.4984e-05,1
65.712,-3.122e-05,1
65.712,-2.1317e-05,1
65.713,-9.5674e-06,1
65.713,3.5248e-06,1
65.714,1.9806e-05,1
65.714,3.6423e-05,1
65.715,4.6494e-05,1
65.715,5.2873e-05,1
65.716,6.2943e-05,1
65.716,7.5364e-05,1
65.717,8.426e-05,1
65.717,8.2414e-05,1
65.718,7.1839e-05,1
65.719,6.1601e-05,1
65.719,5.1362e-05,1
65.72,3.0716e-05,1
65.72,-4.5319e-06,1
65.721,-3.6088e-05,1
65.721,-5.623e-05,1
65.722,-6.5293e-05,1
65.722,-6.2943e-05,1
65.723,-5.2201e-05,1
65.723,-3.6927e-05,1
65.724,-1.2253e-05,1
65.724,1.1582e-05,1
65.725,2.501e-05,1
65.725,3.4409e-05,1
65.726,3.743e-05,1
65.726,4.2802e-05,1
65.727,5.2873e-05,1
65.727,5.8915e-05,1
65.728,6.4286e-05,1
65.728,7.57e-05,1
65.729,8.3421e-05,1
65.729,8.1407e-05,1
65.73,7.8553e-05,1
65.73,8.6778e-05,1
65.731,0.00010021,1
65.731,0.00011347,1
65.732,0.00012169,1
65.733,0.00011917,1
65.733,0.00010138,1
65.734,7.8218e-05,1
65.734,6.4958e-05,1
65.735,5.623e-05,1
65.735,4.3977e-05,1
65.736,2.7192e-05,1
65.736,-4.8676e-06,1
65.737,-5.2705e-05,1
65.737,-9.8863e-05,1
65.738,-0.00012605,1
65.738,-0.00012505,1
65.739,-9.9535e-05,1
65.739,-7.1504e-05,1
65.74,-5.1698e-05,1
65.74,-3.743e-05,1
65.741,-2.3331e-05,1
65.741,3.357e-07,1
65.742,2.266e-05,1
65.742,3.2059e-05,1
65.743,3.4745e-05,1
65.743,4.1627e-05,1
65.744,4.9851e-05,1
65.744,5.4887e-05,1
65.745,5.4383e-05,1
65.746,5.0019e-05,1
65.746,4.3473e-05,1
65.747,4.3473e-05,1
65.747,4.0116e-05,1
65.748,2.8031e-05,1
65.748,1.3092e-05,1
65.749,4.1962e-06,1
65.749,1.5106e-05,1
65.75,4.0787e-05,1
65.75,6.4118e-05,1
65.751,8.1743e-05,1
65.751,7.9728e-05,1
65.752,5.388e-05,1
65.752,2.9877e-05,1
65.753,2.7359e-05,1
65.753,4.3305e-05,1
65.754,5.4383e-05,1
65.754,4.9348e-05,1
65.755,3.4577e-05,1
65.755,1.2589e-05,1
65.756,-9.5674e-06,1
65.756,-1.6953e-05,1
65.757,-1.8463e-06,1
65.757,1.9303e-05,1
65.758,3.1052e-05,1
65.758,2.8702e-05,1
65.759,2.6184e-05,1
65.76,3.122e-05,1
65.76,3.9445e-05,1
65.761,2.7527e-05,1
65.761,-6.5461e-06,1
65.762,-3.4409e-05,1
65.762,-5.2201e-05,1
65.763,-5.9586e-05,1
65.763,-6.2608e-05,1
65.764,-5.1362e-05,1
65.764,-2.4674e-05,1
65.765,5.0355e-07,1
65.765,2.031e-05,1
65.766,2.8367e-05,1
65.766,2.266e-05,1
65.767,7.8889e-06,1
65.767,-6.2104e-06,1
65.768,-8.7282e-06,1
65.768,-2.6856e-06,1
65.769,4.1962e-06,1
65.769,1.4939e-05,1
65.77,2.8534e-05,1
65.77,3.743e-05,1
65.771,3.8437e-05,1
65.771,3.0045e-05,1
65.772,2.031e-05,1
65.773,9.2317e-06,1
65.773,-9.9031e-06,1
65.774,-1.5946e-05,1
65.774,2.182e-06,1
65.775,4.3473e-05,1
65.775,9.1142e-05,1
65.776,0.00012001,1
65.776,0.00012605,1
65.777,0.00012001,1
65.777,0.00010457,1
65.778,9.0806e-05,1
65.778,8.3421e-05,1
65.779,7.3182e-05,1
65.779,4.2802e-05,1
65.78,-1.5442e-05,1
65.78,-7.3518e-05,1
65.781,-0.00010407,1
65.781,-0.00011313,1
65.782,-0.00012589,1
65.782,-0.00015677,1
65.783,-0.0001697,1
65.783,-0.0001326,1
65.784,-6.5461e-05,1
65.784,-3.1891e-06,1
65.785,3.9445e-05,1
65.785,5.9922e-05,1
65.786,6.4286e-05,1
65.787,6.3279e-05,1
65.787,5.2537e-05,1
65.788,2.7695e-05,1
65.788,1.4099e-05,1
65.789,2.8367e-05,1
65.789,5.3208e-05,1
65.79,7.2679e-05,1
65.79,8.5435e-05,1
65.791,8.8457e-05,1
65.791,8.8289e-05,1
65.792,8.9464e-05,1
65.792,9.6178e-05,1
65.793,0.00011397,1
65.793,0.00013193,1
65.794,0.00014318,1
65.794,0.00013931,1
65.795,0.00012001,1
65.795,9.2485e-05,1
65.796,6.6972e-05,1
65.796,4.448e-05,1
65.797,2.0478e-05,1
65.797,-3.0213e-06,1
65.798,-2.8199e-05,1
65.798,-4.7166e-05,1
65.799,-4.2466e-05,1
65.8,-2.4002e-05,1
65.8,-1.2924e-05,1
65.801,-1.2253e-05,1
65.801,-1.2589e-05,1
65.802,1.6785e-07,1
65.802,2.1317e-05,1
65.803,3.6423e-05,1
65.803,4.1794e-05,1
65.804,3.8102e-05,1
65.804,2.266e-05,1
65.805,-2.8534e-06,1
65.805,-2.7024e-05,1
65.806,-4.1123e-05,1
65.806,-4.0452e-05,1
65.807,-3.3066e-05,1
65.807,-4.1459e-05,1
65.808,-8.6778e-05,1
65.808,-0.00014318,1
65.809,-0.00015442,1
65.809,-0.00010961,1
65.81,-4.683e-05,1
65.81,-5.0355e-07,1
65.811,1.8631e-05,1
65.811,1.6449e-05,1
65.812,1.1078e-05,1
65.812,8.896e-06,1
65.813,2.6352e-05,1
65.814,6.9657e-05,1
65.814,0.00011464,1
65.815,0.00013411,1
65.815,0.00014032,1
65.816,0.0001556,1
65.816,0.0001707,1
65.817,0.00017053,1
65.817,0.00016751,1
65.818,0.00016768,1
65.818,0.00015392,1
65.819,0.00012018,1
65.819,8.3589e-05,1
65.82,5.623e-05,1
65.82,3.743e-05,1
65.821,1.7121e-05,1
65.821,-3.0213e-06,1
65.822,-1.4099e-05,1
65.822,-3.1556e-05,1
65.823,-5.388e-05,1
65.823,-5.153e-05,1
65.824,-3.2395e-05,1
65.824,-3.3906e-05,1
65.825,-5.774e-05,1
65.825,-6.6133e-05,1
65.826,-5.2873e-05,1
65.827,-4.3305e-05,1
65.827,-4.0452e-05,1
65.828,-2.6688e-05,1
65.828,-1.5106e-06,1
65.829,1.4267e-05,1
65.829,3.0213e-06,1
65.83,-2.5513e-05,1
65.83,-4.0116e-05,1
65.831,-3.0381e-05,1
65.831,-1.6953e-05,1
65.832,3.357e-07,1
65.832,3.1556e-05,1
65.833,5.6901e-05,1
65.833,5.304e-05,1
65.834,2.9374e-05,1
65.834,1.326e-05,1
65.835,1.5946e-05,1
65.835,2.3163e-05,1
65.836,2.4506e-05,1
65.836,2.6017e-05,1
65.837,2.9038e-05,1
65.837,3.6423e-05,1
65.838,4.5319e-05,1
65.838,3.9612e-05,1
65.839,2.6352e-05,1
65.84,2.3667e-05,1
65.84,2.501e-05,1
65.841,1.8967e-05,1
65.841,1.3764e-05,1
65.842,1.7792e-05,1
65.842,2.2324e-05,1
65.843,2.2995e-05,1
65.843,2.5345e-05,1
65.844,3.2059e-05,1
65.844,3.3906e-05,1
65.845,3.1388e-05,1
65.845,2.9709e-05,1
65.846,2.0981e-05,1
65.846,8.5603e-06,1
65.847,1.2253e-05,1
65.847,2.7024e-05,1
65.848,3.8437e-05,1
65.848,3.3402e-05,1
65.849,1.2253e-05,1
65.849,-1.0239e-05,1
65.85,-2.4842e-05,1
65.85,-2.6688e-05,1
65.851,-1.0742e-05,1
65.851,1.8463e-05,1
65.852,4.4144e-05,1
65.852,5.5726e-05,1
65.853,6.1936e-05,1
65.854,7.1504e-05,1
65.854,7.6707e-05,1
65.855,6.9657e-05,1
65.855,5.6565e-05,1
65.856,5.0858e-05,1
65.856,4.6494e-05,1
65.857,3.122e-05,1
65.857,1.6449e-05,1
65.858,1.4435e-05,1
65.858,2.1317e-05,1
65.859,3.4745e-05,1
65.859,4.5487e-05,1
65.86,4.8844e-05,1
65.86,4.9012e-05,1
65.861,5.069e-05,1
65.861,5.2873e-05,1
65.862,5.7572e-05,1
65.862,7.4022e-05,1
65.863,9.9199e-05,1
65.863,0.00011531,1
65.864,0.00011766,1
65.864,0.00011028,1
65.865,8.426e-05,1
65.865,3.8605e-05,1
65.866,-6.714e-07,1
65.867,-1.0575e-05,1
65.867,-2.3667e-05,1
65.868,-4.3641e-05,1
65.868,-5.2537e-05,1
65.869,-6.7308e-05,1
65.869,-9.9031e-05,1
65.87,-0.00012471,1
65.87,-0.00012639,1
65.871,-0.00010356,1
65.871,-7.1168e-05,1
65.872,-4.3809e-05,1
65.872,-2.4338e-05,1
65.873,-8.896e-06,1
65.873,4.5319e-06,1
65.874,1.8296e-05,1
65.874,1.8463e-05,1
65.875,-8.2246e-06,1
65.875,-3.6423e-05,1
65.876,-2.6352e-05,1
65.876,2.4002e-05,1
65.877,8.275e-05,1
65.877,0.00011296,1
65.878,0.00010793,1
65.878,8.5603e-05,1
65.879,5.4047e-05,1
65.879,2.2324e-05,1
65.88,1.6281e-05,1
65.881,4.5487e-05,1
65.881,7.6371e-05,1
65.882,8.1071e-05,1
65.882,6.3279e-05,1
65.883,4.9516e-05,1
65.883,3.4577e-05,1
65.884,9.9031e-06,1
65.884,-1.0407e-05,1
65.885,-2.6352e-05,1
65.885,-4.9851e-05,1
65.886,-7.4525e-05,1
65.886,-8.7282e-05,1
65.887,-8.426e-05,1
65.887,-7.4693e-05,1
65.888,-6.9993e-05,1
65.888,-6.4622e-05,1
65.889,-5.0355e-05,1
65.889,-3.2563e-05,1
65.89,-2.1988e-05,1
65.89,-1.8296e-05,1
65.891,-1.2253e-05,1
65.891,2.5177e-06,1
65.892,1.7288e-05,1
65.892,2.8534e-05,1
65.893,3.8773e-05,1
65.894,4.8173e-05,1
65.894,5.6062e-05,1
65.895,6.244e-05,1
65.895,7.3014e-05,1
65.896,8.3085e-05,1
65.896,9.5506e-05,1
65.897,0.0001091,1
65.897,0.00011397,1
65.898,0.00011061,1
65.898,0.00011028,1
65.899,0.00011649,1
65.899,0.00012874,1
65.9,0.00014066,1
65.9,0.00013814,1
65.901,0.00012068,1
65.901,9.4499e-05,1
65.902,6.4958e-05,1
65.902,2.8031e-05,1
65.903,-8.896e-06,1
65.903,-2.3331e-05,1
65.904,-7.8889e-06,1
65.904,1.4939e-05,1
65.905,2.501e-05,1
65.905,2.7359e-05,1
65.906,2.6352e-05,1
65.906,2.0478e-05,1
65.907,2.5177e-06,1
65.908,-3.508e-05,1
65.908,-9.7185e-05,1
65.909,-0.00016936,1
65.909,-0.000213,1
65.91,-0.00019857,1
65.91,-0.00013428,1
65.911,-5.3208e-05,1
65.911,1.4603e-05,1
65.912,5.6733e-05,1
65.912,8.3085e-05,1
65.913,0.0001086,1
65.913,0.00013445,1
65.914,0.00014754,1
65.914,0.00014351,1
65.915,0.00012102,1
65.915,9.2485e-05,1
65.916,7.8218e-05,1
65.916,7.6371e-05,1
65.917,6.3615e-05,1
65.917,3.8773e-05,1
65.918,7.5532e-06,1
65.918,-8.7282e-06,1
65.919,4.5319e-06,1
65.919,2.3667e-05,1
65.92,1.9974e-05,1
65.921,5.0355e-07,1
65.921,-1.5274e-05,1
65.922,-3.2395e-05,1
65.922,-5.3544e-05,1
65.923,-6.1769e-05,1
65.923,-5.4215e-05,1
65.924,-5.8244e-05,1
65.924,-8.5603e-05,1
65.925,-9.9535e-05,1
65.925,-6.8482e-05,1
65.926,-1.2253e-05,1
65.926,3.6759e-05,1
65.927,6.1265e-05,1
65.927,6.1265e-05,1
65.928,4.6326e-05,1
65.928,2.5681e-05,1
65.929,3.1891e-06,1
65.929,-1.2253e-05,1
65.93,-3.357e-06,1
65.93,2.501e-05,1
65.931,4.7333e-05,1
65.931,5.7908e-05,1
65.932,6.3615e-05,1
65.932,6.7308e-05,1
65.933,7.0329e-05,1
65.933,7.1504e-05,1
65.934,7.7546e-05,1
65.935,8.8121e-05,1
65.935,9.4163e-05,1
65.936,8.9799e-05,1
65.936,7.4693e-05,1
65.937,6.1601e-05,1
65.937,5.8244e-05,1
65.938,5.6397e-05,1
65.938,5.0355e-05,1
65.939,4.2298e-05,1
65.939,3.6423e-05,1
65.94,3.7095e-05,1
65.94,4.1459e-05,1
65.941,4.9851e-05,1
65.941,5.5894e-05,1
65.942,5.5222e-05,1
65.942,5.2873e-05,1
65.943,5.2705e-05,1
65.943,6.2104e-05,1
65.944,7.9728e-05,1
65.944,8.6778e-05,1
65.945,6.7475e-05,1
65.945,1.5946e-05,1
65.946,-2.8031e-05,1
65.946,-3.1724e-05,1
65.947,0,1
65.948,4.448e-05,1
65.948,7.6036e-05,1
65.949,8.2078e-05,1
65.949,6.4958e-05,1
65.95,2.4674e-05,1
65.95,-3.4745e-05,1
65.951,-9.5506e-05,1
65.951,-0.00013931,1
65.952,-0.00015895,1
65.952,-0.00016063,1
65.953,-0.0001566,1
65.953,-0.00014704,1
65.954,-0.00012723,1
65.954,-9.8863e-05,1
65.955,-6.9657e-05,1
65.955,-5.0187e-05,1
65.956,-3.6423e-05,1
65.956,-2.2324e-05,1
65.957,-1.2253e-05,1
65.957,-3.8605e-06,1
65.958,8.2246e-06,1
65.958,2.3331e-05,1
65.959,4.3641e-05,1
65.959,6.3951e-05,1
65.96,7.5029e-05,1
65.96,8.3085e-05,1
65.961,9.5506e-05,1
65.962,0.00010826,1
65.962,0.00012203,1
65.963,0.00013948,1
65.963,0.00015006,1
65.964,0.0001519,1
65.964,0.00014888,1
65.965,0.0001425,1
65.965,0.00013445,1
65.966,0.00012136,1
65.966,0.00010054,1
65.967,8.2246e-05,1
65.967,7.0329e-05,1
65.968,5.7572e-05,1
65.968,2.8534e-05,1
65.969,-2.1485e-05,1
65.969,-7.6707e-05,1
65.97,-0.0001133,1
65.97,-0.00012639,1
65.971,-0.00011968,1
65.971,-0.00010037,1
65.972,-8.5771e-05,1
65.972,-7.8218e-05,1
65.973,-7.2007e-05,1
65.973,-6.7308e-05,1
65.974,-6.1265e-05,1
65.975,-5.2873e-05,1
65.975,-4.3473e-05,1
65.976,-2.6352e-05,1
65.976,-1.5274e-05,1
65.977,-2.6017e-05,1
65.977,-3.1052e-05,1
65.978,-1.1749e-05,1
65.978,1.0575e-05,1
65.979,2.6017e-05,1
65.979,4.5319e-05,1
65.98,7.2679e-05,1
65.98,0.00011061,1
65.981,0.00015106,1
65.981,0.00017238,1
65.982,0.00016667,1
65.982,0.00014015,1
65.983,0.00010256,1
65.983,7.0329e-05,1
65.984,4.8173e-05,1
65.984,2.182e-05,1
65.985,-2.1653e-05,1
65.985,-4.9683e-05,1
65.986,-2.4338e-05,1
65.986,3.2059e-05,1
65.987,6.4958e-05,1
65.987,5.4047e-05,1
65.988,3.0045e-05,1
65.989,1.9974e-05,1
65.989,1.0407e-05,1
65.99,-8.2246e-06,1
65.99,-2.0981e-05,1
65.991,-1.091e-05,1
65.991,1.8631e-05,1
65.992,4.2802e-05,1
65.992,5.4215e-05,1
65.993,5.9586e-05,1
65.993,6.4286e-05,1
65.994,7.0329e-05,1
65.994,6.63e-05,1
65.995,5.6733e-05,1
65.995,4.918e-05,1
65.996,4.2298e-05,1
65.996,4.0787e-05,1
65.997,5.3544e-05,1
65.997,7.0832e-05,1
65.998,6.5965e-05,1
65.998,4.448e-05,1
65.999,3.9948e-05,1
65.999,4.8173e-05,1
66,2.6688e-05,1
66,-2.652e-05,1
66.001,-5.6062e-05,1
66.001,-3.9445e-05,1
66.002,-1.2253e-05,1
66.003,-7.5532e-06,1
66.003,-1.3092e-05,1
66.004,-1.4435e-05,1
66.004,-9.5674e-06,1
66.005,-6.0426e-06,1
66.005,-1.1582e-05,1
66.006,-1.1582e-05,1
66.006,-8.7282e-06,1
66.007,-1.2924e-05,1
66.007,-1.7792e-05,1
66.008,-1.4435e-05,1
66.008,-5.3712e-06,1
66.009,5.2033e-06,1
66.009,1.1246e-05,1
66.01,1.561e-05,1
66.01,2.031e-05,1
66.011,2.4002e-05,1
66.011,2.6688e-05,1
66.012,2.6688e-05,1
66.012,2.1317e-05,1
66.013,1.6617e-05,1
66.013,1.9638e-05,1
66.014,2.6352e-05,1
66.014,2.8702e-05,1
66.015,3.592e-05,1
66.016,5.0187e-05,1
66.016,5.9922e-05,1
66.017,5.2873e-05,1
66.017,3.2563e-05,1
66.018,1.4603e-05,1
66.018,7.8889e-06,1
66.019,8.896e-06,1
66.019,1.0071e-05,1
66.02,1.1414e-05,1
66.02,1.5778e-05,1
66.021,2.8031e-05,1
66.021,3.1388e-05,1
66.022,1.9974e-05,1
66.022,1.5946e-05,1
66.023,2.182e-05,1
66.023,2.4674e-05,1
66.024,3.2731e-05,1
66.024,5.4215e-05,1
66.025,7.5532e-05,1
66.025,8.0064e-05,1
66.026,7.2847e-05,1
66.026,7.3014e-05,1
66.027,8.7617e-05,1
66.027,0.00010574,1
66.028,0.00010591,1
66.028,8.3589e-05,1
66.029,5.304e-05,1
66.03,2.5849e-05,1
66.03,3.357e-07,1
66.031,-2.8534e-05,1
66.031,-4.5823e-05,1
66.032,-4.4816e-05,1
66.032,-3.9612e-05,1
66.033,-3.508e-05,1
66.033,-2.7359e-05,1
66.034,-2.266e-05,1
66.034,-2.0981e-05,1
66.035,-2.031e-05,1
