244.48,5.4551e-05,0
244.48,5.7069e-05,0
244.48,5.1362e-05,0
244.48,4.5487e-05,0
244.48,3.6423e-05,0
244.48,1.1917e-05,0
244.48,-1.2924e-05,0
244.48,-1.4267e-05,0
244.48,-2.5177e-06,0
244.48,5.539e-06,0
244.48,1.091e-05,0
244.48,1.7792e-05,0
244.48,2.8031e-05,0
244.48,3.5584e-05,0
244.48,3.8102e-05,0
244.48,4.0452e-05,0
244.48,4.9516e-05,0
244.48,5.9586e-05,0
244.48,5.8579e-05,0
244.49,5.2705e-05,0
244.49,5.0019e-05,0
244.49,3.978e-05,0
244.49,2.9038e-05,0
244.49,3.0549e-05,0
244.49,2.9709e-05,0
244.49,1.2589e-05,0
244.49,-1.1246e-05,0
244.49,-2.6184e-05,0
244.49,-3.1388e-05,0
244.49,-1.6617e-05,0
244.49,2.0645e-05,0
244.49,4.4144e-05,0
244.49,3.1556e-05,0
244.49,-1.0071e-06,0
244.49,-2.6184e-05,0
244.49,-2.1653e-05,0
244.49,7.7211e-06,0
244.49,3.6423e-05,0
244.49,5.0523e-05,0
244.5,5.0523e-05,0
244.5,4.2802e-05,0
244.5,3.4577e-05,0
244.5,2.8367e-05,0
244.5,3.2059e-05,0
244.5,4.062e-05,0
244.5,4.2634e-05,0
244.5,3.743e-05,0
244.5,3.2395e-05,0
244.5,2.7192e-05,0
244.5,1.7288e-05,0
244.5,9.7353e-06,0
244.5,1.4435e-05,0
244.5,2.3667e-05,0
244.5,2.3499e-05,0
244.5,1.5442e-05,0
244.5,4.8676e-06,0
244.5,-5.0355e-07,0
244.5,1.5106e-06,0
244.51,5.2033e-06,0
244.51,8.2246e-06,0
244.51,1.2589e-05,0
244.51,2.031e-05,0
244.51,3.0045e-05,0
244.51,3.6423e-05,0
244.51,3.2059e-05,0
244.51,1.7121e-05,0
244.51,9.3996e-06,0
244.51,1.2589e-05,0
244.51,1.6617e-05,0
244.51,1.3931e-05,0
244.51,3.1891e-06,0
244.51,-8.3925e-07,0
244.51,1.326e-05,0
244.51,3.1556e-05,0
244.51,3.2227e-05,0
244.51,1.0071e-05,0
244.51,-8.5603e-06,0
244.52,-7.5532e-06,0
244.52,-2.6856e-06,0
244.52,-8.896e-06,0
244.52,-1.8631e-05,0
244.52,-8.2246e-06,0
244.52,1.6617e-05,0
244.52,3.0045e-05,0
244.52,2.4506e-05,0
244.52,1.1582e-05,0
244.52,4.3641e-06,0
244.52,1.1246e-05,0
244.52,2.501e-05,0
244.52,3.0716e-05,0
244.52,2.3667e-05,0
244.52,1.5274e-05,0
244.52,1.4603e-05,0
244.52,1.7288e-05,0
244.52,1.9806e-05,0
244.52,2.266e-05,0
244.53,2.3835e-05,0
244.53,1.7288e-05,0
244.53,6.714e-06,0
244.53,5.2033e-06,0
244.53,9.2317e-06,0
244.53,1.1749e-05,0
244.53,5.2033e-06,0
244.53,-1.9806e-05,0
244.53,-4.1459e-05,0
244.53,-2.2492e-05,0
244.53,2.6352e-05,0
244.53,6.4118e-05,0
244.53,7.57e-05,0
244.53,7.2007e-05,0
244.53,6.244e-05,0
244.53,4.9348e-05,0
244.53,3.6255e-05,0
244.53,3.2059e-05,0
244.53,3.4073e-05,0
244.53,3.8102e-05,0
244.54,4.2802e-05,0
244.54,4.683e-05,0
244.54,4.683e-05,0
244.54,4.1123e-05,0
244.54,3.6591e-05,0
244.54,3.743e-05,0
244.54,3.5416e-05,0
244.54,2.6688e-05,0
244.54,2.3499e-05,0
244.54,3.0045e-05,0
244.54,3.9445e-05,0
244.54,4.448e-05,0
244.54,4.1627e-05,0
244.54,3.3402e-05,0
244.54,1.6449e-05,0
244.54,-1.7288e-05,0
244.54,-4.7333e-05,0
244.54,-4.8341e-05,0
244.54,-2.7024e-05,0
244.55,-6.2104e-06,0
244.55,2.6856e-06,0
244.55,7.5532e-06,0
244.55,1.5778e-05,0
244.55,2.5681e-05,0
244.55,2.9038e-05,0
244.55,2.5177e-05,0
244.55,1.9303e-05,0
244.55,1.9303e-05,0
244.55,2.501e-05,0
244.55,3.0381e-05,0
244.55,3.8437e-05,0
244.55,5.0523e-05,0
244.55,5.8915e-05,0
244.55,5.8915e-05,0
244.55,5.0858e-05,0
244.55,3.7766e-05,0
244.55,1.561e-05,0
244.55,-9.7353e-06,0
244.56,-1.5946e-05,0
244.56,-6.5461e-06,0
244.56,1.1414e-05,0
244.56,3.5416e-05,0
244.56,5.6062e-05,0
244.56,6.1097e-05,0
244.56,4.683e-05,0
244.56,2.8031e-05,0
244.56,1.9638e-05,0
244.56,1.7792e-05,0
244.56,6.5461e-06,0
244.56,-1.0575e-05,0
244.56,-1.5778e-05,0
244.56,-6.5461e-06,0
244.56,1.8463e-06,0
244.56,3.1891e-06,0
244.56,1.5106e-06,0
244.56,3.8605e-06,0
244.56,1.6617e-05,0
244.56,3.3738e-05,0
244.57,4.062e-05,0
244.57,3.3738e-05,0
244.57,2.4002e-05,0
244.57,1.9303e-05,0
244.57,1.6281e-05,0
244.57,1.6785e-05,0
244.57,2.417e-05,0
244.57,2.8031e-05,0
244.57,2.6017e-05,0
244.57,1.2253e-05,0
244.57,-1.5946e-05,0
244.57,-3.3402e-05,0
244.57,-1.9974e-05,0
244.57,8.896e-06,0
244.57,3.2059e-05,0
244.57,4.4648e-05,0
244.57,5.0858e-05,0
244.57,5.623e-05,0
244.57,6.2272e-05,0
244.58,6.8315e-05,0
244.58,7.1336e-05,0
244.58,6.6972e-05,0
244.58,4.2802e-05,0
244.58,-8.7282e-06,0
244.58,-5.9922e-05,0
244.58,-8.8457e-05,0
244.58,-9.0303e-05,0
244.58,-5.6733e-05,0
244.58,4.5319e-06,0
244.58,5.6901e-05,0
244.58,7.3518e-05,0
244.58,6.2104e-05,0
244.58,4.0452e-05,0
244.58,2.1988e-05,0
244.58,1.5946e-05,0
244.58,2.1149e-05,0
244.58,2.6688e-05,0
244.58,2.501e-05,0
244.59,1.7456e-05,0
244.59,1.2589e-05,0
244.59,1.4267e-05,0
244.59,2.0813e-05,0
244.59,2.7863e-05,0
244.59,3.2059e-05,0
244.59,3.6088e-05,0
244.59,3.7934e-05,0
244.59,3.3906e-05,0
244.59,2.6017e-05,0
244.59,2.1317e-05,0
244.59,1.6953e-05,0
244.59,5.8747e-06,0
244.59,-4.1962e-06,0
244.59,-1.0071e-06,0
244.59,5.2033e-06,0
244.59,1.0407e-05,0
244.59,2.3835e-05,0
244.59,4.1123e-05,0
244.6,5.4215e-05,0
244.6,6.1936e-05,0
244.6,6.6133e-05,0
244.6,6.5965e-05,0
244.6,6.0594e-05,0
244.6,5.6901e-05,0
244.6,5.3376e-05,0
244.6,4.0787e-05,0
244.6,1.9806e-05,0
244.6,5.2033e-06,0
244.6,8.7282e-06,0
244.6,1.9638e-05,0
244.6,2.9877e-05,0
244.6,3.6759e-05,0
244.6,3.9277e-05,0
244.6,3.0716e-05,0
244.6,9.5674e-06,0
244.6,-1.1749e-05,0
244.6,-2.4506e-05,0
244.6,-2.8031e-05,0
244.61,-2.5681e-05,0
244.61,-1.7288e-05,0
244.61,-1.0575e-05,0
244.61,-1.4267e-05,0
244.61,-2.5681e-05,0
244.61,-3.3906e-05,0
244.61,-3.1891e-05,0
244.61,-1.4939e-05,0
244.61,7.0497e-06,0
244.61,1.9974e-05,0
244.61,2.417e-05,0
244.61,2.5345e-05,0
244.61,2.5345e-05,0
244.61,2.6688e-05,0
244.61,2.3667e-05,0
244.61,1.7792e-05,0
244.61,1.7624e-05,0
244.61,2.0981e-05,0
244.61,2.266e-05,0
244.62,2.4338e-05,0
244.62,2.7359e-05,0
244.62,3.0549e-05,0
244.62,3.2395e-05,0
244.62,3.4745e-05,0
244.62,3.8437e-05,0
244.62,3.978e-05,0
244.62,3.743e-05,0
244.62,3.2563e-05,0
244.62,2.4506e-05,0
244.62,1.326e-05,0
244.62,-1.2253e-05,0
244.62,-3.827e-05,0
244.62,-3.1724e-05,0
244.62,4.8676e-06,0
244.62,3.7766e-05,0
244.62,5.2537e-05,0
244.62,5.4551e-05,0
244.62,5.4215e-05,0
244.63,5.4383e-05,0
244.63,5.388e-05,0
244.63,5.1194e-05,0
244.63,4.7837e-05,0
244.63,4.5823e-05,0
244.63,4.1627e-05,0
244.63,3.978e-05,0
244.63,4.4144e-05,0
244.63,4.7166e-05,0
244.63,4.4816e-05,0
244.63,3.7263e-05,0
244.63,1.9303e-05,0
244.63,-4.6998e-06,0
244.63,-2.3667e-05,0
244.63,-2.9709e-05,0
244.63,-1.796e-05,0
244.63,7.3854e-06,0
244.63,2.8702e-05,0
244.63,3.2059e-05,0
244.64,2.4002e-05,0
244.64,1.3428e-05,0
244.64,4.0284e-06,0
244.64,4.5319e-06,0
244.64,1.9471e-05,0
244.64,3.5416e-05,0
244.64,3.6927e-05,0
244.64,2.4674e-05,0
244.64,7.2175e-06,0
244.64,8.3925e-07,0
244.64,1.3092e-05,0
244.64,3.0716e-05,0
244.64,3.508e-05,0
244.64,3.1388e-05,0
244.64,3.122e-05,0
244.64,3.3738e-05,0
244.64,3.2898e-05,0
244.64,2.9709e-05,0
244.64,2.5681e-05,0
244.64,2.1988e-05,0
244.65,1.9303e-05,0
244.65,1.8296e-05,0
244.65,1.7288e-05,0
244.65,1.7792e-05,0
244.65,2.2492e-05,0
244.65,2.501e-05,0
244.65,2.2324e-05,0
244.65,1.5106e-05,0
244.65,7.3854e-06,0
244.65,6.8818e-06,0
244.65,9.9031e-06,0
244.65,8.3925e-06,0
244.65,7.8889e-06,0
244.65,1.4603e-05,0
244.65,2.5345e-05,0
244.65,3.3738e-05,0
244.65,4.1627e-05,0
244.65,5.3544e-05,0
244.65,6.4958e-05,0
244.66,7.4022e-05,0
244.66,7.7714e-05,0
244.66,6.1936e-05,0
244.66,1.8463e-05,0
244.66,-2.887e-05,0
244.66,-6.4622e-05,0
244.66,-8.0735e-05,0
244.66,-6.3279e-05,0
244.66,-1.6617e-05,0
244.66,1.8967e-05,0
244.66,3.0045e-05,0
244.66,3.6255e-05,0
244.66,4.6159e-05,0
244.66,5.0523e-05,0
244.66,4.1794e-05,0
244.66,2.5681e-05,0
244.66,1.5274e-05,0
244.66,1.8463e-05,0
244.66,2.652e-05,0
244.67,3.0716e-05,0
244.67,3.2395e-05,0
244.67,3.3906e-05,0
244.67,3.5248e-05,0
244.67,3.592e-05,0
244.67,3.3906e-05,0
244.67,3.1052e-05,0
244.67,3.2731e-05,0
244.67,3.5248e-05,0
244.67,3.5752e-05,0
244.67,2.6688e-05,0
244.67,1.0575e-05,0
244.67,-4.1962e-06,0
244.67,-7.8889e-06,0
244.67,3.5248e-06,0
244.67,2.1317e-05,0
244.67,4.1962e-05,0
244.67,5.8915e-05,0
244.67,5.6565e-05,0
244.68,3.0045e-05,0
244.68,-5.0355e-06,0
244.68,-2.5849e-05,0
244.68,-3.1052e-05,0
244.68,-3.1388e-05,0
244.68,-2.887e-05,0
244.68,-1.9806e-05,0
244.68,-6.8818e-06,0
244.68,7.8889e-06,0
244.68,2.5177e-05,0
244.68,3.5248e-05,0
244.68,3.6759e-05,0
244.68,3.6759e-05,0
244.68,3.9277e-05,0
244.68,4.1794e-05,0
244.68,4.0787e-05,0
244.68,3.5248e-05,0
244.68,2.5345e-05,0
244.68,1.796e-05,0
244.68,1.3931e-05,0
244.69,4.8676e-06,0
244.69,-6.8818e-06,0
244.69,-1.6785e-05,0
244.69,-1.8128e-05,0
244.69,-1.0575e-05,0
244.69,-2.8534e-06,0
244.69,4.5319e-06,0
244.69,1.1749e-05,0
244.69,1.4771e-05,0
244.69,1.561e-05,0
244.69,1.5778e-05,0
244.69,1.9303e-05,0
244.69,2.9374e-05,0
244.69,3.827e-05,0
244.69,4.213e-05,0
244.69,3.7263e-05,0
244.69,2.4674e-05,0
244.69,1.3428e-05,0
244.69,2.5177e-06,0
244.7,-1.091e-05,0
244.7,-1.4939e-05,0
244.7,-2.182e-06,0
244.7,2.7024e-05,0
244.7,5.4887e-05,0
244.7,6.4958e-05,0
244.7,6.0594e-05,0
244.7,4.8173e-05,0
244.7,3.2563e-05,0
244.7,2.1988e-05,0
244.7,1.8296e-05,0
244.7,1.4435e-05,0
244.7,1.0575e-05,0
244.7,1.5778e-05,0
244.7,2.5849e-05,0
244.7,3.0381e-05,0
244.7,2.5681e-05,0
244.7,2.0645e-05,0
244.7,2.6184e-05,0
244.71,3.4409e-05,0
244.71,3.0884e-05,0
244.71,1.796e-05,0
244.71,9.9031e-06,0
244.71,1.4771e-05,0
244.71,1.3092e-05,0
244.71,-6.8818e-06,0
244.71,-2.1485e-05,0
244.71,-9.5674e-06,0
244.71,1.2924e-05,0
244.71,2.1988e-05,0
244.71,2.0981e-05,0
244.71,2.1317e-05,0
244.71,3.0716e-05,0
244.71,3.9277e-05,0
244.71,4.0116e-05,0
244.71,3.8102e-05,0
244.71,3.5416e-05,0
244.71,3.4577e-05,0
244.72,4.1459e-05,0
244.72,5.3544e-05,0
244.72,6.0594e-05,0
244.72,5.9419e-05,0
244.72,5.2201e-05,0
244.72,3.4073e-05,0
244.72,1.0407e-05,0
244.72,-1.2589e-05,0
244.72,-2.2324e-05,0
244.72,-8.896e-06,0
244.72,1.7288e-05,0
244.72,3.6088e-05,0
244.72,3.4745e-05,0
244.72,2.031e-05,0
244.72,1.2085e-05,0
244.72,1.1749e-05,0
244.72,1.1917e-05,0
244.72,1.1917e-05,0
244.72,1.0575e-05,0
244.72,1.4435e-05,0
244.73,3.0045e-05,0
244.73,4.5823e-05,0
244.73,5.0858e-05,0
244.73,4.918e-05,0
244.73,4.448e-05,0
244.73,3.4745e-05,0
244.73,2.0478e-05,0
244.73,9.3996e-06,0
244.73,9.9031e-06,0
244.73,1.9471e-05,0
244.73,2.7359e-05,0
244.73,1.9303e-05,0
244.73,5.2033e-06,0
244.73,8.0568e-06,0
244.73,1.9974e-05,0
244.73,1.7288e-05,0
244.73,1.8463e-06,0
244.73,-4.6998e-06,0
244.73,-2.8534e-06,0
244.74,1.3428e-06,0
244.74,6.5461e-06,0
244.74,9.9031e-06,0
244.74,1.0575e-05,0
244.74,6.5461e-06,0
244.74,-2.0142e-06,0
244.74,-9.2317e-06,0
244.74,-9.2317e-06,0
244.74,3.357e-06,0
244.74,2.2492e-05,0
244.74,3.7095e-05,0
244.74,4.2466e-05,0
244.74,4.1962e-05,0
244.74,3.743e-05,0
244.74,3.0213e-05,0
244.74,2.6017e-05,0
244.74,2.9374e-05,0
244.74,3.4745e-05,0
244.74,3.743e-05,0
244.75,3.978e-05,0
244.75,4.2802e-05,0
244.75,4.2802e-05,0
244.75,3.9445e-05,0
244.75,3.1388e-05,0
244.75,1.3092e-05,0
244.75,-5.0355e-06,0
244.75,-1.5106e-05,0
244.75,-2.0142e-05,0
244.75,-2.3667e-05,0
244.75,-2.9038e-05,0
244.75,-2.4002e-05,0
244.75,-1.8463e-06,0
244.75,1.8128e-05,0
244.75,2.1988e-05,0
244.75,2.0981e-05,0
244.75,2.0645e-05,0
244.75,1.4939e-05,0
244.75,7.5532e-06,0
244.75,4.5319e-06,0
244.76,5.539e-06,0
244.76,8.5603e-06,0
244.76,1.1582e-05,0
244.76,1.2421e-05,0
244.76,1.2421e-05,0
244.76,1.2589e-05,0
244.76,1.326e-05,0
244.76,1.4939e-05,0
244.76,1.9638e-05,0
244.76,2.652e-05,0
244.76,3.3738e-05,0
244.76,3.9109e-05,0
244.76,3.8437e-05,0
244.76,3.2059e-05,0
244.76,2.0645e-05,0
244.76,1.2589e-05,0
244.76,1.6281e-05,0
244.76,1.4939e-05,0
244.76,1.1749e-06,0
244.77,-1.6785e-06,0
244.77,1.4603e-05,0
244.77,2.9038e-05,0
244.77,2.8702e-05,0
244.77,2.182e-05,0
244.77,1.5274e-05,0
244.77,1.0575e-05,0
244.77,9.5674e-06,0
244.77,1.2253e-05,0
244.77,1.6617e-05,0
244.77,2.5345e-05,0
244.77,3.7095e-05,0
244.77,4.4144e-05,0
244.77,4.3305e-05,0
244.77,3.743e-05,0
244.77,3.4241e-05,0
244.77,3.4745e-05,0
244.77,3.9612e-05,0
244.77,4.3809e-05,0
244.78,4.5487e-05,0
244.78,4.3473e-05,0
244.78,3.8773e-05,0
244.78,3.3402e-05,0
244.78,2.9877e-05,0
244.78,3.0213e-05,0
244.78,2.7024e-05,0
244.78,1.8967e-05,0
244.78,1.2589e-05,0
244.78,3.1891e-06,0
244.78,-7.8889e-06,0
244.78,-8.5603e-06,0
244.78,3.8605e-06,0
244.78,2.1653e-05,0
244.78,3.2563e-05,0
244.78,3.2563e-05,0
244.78,2.8367e-05,0
244.78,2.1988e-05,0
244.78,1.2589e-05,0
244.79,9.5674e-06,0
244.79,9.9031e-06,0
244.79,1.0575e-05,0
244.79,1.4435e-05,0
244.79,1.8967e-05,0
244.79,2.5345e-05,0
244.79,2.6688e-05,0
244.79,2.3835e-05,0
244.79,2.1149e-05,0
244.79,2.266e-05,0
244.79,3.0716e-05,0
244.79,4.0787e-05,0
244.79,4.8173e-05,0
244.79,5.2201e-05,0
244.79,5.7237e-05,0
244.79,6.2776e-05,0
244.79,6.0929e-05,0
244.79,5.5222e-05,0
244.79,5.3376e-05,0
244.79,4.4144e-05,0
244.8,1.5274e-05,0
244.8,-2.7024e-05,0
244.8,-6.3951e-05,0
244.8,-6.0761e-05,0
244.8,-1.6449e-05,0
244.8,2.8702e-05,0
244.8,4.3977e-05,0
244.8,3.978e-05,0
244.8,3.7263e-05,0
244.8,4.1123e-05,0
244.8,4.683e-05,0
244.8,5.304e-05,0
244.8,5.6397e-05,0
244.8,5.6733e-05,0
244.8,5.0523e-05,0
244.8,3.1724e-05,0
244.8,4.3641e-06,0
244.8,-1.9135e-05,0
244.8,-3.0716e-05,0
244.81,-3.2395e-05,0
244.81,-2.9541e-05,0
244.81,-2.5345e-05,0
244.81,-1.4267e-05,0
244.81,3.8605e-06,0
244.81,1.4267e-05,0
244.81,1.2253e-05,0
244.81,1.2589e-05,0
244.81,2.1653e-05,0
244.81,3.0716e-05,0
244.81,3.122e-05,0
244.81,2.5345e-05,0
244.81,2.2324e-05,0
244.81,2.4002e-05,0
244.81,2.6017e-05,0
244.81,2.6352e-05,0
244.81,2.7359e-05,0
244.81,2.5345e-05,0
244.81,1.9135e-05,0
244.82,1.9303e-05,0
244.82,3.4745e-05,0
244.82,5.6733e-05,0
244.82,6.949e-05,0
244.82,6.6972e-05,0
244.82,5.6062e-05,0
244.82,4.0452e-05,0
244.82,1.5274e-05,0
244.82,-1.1917e-05,0
244.82,-1.8967e-05,0
244.82,-7.2175e-06,0
244.82,1.5106e-06,0
244.82,1.6785e-06,0
244.82,2.182e-06,0
244.82,5.7069e-06,0
244.82,6.5461e-06,0
244.82,1.8463e-06,0
244.82,-2.8534e-06,0
244.82,1.6785e-07,0
244.83,5.3712e-06,0
244.83,7.8889e-06,0
244.83,1.0575e-05,0
244.83,1.5442e-05,0
244.83,2.4002e-05,0
244.83,3.1388e-05,0
244.83,2.8367e-05,0
244.83,1.9974e-05,0
244.83,2.0981e-05,0
244.83,2.9374e-05,0
244.83,3.5248e-05,0
244.83,4.0787e-05,0
244.83,4.213e-05,0
244.83,3.508e-05,0
244.83,2.1988e-05,0
244.83,7.8889e-06,0
244.83,5.0355e-06,0
244.83,1.5778e-05,0
244.83,2.8534e-05,0
244.84,3.6088e-05,0
244.84,3.6255e-05,0
244.84,3.2731e-05,0
244.84,2.7192e-05,0
244.84,2.0645e-05,0
244.84,1.6617e-05,0
244.84,1.9638e-05,0
244.84,2.5513e-05,0
244.84,2.7695e-05,0
244.84,2.7359e-05,0
244.84,2.266e-05,0
244.84,1.2085e-05,0
244.84,-5.7069e-06,0
244.84,-3.1556e-05,0
244.84,-4.7837e-05,0
244.84,-3.122e-05,0
244.84,-2.0142e-06,0
244.84,1.0071e-05,0
244.84,7.3854e-06,0
244.84,5.2033e-06,0
244.85,8.5603e-06,0
244.85,9.0639e-06,0
244.85,2.182e-06,0
244.85,-1.1749e-06,0
244.85,1.091e-05,0
244.85,2.7359e-05,0
244.85,3.7095e-05,0
244.85,4.5151e-05,0
244.85,5.9251e-05,0
244.85,7.4022e-05,0
244.85,8.0735e-05,0
244.85,7.8218e-05,0
244.85,6.6972e-05,0
244.85,4.683e-05,0
244.85,5.2033e-06,0
244.85,-4.4816e-05,0
244.85,-6.2104e-05,0
244.85,-4.1459e-05,0
244.85,-1.561e-05,0
244.86,-5.7069e-06,0
244.86,-5.539e-06,0
244.86,4.5319e-06,0
244.86,2.6688e-05,0
244.86,3.9612e-05,0
244.86,3.5416e-05,0
244.86,2.0981e-05,0
244.86,8.5603e-06,0
244.86,1.1582e-05,0
244.86,3.3402e-05,0
244.86,5.8579e-05,0
244.86,7.2679e-05,0
244.86,7.6036e-05,0
244.86,7.5029e-05,0
244.86,6.9322e-05,0
244.86,5.6565e-05,0
244.86,4.0955e-05,0
244.86,3.0045e-05,0
244.86,2.1317e-05,0
244.87,-1.6785e-07,0
244.87,-3.8773e-05,0
244.87,-6.1601e-05,0
244.87,-3.8437e-05,0
244.87,1.3596e-05,0
244.87,5.3208e-05,0
244.87,6.1601e-05,0
244.87,4.0116e-05,0
244.87,-1.5106e-06,0
244.87,-4.213e-05,0
244.87,-5.4551e-05,0
244.87,-3.2395e-05,0
244.87,-4.1962e-06,0
244.87,8.5603e-06,0
244.87,1.561e-05,0
244.87,2.8031e-05,0
244.87,4.0955e-05,0
244.87,5.0187e-05,0
244.87,5.6901e-05,0
244.87,5.9586e-05,0
244.88,5.3544e-05,0
244.88,3.4241e-05,0
244.88,3.5248e-06,0
244.88,-1.3092e-05,0
244.88,0,0
244.88,2.1988e-05,0
244.88,3.2898e-05,0
244.88,3.5416e-05,0
244.88,3.6255e-05,0
244.88,3.7263e-05,0
244.88,4.062e-05,0
244.88,4.8173e-05,0
244.88,4.9348e-05,0
244.88,4.3137e-05,0
244.88,3.8102e-05,0
244.88,3.3738e-05,0
244.88,2.4002e-05,0
244.88,8.896e-06,0
244.88,-4.8676e-06,0
244.89,-4.5319e-06,0
244.89,9.2317e-06,0
244.89,2.4674e-05,0
244.89,3.2731e-05,0
244.89,3.2395e-05,0
244.89,3.2059e-05,0
244.89,3.5752e-05,0
244.89,4.0955e-05,0
244.89,4.2802e-05,0
244.89,3.6088e-05,0
244.89,2.8702e-05,0
244.89,2.6352e-05,0
244.89,2.0645e-05,0
244.89,1.2589e-05,0
244.89,1.3931e-05,0
244.89,2.1653e-05,0
244.89,2.3499e-05,0
244.89,1.9303e-05,0
244.89,1.5274e-05,0
244.9,1.561e-05,0
244.9,2.8367e-05,0
244.9,4.7837e-05,0
244.9,6.0258e-05,0
244.9,6.6972e-05,0
244.9,7.0161e-05,0
244.9,6.1601e-05,0
244.9,3.3738e-05,0
244.9,-2.182e-06,0
244.9,-1.5442e-05,0
244.9,1.0071e-06,0
244.9,1.7792e-05,0
244.9,1.9806e-05,0
244.9,2.0813e-05,0
244.9,2.8199e-05,0
244.9,3.7934e-05,0
244.9,4.5487e-05,0
244.9,4.8508e-05,0
244.9,4.448e-05,0
244.91,3.2059e-05,0
244.91,7.5532e-06,0
244.91,-2.2995e-05,0
244.91,-4.2466e-05,0
244.91,-3.7263e-05,0
244.91,-1.796e-05,0
244.91,-1.0407e-05,0
244.91,-1.561e-05,0
244.91,-1.6281e-05,0
244.91,-5.2033e-06,0
244.91,6.8818e-06,0
244.91,5.3712e-06,0
244.91,-1.7624e-05,0
244.91,-4.5823e-05,0
244.91,-5.1865e-05,0
244.91,-2.6688e-05,0
244.91,1.091e-05,0
244.91,3.4577e-05,0
244.91,4.2802e-05,0
244.91,4.3809e-05,0
244.92,3.978e-05,0
244.92,3.6088e-05,0
244.92,3.508e-05,0
244.92,3.827e-05,0
244.92,4.3137e-05,0
244.92,4.4816e-05,0
244.92,4.7333e-05,0
244.92,5.1194e-05,0
244.92,5.2873e-05,0
244.92,5.1865e-05,0
244.92,4.9348e-05,0
244.92,4.3641e-05,0
244.92,3.2059e-05,0
244.92,1.4603e-05,0
244.92,-2.5177e-06,0
244.92,-4.8676e-06,0
244.92,6.5461e-06,0
244.92,2.0645e-05,0
244.92,2.7192e-05,0
244.93,2.8367e-05,0
244.93,3.1052e-05,0
244.93,3.4745e-05,0
244.93,3.743e-05,0
244.93,3.7934e-05,0
244.93,2.8534e-05,0
244.93,1.4603e-05,0
244.93,1.2589e-05,0
244.93,1.6114e-05,0
244.93,1.1582e-05,0
244.93,5.7069e-06,0
244.93,1.2421e-05,0
244.93,3.0045e-05,0
244.93,4.213e-05,0
244.93,4.213e-05,0
244.93,3.8773e-05,0
244.93,3.9109e-05,0
244.93,3.1891e-05,0
244.93,9.5674e-06,0
244.94,-2.031e-05,0
244.94,-4.5151e-05,0
244.94,-5.6565e-05,0
244.94,-4.9012e-05,0
244.94,-3.1052e-05,0
244.94,-1.7624e-05,0
244.94,-1.5946e-05,0
244.94,-1.6953e-05,0
244.94,-1.0239e-05,0
244.94,6.2104e-06,0
244.94,2.3163e-05,0
244.94,2.652e-05,0
244.94,1.7624e-05,0
244.94,3.8605e-06,0
244.94,-7.7211e-06,0
244.94,-6.5461e-06,0
244.94,8.0568e-06,0
244.94,2.8367e-05,0
244.94,4.5823e-05,0
244.94,5.4551e-05,0
244.95,5.6733e-05,0
244.95,5.4887e-05,0
244.95,5.069e-05,0
244.95,4.4648e-05,0
244.95,3.4745e-05,0
244.95,1.8128e-05,0
244.95,-2.8534e-06,0
244.95,-8.3925e-06,0
244.95,9.7353e-06,0
244.95,2.9709e-05,0
244.95,3.4745e-05,0
244.95,3.592e-05,0
244.95,4.0955e-05,0
244.95,4.4648e-05,0
244.95,3.7766e-05,0
244.95,1.6953e-05,0
244.95,-3.357e-07,0
244.95,0,0
244.95,1.1917e-05,0
244.96,1.8463e-05,0
244.96,1.6953e-05,0
244.96,2.0645e-05,0
244.96,3.2059e-05,0
244.96,3.7934e-05,0
244.96,3.508e-05,0
244.96,3.2059e-05,0
244.96,2.9038e-05,0
244.96,1.9303e-05,0
244.96,9.2317e-06,0
244.96,1.326e-05,0
244.96,3.1891e-05,0
244.96,4.7166e-05,0
244.96,4.3809e-05,0
244.96,2.9038e-05,0
244.96,2.3667e-05,0
244.96,2.8702e-05,0
244.96,3.4745e-05,0
244.96,3.6088e-05,0
244.97,3.2059e-05,0
244.97,2.6688e-05,0
244.97,2.4002e-05,0
244.97,2.5681e-05,0
244.97,2.652e-05,0
244.97,2.2828e-05,0
244.97,1.8296e-05,0
244.97,1.9135e-05,0
244.97,2.2492e-05,0
244.97,2.4674e-05,0
244.97,2.4002e-05,0
244.97,2.266e-05,0
244.97,2.1317e-05,0
244.97,2.1317e-05,0
244.97,2.4338e-05,0
244.97,2.4674e-05,0
244.97,2.182e-05,0
244.97,2.1149e-05,0
244.97,2.7527e-05,0
244.98,3.7095e-05,0
244.98,4.0787e-05,0
244.98,3.3234e-05,0
244.98,1.7624e-05,0
244.98,7.0497e-06,0
244.98,5.0355e-06,0
244.98,0,0
244.98,-7.8889e-06,0
244.98,-8.5603e-06,0
244.98,-4.8676e-06,0
244.98,-1.6785e-07,0
244.98,6.2104e-06,0
244.98,1.2589e-05,0
244.98,1.796e-05,0
244.98,1.9806e-05,0
244.98,2.4506e-05,0
244.98,3.3402e-05,0
244.98,3.8102e-05,0
244.98,3.6088e-05,0
244.99,3.2059e-05,0
244.99,2.4002e-05,0
244.99,1.2589e-05,0
244.99,4.1962e-06,0
244.99,5.0355e-07,0
244.99,-1.8463e-06,0
244.99,-3.8605e-06,0
244.99,-1.8463e-06,0
244.99,6.0426e-06,0
244.99,1.3092e-05,0
244.99,1.3764e-05,0
244.99,1.0575e-05,0
244.99,6.3783e-06,0
244.99,-7.2175e-06,0
244.99,-2.8199e-05,0
244.99,-3.4241e-05,0
244.99,-1.4435e-05,0
244.99,1.1582e-05,0
244.99,2.887e-05,0
244.99,4.0787e-05,0
245,4.9516e-05,0
245,4.9851e-05,0
245,3.4073e-05,0
245,9.5674e-06,0
245,-8.3925e-07,0
245,9.5674e-06,0
245,2.5681e-05,0
245,3.6927e-05,0
245,4.5319e-05,0
245,5.2537e-05,0
245,5.7572e-05,0
245,5.9754e-05,0
245,6.0594e-05,0
245,5.7908e-05,0
245,5.2873e-05,0
245,4.2802e-05,0
245,2.9709e-05,0
245,1.6785e-05,0
245,-3.5248e-06,0
245.01,-3.4241e-05,0
245.01,-6.865e-05,0
245.01,-7.5868e-05,0
245.01,-4.0116e-05,0
245.01,6.5461e-06,0
245.01,3.4073e-05,0
245.01,4.5823e-05,0
245.01,5.388e-05,0
245.01,5.7908e-05,0
245.01,5.6565e-05,0
245.01,4.9851e-05,0
245.01,3.8773e-05,0
245.01,2.7359e-05,0
245.01,2.2828e-05,0
245.01,2.7695e-05,0
245.01,3.4409e-05,0
245.01,3.1388e-05,0
245.01,2.0645e-05,0
245.01,1.1078e-05,0
245.02,9.9031e-06,0
245.02,1.9806e-05,0
245.02,3.2059e-05,0
245.02,3.0716e-05,0
245.02,2.4842e-05,0
245.02,2.9877e-05,0
245.02,4.2802e-05,0
245.02,4.9012e-05,0
245.02,4.1123e-05,0
245.02,2.1988e-05,0
245.02,4.3641e-06,0
245.02,3.8605e-06,0
245.02,1.2924e-05,0
245.02,1.8967e-05,0
245.02,2.5681e-05,0
245.02,3.2059e-05,0
245.02,3.1388e-05,0
245.02,2.5681e-05,0
245.02,2.7024e-05,0
245.03,3.6591e-05,0
245.03,3.9445e-05,0
245.03,2.5345e-05,0
245.03,2.182e-06,0
245.03,-1.4939e-05,0
245.03,-2.7359e-05,0
245.03,-4.0787e-05,0
245.03,-4.0787e-05,0
245.03,-1.0407e-05,0
245.03,3.3402e-05,0
245.03,5.7404e-05,0
245.03,5.4047e-05,0
245.03,4.1459e-05,0
245.03,3.4913e-05,0
245.03,3.1891e-05,0
245.03,2.887e-05,0
245.03,2.1317e-05,0
245.03,1.2589e-05,0
245.03,8.2246e-06,0
245.03,8.5603e-06,0
245.04,7.8889e-06,0
245.04,5.7069e-06,0
245.04,5.2033e-06,0
245.04,6.8818e-06,0
245.04,9.5674e-06,0
245.04,1.3596e-05,0
245.04,1.7624e-05,0
245.04,2.0981e-05,0
245.04,2.1149e-05,0
245.04,1.796e-05,0
245.04,1.5778e-05,0
245.04,1.8631e-05,0
245.04,2.3499e-05,0
245.04,2.4002e-05,0
245.04,2.1988e-05,0
245.04,1.561e-05,0
245.04,6.3783e-06,0
245.04,9.9031e-06,0
245.04,3.0716e-05,0
245.05,5.2873e-05,0
245.05,6.1601e-05,0
245.05,5.7237e-05,0
245.05,4.8173e-05,0
245.05,4.683e-05,0
245.05,5.3544e-05,0
245.05,5.7908e-05,0
245.05,4.5991e-05,0
245.05,2.3499e-05,0
245.05,1.1246e-05,0
245.05,1.8296e-05,0
245.05,3.3066e-05,0
245.05,3.978e-05,0
245.05,3.122e-05,0
245.05,1.5442e-05,0
245.05,6.2104e-06,0
245.05,1.1749e-05,0
245.05,1.9303e-05,0
245.05,1.8463e-05,0
245.06,7.7211e-06,0
245.06,-9.2317e-06,0
245.06,-2.6688e-05,0
245.06,-4.1123e-05,0
245.06,-4.3137e-05,0
245.06,-2.4338e-05,0
245.06,4.5319e-06,0
245.06,2.4002e-05,0
245.06,2.8702e-05,0
245.06,2.8031e-05,0
245.06,3.1388e-05,0
245.06,3.5584e-05,0
245.06,3.2731e-05,0
245.06,2.5345e-05,0
245.06,2.1317e-05,0
245.06,2.2995e-05,0
245.06,2.9038e-05,0
245.06,3.2731e-05,0
245.06,3.3402e-05,0
245.06,2.8031e-05,0
245.07,2.1317e-05,0
245.07,2.1317e-05,0
245.07,2.5849e-05,0
245.07,2.3667e-05,0
245.07,1.2757e-05,0
245.07,7.5532e-06,0
245.07,9.2317e-06,0
245.07,8.896e-06,0
245.07,9.2317e-06,0
245.07,1.6617e-05,0
245.07,2.8031e-05,0
245.07,3.8773e-05,0
245.07,4.8508e-05,0
245.07,5.4719e-05,0
245.07,4.8005e-05,0
245.07,2.4842e-05,0
245.07,-5.539e-06,0
245.07,-2.182e-05,0
245.07,-1.7624e-05,0
245.08,-7.0497e-06,0
245.08,-2.8534e-06,0
245.08,-2.182e-06,0
245.08,7.8889e-06,0
245.08,2.0645e-05,0
245.08,2.0478e-05,0
245.08,1.5778e-05,0
245.08,1.9471e-05,0
245.08,2.6352e-05,0
245.08,2.9709e-05,0
245.08,3.0716e-05,0
245.08,3.0045e-05,0
245.08,2.9038e-05,0
245.08,3.1388e-05,0
245.08,3.6759e-05,0
245.08,4.3977e-05,0
245.08,4.6998e-05,0
245.08,4.1794e-05,0
245.08,2.6688e-05,0
245.09,3.1891e-06,0
245.09,-1.8296e-05,0
245.09,-2.8534e-05,0
245.09,-2.3331e-05,0
245.09,-6.714e-07,0
245.09,2.5513e-05,0
245.09,3.4577e-05,0
245.09,2.5681e-05,0
245.09,1.1917e-05,0
245.09,3.1891e-06,0
245.09,1.1749e-06,0
245.09,0,0
245.09,-1.6785e-07,0
245.09,3.5248e-06,0
245.09,1.2924e-05,0
245.09,2.2324e-05,0
245.09,2.8367e-05,0
245.09,2.9709e-05,0
245.09,3.0716e-05,0
245.1,3.743e-05,0
245.1,4.9012e-05,0
245.1,6.0929e-05,0
245.1,6.9657e-05,0
245.1,6.5629e-05,0
245.1,4.5487e-05,0
245.1,2.3499e-05,0
245.1,7.2175e-06,0
245.1,-6.0426e-06,0
245.1,-2.1149e-05,0
245.1,-3.9612e-05,0
245.1,-4.8844e-05,0
245.1,-3.1724e-05,0
245.1,1.3428e-06,0
245.1,2.6184e-05,0
245.1,3.508e-05,0
245.1,3.3402e-05,0
245.1,2.6688e-05,0
245.1,2.3331e-05,0
245.1,2.5681e-05,0
245.11,2.7359e-05,0
245.11,2.9709e-05,0
245.11,3.2059e-05,0
245.11,3.2059e-05,0
245.11,3.122e-05,0
245.11,2.7192e-05,0
245.11,1.5274e-05,0
245.11,-6.714e-06,0
245.11,-2.1317e-05,0
245.11,-9.2317e-06,0
245.11,2.0142e-05,0
245.11,4.4144e-05,0
245.11,5.3544e-05,0
245.11,5.4887e-05,0
245.11,5.2201e-05,0
245.11,4.3977e-05,0
245.11,3.2731e-05,0
245.11,2.1988e-05,0
245.11,1.6617e-05,0
245.12,1.4603e-05,0
245.12,1.561e-05,0
245.12,1.9638e-05,0
245.12,2.652e-05,0
245.12,2.9374e-05,0
245.12,2.5681e-05,0
245.12,1.9303e-05,0
245.12,1.4603e-05,0
245.12,1.5274e-05,0
245.12,2.031e-05,0
245.12,2.4674e-05,0
245.12,2.7863e-05,0
245.12,3.0716e-05,0
245.12,3.4745e-05,0
245.12,3.8773e-05,0
245.12,3.6423e-05,0
245.12,2.9038e-05,0
245.12,2.4506e-05,0
245.12,2.2156e-05,0
245.13,1.6617e-05,0
245.13,1.1246e-05,0
245.13,6.3783e-06,0
245.13,-2.3499e-06,0
245.13,-7.3854e-06,0
245.13,-5.0355e-07,0
245.13,1.0239e-05,0
245.13,1.2589e-05,0
245.13,1.0575e-05,0
245.13,1.0407e-05,0
245.13,1.2757e-05,0
245.13,1.3596e-05,0
245.13,1.2589e-05,0
245.13,1.1917e-05,0
245.13,1.4099e-05,0
245.13,1.5778e-05,0
245.13,1.7288e-05,0
245.13,2.0813e-05,0
245.13,2.6017e-05,0
245.14,3.5248e-05,0
245.14,4.4648e-05,0
245.14,4.448e-05,0
245.14,3.6088e-05,0
245.14,2.9877e-05,0
245.14,2.9206e-05,0
245.14,2.9877e-05,0
245.14,2.3331e-05,0
245.14,9.9031e-06,0
245.14,2.5177e-06,0
245.14,5.539e-06,0
245.14,1.1414e-05,0
245.14,1.6281e-05,0
245.14,2.6017e-05,0
245.14,3.7095e-05,0
245.14,3.9612e-05,0
245.14,3.3906e-05,0
245.14,2.3331e-05,0
245.14,1.1246e-05,0
245.14,1.0071e-06,0
245.15,-1.091e-05,0
245.15,-1.4603e-05,0
245.15,2.8534e-06,0
245.15,2.7024e-05,0
245.15,3.7766e-05,0
245.15,3.4745e-05,0
245.15,2.9374e-05,0
245.15,2.652e-05,0
245.15,2.1653e-05,0
245.15,1.6617e-05,0
245.15,1.561e-05,0
245.15,1.8463e-05,0
245.15,1.796e-05,0
245.15,1.326e-05,0
245.15,1.2253e-05,0
245.15,1.6617e-05,0
245.15,2.1653e-05,0
245.15,2.5345e-05,0
245.15,2.8031e-05,0
245.16,3.0045e-05,0
245.16,3.4745e-05,0
245.16,3.9948e-05,0
245.16,3.9948e-05,0
245.16,3.2059e-05,0
245.16,2.4002e-05,0
245.16,2.2828e-05,0
245.16,2.5513e-05,0
245.16,2.2324e-05,0
245.16,1.4603e-05,0
245.16,1.4267e-05,0
245.16,2.182e-05,0
245.16,2.7024e-05,0
245.16,2.3667e-05,0
245.16,9.5674e-06,0
245.16,-5.2033e-06,0
245.16,-5.539e-06,0
245.16,1.8463e-06,0
245.16,8.896e-06,0
245.17,1.8631e-05,0
245.17,2.7695e-05,0
245.17,2.7024e-05,0
245.17,1.561e-05,0
245.17,5.2033e-06,0
245.17,1.0071e-05,0
245.17,2.6017e-05,0
245.17,3.6759e-05,0
245.17,3.8102e-05,0
245.17,3.508e-05,0
245.17,2.652e-05,0
245.17,1.5946e-05,0
245.17,1.2085e-05,0
245.17,1.2589e-05,0
245.17,1.4099e-05,0
245.17,1.6281e-05,0
245.17,1.9806e-05,0
245.17,2.7024e-05,0
245.17,4.1291e-05,0
245.18,5.8915e-05,0
245.18,7.1672e-05,0
245.18,7.0161e-05,0
245.18,5.3376e-05,0
245.18,3.2563e-05,0
245.18,1.2589e-05,0
245.18,3.8605e-06,0
245.18,2.0645e-05,0
245.18,4.683e-05,0
245.18,5.2537e-05,0
245.18,3.9948e-05,0
245.18,2.2995e-05,0
245.18,3.357e-07,0
245.18,-2.031e-05,0
245.18,-2.6352e-05,0
245.18,-2.3667e-05,0
245.18,-1.9974e-05,0
245.18,-1.6114e-05,0
245.18,-1.4435e-05,0
245.18,-1.5778e-05,0
245.19,-1.6785e-05,0
245.19,-1.3428e-05,0
245.19,8.3925e-07,0
245.19,1.5946e-05,0
245.19,2.3331e-05,0
245.19,2.5177e-05,0
245.19,2.5849e-05,0
245.19,2.7695e-05,0
245.19,3.122e-05,0
245.19,3.1724e-05,0
245.19,2.6017e-05,0
245.19,1.8631e-05,0
245.19,1.8631e-05,0
245.19,2.652e-05,0
245.19,3.4577e-05,0
245.19,3.743e-05,0
245.19,3.8437e-05,0
245.19,4.0787e-05,0
245.19,4.7333e-05,0
245.2,5.5558e-05,0
245.2,6.2272e-05,0
245.2,6.6636e-05,0
245.2,6.3447e-05,0
245.2,4.9348e-05,0
245.2,3.2731e-05,0
245.2,1.6785e-05,0
245.2,3.357e-07,0
245.2,-1.8296e-05,0
245.2,-2.501e-05,0
245.2,-1.5106e-05,0
245.2,1.6785e-07,0
245.2,8.5603e-06,0
245.2,6.2104e-06,0
245.2,-1.8463e-06,0
245.2,-7.8889e-06,0
245.2,-1.0407e-05,0
245.2,-8.896e-06,0
245.2,-4.3641e-06,0
245.21,8.3925e-07,0
245.21,5.8747e-06,0
245.21,1.326e-05,0
245.21,1.9638e-05,0
245.21,2.2324e-05,0
245.21,2.1317e-05,0
245.21,2.0645e-05,0
245.21,2.5177e-05,0
245.21,3.0716e-05,0
245.21,3.3402e-05,0
245.21,3.6759e-05,0
245.21,4.0452e-05,0
245.21,4.1459e-05,0
245.21,4.2466e-05,0
245.21,4.3137e-05,0
245.21,3.9948e-05,0
245.21,3.2059e-05,0
245.21,2.2492e-05,0
245.21,2.2828e-05,0
245.22,3.2059e-05,0
245.22,3.3402e-05,0
245.22,2.266e-05,0
245.22,1.2924e-05,0
245.22,1.5946e-05,0
245.22,2.7359e-05,0
245.22,3.8102e-05,0
245.22,4.1962e-05,0
245.22,3.743e-05,0
245.22,3.1388e-05,0
245.22,2.9038e-05,0
245.22,2.6017e-05,0
245.22,2.0645e-05,0
245.22,1.3596e-05,0
245.22,6.5461e-06,0
245.22,2.5177e-06,0
245.22,3.8605e-06,0
245.22,5.8747e-06,0
245.22,4.1962e-06,0
245.22,-4.0284e-06,0
245.23,-1.1749e-05,0
245.23,-2.1653e-05,0
245.23,-3.5752e-05,0
245.23,-4.1962e-05,0
245.23,-2.5849e-05,0
245.23,1.8463e-06,0
245.23,1.7121e-05,0
245.23,1.326e-05,0
245.23,1.1078e-05,0
245.23,2.2324e-05,0
245.23,3.4073e-05,0
245.23,3.6759e-05,0
245.23,3.3738e-05,0
245.23,3.4073e-05,0
245.23,4.0116e-05,0
245.23,4.7166e-05,0
245.23,5.1194e-05,0
245.23,5.2033e-05,0
245.23,5.0858e-05,0
245.24,4.7166e-05,0
245.24,4.2802e-05,0
245.24,4.062e-05,0
245.24,4.6326e-05,0
245.24,5.6733e-05,0
245.24,5.9922e-05,0
245.24,4.683e-05,0
245.24,1.6953e-05,0
245.24,-3.1724e-05,0
245.24,-8.3925e-05,0
245.24,-0.0001133,0
245.24,-9.6849e-05,0
245.24,-4.3137e-05,0
245.24,7.2175e-06,0
245.24,3.6759e-05,0
245.24,4.8844e-05,0
245.24,4.7501e-05,0
245.24,4.1123e-05,0
245.24,3.6423e-05,0
245.25,3.5752e-05,0
245.25,3.8102e-05,0
245.25,4.3473e-05,0
245.25,5.2537e-05,0
245.25,6.3279e-05,0
245.25,7.0665e-05,0
245.25,7.2007e-05,0
245.25,6.949e-05,0
245.25,6.3951e-05,0
245.25,5.6565e-05,0
245.25,4.3137e-05,0
245.25,1.5946e-05,0
245.25,-1.7624e-05,0
245.25,-4.3809e-05,0
245.25,-6.0594e-05,0
245.25,-5.9251e-05,0
245.25,-3.3738e-05,0
245.25,1.8463e-06,0
245.25,2.4674e-05,0
245.25,2.8702e-05,0
245.26,2.4338e-05,0
245.26,2.266e-05,0
245.26,2.7359e-05,0
245.26,3.2563e-05,0
245.26,3.3402e-05,0
245.26,3.4073e-05,0
245.26,4.1123e-05,0
245.26,5.0187e-05,0
245.26,5.5894e-05,0
245.26,5.7237e-05,0
245.26,5.0019e-05,0
245.26,3.5248e-05,0
245.26,1.4435e-05,0
245.26,-9.5674e-06,0
245.26,-3.3066e-05,0
245.26,-4.5991e-05,0
245.26,-4.213e-05,0
245.26,-2.5177e-05,0
245.26,1.6785e-07,0
245.27,2.7192e-05,0
245.27,4.6662e-05,0
245.27,5.3544e-05,0
245.27,5.388e-05,0
245.27,5.4719e-05,0
245.27,5.6062e-05,0
245.27,5.4551e-05,0
245.27,5.0187e-05,0
245.27,4.3137e-05,0
245.27,3.3906e-05,0
245.27,2.3667e-05,0
245.27,1.6281e-05,0
245.27,1.1414e-05,0
245.27,7.5532e-06,0
245.27,6.8818e-06,0
245.27,1.091e-05,0
245.27,1.4771e-05,0
245.27,1.3596e-05,0
245.27,1.1917e-05,0
245.28,1.4939e-05,0
245.28,2.266e-05,0
245.28,2.9374e-05,0
245.28,3.0549e-05,0
245.28,3.0716e-05,0
245.28,3.6423e-05,0
245.28,4.8005e-05,0
245.28,5.9922e-05,0
245.28,6.4286e-05,0
245.28,5.8579e-05,0
245.28,4.2298e-05,0
245.28,1.5778e-05,0
245.28,-9.7353e-06,0
245.28,-2.2156e-05,0
245.28,-2.4338e-05,0
245.28,-1.4939e-05,0
245.28,7.7211e-06,0
245.28,2.7695e-05,0
245.28,3.743e-05,0
245.29,4.5487e-05,0
245.29,5.1194e-05,0
245.29,4.7501e-05,0
245.29,2.8031e-05,0
245.29,3.357e-07,0
245.29,-1.4603e-05,0
245.29,-6.3783e-06,0
245.29,1.1078e-05,0
245.29,2.266e-05,0
245.29,2.6688e-05,0
245.29,1.9303e-05,0
245.29,-3.357e-07,0
245.29,-1.7288e-05,0
245.29,-2.5345e-05,0
245.29,-2.4002e-05,0
245.29,-1.091e-05,0
245.29,9.2317e-06,0
245.29,2.0142e-05,0
245.29,1.8296e-05,0
245.29,1.0071e-05,0
245.3,1.5106e-06,0
245.3,1.5106e-06,0
245.3,1.1414e-05,0
245.3,1.7121e-05,0
245.3,1.1917e-05,0
245.3,3.357e-06,0
245.3,-3.1891e-06,0
245.3,-1.6785e-06,0
245.3,1.091e-05,0
245.3,2.501e-05,0
245.3,2.8534e-05,0
245.3,2.8534e-05,0
245.3,3.2059e-05,0
245.3,3.8102e-05,0
245.3,4.448e-05,0
245.3,4.9516e-05,0
245.3,5.1362e-05,0
245.3,4.7166e-05,0
245.3,3.3738e-05,0
245.31,1.9303e-05,0
245.31,1.5274e-05,0
245.31,5.7069e-06,0
245.31,-1.9806e-05,0
245.31,-4.3137e-05,0
245.31,-4.2466e-05,0
245.31,-2.1653e-05,0
245.31,6.0426e-06,0
245.31,3.0045e-05,0
245.31,4.3137e-05,0
245.31,4.5487e-05,0
245.31,4.2802e-05,0
245.31,4.0116e-05,0
245.31,3.1891e-05,0
245.31,2.0981e-05,0
245.31,1.5442e-05,0
245.31,1.7624e-05,0
245.31,2.266e-05,0
245.31,2.2156e-05,0
245.32,1.5778e-05,0
245.32,9.3996e-06,0
245.32,7.0497e-06,0
245.32,8.7282e-06,0
245.32,1.4603e-05,0
245.32,2.4674e-05,0
245.32,3.2059e-05,0
245.32,3.4745e-05,0
245.32,3.508e-05,0
245.32,3.4409e-05,0
245.32,3.3402e-05,0
245.32,3.3402e-05,0
245.32,3.1388e-05,0
245.32,2.5345e-05,0
245.32,2.0645e-05,0
245.32,1.8967e-05,0
245.32,1.8463e-05,0
245.32,2.3667e-05,0
245.32,3.0045e-05,0
245.33,3.1388e-05,0
245.33,2.9374e-05,0
245.33,2.9206e-05,0
245.33,3.4073e-05,0
245.33,3.827e-05,0
245.33,3.8773e-05,0
245.33,4.0116e-05,0
245.33,4.7501e-05,0
245.33,5.3544e-05,0
245.33,4.9516e-05,0
245.33,3.4745e-05,0
245.33,1.9638e-05,0
245.33,7.5532e-06,0
245.33,-1.561e-05,0
245.33,-4.683e-05,0
245.33,-6.3951e-05,0
245.33,-5.5222e-05,0
245.33,-2.7024e-05,0
245.33,2.5177e-06,0
245.34,2.1988e-05,0
245.34,3.0884e-05,0
245.34,3.3402e-05,0
245.34,3.2059e-05,0
245.34,3.2395e-05,0
245.34,3.3402e-05,0
245.34,3.1388e-05,0
245.34,2.7024e-05,0
245.34,2.3667e-05,0
245.34,2.1988e-05,0
245.34,2.4338e-05,0
245.34,2.8031e-05,0
245.34,3.0045e-05,0
245.34,3.0549e-05,0
245.34,2.9374e-05,0
245.34,2.8031e-05,0
245.34,2.5681e-05,0
245.34,2.3667e-05,0
245.34,2.2324e-05,0
245.34,2.4002e-05,0
245.35,2.7359e-05,0
245.35,2.9709e-05,0
245.35,3.1724e-05,0
245.35,3.3066e-05,0
245.35,4.0787e-05,0
245.35,4.7501e-05,0
245.35,4.918e-05,0
245.35,4.6159e-05,0
245.35,3.743e-05,0
245.35,2.4674e-05,0
245.35,1.4603e-05,0
245.35,1.8296e-05,0
245.35,3.1891e-05,0
245.35,4.0116e-05,0
245.35,3.1052e-05,0
245.35,8.2246e-06,0
245.35,-1.0239e-05,0
245.35,-1.2589e-05,0
245.35,-6.3783e-06,0
245.36,3.8605e-06,0
245.36,1.6953e-05,0
245.36,2.0142e-05,0
245.36,3.1891e-06,0
245.36,-2.0981e-05,0
245.36,-2.1988e-05,0
245.36,8.5603e-06,0
245.36,4.4144e-05,0
245.36,5.7908e-05,0
245.36,4.9012e-05,0
245.36,3.743e-05,0
245.36,3.9948e-05,0
245.36,4.2802e-05,0
245.36,3.2731e-05,0
245.36,1.9135e-05,0
245.36,8.2246e-06,0
245.36,-3.5248e-06,0
245.36,-2.1988e-05,0
245.36,-3.743e-05,0
245.37,-2.9709e-05,0
245.37,-7.2175e-06,0
245.37,3.8605e-06,0
245.37,7.2175e-06,0
245.37,1.3092e-05,0
245.37,1.5946e-05,0
245.37,1.4603e-05,0
245.37,1.4099e-05,0
245.37,1.796e-05,0
245.37,2.2995e-05,0
245.37,2.6184e-05,0
245.37,2.6352e-05,0
245.37,2.3331e-05,0
245.37,2.0645e-05,0
245.37,2.0981e-05,0
245.37,2.5345e-05,0
245.37,3.4073e-05,0
245.37,3.5752e-05,0
245.37,2.501e-05,0
245.38,1.7456e-05,0
245.38,2.7695e-05,0
245.38,4.6159e-05,0
245.38,5.8747e-05,0
245.38,5.9419e-05,0
245.38,5.4215e-05,0
245.38,4.6494e-05,0
245.38,3.3066e-05,0
245.38,1.326e-05,0
245.38,-7.5532e-06,0
245.38,-1.6953e-05,0
245.38,-9.7353e-06,0
245.38,6.8818e-06,0
245.38,2.4674e-05,0
245.38,3.3738e-05,0
245.38,3.0716e-05,0
245.38,2.3331e-05,0
245.38,2.182e-05,0
245.38,2.9206e-05,0
245.38,3.5416e-05,0
245.39,3.1724e-05,0
245.39,2.6017e-05,0
245.39,2.4506e-05,0
245.39,2.2995e-05,0
245.39,2.0645e-05,0
245.39,2.0478e-05,0
245.39,2.4674e-05,0
245.39,3.4241e-05,0
245.39,4.3305e-05,0
245.39,4.1459e-05,0
245.39,2.8702e-05,0
245.39,2.1988e-05,0
245.39,2.9541e-05,0
245.39,3.6423e-05,0
245.39,2.9374e-05,0
245.39,1.4603e-05,0
245.39,4.1962e-06,0
245.39,2.182e-06,0
245.39,2.5177e-06,0
245.4,1.8463e-06,0
245.4,2.3499e-06,0
245.4,4.8676e-06,0
245.4,9.9031e-06,0
245.4,1.6281e-05,0
245.4,2.1317e-05,0
245.4,2.4674e-05,0
245.4,2.501e-05,0
245.4,1.8967e-05,0
245.4,1.0407e-05,0
245.4,-1.6785e-07,0
245.4,-1.091e-05,0
245.4,-1.1246e-05,0
245.4,-1.5106e-06,0
245.4,8.2246e-06,0
245.4,1.4267e-05,0
245.4,1.7288e-05,0
245.4,1.091e-05,0
245.4,-1.5106e-06,0
245.41,-1.3931e-05,0
245.41,-1.6449e-05,0
245.41,-3.5248e-06,0
245.41,2.031e-05,0
245.41,3.8773e-05,0
245.41,3.9277e-05,0
245.41,3.7095e-05,0
245.41,4.4816e-05,0
245.41,5.623e-05,0
245.41,6.0258e-05,0
245.41,4.918e-05,0
245.41,2.7024e-05,0
245.41,1.6617e-05,0
245.41,2.1317e-05,0
245.41,2.1317e-05,0
245.41,1.4267e-05,0
245.41,1.0575e-05,0
245.41,1.2253e-05,0
245.41,1.796e-05,0
245.41,2.3331e-05,0
245.42,2.4002e-05,0
245.42,2.0813e-05,0
245.42,1.1078e-05,0
245.42,1.6785e-06,0
245.42,7.2175e-06,0
245.42,1.9471e-05,0
245.42,1.6785e-05,0
245.42,-1.1749e-06,0
245.42,-1.8631e-05,0
245.42,-2.6856e-05,0
245.42,-1.5778e-05,0
245.42,1.2924e-05,0
245.42,4.1459e-05,0
245.42,4.8844e-05,0
245.42,3.1556e-05,0
245.42,1.4267e-05,0
245.42,1.7121e-05,0
245.42,2.9877e-05,0
245.42,3.3402e-05,0
245.43,2.8367e-05,0
245.43,2.7192e-05,0
245.43,3.5752e-05,0
245.43,4.7501e-05,0
245.43,5.3544e-05,0
245.43,5.3544e-05,0
245.43,4.918e-05,0
245.43,3.8102e-05,0
245.43,2.501e-05,0
245.43,1.7288e-05,0
245.43,1.2421e-05,0
245.43,1.1582e-05,0
245.43,2.266e-05,0
245.43,3.4745e-05,0
245.43,3.1388e-05,0
245.43,2.4002e-05,0
245.43,3.1388e-05,0
245.43,4.8508e-05,0
245.43,5.623e-05,0
245.44,4.683e-05,0
245.44,2.9709e-05,0
245.44,1.326e-05,0
245.44,2.5177e-06,0
245.44,-4.8676e-06,0
245.44,-3.5248e-06,0
245.44,6.8818e-06,0
245.44,1.7624e-05,0
245.44,1.9806e-05,0
245.44,1.1078e-05,0
245.44,2.0142e-06,0
245.44,-1.8463e-06,0
245.44,1.6785e-07,0
245.44,6.0426e-06,0
245.44,1.1246e-05,0
245.44,1.2589e-05,0
245.44,9.2317e-06,0
245.44,6.3783e-06,0
245.44,1.2757e-05,0
245.45,2.4674e-05,0
245.45,3.3906e-05,0
245.45,4.0116e-05,0
245.45,4.1459e-05,0
245.45,3.6423e-05,0
245.45,2.5681e-05,0
245.45,1.1246e-05,0
245.45,-3.357e-06,0
245.45,-8.896e-06,0
245.45,1.8463e-06,0
245.45,1.8631e-05,0
245.45,2.8534e-05,0
245.45,2.7863e-05,0
245.45,1.9303e-05,0
245.45,1.1414e-05,0
245.45,6.8818e-06,0
245.45,-1.5106e-06,0
245.45,-1.4603e-05,0
245.45,-2.0142e-05,0
245.45,-1.3596e-05,0
245.46,-6.714e-07,0
245.46,1.3764e-05,0
245.46,2.7863e-05,0
245.46,3.8773e-05,0
245.46,4.8844e-05,0
245.46,6.2272e-05,0
245.46,7.3518e-05,0
245.46,7.1e-05,0
245.46,6.0761e-05,0
245.46,5.3544e-05,0
245.46,4.2802e-05,0
245.46,1.6953e-05,0
245.46,-1.7288e-05,0
245.46,-4.0787e-05,0
245.46,-3.592e-05,0
245.46,-8.3925e-06,0
245.46,1.6281e-05,0
245.46,2.8367e-05,0
245.46,3.2059e-05,0
245.47,2.9374e-05,0
245.47,2.4338e-05,0
245.47,2.031e-05,0
245.47,1.4267e-05,0
245.47,6.0426e-06,0
245.47,5.539e-06,0
245.47,1.561e-05,0
245.47,2.266e-05,0
245.47,2.2828e-05,0
245.47,2.8702e-05,0
245.47,3.7766e-05,0
245.47,4.0116e-05,0
245.47,3.3402e-05,0
245.47,2.2492e-05,0
245.47,1.9303e-05,0
245.47,2.7024e-05,0
245.47,3.4745e-05,0
245.47,3.3738e-05,0
245.47,2.1988e-05,0
245.48,1.0239e-05,0
245.48,3.8605e-06,0
245.48,-1.0071e-06,0
245.48,-7.3854e-06,0
245.48,-1.5274e-05,0
245.48,-1.8967e-05,0
245.48,-1.2924e-05,0
245.48,5.2033e-06,0
245.48,2.3331e-05,0
245.48,3.4745e-05,0
245.48,4.2634e-05,0
245.48,4.5991e-05,0
245.48,4.3977e-05,0
245.48,3.8437e-05,0
245.48,3.1724e-05,0
245.48,2.8031e-05,0
245.48,2.6688e-05,0
245.48,2.501e-05,0
245.48,2.0813e-05,0
245.49,1.3764e-05,0
245.49,7.2175e-06,0
245.49,6.5461e-06,0
245.49,1.326e-05,0
245.49,2.266e-05,0
245.49,2.6688e-05,0
245.49,2.266e-05,0
245.49,1.6617e-05,0
245.49,1.6617e-05,0
245.49,2.2828e-05,0
245.49,2.182e-05,0
245.49,1.4099e-05,0
245.49,1.2757e-05,0
245.49,2.2995e-05,0
245.49,3.8437e-05,0
245.49,4.5487e-05,0
245.49,4.1627e-05,0
245.49,3.0549e-05,0
245.49,1.4939e-05,0
245.49,-1.8463e-06,0
245.5,-7.8889e-06,0
245.5,2.5177e-06,0
245.5,1.9974e-05,0
245.5,2.9038e-05,0
245.5,2.8702e-05,0
245.5,2.8367e-05,0
245.5,2.8199e-05,0
245.5,2.266e-05,0
245.5,1.091e-05,0
245.5,8.3925e-07,0
245.5,1.6785e-07,0
245.5,6.714e-06,0
245.5,1.3931e-05,0
245.5,2.7695e-05,0
245.5,4.8844e-05,0
245.5,6.4286e-05,0
245.5,6.3279e-05,0
245.5,4.213e-05,0
245.5,2.4002e-05,0
245.51,2.6017e-05,0
245.51,3.743e-05,0
245.51,4.1627e-05,0
245.51,3.0381e-05,0
245.51,1.1582e-05,0
245.51,1.1749e-06,0
245.51,4.5319e-06,0
245.51,1.5946e-05,0
245.51,2.3331e-05,0
245.51,2.1317e-05,0
245.51,1.1582e-05,0
245.51,2.182e-06,0
245.51,-1.8463e-06,0
245.51,7.3854e-06,0
245.51,2.2324e-05,0
245.51,2.7695e-05,0
245.51,2.6017e-05,0
245.51,2.4506e-05,0
245.51,2.5345e-05,0
245.52,2.652e-05,0
245.52,2.8367e-05,0
245.52,3.3738e-05,0
245.52,4.0116e-05,0
245.52,4.0116e-05,0
245.52,3.5752e-05,0
245.52,3.2563e-05,0
245.52,3.1891e-05,0
245.52,3.1388e-05,0
245.52,3.1388e-05,0
245.52,3.1891e-05,0
245.52,2.7695e-05,0
245.52,1.8631e-05,0
245.52,1.6449e-05,0
245.52,1.9303e-05,0
245.52,2.1317e-05,0
245.52,2.5849e-05,0
245.52,3.0045e-05,0
245.52,2.8702e-05,0
245.53,1.8631e-05,0
245.53,6.8818e-06,0
245.53,3.357e-07,0
245.53,6.714e-07,0
245.53,4.1962e-06,0
245.53,1.2421e-05,0
245.53,2.6017e-05,0
245.53,3.2731e-05,0
245.53,3.2059e-05,0
245.53,3.5416e-05,0
245.53,4.5319e-05,0
245.53,4.7501e-05,0
245.53,2.8031e-05,0
245.53,3.1891e-06,0
245.53,-1.0071e-06,0
245.53,9.5674e-06,0
245.53,8.896e-06,0
245.53,-1.7456e-05,0
245.53,-4.213e-05,0
245.53,-3.9445e-05,0
245.54,-2.3835e-05,0
245.54,-7.5532e-06,0
245.54,1.0575e-05,0
245.54,2.3499e-05,0
245.54,2.6688e-05,0
245.54,2.5681e-05,0
245.54,2.5681e-05,0
245.54,2.8702e-05,0
245.54,3.5248e-05,0
245.54,4.2298e-05,0
245.54,4.3473e-05,0
245.54,3.4073e-05,0
245.54,2.0813e-05,0
245.54,1.5274e-05,0
245.54,1.9303e-05,0
245.54,2.9038e-05,0
245.54,3.9445e-05,0
245.54,4.0787e-05,0
245.54,2.887e-05,0
245.55,1.3931e-05,0
245.55,5.2033e-06,0
245.55,-3.5248e-06,0
245.55,-1.9303e-05,0
245.55,-3.0381e-05,0
245.55,-2.031e-05,0
245.55,7.5532e-06,0
245.55,3.3402e-05,0
245.55,4.0787e-05,0
245.55,3.3066e-05,0
245.55,2.266e-05,0
245.55,1.9303e-05,0
245.55,1.8631e-05,0
245.55,1.1749e-05,0
245.55,7.8889e-06,0
245.55,1.8296e-05,0
245.55,3.2898e-05,0
245.55,3.8437e-05,0
245.55,2.9374e-05,0
245.56,1.2589e-05,0
245.56,5.539e-06,0
245.56,1.326e-05,0
245.56,2.6688e-05,0
245.56,3.6423e-05,0
245.56,3.743e-05,0
245.56,4.0787e-05,0
245.56,5.539e-05,0
245.56,6.8986e-05,0
245.56,6.2608e-05,0
245.56,3.0381e-05,0
245.56,-2.0142e-05,0
245.56,-6.2272e-05,0
245.56,-6.7643e-05,0
245.56,-4.3809e-05,0
245.56,-1.5442e-05,0
245.56,6.0426e-06,0
245.56,1.7288e-05,0
245.56,1.7624e-05,0
245.56,1.5778e-05,0
245.57,2.1653e-05,0
245.57,3.1724e-05,0
245.57,3.7263e-05,0
245.57,3.592e-05,0
245.57,3.1388e-05,0
245.57,2.7359e-05,0
245.57,2.7024e-05,0
245.57,2.5345e-05,0
245.57,2.0813e-05,0
245.57,1.5274e-05,0
245.57,1.0575e-05,0
245.57,7.5532e-06,0
245.57,5.0355e-07,0
245.57,-9.0639e-06,0
245.57,-9.2317e-06,0
245.57,3.8605e-06,0
245.57,1.7624e-05,0
245.57,2.5513e-05,0
245.57,3.2059e-05,0
245.58,3.9948e-05,0
245.58,4.6662e-05,0
245.58,5.1362e-05,0
245.58,5.1698e-05,0
245.58,4.7501e-05,0
245.58,4.3977e-05,0
245.58,4.2466e-05,0
245.58,3.8102e-05,0
245.58,2.6017e-05,0
245.58,7.2175e-06,0
245.58,-1.0575e-05,0
245.58,-9.9031e-06,0
245.58,1.0575e-05,0
245.58,2.8534e-05,0
245.58,2.5681e-05,0
245.58,1.4603e-05,0
245.58,1.326e-05,0
245.58,1.9806e-05,0
245.58,1.9974e-05,0
245.59,9.2317e-06,0
245.59,-4.1962e-06,0
245.59,-8.5603e-06,0
245.59,-7.2175e-06,0
245.59,-1.6785e-07,0
245.59,1.4099e-05,0
245.59,3.0549e-05,0
245.59,4.2802e-05,0
245.59,4.7669e-05,0
245.59,4.1291e-05,0
245.59,3.0549e-05,0
245.59,2.4842e-05,0
245.59,2.6017e-05,0
245.59,2.887e-05,0
245.59,3.2395e-05,0
245.59,3.6088e-05,0
245.59,4.1123e-05,0
245.59,4.7333e-05,0
245.59,5.4551e-05,0
245.6,5.9922e-05,0
245.6,6.2943e-05,0
245.6,7.0329e-05,0
245.6,7.5029e-05,0
245.6,6.5965e-05,0
245.6,4.0787e-05,0
245.6,6.2104e-06,0
245.6,-2.182e-05,0
245.6,-3.1388e-05,0
245.6,-2.0981e-05,0
245.6,-6.714e-07,0
245.6,1.5442e-05,0
245.6,1.8463e-05,0
245.6,9.2317e-06,0
245.6,-3.5248e-06,0
245.6,-9.9031e-06,0
245.6,-5.2033e-06,0
245.6,7.5532e-06,0
245.6,2.182e-05,0
245.6,3.2395e-05,0
245.61,3.7263e-05,0
245.61,3.8605e-05,0
245.61,3.8773e-05,0
245.61,3.743e-05,0
245.61,3.3234e-05,0
245.61,3.2731e-05,0
245.61,4.6494e-05,0
245.61,6.8986e-05,0
245.61,7.6371e-05,0
245.61,5.3544e-05,0
245.61,2.0645e-05,0
245.61,5.2033e-06,0
245.61,2.5177e-06,0
245.61,-3.5248e-06,0
245.61,-6.714e-06,0
245.61,-4.8676e-06,0
245.61,-1.0071e-05,0
245.61,-1.7624e-05,0
245.61,-1.6281e-05,0
245.62,-9.7353e-06,0
245.62,-1.8463e-06,0
245.62,4.5319e-06,0
245.62,1.0575e-05,0
245.62,1.9974e-05,0
245.62,2.9038e-05,0
245.62,3.6088e-05,0
245.62,3.8437e-05,0
245.62,3.0716e-05,0
245.62,1.2589e-05,0
245.62,-3.5248e-06,0
245.62,-5.2033e-06,0
245.62,2.5177e-06,0
245.62,7.2175e-06,0
245.62,7.2175e-06,0
245.62,9.2317e-06,0
245.62,1.0575e-05,0
245.62,5.7069e-06,0
245.62,-3.5248e-06,0
245.63,-7.2175e-06,0
245.63,-4.5319e-06,0
245.63,0,0
245.63,2.182e-06,0
245.63,5.2033e-06,0
245.63,1.5946e-05,0
245.63,3.1388e-05,0
245.63,3.9612e-05,0
245.63,3.8102e-05,0
245.63,2.9206e-05,0
245.63,2.1317e-05,0
245.63,1.8799e-05,0
245.63,2.0981e-05,0
245.63,2.7024e-05,0
245.63,3.1724e-05,0
245.63,3.592e-05,0
245.63,3.8102e-05,0
245.63,3.8102e-05,0
245.63,3.5416e-05,0
245.64,3.2059e-05,0
245.64,2.4674e-05,0
245.64,1.6449e-05,0
245.64,1.4435e-05,0
245.64,1.5274e-05,0
245.64,1.9303e-05,0
245.64,2.1317e-05,0
245.64,6.2104e-06,0
245.64,-2.1653e-05,0
245.64,-2.7359e-05,0
245.64,-4.5319e-06,0
245.64,1.561e-05,0
245.64,1.4099e-05,0
245.64,5.539e-06,0
245.64,1.0407e-05,0
245.64,2.4338e-05,0
245.64,3.1052e-05,0
245.64,2.7359e-05,0
245.64,2.5345e-05,0
245.65,2.6688e-05,0
245.65,2.1317e-05,0
245.65,1.1582e-05,0
245.65,8.3925e-06,0
245.65,1.0407e-05,0
245.65,8.7282e-06,0
245.65,4.6998e-06,0
245.65,1.2589e-05,0
245.65,2.9038e-05,0
245.65,3.8605e-05,0
245.65,4.1123e-05,0
245.65,4.0116e-05,0
245.65,3.5752e-05,0
245.65,2.9541e-05,0
245.65,2.9038e-05,0
245.65,3.6088e-05,0
245.65,4.1794e-05,0
245.65,3.9445e-05,0
245.65,3.4409e-05,0
245.65,3.4409e-05,0
245.66,3.6591e-05,0
245.66,3.6423e-05,0
245.66,4.0787e-05,0
245.66,5.304e-05,0
245.66,7.0161e-05,0
245.66,8.1407e-05,0
245.66,6.6636e-05,0
245.66,2.6688e-05,0
245.66,-6.0426e-06,0
245.66,-1.3596e-05,0
245.66,-6.8818e-06,0
245.66,8.896e-06,0
245.66,3.4745e-05,0
245.66,5.6901e-05,0
245.66,5.9754e-05,0
245.66,5.1698e-05,0
245.66,4.918e-05,0
245.66,5.4551e-05,0
245.66,5.8915e-05,0
245.67,5.069e-05,0
245.67,3.0716e-05,0
245.67,1.5946e-05,0
245.67,-5.0355e-07,0
245.67,-3.4577e-05,0
245.67,-6.9993e-05,0
245.67,-6.9993e-05,0
245.67,-3.0213e-05,0
245.67,1.2924e-05,0
245.67,3.0716e-05,0
245.67,2.7695e-05,0
245.67,2.1317e-05,0
245.67,1.5274e-05,0
245.67,7.2175e-06,0
245.67,4.8676e-06,0
245.67,1.8128e-05,0
245.67,4.1123e-05,0
245.67,5.2033e-05,0
245.67,4.4816e-05,0
245.68,2.9206e-05,0
245.68,1.5274e-05,0
245.68,5.7069e-06,0
245.68,7.0497e-06,0
245.68,2.3667e-05,0
245.68,3.508e-05,0
245.68,2.6184e-05,0
245.68,2.182e-06,0
245.68,-1.9638e-05,0
245.68,-2.3331e-05,0
245.68,-1.2589e-05,0
245.68,0,0
245.68,8.896e-06,0
245.68,1.2924e-05,0
245.68,1.326e-05,0
245.68,1.4603e-05,0
245.68,1.8463e-05,0
245.68,1.9638e-05,0
245.68,1.5106e-05,0
245.69,1.0239e-05,0
245.69,9.0639e-06,0
245.69,4.6998e-06,0
245.69,3.1891e-06,0
245.69,1.6617e-05,0
245.69,3.6088e-05,0
245.69,4.5319e-05,0
245.69,4.2466e-05,0
245.69,3.6759e-05,0
245.69,3.3402e-05,0
245.69,3.7934e-05,0
245.69,4.4144e-05,0
245.69,4.1291e-05,0
245.69,3.6088e-05,0
245.69,3.5752e-05,0
245.69,3.6759e-05,0
245.69,3.1388e-05,0
245.69,9.3996e-06,0
245.69,-2.6352e-05,0
245.69,-4.4144e-05,0
245.7,-1.6953e-05,0
245.7,3.4409e-05,0
245.7,6.5629e-05,0
245.7,6.4958e-05,0
245.7,5.0523e-05,0
245.7,3.1724e-05,0
245.7,7.2175e-06,0
245.7,-1.0239e-05,0
245.7,-1.2757e-05,0
245.7,-5.539e-06,0
245.7,1.1582e-05,0
245.7,2.9374e-05,0
245.7,3.6927e-05,0
245.7,4.0116e-05,0
245.7,4.8676e-05,0
245.7,5.3208e-05,0
245.7,4.1794e-05,0
245.7,1.6449e-05,0
245.7,-5.2033e-06,0
245.71,-9.9031e-06,0
245.71,5.0355e-07,0
245.71,1.326e-05,0
245.71,2.0645e-05,0
245.71,2.5345e-05,0
245.71,3.1891e-05,0
245.71,4.0787e-05,0
245.71,4.8005e-05,0
245.71,5.153e-05,0
245.71,5.153e-05,0
245.71,4.683e-05,0
245.71,3.1891e-05,0
245.71,9.3996e-06,0
245.71,-1.561e-05,0
245.71,-2.9038e-05,0
245.71,-3.0045e-05,0
245.71,-2.7192e-05,0
245.71,-1.6953e-05,0
245.71,1.8463e-06,0
245.72,1.7121e-05,0
245.72,2.4674e-05,0
245.72,3.4073e-05,0
245.72,4.4816e-05,0
245.72,5.1194e-05,0
245.72,4.918e-05,0
245.72,3.8605e-05,0
245.72,2.0981e-05,0
245.72,4.1962e-06,0
245.72,-2.3499e-06,0
245.72,6.5461e-06,0
245.72,2.5849e-05,0
245.72,3.6423e-05,0
245.72,3.1388e-05,0
245.72,1.9974e-05,0
245.72,9.3996e-06,0
245.72,-3.357e-06,0
245.72,-1.3596e-05,0
245.72,-5.539e-06,0
245.72,1.9638e-05,0
245.73,3.978e-05,0
245.73,4.2466e-05,0
245.73,3.8102e-05,0
245.73,3.8941e-05,0
245.73,3.3234e-05,0
245.73,9.0639e-06,0
245.73,-1.5442e-05,0
245.73,-2.417e-05,0
245.73,-1.5274e-05,0
245.73,1.1246e-05,0
245.73,4.3305e-05,0
245.73,5.5894e-05,0
245.73,4.5319e-05,0
245.73,2.501e-05,0
245.73,3.1891e-06,0
245.73,-1.5274e-05,0
245.73,-2.2995e-05,0
245.73,-1.4267e-05,0
245.73,4.0284e-06,0
245.74,1.6617e-05,0
245.74,1.2589e-05,0
245.74,-1.5106e-06,0
245.74,-8.2246e-06,0
245.74,-2.8534e-06,0
245.74,4.6998e-06,0
245.74,9.2317e-06,0
245.74,1.5442e-05,0
245.74,2.5345e-05,0
245.74,3.7598e-05,0
245.74,4.683e-05,0
245.74,4.8508e-05,0
245.74,4.5487e-05,0
245.74,4.5823e-05,0
245.74,5.2537e-05,0
245.74,6.1601e-05,0
245.74,6.4958e-05,0
245.74,5.6062e-05,0
245.74,3.8773e-05,0
245.75,2.0645e-05,0
245.75,7.2175e-06,0
245.75,5.0355e-07,0
245.75,-6.5461e-06,0
245.75,-1.3931e-05,0
245.75,-1.5946e-05,0
245.75,-5.8747e-06,0
245.75,1.561e-05,0
245.75,3.7263e-05,0
245.75,4.5319e-05,0
245.75,4.4144e-05,0
245.75,4.1794e-05,0
245.75,4.062e-05,0
245.75,4.3473e-05,0
245.75,4.5991e-05,0
245.75,4.3809e-05,0
245.75,3.8773e-05,0
245.75,3.4745e-05,0
245.75,3.592e-05,0
245.75,3.8102e-05,0
245.76,3.7766e-05,0
245.76,3.592e-05,0
245.76,3.6088e-05,0
245.76,3.5752e-05,0
245.76,2.5681e-05,0
245.76,8.0568e-06,0
245.76,-1.1749e-06,0
245.76,6.3783e-06,0
245.76,1.9303e-05,0
245.76,2.4338e-05,0
245.76,2.0813e-05,0
245.76,1.4267e-05,0
245.76,6.714e-06,0
245.76,-8.3925e-07,0
245.76,-9.7353e-06,0
245.76,-1.2589e-05,0
245.76,8.3925e-07,0
245.76,2.5345e-05,0
245.76,4.2634e-05,0
245.77,4.2466e-05,0
245.77,3.2563e-05,0
245.77,1.6617e-05,0
245.77,-8.7282e-06,0
245.77,-3.0549e-05,0
245.77,-2.1317e-05,0
245.77,1.1917e-05,0
245.77,3.6088e-05,0
245.77,4.1459e-05,0
245.77,3.6255e-05,0
245.77,2.8534e-05,0
245.77,1.6953e-05,0
245.77,-2.182e-06,0
245.77,-1.091e-05,0
245.77,3.357e-07,0
245.77,1.7288e-05,0
245.77,2.5849e-05,0
245.77,2.6017e-05,0
245.77,2.5513e-05,0
245.78,3.3066e-05,0
245.78,3.978e-05,0
245.78,4.1962e-05,0
245.78,5.0187e-05,0
245.78,6.0761e-05,0
245.78,6.479e-05,0
245.78,5.8915e-05,0
245.78,4.1459e-05,0
245.78,2.2156e-05,0
245.78,1.4603e-05,0
245.78,1.1917e-05,0
245.78,5.2033e-06,0
245.78,1.5106e-06,0
245.78,5.2033e-06,0
245.78,1.796e-05,0
245.78,3.6088e-05,0
245.78,4.5823e-05,0
245.78,3.1388e-05,0
245.78,1.5106e-06,0
245.79,-3.2395e-05,0
245.79,-5.7404e-05,0
245.79,-5.4887e-05,0
245.79,-1.7792e-05,0
245.79,3.1724e-05,0
245.79,6.2272e-05,0
245.79,6.5293e-05,0
245.79,5.0187e-05,0
245.79,2.5177e-05,0
245.79,-3.0213e-06,0
245.79,-3.1388e-05,0
245.79,-5.8747e-05,0
245.79,-6.6972e-05,0
245.79,-3.8437e-05,0
245.79,1.0071e-05,0
245.79,4.3473e-05,0
245.79,5.0523e-05,0
245.79,4.5487e-05,0
245.79,4.2802e-05,0
245.79,4.5487e-05,0
245.8,5.0187e-05,0
245.8,5.4887e-05,0
245.8,5.7572e-05,0
245.8,6.1097e-05,0
245.8,6.4958e-05,0
245.8,6.0258e-05,0
245.8,4.2802e-05,0
245.8,1.8463e-05,0
245.8,-5.539e-06,0
245.8,-1.1246e-05,0
245.8,4.5319e-06,0
245.8,2.4674e-05,0
245.8,3.1388e-05,0
245.8,2.4842e-05,0
245.8,1.5442e-05,0
245.8,9.5674e-06,0
245.8,4.1962e-06,0
245.8,2.182e-06,0
245.8,6.5461e-06,0
245.81,1.1582e-05,0
245.81,1.1078e-05,0
245.81,4.1962e-06,0
245.81,0,0
245.81,5.8747e-06,0
245.81,1.3764e-05,0
245.81,1.5274e-05,0
245.81,1.4435e-05,0
245.81,1.5274e-05,0
245.81,1.5778e-05,0
245.81,1.2924e-05,0
245.81,1.561e-05,0
245.81,2.6688e-05,0
245.81,3.743e-05,0
245.81,3.9445e-05,0
245.81,3.2731e-05,0
245.81,1.8296e-05,0
245.81,9.5674e-06,0
245.81,9.5674e-06,0
245.82,2.182e-06,0
245.82,-6.5461e-06,0
245.82,-8.2246e-06,0
245.82,-8.2246e-06,0
245.82,-5.539e-06,0
245.82,6.2104e-06,0
245.82,2.6017e-05,0
245.82,4.2634e-05,0
245.82,4.5487e-05,0
245.82,4.0116e-05,0
245.82,3.5416e-05,0
245.82,3.1724e-05,0
245.82,2.887e-05,0
245.82,2.8031e-05,0
245.82,2.8702e-05,0
245.82,3.0045e-05,0
245.82,3.2059e-05,0
245.82,3.0884e-05,0
245.82,2.7359e-05,0
245.83,2.3835e-05,0
245.83,1.8967e-05,0
245.83,1.6617e-05,0
245.83,1.8631e-05,0
245.83,1.7792e-05,0
245.83,9.2317e-06,0
245.83,-1.8463e-06,0
245.83,-4.1962e-06,0
245.83,8.5603e-06,0
245.83,2.9374e-05,0
245.83,4.213e-05,0
245.83,3.827e-05,0
245.83,2.5345e-05,0
245.83,8.5603e-06,0
245.83,2.5177e-06,0
245.83,1.8631e-05,0
245.83,3.7598e-05,0
245.83,3.4073e-05,0
245.83,7.2175e-06,0
245.84,-1.6449e-05,0
245.84,-1.8799e-05,0
245.84,-1.1582e-05,0
245.84,-4.5319e-06,0
245.84,1.0071e-05,0
245.84,2.8031e-05,0
245.84,3.7766e-05,0
245.84,3.6088e-05,0
245.84,3.2059e-05,0
245.84,2.9374e-05,0
245.84,2.4674e-05,0
245.84,1.4939e-05,0
245.84,2.182e-06,0
245.84,-7.2175e-06,0
245.84,-8.3925e-07,0
245.84,2.7527e-05,0
245.84,6.0929e-05,0
245.84,8.0064e-05,0
245.84,8.3085e-05,0
245.84,7.6707e-05,0
245.85,5.7404e-05,0
245.85,2.5681e-05,0
245.85,5.2033e-06,0
245.85,1.2924e-05,0
245.85,3.6423e-05,0
245.85,5.2537e-05,0
245.85,4.9012e-05,0
245.85,3.6423e-05,0
245.85,3.0213e-05,0
245.85,2.4002e-05,0
245.85,7.7211e-06,0
245.85,-3.1891e-06,0
245.85,3.357e-07,0
245.85,5.7069e-06,0
245.85,4.3641e-06,0
245.85,2.8534e-06,0
245.85,1.0575e-05,0
245.85,2.266e-05,0
245.85,3.122e-05,0
245.86,3.592e-05,0
245.86,3.6423e-05,0
245.86,3.1724e-05,0
245.86,2.4002e-05,0
245.86,1.4603e-05,0
245.86,5.0355e-07,0
245.86,-1.2589e-05,0
245.86,-1.6281e-05,0
245.86,-8.2246e-06,0
245.86,4.1962e-06,0
245.86,1.091e-05,0
245.86,1.2589e-05,0
245.86,1.4603e-05,0
245.86,1.9974e-05,0
245.86,2.7695e-05,0
245.86,3.6591e-05,0
245.86,4.4816e-05,0
245.86,5.1194e-05,0
245.86,6.0258e-05,0
245.87,6.9657e-05,0
245.87,7.5364e-05,0
245.87,7.4189e-05,0
245.87,5.0523e-05,0
245.87,4.5319e-06,0
245.87,-3.5752e-05,0
245.87,-5.2033e-05,0
245.87,-4.4816e-05,0
245.87,-2.2995e-05,0
245.87,-5.7069e-06,0
245.87,-2.8534e-06,0
245.87,-9.2317e-06,0
245.87,-1.6953e-05,0
245.87,-2.3163e-05,0
245.87,-2.6184e-05,0
245.87,-2.0981e-05,0
245.87,-1.5274e-05,0
245.87,-1.091e-05,0
245.87,-2.182e-06,0
245.88,1.0071e-05,0
245.88,2.1149e-05,0
245.88,3.0716e-05,0
245.88,3.9445e-05,0
245.88,4.1459e-05,0
245.88,3.8773e-05,0
245.88,3.9445e-05,0
245.88,4.7166e-05,0
245.88,5.4887e-05,0
245.88,5.3208e-05,0
245.88,4.2466e-05,0
245.88,3.592e-05,0
245.88,4.1627e-05,0
245.88,5.0858e-05,0
245.88,5.6062e-05,0
245.88,5.1362e-05,0
245.88,3.4409e-05,0
245.88,1.561e-05,0
245.88,6.8818e-06,0
245.88,1.6785e-07,0
245.89,-4.8676e-06,0
245.89,8.3925e-07,0
245.89,1.6281e-05,0
245.89,3.3738e-05,0
245.89,4.3137e-05,0
245.89,4.448e-05,0
245.89,4.1459e-05,0
245.89,3.3402e-05,0
245.89,2.3499e-05,0
245.89,1.1414e-05,0
245.89,-6.714e-07,0
245.89,-1.6785e-06,0
245.89,6.8818e-06,0
245.89,1.1246e-05,0
245.89,1.2924e-05,0
245.89,1.4099e-05,0
245.89,1.6449e-05,0
245.89,2.0478e-05,0
245.89,2.1988e-05,0
245.9,1.9638e-05,0
245.9,1.7624e-05,0
245.9,1.7288e-05,0
245.9,1.8967e-05,0
245.9,2.4002e-05,0
245.9,2.8702e-05,0
245.9,3.1052e-05,0
245.9,2.9709e-05,0
245.9,1.796e-05,0
245.9,2.182e-06,0
245.9,1.1749e-06,0
245.9,1.326e-05,0
245.9,2.4842e-05,0
245.9,2.6017e-05,0
245.9,1.8463e-05,0
245.9,6.5461e-06,0
245.9,-1.4939e-05,0
245.9,-3.5416e-05,0
245.9,-3.5752e-05,0
245.91,-1.5946e-05,0
245.91,1.4267e-05,0
245.91,4.1459e-05,0
245.91,6.0594e-05,0
245.91,7.2343e-05,0
245.91,7.2343e-05,0
245.91,6.1433e-05,0
245.91,5.0858e-05,0
245.91,4.5487e-05,0
245.91,3.978e-05,0
245.91,3.6423e-05,0
245.91,4.2466e-05,0
245.91,5.1194e-05,0
245.91,4.9683e-05,0
245.91,4.0116e-05,0
245.91,3.3402e-05,0
245.91,3.0213e-05,0
245.91,1.8296e-05,0
245.91,-4.1962e-06,0
245.91,-2.1317e-05,0
245.92,-2.501e-05,0
245.92,-2.3331e-05,0
245.92,-2.501e-05,0
245.92,-2.5681e-05,0
245.92,-2.2324e-05,0
245.92,-1.7288e-05,0
245.92,-4.5319e-06,0
245.92,1.3764e-05,0
245.92,2.5345e-05,0
245.92,2.8702e-05,0
245.92,2.7695e-05,0
245.92,1.8631e-05,0
245.92,9.0639e-06,0
245.92,9.5674e-06,0
245.92,1.7121e-05,0
245.92,2.1317e-05,0
245.92,1.5946e-05,0
245.92,1.0575e-05,0
245.92,1.8463e-05,0
245.93,3.9109e-05,0
245.93,6.0929e-05,0
245.93,7.1672e-05,0
245.93,6.5293e-05,0
245.93,4.5991e-05,0
245.93,2.2324e-05,0
245.93,6.8818e-06,0
245.93,9.2317e-06,0
245.93,2.1988e-05,0
245.93,3.2059e-05,0
245.93,3.4073e-05,0
245.93,3.0884e-05,0
245.93,2.501e-05,0
245.93,2.5345e-05,0
245.93,2.5177e-05,0
245.93,1.9974e-05,0
245.93,1.4603e-05,0
245.93,2.2492e-05,0
245.93,4.7166e-05,0
245.94,7.3182e-05,0
245.94,8.4596e-05,0
245.94,8.0064e-05,0
245.94,6.9322e-05,0
245.94,5.388e-05,0
245.94,3.1388e-05,0
245.94,2.182e-06,0
245.94,-2.417e-05,0
245.94,-3.2395e-05,0
245.94,-2.1988e-05,0
245.94,-3.5248e-06,0
245.94,9.0639e-06,0
245.94,8.896e-06,0
245.94,5.0355e-07,0
245.94,-4.8676e-06,0
245.94,-4.1962e-06,0
245.94,-1.6785e-06,0
245.94,6.3783e-06,0
245.94,1.6617e-05,0
245.95,1.3764e-05,0
245.95,-1.1078e-05,0
245.95,-3.8773e-05,0
245.95,-3.4241e-05,0
245.95,5.2033e-06,0
245.95,4.8173e-05,0
245.95,6.7308e-05,0
245.95,6.244e-05,0
245.95,5.0187e-05,0
245.95,4.213e-05,0
245.95,3.7766e-05,0
245.95,3.7263e-05,0
245.95,3.743e-05,0
245.95,3.6088e-05,0
245.95,3.2059e-05,0
245.95,2.6688e-05,0
245.95,2.1988e-05,0
245.95,1.796e-05,0
245.95,1.9471e-05,0
245.95,2.652e-05,0
245.96,3.5248e-05,0
245.96,4.1459e-05,0
245.96,4.0787e-05,0
245.96,3.1052e-05,0
245.96,1.6953e-05,0
245.96,1.326e-05,0
245.96,2.3667e-05,0
245.96,2.4002e-05,0
245.96,9.2317e-06,0
245.96,0,0
245.96,7.2175e-06,0
245.96,2.0813e-05,0
245.96,2.887e-05,0
245.96,3.357e-05,0
245.96,3.2898e-05,0
245.96,2.2995e-05,0
245.96,5.8747e-06,0
245.96,-1.091e-05,0
245.96,-1.4435e-05,0
245.97,-1.5106e-06,0
245.97,8.896e-06,0
245.97,5.8747e-06,0
245.97,-3.1891e-06,0
245.97,-3.5248e-06,0
245.97,4.3641e-06,0
245.97,1.4435e-05,0
245.97,1.9135e-05,0
245.97,1.5778e-05,0
245.97,8.3925e-06,0
245.97,-2.3499e-06,0
245.97,-1.8296e-05,0
245.97,-2.3835e-05,0
245.97,-1.3931e-05,0
245.97,1.1749e-06,0
245.97,1.6785e-05,0
245.97,3.6088e-05,0
245.97,5.4719e-05,0
245.97,6.2272e-05,0
245.98,6.0258e-05,0
245.98,5.4887e-05,0
245.98,4.8676e-05,0
245.98,4.1123e-05,0
245.98,3.1388e-05,0
245.98,2.1149e-05,0
245.98,9.5674e-06,0
245.98,-2.182e-06,0
245.98,-6.2104e-06,0
245.98,2.5177e-06,0
245.98,1.8631e-05,0
245.98,3.122e-05,0
245.98,3.4073e-05,0
245.98,3.0045e-05,0
245.98,2.2492e-05,0
245.98,1.5946e-05,0
245.98,1.0407e-05,0
245.98,9.7353e-06,0
245.98,1.561e-05,0
245.99,2.2324e-05,0
245.99,2.5177e-05,0
245.99,2.5681e-05,0
245.99,2.3667e-05,0
245.99,2.4674e-05,0
245.99,3.1052e-05,0
245.99,4.2298e-05,0
245.99,5.2537e-05,0
245.99,5.9251e-05,0
245.99,5.8579e-05,0
245.99,3.8773e-05,0
245.99,-8.5603e-06,0
245.99,-5.6733e-05,0
245.99,-8.7785e-05,0
245.99,-9.7185e-05,0
245.99,-6.4454e-05,0
245.99,8.3925e-07,0
245.99,5.8915e-05,0
245.99,8.4428e-05,0
245.99,8.2078e-05,0
246,6.9657e-05,0
246,5.6901e-05,0
246,4.3809e-05,0
246,3.6759e-05,0
246,3.5752e-05,0
246,3.2563e-05,0
246,2.2995e-05,0
246,1.2589e-05,0
246,1.1078e-05,0
246,2.1988e-05,0
246,4.1459e-05,0
246,5.6901e-05,0
246,5.8579e-05,0
246,5.2705e-05,0
246,4.6159e-05,0
246,3.0716e-05,0
246,6.3783e-06,0
246,-1.7121e-05,0
246,-3.3402e-05,0
246.01,-4.6326e-05,0
246.01,-5.7237e-05,0
246.01,-5.5055e-05,0
246.01,-2.266e-05,0
246.01,3.2395e-05,0
246.01,7.1672e-05,0
246.01,7.4693e-05,0
246.01,5.4047e-05,0
246.01,2.7192e-05,0
246.01,5.8747e-06,0
246.01,-8.2246e-06,0
246.01,-9.5674e-06,0
246.01,8.2246e-06,0
246.01,3.3402e-05,0
246.01,4.918e-05,0
246.01,5.5558e-05,0
246.01,5.8244e-05,0
246.01,5.6733e-05,0
246.01,5.304e-05,0
246.02,4.7333e-05,0
246.02,4.3305e-05,0
246.02,4.4816e-05,0
246.02,4.4144e-05,0
246.02,3.7263e-05,0
246.02,2.8367e-05,0
246.02,1.6449e-05,0
246.02,-2.8534e-06,0
246.02,-2.2995e-05,0
246.02,-2.9374e-05,0
246.02,-1.3596e-05,0
246.02,1.1582e-05,0
246.02,2.9877e-05,0
246.02,3.9109e-05,0
246.02,4.5487e-05,0
246.02,4.4648e-05,0
246.02,1.9471e-05,0
246.02,-2.5849e-05,0
246.02,-5.7404e-05,0
246.03,-5.7237e-05,0
246.03,-2.6184e-05,0
246.03,1.4267e-05,0
246.03,3.508e-05,0
246.03,3.0549e-05,0
246.03,2.0142e-05,0
246.03,1.9135e-05,0
246.03,1.6953e-05,0
246.03,8.5603e-06,0
246.03,2.5177e-06,0
246.03,1.8463e-06,0
246.03,2.182e-06,0
246.03,-1.8463e-06,0
246.03,-9.2317e-06,0
246.03,-1.6281e-05,0
246.03,-1.8967e-05,0
246.03,-7.0497e-06,0
246.03,2.1317e-05,0
246.03,4.9516e-05,0
246.03,6.4286e-05,0
246.04,6.5461e-05,0
246.04,5.4719e-05,0
246.04,4.2634e-05,0
246.04,3.9445e-05,0
246.04,4.0116e-05,0
246.04,3.2059e-05,0
246.04,1.7121e-05,0
246.04,9.3996e-06,0
246.04,1.8463e-05,0
246.04,3.7934e-05,0
246.04,5.6565e-05,0
246.04,6.6972e-05,0
246.04,6.9993e-05,0
246.04,6.8147e-05,0
246.04,5.5894e-05,0
246.04,3.0884e-05,0
246.04,-6.3783e-06,0
246.04,-4.1459e-05,0
246.04,-5.2537e-05,0
246.05,-3.0045e-05,0
246.05,1.561e-05,0
246.05,6.0929e-05,0
246.05,8.4764e-05,0
246.05,7.6875e-05,0
246.05,3.6088e-05,0
246.05,-1.4435e-05,0
246.05,-3.7263e-05,0
246.05,-2.4338e-05,0
246.05,1.0071e-06,0
246.05,2.1988e-05,0
246.05,3.3738e-05,0
246.05,3.7095e-05,0
246.05,3.3234e-05,0
246.05,2.3667e-05,0
246.05,1.6617e-05,0
246.05,1.6953e-05,0
246.05,1.4099e-05,0
246.05,-8.3925e-07,0
246.06,-1.8463e-05,0
246.06,-2.0813e-05,0
246.06,-3.357e-06,0
246.06,1.4603e-05,0
246.06,1.326e-05,0
246.06,4.1962e-06,0
246.06,1.1917e-05,0
246.06,3.8102e-05,0
246.06,5.8915e-05,0
246.06,5.6901e-05,0
246.06,4.3641e-05,0
246.06,4.3809e-05,0
246.06,5.8915e-05,0
246.06,7.2511e-05,0
246.06,7.7379e-05,0
246.06,7.2175e-05,0
246.06,5.9419e-05,0
246.06,4.2802e-05,0
246.06,1.4771e-05,0
246.06,-2.5681e-05,0
246.07,-5.3376e-05,0
246.07,-4.6494e-05,0
246.07,-8.2246e-06,0
246.07,2.9374e-05,0
246.07,4.1794e-05,0
246.07,2.9038e-05,0
246.07,8.3925e-06,0
246.07,-3.1891e-06,0
246.07,-1.6785e-06,0
246.07,-5.0355e-07,0
246.07,1.1749e-06,0
246.07,4.8676e-06,0
246.07,5.0355e-07,0
246.07,-1.6785e-06,0
246.07,7.3854e-06,0
246.07,2.266e-05,0
246.07,3.9277e-05,0
246.07,5.3544e-05,0
246.07,6.7643e-05,0
246.08,7.4525e-05,0
246.08,6.865e-05,0
246.08,5.4887e-05,0
246.08,3.8773e-05,0
246.08,3.0716e-05,0
246.08,2.8367e-05,0
246.08,1.6953e-05,0
246.08,2.3499e-06,0
246.08,-7.3854e-06,0
246.08,-4.1962e-06,0
246.08,1.2757e-05,0
246.08,2.6688e-05,0
246.08,2.7695e-05,0
246.08,2.1988e-05,0
246.08,1.4603e-05,0
246.08,1.3931e-05,0
246.08,1.8631e-05,0
246.08,1.7624e-05,0
246.08,1.0575e-05,0
246.09,1.1582e-05,0
246.09,1.9638e-05,0
246.09,2.4674e-05,0
246.09,2.1149e-05,0
246.09,1.5274e-05,0
246.09,1.4099e-05,0
246.09,1.7288e-05,0
246.09,2.4506e-05,0
246.09,2.9877e-05,0
246.09,2.5513e-05,0
246.09,1.5442e-05,0
246.09,8.5603e-06,0
246.09,6.5461e-06,0
246.09,3.8605e-06,0
246.09,1.6785e-06,0
246.09,4.8676e-06,0
246.09,1.2924e-05,0
246.09,2.0645e-05,0
246.09,2.4674e-05,0
246.1,2.7024e-05,0
246.1,3.1388e-05,0
246.1,3.6423e-05,0
246.1,3.8773e-05,0
246.1,3.9277e-05,0
246.1,3.6759e-05,0
246.1,3.2059e-05,0
246.1,2.3163e-05,0
246.1,8.5603e-06,0
246.1,-3.8605e-06,0
246.1,-1.091e-05,0
246.1,-1.5442e-05,0
246.1,-1.4267e-05,0
246.1,-5.2033e-06,0
246.1,7.8889e-06,0
246.1,1.9974e-05,0
246.1,2.8367e-05,0
246.1,3.1556e-05,0
246.1,2.7863e-05,0
246.1,2.4338e-05,0
246.11,2.4338e-05,0
246.11,1.9974e-05,0
246.11,4.6998e-06,0
246.11,-1.2589e-05,0
246.11,-1.8967e-05,0
246.11,-8.7282e-06,0
246.11,1.4267e-05,0
246.11,3.3402e-05,0
246.11,3.9277e-05,0
246.11,3.743e-05,0
246.11,2.6352e-05,0
246.11,1.1917e-05,0
246.11,6.0426e-06,0
246.11,1.0575e-05,0
246.11,1.9638e-05,0
246.11,3.1052e-05,0
246.11,3.9277e-05,0
246.11,3.4073e-05,0
246.11,1.8296e-05,0
246.12,8.896e-06,0
246.12,1.8296e-05,0
246.12,4.0116e-05,0
246.12,5.4887e-05,0
246.12,5.5558e-05,0
246.12,4.8173e-05,0
246.12,3.9277e-05,0
246.12,2.3667e-05,0
246.12,-9.9031e-06,0
246.12,-3.4745e-05,0
246.12,-2.2324e-05,0
246.12,6.2104e-06,0
246.12,1.8967e-05,0
246.12,1.6953e-05,0
246.12,1.4939e-05,0
246.12,1.5274e-05,0
246.12,1.9303e-05,0
246.12,2.1317e-05,0
246.12,2.1317e-05,0
246.13,2.4674e-05,0
246.13,2.9541e-05,0
246.13,3.1388e-05,0
246.13,2.9709e-05,0
246.13,2.6352e-05,0
246.13,2.7024e-05,0
246.13,3.5752e-05,0
246.13,4.4648e-05,0
246.13,4.8508e-05,0
246.13,4.6159e-05,0
246.13,3.2563e-05,0
246.13,1.1917e-05,0
246.13,-1.5106e-06,0
246.13,-1.1749e-06,0
246.13,3.6927e-06,0
246.13,8.5603e-06,0
246.13,1.5946e-05,0
246.13,2.6017e-05,0
246.13,3.2395e-05,0
246.14,2.2995e-05,0
246.14,3.5248e-06,0
246.14,-1.0742e-05,0
246.14,-5.2033e-06,0
246.14,1.5442e-05,0
246.14,2.6017e-05,0
246.14,2.2995e-05,0
246.14,2.6017e-05,0
246.14,3.6759e-05,0
246.14,3.8941e-05,0
246.14,2.2156e-05,0
246.14,-8.2246e-06,0
246.14,-2.7024e-05,0
246.14,-1.3596e-05,0
246.14,1.5946e-05,0
246.14,3.3738e-05,0
246.14,3.2059e-05,0
246.14,1.8631e-05,0
246.14,7.2175e-06,0
246.15,3.6927e-06,0
246.15,5.2033e-06,0
246.15,1.1749e-05,0
246.15,2.2492e-05,0
246.15,3.8102e-05,0
246.15,5.1194e-05,0
246.15,5.7237e-05,0
246.15,5.5726e-05,0
246.15,5.0355e-05,0
246.15,4.1627e-05,0
246.15,2.887e-05,0
246.15,1.6785e-05,0
246.15,1.3092e-05,0
246.15,1.4603e-05,0
246.15,1.326e-05,0
246.15,6.8818e-06,0
246.15,7.0497e-06,0
246.15,2.0645e-05,0
246.15,3.508e-05,0
246.15,3.8437e-05,0
246.16,3.5416e-05,0
246.16,3.3402e-05,0
246.16,3.3906e-05,0
246.16,3.6255e-05,0
246.16,3.7934e-05,0
246.16,3.6927e-05,0
246.16,3.3906e-05,0
246.16,3.0213e-05,0
246.16,2.7695e-05,0
246.16,2.6688e-05,0
246.16,2.3667e-05,0
246.16,1.7288e-05,0
246.16,1.2253e-05,0
246.16,8.5603e-06,0
246.16,8.2246e-06,0
246.16,1.4267e-05,0
246.16,2.1149e-05,0
246.16,2.4842e-05,0
246.16,2.9709e-05,0
246.17,3.5416e-05,0
246.17,3.5416e-05,0
246.17,2.2995e-05,0
246.17,-8.3925e-07,0
246.17,-2.9206e-05,0
246.17,-3.8605e-05,0
246.17,-1.1917e-05,0
246.17,2.501e-05,0
246.17,4.3137e-05,0
246.17,4.2466e-05,0
246.17,3.5752e-05,0
246.17,2.5681e-05,0
246.17,6.8818e-06,0
246.17,-1.091e-05,0
246.17,-1.5442e-05,0
246.17,-1.6449e-05,0
246.17,-1.8296e-05,0
246.17,-1.091e-05,0
246.17,3.5248e-06,0
246.18,1.5946e-05,0
246.18,1.7456e-05,0
246.18,9.2317e-06,0
246.18,0,0
246.18,-3.357e-06,0
246.18,4.8676e-06,0
246.18,1.9974e-05,0
246.18,2.9709e-05,0
246.18,3.4073e-05,0
246.18,4.0955e-05,0
246.18,4.4816e-05,0
246.18,4.0116e-05,0
246.18,3.3234e-05,0
246.18,2.8702e-05,0
246.18,2.6352e-05,0
246.18,2.7024e-05,0
246.18,2.6352e-05,0
246.18,2.5177e-05,0
246.18,2.6017e-05,0
246.19,2.9877e-05,0
246.19,3.3402e-05,0
246.19,3.2395e-05,0
246.19,2.6184e-05,0
246.19,2.0645e-05,0
246.19,2.0142e-05,0
246.19,1.9974e-05,0
246.19,8.2246e-06,0
246.19,-1.5274e-05,0
246.19,-2.6017e-05,0
246.19,-1.8128e-05,0
246.19,-8.3925e-06,0
246.19,2.182e-06,0
246.19,1.561e-05,0
246.19,2.4002e-05,0
246.19,2.8367e-05,0
246.19,2.8702e-05,0
246.19,1.6785e-05,0
246.19,-1.1749e-06,0
246.19,-4.1962e-06,0
246.2,1.1749e-05,0
246.2,3.4073e-05,0
246.2,5.2201e-05,0
246.2,6.5293e-05,0
246.2,7.0161e-05,0
246.2,6.6133e-05,0
246.2,5.6901e-05,0
246.2,4.9348e-05,0
246.2,4.2802e-05,0
246.2,3.743e-05,0
246.2,3.122e-05,0
246.2,2.8702e-05,0
246.2,2.9709e-05,0
246.2,2.8367e-05,0
246.2,2.3835e-05,0
246.2,1.9135e-05,0
246.2,1.4267e-05,0
246.2,1.561e-05,0
246.2,2.1988e-05,0
246.21,1.8967e-05,0
246.21,2.182e-06,0
246.21,-2.5681e-05,0
246.21,-5.304e-05,0
246.21,-5.0523e-05,0
246.21,-1.3428e-05,0
246.21,2.6017e-05,0
246.21,4.4144e-05,0
246.21,4.4816e-05,0
246.21,3.978e-05,0
246.21,3.4409e-05,0
246.21,2.8702e-05,0
246.21,2.4674e-05,0
246.21,2.4338e-05,0
246.21,2.652e-05,0
246.21,2.9709e-05,0
246.21,3.2563e-05,0
246.21,3.5752e-05,0
246.21,3.8102e-05,0
246.22,3.8437e-05,0
246.22,3.6423e-05,0
246.22,3.2731e-05,0
246.22,2.9709e-05,0
246.22,2.6688e-05,0
246.22,2.6688e-05,0
246.22,2.9038e-05,0
246.22,2.8199e-05,0
246.22,2.1653e-05,0
246.22,9.9031e-06,0
246.22,6.714e-07,0
246.22,2.5177e-06,0
246.22,1.6617e-05,0
246.22,3.4745e-05,0
246.22,4.2634e-05,0
246.22,4.2298e-05,0
246.22,4.5487e-05,0
246.22,5.0858e-05,0
246.22,4.918e-05,0
246.22,3.8102e-05,0
246.23,2.6017e-05,0
246.23,1.2924e-05,0
246.23,-9.2317e-06,0
246.23,-2.7695e-05,0
246.23,-2.5177e-05,0
246.23,-5.0355e-06,0
246.23,1.1917e-05,0
246.23,1.6449e-05,0
246.23,1.5778e-05,0
246.23,1.4603e-05,0
246.23,1.4267e-05,0
246.23,1.4939e-05,0
246.23,1.7121e-05,0
246.23,1.9638e-05,0
246.23,1.9806e-05,0
246.23,2.3331e-05,0
246.23,2.9709e-05,0
246.23,3.2059e-05,0
246.23,2.1653e-05,0
246.24,7.2175e-06,0
246.24,4.5319e-06,0
246.24,1.4267e-05,0
246.24,2.5849e-05,0
246.24,3.1052e-05,0
246.24,3.0045e-05,0
246.24,3.0045e-05,0
246.24,3.4745e-05,0
246.24,3.3738e-05,0
246.24,1.8967e-05,0
246.24,-3.1891e-06,0
246.24,-2.1317e-05,0
246.24,-1.4267e-05,0
246.24,9.5674e-06,0
246.24,2.652e-05,0
246.24,3.1388e-05,0
246.24,2.9709e-05,0
246.24,2.4674e-05,0
246.24,2.3835e-05,0
246.25,3.1556e-05,0
246.25,4.448e-05,0
246.25,5.6062e-05,0
246.25,5.9419e-05,0
246.25,5.539e-05,0
246.25,4.683e-05,0
246.25,4.3641e-05,0
246.25,4.4816e-05,0
246.25,4.3977e-05,0
246.25,3.3906e-05,0
246.25,1.6449e-05,0
246.25,5.0355e-07,0
246.25,-1.6953e-05,0
246.25,-3.508e-05,0
246.25,-4.0452e-05,0
246.25,-3.8605e-05,0
246.25,-2.9374e-05,0
246.25,-6.8818e-06,0
246.25,1.3764e-05,0
246.26,2.031e-05,0
246.26,1.796e-05,0
246.26,1.6953e-05,0
246.26,1.796e-05,0
246.26,2.2324e-05,0
246.26,2.8702e-05,0
246.26,3.1556e-05,0
246.26,2.8534e-05,0
246.26,2.4842e-05,0
246.26,2.0981e-05,0
246.26,3.5248e-06,0
246.26,-2.9709e-05,0
246.26,-4.3809e-05,0
246.26,-2.0981e-05,0
246.26,1.5946e-05,0
246.26,3.8102e-05,0
246.26,3.9612e-05,0
246.26,3.1891e-05,0
246.26,2.6688e-05,0
246.26,2.4002e-05,0
246.27,2.501e-05,0
246.27,3.1556e-05,0
246.27,4.1794e-05,0
246.27,5.069e-05,0
246.27,5.2873e-05,0
246.27,5.0187e-05,0
246.27,4.6494e-05,0
246.27,4.1123e-05,0
246.27,3.6088e-05,0
246.27,2.7359e-05,0
246.27,1.1917e-05,0
246.27,2.5177e-06,0
246.27,7.3854e-06,0
246.27,1.6953e-05,0
246.27,2.1317e-05,0
246.27,2.1149e-05,0
246.27,2.1317e-05,0
246.27,2.1317e-05,0
246.27,1.9303e-05,0
246.28,1.5778e-05,0
246.28,1.2924e-05,0
246.28,1.6281e-05,0
246.28,2.4002e-05,0
246.28,3.0213e-05,0
246.28,3.357e-05,0
246.28,3.1052e-05,0
246.28,2.4002e-05,0
246.28,1.9303e-05,0
246.28,1.326e-05,0
246.28,-4.0284e-06,0
246.28,-2.4506e-05,0
246.28,-2.8367e-05,0
246.28,-8.5603e-06,0
246.28,2.182e-05,0
246.28,4.3473e-05,0
246.28,5.069e-05,0
246.28,5.1194e-05,0
246.28,4.9851e-05,0
246.29,4.4144e-05,0
246.29,3.1724e-05,0
246.29,1.1582e-05,0
246.29,-8.2246e-06,0
246.29,-7.8889e-06,0
246.29,1.2421e-05,0
246.29,3.0549e-05,0
246.29,3.9277e-05,0
246.29,3.8437e-05,0
246.29,2.6688e-05,0
246.29,7.2175e-06,0
246.29,-1.2589e-05,0
246.29,-1.9303e-05,0
246.29,-9.3996e-06,0
246.29,8.2246e-06,0
246.29,2.3667e-05,0
246.29,3.508e-05,0
246.29,4.0787e-05,0
246.29,3.6927e-05,0
246.29,3.0716e-05,0
246.3,3.2059e-05,0
246.3,3.8102e-05,0
246.3,4.1794e-05,0
246.3,3.5584e-05,0
246.3,2.501e-05,0
246.3,1.7624e-05,0
246.3,1.326e-05,0
246.3,1.0575e-05,0
246.3,5.8747e-06,0
246.3,-1.6785e-07,0
246.3,-4.5319e-06,0
246.3,-2.6856e-06,0
246.3,1.1749e-06,0
246.3,1.5106e-06,0
246.3,2.5177e-06,0
246.3,1.0239e-05,0
246.3,2.2156e-05,0
246.3,3.2731e-05,0
246.3,3.8605e-05,0
246.31,3.9277e-05,0
246.31,3.8605e-05,0
246.31,4.1459e-05,0
246.31,4.6159e-05,0
246.31,5.1194e-05,0
246.31,5.0523e-05,0
246.31,3.978e-05,0
246.31,2.6352e-05,0
246.31,9.2317e-06,0
246.31,-2.0142e-05,0
246.31,-4.8508e-05,0
246.31,-5.1194e-05,0
246.31,-2.3163e-05,0
246.31,1.9471e-05,0
246.31,4.8005e-05,0
246.31,4.7837e-05,0
246.31,3.2395e-05,0
246.31,2.4338e-05,0
246.31,3.0549e-05,0
246.32,4.1459e-05,0
246.32,4.5487e-05,0
246.32,4.2466e-05,0
246.32,3.6088e-05,0
246.32,2.9709e-05,0
246.32,2.4002e-05,0
246.32,2.031e-05,0
246.32,1.4939e-05,0
246.32,7.8889e-06,0
246.32,7.8889e-06,0
246.32,1.326e-05,0
246.32,1.8631e-05,0
246.32,2.3667e-05,0
246.32,2.0478e-05,0
246.32,1.326e-05,0
246.32,1.326e-05,0
246.32,1.5442e-05,0
246.32,1.5778e-05,0
246.32,1.9135e-05,0
246.33,2.6017e-05,0
246.33,3.2059e-05,0
246.33,3.1052e-05,0
246.33,1.796e-05,0
246.33,2.5177e-06,0
246.33,-3.0213e-06,0
246.33,-3.357e-06,0
246.33,-3.8605e-06,0
246.33,-1.6785e-06,0
246.33,4.5319e-06,0
246.33,1.9974e-05,0
246.33,3.6423e-05,0
246.33,4.3977e-05,0
246.33,4.3809e-05,0
246.33,4.3809e-05,0
246.33,4.3977e-05,0
246.33,4.1794e-05,0
246.33,4.1291e-05,0
246.33,4.2802e-05,0
246.34,3.743e-05,0
246.34,2.501e-05,0
246.34,1.326e-05,0
246.34,8.0568e-06,0
246.34,3.357e-06,0
246.34,-2.182e-06,0
246.34,-1.5106e-06,0
246.34,3.6927e-06,0
246.34,4.0284e-06,0
246.34,-2.0142e-06,0
246.34,-6.5461e-06,0
246.34,-8.3925e-07,0
246.34,9.5674e-06,0
246.34,1.4603e-05,0
246.34,1.4603e-05,0
246.34,1.3428e-05,0
246.34,1.796e-05,0
246.34,2.5177e-05,0
246.34,2.501e-05,0
246.34,2.7192e-05,0
246.35,3.8102e-05,0
246.35,4.8676e-05,0
246.35,4.5823e-05,0
246.35,3.4073e-05,0
246.35,2.8534e-05,0
246.35,2.9541e-05,0
246.35,2.7024e-05,0
246.35,2.0981e-05,0
246.35,1.5946e-05,0
246.35,8.7282e-06,0
246.35,4.1962e-06,0
246.35,1.1078e-05,0
246.35,2.5177e-05,0
246.35,3.4745e-05,0
246.35,3.6927e-05,0
246.35,3.6759e-05,0
246.35,3.7766e-05,0
246.35,3.6759e-05,0
246.35,2.6688e-05,0
246.36,6.8818e-06,0
246.36,-1.091e-05,0
246.36,-1.4267e-05,0
246.36,-4.8676e-06,0
246.36,9.2317e-06,0
246.36,1.4435e-05,0
246.36,8.896e-06,0
246.36,3.5248e-06,0
246.36,5.7069e-06,0
246.36,1.3764e-05,0
246.36,2.3835e-05,0
246.36,3.2059e-05,0
246.36,4.0116e-05,0
246.36,4.7166e-05,0
246.36,4.4816e-05,0
246.36,3.2563e-05,0
246.36,1.5946e-05,0
246.36,4.5319e-06,0
246.36,3.6927e-06,0
246.37,1.091e-05,0
246.37,2.6017e-05,0
246.37,3.9445e-05,0
246.37,4.2298e-05,0
246.37,3.1052e-05,0
246.37,1.0575e-05,0
246.37,8.3925e-07,0
246.37,9.2317e-06,0
246.37,1.8631e-05,0
246.37,1.1246e-05,0
246.37,-1.6785e-07,0
246.37,8.3925e-06,0
246.37,3.0716e-05,0
246.37,4.683e-05,0
246.37,5.0858e-05,0
246.37,4.918e-05,0
246.37,4.5487e-05,0
246.37,3.9109e-05,0
246.37,3.0716e-05,0
246.38,2.6688e-05,0
246.38,2.4338e-05,0
246.38,1.9303e-05,0
246.38,1.0407e-05,0
246.38,5.7069e-06,0
246.38,1.1917e-05,0
246.38,2.4674e-05,0
246.38,3.6591e-05,0
246.38,4.2802e-05,0
246.38,4.213e-05,0
246.38,3.2059e-05,0
246.38,1.8631e-05,0
246.38,8.7282e-06,0
246.38,4.0284e-06,0
246.38,3.1891e-06,0
246.38,4.1962e-06,0
246.38,-3.357e-07,0
246.38,-9.9031e-06,0
246.38,-1.6449e-05,0
246.38,-1.4099e-05,0
246.39,-7.5532e-06,0
246.39,-4.3641e-06,0
246.39,8.3925e-07,0
246.39,9.2317e-06,0
246.39,1.1078e-05,0
246.39,5.0355e-06,0
246.39,3.0213e-06,0
246.39,9.9031e-06,0
246.39,1.5778e-05,0
246.39,1.8463e-05,0
246.39,2.501e-05,0
246.39,4.0787e-05,0
246.39,5.6901e-05,0
246.39,5.8412e-05,0
246.39,4.6662e-05,0
246.39,3.4241e-05,0
246.39,2.3331e-05,0
246.39,8.896e-06,0
246.39,-1.8463e-06,0
246.4,4.1962e-06,0
246.4,1.9303e-05,0
246.4,3.2395e-05,0
246.4,4.0787e-05,0
246.4,4.2802e-05,0
246.4,4.1459e-05,0
246.4,3.978e-05,0
246.4,3.9109e-05,0
246.4,3.743e-05,0
246.4,3.122e-05,0
246.4,2.3331e-05,0
246.4,1.9135e-05,0
246.4,1.3931e-05,0
246.4,6.5461e-06,0
246.4,5.8747e-06,0
246.4,1.561e-05,0
246.4,2.8367e-05,0
246.4,3.3066e-05,0
246.4,2.7192e-05,0
246.41,2.1317e-05,0
246.41,2.3499e-05,0
246.41,2.7024e-05,0
246.41,2.6352e-05,0
246.41,2.652e-05,0
246.41,3.2731e-05,0
246.41,4.0116e-05,0
246.41,3.7766e-05,0
246.41,2.417e-05,0
246.41,1.326e-05,0
246.41,7.8889e-06,0
246.41,2.5177e-06,0
246.41,-3.8605e-06,0
246.41,-9.9031e-06,0
246.41,-1.2757e-05,0
246.41,-1.3092e-05,0
246.41,-1.0239e-05,0
246.41,-1.5106e-06,0
246.41,1.1246e-05,0
246.41,1.9806e-05,0
246.42,1.9974e-05,0
246.42,2.0478e-05,0
246.42,2.7695e-05,0
246.42,3.4577e-05,0
246.42,3.2731e-05,0
246.42,2.0478e-05,0
246.42,5.0355e-07,0
246.42,-2.2156e-05,0
246.42,-3.5584e-05,0
246.42,-2.4674e-05,0
246.42,1.8463e-06,0
246.42,2.6352e-05,0
246.42,3.6759e-05,0
246.42,3.2563e-05,0
246.42,2.3331e-05,0
246.42,1.9638e-05,0
246.42,2.2828e-05,0
246.42,3.0045e-05,0
246.42,3.5416e-05,0
246.43,3.2059e-05,0
246.43,2.5177e-05,0
246.43,2.0981e-05,0
246.43,2.3331e-05,0
246.43,3.1556e-05,0
246.43,3.8773e-05,0
246.43,3.978e-05,0
246.43,3.4241e-05,0
246.43,3.2059e-05,0
246.43,3.743e-05,0
246.43,4.4144e-05,0
246.43,4.9012e-05,0
246.43,5.1194e-05,0
246.43,5.0187e-05,0
246.43,4.5151e-05,0
246.43,3.9109e-05,0
246.43,3.3066e-05,0
246.43,2.2324e-05,0
246.43,1.2253e-05,0
246.44,2.6856e-06,0
246.44,-6.5461e-06,0
246.44,-8.896e-06,0
246.44,-4.6998e-06,0
246.44,6.714e-07,0
246.44,1.5106e-06,0
246.44,8.3925e-07,0
246.44,-8.3925e-07,0
246.44,-8.3925e-07,0
246.44,3.8605e-06,0
246.44,7.8889e-06,0
246.44,7.8889e-06,0
246.44,4.5319e-06,0
246.44,4.5319e-06,0
246.44,1.2085e-05,0
246.44,1.1917e-05,0
246.44,-9.9031e-06,0
246.44,-3.3234e-05,0
246.44,-3.1724e-05,0
246.45,-7.5532e-06,0
246.45,1.8967e-05,0
246.45,3.6759e-05,0
246.45,4.2466e-05,0
246.45,3.8437e-05,0
246.45,2.8702e-05,0
246.45,2.0142e-05,0
246.45,1.5442e-05,0
246.45,1.7288e-05,0
246.45,2.2156e-05,0
246.45,2.8702e-05,0
246.45,3.4745e-05,0
246.45,3.9445e-05,0
246.45,4.4816e-05,0
246.45,4.7333e-05,0
246.45,4.5823e-05,0
246.45,4.4144e-05,0
246.45,3.9109e-05,0
246.45,3.0549e-05,0
246.46,2.6352e-05,0
246.46,2.266e-05,0
246.46,1.4939e-05,0
246.46,1.7624e-05,0
246.46,3.6423e-05,0
246.46,5.4887e-05,0
246.46,6.0258e-05,0
246.46,5.388e-05,0
246.46,4.683e-05,0
246.46,4.2802e-05,0
246.46,3.8605e-05,0
246.46,3.357e-05,0
246.46,3.3066e-05,0
246.46,3.7934e-05,0
246.46,4.0116e-05,0
246.46,3.2731e-05,0
246.46,2.1653e-05,0
246.46,1.4435e-05,0
246.46,1.1246e-05,0
246.46,1.1917e-05,0
246.47,1.326e-05,0
246.47,1.2589e-05,0
246.47,1.326e-05,0
246.47,1.8631e-05,0
246.47,2.2324e-05,0
246.47,1.2757e-05,0
246.47,-7.2175e-06,0
246.47,-2.5177e-05,0
246.47,-3.6591e-05,0
246.47,-3.7934e-05,0
246.47,-2.1653e-05,0
246.47,4.1962e-06,0
246.47,2.6017e-05,0
246.47,3.7934e-05,0
246.47,4.062e-05,0
246.47,3.7934e-05,0
246.47,3.1891e-05,0
246.47,2.652e-05,0
246.47,2.3667e-05,0
246.48,2.1988e-05,0
246.48,1.7624e-05,0
246.48,1.3092e-05,0
246.48,1.6617e-05,0
246.48,2.7695e-05,0
246.48,3.6927e-05,0
246.48,3.8102e-05,0
246.48,4.2634e-05,0
246.48,5.304e-05,0
246.48,5.8244e-05,0
246.48,4.918e-05,0
246.48,2.1653e-05,0
246.48,-8.3925e-07,0
246.48,4.8676e-06,0
246.48,2.2324e-05,0
246.48,2.5345e-05,0
246.48,1.796e-05,0
246.48,9.7353e-06,0
246.48,3.5248e-06,0
246.49,4.1962e-06,0
246.49,4.5319e-06,0
246.49,-2.0142e-06,0
246.49,-6.8818e-06,0
246.49,-5.8747e-06,0
246.49,-1.6785e-06,0
246.49,2.8534e-06,0
246.49,9.2317e-06,0
246.49,1.5946e-05,0
246.49,2.2324e-05,0
246.49,2.9206e-05,0
246.49,3.4409e-05,0
246.49,3.5248e-05,0
246.49,3.2395e-05,0
246.49,2.7527e-05,0
246.49,2.7863e-05,0
246.49,3.1724e-05,0
246.49,2.7359e-05,0
246.49,7.7211e-06,0
246.49,-1.5274e-05,0
246.5,-2.501e-05,0
246.5,-2.3667e-05,0
246.5,-1.9303e-05,0
246.5,-1.091e-05,0
246.5,4.1962e-06,0
246.5,1.9974e-05,0
246.5,2.7192e-05,0
246.5,2.9038e-05,0
246.5,3.3402e-05,0
246.5,3.7934e-05,0
246.5,3.7934e-05,0
246.5,3.6088e-05,0
246.5,3.2731e-05,0
246.5,2.2324e-05,0
246.5,0,0
246.5,-2.0478e-05,0
246.5,-2.1149e-05,0
246.5,-2.0142e-06,0
246.5,2.2324e-05,0
246.51,3.9948e-05,0
246.51,4.7166e-05,0
246.51,4.3641e-05,0
246.51,3.3906e-05,0
246.51,2.7863e-05,0
246.51,2.7863e-05,0
246.51,2.7359e-05,0
246.51,2.4338e-05,0
246.51,2.4842e-05,0
246.51,3.0716e-05,0
246.51,3.8605e-05,0
246.51,4.2634e-05,0
246.51,3.508e-05,0
246.51,2.4002e-05,0
246.51,2.4002e-05,0
246.51,3.1556e-05,0
246.51,3.6088e-05,0
246.51,2.9374e-05,0
246.51,2.031e-05,0
246.52,1.796e-05,0
246.52,1.6785e-05,0
246.52,1.2589e-05,0
246.52,1.2757e-05,0
246.52,1.6953e-05,0
246.52,1.9974e-05,0
246.52,1.5946e-05,0
246.52,2.5177e-06,0
246.52,-8.5603e-06,0
246.52,-7.2175e-06,0
246.52,1.8463e-06,0
246.52,1.3092e-05,0
246.52,2.3163e-05,0
246.52,2.9374e-05,0
246.52,2.266e-05,0
246.52,4.6998e-06,0
246.52,-7.5532e-06,0
246.52,-5.8747e-06,0
246.52,3.8605e-06,0
246.53,1.1749e-05,0
246.53,1.7624e-05,0
246.53,2.501e-05,0
246.53,3.1388e-05,0
246.53,3.3402e-05,0
246.53,3.0716e-05,0
246.53,2.3835e-05,0
246.53,2.1149e-05,0
246.53,2.2995e-05,0
246.53,2.1149e-05,0
246.53,1.8967e-05,0
246.53,2.6688e-05,0
246.53,4.1459e-05,0
246.53,5.0858e-05,0
246.53,4.2802e-05,0
246.53,1.7624e-05,0
246.53,-5.0355e-07,0
246.53,3.8605e-06,0
246.53,2.0478e-05,0
246.53,3.508e-05,0
246.54,4.2634e-05,0
246.54,4.4648e-05,0
246.54,4.683e-05,0
246.54,5.0187e-05,0
246.54,4.8844e-05,0
246.54,3.9445e-05,0
246.54,2.8031e-05,0
246.54,2.3499e-05,0
246.54,2.4506e-05,0
246.54,2.5177e-05,0
246.54,2.501e-05,0
246.54,2.6688e-05,0
246.54,3.122e-05,0
246.54,4.0452e-05,0
246.54,4.6662e-05,0
246.54,4.4648e-05,0
246.54,3.6255e-05,0
246.54,2.6017e-05,0
246.54,1.8631e-05,0
246.55,1.5274e-05,0
246.55,1.2589e-05,0
246.55,1.0239e-05,0
246.55,1.3092e-05,0
246.55,1.7792e-05,0
246.55,1.9303e-05,0
246.55,2.0645e-05,0
246.55,1.6617e-05,0
246.55,1.1749e-06,0
246.55,-1.0239e-05,0
246.55,-7.2175e-06,0
246.55,4.0284e-06,0
246.55,1.3931e-05,0
246.55,1.9974e-05,0
246.55,2.1988e-05,0
246.55,2.3163e-05,0
246.55,2.3163e-05,0
246.55,1.796e-05,0
246.55,1.3092e-05,0
246.56,1.6785e-05,0
246.56,2.6688e-05,0
246.56,3.6255e-05,0
246.56,3.9445e-05,0
246.56,3.2059e-05,0
246.56,2.4002e-05,0
246.56,1.6449e-05,0
246.56,4.1962e-06,0
246.56,-1.091e-05,0
246.56,-1.9974e-05,0
246.56,-1.6617e-05,0
246.56,-2.8534e-06,0
246.56,1.2924e-05,0
246.56,2.4506e-05,0
246.56,3.5248e-05,0
246.56,4.6159e-05,0
246.56,5.2369e-05,0
246.56,5.153e-05,0
246.56,4.2466e-05,0
246.56,3.0549e-05,0
246.57,1.6281e-05,0
246.57,8.5603e-06,0
246.57,2.7192e-05,0
246.57,4.9516e-05,0
246.57,4.3473e-05,0
246.57,2.3331e-05,0
246.57,7.7211e-06,0
246.57,-1.8296e-05,0
246.57,-4.6998e-05,0
246.57,-3.8773e-05,0
246.57,5.0355e-07,0
246.57,3.6759e-05,0
246.57,5.2705e-05,0
246.57,5.069e-05,0
246.57,3.8437e-05,0
246.57,2.2156e-05,0
246.57,1.0071e-05,0
246.57,7.2175e-06,0
246.57,8.2246e-06,0
246.58,3.1891e-06,0
246.58,-1.1246e-05,0
246.58,-1.6953e-05,0
246.58,2.182e-06,0
246.58,3.2395e-05,0
246.58,5.3544e-05,0
246.58,5.7069e-05,0
246.58,4.5823e-05,0
246.58,3.0381e-05,0
246.58,1.4939e-05,0
246.58,-3.0213e-06,0
246.58,-1.3596e-05,0
246.58,-7.8889e-06,0
246.58,1.091e-05,0
246.58,2.8702e-05,0
246.58,3.8437e-05,0
246.58,4.4144e-05,0
246.58,4.4144e-05,0
246.58,3.3402e-05,0
246.59,1.561e-05,0
246.59,7.2175e-06,0
246.59,7.8889e-06,0
246.59,5.2033e-06,0
246.59,-2.3499e-06,0
246.59,-1.5106e-06,0
246.59,1.4267e-05,0
246.59,3.0045e-05,0
246.59,3.4073e-05,0
246.59,3.0716e-05,0
246.59,3.3402e-05,0
246.59,4.3473e-05,0
246.59,4.9516e-05,0
246.59,4.683e-05,0
246.59,4.1459e-05,0
246.59,4.2802e-05,0
246.59,4.4648e-05,0
246.59,2.4674e-05,0
246.59,-1.8631e-05,0
246.6,-4.7669e-05,0
246.6,-4.0787e-05,0
246.6,-1.4939e-05,0
246.6,9.2317e-06,0
246.6,3.3906e-05,0
246.6,6.3615e-05,0
246.6,8.7617e-05,0
246.6,9.1814e-05,0
246.6,7.2847e-05,0
246.6,4.3473e-05,0
246.6,8.896e-06,0
246.6,-3.3234e-05,0
246.6,-5.774e-05,0
246.6,-5.1865e-05,0
246.6,-3.1724e-05,0
246.6,-6.8818e-06,0
246.6,2.3667e-05,0
246.6,4.1123e-05,0
246.6,3.8773e-05,0
246.6,3.5416e-05,0
246.61,3.4745e-05,0
246.61,3.0213e-05,0
246.61,2.7192e-05,0
246.61,3.5752e-05,0
246.61,4.5823e-05,0
246.61,4.8508e-05,0
246.61,5.5894e-05,0
246.61,6.244e-05,0
246.61,4.5319e-05,0
246.61,-1.8463e-06,0
246.61,-6.3279e-05,0
246.61,-9.366e-05,0
246.61,-6.3615e-05,0
246.61,7.0497e-06,0
246.61,7.3686e-05,0
246.61,0.00010021,0
246.61,8.1407e-05,0
246.61,3.6759e-05,0
246.61,-2.6856e-06,0
246.62,-2.3331e-05,0
246.62,-3.7263e-05,0
246.62,-3.5416e-05,0
246.62,-6.2104e-06,0
246.62,2.8702e-05,0
246.62,4.6998e-05,0
246.62,4.8508e-05,0
246.62,4.683e-05,0
246.62,5.1194e-05,0
246.62,5.7908e-05,0
246.62,6.1601e-05,0
246.62,6.1601e-05,0
246.62,6.1601e-05,0
246.62,5.7572e-05,0
246.62,3.5416e-05,0
246.62,-1.1582e-05,0
246.62,-6.1433e-05,0
246.62,-6.8147e-05,0
246.62,-2.9206e-05,0
246.63,1.8631e-05,0
246.63,5.153e-05,0
246.63,5.9419e-05,0
246.63,5.1698e-05,0
246.63,4.3473e-05,0
246.63,3.743e-05,0
246.63,2.6017e-05,0
246.63,-7.5532e-06,0
246.63,-5.8579e-05,0
246.63,-9.5003e-05,0
246.63,-9.3324e-05,0
246.63,-5.4551e-05,0
246.63,-2.182e-06,0
246.63,3.508e-05,0
246.63,4.6326e-05,0
246.63,4.1291e-05,0
246.63,3.4073e-05,0
246.63,3.592e-05,0
246.63,4.4144e-05,0
246.64,4.5487e-05,0
246.64,3.827e-05,0
246.64,2.7695e-05,0
246.64,1.7121e-05,0
246.64,1.561e-05,0
246.64,2.4002e-05,0
246.64,3.2395e-05,0
246.64,2.3331e-05,0
246.64,5.0355e-07,0
246.64,-1.8128e-05,0
246.64,-1.091e-05,0
246.64,2.6688e-05,0
246.64,6.5965e-05,0
246.64,9.0974e-05,0
246.64,9.752e-05,0
246.64,8.5771e-05,0
246.64,6.1936e-05,0
246.64,4.4816e-05,0
246.64,3.8102e-05,0
246.65,2.501e-05,0
246.65,5.3712e-06,0
246.65,-1.8463e-06,0
246.65,4.8676e-06,0
246.65,1.8463e-05,0
246.65,2.9709e-05,0
246.65,1.3931e-05,0
246.65,-3.7095e-05,0
246.65,-0.00010558,0
246.65,-0.00014116,0
246.65,-9.9199e-05,0
246.65,-6.2104e-06,0
246.65,6.6972e-05,0
246.65,8.3421e-05,0
246.65,6.2104e-05,0
246.65,3.5416e-05,0
246.65,2.2324e-05,0
246.65,2.1653e-05,0
246.65,2.6017e-05,0
246.65,3.1388e-05,0
246.66,3.4745e-05,0
246.66,3.9445e-05,0
246.66,4.4144e-05,0
246.66,4.7501e-05,0
246.66,4.9516e-05,0
246.66,4.9851e-05,0
246.66,4.7166e-05,0
246.66,3.9445e-05,0
246.66,2.9709e-05,0
246.66,2.2995e-05,0
246.66,1.6953e-05,0
246.66,1.3931e-05,0
246.66,1.9135e-05,0
246.66,3.2227e-05,0
246.66,5.0187e-05,0
246.66,6.3783e-05,0
246.66,5.8579e-05,0
246.66,3.0716e-05,0
246.66,2.5177e-06,0
246.67,1.0071e-06,0
246.67,1.8296e-05,0
246.67,3.7095e-05,0
246.67,4.5823e-05,0
246.67,4.0787e-05,0
246.67,2.6688e-05,0
246.67,1.2421e-05,0
246.67,4.5319e-06,0
246.67,-3.5248e-06,0
246.67,-1.0239e-05,0
246.67,-6.2104e-06,0
246.67,3.8605e-06,0
246.67,4.3641e-06,0
246.67,-9.3996e-06,0
246.67,-2.4338e-05,0
246.67,-2.1317e-05,0
246.67,0,0
246.67,1.8967e-05,0
246.67,2.5177e-05,0
246.68,2.9206e-05,0
246.68,3.9109e-05,0
246.68,5.0019e-05,0
246.68,5.4383e-05,0
246.68,5.2201e-05,0
246.68,4.8173e-05,0
246.68,3.8773e-05,0
246.68,2.1988e-05,0
246.68,8.5603e-06,0
246.68,9.9031e-06,0
246.68,2.5849e-05,0
246.68,4.0116e-05,0
246.68,4.213e-05,0
246.68,3.3738e-05,0
246.68,1.796e-05,0
246.68,4.6998e-06,0
246.68,9.3996e-06,0
246.68,3.2731e-05,0
246.68,4.7669e-05,0
246.69,4.448e-05,0
246.69,4.5151e-05,0
246.69,5.0187e-05,0
246.69,4.0116e-05,0
246.69,1.3092e-05,0
246.69,6.714e-07,0
246.69,1.9806e-05,0
246.69,4.5487e-05,0
246.69,5.539e-05,0
246.69,5.388e-05,0
246.69,5.3544e-05,0
246.69,4.7166e-05,0
246.69,3.5248e-05,0
246.69,1.3931e-05,0
246.69,-1.6281e-05,0
246.69,-4.0452e-05,0
246.69,-5.4719e-05,0
246.69,-5.623e-05,0
246.69,-3.508e-05,0
246.69,-1.0071e-06,0
246.7,3.0716e-05,0
246.7,4.7166e-05,0
246.7,4.2466e-05,0
246.7,2.4002e-05,0
246.7,1.1917e-05,0
246.7,1.1078e-05,0
246.7,1.326e-05,0
246.7,1.4939e-05,0
246.7,1.7624e-05,0
246.7,2.0645e-05,0
246.7,1.9806e-05,0
246.7,1.5274e-05,0
246.7,1.7121e-05,0
246.7,2.9374e-05,0
246.7,4.7333e-05,0
246.7,6.1601e-05,0
246.7,6.3615e-05,0
246.7,4.8173e-05,0
246.7,2.6688e-05,0
246.71,1.7121e-05,0
246.71,1.2924e-05,0
246.71,5.7069e-06,0
246.71,-5.8747e-06,0
246.71,-3.1556e-05,0
246.71,-7.9225e-05,0
246.71,-0.00010105,0
246.71,-5.7908e-05,0
246.71,1.2589e-05,0
246.71,5.4551e-05,0
246.71,6.0929e-05,0
246.71,5.0858e-05,0
246.71,3.8102e-05,0
246.71,2.8702e-05,0
246.71,1.9638e-05,0
246.71,1.1078e-05,0
246.71,1.326e-05,0
246.71,3.4409e-05,0
246.71,6.4958e-05,0
246.72,8.5771e-05,0
246.72,7.7379e-05,0
246.72,4.9516e-05,0
246.72,2.3499e-05,0
246.72,-8.5603e-06,0
246.72,-5.9754e-05,0
246.72,-0.00010658,0
246.72,-0.00011061,0
246.72,-4.7333e-05,0
246.72,3.9277e-05,0
246.72,8.3085e-05,0
246.72,7.57e-05,0
246.72,5.304e-05,0
246.72,4.213e-05,0
246.72,4.4312e-05,0
246.72,4.7837e-05,0
246.72,3.978e-05,0
246.72,1.8967e-05,0
246.72,-1.2589e-05,0
246.72,-3.4745e-05,0
246.73,-1.6281e-05,0
246.73,2.8031e-05,0
246.73,5.623e-05,0
246.73,5.5894e-05,0
246.73,4.3809e-05,0
246.73,3.6088e-05,0
246.73,3.8773e-05,0
246.73,4.9348e-05,0
246.73,5.9754e-05,0
246.73,6.4286e-05,0
246.73,6.5126e-05,0
246.73,6.5965e-05,0
246.73,5.7908e-05,0
246.73,2.0813e-05,0
246.73,-2.9709e-05,0
246.73,-4.7501e-05,0
246.73,-2.0813e-05,0
246.73,2.1317e-05,0
246.73,4.0284e-05,0
246.74,3.7934e-05,0
246.74,4.2466e-05,0
246.74,5.0858e-05,0
246.74,4.6998e-05,0
246.74,4.1123e-05,0
246.74,3.508e-05,0
246.74,1.3931e-05,0
246.74,-1.4939e-05,0
246.74,-3.2395e-05,0
246.74,-2.9709e-05,0
246.74,-1.3596e-05,0
246.74,0,0
246.74,4.8676e-06,0
246.74,5.0355e-06,0
246.74,7.3854e-06,0
246.74,2.417e-05,0
246.74,4.5991e-05,0
246.74,5.8915e-05,0
246.74,6.6972e-05,0
246.75,7.2007e-05,0
246.75,6.4958e-05,0
246.75,3.6759e-05,0
246.75,6.2104e-06,0
246.75,3.5248e-06,0
246.75,1.9303e-05,0
246.75,2.6017e-05,0
246.75,1.7624e-05,0
246.75,4.1962e-06,0
246.75,-1.1246e-05,0
246.75,-2.0981e-05,0
246.75,-1.0239e-05,0
246.75,1.1414e-05,0
246.75,2.9709e-05,0
246.75,3.2731e-05,0
246.75,8.3925e-06,0
246.75,-3.7095e-05,0
246.75,-7.2679e-05,0
246.75,-7.7379e-05,0
246.76,-4.9851e-05,0
246.76,-5.7069e-06,0
246.76,2.7359e-05,0
246.76,3.9277e-05,0
246.76,3.4073e-05,0
246.76,2.266e-05,0
246.76,1.5442e-05,0
246.76,1.8296e-05,0
246.76,2.5513e-05,0
246.76,2.7359e-05,0
246.76,2.3835e-05,0
246.76,2.0478e-05,0
246.76,1.9471e-05,0
246.76,2.1149e-05,0
246.76,2.3667e-05,0
246.76,2.5681e-05,0
246.76,2.9038e-05,0
246.76,3.3738e-05,0
246.76,3.978e-05,0
246.76,4.4648e-05,0
246.77,4.5319e-05,0
246.77,4.2466e-05,0
246.77,3.8773e-05,0
246.77,3.743e-05,0
246.77,3.508e-05,0
246.77,3.1388e-05,0
246.77,2.8199e-05,0
246.77,2.5345e-05,0
246.77,1.8967e-05,0
246.77,1.4267e-05,0
246.77,1.4939e-05,0
246.77,1.8631e-05,0
246.77,2.0813e-05,0
246.77,1.9638e-05,0
246.77,1.4939e-05,0
246.77,1.1246e-05,0
246.77,1.5274e-05,0
246.77,2.2995e-05,0
246.77,2.7192e-05,0
246.78,2.6352e-05,0
246.78,2.266e-05,0
246.78,1.8296e-05,0
246.78,1.3764e-05,0
246.78,1.2421e-05,0
246.78,2.3835e-05,0
246.78,3.8102e-05,0
246.78,3.743e-05,0
246.78,2.7024e-05,0
246.78,2.6184e-05,0
246.78,3.9948e-05,0
246.78,5.3544e-05,0
246.78,6.0929e-05,0
246.78,6.865e-05,0
246.78,7.7714e-05,0
246.78,8.1743e-05,0
246.78,7.4861e-05,0
246.78,4.213e-05,0
246.78,-1.4939e-05,0
246.79,-6.3951e-05,0
246.79,-7.5196e-05,0
246.79,-4.8844e-05,0
246.79,-4.6998e-06,0
246.79,3.2059e-05,0
246.79,5.153e-05,0
246.79,5.4887e-05,0
246.79,4.7501e-05,0
246.79,4.3305e-05,0
246.79,3.978e-05,0
246.79,1.9135e-05,0
246.79,-2.6352e-05,0
246.79,-6.009e-05,0
246.79,-4.5823e-05,0
246.79,-7.8889e-06,0
246.79,1.5274e-05,0
246.79,1.9806e-05,0
246.79,1.9974e-05,0
246.79,2.3667e-05,0
246.8,2.7863e-05,0
246.8,2.7695e-05,0
246.8,1.9974e-05,0
246.8,1.9135e-05,0
246.8,3.827e-05,0
246.8,6.479e-05,0
246.8,7.8386e-05,0
246.8,7.5029e-05,0
246.8,6.2104e-05,0
246.8,4.1459e-05,0
246.8,1.7121e-05,0
246.8,-8.2246e-06,0
246.8,-3.4577e-05,0
246.8,-3.5416e-05,0
246.8,-9.7353e-06,0
246.8,3.5248e-06,0
246.8,-8.896e-06,0
246.8,-2.4338e-05,0
246.8,-2.3835e-05,0
246.8,-1.3596e-05,0
246.81,-3.0213e-06,0
246.81,1.8463e-06,0
246.81,9.9031e-06,0
246.81,2.7527e-05,0
246.81,4.5991e-05,0
246.81,5.4551e-05,0
246.81,5.4719e-05,0
246.81,5.0858e-05,0
246.81,4.3473e-05,0
246.81,2.266e-05,0
246.81,-1.0575e-05,0
246.81,-2.0981e-05,0
246.81,5.0355e-06,0
246.81,3.3738e-05,0
246.81,4.2802e-05,0
246.81,3.827e-05,0
246.81,3.1724e-05,0
246.81,2.9374e-05,0
246.81,2.8367e-05,0
246.82,2.501e-05,0
246.82,2.1988e-05,0
246.82,2.3163e-05,0
246.82,2.5345e-05,0
246.82,2.031e-05,0
246.82,1.4267e-05,0
246.82,1.6617e-05,0
246.82,1.9806e-05,0
246.82,1.8296e-05,0
246.82,1.561e-05,0
246.82,9.9031e-06,0
246.82,-2.8534e-06,0
246.82,-1.7288e-05,0
246.82,-1.326e-05,0
246.82,1.326e-05,0
246.82,3.4577e-05,0
246.82,2.4002e-05,0
246.82,-2.8534e-06,0
246.82,-7.7211e-06,0
246.83,1.0407e-05,0
246.83,1.8967e-05,0
246.83,1.7121e-05,0
246.83,2.3163e-05,0
246.83,3.3066e-05,0
246.83,3.1891e-05,0
246.83,2.6352e-05,0
246.83,2.7863e-05,0
246.83,2.9374e-05,0
246.83,3.0045e-05,0
246.83,3.7263e-05,0
246.83,4.4144e-05,0
246.83,3.9948e-05,0
246.83,2.8702e-05,0
246.83,1.8631e-05,0
246.83,1.0575e-05,0
246.83,6.5461e-06,0
246.83,3.1891e-06,0
246.83,1.6785e-07,0
246.84,1.6785e-06,0
246.84,4.8676e-06,0
246.84,7.8889e-06,0
246.84,1.1246e-05,0
246.84,1.3596e-05,0
246.84,1.5106e-05,0
246.84,1.6617e-05,0
246.84,2.266e-05,0
246.84,3.4409e-05,0
246.84,4.5487e-05,0
246.84,5.1194e-05,0
246.84,4.9516e-05,0
246.84,3.8605e-05,0
246.84,1.6281e-05,0
246.84,-5.7069e-06,0
246.84,-1.1749e-05,0
246.84,-5.2033e-06,0
246.84,-1.6785e-06,0
246.84,1.1749e-06,0
246.84,1.5778e-05,0
246.85,3.6088e-05,0
246.85,4.3473e-05,0
246.85,3.9109e-05,0
246.85,3.978e-05,0
246.85,4.7837e-05,0
246.85,5.388e-05,0
246.85,5.3544e-05,0
246.85,5.0019e-05,0
246.85,4.6494e-05,0
246.85,4.0787e-05,0
246.85,3.6759e-05,0
246.85,3.5752e-05,0
246.85,3.2563e-05,0
246.85,2.652e-05,0
246.85,1.8631e-05,0
246.85,1.4267e-05,0
246.85,1.1078e-05,0
246.85,4.3641e-06,0
246.85,-2.3499e-06,0
246.86,-1.6785e-06,0
246.86,6.5461e-06,0
246.86,9.5674e-06,0
246.86,6.2104e-06,0
246.86,7.3854e-06,0
246.86,1.8799e-05,0
246.86,3.6088e-05,0
246.86,4.6159e-05,0
246.86,4.5487e-05,0
246.86,4.0116e-05,0
246.86,3.4409e-05,0
246.86,3.3066e-05,0
246.86,3.357e-05,0
246.86,2.0645e-05,0
246.86,-7.2175e-06,0
246.86,-2.4506e-05,0
246.86,-1.1582e-05,0
246.86,1.6617e-05,0
246.86,3.6088e-05,0
246.87,4.2802e-05,0
246.87,4.213e-05,0
246.87,3.8437e-05,0
246.87,3.9109e-05,0
246.87,4.4144e-05,0
246.87,4.5487e-05,0
246.87,4.0452e-05,0
246.87,3.3402e-05,0
246.87,3.2731e-05,0
246.87,3.8437e-05,0
246.87,3.8773e-05,0
246.87,2.4506e-05,0
246.87,1.1582e-05,0
246.87,1.1246e-05,0
246.87,1.2589e-05,0
246.87,4.8676e-06,0
246.87,-8.7282e-06,0
246.87,-1.7121e-05,0
246.87,-1.1917e-05,0
246.88,-1.1749e-06,0
246.88,1.8463e-06,0
246.88,4.5319e-06,0
246.88,1.5274e-05,0
246.88,2.4842e-05,0
246.88,2.6352e-05,0
246.88,2.0645e-05,0
246.88,1.5274e-05,0
246.88,1.3092e-05,0
246.88,1.0575e-05,0
246.88,1.5946e-05,0
246.88,2.8534e-05,0
246.88,3.8605e-05,0
246.88,4.2802e-05,0
246.88,3.9612e-05,0
246.88,3.3402e-05,0
246.88,2.4674e-05,0
246.88,1.7288e-05,0
246.88,1.9974e-05,0
246.88,2.5177e-05,0
246.89,1.4603e-05,0
246.89,-8.896e-06,0
246.89,-3.0213e-05,0
246.89,-3.3906e-05,0
246.89,-1.1078e-05,0
246.89,1.9303e-05,0
246.89,3.1891e-05,0
246.89,2.0645e-05,0
246.89,-5.0355e-07,0
246.89,-1.2589e-05,0
246.89,-3.0213e-06,0
246.89,1.8128e-05,0
246.89,3.2898e-05,0
246.89,3.6088e-05,0
246.89,3.1052e-05,0
246.89,2.3835e-05,0
246.89,1.4435e-05,0
246.89,4.8676e-06,0
246.89,6.5461e-06,0
246.9,2.0981e-05,0
246.9,3.6591e-05,0
246.9,4.5319e-05,0
246.9,4.8844e-05,0
246.9,4.9851e-05,0
246.9,5.0355e-05,0
246.9,4.1123e-05,0
246.9,2.2995e-05,0
246.9,2.1317e-05,0
246.9,3.3234e-05,0
246.9,3.4745e-05,0
246.9,2.0981e-05,0
246.9,7.2175e-06,0
246.9,3.357e-06,0
246.9,8.2246e-06,0
246.9,5.2033e-06,0
246.9,-6.2104e-06,0
246.9,-4.8676e-06,0
246.9,1.6281e-05,0
246.91,3.3234e-05,0
246.91,1.9974e-05,0
246.91,-1.5778e-05,0
246.91,-3.3234e-05,0
246.91,-1.5274e-05,0
246.91,9.7353e-06,0
246.91,2.2995e-05,0
246.91,2.3331e-05,0
246.91,2.4002e-05,0
246.91,3.1388e-05,0
246.91,3.8773e-05,0
246.91,4.1962e-05,0
246.91,4.1123e-05,0
246.91,4.1291e-05,0
246.91,4.6662e-05,0
246.91,5.7237e-05,0
246.91,6.5293e-05,0
246.91,6.7475e-05,0
246.91,6.0929e-05,0
246.91,3.8773e-05,0
246.92,-6.714e-07,0
246.92,-4.0452e-05,0
246.92,-5.4215e-05,0
246.92,-3.7766e-05,0
246.92,-1.1246e-05,0
246.92,1.1246e-05,0
246.92,2.9709e-05,0
246.92,3.6759e-05,0
246.92,3.0716e-05,0
246.92,2.0813e-05,0
246.92,9.9031e-06,0
246.92,5.0355e-06,0
246.92,1.5946e-05,0
246.92,3.3402e-05,0
246.92,4.5487e-05,0
246.92,4.6494e-05,0
246.92,4.0116e-05,0
246.92,3.6759e-05,0
246.92,3.5752e-05,0
246.93,3.6591e-05,0
246.93,4.3473e-05,0
246.93,5.623e-05,0
246.93,6.6804e-05,0
246.93,6.8986e-05,0
246.93,5.623e-05,0
246.93,3.0381e-05,0
246.93,-3.6927e-06,0
246.93,-3.6759e-05,0
246.93,-4.0452e-05,0
246.93,-1.0575e-05,0
246.93,1.8296e-05,0
246.93,2.501e-05,0
246.93,1.5442e-05,0
246.93,3.0213e-06,0
246.93,2.0142e-06,0
246.93,1.2253e-05,0
246.93,1.8631e-05,0
246.93,1.091e-05,0
246.94,-4.1962e-06,0
246.94,-1.5274e-05,0
246.94,-1.5106e-05,0
246.94,-2.5177e-06,0
246.94,1.4267e-05,0
246.94,2.7024e-05,0
246.94,3.3906e-05,0
246.94,3.978e-05,0
246.94,4.5991e-05,0
246.94,4.7333e-05,0
246.94,4.062e-05,0
246.94,2.7695e-05,0
246.94,2.0142e-05,0
246.94,2.266e-05,0
246.94,3.0549e-05,0
246.94,3.6759e-05,0
246.94,3.8102e-05,0
246.94,3.978e-05,0
246.94,3.8102e-05,0
246.95,2.5681e-05,0
246.95,-2.0142e-06,0
246.95,-4.1459e-05,0
246.95,-6.1936e-05,0
246.95,-4.3809e-05,0
246.95,-1.3596e-05,0
246.95,1.4603e-05,0
246.95,4.213e-05,0
246.95,5.8747e-05,0
246.95,5.5894e-05,0
246.95,4.4144e-05,0
246.95,3.1052e-05,0
246.95,1.4939e-05,0
246.95,-1.1749e-06,0
246.95,-1.1917e-05,0
246.95,-1.4099e-05,0
246.95,-2.3499e-06,0
246.95,1.7121e-05,0
246.95,2.8534e-05,0
246.96,2.5345e-05,0
246.96,1.2085e-05,0
246.96,0,0
246.96,-3.5248e-06,0
246.96,1.1749e-06,0
246.96,1.2253e-05,0
246.96,2.4002e-05,0
246.96,3.592e-05,0
246.96,4.5823e-05,0
246.96,4.6159e-05,0
246.96,3.5416e-05,0
246.96,2.4674e-05,0
246.96,1.8631e-05,0
246.96,5.8747e-06,0
246.96,-1.2253e-05,0
246.96,-2.031e-05,0
246.96,-6.0426e-06,0
246.96,1.8631e-05,0
246.96,3.978e-05,0
246.96,5.623e-05,0
246.97,7.1336e-05,0
246.97,8.1575e-05,0
246.97,8.1743e-05,0
246.97,7.1504e-05,0
246.97,5.153e-05,0
246.97,2.182e-05,0
246.97,-1.9135e-05,0
246.97,-5.5222e-05,0
246.97,-6.8315e-05,0
246.97,-3.827e-05,0
246.97,3.2731e-05,0
246.97,9.5842e-05,0
246.97,0.00011733,0
246.97,0.0001044,0
246.97,6.2943e-05,0
246.97,-5.0355e-06,0
246.97,-6.3615e-05,0
246.97,-7.2847e-05,0
246.97,-3.6759e-05,0
246.98,4.6998e-06,0
246.98,2.8031e-05,0
246.98,4.0116e-05,0
246.98,4.9851e-05,0
246.98,5.623e-05,0
246.98,5.7237e-05,0
246.98,5.4047e-05,0
246.98,4.918e-05,0
246.98,4.3305e-05,0
246.98,3.508e-05,0
246.98,2.7192e-05,0
246.98,2.7359e-05,0
246.98,3.5248e-05,0
246.98,3.9277e-05,0
246.98,3.4073e-05,0
246.98,2.3667e-05,0
246.98,1.4267e-05,0
246.98,8.896e-06,0
246.98,4.5319e-06,0
246.99,5.8747e-06,0
246.99,1.6785e-05,0
246.99,2.652e-05,0
246.99,2.6688e-05,0
246.99,2.4338e-05,0
246.99,2.5681e-05,0
246.99,2.9038e-05,0
246.99,2.9374e-05,0
246.99,2.4674e-05,0
246.99,1.5274e-05,0
246.99,1.1749e-06,0
246.99,-2.031e-05,0
246.99,-3.9948e-05,0
246.99,-4.213e-05,0
246.99,-2.182e-05,0
246.99,3.357e-06,0
246.99,1.8296e-05,0
246.99,2.5681e-05,0
246.99,3.1388e-05,0
247,3.2059e-05,0
247,2.6688e-05,0
247,1.6953e-05,0
247,2.3499e-06,0
247,-1.5274e-05,0
247,-3.7095e-05,0
247,-4.5487e-05,0
247,-2.7024e-05,0
247,2.8534e-06,0
247,2.3331e-05,0
247,2.6017e-05,0
247,1.9303e-05,0
247,1.3764e-05,0
247,1.7624e-05,0
247,2.417e-05,0
247,1.8128e-05,0
247,-4.1962e-06,0
247,-2.1653e-05,0
247,-1.1582e-05,0
247,2.0981e-05,0
247.01,4.9516e-05,0
247.01,6.1265e-05,0
247.01,6.2943e-05,0
247.01,6.1265e-05,0
247.01,5.6901e-05,0
247.01,5.0858e-05,0
247.01,4.8173e-05,0
247.01,4.8844e-05,0
247.01,4.8844e-05,0
247.01,4.3809e-05,0
247.01,3.8605e-05,0
247.01,3.8437e-05,0
247.01,4.0452e-05,0
247.01,3.8102e-05,0
247.01,3.3402e-05,0
247.01,3.3066e-05,0
247.01,3.5752e-05,0
247.01,3.9445e-05,0
247.01,4.3809e-05,0
247.02,5.0019e-05,0
247.02,5.2201e-05,0
247.02,4.5823e-05,0
247.02,2.7863e-05,0
247.02,5.539e-06,0
247.02,-4.0284e-06,0
247.02,1.6785e-07,0
247.02,2.182e-06,0
247.02,-6.8818e-06,0
247.02,-1.8463e-05,0
247.02,-1.9638e-05,0
247.02,-1.6449e-05,0
247.02,-1.6281e-05,0
247.02,-1.5274e-05,0
247.02,-1.1246e-05,0
247.02,-4.1962e-06,0
247.02,4.1962e-06,0
247.02,1.5946e-05,0
247.02,2.6184e-05,0
247.03,2.3331e-05,0
247.03,1.2589e-05,0
247.03,1.1582e-05,0
247.03,2.1317e-05,0
247.03,3.2059e-05,0
247.03,3.6088e-05,0
247.03,3.7095e-05,0
247.03,3.4745e-05,0
247.03,3.0213e-05,0
247.03,2.6688e-05,0
247.03,2.8367e-05,0
247.03,3.0381e-05,0
247.03,2.6688e-05,0
247.03,2.0981e-05,0
247.03,2.1317e-05,0
247.03,2.5345e-05,0
247.03,3.0045e-05,0
247.03,3.743e-05,0
247.03,4.448e-05,0
247.03,4.9516e-05,0
247.04,5.153e-05,0
247.04,4.8173e-05,0
247.04,3.9109e-05,0
247.04,2.9374e-05,0
247.04,2.3331e-05,0
247.04,1.9303e-05,0
247.04,1.1078e-05,0
247.04,-4.1962e-06,0
247.04,-1.561e-05,0
247.04,-2.5177e-06,0
247.04,2.501e-05,0
247.04,4.1459e-05,0
247.04,4.3977e-05,0
247.04,4.3305e-05,0
247.04,4.448e-05,0
247.04,4.213e-05,0
247.04,3.4073e-05,0
247.04,3.0213e-05,0
247.04,3.1724e-05,0
247.05,3.2395e-05,0
247.05,2.6017e-05,0
247.05,9.9031e-06,0
247.05,-5.2033e-06,0
247.05,-3.0213e-06,0
247.05,9.3996e-06,0
247.05,1.8631e-05,0
247.05,1.2421e-05,0
247.05,-4.6998e-06,0
247.05,-1.2253e-05,0
247.05,-3.6927e-06,0
247.05,1.2421e-05,0
247.05,2.5681e-05,0
247.05,3.3738e-05,0
247.05,3.7263e-05,0
247.05,3.3906e-05,0
247.05,2.0981e-05,0
247.05,3.5248e-06,0
247.05,-5.2033e-06,0
247.06,1.6785e-07,0
247.06,1.0575e-05,0
247.06,1.561e-05,0
247.06,1.326e-05,0
247.06,7.7211e-06,0
247.06,7.2175e-06,0
247.06,1.4267e-05,0
247.06,2.031e-05,0
247.06,2.266e-05,0
247.06,2.5177e-05,0
247.06,2.7695e-05,0
247.06,2.8031e-05,0
247.06,2.9374e-05,0
247.06,3.5416e-05,0
247.06,4.2298e-05,0
247.06,4.6159e-05,0
247.06,4.5487e-05,0
247.06,4.3473e-05,0
247.06,4.2466e-05,0
247.07,3.743e-05,0
247.07,2.3499e-05,0
247.07,1.326e-05,0
247.07,1.8631e-05,0
247.07,3.2059e-05,0
247.07,3.8102e-05,0
247.07,3.1052e-05,0
247.07,1.8296e-05,0
247.07,7.2175e-06,0
247.07,-6.714e-07,0
247.07,-9.0639e-06,0
247.07,-1.4939e-05,0
247.07,-1.091e-05,0
247.07,-2.182e-06,0
247.07,3.5248e-06,0
247.07,4.1962e-06,0
247.07,1.8463e-06,0
247.07,0,0
247.07,2.5177e-06,0
247.07,7.8889e-06,0
247.08,1.0071e-05,0
247.08,1.0575e-05,0
247.08,1.4603e-05,0
247.08,2.4002e-05,0
247.08,3.508e-05,0
247.08,4.213e-05,0
247.08,4.448e-05,0
247.08,4.5151e-05,0
247.08,4.6494e-05,0
247.08,4.4816e-05,0
247.08,4.1962e-05,0
247.08,4.1459e-05,0
247.08,3.9948e-05,0
247.08,3.4745e-05,0
247.08,2.4674e-05,0
247.08,1.561e-05,0
247.08,1.4939e-05,0
247.08,1.4603e-05,0
247.08,9.9031e-06,0
247.09,1.8463e-06,0
247.09,-1.326e-05,0
247.09,-4.0452e-05,0
247.09,-6.1433e-05,0
247.09,-5.9251e-05,0
247.09,-4.3641e-05,0
247.09,-3.1388e-05,0
247.09,-2.0981e-05,0
247.09,-4.6998e-06,0
247.09,1.1749e-05,0
247.09,2.2324e-05,0
247.09,2.5345e-05,0
247.09,2.266e-05,0
247.09,2.3667e-05,0
247.09,3.2731e-05,0
247.09,4.0116e-05,0
247.09,3.743e-05,0
247.09,2.7695e-05,0
247.09,1.5274e-05,0
247.1,-1.1749e-06,0
247.1,-2.0981e-05,0
247.1,-3.2395e-05,0
247.1,-2.1653e-05,0
247.1,7.2175e-06,0
247.1,3.7934e-05,0
247.1,5.6901e-05,0
247.1,6.4286e-05,0
247.1,6.4118e-05,0
247.1,5.7404e-05,0
247.1,5.153e-05,0
247.1,4.918e-05,0
247.1,4.7166e-05,0
247.1,4.4648e-05,0
247.1,4.062e-05,0
247.1,3.7263e-05,0
247.1,3.8605e-05,0
247.1,4.0284e-05,0
247.1,3.978e-05,0
247.1,3.743e-05,0
247.11,3.4577e-05,0
247.11,3.0716e-05,0
247.11,2.8367e-05,0
247.11,2.7359e-05,0
247.11,2.7695e-05,0
247.11,3.1052e-05,0
247.11,3.2731e-05,0
247.11,3.0045e-05,0
247.11,2.5681e-05,0
247.11,2.4338e-05,0
247.11,2.4506e-05,0
247.11,2.2995e-05,0
247.11,2.1317e-05,0
247.11,2.182e-05,0
247.11,2.0981e-05,0
247.11,1.9303e-05,0
247.11,2.1317e-05,0
247.11,2.5513e-05,0
247.11,2.7359e-05,0
247.12,2.6688e-05,0
247.12,2.1653e-05,0
247.12,8.896e-06,0
247.12,-1.3428e-05,0
247.12,-3.4409e-05,0
247.12,-3.3066e-05,0
247.12,-6.0426e-06,0
247.12,2.8367e-05,0
247.12,5.2033e-05,0
247.12,5.8579e-05,0
247.12,5.2537e-05,0
247.12,4.2634e-05,0
247.12,3.2563e-05,0
247.12,2.3499e-05,0
247.12,2.031e-05,0
247.12,2.266e-05,0
247.12,2.5681e-05,0
247.12,2.8031e-05,0
247.12,2.9206e-05,0
247.13,2.5849e-05,0
247.13,1.6617e-05,0
247.13,7.7211e-06,0
247.13,9.0639e-06,0
247.13,2.2995e-05,0
247.13,4.213e-05,0
247.13,6.0929e-05,0
247.13,7.4189e-05,0
247.13,7.9561e-05,0
247.13,7.5364e-05,0
247.13,6.7643e-05,0
247.13,6.009e-05,0
247.13,4.2802e-05,0
247.13,1.6617e-05,0
247.13,-6.8818e-06,0
247.13,-1.9638e-05,0
247.13,-2.4674e-05,0
247.13,-2.7695e-05,0
247.13,-2.5681e-05,0
247.14,-1.7121e-05,0
247.14,-1.3596e-05,0
247.14,-1.7792e-05,0
247.14,-2.3499e-05,0
247.14,-2.2492e-05,0
247.14,-1.2253e-05,0
247.14,-2.0142e-06,0
247.14,3.8605e-06,0
247.14,7.7211e-06,0
247.14,1.3764e-05,0
247.14,2.1653e-05,0
247.14,2.6688e-05,0
247.14,3.1891e-05,0
247.14,3.7934e-05,0
247.14,4.0955e-05,0
247.14,3.8437e-05,0
247.14,3.3066e-05,0
247.14,2.9709e-05,0
247.14,2.6688e-05,0
247.15,8.5603e-06,0
247.15,-2.3835e-05,0
247.15,-3.8941e-05,0
247.15,-1.6617e-05,0
247.15,2.6688e-05,0
247.15,5.5894e-05,0
247.15,5.388e-05,0
247.15,3.3066e-05,0
247.15,1.6617e-05,0
247.15,1.5946e-05,0
247.15,2.3331e-05,0
247.15,2.3331e-05,0
247.15,1.561e-05,0
247.15,1.2085e-05,0
247.15,1.0575e-05,0
247.15,1.3428e-06,0
247.15,-8.7282e-06,0
247.15,-1.1246e-05,0
247.15,-6.3783e-06,0
247.15,1.3428e-06,0
247.16,1.0575e-05,0
247.16,1.8463e-05,0
247.16,2.3331e-05,0
247.16,2.7527e-05,0
247.16,3.0213e-05,0
247.16,2.9877e-05,0
247.16,2.887e-05,0
247.16,3.2563e-05,0
247.16,3.9109e-05,0
247.16,3.9445e-05,0
247.16,3.0381e-05,0
247.16,2.0813e-05,0
247.16,1.7624e-05,0
247.16,1.5778e-05,0
247.16,1.2253e-05,0
247.16,1.4603e-05,0
247.16,2.266e-05,0
247.16,2.5849e-05,0
247.16,2.5177e-05,0
247.17,2.4338e-05,0
247.17,2.5345e-05,0
247.17,2.9374e-05,0
247.17,3.6088e-05,0
247.17,3.9948e-05,0
247.17,4.1627e-05,0
247.17,4.3641e-05,0
247.17,3.6423e-05,0
247.17,2.2324e-05,0
247.17,9.5674e-06,0
247.17,-1.6785e-07,0
247.17,-3.5248e-06,0
247.17,2.8534e-06,0
247.17,1.5106e-05,0
247.17,2.4506e-05,0
247.17,2.6688e-05,0
247.17,2.6688e-05,0
247.17,3.0045e-05,0
247.17,3.8773e-05,0
247.18,4.9851e-05,0
247.18,5.8915e-05,0
247.18,6.4118e-05,0
247.18,6.5965e-05,0
247.18,6.2272e-05,0
247.18,4.7501e-05,0
247.18,2.0478e-05,0
247.18,-1.0071e-05,0
247.18,-2.7695e-05,0
247.18,-1.9303e-05,0
247.18,3.8605e-06,0
247.18,1.4099e-05,0
247.18,-3.357e-07,0
247.18,-2.1988e-05,0
247.18,-2.9709e-05,0
247.18,-2.031e-05,0
247.18,-1.1749e-06,0
247.18,1.8296e-05,0
247.18,3.1388e-05,0
247.19,3.6088e-05,0
247.19,3.6088e-05,0
247.19,3.6591e-05,0
247.19,3.8773e-05,0
247.19,4.1123e-05,0
247.19,4.2802e-05,0
247.19,4.448e-05,0
247.19,4.4648e-05,0
247.19,3.1388e-05,0
247.19,-6.3783e-06,0
247.19,-5.2369e-05,0
247.19,-6.0258e-05,0
247.19,-2.4506e-05,0
247.19,1.4267e-05,0
247.19,2.5513e-05,0
247.19,1.796e-05,0
247.19,2.1317e-05,0
247.19,4.3473e-05,0
247.19,5.8915e-05,0
247.19,4.2802e-05,0
247.2,4.8676e-06,0
247.2,-2.1988e-05,0
247.2,-2.2995e-05,0
247.2,-1.3596e-05,0
247.2,2.182e-06,0
247.2,2.6184e-05,0
247.2,5.1362e-05,0
247.2,7.0161e-05,0
247.2,7.3014e-05,0
247.2,6.2104e-05,0
247.2,4.5487e-05,0
247.2,3.0045e-05,0
247.2,2.1149e-05,0
247.2,1.5274e-05,0
247.2,1.3596e-05,0
247.2,2.0813e-05,0
247.2,3.3066e-05,0
247.2,4.0787e-05,0
247.2,4.1962e-05,0
247.21,4.2802e-05,0
247.21,4.4648e-05,0
247.21,4.3137e-05,0
247.21,3.8437e-05,0
247.21,3.4409e-05,0
247.21,3.1724e-05,0
247.21,2.7359e-05,0
247.21,2.4674e-05,0
247.21,2.5849e-05,0
247.21,2.1988e-05,0
247.21,1.6449e-05,0
247.21,6.3783e-06,0
247.21,-2.1653e-05,0
247.21,-5.9251e-05,0
247.21,-7.1e-05,0
247.21,-4.7837e-05,0
247.21,-1.7288e-05,0
247.21,7.5532e-06,0
247.21,3.0045e-05,0
247.22,4.6494e-05,0
247.22,5.2873e-05,0
247.22,5.2537e-05,0
247.22,4.9683e-05,0
247.22,4.4816e-05,0
247.22,4.213e-05,0
247.22,4.1291e-05,0
247.22,3.9948e-05,0
247.22,3.743e-05,0
247.22,3.827e-05,0
247.22,3.8437e-05,0
247.22,3.4073e-05,0
247.22,2.8367e-05,0
247.22,1.9806e-05,0
247.22,-7.5532e-06,0
247.22,-4.6998e-05,0
247.22,-6.4286e-05,0
247.22,-4.3137e-05,0
247.22,-5.539e-06,0
247.22,2.2828e-05,0
247.23,3.2395e-05,0
247.23,2.7359e-05,0
247.23,2.2156e-05,0
247.23,2.9709e-05,0
247.23,4.4648e-05,0
247.23,5.4551e-05,0
247.23,5.0858e-05,0
247.23,3.4745e-05,0
247.23,1.5106e-06,0
247.23,-4.1123e-05,0
247.23,-5.7908e-05,0
247.23,-3.1388e-05,0
247.23,7.8889e-06,0
247.23,2.3331e-05,0
247.23,1.6617e-05,0
247.23,9.5674e-06,0
247.23,1.9974e-05,0
247.23,4.6494e-05,0
247.23,7.0832e-05,0
247.24,8.8457e-05,0
247.24,0.00010306,0
247.24,0.00011632,0
247.24,0.0001227,0
247.24,0.00010709,0
247.24,5.6901e-05,0
247.24,-9.7353e-06,0
247.24,-6.63e-05,0
247.24,-0.00010742,0
247.24,-0.00010558,0
247.24,-5.5055e-05,0
247.24,2.6856e-06,0
247.24,3.6423e-05,0
247.24,4.7669e-05,0
247.24,4.8844e-05,0
247.24,4.5823e-05,0
247.24,3.7095e-05,0
247.24,2.3667e-05,0
247.24,1.1917e-05,0
247.25,7.8889e-06,0
247.25,1.2757e-05,0
247.25,2.1653e-05,0
247.25,2.7359e-05,0
247.25,2.4842e-05,0
247.25,1.7121e-05,0
247.25,1.0575e-05,0
247.25,9.5674e-06,0
247.25,1.3428e-05,0
247.25,1.8967e-05,0
247.25,2.652e-05,0
247.25,3.508e-05,0
247.25,3.6759e-05,0
247.25,2.5345e-05,0
247.25,7.5532e-06,0
247.25,-1.0239e-05,0
247.25,-2.9038e-05,0
247.25,-4.4648e-05,0
247.25,-4.7333e-05,0
247.26,-3.1052e-05,0
247.26,-7.7211e-06,0
247.26,7.2175e-06,0
247.26,7.3854e-06,0
247.26,5.8747e-06,0
247.26,1.5946e-05,0
247.26,2.9206e-05,0
247.26,3.1891e-05,0
247.26,2.8534e-05,0
247.26,2.9877e-05,0
247.26,4.0116e-05,0
247.26,5.2201e-05,0
247.26,5.7069e-05,0
247.26,5.4887e-05,0
247.26,4.7837e-05,0
247.26,3.4409e-05,0
247.26,1.326e-05,0
247.26,-9.2317e-06,0
247.26,-2.1988e-05,0
247.26,-2.2492e-05,0
247.27,-1.326e-05,0
247.27,4.3641e-06,0
247.27,2.4002e-05,0
247.27,3.7095e-05,0
247.27,4.2634e-05,0
247.27,4.4648e-05,0
247.27,4.918e-05,0
247.27,5.3376e-05,0
247.27,5.6565e-05,0
247.27,5.8915e-05,0
247.27,6.1601e-05,0
247.27,6.1433e-05,0
247.27,5.4551e-05,0
247.27,4.3977e-05,0
247.27,3.9445e-05,0
247.27,3.743e-05,0
247.27,2.5849e-05,0
247.27,1.091e-05,0
247.27,5.539e-06,0
247.28,6.8818e-06,0
247.28,1.2589e-05,0
247.28,1.6617e-05,0
247.28,1.1246e-05,0
247.28,4.5319e-06,0
247.28,8.896e-06,0
247.28,1.9303e-05,0
247.28,1.8463e-05,0
247.28,3.5248e-06,0
247.28,-1.1582e-05,0
247.28,-1.4939e-05,0
247.28,1.8463e-06,0
247.28,3.7095e-05,0
247.28,7.1336e-05,0
247.28,8.6946e-05,0
247.28,8.3757e-05,0
247.28,6.3447e-05,0
247.28,3.1388e-05,0
247.28,8.5603e-06,0
247.29,9.9031e-06,0
247.29,2.0813e-05,0
247.29,2.6688e-05,0
247.29,3.0381e-05,0
247.29,3.4073e-05,0
247.29,3.592e-05,0
247.29,3.4241e-05,0
247.29,3.4409e-05,0
247.29,3.3906e-05,0
247.29,2.9206e-05,0
247.29,2.8702e-05,0
247.29,3.1724e-05,0
247.29,2.5345e-05,0
247.29,2.0142e-06,0
247.29,-3.4241e-05,0
247.29,-6.1601e-05,0
247.29,-6.4958e-05,0
247.29,-5.4215e-05,0
247.29,-3.8773e-05,0
247.3,-1.6785e-05,0
247.3,1.2085e-05,0
247.3,3.1556e-05,0
247.3,3.6255e-05,0
247.3,3.5584e-05,0
247.3,3.5584e-05,0
247.3,3.508e-05,0
247.3,3.9948e-05,0
247.3,5.4215e-05,0
247.3,6.9657e-05,0
247.3,7.6371e-05,0
247.3,7.3014e-05,0
247.3,5.9251e-05,0
247.3,3.6088e-05,0
247.3,-2.182e-06,0
247.3,-5.2873e-05,0
247.3,-8.7449e-05,0
247.3,-7.9057e-05,0
247.3,-2.8367e-05,0
247.3,2.8031e-05,0
247.31,5.8076e-05,0
247.31,6.0929e-05,0
247.31,5.5055e-05,0
247.31,5.1194e-05,0
247.31,4.3977e-05,0
247.31,3.2731e-05,0
247.31,2.6017e-05,0
247.31,3.4409e-05,0
247.31,4.8005e-05,0
247.31,4.7333e-05,0
247.31,3.2898e-05,0
247.31,1.1917e-05,0
247.31,-1.2421e-05,0
247.31,-3.4913e-05,0
247.31,-4.1794e-05,0
247.31,-3.0045e-05,0
247.31,-1.7624e-05,0
247.31,-1.4939e-05,0
247.31,-1.6617e-05,0
247.32,-1.5778e-05,0
247.32,-1.0575e-05,0
247.32,1.6785e-07,0
247.32,1.2589e-05,0
247.32,2.182e-05,0
247.32,2.5513e-05,0
247.32,2.4506e-05,0
247.32,2.501e-05,0
247.32,2.9374e-05,0
247.32,3.0045e-05,0
247.32,2.6688e-05,0
247.32,2.5681e-05,0
247.32,3.0381e-05,0
247.32,3.3066e-05,0
247.32,2.7527e-05,0
247.32,1.9303e-05,0
247.32,1.796e-05,0
247.32,2.182e-05,0
247.32,2.4338e-05,0
247.33,2.7024e-05,0
247.33,3.6759e-05,0
247.33,5.153e-05,0
247.33,5.9419e-05,0
247.33,5.623e-05,0
247.33,4.6159e-05,0
247.33,3.7766e-05,0
247.33,3.3906e-05,0
247.33,3.5584e-05,0
247.33,3.9109e-05,0
247.33,3.8102e-05,0
247.33,3.4073e-05,0
247.33,3.1724e-05,0
247.33,2.8702e-05,0
247.33,1.9638e-05,0
247.33,3.1891e-06,0
247.33,-4.1962e-06,0
247.33,1.2924e-05,0
247.33,3.9612e-05,0
247.34,5.2873e-05,0
247.34,5.2033e-05,0
247.34,5.0187e-05,0
247.34,5.0187e-05,0
247.34,4.4816e-05,0
247.34,3.3066e-05,0
247.34,2.1653e-05,0
247.34,1.6785e-05,0
247.34,2.1653e-05,0
247.34,3.6088e-05,0
247.34,4.5991e-05,0
247.34,4.448e-05,0
247.34,3.9445e-05,0
247.34,3.743e-05,0
247.34,3.3738e-05,0
247.34,1.9471e-05,0
247.34,1.8463e-06,0
247.34,-7.0497e-06,0
247.34,-1.0575e-05,0
247.34,-2.031e-05,0
247.35,-3.0381e-05,0
247.35,-3.8773e-05,0
247.35,-4.3137e-05,0
247.35,-3.5752e-05,0
247.35,-1.8631e-05,0
247.35,-1.6785e-07,0
247.35,8.896e-06,0
247.35,-1.8463e-06,0
247.35,-1.8967e-05,0
247.35,-1.8967e-05,0
247.35,-6.3783e-06,0
247.35,7.2175e-06,0
247.35,2.3331e-05,0
247.35,3.4073e-05,0
247.35,3.4745e-05,0
247.35,2.9374e-05,0
247.35,1.9303e-05,0
247.35,1.0575e-05,0
247.35,1.326e-05,0
247.36,2.5345e-05,0
247.36,3.592e-05,0
247.36,4.0787e-05,0
247.36,4.4648e-05,0
247.36,4.683e-05,0
247.36,4.1459e-05,0
247.36,3.7766e-05,0
247.36,3.9109e-05,0
247.36,3.7095e-05,0
247.36,2.8031e-05,0
247.36,1.4603e-05,0
247.36,1.5274e-05,0
247.36,3.4073e-05,0
247.36,4.918e-05,0
247.36,3.4073e-05,0
247.36,-9.7353e-06,0
247.36,-4.4312e-05,0
247.36,-3.9109e-05,0
247.36,-1.2253e-05,0
247.37,6.3783e-06,0
247.37,1.3092e-05,0
247.37,1.5778e-05,0
247.37,1.9806e-05,0
247.37,2.5345e-05,0
247.37,3.0213e-05,0
247.37,3.0716e-05,0
247.37,2.9374e-05,0
247.37,3.1388e-05,0
247.37,3.2898e-05,0
247.37,3.3234e-05,0
247.37,3.2731e-05,0
247.37,3.3402e-05,0
247.37,3.2731e-05,0
247.37,2.6688e-05,0
247.37,1.7624e-05,0
247.37,1.0575e-05,0
247.37,-1.5106e-06,0
247.37,-1.7624e-05,0
247.38,-1.8967e-05,0
247.38,1.6785e-06,0
247.38,3.0381e-05,0
247.38,4.8005e-05,0
247.38,5.4047e-05,0
247.38,5.5222e-05,0
247.38,5.4215e-05,0
247.38,5.2705e-05,0
247.38,5.2201e-05,0
247.38,5.4887e-05,0
247.38,5.8244e-05,0
247.38,5.7404e-05,0
247.38,5.304e-05,0
247.38,4.2802e-05,0
247.38,2.7695e-05,0
247.38,1.3931e-05,0
247.38,6.8818e-06,0
247.38,1.2085e-05,0
247.38,2.1317e-05,0
247.38,2.501e-05,0
247.39,2.0981e-05,0
247.39,1.0575e-05,0
247.39,-4.5319e-06,0
247.39,-1.5778e-05,0
247.39,-1.326e-05,0
247.39,1.6785e-07,0
247.39,1.5946e-05,0
247.39,3.4409e-05,0
247.39,4.9348e-05,0
247.39,5.5894e-05,0
247.39,5.7572e-05,0
247.39,5.9586e-05,0
247.39,5.5558e-05,0
247.39,3.743e-05,0
247.39,6.8818e-06,0
247.39,-1.8631e-05,0
247.39,-1.7792e-05,0
247.39,6.5461e-06,0
247.39,3.1724e-05,0
247.4,4.2802e-05,0
247.4,3.9445e-05,0
247.4,3.122e-05,0
247.4,2.4002e-05,0
247.4,1.5274e-05,0
247.4,3.6927e-06,0
247.4,-5.8747e-06,0
247.4,-8.2246e-06,0
247.4,-2.6856e-06,0
247.4,4.8676e-06,0
247.4,8.896e-06,0
247.4,1.091e-05,0
247.4,1.0575e-05,0
247.4,8.2246e-06,0
247.4,5.2033e-06,0
247.4,5.2033e-06,0
247.4,1.1749e-05,0
247.4,2.1988e-05,0
247.4,3.1052e-05,0
247.41,3.743e-05,0
247.41,4.2466e-05,0
247.41,4.6159e-05,0
247.41,4.7837e-05,0
247.41,4.2802e-05,0
247.41,3.2731e-05,0
247.41,2.4338e-05,0
247.41,1.6953e-05,0
247.41,1.1246e-05,0
247.41,7.8889e-06,0
247.41,8.3925e-07,0
247.41,-1.3596e-05,0
247.41,-2.7024e-05,0
247.41,-3.2395e-05,0
247.41,-2.9709e-05,0
247.41,-2.4674e-05,0
247.41,-2.5177e-05,0
247.41,-1.9974e-05,0
247.41,-1.5106e-06,0
247.41,1.7792e-05,0
247.42,2.3163e-05,0
247.42,2.0981e-05,0
247.42,2.4674e-05,0
247.42,3.2059e-05,0
247.42,3.0716e-05,0
247.42,2.1317e-05,0
247.42,1.5274e-05,0
247.42,1.1246e-05,0
247.42,3.6927e-06,0
247.42,-5.7069e-06,0
247.42,-4.6998e-06,0
247.42,5.2033e-06,0
247.42,1.2589e-05,0
247.42,1.7624e-05,0
247.42,2.5849e-05,0
247.42,3.4073e-05,0
247.42,3.5416e-05,0
247.42,3.1891e-05,0
247.42,3.0045e-05,0
247.43,3.2563e-05,0
247.43,3.122e-05,0
247.43,2.1988e-05,0
247.43,1.0407e-05,0
247.43,3.0213e-06,0
247.43,6.0426e-06,0
247.43,1.3931e-05,0
247.43,2.2324e-05,0
247.43,3.3066e-05,0
247.43,4.2802e-05,0
247.43,4.8005e-05,0
247.43,4.8508e-05,0
247.43,4.7333e-05,0
247.43,4.4816e-05,0
247.43,4.1123e-05,0
247.43,3.7598e-05,0
247.43,3.4073e-05,0
247.43,3.2395e-05,0
247.43,3.7095e-05,0
247.44,3.7095e-05,0
247.44,2.2492e-05,0
247.44,1.2253e-05,0
247.44,2.1149e-05,0
247.44,3.4073e-05,0
247.44,3.3402e-05,0
247.44,2.3331e-05,0
247.44,1.9303e-05,0
247.44,3.3402e-05,0
247.44,5.2369e-05,0
247.44,5.8915e-05,0
247.44,6.0258e-05,0
247.44,6.009e-05,0
247.44,4.8173e-05,0
247.44,2.9877e-05,0
247.44,1.2924e-05,0
247.44,4.5319e-06,0
247.44,6.5461e-06,0
247.44,1.1917e-05,0
247.45,1.1917e-05,0
247.45,4.8676e-06,0
247.45,-1.6785e-06,0
247.45,-4.8676e-06,0
247.45,-7.7211e-06,0
247.45,-9.2317e-06,0
247.45,-2.3499e-06,0
247.45,9.7353e-06,0
247.45,1.6953e-05,0
247.45,1.8296e-05,0
247.45,1.9638e-05,0
247.45,1.8296e-05,0
247.45,8.896e-06,0
247.45,1.5106e-06,0
247.45,6.2104e-06,0
247.45,1.5946e-05,0
247.45,2.4506e-05,0
247.45,3.6423e-05,0
247.45,4.6662e-05,0
247.46,5.153e-05,0
247.46,5.8244e-05,0
247.46,6.2272e-05,0
247.46,5.5558e-05,0
247.46,4.1123e-05,0
247.46,2.6017e-05,0
247.46,1.7121e-05,0
247.46,1.561e-05,0
247.46,1.6953e-05,0
247.46,1.5778e-05,0
247.46,9.7353e-06,0
247.46,5.7069e-06,0
247.46,8.5603e-06,0
247.46,1.8631e-05,0
247.46,3.3402e-05,0
247.46,5.0187e-05,0
247.46,6.4118e-05,0
247.46,6.8986e-05,0
247.46,5.6733e-05,0
247.46,2.8367e-05,0
247.47,-3.8605e-06,0
247.47,-2.6688e-05,0
247.47,-3.8437e-05,0
247.47,-3.5752e-05,0
247.47,-2.1653e-05,0
247.47,-1.5274e-05,0
247.47,-2.7695e-05,0
247.47,-3.1556e-05,0
247.47,-1.1917e-05,0
247.47,8.896e-06,0
247.47,1.1414e-05,0
247.47,8.3925e-07,0
247.47,-8.2246e-06,0
247.47,-1.0239e-05,0
247.47,-8.896e-06,0
247.47,-1.0071e-05,0
247.47,-1.4939e-05,0
247.47,-1.7624e-05,0
247.47,-1.0239e-05,0
247.48,1.0407e-05,0
247.48,3.7095e-05,0
247.48,6.0426e-05,0
247.48,7.4357e-05,0
247.48,7.4357e-05,0
247.48,6.5293e-05,0
247.48,5.4383e-05,0
247.48,4.5487e-05,0
247.48,4.1459e-05,0
247.48,4.3305e-05,0
247.48,4.7837e-05,0
247.48,4.8173e-05,0
247.48,4.0787e-05,0
247.48,2.0981e-05,0
247.48,-6.2104e-06,0
247.48,-1.796e-05,0
247.48,8.3925e-07,0
247.48,3.2059e-05,0
247.48,4.6159e-05,0
247.49,4.213e-05,0
247.49,3.6759e-05,0
247.49,3.3402e-05,0
247.49,2.7863e-05,0
247.49,2.7192e-05,0
247.49,3.4073e-05,0
247.49,3.5248e-05,0
247.49,2.4002e-05,0
247.49,1.3092e-05,0
247.49,1.4939e-05,0
247.49,2.0142e-05,0
247.49,9.9031e-06,0
247.49,-1.2924e-05,0
247.49,-2.3667e-05,0
247.49,-5.539e-06,0
247.49,2.5345e-05,0
247.49,4.1459e-05,0
247.49,3.9277e-05,0
247.49,3.0381e-05,0
247.5,2.031e-05,0
247.5,1.1246e-05,0
247.5,-6.714e-07,0
247.5,-9.7353e-06,0
247.5,1.8463e-06,0
247.5,2.4674e-05,0
247.5,3.2059e-05,0
247.5,3.122e-05,0
247.5,3.6088e-05,0
247.5,3.8773e-05,0
247.5,3.1891e-05,0
247.5,1.561e-05,0
247.5,1.6785e-07,0
247.5,-3.357e-07,0
247.5,8.3925e-06,0
247.5,2.031e-05,0
247.5,3.6423e-05,0
247.5,5.1362e-05,0
247.5,5.5726e-05,0
247.5,4.7166e-05,0
247.51,3.9612e-05,0
247.51,4.0116e-05,0
247.51,4.1291e-05,0
247.51,3.6423e-05,0
247.51,2.9374e-05,0
247.51,2.3331e-05,0
247.51,2.1317e-05,0
247.51,2.0981e-05,0
247.51,1.4435e-05,0
247.51,-3.6927e-06,0
247.51,-1.6953e-05,0
247.51,-1.7288e-05,0
247.51,-1.8463e-05,0
247.51,-2.3667e-05,0
247.51,-2.8702e-05,0
247.51,-3.1052e-05,0
247.51,-2.7695e-05,0
247.51,-2.8031e-05,0
247.51,-2.4002e-05,0
247.52,2.5177e-06,0
247.52,3.8437e-05,0
247.52,5.9586e-05,0
247.52,5.9586e-05,0
247.52,4.4984e-05,0
247.52,3.2395e-05,0
247.52,2.6688e-05,0
247.52,2.1149e-05,0
247.52,1.2589e-05,0
247.52,1.0071e-05,0
247.52,1.6953e-05,0
247.52,2.266e-05,0
247.52,2.0645e-05,0
247.52,1.2589e-05,0
247.52,4.6998e-06,0
247.52,5.2033e-06,0
247.52,1.8296e-05,0
247.52,3.4409e-05,0
247.52,5.0019e-05,0
247.53,6.1433e-05,0
247.53,6.009e-05,0
247.53,5.153e-05,0
247.53,5.0019e-05,0
247.53,5.5222e-05,0
247.53,5.9754e-05,0
247.53,6.4286e-05,0
247.53,6.8315e-05,0
247.53,5.7237e-05,0
247.53,2.7527e-05,0
247.53,-9.2317e-06,0
247.53,-4.683e-05,0
247.53,-8.2918e-05,0
247.53,-9.9367e-05,0
247.53,-7.5532e-05,0
247.53,-2.7863e-05,0
247.53,7.2175e-06,0
247.53,1.9303e-05,0
247.53,1.796e-05,0
247.53,1.5778e-05,0
247.54,1.8631e-05,0
247.54,2.3331e-05,0
247.54,2.6352e-05,0
247.54,2.7192e-05,0
247.54,1.8296e-05,0
247.54,-8.3925e-07,0
247.54,-1.1582e-05,0
247.54,-5.0355e-06,0
247.54,5.2033e-06,0
247.54,1.1582e-05,0
247.54,2.031e-05,0
247.54,3.0213e-05,0
247.54,3.9445e-05,0
247.54,5.0355e-05,0
247.54,5.623e-05,0
247.54,5.4383e-05,0
247.54,5.2537e-05,0
247.54,5.4215e-05,0
247.54,5.0523e-05,0
247.55,4.0452e-05,0
247.55,3.7766e-05,0
247.55,4.5487e-05,0
247.55,5.1194e-05,0
247.55,4.8844e-05,0
247.55,4.7166e-05,0
247.55,5.7572e-05,0
247.55,7.9057e-05,0
247.55,9.5171e-05,0
247.55,9.2821e-05,0
247.55,6.479e-05,0
247.55,2.3499e-05,0
247.55,-5.7069e-06,0
247.55,-5.539e-06,0
247.55,1.1749e-05,0
247.55,2.1988e-05,0
247.55,1.7121e-05,0
247.55,3.8605e-06,0
247.55,-6.8818e-06,0
247.56,-8.2246e-06,0
247.56,-6.8818e-06,0
247.56,-7.2175e-06,0
247.56,-1.8463e-06,0
247.56,7.7211e-06,0
247.56,9.3996e-06,0
247.56,-8.3925e-07,0
247.56,-1.1917e-05,0
247.56,-1.9806e-05,0
247.56,-2.031e-05,0
247.56,-1.8128e-05,0
247.56,-2.3667e-05,0
247.56,-1.8799e-05,0
247.56,1.4939e-05,0
247.56,4.9851e-05,0
247.56,6.3279e-05,0
247.56,7.1e-05,0
247.56,7.3854e-05,0
247.56,4.1291e-05,0
247.57,-1.091e-05,0
247.57,-3.1388e-05,0
247.57,-8.2246e-06,0
247.57,2.5177e-05,0
247.57,3.122e-05,0
247.57,2.501e-05,0
247.57,3.0381e-05,0
247.57,3.8102e-05,0
247.57,3.827e-05,0
247.57,3.7263e-05,0
247.57,3.1388e-05,0
247.57,1.7288e-05,0
247.57,-4.1962e-06,0
247.57,-1.4267e-05,0
247.57,-4.8676e-06,0
247.57,1.3931e-05,0
247.57,3.2059e-05,0
247.57,3.9948e-05,0
247.57,3.9612e-05,0
247.57,3.3234e-05,0
247.58,2.3667e-05,0
247.58,1.6449e-05,0
247.58,1.326e-05,0
247.58,1.4603e-05,0
247.58,1.796e-05,0
247.58,1.8631e-05,0
247.58,1.3931e-05,0
247.58,7.8889e-06,0
247.58,3.5248e-06,0
247.58,4.1962e-06,0
247.58,8.7282e-06,0
247.58,1.7624e-05,0
247.58,3.1724e-05,0
247.58,3.8941e-05,0
247.58,2.9709e-05,0
247.58,7.2175e-06,0
247.58,-2.5177e-05,0
247.58,-5.9251e-05,0
247.58,-6.8482e-05,0
247.59,-3.0213e-05,0
247.59,3.2059e-05,0
247.59,7.9561e-05,0
247.59,9.2821e-05,0
247.59,6.7979e-05,0
247.59,2.5681e-05,0
247.59,-3.357e-07,0
247.59,3.5248e-06,0
247.59,2.5345e-05,0
247.59,5.1865e-05,0
247.59,7.3686e-05,0
247.59,8.4428e-05,0
247.59,7.7546e-05,0
247.59,5.2705e-05,0
247.59,2.7024e-05,0
247.59,1.6785e-05,0
247.59,1.9471e-05,0
247.59,2.182e-05,0
247.59,1.796e-05,0
247.6,9.5674e-06,0
247.6,7.5532e-06,0
247.6,1.9303e-05,0
247.6,3.0716e-05,0
247.6,2.7695e-05,0
247.6,1.6449e-05,0
247.6,9.9031e-06,0
247.6,7.5532e-06,0
247.6,5.2033e-06,0
247.6,8.5603e-06,0
