2.5515,3.8102e-05,0
2.552,2.5177e-06,0
2.5525,-1.9303e-05,0
2.5531,-2.4506e-05,0
2.5536,-3.2395e-05,0
2.5541,-5.1865e-05,0
2.5546,-7.3014e-05,0
2.5551,-8.3589e-05,0
2.5557,-8.1743e-05,0
2.5562,-7.4357e-05,0
2.5567,-6.4286e-05,0
2.5572,-4.8173e-05,0
2.5577,-2.0813e-05,0
2.5583,9.7353e-06,0
2.5588,2.9206e-05,0
2.5593,3.743e-05,0
2.5598,4.4312e-05,0
2.5603,4.918e-05,0
2.5608,4.5487e-05,0
2.5614,3.5584e-05,0
2.5619,2.5849e-05,0
2.5624,2.1149e-05,0
2.5629,1.9638e-05,0
2.5634,1.4267e-05,0
2.564,7.2175e-06,0
2.5645,1.561e-05,0
2.565,3.6088e-05,0
2.5655,4.7501e-05,0
2.566,5.0858e-05,0
2.5666,5.8747e-05,0
2.5671,6.2272e-05,0
2.5676,4.448e-05,0
2.5681,2.0645e-05,0
2.5686,2.1317e-05,0
2.5692,4.1123e-05,0
2.5697,5.8579e-05,0
2.5702,6.4958e-05,0
2.5707,6.5797e-05,0
2.5712,6.7979e-05,0
2.5718,7.1336e-05,0
2.5723,6.9322e-05,0
2.5728,5.9922e-05,0
2.5733,4.5823e-05,0
2.5738,3.0716e-05,0
2.5743,2.3331e-05,0
2.5749,3.7263e-05,0
2.5754,7.0665e-05,0
2.5759,0.00010927,0
2.5764,0.00013999,0
2.5769,0.00014586,0
2.5775,0.00013327,0
2.578,0.00011766,0
2.5785,0.00011061,0
2.579,0.00011313,0
2.5795,0.00011095,0
2.5801,9.9535e-05,0
2.5806,7.5029e-05,0
2.5811,3.9948e-05,0
2.5816,9.0639e-06,0
2.5821,-5.8747e-06,0
2.5827,-1.2253e-05,0
2.5832,-2.417e-05,0
2.5837,-4.5655e-05,0
2.5842,-6.9993e-05,0
2.5847,-8.2414e-05,0
2.5852,-7.3686e-05,0
2.5858,-4.9683e-05,0
2.5863,-2.7695e-05,0
2.5868,-1.4267e-05,0
2.5873,-5.2033e-06,0
2.5878,3.8605e-06,0
2.5884,1.2589e-05,0
2.5889,2.1149e-05,0
2.5894,2.417e-05,0
2.5899,1.5946e-05,0
2.5904,5.0355e-07,0
2.591,-1.2589e-05,0
2.5915,-1.3092e-05,0
2.592,-6.2104e-06,0
2.5925,-6.5461e-06,0
2.593,-2.0981e-05,0
2.5936,-4.6494e-05,0
2.5941,-6.4622e-05,0
2.5946,-6.5629e-05,0
2.5951,-6.244e-05,0
2.5956,-6.1936e-05,0
2.5962,-5.8076e-05,0
2.5967,-5.0858e-05,0
2.5972,-4.5319e-05,0
2.5977,-3.8773e-05,0
2.5982,-2.501e-05,0
2.5987,-9.9031e-06,0
2.5993,-8.3925e-07,0
2.5998,4.3641e-06,0
2.6003,7.0497e-06,0
2.6008,2.6856e-06,0
2.6013,-5.539e-06,0
2.6019,-9.3996e-06,0
2.6024,-8.896e-06,0
2.6029,-8.0568e-06,0
2.6034,-3.8605e-06,0
2.6039,9.7353e-06,0
2.6045,3.5752e-05,0
2.605,6.479e-05,0
2.6055,7.7043e-05,0
2.606,6.63e-05,0
2.6065,4.5487e-05,0
2.6071,2.4338e-05,0
2.6076,4.5319e-06,0
2.6081,-1.2924e-05,0
2.6086,-2.266e-05,0
2.6091,-1.2589e-05,0
2.6097,1.2253e-05,0
2.6102,2.6688e-05,0
2.6107,1.5442e-05,0
2.6112,-1.3596e-05,0
2.6117,-3.8437e-05,0
2.6122,-4.2634e-05,0
2.6128,-2.5849e-05,0
2.6133,1.8463e-06,0
2.6138,2.7863e-05,0
2.6143,4.0787e-05,0
2.6148,4.5991e-05,0
2.6154,5.304e-05,0
2.6159,5.7404e-05,0
2.6164,5.8579e-05,0
2.6169,6.009e-05,0
2.6174,6.1601e-05,0
2.618,6.4958e-05,0
2.6185,6.7811e-05,0
2.619,6.949e-05,0
2.6195,7.4189e-05,0
2.62,8.0064e-05,0
2.6206,7.8721e-05,0
2.6211,7.2343e-05,0
2.6216,7.1336e-05,0
2.6221,8.0064e-05,0
2.6226,9.3156e-05,0
2.6232,0.00010021,0
2.6237,9.7185e-05,0
2.6242,8.1575e-05,0
2.6247,5.4215e-05,0
2.6252,1.9303e-05,0
2.6258,-2.4338e-05,0
2.6263,-7.2007e-05,0
2.6268,-0.00011666,0
2.6273,-0.00015039,0
2.6278,-0.00015795,0
2.6283,-0.00012908,0
2.6289,-8.3253e-05,0
2.6294,-5.6565e-05,0
2.6299,-4.9851e-05,0
2.6304,-3.8102e-05,0
2.6309,-1.6281e-05,0
2.6315,1.0071e-06,0
2.632,7.7211e-06,0
2.6325,9.2317e-06,0
2.633,1.0575e-05,0
2.6335,1.0239e-05,0
2.6341,8.5603e-06,0
2.6346,8.3925e-06,0
2.6351,1.1078e-05,0
2.6356,1.4603e-05,0
2.6361,2.0478e-05,0
2.6367,3.3906e-05,0
2.6372,5.1698e-05,0
2.6377,7.2007e-05,0
2.6382,9.1814e-05,0
2.6387,0.00010155,0
2.6393,9.2485e-05,0
2.6398,7.0329e-05,0
2.6403,4.5151e-05,0
2.6408,3.2731e-05,0
2.6413,3.6088e-05,0
2.6418,4.8676e-05,0
2.6424,6.3279e-05,0
2.6429,7.2679e-05,0
2.6434,7.5029e-05,0
2.6439,7.7714e-05,0
2.6444,8.4428e-05,0
2.645,9.1646e-05,0
2.6455,8.9464e-05,0
2.646,8.0064e-05,0
2.6465,7.5029e-05,0
2.647,8.0232e-05,0
2.6476,9.0135e-05,0
2.6481,9.3828e-05,0
2.6486,8.3925e-05,0
2.6491,6.3447e-05,0
2.6496,4.2802e-05,0
2.6502,2.3163e-05,0
2.6507,-7.8889e-06,0
2.6512,-4.4312e-05,0
2.6517,-6.7643e-05,0
2.6522,-7.6204e-05,0
2.6528,-7.805e-05,0
2.6533,-7.2343e-05,0
2.6538,-5.774e-05,0
2.6543,-3.4409e-05,0
2.6548,6.3783e-06,0
2.6553,6.4286e-05,0
2.6559,0.00011582,0
2.6564,0.00013462,0
2.6569,0.00011598,0
2.6574,8.0735e-05,0
2.6579,5.2201e-05,0
2.6585,4.1962e-05,0
2.659,4.918e-05,0
2.6595,6.6972e-05,0
2.66,7.9728e-05,0
2.6605,7.4357e-05,0
2.6611,5.4551e-05,0
2.6616,3.8605e-05,0
2.6621,3.6759e-05,0
2.6626,4.5487e-05,0
2.6631,5.6901e-05,0
2.6637,5.9083e-05,0
2.6642,4.6662e-05,0
2.6647,2.8031e-05,0
2.6652,1.0239e-05,0
2.6657,-3.0213e-06,0
2.6662,-1.5778e-05,0
2.6668,-2.5345e-05,0
2.6673,-2.7863e-05,0
2.6678,-2.9206e-05,0
2.6683,-2.4674e-05,0
2.6688,-1.3428e-06,0
2.6694,3.1891e-05,0
2.6699,5.2033e-05,0
2.6704,5.4551e-05,0
2.6709,4.4312e-05,0
2.6714,3.3234e-05,0
2.672,2.6688e-05,0
2.6725,2.2995e-05,0
2.673,1.8296e-05,0
2.6735,7.7211e-06,0
2.674,-1.3931e-05,0
2.6746,-4.8173e-05,0
2.6751,-8.191e-05,0
2.6756,-9.7856e-05,0
2.6761,-9.5674e-05,0
2.6766,-7.9393e-05,0
2.6772,-5.9922e-05,0
2.6777,-4.5823e-05,0
2.6782,-3.7095e-05,0
2.6787,-3.0716e-05,0
2.6792,-1.6449e-05,0
2.6797,3.0213e-06,0
2.6803,1.6785e-05,0
2.6808,2.6352e-05,0
2.6813,3.4745e-05,0
2.6818,3.8102e-05,0
2.6823,3.3402e-05,0
2.6829,2.4002e-05,0
2.6834,1.7288e-05,0
2.6839,1.6449e-05,0
2.6844,1.6281e-05,0
2.6849,1.8631e-05,0
2.6855,2.2156e-05,0
2.686,1.7288e-05,0
2.6865,9.9031e-06,0
2.687,3.5248e-06,0
2.6875,-6.3783e-06,0
2.6881,-1.8967e-05,0
2.6886,-2.8031e-05,0
2.6891,-3.1052e-05,0
2.6896,-1.9303e-05,0
2.6901,6.714e-07,0
2.6907,1.0575e-05,0
2.6912,1.0239e-05,0
2.6917,1.7288e-05,0
2.6922,4.2802e-05,0
2.6927,7.2007e-05,0
2.6932,9.6345e-05,0
2.6938,0.00011666,0
2.6943,0.00012471,0
2.6948,0.00011867,0
2.6953,0.00010491,0
2.6958,8.5435e-05,0
2.6964,5.3208e-05,0
2.6969,1.2253e-05,0
2.6974,-2.0645e-05,0
2.6979,-4.6326e-05,0
2.6984,-7.4357e-05,0
2.699,-9.7353e-05,0
2.6995,-0.00010558,0
2.7,-9.6849e-05,0
2.7005,-7.8386e-05,0
2.701,-5.9251e-05,0
2.7016,-4.2466e-05,0
2.7021,-3.0381e-05,0
2.7026,-2.0981e-05,0
2.7031,-8.5603e-06,0
2.7036,8.3925e-06,0
2.7042,2.6017e-05,0
2.7047,4.1123e-05,0
2.7052,5.3208e-05,0
2.7057,6.2272e-05,0
2.7062,7.8386e-05,0
2.7067,0.00010121,0
2.7073,0.00010843,0
2.7078,9.1478e-05,0
2.7083,5.9586e-05,0
2.7088,3.7095e-05,0
2.7093,4.0955e-05,0
2.7099,5.3544e-05,0
2.7104,5.069e-05,0
2.7109,3.4409e-05,0
2.7114,2.4338e-05,0
2.7119,2.4002e-05,0
2.7125,3.0716e-05,0
2.713,4.6159e-05,0
2.7135,6.0594e-05,0
2.714,5.7404e-05,0
2.7145,4.3305e-05,0
2.7151,3.3738e-05,0
2.7156,3.2563e-05,0
2.7161,3.4073e-05,0
2.7166,3.6088e-05,0
2.7171,4.2466e-05,0
2.7177,5.4887e-05,0
2.7182,6.5461e-05,0
2.7187,6.6468e-05,0
2.7192,4.9012e-05,0
2.7197,1.2589e-05,0
2.7203,-2.5681e-05,0
2.7208,-5.1865e-05,0
2.7213,-7.1e-05,0
2.7218,-8.8289e-05,0
2.7223,-9.5338e-05,0
2.7228,-8.0903e-05,0
2.7234,-4.4984e-05,0
2.7239,6.3783e-06,0
2.7244,5.4215e-05,0
2.7249,6.3951e-05,0
2.7254,3.8437e-05,0
2.726,1.7121e-05,0
2.7265,1.8128e-05,0
2.727,2.8367e-05,0
2.7275,3.8437e-05,0
2.728,4.8173e-05,0
2.7286,5.9251e-05,0
2.7291,6.2943e-05,0
2.7296,5.069e-05,0
2.7301,3.2059e-05,0
2.7306,2.5345e-05,0
2.7312,2.9374e-05,0
2.7317,2.9374e-05,0
2.7322,1.9303e-05,0
2.7327,1.0239e-05,0
2.7332,1.4603e-05,0
2.7338,2.4338e-05,0
2.7343,2.8702e-05,0
2.7348,3.1052e-05,0
2.7353,3.4073e-05,0
2.7358,3.9445e-05,0
2.7363,4.8173e-05,0
2.7369,5.5558e-05,0
2.7374,5.4047e-05,0
2.7379,4.8844e-05,0
2.7384,4.3473e-05,0
2.7389,2.9374e-05,0
2.7395,6.2104e-06,0
2.74,-1.4771e-05,0
2.7405,-3.0549e-05,0
2.741,-4.448e-05,0
2.7415,-5.623e-05,0
2.7421,-5.4719e-05,0
2.7426,-3.7934e-05,0
2.7431,-9.9031e-06,0
2.7436,1.8631e-05,0
2.7441,3.2731e-05,0
2.7447,3.2731e-05,0
2.7452,2.9206e-05,0
2.7457,2.3667e-05,0
2.7462,1.561e-05,0
2.7467,4.1962e-06,0
2.7473,-6.2104e-06,0
2.7478,-7.2175e-06,0
2.7483,4.6998e-06,0
2.7488,2.4338e-05,0
2.7493,3.978e-05,0
2.7498,4.8844e-05,0
2.7504,4.9516e-05,0
2.7509,4.4144e-05,0
2.7514,3.5752e-05,0
2.7519,2.5513e-05,0
2.7524,1.8463e-05,0
2.753,2.1653e-05,0
2.7535,3.2731e-05,0
2.754,3.8102e-05,0
2.7545,2.4506e-05,0
2.755,5.0355e-07,0
2.7556,-1.1414e-05,0
2.7561,-1.8463e-06,0
2.7566,1.8631e-05,0
2.7571,3.3402e-05,0
2.7576,3.7934e-05,0
2.7582,3.3738e-05,0
2.7587,2.6017e-05,0
2.7592,1.796e-05,0
2.7597,1.1582e-05,0
2.7602,6.3783e-06,0
2.7607,3.0213e-06,0
2.7613,4.6998e-06,0
2.7618,1.6953e-05,0
2.7623,3.4745e-05,0
2.7628,4.5487e-05,0
2.7633,4.7501e-05,0
2.7639,4.9851e-05,0
2.7644,6.4286e-05,0
2.7649,9.1142e-05,0
2.7654,0.00011078,0
2.7659,0.0001086,0
2.7665,9.1142e-05,0
2.767,7.4525e-05,0
2.7675,6.6804e-05,0
2.768,5.9586e-05,0
2.7685,5.6733e-05,0
2.7691,5.4551e-05,0
2.7696,4.2802e-05,0
2.7701,2.1317e-05,0
2.7706,-6.8818e-06,0
2.7711,-3.4577e-05,0
2.7717,-5.1362e-05,0
2.7722,-5.6733e-05,0
2.7727,-5.6062e-05,0
2.7732,-5.1865e-05,0
2.7737,-3.743e-05,0
2.7742,-1.4939e-05,0
2.7748,8.3925e-06,0
2.7753,3.1052e-05,0
2.7758,5.1865e-05,0
2.7763,6.8315e-05,0
2.7768,8.4932e-05,0
2.7774,9.2988e-05,0
2.7779,8.8457e-05,0
2.7784,7.9057e-05,0
2.7789,6.6133e-05,0
2.7794,4.918e-05,0
2.78,2.8367e-05,0
2.7805,3.5248e-06,0
2.781,-2.2828e-05,0
2.7815,-4.4144e-05,0
2.782,-5.3208e-05,0
2.7826,-5.1362e-05,0
2.7831,-4.8508e-05,0
2.7836,-4.683e-05,0
2.7841,-4.6494e-05,0
2.7846,-4.9516e-05,0
2.7852,-5.4047e-05,0
2.7857,-4.6662e-05,0
2.7862,-2.6856e-05,0
2.7867,-1.0239e-05,0
2.7872,3.6927e-06,0
2.7877,2.7695e-05,0
2.7883,5.539e-05,0
2.7888,7.6875e-05,0
2.7893,8.8792e-05,0
2.7898,9.2821e-05,0
2.7903,9.2317e-05,0
2.7909,9.8527e-05,0
2.7914,0.00011464,0
2.7919,0.00013143,0
2.7924,0.00013478,0
2.7929,0.00011531,0
2.7935,8.04e-05,0
2.794,4.5319e-05,0
2.7945,2.0478e-05,0
2.795,7.8889e-06,0
2.7955,3.8605e-06,0
2.7961,-1.1749e-06,0
2.7966,-1.1246e-05,0
2.7971,-1.8967e-05,0
2.7976,-2.0981e-05,0
2.7981,-2.501e-05,0
2.7987,-3.4073e-05,0
2.7992,-4.1794e-05,0
2.7997,-4.4648e-05,0
2.8002,-4.6159e-05,0
2.8007,-4.5655e-05,0
2.8013,-4.1794e-05,0
2.8018,-4.0116e-05,0
2.8023,-3.5416e-05,0
2.8028,-9.0639e-06,0
2.8033,2.7359e-05,0
2.8038,4.4144e-05,0
2.8044,3.6423e-05,0
2.8049,2.3835e-05,0
2.8054,2.1149e-05,0
2.8059,2.5681e-05,0
2.8064,3.3066e-05,0
2.807,4.7166e-05,0
2.8075,6.1936e-05,0
2.808,6.5629e-05,0
2.8085,6.009e-05,0
2.809,5.4551e-05,0
2.8096,5.2201e-05,0
2.8101,5.539e-05,0
2.8106,5.2369e-05,0
2.8111,2.8702e-05,0
2.8116,-8.2246e-06,0
2.8122,-4.0116e-05,0
2.8127,-5.4887e-05,0
2.8132,-4.918e-05,0
2.8137,-2.8199e-05,0
2.8142,-3.1891e-06,0
2.8148,2.6688e-05,0
2.8153,5.623e-05,0
2.8158,6.63e-05,0
2.8163,5.2873e-05,0
2.8168,3.0884e-05,0
2.8173,1.4267e-05,0
2.8179,4.6998e-06,0
2.8184,-2.0142e-06,0
2.8189,-3.1891e-06,0
2.8194,5.8747e-06,0
2.8199,1.6449e-05,0
2.8205,1.9974e-05,0
2.821,1.5442e-05,0
2.8215,6.3783e-06,0
2.822,4.5319e-06,0
2.8225,6.2104e-06,0
2.8231,6.5461e-06,0
2.8236,1.0575e-05,0
2.8241,1.7792e-05,0
2.8246,2.4506e-05,0
2.8251,2.5345e-05,0
2.8257,1.3931e-05,0
2.8262,8.3925e-07,0
2.8267,-2.8534e-06,0
2.8272,-5.8747e-06,0
2.8277,-1.1917e-05,0
2.8283,-8.2246e-06,0
2.8288,5.2033e-06,0
2.8293,1.7288e-05,0
2.8298,3.1052e-05,0
2.8303,5.2033e-05,0
2.8308,7.1336e-05,0
2.8314,8.3757e-05,0
2.8319,8.3757e-05,0
2.8324,6.865e-05,0
2.8329,4.7501e-05,0
2.8334,3.1556e-05,0
2.834,2.4002e-05,0
2.8345,2.501e-05,0
2.835,3.3066e-05,0
2.8355,4.3473e-05,0
2.836,4.7501e-05,0
2.8366,4.0452e-05,0
2.8371,2.4002e-05,0
2.8376,5.7069e-06,0
2.8381,-2.8534e-06,0
2.8386,-3.357e-07,0
2.8392,7.2175e-06,0
2.8397,1.2589e-05,0
2.8402,1.9303e-05,0
2.8407,2.7695e-05,0
2.8412,3.2059e-05,0
2.8418,2.9374e-05,0
2.8423,2.266e-05,0
2.8428,1.7288e-05,0
2.8433,1.4603e-05,0
2.8438,8.7282e-06,0
2.8443,-3.8605e-06,0
2.8449,-1.7121e-05,0
2.8454,-1.9806e-05,0
2.8459,-1.2421e-05,0
2.8464,-9.3996e-06,0
2.8469,-1.3596e-05,0
2.8475,-1.7288e-05,0
2.848,-1.3764e-05,0
2.8485,-3.8605e-06,0
2.849,7.5532e-06,0
2.8495,2.0813e-05,0
2.8501,3.1388e-05,0
2.8506,2.3499e-05,0
2.8511,-3.1891e-06,0
2.8516,-2.1988e-05,0
2.8521,-1.6953e-05,0
2.8527,-1.1749e-06,0
2.8532,1.0071e-05,0
2.8537,8.5603e-06,0
2.8542,3.1891e-06,0
2.8547,5.2033e-06,0
2.8552,1.9974e-05,0
2.8558,3.4745e-05,0
2.8563,3.1052e-05,0
2.8568,1.4939e-05,0
2.8573,3.357e-06,0
2.8578,3.8605e-06,0
2.8584,7.0497e-06,0
2.8589,5.2033e-06,0
2.8594,6.3783e-06,0
2.8599,1.8463e-05,0
2.8604,3.3906e-05,0
2.861,4.9851e-05,0
2.8615,6.7308e-05,0
2.862,8.4092e-05,0
2.8625,0.00010457,0
2.863,0.00012102,0
2.8636,0.00011531,0
2.8641,8.0735e-05,0
2.8646,3.4745e-05,0
2.8651,-3.1891e-06,0
2.8656,-1.9638e-05,0
2.8662,-2.0981e-05,0
2.8667,-1.9135e-05,0
2.8672,-1.8967e-05,0
2.8677,-2.1317e-05,0
2.8682,-2.0981e-05,0
2.8687,-1.2757e-05,0
2.8693,-2.3499e-06,0
2.8698,5.7069e-06,0
2.8703,9.0639e-06,0
2.8708,6.8818e-06,0
2.8713,7.2175e-06,0
2.8719,1.561e-05,0
2.8724,3.3402e-05,0
2.8729,5.0858e-05,0
2.8734,5.2873e-05,0
2.8739,4.3977e-05,0
2.8745,4.1123e-05,0
2.875,5.0523e-05,0
2.8755,6.4286e-05,0
2.876,7.8721e-05,0
2.8765,9.7353e-05,0
2.8771,0.00011514,0
2.8776,0.00012505,0
2.8781,0.00013176,0
2.8786,0.00013277,0
2.8791,0.00011263,0
2.8797,6.7979e-05,0
2.8802,1.9303e-05,0
2.8807,-1.2421e-05,0
2.8812,-2.9374e-05,0
2.8817,-3.9109e-05,0
2.8822,-4.448e-05,0
2.8828,-4.4984e-05,0
2.8833,-3.592e-05,0
2.8838,-2.1317e-05,0
2.8843,-1.2421e-05,0
2.8848,-1.1582e-05,0
2.8854,-1.091e-05,0
2.8859,-7.5532e-06,0
2.8864,-1.3428e-06,0
2.8869,3.357e-06,0
2.8874,-1.6785e-06,0
2.888,-9.9031e-06,0
2.8885,-1.2589e-05,0
2.889,-1.091e-05,0
2.8895,1.6785e-07,0
2.89,2.7863e-05,0
2.8906,5.5222e-05,0
2.8911,5.2537e-05,0
2.8916,2.3667e-05,0
2.8921,-4.3641e-06,0
2.8926,-1.9638e-05,0
2.8932,-2.5681e-05,0
2.8937,-2.5681e-05,0
2.8942,-1.9974e-05,0
2.8947,-9.9031e-06,0
2.8952,2.5177e-06,0
2.8958,1.4267e-05,0
2.8963,2.0478e-05,0
2.8968,1.4603e-05,0
2.8973,4.6998e-06,0
2.8978,3.6927e-06,0
2.8983,1.7121e-05,0
2.8989,4.1291e-05,0
2.8994,6.4958e-05,0
2.8999,7.4693e-05,0
2.9004,6.8818e-05,0
2.9009,6.0594e-05,0
2.9015,5.8915e-05,0
2.902,6.6804e-05,0
2.9025,7.9393e-05,0
2.903,7.9057e-05,0
2.9035,5.9586e-05,0
2.9041,3.3738e-05,0
2.9046,1.4939e-05,0
2.9051,7.7211e-06,0
2.9056,3.8605e-06,0
2.9061,-5.7069e-06,0
2.9067,-1.8296e-05,0
2.9072,-2.6688e-05,0
2.9077,-2.5345e-05,0
2.9082,-1.6281e-05,0
2.9087,-7.7211e-06,0
2.9093,-7.2175e-06,0
2.9098,-9.7353e-06,0
2.9103,-5.7069e-06,0
2.9108,3.357e-06,0
2.9113,1.326e-05,0
2.9118,2.1988e-05,0
2.9124,2.6184e-05,0
2.9129,2.7695e-05,0
2.9134,2.7863e-05,0
2.9139,2.7695e-05,0
2.9144,2.9038e-05,0
2.915,3.5752e-05,0
2.9155,4.3473e-05,0
2.916,4.6494e-05,0
2.9165,4.9516e-05,0
2.917,5.4887e-05,0
2.9176,5.2033e-05,0
2.9181,3.8437e-05,0
2.9186,2.4506e-05,0
2.9191,1.8799e-05,0
2.9196,2.2492e-05,0
2.9202,2.9877e-05,0
2.9207,3.4745e-05,0
2.9212,3.4409e-05,0
2.9217,2.4674e-05,0
2.9222,1.0407e-05,0
2.9228,-8.3925e-07,0
2.9233,-6.2104e-06,0
2.9238,-8.7282e-06,0
2.9243,-6.2104e-06,0
2.9248,3.5248e-06,0
2.9253,1.2589e-05,0
2.9259,2.3331e-05,0
2.9264,3.508e-05,0
2.9269,3.8773e-05,0
2.9274,3.6255e-05,0
2.9279,2.8702e-05,0
2.9285,1.5442e-05,0
2.929,-8.3925e-07,0
2.9295,-1.5274e-05,0
2.93,-3.3066e-05,0
2.9305,-5.2537e-05,0
2.9311,-6.1265e-05,0
2.9316,-5.2369e-05,0
2.9321,-3.4409e-05,0
2.9326,-1.3596e-05,0
2.9331,1.0071e-05,0
2.9337,3.2731e-05,0
2.9342,4.9516e-05,0
2.9347,5.4887e-05,0
2.9352,4.6494e-05,0
2.9357,2.7024e-05,0
2.9362,2.182e-06,0
2.9368,-1.8296e-05,0
2.9373,-2.4002e-05,0
2.9378,-1.4267e-05,0
2.9383,-1.6785e-07,0
2.9388,6.5461e-06,0
2.9394,2.8534e-06,0
2.9399,3.1891e-06,0
2.9404,1.4939e-05,0
2.9409,2.266e-05,0
2.9414,2.6184e-05,0
2.942,3.9109e-05,0
2.9425,6.4286e-05,0
2.943,9.1814e-05,0
2.9435,0.00011128,0
2.944,0.00011666,0
2.9446,0.00010927,0
2.9451,9.6513e-05,0
2.9456,8.7282e-05,0
2.9461,8.3757e-05,0
2.9466,7.9561e-05,0
2.9472,6.865e-05,0
2.9477,5.4887e-05,0
2.9482,4.2298e-05,0
2.9487,2.887e-05,0
2.9492,1.0575e-05,0
2.9497,-5.7069e-06,0
2.9503,-1.561e-05,0
2.9508,-1.9806e-05,0
2.9513,-2.0645e-05,0
2.9518,-1.6617e-05,0
2.9523,-4.1962e-06,0
2.9529,1.4603e-05,0
2.9534,3.6759e-05,0
2.9539,5.4215e-05,0
2.9544,5.9586e-05,0
2.9549,5.2369e-05,0
2.9555,3.2898e-05,0
2.956,4.5319e-06,0
2.9565,-2.1988e-05,0
2.957,-4.3977e-05,0
2.9575,-5.7572e-05,0
2.9581,-5.9251e-05,0
2.9586,-5.6733e-05,0
2.9591,-5.5222e-05,0
2.9596,-5.5222e-05,0
2.9601,-4.8173e-05,0
2.9607,-3.3906e-05,0
2.9612,-2.1988e-05,0
2.9617,-1.4771e-05,0
2.9622,-6.8818e-06,0
2.9627,1.1582e-05,0
2.9632,3.8102e-05,0
2.9638,5.6565e-05,0
2.9643,6.3615e-05,0
2.9648,6.9657e-05,0
2.9653,8.4764e-05,0
2.9658,0.00010004,0
2.9664,0.00010037,0
2.9669,9.1142e-05,0
2.9674,8.3421e-05,0
2.9679,7.9896e-05,0
2.9684,7.9728e-05,0
2.969,8.426e-05,0
2.9695,8.7617e-05,0
2.97,7.9057e-05,0
2.9705,5.2369e-05,0
2.971,1.5274e-05,0
2.9716,-2.0981e-05,0
2.9721,-4.213e-05,0
2.9726,-4.683e-05,0
2.9731,-4.5151e-05,0
2.9736,-3.9445e-05,0
2.9742,-3.3402e-05,0
2.9747,-3.2563e-05,0
2.9752,-2.9374e-05,0
2.9757,-1.6953e-05,0
2.9762,1.0071e-06,0
2.9768,1.8967e-05,0
2.9773,3.6423e-05,0
2.9778,5.3544e-05,0
2.9783,6.7475e-05,0
2.9788,7.1672e-05,0
2.9793,6.3615e-05,0
2.9799,4.7837e-05,0
2.9804,2.9038e-05,0
2.9809,8.2246e-06,0
2.9814,-1.326e-05,0
2.9819,-3.743e-05,0
2.9825,-5.9251e-05,0
2.983,-6.5293e-05,0
2.9835,-3.8437e-05,0
2.984,1.7624e-05,0
2.9845,7.0329e-05,0
2.9851,9.2485e-05,0
2.9856,7.9057e-05,0
2.9861,4.9683e-05,0
2.9866,3.3738e-05,0
2.9871,3.3402e-05,0
2.9877,3.4073e-05,0
2.9882,2.9541e-05,0
2.9887,2.5345e-05,0
2.9892,2.3163e-05,0
2.9897,1.9471e-05,0
2.9903,1.8296e-05,0
2.9908,2.5345e-05,0
2.9913,3.4745e-05,0
2.9918,4.1459e-05,0
2.9923,4.4144e-05,0
2.9928,3.5752e-05,0
2.9934,1.4267e-05,0
2.9939,-1.1078e-05,0
2.9944,-3.0381e-05,0
2.9949,-3.9948e-05,0
2.9954,-4.3977e-05,0
2.996,-3.6591e-05,0
2.9965,-1.5442e-05,0
2.997,1.8463e-06,0
2.9975,1.1749e-05,0
2.998,2.8199e-05,0
2.9986,5.2201e-05,0
2.9991,7.57e-05,0
2.9996,9.1142e-05,0
3.0001,9.4499e-05,0
3.0006,8.7785e-05,0
3.0012,8.191e-05,0
3.0017,7.57e-05,0
3.0022,6.479e-05,0
3.0027,4.7837e-05,0
3.0032,2.8702e-05,0
3.0038,1.6281e-05,0
3.0043,1.4267e-05,0
3.0048,1.5778e-05,0
3.0053,1.4939e-05,0
3.0058,7.3854e-06,0
3.0063,-1.1414e-05,0
3.0069,-3.1724e-05,0
3.0074,-4.1962e-05,0
3.0079,-4.1794e-05,0
3.0084,-3.6255e-05,0
3.0089,-2.8534e-05,0
3.0095,-1.9471e-05,0
3.01,-1.2085e-05,0
3.0105,-1.0071e-06,0
3.011,2.2995e-05,0
3.0115,4.9348e-05,0
3.0121,5.8579e-05,0
3.0126,4.5319e-05,0
3.0131,2.0981e-05,0
3.0136,4.0284e-06,0
3.0141,8.7282e-06,0
3.0147,2.9374e-05,0
3.0152,4.5151e-05,0
3.0157,4.448e-05,0
3.0162,3.2731e-05,0
3.0167,1.9974e-05,0
3.0173,1.2924e-05,0
3.0178,1.0239e-05,0
3.0183,3.5248e-06,0
3.0188,-1.2253e-05,0
3.0193,-3.1724e-05,0
3.0198,-4.6494e-05,0
3.0204,-5.4383e-05,0
3.0209,-5.4551e-05,0
3.0214,-4.9683e-05,0
3.0219,-3.7766e-05,0
3.0224,-1.0407e-05,0
3.023,3.0716e-05,0
3.0235,7.4357e-05,0
3.024,0.00010692,0
3.0245,0.00012807,0
3.025,0.00013579,0
3.0256,0.00013143,0
3.0261,0.00011699,0
3.0266,9.752e-05,0
3.0271,7.9393e-05,0
3.0276,6.6636e-05,0
3.0282,5.5726e-05,0
3.0287,3.6927e-05,0
3.0292,1.2421e-05,0
3.0297,-1.5274e-05,0
3.0302,-4.7837e-05,0
3.0307,-7.805e-05,0
3.0313,-8.9464e-05,0
3.0318,-7.7379e-05,0
3.0323,-5.6565e-05,0
3.0328,-3.7934e-05,0
3.0333,-2.2995e-05,0
3.0339,-1.561e-05,0
3.0344,-1.6785e-05,0
3.0349,-2.1653e-05,0
3.0354,-2.4842e-05,0
3.0359,-2.2324e-05,0
3.0365,-5.8747e-06,0
3.037,1.7792e-05,0
3.0375,3.7263e-05,0
3.038,4.8844e-05,0
3.0385,5.2873e-05,0
3.0391,5.0355e-05,0
3.0396,4.9516e-05,0
3.0401,5.3208e-05,0
3.0406,5.7404e-05,0
3.0411,5.5558e-05,0
3.0417,4.4816e-05,0
3.0422,3.3234e-05,0
3.0427,3.2563e-05,0
3.0432,4.7333e-05,0
3.0437,6.6804e-05,0
3.0442,7.1839e-05,0
3.0448,5.5222e-05,0
3.0453,2.417e-05,0
3.0458,-7.7211e-06,0
3.0463,-2.266e-05,0
3.0468,-1.3596e-05,0
3.0474,2.8534e-06,0
3.0479,1.4267e-05,0
3.0484,2.2492e-05,0
3.0489,3.0716e-05,0
3.0494,4.062e-05,0
3.05,5.3544e-05,0
3.0505,6.865e-05,0
3.051,8.2582e-05,0
3.0515,8.4596e-05,0
3.052,7.3518e-05,0
3.0526,6.4286e-05,0
3.0531,6.5629e-05,0
3.0536,7.0665e-05,0
3.0541,6.5965e-05,0
3.0546,5.0187e-05,0
3.0552,3.3234e-05,0
3.0557,1.561e-05,0
3.0562,-2.8534e-06,0
3.0567,-1.3596e-05,0
3.0572,-1.9135e-05,0
3.0577,-3.1388e-05,0
3.0583,-4.3809e-05,0
3.0588,-4.3137e-05,0
3.0593,-3.2395e-05,0
3.0598,-2.4506e-05,0
3.0603,-2.501e-05,0
3.0609,-3.508e-05,0
3.0614,-5.3544e-05,0
3.0619,-6.3111e-05,0
3.0624,-5.0858e-05,0
3.0629,-3.3234e-05,0
3.0635,-2.3667e-05,0
3.064,-2.2995e-05,0
3.0645,-1.7624e-05,0
3.065,1.6785e-07,0
3.0655,1.6617e-05,0
3.0661,2.652e-05,0
3.0666,3.2563e-05,0
3.0671,3.3402e-05,0
3.0676,3.0045e-05,0
3.0681,3.1891e-05,0
3.0687,4.2634e-05,0
3.0692,5.4887e-05,0
3.0697,6.5461e-05,0
3.0702,7.0832e-05,0
3.0707,6.3951e-05,0
3.0713,5.0355e-05,0
3.0718,4.1123e-05,0
3.0723,3.4073e-05,0
3.0728,2.266e-05,0
3.0733,1.1749e-06,0
3.0738,-1.5946e-05,0
3.0744,-9.9031e-06,0
3.0749,1.3092e-05,0
3.0754,3.3066e-05,0
3.0759,4.1459e-05,0
3.0764,3.4745e-05,0
3.077,2.182e-05,0
3.0775,1.7288e-05,0
3.078,2.4842e-05,0
3.0785,3.6088e-05,0
3.079,3.7766e-05,0
3.0796,3.2059e-05,0
3.0801,2.9877e-05,0
3.0806,3.8437e-05,0
3.0811,5.1865e-05,0
3.0816,5.6901e-05,0
3.0822,4.7333e-05,0
3.0827,2.652e-05,0
3.0832,3.1891e-06,0
3.0837,-1.2253e-05,0
3.0842,-1.3092e-05,0
3.0848,3.1891e-06,0
3.0853,3.3066e-05,0
3.0858,6.3615e-05,0
3.0863,8.1743e-05,0
3.0868,9.1814e-05,0
3.0873,9.7688e-05,0
3.0879,0.00010474,0
3.0884,0.00011095,0
3.0889,0.00010893,0
3.0894,9.8695e-05,0
3.0899,7.6036e-05,0
3.0905,3.743e-05,0
3.091,2.5177e-06,0
3.0915,-1.3596e-05,0
3.092,-2.2995e-05,0
3.0925,-3.8102e-05,0
3.0931,-4.7166e-05,0
3.0936,-4.2466e-05,0
3.0941,-3.9445e-05,0
3.0946,-5.4887e-05,0
3.0951,-7.5364e-05,0
3.0957,-8.0064e-05,0
3.0962,-7.1672e-05,0
3.0967,-5.3544e-05,0
3.0972,-2.6352e-05,0
3.0977,6.714e-07,0
3.0983,2.6856e-05,0
3.0988,5.5222e-05,0
3.0993,8.04e-05,0
3.0998,9.6513e-05,0
3.1003,0.00010138,0
3.1008,8.6778e-05,0
3.1014,5.2201e-05,0
3.1019,1.8967e-05,0
3.1024,4.5319e-06,0
3.1029,-4.8676e-06,0
3.1034,-1.8967e-05,0
3.104,-2.3835e-05,0
3.1045,-1.5274e-05,0
3.105,-4.5319e-06,0
3.1055,-1.6785e-07,0
3.106,5.0355e-07,0
3.1066,6.5461e-06,0
3.1071,1.9303e-05,0
3.1076,3.5584e-05,0
3.1081,5.3544e-05,0
3.1086,7.7714e-05,0
3.1092,9.2821e-05,0
3.1097,8.2078e-05,0
3.1102,5.6062e-05,0
3.1107,3.592e-05,0
3.1112,2.3835e-05,0
3.1117,1.326e-05,0
3.1123,5.0355e-07,0
3.1128,-1.5946e-05,0
3.1133,-2.4338e-05,0
3.1138,-1.6953e-05,0
3.1143,-1.0071e-06,0
3.1149,9.3996e-06,0
3.1154,8.5603e-06,0
3.1159,8.5603e-06,0
3.1164,1.091e-05,0
3.1169,1.0239e-05,0
3.1175,6.0426e-06,0
3.118,3.5248e-06,0
3.1185,1.1246e-05,0
3.119,2.5681e-05,0
3.1195,3.2395e-05,0
3.1201,3.1891e-05,0
3.1206,4.0955e-05,0
3.1211,5.6565e-05,0
3.1216,5.9586e-05,0
3.1221,4.9012e-05,0
3.1227,3.4073e-05,0
3.1232,1.8631e-05,0
3.1237,9.9031e-06,0
3.1242,7.5532e-06,0
3.1247,-1.0071e-06,0
3.1252,-1.3596e-05,0
3.1258,-1.3596e-05,0
3.1263,-4.8676e-06,0
3.1268,4.3641e-06,0
3.1273,8.3925e-06,0
3.1278,7.7211e-06,0
3.1284,6.2104e-06,0
3.1289,9.2317e-06,0
3.1294,1.4939e-05,0
3.1299,1.8463e-05,0
3.1304,2.266e-05,0
3.131,2.4674e-05,0
3.1315,1.6785e-05,0
3.132,1.1749e-06,0
3.1325,-5.539e-06,0
3.133,-3.1891e-06,0
3.1336,-3.8605e-06,0
3.1341,-8.896e-06,0
3.1346,-7.8889e-06,0
3.1351,4.6998e-06,0
3.1356,2.7527e-05,0
3.1362,4.683e-05,0
3.1367,4.8173e-05,0
3.1372,4.0116e-05,0
3.1377,3.2731e-05,0
3.1382,2.7192e-05,0
3.1387,3.0213e-05,0
3.1393,3.8605e-05,0
3.1398,3.743e-05,0
3.1403,2.5513e-05,0
3.1408,1.6953e-05,0
3.1413,2.1317e-05,0
3.1419,3.0381e-05,0
3.1424,3.9445e-05,0
3.1429,5.1865e-05,0
3.1434,6.9657e-05,0
3.1439,8.4428e-05,0
3.1445,8.1743e-05,0
3.145,6.009e-05,0
3.1455,3.9109e-05,0
3.146,3.6088e-05,0
3.1465,4.3977e-05,0
3.1471,5.0523e-05,0
3.1476,4.1291e-05,0
3.1481,1.326e-05,0
3.1486,-1.9303e-05,0
3.1491,-4.683e-05,0
3.1497,-6.3111e-05,0
3.1502,-6.7308e-05,0
3.1507,-6.4958e-05,0
3.1512,-5.3544e-05,0
3.1517,-3.3906e-05,0
3.1522,-1.0575e-05,0
3.1528,1.1917e-05,0
3.1533,3.0213e-05,0
3.1538,3.978e-05,0
3.1543,3.2395e-05,0
3.1548,8.2246e-06,0
3.1554,-1.9974e-05,0
3.1559,-3.4913e-05,0
3.1564,-2.9038e-05,0
3.1569,-4.1962e-06,0
3.1574,2.4842e-05,0
3.158,4.213e-05,0
3.1585,5.1194e-05,0
3.159,5.8579e-05,0
3.1595,6.1601e-05,0
3.16,5.153e-05,0
3.1606,2.4674e-05,0
3.1611,-3.1891e-06,0
3.1616,-1.6953e-05,0
3.1621,-1.8296e-05,0
3.1626,-8.0568e-06,0
3.1632,1.2924e-05,0
3.1637,3.5416e-05,0
3.1642,5.2873e-05,0
3.1647,7.1336e-05,0
3.1652,8.5435e-05,0
3.1658,7.9561e-05,0
3.1663,5.4887e-05,0
3.1668,3.122e-05,0
3.1673,2.031e-05,0
3.1678,1.8631e-05,0
3.1683,1.9974e-05,0
3.1689,1.9638e-05,0
3.1694,1.4603e-05,0
3.1699,7.8889e-06,0
3.1704,2.8534e-06,0
3.1709,8.3925e-07,0
3.1715,3.357e-07,0
3.172,2.8534e-06,0
3.1725,7.8889e-06,0
3.173,1.7624e-05,0
3.1735,3.1891e-05,0
3.1741,4.3473e-05,0
3.1746,3.9445e-05,0
3.1751,2.8031e-05,0
3.1756,2.4674e-05,0
3.1761,3.2059e-05,0
3.1767,4.4144e-05,0
3.1772,5.2033e-05,0
3.1777,5.2201e-05,0
3.1782,4.5319e-05,0
3.1787,3.4913e-05,0
3.1793,3.0213e-05,0
3.1798,3.7766e-05,0
3.1803,5.2873e-05,0
3.1808,6.0761e-05,0
3.1813,5.4887e-05,0
3.1818,4.3473e-05,0
3.1824,3.357e-05,0
3.1829,2.2324e-05,0
3.1834,6.5461e-06,0
3.1839,-1.9135e-05,0
3.1844,-5.2537e-05,0
3.185,-7.2175e-05,0
3.1855,-6.479e-05,0
3.186,-4.1123e-05,0
3.1865,-1.6617e-05,0
3.187,-4.1962e-06,0
3.1876,1.6785e-07,0
3.1881,1.4939e-05,0
3.1886,4.1459e-05,0
3.1891,6.6972e-05,0
3.1896,7.2175e-05,0
3.1902,4.8173e-05,0
3.1907,1.6281e-05,0
3.1912,1.5106e-06,0
3.1917,7.8889e-06,0
3.1922,1.8631e-05,0
3.1928,1.8631e-05,0
3.1933,2.0981e-05,0
3.1938,4.0116e-05,0
3.1943,5.8076e-05,0
3.1948,6.0929e-05,0
3.1953,5.7908e-05,0
3.1959,6.3615e-05,0
3.1964,7.9728e-05,0
3.1969,9.0639e-05,0
3.1974,8.1743e-05,0
3.1979,5.388e-05,0
3.1985,2.266e-05,0
3.199,-1.5106e-06,0
3.1995,-1.9974e-05,0
3.2,-3.2563e-05,0
3.2005,-3.6423e-05,0
3.2011,-3.5752e-05,0
3.2016,-3.4577e-05,0
3.2021,-3.5248e-05,0
3.2026,-3.4073e-05,0
3.2031,-2.5345e-05,0
3.2037,-1.4099e-05,0
3.2042,-5.2033e-06,0
3.2047,-1.6785e-06,0
3.2052,-4.3641e-06,0
3.2057,-6.2104e-06,0
3.2062,-3.6927e-06,0
3.2068,1.6785e-07,0
3.2073,9.2317e-06,0
3.2078,2.5345e-05,0
3.2083,4.0116e-05,0
3.2088,5.0187e-05,0
3.2094,5.7908e-05,0
3.2099,7.1504e-05,0
3.2104,9.1814e-05,0
3.2109,0.00010658,0
3.2114,0.00010457,0
3.212,8.8121e-05,0
3.2125,6.9322e-05,0
3.213,5.3544e-05,0
3.2135,3.7263e-05,0
3.214,1.2924e-05,0
3.2146,-1.7121e-05,0
3.2151,-3.8773e-05,0
3.2156,-4.2298e-05,0
3.2161,-3.122e-05,0
3.2166,-2.9709e-05,0
3.2172,-4.6159e-05,0
3.2177,-6.2776e-05,0
3.2182,-6.3615e-05,0
3.2187,-4.5655e-05,0
3.2192,-1.4603e-05,0
3.2197,1.6785e-05,0
3.2203,3.8773e-05,0
3.2208,5.0523e-05,0
3.2213,5.2033e-05,0
3.2218,4.683e-05,0
3.2223,4.3137e-05,0
3.2229,4.2802e-05,0
3.2234,4.0116e-05,0
3.2239,3.7095e-05,0
3.2244,3.3066e-05,0
3.2249,2.031e-05,0
3.2255,2.182e-06,0
3.226,-9.2317e-06,0
3.2265,-1.2924e-05,0
3.227,-1.1582e-05,0
3.2275,-1.5106e-06,0
3.2281,1.5106e-05,0
3.2286,3.5584e-05,0
3.2291,6.4286e-05,0
3.2296,0.00010188,0
3.2301,0.00012941,0
3.2307,0.00012941,0
3.2312,0.00010977,0
3.2317,8.9464e-05,0
3.2322,8.04e-05,0
3.2327,8.0064e-05,0
3.2332,7.9728e-05,0
3.2338,7.4189e-05,0
3.2343,6.3447e-05,0
3.2348,5.1026e-05,0
3.2353,4.2802e-05,0
3.2358,3.6088e-05,0
3.2364,2.2324e-05,0
3.2369,0,0
3.2374,-2.0813e-05,0
3.2379,-3.1724e-05,0
3.2384,-2.7695e-05,0
3.239,-1.8296e-05,0
3.2395,-1.5778e-05,0
3.24,-2.5177e-05,0
3.2405,-4.1794e-05,0
3.241,-5.0523e-05,0
3.2416,-4.0116e-05,0
3.2421,-1.1917e-05,0
3.2426,2.2828e-05,0
3.2431,4.5487e-05,0
3.2436,4.448e-05,0
3.2442,3.3402e-05,0
3.2447,2.7695e-05,0
3.2452,1.7456e-05,0
3.2457,-1.5106e-06,0
3.2462,-1.4267e-05,0
3.2468,-1.9806e-05,0
3.2473,-3.3906e-05,0
3.2478,-5.1362e-05,0
3.2483,-4.6326e-05,0
3.2488,-1.6449e-05,0
3.2493,1.8631e-05,0
3.2499,4.0116e-05,0
3.2504,4.8173e-05,0
3.2509,4.8508e-05,0
3.2514,4.1459e-05,0
3.2519,2.7359e-05,0
3.2525,1.0407e-05,0
3.253,-2.182e-06,0
3.2535,-1.1749e-05,0
3.254,-1.6449e-05,0
3.2545,-1.0407e-05,0
3.2551,3.1891e-06,0
3.2556,1.4267e-05,0
3.2561,2.2995e-05,0
3.2566,3.0213e-05,0
3.2571,3.1052e-05,0
3.2577,3.3906e-05,0
3.2582,4.448e-05,0
3.2587,5.4215e-05,0
3.2592,5.2705e-05,0
3.2597,4.7837e-05,0
3.2603,5.4215e-05,0
3.2608,6.4286e-05,0
3.2613,5.6062e-05,0
3.2618,3.4073e-05,0
3.2623,1.9303e-05,0
3.2628,1.2589e-05,0
3.2634,9.2317e-06,0
3.2639,1.0575e-05,0
3.2644,1.7121e-05,0
3.2649,2.7527e-05,0
3.2654,3.122e-05,0
3.266,1.9135e-05,0
3.2665,-8.3925e-07,0
3.267,-1.561e-05,0
3.2675,-2.1653e-05,0
3.268,-2.266e-05,0
3.2686,-1.7456e-05,0
3.2691,-7.2175e-06,0
3.2696,7.2175e-06,0
3.2701,2.0981e-05,0
3.2706,2.3667e-05,0
3.2712,1.5274e-05,0
3.2717,5.2033e-06,0
3.2722,2.182e-06,0
3.2727,1.1917e-05,0
3.2732,3.0716e-05,0
3.2738,4.5319e-05,0
3.2743,5.1194e-05,0
3.2748,5.3376e-05,0
3.2753,6.2104e-05,0
3.2758,7.9057e-05,0
3.2763,9.7185e-05,0
3.2769,0.00010088,0
3.2774,8.8457e-05,0
3.2779,7.0329e-05,0
3.2784,5.3376e-05,0
3.2789,3.6423e-05,0
3.2795,2.0981e-05,0
3.28,6.0426e-06,0
3.2805,-1.4267e-05,0
3.281,-3.978e-05,0
3.2815,-5.5558e-05,0
3.2821,-5.4719e-05,0
3.2826,-5.069e-05,0
3.2831,-4.9516e-05,0
3.2836,-4.3809e-05,0
3.2841,-2.7359e-05,0
3.2847,-1.5442e-05,0
3.2852,-1.7792e-05,0
3.2857,-2.0813e-05,0
3.2862,-1.8631e-05,0
3.2867,-1.8967e-05,0
3.2872,-2.6856e-05,0
3.2878,-3.3906e-05,0
3.2883,-3.4073e-05,0
3.2888,-2.1653e-05,0
3.2893,2.0142e-06,0
3.2898,2.7024e-05,0
3.2904,4.5487e-05,0
3.2909,5.5726e-05,0
3.2914,5.8915e-05,0
3.2919,6.0594e-05,0
3.2924,6.8986e-05,0
3.293,8.7114e-05,0
3.2935,0.00010759,0
3.294,0.00012136,0
3.2945,0.00012773,0
3.295,0.00013193,0
3.2956,0.00013545,0
3.2961,0.00012807,0
3.2966,9.7856e-05,0
3.2971,5.6733e-05,0
3.2976,1.9135e-05,0
3.2982,-1.1917e-05,0
3.2987,-3.357e-05,0
3.2992,-5.0355e-05,0
3.2997,-6.8147e-05,0
3.3002,-7.4357e-05,0
3.3007,-6.2943e-05,0
3.3013,-4.4984e-05,0
3.3018,-2.8367e-05,0
3.3023,-2.0813e-05,0
3.3028,-1.9471e-05,0
3.3033,-1.0407e-05,0
3.3039,9.2317e-06,0
3.3044,2.9374e-05,0
3.3049,3.978e-05,0
3.3054,3.8437e-05,0
3.3059,3.1052e-05,0
3.3065,2.266e-05,0
3.307,1.7288e-05,0
3.3075,1.8967e-05,0
3.308,2.3835e-05,0
3.3085,2.1317e-05,0
3.3091,1.2589e-05,0
3.3096,1.8463e-06,0
3.3101,4.3641e-06,0
3.3106,2.031e-05,0
3.3111,3.592e-05,0
3.3117,4.0452e-05,0
3.3122,2.9374e-05,0
3.3127,6.8818e-06,0
3.3132,-6.714e-06,0
3.3137,-3.5248e-06,0
3.3142,1.6785e-06,0
3.3148,-5.539e-06,0
3.3153,-4.1962e-06,0
3.3158,2.7024e-05,0
3.3163,7.2343e-05,0
3.3168,0.00010826,0
3.3174,0.00011531,0
3.3179,8.7785e-05,0
3.3184,3.7095e-05,0
3.3189,-1.2421e-05,0
3.3194,-3.7766e-05,0
3.32,-3.508e-05,0
3.3205,-2.2995e-05,0
3.321,-1.796e-05,0
3.3215,-1.6953e-05,0
3.322,-9.9031e-06,0
3.3226,0,0
3.3231,3.8605e-06,0
3.3236,2.8534e-06,0
3.3241,3.1891e-06,0
3.3246,1.0239e-05,0
3.3252,2.1317e-05,0
3.3257,2.4674e-05,0
3.3262,1.3931e-05,0
3.3267,5.2033e-06,0
3.3272,5.2033e-06,0
3.3277,5.3712e-06,0
3.3283,1.5106e-06,0
3.3288,0,0
3.3293,5.0355e-06,0
3.3298,1.796e-05,0
3.3303,3.2731e-05,0
3.3309,3.743e-05,0
3.3314,3.3738e-05,0
3.3319,3.5416e-05,0
3.3324,5.4215e-05,0
3.3329,8.9296e-05,0
3.3335,0.00011951,0
3.334,0.00013092,0
3.3345,0.00012723,0
3.335,0.0001133,0
3.3355,9.2149e-05,0
3.3361,6.7979e-05,0
3.3366,4.4144e-05,0
3.3371,2.4002e-05,0
3.3376,1.1917e-05,0
3.3381,8.896e-06,0
3.3387,1.0575e-05,0
3.3392,1.0407e-05,0
3.3397,7.8889e-06,0
3.3402,3.1891e-06,0
3.3407,-1.1917e-05,0
3.3413,-3.2395e-05,0
3.3418,-4.5151e-05,0
3.3423,-4.7837e-05,0
3.3428,-3.7263e-05,0
3.3433,-1.4267e-05,0
3.3438,9.2317e-06,0
3.3444,2.6688e-05,0
3.3449,4.4816e-05,0
3.3454,7.0161e-05,0
3.3459,9.2485e-05,0
3.3464,9.987e-05,0
3.347,0.00010188,0
3.3475,9.9702e-05,0
3.348,8.3085e-05,0
3.3485,5.4719e-05,0
3.349,2.3835e-05,0
3.3496,-5.2033e-06,0
3.3501,-2.9038e-05,0
3.3506,-4.7837e-05,0
3.3511,-6.6636e-05,0
3.3516,-8.8121e-05,0
3.3522,-0.00010558,0
3.3527,-0.00010323,0
3.3532,-8.1239e-05,0
3.3537,-5.9922e-05,0
3.3542,-4.6494e-05,0
3.3548,-3.2563e-05,0
3.3553,-2.0645e-05,0
3.3558,-2.031e-05,0
3.3563,-2.6184e-05,0
3.3568,-2.3667e-05,0
3.3573,-6.8818e-06,0
3.3579,1.2589e-05,0
3.3584,2.1317e-05,0
3.3589,2.4002e-05,0
3.3594,2.9038e-05,0
3.3599,3.7766e-05,0
3.3605,4.7166e-05,0
3.361,5.5558e-05,0
3.3615,6.5126e-05,0
3.362,7.3014e-05,0
3.3625,7.9393e-05,0
3.3631,8.5267e-05,0
3.3636,8.426e-05,0
3.3641,7.6371e-05,0
3.3646,6.7475e-05,0
3.3651,6.0929e-05,0
3.3657,5.7404e-05,0
3.3662,5.623e-05,0
3.3667,5.9586e-05,0
3.3672,6.4286e-05,0
3.3677,6.1433e-05,0
3.3683,5.0523e-05,0
3.3688,4.6998e-05,0
3.3693,5.3544e-05,0
3.3698,5.9586e-05,0
3.3703,6.0258e-05,0
3.3708,5.5894e-05,0
3.3714,4.5487e-05,0
3.3719,2.7527e-05,0
3.3724,4.8676e-06,0
3.3729,-1.4267e-05,0
3.3734,-2.4674e-05,0
3.374,-3.3234e-05,0
3.3745,-4.7837e-05,0
3.375,-5.9586e-05,0
3.3755,-6.009e-05,0
3.376,-5.388e-05,0
3.3766,-4.448e-05,0
3.3771,-3.0381e-05,0
3.3776,-1.1246e-05,0
3.3781,7.0497e-06,0
3.3786,1.1582e-05,0
3.3792,1.2253e-05,0
3.3797,3.0213e-05,0
3.3802,6.009e-05,0
3.3807,8.3757e-05,0
3.3812,9.9199e-05,0
3.3817,0.00011363,0
3.3823,0.00011901,0
3.3828,0.00011766,0
3.3833,0.00012522,0
3.3838,0.00013713,0
3.3843,0.00012824,0
3.3849,9.6178e-05,0
3.3854,6.1601e-05,0
3.3859,2.4002e-05,0
3.3864,-1.7624e-05,0
3.3869,-5.1865e-05,0
3.3875,-7.9225e-05,0
3.388,-0.00010272,0
3.3885,-0.00011028,0
3.389,-9.366e-05,0
3.3895,-6.0594e-05,0
3.3901,-2.6688e-05,0
3.3906,-3.357e-06,0
3.3911,8.896e-06,0
3.3916,1.5946e-05,0
3.3921,2.3835e-05,0
3.3927,3.0045e-05,0
3.3932,3.2059e-05,0
3.3937,3.2059e-05,0
3.3942,3.3402e-05,0
3.3947,3.3234e-05,0
3.3952,2.5681e-05,0
3.3958,1.4435e-05,0
3.3963,4.8676e-06,0
3.3968,-7.3854e-06,0
3.3973,-1.9638e-05,0
3.3978,-1.6953e-05,0
3.3984,4.8676e-06,0
3.3989,3.2059e-05,0
3.3994,4.3473e-05,0
3.3999,3.6591e-05,0
3.4004,3.1556e-05,0
3.401,3.7934e-05,0
3.4015,4.213e-05,0
3.402,2.9709e-05,0
3.4025,1.0575e-05,0
3.403,3.6927e-06,0
3.4036,1.1246e-05,0
3.4041,1.8631e-05,0
3.4046,2.5345e-05,0
3.4051,3.743e-05,0
3.4056,5.1865e-05,0
3.4062,5.7237e-05,0
3.4067,4.4648e-05,0
3.4072,2.182e-05,0
3.4077,-6.714e-07,0
3.4082,-1.5274e-05,0
3.4087,-1.4099e-05,0
3.4093,-8.5603e-06,0
3.4098,-1.0407e-05,0
3.4103,-1.0239e-05,0
3.4108,4.8676e-06,0
3.4113,2.3331e-05,0
3.4119,3.1891e-05,0
3.4124,3.3738e-05,0
3.4129,3.1891e-05,0
3.4134,3.8941e-05,0
3.4139,6.7643e-05,0
3.4145,9.6178e-05,0
3.415,9.8863e-05,0
3.4155,7.7714e-05,0
3.416,4.5487e-05,0
3.4165,9.7353e-06,0
3.4171,-1.9303e-05,0
3.4176,-2.9709e-05,0
3.4181,-2.3499e-05,0
3.4186,-1.2589e-05,0
3.4191,-5.0355e-07,0
3.4197,1.9303e-05,0
3.4202,2.9038e-05,0
3.4207,1.2421e-05,0
3.4212,-1.9974e-05,0
3.4217,-4.5151e-05,0
3.4223,-5.4887e-05,0
3.4228,-5.3544e-05,0
3.4233,-4.9516e-05,0
3.4238,-4.1627e-05,0
3.4243,-2.182e-05,0
3.4248,8.7282e-06,0
3.4254,3.8941e-05,0
3.4259,5.3544e-05,0
3.4264,4.6159e-05,0
3.4269,3.2731e-05,0
3.4274,2.8702e-05,0
3.428,3.0716e-05,0
3.4285,3.0045e-05,0
3.429,2.6352e-05,0
3.4295,2.3835e-05,0
3.43,2.3835e-05,0
3.4306,2.4338e-05,0
3.4311,1.8296e-05,0
3.4316,8.5603e-06,0
3.4321,9.7353e-06,0
3.4326,2.6688e-05,0
3.4332,4.5823e-05,0
3.4337,5.9419e-05,0
3.4342,7.335e-05,0
3.4347,8.9464e-05,0
3.4352,0.00010256,0
3.4358,0.00010893,0
3.4363,0.00010373,0
3.4368,8.4092e-05,0
3.4373,5.7908e-05,0
3.4378,3.4745e-05,0
3.4383,1.7624e-05,0
3.4389,7.5532e-06,0
3.4394,7.2175e-06,0
3.4399,5.2033e-06,0
3.4404,-7.8889e-06,0
3.4409,-1.7121e-05,0
3.4415,-1.3092e-05,0
3.442,-6.8818e-06,0
3.4425,-1.1078e-05,0
3.443,-2.3163e-05,0
3.4435,-2.9374e-05,0
3.4441,-2.6352e-05,0
3.4446,-2.1988e-05,0
3.4451,-1.6785e-05,0
3.4456,-9.2317e-06,0
3.4461,-8.3925e-07,0
3.4467,7.8889e-06,0
3.4472,1.796e-05,0
3.4477,3.1724e-05,0
3.4482,5.0858e-05,0
3.4487,7.1e-05,0
3.4493,8.5771e-05,0
3.4498,8.9128e-05,0
3.4503,7.1504e-05,0
3.4508,4.2802e-05,0
3.4513,3.0213e-05,0
3.4518,4.0787e-05,0
3.4524,5.7572e-05,0
3.4529,6.0594e-05,0
3.4534,4.8005e-05,0
3.4539,3.0381e-05,0
3.4544,1.3428e-05,0
3.455,-5.539e-06,0
3.4555,-2.7863e-05,0
3.456,-4.7837e-05,0
3.4565,-5.8747e-05,0
3.457,-5.9586e-05,0
3.4576,-5.9419e-05,0
3.4581,-6.0258e-05,0
3.4586,-5.3376e-05,0
3.4591,-3.5752e-05,0
3.4596,-1.3931e-05,0
3.4602,5.0355e-06,0
3.4607,1.9471e-05,0
3.4612,2.8534e-05,0
3.4617,2.7863e-05,0
3.4622,2.1988e-05,0
3.4628,2.3667e-05,0
3.4633,3.4745e-05,0
3.4638,4.5655e-05,0
3.4643,5.4215e-05,0
3.4648,6.5126e-05,0
3.4653,7.5364e-05,0
3.4659,7.5029e-05,0
3.4664,6.2943e-05,0
3.4669,4.7166e-05,0
3.4674,3.5416e-05,0
3.4679,3.0045e-05,0
3.4685,2.4338e-05,0
3.469,2.3331e-05,0
3.4695,2.9709e-05,0
3.47,3.7263e-05,0
3.4705,4.213e-05,0
3.4711,3.9612e-05,0
3.4716,3.1052e-05,0
3.4721,2.6688e-05,0
3.4726,3.4577e-05,0
3.4731,4.7166e-05,0
3.4737,4.9516e-05,0
3.4742,3.978e-05,0
3.4747,2.652e-05,0
3.4752,1.6114e-05,0
3.4757,7.5532e-06,0
3.4762,2.5177e-06,0
3.4768,7.8889e-06,0
3.4773,9.7353e-06,0
3.4778,-1.5106e-06,0
3.4783,-1.6281e-05,0
3.4788,-1.6281e-05,0
3.4794,2.5177e-06,0
3.4799,2.4674e-05,0
3.4804,3.357e-05,0
3.4809,2.5177e-05,0
3.4814,8.5603e-06,0
3.482,-3.5248e-06,0
3.4825,-5.2033e-06,0
3.483,-5.2033e-06,0
3.4835,-1.0742e-05,0
3.484,-1.6953e-05,0
3.4846,-1.8967e-05,0
3.4851,-1.796e-05,0
3.4856,-1.6953e-05,0
3.4861,-1.8967e-05,0
3.4866,-1.8128e-05,0
3.4872,-9.9031e-06,0
3.4877,5.8747e-06,0
3.4882,3.0045e-05,0
3.4887,4.6662e-05,0
3.4892,4.2802e-05,0
3.4897,3.5416e-05,0
3.4903,4.062e-05,0
3.4908,6.4118e-05,0
3.4913,0.00010021,0
3.4918,0.00012572,0
3.4923,0.00012471,0
3.4929,0.00010021,0
3.4934,6.4286e-05,0
3.4939,3.4073e-05,0
3.4944,1.9303e-05,0
3.4949,1.4939e-05,0
3.4955,4.8676e-06,0
3.496,-7.5532e-06,0
3.4965,-1.3931e-05,0
3.497,-2.4338e-05,0
3.4975,-3.3402e-05,0
3.4981,-2.9709e-05,0
3.4986,-2.3667e-05,0
3.4991,-3.0716e-05,0
3.4996,-3.8605e-05,0
3.5001,-3.0381e-05,0
3.5007,-7.8889e-06,0
3.5012,1.1749e-05,0
3.5017,2.2492e-05,0
3.5022,3.2395e-05,0
3.5027,4.213e-05,0
3.5032,5.069e-05,0
3.5038,6.0594e-05,0
3.5043,6.8986e-05,0
3.5048,7.1168e-05,0
3.5053,7.0497e-05,0
3.5058,7.4357e-05,0
3.5064,8.2918e-05,0
3.5069,8.8121e-05,0
3.5074,8.4092e-05,0
3.5079,7.0329e-05,0
3.5084,5.0858e-05,0
3.509,3.508e-05,0
3.5095,2.3667e-05,0
3.51,1.2421e-05,0
3.5105,-2.182e-06,0
3.511,-1.8296e-05,0
3.5116,-3.3738e-05,0
3.5121,-4.5655e-05,0
3.5126,-5.1362e-05,0
3.5131,-4.918e-05,0
3.5136,-4.0452e-05,0
3.5142,-2.9038e-05,0
3.5147,-1.8631e-05,0
3.5152,-1.1078e-05,0
3.5157,-8.2246e-06,0
3.5162,-7.3854e-06,0
3.5168,-3.5248e-06,0
3.5173,5.539e-06,0
3.5178,1.4939e-05,0
3.5183,2.3835e-05,0
3.5188,3.9109e-05,0
3.5193,6.1936e-05,0
3.5199,7.7043e-05,0
3.5204,7.4693e-05,0
3.5209,6.3447e-05,0
3.5214,6.3111e-05,0
3.5219,7.4189e-05,0
3.5225,8.5771e-05,0
3.523,9.4163e-05,0
3.5235,9.4163e-05,0
3.524,8.04e-05,0
3.5245,5.8076e-05,0
3.5251,3.2731e-05,0
3.5256,1.6114e-05,0
3.5261,1.5106e-05,0
3.5266,1.6281e-05,0
3.5271,-1.1749e-06,0
3.5277,-3.508e-05,0
3.5282,-6.2776e-05,0
3.5287,-7.1168e-05,0
3.5292,-6.6972e-05,0
3.5297,-5.7404e-05,0
3.5303,-3.9277e-05,0
3.5308,-1.5106e-05,0
3.5313,1.8463e-06,0
3.5318,1.0239e-05,0
3.5323,2.1988e-05,0
3.5328,3.7934e-05,0
3.5334,5.2201e-05,0
3.5339,6.3447e-05,0
3.5344,6.63e-05,0
3.5349,6.2608e-05,0
3.5354,5.6565e-05,0
3.536,4.8005e-05,0
3.5365,4.0452e-05,0
3.537,2.9374e-05,0
3.5375,1.6281e-05,0
3.538,4.5319e-06,0
3.5386,-8.896e-06,0
3.5391,-2.3667e-05,0
3.5396,-4.1291e-05,0
3.5401,-6.1601e-05,0
3.5406,-6.8315e-05,0
3.5412,-5.9586e-05,0
3.5417,-4.213e-05,0
3.5422,-2.5849e-05,0
3.5427,-1.7288e-05,0
3.5432,-5.539e-06,0
3.5438,2.1653e-05,0
3.5443,6.0761e-05,0
3.5448,9.4835e-05,0
3.5453,0.00010625,0
3.5458,0.00010172,0
3.5463,0.00010021,0
3.5469,0.00010356,0
3.5474,0.00010054,0
3.5479,8.9632e-05,0
3.5484,7.4693e-05,0
3.5489,5.7237e-05,0
3.5495,3.2395e-05,0
3.55,4.1962e-06,0
3.5505,-2.0981e-05,0
3.551,-4.448e-05,0
3.5515,-6.9825e-05,0
3.5521,-9.366e-05,0
3.5526,-0.00010407,0
3.5531,-9.5506e-05,0
3.5536,-6.8818e-05,0
3.5541,-3.2898e-05,0
3.5547,-6.3783e-06,0
3.5552,4.5319e-06,0
3.5557,1.4435e-05,0
3.5562,3.3402e-05,0
3.5567,5.069e-05,0
3.5572,5.0019e-05,0
3.5578,3.9277e-05,0
3.5583,3.6927e-05,0
3.5588,4.8173e-05,0
3.5593,6.8315e-05,0
3.5598,8.8457e-05,0
3.5604,9.8863e-05,0
3.5609,9.2485e-05,0
3.5614,7.6875e-05,0
3.5619,6.3111e-05,0
3.5624,5.0187e-05,0
3.563,3.6591e-05,0
3.5635,2.4674e-05,0
3.564,1.6617e-05,0
3.5645,2.0478e-05,0
3.565,3.6591e-05,0
3.5656,4.2802e-05,0
3.5661,2.1317e-05,0
3.5666,-7.2175e-06,0
3.5671,-2.2492e-05,0
3.5676,-3.0716e-05,0
3.5682,-4.1962e-05,0
3.5687,-5.0523e-05,0
3.5692,-3.9948e-05,0
3.5697,-1.4267e-05,0
3.5702,7.7211e-06,0
3.5707,1.6953e-05,0
3.5713,1.9135e-05,0
3.5718,2.6017e-05,0
3.5723,4.6494e-05,0
3.5728,7.9057e-05,0
3.5733,0.0001133,0
3.5739,0.00012874,0
3.5744,0.00011783,0
3.5749,9.5171e-05,0
3.5754,7.9057e-05,0
3.5759,6.7643e-05,0
3.5765,5.2705e-05,0
3.577,3.592e-05,0
3.5775,2.3499e-05,0
3.578,1.1917e-05,0
3.5785,-2.3499e-06,0
3.5791,-1.3764e-05,0
3.5796,-2.2156e-05,0
3.5801,-3.0381e-05,0
3.5806,-2.7024e-05,0
3.5811,-1.091e-05,0
3.5817,1.2085e-05,0
3.5822,3.9445e-05,0
3.5827,6.6468e-05,0
3.5832,7.6539e-05,0
3.5837,6.4958e-05,0
3.5842,4.0787e-05,0
3.5848,1.4099e-05,0
3.5853,-5.7069e-06,0
3.5858,-1.9974e-05,0
3.5863,-3.9277e-05,0
3.5868,-6.6972e-05,0
3.5874,-8.2078e-05,0
3.5879,-7.1672e-05,0
3.5884,-4.9851e-05,0
3.5889,-2.2156e-05,0
3.5894,1.4267e-05,0
3.59,4.448e-05,0
3.5905,4.8173e-05,0
3.591,2.9206e-05,0
3.5915,9.7353e-06,0
3.592,1.1246e-05,0
3.5926,3.592e-05,0
3.5931,5.8915e-05,0
3.5936,6.5965e-05,0
3.5941,5.9922e-05,0
3.5946,4.8844e-05,0
3.5952,4.0452e-05,0
3.5957,3.8437e-05,0
3.5962,4.1291e-05,0
3.5967,4.1123e-05,0
3.5972,4.0452e-05,0
3.5978,3.743e-05,0
3.5983,2.3331e-05,0
3.5988,1.8463e-06,0
3.5993,-1.0575e-05,0
3.5998,-1.3596e-05,0
3.6003,-1.7288e-05,0
3.6009,-2.4002e-05,0
3.6014,-3.0213e-05,0
3.6019,-3.5752e-05,0
3.6024,-3.8605e-05,0
3.6029,-3.7934e-05,0
3.6035,-2.9206e-05,0
3.604,-7.5532e-06,0
3.6045,1.7288e-05,0
3.605,3.5416e-05,0
3.6055,5.4047e-05,0
3.6061,6.9657e-05,0
3.6066,7.5029e-05,0
3.6071,6.9322e-05,0
3.6076,5.7908e-05,0
3.6081,3.827e-05,0
3.6087,7.2175e-06,0
3.6092,-1.9135e-05,0
3.6097,-2.4842e-05,0
3.6102,-1.6449e-05,0
3.6107,-1.2924e-05,0
3.6113,-1.6281e-05,0
3.6118,-1.8631e-05,0
3.6123,-1.8967e-05,0
3.6128,-1.561e-05,0
3.6133,-1.091e-05,0
3.6138,-5.539e-06,0
3.6144,8.5603e-06,0
3.6149,3.5416e-05,0
3.6154,6.3615e-05,0
3.6159,8.1575e-05,0
3.6164,8.4428e-05,0
3.617,7.3014e-05,0
3.6175,5.2873e-05,0
3.618,4.1123e-05,0
3.6185,4.3977e-05,0
3.619,5.0858e-05,0
3.6196,5.0187e-05,0
3.6201,3.743e-05,0
3.6206,2.182e-05,0
3.6211,1.2924e-05,0
3.6216,4.8676e-06,0
3.6222,-8.7282e-06,0
3.6227,-2.1653e-05,0
3.6232,-2.652e-05,0
3.6237,-2.9038e-05,0
3.6242,-2.6352e-05,0
3.6248,-1.0575e-05,0
3.6253,1.0239e-05,0
3.6258,2.5177e-05,0
3.6263,3.6927e-05,0
3.6268,4.4144e-05,0
3.6273,4.5823e-05,0
3.6279,4.4312e-05,0
3.6284,4.1794e-05,0
3.6289,4.213e-05,0
3.6294,5.0858e-05,0
3.6299,6.63e-05,0
3.6305,8.275e-05,0
3.631,9.5506e-05,0
3.6315,9.9702e-05,0
3.632,9.5003e-05,0
3.6325,8.426e-05,0
3.6331,7.0497e-05,0
3.6336,5.2873e-05,0
3.6341,3.2731e-05,0
3.6346,1.1078e-05,0
3.6351,-1.091e-05,0
3.6357,-2.1988e-05,0
3.6362,-1.5106e-05,0
3.6367,-7.8889e-06,0
3.6372,-1.9806e-05,0
3.6377,-4.5151e-05,0
3.6383,-6.6804e-05,0
3.6388,-7.3518e-05,0
3.6393,-6.1097e-05,0
3.6398,-2.7695e-05,0
3.6403,1.1749e-05,0
3.6408,4.2634e-05,0
3.6414,6.2272e-05,0
3.6419,7.0329e-05,0
3.6424,7.2175e-05,0
3.6429,7.1672e-05,0
3.6434,6.63e-05,0
3.644,5.4551e-05,0
3.6445,3.9445e-05,0
3.645,2.4002e-05,0
3.6455,8.7282e-06,0
3.646,-3.357e-07,0
3.6466,-2.5177e-06,0
3.6471,-1.091e-05,0
3.6476,-2.7192e-05,0
3.6481,-4.2298e-05,0
3.6486,-5.2537e-05,0
3.6492,-6.479e-05,0
3.6497,-7.2679e-05,0
3.6502,-5.6565e-05,0
3.6507,-1.4939e-05,0
3.6512,3.8437e-05,0
3.6517,8.5771e-05,0
3.6523,0.00011951,0
3.6528,0.00014804,0
3.6533,0.000165,0
3.6538,0.00015811,0
3.6543,0.00013243,0
3.6549,0.00010423,0
3.6554,7.8889e-05,0
3.6559,5.6733e-05,0
3.6564,3.9109e-05,0
3.6569,2.5681e-05,0
3.6575,1.326e-05,0
3.658,-6.714e-07,0
3.6585,-1.7792e-05,0
3.659,-3.3066e-05,0
3.6595,-4.2466e-05,0
3.6601,-5.3544e-05,0
3.6606,-7.0665e-05,0
3.6611,-8.4764e-05,0
3.6616,-9.0639e-05,0
3.6621,-8.6107e-05,0
3.6627,-6.9154e-05,0
3.6632,-5.0019e-05,0
3.6637,-3.6927e-05,0
3.6642,-2.1653e-05,0
3.6647,7.7211e-06,0
3.6652,4.7166e-05,0
3.6658,8.04e-05,0
3.6663,9.2485e-05,0
3.6668,8.4596e-05,0
3.6673,7.6875e-05,0
3.6678,7.7043e-05,0
3.6684,7.1504e-05,0
3.6689,5.388e-05,0
3.6694,3.6759e-05,0
3.6699,2.6352e-05,0
3.6704,1.5274e-05,0
3.671,3.5248e-06,0
3.6715,-1.0071e-06,0
3.672,-1.6785e-06,0
3.6725,-4.1962e-06,0
3.673,-8.7282e-06,0
3.6736,-1.4603e-05,0
3.6741,-1.8631e-05,0
3.6746,-1.0239e-05,0
3.6751,9.5674e-06,0
3.6756,3.2731e-05,0
3.6762,5.3544e-05,0
3.6767,7.0665e-05,0
3.6772,8.2078e-05,0
3.6777,8.0903e-05,0
3.6782,6.8315e-05,0
3.6787,5.3544e-05,0
3.6793,4.2802e-05,0
3.6798,3.4409e-05,0
3.6803,2.6688e-05,0
3.6808,1.4603e-05,0
3.6813,-6.8818e-06,0
3.6819,-3.2731e-05,0
3.6824,-5.069e-05,0
3.6829,-5.5055e-05,0
3.6834,-4.683e-05,0
3.6839,-4.4816e-05,0
3.6845,-5.388e-05,0
3.685,-5.5726e-05,0
3.6855,-3.6759e-05,0
3.686,3.8605e-06,0
3.6865,6.1265e-05,0
3.6871,0.00011901,0
3.6876,0.00015761,0
3.6881,0.00016332,0
3.6886,0.00014452,0
3.6891,0.00011061,0
3.6897,7.1336e-05,0
3.6902,3.7766e-05,0
3.6907,1.4603e-05,0
3.6912,5.0355e-07,0
3.6917,-1.326e-05,0
3.6923,-4.4144e-05,0
3.6928,-8.2246e-05,0
3.6933,-9.7856e-05,0
3.6938,-9.0135e-05,0
3.6943,-7.0665e-05,0
3.6948,-4.683e-05,0
3.6954,-3.5752e-05,0
3.6959,-3.7934e-05,0
3.6964,-2.7863e-05,0
3.6969,4.1962e-06,0
3.6974,4.0452e-05,0
3.698,5.9922e-05,0
3.6985,5.7237e-05,0
3.699,4.4144e-05,0
3.6995,3.1052e-05,0
3.7,2.031e-05,0
3.7006,1.5946e-05,0
3.7011,1.9974e-05,0
3.7016,3.0045e-05,0
3.7021,4.3473e-05,0
3.7026,5.3544e-05,0
3.7032,5.6901e-05,0
3.7037,5.6062e-05,0
3.7042,5.9419e-05,0
3.7047,6.4958e-05,0
3.7052,6.7475e-05,0
3.7058,7.0329e-05,0
3.7063,7.6707e-05,0
3.7068,8.0735e-05,0
3.7073,8.2246e-05,0
3.7078,7.8218e-05,0
3.7083,6.3279e-05,0
3.7089,4.683e-05,0
3.7094,3.9948e-05,0
3.7099,3.9445e-05,0
3.7104,3.4745e-05,0
3.7109,2.0478e-05,0
3.7115,3.1891e-06,0
3.712,-5.8747e-06,0
3.7125,-6.8818e-06,0
3.713,-1.1749e-05,0
3.7135,-2.7192e-05,0
3.7141,-4.0452e-05,0
3.7146,-4.2466e-05,0
3.7151,-4.1459e-05,0
3.7156,-4.4816e-05,0
3.7161,-4.5823e-05,0
3.7167,-2.9709e-05,0
3.7172,7.7211e-06,0
3.7177,4.8173e-05,0
3.7182,7.6036e-05,0
3.7187,9.5506e-05,0
3.7193,0.0001086,0
3.7198,0.00010843,0
3.7203,9.1814e-05,0
3.7208,6.3951e-05,0
3.7213,3.122e-05,0
3.7218,5.2033e-06,0
3.7224,-9.7353e-06,0
3.7229,-1.9806e-05,0
3.7234,-2.501e-05,0
3.7239,-3.0045e-05,0
3.7244,-3.1052e-05,0
3.725,-1.796e-05,0
3.7255,4.3641e-06,0
3.726,2.4338e-05,0
3.7265,3.9277e-05,0
3.727,4.7501e-05,0
3.7276,4.918e-05,0
3.7281,4.9516e-05,0
3.7286,4.5151e-05,0
3.7291,3.4073e-05,0
3.7296,2.4002e-05,0
3.7302,1.3596e-05,0
3.7307,0,0
3.7312,-8.2246e-06,0
3.7317,-1.1414e-05,0
3.7322,-2.4002e-05,0
3.7327,-4.5655e-05,0
3.7333,-5.9754e-05,0
3.7338,-5.9754e-05,0
3.7343,-5.2537e-05,0
3.7348,-4.5319e-05,0
3.7353,-3.9277e-05,0
3.7359,-3.0381e-05,0
3.7364,-1.5106e-05,0
3.7369,3.6927e-06,0
3.7374,1.7624e-05,0
3.7379,2.8702e-05,0
3.7385,4.1459e-05,0
3.739,5.3544e-05,0
3.7395,5.8244e-05,0
3.74,5.0858e-05,0
3.7405,3.5584e-05,0
3.7411,2.1317e-05,0
3.7416,1.8631e-05,0
3.7421,2.7695e-05,0
3.7426,4.448e-05,0
3.7431,6.7475e-05,0
3.7437,8.1743e-05,0
3.7442,7.5029e-05,0
3.7447,6.2943e-05,0
3.7452,6.0761e-05,0
3.7457,6.0929e-05,0
3.7462,5.7237e-05,0
3.7468,5.6062e-05,0
3.7473,6.3951e-05,0
3.7478,6.9154e-05,0
3.7483,5.7572e-05,0
3.7488,3.7766e-05,0
3.7494,2.0981e-05,0
3.7499,1.1917e-05,0
3.7504,7.7211e-06,0
3.7509,8.3925e-06,0
3.7514,1.5274e-05,0
3.752,1.9806e-05,0
3.7525,1.5778e-05,0
3.753,4.8676e-06,0
3.7535,-5.2033e-06,0
3.754,-1.1917e-05,0
3.7546,-1.4939e-05,0
3.7551,-4.5319e-06,0
3.7556,2.0645e-05,0
3.7561,4.5823e-05,0
3.7566,5.2873e-05,0
3.7572,3.9948e-05,0
3.7577,2.3163e-05,0
3.7582,1.5274e-05,0
3.7587,1.4603e-05,0
3.7592,6.5461e-06,0
3.7597,-1.0239e-05,0
3.7603,-2.031e-05,0
3.7608,-1.8967e-05,0
3.7613,-5.539e-06,0
3.7618,2.3835e-05,0
3.7623,5.2201e-05,0
3.7629,6.4118e-05,0
3.7634,6.5126e-05,0
3.7639,6.6636e-05,0
3.7644,7.7379e-05,0
3.7649,0.00010172,0
3.7655,0.00011531,0
3.766,8.9128e-05,0
3.7665,3.6927e-05,0
3.767,-1.2253e-05,0
3.7675,-5.3208e-05,0
3.7681,-7.8889e-05,0
3.7686,-8.661e-05,0
3.7691,-8.1407e-05,0
3.7696,-7.2175e-05,0
3.7701,-5.9586e-05,0
3.7707,-4.2634e-05,0
3.7712,-2.031e-05,0
3.7717,1.5778e-05,0
3.7722,5.6565e-05,0
3.7727,8.5435e-05,0
3.7732,0.00010121,0
3.7738,0.00010994,0
3.7743,0.00010726,0
3.7748,9.0806e-05,0
3.7753,6.8986e-05,0
3.7758,4.5487e-05,0
3.7764,2.3667e-05,0
3.7769,8.3925e-06,0
3.7774,1.0071e-06,0
3.7779,1.2924e-05,0
3.7784,3.2563e-05,0
3.779,3.8605e-05,0
3.7795,2.7863e-05,0
3.78,1.4939e-05,0
3.7805,1.326e-05,0
3.781,1.9806e-05,0
3.7816,2.0813e-05,0
3.7821,1.3596e-05,0
3.7826,1.5106e-06,0
3.7831,-1.1749e-05,0
3.7836,-2.5177e-05,0
3.7842,-3.7766e-05,0
3.7847,-4.448e-05,0
3.7852,-4.0284e-05,0
3.7857,-2.1653e-05,0
3.7862,2.3499e-06,0
3.7868,2.4338e-05,0
3.7873,4.683e-05,0
3.7878,5.8915e-05,0
3.7883,5.3544e-05,0
3.7888,3.592e-05,0
3.7893,1.9974e-05,0
3.7899,1.091e-05,0
3.7904,2.6856e-06,0
3.7909,-9.5674e-06,0
3.7914,-1.8967e-05,0
3.7919,-1.9135e-05,0
3.7925,-1.091e-05,0
3.793,2.3499e-06,0
3.7935,1.2421e-05,0
3.794,1.3764e-05,0
3.7945,9.3996e-06,0
3.7951,9.7353e-06,0
3.7956,7.8889e-06,0
3.7961,-7.2175e-06,0
3.7966,-2.9374e-05,0
3.7971,-4.2466e-05,0
3.7977,-3.5752e-05,0
3.7982,-9.9031e-06,0
3.7987,2.6352e-05,0
3.7992,6.0594e-05,0
3.7997,8.1407e-05,0
3.8003,8.7785e-05,0
3.8008,8.426e-05,0
3.8013,7.4861e-05,0
3.8018,6.3615e-05,0
3.8023,5.388e-05,0
3.8028,4.8844e-05,0
3.8034,4.683e-05,0
3.8039,4.2802e-05,0
3.8044,3.8102e-05,0
3.8049,3.3402e-05,0
3.8054,1.6281e-05,0
3.806,-1.2924e-05,0
3.8065,-3.3738e-05,0
3.807,-3.2898e-05,0
3.8075,-1.6785e-05,0
3.808,2.5177e-06,0
3.8086,1.6785e-05,0
3.8091,2.4002e-05,0
3.8096,3.0381e-05,0
3.8101,3.4577e-05,0
3.8106,3.3066e-05,0
3.8112,2.1149e-05,0
3.8117,6.5461e-06,0
3.8122,-1.5106e-06,0
3.8127,-6.0426e-06,0
3.8132,-1.8463e-05,0
3.8138,-4.0787e-05,0
3.8143,-6.1936e-05,0
3.8148,-7.1e-05,0
3.8153,-6.5126e-05,0
3.8158,-4.7669e-05,0
3.8163,-1.8463e-05,0
3.8169,1.6953e-05,0
3.8174,5.3544e-05,0
3.8179,9.0303e-05,0
3.8184,0.00012622,0
3.8189,0.00015425,0
3.8195,0.0001608,0
3.82,0.00014452,0
3.8205,0.00011682,0
3.821,9.7185e-05,0
3.8215,8.8457e-05,0
3.8221,8.5771e-05,0
3.8226,8.3757e-05,0
3.8231,8.1743e-05,0
3.8236,8.51e-05,0
3.8241,9.2317e-05,0
3.8247,8.9799e-05,0
3.8252,6.9322e-05,0
3.8257,3.6591e-05,0
3.8262,1.2589e-05,0
3.8267,3.1891e-06,0
3.8272,-5.8747e-06,0
3.8278,-2.652e-05,0
3.8283,-5.3208e-05,0
3.8288,-7.1e-05,0
3.8293,-7.4357e-05,0
3.8298,-7.1336e-05,0
3.8304,-5.8244e-05,0
3.8309,-2.9374e-05,0
3.8314,-6.8818e-06,0
3.8319,-5.539e-06,0
3.8324,-1.5106e-05,0
3.833,-2.2324e-05,0
3.8335,-2.5345e-05,0
3.834,-2.7024e-05,0
3.8345,-2.9374e-05,0
3.835,-2.7695e-05,0
3.8356,-1.8967e-05,0
3.8361,-8.896e-06,0
3.8366,-4.5319e-06,0
3.8371,6.8818e-06,0
3.8376,3.8773e-05,0
3.8382,7.2343e-05,0
3.8387,8.5771e-05,0
3.8392,8.8624e-05,0
3.8397,8.4428e-05,0
3.8402,7.1e-05,0
3.8407,5.4719e-05,0
3.8413,3.5584e-05,0
3.8418,9.2317e-06,0
3.8423,-2.2492e-05,0
3.8428,-4.1459e-05,0
3.8433,-4.0452e-05,0
3.8439,-2.8199e-05,0
3.8444,-1.7288e-05,0
3.8449,-1.5274e-05,0
3.8454,-1.6281e-05,0
3.8459,-8.896e-06,0
3.8465,1.8463e-06,0
3.847,3.5248e-06,0
3.8475,-3.1891e-06,0
3.848,-7.5532e-06,0
3.8485,2.8534e-06,0
3.8491,2.5681e-05,0
3.8496,4.1794e-05,0
3.8501,4.6159e-05,0
3.8506,4.6662e-05,0
3.8511,4.6494e-05,0
3.8517,3.9445e-05,0
3.8522,3.1052e-05,0
3.8527,2.8702e-05,0
3.8532,2.4002e-05,0
3.8537,1.7792e-05,0
3.8542,2.2995e-05,0
3.8548,4.6494e-05,0
3.8553,7.1e-05,0
3.8558,7.57e-05,0
3.8563,7.0329e-05,0
3.8568,6.5629e-05,0
3.8574,5.8915e-05,0
3.8579,4.5823e-05,0
3.8584,3.0045e-05,0
3.8589,2.0645e-05,0
3.8594,1.8631e-05,0
3.86,1.8967e-05,0
3.8605,1.9974e-05,0
3.861,2.2995e-05,0
3.8615,2.9709e-05,0
3.862,3.7263e-05,0
3.8626,4.213e-05,0
3.8631,4.3137e-05,0
3.8636,4.2634e-05,0
3.8641,4.1962e-05,0
3.8646,3.9948e-05,0
3.8652,3.743e-05,0
3.8657,4.2466e-05,0
3.8662,5.153e-05,0
3.8667,5.4551e-05,0
3.8672,5.153e-05,0
3.8678,4.1794e-05,0
3.8683,2.0981e-05,0
3.8688,-1.5106e-06,0
3.8693,-1.8631e-05,0
3.8698,-3.592e-05,0
3.8703,-5.4383e-05,0
3.8709,-7.0329e-05,0
3.8714,-8.1071e-05,0
3.8719,-7.9057e-05,0
3.8724,-5.388e-05,0
3.8729,-1.1917e-05,0
3.8735,2.3331e-05,0
3.874,3.827e-05,0
3.8745,3.7766e-05,0
3.875,3.2731e-05,0
3.8755,3.122e-05,0
3.8761,3.3402e-05,0
3.8766,2.9709e-05,0
3.8771,1.5778e-05,0
3.8776,-4.6998e-06,0
3.8781,-1.7288e-05,0
3.8787,-1.6617e-05,0
3.8792,-6.2104e-06,0
3.8797,1.2253e-05,0
3.8802,3.2059e-05,0
3.8807,4.2802e-05,0
3.8813,3.5416e-05,0
3.8818,2.2156e-05,0
3.8823,2.1988e-05,0
3.8828,3.3402e-05,0
3.8833,4.2802e-05,0
3.8838,3.9612e-05,0
3.8844,3.4745e-05,0
3.8849,3.9948e-05,0
3.8854,4.4816e-05,0
3.8859,4.2466e-05,0
3.8864,3.7263e-05,0
3.887,3.743e-05,0
3.8875,4.5151e-05,0
3.888,5.6565e-05,0
3.8885,6.6636e-05,0
3.889,6.949e-05,0
3.8896,6.2272e-05,0
3.8901,4.918e-05,0
3.8906,3.357e-05,0
3.8911,7.5532e-06,0
3.8916,-2.5849e-05,0
3.8922,-4.3977e-05,0
3.8927,-4.4144e-05,0
3.8932,-3.8941e-05,0
3.8937,-3.2563e-05,0
3.8942,-2.9038e-05,0
3.8948,-2.9374e-05,0
3.8953,-2.1485e-05,0
3.8958,1.1749e-06,0
3.8963,2.7024e-05,0
3.8968,4.2802e-05,0
3.8973,5.0523e-05,0
3.8979,5.0523e-05,0
3.8984,4.8844e-05,0
3.8989,5.1362e-05,0
3.8994,5.4719e-05,0
3.8999,5.1865e-05,0
3.9005,4.683e-05,0
3.901,4.6159e-05,0
3.9015,4.1123e-05,0
3.902,2.6688e-05,0
3.9025,1.1582e-05,0
3.9031,5.0355e-07,0
3.9036,-6.5461e-06,0
3.9041,-9.2317e-06,0
3.9046,-8.7282e-06,0
3.9051,2.5177e-06,0
3.9057,1.796e-05,0
3.9062,2.266e-05,0
3.9067,1.6953e-05,0
3.9072,1.1917e-05,0
3.9077,2.1988e-05,0
3.9082,4.448e-05,0
3.9088,6.479e-05,0
3.9093,6.7643e-05,0
3.9098,5.388e-05,0
3.9103,3.8102e-05,0
3.9108,2.652e-05,0
3.9114,1.2757e-05,0
3.9119,-7.3854e-06,0
3.9124,-3.1891e-05,0
3.9129,-4.8508e-05,0
3.9134,-5.623e-05,0
3.914,-5.3544e-05,0
3.9145,-3.743e-05,0
3.915,-1.326e-05,0
3.9155,9.7353e-06,0
3.916,2.7024e-05,0
3.9166,4.2466e-05,0
3.9171,5.0523e-05,0
3.9176,4.3473e-05,0
3.9181,2.9877e-05,0
3.9186,2.2995e-05,0
3.9192,1.7624e-05,0
3.9197,8.896e-06,0
3.9202,3.8605e-06,0
3.9207,1.2253e-05,0
3.9212,2.887e-05,0
3.9217,4.213e-05,0
3.9223,4.8005e-05,0
3.9228,4.8005e-05,0
3.9233,4.3809e-05,0
3.9238,3.7263e-05,0
3.9243,2.9038e-05,0
3.9249,2.2995e-05,0
3.9254,1.9638e-05,0
3.9259,2.1988e-05,0
3.9264,3.6759e-05,0
3.9269,5.4719e-05,0
3.9275,6.1601e-05,0
3.928,5.7069e-05,0
3.9285,4.5823e-05,0
3.929,3.1388e-05,0
3.9295,2.0981e-05,0
3.9301,2.2156e-05,0
3.9306,3.2059e-05,0
3.9311,3.2731e-05,0
3.9316,1.4939e-05,0
3.9321,-9.7353e-06,0
3.9327,-1.7624e-05,0
3.9332,-3.6927e-06,0
3.9337,1.6617e-05,0
3.9342,3.2059e-05,0
3.9347,3.8437e-05,0
3.9352,4.2802e-05,0
3.9358,5.153e-05,0
3.9363,5.623e-05,0
3.9368,5.7572e-05,0
3.9373,5.4551e-05,0
3.9378,4.7669e-05,0
3.9384,3.8773e-05,0
3.9389,2.9038e-05,0
3.9394,1.326e-05,0
3.9399,-8.5603e-06,0
3.9404,-2.9206e-05,0
3.941,-4.2802e-05,0
3.9415,-4.8173e-05,0
3.942,-4.8676e-05,0
3.9425,-4.2969e-05,0
3.943,-3.2731e-05,0
3.9436,-2.266e-05,0
3.9441,-1.0407e-05,0
3.9446,8.2246e-06,0
3.9451,2.3667e-05,0
3.9456,2.7695e-05,0
3.9462,2.7695e-05,0
3.9467,3.2059e-05,0
3.9472,3.6255e-05,0
3.9477,3.8102e-05,0
3.9482,3.5752e-05,0
3.9487,2.8031e-05,0
3.9493,2.7359e-05,0
3.9498,4.3977e-05,0
3.9503,6.8986e-05,0
3.9508,8.0735e-05,0
3.9513,6.7643e-05,0
3.9519,3.8437e-05,0
3.9524,1.4267e-05,0
3.9529,7.8889e-06,0
3.9534,1.6617e-05,0
3.9539,2.652e-05,0
3.9545,2.3163e-05,0
3.955,9.0639e-06,0
3.9555,2.182e-06,0
3.956,1.0575e-05,0
3.9565,2.0645e-05,0
3.9571,1.9135e-05,0
3.9576,1.5274e-05,0
3.9581,1.326e-05,0
3.9586,1.1749e-05,0
3.9591,1.4267e-05,0
3.9597,1.9135e-05,0
3.9602,2.5345e-05,0
3.9607,3.6423e-05,0
3.9612,4.5319e-05,0
3.9617,4.7166e-05,0
3.9623,4.2466e-05,0
3.9628,3.3738e-05,0
3.9633,2.2156e-05,0
3.9638,6.3783e-06,0
3.9643,-1.1917e-05,0
3.9648,-3.0381e-05,0
3.9654,-4.5487e-05,0
3.9659,-4.8341e-05,0
3.9664,-4.1794e-05,0
3.9669,-3.3738e-05,0
3.9674,-1.7121e-05,0
3.968,1.8631e-05,0
3.9685,5.2873e-05,0
3.969,6.8986e-05,0
3.9695,8.5267e-05,0
3.97,0.00010793,0
3.9706,0.00011464,0
3.9711,9.5506e-05,0
3.9716,6.6636e-05,0
3.9721,4.9851e-05,0
3.9726,4.5487e-05,0
3.9732,4.2634e-05,0
3.9737,3.743e-05,0
3.9742,2.2492e-05,0
3.9747,-2.8534e-06,0
3.9752,-3.0045e-05,0
3.9758,-5.4047e-05,0
3.9763,-6.7643e-05,0
3.9768,-6.2608e-05,0
3.9773,-4.8844e-05,0
3.9778,-3.8941e-05,0
3.9783,-3.1724e-05,0
3.9789,-2.501e-05,0
3.9794,-1.8967e-05,0
3.9799,-1.0742e-05,0
3.9804,-1.6785e-06,0
3.9809,5.539e-06,0
3.9815,1.7288e-05,0
3.982,3.4409e-05,0
3.9825,5.1362e-05,0
3.983,6.2776e-05,0
3.9835,7.3014e-05,0
3.9841,8.4764e-05,0
3.9846,8.51e-05,0
3.9851,7.0665e-05,0
3.9856,5.623e-05,0
3.9861,4.7837e-05,0
3.9867,3.6927e-05,0
3.9872,2.8367e-05,0
3.9877,3.4409e-05,0
3.9882,4.918e-05,0
3.9887,5.4215e-05,0
3.9893,4.9348e-05,0
3.9898,3.8102e-05,0
3.9903,1.2589e-05,0
3.9908,-2.7695e-05,0
3.9913,-6.1265e-05,0
3.9918,-6.4958e-05,0
3.9924,-4.448e-05,0
3.9929,-2.2995e-05,0
3.9934,-8.5603e-06,0
3.9939,4.5319e-06,0
3.9944,1.8296e-05,0
3.995,3.0716e-05,0
3.9955,4.7501e-05,0
3.996,7.0665e-05,0
3.9965,8.8792e-05,0
3.997,9.7017e-05,0
3.9976,9.4163e-05,0
3.9981,7.9728e-05,0
3.9986,5.7069e-05,0
3.9991,2.8702e-05,0
3.9996,-6.3783e-06,0
4.0002,-4.3977e-05,0
4.0007,-7.2679e-05,0
4.0012,-8.4092e-05,0
4.0017,-7.6204e-05,0
4.0022,-5.2201e-05,0
4.0027,-2.0813e-05,0
4.0033,-2.0142e-06,0
4.0038,-4.1962e-06,0
4.0043,-1.1582e-05,0
4.0048,-1.2253e-05,0
4.0053,-4.5319e-06,0
4.0059,8.2246e-06,0
4.0064,2.0478e-05,0
4.0069,3.3066e-05,0
4.0074,4.5823e-05,0
4.0079,5.7572e-05,0
4.0085,6.8986e-05,0
4.009,7.7714e-05,0
4.0095,7.5364e-05,0
4.01,6.6972e-05,0
4.0105,6.2608e-05,0
4.0111,5.6901e-05,0
4.0116,4.6326e-05,0
4.0121,3.4913e-05,0
4.0126,2.4674e-05,0
4.0131,1.6281e-05,0
4.0137,1.3092e-05,0
4.0142,9.2317e-06,0
4.0147,8.3925e-07,0
4.0152,-5.539e-06,0
4.0157,-2.8534e-06,0
4.0163,7.7211e-06,0
4.0168,1.6617e-05,0
4.0173,1.5442e-05,0
4.0178,1.1917e-05,0
4.0183,1.9303e-05,0
4.0188,4.5151e-05,0
4.0194,6.865e-05,0
4.0199,7.0665e-05,0
4.0204,5.8915e-05,0
4.0209,5.0019e-05,0
4.0214,4.683e-05,0
4.022,4.4144e-05,0
4.0225,4.1794e-05,0
4.023,4.1123e-05,0
4.0235,4.3473e-05,0
4.024,5.153e-05,0
4.0246,6.1936e-05,0
4.0251,6.1097e-05,0
4.0256,4.6494e-05,0
4.0261,3.1891e-05,0
4.0266,2.5345e-05,0
4.0272,2.2828e-05,0
4.0277,1.5106e-05,0
4.0282,-3.5248e-06,0
4.0287,-3.2731e-05,0
4.0292,-6.8986e-05,0
4.0297,-0.00010105,0
4.0303,-0.00011951,0
4.0308,-0.00011968,0
4.0313,-9.9199e-05,0
4.0318,-6.8818e-05,0
4.0323,-3.2898e-05,0
4.0329,1.2253e-05,0
4.0334,5.0858e-05,0
4.0339,6.9322e-05,0
4.0344,7.6875e-05,0
4.0349,8.8121e-05,0
4.0355,0.00010021,0
4.036,0.00010256,0
4.0365,9.2485e-05,0
4.037,7.8386e-05,0
4.0375,6.949e-05,0
4.0381,7.1839e-05,0
4.0386,7.7714e-05,0
4.0391,7.5029e-05,0
4.0396,6.3615e-05,0
4.0401,4.9348e-05,0
4.0407,3.3906e-05,0
4.0412,1.8296e-05,0
4.0417,5.539e-06,0
4.0422,-1.8463e-06,0
4.0427,-2.3499e-06,0
4.0432,6.714e-07,0
4.0438,1.0071e-06,0
4.0443,-4.1962e-06,0
4.0448,-8.5603e-06,0
4.0453,-7.8889e-06,0
4.0458,-7.0497e-06,0
4.0464,-1.1582e-05,0
4.0469,-1.4939e-05,0
4.0474,-1.1749e-05,0
4.0479,-5.7069e-06,0
4.0484,-2.8534e-06,0
4.049,-5.539e-06,0
4.0495,-9.2317e-06,0
4.05,-1.0071e-05,0
4.0505,-6.8818e-06,0
4.051,5.8747e-06,0
4.0516,2.8367e-05,0
4.0521,4.5487e-05,0
4.0526,5.2201e-05,0
4.0531,5.4887e-05,0
4.0536,5.4551e-05,0
4.0542,4.5655e-05,0
4.0547,3.3066e-05,0
4.0552,2.5177e-05,0
4.0557,1.8631e-05,0
4.0562,3.5248e-06,0
4.0568,-1.6785e-05,0
4.0573,-2.887e-05,0
4.0578,-3.1052e-05,0
4.0583,-2.652e-05,0
4.0588,-1.561e-05,0
4.0593,-5.0355e-07,0
4.0599,1.0407e-05,0
4.0604,1.1246e-05,0
4.0609,1.1078e-05,0
4.0614,2.1317e-05,0
4.0619,3.6088e-05,0
4.0625,4.5991e-05,0
4.063,4.5151e-05,0
4.0635,3.3402e-05,0
4.064,2.0645e-05,0
4.0645,1.6617e-05,0
4.0651,1.9303e-05,0
4.0656,1.6281e-05,0
4.0661,2.3499e-06,0
4.0666,-6.2104e-06,0
4.0671,-9.9031e-06,0
4.0677,-2.1653e-05,0
4.0682,-3.4073e-05,0
4.0687,-3.9109e-05,0
4.0692,-3.4409e-05,0
4.0697,-1.5778e-05,0
4.0702,5.539e-06,0
4.0708,1.6449e-05,0
4.0713,2.1988e-05,0
4.0718,2.9374e-05,0
4.0723,3.6088e-05,0
4.0728,4.4144e-05,0
4.0734,5.6733e-05,0
4.0739,6.865e-05,0
4.0744,7.805e-05,0
4.0749,8.6778e-05,0
4.0754,9.6345e-05,0
4.076,0.00011263,0
4.0765,0.00013495,0
4.077,0.00013881,0
4.0775,0.0001086,0
4.078,5.7069e-05,0
4.0786,3.0213e-06,0
4.0791,-4.0116e-05,0
4.0796,-6.4118e-05,0
4.0801,-6.5797e-05,0
4.0806,-5.1026e-05,0
4.0812,-2.887e-05,0
4.0817,-6.3783e-06,0
4.0822,5.539e-06,0
4.0827,5.539e-06,0
4.0832,1.1917e-05,0
4.0838,3.4073e-05,0
4.0843,6.1601e-05,0
4.0848,8.1239e-05,0
4.0853,8.3421e-05,0
4.0858,6.9993e-05,0
4.0863,5.153e-05,0
4.0869,3.7095e-05,0
4.0874,3.0381e-05,0
4.0879,2.5681e-05,0
4.0884,1.8631e-05,0
4.0889,1.2253e-05,0
4.0895,9.9031e-06,0
4.09,3.8605e-06,0
4.0905,-1.4267e-05,0
4.091,-3.1556e-05,0
4.0915,-3.3402e-05,0
4.0921,-2.8367e-05,0
4.0926,-2.7192e-05,0
4.0931,-3.2395e-05,0
4.0936,-3.7934e-05,0
4.0941,-3.1724e-05,0
4.0947,-1.0239e-05,0
4.0952,1.7456e-05,0
4.0957,3.8773e-05,0
4.0962,5.2705e-05,0
4.0967,6.9657e-05,0
4.0972,9.0135e-05,0
4.0978,9.836e-05,0
4.0983,8.9632e-05,0
4.0988,7.5364e-05,0
4.0993,6.4286e-05,0
4.0998,5.8915e-05,0
4.1004,5.5894e-05,0
4.1009,4.7837e-05,0
4.1014,3.4241e-05,0
4.1019,2.2324e-05,0
4.1024,1.9974e-05,0
4.103,1.9974e-05,0
4.1035,1.3931e-05,0
4.104,3.357e-06,0
4.1045,-6.2104e-06,0
4.105,-8.2246e-06,0
4.1056,-9.0639e-06,0
4.1061,-1.4939e-05,0
4.1066,-1.8128e-05,0
4.1071,-1.1414e-05,0
4.1076,1.1246e-05,0
4.1082,4.4984e-05,0
4.1087,7.8721e-05,0
4.1092,0.00010658,0
4.1097,0.00012253,0
4.1102,0.00012555,0
4.1108,0.00011531,0
4.1113,9.0135e-05,0
4.1118,5.1194e-05,0
4.1123,8.896e-06,0
4.1128,-2.8031e-05,0
4.1133,-5.8579e-05,0
4.1139,-8.2078e-05,0
4.1144,-9.4667e-05,0
4.1149,-9.6345e-05,0
4.1154,-9.2317e-05,0
4.1159,-8.661e-05,0
4.1165,-7.8721e-05,0
4.117,-6.7308e-05,0
4.1175,-5.0187e-05,0
4.118,-2.5849e-05,0
4.1185,-8.3925e-07,0
4.1191,1.8967e-05,0
4.1196,3.3234e-05,0
4.1201,4.0955e-05,0
4.1206,4.5487e-05,0
4.1211,5.0858e-05,0
4.1217,5.388e-05,0
4.1222,5.4215e-05,0
4.1227,5.388e-05,0
4.1232,5.6565e-05,0
4.1237,5.774e-05,0
4.1242,4.6494e-05,0
4.1248,2.652e-05,0
4.1253,1.3596e-05,0
4.1258,9.2317e-06,0
4.1263,8.5603e-06,0
4.1268,1.6785e-05,0
4.1274,2.4002e-05,0
4.1279,2.266e-05,0
4.1284,2.031e-05,0
4.1289,2.4338e-05,0
4.1294,3.2059e-05,0
4.13,3.2059e-05,0
4.1305,3.0381e-05,0
4.131,3.9109e-05,0
4.1315,4.5319e-05,0
4.132,2.5345e-05,0
4.1326,-6.0426e-06,0
4.1331,-2.0813e-05,0
4.1336,-1.9135e-05,0
4.1341,-1.091e-05,0
4.1346,-2.8534e-06,0
4.1352,5.0355e-06,0
4.1357,1.5946e-05,0
4.1362,2.9374e-05,0
4.1367,3.7095e-05,0
4.1372,3.4409e-05,0
4.1377,2.5681e-05,0
4.1383,1.2924e-05,0
4.1388,1.6785e-07,0
4.1393,-6.2104e-06,0
4.1398,-3.1891e-06,0
4.1403,7.5532e-06,0
4.1409,1.9471e-05,0
4.1414,2.5681e-05,0
4.1419,2.1317e-05,0
4.1424,9.5674e-06,0
4.1429,7.0497e-06,0
4.1435,1.5274e-05,0
4.144,1.796e-05,0
4.1445,1.6449e-05,0
4.145,1.8296e-05,0
4.1455,3.0045e-05,0
4.1461,5.2201e-05,0
4.1466,7.7714e-05,0
4.1471,9.8863e-05,0
4.1476,0.00011263,0
4.1481,0.00011464,0
4.1487,0.00010558,0
4.1492,8.9799e-05,0
4.1497,6.8818e-05,0
4.1502,4.5151e-05,0
4.1507,2.6017e-05,0
4.1513,1.5106e-05,0
4.1518,3.1891e-06,0
4.1523,-6.3783e-06,0
4.1528,-1.091e-05,0
4.1533,-2.4506e-05,0
4.1538,-4.6159e-05,0
4.1544,-6.0761e-05,0
4.1549,-6.5126e-05,0
4.1554,-6.1265e-05,0
4.1559,-5.5558e-05,0
4.1564,-5.3376e-05,0
4.157,-4.1123e-05,0
4.1575,-4.3641e-06,0
4.158,4.1794e-05,0
4.1585,6.9657e-05,0
4.159,7.7714e-05,0
4.1596,7.8386e-05,0
4.1601,8.3421e-05,0
4.1606,9.1142e-05,0
4.1611,9.4667e-05,0
4.1616,9.1646e-05,0
4.1622,7.4022e-05,0
4.1627,4.6494e-05,0
4.1632,2.6352e-05,0
4.1637,1.6449e-05,0
4.1642,9.9031e-06,0
4.1647,5.8747e-06,0
4.1653,3.357e-07,0
4.1658,-1.5778e-05,0
4.1663,-4.1459e-05,0
4.1668,-5.1865e-05,0
4.1673,-3.9277e-05,0
4.1679,-2.1653e-05,0
4.1684,-1.3764e-05,0
4.1689,-1.3596e-05,0
4.1694,-1.1078e-05,0
4.1699,-1.0239e-05,0
4.1705,-1.4603e-05,0
4.171,-1.6449e-05,0
4.1715,-1.0742e-05,0
4.172,-2.8534e-06,0
4.1725,6.0426e-06,0
4.1731,1.5106e-05,0
4.1736,2.4338e-05,0
4.1741,4.0787e-05,0
4.1746,6.1601e-05,0
4.1751,7.9728e-05,0
4.1757,8.8792e-05,0
4.1762,8.0232e-05,0
4.1767,5.4551e-05,0
4.1772,2.4338e-05,0
4.1777,5.8747e-06,0
4.1783,7.8889e-06,0
4.1788,1.8631e-05,0
4.1793,2.4506e-05,0
4.1798,2.6184e-05,0
4.1803,3.9109e-05,0
4.1808,6.5797e-05,0
4.1814,8.0903e-05,0
4.1819,6.9993e-05,0
4.1824,3.8605e-05,0
4.1829,5.2033e-06,0
4.1834,-7.5532e-06,0
4.184,0,0
4.1845,6.8818e-06,0
4.185,5.0355e-07,0
4.1855,-7.2175e-06,0
4.186,1.6785e-07,0
4.1866,2.1988e-05,0
4.1871,4.5487e-05,0
4.1876,6.1936e-05,0
4.1881,7.1e-05,0
4.1886,6.6636e-05,0
4.1892,4.8676e-05,0
4.1897,2.5345e-05,0
4.1902,1.326e-05,0
4.1907,1.3092e-05,0
4.1912,1.2924e-05,0
4.1917,9.9031e-06,0
4.1923,6.3783e-06,0
4.1928,1.0239e-05,0
4.1933,2.7359e-05,0
4.1938,4.6159e-05,0
4.1943,5.7237e-05,0
4.1949,6.2272e-05,0
4.1954,5.3544e-05,0
4.1959,2.9709e-05,0
4.1964,1.1749e-05,0
4.1969,1.0575e-05,0
4.1975,9.5674e-06,0
4.198,-7.7211e-06,0
4.1985,-3.2563e-05,0
4.199,-5.1362e-05,0
4.1995,-5.4887e-05,0
4.2001,-4.4816e-05,0
4.2006,-3.4409e-05,0
4.2011,-2.9038e-05,0
4.2016,-2.501e-05,0
4.2021,-1.8967e-05,0
4.2027,-9.2317e-06,0
4.2032,3.0213e-06,0
4.2037,1.1582e-05,0
4.2042,1.4771e-05,0
4.2047,1.8631e-05,0
4.2053,2.6017e-05,0
4.2058,3.0381e-05,0
4.2063,2.7024e-05,0
4.2068,1.9638e-05,0
4.2073,2.1149e-05,0
4.2078,3.8773e-05,0
4.2084,6.244e-05,0
4.2089,8.4596e-05,0
4.2094,9.7856e-05,0
4.2099,0.00010188,0
4.2104,0.00010121,0
4.211,0.00010323,0
4.2115,0.00010826,0
4.212,0.00011028,0
4.2125,0.00010323,0
4.213,7.7546e-05,0
4.2136,3.4745e-05,0
4.2141,1.8463e-06,0
4.2146,-1.1078e-05,0
4.2151,-2.8702e-05,0
4.2156,-6.9993e-05,0
4.2162,-0.00011162,0
4.2167,-0.00012538,0
4.2172,-0.00011431,0
4.2177,-9.1142e-05,0
4.2182,-6.3951e-05,0
4.2188,-3.978e-05,0
4.2193,-2.0813e-05,0
4.2198,-1.5106e-06,0
4.2203,2.7863e-05,0
4.2208,6.3783e-05,0
4.2213,8.3085e-05,0
4.2219,7.7546e-05,0
4.2224,6.1265e-05,0
4.2229,4.8508e-05,0
4.2234,4.1627e-05,0
4.2239,3.1556e-05,0
4.2245,2.1149e-05,0
4.225,1.8296e-05,0
4.2255,2.2492e-05,0
4.226,2.4002e-05,0
4.2265,1.796e-05,0
4.2271,1.091e-05,0
4.2276,8.3925e-06,0
4.2281,1.4939e-05,0
4.2286,2.5513e-05,0
4.2291,3.7095e-05,0
4.2297,4.918e-05,0
4.2302,5.7237e-05,0
4.2307,5.7908e-05,0
4.2312,5.4719e-05,0
4.2317,4.6662e-05,0
4.2322,3.3738e-05,0
4.2328,2.4674e-05,0
4.2333,1.8631e-05,0
4.2338,3.1891e-06,0
4.2343,-6.5461e-06,0
4.2348,4.5319e-06,0
4.2354,2.3331e-05,0
4.2359,3.5416e-05,0
4.2364,3.592e-05,0
4.2369,2.8031e-05,0
4.2374,2.5345e-05,0
4.238,3.7934e-05,0
4.2385,4.9851e-05,0
4.239,3.9612e-05,0
4.2395,9.0639e-06,0
4.24,-1.7456e-05,0
4.2406,-2.5681e-05,0
4.2411,-2.3163e-05,0
4.2416,-2.5849e-05,0
4.2421,-3.592e-05,0
4.2426,-3.2731e-05,0
4.2432,-1.2421e-05,0
4.2437,-8.3925e-07,0
4.2442,-5.539e-06,0
4.2447,-7.0497e-06,0
4.2452,5.539e-06,0
4.2458,2.1988e-05,0
4.2463,2.3331e-05,0
4.2468,9.7353e-06,0
4.2473,-8.5603e-06,0
4.2478,-2.0813e-05,0
4.2483,-2.4674e-05,0
4.2489,-2.4674e-05,0
4.2494,-2.2324e-05,0
4.2499,-1.9806e-05,0
4.2504,-1.2253e-05,0
4.2509,6.5461e-06,0
4.2515,3.978e-05,0
4.252,7.7043e-05,0
4.2525,9.836e-05,0
4.253,0.00010121,0
4.2535,9.4331e-05,0
4.2541,8.6442e-05,0
4.2546,8.1407e-05,0
4.2551,7.7043e-05,0
4.2556,6.3615e-05,0
4.2561,4.2802e-05,0
4.2567,2.8367e-05,0
4.2572,2.3667e-05,0
4.2577,2.7359e-05,0
4.2582,3.3066e-05,0
4.2587,3.357e-05,0
4.2592,2.8199e-05,0
4.2598,1.6953e-05,0
4.2603,6.714e-07,0
4.2608,-1.326e-05,0
4.2613,-1.3092e-05,0
4.2618,-6.714e-07,0
4.2624,1.5946e-05,0
4.2629,3.2059e-05,0
4.2634,4.5823e-05,0
4.2639,5.5894e-05,0
4.2644,6.4118e-05,0
4.265,6.8986e-05,0
4.2655,6.6636e-05,0
4.266,5.4887e-05,0
4.2665,3.3234e-05,0
4.267,6.0426e-06,0
4.2676,-1.5778e-05,0
4.2681,-2.266e-05,0
4.2686,-1.8631e-05,0
4.2691,-1.5106e-05,0
4.2696,-1.6449e-05,0
4.2702,-1.6617e-05,0
4.2707,-1.2757e-05,0
4.2712,-1.091e-05,0
4.2717,-1.1414e-05,0
4.2722,-1.0071e-05,0
4.2728,-5.7069e-06,0
4.2733,-6.714e-07,0
4.2738,5.2033e-06,0
4.2743,9.5674e-06,0
4.2748,1.3092e-05,0
4.2753,2.7024e-05,0
4.2759,5.2369e-05,0
4.2764,7.7714e-05,0
4.2769,9.5171e-05,0
4.2774,0.00010121,0
4.2779,0.00010071,0
4.2785,9.7185e-05,0
4.279,8.7449e-05,0
4.2795,7.0161e-05,0
4.28,5.0858e-05,0
4.2805,3.4073e-05,0
4.2811,2.4002e-05,0
4.2816,2.1988e-05,0
4.2821,1.9303e-05,0
4.2826,8.5603e-06,0
4.2831,7.3854e-06,0
4.2837,2.2492e-05,0
4.2842,3.0549e-05,0
4.2847,1.7288e-05,0
4.2852,-3.8605e-06,0
4.2857,-1.9638e-05,0
4.2862,-3.3738e-05,0
4.2868,-4.448e-05,0
4.2873,-4.4648e-05,0
4.2878,-4.1123e-05,0
4.2883,-3.7263e-05,0
4.2888,-3.0045e-05,0
4.2894,-2.1317e-05,0
4.2899,-1.6281e-05,0
4.2904,-1.2253e-05,0
4.2909,-5.539e-06,0
4.2914,5.0355e-06,0
4.292,1.5946e-05,0
4.2925,2.4674e-05,0
4.293,2.6352e-05,0
4.2935,3.4073e-05,0
4.294,6.2104e-05,0
4.2946,9.6345e-05,0
4.2951,0.00010625,0
4.2956,7.9057e-05,0
4.2961,3.9445e-05,0
4.2966,1.2253e-05,0
4.2972,-6.714e-07,0
4.2977,-7.3854e-06,0
4.2982,-1.0071e-05,0
4.2987,-1.3092e-05,0
4.2992,-1.4939e-05,0
4.2998,-8.2246e-06,0
4.3003,7.8889e-06,0
4.3008,2.5681e-05,0
4.3013,3.2731e-05,0
4.3018,2.6688e-05,0
4.3023,1.5946e-05,0
4.3029,1.0575e-05,0
4.3034,1.2757e-05,0
4.3039,1.8631e-05,0
4.3044,2.2156e-05,0
4.3049,1.4771e-05,0
4.3055,-1.1749e-06,0
4.306,-1.1078e-05,0
4.3065,-1.1917e-05,0
4.307,-6.2104e-06,0
4.3075,0,0
4.3081,-1.0071e-06,0
4.3086,-1.2757e-05,0
4.3091,-3.3738e-05,0
4.3096,-5.539e-05,0
4.3101,-6.5126e-05,0
4.3107,-5.9251e-05,0
4.3112,-4.1627e-05,0
4.3117,-1.3092e-05,0
4.3122,3.5752e-05,0
4.3127,0.00010121,0
4.3133,0.000166,0
4.3138,0.00021535,0
4.3143,0.00024237,0
4.3148,0.00024187,0
4.3153,0.00021166,0
4.3158,0.000165,0
4.3164,0.00011716,0
4.3169,7.0161e-05,0
4.3174,2.0981e-05,0
4.3179,-2.9877e-05,0
4.3184,-7.0329e-05,0
4.319,-9.1142e-05,0
4.3195,-0.00010088,0
4.32,-0.00011028,0
4.3205,-0.00011296,0
4.321,-0.00010289,0
4.3216,-8.1407e-05,0
4.3221,-5.7237e-05,0
4.3226,-3.978e-05,0
4.3231,-2.9038e-05,0
4.3236,-2.0478e-05,0
4.3242,-1.1246e-05,0
4.3247,-4.5319e-06,0
4.3252,0,0
4.3257,7.3854e-06,0
4.3262,2.031e-05,0
4.3267,3.4577e-05,0
4.3273,4.5487e-05,0
4.3278,5.7908e-05,0
4.3283,7.4525e-05,0
4.3288,8.8792e-05,0
4.3293,9.2149e-05,0
4.3299,8.5771e-05,0
4.3304,7.6036e-05,0
4.3309,6.3615e-05,0
4.3314,5.3712e-05,0
4.3319,4.918e-05,0
4.3325,4.4144e-05,0
4.333,3.2059e-05,0
4.3335,1.5274e-05,0
4.334,-4.5319e-06,0
4.3345,-2.3163e-05,0
4.3351,-3.122e-05,0
4.3356,-2.6017e-05,0
4.3361,-2.031e-05,0
4.3366,-1.9974e-05,0
4.3371,-1.9638e-05,0
4.3377,-7.2175e-06,0
4.3382,2.7359e-05,0
4.3387,6.6972e-05,0
4.3392,9.4163e-05,0
4.3397,0.00010188,0
4.3403,9.0135e-05,0
4.3408,7.0497e-05,0
4.3413,6.3279e-05,0
4.3418,6.6972e-05,0
4.3423,6.2272e-05,0
4.3428,4.4144e-05,0
4.3434,2.3331e-05,0
4.3439,5.539e-06,0
4.3444,-8.2246e-06,0
4.3449,-7.7211e-06,0
4.3454,2.5177e-06,0
4.346,5.2033e-06,0
4.3465,-1.8463e-06,0
4.347,-6.8818e-06,0
4.3475,-3.1891e-06,0
4.348,2.182e-06,0
4.3486,9.2317e-06,0
4.3491,1.9471e-05,0
4.3496,3.0716e-05,0
4.3501,3.6759e-05,0
4.3506,3.5752e-05,0
4.3512,3.1388e-05,0
4.3517,3.4913e-05,0
4.3522,4.9851e-05,0
4.3527,6.2104e-05,0
4.3532,5.5222e-05,0
4.3537,2.7527e-05,0
4.3543,-6.2104e-06,0
4.3548,-3.0381e-05,0
4.3553,-4.0787e-05,0
4.3558,-4.3137e-05,0
4.3563,-4.0787e-05,0
4.3569,-3.6088e-05,0
4.3574,-2.8031e-05,0
4.3579,-1.5778e-05,0
4.3584,-5.539e-06,0
4.3589,-4.6998e-06,0
4.3595,-5.8747e-06,0
4.36,1.0071e-06,0
4.3605,9.2317e-06,0
4.361,1.0407e-05,0
4.3615,1.5442e-05,0
4.3621,3.1724e-05,0
4.3626,5.4551e-05,0
4.3631,7.9057e-05,0
4.3636,0.00010793,0
4.3641,0.0001321,0
4.3647,0.00013948,0
4.3652,0.0001279,0
4.3657,0.00010088,0
4.3662,6.6972e-05,0
4.3667,4.2802e-05,0
4.3673,3.4409e-05,0
4.3678,3.4073e-05,0
4.3683,2.7024e-05,0
4.3688,6.5461e-06,0
4.3693,-1.1246e-05,0
4.3698,-1.3596e-05,0
4.3704,-7.3854e-06,0
4.3709,-3.8605e-06,0
4.3714,-1.1749e-06,0
4.3719,4.5319e-06,0
4.3724,6.3783e-06,0
4.373,-5.0355e-07,0
4.3735,-9.5674e-06,0
4.374,-2.1988e-05,0
4.3745,-4.1123e-05,0
4.375,-5.5894e-05,0
4.3756,-5.2705e-05,0
4.3761,-4.1794e-05,0
4.3766,-3.3738e-05,0
4.3771,-2.5681e-05,0
4.3776,-2.1653e-05,0
4.3782,-2.7024e-05,0
4.3787,-3.1556e-05,0
4.3792,-2.2492e-05,0
4.3797,2.3499e-06,0
4.3802,2.8702e-05,0
4.3807,4.0116e-05,0
4.3813,3.8437e-05,0
4.3818,3.4409e-05,0
4.3823,3.1724e-05,0
4.3828,3.357e-05,0
4.3833,3.6255e-05,0
4.3839,3.8102e-05,0
4.3844,3.9109e-05,0
4.3849,3.827e-05,0
4.3854,3.5416e-05,0
4.3859,3.1556e-05,0
4.3865,2.3331e-05,0
4.387,1.2589e-05,0
4.3875,5.2033e-06,0
4.388,6.2104e-06,0
4.3885,1.5778e-05,0
4.3891,2.8031e-05,0
4.3896,4.448e-05,0
4.3901,6.7643e-05,0
4.3906,8.191e-05,0
4.3911,7.6875e-05,0
4.3917,6.3615e-05,0
4.3922,5.3544e-05,0
4.3927,4.9516e-05,0
4.3932,4.2802e-05,0
4.3937,2.8031e-05,0
4.3943,1.1414e-05,0
4.3948,4.5319e-06,0
4.3953,1.2253e-05,0
4.3958,2.2828e-05,0
4.3963,2.3163e-05,0
4.3968,1.8128e-05,0
4.3974,1.796e-05,0
4.3979,2.2995e-05,0
4.3984,3.1052e-05,0
4.3989,4.2466e-05,0
4.3994,4.7333e-05,0
4.4,4.1794e-05,0
4.4005,3.8102e-05,0
4.401,4.5487e-05,0
4.4015,5.8244e-05,0
4.402,7.1e-05,0
4.4026,8.1743e-05,0
4.4031,8.3085e-05,0
4.4036,6.3615e-05,0
4.4041,3.1388e-05,0
4.4046,-5.0355e-07,0
4.4052,-2.7024e-05,0
4.4057,-4.4816e-05,0
4.4062,-5.2201e-05,0
4.4067,-5.7404e-05,0
4.4072,-6.8315e-05,0
4.4078,-7.9057e-05,0
4.4083,-7.4357e-05,0
4.4088,-5.4551e-05,0
4.4093,-3.508e-05,0
4.4098,-2.2492e-05,0
4.4103,-1.3428e-05,0
4.4109,-4.5319e-06,0
4.4114,1.5106e-06,0
4.4119,5.2033e-06,0
4.4124,7.3854e-06,0
4.4129,9.3996e-06,0
4.4135,1.8296e-05,0
4.414,3.4577e-05,0
4.4145,5.0355e-05,0
4.415,5.4551e-05,0
4.4155,4.1291e-05,0
4.4161,1.9638e-05,0
4.4166,8.2246e-06,0
4.4171,9.9031e-06,0
4.4176,1.7288e-05,0
4.4181,3.0549e-05,0
4.4187,4.683e-05,0
4.4192,5.7572e-05,0
4.4197,6.2272e-05,0
4.4202,6.7643e-05,0
4.4207,7.2175e-05,0
4.4212,6.6972e-05,0
4.4218,5.388e-05,0
4.4223,3.4409e-05,0
4.4228,1.9135e-05,0
4.4233,2.1317e-05,0
4.4238,4.1459e-05,0
4.4244,6.2272e-05,0
4.4249,6.4286e-05,0
4.4254,4.8844e-05,0
4.4259,2.7192e-05,0
4.4264,4.6998e-06,0
4.427,-1.4267e-05,0
4.4275,-1.7456e-05,0
4.428,-6.5461e-06,0
4.4285,2.3499e-06,0
4.429,7.2175e-06,0
4.4296,1.9974e-05,0
4.4301,4.3305e-05,0
4.4306,6.3615e-05,0
4.4311,6.7979e-05,0
4.4316,5.7572e-05,0
4.4322,4.0452e-05,0
4.4327,2.266e-05,0
4.4332,7.8889e-06,0
4.4337,-8.3925e-06,0
4.4342,-1.8296e-05,0
4.4348,-9.0639e-06,0
4.4353,8.5603e-06,0
4.4358,1.7624e-05,0
4.4363,1.3092e-05,0
4.4368,8.3925e-07,0
4.4373,-1.3596e-05,0
4.4379,-2.2995e-05,0
4.4384,-2.2828e-05,0
4.4389,-1.1414e-05,0
4.4394,5.8747e-06,0
4.4399,2.8031e-05,0
4.4405,5.539e-05,0
4.441,7.4525e-05,0
4.4415,7.8889e-05,0
4.442,7.3014e-05,0
4.4425,5.8244e-05,0
4.4431,3.9277e-05,0
4.4436,2.8534e-05,0
4.4441,2.7527e-05,0
4.4446,2.2492e-05,0
4.4451,1.0071e-05,0
4.4457,5.0355e-07,0
4.4462,5.7069e-06,0
4.4467,2.4002e-05,0
4.4472,3.2059e-05,0
4.4477,2.1317e-05,0
4.4482,1.1749e-06,0
4.4488,-1.561e-05,0
4.4493,-1.561e-05,0
4.4498,6.2104e-06,0
4.4503,3.5416e-05,0
4.4508,4.4816e-05,0
4.4514,2.6688e-05,0
4.4519,2.5177e-06,0
4.4524,-8.896e-06,0
4.4529,-1.8967e-05,0
4.4534,-3.7766e-05,0
4.454,-5.2033e-05,0
4.4545,-4.7837e-05,0
4.455,-3.2395e-05,0
4.4555,-2.031e-05,0
4.456,-1.3596e-05,0
4.4566,-5.539e-06,0
4.4571,1.1246e-05,0
4.4576,3.3066e-05,0
4.4581,4.3473e-05,0
4.4586,3.5416e-05,0
4.4592,1.5946e-05,0
4.4597,-1.8463e-06,0
4.4602,-5.0355e-06,0
4.4607,9.9031e-06,0
4.4612,2.9374e-05,0
4.4618,3.978e-05,0
4.4623,4.1794e-05,0
4.4628,3.6759e-05,0
4.4633,3.0045e-05,0
4.4638,3.1891e-05,0
4.4643,4.2802e-05,0
4.4649,5.2873e-05,0
4.4654,5.0858e-05,0
4.4659,4.0452e-05,0
4.4664,2.7359e-05,0
4.4669,1.5274e-05,0
4.4675,9.7353e-06,0
4.468,9.2317e-06,0
4.4685,1.1414e-05,0
4.469,1.5778e-05,0
4.4695,2.3499e-05,0
4.4701,3.6927e-05,0
4.4706,4.9516e-05,0
4.4711,5.2033e-05,0
4.4716,5.0355e-05,0
4.4721,5.3208e-05,0
4.4727,5.6901e-05,0
4.4732,5.3544e-05,0
4.4737,3.9445e-05,0
4.4742,1.7288e-05,0
4.4747,-2.182e-06,0
4.4752,-5.0355e-06,0
4.4758,-1.5106e-06,0
4.4763,-9.9031e-06,0
4.4768,-2.6017e-05,0
4.4773,-3.2059e-05,0
4.4778,-2.887e-05,0
4.4784,-2.4842e-05,0
4.4789,-1.7624e-05,0
4.4794,-3.357e-06,0
4.4799,1.5946e-05,0
4.4804,4.1459e-05,0
4.481,6.7643e-05,0
4.4815,8.4764e-05,0
4.482,8.8457e-05,0
4.4825,8.0064e-05,0
4.483,6.4286e-05,0
4.4836,4.9516e-05,0
4.4841,4.3473e-05,0
4.4846,4.2802e-05,0
4.4851,4.213e-05,0
4.4856,4.3977e-05,0
4.4862,4.7501e-05,0
4.4867,3.7934e-05,0
4.4872,1.9471e-05,0
4.4877,3.8605e-06,0
4.4882,-9.9031e-06,0
4.4887,-1.8296e-05,0
4.4893,-1.4939e-05,0
4.4898,-4.3641e-06,0
4.4903,7.7211e-06,0
4.4908,2.182e-05,0
4.4913,3.6759e-05,0
4.4919,4.8173e-05,0
4.4924,5.7572e-05,0
4.4929,7.1839e-05,0
4.4934,8.6442e-05,0
4.4939,8.3925e-05,0
4.4945,6.0258e-05,0
4.495,2.5849e-05,0
4.4955,-5.539e-06,0
4.496,-2.1988e-05,0
4.4965,-1.6785e-05,0
4.4971,2.182e-06,0
4.4976,2.3331e-05,0
4.4981,4.4648e-05,0
4.4986,6.0594e-05,0
4.4991,6.2104e-05,0
4.4997,4.5487e-05,0
4.5002,2.1988e-05,0
4.5007,1.8463e-06,0
4.5012,-1.326e-05,0
4.5017,-2.3331e-05,0
4.5023,-3.4577e-05,0
4.5028,-5.0187e-05,0
4.5033,-6.1265e-05,0
4.5038,-6.6972e-05,0
4.5043,-7.4693e-05,0
4.5048,-7.7714e-05,0
4.5054,-6.7308e-05,0
4.5059,-4.5823e-05,0
4.5064,-1.6281e-05,0
4.5069,2.9038e-05,0
4.5074,8.1071e-05,0
4.508,0.0001138,0
4.5085,0.00011246,0
4.509,9.2485e-05,0
4.5095,7.2007e-05,0
4.51,5.7404e-05,0
4.5106,4.8844e-05,0
4.5111,4.3473e-05,0
4.5116,3.9445e-05,0
4.5121,3.508e-05,0
4.5126,2.5681e-05,0
4.5132,1.1246e-05,0
4.5137,1.1749e-06,0
4.5142,1.6785e-07,0
4.5147,1.6785e-07,0
4.5152,-5.2033e-06,0
4.5157,-6.2104e-06,0
4.5163,3.8605e-06,0
4.5168,2.1149e-05,0
4.5173,3.9948e-05,0
4.5178,5.8747e-05,0
4.5183,7.3686e-05,0
4.5189,7.805e-05,0
4.5194,6.9322e-05,0
4.5199,5.4215e-05,0
4.5204,3.6088e-05,0
4.5209,1.4267e-05,0
4.5215,-1.2757e-05,0
4.522,-4.9516e-05,0
4.5225,-0.00010574,0
4.523,-0.00015711,0
4.5235,-0.00016936,0
4.5241,-0.0001509,0
4.5246,-0.00013176,0
4.5251,-0.00012505,0
4.5256,-0.00012454,0
4.5261,-0.00011397,0
4.5267,-9.2821e-05,0
4.5272,-6.9657e-05,0
4.5277,-5.1865e-05,0
4.5282,-3.9109e-05,0
4.5287,-3.0381e-05,0
4.5293,-2.182e-05,0
4.5298,-1.0239e-05,0
4.5303,0,0
4.5308,6.8818e-06,0
4.5313,1.091e-05,0
4.5318,1.1582e-05,0
4.5324,8.5603e-06,0
4.5329,6.2104e-06,0
4.5334,1.4603e-05,0
4.5339,3.1052e-05,0
4.5344,4.213e-05,0
4.535,4.6159e-05,0
4.5355,5.5894e-05,0
4.536,7.7379e-05,0
4.5365,0.00011162,0
4.537,0.00014519,0
4.5376,0.0001608,0
4.5381,0.00015056,0
4.5386,0.00012068,0
4.5391,8.661e-05,0
4.5396,6.1601e-05,0
4.5402,5.3208e-05,0
4.5407,5.8915e-05,0
4.5412,6.5629e-05,0
4.5417,6.6972e-05,0
4.5422,6.7643e-05,0
4.5427,7.7043e-05,0
4.5433,8.4428e-05,0
4.5438,7.5029e-05,0
4.5443,5.774e-05,0
4.5448,4.5655e-05,0
4.5453,3.978e-05,0
4.5459,3.1891e-05,0
4.5464,2.4002e-05,0
4.5469,2.7527e-05,0
4.5474,4.5823e-05,0
4.5479,6.6133e-05,0
4.5485,7.1336e-05,0
4.549,6.0258e-05,0
4.5495,4.4144e-05,0
4.55,3.508e-05,0
4.5505,4.1291e-05,0
4.5511,5.5894e-05,0
4.5516,6.7979e-05,0
4.5521,6.8482e-05,0
4.5526,5.4887e-05,0
4.5531,3.7095e-05,0
4.5537,2.5681e-05,0
4.5542,1.7288e-05,0
4.5547,5.0355e-06,0
4.5552,-6.714e-07,0
4.5557,1.3931e-05,0
4.5563,4.2802e-05,0
4.5568,7.335e-05,0
4.5573,9.6345e-05,0
4.5578,0.00010491,0
4.5583,9.4835e-05,0
4.5588,7.2847e-05,0
4.5594,5.1698e-05,0
4.5599,3.6423e-05,0
4.5604,2.501e-05,0
4.5609,1.6281e-05,0
4.5614,9.9031e-06,0
4.562,5.3712e-06,0
4.5625,1.1749e-06,0
4.563,-5.2033e-06,0
4.5635,-1.8296e-05,0
4.564,-2.6856e-05,0
4.5646,-1.4939e-05,0
4.5651,1.3931e-05,0
4.5656,4.213e-05,0
4.5661,6.009e-05,0
4.5666,7.2007e-05,0
4.5672,8.4092e-05,0
4.5677,9.6513e-05,0
4.5682,0.00010188,0
4.5687,9.6178e-05,0
4.5692,7.8386e-05,0
4.5697,5.7069e-05,0
4.5703,3.9277e-05,0
4.5708,2.0813e-05,0
4.5713,7.8889e-06,0
4.5718,1.0575e-05,0
4.5723,1.561e-05,0
4.5729,1.6785e-07,0
4.5734,-2.2324e-05,0
4.5739,-3.1052e-05,0
4.5744,-3.1388e-05,0
4.5749,-2.8702e-05,0
4.5755,-2.2995e-05,0
4.576,-1.6281e-05,0
4.5765,-1.0575e-05,0
4.577,-6.8818e-06,0
4.5775,-5.0355e-06,0
4.5781,-2.8534e-06,0
4.5786,1.1749e-06,0
4.5791,-2.3499e-06,0
4.5796,-1.2589e-05,0
4.5801,-2.3163e-05,0
4.5807,-3.1724e-05,0
4.5812,-2.9038e-05,0
4.5817,-1.3596e-05,0
4.5822,6.5461e-06,0
4.5827,2.3667e-05,0
4.5832,3.6088e-05,0
4.5838,4.5151e-05,0
4.5843,5.0523e-05,0
4.5848,5.8579e-05,0
4.5853,7.1672e-05,0
4.5858,7.8721e-05,0
4.5864,7.6371e-05,0
4.5869,7.3518e-05,0
4.5874,7.1336e-05,0
4.5879,6.2608e-05,0
4.5884,4.7669e-05,0
4.589,3.1891e-05,0
4.5895,2.1653e-05,0
4.59,1.8967e-05,0
4.5905,1.6617e-05,0
4.591,1.0239e-05,0
4.5916,4.5319e-06,0
4.5921,3.5248e-06,0
4.5926,8.3925e-07,0
4.5931,-8.896e-06,0
4.5936,-1.5274e-05,0
4.5942,-1.4267e-05,0
4.5947,-1.3428e-05,0
4.5952,-9.5674e-06,0
4.5957,2.5177e-06,0
4.5962,1.8631e-05,0
4.5968,3.2059e-05,0
4.5973,3.4241e-05,0
4.5978,2.7192e-05,0
4.5983,2.0478e-05,0
4.5988,2.0142e-05,0
4.5993,2.1988e-05,0
4.5999,2.0142e-05,0
4.6004,1.8463e-05,0
4.6009,1.9638e-05,0
4.6014,1.5778e-05,0
4.6019,8.3925e-07,0
4.6025,-1.6953e-05,0
4.603,-3.3066e-05,0
4.6035,-4.4144e-05,0
4.604,-4.9516e-05,0
4.6045,-5.0523e-05,0
4.6051,-4.4816e-05,0
4.6056,-3.4745e-05,0
4.6061,-2.9038e-05,0
4.6066,-2.9206e-05,0
4.6071,-2.4338e-05,0
4.6077,-1.3596e-05,0
4.6082,-5.539e-06,0
4.6087,-3.5248e-06,0
4.6092,-6.714e-07,0
4.6097,8.7282e-06,0
4.6102,1.9974e-05,0
4.6108,3.1388e-05,0
4.6113,4.918e-05,0
4.6118,7.2679e-05,0
4.6123,8.8121e-05,0
4.6128,9.6345e-05,0
4.6134,0.0001039,0
4.6139,0.00010356,0
4.6144,9.9199e-05,0
4.6149,9.9199e-05,0
4.6154,9.5171e-05,0
4.616,7.7043e-05,0
4.6165,4.1459e-05,0
4.617,-1.091e-05,0
4.6175,-6.3447e-05,0
4.618,-9.3324e-05,0
4.6186,-9.0806e-05,0
4.6191,-6.8315e-05,0
4.6196,-5.0187e-05,0
4.6201,-4.6494e-05,0
4.6206,-4.8508e-05,0
4.6212,-4.6998e-05,0
4.6217,-4.1794e-05,0
4.6222,-3.3906e-05,0
4.6227,-2.1988e-05,0
4.6232,-1.091e-05,0
4.6238,-2.3499e-06,0
4.6243,1.5106e-06,0
4.6248,8.5603e-06,0
4.6253,2.8031e-05,0
4.6258,5.6901e-05,0
4.6263,7.6707e-05,0
4.6269,7.8721e-05,0
4.6274,7.2679e-05,0
4.6279,7.5029e-05,0
4.6284,8.9799e-05,0
4.6289,0.00010826,0
4.6295,0.00012001,0
4.63,0.00011632,0
4.6305,8.9799e-05,0
4.631,5.3544e-05,0
4.6315,2.1988e-05,0
4.6321,-4.8676e-06,0
4.6326,-2.4002e-05,0
4.6331,-2.7024e-05,0
4.6336,-2.4506e-05,0
4.6341,-2.1653e-05,0
4.6347,-1.5106e-05,0
4.6352,-6.5461e-06,0
4.6357,8.3925e-07,0
4.6362,6.5461e-06,0
4.6367,1.0575e-05,0
4.6372,1.796e-05,0
4.6378,3.0213e-05,0
4.6383,4.7837e-05,0
4.6388,6.7643e-05,0
4.6393,7.6204e-05,0
4.6398,7.0161e-05,0
4.6404,6.2608e-05,0
4.6409,6.1265e-05,0
4.6414,6.3951e-05,0
4.6419,6.8986e-05,0
4.6424,7.1672e-05,0
4.643,5.9922e-05,0
4.6435,3.2563e-05,0
4.644,1.2253e-05,0
4.6445,4.8676e-06,0
4.645,-3.1891e-06,0
4.6456,-1.6617e-05,0
4.6461,-3.1724e-05,0
4.6466,-4.5319e-05,0
4.6471,-5.0858e-05,0
4.6476,-4.6159e-05,0
4.6482,-3.592e-05,0
4.6487,-2.9709e-05,0
4.6492,-2.6352e-05,0
4.6497,-1.5778e-05,0
4.6502,5.2033e-06,0
4.6508,2.6688e-05,0
4.6513,3.6255e-05,0
4.6518,3.0716e-05,0
4.6523,2.9374e-05,0
4.6528,4.213e-05,0
4.6533,5.3544e-05,0
4.6539,5.5222e-05,0
4.6544,5.2537e-05,0
4.6549,5.2873e-05,0
4.6554,5.4887e-05,0
4.6559,4.9348e-05,0
4.6565,3.9109e-05,0
4.657,3.3402e-05,0
4.6575,2.652e-05,0
4.658,1.5778e-05,0
4.6585,1.3596e-05,0
4.6591,2.0981e-05,0
4.6596,2.7863e-05,0
4.6601,3.357e-05,0
4.6606,4.213e-05,0
4.6611,5.4215e-05,0
4.6617,6.3447e-05,0
4.6622,6.3279e-05,0
4.6627,4.9851e-05,0
4.6632,2.4002e-05,0
4.6637,-8.3925e-06,0
4.6643,-3.9948e-05,0
4.6648,-5.7572e-05,0
4.6653,-5.6062e-05,0
4.6658,-4.918e-05,0
4.6663,-4.683e-05,0
4.6668,-3.8773e-05,0
4.6674,-2.1317e-05,0
4.6679,-7.5532e-06,0
4.6684,-3.5248e-06,0
4.6689,-4.5319e-06,0
4.6694,-1.1414e-05,0
4.67,-2.266e-05,0
4.6705,-2.7695e-05,0
4.671,-3.0045e-05,0
4.6715,-4.3809e-05,0
4.672,-6.4958e-05,0
4.6726,-7.2007e-05,0
4.6731,-5.8579e-05,0
4.6736,-3.3234e-05,0
4.6741,-5.8747e-06,0
4.6746,1.4603e-05,0
4.6752,2.9206e-05,0
4.6757,5.3544e-05,0
4.6762,8.4428e-05,0
4.6767,0.00011229,0
4.6772,0.00013881,0
4.6777,0.00015761,0
4.6783,0.00015895,0
4.6788,0.0001462,0
4.6793,0.00013143,0
4.6798,0.00011867,0
4.6803,0.00010088,0
4.6809,7.2511e-05,0
4.6814,3.9445e-05,0
4.6819,9.5674e-06,0
4.6824,-1.1078e-05,0
4.6829,-2.2492e-05,0
4.6835,-2.8702e-05,0
4.684,-4.2802e-05,0
4.6845,-6.0258e-05,0
4.685,-6.6133e-05,0
4.6855,-5.9251e-05,0
4.6861,-5.0019e-05,0
4.6866,-4.2466e-05,0
4.6871,-3.1556e-05,0
4.6876,-1.5946e-05,0
4.6881,3.1891e-06,0
4.6887,2.3499e-05,0
4.6892,4.3473e-05,0
4.6897,5.8076e-05,0
4.6902,6.5293e-05,0
4.6907,6.7643e-05,0
4.6913,6.7811e-05,0
4.6918,6.7308e-05,0
4.6923,6.2608e-05,0
4.6928,5.069e-05,0
4.6933,3.508e-05,0
4.6938,2.3331e-05,0
4.6944,1.8296e-05,0
4.6949,2.0645e-05,0
4.6954,2.501e-05,0
4.6959,2.501e-05,0
4.6964,2.1653e-05,0
4.697,2.4002e-05,0
4.6975,3.5584e-05,0
4.698,4.9516e-05,0
4.6985,5.623e-05,0
4.699,5.9419e-05,0
4.6996,6.2776e-05,0
4.7001,5.8915e-05,0
4.7006,4.9012e-05,0
4.7011,4.3977e-05,0
4.7016,4.7166e-05,0
4.7022,5.3544e-05,0
4.7027,5.7572e-05,0
4.7032,4.6494e-05,0
4.7037,1.9135e-05,0
4.7042,-1.7121e-05,0
4.7047,-5.3208e-05,0
4.7053,-7.6875e-05,0
4.7058,-8.3421e-05,0
4.7063,-7.335e-05,0
4.7068,-5.3208e-05,0
4.7073,-3.743e-05,0
4.7079,-2.9709e-05,0
4.7084,-1.796e-05,0
4.7089,-5.2033e-06,0
4.7094,-2.182e-06,0
4.7099,-4.1962e-06,0
4.7105,-3.1891e-06,0
4.711,1.1749e-06,0
4.7115,3.1891e-06,0
4.712,-2.182e-06,0
4.7125,-1.3931e-05,0
4.7131,-2.0645e-05,0
4.7136,-1.091e-05,0
4.7141,7.8889e-06,0
4.7146,2.1317e-05,0
4.7151,2.5345e-05,0
4.7157,2.5345e-05,0
4.7162,2.8702e-05,0
4.7167,3.2059e-05,0
4.7172,2.6688e-05,0
4.7177,6.3783e-06,0
4.7183,-2.0645e-05,0
4.7188,-3.6423e-05,0
4.7193,-2.5345e-05,0
4.7198,7.7211e-06,0
4.7203,4.918e-05,0
4.7208,9.1814e-05,0
4.7214,0.00012975,0
4.7219,0.00015157,0
4.7224,0.0001519,0
4.7229,0.00013797,0
4.7234,0.00011716,0
4.724,9.3492e-05,0
4.7245,7.1672e-05,0
4.725,5.6733e-05,0
4.7255,4.7501e-05,0
4.726,3.6927e-05,0
4.7266,2.6017e-05,0
4.7271,2.4506e-05,0
4.7276,2.9541e-05,0
4.7281,2.5681e-05,0
4.7286,1.1582e-05,0
4.7292,-2.0142e-06,0
4.7297,-2.182e-06,0
4.7302,9.9031e-06,0
4.7307,1.9806e-05,0
4.7312,2.031e-05,0
4.7317,1.7121e-05,0
4.7323,2.0478e-05,0
4.7328,3.1724e-05,0
4.7333,4.683e-05,0
4.7338,7.0497e-05,0
4.7343,9.6345e-05,0
4.7349,0.00011028,0
4.7354,0.00010222,0
4.7359,7.6371e-05,0
4.7364,4.5151e-05,0
4.7369,2.1653e-05,0
4.7375,2.8534e-06,0
4.738,-2.031e-05,0
4.7385,-4.4144e-05,0
4.739,-5.7908e-05,0
4.7395,-6.0258e-05,0
4.7401,-5.9922e-05,0
4.7406,-6.3615e-05,0
4.7411,-6.9322e-05,0
4.7416,-7.1e-05,0
4.7421,-6.7643e-05,0
4.7427,-5.7237e-05,0
4.7432,-4.683e-05,0
4.7437,-3.8102e-05,0
4.7442,-2.9709e-05,0
4.7447,-1.9974e-05,0
4.7453,-5.7069e-06,0
4.7458,1.5778e-05,0
4.7463,4.8508e-05,0
4.7468,7.9057e-05,0
4.7473,9.1478e-05,0
4.7478,8.1407e-05,0
4.7484,5.5894e-05,0
4.7489,3.0213e-05,0
4.7494,1.3428e-05,0
4.7499,8.7282e-06,0
4.7504,1.4099e-05,0
4.751,2.6184e-05,0
4.7515,3.7095e-05,0
4.752,3.8437e-05,0
4.7525,2.8367e-05,0
4.753,1.2085e-05,0
4.7536,-1.3428e-06,0
4.7541,-1.0071e-05,0
4.7546,-1.4267e-05,0
4.7551,-1.1414e-05,0
4.7556,-2.182e-06,0
4.7562,0,0
4.7567,-1.4099e-05,0
4.7572,-2.8534e-05,0
4.7577,-2.0645e-05,0
4.7582,8.2246e-06,0
4.7588,4.0452e-05,0
4.7593,5.8579e-05,0
4.7598,5.6565e-05,0
4.7603,5.4383e-05,0
4.7608,7.4861e-05,0
4.7613,0.00010944,0
4.7619,0.00013008,0
4.7624,0.00012203,0
4.7629,9.1814e-05,0
4.7634,5.8244e-05,0
4.7639,4.1291e-05,0
4.7645,3.8773e-05,0
4.765,3.4409e-05,0
4.7655,2.5345e-05,0
4.766,1.8463e-05,0
4.7665,1.8631e-05,0
4.7671,1.9135e-05,0
4.7676,9.0639e-06,0
4.7681,-1.1078e-05,0
4.7686,-2.4842e-05,0
4.7691,-2.1653e-05,0
4.7697,-1.3428e-05,0
4.7702,-1.2253e-05,0
4.7707,-1.326e-05,0
4.7712,-1.2253e-05,0
4.7717,-1.9974e-05,0
4.7722,-3.6255e-05,0
4.7728,-4.5319e-05,0
4.7733,-3.8437e-05,0
4.7738,-2.182e-05,0
4.7743,-6.2104e-06,0
4.7748,2.8534e-06,0
4.7754,7.2175e-06,0
4.7759,1.1246e-05,0
4.7764,1.5274e-05,0
4.7769,1.8296e-05,0
4.7774,2.2324e-05,0
4.778,3.1052e-05,0
4.7785,4.0116e-05,0
4.779,4.3809e-05,0
4.7795,4.1291e-05,0
4.78,3.3234e-05,0
4.7806,2.4674e-05,0
4.7811,2.5681e-05,0
4.7816,3.3402e-05,0
4.7821,3.3402e-05,0
4.7826,2.7359e-05,0
4.7832,2.266e-05,0
4.7837,1.9471e-05,0
4.7842,1.8296e-05,0
4.7847,2.3667e-05,0
4.7852,2.4002e-05,0
4.7858,1.8463e-06,0
4.7863,-3.5416e-05,0
4.7868,-6.0426e-05,0
4.7873,-5.9251e-05,0
4.7878,-3.8605e-05,0
4.7883,-7.5532e-06,0
4.7889,3.0045e-05,0
4.7894,6.0594e-05,0
4.7899,7.9728e-05,0
4.7904,9.4499e-05,0
4.7909,0.00010524,0
4.7915,0.00011179,0
4.792,0.0001133,0
4.7925,9.7856e-05,0
4.793,6.7643e-05,0
4.7935,3.743e-05,0
4.7941,1.8463e-05,0
4.7946,7.8889e-06,0
4.7951,-4.3641e-06,0
4.7956,-2.266e-05,0
4.7961,-3.122e-05,0
4.7967,-2.9541e-05,0
4.7972,-2.7024e-05,0
4.7977,-2.9038e-05,0
4.7982,-2.9206e-05,0
4.7987,-1.4603e-05,0
4.7992,1.5946e-05,0
4.7998,4.4144e-05,0
4.8003,6.1601e-05,0
4.8008,7.7714e-05,0
4.8013,9.0974e-05,0
4.8018,9.4163e-05,0
4.8024,9.1142e-05,0
4.8029,8.5435e-05,0
4.8034,7.5532e-05,0
4.8039,5.9419e-05,0
4.8044,4.1962e-05,0
4.805,3.1052e-05,0
4.8055,2.4002e-05,0
4.806,1.4435e-05,0
4.8065,0,0
4.807,-1.4939e-05,0
4.8076,-2.4842e-05,0
4.8081,-2.9038e-05,0
4.8086,-3.2563e-05,0
4.8091,-3.9445e-05,0
4.8096,-4.1459e-05,0
4.8102,-2.652e-05,0
4.8107,5.539e-06,0
4.8112,3.4073e-05,0
4.8117,4.2298e-05,0
4.8122,3.6088e-05,0
4.8128,3.3906e-05,0
4.8133,4.5151e-05,0
4.8138,7.1672e-05,0
4.8143,0.00010625,0
4.8148,0.00012975,0
4.8153,0.00012035,0
4.8159,7.9057e-05,0
4.8164,3.0045e-05,0
4.8169,-3.8605e-06,0
4.8174,-1.8631e-05,0
4.8179,-2.1988e-05,0
4.8185,-2.0478e-05,0
4.819,-1.796e-05,0
4.8195,-1.6953e-05,0
4.82,-1.9471e-05,0
4.8205,-2.1653e-05,0
4.8211,-1.8799e-05,0
4.8216,-1.5106e-05,0
4.8221,-1.8296e-05,0
4.8226,-2.4338e-05,0
4.8231,-2.3499e-05,0
4.8237,-1.2253e-05,0
4.8242,3.1891e-06,0
4.8247,1.3596e-05,0
4.8252,2.1317e-05,0
4.8257,2.8702e-05,0
4.8262,3.2731e-05,0
4.8268,4.1459e-05,0
4.8273,5.5726e-05,0
4.8278,6.1601e-05,0
4.8283,5.2201e-05,0
4.8288,3.3066e-05,0
4.8294,1.7624e-05,0
4.8299,7.7211e-06,0
4.8304,-6.3783e-06,0
4.8309,-2.1988e-05,0
4.8314,-3.0045e-05,0
4.832,-3.122e-05,0
4.8325,-3.0549e-05,0
4.833,-2.7695e-05,0
4.8335,-1.5946e-05,0
4.834,-1.8463e-06,0
4.8346,2.182e-06,0
4.8351,1.5106e-06,0
4.8356,6.2104e-06,0
4.8361,1.5274e-05,0
4.8366,2.4002e-05,0
4.8372,2.9374e-05,0
4.8377,3.1724e-05,0
4.8382,3.1388e-05,0
4.8387,2.5345e-05,0
4.8392,1.6281e-05,0
4.8398,1.0407e-05,0
4.8403,1.3428e-05,0
4.8408,2.4842e-05,0
4.8413,3.6759e-05,0
4.8418,5.0858e-05,0
4.8423,6.6972e-05,0
4.8429,7.3182e-05,0
4.8434,6.1936e-05,0
4.8439,4.5151e-05,0
4.8444,4.0116e-05,0
4.8449,4.7837e-05,0
4.8455,5.2873e-05,0
4.846,5.0019e-05,0
4.8465,4.4816e-05,0
4.847,4.4816e-05,0
4.8475,5.0019e-05,0
4.8481,5.6901e-05,0
4.8486,5.7572e-05,0
4.8491,4.7837e-05,0
4.8496,3.8102e-05,0
4.8501,3.3066e-05,0
4.8507,1.7288e-05,0
4.8512,-1.7456e-05,0
4.8517,-6.2272e-05,0
4.8522,-0.00010004,0
4.8527,-0.00010826,0
4.8533,-8.4428e-05,0
4.8538,-4.4144e-05,0
4.8543,-6.714e-07,0
4.8548,2.6688e-05,0
4.8553,3.3402e-05,0
4.8558,3.508e-05,0
4.8564,4.683e-05,0
4.8569,6.1601e-05,0
4.8574,6.3951e-05,0
4.8579,5.8579e-05,0
4.8584,6.1601e-05,0
4.859,7.4861e-05,0
4.8595,8.4428e-05,0
4.86,8.1071e-05,0
4.8605,6.6804e-05,0
4.861,5.2033e-05,0
4.8616,3.4409e-05,0
4.8621,9.0639e-06,0
4.8626,-1.3931e-05,0
4.8631,-2.266e-05,0
4.8636,-1.2924e-05,0
4.8642,3.8605e-06,0
4.8647,1.796e-05,0
4.8652,3.7766e-05,0
4.8657,6.4286e-05,0
4.8662,7.8889e-05,0
4.8667,7.0832e-05,0
4.8673,5.2033e-05,0
4.8678,3.1724e-05,0
4.8683,1.2421e-05,0
4.8688,1.6785e-07,0
4.8693,-2.8534e-06,0
4.8699,-6.5461e-06,0
4.8704,-1.2253e-05,0
4.8709,-1.1414e-05,0
4.8714,-8.3925e-06,0
4.8719,-7.8889e-06,0
4.8725,-4.5319e-06,0
4.873,6.8818e-06,0
4.8735,2.0478e-05,0
4.874,2.5177e-05,0
4.8745,2.3835e-05,0
4.8751,2.1317e-05,0
4.8756,1.2589e-05,0
4.8761,-6.2104e-06,0
4.8766,-2.3163e-05,0
4.8771,-3.0045e-05,0
4.8777,-2.7359e-05,0
4.8782,-1.9303e-05,0
4.8787,-8.5603e-06,0
4.8792,1.0071e-05,0
4.8797,3.4745e-05,0
4.8803,5.9586e-05,0
4.8808,7.0329e-05,0
4.8813,5.8579e-05,0
4.8818,4.3473e-05,0
4.8823,4.683e-05,0
4.8828,5.4887e-05,0
4.8834,5.0523e-05,0
4.8839,3.7766e-05,0
4.8844,3.0716e-05,0
4.8849,3.3402e-05,0
4.8854,3.4073e-05,0
4.886,2.3835e-05,0
4.8865,7.8889e-06,0
4.887,1.6785e-07,0
4.8875,-1.0071e-06,0
4.888,-7.0497e-06,0
4.8886,-1.561e-05,0
4.8891,-1.6281e-05,0
4.8896,-1.5106e-06,0
4.8901,2.0645e-05,0
4.8906,3.7095e-05,0
4.8912,3.978e-05,0
4.8917,3.743e-05,0
4.8922,4.0452e-05,0
4.8927,4.1123e-05,0
4.8932,2.652e-05,0
4.8937,-4.8676e-06,0
4.8943,-3.6759e-05,0
4.8948,-4.8844e-05,0
4.8953,-4.1794e-05,0
4.8958,-2.6352e-05,0
4.8963,-9.5674e-06,0
4.8969,1.0239e-05,0
4.8974,2.8702e-05,0
4.8979,3.6088e-05,0
4.8984,3.0381e-05,0
4.8989,2.5681e-05,0
4.8995,3.0549e-05,0
4.9,3.6759e-05,0
4.9005,3.592e-05,0
4.901,3.0884e-05,0
4.9015,2.8031e-05,0
4.9021,3.4745e-05,0
4.9026,5.0355e-05,0
4.9031,6.2608e-05,0
4.9036,6.2608e-05,0
4.9041,5.2201e-05,0
4.9047,3.8102e-05,0
4.9052,2.2324e-05,0
4.9057,1.2589e-05,0
4.9062,1.0575e-05,0
4.9067,3.0213e-06,0
4.9073,-9.5674e-06,0
4.9078,-1.7456e-05,0
4.9083,-2.0981e-05,0
4.9088,-2.5177e-05,0
4.9093,-3.1556e-05,0
4.9098,-3.6423e-05,0
4.9104,-3.4073e-05,0
4.9109,-1.9974e-05,0
4.9114,2.3499e-06,0
4.9119,2.8702e-05,0
4.9124,4.7837e-05,0
4.913,5.5222e-05,0
4.9135,5.8579e-05,0
4.914,6.5965e-05,0
4.9145,7.0497e-05,0
4.915,6.865e-05,0
4.9156,6.4958e-05,0
4.9161,6.5461e-05,0
4.9166,7.1e-05,0
4.9171,7.2847e-05,0
4.9176,6.6133e-05,0
4.9182,5.5222e-05,0
4.9187,4.213e-05,0
4.9192,2.1149e-05,0
4.9197,-3.357e-06,0
4.9202,-1.2589e-05,0
4.9207,1.5106e-06,0
4.9213,1.4771e-05,0
4.9218,1.5106e-06,0
4.9223,-2.4338e-05,0
4.9228,-3.743e-05,0
4.9233,-2.9038e-05,0
4.9239,-8.0568e-06,0
4.9244,1.1582e-05,0
4.9249,2.6688e-05,0
4.9254,3.1891e-05,0
4.9259,3.0045e-05,0
4.9265,3.2059e-05,0
4.927,3.7934e-05,0
4.9275,4.2802e-05,0
4.928,4.0116e-05,0
4.9285,3.2395e-05,0
4.9291,3.2731e-05,0
4.9296,5.6062e-05,0
4.9301,9.7185e-05,0
4.9306,0.00013344,0
4.9311,0.00015274,0
4.9317,0.00016365,0
4.9322,0.000165,0
4.9327,0.00013982,0
4.9332,8.4932e-05,0
4.9337,2.182e-05,0
4.9342,-3.1052e-05,0
4.9348,-6.7308e-05,0
4.9353,-9.4835e-05,0
4.9358,-0.00011884,0
4.9363,-0.00012622,0
4.9368,-0.00010356,0
4.9374,-5.5894e-05,0
4.9379,4.5319e-06,0
4.9384,5.5894e-05,0
4.9389,6.1936e-05,0
4.9394,2.2995e-05,0
4.94,-1.8296e-05,0
4.9405,-2.8702e-05,0
4.941,-2.0981e-05,0
4.9415,-1.6281e-05,0
4.942,-1.091e-05,0
4.9426,5.2033e-06,0
4.9431,2.8534e-05,0
4.9436,5.0523e-05,0
4.9441,5.8915e-05,0
4.9446,4.5655e-05,0
4.9452,2.8031e-05,0
4.9457,2.6017e-05,0
4.9462,3.4745e-05,0
4.9467,3.9109e-05,0
4.9472,2.2995e-05,0
4.9478,-1.4603e-05,0
4.9483,-4.8844e-05,0
4.9488,-6.8147e-05,0
4.9493,-8.0735e-05,0
4.9498,-8.8289e-05,0
4.9503,-8.9967e-05,0
4.9509,-8.3757e-05,0
4.9514,-6.3783e-05,0
4.9519,-3.6927e-05,0
4.9524,-1.3764e-05,0
4.9529,8.5603e-06,0
4.9535,3.5416e-05,0
4.954,5.4215e-05,0
4.9545,5.623e-05,0
4.955,4.3473e-05,0
4.9555,2.4674e-05,0
4.9561,1.6785e-05,0
4.9566,1.9806e-05,0
4.9571,2.3163e-05,0
4.9576,3.0381e-05,0
4.9581,4.8173e-05,0
4.9587,7.0665e-05,0
4.9592,8.7785e-05,0
4.9597,0.00010054,0
4.9602,0.00011196,0
4.9607,0.00011481,0
4.9612,9.9702e-05,0
4.9618,7.3518e-05,0
4.9623,4.4144e-05,0
4.9628,1.1246e-05,0
4.9633,-1.8296e-05,0
4.9638,-4.2802e-05,0
4.9644,-6.4286e-05,0
4.9649,-7.4022e-05,0
4.9654,-6.4286e-05,0
4.9659,-3.9612e-05,0
4.9664,-6.2104e-06,0
4.967,3.0549e-05,0
4.9675,5.388e-05,0
4.968,5.388e-05,0
4.9685,4.8173e-05,0
4.969,4.8005e-05,0
4.9696,5.1362e-05,0
4.9701,5.7908e-05,0
4.9706,6.3279e-05,0
4.9711,6.3951e-05,0
4.9716,6.5293e-05,0
4.9722,7.6707e-05,0
4.9727,9.6513e-05,0
4.9732,0.00010675,0
4.9737,8.9799e-05,0
4.9742,5.2369e-05,0
4.9748,1.6953e-05,0
4.9753,-6.5461e-06,0
4.9758,-2.182e-05,0
4.9763,-2.887e-05,0
4.9768,-1.8296e-05,0
4.9773,7.0497e-06,0
4.9779,2.3835e-05,0
4.9784,1.9471e-05,0
4.9789,1.8463e-06,0
4.9794,-1.561e-05,0
4.9799,-2.6688e-05,0
4.9805,-3.0381e-05,0
4.981,-2.2324e-05,0
4.9815,-1.5106e-06,0
4.982,1.9471e-05,0
4.9825,2.5849e-05,0
4.9831,2.0645e-05,0
4.9836,1.2589e-05,0
4.9841,8.2246e-06,0
4.9846,1.0575e-05,0
4.9851,2.6017e-05,0
4.9857,5.2873e-05,0
4.9862,8.2918e-05,0
4.9867,0.00010658,0
4.9872,0.00011128,0
4.9877,0.00010323,0
4.9882,0.00010658,0
4.9888,0.00012152,0
4.9893,0.00012337,0
4.9898,0.00010289,0
4.9903,6.4118e-05,0
4.9908,1.6617e-05,0
4.9914,-2.4674e-05,0
4.9919,-4.5151e-05,0
4.9924,-5.2705e-05,0
4.9929,-5.6901e-05,0
4.9934,-5.539e-05,0
4.994,-4.8005e-05,0
4.9945,-3.8773e-05,0
4.995,-3.8437e-05,0
4.9955,-4.3305e-05,0
4.996,-4.213e-05,0
4.9966,-3.508e-05,0
4.9971,-3.122e-05,0
4.9976,-3.2731e-05,0
4.9981,-3.508e-05,0
4.9986,-3.508e-05,0
4.9992,-3.1724e-05,0
4.9997,-2.6017e-05,0
5.0002,-1.8631e-05,0
5.0007,-9.9031e-06,0
5.0012,-2.0142e-06,0
5.0018,7.8889e-06,0
5.0023,2.1149e-05,0
5.0028,3.508e-05,0
5.0033,4.918e-05,0
5.0038,5.7237e-05,0
5.0043,5.5726e-05,0
5.0049,4.5151e-05,0
5.0054,3.0716e-05,0
5.0059,2.2324e-05,0
5.0064,2.4674e-05,0
5.0069,3.6423e-05,0
5.0075,4.7837e-05,0
5.008,5.9754e-05,0
5.0085,7.6204e-05,0
5.009,9.366e-05,0
5.0095,0.00011028,0
5.0101,0.0001133,0
5.0106,9.3156e-05,0
5.0111,5.9586e-05,0
5.0116,2.5345e-05,0
5.0121,-8.5603e-06,0
5.0127,-4.2298e-05,0
5.0132,-6.949e-05,0
5.0137,-7.3014e-05,0
5.0142,-5.2201e-05,0
5.0147,-2.2492e-05,0
5.0152,1.1917e-05,0
5.0158,5.4719e-05,0
5.0163,9.1646e-05,0
5.0168,0.00010994,0
5.0173,0.00010289,0
5.0178,7.7043e-05,0
5.0184,4.7837e-05,0
5.0189,3.0716e-05,0
5.0194,2.2995e-05,0
5.0199,1.0575e-05,0
5.0204,-1.091e-05,0
5.021,-3.1052e-05,0
5.0215,-3.2395e-05,0
5.022,-1.4267e-05,0
5.0225,1.1246e-05,0
5.023,2.8534e-05,0
5.0236,3.0549e-05,0
5.0241,2.1149e-05,0
5.0246,3.1891e-06,0
5.0251,-1.4099e-05,0
5.0256,-2.0981e-05,0
5.0262,-1.7624e-05,0
5.0267,-6.2104e-06,0
5.0272,1.2589e-05,0
5.0277,3.592e-05,0
5.0282,5.4215e-05,0
5.0287,5.8076e-05,0
5.0293,4.7501e-05,0
5.0298,3.8941e-05,0
5.0303,3.9445e-05,0
5.0308,4.213e-05,0
5.0313,4.4144e-05,0
5.0319,5.3544e-05,0
5.0324,6.3615e-05,0
5.0329,5.7908e-05,0
5.0334,3.9445e-05,0
5.0339,2.1317e-05,0
5.0345,1.0407e-05,0
5.035,2.0142e-06,0
5.0355,-8.2246e-06,0
5.036,-1.0575e-05,0
5.0365,-3.357e-07,0
5.0371,5.7069e-06,0
5.0376,-6.714e-06,0
5.0381,-3.2395e-05,0
5.0386,-6.0761e-05,0
5.0391,-8.2414e-05,0
5.0397,-9.4499e-05,0
5.0402,-9.0806e-05,0
5.0407,-6.865e-05,0
5.0412,-3.0381e-05,0
5.0417,1.3931e-05,0
5.0423,5.2033e-05,0
5.0428,7.8386e-05,0
5.0433,9.3828e-05,0
5.0438,9.2821e-05,0
5.0443,7.9561e-05,0
5.0448,6.4958e-05,0
5.0454,5.0523e-05,0
5.0459,3.5416e-05,0
5.0464,2.6688e-05,0
5.0469,2.6184e-05,0
5.0474,2.3667e-05,0
5.048,1.5946e-05,0
5.0485,9.2317e-06,0
5.049,1.1078e-05,0
5.0495,1.9303e-05,0
5.05,2.2492e-05,0
5.0506,1.1917e-05,0
5.0511,-5.539e-06,0
5.0516,-1.6953e-05,0
5.0521,-1.8967e-05,0
5.0526,-1.5274e-05,0
5.0532,-9.5674e-06,0
5.0537,3.1891e-06,0
5.0542,2.6688e-05,0
5.0547,5.4047e-05,0
5.0552,7.6875e-05,0
5.0557,9.2149e-05,0
5.0563,9.752e-05,0
5.0568,9.2653e-05,0
5.0573,8.5435e-05,0
5.0578,8.04e-05,0
5.0583,6.9322e-05,0
5.0589,4.2634e-05,0
5.0594,2.5177e-06,0
5.0599,-3.4409e-05,0
5.0604,-5.0523e-05,0
5.0609,-3.9445e-05,0
5.0615,-1.7121e-05,0
5.062,7.0497e-06,0
5.0625,3.4073e-05,0
5.063,5.8915e-05,0
5.0635,7.7043e-05,0
5.0641,8.1071e-05,0
5.0646,7.1e-05,0
5.0651,5.5222e-05,0
5.0656,4.3809e-05,0
5.0661,3.4745e-05,0
5.0667,2.1988e-05,0
5.0672,1.091e-05,0
5.0677,3.1891e-06,0
5.0682,-1.6785e-06,0
5.0687,-2.5177e-06,0
5.0693,-5.539e-06,0
5.0698,-1.3931e-05,0
5.0703,-2.1653e-05,0
5.0708,-2.4842e-05,0
5.0713,-2.7527e-05,0
5.0718,-3.1724e-05,0
5.0724,-2.6017e-05,0
5.0729,-2.3499e-06,0
5.0734,3.0381e-05,0
5.0739,5.8579e-05,0
5.0744,8.0735e-05,0
5.075,9.0974e-05,0
5.0755,8.8121e-05,0
5.076,8.5771e-05,0
5.0765,9.0806e-05,0
5.077,9.4667e-05,0
5.0776,8.7785e-05,0
5.0781,7.5868e-05,0
5.0786,7.1336e-05,0
5.0791,7.1336e-05,0
5.0796,6.4958e-05,0
5.0802,4.8005e-05,0
5.0807,2.7863e-05,0
5.0812,8.7282e-06,0
5.0817,-1.1917e-05,0
5.0822,-3.5416e-05,0
5.0827,-5.1865e-05,0
5.0833,-4.8005e-05,0
5.0838,-3.4577e-05,0
5.0843,-3.1724e-05,0
5.0848,-3.6759e-05,0
5.0853,-4.0116e-05,0
5.0859,-3.9948e-05,0
5.0864,-3.4409e-05,0
5.0869,-2.3667e-05,0
5.0874,-1.4939e-05,0
5.0879,-2.0478e-05,0
5.0885,-3.9948e-05,0
5.089,-5.7404e-05,0
5.0895,-6.0929e-05,0
5.09,-4.9683e-05,0
5.0905,-3.0045e-05,0
5.0911,-6.0426e-06,0
5.0916,2.2995e-05,0
5.0921,5.7908e-05,0
5.0926,9.3492e-05,0
5.0931,0.00011464,0
5.0937,0.00011095,0
5.0942,9.0135e-05,0
5.0947,7.0329e-05,0
5.0952,5.3544e-05,0
5.0957,3.1388e-05,0
5.0963,5.539e-06,0
5.0968,-1.091e-05,0
5.0973,-1.4771e-05,0
5.0978,-1.6953e-05,0
5.0983,-1.796e-05,0
5.0988,-1.326e-05,0
5.0994,-3.357e-06,0
5.0999,8.5603e-06,0
5.1004,1.9303e-05,0
5.1009,2.266e-05,0
5.1014,1.4603e-05,0
5.102,-1.0071e-06,0
5.1025,-1.2589e-05,0
5.103,-1.5106e-05,0
5.1035,-8.896e-06,0
5.104,1.1749e-06,0
5.1046,1.0575e-05,0
5.1051,2.1149e-05,0
5.1056,3.508e-05,0
5.1061,4.3809e-05,0
5.1066,4.7333e-05,0
5.1072,5.4383e-05,0
5.1077,6.5629e-05,0
5.1082,7.5029e-05,0
5.1087,7.4693e-05,0
5.1092,6.2943e-05,0
5.1098,4.8508e-05,0
5.1103,3.3402e-05,0
5.1108,1.2757e-05,0
5.1113,-1.091e-05,0
5.1118,-2.7024e-05,0
5.1123,-3.1052e-05,0
5.1129,-3.3738e-05,0
5.1134,-3.1052e-05,0
5.1139,-9.9031e-06,0
5.1144,2.031e-05,0
5.1149,3.8102e-05,0
5.1155,4.1962e-05,0
5.116,3.9612e-05,0
5.1165,3.3738e-05,0
5.117,2.4338e-05,0
5.1175,1.5946e-05,0
5.1181,1.4771e-05,0
5.1186,2.0142e-05,0
5.1191,2.8702e-05,0
5.1196,3.357e-05,0
5.1201,2.9038e-05,0
5.1207,1.5274e-05,0
5.1212,3.8605e-06,0
5.1217,-4.1962e-06,0
5.1222,-1.2421e-05,0
5.1227,-1.6953e-05,0
5.1232,-1.3092e-05,0
5.1238,-2.8534e-06,0
5.1243,8.0568e-06,0
5.1248,2.182e-05,0
5.1253,4.213e-05,0
5.1258,7.1168e-05,0
5.1264,0.00010021,0
5.1269,0.00011632,0
5.1274,0.00010961,0
5.1279,8.8121e-05,0
5.1284,6.8315e-05,0
5.129,5.3208e-05,0
5.1295,4.1962e-05,0
5.13,4.0787e-05,0
5.1305,4.1794e-05,0
5.131,2.7024e-05,0
5.1316,-4.5319e-06,0
5.1321,-3.8437e-05,0
5.1326,-5.7404e-05,0
5.1331,-5.2537e-05,0
5.1336,-3.3906e-05,0
5.1342,-1.2253e-05,0
5.1347,7.8889e-06,0
5.1352,2.7359e-05,0
5.1357,5.2873e-05,0
5.1362,8.2246e-05,0
5.1368,0.00010155,0
5.1373,9.6849e-05,0
5.1378,7.5029e-05,0
5.1383,5.4551e-05,0
5.1388,3.7095e-05,0
5.1393,1.3931e-05,0
5.1399,-7.8889e-06,0
5.1404,-1.3596e-05,0
5.1409,1.8463e-06,0
5.1414,2.3331e-05,0
5.1419,3.4073e-05,0
5.1425,3.1052e-05,0
5.143,2.7192e-05,0
5.1435,3.122e-05,0
5.144,3.6423e-05,0
5.1445,3.8773e-05,0
5.1451,4.1123e-05,0
5.1456,3.6759e-05,0
5.1461,1.8128e-05,0
5.1466,-8.3925e-06,0
5.1471,-2.5681e-05,0
5.1477,-1.8128e-05,0
5.1482,1.091e-05,0
5.1487,4.1459e-05,0
5.1492,6.0929e-05,0
5.1497,6.1265e-05,0
5.1502,3.6759e-05,0
5.1508,-5.0355e-06,0
5.1513,-4.5991e-05,0
5.1518,-6.8315e-05,0
5.1523,-7.2847e-05,0
5.1528,-6.9322e-05,0
5.1534,-6.5965e-05,0
5.1539,-6.1601e-05,0
5.1544,-4.8005e-05,0
5.1549,-2.6688e-05,0
5.1554,-6.714e-07,0
5.156,2.9374e-05,0
5.1565,5.2873e-05,0
5.157,7.3014e-05,0
5.1575,0.00010138,0
5.158,0.00013579,0
5.1586,0.00015895,0
5.1591,0.00015828,0
5.1596,0.00013579,0
5.1601,0.00011162,0
5.1606,0.00010356,0
5.1612,0.0001091,0
5.1617,0.00011229,0
5.1622,8.426e-05,0
5.1627,2.0645e-05,0
5.1632,-4.1794e-05,0
5.1638,-7.8218e-05,0
5.1643,-9.7185e-05,0
5.1648,-0.00010625,0
5.1653,-0.0001044,0
5.1658,-0.00010021,0
5.1663,-0.00010222,0
5.1669,-0.00011296,0
5.1674,-0.00011766,0
5.1679,-0.00010289,0
5.1684,-7.5364e-05,0
5.1689,-4.7166e-05,0
5.1695,-2.652e-05,0
5.17,-1.3931e-05,0
5.1705,-4.5319e-06,0
5.171,5.7069e-06,0
5.1715,1.326e-05,0
5.1721,1.7624e-05,0
5.1726,1.8631e-05,0
5.1731,1.3931e-05,0
5.1736,7.7211e-06,0
5.1741,1.561e-05,0
5.1747,4.3305e-05,0
5.1752,8.1743e-05,0
5.1757,0.00011397,0
5.1762,0.00012538,0
5.1767,0.00011464,0
5.1772,9.3156e-05,0
5.1778,7.7546e-05,0
5.1783,6.949e-05,0
5.1788,6.0258e-05,0
5.1793,4.213e-05,0
5.1798,1.7288e-05,0
5.1804,-4.3641e-06,0
5.1809,-1.2924e-05,0
5.1814,-5.3712e-06,0
5.1819,9.5674e-06,0
5.1824,2.4002e-05,0
5.183,3.4745e-05,0
5.1835,4.0452e-05,0
5.184,3.7095e-05,0
5.1845,3.3066e-05,0
5.185,3.7263e-05,0
5.1856,4.448e-05,0
5.1861,4.213e-05,0
5.1866,2.8031e-05,0
5.1871,1.0575e-05,0
5.1876,-3.0213e-06,0
5.1882,-1.2085e-05,0
5.1887,-1.4603e-05,0
5.1892,-1.0575e-05,0
5.1897,-1.8463e-06,0
5.1902,1.0575e-05,0
5.1908,3.0045e-05,0
5.1913,5.4887e-05,0
5.1918,7.2343e-05,0
5.1923,7.2007e-05,0
5.1928,6.4958e-05,0
5.1933,6.7308e-05,0
5.1939,7.3518e-05,0
5.1944,7.4357e-05,0
5.1949,6.1936e-05,0
5.1954,3.8773e-05,0
5.1959,1.8631e-05,0
5.1965,8.2246e-06,0
5.197,2.3499e-06,0
5.1975,-2.3499e-06,0
5.198,-3.8605e-06,0
5.1985,-3.1891e-06,0
5.1991,6.714e-07,0
5.1996,7.2175e-06,0
5.2001,1.2253e-05,0
5.2006,1.3764e-05,0
5.2011,1.3764e-05,0
5.2017,9.7353e-06,0
5.2022,1.0071e-06,0
5.2027,-1.4939e-05,0
5.2032,-3.2898e-05,0
5.2037,-4.1123e-05,0
5.2043,-3.4241e-05,0
5.2048,-1.5106e-05,0
5.2053,1.5946e-05,0
5.2058,5.9419e-05,0
5.2063,0.00010524,0
5.2068,0.00012992,0
5.2074,0.00011531,0
5.2079,7.6204e-05,0
5.2084,3.6423e-05,0
5.2089,1.1749e-05,0
5.2094,1.1749e-06,0
5.21,-1.4267e-05,0
5.2105,-3.2059e-05,0
5.211,-3.5416e-05,0
5.2115,-1.9303e-05,0
5.212,1.0575e-05,0
5.2126,3.6591e-05,0
5.2131,3.978e-05,0
5.2136,2.4002e-05,0
5.2141,1.4939e-05,0
5.2146,2.2156e-05,0
5.2152,3.122e-05,0
5.2157,2.8367e-05,0
5.2162,1.3092e-05,0
5.2167,-6.0426e-06,0
5.2172,-1.6281e-05,0
5.2177,-1.4099e-05,0
5.2183,-1.091e-05,0
5.2188,-1.6953e-05,0
5.2193,-2.1653e-05,0
5.2198,-1.8296e-05,0
5.2203,-4.1962e-06,0
5.2209,1.9135e-05,0
5.2214,3.4745e-05,0
5.2219,3.1388e-05,0
5.2224,1.8128e-05,0
5.2229,2.5177e-06,0
5.2235,-1.0575e-05,0
5.224,-1.9638e-05,0
5.2245,-1.9974e-05,0
5.225,-8.2246e-06,0
5.2255,6.5461e-06,0
5.2261,1.8631e-05,0
5.2266,2.652e-05,0
5.2271,2.5681e-05,0
5.2276,1.4771e-05,0
5.2281,3.1891e-06,0
5.2287,7.5532e-06,0
5.2292,2.6017e-05,0
5.2297,4.6159e-05,0
5.2302,5.9251e-05,0
5.2307,7.0497e-05,0
5.2313,8.2078e-05,0
5.2318,9.6849e-05,0
5.2323,0.00013344,0
5.2328,0.00019135,0
5.2333,0.00023247,0
5.2338,0.00023214,0
5.2344,0.00018463,0
5.2349,9.7856e-05,0
5.2354,1.1582e-05,0
5.2359,-4.3473e-05,0
5.2364,-7.0665e-05,0
5.237,-8.5267e-05,0
5.2375,-9.7017e-05,0
5.238,-0.00010188,0
5.2385,-9.9199e-05,0
5.239,-9.601e-05,0
5.2396,-9.1646e-05,0
5.2401,-8.5435e-05,0
5.2406,-7.9393e-05,0
5.2411,-7.1e-05,0
5.2416,-5.9586e-05,0
5.2422,-4.918e-05,0
5.2427,-3.9445e-05,0
5.2432,-3.1891e-05,0
5.2437,-2.0813e-05,0
5.2442,2.5177e-06,0
5.2447,3.592e-05,0
5.2453,6.7475e-05,0
5.2458,8.8457e-05,0
5.2463,9.7856e-05,0
5.2468,9.3492e-05,0
5.2473,7.7714e-05,0
5.2479,6.479e-05,0
5.2484,6.6972e-05,0
5.2489,8.1071e-05,0
5.2494,9.8527e-05,0
5.2499,0.00010658,0
5.2505,9.5171e-05,0
5.251,7.3014e-05,0
5.2515,5.4383e-05,0
5.252,4.1459e-05,0
5.2525,2.5177e-05,0
5.2531,1.8463e-06,0
5.2536,-2.0981e-05,0
5.2541,-3.4409e-05,0
5.2546,-4.3137e-05,0
5.2551,-5.2705e-05,0
5.2557,-5.6901e-05,0
5.2562,-4.9851e-05,0
5.2567,-3.1724e-05,0
5.2572,-6.2104e-06,0
5.2577,2.266e-05,0
5.2583,4.9516e-05,0
5.2588,6.9657e-05,0
5.2593,8.1575e-05,0
5.2598,8.8457e-05,0
5.2603,8.7617e-05,0
5.2608,7.57e-05,0
5.2614,6.4286e-05,0
5.2619,5.7572e-05,0
5.2624,5.7237e-05,0
5.2629,5.7908e-05,0
5.2634,4.5151e-05,0
5.264,2.182e-05,0
5.2645,7.2175e-06,0
5.265,4.6998e-06,0
5.2655,1.5106e-06,0
5.266,-7.7211e-06,0
5.2666,-1.091e-05,0
5.2671,-5.2033e-06,0
5.2676,1.6785e-07,0
5.2681,1.3428e-06,0
5.2686,5.0355e-07,0
5.2692,-5.539e-06,0
5.2697,-1.6617e-05,0
5.2702,-1.8967e-05,0
5.2707,-5.0355e-07,0
5.2712,2.3331e-05,0
5.2717,4.2298e-05,0
5.2723,6.3951e-05,0
5.2728,8.4596e-05,0
5.2733,9.4835e-05,0
5.2738,9.3996e-05,0
5.2743,8.3757e-05,0
5.2749,5.9586e-05,0
5.2754,2.4674e-05,0
5.2759,-1.561e-05,0
5.2764,-5.1865e-05,0
5.2769,-7.3014e-05,0
5.2775,-7.2679e-05,0
5.278,-5.6901e-05,0
5.2785,-4.1794e-05,0
5.279,-2.6688e-05,0
5.2795,6.714e-07,0
5.2801,4.1123e-05,0
5.2806,7.805e-05,0
5.2811,9.1142e-05,0
5.2816,7.5029e-05,0
5.2821,4.2802e-05,0
5.2827,1.6449e-05,0
5.2832,6.2104e-06,0
5.2837,1.2253e-05,0
5.2842,1.796e-05,0
5.2847,1.0071e-05,0
5.2852,6.8818e-06,0
5.2858,2.9038e-05,0
5.2863,6.5629e-05,0
5.2868,9.0471e-05,0
5.2873,8.7449e-05,0
5.2878,5.8915e-05,0
5.2884,2.8702e-05,0
5.2889,1.3596e-05,0
5.2894,8.2246e-06,0
5.2899,3.5248e-06,0
5.2904,-7.0497e-06,0
5.291,-2.1988e-05,0
5.2915,-3.9445e-05,0
5.292,-5.6565e-05,0
5.2925,-5.4887e-05,0
5.293,-3.122e-05,0
5.2936,-3.357e-07,0
5.2941,2.1988e-05,0
5.2946,3.2731e-05,0
5.2951,3.8773e-05,0
5.2956,5.1865e-05,0
5.2962,6.9993e-05,0
5.2967,8.0735e-05,0
5.2972,7.9728e-05,0
5.2977,7.2343e-05,0
5.2982,6.5965e-05,0
5.2988,5.4719e-05,0
5.2993,3.2731e-05,0
5.2998,-3.357e-07,0
5.3003,-2.9877e-05,0
5.3008,-3.7263e-05,0
5.3013,-2.7024e-05,0
5.3019,-2.1653e-05,0
5.3024,-3.122e-05,0
5.3029,-4.7333e-05,0
5.3034,-5.539e-05,0
5.3039,-4.6494e-05,0
5.3045,-2.5681e-05,0
5.305,-6.5461e-06,0
5.3055,6.0426e-06,0
5.306,1.3931e-05,0
5.3065,2.0645e-05,0
5.3071,2.9709e-05,0
5.3076,3.9445e-05,0
5.3081,4.8173e-05,0
5.3086,5.7572e-05,0
5.3091,7.5364e-05,0
5.3097,9.9199e-05,0
5.3102,0.00011548,0
5.3107,0.00011531,0
5.3112,9.4835e-05,0
5.3117,6.2943e-05,0
5.3122,3.3738e-05,0
5.3128,1.2924e-05,0
5.3133,-3.357e-06,0
5.3138,-1.8631e-05,0
5.3143,-3.5584e-05,0
5.3148,-4.5823e-05,0
5.3154,-3.6423e-05,0
5.3159,-1.3596e-05,0
5.3164,-2.182e-06,0
5.3169,-1.2253e-05,0
5.3174,-2.3835e-05,0
5.318,-2.031e-05,0
5.3185,-1.1749e-06,0
5.319,2.8367e-05,0
5.3195,5.4047e-05,0
5.32,5.153e-05,0
5.3206,2.8031e-05,0
5.3211,1.3596e-05,0
5.3216,1.4267e-05,0
5.3221,1.2085e-05,0
5.3226,-5.8747e-06,0
5.3232,-3.5248e-05,0
5.3237,-5.7069e-05,0
5.3242,-5.5558e-05,0
5.3247,-3.0716e-05,0
5.3252,4.3641e-06,0
5.3258,3.6088e-05,0
5.3263,5.3544e-05,0
5.3268,6.5965e-05,0
5.3273,8.7114e-05,0
5.3278,0.00010138,0
5.3283,8.896e-05,0
5.3289,6.0929e-05,0
5.3294,4.1123e-05,0
5.3299,3.2059e-05,0
5.3304,2.9206e-05,0
5.3309,3.1556e-05,0
5.3315,3.5248e-05,0
5.332,3.6591e-05,0
5.3325,3.4409e-05,0
5.333,3.4073e-05,0
5.3335,4.2802e-05,0
5.3341,5.2369e-05,0
5.3346,4.6159e-05,0
5.3351,2.6688e-05,0
5.3356,8.5603e-06,0
5.3361,-6.2104e-06,0
5.3367,-2.3667e-05,0
5.3372,-3.5584e-05,0
5.3377,-3.508e-05,0
5.3382,-2.9038e-05,0
5.3387,-2.5681e-05,0
5.3392,-2.1149e-05,0
5.3398,-2.182e-06,0
5.3403,2.6352e-05,0
5.3408,4.7837e-05,0
5.3413,5.9586e-05,0
5.3418,6.7308e-05,0
5.3424,7.2679e-05,0
5.3429,7.3686e-05,0
5.3434,6.63e-05,0
5.3439,4.0452e-05,0
5.3444,-4.8676e-06,0
5.345,-4.3809e-05,0
5.3455,-5.2033e-05,0
5.346,-4.5151e-05,0
5.3465,-4.3809e-05,0
5.347,-4.3809e-05,0
5.3476,-3.9109e-05,0
5.3481,-1.9471e-05,0
5.3486,1.2085e-05,0
5.3491,4.1794e-05,0
5.3496,5.9419e-05,0
5.3502,6.479e-05,0
5.3507,6.2608e-05,0
5.3512,5.304e-05,0
5.3517,3.7934e-05,0
5.3522,1.9471e-05,0
5.3528,2.0142e-06,0
5.3533,-6.3783e-06,0
5.3538,3.357e-07,0
5.3543,1.4939e-05,0
5.3548,3.2563e-05,0
5.3553,4.8173e-05,0
5.3559,5.388e-05,0
5.3564,4.8844e-05,0
5.3569,4.2466e-05,0
5.3574,4.1291e-05,0
5.3579,4.0452e-05,0
5.3585,3.743e-05,0
5.359,4.0452e-05,0
5.3595,5.0858e-05,0
5.36,6.4958e-05,0
5.3605,7.9057e-05,0
5.3611,9.4163e-05,0
5.3616,0.00010994,0
5.3621,0.000118,0
5.3626,0.00011565,0
5.3631,0.00010591,0
5.3637,8.4092e-05,0
5.3642,5.2201e-05,0
5.3647,2.1653e-05,0
5.3652,-1.3428e-06,0
5.3657,-1.9638e-05,0
5.3662,-3.8102e-05,0
5.3668,-5.623e-05,0
5.3673,-6.5629e-05,0
5.3678,-6.0594e-05,0
5.3683,-4.7669e-05,0
5.3688,-3.7766e-05,0
5.3694,-3.3402e-05,0
5.3699,-3.592e-05,0
5.3704,-4.5823e-05,0
5.3709,-5.623e-05,0
5.3714,-6.0426e-05,0
5.372,-5.623e-05,0
5.3725,-4.3137e-05,0
5.373,-2.2324e-05,0
5.3735,5.539e-06,0
5.374,4.2466e-05,0
5.3746,8.1407e-05,0
5.3751,0.00010289,0
5.3756,9.4163e-05,0
5.3761,7.0497e-05,0
5.3766,5.0187e-05,0
5.3772,3.6759e-05,0
5.3777,2.501e-05,0
5.3782,1.4603e-05,0
5.3787,9.5674e-06,0
5.3792,8.2246e-06,0
5.3797,1.0575e-05,0
5.3803,1.0239e-05,0
5.3808,5.7069e-06,0
5.3813,1.0575e-05,0
5.3818,1.5442e-05,0
5.3823,5.539e-06,0
5.3829,-1.4267e-05,0
5.3834,-2.9038e-05,0
5.3839,-2.7192e-05,0
5.3844,-4.1962e-06,0
5.3849,2.9206e-05,0
5.3855,5.6901e-05,0
5.386,7.2175e-05,0
5.3865,7.4357e-05,0
5.387,6.2272e-05,0
5.3875,3.9445e-05,0
5.3881,2.1149e-05,0
5.3886,1.1749e-05,0
5.3891,9.7353e-06,0
5.3896,1.4435e-05,0
5.3901,3.1724e-05,0
5.3907,5.8915e-05,0
5.3912,8.1071e-05,0
5.3917,8.9128e-05,0
5.3922,8.3421e-05,0
5.3927,6.5293e-05,0
5.3933,4.7501e-05,0
5.3938,4.7837e-05,0
5.3943,6.4622e-05,0
5.3948,7.6036e-05,0
5.3953,6.1601e-05,0
5.3958,2.2995e-05,0
5.3964,-2.5681e-05,0
5.3969,-6.63e-05,0
5.3974,-8.5771e-05,0
5.3979,-8.1239e-05,0
5.3984,-6.3279e-05,0
5.399,-4.6159e-05,0
5.3995,-3.8773e-05,0
5.4,-3.5416e-05,0
5.4005,-2.887e-05,0
5.401,-1.8296e-05,0
5.4016,-8.3925e-06,0
5.4021,0,0
5.4026,9.5674e-06,0
5.4031,2.0645e-05,0
5.4036,3.2059e-05,0
5.4042,4.2802e-05,0
5.4047,5.0019e-05,0
5.4052,5.4215e-05,0
5.4057,5.4887e-05,0
5.4062,4.7669e-05,0
5.4067,3.6423e-05,0
5.4073,3.3234e-05,0
5.4078,3.7766e-05,0
5.4083,4.7166e-05,0
5.4088,5.7404e-05,0
5.4093,5.153e-05,0
5.4099,2.8031e-05,0
5.4104,5.2033e-06,0
5.4109,-8.5603e-06,0
5.4114,-1.8967e-05,0
5.4119,-2.5177e-05,0
5.4125,-2.4674e-05,0
5.413,-2.031e-05,0
5.4135,-1.0239e-05,0
5.414,1.1246e-05,0
5.4145,3.7095e-05,0
5.4151,5.4551e-05,0
5.4156,5.8579e-05,0
5.4161,5.7237e-05,0
5.4166,6.2272e-05,0
5.4171,7.335e-05,0
5.4177,7.8553e-05,0
5.4182,7.2007e-05,0
5.4187,5.7908e-05,0
5.4192,3.8102e-05,0
5.4197,1.1246e-05,0
5.4203,-9.2317e-06,0
5.4208,-1.3596e-05,0
5.4213,-9.9031e-06,0
5.4218,-1.5106e-05,0
5.4223,-2.9709e-05,0
5.4228,-4.1962e-05,0
5.4234,-4.1794e-05,0
5.4239,-1.6953e-05,0
5.4244,3.6759e-05,0
5.4249,8.8289e-05,0
5.4254,9.6849e-05,0
5.426,5.9922e-05,0
5.4265,1.2924e-05,0
5.427,-1.2421e-05,0
5.4275,-1.3596e-05,0
5.428,-7.0497e-06,0
5.4286,-8.896e-06,0
5.4291,-1.7288e-05,0
5.4296,-2.0478e-05,0
5.4301,-1.7288e-05,0
5.4306,-1.1749e-05,0
5.4312,-7.5532e-06,0
5.4317,-6.2104e-06,0
5.4322,-4.6998e-06,0
5.4327,3.5248e-06,0
5.4332,8.7282e-06,0
5.4337,-1.8463e-06,0
5.4343,-2.9709e-05,0
5.4348,-5.4551e-05,0
5.4353,-5.7908e-05,0
5.4358,-3.978e-05,0
5.4363,-1.8296e-05,0
5.4369,1.1749e-06,0
5.4374,3.4073e-05,0
5.4379,9.1981e-05,0
5.4384,0.00016567,0
5.4389,0.00022139,0
5.4395,0.00022408,0
5.44,0.00017507,0
5.4405,0.0001138,0
5.441,6.9322e-05,0
5.4415,4.2802e-05,0
5.4421,2.9038e-05,0
5.4426,2.3331e-05,0
5.4431,1.6281e-05,0
5.4436,4.5319e-06,0
5.4441,-5.539e-06,0
5.4447,-4.1962e-06,0
5.4452,6.2104e-06,0
5.4457,1.0575e-05,0
5.4462,2.6856e-06,0
5.4467,-2.182e-06,0
5.4473,1.4435e-05,0
5.4478,4.3809e-05,0
5.4483,6.6804e-05,0
5.4488,7.1839e-05,0
5.4493,4.8844e-05,0
5.4498,1.1078e-05,0
5.4504,-2.0142e-05,0
5.4509,-3.357e-05,0
5.4514,-3.0045e-05,0
5.4519,-2.4674e-05,0
5.4524,-2.8199e-05,0
5.453,-3.0884e-05,0
5.4535,-2.1149e-05,0
5.454,-7.2175e-06,0
5.4545,-5.539e-06,0
5.455,-1.7624e-05,0
5.4556,-2.9374e-05,0
5.4561,-3.3738e-05,0
5.4566,-3.0549e-05,0
5.4571,-1.8463e-05,0
5.4576,-3.0213e-06,0
5.4582,3.1891e-06,0
5.4587,-3.1891e-06,0
5.4592,-1.3596e-05,0
5.4597,-1.5442e-05,0
5.4602,-1.0071e-06,0
5.4607,1.9638e-05,0
5.4613,3.0716e-05,0
5.4618,3.3738e-05,0
5.4623,3.6423e-05,0
5.4628,3.8773e-05,0
5.4633,4.3305e-05,0
5.4639,5.623e-05,0
5.4644,7.7043e-05,0
5.4649,8.7785e-05,0
5.4654,8.7114e-05,0
5.4659,9.2988e-05,0
5.4665,0.00010021,0
5.467,9.1814e-05,0
5.4675,7.0665e-05,0
5.468,4.4648e-05,0
5.4685,2.4506e-05,0
5.4691,2.4338e-05,0
5.4696,4.0116e-05,0
5.4701,5.3208e-05,0
5.4706,5.7237e-05,0
5.4711,5.6901e-05,0
5.4717,5.3544e-05,0
5.4722,4.3809e-05,0
5.4727,3.6088e-05,0
5.4732,3.8437e-05,0
5.4737,3.5248e-05,0
5.4742,1.8463e-05,0
5.4748,-3.357e-07,0
5.4753,-1.2924e-05,0
5.4758,-1.9135e-05,0
5.4763,-2.0645e-05,0
5.4768,-1.8128e-05,0
5.4774,-7.7211e-06,0
5.4779,3.0213e-06,0
5.4784,7.5532e-06,0
5.4789,1.4267e-05,0
5.4794,2.6017e-05,0
5.48,3.743e-05,0
5.4805,4.213e-05,0
5.481,4.7501e-05,0
5.4815,7.0832e-05,0
5.482,0.00010088,0
5.4826,0.00011095,0
5.4831,9.4163e-05,0
5.4836,5.7908e-05,0
5.4841,8.5603e-06,0
5.4846,-4.4144e-05,0
5.4852,-8.3757e-05,0
5.4857,-9.5842e-05,0
5.4862,-9.7017e-05,0
5.4867,-0.00010256,0
5.4872,-0.00010054,0
5.4878,-8.6442e-05,0
5.4883,-7.2679e-05,0
5.4888,-5.5726e-05,0
5.4893,-2.8702e-05,0
5.4898,-6.714e-06,0
5.4903,-5.539e-06,0
5.4909,-1.3764e-05,0
5.4914,-8.5603e-06,0
5.4919,9.0639e-06,0
5.4924,1.8296e-05,0
5.4929,1.4603e-05,0
5.4935,1.0239e-05,0
5.494,1.2421e-05,0
5.4945,1.796e-05,0
5.495,3.0045e-05,0
5.4955,5.4719e-05,0
5.4961,8.6442e-05,0
5.4966,0.00010457,0
5.4971,0.00010037,0
5.4976,7.8218e-05,0
5.4981,5.0187e-05,0
5.4987,2.9709e-05,0
5.4992,1.9303e-05,0
5.4997,1.6281e-05,0
5.5002,1.4435e-05,0
5.5007,1.4939e-05,0
5.5012,2.3499e-05,0
5.5018,3.827e-05,0
5.5023,4.8844e-05,0
5.5028,4.7837e-05,0
5.5033,3.7766e-05,0
5.5038,2.5681e-05,0
5.5044,1.9135e-05,0
5.5049,1.7288e-05,0
5.5054,1.6953e-05,0
5.5059,1.9638e-05,0
5.5064,2.5681e-05,0
5.507,3.508e-05,0
5.5075,4.3641e-05,0
5.508,5.0019e-05,0
5.5085,5.1865e-05,0
5.509,4.9516e-05,0
5.5096,4.6494e-05,0
5.5101,4.6494e-05,0
5.5106,5.5222e-05,0
5.5111,7.0161e-05,0
5.5116,7.8386e-05,0
5.5122,7.9057e-05,0
5.5127,8.04e-05,0
5.5132,7.9561e-05,0
5.5137,6.5797e-05,0
5.5142,3.592e-05,0
5.5148,-2.8534e-06,0
5.5153,-3.3066e-05,0
5.5158,-4.9851e-05,0
5.5163,-6.0761e-05,0
5.5168,-6.4958e-05,0
5.5173,-5.8579e-05,0
5.5179,-4.0955e-05,0
5.5184,-1.3092e-05,0
5.5189,1.4267e-05,0
5.5194,3.122e-05,0
5.5199,4.2802e-05,0
5.5205,5.0187e-05,0
5.521,4.8341e-05,0
5.5215,4.4144e-05,0
5.522,4.6159e-05,0
5.5225,4.918e-05,0
5.5231,4.8173e-05,0
5.5236,3.8437e-05,0
5.5241,1.6953e-05,0
5.5246,-4.1962e-06,0
5.5251,-8.2246e-06,0
5.5257,-1.6785e-06,0
5.5262,-5.0355e-07,0
5.5267,-8.2246e-06,0
5.5272,-1.1917e-05,0
5.5277,-7.2175e-06,0
5.5282,-4.5319e-06,0
5.5288,-1.2757e-05,0
5.5293,-3.6088e-05,0
5.5298,-6.8147e-05,0
5.5303,-9.4163e-05,0
5.5308,-0.00010625,0
5.5314,-0.00010373,0
5.5319,-8.5603e-05,0
5.5324,-5.3544e-05,0
5.5329,-1.1078e-05,0
5.5334,3.2563e-05,0
5.534,7.2343e-05,0
5.5345,0.000118,0
5.535,0.00016886,0
5.5355,0.00019303,0
5.536,0.00017406,0
5.5366,0.0001368,0
5.5371,0.00010826,0
5.5376,9.0639e-05,0
5.5381,7.1336e-05,0
5.5386,4.6159e-05,0
5.5392,1.9303e-05,0
5.5397,-7.5532e-06,0
5.5402,-2.9374e-05,0
5.5407,-4.3809e-05,0
5.5412,-5.8412e-05,0
5.5418,-7.5029e-05,0
5.5423,-8.0735e-05,0
5.5428,-7.5532e-05,0
5.5433,-6.7979e-05,0
5.5438,-5.304e-05,0
5.5443,-2.3667e-05,0
5.5449,5.2033e-06,0
5.5454,2.5345e-05,0
5.5459,4.5151e-05,0
5.5464,6.949e-05,0
5.5469,9.366e-05,0
5.5475,0.00010826,0
5.548,0.00011263,0
5.5485,0.00011263,0
5.549,0.00011112,0
5.5495,0.00010138,0
5.5501,8.5435e-05,0
5.5506,6.9322e-05,0
5.5511,5.4887e-05,0
5.5516,4.448e-05,0
5.5521,3.743e-05,0
5.5527,2.2156e-05,0
5.5532,-2.3499e-06,0
5.5537,-2.5513e-05,0
5.5542,-4.0955e-05,0
5.5547,-4.6159e-05,0
5.5553,-4.5823e-05,0
5.5558,-4.5991e-05,0
5.5563,-3.6759e-05,0
5.5568,-6.3783e-06,0
5.5573,4.213e-05,0
5.5578,8.6107e-05,0
5.5584,0.00010776,0
5.5589,9.987e-05,0
5.5594,7.4861e-05,0
5.5599,5.5894e-05,0
5.5604,5.623e-05,0
5.561,6.7979e-05,0
5.5615,6.9657e-05,0
5.562,4.6662e-05,0
5.5625,1.0407e-05,0
5.563,-1.8296e-05,0
5.5636,-3.592e-05,0
5.5641,-5.153e-05,0
5.5646,-7.0665e-05,0
5.5651,-8.4428e-05,0
5.5656,-7.9561e-05,0
5.5662,-6.244e-05,0
5.5667,-4.7333e-05,0
5.5672,-3.6423e-05,0
5.5677,-2.9709e-05,0
5.5682,-2.1317e-05,0
5.5687,5.0355e-07,0
5.5693,3.7766e-05,0
5.5698,7.5029e-05,0
5.5703,9.3492e-05,0
5.5708,0.00010256,0
5.5713,0.00011531,0
5.5719,0.00012337,0
5.5724,0.00011514,0
5.5729,9.3828e-05,0
5.5734,6.3447e-05,0
5.5739,2.2492e-05,0
5.5745,-2.5681e-05,0
5.575,-7.2343e-05,0
5.5755,-0.00010121,0
5.576,-0.00010625,0
5.5765,-9.0135e-05,0
5.5771,-5.1865e-05,0
5.5776,-4.1962e-06,0
5.5781,2.6688e-05,0
5.5786,3.5752e-05,0
5.5791,3.3402e-05,0
5.5797,3.0381e-05,0
5.5802,2.9709e-05,0
5.5807,3.4745e-05,0
5.5812,4.6159e-05,0
5.5817,5.0858e-05,0
5.5823,4.5487e-05,0
5.5828,4.1794e-05,0
5.5833,3.827e-05,0
5.5838,2.4338e-05,0
5.5843,4.3641e-06,0
5.5848,-1.1078e-05,0
5.5854,-2.0142e-05,0
5.5859,-2.6017e-05,0
5.5864,-2.9709e-05,0
5.5869,-2.9541e-05,0
5.5874,-2.1653e-05,0
5.588,-3.5248e-06,0
5.5885,2.8534e-05,0
5.589,7.4357e-05,0
5.5895,0.00011397,0
5.59,0.00012236,0
5.5906,0.00010457,0
5.5911,7.9728e-05,0
5.5916,5.9922e-05,0
5.5921,5.0187e-05,0
5.5926,5.2033e-05,0
5.5932,5.4215e-05,0
5.5937,4.0452e-05,0
5.5942,1.2589e-05,0
5.5947,-9.5674e-06,0
5.5952,-1.0239e-05,0
5.5957,2.8534e-06,0
5.5963,1.5274e-05,0
5.5968,1.9638e-05,0
5.5973,1.7121e-05,0
5.5978,1.5106e-05,0
5.5983,1.2253e-05,0
5.5989,6.8818e-06,0
5.5994,2.8534e-06,0
5.5999,2.182e-06,0
5.6004,3.1891e-06,0
5.6009,8.2246e-06,0
5.6015,1.4099e-05,0
5.602,1.5946e-05,0
5.6025,2.6017e-05,0
5.603,5.2537e-05,0
5.6035,7.9561e-05,0
5.6041,8.9799e-05,0
5.6046,8.51e-05,0
5.6051,7.7379e-05,0
5.6056,6.6972e-05,0
5.6061,5.1362e-05,0
5.6067,4.5487e-05,0
5.6072,5.4887e-05,0
5.6077,6.9154e-05,0
5.6082,7.3854e-05,0
5.6087,5.6901e-05,0
5.6093,1.5274e-05,0
5.6098,-3.4241e-05,0
5.6103,-6.5293e-05,0
5.6108,-7.335e-05,0
5.6113,-7.57e-05,0
5.6118,-8.51e-05,0
5.6124,-9.4331e-05,0
5.6129,-8.426e-05,0
5.6134,-5.6565e-05,0
5.6139,-3.1052e-05,0
5.6144,-1.8631e-05,0
5.615,-1.1582e-05,0
5.6155,6.0426e-06,0
5.616,3.7934e-05,0
5.6165,7.3518e-05,0
5.617,9.752e-05,0
5.6176,9.9199e-05,0
5.6181,7.7714e-05,0
5.6186,4.5319e-05,0
5.6191,1.6114e-05,0
5.6196,-1.6785e-06,0
5.6202,-6.0426e-06,0
5.6207,-5.539e-06,0
5.6212,-8.0568e-06,0
5.6217,-1.5106e-06,0
5.6222,1.8631e-05,0
5.6227,3.4577e-05,0
5.6233,3.5752e-05,0
5.6238,2.3163e-05,0
5.6243,-8.3925e-07,0
5.6248,-2.2156e-05,0
5.6253,-2.5849e-05,0
5.6259,-1.5106e-05,0
5.6264,-5.8747e-06,0
5.6269,-2.5177e-06,0
5.6274,8.3925e-07,0
5.6279,1.1246e-05,0
5.6285,2.9374e-05,0
5.629,4.683e-05,0
5.6295,5.8747e-05,0
5.63,6.4118e-05,0
5.6305,6.8482e-05,0
5.6311,7.4861e-05,0
5.6316,7.6371e-05,0
5.6321,6.4958e-05,0
5.6326,4.8508e-05,0
5.6331,3.9612e-05,0
5.6337,3.6423e-05,0
5.6342,2.7359e-05,0
5.6347,8.896e-06,0
5.6352,-5.0355e-06,0
5.6357,-1.1749e-06,0
5.6363,1.6281e-05,0
5.6368,3.6088e-05,0
5.6373,3.5416e-05,0
5.6378,2.8534e-06,0
5.6383,-4.1123e-05,0
5.6388,-7.57e-05,0
5.6394,-8.51e-05,0
5.6399,-6.479e-05,0
5.6404,-3.1388e-05,0
5.6409,1.1749e-06,0
5.6414,2.3667e-05,0
5.642,4.0787e-05,0
5.6425,5.5894e-05,0
5.643,6.8315e-05,0
5.6435,8.2414e-05,0
5.644,9.7856e-05,0
5.6446,0.00010356,0
5.6451,9.752e-05,0
5.6456,8.6778e-05,0
5.6461,7.2343e-05,0
5.6466,5.2705e-05,0
5.6472,3.0213e-05,0
5.6477,1.0071e-05,0
5.6482,-1.1078e-05,0
5.6487,-3.8773e-05,0
5.6492,-6.5293e-05,0
5.6498,-8.275e-05,0
5.6503,-8.3421e-05,0
5.6508,-7.0329e-05,0
