377.97,4.3809e-05,0
377.97,-4.5151e-05,0
377.97,-0.00010054,0
377.97,-7.2343e-05,0
377.97,-5.7069e-06,0
377.97,3.7766e-05,0
377.97,4.5487e-05,0
377.97,2.2324e-05,0
377.97,-2.7359e-05,0
377.97,-8.1071e-05,0
377.97,-9.7185e-05,0
377.97,-7.3854e-05,0
377.97,-4.5823e-05,0
377.97,-2.6017e-05,0
377.97,-5.2033e-06,0
377.97,1.4099e-05,0
377.97,1.5442e-05,0
377.97,8.3925e-07,0
377.97,-1.4267e-05,0
377.98,-8.2246e-06,0
377.98,2.6184e-05,0
377.98,6.63e-05,0
377.98,0.00010457,0
377.98,0.00014083,0
377.98,0.00016097,0
377.98,0.0001509,0
377.98,9.7185e-05,0
377.98,1.1246e-05,0
377.98,-6.3615e-05,0
377.98,-9.6849e-05,0
377.98,-9.3324e-05,0
377.98,-6.2272e-05,0
377.98,-2.7359e-05,0
377.98,-2.182e-05,0
377.98,-5.7069e-05,0
377.98,-9.8192e-05,0
377.98,-8.51e-05,0
377.98,-1.0071e-05,0
377.99,6.1265e-05,0
377.99,7.5532e-05,0
377.99,5.7069e-05,0
377.99,3.9948e-05,0
377.99,1.091e-05,0
377.99,-2.5681e-05,0
377.99,-3.2898e-05,0
377.99,-4.5319e-06,0
377.99,3.0381e-05,0
377.99,4.8173e-05,0
377.99,5.6397e-05,0
377.99,6.8818e-05,0
377.99,7.9728e-05,0
377.99,7.8721e-05,0
377.99,7.4357e-05,0
377.99,7.6204e-05,0
377.99,7.8218e-05,0
377.99,6.8986e-05,0
377.99,4.7501e-05,0
377.99,2.3499e-05,0
378,1.0239e-05,0
378,1.7792e-05,0
378,3.0381e-05,0
378,3.4073e-05,0
378,4.3473e-05,0
378,5.8915e-05,0
378,6.1601e-05,0
378,4.5487e-05,0
378,3.0045e-05,0
378,3.4409e-05,0
378,6.0929e-05,0
378,9.6513e-05,0
378,0.00011263,0
378,9.5171e-05,0
378,5.2201e-05,0
378,-4.5319e-06,0
378,-3.2731e-05,0
378,8.3925e-07,0
378,6.4286e-05,0
378.01,9.1814e-05,0
378.01,6.5293e-05,0
378.01,6.5461e-06,0
378.01,-6.8147e-05,0
378.01,-0.00010692,0
378.01,-9.0806e-05,0
378.01,-6.2943e-05,0
378.01,-2.7863e-05,0
378.01,1.4603e-05,0
378.01,4.2802e-05,0
378.01,5.2873e-05,0
378.01,7.0665e-05,0
378.01,0.00010491,0
378.01,0.00012924,0
378.01,0.00012522,0
378.01,9.6178e-05,0
378.01,4.7166e-05,0
378.01,-3.2731e-05,0
378.01,-0.00013227,0
378.02,-0.00017809,0
378.02,-0.00012773,0
378.02,-3.6088e-05,0
378.02,2.2324e-05,0
378.02,3.8773e-05,0
378.02,4.0787e-05,0
378.02,3.7766e-05,0
378.02,3.0381e-05,0
378.02,2.887e-05,0
378.02,2.7695e-05,0
378.02,1.9303e-05,0
378.02,1.9638e-05,0
378.02,3.2563e-05,0
378.02,4.4144e-05,0
378.02,4.1459e-05,0
378.02,1.9135e-05,0
378.02,-8.3925e-06,0
378.02,-1.0239e-05,0
378.02,1.5274e-05,0
378.02,3.9109e-05,0
378.03,4.448e-05,0
378.03,3.4409e-05,0
378.03,3.0381e-05,0
378.03,4.3305e-05,0
378.03,5.2873e-05,0
378.03,4.8173e-05,0
378.03,4.6159e-05,0
378.03,5.5558e-05,0
378.03,6.0929e-05,0
378.03,4.918e-05,0
378.03,3.5416e-05,0
378.03,3.122e-05,0
378.03,2.266e-05,0
378.03,-8.3925e-06,0
378.03,-5.2201e-05,0
378.03,-8.1071e-05,0
378.03,-8.1575e-05,0
378.03,-7.1e-05,0
378.03,-6.0258e-05,0
378.04,-3.8437e-05,0
378.04,-4.3641e-06,0
378.04,2.3331e-05,0
378.04,3.5752e-05,0
378.04,3.5752e-05,0
378.04,2.9038e-05,0
378.04,2.4002e-05,0
378.04,2.8534e-05,0
378.04,3.592e-05,0
378.04,4.1459e-05,0
378.04,4.5151e-05,0
378.04,4.7501e-05,0
378.04,4.6326e-05,0
378.04,4.1794e-05,0
378.04,3.4745e-05,0
378.04,2.652e-05,0
378.04,2.266e-05,0
378.04,2.3667e-05,0
378.04,2.7192e-05,0
378.05,3.0213e-05,0
378.05,2.8534e-05,0
378.05,2.4002e-05,0
378.05,2.2995e-05,0
378.05,2.6017e-05,0
378.05,2.8534e-05,0
378.05,2.5345e-05,0
378.05,2.0645e-05,0
378.05,2.031e-05,0
378.05,2.2324e-05,0
378.05,2.2995e-05,0
378.05,2.4674e-05,0
378.05,2.9374e-05,0
378.05,3.3906e-05,0
378.05,3.3738e-05,0
378.05,3.2059e-05,0
378.05,4.918e-05,0
378.05,8.51e-05,0
378.05,0.00011615,0
378.06,0.00012471,0
378.06,0.00011212,0
378.06,6.7979e-05,0
378.06,-3.122e-05,0
378.06,-0.00016886,0
378.06,-0.00022341,0
378.06,-0.00012706,0
378.06,1.9974e-05,0
378.06,9.6513e-05,0
378.06,9.752e-05,0
378.06,8.4428e-05,0
378.06,7.8553e-05,0
378.06,5.3376e-05,0
378.06,9.7353e-06,0
378.06,-2.8031e-05,0
378.06,-3.978e-05,0
378.06,-1.7456e-05,0
378.06,2.6017e-05,0
378.06,6.4286e-05,0
378.06,6.9993e-05,0
378.07,3.6088e-05,0
378.07,-9.7353e-06,0
378.07,-1.8967e-05,0
378.07,1.9638e-05,0
378.07,6.009e-05,0
378.07,5.7572e-05,0
378.07,3.7766e-05,0
378.07,3.3738e-05,0
378.07,3.0716e-05,0
378.07,-1.5106e-06,0
378.07,-3.7934e-05,0
378.07,-2.4002e-05,0
378.07,1.7121e-05,0
378.07,4.0116e-05,0
378.07,4.918e-05,0
378.07,5.2873e-05,0
378.07,4.1459e-05,0
378.07,1.6785e-06,0
378.07,-4.1459e-05,0
378.08,-4.5823e-05,0
378.08,-1.9303e-05,0
378.08,7.0497e-06,0
378.08,3.3066e-05,0
378.08,5.8747e-05,0
378.08,7.57e-05,0
378.08,7.9057e-05,0
378.08,6.5629e-05,0
378.08,3.743e-05,0
378.08,-5.0355e-06,0
378.08,-5.3376e-05,0
378.08,-6.949e-05,0
378.08,-3.3234e-05,0
378.08,2.0813e-05,0
378.08,5.0019e-05,0
378.08,5.069e-05,0
378.08,4.0955e-05,0
378.08,3.4745e-05,0
378.08,3.0381e-05,0
378.09,7.5532e-06,0
378.09,-3.1724e-05,0
378.09,-5.388e-05,0
378.09,-3.6423e-05,0
378.09,7.5532e-06,0
378.09,4.3977e-05,0
378.09,5.2201e-05,0
378.09,4.213e-05,0
378.09,2.9709e-05,0
378.09,2.0645e-05,0
378.09,1.9974e-05,0
378.09,2.5177e-05,0
378.09,2.9374e-05,0
378.09,2.3499e-05,0
378.09,1.5442e-05,0
378.09,2.1317e-05,0
378.09,3.9948e-05,0
378.09,5.5894e-05,0
378.09,6.1433e-05,0
378.1,6.0929e-05,0
378.1,6.009e-05,0
378.1,6.2943e-05,0
378.1,5.5894e-05,0
378.1,3.8437e-05,0
378.1,2.4338e-05,0
378.1,1.3092e-05,0
378.1,1.8463e-06,0
378.1,-1.3428e-06,0
378.1,9.5674e-06,0
378.1,1.8296e-05,0
378.1,1.0071e-06,0
378.1,-4.1123e-05,0
378.1,-6.865e-05,0
378.1,-4.7837e-05,0
378.1,1.0071e-06,0
378.1,3.3402e-05,0
378.1,4.1794e-05,0
378.1,3.9948e-05,0
378.1,3.5752e-05,0
378.11,3.3402e-05,0
378.11,3.3402e-05,0
378.11,3.6088e-05,0
378.11,3.743e-05,0
378.11,3.0045e-05,0
378.11,2.1653e-05,0
378.11,1.6281e-05,0
378.11,1.0575e-05,0
378.11,1.1582e-05,0
378.11,2.5177e-05,0
378.11,4.0955e-05,0
378.11,4.918e-05,0
378.11,5.4887e-05,0
378.11,5.1698e-05,0
378.11,1.8631e-05,0
378.11,-3.6591e-05,0
378.11,-7.0329e-05,0
378.11,-6.0929e-05,0
378.11,-2.2995e-05,0
378.12,1.3931e-05,0
378.12,2.8031e-05,0
378.12,2.5177e-05,0
378.12,1.9471e-05,0
378.12,6.2104e-06,0
378.12,-8.5603e-06,0
378.12,-8.3925e-07,0
378.12,2.0645e-05,0
378.12,3.3402e-05,0
378.12,3.6759e-05,0
378.12,3.508e-05,0
378.12,2.6352e-05,0
378.12,7.8889e-06,0
378.12,-8.3925e-06,0
378.12,-1.1582e-05,0
378.12,6.2104e-06,0
378.12,3.6088e-05,0
378.12,6.1936e-05,0
378.12,6.5629e-05,0
378.13,5.1865e-05,0
378.13,4.1123e-05,0
378.13,3.4745e-05,0
378.13,2.1317e-05,0
378.13,5.8747e-06,0
378.13,-3.1891e-06,0
378.13,1.0071e-06,0
378.13,1.6953e-05,0
378.13,3.2395e-05,0
378.13,4.3977e-05,0
378.13,5.2201e-05,0
378.13,5.5558e-05,0
378.13,5.8915e-05,0
378.13,6.5965e-05,0
378.13,8.1071e-05,0
378.13,0.00010021,0
378.13,0.00010188,0
378.13,7.9393e-05,0
378.13,4.4648e-05,0
378.13,2.5177e-06,0
378.14,-4.9851e-05,0
378.14,-9.9367e-05,0
378.14,-0.00011514,0
378.14,-8.275e-05,0
378.14,-2.7359e-05,0
378.14,1.4939e-05,0
378.14,2.8367e-05,0
378.14,2.3667e-05,0
378.14,2.3499e-05,0
378.14,4.2298e-05,0
378.14,6.9657e-05,0
378.14,8.4932e-05,0
378.14,8.3085e-05,0
378.14,6.0594e-05,0
378.14,2.3499e-05,0
378.14,-8.5603e-06,0
378.14,-2.417e-05,0
378.14,-1.2757e-05,0
378.14,5.2033e-06,0
378.15,-5.2033e-06,0
378.15,-2.4338e-05,0
378.15,-1.0071e-05,0
378.15,2.501e-05,0
378.15,4.6326e-05,0
378.15,4.6159e-05,0
378.15,3.9277e-05,0
378.15,3.4409e-05,0
378.15,3.3402e-05,0
378.15,3.3906e-05,0
378.15,3.0045e-05,0
378.15,2.1317e-05,0
378.15,1.3764e-05,0
378.15,1.1078e-05,0
378.15,1.0575e-05,0
378.15,8.2246e-06,0
378.15,3.0213e-06,0
378.15,-6.8818e-06,0
378.15,-1.8296e-05,0
378.16,-1.796e-05,0
378.16,2.182e-06,0
378.16,3.1724e-05,0
378.16,5.8244e-05,0
378.16,7.9393e-05,0
378.16,9.1142e-05,0
378.16,9.1142e-05,0
378.16,8.2078e-05,0
378.16,6.8482e-05,0
378.16,5.1698e-05,0
378.16,2.6184e-05,0
378.16,2.5177e-06,0
378.16,-4.5319e-06,0
378.16,-5.2033e-06,0
378.16,-1.8967e-05,0
378.16,-2.9877e-05,0
378.16,-1.3596e-05,0
378.16,2.4002e-05,0
378.16,5.1362e-05,0
378.17,5.623e-05,0
378.17,5.7908e-05,0
378.17,6.2272e-05,0
378.17,5.5222e-05,0
378.17,2.4674e-05,0
378.17,-2.1653e-05,0
378.17,-5.1865e-05,0
378.17,-4.8508e-05,0
378.17,-2.7024e-05,0
378.17,-5.2033e-06,0
378.17,4.5319e-06,0
378.17,4.5319e-06,0
378.17,3.0213e-06,0
378.17,3.357e-06,0
378.17,1.1749e-06,0
378.17,-4.0284e-06,0
378.17,-5.539e-06,0
378.17,1.8463e-06,0
378.17,1.0071e-05,0
378.18,1.3931e-05,0
378.18,1.6449e-05,0
378.18,2.1653e-05,0
378.18,2.5345e-05,0
378.18,2.7863e-05,0
378.18,2.9709e-05,0
378.18,3.1388e-05,0
378.18,3.2059e-05,0
378.18,3.4073e-05,0
378.18,3.4577e-05,0
378.18,3.3402e-05,0
378.18,2.8534e-05,0
378.18,2.3331e-05,0
378.18,1.9974e-05,0
378.18,1.8631e-05,0
378.18,2.1653e-05,0
378.18,3.0213e-05,0
378.18,3.9445e-05,0
378.18,4.3305e-05,0
378.18,3.8773e-05,0
378.19,2.6017e-05,0
378.19,8.896e-06,0
378.19,-7.8889e-06,0
378.19,-1.561e-05,0
378.19,-6.2104e-06,0
378.19,1.9303e-05,0
378.19,4.0452e-05,0
378.19,2.9038e-05,0
378.19,3.8605e-06,0
378.19,1.6785e-06,0
378.19,1.326e-05,0
378.19,5.8747e-06,0
378.19,-1.5778e-05,0
378.19,-2.3667e-05,0
378.19,-4.1962e-06,0
378.19,2.266e-05,0
378.19,3.8773e-05,0
378.19,4.7669e-05,0
378.19,5.9251e-05,0
378.2,7.0832e-05,0
378.2,7.57e-05,0
378.2,6.6636e-05,0
378.2,3.8773e-05,0
378.2,1.2589e-05,0
378.2,-5.7069e-06,0
378.2,-1.6281e-05,0
378.2,-1.0239e-05,0
378.2,6.714e-07,0
378.2,-1.4939e-05,0
378.2,-3.7095e-05,0
378.2,-2.4842e-05,0
378.2,3.0213e-06,0
378.2,1.6449e-05,0
378.2,2.0981e-05,0
378.2,2.9374e-05,0
378.2,3.7766e-05,0
378.2,3.9445e-05,0
378.2,3.3066e-05,0
378.21,1.9638e-05,0
378.21,1.1749e-05,0
378.21,1.7288e-05,0
378.21,1.8463e-05,0
378.21,1.5946e-05,0
378.21,2.8031e-05,0
378.21,5.2537e-05,0
378.21,7.2679e-05,0
378.21,7.9728e-05,0
378.21,7.5364e-05,0
378.21,6.2272e-05,0
378.21,4.6159e-05,0
378.21,2.5849e-05,0
378.21,-8.2246e-06,0
378.21,-2.9038e-05,0
378.21,-2.4674e-05,0
378.21,-2.0645e-05,0
378.21,-2.0142e-05,0
378.21,2.8534e-06,0
378.21,4.4144e-05,0
378.22,7.335e-05,0
378.22,8.04e-05,0
378.22,7.1504e-05,0
378.22,5.3544e-05,0
378.22,3.0381e-05,0
378.22,-6.714e-07,0
378.22,-3.6088e-05,0
378.22,-6.7979e-05,0
378.22,-7.0665e-05,0
378.22,-2.8031e-05,0
378.22,2.9709e-05,0
378.22,5.6901e-05,0
378.22,5.2201e-05,0
378.22,4.5151e-05,0
378.22,4.9516e-05,0
378.22,5.4215e-05,0
378.22,4.8173e-05,0
378.22,3.3234e-05,0
378.22,1.8631e-05,0
378.23,1.3092e-05,0
378.23,2.2324e-05,0
378.23,2.9038e-05,0
378.23,2.3163e-05,0
378.23,1.9303e-05,0
378.23,2.3331e-05,0
378.23,2.1317e-05,0
378.23,1.0071e-05,0
378.23,3.8605e-06,0
378.23,-2.0142e-06,0
378.23,-1.4939e-05,0
378.23,-1.7624e-05,0
378.23,-4.1962e-06,0
378.23,1.4435e-05,0
378.23,3.2059e-05,0
378.23,4.683e-05,0
378.23,5.5222e-05,0
378.23,5.7572e-05,0
378.23,5.3544e-05,0
378.24,5.069e-05,0
378.24,4.4144e-05,0
378.24,3.1388e-05,0
378.24,2.0142e-05,0
378.24,1.3931e-05,0
378.24,8.5603e-06,0
378.24,-3.357e-07,0
378.24,-7.2175e-06,0
378.24,-9.9031e-06,0
378.24,-6.3783e-06,0
378.24,8.3925e-07,0
378.24,1.2589e-05,0
378.24,2.8031e-05,0
378.24,3.8102e-05,0
378.24,3.5248e-05,0
378.24,1.9974e-05,0
378.24,3.1891e-06,0
378.24,-5.539e-06,0
378.24,-1.1582e-05,0
378.25,-1.6281e-05,0
378.25,-8.2246e-06,0
378.25,1.1917e-05,0
378.25,3.0549e-05,0
378.25,3.743e-05,0
378.25,3.5416e-05,0
378.25,3.4577e-05,0
378.25,3.743e-05,0
378.25,4.213e-05,0
378.25,4.2802e-05,0
378.25,4.1123e-05,0
378.25,3.743e-05,0
378.25,2.7695e-05,0
378.25,6.3783e-06,0
378.25,-1.9135e-05,0
378.25,-2.9709e-05,0
378.25,-1.8128e-05,0
378.25,-8.3925e-07,0
378.25,7.8889e-06,0
378.25,1.2589e-05,0
378.26,2.266e-05,0
378.26,3.592e-05,0
378.26,4.6159e-05,0
378.26,5.0019e-05,0
378.26,4.683e-05,0
378.26,3.9445e-05,0
378.26,2.7695e-05,0
378.26,1.0575e-05,0
378.26,-6.5461e-06,0
378.26,-9.5674e-06,0
378.26,9.5674e-06,0
378.26,3.5416e-05,0
378.26,5.153e-05,0
378.26,5.2033e-05,0
378.26,4.448e-05,0
378.26,4.5151e-05,0
378.26,5.388e-05,0
378.26,5.623e-05,0
378.26,3.3402e-05,0
378.27,-8.896e-06,0
378.27,-3.9445e-05,0
378.27,-4.448e-05,0
378.27,-2.031e-05,0
378.27,2.3667e-05,0
378.27,5.9419e-05,0
378.27,6.8986e-05,0
378.27,5.3208e-05,0
378.27,1.796e-05,0
378.27,-1.5946e-05,0
378.27,-1.9806e-05,0
378.27,2.5177e-06,0
378.27,2.6688e-05,0
378.27,3.7263e-05,0
378.27,3.6759e-05,0
378.27,3.0381e-05,0
378.27,2.8702e-05,0
378.27,4.062e-05,0
378.27,4.9516e-05,0
378.28,4.1459e-05,0
378.28,3.6088e-05,0
378.28,4.2298e-05,0
378.28,3.827e-05,0
378.28,1.4603e-05,0
378.28,-7.5532e-06,0
378.28,-8.896e-06,0
378.28,4.3641e-06,0
378.28,1.4267e-05,0
378.28,2.4338e-05,0
378.28,3.743e-05,0
378.28,4.5151e-05,0
378.28,3.8605e-05,0
378.28,1.3931e-05,0
378.28,-1.0071e-05,0
378.28,-8.5603e-06,0
378.28,2.0981e-05,0
378.28,4.683e-05,0
378.28,4.448e-05,0
378.29,2.7527e-05,0
378.29,1.326e-05,0
378.29,4.6998e-06,0
378.29,2.8534e-06,0
378.29,2.5177e-06,0
378.29,0,0
378.29,-3.8605e-06,0
378.29,-5.0355e-07,0
378.29,9.2317e-06,0
378.29,1.9974e-05,0
378.29,2.8367e-05,0
378.29,3.3738e-05,0
378.29,3.0045e-05,0
378.29,6.5461e-06,0
378.29,-2.5681e-05,0
378.29,-3.2059e-05,0
378.29,-5.8747e-06,0
378.29,2.6017e-05,0
378.29,4.1459e-05,0
378.29,4.3473e-05,0
378.3,3.8102e-05,0
378.3,3.4745e-05,0
378.3,3.8102e-05,0
378.3,4.5151e-05,0
378.3,5.0858e-05,0
378.3,5.4215e-05,0
378.3,5.1865e-05,0
378.3,4.5487e-05,0
378.3,3.6088e-05,0
378.3,2.6352e-05,0
378.3,1.4939e-05,0
378.3,-7.0497e-06,0
378.3,-3.0045e-05,0
378.3,-2.8702e-05,0
378.3,-1.091e-05,0
378.3,6.3783e-06,0
378.3,2.2324e-05,0
378.3,3.5416e-05,0
378.3,3.743e-05,0
378.31,3.1052e-05,0
378.31,2.6017e-05,0
378.31,2.1988e-05,0
378.31,1.2924e-05,0
378.31,-5.0355e-07,0
378.31,-1.1917e-05,0
378.31,-1.6617e-05,0
378.31,-1.3764e-05,0
378.31,-6.3783e-06,0
378.31,3.8605e-06,0
378.31,1.326e-05,0
378.31,1.7288e-05,0
378.31,1.9974e-05,0
378.31,2.8367e-05,0
378.31,4.1123e-05,0
378.31,5.3376e-05,0
378.31,6.3615e-05,0
378.31,6.4286e-05,0
378.31,4.1459e-05,0
378.32,2.6856e-06,0
378.32,-2.4002e-05,0
378.32,-3.4577e-05,0
378.32,-3.2059e-05,0
378.32,-8.896e-06,0
378.32,2.3835e-05,0
378.32,5.0019e-05,0
378.32,5.7908e-05,0
378.32,4.918e-05,0
378.32,3.6088e-05,0
378.32,2.4674e-05,0
378.32,1.0575e-05,0
378.32,-7.2175e-06,0
378.32,-1.6953e-05,0
378.32,-7.5532e-06,0
378.32,1.0575e-05,0
378.32,2.4002e-05,0
378.32,3.3066e-05,0
378.32,4.1794e-05,0
378.32,4.448e-05,0
378.33,3.8102e-05,0
378.33,2.8702e-05,0
378.33,2.2492e-05,0
378.33,2.5177e-05,0
378.33,2.7695e-05,0
378.33,3.0716e-05,0
378.33,4.0955e-05,0
378.33,3.8102e-05,0
378.33,9.5674e-06,0
378.33,-3.7766e-05,0
378.33,-8.2414e-05,0
378.33,-7.8386e-05,0
378.33,-1.8631e-05,0
378.33,4.1794e-05,0
378.33,6.5461e-05,0
378.33,6.5461e-05,0
378.33,6.3615e-05,0
378.33,6.4622e-05,0
378.33,6.3615e-05,0
378.34,5.8579e-05,0
378.34,5.153e-05,0
378.34,4.5487e-05,0
378.34,4.0116e-05,0
378.34,3.0213e-05,0
378.34,1.3764e-05,0
378.34,-5.7069e-06,0
378.34,-1.7456e-05,0
378.34,-1.8967e-05,0
378.34,-1.9135e-05,0
378.34,-1.4939e-05,0
378.34,0,0
378.34,2.0981e-05,0
378.34,3.9612e-05,0
378.34,4.8676e-05,0
378.34,4.683e-05,0
378.34,3.8437e-05,0
378.34,2.6017e-05,0
378.34,1.4603e-05,0
378.35,9.7353e-06,0
378.35,2.3163e-05,0
378.35,5.0187e-05,0
378.35,7.2343e-05,0
378.35,7.5029e-05,0
378.35,5.3208e-05,0
378.35,2.0645e-05,0
378.35,1.6785e-07,0
378.35,-2.6856e-06,0
378.35,8.2246e-06,0
378.35,2.501e-05,0
378.35,3.5416e-05,0
378.35,3.9109e-05,0
378.35,3.7934e-05,0
378.35,3.1388e-05,0
378.35,1.8631e-05,0
378.35,1.8463e-06,0
378.35,-4.1962e-06,0
378.35,4.6998e-06,0
378.36,1.4435e-05,0
378.36,1.6281e-05,0
378.36,1.0407e-05,0
378.36,3.8605e-06,0
378.36,8.3925e-06,0
378.36,2.0813e-05,0
378.36,3.1388e-05,0
378.36,3.9948e-05,0
378.36,4.448e-05,0
378.36,3.4913e-05,0
378.36,1.2589e-05,0
378.36,-1.5778e-05,0
378.36,-3.7095e-05,0
378.36,-3.6591e-05,0
378.36,-1.4267e-05,0
378.36,1.0239e-05,0
378.36,1.5442e-05,0
378.36,1.1246e-05,0
378.36,1.561e-05,0
378.37,2.9877e-05,0
378.37,4.4816e-05,0
378.37,5.2033e-05,0
378.37,4.8844e-05,0
378.37,3.9109e-05,0
378.37,2.5345e-05,0
378.37,1.8631e-05,0
378.37,2.3163e-05,0
378.37,3.1052e-05,0
378.37,3.0045e-05,0
378.37,2.182e-05,0
378.37,1.5946e-05,0
378.37,1.5778e-05,0
378.37,1.5442e-05,0
378.37,4.5319e-06,0
378.37,-1.7792e-05,0
378.37,-2.7863e-05,0
378.37,-1.9638e-05,0
378.37,-1.7288e-05,0
378.37,-2.9374e-05,0
378.38,-2.9206e-05,0
378.38,-4.8676e-06,0
378.38,2.8534e-05,0
378.38,5.2873e-05,0
378.38,6.009e-05,0
378.38,5.1865e-05,0
378.38,3.5752e-05,0
378.38,2.9206e-05,0
378.38,3.9109e-05,0
378.38,5.5726e-05,0
378.38,6.4622e-05,0
378.38,5.9586e-05,0
378.38,4.8844e-05,0
378.38,3.1388e-05,0
378.38,8.3925e-06,0
378.38,-4.1962e-06,0
378.38,5.539e-06,0
378.38,2.4674e-05,0
378.38,3.6088e-05,0
378.39,4.1459e-05,0
378.39,3.8102e-05,0
378.39,2.7192e-05,0
378.39,8.2246e-06,0
378.39,-1.2085e-05,0
378.39,-1.3931e-05,0
378.39,-4.6998e-06,0
378.39,5.0355e-07,0
378.39,4.5319e-06,0
378.39,1.4267e-05,0
378.39,2.652e-05,0
378.39,3.0716e-05,0
378.39,2.9374e-05,0
378.39,2.2995e-05,0
378.39,2.5177e-06,0
378.39,-1.9806e-05,0
378.39,-1.7792e-05,0
378.39,9.2317e-06,0
378.39,4.1123e-05,0
378.4,5.8579e-05,0
378.4,5.8412e-05,0
378.4,5.5222e-05,0
378.4,5.6901e-05,0
378.4,5.5726e-05,0
378.4,4.7501e-05,0
378.4,3.827e-05,0
378.4,3.0716e-05,0
378.4,1.7288e-05,0
378.4,1.8463e-06,0
378.4,3.357e-06,0
378.4,2.3331e-05,0
378.4,4.2466e-05,0
378.4,4.4144e-05,0
378.4,3.6759e-05,0
378.4,3.5416e-05,0
378.4,3.6759e-05,0
378.4,2.9709e-05,0
378.4,1.561e-05,0
378.4,-4.5319e-06,0
378.41,-3.2898e-05,0
378.41,-6.2943e-05,0
378.41,-6.5461e-05,0
378.41,-2.5849e-05,0
378.41,1.9135e-05,0
378.41,3.4745e-05,0
378.41,3.3402e-05,0
378.41,3.8102e-05,0
378.41,4.9348e-05,0
378.41,5.5558e-05,0
378.41,5.4887e-05,0
378.41,5.4887e-05,0
378.41,5.774e-05,0
378.41,5.153e-05,0
378.41,3.4073e-05,0
378.41,1.9806e-05,0
378.41,1.796e-05,0
378.41,1.5946e-05,0
378.41,-3.8605e-06,0
378.42,-3.357e-05,0
378.42,-4.2466e-05,0
378.42,-2.5345e-05,0
378.42,7.2175e-06,0
378.42,4.3809e-05,0
378.42,6.6468e-05,0
378.42,6.0761e-05,0
378.42,4.1291e-05,0
378.42,2.887e-05,0
378.42,2.1149e-05,0
378.42,1.2253e-05,0
378.42,8.5603e-06,0
378.42,7.8889e-06,0
378.42,1.3764e-05,0
378.42,2.2995e-05,0
378.42,2.4674e-05,0
378.42,1.8967e-05,0
378.42,9.2317e-06,0
378.42,-1.1749e-06,0
378.43,-8.2246e-06,0
378.43,-4.8676e-06,0
378.43,7.2175e-06,0
378.43,1.9806e-05,0
378.43,2.5681e-05,0
378.43,2.8702e-05,0
378.43,3.3234e-05,0
378.43,3.7263e-05,0
378.43,3.5416e-05,0
378.43,2.1988e-05,0
378.43,6.5461e-06,0
378.43,2.8534e-06,0
378.43,1.326e-05,0
378.43,3.0381e-05,0
378.43,3.9445e-05,0
378.43,3.6423e-05,0
378.43,2.8031e-05,0
378.43,1.9303e-05,0
378.43,1.8799e-05,0
378.44,3.0716e-05,0
378.44,5.153e-05,0
378.44,6.63e-05,0
378.44,6.4286e-05,0
378.44,5.069e-05,0
378.44,2.4842e-05,0
378.44,-2.0813e-05,0
378.44,-6.9322e-05,0
378.44,-8.896e-05,0
378.44,-6.4622e-05,0
378.44,-2.182e-05,0
378.44,8.7282e-06,0
378.44,2.5345e-05,0
378.44,3.7934e-05,0
378.44,4.4816e-05,0
378.44,4.1123e-05,0
378.44,3.2059e-05,0
378.44,2.6352e-05,0
378.44,2.9038e-05,0
378.44,3.4745e-05,0
378.45,3.5752e-05,0
378.45,3.3906e-05,0
378.45,3.3402e-05,0
378.45,3.508e-05,0
378.45,3.5248e-05,0
378.45,3.2395e-05,0
378.45,3.0381e-05,0
378.45,3.1388e-05,0
378.45,3.2059e-05,0
378.45,2.9374e-05,0
378.45,2.6688e-05,0
378.45,2.7359e-05,0
378.45,2.2492e-05,0
378.45,6.714e-06,0
378.45,-6.8818e-06,0
378.45,-1.4771e-05,0
378.45,-3.5584e-05,0
378.45,-5.1194e-05,0
378.45,-3.5416e-05,0
378.46,2.182e-06,0
378.46,3.6423e-05,0
378.46,5.0187e-05,0
378.46,4.6494e-05,0
378.46,3.6423e-05,0
378.46,2.9877e-05,0
378.46,2.8534e-05,0
378.46,2.6352e-05,0
378.46,2.1988e-05,0
378.46,2.2492e-05,0
378.46,2.6017e-05,0
378.46,2.887e-05,0
378.46,3.3402e-05,0
378.46,4.3641e-05,0
378.46,5.623e-05,0
378.46,6.7811e-05,0
378.46,6.865e-05,0
378.46,5.1865e-05,0
378.46,1.4939e-05,0
378.47,-4.3137e-05,0
378.47,-8.7953e-05,0
378.47,-7.4525e-05,0
378.47,-1.7624e-05,0
378.47,3.3066e-05,0
378.47,5.4719e-05,0
378.47,5.3208e-05,0
378.47,3.9109e-05,0
378.47,1.8967e-05,0
378.47,9.0639e-06,0
378.47,1.3931e-05,0
378.47,2.2156e-05,0
378.47,2.4674e-05,0
378.47,1.8799e-05,0
378.47,1.3596e-05,0
378.47,1.8967e-05,0
378.47,3.0381e-05,0
378.47,4.1123e-05,0
378.47,4.0116e-05,0
378.48,2.7863e-05,0
378.48,1.7121e-05,0
378.48,1.091e-05,0
378.48,3.6927e-06,0
378.48,-4.5319e-06,0
378.48,3.0213e-06,0
378.48,2.031e-05,0
378.48,2.8367e-05,0
378.48,3.3066e-05,0
378.48,4.4144e-05,0
378.48,5.7572e-05,0
378.48,5.8915e-05,0
378.48,5.388e-05,0
378.48,4.3305e-05,0
378.48,9.5674e-06,0
378.48,-3.5584e-05,0
378.48,-6.865e-05,0
378.48,-7.2007e-05,0
378.48,-4.0787e-05,0
378.49,1.0575e-05,0
378.49,5.7572e-05,0
378.49,8.1071e-05,0
378.49,8.275e-05,0
378.49,7.3854e-05,0
378.49,5.7237e-05,0
378.49,3.0381e-05,0
378.49,6.8818e-06,0
378.49,1.0239e-05,0
378.49,4.2634e-05,0
378.49,7.9057e-05,0
378.49,9.7185e-05,0
378.49,9.1814e-05,0
378.49,7.1e-05,0
378.49,3.9948e-05,0
378.49,-1.6785e-06,0
378.49,-4.3305e-05,0
378.49,-6.2608e-05,0
378.49,-4.7333e-05,0
378.49,-1.0239e-05,0
378.5,2.5681e-05,0
378.5,3.5248e-05,0
378.5,5.2033e-06,0
378.5,-3.978e-05,0
378.5,-4.7501e-05,0
378.5,-1.4603e-05,0
378.5,1.7121e-05,0
378.5,3.0045e-05,0
378.5,3.8941e-05,0
378.5,5.2873e-05,0
378.5,6.3111e-05,0
378.5,6.6468e-05,0
378.5,6.9322e-05,0
378.5,6.0594e-05,0
378.5,1.4435e-05,0
378.5,-5.5726e-05,0
378.5,-9.9535e-05,0
378.5,-7.2343e-05,0
378.5,4.5319e-06,0
378.51,6.7811e-05,0
378.51,8.0064e-05,0
378.51,5.8579e-05,0
378.51,4.3137e-05,0
378.51,3.6255e-05,0
378.51,2.8367e-05,0
378.51,2.1317e-05,0
378.51,2.1653e-05,0
378.51,2.3331e-05,0
378.51,2.1149e-05,0
378.51,2.031e-05,0
378.51,2.1317e-05,0
378.51,2.2492e-05,0
378.51,2.1653e-05,0
378.51,2.182e-05,0
378.51,2.5345e-05,0
378.51,3.2731e-05,0
378.51,3.743e-05,0
378.51,3.4745e-05,0
378.52,1.9638e-05,0
378.52,-3.5248e-06,0
378.52,-1.5442e-05,0
378.52,-1.091e-05,0
378.52,1.5274e-05,0
378.52,6.1769e-05,0
378.52,9.6849e-05,0
378.52,0.00010457,0
378.52,8.5435e-05,0
378.52,3.8605e-05,0
378.52,-2.5849e-05,0
378.52,-7.7546e-05,0
378.52,-8.1407e-05,0
378.52,-3.5584e-05,0
378.52,2.1149e-05,0
378.52,5.6901e-05,0
378.52,8.0735e-05,0
378.52,8.8792e-05,0
378.52,6.6972e-05,0
378.52,1.8967e-05,0
378.53,-4.1459e-05,0
378.53,-8.4764e-05,0
378.53,-7.9393e-05,0
378.53,-3.3738e-05,0
378.53,8.2246e-06,0
378.53,2.5345e-05,0
378.53,2.9374e-05,0
378.53,3.5584e-05,0
378.53,5.153e-05,0
378.53,6.8818e-05,0
378.53,7.2343e-05,0
378.53,6.5126e-05,0
378.53,5.2537e-05,0
378.53,4.7501e-05,0
378.53,5.0187e-05,0
378.53,5.0523e-05,0
378.53,4.6159e-05,0
378.53,3.8102e-05,0
378.53,2.6688e-05,0
378.54,1.1414e-05,0
378.54,-2.8534e-06,0
378.54,-1.0407e-05,0
378.54,-1.8463e-06,0
378.54,1.9303e-05,0
378.54,2.3331e-05,0
378.54,-8.3925e-07,0
378.54,-2.8702e-05,0
378.54,-3.1724e-05,0
378.54,-1.3596e-05,0
378.54,9.2317e-06,0
378.54,2.8199e-05,0
378.54,4.2298e-05,0
378.54,4.7333e-05,0
378.54,4.2802e-05,0
378.54,3.3738e-05,0
378.54,2.8031e-05,0
378.54,3.8773e-05,0
378.54,5.8915e-05,0
378.55,5.4551e-05,0
378.55,1.1078e-05,0
378.55,-4.2802e-05,0
378.55,-7.7546e-05,0
378.55,-8.1575e-05,0
378.55,-5.8747e-05,0
378.55,-1.6785e-05,0
378.55,3.0716e-05,0
378.55,6.244e-05,0
378.55,7.0497e-05,0
378.55,6.1936e-05,0
378.55,5.3376e-05,0
378.55,5.5894e-05,0
378.55,6.5965e-05,0
378.55,6.6636e-05,0
378.55,4.8676e-05,0
378.55,1.9974e-05,0
378.55,-1.8967e-05,0
378.55,-6.2272e-05,0
378.56,-8.426e-05,0
378.56,-7.4525e-05,0
378.56,-3.7263e-05,0
378.56,1.0071e-05,0
378.56,4.9012e-05,0
378.56,6.6804e-05,0
378.56,6.8986e-05,0
378.56,6.8986e-05,0
378.56,6.6636e-05,0
378.56,5.5558e-05,0
378.56,3.9109e-05,0
378.56,2.0478e-05,0
378.56,3.5248e-06,0
378.56,-1.6785e-07,0
378.56,1.0071e-05,0
378.56,2.4002e-05,0
378.56,3.3738e-05,0
378.56,3.1724e-05,0
378.56,1.4603e-05,0
378.56,-7.0497e-06,0
378.57,-1.8463e-05,0
378.57,-8.896e-06,0
378.57,1.0239e-05,0
378.57,2.2492e-05,0
378.57,2.6017e-05,0
378.57,2.0813e-05,0
378.57,7.5532e-06,0
378.57,-1.2421e-05,0
378.57,-2.652e-05,0
378.57,-1.3092e-05,0
378.57,1.7624e-05,0
378.57,3.0716e-05,0
378.57,1.7288e-05,0
378.57,1.091e-05,0
378.57,3.3066e-05,0
378.57,6.7643e-05,0
378.57,7.9561e-05,0
378.57,5.6565e-05,0
378.57,2.7359e-05,0
378.58,1.5778e-05,0
378.58,1.1749e-05,0
378.58,1.8463e-06,0
378.58,-1.9471e-05,0
378.58,-3.3066e-05,0
378.58,-1.4939e-05,0
378.58,1.9974e-05,0
378.58,4.7501e-05,0
378.58,6.3951e-05,0
378.58,7.3182e-05,0
378.58,7.2343e-05,0
378.58,5.1865e-05,0
378.58,2.4506e-05,0
378.58,1.4435e-05,0
378.58,1.7121e-05,0
378.58,1.9303e-05,0
378.58,1.9806e-05,0
378.58,2.1988e-05,0
378.58,3.0716e-05,0
378.59,4.1123e-05,0
378.59,4.7333e-05,0
378.59,4.918e-05,0
378.59,4.8676e-05,0
378.59,4.6159e-05,0
378.59,4.1459e-05,0
378.59,3.5248e-05,0
378.59,2.9374e-05,0
378.59,2.5177e-05,0
378.59,2.2324e-05,0
378.59,2.6688e-05,0
378.59,3.3402e-05,0
378.59,1.9303e-05,0
378.59,-2.266e-05,0
378.59,-5.5222e-05,0
378.59,-2.9206e-05,0
378.59,3.2395e-05,0
378.59,6.6972e-05,0
378.59,6.1601e-05,0
378.6,5.5894e-05,0
378.6,7.2343e-05,0
378.6,8.1407e-05,0
378.6,4.9851e-05,0
378.6,-1.5274e-05,0
378.6,-9.5506e-05,0
378.6,-0.00013864,0
378.6,-0.00010306,0
378.6,-3.1724e-05,0
378.6,3.2731e-05,0
378.6,7.1336e-05,0
378.6,7.4189e-05,0
378.6,5.7572e-05,0
378.6,4.213e-05,0
378.6,3.4577e-05,0
378.6,3.4073e-05,0
378.6,3.8437e-05,0
378.6,3.8437e-05,0
378.6,1.6449e-05,0
378.6,-1.2757e-05,0
378.61,-1.0239e-05,0
378.61,1.6617e-05,0
378.61,3.3402e-05,0
378.61,3.4745e-05,0
378.61,3.2059e-05,0
378.61,2.5345e-05,0
378.61,1.2757e-05,0
378.61,-6.8818e-06,0
378.61,-1.2589e-05,0
378.61,1.2253e-05,0
378.61,4.2802e-05,0
378.61,5.0858e-05,0
378.61,3.6759e-05,0
378.61,2.266e-05,0
378.61,1.6617e-05,0
378.61,8.3925e-06,0
378.61,-4.5319e-06,0
378.61,-3.0213e-06,0
378.61,2.4674e-05,0
378.62,5.6397e-05,0
378.62,7.1504e-05,0
378.62,7.0665e-05,0
378.62,6.3279e-05,0
378.62,5.5055e-05,0
378.62,4.1291e-05,0
378.62,2.5177e-05,0
378.62,1.9303e-05,0
378.62,1.9638e-05,0
378.62,9.7353e-06,0
378.62,-1.9974e-05,0
378.62,-5.1362e-05,0
378.62,-5.8244e-05,0
378.62,-3.8437e-05,0
378.62,-2.3499e-06,0
378.62,2.7024e-05,0
378.62,3.743e-05,0
378.62,3.5584e-05,0
378.62,2.7863e-05,0
378.63,1.5274e-05,0
378.63,2.8534e-06,0
378.63,-1.8463e-06,0
378.63,2.0142e-06,0
378.63,8.3925e-06,0
378.63,2.0142e-05,0
378.63,2.9374e-05,0
378.63,3.3066e-05,0
378.63,3.9948e-05,0
378.63,4.5487e-05,0
378.63,4.3641e-05,0
378.63,3.508e-05,0
378.63,1.796e-05,0
378.63,-1.4771e-05,0
378.63,-6.0929e-05,0
378.63,-8.2078e-05,0
378.63,-4.448e-05,0
378.63,2.2156e-05,0
378.63,6.0258e-05,0
378.63,5.5894e-05,0
378.64,3.4913e-05,0
378.64,2.3331e-05,0
378.64,2.5345e-05,0
378.64,3.3402e-05,0
378.64,4.1123e-05,0
378.64,5.0187e-05,0
378.64,6.5293e-05,0
378.64,8.1239e-05,0
378.64,8.3085e-05,0
378.64,6.1601e-05,0
378.64,3.122e-05,0
378.64,9.5674e-06,0
378.64,8.7282e-06,0
378.64,1.7288e-05,0
378.64,4.8676e-06,0
378.64,-3.2563e-05,0
378.64,-5.388e-05,0
378.64,-3.8605e-05,0
378.64,-8.5603e-06,0
378.65,2.6352e-05,0
378.65,5.2873e-05,0
378.65,5.8915e-05,0
378.65,4.3137e-05,0
378.65,1.7456e-05,0
378.65,-7.5532e-06,0
378.65,-2.5681e-05,0
378.65,-1.2924e-05,0
378.65,2.3835e-05,0
378.65,4.3977e-05,0
378.65,3.6423e-05,0
378.65,1.7121e-05,0
378.65,5.0355e-06,0
378.65,2.1317e-05,0
378.65,6.2943e-05,0
378.65,9.3156e-05,0
378.65,9.1814e-05,0
378.65,7.3686e-05,0
378.65,5.153e-05,0
378.66,2.0142e-05,0
378.66,-2.887e-05,0
378.66,-6.2608e-05,0
378.66,-4.8844e-05,0
378.66,-1.9303e-05,0
378.66,-2.3499e-06,0
378.66,1.8967e-05,0
378.66,3.8102e-05,0
378.66,3.3402e-05,0
378.66,2.0142e-06,0
378.66,-4.918e-05,0
378.66,-6.3615e-05,0
378.66,-1.4939e-05,0
378.66,5.1362e-05,0
378.66,8.4764e-05,0
378.66,7.9057e-05,0
378.66,5.7908e-05,0
378.66,3.9277e-05,0
378.66,3.0549e-05,0
378.67,3.0716e-05,0
378.67,3.1724e-05,0
378.67,2.8702e-05,0
378.67,2.0478e-05,0
378.67,1.3931e-05,0
378.67,1.8631e-05,0
378.67,3.2731e-05,0
378.67,4.448e-05,0
378.67,4.0116e-05,0
378.67,2.5681e-05,0
378.67,1.1078e-05,0
378.67,-2.8534e-06,0
378.67,-1.2253e-05,0
378.67,-1.1246e-05,0
378.67,3.357e-07,0
378.67,1.2589e-05,0
378.67,1.8631e-05,0
378.67,1.9638e-05,0
378.67,2.1149e-05,0
378.68,2.4674e-05,0
378.68,2.9038e-05,0
378.68,3.1724e-05,0
378.68,3.0381e-05,0
378.68,2.5681e-05,0
378.68,2.0645e-05,0
378.68,2.0478e-05,0
378.68,2.9709e-05,0
378.68,4.1459e-05,0
378.68,4.4984e-05,0
378.68,4.0452e-05,0
378.68,3.0549e-05,0
378.68,1.326e-05,0
378.68,-1.0407e-05,0
378.68,-3.1388e-05,0
378.68,-4.3977e-05,0
378.68,-4.6494e-05,0
378.68,-2.7695e-05,0
378.68,1.0239e-05,0
378.68,4.8676e-05,0
378.69,6.6972e-05,0
378.69,6.4118e-05,0
378.69,4.683e-05,0
378.69,2.0645e-05,0
378.69,9.5674e-06,0
378.69,2.6688e-05,0
378.69,5.153e-05,0
378.69,7.0161e-05,0
378.69,7.9561e-05,0
378.69,7.8386e-05,0
378.69,6.479e-05,0
378.69,3.8102e-05,0
378.69,1.0071e-06,0
378.69,-4.6326e-05,0
378.69,-0.00010642,0
378.69,-0.00014519,0
378.69,-0.0001091,0
378.69,-2.3667e-05,0
378.69,4.3305e-05,0
378.7,6.6636e-05,0
378.7,6.3615e-05,0
378.7,5.8412e-05,0
378.7,5.6901e-05,0
378.7,5.2201e-05,0
378.7,4.8508e-05,0
378.7,5.1194e-05,0
378.7,5.304e-05,0
378.7,5.069e-05,0
378.7,4.5487e-05,0
378.7,4.0116e-05,0
378.7,3.4745e-05,0
378.7,3.2731e-05,0
378.7,3.4241e-05,0
378.7,3.5584e-05,0
378.7,2.9374e-05,0
378.7,2.3835e-05,0
378.7,2.5177e-05,0
378.7,2.8702e-05,0
378.71,2.501e-05,0
378.71,1.6953e-05,0
378.71,2.0981e-05,0
378.71,2.652e-05,0
378.71,8.2246e-06,0
378.71,-2.7695e-05,0
378.71,-4.1794e-05,0
378.71,-4.3641e-06,0
378.71,5.8915e-05,0
378.71,9.6513e-05,0
378.71,8.4764e-05,0
378.71,4.0116e-05,0
378.71,-1.7624e-05,0
378.71,-9.2821e-05,0
378.71,-0.00015291,0
378.71,-0.00012471,0
378.71,-1.8631e-05,0
378.71,7.1e-05,0
378.71,9.0639e-05,0
378.71,6.5461e-05,0
378.72,3.9277e-05,0
378.72,2.7695e-05,0
378.72,2.0813e-05,0
378.72,1.9806e-05,0
378.72,2.7695e-05,0
378.72,4.0787e-05,0
378.72,5.2873e-05,0
378.72,5.2369e-05,0
378.72,3.3738e-05,0
378.72,2.8534e-06,0
378.72,-3.2731e-05,0
378.72,-5.388e-05,0
378.72,-4.3305e-05,0
378.72,-5.2033e-06,0
378.72,3.3402e-05,0
378.72,5.0355e-05,0
378.72,4.9516e-05,0
378.72,4.4816e-05,0
378.72,4.2802e-05,0
378.73,4.2466e-05,0
378.73,3.6591e-05,0
378.73,2.6688e-05,0
378.73,2.0981e-05,0
378.73,2.1988e-05,0
378.73,2.5345e-05,0
378.73,2.6688e-05,0
378.73,2.9374e-05,0
378.73,3.7263e-05,0
378.73,4.8173e-05,0
378.73,5.1362e-05,0
378.73,4.0787e-05,0
378.73,3.1052e-05,0
378.73,3.4409e-05,0
378.73,4.1794e-05,0
378.73,3.7766e-05,0
378.73,2.3499e-05,0
378.73,1.0575e-05,0
378.73,8.3925e-07,0
378.74,-1.8463e-05,0
378.74,-3.2395e-05,0
378.74,-1.1078e-05,0
378.74,3.6423e-05,0
378.74,7.5029e-05,0
378.74,9.2149e-05,0
378.74,9.0135e-05,0
378.74,6.7308e-05,0
378.74,1.4603e-05,0
378.74,-5.7237e-05,0
378.74,-9.987e-05,0
378.74,-8.4764e-05,0
378.74,-3.508e-05,0
378.74,1.091e-05,0
378.74,3.8102e-05,0
378.74,5.5558e-05,0
378.74,6.7475e-05,0
378.74,6.63e-05,0
378.74,5.5894e-05,0
378.75,4.2802e-05,0
378.75,2.266e-05,0
378.75,-1.1749e-06,0
378.75,-1.4267e-05,0
378.75,-7.0497e-06,0
378.75,1.4267e-05,0
378.75,2.7192e-05,0
378.75,2.4674e-05,0
378.75,1.7624e-05,0
378.75,1.5946e-05,0
378.75,1.8967e-05,0
378.75,2.2995e-05,0
378.75,2.501e-05,0
378.75,2.8031e-05,0
378.75,2.9709e-05,0
378.75,2.3835e-05,0
378.75,7.7211e-06,0
378.75,-1.561e-05,0
378.75,-2.9374e-05,0
378.75,-1.2253e-05,0
378.76,1.8296e-05,0
378.76,2.4674e-05,0
378.76,7.8889e-06,0
378.76,1.6785e-07,0
378.76,1.326e-05,0
378.76,2.6352e-05,0
378.76,2.2995e-05,0
378.76,2.0478e-05,0
378.76,3.3738e-05,0
378.76,4.8005e-05,0
378.76,5.0187e-05,0
378.76,4.5991e-05,0
378.76,4.5823e-05,0
378.76,5.2873e-05,0
378.76,6.3783e-05,0
378.76,7.7379e-05,0
378.76,8.9128e-05,0
378.76,8.8457e-05,0
378.76,7.0665e-05,0
378.77,3.9277e-05,0
378.77,-3.0213e-06,0
378.77,-5.4383e-05,0
378.77,-8.2918e-05,0
378.77,-7.57e-05,0
378.77,-4.5151e-05,0
378.77,1.1749e-06,0
378.77,3.3402e-05,0
378.77,3.0381e-05,0
378.77,1.1917e-05,0
378.77,4.0284e-06,0
378.77,2.8534e-06,0
378.77,5.2033e-06,0
378.77,1.2421e-05,0
378.77,2.0478e-05,0
378.77,3.0045e-05,0
378.77,4.0116e-05,0
378.77,4.448e-05,0
378.77,3.6088e-05,0
378.78,2.8199e-05,0
378.78,3.6591e-05,0
378.78,4.6662e-05,0
378.78,3.6759e-05,0
378.78,2.3667e-05,0
378.78,2.501e-05,0
378.78,2.8367e-05,0
378.78,2.2324e-05,0
378.78,1.2924e-05,0
378.78,5.0355e-06,0
378.78,-5.0355e-07,0
378.78,-5.0355e-07,0
378.78,4.8676e-06,0
378.78,1.0575e-05,0
378.78,1.091e-05,0
378.78,1.5274e-05,0
378.78,2.7527e-05,0
378.78,3.3402e-05,0
378.78,3.2395e-05,0
378.79,3.6759e-05,0
378.79,5.1194e-05,0
378.79,6.1097e-05,0
378.79,4.5991e-05,0
378.79,2.0142e-06,0
378.79,-5.153e-05,0
378.79,-7.1672e-05,0
378.79,-4.0787e-05,0
378.79,8.5603e-06,0
378.79,4.5151e-05,0
378.79,6.0929e-05,0
378.79,6.4286e-05,0
378.79,6.1097e-05,0
378.79,5.1865e-05,0
378.79,3.6423e-05,0
378.79,1.8296e-05,0
378.79,2.0142e-06,0
378.79,-7.0497e-06,0
378.79,-4.3641e-06,0
378.8,3.1891e-06,0
378.8,1.1917e-05,0
378.8,2.031e-05,0
378.8,2.266e-05,0
378.8,2.2995e-05,0
378.8,2.5345e-05,0
378.8,3.1724e-05,0
378.8,3.6423e-05,0
378.8,3.6088e-05,0
378.8,3.7766e-05,0
378.8,4.2802e-05,0
378.8,4.5487e-05,0
378.8,4.7501e-05,0
378.8,5.1026e-05,0
378.8,5.2705e-05,0
378.8,4.1794e-05,0
378.8,1.9806e-05,0
378.8,-5.0355e-07,0
378.8,-1.3596e-05,0
378.8,-1.2924e-05,0
378.81,-6.8818e-06,0
378.81,-5.539e-06,0
378.81,-1.4771e-05,0
378.81,-2.7192e-05,0
378.81,-1.9303e-05,0
378.81,1.326e-05,0
378.81,4.5151e-05,0
378.81,5.388e-05,0
378.81,4.3473e-05,0
378.81,2.0645e-05,0
378.81,-5.539e-06,0
378.81,-1.7624e-05,0
378.81,-8.5603e-06,0
378.81,1.1246e-05,0
378.81,3.0716e-05,0
378.81,4.2634e-05,0
378.81,4.4816e-05,0
378.81,4.062e-05,0
378.81,3.4577e-05,0
378.82,2.3835e-05,0
378.82,1.5106e-05,0
378.82,2.4506e-05,0
378.82,5.0858e-05,0
378.82,7.335e-05,0
378.82,7.6371e-05,0
378.82,6.1433e-05,0
378.82,4.1794e-05,0
378.82,1.7121e-05,0
378.82,-1.8296e-05,0
378.82,-4.5151e-05,0
378.82,-3.7263e-05,0
378.82,2.182e-06,0
378.82,4.213e-05,0
378.82,5.539e-05,0
378.82,3.9612e-05,0
378.82,9.0639e-06,0
378.82,-1.7456e-05,0
378.82,-3.9277e-05,0
378.83,-5.5558e-05,0
378.83,-4.3137e-05,0
378.83,4.1962e-06,0
378.83,4.213e-05,0
378.83,4.3473e-05,0
378.83,3.3234e-05,0
378.83,3.0045e-05,0
378.83,3.357e-05,0
378.83,4.0116e-05,0
378.83,4.5319e-05,0
378.83,4.2802e-05,0
378.83,2.8031e-05,0
378.83,6.8818e-06,0
378.83,-1.3428e-06,0
378.83,6.5461e-06,0
378.83,2.182e-05,0
378.83,3.6759e-05,0
378.83,4.3305e-05,0
378.83,3.8941e-05,0
378.83,3.2563e-05,0
378.84,2.9038e-05,0
378.84,3.0045e-05,0
378.84,3.978e-05,0
378.84,4.6159e-05,0
378.84,3.978e-05,0
378.84,2.7527e-05,0
378.84,2.3331e-05,0
378.84,2.4674e-05,0
378.84,2.4338e-05,0
378.84,1.9806e-05,0
378.84,1.4603e-05,0
378.84,8.3925e-07,0
378.84,-1.8296e-05,0
378.84,-3.2059e-05,0
378.84,-3.5416e-05,0
378.84,-2.1988e-05,0
378.84,3.8605e-06,0
378.84,3.6088e-05,0
378.84,6.3951e-05,0
378.85,7.2343e-05,0
378.85,5.5558e-05,0
378.85,2.9877e-05,0
378.85,1.4267e-05,0
378.85,1.4939e-05,0
378.85,2.5345e-05,0
378.85,3.743e-05,0
378.85,4.0787e-05,0
378.85,2.9038e-05,0
378.85,1.326e-05,0
378.85,1.091e-05,0
378.85,2.3667e-05,0
378.85,3.8437e-05,0
378.85,4.4648e-05,0
378.85,3.6927e-05,0
378.85,9.9031e-06,0
378.85,-3.5416e-05,0
378.85,-8.8289e-05,0
378.85,-0.00011313,0
378.86,-8.7114e-05,0
378.86,-2.8534e-05,0
378.86,2.7863e-05,0
378.86,5.4719e-05,0
378.86,5.4551e-05,0
378.86,4.3137e-05,0
378.86,3.508e-05,0
378.86,3.4241e-05,0
378.86,3.743e-05,0
378.86,4.448e-05,0
378.86,5.2873e-05,0
378.86,5.9419e-05,0
378.86,6.1097e-05,0
378.86,5.4887e-05,0
378.86,3.9445e-05,0
378.86,1.561e-05,0
378.86,-8.896e-06,0
378.86,-1.4267e-05,0
378.86,-4.1962e-06,0
378.87,7.5532e-06,0
378.87,7.7211e-06,0
378.87,-1.6785e-07,0
378.87,3.8605e-06,0
378.87,2.3331e-05,0
378.87,3.7766e-05,0
378.87,4.1123e-05,0
378.87,3.8102e-05,0
378.87,3.8773e-05,0
378.87,4.8844e-05,0
378.87,4.6494e-05,0
378.87,2.2995e-05,0
378.87,-1.091e-05,0
378.87,-4.7501e-05,0
378.87,-7.8721e-05,0
378.87,-7.9561e-05,0
378.87,-3.9948e-05,0
378.87,1.4435e-05,0
378.87,4.8508e-05,0
378.87,5.4215e-05,0
378.88,4.918e-05,0
378.88,5.0187e-05,0
378.88,5.8579e-05,0
378.88,6.5629e-05,0
378.88,6.7979e-05,0
378.88,6.6972e-05,0
378.88,5.3544e-05,0
378.88,1.9135e-05,0
378.88,-1.9303e-05,0
378.88,-2.1317e-05,0
378.88,8.5603e-06,0
378.88,3.4409e-05,0
378.88,4.2802e-05,0
378.88,3.592e-05,0
378.88,1.6617e-05,0
378.88,2.8534e-06,0
378.88,7.7211e-06,0
378.88,2.3331e-05,0
378.88,3.8437e-05,0
378.89,3.8605e-05,0
378.89,2.9374e-05,0
378.89,2.9038e-05,0
378.89,2.9709e-05,0
378.89,2.6688e-05,0
378.89,2.8367e-05,0
378.89,4.1459e-05,0
378.89,5.4551e-05,0
378.89,5.5894e-05,0
378.89,4.8508e-05,0
378.89,3.7934e-05,0
378.89,2.6017e-05,0
378.89,2.266e-05,0
378.89,2.8534e-05,0
378.89,3.3906e-05,0
378.89,2.9709e-05,0
378.89,6.8818e-06,0
378.89,-3.4577e-05,0
378.89,-5.7908e-05,0
378.9,-3.6088e-05,0
378.9,1.2589e-05,0
378.9,4.9851e-05,0
378.9,5.9586e-05,0
378.9,5.3376e-05,0
378.9,4.0452e-05,0
378.9,2.4842e-05,0
378.9,1.2924e-05,0
378.9,1.1078e-05,0
378.9,1.3596e-05,0
378.9,1.4939e-05,0
378.9,1.6449e-05,0
378.9,1.8463e-05,0
378.9,1.7792e-05,0
378.9,1.7288e-05,0
378.9,1.6449e-05,0
378.9,9.7353e-06,0
378.9,5.2033e-06,0
378.9,1.2085e-05,0
378.9,2.7863e-05,0
378.91,4.062e-05,0
378.91,4.4144e-05,0
378.91,4.3977e-05,0
378.91,4.3305e-05,0
378.91,4.4144e-05,0
378.91,4.1794e-05,0
378.91,3.2059e-05,0
378.91,9.2317e-06,0
378.91,-1.5442e-05,0
378.91,-2.1653e-05,0
378.91,-2.031e-05,0
378.91,-3.1052e-05,0
378.91,-4.5319e-05,0
378.91,-4.7669e-05,0
378.91,-2.4506e-05,0
378.91,1.3931e-05,0
378.91,4.0452e-05,0
378.91,4.7501e-05,0
378.91,4.5319e-05,0
378.92,4.1627e-05,0
378.92,3.9277e-05,0
378.92,3.9445e-05,0
378.92,4.062e-05,0
378.92,4.1794e-05,0
378.92,4.0452e-05,0
378.92,3.1724e-05,0
378.92,1.4939e-05,0
378.92,8.3925e-07,0
378.92,-6.0426e-06,0
378.92,-2.182e-05,0
378.92,-3.5752e-05,0
378.92,-1.1414e-05,0
378.92,3.0549e-05,0
378.92,4.4144e-05,0
378.92,3.4073e-05,0
378.92,2.501e-05,0
378.92,2.3163e-05,0
378.92,2.2492e-05,0
378.93,2.266e-05,0
378.93,2.4002e-05,0
378.93,2.4002e-05,0
378.93,2.1317e-05,0
378.93,2.1317e-05,0
378.93,2.7359e-05,0
378.93,3.1052e-05,0
378.93,2.7527e-05,0
378.93,2.2995e-05,0
378.93,2.2492e-05,0
378.93,2.2995e-05,0
378.93,1.9135e-05,0
378.93,1.9638e-05,0
378.93,3.1388e-05,0
378.93,4.6159e-05,0
378.93,5.9419e-05,0
378.93,6.4958e-05,0
378.93,5.6901e-05,0
378.93,3.9109e-05,0
378.94,1.7456e-05,0
378.94,-9.2317e-06,0
378.94,-3.0045e-05,0
378.94,-3.3906e-05,0
378.94,-2.4002e-05,0
378.94,-7.8889e-06,0
378.94,1.1582e-05,0
378.94,2.8031e-05,0
378.94,3.3066e-05,0
378.94,3.0549e-05,0
378.94,2.7359e-05,0
378.94,2.501e-05,0
378.94,2.4002e-05,0
378.94,2.4674e-05,0
378.94,1.6953e-05,0
378.94,1.8463e-06,0
378.94,-1.8463e-06,0
378.94,2.8534e-06,0
378.94,5.0355e-06,0
378.94,8.3925e-06,0
378.95,1.1917e-05,0
378.95,1.3092e-05,0
378.95,1.796e-05,0
378.95,3.0716e-05,0
378.95,3.4913e-05,0
378.95,1.5274e-05,0
378.95,-8.0568e-06,0
378.95,-9.9031e-06,0
378.95,4.5319e-06,0
378.95,2.3163e-05,0
378.95,3.3066e-05,0
378.95,3.4241e-05,0
378.95,3.6759e-05,0
378.95,3.9948e-05,0
378.95,3.9277e-05,0
378.95,3.6423e-05,0
378.95,3.2898e-05,0
378.95,2.6352e-05,0
378.95,1.3596e-05,0
378.96,1.6785e-06,0
378.96,3.8605e-06,0
378.96,2.182e-05,0
378.96,4.7501e-05,0
378.96,7.805e-05,0
378.96,0.00010457,0
378.96,0.00011128,0
378.96,9.601e-05,0
378.96,5.3544e-05,0
378.96,-1.9974e-05,0
378.96,-9.1478e-05,0
378.96,-0.00012035,0
378.96,-9.752e-05,0
378.96,-3.6423e-05,0
378.96,1.9974e-05,0
378.96,5.0355e-05,0
378.96,5.9419e-05,0
378.96,5.5558e-05,0
378.96,4.1459e-05,0
378.97,2.0813e-05,0
378.97,8.2246e-06,0
378.97,1.2085e-05,0
378.97,2.4002e-05,0
378.97,3.1891e-05,0
378.97,3.743e-05,0
378.97,4.1794e-05,0
378.97,4.3473e-05,0
378.97,4.213e-05,0
378.97,3.8102e-05,0
378.97,3.6088e-05,0
378.97,3.8102e-05,0
378.97,3.9109e-05,0
378.97,3.508e-05,0
378.97,2.5681e-05,0
378.97,1.4435e-05,0
378.97,-1.6785e-06,0
378.97,-2.6688e-05,0
378.97,-5.1194e-05,0
378.98,-5.3208e-05,0
378.98,-1.9806e-05,0
378.98,2.6017e-05,0
378.98,5.4887e-05,0
378.98,5.9754e-05,0
378.98,4.8173e-05,0
378.98,3.4577e-05,0
378.98,2.5177e-05,0
378.98,2.5681e-05,0
378.98,3.3066e-05,0
378.98,3.8605e-05,0
378.98,3.8102e-05,0
378.98,3.8102e-05,0
378.98,4.0284e-05,0
378.98,3.8773e-05,0
378.98,3.0716e-05,0
378.98,1.5106e-05,0
378.98,3.8605e-06,0
378.98,4.8676e-06,0
378.99,7.8889e-06,0
378.99,1.1246e-05,0
378.99,1.326e-05,0
378.99,1.5946e-05,0
378.99,2.1988e-05,0
378.99,1.9471e-05,0
378.99,1.6785e-06,0
378.99,-1.1246e-05,0
378.99,-6.5461e-06,0
378.99,2.8534e-06,0
378.99,1.3596e-05,0
378.99,2.7359e-05,0
378.99,3.743e-05,0
378.99,4.0452e-05,0
378.99,3.8773e-05,0
378.99,3.6088e-05,0
378.99,3.5416e-05,0
378.99,3.8605e-05,0
378.99,4.5319e-05,0
378.99,4.1459e-05,0
379,2.3331e-05,0
379,-1.8463e-06,0
379,-2.887e-05,0
379,-4.1794e-05,0
379,-2.1317e-05,0
379,2.5177e-05,0
379,6.4958e-05,0
379,7.6875e-05,0
379,6.4286e-05,0
379,4.2802e-05,0
379,2.1317e-05,0
379,1.8463e-06,0
379,-1.6449e-05,0
379,-2.7192e-05,0
379,-1.5946e-05,0
379,1.326e-05,0
379,3.743e-05,0
379,4.3641e-05,0
379,3.7095e-05,0
379.01,3.0381e-05,0
379.01,2.7024e-05,0
379.01,2.4002e-05,0
379.01,1.4603e-05,0
379.01,3.8605e-06,0
379.01,9.0639e-06,0
379.01,2.8702e-05,0
379.01,3.978e-05,0
379.01,2.9709e-05,0
379.01,3.5248e-06,0
379.01,-1.1582e-05,0
379.01,2.8534e-06,0
379.01,2.8031e-05,0
379.01,3.743e-05,0
379.01,3.2059e-05,0
379.01,3.0549e-05,0
379.01,4.1459e-05,0
379.01,5.4887e-05,0
379.01,5.9922e-05,0
379.02,5.9922e-05,0
379.02,5.153e-05,0
379.02,2.1317e-05,0
379.02,-2.5681e-05,0
379.02,-4.6326e-05,0
379.02,-2.5513e-05,0
379.02,6.0426e-06,0
379.02,2.2995e-05,0
379.02,2.7527e-05,0
379.02,2.7527e-05,0
379.02,1.8631e-05,0
379.02,1.6785e-06,0
379.02,-4.3641e-06,0
379.02,1.326e-05,0
379.02,3.5416e-05,0
379.02,4.1123e-05,0
379.02,3.2731e-05,0
379.02,2.0645e-05,0
379.02,3.8605e-06,0
379.02,-2.8534e-06,0
379.03,8.5603e-06,0
379.03,2.0645e-05,0
379.03,2.4674e-05,0
379.03,2.6352e-05,0
379.03,3.2731e-05,0
379.03,3.6927e-05,0
379.03,3.4745e-05,0
379.03,3.6423e-05,0
379.03,4.448e-05,0
379.03,4.9516e-05,0
379.03,4.3809e-05,0
379.03,2.5513e-05,0
379.03,-6.5461e-06,0
379.03,-3.5752e-05,0
379.03,-3.6423e-05,0
379.03,-2.2156e-05,0
379.03,-1.1917e-05,0
379.03,2.5177e-06,0
379.03,2.7863e-05,0
379.04,5.0523e-05,0
379.04,5.5558e-05,0
379.04,4.2634e-05,0
379.04,2.1653e-05,0
379.04,6.5461e-06,0
379.04,5.2033e-06,0
379.04,8.5603e-06,0
379.04,1.0407e-05,0
379.04,7.2175e-06,0
379.04,5.0355e-07,0
379.04,2.6856e-06,0
379.04,1.8296e-05,0
379.04,3.6088e-05,0
379.04,4.2466e-05,0
379.04,3.3906e-05,0
379.04,1.8631e-05,0
379.04,1.0407e-05,0
379.04,1.4435e-05,0
379.04,1.9974e-05,0
379.05,2.031e-05,0
379.05,1.5442e-05,0
379.05,1.4099e-05,0
379.05,1.9135e-05,0
379.05,2.7024e-05,0
379.05,3.5416e-05,0
379.05,2.7024e-05,0
379.05,7.0497e-06,0
379.05,5.2033e-06,0
379.05,1.5946e-05,0
379.05,1.5946e-05,0
379.05,5.539e-06,0
379.05,-3.357e-06,0
379.05,3.8605e-06,0
379.05,2.5345e-05,0
379.05,4.1962e-05,0
379.05,4.6662e-05,0
379.05,4.8173e-05,0
379.05,4.9851e-05,0
379.06,3.9948e-05,0
379.06,1.3596e-05,0
379.06,-2.2324e-05,0
379.06,-4.3809e-05,0
379.06,-3.0045e-05,0
379.06,1.1749e-06,0
379.06,2.9038e-05,0
379.06,4.6662e-05,0
379.06,5.3544e-05,0
379.06,5.153e-05,0
379.06,4.1459e-05,0
379.06,3.0716e-05,0
379.06,2.6352e-05,0
379.06,2.5681e-05,0
379.06,1.9638e-05,0
379.06,1.796e-05,0
379.06,2.6184e-05,0
379.06,2.652e-05,0
379.06,1.2757e-05,0
379.06,5.2033e-06,0
379.07,1.1917e-05,0
379.07,1.8463e-05,0
379.07,1.326e-05,0
379.07,2.8534e-06,0
379.07,-1.1749e-06,0
379.07,3.1891e-06,0
379.07,1.2757e-05,0
379.07,2.031e-05,0
379.07,2.3835e-05,0
379.07,2.3667e-05,0
379.07,1.4939e-05,0
379.07,8.3925e-07,0
379.07,1.0071e-06,0
379.07,1.8463e-05,0
379.07,3.1724e-05,0
379.07,3.1052e-05,0
379.07,2.266e-05,0
379.07,1.5946e-05,0
379.07,1.6617e-05,0
379.08,1.9303e-05,0
379.08,1.6617e-05,0
379.08,1.4435e-05,0
379.08,2.1988e-05,0
379.08,3.4745e-05,0
379.08,4.5319e-05,0
379.08,5.2705e-05,0
379.08,5.7404e-05,0
379.08,5.7404e-05,0
379.08,4.9348e-05,0
379.08,3.3738e-05,0
379.08,1.7624e-05,0
379.08,7.2175e-06,0
379.08,7.0497e-06,0
379.08,1.1246e-05,0
379.08,2.2324e-05,0
379.08,3.8102e-05,0
379.08,4.3809e-05,0
379.08,3.592e-05,0
379.09,2.4674e-05,0
379.09,1.6281e-05,0
379.09,1.1078e-05,0
379.09,6.0426e-06,0
379.09,2.5177e-06,0
379.09,7.8889e-06,0
379.09,1.8631e-05,0
379.09,2.5681e-05,0
379.09,2.5513e-05,0
379.09,2.5513e-05,0
379.09,3.0045e-05,0
379.09,4.1794e-05,0
379.09,5.4047e-05,0
379.09,5.3544e-05,0
379.09,4.1459e-05,0
379.09,2.8031e-05,0
379.09,1.9135e-05,0
379.09,9.7353e-06,0
379.09,2.0142e-06,0
379.1,3.1891e-06,0
379.1,7.2175e-06,0
379.1,4.5319e-06,0
379.1,-2.3499e-06,0
379.1,-3.8605e-06,0
379.1,9.0639e-06,0
379.1,2.6352e-05,0
379.1,3.8773e-05,0
379.1,4.8676e-05,0
379.1,4.683e-05,0
379.1,1.8799e-05,0
379.1,-2.4002e-05,0
379.1,-4.9348e-05,0
379.1,-3.8773e-05,0
379.1,-3.8605e-06,0
379.1,3.3066e-05,0
379.1,5.623e-05,0
379.1,6.3615e-05,0
379.1,6.009e-05,0
379.1,4.6998e-05,0
379.11,2.501e-05,0
379.11,2.5177e-06,0
379.11,-7.0497e-06,0
379.11,-1.1749e-06,0
379.11,5.0355e-06,0
379.11,3.0213e-06,0
379.11,1.8463e-06,0
379.11,1.2253e-05,0
379.11,3.3738e-05,0
379.11,5.4551e-05,0
379.11,6.1433e-05,0
379.11,5.2873e-05,0
379.11,3.2731e-05,0
379.11,-6.8818e-06,0
379.11,-5.6565e-05,0
379.11,-8.3421e-05,0
379.11,-6.6133e-05,0
379.11,-1.0575e-05,0
379.11,4.7333e-05,0
379.12,7.3014e-05,0
379.12,6.7979e-05,0
379.12,5.0858e-05,0
379.12,3.4745e-05,0
379.12,2.2324e-05,0
379.12,1.6617e-05,0
379.12,1.8296e-05,0
379.12,1.6449e-05,0
379.12,8.5603e-06,0
379.12,1.2253e-05,0
379.12,2.8199e-05,0
379.12,4.3137e-05,0
379.12,5.6901e-05,0
379.12,6.9657e-05,0
379.12,7.3014e-05,0
379.12,6.4286e-05,0
379.12,4.8173e-05,0
379.12,2.6688e-05,0
379.12,-1.0407e-05,0
379.13,-4.918e-05,0
379.13,-6.3615e-05,0
379.13,-7.2343e-05,0
379.13,-7.5532e-05,0
379.13,-4.0116e-05,0
379.13,1.9974e-05,0
379.13,5.6062e-05,0
379.13,5.5222e-05,0
379.13,4.4816e-05,0
379.13,4.1459e-05,0
379.13,4.213e-05,0
379.13,4.213e-05,0
379.13,4.3641e-05,0
379.13,4.6494e-05,0
379.13,4.7669e-05,0
379.13,4.4816e-05,0
379.13,3.3402e-05,0
379.13,1.1917e-05,0
379.13,-1.1414e-05,0
379.13,-2.6352e-05,0
379.14,-2.5177e-05,0
379.14,-6.5461e-06,0
379.14,2.1317e-05,0
379.14,4.0116e-05,0
379.14,3.9277e-05,0
379.14,3.122e-05,0
379.14,2.8534e-05,0
379.14,2.5681e-05,0
379.14,1.9135e-05,0
379.14,1.7624e-05,0
379.14,2.0645e-05,0
379.14,1.6281e-05,0
379.14,5.8747e-06,0
379.14,3.1891e-06,0
379.14,1.3092e-05,0
379.14,2.6688e-05,0
379.14,3.3066e-05,0
379.14,3.4745e-05,0
379.14,3.6759e-05,0
379.15,4.0787e-05,0
379.15,4.8005e-05,0
379.15,5.623e-05,0
379.15,6.3279e-05,0
379.15,6.865e-05,0
379.15,6.9657e-05,0
379.15,6.244e-05,0
379.15,4.9516e-05,0
379.15,3.4073e-05,0
379.15,7.8889e-06,0
379.15,-2.5345e-05,0
379.15,-3.978e-05,0
379.15,-3.3066e-05,0
379.15,-2.0981e-05,0
379.15,-1.2924e-05,0
379.15,-1.8463e-06,0
379.15,1.6281e-05,0
379.15,3.3906e-05,0
379.15,3.827e-05,0
379.16,2.501e-05,0
379.16,2.182e-06,0
379.16,-3.5584e-05,0
379.16,-7.3854e-05,0
379.16,-5.9922e-05,0
379.16,3.0213e-06,0
379.16,5.3544e-05,0
379.16,5.6565e-05,0
379.16,3.9948e-05,0
379.16,3.9109e-05,0
379.16,4.9851e-05,0
379.16,5.8244e-05,0
379.16,5.623e-05,0
379.16,3.3402e-05,0
379.16,-8.896e-06,0
379.16,-2.6017e-05,0
379.16,-4.5319e-06,0
379.16,1.9638e-05,0
379.16,2.9709e-05,0
379.17,3.2563e-05,0
379.17,3.4073e-05,0
379.17,3.4409e-05,0
379.17,3.3402e-05,0
379.17,2.9709e-05,0
379.17,2.1317e-05,0
379.17,1.4435e-05,0
379.17,1.8463e-05,0
379.17,3.0045e-05,0
379.17,4.7837e-05,0
379.17,7.6707e-05,0
379.17,0.00010541,0
379.17,0.00011984,0
379.17,0.00011128,0
379.17,7.5029e-05,0
379.17,5.8747e-06,0
379.17,-9.8024e-05,0
379.17,-0.00017675,0
379.17,-0.00015576,0
379.18,-4.8676e-05,0
379.18,6.1265e-05,0
379.18,0.00011296,0
379.18,0.00010709,0
379.18,7.0329e-05,0
379.18,3.5416e-05,0
379.18,1.8463e-05,0
379.18,1.2253e-05,0
379.18,1.2589e-05,0
379.18,2.2324e-05,0
379.18,3.4745e-05,0
379.18,4.1794e-05,0
379.18,4.0452e-05,0
379.18,3.6591e-05,0
379.18,3.1724e-05,0
379.18,2.4002e-05,0
379.18,2.1149e-05,0
379.18,2.2324e-05,0
379.18,2.4002e-05,0
379.18,1.8799e-05,0
379.19,1.8463e-06,0
379.19,-2.3163e-05,0
379.19,-3.3066e-05,0
379.19,-1.091e-05,0
379.19,3.2059e-05,0
379.19,7.1672e-05,0
379.19,8.7785e-05,0
379.19,7.0329e-05,0
379.19,1.0575e-05,0
379.19,-6.3111e-05,0
379.19,-9.6849e-05,0
379.19,-7.4022e-05,0
379.19,-1.4267e-05,0
379.19,5.0523e-05,0
379.19,9.3156e-05,0
379.19,0.00010188,0
379.19,7.8386e-05,0
379.19,2.9541e-05,0
379.19,-2.9709e-05,0
379.2,-6.7811e-05,0
379.2,-5.8915e-05,0
379.2,-1.1749e-05,0
379.2,3.8102e-05,0
379.2,6.1265e-05,0
379.2,5.7908e-05,0
379.2,4.5319e-05,0
379.2,4.8508e-05,0
379.2,7.6036e-05,0
379.2,0.00010726,0
379.2,0.00012438,0
379.2,0.00011901,0
379.2,7.57e-05,0
379.2,-2.0478e-05,0
379.2,-0.00013713,0
379.2,-0.00021653,0
379.2,-0.00022139,0
379.2,-0.00014653,0
379.2,-3.7766e-05,0
379.21,5.0187e-05,0
379.21,8.661e-05,0
379.21,8.1575e-05,0
379.21,6.9657e-05,0
379.21,7.0329e-05,0
379.21,7.0329e-05,0
379.21,6.0929e-05,0
379.21,4.7501e-05,0
379.21,2.652e-05,0
379.21,-3.0213e-06,0
379.21,-2.5177e-05,0
379.21,-3.1891e-05,0
379.21,-2.5681e-05,0
379.21,-1.2253e-05,0
379.21,-2.8534e-06,0
379.21,7.8889e-06,0
379.21,2.1988e-05,0
379.21,3.4745e-05,0
379.21,4.7333e-05,0
379.21,5.9586e-05,0
379.22,6.0761e-05,0
379.22,5.4215e-05,0
379.22,5.3544e-05,0
379.22,6.3279e-05,0
379.22,7.2679e-05,0
379.22,6.9657e-05,0
379.22,5.304e-05,0
379.22,3.743e-05,0
379.22,2.3331e-05,0
379.22,2.5177e-06,0
379.22,-1.4939e-05,0
379.22,-1.5106e-05,0
379.22,-3.357e-07,0
379.22,1.8967e-05,0
379.22,3.1388e-05,0
379.22,2.031e-05,0
379.22,-1.2589e-05,0
379.22,-4.1962e-05,0
379.22,-5.0523e-05,0
379.23,-3.2731e-05,0
379.23,1.1749e-05,0
379.23,5.9251e-05,0
379.23,7.7379e-05,0
379.23,6.63e-05,0
379.23,5.0858e-05,0
379.23,4.0116e-05,0
379.23,3.5416e-05,0
379.23,3.8773e-05,0
379.23,5.0858e-05,0
379.23,6.4622e-05,0
379.23,7.3686e-05,0
379.23,7.7379e-05,0
379.23,7.4022e-05,0
379.23,6.4286e-05,0
379.23,5.0858e-05,0
379.23,2.4002e-05,0
379.23,-2.182e-06,0
379.23,-1.4267e-05,0
379.24,-2.2995e-05,0
379.24,-4.6326e-05,0
379.24,-7.6371e-05,0
379.24,-7.4022e-05,0
379.24,-2.3835e-05,0
379.24,4.2802e-05,0
379.24,8.2078e-05,0
379.24,7.5029e-05,0
379.24,4.2802e-05,0
379.24,1.7624e-05,0
379.24,-1.5106e-06,0
379.24,-1.561e-05,0
379.24,-7.7211e-06,0
379.24,2.501e-05,0
379.24,5.8579e-05,0
379.24,6.8986e-05,0
379.24,6.3447e-05,0
379.24,5.9083e-05,0
379.24,4.213e-05,0
379.25,-1.6953e-05,0
379.25,-8.896e-05,0
379.25,-9.7856e-05,0
379.25,-2.7527e-05,0
379.25,5.4215e-05,0
379.25,9.5506e-05,0
379.25,9.9199e-05,0
379.25,7.9728e-05,0
379.25,3.1052e-05,0
379.25,-4.4144e-05,0
379.25,-0.00010407,0
379.25,-0.00010021,0
379.25,-4.2802e-05,0
379.25,1.4267e-05,0
379.25,4.918e-05,0
379.25,6.9657e-05,0
379.25,7.1336e-05,0
379.25,4.5151e-05,0
379.25,1.3764e-05,0
379.25,9.5674e-06,0
379.26,2.7359e-05,0
379.26,3.0381e-05,0
379.26,1.5946e-05,0
379.26,1.9471e-05,0
379.26,3.743e-05,0
379.26,4.448e-05,0
379.26,3.1556e-05,0
379.26,9.2317e-06,0
379.26,-1.3931e-05,0
379.26,-3.0884e-05,0
379.26,-2.9038e-05,0
379.26,-1.0407e-05,0
379.26,1.091e-05,0
379.26,3.2731e-05,0
379.26,4.2802e-05,0
379.26,2.8031e-05,0
379.26,-4.8676e-06,0
379.26,-2.2492e-05,0
379.26,6.5461e-06,0
379.27,6.0258e-05,0
379.27,9.3156e-05,0
379.27,8.8457e-05,0
379.27,4.7501e-05,0
379.27,8.3925e-07,0
379.27,-2.3499e-06,0
379.27,3.7263e-05,0
379.27,7.0329e-05,0
379.27,5.4887e-05,0
379.27,1.1749e-05,0
379.27,-1.2253e-05,0
379.27,-6.0426e-06,0
379.27,1.5442e-05,0
379.27,3.3906e-05,0
379.27,4.2802e-05,0
379.27,4.5823e-05,0
379.27,5.0187e-05,0
379.27,5.6733e-05,0
379.27,5.623e-05,0
379.28,5.3544e-05,0
379.28,5.0523e-05,0
379.28,2.8031e-05,0
379.28,3.1891e-06,0
379.28,7.0497e-06,0
379.28,2.0981e-05,0
379.28,1.4939e-05,0
379.28,-1.4939e-05,0
379.28,-4.4144e-05,0
379.28,-5.2201e-05,0
379.28,-4.5487e-05,0
379.28,-2.7359e-05,0
379.28,8.3925e-06,0
379.28,5.4887e-05,0
379.28,9.0135e-05,0
379.28,9.9199e-05,0
379.28,8.9464e-05,0
379.28,7.2343e-05,0
379.28,5.1865e-05,0
379.29,1.8967e-05,0
379.29,-2.6184e-05,0
379.29,-5.8412e-05,0
379.29,-5.0019e-05,0
379.29,-9.5674e-06,0
379.29,2.2156e-05,0
379.29,3.0716e-05,0
379.29,3.0716e-05,0
379.29,2.8534e-05,0
379.29,2.0981e-05,0
379.29,2.1317e-05,0
379.29,3.3402e-05,0
379.29,3.9109e-05,0
379.29,3.2395e-05,0
379.29,2.7359e-05,0
379.29,2.9877e-05,0
379.29,3.2563e-05,0
379.29,3.3738e-05,0
379.29,2.652e-05,0
379.3,2.8534e-06,0
379.3,-1.9135e-05,0
379.3,-1.1582e-05,0
379.3,2.9709e-05,0
379.3,6.7308e-05,0
379.3,7.1672e-05,0
379.3,4.5319e-05,0
379.3,1.6953e-05,0
379.3,-2.5177e-06,0
379.3,-2.3499e-05,0
379.3,-3.2395e-05,0
379.3,-1.4771e-05,0
379.3,1.3596e-05,0
379.3,2.8031e-05,0
379.3,2.5849e-05,0
379.3,1.7624e-05,0
379.3,1.5106e-06,0
379.3,-1.3764e-05,0
379.3,-1.1246e-05,0
379.3,1.3428e-06,0
379.31,8.5603e-06,0
379.31,7.0497e-06,0
379.31,1.1749e-06,0
379.31,-1.5106e-06,0
379.31,5.0355e-06,0
379.31,1.7288e-05,0
379.31,2.7695e-05,0
379.31,3.4409e-05,0
379.31,3.6759e-05,0
379.31,3.3402e-05,0
379.31,2.4002e-05,0
379.31,1.326e-05,0
379.31,1.091e-05,0
379.31,1.3931e-05,0
379.31,1.561e-05,0
379.31,2.501e-05,0
379.31,4.5823e-05,0
379.31,5.8915e-05,0
379.31,5.7572e-05,0
379.32,5.8915e-05,0
379.32,6.7979e-05,0
379.32,7.1336e-05,0
379.32,6.4286e-05,0
379.32,5.2873e-05,0
379.32,4.5823e-05,0
379.32,5.6901e-05,0
379.32,7.4357e-05,0
379.32,6.8315e-05,0
379.32,3.1052e-05,0
379.32,-1.2757e-05,0
379.32,-4.9851e-05,0
379.32,-7.5029e-05,0
379.32,-8.0064e-05,0
379.32,-4.3473e-05,0
379.32,2.9038e-05,0
379.32,8.7282e-05,0
379.32,9.8527e-05,0
379.32,7.3182e-05,0
379.33,4.3473e-05,0
379.33,3.2563e-05,0
379.33,3.3234e-05,0
379.33,3.6423e-05,0
379.33,3.7095e-05,0
379.33,2.7359e-05,0
379.33,2.0645e-05,0
379.33,2.0645e-05,0
379.33,-2.182e-06,0
379.33,-4.918e-05,0
379.33,-6.6636e-05,0
379.33,-3.508e-05,0
379.33,1.5106e-06,0
379.33,3.8605e-06,0
379.33,-2.8534e-05,0
379.33,-4.1291e-05,0
379.33,-4.5319e-06,0
379.33,3.4073e-05,0
379.33,4.0116e-05,0
379.33,3.122e-05,0
379.34,2.4002e-05,0
379.34,2.3331e-05,0
379.34,3.0213e-05,0
379.34,3.9445e-05,0
379.34,4.6159e-05,0
379.34,5.2537e-05,0
379.34,6.2608e-05,0
379.34,7.8889e-05,0
379.34,0.00010088,0
379.34,0.00011934,0
379.34,0.00011263,0
379.34,8.0735e-05,0
379.34,3.0381e-05,0
379.34,-4.3809e-05,0
379.34,-0.00011431,0
379.34,-0.00013663,0
379.34,-0.00011162,0
379.34,-6.0594e-05,0
379.34,-7.8889e-06,0
379.35,1.8296e-05,0
379.35,1.2589e-05,0
379.35,1.1749e-06,0
379.35,1.3428e-06,0
379.35,1.0239e-05,0
379.35,2.3499e-05,0
379.35,3.8773e-05,0
379.35,4.8173e-05,0
379.35,5.3544e-05,0
379.35,4.9516e-05,0
379.35,1.6281e-05,0
379.35,-4.2466e-05,0
379.35,-6.5965e-05,0
379.35,-1.2924e-05,0
379.35,6.4286e-05,0
379.35,9.5338e-05,0
379.35,7.5029e-05,0
379.35,4.1962e-05,0
379.35,2.3667e-05,0
379.36,2.2492e-05,0
379.36,2.3163e-05,0
379.36,2.6688e-05,0
379.36,4.2802e-05,0
379.36,5.8244e-05,0
379.36,5.3544e-05,0
379.36,2.9206e-05,0
379.36,1.1414e-05,0
379.36,3.5248e-06,0
379.36,-7.7211e-06,0
379.36,-5.2033e-06,0
379.36,2.2156e-05,0
379.36,4.8844e-05,0
379.36,5.623e-05,0
379.36,3.8941e-05,0
379.36,1.5274e-05,0
379.36,8.896e-06,0
379.36,1.6449e-05,0
379.36,2.266e-05,0
379.37,2.7024e-05,0
379.37,3.357e-05,0
379.37,3.3066e-05,0
379.37,2.9206e-05,0
379.37,2.8702e-05,0
379.37,2.2324e-05,0
379.37,-3.8605e-06,0
379.37,-3.4745e-05,0
379.37,-3.9109e-05,0
379.37,-1.9806e-05,0
379.37,1.1749e-06,0
379.37,1.6953e-05,0
379.37,2.4674e-05,0
379.37,2.7359e-05,0
379.37,3.3234e-05,0
379.37,3.9612e-05,0
379.37,4.448e-05,0
379.37,5.1865e-05,0
379.37,5.8747e-05,0
379.37,6.1265e-05,0
379.38,5.1194e-05,0
379.38,3.0716e-05,0
379.38,1.9638e-05,0
379.38,8.5603e-06,0
379.38,-1.4267e-05,0
379.38,-2.7695e-05,0
379.38,-2.3331e-05,0
379.38,-1.561e-05,0
379.38,-1.6617e-05,0
379.38,-2.182e-06,0
379.38,2.9374e-05,0
379.38,4.5823e-05,0
379.38,3.9277e-05,0
379.38,3.0213e-05,0
379.38,2.9709e-05,0
379.38,3.3066e-05,0
379.38,3.2059e-05,0
379.38,2.6352e-05,0
379.38,1.8631e-05,0
379.39,6.5461e-06,0
379.39,-2.8534e-06,0
379.39,5.2033e-06,0
379.39,1.3931e-05,0
379.39,5.0355e-06,0
379.39,-7.8889e-06,0
379.39,-5.0355e-06,0
379.39,1.1246e-05,0
379.39,3.6759e-05,0
379.39,6.3615e-05,0
379.39,7.4357e-05,0
379.39,6.2776e-05,0
379.39,3.4073e-05,0
379.39,2.0142e-06,0
379.39,-2.3667e-05,0
379.39,-3.743e-05,0
379.39,-3.1388e-05,0
379.39,-7.0497e-06,0
379.39,1.4435e-05,0
379.4,2.6688e-05,0
379.4,3.3738e-05,0
379.4,3.6759e-05,0
379.4,4.1962e-05,0
379.4,4.8844e-05,0
379.4,5.1865e-05,0
379.4,4.9516e-05,0
379.4,4.2802e-05,0
379.4,3.6088e-05,0
379.4,3.0549e-05,0
379.4,2.2324e-05,0
379.4,1.4603e-05,0
379.4,1.1917e-05,0
379.4,1.1749e-05,0
379.4,1.1246e-05,0
379.4,1.326e-05,0
379.4,1.8296e-05,0
379.4,2.2324e-05,0
379.4,2.3667e-05,0
379.4,2.4002e-05,0
379.41,2.501e-05,0
379.41,2.2492e-05,0
379.41,1.8967e-05,0
379.41,2.1988e-05,0
379.41,2.9374e-05,0
379.41,2.7863e-05,0
379.41,1.1749e-05,0
379.41,-4.5319e-06,0
379.41,-1.091e-05,0
379.41,-2.0478e-05,0
379.41,-3.2731e-05,0
379.41,-2.2324e-05,0
379.41,1.6617e-05,0
379.41,6.0426e-05,0
379.41,7.9728e-05,0
379.41,6.5965e-05,0
379.41,4.1794e-05,0
379.41,2.6017e-05,0
379.41,2.3163e-05,0
379.42,2.8534e-05,0
379.42,3.3906e-05,0
379.42,3.4745e-05,0
379.42,3.2059e-05,0
379.42,2.266e-05,0
379.42,9.0639e-06,0
379.42,1.8463e-06,0
379.42,-2.182e-06,0
379.42,-4.8676e-06,0
379.42,4.1962e-06,0
379.42,2.2995e-05,0
379.42,3.8102e-05,0
379.42,4.1459e-05,0
379.42,3.1388e-05,0
379.42,1.5778e-05,0
379.42,5.2033e-06,0
379.42,1.1414e-05,0
379.42,3.1891e-05,0
379.42,4.8173e-05,0
379.43,5.5894e-05,0
379.43,5.5894e-05,0
379.43,5.1865e-05,0
379.43,4.2802e-05,0
379.43,2.1317e-05,0
379.43,-1.0071e-05,0
379.43,-2.5849e-05,0
379.43,-1.4771e-05,0
379.43,2.5177e-06,0
379.43,3.5248e-06,0
379.43,-4.8676e-06,0
379.43,-4.5319e-06,0
379.43,7.5532e-06,0
379.43,1.9638e-05,0
379.43,1.4939e-05,0
379.43,-1.4603e-05,0
379.43,-4.9516e-05,0
379.43,-6.244e-05,0
379.43,-4.1459e-05,0
379.44,5.7069e-06,0
379.44,5.2201e-05,0
379.44,7.57e-05,0
379.44,7.8218e-05,0
379.44,7.0329e-05,0
379.44,5.8579e-05,0
379.44,4.6159e-05,0
379.44,3.6759e-05,0
379.44,2.9374e-05,0
379.44,2.9038e-05,0
379.44,3.6088e-05,0
379.44,4.6494e-05,0
379.44,5.7908e-05,0
379.44,7.2007e-05,0
379.44,8.5435e-05,0
379.44,8.9128e-05,0
379.44,7.0832e-05,0
379.44,4.062e-05,0
379.44,1.1582e-05,0
379.44,-3.7766e-05,0
379.45,-8.3757e-05,0
379.45,-7.2007e-05,0
379.45,-2.0645e-05,0
379.45,1.4603e-05,0
379.45,1.2924e-05,0
379.45,1.7288e-05,0
379.45,4.9851e-05,0
379.45,7.4693e-05,0
379.45,6.009e-05,0
379.45,1.4939e-05,0
379.45,-2.2324e-05,0
379.45,-2.7695e-05,0
379.45,-6.8818e-06,0
379.45,2.3331e-05,0
379.45,4.2466e-05,0
379.45,4.5151e-05,0
379.45,3.0045e-05,0
379.45,-5.539e-06,0
379.45,-4.8005e-05,0
379.46,-7.6539e-05,0
379.46,-6.5797e-05,0
379.46,-1.8799e-05,0
379.46,2.7863e-05,0
379.46,5.5558e-05,0
379.46,6.9993e-05,0
379.46,7.2343e-05,0
379.46,6.1601e-05,0
379.46,4.3473e-05,0
379.46,2.4002e-05,0
379.46,7.2175e-06,0
379.46,-5.8747e-06,0
379.46,-1.0071e-06,0
379.46,1.796e-05,0
379.46,2.501e-05,0
379.46,1.8296e-05,0
379.46,1.9974e-05,0
379.46,3.6088e-05,0
379.46,4.918e-05,0
379.47,5.0523e-05,0
379.47,4.5319e-05,0
379.47,3.8437e-05,0
379.47,3.2563e-05,0
379.47,2.9374e-05,0
379.47,3.3402e-05,0
379.47,4.1123e-05,0
379.47,4.4816e-05,0
379.47,3.8773e-05,0
379.47,2.4002e-05,0
379.47,1.2421e-05,0
379.47,6.0426e-06,0
379.47,-3.6927e-06,0
379.47,-1.3931e-05,0
379.47,-1.2757e-05,0
379.47,3.1891e-06,0
379.47,1.6785e-05,0
379.47,1.4267e-05,0
379.47,3.6927e-06,0
379.48,2.182e-06,0
379.48,7.2175e-06,0
379.48,1.2924e-05,0
379.48,2.3331e-05,0
379.48,3.5416e-05,0
379.48,4.0452e-05,0
379.48,3.8437e-05,0
379.48,3.592e-05,0
379.48,3.6927e-05,0
379.48,3.9948e-05,0
379.48,4.0452e-05,0
379.48,3.6927e-05,0
379.48,3.1052e-05,0
379.48,2.4002e-05,0
379.48,1.5274e-05,0
379.48,3.1891e-06,0
379.48,-9.7353e-06,0
379.48,-1.3092e-05,0
379.48,-2.5177e-06,0
379.49,9.3996e-06,0
379.49,6.8818e-06,0
379.49,-9.0639e-06,0
379.49,-2.1653e-05,0
379.49,-1.9974e-05,0
379.49,-1.0071e-05,0
379.49,4.0284e-06,0
379.49,1.8128e-05,0
379.49,2.7024e-05,0
379.49,3.3402e-05,0
379.49,3.4745e-05,0
379.49,3.1052e-05,0
379.49,2.6352e-05,0
379.49,2.7024e-05,0
379.49,3.6088e-05,0
379.49,4.5991e-05,0
379.49,4.9683e-05,0
379.49,5.1194e-05,0
379.49,5.4719e-05,0
379.49,6.4286e-05,0
379.5,7.7043e-05,0
379.5,8.275e-05,0
379.5,7.335e-05,0
379.5,5.3544e-05,0
379.5,2.9038e-05,0
379.5,-9.3996e-06,0
379.5,-5.5894e-05,0
379.5,-7.0832e-05,0
379.5,-3.9445e-05,0
379.5,6.2104e-06,0
379.5,3.5416e-05,0
379.5,4.4648e-05,0
379.5,4.0452e-05,0
379.5,3.0381e-05,0
379.5,2.3331e-05,0
379.5,2.5345e-05,0
379.5,3.3402e-05,0
379.5,4.0116e-05,0
379.5,4.062e-05,0
379.51,3.8605e-05,0
379.51,3.7095e-05,0
379.51,3.2059e-05,0
379.51,1.9974e-05,0
379.51,4.3641e-06,0
379.51,7.0497e-06,0
379.51,3.4745e-05,0
379.51,6.4958e-05,0
379.51,7.6371e-05,0
379.51,7.0832e-05,0
379.51,6.1265e-05,0
379.51,3.8773e-05,0
379.51,-1.4603e-05,0
379.51,-7.3854e-05,0
379.51,-0.00010272,0
379.51,-9.6178e-05,0
379.51,-6.4622e-05,0
379.51,-1.4603e-05,0
379.51,2.6017e-05,0
379.52,4.0787e-05,0
379.52,4.3641e-05,0
379.52,3.9277e-05,0
379.52,2.7024e-05,0
379.52,1.8631e-05,0
379.52,2.3667e-05,0
379.52,3.8941e-05,0
379.52,5.0523e-05,0
379.52,5.2873e-05,0
379.52,5.0019e-05,0
379.52,4.4144e-05,0
379.52,3.9948e-05,0
379.52,3.9612e-05,0
379.52,3.8102e-05,0
379.52,2.266e-05,0
379.52,-1.9974e-05,0
379.52,-7.2343e-05,0
379.52,-8.7282e-05,0
379.52,-5.0187e-05,0
379.52,2.8534e-06,0
379.53,3.7095e-05,0
379.53,4.7501e-05,0
379.53,4.918e-05,0
379.53,4.8173e-05,0
379.53,4.3473e-05,0
379.53,2.9374e-05,0
379.53,1.5106e-06,0
379.53,-3.0716e-05,0
379.53,-3.7766e-05,0
379.53,-1.7624e-05,0
379.53,-4.3641e-06,0
379.53,-7.7211e-06,0
379.53,-1.091e-05,0
379.53,2.182e-06,0
379.53,3.3738e-05,0
379.53,6.63e-05,0
379.53,8.3421e-05,0
379.53,8.3757e-05,0
379.53,7.3686e-05,0
379.54,6.1601e-05,0
379.54,5.0858e-05,0
379.54,4.7669e-05,0
379.54,4.683e-05,0
379.54,4.1459e-05,0
379.54,3.3402e-05,0
379.54,2.6688e-05,0
379.54,1.9974e-05,0
379.54,1.3596e-05,0
379.54,1.0239e-05,0
379.54,7.7211e-06,0
379.54,1.6785e-07,0
379.54,-1.1917e-05,0
379.54,-1.8296e-05,0
379.54,-1.4267e-05,0
379.54,-2.8534e-06,0
379.54,1.8631e-05,0
379.54,4.4144e-05,0
379.54,6.4286e-05,0
379.55,6.8818e-05,0
379.55,6.2776e-05,0
379.55,4.8844e-05,0
379.55,2.9709e-05,0
379.55,1.1749e-06,0
379.55,-2.9206e-05,0
379.55,-4.683e-05,0
379.55,-4.5319e-05,0
379.55,-1.796e-05,0
379.55,2.1317e-05,0
379.55,4.5319e-05,0
379.55,4.8676e-05,0
379.55,4.9348e-05,0
379.55,5.8244e-05,0
379.55,6.5965e-05,0
379.55,6.009e-05,0
379.55,3.743e-05,0
379.55,1.1917e-05,0
379.55,1.561e-05,0
379.56,5.2873e-05,0
379.56,9.0806e-05,0
379.56,8.1071e-05,0
379.56,1.5946e-05,0
379.56,-5.4047e-05,0
379.56,-9.752e-05,0
379.56,-0.00010491,0
379.56,-7.335e-05,0
379.56,-1.6617e-05,0
379.56,3.743e-05,0
379.56,5.9586e-05,0
379.56,5.8076e-05,0
379.56,4.8005e-05,0
379.56,2.0645e-05,0
379.56,-1.3764e-05,0
379.56,-2.7695e-05,0
379.56,-2.3667e-05,0
379.56,-9.5674e-06,0
379.56,2.182e-05,0
379.56,6.3951e-05,0
379.57,9.1142e-05,0
379.57,8.9464e-05,0
379.57,6.714e-05,0
379.57,3.6088e-05,0
379.57,1.0239e-05,0
379.57,1.2924e-05,0
379.57,4.4144e-05,0
379.57,6.7308e-05,0
379.57,5.8915e-05,0
379.57,3.4409e-05,0
379.57,1.7121e-05,0
379.57,3.357e-07,0
379.57,-2.9541e-05,0
379.57,-4.9012e-05,0
379.57,-1.8799e-05,0
379.57,3.8102e-05,0
379.57,6.63e-05,0
379.57,4.3473e-05,0
379.57,-8.0568e-06,0
379.58,-3.827e-05,0
379.58,-2.652e-05,0
379.58,1.0239e-05,0
379.58,4.6494e-05,0
379.58,5.8579e-05,0
379.58,4.6159e-05,0
379.58,3.3066e-05,0
379.58,2.1317e-05,0
379.58,2.5177e-06,0
379.58,-6.3783e-06,0
379.58,5.8747e-06,0
379.58,2.8367e-05,0
379.58,4.3137e-05,0
379.58,3.4745e-05,0
379.58,0,0
379.58,-3.8437e-05,0
379.58,-4.4144e-05,0
379.58,-2.0478e-05,0
379.58,7.8889e-06,0
379.59,3.7766e-05,0
379.59,6.244e-05,0
379.59,7.3518e-05,0
379.59,7.4357e-05,0
379.59,6.009e-05,0
379.59,2.1149e-05,0
379.59,-2.7024e-05,0
379.59,-5.0355e-05,0
379.59,-2.4842e-05,0
379.59,1.9638e-05,0
379.59,3.7095e-05,0
379.59,2.7359e-05,0
379.59,7.2175e-06,0
379.59,-1.4267e-05,0
379.59,-1.4603e-05,0
379.59,9.7353e-06,0
379.59,3.1388e-05,0
379.59,3.5752e-05,0
379.59,2.7024e-05,0
379.6,1.9303e-05,0
379.6,2.2995e-05,0
379.6,3.3738e-05,0
379.6,4.1291e-05,0
379.6,4.5151e-05,0
379.6,4.8173e-05,0
379.6,5.2201e-05,0
379.6,5.7237e-05,0
379.6,5.8915e-05,0
379.6,5.4215e-05,0
379.6,3.5416e-05,0
379.6,1.2085e-05,0
379.6,-8.5603e-06,0
379.6,-3.3738e-05,0
379.6,-4.8005e-05,0
379.6,-2.6017e-05,0
379.6,1.8631e-05,0
379.6,4.5487e-05,0
379.6,4.7166e-05,0
379.6,4.0452e-05,0
379.61,3.7263e-05,0
379.61,3.5248e-05,0
379.61,3.0045e-05,0
379.61,2.3331e-05,0
379.61,1.561e-05,0
379.61,1.091e-05,0
379.61,1.2924e-05,0
379.61,1.4603e-05,0
379.61,1.3931e-05,0
379.61,1.5274e-05,0
379.61,2.1317e-05,0
379.61,2.9374e-05,0
379.61,3.4409e-05,0
379.61,3.743e-05,0
379.61,3.743e-05,0
379.61,3.5248e-05,0
379.61,3.5248e-05,0
379.61,3.978e-05,0
379.61,4.5151e-05,0
379.62,5.069e-05,0
379.62,5.3544e-05,0
379.62,5.0523e-05,0
379.62,4.5823e-05,0
379.62,3.6088e-05,0
379.62,1.1917e-05,0
379.62,-1.796e-05,0
379.62,-2.501e-05,0
379.62,-3.5248e-06,0
379.62,2.501e-05,0
379.62,3.743e-05,0
379.62,2.501e-05,0
379.62,1.8463e-06,0
379.62,-9.2317e-06,0
379.62,-5.7069e-06,0
379.62,1.6785e-06,0
379.62,3.5248e-06,0
379.62,-3.6927e-06,0
379.62,-7.2175e-06,0
379.63,2.5177e-06,0
379.63,1.8296e-05,0
379.63,1.9974e-05,0
379.63,6.8818e-06,0
379.63,-3.1891e-06,0
379.63,-8.3925e-07,0
379.63,1.5946e-05,0
379.63,3.6759e-05,0
379.63,4.5151e-05,0
379.63,3.8102e-05,0
379.63,2.7695e-05,0
379.63,2.3499e-05,0
379.63,2.1149e-05,0
379.63,1.9806e-05,0
379.63,2.5681e-05,0
379.63,3.0045e-05,0
379.63,2.6184e-05,0
379.63,2.4842e-05,0
379.63,3.3234e-05,0
379.64,4.0787e-05,0
379.64,4.3137e-05,0
379.64,4.6159e-05,0
379.64,5.2201e-05,0
379.64,5.8915e-05,0
379.64,6.5126e-05,0
379.64,7.1336e-05,0
379.64,7.6371e-05,0
379.64,7.5029e-05,0
379.64,5.7908e-05,0
379.64,9.7353e-06,0
379.64,-5.3544e-05,0
379.64,-9.4163e-05,0
379.64,-9.8863e-05,0
379.64,-7.8721e-05,0
379.64,-4.3137e-05,0
379.64,2.5177e-06,0
379.64,3.978e-05,0
379.64,4.9851e-05,0
379.64,3.9277e-05,0
379.65,2.9877e-05,0
379.65,2.8031e-05,0
379.65,3.1052e-05,0
379.65,3.6759e-05,0
379.65,4.2802e-05,0
379.65,4.1459e-05,0
379.65,3.4745e-05,0
379.65,2.5345e-05,0
379.65,1.1246e-05,0
379.65,-1.8463e-06,0
379.65,-9.7353e-06,0
379.65,-1.1917e-05,0
379.65,3.357e-06,0
379.65,3.508e-05,0
379.65,5.8915e-05,0
379.65,5.7572e-05,0
379.65,3.8102e-05,0
379.65,7.8889e-06,0
379.65,-1.6617e-05,0
379.66,-2.1317e-05,0
379.66,-1.326e-05,0
379.66,1.1749e-06,0
379.66,1.3764e-05,0
379.66,1.9974e-05,0
379.66,2.5681e-05,0
379.66,3.0381e-05,0
379.66,3.3234e-05,0
379.66,3.0381e-05,0
379.66,2.6688e-05,0
379.66,2.4002e-05,0
379.66,2.031e-05,0
379.66,1.4771e-05,0
379.66,9.9031e-06,0
379.66,5.539e-06,0
379.66,3.1891e-06,0
379.66,1.326e-05,0
379.66,3.0716e-05,0
379.66,3.4577e-05,0
379.67,9.2317e-06,0
379.67,-2.8534e-05,0
379.67,-4.5823e-05,0
379.67,-3.3738e-05,0
379.67,-1.5442e-05,0
379.67,6.714e-07,0
379.67,2.1317e-05,0
379.67,3.8773e-05,0
379.67,3.9445e-05,0
379.67,2.501e-05,0
379.67,1.1414e-05,0
379.67,7.5532e-06,0
379.67,1.2253e-05,0
379.67,1.9303e-05,0
379.67,2.6688e-05,0
379.67,3.508e-05,0
379.67,4.2466e-05,0
379.67,4.4144e-05,0
379.67,4.1459e-05,0
379.68,3.6423e-05,0
379.68,3.2059e-05,0
379.68,2.9374e-05,0
379.68,2.9374e-05,0
379.68,3.2731e-05,0
379.68,3.3738e-05,0
379.68,3.0381e-05,0
379.68,2.7359e-05,0
379.68,2.7192e-05,0
379.68,2.8031e-05,0
379.68,3.0045e-05,0
379.68,3.3066e-05,0
379.68,3.6088e-05,0
379.68,3.6423e-05,0
379.68,3.7095e-05,0
379.68,3.6759e-05,0
379.68,3.3066e-05,0
379.68,2.4002e-05,0
379.68,9.2317e-06,0
379.68,-5.7069e-06,0
379.69,-7.0497e-06,0
379.69,1.0071e-05,0
379.69,3.7766e-05,0
379.69,6.0929e-05,0
379.69,7.0161e-05,0
379.69,6.8315e-05,0
379.69,5.9586e-05,0
379.69,4.5151e-05,0
379.69,2.9038e-05,0
379.69,1.5106e-05,0
379.69,6.714e-06,0
379.69,8.5603e-06,0
379.69,2.1317e-05,0
379.69,3.743e-05,0
379.69,4.3305e-05,0
379.69,3.7095e-05,0
379.69,2.7863e-05,0
379.69,1.4603e-05,0
379.69,-4.3641e-06,0
379.7,-2.6017e-05,0
379.7,-4.3137e-05,0
379.7,-3.2731e-05,0
379.7,3.357e-07,0
379.7,2.8199e-05,0
379.7,4.2802e-05,0
379.7,5.0858e-05,0
379.7,5.2201e-05,0
379.7,4.4312e-05,0
379.7,3.3738e-05,0
379.7,2.7359e-05,0
379.7,2.3667e-05,0
379.7,1.9974e-05,0
379.7,1.3596e-05,0
379.7,1.1246e-05,0
379.7,1.9974e-05,0
379.7,3.3738e-05,0
379.7,4.1794e-05,0
379.7,4.2634e-05,0
379.71,3.9948e-05,0
379.71,4.0116e-05,0
379.71,4.6159e-05,0
379.71,4.9683e-05,0
379.71,3.0381e-05,0
379.71,-2.0981e-05,0
379.71,-9.1981e-05,0
379.71,-0.00014083,0
379.71,-0.00012169,0
379.71,-4.7166e-05,0
379.71,2.2995e-05,0
379.71,5.4551e-05,0
379.71,5.8412e-05,0
379.71,5.4887e-05,0
379.71,5.0858e-05,0
379.71,4.2634e-05,0
379.71,3.122e-05,0
379.71,2.2828e-05,0
379.71,1.8967e-05,0
379.71,2.1988e-05,0
379.72,3.0716e-05,0
379.72,4.0116e-05,0
379.72,4.0116e-05,0
379.72,2.5177e-05,0
379.72,5.0355e-06,0
379.72,0,0
379.72,2.5177e-06,0
379.72,-3.0213e-06,0
379.72,-2.5177e-06,0
379.72,4.5319e-06,0
379.72,5.8747e-06,0
379.72,7.7211e-06,0
379.72,7.8889e-06,0
379.72,3.357e-07,0
379.72,-3.6927e-06,0
379.72,4.3641e-06,0
379.72,1.7121e-05,0
379.72,1.6281e-05,0
379.72,-1.1582e-05,0
379.73,-5.1194e-05,0
379.73,-6.0258e-05,0
379.73,-2.031e-05,0
379.73,3.4409e-05,0
379.73,6.3951e-05,0
379.73,6.2943e-05,0
379.73,4.9516e-05,0
379.73,3.978e-05,0
379.73,3.8773e-05,0
379.73,4.1291e-05,0
379.73,4.0787e-05,0
379.73,3.5416e-05,0
379.73,3.122e-05,0
379.73,3.7934e-05,0
379.73,5.0523e-05,0
379.73,5.6901e-05,0
379.73,5.7237e-05,0
379.73,5.304e-05,0
379.73,4.2802e-05,0
379.74,2.3331e-05,0
379.74,2.5177e-06,0
379.74,0,0
379.74,1.9638e-05,0
379.74,3.743e-05,0
379.74,3.8102e-05,0
379.74,1.7792e-05,0
379.74,-1.6953e-05,0
379.74,-3.6759e-05,0
379.74,-2.5345e-05,0
379.74,2.3499e-06,0
379.74,2.6352e-05,0
379.74,3.978e-05,0
379.74,4.1123e-05,0
379.74,2.6017e-05,0
379.74,5.0355e-06,0
379.74,-5.539e-06,0
379.74,3.357e-06,0
379.74,2.9877e-05,0
379.75,5.2537e-05,0
379.75,5.2705e-05,0
379.75,3.743e-05,0
379.75,2.4506e-05,0
379.75,1.8128e-05,0
379.75,8.2246e-06,0
379.75,-3.1891e-06,0
379.75,6.714e-07,0
379.75,2.1149e-05,0
379.75,3.8102e-05,0
379.75,4.1794e-05,0
379.75,3.5752e-05,0
379.75,2.9541e-05,0
379.75,2.9374e-05,0
379.75,3.1388e-05,0
379.75,3.0549e-05,0
379.75,3.0716e-05,0
379.75,2.9374e-05,0
379.75,2.3835e-05,0
379.75,1.0071e-05,0
379.76,-5.8747e-06,0
379.76,6.3783e-06,0
379.76,4.5487e-05,0
379.76,7.4189e-05,0
379.76,7.4693e-05,0
379.76,4.7501e-05,0
379.76,3.1891e-06,0
379.76,-3.2395e-05,0
379.76,-4.2466e-05,0
379.76,-1.5946e-05,0
379.76,2.5345e-05,0
379.76,4.6494e-05,0
379.76,4.1962e-05,0
379.76,3.0381e-05,0
379.76,3.0716e-05,0
379.76,4.4144e-05,0
379.76,5.6565e-05,0
379.76,5.9586e-05,0
379.76,5.9251e-05,0
379.77,6.3951e-05,0
379.77,6.63e-05,0
379.77,4.8005e-05,0
379.77,9.2317e-06,0
379.77,-3.0549e-05,0
379.77,-4.7669e-05,0
379.77,-6.2272e-05,0
379.77,-0.00010256,0
379.77,-0.00011128,0
379.77,-4.7166e-05,0
379.77,3.1724e-05,0
379.77,6.9322e-05,0
379.77,7.4693e-05,0
379.77,6.6804e-05,0
379.77,5.2201e-05,0
379.77,3.6591e-05,0
379.77,2.5849e-05,0
379.77,2.6184e-05,0
379.77,3.4577e-05,0
379.78,4.2466e-05,0
379.78,4.8005e-05,0
379.78,5.5222e-05,0
379.78,6.6133e-05,0
379.78,7.7043e-05,0
379.78,8.191e-05,0
379.78,8.0903e-05,0
379.78,7.3686e-05,0
379.78,5.9419e-05,0
379.78,3.743e-05,0
379.78,1.1582e-05,0
379.78,-1.3092e-05,0
379.78,-3.122e-05,0
379.78,-4.1459e-05,0
379.78,-4.8508e-05,0
379.78,-4.8508e-05,0
379.78,-3.6255e-05,0
379.78,-1.7288e-05,0
379.78,3.8605e-06,0
379.79,2.0981e-05,0
379.79,2.7359e-05,0
379.79,2.0645e-05,0
379.79,-1.5106e-06,0
379.79,-2.2324e-05,0
379.79,-3.743e-05,0
379.79,-4.0787e-05,0
379.79,-1.326e-05,0
379.79,2.9206e-05,0
379.79,4.4144e-05,0
379.79,3.3066e-05,0
379.79,2.1317e-05,0
379.79,1.8128e-05,0
379.79,1.326e-05,0
379.79,7.3854e-06,0
379.79,8.3925e-06,0
379.79,1.8967e-05,0
379.79,3.2059e-05,0
379.79,3.9109e-05,0
379.8,3.8941e-05,0
379.8,3.4073e-05,0
379.8,3.6759e-05,0
379.8,5.5894e-05,0
379.8,8.1743e-05,0
379.8,9.5171e-05,0
379.8,8.9799e-05,0
379.8,6.5965e-05,0
379.8,2.3667e-05,0
379.8,-2.9709e-05,0
379.8,-6.244e-05,0
379.8,-5.1865e-05,0
379.8,-1.4939e-05,0
379.8,1.8631e-05,0
379.8,3.4073e-05,0
379.8,3.4745e-05,0
379.8,3.122e-05,0
379.8,2.8702e-05,0
379.8,3.1052e-05,0
379.8,3.743e-05,0
379.81,4.1627e-05,0
379.81,3.8773e-05,0
379.81,2.7695e-05,0
379.81,6.714e-06,0
379.81,-2.0645e-05,0
379.81,-3.6591e-05,0
379.81,-2.266e-05,0
379.81,1.0239e-05,0
379.81,3.4073e-05,0
379.81,4.6159e-05,0
379.81,5.4887e-05,0
379.81,6.1936e-05,0
379.81,6.0761e-05,0
379.81,5.0187e-05,0
379.81,3.9948e-05,0
379.81,3.9277e-05,0
379.81,3.4745e-05,0
379.81,1.8296e-05,0
379.81,5.8747e-06,0
379.82,1.6785e-07,0
379.82,-9.5674e-06,0
379.82,-2.031e-05,0
379.82,-2.0981e-05,0
379.82,-7.5532e-06,0
379.82,7.5532e-06,0
379.82,1.091e-05,0
379.82,5.2033e-06,0
379.82,7.2175e-06,0
379.82,2.3163e-05,0
379.82,4.1291e-05,0
379.82,5.0187e-05,0
379.82,5.2033e-05,0
379.82,5.153e-05,0
379.82,4.0787e-05,0
379.82,1.2253e-05,0
379.82,-1.7624e-05,0
379.82,-1.2924e-05,0
379.82,1.9806e-05,0
379.83,3.8102e-05,0
379.83,1.9806e-05,0
379.83,-1.5274e-05,0
379.83,-2.9206e-05,0
379.83,-2.2324e-05,0
379.83,-7.2175e-06,0
379.83,2.0478e-05,0
379.83,4.5655e-05,0
379.83,4.8173e-05,0
379.83,3.2059e-05,0
379.83,2.0813e-05,0
379.83,2.8031e-05,0
379.83,4.3641e-05,0
379.83,4.8005e-05,0
379.83,3.9277e-05,0
379.83,2.8031e-05,0
379.83,2.2828e-05,0
379.83,2.5177e-05,0
379.83,2.5345e-05,0
379.83,7.5532e-06,0
379.84,-2.8367e-05,0
379.84,-5.7908e-05,0
379.84,-4.4144e-05,0
379.84,9.2317e-06,0
379.84,5.3544e-05,0
379.84,6.4286e-05,0
379.84,6.0929e-05,0
379.84,5.6901e-05,0
379.84,4.3473e-05,0
379.84,1.4099e-05,0
379.84,-1.1078e-05,0
379.84,-9.2317e-06,0
379.84,1.3092e-05,0
379.84,3.6759e-05,0
379.84,4.9516e-05,0
379.84,4.918e-05,0
379.84,4.1459e-05,0
379.84,3.5752e-05,0
379.84,3.3234e-05,0
379.85,3.3738e-05,0
379.85,3.6927e-05,0
379.85,4.0787e-05,0
379.85,4.213e-05,0
379.85,3.9445e-05,0
379.85,3.2059e-05,0
379.85,1.2589e-05,0
379.85,-1.1749e-05,0
379.85,-1.8463e-05,0
379.85,-9.7353e-06,0
379.85,5.0355e-06,0
379.85,2.5681e-05,0
379.85,4.6326e-05,0
379.85,5.5222e-05,0
379.85,5.0858e-05,0
379.85,4.1459e-05,0
379.85,3.4745e-05,0
379.85,2.9709e-05,0
379.85,2.3163e-05,0
379.86,1.1582e-05,0
379.86,-1.091e-05,0
379.86,-3.1891e-05,0
379.86,-3.508e-05,0
379.86,-1.8631e-05,0
379.86,7.3854e-06,0
379.86,3.0381e-05,0
379.86,3.8773e-05,0
379.86,2.9206e-05,0
379.86,1.5442e-05,0
379.86,1.1917e-05,0
379.86,1.4435e-05,0
379.86,1.5946e-05,0
379.86,1.9303e-05,0
379.86,2.7024e-05,0
379.86,4.0116e-05,0
379.86,5.5222e-05,0
379.86,5.9586e-05,0
379.86,5.3544e-05,0
379.87,4.5487e-05,0
379.87,3.508e-05,0
379.87,2.6017e-05,0
379.87,1.8631e-05,0
379.87,1.1246e-05,0
379.87,1.1246e-05,0
379.87,1.326e-05,0
379.87,8.5603e-06,0
379.87,1.6785e-06,0
379.87,-4.1962e-06,0
379.87,-1.091e-05,0
379.87,-1.9135e-05,0
379.87,-2.3667e-05,0
379.87,-2.0813e-05,0
379.87,-1.6617e-05,0
379.87,-1.5274e-05,0
379.87,-3.1891e-06,0
379.87,1.9638e-05,0
379.87,3.6088e-05,0
379.87,3.8437e-05,0
379.88,3.357e-05,0
379.88,3.5416e-05,0
379.88,4.5487e-05,0
379.88,5.2873e-05,0
379.88,4.9012e-05,0
379.88,3.6088e-05,0
379.88,2.266e-05,0
379.88,1.9806e-05,0
379.88,2.501e-05,0
379.88,2.6352e-05,0
379.88,2.2492e-05,0
379.88,2.4506e-05,0
379.88,3.7263e-05,0
379.88,5.1194e-05,0
379.88,5.2201e-05,0
379.88,4.0955e-05,0
379.88,2.7359e-05,0
379.88,7.3854e-06,0
379.88,-2.2995e-05,0
379.89,-4.1962e-05,0
379.89,-3.592e-05,0
379.89,-2.7359e-05,0
379.89,-2.5177e-05,0
379.89,-1.1917e-05,0
379.89,6.8818e-06,0
379.89,1.5274e-05,0
379.89,1.1749e-05,0
379.89,4.5319e-06,0
379.89,2.0142e-06,0
379.89,1.0575e-05,0
379.89,2.7527e-05,0
379.89,4.2466e-05,0
379.89,4.918e-05,0
379.89,5.1865e-05,0
379.89,5.2705e-05,0
379.89,4.9851e-05,0
379.89,4.2466e-05,0
379.89,3.743e-05,0
379.9,3.122e-05,0
379.9,2.1988e-05,0
379.9,1.326e-05,0
379.9,1.2421e-05,0
379.9,1.7288e-05,0
379.9,2.2995e-05,0
379.9,3.1556e-05,0
379.9,4.1459e-05,0
379.9,4.1459e-05,0
379.9,3.3234e-05,0
379.9,2.5849e-05,0
379.9,2.3835e-05,0
379.9,2.6688e-05,0
379.9,3.1724e-05,0
379.9,3.6423e-05,0
379.9,2.7359e-05,0
379.9,-1.8463e-06,0
379.9,-2.6352e-05,0
379.9,-1.6953e-05,0
379.91,1.2589e-05,0
379.91,3.0716e-05,0
379.91,4.8844e-05,0
379.91,7.2343e-05,0
379.91,8.2414e-05,0
379.91,7.3686e-05,0
379.91,5.8244e-05,0
379.91,4.8173e-05,0
379.91,4.2802e-05,0
379.91,3.5584e-05,0
379.91,1.5946e-05,0
379.91,-1.561e-05,0
379.91,-3.508e-05,0
379.91,-2.8367e-05,0
379.91,-1.2421e-05,0
379.91,-5.539e-06,0
379.91,-8.896e-06,0
379.91,-1.4099e-05,0
379.91,-1.2253e-05,0
379.91,-2.6856e-06,0
379.92,9.7353e-06,0
379.92,1.8631e-05,0
379.92,2.2995e-05,0
379.92,2.7192e-05,0
379.92,3.1052e-05,0
379.92,3.0381e-05,0
379.92,2.7695e-05,0
379.92,2.9206e-05,0
379.92,3.4577e-05,0
379.92,3.8102e-05,0
379.92,3.4409e-05,0
379.92,2.2324e-05,0
379.92,1.3931e-05,0
379.92,1.0575e-05,0
379.92,9.5674e-06,0
379.92,1.2924e-05,0
379.92,1.8631e-05,0
379.92,2.4506e-05,0
379.92,3.1388e-05,0
379.93,3.6591e-05,0
379.93,3.8605e-05,0
379.93,3.8773e-05,0
379.93,4.3473e-05,0
379.93,5.0858e-05,0
379.93,4.6662e-05,0
379.93,1.9303e-05,0
379.93,-2.0981e-05,0
379.93,-3.6759e-05,0
379.93,-2.5849e-05,0
379.93,-8.3925e-06,0
379.93,1.2757e-05,0
379.93,3.5752e-05,0
379.93,4.5487e-05,0
379.93,3.6759e-05,0
379.93,1.5946e-05,0
379.93,-5.539e-06,0
379.93,-1.0239e-05,0
379.93,1.5106e-06,0
379.94,1.3931e-05,0
379.94,1.9471e-05,0
379.94,1.7792e-05,0
379.94,1.5106e-05,0
379.94,1.4267e-05,0
379.94,1.2253e-05,0
379.94,9.7353e-06,0
379.94,9.3996e-06,0
379.94,7.5532e-06,0
379.94,4.5319e-06,0
379.94,6.0426e-06,0
379.94,1.3428e-05,0
379.94,2.5177e-05,0
379.94,3.592e-05,0
379.94,4.0955e-05,0
379.94,4.1123e-05,0
379.94,4.0452e-05,0
379.94,3.9109e-05,0
379.94,2.9038e-05,0
379.94,1.7288e-05,0
379.95,1.7624e-05,0
379.95,2.887e-05,0
379.95,3.3066e-05,0
379.95,2.3163e-05,0
379.95,1.8296e-05,0
379.95,2.4506e-05,0
379.95,2.1317e-05,0
379.95,6.8818e-06,0
379.95,-6.8818e-06,0
379.95,-1.0239e-05,0
379.95,3.5248e-06,0
379.95,1.796e-05,0
379.95,1.7121e-05,0
379.95,1.2085e-05,0
379.95,1.9303e-05,0
379.95,3.0549e-05,0
379.95,2.9374e-05,0
379.95,1.2924e-05,0
379.95,-1.6785e-07,0
379.96,8.3925e-06,0
379.96,3.1724e-05,0
379.96,5.0858e-05,0
379.96,5.623e-05,0
379.96,5.0355e-05,0
379.96,4.3305e-05,0
379.96,3.8773e-05,0
379.96,4.062e-05,0
379.96,5.6062e-05,0
379.96,7.4693e-05,0
379.96,8.2078e-05,0
379.96,6.6468e-05,0
379.96,1.9806e-05,0
379.96,-4.8173e-05,0
379.96,-0.00010524,0
379.96,-0.00011766,0
379.96,-8.3925e-05,0
379.96,-3.3402e-05,0
379.96,9.9031e-06,0
379.97,3.0716e-05,0
379.97,3.1556e-05,0
379.97,2.9374e-05,0
379.97,3.1724e-05,0
379.97,3.0716e-05,0
379.97,2.5177e-05,0
379.97,2.0981e-05,0
379.97,1.8967e-05,0
379.97,1.9806e-05,0
379.97,2.266e-05,0
379.97,2.652e-05,0
379.97,3.0381e-05,0
379.97,3.3402e-05,0
379.97,3.5416e-05,0
379.97,3.8437e-05,0
379.97,4.4144e-05,0
379.97,5.2873e-05,0
379.97,6.1601e-05,0
379.97,6.8986e-05,0
379.98,7.4357e-05,0
379.98,7.3686e-05,0
379.98,6.2104e-05,0
379.98,3.8437e-05,0
379.98,3.1891e-06,0
379.98,-3.5416e-05,0
379.98,-5.539e-05,0
379.98,-3.9612e-05,0
379.98,-8.896e-06,0
379.98,1.0575e-05,0
379.98,8.5603e-06,0
379.98,-1.1246e-05,0
379.98,-2.7024e-05,0
379.98,-1.6953e-05,0
379.98,9.3996e-06,0
379.98,3.0716e-05,0
379.98,3.9109e-05,0
379.98,3.9109e-05,0
379.98,3.7934e-05,0
379.99,3.6423e-05,0
379.99,3.743e-05,0
379.99,3.9109e-05,0
379.99,3.5416e-05,0
379.99,2.5681e-05,0
379.99,1.5946e-05,0
379.99,1.1582e-05,0
379.99,1.326e-05,0
379.99,1.561e-05,0
379.99,1.326e-05,0
379.99,4.5319e-06,0
379.99,-4.6998e-06,0
379.99,-7.0497e-06,0
379.99,-5.0355e-07,0
379.99,1.0071e-05,0
379.99,1.796e-05,0
379.99,1.9471e-05,0
379.99,1.6449e-05,0
379.99,1.5274e-05,0
379.99,1.5106e-05,0
380,1.0575e-05,0
380,7.7211e-06,0
380,9.7353e-06,0
380,1.2757e-05,0
380,2.031e-05,0
380,3.1724e-05,0
380,4.062e-05,0
380,4.2802e-05,0
380,3.9277e-05,0
380,3.5416e-05,0
380,3.4073e-05,0
380,3.4073e-05,0
380,3.357e-05,0
380,3.1052e-05,0
380,3.1052e-05,0
380,3.6759e-05,0
380,4.448e-05,0
380,4.5487e-05,0
380,3.9445e-05,0
380.01,2.9877e-05,0
380.01,2.031e-05,0
380.01,2.5177e-06,0
380.01,-1.5442e-05,0
380.01,-1.2085e-05,0
380.01,6.0426e-06,0
380.01,2.1653e-05,0
380.01,2.9709e-05,0
380.01,3.1388e-05,0
380.01,2.9374e-05,0
380.01,3.0716e-05,0
380.01,3.8102e-05,0
380.01,4.3977e-05,0
380.01,4.4984e-05,0
380.01,4.2298e-05,0
380.01,3.7263e-05,0
380.01,3.1052e-05,0
380.01,2.9038e-05,0
380.01,2.6688e-05,0
380.02,1.5946e-05,0
380.02,-1.5106e-06,0
380.02,-8.2246e-06,0
380.02,4.3641e-06,0
380.02,1.8967e-05,0
380.02,2.3331e-05,0
380.02,2.5681e-05,0
380.02,2.7527e-05,0
380.02,2.8367e-05,0
380.02,3.9109e-05,0
380.02,5.8915e-05,0
380.02,6.7979e-05,0
380.02,5.2201e-05,0
380.02,1.4603e-05,0
380.02,-2.2995e-05,0
380.02,-3.4073e-05,0
380.02,-2.0645e-05,0
380.02,-3.357e-07,0
380.02,1.796e-05,0
380.02,3.2059e-05,0
380.03,4.6326e-05,0
380.03,5.3544e-05,0
380.03,3.9445e-05,0
380.03,9.0639e-06,0
380.03,-1.2757e-05,0
380.03,-2.1317e-05,0
380.03,-2.8702e-05,0
380.03,-3.2563e-05,0
380.03,-2.1317e-05,0
380.03,4.8676e-06,0
380.03,3.2059e-05,0
380.03,4.7333e-05,0
380.03,4.918e-05,0
380.03,4.5151e-05,0
380.03,3.9277e-05,0
380.03,3.4073e-05,0
380.03,3.2395e-05,0
380.03,2.9206e-05,0
380.03,1.4267e-05,0
380.04,1.0071e-06,0
380.04,1.326e-05,0
380.04,3.6088e-05,0
380.04,4.448e-05,0
380.04,3.4409e-05,0
380.04,1.2085e-05,0
380.04,-3.357e-06,0
380.04,-1.2253e-05,0
380.04,-2.5849e-05,0
380.04,-3.1724e-05,0
380.04,-1.3931e-05,0
380.04,1.6785e-05,0
380.04,3.8437e-05,0
380.04,4.5151e-05,0
380.04,4.3977e-05,0
380.04,4.2466e-05,0
380.04,4.1794e-05,0
380.04,3.9277e-05,0
380.04,3.3234e-05,0
380.05,2.7695e-05,0
380.05,2.5681e-05,0
380.05,2.9038e-05,0
380.05,3.6759e-05,0
380.05,3.9445e-05,0
380.05,3.3738e-05,0
380.05,2.7527e-05,0
380.05,2.5345e-05,0
380.05,2.2324e-05,0
380.05,2.182e-06,0
380.05,-3.827e-05,0
380.05,-7.2007e-05,0
380.05,-6.9993e-05,0
380.05,-3.5416e-05,0
380.05,6.5461e-06,0
380.05,3.592e-05,0
380.05,4.6662e-05,0
380.05,4.3305e-05,0
380.05,3.7766e-05,0
380.06,3.3066e-05,0
380.06,2.7527e-05,0
380.06,2.3163e-05,0
380.06,2.182e-05,0
380.06,2.1988e-05,0
380.06,1.9806e-05,0
380.06,1.5946e-05,0
380.06,1.561e-05,0
380.06,1.6617e-05,0
380.06,2.0478e-05,0
380.06,2.9374e-05,0
380.06,3.8102e-05,0
380.06,4.0116e-05,0
380.06,3.4745e-05,0
380.06,2.7192e-05,0
380.06,2.2324e-05,0
380.06,1.6281e-05,0
380.06,6.2104e-06,0
380.06,1.1749e-06,0
380.06,1.3596e-05,0
380.07,4.1123e-05,0
380.07,6.1936e-05,0
380.07,5.7404e-05,0
380.07,3.8102e-05,0
380.07,2.3499e-05,0
380.07,2.501e-05,0
380.07,4.2466e-05,0
380.07,6.3951e-05,0
380.07,7.6707e-05,0
380.07,7.6036e-05,0
380.07,6.6972e-05,0
380.07,5.0187e-05,0
380.07,1.0575e-05,0
380.07,-3.6591e-05,0
380.07,-5.9419e-05,0
380.07,-4.7333e-05,0
380.07,-1.6449e-05,0
380.07,1.3931e-05,0
380.07,3.3738e-05,0
380.08,3.6759e-05,0
380.08,2.8534e-05,0
380.08,2.6688e-05,0
380.08,3.5752e-05,0
380.08,4.3809e-05,0
380.08,4.448e-05,0
380.08,4.683e-05,0
380.08,5.1698e-05,0
380.08,5.2873e-05,0
380.08,4.8844e-05,0
380.08,4.2802e-05,0
380.08,3.8941e-05,0
380.08,2.9374e-05,0
380.08,7.8889e-06,0
380.08,-1.9638e-05,0
380.08,-3.2395e-05,0
380.08,-2.0478e-05,0
380.08,-3.5248e-06,0
380.08,2.3499e-06,0
380.09,9.5674e-06,0
380.09,2.1317e-05,0
380.09,2.5345e-05,0
380.09,1.7288e-05,0
380.09,8.3925e-07,0
380.09,-2.031e-05,0
380.09,-4.1794e-05,0
380.09,-4.5823e-05,0
380.09,-3.1891e-05,0
380.09,-1.0239e-05,0
380.09,1.2421e-05,0
380.09,2.887e-05,0
380.09,3.6088e-05,0
380.09,4.0284e-05,0
380.09,4.0452e-05,0
380.09,3.5248e-05,0
380.09,2.8702e-05,0
380.09,1.5946e-05,0
380.09,-1.6785e-07,0
380.1,-2.0142e-06,0
380.1,1.4603e-05,0
380.1,3.2059e-05,0
380.1,4.2802e-05,0
380.1,5.7908e-05,0
380.1,6.5965e-05,0
380.1,5.5894e-05,0
380.1,2.7695e-05,0
380.1,-1.8296e-05,0
380.1,-6.1601e-05,0
380.1,-7.0329e-05,0
380.1,-3.7766e-05,0
380.1,4.8676e-06,0
380.1,2.7024e-05,0
380.1,2.9374e-05,0
380.1,2.3331e-05,0
380.1,1.8128e-05,0
380.1,2.0142e-05,0
380.1,2.7863e-05,0
380.11,3.3066e-05,0
380.11,3.4241e-05,0
380.11,3.5416e-05,0
380.11,3.7263e-05,0
380.11,3.8773e-05,0
380.11,4.1291e-05,0
380.11,4.1459e-05,0
380.11,3.6759e-05,0
380.11,3.4073e-05,0
380.11,3.7934e-05,0
380.11,4.1123e-05,0
380.11,3.4745e-05,0
380.11,2.9206e-05,0
380.11,3.3066e-05,0
380.11,3.2059e-05,0
380.11,1.7792e-05,0
380.11,2.8534e-06,0
380.11,-4.8676e-06,0
380.11,-4.0284e-06,0
380.11,6.3783e-06,0
380.12,1.8463e-05,0
380.12,2.7527e-05,0
380.12,2.8367e-05,0
380.12,1.6281e-05,0
380.12,2.182e-06,0
380.12,-3.1891e-06,0
380.12,-2.8534e-06,0
380.12,6.2104e-06,0
380.12,2.1988e-05,0
380.12,3.4073e-05,0
380.12,3.7095e-05,0
380.12,3.4241e-05,0
380.12,3.3066e-05,0
380.12,3.6255e-05,0
380.12,4.0452e-05,0
380.12,4.213e-05,0
380.12,3.8605e-05,0
380.12,3.2731e-05,0
380.12,3.1388e-05,0
380.13,3.2731e-05,0
380.13,2.4674e-05,0
380.13,6.714e-07,0
380.13,-2.417e-05,0
380.13,-3.1891e-05,0
380.13,-2.266e-05,0
380.13,-3.5248e-06,0
380.13,1.3092e-05,0
380.13,1.9974e-05,0
380.13,2.2324e-05,0
380.13,2.2156e-05,0
380.13,1.6617e-05,0
380.13,1.326e-05,0
380.13,2.1317e-05,0
380.13,3.8102e-05,0
380.13,4.8508e-05,0
380.13,5.069e-05,0
380.13,4.448e-05,0
380.13,2.7024e-05,0
380.14,6.8818e-06,0
380.14,1.0071e-06,0
380.14,1.326e-05,0
380.14,2.4338e-05,0
380.14,2.4002e-05,0
380.14,1.8463e-05,0
380.14,1.7624e-05,0
380.14,1.6449e-05,0
380.14,7.5532e-06,0
380.14,1.6785e-07,0
380.14,1.1749e-05,0
380.14,3.8773e-05,0
380.14,6.0929e-05,0
380.14,6.2272e-05,0
380.14,4.5823e-05,0
380.14,3.0716e-05,0
380.14,1.8631e-05,0
380.14,8.3925e-07,0
380.14,-2.1653e-05,0
380.14,-3.4409e-05,0
380.15,-2.7024e-05,0
380.15,-2.8534e-06,0
380.15,2.9709e-05,0
380.15,5.1194e-05,0
380.15,5.0187e-05,0
380.15,2.9541e-05,0
380.15,7.8889e-06,0
380.15,2.3499e-06,0
380.15,1.3596e-05,0
380.15,3.2395e-05,0
380.15,4.2466e-05,0
380.15,4.2802e-05,0
380.15,3.7095e-05,0
380.15,2.7695e-05,0
380.15,1.9471e-05,0
380.15,1.3596e-05,0
380.15,1.8631e-05,0
380.15,3.1724e-05,0
380.15,3.8437e-05,0
380.16,3.6423e-05,0
380.16,3.2731e-05,0
380.16,3.5248e-05,0
380.16,4.1123e-05,0
380.16,4.8508e-05,0
380.16,4.7333e-05,0
380.16,2.8702e-05,0
380.16,1.6785e-07,0
380.16,-2.8031e-05,0
380.16,-4.2298e-05,0
380.16,-1.7121e-05,0
380.16,3.4745e-05,0
380.16,7.57e-05,0
380.16,9.0471e-05,0
380.16,8.2918e-05,0
380.16,6.4958e-05,0
380.16,4.918e-05,0
380.16,2.9374e-05,0
380.16,-6.0426e-06,0
380.17,-5.388e-05,0
380.17,-7.2847e-05,0
380.17,-2.4674e-05,0
380.17,4.8844e-05,0
380.17,8.7785e-05,0
380.17,8.7449e-05,0
380.17,6.8986e-05,0
380.17,4.5655e-05,0
380.17,1.9974e-05,0
380.17,4.8676e-06,0
380.17,1.1414e-05,0
380.17,2.3667e-05,0
380.17,2.0645e-05,0
380.17,-3.1891e-06,0
380.17,-2.1317e-05,0
380.17,-1.1582e-05,0
380.17,8.2246e-06,0
380.17,8.7282e-06,0
380.17,-3.6927e-06,0
380.18,-1.2757e-05,0
380.18,-1.796e-05,0
380.18,-1.7792e-05,0
380.18,-1.2253e-05,0
380.18,-7.8889e-06,0
380.18,-8.3925e-06,0
380.18,-9.5674e-06,0
380.18,-7.0497e-06,0
380.18,6.8818e-06,0
380.18,2.9038e-05,0
380.18,4.4144e-05,0
380.18,4.5991e-05,0
380.18,4.1459e-05,0
380.18,3.4409e-05,0
380.18,1.3764e-05,0
380.18,-2.2828e-05,0
380.18,-5.6565e-05,0
380.18,-5.2705e-05,0
380.18,-6.5461e-06,0
380.18,4.213e-05,0
380.19,6.4286e-05,0
380.19,6.0258e-05,0
380.19,5.2201e-05,0
380.19,4.6662e-05,0
380.19,3.7766e-05,0
380.19,2.2156e-05,0
380.19,1.6449e-05,0
380.19,1.9638e-05,0
380.19,1.1582e-05,0
380.19,-3.357e-06,0
380.19,-2.5177e-06,0
380.19,9.5674e-06,0
380.19,1.326e-05,0
380.19,9.7353e-06,0
380.19,8.896e-06,0
380.19,1.3764e-05,0
380.19,2.501e-05,0
380.19,3.4577e-05,0
380.19,3.6591e-05,0
380.2,3.4409e-05,0
380.2,3.1388e-05,0
380.2,3.0045e-05,0
380.2,3.4409e-05,0
380.2,4.1794e-05,0
380.2,4.2802e-05,0
380.2,3.9445e-05,0
380.2,4.0116e-05,0
380.2,3.7766e-05,0
380.2,2.9709e-05,0
380.2,2.5177e-05,0
380.2,2.4338e-05,0
380.2,2.3163e-05,0
380.2,2.9038e-05,0
380.2,3.978e-05,0
380.2,4.0955e-05,0
380.2,3.2898e-05,0
380.2,2.9374e-05,0
380.2,3.3738e-05,0
380.21,3.6927e-05,0
380.21,3.4409e-05,0
380.21,3.2059e-05,0
380.21,3.2731e-05,0
380.21,3.3234e-05,0
380.21,2.1653e-05,0
380.21,-1.7624e-05,0
380.21,-6.4622e-05,0
380.21,-5.7908e-05,0
380.21,0,0
380.21,5.2537e-05,0
380.21,7.1e-05,0
380.21,6.5629e-05,0
380.21,5.4047e-05,0
380.21,4.1459e-05,0
380.21,3.0549e-05,0
380.21,2.3667e-05,0
380.21,2.4002e-05,0
380.21,3.4745e-05,0
380.22,4.8173e-05,0
380.22,4.6494e-05,0
380.22,2.6184e-05,0
380.22,1.1078e-05,0
380.22,1.3764e-05,0
380.22,1.796e-05,0
380.22,9.2317e-06,0
380.22,-1.6785e-06,0
380.22,-2.3499e-06,0
380.22,8.3925e-07,0
380.22,-1.1749e-06,0
380.22,-3.0213e-06,0
380.22,4.1962e-06,0
380.22,1.8631e-05,0
380.22,3.1556e-05,0
380.22,3.6759e-05,0
380.22,3.0716e-05,0
380.22,9.9031e-06,0
380.22,-2.031e-05,0
380.22,-3.2731e-05,0
380.23,-1.6449e-05,0
380.23,1.3596e-05,0
380.23,4.5487e-05,0
380.23,7.3686e-05,0
380.23,8.5771e-05,0
380.23,6.9322e-05,0
380.23,3.2059e-05,0
380.23,-7.5532e-06,0
380.23,-4.3809e-05,0
380.23,-6.0426e-05,0
380.23,-4.4816e-05,0
380.23,-1.6281e-05,0
380.23,-1.0071e-06,0
380.23,5.0355e-07,0
380.23,1.5106e-06,0
380.23,6.5461e-06,0
380.23,1.326e-05,0
380.23,1.6953e-05,0
380.23,1.7121e-05,0
380.24,1.6617e-05,0
380.24,1.796e-05,0
380.24,2.0142e-05,0
380.24,2.1653e-05,0
380.24,2.2324e-05,0
380.24,2.3331e-05,0
380.24,2.7863e-05,0
380.24,2.887e-05,0
380.24,2.7359e-05,0
380.24,2.7359e-05,0
380.24,2.9038e-05,0
380.24,3.3066e-05,0
380.24,4.1291e-05,0
380.24,4.8844e-05,0
380.24,5.0187e-05,0
380.24,4.2802e-05,0
380.24,2.3331e-05,0
380.24,-5.0355e-06,0
380.24,-1.326e-05,0
380.25,3.357e-07,0
380.25,1.7288e-05,0
380.25,2.9374e-05,0
380.25,3.6759e-05,0
380.25,3.9948e-05,0
380.25,4.1123e-05,0
380.25,4.0452e-05,0
380.25,3.7598e-05,0
380.25,3.4409e-05,0
380.25,3.4073e-05,0
380.25,3.7095e-05,0
380.25,3.592e-05,0
380.25,3.0716e-05,0
380.25,2.5681e-05,0
380.25,2.5177e-05,0
380.25,3.0716e-05,0
380.25,3.1724e-05,0
380.25,9.2317e-06,0
380.25,-3.508e-05,0
380.25,-5.388e-05,0
380.26,-2.1653e-05,0
380.26,2.9038e-05,0
380.26,6.244e-05,0
380.26,8.2078e-05,0
380.26,9.4835e-05,0
380.26,9.2485e-05,0
380.26,6.8986e-05,0
380.26,3.592e-05,0
380.26,3.0213e-06,0
380.26,-3.3402e-05,0
380.26,-6.0426e-05,0
380.26,-6.0258e-05,0
380.26,-2.8534e-05,0
380.26,2.2995e-05,0
380.26,6.5461e-05,0
380.26,7.3182e-05,0
380.26,5.2201e-05,0
380.26,2.9877e-05,0
380.26,2.031e-05,0
380.27,2.182e-05,0
380.27,2.8031e-05,0
380.27,2.9374e-05,0
380.27,2.1149e-05,0
380.27,1.091e-05,0
380.27,8.7282e-06,0
380.27,1.3764e-05,0
380.27,1.9471e-05,0
380.27,2.4506e-05,0
380.27,2.9374e-05,0
380.27,3.0549e-05,0
380.27,2.0981e-05,0
380.27,5.0355e-07,0
380.27,-2.7695e-05,0
380.27,-5.5222e-05,0
380.27,-6.7308e-05,0
380.27,-5.6565e-05,0
380.27,-3.1052e-05,0
380.27,4.6998e-06,0
380.28,3.4073e-05,0
380.28,3.9948e-05,0
380.28,2.7359e-05,0
380.28,2.501e-05,0
380.28,3.5752e-05,0
380.28,4.3137e-05,0
380.28,4.4984e-05,0
380.28,4.2802e-05,0
380.28,3.8941e-05,0
380.28,3.6927e-05,0
380.28,3.8102e-05,0
380.28,3.7095e-05,0
380.28,3.2059e-05,0
380.28,3.0045e-05,0
380.28,3.5416e-05,0
380.28,3.4745e-05,0
380.28,2.6688e-05,0
380.28,2.7527e-05,0
380.28,2.7527e-05,0
380.29,1.4771e-05,0
380.29,-3.357e-06,0
380.29,-1.5778e-05,0
380.29,-1.5778e-05,0
380.29,2.3499e-06,0
380.29,2.6688e-05,0
380.29,3.8437e-05,0
380.29,3.6759e-05,0
380.29,3.0045e-05,0
380.29,2.501e-05,0
380.29,2.3163e-05,0
380.29,2.5345e-05,0
380.29,3.0716e-05,0
380.29,3.4409e-05,0
380.29,3.0549e-05,0
380.29,1.6617e-05,0
380.29,-4.0284e-06,0
380.29,-1.6281e-05,0
380.29,-1.4099e-05,0
380.3,-1.2421e-05,0
380.3,-1.9974e-05,0
380.3,-1.9303e-05,0
380.3,1.1749e-06,0
380.3,2.9374e-05,0
380.3,4.6494e-05,0
380.3,4.9516e-05,0
380.3,4.7501e-05,0
380.3,4.683e-05,0
380.3,4.8005e-05,0
380.3,4.8173e-05,0
380.3,5.0858e-05,0
380.3,5.6062e-05,0
380.3,5.6901e-05,0
380.3,5.0858e-05,0
380.3,4.5151e-05,0
380.3,4.3473e-05,0
380.3,4.2298e-05,0
380.3,3.9445e-05,0
380.3,3.4073e-05,0
380.31,2.9709e-05,0
380.31,2.6688e-05,0
380.31,1.0239e-05,0
380.31,-1.8296e-05,0
380.31,-3.1891e-05,0
380.31,-2.3163e-05,0
380.31,-2.0981e-05,0
380.31,-3.6423e-05,0
380.31,-4.6662e-05,0
380.31,-2.3835e-05,0
380.31,5.2033e-06,0
380.31,1.2253e-05,0
380.31,1.4603e-05,0
380.31,1.3092e-05,0
380.31,-3.8605e-06,0
380.31,-1.5274e-05,0
380.31,-6.2104e-06,0
380.31,1.4771e-05,0
380.31,3.5248e-05,0
380.32,4.8844e-05,0
380.32,5.6565e-05,0
380.32,5.7404e-05,0
380.32,5.3544e-05,0
380.32,4.8005e-05,0
380.32,4.0116e-05,0
380.32,3.1052e-05,0
380.32,2.7024e-05,0
380.32,2.7695e-05,0
380.32,2.5345e-05,0
380.32,2.4674e-05,0
380.32,2.8534e-05,0
380.32,3.3234e-05,0
380.32,3.1388e-05,0
380.32,1.9303e-05,0
380.32,1.5106e-06,0
380.32,-1.1414e-05,0
380.32,-6.5461e-06,0
380.32,9.5674e-06,0
380.33,2.5177e-05,0
380.33,3.8102e-05,0
380.33,4.7837e-05,0
380.33,4.7501e-05,0
380.33,3.9445e-05,0
380.33,3.3234e-05,0
380.33,3.1052e-05,0
380.33,2.7192e-05,0
380.33,1.9638e-05,0
380.33,1.5274e-05,0
380.33,2.3331e-05,0
380.33,3.5584e-05,0
380.33,3.8437e-05,0
380.33,3.6423e-05,0
380.33,3.743e-05,0
380.33,3.5248e-05,0
380.33,1.9303e-05,0
380.33,-2.8534e-06,0
380.33,-1.2421e-05,0
380.33,-5.8747e-06,0
380.34,-1.1749e-06,0
380.34,-1.8463e-06,0
380.34,3.6927e-06,0
380.34,2.031e-05,0
380.34,4.1627e-05,0
380.34,4.9348e-05,0
380.34,3.6591e-05,0
380.34,2.0645e-05,0
380.34,1.4939e-05,0
380.34,1.4435e-05,0
380.34,1.2253e-05,0
380.34,8.5603e-06,0
380.34,5.3712e-06,0
380.34,9.2317e-06,0
380.34,1.8296e-05,0
380.34,2.3331e-05,0
380.34,1.9974e-05,0
380.34,1.7624e-05,0
380.34,2.0981e-05,0
380.35,2.3667e-05,0
380.35,2.0645e-05,0
380.35,1.3092e-05,0
380.35,5.0355e-06,0
380.35,-4.5319e-06,0
380.35,-1.3931e-05,0
380.35,-1.5274e-05,0
380.35,-7.8889e-06,0
380.35,6.3783e-06,0
380.35,1.9638e-05,0
380.35,2.6688e-05,0
380.35,3.4073e-05,0
380.35,4.5319e-05,0
380.35,5.069e-05,0
380.35,4.2634e-05,0
380.35,2.7359e-05,0
380.35,1.3931e-05,0
380.35,8.896e-06,0
380.35,9.2317e-06,0
380.36,1.2421e-05,0
380.36,2.652e-05,0
380.36,5.6062e-05,0
380.36,8.04e-05,0
380.36,7.8553e-05,0
380.36,5.4719e-05,0
380.36,2.5681e-05,0
380.36,-1.3764e-05,0
380.36,-6.5965e-05,0
380.36,-8.1071e-05,0
380.36,-3.7095e-05,0
380.36,2.4674e-05,0
380.36,6.244e-05,0
380.36,6.5629e-05,0
380.36,4.6494e-05,0
380.36,2.8031e-05,0
380.36,2.266e-05,0
380.36,2.3835e-05,0
380.36,2.266e-05,0
380.37,2.0645e-05,0
380.37,1.9974e-05,0
380.37,1.8463e-05,0
380.37,1.6617e-05,0
380.37,1.8631e-05,0
380.37,2.652e-05,0
380.37,3.4241e-05,0
380.37,3.978e-05,0
380.37,4.5151e-05,0
380.37,5.153e-05,0
380.37,5.7404e-05,0
380.37,5.7237e-05,0
380.37,5.153e-05,0
380.37,4.1962e-05,0
380.37,2.887e-05,0
380.37,1.1917e-05,0
380.37,-1.3596e-05,0
380.37,-3.978e-05,0
380.37,-4.5319e-05,0
380.38,-3.3066e-05,0
380.38,-1.7624e-05,0
380.38,-2.3499e-06,0
380.38,9.7353e-06,0
380.38,1.4435e-05,0
380.38,1.0575e-05,0
380.38,7.5532e-06,0
380.38,1.4267e-05,0
380.38,1.9806e-05,0
380.38,2.2492e-05,0
380.38,2.7863e-05,0
380.38,3.0716e-05,0
380.38,1.9974e-05,0
380.38,-5.2033e-06,0
380.38,-3.0716e-05,0
380.38,-3.3906e-05,0
380.38,-5.8747e-06,0
380.38,3.357e-05,0
380.38,5.5222e-05,0
380.38,4.7837e-05,0
380.39,2.9709e-05,0
380.39,2.031e-05,0
380.39,2.1317e-05,0
380.39,2.501e-05,0
380.39,2.7024e-05,0
380.39,2.501e-05,0
380.39,2.0981e-05,0
380.39,2.1653e-05,0
380.39,3.0381e-05,0
380.39,4.0116e-05,0
380.39,4.3809e-05,0
380.39,4.213e-05,0
380.39,3.7766e-05,0
380.39,3.3738e-05,0
380.39,2.9374e-05,0
380.39,2.5513e-05,0
380.39,2.5345e-05,0
380.39,2.5849e-05,0
380.39,2.3499e-05,0
380.4,1.7288e-05,0
380.4,6.5461e-06,0
380.4,5.0355e-07,0
380.4,1.1414e-05,0
380.4,3.3402e-05,0
380.4,4.7837e-05,0
380.4,4.2802e-05,0
380.4,1.5946e-05,0
380.4,-1.8967e-05,0
380.4,-3.9948e-05,0
380.4,-3.1052e-05,0
380.4,8.5603e-06,0
380.4,4.9516e-05,0
380.4,6.3615e-05,0
380.4,5.6733e-05,0
380.4,4.9683e-05,0
380.4,4.6326e-05,0
380.4,3.9612e-05,0
380.4,3.0045e-05,0
380.41,2.1149e-05,0
380.41,1.796e-05,0
380.41,2.2828e-05,0
380.41,3.0549e-05,0
380.41,3.3066e-05,0
380.41,3.0045e-05,0
380.41,2.6352e-05,0
380.41,2.4338e-05,0
380.41,2.9206e-05,0
380.41,4.0955e-05,0
380.41,5.4887e-05,0
380.41,6.4622e-05,0
380.41,5.7572e-05,0
380.41,3.2395e-05,0
380.41,2.3499e-06,0
380.41,-2.9709e-05,0
380.41,-5.6565e-05,0
380.41,-6.009e-05,0
380.41,-2.6352e-05,0
380.41,2.266e-05,0
380.42,5.4719e-05,0
380.42,5.7908e-05,0
380.42,4.3473e-05,0
380.42,2.6352e-05,0
380.42,1.9638e-05,0
380.42,2.6688e-05,0
380.42,3.743e-05,0
380.42,4.1123e-05,0
380.42,3.0716e-05,0
380.42,6.2104e-06,0
380.42,-2.0645e-05,0
380.42,-3.2395e-05,0
380.42,-2.5681e-05,0
380.42,-1.1582e-05,0
380.42,-3.0213e-06,0
380.42,-5.2033e-06,0
380.42,-1.3596e-05,0
380.42,-1.561e-05,0
380.42,-3.8605e-06,0
380.43,1.3596e-05,0
380.43,2.2995e-05,0
380.43,2.887e-05,0
380.43,3.6423e-05,0
380.43,4.1459e-05,0
380.43,3.8437e-05,0
380.43,2.9877e-05,0
380.43,2.1149e-05,0
380.43,1.5106e-05,0
380.43,1.326e-05,0
380.43,1.5778e-05,0
380.43,1.5274e-05,0
380.43,9.2317e-06,0
380.43,7.8889e-06,0
380.43,7.8889e-06,0
380.43,2.5177e-06,0
380.43,4.1962e-06,0
380.43,1.8967e-05,0
380.43,3.8773e-05,0
380.44,4.8173e-05,0
380.44,4.3305e-05,0
380.44,3.3906e-05,0
380.44,2.7024e-05,0
380.44,2.3331e-05,0
380.44,2.417e-05,0
380.44,2.7359e-05,0
380.44,2.5681e-05,0
380.44,1.8128e-05,0
380.44,7.5532e-06,0
380.44,3.5248e-06,0
380.44,4.5319e-06,0
380.44,5.2033e-06,0
380.44,4.1962e-06,0
380.44,-2.8534e-06,0
380.44,-1.4603e-05,0
380.44,-2.7695e-05,0
380.44,-2.5849e-05,0
380.44,3.357e-06,0
380.45,4.0787e-05,0
380.45,6.2272e-05,0
380.45,6.4286e-05,0
380.45,5.4551e-05,0
380.45,4.1794e-05,0
380.45,2.9709e-05,0
380.45,2.501e-05,0
380.45,3.0884e-05,0
380.45,3.9612e-05,0
380.45,4.448e-05,0
380.45,4.2802e-05,0
380.45,3.743e-05,0
380.45,2.9374e-05,0
380.45,1.9806e-05,0
380.45,1.0575e-05,0
380.45,7.8889e-06,0
380.45,1.3092e-05,0
380.45,1.6785e-05,0
380.45,9.2317e-06,0
380.45,-5.2033e-06,0
380.46,-1.0239e-05,0
380.46,5.8747e-06,0
380.46,2.501e-05,0
380.46,3.3906e-05,0
380.46,3.5752e-05,0
380.46,3.3738e-05,0
380.46,3.0045e-05,0
380.46,2.652e-05,0
380.46,2.266e-05,0
380.46,2.3331e-05,0
380.46,2.5345e-05,0
380.46,3.0381e-05,0
380.46,4.0452e-05,0
380.46,4.8508e-05,0
380.46,5.0523e-05,0
380.46,4.2298e-05,0
380.46,2.6688e-05,0
380.46,1.1414e-05,0
380.46,9.0639e-06,0
380.47,1.3596e-05,0
380.47,1.1414e-05,0
380.47,-1.8463e-06,0
380.47,-1.7624e-05,0
380.47,-1.5106e-05,0
380.47,2.182e-06,0
380.47,1.7121e-05,0
380.47,2.8031e-05,0
380.47,3.6423e-05,0
380.47,4.1794e-05,0
380.47,4.7166e-05,0
380.47,5.2201e-05,0
380.47,5.0187e-05,0
380.47,3.8605e-05,0
380.47,1.9974e-05,0
380.47,5.539e-06,0
380.47,-5.0355e-07,0
380.47,-2.5177e-06,0
380.47,4.8676e-06,0
380.48,2.0478e-05,0
380.48,3.1724e-05,0
380.48,3.5752e-05,0
380.48,4.0787e-05,0
380.48,4.8508e-05,0
380.48,5.2705e-05,0
380.48,5.4887e-05,0
380.48,5.7908e-05,0
380.48,5.7404e-05,0
380.48,4.9516e-05,0
380.48,2.652e-05,0
380.48,-9.9031e-06,0
380.48,-3.5416e-05,0
380.48,-4.4144e-05,0
380.48,-5.1194e-05,0
380.48,-4.2634e-05,0
380.48,-1.5106e-05,0
380.48,1.6953e-05,0
380.48,4.0787e-05,0
380.49,4.4144e-05,0
380.49,3.0381e-05,0
380.49,2.1149e-05,0
380.49,2.4338e-05,0
380.49,2.5513e-05,0
380.49,2.0981e-05,0
380.49,1.6449e-05,0
380.49,2.0645e-05,0
380.49,2.8702e-05,0
380.49,2.887e-05,0
380.49,2.3835e-05,0
380.49,2.031e-05,0
380.49,1.0575e-05,0
380.49,-1.091e-05,0
380.49,-3.9612e-05,0
380.49,-5.7069e-05,0
380.49,-4.1794e-05,0
380.49,-1.8463e-06,0
380.49,3.5248e-05,0
380.49,5.4551e-05,0
380.5,6.1601e-05,0
380.5,6.0761e-05,0
380.5,5.623e-05,0
380.5,5.0858e-05,0
380.5,4.2802e-05,0
380.5,2.8702e-05,0
380.5,9.9031e-06,0
380.5,-8.2246e-06,0
380.5,-2.0981e-05,0
380.5,-1.5106e-05,0
380.5,1.4603e-05,0
380.5,4.8005e-05,0
380.5,6.2272e-05,0
380.5,5.9922e-05,0
380.5,5.2033e-05,0
380.5,4.7501e-05,0
380.5,4.683e-05,0
380.5,4.2802e-05,0
380.5,4.0787e-05,0
380.51,4.918e-05,0
380.51,5.7237e-05,0
380.51,4.1794e-05,0
380.51,9.5674e-06,0
380.51,-5.539e-06,0
380.51,-3.5248e-06,0
380.51,-2.1149e-05,0
380.51,-5.8244e-05,0
380.51,-7.0665e-05,0
380.51,-4.213e-05,0
380.51,1.5106e-06,0
380.51,2.8031e-05,0
380.51,3.1556e-05,0
380.51,2.9709e-05,0
380.51,3.2059e-05,0
380.51,3.4577e-05,0
380.51,3.3738e-05,0
380.51,3.1724e-05,0
380.51,3.508e-05,0
380.52,4.4816e-05,0
380.52,5.6565e-05,0
380.52,6.2943e-05,0
380.52,5.7404e-05,0
380.52,3.978e-05,0
380.52,7.2175e-06,0
380.52,-2.1317e-05,0
380.52,-1.561e-05,0
380.52,1.1078e-05,0
380.52,1.9974e-05,0
380.52,3.5248e-06,0
380.52,-1.0239e-05,0
380.52,-3.357e-07,0
380.52,1.3092e-05,0
380.52,1.3764e-05,0
380.52,1.5946e-05,0
380.52,3.1891e-05,0
380.52,4.5151e-05,0
380.52,4.2802e-05,0
380.52,3.4073e-05,0
380.53,3.3402e-05,0
380.53,3.2898e-05,0
380.53,6.3783e-06,0
380.53,-4.0787e-05,0
380.53,-6.0929e-05,0
380.53,-3.0045e-05,0
380.53,1.5778e-05,0
380.53,3.8605e-05,0
380.53,4.5823e-05,0
380.53,5.3544e-05,0
380.53,5.8244e-05,0
380.53,5.4215e-05,0
380.53,4.4144e-05,0
380.53,3.2059e-05,0
380.53,2.8031e-05,0
380.53,3.1052e-05,0
380.53,3.592e-05,0
380.53,3.6759e-05,0
380.53,3.3906e-05,0
380.54,3.1388e-05,0
380.54,3.3402e-05,0
380.54,3.9109e-05,0
380.54,4.3977e-05,0
380.54,4.1794e-05,0
380.54,3.5752e-05,0
380.54,3.4409e-05,0
380.54,3.8102e-05,0
380.54,4.448e-05,0
380.54,4.3137e-05,0
380.54,2.0981e-05,0
380.54,-1.6953e-05,0
380.54,-5.0523e-05,0
380.54,-6.7979e-05,0
380.54,-6.714e-05,0
380.54,-4.4648e-05,0
380.54,-1.0575e-05,0
380.54,2.3331e-05,0
380.54,5.2705e-05,0
380.55,7.1504e-05,0
380.55,7.4693e-05,0
380.55,6.3951e-05,0
380.55,4.8005e-05,0
380.55,3.5416e-05,0
380.55,2.9206e-05,0
380.55,2.266e-05,0
380.55,9.2317e-06,0
380.55,-2.182e-06,0
380.55,-2.8534e-06,0
380.55,5.539e-06,0
380.55,1.6449e-05,0
380.55,2.031e-05,0
380.55,1.5778e-05,0
380.55,1.091e-05,0
380.55,1.2924e-05,0
380.55,1.6785e-05,0
380.55,9.9031e-06,0
380.55,-1.5442e-05,0
380.56,-4.6662e-05,0
380.56,-5.6565e-05,0
380.56,-3.7095e-05,0
380.56,-4.1962e-06,0
380.56,2.6352e-05,0
380.56,4.2298e-05,0
380.56,4.2802e-05,0
380.56,3.6088e-05,0
380.56,3.1891e-05,0
380.56,3.2395e-05,0
380.56,3.4409e-05,0
380.56,3.4577e-05,0
380.56,3.3906e-05,0
380.56,3.6927e-05,0
380.56,4.1794e-05,0
380.56,4.5991e-05,0
380.56,4.8173e-05,0
380.56,4.7333e-05,0
380.56,4.2634e-05,0
380.56,3.508e-05,0
380.57,3.1388e-05,0
380.57,3.4745e-05,0
380.57,4.1291e-05,0
380.57,4.4816e-05,0
380.57,4.1794e-05,0
380.57,3.3738e-05,0
380.57,3.1891e-05,0
380.57,4.213e-05,0
380.57,5.7908e-05,0
380.57,6.3615e-05,0
380.57,5.153e-05,0
380.57,2.3331e-05,0
380.57,-1.3931e-05,0
380.57,-4.1962e-05,0
380.57,-5.153e-05,0
380.57,-4.3809e-05,0
380.57,-3.0884e-05,0
380.57,-2.5681e-05,0
380.57,-2.652e-05,0
380.58,-1.6785e-05,0
380.58,1.1917e-05,0
380.58,4.1291e-05,0
380.58,5.2705e-05,0
380.58,4.7501e-05,0
380.58,3.7766e-05,0
380.58,3.1388e-05,0
380.58,2.7527e-05,0
380.58,2.4674e-05,0
380.58,2.1317e-05,0
380.58,1.6281e-05,0
380.58,1.1246e-05,0
380.58,1.0071e-05,0
380.58,1.1582e-05,0
380.58,1.6449e-05,0
380.58,2.4338e-05,0
380.58,3.3234e-05,0
380.58,3.9445e-05,0
380.58,3.6088e-05,0
380.59,2.501e-05,0
380.59,1.2757e-05,0
380.59,4.5319e-06,0
380.59,3.357e-06,0
380.59,1.1582e-05,0
380.59,2.6688e-05,0
380.59,4.213e-05,0
380.59,4.8173e-05,0
380.59,4.062e-05,0
380.59,2.9877e-05,0
380.59,2.5849e-05,0
380.59,2.7359e-05,0
380.59,2.8702e-05,0
380.59,3.0045e-05,0
380.59,3.4073e-05,0
380.59,3.6591e-05,0
380.59,3.6927e-05,0
380.59,3.9612e-05,0
380.59,4.6494e-05,0
380.6,4.9516e-05,0
380.6,4.5487e-05,0
380.6,3.6088e-05,0
380.6,6.5461e-06,0
380.6,-5.6397e-05,0
380.6,-0.00011649,0
380.6,-0.00012085,0
380.6,-5.9251e-05,0
380.6,2.4002e-05,0
380.6,7.5868e-05,0
380.6,8.2246e-05,0
380.6,6.0761e-05,0
380.6,3.3402e-05,0
380.6,1.3931e-05,0
380.6,5.539e-06,0
380.6,3.8605e-06,0
380.6,2.182e-06,0
380.6,-2.8534e-06,0
380.6,-6.5461e-06,0
380.61,-5.8747e-06,0
380.61,1.5106e-06,0
380.61,1.326e-05,0
380.61,2.4674e-05,0
380.61,3.3402e-05,0
380.61,4.3473e-05,0
380.61,5.5726e-05,0
380.61,6.4286e-05,0
380.61,6.1265e-05,0
380.61,5.1362e-05,0
380.61,4.2802e-05,0
380.61,2.8702e-05,0
380.61,2.182e-06,0
380.61,-3.1052e-05,0
380.61,-4.6998e-05,0
380.61,-4.0452e-05,0
380.61,-1.9974e-05,0
380.61,-8.3925e-07,0
380.61,8.3925e-06,0
380.61,1.3931e-05,0
380.62,1.1246e-05,0
380.62,-3.8605e-06,0
380.62,-1.3428e-05,0
380.62,-8.2246e-06,0
380.62,5.2033e-06,0
380.62,2.0813e-05,0
380.62,3.2731e-05,0
380.62,3.6088e-05,0
380.62,3.2563e-05,0
380.62,2.7359e-05,0
380.62,2.7192e-05,0
380.62,3.2563e-05,0
380.62,3.8437e-05,0
380.62,4.1459e-05,0
380.62,4.3305e-05,0
380.62,4.8844e-05,0
380.62,6.1936e-05,0
380.62,7.4693e-05,0
380.62,7.3686e-05,0
380.63,4.3137e-05,0
380.63,-1.0239e-05,0
380.63,-3.8437e-05,0
380.63,-2.6352e-05,0
380.63,-1.091e-05,0
380.63,-8.2246e-06,0
380.63,-1.6785e-06,0
380.63,1.2253e-05,0
380.63,2.1317e-05,0
380.63,2.3667e-05,0
380.63,2.5681e-05,0
380.63,2.8031e-05,0
380.63,3.2898e-05,0
380.63,4.3305e-05,0
380.63,4.8508e-05,0
380.63,3.592e-05,0
380.63,1.2757e-05,0
380.63,1.6785e-07,0
380.63,1.8463e-06,0
380.64,9.3996e-06,0
380.64,2.031e-05,0
380.64,3.0045e-05,0
380.64,3.8102e-05,0
380.64,4.3641e-05,0
380.64,3.9948e-05,0
380.64,3.3402e-05,0
380.64,2.9374e-05,0
380.64,2.7024e-05,0
380.64,2.9374e-05,0
380.64,3.5416e-05,0
380.64,4.1291e-05,0
380.64,4.3473e-05,0
380.64,4.3473e-05,0
380.64,4.2802e-05,0
380.64,4.5823e-05,0
380.64,4.8844e-05,0
380.64,4.3473e-05,0
380.64,2.6352e-05,0
380.64,9.9031e-06,0
380.65,-5.0355e-07,0
380.65,-5.2033e-06,0
380.65,6.2104e-06,0
380.65,2.6688e-05,0
380.65,3.8102e-05,0
380.65,3.743e-05,0
380.65,3.0045e-05,0
380.65,1.7792e-05,0
380.65,2.0142e-06,0
380.65,-1.3931e-05,0
380.65,-3.4745e-05,0
380.65,-5.304e-05,0
380.65,-5.2537e-05,0
380.65,-2.4674e-05,0
380.65,1.7288e-05,0
380.65,4.7501e-05,0
380.65,5.5558e-05,0
380.65,5.304e-05,0
380.65,4.8676e-05,0
380.66,4.1123e-05,0
380.66,3.3066e-05,0
380.66,2.8702e-05,0
380.66,2.5513e-05,0
380.66,2.5849e-05,0
380.66,3.3738e-05,0
380.66,3.9445e-05,0
380.66,3.4073e-05,0
380.66,2.1149e-05,0
380.66,1.2253e-05,0
380.66,1.1414e-05,0
380.66,1.5274e-05,0
380.66,2.0645e-05,0
380.66,2.2492e-05,0
380.66,2.3163e-05,0
380.66,2.7024e-05,0
380.66,2.6352e-05,0
380.66,2.2828e-05,0
380.66,2.266e-05,0
380.67,2.5849e-05,0
380.67,2.501e-05,0
380.67,1.9974e-05,0
380.67,1.8631e-05,0
380.67,1.5946e-05,0
380.67,-8.3925e-06,0
380.67,-4.5319e-05,0
380.67,-5.1194e-05,0
380.67,-1.6617e-05,0
380.67,2.7863e-05,0
380.67,5.6565e-05,0
380.67,6.1265e-05,0
380.67,4.7501e-05,0
380.67,2.9206e-05,0
380.67,1.561e-05,0
380.67,1.1246e-05,0
380.67,2.031e-05,0
380.67,3.3402e-05,0
380.67,3.9948e-05,0
380.68,3.6088e-05,0
380.68,2.501e-05,0
380.68,1.8296e-05,0
380.68,2.1317e-05,0
380.68,2.7359e-05,0
380.68,2.7024e-05,0
380.68,2.1653e-05,0
380.68,1.7624e-05,0
380.68,1.9974e-05,0
380.68,3.1388e-05,0
380.68,4.3137e-05,0
380.68,4.4816e-05,0
380.68,3.8102e-05,0
380.68,2.887e-05,0
380.68,2.0981e-05,0
380.68,1.1917e-05,0
380.68,-1.0239e-05,0
380.68,-3.6423e-05,0
380.68,-3.8773e-05,0
380.68,-1.5274e-05,0
380.69,1.1078e-05,0
380.69,2.6352e-05,0
380.69,3.3402e-05,0
380.69,3.1052e-05,0
380.69,2.3835e-05,0
380.69,1.326e-05,0
380.69,8.3925e-07,0
380.69,-7.5532e-06,0
380.69,-6.3783e-06,0
380.69,6.3783e-06,0
380.69,2.266e-05,0
380.69,3.3066e-05,0
380.69,3.6591e-05,0
380.69,3.9109e-05,0
380.69,4.4144e-05,0
380.69,5.2201e-05,0
380.69,5.9922e-05,0
380.69,6.0258e-05,0
380.69,5.5558e-05,0
380.7,5.153e-05,0
380.7,3.9948e-05,0
380.7,1.7792e-05,0
380.7,-7.2175e-06,0
380.7,-3.3906e-05,0
380.7,-3.978e-05,0
380.7,-1.6617e-05,0
380.7,1.1917e-05,0
380.7,2.9374e-05,0
380.7,3.4073e-05,0
380.7,2.3163e-05,0
380.7,-1.5106e-06,0
380.7,-2.4002e-05,0
380.7,-3.0381e-05,0
380.7,-1.9303e-05,0
380.7,4.1962e-06,0
380.7,2.6017e-05,0
380.7,3.2731e-05,0
380.7,2.8702e-05,0
380.71,2.5345e-05,0
380.71,2.7863e-05,0
380.71,3.3738e-05,0
380.71,4.1291e-05,0
380.71,4.8173e-05,0
380.71,4.9516e-05,0
380.71,4.7501e-05,0
380.71,4.4816e-05,0
380.71,4.4816e-05,0
380.71,4.5487e-05,0
380.71,3.2731e-05,0
380.71,3.357e-06,0
380.71,-2.1988e-05,0
380.71,-2.0645e-05,0
380.71,-3.357e-07,0
380.71,1.4939e-05,0
380.71,1.6617e-05,0
380.71,1.6449e-05,0
380.71,2.4674e-05,0
380.72,3.2731e-05,0
380.72,2.9709e-05,0
380.72,1.796e-05,0
380.72,1.5106e-06,0
380.72,-1.2589e-05,0
380.72,-1.6785e-05,0
380.72,-5.8747e-06,0
380.72,1.8967e-05,0
380.72,4.5823e-05,0
380.72,5.3544e-05,0
380.72,4.3473e-05,0
380.72,3.2731e-05,0
380.72,2.4674e-05,0
380.72,1.2421e-05,0
380.72,6.0426e-06,0
380.72,1.5106e-05,0
380.72,2.6688e-05,0
380.72,2.7192e-05,0
380.72,2.4338e-05,0
380.72,2.9038e-05,0
380.73,3.743e-05,0
380.73,3.8773e-05,0
380.73,2.3163e-05,0
380.73,-2.3499e-06,0
380.73,-1.6281e-05,0
380.73,-1.4939e-05,0
380.73,-1.0239e-05,0
380.73,2.3499e-06,0
380.73,2.9206e-05,0
380.73,5.3544e-05,0
380.73,6.1936e-05,0
380.73,6.1097e-05,0
380.73,5.8747e-05,0
380.73,5.8412e-05,0
380.73,6.1097e-05,0
380.73,6.3951e-05,0
380.73,6.4286e-05,0
380.73,6.3951e-05,0
380.73,6.3279e-05,0
380.74,5.6565e-05,0
380.74,3.743e-05,0
380.74,7.2175e-06,0
380.74,-1.326e-05,0
380.74,-1.8128e-05,0
380.74,-2.2828e-05,0
380.74,-2.5345e-05,0
380.74,-1.9303e-05,0
380.74,-5.539e-06,0
380.74,1.2253e-05,0
380.74,2.9038e-05,0
380.74,3.8102e-05,0
380.74,3.8437e-05,0
380.74,3.743e-05,0
380.74,3.6423e-05,0
380.74,3.122e-05,0
380.74,1.9303e-05,0
380.74,9.3996e-06,0
380.74,1.5946e-05,0
380.75,3.0381e-05,0
380.75,2.7863e-05,0
380.75,1.1917e-05,0
380.75,2.6856e-06,0
380.75,2.6856e-06,0
380.75,-3.1891e-06,0
380.75,-2.1988e-05,0
380.75,-3.8605e-05,0
380.75,-3.4409e-05,0
380.75,-1.9303e-05,0
380.75,-1.091e-05,0
380.75,-1.1582e-05,0
380.75,-1.0742e-05,0
380.75,-1.1749e-06,0
380.75,1.5946e-05,0
380.75,3.2731e-05,0
380.75,3.6423e-05,0
380.75,2.7192e-05,0
380.75,1.9974e-05,0
380.75,1.326e-05,0
380.76,-6.5461e-06,0
380.76,-2.182e-05,0
380.76,-1.0239e-05,0
380.76,1.7288e-05,0
380.76,4.1459e-05,0
380.76,5.7572e-05,0
380.76,6.2776e-05,0
380.76,5.8579e-05,0
380.76,5.2873e-05,0
380.76,5.2537e-05,0
380.76,5.1865e-05,0
380.76,4.062e-05,0
380.76,2.501e-05,0
380.76,1.7792e-05,0
380.76,2.2492e-05,0
380.76,3.3738e-05,0
380.76,4.4984e-05,0
380.76,4.9851e-05,0
380.76,5.1194e-05,0
380.77,5.2537e-05,0
380.77,5.3544e-05,0
380.77,5.1362e-05,0
380.77,2.6352e-05,0
380.77,-3.1052e-05,0
380.77,-8.1743e-05,0
380.77,-8.0064e-05,0
380.77,-3.2395e-05,0
380.77,2.1317e-05,0
380.77,5.1865e-05,0
380.77,4.7333e-05,0
380.77,2.3163e-05,0
380.77,3.5248e-06,0
380.77,-2.182e-06,0
380.77,3.1891e-06,0
380.77,1.5106e-05,0
380.77,2.4506e-05,0
380.77,2.9709e-05,0
380.77,3.7095e-05,0
380.78,4.5487e-05,0
380.78,4.6662e-05,0
380.78,4.1794e-05,0
380.78,3.7766e-05,0
380.78,3.6423e-05,0
380.78,3.592e-05,0
380.78,3.4745e-05,0
380.78,3.0381e-05,0
380.78,2.6017e-05,0
380.78,2.5345e-05,0
380.78,2.5849e-05,0
380.78,2.5345e-05,0
380.78,1.9974e-05,0
380.78,6.8818e-06,0
380.78,-2.182e-06,0
380.78,-5.0355e-07,0
380.78,9.9031e-06,0
380.78,2.0813e-05,0
380.78,2.5177e-05,0
380.79,2.501e-05,0
380.79,2.3331e-05,0
380.79,2.1317e-05,0
380.79,2.0813e-05,0
380.79,2.1149e-05,0
380.79,2.182e-05,0
380.79,2.3331e-05,0
380.79,2.6688e-05,0
380.79,2.887e-05,0
380.79,3.2059e-05,0
380.79,3.6423e-05,0
380.79,3.8102e-05,0
380.79,3.4745e-05,0
380.79,3.0716e-05,0
380.79,2.9877e-05,0
380.79,2.8367e-05,0
380.79,1.7624e-05,0
380.79,4.0284e-06,0
380.79,-1.1749e-06,0
380.8,3.5248e-06,0
380.8,9.2317e-06,0
380.8,1.561e-05,0
380.8,2.6352e-05,0
380.8,3.2395e-05,0
380.8,2.6688e-05,0
380.8,7.8889e-06,0
380.8,-2.031e-05,0
380.8,-3.827e-05,0
380.8,-4.8676e-05,0
380.8,-5.388e-05,0
380.8,-3.3066e-05,0
380.8,7.3854e-06,0
380.8,3.7766e-05,0
380.8,4.9012e-05,0
380.8,4.8173e-05,0
380.8,4.6159e-05,0
380.8,4.4144e-05,0
380.8,4.1459e-05,0
380.8,3.978e-05,0
380.81,3.8605e-05,0
380.81,3.4409e-05,0
380.81,3.0716e-05,0
380.81,2.9877e-05,0
380.81,2.7359e-05,0
380.81,2.1988e-05,0
380.81,1.7624e-05,0
380.81,1.6617e-05,0
380.81,1.5274e-05,0
380.81,1.091e-05,0
380.81,4.6998e-06,0
380.81,2.8534e-06,0
380.81,1.1917e-05,0
380.81,2.4002e-05,0
380.81,2.8031e-05,0
380.81,2.266e-05,0
380.81,1.3931e-05,0
380.81,1.4435e-05,0
380.81,2.7024e-05,0
380.82,4.2802e-05,0
380.82,5.4887e-05,0
380.82,6.4118e-05,0
380.82,7.3014e-05,0
380.82,7.3014e-05,0
380.82,5.2201e-05,0
380.82,5.539e-06,0
380.82,-4.7837e-05,0
380.82,-7.3014e-05,0
380.82,-5.7237e-05,0
380.82,-1.7624e-05,0
380.82,2.4842e-05,0
380.82,4.8173e-05,0
380.82,4.4144e-05,0
380.82,2.7695e-05,0
380.82,1.6281e-05,0
380.82,1.8128e-05,0
380.82,2.4674e-05,0
380.82,2.0645e-05,0
380.83,1.1246e-05,0
380.83,8.2246e-06,0
380.83,1.3764e-05,0
380.83,2.031e-05,0
380.83,1.9638e-05,0
380.83,2.031e-05,0
380.83,2.8031e-05,0
380.83,3.9445e-05,0
380.83,4.5487e-05,0
380.83,4.2634e-05,0
380.83,3.4745e-05,0
380.83,2.4674e-05,0
380.83,1.561e-05,0
380.83,8.2246e-06,0
380.83,4.1962e-06,0
380.83,5.0355e-06,0
380.83,1.0239e-05,0
380.83,1.7624e-05,0
380.83,2.3499e-05,0
380.83,2.6352e-05,0
380.84,3.4073e-05,0
380.84,4.1459e-05,0
380.84,3.2395e-05,0
380.84,1.9135e-05,0
380.84,1.4603e-05,0
380.84,1.5778e-05,0
380.84,1.6953e-05,0
380.84,1.9471e-05,0
380.84,2.266e-05,0
380.84,2.5681e-05,0
380.84,3.0381e-05,0
380.84,3.2059e-05,0
380.84,3.0549e-05,0
380.84,2.8031e-05,0
380.84,2.9038e-05,0
380.84,3.3066e-05,0
380.84,3.4073e-05,0
380.84,2.9206e-05,0
380.84,2.4002e-05,0
380.85,2.0645e-05,0
380.85,1.9135e-05,0
380.85,1.7624e-05,0
380.85,1.3931e-05,0
380.85,6.5461e-06,0
380.85,3.0213e-06,0
380.85,8.896e-06,0
380.85,1.3931e-05,0
380.85,1.091e-05,0
380.85,5.2033e-06,0
380.85,5.7069e-06,0
380.85,8.3925e-06,0
380.85,1.8967e-05,0
380.85,4.1459e-05,0
380.85,5.6565e-05,0
380.85,3.7766e-05,0
380.85,-3.357e-06,0
380.85,-3.508e-05,0
380.85,-4.2634e-05,0
380.86,-2.7695e-05,0
380.86,3.357e-07,0
380.86,2.7359e-05,0
380.86,4.3305e-05,0
380.86,4.8005e-05,0
380.86,4.4144e-05,0
380.86,3.8102e-05,0
380.86,3.4745e-05,0
380.86,3.3402e-05,0
380.86,2.8367e-05,0
380.86,2.1149e-05,0
380.86,1.4771e-05,0
380.86,1.4603e-05,0
380.86,2.182e-05,0
380.86,3.0549e-05,0
380.86,2.9374e-05,0
380.86,1.6281e-05,0
380.86,-3.8605e-06,0
380.86,-2.031e-05,0
380.87,-2.7695e-05,0
380.87,-2.4338e-05,0
380.87,-1.4435e-05,0
380.87,-5.539e-06,0
380.87,1.5106e-06,0
380.87,1.2589e-05,0
380.87,2.1317e-05,0
380.87,2.4674e-05,0
380.87,2.7359e-05,0
380.87,3.0381e-05,0
380.87,3.0716e-05,0
380.87,2.8367e-05,0
380.87,2.6017e-05,0
380.87,2.8031e-05,0
380.87,2.6688e-05,0
380.87,1.8631e-05,0
380.87,1.3764e-05,0
380.87,2.2324e-05,0
380.87,3.5752e-05,0
380.88,4.1459e-05,0
380.88,4.062e-05,0
380.88,3.8941e-05,0
380.88,3.5584e-05,0
380.88,3.1052e-05,0
380.88,2.7527e-05,0
380.88,2.182e-05,0
380.88,1.3764e-05,0
380.88,1.0071e-05,0
380.88,8.5603e-06,0
380.88,6.2104e-06,0
380.88,1.1246e-05,0
380.88,2.7192e-05,0
380.88,4.2802e-05,0
380.88,5.1865e-05,0
380.88,5.6733e-05,0
380.88,5.8076e-05,0
380.88,5.3544e-05,0
380.88,4.1123e-05,0
380.88,2.182e-05,0
380.89,-2.5177e-06,0
380.89,-2.9709e-05,0
380.89,-4.3473e-05,0
380.89,-2.9374e-05,0
380.89,-3.0213e-06,0
380.89,1.5946e-05,0
380.89,2.8534e-05,0
380.89,3.5752e-05,0
380.89,3.743e-05,0
380.89,3.4745e-05,0
380.89,2.8199e-05,0
380.89,2.1988e-05,0
380.89,1.6785e-05,0
380.89,1.4603e-05,0
380.89,1.5106e-05,0
380.89,1.8631e-05,0
380.89,2.501e-05,0
380.89,2.2995e-05,0
380.89,1.5274e-05,0
380.9,1.2589e-05,0
380.9,1.2589e-05,0
380.9,8.5603e-06,0
380.9,6.3783e-06,0
380.9,9.2317e-06,0
380.9,1.5274e-05,0
380.9,2.0813e-05,0
380.9,2.6688e-05,0
380.9,2.9374e-05,0
380.9,2.6688e-05,0
380.9,2.7695e-05,0
380.9,3.743e-05,0
380.9,4.3473e-05,0
380.9,4.4816e-05,0
380.9,4.2802e-05,0
380.9,3.2731e-05,0
380.9,1.796e-05,0
380.9,6.3783e-06,0
380.9,2.8534e-06,0
380.91,8.3925e-06,0
380.91,1.5946e-05,0
380.91,1.8631e-05,0
380.91,1.8631e-05,0
380.91,1.6449e-05,0
380.91,1.3596e-05,0
380.91,1.5442e-05,0
380.91,1.9135e-05,0
380.91,2.1149e-05,0
380.91,2.4674e-05,0
380.91,3.1891e-05,0
380.91,3.4241e-05,0
380.91,3.4745e-05,0
380.91,3.4409e-05,0
380.91,3.1388e-05,0
380.91,3.1891e-05,0
380.91,3.743e-05,0
380.91,4.0116e-05,0
380.91,3.7095e-05,0
380.92,2.6017e-05,0
380.92,3.0213e-06,0
380.92,-2.3331e-05,0
380.92,-2.4506e-05,0
380.92,-5.0355e-07,0
380.92,2.3331e-05,0
380.92,3.3738e-05,0
380.92,3.1388e-05,0
380.92,2.4506e-05,0
380.92,2.5177e-05,0
380.92,3.5416e-05,0
380.92,4.4648e-05,0
380.92,4.2802e-05,0
380.92,3.122e-05,0
380.92,1.561e-05,0
380.92,2.8534e-06,0
380.92,-4.0284e-06,0
380.92,-3.8605e-06,0
380.92,6.8818e-06,0
380.92,2.4002e-05,0
380.93,3.3738e-05,0
380.93,2.5345e-05,0
380.93,-4.1962e-06,0
380.93,-3.978e-05,0
380.93,-4.6494e-05,0
380.93,-1.5274e-05,0
380.93,2.7024e-05,0
380.93,5.3208e-05,0
380.93,5.539e-05,0
380.93,4.5319e-05,0
380.93,3.3906e-05,0
380.93,2.2492e-05,0
380.93,1.2421e-05,0
380.93,7.8889e-06,0
380.93,1.561e-05,0
380.93,2.9374e-05,0
380.93,3.8941e-05,0
380.93,4.6326e-05,0
380.93,5.1865e-05,0
380.94,3.978e-05,0
380.94,7.7211e-06,0
380.94,-1.9638e-05,0
380.94,-3.1556e-05,0
380.94,-2.6352e-05,0
380.94,-9.5674e-06,0
380.94,2.5177e-06,0
380.94,2.6856e-06,0
380.94,1.8463e-06,0
380.94,1.1414e-05,0
380.94,2.2324e-05,0
380.94,2.5177e-05,0
380.94,2.6352e-05,0
380.94,2.8031e-05,0
380.94,2.6017e-05,0
380.94,1.9974e-05,0
380.94,1.5106e-05,0
380.94,1.5442e-05,0
380.94,2.1317e-05,0
380.95,3.122e-05,0
380.95,4.1459e-05,0
380.95,4.8844e-05,0
380.95,5.0858e-05,0
380.95,4.4984e-05,0
380.95,3.6423e-05,0
380.95,3.1556e-05,0
380.95,2.6688e-05,0
380.95,1.7288e-05,0
380.95,7.3854e-06,0
380.95,5.8747e-06,0
380.95,1.4267e-05,0
380.95,2.9374e-05,0
380.95,4.448e-05,0
380.95,5.3376e-05,0
380.95,5.7404e-05,0
380.95,5.8915e-05,0
380.95,4.9516e-05,0
380.95,2.3499e-05,0
380.95,-3.6927e-06,0
380.96,-1.6449e-05,0
380.96,-1.6281e-05,0
380.96,-5.8747e-06,0
380.96,1.561e-05,0
380.96,3.5752e-05,0
380.96,4.3809e-05,0
380.96,4.2802e-05,0
380.96,4.213e-05,0
380.96,3.9445e-05,0
380.96,3.4073e-05,0
380.96,3.2395e-05,0
380.96,3.2731e-05,0
380.96,2.9374e-05,0
380.96,2.5345e-05,0
380.96,2.7192e-05,0
380.96,3.3906e-05,0
380.96,4.0452e-05,0
380.96,4.0116e-05,0
380.96,2.7863e-05,0
380.97,1.0575e-05,0
380.97,3.6927e-06,0
380.97,3.8605e-06,0
380.97,-4.5319e-06,0
380.97,-2.2156e-05,0
380.97,-3.4745e-05,0
380.97,-3.3906e-05,0
380.97,-1.3596e-05,0
380.97,1.5946e-05,0
380.97,3.4409e-05,0
380.97,3.4745e-05,0
380.97,2.6688e-05,0
380.97,1.3931e-05,0
380.97,5.0355e-07,0
380.97,-1.1749e-06,0
380.97,2.5177e-06,0
380.97,-1.0071e-06,0
380.97,-6.2104e-06,0
380.97,-4.6998e-06,0
380.98,1.1246e-05,0
380.98,3.357e-05,0
380.98,4.7837e-05,0
380.98,5.153e-05,0
380.98,4.9851e-05,0
380.98,4.6494e-05,0
380.98,3.9109e-05,0
380.98,2.8534e-05,0
380.98,2.5681e-05,0
380.98,3.0716e-05,0
380.98,2.652e-05,0
380.98,1.2253e-05,0
380.98,3.5248e-06,0
380.98,3.8605e-06,0
380.98,1.2253e-05,0
380.98,1.6953e-05,0
380.98,5.2033e-06,0
380.98,-1.4267e-05,0
380.98,-2.0142e-05,0
380.99,-1.6785e-06,0
380.99,2.6688e-05,0
380.99,4.062e-05,0
380.99,2.7695e-05,0
380.99,3.5248e-06,0
380.99,-2.8534e-06,0
380.99,1.2085e-05,0
380.99,3.1052e-05,0
380.99,3.9445e-05,0
380.99,4.1459e-05,0
380.99,4.3473e-05,0
380.99,3.7095e-05,0
380.99,2.1317e-05,0
380.99,1.0575e-05,0
380.99,7.5532e-06,0
380.99,1.4603e-05,0
380.99,2.7024e-05,0
380.99,3.6927e-05,0
380.99,3.8773e-05,0
380.99,3.7766e-05,0
381,3.5416e-05,0
381,2.652e-05,0
381,1.7456e-05,0
381,2.1317e-05,0
381,3.0213e-05,0
381,2.0142e-05,0
381,-3.0213e-06,0
381,-9.5674e-06,0
381,3.8605e-06,0
381,2.1988e-05,0
381,3.8941e-05,0
381,4.8844e-05,0
381,4.9851e-05,0
381,4.5487e-05,0
381,3.8605e-05,0
381,2.4506e-05,0
381,6.2104e-06,0
381,-1.1749e-06,0
381,1.1749e-06,0
381.01,-2.5177e-06,0
381.01,-8.2246e-06,0
381.01,-2.5177e-06,0
381.01,1.8296e-05,0
381.01,3.7263e-05,0
381.01,4.7501e-05,0
381.01,5.623e-05,0
381.01,6.5965e-05,0
381.01,6.5797e-05,0
381.01,5.069e-05,0
381.01,2.8702e-05,0
381.01,-3.8605e-06,0
381.01,-4.2298e-05,0
381.01,-6.1433e-05,0
381.01,-5.2537e-05,0
381.01,-2.3499e-05,0
381.01,1.091e-05,0
381.01,3.3738e-05,0
381.01,4.0116e-05,0
381.02,3.743e-05,0
381.02,3.1556e-05,0
381.02,3.7095e-05,0
381.02,5.2201e-05,0
381.02,6.5629e-05,0
381.02,6.4286e-05,0
381.02,3.4073e-05,0
381.02,-1.6785e-06,0
381.02,-7.5532e-06,0
381.02,3.1891e-06,0
381.02,9.2317e-06,0
381.02,1.091e-05,0
381.02,1.3764e-05,0
381.02,1.8463e-05,0
381.02,2.0478e-05,0
381.02,1.5274e-05,0
381.02,7.7211e-06,0
381.02,8.896e-06,0
381.02,1.2253e-05,0
381.03,-3.357e-06,0
381.03,-3.2731e-05,0
381.03,-4.9348e-05,0
381.03,-4.1291e-05,0
381.03,-1.9135e-05,0
381.03,2.5177e-06,0
381.03,1.796e-05,0
381.03,2.8367e-05,0
381.03,3.1891e-05,0
381.03,2.8367e-05,0
381.03,2.1149e-05,0
381.03,1.6617e-05,0
381.03,1.8631e-05,0
381.03,2.4506e-05,0
381.03,3.0716e-05,0
381.03,3.5416e-05,0
381.03,3.2731e-05,0
381.03,3.2059e-05,0
381.03,4.6159e-05,0
381.03,6.3615e-05,0
381.04,6.3447e-05,0
381.04,4.5319e-05,0
381.04,2.3331e-05,0
381.04,1.0575e-05,0
381.04,1.0239e-05,0
381.04,1.5442e-05,0
381.04,2.3331e-05,0
381.04,2.6352e-05,0
381.04,1.8296e-05,0
381.04,1.5946e-05,0
381.04,2.4002e-05,0
381.04,2.3835e-05,0
381.04,1.5946e-05,0
381.04,1.3428e-05,0
381.04,1.3931e-05,0
381.04,1.4603e-05,0
381.04,1.4267e-05,0
381.04,1.7624e-05,0
381.04,3.1891e-05,0
381.05,5.1194e-05,0
381.05,7.1839e-05,0
381.05,8.9799e-05,0
381.05,9.9199e-05,0
381.05,9.3156e-05,0
381.05,7.6204e-05,0
381.05,5.153e-05,0
381.05,1.0239e-05,0
381.05,-3.5248e-05,0
381.05,-6.3951e-05,0
381.05,-7.6204e-05,0
381.05,-6.5293e-05,0
381.05,-2.8367e-05,0
381.05,6.5461e-06,0
381.05,2.501e-05,0
381.05,4.0116e-05,0
381.05,5.4215e-05,0
381.05,5.5558e-05,0
381.05,4.8844e-05,0
381.06,4.0116e-05,0
381.06,3.1388e-05,0
381.06,2.7695e-05,0
381.06,1.8631e-05,0
381.06,3.0213e-06,0
381.06,0,0
381.06,1.1582e-05,0
381.06,2.9541e-05,0
381.06,4.8005e-05,0
381.06,6.3279e-05,0
381.06,7.1e-05,0
381.06,6.6133e-05,0
381.06,5.0019e-05,0
381.06,2.501e-05,0
381.06,-9.2317e-06,0
381.06,-3.4409e-05,0
381.06,-2.182e-05,0
381.06,1.9974e-05,0
381.06,4.4144e-05,0
381.06,2.4674e-05,0
381.07,-1.3596e-05,0
381.07,-2.652e-05,0
381.07,-6.8818e-06,0
381.07,2.2492e-05,0
381.07,3.6591e-05,0
381.07,3.4409e-05,0
381.07,3.1724e-05,0
381.07,3.1556e-05,0
381.07,2.1317e-05,0
381.07,1.6785e-06,0
381.07,-3.6927e-06,0
381.07,1.1749e-05,0
381.07,3.122e-05,0
381.07,4.5487e-05,0
381.07,5.9922e-05,0
381.07,7.0329e-05,0
381.07,6.8315e-05,0
381.07,6.3111e-05,0
381.07,6.1265e-05,0
381.08,5.3544e-05,0
381.08,3.1724e-05,0
381.08,7.7211e-06,0
381.08,-1.1582e-05,0
381.08,-3.1556e-05,0
381.08,-4.6494e-05,0
381.08,-4.3809e-05,0
381.08,-2.0813e-05,0
381.08,8.896e-06,0
381.08,2.4002e-05,0
381.08,1.5274e-05,0
381.08,-1.0575e-05,0
381.08,-3.6423e-05,0
381.08,-4.7669e-05,0
381.08,-2.8367e-05,0
381.08,7.8889e-06,0
381.08,2.3331e-05,0
381.08,1.091e-05,0
381.08,0,0
381.09,3.5248e-06,0
