47.507,3.6088e-05,0
47.508,4.4648e-05,0
47.508,4.8844e-05,0
47.509,5.4887e-05,0
47.509,6.5293e-05,0
47.51,8.0232e-05,0
47.51,9.6178e-05,0
47.511,0.0001039,0
47.511,9.6849e-05,0
47.512,8.2246e-05,0
47.512,6.7643e-05,0
47.513,5.6733e-05,0
47.513,4.6494e-05,0
47.514,3.8605e-05,0
47.514,3.6088e-05,0
47.515,3.6759e-05,0
47.515,3.6423e-05,0
47.516,3.4745e-05,0
47.516,2.9374e-05,0
47.517,2.0142e-05,0
47.517,1.1582e-05,0
47.518,4.0284e-06,0
47.518,-4.3641e-06,0
47.519,-1.5946e-05,0
47.519,-2.5849e-05,0
47.52,-2.9038e-05,0
47.521,-2.7024e-05,0
47.521,-1.8128e-05,0
47.522,-2.3499e-06,0
47.522,1.4099e-05,0
47.523,2.5345e-05,0
47.523,2.7863e-05,0
47.524,2.3667e-05,0
47.524,1.7624e-05,0
47.525,1.561e-05,0
47.525,1.6617e-05,0
47.526,1.6449e-05,0
47.526,9.5674e-06,0
47.527,2.5177e-06,0
47.527,6.3783e-06,0
47.528,2.5177e-05,0
47.528,5.4887e-05,0
47.529,8.5771e-05,0
47.529,0.00010994,0
47.53,0.00012689,0
47.53,0.00013881,0
47.531,0.00014888,0
47.531,0.00015761,0
47.532,0.00015442,0
47.532,0.00012337,0
47.533,6.9657e-05,0
47.533,1.326e-05,0
47.534,-3.1891e-05,0
47.535,-6.1097e-05,0
47.535,-7.9728e-05,0
47.536,-9.5842e-05,0
47.536,-0.00010759,0
47.537,-0.00011632,0
47.537,-0.00012438,0
47.538,-0.00012807,0
47.538,-0.00012438,0
47.539,-0.0001086,0
47.539,-7.8218e-05,0
47.54,-3.9445e-05,0
47.54,5.0355e-07,0
47.541,4.0116e-05,0
47.541,7.2007e-05,0
47.542,9.0806e-05,0
47.542,9.8863e-05,0
47.543,0.00010021,0
47.543,9.3828e-05,0
47.544,8.3421e-05,0
47.544,7.335e-05,0
47.545,6.1265e-05,0
47.545,4.5151e-05,0
47.546,2.8031e-05,0
47.546,1.1917e-05,0
47.547,2.5177e-06,0
47.548,-1.1749e-06,0
47.548,-1.3428e-06,0
47.549,-8.3925e-07,0
47.549,-4.3641e-06,0
47.55,-1.091e-05,0
47.55,-1.8463e-05,0
47.551,-2.887e-05,0
47.551,-4.4144e-05,0
47.552,-6.2272e-05,0
47.552,-7.4022e-05,0
47.553,-6.6972e-05,0
47.553,-4.0452e-05,0
47.554,-7.0497e-06,0
47.554,2.1653e-05,0
47.555,4.4144e-05,0
47.555,6.3615e-05,0
47.556,8.2918e-05,0
47.556,0.00010423,0
47.557,0.00012471,0
47.557,0.00014351,0
47.558,0.00016097,0
47.558,0.00017037,0
47.559,0.00016818,0
47.559,0.0001556,0
47.56,0.0001321,0
47.56,9.4163e-05,0
47.561,5.4551e-05,0
47.562,3.0045e-05,0
47.562,1.796e-05,0
47.563,6.5461e-06,0
47.563,-7.2175e-06,0
47.564,-1.9638e-05,0
47.564,-2.9206e-05,0
47.565,-3.6759e-05,0
47.565,-4.3137e-05,0
47.566,-4.8508e-05,0
47.566,-5.5222e-05,0
47.567,-6.3615e-05,0
47.567,-6.9322e-05,0
47.568,-6.4118e-05,0
47.568,-4.7837e-05,0
47.569,-2.9038e-05,0
47.569,-1.7792e-05,0
47.57,-1.8967e-05,0
47.57,-2.5345e-05,0
47.571,-2.6184e-05,0
47.571,-1.796e-05,0
47.572,-5.2033e-06,0
47.572,4.6998e-06,0
47.573,9.0639e-06,0
47.573,2.5177e-06,0
47.574,-1.561e-05,0
47.575,-3.7263e-05,0
47.575,-5.2537e-05,0
47.576,-5.774e-05,0
47.576,-5.4215e-05,0
47.577,-4.6998e-05,0
47.577,-3.6591e-05,0
47.578,-1.8967e-05,0
47.578,6.2104e-06,0
47.579,3.2059e-05,0
47.579,5.4887e-05,0
47.58,7.7379e-05,0
47.58,0.00010172,0
47.581,0.00012136,0
47.581,0.00012438,0
47.582,0.0001086,0
47.582,7.9728e-05,0
47.583,4.7166e-05,0
47.583,2.652e-05,0
47.584,2.3835e-05,0
47.584,3.1388e-05,0
47.585,4.062e-05,0
47.585,4.5151e-05,0
47.586,4.3137e-05,0
47.586,3.7263e-05,0
47.587,3.4409e-05,0
47.587,4.0116e-05,0
47.588,5.2537e-05,0
47.589,6.244e-05,0
47.589,6.2776e-05,0
47.59,5.623e-05,0
47.59,4.8676e-05,0
47.591,4.3137e-05,0
47.591,4.1459e-05,0
47.592,4.1123e-05,0
47.592,3.978e-05,0
47.593,3.8605e-05,0
47.593,3.5752e-05,0
47.594,2.8367e-05,0
47.594,1.7624e-05,0
47.595,7.8889e-06,0
47.595,2.5177e-06,0
47.596,-5.0355e-07,0
47.596,-1.6785e-06,0
47.597,-2.8534e-06,0
47.597,-4.6998e-06,0
47.598,-8.2246e-06,0
47.598,-9.5674e-06,0
47.599,-8.2246e-06,0
47.599,-7.8889e-06,0
47.6,-9.5674e-06,0
47.6,-1.091e-05,0
47.601,-1.0575e-05,0
47.602,-9.5674e-06,0
47.602,-6.714e-06,0
47.603,-2.5177e-06,0
47.603,1.5106e-06,0
47.604,7.3854e-06,0
47.604,1.2757e-05,0
47.605,1.5778e-05,0
47.605,1.6114e-05,0
47.606,1.5274e-05,0
47.606,1.3931e-05,0
47.607,7.5532e-06,0
47.607,-3.8605e-06,0
47.608,-1.5946e-05,0
47.608,-2.4002e-05,0
47.609,-2.3667e-05,0
47.609,-1.4603e-05,0
47.61,1.6785e-07,0
47.61,1.9471e-05,0
47.611,4.213e-05,0
47.611,6.3615e-05,0
47.612,7.9057e-05,0
47.612,8.9799e-05,0
47.613,9.7185e-05,0
47.613,0.00010004,0
47.614,9.3324e-05,0
47.614,7.9728e-05,0
47.615,6.6972e-05,0
47.616,6.3279e-05,0
47.616,6.6636e-05,0
47.617,7.0329e-05,0
47.617,6.8315e-05,0
47.618,5.8412e-05,0
47.618,4.3305e-05,0
47.619,2.5177e-05,0
47.619,5.0355e-06,0
47.62,-9.2317e-06,0
47.62,-1.4099e-05,0
47.621,-1.4603e-05,0
47.621,-1.3596e-05,0
47.622,-1.1917e-05,0
47.622,-9.5674e-06,0
47.623,-7.2175e-06,0
47.623,-2.5177e-06,0
47.624,2.5177e-06,0
47.624,7.8889e-06,0
47.625,1.091e-05,0
47.625,9.5674e-06,0
47.626,4.1962e-06,0
47.626,-3.5248e-06,0
47.627,-1.0407e-05,0
47.627,-1.5274e-05,0
47.628,-2.2995e-05,0
47.629,-3.8437e-05,0
47.629,-6.0426e-05,0
47.63,-8.4092e-05,0
47.63,-9.5338e-05,0
47.631,-8.5603e-05,0
47.631,-5.8915e-05,0
47.632,-2.2156e-05,0
47.632,2.1317e-05,0
47.633,6.0929e-05,0
47.633,9.366e-05,0
47.634,0.00012522,0
47.634,0.00015879,0
47.635,0.00019118,0
47.635,0.00022106,0
47.636,0.00024825,0
47.636,0.00026134,0
47.637,0.00024086,0
47.637,0.00018296,0
47.638,0.00010239,0
47.638,2.0981e-05,0
47.639,-4.3137e-05,0
47.639,-8.4092e-05,0
47.64,-0.00010759,0
47.64,-0.0001227,0
47.641,-0.00013462,0
47.642,-0.00014653,0
47.642,-0.00015593,0
47.643,-0.00015543,0
47.643,-0.00013999,0
47.644,-0.0001133,0
47.644,-8.1575e-05,0
47.645,-4.6662e-05,0
47.645,-1.1582e-05,0
47.646,8.2246e-06,0
47.646,6.5461e-06,0
47.647,-4.1962e-06,0
47.647,-7.5532e-06,0
47.648,1.5106e-06,0
47.648,1.7792e-05,0
47.649,3.5752e-05,0
47.649,5.0019e-05,0
47.65,5.9754e-05,0
47.65,6.5629e-05,0
47.651,6.6804e-05,0
47.651,6.5965e-05,0
47.652,6.9993e-05,0
47.652,7.335e-05,0
47.653,7.2343e-05,0
47.653,6.8482e-05,0
47.654,5.8244e-05,0
47.654,4.1459e-05,0
47.655,2.6184e-05,0
47.656,1.5106e-05,0
47.656,3.8605e-06,0
47.657,-1.1917e-05,0
47.657,-3.4745e-05,0
47.658,-5.7404e-05,0
47.658,-6.9993e-05,0
47.659,-6.6972e-05,0
47.659,-4.7333e-05,0
47.66,-7.0497e-06,0
47.66,4.0452e-05,0
47.661,8.1071e-05,0
47.661,0.00011783,0
47.662,0.0001509,0
47.662,0.00017121,0
47.663,0.00017758,0
47.663,0.00017876,0
47.664,0.00018061,0
47.664,0.00017356,0
47.665,0.00014217,0
47.665,8.896e-05,0
47.666,2.7359e-05,0
47.666,-2.7192e-05,0
47.667,-6.0258e-05,0
47.667,-6.9657e-05,0
47.668,-6.4118e-05,0
47.669,-5.539e-05,0
47.669,-5.069e-05,0
47.67,-5.0523e-05,0
47.67,-5.1865e-05,0
47.671,-5.1362e-05,0
47.671,-4.8844e-05,0
47.672,-4.2802e-05,0
47.672,-3.3066e-05,0
47.673,-2.2995e-05,0
47.673,-1.2085e-05,0
47.674,-1.8463e-06,0
47.674,4.5319e-06,0
47.675,8.5603e-06,0
47.675,1.3596e-05,0
47.676,1.796e-05,0
47.676,2.1317e-05,0
47.677,1.796e-05,0
47.677,6.2104e-06,0
47.678,-3.5248e-06,0
47.678,-4.5319e-06,0
47.679,-2.182e-06,0
47.679,-5.2033e-06,0
47.68,-7.3854e-06,0
47.68,-2.5177e-06,0
47.681,6.5461e-06,0
47.681,1.8128e-05,0
47.682,3.0716e-05,0
47.683,4.3809e-05,0
47.683,5.5558e-05,0
47.684,6.6133e-05,0
47.684,7.2511e-05,0
47.685,7.1839e-05,0
47.685,6.5965e-05,0
47.686,5.9922e-05,0
47.686,5.6062e-05,0
47.687,5.3544e-05,0
47.687,4.683e-05,0
47.688,3.2059e-05,0
47.688,1.3931e-05,0
47.689,2.5177e-06,0
47.689,2.0142e-06,0
47.69,8.896e-06,0
47.69,1.5274e-05,0
47.691,1.796e-05,0
47.691,1.6617e-05,0
47.692,8.896e-06,0
47.692,-5.8747e-06,0
47.693,-2.1149e-05,0
47.693,-2.652e-05,0
47.694,-2.3331e-05,0
47.694,-1.5106e-05,0
47.695,-4.5319e-06,0
47.696,3.1891e-06,0
47.696,5.539e-06,0
47.697,4.8676e-06,0
47.697,0,0
47.698,-3.1891e-06,0
47.698,5.2033e-06,0
47.699,2.7192e-05,0
47.699,5.3544e-05,0
47.7,6.6972e-05,0
47.7,6.6804e-05,0
47.701,7.1504e-05,0
47.701,8.7617e-05,0
47.702,0.00010256,0
47.702,0.00010457,0
47.703,8.5771e-05,0
47.703,5.2537e-05,0
47.704,2.5177e-05,0
47.704,9.3996e-06,0
47.705,-5.0355e-06,0
47.705,-1.8967e-05,0
47.706,-2.3667e-05,0
47.706,-1.561e-05,0
47.707,-5.0355e-07,0
47.707,1.1749e-05,0
47.708,1.0239e-05,0
47.708,-2.6856e-06,0
47.709,-1.2421e-05,0
47.71,-9.5674e-06,0
47.71,7.3854e-06,0
47.711,2.9709e-05,0
47.711,4.5991e-05,0
47.712,5.3544e-05,0
47.712,5.3376e-05,0
47.713,4.4144e-05,0
47.713,2.9709e-05,0
47.714,1.2589e-05,0
47.714,-2.8534e-06,0
47.715,-8.5603e-06,0
47.715,-7.3854e-06,0
47.716,-8.0568e-06,0
47.716,-1.4435e-05,0
47.717,-2.7192e-05,0
47.717,-4.7837e-05,0
47.718,-6.6636e-05,0
47.718,-6.6636e-05,0
47.719,-5.0858e-05,0
47.719,-3.3738e-05,0
47.72,-1.8967e-05,0
47.72,-8.3925e-07,0
47.721,2.0478e-05,0
47.721,3.743e-05,0
47.722,4.8173e-05,0
47.722,6.0426e-05,0
47.723,8.1743e-05,0
47.724,0.00011531,0
47.724,0.0001462,0
47.725,0.0001514,0
47.725,0.00012706,0
47.726,8.6778e-05,0
47.726,4.6494e-05,0
47.727,1.6617e-05,0
47.727,5.2033e-06,0
47.728,9.0639e-06,0
47.728,9.7353e-06,0
47.729,4.5319e-06,0
47.729,4.1962e-06,0
47.73,1.2421e-05,0
47.73,2.1317e-05,0
47.731,2.5681e-05,0
47.731,2.9038e-05,0
47.732,3.3906e-05,0
47.732,3.9948e-05,0
47.733,4.1962e-05,0
47.733,3.6088e-05,0
47.734,2.6352e-05,0
47.734,1.2924e-05,0
47.735,-1.8463e-06,0
47.735,-1.7624e-05,0
47.736,-3.508e-05,0
47.737,-5.1362e-05,0
47.737,-6.0594e-05,0
47.738,-5.9586e-05,0
47.738,-5.7237e-05,0
47.739,-5.6901e-05,0
47.739,-5.3544e-05,0
47.74,-4.5487e-05,0
47.74,-3.2731e-05,0
47.741,-1.7624e-05,0
47.741,-5.539e-06,0
47.742,2.6856e-06,0
47.742,1.0575e-05,0
47.743,1.5106e-05,0
47.743,1.1917e-05,0
47.744,1.1414e-05,0
47.744,2.2156e-05,0
47.745,3.4241e-05,0
47.745,4.062e-05,0
47.746,5.1194e-05,0
47.746,6.9657e-05,0
47.747,9.0135e-05,0
47.747,0.0001086,0
47.748,0.0001227,0
47.748,0.00012958,0
47.749,0.00013092,0
47.749,0.00012538,0
47.75,0.00011196,0
47.751,9.1142e-05,0
47.751,6.5629e-05,0
47.752,4.213e-05,0
47.752,2.5681e-05,0
47.753,1.5442e-05,0
47.753,1.0575e-05,0
47.754,5.7069e-06,0
47.754,-1.3428e-06,0
47.755,-7.7211e-06,0
47.755,-9.9031e-06,0
47.756,-1.0575e-05,0
47.756,-1.1917e-05,0
47.757,-1.2924e-05,0
47.757,-1.1582e-05,0
47.758,-9.0639e-06,0
47.758,-5.539e-06,0
47.759,-3.5248e-06,0
47.759,-3.8605e-06,0
47.76,-5.0355e-06,0
47.76,-5.8747e-06,0
47.761,-6.8818e-06,0
47.761,-7.5532e-06,0
47.762,-1.0071e-05,0
47.762,-1.8799e-05,0
47.763,-3.3738e-05,0
47.764,-4.5319e-05,0
47.764,-4.9012e-05,0
47.765,-4.5487e-05,0
47.765,-4.4144e-05,0
47.766,-4.5487e-05,0
47.766,-3.8773e-05,0
47.767,-2.1653e-05,0
47.767,-8.3925e-07,0
47.768,1.7288e-05,0
47.768,3.6423e-05,0
47.769,5.7069e-05,0
47.769,7.805e-05,0
47.77,9.5842e-05,0
47.77,0.00010289,0
47.771,9.9199e-05,0
47.771,8.7114e-05,0
47.772,7.4861e-05,0
47.772,6.3447e-05,0
47.773,5.1362e-05,0
47.773,3.9948e-05,0
47.774,3.4745e-05,0
47.774,3.2731e-05,0
47.775,3.1388e-05,0
47.775,2.9374e-05,0
47.776,2.3667e-05,0
47.776,1.4435e-05,0
47.777,1.0575e-05,0
47.778,1.7624e-05,0
47.778,2.6352e-05,0
47.779,2.9374e-05,0
47.779,2.9709e-05,0
47.78,3.0884e-05,0
47.78,3.0381e-05,0
47.781,2.7359e-05,0
47.781,2.6184e-05,0
47.782,2.4842e-05,0
47.782,2.4002e-05,0
47.783,2.5513e-05,0
47.783,2.9038e-05,0
47.784,2.7863e-05,0
47.784,1.6953e-05,0
47.785,-3.5248e-06,0
47.785,-2.7359e-05,0
47.786,-3.9948e-05,0
47.786,-3.0381e-05,0
47.787,-7.8889e-06,0
47.787,6.714e-06,0
47.788,1.1749e-06,0
47.788,-1.4939e-05,0
47.789,-3.508e-05,0
47.789,-5.623e-05,0
47.79,-6.9993e-05,0
47.791,-6.4958e-05,0
47.791,-4.1459e-05,0
47.792,-1.326e-05,0
47.792,5.2033e-06,0
47.793,1.0575e-05,0
47.793,1.0575e-05,0
47.794,1.2924e-05,0
47.794,2.5513e-05,0
47.795,4.8173e-05,0
47.795,7.4357e-05,0
47.796,9.4499e-05,0
47.796,0.00010893,0
47.797,0.00011548,0
47.797,0.00011246,0
47.798,0.00010507,0
47.798,9.6513e-05,0
47.799,9.5506e-05,0
47.799,0.00010188,0
47.8,0.00010558,0
47.8,9.7856e-05,0
47.801,8.04e-05,0
47.801,6.0929e-05,0
47.802,5.153e-05,0
47.802,5.2033e-05,0
47.803,5.4383e-05,0
47.803,5.4719e-05,0
47.804,5.4047e-05,0
47.805,5.5894e-05,0
47.805,5.6733e-05,0
47.806,5.2033e-05,0
47.806,4.448e-05,0
47.807,3.8102e-05,0
47.807,3.743e-05,0
47.808,4.1123e-05,0
47.808,3.7766e-05,0
47.809,2.0981e-05,0
47.809,-5.2033e-06,0
47.81,-3.5752e-05,0
47.81,-6.5293e-05,0
47.811,-8.9296e-05,0
47.811,-0.00010591,0
47.812,-0.00011766,0
47.812,-0.00012706,0
47.813,-0.00013176,0
47.813,-0.00012454,0
47.814,-0.00010726,0
47.814,-9.1814e-05,0
47.815,-8.6946e-05,0
47.815,-8.6107e-05,0
47.816,-8.1743e-05,0
47.816,-7.1336e-05,0
47.817,-5.4887e-05,0
47.818,-3.4913e-05,0
47.818,-1.5946e-05,0
47.819,6.714e-07,0
47.819,1.2924e-05,0
47.82,1.3931e-05,0
47.82,4.6998e-06,0
47.821,-5.0355e-07,0
47.821,8.5603e-06,0
47.822,2.6688e-05,0
47.822,4.3809e-05,0
47.823,5.8579e-05,0
47.823,7.0329e-05,0
47.824,8.3421e-05,0
47.824,9.9199e-05,0
47.825,0.00011128,0
47.825,0.00011917,0
47.826,0.00012471,0
47.826,0.00013143,0
47.827,0.00013411,0
47.827,0.00012136,0
47.828,9.4499e-05,0
47.828,6.1936e-05,0
47.829,2.8031e-05,0
47.829,-8.3925e-07,0
47.83,-2.0645e-05,0
47.831,-3.3234e-05,0
47.831,-3.7766e-05,0
47.832,-3.5752e-05,0
47.832,-3.3402e-05,0
47.833,-3.8102e-05,0
47.833,-4.7669e-05,0
47.834,-5.0355e-05,0
47.834,-3.8605e-05,0
47.835,-1.8631e-05,0
47.835,1.5106e-06,0
47.836,2.031e-05,0
47.836,3.8773e-05,0
47.837,5.4551e-05,0
47.837,6.5797e-05,0
47.838,7.4189e-05,0
47.838,8.275e-05,0
47.839,8.896e-05,0
47.839,8.8457e-05,0
47.84,8.4764e-05,0
47.84,7.9393e-05,0
47.841,6.6972e-05,0
47.841,4.9851e-05,0
47.842,3.4745e-05,0
47.842,2.4674e-05,0
47.843,2.1317e-05,0
47.843,2.4002e-05,0
47.844,2.9709e-05,0
47.845,3.1724e-05,0
47.845,2.6017e-05,0
47.846,1.9806e-05,0
47.846,1.7624e-05,0
47.847,1.5274e-05,0
47.847,5.2033e-06,0
47.848,-8.2246e-06,0
47.848,-1.6617e-05,0
47.849,-1.5946e-05,0
47.849,-4.3641e-06,0
47.85,1.326e-05,0
47.85,3.1556e-05,0
47.851,4.683e-05,0
47.851,5.5558e-05,0
47.852,6.2943e-05,0
47.852,7.6204e-05,0
47.853,8.7114e-05,0
47.853,8.7449e-05,0
47.854,7.9896e-05,0
47.854,6.8315e-05,0
47.855,5.6901e-05,0
47.855,4.5151e-05,0
47.856,3.122e-05,0
47.856,2.266e-05,0
47.857,2.3331e-05,0
47.858,2.5681e-05,0
47.858,1.9471e-05,0
47.859,6.3783e-06,0
47.859,-8.896e-06,0
47.86,-2.4338e-05,0
47.86,-3.1891e-05,0
47.861,-2.4674e-05,0
47.861,-8.2246e-06,0
47.862,5.8747e-06,0
47.862,1.2421e-05,0
47.863,1.3764e-05,0
47.863,9.2317e-06,0
47.864,-2.8534e-06,0
47.864,-1.6953e-05,0
47.865,-2.8367e-05,0
47.865,-3.8605e-05,0
47.866,-4.5319e-05,0
47.866,-4.4144e-05,0
47.867,-3.5248e-05,0
47.867,-2.4002e-05,0
47.868,-1.2924e-05,0
47.868,-5.539e-06,0
47.869,-6.5461e-06,0
47.869,-1.1917e-05,0
47.87,-1.5106e-05,0
47.87,-1.2757e-05,0
47.871,-1.8463e-06,0
47.872,1.5946e-05,0
47.872,3.5416e-05,0
47.873,4.9012e-05,0
47.873,5.5558e-05,0
47.874,5.7908e-05,0
47.874,6.0258e-05,0
47.875,6.1936e-05,0
47.875,6.0258e-05,0
47.876,5.5558e-05,0
47.876,4.7166e-05,0
47.877,3.0884e-05,0
47.877,1.2924e-05,0
47.878,1.5106e-06,0
47.878,2.0142e-06,0
47.879,1.6617e-05,0
47.879,3.8437e-05,0
47.88,5.6901e-05,0
47.88,6.6468e-05,0
47.881,7.2847e-05,0
47.881,8.51e-05,0
47.882,9.3828e-05,0
47.882,7.5532e-05,0
47.883,3.508e-05,0
47.883,-5.0355e-07,0
47.884,-2.0645e-05,0
47.885,-3.0716e-05,0
47.885,-3.6423e-05,0
47.886,-4.0452e-05,0
47.886,-4.5151e-05,0
47.887,-5.2537e-05,0
47.887,-5.4719e-05,0
47.888,-4.7166e-05,0
47.888,-3.2395e-05,0
47.889,-1.4939e-05,0
47.889,3.5248e-06,0
47.89,1.9974e-05,0
47.89,3.3738e-05,0
47.891,4.2298e-05,0
47.891,4.5151e-05,0
47.892,4.5487e-05,0
47.892,4.4816e-05,0
47.893,4.4984e-05,0
47.893,4.5823e-05,0
47.894,4.5319e-05,0
47.894,4.4312e-05,0
47.895,4.5319e-05,0
47.895,4.7166e-05,0
47.896,4.3641e-05,0
47.896,3.357e-05,0
47.897,1.796e-05,0
47.897,2.5177e-06,0
47.898,-3.8605e-06,0
47.899,5.0355e-06,0
47.899,1.9303e-05,0
47.9,3.1724e-05,0
47.9,4.0787e-05,0
47.901,4.6159e-05,0
47.901,5.1194e-05,0
47.902,5.4719e-05,0
47.902,5.0858e-05,0
47.903,4.1459e-05,0
47.903,3.508e-05,0
47.904,3.5416e-05,0
47.904,3.5752e-05,0
47.905,3.1052e-05,0
47.905,1.7121e-05,0
47.906,-7.5532e-06,0
47.906,-3.7766e-05,0
47.907,-6.2608e-05,0
47.907,-7.7882e-05,0
47.908,-8.2918e-05,0
47.908,-7.6707e-05,0
47.909,-6.4118e-05,0
47.909,-5.304e-05,0
47.91,-4.6662e-05,0
47.91,-4.0452e-05,0
47.911,-3.2059e-05,0
47.911,-1.7624e-05,0
47.912,2.6856e-06,0
47.913,2.182e-05,0
47.913,3.7095e-05,0
47.914,4.6159e-05,0
47.914,4.9851e-05,0
47.915,5.2033e-05,0
47.915,5.8915e-05,0
47.916,7.6204e-05,0
47.916,9.8527e-05,0
47.917,0.00011934,0
47.917,0.00013545,0
47.918,0.00014015,0
47.918,0.00013008,0
47.919,0.0001091,0
47.919,8.4092e-05,0
47.92,6.2776e-05,0
47.92,5.1698e-05,0
47.921,5.0858e-05,0
47.921,5.0187e-05,0
47.922,3.7095e-05,0
47.922,1.1582e-05,0
47.923,-1.3092e-05,0
47.923,-2.8702e-05,0
47.924,-3.5248e-05,0
47.924,-3.827e-05,0
47.925,-4.1291e-05,0
47.926,-3.978e-05,0
47.926,-3.1891e-05,0
47.927,-2.0981e-05,0
47.927,-1.3931e-05,0
47.928,-1.1582e-05,0
47.928,-7.2175e-06,0
47.929,5.8747e-06,0
47.929,2.4842e-05,0
47.93,3.743e-05,0
47.93,3.7095e-05,0
47.931,2.6688e-05,0
47.931,1.2589e-05,0
47.932,-2.3499e-06,0
47.932,-1.5946e-05,0
47.933,-1.9974e-05,0
47.933,-1.2589e-05,0
47.934,-6.714e-07,0
47.934,7.7211e-06,0
47.935,9.5674e-06,0
47.935,1.6114e-05,0
47.936,3.4913e-05,0
47.936,5.7908e-05,0
47.937,7.335e-05,0
47.937,7.8889e-05,0
47.938,7.2175e-05,0
47.938,5.2369e-05,0
47.939,2.3499e-05,0
47.94,-4.5319e-06,0
47.94,-2.3499e-05,0
47.941,-3.1556e-05,0
47.941,-3.1724e-05,0
47.942,-2.5681e-05,0
47.942,-1.2253e-05,0
47.943,4.0284e-06,0
47.943,1.5946e-05,0
47.944,2.1149e-05,0
47.944,2.1149e-05,0
47.945,2.1988e-05,0
47.945,2.2995e-05,0
47.946,1.9303e-05,0
47.946,9.5674e-06,0
47.947,-1.5106e-06,0
47.947,-8.896e-06,0
47.948,-1.326e-05,0
47.948,-1.5778e-05,0
47.949,-1.561e-05,0
47.949,-1.3764e-05,0
47.95,-1.3596e-05,0
47.95,-1.091e-05,0
47.951,-3.357e-06,0
47.951,6.8818e-06,0
47.952,1.7288e-05,0
47.953,2.9374e-05,0
47.953,4.062e-05,0
47.954,5.069e-05,0
47.954,5.8244e-05,0
47.955,6.1769e-05,0
47.955,6.4286e-05,0
47.956,6.714e-05,0
47.956,6.9657e-05,0
47.957,7.4693e-05,0
47.957,8.5267e-05,0
47.958,9.1478e-05,0
47.958,8.3925e-05,0
47.959,6.5461e-05,0
47.959,4.5991e-05,0
47.96,3.122e-05,0
47.96,2.2995e-05,0
47.961,2.5681e-05,0
47.961,3.7263e-05,0
47.962,4.5151e-05,0
47.962,3.978e-05,0
47.963,2.1988e-05,0
47.963,-2.8534e-06,0
47.964,-2.501e-05,0
47.964,-3.9612e-05,0
47.965,-4.6159e-05,0
47.965,-4.7166e-05,0
47.966,-3.978e-05,0
47.967,-2.501e-05,0
47.967,-1.1246e-05,0
47.968,-1.6785e-06,0
47.968,1.1414e-05,0
47.969,3.2059e-05,0
47.969,5.6901e-05,0
47.97,7.6036e-05,0
47.97,8.6442e-05,0
47.971,9.4499e-05,0
47.971,0.00010356,0
47.972,0.00010776,0
47.972,9.9199e-05,0
47.973,7.4357e-05,0
47.973,4.3809e-05,0
47.974,1.8799e-05,0
47.974,1.6785e-06,0
47.975,-1.091e-05,0
47.975,-1.8799e-05,0
47.976,-2.4506e-05,0
47.976,-3.2395e-05,0
47.977,-3.9445e-05,0
47.977,-4.0787e-05,0
47.978,-3.1724e-05,0
47.978,-1.796e-05,0
47.979,-6.8818e-06,0
47.98,-1.6785e-06,0
47.98,-2.8534e-06,0
47.981,-7.5532e-06,0
47.981,-1.3596e-05,0
47.982,-1.6953e-05,0
47.982,-1.2085e-05,0
47.983,2.182e-06,0
47.983,1.9471e-05,0
47.984,3.2395e-05,0
47.984,3.9109e-05,0
47.985,3.8102e-05,0
47.985,3.2731e-05,0
47.986,2.8031e-05,0
47.986,2.6688e-05,0
47.987,3.1052e-05,0
47.987,4.2634e-05,0
47.988,5.6565e-05,0
47.988,6.2104e-05,0
47.989,5.8244e-05,0
47.989,5.153e-05,0
47.99,4.3473e-05,0
47.99,3.4913e-05,0
47.991,2.652e-05,0
47.991,1.6953e-05,0
47.992,7.2175e-06,0
47.992,6.714e-07,0
47.993,-2.8534e-06,0
47.994,-6.0426e-06,0
47.994,-7.7211e-06,0
47.995,-5.8747e-06,0
47.995,-1.1749e-06,0
47.996,5.8747e-06,0
47.996,1.2589e-05,0
47.997,1.3092e-05,0
47.997,9.7353e-06,0
47.998,7.8889e-06,0
47.998,9.7353e-06,0
47.999,1.3428e-05,0
47.999,1.6785e-05,0
48,1.9638e-05,0
48,2.1317e-05,0
48.001,2.0478e-05,0
48.001,1.5106e-05,0
48.002,9.2317e-06,0
48.002,6.8818e-06,0
48.003,6.2104e-06,0
48.003,3.8605e-06,0
48.004,-3.1891e-06,0
48.004,-8.896e-06,0
48.005,-4.1962e-06,0
48.005,9.2317e-06,0
48.006,1.9303e-05,0
48.007,2.4002e-05,0
48.007,2.5177e-05,0
48.008,2.0478e-05,0
48.008,1.2253e-05,0
48.009,7.8889e-06,0
48.009,1.1078e-05,0
48.01,1.8296e-05,0
48.01,2.3331e-05,0
48.011,2.5513e-05,0
48.011,2.8367e-05,0
48.012,3.8773e-05,0
48.012,5.3544e-05,0
48.013,6.0258e-05,0
48.013,5.5894e-05,0
48.014,5.153e-05,0
48.014,5.2873e-05,0
48.015,5.5222e-05,0
48.015,5.3544e-05,0
48.016,4.9516e-05,0
48.016,4.8844e-05,0
48.017,5.3208e-05,0
48.017,5.9083e-05,0
48.018,6.0761e-05,0
48.018,5.4215e-05,0
48.019,4.1123e-05,0
48.02,2.6688e-05,0
48.02,1.3931e-05,0
48.021,4.8676e-06,0
48.021,2.5177e-06,0
48.022,1.1749e-06,0
48.022,-4.5319e-06,0
48.023,-1.1246e-05,0
48.023,-1.2589e-05,0
48.024,-1.3596e-05,0
48.024,-2.2324e-05,0
48.025,-3.4745e-05,0
48.025,-3.8437e-05,0
48.026,-3.2395e-05,0
48.026,-2.8702e-05,0
48.027,-2.8367e-05,0
48.027,-2.4338e-05,0
48.028,-1.7792e-05,0
48.028,-1.9135e-05,0
48.029,-2.9038e-05,0
48.029,-2.9038e-05,0
48.03,-6.2104e-06,0
48.03,2.8367e-05,0
48.031,5.623e-05,0
48.031,7.2007e-05,0
48.032,7.5868e-05,0
48.032,7.2007e-05,0
48.033,6.6972e-05,0
48.034,6.2272e-05,0
48.034,6.009e-05,0
48.035,6.2943e-05,0
48.035,6.9993e-05,0
48.036,7.9561e-05,0
48.036,8.4428e-05,0
48.037,8.0735e-05,0
48.037,6.9657e-05,0
48.038,5.7237e-05,0
48.038,4.7837e-05,0
48.039,3.9445e-05,0
48.039,2.6184e-05,0
48.04,8.7282e-06,0
48.04,-1.0071e-05,0
48.041,-2.7024e-05,0
48.041,-3.9445e-05,0
48.042,-4.5823e-05,0
48.042,-4.6494e-05,0
48.043,-4.3137e-05,0
48.043,-3.6088e-05,0
48.044,-2.8367e-05,0
48.044,-2.2492e-05,0
48.045,-1.8463e-05,0
48.045,-1.4435e-05,0
48.046,-9.5674e-06,0
48.047,-4.3641e-06,0
48.047,-1.1749e-06,0
48.048,-6.714e-07,0
48.048,6.714e-07,0
48.049,5.7069e-06,0
48.049,1.2757e-05,0
48.05,2.0478e-05,0
48.05,2.6688e-05,0
48.051,2.5681e-05,0
48.051,1.7288e-05,0
48.052,1.1582e-05,0
48.052,9.9031e-06,0
48.053,1.1917e-05,0
48.053,1.5442e-05,0
48.054,1.8631e-05,0
48.054,2.3331e-05,0
48.055,3.592e-05,0
48.055,5.2369e-05,0
48.056,6.479e-05,0
48.056,7.4022e-05,0
48.057,7.9896e-05,0
48.057,7.7043e-05,0
48.058,6.2943e-05,0
48.058,4.2466e-05,0
48.059,1.8128e-05,0
48.059,-4.8676e-06,0
48.06,-2.4842e-05,0
48.061,-4.0116e-05,0
48.061,-4.9683e-05,0
48.062,-4.9851e-05,0
48.062,-3.8941e-05,0
48.063,-1.8967e-05,0
48.063,4.5319e-06,0
48.064,2.9709e-05,0
48.064,5.4551e-05,0
48.065,7.3182e-05,0
48.065,7.9057e-05,0
48.066,7.4357e-05,0
48.066,6.4958e-05,0
48.067,5.8915e-05,0
48.067,5.8915e-05,0
48.068,5.8915e-05,0
48.068,5.3544e-05,0
48.069,4.3977e-05,0
48.069,3.2227e-05,0
48.07,2.4002e-05,0
48.07,1.9303e-05,0
48.071,1.6785e-05,0
48.071,1.2253e-05,0
48.072,6.5461e-06,0
48.072,6.8818e-06,0
48.073,1.4939e-05,0
48.074,2.4002e-05,0
48.074,2.7024e-05,0
48.075,1.8967e-05,0
48.075,1.6785e-06,0
48.076,-1.6617e-05,0
48.076,-2.2324e-05,0
48.077,-1.4267e-05,0
48.077,5.0355e-07,0
48.078,1.6449e-05,0
48.078,2.6688e-05,0
48.079,3.2395e-05,0
48.079,3.8437e-05,0
48.08,4.8173e-05,0
48.08,6.2104e-05,0
48.081,7.4693e-05,0
48.081,8.5267e-05,0
48.082,9.7353e-05,0
48.082,0.0001039,0
48.083,0.00010323,0
48.083,9.9199e-05,0
48.084,9.0639e-05,0
48.084,7.6707e-05,0
48.085,5.8244e-05,0
48.085,4.062e-05,0
48.086,2.1317e-05,0
48.086,-1.6785e-06,0
48.087,-2.4002e-05,0
48.088,-3.7766e-05,0
48.088,-4.0116e-05,0
48.089,-4.3473e-05,0
48.089,-5.1362e-05,0
48.09,-5.6062e-05,0
48.09,-5.5222e-05,0
48.091,-5.304e-05,0
48.091,-5.388e-05,0
48.092,-5.2537e-05,0
48.092,-4.1627e-05,0
48.093,-2.7695e-05,0
48.093,-2.5849e-05,0
48.094,-3.8437e-05,0
48.094,-5.8747e-05,0
48.095,-7.7379e-05,0
48.095,-8.4092e-05,0
48.096,-8.0064e-05,0
48.096,-6.9322e-05,0
48.097,-5.8915e-05,0
48.097,-5.1194e-05,0
48.098,-3.7263e-05,0
48.098,-1.1749e-05,0
48.099,2.266e-05,0
48.099,5.8579e-05,0
48.1,8.9799e-05,0
48.1,0.00010893,0
48.101,0.00011263,0
48.102,0.0001086,0
48.102,0.00010809,0
48.103,0.00010759,0
48.103,9.6849e-05,0
48.104,8.4428e-05,0
48.104,8.3421e-05,0
48.105,8.8289e-05,0
48.105,8.51e-05,0
48.106,7.4525e-05,0
48.106,6.244e-05,0
48.107,5.2873e-05,0
48.107,4.8676e-05,0
48.108,4.7166e-05,0
48.108,4.1627e-05,0
48.109,3.0549e-05,0
48.109,1.5106e-05,0
48.11,-7.5532e-06,0
48.11,-3.4073e-05,0
48.111,-5.1865e-05,0
48.111,-5.4215e-05,0
48.112,-4.7837e-05,0
48.112,-3.8437e-05,0
48.113,-2.8367e-05,0
48.113,-1.7792e-05,0
48.114,-9.5674e-06,0
48.115,-4.6998e-06,0
48.115,4.1962e-06,0
48.116,1.9135e-05,0
48.116,3.3066e-05,0
48.117,3.9445e-05,0
48.117,3.743e-05,0
48.118,3.1724e-05,0
48.118,2.0645e-05,0
48.119,6.5461e-06,0
48.119,-2.182e-06,0
48.12,-2.3499e-06,0
48.12,8.3925e-07,0
48.121,5.2033e-06,0
48.121,1.2924e-05,0
48.122,2.4002e-05,0
48.122,3.5416e-05,0
48.123,4.1123e-05,0
48.123,4.5487e-05,0
48.124,5.7069e-05,0
48.124,7.1839e-05,0
48.125,7.6371e-05,0
48.125,6.7643e-05,0
48.126,5.2033e-05,0
48.126,3.7095e-05,0
48.127,2.7695e-05,0
48.127,2.4674e-05,0
48.128,2.5345e-05,0
48.129,2.652e-05,0
48.129,2.5345e-05,0
48.13,2.4674e-05,0
48.13,2.4674e-05,0
48.131,2.2995e-05,0
48.131,2.266e-05,0
48.132,2.3331e-05,0
48.132,2.031e-05,0
48.133,1.1582e-05,0
48.133,6.714e-07,0
48.134,-6.5461e-06,0
48.134,-8.2246e-06,0
48.135,-2.5177e-06,0
48.135,1.0239e-05,0
48.136,2.5345e-05,0
48.136,3.743e-05,0
48.137,4.4816e-05,0
48.137,4.6494e-05,0
48.138,4.5655e-05,0
48.138,4.8844e-05,0
48.139,5.7572e-05,0
48.139,6.6972e-05,0
48.14,7.5029e-05,0
48.14,7.6371e-05,0
48.141,6.5461e-05,0
48.142,4.4144e-05,0
48.142,1.8967e-05,0
48.143,-3.8605e-06,0
48.143,-1.8967e-05,0
48.144,-2.5681e-05,0
48.144,-2.9709e-05,0
48.145,-3.357e-05,0
48.145,-3.4073e-05,0
48.146,-2.7359e-05,0
48.146,-1.7121e-05,0
48.147,-1.091e-05,0
48.147,-8.896e-06,0
48.148,-6.5461e-06,0
48.148,-3.1891e-06,0
48.149,2.0142e-06,0
48.149,1.3092e-05,0
48.15,2.8367e-05,0
48.15,4.2802e-05,0
48.151,5.2369e-05,0
48.151,5.6565e-05,0
48.152,5.8747e-05,0
48.152,6.0929e-05,0
48.153,6.2608e-05,0
48.153,6.2272e-05,0
48.154,5.623e-05,0
48.154,4.7333e-05,0
48.155,4.3809e-05,0
48.156,4.8173e-05,0
48.156,5.6565e-05,0
48.157,5.7237e-05,0
48.157,4.5823e-05,0
48.158,2.6017e-05,0
48.158,3.5248e-06,0
48.159,-1.9303e-05,0
48.159,-4.4816e-05,0
48.16,-6.9993e-05,0
48.16,-8.6442e-05,0
48.161,-8.7282e-05,0
48.161,-7.4693e-05,0
48.162,-5.9251e-05,0
48.162,-4.6326e-05,0
48.163,-3.7766e-05,0
48.163,-3.1556e-05,0
48.164,-2.9038e-05,0
48.164,-3.3402e-05,0
48.165,-4.7501e-05,0
48.165,-6.1601e-05,0
48.166,-7.0329e-05,0
48.166,-7.4525e-05,0
48.167,-7.5868e-05,0
48.167,-7.2007e-05,0
48.168,-5.9419e-05,0
48.169,-3.7934e-05,0
48.169,-1.326e-05,0
48.17,1.1246e-05,0
48.17,3.9109e-05,0
48.171,7.3686e-05,0
48.171,0.00011514,0
48.172,0.00016231,0
48.172,0.00020545,0
48.173,0.00023029,0
48.173,0.00022861,0
48.174,0.00021199,0
48.174,0.00019219,0
48.175,0.00016432,0
48.175,0.00012538,0
48.176,7.8386e-05,0
48.176,3.4745e-05,0
48.177,6.0426e-06,0
48.177,-9.0639e-06,0
48.178,-1.8296e-05,0
48.178,-2.1653e-05,0
48.179,-2.2324e-05,0
48.179,-2.1317e-05,0
48.18,-1.796e-05,0
48.18,-1.4771e-05,0
48.181,-1.5274e-05,0
48.181,-1.9974e-05,0
48.182,-2.266e-05,0
48.183,-2.1653e-05,0
48.183,-2.1988e-05,0
48.184,-2.4338e-05,0
48.184,-2.5345e-05,0
48.185,-2.1653e-05,0
48.185,-1.1246e-05,0
48.186,5.539e-06,0
48.186,2.4506e-05,0
48.187,3.7766e-05,0
48.187,4.213e-05,0
48.188,4.213e-05,0
48.188,4.6494e-05,0
48.189,5.2033e-05,0
48.189,5.153e-05,0
48.19,4.7837e-05,0
48.19,4.3137e-05,0
48.191,3.8773e-05,0
48.191,3.1891e-05,0
48.192,2.1149e-05,0
48.192,1.0575e-05,0
48.193,6.2104e-06,0
48.193,8.2246e-06,0
48.194,1.1749e-05,0
48.194,1.326e-05,0
48.195,1.1246e-05,0
48.196,7.8889e-06,0
48.196,6.5461e-06,0
48.197,6.5461e-06,0
48.197,4.3641e-06,0
48.198,3.357e-07,0
48.198,-3.0213e-06,0
48.199,-4.3641e-06,0
48.199,-1.8463e-06,0
48.2,5.2033e-06,0
48.2,1.4603e-05,0
48.201,2.4338e-05,0
48.201,3.1891e-05,0
48.202,3.8773e-05,0
48.202,4.4144e-05,0
48.203,4.9516e-05,0
48.203,5.4383e-05,0
48.204,5.7908e-05,0
48.204,5.2873e-05,0
48.205,3.7934e-05,0
48.205,2.182e-05,0
48.206,1.0575e-05,0
48.206,8.5603e-06,0
48.207,1.3092e-05,0
48.207,1.7792e-05,0
48.208,1.9974e-05,0
48.209,2.0645e-05,0
48.209,2.0645e-05,0
48.21,2.0813e-05,0
48.21,2.0981e-05,0
48.211,2.1653e-05,0
48.211,2.3667e-05,0
48.212,2.652e-05,0
48.212,2.8031e-05,0
48.213,2.6017e-05,0
48.213,2.1317e-05,0
48.214,1.6785e-05,0
48.214,1.1749e-05,0
48.215,7.0497e-06,0
48.215,5.539e-06,0
48.216,1.2253e-05,0
48.216,2.501e-05,0
48.217,3.3402e-05,0
48.217,3.2731e-05,0
48.218,3.0045e-05,0
48.218,3.2395e-05,0
48.219,3.3234e-05,0
48.219,2.7527e-05,0
48.22,1.5946e-05,0
48.22,-1.6785e-06,0
48.221,-2.2492e-05,0
48.221,-3.6088e-05,0
48.222,-3.7095e-05,0
48.223,-3.2395e-05,0
48.223,-3.3906e-05,0
48.224,-4.1794e-05,0
48.224,-4.9851e-05,0
48.225,-5.3208e-05,0
48.225,-5.3208e-05,0
48.226,-5.2033e-05,0
48.226,-4.5487e-05,0
48.227,-2.4842e-05,0
48.227,2.5177e-06,0
48.228,1.7624e-05,0
48.228,2.3499e-05,0
48.229,3.5752e-05,0
48.229,5.7237e-05,0
48.23,7.7379e-05,0
48.23,9.5171e-05,0
48.231,0.00011666,0
48.231,0.00014217,0
48.232,0.00016365,0
48.232,0.00017137,0
48.233,0.00016516,0
48.233,0.00015073,0
48.234,0.0001279,0
48.234,9.4499e-05,0
48.235,5.623e-05,0
48.236,1.8631e-05,0
48.236,-1.2924e-05,0
48.237,-3.8437e-05,0
48.237,-6.3447e-05,0
48.238,-8.9296e-05,0
48.238,-0.00011363,0
48.239,-0.00013176,0
48.239,-0.00013613,0
48.24,-0.00012421,0
48.24,-0.00010138,0
48.241,-7.4022e-05,0
48.241,-4.4816e-05,0
48.242,-1.1917e-05,0
48.242,2.0645e-05,0
48.243,4.448e-05,0
48.243,5.6565e-05,0
48.244,5.9922e-05,0
48.244,6.5629e-05,0
48.245,7.9057e-05,0
48.245,8.5771e-05,0
48.246,7.5029e-05,0
48.246,5.069e-05,0
48.247,2.6352e-05,0
48.247,1.0575e-05,0
48.248,3.8605e-06,0
48.248,-2.0142e-06,0
48.249,-1.1917e-05,0
48.25,-2.0981e-05,0
48.25,-2.2492e-05,0
48.251,-1.9638e-05,0
48.251,-1.7121e-05,0
48.252,-1.1749e-05,0
48.252,-2.8534e-06,0
48.253,6.8818e-06,0
48.253,1.8631e-05,0
48.254,3.357e-05,0
48.254,4.8173e-05,0
48.255,5.6565e-05,0
48.255,5.8244e-05,0
48.256,5.8915e-05,0
48.256,6.009e-05,0
48.257,6.3783e-05,0
48.257,6.8986e-05,0
48.258,6.9657e-05,0
48.258,6.5126e-05,0
48.259,6.0594e-05,0
48.259,5.8244e-05,0
48.26,5.9251e-05,0
48.26,5.7404e-05,0
48.261,4.7501e-05,0
48.261,3.2395e-05,0
48.262,2.5849e-05,0
48.263,3.0716e-05,0
48.263,4.0116e-05,0
48.264,4.4144e-05,0
48.264,3.7095e-05,0
48.265,2.4002e-05,0
48.265,1.1582e-05,0
48.266,2.5177e-06,0
48.266,-3.357e-07,0
48.267,5.539e-06,0
48.267,2.1317e-05,0
48.268,4.0955e-05,0
48.268,5.9922e-05,0
48.269,7.3686e-05,0
48.269,8.1407e-05,0
48.27,8.1407e-05,0
48.27,7.2007e-05,0
48.271,5.2705e-05,0
48.271,2.7024e-05,0
48.272,-4.1962e-06,0
48.272,-3.4745e-05,0
48.273,-6.0426e-05,0
48.273,-7.9393e-05,0
48.274,-8.7617e-05,0
48.274,-8.2582e-05,0
48.275,-6.3279e-05,0
48.275,-3.9109e-05,0
48.276,-1.7288e-05,0
48.277,1.5946e-05,0
48.277,6.5293e-05,0
48.278,0.00011666,0
48.278,0.00015325,0
48.279,0.00016483,0
48.279,0.00015358,0
48.28,0.0001321,0
48.28,0.00010726,0
48.281,7.335e-05,0
48.281,3.0045e-05,0
48.282,-1.0071e-06,0
48.282,-1.4099e-05,0
48.283,-2.0981e-05,0
48.283,-2.7024e-05,0
48.284,-2.9038e-05,0
48.284,-2.2492e-05,0
48.285,-9.5674e-06,0
48.285,1.5106e-06,0
48.286,5.2033e-06,0
48.286,3.0213e-06,0
48.287,-6.8818e-06,0
48.287,-2.3667e-05,0
48.288,-3.8773e-05,0
48.288,-4.4144e-05,0
48.289,-4.1627e-05,0
48.289,-3.508e-05,0
48.29,-2.5681e-05,0
48.291,-1.4939e-05,0
48.291,-6.8818e-06,0
48.292,-2.5177e-06,0
48.292,1.5106e-06,0
48.293,8.2246e-06,0
48.293,1.2924e-05,0
48.294,1.3596e-05,0
48.294,1.3931e-05,0
48.295,1.5778e-05,0
48.295,1.796e-05,0
48.296,1.9303e-05,0
48.296,2.1317e-05,0
48.297,2.9374e-05,0
48.297,4.6998e-05,0
48.298,6.4286e-05,0
48.298,7.1672e-05,0
48.299,7.8721e-05,0
48.299,9.0974e-05,0
48.3,9.836e-05,0
48.3,9.3828e-05,0
48.301,8.1743e-05,0
48.301,6.7308e-05,0
48.302,4.7166e-05,0
48.302,2.8702e-05,0
48.303,2.4674e-05,0
48.304,2.6017e-05,0
48.304,1.9638e-05,0
48.305,1.1749e-06,0
48.305,-2.7024e-05,0
48.306,-5.9251e-05,0
48.306,-8.8121e-05,0
48.307,-0.00011095,0
48.307,-0.00013243,0
48.308,-0.00015157,0
48.308,-0.00015929,0
48.309,-0.00015023,0
48.309,-0.00013227,0
48.31,-0.00011682,0
48.31,-0.00010037,0
48.311,-7.3686e-05,0
48.311,-3.6088e-05,0
48.312,-6.3783e-06,0
48.312,4.8676e-06,0
48.313,9.2317e-06,0
48.313,2.0645e-05,0
48.314,3.9445e-05,0
48.314,5.623e-05,0
48.315,6.5126e-05,0
48.315,6.4286e-05,0
48.316,5.6062e-05,0
48.316,4.8844e-05,0
48.317,4.3305e-05,0
48.318,3.2059e-05,0
48.318,1.561e-05,0
48.319,5.2033e-06,0
48.319,1.8463e-06,0
48.32,1.1749e-06,0
48.32,2.8534e-06,0
48.321,5.8747e-06,0
48.321,9.0639e-06,0
48.322,1.1582e-05,0
48.322,1.0575e-05,0
48.323,1.1582e-05,0
48.323,1.8631e-05,0
48.324,3.1388e-05,0
48.324,5.2537e-05,0
48.325,8.6778e-05,0
48.325,0.00012471,0
48.326,0.00015258,0
48.326,0.00016835,0
48.327,0.00017607,0
48.327,0.00017775,0
48.328,0.00017339,0
48.328,0.00016634,0
48.329,0.00016265,0
48.329,0.00016046,0
48.33,0.00015224,0
48.331,0.00013411,0
48.331,0.0001086,0
48.332,7.8386e-05,0
48.332,4.6159e-05,0
48.333,1.9471e-05,0
48.333,2.8534e-06,0
48.334,-6.8818e-06,0
48.334,-2.0813e-05,0
48.335,-3.9948e-05,0
48.335,-5.2537e-05,0
48.336,-5.388e-05,0
48.336,-4.5487e-05,0
48.337,-3.2898e-05,0
48.337,-2.0478e-05,0
48.338,-7.5532e-06,0
48.338,6.5461e-06,0
48.339,1.2589e-05,0
48.339,8.0568e-06,0
48.34,6.3783e-06,0
48.34,1.4603e-05,0
48.341,2.9206e-05,0
48.341,4.4984e-05,0
48.342,5.153e-05,0
48.342,4.7166e-05,0
48.343,3.978e-05,0
48.343,2.9038e-05,0
48.344,1.6617e-05,0
48.345,6.714e-06,0
48.345,2.8534e-06,0
48.346,5.539e-06,0
48.346,1.0575e-05,0
48.347,1.2253e-05,0
48.347,8.0568e-06,0
48.348,1.6785e-07,0
48.348,-7.2175e-06,0
48.349,-1.091e-05,0
48.349,-1.1917e-05,0
48.35,-1.4603e-05,0
48.35,-1.7288e-05,0
48.351,-1.5274e-05,0
48.351,-1.5106e-05,0
48.352,-2.0981e-05,0
48.352,-2.417e-05,0
48.353,-1.5274e-05,0
48.353,3.5248e-06,0
48.354,1.9974e-05,0
48.354,2.9206e-05,0
48.355,3.5752e-05,0
48.355,3.8437e-05,0
48.356,3.4745e-05,0
48.356,2.4338e-05,0
48.357,9.3996e-06,0
48.358,-6.3783e-06,0
48.358,-1.9471e-05,0
48.359,-2.9709e-05,0
48.359,-3.5752e-05,0
48.36,-3.6255e-05,0
48.36,-3.0716e-05,0
48.361,-1.8967e-05,0
48.361,-5.0355e-06,0
48.362,1.0575e-05,0
48.362,2.887e-05,0
48.363,4.7501e-05,0
48.363,6.3951e-05,0
48.364,7.9728e-05,0
48.364,9.7017e-05,0
48.365,0.00011263,0
48.365,0.00012186,0
48.366,0.00012337,0
48.366,0.00011733,0
48.367,0.00010507,0
48.367,9.0471e-05,0
48.368,7.2007e-05,0
48.368,4.7837e-05,0
48.369,2.1317e-05,0
48.369,-1.1749e-06,0
48.37,-1.8799e-05,0
48.37,-3.3402e-05,0
48.371,-4.1459e-05,0
48.372,-3.6423e-05,0
48.372,-1.3931e-05,0
48.373,1.2589e-05,0
48.373,2.8702e-05,0
48.374,2.9206e-05,0
48.374,1.7121e-05,0
48.375,0,0
48.375,-9.5674e-06,0
48.376,-1.5106e-06,0
48.376,1.2924e-05,0
48.377,1.4603e-05,0
48.377,9.5674e-06,0
48.378,1.0575e-05,0
48.378,5.7069e-06,0
48.379,-1.796e-05,0
48.379,-4.8844e-05,0
48.38,-6.6468e-05,0
48.38,-7.1672e-05,0
48.381,-7.8721e-05,0
48.381,-9.0135e-05,0
48.382,-9.6513e-05,0
48.382,-9.1981e-05,0
48.383,-8.3589e-05,0
48.383,-8.2078e-05,0
48.384,-8.04e-05,0
48.385,-6.5797e-05,0
48.385,-3.5752e-05,0
48.386,-4.8676e-06,0
48.386,1.6281e-05,0
48.387,3.0884e-05,0
48.387,4.2298e-05,0
48.388,4.5487e-05,0
48.388,3.6088e-05,0
48.389,1.8631e-05,0
48.389,4.1962e-06,0
48.39,-4.5319e-06,0
48.39,-8.5603e-06,0
48.391,-6.2104e-06,0
48.391,6.2104e-06,0
48.392,2.4842e-05,0
48.392,4.2802e-05,0
48.393,6.1601e-05,0
48.393,8.2078e-05,0
48.394,9.9199e-05,0
48.394,0.00011196,0
48.395,0.00011766,0
48.395,0.0001185,0
48.396,0.00011582,0
48.396,0.00010658,0
48.397,9.0471e-05,0
48.398,6.7643e-05,0
48.398,4.5151e-05,0
48.399,2.9038e-05,0
48.399,2.1317e-05,0
48.4,2.2492e-05,0
48.4,2.9206e-05,0
48.401,4.0452e-05,0
48.401,5.4047e-05,0
48.402,6.6636e-05,0
48.402,7.3854e-05,0
48.403,7.6204e-05,0
48.403,7.3518e-05,0
48.404,6.4118e-05,0
48.404,5.3544e-05,0
48.405,4.5655e-05,0
48.405,3.5752e-05,0
48.406,2.1317e-05,0
48.406,7.5532e-06,0
48.407,5.0355e-07,0
48.407,2.3499e-06,0
48.408,9.3996e-06,0
48.408,2.0813e-05,0
48.409,3.508e-05,0
48.409,4.8173e-05,0
48.41,5.6901e-05,0
48.41,6.0258e-05,0
48.411,5.7572e-05,0
48.412,5.5558e-05,0
48.412,5.8915e-05,0
48.413,6.1265e-05,0
48.413,5.3544e-05,0
48.414,3.8437e-05,0
48.414,2.4002e-05,0
48.415,1.1917e-05,0
48.415,-2.8534e-06,0
48.416,-2.2995e-05,0
48.416,-4.1459e-05,0
48.417,-5.5894e-05,0
48.417,-6.8315e-05,0
48.418,-7.3518e-05,0
48.418,-6.8986e-05,0
48.419,-5.623e-05,0
48.419,-3.508e-05,0
48.42,-6.8818e-06,0
48.42,2.1317e-05,0
48.421,4.5151e-05,0
48.421,6.5965e-05,0
48.422,8.3925e-05,0
48.422,9.5506e-05,0
48.423,0.00010054,0
48.423,0.00010172,0
48.424,9.6345e-05,0
48.425,8.4428e-05,0
48.425,7.2343e-05,0
48.426,6.5293e-05,0
48.426,5.7908e-05,0
48.427,4.0452e-05,0
48.427,1.4939e-05,0
48.428,-8.896e-06,0
48.428,-2.9709e-05,0
48.429,-4.5655e-05,0
48.429,-5.6397e-05,0
48.43,-6.3111e-05,0
48.43,-6.63e-05,0
48.431,-6.8315e-05,0
48.431,-6.5629e-05,0
48.432,-4.7501e-05,0
48.432,-8.896e-06,0
48.433,3.3402e-05,0
48.433,6.0761e-05,0
48.434,7.9057e-05,0
48.434,9.4667e-05,0
48.435,9.8192e-05,0
48.435,8.1743e-05,0
48.436,5.3544e-05,0
48.436,2.5681e-05,0
48.437,5.3712e-06,0
48.437,-1.2589e-05,0
48.438,-3.5752e-05,0
48.439,-5.5894e-05,0
48.439,-6.5293e-05,0
48.44,-6.6636e-05,0
48.44,-6.9322e-05,0
48.441,-7.7211e-05,0
48.441,-7.9561e-05,0
48.442,-6.865e-05,0
48.442,-5.0523e-05,0
48.443,-3.3906e-05,0
48.443,-2.5849e-05,0
48.444,-2.4002e-05,0
48.444,-1.8631e-05,0
48.445,-5.2033e-06,0
48.445,1.2924e-05,0
48.446,2.6688e-05,0
48.446,3.3066e-05,0
48.447,3.4577e-05,0
48.447,3.7095e-05,0
48.448,4.2802e-05,0
48.448,4.8508e-05,0
48.449,5.0858e-05,0
48.449,4.4816e-05,0
48.45,2.9709e-05,0
48.45,1.4603e-05,0
48.451,7.7211e-06,0
48.452,1.2589e-05,0
48.452,2.4002e-05,0
48.453,3.6759e-05,0
48.453,4.5319e-05,0
48.454,4.6494e-05,0
48.454,4.5487e-05,0
48.455,4.448e-05,0
48.455,3.9109e-05,0
48.456,3.4745e-05,0
48.456,3.7766e-05,0
48.457,4.7837e-05,0
48.457,5.9922e-05,0
48.458,6.8315e-05,0
48.458,6.63e-05,0
48.459,4.8508e-05,0
48.459,2.0478e-05,0
48.46,-1.5106e-06,0
48.46,-7.7211e-06,0
48.461,0,0
48.461,1.6281e-05,0
48.462,3.5416e-05,0
48.462,5.0187e-05,0
48.463,6.1265e-05,0
48.463,6.9657e-05,0
48.464,6.7811e-05,0
48.464,5.7572e-05,0
48.465,5.4215e-05,0
48.466,6.4286e-05,0
48.466,8.0064e-05,0
48.467,8.5435e-05,0
48.467,7.2679e-05,0
48.468,4.2802e-05,0
48.468,7.0497e-06,0
48.469,-1.8128e-05,0
48.469,-2.7024e-05,0
48.47,-2.4002e-05,0
48.47,-1.3596e-05,0
48.471,8.3925e-07,0
48.471,1.4435e-05,0
48.472,2.4674e-05,0
48.472,3.0045e-05,0
48.473,3.0381e-05,0
48.473,2.7863e-05,0
48.474,2.4338e-05,0
48.474,1.9303e-05,0
48.475,1.3931e-05,0
48.475,1.1749e-05,0
48.476,1.2421e-05,0
48.476,1.796e-05,0
48.477,2.6352e-05,0
48.477,3.5752e-05,0
48.478,4.8005e-05,0
48.478,6.1097e-05,0
48.479,6.9657e-05,0
48.48,7.8218e-05,0
48.48,8.6442e-05,0
48.481,8.6442e-05,0
48.481,7.5029e-05,0
48.482,6.0258e-05,0
48.482,5.0523e-05,0
48.483,4.2466e-05,0
48.483,3.3066e-05,0
48.484,2.4002e-05,0
48.484,1.5946e-05,0
48.485,3.357e-06,0
48.485,-1.5442e-05,0
48.486,-3.7095e-05,0
48.486,-5.6397e-05,0
48.487,-6.5965e-05,0
48.487,-6.5461e-05,0
48.488,-6.4622e-05,0
48.488,-7.0832e-05,0
48.489,-8.0903e-05,0
48.489,-8.896e-05,0
48.49,-9.5506e-05,0
48.49,-0.00010373,0
48.491,-0.00010491,0
48.491,-9.0974e-05,0
48.492,-7.0832e-05,0
48.493,-5.9251e-05,0
48.493,-5.2369e-05,0
48.494,-3.7766e-05,0
48.494,-1.0575e-05,0
48.495,2.3331e-05,0
48.495,5.7908e-05,0
48.496,8.7617e-05,0
48.496,0.00010558,0
48.497,0.00011347,0
48.497,0.00012001,0
48.498,0.00012303,0
48.498,0.000118,0
48.499,0.0001086,0
48.499,9.3828e-05,0
48.5,6.9993e-05,0
48.5,4.1459e-05,0
48.501,1.9135e-05,0
48.501,2.182e-06,0
48.502,-1.6953e-05,0
48.502,-3.4073e-05,0
48.503,-3.8102e-05,0
48.503,-2.7359e-05,0
48.504,-8.5603e-06,0
48.504,7.8889e-06,0
48.505,1.7288e-05,0
48.505,2.1988e-05,0
48.506,2.9374e-05,0
48.507,4.2802e-05,0
48.507,5.7908e-05,0
48.508,6.949e-05,0
48.508,7.7714e-05,0
48.509,8.3589e-05,0
48.509,8.51e-05,0
48.51,8.0735e-05,0
48.51,7.5029e-05,0
48.511,6.7308e-05,0
48.511,4.8844e-05,0
48.512,2.0813e-05,0
48.512,-1.5106e-06,0
48.513,-1.5274e-05,0
48.513,-2.266e-05,0
48.514,-2.182e-05,0
48.514,-1.9471e-05,0
48.515,-1.8967e-05,0
48.515,-1.7288e-05,0
48.516,-9.2317e-06,0
48.516,2.5177e-06,0
48.517,1.5442e-05,0
48.517,3.0381e-05,0
48.518,4.7501e-05,0
48.518,6.3447e-05,0
48.519,6.9657e-05,0
48.52,5.8915e-05,0
48.52,3.743e-05,0
48.521,1.5946e-05,0
48.521,3.357e-07,0
48.522,-6.8818e-06,0
48.522,-3.5248e-06,0
48.523,4.1962e-06,0
48.523,7.7211e-06,0
48.524,7.3854e-06,0
48.524,8.2246e-06,0
48.525,1.2924e-05,0
48.525,1.7456e-05,0
48.526,1.9806e-05,0
48.526,2.2156e-05,0
48.527,3.0716e-05,0
48.527,4.4816e-05,0
48.528,5.5894e-05,0
48.528,5.8915e-05,0
48.529,5.2369e-05,0
48.529,3.8773e-05,0
48.53,2.4002e-05,0
48.53,1.1749e-05,0
48.531,-1.0071e-06,0
48.531,-1.5778e-05,0
48.532,-2.9206e-05,0
48.532,-3.508e-05,0
48.533,-3.5584e-05,0
48.534,-3.3066e-05,0
48.534,-3.0213e-05,0
48.535,-2.7695e-05,0
48.535,-2.2995e-05,0
48.536,-1.4603e-05,0
48.536,-6.2104e-06,0
48.537,5.0355e-07,0
48.537,7.8889e-06,0
48.538,1.6281e-05,0
48.538,2.7863e-05,0
48.539,4.0116e-05,0
48.539,4.683e-05,0
48.54,4.7166e-05,0
48.54,4.7333e-05,0
48.541,4.8508e-05,0
48.541,4.7166e-05,0
48.542,4.3977e-05,0
48.542,3.9948e-05,0
48.543,3.1724e-05,0
48.543,1.7624e-05,0
48.544,7.2175e-06,0
48.544,5.539e-06,0
48.545,1.1246e-05,0
48.545,1.8128e-05,0
48.546,2.5345e-05,0
48.547,3.0716e-05,0
48.547,3.2059e-05,0
48.548,3.2731e-05,0
48.548,3.4409e-05,0
48.549,3.9109e-05,0
48.549,4.8173e-05,0
48.55,5.9586e-05,0
48.55,6.7308e-05,0
48.551,6.4286e-05,0
48.551,5.1194e-05,0
48.552,3.5416e-05,0
48.552,1.7288e-05,0
48.553,-4.8676e-06,0
48.553,-2.3667e-05,0
48.554,-3.3738e-05,0
48.554,-3.7934e-05,0
48.555,-4.5151e-05,0
48.555,-5.623e-05,0
48.556,-6.009e-05,0
48.556,-4.918e-05,0
48.557,-2.7359e-05,0
48.557,-3.1891e-06,0
48.558,1.8631e-05,0
48.558,4.0116e-05,0
48.559,6.1601e-05,0
48.559,7.8553e-05,0
48.56,8.8121e-05,0
48.561,8.9464e-05,0
48.561,8.4428e-05,0
48.562,7.7379e-05,0
48.562,6.7643e-05,0
48.563,5.4551e-05,0
48.563,4.062e-05,0
48.564,2.8702e-05,0
48.564,1.9135e-05,0
48.565,1.326e-05,0
48.565,9.2317e-06,0
48.566,2.5177e-06,0
48.566,-2.0142e-06,0
48.567,-3.357e-06,0
48.567,-5.539e-06,0
48.568,-1.5274e-05,0
48.568,-2.3499e-05,0
48.569,-1.7288e-05,0
48.569,-3.1891e-06,0
48.57,7.8889e-06,0
48.57,1.4939e-05,0
48.571,1.5106e-05,0
48.571,1.326e-05,0
48.572,1.796e-05,0
48.572,2.9038e-05,0
48.573,4.4816e-05,0
48.574,6.1601e-05,0
48.574,7.8889e-05,0
48.575,9.6345e-05,0
48.575,0.00010793,0
48.576,0.00011397,0
48.576,0.00012287,0
48.577,0.00013193,0
48.577,0.00013059,0
48.578,0.00011363,0
48.578,8.0735e-05,0
48.579,3.3738e-05,0
48.579,-1.4267e-05,0
48.58,-4.7669e-05,0
48.58,-6.009e-05,0
48.581,-5.8076e-05,0
48.581,-5.4383e-05,0
48.582,-5.7237e-05,0
48.582,-6.949e-05,0
48.583,-8.275e-05,0
48.583,-8.5435e-05,0
48.584,-7.4693e-05,0
48.584,-5.6565e-05,0
48.585,-3.3906e-05,0
48.585,-1.0575e-05,0
48.586,1.2253e-05,0
48.587,2.9038e-05,0
48.587,4.5991e-05,0
48.588,7.2343e-05,0
48.588,0.00011128,0
48.589,0.00015425,0
48.589,0.00018346,0
48.59,0.00018833,0
48.59,0.00017171,0
48.591,0.00013999,0
48.591,9.8863e-05,0
48.592,5.0858e-05,0
48.592,8.3925e-07,0
48.593,-3.7598e-05,0
48.593,-5.7069e-05,0
48.594,-6.6636e-05,0
48.594,-8.1407e-05,0
48.595,-0.00010289,0
48.595,-0.00012203,0
48.596,-0.00013143,0
48.596,-0.00013159,0
48.597,-0.00012656,0
48.597,-0.00011867,0
48.598,-0.00010558,0
48.598,-8.5435e-05,0
48.599,-6.2104e-05,0
48.599,-3.7766e-05,0
48.6,-1.9638e-05,0
48.601,-8.5603e-06,0
48.601,1.8463e-06,0
48.602,1.2924e-05,0
48.602,2.4506e-05,0
48.603,3.8102e-05,0
48.603,5.1865e-05,0
48.604,6.5293e-05,0
48.604,7.335e-05,0
48.605,7.0832e-05,0
48.605,6.009e-05,0
48.606,5.0858e-05,0
48.606,4.4816e-05,0
48.607,3.978e-05,0
48.607,3.743e-05,0
48.608,3.743e-05,0
48.608,3.4073e-05,0
48.609,2.6184e-05,0
48.609,1.7792e-05,0
48.61,1.4435e-05,0
48.61,1.8631e-05,0
48.611,2.4842e-05,0
48.611,2.8031e-05,0
48.612,2.7024e-05,0
48.612,2.2828e-05,0
48.613,1.6953e-05,0
48.614,8.5603e-06,0
48.614,1.6785e-07,0
48.615,-6.5461e-06,0
48.615,-1.1917e-05,0
48.616,-1.1582e-05,0
48.616,-2.182e-06,0
48.617,1.2924e-05,0
48.617,2.8702e-05,0
48.618,4.2802e-05,0
48.618,5.623e-05,0
48.619,6.6972e-05,0
48.619,7.2679e-05,0
48.62,8.275e-05,0
48.62,9.7856e-05,0
48.621,0.0001086,0
48.621,0.00011229,0
48.622,0.00011397,0
48.622,0.00011481,0
48.623,0.00011229,0
48.623,0.00010423,0
48.624,9.2149e-05,0
48.624,7.805e-05,0
48.625,6.1936e-05,0
48.625,4.2634e-05,0
48.626,2.3331e-05,0
48.626,1.0239e-05,0
48.627,5.539e-06,0
48.628,2.8534e-06,0
48.628,-2.8534e-06,0
48.629,-1.0575e-05,0
48.629,-1.8631e-05,0
48.63,-3.0213e-05,0
48.63,-4.1459e-05,0
48.631,-4.2298e-05,0
48.631,-3.0381e-05,0
48.632,-1.1917e-05,0
48.632,6.2104e-06,0
48.633,1.9303e-05,0
48.633,2.5177e-05,0
48.634,2.8367e-05,0
48.634,3.5584e-05,0
48.635,4.5319e-05,0
48.635,4.7333e-05,0
48.636,3.592e-05,0
48.636,7.8889e-06,0
48.637,-3.122e-05,0
48.637,-6.1601e-05,0
48.638,-7.335e-05,0
48.638,-7.4861e-05,0
48.639,-7.8218e-05,0
48.639,-8.1743e-05,0
48.64,-7.4861e-05,0
48.641,-5.6901e-05,0
48.641,-3.3738e-05,0
48.642,-7.2175e-06,0
48.642,1.796e-05,0
48.643,3.6927e-05,0
48.643,5.539e-05,0
48.644,7.9057e-05,0
48.644,9.9199e-05,0
48.645,0.00010726,0
48.645,0.00010843,0
48.646,0.00010726,0
48.646,9.987e-05,0
48.647,8.2078e-05,0
48.647,6.1601e-05,0
48.648,4.918e-05,0
48.648,4.4144e-05,0
48.649,4.1962e-05,0
48.649,3.7934e-05,0
48.65,3.1891e-05,0
48.65,2.6352e-05,0
48.651,1.8296e-05,0
48.651,6.8818e-06,0
48.652,-6.714e-07,0
48.652,2.6856e-06,0
48.653,1.1414e-05,0
48.653,1.9638e-05,0
48.654,2.5345e-05,0
48.655,2.9038e-05,0
48.655,3.0381e-05,0
48.656,3.4745e-05,0
48.656,4.683e-05,0
48.657,6.1433e-05,0
48.657,7.1839e-05,0
48.658,7.7546e-05,0
48.658,7.57e-05,0
48.659,6.3447e-05,0
48.659,4.5487e-05,0
48.66,2.7192e-05,0
48.66,7.7211e-06,0
48.661,-1.1414e-05,0
48.661,-2.8031e-05,0
48.662,-4.0452e-05,0
48.662,-4.8508e-05,0
48.663,-5.388e-05,0
48.663,-5.4215e-05,0
48.664,-4.8508e-05,0
48.664,-3.9277e-05,0
48.665,-2.8702e-05,0
48.665,-2.0813e-05,0
48.666,-1.6617e-05,0
48.666,-1.5274e-05,0
48.667,-1.6114e-05,0
48.667,-1.8128e-05,0
48.668,-2.182e-05,0
48.669,-3.1891e-05,0
48.669,-4.7501e-05,0
48.67,-5.7069e-05,0
48.67,-5.4551e-05,0
48.671,-4.2634e-05,0
48.671,-2.6017e-05,0
48.672,-1.091e-05,0
48.672,8.3925e-07,0
48.673,1.5106e-05,0
48.673,3.0381e-05,0
48.674,4.4144e-05,0
48.674,5.623e-05,0
48.675,6.5293e-05,0
48.675,7.0665e-05,0
48.676,7.3686e-05,0
48.676,7.1504e-05,0
48.677,5.9754e-05,0
48.677,4.5823e-05,0
48.678,3.8437e-05,0
48.678,3.7263e-05,0
48.679,4.1123e-05,0
48.679,4.6494e-05,0
48.68,4.8844e-05,0
48.68,4.8173e-05,0
48.681,4.7166e-05,0
48.682,4.4816e-05,0
48.682,4.1962e-05,0
48.683,4.0787e-05,0
48.683,4.3809e-05,0
48.684,5.0523e-05,0
48.684,5.7908e-05,0
48.685,5.7572e-05,0
48.685,4.9851e-05,0
48.686,3.6591e-05,0
48.686,1.7288e-05,0
48.687,-1.3428e-06,0
48.687,-9.5674e-06,0
48.688,-4.1962e-06,0
48.688,8.3925e-06,0
48.689,1.2924e-05,0
48.689,1.2924e-05,0
48.69,1.8631e-05,0
48.69,2.9709e-05,0
48.691,4.2634e-05,0
48.691,5.4551e-05,0
48.692,6.0929e-05,0
48.692,6.1601e-05,0
48.693,5.8915e-05,0
48.693,5.1194e-05,0
48.694,3.8773e-05,0
48.694,2.4674e-05,0
48.695,1.561e-05,0
48.696,1.561e-05,0
48.696,1.8631e-05,0
48.697,1.3931e-05,0
48.697,5.8747e-06,0
48.698,7.2175e-06,0
48.698,1.8296e-05,0
48.699,2.4506e-05,0
48.699,2.0813e-05,0
48.7,1.6617e-05,0
48.7,1.4603e-05,0
48.701,6.5461e-06,0
48.701,-5.7069e-06,0
48.702,-1.6785e-05,0
48.702,-2.5849e-05,0
48.703,-3.3906e-05,0
48.703,-4.062e-05,0
48.704,-4.1794e-05,0
48.704,-3.8773e-05,0
48.705,-3.9612e-05,0
48.705,-4.4648e-05,0
48.706,-4.5487e-05,0
48.706,-3.827e-05,0
48.707,-3.1052e-05,0
48.707,-3.4073e-05,0
48.708,-4.7501e-05,0
48.709,-5.1194e-05,0
48.709,-3.7095e-05,0
48.71,-6.714e-06,0
48.71,3.122e-05,0
48.711,6.2272e-05,0
48.711,7.9728e-05,0
48.712,9.0639e-05,0
48.712,0.00010037,0
48.713,0.00010591,0
48.713,0.00010692,0
48.714,0.0001039,0
48.714,9.0135e-05,0
48.715,6.7643e-05,0
48.715,4.0284e-05,0
48.716,7.5532e-06,0
48.716,-2.0645e-05,0
48.717,-3.7766e-05,0
48.717,-4.5151e-05,0
48.718,-4.8508e-05,0
48.718,-4.918e-05,0
48.719,-4.3473e-05,0
48.719,-3.3234e-05,0
48.72,-2.4002e-05,0
48.72,-1.0239e-05,0
48.721,1.3931e-05,0
48.721,4.4312e-05,0
48.722,7.2679e-05,0
48.723,9.5171e-05,0
48.723,0.00011212,0
48.724,0.00011917,0
48.724,0.00010994,0
48.725,8.04e-05,0
48.725,4.5487e-05,0
48.726,2.2995e-05,0
48.726,1.7624e-05,0
48.727,2.1149e-05,0
48.727,2.2156e-05,0
48.728,1.5946e-05,0
48.728,1.1582e-05,0
48.729,1.4435e-05,0
48.729,2.1988e-05,0
48.73,2.9709e-05,0
48.73,3.3906e-05,0
48.731,3.3402e-05,0
48.731,3.0716e-05,0
48.732,2.7695e-05,0
48.732,2.652e-05,0
48.733,2.652e-05,0
48.733,2.6688e-05,0
48.734,3.0716e-05,0
48.734,3.8605e-05,0
48.735,4.9851e-05,0
48.736,5.6901e-05,0
48.736,5.2033e-05,0
48.737,4.0116e-05,0
48.737,2.9709e-05,0
48.738,2.1317e-05,0
48.738,1.8631e-05,0
48.739,2.0645e-05,0
48.739,2.4674e-05,0
48.74,3.0045e-05,0
48.74,3.357e-05,0
48.741,3.2731e-05,0
48.741,2.9877e-05,0
48.742,2.5345e-05,0
48.742,1.6281e-05,0
48.743,6.5461e-06,0
48.743,5.2033e-06,0
48.744,1.5106e-05,0
48.744,2.6688e-05,0
48.745,3.6088e-05,0
48.745,4.2802e-05,0
48.746,4.8508e-05,0
48.746,4.8005e-05,0
48.747,4.062e-05,0
48.747,3.0045e-05,0
48.748,1.9303e-05,0
48.748,1.2924e-05,0
48.749,9.7353e-06,0
48.75,1.0071e-06,0
48.75,-1.7288e-05,0
48.751,-3.8773e-05,0
48.751,-5.6901e-05,0
48.752,-7.3518e-05,0
48.752,-8.7449e-05,0
48.753,-8.9632e-05,0
48.753,-7.9561e-05,0
48.754,-6.5965e-05,0
48.754,-5.3544e-05,0
48.755,-4.1794e-05,0
48.755,-2.9709e-05,0
48.756,-1.9638e-05,0
48.756,-1.1414e-05,0
48.757,-1.1749e-06,0
48.757,8.2246e-06,0
48.758,1.3764e-05,0
48.758,1.7288e-05,0
48.759,1.8631e-05,0
48.759,1.7288e-05,0
48.76,1.4099e-05,0
48.76,1.6449e-05,0
48.761,2.8702e-05,0
48.761,4.2802e-05,0
48.762,5.0355e-05,0
48.763,5.4719e-05,0
48.763,5.8747e-05,0
48.764,5.6565e-05,0
48.764,5.1194e-05,0
48.765,4.8005e-05,0
48.765,4.683e-05,0
48.766,4.7166e-05,0
48.766,4.8173e-05,0
48.767,4.5319e-05,0
48.767,3.9948e-05,0
48.768,3.4745e-05,0
48.768,2.7863e-05,0
48.769,2.0981e-05,0
48.769,1.7288e-05,0
48.77,1.4435e-05,0
48.77,7.8889e-06,0
48.771,-3.357e-07,0
48.771,-1.0239e-05,0
48.772,-2.3835e-05,0
48.772,-3.508e-05,0
48.773,-4.0452e-05,0
48.773,-3.8605e-05,0
48.774,-2.8199e-05,0
48.774,-9.5674e-06,0
48.775,1.0239e-05,0
48.776,2.4338e-05,0
48.776,3.3066e-05,0
48.777,4.1459e-05,0
48.777,5.539e-05,0
48.778,7.5029e-05,0
48.778,9.752e-05,0
48.779,0.00011867,0
48.779,0.00012605,0
48.78,0.00011531,0
48.78,9.6345e-05,0
48.781,7.1336e-05,0
48.781,3.9612e-05,0
48.782,1.0239e-05,0
48.782,-2.0142e-06,0
48.783,5.7069e-06,0
48.783,2.3667e-05,0
48.784,4.0452e-05,0
48.784,4.9851e-05,0
48.785,5.4719e-05,0
48.785,6.3279e-05,0
48.786,8.1071e-05,0
48.786,9.8527e-05,0
48.787,0.00010054,0
48.787,8.4764e-05,0
48.788,5.8244e-05,0
48.788,2.8199e-05,0
48.789,1.0071e-06,0
48.79,-2.0142e-05,0
48.79,-3.4241e-05,0
48.791,-3.8437e-05,0
48.791,-3.2731e-05,0
48.792,-2.1653e-05,0
48.792,-6.2104e-06,0
48.793,7.8889e-06,0
48.793,1.9135e-05,0
48.794,2.5345e-05,0
48.794,2.3499e-05,0
48.795,1.326e-05,0
48.795,-4.1962e-06,0
48.796,-2.2324e-05,0
48.796,-3.4073e-05,0
48.797,-3.7095e-05,0
48.797,-3.357e-05,0
48.798,-2.5681e-05,0
48.798,-1.6449e-05,0
48.799,-1.1414e-05,0
48.799,-9.9031e-06,0
48.8,-7.2175e-06,0
48.8,-1.6785e-06,0
48.801,3.1891e-06,0
48.801,1.6785e-06,0
48.802,-4.1962e-06,0
48.803,-8.896e-06,0
48.803,-1.1917e-05,0
48.804,-1.3931e-05,0
48.804,-1.3764e-05,0
48.805,-1.1246e-05,0
48.805,-7.5532e-06,0
48.806,-7.7211e-06,0
48.806,-4.1962e-06,0
48.807,9.2317e-06,0
48.807,3.508e-05,0
48.808,7.2007e-05,0
48.808,0.00010726,0
48.809,0.00013059,0
48.809,0.00013814,0
48.81,0.00013042,0
48.81,0.00011347,0
48.811,0.00010037,0
48.811,9.7856e-05,0
48.812,9.6513e-05,0
48.812,8.1743e-05,0
48.813,5.0019e-05,0
48.813,8.896e-06,0
48.814,-2.6017e-05,0
48.814,-4.3977e-05,0
48.815,-4.8508e-05,0
48.815,-4.8508e-05,0
48.816,-4.3137e-05,0
48.817,-3.357e-05,0
48.817,-2.5345e-05,0
48.818,-2.2156e-05,0
48.818,-2.501e-05,0
48.819,-3.2395e-05,0
48.819,-3.8437e-05,0
48.82,-4.3305e-05,0
48.82,-4.8508e-05,0
48.821,-5.2537e-05,0
48.821,-5.7237e-05,0
48.822,-6.1433e-05,0
48.822,-6.0594e-05,0
48.823,-5.153e-05,0
48.823,-3.3738e-05,0
48.824,-1.1246e-05,0
48.824,9.5674e-06,0
48.825,1.8967e-05,0
48.825,1.2924e-05,0
48.826,-2.5177e-06,0
48.826,-1.2253e-05,0
48.827,-4.1962e-06,0
48.827,1.7456e-05,0
48.828,4.4144e-05,0
48.828,6.7979e-05,0
48.829,8.5771e-05,0
48.83,0.00010054,0
48.83,0.00011196,0
48.831,0.00012203,0
48.831,0.00013512,0
48.832,0.0001519,0
48.832,0.000165,0
48.833,0.00016231,0
48.833,0.0001378,0
48.834,9.7856e-05,0
48.834,6.1265e-05,0
48.835,4.0787e-05,0
48.835,3.3066e-05,0
48.836,2.0981e-05,0
48.836,5.0355e-07,0
48.837,-1.6785e-05,0
48.837,-1.5778e-05,0
48.838,1.0071e-06,0
48.838,1.796e-05,0
48.839,3.0549e-05,0
48.839,4.0452e-05,0
48.84,4.7501e-05,0
48.84,5.2201e-05,0
48.841,5.4215e-05,0
48.841,4.683e-05,0
48.842,2.8534e-05,0
48.842,4.8676e-06,0
48.843,-1.5946e-05,0
48.844,-3.2059e-05,0
48.844,-4.6494e-05,0
48.845,-5.8579e-05,0
48.845,-6.6133e-05,0
48.846,-6.5293e-05,0
48.846,-5.5055e-05,0
48.847,-4.0452e-05,0
48.847,-2.266e-05,0
48.848,-1.5106e-06,0
48.848,2.1317e-05,0
48.849,4.2634e-05,0
48.849,5.8076e-05,0
48.85,6.2943e-05,0
48.85,5.623e-05,0
48.851,4.1459e-05,0
48.851,2.3331e-05,0
48.852,6.2104e-06,0
48.852,-6.5461e-06,0
48.853,-1.6281e-05,0
48.853,-2.4338e-05,0
48.854,-3.0884e-05,0
48.854,-3.5752e-05,0
48.855,-3.7934e-05,0
48.855,-4.0787e-05,0
48.856,-4.3305e-05,0
48.856,-3.7263e-05,0
48.857,-2.031e-05,0
48.858,2.8534e-06,0
48.858,2.0813e-05,0
48.859,2.2995e-05,0
48.859,1.2589e-05,0
48.86,3.1891e-06,0
48.86,8.7282e-06,0
48.861,2.8367e-05,0
48.861,4.9851e-05,0
48.862,6.5965e-05,0
48.862,7.335e-05,0
48.863,7.6371e-05,0
48.863,8.3421e-05,0
48.864,9.2149e-05,0
48.864,0.00010054,0
48.865,0.00011313,0
48.865,0.00012203,0
48.866,0.00011464,0
48.866,8.6778e-05,0
48.867,4.0787e-05,0
48.867,-1.4603e-05,0
48.868,-5.9419e-05,0
48.868,-8.3757e-05,0
48.869,-9.2821e-05,0
48.869,-9.1142e-05,0
48.87,-8.3421e-05,0
48.871,-7.3014e-05,0
48.871,-5.8412e-05,0
48.872,-3.6591e-05,0
48.872,-7.3854e-06,0
48.873,2.8031e-05,0
48.873,6.2608e-05,0
48.874,8.6778e-05,0
48.874,9.9199e-05,0
48.875,0.00010172,0
48.875,9.1814e-05,0
48.876,7.6036e-05,0
48.876,6.1601e-05,0
48.877,5.0187e-05,0
48.877,3.6759e-05,0
48.878,1.796e-05,0
48.878,-1.6785e-07,0
48.879,-1.0575e-05,0
48.879,-1.1414e-05,0
48.88,-4.6998e-06,0
48.88,5.0355e-06,0
48.881,1.2589e-05,0
48.881,1.4603e-05,0
48.882,1.2924e-05,0
48.882,1.326e-05,0
48.883,1.6785e-05,0
48.883,2.031e-05,0
48.884,2.2828e-05,0
48.885,2.0813e-05,0
48.885,1.4435e-05,0
48.886,6.2104e-06,0
48.886,-1.3428e-06,0
48.887,-4.0284e-06,0
48.887,-3.357e-06,0
48.888,-3.8605e-06,0
48.888,-5.2033e-06,0
48.889,-2.8534e-06,0
48.889,3.8605e-06,0
48.89,1.6617e-05,0
48.89,3.5752e-05,0
48.891,5.8579e-05,0
48.891,7.7714e-05,0
48.892,8.9464e-05,0
48.892,9.4499e-05,0
48.893,9.3492e-05,0
48.893,8.3085e-05,0
48.894,6.2608e-05,0
48.894,3.9445e-05,0
48.895,2.1317e-05,0
48.895,6.714e-06,0
48.896,-1.0742e-05,0
48.896,-2.9709e-05,0
48.897,-4.5151e-05,0
48.898,-5.4551e-05,0
48.898,-6.1601e-05,0
48.899,-6.7475e-05,0
48.899,-6.949e-05,0
48.9,-6.4622e-05,0
48.9,-5.0523e-05,0
48.901,-3.0213e-05,0
48.901,-1.0071e-05,0
48.902,3.8605e-06,0
48.902,1.6617e-05,0
48.903,3.743e-05,0
48.903,6.6972e-05,0
48.904,9.4835e-05,0
48.904,0.0001133,0
48.905,0.00012303,0
48.905,0.00012689,0
48.906,0.00012941,0
48.906,0.00012673,0
48.907,0.00011531,0
48.907,9.7856e-05,0
48.908,7.7546e-05,0
48.908,6.0258e-05,0
48.909,5.0187e-05,0
48.909,4.1291e-05,0
48.91,2.7359e-05,0
48.91,7.5532e-06,0
48.911,-1.4939e-05,0
48.912,-3.6591e-05,0
48.912,-5.3376e-05,0
48.913,-5.8244e-05,0
48.913,-4.8005e-05,0
48.914,-3.3738e-05,0
48.914,-2.7863e-05,0
48.915,-2.7192e-05,0
48.915,-2.266e-05,0
48.916,-9.5674e-06,0
48.916,1.0575e-05,0
48.917,2.7863e-05,0
48.917,3.357e-05,0
48.918,3.1052e-05,0
48.918,2.6688e-05,0
48.919,2.5345e-05,0
48.919,2.9374e-05,0
48.92,3.0045e-05,0
48.92,1.6617e-05,0
48.921,-5.0355e-06,0
48.921,-2.031e-05,0
48.922,-2.3331e-05,0
48.922,-1.8967e-05,0
48.923,-1.4939e-05,0
48.923,-1.326e-05,0
48.924,-7.5532e-06,0
48.925,9.2317e-06,0
48.925,3.3066e-05,0
48.926,5.388e-05,0
48.926,6.9154e-05,0
48.927,8.1743e-05,0
48.927,8.5771e-05,0
48.928,8.04e-05,0
48.928,6.7979e-05,0
48.929,5.1865e-05,0
48.929,4.0452e-05,0
48.93,3.5416e-05,0
48.93,3.0045e-05,0
48.931,1.8631e-05,0
48.931,3.8605e-06,0
48.932,-6.3783e-06,0
48.932,-7.2175e-06,0
48.933,-1.1749e-06,0
48.933,6.5461e-06,0
48.934,1.5106e-05,0
48.934,2.1317e-05,0
48.935,2.0645e-05,0
48.935,1.4267e-05,0
48.936,7.5532e-06,0
48.936,5.8747e-06,0
48.937,5.539e-06,0
48.938,2.182e-06,0
48.938,-3.1891e-06,0
48.939,-3.6927e-06,0
48.939,2.182e-06,0
48.94,9.0639e-06,0
48.94,1.5442e-05,0
48.941,1.9974e-05,0
48.941,2.0478e-05,0
48.942,2.0478e-05,0
48.942,2.4674e-05,0
48.943,2.8367e-05,0
48.943,2.5513e-05,0
48.944,2.1149e-05,0
48.944,1.9471e-05,0
48.945,1.5106e-05,0
48.945,5.2033e-06,0
48.946,-6.5461e-06,0
48.946,-1.7792e-05,0
48.947,-3.0213e-05,0
48.947,-3.9612e-05,0
48.948,-4.1459e-05,0
48.948,-3.508e-05,0
48.949,-2.4674e-05,0
48.949,-1.4771e-05,0
48.95,-8.0568e-06,0
48.95,-5.0355e-07,0
48.951,6.3783e-06,0
48.952,8.7282e-06,0
48.952,1.0239e-05,0
48.953,1.3931e-05,0
48.953,1.9135e-05,0
48.954,2.4674e-05,0
48.954,2.8031e-05,0
48.955,3.0716e-05,0
48.955,3.6759e-05,0
48.956,4.3977e-05,0
48.956,4.5991e-05,0
48.957,4.213e-05,0
48.957,3.5752e-05,0
48.958,3.3066e-05,0
48.958,3.6927e-05,0
48.959,4.213e-05,0
48.959,4.1459e-05,0
48.96,4.0284e-05,0
48.96,4.7837e-05,0
48.961,6.2272e-05,0
48.961,6.8315e-05,0
48.962,5.9922e-05,0
48.962,4.5991e-05,0
48.963,3.9109e-05,0
48.963,4.2634e-05,0
48.964,5.1865e-05,0
48.965,6.2776e-05,0
48.965,7.1839e-05,0
48.966,7.2679e-05,0
48.966,6.5293e-05,0
48.967,5.7237e-05,0
48.967,5.539e-05,0
48.968,5.0858e-05,0
48.968,3.3066e-05,0
48.969,1.1582e-05,0
48.969,5.0355e-07,0
48.97,-3.5248e-06,0
48.97,-1.0071e-05,0
48.971,-1.796e-05,0
48.971,-1.9974e-05,0
48.972,-1.5946e-05,0
48.972,-8.5603e-06,0
48.973,-1.5106e-06,0
48.973,3.5248e-06,0
48.974,1.1246e-05,0
48.974,2.4002e-05,0
48.975,3.743e-05,0
48.975,4.6159e-05,0
48.976,4.5487e-05,0
48.976,3.5248e-05,0
48.977,2.4002e-05,0
48.977,2.0478e-05,0
48.978,2.5345e-05,0
48.979,3.0213e-05,0
48.979,2.9206e-05,0
48.98,2.1149e-05,0
48.98,7.8889e-06,0
48.981,-5.0355e-06,0
48.981,-1.561e-05,0
48.982,-2.031e-05,0
48.982,-1.6953e-05,0
48.983,-8.2246e-06,0
48.983,8.3925e-07,0
48.984,7.2175e-06,0
48.984,9.0639e-06,0
48.985,5.2033e-06,0
48.985,1.6785e-07,0
48.986,0,0
48.986,8.5603e-06,0
48.987,2.3163e-05,0
48.987,3.3402e-05,0
48.988,3.1724e-05,0
48.988,2.2492e-05,0
48.989,1.3931e-05,0
48.989,7.2175e-06,0
48.99,1.1749e-06,0
48.99,1.1749e-06,0
48.991,9.5674e-06,0
48.992,2.2995e-05,0
48.992,3.0549e-05,0
48.993,2.7695e-05,0
48.993,2.0645e-05,0
48.994,1.5442e-05,0
48.994,1.1582e-05,0
48.995,6.5461e-06,0
48.995,0,0
48.996,-2.6856e-06,0
48.996,-3.6927e-06,0
48.997,-7.5532e-06,0
48.997,-1.2589e-05,0
48.998,-1.5442e-05,0
48.998,-1.6281e-05,0
48.999,-1.4771e-05,0
48.999,-9.2317e-06,0
49,-4.1962e-06,0
49,-3.6927e-06,0
49.001,-5.8747e-06,0
49.001,-8.2246e-06,0
49.002,-8.7282e-06,0
49.002,-2.182e-06,0
49.003,9.2317e-06,0
49.003,1.5274e-05,0
49.004,1.7288e-05,0
49.004,2.3499e-05,0
49.005,3.508e-05,0
49.006,4.9516e-05,0
49.006,6.4622e-05,0
49.007,7.5029e-05,0
49.007,8.0903e-05,0
49.008,8.275e-05,0
49.008,8.0232e-05,0
49.009,7.1504e-05,0
49.009,5.2537e-05,0
49.01,2.6688e-05,0
49.01,9.9031e-06,0
49.011,1.1246e-05,0
49.011,2.2324e-05,0
49.012,3.4409e-05,0
49.012,4.6159e-05,0
49.013,5.7908e-05,0
49.013,7.1e-05,0
49.014,8.7282e-05,0
49.014,0.00010054,0
49.015,0.00010574,0
49.015,0.00010256,0
49.016,9.3828e-05,0
49.016,8.6778e-05,0
49.017,8.5435e-05,0
49.017,7.7043e-05,0
49.018,5.6565e-05,0
49.019,2.5849e-05,0
49.019,-8.2246e-06,0
49.02,-3.4577e-05,0
49.02,-5.4887e-05,0
49.021,-6.9657e-05,0
49.021,-7.7882e-05,0
49.022,-8.2078e-05,0
49.022,-7.8553e-05,0
49.023,-6.3447e-05,0
49.023,-3.592e-05,0
49.024,-9.2317e-06,0
49.024,5.8747e-06,0
49.025,1.2924e-05,0
49.025,1.9471e-05,0
49.026,2.8031e-05,0
49.026,3.2059e-05,0
49.027,2.9374e-05,0
49.027,2.5345e-05,0
49.028,2.2995e-05,0
49.028,1.9303e-05,0
49.029,1.3931e-05,0
49.029,1.3931e-05,0
49.03,2.6017e-05,0
49.03,4.4984e-05,0
49.031,6.0929e-05,0
49.031,6.8482e-05,0
49.032,6.8986e-05,0
49.033,6.1936e-05,0
49.033,5.0858e-05,0
49.034,4.0284e-05,0
49.034,2.9877e-05,0
49.035,1.3596e-05,0
49.035,-3.5248e-06,0
49.036,-1.4603e-05,0
49.036,-2.0813e-05,0
49.037,-2.3331e-05,0
49.037,-2.031e-05,0
49.038,-1.0239e-05,0
49.038,2.0142e-06,0
49.039,9.9031e-06,0
49.039,7.8889e-06,0
49.04,-5.539e-06,0
49.04,-2.3667e-05,0
49.041,-3.4913e-05,0
49.041,-3.508e-05,0
49.042,-3.0045e-05,0
49.042,-2.2828e-05,0
49.043,-1.9471e-05,0
49.043,-2.2828e-05,0
49.044,-3.1052e-05,0
49.044,-4.0787e-05,0
49.045,-4.3641e-05,0
49.045,-3.9109e-05,0
49.046,-4.0787e-05,0
49.047,-5.5055e-05,0
49.047,-6.7811e-05,0
49.048,-6.5293e-05,0
49.048,-4.9851e-05,0
49.049,-3.0213e-05,0
49.049,-9.2317e-06,0
49.05,1.5274e-05,0
49.05,3.4577e-05,0
49.051,4.7333e-05,0
49.051,5.623e-05,0
49.052,6.2943e-05,0
49.052,7.0497e-05,0
49.053,8.6107e-05,0
49.053,0.00010373,0
49.054,0.00010927,0
49.054,0.00010021,0
49.055,8.2414e-05,0
49.055,6.0258e-05,0
49.056,4.7501e-05,0
49.056,4.4816e-05,0
49.057,4.2802e-05,0
49.057,4.2634e-05,0
49.058,5.153e-05,0
49.058,6.4958e-05,0
49.059,7.5029e-05,0
49.06,8.3253e-05,0
49.06,9.1646e-05,0
49.061,9.5506e-05,0
49.061,9.2317e-05,0
49.062,8.7114e-05,0
49.062,8.4932e-05,0
49.063,8.7449e-05,0
49.063,8.51e-05,0
49.064,6.865e-05,0
49.064,4.1123e-05,0
49.065,9.7353e-06,0
49.065,-1.3931e-05,0
49.066,-2.6688e-05,0
49.066,-3.1724e-05,0
49.067,-2.8702e-05,0
49.067,-2.1149e-05,0
49.068,-1.1246e-05,0
49.068,-1.3428e-06,0
49.069,8.3925e-06,0
49.069,1.5778e-05,0
49.07,1.7121e-05,0
49.07,1.3092e-05,0
49.071,7.8889e-06,0
49.071,5.8747e-06,0
49.072,6.8818e-06,0
49.072,5.539e-06,0
49.073,1.1749e-06,0
49.074,-7.0497e-06,0
49.074,-1.6953e-05,0
49.075,-2.0142e-05,0
49.075,-1.091e-05,0
49.076,2.5177e-06,0
49.076,1.326e-05,0
49.077,2.4674e-05,0
49.077,4.3809e-05,0
49.078,6.7308e-05,0
49.078,8.6442e-05,0
49.079,0.00010037,0
49.079,0.00011296,0
49.08,0.00012773,0
49.08,0.00014032,0
49.081,0.00014569,0
49.081,0.00013948,0
49.082,0.00012522,0
49.082,0.00011431,0
49.083,0.00010826,0
49.083,9.8527e-05,0
49.084,8.1071e-05,0
49.084,6.0258e-05,0
49.085,3.6088e-05,0
49.085,5.8747e-06,0
49.086,-2.8702e-05,0
49.087,-6.3615e-05,0
49.087,-9.3492e-05,0
49.088,-0.00011531,0
49.088,-0.00013159,0
49.089,-0.00014519,0
49.089,-0.00015694,0
49.09,-0.00015811,0
49.09,-0.00014653,0
49.091,-0.0001373,0
49.091,-0.00013344,0
49.092,-0.00012287,0
49.092,-9.987e-05,0
49.093,-7.1e-05,0
49.093,-4.7837e-05,0
49.094,-2.9038e-05,0
49.094,-1.2757e-05,0
49.095,-5.8747e-06,0
49.095,-9.9031e-06,0
49.096,-1.5106e-05,0
49.096,-1.6281e-05,0
49.097,-1.3931e-05,0
49.097,-2.3499e-06,0
49.098,1.561e-05,0
49.098,2.4674e-05,0
49.099,1.9303e-05,0
49.099,1.091e-05,0
49.1,6.0426e-06,0
49.101,5.2033e-06,0
49.101,9.9031e-06,0
49.102,1.9471e-05,0
49.102,3.3066e-05,0
49.103,4.5319e-05,0
49.103,5.623e-05,0
49.104,6.5965e-05,0
49.104,7.0329e-05,0
49.105,6.7308e-05,0
49.105,6.1601e-05,0
49.106,5.7572e-05,0
49.106,5.2033e-05,0
49.107,4.7501e-05,0
49.107,4.9851e-05,0
49.108,6.2272e-05,0
49.108,8.2414e-05,0
49.109,0.00010272,0
49.109,0.00012001,0
49.11,0.00013075,0
49.11,0.00012824,0
49.111,0.00011246,0
49.111,9.1814e-05,0
49.112,7.7043e-05,0
49.112,7.4693e-05,0
49.113,7.9728e-05,0
49.114,7.8386e-05,0
49.114,6.6468e-05,0
49.115,5.0523e-05,0
49.115,3.4409e-05,0
49.116,2.1988e-05,0
49.116,1.4939e-05,0
49.117,1.2589e-05,0
49.117,8.2246e-06,0
49.118,3.8605e-06,0
49.118,8.3925e-07,0
49.119,-5.539e-06,0
49.119,-1.5946e-05,0
49.12,-2.3667e-05,0
49.12,-2.7359e-05,0
49.121,-2.9709e-05,0
49.121,-2.9038e-05,0
49.122,-2.4674e-05,0
49.122,-1.6953e-05,0
49.123,-9.5674e-06,0
49.123,-3.6927e-06,0
49.124,1.1749e-06,0
49.124,3.1891e-06,0
49.125,4.0284e-06,0
49.125,7.5532e-06,0
49.126,1.6617e-05,0
49.127,2.8534e-05,0
49.127,3.8605e-05,0
49.128,4.4144e-05,0
49.128,4.4648e-05,0
49.129,4.5319e-05,0
49.129,4.918e-05,0
49.13,5.5894e-05,0
49.13,6.3279e-05,0
49.131,6.6972e-05,0
49.131,7.0665e-05,0
49.132,7.7714e-05,0
49.132,8.426e-05,0
49.133,8.3757e-05,0
49.133,7.8386e-05,0
49.134,7.3686e-05,0
49.134,6.7979e-05,0
49.135,5.8076e-05,0
49.135,4.5823e-05,0
49.136,3.0716e-05,0
49.136,1.1917e-05,0
49.137,-5.539e-06,0
49.137,-1.4603e-05,0
49.138,-1.7288e-05,0
49.138,-2.1149e-05,0
49.139,-2.7527e-05,0
49.139,-3.6759e-05,0
49.14,-5.2537e-05,0
49.141,-6.8986e-05,0
49.141,-7.3686e-05,0
49.142,-6.4622e-05,0
49.142,-4.8508e-05,0
49.143,-3.1052e-05,0
49.143,-1.1582e-05,0
49.144,2.3499e-06,0
49.144,5.8747e-06,0
49.145,8.3925e-07,0
49.145,-9.5674e-06,0
49.146,-2.031e-05,0
49.146,-2.4674e-05,0
49.147,-1.3931e-05,0
49.147,9.2317e-06,0
49.148,3.2395e-05,0
49.148,4.7501e-05,0
49.149,5.7908e-05,0
49.149,6.9657e-05,0
49.15,8.8121e-05,0
49.15,0.00011128,0
49.151,0.00013227,0
49.151,0.00014553,0
49.152,0.00015023,0
49.152,0.00014183,0
49.153,0.000118,0
49.154,8.04e-05,0
49.154,3.743e-05,0
49.155,-2.5177e-06,0
49.155,-3.6088e-05,0
49.156,-6.3615e-05,0
49.156,-9.3324e-05,0
49.157,-0.00012538,0
49.157,-0.00015106,0
49.158,-0.00016046,0
49.158,-0.00015593,0
49.159,-0.00014788,0
49.159,-0.00013831,0
49.16,-0.00012605,0
49.16,-0.00010558,0
49.161,-8.2918e-05,0
49.161,-6.63e-05,0
49.162,-5.153e-05,0
49.162,-3.6591e-05,0
49.163,-3.0381e-05,0
49.163,-3.4073e-05,0
49.164,-3.3066e-05,0
49.164,-1.8631e-05,0
49.165,3.5248e-06,0
49.165,2.5681e-05,0
49.166,4.5991e-05,0
49.166,6.0929e-05,0
49.167,6.9657e-05,0
49.168,7.6371e-05,0
49.168,8.6442e-05,0
49.169,0.00010121,0
49.169,0.00012102,0
49.17,0.00014351,0
49.17,0.00016365,0
49.171,0.00017037,0
49.171,0.00016365,0
49.172,0.00015106,0
49.172,0.00013545,0
49.173,0.00011783,0
49.173,0.00010071,0
49.174,8.6442e-05,0
49.174,7.2679e-05,0
49.175,5.6901e-05,0
49.175,4.0955e-05,0
49.176,2.887e-05,0
49.176,2.1988e-05,0
49.177,1.7288e-05,0
49.177,1.5274e-05,0
49.178,1.1078e-05,0
49.178,5.2033e-06,0
49.179,5.539e-06,0
49.179,1.3092e-05,0
49.18,1.9135e-05,0
49.181,1.5274e-05,0
49.181,4.8676e-06,0
49.182,-6.714e-07,0
49.182,6.714e-07,0
49.183,3.8605e-06,0
49.183,4.8676e-06,0
49.184,1.6785e-06,0
49.184,-2.8534e-06,0
49.185,-7.7211e-06,0
49.185,-1.0575e-05,0
49.186,-7.7211e-06,0
49.186,-1.1749e-06,0
49.187,4.3641e-06,0
49.187,6.0426e-06,0
49.188,7.7211e-06,0
49.188,1.0407e-05,0
49.189,1.1582e-05,0
49.189,1.4267e-05,0
49.19,1.8631e-05,0
49.19,2.6017e-05,0
49.191,4.2634e-05,0
49.191,6.9657e-05,0
49.192,9.7856e-05,0
49.192,0.00011632,0
49.193,0.00012337,0
49.193,0.00011766,0
49.194,0.00010021,0
49.195,7.7546e-05,0
49.195,5.4551e-05,0
49.196,3.4073e-05,0
49.196,2.182e-05,0
49.197,1.6281e-05,0
49.197,1.0071e-05,0
49.198,2.8534e-06,0
49.198,1.6785e-07,0
49.199,2.8534e-06,0
49.199,8.5603e-06,0
49.2,1.2589e-05,0
49.2,7.8889e-06,0
49.201,-5.539e-06,0
49.201,-2.031e-05,0
49.202,-3.0549e-05,0
49.202,-3.592e-05,0
49.203,-4.3809e-05,0
49.203,-5.1865e-05,0
49.204,-5.304e-05,0
49.204,-4.7333e-05,0
49.205,-3.978e-05,0
49.205,-3.3402e-05,0
49.206,-2.9709e-05,0
49.206,-2.9709e-05,0
49.207,-3.1891e-05,0
49.208,-3.4745e-05,0
49.208,-3.6423e-05,0
49.209,-3.1891e-05,0
49.209,-1.8631e-05,0
49.21,-6.714e-07,0
49.21,1.6281e-05,0
49.211,3.4745e-05,0
49.211,5.9419e-05,0
49.212,8.4428e-05,0
49.212,0.00010507,0
49.213,0.00011901,0
49.213,0.00012136,0
49.214,0.00011464,0
49.214,0.00010256,0
49.215,8.6442e-05,0
49.215,6.7308e-05,0
49.216,4.5487e-05,0
49.216,2.7192e-05,0
49.217,1.3596e-05,0
49.217,-5.0355e-07,0
49.218,-2.1653e-05,0
49.218,-4.5319e-05,0
49.219,-6.3951e-05,0
49.219,-7.1839e-05,0
49.22,-6.9322e-05,0
49.22,-5.9586e-05,0
49.221,-4.7166e-05,0
49.222,-3.6423e-05,0
49.222,-2.8702e-05,0
49.223,-2.3163e-05,0
49.223,-2.0478e-05,0
49.224,-2.031e-05,0
49.224,-1.4603e-05,0
49.225,1.1749e-06,0
49.225,2.6017e-05,0
49.226,5.0858e-05,0
49.226,6.5797e-05,0
49.227,6.9154e-05,0
49.227,6.3447e-05,0
49.228,5.2201e-05,0
49.228,4.0116e-05,0
49.229,2.9038e-05,0
49.229,1.9303e-05,0
49.23,1.0407e-05,0
49.23,2.8534e-06,0
49.231,-1.8463e-06,0
49.231,-4.5319e-06,0
49.232,-6.0426e-06,0
49.232,-4.3641e-06,0
49.233,2.182e-06,0
49.233,1.2924e-05,0
49.234,2.5849e-05,0
49.234,3.3738e-05,0
49.235,3.3738e-05,0
49.236,3.0716e-05,0
49.236,2.8702e-05,0
49.237,2.7695e-05,0
49.237,2.7359e-05,0
49.238,2.4674e-05,0
49.238,1.6953e-05,0
49.239,6.5461e-06,0
49.239,2.182e-06,0
49.24,8.7282e-06,0
49.24,2.031e-05,0
49.241,2.9374e-05,0
49.241,3.5584e-05,0
49.242,4.0787e-05,0
49.242,4.7333e-05,0
49.243,4.9851e-05,0
49.243,4.7669e-05,0
49.244,4.1962e-05,0
49.244,3.3738e-05,0
49.245,2.8199e-05,0
49.245,2.9709e-05,0
49.246,3.827e-05,0
49.246,5.153e-05,0
49.247,6.3951e-05,0
49.247,6.7643e-05,0
49.248,6.3783e-05,0
49.249,5.8915e-05,0
49.249,5.4887e-05,0
49.25,4.9348e-05,0
49.25,3.9445e-05,0
49.251,2.3667e-05,0
49.251,7.0497e-06,0
49.252,-3.5248e-06,0
49.252,-4.1962e-06,0
49.253,4.1962e-06,0
49.253,1.9135e-05,0
49.254,3.6759e-05,0
49.254,5.4887e-05,0
49.255,6.9657e-05,0
49.255,7.7882e-05,0
49.256,8.0232e-05,0
49.256,7.805e-05,0
49.257,7.3686e-05,0
49.257,7.1336e-05,0
49.258,6.8986e-05,0
49.258,5.8915e-05,0
49.259,3.1388e-05,0
49.259,-8.5603e-06,0
49.26,-4.2466e-05,0
49.26,-5.9586e-05,0
49.261,-5.9251e-05,0
49.261,-4.8173e-05,0
49.262,-3.8102e-05,0
49.263,-3.1388e-05,0
49.263,-2.266e-05,0
49.264,-1.1414e-05,0
49.264,-2.8534e-06,0
49.265,-2.3499e-06,0
49.265,-6.2104e-06,0
49.266,-1.091e-05,0
49.266,-1.2757e-05,0
49.267,-7.2175e-06,0
49.267,4.1962e-06,0
49.268,1.4267e-05,0
49.268,1.6785e-05,0
49.269,1.3092e-05,0
49.269,9.2317e-06,0
49.27,6.3783e-06,0
49.27,5.2033e-06,0
49.271,7.2175e-06,0
49.271,1.091e-05,0
49.272,1.6617e-05,0
49.272,2.5513e-05,0
49.273,2.9374e-05,0
49.273,2.266e-05,0
49.274,6.2104e-06,0
49.274,-1.1246e-05,0
49.275,-2.3667e-05,0
49.276,-3.508e-05,0
49.276,-4.7837e-05,0
49.277,-5.3208e-05,0
49.277,-4.7501e-05,0
49.278,-3.6088e-05,0
49.278,-1.9638e-05,0
49.279,-3.1891e-06,0
49.279,9.5674e-06,0
49.28,2.0981e-05,0
49.28,3.743e-05,0
49.281,6.1601e-05,0
49.281,8.6946e-05,0
49.282,0.00010021,0
49.282,0.00010121,0
49.283,0.00010121,0
49.283,0.00010457,0
49.284,0.00010524,0
49.284,9.9199e-05,0
49.285,8.7953e-05,0
49.285,7.3518e-05,0
49.286,5.8579e-05,0
49.286,4.4648e-05,0
49.287,3.1052e-05,0
49.287,1.7456e-05,0
49.288,5.8747e-06,0
49.288,-3.0213e-06,0
49.289,-1.1078e-05,0
49.29,-1.9638e-05,0
49.29,-2.6352e-05,0
49.291,-3.1891e-05,0
49.291,-3.4745e-05,0
49.292,-3.4241e-05,0
49.292,-3.0045e-05,0
49.293,-2.2324e-05,0
49.293,-1.6281e-05,0
49.294,-1.3764e-05,0
49.294,-9.9031e-06,0
49.295,-3.5248e-06,0
49.295,4.5319e-06,0
49.296,1.1917e-05,0
49.296,1.8296e-05,0
49.297,2.501e-05,0
49.297,3.2731e-05,0
49.298,4.1459e-05,0
49.298,5.1865e-05,0
49.299,6.2104e-05,0
49.299,6.7643e-05,0
49.3,6.5629e-05,0
49.3,6.1936e-05,0
49.301,6.3951e-05,0
49.301,6.8818e-05,0
49.302,6.7979e-05,0
49.303,5.9922e-05,0
49.303,5.0187e-05,0
49.304,4.3977e-05,0
49.304,4.062e-05,0
49.305,3.4409e-05,0
49.305,2.0981e-05,0
49.306,4.1962e-06,0
49.306,-1.091e-05,0
49.307,-1.9135e-05,0
49.307,-2.0142e-05,0
49.308,-1.561e-05,0
49.308,-9.0639e-06,0
49.309,-2.5177e-06,0
49.309,4.1962e-06,0
49.31,7.8889e-06,0
49.31,3.0213e-06,0
49.311,-8.3925e-06,0
49.311,-1.7121e-05,0
49.312,-1.9638e-05,0
49.312,-1.4603e-05,0
49.313,-8.896e-06,0
49.313,-8.896e-06,0
49.314,-1.796e-05,0
49.314,-2.7359e-05,0
49.315,-2.5681e-05,0
49.316,-9.5674e-06,0
49.316,1.4939e-05,0
49.317,3.9445e-05,0
49.317,6.0258e-05,0
49.318,7.6036e-05,0
49.318,8.3085e-05,0
49.319,8.4428e-05,0
49.319,8.5771e-05,0
49.32,8.8121e-05,0
49.32,9.3828e-05,0
49.321,9.9199e-05,0
49.321,9.5171e-05,0
49.322,7.8386e-05,0
49.322,5.9922e-05,0
49.323,4.1962e-05,0
49.323,2.4506e-05,0
49.324,1.0575e-05,0
49.324,-5.0355e-07,0
49.325,-1.561e-05,0
49.325,-2.7695e-05,0
49.326,-2.5345e-05,0
49.326,-9.7353e-06,0
49.327,8.896e-06,0
49.327,1.7456e-05,0
49.328,1.7792e-05,0
49.328,2.0645e-05,0
49.329,2.8199e-05,0
49.33,3.2059e-05,0
49.33,2.6688e-05,0
49.331,1.6114e-05,0
49.331,6.3783e-06,0
49.332,1.6785e-07,0
49.332,-9.2317e-06,0
49.333,-2.6352e-05,0
49.333,-4.1794e-05,0
49.334,-4.5319e-05,0
49.334,-3.6423e-05,0
49.335,-2.4842e-05,0
49.335,-1.3428e-05,0
49.336,-1.1749e-06,0
49.336,5.2033e-06,0
49.337,2.182e-06,0
49.337,-7.2175e-06,0
49.338,-1.6953e-05,0
49.338,-2.2492e-05,0
49.339,-2.2995e-05,0
49.339,-1.9471e-05,0
49.34,-1.326e-05,0
49.34,-3.5248e-06,0
49.341,4.5319e-06,0
49.341,3.357e-06,0
49.342,-6.5461e-06,0
49.343,-1.9303e-05,0
49.343,-2.501e-05,0
49.344,-2.1485e-05,0
49.344,-2.1988e-05,0
49.345,-3.8437e-05,0
49.345,-6.2776e-05,0
49.346,-8.275e-05,0
49.346,-8.7785e-05,0
49.347,-7.1e-05,0
49.347,-3.6255e-05,0
49.348,9.9031e-06,0
49.348,5.9586e-05,0
49.349,0.00010759,0
49.349,0.00015392,0
49.35,0.00019017,0
49.35,0.00021032,0
49.351,0.00021736,0
49.351,0.00022005,0
49.352,0.00022391,0
49.352,0.00022593,0
49.353,0.00021183,0
49.353,0.00016902,0
49.354,0.00010826,0
49.354,5.2033e-05,0
49.355,1.4603e-05,0
49.355,-4.0284e-06,0
49.356,-1.0071e-05,0
49.357,-8.896e-06,0
49.357,-3.357e-06,0
49.358,4.0284e-06,0
49.358,1.2253e-05,0
49.359,2.4002e-05,0
49.359,3.9445e-05,0
49.36,5.4887e-05,0
49.36,6.63e-05,0
49.361,7.1336e-05,0
49.361,7.1839e-05,0
49.362,6.9322e-05,0
49.362,6.2608e-05,0
49.363,4.918e-05,0
49.363,2.8702e-05,0
49.364,8.896e-06,0
49.364,-9.5674e-06,0
49.365,-2.7024e-05,0
49.365,-4.3137e-05,0
49.366,-5.7237e-05,0
49.366,-7.4022e-05,0
49.367,-8.9128e-05,0
49.367,-9.4835e-05,0
49.368,-9.0471e-05,0
49.368,-8.4764e-05,0
49.369,-8.3757e-05,0
49.37,-8.51e-05,0
49.37,-8.4932e-05,0
49.371,-7.8218e-05,0
49.371,-6.5797e-05,0
49.372,-5.1865e-05,0
49.372,-3.6759e-05,0
49.373,-2.0645e-05,0
49.373,-5.539e-06,0
49.374,2.182e-06,0
49.374,6.8818e-06,0
49.375,1.1582e-05,0
49.375,1.2421e-05,0
49.376,7.8889e-06,0
49.376,3.1891e-06,0
49.377,1.6785e-06,0
49.377,1.1749e-06,0
49.378,1.5106e-06,0
49.378,5.2033e-06,0
49.379,1.1078e-05,0
49.379,1.6953e-05,0
49.38,1.8128e-05,0
49.38,1.3931e-05,0
49.381,1.2253e-05,0
49.381,2.1317e-05,0
49.382,3.2059e-05,0
49.382,3.592e-05,0
49.383,3.8773e-05,0
49.384,4.918e-05,0
49.384,6.0929e-05,0
49.385,7.0329e-05,0
49.385,7.7714e-05,0
49.386,8.275e-05,0
49.386,8.3589e-05,0
49.387,8.3085e-05,0
49.387,8.2582e-05,0
49.388,7.7043e-05,0
49.388,6.865e-05,0
49.389,6.4286e-05,0
49.389,6.3951e-05,0
49.39,5.9922e-05,0
49.39,5.1194e-05,0
49.391,4.2466e-05,0
49.391,3.8941e-05,0
49.392,3.7766e-05,0
49.392,3.2731e-05,0
49.393,1.8296e-05,0
49.393,-2.182e-06,0
49.394,-2.1653e-05,0
49.394,-3.508e-05,0
49.395,-4.1123e-05,0
49.395,-4.1459e-05,0
49.396,-3.8773e-05,0
49.397,-3.1891e-05,0
49.397,-2.2156e-05,0
49.398,-1.2589e-05,0
49.398,-5.539e-06,0
49.399,-4.3641e-06,0
49.399,-7.5532e-06,0
49.4,-1.3596e-05,0
49.4,-2.5513e-05,0
49.401,-3.6759e-05,0
49.401,-3.5752e-05,0
49.402,-1.8296e-05,0
49.402,7.5532e-06,0
49.403,3.0549e-05,0
49.403,4.1459e-05,0
49.404,4.4144e-05,0
49.404,4.6494e-05,0
49.405,5.4551e-05,0
49.405,6.5629e-05,0
49.406,7.7379e-05,0
49.406,8.9464e-05,0
49.407,9.987e-05,0
49.407,0.0001034,0
49.408,9.8527e-05,0
49.408,8.7282e-05,0
49.409,6.8986e-05,0
49.409,4.3809e-05,0
49.41,2.3331e-05,0
49.411,1.8463e-05,0
49.411,2.6017e-05,0
49.412,3.592e-05,0
49.412,4.2466e-05,0
49.413,4.0116e-05,0
49.413,2.8367e-05,0
49.414,1.5106e-05,0
49.414,7.2175e-06,0
49.415,3.0213e-06,0
49.415,2.8534e-06,0
49.416,7.3854e-06,0
49.416,1.6617e-05,0
49.417,2.6856e-05,0
49.417,3.4913e-05,0
49.418,3.7095e-05,0
49.418,2.9374e-05,0
49.419,1.2757e-05,0
49.419,-6.2104e-06,0
49.42,-1.5946e-05,0
49.42,-1.8463e-05,0
49.421,-2.5177e-05,0
49.421,-3.4073e-05,0
49.422,-3.7095e-05,0
49.422,-3.2731e-05,0
49.423,-2.5681e-05,0
49.423,-1.4771e-05,0
49.424,-1.6785e-06,0
49.425,1.1582e-05,0
49.425,2.7863e-05,0
49.426,4.4144e-05,0
49.426,5.304e-05,0
49.427,5.3208e-05,0
49.427,5.4215e-05,0
49.428,6.2272e-05,0
49.428,6.9657e-05,0
49.429,7.0329e-05,0
49.429,6.3447e-05,0
49.43,4.8508e-05,0
49.43,2.9374e-05,0
49.431,1.1582e-05,0
49.431,-1.6785e-06,0
49.432,-8.896e-06,0
49.432,-1.1582e-05,0
49.433,-6.3783e-06,0
49.433,4.3641e-06,0
49.434,1.5778e-05,0
49.434,2.501e-05,0
49.435,3.0716e-05,0
49.435,3.4241e-05,0
49.436,3.4073e-05,0
49.436,3.3402e-05,0
49.437,3.2731e-05,0
49.438,2.6352e-05,0
49.438,1.4603e-05,0
49.439,2.3499e-06,0
49.439,-9.7353e-06,0
49.44,-2.2492e-05,0
49.44,-3.4913e-05,0
49.441,-4.0452e-05,0
49.441,-3.4409e-05,0
49.442,-1.796e-05,0
49.442,3.8605e-06,0
49.443,2.2995e-05,0
49.443,3.6759e-05,0
49.444,4.6326e-05,0
49.444,5.2705e-05,0
49.445,5.3544e-05,0
49.445,4.9012e-05,0
49.446,4.1123e-05,0
49.446,3.1052e-05,0
49.447,1.9806e-05,0
49.447,1.1078e-05,0
49.448,1.8463e-06,0
49.448,-7.8889e-06,0
49.449,-1.1582e-05,0
49.449,-8.896e-06,0
49.45,-5.0355e-06,0
49.45,-3.5248e-06,0
49.451,-5.539e-06,0
49.452,-9.5674e-06,0
49.452,-1.2757e-05,0
49.453,-1.2253e-05,0
49.453,-9.3996e-06,0
49.454,-6.8818e-06,0
49.454,-4.8676e-06,0
49.455,-6.714e-07,0
49.455,7.2175e-06,0
49.456,1.8463e-05,0
49.456,2.9038e-05,0
49.457,3.6088e-05,0
49.457,4.0116e-05,0
49.458,4.4648e-05,0
49.458,4.7333e-05,0
49.459,4.6159e-05,0
49.459,4.4816e-05,0
49.46,4.2802e-05,0
49.46,3.978e-05,0
49.461,3.6088e-05,0
49.461,3.2059e-05,0
49.462,3.0045e-05,0
49.462,3.0213e-05,0
49.463,3.0716e-05,0
49.463,3.2059e-05,0
49.464,3.5248e-05,0
49.465,3.743e-05,0
49.465,3.6591e-05,0
49.466,3.2731e-05,0
49.466,2.652e-05,0
49.467,2.266e-05,0
49.467,2.4002e-05,0
49.468,2.8534e-05,0
49.468,3.2898e-05,0
49.469,3.7766e-05,0
49.469,4.3137e-05,0
49.47,4.3809e-05,0
49.47,3.9109e-05,0
49.471,3.2395e-05,0
49.471,2.3835e-05,0
49.472,1.3596e-05,0
49.472,4.5319e-06,0
49.473,1.6785e-07,0
49.473,1.1749e-06,0
49.474,1.8463e-06,0
49.474,-6.714e-07,0
49.475,-5.3712e-06,0
49.475,-1.0239e-05,0
49.476,-1.1917e-05,0
49.476,-8.5603e-06,0
49.477,-8.7282e-06,0
49.477,-1.7792e-05,0
49.478,-3.3066e-05,0
49.479,-4.5487e-05,0
49.479,-4.6159e-05,0
49.48,-3.592e-05,0
49.48,-1.9638e-05,0
49.481,-2.8534e-06,0
49.481,1.0071e-05,0
49.482,1.6953e-05,0
49.482,2.1988e-05,0
49.483,2.9038e-05,0
49.483,4.0116e-05,0
49.484,5.4215e-05,0
49.484,6.4622e-05,0
49.485,7.0497e-05,0
49.485,7.9057e-05,0
49.486,8.9128e-05,0
49.486,9.1142e-05,0
49.487,8.1407e-05,0
49.487,6.5629e-05,0
49.488,5.5894e-05,0
49.488,5.8915e-05,0
49.489,6.3615e-05,0
49.489,5.6062e-05,0
49.49,3.8102e-05,0
49.49,2.1149e-05,0
49.491,1.1414e-05,0
49.492,1.1582e-05,0
49.492,2.6688e-05,0
49.493,5.6565e-05,0
49.493,8.8457e-05,0
49.494,0.00010944,0
49.494,0.00011615,0
49.495,0.00011095,0
49.495,9.6513e-05,0
49.496,7.7043e-05,0
49.496,5.8915e-05,0
49.497,4.6494e-05,0
49.497,3.8773e-05,0
49.498,3.4073e-05,0
49.498,3.2227e-05,0
49.499,3.0549e-05,0
49.499,1.9974e-05,0
49.5,-4.5319e-06,0
49.5,-3.2395e-05,0
49.501,-5.3712e-05,0
49.501,-6.4286e-05,0
49.502,-6.5293e-05,0
49.502,-6.3615e-05,0
49.503,-6.7308e-05,0
49.503,-7.8386e-05,0
49.504,-9.0135e-05,0
49.505,-9.7353e-05,0
49.505,-9.8527e-05,0
49.506,-9.6849e-05,0
49.506,-8.896e-05,0
49.507,-7.5029e-05,0
49.507,-5.7908e-05,0
49.508,-4.1459e-05,0
49.508,-2.9374e-05,0
49.509,-2.031e-05,0
49.509,-1.1582e-05,0
49.51,-2.182e-06,0
49.51,8.5603e-06,0
49.511,1.6953e-05,0
49.511,1.7288e-05,0
49.512,1.1749e-05,0
49.512,2.5177e-06,0
49.513,-9.5674e-06,0
49.513,-2.1149e-05,0
49.514,-2.5345e-05,0
49.514,-2.0813e-05,0
49.515,-1.326e-05,0
49.515,-7.2175e-06,0
49.516,6.714e-07,0
49.516,1.2589e-05,0
49.517,2.6017e-05,0
49.517,4.2466e-05,0
49.518,5.8579e-05,0
49.519,6.949e-05,0
49.519,7.57e-05,0
49.52,8.1575e-05,0
49.52,8.5771e-05,0
49.521,8.9464e-05,0
49.521,9.3828e-05,0
49.522,9.7856e-05,0
49.522,0.00010172,0
49.523,0.00010625,0
49.523,0.00010726,0
49.524,0.00010188,0
49.524,9.3156e-05,0
49.525,7.8218e-05,0
49.525,5.304e-05,0
49.526,2.8367e-05,0
49.526,1.7624e-05,0
49.527,2.266e-05,0
49.527,3.4073e-05,0
49.528,4.0452e-05,0
49.528,3.8437e-05,0
49.529,3.2059e-05,0
49.529,2.5345e-05,0
49.53,1.7288e-05,0
49.53,1.1246e-05,0
49.531,1.0575e-05,0
49.532,1.8631e-05,0
49.532,2.8534e-05,0
49.533,3.5584e-05,0
49.533,3.7598e-05,0
49.534,3.8102e-05,0
49.534,3.7263e-05,0
49.535,3.2059e-05,0
49.535,2.4674e-05,0
49.536,2.0813e-05,0
49.536,2.1317e-05,0
49.537,2.1317e-05,0
49.537,1.1078e-05,0
49.538,-1.0239e-05,0
49.538,-3.0716e-05,0
49.539,-3.9109e-05,0
49.539,-3.508e-05,0
49.54,-2.2492e-05,0
49.54,-5.7069e-06,0
49.541,9.7353e-06,0
49.541,2.4002e-05,0
49.542,3.7095e-05,0
49.542,4.5823e-05,0
49.543,4.8508e-05,0
49.543,4.7501e-05,0
49.544,5.0187e-05,0
49.544,5.7572e-05,0
49.545,6.1097e-05,0
49.546,5.2537e-05,0
49.546,3.6423e-05,0
49.547,2.266e-05,0
49.547,1.1078e-05,0
49.548,-1.1749e-06,0
49.548,-7.7211e-06,0
49.549,-5.539e-06,0
49.549,-2.8534e-06,0
49.55,0,0
49.55,3.0213e-06,0
49.551,3.1891e-06,0
49.551,1.5106e-06,0
49.552,8.3925e-07,0
49.552,-1.8463e-06,0
49.553,-8.5603e-06,0
49.553,-1.2421e-05,0
49.554,-7.8889e-06,0
49.554,3.8605e-06,0
49.555,1.5106e-05,0
49.555,1.796e-05,0
49.556,1.4267e-05,0
49.556,9.2317e-06,0
49.557,7.3854e-06,0
49.557,8.2246e-06,0
49.558,1.0239e-05,0
49.559,8.896e-06,0
49.559,8.2246e-06,0
49.56,1.8631e-05,0
49.56,3.7095e-05,0
49.561,5.2033e-05,0
49.561,6.0426e-05,0
49.562,6.9322e-05,0
49.562,8.2078e-05,0
49.563,8.7114e-05,0
49.563,8.3925e-05,0
49.564,7.6371e-05,0
49.564,6.5126e-05,0
49.565,4.7501e-05,0
49.565,2.9038e-05,0
49.566,2.0478e-05,0
49.566,2.1317e-05,0
49.567,2.1317e-05,0
49.567,1.326e-05,0
49.568,-8.3925e-06,0
49.568,-3.8102e-05,0
49.569,-6.009e-05,0
49.569,-7.0161e-05,0
49.57,-7.7211e-05,0
49.57,-8.6778e-05,0
49.571,-9.9535e-05,0
49.571,-0.00010574,0
49.572,-9.9199e-05,0
49.573,-8.2918e-05,0
49.573,-6.0258e-05,0
49.574,-3.508e-05,0
49.574,-1.1917e-05,0
49.575,7.8889e-06,0
49.575,2.4674e-05,0
49.576,3.5752e-05,0
49.576,3.8605e-05,0
49.577,3.8773e-05,0
49.577,4.4144e-05,0
49.578,5.6062e-05,0
49.578,6.9657e-05,0
49.579,7.9057e-05,0
49.579,7.805e-05,0
49.58,6.9154e-05,0
49.58,5.9922e-05,0
49.581,5.3208e-05,0
49.581,4.3809e-05,0
49.582,3.1052e-05,0
49.582,2.266e-05,0
49.583,2.2324e-05,0
49.583,2.6017e-05,0
49.584,3.0045e-05,0
49.584,3.1556e-05,0
49.585,3.1388e-05,0
49.586,3.0045e-05,0
49.586,3.1724e-05,0
49.587,3.743e-05,0
49.587,4.213e-05,0
49.588,4.1291e-05,0
49.588,4.3641e-05,0
49.589,5.2033e-05,0
49.589,6.0929e-05,0
49.59,7.3014e-05,0
49.59,8.6442e-05,0
49.591,9.0471e-05,0
49.591,8.6442e-05,0
49.592,8.1407e-05,0
49.592,7.7379e-05,0
49.593,7.0329e-05,0
49.593,5.8244e-05,0
49.594,4.4648e-05,0
49.594,2.9206e-05,0
49.595,1.0575e-05,0
49.595,-6.8818e-06,0
49.596,-1.5946e-05,0
49.596,-1.8463e-05,0
49.597,-2.0981e-05,0
49.597,-2.5513e-05,0
49.598,-2.5345e-05,0
49.598,-1.796e-05,0
49.599,-1.3092e-05,0
49.6,-1.4939e-05,0
49.6,-1.9974e-05,0
49.601,-2.2828e-05,0
49.601,-2.0981e-05,0
49.602,-1.6953e-05,0
49.602,-1.326e-05,0
49.603,-1.0071e-05,0
49.603,-5.2033e-06,0
49.604,-1.6785e-07,0
49.604,5.2033e-06,0
49.605,1.1582e-05,0
49.605,1.796e-05,0
49.606,2.3667e-05,0
49.606,2.6352e-05,0
49.607,2.5177e-05,0
49.607,2.0981e-05,0
49.608,1.6114e-05,0
49.608,1.2421e-05,0
49.609,1.0239e-05,0
49.609,9.0639e-06,0
49.61,8.3925e-06,0
49.61,1.1246e-05,0
49.611,1.6953e-05,0
49.611,2.1653e-05,0
49.612,2.7024e-05,0
49.612,3.0884e-05,0
49.613,3.122e-05,0
49.614,3.1052e-05,0
49.614,3.2395e-05,0
49.615,3.0045e-05,0
49.615,1.9974e-05,0
49.616,1.0071e-05,0
49.616,8.3925e-06,0
49.617,1.5946e-05,0
49.617,2.8534e-05,0
49.618,3.8773e-05,0
49.618,4.2802e-05,0
49.619,4.1123e-05,0
49.619,3.7598e-05,0
49.62,3.8102e-05,0
49.62,3.743e-05,0
49.621,3.0716e-05,0
49.621,2.3499e-05,0
49.622,1.8967e-05,0
49.622,1.5274e-05,0
49.623,8.5603e-06,0
49.623,9.2317e-06,0
49.624,1.8799e-05,0
49.624,2.887e-05,0
49.625,4.2466e-05,0
49.625,6.4118e-05,0
49.626,8.5603e-05,0
49.627,9.0471e-05,0
49.627,7.4861e-05,0
49.628,4.7166e-05,0
49.628,2.3499e-05,0
49.629,1.8463e-05,0
49.629,2.8367e-05,0
49.63,3.743e-05,0
49.63,3.2059e-05,0
49.631,9.9031e-06,0
49.631,-1.9135e-05,0
49.632,-4.918e-05,0
49.632,-7.0832e-05,0
49.633,-7.3854e-05,0
49.633,-5.7404e-05,0
49.634,-3.6423e-05,0
49.634,-2.5513e-05,0
49.635,-2.1149e-05,0
49.635,-1.6953e-05,0
49.636,-8.896e-06,0
49.636,4.3641e-06,0
49.637,1.8128e-05,0
49.637,2.9877e-05,0
49.638,3.7095e-05,0
49.638,4.0955e-05,0
49.639,4.448e-05,0
49.639,4.8844e-05,0
49.64,4.918e-05,0
49.641,4.683e-05,0
49.641,4.5487e-05,0
49.642,4.5151e-05,0
49.642,4.1627e-05,0
49.643,3.1724e-05,0
49.643,1.7288e-05,0
49.644,5.2033e-06,0
49.644,-1.6785e-07,0
49.645,1.6785e-07,0
49.645,5.2033e-06,0
49.646,1.326e-05,0
49.646,1.9974e-05,0
49.647,2.1988e-05,0
49.647,1.8631e-05,0
49.648,1.2421e-05,0
49.648,7.5532e-06,0
49.649,7.5532e-06,0
49.649,9.5674e-06,0
49.65,1.1246e-05,0
49.65,8.896e-06,0
49.651,8.3925e-07,0
49.651,-1.1246e-05,0
49.652,-2.2995e-05,0
49.652,-3.122e-05,0
49.653,-3.6759e-05,0
49.654,-4.0284e-05,0
49.654,-4.3305e-05,0
49.655,-4.5823e-05,0
49.655,-4.7837e-05,0
49.656,-4.5655e-05,0
49.656,-3.5584e-05,0
49.657,-1.8128e-05,0
49.657,5.2033e-06,0
49.658,3.0716e-05,0
49.658,4.9683e-05,0
49.659,6.1265e-05,0
49.659,6.9154e-05,0
49.66,7.7714e-05,0
49.66,8.7785e-05,0
49.661,9.752e-05,0
49.661,0.00010625,0
49.662,0.00010994,0
49.662,0.00010709,0
49.663,9.6513e-05,0
49.663,8.04e-05,0
49.664,6.4286e-05,0
49.664,5.5894e-05,0
49.665,4.9516e-05,0
49.665,3.9109e-05,0
49.666,2.4674e-05,0
49.666,1.1582e-05,0
49.667,4.5319e-06,0
49.668,-3.357e-07,0
49.668,-1.4603e-05,0
49.669,-4.1123e-05,0
49.669,-6.2608e-05,0
49.67,-6.9993e-05,0
49.67,-6.3447e-05,0
49.671,-4.6494e-05,0
49.671,-2.031e-05,0
49.672,9.9031e-06,0
49.672,4.1459e-05,0
49.673,7.1504e-05,0
49.673,9.5674e-05,0
49.674,0.00011028,0
49.674,0.00012035,0
49.675,0.00013596,0
49.675,0.00015744,0
49.676,0.00017104,0
49.676,0.00016349,0
49.677,0.00013277,0
49.677,8.9296e-05,0
49.678,4.7501e-05,0
49.678,2.1317e-05,0
49.679,5.8747e-06,0
49.679,-4.5319e-06,0
49.68,-1.091e-05,0
49.681,-2.031e-05,0
49.681,-3.2059e-05,0
49.682,-3.8773e-05,0
49.682,-4.1123e-05,0
49.683,-4.5151e-05,0
49.683,-4.8844e-05,0
49.684,-4.8341e-05,0
49.684,-4.5319e-05,0
49.685,-4.062e-05,0
49.685,-2.9038e-05,0
49.686,-1.0407e-05,0
49.686,7.0497e-06,0
49.687,1.796e-05,0
49.687,2.031e-05,0
49.688,1.6617e-05,0
49.688,1.3092e-05,0
49.689,8.896e-06,0
49.689,-1.1749e-06,0
49.69,-1.3931e-05,0
49.69,-2.2156e-05,0
49.691,-2.4674e-05,0
49.691,-2.0981e-05,0
49.692,-1.1246e-05,0
49.692,7.2175e-06,0
49.693,3.592e-05,0
49.694,6.3279e-05,0
49.694,7.335e-05,0
49.695,6.1433e-05,0
49.695,4.0452e-05,0
49.696,2.5513e-05,0
49.696,1.9303e-05,0
49.697,1.5274e-05,0
49.697,9.2317e-06,0
49.698,3.357e-07,0
49.698,-7.5532e-06,0
49.699,-1.1414e-05,0
49.699,-1.4435e-05,0
49.7,-2.1317e-05,0
49.7,-2.9038e-05,0
49.701,-3.2395e-05,0
49.701,-3.122e-05,0
49.702,-2.6017e-05,0
49.702,-1.8296e-05,0
49.703,-1.0575e-05,0
49.703,-3.6927e-06,0
49.704,2.0142e-06,0
49.704,8.3925e-06,0
49.705,1.7624e-05,0
49.705,2.7192e-05,0
49.706,3.3402e-05,0
49.706,3.743e-05,0
49.707,4.0787e-05,0
49.708,3.7766e-05,0
49.708,3.0716e-05,0
49.709,2.6352e-05,0
49.709,2.4338e-05,0
49.71,1.9974e-05,0
49.71,1.8296e-05,0
49.711,2.4338e-05,0
49.711,3.1556e-05,0
49.712,3.978e-05,0
49.712,4.9851e-05,0
49.713,6.1265e-05,0
49.713,6.7979e-05,0
49.714,6.7979e-05,0
49.714,6.5629e-05,0
49.715,5.7572e-05,0
49.715,4.213e-05,0
49.716,2.501e-05,0
49.716,1.1917e-05,0
49.717,3.8605e-06,0
49.717,-2.182e-06,0
49.718,-9.9031e-06,0
49.718,-1.561e-05,0
49.719,-1.6785e-05,0
49.719,-1.4939e-05,0
49.72,-1.8463e-05,0
49.721,-2.7527e-05,0
49.721,-2.8702e-05,0
49.722,-1.4939e-05,0
49.722,1.8463e-06,0
49.723,7.2175e-06,0
49.723,3.0213e-06,0
49.724,5.0355e-07,0
49.724,5.2033e-06,0
49.725,1.6617e-05,0
49.725,2.9709e-05,0
49.726,4.0787e-05,0
49.726,5.1194e-05,0
49.727,6.0761e-05,0
49.727,6.7811e-05,0
49.728,7.2679e-05,0
49.728,7.7043e-05,0
49.729,8.2582e-05,0
49.729,8.4932e-05,0
49.73,7.6204e-05,0
49.73,5.9419e-05,0
49.731,4.5823e-05,0
49.731,3.8102e-05,0
49.732,3.508e-05,0
49.732,3.6759e-05,0
49.733,4.0116e-05,0
49.733,4.062e-05,0
49.734,3.9277e-05,0
49.735,3.8437e-05,0
49.735,3.9445e-05,0
49.736,4.4144e-05,0
49.736,5.0019e-05,0
49.737,5.2537e-05,0
49.737,4.918e-05,0
49.738,4.2466e-05,0
49.738,3.9109e-05,0
49.739,3.8102e-05,0
49.739,3.4745e-05,0
49.74,2.8199e-05,0
49.74,2.3667e-05,0
49.741,2.4506e-05,0
49.741,2.7695e-05,0
49.742,2.5849e-05,0
49.742,1.8463e-05,0
49.743,9.9031e-06,0
49.743,4.5319e-06,0
49.744,6.8818e-06,0
49.744,1.3931e-05,0
49.745,1.6617e-05,0
49.745,1.326e-05,0
49.746,8.896e-06,0
49.746,4.1962e-06,0
49.747,1.1749e-06,0
49.748,4.8676e-06,0
49.748,1.2085e-05,0
49.749,1.7624e-05,0
49.749,1.7624e-05,0
49.75,9.2317e-06,0
49.75,-2.5177e-06,0
49.751,-1.1749e-05,0
49.751,-1.4939e-05,0
49.752,-1.4099e-05,0
49.752,-1.3931e-05,0
49.753,-1.1414e-05,0
49.753,-4.5319e-06,0
49.754,1.8463e-06,0
49.754,3.8605e-06,0
49.755,5.0355e-06,0
49.755,3.1891e-06,0
49.756,-2.182e-06,0
49.756,-7.8889e-06,0
49.757,-1.5106e-05,0
49.757,-2.2828e-05,0
49.758,-2.8031e-05,0
49.758,-3.1388e-05,0
49.759,-3.2731e-05,0
49.759,-3.4073e-05,0
49.76,-3.7095e-05,0
49.76,-3.6423e-05,0
49.761,-2.9374e-05,0
49.762,-2.0981e-05,0
49.762,-1.8128e-05,0
49.763,-1.6617e-05,0
49.763,-1.0239e-05,0
49.764,-1.1749e-06,0
49.764,5.0355e-06,0
49.765,7.2175e-06,0
49.765,8.896e-06,0
49.766,1.326e-05,0
49.766,2.0645e-05,0
49.767,2.5177e-05,0
49.767,2.4842e-05,0
49.768,2.3499e-05,0
49.768,2.3667e-05,0
49.769,2.6352e-05,0
49.769,3.1891e-05,0
49.77,3.8437e-05,0
49.77,4.1794e-05,0
49.771,4.1627e-05,0
49.771,4.1123e-05,0
49.772,4.1123e-05,0
49.772,4.0452e-05,0
49.773,3.9445e-05,0
49.773,3.827e-05,0
49.774,3.8941e-05,0
49.775,4.1794e-05,0
49.775,4.3641e-05,0
49.776,4.5991e-05,0
49.776,4.9516e-05,0
49.777,5.3208e-05,0
49.777,5.623e-05,0
49.778,6.0258e-05,0
49.778,6.5293e-05,0
49.779,7.0832e-05,0
49.779,7.805e-05,0
49.78,8.5603e-05,0
49.78,8.4932e-05,0
49.781,7.1e-05,0
49.781,5.1362e-05,0
49.782,3.3402e-05,0
49.782,2.1988e-05,0
49.783,1.6617e-05,0
49.783,1.4267e-05,0
49.784,1.3596e-05,0
49.784,1.5274e-05,0
49.785,1.4939e-05,0
49.785,1.2085e-05,0
49.786,1.091e-05,0
49.786,1.1078e-05,0
49.787,1.4435e-05,0
49.787,2.266e-05,0
49.788,2.9206e-05,0
49.789,2.5681e-05,0
49.789,8.0568e-06,0
49.79,-1.6281e-05,0
49.79,-3.0549e-05,0
49.791,-2.8534e-05,0
49.791,-2.266e-05,0
49.792,-1.6953e-05,0
49.792,-6.3783e-06,0
49.793,9.2317e-06,0
49.793,2.4674e-05,0
49.794,3.6759e-05,0
49.794,4.4144e-05,0
49.795,5.0187e-05,0
49.795,6.0258e-05,0
49.796,7.4189e-05,0
49.796,8.0903e-05,0
49.797,6.7643e-05,0
49.797,3.7766e-05,0
49.798,1.0239e-05,0
49.798,-1.8463e-06,0
49.799,-1.6785e-06,0
49.799,2.8534e-06,0
49.8,4.6998e-06,0
49.8,1.6785e-06,0
49.801,-2.0142e-06,0
49.801,-1.5106e-06,0
49.802,7.0497e-06,0
49.803,2.6688e-05,0
49.803,5.4551e-05,0
49.804,8.0232e-05,0
49.804,9.7856e-05,0
49.805,0.00010423,0
49.805,0.00010289,0
49.806,9.5842e-05,0
49.806,7.9728e-05,0
49.807,5.6901e-05,0
49.807,3.4073e-05,0
49.808,1.9806e-05,0
49.808,1.3931e-05,0
49.809,9.5674e-06,0
49.809,2.6856e-06,0
49.81,-7.0497e-06,0
49.81,-1.6281e-05,0
49.811,-2.6017e-05,0
49.811,-3.592e-05,0
49.812,-4.2298e-05,0
49.812,-4.7837e-05,0
49.813,-5.2873e-05,0
49.813,-5.5222e-05,0
49.814,-5.5222e-05,0
49.814,-5.4047e-05,0
49.815,-5.2537e-05,0
49.816,-5.6565e-05,0
49.816,-6.4622e-05,0
49.817,-7.0665e-05,0
49.817,-7.0329e-05,0
49.818,-6.2272e-05,0
49.818,-5.0019e-05,0
49.819,-3.978e-05,0
49.819,-3.3066e-05,0
49.82,-2.6688e-05,0
49.82,-1.9974e-05,0
49.821,-1.5778e-05,0
49.821,-1.0239e-05,0
49.822,1.5106e-06,0
49.822,1.4267e-05,0
49.823,1.5946e-05,0
49.823,1.1246e-05,0
49.824,9.2317e-06,0
49.824,1.0071e-05,0
49.825,1.4435e-05,0
49.825,3.0045e-05,0
49.826,5.8915e-05,0
49.826,8.7449e-05,0
49.827,0.00010423,0
49.827,0.00010726,0
49.828,0.00010105,0
49.828,9.0303e-05,0
49.829,7.6204e-05,0
49.83,6.1601e-05,0
49.83,5.0858e-05,0
49.831,4.5487e-05,0
49.831,4.9348e-05,0
49.832,5.6901e-05,0
49.832,5.8747e-05,0
49.833,5.623e-05,0
49.833,5.623e-05,0
49.834,5.6565e-05,0
49.834,5.0858e-05,0
49.835,4.448e-05,0
49.835,4.4984e-05,0
49.836,4.8676e-05,0
49.836,4.8508e-05,0
49.837,4.2802e-05,0
49.837,3.3906e-05,0
49.838,2.3331e-05,0
49.838,1.3092e-05,0
49.839,9.2317e-06,0
49.839,1.8631e-05,0
49.84,3.743e-05,0
49.84,5.0523e-05,0
49.841,5.4383e-05,0
49.841,5.304e-05,0
49.842,4.6326e-05,0
49.843,3.4073e-05,0
49.843,2.0142e-05,0
49.844,9.0639e-06,0
49.844,-5.0355e-07,0
49.845,-7.8889e-06,0
49.845,-1.1582e-05,0
49.846,-1.5274e-05,0
49.846,-2.1317e-05,0
49.847,-2.6352e-05,0
49.847,-2.6352e-05,0
49.848,-2.182e-05,0
49.848,-1.9303e-05,0
49.849,-1.9303e-05,0
49.849,-1.4603e-05,0
49.85,-5.539e-06,0
49.85,4.1962e-06,0
49.851,9.5674e-06,0
49.851,1.5946e-05,0
49.852,2.6688e-05,0
49.852,3.8102e-05,0
49.853,5.0187e-05,0
49.853,6.5629e-05,0
49.854,7.8218e-05,0
49.854,8.2918e-05,0
49.855,8.426e-05,0
49.855,8.3085e-05,0
49.856,7.8721e-05,0
49.857,7.5868e-05,0
49.857,7.1672e-05,0
49.858,5.9251e-05,0
49.858,3.743e-05,0
49.859,7.5532e-06,0
49.859,-2.3499e-05,0
49.86,-4.5487e-05,0
49.86,-5.4551e-05,0
49.861,-5.4551e-05,0
49.861,-5.0019e-05,0
49.862,-4.3473e-05,0
49.862,-3.5584e-05,0
49.863,-2.9877e-05,0
49.863,-2.7359e-05,0
49.864,-2.3331e-05,0
49.864,-1.2253e-05,0
49.865,3.1891e-06,0
49.865,1.4603e-05,0
49.866,2.1317e-05,0
49.866,2.8031e-05,0
49.867,3.3066e-05,0
49.867,3.4073e-05,0
49.868,3.1724e-05,0
49.868,2.8199e-05,0
49.869,2.5345e-05,0
49.87,1.8799e-05,0
49.87,7.5532e-06,0
49.871,-4.5319e-06,0
49.871,-1.6281e-05,0
49.872,-2.7695e-05,0
49.872,-3.508e-05,0
49.873,-3.2731e-05,0
49.873,-1.9974e-05,0
49.874,1.6785e-06,0
49.874,2.7192e-05,0
49.875,5.6901e-05,0
49.875,8.3925e-05,0
49.876,0.00010155,0
49.876,0.00010994,0
49.877,0.00011061,0
49.877,9.987e-05,0
49.878,7.8386e-05,0
49.878,5.304e-05,0
49.879,3.6088e-05,0
49.879,3.6759e-05,0
49.88,5.0858e-05,0
49.88,6.6972e-05,0
49.881,6.9657e-05,0
49.881,5.4887e-05,0
49.882,3.5752e-05,0
49.883,2.1988e-05,0
49.883,7.2175e-06,0
49.884,-1.6617e-05,0
49.884,-4.3473e-05,0
49.885,-6.244e-05,0
49.885,-7.0832e-05,0
49.886,-7.4022e-05,0
49.886,-7.6707e-05,0
49.887,-7.5868e-05,0
49.887,-6.63e-05,0
49.888,-5.4383e-05,0
49.888,-4.918e-05,0
49.889,-5.069e-05,0
49.889,-5.0858e-05,0
49.89,-4.5487e-05,0
49.89,-4.1459e-05,0
49.891,-4.3977e-05,0
49.891,-4.9348e-05,0
49.892,-4.5151e-05,0
49.892,-2.7359e-05,0
49.893,-1.3428e-06,0
49.893,2.8031e-05,0
49.894,5.5558e-05,0
49.894,7.3686e-05,0
49.895,8.3757e-05,0
49.895,9.7185e-05,0
49.896,0.00012136,0
49.897,0.00014653,0
49.897,0.00015694,0
49.898,0.00014922,0
49.898,0.00013193,0
49.899,0.00010961,0
49.899,7.8218e-05,0
49.9,4.2802e-05,0
49.9,1.2757e-05,0
49.901,-8.2246e-06,0
49.901,-2.0142e-05,0
49.902,-2.5345e-05,0
49.902,-2.2995e-05,0
49.903,-1.2253e-05,0
49.903,3.1891e-06,0
49.904,1.4603e-05,0
49.904,1.9974e-05,0
49.905,2.6688e-05,0
49.905,3.9277e-05,0
49.906,5.388e-05,0
49.906,6.63e-05,0
49.907,7.4357e-05,0
49.907,8.1743e-05,0
49.908,8.5771e-05,0
49.908,7.8218e-05,0
49.909,6.0761e-05,0
49.91,4.4816e-05,0
49.91,3.4577e-05,0
49.911,2.6184e-05,0
49.911,1.7121e-05,0
49.912,4.6998e-06,0
49.912,-1.1246e-05,0
49.913,-2.4338e-05,0
49.913,-2.7192e-05,0
49.914,-1.9638e-05,0
49.914,-6.8818e-06,0
49.915,1.0575e-05,0
49.915,2.9038e-05,0
49.916,4.1291e-05,0
49.916,4.4816e-05,0
49.917,4.2802e-05,0
49.917,4.0116e-05,0
49.918,3.9612e-05,0
49.918,4.213e-05,0
49.919,4.7333e-05,0
49.919,5.2705e-05,0
49.92,5.5894e-05,0
49.92,5.069e-05,0
49.921,3.6927e-05,0
49.921,1.5778e-05,0
49.922,-6.714e-06,0
49.922,-2.0981e-05,0
49.923,-2.6352e-05,0
49.924,-2.5681e-05,0
49.924,-1.8631e-05,0
49.925,-1.091e-05,0
49.925,-3.1891e-06,0
49.926,2.8534e-06,0
49.926,6.3783e-06,0
49.927,9.5674e-06,0
49.927,1.6785e-05,0
49.928,2.7024e-05,0
49.928,3.2059e-05,0
49.929,2.7024e-05,0
49.929,1.1582e-05,0
49.93,-6.8818e-06,0
49.93,-1.9638e-05,0
49.931,-2.5849e-05,0
49.931,-2.501e-05,0
49.932,-1.6953e-05,0
49.932,-5.539e-06,0
49.933,3.5248e-06,0
49.933,6.2104e-06,0
49.934,1.0239e-05,0
49.934,1.7624e-05,0
49.935,3.0381e-05,0
49.935,4.5487e-05,0
49.936,5.4551e-05,0
49.937,5.4383e-05,0
49.937,4.8173e-05,0
49.938,4.1459e-05,0
49.938,3.3402e-05,0
49.939,2.031e-05,0
49.939,5.539e-06,0
49.94,-5.539e-06,0
49.94,-1.1917e-05,0
49.941,-1.4099e-05,0
49.941,-1.6449e-05,0
49.942,-1.9471e-05,0
49.942,-1.8967e-05,0
49.943,-9.5674e-06,0
49.943,4.1962e-06,0
49.944,1.6281e-05,0
49.944,2.6352e-05,0
49.945,3.4745e-05,0
49.945,4.213e-05,0
49.946,4.6662e-05,0
49.946,4.2298e-05,0
49.947,3.2059e-05,0
49.947,2.3667e-05,0
49.948,1.2924e-05,0
49.948,-2.5177e-06,0
49.949,-1.5778e-05,0
49.949,-2.0981e-05,0
49.95,-1.8967e-05,0
49.951,-1.2253e-05,0
49.951,-5.0355e-06,0
49.952,-3.8605e-06,0
49.952,-5.2033e-06,0
49.953,7.5532e-06,0
49.953,3.6591e-05,0
49.954,6.2272e-05,0
49.954,6.8482e-05,0
49.955,5.8747e-05,0
49.955,4.062e-05,0
49.956,2.4842e-05,0
49.956,2.0645e-05,0
49.957,2.3499e-05,0
49.957,2.5345e-05,0
49.958,2.2995e-05,0
49.958,1.8631e-05,0
49.959,1.6449e-05,0
49.959,1.2924e-05,0
49.96,5.2033e-06,0
49.96,1.6785e-07,0
49.961,2.5177e-06,0
49.961,1.1749e-05,0
49.962,2.4002e-05,0
49.962,3.5584e-05,0
49.963,3.8437e-05,0
49.964,3.2059e-05,0
49.964,2.6352e-05,0
49.965,2.4842e-05,0
49.965,2.3499e-05,0
49.966,2.2995e-05,0
49.966,2.8031e-05,0
49.967,3.7766e-05,0
49.967,4.3809e-05,0
49.968,4.0452e-05,0
49.968,3.2731e-05,0
49.969,2.7695e-05,0
49.969,3.0045e-05,0
49.97,3.5248e-05,0
49.97,4.1962e-05,0
49.971,5.2873e-05,0
49.971,6.3615e-05,0
49.972,6.6133e-05,0
49.972,6.2104e-05,0
49.973,5.4215e-05,0
49.973,4.1794e-05,0
49.974,2.2324e-05,0
49.974,3.5248e-06,0
49.975,-7.5532e-06,0
49.975,-1.1246e-05,0
49.976,-1.2757e-05,0
49.976,-1.326e-05,0
49.977,-1.2757e-05,0
49.978,-9.7353e-06,0
49.978,-1.0071e-06,0
49.979,7.8889e-06,0
49.979,1.2085e-05,0
49.98,1.5274e-05,0
49.98,1.9638e-05,0
49.981,2.2492e-05,0
49.981,1.8463e-05,0
49.982,1.0575e-05,0
49.982,8.5603e-06,0
49.983,1.5946e-05,0
49.983,2.4506e-05,0
49.984,2.8367e-05,0
49.984,2.8367e-05,0
49.985,2.2995e-05,0
49.985,1.326e-05,0
49.986,4.3641e-06,0
49.986,-3.6927e-06,0
49.987,-9.2317e-06,0
49.987,-1.3596e-05,0
49.988,-1.4267e-05,0
49.988,-1.1078e-05,0
49.989,-7.5532e-06,0
49.989,-6.2104e-06,0
49.99,-4.3641e-06,0
49.99,-2.3499e-06,0
49.991,-1.1749e-06,0
49.992,1.5106e-06,0
49.992,7.8889e-06,0
49.993,1.7121e-05,0
49.993,2.4506e-05,0
49.994,2.9038e-05,0
49.994,3.5752e-05,0
49.995,5.0019e-05,0
49.995,6.4622e-05,0
49.996,7.4357e-05,0
49.996,7.805e-05,0
49.997,7.6707e-05,0
49.997,7.2343e-05,0
49.998,6.3951e-05,0
49.998,5.2873e-05,0
49.999,4.448e-05,0
49.999,4.0116e-05,0
50,3.3402e-05,0
50,1.8463e-05,0
50.001,-3.5248e-06,0
50.001,-2.3499e-05,0
50.002,-3.6591e-05,0
50.002,-4.3809e-05,0
50.003,-4.2466e-05,0
50.003,-3.0045e-05,0
50.004,-1.1917e-05,0
50.005,2.5177e-06,0
50.005,1.1414e-05,0
50.006,1.7121e-05,0
50.006,2.1317e-05,0
50.007,2.3499e-05,0
50.007,2.5849e-05,0
50.008,3.5416e-05,0
50.008,4.8005e-05,0
50.009,5.3544e-05,0
50.009,4.918e-05,0
50.01,3.8102e-05,0
50.01,2.6688e-05,0
50.011,1.8296e-05,0
50.011,2.1317e-05,0
50.012,4.0787e-05,0
50.012,6.2272e-05,0
50.013,7.3182e-05,0
50.013,7.3518e-05,0
50.014,6.9993e-05,0
50.014,6.3615e-05,0
50.015,5.3208e-05,0
50.015,4.1794e-05,0
50.016,3.2059e-05,0
50.016,2.2492e-05,0
50.017,1.1582e-05,0
50.017,5.7069e-06,0
50.018,5.8747e-06,0
50.019,5.8747e-06,0
50.019,3.6927e-06,0
50.02,-1.1749e-06,0
50.02,-6.8818e-06,0
50.021,-1.2253e-05,0
50.021,-1.9135e-05,0
50.022,-3.2395e-05,0
50.022,-4.5319e-05,0
50.023,-4.3809e-05,0
50.023,-3.0213e-05,0
50.024,-2.501e-05,0
50.024,-3.122e-05,0
50.025,-3.4913e-05,0
50.025,-2.5345e-05,0
50.026,-1.1078e-05,0
50.026,8.3925e-07,0
50.027,1.0239e-05,0
50.027,2.182e-05,0
50.028,3.8102e-05,0
50.028,5.4215e-05,0
50.029,6.5797e-05,0
50.029,7.335e-05,0
50.03,7.0665e-05,0
50.03,5.7908e-05,0
50.031,4.5823e-05,0
50.032,4.1459e-05,0
50.032,4.3809e-05,0
50.033,4.683e-05,0
50.033,4.4816e-05,0
50.034,3.743e-05,0
50.034,2.7527e-05,0
50.035,2.0478e-05,0
50.035,1.796e-05,0
50.036,1.7121e-05,0
50.036,1.5946e-05,0
50.037,1.6953e-05,0
50.037,2.1149e-05,0
50.038,2.3331e-05,0
50.038,1.8967e-05,0
50.039,1.3428e-05,0
50.039,1.2924e-05,0
50.04,1.796e-05,0
50.04,2.5849e-05,0
50.041,3.4577e-05,0
50.041,4.3137e-05,0
50.042,4.9516e-05,0
50.042,5.4215e-05,0
50.043,5.4215e-05,0
50.043,4.3137e-05,0
50.044,2.1149e-05,0
50.044,-6.0426e-06,0
50.045,-3.3402e-05,0
50.046,-5.8915e-05,0
50.046,-8.191e-05,0
50.047,-9.2821e-05,0
50.047,-8.9128e-05,0
50.048,-8.0064e-05,0
50.048,-7.6036e-05,0
50.049,-8.0903e-05,0
50.049,-8.7114e-05,0
50.05,-8.2918e-05,0
50.05,-6.3279e-05,0
50.051,-3.2395e-05,0
50.051,-8.3925e-07,0
50.052,2.5345e-05,0
50.052,5.2873e-05,0
50.053,8.1407e-05,0
50.053,0.00010188,0
50.054,0.00011196,0
50.054,0.00011481,0
50.055,0.00011296,0
50.055,0.00010642,0
50.056,9.5171e-05,0
50.056,8.1239e-05,0
50.057,6.7308e-05,0
50.057,5.4551e-05,0
50.058,4.1459e-05,0
50.059,3.122e-05,0
50.059,2.5177e-05,0
50.06,2.266e-05,0
50.06,2.2995e-05,0
50.061,2.4338e-05,0
50.061,2.6688e-05,0
50.062,2.9541e-05,0
50.062,3.3066e-05,0
50.063,3.6088e-05,0
50.063,3.7766e-05,0
50.064,3.6088e-05,0
50.064,3.3738e-05,0
50.065,3.4073e-05,0
50.065,3.743e-05,0
50.066,4.2466e-05,0
50.066,4.448e-05,0
50.067,4.3809e-05,0
50.067,4.3977e-05,0
50.068,4.6159e-05,0
50.068,4.7333e-05,0
50.069,4.5151e-05,0
50.069,4.2802e-05,0
50.07,4.0116e-05,0
50.07,3.508e-05,0
50.071,2.8031e-05,0
50.072,2.2324e-05,0
50.072,1.6617e-05,0
50.073,8.896e-06,0
50.073,-3.8605e-06,0
50.074,-1.8967e-05,0
50.074,-2.7359e-05,0
50.075,-2.2995e-05,0
50.075,-1.2757e-05,0
50.076,-8.2246e-06,0
50.076,-7.5532e-06,0
50.077,-2.182e-06,0
50.077,9.9031e-06,0
50.078,2.1653e-05,0
50.078,2.9374e-05,0
50.079,3.5752e-05,0
50.079,4.1794e-05,0
50.08,4.7166e-05,0
50.08,5.0858e-05,0
50.081,5.2369e-05,0
50.081,4.9516e-05,0
50.082,4.7837e-05,0
50.082,4.7669e-05,0
50.083,4.3473e-05,0
50.083,3.3066e-05,0
50.084,1.9135e-05,0
50.084,6.5461e-06,0
50.085,-4.1962e-06,0
50.086,-1.5274e-05,0
50.086,-3.0045e-05,0
50.087,-4.8844e-05,0
50.087,-6.3951e-05,0
50.088,-6.9993e-05,0
50.088,-6.6804e-05,0
50.089,-5.7237e-05,0
50.089,-4.6159e-05,0
50.09,-3.7095e-05,0
50.09,-2.7695e-05,0
50.091,-1.6953e-05,0
50.091,-5.539e-06,0
50.092,9.5674e-06,0
50.092,2.3835e-05,0
50.093,2.6017e-05,0
50.093,1.4099e-05,0
50.094,1.8463e-06,0
50.094,6.2104e-06,0
50.095,2.6017e-05,0
50.095,4.5151e-05,0
50.096,5.6565e-05,0
50.096,7.0665e-05,0
50.097,9.2653e-05,0
50.097,0.00010726,0
50.098,0.00010692,0
50.099,0.00010054,0
50.099,9.0471e-05,0
50.1,8.1239e-05,0
50.1,7.335e-05,0
50.101,5.9419e-05,0
50.101,3.6759e-05,0
50.102,1.5274e-05,0
50.102,3.8605e-06,0
50.103,3.357e-07,0
50.103,-2.8534e-06,0
50.104,-6.2104e-06,0
50.104,-1.1414e-05,0
50.105,-1.9303e-05,0
50.105,-2.6352e-05,0
50.106,-2.9374e-05,0
50.106,-3.1556e-05,0
50.107,-3.5248e-05,0
50.107,-3.8605e-05,0
50.108,-3.7766e-05,0
50.108,-3.2731e-05,0
50.109,-3.0381e-05,0
50.109,-3.0045e-05,0
50.11,-2.5849e-05,0
50.11,-1.1582e-05,0
50.111,9.5674e-06,0
50.111,2.9038e-05,0
50.112,4.6159e-05,0
50.113,5.9754e-05,0
50.113,7.1336e-05,0
50.114,8.426e-05,0
50.114,9.8527e-05,0
50.115,0.00011028,0
50.115,0.00011498,0
50.116,0.00011212,0
50.116,0.00010188,0
50.117,8.4932e-05,0
50.117,6.0761e-05,0
50.118,3.122e-05,0
50.118,3.357e-07,0
50.119,-2.1653e-05,0
50.119,-2.9877e-05,0
50.12,-3.2731e-05,0
50.12,-3.508e-05,0
50.121,-3.4241e-05,0
50.121,-3.0716e-05,0
50.122,-2.8702e-05,0
50.122,-2.7695e-05,0
50.123,-2.652e-05,0
50.123,-2.4338e-05,0
50.124,-2.266e-05,0
50.124,-2.2828e-05,0
50.125,-2.4338e-05,0
50.126,-1.8967e-05,0
50.126,-4.1962e-06,0
50.127,1.2421e-05,0
50.127,3.122e-05,0
50.128,5.4047e-05,0
50.128,7.4693e-05,0
50.129,8.4596e-05,0
50.129,8.661e-05,0
50.13,8.51e-05,0
50.13,8.4596e-05,0
50.131,8.8121e-05,0
50.131,9.3156e-05,0
50.132,9.2988e-05,0
50.132,8.5435e-05,0
50.133,7.0665e-05,0
50.133,5.153e-05,0
50.134,3.3402e-05,0
50.134,1.796e-05,0
50.135,8.2246e-06,0
50.135,3.5248e-06,0
50.136,3.357e-07,0
50.136,0,0
50.137,4.5319e-06,0
50.137,9.2317e-06,0
50.138,1.1246e-05,0
50.138,1.4603e-05,0
50.139,1.7288e-05,0
50.14,1.7288e-05,0
50.14,1.4267e-05,0
50.141,9.5674e-06,0
50.141,5.539e-06,0
50.142,-1.1749e-06,0
50.142,-1.1917e-05,0
50.143,-2.182e-05,0
50.143,-2.7024e-05,0
50.144,-2.8534e-05,0
50.144,-2.6856e-05,0
50.145,-1.4267e-05,0
50.145,9.9031e-06,0
50.146,3.4241e-05,0
50.146,4.9851e-05,0
50.147,5.8915e-05,0
50.147,6.5629e-05,0
50.148,7.0665e-05,0
50.148,7.0497e-05,0
50.149,6.2608e-05,0
50.149,4.8173e-05,0
50.15,3.0884e-05,0
50.15,1.2421e-05,0
50.151,-7.2175e-06,0
50.151,-2.5177e-05,0
50.152,-4.2466e-05,0
50.153,-5.8412e-05,0
50.153,-7.0329e-05,0
50.154,-7.4357e-05,0
50.154,-6.6636e-05,0
50.155,-4.7166e-05,0
50.155,-2.5345e-05,0
50.156,-9.2317e-06,0
50.156,-8.3925e-07,0
50.157,-1.8463e-06,0
50.157,-2.8534e-06,0
50.158,5.8747e-06,0
50.158,2.4674e-05,0
50.159,4.8005e-05,0
50.159,6.6972e-05,0
50.16,7.7714e-05,0
50.16,8.2582e-05,0
50.161,8.4428e-05,0
50.161,8.3421e-05,0
50.162,8.1071e-05,0
50.162,7.8386e-05,0
50.163,7.3854e-05,0
50.163,6.9322e-05,0
50.164,6.4958e-05,0
50.164,5.7572e-05,0
50.165,4.4144e-05,0
50.165,2.9374e-05,0
50.166,1.4435e-05,0
50.167,-3.357e-06,0
50.167,-1.6953e-05,0
50.168,-2.1653e-05,0
50.168,-2.5345e-05,0
50.169,-3.3066e-05,0
50.169,-4.1123e-05,0
50.17,-4.4312e-05,0
50.17,-4.1123e-05,0
50.171,-3.4241e-05,0
50.171,-2.9038e-05,0
50.172,-2.7024e-05,0
50.172,-2.652e-05,0
50.173,-2.0478e-05,0
50.173,-6.8818e-06,0
50.174,6.3783e-06,0
50.174,1.4939e-05,0
50.175,1.7456e-05,0
50.175,1.0239e-05,0
50.176,-4.8676e-06,0
50.176,-1.561e-05,0
50.177,-1.4267e-05,0
50.177,-2.8534e-06,0
50.178,1.0575e-05,0
50.178,2.5345e-05,0
50.179,4.4144e-05,0
50.179,6.3111e-05,0
50.18,7.4022e-05,0
50.181,7.6036e-05,0
50.181,7.5029e-05,0
50.182,7.2343e-05,0
50.182,6.4286e-05,0
50.183,5.0858e-05,0
50.183,3.6759e-05,0
50.184,2.7359e-05,0
50.184,2.0645e-05,0
50.185,1.2253e-05,0
50.185,2.8534e-06,0
50.186,-6.2104e-06,0
50.186,-1.6953e-05,0
50.187,-2.3499e-05,0
50.187,-1.9135e-05,0
50.188,-5.3712e-06,0
50.188,1.1582e-05,0
50.189,2.6184e-05,0
50.189,3.4073e-05,0
50.19,3.2563e-05,0
50.19,2.4002e-05,0
50.191,1.5946e-05,0
50.191,1.9638e-05,0
50.192,3.4409e-05,0
50.192,5.0019e-05,0
50.193,6.0426e-05,0
50.194,6.3615e-05,0
50.194,5.7572e-05,0
50.195,4.8173e-05,0
50.195,4.3977e-05,0
50.196,4.5487e-05,0
50.196,4.9851e-05,0
50.197,5.7908e-05,0
50.197,6.8986e-05,0
50.198,7.7546e-05,0
50.198,7.8386e-05,0
50.199,7.2007e-05,0
50.199,6.3279e-05,0
50.2,5.5558e-05,0
50.2,4.9012e-05,0
50.201,4.0452e-05,0
50.201,2.8031e-05,0
50.202,1.4603e-05,0
50.202,2.5177e-06,0
50.203,-9.2317e-06,0
50.203,-2.031e-05,0
50.204,-2.8702e-05,0
50.204,-3.122e-05,0
50.205,-2.9709e-05,0
50.205,-2.5681e-05,0
50.206,-1.9974e-05,0
50.206,-1.1917e-05,0
50.207,-1.0071e-06,0
50.208,1.5274e-05,0
50.208,3.4073e-05,0
50.209,4.6662e-05,0
50.209,5.2201e-05,0
50.21,5.4887e-05,0
50.21,5.8915e-05,0
50.211,6.3615e-05,0
50.211,7.2343e-05,0
50.212,8.3421e-05,0
50.212,8.5771e-05,0
50.213,7.5029e-05,0
50.213,5.8915e-05,0
50.214,4.8173e-05,0
50.214,3.978e-05,0
50.215,2.3163e-05,0
50.215,3.357e-07,0
50.216,-1.6617e-05,0
50.216,-2.7024e-05,0
50.217,-3.2731e-05,0
50.217,-3.3906e-05,0
50.218,-3.3234e-05,0
50.218,-3.4409e-05,0
50.219,-3.827e-05,0
50.219,-4.2802e-05,0
50.22,-4.8844e-05,0
50.221,-5.4887e-05,0
50.221,-4.9348e-05,0
50.222,-3.1388e-05,0
50.222,-1.0407e-05,0
50.223,1.1749e-06,0
50.223,2.182e-06,0
50.224,4.6998e-06,0
50.224,7.3854e-06,0
50.225,6.3783e-06,0
50.225,4.6998e-06,0
50.226,8.5603e-06,0
50.226,1.8799e-05,0
50.227,3.3738e-05,0
50.227,4.8844e-05,0
50.228,6.1601e-05,0
50.228,6.9322e-05,0
50.229,7.0832e-05,0
50.229,6.6133e-05,0
50.23,5.5894e-05,0
50.23,4.5319e-05,0
50.231,3.6927e-05,0
50.231,2.8031e-05,0
50.232,1.5778e-05,0
50.232,2.5177e-06,0
50.233,-5.7069e-06,0
50.233,-3.8605e-06,0
50.234,8.3925e-06,0
50.235,2.266e-05,0
50.235,3.4409e-05,0
50.236,4.5319e-05,0
50.236,5.5894e-05,0
50.237,5.8579e-05,0
50.237,4.5319e-05,0
50.238,2.1317e-05,0
50.238,5.0355e-07,0
50.239,-1.2924e-05,0
50.239,-2.652e-05,0
50.24,-4.2634e-05,0
50.24,-5.1194e-05,0
50.241,-4.3809e-05,0
50.241,-2.2828e-05,0
50.242,1.1749e-06,0
50.242,2.2156e-05,0
50.243,3.6759e-05,0
50.243,4.7837e-05,0
50.244,6.0929e-05,0
50.244,7.1336e-05,0
50.245,7.0497e-05,0
50.245,5.7069e-05,0
50.246,3.978e-05,0
50.246,2.6184e-05,0
50.247,1.8463e-05,0
50.248,6.8818e-06,0
50.248,-1.0575e-05,0
50.249,-2.3163e-05,0
50.249,-2.4338e-05,0
50.25,-2.1988e-05,0
50.25,-2.4002e-05,0
50.251,-2.9709e-05,0
50.251,-4.0452e-05,0
50.252,-5.4047e-05,0
50.252,-6.3279e-05,0
50.253,-6.4622e-05,0
50.253,-5.4719e-05,0
50.254,-3.6423e-05,0
50.254,-1.8296e-05,0
50.255,-6.0426e-06,0
50.255,1.3428e-06,0
50.256,1.0575e-05,0
50.256,2.1317e-05,0
50.257,3.2059e-05,0
50.257,4.0787e-05,0
50.258,4.5823e-05,0
50.258,5.2033e-05,0
50.259,5.9251e-05,0
50.259,6.4958e-05,0
50.26,6.6972e-05,0
50.261,6.6636e-05,0
50.261,6.63e-05,0
50.262,6.7308e-05,0
50.262,6.7979e-05,0
50.263,6.6636e-05,0
50.263,6.2272e-05,0
50.264,5.5558e-05,0
50.264,4.9851e-05,0
50.265,4.4648e-05,0
50.265,3.6759e-05,0
50.266,2.8702e-05,0
50.266,2.4674e-05,0
50.267,2.417e-05,0
50.267,2.4842e-05,0
50.268,2.7024e-05,0
50.268,2.8031e-05,0
50.269,2.652e-05,0
50.269,2.5345e-05,0
50.27,2.887e-05,0
50.27,3.743e-05,0
50.271,4.7837e-05,0
50.271,5.7908e-05,0
50.272,6.3783e-05,0
50.272,6.1601e-05,0
50.273,5.1194e-05,0
50.273,3.6088e-05,0
50.274,2.7695e-05,0
50.275,3.0381e-05,0
50.275,3.743e-05,0
50.276,4.2466e-05,0
50.276,3.9277e-05,0
50.277,2.5345e-05,0
50.277,7.8889e-06,0
50.278,-4.6998e-06,0
50.278,-1.0575e-05,0
50.279,-7.2175e-06,0
50.279,3.8605e-06,0
50.28,1.2589e-05,0
50.28,1.1917e-05,0
50.281,4.1962e-06,0
50.281,-2.8534e-06,0
50.282,-3.8605e-06,0
50.282,-2.182e-06,0
50.283,5.0355e-07,0
50.283,7.2175e-06,0
50.284,1.1414e-05,0
50.284,5.8747e-06,0
50.285,-8.3925e-07,0
50.285,4.5319e-06,0
50.286,1.9638e-05,0
50.286,3.4073e-05,0
50.287,4.7333e-05,0
50.288,6.4118e-05,0
50.288,8.0064e-05,0
50.289,8.7785e-05,0
50.289,8.8457e-05,0
50.29,8.6946e-05,0
50.29,8.275e-05,0
50.291,6.865e-05,0
50.291,4.2802e-05,0
50.292,1.1749e-05,0
50.292,-1.6953e-05,0
50.293,-3.743e-05,0
50.293,-4.9851e-05,0
50.294,-5.9586e-05,0
50.294,-6.6972e-05,0
50.295,-6.7308e-05,0
50.295,-5.6733e-05,0
50.296,-4.1123e-05,0
50.296,-3.1052e-05,0
50.297,-2.6856e-05,0
50.297,-2.2156e-05,0
50.298,-1.7288e-05,0
50.298,-1.3931e-05,0
50.299,-1.561e-05,0
50.299,-1.9638e-05,0
50.3,-1.5778e-05,0
50.3,-6.0426e-06,0
50.301,1.5106e-06,0
50.302,5.2033e-06,0
50.302,1.1749e-05,0
50.303,2.0645e-05,0
50.303,3.2898e-05,0
50.304,4.5823e-05,0
50.304,5.4719e-05,0
50.305,6.1601e-05,0
50.305,6.5797e-05,0
50.306,6.865e-05,0
50.306,7.1e-05,0
50.307,7.4861e-05,0
50.307,7.8386e-05,0
50.308,7.3014e-05,0
50.308,5.388e-05,0
50.309,2.5681e-05,0
50.309,-1.6785e-07,0
50.31,-1.4939e-05,0
50.31,-1.8967e-05,0
50.311,-1.4603e-05,0
50.311,-8.7282e-06,0
50.312,-1.8463e-06,0
50.312,9.0639e-06,0
50.313,2.4002e-05,0
50.313,4.4144e-05,0
50.314,6.0594e-05,0
50.315,6.3615e-05,0
50.315,5.623e-05,0
50.316,4.7501e-05,0
50.316,3.978e-05,0
50.317,2.3667e-05,0
50.317,4.8676e-06,0
50.318,-2.0142e-06,0
50.318,2.5177e-06,0
50.319,8.896e-06,0
50.319,1.4771e-05,0
50.32,2.7695e-05,0
50.32,4.8005e-05,0
50.321,6.8315e-05,0
50.321,8.191e-05,0
50.322,8.7114e-05,0
50.322,8.51e-05,0
50.323,8.3085e-05,0
50.323,8.5771e-05,0
50.324,8.661e-05,0
50.324,7.2343e-05,0
50.325,4.6326e-05,0
50.325,1.8296e-05,0
50.326,-3.1891e-06,0
50.326,-1.4939e-05,0
50.327,-1.8463e-05,0
50.327,-2.4842e-05,0
50.328,-3.4241e-05,0
50.329,-4.2969e-05,0
50.329,-5.1362e-05,0
50.33,-5.7572e-05,0
50.33,-5.4551e-05,0
50.331,-3.9612e-05,0
50.331,-2.2995e-05,0
50.332,-1.2421e-05,0
50.332,-3.6927e-06,0
50.333,1.1582e-05,0
50.333,2.7695e-05,0
50.334,3.4073e-05,0
50.334,3.122e-05,0
50.335,3.0381e-05,0
50.335,3.7095e-05,0
50.336,4.4816e-05,0
50.336,4.7501e-05,0
50.337,4.5487e-05,0
50.337,3.8102e-05,0
50.338,2.652e-05,0
50.338,1.1078e-05,0
50.339,-1.091e-05,0
50.339,-3.508e-05,0
50.34,-4.918e-05,0
50.34,-4.6494e-05,0
50.341,-3.4745e-05,0
50.342,-2.3667e-05,0
50.342,-1.9471e-05,0
50.343,-1.8296e-05,0
50.343,-1.3596e-05,0
50.344,-4.0284e-06,0
50.344,6.5461e-06,0
50.345,1.2757e-05,0
50.345,1.8296e-05,0
50.346,2.8031e-05,0
50.346,4.2802e-05,0
50.347,5.2873e-05,0
50.347,5.3544e-05,0
50.348,4.683e-05,0
50.348,3.9445e-05,0
50.349,3.2059e-05,0
50.349,2.5681e-05,0
50.35,1.796e-05,0
50.35,9.5674e-06,0
50.351,3.8605e-06,0
50.351,8.3925e-07,0
50.352,3.357e-07,0
50.352,1.6785e-07,0
50.353,2.8534e-06,0
50.353,1.6449e-05,0
50.354,3.3906e-05,0
50.354,4.2802e-05,0
50.355,4.213e-05,0
50.356,3.9948e-05,0
50.356,4.062e-05,0
50.357,4.2802e-05,0
50.357,4.2802e-05,0
50.358,3.9445e-05,0
50.358,3.3906e-05,0
50.359,2.9374e-05,0
50.359,2.4674e-05,0
50.36,1.9974e-05,0
50.36,1.7121e-05,0
50.361,1.4603e-05,0
50.361,9.5674e-06,0
50.362,2.5177e-06,0
50.362,-4.0284e-06,0
50.363,-9.5674e-06,0
50.363,-1.3596e-05,0
50.364,-1.6785e-05,0
50.364,-1.7288e-05,0
50.365,-1.6449e-05,0
50.365,-1.561e-05,0
50.366,-1.1749e-05,0
50.366,-2.182e-06,0
50.367,1.2421e-05,0
50.367,3.1052e-05,0
50.368,5.2201e-05,0
50.368,7.2175e-05,0
50.369,8.8457e-05,0
50.37,9.9199e-05,0
50.37,0.00010558,0
50.371,0.00010961,0
50.371,0.00010826,0
50.372,9.8527e-05,0
50.372,8.7114e-05,0
50.373,7.8721e-05,0
50.373,6.9154e-05,0
50.374,5.2537e-05,0
50.374,3.4577e-05,0
50.375,2.1317e-05,0
50.375,1.0575e-05,0
50.376,3.8605e-06,0
50.376,0,0
50.377,-2.5177e-06,0
50.377,-3.8605e-06,0
50.378,-3.8605e-06,0
50.378,-3.6927e-06,0
50.379,-3.8605e-06,0
50.379,-8.3925e-07,0
50.38,5.2033e-06,0
50.38,1.0575e-05,0
50.381,1.3931e-05,0
50.381,1.2924e-05,0
50.382,4.8676e-06,0
50.383,-6.2104e-06,0
50.383,-1.326e-05,0
50.384,-1.2589e-05,0
50.384,-4.5319e-06,0
50.385,9.5674e-06,0
50.385,2.266e-05,0
50.386,3.0381e-05,0
50.386,3.2898e-05,0
50.387,3.1388e-05,0
50.387,2.5345e-05,0
50.388,1.796e-05,0
50.388,1.2253e-05,0
50.389,9.2317e-06,0
50.389,6.5461e-06,0
50.39,2.8534e-06,0
50.39,-2.5177e-06,0
50.391,-9.5674e-06,0
50.391,-2.1149e-05,0
50.392,-3.7934e-05,0
50.392,-5.2201e-05,0
50.393,-5.388e-05,0
50.393,-3.8102e-05,0
50.394,-1.0575e-05,0
50.394,1.5442e-05,0
50.395,3.1891e-05,0
50.395,4.3977e-05,0
50.396,5.2873e-05,0
50.397,5.2537e-05,0
50.397,4.7501e-05,0
50.398,5.3544e-05,0
50.398,7.1672e-05,0
50.399,9.0806e-05,0
50.399,0.00010726,0
50.4,0.00012119,0
50.4,0.00012505,0
50.401,0.00011263,0
50.401,8.5603e-05,0
50.402,5.1026e-05,0
50.402,2.0813e-05,0
50.403,1.6785e-07,0
50.403,-9.5674e-06,0
50.404,-1.2253e-05,0
50.404,-1.2924e-05,0
50.405,-1.8296e-05,0
50.405,-3.5752e-05,0
50.406,-6.2943e-05,0
50.406,-8.9128e-05,0
50.407,-0.00010004,0
50.407,-8.9464e-05,0
50.408,-6.7979e-05,0
50.408,-4.5487e-05,0
50.409,-2.1317e-05,0
50.41,2.5177e-06,0
50.41,1.9638e-05,0
50.411,2.5345e-05,0
50.411,2.3163e-05,0
50.412,2.1653e-05,0
50.412,2.6688e-05,0
50.413,3.7766e-05,0
50.413,4.6159e-05,0
50.414,4.8508e-05,0
50.414,4.5487e-05,0
50.415,4.0116e-05,0
50.415,2.8702e-05,0
50.416,1.326e-05,0
50.416,2.5177e-06,0
50.417,1.5106e-06,0
50.417,1.0239e-05,0
50.418,2.0645e-05,0
50.418,2.5681e-05,0
50.419,2.4506e-05,0
50.419,1.6953e-05,0
50.42,7.8889e-06,0
50.42,4.1962e-06,0
50.421,6.8818e-06,0
50.421,1.5946e-05,0
50.422,2.5177e-05,0
50.422,2.7024e-05,0
50.423,2.3163e-05,0
50.424,1.9638e-05,0
50.424,2.2156e-05,0
50.425,2.6688e-05,0
50.425,3.0716e-05,0
50.426,3.3402e-05,0
50.426,3.6423e-05,0
50.427,3.4409e-05,0
50.427,2.7024e-05,0
50.428,1.9974e-05,0
50.428,1.6617e-05,0
50.429,1.9974e-05,0
50.429,2.5513e-05,0
50.43,2.4674e-05,0
50.43,2.0645e-05,0
50.431,1.5946e-05,0
50.431,1.2924e-05,0
50.432,1.5274e-05,0
50.432,1.796e-05,0
50.433,2.1149e-05,0
50.433,2.417e-05,0
50.434,2.3667e-05,0
50.434,2.0981e-05,0
50.435,1.8631e-05,0
50.435,1.7792e-05,0
50.436,1.7456e-05,0
50.437,1.7288e-05,0
50.437,2.0478e-05,0
50.438,2.8031e-05,0
50.438,3.592e-05,0
50.439,4.3473e-05,0
50.439,5.069e-05,0
50.44,5.4887e-05,0
50.44,5.623e-05,0
50.441,5.4215e-05,0
50.441,4.9851e-05,0
50.442,4.4144e-05,0
50.442,3.7934e-05,0
50.443,3.2059e-05,0
50.443,2.9374e-05,0
50.444,2.7359e-05,0
50.444,2.1317e-05,0
50.445,1.5106e-05,0
50.445,1.091e-05,0
50.446,7.5532e-06,0
50.446,6.8818e-06,0
50.447,8.7282e-06,0
50.447,1.2253e-05,0
50.448,1.5778e-05,0
50.448,2.0813e-05,0
50.449,3.2059e-05,0
50.45,4.5823e-05,0
50.45,5.0858e-05,0
50.451,4.2466e-05,0
50.451,3.2059e-05,0
50.452,2.887e-05,0
50.452,3.1052e-05,0
50.453,3.2563e-05,0
50.453,3.0716e-05,0
50.454,2.5681e-05,0
50.454,1.9974e-05,0
50.455,1.6617e-05,0
50.455,1.1582e-05,0
50.456,4.8676e-06,0
50.456,1.6785e-06,0
50.457,5.2033e-06,0
50.457,1.5274e-05,0
50.458,2.7695e-05,0
50.458,3.743e-05,0
50.459,4.0955e-05,0
50.459,3.8773e-05,0
50.46,3.4073e-05,0
50.46,2.9038e-05,0
50.461,2.5849e-05,0
50.461,2.5345e-05,0
50.462,2.4338e-05,0
50.462,2.5345e-05,0
50.463,2.4674e-05,0
50.464,1.5274e-05,0
50.464,0,0
50.465,-1.0407e-05,0
50.465,-1.326e-05,0
50.466,-1.2253e-05,0
50.466,-9.5674e-06,0
50.467,-4.5319e-06,0
50.467,-2.182e-06,0
50.468,-4.6998e-06,0
50.468,-7.5532e-06,0
50.469,-1.2421e-05,0
50.469,-2.3667e-05,0
50.47,-3.6423e-05,0
50.47,-4.3977e-05,0
50.471,-4.0452e-05,0
50.471,-2.7359e-05,0
50.472,-1.4939e-05,0
50.472,-1.3596e-05,0
50.473,-2.1317e-05,0
50.473,-2.9709e-05,0
50.474,-3.1052e-05,0
50.474,-2.501e-05,0
50.475,-1.5778e-05,0
50.475,-4.8676e-06,0
50.476,7.8889e-06,0
50.477,1.9974e-05,0
50.477,2.9038e-05,0
50.478,3.1052e-05,0
50.478,2.9206e-05,0
50.479,2.8199e-05,0
50.479,3.0045e-05,0
50.48,3.4409e-05,0
50.48,3.9445e-05,0
50.481,4.1794e-05,0
50.481,4.0452e-05,0
50.482,3.9445e-05,0
50.482,4.2634e-05,0
50.483,5.0858e-05,0
50.483,5.9922e-05,0
50.484,6.4958e-05,0
50.484,6.9322e-05,0
50.485,7.2679e-05,0
50.485,7.3014e-05,0
50.486,6.9322e-05,0
50.486,6.1601e-05,0
50.487,5.3376e-05,0
50.487,4.7166e-05,0
50.488,4.1123e-05,0
50.488,3.2731e-05,0
50.489,2.5849e-05,0
50.489,2.182e-05,0
50.49,1.8631e-05,0
50.491,1.4267e-05,0
50.491,9.7353e-06,0
50.492,7.8889e-06,0
50.492,9.5674e-06,0
50.493,1.0575e-05,0
50.493,1.3764e-05,0
50.494,2.0981e-05,0
50.494,2.7024e-05,0
50.495,2.9038e-05,0
50.495,2.9374e-05,0
50.496,3.0381e-05,0
50.496,3.3234e-05,0
50.497,3.9445e-05,0
50.497,4.6159e-05,0
50.498,4.9851e-05,0
50.498,4.918e-05,0
50.499,4.7669e-05,0
50.499,4.683e-05,0
50.5,4.3809e-05,0
50.5,3.5248e-05,0
50.501,2.6017e-05,0
50.501,2.2492e-05,0
50.502,1.7288e-05,0
50.502,4.1962e-06,0
50.503,-1.0575e-05,0
50.504,-2.0813e-05,0
50.504,-3.0549e-05,0
50.505,-3.7095e-05,0
50.505,-3.8773e-05,0
50.506,-3.8773e-05,0
50.506,-3.5752e-05,0
50.507,-2.8534e-05,0
50.507,-1.9638e-05,0
50.508,-1.1078e-05,0
50.508,-3.5248e-06,0
50.509,5.2033e-06,0
50.509,1.5946e-05,0
50.51,2.1988e-05,0
50.51,2.0142e-05,0
50.511,1.4435e-05,0
50.511,8.896e-06,0
50.512,4.1962e-06,0
50.512,8.3925e-07,0
50.513,-1.6785e-07,0
50.513,3.357e-07,0
50.514,1.1749e-06,0
50.514,2.5177e-06,0
50.515,1.8463e-06,0
50.515,1.0071e-06,0
50.516,4.8676e-06,0
50.516,9.5674e-06,0
50.517,1.4267e-05,0
50.518,1.8631e-05,0
50.518,2.2324e-05,0
50.519,2.7359e-05,0
50.519,3.3402e-05,0
50.52,3.592e-05,0
50.52,3.2395e-05,0
50.521,2.6856e-05,0
50.521,2.4338e-05,0
50.522,2.5345e-05,0
50.522,2.8031e-05,0
50.523,3.3738e-05,0
50.523,4.1962e-05,0
50.524,5.0858e-05,0
50.524,5.8076e-05,0
50.525,5.9586e-05,0
50.525,5.8244e-05,0
50.526,5.623e-05,0
50.526,5.2201e-05,0
50.527,4.5151e-05,0
50.527,3.7095e-05,0
50.528,2.9877e-05,0
50.528,2.3667e-05,0
50.529,2.031e-05,0
50.529,2.2828e-05,0
50.53,3.1052e-05,0
50.531,4.2802e-05,0
50.531,5.2705e-05,0
50.532,6.0929e-05,0
50.532,7.2847e-05,0
50.533,9.0135e-05,0
50.533,0.0001138,0
50.534,0.00014267,0
50.534,0.00016432,0
50.535,0.00016533,0
50.535,0.0001514,0
50.536,0.00013445,0
50.536,0.00011464,0
50.537,8.9799e-05,0
50.537,6.2272e-05,0
50.538,3.357e-05,0
50.538,7.2175e-06,0
50.539,-2.1317e-05,0
50.539,-5.6062e-05,0
50.54,-8.9128e-05,0
50.54,-0.0001138,0
50.541,-0.00013663,0
50.541,-0.00015879,0
50.542,-0.0001697,0
50.542,-0.00016063,0
50.543,-0.00013545,0
50.543,-0.00010675,0
50.544,-8.7785e-05,0
50.545,-8.0735e-05,0
50.545,-8.3421e-05,0
50.546,-8.8792e-05,0
50.546,-8.7953e-05,0
50.547,-7.1336e-05,0
50.547,-3.7766e-05,0
50.548,-1.8463e-06,0
50.548,2.182e-05,0
50.549,3.2059e-05,0
50.549,3.3234e-05,0
50.55,2.7192e-05,0
50.55,1.8128e-05,0
50.551,1.2924e-05,0
50.551,1.4603e-05,0
50.552,2.2995e-05,0
50.552,3.0716e-05,0
50.553,3.1724e-05,0
50.553,3.0549e-05,0
50.554,2.7359e-05,0
50.554,2.3667e-05,0
50.555,2.9374e-05,0
50.555,4.4816e-05,0
50.556,6.0594e-05,0
50.556,7.2679e-05,0
50.557,8.04e-05,0
50.557,8.1575e-05,0
50.558,7.4693e-05,0
50.559,6.5126e-05,0
50.559,5.8915e-05,0
50.56,5.539e-05,0
50.56,4.7837e-05,0
50.561,3.9109e-05,0
50.561,3.3402e-05,0
50.562,2.8367e-05,0
50.562,2.6688e-05,0
50.563,3.6423e-05,0
50.563,5.5726e-05,0
50.564,7.3014e-05,0
50.564,8.6442e-05,0
50.565,9.2149e-05,0
50.565,8.5267e-05,0
50.566,6.9657e-05,0
50.566,5.2201e-05,0
50.567,3.7766e-05,0
50.567,3.0716e-05,0
50.568,3.1388e-05,0
50.568,2.7695e-05,0
50.569,1.5946e-05,0
50.569,1.1749e-06,0
50.57,-6.8818e-06,0
50.57,-6.8818e-06,0
50.571,-5.539e-06,0
50.572,-9.9031e-06,0
50.572,-1.3596e-05,0
50.573,-8.0568e-06,0
50.573,3.8605e-06,0
50.574,1.2757e-05,0
50.574,1.2589e-05,0
50.575,9.2317e-06,0
50.575,1.3764e-05,0
50.576,2.6688e-05,0
50.576,3.8102e-05,0
50.577,4.1794e-05,0
50.577,3.978e-05,0
50.578,3.2898e-05,0
50.578,2.5345e-05,0
50.579,2.2828e-05,0
50.579,2.1317e-05,0
50.58,1.7456e-05,0
50.58,1.0575e-05,0
50.581,8.2246e-06,0
50.581,1.3092e-05,0
50.582,1.3931e-05,0
50.582,-8.3925e-07,0
50.583,-2.182e-05,0
50.583,-3.592e-05,0
50.584,-3.9612e-05,0
50.584,-3.0045e-05,0
50.585,-8.3925e-06,0
50.586,1.4603e-05,0
50.586,2.5345e-05,0
50.587,2.501e-05,0
50.587,2.5681e-05,0
50.588,3.5416e-05,0
50.588,5.3208e-05,0
50.589,7.0161e-05,0
50.589,7.8721e-05,0
50.59,7.7043e-05,0
50.59,6.4286e-05,0
50.591,4.6326e-05,0
50.591,3.0381e-05,0
50.592,1.561e-05,0
50.592,-8.3925e-07,0
50.593,-1.5946e-05,0
50.593,-2.2995e-05,0
50.594,-2.1317e-05,0
50.594,-1.9638e-05,0
50.595,-1.9806e-05,0
50.595,-1.4771e-05,0
50.596,-1.8463e-06,0
50.596,1.4267e-05,0
50.597,3.0716e-05,0
50.597,4.5487e-05,0
50.598,5.3544e-05,0
50.599,5.4887e-05,0
50.599,5.6901e-05,0
50.6,6.4958e-05,0
50.6,7.0665e-05,0
50.601,6.7643e-05,0
50.601,5.5894e-05,0
50.602,3.9109e-05,0
50.602,2.501e-05,0
50.603,1.7288e-05,0
50.603,1.2421e-05,0
50.604,4.5319e-06,0
50.604,-6.8818e-06,0
50.605,-1.4267e-05,0
50.605,-1.5946e-05,0
50.606,-1.9471e-05,0
50.606,-3.0045e-05,0
50.607,-4.5151e-05,0
