2.0821,1.5106e-06,0
2.0826,1.6953e-05,0
2.0832,3.8437e-05,0
2.0837,5.9586e-05,0
2.0842,7.5029e-05,0
2.0847,8.7617e-05,0
2.0852,0.0001044,0
2.0857,0.00013478,0
2.0863,0.00017171,0
2.0868,0.00019152,0
2.0873,0.00017557,0
2.0878,0.0001321,0
2.0883,8.1407e-05,0
2.0889,3.827e-05,0
2.0894,1.1582e-05,0
2.0899,-1.3428e-06,0
2.0904,-1.0071e-05,0
2.0909,-1.8967e-05,0
2.0915,-3.2395e-05,0
2.092,-4.7669e-05,0
2.0925,-4.8844e-05,0
2.093,-3.1556e-05,0
2.0935,-7.5532e-06,0
2.0941,9.9031e-06,0
2.0946,1.2421e-05,0
2.0951,-2.8534e-06,0
2.0956,-2.6184e-05,0
2.0961,-4.5823e-05,0
2.0967,-5.7069e-05,0
2.0972,-5.9419e-05,0
2.0977,-5.774e-05,0
2.0982,-5.623e-05,0
2.0987,-5.1194e-05,0
2.0993,-3.6255e-05,0
2.0998,-1.0742e-05,0
2.1003,1.2253e-05,0
2.1008,2.417e-05,0
2.1013,3.1052e-05,0
2.1018,4.0116e-05,0
2.1024,4.8508e-05,0
2.1029,4.8844e-05,0
2.1034,4.7333e-05,0
2.1039,4.9851e-05,0
2.1044,4.7501e-05,0
2.105,3.1388e-05,0
2.1055,5.2033e-06,0
2.106,-2.1653e-05,0
2.1065,-3.9948e-05,0
2.107,-5.153e-05,0
2.1076,-5.9251e-05,0
2.1081,-5.8076e-05,0
2.1086,-4.6159e-05,0
2.1091,-2.9038e-05,0
2.1096,-1.3764e-05,0
2.1102,-1.3428e-06,0
2.1107,1.1582e-05,0
2.1112,2.9374e-05,0
2.1117,4.8844e-05,0
2.1122,6.6636e-05,0
2.1128,7.9728e-05,0
2.1133,8.51e-05,0
2.1138,8.1743e-05,0
2.1143,7.5029e-05,0
2.1148,7.2175e-05,0
2.1153,6.9322e-05,0
2.1159,6.6133e-05,0
2.1164,6.3783e-05,0
2.1169,5.8747e-05,0
2.1174,4.9851e-05,0
2.1179,3.8941e-05,0
2.1185,2.8367e-05,0
2.119,2.266e-05,0
2.1195,1.9638e-05,0
2.12,1.5274e-05,0
2.1205,9.9031e-06,0
2.1211,5.8747e-06,0
2.1216,1.0071e-05,0
2.1221,2.2995e-05,0
2.1226,3.2395e-05,0
2.1231,3.4409e-05,0
2.1237,3.4745e-05,0
2.1242,3.6088e-05,0
2.1247,3.4745e-05,0
2.1252,2.9709e-05,0
2.1257,2.1317e-05,0
2.1263,1.1749e-05,0
2.1268,1.8463e-06,0
2.1273,3.5248e-06,0
2.1278,1.5778e-05,0
2.1283,2.887e-05,0
2.1288,3.0716e-05,0
2.1294,1.8631e-05,0
2.1299,6.3783e-06,0
2.1304,3.8605e-06,0
2.1309,1.0575e-05,0
2.1314,2.3331e-05,0
2.132,4.0116e-05,0
2.1325,5.6901e-05,0
2.133,6.0929e-05,0
2.1335,4.5319e-05,0
2.134,1.9806e-05,0
2.1346,1.8463e-06,0
2.1351,-2.8534e-06,0
2.1356,-1.5106e-06,0
2.1361,-3.0213e-06,0
2.1366,-1.0239e-05,0
2.1372,-1.4267e-05,0
2.1377,-1.3764e-05,0
2.1382,-1.6281e-05,0
2.1387,-2.4002e-05,0
2.1392,-2.4338e-05,0
2.1397,-8.5603e-06,0
2.1403,1.5946e-05,0
2.1408,3.4073e-05,0
2.1413,3.5248e-05,0
2.1418,3.2731e-05,0
2.1423,4.3473e-05,0
2.1429,5.8915e-05,0
2.1434,5.9419e-05,0
2.1439,4.6159e-05,0
2.1444,3.122e-05,0
2.1449,1.9303e-05,0
2.1455,5.8747e-06,0
2.146,-8.3925e-06,0
2.1465,-1.4267e-05,0
2.147,-5.2033e-06,0
2.1475,1.1917e-05,0
2.1481,2.5345e-05,0
2.1486,3.0213e-05,0
2.1491,2.6688e-05,0
2.1496,1.7121e-05,0
2.1501,1.1246e-05,0
2.1507,7.2175e-06,0
2.1512,-5.8747e-06,0
2.1517,-2.7359e-05,0
2.1522,-4.3473e-05,0
2.1527,-4.7837e-05,0
2.1532,-4.3977e-05,0
2.1538,-4.1962e-05,0
2.1543,-4.2802e-05,0
2.1548,-4.4816e-05,0
2.1553,-4.4648e-05,0
2.1558,-3.8437e-05,0
2.1564,-2.7359e-05,0
2.1569,-1.5106e-05,0
2.1574,-6.5461e-06,0
2.1579,-3.0213e-06,0
2.1584,1.8463e-06,0
2.159,1.2589e-05,0
2.1595,2.4506e-05,0
2.16,3.0213e-05,0
2.1605,3.0716e-05,0
2.161,3.1388e-05,0
2.1616,3.2059e-05,0
2.1621,3.4073e-05,0
2.1626,4.0787e-05,0
2.1631,5.1026e-05,0
2.1636,6.009e-05,0
2.1642,6.2776e-05,0
2.1647,5.8915e-05,0
2.1652,5.8579e-05,0
2.1657,6.6972e-05,0
2.1662,7.9057e-05,0
2.1667,8.7785e-05,0
2.1673,9.3156e-05,0
2.1678,9.6513e-05,0
2.1683,9.8863e-05,0
2.1688,9.4835e-05,0
2.1693,8.1743e-05,0
2.1699,6.4958e-05,0
2.1704,4.7837e-05,0
2.1709,3.1052e-05,0
2.1714,1.4939e-05,0
2.1719,4.5319e-06,0
2.1725,-3.357e-07,0
2.173,-2.3499e-06,0
2.1735,-4.5319e-06,0
2.174,-4.5319e-06,0
2.1745,-1.6785e-06,0
2.1751,1.1749e-06,0
2.1756,3.8605e-06,0
2.1761,7.5532e-06,0
2.1766,9.2317e-06,0
2.1771,8.2246e-06,0
2.1777,8.3925e-06,0
2.1782,1.1582e-05,0
2.1787,1.561e-05,0
2.1792,1.8128e-05,0
2.1797,1.9974e-05,0
2.1803,2.2324e-05,0
2.1808,2.6017e-05,0
2.1813,2.9374e-05,0
2.1818,3.0716e-05,0
2.1823,2.7863e-05,0
2.1828,2.3331e-05,0
2.1834,1.8296e-05,0
2.1839,1.2924e-05,0
2.1844,7.8889e-06,0
2.1849,1.3428e-06,0
2.1854,-1.8463e-06,0
2.186,-1.6785e-07,0
2.1865,2.8534e-06,0
2.187,7.3854e-06,0
2.1875,1.0407e-05,0
2.188,1.2589e-05,0
2.1886,1.7624e-05,0
2.1891,2.1653e-05,0
2.1896,1.8967e-05,0
2.1901,1.5106e-05,0
2.1906,1.7288e-05,0
2.1912,2.0645e-05,0
2.1917,2.031e-05,0
2.1922,1.8631e-05,0
2.1927,2.0645e-05,0
2.1932,2.3331e-05,0
2.1938,2.3835e-05,0
2.1943,2.501e-05,0
2.1948,2.9877e-05,0
2.1953,3.4073e-05,0
2.1958,3.7095e-05,0
2.1963,3.9109e-05,0
2.1969,4.1794e-05,0
2.1974,4.213e-05,0
2.1979,3.7766e-05,0
2.1984,3.3066e-05,0
2.1989,3.3066e-05,0
2.1995,3.4745e-05,0
2.2,2.6688e-05,0
2.2005,4.6998e-06,0
2.201,-2.1653e-05,0
2.2015,-3.6423e-05,0
2.2021,-4.0452e-05,0
2.2026,-4.5655e-05,0
2.2031,-5.2537e-05,0
2.2036,-5.304e-05,0
2.2041,-3.9109e-05,0
2.2047,-8.2246e-06,0
2.2052,3.1891e-05,0
2.2057,7.2343e-05,0
2.2062,0.00011028,0
2.2067,0.000142,0
2.2073,0.000165,0
2.2078,0.00017205,0
2.2083,0.0001608,0
2.2088,0.00013814,0
2.2093,0.00011011,0
2.2098,8.4092e-05,0
2.2104,6.6972e-05,0
2.2109,5.6901e-05,0
2.2114,4.5151e-05,0
2.2119,2.7192e-05,0
2.2124,1.091e-05,0
2.213,3.6927e-06,0
2.2135,-1.6785e-07,0
2.214,-7.3854e-06,0
2.2145,-1.4267e-05,0
2.215,-1.6617e-05,0
2.2156,-1.9135e-05,0
2.2161,-2.9206e-05,0
2.2166,-4.3137e-05,0
2.2171,-5.5894e-05,0
2.2176,-6.2943e-05,0
2.2182,-6.63e-05,0
2.2187,-7.1504e-05,0
2.2192,-7.4357e-05,0
2.2197,-6.9993e-05,0
2.2202,-6.0761e-05,0
2.2207,-4.9516e-05,0
2.2213,-3.592e-05,0
2.2218,-2.1653e-05,0
2.2223,-1.2757e-05,0
2.2228,-1.1582e-05,0
2.2233,-1.0575e-05,0
2.2239,-5.2033e-06,0
2.2244,3.1891e-06,0
2.2249,1.0407e-05,0
2.2254,1.6617e-05,0
2.2259,2.0645e-05,0
2.2265,2.2324e-05,0
2.227,2.7359e-05,0
2.2275,3.743e-05,0
2.228,4.2466e-05,0
2.2285,4.0787e-05,0
2.2291,4.0787e-05,0
2.2296,4.2802e-05,0
2.2301,4.4816e-05,0
2.2306,4.1962e-05,0
2.2311,3.4241e-05,0
2.2317,2.4506e-05,0
2.2322,1.5778e-05,0
2.2327,1.1414e-05,0
2.2332,9.3996e-06,0
2.2337,4.5319e-06,0
2.2342,-4.1962e-06,0
2.2348,-1.2924e-05,0
2.2353,-1.8967e-05,0
2.2358,-2.031e-05,0
2.2363,-1.9638e-05,0
2.2368,-1.9135e-05,0
2.2374,-1.6953e-05,0
2.2379,-1.6281e-05,0
2.2384,-1.561e-05,0
2.2389,-1.4267e-05,0
2.2394,-1.3092e-05,0
2.24,-8.896e-06,0
2.2405,-1.6785e-06,0
2.241,-1.8463e-06,0
2.2415,-9.3996e-06,0
2.242,-1.6953e-05,0
2.2426,-1.9974e-05,0
2.2431,-1.8631e-05,0
2.2436,-1.3428e-05,0
2.2441,-2.3499e-06,0
2.2446,1.6953e-05,0
2.2452,4.5823e-05,0
2.2457,7.6875e-05,0
2.2462,9.9199e-05,0
2.2467,0.00010927,0
2.2472,0.00011061,0
2.2477,0.00010625,0
2.2483,9.8527e-05,0
2.2488,9.3156e-05,0
2.2493,9.1646e-05,0
2.2498,8.3421e-05,0
2.2503,6.4286e-05,0
2.2509,4.4144e-05,0
2.2514,3.508e-05,0
2.2519,3.6759e-05,0
2.2524,4.1459e-05,0
2.2529,4.5991e-05,0
2.2535,5.0187e-05,0
2.254,4.4816e-05,0
2.2545,2.7695e-05,0
2.255,1.0575e-05,0
2.2555,1.5106e-06,0
2.2561,-5.0355e-07,0
2.2566,0,0
2.2571,-1.6785e-07,0
2.2576,-2.3499e-06,0
2.2581,-3.8605e-06,0
2.2587,-5.0355e-06,0
2.2592,-4.6998e-06,0
2.2597,3.5248e-06,0
2.2602,2.0981e-05,0
2.2607,3.6088e-05,0
2.2612,4.3809e-05,0
2.2618,5.2201e-05,0
2.2623,6.4958e-05,0
2.2628,7.8386e-05,0
2.2633,8.8792e-05,0
2.2638,9.7353e-05,0
2.2644,0.00010507,0
2.2649,0.00010977,0
2.2654,0.00010591,0
2.2659,9.5171e-05,0
2.2664,8.7617e-05,0
2.267,8.4092e-05,0
2.2675,7.4022e-05,0
2.268,5.5222e-05,0
2.2685,3.3066e-05,0
2.269,7.0497e-06,0
2.2696,-1.796e-05,0
2.2701,-3.5752e-05,0
2.2706,-4.5151e-05,0
2.2711,-4.4648e-05,0
2.2716,-3.2059e-05,0
2.2722,-1.4435e-05,0
2.2727,-8.3925e-07,0
2.2732,1.1078e-05,0
2.2737,2.501e-05,0
2.2742,3.4409e-05,0
2.2748,3.3402e-05,0
2.2753,2.0981e-05,0
2.2758,-1.5106e-06,0
2.2763,-2.4338e-05,0
2.2768,-3.3738e-05,0
2.2773,-2.8031e-05,0
2.2779,-2.031e-05,0
2.2784,-2.0813e-05,0
2.2789,-3.0381e-05,0
2.2794,-4.0452e-05,0
2.2799,-4.6159e-05,0
2.2805,-4.9348e-05,0
2.281,-4.9012e-05,0
2.2815,-4.3977e-05,0
2.282,-3.5584e-05,0
2.2825,-2.9206e-05,0
2.2831,-3.1556e-05,0
2.2836,-4.1123e-05,0
2.2841,-4.9348e-05,0
2.2846,-4.9516e-05,0
2.2851,-4.1794e-05,0
2.2857,-2.8367e-05,0
2.2862,-1.2757e-05,0
2.2867,1.6785e-07,0
2.2872,3.357e-07,0
2.2877,-1.5778e-05,0
2.2883,-3.3402e-05,0
2.2888,-3.3234e-05,0
2.2893,-1.2253e-05,0
2.2898,1.326e-05,0
2.2903,3.1891e-05,0
2.2908,4.7333e-05,0
2.2914,6.3615e-05,0
2.2919,7.57e-05,0
2.2924,8.0903e-05,0
2.2929,8.5435e-05,0
2.2934,9.3828e-05,0
2.294,0.00010222,0
2.2945,0.0001039,0
2.295,9.3156e-05,0
2.2955,7.2007e-05,0
2.296,4.9348e-05,0
2.2966,3.4073e-05,0
2.2971,2.8534e-05,0
2.2976,2.6184e-05,0
2.2981,1.8296e-05,0
2.2986,1.1246e-05,0
2.2992,1.5274e-05,0
2.2997,2.2995e-05,0
2.3002,2.1988e-05,0
2.3007,1.6449e-05,0
2.3012,1.6281e-05,0
2.3018,2.1317e-05,0
2.3023,2.4506e-05,0
2.3028,2.4338e-05,0
2.3033,2.1317e-05,0
2.3038,1.6281e-05,0
2.3043,8.2246e-06,0
2.3049,2.8534e-06,0
2.3054,2.182e-06,0
2.3059,3.0213e-06,0
2.3064,1.6785e-06,0
2.3069,2.182e-06,0
2.3075,3.5248e-06,0
2.308,3.5248e-06,0
2.3085,5.0355e-06,0
2.309,1.1917e-05,0
2.3095,2.0981e-05,0
2.3101,2.9374e-05,0
2.3106,3.5752e-05,0
2.3111,3.9948e-05,0
2.3116,4.213e-05,0
2.3121,4.1627e-05,0
2.3127,3.7095e-05,0
2.3132,2.9709e-05,0
2.3137,2.2324e-05,0
2.3142,1.6449e-05,0
2.3147,1.2085e-05,0
2.3152,1.3092e-05,0
2.3158,1.561e-05,0
2.3163,1.5946e-05,0
2.3168,1.8631e-05,0
2.3173,2.501e-05,0
2.3178,3.2731e-05,0
2.3184,4.3137e-05,0
2.3189,5.3376e-05,0
2.3194,6.3783e-05,0
2.3199,7.5029e-05,0
2.3204,8.2078e-05,0
2.321,7.8218e-05,0
2.3215,6.6636e-05,0
2.322,5.4719e-05,0
2.3225,4.2466e-05,0
2.323,2.6184e-05,0
2.3236,9.9031e-06,0
2.3241,-8.3925e-07,0
2.3246,-6.3783e-06,0
2.3251,-1.2757e-05,0
2.3256,-1.9974e-05,0
2.3262,-2.6352e-05,0
2.3267,-2.887e-05,0
2.3272,-2.4002e-05,0
2.3277,-1.6281e-05,0
2.3282,-1.091e-05,0
2.3287,-7.5532e-06,0
2.3293,-4.5319e-06,0
2.3298,-5.3712e-06,0
2.3303,-9.7353e-06,0
2.3308,-9.9031e-06,0
2.3313,-6.8818e-06,0
2.3319,-6.714e-07,0
2.3324,6.3783e-06,0
2.3329,1.091e-05,0
2.3334,1.2757e-05,0
2.3339,1.1917e-05,0
2.3345,1.5106e-05,0
2.335,2.6184e-05,0
2.3355,4.4648e-05,0
2.336,6.3951e-05,0
2.3365,7.5364e-05,0
2.3371,7.0329e-05,0
2.3376,5.2705e-05,0
2.3381,3.2059e-05,0
2.3386,9.0639e-06,0
2.3391,-1.4099e-05,0
2.3397,-3.0716e-05,0
2.3402,-3.7095e-05,0
2.3407,-3.7934e-05,0
2.3412,-4.0787e-05,0
2.3417,-4.9683e-05,0
2.3422,-5.6901e-05,0
2.3428,-5.4383e-05,0
2.3433,-4.5151e-05,0
2.3438,-4.4648e-05,0
2.3443,-5.1194e-05,0
2.3448,-4.3137e-05,0
2.3454,-1.4603e-05,0
2.3459,2.3331e-05,0
2.3464,5.9754e-05,0
2.3469,8.5771e-05,0
2.3474,0.00010088,0
2.348,0.00010491,0
2.3485,9.3828e-05,0
2.349,7.335e-05,0
2.3495,5.8915e-05,0
2.35,6.2272e-05,0
2.3506,7.2679e-05,0
2.3511,7.2679e-05,0
2.3516,6.1601e-05,0
2.3521,5.388e-05,0
2.3526,5.6062e-05,0
2.3532,6.2272e-05,0
2.3537,6.4958e-05,0
2.3542,6.5629e-05,0
2.3547,6.5629e-05,0
2.3552,5.9419e-05,0
2.3558,4.6159e-05,0
2.3563,3.2059e-05,0
2.3568,1.8967e-05,0
2.3573,8.896e-06,0
2.3578,4.3641e-06,0
2.3583,2.3499e-06,0
2.3589,6.714e-07,0
2.3594,-1.6785e-07,0
2.3599,-5.0355e-07,0
2.3604,-8.3925e-07,0
2.3609,3.8605e-06,0
2.3615,1.2421e-05,0
2.362,1.8967e-05,0
2.3625,2.031e-05,0
2.363,1.6449e-05,0
2.3635,1.2589e-05,0
2.3641,9.2317e-06,0
2.3646,1.0239e-05,0
2.3651,1.7624e-05,0
2.3656,3.0716e-05,0
2.3661,4.2802e-05,0
2.3667,4.4144e-05,0
2.3672,3.3738e-05,0
2.3677,2.031e-05,0
2.3682,9.5674e-06,0
2.3687,1.6785e-07,0
2.3693,-9.2317e-06,0
2.3698,-1.6617e-05,0
2.3703,-2.0813e-05,0
2.3708,-2.3667e-05,0
2.3713,-2.5345e-05,0
2.3718,-2.417e-05,0
2.3724,-2.1149e-05,0
2.3729,-1.4267e-05,0
2.3734,-3.8605e-06,0
2.3739,4.5319e-06,0
2.3744,9.7353e-06,0
2.375,1.6617e-05,0
2.3755,1.9303e-05,0
2.376,1.326e-05,0
2.3765,5.8747e-06,0
2.377,4.3641e-06,0
2.3776,7.2175e-06,0
2.3781,1.0742e-05,0
2.3786,1.5274e-05,0
2.3791,2.1149e-05,0
2.3796,2.501e-05,0
2.3802,2.6352e-05,0
2.3807,3.0381e-05,0
2.3812,3.9109e-05,0
2.3817,4.8173e-05,0
2.3822,4.683e-05,0
2.3828,3.2731e-05,0
2.3833,1.6281e-05,0
2.3838,6.8818e-06,0
2.3843,1.8463e-06,0
2.3848,-1.8463e-06,0
2.3853,1.8463e-06,0
2.3859,1.1749e-05,0
2.3864,1.9471e-05,0
2.3869,2.3667e-05,0
2.3874,3.2059e-05,0
2.3879,4.5319e-05,0
2.3885,5.388e-05,0
2.389,5.4047e-05,0
2.3895,4.2466e-05,0
2.39,2.2995e-05,0
2.3905,6.8818e-06,0
2.3911,-5.0355e-06,0
2.3916,-1.6281e-05,0
2.3921,-2.4506e-05,0
2.3926,-2.6017e-05,0
2.3931,-2.3163e-05,0
2.3937,-2.0645e-05,0
2.3942,-1.7288e-05,0
2.3947,-1.0575e-05,0
2.3952,2.3499e-06,0
2.3957,2.7192e-05,0
2.3963,6.2104e-05,0
2.3968,9.8863e-05,0
2.3973,0.0001284,0
2.3978,0.00014318,0
2.3983,0.00013646,0
2.3988,0.00010826,0
2.3994,7.4189e-05,0
2.3999,4.0116e-05,0
2.4004,4.1962e-06,0
2.4009,-2.5345e-05,0
2.4014,-4.2298e-05,0
2.402,-4.9348e-05,0
2.4025,-5.0019e-05,0
2.403,-4.5823e-05,0
2.4035,-3.7095e-05,0
2.404,-2.266e-05,0
2.4046,-2.0142e-06,0
2.4051,1.7121e-05,0
2.4056,2.4674e-05,0
2.4061,1.6617e-05,0
2.4066,-1.8463e-06,0
2.4072,-1.7456e-05,0
2.4077,-2.1653e-05,0
2.4082,-1.561e-05,0
2.4087,-5.539e-06,0
2.4092,5.8747e-06,0
2.4097,1.6617e-05,0
2.4103,2.7024e-05,0
2.4108,3.6423e-05,0
2.4113,4.9851e-05,0
2.4118,6.8315e-05,0
2.4123,8.7114e-05,0
2.4129,0.00010021,0
2.4134,0.00010054,0
2.4139,8.3925e-05,0
2.4144,5.5558e-05,0
2.4149,3.0045e-05,0
2.4155,1.4435e-05,0
2.416,5.2033e-06,0
2.4165,1.5106e-06,0
2.417,1.6785e-07,0
2.4175,6.714e-07,0
2.4181,3.1891e-06,0
2.4186,1.5106e-06,0
2.4191,-1.1414e-05,0
2.4196,-2.7695e-05,0
2.4201,-3.4409e-05,0
2.4207,-3.0716e-05,0
2.4212,-2.6688e-05,0
2.4217,-2.501e-05,0
2.4222,-1.796e-05,0
2.4227,3.357e-07,0
2.4232,2.8031e-05,0
2.4238,5.8579e-05,0
2.4243,8.4932e-05,0
2.4248,0.00010491,0
2.4253,0.00011464,0
2.4258,0.00010726,0
2.4264,7.4861e-05,0
2.4269,3.6591e-05,0
2.4274,1.7624e-05,0
2.4279,1.6281e-05,0
2.4284,1.8799e-05,0
2.429,1.8631e-05,0
2.4295,1.7792e-05,0
2.43,1.6281e-05,0
2.4305,1.3596e-05,0
2.431,1.3931e-05,0
2.4316,2.4674e-05,0
2.4321,4.918e-05,0
2.4326,7.1672e-05,0
2.4331,7.2847e-05,0
2.4336,5.1865e-05,0
2.4342,2.266e-05,0
2.4347,0,0
2.4352,-8.2246e-06,0
2.4357,-2.5177e-06,0
2.4362,3.1891e-06,0
2.4367,-1.1749e-06,0
2.4373,-1.091e-05,0
2.4378,-1.5274e-05,0
2.4383,-1.5274e-05,0
2.4388,-1.6281e-05,0
2.4393,-1.3596e-05,0
2.4399,-4.8676e-06,0
2.4404,5.7069e-06,0
2.4409,1.2253e-05,0
2.4414,1.5946e-05,0
2.4419,1.7121e-05,0
2.4425,1.4939e-05,0
2.443,1.0407e-05,0
2.4435,8.3925e-06,0
2.444,6.3783e-06,0
2.4445,-1.8463e-06,0
2.4451,-1.3931e-05,0
2.4456,-1.9471e-05,0
2.4461,-1.326e-05,0
2.4466,0,0
2.4471,1.8967e-05,0
2.4477,4.0787e-05,0
2.4482,5.7908e-05,0
2.4487,6.865e-05,0
2.4492,7.6539e-05,0
2.4497,8.3085e-05,0
2.4503,9.0135e-05,0
2.4508,9.6178e-05,0
2.4513,9.1646e-05,0
2.4518,7.0329e-05,0
2.4523,4.0452e-05,0
2.4528,1.6617e-05,0
2.4534,3.6927e-06,0
2.4539,-7.2175e-06,0
2.4544,-1.7288e-05,0
2.4549,-2.4002e-05,0
2.4554,-3.0213e-05,0
2.456,-3.978e-05,0
2.4565,-5.1194e-05,0
2.457,-5.9922e-05,0
2.4575,-6.0929e-05,0
2.458,-5.7237e-05,0
2.4586,-5.623e-05,0
2.4591,-5.9922e-05,0
2.4596,-5.7404e-05,0
2.4601,-4.3641e-05,0
2.4606,-2.5849e-05,0
2.4612,-1.2085e-05,0
2.4617,-1.8463e-06,0
2.4622,7.8889e-06,0
2.4627,1.8296e-05,0
2.4632,2.5681e-05,0
2.4638,2.7527e-05,0
2.4643,2.4506e-05,0
2.4648,2.3331e-05,0
2.4653,2.5513e-05,0
2.4658,2.7192e-05,0
2.4663,2.6688e-05,0
2.4669,2.7695e-05,0
2.4674,2.7024e-05,0
2.4679,2.1988e-05,0
2.4684,1.6953e-05,0
2.4689,1.4435e-05,0
2.4695,1.4603e-05,0
2.47,1.5274e-05,0
2.4705,1.8296e-05,0
2.471,3.0716e-05,0
2.4715,5.1362e-05,0
2.4721,7.0329e-05,0
2.4726,8.2246e-05,0
2.4731,8.2414e-05,0
2.4736,7.3014e-05,0
2.4741,6.0258e-05,0
2.4747,3.6759e-05,0
2.4752,4.5319e-06,0
2.4757,-1.9135e-05,0
2.4762,-2.4338e-05,0
2.4767,-1.5274e-05,0
2.4773,-4.5319e-06,0
2.4778,-2.182e-06,0
2.4783,-2.8534e-06,0
2.4788,6.5461e-06,0
2.4793,3.0381e-05,0
2.4798,6.1601e-05,0
2.4804,9.1142e-05,0
2.4809,0.00011229,0
2.4814,0.00012706,0
2.4819,0.00013411,0
2.4824,0.00012605,0
2.483,0.00010138,0
2.4835,7.4861e-05,0
2.484,5.539e-05,0
2.4845,4.0116e-05,0
2.485,2.266e-05,0
2.4856,2.5177e-06,0
2.4861,-1.6785e-05,0
2.4866,-3.2059e-05,0
2.4871,-4.1794e-05,0
2.4876,-4.448e-05,0
2.4882,-3.978e-05,0
2.4887,-2.9541e-05,0
2.4892,-1.4267e-05,0
2.4897,1.8463e-06,0
2.4902,1.326e-05,0
2.4907,1.8967e-05,0
2.4913,2.1317e-05,0
2.4918,2.501e-05,0
2.4923,2.6688e-05,0
2.4928,2.2828e-05,0
2.4933,1.2924e-05,0
2.4939,1.8463e-06,0
2.4944,-5.8747e-06,0
2.4949,-8.7282e-06,0
2.4954,-6.2104e-06,0
2.4959,2.5177e-06,0
2.4965,1.4939e-05,0
2.497,2.5849e-05,0
2.4975,3.1388e-05,0
2.498,3.4745e-05,0
2.4985,3.8437e-05,0
2.4991,4.2466e-05,0
2.4996,4.6159e-05,0
2.5001,4.5151e-05,0
2.5006,4.0452e-05,0
2.5011,3.2563e-05,0
2.5017,2.4002e-05,0
2.5022,2.1988e-05,0
2.5027,2.3331e-05,0
2.5032,2.1653e-05,0
2.5037,2.2492e-05,0
2.5042,3.3906e-05,0
2.5048,5.1865e-05,0
2.5053,6.8315e-05,0
2.5058,7.7714e-05,0
2.5063,7.9057e-05,0
2.5068,7.2175e-05,0
2.5074,5.8244e-05,0
2.5079,4.5655e-05,0
2.5084,4.4984e-05,0
2.5089,5.153e-05,0
2.5094,4.7501e-05,0
2.51,3.0045e-05,0
2.5105,8.3925e-06,0
2.511,-1.0407e-05,0
2.5115,-2.4338e-05,0
2.512,-3.508e-05,0
2.5126,-4.1962e-05,0
2.5131,-4.7166e-05,0
2.5136,-5.2369e-05,0
2.5141,-5.7237e-05,0
2.5146,-6.2272e-05,0
2.5152,-6.4958e-05,0
2.5157,-5.5894e-05,0
2.5162,-3.6088e-05,0
2.5167,-1.2757e-05,0
2.5172,8.0568e-06,0
2.5177,2.0645e-05,0
2.5183,2.031e-05,0
2.5188,8.896e-06,0
2.5193,-8.2246e-06,0
2.5198,-2.501e-05,0
2.5203,-3.4745e-05,0
2.5209,-3.508e-05,0
2.5214,-3.6927e-05,0
2.5219,-4.7501e-05,0
2.5224,-5.0523e-05,0
2.5229,-3.5752e-05,0
2.5235,-1.0575e-05,0
2.524,1.7288e-05,0
2.5245,4.2802e-05,0
2.525,6.7643e-05,0
2.5255,9.2485e-05,0
2.5261,0.00011145,0
2.5266,0.00011733,0
2.5271,0.00011397,0
2.5276,0.00010893,0
2.5281,0.00010188,0
2.5287,8.8792e-05,0
2.5292,6.7308e-05,0
2.5297,4.4816e-05,0
2.5302,3.1388e-05,0
2.5307,2.4002e-05,0
2.5312,1.5946e-05,0
2.5318,1.3428e-05,0
2.5323,1.8967e-05,0
2.5328,2.6184e-05,0
2.5333,2.6017e-05,0
2.5338,2.1317e-05,0
2.5344,1.8631e-05,0
2.5349,1.9135e-05,0
2.5354,1.8631e-05,0
2.5359,1.2757e-05,0
2.5364,3.6927e-06,0
2.537,-3.5248e-06,0
2.5375,-3.5248e-06,0
2.538,-2.182e-06,0
2.5385,-9.5674e-06,0
2.539,-2.7024e-05,0
2.5396,-4.6159e-05,0
2.5401,-5.7404e-05,0
2.5406,-5.8076e-05,0
2.5411,-4.9851e-05,0
2.5416,-3.9445e-05,0
2.5422,-3.3066e-05,0
2.5427,-2.9541e-05,0
2.5432,-1.9471e-05,0
2.5437,-3.5248e-06,0
2.5442,1.1917e-05,0
2.5448,2.8702e-05,0
2.5453,5.1865e-05,0
2.5458,6.9657e-05,0
2.5463,6.949e-05,0
2.5468,5.5558e-05,0
2.5473,4.4984e-05,0
2.5479,4.5823e-05,0
2.5484,5.2033e-05,0
2.5489,5.388e-05,0
2.5494,4.8173e-05,0
2.5499,4.2466e-05,0
2.5505,4.6326e-05,0
2.551,5.8915e-05,0
2.5515,7.5364e-05,0
2.552,9.1646e-05,0
2.5525,0.00010323,0
2.5531,0.00010323,0
2.5536,9.1142e-05,0
2.5541,7.9393e-05,0
2.5546,7.2007e-05,0
2.5551,6.4286e-05,0
2.5557,5.2369e-05,0
2.5562,3.1556e-05,0
2.5567,-2.8534e-06,0
2.5572,-4.2466e-05,0
2.5577,-7.0665e-05,0
2.5583,-7.5029e-05,0
2.5588,-5.9586e-05,0
2.5593,-3.9445e-05,0
2.5598,-2.5345e-05,0
2.5603,-1.326e-05,0
2.5608,1.8463e-06,0
2.5614,1.5946e-05,0
2.5619,1.9974e-05,0
2.5624,1.1582e-05,0
2.5629,-3.1891e-06,0
2.5634,-1.8296e-05,0
2.564,-2.9038e-05,0
2.5645,-2.9206e-05,0
2.565,-1.8463e-05,0
2.5655,5.2033e-06,0
2.566,3.4073e-05,0
2.5666,5.9586e-05,0
2.5671,7.805e-05,0
2.5676,8.3421e-05,0
2.5681,7.335e-05,0
2.5686,5.4047e-05,0
2.5692,3.2731e-05,0
2.5697,1.5946e-05,0
2.5702,4.6998e-06,0
2.5707,-2.3499e-06,0
2.5712,-4.5319e-06,0
2.5718,-2.182e-06,0
2.5723,2.5177e-06,0
2.5728,6.2104e-06,0
2.5733,9.2317e-06,0
2.5738,1.2589e-05,0
2.5743,1.4939e-05,0
2.5749,1.561e-05,0
2.5754,1.5274e-05,0
2.5759,1.2757e-05,0
2.5764,8.2246e-06,0
2.5769,4.6998e-06,0
2.5775,4.3641e-06,0
2.578,6.2104e-06,0
2.5785,9.7353e-06,0
2.579,1.0239e-05,0
2.5795,6.8818e-06,0
2.5801,7.2175e-06,0
2.5806,1.2421e-05,0
2.5811,2.0645e-05,0
2.5816,3.0045e-05,0
2.5821,4.1627e-05,0
2.5827,5.4215e-05,0
2.5832,6.7475e-05,0
2.5837,7.5029e-05,0
2.5842,7.0329e-05,0
2.5847,5.5894e-05,0
2.5852,4.1123e-05,0
2.5858,2.7024e-05,0
2.5863,5.539e-06,0
2.5868,-1.6953e-05,0
2.5873,-2.9374e-05,0
2.5878,-2.7695e-05,0
2.5884,-1.7792e-05,0
2.5889,-1.4267e-05,0
2.5894,-1.8967e-05,0
2.5899,-1.8296e-05,0
2.5904,-5.0355e-06,0
2.591,1.5946e-05,0
2.5915,3.8102e-05,0
2.592,4.7501e-05,0
2.5925,4.0787e-05,0
2.593,2.9374e-05,0
2.5936,2.2995e-05,0
2.5941,1.9974e-05,0
2.5946,2.4002e-05,0
2.5951,3.9109e-05,0
2.5956,5.7237e-05,0
2.5962,6.2776e-05,0
2.5967,5.623e-05,0
2.5972,4.7166e-05,0
2.5977,4.1123e-05,0
2.5982,4.5487e-05,0
2.5987,5.4719e-05,0
2.5993,5.623e-05,0
2.5998,4.4144e-05,0
2.6003,2.6688e-05,0
2.6008,1.5274e-05,0
2.6013,8.5603e-06,0
2.6019,2.8534e-06,0
2.6024,-5.0355e-07,0
2.6029,1.5106e-06,0
2.6034,9.2317e-06,0
2.6039,1.5442e-05,0
2.6045,1.326e-05,0
2.605,6.5461e-06,0
2.6055,5.539e-06,0
2.606,1.0575e-05,0
2.6065,1.3931e-05,0
2.6071,1.1917e-05,0
2.6076,8.3925e-06,0
2.6081,7.0497e-06,0
2.6086,7.8889e-06,0
2.6091,9.2317e-06,0
2.6097,8.2246e-06,0
2.6102,7.5532e-06,0
2.6107,6.8818e-06,0
2.6112,4.1962e-06,0
2.6117,1.1749e-06,0
2.6122,8.3925e-07,0
2.6128,3.1891e-06,0
2.6133,9.2317e-06,0
2.6138,2.031e-05,0
2.6143,3.0884e-05,0
2.6148,3.8773e-05,0
2.6154,4.8508e-05,0
2.6159,5.7404e-05,0
2.6164,6.3951e-05,0
2.6169,6.714e-05,0
2.6174,6.5965e-05,0
2.618,5.9922e-05,0
2.6185,5.2873e-05,0
2.619,4.9516e-05,0
2.6195,4.9516e-05,0
2.62,4.3473e-05,0
2.6206,2.3163e-05,0
2.6211,-2.3499e-06,0
2.6216,-1.8296e-05,0
2.6221,-2.4338e-05,0
2.6226,-2.4674e-05,0
2.6232,-2.266e-05,0
2.6237,-1.7624e-05,0
2.6242,-8.5603e-06,0
2.6247,2.182e-06,0
2.6252,9.2317e-06,0
2.6258,1.1414e-05,0
2.6263,1.1582e-05,0
2.6268,9.7353e-06,0
2.6273,5.8747e-06,0
2.6278,2.182e-06,0
2.6283,1.5106e-06,0
2.6289,4.6998e-06,0
2.6294,1.0239e-05,0
2.6299,1.2924e-05,0
2.6304,8.2246e-06,0
2.6309,-2.8534e-06,0
2.6315,-7.7211e-06,0
2.632,-5.0355e-06,0
2.6325,-6.2104e-06,0
2.633,-1.5442e-05,0
2.6335,-2.182e-05,0
2.6341,-1.9806e-05,0
2.6346,-2.0142e-05,0
2.6351,-3.3738e-05,0
2.6356,-5.7908e-05,0
2.6361,-7.2847e-05,0
2.6367,-6.3615e-05,0
2.6372,-3.9277e-05,0
2.6377,-1.4939e-05,0
2.6382,5.0355e-06,0
2.6387,1.9974e-05,0
2.6393,3.4745e-05,0
2.6398,5.2705e-05,0
2.6403,7.2343e-05,0
2.6408,9.1478e-05,0
2.6413,0.00010457,0
2.6418,0.00010658,0
2.6424,9.3828e-05,0
2.6429,6.9993e-05,0
2.6434,4.6494e-05,0
2.6439,3.1388e-05,0
2.6444,2.3667e-05,0
2.645,2.1317e-05,0
2.6455,2.2995e-05,0
2.646,2.9038e-05,0
2.6465,3.7934e-05,0
2.647,5.0187e-05,0
2.6476,6.2943e-05,0
2.6481,6.6972e-05,0
2.6486,6.2776e-05,0
2.6491,5.4887e-05,0
2.6496,4.4144e-05,0
2.6502,2.6184e-05,0
2.6507,7.8889e-06,0
2.6512,-8.3925e-07,0
2.6517,-3.357e-06,0
2.6522,-7.0497e-06,0
2.6528,-1.091e-05,0
2.6533,-1.0239e-05,0
2.6538,-7.0497e-06,0
2.6543,-4.1962e-06,0
2.6548,-8.3925e-07,0
2.6553,7.2175e-06,0
2.6559,1.796e-05,0
2.6564,2.6688e-05,0
2.6569,3.0716e-05,0
2.6574,3.1556e-05,0
2.6579,2.9038e-05,0
2.6585,2.6184e-05,0
2.659,2.6352e-05,0
2.6595,2.7359e-05,0
2.66,2.5345e-05,0
2.6605,1.9974e-05,0
2.6611,1.4939e-05,0
2.6616,1.1246e-05,0
2.6621,7.0497e-06,0
2.6626,2.5177e-06,0
2.6631,1.3428e-06,0
2.6637,2.8534e-06,0
2.6642,8.896e-06,0
2.6647,1.6449e-05,0
2.6652,2.2156e-05,0
2.6657,2.8031e-05,0
2.6662,3.4073e-05,0
2.6668,3.8773e-05,0
2.6673,4.0955e-05,0
2.6678,4.0787e-05,0
2.6683,3.743e-05,0
2.6688,3.4745e-05,0
2.6694,3.1388e-05,0
2.6699,2.3331e-05,0
2.6704,1.561e-05,0
2.6709,1.1246e-05,0
2.6714,1.0239e-05,0
2.672,8.2246e-06,0
2.6725,3.357e-06,0
2.673,1.5106e-06,0
2.6735,8.3925e-06,0
2.674,2.0142e-05,0
2.6746,3.0381e-05,0
2.6751,3.5416e-05,0
2.6756,3.2059e-05,0
2.6761,2.2324e-05,0
2.6766,1.2757e-05,0
2.6772,4.8676e-06,0
2.6777,-1.6785e-07,0
2.6782,-5.8747e-06,0
2.6787,-1.2757e-05,0
2.6792,-1.4603e-05,0
2.6797,-8.5603e-06,0
2.6803,1.0071e-06,0
2.6808,7.2175e-06,0
2.6813,1.1749e-05,0
2.6818,1.9974e-05,0
2.6823,3.0716e-05,0
2.6829,3.8437e-05,0
2.6834,4.2802e-05,0
2.6839,4.2802e-05,0
2.6844,4.2466e-05,0
2.6849,4.6998e-05,0
2.6855,5.3544e-05,0
2.686,5.9419e-05,0
2.6865,6.3615e-05,0
2.687,6.714e-05,0
2.6875,7.4022e-05,0
2.6881,8.04e-05,0
2.6886,7.8218e-05,0
2.6891,6.63e-05,0
2.6896,4.9516e-05,0
2.6901,3.2059e-05,0
2.6907,1.6449e-05,0
2.6912,4.1962e-06,0
2.6917,-3.5248e-06,0
2.6922,-9.5674e-06,0
2.6927,-1.091e-05,0
2.6932,-5.0355e-07,0
2.6938,1.8296e-05,0
2.6943,3.8773e-05,0
2.6948,5.1865e-05,0
2.6953,5.0187e-05,0
2.6958,3.4409e-05,0
2.6964,9.3996e-06,0
2.6969,-1.2924e-05,0
2.6974,-2.3835e-05,0
2.6979,-3.1052e-05,0
2.6984,-3.827e-05,0
2.699,-4.1123e-05,0
2.6995,-3.9445e-05,0
2.7,-3.508e-05,0
2.7005,-2.9709e-05,0
2.701,-2.3667e-05,0
2.7016,-1.4099e-05,0
2.7021,-1.1749e-06,0
2.7026,9.2317e-06,0
2.7031,8.7282e-06,0
2.7036,-1.8463e-06,0
2.7042,-1.3596e-05,0
2.7047,-2.1317e-05,0
2.7052,-3.2563e-05,0
2.7057,-4.1962e-05,0
2.7062,-3.5248e-05,0
2.7067,-1.2924e-05,0
2.7073,1.1246e-05,0
2.7078,2.501e-05,0
2.7083,2.2995e-05,0
2.7088,1.561e-05,0
2.7093,1.2589e-05,0
2.7099,1.5274e-05,0
2.7104,2.1317e-05,0
2.7109,3.0716e-05,0
2.7114,3.978e-05,0
2.7119,4.3473e-05,0
2.7125,4.7669e-05,0
2.713,5.623e-05,0
2.7135,6.3447e-05,0
2.714,5.8579e-05,0
2.7145,4.9851e-05,0
2.7151,5.0523e-05,0
2.7156,5.623e-05,0
2.7161,5.5894e-05,0
2.7166,4.6159e-05,0
2.7171,3.5752e-05,0
2.7177,3.0716e-05,0
2.7182,3.0045e-05,0
2.7187,3.2059e-05,0
2.7192,3.2731e-05,0
2.7197,2.8367e-05,0
2.7203,1.9638e-05,0
2.7208,1.3931e-05,0
2.7213,1.5946e-05,0
2.7218,2.3331e-05,0
2.7223,2.8534e-05,0
2.7228,3.4073e-05,0
2.7234,4.0787e-05,0
2.7239,4.3473e-05,0
2.7244,4.0116e-05,0
2.7249,3.6088e-05,0
2.7254,3.1388e-05,0
2.726,2.4338e-05,0
2.7265,1.6281e-05,0
2.727,1.5106e-05,0
2.7275,2.1988e-05,0
2.728,3.0381e-05,0
2.7286,3.5416e-05,0
2.7291,3.8941e-05,0
2.7296,4.4816e-05,0
2.7301,4.9348e-05,0
2.7306,4.9516e-05,0
2.7312,4.5151e-05,0
2.7317,3.1388e-05,0
2.7322,1.1917e-05,0
2.7327,-1.5106e-06,0
2.7332,-4.8676e-06,0
2.7338,1.1749e-06,0
2.7343,6.714e-06,0
2.7348,1.1246e-05,0
2.7353,1.796e-05,0
2.7358,2.2324e-05,0
2.7363,2.1988e-05,0
2.7369,1.6617e-05,0
2.7374,1.091e-05,0
2.7379,6.2104e-06,0
2.7384,3.8605e-06,0
2.7389,8.3925e-07,0
2.7395,-7.0497e-06,0
2.74,-1.5778e-05,0
2.7405,-2.1653e-05,0
2.741,-2.2492e-05,0
2.7415,-1.796e-05,0
2.7421,-9.3996e-06,0
2.7426,-3.357e-07,0
2.7431,5.2033e-06,0
2.7436,6.8818e-06,0
2.7441,7.7211e-06,0
2.7447,9.9031e-06,0
2.7452,1.1917e-05,0
2.7457,1.4939e-05,0
2.7462,1.6617e-05,0
2.7467,1.4267e-05,0
2.7473,1.0071e-05,0
2.7478,5.0355e-06,0
2.7483,1.1749e-06,0
2.7488,2.5177e-06,0
2.7493,5.8747e-06,0
2.7498,3.6927e-06,0
2.7504,-3.8605e-06,0
2.7509,-9.9031e-06,0
2.7514,-1.2924e-05,0
2.7519,-1.1582e-05,0
2.7524,-1.0071e-06,0
2.753,1.3596e-05,0
2.7535,2.4674e-05,0
2.754,2.8367e-05,0
2.7545,2.2995e-05,0
2.755,1.326e-05,0
2.7556,7.2175e-06,0
2.7561,1.0239e-05,0
2.7566,1.4603e-05,0
2.7571,1.2757e-05,0
2.7576,7.0497e-06,0
2.7582,5.0355e-07,0
2.7587,-3.1891e-06,0
2.7592,1.1749e-06,0
2.7597,1.0071e-05,0
2.7602,1.6449e-05,0
2.7607,2.3499e-05,0
2.7613,3.2731e-05,0
2.7618,4.0452e-05,0
2.7623,4.7501e-05,0
2.7628,5.623e-05,0
2.7633,6.2943e-05,0
2.7639,6.7979e-05,0
2.7644,7.4022e-05,0
2.7649,8.5603e-05,0
2.7654,9.9199e-05,0
2.7659,0.00010826,0
2.7665,0.00010726,0
2.767,9.6513e-05,0
2.7675,7.4357e-05,0
2.768,4.4144e-05,0
2.7685,1.9135e-05,0
2.7691,1.3931e-05,0
2.7696,2.0478e-05,0
2.7701,1.5946e-05,0
2.7706,-7.8889e-06,0
2.7711,-3.7598e-05,0
2.7717,-5.9586e-05,0
2.7722,-6.6804e-05,0
2.7727,-5.7069e-05,0
2.7732,-3.8437e-05,0
2.7737,-1.9638e-05,0
2.7742,-5.539e-06,0
2.7748,1.1749e-06,0
2.7753,4.8676e-06,0
2.7758,1.1246e-05,0
2.7763,2.5345e-05,0
2.7768,4.683e-05,0
2.7774,7.1504e-05,0
2.7779,8.9128e-05,0
2.7784,9.7856e-05,0
2.7789,0.00010826,0
2.7794,0.00012136,0
2.78,0.00012807,0
2.7805,0.00012303,0
2.781,0.00011263,0
2.7815,0.00010323,0
2.782,9.4163e-05,0
2.7826,7.5532e-05,0
2.7831,4.1794e-05,0
2.7836,5.0355e-07,0
2.7841,-3.4409e-05,0
2.7846,-5.8076e-05,0
2.7852,-7.1672e-05,0
2.7857,-7.9561e-05,0
2.7862,-8.4092e-05,0
2.7867,-8.8624e-05,0
2.7872,-9.4835e-05,0
2.7877,-9.7017e-05,0
2.7883,-8.9632e-05,0
2.7888,-7.4693e-05,0
2.7893,-5.9251e-05,0
2.7898,-4.6998e-05,0
2.7903,-3.5416e-05,0
2.7909,-2.0478e-05,0
2.7914,-1.5106e-06,0
2.7919,1.7121e-05,0
2.7924,2.4674e-05,0
2.7929,1.4603e-05,0
2.7935,-3.8605e-06,0
2.794,-1.7121e-05,0
2.7945,-2.031e-05,0
2.795,-1.7624e-05,0
2.7955,-1.0071e-05,0
2.7961,3.8605e-06,0
2.7966,1.7792e-05,0
2.7971,2.4674e-05,0
2.7976,2.6688e-05,0
2.7981,3.6088e-05,0
2.7987,5.9586e-05,0
2.7992,8.7114e-05,0
2.7997,0.00010726,0
2.8002,0.0001086,0
2.8007,9.1478e-05,0
2.8013,7.3518e-05,0
2.8018,6.2943e-05,0
2.8023,5.7908e-05,0
2.8028,5.3376e-05,0
2.8033,4.6662e-05,0
2.8038,3.6088e-05,0
2.8044,2.3163e-05,0
2.8049,1.2253e-05,0
2.8054,1.1749e-06,0
2.8059,-8.2246e-06,0
2.8064,-1.2253e-05,0
2.807,-8.3925e-06,0
2.8075,3.1891e-06,0
2.808,1.6449e-05,0
2.8085,2.7192e-05,0
2.809,3.2731e-05,0
2.8096,3.4745e-05,0
2.8101,3.2898e-05,0
2.8106,3.1388e-05,0
2.8111,3.6423e-05,0
2.8116,4.4816e-05,0
2.8122,5.0355e-05,0
2.8127,4.9683e-05,0
2.8132,4.1794e-05,0
2.8137,3.0381e-05,0
2.8142,2.2995e-05,0
2.8148,2.0645e-05,0
2.8153,2.031e-05,0
2.8158,2.0478e-05,0
2.8163,1.8463e-05,0
2.8168,1.3931e-05,0
2.8173,6.8818e-06,0
2.8179,-3.357e-07,0
2.8184,-5.539e-06,0
2.8189,-8.896e-06,0
2.8194,-1.1078e-05,0
2.8199,-1.2924e-05,0
2.8205,-1.4099e-05,0
2.821,-1.4099e-05,0
2.8215,-1.1414e-05,0
2.822,-5.7069e-06,0
2.8225,4.8676e-06,0
2.8231,1.9974e-05,0
2.8236,3.2059e-05,0
2.8241,3.4745e-05,0
2.8246,2.8367e-05,0
2.8251,2.4506e-05,0
2.8257,3.508e-05,0
2.8262,5.153e-05,0
2.8267,5.9586e-05,0
2.8272,5.623e-05,0
2.8277,4.7166e-05,0
2.8283,3.7095e-05,0
2.8288,2.5345e-05,0
2.8293,1.6617e-05,0
2.8298,1.3764e-05,0
2.8303,1.796e-05,0
2.8308,2.2324e-05,0
2.8314,1.7121e-05,0
2.8319,4.1962e-06,0
2.8324,-5.8747e-06,0
2.8329,-5.7069e-06,0
2.8334,8.896e-06,0
2.834,2.8702e-05,0
2.8345,4.3809e-05,0
2.835,5.3544e-05,0
2.8355,5.5894e-05,0
2.836,5.5222e-05,0
2.8366,5.623e-05,0
2.8371,5.3376e-05,0
2.8376,4.2298e-05,0
2.8381,2.9541e-05,0
2.8386,2.0478e-05,0
2.8392,1.326e-05,0
2.8397,6.3783e-06,0
2.8402,-2.0142e-06,0
2.8407,-1.4939e-05,0
2.8412,-2.7359e-05,0
2.8418,-3.2898e-05,0
2.8423,-3.508e-05,0
2.8428,-4.3641e-05,0
2.8433,-5.6062e-05,0
2.8438,-6.1097e-05,0
2.8443,-5.2369e-05,0
2.8449,-3.6255e-05,0
2.8454,-2.0142e-05,0
2.8459,-4.1962e-06,0
2.8464,1.4435e-05,0
2.8469,3.3906e-05,0
2.8475,5.0355e-05,0
2.848,6.2608e-05,0
2.8485,7.3686e-05,0
2.849,8.1743e-05,0
2.8495,7.9561e-05,0
2.8501,6.4286e-05,0
2.8506,4.2802e-05,0
2.8511,2.1317e-05,0
2.8516,2.182e-06,0
2.8521,-9.0639e-06,0
2.8527,-1.0575e-05,0
2.8532,-7.2175e-06,0
2.8537,-2.3499e-06,0
2.8542,5.2033e-06,0
2.8547,1.1246e-05,0
2.8552,9.9031e-06,0
2.8558,5.0355e-06,0
2.8563,4.8676e-06,0
2.8568,1.326e-05,0
2.8573,2.2324e-05,0
2.8578,2.6688e-05,0
2.8584,3.0213e-05,0
2.8589,3.5416e-05,0
2.8594,4.0787e-05,0
2.8599,4.5487e-05,0
2.8604,5.0187e-05,0
2.861,5.1865e-05,0
2.8615,4.3977e-05,0
2.862,2.6017e-05,0
2.8625,4.0284e-06,0
2.863,-1.5274e-05,0
2.8636,-2.5513e-05,0
2.8641,-2.3499e-05,0
2.8646,-1.2085e-05,0
2.8651,1.8463e-06,0
2.8656,1.3596e-05,0
2.8662,2.2492e-05,0
2.8667,3.2059e-05,0
2.8672,4.3809e-05,0
2.8677,5.3544e-05,0
2.8682,5.7908e-05,0
2.8687,5.7404e-05,0
2.8693,5.6565e-05,0
2.8698,5.4551e-05,0
2.8703,5.0187e-05,0
2.8708,4.2802e-05,0
2.8713,3.5248e-05,0
2.8719,3.0549e-05,0
2.8724,2.5345e-05,0
2.8729,1.326e-05,0
2.8734,-7.5532e-06,0
2.8739,-3.1891e-05,0
2.8745,-4.8508e-05,0
2.875,-5.0523e-05,0
2.8755,-4.1459e-05,0
2.876,-2.7359e-05,0
2.8765,-1.2589e-05,0
2.8771,4.3641e-06,0
2.8776,2.5681e-05,0
2.8781,4.8508e-05,0
2.8786,7.0497e-05,0
2.8791,8.9464e-05,0
2.8797,0.00010188,0
2.8802,0.00010356,0
2.8807,9.3828e-05,0
2.8812,7.2343e-05,0
2.8817,4.918e-05,0
2.8822,3.2059e-05,0
2.8828,1.5946e-05,0
2.8833,0,0
2.8838,-9.2317e-06,0
2.8843,-9.3996e-06,0
2.8848,-1.1749e-06,0
2.8854,1.1917e-05,0
2.8859,2.7192e-05,0
2.8864,3.6927e-05,0
2.8869,4.0787e-05,0
2.8874,4.1291e-05,0
2.888,3.8605e-05,0
2.8885,3.2731e-05,0
2.889,2.5177e-05,0
2.8895,1.7792e-05,0
2.89,9.5674e-06,0
2.8906,-3.1891e-06,0
2.8911,-2.0645e-05,0
2.8916,-2.8199e-05,0
2.8921,-2.031e-05,0
2.8926,-9.5674e-06,0
2.8932,-1.091e-05,0
2.8937,-2.3667e-05,0
2.8942,-3.4073e-05,0
2.8947,-2.9877e-05,0
2.8952,-1.5106e-05,0
2.8958,-1.8463e-06,0
2.8963,7.5532e-06,0
2.8968,1.1582e-05,0
2.8973,1.6281e-05,0
2.8978,2.7527e-05,0
2.8983,4.2298e-05,0
2.8989,5.6565e-05,0
2.8994,6.8315e-05,0
2.8999,7.9728e-05,0
2.9004,9.1142e-05,0
2.9009,9.7856e-05,0
2.9015,9.4163e-05,0
2.902,8.1743e-05,0
2.9025,6.6972e-05,0
2.903,5.4215e-05,0
2.9035,4.7669e-05,0
2.9041,4.5487e-05,0
2.9046,3.6088e-05,0
2.9051,1.4771e-05,0
2.9056,-9.5674e-06,0
2.9061,-2.501e-05,0
2.9067,-2.8367e-05,0
2.9072,-2.1317e-05,0
2.9077,-4.3641e-06,0
2.9082,1.6281e-05,0
2.9087,3.9445e-05,0
2.9093,6.4118e-05,0
2.9098,7.9728e-05,0
2.9103,7.1672e-05,0
2.9108,4.2802e-05,0
2.9113,1.0407e-05,0
2.9118,-1.7792e-05,0
2.9124,-3.8437e-05,0
2.9129,-5.0523e-05,0
2.9134,-5.6901e-05,0
2.9139,-6.1936e-05,0
2.9144,-6.5629e-05,0
2.915,-6.949e-05,0
2.9155,-7.3014e-05,0
2.916,-6.9322e-05,0
2.9165,-5.623e-05,0
2.917,-3.7095e-05,0
2.9176,-1.7624e-05,0
2.9181,-5.0355e-06,0
2.9186,-2.8534e-06,0
2.9191,-1.2085e-05,0
2.9196,-2.1317e-05,0
2.9202,-2.1317e-05,0
2.9207,-1.091e-05,0
2.9212,4.8676e-06,0
2.9217,1.7456e-05,0
2.9222,1.9638e-05,0
2.9228,1.3931e-05,0
2.9233,1.3596e-05,0
2.9238,2.266e-05,0
2.9243,3.2395e-05,0
2.9248,3.9445e-05,0
2.9253,4.8844e-05,0
2.9259,6.1265e-05,0
2.9264,7.2007e-05,0
2.9269,7.9225e-05,0
2.9274,8.3757e-05,0
2.9279,8.4092e-05,0
2.9285,7.805e-05,0
2.929,6.8818e-05,0
2.9295,5.7908e-05,0
2.93,4.8173e-05,0
2.9305,4.062e-05,0
2.9311,3.4745e-05,0
2.9316,2.9877e-05,0
2.9321,2.8534e-05,0
2.9326,3.0381e-05,0
2.9331,3.0381e-05,0
2.9337,2.5849e-05,0
2.9342,2.031e-05,0
2.9347,1.5946e-05,0
2.9352,1.2589e-05,0
2.9357,1.2085e-05,0
2.9362,1.2421e-05,0
2.9368,6.714e-06,0
2.9373,-5.539e-06,0
2.9378,-1.6953e-05,0
2.9383,-1.6617e-05,0
2.9388,-7.2175e-06,0
2.9394,4.1962e-06,0
2.9399,1.4603e-05,0
2.9404,2.7024e-05,0
2.9409,3.8102e-05,0
2.9414,4.3305e-05,0
2.942,4.2802e-05,0
2.9425,4.6159e-05,0
2.943,5.8412e-05,0
2.9435,7.4189e-05,0
2.944,7.8889e-05,0
2.9446,6.5965e-05,0
2.9451,4.5151e-05,0
2.9456,2.7695e-05,0
2.9461,1.9303e-05,0
2.9466,1.8631e-05,0
2.9472,1.7288e-05,0
2.9477,1.2253e-05,0
2.9482,8.896e-06,0
2.9487,1.0239e-05,0
2.9492,1.3931e-05,0
2.9497,1.8631e-05,0
2.9503,2.266e-05,0
2.9508,2.4674e-05,0
2.9513,2.1317e-05,0
2.9518,1.1078e-05,0
2.9523,-8.3925e-07,0
2.9529,-1.091e-05,0
2.9534,-1.4267e-05,0
2.9539,-9.5674e-06,0
2.9544,-2.5177e-06,0
2.9549,1.1749e-06,0
2.9555,6.2104e-06,0
2.956,1.1917e-05,0
2.9565,2.1653e-05,0
2.957,3.6423e-05,0
2.9575,5.0858e-05,0
2.9581,5.6901e-05,0
2.9586,5.0858e-05,0
2.9591,3.978e-05,0
2.9596,2.9374e-05,0
2.9601,2.266e-05,0
2.9607,1.796e-05,0
2.9612,1.3931e-05,0
2.9617,1.0575e-05,0
2.9622,-5.0355e-07,0
2.9627,-2.182e-05,0
2.9632,-4.683e-05,0
2.9638,-6.4958e-05,0
2.9643,-6.9322e-05,0
2.9648,-5.7237e-05,0
2.9653,-3.5416e-05,0
2.9658,-1.3092e-05,0
2.9664,3.8605e-06,0
2.9669,1.5274e-05,0
2.9674,2.1988e-05,0
2.9679,2.4338e-05,0
2.9684,2.2492e-05,0
2.969,1.7288e-05,0
2.9695,1.4939e-05,0
2.97,1.7288e-05,0
2.9705,1.4771e-05,0
2.971,3.0213e-06,0
2.9716,-8.3925e-07,0
2.9721,1.8296e-05,0
2.9726,5.2873e-05,0
2.9731,8.7114e-05,0
2.9736,0.0001133,0
2.9742,0.00012689,0
2.9747,0.00013143,0
2.9752,0.00012958,0
2.9757,0.00011498,0
2.9762,8.5435e-05,0
2.9768,5.2033e-05,0
2.9773,3.1388e-05,0
2.9778,2.2156e-05,0
2.9783,8.5603e-06,0
2.9788,-1.5442e-05,0
2.9793,-3.3402e-05,0
2.9799,-3.0549e-05,0
2.9804,-1.6281e-05,0
2.9809,-8.7282e-06,0
2.9814,-9.7353e-06,0
2.9819,-9.9031e-06,0
2.9825,-1.1582e-05,0
2.983,-1.561e-05,0
2.9835,-1.561e-05,0
2.984,-8.896e-06,0
2.9845,-1.6785e-06,0
2.9851,7.3854e-06,0
2.9856,1.796e-05,0
2.9861,2.4506e-05,0
2.9866,2.652e-05,0
2.9871,2.8031e-05,0
2.9877,3.0045e-05,0
2.9882,2.7359e-05,0
2.9887,1.6449e-05,0
2.9892,5.2033e-06,0
2.9897,-6.714e-07,0
2.9903,-3.357e-06,0
2.9908,-5.2033e-06,0
2.9913,-6.2104e-06,0
2.9918,-9.5674e-06,0
2.9923,-1.6281e-05,0
2.9928,-1.9135e-05,0
2.9934,-1.5778e-05,0
2.9939,-1.091e-05,0
2.9944,-8.2246e-06,0
2.9949,-4.6998e-06,0
2.9954,3.357e-07,0
2.996,7.3854e-06,0
2.9965,1.5106e-05,0
2.997,2.1653e-05,0
2.9975,2.7695e-05,0
2.998,3.3738e-05,0
2.9986,3.978e-05,0
2.9991,4.448e-05,0
2.9996,5.153e-05,0
3.0001,5.7069e-05,0
3.0006,5.5222e-05,0
3.0012,4.5487e-05,0
3.0017,3.3066e-05,0
3.0022,2.2828e-05,0
3.0027,1.4939e-05,0
3.0032,8.7282e-06,0
3.0038,5.8747e-06,0
3.0043,7.5532e-06,0
3.0048,1.1917e-05,0
3.0053,1.7792e-05,0
3.0058,2.7359e-05,0
3.0063,3.9277e-05,0
3.0069,4.8173e-05,0
3.0074,5.2369e-05,0
3.0079,5.4551e-05,0
3.0084,5.5055e-05,0
3.0089,4.8173e-05,0
3.0095,3.5248e-05,0
3.01,2.887e-05,0
3.0105,3.4409e-05,0
3.011,4.5319e-05,0
3.0115,5.0523e-05,0
3.0121,4.1962e-05,0
3.0126,2.3331e-05,0
3.0131,6.714e-06,0
3.0136,-3.1891e-06,0
3.0141,-3.1891e-06,0
3.0147,1.8463e-06,0
3.0152,2.8534e-06,0
3.0157,0,0
3.0162,-1.8463e-06,0
3.0167,3.8605e-06,0
3.0173,1.2421e-05,0
3.0178,1.8967e-05,0
3.0183,2.5345e-05,0
3.0188,2.9709e-05,0
3.0193,3.2059e-05,0
3.0198,3.2059e-05,0
3.0204,3.1052e-05,0
3.0209,3.1388e-05,0
3.0214,3.2059e-05,0
3.0219,2.8534e-05,0
3.0224,2.4674e-05,0
3.023,2.6688e-05,0
3.0235,3.2059e-05,0
3.024,3.1052e-05,0
3.0245,2.3331e-05,0
3.025,1.561e-05,0
3.0256,1.1917e-05,0
3.0261,1.0239e-05,0
3.0266,6.5461e-06,0
3.0271,3.357e-07,0
3.0276,-4.5319e-06,0
3.0282,-2.182e-06,0
3.0287,1.0071e-05,0
3.0292,2.4674e-05,0
3.0297,3.6759e-05,0
3.0302,4.2634e-05,0
3.0307,4.6326e-05,0
3.0313,4.8173e-05,0
3.0318,4.683e-05,0
3.0323,4.3977e-05,0
3.0328,4.1291e-05,0
3.0333,3.7766e-05,0
3.0339,3.1556e-05,0
3.0344,2.1653e-05,0
3.0349,1.3092e-05,0
3.0354,7.5532e-06,0
3.0359,-1.8463e-06,0
3.0365,-2.1317e-05,0
3.037,-4.0787e-05,0
3.0375,-4.2298e-05,0
3.038,-1.8463e-05,0
3.0385,1.0575e-05,0
3.0391,1.6281e-05,0
3.0396,2.0142e-06,0
3.0401,-8.2246e-06,0
3.0406,-3.8605e-06,0
3.0411,7.2175e-06,0
3.0417,1.6953e-05,0
3.0422,2.5849e-05,0
3.0427,3.3906e-05,0
3.0432,3.3738e-05,0
3.0437,1.7121e-05,0
3.0442,-3.8605e-06,0
3.0448,-2.0478e-05,0
3.0453,-4.1291e-05,0
3.0458,-7.3686e-05,0
3.0463,-0.00010373,0
3.0468,-0.00011447,0
3.0474,-0.00010675,0
3.0479,-9.5506e-05,0
3.0484,-8.04e-05,0
3.0489,-5.0187e-05,0
3.0494,-1.1246e-05,0
3.05,2.6688e-05,0
3.0505,5.8244e-05,0
3.051,8.4764e-05,0
3.0515,0.00011128,0
3.052,0.0001373,0
3.0526,0.00014771,0
3.0531,0.00014183,0
3.0536,0.0001321,0
3.0541,0.00012471,0
3.0546,0.00011901,0
3.0552,0.00011598,0
3.0557,0.00011044,0
3.0562,0.00010172,0
3.0567,8.9464e-05,0
3.0572,6.9825e-05,0
3.0577,3.8941e-05,0
3.0583,-8.3925e-07,0
3.0588,-3.1388e-05,0
3.0593,-4.3809e-05,0
3.0598,-4.8005e-05,0
3.0603,-5.5222e-05,0
3.0609,-6.2272e-05,0
3.0614,-6.1601e-05,0
3.0619,-5.1698e-05,0
3.0624,-3.3066e-05,0
3.0629,-4.8676e-06,0
3.0635,2.9877e-05,0
3.064,6.6804e-05,0
3.0645,9.2485e-05,0
3.065,0.00010054,0
3.0655,0.0001039,0
3.0661,0.00010843,0
3.0666,0.00010994,0
3.0671,0.00010759,0
3.0676,9.6513e-05,0
3.0681,8.2078e-05,0
3.0687,6.5629e-05,0
3.0692,3.8437e-05,0
3.0697,3.357e-06,0
3.0702,-3.0716e-05,0
3.0707,-5.9922e-05,0
3.0713,-7.6707e-05,0
3.0718,-7.9896e-05,0
3.0723,-7.6036e-05,0
3.0728,-7.2343e-05,0
3.0733,-6.4958e-05,0
3.0738,-5.3376e-05,0
3.0744,-3.7095e-05,0
3.0749,-1.6617e-05,0
3.0754,5.2033e-06,0
3.0759,2.4338e-05,0
3.0764,3.5248e-05,0
3.077,3.743e-05,0
3.0775,3.508e-05,0
3.078,3.1556e-05,0
3.0785,2.6352e-05,0
3.079,2.0478e-05,0
3.0796,1.5274e-05,0
3.0801,8.896e-06,0
3.0806,1.8463e-06,0
3.0811,-2.8534e-06,0
3.0816,-3.5248e-06,0
3.0822,-1.8463e-06,0
3.0827,6.714e-07,0
3.0832,6.5461e-06,0
3.0837,1.7288e-05,0
3.0842,2.5345e-05,0
3.0848,2.4674e-05,0
3.0853,2.1317e-05,0
3.0858,2.3667e-05,0
3.0863,3.122e-05,0
3.0868,4.2466e-05,0
3.0873,5.1865e-05,0
3.0879,5.2201e-05,0
3.0884,4.8173e-05,0
3.0889,4.7166e-05,0
3.0894,4.7333e-05,0
3.0899,4.4648e-05,0
3.0905,3.9109e-05,0
3.091,3.3738e-05,0
3.0915,2.8199e-05,0
3.092,2.0981e-05,0
3.0925,1.2253e-05,0
3.0931,6.5461e-06,0
3.0936,4.3641e-06,0
3.0941,4.5319e-06,0
3.0946,5.0355e-06,0
3.0951,8.5603e-06,0
3.0957,1.326e-05,0
3.0962,1.4939e-05,0
3.0967,1.1582e-05,0
3.0972,5.3712e-06,0
3.0977,-1.5106e-06,0
3.0983,-7.5532e-06,0
3.0988,-1.091e-05,0
3.0993,-1.2253e-05,0
3.0998,-8.896e-06,0
3.1003,2.8534e-06,0
3.1008,1.9638e-05,0
3.1014,3.6423e-05,0
3.1019,4.5319e-05,0
3.1024,4.1291e-05,0
3.1029,3.0381e-05,0
3.1034,2.2995e-05,0
3.104,2.6017e-05,0
3.1045,3.2731e-05,0
3.105,3.3906e-05,0
3.1055,2.7863e-05,0
3.106,1.5778e-05,0
3.1066,-2.3499e-06,0
3.1071,-1.7624e-05,0
3.1076,-1.5946e-05,0
3.1081,-3.357e-07,0
3.1086,1.5946e-05,0
3.1092,2.8031e-05,0
3.1097,3.5584e-05,0
3.1102,4.3809e-05,0
3.1107,5.1865e-05,0
3.1112,5.623e-05,0
3.1117,5.153e-05,0
3.1123,3.2059e-05,0
3.1128,8.2246e-06,0
3.1133,-4.5319e-06,0
3.1138,1.3428e-06,0
3.1143,2.1317e-05,0
3.1149,4.1291e-05,0
3.1154,5.2033e-05,0
3.1159,5.623e-05,0
3.1164,5.2537e-05,0
3.1169,3.7766e-05,0
3.1175,2.0813e-05,0
3.118,1.1917e-05,0
3.1185,1.2589e-05,0
3.119,1.6449e-05,0
3.1195,1.1246e-05,0
3.1201,-2.182e-06,0
3.1206,-1.0239e-05,0
3.1211,-2.0142e-06,0
3.1216,1.9135e-05,0
3.1221,3.9948e-05,0
3.1227,5.153e-05,0
3.1232,5.5222e-05,0
3.1237,5.9419e-05,0
3.1242,6.5461e-05,0
3.1247,7.5029e-05,0
3.1252,8.4428e-05,0
3.1258,8.6275e-05,0
3.1263,7.805e-05,0
3.1268,5.9251e-05,0
3.1273,3.8773e-05,0
3.1278,1.9974e-05,0
3.1284,0,0
3.1289,-2.3835e-05,0
3.1294,-5.153e-05,0
3.1299,-7.5868e-05,0
3.1304,-8.8792e-05,0
3.131,-8.6275e-05,0
3.1315,-7.1336e-05,0
3.132,-5.5222e-05,0
3.1325,-4.3137e-05,0
3.133,-3.0549e-05,0
3.1336,-1.7456e-05,0
3.1341,-7.7211e-06,0
3.1346,4.8676e-06,0
3.1351,2.2156e-05,0
3.1356,3.4745e-05,0
3.1362,3.7263e-05,0
3.1367,3.5416e-05,0
3.1372,3.4073e-05,0
3.1377,3.4913e-05,0
3.1382,3.9445e-05,0
3.1387,4.1123e-05,0
3.1393,3.7934e-05,0
3.1398,3.6423e-05,0
3.1403,4.062e-05,0
3.1408,4.6159e-05,0
3.1413,4.8341e-05,0
3.1419,4.0452e-05,0
3.1424,2.1317e-05,0
3.1429,5.2033e-06,0
3.1434,2.5177e-06,0
3.1439,7.8889e-06,0
3.1445,9.7353e-06,0
3.145,9.0639e-06,0
3.1455,7.0497e-06,0
3.146,2.5177e-06,0
3.1465,-4.8676e-06,0
3.1471,-9.2317e-06,0
3.1476,-2.5177e-06,0
3.1481,1.4603e-05,0
3.1486,2.9877e-05,0
3.1491,3.978e-05,0
3.1497,4.683e-05,0
3.1502,5.2705e-05,0
3.1507,5.7572e-05,0
3.1512,5.8076e-05,0
3.1517,5.1194e-05,0
3.1522,3.8437e-05,0
3.1528,2.5345e-05,0
3.1533,1.561e-05,0
3.1538,9.2317e-06,0
3.1543,5.0355e-06,0
3.1548,1.8463e-06,0
3.1554,3.8605e-06,0
3.1559,1.1917e-05,0
3.1564,1.8631e-05,0
3.1569,2.1317e-05,0
3.1574,2.2995e-05,0
3.158,2.5849e-05,0
3.1585,2.9374e-05,0
3.159,2.8367e-05,0
3.1595,2.3163e-05,0
3.16,2.0645e-05,0
3.1606,2.2995e-05,0
3.1611,2.7695e-05,0
3.1616,2.8367e-05,0
3.1621,2.4002e-05,0
3.1626,1.9974e-05,0
3.1632,2.266e-05,0
3.1637,2.8702e-05,0
3.1642,3.3234e-05,0
3.1647,3.508e-05,0
3.1652,3.6591e-05,0
3.1658,3.4409e-05,0
3.1663,2.501e-05,0
3.1668,1.326e-05,0
3.1673,5.2033e-06,0
3.1678,1.1749e-06,0
3.1683,0,0
3.1689,-3.5248e-06,0
3.1694,-9.5674e-06,0
3.1699,-1.2589e-05,0
3.1704,-1.4435e-05,0
3.1709,-1.7121e-05,0
3.1715,-1.7792e-05,0
3.172,-1.4603e-05,0
3.1725,-1.0575e-05,0
3.173,-8.896e-06,0
3.1735,-8.3925e-06,0
3.1741,-6.714e-06,0
3.1746,-1.5106e-06,0
3.1751,6.5461e-06,0
3.1756,1.6785e-05,0
3.1761,2.5681e-05,0
3.1767,2.9877e-05,0
3.1772,3.2059e-05,0
3.1777,3.2563e-05,0
3.1782,3.2059e-05,0
3.1787,3.0045e-05,0
3.1793,2.7863e-05,0
3.1798,2.7863e-05,0
3.1803,2.7863e-05,0
3.1808,2.5513e-05,0
3.1813,2.0478e-05,0
3.1818,1.0407e-05,0
3.1824,1.1749e-06,0
3.1829,4.0284e-06,0
3.1834,1.9135e-05,0
3.1839,3.5248e-05,0
3.1844,5.0019e-05,0
3.185,6.4958e-05,0
3.1855,7.5532e-05,0
3.186,7.9057e-05,0
3.1865,7.1672e-05,0
3.187,4.9348e-05,0
3.1876,2.4842e-05,0
3.1881,1.1078e-05,0
3.1886,4.3641e-06,0
3.1891,-4.1962e-06,0
3.1896,-1.4435e-05,0
3.1902,-1.4939e-05,0
3.1907,2.8534e-06,0
3.1912,3.1724e-05,0
3.1917,6.1265e-05,0
3.1922,8.1071e-05,0
3.1928,8.5435e-05,0
3.1933,7.4189e-05,0
3.1938,5.3544e-05,0
3.1943,3.4073e-05,0
3.1948,2.2995e-05,0
3.1953,1.8296e-05,0
3.1959,1.3596e-05,0
3.1964,3.0213e-06,0
3.1969,-1.4939e-05,0
3.1974,-3.4913e-05,0
3.1979,-5.1698e-05,0
3.1985,-6.3615e-05,0
3.199,-6.9657e-05,0
3.1995,-6.4118e-05,0
3.2,-4.1291e-05,0
3.2005,-1.1246e-05,0
3.2011,1.1246e-05,0
3.2016,2.501e-05,0
3.2021,3.3738e-05,0
3.2026,3.8605e-05,0
3.2031,4.2802e-05,0
3.2037,4.5487e-05,0
3.2042,4.6159e-05,0
3.2047,4.3809e-05,0
3.2052,4.2466e-05,0
3.2057,4.2802e-05,0
3.2062,4.5487e-05,0
3.2068,4.8676e-05,0
3.2073,5.2537e-05,0
3.2078,5.4719e-05,0
3.2083,4.8173e-05,0
3.2088,3.4073e-05,0
3.2094,1.9303e-05,0
3.2099,5.7069e-06,0
3.2104,-3.357e-07,0
3.2109,3.5248e-06,0
3.2114,7.8889e-06,0
3.212,6.5461e-06,0
3.2125,-6.714e-07,0
3.213,-3.5248e-06,0
3.2135,1.0071e-06,0
3.214,8.3925e-06,0
3.2146,1.4099e-05,0
3.2151,1.8296e-05,0
3.2156,2.2324e-05,0
3.2161,2.4338e-05,0
3.2166,2.4002e-05,0
3.2172,2.182e-05,0
3.2177,1.9974e-05,0
3.2182,2.5345e-05,0
3.2187,3.3402e-05,0
3.2192,3.2731e-05,0
3.2197,2.4506e-05,0
3.2203,1.5106e-05,0
3.2208,8.896e-06,0
3.2213,5.2033e-06,0
3.2218,6.2104e-06,0
3.2223,1.0575e-05,0
3.2229,1.6953e-05,0
3.2234,1.9135e-05,0
3.2239,1.6953e-05,0
3.2244,1.2085e-05,0
3.2249,9.7353e-06,0
3.2255,8.3925e-06,0
3.226,6.714e-06,0
3.2265,6.5461e-06,0
3.227,8.896e-06,0
3.2275,6.8818e-06,0
3.2281,0,0
3.2286,-8.0568e-06,0
3.2291,-9.2317e-06,0
3.2296,-1.1749e-06,0
3.2301,3.0213e-06,0
3.2307,-3.0213e-06,0
3.2312,-9.5674e-06,0
3.2317,-1.1246e-05,0
3.2322,-1.0239e-05,0
3.2327,-1.3428e-06,0
3.2332,2.1317e-05,0
3.2338,5.4047e-05,0
3.2343,8.5771e-05,0
3.2348,0.00010843,0
3.2353,0.00011867,0
3.2358,0.00011968,0
3.2364,0.00011531,0
3.2369,0.00010726,0
3.2374,9.3156e-05,0
3.2379,6.7475e-05,0
3.2384,3.4409e-05,0
3.239,5.2033e-06,0
3.2395,-1.3764e-05,0
3.24,-2.2995e-05,0
3.2405,-2.4338e-05,0
3.241,-1.8967e-05,0
3.2416,-1.2589e-05,0
3.2421,-1.5274e-05,0
3.2426,-1.7288e-05,0
3.2431,-8.2246e-06,0
3.2436,8.896e-06,0
3.2442,2.5345e-05,0
3.2447,3.9109e-05,0
3.2452,5.2537e-05,0
3.2457,6.3783e-05,0
3.2462,6.9657e-05,0
3.2468,7.1672e-05,0
3.2473,7.4357e-05,0
3.2478,7.7714e-05,0
3.2483,7.4022e-05,0
3.2488,6.1936e-05,0
3.2493,4.4816e-05,0
3.2499,2.1149e-05,0
3.2504,-7.7211e-06,0
3.2509,-3.9948e-05,0
3.2514,-6.7979e-05,0
3.2519,-8.3589e-05,0
3.2525,-8.51e-05,0
3.253,-7.3854e-05,0
3.2535,-5.5222e-05,0
3.254,-3.7766e-05,0
3.2545,-2.501e-05,0
3.2551,-1.3596e-05,0
3.2556,0,0
3.2561,1.2589e-05,0
3.2566,1.8631e-05,0
3.2571,1.6617e-05,0
3.2577,1.1078e-05,0
3.2582,8.2246e-06,0
3.2587,1.0239e-05,0
3.2592,2.0981e-05,0
3.2597,4.1291e-05,0
3.2603,6.3615e-05,0
3.2608,7.4357e-05,0
3.2613,7.3686e-05,0
3.2618,6.9657e-05,0
3.2623,6.3279e-05,0
3.2628,5.1362e-05,0
3.2634,3.7766e-05,0
3.2639,2.3667e-05,0
3.2644,8.896e-06,0
3.2649,-5.7069e-06,0
3.2654,-2.0981e-05,0
3.266,-3.6423e-05,0
3.2665,-4.6662e-05,0
3.267,-4.8508e-05,0
3.2675,-4.2466e-05,0
3.268,-3.4073e-05,0
3.2686,-2.7863e-05,0
3.2691,-2.266e-05,0
3.2696,-2.2324e-05,0
3.2701,-2.5345e-05,0
3.2706,-2.8534e-05,0
3.2712,-3.6423e-05,0
3.2717,-4.2802e-05,0
3.2722,-3.7095e-05,0
3.2727,-2.1653e-05,0
3.2732,-1.1078e-05,0
3.2738,-7.2175e-06,0
3.2743,-1.8463e-06,0
3.2748,1.1582e-05,0
3.2753,3.3738e-05,0
3.2758,6.244e-05,0
3.2763,8.6778e-05,0
3.2769,0.00010105,0
3.2774,0.00011028,0
3.2779,0.00011632,0
3.2784,0.00011095,0
3.2789,9.6178e-05,0
3.2795,8.8121e-05,0
3.28,8.7785e-05,0
3.2805,7.9225e-05,0
3.281,5.6901e-05,0
3.2815,3.3738e-05,0
3.2821,1.9974e-05,0
3.2826,1.7288e-05,0
3.2831,1.9974e-05,0
3.2836,2.2156e-05,0
3.2841,2.0478e-05,0
3.2847,1.5274e-05,0
3.2852,1.326e-05,0
3.2857,1.4939e-05,0
3.2862,1.5106e-05,0
3.2867,1.0407e-05,0
3.2872,3.1891e-06,0
3.2878,-4.8676e-06,0
3.2883,-1.1246e-05,0
3.2888,-7.5532e-06,0
3.2893,8.5603e-06,0
3.2898,2.8367e-05,0
3.2904,4.3305e-05,0
3.2909,5.3544e-05,0
3.2914,6.244e-05,0
3.2919,7.2343e-05,0
3.2924,8.3589e-05,0
3.293,9.3996e-05,0
3.2935,0.00010155,0
3.294,0.00010155,0
3.2945,9.1142e-05,0
3.295,7.4022e-05,0
3.2956,5.5558e-05,0
3.2961,3.8605e-05,0
3.2966,1.8296e-05,0
3.2971,-4.5319e-06,0
3.2976,-2.1149e-05,0
3.2982,-2.9374e-05,0
3.2987,-3.0381e-05,0
3.2992,-2.7863e-05,0
3.2997,-2.2156e-05,0
3.3002,-1.2421e-05,0
3.3007,-4.0284e-06,0
3.3013,-2.5177e-06,0
3.3018,-5.7069e-06,0
3.3023,-8.896e-06,0
3.3028,-9.7353e-06,0
3.3033,-1.1078e-05,0
3.3039,-1.4267e-05,0
3.3044,-1.6617e-05,0
3.3049,-1.4435e-05,0
3.3054,-6.8818e-06,0
3.3059,3.5248e-06,0
3.3065,1.4603e-05,0
3.307,2.7024e-05,0
3.3075,4.2802e-05,0
3.308,5.8076e-05,0
3.3085,6.4286e-05,0
3.3091,5.9922e-05,0
3.3096,4.8173e-05,0
3.3101,3.743e-05,0
3.3106,2.8702e-05,0
3.3111,2.2492e-05,0
3.3117,1.6281e-05,0
3.3122,6.3783e-06,0
3.3127,-5.0355e-06,0
3.3132,-1.3428e-05,0
3.3137,-1.9135e-05,0
3.3142,-2.5345e-05,0
3.3148,-3.4241e-05,0
3.3153,-4.2802e-05,0
3.3158,-5.0523e-05,0
3.3163,-5.7572e-05,0
3.3168,-6.0258e-05,0
3.3174,-5.5894e-05,0
3.3179,-4.7166e-05,0
3.3184,-3.8437e-05,0
3.3189,-3.0381e-05,0
3.3194,-2.182e-05,0
3.32,-1.4099e-05,0
3.3205,-1.3596e-05,0
3.321,-1.2253e-05,0
3.3215,-2.8534e-06,0
3.322,1.326e-05,0
3.3226,3.0716e-05,0
3.3231,4.3473e-05,0
3.3236,4.8005e-05,0
3.3241,4.213e-05,0
3.3246,3.3738e-05,0
3.3252,3.1724e-05,0
3.3257,3.0884e-05,0
3.3262,2.9877e-05,0
3.3267,3.0716e-05,0
3.3272,3.4241e-05,0
3.3277,3.978e-05,0
3.3283,4.9348e-05,0
3.3288,6.2104e-05,0
3.3293,7.7714e-05,0
3.3298,9.5171e-05,0
3.3303,0.0001039,0
3.3309,0.00010323,0
3.3314,9.7688e-05,0
3.3319,8.7449e-05,0
3.3324,7.5868e-05,0
3.3329,6.2608e-05,0
3.3335,4.1962e-05,0
3.334,1.8463e-05,0
3.3345,4.5319e-06,0
3.335,2.182e-06,0
3.3355,6.2104e-06,0
3.3361,1.4939e-05,0
3.3366,2.6688e-05,0
3.3371,3.3402e-05,0
3.3376,2.9038e-05,0
3.3381,1.8296e-05,0
3.3387,1.0575e-05,0
3.3392,5.0355e-06,0
3.3397,4.8676e-06,0
3.3402,1.6281e-05,0
3.3407,3.1556e-05,0
3.3413,3.8437e-05,0
3.3418,3.4409e-05,0
3.3423,2.0645e-05,0
3.3428,2.0142e-06,0
3.3433,-1.3931e-05,0
3.3438,-2.4842e-05,0
3.3444,-3.0213e-05,0
3.3449,-3.0549e-05,0
3.3454,-2.8031e-05,0
3.3459,-1.8967e-05,0
3.3464,-4.3641e-06,0
3.347,6.0426e-06,0
3.3475,9.7353e-06,0
3.348,1.4939e-05,0
3.3485,2.6688e-05,0
3.349,4.062e-05,0
3.3496,4.4648e-05,0
3.3501,3.5416e-05,0
3.3506,2.5345e-05,0
3.3511,2.4002e-05,0
3.3516,2.9038e-05,0
3.3522,3.6088e-05,0
3.3527,4.3305e-05,0
3.3532,5.0858e-05,0
3.3537,5.8244e-05,0
3.3542,6.2272e-05,0
3.3548,6.2104e-05,0
3.3553,5.8412e-05,0
3.3558,5.069e-05,0
3.3563,4.1459e-05,0
3.3568,3.2563e-05,0
3.3573,2.4002e-05,0
3.3579,1.5946e-05,0
3.3584,1.2253e-05,0
3.3589,1.4435e-05,0
3.3594,2.1317e-05,0
3.3599,2.7695e-05,0
3.3605,2.8031e-05,0
3.361,2.4506e-05,0
3.3615,2.2324e-05,0
3.362,2.1653e-05,0
3.3625,1.9638e-05,0
3.3631,1.3092e-05,0
3.3636,1.1749e-06,0
3.3641,-1.3764e-05,0
3.3646,-2.5681e-05,0
3.3651,-2.9374e-05,0
3.3657,-2.9374e-05,0
3.3662,-3.2731e-05,0
3.3667,-3.4409e-05,0
3.3672,-3.2395e-05,0
3.3677,-3.1052e-05,0
3.3683,-3.6927e-05,0
3.3688,-5.0187e-05,0
3.3693,-6.1097e-05,0
3.3698,-5.7237e-05,0
3.3703,-3.8102e-05,0
3.3708,-1.5106e-05,0
3.3714,-1.6785e-07,0
3.3719,6.714e-06,0
3.3724,1.1246e-05,0
3.3729,1.9135e-05,0
3.3734,3.2395e-05,0
3.374,5.3376e-05,0
3.3745,7.6707e-05,0
3.375,8.7114e-05,0
3.3755,8.0735e-05,0
3.376,6.5629e-05,0
3.3766,4.9516e-05,0
3.3771,3.6927e-05,0
3.3776,3.122e-05,0
3.3781,3.2059e-05,0
3.3786,3.6088e-05,0
3.3792,3.508e-05,0
3.3797,2.6688e-05,0
3.3802,1.7624e-05,0
3.3807,9.7353e-06,0
3.3812,1.1749e-06,0
3.3817,-7.5532e-06,0
3.3823,-1.2589e-05,0
3.3828,-1.091e-05,0
3.3833,-6.2104e-06,0
3.3838,-1.1749e-06,0
3.3843,8.0568e-06,0
3.3849,2.1317e-05,0
3.3854,3.6088e-05,0
3.3859,4.8844e-05,0
3.3864,5.7572e-05,0
3.3869,6.3615e-05,0
3.3875,6.8986e-05,0
3.388,7.57e-05,0
3.3885,7.9728e-05,0
3.389,7.1336e-05,0
3.3895,5.5222e-05,0
3.3901,4.062e-05,0
3.3906,3.4577e-05,0
3.3911,3.9445e-05,0
3.3916,4.8844e-05,0
3.3921,5.2873e-05,0
3.3927,4.5991e-05,0
3.3932,3.2731e-05,0
3.3937,1.8296e-05,0
3.3942,5.0355e-06,0
3.3947,-1.6785e-06,0
3.3952,1.1749e-06,0
3.3958,7.5532e-06,0
3.3963,1.4099e-05,0
3.3968,2.0478e-05,0
3.3973,2.7024e-05,0
3.3978,3.4073e-05,0
3.3984,4.1291e-05,0
3.3989,4.6494e-05,0
3.3994,4.9348e-05,0
3.3999,4.6159e-05,0
3.4004,3.743e-05,0
3.401,2.3835e-05,0
3.4015,1.8463e-06,0
3.402,-2.1653e-05,0
3.4025,-3.827e-05,0
3.403,-4.3305e-05,0
3.4036,-3.4745e-05,0
3.4041,-1.7456e-05,0
3.4046,5.0355e-06,0
3.4051,2.5849e-05,0
3.4056,3.7766e-05,0
3.4062,4.3641e-05,0
3.4067,4.9516e-05,0
3.4072,5.0858e-05,0
3.4077,3.9445e-05,0
3.4082,1.7288e-05,0
3.4087,-1.8463e-06,0
3.4093,-9.9031e-06,0
3.4098,-1.2924e-05,0
3.4103,-1.8967e-05,0
3.4108,-2.2995e-05,0
3.4113,-2.1149e-05,0
3.4119,-1.5778e-05,0
3.4124,-1.091e-05,0
3.4129,-3.5248e-06,0
3.4134,8.0568e-06,0
3.4139,1.8967e-05,0
3.4145,2.3163e-05,0
3.415,1.1749e-05,0
3.4155,-1.326e-05,0
3.416,-3.6423e-05,0
3.4165,-5.3208e-05,0
3.4171,-6.9993e-05,0
3.4176,-8.0064e-05,0
3.4181,-7.3014e-05,0
3.4186,-5.2201e-05,0
3.4191,-2.5345e-05,0
3.4197,3.8605e-06,0
3.4202,3.0045e-05,0
3.4207,4.8005e-05,0
3.4212,6.0594e-05,0
3.4217,7.1e-05,0
3.4223,8.0735e-05,0
3.4228,8.8792e-05,0
3.4233,8.7114e-05,0
3.4238,7.1839e-05,0
3.4243,5.0187e-05,0
3.4248,3.3402e-05,0
3.4254,2.6688e-05,0
3.4259,2.8702e-05,0
3.4264,3.6423e-05,0
3.4269,3.9948e-05,0
3.4274,3.3402e-05,0
3.428,2.1317e-05,0
3.4285,1.0575e-05,0
3.429,3.0213e-06,0
3.4295,5.0355e-07,0
3.43,7.5532e-06,0
3.4306,1.7624e-05,0
3.4311,1.9135e-05,0
3.4316,1.2589e-05,0
3.4321,1.1582e-05,0
3.4326,2.4674e-05,0
3.4332,4.3137e-05,0
3.4337,5.4551e-05,0
3.4342,5.7404e-05,0
3.4347,5.8915e-05,0
3.4352,6.1601e-05,0
3.4358,6.8315e-05,0
3.4363,7.2343e-05,0
3.4368,7.2007e-05,0
3.4373,7.2679e-05,0
3.4378,7.6371e-05,0
3.4383,7.6204e-05,0
3.4389,6.3951e-05,0
3.4394,4.7333e-05,0
3.4399,3.3402e-05,0
3.4404,2.2995e-05,0
3.4409,1.2589e-05,0
3.4415,5.0355e-07,0
3.442,-9.5674e-06,0
3.4425,-1.5274e-05,0
3.443,-1.9303e-05,0
3.4435,-2.5177e-05,0
3.4441,-3.2227e-05,0
3.4446,-3.6423e-05,0
3.4451,-3.508e-05,0
3.4456,-3.2227e-05,0
3.4461,-3.0716e-05,0
3.4467,-3.1556e-05,0
3.4472,-3.0213e-05,0
3.4477,-2.2995e-05,0
3.4482,-1.2253e-05,0
3.4487,-2.8534e-06,0
3.4493,7.0497e-06,0
3.4498,1.7624e-05,0
3.4503,2.6017e-05,0
3.4508,2.9877e-05,0
3.4513,3.4409e-05,0
3.4518,4.1123e-05,0
3.4524,5.2033e-05,0
3.4529,6.5965e-05,0
3.4534,7.9057e-05,0
3.4539,8.6442e-05,0
3.4544,8.661e-05,0
3.455,8.1239e-05,0
3.4555,7.5364e-05,0
3.456,6.8482e-05,0
3.4565,5.8579e-05,0
3.457,4.0787e-05,0
3.4576,1.9974e-05,0
3.4581,5.2033e-06,0
3.4586,-3.357e-06,0
3.4591,-9.9031e-06,0
3.4596,-2.031e-05,0
3.4602,-3.4745e-05,0
3.4607,-4.5487e-05,0
3.4612,-4.3641e-05,0
3.4617,-2.4674e-05,0
3.4622,7.2175e-06,0
3.4628,3.978e-05,0
3.4633,6.1936e-05,0
3.4638,7.3014e-05,0
3.4643,7.5364e-05,0
3.4648,6.7475e-05,0
3.4653,5.4887e-05,0
3.4659,4.2466e-05,0
3.4664,2.266e-05,0
3.4669,-1.0239e-05,0
3.4674,-5.0187e-05,0
3.4679,-8.8792e-05,0
3.4685,-0.00011263,0
3.469,-0.00011128,0
3.4695,-9.6849e-05,0
3.47,-7.9728e-05,0
3.4705,-5.388e-05,0
3.4711,-1.796e-05,0
3.4716,1.6953e-05,0
3.4721,4.1962e-05,0
3.4726,6.2943e-05,0
3.4731,8.5267e-05,0
3.4737,9.7688e-05,0
3.4742,9.7856e-05,0
3.4747,9.6849e-05,0
3.4752,9.5003e-05,0
3.4757,8.4764e-05,0
3.4762,6.4958e-05,0
3.4768,3.6927e-05,0
3.4773,5.2033e-06,0
3.4778,-2.0645e-05,0
3.4783,-3.3234e-05,0
3.4788,-3.9277e-05,0
3.4794,-4.1291e-05,0
3.4799,-2.9877e-05,0
3.4804,8.896e-06,0
3.4809,6.2943e-05,0
3.4814,0.00010172,0
3.482,0.00011397,0
3.4825,0.0001039,0
3.483,8.1407e-05,0
3.4835,6.6636e-05,0
3.484,7.0497e-05,0
3.4846,8.8121e-05,0
3.4851,0.00010172,0
3.4856,9.752e-05,0
3.4861,6.949e-05,0
3.4866,2.5345e-05,0
3.4872,-1.2421e-05,0
3.4877,-3.0045e-05,0
3.4882,-3.6088e-05,0
3.4887,-3.5752e-05,0
3.4892,-3.3906e-05,0
3.4897,-3.827e-05,0
3.4903,-4.683e-05,0
3.4908,-5.2705e-05,0
3.4913,-6.1433e-05,0
3.4918,-7.4357e-05,0
3.4923,-8.51e-05,0
3.4929,-8.8121e-05,0
3.4934,-7.7546e-05,0
3.4939,-5.4551e-05,0
3.4944,-2.3499e-05,0
3.4949,2.182e-06,0
3.4955,1.6617e-05,0
3.496,3.5752e-05,0
3.4965,6.63e-05,0
3.497,9.2485e-05,0
3.4975,0.00010373,0
3.4981,0.00010323,0
3.4986,9.4499e-05,0
3.4991,7.6371e-05,0
3.4996,5.2873e-05,0
3.5001,3.3066e-05,0
3.5007,2.266e-05,0
3.5012,2.2492e-05,0
3.5017,2.6017e-05,0
3.5022,1.8631e-05,0
3.5027,-4.5319e-06,0
3.5032,-3.4745e-05,0
3.5038,-5.8915e-05,0
3.5043,-6.9993e-05,0
3.5048,-6.9322e-05,0
3.5053,-6.1936e-05,0
3.5058,-5.623e-05,0
3.5064,-5.7572e-05,0
3.5069,-5.9922e-05,0
3.5074,-4.5151e-05,0
3.5079,-1.3931e-05,0
3.5084,1.1246e-05,0
3.509,2.5345e-05,0
3.5095,3.7263e-05,0
3.51,4.8676e-05,0
3.5105,5.5558e-05,0
3.511,5.5726e-05,0
3.5116,5.1698e-05,0
3.5121,4.8173e-05,0
3.5126,4.3809e-05,0
3.5131,3.6088e-05,0
3.5136,2.5345e-05,0
3.5142,1.8631e-05,0
3.5147,2.5177e-05,0
3.5152,3.6759e-05,0
3.5157,4.0452e-05,0
3.5162,3.9948e-05,0
3.5168,4.2802e-05,0
3.5173,4.8844e-05,0
3.5178,5.6062e-05,0
3.5183,6.5126e-05,0
3.5188,7.57e-05,0
3.5193,8.7114e-05,0
3.5199,9.8695e-05,0
3.5204,9.9535e-05,0
3.5209,8.5603e-05,0
3.5214,6.63e-05,0
3.5219,4.4144e-05,0
3.5225,2.7192e-05,0
3.523,2.2492e-05,0
3.5235,2.4002e-05,0
3.524,2.1988e-05,0
3.5245,1.2085e-05,0
3.5251,2.5177e-06,0
3.5256,4.8676e-06,0
3.5261,1.7288e-05,0
3.5266,2.9877e-05,0
3.5271,3.8773e-05,0
3.5277,4.2634e-05,0
3.5282,3.7934e-05,0
3.5287,2.5177e-05,0
3.5292,1.0575e-05,0
3.5297,5.8747e-06,0
3.5303,1.326e-05,0
3.5308,2.3331e-05,0
3.5313,2.8031e-05,0
3.5318,2.417e-05,0
3.5323,1.3764e-05,0
3.5328,5.2033e-06,0
3.5334,1.8463e-06,0
3.5339,5.0355e-07,0
3.5344,-3.8605e-06,0
3.5349,-1.091e-05,0
3.5354,-1.7288e-05,0
3.536,-1.5946e-05,0
3.5365,-8.3925e-07,0
3.537,2.0645e-05,0
3.5375,3.592e-05,0
3.538,3.8102e-05,0
3.5386,3.3402e-05,0
3.5391,3.2059e-05,0
3.5396,3.9445e-05,0
3.5401,5.2369e-05,0
3.5406,6.4622e-05,0
3.5412,6.8315e-05,0
3.5417,5.5726e-05,0
3.5422,3.5752e-05,0
3.5427,2.0142e-05,0
3.5432,1.6281e-05,0
3.5438,2.031e-05,0
3.5443,2.6688e-05,0
3.5448,3.4409e-05,0
3.5453,4.1291e-05,0
3.5458,4.2466e-05,0
3.5463,3.6591e-05,0
3.5469,2.652e-05,0
3.5474,1.1078e-05,0
3.5479,-9.7353e-06,0
3.5484,-2.4506e-05,0
3.5489,-2.2995e-05,0
3.5495,-1.326e-05,0
3.55,-5.539e-06,0
3.5505,4.8676e-06,0
3.551,1.7792e-05,0
3.5515,2.2995e-05,0
3.5521,1.1749e-05,0
3.5526,-7.8889e-06,0
3.5531,-1.7121e-05,0
3.5536,-1.3596e-05,0
3.5541,-9.3996e-06,0
3.5547,-9.5674e-06,0
3.5552,-1.2924e-05,0
3.5557,-1.6953e-05,0
3.5562,-2.2995e-05,0
3.5567,-2.6688e-05,0
3.5572,-2.1485e-05,0
3.5578,-1.4603e-05,0
3.5583,-1.561e-05,0
3.5588,-2.0981e-05,0
3.5593,-2.5513e-05,0
3.5598,-2.5681e-05,0
3.5604,-1.8128e-05,0
3.5609,-3.357e-06,0
3.5614,1.0575e-05,0
3.5619,1.9974e-05,0
3.5624,2.7695e-05,0
3.563,3.6591e-05,0
3.5635,4.4648e-05,0
3.564,4.8173e-05,0
3.5645,4.7333e-05,0
3.565,4.6662e-05,0
3.5656,4.5151e-05,0
3.5661,3.743e-05,0
3.5666,2.6688e-05,0
3.5671,2.2492e-05,0
3.5676,2.6017e-05,0
3.5682,3.4745e-05,0
3.5687,4.5487e-05,0
3.5692,5.6565e-05,0
3.5697,6.6468e-05,0
3.5702,7.0329e-05,0
3.5707,6.0929e-05,0
3.5713,4.5487e-05,0
3.5718,3.7766e-05,0
3.5723,3.508e-05,0
3.5728,2.8031e-05,0
3.5733,1.9135e-05,0
3.5739,1.561e-05,0
3.5744,1.2589e-05,0
3.5749,5.7069e-06,0
3.5754,1.1749e-06,0
3.5759,1.8463e-06,0
3.5765,7.8889e-06,0
3.577,1.796e-05,0
3.5775,1.9303e-05,0
3.578,8.5603e-06,0
3.5785,-3.357e-06,0
3.5791,-3.1891e-06,0
3.5796,8.5603e-06,0
3.5801,1.8631e-05,0
3.5806,2.2324e-05,0
3.5811,3.2059e-05,0
3.5817,5.304e-05,0
3.5822,6.8986e-05,0
3.5827,6.4286e-05,0
3.5832,3.9109e-05,0
3.5837,-8.3925e-07,0
3.5842,-3.4577e-05,0
3.5848,-4.2466e-05,0
3.5853,-2.7863e-05,0
3.5858,-9.9031e-06,0
3.5863,3.1891e-06,0
3.5868,1.2589e-05,0
3.5874,2.1317e-05,0
3.5879,3.2395e-05,0
3.5884,4.7837e-05,0
3.5889,6.6636e-05,0
3.5894,8.3421e-05,0
3.59,8.9799e-05,0
3.5905,7.4525e-05,0
3.591,4.0955e-05,0
3.5915,-1.0071e-06,0
3.592,-3.508e-05,0
3.5926,-5.2201e-05,0
3.5931,-5.5222e-05,0
3.5936,-4.5823e-05,0
3.5941,-2.4674e-05,0
3.5946,-5.0355e-07,0
3.5952,1.5274e-05,0
3.5957,1.8128e-05,0
3.5962,1.6617e-05,0
3.5967,2.7359e-05,0
3.5972,4.7333e-05,0
3.5978,6.6468e-05,0
3.5983,8.1407e-05,0
3.5988,9.6178e-05,0
3.5993,0.00010524,0
3.5998,0.00010188,0
3.6003,9.0974e-05,0
3.6009,7.7379e-05,0
3.6014,5.8915e-05,0
3.6019,3.6759e-05,0
3.6024,1.8463e-05,0
3.6029,8.896e-06,0
3.6035,1.5106e-06,0
3.604,-8.7282e-06,0
3.6045,-1.8631e-05,0
3.605,-2.7192e-05,0
3.6055,-3.3234e-05,0
3.6061,-3.8102e-05,0
3.6066,-4.4144e-05,0
3.6071,-4.8005e-05,0
3.6076,-4.3977e-05,0
3.6081,-3.0213e-05,0
3.6087,-1.1917e-05,0
3.6092,-1.6785e-06,0
3.6097,-5.539e-06,0
3.6102,-1.8296e-05,0
3.6107,-3.4409e-05,0
3.6113,-5.2705e-05,0
3.6118,-7.4357e-05,0
3.6123,-7.8721e-05,0
3.6128,-5.4047e-05,0
3.6133,-1.4603e-05,0
3.6138,2.031e-05,0
3.6144,4.5487e-05,0
3.6149,6.244e-05,0
3.6154,7.5029e-05,0
3.6159,8.4764e-05,0
3.6164,9.1142e-05,0
3.617,9.4163e-05,0
3.6175,9.3828e-05,0
3.618,8.8457e-05,0
3.6185,7.335e-05,0
3.619,4.4144e-05,0
3.6196,1.2924e-05,0
3.6201,-7.5532e-06,0
3.6206,-1.8128e-05,0
3.6211,-2.7695e-05,0
3.6216,-3.4409e-05,0
3.6222,-3.978e-05,0
3.6227,-4.8508e-05,0
3.6232,-4.9516e-05,0
3.6237,-2.9709e-05,0
3.6242,5.539e-06,0
3.6248,3.978e-05,0
3.6253,6.4286e-05,0
3.6258,7.6371e-05,0
3.6263,7.2511e-05,0
3.6268,6.3615e-05,0
3.6273,6.4118e-05,0
3.6279,7.3686e-05,0
3.6284,8.191e-05,0
3.6289,8.2246e-05,0
3.6294,7.4693e-05,0
3.6299,5.6733e-05,0
3.6305,3.592e-05,0
3.631,2.0813e-05,0
3.6315,1.6617e-05,0
3.632,1.8799e-05,0
3.6325,2.0981e-05,0
3.6331,2.2324e-05,0
3.6336,2.4338e-05,0
3.6341,3.2059e-05,0
3.6346,4.8173e-05,0
3.6351,6.63e-05,0
3.6357,7.9057e-05,0
3.6362,8.1071e-05,0
3.6367,7.1672e-05,0
3.6372,5.3544e-05,0
3.6377,3.0716e-05,0
3.6383,2.1149e-05,0
3.6388,3.3906e-05,0
3.6393,6.0258e-05,0
3.6398,7.7714e-05,0
3.6403,6.7643e-05,0
3.6408,3.9109e-05,0
3.6414,1.2757e-05,0
3.6419,-5.2033e-06,0
3.6424,-1.8967e-05,0
3.6429,-2.8367e-05,0
3.6434,-3.8437e-05,0
3.644,-5.388e-05,0
3.6445,-7.335e-05,0
3.645,-9.1646e-05,0
3.6455,-9.6849e-05,0
3.646,-7.8386e-05,0
3.6466,-4.7501e-05,0
3.6471,-2.5513e-05,0
3.6476,-1.5106e-05,0
3.6481,-7.8889e-06,0
3.6486,-1.8463e-06,0
3.6492,-1.0071e-06,0
3.6497,-6.2104e-06,0
3.6502,-1.1078e-05,0
3.6507,-1.0239e-05,0
3.6512,-6.2104e-06,0
3.6517,-5.0355e-06,0
3.6523,-7.3854e-06,0
3.6528,-6.2104e-06,0
3.6533,5.0355e-07,0
3.6538,5.0355e-06,0
3.6543,5.0355e-07,0
3.6549,-8.3925e-07,0
3.6554,1.3092e-05,0
3.6559,3.0716e-05,0
3.6564,3.4745e-05,0
3.6569,2.8702e-05,0
3.6575,2.0981e-05,0
3.658,9.9031e-06,0
3.6585,0,0
3.659,2.5177e-06,0
3.6595,1.6785e-05,0
3.6601,3.4073e-05,0
3.6606,4.8508e-05,0
3.6611,5.4887e-05,0
3.6616,5.4551e-05,0
3.6621,5.3544e-05,0
3.6627,4.683e-05,0
3.6632,3.1052e-05,0
3.6637,1.8296e-05,0
3.6642,1.561e-05,0
3.6647,2.5681e-05,0
3.6652,4.0787e-05,0
3.6658,5.1026e-05,0
3.6663,5.3544e-05,0
3.6668,5.2873e-05,0
3.6673,5.069e-05,0
3.6678,4.3473e-05,0
3.6684,3.0549e-05,0
3.6689,1.9638e-05,0
3.6694,1.5778e-05,0
3.6699,9.5674e-06,0
3.6704,-4.1962e-06,0
3.671,-1.561e-05,0
3.6715,-1.2421e-05,0
3.672,2.0142e-06,0
3.6725,2.1317e-05,0
3.673,4.0787e-05,0
3.6736,5.7069e-05,0
3.6741,7.3014e-05,0
3.6746,9.1646e-05,0
3.6751,0.00010474,0
3.6756,0.00010323,0
3.6762,9.2485e-05,0
3.6767,8.5435e-05,0
3.6772,7.57e-05,0
3.6777,5.2201e-05,0
3.6782,1.9638e-05,0
3.6787,-8.896e-06,0
3.6793,-2.9038e-05,0
3.6798,-4.4648e-05,0
3.6803,-5.8579e-05,0
3.6808,-6.7308e-05,0
3.6813,-6.7811e-05,0
3.6819,-5.6565e-05,0
3.6824,-3.508e-05,0
3.6829,-8.5603e-06,0
3.6834,1.5274e-05,0
3.6839,3.2731e-05,0
3.6845,4.8173e-05,0
3.685,6.7308e-05,0
3.6855,8.7282e-05,0
3.686,0.00010457,0
3.6865,0.00011733,0
3.6871,0.00012068,0
3.6876,0.00010726,0
3.6881,8.0064e-05,0
3.6886,4.8676e-05,0
3.6891,2.4674e-05,0
3.6897,1.1582e-05,0
3.6902,5.2033e-06,0
3.6907,-6.3783e-06,0
3.6912,-2.5681e-05,0
3.6917,-4.4144e-05,0
3.6923,-5.1865e-05,0
3.6928,-4.2466e-05,0
3.6933,-2.6352e-05,0
3.6938,-1.8296e-05,0
3.6943,-2.0813e-05,0
3.6948,-2.6017e-05,0
3.6954,-2.417e-05,0
3.6959,-1.4939e-05,0
3.6964,-1.1749e-06,0
3.6969,1.4603e-05,0
3.6974,2.6184e-05,0
3.698,3.2059e-05,0
3.6985,3.508e-05,0
3.699,3.6759e-05,0
3.6995,3.4073e-05,0
3.7,2.9709e-05,0
3.7006,2.7359e-05,0
3.7011,1.6785e-05,0
3.7016,-8.2246e-06,0
3.7021,-3.2059e-05,0
3.7026,-4.062e-05,0
3.7032,-3.6423e-05,0
3.7037,-2.8367e-05,0
3.7042,-2.4338e-05,0
3.7047,-2.2324e-05,0
3.7052,-1.4939e-05,0
3.7058,-3.8605e-06,0
3.7063,7.8889e-06,0
3.7068,2.4674e-05,0
3.7073,4.4144e-05,0
3.7078,5.539e-05,0
3.7083,5.539e-05,0
3.7089,5.4551e-05,0
3.7094,6.0929e-05,0
3.7099,6.9322e-05,0
3.7104,7.335e-05,0
3.7109,6.9657e-05,0
3.7115,5.9754e-05,0
3.712,5.4887e-05,0
3.7125,5.7908e-05,0
3.713,5.9586e-05,0
3.7135,5.9251e-05,0
3.7141,6.7475e-05,0
3.7146,8.0232e-05,0
3.7151,8.51e-05,0
3.7156,7.2679e-05,0
3.7161,4.5823e-05,0
3.7167,1.7792e-05,0
3.7172,-4.1962e-06,0
3.7177,-2.4506e-05,0
3.7182,-3.9445e-05,0
3.7187,-3.9445e-05,0
3.7193,-2.4002e-05,0
3.7198,-6.0426e-06,0
3.7203,3.1891e-06,0
3.7208,1.1749e-06,0
3.7213,-9.9031e-06,0
3.7218,-2.2492e-05,0
3.7224,-2.8534e-05,0
3.7229,-2.5681e-05,0
3.7234,-1.4939e-05,0
3.7239,-7.5532e-06,0
3.7244,-9.7353e-06,0
3.725,-1.4771e-05,0
3.7255,-1.4939e-05,0
3.726,-1.4603e-05,0
3.7265,-1.8631e-05,0
3.727,-2.1149e-05,0
3.7276,-1.7288e-05,0
3.7281,-9.2317e-06,0
3.7286,-5.539e-06,0
3.7291,-6.8818e-06,0
3.7296,-7.8889e-06,0
3.7302,-5.7069e-06,0
3.7307,1.8463e-06,0
3.7312,1.3931e-05,0
3.7317,2.5177e-05,0
3.7322,3.2395e-05,0
3.7327,3.5416e-05,0
3.7333,3.3402e-05,0
3.7338,2.8367e-05,0
3.7343,2.4002e-05,0
3.7348,2.4338e-05,0
3.7353,2.9374e-05,0
3.7359,3.7934e-05,0
3.7364,4.5487e-05,0
3.7369,4.918e-05,0
3.7374,4.8844e-05,0
3.7379,4.8508e-05,0
3.7385,4.7501e-05,0
3.739,4.8173e-05,0
3.7395,5.388e-05,0
3.74,6.3951e-05,0
3.7405,7.5029e-05,0
3.7411,8.0064e-05,0
3.7416,7.3518e-05,0
3.7421,6.244e-05,0
3.7426,5.4887e-05,0
3.7431,5.0355e-05,0
3.7437,4.3473e-05,0
3.7442,3.3738e-05,0
3.7447,2.4338e-05,0
3.7452,1.7456e-05,0
3.7457,8.896e-06,0
3.7462,1.6785e-07,0
3.7468,-6.8818e-06,0
3.7473,-1.4099e-05,0
3.7478,-2.0813e-05,0
3.7483,-2.266e-05,0
3.7488,-2.2156e-05,0
3.7494,-2.3667e-05,0
3.7499,-2.7527e-05,0
3.7504,-2.9374e-05,0
3.7509,-2.182e-05,0
3.7514,-7.3854e-06,0
3.752,1.0575e-05,0
3.7525,3.4073e-05,0
3.753,5.4215e-05,0
3.7535,6.1097e-05,0
3.754,6.1265e-05,0
3.7546,6.7308e-05,0
3.7551,8.1743e-05,0
3.7556,9.5506e-05,0
3.7561,9.6178e-05,0
3.7566,8.0735e-05,0
3.7572,5.2705e-05,0
3.7577,2.2156e-05,0
3.7582,-2.182e-06,0
3.7587,-1.796e-05,0
3.7592,-1.6281e-05,0
3.7597,6.2104e-06,0
3.7603,2.4674e-05,0
3.7608,2.182e-05,0
3.7613,9.7353e-06,0
3.7618,1.0575e-05,0
3.7623,2.4002e-05,0
3.7629,3.2059e-05,0
3.7634,2.4674e-05,0
3.7639,1.3092e-05,0
3.7644,1.0407e-05,0
3.7649,1.3092e-05,0
3.7655,1.1917e-05,0
3.766,1.2589e-05,0
3.7665,2.652e-05,0
3.767,4.6159e-05,0
3.7675,5.6901e-05,0
3.7681,5.9419e-05,0
3.7686,6.1936e-05,0
3.7691,6.5293e-05,0
3.7696,6.5126e-05,0
3.7701,5.5222e-05,0
3.7707,3.3738e-05,0
3.7712,5.0355e-07,0
3.7717,-3.7095e-05,0
3.7722,-6.63e-05,0
3.7727,-7.8889e-05,0
3.7732,-7.6036e-05,0
3.7738,-6.6636e-05,0
3.7743,-6.5461e-05,0
3.7748,-7.1672e-05,0
3.7753,-7.5364e-05,0
3.7758,-6.9322e-05,0
3.7764,-5.6565e-05,0
3.7769,-4.3809e-05,0
3.7774,-3.3738e-05,0
3.7779,-2.031e-05,0
3.7784,-2.8534e-06,0
3.779,1.326e-05,0
3.7795,2.7192e-05,0
3.78,3.978e-05,0
3.7805,4.9516e-05,0
3.781,5.7237e-05,0
3.7816,5.9586e-05,0
3.7821,5.1698e-05,0
3.7826,3.5584e-05,0
3.7831,2.5345e-05,0
3.7836,2.3835e-05,0
3.7842,2.182e-05,0
3.7847,1.2085e-05,0
3.7852,1.1749e-06,0
3.7857,-5.0355e-07,0
3.7862,6.2104e-06,0
3.7868,1.796e-05,0
3.7873,3.2731e-05,0
3.7878,4.6159e-05,0
3.7883,5.2873e-05,0
3.7888,5.0019e-05,0
3.7893,3.9612e-05,0
3.7899,3.1556e-05,0
3.7904,3.1052e-05,0
3.7909,3.3402e-05,0
3.7914,3.2059e-05,0
3.7919,2.9709e-05,0
3.7925,3.0549e-05,0
3.793,3.5584e-05,0
3.7935,4.2466e-05,0
3.794,4.8005e-05,0
3.7945,5.4719e-05,0
3.7951,6.4118e-05,0
3.7956,7.1336e-05,0
3.7961,6.8818e-05,0
3.7966,5.3376e-05,0
3.7971,3.1388e-05,0
3.7977,1.7288e-05,0
3.7982,1.3931e-05,0
3.7987,1.4939e-05,0
3.7992,1.6785e-05,0
3.7997,2.2156e-05,0
3.8003,3.2731e-05,0
3.8008,4.5487e-05,0
3.8013,5.7404e-05,0
3.8018,6.6636e-05,0
3.8023,7.5029e-05,0
3.8028,8.1743e-05,0
3.8034,8.1743e-05,0
3.8039,7.3518e-05,0
3.8044,5.8412e-05,0
3.8049,4.1123e-05,0
3.8054,1.8631e-05,0
3.806,-1.5442e-05,0
3.8065,-4.7669e-05,0
3.807,-6.3447e-05,0
3.8075,-5.623e-05,0
3.808,-3.592e-05,0
3.8086,-2.0645e-05,0
3.8091,-1.4435e-05,0
3.8096,-9.7353e-06,0
3.8101,-1.1749e-06,0
3.8106,9.2317e-06,0
3.8112,1.5442e-05,0
3.8117,1.6953e-05,0
3.8122,1.3931e-05,0
3.8127,5.7069e-06,0
3.8132,-5.539e-06,0
3.8138,-8.3925e-06,0
3.8143,2.8534e-06,0
3.8148,2.1317e-05,0
3.8153,2.9374e-05,0
3.8158,2.5177e-05,0
3.8163,2.3331e-05,0
3.8169,2.9877e-05,0
3.8174,3.743e-05,0
3.8179,3.8605e-05,0
3.8184,3.4577e-05,0
3.8189,2.9374e-05,0
3.8195,2.0645e-05,0
3.82,4.1962e-06,0
3.8205,-1.2757e-05,0
3.821,-2.3499e-05,0
3.8215,-2.7527e-05,0
3.8221,-2.652e-05,0
3.8226,-2.3667e-05,0
3.8231,-2.1653e-05,0
3.8236,-2.0645e-05,0
3.8241,-1.4603e-05,0
3.8247,-1.8463e-06,0
3.8252,1.0575e-05,0
3.8257,1.6617e-05,0
3.8262,1.5946e-05,0
3.8267,1.4267e-05,0
3.8272,1.5442e-05,0
3.8278,1.7121e-05,0
3.8283,1.6281e-05,0
3.8288,1.2589e-05,0
3.8293,9.9031e-06,0
3.8298,7.8889e-06,0
3.8304,7.8889e-06,0
3.8309,1.1582e-05,0
3.8314,1.9135e-05,0
3.8319,3.0549e-05,0
3.8324,4.8508e-05,0
3.833,7.4022e-05,0
3.8335,9.4835e-05,0
3.834,9.8527e-05,0
3.8345,8.661e-05,0
3.835,7.2847e-05,0
3.8356,6.63e-05,0
3.8361,6.3951e-05,0
3.8366,6.1936e-05,0
3.8371,5.623e-05,0
3.8376,4.1459e-05,0
3.8382,1.7624e-05,0
3.8387,-4.1962e-06,0
3.8392,-1.5274e-05,0
3.8397,-1.6449e-05,0
3.8402,-1.2924e-05,0
3.8407,-1.6281e-05,0
3.8413,-3.2898e-05,0
3.8418,-5.539e-05,0
3.8423,-6.714e-05,0
3.8428,-6.1601e-05,0
3.8433,-4.213e-05,0
3.8439,-1.326e-05,0
3.8444,1.796e-05,0
3.8449,4.2466e-05,0
3.8454,5.3544e-05,0
3.8459,5.5726e-05,0
3.8465,6.63e-05,0
3.847,9.2485e-05,0
3.8475,0.000118,0
3.848,0.00011917,0
3.8485,9.6513e-05,0
3.8491,6.6972e-05,0
3.8496,4.213e-05,0
3.8501,2.2995e-05,0
3.8506,7.3854e-06,0
3.8511,-9.5674e-06,0
3.8517,-3.1052e-05,0
3.8522,-5.1194e-05,0
3.8527,-5.9251e-05,0
3.8532,-5.2705e-05,0
3.8537,-3.4745e-05,0
3.8542,-8.2246e-06,0
3.8548,1.8296e-05,0
3.8553,3.7095e-05,0
3.8558,4.5151e-05,0
3.8563,5.3376e-05,0
3.8568,6.949e-05,0
3.8574,8.4092e-05,0
3.8579,8.3757e-05,0
3.8584,6.4958e-05,0
3.8589,4.4144e-05,0
3.8594,3.1388e-05,0
3.86,1.8631e-05,0
3.8605,9.7353e-06,0
3.861,6.8818e-06,0
3.8615,7.8889e-06,0
3.862,1.1414e-05,0
3.8626,1.4603e-05,0
3.8631,1.5946e-05,0
3.8636,1.7624e-05,0
3.8641,1.8967e-05,0
3.8646,1.6617e-05,0
3.8652,4.0284e-06,0
3.8657,-1.3596e-05,0
3.8662,-2.5345e-05,0
3.8667,-2.9206e-05,0
3.8672,-3.1556e-05,0
3.8678,-3.6927e-05,0
3.8683,-4.0116e-05,0
3.8688,-3.508e-05,0
3.8693,-2.6856e-05,0
3.8698,-2.1988e-05,0
3.8703,-2.031e-05,0
3.8709,-1.7624e-05,0
3.8714,-1.0575e-05,0
3.8719,-8.3925e-07,0
3.8724,7.0497e-06,0
3.8729,8.0568e-06,0
3.8735,3.5248e-06,0
3.874,1.8463e-06,0
3.8745,4.5319e-06,0
3.875,1.561e-05,0
3.8755,3.3906e-05,0
3.8761,4.8005e-05,0
3.8766,5.539e-05,0
3.8771,5.4215e-05,0
3.8776,4.4816e-05,0
3.8781,3.8102e-05,0
3.8787,3.9109e-05,0
3.8792,3.9445e-05,0
3.8797,3.6591e-05,0
3.8802,3.592e-05,0
3.8807,3.2731e-05,0
3.8813,2.6688e-05,0
3.8818,2.7863e-05,0
3.8823,3.3738e-05,0
3.8828,3.2059e-05,0
3.8833,2.0142e-05,0
3.8838,7.3854e-06,0
3.8844,1.6785e-07,0
3.8849,-1.8463e-06,0
3.8854,2.182e-06,0
3.8859,1.4771e-05,0
3.8864,3.0716e-05,0
3.887,4.0284e-05,0
3.8875,3.8102e-05,0
3.888,2.8031e-05,0
3.8885,2.1149e-05,0
3.889,2.2324e-05,0
3.8896,2.6688e-05,0
3.8901,2.4674e-05,0
3.8906,1.6449e-05,0
3.8911,9.7353e-06,0
3.8916,1.2421e-05,0
3.8922,2.1317e-05,0
3.8927,2.9877e-05,0
3.8932,3.3738e-05,0
3.8937,3.4073e-05,0
3.8942,3.3234e-05,0
3.8948,3.6088e-05,0
3.8953,4.5319e-05,0
3.8958,6.2104e-05,0
3.8963,8.2918e-05,0
3.8968,0.00010524,0
3.8973,0.00012471,0
3.8979,0.00013864,0
3.8984,0.00014553,0
3.8989,0.00014183,0
3.8994,0.00011934,0
3.8999,8.0064e-05,0
3.9005,3.0213e-05,0
3.901,-1.6617e-05,0
3.9015,-4.7166e-05,0
3.902,-6.3615e-05,0
3.9025,-6.949e-05,0
3.9031,-6.7979e-05,0
3.9036,-6.6133e-05,0
3.9041,-6.9322e-05,0
3.9046,-6.7979e-05,0
3.9051,-5.7069e-05,0
3.9057,-4.0452e-05,0
3.9062,-2.2995e-05,0
3.9067,-7.7211e-06,0
3.9072,-6.714e-07,0
3.9077,0,0
3.9082,1.5106e-06,0
3.9088,7.0497e-06,0
3.9093,1.2253e-05,0
3.9098,1.6449e-05,0
3.9103,2.6688e-05,0
3.9108,3.9445e-05,0
3.9114,4.3473e-05,0
3.9119,2.8702e-05,0
3.9124,3.357e-06,0
3.9129,-1.0407e-05,0
3.9134,-1.3428e-06,0
3.914,3.122e-05,0
3.9145,6.9322e-05,0
3.915,8.9128e-05,0
3.9155,8.7114e-05,0
3.916,7.57e-05,0
3.9166,6.4286e-05,0
3.9171,5.9754e-05,0
3.9176,6.2943e-05,0
3.9181,7.0161e-05,0
3.9186,6.6636e-05,0
3.9192,4.3809e-05,0
3.9197,1.4939e-05,0
3.9202,-3.8605e-06,0
3.9207,-1.6953e-05,0
3.9212,-3.508e-05,0
3.9217,-6.009e-05,0
3.9223,-8.04e-05,0
3.9228,-8.51e-05,0
3.9233,-7.5868e-05,0
3.9238,-6.009e-05,0
3.9243,-4.3305e-05,0
3.9249,-2.8367e-05,0
3.9254,-1.9806e-05,0
3.9259,-1.9638e-05,0
3.9264,-2.0981e-05,0
3.9269,-1.9638e-05,0
3.9275,-1.8463e-05,0
3.928,-1.9974e-05,0
3.9285,-2.3163e-05,0
3.929,-2.6017e-05,0
3.9295,-2.6352e-05,0
3.9301,-1.9638e-05,0
3.9306,-4.1962e-06,0
3.9311,1.326e-05,0
3.9316,2.5681e-05,0
3.9321,3.6088e-05,0
3.9327,5.0858e-05,0
3.9332,6.6636e-05,0
3.9337,7.6036e-05,0
3.9342,8.0232e-05,0
3.9347,8.5435e-05,0
3.9352,9.2821e-05,0
3.9358,9.8527e-05,0
3.9363,9.8527e-05,0
3.9368,8.9799e-05,0
3.9373,7.5029e-05,0
3.9378,6.009e-05,0
3.9384,4.7669e-05,0
3.9389,3.6759e-05,0
3.9394,2.6688e-05,0
3.9399,2.031e-05,0
3.9404,1.5946e-05,0
3.941,1.2589e-05,0
3.9415,1.3092e-05,0
3.942,1.8967e-05,0
3.9425,2.3667e-05,0
3.943,2.0981e-05,0
3.9436,1.6617e-05,0
3.9441,1.4603e-05,0
3.9446,1.3931e-05,0
3.9451,1.2924e-05,0
3.9456,8.5603e-06,0
3.9462,7.8889e-06,0
3.9467,1.4267e-05,0
3.9472,2.1988e-05,0
3.9477,2.8031e-05,0
3.9482,3.4073e-05,0
3.9487,3.9277e-05,0
3.9493,3.8102e-05,0
3.9498,3.2731e-05,0
3.9503,2.9206e-05,0
3.9508,2.9709e-05,0
3.9513,3.1556e-05,0
3.9519,2.9206e-05,0
3.9524,2.1988e-05,0
3.9529,1.5274e-05,0
3.9534,1.1582e-05,0
3.9539,9.0639e-06,0
3.9545,6.5461e-06,0
3.955,2.5177e-06,0
3.9555,-5.0355e-07,0
3.956,-5.2033e-06,0
3.9565,-1.1246e-05,0
3.9571,-1.4771e-05,0
3.9576,-1.8631e-05,0
3.9581,-3.4409e-05,0
3.9586,-6.4622e-05,0
3.9591,-8.9296e-05,0
3.9597,-9.3492e-05,0
3.9602,-8.2246e-05,0
3.9607,-6.4622e-05,0
3.9612,-4.448e-05,0
3.9617,-2.1653e-05,0
3.9623,1.1582e-05,0
3.9628,6.1265e-05,0
3.9633,0.00012908,0
3.9638,0.00019924,0
3.9643,0.00024355,0
3.9648,0.00025211,0
3.9654,0.0002318,0
3.9659,0.00019252,0
3.9664,0.0001472,0
3.9669,0.00010491,0
3.9674,6.7979e-05,0
3.968,3.8773e-05,0
3.9685,1.3092e-05,0
3.969,-1.3596e-05,0
3.9695,-4.5151e-05,0
3.97,-7.1e-05,0
3.9706,-7.805e-05,0
3.9711,-6.63e-05,0
3.9716,-4.8508e-05,0
3.9721,-3.6088e-05,0
3.9726,-3.0381e-05,0
3.9732,-2.2492e-05,0
3.9737,-1.091e-05,0
3.9742,-2.8534e-06,0
3.9747,-5.0355e-06,0
3.9752,-1.7121e-05,0
3.9758,-2.7863e-05,0
3.9763,-2.7695e-05,0
3.9768,-1.8128e-05,0
3.9773,1.8463e-06,0
3.9778,3.3738e-05,0
3.9783,6.5965e-05,0
3.9789,8.3253e-05,0
3.9794,8.8121e-05,0
3.9799,8.8121e-05,0
3.9804,8.4428e-05,0
3.9809,8.2414e-05,0
3.9815,8.51e-05,0
3.982,8.0064e-05,0
3.9825,5.8579e-05,0
3.983,2.8367e-05,0
3.9835,-1.6785e-07,0
3.9841,-2.4338e-05,0
3.9846,-4.7669e-05,0
3.9851,-6.714e-05,0
3.9856,-7.7714e-05,0
3.9861,-7.6707e-05,0
3.9867,-7.3854e-05,0
3.9872,-7.6371e-05,0
3.9877,-7.8553e-05,0
3.9882,-7.1336e-05,0
3.9887,-5.6901e-05,0
3.9893,-4.6494e-05,0
3.9898,-3.9445e-05,0
3.9903,-3.1388e-05,0
3.9908,-1.8128e-05,0
3.9913,-2.182e-06,0
3.9918,1.1246e-05,0
3.9924,2.0981e-05,0
3.9929,2.8031e-05,0
3.9934,3.2395e-05,0
3.9939,3.3738e-05,0
3.9944,3.2059e-05,0
3.995,2.7359e-05,0
3.9955,2.1988e-05,0
3.996,2.031e-05,0
3.9965,2.3835e-05,0
3.997,3.0549e-05,0
3.9976,3.8773e-05,0
3.9981,4.6159e-05,0
3.9986,4.213e-05,0
3.9991,2.031e-05,0
3.9996,-4.5319e-06,0
4.0002,-1.2421e-05,0
4.0007,-4.5319e-06,0
4.0012,3.8605e-06,0
4.0017,1.0575e-05,0
4.0022,1.796e-05,0
4.0027,3.0213e-05,0
4.0033,4.8844e-05,0
4.0038,6.6972e-05,0
4.0043,8.2078e-05,0
4.0048,9.9031e-05,0
4.0053,0.00011565,0
4.0059,0.00012236,0
4.0064,0.00011196,0
4.0069,8.9799e-05,0
4.0074,6.7475e-05,0
4.0079,5.2537e-05,0
4.0085,4.1794e-05,0
4.009,2.9709e-05,0
4.0095,1.8967e-05,0
4.01,1.1246e-05,0
4.0105,1.091e-05,0
4.0111,2.1317e-05,0
4.0116,3.357e-05,0
4.0121,3.8773e-05,0
4.0126,3.508e-05,0
4.0131,2.9541e-05,0
4.0137,2.7359e-05,0
4.0142,2.652e-05,0
4.0147,2.266e-05,0
4.0152,1.6281e-05,0
4.0157,1.3764e-05,0
4.0163,1.7288e-05,0
4.0168,2.266e-05,0
4.0173,2.6352e-05,0
4.0178,3.1388e-05,0
4.0183,3.8773e-05,0
4.0188,4.6494e-05,0
4.0194,4.9683e-05,0
4.0199,4.8173e-05,0
4.0204,4.1459e-05,0
4.0209,2.501e-05,0
4.0214,-4.5319e-06,0
4.022,-3.9445e-05,0
4.0225,-6.4958e-05,0
4.023,-7.2343e-05,0
4.0235,-6.63e-05,0
4.024,-5.9251e-05,0
4.0246,-5.1362e-05,0
4.0251,-4.0452e-05,0
4.0256,-2.6688e-05,0
4.0261,-1.3092e-05,0
4.0266,3.357e-07,0
4.0272,1.3931e-05,0
4.0277,2.5513e-05,0
4.0282,3.0045e-05,0
4.0287,2.3835e-05,0
4.0292,1.4603e-05,0
4.0297,1.1246e-05,0
4.0303,8.7282e-06,0
4.0308,1.6785e-06,0
4.0313,-2.5177e-06,0
4.0318,3.1891e-06,0
4.0323,1.7792e-05,0
4.0329,3.2059e-05,0
4.0334,3.8102e-05,0
4.0339,3.5416e-05,0
4.0344,3.122e-05,0
4.0349,3.3402e-05,0
4.0355,4.2634e-05,0
4.036,5.3544e-05,0
4.0365,5.7069e-05,0
4.037,4.6662e-05,0
4.0375,2.8534e-05,0
4.0381,1.8128e-05,0
4.0386,2.2324e-05,0
4.0391,3.0716e-05,0
4.0396,3.2731e-05,0
4.0401,3.0716e-05,0
4.0407,2.9038e-05,0
4.0412,2.8534e-05,0
4.0417,3.3234e-05,0
4.0422,4.7669e-05,0
4.0427,6.63e-05,0
4.0432,8.2414e-05,0
4.0438,9.1142e-05,0
4.0443,8.9632e-05,0
4.0448,8.3925e-05,0
4.0453,7.8721e-05,0
4.0458,7.1839e-05,0
4.0464,5.9251e-05,0
4.0469,4.8173e-05,0
4.0474,5.0858e-05,0
4.0479,5.3544e-05,0
4.0484,3.2395e-05,0
4.049,-1.2924e-05,0
4.0495,-5.8579e-05,0
4.05,-8.9464e-05,0
4.0505,-0.00010877,0
4.051,-0.00011901,0
4.0516,-0.00011951,0
4.0521,-0.00010793,0
4.0526,-8.7449e-05,0
4.0531,-6.5293e-05,0
4.0536,-4.6159e-05,0
4.0542,-2.7695e-05,0
4.0547,-9.5674e-06,0
4.0552,2.3499e-06,0
4.0557,7.7211e-06,0
4.0562,1.4939e-05,0
4.0568,3.4073e-05,0
4.0573,5.4215e-05,0
4.0578,6.0594e-05,0
4.0583,5.2201e-05,0
4.0588,3.5752e-05,0
4.0593,1.6617e-05,0
4.0599,4.1962e-06,0
4.0604,7.8889e-06,0
4.0609,2.4002e-05,0
4.0614,4.0452e-05,0
4.0619,5.5055e-05,0
4.0625,7.0497e-05,0
4.063,7.8218e-05,0
4.0635,7.6371e-05,0
4.064,7.57e-05,0
4.0645,7.8721e-05,0
4.0651,7.8386e-05,0
4.0656,7.4693e-05,0
4.0661,6.9993e-05,0
4.0666,6.0929e-05,0
4.0671,4.0452e-05,0
4.0677,1.3931e-05,0
4.0682,-4.8676e-06,0
4.0687,-1.1246e-05,0
4.0692,-1.0239e-05,0
4.0697,-5.0355e-06,0
4.0702,3.8605e-06,0
4.0708,1.2253e-05,0
4.0713,1.6449e-05,0
4.0718,1.4267e-05,0
4.0723,6.8818e-06,0
4.0728,-3.6927e-06,0
4.0734,-1.1246e-05,0
4.0739,-1.2924e-05,0
4.0744,-7.8889e-06,0
4.0749,1.6785e-07,0
4.0754,7.2175e-06,0
4.076,1.1246e-05,0
4.0765,1.2589e-05,0
4.077,1.4267e-05,0
4.0775,2.1653e-05,0
4.078,3.3402e-05,0
4.0786,4.1627e-05,0
4.0791,4.3977e-05,0
4.0796,4.0955e-05,0
4.0801,3.0045e-05,0
4.0806,1.4603e-05,0
4.0812,-1.0071e-06,0
4.0817,-9.7353e-06,0
4.0822,-7.2175e-06,0
4.0827,3.1891e-06,0
4.0832,1.2253e-05,0
4.0838,1.326e-05,0
4.0843,9.2317e-06,0
4.0848,7.3854e-06,0
4.0853,8.2246e-06,0
4.0858,1.1582e-05,0
4.0863,1.3764e-05,0
4.0869,1.1917e-05,0
4.0874,9.9031e-06,0
4.0879,1.1917e-05,0
4.0884,1.8128e-05,0
4.0889,2.4002e-05,0
4.0895,2.7359e-05,0
4.09,2.7359e-05,0
4.0905,2.6688e-05,0
4.091,2.7695e-05,0
4.0915,2.6184e-05,0
4.0921,2.652e-05,0
4.0926,2.8702e-05,0
4.0931,3.3738e-05,0
4.0936,3.978e-05,0
4.0941,4.4816e-05,0
4.0947,4.8173e-05,0
4.0952,5.3376e-05,0
4.0957,5.8915e-05,0
4.0962,5.1865e-05,0
4.0967,2.7695e-05,0
4.0972,-1.5106e-06,0
4.0978,-1.7121e-05,0
4.0983,-1.1246e-05,0
4.0988,9.5674e-06,0
4.0993,3.2059e-05,0
4.0998,5.1194e-05,0
4.1004,6.4622e-05,0
4.1009,6.865e-05,0
4.1014,6.4286e-05,0
4.1019,5.5894e-05,0
4.1024,4.7501e-05,0
4.103,4.1627e-05,0
4.1035,3.1556e-05,0
4.104,1.1582e-05,0
4.1045,-1.5778e-05,0
4.105,-3.8437e-05,0
4.1056,-4.9348e-05,0
4.1061,-5.0187e-05,0
4.1066,-4.3473e-05,0
4.1071,-3.1891e-05,0
4.1076,-1.6281e-05,0
4.1082,-3.6927e-06,0
4.1087,3.357e-06,0
4.1092,8.5603e-06,0
4.1097,1.5274e-05,0
4.1102,2.266e-05,0
4.1108,3.1052e-05,0
4.1113,3.9109e-05,0
4.1118,4.683e-05,0
4.1123,5.153e-05,0
4.1128,4.7837e-05,0
4.1133,3.978e-05,0
4.1139,3.3234e-05,0
4.1144,3.1724e-05,0
4.1149,3.1052e-05,0
4.1154,2.4338e-05,0
4.1159,1.3931e-05,0
4.1165,1.2085e-05,0
4.117,2.7863e-05,0
4.1175,5.1865e-05,0
4.118,6.1601e-05,0
4.1185,4.4144e-05,0
4.1191,1.3764e-05,0
4.1196,-1.1917e-05,0
4.1201,-2.4002e-05,0
4.1206,-2.6017e-05,0
4.1211,-2.4506e-05,0
4.1217,-2.1988e-05,0
4.1222,-1.6114e-05,0
4.1227,-8.0568e-06,0
4.1232,-1.0071e-06,0
4.1237,2.182e-06,0
4.1242,3.5248e-06,0
4.1248,8.2246e-06,0
4.1253,1.5274e-05,0
4.1258,2.2995e-05,0
4.1263,2.7192e-05,0
4.1268,2.4674e-05,0
4.1274,2.1653e-05,0
4.1279,2.4506e-05,0
4.1284,3.3234e-05,0
4.1289,4.0787e-05,0
4.1294,3.8102e-05,0
4.13,2.3667e-05,0
4.1305,5.2033e-06,0
4.131,-3.8605e-06,0
4.1315,-8.3925e-07,0
4.132,9.2317e-06,0
4.1326,1.9135e-05,0
4.1331,2.7359e-05,0
4.1336,3.2731e-05,0
4.1341,3.508e-05,0
4.1346,3.6591e-05,0
4.1352,3.5752e-05,0
4.1357,2.8702e-05,0
4.1362,1.8631e-05,0
4.1367,1.1917e-05,0
4.1372,9.2317e-06,0
4.1377,1.1582e-05,0
4.1383,1.5946e-05,0
4.1388,1.9135e-05,0
4.1393,2.1149e-05,0
4.1398,2.5681e-05,0
4.1403,3.0213e-05,0
4.1409,3.3066e-05,0
4.1414,3.7766e-05,0
4.1419,4.448e-05,0
4.1424,5.2201e-05,0
4.1429,5.6565e-05,0
4.1435,5.3544e-05,0
4.144,4.1794e-05,0
4.1445,2.1653e-05,0
4.145,5.2033e-06,0
4.1455,0,0
4.1461,2.8534e-06,0
4.1466,5.7069e-06,0
4.1471,6.3783e-06,0
4.1476,7.0497e-06,0
4.1481,6.2104e-06,0
4.1487,-8.3925e-07,0
4.1492,-1.6617e-05,0
4.1497,-3.3738e-05,0
4.1502,-3.8773e-05,0
4.1507,-2.8367e-05,0
4.1513,-1.0071e-05,0
4.1518,5.8747e-06,0
4.1523,1.5106e-05,0
4.1528,2.1988e-05,0
4.1533,3.2898e-05,0
4.1538,5.0187e-05,0
4.1544,6.949e-05,0
4.1549,8.7785e-05,0
4.1554,0.00010037,0
4.1559,0.00010591,0
4.1564,0.00010105,0
4.157,8.2918e-05,0
4.1575,5.774e-05,0
4.158,3.8102e-05,0
4.1585,3.0381e-05,0
4.159,3.0549e-05,0
4.1596,2.4002e-05,0
4.1601,-2.182e-06,0
4.1606,-3.7263e-05,0
4.1611,-5.9586e-05,0
4.1616,-6.1601e-05,0
4.1622,-5.0523e-05,0
4.1627,-3.8102e-05,0
4.1632,-2.9709e-05,0
4.1637,-2.2828e-05,0
4.1642,-1.2253e-05,0
4.1647,2.5177e-06,0
4.1653,1.5946e-05,0
4.1658,2.4842e-05,0
4.1663,3.1724e-05,0
4.1668,4.0116e-05,0
4.1673,4.5487e-05,0
4.1679,4.213e-05,0
4.1684,3.1556e-05,0
4.1689,2.0981e-05,0
4.1694,1.2924e-05,0
4.1699,8.3925e-06,0
4.1705,8.3925e-06,0
4.171,7.8889e-06,0
4.1715,6.5461e-06,0
4.172,8.3925e-06,0
4.1725,1.2757e-05,0
4.1731,1.6281e-05,0
4.1736,1.796e-05,0
4.1741,1.8967e-05,0
4.1746,1.5946e-05,0
4.1751,7.7211e-06,0
4.1757,-4.5319e-06,0
4.1762,-1.1749e-05,0
4.1767,-8.896e-06,0
4.1772,6.714e-07,0
4.1777,1.2253e-05,0
4.1783,2.5345e-05,0
4.1788,3.6591e-05,0
4.1793,4.6494e-05,0
4.1798,5.7404e-05,0
4.1803,6.6636e-05,0
4.1808,7.7043e-05,0
4.1814,9.2317e-05,0
4.1819,0.00010457,0
4.1824,9.7856e-05,0
4.1829,7.4022e-05,0
4.1834,5.0858e-05,0
4.184,3.6759e-05,0
4.1845,2.887e-05,0
4.185,2.3163e-05,0
4.1855,1.4435e-05,0
4.186,1.1749e-06,0
4.1866,-1.9135e-05,0
4.1871,-4.0452e-05,0
4.1876,-5.153e-05,0
4.1881,-4.8844e-05,0
4.1886,-4.0116e-05,0
4.1892,-3.1724e-05,0
4.1897,-2.4338e-05,0
4.1902,-1.8967e-05,0
4.1907,-1.6953e-05,0
4.1912,-1.3931e-05,0
4.1917,-7.0497e-06,0
4.1923,-2.182e-06,0
4.1928,-1.1749e-06,0
4.1933,1.5106e-06,0
4.1938,1.0407e-05,0
4.1943,2.182e-05,0
4.1949,2.7863e-05,0
4.1954,2.2324e-05,0
4.1959,1.1414e-05,0
4.1964,8.896e-06,0
4.1969,1.6617e-05,0
4.1975,2.6688e-05,0
4.198,3.3402e-05,0
4.1985,3.8102e-05,0
4.199,4.5487e-05,0
4.1995,5.3208e-05,0
4.2001,5.6565e-05,0
4.2006,5.623e-05,0
4.2011,5.6062e-05,0
4.2016,5.7404e-05,0
4.2021,5.8076e-05,0
4.2027,5.1194e-05,0
4.2032,4.2802e-05,0
4.2037,3.8437e-05,0
4.2042,3.3738e-05,0
4.2047,2.3331e-05,0
4.2053,1.3596e-05,0
4.2058,9.2317e-06,0
4.2063,1.0575e-05,0
4.2068,1.1917e-05,0
4.2073,1.1246e-05,0
4.2078,1.1917e-05,0
4.2084,1.7288e-05,0
4.2089,3.1891e-05,0
4.2094,5.7908e-05,0
4.2099,8.7114e-05,0
4.2104,0.00010692,0
4.211,0.00011447,0
4.2115,0.00011229,0
4.212,0.00010256,0
4.2125,8.7449e-05,0
4.213,7.0329e-05,0
4.2136,5.5558e-05,0
4.2141,3.7095e-05,0
4.2146,5.2033e-06,0
4.2151,-3.5752e-05,0
4.2156,-6.949e-05,0
4.2162,-9.1142e-05,0
4.2167,-0.00010054,0
4.2172,-9.987e-05,0
4.2177,-8.7449e-05,0
4.2182,-6.5629e-05,0
4.2188,-4.3137e-05,0
4.2193,-2.3499e-05,0
4.2198,-8.3925e-06,0
4.2203,-3.6927e-06,0
4.2208,-9.2317e-06,0
4.2213,-1.9638e-05,0
4.2219,-2.7527e-05,0
4.2224,-2.7192e-05,0
4.2229,-1.8967e-05,0
4.2234,-8.2246e-06,0
4.2239,-8.3925e-07,0
4.2245,0,0
4.225,-3.357e-06,0
4.2255,-7.0497e-06,0
4.226,-8.2246e-06,0
4.2265,-5.0355e-06,0
4.2271,-1.5106e-06,0
4.2276,-1.6785e-07,0
4.2281,-1.5106e-06,0
4.2286,-2.0142e-06,0
4.2291,3.5248e-06,0
4.2297,1.7456e-05,0
4.2302,3.6759e-05,0
4.2307,5.5894e-05,0
4.2312,6.865e-05,0
4.2317,7.4357e-05,0
4.2322,7.0161e-05,0
4.2328,5.4887e-05,0
4.2333,3.9277e-05,0
4.2338,3.4745e-05,0
4.2343,3.8605e-05,0
4.2348,4.1291e-05,0
4.2354,4.1794e-05,0
4.2359,4.213e-05,0
4.2364,4.3137e-05,0
4.2369,4.8173e-05,0
4.2374,5.2201e-05,0
4.238,4.4144e-05,0
4.2385,2.8031e-05,0
4.239,1.9135e-05,0
4.2395,1.9135e-05,0
4.24,1.8296e-05,0
4.2406,7.8889e-06,0
4.2411,-1.3428e-05,0
4.2416,-3.0549e-05,0
4.2421,-3.3906e-05,0
4.2426,-1.9806e-05,0
4.2432,4.5319e-06,0
4.2437,2.7192e-05,0
4.2442,4.5991e-05,0
4.2447,6.1265e-05,0
4.2452,7.4022e-05,0
4.2458,8.7785e-05,0
4.2463,0.00010491,0
4.2468,0.00012052,0
4.2473,0.00012807,0
4.2478,0.0001227,0
4.2483,0.00010256,0
4.2489,7.6371e-05,0
4.2494,5.2537e-05,0
4.2499,3.0381e-05,0
4.2504,1.0239e-05,0
4.2509,0,0
4.2515,0,0
4.252,-1.3428e-06,0
4.2525,-9.7353e-06,0
4.253,-1.7288e-05,0
4.2535,-1.7121e-05,0
4.2541,-1.326e-05,0
4.2546,-1.2924e-05,0
4.2551,-1.5274e-05,0
4.2556,-1.4603e-05,0
4.2561,-9.7353e-06,0
4.2567,-4.6998e-06,0
4.2572,-3.357e-06,0
4.2577,-3.0213e-06,0
4.2582,3.5248e-06,0
4.2587,1.7624e-05,0
4.2592,3.4745e-05,0
4.2598,4.6998e-05,0
4.2603,5.2033e-05,0
4.2608,4.8005e-05,0
4.2613,3.592e-05,0
4.2618,2.1988e-05,0
4.2624,9.9031e-06,0
4.2629,-1.0071e-06,0
4.2634,-8.896e-06,0
4.2639,-1.8296e-05,0
4.2644,-2.9709e-05,0
4.265,-3.4745e-05,0
4.2655,-3.3738e-05,0
4.266,-3.1891e-05,0
4.2665,-2.9709e-05,0
4.267,-2.7359e-05,0
4.2676,-2.8534e-05,0
4.2681,-3.0381e-05,0
4.2686,-2.7024e-05,0
4.2691,-1.1582e-05,0
4.2696,1.326e-05,0
4.2702,4.0787e-05,0
4.2707,6.6133e-05,0
4.2712,8.4428e-05,0
4.2717,9.2149e-05,0
4.2722,8.6275e-05,0
4.2728,7.2511e-05,0
4.2733,5.8579e-05,0
4.2738,4.3977e-05,0
4.2743,2.2492e-05,0
4.2748,-6.714e-06,0
4.2753,-3.2563e-05,0
4.2759,-4.7501e-05,0
4.2764,-5.2873e-05,0
4.2769,-5.069e-05,0
4.2774,-4.2298e-05,0
4.2779,-2.9374e-05,0
4.2785,-1.2253e-05,0
4.279,7.5532e-06,0
4.2795,2.5345e-05,0
4.28,3.7095e-05,0
4.2805,4.3473e-05,0
4.2811,4.8508e-05,0
4.2816,5.4215e-05,0
4.2821,5.4887e-05,0
4.2826,4.5151e-05,0
4.2831,3.5752e-05,0
4.2837,3.6423e-05,0
4.2842,3.9277e-05,0
4.2847,3.0381e-05,0
4.2852,1.3931e-05,0
4.2857,1.1917e-05,0
4.2862,2.7695e-05,0
4.2868,4.3473e-05,0
4.2873,4.8508e-05,0
4.2878,4.7837e-05,0
4.2883,4.9516e-05,0
4.2888,5.388e-05,0
4.2894,5.2537e-05,0
4.2899,4.4648e-05,0
4.2904,4.1962e-05,0
4.2909,4.4816e-05,0
4.2914,4.5151e-05,0
4.292,4.2802e-05,0
4.2925,4.2466e-05,0
4.293,3.9948e-05,0
4.2935,3.5416e-05,0
4.294,3.1388e-05,0
4.2946,2.6352e-05,0
4.2951,2.0813e-05,0
4.2956,1.8967e-05,0
4.2961,1.9303e-05,0
4.2966,1.6953e-05,0
4.2972,9.5674e-06,0
4.2977,-3.357e-07,0
4.2982,-7.8889e-06,0
4.2987,-1.0407e-05,0
4.2992,-1.3092e-05,0
4.2998,-2.0478e-05,0
4.3003,-2.9038e-05,0
4.3008,-3.0381e-05,0
4.3013,-2.7695e-05,0
4.3018,-2.7863e-05,0
4.3023,-2.9541e-05,0
4.3029,-2.8702e-05,0
4.3034,-2.3667e-05,0
4.3039,-1.5442e-05,0
4.3044,-4.6998e-06,0
4.3049,8.2246e-06,0
4.3055,2.1317e-05,0
4.306,3.1052e-05,0
4.3065,3.3906e-05,0
4.307,3.1052e-05,0
4.3075,2.6352e-05,0
4.3081,2.4674e-05,0
4.3086,2.7359e-05,0
4.3091,2.2156e-05,0
4.3096,3.1891e-06,0
4.3101,-1.5274e-05,0
4.3107,-1.8296e-05,0
4.3112,-9.7353e-06,0
4.3117,-2.3499e-06,0
4.3122,-2.8534e-06,0
4.3127,-7.0497e-06,0
4.3133,-6.2104e-06,0
4.3138,1.8463e-06,0
4.3143,1.4099e-05,0
4.3148,2.5849e-05,0
4.3153,3.4745e-05,0
4.3158,3.8773e-05,0
4.3164,4.3473e-05,0
4.3169,5.2201e-05,0
4.3174,6.0761e-05,0
4.3179,6.2776e-05,0
4.3184,6.1265e-05,0
4.319,5.6565e-05,0
4.3195,4.1794e-05,0
4.32,2.2324e-05,0
4.3205,9.9031e-06,0
4.321,1.0575e-05,0
4.3216,1.9135e-05,0
4.3221,2.3499e-05,0
4.3226,2.1988e-05,0
4.3231,2.182e-05,0
4.3236,2.6688e-05,0
4.3242,3.3402e-05,0
4.3247,4.1291e-05,0
4.3252,5.0858e-05,0
4.3257,6.0426e-05,0
4.3262,6.5965e-05,0
4.3267,5.9754e-05,0
4.3273,3.743e-05,0
4.3278,5.2033e-06,0
4.3283,-2.0645e-05,0
4.3288,-2.887e-05,0
4.3293,-1.9638e-05,0
4.3299,-1.5106e-06,0
4.3304,1.6617e-05,0
4.3309,3.2731e-05,0
4.3314,5.1698e-05,0
4.3319,7.2679e-05,0
4.3325,9.3156e-05,0
4.333,0.00011196,0
4.3335,0.00011867,0
4.334,0.00010625,0
4.3345,8.0903e-05,0
4.3351,5.1194e-05,0
4.3356,2.2324e-05,0
4.3361,1.6785e-06,0
4.3366,3.5248e-06,0
4.3371,2.9877e-05,0
4.3377,5.7404e-05,0
4.3382,7.0832e-05,0
4.3387,7.1672e-05,0
4.3392,6.5293e-05,0
4.3397,5.4887e-05,0
4.3403,4.3809e-05,0
4.3408,2.9374e-05,0
4.3413,9.5674e-06,0
4.3418,-1.4603e-05,0
4.3423,-3.7766e-05,0
4.3428,-5.4887e-05,0
4.3434,-6.2776e-05,0
4.3439,-6.5965e-05,0
4.3444,-6.9825e-05,0
4.3449,-6.5965e-05,0
4.3454,-5.0355e-05,0
4.346,-3.357e-05,0
4.3465,-2.3667e-05,0
4.347,-2.0813e-05,0
4.3475,-2.1988e-05,0
4.348,-2.3499e-05,0
4.3486,-1.9638e-05,0
4.3491,-9.5674e-06,0
4.3496,1.5106e-06,0
4.3501,1.1078e-05,0
4.3506,2.182e-05,0
4.3512,2.8367e-05,0
4.3517,2.6688e-05,0
4.3522,1.796e-05,0
4.3527,2.0142e-06,0
4.3532,-1.8128e-05,0
4.3537,-2.8702e-05,0
4.3543,-2.2995e-05,0
4.3548,-1.1917e-05,0
4.3553,-7.2175e-06,0
4.3558,-3.5248e-06,0
4.3563,4.5319e-06,0
4.3569,1.0575e-05,0
4.3574,1.2421e-05,0
4.3579,1.2421e-05,0
4.3584,1.4771e-05,0
4.3589,2.0981e-05,0
4.3595,2.6688e-05,0
4.36,2.8031e-05,0
4.3605,2.5177e-05,0
4.361,1.9471e-05,0
4.3615,1.2924e-05,0
4.3621,1.2757e-05,0
4.3626,1.9638e-05,0
4.3631,2.9206e-05,0
4.3636,3.7766e-05,0
4.3641,4.5151e-05,0
4.3647,4.683e-05,0
4.3652,4.448e-05,0
4.3657,4.2634e-05,0
4.3662,4.1459e-05,0
4.3667,4.0116e-05,0
4.3673,3.6423e-05,0
4.3678,3.1388e-05,0
4.3683,2.9877e-05,0
4.3688,3.1891e-05,0
4.3693,3.1891e-05,0
4.3698,2.6017e-05,0
4.3704,1.8128e-05,0
4.3709,1.4435e-05,0
4.3714,1.9974e-05,0
4.3719,3.9109e-05,0
4.3724,6.2272e-05,0
4.373,6.8147e-05,0
4.3735,4.8173e-05,0
4.374,1.9303e-05,0
4.3745,4.5319e-06,0
4.375,5.2033e-06,0
4.3756,1.4267e-05,0
4.3761,2.8702e-05,0
4.3766,3.8773e-05,0
4.3771,3.1891e-05,0
4.3776,1.0239e-05,0
4.3782,-8.896e-06,0
4.3787,-1.1582e-05,0
4.3792,3.8605e-06,0
4.3797,2.8367e-05,0
4.3802,5.4383e-05,0
4.3807,7.1839e-05,0
4.3813,6.7979e-05,0
4.3818,4.8844e-05,0
4.3823,2.7863e-05,0
4.3828,1.6785e-05,0
4.3833,2.1317e-05,0
4.3839,3.6088e-05,0
4.3844,4.5823e-05,0
4.3849,3.7263e-05,0
4.3854,1.8463e-05,0
4.3859,6.0426e-06,0
4.3865,3.1891e-06,0
4.387,4.1962e-06,0
4.3875,7.8889e-06,0
4.388,1.326e-05,0
4.3885,1.9974e-05,0
4.3891,2.2492e-05,0
4.3896,1.7288e-05,0
4.3901,6.714e-06,0
4.3906,-7.2175e-06,0
4.3911,-1.6953e-05,0
4.3917,-1.6281e-05,0
4.3922,-9.9031e-06,0
4.3927,-3.5248e-06,0
4.3932,1.6785e-07,0
4.3937,3.0213e-06,0
4.3943,1.3764e-05,0
4.3948,3.1052e-05,0
4.3953,4.7837e-05,0
4.3958,6.2943e-05,0
4.3963,7.7714e-05,0
4.3968,8.896e-05,0
4.3974,8.8121e-05,0
4.3979,6.9322e-05,0
4.3984,4.2802e-05,0
4.3989,2.5345e-05,0
4.3994,1.7121e-05,0
4.4,1.1749e-05,0
4.4005,4.3641e-06,0
4.401,-6.2104e-06,0
4.4015,-1.3092e-05,0
4.402,-1.4603e-05,0
4.4026,-1.1749e-05,0
4.4031,-8.3925e-06,0
4.4036,-6.0426e-06,0
4.4041,-4.8676e-06,0
4.4046,-3.1891e-06,0
4.4052,-2.8534e-06,0
4.4057,-3.8605e-06,0
4.4062,-4.6998e-06,0
4.4067,-4.8676e-06,0
4.4072,-3.1891e-06,0
4.4078,-3.357e-06,0
4.4083,-6.8818e-06,0
4.4088,-7.2175e-06,0
4.4093,-3.357e-06,0
4.4098,-3.357e-07,0
4.4103,3.5248e-06,0
4.4109,1.2757e-05,0
4.4114,2.501e-05,0
4.4119,3.4745e-05,0
4.4124,4.0787e-05,0
4.4129,4.8173e-05,0
4.4135,5.8915e-05,0
4.414,7.1336e-05,0
4.4145,7.805e-05,0
4.415,7.7714e-05,0
4.4155,7.2679e-05,0
4.4161,6.4958e-05,0
4.4166,5.5222e-05,0
4.4171,4.4144e-05,0
4.4176,3.2395e-05,0
4.4181,1.9135e-05,0
4.4187,3.6927e-06,0
4.4192,-1.1582e-05,0
4.4197,-2.501e-05,0
4.4202,-3.7766e-05,0
4.4207,-4.8173e-05,0
4.4212,-5.1362e-05,0
4.4218,-5.069e-05,0
4.4223,-5.0187e-05,0
4.4228,-4.448e-05,0
4.4233,-2.8702e-05,0
4.4238,-8.896e-06,0
4.4244,6.5461e-06,0
4.4249,1.6617e-05,0
4.4254,2.182e-05,0
4.4259,2.2156e-05,0
4.4264,2.0981e-05,0
4.427,1.9638e-05,0
4.4275,1.6617e-05,0
4.428,1.3596e-05,0
4.4285,1.326e-05,0
4.429,1.796e-05,0
4.4296,2.5345e-05,0
4.4301,3.1388e-05,0
4.4306,3.2059e-05,0
4.4311,2.9374e-05,0
4.4316,2.6352e-05,0
4.4322,2.4002e-05,0
4.4327,2.1317e-05,0
4.4332,1.326e-05,0
4.4337,2.182e-06,0
4.4342,-6.5461e-06,0
4.4348,-6.5461e-06,0
4.4353,3.1891e-06,0
4.4358,1.7288e-05,0
4.4363,2.652e-05,0
4.4368,2.9374e-05,0
4.4373,3.2059e-05,0
4.4379,3.4745e-05,0
4.4384,3.6759e-05,0
4.4389,3.978e-05,0
4.4394,5.0187e-05,0
4.4399,6.8315e-05,0
4.4405,8.3085e-05,0
4.441,9.0471e-05,0
4.4415,9.4835e-05,0
4.442,9.9031e-05,0
4.4425,9.8527e-05,0
4.4431,8.4932e-05,0
4.4436,6.2943e-05,0
4.4441,4.7837e-05,0
4.4446,4.4648e-05,0
4.4451,4.3641e-05,0
4.4457,2.8367e-05,0
4.4462,-3.0213e-06,0
4.4467,-3.2898e-05,0
4.4472,-5.2201e-05,0
4.4477,-6.5461e-05,0
4.4482,-7.2343e-05,0
4.4488,-6.4622e-05,0
4.4493,-4.3137e-05,0
4.4498,-1.6953e-05,0
4.4503,2.5177e-06,0
4.4508,8.3925e-06,0
4.4514,7.8889e-06,0
4.4519,1.0071e-05,0
4.4524,6.5461e-06,0
4.4529,8.3925e-07,0
4.4534,4.6998e-06,0
4.454,1.8631e-05,0
4.4545,3.2731e-05,0
4.455,3.8102e-05,0
4.4555,3.743e-05,0
4.456,4.0787e-05,0
4.4566,5.153e-05,0
4.4571,6.5126e-05,0
4.4576,7.3854e-05,0
4.4581,7.5029e-05,0
4.4586,6.8315e-05,0
4.4592,4.5151e-05,0
4.4597,1.1078e-05,0
4.4602,-1.6281e-05,0
4.4607,-3.5752e-05,0
4.4612,-5.4551e-05,0
4.4618,-6.9322e-05,0
4.4623,-7.1336e-05,0
4.4628,-5.4551e-05,0
4.4633,-2.4338e-05,0
4.4638,7.8889e-06,0
4.4643,3.2059e-05,0
4.4649,5.2873e-05,0
4.4654,7.4357e-05,0
4.4659,9.1478e-05,0
4.4664,9.9702e-05,0
4.4669,9.5674e-05,0
4.4675,8.7449e-05,0
4.468,7.6371e-05,0
4.4685,5.5558e-05,0
4.469,2.5177e-05,0
4.4695,-1.8463e-06,0
4.4701,-1.8296e-05,0
4.4706,-2.0478e-05,0
4.4711,-1.5274e-05,0
4.4716,-7.5532e-06,0
4.4721,6.5461e-06,0
4.4727,3.2563e-05,0
4.4732,6.1265e-05,0
4.4737,7.8386e-05,0
4.4742,8.4932e-05,0
4.4747,8.275e-05,0
4.4752,7.4861e-05,0
4.4758,6.3447e-05,0
4.4763,5.1362e-05,0
4.4768,3.8437e-05,0
4.4773,2.4506e-05,0
4.4778,1.3764e-05,0
4.4784,4.3641e-06,0
4.4789,-1.1246e-05,0
4.4794,-3.2898e-05,0
4.4799,-5.0523e-05,0
4.4804,-5.9251e-05,0
4.481,-6.0258e-05,0
4.4815,-6.0594e-05,0
4.482,-5.9586e-05,0
4.4825,-5.3544e-05,0
4.483,-4.4816e-05,0
4.4836,-3.7095e-05,0
4.4841,-2.7695e-05,0
4.4846,-1.5442e-05,0
4.4851,-3.1891e-06,0
4.4856,7.7211e-06,0
4.4862,1.561e-05,0
4.4867,2.0981e-05,0
4.4872,2.5513e-05,0
4.4877,2.9038e-05,0
4.4882,2.9038e-05,0
4.4887,2.4002e-05,0
4.4893,1.5946e-05,0
4.4898,1.0575e-05,0
4.4903,1.1582e-05,0
4.4908,1.9806e-05,0
4.4913,2.8702e-05,0
4.4919,3.4073e-05,0
4.4924,3.1388e-05,0
4.4929,1.7624e-05,0
4.4934,-1.8463e-06,0
4.4939,-1.2253e-05,0
4.4945,-3.5248e-06,0
4.495,1.8463e-05,0
4.4955,3.8773e-05,0
4.496,5.1865e-05,0
4.4965,5.9586e-05,0
4.4971,6.2272e-05,0
4.4976,6.1601e-05,0
4.4981,6.1601e-05,0
4.4986,6.4958e-05,0
4.4991,6.865e-05,0
4.4997,6.8482e-05,0
4.5002,6.0594e-05,0
4.5007,4.5487e-05,0
4.5012,3.1556e-05,0
4.5017,2.5345e-05,0
4.5023,2.5681e-05,0
4.5028,2.6688e-05,0
4.5033,2.4002e-05,0
4.5038,2.1317e-05,0
4.5043,2.7359e-05,0
4.5048,3.8773e-05,0
4.5054,4.8173e-05,0
4.5059,5.3544e-05,0
4.5064,6.2608e-05,0
4.5069,7.6707e-05,0
4.5074,8.8289e-05,0
4.508,9.2149e-05,0
4.5085,8.426e-05,0
4.509,6.7979e-05,0
4.5095,4.8005e-05,0
4.51,2.8367e-05,0
4.5106,1.1078e-05,0
4.5111,-8.896e-06,0
4.5116,-3.1724e-05,0
4.5121,-5.0187e-05,0
4.5126,-5.9754e-05,0
4.5132,-6.2104e-05,0
4.5137,-6.0258e-05,0
4.5142,-5.3208e-05,0
4.5147,-4.1291e-05,0
4.5152,-2.8367e-05,0
4.5157,-1.9806e-05,0
4.5163,-1.2589e-05,0
4.5168,-4.5319e-06,0
4.5173,-1.6785e-06,0
4.5178,-8.896e-06,0
4.5183,-2.1653e-05,0
4.5189,-3.7095e-05,0
4.5194,-4.7837e-05,0
4.5199,-4.1962e-05,0
4.5204,-2.1988e-05,0
4.5209,-6.3783e-06,0
4.5215,-5.7069e-06,0
4.522,-1.3764e-05,0
4.5225,-1.9974e-05,0
4.523,-1.9638e-05,0
4.5235,-1.7624e-05,0
4.5241,-1.4267e-05,0
4.5246,-1.0239e-05,0
4.5251,-8.2246e-06,0
4.5256,-6.3783e-06,0
4.5261,-2.5177e-06,0
4.5267,1.2421e-05,0
4.5272,4.4144e-05,0
4.5277,8.0232e-05,0
4.5282,9.9535e-05,0
4.5287,9.0806e-05,0
4.5293,6.3615e-05,0
4.5298,3.8102e-05,0
4.5303,2.7863e-05,0
4.5308,3.3402e-05,0
4.5313,4.2802e-05,0
4.5318,5.0019e-05,0
4.5324,5.623e-05,0
4.5329,6.2608e-05,0
4.5334,6.7979e-05,0
4.5339,7.0161e-05,0
4.5344,7.1e-05,0
4.535,6.3951e-05,0
4.5355,4.6494e-05,0
4.536,2.4338e-05,0
4.5365,5.8747e-06,0
4.537,-1.1078e-05,0
4.5376,-3.7766e-05,0
4.5381,-6.5629e-05,0
4.5386,-6.9825e-05,0
4.5391,-4.1794e-05,0
4.5396,3.8605e-06,0
4.5402,5.7572e-05,0
4.5407,0.00011263,0
4.5412,0.00015627,0
4.5417,0.00017691,0
4.5422,0.00017574,0
4.5427,0.00016365,0
4.5433,0.00014653,0
4.5438,0.00012656,0
4.5443,0.00010239,0
4.5448,7.0329e-05,0
4.5453,3.3234e-05,0
4.5459,5.2033e-06,0
4.5464,-1.091e-05,0
4.5469,-1.9135e-05,0
4.5474,-2.0645e-05,0
4.5479,-1.561e-05,0
4.5485,-6.8818e-06,0
4.549,-4.8676e-06,0
4.5495,-1.2924e-05,0
4.55,-2.3331e-05,0
4.5505,-2.887e-05,0
4.5511,-2.7527e-05,0
4.5516,-2.0645e-05,0
4.5521,-1.7624e-05,0
4.5526,-1.9806e-05,0
4.5531,-1.9135e-05,0
4.5537,-1.561e-05,0
4.5542,-1.2589e-05,0
4.5547,-8.2246e-06,0
4.5552,6.714e-07,0
4.5557,9.5674e-06,0
4.5563,1.3931e-05,0
4.5568,1.3931e-05,0
4.5573,1.0407e-05,0
4.5578,6.8818e-06,0
4.5583,4.5319e-06,0
4.5588,-5.0355e-07,0
4.5594,-8.5603e-06,0
4.5599,-1.6281e-05,0
4.5604,-2.2995e-05,0
4.5609,-2.4674e-05,0
4.5614,-1.9638e-05,0
4.562,-9.7353e-06,0
4.5625,3.357e-06,0
4.563,1.796e-05,0
4.5635,3.0884e-05,0
4.564,3.8773e-05,0
4.5646,4.1123e-05,0
4.5651,3.9948e-05,0
4.5656,3.508e-05,0
4.5661,2.6688e-05,0
4.5666,1.8463e-05,0
4.5672,1.4099e-05,0
4.5677,1.6281e-05,0
4.5682,2.0981e-05,0
4.5687,2.5345e-05,0
4.5692,2.8367e-05,0
4.5697,2.6688e-05,0
4.5703,2.0981e-05,0
4.5708,1.3931e-05,0
4.5713,1.5946e-05,0
4.5718,2.8199e-05,0
4.5723,4.3137e-05,0
4.5729,5.2033e-05,0
4.5734,4.4816e-05,0
4.5739,2.9038e-05,0
4.5744,2.0813e-05,0
4.5749,2.3667e-05,0
4.5755,3.2395e-05,0
4.576,3.8773e-05,0
4.5765,3.3402e-05,0
4.577,1.7288e-05,0
4.5775,1.0071e-06,0
4.5781,-8.0568e-06,0
4.5786,-1.1582e-05,0
4.5791,-1.1582e-05,0
4.5796,-8.896e-06,0
4.5801,-2.8534e-06,0
4.5807,4.8676e-06,0
4.5812,1.0575e-05,0
4.5817,1.3931e-05,0
4.5822,1.4099e-05,0
4.5827,9.9031e-06,0
4.5832,4.1962e-06,0
4.5838,1.1749e-06,0
4.5843,1.1749e-06,0
4.5848,2.6856e-06,0
4.5853,2.5177e-06,0
4.5858,-2.3499e-06,0
4.5864,-7.7211e-06,0
4.5869,-7.3854e-06,0
4.5874,-3.357e-07,0
4.5879,6.0426e-06,0
4.5884,8.5603e-06,0
4.589,8.5603e-06,0
4.5895,1.0575e-05,0
4.59,1.7288e-05,0
4.5905,2.4674e-05,0
4.591,3.0549e-05,0
4.5916,3.5416e-05,0
4.5921,3.8102e-05,0
4.5926,3.8773e-05,0
4.5931,3.6591e-05,0
4.5936,3.0213e-05,0
4.5942,1.8967e-05,0
4.5947,4.8676e-06,0
4.5952,-7.0497e-06,0
4.5957,-1.5274e-05,0
4.5962,-1.2924e-05,0
4.5968,7.5532e-06,0
4.5973,4.2802e-05,0
4.5978,7.57e-05,0
4.5983,9.6849e-05,0
4.5988,0.00010356,0
4.5993,0.00010272,0
4.5999,0.00010457,0
4.6004,0.00010457,0
4.6009,8.9799e-05,0
4.6014,6.244e-05,0
4.6019,3.5752e-05,0
4.6025,2.0981e-05,0
4.603,1.5442e-05,0
4.6035,7.5532e-06,0
4.604,-4.0284e-06,0
4.6045,-8.896e-06,0
4.6051,-5.539e-06,0
4.6056,6.714e-07,0
4.6061,5.8747e-06,0
4.6066,1.1582e-05,0
4.6071,2.0478e-05,0
4.6077,2.9206e-05,0
4.6082,3.1388e-05,0
4.6087,2.2492e-05,0
4.6092,8.896e-06,0
4.6097,1.6785e-06,0
4.6102,2.182e-06,0
4.6108,2.3499e-06,0
4.6113,1.1749e-06,0
4.6118,-2.0142e-06,0
4.6123,-5.0355e-06,0
4.6128,-4.5319e-06,0
4.6134,-3.0213e-06,0
4.6139,-6.714e-06,0
4.6144,-1.4603e-05,0
4.6149,-2.4002e-05,0
4.6154,-3.1388e-05,0
4.616,-2.9038e-05,0
4.6165,-1.1917e-05,0
4.617,1.0407e-05,0
4.6175,2.2324e-05,0
4.618,1.9303e-05,0
4.6186,1.326e-05,0
4.6191,1.561e-05,0
4.6196,2.8534e-05,0
4.6201,4.9348e-05,0
4.6206,7.0329e-05,0
4.6212,8.6275e-05,0
4.6217,9.2317e-05,0
4.6222,8.8121e-05,0
4.6227,7.7882e-05,0
4.6232,6.7308e-05,0
4.6238,5.7572e-05,0
4.6243,4.7333e-05,0
4.6248,3.3066e-05,0
4.6253,1.6281e-05,0
4.6258,2.0142e-06,0
4.6263,-5.0355e-06,0
4.6269,2.5177e-06,0
4.6274,1.7792e-05,0
4.6279,2.4338e-05,0
4.6284,2.4002e-05,0
4.6289,2.6856e-05,0
4.6295,3.2059e-05,0
4.63,3.508e-05,0
4.6305,3.508e-05,0
4.631,3.2395e-05,0
4.6315,2.4842e-05,0
4.6321,1.1749e-05,0
4.6326,-1.5106e-06,0
4.6331,-1.1917e-05,0
4.6336,-2.031e-05,0
4.6341,-2.5177e-05,0
4.6347,-2.7863e-05,0
4.6352,-3.1052e-05,0
4.6357,-3.3906e-05,0
4.6362,-3.3234e-05,0
4.6367,-3.0045e-05,0
4.6372,-2.9709e-05,0
4.6378,-3.592e-05,0
4.6383,-4.2634e-05,0
4.6388,-4.6494e-05,0
4.6393,-4.9012e-05,0
4.6398,-4.5151e-05,0
4.6404,-3.3402e-05,0
4.6409,-1.8463e-05,0
4.6414,-3.8605e-06,0
4.6419,9.2317e-06,0
4.6424,2.4842e-05,0
4.643,4.2298e-05,0
4.6435,5.9586e-05,0
4.644,7.2175e-05,0
4.6445,7.9728e-05,0
4.645,7.8889e-05,0
4.6456,6.9993e-05,0
4.6461,6.3615e-05,0
4.6466,6.0761e-05,0
4.6471,5.6397e-05,0
4.6476,5.0523e-05,0
4.6482,4.3305e-05,0
4.6487,3.6423e-05,0
4.6492,3.1556e-05,0
4.6497,3.2059e-05,0
4.6502,3.7095e-05,0
4.6508,4.062e-05,0
4.6513,4.1794e-05,0
4.6518,4.2802e-05,0
4.6523,4.2802e-05,0
4.6528,3.6088e-05,0
4.6533,2.3667e-05,0
4.6539,1.2421e-05,0
4.6544,7.8889e-06,0
4.6549,1.1078e-05,0
4.6554,1.7288e-05,0
4.6559,2.2492e-05,0
4.6565,2.8367e-05,0
4.657,3.357e-05,0
4.6575,4.0452e-05,0
4.658,4.7837e-05,0
4.6585,5.3376e-05,0
4.6591,5.4215e-05,0
4.6596,5.1362e-05,0
4.6601,4.4144e-05,0
4.6606,3.0716e-05,0
4.6611,1.5274e-05,0
4.6617,5.0355e-07,0
4.6622,-1.4771e-05,0
4.6627,-2.652e-05,0
4.6632,-3.122e-05,0
4.6637,-3.6591e-05,0
4.6643,-3.8773e-05,0
4.6648,-2.8031e-05,0
4.6653,-7.0497e-06,0
4.6658,6.2104e-06,0
4.6663,1.0575e-05,0
4.6668,1.1917e-05,0
4.6674,1.1749e-06,0
4.6679,-2.0981e-05,0
4.6684,-3.508e-05,0
4.6689,-2.8031e-05,0
4.6694,-4.1962e-06,0
4.67,2.5177e-05,0
4.6705,4.5487e-05,0
4.671,5.7237e-05,0
4.6715,6.3615e-05,0
4.672,6.0594e-05,0
4.6726,5.0019e-05,0
4.6731,4.2634e-05,0
4.6736,4.8844e-05,0
4.6741,6.1601e-05,0
4.6746,5.8579e-05,0
4.6752,3.2731e-05,0
4.6757,-4.0284e-06,0
4.6762,-3.4073e-05,0
4.6767,-4.9851e-05,0
4.6772,-5.2537e-05,0
4.6777,-4.6494e-05,0
4.6783,-3.508e-05,0
4.6788,-2.4842e-05,0
4.6793,-2.1317e-05,0
4.6798,-1.7121e-05,0
4.6803,-5.7069e-06,0
4.6809,1.0239e-05,0
4.6814,2.2828e-05,0
4.6819,2.7359e-05,0
4.6824,2.4842e-05,0
4.6829,1.8296e-05,0
4.6835,1.8463e-06,0
4.684,-2.8031e-05,0
4.6845,-5.7908e-05,0
4.685,-7.3014e-05,0
4.6855,-7.2679e-05,0
4.6861,-6.5126e-05,0
4.6866,-5.3208e-05,0
4.6871,-3.3066e-05,0
4.6876,-2.182e-06,0
4.6881,3.0549e-05,0
4.6887,5.4887e-05,0
4.6892,8.0735e-05,0
4.6897,0.0001232,0
4.6902,0.00017238,0
4.6907,0.00019991,0
4.6913,0.00019118,0
4.6918,0.0001561,0
4.6923,0.00011699,0
4.6928,8.2414e-05,0
4.6933,5.9754e-05,0
4.6938,5.5558e-05,0
4.6944,6.3279e-05,0
4.6949,7.5029e-05,0
4.6954,8.4092e-05,0
4.6959,8.7617e-05,0
4.6964,8.4092e-05,0
4.697,7.6204e-05,0
4.6975,6.8482e-05,0
4.698,6.1601e-05,0
4.6985,6.1601e-05,0
4.699,6.6972e-05,0
4.6996,6.7475e-05,0
4.7001,5.9251e-05,0
4.7006,4.5151e-05,0
4.7011,3.1388e-05,0
4.7016,2.4002e-05,0
4.7022,1.9806e-05,0
4.7027,1.5778e-05,0
4.7032,6.5461e-06,0
4.7037,-1.0239e-05,0
4.7042,-2.9709e-05,0
4.7047,-4.7501e-05,0
4.7053,-6.5965e-05,0
4.7058,-8.0064e-05,0
4.7063,-8.4428e-05,0
4.7068,-8.1407e-05,0
4.7073,-7.6036e-05,0
4.7079,-7.0665e-05,0
4.7084,-6.1936e-05,0
4.7089,-5.0523e-05,0
4.7094,-3.8773e-05,0
4.7099,-2.8702e-05,0
4.7105,-1.8463e-05,0
4.711,-8.5603e-06,0
4.7115,-1.5106e-06,0
4.712,1.1749e-06,0
4.7125,2.6856e-06,0
4.7131,6.5461e-06,0
4.7136,1.2589e-05,0
4.7141,1.8296e-05,0
4.7146,2.4674e-05,0
4.7151,2.9877e-05,0
4.7157,3.2059e-05,0
4.7162,3.4745e-05,0
4.7167,3.978e-05,0
4.7172,4.7669e-05,0
4.7177,5.388e-05,0
4.7183,5.6565e-05,0
4.7188,5.5894e-05,0
4.7193,4.9516e-05,0
4.7198,3.8102e-05,0
4.7203,2.7192e-05,0
4.7208,1.9974e-05,0
4.7214,1.4267e-05,0
4.7219,7.7211e-06,0
4.7224,-2.3499e-06,0
4.7229,-1.561e-05,0
4.7234,-2.6352e-05,0
4.724,-2.8702e-05,0
4.7245,-2.6184e-05,0
4.725,-2.7024e-05,0
4.7255,-3.5752e-05,0
4.726,-4.3809e-05,0
4.7266,-3.8773e-05,0
4.7271,-1.5274e-05,0
4.7276,2.4002e-05,0
4.7281,6.4622e-05,0
4.7286,9.5171e-05,0
4.7292,0.0001133,0
4.7297,0.00011749,0
4.7302,0.00010726,0
4.7307,9.2821e-05,0
4.7312,8.5771e-05,0
4.7317,8.3085e-05,0
4.7323,7.2343e-05,0
4.7328,5.4551e-05,0
4.7333,3.4073e-05,0
4.7338,1.1917e-05,0
4.7343,-1.3931e-05,0
4.7349,-4.0787e-05,0
4.7354,-5.9251e-05,0
4.7359,-5.8747e-05,0
4.7364,-3.9445e-05,0
4.7369,-1.4939e-05,0
4.7375,2.5177e-06,0
4.738,1.0575e-05,0
4.7385,1.6281e-05,0
4.739,2.3835e-05,0
4.7395,2.7192e-05,0
4.7401,1.796e-05,0
4.7406,1.8463e-06,0
4.7411,-1.0071e-05,0
4.7416,-1.5946e-05,0
4.7421,-2.0142e-05,0
4.7427,-2.5681e-05,0
4.7432,-3.4073e-05,0
4.7437,-4.4144e-05,0
4.7442,-4.9516e-05,0
4.7447,-4.4312e-05,0
4.7453,-3.122e-05,0
4.7458,-9.2317e-06,0
4.7463,1.7624e-05,0
4.7468,4.7501e-05,0
4.7473,7.7211e-05,0
4.7478,9.5506e-05,0
4.7484,0.0001044,0
4.7489,0.00011733,0
4.7494,0.00013243,0
4.7499,0.0001368,0
4.7504,0.00012035,0
4.751,8.9632e-05,0
4.7515,6.1601e-05,0
4.752,4.4816e-05,0
4.7525,3.5752e-05,0
4.753,2.8702e-05,0
4.7536,2.3835e-05,0
4.7541,2.031e-05,0
4.7546,1.4603e-05,0
4.7551,8.0568e-06,0
4.7556,3.6927e-06,0
4.7562,-1.1749e-06,0
4.7567,-9.7353e-06,0
4.7572,-1.7624e-05,0
4.7577,-1.4267e-05,0
4.7582,3.357e-07,0
4.7588,1.4939e-05,0
4.7593,2.5345e-05,0
4.7598,3.6759e-05,0
4.7603,5.0858e-05,0
4.7608,7.0329e-05,0
4.7613,8.9464e-05,0
4.7619,0.00010004,0
4.7624,9.6513e-05,0
4.7629,8.04e-05,0
4.7634,6.0929e-05,0
4.7639,3.978e-05,0
4.7645,1.4939e-05,0
4.765,-6.2104e-06,0
4.7655,-1.4603e-05,0
4.766,-1.7792e-05,0
4.7665,-3.3738e-05,0
4.7671,-6.1097e-05,0
4.7676,-8.3589e-05,0
4.7681,-8.7785e-05,0
4.7686,-7.6875e-05,0
4.7691,-6.009e-05,0
4.7697,-4.3809e-05,0
4.7702,-3.0045e-05,0
4.7707,-2.3667e-05,0
4.7712,-2.652e-05,0
4.7717,-3.6591e-05,0
4.7722,-5.5222e-05,0
4.7728,-7.8721e-05,0
4.7733,-8.5939e-05,0
4.7738,-6.5293e-05,0
4.7743,-2.9709e-05,0
4.7748,5.2033e-06,0
4.7754,3.4073e-05,0
4.7759,6.0761e-05,0
4.7764,9.0974e-05,0
4.7769,0.00012186,0
4.7774,0.00015023,0
4.778,0.00017104,0
4.7785,0.00018128,0
4.779,0.0001796,0
4.7795,0.00015845,0
4.78,0.00011229,0
4.7806,5.4887e-05,0
4.7811,8.2246e-06,0
4.7816,-1.7792e-05,0
4.7821,-2.5513e-05,0
4.7826,-2.182e-05,0
4.7832,-1.6953e-05,0
4.7837,-1.3596e-05,0
4.7842,-1.1414e-05,0
4.7847,-1.2589e-05,0
4.7852,-1.4939e-05,0
4.7858,-1.3596e-05,0
4.7863,-1.091e-05,0
4.7868,-8.7282e-06,0
4.7873,-7.3854e-06,0
4.7878,-7.7211e-06,0
4.7883,-9.3996e-06,0
4.7889,-9.9031e-06,0
4.7894,-4.3641e-06,0
4.7899,4.5319e-06,0
4.7904,1.2589e-05,0
4.7909,1.4603e-05,0
4.7915,8.2246e-06,0
4.792,-1.0071e-06,0
4.7925,-3.1891e-06,0
4.793,4.5319e-06,0
4.7935,2.0981e-05,0
4.7941,4.1794e-05,0
4.7946,5.9586e-05,0
4.7951,6.9154e-05,0
4.7956,6.9993e-05,0
4.7961,6.6636e-05,0
4.7967,6.2608e-05,0
4.7972,5.9251e-05,0
4.7977,5.4551e-05,0
4.7982,4.5487e-05,0
4.7987,2.9374e-05,0
4.7992,9.7353e-06,0
4.7998,-3.5248e-06,0
4.8003,-7.2175e-06,0
4.8008,-7.0497e-06,0
4.8013,-9.2317e-06,0
4.8018,-9.0639e-06,0
4.8024,-5.2033e-06,0
4.8029,-2.182e-06,0
4.8034,-2.0142e-06,0
4.8039,-2.8534e-06,0
4.8044,1.6785e-07,0
4.805,9.9031e-06,0
4.8055,1.8631e-05,0
4.806,2.0478e-05,0
4.8065,1.7624e-05,0
4.807,1.5274e-05,0
4.8076,1.5274e-05,0
4.8081,1.4435e-05,0
4.8086,9.7353e-06,0
4.8091,6.714e-07,0
4.8096,-7.2175e-06,0
4.8102,-6.3783e-06,0
4.8107,3.8605e-06,0
4.8112,1.4939e-05,0
4.8117,2.1653e-05,0
4.8122,2.2828e-05,0
4.8128,2.0142e-05,0
4.8133,1.7792e-05,0
4.8138,1.8631e-05,0
4.8143,1.8967e-05,0
4.8148,1.2589e-05,0
4.8153,-1.5106e-06,0
4.8159,-1.9638e-05,0
4.8164,-3.1052e-05,0
4.8169,-2.5681e-05,0
4.8174,-5.7069e-06,0
4.8179,2.4002e-05,0
4.8185,5.8244e-05,0
4.819,8.4428e-05,0
4.8195,9.8024e-05,0
4.82,0.00010944,0
4.8205,0.00012538,0
4.8211,0.0001415,0
4.8216,0.00014888,0
4.8221,0.00013797,0
4.8226,0.00010591,0
4.8231,5.8579e-05,0
4.8237,4.5319e-06,0
4.8242,-4.5151e-05,0
4.8247,-8.0064e-05,0
4.8252,-9.601e-05,0
4.8257,-9.9535e-05,0
4.8262,-9.4163e-05,0
4.8268,-8.1239e-05,0
4.8273,-6.6468e-05,0
4.8278,-5.539e-05,0
4.8283,-4.4648e-05,0
4.8288,-3.0381e-05,0
4.8294,-1.7792e-05,0
4.8299,-1.1246e-05,0
4.8304,-6.5461e-06,0
4.8309,5.2033e-06,0
4.8314,2.6688e-05,0
4.832,5.0187e-05,0
4.8325,6.4286e-05,0
4.833,7.1672e-05,0
4.8335,7.7714e-05,0
4.834,8.5603e-05,0
4.8346,9.5338e-05,0
4.8351,0.00010121,0
4.8356,9.6849e-05,0
4.8361,8.4428e-05,0
4.8366,7.5029e-05,0
4.8372,7.7043e-05,0
4.8377,8.4764e-05,0
4.8382,8.9464e-05,0
4.8387,9.0471e-05,0
4.8392,8.6442e-05,0
4.8398,7.4357e-05,0
4.8403,5.4719e-05,0
4.8408,3.2059e-05,0
4.8413,1.2589e-05,0
4.8418,-4.5319e-06,0
4.8423,-2.652e-05,0
4.8429,-5.0187e-05,0
4.8434,-6.244e-05,0
4.8439,-6.2272e-05,0
4.8444,-6.2272e-05,0
4.8449,-5.7237e-05,0
4.8455,-3.6423e-05,0
4.846,-8.896e-06,0
4.8465,1.091e-05,0
4.847,1.8296e-05,0
4.8475,1.7121e-05,0
4.8481,1.326e-05,0
4.8486,1.0239e-05,0
4.8491,8.5603e-06,0
4.8496,6.714e-07,0
4.8501,-1.091e-05,0
4.8507,-1.3596e-05,0
4.8512,-6.8818e-06,0
4.8517,2.182e-06,0
4.8522,7.0497e-06,0
4.8527,9.0639e-06,0
4.8533,1.326e-05,0
4.8538,1.8631e-05,0
4.8543,2.0142e-05,0
4.8548,1.7624e-05,0
4.8553,1.2253e-05,0
4.8558,4.5319e-06,0
4.8564,-2.8534e-06,0
4.8569,-7.8889e-06,0
4.8574,-1.4771e-05,0
4.8579,-2.1988e-05,0
4.8584,-2.2995e-05,0
4.859,-1.7624e-05,0
4.8595,-1.091e-05,0
4.86,-5.539e-06,0
4.8605,8.3925e-07,0
4.861,9.9031e-06,0
4.8616,2.3163e-05,0
4.8621,3.7263e-05,0
4.8626,4.7166e-05,0
4.8631,4.9516e-05,0
4.8636,4.8844e-05,0
4.8642,5.0355e-05,0
4.8647,5.7237e-05,0
4.8652,6.5965e-05,0
4.8657,7.0329e-05,0
4.8662,7.0665e-05,0
4.8667,6.9657e-05,0
4.8673,6.7979e-05,0
4.8678,6.4118e-05,0
4.8683,5.3376e-05,0
4.8688,3.5248e-05,0
4.8693,1.6785e-05,0
4.8699,7.5532e-06,0
4.8704,1.3931e-05,0
4.8709,3.1388e-05,0
4.8714,4.7837e-05,0
4.8719,5.7237e-05,0
4.8725,6.1601e-05,0
4.873,6.1433e-05,0
4.8735,5.9586e-05,0
4.874,6.0929e-05,0
4.8745,6.1601e-05,0
4.8751,5.8244e-05,0
4.8756,4.9516e-05,0
4.8761,3.1052e-05,0
4.8766,3.6927e-06,0
4.8771,-2.8702e-05,0
4.8777,-5.6565e-05,0
4.8782,-6.7308e-05,0
4.8787,-5.9586e-05,0
4.8792,-4.213e-05,0
4.8797,-1.7288e-05,0
4.8803,1.2589e-05,0
4.8808,3.592e-05,0
4.8813,4.5991e-05,0
4.8818,5.153e-05,0
4.8823,6.1601e-05,0
4.8828,6.865e-05,0
4.8834,6.6972e-05,0
4.8839,5.3376e-05,0
4.8844,2.6688e-05,0
4.8849,1.0071e-06,0
4.8854,-5.0355e-07,0
4.886,1.5946e-05,0
4.8865,2.2324e-05,0
4.887,9.3996e-06,0
4.8875,-1.3092e-05,0
4.888,-3.6927e-05,0
4.8886,-4.8508e-05,0
4.8891,-4.0955e-05,0
4.8896,-2.6184e-05,0
4.8901,-1.796e-05,0
4.8906,-1.8967e-05,0
4.8912,-2.3163e-05,0
4.8917,-2.501e-05,0
4.8922,-1.9974e-05,0
4.8927,-1.0407e-05,0
4.8932,5.0355e-07,0
4.8937,1.5778e-05,0
4.8943,3.3066e-05,0
4.8948,4.2802e-05,0
4.8953,4.213e-05,0
4.8958,3.1052e-05,0
4.8963,1.5274e-05,0
4.8969,2.3499e-06,0
4.8974,-5.539e-06,0
4.8979,-5.2033e-06,0
4.8984,-1.0071e-06,0
4.8989,5.0355e-07,0
4.8995,-1.8463e-06,0
4.9,-1.2924e-05,0
4.9005,-3.0549e-05,0
4.901,-4.2466e-05,0
4.9015,-4.1459e-05,0
4.9021,-2.9038e-05,0
4.9026,-1.5442e-05,0
4.9031,-6.8818e-06,0
4.9036,6.714e-07,0
4.9041,1.2757e-05,0
4.9047,2.9709e-05,0
4.9052,4.8173e-05,0
4.9057,6.5126e-05,0
4.9062,7.6539e-05,0
4.9067,7.7379e-05,0
4.9073,6.9657e-05,0
4.9078,6.1433e-05,0
4.9083,5.9419e-05,0
4.9088,6.3279e-05,0
4.9093,7.0665e-05,0
4.9098,7.8553e-05,0
4.9104,8.1743e-05,0
4.9109,7.6371e-05,0
4.9114,6.5461e-05,0
4.9119,5.9586e-05,0
4.9124,6.2943e-05,0
4.913,7.0497e-05,0
4.9135,7.1504e-05,0
4.914,6.2943e-05,0
4.9145,4.8844e-05,0
4.915,3.3066e-05,0
4.9156,2.0478e-05,0
4.9161,1.2924e-05,0
4.9166,9.0639e-06,0
4.9171,4.3641e-06,0
4.9176,-5.539e-06,0
4.9182,-2.1317e-05,0
4.9187,-3.7766e-05,0
4.9192,-4.7501e-05,0
4.9197,-4.4816e-05,0
4.9202,-3.1052e-05,0
4.9207,-1.4939e-05,0
4.9213,-5.0355e-06,0
4.9218,5.0355e-07,0
4.9223,4.1962e-06,0
4.9228,9.0639e-06,0
4.9233,1.8296e-05,0
4.9239,3.2563e-05,0
4.9244,4.7333e-05,0
4.9249,5.388e-05,0
4.9254,4.6326e-05,0
4.9259,3.0716e-05,0
4.9265,1.9638e-05,0
4.927,1.8463e-05,0
4.9275,2.4002e-05,0
4.928,3.0716e-05,0
4.9285,3.8102e-05,0
4.9291,5.0187e-05,0
4.9296,6.1601e-05,0
4.9301,6.63e-05,0
4.9306,6.0258e-05,0
4.9311,4.2802e-05,0
4.9317,1.8799e-05,0
4.9322,6.714e-07,0
4.9327,-6.2104e-06,0
4.9332,-7.5532e-06,0
4.9337,-6.0426e-06,0
4.9342,-4.5319e-06,0
4.9348,-7.3854e-06,0
4.9353,-1.8296e-05,0
4.9358,-3.3906e-05,0
4.9363,-4.1291e-05,0
4.9368,-3.5584e-05,0
4.9374,-1.9135e-05,0
4.9379,-8.3925e-07,0
4.9384,1.3596e-05,0
4.9389,2.7192e-05,0
4.9394,4.1627e-05,0
4.94,5.3544e-05,0
4.9405,5.9922e-05,0
4.941,6.0761e-05,0
4.9415,5.7908e-05,0
4.942,5.539e-05,0
4.9426,4.918e-05,0
4.9431,3.3402e-05,0
4.9436,1.2421e-05,0
4.9441,-3.8605e-06,0
4.9446,-1.0575e-05,0
4.9452,-1.3092e-05,0
4.9457,-2.1653e-05,0
4.9462,-3.9277e-05,0
4.9467,-5.8579e-05,0
4.9472,-7.0161e-05,0
4.9478,-6.9993e-05,0
4.9483,-5.9586e-05,0
4.9488,-3.7766e-05,0
4.9493,-8.896e-06,0
4.9498,2.6352e-05,0
4.9503,5.8244e-05,0
4.9509,7.5029e-05,0
4.9514,7.7379e-05,0
4.9519,7.4525e-05,0
4.9524,7.6036e-05,0
4.9529,8.4092e-05,0
4.9535,9.2149e-05,0
4.954,8.9967e-05,0
4.9545,7.7714e-05,0
4.955,6.244e-05,0
4.9555,5.153e-05,0
4.9561,4.683e-05,0
4.9566,4.5991e-05,0
4.9571,4.7837e-05,0
4.9576,5.0858e-05,0
4.9581,4.5151e-05,0
4.9587,2.8031e-05,0
4.9592,5.2033e-06,0
4.9597,-1.3596e-05,0
4.9602,-2.4506e-05,0
4.9607,-2.7024e-05,0
4.9612,-1.9638e-05,0
4.9618,-4.0284e-06,0
4.9623,1.4435e-05,0
4.9628,2.6017e-05,0
4.9633,3.1891e-05,0
4.9638,4.1459e-05,0
4.9644,5.6062e-05,0
4.9649,6.6972e-05,0
4.9654,7.1e-05,0
4.9659,6.63e-05,0
4.9664,5.3544e-05,0
4.967,3.8773e-05,0
4.9675,2.4002e-05,0
4.968,1.0239e-05,0
4.9685,-2.5177e-06,0
4.969,-8.2246e-06,0
4.9696,-2.5177e-06,0
4.9701,5.8747e-06,0
4.9706,2.182e-06,0
4.9711,-1.7288e-05,0
4.9716,-3.6927e-05,0
4.9722,-4.3473e-05,0
4.9727,-4.2634e-05,0
4.9732,-3.9445e-05,0
4.9737,-3.508e-05,0
4.9742,-3.0381e-05,0
4.9748,-2.7024e-05,0
4.9753,-2.501e-05,0
4.9758,-2.5345e-05,0
4.9763,-2.1149e-05,0
4.9768,-9.7353e-06,0
4.9773,8.3925e-07,0
4.9779,-2.5177e-06,0
4.9784,-1.7624e-05,0
4.9789,-2.3835e-05,0
4.9794,-9.9031e-06,0
4.9799,1.1078e-05,0
4.9805,2.4002e-05,0
4.981,3.0381e-05,0
4.9815,3.5584e-05,0
4.982,4.0955e-05,0
4.9825,4.5655e-05,0
4.9831,4.918e-05,0
4.9836,5.2537e-05,0
4.9841,5.5894e-05,0
4.9846,5.5558e-05,0
4.9851,5.4551e-05,0
4.9857,4.9012e-05,0
4.9862,3.592e-05,0
4.9867,2.1317e-05,0
4.9872,1.2589e-05,0
4.9877,1.5106e-05,0
4.9882,2.4506e-05,0
4.9888,3.0045e-05,0
4.9893,2.8031e-05,0
4.9898,2.4506e-05,0
4.9903,2.2156e-05,0
4.9908,1.796e-05,0
4.9914,1.1917e-05,0
4.9919,8.3925e-06,0
4.9924,1.2253e-05,0
4.9929,1.9303e-05,0
4.9934,2.6017e-05,0
4.994,3.0716e-05,0
4.9945,3.4745e-05,0
4.995,3.9277e-05,0
4.9955,4.5991e-05,0
4.996,5.1362e-05,0
4.9966,5.0523e-05,0
4.9971,4.4816e-05,0
4.9976,3.743e-05,0
4.9981,2.8702e-05,0
4.9986,1.8967e-05,0
4.9992,1.1246e-05,0
4.9997,5.7069e-06,0
5.0002,-1.0071e-06,0
5.0007,-7.0497e-06,0
5.0012,-8.896e-06,0
5.0018,-3.1891e-06,0
5.0023,8.896e-06,0
5.0028,2.4506e-05,0
5.0033,3.9445e-05,0
5.0038,4.6662e-05,0
5.0043,4.1459e-05,0
5.0049,3.1388e-05,0
5.0054,2.6688e-05,0
5.0059,3.122e-05,0
5.0064,4.0452e-05,0
5.0069,4.5823e-05,0
5.0075,4.213e-05,0
5.008,3.0213e-05,0
5.0085,1.3931e-05,0
5.009,-2.8534e-06,0
5.0095,-1.8631e-05,0
5.0101,-2.9709e-05,0
5.0106,-2.6017e-05,0
5.0111,-1.091e-05,0
5.0116,2.8534e-06,0
5.0121,1.1078e-05,0
5.0127,1.9135e-05,0
5.0132,3.1388e-05,0
5.0137,5.2201e-05,0
5.0142,7.8218e-05,0
5.0147,0.00010222,0
5.0152,0.00011414,0
5.0158,0.00010675,0
5.0163,8.4764e-05,0
5.0168,6.1097e-05,0
5.0173,4.4984e-05,0
5.0178,3.1388e-05,0
5.0184,1.4267e-05,0
5.0189,-3.1891e-06,0
5.0194,-1.5106e-05,0
5.0199,-2.3331e-05,0
5.0204,-3.4745e-05,0
5.021,-4.9012e-05,0
5.0215,-5.774e-05,0
5.022,-5.7237e-05,0
5.0225,-4.7166e-05,0
5.023,-3.0213e-05,0
5.0236,-1.2421e-05,0
5.0241,1.6785e-06,0
5.0246,8.5603e-06,0
5.0251,5.8747e-06,0
5.0256,-1.6785e-07,0
5.0262,-5.539e-06,0
5.0267,-6.2104e-06,0
5.0272,1.6785e-06,0
5.0277,1.0575e-05,0
5.0282,1.1414e-05,0
5.0287,1.5106e-06,0
5.0293,-9.5674e-06,0
5.0298,-5.8747e-06,0
5.0303,1.1246e-05,0
5.0308,3.508e-05,0
5.0313,5.5558e-05,0
5.0319,6.6468e-05,0
5.0324,6.9657e-05,0
5.0329,7.2679e-05,0
5.0334,8.5771e-05,0
5.0339,0.00010591,0
5.0345,0.00012471,0
5.035,0.00013764,0
5.0355,0.00013814,0
5.036,0.00011901,0
5.0365,8.191e-05,0
5.0371,3.9948e-05,0
5.0376,4.1962e-06,0
5.0381,-1.9135e-05,0
5.0386,-3.508e-05,0
5.0391,-5.0858e-05,0
5.0397,-6.4622e-05,0
5.0402,-7.1336e-05,0
5.0407,-6.9657e-05,0
5.0412,-6.2943e-05,0
5.0417,-5.7572e-05,0
5.0423,-5.8579e-05,0
5.0428,-5.7237e-05,0
5.0433,-4.3809e-05,0
5.0438,-2.1653e-05,0
5.0443,-8.3925e-07,0
5.0448,9.5674e-06,0
5.0454,1.2589e-05,0
5.0459,1.6617e-05,0
5.0464,2.3331e-05,0
5.0469,2.9709e-05,0
5.0474,3.4409e-05,0
5.048,3.6088e-05,0
5.0485,3.508e-05,0
5.049,3.4073e-05,0
5.0495,3.4409e-05,0
5.05,3.2059e-05,0
5.0506,2.4506e-05,0
5.0511,1.4603e-05,0
5.0516,9.9031e-06,0
5.0521,8.5603e-06,0
5.0526,6.8818e-06,0
5.0532,5.0355e-06,0
5.0537,6.2104e-06,0
5.0542,1.6449e-05,0
5.0547,3.4577e-05,0
5.0552,4.918e-05,0
5.0557,5.5558e-05,0
5.0563,6.0258e-05,0
5.0568,6.5126e-05,0
5.0573,6.6636e-05,0
5.0578,6.1265e-05,0
5.0583,5.3208e-05,0
5.0589,4.8676e-05,0
5.0594,4.6998e-05,0
5.0599,4.2802e-05,0
5.0604,3.3402e-05,0
5.0609,2.1988e-05,0
5.0615,1.5106e-05,0
5.062,1.3764e-05,0
5.0625,1.1582e-05,0
5.063,8.5603e-06,0
5.0635,7.5532e-06,0
5.0641,7.5532e-06,0
5.0646,3.8605e-06,0
5.0651,-3.8605e-06,0
5.0656,-1.091e-05,0
5.0661,-1.1078e-05,0
5.0667,-7.5532e-06,0
5.0672,-4.8676e-06,0
5.0677,-6.2104e-06,0
5.0682,-9.7353e-06,0
5.0687,-1.7121e-05,0
5.0693,-2.5681e-05,0
5.0698,-2.5849e-05,0
5.0703,-1.2253e-05,0
5.0708,1.0239e-05,0
5.0713,3.0381e-05,0
5.0718,4.1794e-05,0
5.0724,4.9683e-05,0
5.0729,5.6901e-05,0
5.0734,5.6397e-05,0
5.0739,4.683e-05,0
5.0744,3.4577e-05,0
5.075,2.8367e-05,0
5.0755,3.2563e-05,0
5.076,3.8605e-05,0
5.0765,3.1891e-05,0
5.077,9.7353e-06,0
5.0776,-1.4267e-05,0
5.0781,-2.5513e-05,0
5.0786,-2.0142e-05,0
5.0791,-6.2104e-06,0
5.0796,6.5461e-06,0
5.0802,9.2317e-06,0
5.0807,6.3783e-06,0
5.0812,7.2175e-06,0
5.0817,9.7353e-06,0
5.0822,5.2033e-06,0
5.0827,-5.539e-06,0
5.0833,-1.3596e-05,0
5.0838,-1.091e-05,0
5.0843,2.0142e-06,0
5.0848,1.8463e-05,0
5.0853,3.3738e-05,0
5.0859,4.6998e-05,0
5.0864,5.6397e-05,0
5.0869,5.8747e-05,0
5.0874,5.9922e-05,0
5.0879,7.1336e-05,0
5.0885,9.1142e-05,0
5.089,0.00010759,0
5.0895,0.00011498,0
5.09,0.00011196,0
5.0905,0.00010037,0
5.0911,8.2078e-05,0
5.0916,5.8412e-05,0
5.0921,3.2563e-05,0
5.0926,4.5319e-06,0
5.0931,-2.1317e-05,0
5.0937,-3.6591e-05,0
5.0942,-4.0955e-05,0
5.0947,-4.3137e-05,0
5.0952,-4.7166e-05,0
5.0957,-4.9516e-05,0
5.0963,-4.1794e-05,0
5.0968,-2.7359e-05,0
5.0973,-1.326e-05,0
5.0978,-3.357e-07,0
5.0983,1.2924e-05,0
5.0988,2.7863e-05,0
5.0994,3.8773e-05,0
5.0999,4.3305e-05,0
5.1004,4.3977e-05,0
5.1009,4.4816e-05,0
5.1014,4.7166e-05,0
5.102,4.9348e-05,0
5.1025,5.0858e-05,0
5.103,5.069e-05,0
5.1035,4.6662e-05,0
5.104,3.7095e-05,0
5.1046,2.7359e-05,0
5.1051,2.5681e-05,0
5.1056,2.7359e-05,0
5.1061,1.9303e-05,0
5.1066,2.0142e-06,0
5.1072,-1.5778e-05,0
5.1077,-2.5849e-05,0
5.1082,-2.7359e-05,0
5.1087,-3.0045e-05,0
5.1092,-4.1794e-05,0
5.1098,-5.7572e-05,0
5.1103,-6.2943e-05,0
5.1108,-5.2369e-05,0
5.1113,-3.122e-05,0
5.1118,-4.1962e-06,0
5.1123,2.7863e-05,0
5.1129,5.2873e-05,0
5.1134,6.3279e-05,0
5.1139,6.3615e-05,0
5.1144,5.8747e-05,0
5.1149,5.0187e-05,0
5.1155,4.1794e-05,0
5.116,3.6088e-05,0
5.1165,2.9374e-05,0
5.117,1.9303e-05,0
5.1175,9.9031e-06,0
5.1181,5.539e-06,0
5.1186,7.5532e-06,0
5.1191,9.2317e-06,0
5.1196,7.2175e-06,0
5.1201,4.8676e-06,0
5.1207,3.1891e-06,0
5.1212,7.2175e-06,0
5.1217,1.3596e-05,0
5.1222,1.7624e-05,0
5.1227,1.6281e-05,0
5.1232,1.0071e-05,0
5.1238,5.8747e-06,0
5.1243,6.5461e-06,0
5.1248,1.1582e-05,0
5.1253,2.1317e-05,0
5.1258,3.5416e-05,0
5.1264,4.6326e-05,0
5.1269,4.9851e-05,0
5.1274,4.9851e-05,0
5.1279,4.918e-05,0
5.1284,5.1194e-05,0
5.129,5.153e-05,0
5.1295,4.8005e-05,0
5.13,4.4648e-05,0
5.1305,4.1962e-05,0
5.131,3.5248e-05,0
5.1316,2.6352e-05,0
5.1321,1.3596e-05,0
5.1326,2.0142e-06,0
5.1331,-3.1891e-06,0
5.1336,-1.6785e-06,0
5.1342,5.2033e-06,0
5.1347,9.2317e-06,0
5.1352,6.5461e-06,0
5.1357,2.0142e-06,0
5.1362,5.539e-06,0
5.1368,1.7624e-05,0
5.1373,2.8031e-05,0
5.1378,3.3906e-05,0
5.1383,4.2466e-05,0
5.1388,5.1865e-05,0
5.1393,5.7572e-05,0
5.1399,5.8412e-05,0
5.1404,5.5558e-05,0
5.1409,4.9516e-05,0
5.1414,3.8102e-05,0
5.1419,1.9471e-05,0
5.1425,-4.1962e-06,0
5.143,-2.2156e-05,0
5.1435,-2.6688e-05,0
5.144,-2.0981e-05,0
5.1445,-1.4267e-05,0
5.1451,-9.7353e-06,0
5.1456,-5.539e-06,0
5.1461,-6.714e-07,0
5.1466,2.5177e-06,0
5.1471,2.5177e-06,0
5.1477,4.5319e-06,0
5.1482,1.3931e-05,0
5.1487,2.9374e-05,0
5.1492,3.978e-05,0
5.1497,4.1123e-05,0
5.1502,3.6423e-05,0
5.1508,2.9374e-05,0
5.1513,1.8631e-05,0
5.1518,6.5461e-06,0
5.1523,3.6927e-06,0
5.1528,1.2924e-05,0
5.1534,2.3499e-05,0
5.1539,2.7695e-05,0
5.1544,2.4674e-05,0
5.1549,1.8296e-05,0
5.1554,1.6449e-05,0
5.156,2.3499e-05,0
5.1565,3.4073e-05,0
5.157,3.6591e-05,0
5.1575,2.9877e-05,0
5.158,2.0981e-05,0
5.1586,1.3931e-05,0
5.1591,7.3854e-06,0
5.1596,-6.714e-07,0
5.1601,-7.8889e-06,0
5.1606,-1.0071e-05,0
5.1612,-6.8818e-06,0
5.1617,-3.0213e-06,0
5.1622,3.357e-07,0
5.1627,4.1962e-06,0
5.1632,7.0497e-06,0
5.1638,7.8889e-06,0
5.1643,1.0575e-05,0
5.1648,1.5442e-05,0
5.1653,1.8631e-05,0
5.1658,2.1988e-05,0
5.1663,2.2492e-05,0
5.1669,1.9303e-05,0
5.1674,1.796e-05,0
5.1679,2.031e-05,0
5.1684,2.031e-05,0
5.1689,1.7456e-05,0
5.1695,1.5778e-05,0
5.17,2.182e-05,0
5.1705,3.4241e-05,0
5.171,4.7333e-05,0
5.1715,5.9419e-05,0
5.1721,7.1504e-05,0
5.1726,8.04e-05,0
5.1731,7.9057e-05,0
5.1736,6.5629e-05,0
5.1741,4.213e-05,0
5.1747,1.6785e-05,0
5.1752,-8.3925e-07,0
5.1757,-1.1246e-05,0
5.1762,-2.1149e-05,0
5.1767,-3.1724e-05,0
5.1772,-4.1123e-05,0
5.1778,-4.4648e-05,0
5.1783,-4.1962e-05,0
5.1788,-3.1891e-05,0
5.1793,-1.6953e-05,0
5.1798,-2.8534e-06,0
5.1804,1.0239e-05,0
5.1809,1.9974e-05,0
5.1814,2.652e-05,0
5.1819,3.2731e-05,0
5.1824,4.0955e-05,0
5.183,4.6998e-05,0
5.1835,4.8005e-05,0
5.184,4.5151e-05,0
5.1845,4.1291e-05,0
5.185,3.7934e-05,0
5.1856,3.743e-05,0
