60.206,-1.7624e-05,0
60.207,-3.3234e-05,0
60.207,-4.0116e-05,0
60.208,-4.4648e-05,0
60.208,-4.9012e-05,0
60.209,-5.4551e-05,0
60.209,-6.009e-05,0
60.21,-6.714e-05,0
60.211,-7.7379e-05,0
60.211,-8.7617e-05,0
60.212,-9.0806e-05,0
60.212,-8.4092e-05,0
60.213,-7.5196e-05,0
60.213,-7.0832e-05,0
60.214,-6.9322e-05,0
60.214,-6.7475e-05,0
60.215,-6.7643e-05,0
60.215,-6.7308e-05,0
60.216,-6.3279e-05,0
60.216,-5.388e-05,0
60.217,-4.1627e-05,0
60.217,-3.2731e-05,0
60.218,-2.8367e-05,0
60.218,-2.031e-05,0
60.219,-2.5177e-06,0
60.219,1.2924e-05,0
60.22,1.5946e-05,0
60.22,1.1917e-05,0
60.221,7.2175e-06,0
60.221,4.8676e-06,0
60.222,6.2104e-06,0
60.222,8.5603e-06,0
60.223,9.7353e-06,0
60.224,1.2253e-05,0
60.224,1.6449e-05,0
60.225,7.2175e-06,0
60.225,-2.031e-05,0
60.226,-4.6494e-05,0
60.226,-5.6733e-05,0
60.227,-5.8579e-05,0
60.227,-5.6565e-05,0
60.228,-4.4144e-05,0
60.228,-1.7121e-05,0
60.229,1.6953e-05,0
60.229,4.4984e-05,0
60.23,6.63e-05,0
60.23,9.0806e-05,0
60.231,0.00011632,0
60.231,0.0001331,0
60.232,0.00014049,0
60.232,0.00014166,0
60.233,0.00013814,0
60.233,0.00012924,0
60.234,0.0001138,0
60.234,9.6513e-05,0
60.235,8.2414e-05,0
60.235,7.5029e-05,0
60.236,7.3686e-05,0
60.236,7.2847e-05,0
60.237,7.1e-05,0
60.238,6.5629e-05,0
60.238,5.5726e-05,0
60.239,4.4984e-05,0
60.239,4.0787e-05,0
60.24,4.213e-05,0
60.24,3.9948e-05,0
60.241,3.0381e-05,0
60.241,1.4435e-05,0
60.242,-4.1962e-06,0
60.242,-2.0645e-05,0
60.243,-3.0381e-05,0
60.243,-3.2731e-05,0
60.244,-2.5681e-05,0
60.244,-1.2253e-05,0
60.245,1.8463e-06,0
60.245,1.1246e-05,0
60.246,1.0575e-05,0
60.246,6.5461e-06,0
60.247,7.5532e-06,0
60.247,1.7456e-05,0
60.248,3.3402e-05,0
60.248,5.153e-05,0
60.249,7.0665e-05,0
60.249,8.3085e-05,0
60.25,8.7785e-05,0
60.251,8.6946e-05,0
60.251,7.9057e-05,0
60.252,6.7643e-05,0
60.252,6.5461e-05,0
60.253,7.3014e-05,0
60.253,7.7379e-05,0
60.254,7.2343e-05,0
60.254,6.865e-05,0
60.255,7.1e-05,0
60.255,7.4022e-05,0
60.256,7.8721e-05,0
60.256,8.4092e-05,0
60.257,8.3757e-05,0
60.257,8.0064e-05,0
60.258,8.3757e-05,0
60.258,9.987e-05,0
60.259,0.00011397,0
60.259,0.00011749,0
60.26,0.00010692,0
60.26,7.9896e-05,0
60.261,4.6159e-05,0
60.261,7.3854e-06,0
60.262,-3.827e-05,0
60.262,-8.4764e-05,0
60.263,-0.00012136,0
60.263,-0.00013646,0
60.264,-0.00013495,0
60.265,-0.00013143,0
60.265,-0.00012656,0
60.266,-0.0001185,0
60.266,-0.00011246,0
60.267,-0.0001138,0
60.267,-0.00012236,0
60.268,-0.00012908,0
60.268,-0.0001274,0
60.269,-0.00012001,0
60.269,-0.00010944,0
60.27,-9.6513e-05,0
60.27,-8.0568e-05,0
60.271,-6.3783e-05,0
60.271,-5.2537e-05,0
60.272,-4.9683e-05,0
60.272,-4.9348e-05,0
60.273,-4.5823e-05,0
60.273,-3.5416e-05,0
60.274,-2.1653e-05,0
60.274,-6.3783e-06,0
60.275,4.5319e-06,0
60.275,7.5532e-06,0
60.276,7.2175e-06,0
60.276,1.4099e-05,0
60.277,2.8702e-05,0
60.278,4.6662e-05,0
60.278,6.5965e-05,0
60.279,8.1071e-05,0
60.279,8.7785e-05,0
60.28,9.1142e-05,0
60.28,9.3828e-05,0
60.281,9.5171e-05,0
60.281,9.8192e-05,0
60.282,0.0001039,0
60.282,0.00010893,0
60.283,0.00010726,0
60.283,9.6513e-05,0
60.284,8.3925e-05,0
60.284,7.7043e-05,0
60.285,7.8218e-05,0
60.285,7.9393e-05,0
60.286,7.57e-05,0
60.286,7.1504e-05,0
60.287,7.0665e-05,0
60.287,6.5293e-05,0
60.288,4.6494e-05,0
60.288,2.0478e-05,0
60.289,-1.5106e-06,0
60.289,-2.0645e-05,0
60.29,-4.1794e-05,0
60.29,-6.2104e-05,0
60.291,-7.7211e-05,0
60.292,-8.7617e-05,0
60.292,-8.6442e-05,0
60.293,-6.714e-05,0
60.293,-3.1388e-05,0
60.294,1.5274e-05,0
60.294,6.4118e-05,0
60.295,0.00010574,0
60.295,0.0001373,0
60.296,0.0001556,0
60.296,0.00016332,0
60.297,0.00016869,0
60.297,0.00016936,0
60.298,0.00016332,0
60.298,0.00015476,0
60.299,0.00014485,0
60.299,0.00012992,0
60.3,0.00010591,0
60.3,7.7043e-05,0
60.301,5.4551e-05,0
60.301,3.2059e-05,0
60.302,2.182e-06,0
60.302,-2.1149e-05,0
60.303,-3.3738e-05,0
60.303,-4.3809e-05,0
60.304,-5.1865e-05,0
60.304,-5.5558e-05,0
60.305,-5.4887e-05,0
60.306,-4.8508e-05,0
60.306,-4.0116e-05,0
60.307,-3.0381e-05,0
60.307,-1.7624e-05,0
60.308,-1.6785e-07,0
60.308,1.2421e-05,0
60.309,1.2421e-05,0
60.309,5.8747e-06,0
60.31,4.0284e-06,0
60.31,7.2175e-06,0
60.311,8.896e-06,0
60.311,8.3925e-06,0
60.312,1.1078e-05,0
60.312,1.6617e-05,0
60.313,1.9303e-05,0
60.313,1.9638e-05,0
60.314,1.7288e-05,0
60.314,1.3092e-05,0
60.315,1.5106e-05,0
60.315,2.1653e-05,0
60.316,2.3499e-05,0
60.316,1.9471e-05,0
60.317,1.6617e-05,0
60.317,1.7121e-05,0
60.318,2.4674e-05,0
60.319,3.6927e-05,0
60.319,4.6159e-05,0
60.32,5.1865e-05,0
60.32,5.4551e-05,0
60.321,5.1865e-05,0
60.321,3.9277e-05,0
60.322,1.8296e-05,0
60.322,-2.5177e-06,0
60.323,-1.8128e-05,0
60.323,-3.2898e-05,0
60.324,-5.1362e-05,0
60.324,-7.0665e-05,0
60.325,-7.8889e-05,0
60.325,-7.5364e-05,0
60.326,-7.5196e-05,0
60.326,-9.0806e-05,0
60.327,-0.0001091,0
60.327,-0.00010994,0
60.328,-9.2149e-05,0
60.328,-6.7811e-05,0
60.329,-4.4816e-05,0
60.329,-2.3499e-05,0
60.33,0,0
60.33,2.6688e-05,0
60.331,5.3376e-05,0
60.331,7.57e-05,0
60.332,9.6513e-05,0
60.333,0.00011766,0
60.333,0.00013646,0
60.334,0.00014586,0
60.334,0.00014133,0
60.335,0.00011749,0
60.335,8.1743e-05,0
60.336,4.9851e-05,0
60.336,3.2731e-05,0
60.337,2.9709e-05,0
60.337,3.2059e-05,0
60.338,3.1388e-05,0
60.338,3.1388e-05,0
60.339,3.743e-05,0
60.339,4.3809e-05,0
60.34,4.7837e-05,0
60.34,5.0355e-05,0
60.341,5.3208e-05,0
60.341,5.8915e-05,0
60.342,6.63e-05,0
60.342,6.6468e-05,0
60.343,5.8244e-05,0
60.343,4.7669e-05,0
60.344,3.7766e-05,0
60.344,2.652e-05,0
60.345,1.1582e-05,0
60.346,-3.0213e-06,0
60.346,-1.2421e-05,0
60.347,-1.561e-05,0
60.347,-1.5106e-05,0
60.348,-1.2421e-05,0
60.348,-5.539e-06,0
60.349,5.539e-06,0
60.349,1.7624e-05,0
60.35,3.6088e-05,0
60.35,5.5222e-05,0
60.351,6.6133e-05,0
60.351,6.5629e-05,0
60.352,6.0594e-05,0
60.352,5.3544e-05,0
60.353,4.1291e-05,0
60.353,2.501e-05,0
60.354,1.1582e-05,0
60.354,2.3499e-06,0
60.355,-6.8818e-06,0
60.355,-1.5946e-05,0
60.356,-2.2324e-05,0
60.356,-2.4338e-05,0
60.357,-2.3835e-05,0
60.357,-2.2995e-05,0
60.358,-2.0981e-05,0
60.358,-1.5946e-05,0
60.359,-6.8818e-06,0
60.36,1.0071e-05,0
60.36,3.1724e-05,0
60.361,4.9516e-05,0
60.361,5.9586e-05,0
60.362,6.3447e-05,0
60.362,6.3951e-05,0
60.363,6.2608e-05,0
60.363,5.6901e-05,0
60.364,4.4984e-05,0
60.364,3.1052e-05,0
60.365,1.3596e-05,0
60.365,-2.182e-06,0
60.366,-1.326e-05,0
60.366,-1.9974e-05,0
60.367,-2.2492e-05,0
60.367,-1.9638e-05,0
60.368,-1.326e-05,0
60.368,-4.8676e-06,0
60.369,6.714e-07,0
60.369,1.5106e-06,0
60.37,4.3641e-06,0
60.37,1.091e-05,0
60.371,2.031e-05,0
60.371,2.9038e-05,0
60.372,3.0045e-05,0
60.373,1.6617e-05,0
60.373,-1.5106e-06,0
60.374,-1.2924e-05,0
60.374,-1.8463e-05,0
60.375,-2.3835e-05,0
60.375,-2.9709e-05,0
60.376,-3.1891e-05,0
60.376,-3.0381e-05,0
60.377,-2.6017e-05,0
60.377,-2.6688e-05,0
60.378,-3.5248e-05,0
60.378,-4.6326e-05,0
60.379,-5.304e-05,0
60.379,-5.4551e-05,0
60.38,-5.3208e-05,0
60.38,-4.8676e-05,0
60.381,-4.0452e-05,0
60.381,-3.1556e-05,0
60.382,-1.7624e-05,0
60.382,4.3641e-06,0
60.383,3.3402e-05,0
60.383,6.3951e-05,0
60.384,9.0974e-05,0
60.384,0.00011649,0
60.385,0.00013646,0
60.386,0.00014737,0
60.386,0.00014687,0
60.387,0.00013579,0
60.387,0.00012018,0
60.388,0.00011162,0
60.388,0.00011397,0
60.389,0.00011565,0
60.389,0.00010759,0
60.39,9.2988e-05,0
60.39,7.6371e-05,0
60.391,5.9586e-05,0
60.391,4.3473e-05,0
60.392,2.6688e-05,0
60.392,1.5274e-05,0
60.393,1.6281e-05,0
60.393,2.1317e-05,0
60.394,2.1317e-05,0
60.394,1.7288e-05,0
60.395,1.7624e-05,0
60.395,2.2156e-05,0
60.396,1.8967e-05,0
60.396,9.7353e-06,0
60.397,9.0639e-06,0
60.397,1.8128e-05,0
60.398,2.4002e-05,0
60.398,2.0478e-05,0
60.399,1.0407e-05,0
60.4,-4.0284e-06,0
60.4,-1.7288e-05,0
60.401,-2.9206e-05,0
60.401,-3.9109e-05,0
60.402,-3.827e-05,0
60.402,-2.7695e-05,0
60.403,-1.4099e-05,0
60.403,-1.8463e-06,0
60.404,5.2033e-06,0
60.404,6.714e-06,0
60.405,5.2033e-06,0
60.405,2.5177e-06,0
60.406,-1.3428e-06,0
60.406,-8.3925e-07,0
60.407,-6.714e-07,0
60.407,-5.8747e-06,0
60.408,-1.5274e-05,0
60.408,-3.2227e-05,0
60.409,-5.4719e-05,0
60.409,-7.0832e-05,0
60.41,-7.9561e-05,0
60.41,-8.6107e-05,0
60.411,-8.2246e-05,0
60.411,-6.2943e-05,0
60.412,-3.3738e-05,0
60.413,-1.5106e-06,0
60.413,3.357e-05,0
60.414,7.7211e-05,0
60.414,0.0001274,0
60.415,0.00016332,0
60.415,0.0001754,0
60.416,0.00017104,0
60.416,0.00015392,0
60.417,0.0001279,0
60.417,0.0001034,0
60.418,8.1743e-05,0
60.418,5.9922e-05,0
60.419,3.9277e-05,0
60.419,2.4338e-05,0
60.42,1.7121e-05,0
60.42,1.3092e-05,0
60.421,9.9031e-06,0
60.421,4.8676e-06,0
60.422,-1.8463e-06,0
60.422,-6.8818e-06,0
60.423,-8.5603e-06,0
60.423,-6.8818e-06,0
60.424,-8.3925e-07,0
60.424,6.3783e-06,0
60.425,9.9031e-06,0
60.425,6.714e-06,0
60.426,1.1749e-06,0
60.427,-1.1749e-06,0
60.427,1.0071e-06,0
60.428,3.6927e-06,0
60.428,6.2104e-06,0
60.429,1.0407e-05,0
60.429,1.3764e-05,0
60.43,1.4939e-05,0
60.43,1.3596e-05,0
60.431,1.0575e-05,0
60.431,6.0426e-06,0
60.432,6.714e-07,0
60.432,-2.5177e-06,0
60.433,-3.1891e-06,0
60.433,5.0355e-07,0
60.434,7.2175e-06,0
60.434,1.1917e-05,0
60.435,1.1749e-05,0
60.435,3.8605e-06,0
60.436,-6.2104e-06,0
60.436,-1.3931e-05,0
60.437,-2.031e-05,0
60.437,-2.3499e-05,0
60.438,-2.1653e-05,0
60.438,-1.4267e-05,0
60.439,-3.1891e-06,0
60.44,5.539e-06,0
60.44,5.8747e-06,0
60.441,2.8534e-06,0
60.441,5.539e-06,0
60.442,1.9974e-05,0
60.442,3.9445e-05,0
60.443,5.2537e-05,0
60.443,5.9586e-05,0
60.444,6.4958e-05,0
60.444,7.2007e-05,0
60.445,7.9561e-05,0
60.445,8.5771e-05,0
60.446,9.2821e-05,0
60.446,9.9199e-05,0
60.447,9.9199e-05,0
60.447,9.0806e-05,0
60.448,7.57e-05,0
60.448,6.2608e-05,0
60.449,5.4719e-05,0
60.449,4.9516e-05,0
60.45,4.9516e-05,0
60.45,5.4383e-05,0
60.451,5.9922e-05,0
60.451,6.2943e-05,0
60.452,6.4286e-05,0
60.452,6.7475e-05,0
60.453,7.3182e-05,0
60.454,7.9393e-05,0
60.454,8.2918e-05,0
60.455,8.3085e-05,0
60.455,7.6707e-05,0
60.456,6.0929e-05,0
60.456,4.1291e-05,0
60.457,1.9135e-05,0
60.457,-2.3499e-06,0
60.458,-1.7624e-05,0
60.458,-2.6352e-05,0
60.459,-3.6423e-05,0
60.459,-5.0019e-05,0
60.46,-6.3111e-05,0
60.46,-7.6707e-05,0
60.461,-9.601e-05,0
60.461,-0.00011363,0
60.462,-0.0001185,0
60.462,-0.00010994,0
60.463,-9.8863e-05,0
60.463,-8.7114e-05,0
60.464,-6.7475e-05,0
60.464,-4.3473e-05,0
60.465,-2.3667e-05,0
60.465,-5.539e-06,0
60.466,1.8967e-05,0
60.467,4.7501e-05,0
60.467,7.2847e-05,0
60.468,9.1142e-05,0
60.468,0.00010188,0
60.469,0.00010105,0
60.469,8.2582e-05,0
60.47,4.683e-05,0
60.47,3.6927e-06,0
60.471,-3.0549e-05,0
60.471,-4.9348e-05,0
60.472,-5.9251e-05,0
60.472,-6.8818e-05,0
60.473,-7.6036e-05,0
60.473,-7.3014e-05,0
60.474,-5.8076e-05,0
60.474,-3.6088e-05,0
60.475,-1.4939e-05,0
60.475,-1.8463e-06,0
60.476,4.1962e-06,0
60.476,-5.0355e-07,0
60.477,-1.3596e-05,0
60.477,-2.4674e-05,0
60.478,-2.9206e-05,0
60.478,-2.5849e-05,0
60.479,-1.4603e-05,0
60.479,1.5106e-06,0
60.48,1.8631e-05,0
60.481,3.2731e-05,0
60.481,4.3137e-05,0
60.482,5.4215e-05,0
60.482,6.8818e-05,0
60.483,8.7449e-05,0
60.483,0.00011044,0
60.484,0.00013478,0
60.484,0.00015593,0
60.485,0.00017037,0
60.485,0.00017574,0
60.486,0.00017154,0
60.486,0.00016097,0
60.487,0.00014754,0
60.487,0.00013042,0
60.488,0.00010961,0
60.488,9.0974e-05,0
60.489,7.7714e-05,0
60.489,6.6468e-05,0
60.49,5.3208e-05,0
60.49,3.8437e-05,0
60.491,2.1317e-05,0
60.491,4.6998e-06,0
60.492,-1.326e-05,0
60.492,-3.3402e-05,0
60.493,-5.153e-05,0
60.493,-5.6901e-05,0
60.494,-4.8005e-05,0
60.495,-3.3066e-05,0
60.495,-2.0142e-05,0
60.496,-9.9031e-06,0
60.496,1.1749e-06,0
60.497,1.3931e-05,0
60.497,2.5345e-05,0
60.498,3.592e-05,0
60.498,4.8173e-05,0
60.499,5.8915e-05,0
60.499,6.0929e-05,0
60.5,5.2369e-05,0
60.5,3.6423e-05,0
60.501,1.9974e-05,0
60.501,1.0575e-05,0
60.502,9.2317e-06,0
60.502,7.2175e-06,0
60.503,-1.1749e-06,0
60.503,-1.2085e-05,0
60.504,-1.9806e-05,0
60.504,-2.2324e-05,0
60.505,-2.031e-05,0
60.505,-1.5106e-05,0
60.506,-9.5674e-06,0
60.506,-5.539e-06,0
60.507,8.3925e-07,0
60.508,9.2317e-06,0
60.508,1.8463e-05,0
60.509,2.5513e-05,0
60.509,3.0045e-05,0
60.51,3.4745e-05,0
60.51,4.1459e-05,0
60.511,4.8173e-05,0
60.511,5.2201e-05,0
60.512,5.2705e-05,0
60.512,5.1194e-05,0
60.513,4.683e-05,0
60.513,4.0116e-05,0
60.514,3.0716e-05,0
60.514,1.5946e-05,0
60.515,-1.6785e-06,0
60.515,-1.561e-05,0
60.516,-2.0478e-05,0
60.516,-2.0981e-05,0
60.517,-2.1149e-05,0
60.517,-2.2324e-05,0
60.518,-2.1653e-05,0
60.518,-2.1653e-05,0
60.519,-2.5849e-05,0
60.519,-3.508e-05,0
60.52,-4.5487e-05,0
60.52,-5.2033e-05,0
60.521,-5.4047e-05,0
60.522,-5.2201e-05,0
60.522,-4.7501e-05,0
60.523,-4.1794e-05,0
60.523,-3.508e-05,0
60.524,-2.7863e-05,0
60.524,-2.0478e-05,0
60.525,-1.4939e-05,0
60.525,-9.9031e-06,0
60.526,-6.2104e-06,0
60.526,-2.6856e-06,0
60.527,4.1962e-06,0
60.527,1.3764e-05,0
60.528,2.1317e-05,0
60.528,2.6017e-05,0
60.529,3.2059e-05,0
60.529,4.3473e-05,0
60.53,5.7908e-05,0
60.53,6.8818e-05,0
60.531,7.4357e-05,0
60.531,7.7043e-05,0
60.532,7.7043e-05,0
60.532,8.1575e-05,0
60.533,9.2149e-05,0
60.533,9.7856e-05,0
60.534,9.1814e-05,0
60.535,7.8386e-05,0
60.535,6.1936e-05,0
60.536,4.2466e-05,0
60.536,2.3331e-05,0
60.537,9.2317e-06,0
60.537,5.8747e-06,0
60.538,1.1246e-05,0
60.538,2.1317e-05,0
60.539,3.1724e-05,0
60.539,4.1459e-05,0
60.54,4.5487e-05,0
60.54,4.0452e-05,0
60.541,2.7863e-05,0
60.541,2.5177e-06,0
60.542,-3.4577e-05,0
60.542,-7.4022e-05,0
60.543,-0.00010776,0
60.543,-0.00013411,0
60.544,-0.00015056,0
60.544,-0.00015627,0
60.545,-0.00015425,0
60.545,-0.00014385,0
60.546,-0.0001185,0
60.546,-8.3253e-05,0
60.547,-4.5991e-05,0
60.547,-7.8889e-06,0
60.548,2.9038e-05,0
60.549,6.2608e-05,0
60.549,9.2821e-05,0
60.55,0.00011766,0
60.55,0.00013529,0
60.551,0.00015023,0
60.551,0.00016701,0
60.552,0.00018564,0
60.552,0.00020562,0
60.553,0.00022139,0
60.553,0.00023012,0
60.554,0.00021384,0
60.554,0.00016902,0
60.555,0.00012337,0
60.555,9.1142e-05,0
60.556,7.0665e-05,0
60.556,5.4215e-05,0
60.557,3.9612e-05,0
60.557,3.2059e-05,0
60.558,4.4816e-05,0
60.558,6.7308e-05,0
60.559,7.8218e-05,0
60.559,7.9561e-05,0
60.56,8.3085e-05,0
60.56,8.4428e-05,0
60.561,6.8986e-05,0
60.562,3.2227e-05,0
60.562,-1.2757e-05,0
60.563,-5.2369e-05,0
60.563,-7.7546e-05,0
60.564,-8.2246e-05,0
60.564,-7.5868e-05,0
60.565,-7.2847e-05,0
60.565,-7.7043e-05,0
60.566,-8.275e-05,0
60.566,-7.9393e-05,0
60.567,-6.1936e-05,0
60.567,-3.6423e-05,0
60.568,-9.9031e-06,0
60.568,1.1582e-05,0
60.569,3.0045e-05,0
60.569,4.5991e-05,0
60.57,5.4887e-05,0
60.57,5.3544e-05,0
60.571,4.6159e-05,0
60.571,3.9445e-05,0
60.572,3.2731e-05,0
60.572,2.3667e-05,0
60.573,1.4435e-05,0
60.573,7.8889e-06,0
60.574,7.2175e-06,0
60.575,1.091e-05,0
60.575,1.4939e-05,0
60.576,1.6785e-05,0
60.576,1.8631e-05,0
60.577,2.5345e-05,0
60.577,3.7095e-05,0
60.578,4.6662e-05,0
60.578,4.7669e-05,0
60.579,4.448e-05,0
60.579,4.4816e-05,0
60.58,4.6159e-05,0
60.58,4.4144e-05,0
60.581,4.1291e-05,0
60.581,4.2466e-05,0
60.582,5.2873e-05,0
60.582,6.4454e-05,0
60.583,6.5126e-05,0
60.583,5.5894e-05,0
60.584,4.3641e-05,0
60.584,3.3738e-05,0
60.585,2.501e-05,0
60.585,1.5946e-05,0
60.586,6.8818e-06,0
60.586,-2.8534e-06,0
60.587,-1.4267e-05,0
60.587,-2.501e-05,0
60.588,-3.0213e-05,0
60.589,-3.0884e-05,0
60.589,-2.8702e-05,0
60.59,-2.5345e-05,0
60.59,-2.0981e-05,0
60.591,-1.4435e-05,0
60.591,-9.9031e-06,0
60.592,-9.7353e-06,0
60.592,-9.5674e-06,0
60.593,-3.5248e-06,0
60.593,6.5461e-06,0
60.594,1.6617e-05,0
60.594,3.0549e-05,0
60.595,5.3544e-05,0
60.595,7.5868e-05,0
60.596,8.5771e-05,0
60.596,8.5267e-05,0
60.597,7.805e-05,0
60.597,6.8818e-05,0
60.598,5.9586e-05,0
60.598,5.1865e-05,0
60.599,4.5991e-05,0
60.599,4.0787e-05,0
60.6,3.6088e-05,0
60.6,3.3402e-05,0
60.601,3.4073e-05,0
60.602,3.5752e-05,0
60.602,3.4409e-05,0
60.603,3.122e-05,0
60.603,2.8031e-05,0
60.604,2.2492e-05,0
60.604,9.0639e-06,0
60.605,-8.896e-06,0
60.605,-2.5849e-05,0
60.606,-3.8102e-05,0
60.606,-4.6494e-05,0
60.607,-5.0523e-05,0
60.607,-5.1698e-05,0
60.608,-5.4887e-05,0
60.608,-5.8915e-05,0
60.609,-6.0594e-05,0
60.609,-5.9251e-05,0
60.61,-5.5558e-05,0
60.61,-4.9851e-05,0
60.611,-4.0787e-05,0
60.611,-3.0549e-05,0
60.612,-1.8296e-05,0
60.612,-6.3783e-06,0
60.613,1.1749e-06,0
60.613,7.8889e-06,0
60.614,1.7288e-05,0
60.614,2.7527e-05,0
60.615,3.3906e-05,0
60.616,3.743e-05,0
60.616,4.2802e-05,0
60.617,4.918e-05,0
60.617,5.623e-05,0
60.618,7.2007e-05,0
60.618,8.8792e-05,0
60.619,9.4499e-05,0
60.619,9.4331e-05,0
60.62,9.5171e-05,0
60.62,9.4331e-05,0
60.621,9.3156e-05,0
60.621,9.1142e-05,0
60.622,8.8121e-05,0
60.622,7.9393e-05,0
60.623,6.0929e-05,0
60.623,3.8941e-05,0
60.624,1.8967e-05,0
60.624,-3.357e-07,0
60.625,-2.1653e-05,0
60.625,-4.6159e-05,0
60.626,-6.865e-05,0
60.626,-8.0735e-05,0
60.627,-7.7546e-05,0
60.627,-6.5965e-05,0
60.628,-6.0594e-05,0
60.629,-6.4622e-05,0
60.629,-6.6468e-05,0
60.63,-5.9251e-05,0
60.63,-4.4144e-05,0
60.631,-2.4674e-05,0
60.631,-2.0142e-06,0
60.632,1.9974e-05,0
60.632,4.1291e-05,0
60.633,5.9922e-05,0
60.633,7.0665e-05,0
60.634,7.4693e-05,0
60.634,7.4189e-05,0
60.635,6.865e-05,0
60.635,6.1601e-05,0
60.636,5.6565e-05,0
60.636,5.388e-05,0
60.637,5.153e-05,0
60.637,4.5319e-05,0
60.638,3.122e-05,0
60.638,1.2757e-05,0
60.639,2.8534e-06,0
60.639,4.1962e-06,0
60.64,5.0355e-06,0
60.64,2.8534e-06,0
60.641,5.2033e-06,0
60.641,1.561e-05,0
60.642,2.8367e-05,0
60.643,4.0452e-05,0
60.643,5.0187e-05,0
60.644,5.7572e-05,0
60.644,6.1433e-05,0
60.645,6.1433e-05,0
60.645,6.2608e-05,0
60.646,6.865e-05,0
60.646,7.57e-05,0
60.647,7.5029e-05,0
60.647,6.4286e-05,0
60.648,4.4984e-05,0
60.648,2.031e-05,0
60.649,-6.0426e-06,0
60.649,-2.4842e-05,0
60.65,-2.9709e-05,0
60.65,-2.3667e-05,0
60.651,-1.3092e-05,0
60.651,-3.1891e-06,0
60.652,7.7211e-06,0
60.652,1.8631e-05,0
60.653,2.7024e-05,0
60.653,3.4745e-05,0
60.654,4.2466e-05,0
60.654,4.9516e-05,0
60.655,5.2201e-05,0
60.656,4.3137e-05,0
60.656,2.652e-05,0
60.657,1.3596e-05,0
60.657,1.2589e-05,0
60.658,2.182e-05,0
60.658,2.9541e-05,0
60.659,2.7359e-05,0
60.659,2.0645e-05,0
60.66,1.5274e-05,0
60.66,1.3092e-05,0
60.661,1.6114e-05,0
60.661,2.3499e-05,0
60.662,3.1388e-05,0
60.662,4.4144e-05,0
60.663,5.7908e-05,0
60.663,5.7908e-05,0
60.664,4.1459e-05,0
60.664,1.7792e-05,0
60.665,-4.5319e-06,0
60.665,-1.8799e-05,0
60.666,-2.5849e-05,0
60.666,-2.9374e-05,0
60.667,-3.0716e-05,0
60.667,-2.6352e-05,0
60.668,-1.5274e-05,0
60.668,1.3428e-06,0
60.669,1.9471e-05,0
60.67,3.3738e-05,0
60.67,4.2802e-05,0
60.671,5.1698e-05,0
60.671,6.1265e-05,0
60.672,7.1336e-05,0
60.672,7.8721e-05,0
60.673,7.8889e-05,0
60.673,6.9993e-05,0
60.674,5.623e-05,0
60.674,3.9277e-05,0
60.675,1.4267e-05,0
60.675,-1.9303e-05,0
60.676,-5.0858e-05,0
60.676,-6.8818e-05,0
60.677,-7.1504e-05,0
60.677,-6.0761e-05,0
60.678,-4.0787e-05,0
60.678,-1.7288e-05,0
60.679,5.2033e-06,0
60.679,2.2828e-05,0
60.68,3.4409e-05,0
60.68,4.1459e-05,0
60.681,5.0019e-05,0
60.681,6.0258e-05,0
60.682,6.7979e-05,0
60.682,6.63e-05,0
60.683,5.3544e-05,0
60.684,3.743e-05,0
60.684,2.4002e-05,0
60.685,1.1246e-05,0
60.685,-1.0071e-06,0
60.686,-8.3925e-06,0
60.686,-6.8818e-06,0
60.687,3.357e-07,0
60.687,8.5603e-06,0
60.688,1.5946e-05,0
60.688,1.9303e-05,0
60.689,1.5106e-05,0
60.689,4.8676e-06,0
60.69,-7.2175e-06,0
60.69,-1.8128e-05,0
60.691,-2.6017e-05,0
60.691,-3.1891e-05,0
60.692,-3.5416e-05,0
60.692,-3.5752e-05,0
60.693,-3.4577e-05,0
60.693,-3.1052e-05,0
60.694,-2.501e-05,0
60.694,-1.6617e-05,0
60.695,-6.0426e-06,0
60.695,9.2317e-06,0
60.696,2.6688e-05,0
60.697,3.8773e-05,0
60.697,4.448e-05,0
60.698,4.918e-05,0
60.698,4.7333e-05,0
60.699,3.8605e-05,0
60.699,3.2059e-05,0
60.7,3.743e-05,0
60.7,5.4047e-05,0
60.701,6.7308e-05,0
60.701,6.5965e-05,0
60.702,5.153e-05,0
60.702,3.4745e-05,0
60.703,2.182e-05,0
60.703,1.561e-05,0
60.704,1.5946e-05,0
60.704,1.5946e-05,0
60.705,8.5603e-06,0
60.705,-2.6856e-06,0
60.706,-9.5674e-06,0
60.706,-9.2317e-06,0
60.707,-3.6927e-06,0
60.707,3.357e-06,0
60.708,1.0239e-05,0
60.708,1.6785e-05,0
60.709,2.4674e-05,0
60.709,3.4745e-05,0
60.71,4.8844e-05,0
60.711,6.63e-05,0
60.711,8.2078e-05,0
60.712,8.9464e-05,0
60.712,8.9799e-05,0
60.713,8.8121e-05,0
60.713,8.7617e-05,0
60.714,9.2317e-05,0
60.714,9.7017e-05,0
60.715,9.2485e-05,0
60.715,7.2343e-05,0
60.716,3.5584e-05,0
60.716,-2.8534e-06,0
60.717,-2.8199e-05,0
60.717,-4.062e-05,0
60.718,-4.4984e-05,0
60.718,-4.5151e-05,0
60.719,-4.683e-05,0
60.719,-4.3137e-05,0
60.72,-2.7863e-05,0
60.72,-5.3712e-06,0
60.721,1.6281e-05,0
60.721,3.4073e-05,0
60.722,4.9012e-05,0
60.722,6.0258e-05,0
60.723,6.9657e-05,0
60.724,7.4525e-05,0
60.724,7.1839e-05,0
60.725,6.5629e-05,0
60.725,5.6901e-05,0
60.726,4.9683e-05,0
60.726,4.2802e-05,0
60.727,3.592e-05,0
60.727,2.6184e-05,0
60.728,1.4267e-05,0
60.728,3.5248e-06,0
60.729,-3.8605e-06,0
60.729,-5.7069e-06,0
60.73,-4.3641e-06,0
60.73,-2.6856e-06,0
60.731,2.8534e-06,0
60.731,1.2589e-05,0
60.732,2.3331e-05,0
60.732,3.3738e-05,0
60.733,4.2802e-05,0
60.733,4.7166e-05,0
60.734,4.5487e-05,0
60.734,4.0452e-05,0
60.735,3.6088e-05,0
60.735,3.3738e-05,0
60.736,3.0381e-05,0
60.736,2.3331e-05,0
60.737,1.4603e-05,0
60.738,4.1962e-06,0
60.738,-1.1078e-05,0
60.739,-3.2059e-05,0
60.739,-4.7166e-05,0
60.74,-5.3208e-05,0
60.74,-5.1194e-05,0
60.741,-4.3137e-05,0
60.741,-3.1891e-05,0
60.742,-2.2492e-05,0
60.742,-1.4939e-05,0
60.743,-9.2317e-06,0
60.743,-6.714e-07,0
60.744,1.2589e-05,0
60.744,2.6017e-05,0
60.745,3.4745e-05,0
60.745,3.978e-05,0
60.746,4.1459e-05,0
60.746,4.3473e-05,0
60.747,4.6159e-05,0
60.747,4.5487e-05,0
60.748,3.5416e-05,0
60.748,2.1317e-05,0
60.749,1.2589e-05,0
60.749,1.2757e-05,0
60.75,1.7121e-05,0
60.751,1.8631e-05,0
60.751,1.8296e-05,0
60.752,1.6281e-05,0
60.752,1.1917e-05,0
60.753,7.2175e-06,0
60.753,3.6927e-06,0
60.754,1.6785e-06,0
60.754,5.539e-06,0
60.755,1.4603e-05,0
60.755,2.3163e-05,0
60.756,2.5345e-05,0
60.756,2.0645e-05,0
60.757,1.6617e-05,0
60.757,1.8967e-05,0
60.758,2.6352e-05,0
60.758,2.8702e-05,0
60.759,2.5681e-05,0
60.759,2.182e-05,0
60.76,1.9135e-05,0
60.76,1.5274e-05,0
60.761,1.0575e-05,0
60.761,1.0239e-05,0
60.762,1.3931e-05,0
60.762,1.3092e-05,0
60.763,3.1891e-06,0
60.764,-8.2246e-06,0
60.764,-1.4939e-05,0
60.765,-1.8296e-05,0
60.765,-2.8534e-05,0
60.766,-5.3376e-05,0
60.766,-8.0568e-05,0
60.767,-9.2485e-05,0
60.767,-8.0568e-05,0
60.768,-5.2873e-05,0
60.768,-2.5681e-05,0
60.769,-6.714e-06,0
60.769,7.8889e-06,0
60.77,2.3163e-05,0
60.77,3.978e-05,0
60.771,5.4887e-05,0
60.771,6.63e-05,0
60.772,7.4693e-05,0
60.772,8.3589e-05,0
60.773,9.7856e-05,0
60.773,0.00011128,0
60.774,0.00011447,0
60.774,0.00010994,0
60.775,0.00010625,0
60.775,0.00010675,0
60.776,0.00011028,0
60.776,0.00011397,0
60.777,0.00011531,0
60.778,0.00011229,0
60.778,0.00010373,0
60.779,8.9464e-05,0
60.779,7.4189e-05,0
60.78,6.0761e-05,0
60.78,5.0355e-05,0
60.781,4.2634e-05,0
60.781,3.0716e-05,0
60.782,1.2589e-05,0
60.782,-1.6785e-07,0
60.783,1.6785e-06,0
60.783,1.0575e-05,0
60.784,1.8631e-05,0
60.784,2.4002e-05,0
60.785,2.4002e-05,0
60.785,1.7121e-05,0
60.786,9.2317e-06,0
60.786,6.3783e-06,0
60.787,9.0639e-06,0
60.787,1.2924e-05,0
60.788,9.0639e-06,0
60.788,-1.6785e-06,0
60.789,-9.5674e-06,0
60.789,-1.3931e-05,0
60.79,-1.8631e-05,0
60.791,-2.4674e-05,0
60.791,-3.2395e-05,0
60.792,-3.978e-05,0
60.792,-4.8173e-05,0
60.793,-5.5055e-05,0
60.793,-5.6565e-05,0
60.794,-5.2201e-05,0
60.794,-4.6159e-05,0
60.795,-4.3137e-05,0
60.795,-4.3473e-05,0
60.796,-3.978e-05,0
60.796,-2.8534e-05,0
60.797,-1.1749e-05,0
60.797,5.539e-06,0
60.798,1.7288e-05,0
60.798,2.1317e-05,0
60.799,2.6352e-05,0
60.799,3.6088e-05,0
60.8,4.9348e-05,0
60.8,6.1433e-05,0
60.801,7.0665e-05,0
60.801,7.6204e-05,0
60.802,7.7379e-05,0
60.802,7.4525e-05,0
60.803,6.865e-05,0
60.803,6.0594e-05,0
60.804,5.1865e-05,0
60.805,4.2466e-05,0
60.805,3.1388e-05,0
60.806,1.9974e-05,0
60.806,7.0497e-06,0
60.807,-7.0497e-06,0
60.807,-1.9638e-05,0
60.808,-2.652e-05,0
60.808,-2.8534e-05,0
60.809,-2.7695e-05,0
60.809,-2.501e-05,0
60.81,-2.0981e-05,0
60.81,-1.4939e-05,0
60.811,-7.5532e-06,0
60.811,-3.0213e-06,0
60.812,5.0355e-07,0
60.812,6.5461e-06,0
60.813,1.2589e-05,0
60.813,2.1317e-05,0
60.814,3.592e-05,0
60.814,4.9516e-05,0
60.815,5.8747e-05,0
60.815,6.3111e-05,0
60.816,6.4286e-05,0
60.816,6.5293e-05,0
60.817,6.5965e-05,0
60.818,6.2943e-05,0
60.818,5.3544e-05,0
60.819,4.2802e-05,0
60.819,3.0381e-05,0
60.82,1.3428e-05,0
60.82,-3.6927e-06,0
60.821,-1.561e-05,0
60.821,-2.1653e-05,0
60.822,-2.0981e-05,0
60.822,-1.2757e-05,0
60.823,-2.182e-06,0
60.823,1.1246e-05,0
60.824,3.4745e-05,0
60.824,6.1601e-05,0
60.825,7.8721e-05,0
60.825,8.2414e-05,0
60.826,7.7043e-05,0
60.826,6.3951e-05,0
60.827,4.5823e-05,0
60.827,1.9135e-05,0
60.828,-1.4939e-05,0
60.828,-4.683e-05,0
60.829,-6.3783e-05,0
60.829,-6.3951e-05,0
60.83,-4.9851e-05,0
60.83,-2.652e-05,0
60.831,-1.1749e-06,0
60.832,2.1317e-05,0
60.832,3.743e-05,0
60.833,4.4984e-05,0
60.833,4.5487e-05,0
60.834,4.683e-05,0
60.834,5.2537e-05,0
60.835,6.1601e-05,0
60.835,7.1e-05,0
60.836,7.7043e-05,0
60.836,7.8889e-05,0
60.837,7.8386e-05,0
60.837,7.6371e-05,0
60.838,7.1336e-05,0
60.838,6.5629e-05,0
60.839,6.2608e-05,0
60.839,6.2272e-05,0
60.84,6.009e-05,0
60.84,5.1865e-05,0
60.841,4.1291e-05,0
60.841,3.0381e-05,0
60.842,2.182e-05,0
60.842,2.0478e-05,0
60.843,2.4338e-05,0
60.843,2.8031e-05,0
60.844,2.7192e-05,0
60.844,2.0981e-05,0
60.845,1.2421e-05,0
60.846,7.2175e-06,0
60.846,5.539e-06,0
60.847,7.3854e-06,0
60.847,1.4267e-05,0
60.848,1.9135e-05,0
60.848,1.5946e-05,0
60.849,4.6998e-06,0
60.849,-9.7353e-06,0
60.85,-2.1988e-05,0
60.85,-3.1724e-05,0
60.851,-3.7263e-05,0
60.851,-3.5248e-05,0
60.852,-2.5681e-05,0
60.852,-1.1917e-05,0
60.853,-1.8463e-06,0
60.853,4.3641e-06,0
60.854,1.1078e-05,0
60.854,1.9974e-05,0
60.855,2.8367e-05,0
60.855,3.1724e-05,0
60.856,2.8702e-05,0
60.856,2.4002e-05,0
60.857,1.796e-05,0
60.857,9.9031e-06,0
60.858,1.6785e-07,0
60.859,-1.3092e-05,0
60.859,-3.0213e-05,0
60.86,-4.3809e-05,0
60.86,-4.9348e-05,0
60.861,-4.8508e-05,0
60.861,-4.5319e-05,0
60.862,-4.4312e-05,0
60.862,-4.448e-05,0
60.863,-4.0955e-05,0
60.863,-3.3738e-05,0
60.864,-2.6184e-05,0
60.864,-1.796e-05,0
60.865,-5.539e-06,0
60.865,1.0071e-05,0
60.866,2.2995e-05,0
60.866,3.2059e-05,0
60.867,4.1459e-05,0
60.867,5.0019e-05,0
60.868,5.6062e-05,0
60.868,6.0594e-05,0
60.869,6.5629e-05,0
60.869,6.8315e-05,0
60.87,6.4958e-05,0
60.87,5.9251e-05,0
60.871,5.2537e-05,0
60.871,4.3809e-05,0
60.872,3.5584e-05,0
60.873,2.9877e-05,0
60.873,2.8534e-05,0
60.874,2.9877e-05,0
60.874,3.2059e-05,0
60.875,3.2059e-05,0
60.875,3.1388e-05,0
60.876,3.0716e-05,0
60.876,3.2395e-05,0
60.877,3.4745e-05,0
60.877,3.8102e-05,0
60.878,4.5991e-05,0
60.878,6.5629e-05,0
60.879,8.4764e-05,0
60.879,8.426e-05,0
60.88,6.5293e-05,0
60.88,3.7263e-05,0
60.881,1.0575e-05,0
60.881,-5.8747e-06,0
60.882,-8.3925e-06,0
60.882,9.7353e-06,0
60.883,4.683e-05,0
60.883,7.9057e-05,0
60.884,9.1142e-05,0
60.884,9.1814e-05,0
60.885,8.9464e-05,0
60.886,8.2246e-05,0
60.886,6.7811e-05,0
60.887,5.0019e-05,0
60.887,3.4577e-05,0
60.888,1.9974e-05,0
60.888,-5.0355e-07,0
60.889,-2.2995e-05,0
60.889,-3.743e-05,0
60.89,-4.1291e-05,0
60.89,-3.5416e-05,0
60.891,-2.6017e-05,0
60.891,-2.2995e-05,0
60.892,-2.501e-05,0
60.892,-2.1988e-05,0
60.893,-1.1078e-05,0
60.893,2.182e-06,0
60.894,1.3596e-05,0
60.894,1.6953e-05,0
60.895,1.2589e-05,0
60.895,6.5461e-06,0
60.896,3.8605e-06,0
60.896,5.7069e-06,0
60.897,1.2421e-05,0
60.897,2.2324e-05,0
60.898,2.6688e-05,0
60.898,2.2995e-05,0
60.899,1.9135e-05,0
60.9,2.1317e-05,0
60.9,3.0213e-05,0
60.901,4.7166e-05,0
60.901,7.0329e-05,0
60.902,8.8624e-05,0
60.902,0.00010088,0
60.903,0.00011095,0
60.903,0.00011464,0
60.904,0.00010843,0
60.904,9.8192e-05,0
60.905,8.9128e-05,0
60.905,7.9057e-05,0
60.906,6.63e-05,0
60.906,4.9516e-05,0
60.907,2.7695e-05,0
60.907,2.5177e-06,0
60.908,-2.2995e-05,0
60.908,-4.7837e-05,0
60.909,-6.7979e-05,0
60.909,-7.9728e-05,0
60.91,-8.2078e-05,0
60.91,-7.2679e-05,0
60.911,-5.8579e-05,0
60.911,-4.9348e-05,0
60.912,-4.1794e-05,0
60.913,-2.9206e-05,0
60.913,-1.2589e-05,0
60.914,5.2033e-06,0
60.914,2.0478e-05,0
60.915,2.9206e-05,0
60.915,3.1556e-05,0
60.916,3.0381e-05,0
60.916,2.7359e-05,0
60.917,2.3667e-05,0
60.917,1.8296e-05,0
60.918,1.1917e-05,0
60.918,8.0568e-06,0
60.919,6.5461e-06,0
60.919,9.2317e-06,0
60.92,1.8296e-05,0
60.92,2.9374e-05,0
60.921,3.8773e-05,0
60.921,4.4816e-05,0
60.922,4.8508e-05,0
60.922,4.9516e-05,0
60.923,4.5319e-05,0
60.923,3.9109e-05,0
60.924,3.6591e-05,0
60.924,3.7934e-05,0
60.925,3.5752e-05,0
60.925,2.6688e-05,0
60.926,1.7121e-05,0
60.927,1.0239e-05,0
60.927,7.7211e-06,0
60.928,4.0284e-06,0
60.928,-2.8534e-06,0
60.929,-8.5603e-06,0
60.929,-1.0407e-05,0
60.93,-1.091e-05,0
60.93,-1.2253e-05,0
60.931,-1.2924e-05,0
60.931,-1.0575e-05,0
60.932,-6.3783e-06,0
60.932,-3.8605e-06,0
60.933,8.3925e-07,0
60.933,7.5532e-06,0
60.934,1.326e-05,0
60.934,1.4939e-05,0
60.935,1.5274e-05,0
60.935,1.796e-05,0
60.936,1.8128e-05,0
60.936,1.326e-05,0
60.937,3.1891e-06,0
60.937,-8.3925e-06,0
60.938,-1.1917e-05,0
60.938,-4.1962e-06,0
60.939,8.5603e-06,0
60.94,1.8128e-05,0
60.94,1.8967e-05,0
60.941,9.0639e-06,0
60.941,-4.5319e-06,0
60.942,-1.4603e-05,0
60.942,-1.6281e-05,0
60.943,-1.1917e-05,0
60.943,-5.2033e-06,0
60.944,1.1749e-06,0
60.944,6.8818e-06,0
60.945,1.1749e-05,0
60.945,1.6617e-05,0
60.946,2.4002e-05,0
60.946,3.743e-05,0
60.947,5.4047e-05,0
60.947,6.9154e-05,0
60.948,8.0735e-05,0
60.948,8.9799e-05,0
60.949,0.00010188,0
60.949,0.00011699,0
60.95,0.00012807,0
60.95,0.00012941,0
60.951,0.00012706,0
60.951,0.00012471,0
60.952,0.00011901,0
60.953,0.00010809,0
60.953,9.3156e-05,0
60.954,7.4189e-05,0
60.954,5.0858e-05,0
60.955,2.4506e-05,0
60.955,5.0355e-07,0
60.956,-1.6617e-05,0
60.956,-3.0381e-05,0
60.957,-4.2466e-05,0
60.957,-4.9348e-05,0
60.958,-4.7333e-05,0
60.958,-3.6927e-05,0
60.959,-2.4506e-05,0
60.959,-1.2924e-05,0
60.96,-6.714e-07,0
60.96,9.5674e-06,0
60.961,1.4939e-05,0
60.961,1.5946e-05,0
60.962,1.1414e-05,0
60.962,8.3925e-07,0
60.963,-1.3596e-05,0
60.963,-2.7192e-05,0
60.964,-3.2395e-05,0
60.964,-2.7359e-05,0
60.965,-1.9974e-05,0
60.965,-1.5274e-05,0
60.966,-1.326e-05,0
60.967,-1.4267e-05,0
60.967,-1.4939e-05,0
60.968,-8.896e-06,0
60.968,8.3925e-07,0
60.969,5.8747e-06,0
60.969,5.2033e-06,0
60.97,3.6927e-06,0
60.97,2.5177e-06,0
60.971,4.5319e-06,0
60.971,1.1582e-05,0
60.972,1.9303e-05,0
60.972,2.266e-05,0
60.973,2.2324e-05,0
60.973,1.7624e-05,0
60.974,1.3596e-05,0
60.974,1.3931e-05,0
60.975,1.3092e-05,0
60.975,3.1891e-06,0
60.976,-1.1078e-05,0
60.976,-2.1653e-05,0
60.977,-2.6184e-05,0
60.977,-2.6688e-05,0
60.978,-2.7863e-05,0
60.978,-3.1052e-05,0
60.979,-3.2731e-05,0
60.98,-3.0045e-05,0
60.98,-2.4506e-05,0
60.981,-1.9806e-05,0
60.981,-1.6114e-05,0
60.982,-8.2246e-06,0
60.982,6.2104e-06,0
60.983,2.4506e-05,0
60.983,4.448e-05,0
60.984,6.2104e-05,0
60.984,7.3014e-05,0
60.985,7.7211e-05,0
60.985,7.4693e-05,0
60.986,6.9154e-05,0
60.986,6.4958e-05,0
60.987,6.2272e-05,0
60.987,5.7908e-05,0
60.988,5.4215e-05,0
60.988,5.2873e-05,0
60.989,5.1362e-05,0
60.989,4.8676e-05,0
60.99,4.6494e-05,0
60.99,4.6494e-05,0
60.991,4.683e-05,0
60.991,4.4816e-05,0
60.992,4.213e-05,0
60.992,4.1123e-05,0
60.993,4.0787e-05,0
60.994,4.1291e-05,0
60.994,4.5487e-05,0
60.995,5.1362e-05,0
60.995,5.7572e-05,0
60.996,6.6636e-05,0
60.996,7.4693e-05,0
60.997,7.7043e-05,0
60.997,7.5532e-05,0
60.998,7.3014e-05,0
60.998,7.0665e-05,0
60.999,6.7643e-05,0
60.999,6.0929e-05,0
61,4.9348e-05,0
61,3.6423e-05,0
61.001,2.0645e-05,0
61.001,2.5177e-06,0
61.002,-1.2253e-05,0
61.002,-1.7624e-05,0
61.003,-1.3596e-05,0
61.003,-3.8605e-06,0
61.004,5.8747e-06,0
61.004,1.4435e-05,0
61.005,1.6953e-05,0
61.005,1.4267e-05,0
61.006,1.3931e-05,0
61.007,1.4603e-05,0
61.007,1.2253e-05,0
61.008,1.1246e-05,0
61.008,1.1582e-05,0
61.009,1.0407e-05,0
61.009,8.896e-06,0
61.01,9.9031e-06,0
61.01,1.4939e-05,0
61.011,2.2156e-05,0
61.011,3.0045e-05,0
61.012,3.7766e-05,0
61.012,4.3305e-05,0
61.013,4.7166e-05,0
61.013,4.8844e-05,0
61.014,4.3473e-05,0
61.014,3.0213e-05,0
61.015,1.326e-05,0
61.015,-1.0071e-06,0
61.016,-1.0407e-05,0
61.016,-1.8967e-05,0
61.017,-2.9038e-05,0
61.017,-3.7766e-05,0
61.018,-4.1123e-05,0
61.018,-4.2634e-05,0
61.019,-4.683e-05,0
61.019,-5.3208e-05,0
61.02,-5.7404e-05,0
61.021,-4.918e-05,0
61.021,-2.4338e-05,0
61.022,8.2246e-06,0
61.022,3.2731e-05,0
61.023,4.7501e-05,0
61.023,6.0258e-05,0
61.024,6.865e-05,0
61.024,6.3447e-05,0
61.025,4.5991e-05,0
61.025,2.8367e-05,0
61.026,1.4267e-05,0
61.026,2.5177e-06,0
61.027,-1.1749e-06,0
61.027,7.0497e-06,0
61.028,2.9206e-05,0
61.028,5.5558e-05,0
61.029,7.5029e-05,0
61.029,8.7785e-05,0
61.03,9.5171e-05,0
61.03,9.3156e-05,0
61.031,8.6275e-05,0
61.031,7.7714e-05,0
61.032,6.2272e-05,0
61.032,4.3641e-05,0
61.033,2.6688e-05,0
61.033,1.1078e-05,0
61.034,-7.3854e-06,0
61.035,-2.031e-05,0
61.035,-2.6017e-05,0
61.036,-3.3402e-05,0
61.036,-4.6662e-05,0
61.037,-6.3111e-05,0
61.037,-7.5364e-05,0
61.038,-7.7546e-05,0
61.038,-7.4022e-05,0
61.039,-7.2847e-05,0
61.039,-6.7475e-05,0
61.04,-5.1698e-05,0
61.04,-2.8367e-05,0
61.041,-6.714e-06,0
61.041,8.7282e-06,0
61.042,1.8463e-05,0
61.042,2.8534e-05,0
61.043,4.0955e-05,0
61.043,5.4047e-05,0
61.044,6.5965e-05,0
61.044,7.5029e-05,0
61.045,7.4022e-05,0
61.045,6.1601e-05,0
61.046,4.683e-05,0
61.046,3.3066e-05,0
61.047,2.0142e-05,0
61.048,1.1917e-05,0
61.048,1.3596e-05,0
61.049,2.6688e-05,0
61.049,4.5487e-05,0
61.05,6.0258e-05,0
61.05,6.6972e-05,0
61.051,7.0161e-05,0
61.051,7.2175e-05,0
61.052,7.6371e-05,0
61.052,7.7379e-05,0
61.053,6.6972e-05,0
61.053,4.9516e-05,0
61.054,3.6088e-05,0
61.054,3.0716e-05,0
61.055,3.0549e-05,0
61.055,3.0045e-05,0
61.056,2.7863e-05,0
61.056,2.6688e-05,0
61.057,3.0381e-05,0
61.057,3.508e-05,0
61.058,3.978e-05,0
61.058,4.448e-05,0
61.059,5.0523e-05,0
61.059,6.1936e-05,0
61.06,7.335e-05,0
61.06,7.3014e-05,0
61.061,6.2943e-05,0
61.062,5.2873e-05,0
61.062,4.7837e-05,0
61.063,4.7166e-05,0
61.063,4.4144e-05,0
61.064,3.592e-05,0
61.064,2.6688e-05,0
61.065,2.0813e-05,0
61.065,1.5946e-05,0
61.066,1.3931e-05,0
61.066,1.3931e-05,0
61.067,9.2317e-06,0
61.067,-3.357e-07,0
61.068,-8.2246e-06,0
61.068,-1.2253e-05,0
61.069,-1.3931e-05,0
61.069,-1.2924e-05,0
61.07,-1.091e-05,0
61.07,-7.5532e-06,0
61.071,-4.5319e-06,0
61.071,-3.5248e-06,0
61.072,-6.2104e-06,0
61.072,-1.3092e-05,0
61.073,-1.7624e-05,0
61.073,-1.6281e-05,0
61.074,-1.1917e-05,0
61.075,-6.3783e-06,0
61.075,-3.357e-07,0
61.076,1.2253e-05,0
61.076,3.1388e-05,0
61.077,4.7166e-05,0
61.077,5.4551e-05,0
61.078,6.0761e-05,0
61.078,6.6133e-05,0
61.079,6.1936e-05,0
61.079,4.8173e-05,0
61.08,3.0381e-05,0
61.08,1.4603e-05,0
61.081,6.2104e-06,0
61.081,0,0
61.082,-1.091e-05,0
61.082,-2.8367e-05,0
61.083,-4.7166e-05,0
61.083,-5.9251e-05,0
61.084,-6.3279e-05,0
61.084,-6.1936e-05,0
61.085,-5.9251e-05,0
61.085,-5.7237e-05,0
61.086,-5.5558e-05,0
61.086,-5.153e-05,0
61.087,-4.5823e-05,0
61.087,-3.9948e-05,0
61.088,-3.7095e-05,0
61.089,-3.7095e-05,0
61.089,-3.9109e-05,0
61.09,-3.8941e-05,0
61.09,-3.3066e-05,0
61.091,-2.0981e-05,0
61.091,-2.8534e-06,0
61.092,1.7792e-05,0
61.092,4.0116e-05,0
61.093,6.7979e-05,0
61.093,9.8527e-05,0
61.094,0.0001227,0
61.094,0.00014217,0
61.095,0.00015795,0
61.095,0.00016533,0
61.096,0.00016667,0
61.096,0.00016164,0
61.097,0.00014183,0
61.097,0.00011095,0
61.098,8.5771e-05,0
61.098,7.0665e-05,0
61.099,5.8747e-05,0
61.099,3.9109e-05,0
61.1,1.2589e-05,0
61.1,-9.0639e-06,0
61.101,-1.9806e-05,0
61.102,-2.7192e-05,0
61.102,-3.5248e-05,0
61.103,-4.2802e-05,0
61.103,-5.069e-05,0
61.104,-5.7237e-05,0
61.104,-5.6565e-05,0
61.105,-4.7333e-05,0
61.105,-4.0452e-05,0
61.106,-3.9109e-05,0
61.106,-3.5248e-05,0
61.107,-2.5177e-05,0
61.107,-7.8889e-06,0
61.108,1.4939e-05,0
61.108,3.8773e-05,0
61.109,5.7404e-05,0
61.109,6.7979e-05,0
61.11,7.5364e-05,0
61.11,9.2317e-05,0
61.111,0.0001274,0
61.111,0.00015795,0
61.112,0.00016181,0
61.112,0.00014452,0
61.113,0.00012337,0
61.113,0.00010625,0
61.114,8.7449e-05,0
61.114,6.6972e-05,0
61.115,5.1362e-05,0
61.116,4.2298e-05,0
61.116,3.7263e-05,0
61.117,3.1388e-05,0
61.117,2.1653e-05,0
61.118,1.3092e-05,0
61.118,6.5461e-06,0
61.119,5.7069e-06,0
61.119,6.3783e-06,0
61.12,4.3641e-06,0
61.12,-4.5319e-06,0
61.121,-1.7288e-05,0
61.121,-3.1052e-05,0
61.122,-4.213e-05,0
61.122,-4.8173e-05,0
61.123,-5.388e-05,0
61.123,-6.2272e-05,0
61.124,-6.949e-05,0
61.124,-6.9657e-05,0
61.125,-6.5965e-05,0
61.125,-6.9322e-05,0
61.126,-7.3182e-05,0
61.126,-6.7979e-05,0
61.127,-5.9922e-05,0
61.127,-5.3544e-05,0
61.128,-4.6662e-05,0
61.129,-4.2466e-05,0
61.129,-4.8508e-05,0
61.13,-5.8915e-05,0
61.13,-6.5797e-05,0
61.131,-6.9657e-05,0
61.131,-6.8315e-05,0
61.132,-6.3279e-05,0
61.132,-5.7237e-05,0
61.133,-4.7166e-05,0
61.133,-2.5681e-05,0
61.134,1.1582e-05,0
61.134,5.1194e-05,0
61.135,8.1743e-05,0
61.135,0.00010105,0
61.136,0.00011061,0
61.136,0.00010961,0
61.137,9.7856e-05,0
61.137,8.5435e-05,0
61.138,7.4357e-05,0
61.138,6.0258e-05,0
61.139,5.2873e-05,0
61.139,5.5558e-05,0
61.14,5.4719e-05,0
61.14,4.7669e-05,0
61.141,3.8773e-05,0
61.142,3.6088e-05,0
61.142,4.3305e-05,0
61.143,5.2537e-05,0
61.143,5.3544e-05,0
61.144,5.1194e-05,0
61.144,6.8315e-05,0
61.145,9.2149e-05,0
61.145,9.1142e-05,0
61.146,6.5965e-05,0
61.146,3.3066e-05,0
61.147,8.3925e-07,0
61.147,-2.6352e-05,0
61.148,-4.7837e-05,0
61.148,-6.6972e-05,0
61.149,-8.8289e-05,0
61.149,-0.00010675,0
61.15,-0.00011397,0
61.15,-0.00010726,0
61.151,-8.9799e-05,0
61.151,-7.0832e-05,0
61.152,-4.918e-05,0
61.152,-2.182e-05,0
61.153,7.2175e-06,0
61.153,3.0716e-05,0
61.154,4.7501e-05,0
61.154,6.3111e-05,0
61.155,7.8889e-05,0
61.156,9.1142e-05,0
61.156,9.7688e-05,0
61.157,0.00010054,0
61.157,0.00010021,0
61.158,0.00010088,0
61.158,0.00010121,0
61.159,9.836e-05,0
61.159,9.3156e-05,0
61.16,8.8792e-05,0
61.16,8.275e-05,0
61.161,7.5029e-05,0
61.161,6.865e-05,0
61.162,6.2776e-05,0
61.162,5.7237e-05,0
61.163,5.3544e-05,0
61.163,5.3544e-05,0
61.164,5.6901e-05,0
61.164,6.1936e-05,0
61.165,6.9322e-05,0
61.165,7.7043e-05,0
61.166,8.1743e-05,0
61.166,8.3085e-05,0
61.167,8.2582e-05,0
61.167,7.9728e-05,0
61.168,7.4357e-05,0
61.169,6.5965e-05,0
61.169,5.8579e-05,0
61.17,5.2537e-05,0
61.17,4.683e-05,0
61.171,4.0955e-05,0
61.171,3.6591e-05,0
61.172,3.4913e-05,0
61.172,3.1891e-05,0
61.173,2.6184e-05,0
61.173,2.031e-05,0
61.174,1.6617e-05,0
61.174,1.5442e-05,0
61.175,1.4267e-05,0
61.175,1.0575e-05,0
61.176,6.5461e-06,0
61.176,3.6927e-06,0
61.177,1.5106e-06,0
61.177,-8.3925e-07,0
61.178,-2.8534e-06,0
61.178,-4.1962e-06,0
61.179,-6.5461e-06,0
61.179,-9.5674e-06,0
61.18,-1.4267e-05,0
61.18,-1.6449e-05,0
61.181,-1.5106e-05,0
61.181,-1.091e-05,0
61.182,-7.3854e-06,0
61.183,-6.5461e-06,0
61.183,-6.8818e-06,0
61.184,-7.5532e-06,0
61.184,-7.8889e-06,0
61.185,-4.6998e-06,0
61.185,0,0
61.186,7.2175e-06,0
61.186,1.6953e-05,0
61.187,2.4842e-05,0
61.187,2.8702e-05,0
61.188,2.8702e-05,0
61.188,2.6352e-05,0
61.189,2.6017e-05,0
61.189,2.6017e-05,0
61.19,2.031e-05,0
61.19,1.0575e-05,0
61.191,-8.3925e-07,0
61.191,-1.2757e-05,0
61.192,-2.2324e-05,0
61.192,-3.0213e-05,0
61.193,-3.2731e-05,0
61.193,-2.7863e-05,0
61.194,-1.9135e-05,0
61.194,-1.0742e-05,0
61.195,-8.5603e-06,0
61.196,-1.0407e-05,0
61.196,-1.0575e-05,0
61.197,-1.3596e-05,0
61.197,-2.7863e-05,0
61.198,-4.9012e-05,0
61.198,-5.8579e-05,0
61.199,-5.1698e-05,0
61.199,-4.5823e-05,0
61.2,-5.5558e-05,0
61.2,-7.4693e-05,0
61.201,-8.3085e-05,0
61.201,-7.2511e-05,0
61.202,-5.153e-05,0
61.202,-2.6688e-05,0
61.203,-3.1891e-06,0
61.203,1.1917e-05,0
61.204,2.4002e-05,0
61.204,4.0116e-05,0
61.205,6.8986e-05,0
61.205,0.0001133,0
61.206,0.00015828,0
61.206,0.00018715,0
61.207,0.00019437,0
61.207,0.00018631,0
61.208,0.00017406,0
61.208,0.00015425,0
61.209,0.00012001,0
61.21,7.57e-05,0
61.21,3.3906e-05,0
61.211,9.9031e-06,0
61.211,1.5106e-06,0
61.212,-3.5248e-06,0
61.212,-8.2246e-06,0
61.213,-1.6617e-05,0
61.213,-3.2898e-05,0
61.214,-4.9683e-05,0
61.214,-5.2537e-05,0
61.215,-3.6423e-05,0
61.215,-2.3499e-06,0
61.216,3.5584e-05,0
61.216,6.0594e-05,0
61.217,6.6636e-05,0
61.217,5.5894e-05,0
61.218,3.743e-05,0
61.218,1.7288e-05,0
61.219,-3.1891e-06,0
61.219,-2.182e-05,0
61.22,-3.2898e-05,0
61.22,-3.1891e-05,0
61.221,-2.1653e-05,0
61.221,-7.5532e-06,0
61.222,5.0355e-06,0
61.222,1.4435e-05,0
61.223,1.6617e-05,0
61.224,9.9031e-06,0
61.224,3.0213e-06,0
61.225,2.182e-06,0
61.225,5.2033e-06,0
61.226,9.2317e-06,0
61.226,1.2924e-05,0
61.227,1.326e-05,0
61.227,9.5674e-06,0
61.228,8.5603e-06,0
61.228,1.2253e-05,0
61.229,1.4939e-05,0
61.229,1.4435e-05,0
61.23,1.2589e-05,0
61.23,1.326e-05,0
61.231,1.3931e-05,0
61.231,1.326e-05,0
61.232,2.3331e-05,0
61.232,4.3473e-05,0
61.233,6.2272e-05,0
61.233,7.0329e-05,0
61.234,6.7308e-05,0
61.234,6.1097e-05,0
61.235,5.6565e-05,0
61.235,5.2201e-05,0
61.236,4.1459e-05,0
61.237,3.0381e-05,0
61.237,2.7359e-05,0
61.238,3.7095e-05,0
61.238,5.6733e-05,0
61.239,7.3686e-05,0
61.239,7.6371e-05,0
61.24,6.8315e-05,0
61.24,5.7572e-05,0
61.241,4.1962e-05,0
61.241,2.6017e-05,0
61.242,2.1988e-05,0
61.242,2.7024e-05,0
61.243,3.0716e-05,0
61.243,3.2059e-05,0
61.244,3.6088e-05,0
61.244,4.0116e-05,0
61.245,4.2802e-05,0
61.245,4.0955e-05,0
61.246,3.1052e-05,0
61.246,1.5778e-05,0
61.247,3.8605e-06,0
61.247,5.0355e-07,0
61.248,-3.1891e-06,0
61.248,-1.5946e-05,0
61.249,-3.592e-05,0
61.249,-5.6565e-05,0
61.25,-6.7979e-05,0
61.251,-6.9825e-05,0
61.251,-6.5126e-05,0
61.252,-5.6397e-05,0
61.252,-4.683e-05,0
61.253,-3.6927e-05,0
61.253,-2.2995e-05,0
61.254,-7.7211e-06,0
61.254,4.5319e-06,0
61.255,1.4603e-05,0
61.255,2.3499e-05,0
61.256,3.2731e-05,0
61.256,4.1794e-05,0
61.257,4.8676e-05,0
61.257,4.9516e-05,0
61.258,4.6159e-05,0
61.258,4.4816e-05,0
61.259,4.3809e-05,0
61.259,4.1962e-05,0
61.26,4.2802e-05,0
61.26,4.6494e-05,0
61.261,4.918e-05,0
61.261,4.5991e-05,0
61.262,3.7263e-05,0
61.262,2.652e-05,0
61.263,1.7624e-05,0
61.264,1.1414e-05,0
61.264,5.539e-06,0
61.265,1.1749e-06,0
61.265,-1.6785e-06,0
61.266,-5.2033e-06,0
61.266,-8.2246e-06,0
61.267,-1.1414e-05,0
61.267,-1.6785e-05,0
61.268,-1.796e-05,0
61.268,-6.8818e-06,0
61.269,1.5274e-05,0
61.269,3.6423e-05,0
61.27,4.9348e-05,0
61.27,5.5055e-05,0
61.271,5.8244e-05,0
61.271,6.1936e-05,0
61.272,7.1672e-05,0
61.272,8.6946e-05,0
61.273,0.00010457,0
61.273,0.00011565,0
61.274,0.000118,0
61.274,0.00011833,0
61.275,0.00011196,0
61.275,9.366e-05,0
61.276,6.9993e-05,0
61.276,5.3544e-05,0
61.277,4.5823e-05,0
61.278,4.4144e-05,0
61.278,4.6998e-05,0
61.279,4.8173e-05,0
61.279,4.4816e-05,0
61.28,3.7766e-05,0
61.28,1.9806e-05,0
61.281,-9.2317e-06,0
61.281,-3.8605e-05,0
61.282,-6.1265e-05,0
61.282,-7.57e-05,0
61.283,-8.4428e-05,0
61.283,-8.5435e-05,0
61.284,-8.0064e-05,0
61.284,-7.2847e-05,0
61.285,-6.5965e-05,0
61.285,-5.7572e-05,0
61.286,-4.4144e-05,0
61.286,-1.8967e-05,0
61.287,1.561e-05,0
61.287,4.5151e-05,0
61.288,6.0426e-05,0
61.288,6.2776e-05,0
61.289,6.0258e-05,0
61.289,5.9251e-05,0
61.29,6.1265e-05,0
61.291,5.7908e-05,0
61.291,4.6159e-05,0
61.292,3.2395e-05,0
61.292,2.1317e-05,0
61.293,1.4435e-05,0
61.293,9.5674e-06,0
61.294,5.8747e-06,0
61.294,5.0355e-07,0
61.295,-8.2246e-06,0
61.295,-1.7792e-05,0
61.296,-1.8631e-05,0
61.296,-2.5177e-06,0
61.297,2.6352e-05,0
61.297,4.9012e-05,0
61.298,5.9586e-05,0
61.298,7.0497e-05,0
61.299,7.8721e-05,0
61.299,7.6875e-05,0
61.3,6.4286e-05,0
61.3,4.213e-05,0
61.301,1.4603e-05,0
61.301,-7.7211e-06,0
61.302,-2.3331e-05,0
61.302,-4.0787e-05,0
61.303,-5.7572e-05,0
61.303,-6.0258e-05,0
61.304,-5.0858e-05,0
61.305,-4.062e-05,0
61.305,-3.6927e-05,0
61.306,-3.3906e-05,0
61.306,-2.887e-05,0
61.307,-2.0813e-05,0
61.307,-8.896e-06,0
61.308,1.5106e-06,0
61.308,5.2033e-06,0
61.309,6.8818e-06,0
61.309,1.1917e-05,0
61.31,2.0478e-05,0
61.31,2.7192e-05,0
61.311,3.0381e-05,0
61.311,3.1388e-05,0
61.312,3.3234e-05,0
61.312,3.743e-05,0
61.313,4.4144e-05,0
61.313,4.8005e-05,0
61.314,4.6159e-05,0
61.314,4.4984e-05,0
61.315,4.4312e-05,0
61.315,4.1123e-05,0
61.316,3.743e-05,0
61.316,3.2395e-05,0
61.317,2.0981e-05,0
61.318,8.2246e-06,0
61.318,-3.1891e-06,0
61.319,-7.7211e-06,0
61.319,-2.182e-06,0
61.32,7.3854e-06,0
61.32,1.0742e-05,0
61.321,3.5248e-06,0
61.321,-8.3925e-06,0
61.322,-1.6449e-05,0
61.322,-1.6281e-05,0
61.323,-8.2246e-06,0
61.323,-1.3428e-06,0
61.324,5.539e-06,0
61.324,1.4603e-05,0
61.325,2.2995e-05,0
61.325,2.8367e-05,0
61.326,3.2059e-05,0
61.326,3.8437e-05,0
61.327,4.7501e-05,0
61.327,5.4383e-05,0
61.328,5.8244e-05,0
61.328,5.9586e-05,0
61.329,5.623e-05,0
61.329,5.3544e-05,0
61.33,5.6565e-05,0
61.331,6.479e-05,0
61.331,7.0329e-05,0
61.332,7.3686e-05,0
61.332,7.7379e-05,0
61.333,8.0735e-05,0
61.333,8.2246e-05,0
61.334,8.0232e-05,0
61.334,7.335e-05,0
61.335,6.3279e-05,0
61.335,5.4551e-05,0
61.336,5.1194e-05,0
61.336,5.388e-05,0
61.337,5.4887e-05,0
61.337,4.4144e-05,0
61.338,2.8367e-05,0
61.338,2.0645e-05,0
61.339,2.1149e-05,0
61.339,2.2492e-05,0
61.34,2.1988e-05,0
61.34,2.6688e-05,0
61.341,3.9612e-05,0
61.341,5.6565e-05,0
61.342,7.0329e-05,0
61.342,7.3854e-05,0
61.343,6.4622e-05,0
61.343,4.5151e-05,0
61.344,2.3667e-05,0
61.345,4.3641e-06,0
61.345,-8.896e-06,0
61.346,-1.4099e-05,0
61.346,-2.0981e-05,0
61.347,-3.7095e-05,0
61.347,-5.1194e-05,0
61.348,-4.8341e-05,0
61.348,-3.0381e-05,0
61.349,-1.4267e-05,0
61.349,-1.0239e-05,0
61.35,-1.4267e-05,0
61.35,-1.561e-05,0
61.351,-9.0639e-06,0
61.351,3.5248e-06,0
61.352,1.4939e-05,0
61.352,2.1317e-05,0
61.353,2.7024e-05,0
61.353,3.7095e-05,0
61.354,4.5487e-05,0
61.354,4.7333e-05,0
61.355,4.2466e-05,0
61.355,3.4073e-05,0
61.356,2.3163e-05,0
61.356,1.0575e-05,0
61.357,-1.3428e-06,0
61.358,-1.3931e-05,0
61.358,-2.6688e-05,0
61.359,-3.6088e-05,0
61.359,-3.8773e-05,0
61.36,-3.592e-05,0
61.36,-3.4913e-05,0
61.361,-3.4745e-05,0
61.361,-2.9038e-05,0
61.362,-1.5442e-05,0
61.362,0,0
61.363,9.9031e-06,0
61.363,1.6281e-05,0
61.364,1.8799e-05,0
61.364,1.8128e-05,0
61.365,1.6617e-05,0
61.365,1.326e-05,0
61.366,8.5603e-06,0
61.366,5.2033e-06,0
61.367,2.6856e-06,0
61.367,2.3499e-06,0
61.368,2.5177e-06,0
61.368,2.8534e-06,0
61.369,5.539e-06,0
61.369,1.0575e-05,0
61.37,1.5946e-05,0
61.37,2.2324e-05,0
61.371,2.7192e-05,0
61.372,3.2395e-05,0
61.372,3.9109e-05,0
61.373,4.1627e-05,0
61.373,3.6423e-05,0
61.374,2.8031e-05,0
61.374,2.1988e-05,0
61.375,1.796e-05,0
61.375,1.4603e-05,0
61.376,1.6281e-05,0
61.376,2.2492e-05,0
61.377,2.4002e-05,0
61.377,2.0981e-05,0
61.378,1.9303e-05,0
61.378,2.1317e-05,0
61.379,2.5345e-05,0
61.379,2.9038e-05,0
61.38,3.0716e-05,0
61.38,3.0045e-05,0
61.381,2.7527e-05,0
61.381,3.0716e-05,0
61.382,4.6159e-05,0
61.382,6.479e-05,0
61.383,7.8386e-05,0
61.383,8.4764e-05,0
61.384,8.6778e-05,0
61.385,8.6946e-05,0
61.385,8.8792e-05,0
61.386,9.3492e-05,0
61.386,9.7185e-05,0
61.387,9.9199e-05,0
61.387,9.3828e-05,0
61.388,7.9057e-05,0
61.388,5.4719e-05,0
61.389,2.3667e-05,0
61.389,-3.0213e-06,0
61.39,-2.2492e-05,0
61.39,-3.3066e-05,0
61.391,-4.062e-05,0
61.391,-5.0019e-05,0
61.392,-5.6062e-05,0
61.392,-4.9516e-05,0
61.393,-3.6088e-05,0
61.393,-2.5849e-05,0
61.394,-1.8463e-05,0
61.394,-1.2253e-05,0
61.395,-1.2757e-05,0
61.395,-2.1317e-05,0
61.396,-3.0716e-05,0
61.396,-3.743e-05,0
61.397,-4.448e-05,0
61.397,-4.7501e-05,0
61.398,-3.9948e-05,0
61.399,-2.5345e-05,0
61.399,-5.539e-06,0
61.4,2.031e-05,0
61.4,4.9348e-05,0
61.401,7.3182e-05,0
61.401,9.5171e-05,0
61.402,0.00011598,0
61.402,0.00012454,0
61.403,0.0001274,0
61.403,0.00014418,0
61.404,0.0001655,0
61.404,0.00016332,0
61.405,0.00013394,0
61.405,8.9128e-05,0
61.406,4.5487e-05,0
61.406,9.5674e-06,0
61.407,-2.1653e-05,0
61.407,-5.3544e-05,0
61.408,-8.0568e-05,0
61.408,-9.2149e-05,0
61.409,-9.3996e-05,0
61.409,-9.3324e-05,0
61.41,-8.6778e-05,0
61.41,-6.9993e-05,0
61.411,-4.5151e-05,0
61.411,-2.2324e-05,0
61.412,-6.8818e-06,0
61.413,6.5461e-06,0
61.413,2.266e-05,0
61.414,4.213e-05,0
61.414,6.2272e-05,0
61.415,8.1239e-05,0
61.415,9.6513e-05,0
61.416,0.00010726,0
61.416,0.00011363,0
61.417,0.0001138,0
61.417,0.00010373,0
61.418,8.7953e-05,0
61.418,7.4525e-05,0
61.419,6.3951e-05,0
61.419,5.3544e-05,0
61.42,4.7333e-05,0
61.42,4.3473e-05,0
61.421,3.0716e-05,0
61.421,9.9031e-06,0
61.422,-6.8818e-06,0
61.422,-1.1917e-05,0
61.423,-1.1749e-05,0
61.423,-1.0239e-05,0
61.424,-8.3925e-06,0
61.424,-6.8818e-06,0
61.425,-6.2104e-06,0
61.426,-6.8818e-06,0
61.426,-7.2175e-06,0
61.427,-6.8818e-06,0
61.427,-5.8747e-06,0
61.428,-7.5532e-06,0
61.428,-1.3764e-05,0
61.429,-2.1653e-05,0
61.429,-2.6184e-05,0
61.43,-2.2324e-05,0
61.43,-1.091e-05,0
61.431,3.1891e-06,0
61.431,1.2253e-05,0
61.432,1.4099e-05,0
61.432,1.3596e-05,0
61.433,1.6281e-05,0
61.433,2.2492e-05,0
61.434,2.7863e-05,0
61.434,2.8702e-05,0
61.435,2.8534e-05,0
61.435,3.3066e-05,0
61.436,4.1291e-05,0
61.436,4.8173e-05,0
61.437,5.1194e-05,0
61.437,5.0187e-05,0
61.438,4.5487e-05,0
61.438,4.0116e-05,0
61.439,3.4073e-05,0
61.44,2.7359e-05,0
61.44,1.9974e-05,0
61.441,1.3092e-05,0
61.441,8.2246e-06,0
61.442,2.5177e-06,0
61.442,-1.1749e-06,0
61.443,-2.8534e-06,0
61.443,3.357e-07,0
61.444,3.5248e-06,0
61.444,4.8676e-06,0
61.445,8.7282e-06,0
61.445,1.5442e-05,0
61.446,2.0645e-05,0
61.446,2.2324e-05,0
61.447,2.0645e-05,0
61.447,1.7121e-05,0
61.448,1.1582e-05,0
61.448,6.0426e-06,0
61.449,2.5177e-06,0
61.449,1.6785e-06,0
61.45,-1.5106e-06,0
61.45,-9.2317e-06,0
61.451,-1.6953e-05,0
61.451,-1.9974e-05,0
61.452,-1.6785e-05,0
61.453,-1.0407e-05,0
61.453,-2.182e-06,0
61.454,6.8818e-06,0
61.454,1.3596e-05,0
61.455,1.8631e-05,0
61.455,2.5345e-05,0
61.456,2.9877e-05,0
61.456,3.1052e-05,0
61.457,3.0045e-05,0
61.457,2.501e-05,0
61.458,1.9303e-05,0
61.458,1.8967e-05,0
61.459,2.3667e-05,0
61.459,3.0045e-05,0
61.46,3.3402e-05,0
61.46,3.4409e-05,0
61.461,3.4745e-05,0
61.461,3.2059e-05,0
61.462,2.6688e-05,0
61.462,2.4002e-05,0
61.463,2.1988e-05,0
61.463,2.182e-05,0
61.464,2.6017e-05,0
61.464,2.8031e-05,0
61.465,2.5681e-05,0
61.465,2.5345e-05,0
61.466,3.0045e-05,0
61.467,3.4409e-05,0
61.467,4.1794e-05,0
61.468,5.3544e-05,0
61.468,6.6133e-05,0
61.469,7.8553e-05,0
61.469,8.5603e-05,0
61.47,7.9561e-05,0
61.47,6.4958e-05,0
61.471,4.8173e-05,0
61.471,3.4073e-05,0
61.472,1.7792e-05,0
61.472,-9.5674e-06,0
61.473,-4.3305e-05,0
61.473,-7.4189e-05,0
61.474,-9.8527e-05,0
61.474,-0.00011598,0
61.475,-0.00012186,0
61.475,-0.00011414,0
61.476,-0.00010306,0
61.476,-9.987e-05,0
61.477,-0.00010004,0
61.477,-9.0806e-05,0
61.478,-7.4022e-05,0
61.478,-5.2873e-05,0
61.479,-2.9038e-05,0
61.48,-4.1962e-06,0
61.48,1.7456e-05,0
61.481,4.2298e-05,0
61.481,7.3686e-05,0
61.482,0.00010759,0
61.482,0.00013545,0
61.483,0.0001556,0
61.483,0.00017272,0
61.484,0.00018178,0
61.484,0.00017607,0
61.485,0.00015459,0
61.485,0.00012639,0
61.486,9.8527e-05,0
61.486,7.6539e-05,0
61.487,6.479e-05,0
61.487,5.7404e-05,0
61.488,5.0858e-05,0
61.488,4.2802e-05,0
61.489,3.8102e-05,0
61.489,3.3906e-05,0
61.49,2.8031e-05,0
61.49,2.266e-05,0
61.491,2.1317e-05,0
61.491,2.4674e-05,0
61.492,2.9374e-05,0
61.492,2.7527e-05,0
61.493,1.7792e-05,0
61.494,8.896e-06,0
61.494,1.1078e-05,0
61.495,1.6449e-05,0
61.495,1.2589e-05,0
61.496,5.539e-06,0
61.496,8.5603e-06,0
61.497,1.8631e-05,0
61.497,2.6017e-05,0
61.498,2.887e-05,0
61.498,2.6017e-05,0
61.499,1.6785e-05,0
61.499,6.8818e-06,0
61.5,-8.3925e-07,0
61.5,-2.8534e-06,0
61.501,-1.6785e-07,0
61.501,-5.0355e-07,0
61.502,-5.2033e-06,0
61.502,-1.2253e-05,0
61.503,-1.6785e-05,0
61.503,-1.6953e-05,0
61.504,-1.561e-05,0
61.504,-1.1582e-05,0
61.505,-5.7069e-06,0
61.505,3.1891e-06,0
61.506,1.3596e-05,0
61.507,2.2995e-05,0
61.507,2.9374e-05,0
61.508,3.2731e-05,0
61.508,3.4745e-05,0
61.509,3.508e-05,0
61.509,2.9374e-05,0
61.51,2.1988e-05,0
61.51,1.6281e-05,0
61.511,1.5274e-05,0
61.511,1.8967e-05,0
61.512,2.4338e-05,0
61.512,3.0716e-05,0
61.513,3.4409e-05,0
61.513,4.0116e-05,0
61.514,4.918e-05,0
61.514,5.623e-05,0
61.515,5.9922e-05,0
61.515,6.0929e-05,0
61.516,6.1601e-05,0
61.516,5.9586e-05,0
61.517,5.7572e-05,0
61.517,6.0929e-05,0
61.518,6.5461e-05,0
61.518,6.5461e-05,0
61.519,5.9586e-05,0
61.52,4.8508e-05,0
61.52,3.6088e-05,0
61.521,2.1988e-05,0
61.521,7.0497e-06,0
61.522,-7.8889e-06,0
61.522,-2.266e-05,0
61.523,-4.062e-05,0
61.523,-5.5894e-05,0
61.524,-6.1936e-05,0
61.524,-5.7908e-05,0
61.525,-4.7837e-05,0
61.525,-3.8102e-05,0
61.526,-3.4241e-05,0
61.526,-3.4409e-05,0
61.527,-3.6423e-05,0
61.527,-3.7263e-05,0
61.528,-3.743e-05,0
61.528,-3.4073e-05,0
61.529,-2.7192e-05,0
61.529,-1.9135e-05,0
61.53,-1.3596e-05,0
61.53,-1.1582e-05,0
61.531,-1.4771e-05,0
61.531,-1.8463e-05,0
61.532,-1.7624e-05,0
61.532,-1.2085e-05,0
61.533,-4.3641e-06,0
61.534,2.5177e-06,0
61.534,5.8747e-06,0
61.535,9.0639e-06,0
61.535,1.2589e-05,0
61.536,1.9974e-05,0
61.536,2.7863e-05,0
61.537,3.4745e-05,0
61.537,4.3473e-05,0
61.538,5.2873e-05,0
61.538,6.2608e-05,0
61.539,7.1672e-05,0
61.539,7.7379e-05,0
61.54,7.7043e-05,0
61.54,7.3518e-05,0
61.541,7.1e-05,0
61.541,7.2343e-05,0
61.542,7.9225e-05,0
61.542,8.6442e-05,0
61.543,8.5771e-05,0
61.543,7.7379e-05,0
61.544,6.9322e-05,0
61.544,5.8915e-05,0
61.545,4.213e-05,0
61.545,2.2324e-05,0
61.546,2.5177e-06,0
61.547,-1.2085e-05,0
61.547,-1.9638e-05,0
61.548,-2.501e-05,0
61.548,-3.1052e-05,0
61.549,-3.6927e-05,0
61.549,-4.1962e-05,0
61.55,-4.8508e-05,0
61.55,-5.623e-05,0
61.551,-6.0258e-05,0
61.551,-5.6062e-05,0
61.552,-4.3137e-05,0
61.552,-2.7024e-05,0
61.553,-1.4771e-05,0
61.553,-6.5461e-06,0
61.554,-1.6785e-06,0
61.554,-2.5177e-06,0
61.555,-3.6927e-06,0
61.555,2.8534e-06,0
61.556,1.326e-05,0
61.556,1.9638e-05,0
61.557,1.8967e-05,0
61.557,1.7288e-05,0
61.558,2.1317e-05,0
61.558,3.4241e-05,0
61.559,5.2537e-05,0
61.559,7.0329e-05,0
61.56,8.6946e-05,0
61.561,9.9702e-05,0
61.561,0.00010642,0
61.562,0.0001044,0
61.562,9.4835e-05,0
61.563,8.1071e-05,0
61.563,6.865e-05,0
61.564,5.9586e-05,0
61.564,5.3544e-05,0
61.565,4.9851e-05,0
61.565,4.5487e-05,0
61.566,4.1459e-05,0
61.566,3.7934e-05,0
61.567,3.7095e-05,0
61.567,4.062e-05,0
61.568,4.6159e-05,0
61.568,4.8173e-05,0
61.569,4.918e-05,0
61.569,5.2201e-05,0
61.57,5.9922e-05,0
61.57,6.8986e-05,0
61.571,7.5364e-05,0
61.571,7.3686e-05,0
61.572,6.4622e-05,0
61.572,4.7501e-05,0
61.573,2.5513e-05,0
61.574,2.5177e-06,0
61.574,-1.8128e-05,0
61.575,-3.2731e-05,0
61.575,-3.7766e-05,0
61.576,-3.592e-05,0
61.576,-3.4073e-05,0
61.577,-3.3738e-05,0
61.577,-3.2395e-05,0
61.578,-3.0549e-05,0
61.578,-2.7695e-05,0
61.579,-2.4002e-05,0
61.579,-1.6281e-05,0
61.58,1.6785e-06,0
61.58,2.6352e-05,0
61.581,5.0187e-05,0
61.581,6.5629e-05,0
61.582,6.7643e-05,0
61.582,6.2943e-05,0
61.583,6.0594e-05,0
61.583,5.9586e-05,0
61.584,5.8915e-05,0
61.584,5.4047e-05,0
61.585,4.4984e-05,0
61.585,3.1724e-05,0
61.586,9.5674e-06,0
61.586,-1.4939e-05,0
61.587,-3.6759e-05,0
61.588,-5.1698e-05,0
61.588,-5.5558e-05,0
61.589,-5.3544e-05,0
61.589,-5.304e-05,0
61.59,-5.1362e-05,0
61.59,-4.3977e-05,0
61.591,-2.8367e-05,0
61.591,-1.0575e-05,0
61.592,1.6785e-06,0
61.592,7.2175e-06,0
61.593,1.0239e-05,0
61.593,1.326e-05,0
61.594,1.9135e-05,0
61.594,2.6017e-05,0
61.595,3.3234e-05,0
61.595,4.1123e-05,0
61.596,4.5991e-05,0
61.596,4.7166e-05,0
61.597,4.7669e-05,0
61.597,4.7501e-05,0
61.598,4.3473e-05,0
61.598,3.508e-05,0
61.599,2.7359e-05,0
61.599,2.2828e-05,0
61.6,2.0981e-05,0
61.6,2.0645e-05,0
61.601,2.1988e-05,0
61.602,2.3835e-05,0
61.602,2.1317e-05,0
61.603,1.4267e-05,0
61.603,6.5461e-06,0
61.604,5.7069e-06,0
61.604,9.9031e-06,0
61.605,1.1582e-05,0
61.605,1.1414e-05,0
61.606,1.2589e-05,0
61.606,1.5106e-05,0
61.607,1.7288e-05,0
61.607,1.6617e-05,0
61.608,1.3596e-05,0
61.608,1.2589e-05,0
61.609,1.6617e-05,0
61.609,2.8534e-05,0
61.61,4.3137e-05,0
61.61,5.153e-05,0
61.611,4.9348e-05,0
61.611,4.2802e-05,0
61.612,4.0116e-05,0
61.612,3.7095e-05,0
61.613,2.5513e-05,0
61.613,1.1582e-05,0
61.614,4.1962e-06,0
61.615,4.1962e-06,0
61.615,4.8676e-06,0
61.616,3.0213e-06,0
61.616,-2.182e-06,0
61.617,-4.3641e-06,0
61.617,-4.0284e-06,0
61.618,-4.0284e-06,0
61.618,-1.3428e-06,0
61.619,2.182e-06,0
61.619,5.2033e-06,0
61.62,9.2317e-06,0
61.62,1.9974e-05,0
61.621,3.5752e-05,0
61.621,4.5823e-05,0
61.622,4.6662e-05,0
61.622,4.6662e-05,0
61.623,5.2873e-05,0
61.623,6.9657e-05,0
61.624,9.8527e-05,0
61.624,0.00013008,0
61.625,0.00014653,0
61.625,0.00014452,0
61.626,0.00013378,0
61.626,0.00012236,0
61.627,0.00010726,0
61.627,8.5771e-05,0
61.628,6.1097e-05,0
61.629,3.8437e-05,0
61.629,1.5274e-05,0
61.63,-7.5532e-06,0
61.63,-2.3667e-05,0
61.631,-3.2731e-05,0
61.631,-3.7766e-05,0
61.632,-3.7766e-05,0
61.632,-3.3402e-05,0
61.633,-3.0045e-05,0
61.633,-1.8799e-05,0
61.634,2.8534e-06,0
61.634,1.9471e-05,0
61.635,1.7792e-05,0
61.635,3.357e-07,0
61.636,-1.9638e-05,0
61.636,-3.5248e-05,0
61.637,-4.4816e-05,0
61.637,-4.7166e-05,0
61.638,-4.213e-05,0
61.638,-3.4241e-05,0
61.639,-2.5849e-05,0
61.639,-1.7288e-05,0
61.64,-1.1246e-05,0
61.64,-9.2317e-06,0
61.641,-8.0568e-06,0
61.642,-5.539e-06,0
61.642,-2.5177e-06,0
61.643,-2.5177e-06,0
61.643,-7.5532e-06,0
61.644,-1.0239e-05,0
61.644,-7.5532e-06,0
61.645,-8.3925e-07,0
61.645,4.5319e-06,0
61.646,7.8889e-06,0
61.646,1.2421e-05,0
61.647,1.7288e-05,0
61.647,2.1988e-05,0
61.648,2.5849e-05,0
61.648,3.1052e-05,0
61.649,3.4745e-05,0
61.649,3.3066e-05,0
61.65,2.4842e-05,0
61.65,1.3931e-05,0
61.651,6.2104e-06,0
61.651,1.2757e-05,0
61.652,3.122e-05,0
61.652,5.0187e-05,0
61.653,6.2104e-05,0
61.653,6.63e-05,0
61.654,6.2943e-05,0
61.654,5.4215e-05,0
61.655,4.448e-05,0
61.656,3.4745e-05,0
61.656,2.4002e-05,0
61.657,1.8463e-05,0
61.657,2.031e-05,0
61.658,2.3499e-05,0
61.658,2.5849e-05,0
61.659,2.7695e-05,0
61.659,2.9709e-05,0
61.66,3.0716e-05,0
61.66,2.9709e-05,0
61.661,2.6688e-05,0
61.661,2.4002e-05,0
61.662,2.8702e-05,0
61.662,3.9948e-05,0
61.663,4.7166e-05,0
61.663,4.683e-05,0
61.664,4.5487e-05,0
61.664,4.4816e-05,0
61.665,4.7166e-05,0
61.665,5.1362e-05,0
61.666,5.2201e-05,0
61.666,5.0523e-05,0
61.667,4.8173e-05,0
61.667,4.7501e-05,0
61.668,4.683e-05,0
61.669,4.6159e-05,0
61.669,3.9612e-05,0
61.67,3.0213e-05,0
61.67,2.1149e-05,0
61.671,7.2175e-06,0
61.671,-1.1749e-05,0
61.672,-2.7359e-05,0
61.672,-3.7095e-05,0
61.673,-4.4144e-05,0
61.673,-5.2537e-05,0
61.674,-6.1769e-05,0
61.674,-6.8986e-05,0
61.675,-7.2343e-05,0
61.675,-7.0329e-05,0
61.676,-6.3951e-05,0
61.676,-5.3208e-05,0
61.677,-4.3473e-05,0
61.677,-3.6423e-05,0
61.678,-2.9038e-05,0
61.678,-1.8631e-05,0
61.679,-4.8676e-06,0
61.679,7.8889e-06,0
61.68,1.4267e-05,0
61.68,1.0239e-05,0
61.681,3.5248e-06,0
61.681,1.1749e-06,0
61.682,3.8605e-06,0
61.683,8.896e-06,0
61.683,1.1414e-05,0
61.684,1.1246e-05,0
61.684,1.0239e-05,0
61.685,2.182e-06,0
61.685,-1.091e-05,0
61.686,-1.8128e-05,0
61.686,-1.8967e-05,0
61.687,-2.2995e-05,0
61.687,-3.7766e-05,0
61.688,-5.7908e-05,0
61.688,-6.7811e-05,0
61.689,-5.9251e-05,0
61.689,-3.8102e-05,0
61.69,-1.4435e-05,0
61.69,7.5532e-06,0
61.691,2.8199e-05,0
61.691,5.2033e-05,0
61.692,8.3085e-05,0
61.692,0.00012203,0
61.693,0.00015694,0
61.693,0.00017775,0
61.694,0.00018447,0
61.694,0.00018648,0
61.695,0.00018849,0
61.696,0.00018447,0
61.696,0.0001697,0
61.697,0.00014871,0
61.697,0.00012706,0
61.698,0.00011061,0
61.698,9.9367e-05,0
61.699,9.1814e-05,0
61.699,8.5771e-05,0
61.7,7.9728e-05,0
61.7,7.6707e-05,0
61.701,7.9393e-05,0
61.701,8.3085e-05,0
61.702,8.191e-05,0
61.702,7.4861e-05,0
61.703,6.5629e-05,0
61.703,6.0929e-05,0
61.704,5.9586e-05,0
61.704,6.009e-05,0
61.705,6.4286e-05,0
61.705,6.9322e-05,0
61.706,7.805e-05,0
61.706,8.8457e-05,0
61.707,9.1814e-05,0
61.707,8.5435e-05,0
61.708,7.3686e-05,0
61.709,6.2608e-05,0
61.709,5.2873e-05,0
61.71,4.3641e-05,0
61.71,3.6255e-05,0
61.711,3.0045e-05,0
61.711,2.2324e-05,0
61.712,8.2246e-06,0
61.712,-1.2924e-05,0
61.713,-3.8605e-05,0
61.713,-6.8482e-05,0
61.714,-9.6178e-05,0
61.714,-0.00011598,0
61.715,-0.00013025,0
61.715,-0.00014032,0
61.716,-0.00014704,0
61.716,-0.00014855,0
61.717,-0.000142,0
61.717,-0.00013042,0
61.718,-0.00012169,0
61.718,-0.00011229,0
61.719,-9.7856e-05,0
61.719,-8.191e-05,0
61.72,-6.5629e-05,0
61.72,-4.5319e-05,0
61.721,-2.4002e-05,0
61.721,-6.2104e-06,0
61.722,6.714e-06,0
61.723,2.0645e-05,0
61.723,3.2395e-05,0
61.724,3.7934e-05,0
61.724,3.9109e-05,0
61.725,3.5752e-05,0
61.725,2.6017e-05,0
61.726,1.7792e-05,0
61.726,1.4603e-05,0
61.727,1.5442e-05,0
61.727,1.5946e-05,0
61.728,1.4939e-05,0
61.728,1.4435e-05,0
61.729,2.031e-05,0
61.729,3.5416e-05,0
61.73,4.8844e-05,0
61.73,4.918e-05,0
61.731,3.5248e-05,0
61.731,1.6617e-05,0
61.732,3.0213e-06,0
61.732,-1.5106e-06,0
61.733,-3.6927e-06,0
61.733,-1.0239e-05,0
61.734,-1.4267e-05,0
61.734,-8.896e-06,0
61.735,-1.6785e-06,0
61.736,1.8463e-06,0
61.736,4.8676e-06,0
61.737,9.0639e-06,0
61.737,1.326e-05,0
61.738,1.4603e-05,0
61.738,1.091e-05,0
61.739,5.539e-06,0
61.739,6.0426e-06,0
61.74,1.0407e-05,0
61.74,1.6617e-05,0
61.741,2.501e-05,0
61.741,3.0213e-05,0
61.742,2.8367e-05,0
61.742,1.5946e-05,0
61.743,-1.1749e-06,0
61.743,-8.2246e-06,0
61.744,-1.6785e-07,0
61.744,1.9303e-05,0
61.745,4.5487e-05,0
61.745,6.4286e-05,0
61.746,6.8986e-05,0
61.746,6.63e-05,0
61.747,6.3615e-05,0
61.747,6.2104e-05,0
61.748,5.4551e-05,0
61.748,3.4073e-05,0
61.749,1.4603e-05,0
61.75,1.3931e-05,0
61.75,2.6352e-05,0
61.751,3.8605e-05,0
61.751,4.8676e-05,0
61.752,5.623e-05,0
61.752,6.3279e-05,0
61.753,7.1336e-05,0
61.753,7.8889e-05,0
61.754,8.8121e-05,0
61.754,0.00010373,0
61.755,0.00011917,0
61.755,0.00012958,0
61.756,0.00013747,0
61.756,0.00014653,0
61.757,0.00015006,0
61.757,0.000142,0
61.758,0.00012975,0
61.758,0.00012068,0
61.759,0.00011447,0
61.759,0.00010524,0
61.76,9.5003e-05,0
61.76,8.7114e-05,0
61.761,7.6371e-05,0
61.761,6.4286e-05,0
61.762,5.8747e-05,0
61.763,5.1698e-05,0
61.763,3.5416e-05,0
61.764,1.6617e-05,0
61.764,-1.6785e-07,0
61.765,-1.6281e-05,0
61.765,-2.8031e-05,0
61.766,-4.2634e-05,0
61.766,-7.4022e-05,0
61.767,-0.00010977,0
61.767,-0.00013596,0
61.768,-0.0001472,0
61.768,-0.00014418,0
61.769,-0.00013747,0
61.769,-0.00012958,0
61.77,-0.0001227,0
61.77,-0.00011766,0
61.771,-0.00011112,0
61.771,-0.00010088,0
61.772,-8.9632e-05,0
61.772,-7.3014e-05,0
61.773,-5.153e-05,0
61.773,-2.9374e-05,0
61.774,-9.9031e-06,0
61.774,6.3783e-06,0
61.775,1.5778e-05,0
61.775,1.7792e-05,0
61.776,2.0981e-05,0
61.777,2.7695e-05,0
61.777,3.6591e-05,0
61.778,4.8173e-05,0
61.778,6.1601e-05,0
61.779,7.1504e-05,0
61.779,7.7714e-05,0
61.78,8.3085e-05,0
61.78,8.661e-05,0
61.781,8.8457e-05,0
61.781,8.8121e-05,0
61.782,8.3925e-05,0
61.782,7.3518e-05,0
61.783,6.2776e-05,0
61.783,5.4047e-05,0
61.784,4.5823e-05,0
61.784,3.8773e-05,0
61.785,3.1891e-05,0
61.785,1.8967e-05,0
61.786,2.5177e-06,0
61.786,-1.3931e-05,0
61.787,-2.8702e-05,0
61.787,-3.8773e-05,0
61.788,-4.6494e-05,0
61.788,-5.4551e-05,0
61.789,-5.9922e-05,0
61.789,-5.5222e-05,0
61.79,-3.7934e-05,0
61.791,-2.2324e-05,0
61.791,-9.9031e-06,0
61.792,6.0426e-06,0
61.792,2.5177e-05,0
61.793,4.2466e-05,0
61.793,5.6397e-05,0
61.794,6.9993e-05,0
61.794,8.3589e-05,0
61.795,9.2988e-05,0
61.795,9.8863e-05,0
61.796,0.00011145,0
61.796,0.00013042,0
61.797,0.00014334,0
61.797,0.00014418,0
61.798,0.00013663,0
61.798,0.0001279,0
61.799,0.00012236,0
61.799,0.00011296,0
61.8,9.5506e-05,0
61.8,7.6036e-05,0
61.801,5.9419e-05,0
61.801,4.5487e-05,0
61.802,3.5248e-05,0
61.802,2.7024e-05,0
61.803,1.6281e-05,0
61.804,2.5177e-06,0
61.804,-1.2253e-05,0
61.805,-2.8031e-05,0
61.805,-3.9109e-05,0
61.806,-4.448e-05,0
61.806,-4.7166e-05,0
61.807,-4.683e-05,0
61.807,-4.0787e-05,0
61.808,-2.8031e-05,0
61.808,-9.2317e-06,0
61.809,1.7121e-05,0
61.809,4.5487e-05,0
61.81,7.2007e-05,0
61.81,9.0471e-05,0
61.811,9.8527e-05,0
61.811,9.5842e-05,0
61.812,8.4596e-05,0
61.812,6.9322e-05,0
61.813,4.5151e-05,0
61.813,9.5674e-06,0
61.814,-2.8702e-05,0
61.814,-4.4816e-05,0
61.815,-4.0787e-05,0
61.815,-4.3137e-05,0
61.816,-5.8076e-05,0
61.816,-7.9057e-05,0
61.817,-9.8695e-05,0
61.818,-0.00011531,0
61.818,-0.00012874,0
61.819,-0.00014217,0
61.819,-0.00014788,0
61.82,-0.00014318,0
61.82,-0.0001321,0
61.821,-0.00011498,0
61.821,-8.9799e-05,0
61.822,-5.9586e-05,0
61.822,-3.1052e-05,0
61.823,-1.7624e-05,0
61.823,-2.031e-05,0
61.824,-2.4002e-05,0
61.824,-1.9638e-05,0
61.825,-7.7211e-06,0
61.825,1.091e-05,0
61.826,2.7695e-05,0
61.826,3.6759e-05,0
61.827,4.0787e-05,0
61.827,4.2802e-05,0
61.828,4.2802e-05,0
61.828,4.213e-05,0
61.829,4.062e-05,0
61.829,4.3305e-05,0
61.83,5.153e-05,0
61.831,5.6901e-05,0
61.831,5.2705e-05,0
61.832,4.6494e-05,0
61.832,4.683e-05,0
61.833,5.2201e-05,0
61.833,5.6901e-05,0
61.834,5.8915e-05,0
61.834,5.9419e-05,0
61.835,6.4286e-05,0
61.835,8.1071e-05,0
61.836,0.00010356,0
61.836,0.00012656,0
61.837,0.00014485,0
61.837,0.00015509,0
61.838,0.00015845,0
61.838,0.00015291,0
61.839,0.00013881,0
61.839,0.00011766,0
61.84,9.1814e-05,0
61.84,6.9154e-05,0
61.841,5.4047e-05,0
61.841,4.3137e-05,0
61.842,3.2059e-05,0
61.842,1.5274e-05,0
61.843,-1.8463e-06,0
61.843,-9.2317e-06,0
61.844,-4.8676e-06,0
61.845,1.8463e-06,0
61.845,8.5603e-06,0
61.846,1.5442e-05,0
61.846,2.0478e-05,0
61.847,2.0478e-05,0
61.847,1.8463e-05,0
61.848,1.6281e-05,0
61.848,1.4603e-05,0
61.849,1.2253e-05,0
61.849,9.3996e-06,0
61.85,7.8889e-06,0
61.85,7.8889e-06,0
61.851,6.8818e-06,0
61.851,5.2033e-06,0
61.852,8.2246e-06,0
61.852,1.3931e-05,0
61.853,1.9135e-05,0
61.853,2.1317e-05,0
61.854,2.0981e-05,0
61.854,2.3667e-05,0
61.855,2.9206e-05,0
61.855,3.0716e-05,0
61.856,2.7359e-05,0
61.856,2.4002e-05,0
61.857,2.4506e-05,0
61.858,2.4674e-05,0
61.858,2.4506e-05,0
61.859,2.5849e-05,0
61.859,2.7024e-05,0
61.86,2.7359e-05,0
61.86,2.9374e-05,0
61.861,3.6423e-05,0
61.861,4.8844e-05,0
61.862,6.6468e-05,0
61.862,8.3757e-05,0
61.863,9.3492e-05,0
61.863,9.0303e-05,0
61.864,7.805e-05,0
61.864,6.2943e-05,0
61.865,4.8173e-05,0
61.865,3.508e-05,0
61.866,2.1317e-05,0
61.866,3.8605e-06,0
61.867,-1.7792e-05,0
61.867,-3.8773e-05,0
61.868,-5.5726e-05,0
61.868,-6.5293e-05,0
61.869,-6.6804e-05,0
61.869,-6.8482e-05,0
61.87,-7.5532e-05,0
61.87,-8.6778e-05,0
61.871,-9.2317e-05,0
61.872,-8.8121e-05,0
61.872,-7.5196e-05,0
61.873,-5.1194e-05,0
61.873,-2.1653e-05,0
61.874,4.6998e-06,0
61.874,2.2324e-05,0
61.875,2.7359e-05,0
61.875,2.6184e-05,0
61.876,2.8031e-05,0
61.876,2.9038e-05,0
61.877,2.8534e-05,0
61.877,2.6688e-05,0
61.878,1.5946e-05,0
61.878,-7.3854e-06,0
61.879,-3.6591e-05,0
61.879,-5.8412e-05,0
61.88,-6.5293e-05,0
61.88,-6.0258e-05,0
61.881,-5.2201e-05,0
61.881,-4.918e-05,0
61.882,-5.1362e-05,0
61.882,-4.8676e-05,0
61.883,-4.1123e-05,0
61.883,-2.9877e-05,0
61.884,-2.0478e-05,0
61.885,-1.2924e-05,0
61.885,-1.1749e-06,0
61.886,1.326e-05,0
61.886,2.4002e-05,0
61.887,3.2731e-05,0
61.887,4.2802e-05,0
61.888,5.7572e-05,0
61.888,7.3014e-05,0
61.889,8.5435e-05,0
61.889,9.5674e-05,0
61.89,0.00010188,0
61.89,0.00010256,0
61.891,0.00010155,0
61.891,0.00010188,0
61.892,0.00010323,0
61.892,0.00010306,0
61.893,0.00010558,0
61.893,0.00010927,0
61.894,0.00010457,0
61.894,9.1142e-05,0
61.895,7.4861e-05,0
61.895,6.4286e-05,0
61.896,5.8915e-05,0
61.896,5.4887e-05,0
61.897,4.4816e-05,0
61.898,2.887e-05,0
61.898,1.4939e-05,0
61.899,9.2317e-06,0
61.899,9.9031e-06,0
61.9,1.2924e-05,0
61.9,1.0239e-05,0
61.901,-1.6785e-07,0
61.901,-1.8631e-05,0
61.902,-4.3137e-05,0
61.902,-6.2608e-05,0
61.903,-6.9322e-05,0
61.903,-6.6133e-05,0
61.904,-5.539e-05,0
61.904,-3.4745e-05,0
61.905,-8.896e-06,0
61.905,1.4099e-05,0
61.906,3.4745e-05,0
61.906,5.6901e-05,0
61.907,8.2246e-05,0
61.907,0.00011212,0
61.908,0.00014553,0
61.908,0.00017221,0
61.909,0.0001843,0
61.909,0.00018178,0
61.91,0.00017171,0
61.91,0.0001556,0
61.911,0.00013747,0
61.912,0.0001227,0
61.912,0.00011296,0
61.913,0.00010121,0
61.913,8.191e-05,0
61.914,5.9251e-05,0
61.914,4.0116e-05,0
61.915,2.9038e-05,0
61.915,2.6184e-05,0
61.916,2.7527e-05,0
61.916,4.0787e-05,0
61.917,6.5293e-05,0
61.917,8.3925e-05,0
61.918,9.0303e-05,0
61.918,8.3253e-05,0
61.919,6.3447e-05,0
61.919,3.4577e-05,0
61.92,1.8463e-06,0
61.92,-3.0213e-05,0
61.921,-6.0929e-05,0
61.921,-8.8624e-05,0
61.922,-0.00011196,0
61.922,-0.00012723,0
61.923,-0.00013327,0
61.923,-0.00013512,0
61.924,-0.00013881,0
61.925,-0.00014351,0
61.925,-0.00014435,0
61.926,-0.00013646,0
61.926,-0.00012287,0
61.927,-0.00010675,0
61.927,-8.8121e-05,0
61.928,-6.8986e-05,0
61.928,-5.2033e-05,0
61.929,-3.8941e-05,0
61.929,-2.8702e-05,0
61.93,-1.8128e-05,0
61.93,-4.8676e-06,0
61.931,6.0426e-06,0
61.931,1.1917e-05,0
61.932,1.5274e-05,0
61.932,1.6953e-05,0
61.933,1.7288e-05,0
61.933,1.9806e-05,0
61.934,2.6017e-05,0
61.934,3.2898e-05,0
61.935,3.8102e-05,0
61.935,3.978e-05,0
61.936,3.6088e-05,0
61.936,3.2395e-05,0
61.937,3.5416e-05,0
61.937,4.4648e-05,0
61.938,5.3376e-05,0
61.939,5.4719e-05,0
61.939,5.2537e-05,0
61.94,5.5726e-05,0
61.94,6.4958e-05,0
61.941,6.865e-05,0
61.941,6.0258e-05,0
61.942,4.9516e-05,0
61.942,4.8173e-05,0
61.943,5.623e-05,0
61.943,6.4622e-05,0
61.944,7.0665e-05,0
61.944,7.8721e-05,0
61.945,8.3925e-05,0
61.945,8.4764e-05,0
61.946,8.1743e-05,0
61.946,7.1839e-05,0
61.947,5.1865e-05,0
61.947,2.2492e-05,0
61.948,-4.1962e-06,0
61.948,-2.501e-05,0
61.949,-4.7166e-05,0
61.949,-6.3951e-05,0
61.95,-7.0832e-05,0
61.95,-7.4357e-05,0
61.951,-8.4932e-05,0
61.952,-9.8192e-05,0
61.952,-9.8863e-05,0
61.953,-8.3085e-05,0
61.953,-6.2776e-05,0
61.954,-4.4984e-05,0
61.954,-3.0213e-05,0
61.955,-1.8463e-05,0
61.955,-1.2421e-05,0
61.956,-1.0407e-05,0
61.956,-9.5674e-06,0
61.957,-5.8747e-06,0
61.957,1.8463e-06,0
61.958,1.2589e-05,0
61.958,2.2995e-05,0
61.959,3.2059e-05,0
61.959,3.9445e-05,0
61.96,4.3809e-05,0
61.96,4.6494e-05,0
61.961,5.069e-05,0
61.961,5.5558e-05,0
61.962,6.0258e-05,0
61.962,6.244e-05,0
61.963,6.0929e-05,0
61.963,5.9586e-05,0
61.964,5.8579e-05,0
61.964,5.7237e-05,0
61.965,5.7908e-05,0
61.966,5.6901e-05,0
61.966,4.8508e-05,0
61.967,3.508e-05,0
61.967,1.9974e-05,0
61.968,7.8889e-06,0
61.968,0,0
61.969,-6.5461e-06,0
61.969,-1.4771e-05,0
61.97,-2.1988e-05,0
61.97,-1.9638e-05,0
61.971,-7.5532e-06,0
61.971,7.8889e-06,0
61.972,2.1149e-05,0
61.972,3.2059e-05,0
61.973,4.3305e-05,0
61.973,5.4047e-05,0
61.974,6.2943e-05,0
61.974,7.0161e-05,0
61.975,7.7714e-05,0
61.975,8.9799e-05,0
61.976,0.00010524,0
61.976,0.00012152,0
61.977,0.00013646,0
61.977,0.00014871,0
61.978,0.00015627,0
61.978,0.00015828,0
61.979,0.00015459,0
61.98,0.00014754,0
61.98,0.00013562,0
61.981,0.00011464,0
61.981,8.8457e-05,0
61.982,6.0258e-05,0
61.982,3.7095e-05,0
61.983,2.7192e-05,0
61.983,2.2995e-05,0
61.984,1.8463e-05,0
61.984,1.3092e-05,0
61.985,4.6998e-06,0
61.985,-6.2104e-06,0
61.986,-1.4267e-05,0
61.986,-1.7288e-05,0
61.987,-1.8967e-05,0
61.987,-1.9806e-05,0
61.988,-2.2828e-05,0
61.988,-3.0884e-05,0
61.989,-3.7095e-05,0
61.989,-3.9109e-05,0
61.99,-3.9445e-05,0
61.99,-3.9612e-05,0
61.991,-3.978e-05,0
61.991,-3.9277e-05,0
61.992,-4.0955e-05,0
61.993,-4.4648e-05,0
61.993,-4.7166e-05,0
61.994,-4.8005e-05,0
61.994,-4.5655e-05,0
61.995,-3.7934e-05,0
61.995,-2.8199e-05,0
61.996,-1.7792e-05,0
61.996,-6.8818e-06,0
61.997,1.1749e-06,0
61.997,3.6927e-06,0
61.998,8.5603e-06,0
61.998,1.9303e-05,0
61.999,3.2731e-05,0
61.999,4.1962e-05,0
62,4.4816e-05,0
62,4.8173e-05,0
62.001,5.2537e-05,0
62.001,4.448e-05,0
62.002,1.7624e-05,0
62.002,-1.6281e-05,0
62.003,-3.9109e-05,0
62.003,-4.8508e-05,0
62.004,-4.9516e-05,0
62.004,-4.683e-05,0
62.005,-4.3977e-05,0
62.005,-3.8102e-05,0
62.006,-2.4674e-05,0
62.007,-2.8534e-06,0
62.007,2.2995e-05,0
62.008,4.5319e-05,0
62.008,6.4622e-05,0
62.009,8.7114e-05,0
62.009,0.00011229,0
62.01,0.00012874,0
62.01,0.00012689,0
62.011,0.00011128,0
62.011,9.2988e-05,0
62.012,7.7211e-05,0
62.012,6.479e-05,0
62.013,5.5726e-05,0
62.013,4.7501e-05,0
62.014,4.2802e-05,0
62.014,4.1794e-05,0
62.015,3.4745e-05,0
62.015,2.8031e-05,0
62.016,3.1388e-05,0
62.016,3.9277e-05,0
62.017,3.743e-05,0
62.017,2.3835e-05,0
62.018,4.1962e-06,0
62.018,-1.5106e-05,0
62.019,-3.1724e-05,0
62.02,-4.3473e-05,0
62.02,-5.1026e-05,0
62.021,-5.539e-05,0
62.021,-5.6062e-05,0
62.022,-5.1362e-05,0
62.022,-4.3305e-05,0
62.023,-3.508e-05,0
62.023,-2.7695e-05,0
62.024,-1.9974e-05,0
62.024,-1.1582e-05,0
62.025,-8.2246e-06,0
62.025,-1.4267e-05,0
62.026,-2.1988e-05,0
62.026,-2.3835e-05,0
62.027,-1.9471e-05,0
62.027,-1.0071e-05,0
62.028,6.2104e-06,0
62.028,2.266e-05,0
62.029,3.2563e-05,0
62.029,3.3906e-05,0
62.03,3.2731e-05,0
62.03,3.2731e-05,0
62.031,3.7766e-05,0
62.031,4.7166e-05,0
62.032,5.4719e-05,0
62.032,5.5558e-05,0
62.033,5.3376e-05,0
62.034,4.7166e-05,0
62.034,3.1556e-05,0
62.035,5.2033e-06,0
62.035,-2.2492e-05,0
62.036,-4.3641e-05,0
62.036,-5.623e-05,0
62.037,-6.1601e-05,0
62.037,-6.0761e-05,0
62.038,-5.4551e-05,0
62.038,-4.2634e-05,0
62.039,-2.501e-05,0
62.039,-6.2104e-06,0
62.04,1.3764e-05,0
62.04,3.4745e-05,0
62.041,5.4887e-05,0
62.041,7.1168e-05,0
62.042,8.51e-05,0
62.042,0.00010021,0
62.043,0.00011431,0
62.043,0.0001227,0
62.044,0.00012454,0
62.044,0.00012303,0
62.045,0.0001237,0
62.045,0.00012874,0
62.046,0.00013545,0
62.047,0.00013545,0
62.047,0.00012723,0
62.048,0.00011716,0
62.048,0.00010927,0
62.049,0.00010054,0
62.049,8.7449e-05,0
62.05,7.3854e-05,0
62.05,6.4286e-05,0
62.051,5.9419e-05,0
62.051,5.6901e-05,0
62.052,5.2873e-05,0
62.052,4.448e-05,0
62.053,3.3738e-05,0
62.053,2.182e-05,0
62.054,1.1078e-05,0
62.054,5.7069e-06,0
62.055,3.0213e-06,0
62.055,-4.8676e-06,0
62.056,-1.8296e-05,0
62.056,-3.508e-05,0
62.057,-5.0858e-05,0
62.057,-6.63e-05,0
62.058,-7.57e-05,0
62.058,-7.2679e-05,0
62.059,-6.2104e-05,0
62.059,-5.3544e-05,0
62.06,-4.7837e-05,0
62.061,-4.0116e-05,0
62.061,-2.9709e-05,0
62.062,-1.9638e-05,0
62.062,-7.5532e-06,0
62.063,6.2104e-06,0
62.063,1.5946e-05,0
62.064,1.5946e-05,0
62.064,6.2104e-06,0
62.065,-6.714e-06,0
62.065,-1.5274e-05,0
62.066,-1.3931e-05,0
62.066,-5.2033e-06,0
62.067,4.5319e-06,0
62.067,9.5674e-06,0
62.068,9.2317e-06,0
62.068,8.7282e-06,0
62.069,1.0575e-05,0
62.069,1.0575e-05,0
62.07,8.896e-06,0
62.07,1.1917e-05,0
62.071,1.796e-05,0
62.071,2.1149e-05,0
62.072,2.4002e-05,0
62.072,2.6017e-05,0
62.073,2.266e-05,0
62.074,1.9303e-05,0
62.074,2.2492e-05,0
62.075,3.2731e-05,0
62.075,4.3137e-05,0
62.076,5.0523e-05,0
62.076,5.4047e-05,0
62.077,6.0258e-05,0
62.077,7.5029e-05,0
62.078,9.4499e-05,0
62.078,0.00010927,0
62.079,0.00011699,0
62.079,0.00012052,0
62.08,0.00011598,0
62.08,9.9199e-05,0
62.081,7.4357e-05,0
62.081,4.7837e-05,0
62.082,2.9038e-05,0
62.082,1.7121e-05,0
62.083,6.5461e-06,0
62.083,-6.8818e-06,0
62.084,-2.1988e-05,0
62.084,-3.4073e-05,0
62.085,-4.0116e-05,0
62.085,-3.978e-05,0
62.086,-3.8437e-05,0
62.087,-3.6591e-05,0
62.087,-3.3738e-05,0
62.088,-3.2227e-05,0
62.088,-2.8702e-05,0
62.089,-2.0981e-05,0
62.089,-1.3596e-05,0
62.09,-1.0071e-05,0
62.09,-7.7211e-06,0
62.091,-8.5603e-06,0
62.091,-1.1917e-05,0
62.092,-1.091e-05,0
62.092,-4.3641e-06,0
62.093,-1.5106e-06,0
62.093,-1.5106e-06,0
62.094,-1.1749e-06,0
62.094,-8.3925e-07,0
62.095,-1.6785e-06,0
62.095,-1.5106e-06,0
62.096,-2.3499e-06,0
62.096,-5.8747e-06,0
62.097,-1.3596e-05,0
62.097,-2.2492e-05,0
62.098,-2.4842e-05,0
62.098,-2.1988e-05,0
62.099,-1.7121e-05,0
62.099,-1.0071e-05,0
62.1,1.6785e-07,0
62.101,1.0575e-05,0
62.101,1.796e-05,0
62.102,2.1653e-05,0
62.102,2.652e-05,0
62.103,3.743e-05,0
62.103,5.3544e-05,0
62.104,6.865e-05,0
62.104,7.8386e-05,0
62.105,8.3925e-05,0
62.105,8.661e-05,0
62.106,9.0135e-05,0
62.106,8.8792e-05,0
62.107,8.0735e-05,0
62.107,6.9657e-05,0
62.108,5.9754e-05,0
62.108,5.1362e-05,0
62.109,4.2466e-05,0
62.109,3.2731e-05,0
62.11,2.5345e-05,0
62.11,1.9135e-05,0
62.111,1.3764e-05,0
62.111,6.8818e-06,0
62.112,2.5177e-06,0
62.112,1.1749e-06,0
62.113,-8.3925e-07,0
62.114,-5.539e-06,0
62.114,-1.4435e-05,0
62.115,-2.182e-05,0
62.115,-2.4002e-05,0
62.116,-2.1653e-05,0
62.116,-1.3092e-05,0
62.117,1.1749e-06,0
62.117,1.796e-05,0
62.118,3.0884e-05,0
62.118,4.062e-05,0
62.119,4.7669e-05,0
62.119,5.153e-05,0
62.12,5.4047e-05,0
62.12,5.4887e-05,0
62.121,5.4383e-05,0
62.121,5.2873e-05,0
62.122,5.1362e-05,0
62.122,4.7333e-05,0
62.123,4.0116e-05,0
62.123,3.4073e-05,0
62.124,2.6688e-05,0
62.124,1.326e-05,0
62.125,2.8534e-06,0
62.125,0,0
62.126,-1.5106e-06,0
62.126,-1.0407e-05,0
62.127,-2.4842e-05,0
62.128,-3.6088e-05,0
62.128,-3.6759e-05,0
62.129,-2.4506e-05,0
62.129,-3.6927e-06,0
62.13,1.6449e-05,0
62.13,2.9374e-05,0
62.131,3.8437e-05,0
62.131,4.2802e-05,0
62.132,4.213e-05,0
62.132,3.6759e-05,0
62.133,3.1052e-05,0
62.133,2.2995e-05,0
62.134,4.6998e-06,0
62.134,-2.1653e-05,0
62.135,-4.5319e-05,0
62.135,-5.5055e-05,0
62.136,-5.1194e-05,0
62.136,-4.1123e-05,0
62.137,-3.0045e-05,0
62.137,-1.7624e-05,0
62.138,-3.357e-06,0
62.138,1.0239e-05,0
62.139,2.6184e-05,0
62.139,4.6159e-05,0
62.14,6.1265e-05,0
62.141,7.0329e-05,0
62.141,7.9728e-05,0
62.142,9.4835e-05,0
62.142,0.00011531,0
62.143,0.00013344,0
62.143,0.00014133,0
62.144,0.00014015,0
62.144,0.0001368,0
62.145,0.00013663,0
62.145,0.00013948,0
62.146,0.0001415,0
62.146,0.00013243,0
62.147,0.00010675,0
62.147,6.63e-05,0
62.148,1.9303e-05,0
62.148,-1.8967e-05,0
62.149,-4.2466e-05,0
62.149,-5.7237e-05,0
62.15,-6.8147e-05,0
62.15,-7.2679e-05,0
62.151,-6.479e-05,0
62.151,-5.1194e-05,0
62.152,-3.8437e-05,0
62.152,-2.9877e-05,0
62.153,-2.4506e-05,0
62.153,-1.7792e-05,0
62.154,-8.7282e-06,0
62.155,1.1749e-06,0
62.155,1.0407e-05,0
62.156,1.5946e-05,0
62.156,1.2757e-05,0
62.157,1.8463e-06,0
62.157,-8.896e-06,0
62.158,-1.2421e-05,0
62.158,-1.2421e-05,0
62.159,-1.1582e-05,0
62.159,-7.5532e-06,0
62.16,5.8747e-06,0
62.16,3.0381e-05,0
62.161,6.3615e-05,0
62.161,9.0303e-05,0
62.162,0.00010423,0
62.162,0.00011162,0
62.163,0.00011196,0
62.163,9.8192e-05,0
62.164,7.4022e-05,0
62.164,5.1026e-05,0
62.165,3.0549e-05,0
62.165,5.0355e-06,0
62.166,-2.3835e-05,0
62.166,-5.0858e-05,0
62.167,-7.1e-05,0
62.167,-8.2414e-05,0
62.168,-8.6442e-05,0
62.169,-8.5435e-05,0
62.169,-7.9728e-05,0
62.17,-6.9993e-05,0
62.17,-5.5726e-05,0
62.171,-4.213e-05,0
62.171,-3.2395e-05,0
62.172,-1.9638e-05,0
62.172,-3.6927e-06,0
62.173,9.5674e-06,0
62.173,2.0981e-05,0
62.174,3.3066e-05,0
62.174,4.6494e-05,0
62.175,5.774e-05,0
62.175,6.009e-05,0
62.176,5.3208e-05,0
62.176,4.3473e-05,0
62.177,3.5752e-05,0
62.177,3.508e-05,0
62.178,3.9109e-05,0
62.178,4.1459e-05,0
62.179,4.2298e-05,0
62.179,4.5655e-05,0
62.18,4.8173e-05,0
62.18,4.5319e-05,0
62.181,3.8773e-05,0
62.182,3.5416e-05,0
62.182,3.6088e-05,0
62.183,3.743e-05,0
62.183,3.8102e-05,0
62.184,3.8437e-05,0
62.184,3.8102e-05,0
62.185,3.592e-05,0
62.185,3.3066e-05,0
62.186,3.1724e-05,0
62.186,3.2059e-05,0
62.187,3.508e-05,0
62.187,3.9109e-05,0
62.188,4.2466e-05,0
62.188,4.5319e-05,0
62.189,4.5151e-05,0
62.189,4.2802e-05,0
62.19,4.1459e-05,0
62.19,4.448e-05,0
62.191,5.1362e-05,0
62.191,5.6733e-05,0
62.192,6.2943e-05,0
62.192,6.8147e-05,0
62.193,6.6636e-05,0
62.193,5.7908e-05,0
62.194,4.5319e-05,0
62.194,2.9374e-05,0
62.195,1.091e-05,0
62.196,-8.896e-06,0
62.196,-2.887e-05,0
62.197,-4.6326e-05,0
62.197,-6.1601e-05,0
62.198,-7.4022e-05,0
62.198,-7.8218e-05,0
62.199,-7.5364e-05,0
62.199,-6.865e-05,0
62.2,-6.1097e-05,0
62.2,-5.4047e-05,0
62.201,-4.6494e-05,0
62.201,-3.827e-05,0
62.202,-3.0045e-05,0
62.202,-2.1988e-05,0
62.203,-1.4435e-05,0
62.203,-6.0426e-06,0
62.204,6.8818e-06,0
62.204,2.3667e-05,0
62.205,3.6759e-05,0
62.205,4.0955e-05,0
62.206,4.1459e-05,0
62.206,4.2466e-05,0
62.207,4.1291e-05,0
62.207,3.6759e-05,0
62.208,2.3163e-05,0
62.209,3.1891e-06,0
62.209,-1.2924e-05,0
62.21,-1.9303e-05,0
62.21,-1.6281e-05,0
62.211,-1.0575e-05,0
62.211,-1.091e-05,0
62.212,-1.091e-05,0
62.212,-1.6785e-06,0
62.213,1.6953e-05,0
62.213,3.7263e-05,0
62.214,5.3208e-05,0
62.214,6.6972e-05,0
62.215,8.3085e-05,0
62.215,9.4835e-05,0
62.216,9.5842e-05,0
62.216,8.7785e-05,0
62.217,7.7043e-05,0
62.217,7.3182e-05,0
62.218,7.7043e-05,0
62.218,7.8386e-05,0
62.219,7.0665e-05,0
62.219,5.1362e-05,0
62.22,2.652e-05,0
62.22,5.2033e-06,0
62.221,-2.8534e-06,0
62.221,-1.6785e-06,0
62.222,-1.8463e-06,0
62.223,-3.1891e-06,0
62.223,-2.6856e-06,0
62.224,5.8747e-06,0
62.224,2.1317e-05,0
62.225,3.9109e-05,0
62.225,5.4215e-05,0
62.226,6.63e-05,0
62.226,8.6275e-05,0
62.227,0.00012068,0
62.227,0.00015023,0
62.228,0.000165,0
62.228,0.00017003,0
62.229,0.00016953,0
62.229,0.00015962,0
62.23,0.0001368,0
62.23,0.00010423,0
62.231,6.9322e-05,0
62.231,3.6088e-05,0
62.232,4.1962e-06,0
62.232,-2.9038e-05,0
62.233,-5.9586e-05,0
62.233,-8.6107e-05,0
62.234,-0.00010574,0
62.234,-0.00011615,0
62.235,-0.00011934,0
62.236,-0.00011917,0
62.236,-0.00011397,0
62.237,-0.0001039,0
62.237,-8.7449e-05,0
62.238,-6.6972e-05,0
62.238,-4.9516e-05,0
62.239,-3.5416e-05,0
62.239,-2.3163e-05,0
62.24,-8.3925e-06,0
62.24,1.0575e-05,0
62.241,2.7192e-05,0
62.241,3.592e-05,0
62.242,3.743e-05,0
62.242,3.7263e-05,0
62.243,3.7095e-05,0
62.243,3.8437e-05,0
62.244,4.0452e-05,0
62.244,4.1459e-05,0
62.245,3.8605e-05,0
62.245,3.3066e-05,0
62.246,2.7527e-05,0
62.246,2.4506e-05,0
62.247,2.0645e-05,0
62.247,1.5778e-05,0
62.248,1.3092e-05,0
62.248,1.5274e-05,0
62.249,1.7121e-05,0
62.25,1.7624e-05,0
62.25,1.8296e-05,0
62.251,2.0478e-05,0
62.251,1.9806e-05,0
62.252,1.3931e-05,0
62.252,1.0071e-05,0
62.253,1.1246e-05,0
62.253,1.6449e-05,0
62.254,2.1988e-05,0
62.254,2.4506e-05,0
62.255,2.4002e-05,0
62.255,2.6352e-05,0
62.256,3.3402e-05,0
62.256,3.5416e-05,0
62.257,3.0381e-05,0
62.257,2.5177e-05,0
62.258,2.182e-05,0
62.258,2.5345e-05,0
62.259,3.8102e-05,0
62.259,4.7837e-05,0
62.26,4.6159e-05,0
62.26,3.8437e-05,0
62.261,3.0381e-05,0
62.261,1.8631e-05,0
62.262,-4.0284e-06,0
62.263,-3.9948e-05,0
62.263,-7.0497e-05,0
62.264,-8.191e-05,0
62.264,-7.7379e-05,0
62.265,-6.3951e-05,0
62.265,-4.7501e-05,0
62.266,-3.0045e-05,0
62.266,-1.3764e-05,0
62.267,-3.357e-07,0
62.267,1.0575e-05,0
62.268,1.6617e-05,0
62.268,1.9303e-05,0
62.269,2.5681e-05,0
62.269,4.2466e-05,0
62.27,6.865e-05,0
62.27,9.1142e-05,0
62.271,0.00010105,0
62.271,9.8863e-05,0
62.272,8.896e-05,0
62.272,7.2007e-05,0
62.273,5.0019e-05,0
62.273,3.0549e-05,0
62.274,1.9806e-05,0
62.274,1.4939e-05,0
62.275,1.3931e-05,0
62.276,1.561e-05,0
62.276,1.9135e-05,0
62.277,2.6688e-05,0
62.277,3.9445e-05,0
62.278,5.3544e-05,0
62.278,7.1672e-05,0
62.279,8.9632e-05,0
62.279,9.7856e-05,0
62.28,9.4163e-05,0
62.28,9.2485e-05,0
62.281,9.5674e-05,0
62.281,9.5842e-05,0
62.282,8.8121e-05,0
62.282,7.3182e-05,0
62.283,5.1698e-05,0
62.283,2.8031e-05,0
62.284,8.7282e-06,0
62.284,-7.5532e-06,0
62.285,-3.3234e-05,0
62.285,-6.714e-05,0
62.286,-8.8624e-05,0
62.286,-8.8792e-05,0
62.287,-7.8386e-05,0
62.287,-7.3182e-05,0
62.288,-6.9322e-05,0
62.288,-5.6901e-05,0
62.289,-3.3906e-05,0
62.29,-8.5603e-06,0
62.29,7.2175e-06,0
62.291,-8.3925e-06,0
62.291,-5.9754e-05,0
62.292,-0.00011044,0
62.292,-0.00013193,0
62.293,-0.0001232,0
62.293,-0.00010155,0
62.294,-8.1407e-05,0
62.294,-6.1601e-05,0
62.295,-3.1724e-05,0
62.295,8.3925e-06,0
62.296,5.1194e-05,0
62.296,8.9799e-05,0
62.297,0.0001232,0
62.297,0.00015425,0
62.298,0.00018581,0
62.298,0.00021334,0
62.299,0.00023801,0
62.299,0.00025463,0
62.3,0.00025026,0
62.3,0.00023348,0
62.301,0.00022475,0
62.301,0.00022106,0
62.302,0.00020998,0
62.303,0.00018749,0
62.303,0.0001556,0
62.304,0.00011917,0
62.304,8.7114e-05,0
62.305,6.0761e-05,0
62.305,3.6423e-05,0
62.306,1.7121e-05,0
62.306,3.5248e-06,0
62.307,-1.2421e-05,0
62.307,-3.5416e-05,0
62.308,-6.6804e-05,0
62.308,-0.00010893,0
62.309,-0.00015224,0
62.309,-0.00017977,0
62.31,-0.00018111,0
62.31,-0.00015912,0
62.311,-0.00011951,0
62.311,-7.4525e-05,0
62.312,-3.6423e-05,0
62.312,-1.1749e-05,0
62.313,8.2246e-06,0
62.313,3.3402e-05,0
62.314,6.2776e-05,0
62.314,8.8457e-05,0
62.315,0.00010356,0
62.315,0.00010994,0
62.316,0.00011028,0
62.317,0.00010457,0
62.317,8.9632e-05,0
62.318,6.9657e-05,0
62.318,4.9516e-05,0
62.319,3.0716e-05,0
62.319,1.5442e-05,0
62.32,7.8889e-06,0
62.32,4.1962e-06,0
62.321,2.5177e-06,0
62.321,8.896e-06,0
62.322,1.9974e-05,0
62.322,2.1988e-05,0
62.323,1.2253e-05,0
62.323,-3.5248e-06,0
62.324,-2.182e-05,0
62.324,-3.9109e-05,0
62.325,-5.4551e-05,0
62.325,-6.8315e-05,0
62.326,-7.9728e-05,0
62.326,-8.6442e-05,0
62.327,-8.8457e-05,0
62.327,-8.5435e-05,0
62.328,-7.9728e-05,0
62.328,-8.0735e-05,0
62.329,-8.3253e-05,0
62.33,-7.9728e-05,0
62.33,-7.2847e-05,0
62.331,-6.3111e-05,0
62.331,-5.0858e-05,0
62.332,-3.8773e-05,0
62.332,-2.8199e-05,0
62.333,-1.6281e-05,0
62.333,-3.1891e-06,0
62.334,7.8889e-06,0
62.334,1.6785e-05,0
62.335,2.6017e-05,0
62.335,3.5416e-05,0
62.336,4.2802e-05,0
62.336,4.8844e-05,0
62.337,5.1865e-05,0
62.337,5.2537e-05,0
62.338,4.8508e-05,0
62.338,3.6759e-05,0
62.339,1.9303e-05,0
62.339,3.8605e-06,0
62.34,-3.357e-06,0
62.34,-4.8676e-06,0
62.341,-6.714e-06,0
62.341,-9.9031e-06,0
62.342,-1.1749e-05,0
62.342,-1.2253e-05,0
62.343,-1.0239e-05,0
62.344,-1.1749e-06,0
62.344,1.3092e-05,0
62.345,2.8534e-05,0
62.345,4.0116e-05,0
62.346,5.0019e-05,0
62.346,5.774e-05,0
62.347,5.8915e-05,0
62.347,4.1627e-05,0
62.348,1.5274e-05,0
62.348,-1.6785e-07,0
62.349,2.6856e-06,0
62.349,1.5946e-05,0
62.35,2.7863e-05,0
62.35,3.3738e-05,0
62.351,4.2634e-05,0
62.351,6.1433e-05,0
62.352,8.7785e-05,0
62.352,0.00011464,0
62.353,0.00013512,0
62.353,0.00014485,0
62.354,0.00014217,0
62.354,0.00012958,0
62.355,0.00011196,0
62.355,9.0806e-05,0
62.356,6.6636e-05,0
62.356,4.5823e-05,0
62.357,3.1891e-05,0
62.358,2.4506e-05,0
62.358,1.5274e-05,0
62.359,3.0213e-06,0
62.359,-1.6785e-07,0
62.36,1.3092e-05,0
62.36,2.9877e-05,0
62.361,3.8102e-05,0
62.361,4.0116e-05,0
62.362,4.1794e-05,0
62.362,4.6326e-05,0
62.363,5.1194e-05,0
62.363,5.4047e-05,0
62.364,5.2873e-05,0
62.364,4.1794e-05,0
62.365,1.8631e-05,0
62.365,-7.8889e-06,0
62.366,-2.3835e-05,0
62.366,-2.9374e-05,0
62.367,-3.3066e-05,0
62.367,-3.2395e-05,0
62.368,-2.7359e-05,0
62.368,-1.6281e-05,0
62.369,4.8676e-06,0
62.369,2.9877e-05,0
62.37,5.0858e-05,0
62.371,6.63e-05,0
62.371,7.9896e-05,0
62.372,9.0974e-05,0
62.372,9.6513e-05,0
62.373,9.3996e-05,0
62.373,8.5435e-05,0
62.374,7.6036e-05,0
62.374,6.6972e-05,0
62.375,5.9922e-05,0
62.375,5.2201e-05,0
62.376,4.3305e-05,0
62.376,3.5752e-05,0
62.377,3.4409e-05,0
62.377,3.5752e-05,0
62.378,3.7095e-05,0
62.378,3.5752e-05,0
62.379,3.1724e-05,0
62.379,2.6184e-05,0
62.38,1.8128e-05,0
62.38,5.0355e-06,0
62.381,-1.2421e-05,0
62.381,-2.7695e-05,0
62.382,-3.8437e-05,0
62.382,-4.6159e-05,0
62.383,-5.2537e-05,0
62.383,-5.4719e-05,0
62.384,-5.388e-05,0
62.385,-5.1026e-05,0
62.385,-4.3137e-05,0
62.386,-3.0213e-05,0
62.386,-1.561e-05,0
62.387,-5.2033e-06,0
62.387,-2.5177e-06,0
62.388,-6.8818e-06,0
62.388,-1.3596e-05,0
62.389,-1.9806e-05,0
62.389,-2.3835e-05,0
62.39,-2.8199e-05,0
62.39,-3.1388e-05,0
62.391,-2.9877e-05,0
62.391,-2.4338e-05,0
62.392,-1.8463e-05,0
62.392,-1.2421e-05,0
62.393,-9.5674e-06,0
62.393,-8.896e-06,0
62.394,-9.2317e-06,0
62.394,-9.7353e-06,0
62.395,-1.0575e-05,0
62.395,-1.091e-05,0
62.396,-8.2246e-06,0
62.396,-2.6856e-06,0
62.397,3.8605e-06,0
62.398,9.2317e-06,0
62.398,1.5946e-05,0
62.399,2.2995e-05,0
62.399,2.8367e-05,0
62.4,3.2731e-05,0
62.4,3.4745e-05,0
62.401,3.6759e-05,0
62.401,3.7934e-05,0
62.402,3.6423e-05,0
62.402,3.5752e-05,0
62.403,3.5584e-05,0
62.403,3.3402e-05,0
62.404,2.9374e-05,0
62.404,1.7121e-05,0
62.405,-4.0284e-06,0
62.405,-1.9135e-05,0
62.406,-2.501e-05,0
62.406,-4.0284e-05,0
62.407,-6.9322e-05,0
62.407,-9.6849e-05,0
62.408,-0.00010323,0
62.408,-8.2918e-05,0
62.409,-5.4215e-05,0
62.409,-2.8367e-05,0
62.41,-1.6785e-07,0
62.41,3.4745e-05,0
62.411,7.2847e-05,0
62.412,0.00011095,0
62.412,0.00014418,0
62.413,0.00016701,0
62.413,0.00017977,0
62.414,0.0001895,0
62.414,0.00019303,0
62.415,0.00018883,0
62.415,0.00018514,0
62.416,0.0001791,0
62.416,0.0001603,0
62.417,0.00012992,0
62.417,9.4499e-05,0
62.418,6.1265e-05,0
62.418,3.2059e-05,0
62.419,7.8889e-06,0
62.419,-8.5603e-06,0
62.42,-1.6953e-05,0
62.42,-2.031e-05,0
62.421,-1.8967e-05,0
62.421,-1.3596e-05,0
62.422,-1.0239e-05,0
62.422,-1.1246e-05,0
62.423,-9.2317e-06,0
62.423,-2.182e-06,0
62.424,1.1078e-05,0
62.425,2.8367e-05,0
62.425,4.3641e-05,0
62.426,5.3544e-05,0
62.426,5.6901e-05,0
62.427,5.9754e-05,0
62.427,6.6636e-05,0
62.428,7.4525e-05,0
62.428,7.5029e-05,0
62.429,6.2272e-05,0
62.429,4.3473e-05,0
62.43,2.9206e-05,0
62.43,2.1317e-05,0
62.431,1.4939e-05,0
62.431,8.896e-06,0
62.432,2.8534e-06,0
62.432,-2.8534e-06,0
62.433,-5.8747e-06,0
62.433,-8.5603e-06,0
62.434,-1.0071e-05,0
62.434,-8.3925e-06,0
62.435,-4.5319e-06,0
62.435,-3.6927e-06,0
62.436,-7.5532e-06,0
62.436,-1.1246e-05,0
62.437,-1.1749e-05,0
62.438,-1.091e-05,0
62.438,-7.0497e-06,0
62.439,3.8605e-06,0
62.439,1.8296e-05,0
62.44,2.8702e-05,0
62.44,3.0381e-05,0
62.441,2.2492e-05,0
62.441,9.5674e-06,0
62.442,-3.8605e-06,0
62.442,-1.1917e-05,0
62.443,-1.4771e-05,0
62.443,-1.2924e-05,0
62.444,-7.2175e-06,0
62.444,-1.1749e-06,0
62.445,1.0071e-06,0
62.445,2.182e-06,0
62.446,4.5319e-06,0
62.446,2.6856e-06,0
62.447,-2.8534e-06,0
62.447,-5.539e-06,0
62.448,-5.8747e-06,0
62.448,-7.7211e-06,0
62.449,-1.1917e-05,0
62.449,-1.5274e-05,0
62.45,-1.5274e-05,0
62.45,-1.4435e-05,0
62.451,-1.5946e-05,0
62.452,-1.9806e-05,0
62.452,-2.4338e-05,0
62.453,-2.6017e-05,0
62.453,-2.3331e-05,0
62.454,-1.8967e-05,0
62.454,-1.2085e-05,0
62.455,-3.1891e-06,0
62.455,2.5177e-06,0
62.456,4.3641e-06,0
62.456,3.5248e-06,0
62.457,1.5106e-06,0
62.457,2.0142e-06,0
62.458,2.8534e-06,0
62.458,3.1891e-06,0
62.459,3.5248e-06,0
62.459,4.5319e-06,0
62.46,6.8818e-06,0
62.46,8.5603e-06,0
62.461,4.6998e-06,0
62.461,-1.5106e-06,0
62.462,-4.3641e-06,0
62.462,-4.5319e-06,0
62.463,-5.539e-06,0
62.463,-4.8676e-06,0
62.464,8.3925e-07,0
62.465,6.8818e-06,0
62.465,1.6617e-05,0
62.466,3.4577e-05,0
62.466,5.9586e-05,0
62.467,8.6442e-05,0
62.467,0.00011431,0
62.468,0.00014217,0
62.468,0.00016399,0
62.469,0.00017574,0
62.469,0.00017842,0
62.47,0.00017574,0
62.47,0.00016818,0
62.471,0.00015392,0
62.471,0.00013143,0
62.472,0.00010088,0
62.472,6.9154e-05,0
62.473,4.2802e-05,0
62.473,1.9806e-05,0
62.474,-2.182e-06,0
62.474,-1.9806e-05,0
62.475,-3.2395e-05,0
62.475,-4.1123e-05,0
62.476,-4.7501e-05,0
62.476,-5.2705e-05,0
62.477,-5.4887e-05,0
62.477,-5.7908e-05,0
62.478,-6.6636e-05,0
62.479,-7.4693e-05,0
62.479,-6.949e-05,0
62.48,-4.8844e-05,0
62.48,-2.2995e-05,0
62.481,-3.5248e-06,0
62.481,9.9031e-06,0
62.482,2.4338e-05,0
62.482,3.978e-05,0
62.483,5.1362e-05,0
62.483,5.5558e-05,0
62.484,5.4215e-05,0
62.484,5.0858e-05,0
62.485,5.2201e-05,0
62.485,6.0258e-05,0
62.486,6.479e-05,0
62.486,6.3951e-05,0
62.487,5.9586e-05,0
62.487,5.153e-05,0
62.488,4.0452e-05,0
62.488,2.5177e-05,0
62.489,1.1582e-05,0
62.489,7.2175e-06,0
62.49,8.2246e-06,0
62.49,3.8605e-06,0
62.491,-8.5603e-06,0
62.492,-2.1149e-05,0
62.492,-2.7024e-05,0
62.493,-2.6352e-05,0
62.493,-2.0981e-05,0
62.494,-1.0575e-05,0
62.494,4.1962e-06,0
62.495,1.9303e-05,0
62.495,3.4409e-05,0
62.496,4.7501e-05,0
62.496,5.6901e-05,0
62.497,6.63e-05,0
62.497,7.6875e-05,0
62.498,8.3757e-05,0
62.498,8.4596e-05,0
62.499,7.8386e-05,0
62.499,6.6972e-05,0
62.5,5.4887e-05,0
62.5,4.4984e-05,0
62.501,3.6423e-05,0
62.501,3.1388e-05,0
62.502,3.0884e-05,0
62.502,2.9038e-05,0
62.503,2.501e-05,0
62.503,2.1317e-05,0
62.504,1.7792e-05,0
62.504,1.3596e-05,0
62.505,1.326e-05,0
62.506,1.7792e-05,0
62.506,1.9303e-05,0
62.507,1.6617e-05,0
62.507,1.0575e-05,0
62.508,5.0355e-06,0
62.508,5.539e-06,0
62.509,1.5106e-05,0
62.509,2.7024e-05,0
62.51,3.0213e-05,0
62.51,2.4674e-05,0
62.511,1.7792e-05,0
62.511,1.4603e-05,0
62.512,1.2421e-05,0
62.512,6.714e-06,0
62.513,-5.2033e-06,0
62.513,-2.2324e-05,0
62.514,-3.9948e-05,0
62.514,-5.4215e-05,0
62.515,-6.3111e-05,0
62.515,-6.3615e-05,0
62.516,-5.623e-05,0
62.516,-4.8508e-05,0
62.517,-5.0523e-05,0
62.517,-6.0594e-05,0
62.518,-6.7643e-05,0
62.519,-6.7308e-05,0
62.519,-5.9922e-05,0
62.52,-4.6662e-05,0
62.52,-3.2059e-05,0
62.521,-1.8799e-05,0
62.521,-7.5532e-06,0
62.522,8.3925e-07,0
62.522,6.5461e-06,0
62.523,1.2253e-05,0
62.523,1.8967e-05,0
62.524,2.6184e-05,0
62.524,3.3906e-05,0
62.525,4.1794e-05,0
62.525,4.9516e-05,0
62.526,5.8915e-05,0
62.526,6.865e-05,0
62.527,7.4022e-05,0
62.527,7.3518e-05,0
62.528,6.7979e-05,0
62.528,5.8244e-05,0
62.529,5.0523e-05,0
62.529,4.4144e-05,0
62.53,3.4073e-05,0
62.53,2.2156e-05,0
62.531,1.5778e-05,0
62.531,1.6617e-05,0
62.532,2.1988e-05,0
62.533,3.0716e-05,0
62.533,4.2466e-05,0
62.534,4.3137e-05,0
62.534,2.3331e-05,0
62.535,-8.896e-06,0
62.535,-3.592e-05,0
62.536,-4.7166e-05,0
62.536,-4.8508e-05,0
62.537,-4.8844e-05,0
62.537,-5.2537e-05,0
62.538,-5.388e-05,0
62.538,-5.0523e-05,0
62.539,-4.0452e-05,0
62.539,-2.5177e-05,0
62.54,-6.5461e-06,0
62.54,2.2324e-05,0
62.541,5.6565e-05,0
62.541,8.6946e-05,0
62.542,0.00011229,0
62.542,0.00013495,0
62.543,0.00015442,0
62.543,0.00016902,0
62.544,0.00017641,0
62.544,0.0001754,0
62.545,0.00016735,0
62.545,0.00014301,0
62.546,0.00010826,0
62.547,8.275e-05,0
62.547,7.0665e-05,0
62.548,6.1601e-05,0
62.548,5.2537e-05,0
62.549,4.6662e-05,0
62.549,4.7501e-05,0
62.55,5.7237e-05,0
62.55,7.2007e-05,0
62.551,8.7953e-05,0
62.551,0.00010289,0
62.552,0.00011565,0
62.552,0.00012152,0
62.553,0.00011733,0
62.553,0.00010524,0
62.554,9.0135e-05,0
62.554,7.2343e-05,0
62.555,5.2537e-05,0
62.555,3.122e-05,0
62.556,1.1917e-05,0
62.556,-3.357e-06,0
62.557,-1.4603e-05,0
62.557,-2.501e-05,0
62.558,-3.7934e-05,0
62.558,-4.9516e-05,0
62.559,-5.7908e-05,0
62.56,-6.3951e-05,0
62.56,-6.5629e-05,0
62.561,-6.5461e-05,0
62.561,-5.9922e-05,0
62.562,-4.5823e-05,0
62.562,-3.1052e-05,0
62.563,-2.501e-05,0
62.563,-2.9206e-05,0
62.564,-3.7095e-05,0
62.564,-4.2298e-05,0
62.565,-4.5991e-05,0
62.565,-4.9851e-05,0
62.566,-4.9012e-05,0
62.566,-4.6159e-05,0
62.567,-4.448e-05,0
62.567,-4.5151e-05,0
62.568,-5.0019e-05,0
62.568,-5.6062e-05,0
62.569,-5.6565e-05,0
62.569,-5.153e-05,0
62.57,-4.6662e-05,0
62.57,-4.2634e-05,0
62.571,-3.5752e-05,0
62.571,-2.7695e-05,0
62.572,-1.7288e-05,0
62.572,-6.714e-06,0
62.573,-1.6785e-06,0
62.574,-1.6785e-06,0
62.574,-8.3925e-07,0
62.575,3.8605e-06,0
62.575,1.0575e-05,0
62.576,1.8296e-05,0
62.576,2.1988e-05,0
62.577,2.1988e-05,0
62.577,2.1317e-05,0
62.578,2.1988e-05,0
62.578,2.1653e-05,0
62.579,1.5946e-05,0
62.579,5.539e-06,0
62.58,-1.6785e-07,0
62.58,1.1749e-06,0
62.581,3.6927e-06,0
62.581,3.1891e-06,0
62.582,0,0
62.582,-4.8676e-06,0
62.583,-1.1246e-05,0
62.583,-1.6953e-05,0
62.584,-1.4939e-05,0
62.584,-6.2104e-06,0
62.585,2.8534e-06,0
62.585,8.7282e-06,0
62.586,1.1917e-05,0
62.587,1.4603e-05,0
62.587,2.6352e-05,0
62.588,4.4816e-05,0
62.588,6.3951e-05,0
62.589,9.0135e-05,0
62.589,0.00011431,0
62.59,0.00013059,0
62.59,0.0001467,0
62.591,0.00017037,0
62.591,0.0001989,0
62.592,0.0002224,0
62.592,0.00022744,0
62.593,0.00021334,0
62.593,0.00019319,0
62.594,0.00017574,0
62.594,0.0001556,0
62.595,0.00012119,0
62.595,7.5029e-05,0
62.596,3.0716e-05,0
62.596,-8.3925e-07,0
62.597,-2.3667e-05,0
62.597,-4.5151e-05,0
62.598,-6.6133e-05,0
62.598,-8.3421e-05,0
62.599,-8.8624e-05,0
62.599,-7.8218e-05,0
62.6,-5.8579e-05,0
62.601,-3.592e-05,0
62.601,-1.4771e-05,0
62.602,-8.3925e-07,0
62.602,9.0639e-06,0
62.603,1.3596e-05,0
62.603,1.1582e-05,0
62.604,6.5461e-06,0
62.604,-1.6785e-07,0
62.605,-3.5248e-06,0
62.605,-4.5319e-06,0
62.606,-5.3712e-06,0
62.606,-5.0355e-06,0
62.607,0,0
62.607,9.7353e-06,0
62.608,2.4506e-05,0
62.608,4.3305e-05,0
62.609,6.8986e-05,0
62.609,0.00010121,0
62.61,0.00012975,0
62.61,0.00014704,0
62.611,0.00015224,0
62.611,0.00014351,0
62.612,0.00011934,0
62.612,8.1743e-05,0
62.613,3.5416e-05,0
62.614,-1.4939e-05,0
62.614,-6.2608e-05,0
62.615,-0.00010423,0
62.615,-0.00013764,0
62.616,-0.00015459,0
62.616,-0.00015425,0
62.617,-0.00014905,0
62.617,-0.00015106,0
62.618,-0.00015761,0
62.618,-0.0001566,0
62.619,-0.0001425,0
62.619,-0.00011968,0
62.62,-9.4163e-05,0
62.62,-7.3014e-05,0
62.621,-5.7908e-05,0
62.621,-4.3137e-05,0
62.622,-2.6017e-05,0
62.622,-7.2175e-06,0
62.623,9.9031e-06,0
62.623,2.2324e-05,0
62.624,2.8367e-05,0
62.624,3.0045e-05,0
62.625,2.8702e-05,0
62.625,2.7359e-05,0
62.626,3.2898e-05,0
62.627,3.6423e-05,0
62.627,3.3906e-05,0
62.628,3.3738e-05,0
62.628,3.8941e-05,0
62.629,4.5823e-05,0
62.629,5.2201e-05,0
62.63,5.5558e-05,0
62.63,5.8747e-05,0
62.631,6.5293e-05,0
62.631,7.3014e-05,0
62.632,7.9728e-05,0
62.632,7.9057e-05,0
62.633,7.1336e-05,0
62.633,6.6133e-05,0
62.634,6.4286e-05,0
62.634,5.3544e-05,0
62.635,2.4842e-05,0
62.635,-1.4939e-05,0
62.636,-5.1362e-05,0
62.636,-7.57e-05,0
62.637,-8.2414e-05,0
62.637,-7.4189e-05,0
62.638,-6.2272e-05,0
62.638,-5.2537e-05,0
62.639,-4.3809e-05,0
62.639,-3.0381e-05,0
62.64,-7.2175e-06,0
62.641,2.5177e-05,0
62.641,6.0258e-05,0
62.642,9.4499e-05,0
62.642,0.00012975,0
62.643,0.00016667,0
62.643,0.00019051,0
62.644,0.00019756,0
62.644,0.00019521,0
62.645,0.00019387,0
62.645,0.00019689,0
62.646,0.0002036,0
62.646,0.00021233,0
62.647,0.00021669,0
62.647,0.00020729,0
62.648,0.00018111,0
62.648,0.00015157,0
62.649,0.0001274,0
62.649,0.00010809,0
62.65,9.2821e-05,0
62.65,8.2414e-05,0
62.651,7.1672e-05,0
62.651,5.5222e-05,0
62.652,3.4073e-05,0
62.652,1.3931e-05,0
62.653,-3.8605e-06,0
62.654,-1.7624e-05,0
62.654,-2.4506e-05,0
62.655,-2.1988e-05,0
62.655,-8.5603e-06,0
62.656,1.091e-05,0
62.656,2.6352e-05,0
62.657,3.4745e-05,0
62.657,3.6423e-05,0
62.658,2.9877e-05,0
62.658,1.3931e-05,0
62.659,-5.539e-06,0
62.659,-2.3667e-05,0
62.66,-3.7766e-05,0
62.66,-4.7837e-05,0
62.661,-5.8579e-05,0
62.661,-6.9322e-05,0
62.662,-7.57e-05,0
62.662,-7.5364e-05,0
62.663,-7.335e-05,0
62.663,-7.8386e-05,0
62.664,-9.5674e-05,0
62.664,-0.00012337,0
62.665,-0.00015073,0
62.665,-0.000166,0
62.666,-0.00015677,0
62.666,-0.00012941,0
62.667,-0.00010004,0
62.668,-7.6371e-05,0
62.668,-5.5055e-05,0
62.669,-3.2395e-05,0
62.669,-1.4267e-05,0
62.67,-4.8676e-06,0
62.67,-1.5106e-06,0
62.671,1.6785e-07,0
62.671,2.6856e-06,0
62.672,4.8676e-06,0
62.672,5.2033e-06,0
62.673,4.6998e-06,0
62.673,7.5532e-06,0
62.674,1.1917e-05,0
62.674,1.2924e-05,0
62.675,1.2589e-05,0
62.675,1.9303e-05,0
62.676,3.7766e-05,0
62.676,5.9419e-05,0
62.677,7.7379e-05,0
62.677,8.7114e-05,0
62.678,8.7785e-05,0
62.678,8.3085e-05,0
62.679,7.7211e-05,0
62.679,7.7043e-05,0
62.68,8.51e-05,0
62.681,9.3156e-05,0
62.681,9.1142e-05,0
62.682,7.9728e-05,0
62.682,6.2272e-05,0
62.683,4.3977e-05,0
62.683,2.652e-05,0
62.684,3.8605e-06,0
62.684,-2.0478e-05,0
62.685,-4.0787e-05,0
62.685,-5.4719e-05,0
62.686,-5.8412e-05,0
62.686,-5.1698e-05,0
62.687,-4.0116e-05,0
62.687,-3.0716e-05,0
62.688,-2.7024e-05,0
62.688,-2.7024e-05,0
62.689,-2.6688e-05,0
62.689,-2.6017e-05,0
62.69,-2.8199e-05,0
62.69,-3.1052e-05,0
62.691,-2.9374e-05,0
62.691,-2.6017e-05,0
62.692,-2.0645e-05,0
62.692,-1.0239e-05,0
62.693,6.714e-06,0
62.693,2.6352e-05,0
62.694,4.4816e-05,0
62.695,6.3951e-05,0
62.695,8.5267e-05,0
62.696,0.00010642,0
62.696,0.00011934,0
62.697,0.00012454,0
62.697,0.00012857,0
62.698,0.00012773,0
62.698,0.00011531,0
62.699,9.8192e-05,0
62.699,8.7953e-05,0
62.7,8.1071e-05,0
62.7,6.6636e-05,0
62.701,4.8005e-05,0
62.701,3.508e-05,0
62.702,3.4073e-05,0
62.702,3.7095e-05,0
62.703,3.6088e-05,0
62.703,3.3906e-05,0
62.704,3.6088e-05,0
62.704,3.6759e-05,0
62.705,3.0716e-05,0
62.705,1.8631e-05,0
62.706,5.539e-06,0
62.706,-4.1962e-06,0
62.707,-8.896e-06,0
62.708,-8.2246e-06,0
62.708,-1.8463e-06,0
62.709,4.1962e-06,0
62.709,5.539e-06,0
62.71,8.5603e-06,0
62.71,1.8463e-05,0
62.711,3.2059e-05,0
62.711,4.3809e-05,0
62.712,4.9851e-05,0
62.712,4.9516e-05,0
62.713,4.7166e-05,0
62.713,5.0187e-05,0
62.714,5.7908e-05,0
62.714,6.5629e-05,0
62.715,7.1672e-05,0
62.715,7.2343e-05,0
62.716,6.63e-05,0
62.716,5.5558e-05,0
62.717,4.3977e-05,0
62.717,3.3906e-05,0
62.718,2.5345e-05,0
62.718,1.9806e-05,0
62.719,1.5946e-05,0
62.719,8.896e-06,0
62.72,-2.182e-06,0
62.72,-1.561e-05,0
62.721,-2.8367e-05,0
62.722,-3.6088e-05,0
62.722,-3.8437e-05,0
62.723,-3.7934e-05,0
62.723,-3.9109e-05,0
62.724,-4.1123e-05,0
62.724,-4.1291e-05,0
62.725,-3.4241e-05,0
62.725,-1.9974e-05,0
62.726,-3.8605e-06,0
62.726,1.1917e-05,0
62.727,2.7527e-05,0
62.727,4.1291e-05,0
62.728,5.0523e-05,0
62.728,5.4551e-05,0
62.729,5.4383e-05,0
62.729,5.0523e-05,0
62.73,4.2802e-05,0
62.73,3.3738e-05,0
62.731,2.652e-05,0
62.731,1.5274e-05,0
62.732,-5.2033e-06,0
62.732,-2.8534e-05,0
62.733,-4.5823e-05,0
62.733,-5.539e-05,0
62.734,-5.9586e-05,0
62.734,-6.1433e-05,0
62.735,-5.9419e-05,0
62.736,-4.8508e-05,0
62.736,-2.9541e-05,0
62.737,-4.1962e-06,0
62.737,2.2492e-05,0
62.738,4.5487e-05,0
62.738,6.6468e-05,0
62.739,8.7449e-05,0
62.739,0.00010574,0
62.74,0.00011716,0
62.74,0.000118,0
62.741,0.00011196,0
62.741,0.00010121,0
62.742,8.6946e-05,0
62.742,7.2847e-05,0
62.743,5.4215e-05,0
62.743,2.8534e-05,0
62.744,4.8676e-06,0
62.744,-1.1582e-05,0
62.745,-2.1149e-05,0
62.745,-2.266e-05,0
62.746,-1.6449e-05,0
62.746,-7.2175e-06,0
62.747,1.0071e-06,0
62.747,1.0575e-05,0
62.748,2.3667e-05,0
62.749,3.8102e-05,0
62.749,4.9012e-05,0
62.75,5.8244e-05,0
62.75,6.5126e-05,0
62.751,6.4958e-05,0
62.751,6.009e-05,0
62.752,5.4887e-05,0
62.752,5.2201e-05,0
62.753,4.8844e-05,0
62.753,4.0955e-05,0
62.754,2.8702e-05,0
62.754,1.9974e-05,0
62.755,1.9974e-05,0
62.755,2.501e-05,0
62.756,2.9206e-05,0
62.756,3.4913e-05,0
62.757,4.5823e-05,0
62.757,5.8244e-05,0
62.758,6.3783e-05,0
62.758,5.8579e-05,0
62.759,4.6326e-05,0
62.759,3.2059e-05,0
62.76,1.3596e-05,0
62.76,-1.2085e-05,0
62.761,-3.827e-05,0
62.761,-6.0929e-05,0
62.762,-7.6707e-05,0
62.763,-8.3757e-05,0
62.763,-7.9896e-05,0
62.764,-6.8315e-05,0
62.764,-5.6733e-05,0
62.765,-4.8341e-05,0
62.765,-3.5752e-05,0
62.766,-1.8631e-05,0
62.766,-6.8818e-06,0
62.767,-2.5177e-06,0
62.767,1.6785e-07,0
62.768,5.539e-06,0
62.768,1.2253e-05,0
62.769,1.1414e-05,0
62.769,4.1962e-06,0
62.77,-2.3499e-06,0
62.77,-5.8747e-06,0
62.771,-9.2317e-06,0
62.771,-1.2589e-05,0
62.772,-1.2253e-05,0
62.772,-8.5603e-06,0
62.773,-7.8889e-06,0
62.773,-1.0575e-05,0
62.774,-6.5461e-06,0
62.774,7.5532e-06,0
62.775,2.1317e-05,0
62.776,2.9709e-05,0
62.776,3.7934e-05,0
62.777,5.3544e-05,0
62.777,7.2175e-05,0
62.778,8.0903e-05,0
62.778,7.9561e-05,0
62.779,7.5029e-05,0
62.779,6.7979e-05,0
62.78,5.8244e-05,0
62.78,4.2802e-05,0
62.781,2.031e-05,0
62.781,-3.0213e-06,0
62.782,-1.8296e-05,0
62.782,-2.5849e-05,0
62.783,-3.6088e-05,0
62.783,-5.2369e-05,0
62.784,-6.949e-05,0
62.784,-7.8553e-05,0
62.785,-7.5532e-05,0
62.785,-6.4118e-05,0
62.786,-4.8173e-05,0
62.786,-2.8367e-05,0
62.787,-9.5674e-06,0
62.787,6.3783e-06,0
62.788,2.7863e-05,0
62.788,5.4215e-05,0
62.789,7.7043e-05,0
62.79,9.0806e-05,0
62.79,9.7856e-05,0
62.791,0.00010188,0
62.791,9.9199e-05,0
62.792,9.0974e-05,0
62.792,8.4428e-05,0
62.793,8.4428e-05,0
62.793,8.9799e-05,0
62.794,9.6513e-05,0
62.794,0.00010239,0
62.795,0.00010373,0
62.795,0.00010155,0
62.796,0.00010574,0
62.796,0.00011598,0
62.797,0.00012387,0
62.797,0.00012538,0
62.798,0.00013008,0
62.798,0.00014351,0
62.799,0.00015241,0
62.799,0.00014804,0
62.8,0.00013143,0
62.8,0.00010776,0
62.801,8.1071e-05,0
62.801,5.0019e-05,0
62.802,1.6449e-05,0
62.803,-1.1078e-05,0
62.803,-3.2059e-05,0
62.804,-5.0858e-05,0
62.804,-6.949e-05,0
62.805,-9.2988e-05,0
62.805,-0.00012018,0
62.806,-0.00013848,0
62.806,-0.00014083,0
62.807,-0.00013176,0
62.807,-0.00011598,0
62.808,-9.4331e-05,0
62.808,-7.0665e-05,0
62.809,-4.9851e-05,0
62.809,-3.4073e-05,0
62.81,-2.1317e-05,0
62.81,-8.3925e-06,0
62.811,3.6927e-06,0
62.811,1.4099e-05,0
62.812,2.266e-05,0
62.812,2.8702e-05,0
62.813,3.1724e-05,0
62.813,3.3402e-05,0
62.814,3.6423e-05,0
62.814,3.9612e-05,0
62.815,4.0452e-05,0
62.816,4.1627e-05,0
62.816,4.213e-05,0
62.817,4.2802e-05,0
62.817,4.6159e-05,0
62.818,4.8676e-05,0
62.818,4.5319e-05,0
62.819,3.8773e-05,0
62.819,3.4409e-05,0
62.82,3.3234e-05,0
62.82,3.3066e-05,0
62.821,3.9612e-05,0
62.821,5.0858e-05,0
62.822,5.6901e-05,0
62.822,5.3376e-05,0
62.823,4.8844e-05,0
62.823,4.9012e-05,0
62.824,5.2873e-05,0
62.824,5.3376e-05,0
62.825,4.5151e-05,0
62.825,3.4745e-05,0
62.826,3.0213e-05,0
62.826,2.8367e-05,0
62.827,2.1317e-05,0
62.827,2.8534e-06,0
62.828,-2.6352e-05,0
62.828,-5.9083e-05,0
62.829,-8.0903e-05,0
62.83,-8.3757e-05,0
62.83,-7.4189e-05,0
62.831,-6.2608e-05,0
62.831,-5.0523e-05,0
62.832,-3.5584e-05,0
62.832,-2.1317e-05,0
62.833,-1.0575e-05,0
62.833,-1.3428e-06,0
62.834,7.8889e-06,0
62.834,1.796e-05,0
62.835,2.4002e-05,0
62.835,2.5681e-05,0
62.836,2.3667e-05,0
62.836,1.9806e-05,0
62.837,1.5274e-05,0
62.837,1.2924e-05,0
62.838,1.2757e-05,0
62.838,1.3596e-05,0
62.839,1.5946e-05,0
62.839,2.1988e-05,0
62.84,2.9374e-05,0
62.84,3.3066e-05,0
62.841,2.9206e-05,0
62.841,2.3667e-05,0
62.842,2.2995e-05,0
62.843,2.0981e-05,0
62.843,1.561e-05,0
62.844,1.4435e-05,0
62.844,1.9638e-05,0
62.845,2.6017e-05,0
62.845,2.8702e-05,0
62.846,2.652e-05,0
62.846,2.6017e-05,0
62.847,2.8031e-05,0
62.847,2.1653e-05,0
62.848,4.8676e-06,0
62.848,-1.2085e-05,0
62.849,-2.4506e-05,0
62.849,-3.4409e-05,0
62.85,-4.4312e-05,0
62.85,-5.1194e-05,0
62.851,-5.1194e-05,0
62.851,-3.978e-05,0
62.852,-1.7624e-05,0
62.852,1.0239e-05,0
62.853,3.6088e-05,0
62.853,5.9586e-05,0
62.854,8.4428e-05,0
62.854,0.00010625,0
62.855,0.00012018,0
62.855,0.0001284,0
62.856,0.00013881,0
62.857,0.00014922,0
62.857,0.00015425,0
62.858,0.00015157,0
62.858,0.00014334,0
62.859,0.00013545,0
62.859,0.00012874,0
62.86,0.00011917,0
62.86,0.00010591,0
62.861,9.0806e-05,0
62.861,7.335e-05,0
62.862,5.4215e-05,0
62.862,3.9277e-05,0
62.863,2.8702e-05,0
62.863,1.8631e-05,0
62.864,7.7211e-06,0
62.864,-3.357e-07,0
62.865,-5.2033e-06,0
62.865,-8.0568e-06,0
62.866,-8.2246e-06,0
62.866,-5.539e-06,0
62.867,-2.8534e-06,0
62.867,6.714e-07,0
62.868,4.3641e-06,0
62.868,5.539e-06,0
62.869,6.0426e-06,0
62.87,5.2033e-06,0
62.87,3.8605e-06,0
62.871,5.7069e-06,0
62.871,7.8889e-06,0
62.872,1.0071e-05,0
62.872,9.9031e-06,0
62.873,7.2175e-06,0
62.873,8.7282e-06,0
62.874,1.9135e-05,0
62.874,3.7095e-05,0
62.875,5.0187e-05,0
62.875,5.1865e-05,0
62.876,4.2802e-05,0
62.876,3.1052e-05,0
62.877,2.4674e-05,0
62.877,2.182e-05,0
62.878,1.4267e-05,0
62.878,2.5177e-06,0
62.879,-1.0575e-05,0
62.879,-2.3667e-05,0
62.88,-3.4241e-05,0
62.88,-4.4648e-05,0
62.881,-5.3712e-05,0
62.881,-5.8244e-05,0
62.882,-6.0258e-05,0
62.882,-6.3951e-05,0
62.883,-6.8482e-05,0
62.884,-6.9993e-05,0
62.884,-6.3783e-05,0
62.885,-5.3208e-05,0
62.885,-4.7166e-05,0
62.886,-5.1698e-05,0
62.886,-6.6636e-05,0
62.887,-8.0735e-05,0
62.887,-8.7785e-05,0
62.888,-8.6442e-05,0
62.888,-7.7211e-05,0
62.889,-6.6636e-05,0
62.889,-6.0761e-05,0
62.89,-5.8579e-05,0
62.89,-5.8915e-05,0
62.891,-6.0594e-05,0
62.891,-5.4215e-05,0
62.892,-3.4073e-05,0
62.892,-6.2104e-06,0
62.893,1.8296e-05,0
62.893,3.3234e-05,0
62.894,4.1794e-05,0
62.894,5.5894e-05,0
62.895,7.8889e-05,0
62.895,9.5171e-05,0
62.896,9.4835e-05,0
62.897,8.7449e-05,0
62.897,8.7785e-05,0
62.898,0.00010222,0
62.898,0.00012052,0
62.899,0.00013109,0
62.899,0.0001368,0
62.9,0.0001425,0
62.9,0.00015023,0
62.901,0.00015862,0
62.901,0.00016667,0
62.902,0.00017557,0
62.902,0.00017708,0
62.903,0.000165,0
62.903,0.00014049,0
62.904,0.00011263,0
62.904,9.2821e-05,0
62.905,8.5771e-05,0
62.905,8.5435e-05,0
62.906,8.1407e-05,0
62.906,7.1504e-05,0
62.907,5.8747e-05,0
62.907,4.7837e-05,0
62.908,4.213e-05,0
62.908,3.4745e-05,0
62.909,2.1317e-05,0
62.909,6.0426e-06,0
62.91,-8.2246e-06,0
62.911,-1.9806e-05,0
62.911,-2.8031e-05,0
62.912,-3.6423e-05,0
62.912,-4.448e-05,0
62.913,-4.9516e-05,0
62.913,-5.2873e-05,0
62.914,-5.3544e-05,0
62.914,-5.0187e-05,0
62.915,-4.3473e-05,0
62.915,-3.4913e-05,0
62.916,-2.6688e-05,0
62.916,-2.417e-05,0
62.917,-2.887e-05,0
62.917,-4.1794e-05,0
62.918,-5.7237e-05,0
62.918,-6.8986e-05,0
62.919,-7.5532e-05,0
62.919,-7.7546e-05,0
62.92,-7.6204e-05,0
62.92,-6.9993e-05,0
62.921,-5.623e-05,0
62.921,-3.7766e-05,0
62.922,-1.8967e-05,0
62.922,-4.8676e-06,0
62.923,5.539e-06,0
62.923,1.4435e-05,0
62.924,2.266e-05,0
62.925,2.887e-05,0
62.925,2.9709e-05,0
62.926,2.8367e-05,0
62.926,3.2395e-05,0
62.927,4.2466e-05,0
62.927,5.4551e-05,0
62.928,6.2943e-05,0
62.928,6.6972e-05,0
62.929,6.7811e-05,0
62.929,6.8315e-05,0
62.93,6.5461e-05,0
62.93,5.623e-05,0
62.931,4.062e-05,0
62.931,2.3667e-05,0
62.932,1.0071e-05,0
62.932,5.0355e-07,0
62.933,-4.1962e-06,0
62.933,-5.539e-06,0
62.934,-5.539e-06,0
62.934,-4.1962e-06,0
62.935,2.182e-06,0
62.935,1.0407e-05,0
62.936,1.8128e-05,0
62.936,3.0045e-05,0
62.937,4.5991e-05,0
62.938,6.2943e-05,0
62.938,7.805e-05,0
62.939,8.5603e-05,0
62.939,7.8386e-05,0
62.94,5.6901e-05,0
62.94,2.2995e-05,0
62.941,-1.6617e-05,0
62.941,-5.5222e-05,0
62.942,-8.7785e-05,0
62.942,-0.00010574,0
62.943,-0.00011028,0
62.943,-0.00010524,0
62.944,-8.9464e-05,0
62.944,-6.1601e-05,0
62.945,-2.8534e-05,0
62.945,5.8747e-06,0
62.946,3.8773e-05,0
62.946,6.6133e-05,0
62.947,8.1743e-05,0
62.947,8.0735e-05,0
62.948,6.9993e-05,0
62.948,6.1097e-05,0
62.949,6.1936e-05,0
62.949,7.3686e-05,0
62.95,9.3324e-05,0
62.95,0.00011716,0
62.951,0.00013713,0
62.952,0.00014653,0
62.952,0.00015476,0
62.953,0.00017037,0
62.953,0.00018883,0
62.954,0.00020327,0
62.954,0.00020931,0
62.955,0.00020394,0
62.955,0.00018749,0
62.956,0.00016365,0
62.956,0.00013898,0
62.957,0.00011649,0
62.957,9.5171e-05,0
62.958,7.5029e-05,0
62.958,5.8076e-05,0
62.959,4.7333e-05,0
62.959,4.213e-05,0
62.96,3.743e-05,0
62.96,2.6017e-05,0
62.961,7.5532e-06,0
62.961,-1.3764e-05,0
62.962,-3.0381e-05,0
62.962,-4.2466e-05,0
62.963,-5.5726e-05,0
62.963,-7.1672e-05,0
62.964,-8.7785e-05,0
62.965,-0.00010088,0
62.965,-0.00011128,0
62.966,-0.0001227,0
62.966,-0.00014116,0
62.967,-0.00016785,0
62.967,-0.00019571,0
62.968,-0.0002182,0
62.968,-0.00022693,0
62.969,-0.00021703,0
62.969,-0.00019152,0
62.97,-0.00015828,0
62.97,-0.00012102,0
62.971,-8.1575e-05,0
62.971,-4.2802e-05,0
62.972,-5.539e-06,0
62.972,3.2731e-05,0
62.973,7.1336e-05,0
62.973,0.00010037,0
62.974,0.00012169,0
62.974,0.00013596,0
62.975,0.00014452,0
62.975,0.00014922,0
62.976,0.00015023,0
62.976,0.00014385,0
62.977,0.00013462,0
62.977,0.00012555,0
62.978,0.00011766,0
62.979,0.00011196,0
62.979,0.00010558,0
62.98,9.7353e-05,0
62.98,8.8121e-05,0
62.981,7.7546e-05,0
62.981,6.9657e-05,0
62.982,6.3279e-05,0
62.982,5.3544e-05,0
62.983,3.8773e-05,0
62.983,2.1317e-05,0
62.984,4.5319e-06,0
62.984,-1.1246e-05,0
62.985,-2.6184e-05,0
62.985,-3.743e-05,0
62.986,-4.3473e-05,0
62.986,-4.4816e-05,0
62.987,-4.4816e-05,0
62.987,-4.2466e-05,0
62.988,-3.6591e-05,0
62.988,-2.8534e-05,0
62.989,-2.0813e-05,0
62.989,-1.4267e-05,0
62.99,-6.5461e-06,0
62.99,8.3925e-07,0
62.991,6.0426e-06,0
62.992,9.2317e-06,0
62.992,1.0071e-05,0
62.993,7.8889e-06,0
62.993,1.5106e-06,0
62.994,-4.8676e-06,0
62.994,-7.5532e-06,0
62.995,-6.3783e-06,0
62.995,-5.0355e-06,0
62.996,-6.3783e-06,0
62.996,-6.0426e-06,0
62.997,-5.3712e-06,0
62.997,-6.5461e-06,0
62.998,-7.8889e-06,0
62.998,-8.7282e-06,0
62.999,-8.2246e-06,0
62.999,-4.5319e-06,0
63,-1.0071e-06,0
63,1.6785e-07,0
63.001,-1.1749e-06,0
63.001,-6.5461e-06,0
63.002,-1.9303e-05,0
63.002,-3.7598e-05,0
63.003,-5.539e-05,0
63.003,-6.8482e-05,0
63.004,-7.4693e-05,0
63.005,-7.2679e-05,0
63.005,-6.2943e-05,0
63.006,-4.918e-05,0
63.006,-3.4073e-05,0
63.007,-1.796e-05,0
63.007,1.6785e-06,0
63.008,2.7024e-05,0
63.008,5.2537e-05,0
63.009,7.1336e-05,0
63.009,8.51e-05,0
63.01,9.6513e-05,0
63.01,0.00010323,0
63.011,9.8527e-05,0
63.011,8.1743e-05,0
63.012,6.0426e-05,0
63.012,4.448e-05,0
63.013,3.7766e-05,0
63.013,3.743e-05,0
63.014,3.8605e-05,0
63.014,4.5823e-05,0
63.015,6.0929e-05,0
63.015,7.8218e-05,0
63.016,9.2149e-05,0
63.016,0.00010155,0
63.017,0.00010994,0
63.017,0.00012404,0
63.018,0.00013915,0
63.019,0.00014855,0
63.019,0.00014888,0
63.02,0.00013948,0
63.02,0.00012941,0
63.021,0.00012337,0
63.021,0.000118,0
63.022,0.00010877,0
63.022,9.0639e-05,0
63.023,5.9586e-05,0
63.023,2.0645e-05,0
63.024,-1.4267e-05,0
63.024,-3.3906e-05,0
63.025,-3.1052e-05,0
63.025,-1.8631e-05,0
63.026,-9.2317e-06,0
63.026,-3.357e-07,0
63.027,7.2175e-06,0
63.027,9.5674e-06,0
63.028,7.8889e-06,0
63.028,8.896e-06,0
63.029,1.0407e-05,0
63.029,3.8605e-06,0
63.03,-7.0497e-06,0
63.03,-1.326e-05,0
63.031,-1.326e-05,0
63.032,-1.0239e-05,0
63.032,-5.539e-06,0
63.033,0,0
63.033,6.5461e-06,0
63.034,1.4603e-05,0
63.034,2.4674e-05,0
63.035,3.0716e-05,0
63.035,3.0716e-05,0
63.036,2.8367e-05,0
63.036,2.9038e-05,0
63.037,3.7095e-05,0
63.037,5.0523e-05,0
63.038,6.3951e-05,0
63.038,7.3854e-05,0
63.039,8.3085e-05,0
63.039,8.8121e-05,0
63.04,8.04e-05,0
63.04,5.9922e-05,0
63.041,3.1052e-05,0
63.041,3.5248e-06,0
63.042,-1.8799e-05,0
63.042,-4.0452e-05,0
63.043,-6.3783e-05,0
63.043,-8.6107e-05,0
63.044,-0.00010642,0
63.044,-0.0001232,0
63.045,-0.0001331,0
63.046,-0.00013025,0
63.046,-0.00011514,0
63.047,-9.6513e-05,0
63.047,-8.3421e-05,0
63.048,-7.57e-05,0
63.048,-6.865e-05,0
63.049,-5.7908e-05,0
63.049,-4.5151e-05,0
63.05,-3.3906e-05,0
63.05,-2.2324e-05,0
63.051,-8.5603e-06,0
63.051,6.8818e-06,0
63.052,1.9974e-05,0
63.052,3.0549e-05,0
63.053,3.827e-05,0
63.053,4.3977e-05,0
63.054,4.8173e-05,0
63.054,4.6998e-05,0
63.055,3.743e-05,0
63.055,2.3667e-05,0
63.056,1.0575e-05,0
63.056,1.1749e-06,0
63.057,-4.3641e-06,0
63.057,-1.1078e-05,0
63.058,-2.1988e-05,0
63.059,-3.2395e-05,0
63.059,-3.508e-05,0
63.06,-3.1052e-05,0
63.06,-2.3667e-05,0
63.061,-1.4267e-05,0
63.061,-5.0355e-06,0
63.062,6.0426e-06,0
63.062,1.9303e-05,0
63.063,2.9541e-05,0
63.063,2.9038e-05,0
63.064,2.266e-05,0
63.064,2.1653e-05,0
63.065,2.4338e-05,0
63.065,2.9374e-05,0
63.066,4.2802e-05,0
63.066,6.3783e-05,0
63.067,8.51e-05,0
63.067,0.00010625,0
63.068,0.00012656,0
63.068,0.00014603,0
63.069,0.00016197,0
63.069,0.00017154,0
63.07,0.00017574,0
63.07,0.00017842,0
63.071,0.00017943,0
63.071,0.00017171,0
63.072,0.00015543,0
63.073,0.00013596,0
63.073,0.00011833,0
63.074,0.00010256,0
63.074,8.8289e-05,0
63.075,7.5029e-05,0
63.075,6.3447e-05,0
63.076,5.7069e-05,0
63.076,5.2537e-05,0
63.077,4.5487e-05,0
63.077,3.3738e-05,0
63.078,2.1317e-05,0
63.078,1.7624e-05,0
63.079,2.0645e-05,0
63.079,2.3331e-05,0
63.08,2.1317e-05,0
63.08,1.5946e-05,0
63.081,8.896e-06,0
63.081,1.5106e-06,0
63.082,-4.1962e-06,0
63.082,-8.896e-06,0
63.083,-1.6953e-05,0
63.083,-2.5681e-05,0
63.084,-3.2731e-05,0
63.084,-3.4745e-05,0
63.085,-2.887e-05,0
63.086,-2.0645e-05,0
63.086,-2.1653e-05,0
63.087,-3.6423e-05,0
63.087,-6.1936e-05,0
63.088,-8.896e-05,0
63.088,-0.00010491,0
63.089,-0.00010726,0
63.089,-0.00010071,0
63.09,-8.6275e-05,0
63.09,-5.8747e-05,0
63.091,-1.7624e-05,0
63.091,2.4674e-05,0
63.092,5.7908e-05,0
63.092,7.9393e-05,0
63.093,9.2988e-05,0
63.093,0.00010054,0
63.094,0.00010507,0
63.094,0.00010625,0
63.095,0.00010222,0
63.095,8.5435e-05,0
63.096,5.6901e-05,0
63.096,3.1724e-05,0
63.097,1.9638e-05,0
63.097,1.3931e-05,0
63.098,5.2033e-06,0
63.098,-5.539e-06,0
63.099,-1.9303e-05,0
63.1,-3.592e-05,0
63.1,-4.918e-05,0
63.101,-5.7237e-05,0
63.101,-6.0594e-05,0
63.102,-5.9251e-05,0
63.102,-5.4887e-05,0
63.103,-5.1865e-05,0
63.103,-5.0019e-05,0
63.104,-4.6326e-05,0
63.104,-3.9445e-05,0
63.105,-2.9709e-05,0
63.105,-1.7121e-05,0
63.106,-1.8463e-06,0
63.106,1.2924e-05,0
63.107,2.0645e-05,0
63.107,2.1988e-05,0
63.108,2.3331e-05,0
63.108,2.6688e-05,0
63.109,3.1388e-05,0
63.109,3.6759e-05,0
63.11,4.0116e-05,0
63.11,4.1459e-05,0
63.111,4.5151e-05,0
63.111,5.0355e-05,0
63.112,5.2537e-05,0
63.112,4.9348e-05,0
63.113,4.5151e-05,0
63.114,4.4816e-05,0
63.114,4.7669e-05,0
63.115,5.1362e-05,0
63.115,5.2537e-05,0
63.116,4.8844e-05,0
63.116,4.2466e-05,0
63.117,3.8102e-05,0
63.117,3.8102e-05,0
63.118,3.743e-05,0
63.118,3.4745e-05,0
63.119,3.0716e-05,0
63.119,2.7863e-05,0
63.12,2.5345e-05,0
63.12,2.2156e-05,0
63.121,2.0981e-05,0
63.121,2.2324e-05,0
63.122,2.2995e-05,0
63.122,2.266e-05,0
63.123,2.4674e-05,0
63.123,2.8031e-05,0
63.124,3.0549e-05,0
63.124,3.2059e-05,0
63.125,3.3906e-05,0
63.125,3.743e-05,0
63.126,4.5487e-05,0
63.127,5.4215e-05,0
63.127,5.8076e-05,0
63.128,6.0929e-05,0
63.128,6.4286e-05,0
63.129,6.9154e-05,0
63.129,7.2175e-05,0
63.13,7.0665e-05,0
63.13,6.5126e-05,0
63.131,5.2873e-05,0
63.131,3.4745e-05,0
63.132,1.4939e-05,0
63.132,-8.3925e-07,0
63.133,-9.2317e-06,0
63.133,-1.3931e-05,0
63.134,-1.7456e-05,0
63.134,-2.031e-05,0
63.135,-1.8967e-05,0
63.135,-1.2589e-05,0
63.136,-3.5248e-06,0
63.136,9.5674e-06,0
63.137,2.8031e-05,0
63.137,4.7501e-05,0
63.138,5.9083e-05,0
63.138,5.9586e-05,0
63.139,5.1865e-05,0
63.139,4.1627e-05,0
63.14,3.4409e-05,0
63.141,3.0045e-05,0
63.141,2.1149e-05,0
63.142,4.8676e-06,0
63.142,-8.5603e-06,0
63.143,-1.4267e-05,0
63.143,-1.5442e-05,0
63.144,-1.5106e-05,0
63.144,-1.3596e-05,0
63.145,-1.2253e-05,0
63.145,-1.561e-05,0
63.146,-2.3667e-05,0
63.146,-3.3234e-05,0
63.147,-3.8605e-05,0
63.147,-3.9445e-05,0
63.148,-3.978e-05,0
63.148,-4.1459e-05,0
63.149,-4.448e-05,0
63.149,-4.7837e-05,0
63.15,-5.0187e-05,0
63.15,-5.1865e-05,0
63.151,-5.388e-05,0
63.151,-5.5726e-05,0
63.152,-5.3208e-05,0
63.152,-4.3473e-05,0
63.153,-2.9038e-05,0
63.154,-1.4939e-05,0
63.154,-1.5106e-06,0
63.155,9.2317e-06,0
63.155,1.2589e-05,0
63.156,9.0639e-06,0
63.156,4.3641e-06,0
63.157,6.5461e-06,0
63.157,2.3331e-05,0
63.158,4.6326e-05,0
63.158,5.9922e-05,0
63.159,5.7237e-05,0
63.159,4.3473e-05,0
63.16,3.0045e-05,0
63.16,2.2995e-05,0
63.161,2.3163e-05,0
63.161,2.6688e-05,0
63.162,3.1724e-05,0
63.162,4.1962e-05,0
63.163,6.1265e-05,0
63.163,8.7114e-05,0
63.164,0.00011632,0
63.164,0.00014133,0
63.165,0.00015425,0
63.165,0.00015492,0
63.166,0.00015341,0
63.166,0.00015526,0
63.167,0.00015744,0
63.168,0.00015492,0
63.168,0.0001472,0
63.169,0.00013999,0
63.169,0.00013176,0
63.17,0.00011431,0
63.17,8.6442e-05,0
63.171,5.304e-05,0
63.171,2.1317e-05,0
63.172,1.5106e-06,0
63.172,-5.8747e-06,0
63.173,-8.2246e-06,0
63.173,-1.1414e-05,0
63.174,-1.2253e-05,0
63.174,-8.896e-06,0
63.175,-4.5319e-06,0
63.175,-2.8534e-06,0
63.176,-5.0355e-06,0
63.176,-8.896e-06,0
63.177,-1.2085e-05,0
63.177,-1.6617e-05,0
63.178,-2.4674e-05,0
63.178,-3.1891e-05,0
63.179,-3.1556e-05,0
63.179,-2.5345e-05,0
63.18,-1.6449e-05,0
63.181,-8.896e-06,0
63.181,-5.0355e-06,0
63.182,-4.8676e-06,0
63.182,-4.5319e-06,0
63.183,-4.1962e-06,0
63.183,-6.8818e-06,0
63.184,-1.0239e-05,0
63.184,-9.2317e-06,0
63.185,-9.2317e-06,0
63.185,-1.091e-05,0
63.186,-1.2253e-05,0
63.186,-1.2757e-05,0
63.187,-1.2924e-05,0
63.187,-1.2421e-05,0
63.188,-1.091e-05,0
63.188,-7.7211e-06,0
63.189,-3.8605e-06,0
63.189,1.6785e-06,0
63.19,6.714e-06,0
63.19,9.3996e-06,0
63.191,9.5674e-06,0
63.191,1.0239e-05,0
63.192,1.1917e-05,0
63.192,1.3596e-05,0
63.193,1.4771e-05,0
63.194,1.5274e-05,0
63.194,1.6281e-05,0
63.195,1.4603e-05,0
63.195,1.0575e-05,0
63.196,7.7211e-06,0
63.196,4.3641e-06,0
63.197,-1.1749e-06,0
63.197,-6.3783e-06,0
63.198,-1.1917e-05,0
63.198,-1.5442e-05,0
63.199,-1.3596e-05,0
63.199,-6.2104e-06,0
63.2,2.8534e-06,0
63.2,1.3428e-05,0
63.201,2.7695e-05,0
63.201,4.3305e-05,0
63.202,6.0258e-05,0
63.202,7.6539e-05,0
63.203,8.8792e-05,0
63.203,9.5506e-05,0
63.204,9.9535e-05,0
63.204,0.00010021,0
63.205,9.6345e-05,0
63.205,8.896e-05,0
63.206,7.4357e-05,0
63.206,4.918e-05,0
63.207,1.8631e-05,0
63.208,-5.539e-06,0
63.208,-2.0981e-05,0
63.209,-3.4073e-05,0
63.209,-4.6494e-05,0
63.21,-5.5055e-05,0
63.21,-5.6901e-05,0
63.211,-5.1865e-05,0
63.211,-3.9277e-05,0
63.212,-2.2995e-05,0
63.212,-8.2246e-06,0
63.213,4.6998e-06,0
63.213,1.9471e-05,0
63.214,3.1388e-05,0
63.214,3.8102e-05,0
63.215,4.0116e-05,0
63.215,4.0787e-05,0
63.216,3.8773e-05,0
63.216,3.5248e-05,0
63.217,3.8437e-05,0
63.217,4.918e-05,0
63.218,5.8412e-05,0
63.218,6.2104e-05,0
63.219,6.2943e-05,0
63.219,6.0761e-05,0
63.22,5.5726e-05,0
63.221,5.4887e-05,0
63.221,5.7069e-05,0
63.222,5.539e-05,0
63.222,5.069e-05,0
63.223,4.7669e-05,0
63.223,4.8173e-05,0
63.224,4.9851e-05,0
63.224,5.0187e-05,0
63.225,4.8005e-05,0
63.225,4.8341e-05,0
63.226,6.1265e-05,0
63.226,8.4764e-05,0
63.227,0.00010541,0
63.227,0.00011044,0
63.228,9.752e-05,0
63.228,6.8315e-05,0
63.229,3.508e-05,0
63.229,9.2317e-06,0
63.23,-8.2246e-06,0
63.23,-2.9374e-05,0
63.231,-5.7237e-05,0
63.231,-8.1407e-05,0
63.232,-9.0303e-05,0
63.232,-8.7617e-05,0
63.233,-8.6442e-05,0
63.233,-8.9799e-05,0
63.234,-8.7785e-05,0
63.235,-7.7714e-05,0
63.235,-6.6972e-05,0
63.236,-6.1097e-05,0
63.236,-5.9586e-05,0
63.237,-4.9683e-05,0
63.237,-2.6017e-05,0
63.238,1.0071e-06,0
63.238,2.2492e-05,0
63.239,3.743e-05,0
63.239,4.2634e-05,0
63.24,3.9445e-05,0
63.24,3.6927e-05,0
63.241,3.4745e-05,0
63.241,3.1891e-05,0
63.242,2.9374e-05,0
63.242,2.8031e-05,0
63.243,2.6688e-05,0
63.243,2.7863e-05,0
63.244,3.1891e-05,0
63.244,3.7095e-05,0
63.245,4.0452e-05,0
63.245,4.062e-05,0
63.246,3.9277e-05,0
63.246,3.8773e-05,0
63.247,4.0452e-05,0
63.248,4.1123e-05,0
63.248,3.8773e-05,0
63.249,3.4745e-05,0
63.249,3.2731e-05,0
63.25,3.3906e-05,0
63.25,3.508e-05,0
63.251,3.4745e-05,0
63.251,3.4409e-05,0
63.252,3.3402e-05,0
63.252,3.122e-05,0
63.253,2.8367e-05,0
63.253,2.6352e-05,0
63.254,2.4506e-05,0
63.254,1.9303e-05,0
63.255,1.2589e-05,0
63.255,6.714e-06,0
63.256,2.8534e-06,0
63.256,-8.3925e-07,0
63.257,-4.5319e-06,0
63.257,-5.8747e-06,0
63.258,-1.6785e-06,0
63.258,8.896e-06,0
63.259,1.8967e-05,0
63.259,2.2492e-05,0
63.26,2.4674e-05,0
63.26,3.0381e-05,0
63.261,3.6255e-05,0
63.262,4.1123e-05,0
63.262,4.4144e-05,0
63.263,4.4144e-05,0
63.263,4.1794e-05,0
63.264,3.9948e-05,0
63.264,3.8102e-05,0
63.265,3.6591e-05,0
63.265,3.3066e-05,0
63.266,2.9877e-05,0
63.266,2.8534e-05,0
63.267,2.5681e-05,0
63.267,1.9303e-05,0
63.268,1.3596e-05,0
63.268,1.1917e-05,0
63.269,1.2253e-05,0
63.269,1.4099e-05,0
63.27,1.1246e-05,0
63.27,-3.0213e-06,0
63.271,-2.4842e-05,0
63.271,-4.2466e-05,0
63.272,-4.7166e-05,0
63.272,-4.5319e-05,0
63.273,-4.3809e-05,0
63.273,-3.7766e-05,0
63.274,-2.2156e-05,0
63.275,1.5106e-06,0
63.275,2.8367e-05,0
63.276,5.304e-05,0
63.276,7.3014e-05,0
63.277,9.0471e-05,0
63.277,0.00010625,0
63.278,0.00011867,0
63.278,0.00012874,0
63.279,0.00013545,0
63.279,0.00013495,0
63.28,0.00012706,0
63.28,0.000118,0
63.281,0.00011112,0
63.281,0.00010356,0
63.282,9.4499e-05,0
63.282,8.51e-05,0
63.283,7.2343e-05,0
63.283,5.774e-05,0
63.284,4.2802e-05,0
63.284,3.2563e-05,0
63.285,2.9038e-05,0
63.285,3.1724e-05,0
63.286,3.6423e-05,0
63.286,3.7263e-05,0
63.287,3.9948e-05,0
63.287,4.4144e-05,0
63.288,4.0116e-05,0
63.289,2.652e-05,0
63.289,1.3092e-05,0
63.29,2.5177e-06,0
63.29,-9.7353e-06,0
63.291,-2.4338e-05,0
63.291,-3.9277e-05,0
63.292,-5.7237e-05,0
63.292,-7.6707e-05,0
63.293,-9.5842e-05,0
63.293,-0.00010961,0
63.294,-0.00011514,0
63.294,-0.00011363,0
63.295,-0.00011112,0
63.295,-0.00011044,0
63.296,-0.00010927,0
63.296,-0.00010222,0
63.297,-8.7785e-05,0
63.297,-7.0665e-05,0
63.298,-4.8844e-05,0
63.298,-2.3667e-05,0
63.299,-1.8463e-06,0
63.299,1.3931e-05,0
63.3,2.3667e-05,0
63.3,2.8367e-05,0
63.301,2.9206e-05,0
63.301,3.1388e-05,0
63.302,3.978e-05,0
