3.3371,-2.5177e-06,0
3.3376,1.6785e-07,0
3.3381,1.0071e-06,0
3.3387,0,0
3.3392,1.1749e-06,0
3.3397,7.7211e-06,0
3.3402,1.5778e-05,0
3.3407,2.0142e-05,0
3.3413,2.4506e-05,0
3.3418,3.4073e-05,0
3.3423,4.1794e-05,0
3.3428,4.3305e-05,0
3.3433,4.1459e-05,0
3.3438,3.7263e-05,0
3.3444,3.0716e-05,0
3.3449,2.7359e-05,0
3.3454,3.2059e-05,0
3.3459,3.743e-05,0
3.3464,3.3066e-05,0
3.347,2.0478e-05,0
3.3475,1.1917e-05,0
3.348,1.1749e-05,0
3.3485,1.091e-05,0
3.349,3.357e-07,0
3.3496,-1.4435e-05,0
3.3501,-2.031e-05,0
3.3506,-1.8967e-05,0
3.3511,-1.561e-05,0
3.3516,-3.6927e-06,0
3.3522,1.5274e-05,0
3.3527,2.4002e-05,0
3.3532,2.1317e-05,0
3.3537,2.1317e-05,0
3.3542,2.9038e-05,0
3.3548,3.5584e-05,0
3.3553,3.1388e-05,0
3.3558,1.7121e-05,0
3.3563,2.8534e-06,0
3.3568,-3.0213e-06,0
3.3573,1.1749e-06,0
3.3579,5.2033e-06,0
3.3584,1.6785e-06,0
3.3589,-2.0142e-06,0
3.3594,5.7069e-06,0
3.3599,2.2324e-05,0
3.3605,3.9109e-05,0
3.361,4.9851e-05,0
3.3615,5.2537e-05,0
3.362,5.4551e-05,0
3.3625,5.6733e-05,0
3.3631,5.5726e-05,0
3.3636,4.6662e-05,0
3.3641,3.1388e-05,0
3.3646,1.3931e-05,0
3.3651,-4.0284e-06,0
3.3657,-2.1653e-05,0
3.3662,-3.4409e-05,0
3.3667,-3.8773e-05,0
3.3672,-3.9948e-05,0
3.3677,-4.213e-05,0
3.3683,-4.5823e-05,0
3.3688,-4.3809e-05,0
3.3693,-3.1052e-05,0
3.3698,-1.3596e-05,0
3.3703,1.3428e-06,0
3.3708,1.091e-05,0
3.3714,1.7456e-05,0
3.3719,2.501e-05,0
3.3724,3.1724e-05,0
3.3729,3.3738e-05,0
3.3734,3.1052e-05,0
3.374,2.7695e-05,0
3.3745,2.9374e-05,0
3.375,3.743e-05,0
3.3755,4.9516e-05,0
3.376,6.0929e-05,0
3.3766,6.7643e-05,0
3.3771,6.7979e-05,0
3.3776,6.3951e-05,0
3.3781,6.0929e-05,0
3.3786,6.1601e-05,0
3.3792,6.7979e-05,0
3.3797,7.5532e-05,0
3.3802,7.5868e-05,0
3.3807,6.949e-05,0
3.3812,6.4286e-05,0
3.3817,6.8986e-05,0
3.3823,8.1743e-05,0
3.3828,9.4163e-05,0
3.3833,9.987e-05,0
3.3838,9.4835e-05,0
3.3843,7.8386e-05,0
3.3849,5.3208e-05,0
3.3854,2.6184e-05,0
3.3859,4.0284e-06,0
3.3864,-1.1582e-05,0
3.3869,-2.2995e-05,0
3.3875,-3.1052e-05,0
3.388,-3.3234e-05,0
3.3885,-2.8534e-05,0
3.389,-1.9806e-05,0
3.3895,-1.1078e-05,0
3.3901,-4.5319e-06,0
3.3906,-3.0213e-06,0
3.3911,-3.5248e-06,0
3.3916,-1.5106e-06,0
3.3921,4.1962e-06,0
3.3927,1.0575e-05,0
3.3932,1.2253e-05,0
3.3937,9.9031e-06,0
3.3942,5.8747e-06,0
3.3947,1.8463e-06,0
3.3952,1.5106e-06,0
3.3958,4.0284e-06,0
3.3963,6.714e-06,0
3.3968,1.1917e-05,0
3.3973,1.8631e-05,0
3.3978,2.1317e-05,0
3.3984,2.0981e-05,0
3.3989,1.9974e-05,0
3.3994,2.0142e-05,0
3.3999,2.1149e-05,0
3.4004,2.2492e-05,0
3.401,2.3667e-05,0
3.4015,2.5681e-05,0
3.402,2.4002e-05,0
3.4025,1.7624e-05,0
3.403,1.1078e-05,0
3.4036,9.9031e-06,0
3.4041,1.0239e-05,0
3.4046,9.5674e-06,0
3.4051,7.7211e-06,0
3.4056,7.2175e-06,0
3.4062,7.8889e-06,0
3.4067,9.7353e-06,0
3.4072,1.3931e-05,0
3.4077,2.0142e-05,0
3.4082,2.501e-05,0
3.4087,2.5849e-05,0
3.4093,2.266e-05,0
3.4098,1.5946e-05,0
3.4103,9.5674e-06,0
3.4108,6.0426e-06,0
3.4113,2.5177e-06,0
3.4119,0,0
3.4124,-1.1749e-06,0
3.4129,-1.6785e-07,0
3.4134,3.1891e-06,0
3.4139,7.5532e-06,0
3.4145,1.2757e-05,0
3.415,1.796e-05,0
3.4155,2.2324e-05,0
3.416,2.3835e-05,0
3.4165,2.6688e-05,0
3.4171,3.1724e-05,0
3.4176,3.6423e-05,0
3.4181,3.978e-05,0
3.4186,4.0116e-05,0
3.4191,3.9445e-05,0
3.4197,3.743e-05,0
3.4202,3.2059e-05,0
3.4207,2.6017e-05,0
3.4212,2.1149e-05,0
3.4217,1.6617e-05,0
3.4223,1.9471e-05,0
3.4228,3.5752e-05,0
3.4233,5.6901e-05,0
3.4238,7.2007e-05,0
3.4243,7.8386e-05,0
3.4248,8.04e-05,0
3.4254,7.2343e-05,0
3.4259,5.4047e-05,0
3.4264,3.3402e-05,0
3.4269,1.4771e-05,0
3.4274,-3.8605e-06,0
3.428,-2.4842e-05,0
3.4285,-4.5823e-05,0
3.429,-6.5461e-05,0
3.4295,-8.0735e-05,0
3.43,-8.8457e-05,0
3.4306,-8.8792e-05,0
3.4311,-8.2414e-05,0
3.4316,-6.9657e-05,0
3.4321,-5.8076e-05,0
3.4326,-5.1194e-05,0
3.4332,-4.1962e-05,0
3.4337,-2.8534e-05,0
3.4342,-1.7456e-05,0
3.4347,-1.0239e-05,0
3.4352,-5.539e-06,0
3.4358,-1.5106e-06,0
3.4363,5.2033e-06,0
3.4368,1.4939e-05,0
3.4373,2.266e-05,0
3.4378,2.8367e-05,0
3.4383,3.3738e-05,0
3.4389,3.978e-05,0
3.4394,4.7669e-05,0
3.4399,6.3951e-05,0
3.4404,8.426e-05,0
3.4409,0.00010054,0
3.4415,0.00011498,0
3.442,0.0001321,0
3.4425,0.00014418,0
3.443,0.00014066,0
3.4435,0.0001279,0
3.4441,0.00011531,0
3.4446,0.00010423,0
3.4451,9.131e-05,0
3.4456,7.5364e-05,0
3.4461,5.8915e-05,0
3.4467,4.4816e-05,0
3.4472,3.2395e-05,0
3.4477,1.8799e-05,0
3.4482,3.5248e-06,0
3.4487,-1.1582e-05,0
3.4493,-2.2324e-05,0
3.4498,-2.8031e-05,0
3.4503,-3.1891e-05,0
3.4508,-3.9948e-05,0
3.4513,-4.8844e-05,0
3.4518,-5.0523e-05,0
3.4524,-4.2466e-05,0
3.4529,-2.7024e-05,0
3.4534,-8.2246e-06,0
3.4539,1.1582e-05,0
3.4544,3.1052e-05,0
3.455,4.683e-05,0
3.4555,5.4719e-05,0
3.456,5.6901e-05,0
3.4565,5.8915e-05,0
3.457,6.1936e-05,0
3.4576,6.1433e-05,0
3.4581,5.4383e-05,0
3.4586,4.3977e-05,0
3.4591,3.4409e-05,0
3.4596,2.7695e-05,0
3.4602,2.182e-05,0
3.4607,1.2253e-05,0
3.4612,-4.6998e-06,0
3.4617,-2.3163e-05,0
3.4622,-3.3906e-05,0
3.4628,-3.6591e-05,0
3.4633,-3.6927e-05,0
3.4638,-3.6088e-05,0
3.4643,-3.5752e-05,0
3.4648,-3.1388e-05,0
3.4653,-1.6617e-05,0
3.4659,7.8889e-06,0
3.4664,3.1891e-05,0
3.4669,4.7837e-05,0
3.4674,5.9419e-05,0
3.4679,6.8315e-05,0
3.4685,7.6707e-05,0
3.469,8.2078e-05,0
3.4695,8.0232e-05,0
3.47,7.2343e-05,0
3.4705,6.4286e-05,0
3.4711,5.9251e-05,0
3.4716,5.9251e-05,0
3.4721,6.2272e-05,0
3.4726,6.0761e-05,0
3.4731,4.9683e-05,0
3.4737,3.1891e-05,0
3.4742,1.1246e-05,0
3.4747,-6.8818e-06,0
3.4752,-1.8631e-05,0
3.4757,-2.5345e-05,0
3.4762,-2.9877e-05,0
3.4768,-3.1724e-05,0
3.4773,-3.0045e-05,0
3.4778,-3.0045e-05,0
3.4783,-3.3066e-05,0
3.4788,-3.4745e-05,0
3.4794,-3.0716e-05,0
3.4799,-2.2324e-05,0
3.4804,-1.326e-05,0
3.4809,-5.539e-06,0
3.4814,3.6927e-06,0
3.482,1.5946e-05,0
3.4825,2.7192e-05,0
3.483,3.4745e-05,0
3.4835,3.8437e-05,0
3.484,4.1794e-05,0
3.4846,4.7166e-05,0
3.4851,5.2201e-05,0
3.4856,5.8076e-05,0
3.4861,6.0594e-05,0
3.4866,5.4215e-05,0
3.4872,4.2298e-05,0
3.4877,3.4409e-05,0
3.4882,3.3906e-05,0
3.4887,3.9445e-05,0
3.4892,4.6662e-05,0
3.4897,5.0019e-05,0
3.4903,5.0523e-05,0
3.4908,4.7501e-05,0
3.4913,4.3473e-05,0
3.4918,4.1794e-05,0
3.4923,4.4144e-05,0
3.4929,4.7333e-05,0
3.4934,5.2033e-05,0
3.4939,5.3544e-05,0
3.4944,4.9851e-05,0
3.4949,4.213e-05,0
3.4955,3.5416e-05,0
3.496,3.0716e-05,0
3.4965,2.5849e-05,0
3.497,1.9974e-05,0
3.4975,1.0575e-05,0
3.4981,-3.5248e-06,0
3.4986,-1.5274e-05,0
3.4991,-1.6281e-05,0
3.4996,-1.0239e-05,0
3.5001,-8.3925e-07,0
3.5007,6.8818e-06,0
3.5012,9.9031e-06,0
3.5017,1.0239e-05,0
3.5022,8.2246e-06,0
3.5027,5.0355e-07,0
3.5032,-1.2589e-05,0
3.5038,-2.4338e-05,0
3.5043,-3.1052e-05,0
3.5048,-3.2731e-05,0
3.5053,-3.4745e-05,0
3.5058,-3.9612e-05,0
3.5064,-4.5151e-05,0
3.5069,-4.7501e-05,0
3.5074,-4.1962e-05,0
3.5079,-2.6352e-05,0
3.5084,-9.9031e-06,0
3.509,1.6785e-07,0
3.5095,9.2317e-06,0
3.51,2.1988e-05,0
3.5105,3.4745e-05,0
3.511,3.743e-05,0
3.5116,3.1556e-05,0
3.5121,2.501e-05,0
3.5126,2.266e-05,0
3.5131,2.2156e-05,0
3.5136,2.0645e-05,0
3.5142,1.8799e-05,0
3.5147,1.9974e-05,0
3.5152,2.6688e-05,0
3.5157,3.4745e-05,0
3.5162,3.8437e-05,0
3.5168,3.9109e-05,0
3.5173,4.0116e-05,0
3.5178,4.0284e-05,0
3.5183,3.978e-05,0
3.5188,3.7934e-05,0
3.5193,3.508e-05,0
3.5199,3.3738e-05,0
3.5204,3.6088e-05,0
3.5209,3.9109e-05,0
3.5214,4.0116e-05,0
3.5219,3.6759e-05,0
3.5225,3.1724e-05,0
3.523,2.7863e-05,0
3.5235,2.6017e-05,0
3.524,2.652e-05,0
3.5245,2.4338e-05,0
3.5251,2.1988e-05,0
3.5256,2.266e-05,0
3.5261,2.5177e-05,0
3.5266,2.7863e-05,0
3.5271,2.9877e-05,0
3.5277,2.9374e-05,0
3.5282,2.6352e-05,0
3.5287,2.0645e-05,0
3.5292,1.5946e-05,0
3.5297,1.561e-05,0
3.5303,1.9974e-05,0
3.5308,2.7359e-05,0
3.5313,2.8031e-05,0
3.5318,2.2828e-05,0
3.5323,2.501e-05,0
3.5328,3.9445e-05,0
3.5334,5.6733e-05,0
3.5339,6.7308e-05,0
3.5344,7.1336e-05,0
3.5349,7.0161e-05,0
3.5354,6.6972e-05,0
3.536,6.2943e-05,0
3.5365,5.539e-05,0
3.537,4.1962e-05,0
3.5375,2.6017e-05,0
3.538,1.2924e-05,0
3.5386,2.0142e-06,0
3.5391,-6.5461e-06,0
3.5396,-9.5674e-06,0
3.5401,-1.0239e-05,0
3.5406,-1.0575e-05,0
3.5412,-1.091e-05,0
3.5417,-1.1582e-05,0
3.5422,-1.4603e-05,0
3.5427,-1.796e-05,0
3.5432,-2.0478e-05,0
3.5438,-1.6449e-05,0
3.5443,-6.0426e-06,0
3.5448,3.0213e-06,0
3.5453,4.1962e-06,0
3.5458,4.8676e-06,0
3.5463,1.5778e-05,0
3.5469,3.5416e-05,0
3.5474,5.1865e-05,0
3.5479,5.9586e-05,0
3.5484,6.4286e-05,0
3.5489,6.5629e-05,0
3.5495,6.1265e-05,0
3.55,5.1362e-05,0
3.5505,3.6927e-05,0
3.551,2.5681e-05,0
3.5515,2.3163e-05,0
3.5521,2.0981e-05,0
3.5526,1.5946e-05,0
3.5531,1.4603e-05,0
3.5536,1.3764e-05,0
3.5541,8.5603e-06,0
3.5547,-1.5106e-06,0
3.5552,-1.6617e-05,0
3.5557,-3.1891e-05,0
3.5562,-4.4816e-05,0
3.5567,-5.9419e-05,0
3.5572,-7.4022e-05,0
3.5578,-8.0903e-05,0
3.5583,-7.1336e-05,0
3.5588,-4.5151e-05,0
3.5593,-1.9303e-05,0
3.5598,-4.8676e-06,0
3.5604,3.1891e-06,0
3.5609,1.561e-05,0
3.5614,3.4073e-05,0
3.5619,5.3376e-05,0
3.5624,7.1504e-05,0
3.563,8.6442e-05,0
3.5635,9.1814e-05,0
3.564,8.191e-05,0
3.5645,6.4118e-05,0
3.565,5.0523e-05,0
3.5656,4.5151e-05,0
3.5661,4.5487e-05,0
3.5666,4.6159e-05,0
3.5671,4.8173e-05,0
3.5676,5.1865e-05,0
3.5682,5.3208e-05,0
3.5687,4.7166e-05,0
3.5692,3.8102e-05,0
3.5697,2.6352e-05,0
3.5702,6.2104e-06,0
3.5707,-2.182e-05,0
3.5713,-5.1194e-05,0
3.5718,-6.7643e-05,0
3.5723,-6.5461e-05,0
3.5728,-5.5726e-05,0
3.5733,-4.9683e-05,0
3.5739,-4.6494e-05,0
3.5744,-3.9277e-05,0
3.5749,-2.4338e-05,0
3.5754,-6.3783e-06,0
3.5759,9.7353e-06,0
3.5765,2.6017e-05,0
3.577,4.213e-05,0
3.5775,5.9419e-05,0
3.578,7.5364e-05,0
3.5785,8.4932e-05,0
3.5791,7.8386e-05,0
3.5796,5.3376e-05,0
3.5801,2.4338e-05,0
3.5806,4.6998e-06,0
3.5811,2.0142e-06,0
3.5817,9.2317e-06,0
3.5822,1.3931e-05,0
3.5827,1.6953e-05,0
3.5832,1.7121e-05,0
3.5837,1.4939e-05,0
3.5842,1.4603e-05,0
3.5848,1.4939e-05,0
3.5853,1.7288e-05,0
3.5858,2.6688e-05,0
3.5863,3.9109e-05,0
3.5868,5.069e-05,0
3.5874,6.1936e-05,0
3.5879,7.1e-05,0
3.5884,7.3014e-05,0
3.5889,7.0161e-05,0
3.5894,6.6972e-05,0
3.59,6.3279e-05,0
3.5905,5.4047e-05,0
3.591,3.9948e-05,0
3.5915,2.1988e-05,0
3.592,1.0071e-06,0
3.5926,-2.1653e-05,0
3.5931,-3.9109e-05,0
3.5936,-4.8173e-05,0
3.5941,-4.9516e-05,0
3.5946,-4.5991e-05,0
3.5952,-3.827e-05,0
3.5957,-2.4842e-05,0
3.5962,-8.7282e-06,0
3.5967,5.2033e-06,0
3.5972,1.8631e-05,0
3.5978,3.2731e-05,0
3.5983,4.8173e-05,0
3.5988,6.2272e-05,0
3.5993,7.2007e-05,0
3.5998,7.7714e-05,0
3.6003,7.9057e-05,0
3.6009,7.7043e-05,0
3.6014,7.335e-05,0
3.6019,6.9657e-05,0
3.6024,7.0161e-05,0
3.6029,7.1504e-05,0
3.6035,6.7643e-05,0
3.604,6.0594e-05,0
3.6045,5.4215e-05,0
3.605,5.1698e-05,0
3.6055,5.1865e-05,0
3.6061,5.1698e-05,0
3.6066,5.1026e-05,0
3.6071,4.9851e-05,0
3.6076,4.683e-05,0
3.6081,3.8437e-05,0
3.6087,2.6352e-05,0
3.6092,1.5442e-05,0
3.6097,8.896e-06,0
3.6102,5.0355e-06,0
3.6107,3.6927e-06,0
3.6113,9.2317e-06,0
3.6118,1.8296e-05,0
3.6123,1.7456e-05,0
3.6128,5.539e-06,0
3.6133,-4.1962e-06,0
3.6138,-4.3641e-06,0
3.6144,3.8605e-06,0
3.6149,1.8128e-05,0
3.6154,3.1891e-05,0
3.6159,3.6759e-05,0
3.6164,3.3738e-05,0
3.617,2.6688e-05,0
3.6175,2.0142e-05,0
3.618,1.0575e-05,0
3.6185,-2.5177e-06,0
3.619,-9.5674e-06,0
3.6196,-8.3925e-06,0
3.6201,-7.5532e-06,0
3.6206,-1.3596e-05,0
3.6211,-2.7024e-05,0
3.6216,-4.3977e-05,0
3.6222,-5.6733e-05,0
3.6227,-5.9419e-05,0
3.6232,-5.4047e-05,0
3.6237,-4.8005e-05,0
3.6242,-4.2634e-05,0
3.6248,-3.1724e-05,0
3.6253,-1.3596e-05,0
3.6258,2.5177e-06,0
3.6263,1.4267e-05,0
3.6268,2.5849e-05,0
3.6273,3.978e-05,0
3.6279,5.0019e-05,0
3.6284,5.4215e-05,0
3.6289,5.7069e-05,0
3.6294,5.6565e-05,0
3.6299,4.8676e-05,0
3.6305,3.743e-05,0
3.631,2.9374e-05,0
3.6315,2.652e-05,0
3.632,2.9374e-05,0
3.6325,3.6759e-05,0
3.6331,4.4648e-05,0
3.6336,4.6494e-05,0
3.6341,3.978e-05,0
3.6346,2.4506e-05,0
3.6351,3.357e-06,0
3.6357,-1.561e-05,0
3.6362,-2.5681e-05,0
3.6367,-2.8367e-05,0
3.6372,-2.7024e-05,0
3.6377,-2.2156e-05,0
3.6383,-1.4435e-05,0
3.6388,-7.7211e-06,0
3.6393,-3.357e-07,0
3.6398,8.5603e-06,0
3.6403,1.9638e-05,0
3.6408,3.7095e-05,0
3.6414,6.1265e-05,0
3.6419,8.7785e-05,0
3.6424,0.00010927,0
3.6429,0.00012018,0
3.6434,0.00011968,0
3.644,0.00011531,0
3.6445,0.00011196,0
3.645,0.0001086,0
3.6455,0.00010155,0
3.646,8.7114e-05,0
3.6466,6.7979e-05,0
3.6471,4.8844e-05,0
3.6476,2.9877e-05,0
3.6481,1.0575e-05,0
3.6486,-4.6998e-06,0
3.6492,-1.3092e-05,0
3.6497,-1.6785e-05,0
3.6502,-1.4939e-05,0
3.6507,-5.539e-06,0
3.6512,1.1917e-05,0
3.6517,3.1724e-05,0
3.6523,4.8173e-05,0
3.6528,6.0258e-05,0
3.6533,6.6468e-05,0
3.6538,6.3279e-05,0
3.6543,5.623e-05,0
3.6549,4.6159e-05,0
3.6554,3.0213e-05,0
3.6559,1.1078e-05,0
3.6564,-1.1414e-05,0
3.6569,-3.6423e-05,0
3.6575,-5.7908e-05,0
3.658,-7.2343e-05,0
3.6585,-8.2414e-05,0
3.659,-9.0639e-05,0
3.6595,-9.7353e-05,0
3.6601,-0.00010037,0
3.6606,-9.4835e-05,0
3.6611,-7.9057e-05,0
3.6616,-5.7908e-05,0
3.6621,-3.7766e-05,0
3.6627,-1.9974e-05,0
3.6632,-7.5532e-06,0
3.6637,1.6785e-07,0
3.6642,5.539e-06,0
3.6647,7.7211e-06,0
3.6652,7.7211e-06,0
3.6658,6.8818e-06,0
3.6663,6.2104e-06,0
3.6668,9.5674e-06,0
3.6673,1.4603e-05,0
3.6678,1.8128e-05,0
3.6684,1.9135e-05,0
3.6689,1.9471e-05,0
3.6694,2.4338e-05,0
3.6699,3.3234e-05,0
3.6704,3.9948e-05,0
3.671,4.0116e-05,0
3.6715,3.4745e-05,0
3.672,3.122e-05,0
3.6725,3.8773e-05,0
3.673,5.2873e-05,0
3.6736,6.3279e-05,0
3.6741,6.3951e-05,0
3.6746,6.0594e-05,0
3.6751,5.8412e-05,0
3.6756,5.7237e-05,0
3.6762,5.4887e-05,0
3.6767,4.918e-05,0
3.6772,4.1459e-05,0
3.6777,3.3738e-05,0
3.6782,2.3163e-05,0
3.6787,5.7069e-06,0
3.6793,-1.6281e-05,0
3.6798,-3.4745e-05,0
3.6803,-4.5151e-05,0
3.6808,-4.9516e-05,0
3.6813,-5.1362e-05,0
3.6819,-5.069e-05,0
3.6824,-4.8508e-05,0
3.6829,-4.1459e-05,0
3.6834,-2.6352e-05,0
3.6839,-2.8534e-06,0
3.6845,2.5681e-05,0
3.685,5.4887e-05,0
3.6855,8.1407e-05,0
3.686,0.00010222,0
3.6865,0.00011162,0
3.6871,0.00011128,0
3.6876,0.00011162,0
3.6881,0.00011901,0
3.6886,0.00012992,0
3.6891,0.00014015,0
3.6897,0.00014469,0
3.6902,0.00013931,0
3.6907,0.00012639,0
3.6912,0.00010927,0
3.6917,9.1981e-05,0
3.6923,7.5364e-05,0
3.6928,6.1097e-05,0
3.6933,5.1698e-05,0
3.6938,5.0523e-05,0
3.6943,5.304e-05,0
3.6948,4.9516e-05,0
3.6954,3.9445e-05,0
3.6959,2.9374e-05,0
3.6964,2.4338e-05,0
3.6969,2.266e-05,0
3.6974,2.1317e-05,0
3.698,1.6617e-05,0
3.6985,7.8889e-06,0
3.699,-2.0142e-06,0
3.6995,-1.1749e-05,0
3.7,-2.1653e-05,0
3.7006,-2.9877e-05,0
3.7011,-3.0716e-05,0
3.7016,-2.501e-05,0
3.7021,-2.7359e-05,0
3.7026,-4.3137e-05,0
3.7032,-5.8579e-05,0
3.7037,-6.3951e-05,0
3.7042,-6.1936e-05,0
3.7047,-5.5222e-05,0
3.7052,-4.213e-05,0
3.7058,-1.9303e-05,0
3.7063,4.3641e-06,0
3.7068,1.5442e-05,0
3.7073,1.8631e-05,0
3.7078,2.2492e-05,0
3.7083,2.6688e-05,0
3.7089,3.2395e-05,0
3.7094,4.0116e-05,0
3.7099,4.4144e-05,0
3.7104,4.1794e-05,0
3.7109,3.9109e-05,0
3.7115,3.827e-05,0
3.712,4.0452e-05,0
3.7125,4.213e-05,0
3.713,4.0116e-05,0
3.7135,3.743e-05,0
3.7141,3.743e-05,0
3.7146,3.2395e-05,0
3.7151,1.7624e-05,0
3.7156,2.182e-06,0
3.7161,-9.2317e-06,0
3.7167,-1.5274e-05,0
3.7172,-1.6785e-05,0
3.7177,-1.3931e-05,0
3.7182,-1.091e-05,0
3.7187,-4.8676e-06,0
3.7193,8.3925e-06,0
3.7198,2.4002e-05,0
3.7203,3.4409e-05,0
3.7208,4.2298e-05,0
3.7213,4.4648e-05,0
3.7218,3.6759e-05,0
3.7224,2.7024e-05,0
3.7229,2.4338e-05,0
3.7234,2.4506e-05,0
3.7239,1.9471e-05,0
3.7244,1.3092e-05,0
3.725,6.3783e-06,0
3.7255,1.5106e-06,0
3.726,3.5248e-06,0
3.7265,9.9031e-06,0
3.727,1.2253e-05,0
3.7276,5.539e-06,0
3.7281,-1.3596e-05,0
3.7286,-3.5752e-05,0
3.7291,-5.153e-05,0
3.7296,-6.3783e-05,0
3.7302,-7.2007e-05,0
3.7307,-6.8986e-05,0
3.7312,-5.9083e-05,0
3.7317,-4.9012e-05,0
3.7322,-3.4073e-05,0
3.7327,-1.3092e-05,0
3.7333,5.2033e-06,0
3.7338,1.326e-05,0
3.7343,1.5946e-05,0
3.7348,1.7792e-05,0
3.7353,2.1149e-05,0
3.7359,2.7359e-05,0
3.7364,3.0381e-05,0
3.7369,2.8702e-05,0
3.7374,2.4674e-05,0
3.7379,2.4842e-05,0
3.7385,3.122e-05,0
3.739,4.0116e-05,0
3.7395,4.8844e-05,0
3.74,5.3544e-05,0
3.7405,5.2201e-05,0
3.7411,4.5823e-05,0
3.7416,3.592e-05,0
3.7421,2.7695e-05,0
3.7426,2.7863e-05,0
3.7431,3.4745e-05,0
3.7437,4.0116e-05,0
3.7442,4.1291e-05,0
3.7447,3.9445e-05,0
3.7452,4.062e-05,0
3.7457,4.5487e-05,0
3.7462,4.9516e-05,0
3.7468,5.3208e-05,0
3.7473,5.4887e-05,0
3.7478,5.623e-05,0
3.7483,6.0258e-05,0
3.7488,6.0594e-05,0
3.7494,5.2201e-05,0
3.7499,4.1459e-05,0
3.7504,3.1891e-05,0
3.7509,2.6017e-05,0
3.7514,2.3667e-05,0
3.752,2.182e-05,0
3.7525,1.8631e-05,0
3.753,1.4267e-05,0
3.7535,1.3092e-05,0
3.754,1.5106e-05,0
3.7546,2.2324e-05,0
3.7551,4.0284e-05,0
3.7556,6.3279e-05,0
3.7561,8.3085e-05,0
3.7566,9.752e-05,0
3.7572,0.00010423,0
3.7577,0.00010356,0
3.7582,0.00010155,0
3.7587,9.8527e-05,0
3.7592,9.0471e-05,0
3.7597,7.4022e-05,0
3.7603,5.4383e-05,0
3.7608,3.5248e-05,0
3.7613,1.8631e-05,0
3.7618,1.0575e-05,0
3.7623,1.0575e-05,0
3.7629,9.0639e-06,0
3.7634,2.5177e-06,0
3.7639,-4.5319e-06,0
3.7644,-9.5674e-06,0
3.7649,-1.2924e-05,0
3.7655,-1.6281e-05,0
3.766,-1.7288e-05,0
3.7665,-1.5442e-05,0
3.767,-1.1582e-05,0
3.7675,-6.2104e-06,0
3.7681,1.0071e-06,0
3.7686,1.1078e-05,0
3.7691,2.5681e-05,0
3.7696,3.8102e-05,0
3.7701,4.448e-05,0
3.7707,4.683e-05,0
3.7712,4.9516e-05,0
3.7717,5.2201e-05,0
3.7722,5.3544e-05,0
3.7727,4.9516e-05,0
3.7732,3.978e-05,0
3.7738,2.2995e-05,0
3.7743,1.8463e-06,0
3.7748,-1.796e-05,0
3.7753,-3.2395e-05,0
3.7758,-3.8437e-05,0
3.7764,-4.0452e-05,0
3.7769,-4.2802e-05,0
3.7774,-4.6494e-05,0
3.7779,-5.0355e-05,0
3.7784,-5.0523e-05,0
3.779,-4.5319e-05,0
3.7795,-3.5248e-05,0
3.78,-1.8631e-05,0
3.7805,3.357e-07,0
3.781,1.7288e-05,0
3.7816,2.8702e-05,0
3.7821,3.4577e-05,0
3.7826,3.8437e-05,0
3.7831,4.1794e-05,0
3.7836,4.213e-05,0
3.7842,4.1794e-05,0
3.7847,4.5319e-05,0
3.7852,5.0355e-05,0
3.7857,5.2201e-05,0
3.7862,5.0019e-05,0
3.7868,5.0858e-05,0
3.7873,5.623e-05,0
3.7878,5.7572e-05,0
3.7883,5.153e-05,0
3.7888,4.1627e-05,0
3.7893,3.3234e-05,0
3.7899,2.5681e-05,0
3.7904,1.1917e-05,0
3.7909,-8.7282e-06,0
3.7914,-3.4577e-05,0
3.7919,-6.244e-05,0
3.7925,-8.6442e-05,0
3.793,-0.00010608,0
3.7935,-0.0001237,0
3.794,-0.00013176,0
3.7945,-0.00012471,0
3.7951,-0.0001044,0
3.7956,-7.5868e-05,0
3.7961,-4.5151e-05,0
3.7966,-1.796e-05,0
3.7971,4.5319e-06,0
3.7977,2.1317e-05,0
3.7982,3.1556e-05,0
3.7987,3.6088e-05,0
3.7992,4.2802e-05,0
3.7997,5.7404e-05,0
3.8003,7.5029e-05,0
3.8008,7.9225e-05,0
3.8013,6.3951e-05,0
3.8018,4.2802e-05,0
3.8023,3.0381e-05,0
3.8028,2.7863e-05,0
3.8034,2.7695e-05,0
3.8039,2.5681e-05,0
3.8044,2.182e-05,0
3.8049,2.1988e-05,0
3.8054,3.0381e-05,0
3.806,4.3977e-05,0
3.8065,6.0426e-05,0
3.807,7.6036e-05,0
3.8075,8.6275e-05,0
3.808,9.0471e-05,0
3.8086,9.2149e-05,0
3.8091,9.6345e-05,0
3.8096,0.00010088,0
3.8101,9.8192e-05,0
3.8106,8.5771e-05,0
3.8112,7.0161e-05,0
3.8117,5.2201e-05,0
3.8122,3.0045e-05,0
3.8127,5.0355e-06,0
3.8132,-1.6785e-05,0
3.8138,-3.1891e-05,0
3.8143,-3.9612e-05,0
3.8148,-4.0787e-05,0
3.8153,-3.4409e-05,0
3.8158,-1.7624e-05,0
3.8163,1.0239e-05,0
3.8169,4.6159e-05,0
3.8174,7.4693e-05,0
3.8179,8.4092e-05,0
3.8184,7.9057e-05,0
3.8189,7.1168e-05,0
3.8195,6.5293e-05,0
3.82,5.7572e-05,0
3.8205,4.8173e-05,0
3.821,3.5584e-05,0
3.8215,2.2324e-05,0
3.8221,5.2033e-06,0
3.8226,-2.0645e-05,0
3.8231,-4.3473e-05,0
3.8236,-4.918e-05,0
3.8241,-4.2298e-05,0
3.8247,-3.1724e-05,0
3.8252,-2.2995e-05,0
3.8257,-1.796e-05,0
3.8262,-1.4267e-05,0
3.8267,-8.896e-06,0
3.8272,8.3925e-07,0
3.8278,8.0568e-06,0
3.8283,1.0575e-05,0
3.8288,1.6617e-05,0
3.8293,2.8367e-05,0
3.8298,4.1459e-05,0
3.8304,5.4551e-05,0
3.8309,6.5293e-05,0
3.8314,7.1672e-05,0
3.8319,7.4693e-05,0
3.8324,7.6875e-05,0
3.833,7.9728e-05,0
3.8335,8.275e-05,0
3.834,8.4092e-05,0
3.8345,8.0903e-05,0
3.835,6.9993e-05,0
3.8356,5.6565e-05,0
3.8361,4.4144e-05,0
3.8366,3.4241e-05,0
3.8371,3.0045e-05,0
3.8376,2.9038e-05,0
3.8382,2.7695e-05,0
3.8387,2.887e-05,0
3.8392,3.1388e-05,0
3.8397,3.0716e-05,0
3.8402,2.3667e-05,0
3.8407,1.5778e-05,0
3.8413,7.8889e-06,0
3.8418,-7.2175e-06,0
3.8423,-2.8031e-05,0
3.8428,-4.1794e-05,0
3.8433,-3.7766e-05,0
3.8439,-2.031e-05,0
3.8444,-6.8818e-06,0
3.8449,-9.5674e-06,0
3.8454,-1.8967e-05,0
3.8459,-2.2995e-05,0
3.8465,-1.9974e-05,0
3.847,-9.7353e-06,0
3.8475,1.0239e-05,0
3.848,3.4577e-05,0
3.8485,5.1362e-05,0
3.8491,5.6565e-05,0
3.8496,5.0355e-05,0
3.8501,3.9445e-05,0
3.8506,2.5177e-05,0
3.8511,9.0639e-06,0
3.8517,-6.5461e-06,0
3.8522,-2.2492e-05,0
3.8527,-4.0787e-05,0
3.8532,-5.5222e-05,0
3.8537,-6.3615e-05,0
3.8542,-6.8315e-05,0
3.8548,-7.0832e-05,0
3.8553,-7.0329e-05,0
3.8558,-6.2943e-05,0
3.8563,-4.7333e-05,0
3.8568,-2.6352e-05,0
3.8574,-2.8534e-06,0
3.8579,1.8967e-05,0
3.8584,3.743e-05,0
3.8589,5.1194e-05,0
3.8594,5.8915e-05,0
3.86,6.2943e-05,0
3.8605,6.5461e-05,0
3.861,6.63e-05,0
3.8615,6.5293e-05,0
3.862,6.3615e-05,0
3.8626,5.774e-05,0
3.8631,4.5487e-05,0
3.8636,3.2059e-05,0
3.8641,2.182e-05,0
3.8646,1.4435e-05,0
3.8652,9.5674e-06,0
3.8657,8.7282e-06,0
3.8662,1.0407e-05,0
3.8667,1.326e-05,0
3.8672,1.9135e-05,0
3.8678,3.1388e-05,0
3.8683,4.1291e-05,0
3.8688,3.6759e-05,0
3.8693,2.4506e-05,0
3.8698,1.4603e-05,0
3.8703,8.5603e-06,0
3.8709,4.8676e-06,0
3.8714,-1.6785e-07,0
3.8719,-7.3854e-06,0
3.8724,-1.3428e-05,0
3.8729,-1.1917e-05,0
3.8735,4.5319e-06,0
3.874,3.0045e-05,0
3.8745,5.2537e-05,0
3.875,6.7979e-05,0
3.8755,7.6371e-05,0
3.8761,7.9728e-05,0
3.8766,8.1743e-05,0
3.8771,8.51e-05,0
3.8776,8.7785e-05,0
3.8781,8.4428e-05,0
3.8787,7.2343e-05,0
3.8792,5.6901e-05,0
3.8797,4.3977e-05,0
3.8802,3.3402e-05,0
3.8807,1.7288e-05,0
3.8813,-3.5248e-06,0
3.8818,-2.1653e-05,0
3.8823,-3.0549e-05,0
3.8828,-2.8702e-05,0
3.8833,-2.1988e-05,0
3.8838,-1.6785e-05,0
3.8844,-1.4099e-05,0
3.8849,-9.9031e-06,0
3.8854,-1.5106e-06,0
3.8859,1.3092e-05,0
3.8864,3.508e-05,0
3.887,6.2943e-05,0
3.8875,8.6275e-05,0
3.888,9.6513e-05,0
3.8885,9.752e-05,0
3.889,9.7856e-05,0
3.8896,0.00010172,0
3.8901,0.00010574,0
3.8906,9.8527e-05,0
3.8911,7.805e-05,0
3.8916,5.2201e-05,0
3.8922,2.9709e-05,0
3.8927,1.3764e-05,0
3.8932,-5.0355e-07,0
3.8937,-1.4267e-05,0
3.8942,-2.5681e-05,0
3.8948,-3.1891e-05,0
3.8953,-3.1724e-05,0
3.8958,-3.4409e-05,0
3.8963,-4.1794e-05,0
3.8968,-4.6494e-05,0
3.8973,-4.5487e-05,0
3.8979,-4.0452e-05,0
3.8984,-2.9709e-05,0
3.8989,-1.9135e-05,0
3.8994,-1.2253e-05,0
3.8999,-7.5532e-06,0
3.9005,-5.0355e-07,0
3.901,1.3596e-05,0
3.9015,3.2059e-05,0
3.902,4.8844e-05,0
3.9025,5.9586e-05,0
3.9031,7.0161e-05,0
3.9036,7.9057e-05,0
3.9041,8.04e-05,0
3.9046,7.4022e-05,0
3.9051,6.1601e-05,0
3.9057,4.1962e-05,0
3.9062,2.2324e-05,0
3.9067,1.0071e-05,0
3.9072,4.1962e-06,0
3.9077,-2.3499e-06,0
3.9082,-1.1078e-05,0
3.9088,-1.8296e-05,0
3.9093,-2.1149e-05,0
3.9098,-2.0645e-05,0
3.9103,-2.2324e-05,0
3.9108,-2.7863e-05,0
3.9114,-3.3066e-05,0
3.9119,-3.7095e-05,0
3.9124,-3.9109e-05,0
3.9129,-4.0284e-05,0
3.9134,-4.4312e-05,0
3.914,-4.8508e-05,0
3.9145,-5.1865e-05,0
3.915,-5.7237e-05,0
3.9155,-5.6062e-05,0
3.916,-4.3137e-05,0
3.9166,-2.5345e-05,0
3.9171,-1.0575e-05,0
3.9176,1.8463e-06,0
3.9181,1.2253e-05,0
3.9186,2.1317e-05,0
3.9192,2.8031e-05,0
3.9197,3.2395e-05,0
3.9202,3.6088e-05,0
3.9207,3.7766e-05,0
3.9212,3.6423e-05,0
3.9217,3.122e-05,0
3.9223,2.6352e-05,0
3.9228,2.182e-05,0
3.9233,1.5106e-05,0
3.9238,9.7353e-06,0
3.9243,8.7282e-06,0
3.9249,8.3925e-06,0
3.9254,7.8889e-06,0
3.9259,1.1582e-05,0
3.9264,1.9974e-05,0
3.9269,2.887e-05,0
3.9275,3.7263e-05,0
3.928,4.5991e-05,0
3.9285,5.2537e-05,0
3.929,5.5894e-05,0
3.9295,5.8915e-05,0
3.9301,6.4286e-05,0
3.9306,7.0665e-05,0
3.9311,7.4861e-05,0
3.9316,7.8553e-05,0
3.9321,8.6778e-05,0
3.9327,0.00010121,0
3.9332,0.00010994,0
3.9337,0.00010994,0
3.9342,0.0001086,0
3.9347,0.00010776,0
3.9352,0.00010289,0
3.9358,8.7449e-05,0
3.9363,6.6804e-05,0
3.9368,5.0019e-05,0
3.9373,4.1459e-05,0
3.9378,4.1291e-05,0
3.9384,4.8508e-05,0
3.9389,5.7572e-05,0
3.9394,6.0258e-05,0
3.9399,5.5726e-05,0
3.9404,5.0858e-05,0
3.941,4.9851e-05,0
3.9415,4.2802e-05,0
3.942,1.8631e-05,0
3.9425,-1.3931e-05,0
3.943,-3.508e-05,0
3.9436,-3.9445e-05,0
3.9441,-3.2395e-05,0
3.9446,-1.796e-05,0
3.9451,-3.0213e-06,0
3.9456,8.896e-06,0
3.9462,1.4771e-05,0
3.9467,1.4603e-05,0
3.9472,1.3596e-05,0
3.9477,1.4603e-05,0
3.9482,1.5946e-05,0
3.9487,1.4603e-05,0
3.9493,7.5532e-06,0
3.9498,-6.2104e-06,0
3.9503,-2.0645e-05,0
3.9508,-3.2731e-05,0
3.9513,-4.0452e-05,0
3.9519,-4.1291e-05,0
3.9524,-3.5584e-05,0
3.9529,-2.4674e-05,0
3.9534,-6.5461e-06,0
3.9539,1.2924e-05,0
3.9545,2.8367e-05,0
3.955,3.4745e-05,0
3.9555,3.743e-05,0
3.956,4.5991e-05,0
3.9565,6.5293e-05,0
3.9571,8.2918e-05,0
3.9576,8.0903e-05,0
3.9581,6.5461e-05,0
3.9586,5.4551e-05,0
3.9591,5.3376e-05,0
3.9597,5.2705e-05,0
3.9602,4.2802e-05,0
3.9607,2.6688e-05,0
3.9612,1.326e-05,0
3.9617,6.5461e-06,0
3.9623,8.0568e-06,0
3.9628,1.5106e-05,0
3.9633,2.3667e-05,0
3.9638,2.9709e-05,0
3.9643,3.4073e-05,0
3.9648,3.1891e-05,0
3.9654,2.4674e-05,0
3.9659,2.1317e-05,0
3.9664,2.4002e-05,0
3.9669,2.7695e-05,0
3.9674,2.5345e-05,0
3.968,1.6617e-05,0
3.9685,7.0497e-06,0
3.969,-1.6785e-06,0
3.9695,-1.0239e-05,0
3.97,-1.8296e-05,0
3.9706,-2.2995e-05,0
3.9711,-2.4002e-05,0
3.9716,-2.4002e-05,0
3.9721,-2.4338e-05,0
3.9726,-2.1653e-05,0
3.9732,-1.8463e-05,0
3.9737,-1.7624e-05,0
3.9742,-1.4267e-05,0
3.9747,-7.8889e-06,0
3.9752,-1.0071e-06,0
3.9758,4.1962e-06,0
3.9763,7.7211e-06,0
3.9768,9.3996e-06,0
3.9773,1.3764e-05,0
3.9778,2.0813e-05,0
3.9783,2.5345e-05,0
3.9789,2.7695e-05,0
3.9794,2.8031e-05,0
3.9799,2.7359e-05,0
3.9804,2.6688e-05,0
3.9809,2.6184e-05,0
3.9815,2.7863e-05,0
3.982,3.0716e-05,0
3.9825,3.3066e-05,0
3.983,3.4577e-05,0
3.9835,3.4745e-05,0
3.9841,3.4241e-05,0
3.9846,3.3738e-05,0
3.9851,3.8102e-05,0
3.9856,4.8173e-05,0
3.9861,5.8412e-05,0
3.9867,6.4958e-05,0
3.9872,6.6636e-05,0
3.9877,5.8412e-05,0
3.9882,4.3473e-05,0
3.9887,2.7695e-05,0
3.9893,1.4435e-05,0
3.9898,4.1962e-06,0
3.9903,-4.3641e-06,0
3.9908,-9.5674e-06,0
3.9913,-1.561e-05,0
3.9918,-2.6688e-05,0
3.9924,-3.8102e-05,0
3.9929,-4.8676e-05,0
3.9934,-5.5222e-05,0
3.9939,-5.6397e-05,0
3.9944,-5.1194e-05,0
3.995,-4.1123e-05,0
3.9955,-3.2059e-05,0
3.996,-2.8031e-05,0
3.9965,-2.6352e-05,0
3.997,-2.0645e-05,0
3.9976,-7.8889e-06,0
3.9981,1.3931e-05,0
3.9986,4.1291e-05,0
3.9991,6.6468e-05,0
3.9996,8.51e-05,0
4.0002,9.7185e-05,0
4.0007,0.00010054,0
4.0012,9.6513e-05,0
4.0017,8.6275e-05,0
4.0022,7.4022e-05,0
4.0027,6.5629e-05,0
4.0033,6.1936e-05,0
4.0038,5.7237e-05,0
4.0043,5.0187e-05,0
4.0048,4.5823e-05,0
4.0053,4.4312e-05,0
4.0059,3.9277e-05,0
4.0064,3.0549e-05,0
4.0069,2.3499e-05,0
4.0074,2.0478e-05,0
4.0079,2.3499e-05,0
4.0085,3.2731e-05,0
4.009,4.4816e-05,0
4.0095,5.4215e-05,0
4.01,5.9586e-05,0
4.0105,5.9586e-05,0
4.0111,5.7908e-05,0
4.0116,6.1097e-05,0
4.0121,7.3014e-05,0
4.0126,8.2246e-05,0
4.0131,7.1336e-05,0
4.0137,4.1291e-05,0
4.0142,7.8889e-06,0
4.0147,-1.0239e-05,0
4.0152,-8.2246e-06,0
4.0157,8.3925e-07,0
4.0163,5.2033e-06,0
4.0168,4.3641e-06,0
4.0173,3.6927e-06,0
4.0178,3.6927e-06,0
4.0183,-4.3641e-06,0
4.0188,-1.9303e-05,0
4.0194,-3.0381e-05,0
4.0199,-3.508e-05,0
4.0204,-3.4241e-05,0
4.0209,-2.887e-05,0
4.0214,-2.6352e-05,0
4.022,-2.9709e-05,0
4.0225,-3.122e-05,0
4.023,-3.0549e-05,0
4.0235,-3.3738e-05,0
4.024,-3.8941e-05,0
4.0246,-4.1291e-05,0
4.0251,-4.3641e-05,0
4.0256,-4.8508e-05,0
4.0261,-5.5558e-05,0
4.0266,-6.8482e-05,0
4.0272,-8.7617e-05,0
4.0277,-0.0001039,0
4.0282,-0.00011028,0
4.0287,-0.00010692,0
4.0292,-9.7017e-05,0
4.0297,-8.1071e-05,0
4.0303,-5.623e-05,0
4.0308,-2.7024e-05,0
4.0313,1.8463e-06,0
4.0318,3.2395e-05,0
4.0323,6.4286e-05,0
4.0329,9.5506e-05,0
4.0334,0.00012337,0
4.0339,0.00014183,0
4.0344,0.00014687,0
4.0349,0.0001373,0
4.0355,0.00012236,0
4.036,0.00011229,0
4.0365,0.00010726,0
4.037,0.00010658,0
4.0375,0.00010591,0
4.0381,0.00010188,0
4.0386,9.4835e-05,0
4.0391,8.661e-05,0
4.0396,7.6371e-05,0
4.0401,6.3615e-05,0
4.0407,4.9012e-05,0
4.0412,3.7095e-05,0
4.0417,3.2563e-05,0
4.0422,3.2059e-05,0
4.0427,3.3402e-05,0
4.0432,3.6088e-05,0
4.0438,3.7095e-05,0
4.0443,3.1724e-05,0
4.0448,2.4674e-05,0
4.0453,2.266e-05,0
4.0458,2.7359e-05,0
4.0464,3.1388e-05,0
4.0469,2.7863e-05,0
4.0474,1.8296e-05,0
4.0479,1.1078e-05,0
4.0484,1.0407e-05,0
4.049,1.3931e-05,0
4.0495,1.8631e-05,0
4.05,2.0645e-05,0
4.0505,2.1149e-05,0
4.051,2.3163e-05,0
4.0516,2.8534e-05,0
4.0521,3.508e-05,0
4.0526,3.7263e-05,0
4.0531,3.8437e-05,0
4.0536,4.2802e-05,0
4.0542,4.7166e-05,0
4.0547,4.8508e-05,0
4.0552,5.0187e-05,0
4.0557,5.0187e-05,0
4.0562,4.4816e-05,0
4.0568,3.5248e-05,0
4.0573,2.6688e-05,0
4.0578,2.2324e-05,0
4.0583,1.8631e-05,0
4.0588,1.4771e-05,0
4.0593,1.1246e-05,0
4.0599,6.714e-06,0
4.0604,2.3499e-06,0
4.0609,5.0355e-07,0
4.0614,1.5106e-06,0
4.0619,2.8534e-06,0
4.0625,2.182e-06,0
4.063,-2.0142e-06,0
4.0635,-4.6998e-06,0
4.064,-1.5106e-06,0
4.0645,3.357e-06,0
4.0651,6.3783e-06,0
4.0656,6.3783e-06,0
4.0661,4.1962e-06,0
4.0666,4.1962e-06,0
4.0671,7.7211e-06,0
4.0677,1.2589e-05,0
4.0682,1.6449e-05,0
4.0687,2.031e-05,0
4.0692,2.4338e-05,0
4.0697,2.6688e-05,0
4.0702,2.8534e-05,0
4.0708,2.8367e-05,0
4.0713,2.3835e-05,0
4.0718,1.5946e-05,0
4.0723,7.8889e-06,0
4.0728,1.5106e-06,0
4.0734,-4.8676e-06,0
4.0739,-7.8889e-06,0
4.0744,-6.8818e-06,0
4.0749,-3.5248e-06,0
4.0754,-3.357e-07,0
4.076,8.3925e-07,0
4.0765,1.8463e-06,0
4.077,2.8534e-06,0
4.0775,3.8605e-06,0
4.078,4.1962e-06,0
4.0786,3.6927e-06,0
4.0791,6.0426e-06,0
4.0796,1.2757e-05,0
4.0801,2.2995e-05,0
4.0806,3.6423e-05,0
4.0812,5.0187e-05,0
4.0817,5.7908e-05,0
4.0822,5.7237e-05,0
4.0827,5.1865e-05,0
4.0832,4.7333e-05,0
4.0838,4.2802e-05,0
4.0843,3.5248e-05,0
4.0848,2.2156e-05,0
4.0853,4.8676e-06,0
4.0858,-1.3596e-05,0
4.0863,-2.9206e-05,0
4.0869,-4.0452e-05,0
4.0874,-4.4144e-05,0
4.0879,-3.4073e-05,0
4.0884,-1.4435e-05,0
4.0889,-5.0355e-07,0
4.0895,0,0
4.09,1.6785e-07,0
4.0905,1.091e-05,0
4.091,2.8367e-05,0
4.0915,4.5487e-05,0
4.0921,5.9419e-05,0
4.0926,6.8986e-05,0
4.0931,7.805e-05,0
4.0936,9.1142e-05,0
4.0941,0.00010356,0
4.0947,0.00010172,0
4.0952,7.9728e-05,0
4.0957,4.4144e-05,0
4.0962,1.3428e-05,0
4.0967,-8.3925e-07,0
4.0972,1.8463e-06,0
4.0978,7.0497e-06,0
4.0983,4.8676e-06,0
4.0988,5.0355e-07,0
4.0993,1.6785e-07,0
4.0998,5.8747e-06,0
4.1004,9.9031e-06,0
4.1009,8.2246e-06,0
4.1014,1.8463e-06,0
4.1019,-6.2104e-06,0
4.1024,-1.326e-05,0
4.103,-1.6114e-05,0
4.1035,-1.8296e-05,0
4.104,-2.3331e-05,0
4.1045,-3.1388e-05,0
4.105,-4.2298e-05,0
4.1056,-5.1865e-05,0
4.1061,-5.7237e-05,0
4.1066,-5.4719e-05,0
4.1071,-4.4816e-05,0
4.1076,-2.9709e-05,0
4.1082,-1.1917e-05,0
4.1087,2.5177e-06,0
4.1092,1.3596e-05,0
4.1097,2.266e-05,0
4.1102,3.3402e-05,0
4.1108,4.8844e-05,0
4.1113,6.9322e-05,0
4.1118,9.0806e-05,0
4.1123,0.00010809,0
4.1128,0.00011666,0
4.1133,0.00011766,0
4.1139,0.00011397,0
4.1144,0.00010977,0
4.1149,0.00010088,0
4.1154,8.5771e-05,0
4.1159,7.0161e-05,0
4.1165,5.7572e-05,0
4.117,4.9012e-05,0
4.1175,4.3809e-05,0
4.118,3.9445e-05,0
4.1185,3.743e-05,0
4.1191,3.2395e-05,0
4.1196,2.0813e-05,0
4.1201,7.8889e-06,0
4.1206,-1.8463e-06,0
4.1211,-5.2033e-06,0
4.1217,-5.0355e-06,0
4.1222,-3.8605e-06,0
4.1227,-4.6998e-06,0
4.1232,-9.2317e-06,0
4.1237,-1.3931e-05,0
4.1242,-1.5106e-05,0
4.1248,-1.2589e-05,0
4.1253,-1.0239e-05,0
4.1258,-8.5603e-06,0
4.1263,-6.0426e-06,0
4.1268,-8.3925e-07,0
4.1274,7.7211e-06,0
4.1279,1.8967e-05,0
4.1284,2.9374e-05,0
4.1289,3.4745e-05,0
4.1294,3.4073e-05,0
4.13,3.1052e-05,0
4.1305,2.4338e-05,0
4.131,1.2924e-05,0
4.1315,3.357e-07,0
4.132,-1.0407e-05,0
4.1326,-1.5946e-05,0
4.1331,-1.7624e-05,0
4.1336,-1.4267e-05,0
4.1341,-7.3854e-06,0
4.1346,-3.6927e-06,0
4.1352,-4.8676e-06,0
4.1357,-2.5177e-06,0
4.1362,7.3854e-06,0
4.1367,2.0478e-05,0
4.1372,3.0045e-05,0
4.1377,3.592e-05,0
4.1383,4.2802e-05,0
4.1388,5.2873e-05,0
4.1393,6.2608e-05,0
4.1398,6.8315e-05,0
4.1403,6.8315e-05,0
4.1409,6.1936e-05,0
4.1414,4.9851e-05,0
4.1419,3.4409e-05,0
4.1424,1.8296e-05,0
4.1429,3.8605e-06,0
4.1435,-6.5461e-06,0
4.144,-1.4267e-05,0
4.1445,-2.1149e-05,0
4.145,-2.2995e-05,0
4.1455,-1.5274e-05,0
4.1461,-2.6856e-06,0
4.1466,5.2033e-06,0
4.1471,1.0071e-05,0
4.1476,1.4603e-05,0
4.1481,1.8631e-05,0
4.1487,2.031e-05,0
4.1492,2.031e-05,0
4.1497,1.7792e-05,0
4.1502,8.5603e-06,0
4.1507,-3.0213e-06,0
4.1513,-7.8889e-06,0
4.1518,-3.8605e-06,0
4.1523,7.0497e-06,0
4.1528,2.2324e-05,0
4.1533,3.8437e-05,0
4.1538,5.4887e-05,0
4.1544,6.7979e-05,0
4.1549,7.3686e-05,0
4.1554,7.5868e-05,0
4.1559,7.6707e-05,0
4.1564,7.8553e-05,0
4.157,8.4092e-05,0
4.1575,9.0303e-05,0
4.158,9.2317e-05,0
4.1585,8.5435e-05,0
4.159,7.335e-05,0
4.1596,5.9251e-05,0
4.1601,4.7166e-05,0
4.1606,4.0116e-05,0
4.1611,3.9445e-05,0
4.1616,3.9445e-05,0
4.1622,3.1388e-05,0
4.1627,1.1414e-05,0
4.1632,-1.2253e-05,0
4.1637,-2.7024e-05,0
4.1642,-2.9877e-05,0
4.1647,-2.7024e-05,0
4.1653,-1.9974e-05,0
4.1658,-7.5532e-06,0
4.1663,8.5603e-06,0
4.1668,1.6785e-05,0
4.1673,1.326e-05,0
4.1679,7.0497e-06,0
4.1684,2.8534e-06,0
4.1689,1.0071e-06,0
4.1694,1.5106e-06,0
4.1699,2.5177e-06,0
4.1705,-1.1749e-06,0
4.171,-6.2104e-06,0
4.1715,-7.8889e-06,0
4.172,-4.1962e-06,0
4.1725,1.5106e-06,0
4.1731,1.5106e-06,0
4.1736,-6.8818e-06,0
4.1741,-2.0478e-05,0
4.1746,-3.3906e-05,0
4.1751,-3.978e-05,0
4.1757,-3.508e-05,0
4.1762,-2.4338e-05,0
4.1767,-1.2589e-05,0
4.1772,-2.182e-06,0
4.1777,5.8747e-06,0
4.1783,1.3092e-05,0
4.1788,1.8463e-05,0
4.1793,2.1149e-05,0
4.1798,2.1149e-05,0
4.1803,1.9806e-05,0
4.1808,1.8631e-05,0
4.1814,2.0813e-05,0
4.1819,2.9374e-05,0
4.1824,4.2634e-05,0
4.1829,5.5894e-05,0
4.1834,6.3447e-05,0
4.184,6.63e-05,0
4.1845,7.2343e-05,0
4.185,8.3589e-05,0
4.1855,8.8792e-05,0
4.186,8.3757e-05,0
4.1866,7.1672e-05,0
4.1871,5.8579e-05,0
4.1876,4.8676e-05,0
4.1881,4.0116e-05,0
4.1886,3.0381e-05,0
4.1892,1.6953e-05,0
4.1897,1.8463e-06,0
4.1902,-1.1917e-05,0
4.1907,-2.2995e-05,0
4.1912,-3.1052e-05,0
4.1917,-3.6759e-05,0
4.1923,-3.8437e-05,0
4.1928,-3.4913e-05,0
4.1933,-2.9374e-05,0
4.1938,-2.4674e-05,0
4.1943,-2.182e-05,0
4.1949,-1.9638e-05,0
4.1954,-1.4435e-05,0
4.1959,-6.8818e-06,0
4.1964,1.5106e-06,0
4.1969,7.7211e-06,0
4.1975,1.091e-05,0
4.198,1.2253e-05,0
4.1985,1.3596e-05,0
4.199,1.9974e-05,0
4.1995,2.8031e-05,0
4.2001,3.357e-05,0
4.2006,3.5248e-05,0
4.2011,3.4745e-05,0
4.2016,3.4409e-05,0
4.2021,3.7095e-05,0
4.2027,4.2802e-05,0
4.2032,4.6662e-05,0
4.2037,4.2466e-05,0
4.2042,3.2059e-05,0
4.2047,2.3331e-05,0
4.2053,2.0478e-05,0
4.2058,2.4002e-05,0
4.2063,3.0549e-05,0
4.2068,3.2059e-05,0
4.2073,2.8534e-05,0
4.2078,2.5345e-05,0
4.2084,2.7695e-05,0
4.2089,4.0116e-05,0
4.2094,5.5558e-05,0
4.2099,6.0258e-05,0
4.2104,5.2033e-05,0
4.211,3.8102e-05,0
4.2115,2.7359e-05,0
4.212,2.1653e-05,0
4.2125,1.796e-05,0
4.213,1.7288e-05,0
4.2136,2.1317e-05,0
4.2141,2.6184e-05,0
4.2146,3.1724e-05,0
4.2151,3.8773e-05,0
4.2156,4.3137e-05,0
4.2162,4.6494e-05,0
4.2167,5.3544e-05,0
4.2172,6.3447e-05,0
4.2177,7.3014e-05,0
4.2182,7.7714e-05,0
4.2188,7.7379e-05,0
4.2193,7.4693e-05,0
4.2198,7.0329e-05,0
4.2203,5.9419e-05,0
4.2208,4.5151e-05,0
4.2213,3.0045e-05,0
4.2219,1.6449e-05,0
4.2224,6.5461e-06,0
4.2229,2.5177e-06,0
4.2234,4.5319e-06,0
4.2239,6.8818e-06,0
4.2245,7.2175e-06,0
4.225,8.2246e-06,0
4.2255,1.3596e-05,0
4.226,2.1653e-05,0
4.2265,2.4338e-05,0
4.2271,1.6449e-05,0
4.2276,5.0355e-07,0
4.2281,-1.3764e-05,0
4.2286,-2.4338e-05,0
4.2291,-3.2898e-05,0
4.2297,-4.0787e-05,0
4.2302,-4.8844e-05,0
4.2307,-5.3208e-05,0
4.2312,-5.0523e-05,0
4.2317,-4.5151e-05,0
4.2322,-4.5151e-05,0
4.2328,-4.8173e-05,0
4.2333,-4.3977e-05,0
4.2338,-2.9374e-05,0
4.2343,-1.1917e-05,0
4.2348,4.3641e-06,0
4.2354,2.3331e-05,0
4.2359,4.4648e-05,0
4.2364,6.3279e-05,0
4.2369,7.4861e-05,0
4.2374,7.7379e-05,0
4.238,7.2007e-05,0
4.2385,6.3615e-05,0
4.239,5.8915e-05,0
4.2395,5.4215e-05,0
4.24,4.2802e-05,0
4.2406,2.7695e-05,0
4.2411,1.5106e-05,0
4.2416,5.8747e-06,0
4.2421,1.1749e-06,0
4.2426,-1.1749e-06,0
4.2432,-3.1891e-06,0
4.2437,-4.1962e-06,0
4.2442,-6.8818e-06,0
4.2447,-1.1749e-05,0
4.2452,-1.5946e-05,0
4.2458,-1.5274e-05,0
4.2463,-1.1582e-05,0
4.2468,-5.8747e-06,0
4.2473,3.5248e-06,0
4.2478,1.3596e-05,0
4.2483,1.6785e-05,0
4.2489,1.5442e-05,0
4.2494,1.5946e-05,0
4.2499,1.8631e-05,0
4.2504,1.796e-05,0
4.2509,1.4435e-05,0
4.2515,1.326e-05,0
4.252,1.2589e-05,0
4.2525,1.4099e-05,0
4.253,1.7792e-05,0
4.2535,2.0478e-05,0
4.2541,1.9974e-05,0
4.2546,1.8631e-05,0
4.2551,2.1988e-05,0
4.2556,2.7695e-05,0
4.2561,2.9877e-05,0
4.2567,2.6352e-05,0
4.2572,2.0813e-05,0
4.2577,1.8128e-05,0
4.2582,1.7792e-05,0
4.2587,1.4771e-05,0
4.2592,1.091e-05,0
4.2598,1.1078e-05,0
4.2603,1.8296e-05,0
4.2608,3.1388e-05,0
4.2613,4.4144e-05,0
4.2618,4.8508e-05,0
4.2624,4.5151e-05,0
4.2629,3.978e-05,0
4.2634,3.1388e-05,0
4.2639,2.031e-05,0
4.2644,8.2246e-06,0
4.265,-5.0355e-06,0
4.2655,-1.4939e-05,0
4.266,-1.796e-05,0
4.2665,-1.2253e-05,0
4.267,-8.3925e-07,0
4.2676,1.2253e-05,0
4.2681,2.4002e-05,0
4.2686,3.6759e-05,0
4.2691,4.5151e-05,0
4.2696,4.8508e-05,0
4.2702,5.3544e-05,0
4.2707,6.1601e-05,0
4.2712,6.6972e-05,0
4.2717,6.7643e-05,0
4.2722,6.63e-05,0
4.2728,6.5629e-05,0
4.2733,6.6972e-05,0
4.2738,7.1e-05,0
4.2743,7.9057e-05,0
4.2748,8.7114e-05,0
4.2753,9.2149e-05,0
4.2759,9.1142e-05,0
4.2764,8.4932e-05,0
4.2769,7.4861e-05,0
4.2774,5.8579e-05,0
4.2779,3.8773e-05,0
4.2785,2.1149e-05,0
4.279,5.7069e-06,0
4.2795,-9.5674e-06,0
4.28,-2.3163e-05,0
4.2805,-3.3906e-05,0
4.2811,-4.3137e-05,0
4.2816,-4.683e-05,0
4.2821,-3.9109e-05,0
4.2826,-2.266e-05,0
4.2831,-4.8676e-06,0
4.2837,8.5603e-06,0
4.2842,1.8296e-05,0
4.2847,2.7024e-05,0
4.2852,3.508e-05,0
4.2857,4.0116e-05,0
4.2862,3.978e-05,0
4.2868,3.6927e-05,0
4.2873,3.592e-05,0
4.2878,3.8437e-05,0
4.2883,4.0284e-05,0
4.2888,3.3402e-05,0
4.2894,1.8631e-05,0
4.2899,3.8605e-06,0
4.2904,-7.7211e-06,0
4.2909,-1.3764e-05,0
4.2914,-1.4939e-05,0
4.292,-1.1246e-05,0
4.2925,-7.7211e-06,0
4.293,-6.2104e-06,0
4.2935,-5.0355e-06,0
4.294,-3.357e-06,0
4.2946,-1.6785e-07,0
4.2951,3.0213e-06,0
4.2956,5.539e-06,0
4.2961,5.2033e-06,0
4.2966,-1.0071e-06,0
4.2972,-9.5674e-06,0
4.2977,-1.4939e-05,0
4.2982,-1.6281e-05,0
4.2987,-1.8631e-05,0
4.2992,-2.1988e-05,0
4.2998,-2.4338e-05,0
4.3003,-2.8702e-05,0
4.3008,-3.2898e-05,0
4.3013,-3.3738e-05,0
4.3018,-3.1724e-05,0
4.3023,-2.7527e-05,0
4.3029,-2.4002e-05,0
4.3034,-1.9974e-05,0
4.3039,-1.0575e-05,0
4.3044,3.5248e-06,0
4.3049,2.0813e-05,0
4.3055,3.978e-05,0
4.306,5.3544e-05,0
4.3065,5.8915e-05,0
4.307,5.774e-05,0
4.3075,5.8915e-05,0
4.3081,6.4958e-05,0
4.3086,7.2007e-05,0
4.3091,7.5029e-05,0
4.3096,7.5029e-05,0
4.3101,7.4861e-05,0
4.3107,7.3686e-05,0
4.3112,7.2007e-05,0
4.3117,7.3014e-05,0
4.3122,7.6204e-05,0
4.3127,7.7379e-05,0
4.3133,7.6371e-05,0
4.3138,7.57e-05,0
4.3143,7.5029e-05,0
4.3148,7.2343e-05,0
4.3153,6.2943e-05,0
4.3158,5.1865e-05,0
4.3164,4.2802e-05,0
4.3169,3.6423e-05,0
4.3174,2.9877e-05,0
4.3179,2.3331e-05,0
4.3184,1.6785e-05,0
4.319,1.3596e-05,0
4.3195,1.2924e-05,0
4.32,1.2924e-05,0
4.3205,1.1414e-05,0
4.321,7.8889e-06,0
4.3216,5.0355e-06,0
4.3221,6.2104e-06,0
4.3226,9.0639e-06,0
4.3231,1.1246e-05,0
4.3236,8.3925e-06,0
4.3242,-5.0355e-07,0
4.3247,-1.0071e-05,0
4.3252,-1.2757e-05,0
4.3257,-8.896e-06,0
4.3262,-4.6998e-06,0
4.3267,1.5106e-06,0
4.3273,1.4099e-05,0
4.3278,2.5345e-05,0
4.3283,2.9374e-05,0
4.3288,2.4674e-05,0
4.3293,1.9638e-05,0
4.3299,2.3667e-05,0
4.3304,3.2731e-05,0
4.3309,4.1123e-05,0
4.3314,4.4816e-05,0
4.3319,4.2466e-05,0
4.3325,3.3402e-05,0
4.333,1.9806e-05,0
4.3335,7.5532e-06,0
4.334,-5.0355e-07,0
4.3345,-5.539e-06,0
4.3351,-9.9031e-06,0
4.3356,-1.9303e-05,0
4.3361,-3.7934e-05,0
4.3366,-5.539e-05,0
4.3371,-6.4622e-05,0
4.3377,-6.7643e-05,0
4.3382,-7.0329e-05,0
4.3387,-7.2175e-05,0
4.3392,-6.6804e-05,0
4.3397,-4.7166e-05,0
4.3403,-1.7624e-05,0
4.3408,8.2246e-06,0
4.3413,2.8367e-05,0
4.3418,4.5487e-05,0
4.3423,6.1265e-05,0
4.3428,7.2175e-05,0
4.3434,7.6875e-05,0
4.3439,7.7043e-05,0
4.3444,7.335e-05,0
4.3449,6.9657e-05,0
4.3454,6.7643e-05,0
4.346,6.63e-05,0
4.3465,6.4286e-05,0
4.347,6.3279e-05,0
4.3475,6.2943e-05,0
4.348,6.1936e-05,0
4.3486,5.8244e-05,0
4.3491,5.0523e-05,0
4.3496,3.4073e-05,0
4.3501,1.1078e-05,0
4.3506,-9.3996e-06,0
4.3512,-2.2324e-05,0
4.3517,-3.1052e-05,0
4.3522,-3.4409e-05,0
4.3527,-3.0884e-05,0
4.3532,-2.031e-05,0
4.3537,-1.8463e-06,0
4.3543,2.4506e-05,0
4.3548,4.9516e-05,0
4.3553,6.1265e-05,0
4.3558,6.244e-05,0
4.3563,6.3615e-05,0
4.3569,6.5629e-05,0
4.3574,6.6133e-05,0
4.3579,6.2272e-05,0
4.3584,5.2537e-05,0
4.3589,3.6759e-05,0
4.3595,2.2156e-05,0
4.36,1.3931e-05,0
4.3605,6.2104e-06,0
4.361,-6.2104e-06,0
4.3615,-2.1653e-05,0
4.3621,-3.2395e-05,0
4.3626,-3.8102e-05,0
4.3631,-4.0452e-05,0
4.3636,-3.9109e-05,0
4.3641,-3.4913e-05,0
4.3647,-2.9709e-05,0
4.3652,-2.8031e-05,0
4.3657,-3.1052e-05,0
4.3662,-3.1052e-05,0
4.3667,-2.6017e-05,0
4.3673,-1.8296e-05,0
4.3678,-1.2924e-05,0
4.3683,-1.4267e-05,0
4.3688,-1.6785e-05,0
4.3693,-1.4435e-05,0
4.3698,-6.5461e-06,0
4.3704,2.182e-06,0
4.3709,7.5532e-06,0
4.3714,1.2924e-05,0
4.3719,1.7288e-05,0
4.3724,1.8631e-05,0
4.373,2.3331e-05,0
4.3735,3.3234e-05,0
4.374,4.062e-05,0
4.3745,4.3809e-05,0
4.375,4.8173e-05,0
4.3756,5.623e-05,0
4.3761,6.8986e-05,0
4.3766,8.2246e-05,0
4.3771,9.1142e-05,0
4.3776,9.5003e-05,0
4.3782,9.7856e-05,0
4.3787,0.00010356,0
4.3792,0.00011263,0
4.3797,0.00012035,0
4.3802,0.00012035,0
4.3807,0.00011162,0
4.3813,9.6513e-05,0
4.3818,7.9728e-05,0
4.3823,6.3951e-05,0
4.3828,5.153e-05,0
4.3833,4.1459e-05,0
4.3839,3.1052e-05,0
4.3844,2.1317e-05,0
4.3849,1.3931e-05,0
4.3854,9.2317e-06,0
4.3859,4.3641e-06,0
4.3865,-3.0213e-06,0
4.387,-7.5532e-06,0
4.3875,-6.3783e-06,0
4.388,-2.0142e-06,0
4.3885,1.8463e-06,0
4.3891,6.2104e-06,0
4.3896,1.3596e-05,0
4.3901,2.266e-05,0
4.3906,3.0045e-05,0
4.3911,3.3402e-05,0
4.3917,3.0716e-05,0
4.3922,2.2156e-05,0
4.3927,1.4603e-05,0
4.3932,1.2924e-05,0
4.3937,1.2589e-05,0
4.3943,1.091e-05,0
4.3948,1.4603e-05,0
4.3953,2.6017e-05,0
4.3958,3.5416e-05,0
4.3963,3.9109e-05,0
4.3968,3.8773e-05,0
4.3974,3.827e-05,0
4.3979,3.8605e-05,0
4.3984,3.7095e-05,0
4.3989,3.0045e-05,0
4.3994,1.8967e-05,0
4.4,5.8747e-06,0
4.4005,-7.8889e-06,0
4.401,-1.6281e-05,0
4.4015,-1.4939e-05,0
4.402,-6.2104e-06,0
4.4026,3.357e-06,0
4.4031,9.9031e-06,0
4.4036,2.1317e-05,0
4.4041,3.9109e-05,0
4.4046,5.6901e-05,0
4.4052,6.9993e-05,0
4.4057,7.6204e-05,0
4.4062,7.2343e-05,0
4.4067,5.6901e-05,0
4.4072,3.4241e-05,0
4.4078,4.8676e-06,0
4.4083,-2.8367e-05,0
4.4088,-5.7572e-05,0
4.4093,-7.5532e-05,0
4.4098,-7.9728e-05,0
4.4103,-7.6875e-05,0
4.4109,-7.0161e-05,0
4.4114,-5.7572e-05,0
4.4119,-4.7166e-05,0
4.4124,-3.9445e-05,0
4.4129,-2.887e-05,0
4.4135,-1.561e-05,0
4.414,-2.182e-06,0
4.4145,1.0239e-05,0
4.415,1.9135e-05,0
4.4155,2.501e-05,0
4.4161,2.9877e-05,0
4.4166,3.2898e-05,0
4.4171,3.1388e-05,0
4.4176,2.3331e-05,0
4.4181,1.7288e-05,0
4.4187,1.8128e-05,0
4.4192,2.2156e-05,0
4.4197,2.6688e-05,0
4.4202,2.9038e-05,0
4.4207,3.3066e-05,0
4.4212,4.4144e-05,0
4.4218,5.0187e-05,0
4.4223,4.2466e-05,0
4.4228,2.8702e-05,0
4.4233,1.8631e-05,0
4.4238,1.5778e-05,0
4.4244,1.8463e-05,0
4.4249,2.031e-05,0
4.4254,1.8967e-05,0
4.4259,1.6281e-05,0
4.4264,1.1246e-05,0
4.427,1.6785e-06,0
4.4275,-9.5674e-06,0
4.428,-1.2757e-05,0
4.4285,-6.2104e-06,0
4.429,1.8463e-06,0
4.4296,7.2175e-06,0
4.4301,1.326e-05,0
4.4306,2.1988e-05,0
4.4311,3.0045e-05,0
4.4316,3.4409e-05,0
4.4322,3.6088e-05,0
4.4327,4.1459e-05,0
4.4332,5.1865e-05,0
4.4337,6.1265e-05,0
4.4342,6.0258e-05,0
4.4348,5.0355e-05,0
4.4353,3.8102e-05,0
4.4358,2.6184e-05,0
4.4363,1.7456e-05,0
4.4368,1.6114e-05,0
4.4373,2.1317e-05,0
4.4379,3.0381e-05,0
4.4384,3.8437e-05,0
4.4389,4.0116e-05,0
4.4394,3.5416e-05,0
4.4399,3.0716e-05,0
4.4405,2.6352e-05,0
4.441,2.182e-05,0
4.4415,1.5946e-05,0
4.442,1.1246e-05,0
4.4425,1.1582e-05,0
4.4431,1.326e-05,0
4.4436,1.6617e-05,0
4.4441,2.266e-05,0
4.4446,2.8702e-05,0
4.4451,3.5584e-05,0
4.4457,3.6759e-05,0
4.4462,2.8367e-05,0
4.4467,1.5778e-05,0
4.4472,6.2104e-06,0
4.4477,4.5319e-06,0
4.4482,1.1917e-05,0
4.4488,2.1317e-05,0
4.4493,2.6017e-05,0
4.4498,2.6688e-05,0
4.4503,2.8199e-05,0
4.4508,3.3066e-05,0
4.4514,3.9445e-05,0
4.4519,4.3809e-05,0
4.4524,4.5319e-05,0
4.4529,4.5823e-05,0
4.4534,4.7837e-05,0
4.454,4.4984e-05,0
4.4545,2.8367e-05,0
4.455,5.539e-06,0
4.4555,-9.2317e-06,0
4.456,-1.326e-05,0
4.4566,-1.3596e-05,0
4.4571,-1.4771e-05,0
4.4576,-1.5946e-05,0
4.4581,-1.7792e-05,0
4.4586,-1.9638e-05,0
4.4592,-1.6281e-05,0
4.4597,-9.2317e-06,0
4.4602,-5.2033e-06,0
4.4607,-5.7069e-06,0
4.4612,-5.0355e-06,0
4.4618,2.5177e-06,0
4.4623,1.1917e-05,0
4.4628,1.9638e-05,0
4.4633,2.5345e-05,0
4.4638,3.1724e-05,0
4.4643,3.9445e-05,0
4.4649,4.7166e-05,0
4.4654,5.5894e-05,0
4.4659,6.6972e-05,0
4.4664,7.5029e-05,0
4.4669,7.2343e-05,0
4.4675,5.7572e-05,0
4.468,3.6759e-05,0
4.4685,1.8967e-05,0
4.469,9.7353e-06,0
4.4695,2.8534e-06,0
4.4701,-3.1891e-06,0
4.4706,-7.7211e-06,0
4.4711,-1.2589e-05,0
4.4716,-1.561e-05,0
4.4721,-1.0407e-05,0
4.4727,-6.714e-07,0
4.4732,7.5532e-06,0
4.4737,2.031e-05,0
4.4742,4.0284e-05,0
4.4747,6.1601e-05,0
4.4752,7.4693e-05,0
4.4758,7.3518e-05,0
4.4763,6.0258e-05,0
4.4768,4.3641e-05,0
4.4773,3.3066e-05,0
4.4778,2.5177e-05,0
4.4784,9.9031e-06,0
4.4789,-3.0213e-06,0
4.4794,-1.6785e-06,0
4.4799,5.8747e-06,0
4.4804,8.3925e-07,0
4.481,-1.8631e-05,0
4.4815,-3.7766e-05,0
4.482,-4.8341e-05,0
4.4825,-5.5222e-05,0
4.483,-6.2272e-05,0
4.4836,-6.4958e-05,0
4.4841,-6.0426e-05,0
4.4846,-5.2201e-05,0
4.4851,-4.7669e-05,0
4.4856,-4.5991e-05,0
4.4862,-4.2466e-05,0
4.4867,-3.1724e-05,0
4.4872,-1.1246e-05,0
4.4877,1.561e-05,0
4.4882,3.9948e-05,0
4.4887,5.8915e-05,0
4.4893,7.1672e-05,0
4.4898,7.3014e-05,0
4.4903,6.3615e-05,0
4.4908,5.2705e-05,0
4.4913,4.5487e-05,0
4.4919,3.8437e-05,0
4.4924,3.0884e-05,0
4.4929,2.8534e-05,0
4.4934,3.1891e-05,0
4.4939,4.2634e-05,0
4.4945,5.6565e-05,0
4.495,6.4958e-05,0
4.4955,6.9993e-05,0
4.496,7.4693e-05,0
4.4965,7.9561e-05,0
4.4971,8.51e-05,0
4.4976,8.6107e-05,0
4.4981,8.1071e-05,0
4.4986,7.2343e-05,0
4.4991,6.9657e-05,0
4.4997,7.7211e-05,0
4.5002,8.04e-05,0
4.5007,7.3014e-05,0
4.5012,5.8915e-05,0
4.5017,4.1962e-05,0
4.5023,1.9638e-05,0
4.5028,-3.5248e-06,0
4.5033,-2.5177e-05,0
4.5038,-4.0452e-05,0
4.5043,-4.5823e-05,0
4.5048,-4.0787e-05,0
4.5054,-3.3402e-05,0
4.5059,-2.7024e-05,0
4.5064,-2.1317e-05,0
4.5069,-1.1582e-05,0
4.5074,2.182e-06,0
4.508,8.2246e-06,0
4.5085,5.8747e-06,0
4.509,1.8463e-06,0
4.5095,-1.1749e-06,0
4.51,-3.357e-06,0
4.5106,-1.1749e-06,0
4.5111,7.7211e-06,0
4.5116,2.182e-05,0
4.5121,3.5416e-05,0
4.5126,4.6494e-05,0
4.5132,5.4887e-05,0
4.5137,6.0594e-05,0
4.5142,6.6972e-05,0
4.5147,7.4525e-05,0
4.5152,7.6036e-05,0
4.5157,6.7308e-05,0
4.5163,5.6062e-05,0
4.5168,4.6662e-05,0
4.5173,3.8102e-05,0
4.5178,3.2731e-05,0
4.5183,3.3234e-05,0
4.5189,3.6423e-05,0
4.5194,3.6423e-05,0
4.5199,3.4409e-05,0
4.5204,3.2059e-05,0
4.5209,3.1052e-05,0
4.5215,2.9709e-05,0
4.522,2.2995e-05,0
4.5225,1.0239e-05,0
4.523,-8.3925e-07,0
4.5235,-5.2033e-06,0
4.5241,-3.5248e-06,0
4.5246,-1.3428e-06,0
4.5251,-4.3641e-06,0
4.5256,-1.1917e-05,0
4.5261,-2.0981e-05,0
4.5267,-2.7192e-05,0
4.5272,-2.8367e-05,0
4.5277,-2.6688e-05,0
4.5282,-2.266e-05,0
4.5287,-1.8463e-05,0
4.5293,-1.4435e-05,0
4.5298,-1.1414e-05,0
4.5303,-5.8747e-06,0
4.5308,3.357e-06,0
4.5313,1.2589e-05,0
4.5318,1.7288e-05,0
4.5324,1.326e-05,0
4.5329,3.6927e-06,0
4.5334,-5.539e-06,0
4.5339,-9.0639e-06,0
4.5344,-7.7211e-06,0
4.535,1.6785e-07,0
4.5355,1.4603e-05,0
4.536,2.4674e-05,0
4.5365,2.6017e-05,0
4.537,2.4338e-05,0
4.5376,2.1317e-05,0
4.5381,1.4267e-05,0
4.5386,5.2033e-06,0
4.5391,2.5177e-06,0
4.5396,1.5946e-05,0
4.5402,3.8437e-05,0
4.5407,5.3376e-05,0
4.5412,5.8915e-05,0
4.5417,6.0929e-05,0
4.5422,6.3279e-05,0
4.5427,6.6133e-05,0
4.5433,6.479e-05,0
4.5438,5.3376e-05,0
4.5443,3.743e-05,0
4.5448,2.6017e-05,0
4.5453,2.6017e-05,0
4.5459,3.8102e-05,0
4.5464,4.7837e-05,0
4.5469,5.0858e-05,0
4.5474,5.2033e-05,0
4.5479,5.2705e-05,0
4.5485,5.0858e-05,0
4.549,4.5319e-05,0
4.5495,3.7095e-05,0
4.55,2.9206e-05,0
4.5505,2.0981e-05,0
4.5511,1.4603e-05,0
4.5516,5.2033e-06,0
4.5521,-1.0407e-05,0
4.5526,-2.8534e-05,0
4.5531,-3.9109e-05,0
4.5537,-4.1291e-05,0
4.5542,-3.7766e-05,0
4.5547,-2.887e-05,0
4.5552,-1.796e-05,0
4.5557,-8.2246e-06,0
4.5563,2.8534e-06,0
4.5568,1.6617e-05,0
4.5573,2.5681e-05,0
4.5578,2.6352e-05,0
4.5583,2.7527e-05,0
4.5588,3.508e-05,0
4.5594,4.1459e-05,0
4.5599,3.9445e-05,0
4.5604,3.4409e-05,0
4.5609,3.4913e-05,0
4.5614,4.0116e-05,0
4.562,4.3809e-05,0
4.5625,4.0116e-05,0
4.563,3.2059e-05,0
4.5635,2.7527e-05,0
4.564,3.0716e-05,0
4.5646,3.6759e-05,0
4.5651,3.978e-05,0
4.5656,4.0116e-05,0
4.5661,3.743e-05,0
4.5666,3.2898e-05,0
4.5672,3.2563e-05,0
4.5677,4.1459e-05,0
4.5682,5.2033e-05,0
4.5687,5.3376e-05,0
4.5692,4.6998e-05,0
4.5697,4.4312e-05,0
4.5703,4.6494e-05,0
4.5708,4.8173e-05,0
4.5713,4.6662e-05,0
4.5718,4.2466e-05,0
4.5723,3.743e-05,0
4.5729,3.3738e-05,0
4.5734,2.6688e-05,0
4.5739,1.4603e-05,0
4.5744,2.5177e-06,0
4.5749,-5.8747e-06,0
4.5755,-9.2317e-06,0
4.576,-6.8818e-06,0
4.5765,-3.0213e-06,0
4.577,-3.1891e-06,0
4.5775,-8.3925e-06,0
4.5781,-2.2324e-05,0
4.5786,-4.1123e-05,0
4.5791,-5.4383e-05,0
4.5796,-5.4047e-05,0
4.5801,-4.3473e-05,0
4.5807,-3.0213e-05,0
4.5812,-1.3596e-05,0
4.5817,3.5248e-06,0
4.5822,1.2924e-05,0
4.5827,1.4099e-05,0
4.5832,1.1078e-05,0
4.5838,1.1246e-05,0
4.5843,1.5274e-05,0
4.5848,1.5778e-05,0
4.5853,1.091e-05,0
4.5858,1.0575e-05,0
4.5864,1.5946e-05,0
4.5869,1.3092e-05,0
4.5874,2.5177e-06,0
4.5879,-3.6927e-06,0
4.5884,5.0355e-07,0
4.589,1.2924e-05,0
4.5895,2.5177e-05,0
4.59,3.508e-05,0
4.5905,4.3977e-05,0
4.591,5.1362e-05,0
4.5916,5.3544e-05,0
4.5921,4.8173e-05,0
4.5926,4.448e-05,0
4.5931,4.8173e-05,0
4.5936,5.4215e-05,0
4.5942,5.8244e-05,0
4.5947,5.6062e-05,0
4.5952,5.0858e-05,0
4.5957,5.2033e-05,0
4.5962,5.9922e-05,0
4.5968,6.1601e-05,0
4.5973,5.2033e-05,0
4.5978,3.6759e-05,0
4.5983,2.3163e-05,0
4.5988,1.8967e-05,0
4.5993,2.182e-05,0
4.5999,2.3667e-05,0
4.6004,2.0478e-05,0
4.6009,1.5442e-05,0
4.6014,1.2253e-05,0
4.6019,9.9031e-06,0
4.6025,7.0497e-06,0
4.603,2.5177e-06,0
4.6035,-8.3925e-07,0
4.604,-5.0355e-07,0
4.6045,3.0213e-06,0
4.6051,7.7211e-06,0
4.6056,9.9031e-06,0
4.6061,1.0575e-05,0
4.6066,1.1917e-05,0
4.6071,1.4939e-05,0
4.6077,1.5946e-05,0
4.6082,1.5946e-05,0
4.6087,1.561e-05,0
4.6092,1.1917e-05,0
4.6097,9.2317e-06,0
4.6102,9.9031e-06,0
4.6108,1.5442e-05,0
4.6113,2.0813e-05,0
4.6118,2.4674e-05,0
4.6123,2.8031e-05,0
4.6128,2.9709e-05,0
4.6134,3.0716e-05,0
4.6139,3.0213e-05,0
4.6144,2.8702e-05,0
4.6149,3.0716e-05,0
4.6154,3.8102e-05,0
4.616,4.7501e-05,0
4.6165,5.5894e-05,0
4.617,5.8915e-05,0
4.6175,5.5222e-05,0
4.618,5.0858e-05,0
4.6186,4.4648e-05,0
4.6191,3.1052e-05,0
4.6196,1.0071e-05,0
4.6201,-1.091e-05,0
4.6206,-2.9038e-05,0
4.6212,-4.4984e-05,0
4.6217,-5.6062e-05,0
4.6222,-5.7908e-05,0
4.6227,-5.0523e-05,0
4.6232,-3.978e-05,0
4.6238,-2.7192e-05,0
4.6243,-1.3764e-05,0
4.6248,8.3925e-07,0
4.6253,1.3931e-05,0
4.6258,2.0981e-05,0
4.6263,2.7695e-05,0
4.6269,3.743e-05,0
4.6274,4.4144e-05,0
4.6279,4.3809e-05,0
4.6284,4.0787e-05,0
4.6289,3.7766e-05,0
4.6295,3.4745e-05,0
4.63,3.0716e-05,0
4.6305,2.7695e-05,0
4.631,2.2492e-05,0
4.6315,1.5778e-05,0
4.6321,1.1917e-05,0
4.6326,1.0575e-05,0
4.6331,1.1582e-05,0
4.6336,1.5778e-05,0
4.6341,2.1988e-05,0
4.6347,2.6352e-05,0
4.6352,2.1149e-05,0
4.6357,1.2421e-05,0
4.6362,9.9031e-06,0
4.6367,1.5106e-05,0
4.6372,2.1988e-05,0
4.6378,2.9374e-05,0
4.6383,4.0116e-05,0
4.6388,5.2033e-05,0
4.6393,5.9251e-05,0
4.6398,5.9419e-05,0
4.6404,5.9419e-05,0
4.6409,6.2943e-05,0
4.6414,6.5461e-05,0
4.6419,6.0426e-05,0
4.6424,4.7166e-05,0
4.643,2.6184e-05,0
4.6435,6.5461e-06,0
4.644,-5.2033e-06,0
4.6445,-1.2253e-05,0
4.645,-1.6953e-05,0
4.6456,-1.9974e-05,0
4.6461,-2.0645e-05,0
4.6466,-1.6617e-05,0
4.6471,-1.1078e-05,0
4.6476,-3.5248e-06,0
4.6482,1.0575e-05,0
4.6487,3.1052e-05,0
4.6492,5.8915e-05,0
4.6497,8.8457e-05,0
4.6502,0.00010977,0
4.6508,0.00011733,0
4.6513,0.00011061,0
4.6518,9.2149e-05,0
4.6523,7.0665e-05,0
4.6528,5.4215e-05,0
4.6533,4.5319e-05,0
4.6539,4.0116e-05,0
4.6544,3.1052e-05,0
4.6549,1.4267e-05,0
4.6554,-5.8747e-06,0
4.6559,-2.7527e-05,0
4.6565,-4.8844e-05,0
4.657,-6.5126e-05,0
4.6575,-7.1672e-05,0
4.658,-6.8147e-05,0
4.6585,-5.6901e-05,0
4.6591,-3.8437e-05,0
4.6596,-1.3764e-05,0
4.6601,1.0407e-05,0
4.6606,2.0645e-05,0
4.6611,1.1582e-05,0
4.6617,-5.7069e-06,0
4.6622,-1.9303e-05,0
4.6627,-2.6352e-05,0
4.6632,-3.1388e-05,0
4.6637,-3.743e-05,0
4.6643,-4.0955e-05,0
4.6648,-3.7263e-05,0
4.6653,-2.5345e-05,0
4.6658,-9.5674e-06,0
4.6663,-5.0355e-07,0
4.6668,-2.3499e-06,0
4.6674,-7.8889e-06,0
4.6679,-6.8818e-06,0
4.6684,3.8605e-06,0
4.6689,2.2828e-05,0
4.6694,4.448e-05,0
4.67,6.0929e-05,0
4.6705,7.1672e-05,0
4.671,7.6371e-05,0
4.6715,7.4022e-05,0
4.672,6.5965e-05,0
4.6726,5.7572e-05,0
4.6731,5.069e-05,0
4.6736,4.7501e-05,0
4.6741,4.7166e-05,0
4.6746,4.7501e-05,0
4.6752,4.7166e-05,0
4.6757,4.6159e-05,0
4.6762,4.7837e-05,0
4.6767,5.0858e-05,0
4.6772,5.2537e-05,0
4.6777,5.153e-05,0
4.6783,4.918e-05,0
4.6788,4.6662e-05,0
4.6793,4.5151e-05,0
4.6798,4.3305e-05,0
4.6803,3.8941e-05,0
4.6809,3.3402e-05,0
4.6814,2.9709e-05,0
4.6819,2.7527e-05,0
4.6824,2.266e-05,0
4.6829,1.4603e-05,0
4.6835,5.8747e-06,0
4.684,-1.5106e-06,0
4.6845,-1.8463e-06,0
4.685,4.1962e-06,0
4.6855,1.3931e-05,0
4.6861,2.2324e-05,0
4.6866,2.8031e-05,0
4.6871,2.9374e-05,0
4.6876,2.8031e-05,0
4.6881,2.501e-05,0
4.6887,1.9806e-05,0
4.6892,1.6785e-05,0
4.6897,2.0142e-05,0
4.6902,2.4674e-05,0
4.6907,2.4002e-05,0
4.6913,1.9638e-05,0
4.6918,1.8463e-05,0
4.6923,2.2492e-05,0
4.6928,2.6688e-05,0
4.6933,2.9206e-05,0
4.6938,3.2395e-05,0
4.6944,3.743e-05,0
4.6949,4.0787e-05,0
4.6954,3.8605e-05,0
4.6959,3.3066e-05,0
4.6964,2.887e-05,0
4.697,2.7359e-05,0
4.6975,2.8702e-05,0
4.698,2.9877e-05,0
4.6985,2.887e-05,0
4.699,2.8702e-05,0
4.6996,3.1052e-05,0
4.7001,3.2731e-05,0
4.7006,3.6088e-05,0
4.7011,3.743e-05,0
4.7016,3.2731e-05,0
4.7022,2.5345e-05,0
4.7027,2.1317e-05,0
4.7032,2.0645e-05,0
4.7037,1.4099e-05,0
4.7042,-1.5106e-06,0
4.7047,-1.9974e-05,0
4.7053,-3.6591e-05,0
4.7058,-5.4551e-05,0
4.7063,-7.6036e-05,0
4.7068,-9.5506e-05,0
4.7073,-0.00010961,0
4.7079,-0.00011565,0
4.7084,-0.00010457,0
4.7089,-7.57e-05,0
4.7094,-4.2802e-05,0
4.7099,-2.0478e-05,0
4.7105,-9.2317e-06,0
4.711,0,0
4.7115,8.5603e-06,0
4.712,1.5274e-05,0
4.7125,1.8799e-05,0
4.7131,1.9303e-05,0
4.7136,1.9638e-05,0
4.7141,2.6688e-05,0
4.7146,4.3809e-05,0
4.7151,6.2776e-05,0
4.7157,6.8482e-05,0
4.7162,6.4622e-05,0
4.7167,5.5726e-05,0
4.7172,4.8005e-05,0
4.7177,4.5319e-05,0
4.7183,4.9516e-05,0
4.7188,5.6901e-05,0
4.7193,6.3951e-05,0
4.7198,6.7979e-05,0
4.7203,6.5461e-05,0
4.7208,5.6062e-05,0
4.7214,4.5151e-05,0
4.7219,4.5319e-05,0
4.7224,5.8915e-05,0
4.7229,7.0832e-05,0
4.7234,7.1504e-05,0
4.724,6.5629e-05,0
4.7245,6.479e-05,0
4.725,7.2175e-05,0
4.7255,8.7282e-05,0
4.726,0.00010692,0
4.7266,0.00012337,0
4.7271,0.00012958,0
4.7276,0.00012958,0
4.7281,0.00012404,0
4.7286,0.00011061,0
4.7292,8.7785e-05,0
4.7297,6.3447e-05,0
4.7302,4.1459e-05,0
4.7307,1.8296e-05,0
4.7312,-6.0426e-06,0
4.7317,-2.2324e-05,0
4.7323,-2.7863e-05,0
4.7328,-2.9374e-05,0
4.7333,-3.1724e-05,0
4.7338,-3.3738e-05,0
4.7343,-3.8605e-05,0
4.7349,-4.213e-05,0
4.7354,-3.7095e-05,0
4.7359,-2.6688e-05,0
4.7364,-2.031e-05,0
4.7369,-2.2156e-05,0
4.7375,-3.1891e-05,0
4.738,-4.6159e-05,0
4.7385,-5.4887e-05,0
4.739,-5.388e-05,0
4.7395,-4.8173e-05,0
4.7401,-4.0452e-05,0
4.7406,-3.0716e-05,0
4.7411,-2.2156e-05,0
4.7416,-1.4267e-05,0
4.7421,-3.8605e-06,0
4.7427,1.1582e-05,0
4.7432,2.5345e-05,0
4.7437,3.3402e-05,0
4.7442,3.6591e-05,0
4.7447,3.8102e-05,0
4.7453,3.827e-05,0
4.7458,3.4745e-05,0
4.7463,2.7359e-05,0
4.7468,1.8799e-05,0
4.7473,1.2924e-05,0
4.7478,8.7282e-06,0
4.7484,5.2033e-06,0
4.7489,3.0213e-06,0
4.7494,1.5106e-06,0
4.7499,-5.2033e-06,0
4.7504,-1.8967e-05,0
4.751,-3.4577e-05,0
4.7515,-4.3977e-05,0
4.752,-4.3137e-05,0
4.7525,-3.6759e-05,0
4.753,-2.7359e-05,0
4.7536,-1.3931e-05,0
4.7541,2.5177e-06,0
4.7546,2.0645e-05,0
4.7551,3.6759e-05,0
4.7556,4.9851e-05,0
4.7562,5.7572e-05,0
4.7567,5.8915e-05,0
4.7572,5.8579e-05,0
4.7577,6.0258e-05,0
4.7582,6.2272e-05,0
4.7588,6.4622e-05,0
4.7593,6.8986e-05,0
4.7598,7.1336e-05,0
4.7603,6.8147e-05,0
4.7608,6.3111e-05,0
4.7613,5.4887e-05,0
4.7619,4.5991e-05,0
4.7624,3.8773e-05,0
4.7629,3.3402e-05,0
4.7634,3.0381e-05,0
4.7639,3.1388e-05,0
4.7645,3.743e-05,0
4.765,4.7501e-05,0
4.7655,5.388e-05,0
4.766,5.0187e-05,0
4.7665,4.2802e-05,0
4.7671,3.8102e-05,0
4.7676,3.743e-05,0
4.7681,4.5487e-05,0
4.7686,5.6901e-05,0
4.7691,5.8579e-05,0
4.7697,5.0187e-05,0
4.7702,4.0116e-05,0
4.7707,3.0381e-05,0
4.7712,1.9303e-05,0
4.7717,1.0575e-05,0
4.7722,7.8889e-06,0
4.7728,1.1582e-05,0
4.7733,1.6449e-05,0
4.7738,1.8631e-05,0
4.7743,1.4099e-05,0
4.7748,3.1891e-06,0
4.7754,-9.5674e-06,0
4.7759,-1.5106e-05,0
4.7764,-1.2924e-05,0
4.7769,-8.2246e-06,0
4.7774,-5.539e-06,0
4.778,-6.3783e-06,0
4.7785,-7.3854e-06,0
4.779,-8.7282e-06,0
4.7795,-8.896e-06,0
4.78,-5.2033e-06,0
4.7806,-2.3499e-06,0
4.7811,-1.1749e-06,0
4.7816,2.5177e-06,0
4.7821,1.0575e-05,0
4.7826,1.8631e-05,0
4.7832,2.3331e-05,0
4.7837,3.0045e-05,0
4.7842,3.9109e-05,0
4.7847,4.448e-05,0
4.7852,4.5319e-05,0
4.7858,4.5319e-05,0
4.7863,4.2802e-05,0
4.7868,3.4241e-05,0
4.7873,2.0981e-05,0
4.7878,7.7211e-06,0
4.7883,-2.8534e-06,0
4.7889,-1.091e-05,0
4.7894,-1.6617e-05,0
4.7899,-1.9303e-05,0
4.7904,-1.8967e-05,0
4.7909,-1.4939e-05,0
4.7915,-8.7282e-06,0
4.792,-1.3428e-06,0
4.7925,7.2175e-06,0
4.793,1.9135e-05,0
4.7935,3.4409e-05,0
4.7941,5.0187e-05,0
4.7946,6.244e-05,0
4.7951,6.7308e-05,0
4.7956,6.6804e-05,0
4.7961,6.2776e-05,0
4.7967,5.6901e-05,0
4.7972,5.2201e-05,0
4.7977,4.9516e-05,0
4.7982,4.9516e-05,0
4.7987,4.8844e-05,0
4.7992,4.5823e-05,0
4.7998,4.0787e-05,0
4.8003,3.3402e-05,0
4.8008,2.5345e-05,0
4.8013,1.5946e-05,0
4.8018,8.896e-06,0
4.8024,5.2033e-06,0
4.8029,5.0355e-07,0
4.8034,-8.2246e-06,0
4.8039,-2.3163e-05,0
4.8044,-3.7934e-05,0
4.805,-4.5991e-05,0
4.8055,-4.8508e-05,0
4.806,-4.7669e-05,0
4.8065,-4.062e-05,0
4.807,-2.8199e-05,0
4.8076,-1.6281e-05,0
4.8081,-7.2175e-06,0
4.8086,2.182e-06,0
4.8091,1.1917e-05,0
4.8096,2.3499e-05,0
4.8102,3.6759e-05,0
4.8107,4.918e-05,0
4.8112,5.7237e-05,0
4.8117,6.1265e-05,0
4.8122,6.2104e-05,0
4.8128,6.1936e-05,0
4.8133,5.8915e-05,0
4.8138,5.3208e-05,0
4.8143,4.5991e-05,0
4.8148,4.0284e-05,0
4.8153,3.5584e-05,0
4.8159,2.9709e-05,0
4.8164,2.2156e-05,0
4.8169,1.6617e-05,0
4.8174,1.3596e-05,0
4.8179,1.0575e-05,0
4.8185,8.5603e-06,0
4.819,6.2104e-06,0
4.8195,5.0355e-06,0
4.82,3.8605e-06,0
4.8205,4.1962e-06,0
4.8211,7.5532e-06,0
4.8216,1.1246e-05,0
4.8221,1.4435e-05,0
4.8226,1.6281e-05,0
4.8231,1.4603e-05,0
4.8237,9.9031e-06,0
4.8242,8.2246e-06,0
4.8247,1.0575e-05,0
4.8252,1.561e-05,0
4.8257,1.9135e-05,0
4.8262,1.8631e-05,0
4.8268,1.6449e-05,0
4.8273,1.4435e-05,0
4.8278,1.2589e-05,0
4.8283,1.326e-05,0
4.8288,1.7792e-05,0
4.8294,2.4842e-05,0
4.8299,3.508e-05,0
4.8304,4.918e-05,0
4.8309,6.3279e-05,0
4.8314,7.4693e-05,0
4.832,8.3085e-05,0
4.8325,8.5771e-05,0
4.833,8.6275e-05,0
4.8335,8.5771e-05,0
4.834,8.2414e-05,0
4.8346,7.7546e-05,0
4.8351,7.4693e-05,0
4.8356,6.7308e-05,0
4.8361,4.9012e-05,0
4.8366,2.3331e-05,0
4.8372,-8.3925e-07,0
4.8377,-1.8128e-05,0
4.8382,-3.1891e-05,0
4.8387,-4.3809e-05,0
4.8392,-4.9851e-05,0
4.8398,-5.0858e-05,0
4.8403,-5.8747e-05,0
4.8408,-6.9993e-05,0
4.8413,-7.5532e-05,0
4.8418,-7.3182e-05,0
4.8423,-7.0832e-05,0
4.8429,-7.335e-05,0
4.8434,-8.2078e-05,0
4.8439,-9.1478e-05,0
4.8444,-9.836e-05,0
4.8449,-0.0001039,0
4.8455,-0.00010759,0
4.846,-0.00010692,0
4.8465,-0.00010088,0
4.847,-8.6778e-05,0
4.8475,-6.1601e-05,0
4.8481,-3.4073e-05,0
4.8486,-7.5532e-06,0
4.8491,1.5946e-05,0
4.8496,3.743e-05,0
4.8501,6.4286e-05,0
4.8507,9.9535e-05,0
4.8512,0.00013545,0
4.8517,0.00015677,0
4.8522,0.00015795,0
4.8527,0.00014536,0
4.8533,0.00013143,0
4.8538,0.00012992,0
4.8543,0.00013747,0
4.8548,0.0001462,0
4.8553,0.00014737,0
4.8558,0.00013982,0
4.8564,0.00013176,0
4.8569,0.00012505,0
4.8574,0.000118,0
4.8579,0.00010927,0
4.8584,9.8192e-05,0
4.859,8.4092e-05,0
4.8595,6.4958e-05,0
4.86,4.5151e-05,0
4.8605,2.9374e-05,0
4.861,1.6281e-05,0
4.8616,8.5603e-06,0
4.8621,8.0568e-06,0
4.8626,1.2757e-05,0
4.8631,1.4435e-05,0
4.8636,1.4267e-05,0
4.8642,1.326e-05,0
4.8647,9.9031e-06,0
4.8652,4.5319e-06,0
4.8657,-1.0071e-06,0
4.8662,-7.3854e-06,0
4.8667,-1.0239e-05,0
4.8673,-6.2104e-06,0
4.8678,-5.0355e-07,0
4.8683,5.539e-06,0
4.8688,1.0239e-05,0
4.8693,1.2589e-05,0
4.8699,1.796e-05,0
4.8704,2.4338e-05,0
4.8709,2.7359e-05,0
4.8714,2.6017e-05,0
4.8719,2.3331e-05,0
4.8725,1.796e-05,0
4.873,9.7353e-06,0
4.8735,3.1891e-06,0
4.874,2.182e-06,0
4.8745,5.2033e-06,0
4.8751,7.5532e-06,0
4.8756,8.3925e-06,0
4.8761,1.0575e-05,0
4.8766,1.4603e-05,0
4.8771,2.2492e-05,0
4.8777,3.508e-05,0
4.8782,4.5655e-05,0
4.8787,4.9851e-05,0
4.8792,5.1194e-05,0
4.8797,5.3208e-05,0
4.8803,5.6901e-05,0
4.8808,6.2272e-05,0
4.8813,6.8315e-05,0
4.8818,6.865e-05,0
4.8823,6.0929e-05,0
4.8828,5.0187e-05,0
4.8834,4.1291e-05,0
4.8839,3.3066e-05,0
4.8844,1.7624e-05,0
4.8849,-8.2246e-06,0
4.8854,-3.7766e-05,0
4.886,-5.7908e-05,0
4.8865,-6.4454e-05,0
4.887,-6.3447e-05,0
4.8875,-6.4958e-05,0
4.888,-7.4861e-05,0
4.8886,-9.3828e-05,0
4.8891,-0.00011263,0
4.8896,-0.00012035,0
4.8901,-0.00011531,0
4.8906,-9.8192e-05,0
4.8912,-7.8386e-05,0
4.8917,-6.0929e-05,0
4.8922,-4.3641e-05,0
4.8927,-2.7359e-05,0
4.8932,-1.3764e-05,0
4.8937,-2.3499e-06,0
4.8943,6.8818e-06,0
4.8948,1.3428e-05,0
4.8953,1.9135e-05,0
4.8958,2.4674e-05,0
4.8963,3.1388e-05,0
4.8969,4.062e-05,0
4.8974,5.1026e-05,0
4.8979,5.8579e-05,0
4.8984,6.1936e-05,0
4.8989,6.1601e-05,0
4.8995,5.9251e-05,0
4.9,5.8244e-05,0
4.9005,5.8579e-05,0
4.901,5.774e-05,0
4.9015,5.304e-05,0
4.9021,4.3473e-05,0
4.9026,3.122e-05,0
4.9031,2.266e-05,0
4.9036,2.0142e-05,0
4.9041,1.9135e-05,0
4.9047,1.5106e-05,0
4.9052,8.7282e-06,0
4.9057,4.0284e-06,0
4.9062,3.5248e-06,0
4.9067,1.1246e-05,0
4.9073,2.6688e-05,0
4.9078,4.2634e-05,0
4.9083,5.388e-05,0
4.9088,6.0594e-05,0
4.9093,6.4286e-05,0
4.9098,6.8986e-05,0
4.9104,8.1071e-05,0
4.9109,9.4163e-05,0
4.9114,9.7856e-05,0
4.9119,9.0639e-05,0
4.9124,7.6036e-05,0
4.913,5.8579e-05,0
4.9135,4.4816e-05,0
4.914,3.6759e-05,0
4.9145,3.122e-05,0
4.915,2.501e-05,0
4.9156,2.1317e-05,0
4.9161,2.4002e-05,0
4.9166,3.3234e-05,0
4.9171,4.448e-05,0
4.9176,5.2033e-05,0
4.9182,5.3376e-05,0
4.9187,5.2369e-05,0
4.9192,5.4215e-05,0
4.9197,5.5726e-05,0
4.9202,5.2705e-05,0
4.9207,5.0187e-05,0
4.9213,5.0523e-05,0
4.9218,5.0523e-05,0
4.9223,4.683e-05,0
4.9228,4.0116e-05,0
4.9233,3.2059e-05,0
4.9239,2.7695e-05,0
4.9244,2.5345e-05,0
4.9249,2.4002e-05,0
4.9254,2.2156e-05,0
4.9259,1.7121e-05,0
4.9265,1.1582e-05,0
4.927,4.1962e-06,0
4.9275,-6.5461e-06,0
4.928,-1.8296e-05,0
4.9285,-2.7024e-05,0
4.9291,-2.9877e-05,0
4.9296,-2.8031e-05,0
4.9301,-2.4506e-05,0
4.9306,-2.1653e-05,0
4.9311,-1.5778e-05,0
4.9317,-4.1962e-06,0
4.9322,8.7282e-06,0
4.9327,1.7288e-05,0
4.9332,2.0142e-05,0
4.9337,2.266e-05,0
4.9342,2.7863e-05,0
4.9348,3.4745e-05,0
4.9353,3.9109e-05,0
4.9358,3.5416e-05,0
4.9363,2.7359e-05,0
4.9368,1.9471e-05,0
4.9374,1.3931e-05,0
4.9379,7.5532e-06,0
4.9384,-4.1962e-06,0
4.9389,-1.9135e-05,0
4.9394,-2.9709e-05,0
4.94,-3.0884e-05,0
4.9405,-2.1988e-05,0
4.941,-5.539e-06,0
4.9415,1.1582e-05,0
4.942,2.1653e-05,0
4.9426,2.5345e-05,0
4.9431,2.9038e-05,0
4.9436,3.4073e-05,0
4.9441,3.6759e-05,0
4.9446,3.5248e-05,0
4.9452,3.122e-05,0
4.9457,2.3667e-05,0
4.9462,1.561e-05,0
4.9467,4.6998e-06,0
4.9472,-1.091e-05,0
4.9478,-2.6352e-05,0
4.9483,-3.6591e-05,0
4.9488,-4.3137e-05,0
4.9493,-4.5823e-05,0
4.9498,-4.3137e-05,0
4.9503,-3.3906e-05,0
4.9509,-2.1653e-05,0
4.9514,-1.2253e-05,0
4.9519,-1.0239e-05,0
4.9524,-8.896e-06,0
4.9529,1.5106e-06,0
4.9535,1.8631e-05,0
4.954,3.8605e-05,0
4.9545,5.5894e-05,0
4.955,6.3615e-05,0
4.9555,6.1936e-05,0
4.9561,5.8915e-05,0
4.9566,5.9922e-05,0
4.9571,6.6133e-05,0
4.9576,7.3014e-05,0
4.9581,7.6371e-05,0
4.9587,7.4189e-05,0
4.9592,6.3951e-05,0
4.9597,4.7333e-05,0
4.9602,3.1724e-05,0
4.9607,2.5681e-05,0
4.9612,2.9709e-05,0
4.9618,3.3738e-05,0
4.9623,3.1388e-05,0
4.9628,2.6688e-05,0
4.9633,2.5681e-05,0
4.9638,2.5345e-05,0
4.9644,2.0645e-05,0
4.9649,1.1582e-05,0
4.9654,4.3641e-06,0
4.9659,2.8534e-06,0
4.9664,5.539e-06,0
4.967,9.3996e-06,0
4.9675,1.2924e-05,0
4.968,1.5946e-05,0
4.9685,1.9638e-05,0
4.969,2.7192e-05,0
4.9696,3.9445e-05,0
4.9701,4.9348e-05,0
4.9706,5.1865e-05,0
4.9711,4.683e-05,0
4.9716,3.6927e-05,0
4.9722,2.5345e-05,0
4.9727,1.5274e-05,0
4.9732,5.539e-06,0
4.9737,-7.7211e-06,0
4.9742,-2.1653e-05,0
4.9748,-3.2563e-05,0
4.9753,-3.743e-05,0
4.9758,-3.3906e-05,0
4.9763,-2.1317e-05,0
4.9768,-6.2104e-06,0
4.9773,1.0071e-05,0
4.9779,3.508e-05,0
4.9784,6.63e-05,0
4.9789,9.1142e-05,0
4.9794,0.00010037,0
4.9799,8.8792e-05,0
4.9805,5.7572e-05,0
4.981,1.5946e-05,0
4.9815,-2.2324e-05,0
4.982,-4.918e-05,0
4.9825,-6.5461e-05,0
4.9831,-7.57e-05,0
4.9836,-7.6371e-05,0
4.9841,-6.3447e-05,0
4.9846,-4.1123e-05,0
4.9851,-1.6281e-05,0
4.9857,9.2317e-06,0
4.9862,3.2563e-05,0
4.9867,5.2201e-05,0
4.9872,6.865e-05,0
4.9877,7.7043e-05,0
4.9882,7.6371e-05,0
4.9888,6.9657e-05,0
4.9893,6.2943e-05,0
4.9898,5.6733e-05,0
4.9903,4.918e-05,0
4.9908,3.8437e-05,0
4.9914,2.7192e-05,0
4.9919,1.7624e-05,0
4.9924,8.896e-06,0
4.9929,1.8463e-06,0
4.9934,-1.6785e-07,0
4.994,1.5106e-06,0
4.9945,6.8818e-06,0
4.995,1.3596e-05,0
4.9955,2.0645e-05,0
4.996,2.7024e-05,0
4.9966,3.1556e-05,0
4.9971,3.4073e-05,0
4.9976,3.592e-05,0
4.9981,3.6927e-05,0
4.9986,3.978e-05,0
4.9992,4.6662e-05,0
4.9997,5.4047e-05,0
5.0002,5.9251e-05,0
5.0007,6.4286e-05,0
5.0012,6.6636e-05,0
5.0018,6.63e-05,0
5.0023,6.2272e-05,0
5.0028,5.1362e-05,0
5.0033,3.2395e-05,0
5.0038,8.3925e-06,0
5.0043,-1.4603e-05,0
5.0049,-2.8534e-05,0
5.0054,-3.508e-05,0
5.0059,-3.9445e-05,0
5.0064,-4.213e-05,0
5.0069,-3.7934e-05,0
5.0075,-2.6017e-05,0
5.008,-1.5778e-05,0
5.0085,-1.5946e-05,0
5.009,-2.0813e-05,0
5.0095,-2.0981e-05,0
5.0101,-1.8799e-05,0
5.0106,-1.561e-05,0
5.0111,-9.5674e-06,0
5.0116,-1.8463e-06,0
5.0121,3.6927e-06,0
5.0127,6.5461e-06,0
5.0132,1.0575e-05,0
5.0137,1.4939e-05,0
5.0142,1.8296e-05,0
5.0147,2.1317e-05,0
5.0152,2.6352e-05,0
5.0158,3.3066e-05,0
5.0163,4.0452e-05,0
5.0168,4.7166e-05,0
5.0173,5.1865e-05,0
5.0178,5.4551e-05,0
5.0184,5.4383e-05,0
5.0189,5.4383e-05,0
5.0194,5.5894e-05,0
5.0199,5.6062e-05,0
5.0204,5.304e-05,0
5.021,4.6159e-05,0
5.0215,4.0116e-05,0
5.022,3.9445e-05,0
5.0225,4.0787e-05,0
5.023,3.7766e-05,0
5.0236,3.5752e-05,0
5.0241,3.9445e-05,0
5.0246,3.7766e-05,0
5.0251,3.0716e-05,0
5.0256,2.7359e-05,0
5.0262,2.6688e-05,0
5.0267,2.7695e-05,0
5.0272,2.9374e-05,0
5.0277,2.9374e-05,0
5.0282,2.6352e-05,0
5.0287,2.501e-05,0
5.0293,2.4842e-05,0
5.0298,2.1317e-05,0
5.0303,1.6617e-05,0
5.0308,1.4435e-05,0
5.0313,1.4099e-05,0
5.0319,1.2421e-05,0
5.0324,1.1749e-05,0
5.0329,1.5946e-05,0
5.0334,2.3331e-05,0
5.0339,2.7192e-05,0
5.0345,2.7359e-05,0
5.035,2.7695e-05,0
5.0355,2.8031e-05,0
5.036,2.7192e-05,0
5.0365,2.6352e-05,0
5.0371,2.3835e-05,0
5.0376,1.7792e-05,0
5.0381,1.0407e-05,0
5.0386,3.6927e-06,0
5.0391,-2.182e-06,0
5.0397,-3.8605e-06,0
5.0402,7.2175e-06,0
5.0407,3.2898e-05,0
5.0412,5.9251e-05,0
5.0417,7.6204e-05,0
5.0423,8.7953e-05,0
5.0428,9.6513e-05,0
5.0433,9.5003e-05,0
5.0438,8.2078e-05,0
5.0443,6.5293e-05,0
5.0448,4.8508e-05,0
5.0454,2.9709e-05,0
5.0459,1.0239e-05,0
5.0464,-1.1078e-05,0
5.0469,-3.8102e-05,0
5.0474,-6.3951e-05,0
5.048,-7.2847e-05,0
5.0485,-6.8315e-05,0
5.049,-5.9922e-05,0
5.0495,-5.1865e-05,0
5.05,-4.3473e-05,0
5.0506,-3.2395e-05,0
5.0511,-2.0142e-05,0
5.0516,-9.3996e-06,0
5.0521,-1.8463e-06,0
5.0526,2.5177e-06,0
5.0532,4.1962e-06,0
5.0537,5.2033e-06,0
5.0542,6.2104e-06,0
5.0547,5.2033e-06,0
5.0552,3.357e-07,0
5.0557,-4.1962e-06,0
5.0563,-8.3925e-06,0
5.0568,-1.5106e-05,0
5.0573,-2.031e-05,0
5.0578,-1.6785e-05,0
5.0583,-8.896e-06,0
5.0589,8.3925e-07,0
5.0594,9.0639e-06,0
5.0599,1.5946e-05,0
5.0604,2.6352e-05,0
5.0609,3.9445e-05,0
5.0615,4.9851e-05,0
5.062,5.5726e-05,0
5.0625,5.9586e-05,0
5.063,6.1936e-05,0
5.0635,6.4958e-05,0
5.0641,6.6972e-05,0
5.0646,6.6972e-05,0
5.0651,6.4286e-05,0
5.0656,5.9251e-05,0
5.0661,4.8676e-05,0
5.0667,3.3738e-05,0
5.0672,2.1988e-05,0
5.0677,1.9303e-05,0
5.0682,2.4674e-05,0
5.0687,3.2563e-05,0
5.0693,4.3305e-05,0
5.0698,6.3111e-05,0
5.0703,8.7449e-05,0
5.0708,0.00010675,0
5.0713,0.00011598,0
5.0718,0.0001227,0
5.0724,0.0001274,0
5.0729,0.00012689,0
5.0734,0.00011733,0
5.0739,0.00010188,0
5.0744,8.2078e-05,0
5.075,6.1936e-05,0
5.0755,4.4648e-05,0
5.076,2.5177e-05,0
5.0765,-8.3925e-07,0
5.077,-2.7024e-05,0
5.0776,-4.7166e-05,0
5.0781,-6.1265e-05,0
5.0786,-6.7643e-05,0
5.0791,-6.7643e-05,0
5.0796,-6.5126e-05,0
5.0802,-6.2272e-05,0
5.0807,-5.3376e-05,0
5.0812,-3.7766e-05,0
5.0817,-2.1988e-05,0
5.0822,-1.0239e-05,0
5.0827,-1.6785e-07,0
5.0833,9.2317e-06,0
5.0838,1.4267e-05,0
5.0843,1.3092e-05,0
5.0848,1.1414e-05,0
5.0853,1.1917e-05,0
5.0859,1.2924e-05,0
5.0864,1.5274e-05,0
5.0869,1.7456e-05,0
5.0874,1.6785e-05,0
5.0879,1.6953e-05,0
5.0885,2.0645e-05,0
5.089,2.5849e-05,0
5.0895,3.0716e-05,0
5.09,3.5752e-05,0
5.0905,3.5416e-05,0
5.0911,3.122e-05,0
5.0916,3.1556e-05,0
5.0921,3.9445e-05,0
5.0926,4.9851e-05,0
5.0931,5.2537e-05,0
5.0937,4.6494e-05,0
5.0942,3.6088e-05,0
5.0947,2.6688e-05,0
5.0952,1.5946e-05,0
5.0957,4.3641e-06,0
5.0963,-2.182e-06,0
5.0968,-7.0497e-06,0
5.0973,-1.4267e-05,0
5.0978,-1.8128e-05,0
5.0983,-1.9638e-05,0
5.0988,-2.7863e-05,0
5.0994,-4.1459e-05,0
5.0999,-5.0187e-05,0
5.1004,-4.7837e-05,0
5.1009,-3.5416e-05,0
5.1014,-1.9303e-05,0
5.102,-8.896e-06,0
5.1025,-5.2033e-06,0
5.103,8.3925e-07,0
5.1035,1.2924e-05,0
5.104,2.8367e-05,0
5.1046,4.0116e-05,0
5.1051,4.3473e-05,0
5.1056,4.3305e-05,0
5.1061,4.2802e-05,0
5.1066,4.6494e-05,0
5.1072,5.2201e-05,0
5.1077,5.5894e-05,0
5.1082,5.623e-05,0
5.1087,5.539e-05,0
5.1092,5.2537e-05,0
5.1098,4.9516e-05,0
5.1103,4.8173e-05,0
5.1108,4.3473e-05,0
5.1113,3.1724e-05,0
5.1118,1.1582e-05,0
5.1123,-8.5603e-06,0
5.1129,-1.7288e-05,0
5.1134,-1.796e-05,0
5.1139,-2.2324e-05,0
5.1144,-3.4577e-05,0
5.1149,-4.8005e-05,0
5.1155,-5.5222e-05,0
5.116,-5.4215e-05,0
5.1165,-4.4984e-05,0
5.117,-2.9038e-05,0
5.1175,-1.0575e-05,0
5.1181,7.7211e-06,0
5.1186,2.2828e-05,0
5.1191,3.3234e-05,0
5.1196,3.8773e-05,0
5.1201,4.3305e-05,0
5.1207,4.5487e-05,0
5.1212,4.5151e-05,0
5.1217,4.3473e-05,0
5.1222,4.0452e-05,0
5.1227,3.7766e-05,0
5.1232,3.8437e-05,0
5.1238,4.0452e-05,0
5.1243,4.2802e-05,0
5.1248,4.3473e-05,0
5.1253,4.2466e-05,0
5.1258,4.1291e-05,0
5.1264,4.0116e-05,0
5.1269,4.0955e-05,0
5.1274,4.5151e-05,0
5.1279,4.9348e-05,0
5.1284,4.918e-05,0
5.129,4.4816e-05,0
5.1295,3.978e-05,0
5.13,4.1459e-05,0
5.1305,4.6159e-05,0
5.131,4.6159e-05,0
5.1316,4.0116e-05,0
5.1321,2.8702e-05,0
5.1326,1.7288e-05,0
5.1331,7.3854e-06,0
5.1336,1.6785e-07,0
5.1342,-6.0426e-06,0
5.1347,-1.2757e-05,0
5.1352,-1.6617e-05,0
5.1357,-1.2085e-05,0
5.1362,-7.8889e-06,0
5.1368,-1.2253e-05,0
5.1373,-1.7288e-05,0
5.1378,-1.5442e-05,0
5.1383,-7.2175e-06,0
5.1388,6.8818e-06,0
5.1393,2.5345e-05,0
5.1399,3.827e-05,0
5.1404,4.2802e-05,0
5.1409,3.9277e-05,0
5.1414,3.0381e-05,0
5.1419,2.2324e-05,0
5.1425,1.6953e-05,0
5.143,1.1246e-05,0
5.1435,1.2924e-05,0
5.144,2.652e-05,0
5.1445,4.4144e-05,0
5.1451,5.5558e-05,0
5.1456,6.2943e-05,0
5.1461,6.6972e-05,0
5.1466,6.4286e-05,0
5.1471,6.244e-05,0
5.1477,6.63e-05,0
5.1482,7.2343e-05,0
5.1487,7.1672e-05,0
5.1492,6.2943e-05,0
5.1497,5.2201e-05,0
5.1502,3.978e-05,0
5.1508,2.7695e-05,0
5.1513,2.031e-05,0
5.1518,1.7288e-05,0
5.1523,1.5946e-05,0
5.1528,1.4939e-05,0
5.1534,1.4267e-05,0
5.1539,1.6785e-05,0
5.1544,2.031e-05,0
5.1549,1.9471e-05,0
5.1554,1.796e-05,0
5.156,1.9303e-05,0
5.1565,2.2492e-05,0
5.157,2.5177e-05,0
5.1575,2.4002e-05,0
5.158,1.9806e-05,0
5.1586,1.7456e-05,0
5.1591,1.9303e-05,0
5.1596,1.9638e-05,0
5.1601,1.1917e-05,0
5.1606,-4.8676e-06,0
5.1612,-2.5681e-05,0
5.1617,-4.4144e-05,0
5.1622,-5.7404e-05,0
5.1627,-6.4286e-05,0
5.1632,-6.5293e-05,0
5.1638,-5.6397e-05,0
5.1643,-3.6088e-05,0
5.1648,-1.2253e-05,0
5.1653,7.0497e-06,0
5.1658,2.031e-05,0
5.1663,3.0381e-05,0
5.1669,3.743e-05,0
5.1674,4.2802e-05,0
5.1679,4.918e-05,0
5.1684,5.069e-05,0
5.1689,4.4144e-05,0
5.1695,4.0116e-05,0
5.17,5.4887e-05,0
5.1705,8.1743e-05,0
5.171,9.987e-05,0
5.1715,0.0001034,0
5.1721,9.987e-05,0
5.1726,9.2317e-05,0
5.1731,8.426e-05,0
5.1736,7.805e-05,0
5.1741,6.6468e-05,0
5.1747,4.5487e-05,0
5.1752,1.8799e-05,0
5.1757,-2.5177e-06,0
5.1762,-1.4267e-05,0
5.1767,-1.4603e-05,0
5.1772,-1.3092e-05,0
5.1778,-1.4939e-05,0
5.1783,-1.6953e-05,0
5.1788,-1.4603e-05,0
5.1793,-1.0071e-05,0
5.1798,-6.2104e-06,0
5.1804,-6.8818e-06,0
5.1809,-1.2421e-05,0
5.1814,-1.6953e-05,0
5.1819,-1.8967e-05,0
5.1824,-1.9303e-05,0
5.183,-1.8799e-05,0
5.1835,-1.7121e-05,0
5.184,-1.7792e-05,0
5.1845,-1.7288e-05,0
5.185,-1.326e-05,0
5.1856,-6.8818e-06,0
5.1861,1.8463e-06,0
5.1866,1.1917e-05,0
5.1871,2.3331e-05,0
5.1876,3.6423e-05,0
5.1882,4.9348e-05,0
5.1887,5.8915e-05,0
5.1892,6.1433e-05,0
5.1897,5.9419e-05,0
5.1902,5.623e-05,0
5.1908,5.6062e-05,0
5.1913,5.8579e-05,0
5.1918,5.9419e-05,0
5.1923,5.5894e-05,0
5.1928,4.8844e-05,0
5.1933,4.3473e-05,0
5.1939,4.0955e-05,0
5.1944,3.6759e-05,0
5.1949,3.1388e-05,0
5.1954,2.7359e-05,0
5.1959,2.8199e-05,0
5.1965,3.3066e-05,0
5.197,3.6759e-05,0
5.1975,3.8437e-05,0
5.198,3.827e-05,0
5.1985,3.9109e-05,0
5.1991,3.743e-05,0
5.1996,3.122e-05,0
5.2001,1.9303e-05,0
5.2006,4.1962e-06,0
5.2011,-8.7282e-06,0
5.2017,-1.7792e-05,0
5.2022,-2.3835e-05,0
5.2027,-2.4842e-05,0
5.2032,-1.5106e-05,0
5.2037,-5.2033e-06,0
5.2043,-3.1891e-06,0
5.2048,-6.5461e-06,0
5.2053,-9.5674e-06,0
5.2058,-4.1962e-06,0
5.2063,4.5319e-06,0
5.2068,7.7211e-06,0
5.2074,8.5603e-06,0
5.2079,9.5674e-06,0
5.2084,1.3596e-05,0
5.2089,2.1988e-05,0
5.2094,3.1052e-05,0
5.21,3.4409e-05,0
5.2105,3.1724e-05,0
5.211,2.6184e-05,0
5.2115,2.0981e-05,0
5.212,1.8128e-05,0
5.2126,1.7288e-05,0
5.2131,1.6281e-05,0
5.2136,1.6281e-05,0
5.2141,1.561e-05,0
5.2146,1.1917e-05,0
5.2152,4.5319e-06,0
5.2157,-8.3925e-07,0
5.2162,4.0284e-06,0
5.2167,1.9303e-05,0
5.2172,2.9206e-05,0
5.2177,2.0645e-05,0
5.2183,-5.2033e-06,0
5.2188,-3.5416e-05,0
5.2193,-5.6565e-05,0
5.2198,-5.9586e-05,0
5.2203,-4.5487e-05,0
5.2209,-2.5177e-05,0
5.2214,-1.0575e-05,0
5.2219,-4.6998e-06,0
5.2224,-1.8463e-06,0
5.2229,3.5248e-06,0
5.2235,7.2175e-06,0
5.224,4.1962e-06,0
5.2245,-4.6998e-06,0
5.225,-1.6281e-05,0
5.2255,-2.0645e-05,0
5.2261,-1.5106e-05,0
5.2266,-5.7069e-06,0
5.2271,1.8463e-06,0
5.2276,6.2104e-06,0
5.2281,8.3925e-06,0
5.2287,1.0071e-05,0
5.2292,1.3092e-05,0
5.2297,2.0981e-05,0
5.2302,3.1891e-05,0
5.2307,4.1962e-05,0
5.2313,4.8005e-05,0
5.2318,5.4719e-05,0
5.2323,6.3951e-05,0
5.2328,7.1e-05,0
5.2333,7.4693e-05,0
5.2338,7.7211e-05,0
5.2344,8.2246e-05,0
5.2349,9.2485e-05,0
5.2354,0.00010423,0
5.2359,0.00011162,0
5.2364,0.00011196,0
5.237,0.00010591,0
5.2375,9.7185e-05,0
5.238,8.2078e-05,0
5.2385,6.0929e-05,0
5.239,4.3473e-05,0
5.2396,3.2059e-05,0
5.2401,2.1988e-05,0
5.2406,1.2085e-05,0
5.2411,4.8676e-06,0
5.2416,2.8534e-06,0
5.2422,7.0497e-06,0
5.2427,1.5106e-05,0
5.2432,2.1317e-05,0
5.2437,2.3163e-05,0
5.2442,2.2324e-05,0
5.2447,2.3667e-05,0
5.2453,2.6184e-05,0
5.2458,2.3163e-05,0
5.2463,1.8296e-05,0
5.2468,1.796e-05,0
5.2473,2.3499e-05,0
5.2479,2.8031e-05,0
5.2484,3.2395e-05,0
5.2489,3.7766e-05,0
5.2494,3.8773e-05,0
5.2499,3.2395e-05,0
5.2505,1.5946e-05,0
5.251,-5.539e-06,0
5.2515,-2.501e-05,0
5.252,-3.5416e-05,0
5.2525,-3.4073e-05,0
5.2531,-2.4002e-05,0
5.2536,-1.0239e-05,0
5.2541,3.8605e-06,0
5.2546,1.4603e-05,0
5.2551,2.182e-05,0
5.2557,2.5345e-05,0
5.2562,2.8367e-05,0
5.2567,3.7766e-05,0
5.2572,4.7501e-05,0
5.2577,4.8844e-05,0
5.2583,4.3137e-05,0
5.2588,3.3402e-05,0
5.2593,2.3331e-05,0
5.2598,1.5274e-05,0
5.2603,1.2589e-05,0
5.2608,1.0575e-05,0
5.2614,8.5603e-06,0
5.2619,1.091e-05,0
5.2624,1.8967e-05,0
5.2629,3.1556e-05,0
5.2634,4.683e-05,0
5.264,6.5965e-05,0
5.2645,8.7785e-05,0
5.265,0.0001039,0
5.2655,0.00010726,0
5.266,0.00010323,0
5.2666,9.9199e-05,0
5.2671,9.6345e-05,0
5.2676,8.7449e-05,0
5.2681,7.0329e-05,0
5.2686,4.4816e-05,0
5.2692,1.7624e-05,0
5.2697,-7.2175e-06,0
5.2702,-3.6423e-05,0
5.2707,-6.949e-05,0
5.2712,-9.5506e-05,0
5.2717,-0.00011128,0
5.2723,-0.00012052,0
5.2728,-0.00012908,0
5.2733,-0.00013579,0
5.2738,-0.00013344,0
5.2743,-0.00012035,0
5.2749,-9.9199e-05,0
5.2754,-7.7043e-05,0
5.2759,-5.8579e-05,0
5.2764,-4.1459e-05,0
5.2769,-2.0645e-05,0
5.2775,5.0355e-07,0
5.278,1.1078e-05,0
5.2785,8.896e-06,0
5.279,6.2104e-06,0
5.2795,1.0407e-05,0
5.2801,1.8296e-05,0
5.2806,2.7024e-05,0
5.2811,3.4745e-05,0
5.2816,3.8102e-05,0
5.2821,3.4073e-05,0
5.2827,2.7527e-05,0
5.2832,2.5849e-05,0
5.2837,2.9038e-05,0
5.2842,3.2059e-05,0
5.2847,3.4073e-05,0
5.2852,4.1459e-05,0
5.2858,5.6062e-05,0
5.2863,7.2679e-05,0
5.2868,8.2582e-05,0
5.2873,8.4428e-05,0
5.2878,7.805e-05,0
5.2884,6.5629e-05,0
5.2889,5.8915e-05,0
5.2894,6.2776e-05,0
5.2899,7.0497e-05,0
5.2904,7.3686e-05,0
5.291,6.9657e-05,0
5.2915,5.7404e-05,0
5.292,4.0116e-05,0
5.2925,2.6688e-05,0
5.293,1.8296e-05,0
5.2936,1.5442e-05,0
5.2941,1.8967e-05,0
5.2946,2.9374e-05,0
5.2951,4.5151e-05,0
5.2956,6.4286e-05,0
5.2962,8.7449e-05,0
5.2967,0.00010054,0
5.2972,8.9128e-05,0
5.2977,5.8244e-05,0
5.2982,2.8702e-05,0
5.2988,1.0239e-05,0
5.2993,0,0
5.2998,-5.539e-06,0
5.3003,-7.2175e-06,0
5.3008,-4.3641e-06,0
5.3013,-2.3499e-06,0
5.3019,-4.5319e-06,0
5.3024,-5.539e-06,0
5.3029,-6.0426e-06,0
5.3034,-1.0575e-05,0
5.3039,-1.6281e-05,0
5.3045,-1.7624e-05,0
5.305,-1.561e-05,0
5.3055,-1.3092e-05,0
5.306,-8.2246e-06,0
5.3065,2.5177e-06,0
5.3071,1.6281e-05,0
5.3076,2.9374e-05,0
5.3081,3.7095e-05,0
5.3086,3.6088e-05,0
5.3091,3.122e-05,0
5.3097,2.9038e-05,0
5.3102,3.4073e-05,0
5.3107,4.2802e-05,0
5.3112,5.388e-05,0
5.3117,6.865e-05,0
5.3122,8.3085e-05,0
5.3128,8.9128e-05,0
5.3133,8.1743e-05,0
5.3138,6.8986e-05,0
5.3143,5.7237e-05,0
5.3148,4.5991e-05,0
5.3154,3.7934e-05,0
5.3159,3.743e-05,0
5.3164,4.1123e-05,0
5.3169,4.4312e-05,0
5.3174,4.5991e-05,0
5.318,3.8102e-05,0
5.3185,1.7456e-05,0
5.319,-8.3925e-06,0
5.3195,-2.6688e-05,0
5.32,-3.3738e-05,0
5.3206,-3.4577e-05,0
5.3211,-3.4577e-05,0
5.3216,-3.6423e-05,0
5.3221,-4.0452e-05,0
5.3226,-4.3977e-05,0
5.3232,-4.4984e-05,0
5.3237,-4.4984e-05,0
5.3242,-4.2634e-05,0
5.3247,-3.6927e-05,0
5.3252,-2.9877e-05,0
5.3258,-2.417e-05,0
5.3263,-1.8128e-05,0
5.3268,-3.5248e-06,0
5.3273,1.3764e-05,0
5.3278,2.1149e-05,0
5.3283,1.7792e-05,0
5.3289,6.3783e-06,0
5.3294,-6.3783e-06,0
5.3299,-1.326e-05,0
5.3304,-1.796e-05,0
5.3309,-2.1653e-05,0
5.3315,-2.182e-05,0
5.332,-1.9135e-05,0
5.3325,-1.6785e-05,0
5.333,-1.4771e-05,0
5.3335,-1.1246e-05,0
5.3341,-3.6927e-06,0
5.3346,9.2317e-06,0
5.3351,2.7695e-05,0
5.3356,4.5487e-05,0
5.3361,5.5222e-05,0
5.3367,6.2943e-05,0
5.3372,7.7379e-05,0
5.3377,9.5338e-05,0
5.3382,0.00010507,0
5.3387,0.00010239,0
5.3392,9.5674e-05,0
5.3398,8.8457e-05,0
5.3403,8.0735e-05,0
5.3408,7.2343e-05,0
5.3413,6.5629e-05,0
5.3418,6.1601e-05,0
5.3424,5.2201e-05,0
5.3429,3.6423e-05,0
5.3434,1.6281e-05,0
5.3439,-1.1749e-06,0
5.3444,-1.1917e-05,0
5.345,-1.6953e-05,0
5.3455,-1.9638e-05,0
5.346,-2.1988e-05,0
5.3465,-2.501e-05,0
5.347,-3.0716e-05,0
5.3476,-3.5752e-05,0
5.3481,-3.5752e-05,0
5.3486,-2.7695e-05,0
5.3491,-1.5106e-05,0
5.3496,0,0
5.3502,1.326e-05,0
5.3507,2.5681e-05,0
5.3512,4.0116e-05,0
5.3517,5.2201e-05,0
5.3522,5.5894e-05,0
5.3528,5.0019e-05,0
5.3533,4.0452e-05,0
5.3538,3.3402e-05,0
5.3543,3.4913e-05,0
5.3548,4.448e-05,0
5.3553,5.3544e-05,0
5.3559,5.0187e-05,0
5.3564,3.7095e-05,0
5.3569,2.2324e-05,0
5.3574,7.2175e-06,0
5.3579,-1.1246e-05,0
5.3585,-2.6017e-05,0
5.359,-2.887e-05,0
5.3595,-2.1149e-05,0
5.36,-9.2317e-06,0
5.3605,2.3499e-06,0
5.3611,1.5274e-05,0
5.3616,3.0381e-05,0
5.3621,4.5151e-05,0
5.3626,6.2272e-05,0
5.3631,8.1239e-05,0
5.3637,9.6178e-05,0
5.3642,0.00010491,0
5.3647,0.00010507,0
5.3652,9.7856e-05,0
5.3657,8.4092e-05,0
5.3662,6.4958e-05,0
5.3668,4.448e-05,0
5.3673,2.8031e-05,0
5.3678,1.6449e-05,0
5.3683,6.5461e-06,0
5.3688,0,0
5.3694,-2.8534e-06,0
5.3699,-8.7282e-06,0
5.3704,-1.5946e-05,0
5.3709,-1.6281e-05,0
5.3714,-7.7211e-06,0
5.372,4.1962e-06,0
5.3725,1.091e-05,0
5.373,1.3931e-05,0
5.3735,1.7456e-05,0
5.374,1.9471e-05,0
5.3746,1.7624e-05,0
5.3751,1.796e-05,0
5.3756,2.3331e-05,0
5.3761,2.9374e-05,0
5.3766,3.1052e-05,0
5.3772,3.0884e-05,0
5.3777,3.4745e-05,0
5.3782,4.3809e-05,0
5.3787,5.7069e-05,0
5.3792,7.1672e-05,0
5.3797,8.1407e-05,0
5.3803,8.2414e-05,0
5.3808,7.2007e-05,0
5.3813,5.6565e-05,0
5.3818,3.9109e-05,0
5.3823,2.3331e-05,0
5.3829,9.9031e-06,0
5.3834,-5.8747e-06,0
5.3839,-2.3331e-05,0
5.3844,-4.0787e-05,0
5.3849,-5.8412e-05,0
5.3855,-7.335e-05,0
5.386,-8.3925e-05,0
5.3865,-8.9799e-05,0
5.387,-8.9296e-05,0
5.3875,-8.4596e-05,0
5.3881,-7.6875e-05,0
5.3886,-6.2943e-05,0
5.3891,-4.2969e-05,0
5.3896,-1.8631e-05,0
5.3901,7.2175e-06,0
5.3907,3.0716e-05,0
5.3912,5.1194e-05,0
5.3917,6.7979e-05,0
5.3922,8.275e-05,0
5.3927,9.2149e-05,0
5.3933,9.5506e-05,0
5.3938,9.4331e-05,0
5.3943,8.9799e-05,0
5.3948,8.6442e-05,0
5.3953,8.2078e-05,0
5.3958,7.3014e-05,0
5.3964,6.1601e-05,0
5.3969,5.069e-05,0
5.3974,4.1459e-05,0
5.3979,3.3738e-05,0
5.3984,2.6352e-05,0
5.399,2.4002e-05,0
5.3995,2.9877e-05,0
5.4,3.7095e-05,0
5.4005,3.8773e-05,0
5.401,3.5416e-05,0
5.4016,3.2059e-05,0
5.4021,2.9709e-05,0
5.4026,2.9206e-05,0
5.4031,2.9709e-05,0
5.4036,2.9374e-05,0
5.4042,3.1052e-05,0
5.4047,3.4745e-05,0
5.4052,3.7095e-05,0
5.4057,3.2059e-05,0
5.4062,2.4506e-05,0
5.4067,2.1317e-05,0
5.4073,2.3667e-05,0
5.4078,2.7359e-05,0
5.4083,2.8702e-05,0
5.4088,2.2492e-05,0
5.4093,9.5674e-06,0
5.4099,-1.6785e-06,0
5.4104,-6.714e-06,0
5.4109,-9.3996e-06,0
5.4114,-1.5106e-05,0
5.4119,-2.501e-05,0
5.4125,-3.5584e-05,0
5.413,-3.9445e-05,0
5.4135,-3.4409e-05,0
5.414,-2.3163e-05,0
5.4145,-1.0407e-05,0
5.4151,3.1891e-06,0
5.4156,1.4771e-05,0
5.4161,2.4674e-05,0
5.4166,3.2731e-05,0
5.4171,3.743e-05,0
5.4177,3.4073e-05,0
5.4182,2.6017e-05,0
5.4187,2.1317e-05,0
5.4192,2.0813e-05,0
5.4197,1.6617e-05,0
5.4203,2.5177e-06,0
5.4208,-1.4603e-05,0
5.4213,-2.3499e-05,0
5.4218,-2.0813e-05,0
5.4223,-1.4267e-05,0
5.4228,-7.7211e-06,0
5.4234,-3.357e-07,0
5.4239,4.1962e-06,0
5.4244,1.8463e-06,0
5.4249,-4.1962e-06,0
5.4254,-2.8534e-06,0
5.426,6.2104e-06,0
5.4265,1.6281e-05,0
5.427,2.5345e-05,0
5.4275,2.501e-05,0
5.428,1.0575e-05,0
5.4286,-8.896e-06,0
5.4291,-2.2492e-05,0
5.4296,-2.5177e-05,0
5.4301,-2.0981e-05,0
5.4306,-1.4099e-05,0
5.4312,-6.2104e-06,0
5.4317,-3.357e-07,0
5.4322,4.1962e-06,0
5.4327,9.0639e-06,0
5.4332,1.5778e-05,0
5.4337,2.6352e-05,0
5.4343,3.9445e-05,0
5.4348,5.2873e-05,0
5.4353,6.4958e-05,0
5.4358,7.1e-05,0
5.4363,7.1e-05,0
5.4369,7.0329e-05,0
5.4374,7.5364e-05,0
5.4379,8.04e-05,0
5.4384,8.0232e-05,0
5.4389,7.4189e-05,0
5.4395,6.4286e-05,0
5.44,5.3544e-05,0
5.4405,4.6998e-05,0
5.441,4.2802e-05,0
5.4415,3.8941e-05,0
5.4421,3.4073e-05,0
5.4426,2.8367e-05,0
5.4431,2.4674e-05,0
5.4436,1.9974e-05,0
5.4441,1.326e-05,0
5.4447,8.7282e-06,0
5.4452,1.091e-05,0
5.4457,2.3667e-05,0
5.4462,4.1962e-05,0
5.4467,5.7069e-05,0
5.4473,6.1601e-05,0
5.4478,5.6901e-05,0
5.4483,4.9348e-05,0
5.4488,4.3809e-05,0
5.4493,4.0116e-05,0
5.4498,3.6423e-05,0
5.4504,3.2059e-05,0
5.4509,2.5681e-05,0
5.4514,1.5778e-05,0
5.4519,4.8676e-06,0
5.4524,-6.5461e-06,0
5.453,-1.8296e-05,0
5.4535,-2.7359e-05,0
5.454,-3.122e-05,0
5.4545,-2.8534e-05,0
5.455,-1.7121e-05,0
5.4556,1.6785e-07,0
5.4561,1.5274e-05,0
5.4566,2.6352e-05,0
5.4571,3.4241e-05,0
5.4576,3.2059e-05,0
5.4582,1.7121e-05,0
5.4587,-3.357e-07,0
5.4592,-1.1078e-05,0
5.4597,-1.561e-05,0
5.4602,-1.8296e-05,0
5.4607,-2.031e-05,0
5.4613,-1.796e-05,0
5.4618,-1.1917e-05,0
5.4623,-1.6785e-06,0
5.4628,1.0407e-05,0
5.4633,2.1988e-05,0
5.4639,3.2059e-05,0
5.4644,4.1459e-05,0
5.4649,5.2201e-05,0
5.4654,6.4622e-05,0
5.4659,7.7043e-05,0
5.4665,9.0135e-05,0
5.467,0.00010524,0
5.4675,0.000118,0
5.468,0.00012236,0
5.4685,0.00011666,0
5.4691,0.00010558,0
5.4696,9.7017e-05,0
5.4701,9.2149e-05,0
5.4706,8.7114e-05,0
5.4711,7.7714e-05,0
5.4717,6.3279e-05,0
5.4722,4.5151e-05,0
5.4727,2.7695e-05,0
5.4732,8.896e-06,0
5.4737,-1.5946e-05,0
5.4742,-4.4816e-05,0
5.4748,-6.8818e-05,0
5.4753,-8.3085e-05,0
5.4758,-8.7449e-05,0
5.4763,-8.426e-05,0
5.4768,-7.6204e-05,0
5.4774,-6.5965e-05,0
5.4779,-5.388e-05,0
5.4784,-3.8102e-05,0
5.4789,-1.8631e-05,0
5.4794,3.5248e-06,0
5.48,2.2492e-05,0
5.4805,3.5248e-05,0
5.481,4.7166e-05,0
5.4815,5.8915e-05,0
5.482,6.7308e-05,0
5.4826,6.949e-05,0
5.4831,6.6804e-05,0
5.4836,5.7572e-05,0
5.4841,4.3473e-05,0
5.4846,3.0716e-05,0
5.4852,1.5946e-05,0
5.4857,-1.8463e-06,0
5.4862,-1.7121e-05,0
5.4867,-2.2156e-05,0
5.4872,-2.0981e-05,0
5.4878,-1.3764e-05,0
5.4883,-4.3641e-06,0
5.4888,4.6998e-06,0
5.4893,1.3764e-05,0
5.4898,2.0645e-05,0
5.4903,2.5345e-05,0
5.4909,2.6352e-05,0
5.4914,2.266e-05,0
5.4919,1.8296e-05,0
5.4924,1.561e-05,0
5.4929,1.3596e-05,0
5.4935,1.0071e-05,0
5.494,7.8889e-06,0
5.4945,8.7282e-06,0
5.495,1.1414e-05,0
5.4955,1.3596e-05,0
5.4961,1.4771e-05,0
5.4966,2.0478e-05,0
5.4971,3.592e-05,0
5.4976,5.7237e-05,0
5.4981,7.2007e-05,0
5.4987,7.6204e-05,0
5.4992,7.4022e-05,0
5.4997,6.63e-05,0
5.5002,5.5558e-05,0
5.5007,4.4648e-05,0
5.5012,3.5416e-05,0
5.5018,2.4506e-05,0
5.5023,1.8463e-06,0
5.5028,-2.887e-05,0
5.5033,-5.7069e-05,0
5.5038,-7.8218e-05,0
5.5044,-9.2653e-05,0
5.5049,-0.00010172,0
5.5054,-0.00010692,0
5.5059,-0.00010692,0
5.5064,-9.9535e-05,0
5.507,-8.7114e-05,0
5.5075,-7.2007e-05,0
5.508,-5.5894e-05,0
5.5085,-4.0452e-05,0
5.509,-2.5177e-05,0
5.5096,-1.0239e-05,0
5.5101,2.5177e-06,0
5.5106,1.1917e-05,0
5.5111,1.6449e-05,0
5.5116,1.5274e-05,0
5.5122,1.2757e-05,0
5.5127,1.1414e-05,0
5.5132,1.1582e-05,0
5.5137,1.0575e-05,0
5.5142,8.5603e-06,0
5.5148,7.5532e-06,0
5.5153,8.5603e-06,0
5.5158,1.326e-05,0
5.5163,1.9638e-05,0
5.5168,2.7695e-05,0
5.5173,3.6759e-05,0
5.5179,4.3305e-05,0
5.5184,4.6159e-05,0
5.5189,4.8676e-05,0
5.5194,5.3208e-05,0
5.5199,5.7572e-05,0
5.5205,5.9586e-05,0
5.521,5.9922e-05,0
5.5215,6.0258e-05,0
5.522,6.2608e-05,0
5.5225,6.7308e-05,0
5.5231,7.4861e-05,0
5.5236,8.3085e-05,0
5.5241,9.0471e-05,0
5.5246,9.6849e-05,0
5.5251,0.00010491,0
5.5257,0.00011162,0
5.5262,0.00011296,0
5.5267,0.00011397,0
5.5272,0.00011934,0
5.5277,0.00012287,0
5.5282,0.00011783,0
5.5288,0.0001086,0
5.5293,9.6513e-05,0
5.5298,7.7546e-05,0
5.5303,5.5726e-05,0
5.5308,4.1123e-05,0
5.5314,3.3066e-05,0
5.5319,2.3331e-05,0
5.5324,1.0239e-05,0
5.5329,-6.714e-07,0
5.5334,-7.3854e-06,0
5.534,-8.896e-06,0
5.5345,-9.2317e-06,0
5.535,-1.0407e-05,0
5.5355,-9.9031e-06,0
5.536,-4.8676e-06,0
5.5366,8.5603e-06,0
5.5371,2.3331e-05,0
5.5376,3.1891e-05,0
5.5381,3.2731e-05,0
5.5386,2.501e-05,0
5.5392,1.7121e-05,0
5.5397,1.7456e-05,0
5.5402,2.5345e-05,0
5.5407,3.2731e-05,0
5.5412,3.1724e-05,0
5.5418,2.4002e-05,0
5.5423,1.7792e-05,0
5.5428,1.7792e-05,0
5.5433,2.2324e-05,0
5.5438,2.8702e-05,0
5.5443,3.2059e-05,0
5.5449,3.4577e-05,0
5.5454,3.6088e-05,0
5.5459,3.5416e-05,0
5.5464,3.3738e-05,0
5.5469,3.0381e-05,0
5.5475,2.3667e-05,0
5.548,1.6785e-05,0
5.5485,1.1917e-05,0
5.549,8.3925e-06,0
5.5495,7.2175e-06,0
5.5501,1.3764e-05,0
5.5506,2.7192e-05,0
5.5511,4.2634e-05,0
5.5516,5.5222e-05,0
5.5521,6.3615e-05,0
5.5527,6.6972e-05,0
5.5532,6.2943e-05,0
5.5537,5.2369e-05,0
5.5542,3.7934e-05,0
5.5547,2.2828e-05,0
5.5553,1.091e-05,0
5.5558,6.5461e-06,0
5.5563,6.5461e-06,0
5.5568,0,0
5.5573,-1.6449e-05,0
5.5578,-3.3234e-05,0
5.5584,-4.7166e-05,0
5.5589,-6.1601e-05,0
5.5594,-7.8721e-05,0
5.5599,-9.2485e-05,0
5.5604,-0.00010021,0
5.561,-9.7017e-05,0
5.5615,-8.4764e-05,0
5.562,-7.0832e-05,0
5.5625,-5.8915e-05,0
5.563,-4.5487e-05,0
5.5636,-2.9709e-05,0
5.5641,-1.091e-05,0
5.5646,9.5674e-06,0
5.5651,2.6017e-05,0
5.5656,3.8773e-05,0
5.5662,5.2705e-05,0
5.5667,6.5293e-05,0
5.5672,7.2679e-05,0
5.5677,7.6036e-05,0
5.5682,7.4189e-05,0
5.5687,6.5293e-05,0
5.5693,4.9851e-05,0
5.5698,3.0716e-05,0
5.5703,1.5274e-05,0
5.5708,8.2246e-06,0
5.5713,1.0071e-06,0
5.5719,-9.9031e-06,0
5.5724,-1.796e-05,0
5.5729,-2.1988e-05,0
5.5734,-2.4842e-05,0
5.5739,-2.7024e-05,0
5.5745,-2.4506e-05,0
5.575,-1.4771e-05,0
5.5755,-1.1749e-06,0
5.576,1.2589e-05,0
5.5765,2.501e-05,0
5.5771,3.5416e-05,0
5.5776,4.2802e-05,0
5.5781,4.4144e-05,0
5.5786,4.1459e-05,0
5.5791,3.8102e-05,0
5.5797,3.3402e-05,0
5.5802,2.3331e-05,0
5.5807,1.091e-05,0
5.5812,-1.5106e-06,0
5.5817,-1.1246e-05,0
5.5823,-1.7624e-05,0
5.5828,-1.9303e-05,0
5.5833,-1.7121e-05,0
5.5838,-1.1582e-05,0
5.5843,-4.8676e-06,0
5.5848,-2.182e-06,0
5.5854,-3.1891e-06,0
5.5859,-4.0284e-06,0
5.5864,3.1891e-06,0
5.5869,2.1317e-05,0
5.5874,4.7333e-05,0
5.588,7.1672e-05,0
5.5885,8.4428e-05,0
5.589,8.4092e-05,0
5.5895,7.7714e-05,0
5.59,7.5029e-05,0
5.5906,7.9393e-05,0
5.5911,8.9799e-05,0
5.5916,0.00010239,0
5.5921,0.0001086,0
5.5926,0.00010524,0
5.5932,9.2988e-05,0
5.5937,7.57e-05,0
5.5942,5.623e-05,0
5.5947,3.508e-05,0
5.5952,1.3931e-05,0
5.5957,-6.714e-07,0
5.5963,-8.3925e-06,0
5.5968,-1.2589e-05,0
5.5973,-1.4939e-05,0
5.5978,-1.5946e-05,0
5.5983,-1.2253e-05,0
5.5989,-5.7069e-06,0
5.5994,-1.3428e-06,0
5.5999,1.5106e-06,0
5.6004,7.8889e-06,0
5.6009,1.561e-05,0
5.6015,2.2324e-05,0
5.602,2.9374e-05,0
5.6025,3.7766e-05,0
5.603,4.5991e-05,0
5.6035,5.3544e-05,0
5.6041,5.8579e-05,0
5.6046,5.6901e-05,0
5.6051,4.918e-05,0
5.6056,4.0452e-05,0
5.6061,3.2731e-05,0
5.6067,2.6688e-05,0
5.6072,2.0142e-05,0
5.6077,1.3596e-05,0
5.6082,1.2924e-05,0
5.6087,2.0478e-05,0
5.6093,2.7695e-05,0
5.6098,2.9374e-05,0
5.6103,2.6352e-05,0
5.6108,2.3499e-05,0
5.6113,1.9974e-05,0
5.6118,1.4603e-05,0
5.6124,1.0575e-05,0
5.6129,8.896e-06,0
5.6134,9.5674e-06,0
5.6139,1.2253e-05,0
5.6144,1.4939e-05,0
5.615,1.561e-05,0
5.6155,1.1749e-05,0
5.616,5.8747e-06,0
5.6165,6.714e-07,0
5.617,8.3925e-07,0
5.6176,5.539e-06,0
5.6181,1.0407e-05,0
5.6186,1.1246e-05,0
5.6191,5.2033e-06,0
5.6196,-3.357e-07,0
5.6202,2.182e-06,0
5.6207,1.2421e-05,0
5.6212,2.0645e-05,0
5.6217,2.1988e-05,0
5.6222,1.7288e-05,0
5.6227,1.2589e-05,0
5.6233,1.4939e-05,0
5.6238,2.3835e-05,0
5.6243,3.1724e-05,0
5.6248,3.1388e-05,0
5.6253,2.2995e-05,0
5.6259,1.3596e-05,0
5.6264,9.3996e-06,0
5.6269,8.5603e-06,0
5.6274,1.6785e-06,0
5.6279,-1.1749e-05,0
5.6285,-2.266e-05,0
5.629,-2.1988e-05,0
5.6295,-1.3092e-05,0
5.63,-4.1962e-06,0
5.6305,3.357e-07,0
5.6311,3.0213e-06,0
5.6316,6.3783e-06,0
5.6321,1.6785e-05,0
5.6326,3.7263e-05,0
5.6331,5.5222e-05,0
5.6337,5.5894e-05,0
5.6342,4.2802e-05,0
5.6347,2.9374e-05,0
5.6352,1.9638e-05,0
5.6357,7.2175e-06,0
5.6363,-7.2175e-06,0
5.6368,-1.9471e-05,0
5.6373,-2.652e-05,0
5.6378,-2.7024e-05,0
5.6383,-2.3667e-05,0
5.6388,-1.6953e-05,0
5.6394,-8.5603e-06,0
5.6399,-8.3925e-07,0
5.6404,3.5248e-06,0
5.6409,3.8605e-06,0
5.6414,1.0071e-06,0
5.642,-4.8676e-06,0
5.6425,-9.7353e-06,0
5.643,-1.091e-05,0
5.6435,-3.5248e-06,0
5.644,1.0575e-05,0
5.6446,2.7359e-05,0
5.6451,4.0787e-05,0
5.6456,4.8173e-05,0
5.6461,5.3208e-05,0
5.6466,5.8579e-05,0
5.6472,6.4958e-05,0
5.6477,6.7979e-05,0
5.6482,6.2608e-05,0
5.6487,5.5558e-05,0
5.6492,5.1362e-05,0
5.6498,4.6494e-05,0
5.6503,3.827e-05,0
5.6508,2.8534e-05,0
5.6513,1.8631e-05,0
5.6518,1.2085e-05,0
5.6523,1.1414e-05,0
5.6529,1.8631e-05,0
5.6534,3.3402e-05,0
5.6539,4.5823e-05,0
5.6544,4.9348e-05,0
5.6549,4.6494e-05,0
5.6555,4.4144e-05,0
5.656,4.8676e-05,0
5.6565,5.7237e-05,0
5.657,6.0594e-05,0
5.6575,5.6733e-05,0
5.6581,5.2705e-05,0
5.6586,4.9516e-05,0
5.6591,4.2802e-05,0
5.6596,2.9374e-05,0
5.6601,1.2085e-05,0
5.6607,-7.7211e-06,0
5.6612,-2.652e-05,0
5.6617,-3.3906e-05,0
5.6622,-2.9877e-05,0
5.6627,-2.2492e-05,0
5.6632,-1.5778e-05,0
5.6638,-7.7211e-06,0
5.6643,2.3499e-06,0
5.6648,1.4771e-05,0
5.6653,2.9541e-05,0
5.6658,4.3473e-05,0
5.6664,5.5726e-05,0
5.6669,6.3615e-05,0
5.6674,6.8315e-05,0
5.6679,7.3686e-05,0
5.6684,8.0903e-05,0
5.669,8.3085e-05,0
5.6695,7.9896e-05,0
5.67,7.3518e-05,0
5.6705,6.5629e-05,0
5.671,5.3544e-05,0
5.6716,3.7934e-05,0
5.6721,2.4002e-05,0
5.6726,1.4267e-05,0
5.6731,8.2246e-06,0
5.6736,7.7211e-06,0
5.6742,7.8889e-06,0
5.6747,6.5461e-06,0
5.6752,4.3641e-06,0
5.6757,2.5177e-06,0
5.6762,1.6785e-07,0
5.6768,-4.5319e-06,0
5.6773,-9.7353e-06,0
5.6778,-1.5442e-05,0
5.6783,-1.8967e-05,0
5.6788,-1.5946e-05,0
5.6793,-9.2317e-06,0
5.6799,-1.5106e-06,0
5.6804,2.5177e-06,0
5.6809,3.5248e-06,0
5.6814,4.5319e-06,0
5.6819,6.3783e-06,0
5.6825,1.1917e-05,0
5.683,1.9303e-05,0
5.6835,2.4674e-05,0
5.684,2.6352e-05,0
5.6845,2.5345e-05,0
5.6851,2.2156e-05,0
5.6856,1.7288e-05,0
5.6861,1.4267e-05,0
5.6866,1.1246e-05,0
5.6871,1.0575e-05,0
5.6877,1.5778e-05,0
5.6882,2.4002e-05,0
5.6887,3.3906e-05,0
5.6892,4.3809e-05,0
5.6897,5.2537e-05,0
5.6902,5.8915e-05,0
5.6908,6.2608e-05,0
5.6913,6.4286e-05,0
5.6918,6.2272e-05,0
5.6923,5.5222e-05,0
5.6928,4.5487e-05,0
5.6934,3.3402e-05,0
5.6939,1.796e-05,0
5.6944,1.5106e-06,0
5.6949,-1.1414e-05,0
5.6954,-1.9471e-05,0
5.696,-2.5345e-05,0
5.6965,-3.1388e-05,0
5.697,-3.7766e-05,0
5.6975,-4.1794e-05,0
5.698,-4.1459e-05,0
5.6986,-3.7095e-05,0
5.6991,-2.9374e-05,0
5.6996,-1.4435e-05,0
5.7001,4.6998e-06,0
5.7006,2.0478e-05,0
5.7012,2.9038e-05,0
5.7017,3.6088e-05,0
5.7022,4.448e-05,0
5.7027,5.0523e-05,0
5.7032,5.0187e-05,0
5.7038,4.5487e-05,0
5.7043,4.1291e-05,0
5.7048,3.8941e-05,0
5.7053,3.5416e-05,0
5.7058,2.8702e-05,0
5.7063,1.7624e-05,0
5.7069,7.3854e-06,0
5.7074,7.2175e-06,0
5.7079,1.4267e-05,0
5.7084,1.9303e-05,0
5.7089,1.9806e-05,0
5.7095,1.561e-05,0
5.71,7.2175e-06,0
5.7105,-6.2104e-06,0
5.711,-1.8967e-05,0
5.7115,-2.3667e-05,0
5.7121,-2.4674e-05,0
5.7126,-2.3331e-05,0
5.7131,-1.2253e-05,0
5.7136,6.8818e-06,0
5.7141,2.031e-05,0
5.7147,2.2324e-05,0
5.7152,2.0981e-05,0
5.7157,2.4674e-05,0
5.7162,3.1724e-05,0
5.7167,4.3809e-05,0
5.7172,6.5293e-05,0
5.7178,8.8457e-05,0
5.7183,0.00010491,0
5.7188,0.00011498,0
5.7193,0.00012068,0
5.7198,0.00011934,0
5.7204,0.00011128,0
5.7209,9.8527e-05,0
5.7214,8.1743e-05,0
5.7219,5.8915e-05,0
5.7224,3.1388e-05,0
5.723,1.0071e-06,0
5.7235,-2.7192e-05,0
5.724,-5.0523e-05,0
5.7245,-6.949e-05,0
5.725,-8.4092e-05,0
5.7256,-9.6513e-05,0
5.7261,-0.00010491,0
5.7266,-0.00010004,0
5.7271,-8.1407e-05,0
5.7276,-5.6733e-05,0
5.7282,-3.2395e-05,0
5.7287,-1.1246e-05,0
5.7292,5.8747e-06,0
5.7297,2.182e-05,0
5.7302,3.6088e-05,0
5.7307,4.8005e-05,0
5.7313,5.3544e-05,0
5.7318,5.0858e-05,0
5.7323,4.2802e-05,0
5.7328,3.8437e-05,0
5.7333,3.592e-05,0
5.7339,3.0716e-05,0
5.7344,2.7359e-05,0
5.7349,2.7863e-05,0
5.7354,2.7024e-05,0
5.7359,2.4338e-05,0
5.7365,2.2324e-05,0
5.737,2.0645e-05,0
5.7375,1.9471e-05,0
5.738,2.0981e-05,0
5.7385,2.182e-05,0
5.7391,2.0813e-05,0
5.7396,1.9135e-05,0
5.7401,1.8463e-05,0
5.7406,1.8967e-05,0
5.7411,1.9974e-05,0
5.7417,2.1317e-05,0
5.7422,2.2995e-05,0
5.7427,2.652e-05,0
5.7432,3.3906e-05,0
5.7437,4.213e-05,0
5.7443,4.8844e-05,0
5.7448,5.1865e-05,0
5.7453,5.2201e-05,0
5.7458,5.3544e-05,0
5.7463,5.3376e-05,0
5.7468,4.9516e-05,0
5.7474,4.683e-05,0
5.7479,4.5487e-05,0
5.7484,4.0452e-05,0
5.7489,3.2059e-05,0
5.7494,2.2324e-05,0
5.75,1.4603e-05,0
5.7505,1.1246e-05,0
5.751,6.8818e-06,0
5.7515,8.3925e-07,0
5.752,-1.5106e-06,0
5.7526,2.0142e-06,0
5.7531,6.714e-06,0
5.7536,1.0407e-05,0
5.7541,1.1078e-05,0
5.7546,1.091e-05,0
5.7552,1.4099e-05,0
5.7557,2.1317e-05,0
5.7562,3.0549e-05,0
5.7567,3.6088e-05,0
5.7572,3.4745e-05,0
5.7577,3.0381e-05,0
5.7583,2.7695e-05,0
5.7588,2.9038e-05,0
5.7593,3.1388e-05,0
5.7598,3.2731e-05,0
5.7603,3.1388e-05,0
5.7609,2.7359e-05,0
5.7614,2.4002e-05,0
5.7619,2.6017e-05,0
5.7624,3.0045e-05,0
5.7629,3.0716e-05,0
5.7635,2.7359e-05,0
5.764,2.5681e-05,0
5.7645,2.652e-05,0
5.765,2.266e-05,0
5.7655,1.2421e-05,0
5.7661,5.0355e-07,0
5.7666,-9.5674e-06,0
5.7671,-1.4099e-05,0
5.7676,-1.2924e-05,0
5.7681,-1.1582e-05,0
5.7687,-1.0239e-05,0
5.7692,-8.896e-06,0
5.7697,-7.2175e-06,0
5.7702,-4.0284e-06,0
5.7707,4.5319e-06,0
5.7713,1.796e-05,0
5.7718,2.7695e-05,0
5.7723,2.9038e-05,0
5.7728,2.6017e-05,0
5.7733,2.6688e-05,0
5.7738,3.4241e-05,0
5.7744,3.9109e-05,0
5.7749,3.6759e-05,0
5.7754,3.2395e-05,0
5.7759,2.7695e-05,0
5.7764,2.1317e-05,0
5.777,1.5946e-05,0
5.7775,1.1414e-05,0
5.778,5.2033e-06,0
5.7785,-2.5177e-06,0
5.779,-1.326e-05,0
5.7796,-2.8031e-05,0
5.7801,-4.3137e-05,0
5.7806,-5.4887e-05,0
5.7811,-6.2608e-05,0
5.7816,-6.865e-05,0
5.7822,-7.3518e-05,0
5.7827,-6.5461e-05,0
5.7832,-3.9948e-05,0
5.7837,-4.3641e-06,0
5.7842,3.2395e-05,0
5.7847,6.8986e-05,0
5.7853,9.9199e-05,0
5.7858,0.00011733,0
5.7863,0.0001237,0
5.7868,0.00012052,0
5.7873,0.00011128,0
5.7879,0.00010373,0
5.7884,9.987e-05,0
5.7889,9.836e-05,0
5.7894,9.9702e-05,0
5.7899,0.00010088,0
5.7905,9.7185e-05,0
5.791,8.8457e-05,0
5.7915,7.5029e-05,0
5.792,5.9586e-05,0
5.7925,4.6662e-05,0
5.7931,3.7095e-05,0
5.7936,2.7527e-05,0
5.7941,1.6785e-05,0
5.7946,3.5248e-06,0
5.7951,-1.2924e-05,0
5.7957,-2.9709e-05,0
5.7962,-4.7333e-05,0
5.7967,-6.4958e-05,0
5.7972,-7.4357e-05,0
5.7977,-7.5029e-05,0
5.7983,-7.3686e-05,0
5.7988,-7.1672e-05,0
5.7993,-6.4286e-05,0
5.7998,-5.0187e-05,0
5.8003,-3.3402e-05,0
5.8008,-1.8967e-05,0
5.8014,-7.7211e-06,0
5.8019,4.5319e-06,0
5.8024,1.5946e-05,0
5.8029,2.4002e-05,0
5.8034,2.8031e-05,0
5.804,3.3066e-05,0
5.8045,3.8437e-05,0
5.805,3.9948e-05,0
5.8055,3.7598e-05,0
5.806,3.2059e-05,0
5.8066,2.7695e-05,0
5.8071,3.122e-05,0
5.8076,4.1291e-05,0
5.8081,4.5823e-05,0
5.8086,3.7766e-05,0
5.8092,1.7288e-05,0
5.8097,-8.2246e-06,0
5.8102,-2.9038e-05,0
5.8107,-3.9277e-05,0
5.8112,-3.8773e-05,0
5.8117,-3.0716e-05,0
5.8123,-2.1653e-05,0
5.8128,-1.3764e-05,0
5.8133,-3.1891e-06,0
5.8138,8.5603e-06,0
5.8143,1.9974e-05,0
5.8149,3.2731e-05,0
5.8154,4.2634e-05,0
5.8159,4.7501e-05,0
5.8164,5.0523e-05,0
5.8169,5.2201e-05,0
5.8175,5.1362e-05,0
5.818,5.1865e-05,0
5.8185,5.6901e-05,0
5.819,6.4118e-05,0
5.8195,6.9657e-05,0
5.8201,7.2847e-05,0
5.8206,7.5029e-05,0
5.8211,7.5532e-05,0
5.8216,6.9322e-05,0
5.8221,6.0594e-05,0
5.8227,5.2873e-05,0
5.8232,4.4312e-05,0
5.8237,3.8102e-05,0
5.8242,3.3402e-05,0
5.8247,2.6352e-05,0
5.8252,2.1653e-05,0
5.8258,2.1317e-05,0
5.8263,2.2492e-05,0
5.8268,2.4002e-05,0
5.8273,2.652e-05,0
5.8278,2.8367e-05,0
5.8284,3.0381e-05,0
5.8289,3.4913e-05,0
5.8294,4.0452e-05,0
5.8299,4.2466e-05,0
5.8304,4.2802e-05,0
5.831,4.4816e-05,0
5.8315,4.8173e-05,0
5.832,4.9851e-05,0
5.8325,4.8173e-05,0
5.833,4.2802e-05,0
5.8336,3.6088e-05,0
5.8341,2.7695e-05,0
5.8346,1.8128e-05,0
5.8351,1.0239e-05,0
5.8356,6.5461e-06,0
5.8362,4.5319e-06,0
5.8367,1.6785e-07,0
5.8372,-4.5319e-06,0
5.8377,-8.896e-06,0
5.8382,-1.3764e-05,0
5.8388,-1.6281e-05,0
5.8393,-1.6281e-05,0
5.8398,-1.3596e-05,0
5.8403,-9.9031e-06,0
5.8408,-6.0426e-06,0
5.8413,0,0
5.8419,6.5461e-06,0
5.8424,1.1078e-05,0
5.8429,1.3596e-05,0
5.8434,1.5946e-05,0
5.8439,2.0981e-05,0
5.8445,2.6688e-05,0
5.845,3.2059e-05,0
5.8455,3.2563e-05,0
5.846,2.9206e-05,0
5.8465,2.5513e-05,0
5.8471,2.031e-05,0
5.8476,1.1582e-05,0
5.8481,4.1962e-06,0
5.8486,-5.0355e-07,0
5.8491,-6.714e-06,0
5.8497,-1.5946e-05,0
5.8502,-2.5345e-05,0
5.8507,-3.1388e-05,0
5.8512,-3.2395e-05,0
5.8517,-3.0045e-05,0
5.8522,-2.8031e-05,0
5.8528,-2.2995e-05,0
5.8533,-8.5603e-06,0
5.8538,1.5946e-05,0
5.8543,4.4816e-05,0
5.8548,6.6133e-05,0
5.8554,7.8721e-05,0
5.8559,8.9464e-05,0
5.8564,0.00010726,0
5.8569,0.00012992,0
5.8574,0.00014401,0
5.858,0.00014536,0
5.8585,0.00013814,0
5.859,0.00012572,0
5.8595,0.00010793,0
5.86,8.426e-05,0
5.8606,5.8915e-05,0
5.8611,3.8605e-05,0
5.8616,1.9303e-05,0
5.8621,-3.8605e-06,0
5.8626,-2.9374e-05,0
5.8632,-4.7166e-05,0
5.8637,-5.1194e-05,0
5.8642,-4.6159e-05,0
5.8647,-3.9948e-05,0
5.8652,-4.1123e-05,0
5.8658,-5.3208e-05,0
5.8663,-7.0832e-05,0
5.8668,-8.1407e-05,0
5.8673,-8.426e-05,0
5.8678,-7.9225e-05,0
5.8683,-6.9993e-05,0
5.8689,-6.3615e-05,0
5.8694,-5.9251e-05,0
5.8699,-5.1026e-05,0
5.8704,-4.2634e-05,0
5.8709,-3.5752e-05,0
5.8715,-2.5681e-05,0
5.872,-1.4267e-05,0
5.8725,-5.539e-06,0
5.873,4.3641e-06,0
5.8735,2.1149e-05,0
5.8741,4.0116e-05,0
5.8746,5.1194e-05,0
5.8751,5.0858e-05,0
5.8756,4.4144e-05,0
5.8761,3.9109e-05,0
5.8767,3.9277e-05,0
5.8772,4.4144e-05,0
5.8777,5.1865e-05,0
5.8782,5.623e-05,0
5.8787,5.3544e-05,0
5.8792,4.4984e-05,0
5.8798,3.4913e-05,0
5.8803,2.9709e-05,0
5.8808,3.1388e-05,0
5.8813,3.8102e-05,0
5.8818,4.5823e-05,0
5.8824,5.4047e-05,0
5.8829,6.4958e-05,0
5.8834,7.4022e-05,0
5.8839,8.1071e-05,0
5.8844,9.0471e-05,0
5.885,0.00010172,0
5.8855,0.00010994,0
5.886,0.00010524,0
5.8865,8.8121e-05,0
5.887,6.4286e-05,0
5.8876,4.448e-05,0
5.8881,3.9109e-05,0
5.8886,4.4144e-05,0
5.8891,4.4144e-05,0
5.8896,2.8367e-05,0
5.8902,5.2033e-06,0
5.8907,-8.896e-06,0
5.8912,-1.0239e-05,0
5.8917,-1.6785e-06,0
5.8922,8.7282e-06,0
5.8928,1.4939e-05,0
5.8933,1.5946e-05,0
5.8938,1.4603e-05,0
5.8943,1.1078e-05,0
5.8948,8.3925e-06,0
5.8953,1.2253e-05,0
5.8959,2.3499e-05,0
5.8964,3.508e-05,0
5.8969,4.0116e-05,0
5.8974,3.3738e-05,0
5.8979,1.7456e-05,0
5.8985,2.6856e-06,0
5.899,-7.3854e-06,0
5.8995,-1.5778e-05,0
5.9,-1.7624e-05,0
5.9005,-1.1246e-05,0
5.9011,1.0071e-06,0
5.9016,1.3596e-05,0
5.9021,2.0645e-05,0
5.9026,2.3499e-05,0
5.9031,2.2828e-05,0
5.9037,1.8967e-05,0
5.9042,1.4939e-05,0
5.9047,1.1917e-05,0
5.9052,8.896e-06,0
5.9057,6.3783e-06,0
5.9062,8.2246e-06,0
5.9068,1.2757e-05,0
5.9073,1.6449e-05,0
5.9078,1.6953e-05,0
5.9083,1.3596e-05,0
5.9088,9.2317e-06,0
5.9094,3.1891e-06,0
5.9099,-5.0355e-06,0
5.9104,-1.3931e-05,0
5.9109,-2.0645e-05,0
5.9114,-2.0981e-05,0
5.912,-1.561e-05,0
5.9125,-6.8818e-06,0
5.913,4.5319e-06,0
5.9135,1.9974e-05,0
5.914,3.4577e-05,0
5.9146,4.2466e-05,0
5.9151,4.7501e-05,0
5.9156,5.4215e-05,0
5.9161,5.6901e-05,0
5.9166,5.623e-05,0
5.9172,5.8747e-05,0
5.9177,6.63e-05,0
5.9182,6.865e-05,0
5.9187,5.4887e-05,0
5.9192,3.0381e-05,0
5.9197,4.5319e-06,0
5.9203,-1.1414e-05,0
5.9208,-1.5946e-05,0
5.9213,-1.2253e-05,0
5.9218,-4.3641e-06,0
5.9223,4.8676e-06,0
5.9229,1.1917e-05,0
5.9234,1.4435e-05,0
5.9239,1.3931e-05,0
5.9244,1.3596e-05,0
5.9249,1.3764e-05,0
5.9255,1.2589e-05,0
5.926,1.1917e-05,0
5.9265,7.8889e-06,0
5.927,1.6785e-06,0
5.9275,-3.5248e-06,0
5.9281,-6.714e-06,0
5.9286,-8.896e-06,0
5.9291,-1.0239e-05,0
5.9296,-1.3596e-05,0
5.9301,-1.5274e-05,0
5.9307,-1.4771e-05,0
5.9312,-1.4435e-05,0
5.9317,-1.6281e-05,0
5.9322,-1.8463e-05,0
5.9327,-1.3596e-05,0
5.9333,1.5106e-06,0
5.9338,2.031e-05,0
5.9343,3.743e-05,0
5.9348,5.0187e-05,0
5.9353,5.8412e-05,0
5.9358,6.5461e-05,0
5.9364,7.1e-05,0
5.9369,7.1672e-05,0
5.9374,6.7979e-05,0
5.9379,6.3447e-05,0
5.9384,6.0258e-05,0
5.939,5.7237e-05,0
5.9395,5.4719e-05,0
5.94,5.0187e-05,0
5.9405,4.3473e-05,0
5.941,3.3738e-05,0
5.9416,2.0981e-05,0
5.9421,3.8605e-06,0
5.9426,-1.1917e-05,0
5.9431,-2.182e-05,0
5.9436,-2.3499e-05,0
5.9442,-1.8296e-05,0
5.9447,-9.5674e-06,0
5.9452,2.0142e-06,0
5.9457,1.6953e-05,0
5.9462,2.8031e-05,0
5.9467,3.5752e-05,0
5.9473,4.3809e-05,0
5.9478,5.3544e-05,0
5.9483,6.009e-05,0
5.9488,6.3279e-05,0
5.9493,6.7308e-05,0
5.9499,7.4525e-05,0
5.9504,8.275e-05,0
5.9509,8.7449e-05,0
5.9514,8.7785e-05,0
5.9519,8.1071e-05,0
5.9525,6.1936e-05,0
5.953,3.5752e-05,0
5.9535,1.7624e-05,0
5.954,1.6953e-05,0
5.9545,2.4002e-05,0
5.9551,2.1317e-05,0
5.9556,8.2246e-06,0
5.9561,-6.3783e-06,0
5.9566,-1.6281e-05,0
5.9571,-1.7288e-05,0
5.9577,-1.5274e-05,0
5.9582,-1.3931e-05,0
5.9587,-1.3092e-05,0
5.9592,-1.1078e-05,0
5.9597,-7.8889e-06,0
5.9603,-6.714e-06,0
5.9608,-8.896e-06,0
5.9613,-9.5674e-06,0
5.9618,-6.3783e-06,0
5.9623,-1.8463e-06,0
5.9628,4.5319e-06,0
5.9634,1.1582e-05,0
5.9639,1.5946e-05,0
5.9644,1.4099e-05,0
5.9649,1.1246e-05,0
5.9654,1.0575e-05,0
5.966,1.0239e-05,0
5.9665,1.2924e-05,0
5.967,1.9638e-05,0
5.9675,2.8367e-05,0
5.968,3.3738e-05,0
5.9686,3.2731e-05,0
5.9691,2.6017e-05,0
5.9696,2.031e-05,0
5.9701,1.9806e-05,0
5.9706,2.1317e-05,0
5.9712,2.1317e-05,0
5.9717,1.7288e-05,0
5.9722,1.326e-05,0
5.9727,1.6617e-05,0
5.9732,2.6184e-05,0
5.9737,3.2059e-05,0
5.9743,3.3066e-05,0
5.9748,2.9374e-05,0
5.9753,2.8031e-05,0
5.9758,3.2059e-05,0
5.9763,3.6255e-05,0
5.9769,3.2563e-05,0
5.9774,2.1317e-05,0
5.9779,1.1917e-05,0
5.9784,1.1414e-05,0
5.9789,1.6953e-05,0
5.9795,2.266e-05,0
5.98,2.266e-05,0
5.9805,1.8296e-05,0
5.981,1.2421e-05,0
5.9815,1.1246e-05,0
5.9821,1.5946e-05,0
5.9826,2.1988e-05,0
5.9831,2.5849e-05,0
5.9836,2.8031e-05,0
5.9841,3.0716e-05,0
5.9847,2.6017e-05,0
5.9852,8.2246e-06,0
5.9857,-1.8296e-05,0
5.9862,-4.3137e-05,0
5.9867,-6.4622e-05,0
5.9873,-7.57e-05,0
5.9878,-7.0665e-05,0
5.9883,-5.3544e-05,0
5.9888,-3.3402e-05,0
5.9893,-1.1246e-05,0
5.9898,1.326e-05,0
5.9904,3.6088e-05,0
5.9909,5.153e-05,0
5.9914,6.0929e-05,0
5.9919,6.4958e-05,0
5.9924,6.0594e-05,0
5.993,5.1194e-05,0
5.9935,4.3473e-05,0
5.994,3.9109e-05,0
5.9945,3.7263e-05,0
5.995,3.8437e-05,0
5.9956,3.6088e-05,0
5.9961,2.1988e-05,0
5.9966,6.714e-07,0
5.9971,-1.1917e-05,0
5.9976,-3.1891e-06,0
5.9982,2.4002e-05,0
5.9987,5.0355e-05,0
5.9992,6.479e-05,0
5.9997,7.1e-05,0
6.0002,7.3518e-05,0
6.0008,6.9657e-05,0
6.0013,6.2943e-05,0
6.0018,5.623e-05,0
6.0023,4.7501e-05,0
6.0028,3.978e-05,0
6.0033,3.9109e-05,0
6.0039,4.1291e-05,0
6.0044,3.8102e-05,0
6.0049,3.3066e-05,0
6.0054,3.0716e-05,0
6.0059,3.2395e-05,0
6.0065,3.508e-05,0
6.007,3.4073e-05,0
6.0075,2.7024e-05,0
6.008,1.7288e-05,0
6.0085,9.9031e-06,0
6.0091,6.5461e-06,0
6.0096,6.2104e-06,0
6.0101,1.0575e-05,0
6.0106,1.561e-05,0
6.0111,1.796e-05,0
6.0117,1.7792e-05,0
6.0122,1.796e-05,0
6.0127,2.1149e-05,0
6.0132,2.9206e-05,0
6.0137,3.9445e-05,0
6.0142,4.7501e-05,0
6.0148,5.2201e-05,0
6.0153,5.5726e-05,0
6.0158,5.8747e-05,0
6.0163,5.623e-05,0
6.0168,4.5991e-05,0
6.0174,3.1556e-05,0
6.0179,1.7624e-05,0
6.0184,9.0639e-06,0
6.0189,1.1749e-06,0
6.0194,-1.0407e-05,0
6.02,-2.0981e-05,0
6.0205,-2.7695e-05,0
6.021,-3.6759e-05,0
6.0215,-4.5319e-05,0
6.022,-4.8844e-05,0
6.0226,-4.9516e-05,0
6.0231,-5.0523e-05,0
6.0236,-5.0858e-05,0
6.0241,-4.7166e-05,0
6.0246,-3.978e-05,0
6.0252,-3.122e-05,0
6.0257,-2.3835e-05,0
6.0262,-1.7456e-05,0
6.0267,-1.0407e-05,0
6.0272,-3.5248e-06,0
6.0278,1.1749e-06,0
6.0283,4.8676e-06,0
6.0288,8.2246e-06,0
6.0293,9.9031e-06,0
6.0298,9.5674e-06,0
6.0303,8.3925e-06,0
6.0309,1.0575e-05,0
6.0314,1.6617e-05,0
6.0319,2.2492e-05,0
6.0324,2.7192e-05,0
6.0329,3.0884e-05,0
6.0335,3.3738e-05,0
6.034,3.6591e-05,0
6.0345,3.8437e-05,0
6.035,4.0116e-05,0
6.0355,4.3809e-05,0
6.0361,4.7166e-05,0
6.0366,4.5487e-05,0
6.0371,4.0452e-05,0
6.0376,3.508e-05,0
6.0381,3.4409e-05,0
6.0387,3.7095e-05,0
6.0392,3.8102e-05,0
6.0397,3.5584e-05,0
6.0402,3.2731e-05,0
6.0407,3.122e-05,0
6.0412,2.8031e-05,0
6.0418,2.1317e-05,0
6.0423,1.6281e-05,0
6.0428,2.0813e-05,0
6.0433,3.0716e-05,0
6.0438,3.4073e-05,0
6.0444,2.9709e-05,0
6.0449,2.4338e-05,0
6.0454,1.7288e-05,0
6.0459,5.3712e-06,0
6.0464,-4.5319e-06,0
6.047,-7.8889e-06,0
6.0475,-5.7069e-06,0
6.048,1.6785e-07,0
6.0485,6.2104e-06,0
6.049,1.1917e-05,0
6.0496,1.9303e-05,0
6.0501,3.0213e-05,0
6.0506,4.2634e-05,0
6.0511,4.7166e-05,0
6.0516,4.0116e-05,0
6.0522,2.887e-05,0
6.0527,1.9471e-05,0
6.0532,1.9638e-05,0
6.0537,2.9038e-05,0
6.0542,4.2802e-05,0
6.0548,6.009e-05,0
6.0553,7.6371e-05,0
6.0558,8.5267e-05,0
6.0563,8.5771e-05,0
6.0568,7.9728e-05,0
6.0573,6.9993e-05,0
6.0579,6.0929e-05,0
6.0584,5.3544e-05,0
6.0589,4.6159e-05,0
6.0594,3.7095e-05,0
6.0599,2.6688e-05,0
6.0605,1.7624e-05,0
6.061,1.5274e-05,0
6.0615,1.7121e-05,0
6.062,1.8631e-05,0
6.0625,1.3764e-05,0
6.0631,-3.1891e-06,0
6.0636,-2.6352e-05,0
6.0641,-4.5319e-05,0
6.0646,-4.9348e-05,0
6.0651,-3.9277e-05,0
6.0657,-3.0045e-05,0
6.0662,-3.2731e-05,0
6.0667,-4.0787e-05,0
6.0672,-4.1291e-05,0
6.0677,-2.8367e-05,0
6.0682,-1.0742e-05,0
6.0688,-8.3925e-07,0
6.0693,-3.5248e-06,0
6.0698,-1.4603e-05,0
6.0703,-2.2995e-05,0
6.0708,-2.7024e-05,0
6.0714,-2.9709e-05,0
6.0719,-2.7863e-05,0
6.0724,-2.2492e-05,0
6.0729,-1.6281e-05,0
6.0734,-9.5674e-06,0
6.074,-2.5177e-06,0
6.0745,7.5532e-06,0
6.075,2.182e-05,0
6.0755,3.8437e-05,0
6.076,5.304e-05,0
6.0766,6.1936e-05,0
6.0771,6.5965e-05,0
6.0776,6.9657e-05,0
6.0781,7.2007e-05,0
6.0786,7.0329e-05,0
6.0792,6.6972e-05,0
6.0797,6.2272e-05,0
6.0802,5.8915e-05,0
6.0807,5.8579e-05,0
6.0812,5.5558e-05,0
6.0818,5.0187e-05,0
6.0823,4.6494e-05,0
6.0828,4.4816e-05,0
6.0833,4.3137e-05,0
6.0838,4.1962e-05,0
6.0843,4.2802e-05,0
6.0849,4.7501e-05,0
6.0854,5.2873e-05,0
6.0859,5.4887e-05,0
6.0864,5.3544e-05,0
6.0869,5.2201e-05,0
6.0875,5.4551e-05,0
6.088,5.6901e-05,0
6.0885,5.5894e-05,0
6.089,5.0858e-05,0
6.0895,4.1459e-05,0
6.0901,3.122e-05,0
6.0906,2.2995e-05,0
6.0911,1.4939e-05,0
6.0916,6.5461e-06,0
6.0921,0,0
6.0927,-5.539e-06,0
6.0932,-1.3428e-05,0
6.0937,-2.1988e-05,0
6.0942,-3.0045e-05,0
6.0947,-3.3234e-05,0
6.0953,-3.1556e-05,0
6.0958,-2.7863e-05,0
6.0963,-2.2324e-05,0
6.0968,-1.6114e-05,0
6.0973,-1.1749e-05,0
6.0978,-8.5603e-06,0
6.0984,-1.1749e-06,0
6.0989,8.3925e-06,0
6.0994,1.4603e-05,0
6.0999,1.796e-05,0
6.1004,2.0645e-05,0
6.101,2.2492e-05,0
6.1015,2.4506e-05,0
6.102,2.7863e-05,0
6.1025,2.8031e-05,0
6.103,2.2995e-05,0
6.1036,1.4603e-05,0
6.1041,6.2104e-06,0
6.1046,5.0355e-07,0
6.1051,-8.3925e-07,0
6.1056,2.5177e-06,0
6.1062,9.2317e-06,0
6.1067,1.6953e-05,0
6.1072,2.2492e-05,0
6.1077,2.7024e-05,0
6.1082,3.2731e-05,0
6.1087,4.4816e-05,0
6.1093,5.7908e-05,0
6.1098,6.4118e-05,0
6.1103,6.0594e-05,0
6.1108,5.3544e-05,0
6.1113,4.6998e-05,0
6.1119,4.213e-05,0
6.1124,4.0116e-05,0
6.1129,4.2802e-05,0
6.1134,5.0858e-05,0
6.1139,5.8747e-05,0
6.1145,6.3615e-05,0
6.115,6.6636e-05,0
6.1155,7.0832e-05,0
6.116,7.7714e-05,0
6.1165,8.191e-05,0
6.1171,8.2078e-05,0
6.1176,8.4428e-05,0
6.1181,9.0639e-05,0
6.1186,8.9464e-05,0
6.1191,7.4022e-05,0
6.1197,5.0187e-05,0
6.1202,2.5345e-05,0
6.1207,4.5319e-06,0
6.1212,-1.3092e-05,0
6.1217,-2.7527e-05,0
6.1223,-3.8102e-05,0
6.1228,-4.6662e-05,0
6.1233,-5.2369e-05,0
6.1238,-5.2537e-05,0
6.1243,-5.2369e-05,0
6.1248,-5.7237e-05,0
6.1254,-6.4958e-05,0
6.1259,-6.9322e-05,0
6.1264,-6.9657e-05,0
6.1269,-6.9322e-05,0
6.1274,-6.7643e-05,0
6.128,-6.1433e-05,0
6.1285,-4.7837e-05,0
6.129,-2.9206e-05,0
6.1295,-1.3092e-05,0
6.13,8.3925e-07,0
6.1306,1.4099e-05,0
6.1311,2.2995e-05,0
6.1316,2.5177e-05,0
6.1321,2.1317e-05,0
6.1326,1.7121e-05,0
6.1332,1.5778e-05,0
6.1337,1.6449e-05,0
6.1342,1.4603e-05,0
6.1347,5.539e-06,0
6.1352,-8.7282e-06,0
6.1357,-1.7624e-05,0
6.1363,-1.5946e-05,0
6.1368,-8.2246e-06,0
6.1373,1.5106e-06,0
6.1378,1.5274e-05,0
6.1383,3.1891e-05,0
6.1389,4.9516e-05,0
6.1394,7.4357e-05,0
6.1399,0.00010289,0
6.1404,0.0001232,0
6.1409,0.0001284,0
6.1415,0.00012404,0
6.142,0.00011565,0
6.1425,0.00010373,0
6.143,8.8289e-05,0
6.1435,7.1504e-05,0
6.1441,5.8076e-05,0
6.1446,5.0858e-05,0
6.1451,4.5823e-05,0
6.1456,3.8102e-05,0
6.1461,2.7527e-05,0
6.1467,1.7624e-05,0
6.1472,1.4771e-05,0
6.1477,1.4267e-05,0
6.1482,1.1582e-05,0
6.1487,6.8818e-06,0
6.1493,5.7069e-06,0
6.1498,1.2085e-05,0
6.1503,2.3331e-05,0
6.1508,3.1388e-05,0
6.1513,3.5416e-05,0
6.1518,4.0452e-05,0
6.1524,4.4816e-05,0
6.1529,4.448e-05,0
6.1534,4.2802e-05,0
6.1539,4.2634e-05,0
6.1544,4.0787e-05,0
6.155,3.592e-05,0
6.1555,2.9877e-05,0
6.156,2.1317e-05,0
6.1565,6.5461e-06,0
6.157,-9.7353e-06,0
6.1576,-1.8631e-05,0
6.1581,-2.0142e-05,0
6.1586,-1.6449e-05,0
6.1591,-1.4603e-05,0
6.1596,-1.4435e-05,0
6.1602,-1.1582e-05,0
6.1607,-5.7069e-06,0
6.1612,1.5106e-06,0
6.1617,8.3925e-06,0
6.1622,1.2085e-05,0
6.1627,1.7288e-05,0
6.1633,2.031e-05,0
6.1638,1.7288e-05,0
6.1643,1.091e-05,0
6.1648,6.5461e-06,0
6.1653,7.3854e-06,0
6.1659,1.1078e-05,0
6.1664,1.3764e-05,0
6.1669,1.5946e-05,0
6.1674,1.8128e-05,0
6.1679,1.7624e-05,0
6.1685,1.5946e-05,0
6.169,1.5442e-05,0
6.1695,1.3092e-05,0
6.17,9.3996e-06,0
6.1705,7.2175e-06,0
6.1711,7.8889e-06,0
6.1716,8.7282e-06,0
6.1721,9.0639e-06,0
6.1726,1.0239e-05,0
6.1731,1.326e-05,0
6.1737,1.2924e-05,0
6.1742,1.0239e-05,0
6.1747,1.0575e-05,0
6.1752,1.3596e-05,0
6.1757,1.6281e-05,0
6.1762,2.1988e-05,0
6.1768,3.5248e-05,0
6.1773,5.1194e-05,0
6.1778,6.1601e-05,0
6.1783,6.1601e-05,0
6.1788,5.8244e-05,0
6.1794,5.6565e-05,0
6.1799,5.8915e-05,0
6.1804,6.009e-05,0
6.1809,5.2537e-05,0
6.1814,3.6088e-05,0
6.182,1.7288e-05,0
6.1825,0,0
6.183,-1.4939e-05,0
6.1835,-3.1052e-05,0
6.184,-4.5487e-05,0
6.1846,-5.2369e-05,0
6.1851,-4.9516e-05,0
6.1856,-3.7095e-05,0
6.1861,-2.3499e-05,0
6.1866,-1.8296e-05,0
6.1872,-2.0478e-05,0
6.1877,-2.2156e-05,0
6.1882,-1.6953e-05,0
6.1887,-8.2246e-06,0
6.1892,-1.8463e-06,0
6.1898,-1.5106e-06,0
6.1903,-8.896e-06,0
6.1908,-2.1317e-05,0
6.1913,-2.9877e-05,0
6.1918,-3.0716e-05,0
6.1923,-2.4506e-05,0
6.1929,-1.2589e-05,0
6.1934,5.7069e-06,0
6.1939,3.0549e-05,0
6.1944,5.5894e-05,0
6.1949,7.7714e-05,0
6.1955,0.00010037,0
6.196,0.00012203,0
6.1965,0.00013915,0
6.197,0.00014754,0
6.1975,0.00015023,0
6.1981,0.00015123,0
6.1986,0.00014922,0
6.1991,0.00014015,0
6.1996,0.00012656,0
6.2001,0.00010994,0
6.2007,9.3324e-05,0
6.2012,7.9896e-05,0
6.2017,6.6972e-05,0
6.2022,5.2033e-05,0
6.2027,3.6759e-05,0
6.2032,2.3835e-05,0
6.2038,1.3931e-05,0
6.2043,7.5532e-06,0
6.2048,5.0355e-07,0
6.2053,-7.7211e-06,0
6.2058,-1.6281e-05,0
6.2064,-2.2324e-05,0
6.2069,-2.6017e-05,0
6.2074,-2.6352e-05,0
6.2079,-2.1653e-05,0
6.2084,-1.1749e-05,0
6.209,2.8534e-06,0
6.2095,1.8296e-05,0
6.21,3.2395e-05,0
6.2105,4.7501e-05,0
6.211,6.0761e-05,0
6.2116,6.4958e-05,0
6.2121,5.8244e-05,0
6.2126,4.4816e-05,0
6.2131,2.7024e-05,0
6.2136,8.2246e-06,0
6.2142,-1.2253e-05,0
6.2147,-3.3066e-05,0
6.2152,-5.0523e-05,0
6.2157,-6.4622e-05,0
6.2162,-7.2679e-05,0
6.2168,-7.0497e-05,0
6.2173,-6.0594e-05,0
6.2178,-5.1698e-05,0
6.2183,-4.9516e-05,0
6.2188,-5.0858e-05,0
6.2193,-5.069e-05,0
6.2199,-4.683e-05,0
6.2204,-3.978e-05,0
6.2209,-3.4745e-05,0
6.2214,-3.1052e-05,0
6.2219,-2.4338e-05,0
6.2225,-1.561e-05,0
6.223,-7.5532e-06,0
6.2235,-1.5106e-06,0
6.224,3.8605e-06,0
6.2245,1.2253e-05,0
6.2251,2.0478e-05,0
6.2256,2.4674e-05,0
6.2261,2.7863e-05,0
6.2266,3.0716e-05,0
6.2271,3.3066e-05,0
6.2277,3.4745e-05,0
6.2282,3.4745e-05,0
6.2287,3.3066e-05,0
6.2292,2.7695e-05,0
6.2297,1.9638e-05,0
6.2302,1.5946e-05,0
6.2308,2.4002e-05,0
6.2313,3.8102e-05,0
6.2318,4.7669e-05,0
6.2323,4.6494e-05,0
6.2328,4.1794e-05,0
6.2334,4.1291e-05,0
6.2339,4.3809e-05,0
6.2344,4.8173e-05,0
6.2349,5.4215e-05,0
6.2354,5.623e-05,0
6.236,5.5726e-05,0
6.2365,5.4047e-05,0
6.237,5.2873e-05,0
6.2375,5.539e-05,0
6.238,5.7237e-05,0
6.2386,5.3208e-05,0
6.2391,4.7166e-05,0
6.2396,4.1123e-05,0
6.2401,3.2395e-05,0
6.2406,2.266e-05,0
6.2412,1.5106e-05,0
6.2417,1.3764e-05,0
6.2422,1.561e-05,0
6.2427,1.8631e-05,0
6.2432,1.9974e-05,0
6.2438,2.0645e-05,0
6.2443,2.3499e-05,0
6.2448,2.8031e-05,0
6.2453,3.2731e-05,0
6.2458,3.5584e-05,0
6.2463,3.3402e-05,0
6.2469,2.8367e-05,0
6.2474,2.3331e-05,0
6.2479,1.8128e-05,0
6.2484,1.2924e-05,0
6.2489,9.9031e-06,0
6.2495,9.7353e-06,0
6.25,8.7282e-06,0
6.2505,7.2175e-06,0
6.251,4.8676e-06,0
6.2515,1.0071e-06,0
6.2521,-2.8534e-06,0
6.2526,-4.8676e-06,0
6.2531,-3.5248e-06,0
6.2536,5.0355e-07,0
6.2541,3.5248e-06,0
6.2547,2.8534e-06,0
6.2552,-1.1749e-06,0
6.2557,-5.8747e-06,0
6.2562,-8.2246e-06,0
6.2567,-7.0497e-06,0
6.2572,-4.5319e-06,0
6.2578,-4.1962e-06,0
6.2583,-3.5248e-06,0
6.2588,-8.3925e-07,0
6.2593,1.1749e-06,0
6.2598,5.2033e-06,0
6.2604,1.5946e-05,0
6.2609,3.0381e-05,0
6.2614,3.9612e-05,0
6.2619,4.2802e-05,0
6.2624,4.6494e-05,0
6.263,5.4719e-05,0
6.2635,6.6804e-05,0
6.264,7.8721e-05,0
6.2645,8.6946e-05,0
6.265,9.4163e-05,0
6.2656,9.987e-05,0
6.2661,0.00010037,0
6.2666,9.5171e-05,0
6.2671,8.8289e-05,0
6.2676,7.9561e-05,0
6.2682,6.5629e-05,0
6.2687,4.9516e-05,0
6.2692,3.6591e-05,0
6.2697,2.652e-05,0
6.2702,1.4939e-05,0
6.2707,-6.714e-07,0
6.2713,-1.561e-05,0
6.2718,-2.6184e-05,0
6.2723,-3.3066e-05,0
6.2728,-3.6591e-05,0
6.2733,-3.5416e-05,0
6.2739,-3.1556e-05,0
6.2744,-2.7192e-05,0
6.2749,-2.2995e-05,0
6.2754,-1.5946e-05,0
6.2759,-7.2175e-06,0
6.2765,2.0142e-06,0
6.277,1.1078e-05,0
6.2775,1.4267e-05,0
6.278,9.0639e-06,0
6.2785,3.5248e-06,0
6.2791,3.6927e-06,0
6.2796,6.8818e-06,0
6.2801,7.8889e-06,0
6.2806,8.896e-06,0
6.2811,9.2317e-06,0
6.2817,7.8889e-06,0
6.2822,8.2246e-06,0
6.2827,9.7353e-06,0
6.2832,1.0575e-05,0
6.2837,9.5674e-06,0
6.2843,4.8676e-06,0
6.2848,-1.5106e-06,0
6.2853,-5.539e-06,0
6.2858,-7.5532e-06,0
6.2863,-7.2175e-06,0
6.2868,-2.8534e-06,0
6.2874,5.2033e-06,0
6.2879,1.4603e-05,0
6.2884,2.2324e-05,0
6.2889,2.6688e-05,0
6.2894,2.9038e-05,0
6.29,3.1388e-05,0
6.2905,3.4073e-05,0
6.291,3.8102e-05,0
6.2915,4.2466e-05,0
6.292,4.213e-05,0
6.2926,3.827e-05,0
6.2931,3.357e-05,0
6.2936,3.1891e-05,0
6.2941,3.6088e-05,0
6.2946,4.6159e-05,0
6.2952,5.4215e-05,0
6.2957,5.0523e-05,0
6.2962,3.8773e-05,0
6.2967,2.8534e-05,0
6.2972,2.1988e-05,0
6.2977,1.5442e-05,0
6.2983,6.2104e-06,0
6.2988,-4.8676e-06,0
6.2993,-1.4267e-05,0
6.2998,-1.7456e-05,0
6.3003,-1.326e-05,0
6.3009,-6.2104e-06,0
6.3014,5.0355e-07,0
6.3019,5.8747e-06,0
6.3024,9.9031e-06,0
6.3029,1.1917e-05,0
6.3035,1.4939e-05,0
6.304,2.4338e-05,0
6.3045,3.8102e-05,0
6.305,4.8341e-05,0
6.3055,5.4719e-05,0
6.3061,6.2272e-05,0
6.3066,6.8986e-05,0
6.3071,6.8986e-05,0
6.3076,6.3279e-05,0
6.3081,5.8076e-05,0
6.3087,5.2537e-05,0
6.3092,4.3809e-05,0
6.3097,3.3738e-05,0
6.3102,2.3331e-05,0
6.3107,1.2589e-05,0
6.3113,2.5177e-06,0
6.3118,-6.2104e-06,0
6.3123,-1.091e-05,0
6.3128,-5.0355e-06,0
6.3133,9.3996e-06,0
6.3138,1.7288e-05,0
6.3144,1.4939e-05,0
6.3149,9.5674e-06,0
6.3154,7.5532e-06,0
6.3159,1.0071e-05,0
6.3164,1.4603e-05,0
6.317,1.5946e-05,0
6.3175,1.4435e-05,0
6.318,1.2924e-05,0
6.3185,1.1414e-05,0
6.319,1.1582e-05,0
6.3196,1.3931e-05,0
6.3201,1.6953e-05,0
6.3206,1.8296e-05,0
6.3211,1.6617e-05,0
6.3216,9.5674e-06,0
6.3222,1.5106e-06,0
6.3227,-5.0355e-07,0
6.3232,5.8747e-06,0
6.3237,1.796e-05,0
6.3242,2.9709e-05,0
6.3247,3.9109e-05,0
6.3253,4.5823e-05,0
6.3258,4.8173e-05,0
6.3263,4.4144e-05,0
6.3268,3.4577e-05,0
6.3273,2.5177e-05,0
6.3279,2.0981e-05,0
6.3284,2.0981e-05,0
6.3289,2.4002e-05,0
6.3294,2.8031e-05,0
6.3299,2.7527e-05,0
6.3305,2.266e-05,0
6.331,2.4002e-05,0
6.3315,3.6088e-05,0
6.332,4.8508e-05,0
6.3325,4.9516e-05,0
6.3331,4.1123e-05,0
6.3336,3.1052e-05,0
6.3341,2.266e-05,0
6.3346,1.5274e-05,0
6.3351,6.0426e-06,0
6.3357,-7.3854e-06,0
6.3362,-2.1317e-05,0
6.3367,-3.0716e-05,0
6.3372,-3.1891e-05,0
6.3377,-2.8199e-05,0
6.3383,-2.1988e-05,0
6.3388,-1.5946e-05,0
6.3393,-1.0407e-05,0
6.3398,-4.5319e-06,0
6.3403,1.6785e-07,0
6.3408,1.0239e-05,0
6.3414,2.3835e-05,0
6.3419,3.592e-05,0
6.3424,4.4648e-05,0
6.3429,4.7166e-05,0
6.3434,4.5823e-05,0
6.344,4.7501e-05,0
6.3445,4.8508e-05,0
6.345,4.3473e-05,0
6.3455,3.4409e-05,0
6.346,2.4338e-05,0
6.3466,8.5603e-06,0
6.3471,-1.1749e-05,0
6.3476,-2.4506e-05,0
6.3481,-2.4674e-05,0
6.3486,-1.4603e-05,0
6.3492,-6.714e-07,0
6.3497,1.0071e-05,0
6.3502,1.7288e-05,0
6.3507,2.3163e-05,0
6.3512,3.0716e-05,0
6.3518,4.0452e-05,0
6.3523,5.0858e-05,0
6.3528,6.0594e-05,0
6.3533,6.6133e-05,0
6.3538,6.7643e-05,0
6.3543,6.4958e-05,0
6.3549,5.9922e-05,0
6.3554,5.4215e-05,0
6.3559,4.8844e-05,0
6.3564,4.3809e-05,0
6.3569,3.7263e-05,0
6.3575,2.7695e-05,0
6.358,1.9806e-05,0
6.3585,1.8631e-05,0
6.359,1.9638e-05,0
6.3595,1.6953e-05,0
6.3601,1.1078e-05,0
6.3606,5.2033e-06,0
6.3611,0,0
6.3616,-9.9031e-06,0
6.3621,-2.4338e-05,0
6.3627,-3.8437e-05,0
6.3632,-4.7166e-05,0
6.3637,-5.1194e-05,0
6.3642,-5.153e-05,0
6.3647,-4.4144e-05,0
6.3652,-2.6688e-05,0
6.3658,-3.8605e-06,0
6.3663,1.6617e-05,0
6.3668,3.2059e-05,0
6.3673,4.213e-05,0
6.3678,5.069e-05,0
6.3684,6.1433e-05,0
6.3689,7.6036e-05,0
6.3694,9.7185e-05,0
6.3699,0.00011296,0
6.3704,0.00011112,0
6.371,9.3828e-05,0
6.3715,7.4357e-05,0
6.372,6.0594e-05,0
6.3725,5.2873e-05,0
6.373,4.7333e-05,0
6.3736,3.6759e-05,0
6.3741,2.3835e-05,0
6.3746,1.1749e-05,0
6.3751,8.3925e-07,0
6.3756,-7.8889e-06,0
6.3762,-1.3092e-05,0
6.3767,-1.4099e-05,0
6.3772,-1.4939e-05,0
6.3777,-1.8631e-05,0
6.3782,-2.0645e-05,0
6.3788,-1.7792e-05,0
6.3793,-1.3764e-05,0
6.3798,-1.4603e-05,0
6.3803,-1.9974e-05,0
6.3808,-2.2492e-05,0
6.3813,-2.2324e-05,0
6.3819,-1.9303e-05,0
6.3824,-1.2253e-05,0
6.3829,-4.8676e-06,0
6.3834,3.5248e-06,0
6.3839,1.2757e-05,0
6.3845,1.9135e-05,0
6.385,2.1317e-05,0
6.3855,2.3667e-05,0
6.386,2.7024e-05,0
6.3865,3.0045e-05,0
6.3871,3.1891e-05,0
6.3876,3.592e-05,0
6.3881,3.978e-05,0
6.3886,3.8773e-05,0
6.3891,3.4745e-05,0
6.3897,3.0045e-05,0
6.3902,2.5681e-05,0
6.3907,2.4338e-05,0
6.3912,2.5345e-05,0
6.3917,2.7863e-05,0
6.3922,2.9709e-05,0
6.3928,2.6184e-05,0
6.3933,1.796e-05,0
6.3938,1.1749e-05,0
6.3943,9.9031e-06,0
6.3948,5.0355e-06,0
6.3954,-4.6998e-06,0
6.3959,-1.2589e-05,0
6.3964,-1.3092e-05,0
6.3969,-4.1962e-06,0
6.3974,1.2253e-05,0
6.398,2.9374e-05,0
6.3985,3.743e-05,0
6.399,3.743e-05,0
6.3995,3.6423e-05,0
6.4,4.0116e-05,0
6.4006,4.7501e-05,0
6.4011,5.9754e-05,0
6.4016,7.6036e-05,0
6.4021,8.6778e-05,0
6.4026,9.0135e-05,0
6.4032,9.0639e-05,0
6.4037,8.4932e-05,0
6.4042,7.1336e-05,0
6.4047,5.7404e-05,0
6.4052,4.5991e-05,0
6.4058,3.8437e-05,0
6.4063,3.6423e-05,0
6.4068,3.5752e-05,0
6.4073,3.1891e-05,0
6.4078,2.1988e-05,0
6.4083,4.5319e-06,0
6.4089,-1.4267e-05,0
6.4094,-2.8199e-05,0
6.4099,-3.8437e-05,0
6.4104,-5.1865e-05,0
6.4109,-6.5293e-05,0
6.4115,-6.9993e-05,0
6.412,-6.2608e-05,0
6.4125,-5.0858e-05,0
6.413,-4.0955e-05,0
6.4135,-3.2563e-05,0
6.4141,-2.6184e-05,0
6.4146,-2.3667e-05,0
6.4151,-2.3667e-05,0
6.4156,-2.2828e-05,0
6.4161,-1.5946e-05,0
6.4167,-3.357e-07,0
6.4172,1.5946e-05,0
6.4177,2.7863e-05,0
6.4182,3.592e-05,0
6.4187,3.9948e-05,0
6.4192,3.978e-05,0
6.4198,3.5416e-05,0
6.4203,2.7527e-05,0
6.4208,2.182e-05,0
6.4213,1.9974e-05,0
6.4218,2.1317e-05,0
6.4224,2.5345e-05,0
6.4229,2.9374e-05,0
6.4234,3.3066e-05,0
6.4239,4.1962e-05,0
6.4244,5.7572e-05,0
6.425,7.7714e-05,0
6.4255,9.5506e-05,0
6.426,0.00010507,0
6.4265,0.00010574,0
6.427,0.00010021,0
6.4276,9.1814e-05,0
6.4281,8.51e-05,0
6.4286,7.9728e-05,0
6.4291,6.949e-05,0
6.4296,5.3544e-05,0
6.4302,3.2395e-05,0
6.4307,9.5674e-06,0
6.4312,-4.3641e-06,0
6.4317,-6.2104e-06,0
6.4322,-2.8534e-06,0
6.4328,2.5177e-06,0
6.4333,1.1917e-05,0
6.4338,2.1317e-05,0
6.4343,2.5345e-05,0
6.4348,2.0478e-05,0
6.4353,1.0575e-05,0
6.4359,6.2104e-06,0
6.4364,8.896e-06,0
6.4369,1.326e-05,0
6.4374,1.4603e-05,0
6.4379,1.0575e-05,0
6.4385,4.1962e-06,0
6.439,-1.0071e-06,0
6.4395,-1.0071e-06,0
6.44,2.5177e-06,0
6.4405,3.5248e-06,0
6.4411,-1.3428e-06,0
6.4416,-1.0575e-05,0
6.4421,-1.9974e-05,0
6.4426,-2.3667e-05,0
6.4431,-1.9303e-05,0
