2.4155,7.8889e-06,0
2.416,9.7353e-06,0
2.4165,1.6617e-05,0
2.417,2.9877e-05,0
2.4175,4.7166e-05,0
2.4181,6.6468e-05,0
2.4186,7.6036e-05,0
2.4191,7.805e-05,0
2.4196,8.4092e-05,0
2.4201,9.7856e-05,0
2.4207,0.00010591,0
2.4212,9.9031e-05,0
2.4217,8.04e-05,0
2.4222,5.8579e-05,0
2.4227,3.5584e-05,0
2.4232,1.5946e-05,0
2.4238,1.1749e-06,0
2.4243,-1.7288e-05,0
2.4248,-3.2731e-05,0
2.4253,-3.6255e-05,0
2.4258,-3.5752e-05,0
2.4264,-3.4745e-05,0
2.4269,-2.7695e-05,0
2.4274,-1.4939e-05,0
2.4279,-5.0355e-06,0
2.4284,1.6785e-07,0
2.429,4.5319e-06,0
2.4295,7.8889e-06,0
2.43,1.2421e-05,0
2.4305,2.031e-05,0
2.431,2.7192e-05,0
2.4316,2.9709e-05,0
2.4321,3.0381e-05,0
2.4326,3.2563e-05,0
2.4331,3.6088e-05,0
2.4336,4.1459e-05,0
2.4342,4.8173e-05,0
2.4347,5.539e-05,0
2.4352,6.3951e-05,0
2.4357,7.4693e-05,0
2.4362,8.2414e-05,0
2.4367,8.3757e-05,0
2.4373,8.5771e-05,0
2.4378,8.8121e-05,0
2.4383,8.8624e-05,0
2.4388,8.5771e-05,0
2.4393,7.7714e-05,0
2.4399,6.3447e-05,0
2.4404,4.3473e-05,0
2.4409,2.4002e-05,0
2.4414,6.5461e-06,0
2.4419,-1.3428e-05,0
2.4425,-3.5416e-05,0
2.443,-4.5823e-05,0
2.4435,-3.9445e-05,0
2.444,-2.9877e-05,0
2.4445,-2.6352e-05,0
2.4451,-2.2995e-05,0
2.4456,-1.6449e-05,0
2.4461,-1.091e-05,0
2.4466,-9.5674e-06,0
2.4471,-9.5674e-06,0
2.4477,-5.7069e-06,0
2.4482,2.5177e-06,0
2.4487,9.9031e-06,0
2.4492,1.7456e-05,0
2.4497,2.4338e-05,0
2.4503,2.8702e-05,0
2.4508,3.1052e-05,0
2.4513,3.4073e-05,0
2.4518,3.7934e-05,0
2.4523,3.9109e-05,0
2.4528,3.5416e-05,0
2.4534,3.0716e-05,0
2.4539,2.7695e-05,0
2.4544,2.3667e-05,0
2.4549,1.8296e-05,0
2.4554,1.3931e-05,0
2.456,1.3931e-05,0
2.4565,1.6281e-05,0
2.457,2.031e-05,0
2.4575,2.1653e-05,0
2.458,1.9135e-05,0
2.4586,1.9638e-05,0
2.4591,2.8367e-05,0
2.4596,3.743e-05,0
2.4601,3.6591e-05,0
2.4606,3.1052e-05,0
2.4612,3.0549e-05,0
2.4617,3.1556e-05,0
2.4622,3.0716e-05,0
2.4627,3.0045e-05,0
2.4632,2.9709e-05,0
2.4638,2.9374e-05,0
2.4643,3.0716e-05,0
2.4648,2.9709e-05,0
2.4653,2.5681e-05,0
2.4658,1.8128e-05,0
2.4663,1.0239e-05,0
2.4669,6.714e-06,0
2.4674,1.0407e-05,0
2.4679,1.5946e-05,0
2.4684,1.6953e-05,0
2.4689,1.4603e-05,0
2.4695,1.3596e-05,0
2.47,1.3596e-05,0
2.4705,1.3596e-05,0
2.471,9.0639e-06,0
2.4715,-1.1749e-06,0
2.4721,-6.8818e-06,0
2.4726,-3.1891e-06,0
2.4731,6.0426e-06,0
2.4736,1.2924e-05,0
2.4741,1.5946e-05,0
2.4747,2.3331e-05,0
2.4752,3.8102e-05,0
2.4757,5.4887e-05,0
2.4762,6.4286e-05,0
2.4767,6.4286e-05,0
2.4773,6.2608e-05,0
2.4778,6.2104e-05,0
2.4783,6.0929e-05,0
2.4788,6.0258e-05,0
2.4793,6.1936e-05,0
2.4798,6.4286e-05,0
2.4804,6.5629e-05,0
2.4809,6.1601e-05,0
2.4814,4.9348e-05,0
2.4819,3.2059e-05,0
2.4824,9.9031e-06,0
2.483,-4.8676e-06,0
2.4835,-5.539e-06,0
2.484,-3.5248e-06,0
2.4845,-1.2253e-05,0
2.485,-2.9877e-05,0
2.4856,-5.304e-05,0
2.4861,-8.2078e-05,0
2.4866,-0.00010507,0
2.4871,-0.00010608,0
2.4876,-7.7211e-05,0
2.4882,-3.3402e-05,0
2.4887,4.8676e-06,0
2.4892,2.9206e-05,0
2.4897,3.3066e-05,0
2.4902,2.4842e-05,0
2.4907,1.8631e-05,0
2.4913,2.3331e-05,0
2.4918,3.3402e-05,0
2.4923,3.8773e-05,0
2.4928,3.6591e-05,0
2.4933,3.2059e-05,0
2.4939,3.2059e-05,0
2.4944,3.5752e-05,0
2.4949,3.2731e-05,0
2.4954,2.182e-05,0
2.4959,1.0575e-05,0
2.4965,5.0355e-06,0
2.497,9.9031e-06,0
2.4975,1.9303e-05,0
2.498,2.5345e-05,0
2.4985,2.9374e-05,0
2.4991,2.9206e-05,0
2.4996,2.8031e-05,0
2.5001,3.3234e-05,0
2.5006,3.7934e-05,0
2.5011,3.8102e-05,0
2.5017,3.7934e-05,0
2.5022,3.8437e-05,0
2.5027,3.7934e-05,0
2.5032,3.6088e-05,0
2.5037,3.4577e-05,0
2.5042,3.2395e-05,0
2.5048,3.3402e-05,0
2.5053,3.2059e-05,0
2.5058,3.122e-05,0
2.5063,3.7095e-05,0
2.5068,4.1459e-05,0
2.5074,4.1962e-05,0
2.5079,4.683e-05,0
2.5084,4.8676e-05,0
2.5089,3.978e-05,0
2.5094,2.3835e-05,0
2.51,6.5461e-06,0
2.5105,-4.8676e-06,0
2.511,-5.0355e-07,0
2.5115,1.2924e-05,0
2.512,1.2924e-05,0
2.5126,-7.3854e-06,0
2.5131,-3.508e-05,0
2.5136,-5.5894e-05,0
2.5141,-6.244e-05,0
2.5146,-5.4047e-05,0
2.5152,-3.5248e-05,0
2.5157,-1.3931e-05,0
2.5162,5.8747e-06,0
2.5167,1.8631e-05,0
2.5172,2.3331e-05,0
2.5177,2.3163e-05,0
2.5183,2.3331e-05,0
2.5188,2.8534e-05,0
2.5193,3.5752e-05,0
2.5198,4.0787e-05,0
2.5203,4.2466e-05,0
2.5209,4.0787e-05,0
2.5214,3.6927e-05,0
2.5219,3.2395e-05,0
2.5224,3.1052e-05,0
2.5229,3.0716e-05,0
2.5235,2.6352e-05,0
2.524,2.0981e-05,0
2.5245,2.031e-05,0
2.525,2.3331e-05,0
2.5255,2.7192e-05,0
2.5261,3.1052e-05,0
2.5266,3.1724e-05,0
2.5271,3.2395e-05,0
2.5276,3.5752e-05,0
2.5281,4.3809e-05,0
2.5287,5.153e-05,0
2.5292,5.5726e-05,0
2.5297,5.6565e-05,0
2.5302,5.4887e-05,0
2.5307,4.8844e-05,0
2.5312,4.062e-05,0
2.5318,3.0716e-05,0
2.5323,2.0981e-05,0
2.5328,1.796e-05,0
2.5333,2.2492e-05,0
2.5338,2.501e-05,0
2.5344,1.4267e-05,0
2.5349,-1.1749e-05,0
2.5354,-3.7766e-05,0
2.5359,-4.5823e-05,0
2.5364,-3.7598e-05,0
2.537,-2.6352e-05,0
2.5375,-1.4603e-05,0
2.538,-8.3925e-07,0
2.5385,1.1582e-05,0
2.539,1.6953e-05,0
2.5396,1.6281e-05,0
2.5401,1.4603e-05,0
2.5406,1.6617e-05,0
2.5411,1.9974e-05,0
2.5416,2.0981e-05,0
2.5422,2.1317e-05,0
2.5427,2.6352e-05,0
2.5432,3.508e-05,0
2.5437,4.448e-05,0
2.5442,4.9516e-05,0
2.5448,4.7837e-05,0
2.5453,3.743e-05,0
2.5458,2.6017e-05,0
2.5463,2.0981e-05,0
2.5468,2.0142e-05,0
2.5473,1.6953e-05,0
2.5479,1.0575e-05,0
2.5484,5.539e-06,0
2.5489,-3.357e-07,0
2.5494,-7.3854e-06,0
2.5499,-9.5674e-06,0
2.5505,-1.5106e-06,0
2.551,1.4099e-05,0
2.5515,2.7359e-05,0
2.552,3.3738e-05,0
2.5525,3.6759e-05,0
2.5531,3.8437e-05,0
2.5536,4.0116e-05,0
2.5541,4.2802e-05,0
2.5546,4.5823e-05,0
2.5551,4.918e-05,0
2.5557,5.2201e-05,0
2.5562,5.2705e-05,0
2.5567,5.153e-05,0
2.5572,5.0858e-05,0
2.5577,5.0187e-05,0
2.5583,4.8508e-05,0
2.5588,4.5991e-05,0
2.5593,4.5487e-05,0
2.5598,4.6159e-05,0
2.5603,4.7501e-05,0
2.5608,5.2873e-05,0
2.5614,5.6565e-05,0
2.5619,5.4887e-05,0
2.5624,5.0858e-05,0
2.5629,4.683e-05,0
2.5634,4.2802e-05,0
2.564,3.7934e-05,0
2.5645,2.9374e-05,0
2.565,1.561e-05,0
2.5655,-7.8889e-06,0
2.566,-3.4241e-05,0
2.5666,-5.1194e-05,0
2.5671,-6.0594e-05,0
2.5676,-6.4118e-05,0
2.5681,-5.7069e-05,0
2.5686,-4.0452e-05,0
2.5692,-2.4674e-05,0
2.5697,-1.7456e-05,0
2.5702,-1.3596e-05,0
2.5707,-7.7211e-06,0
2.5712,-7.5532e-06,0
2.5718,-1.5946e-05,0
2.5723,-2.2995e-05,0
2.5728,-1.8128e-05,0
2.5733,-2.3499e-06,0
2.5738,1.6617e-05,0
2.5743,3.2059e-05,0
2.5749,4.3809e-05,0
2.5754,5.0858e-05,0
2.5759,5.304e-05,0
2.5764,5.3544e-05,0
2.5769,6.1601e-05,0
2.5775,7.4861e-05,0
2.578,8.4092e-05,0
2.5785,8.1407e-05,0
2.579,6.6636e-05,0
2.5795,4.8508e-05,0
2.5801,3.2059e-05,0
2.5806,1.5778e-05,0
2.5811,-4.5319e-06,0
2.5816,-2.2828e-05,0
2.5821,-2.7359e-05,0
2.5827,-1.4267e-05,0
2.5832,7.5532e-06,0
2.5837,2.3331e-05,0
2.5842,2.9038e-05,0
2.5847,3.2563e-05,0
2.5852,3.9445e-05,0
2.5858,4.918e-05,0
2.5863,5.8915e-05,0
2.5868,6.7643e-05,0
2.5873,7.1336e-05,0
2.5878,6.6133e-05,0
2.5884,4.683e-05,0
2.5889,1.3931e-05,0
2.5894,-1.4267e-05,0
2.5899,-2.9374e-05,0
2.5904,-3.5584e-05,0
2.591,-3.6088e-05,0
2.5915,-3.0381e-05,0
2.592,-2.031e-05,0
2.5925,-1.2085e-05,0
2.593,-1.6953e-05,0
2.5936,-3.122e-05,0
2.5941,-4.3473e-05,0
2.5946,-3.978e-05,0
2.5951,-1.2253e-05,0
2.5956,2.3499e-05,0
2.5962,4.5151e-05,0
2.5967,5.0523e-05,0
2.5972,5.2873e-05,0
2.5977,5.5558e-05,0
2.5982,5.3208e-05,0
2.5987,4.2802e-05,0
2.5993,3.3066e-05,0
2.5998,2.9206e-05,0
2.6003,2.8199e-05,0
2.6008,2.3667e-05,0
2.6013,2.1988e-05,0
2.6019,2.9709e-05,0
2.6024,3.6088e-05,0
2.6029,3.1052e-05,0
2.6034,1.9303e-05,0
2.6039,1.1749e-05,0
2.6045,1.1246e-05,0
2.605,1.091e-05,0
2.6055,9.2317e-06,0
2.606,6.8818e-06,0
2.6065,0,0
2.6071,-1.3092e-05,0
2.6076,-2.2492e-05,0
2.6081,-2.2156e-05,0
2.6086,-1.4939e-05,0
2.6091,-3.5248e-06,0
2.6097,1.0239e-05,0
2.6102,2.266e-05,0
2.6107,2.9374e-05,0
2.6112,2.8367e-05,0
2.6117,2.2492e-05,0
2.6122,1.6281e-05,0
2.6128,1.3764e-05,0
2.6133,1.4771e-05,0
2.6138,1.7288e-05,0
2.6143,2.1988e-05,0
2.6148,2.8367e-05,0
2.6154,3.3738e-05,0
2.6159,3.8605e-05,0
2.6164,4.2802e-05,0
2.6169,4.213e-05,0
2.6174,3.9277e-05,0
2.618,4.062e-05,0
2.6185,4.2634e-05,0
2.619,4.5823e-05,0
2.6195,4.9012e-05,0
2.62,4.7837e-05,0
2.6206,4.448e-05,0
2.6211,4.2802e-05,0
2.6216,4.2466e-05,0
2.6221,4.0787e-05,0
2.6226,3.6759e-05,0
2.6232,3.0381e-05,0
2.6237,2.266e-05,0
2.6242,1.8296e-05,0
2.6247,1.6281e-05,0
2.6252,1.9135e-05,0
2.6258,2.5849e-05,0
2.6263,3.0381e-05,0
2.6268,2.6017e-05,0
2.6273,2.0981e-05,0
2.6278,2.031e-05,0
2.6283,2.1988e-05,0
2.6289,1.9974e-05,0
2.6294,1.4267e-05,0
2.6299,1.1414e-05,0
2.6304,1.2589e-05,0
2.6309,1.1582e-05,0
2.6315,5.2033e-06,0
2.632,-4.8676e-06,0
2.6325,-1.6114e-05,0
2.633,-2.2324e-05,0
2.6335,-2.266e-05,0
2.6341,-2.0142e-05,0
2.6346,-1.5274e-05,0
2.6351,-4.8676e-06,0
2.6356,4.5319e-06,0
2.6361,1.0575e-05,0
2.6367,1.8463e-05,0
2.6372,2.7192e-05,0
2.6377,3.4241e-05,0
2.6382,3.8437e-05,0
2.6387,4.1123e-05,0
2.6393,4.2802e-05,0
2.6398,4.2802e-05,0
2.6403,4.0452e-05,0
2.6408,3.5248e-05,0
2.6413,3.2059e-05,0
2.6418,3.2898e-05,0
2.6424,3.0045e-05,0
2.6429,1.9638e-05,0
2.6434,1.0239e-05,0
2.6439,7.2175e-06,0
2.6444,7.2175e-06,0
2.645,4.8676e-06,0
2.6455,1.6785e-07,0
2.646,-1.1749e-06,0
2.6465,3.8605e-06,0
2.647,9.2317e-06,0
2.6476,1.4603e-05,0
2.6481,2.4674e-05,0
2.6486,3.743e-05,0
2.6491,5.4215e-05,0
2.6496,7.1e-05,0
2.6502,7.9728e-05,0
2.6507,7.7043e-05,0
2.6512,6.5461e-05,0
2.6517,5.2201e-05,0
2.6522,4.4144e-05,0
2.6528,4.213e-05,0
2.6533,4.1123e-05,0
2.6538,3.7766e-05,0
2.6543,2.9038e-05,0
2.6548,1.4267e-05,0
2.6553,7.2175e-06,0
2.6559,9.2317e-06,0
2.6564,5.8747e-06,0
2.6569,-8.896e-06,0
2.6574,-1.9974e-05,0
2.6579,-1.796e-05,0
2.6585,-1.1582e-05,0
2.659,-1.7624e-05,0
2.6595,-3.4409e-05,0
2.66,-4.4816e-05,0
2.6605,-3.6088e-05,0
2.6611,-1.3596e-05,0
2.6616,9.9031e-06,0
2.6621,2.6688e-05,0
2.6626,4.0452e-05,0
2.6631,4.8844e-05,0
2.6637,5.1194e-05,0
2.6642,5.3208e-05,0
2.6647,5.3544e-05,0
2.6652,5.153e-05,0
2.6657,4.213e-05,0
2.6662,2.7359e-05,0
2.6668,1.2924e-05,0
2.6673,-2.8534e-06,0
2.6678,-2.182e-05,0
2.6683,-4.0116e-05,0
2.6688,-4.683e-05,0
2.6694,-4.1123e-05,0
2.6699,-2.6017e-05,0
2.6704,-6.2104e-06,0
2.6709,8.5603e-06,0
2.6714,1.1749e-05,0
2.672,1.0575e-05,0
2.6725,1.3931e-05,0
2.673,1.9806e-05,0
2.6735,2.4674e-05,0
2.674,3.1052e-05,0
2.6746,4.2634e-05,0
2.6751,5.4719e-05,0
2.6756,5.8579e-05,0
2.6761,5.8747e-05,0
2.6766,6.479e-05,0
2.6772,7.2007e-05,0
2.6777,7.5029e-05,0
2.6782,7.2343e-05,0
2.6787,6.6804e-05,0
2.6792,5.9251e-05,0
2.6797,5.2873e-05,0
2.6803,4.9516e-05,0
2.6808,4.2802e-05,0
2.6813,2.6184e-05,0
2.6818,8.5603e-06,0
2.6823,4.8676e-06,0
2.6829,6.5461e-06,0
2.6834,5.0355e-07,0
2.6839,-5.0355e-06,0
2.6844,-2.5177e-06,0
2.6849,4.8676e-06,0
2.6855,7.0497e-06,0
2.686,3.8605e-06,0
2.6865,1.6785e-07,0
2.687,-5.0355e-07,0
2.6875,-1.8463e-06,0
2.6881,-3.0213e-06,0
2.6886,-1.0071e-06,0
2.6891,5.7069e-06,0
2.6896,1.5946e-05,0
2.6901,2.3331e-05,0
2.6907,2.5849e-05,0
2.6912,2.4674e-05,0
2.6917,2.0813e-05,0
2.6922,2.0981e-05,0
2.6927,2.501e-05,0
2.6932,2.5177e-05,0
2.6938,2.4674e-05,0
2.6943,3.0549e-05,0
2.6948,3.8437e-05,0
2.6953,3.4073e-05,0
2.6958,1.5946e-05,0
2.6964,-3.357e-07,0
2.6969,-2.8534e-06,0
2.6974,1.8463e-06,0
2.6979,5.7069e-06,0
2.6984,7.3854e-06,0
2.699,7.8889e-06,0
2.6995,1.1246e-05,0
2.7,1.8967e-05,0
2.7005,2.4002e-05,0
2.701,1.9303e-05,0
2.7016,9.9031e-06,0
2.7021,9.9031e-06,0
2.7026,2.1149e-05,0
2.7031,3.2731e-05,0
2.7036,3.978e-05,0
2.7042,4.2298e-05,0
2.7047,4.0452e-05,0
2.7052,3.7263e-05,0
2.7057,3.5416e-05,0
2.7062,3.508e-05,0
2.7067,3.4073e-05,0
2.7073,3.8773e-05,0
2.7078,4.8676e-05,0
2.7083,5.5894e-05,0
2.7088,5.3544e-05,0
2.7093,4.5151e-05,0
2.7099,3.5752e-05,0
2.7104,3.122e-05,0
2.7109,3.122e-05,0
2.7114,2.9038e-05,0
2.7119,1.7456e-05,0
2.7125,-1.1749e-06,0
2.713,-1.8296e-05,0
2.7135,-2.7024e-05,0
2.714,-2.6017e-05,0
2.7145,-2.3499e-05,0
2.7151,-2.4338e-05,0
2.7156,-2.2156e-05,0
2.7161,-1.5274e-05,0
2.7166,-1.1078e-05,0
2.7171,-1.0239e-05,0
2.7177,-1.0239e-05,0
2.7182,-1.1917e-05,0
2.7187,-1.0575e-05,0
2.7192,-1.6785e-06,0
2.7197,7.5532e-06,0
2.7203,9.5674e-06,0
2.7208,1.4603e-05,0
2.7213,2.9374e-05,0
2.7218,4.2634e-05,0
2.7223,4.683e-05,0
2.7228,5.0858e-05,0
2.7234,5.5726e-05,0
2.7239,5.5726e-05,0
2.7244,5.1194e-05,0
2.7249,4.8173e-05,0
2.7254,4.8508e-05,0
2.726,5.153e-05,0
2.7265,5.4047e-05,0
2.727,5.0858e-05,0
2.7275,4.2802e-05,0
2.728,3.3066e-05,0
2.7286,1.9303e-05,0
2.7291,7.7211e-06,0
2.7296,4.8676e-06,0
2.7301,9.5674e-06,0
2.7306,1.5274e-05,0
2.7312,1.6281e-05,0
2.7317,1.0575e-05,0
2.7322,2.8534e-06,0
2.7327,-4.6998e-06,0
2.7332,-1.0575e-05,0
2.7338,-1.1414e-05,0
2.7343,-8.3925e-06,0
2.7348,-4.5319e-06,0
2.7353,3.357e-06,0
2.7358,1.8463e-05,0
2.7363,3.1556e-05,0
2.7369,3.6591e-05,0
2.7374,3.8605e-05,0
2.7379,3.978e-05,0
2.7384,3.8102e-05,0
2.7389,3.0045e-05,0
2.7395,1.9974e-05,0
2.74,1.091e-05,0
2.7405,1.5106e-06,0
2.741,-2.6856e-06,0
2.7415,1.5106e-06,0
2.7421,5.539e-06,0
2.7426,6.5461e-06,0
2.7431,8.5603e-06,0
2.7436,1.326e-05,0
2.7441,1.8631e-05,0
2.7447,2.2828e-05,0
2.7452,2.4338e-05,0
2.7457,2.6184e-05,0
2.7462,2.8031e-05,0
2.7467,2.6352e-05,0
2.7473,1.8631e-05,0
2.7478,9.0639e-06,0
2.7483,5.0355e-06,0
2.7488,7.2175e-06,0
2.7493,1.3931e-05,0
2.7498,2.2324e-05,0
2.7504,2.6688e-05,0
2.7509,2.8702e-05,0
2.7514,3.2059e-05,0
2.7519,3.6423e-05,0
2.7524,3.8605e-05,0
2.753,4.0116e-05,0
2.7535,4.5151e-05,0
2.754,5.1194e-05,0
2.7545,5.0858e-05,0
2.755,4.5151e-05,0
2.7556,4.4816e-05,0
2.7561,5.8244e-05,0
2.7566,7.57e-05,0
2.7571,8.275e-05,0
2.7576,8.1407e-05,0
2.7582,8.4932e-05,0
2.7587,8.9632e-05,0
2.7592,8.6107e-05,0
2.7597,7.335e-05,0
2.7602,5.2537e-05,0
2.7607,2.6184e-05,0
2.7613,-8.3925e-07,0
2.7618,-2.031e-05,0
2.7623,-2.7359e-05,0
2.7628,-2.3835e-05,0
2.7633,-1.3764e-05,0
2.7639,-8.896e-06,0
2.7644,-1.2253e-05,0
2.7649,-1.561e-05,0
2.7654,-1.5778e-05,0
2.7659,-1.2924e-05,0
2.7665,-9.5674e-06,0
2.767,-1.1582e-05,0
2.7675,-2.3163e-05,0
2.768,-4.1123e-05,0
2.7685,-5.7404e-05,0
2.7691,-6.7811e-05,0
2.7696,-7.3686e-05,0
2.7701,-6.6636e-05,0
2.7706,-4.4816e-05,0
2.7711,-2.3163e-05,0
2.7717,-1.1582e-05,0
2.7722,-7.2175e-06,0
2.7727,-2.182e-06,0
2.7732,5.2033e-06,0
2.7737,1.3931e-05,0
2.7742,2.5849e-05,0
2.7748,3.7934e-05,0
2.7753,4.5823e-05,0
2.7758,5.2537e-05,0
2.7763,5.6901e-05,0
2.7768,5.7908e-05,0
2.7774,5.8244e-05,0
2.7779,5.9586e-05,0
2.7784,6.479e-05,0
2.7789,6.7308e-05,0
2.7794,6.2272e-05,0
2.78,5.388e-05,0
2.7805,4.2802e-05,0
2.781,2.7024e-05,0
2.7815,1.4603e-05,0
2.782,8.896e-06,0
2.7826,7.5532e-06,0
2.7831,1.2924e-05,0
2.7836,2.3331e-05,0
2.7841,2.8534e-05,0
2.7846,2.5345e-05,0
2.7852,2.0478e-05,0
2.7857,1.6953e-05,0
2.7862,1.326e-05,0
2.7867,1.1582e-05,0
2.7872,1.4099e-05,0
2.7877,1.9638e-05,0
2.7883,2.4674e-05,0
2.7888,2.7192e-05,0
2.7893,2.8367e-05,0
2.7898,2.4002e-05,0
2.7903,1.6449e-05,0
2.7909,1.2924e-05,0
2.7914,1.3092e-05,0
2.7919,1.3596e-05,0
2.7924,1.6449e-05,0
2.7929,2.1988e-05,0
2.7935,2.8702e-05,0
2.794,3.2563e-05,0
2.7945,3.3402e-05,0
2.795,3.0716e-05,0
2.7955,2.9709e-05,0
2.7961,3.4745e-05,0
2.7966,4.2634e-05,0
2.7971,4.5991e-05,0
2.7976,4.4144e-05,0
2.7981,3.9948e-05,0
2.7987,3.6759e-05,0
2.7992,3.0716e-05,0
2.7997,2.1988e-05,0
2.8002,1.1414e-05,0
2.8007,2.5177e-06,0
2.8013,1.8463e-06,0
2.8018,4.3641e-06,0
2.8023,2.3499e-06,0
2.8028,1.0071e-06,0
2.8033,6.2104e-06,0
2.8038,1.1749e-05,0
2.8044,9.5674e-06,0
2.8049,5.2033e-06,0
2.8054,7.7211e-06,0
2.8059,1.6449e-05,0
2.8064,2.3667e-05,0
2.807,2.3499e-05,0
2.8075,1.8967e-05,0
2.808,1.4603e-05,0
2.8085,1.3092e-05,0
2.809,1.3092e-05,0
2.8096,1.4939e-05,0
2.8101,1.9638e-05,0
2.8106,2.6688e-05,0
2.8111,3.1388e-05,0
2.8116,3.2395e-05,0
2.8122,3.4577e-05,0
2.8127,3.8437e-05,0
2.8132,3.978e-05,0
2.8137,3.9612e-05,0
2.8142,3.9445e-05,0
2.8148,3.7766e-05,0
2.8153,3.4409e-05,0
2.8158,3.0381e-05,0
2.8163,2.6688e-05,0
2.8168,2.1653e-05,0
2.8173,1.4267e-05,0
2.8179,9.0639e-06,0
2.8184,1.5946e-05,0
2.8189,3.2731e-05,0
2.8194,5.4887e-05,0
2.8199,8.1407e-05,0
2.8205,0.00010004,0
2.821,0.00010172,0
2.8215,8.7617e-05,0
2.822,6.9322e-05,0
2.8225,5.1194e-05,0
2.8231,3.8605e-05,0
2.8236,2.6352e-05,0
2.8241,5.0355e-06,0
2.8246,-2.7695e-05,0
2.8251,-6.1936e-05,0
2.8257,-8.3757e-05,0
2.8262,-9.5842e-05,0
2.8267,-0.00010155,0
2.8272,-9.1478e-05,0
2.8277,-6.7811e-05,0
2.8283,-4.6662e-05,0
2.8288,-2.7024e-05,0
2.8293,-7.0497e-06,0
2.8298,5.539e-06,0
2.8303,8.3925e-06,0
2.8308,6.3783e-06,0
2.8314,8.896e-06,0
2.8319,1.6953e-05,0
2.8324,2.266e-05,0
2.8329,2.3331e-05,0
2.8334,2.1317e-05,0
2.834,2.1988e-05,0
2.8345,2.4002e-05,0
2.835,2.6017e-05,0
2.8355,2.6688e-05,0
2.836,2.7359e-05,0
2.8366,2.8367e-05,0
2.8371,3.1891e-05,0
2.8376,3.978e-05,0
2.8381,4.918e-05,0
2.8386,5.6733e-05,0
2.8392,5.623e-05,0
2.8397,5.0019e-05,0
2.8402,4.5823e-05,0
2.8407,3.8941e-05,0
2.8412,2.9877e-05,0
2.8418,2.887e-05,0
2.8423,3.4745e-05,0
2.8428,3.5584e-05,0
2.8433,2.8031e-05,0
2.8438,2.3667e-05,0
2.8443,2.1317e-05,0
2.8449,1.2085e-05,0
2.8454,2.5177e-06,0
2.8459,-4.6998e-06,0
2.8464,-1.2253e-05,0
2.8469,-1.2757e-05,0
2.8475,1.6785e-07,0
2.848,2.1149e-05,0
2.8485,3.8773e-05,0
2.849,4.2802e-05,0
2.8495,3.2731e-05,0
2.8501,1.4099e-05,0
2.8506,-6.714e-07,0
2.8511,-5.2033e-06,0
2.8516,1.6785e-07,0
2.8521,1.2421e-05,0
2.8527,2.6688e-05,0
2.8532,3.6759e-05,0
2.8537,3.7766e-05,0
2.8542,3.6088e-05,0
2.8547,3.978e-05,0
2.8552,4.8005e-05,0
2.8558,5.3544e-05,0
2.8563,5.3208e-05,0
2.8568,4.8844e-05,0
2.8573,4.2298e-05,0
2.8578,3.6088e-05,0
2.8584,3.0884e-05,0
2.8589,2.7527e-05,0
2.8594,2.8031e-05,0
2.8599,2.9877e-05,0
2.8604,3.0045e-05,0
2.861,3.2731e-05,0
2.8615,3.9277e-05,0
2.862,4.4144e-05,0
2.8625,4.3641e-05,0
2.863,3.6591e-05,0
2.8636,2.9374e-05,0
2.8641,2.6017e-05,0
2.8646,2.6017e-05,0
2.8651,2.3667e-05,0
2.8656,2.1988e-05,0
2.8662,2.7695e-05,0
2.8667,3.8437e-05,0
2.8672,4.4648e-05,0
2.8677,3.8437e-05,0
2.8682,2.501e-05,0
2.8687,1.2253e-05,0
2.8693,3.5248e-06,0
2.8698,-1.8463e-06,0
2.8703,-7.8889e-06,0
2.8708,-1.326e-05,0
2.8713,-1.8967e-05,0
2.8719,-2.0981e-05,0
2.8724,-1.6617e-05,0
2.8729,-1.4939e-05,0
2.8734,-1.3931e-05,0
2.8739,-1.091e-05,0
2.8745,-1.1582e-05,0
2.875,-1.5274e-05,0
2.8755,-1.7456e-05,0
2.876,-1.2924e-05,0
2.8765,-8.0568e-06,0
2.8771,-1.2924e-05,0
2.8776,-2.2995e-05,0
2.8781,-2.6352e-05,0
2.8786,-1.5946e-05,0
2.8791,3.0213e-06,0
2.8797,2.2995e-05,0
2.8802,3.6759e-05,0
2.8807,4.3473e-05,0
2.8812,4.8676e-05,0
2.8817,5.4215e-05,0
2.8822,5.5558e-05,0
2.8828,5.0858e-05,0
2.8833,5.069e-05,0
2.8838,5.8915e-05,0
2.8843,6.949e-05,0
2.8848,6.9322e-05,0
2.8854,6.0258e-05,0
2.8859,5.3376e-05,0
2.8864,4.9348e-05,0
2.8869,4.5487e-05,0
2.8874,4.4648e-05,0
2.888,4.6159e-05,0
2.8885,4.0955e-05,0
2.889,3.2059e-05,0
2.8895,2.7359e-05,0
2.89,1.4939e-05,0
2.8906,-1.2924e-05,0
2.8911,-4.448e-05,0
2.8916,-5.9922e-05,0
2.8921,-5.0187e-05,0
2.8926,-3.3738e-05,0
2.8932,-2.7527e-05,0
2.8937,-2.4002e-05,0
2.8942,-1.5946e-05,0
2.8947,-7.5532e-06,0
2.8952,1.8463e-06,0
2.8958,1.6953e-05,0
2.8963,3.6759e-05,0
2.8968,5.0187e-05,0
2.8973,4.7166e-05,0
2.8978,3.1052e-05,0
2.8983,1.3931e-05,0
2.8989,-1.6785e-07,0
2.8994,-1.7792e-05,0
2.8999,-3.4409e-05,0
2.9004,-3.5248e-05,0
2.9009,-1.3764e-05,0
2.9015,1.2924e-05,0
2.902,2.8534e-05,0
2.9025,3.3066e-05,0
2.903,3.2059e-05,0
2.9035,3.6591e-05,0
2.9041,4.6662e-05,0
2.9046,5.623e-05,0
2.9051,6.4118e-05,0
2.9056,7.2175e-05,0
2.9061,8.1743e-05,0
2.9067,8.7617e-05,0
2.9072,8.2246e-05,0
2.9077,6.9657e-05,0
2.9082,6.4286e-05,0
2.9087,6.4286e-05,0
2.9093,6.0929e-05,0
2.9098,4.918e-05,0
2.9103,3.1388e-05,0
2.9108,9.5674e-06,0
2.9113,-1.6281e-05,0
2.9118,-4.0116e-05,0
2.9124,-5.3208e-05,0
2.9129,-4.8341e-05,0
2.9134,-2.5849e-05,0
2.9139,-2.8534e-06,0
2.9144,2.6856e-06,0
2.915,-1.3428e-06,0
2.9155,2.182e-06,0
2.916,1.3596e-05,0
2.9165,2.5849e-05,0
2.917,3.6759e-05,0
2.9176,4.8173e-05,0
2.9181,5.2873e-05,0
2.9186,4.4816e-05,0
2.9191,3.4241e-05,0
2.9196,3.3906e-05,0
2.9202,4.0787e-05,0
2.9207,4.3473e-05,0
2.9212,3.9109e-05,0
2.9217,3.1724e-05,0
2.9222,2.1653e-05,0
2.9228,4.1962e-06,0
2.9233,-1.6953e-05,0
2.9238,-2.7192e-05,0
2.9243,-2.501e-05,0
2.9248,-1.6281e-05,0
2.9253,-2.182e-06,0
2.9259,6.5461e-06,0
2.9264,8.896e-06,0
2.9269,1.326e-05,0
2.9274,1.6953e-05,0
2.9279,2.031e-05,0
2.9285,2.266e-05,0
2.929,1.9974e-05,0
2.9295,1.5778e-05,0
2.93,1.6449e-05,0
2.9305,2.5345e-05,0
2.9311,4.2802e-05,0
2.9316,5.8412e-05,0
2.9321,6.3279e-05,0
2.9326,6.0258e-05,0
2.9331,5.6565e-05,0
2.9337,5.2537e-05,0
2.9342,4.4816e-05,0
2.9347,3.4073e-05,0
2.9352,1.7624e-05,0
2.9357,-4.5319e-06,0
2.9362,-2.2995e-05,0
2.9368,-3.2395e-05,0
2.9373,-3.592e-05,0
2.9378,-3.2731e-05,0
2.9383,-2.1317e-05,0
2.9388,-4.0284e-06,0
2.9394,1.5946e-05,0
2.9399,3.7263e-05,0
2.9404,5.3544e-05,0
2.9409,5.9922e-05,0
2.9414,5.623e-05,0
2.942,5.0187e-05,0
2.9425,4.5823e-05,0
2.943,4.0116e-05,0
2.9435,2.9374e-05,0
2.944,1.9974e-05,0
2.9446,1.561e-05,0
2.9451,1.1749e-05,0
2.9456,8.2246e-06,0
2.9461,5.539e-06,0
2.9466,6.5461e-06,0
2.9472,9.2317e-06,0
2.9477,1.0239e-05,0
2.9482,9.9031e-06,0
2.9487,8.5603e-06,0
2.9492,8.5603e-06,0
2.9497,9.0639e-06,0
2.9503,9.7353e-06,0
2.9508,1.1414e-05,0
2.9513,1.561e-05,0
2.9518,2.2492e-05,0
2.9523,2.6352e-05,0
2.9529,2.5177e-05,0
2.9534,2.3667e-05,0
2.9539,2.4002e-05,0
2.9544,2.4338e-05,0
2.9549,2.4002e-05,0
2.9555,2.5345e-05,0
2.956,2.6688e-05,0
2.9565,2.8702e-05,0
2.957,3.2731e-05,0
2.9575,3.8605e-05,0
2.9581,4.213e-05,0
2.9586,4.213e-05,0
2.9591,4.213e-05,0
2.9596,4.1627e-05,0
2.9601,4.1123e-05,0
2.9607,3.978e-05,0
2.9612,3.827e-05,0
2.9617,3.5752e-05,0
2.9622,2.7863e-05,0
2.9627,1.5946e-05,0
2.9632,9.5674e-06,0
2.9638,1.4267e-05,0
2.9643,2.6017e-05,0
2.9648,3.5584e-05,0
2.9653,3.5752e-05,0
2.9658,3.0045e-05,0
2.9664,2.8534e-05,0
2.9669,3.3738e-05,0
2.9674,3.5416e-05,0
2.9679,3.0716e-05,0
2.9684,2.1317e-05,0
2.969,1.1246e-05,0
2.9695,3.1891e-06,0
2.97,-2.5177e-06,0
2.9705,-9.7353e-06,0
2.971,-1.2924e-05,0
2.9716,-9.5674e-06,0
2.9721,-1.0407e-05,0
2.9726,-1.3596e-05,0
2.9731,-1.2253e-05,0
2.9736,-5.0355e-06,0
2.9742,3.357e-06,0
2.9747,9.2317e-06,0
2.9752,1.3596e-05,0
2.9757,2.2492e-05,0
2.9762,3.2563e-05,0
2.9768,3.7095e-05,0
2.9773,3.6759e-05,0
2.9778,3.3906e-05,0
2.9783,3.3738e-05,0
2.9788,3.5584e-05,0
2.9793,3.3738e-05,0
2.9799,3.1724e-05,0
2.9804,3.3066e-05,0
2.9809,3.743e-05,0
2.9814,4.2466e-05,0
2.9819,4.6998e-05,0
2.9825,4.9851e-05,0
2.983,5.0523e-05,0
2.9835,4.8844e-05,0
2.984,3.978e-05,0
2.9845,2.031e-05,0
2.9851,6.714e-07,0
2.9856,-1.561e-05,0
2.9861,-3.0716e-05,0
2.9866,-4.6662e-05,0
2.9871,-6.4286e-05,0
2.9877,-7.6707e-05,0
2.9882,-7.5364e-05,0
2.9887,-6.3783e-05,0
2.9892,-5.388e-05,0
2.9897,-4.1962e-05,0
2.9903,-2.3835e-05,0
2.9908,-1.0071e-06,0
2.9913,1.326e-05,0
2.9918,1.6953e-05,0
2.9923,2.4002e-05,0
2.9928,3.6759e-05,0
2.9934,4.8844e-05,0
2.9939,5.1865e-05,0
2.9944,4.0116e-05,0
2.9949,2.5345e-05,0
2.9954,2.4674e-05,0
2.996,4.1459e-05,0
2.9965,5.7404e-05,0
2.997,5.8915e-05,0
2.9975,4.9516e-05,0
2.998,4.1459e-05,0
2.9986,3.8773e-05,0
2.9991,3.9109e-05,0
2.9996,3.6088e-05,0
3.0001,3.1052e-05,0
3.0006,2.9206e-05,0
3.0012,3.357e-05,0
3.0017,3.7263e-05,0
3.0022,3.6591e-05,0
3.0027,3.4745e-05,0
3.0032,3.3066e-05,0
3.0038,2.9877e-05,0
3.0043,2.5177e-05,0
3.0048,2.1653e-05,0
3.0053,1.8967e-05,0
3.0058,1.7624e-05,0
3.0063,2.1317e-05,0
3.0069,3.0213e-05,0
3.0074,3.6423e-05,0
3.0079,3.8437e-05,0
3.0084,3.9445e-05,0
3.0089,3.9109e-05,0
3.0095,3.743e-05,0
3.01,3.4073e-05,0
3.0105,3.0381e-05,0
3.011,2.5849e-05,0
3.0115,2.1653e-05,0
3.0121,1.6617e-05,0
3.0126,1.0575e-05,0
3.0131,9.9031e-06,0
3.0136,1.9471e-05,0
3.0141,3.3402e-05,0
3.0147,4.3809e-05,0
3.0152,4.9516e-05,0
3.0157,5.2873e-05,0
3.0162,5.3544e-05,0
3.0167,4.9516e-05,0
3.0173,4.2802e-05,0
3.0178,3.8773e-05,0
3.0183,3.743e-05,0
3.0188,3.1052e-05,0
3.0193,1.3092e-05,0
3.0198,-4.3641e-06,0
3.0204,-9.7353e-06,0
3.0209,-7.0497e-06,0
3.0214,-2.5177e-06,0
3.0219,1.1749e-06,0
3.0224,2.182e-06,0
3.023,-8.3925e-07,0
3.0235,-4.8676e-06,0
3.024,-6.8818e-06,0
3.0245,-6.0426e-06,0
3.025,-2.8534e-06,0
3.0256,-1.0071e-06,0
3.0261,-8.3925e-07,0
3.0266,-8.3925e-07,0
3.0271,-2.8534e-06,0
3.0276,-9.5674e-06,0
3.0282,-1.3428e-05,0
3.0287,-1.0575e-05,0
3.0292,-2.8534e-06,0
3.0297,4.5319e-06,0
3.0302,6.5461e-06,0
3.0307,2.182e-06,0
3.0313,-2.6856e-06,0
3.0318,8.3925e-07,0
3.0323,1.1246e-05,0
3.0328,2.0981e-05,0
3.0333,2.4674e-05,0
3.0339,2.9038e-05,0
3.0344,3.5584e-05,0
3.0349,3.978e-05,0
3.0354,4.213e-05,0
3.0359,4.3137e-05,0
3.0365,3.743e-05,0
3.037,3.1388e-05,0
3.0375,3.0213e-05,0
3.038,2.6688e-05,0
3.0385,2.0478e-05,0
3.0391,1.4939e-05,0
3.0396,8.7282e-06,0
3.0401,6.5461e-06,0
3.0406,9.2317e-06,0
3.0411,1.5778e-05,0
3.0417,2.1317e-05,0
3.0422,1.8128e-05,0
3.0427,1.1917e-05,0
3.0432,1.1917e-05,0
3.0437,1.5274e-05,0
3.0442,2.0981e-05,0
3.0448,3.0716e-05,0
3.0453,3.8437e-05,0
3.0458,4.1459e-05,0
3.0463,3.9948e-05,0
3.0468,3.6423e-05,0
3.0474,3.3234e-05,0
3.0479,2.6352e-05,0
3.0484,1.5946e-05,0
3.0489,1.4435e-05,0
3.0494,2.4002e-05,0
3.05,3.4073e-05,0
3.0505,3.5248e-05,0
3.051,2.9374e-05,0
3.0515,2.1317e-05,0
3.052,1.6617e-05,0
3.0526,1.7792e-05,0
3.0531,2.3163e-05,0
3.0536,2.8534e-05,0
3.0541,2.6688e-05,0
3.0546,2.2828e-05,0
3.0552,2.5177e-05,0
3.0557,3.0045e-05,0
3.0562,2.9877e-05,0
3.0567,2.8534e-05,0
3.0572,3.0045e-05,0
3.0577,3.2731e-05,0
3.0583,3.3738e-05,0
3.0588,3.5584e-05,0
3.0593,3.978e-05,0
3.0598,4.5319e-05,0
3.0603,4.9348e-05,0
3.0609,4.9851e-05,0
3.0614,4.8844e-05,0
3.0619,4.7501e-05,0
3.0624,4.4144e-05,0
3.0629,3.6759e-05,0
3.0635,2.652e-05,0
3.064,1.8631e-05,0
3.0645,1.2589e-05,0
3.065,3.8605e-06,0
3.0655,-3.8605e-06,0
3.0661,-1.091e-05,0
3.0666,-1.796e-05,0
3.0671,-2.1653e-05,0
3.0676,-1.8631e-05,0
3.0681,-9.0639e-06,0
3.0687,2.5177e-06,0
3.0692,5.8747e-06,0
3.0697,3.5248e-06,0
3.0702,2.5177e-06,0
3.0707,2.5177e-06,0
3.0713,3.5248e-06,0
3.0718,1.0071e-05,0
3.0723,2.1317e-05,0
3.0728,2.9877e-05,0
3.0733,3.0716e-05,0
3.0738,2.5345e-05,0
3.0744,2.031e-05,0
3.0749,1.5946e-05,0
3.0754,1.2253e-05,0
3.0759,9.9031e-06,0
3.0764,5.8747e-06,0
3.077,3.0213e-06,0
3.0775,3.8605e-06,0
3.078,5.2033e-06,0
3.0785,7.3854e-06,0
3.079,1.0575e-05,0
3.0796,1.2589e-05,0
3.0801,1.5946e-05,0
3.0806,2.4506e-05,0
3.0811,3.4745e-05,0
3.0816,3.978e-05,0
3.0822,3.827e-05,0
3.0827,3.357e-05,0
3.0832,2.9374e-05,0
3.0837,3.0716e-05,0
3.0842,4.0116e-05,0
3.0848,4.7166e-05,0
3.0853,4.5151e-05,0
3.0858,3.6759e-05,0
3.0863,2.3331e-05,0
3.0868,1.1582e-05,0
3.0873,7.7211e-06,0
3.0879,8.5603e-06,0
3.0884,7.2175e-06,0
3.0889,4.1962e-06,0
3.0894,1.6785e-07,0
3.0899,-4.3641e-06,0
3.0905,-8.896e-06,0
3.091,-8.2246e-06,0
3.0915,-2.8534e-06,0
3.092,2.8534e-06,0
3.0925,9.7353e-06,0
3.0931,2.0981e-05,0
3.0936,3.0213e-05,0
3.0941,3.743e-05,0
3.0946,3.9109e-05,0
3.0951,3.1388e-05,0
3.0957,2.266e-05,0
3.0962,1.9303e-05,0
3.0967,1.9974e-05,0
3.0972,1.6449e-05,0
3.0977,7.8889e-06,0
3.0983,2.3499e-06,0
3.0988,0,0
3.0993,0,0
3.0998,5.2033e-06,0
3.1003,1.5274e-05,0
3.1008,2.4506e-05,0
3.1014,3.2059e-05,0
3.1019,3.9445e-05,0
3.1024,4.3473e-05,0
3.1029,4.4648e-05,0
3.1034,4.8508e-05,0
3.104,5.6062e-05,0
3.1045,6.1601e-05,0
3.105,6.2272e-05,0
3.1055,5.7404e-05,0
3.106,5.1194e-05,0
3.1066,5.1194e-05,0
3.1071,5.3544e-05,0
3.1076,4.1459e-05,0
3.1081,1.2924e-05,0
3.1086,-7.2175e-06,0
3.1092,-6.714e-06,0
3.1097,-1.8463e-06,0
3.1102,-3.357e-06,0
3.1107,-8.3925e-07,0
3.1112,-2.8534e-06,0
3.1117,-1.6281e-05,0
3.1123,-2.5681e-05,0
3.1128,-2.0478e-05,0
3.1133,-8.2246e-06,0
3.1138,1.8463e-06,0
3.1143,7.5532e-06,0
3.1149,8.5603e-06,0
3.1154,5.2033e-06,0
3.1159,3.1891e-06,0
3.1164,5.8747e-06,0
3.1169,3.6927e-06,0
3.1175,-4.8676e-06,0
3.118,-6.8818e-06,0
3.1185,2.5177e-06,0
3.119,1.1078e-05,0
3.1195,1.1917e-05,0
3.1201,1.1917e-05,0
3.1206,1.4603e-05,0
3.1211,1.6953e-05,0
3.1216,2.031e-05,0
3.1221,2.4506e-05,0
3.1227,2.887e-05,0
3.1232,3.4073e-05,0
3.1237,3.9277e-05,0
3.1242,4.3473e-05,0
3.1247,4.4984e-05,0
3.1252,4.5487e-05,0
3.1258,4.5487e-05,0
3.1263,4.448e-05,0
3.1268,4.2466e-05,0
3.1273,4.0116e-05,0
3.1278,3.6423e-05,0
3.1284,3.122e-05,0
3.1289,2.501e-05,0
3.1294,2.1317e-05,0
3.1299,2.1988e-05,0
3.1304,3.0213e-05,0
3.131,4.2802e-05,0
3.1315,4.6326e-05,0
3.132,3.9445e-05,0
3.1325,3.4241e-05,0
3.133,3.2731e-05,0
3.1336,3.2898e-05,0
3.1341,3.5248e-05,0
3.1346,3.2227e-05,0
3.1351,2.0142e-05,0
3.1356,6.2104e-06,0
3.1362,-3.8605e-06,0
3.1367,-1.5778e-05,0
3.1372,-2.4674e-05,0
3.1377,-2.1653e-05,0
3.1382,-1.1749e-05,0
3.1387,-2.5177e-06,0
3.1393,5.3712e-06,0
3.1398,1.3764e-05,0
3.1403,2.1317e-05,0
3.1408,2.3499e-05,0
3.1413,2.031e-05,0
3.1419,1.561e-05,0
3.1424,9.7353e-06,0
3.1429,7.2175e-06,0
3.1434,1.3092e-05,0
3.1439,2.3835e-05,0
3.1445,3.0549e-05,0
3.145,2.9038e-05,0
3.1455,2.266e-05,0
3.146,1.8631e-05,0
3.1465,2.0981e-05,0
3.1471,2.6688e-05,0
3.1476,2.9877e-05,0
3.1481,3.0549e-05,0
3.1486,3.0045e-05,0
3.1491,2.7863e-05,0
3.1497,2.0981e-05,0
3.1502,7.8889e-06,0
3.1507,-1.8463e-06,0
3.1512,2.0142e-06,0
3.1517,1.4603e-05,0
3.1522,2.6017e-05,0
3.1528,3.1891e-05,0
3.1533,3.4073e-05,0
3.1538,3.5752e-05,0
3.1543,3.978e-05,0
3.1548,4.5655e-05,0
3.1554,5.069e-05,0
3.1559,5.4887e-05,0
3.1564,6.2272e-05,0
3.1569,6.7643e-05,0
3.1574,6.7979e-05,0
3.158,6.1265e-05,0
3.1585,5.6901e-05,0
3.159,5.4215e-05,0
3.1595,4.2634e-05,0
3.16,2.3331e-05,0
3.1606,9.2317e-06,0
3.1611,5.0355e-07,0
3.1616,-3.6927e-06,0
3.1621,-8.896e-06,0
3.1626,-1.4771e-05,0
3.1632,-1.7121e-05,0
3.1637,-1.9638e-05,0
3.1642,-2.7192e-05,0
3.1647,-3.3402e-05,0
3.1652,-3.7766e-05,0
3.1658,-4.0787e-05,0
3.1663,-3.9612e-05,0
3.1668,-3.0381e-05,0
3.1673,-1.1582e-05,0
3.1678,8.896e-06,0
3.1683,2.5681e-05,0
3.1689,3.8941e-05,0
3.1694,4.5823e-05,0
3.1699,4.5823e-05,0
3.1704,4.2466e-05,0
3.1709,3.3738e-05,0
3.1715,2.182e-05,0
3.172,1.4603e-05,0
3.1725,1.1246e-05,0
3.173,5.2033e-06,0
3.1735,-1.1749e-06,0
3.1741,2.5177e-06,0
3.1746,1.5946e-05,0
3.1751,2.6017e-05,0
3.1756,3.2227e-05,0
3.1761,3.2731e-05,0
3.1767,2.501e-05,0
3.1772,2.3331e-05,0
3.1777,3.1724e-05,0
3.1782,3.9109e-05,0
3.1787,3.7766e-05,0
3.1793,3.2395e-05,0
3.1798,2.9709e-05,0
3.1803,3.2059e-05,0
3.1808,3.1556e-05,0
3.1813,2.266e-05,0
3.1818,1.4435e-05,0
3.1824,1.6617e-05,0
3.1829,3.2395e-05,0
3.1834,5.2201e-05,0
3.1839,6.9657e-05,0
3.1844,8.0064e-05,0
3.185,7.8553e-05,0
3.1855,6.2272e-05,0
3.186,4.2298e-05,0
3.1865,3.1724e-05,0
3.187,2.8199e-05,0
3.1876,2.1317e-05,0
3.1881,7.0497e-06,0
3.1886,-1.3764e-05,0
3.1891,-3.743e-05,0
3.1896,-5.8076e-05,0
3.1902,-7.4189e-05,0
3.1907,-8.6275e-05,0
3.1912,-8.5771e-05,0
3.1917,-6.7475e-05,0
3.1922,-3.9445e-05,0
3.1928,-1.2924e-05,0
3.1933,6.2104e-06,0
3.1938,1.9974e-05,0
3.1943,3.0381e-05,0
3.1948,3.6759e-05,0
3.1953,3.978e-05,0
3.1959,4.3977e-05,0
3.1964,4.4816e-05,0
3.1969,3.9445e-05,0
3.1974,3.1052e-05,0
3.1979,2.6352e-05,0
3.1985,2.887e-05,0
3.199,3.4745e-05,0
3.1995,3.4745e-05,0
3.2,2.7695e-05,0
3.2005,1.5778e-05,0
3.2011,6.714e-07,0
3.2016,-1.1917e-05,0
3.2021,-9.3996e-06,0
3.2026,1.4603e-05,0
3.2031,4.7166e-05,0
3.2037,6.9825e-05,0
3.2042,7.6204e-05,0
3.2047,7.0832e-05,0
3.2052,6.2943e-05,0
3.2057,5.3376e-05,0
3.2062,4.2802e-05,0
3.2068,4.0452e-05,0
3.2073,4.8173e-05,0
3.2078,5.8244e-05,0
3.2083,6.2943e-05,0
3.2088,5.8915e-05,0
3.2094,4.8173e-05,0
3.2099,3.978e-05,0
3.2104,4.0116e-05,0
3.2109,4.3137e-05,0
3.2114,4.062e-05,0
3.212,3.2731e-05,0
3.2125,2.4338e-05,0
3.213,1.9806e-05,0
3.2135,1.8631e-05,0
3.214,1.7288e-05,0
3.2146,1.5274e-05,0
3.2151,1.0239e-05,0
3.2156,9.0639e-06,0
3.2161,9.7353e-06,0
3.2166,8.3925e-06,0
3.2172,6.2104e-06,0
3.2177,6.5461e-06,0
3.2182,1.1749e-05,0
3.2187,1.3931e-05,0
3.2192,1.1078e-05,0
3.2197,8.2246e-06,0
3.2203,7.0497e-06,0
3.2208,1.0407e-05,0
3.2213,1.8463e-05,0
3.2218,2.6017e-05,0
3.2223,3.1891e-05,0
3.2229,3.5416e-05,0
3.2234,3.4745e-05,0
3.2239,3.4409e-05,0
3.2244,3.2898e-05,0
3.2249,2.9206e-05,0
3.2255,2.6017e-05,0
3.226,2.501e-05,0
3.2265,2.1149e-05,0
3.227,8.896e-06,0
3.2275,-5.7069e-06,0
3.2281,-1.0071e-05,0
3.2286,-6.2104e-06,0
3.2291,-3.5248e-06,0
3.2296,-3.8605e-06,0
3.2301,-2.5177e-06,0
3.2307,-2.0142e-06,0
3.2312,-7.5532e-06,0
3.2317,-1.4939e-05,0
3.2322,-1.6281e-05,0
3.2327,-1.3092e-05,0
3.2332,-8.2246e-06,0
3.2338,-3.5248e-06,0
3.2343,6.714e-07,0
3.2348,5.7069e-06,0
3.2353,1.2085e-05,0
3.2358,1.9303e-05,0
3.2364,2.4842e-05,0
3.2369,2.9038e-05,0
3.2374,3.122e-05,0
3.2379,3.1556e-05,0
3.2384,3.2395e-05,0
3.239,3.5752e-05,0
3.2395,3.9277e-05,0
3.24,3.8773e-05,0
3.2405,3.3906e-05,0
3.241,2.7192e-05,0
3.2416,2.0981e-05,0
3.2421,1.4603e-05,0
3.2426,9.5674e-06,0
3.2431,6.2104e-06,0
3.2436,6.5461e-06,0
3.2442,1.0575e-05,0
3.2447,1.5946e-05,0
3.2452,2.1149e-05,0
3.2457,2.652e-05,0
3.2462,3.1388e-05,0
3.2468,3.3402e-05,0
3.2473,3.3402e-05,0
3.2478,3.3738e-05,0
3.2483,3.6088e-05,0
3.2488,4.5151e-05,0
3.2493,5.8915e-05,0
3.2499,6.9154e-05,0
3.2504,7.1504e-05,0
3.2509,6.9657e-05,0
3.2514,6.5461e-05,0
3.2519,6.0258e-05,0
3.2525,5.2537e-05,0
3.253,4.2802e-05,0
3.2535,3.7263e-05,0
3.254,3.4577e-05,0
3.2545,2.8199e-05,0
3.2551,1.1917e-05,0
3.2556,-7.5532e-06,0
3.2561,-1.9974e-05,0
3.2566,-2.8367e-05,0
3.2571,-3.1724e-05,0
3.2577,-2.7024e-05,0
3.2582,-2.2995e-05,0
3.2587,-2.501e-05,0
3.2592,-3.2395e-05,0
3.2597,-4.062e-05,0
3.2603,-5.153e-05,0
3.2608,-5.2537e-05,0
3.2613,-2.9374e-05,0
3.2618,2.182e-06,0
3.2623,2.0478e-05,0
3.2628,2.3331e-05,0
3.2634,2.3331e-05,0
3.2639,2.5849e-05,0
3.2644,2.2995e-05,0
3.2649,1.326e-05,0
3.2654,4.6998e-06,0
3.266,-8.3925e-07,0
3.2665,-5.0355e-06,0
3.267,-6.8818e-06,0
3.2675,-1.5106e-06,0
3.268,6.8818e-06,0
3.2686,9.5674e-06,0
3.2691,6.8818e-06,0
3.2696,6.5461e-06,0
3.2701,1.1246e-05,0
3.2706,1.9303e-05,0
3.2712,2.6688e-05,0
3.2717,3.3402e-05,0
3.2722,4.1459e-05,0
3.2727,4.8173e-05,0
3.2732,4.8676e-05,0
3.2738,4.9851e-05,0
3.2743,5.3544e-05,0
3.2748,5.5222e-05,0
3.2753,5.2369e-05,0
3.2758,4.6998e-05,0
3.2763,4.448e-05,0
3.2769,4.5487e-05,0
3.2774,3.9948e-05,0
3.2779,2.9374e-05,0
3.2784,2.4338e-05,0
3.2789,2.4002e-05,0
3.2795,2.4002e-05,0
3.28,2.6017e-05,0
3.2805,3.122e-05,0
3.281,3.4409e-05,0
3.2815,3.6088e-05,0
3.2821,3.2898e-05,0
3.2826,2.5345e-05,0
3.2831,1.9303e-05,0
3.2836,1.7792e-05,0
3.2841,2.2492e-05,0
3.2847,2.9709e-05,0
3.2852,3.3738e-05,0
3.2857,2.9206e-05,0
3.2862,1.4771e-05,0
3.2867,5.0355e-07,0
3.2872,-8.3925e-07,0
3.2878,7.2175e-06,0
3.2883,1.1917e-05,0
3.2888,9.9031e-06,0
3.2893,1.0407e-05,0
3.2898,1.8296e-05,0
3.2904,2.8199e-05,0
3.2909,3.5416e-05,0
3.2914,3.7934e-05,0
3.2919,3.978e-05,0
3.2924,4.3137e-05,0
3.293,4.4984e-05,0
3.2935,4.2466e-05,0
3.294,3.9445e-05,0
3.2945,3.5248e-05,0
3.295,3.2563e-05,0
3.2956,3.592e-05,0
3.2961,4.5487e-05,0
3.2966,4.9012e-05,0
3.2971,4.2634e-05,0
3.2976,3.2731e-05,0
3.2982,2.266e-05,0
3.2987,6.2104e-06,0
3.2992,-1.5778e-05,0
3.2997,-3.6088e-05,0
3.3002,-4.8508e-05,0
3.3007,-5.2201e-05,0
3.3013,-5.0523e-05,0
3.3018,-4.1627e-05,0
3.3023,-2.501e-05,0
3.3028,-7.5532e-06,0
3.3033,6.0426e-06,0
3.3039,1.7288e-05,0
3.3044,3.1052e-05,0
3.3049,4.6159e-05,0
3.3054,5.3208e-05,0
3.3059,5.1865e-05,0
3.3065,5.0187e-05,0
3.307,4.9851e-05,0
3.3075,4.3809e-05,0
3.308,3.4073e-05,0
3.3085,2.4338e-05,0
3.3091,1.4939e-05,0
3.3096,9.5674e-06,0
3.3101,9.5674e-06,0
3.3106,7.0497e-06,0
3.3111,4.3641e-06,0
3.3117,1.1749e-05,0
3.3122,2.266e-05,0
3.3127,3.1052e-05,0
3.3132,3.6759e-05,0
3.3137,3.4073e-05,0
3.3142,2.6017e-05,0
3.3148,1.7121e-05,0
3.3153,6.5461e-06,0
3.3158,-7.8889e-06,0
3.3163,-2.4674e-05,0
3.3168,-3.4745e-05,0
3.3174,-2.501e-05,0
3.3179,-2.182e-06,0
3.3184,1.7792e-05,0
3.3189,2.9038e-05,0
3.3194,3.2059e-05,0
3.32,3.1891e-05,0
3.3205,3.4745e-05,0
3.321,3.8773e-05,0
3.3215,3.7095e-05,0
3.322,3.2059e-05,0
3.3226,3.2731e-05,0
3.3231,3.9277e-05,0
3.3236,4.213e-05,0
3.3241,3.8773e-05,0
3.3246,3.6927e-05,0
3.3252,3.8437e-05,0
3.3257,3.8605e-05,0
3.3262,3.8437e-05,0
3.3267,4.5151e-05,0
3.3272,5.7237e-05,0
3.3277,6.4622e-05,0
3.3283,6.1265e-05,0
3.3288,4.7166e-05,0
3.3293,3.1556e-05,0
3.3298,2.182e-05,0
3.3303,6.714e-06,0
3.3309,-1.2924e-05,0
3.3314,-2.0645e-05,0
3.3319,-1.6281e-05,0
3.3324,-1.9806e-05,0
3.3329,-3.8773e-05,0
3.3335,-5.8244e-05,0
3.334,-6.5965e-05,0
3.3345,-5.7908e-05,0
3.335,-4.0955e-05,0
3.3355,-2.2995e-05,0
3.3361,-7.3854e-06,0
3.3366,5.2033e-06,0
3.3371,1.7288e-05,0
3.3376,2.4674e-05,0
3.3381,2.9038e-05,0
3.3387,3.1388e-05,0
3.3392,3.1052e-05,0
3.3397,3.1052e-05,0
3.3402,3.6088e-05,0
3.3407,4.1962e-05,0
3.3413,4.0116e-05,0
3.3418,3.0716e-05,0
3.3423,2.0645e-05,0
3.3428,2.0813e-05,0
3.3433,3.4913e-05,0
3.3438,5.4215e-05,0
3.3444,6.6133e-05,0
3.3449,6.9322e-05,0
3.3454,7.5029e-05,0
3.3459,8.661e-05,0
3.3464,9.1478e-05,0
3.347,8.6442e-05,0
3.3475,7.7714e-05,0
3.348,7.3518e-05,0
3.3485,7.0665e-05,0
3.349,5.9586e-05,0
3.3496,4.2466e-05,0
3.3501,2.9709e-05,0
3.3506,2.5345e-05,0
3.3511,2.4506e-05,0
3.3516,2.031e-05,0
3.3522,1.2589e-05,0
3.3527,1.0407e-05,0
3.3532,1.8967e-05,0
3.3537,3.0045e-05,0
3.3542,3.3402e-05,0
3.3548,2.8534e-05,0
3.3553,1.9638e-05,0
3.3558,8.896e-06,0
3.3563,1.6785e-07,0
3.3568,-6.5461e-06,0
3.3573,-1.8967e-05,0
3.3579,-3.8773e-05,0
3.3584,-5.2537e-05,0
3.3589,-5.5222e-05,0
3.3594,-5.153e-05,0
3.3599,-4.2466e-05,0
3.3605,-2.8534e-05,0
3.361,-1.4939e-05,0
3.3615,-3.6927e-06,0
3.362,4.0284e-06,0
3.3625,8.5603e-06,0
3.3631,1.2757e-05,0
3.3636,1.8296e-05,0
3.3641,2.3163e-05,0
3.3646,2.4674e-05,0
3.3651,2.5513e-05,0
3.3657,2.7695e-05,0
3.3662,3.0045e-05,0
3.3667,2.7024e-05,0
3.3672,2.3835e-05,0
3.3677,2.4674e-05,0
3.3683,2.6017e-05,0
3.3688,2.501e-05,0
3.3693,2.2324e-05,0
3.3698,1.9471e-05,0
3.3703,1.8631e-05,0
3.3708,1.7792e-05,0
3.3714,1.2924e-05,0
3.3719,9.5674e-06,0
3.3724,1.326e-05,0
3.3729,2.031e-05,0
3.3734,2.1988e-05,0
3.374,1.7624e-05,0
3.3745,1.3596e-05,0
3.375,1.2924e-05,0
3.3755,1.326e-05,0
3.376,1.1582e-05,0
3.3766,9.3996e-06,0
3.3771,1.4267e-05,0
3.3776,2.4506e-05,0
3.3781,2.9374e-05,0
3.3786,2.8031e-05,0
3.3792,3.0213e-05,0
3.3797,3.592e-05,0
3.3802,3.9445e-05,0
3.3807,3.8102e-05,0
3.3812,2.8702e-05,0
3.3817,1.4939e-05,0
3.3823,5.2033e-06,0
3.3828,-5.0355e-07,0
3.3833,-3.1891e-06,0
3.3838,0,0
3.3843,7.8889e-06,0
3.3849,1.9471e-05,0
3.3854,3.0381e-05,0
3.3859,3.743e-05,0
3.3864,4.0116e-05,0
3.3869,4.2802e-05,0
3.3875,4.7501e-05,0
3.388,5.2201e-05,0
3.3885,5.6565e-05,0
3.389,5.8579e-05,0
3.3895,5.5222e-05,0
3.3901,5.3208e-05,0
3.3906,5.4215e-05,0
3.3911,5.4215e-05,0
3.3916,4.9683e-05,0
3.3921,4.5151e-05,0
3.3927,3.9109e-05,0
3.3932,2.9374e-05,0
3.3937,1.5442e-05,0
3.3942,5.8747e-06,0
3.3947,3.0213e-06,0
3.3952,3.5248e-06,0
3.3958,3.8605e-06,0
3.3963,3.0213e-06,0
3.3968,3.5248e-06,0
3.3973,2.182e-06,0
3.3978,-5.539e-06,0
3.3984,-1.4267e-05,0
3.3989,-1.7624e-05,0
3.3994,-1.4267e-05,0
3.3999,-1.1246e-05,0
3.4004,-1.1078e-05,0
3.401,-1.1246e-05,0
3.4015,-8.2246e-06,0
3.402,-2.182e-06,0
3.4025,1.6785e-06,0
3.403,2.5177e-06,0
3.4036,6.8818e-06,0
3.4041,1.7624e-05,0
3.4046,2.9374e-05,0
3.4051,3.3738e-05,0
3.4056,3.2395e-05,0
3.4062,3.2563e-05,0
3.4067,3.7766e-05,0
3.4072,4.1794e-05,0
3.4077,2.9541e-05,0
3.4082,3.1891e-06,0
3.4087,-1.1917e-05,0
3.4093,-1.1917e-05,0
3.4098,-1.3596e-05,0
3.4103,-1.8296e-05,0
3.4108,-1.4435e-05,0
3.4113,5.2033e-06,0
3.4119,2.8702e-05,0
3.4124,3.978e-05,0
3.4129,3.8102e-05,0
3.4134,3.0045e-05,0
3.4139,2.6688e-05,0
3.4145,3.1556e-05,0
3.415,3.2898e-05,0
3.4155,2.5681e-05,0
3.416,1.6953e-05,0
3.4165,1.7121e-05,0
3.4171,2.2324e-05,0
3.4176,2.1317e-05,0
3.4181,1.561e-05,0
3.4186,1.0575e-05,0
3.4191,9.0639e-06,0
3.4197,1.2924e-05,0
3.4202,1.9638e-05,0
3.4207,2.9374e-05,0
3.4212,3.978e-05,0
3.4217,4.5151e-05,0
3.4223,4.4816e-05,0
3.4228,4.3473e-05,0
3.4233,4.7333e-05,0
3.4238,5.623e-05,0
3.4243,6.3279e-05,0
3.4248,6.3111e-05,0
3.4254,5.9586e-05,0
3.4259,5.774e-05,0
3.4264,5.8747e-05,0
3.4269,6.1936e-05,0
3.4274,6.4622e-05,0
3.428,6.2272e-05,0
3.4285,5.6565e-05,0
3.429,5.5558e-05,0
3.4295,5.5558e-05,0
3.43,4.3641e-05,0
3.4306,2.3163e-05,0
3.4311,1.8463e-06,0
3.4316,-1.6785e-05,0
3.4321,-3.2395e-05,0
3.4326,-4.448e-05,0
3.4332,-5.304e-05,0
3.4337,-6.0258e-05,0
3.4342,-7.2175e-05,0
3.4347,-8.1743e-05,0
3.4352,-7.6707e-05,0
3.4358,-5.8579e-05,0
3.4363,-3.7766e-05,0
3.4368,-1.7288e-05,0
3.4373,-1.6785e-06,0
3.4378,5.8747e-06,0
3.4383,1.1582e-05,0
3.4389,1.9638e-05,0
3.4394,2.7024e-05,0
3.4399,3.1724e-05,0
3.4404,3.508e-05,0
3.4409,3.9445e-05,0
3.4415,4.5823e-05,0
3.442,5.2537e-05,0
3.4425,5.4551e-05,0
3.443,5.2705e-05,0
3.4435,5.1362e-05,0
3.4441,5.0523e-05,0
3.4446,5.2705e-05,0
3.4451,6.0929e-05,0
3.4456,6.6972e-05,0
3.4461,6.7643e-05,0
3.4467,6.6972e-05,0
3.4472,6.4286e-05,0
3.4477,5.7572e-05,0
3.4482,4.6326e-05,0
3.4487,3.3906e-05,0
3.4493,2.6688e-05,0
3.4498,2.4674e-05,0
3.4503,1.4939e-05,0
3.4508,-4.5319e-06,0
3.4513,-2.0142e-05,0
3.4518,-2.8199e-05,0
3.4524,-3.0549e-05,0
3.4529,-2.7527e-05,0
3.4534,-1.9638e-05,0
3.4539,-6.5461e-06,0
3.4544,9.7353e-06,0
3.455,2.2156e-05,0
3.4555,2.6017e-05,0
3.456,2.7192e-05,0
3.4565,2.9038e-05,0
3.457,3.2059e-05,0
3.4576,3.2898e-05,0
3.4581,3.0549e-05,0
3.4586,3.1724e-05,0
3.4591,3.3402e-05,0
3.4596,2.5345e-05,0
3.4602,1.5106e-05,0
3.4607,1.0575e-05,0
3.4612,1.0407e-05,0
3.4617,1.1246e-05,0
3.4622,1.0575e-05,0
3.4628,7.3854e-06,0
3.4633,5.2033e-06,0
3.4638,7.8889e-06,0
3.4643,1.7624e-05,0
3.4648,3.122e-05,0
3.4653,4.1627e-05,0
3.4659,4.6326e-05,0
3.4664,4.9516e-05,0
3.4669,5.3544e-05,0
3.4674,5.5558e-05,0
3.4679,5.2537e-05,0
3.4685,4.9516e-05,0
3.469,4.5991e-05,0
3.4695,4.0116e-05,0
3.47,3.6927e-05,0
3.4705,3.3234e-05,0
3.4711,1.7792e-05,0
3.4716,-3.0213e-06,0
3.4721,-3.8605e-06,0
3.4726,1.561e-05,0
3.4731,2.5849e-05,0
3.4737,7.7211e-06,0
3.4742,-2.3667e-05,0
3.4747,-3.978e-05,0
3.4752,-4.062e-05,0
3.4757,-4.1459e-05,0
3.4762,-4.1794e-05,0
3.4768,-3.3234e-05,0
3.4773,-1.9638e-05,0
3.4778,-1.1582e-05,0
3.4783,-1.0239e-05,0
3.4788,-3.5248e-06,0
3.4794,1.1078e-05,0
3.4799,2.3667e-05,0
3.4804,2.9374e-05,0
3.4809,3.0381e-05,0
3.4814,2.9374e-05,0
3.482,3.1388e-05,0
3.4825,3.7095e-05,0
3.483,4.2466e-05,0
3.4835,4.1123e-05,0
3.484,3.4073e-05,0
3.4846,2.9374e-05,0
3.4851,3.2731e-05,0
3.4856,4.4816e-05,0
3.4861,6.5293e-05,0
3.4866,9.2149e-05,0
3.4872,0.00011397,0
3.4877,0.0001185,0
3.4882,0.00010826,0
3.4887,9.8024e-05,0
3.4892,9.1142e-05,0
3.4897,8.3925e-05,0
3.4903,7.4357e-05,0
3.4908,5.8244e-05,0
3.4913,3.3234e-05,0
3.4918,8.5603e-06,0
3.4923,-1.091e-05,0
3.4929,-3.0549e-05,0
3.4934,-5.2033e-05,0
3.4939,-6.6636e-05,0
3.4944,-6.7308e-05,0
3.4949,-5.6062e-05,0
3.4955,-4.3137e-05,0
3.496,-3.7934e-05,0
3.4965,-3.7766e-05,0
3.497,-3.508e-05,0
3.4975,-3.1388e-05,0
3.4981,-2.9038e-05,0
3.4986,-3.3738e-05,0
3.4991,-4.5823e-05,0
3.4996,-5.153e-05,0
3.5001,-4.1962e-05,0
3.5007,-2.4338e-05,0
3.5012,-6.8818e-06,0
3.5017,7.8889e-06,0
3.5022,1.9471e-05,0
3.5027,2.9709e-05,0
3.5032,4.3473e-05,0
3.5038,6.0258e-05,0
3.5043,7.2679e-05,0
3.5048,7.7211e-05,0
3.5053,7.6875e-05,0
3.5058,7.6371e-05,0
3.5064,7.3518e-05,0
3.5069,6.4622e-05,0
3.5074,5.2033e-05,0
3.5079,3.978e-05,0
3.5084,3.1388e-05,0
3.509,2.7695e-05,0
3.5095,2.7024e-05,0
3.51,3.2731e-05,0
3.5105,3.978e-05,0
3.511,4.1627e-05,0
3.5116,3.508e-05,0
3.5121,2.501e-05,0
3.5126,2.182e-05,0
3.5131,2.1149e-05,0
3.5136,2.0645e-05,0
3.5142,1.8799e-05,0
3.5147,1.0575e-05,0
3.5152,-1.2085e-05,0
3.5157,-4.3305e-05,0
3.5162,-5.4215e-05,0
3.5168,-3.9109e-05,0
3.5173,-2.0645e-05,0
3.5178,-1.1917e-05,0
3.5183,-8.896e-06,0
3.5188,-4.5319e-06,0
3.5193,8.3925e-07,0
3.5199,7.7211e-06,0
3.5204,1.5274e-05,0
3.5209,2.1149e-05,0
3.5214,2.501e-05,0
3.5219,2.6352e-05,0
3.5225,2.6352e-05,0
3.523,2.9877e-05,0
3.5235,3.6591e-05,0
3.524,4.3473e-05,0
3.5245,4.7837e-05,0
3.5251,4.7837e-05,0
3.5256,4.5319e-05,0
3.5261,4.7837e-05,0
3.5266,5.5558e-05,0
3.5271,6.2272e-05,0
3.5277,6.6636e-05,0
3.5282,6.63e-05,0
3.5287,6.1601e-05,0
3.5292,5.304e-05,0
3.5297,4.213e-05,0
3.5303,3.7766e-05,0
3.5308,3.8773e-05,0
3.5313,3.4073e-05,0
3.5318,2.5345e-05,0
3.5323,2.1149e-05,0
3.5328,2.0478e-05,0
3.5334,1.7121e-05,0
3.5339,1.2924e-05,0
3.5344,7.8889e-06,0
3.5349,-5.0355e-07,0
3.5354,-7.5532e-06,0
3.536,-6.8818e-06,0
3.5365,-3.1891e-06,0
3.537,-8.3925e-07,0
3.5375,1.8463e-06,0
3.538,2.5177e-06,0
3.5386,-1.1749e-06,0
3.5391,-2.5177e-06,0
3.5396,4.1962e-06,0
3.5401,1.2421e-05,0
3.5406,1.6953e-05,0
3.5412,1.8296e-05,0
3.5417,1.9303e-05,0
3.5422,2.2995e-05,0
3.5427,2.7359e-05,0
3.5432,2.5513e-05,0
3.5438,1.9135e-05,0
3.5443,1.5274e-05,0
3.5448,1.4603e-05,0
3.5453,1.796e-05,0
3.5458,2.6688e-05,0
3.5463,3.7095e-05,0
3.5469,4.7837e-05,0
3.5474,5.304e-05,0
3.5479,4.9012e-05,0
3.5484,4.5151e-05,0
3.5489,4.9516e-05,0
3.5495,5.7908e-05,0
3.55,5.9251e-05,0
3.5505,5.4719e-05,0
3.551,5.0019e-05,0
3.5515,4.8005e-05,0
3.5521,4.8005e-05,0
3.5526,5.1362e-05,0
3.5531,4.7501e-05,0
3.5536,3.0045e-05,0
3.5541,6.2104e-06,0
3.5547,-1.6281e-05,0
3.5552,-3.5584e-05,0
3.5557,-4.5151e-05,0
3.5562,-4.2466e-05,0
3.5567,-3.5752e-05,0
3.5572,-3.2227e-05,0
3.5578,-3.2395e-05,0
3.5583,-3.0213e-05,0
3.5588,-2.7863e-05,0
3.5593,-2.7024e-05,0
3.5598,-2.4674e-05,0
3.5604,-1.9638e-05,0
3.5609,-1.6281e-05,0
3.5614,-1.6617e-05,0
3.5619,-1.326e-05,0
3.5624,3.0213e-06,0
3.563,2.4338e-05,0
3.5635,3.9612e-05,0
3.564,5.0523e-05,0
3.5645,6.244e-05,0
3.565,7.1336e-05,0
3.5656,7.1504e-05,0
3.5661,6.0594e-05,0
3.5666,4.2466e-05,0
3.5671,2.4674e-05,0
3.5676,1.6617e-05,0
3.5682,1.5274e-05,0
3.5687,1.0071e-05,0
3.5692,-1.6785e-06,0
3.5697,-1.2924e-05,0
3.5702,-9.9031e-06,0
3.5707,5.8747e-06,0
3.5713,2.0981e-05,0
3.5718,3.2395e-05,0
3.5723,4.1123e-05,0
3.5728,4.2802e-05,0
3.5733,3.4913e-05,0
3.5739,2.6352e-05,0
3.5744,2.8702e-05,0
3.5749,4.0116e-05,0
3.5754,4.8173e-05,0
3.5759,4.4816e-05,0
3.5765,3.7095e-05,0
3.577,3.6088e-05,0
3.5775,3.8773e-05,0
3.578,3.743e-05,0
3.5785,3.1388e-05,0
3.5791,2.5681e-05,0
3.5796,2.4338e-05,0
3.5801,2.2995e-05,0
3.5806,1.3764e-05,0
3.5811,-5.0355e-07,0
3.5817,-1.2253e-05,0
3.5822,-1.6281e-05,0
3.5827,-9.9031e-06,0
3.5832,6.714e-07,0
3.5837,7.5532e-06,0
3.5842,1.2253e-05,0
3.5848,1.9806e-05,0
3.5853,2.6688e-05,0
3.5858,2.9374e-05,0
3.5863,3.2059e-05,0
3.5868,3.4745e-05,0
3.5874,3.5584e-05,0
3.5879,3.7263e-05,0
3.5884,3.9109e-05,0
3.5889,4.1794e-05,0
3.5894,4.4312e-05,0
3.59,4.4144e-05,0
3.5905,4.062e-05,0
3.591,3.5416e-05,0
3.5915,3.2731e-05,0
3.592,3.4745e-05,0
3.5926,3.8941e-05,0
3.5931,3.8102e-05,0
3.5936,3.4577e-05,0
3.5941,3.3066e-05,0
3.5946,2.9374e-05,0
3.5952,2.4338e-05,0
3.5957,2.182e-05,0
3.5962,2.3331e-05,0
3.5967,2.266e-05,0
3.5972,1.5106e-05,0
3.5978,9.2317e-06,0
3.5983,6.0426e-06,0
3.5988,-1.0071e-06,0
3.5993,-1.2253e-05,0
3.5998,-2.1653e-05,0
3.6003,-2.2324e-05,0
3.6009,-1.6449e-05,0
3.6014,-1.0239e-05,0
3.6019,-6.8818e-06,0
3.6024,-5.2033e-06,0
3.6029,-3.8605e-06,0
3.6035,-3.1891e-06,0
3.604,-1.5106e-06,0
3.6045,-5.0355e-07,0
3.605,2.5177e-06,0
3.6055,9.9031e-06,0
3.6061,1.8631e-05,0
3.6066,2.6352e-05,0
3.6071,3.4409e-05,0
3.6076,3.9948e-05,0
3.6081,3.6088e-05,0
3.6087,2.9374e-05,0
3.6092,2.8534e-05,0
3.6097,3.3066e-05,0
3.6102,3.8437e-05,0
3.6107,4.1123e-05,0
3.6113,4.5487e-05,0
3.6118,4.8173e-05,0
3.6123,4.213e-05,0
3.6128,3.4073e-05,0
3.6133,3.4073e-05,0
3.6138,3.743e-05,0
3.6144,3.7095e-05,0
3.6149,3.2059e-05,0
3.6154,2.5681e-05,0
3.6159,1.9471e-05,0
3.6164,1.3092e-05,0
3.617,6.3783e-06,0
3.6175,-4.1962e-06,0
3.618,-1.8463e-05,0
3.6185,-3.3738e-05,0
3.619,-4.0116e-05,0
3.6196,-2.8367e-05,0
3.6201,-7.5532e-06,0
3.6206,5.539e-06,0
3.6211,9.2317e-06,0
3.6216,1.4939e-05,0
3.6222,2.3331e-05,0
3.6227,3.2563e-05,0
3.6232,4.5151e-05,0
3.6237,5.3208e-05,0
3.6242,5.0187e-05,0
3.6248,4.3977e-05,0
3.6253,4.1794e-05,0
3.6258,3.6591e-05,0
3.6263,2.652e-05,0
3.6268,1.8631e-05,0
3.6273,1.2085e-05,0
3.6279,2.0142e-06,0
3.6284,-7.5532e-06,0
3.6289,-7.7211e-06,0
3.6294,1.8463e-06,0
3.6299,3.8605e-06,0
3.6305,-4.8676e-06,0
3.631,-6.8818e-06,0
3.6315,3.8605e-06,0
3.632,1.3931e-05,0
3.6325,1.7624e-05,0
3.6331,2.4002e-05,0
3.6336,3.4745e-05,0
3.6341,4.3305e-05,0
3.6346,4.7166e-05,0
3.6351,5.2201e-05,0
3.6357,5.4551e-05,0
3.6362,4.4144e-05,0
3.6367,2.5681e-05,0
3.6372,1.5946e-05,0
3.6377,2.1317e-05,0
3.6383,3.3738e-05,0
3.6388,3.8773e-05,0
3.6393,3.2731e-05,0
3.6398,2.6688e-05,0
3.6403,2.5849e-05,0
3.6408,2.6352e-05,0
3.6414,2.9038e-05,0
3.6419,3.2563e-05,0
3.6424,3.4577e-05,0
3.6429,3.3066e-05,0
3.6434,2.9038e-05,0
3.644,2.1988e-05,0
3.6445,1.0407e-05,0
3.645,-2.8534e-06,0
3.6455,-1.2085e-05,0
3.646,-1.3596e-05,0
3.6466,-7.5532e-06,0
3.6471,5.8747e-06,0
3.6476,1.5946e-05,0
3.6481,1.6281e-05,0
3.6486,1.6953e-05,0
3.6492,2.2156e-05,0
3.6497,2.6352e-05,0
3.6502,2.4506e-05,0
3.6507,2.4674e-05,0
3.6512,3.1388e-05,0
3.6517,3.8773e-05,0
3.6523,3.7095e-05,0
3.6528,2.2156e-05,0
3.6533,5.8747e-06,0
3.6538,6.714e-07,0
3.6543,6.714e-07,0
3.6549,5.0355e-07,0
3.6554,4.1962e-06,0
3.6559,1.1917e-05,0
3.6564,2.1988e-05,0
3.6569,3.0045e-05,0
3.6575,3.2731e-05,0
3.658,3.0045e-05,0
3.6585,2.8031e-05,0
3.659,2.7695e-05,0
3.6595,2.6352e-05,0
3.6601,2.3835e-05,0
3.6606,2.1317e-05,0
3.6611,2.1653e-05,0
3.6616,2.1653e-05,0
3.6621,1.8631e-05,0
3.6627,1.5946e-05,0
3.6632,1.561e-05,0
3.6637,1.4435e-05,0
3.6642,1.4939e-05,0
3.6647,1.6953e-05,0
3.6652,1.8631e-05,0
3.6658,1.8631e-05,0
3.6663,1.796e-05,0
3.6668,1.8128e-05,0
3.6673,2.1988e-05,0
3.6678,2.9374e-05,0
3.6684,3.4409e-05,0
3.6689,3.508e-05,0
3.6694,3.508e-05,0
3.6699,3.5584e-05,0
3.6704,3.3738e-05,0
3.671,2.9038e-05,0
3.6715,2.0981e-05,0
3.672,7.2175e-06,0
3.6725,-8.896e-06,0
3.673,-1.7288e-05,0
3.6736,-1.561e-05,0
3.6741,-1.3092e-05,0
3.6746,-1.326e-05,0
3.6751,-1.3596e-05,0
3.6756,-9.2317e-06,0
3.6762,-4.6998e-06,0
3.6767,-1.5106e-06,0
3.6772,1.1749e-06,0
3.6777,3.8605e-06,0
3.6782,7.5532e-06,0
3.6787,1.2924e-05,0
3.6793,1.9974e-05,0
3.6798,2.5345e-05,0
3.6803,2.8702e-05,0
3.6808,3.0716e-05,0
3.6813,3.2563e-05,0
3.6819,3.5416e-05,0
3.6824,3.7263e-05,0
3.6829,3.8773e-05,0
3.6834,3.827e-05,0
3.6839,3.743e-05,0
3.6845,3.4745e-05,0
3.685,2.887e-05,0
3.6855,2.4338e-05,0
3.686,2.6352e-05,0
3.6865,3.3906e-05,0
3.6871,4.3641e-05,0
3.6876,5.7069e-05,0
3.6881,7.2343e-05,0
3.6886,7.9561e-05,0
3.6891,8.04e-05,0
3.6897,7.8386e-05,0
3.6902,6.9657e-05,0
3.6907,5.5894e-05,0
3.6912,4.3641e-05,0
3.6917,3.3738e-05,0
3.6923,2.266e-05,0
3.6928,7.7211e-06,0
3.6933,-8.7282e-06,0
3.6938,-1.7624e-05,0
3.6943,-2.2492e-05,0
3.6948,-3.0045e-05,0
3.6954,-3.508e-05,0
3.6959,-2.9038e-05,0
3.6964,-1.9303e-05,0
3.6969,-1.2253e-05,0
3.6974,-3.0213e-06,0
3.698,9.9031e-06,0
3.6985,2.2995e-05,0
3.699,3.2563e-05,0
3.6995,3.7766e-05,0
3.7,3.7095e-05,0
3.7006,3.1891e-05,0
3.7011,2.8702e-05,0
3.7016,3.0381e-05,0
3.7021,3.2059e-05,0
3.7026,3.0884e-05,0
3.7032,2.8534e-05,0
3.7037,1.9303e-05,0
3.7042,3.1891e-06,0
3.7047,-1.1917e-05,0
3.7052,-1.8631e-05,0
3.7058,-1.4099e-05,0
3.7063,-5.3712e-06,0
3.7068,1.8463e-06,0
3.7073,4.5319e-06,0
3.7078,4.3641e-06,0
3.7083,6.5461e-06,0
3.7089,7.2175e-06,0
3.7094,3.0213e-06,0
3.7099,-6.3783e-06,0
3.7104,-1.8463e-05,0
3.7109,-2.7024e-05,0
3.7115,-2.9374e-05,0
3.712,-2.0645e-05,0
3.7125,-1.6785e-06,0
3.713,1.796e-05,0
3.7135,3.122e-05,0
3.7141,3.6591e-05,0
3.7146,3.9109e-05,0
3.7151,3.8773e-05,0
3.7156,3.6088e-05,0
3.7161,3.2059e-05,0
3.7167,2.6856e-05,0
3.7172,2.266e-05,0
3.7177,2.3331e-05,0
3.7182,3.1724e-05,0
3.7187,4.6159e-05,0
3.7193,6.1097e-05,0
3.7198,7.1672e-05,0
3.7203,7.805e-05,0
3.7208,7.9728e-05,0
3.7213,8.04e-05,0
3.7218,8.661e-05,0
3.7224,9.6513e-05,0
3.7229,9.8192e-05,0
3.7234,8.5771e-05,0
3.7239,6.4622e-05,0
3.7244,4.4144e-05,0
3.725,2.266e-05,0
3.7255,-6.714e-06,0
3.726,-3.9277e-05,0
3.7265,-5.7908e-05,0
3.727,-4.8844e-05,0
3.7276,-2.2995e-05,0
3.7281,-7.8889e-06,0
3.7286,-1.6281e-05,0
3.7291,-3.5584e-05,0
3.7296,-4.7837e-05,0
3.7302,-3.978e-05,0
3.7307,-1.4939e-05,0
3.7312,1.4099e-05,0
3.7317,3.1388e-05,0
3.7322,3.743e-05,0
3.7327,4.1794e-05,0
3.7333,4.5319e-05,0
3.7338,4.8173e-05,0
3.7343,5.3208e-05,0
3.7348,5.4719e-05,0
3.7353,5.153e-05,0
3.7359,4.2466e-05,0
3.7364,2.887e-05,0
3.7369,1.9806e-05,0
3.7374,2.1988e-05,0
3.7379,2.8199e-05,0
3.7385,3.1052e-05,0
3.739,2.6352e-05,0
3.7395,1.5106e-05,0
3.74,5.0355e-07,0
3.7405,-1.3596e-05,0
3.7411,-1.9806e-05,0
3.7416,-1.4603e-05,0
3.7421,-3.0213e-06,0
3.7426,9.0639e-06,0
3.7431,2.0645e-05,0
3.7437,2.9038e-05,0
3.7442,3.2059e-05,0
3.7447,3.0381e-05,0
3.7452,2.8367e-05,0
3.7457,2.7024e-05,0
3.7462,2.6352e-05,0
3.7468,2.6688e-05,0
3.7473,2.6688e-05,0
3.7478,2.7695e-05,0
3.7483,2.7527e-05,0
3.7488,2.8031e-05,0
3.7494,3.2227e-05,0
3.7499,3.508e-05,0
3.7504,3.0045e-05,0
3.7509,1.9974e-05,0
3.7514,1.4771e-05,0
3.752,1.6953e-05,0
3.7525,1.9806e-05,0
3.753,1.6953e-05,0
3.7535,1.0071e-05,0
3.754,6.5461e-06,0
3.7546,1.0239e-05,0
3.7551,1.9974e-05,0
3.7556,3.3066e-05,0
3.7561,4.1459e-05,0
3.7566,3.8773e-05,0
3.7572,2.8031e-05,0
3.7577,1.4435e-05,0
3.7582,4.8676e-06,0
3.7587,3.5248e-06,0
3.7592,8.5603e-06,0
3.7597,1.2924e-05,0
3.7603,7.8889e-06,0
3.7608,-9.3996e-06,0
3.7613,-3.0716e-05,0
3.7618,-4.3809e-05,0
3.7623,-3.9109e-05,0
3.7629,-1.9135e-05,0
3.7634,2.5177e-06,0
3.7639,1.5946e-05,0
3.7644,1.9974e-05,0
3.7649,1.7288e-05,0
3.7655,1.4603e-05,0
3.766,1.5442e-05,0
3.7665,1.6953e-05,0
3.767,2.0478e-05,0
3.7675,2.7695e-05,0
3.7681,3.6423e-05,0
3.7686,4.3305e-05,0
3.7691,4.8844e-05,0
3.7696,5.2705e-05,0
3.7701,5.774e-05,0
3.7707,6.5293e-05,0
3.7712,6.9657e-05,0
3.7717,6.9657e-05,0
3.7722,6.6133e-05,0
3.7727,5.9251e-05,0
3.7732,4.8676e-05,0
3.7738,3.5584e-05,0
3.7743,2.4002e-05,0
3.7748,1.5442e-05,0
3.7753,9.2317e-06,0
3.7758,-8.3925e-07,0
3.7764,-1.6281e-05,0
3.7769,-2.9038e-05,0
3.7774,-2.9374e-05,0
3.7779,-1.8967e-05,0
3.7784,-1.1917e-05,0
3.779,-1.1414e-05,0
3.7795,-1.0071e-05,0
3.78,-6.5461e-06,0
3.7805,0,0
3.781,9.3996e-06,0
3.7816,1.6617e-05,0
3.7821,1.7121e-05,0
3.7826,1.2924e-05,0
3.7831,9.2317e-06,0
3.7836,7.8889e-06,0
3.7842,8.896e-06,0
3.7847,1.3092e-05,0
3.7852,2.3667e-05,0
3.7857,3.4745e-05,0
3.7862,3.9445e-05,0
3.7868,3.9445e-05,0
3.7873,4.0452e-05,0
3.7878,4.3977e-05,0
3.7883,4.9348e-05,0
3.7888,5.0523e-05,0
3.7893,4.2298e-05,0
3.7899,3.1052e-05,0
3.7904,2.7192e-05,0
3.7909,3.122e-05,0
3.7914,3.978e-05,0
3.7919,4.6326e-05,0
3.7925,4.6326e-05,0
3.793,4.4144e-05,0
3.7935,3.9109e-05,0
3.794,2.7024e-05,0
3.7945,5.7069e-06,0
3.7951,-1.4603e-05,0
3.7956,-1.9974e-05,0
3.7961,-1.091e-05,0
3.7966,5.539e-06,0
3.7971,2.1653e-05,0
3.7977,3.743e-05,0
3.7982,4.918e-05,0
3.7987,5.1865e-05,0
3.7992,4.6494e-05,0
3.7997,3.743e-05,0
3.8003,3.3066e-05,0
3.8008,3.3066e-05,0
3.8013,3.2059e-05,0
3.8018,2.7192e-05,0
3.8023,1.8463e-05,0
3.8028,3.357e-06,0
3.8034,-1.3931e-05,0
3.8039,-2.0142e-05,0
3.8044,-9.9031e-06,0
3.8049,9.9031e-06,0
3.8054,2.9038e-05,0
3.806,3.8605e-05,0
3.8065,3.5752e-05,0
3.807,2.8702e-05,0
3.8075,2.8031e-05,0
3.808,3.4073e-05,0
3.8086,3.7263e-05,0
3.8091,2.8367e-05,0
3.8096,1.0407e-05,0
3.8101,-3.1891e-06,0
3.8106,-5.8747e-06,0
3.8112,-6.2104e-06,0
3.8117,-6.714e-06,0
3.8122,-1.5106e-06,0
3.8127,1.0071e-05,0
3.8132,1.796e-05,0
3.8138,1.9135e-05,0
3.8143,1.9303e-05,0
3.8148,2.1988e-05,0
3.8153,2.7024e-05,0
3.8158,3.2898e-05,0
3.8163,3.5416e-05,0
3.8169,3.2395e-05,0
3.8174,3.1724e-05,0
3.8179,3.743e-05,0
3.8184,4.1291e-05,0
3.8189,4.0116e-05,0
3.8195,3.7263e-05,0
3.82,2.7024e-05,0
3.8205,1.3092e-05,0
3.821,5.8747e-06,0
3.8215,2.8534e-06,0
3.8221,-3.357e-07,0
3.8226,2.182e-06,0
3.8231,1.0239e-05,0
3.8236,1.4771e-05,0
3.8241,9.2317e-06,0
3.8247,-5.8747e-06,0
3.8252,-2.2324e-05,0
3.8257,-2.501e-05,0
3.8262,-1.2589e-05,0
3.8267,6.5461e-06,0
3.8272,2.3667e-05,0
3.8278,2.9709e-05,0
3.8283,2.7695e-05,0
3.8288,2.9038e-05,0
3.8293,3.743e-05,0
3.8298,4.7837e-05,0
3.8304,5.8579e-05,0
3.8309,6.8315e-05,0
3.8314,7.3182e-05,0
3.8319,7.2679e-05,0
3.8324,6.7308e-05,0
3.833,5.8244e-05,0
3.8335,4.6662e-05,0
3.834,3.2563e-05,0
3.8345,1.8296e-05,0
3.835,8.2246e-06,0
3.8356,8.3925e-07,0
3.8361,-4.1962e-06,0
3.8366,-5.0355e-07,0
3.8371,6.8818e-06,0
3.8376,9.5674e-06,0
3.8382,2.0142e-06,0
3.8387,-8.896e-06,0
3.8392,-1.1582e-05,0
3.8397,-8.2246e-06,0
3.8402,-1.091e-05,0
3.8407,-2.1653e-05,0
3.8413,-3.1388e-05,0
3.8418,-3.6591e-05,0
3.8423,-3.827e-05,0
3.8428,-3.3066e-05,0
3.8433,-1.8967e-05,0
3.8439,-3.357e-06,0
3.8444,2.8534e-06,0
3.8449,7.2175e-06,0
3.8454,1.8631e-05,0
3.8459,3.1724e-05,0
3.8465,4.0787e-05,0
3.847,4.5151e-05,0
3.8475,4.6326e-05,0
3.848,4.448e-05,0
3.8485,4.2802e-05,0
3.8491,4.213e-05,0
3.8496,3.8102e-05,0
3.8501,3.2563e-05,0
3.8506,2.8702e-05,0
3.8511,2.8367e-05,0
3.8517,3.122e-05,0
3.8522,3.0716e-05,0
3.8527,2.4002e-05,0
3.8532,1.6281e-05,0
3.8537,9.2317e-06,0
3.8542,-1.5106e-06,0
3.8548,-8.7282e-06,0
3.8553,-8.3925e-07,0
3.8558,1.7288e-05,0
3.8563,3.1388e-05,0
3.8568,3.3402e-05,0
3.8574,2.3835e-05,0
3.8579,1.2589e-05,0
3.8584,1.5946e-05,0
3.8589,3.357e-05,0
3.8594,4.8173e-05,0
3.86,5.0187e-05,0
3.8605,4.2298e-05,0
3.861,3.2059e-05,0
3.8615,2.5345e-05,0
3.862,2.4002e-05,0
3.8626,2.4002e-05,0
3.8631,2.266e-05,0
3.8636,2.0478e-05,0
3.8641,1.9303e-05,0
3.8646,1.7624e-05,0
3.8652,1.7792e-05,0
3.8657,2.0142e-05,0
3.8662,2.4674e-05,0
3.8667,3.1388e-05,0
3.8672,3.3234e-05,0
3.8678,3.0716e-05,0
3.8683,2.887e-05,0
3.8688,2.501e-05,0
3.8693,2.1317e-05,0
3.8698,2.1149e-05,0
3.8703,1.9974e-05,0
3.8709,2.0981e-05,0
3.8714,2.5681e-05,0
3.8719,3.0045e-05,0
3.8724,3.3402e-05,0
3.8729,3.3906e-05,0
3.8735,3.2395e-05,0
3.874,3.1052e-05,0
3.8745,2.8199e-05,0
3.875,2.0981e-05,0
3.8755,1.1917e-05,0
3.8761,3.5248e-06,0
3.8766,-3.1891e-06,0
3.8771,-3.8605e-06,0
3.8776,2.182e-06,0
3.8781,1.2253e-05,0
3.8787,2.2324e-05,0
3.8792,3.0549e-05,0
3.8797,3.6759e-05,0
3.8802,3.8773e-05,0
3.8807,3.5416e-05,0
3.8813,3.1388e-05,0
3.8818,3.2059e-05,0
3.8823,3.978e-05,0
3.8828,4.5487e-05,0
3.8833,4.1123e-05,0
3.8838,3.1388e-05,0
3.8844,2.6352e-05,0
3.8849,2.8031e-05,0
3.8854,2.7359e-05,0
3.8859,1.7288e-05,0
3.8864,4.8676e-06,0
3.887,-1.5106e-06,0
3.8875,-3.6927e-06,0
3.888,-5.8747e-06,0
3.8885,-1.326e-05,0
3.889,-2.7695e-05,0
3.8896,-4.213e-05,0
3.8901,-4.1962e-05,0
3.8906,-2.5681e-05,0
3.8911,-8.0568e-06,0
3.8916,4.5319e-06,0
3.8922,1.3428e-05,0
3.8927,1.9638e-05,0
3.8932,2.5681e-05,0
3.8937,3.2227e-05,0
3.8942,3.743e-05,0
3.8948,3.7095e-05,0
3.8953,3.0381e-05,0
3.8958,2.3163e-05,0
3.8963,2.0645e-05,0
3.8968,2.1149e-05,0
3.8973,2.3331e-05,0
3.8979,2.6352e-05,0
3.8984,2.6352e-05,0
3.8989,2.2492e-05,0
3.8994,1.9135e-05,0
3.8999,1.3931e-05,0
3.9005,5.7069e-06,0
3.901,2.182e-06,0
3.9015,9.0639e-06,0
3.902,1.6953e-05,0
3.9025,1.6449e-05,0
3.9031,1.326e-05,0
3.9036,1.3092e-05,0
3.9041,1.3596e-05,0
3.9046,1.6617e-05,0
3.9051,2.2995e-05,0
3.9057,2.652e-05,0
3.9062,2.4002e-05,0
3.9067,2.5345e-05,0
3.9072,3.6759e-05,0
3.9077,4.5991e-05,0
3.9082,4.5487e-05,0
3.9088,4.0116e-05,0
3.9093,3.4745e-05,0
3.9098,3.2898e-05,0
3.9103,3.4745e-05,0
3.9108,3.8605e-05,0
3.9114,3.743e-05,0
3.9119,3.2059e-05,0
3.9124,2.6352e-05,0
3.9129,2.0981e-05,0
3.9134,1.5106e-05,0
3.914,1.0239e-05,0
3.9145,9.3996e-06,0
3.915,9.2317e-06,0
3.9155,4.8676e-06,0
3.916,-4.5319e-06,0
3.9166,-1.4939e-05,0
3.9171,-2.0981e-05,0
3.9176,-1.8296e-05,0
3.9181,-1.1917e-05,0
3.9186,-5.539e-06,0
3.9192,2.182e-06,0
3.9197,9.9031e-06,0
3.9202,1.5946e-05,0
3.9207,2.0981e-05,0
3.9212,2.4674e-05,0
3.9217,3.0716e-05,0
3.9223,3.5752e-05,0
3.9228,3.3738e-05,0
3.9233,2.9206e-05,0
3.9238,2.9374e-05,0
3.9243,3.0213e-05,0
3.9249,3.1388e-05,0
3.9254,3.6423e-05,0
3.9259,4.0116e-05,0
3.9264,4.2466e-05,0
3.9269,4.7501e-05,0
3.9275,4.9683e-05,0
3.928,4.5319e-05,0
3.9285,4.0116e-05,0
3.929,3.743e-05,0
3.9295,3.4073e-05,0
3.9301,2.9374e-05,0
3.9306,2.7695e-05,0
3.9311,2.7359e-05,0
3.9316,2.8702e-05,0
3.9321,2.6688e-05,0
3.9327,1.4603e-05,0
3.9332,5.0355e-07,0
3.9337,3.5248e-06,0
3.9342,1.9638e-05,0
3.9347,3.2059e-05,0
3.9352,3.3402e-05,0
3.9358,2.6688e-05,0
3.9363,2.266e-05,0
3.9368,2.0981e-05,0
3.9373,1.6617e-05,0
3.9378,9.2317e-06,0
3.9384,3.1891e-06,0
3.9389,6.714e-07,0
3.9394,-3.357e-07,0
3.9399,-1.8463e-06,0
3.9404,-4.8676e-06,0
3.941,-4.1962e-06,0
3.9415,4.8676e-06,0
3.942,1.4939e-05,0
3.9425,1.8296e-05,0
3.943,1.5274e-05,0
3.9436,1.5274e-05,0
3.9441,1.9974e-05,0
3.9446,2.6017e-05,0
3.9451,2.7024e-05,0
3.9456,2.2492e-05,0
3.9462,1.796e-05,0
3.9467,1.6785e-05,0
3.9472,1.9806e-05,0
3.9477,2.1317e-05,0
3.9482,2.0645e-05,0
3.9487,1.9638e-05,0
3.9493,2.1149e-05,0
3.9498,2.8031e-05,0
3.9503,3.743e-05,0
3.9508,4.3473e-05,0
3.9513,4.2802e-05,0
3.9519,3.7934e-05,0
3.9524,3.1724e-05,0
3.9529,2.5849e-05,0
3.9534,2.3331e-05,0
3.9539,2.7359e-05,0
3.9545,3.4409e-05,0
3.955,3.4745e-05,0
3.9555,2.501e-05,0
3.956,1.3931e-05,0
3.9565,1.0575e-05,0
3.9571,1.4099e-05,0
3.9576,1.561e-05,0
3.9581,1.5442e-05,0
3.9586,2.1317e-05,0
3.9591,3.3234e-05,0
3.9597,4.4816e-05,0
3.9602,4.6159e-05,0
3.9607,3.8605e-05,0
3.9612,3.1724e-05,0
3.9617,2.7024e-05,0
3.9623,2.266e-05,0
3.9628,1.8463e-05,0
3.9633,1.326e-05,0
3.9638,1.0575e-05,0
3.9643,1.0407e-05,0
3.9648,1.0575e-05,0
3.9654,1.1582e-05,0
3.9659,1.5274e-05,0
3.9664,2.266e-05,0
3.9669,2.5681e-05,0
3.9674,1.8631e-05,0
3.968,8.5603e-06,0
3.9685,3.5248e-06,0
3.969,5.0355e-07,0
3.9695,-7.5532e-06,0
3.97,-1.9638e-05,0
3.9706,-2.4506e-05,0
3.9711,-1.561e-05,0
3.9716,2.5177e-06,0
3.9721,1.7288e-05,0
3.9726,2.2324e-05,0
3.9732,1.9303e-05,0
3.9737,1.4603e-05,0
3.9742,9.0639e-06,0
3.9747,6.714e-07,0
3.9752,-4.8676e-06,0
3.9758,2.5177e-06,0
3.9763,1.4939e-05,0
3.9768,2.266e-05,0
3.9773,2.1653e-05,0
3.9778,1.9303e-05,0
3.9783,2.0813e-05,0
3.9789,2.652e-05,0
3.9794,3.1724e-05,0
3.9799,3.3402e-05,0
3.9804,3.4745e-05,0
3.9809,3.6255e-05,0
3.9815,3.6423e-05,0
3.982,3.6088e-05,0
3.9825,3.6088e-05,0
3.983,3.1388e-05,0
3.9835,2.0813e-05,0
3.9841,8.5603e-06,0
3.9846,5.0355e-07,0
3.9851,-1.1749e-06,0
3.9856,1.1749e-06,0
3.9861,1.091e-05,0
3.9867,2.2324e-05,0
3.9872,1.8631e-05,0
3.9877,3.8605e-06,0
3.9882,-2.6856e-06,0
3.9887,5.2033e-06,0
3.9893,1.7288e-05,0
3.9898,2.3163e-05,0
3.9903,2.3667e-05,0
3.9908,2.1149e-05,0
3.9913,1.8296e-05,0
3.9918,1.6617e-05,0
3.9924,1.5946e-05,0
3.9929,1.6449e-05,0
3.9934,1.6617e-05,0
3.9939,1.7792e-05,0
3.9944,1.9974e-05,0
3.995,2.1988e-05,0
3.9955,2.4002e-05,0
3.996,2.7527e-05,0
3.9965,3.1052e-05,0
3.997,3.4577e-05,0
3.9976,3.8437e-05,0
3.9981,4.8005e-05,0
3.9986,6.009e-05,0
3.9991,6.6972e-05,0
3.9996,6.8986e-05,0
4.0002,6.6133e-05,0
4.0007,6.0761e-05,0
4.0012,5.4551e-05,0
4.0017,4.6159e-05,0
4.0022,3.4745e-05,0
4.0027,2.7527e-05,0
4.0033,2.2828e-05,0
4.0038,1.326e-05,0
4.0043,1.6785e-06,0
4.0048,-6.2104e-06,0
4.0053,-8.5603e-06,0
4.0059,-7.0497e-06,0
4.0064,-3.5248e-06,0
4.0069,2.5177e-06,0
4.0074,9.2317e-06,0
4.0079,1.1582e-05,0
4.0085,7.2175e-06,0
4.009,1.1749e-06,0
4.0095,4.1962e-06,0
4.01,1.1246e-05,0
4.0105,1.2421e-05,0
4.0111,5.2033e-06,0
4.0116,-1.0071e-06,0
4.0121,2.182e-06,0
4.0126,8.5603e-06,0
4.0131,1.1078e-05,0
4.0137,1.0575e-05,0
4.0142,1.1582e-05,0
4.0147,1.5106e-05,0
4.0152,1.9135e-05,0
4.0157,2.1317e-05,0
4.0163,2.3163e-05,0
4.0168,2.6017e-05,0
4.0173,2.9709e-05,0
4.0178,3.1724e-05,0
4.0183,3.2059e-05,0
4.0188,3.0884e-05,0
4.0194,2.7527e-05,0
4.0199,2.266e-05,0
4.0204,1.8128e-05,0
4.0209,1.6953e-05,0
4.0214,1.6953e-05,0
4.022,1.6281e-05,0
4.0225,1.2589e-05,0
4.023,7.0497e-06,0
4.0235,6.3783e-06,0
4.024,1.3931e-05,0
4.0246,1.9806e-05,0
4.0251,1.9974e-05,0
4.0256,1.8967e-05,0
4.0261,1.8631e-05,0
4.0266,1.9303e-05,0
4.0272,2.0645e-05,0
4.0277,2.1317e-05,0
4.0282,2.1317e-05,0
4.0287,2.3331e-05,0
4.0292,2.7695e-05,0
4.0297,3.2059e-05,0
4.0303,3.6088e-05,0
4.0308,3.9445e-05,0
4.0313,4.4144e-05,0
4.0318,4.9516e-05,0
4.0323,5.1194e-05,0
4.0329,4.7669e-05,0
4.0334,4.1459e-05,0
4.0339,3.2731e-05,0
4.0344,2.4002e-05,0
4.0349,1.7288e-05,0
4.0355,1.1246e-05,0
4.036,6.714e-06,0
4.0365,4.3641e-06,0
4.037,-1.5106e-06,0
4.0375,-7.5532e-06,0
4.0381,-4.1962e-06,0
4.0386,4.3641e-06,0
4.0391,9.7353e-06,0
4.0396,7.5532e-06,0
4.0401,1.6785e-06,0
4.0407,1.6785e-07,0
4.0412,3.5248e-06,0
4.0417,6.2104e-06,0
4.0422,3.8605e-06,0
4.0427,-3.8605e-06,0
4.0432,-1.1582e-05,0
4.0438,-1.0239e-05,0
4.0443,1.5106e-06,0
4.0448,1.4603e-05,0
4.0453,2.4002e-05,0
4.0458,3.0884e-05,0
4.0464,3.4577e-05,0
4.0469,4.0116e-05,0
4.0474,4.7333e-05,0
4.0479,5.2033e-05,0
4.0484,4.8173e-05,0
4.049,3.9277e-05,0
4.0495,3.1724e-05,0
4.05,2.5177e-05,0
4.0505,1.8631e-05,0
4.051,1.2924e-05,0
4.0516,6.0426e-06,0
4.0521,-1.1749e-06,0
4.0526,-2.8534e-06,0
4.0531,2.8534e-06,0
4.0536,1.1917e-05,0
4.0542,1.796e-05,0
4.0547,2.3331e-05,0
4.0552,2.7359e-05,0
4.0557,3.1724e-05,0
4.0562,3.4745e-05,0
4.0568,3.3906e-05,0
4.0573,3.0381e-05,0
4.0578,2.7024e-05,0
4.0583,2.652e-05,0
4.0588,2.6017e-05,0
4.0593,2.4002e-05,0
4.0599,2.4674e-05,0
4.0604,2.9206e-05,0
4.0609,3.2059e-05,0
4.0614,3.3234e-05,0
4.0619,3.592e-05,0
4.0625,4.0787e-05,0
4.063,4.3641e-05,0
4.0635,4.3137e-05,0
4.064,3.8773e-05,0
4.0645,3.0549e-05,0
4.0651,2.0645e-05,0
4.0656,1.1246e-05,0
4.0661,8.2246e-06,0
4.0666,9.2317e-06,0
4.0671,1.1749e-05,0
4.0677,1.5946e-05,0
4.0682,2.0478e-05,0
4.0687,1.3931e-05,0
4.0692,-1.6785e-07,0
4.0697,-7.2175e-06,0
4.0702,-5.8747e-06,0
4.0708,-6.714e-06,0
4.0713,-1.3596e-05,0
4.0718,-1.8463e-05,0
4.0723,-1.1582e-05,0
4.0728,1.6785e-07,0
4.0734,6.5461e-06,0
4.0739,7.8889e-06,0
4.0744,9.5674e-06,0
4.0749,1.5442e-05,0
4.0754,2.182e-05,0
4.076,2.4002e-05,0
4.0765,2.4506e-05,0
4.077,2.6688e-05,0
4.0775,3.3402e-05,0
4.078,3.8773e-05,0
4.0786,3.978e-05,0
4.0791,3.978e-05,0
4.0796,4.3641e-05,0
4.0801,4.8508e-05,0
4.0806,5.0019e-05,0
4.0812,4.8676e-05,0
4.0817,4.7166e-05,0
4.0822,4.3473e-05,0
4.0827,3.6591e-05,0
4.0832,3.0549e-05,0
4.0838,2.7359e-05,0
4.0843,2.266e-05,0
4.0848,1.4435e-05,0
4.0853,2.5177e-06,0
4.0858,-6.8818e-06,0
4.0863,-1.1078e-05,0
4.0869,-1.0407e-05,0
4.0874,-1.0575e-05,0
4.0879,-1.4267e-05,0
4.0884,-1.4939e-05,0
4.0889,-6.8818e-06,0
4.0895,3.6927e-06,0
4.09,8.896e-06,0
4.0905,8.0568e-06,0
4.091,4.1962e-06,0
4.0915,5.2033e-06,0
4.0921,1.1917e-05,0
4.0926,1.7624e-05,0
4.0931,1.9471e-05,0
4.0936,2.0478e-05,0
4.0941,2.4002e-05,0
4.0947,3.0716e-05,0
4.0952,3.7934e-05,0
4.0957,4.2466e-05,0
4.0962,4.5487e-05,0
4.0967,4.8173e-05,0
4.0972,4.8005e-05,0
4.0978,4.5823e-05,0
4.0983,4.4144e-05,0
4.0988,4.5991e-05,0
4.0993,4.683e-05,0
4.0998,4.4144e-05,0
4.1004,3.827e-05,0
4.1009,2.652e-05,0
4.1014,8.5603e-06,0
4.1019,-9.0639e-06,0
4.1024,-1.1917e-05,0
4.103,5.0355e-07,0
4.1035,1.3931e-05,0
4.104,1.796e-05,0
4.1045,1.5106e-05,0
4.105,1.1078e-05,0
4.1056,9.0639e-06,0
4.1061,1.2253e-05,0
4.1066,1.7624e-05,0
4.1071,2.1317e-05,0
4.1076,2.4002e-05,0
4.1082,2.7527e-05,0
4.1087,3.1388e-05,0
4.1092,3.3402e-05,0
4.1097,3.1724e-05,0
4.1102,2.7695e-05,0
4.1108,2.4002e-05,0
4.1113,2.5849e-05,0
4.1118,3.2395e-05,0
4.1123,3.9445e-05,0
4.1128,4.213e-05,0
4.1133,4.1123e-05,0
4.1139,3.827e-05,0
4.1144,3.3738e-05,0
4.1149,2.5849e-05,0
4.1154,1.5946e-05,0
4.1159,9.0639e-06,0
4.1165,4.3641e-06,0
4.117,2.0142e-06,0
4.1175,-2.5177e-06,0
4.118,-9.3996e-06,0
4.1185,-1.3596e-05,0
4.1191,-1.2421e-05,0
4.1196,-7.2175e-06,0
4.1201,-6.714e-07,0
4.1206,5.0355e-06,0
4.1211,1.0239e-05,0
4.1217,1.5274e-05,0
4.1222,1.6617e-05,0
4.1227,1.3596e-05,0
4.1232,5.539e-06,0
4.1237,-2.182e-06,0
4.1242,-5.0355e-07,0
4.1248,1.0575e-05,0
4.1253,2.1149e-05,0
4.1258,2.5681e-05,0
4.1263,3.0045e-05,0
4.1268,3.6088e-05,0
4.1274,4.1794e-05,0
4.1279,4.5991e-05,0
4.1284,4.918e-05,0
4.1289,4.7669e-05,0
4.1294,4.2634e-05,0
4.13,3.9612e-05,0
4.1305,3.5752e-05,0
4.131,2.7024e-05,0
4.1315,1.5442e-05,0
4.132,6.5461e-06,0
4.1326,5.0355e-06,0
4.1331,8.3925e-06,0
4.1336,1.0575e-05,0
4.1341,8.5603e-06,0
4.1346,-3.8605e-06,0
4.1352,-2.031e-05,0
4.1357,-2.2492e-05,0
4.1362,-8.5603e-06,0
4.1367,7.8889e-06,0
4.1372,1.7456e-05,0
4.1377,2.031e-05,0
4.1383,2.4338e-05,0
4.1388,3.508e-05,0
4.1393,4.8173e-05,0
4.1398,5.7908e-05,0
4.1403,5.9586e-05,0
4.1409,5.774e-05,0
4.1414,5.5558e-05,0
4.1419,5.153e-05,0
4.1424,4.5151e-05,0
4.1429,3.6759e-05,0
4.1435,2.7359e-05,0
4.144,2.031e-05,0
4.1445,1.561e-05,0
4.145,1.2589e-05,0
4.1455,1.0575e-05,0
4.1461,3.1891e-06,0
4.1466,-4.1962e-06,0
4.1471,-5.0355e-06,0
4.1476,1.1749e-06,0
4.1481,1.0407e-05,0
4.1487,1.5946e-05,0
4.1492,1.561e-05,0
4.1497,1.6281e-05,0
4.1502,1.8631e-05,0
4.1507,1.8631e-05,0
4.1513,2.0645e-05,0
4.1518,2.5681e-05,0
4.1523,2.8367e-05,0
4.1528,3.0381e-05,0
4.1533,3.3066e-05,0
4.1538,3.6759e-05,0
4.1544,4.6159e-05,0
4.1549,5.6733e-05,0
4.1554,5.8244e-05,0
4.1559,4.5151e-05,0
4.1564,2.1317e-05,0
4.157,1.1749e-06,0
4.1575,-1.0575e-05,0
4.158,-1.8296e-05,0
4.1585,-2.266e-05,0
4.159,-2.2324e-05,0
4.1596,-2.2492e-05,0
4.1601,-2.4338e-05,0
4.1606,-2.4002e-05,0
4.1611,-2.1988e-05,0
4.1616,-1.561e-05,0
4.1622,-4.5319e-06,0
4.1627,8.3925e-06,0
4.1632,1.8296e-05,0
4.1637,2.266e-05,0
4.1642,2.417e-05,0
4.1647,2.652e-05,0
4.1653,2.8534e-05,0
4.1658,3.0045e-05,0
4.1663,3.5416e-05,0
4.1668,4.6159e-05,0
4.1673,5.7572e-05,0
4.1679,6.4286e-05,0
4.1684,6.5629e-05,0
4.1689,6.4286e-05,0
4.1694,6.5126e-05,0
4.1699,6.4454e-05,0
4.1705,6.2608e-05,0
4.171,6.4286e-05,0
4.1715,6.3951e-05,0
4.172,5.1026e-05,0
4.1725,3.2731e-05,0
4.1731,1.9974e-05,0
4.1736,1.3092e-05,0
4.1741,7.2175e-06,0
4.1746,-1.6785e-06,0
4.1751,-1.1414e-05,0
4.1757,-1.9303e-05,0
4.1762,-2.4338e-05,0
4.1767,-2.501e-05,0
4.1772,-2.2492e-05,0
4.1777,-1.9638e-05,0
4.1783,-1.9638e-05,0
4.1788,-2.1317e-05,0
4.1793,-1.796e-05,0
4.1798,-8.2246e-06,0
4.1803,4.5319e-06,0
4.1808,1.5274e-05,0
4.1814,2.3667e-05,0
4.1819,2.8702e-05,0
4.1824,3.3906e-05,0
4.1829,4.1459e-05,0
4.1834,4.6998e-05,0
4.184,5.0355e-05,0
4.1845,5.2201e-05,0
4.185,5.0858e-05,0
4.1855,4.8005e-05,0
4.186,4.5823e-05,0
4.1866,4.6159e-05,0
4.1871,4.4144e-05,0
4.1876,3.6759e-05,0
4.1881,2.266e-05,0
4.1886,8.3925e-06,0
4.1892,-4.1962e-06,0
4.1897,-1.3596e-05,0
4.1902,-1.4099e-05,0
4.1907,-8.5603e-06,0
4.1912,-7.2175e-06,0
4.1917,-9.0639e-06,0
4.1923,-7.3854e-06,0
4.1928,3.1891e-06,0
4.1933,2.031e-05,0
4.1938,4.0787e-05,0
4.1943,5.6901e-05,0
4.1949,5.7069e-05,0
4.1954,5.0187e-05,0
4.1959,4.683e-05,0
4.1964,4.7333e-05,0
4.1969,4.3809e-05,0
4.1975,3.3906e-05,0
4.198,2.2324e-05,0
4.1985,1.1749e-05,0
4.199,1.1749e-06,0
4.1995,-7.5532e-06,0
4.2001,-1.9806e-05,0
4.2006,-3.8102e-05,0
4.2011,-5.3208e-05,0
4.2016,-5.5222e-05,0
4.2021,-4.2802e-05,0
4.2027,-2.1988e-05,0
4.2032,5.0355e-07,0
4.2037,1.8631e-05,0
4.2042,2.8031e-05,0
4.2047,3.4409e-05,0
4.2053,4.3809e-05,0
4.2058,5.2033e-05,0
4.2063,5.3544e-05,0
4.2068,4.7333e-05,0
4.2073,3.8102e-05,0
4.2078,3.4409e-05,0
4.2084,3.7263e-05,0
4.2089,4.0116e-05,0
4.2094,3.8102e-05,0
4.2099,3.1052e-05,0
4.2104,2.4674e-05,0
4.211,2.3499e-05,0
4.2115,2.4506e-05,0
4.212,2.1317e-05,0
4.2125,9.9031e-06,0
4.213,-5.0355e-06,0
4.2136,-5.2033e-06,0
4.2141,8.5603e-06,0
4.2146,1.9135e-05,0
4.2151,2.1988e-05,0
4.2156,2.3667e-05,0
4.2162,2.3835e-05,0
4.2167,1.9135e-05,0
4.2172,1.326e-05,0
4.2177,1.0575e-05,0
4.2182,7.8889e-06,0
4.2188,5.8747e-06,0
4.2193,6.2104e-06,0
4.2198,9.2317e-06,0
4.2203,1.3764e-05,0
4.2208,1.6449e-05,0
4.2213,1.7121e-05,0
4.2219,2.0813e-05,0
4.2224,2.8534e-05,0
4.2229,3.3402e-05,0
4.2234,3.2731e-05,0
4.2239,2.7695e-05,0
4.2245,1.8799e-05,0
4.225,1.326e-05,0
4.2255,1.7288e-05,0
4.226,2.6017e-05,0
4.2265,3.2731e-05,0
4.2271,3.7095e-05,0
4.2276,4.4144e-05,0
4.2281,5.623e-05,0
4.2286,6.5461e-05,0
4.2291,6.4286e-05,0
4.2297,5.7572e-05,0
4.2302,5.1865e-05,0
4.2307,4.683e-05,0
4.2312,4.2634e-05,0
4.2317,3.9445e-05,0
4.2322,3.7934e-05,0
4.2328,3.5416e-05,0
4.2333,2.9374e-05,0
4.2338,2.5345e-05,0
4.2343,2.5177e-05,0
4.2348,2.5849e-05,0
4.2354,2.2995e-05,0
4.2359,1.7288e-05,0
4.2364,1.3596e-05,0
4.2369,1.1078e-05,0
4.2374,1.0575e-05,0
4.238,1.3764e-05,0
4.2385,2.031e-05,0
4.239,2.9206e-05,0
4.2395,3.3738e-05,0
4.24,3.1052e-05,0
4.2406,2.5345e-05,0
4.2411,1.9303e-05,0
4.2416,1.4603e-05,0
4.2421,1.1246e-05,0
4.2426,4.5319e-06,0
4.2432,-4.5319e-06,0
4.2437,-1.1582e-05,0
4.2442,-2.0645e-05,0
4.2447,-3.2731e-05,0
4.2452,-3.7766e-05,0
4.2458,-2.8367e-05,0
4.2463,-1.0239e-05,0
4.2468,7.8889e-06,0
4.2473,1.9471e-05,0
4.2478,2.1317e-05,0
4.2483,1.9135e-05,0
4.2489,1.9974e-05,0
4.2494,2.4002e-05,0
4.2499,2.8702e-05,0
4.2504,3.2563e-05,0
4.2509,3.1724e-05,0
4.2515,2.8367e-05,0
4.252,2.8702e-05,0
4.2525,2.9374e-05,0
4.253,3.2395e-05,0
4.2535,3.7095e-05,0
4.2541,4.0116e-05,0
4.2546,4.213e-05,0
4.2551,4.3137e-05,0
4.2556,3.743e-05,0
4.2561,2.5177e-05,0
4.2567,1.6953e-05,0
4.2572,1.8631e-05,0
4.2577,2.3667e-05,0
4.2582,2.1988e-05,0
4.2587,1.3931e-05,0
4.2592,1.326e-05,0
4.2598,2.0813e-05,0
4.2603,2.3667e-05,0
4.2608,1.8967e-05,0
4.2613,1.3931e-05,0
4.2618,9.0639e-06,0
4.2624,2.5177e-06,0
4.2629,-3.8605e-06,0
4.2634,-1.1078e-05,0
4.2639,-1.6449e-05,0
4.2644,-2.3835e-05,0
4.265,-3.508e-05,0
4.2655,-4.0452e-05,0
4.266,-3.1388e-05,0
4.2665,-1.3596e-05,0
4.267,7.2175e-06,0
4.2676,2.8367e-05,0
4.2681,4.3473e-05,0
4.2686,5.0858e-05,0
4.2691,5.1698e-05,0
4.2696,4.3473e-05,0
4.2702,2.9038e-05,0
4.2707,1.9303e-05,0
4.2712,1.6785e-05,0
4.2717,1.9974e-05,0
4.2722,2.3163e-05,0
4.2728,2.2995e-05,0
4.2733,1.9806e-05,0
4.2738,1.5946e-05,0
4.2743,1.6617e-05,0
4.2748,2.4506e-05,0
4.2753,3.0549e-05,0
4.2759,2.9877e-05,0
4.2764,2.4674e-05,0
4.2769,2.1317e-05,0
4.2774,1.8631e-05,0
4.2779,1.7624e-05,0
4.2785,2.1317e-05,0
4.279,2.6017e-05,0
4.2795,2.5345e-05,0
4.28,1.9471e-05,0
4.2805,1.0239e-05,0
4.2811,6.2104e-06,0
4.2816,1.5274e-05,0
4.2821,2.8031e-05,0
4.2826,3.2731e-05,0
4.2831,3.0716e-05,0
4.2837,2.6688e-05,0
4.2842,2.3667e-05,0
4.2847,2.0813e-05,0
4.2852,1.9303e-05,0
4.2857,1.7288e-05,0
4.2862,1.2589e-05,0
4.2868,1.0407e-05,0
4.2873,1.2924e-05,0
4.2878,1.5946e-05,0
4.2883,1.9806e-05,0
4.2888,2.5681e-05,0
4.2894,2.8702e-05,0
4.2899,2.9709e-05,0
4.2904,2.9374e-05,0
4.2909,2.5345e-05,0
4.2914,2.4002e-05,0
4.292,2.652e-05,0
4.2925,2.7359e-05,0
4.293,2.6352e-05,0
4.2935,2.3667e-05,0
4.294,2.3331e-05,0
4.2946,2.5849e-05,0
4.2951,2.5849e-05,0
4.2956,2.3835e-05,0
4.2961,2.1988e-05,0
4.2966,2.1653e-05,0
4.2972,2.1317e-05,0
4.2977,1.9303e-05,0
4.2982,1.9135e-05,0
4.2987,2.4842e-05,0
4.2992,3.0381e-05,0
4.2998,3.1388e-05,0
4.3003,3.122e-05,0
4.3008,3.2395e-05,0
4.3013,3.4745e-05,0
4.3018,3.5752e-05,0
4.3023,3.1891e-05,0
4.3029,2.5177e-05,0
4.3034,2.0645e-05,0
4.3039,2.031e-05,0
4.3044,2.1317e-05,0
4.3049,2.2156e-05,0
4.3055,2.2492e-05,0
4.306,1.9638e-05,0
4.3065,1.2421e-05,0
4.307,6.8818e-06,0
4.3075,3.1891e-06,0
4.3081,-1.5106e-06,0
4.3086,-2.0142e-06,0
4.3091,3.0213e-06,0
4.3096,9.9031e-06,0
4.3101,1.4603e-05,0
4.3107,1.6617e-05,0
4.3112,1.796e-05,0
4.3117,1.8463e-05,0
4.3122,1.8967e-05,0
4.3127,2.1149e-05,0
4.3133,2.1988e-05,0
4.3138,2.1317e-05,0
4.3143,2.0645e-05,0
4.3148,2.1317e-05,0
4.3153,2.5345e-05,0
4.3158,2.7527e-05,0
4.3164,2.5345e-05,0
4.3169,2.266e-05,0
4.3174,1.8967e-05,0
4.3179,1.2924e-05,0
4.3184,8.896e-06,0
4.319,1.0575e-05,0
4.3195,1.7288e-05,0
4.32,2.1988e-05,0
4.3205,2.266e-05,0
4.321,2.1317e-05,0
4.3216,2.1317e-05,0
4.3221,2.266e-05,0
4.3226,2.4842e-05,0
4.3231,2.9206e-05,0
4.3236,3.5248e-05,0
4.3242,4.1123e-05,0
4.3247,4.5151e-05,0
4.3252,5.0858e-05,0
4.3257,5.2873e-05,0
4.3262,5.0019e-05,0
4.3267,4.6494e-05,0
4.3273,4.213e-05,0
4.3278,3.3066e-05,0
4.3283,1.4771e-05,0
4.3288,-1.091e-05,0
4.3293,-3.5416e-05,0
4.3299,-5.0523e-05,0
4.3304,-5.5894e-05,0
4.3309,-5.3376e-05,0
4.3314,-4.5823e-05,0
4.3319,-3.7934e-05,0
4.3325,-2.9877e-05,0
4.333,-1.8967e-05,0
4.3335,-5.8747e-06,0
4.334,6.714e-06,0
4.3345,1.9974e-05,0
4.3351,3.3906e-05,0
4.3356,4.3305e-05,0
4.3361,4.3641e-05,0
4.3366,3.4745e-05,0
4.3371,2.417e-05,0
4.3377,2.266e-05,0
4.3382,3.0213e-05,0
4.3387,3.8437e-05,0
4.3392,4.1962e-05,0
4.3397,4.1123e-05,0
4.3403,4.1459e-05,0
4.3408,4.448e-05,0
4.3413,4.8844e-05,0
4.3418,5.2201e-05,0
4.3423,5.2537e-05,0
4.3428,5.0019e-05,0
4.3434,4.6326e-05,0
4.3439,4.448e-05,0
4.3444,4.5487e-05,0
4.3449,4.8676e-05,0
4.3454,5.1194e-05,0
4.346,4.9516e-05,0
4.3465,4.3137e-05,0
4.347,3.122e-05,0
4.3475,1.4435e-05,0
4.348,5.0355e-07,0
4.3486,-3.6927e-06,0
4.3491,-2.182e-06,0
4.3496,-3.357e-07,0
4.3501,-2.182e-06,0
4.3506,-6.8818e-06,0
4.3512,-1.2757e-05,0
4.3517,-1.4099e-05,0
4.3522,-8.7282e-06,0
4.3527,1.1749e-06,0
4.3532,7.7211e-06,0
4.3537,8.896e-06,0
4.3543,8.5603e-06,0
4.3548,9.3996e-06,0
4.3553,7.0497e-06,0
4.3558,3.5248e-06,0
4.3563,4.1962e-06,0
4.3569,9.9031e-06,0
4.3574,1.796e-05,0
4.3579,2.2995e-05,0
4.3584,2.4674e-05,0
4.3589,2.7695e-05,0
4.3595,3.2395e-05,0
4.36,3.4409e-05,0
4.3605,3.4577e-05,0
4.361,3.6759e-05,0
4.3615,3.9948e-05,0
4.3621,3.7095e-05,0
4.3626,2.8199e-05,0
4.3631,2.3163e-05,0
4.3636,2.6352e-05,0
4.3641,3.3738e-05,0
4.3647,3.9948e-05,0
4.3652,4.3641e-05,0
4.3657,4.4648e-05,0
4.3662,4.4984e-05,0
4.3667,4.6662e-05,0
4.3673,4.9851e-05,0
4.3678,5.0019e-05,0
4.3683,4.4648e-05,0
4.3688,3.8773e-05,0
4.3693,3.4745e-05,0
4.3698,3.0381e-05,0
4.3704,1.9974e-05,0
4.3709,1.0239e-05,0
4.3714,1.2253e-05,0
4.3719,1.9974e-05,0
4.3724,2.0142e-05,0
4.373,1.1582e-05,0
4.3735,-1.0071e-06,0
4.374,-1.3931e-05,0
4.3745,-2.0478e-05,0
4.375,-1.561e-05,0
4.3756,-7.5532e-06,0
4.3761,-3.357e-06,0
4.3766,-1.5106e-06,0
4.3771,-1.6785e-07,0
4.3776,-1.6785e-07,0
4.3782,-2.3499e-06,0
4.3787,-4.8676e-06,0
4.3792,-8.5603e-06,0
4.3797,-8.5603e-06,0
4.3802,-2.0142e-06,0
4.3807,8.896e-06,0
4.3813,1.7792e-05,0
4.3818,2.2828e-05,0
4.3823,2.501e-05,0
4.3828,2.5345e-05,0
4.3833,2.501e-05,0
4.3839,2.501e-05,0
4.3844,2.3835e-05,0
4.3849,2.0981e-05,0
4.3854,1.6449e-05,0
4.3859,1.3931e-05,0
4.3865,1.4099e-05,0
4.387,1.0071e-05,0
4.3875,1.6785e-06,0
4.388,-2.0142e-06,0
4.3885,4.0284e-06,0
4.3891,1.4939e-05,0
4.3896,2.182e-05,0
4.3901,2.5345e-05,0
4.3906,3.2731e-05,0
4.3911,4.1459e-05,0
4.3917,4.6662e-05,0
4.3922,4.8005e-05,0
4.3927,4.7669e-05,0
4.3932,4.9348e-05,0
4.3937,5.0858e-05,0
4.3943,5.069e-05,0
4.3948,4.9851e-05,0
4.3953,4.8844e-05,0
4.3958,5.0858e-05,0
4.3963,5.1865e-05,0
4.3968,4.3473e-05,0
4.3974,3.3234e-05,0
4.3979,3.5584e-05,0
4.3984,4.8173e-05,0
4.3989,5.8579e-05,0
4.3994,5.8747e-05,0
4.4,4.7837e-05,0
4.4005,2.5345e-05,0
4.401,4.5319e-06,0
4.4015,-1.0239e-05,0
4.402,-2.2492e-05,0
4.4026,-2.9206e-05,0
4.4031,-2.9709e-05,0
4.4036,-3.1052e-05,0
4.4041,-3.8437e-05,0
4.4046,-3.9109e-05,0
4.4052,-2.7024e-05,0
4.4057,-1.2421e-05,0
4.4062,-3.0213e-06,0
4.4067,3.5248e-06,0
4.4072,7.3854e-06,0
4.4078,6.2104e-06,0
4.4083,3.0213e-06,0
4.4088,3.1891e-06,0
4.4093,3.5248e-06,0
4.4098,1.5106e-06,0
4.4103,-1.6785e-07,0
4.4109,8.3925e-07,0
4.4114,5.2033e-06,0
4.4119,1.3764e-05,0
4.4124,2.3331e-05,0
4.4129,3.0045e-05,0
4.4135,3.3066e-05,0
4.414,3.4745e-05,0
4.4145,3.5752e-05,0
4.415,3.5584e-05,0
4.4155,3.5752e-05,0
4.4161,3.5584e-05,0
4.4166,3.4745e-05,0
4.4171,3.4409e-05,0
4.4176,3.2395e-05,0
4.4181,3.0381e-05,0
4.4187,3.2059e-05,0
4.4192,3.3738e-05,0
4.4197,3.2898e-05,0
4.4202,3.2731e-05,0
4.4207,3.2395e-05,0
4.4212,3.6088e-05,0
4.4218,4.1794e-05,0
4.4223,4.4648e-05,0
4.4228,4.7501e-05,0
4.4233,5.3376e-05,0
4.4238,5.7237e-05,0
4.4244,5.5222e-05,0
4.4249,5.0858e-05,0
4.4254,4.9516e-05,0
4.4259,5.153e-05,0
4.4264,4.8676e-05,0
4.427,4.0116e-05,0
4.4275,3.3066e-05,0
4.428,3.1724e-05,0
4.4285,2.8534e-05,0
4.429,2.0645e-05,0
4.4296,1.4267e-05,0
4.4301,9.5674e-06,0
4.4306,5.539e-06,0
4.4311,-1.5106e-06,0
4.4316,-9.2317e-06,0
4.4322,-9.7353e-06,0
4.4327,-2.6856e-06,0
4.4332,-1.1749e-06,0
4.4337,-9.7353e-06,0
4.4342,-1.8631e-05,0
4.4348,-2.0645e-05,0
4.4353,-1.5946e-05,0
4.4358,-1.091e-05,0
4.4363,-8.5603e-06,0
4.4368,-6.8818e-06,0
4.4373,-2.8534e-06,0
4.4379,4.5319e-06,0
4.4384,1.1246e-05,0
4.4389,1.4267e-05,0
4.4394,1.4939e-05,0
4.4399,1.7288e-05,0
4.4405,2.1317e-05,0
4.441,2.5345e-05,0
4.4415,2.9038e-05,0
4.442,3.2059e-05,0
4.4425,3.3906e-05,0
4.4431,3.4409e-05,0
4.4436,3.3402e-05,0
4.4441,3.2731e-05,0
4.4446,2.9374e-05,0
4.4451,2.7695e-05,0
4.4457,3.1052e-05,0
4.4462,3.122e-05,0
4.4467,2.6688e-05,0
4.4472,2.652e-05,0
4.4477,2.9709e-05,0
4.4482,3.3402e-05,0
4.4488,3.3066e-05,0
4.4493,2.8367e-05,0
4.4498,2.4338e-05,0
4.4503,2.8031e-05,0
4.4508,3.7095e-05,0
4.4514,4.1459e-05,0
4.4519,3.978e-05,0
4.4524,3.8773e-05,0
4.4529,3.827e-05,0
4.4534,3.2731e-05,0
4.454,2.3667e-05,0
4.4545,1.9806e-05,0
4.455,2.031e-05,0
4.4555,1.8463e-05,0
4.456,1.0575e-05,0
4.4566,0,0
4.4571,-1.1582e-05,0
4.4576,-2.266e-05,0
4.4581,-3.0884e-05,0
4.4586,-3.2395e-05,0
4.4592,-2.4338e-05,0
4.4597,-1.2924e-05,0
4.4602,-4.1962e-06,0
4.4607,2.182e-06,0
4.4612,6.2104e-06,0
4.4618,7.5532e-06,0
4.4623,8.896e-06,0
4.4628,1.2253e-05,0
4.4633,1.8296e-05,0
4.4638,2.266e-05,0
4.4643,2.3835e-05,0
4.4649,2.4674e-05,0
4.4654,2.7527e-05,0
4.4659,3.1556e-05,0
4.4664,3.3234e-05,0
4.4669,3.2563e-05,0
4.4675,3.122e-05,0
4.468,3.0045e-05,0
4.4685,3.0213e-05,0
4.469,2.8031e-05,0
4.4695,2.6352e-05,0
4.4701,2.7192e-05,0
4.4706,2.9877e-05,0
4.4711,3.0716e-05,0
4.4716,2.7863e-05,0
4.4721,2.3667e-05,0
4.4727,2.2995e-05,0
4.4732,2.7359e-05,0
4.4737,3.4409e-05,0
4.4742,4.2634e-05,0
4.4747,4.7333e-05,0
4.4752,4.683e-05,0
4.4758,4.5823e-05,0
4.4763,4.6998e-05,0
4.4768,4.6326e-05,0
4.4773,4.2298e-05,0
4.4778,3.6423e-05,0
4.4784,3.0381e-05,0
4.4789,2.5345e-05,0
4.4794,1.8967e-05,0
4.4799,9.0639e-06,0
4.4804,-6.714e-07,0
4.481,-2.8534e-06,0
4.4815,-1.8463e-06,0
4.482,-3.8605e-06,0
4.4825,-9.9031e-06,0
4.483,-1.8296e-05,0
4.4836,-2.0142e-05,0
4.4841,-1.2924e-05,0
4.4846,3.357e-07,0
4.4851,1.0407e-05,0
4.4856,1.091e-05,0
4.4862,7.2175e-06,0
4.4867,9.2317e-06,0
4.4872,1.6617e-05,0
4.4877,2.4842e-05,0
4.4882,3.3738e-05,0
4.4887,4.0116e-05,0
4.4893,4.4648e-05,0
4.4898,4.7166e-05,0
4.4903,4.5151e-05,0
4.4908,4.4144e-05,0
4.4913,5.0858e-05,0
4.4919,6.1601e-05,0
4.4924,6.4118e-05,0
4.4929,5.8244e-05,0
4.4934,4.3641e-05,0
4.4939,2.1317e-05,0
4.4945,-1.1749e-06,0
4.495,-1.561e-05,0
4.4955,-2.0478e-05,0
4.496,-1.8296e-05,0
4.4965,-1.5442e-05,0
4.4971,-1.6617e-05,0
4.4976,-2.031e-05,0
4.4981,-2.1988e-05,0
4.4986,-1.7624e-05,0
4.4991,-6.3783e-06,0
4.4997,4.5319e-06,0
4.5002,8.896e-06,0
4.5007,1.0239e-05,0
4.5012,1.326e-05,0
4.5017,1.4603e-05,0
4.5023,1.6617e-05,0
4.5028,2.0645e-05,0
4.5033,2.6688e-05,0
4.5038,3.2563e-05,0
4.5043,3.6255e-05,0
4.5048,3.7766e-05,0
4.5054,4.062e-05,0
4.5059,4.3977e-05,0
4.5064,4.5319e-05,0
4.5069,4.5823e-05,0
4.5074,4.1459e-05,0
4.508,3.0045e-05,0
4.5085,2.0478e-05,0
4.509,1.7792e-05,0
4.5095,1.8631e-05,0
4.51,1.9303e-05,0
4.5106,1.4603e-05,0
4.5111,8.896e-06,0
4.5116,7.8889e-06,0
4.5121,1.2757e-05,0
4.5126,2.266e-05,0
4.5132,3.0549e-05,0
4.5137,3.3402e-05,0
4.5142,3.357e-05,0
4.5147,3.2059e-05,0
4.5152,2.9206e-05,0
4.5157,2.6688e-05,0
4.5163,2.5849e-05,0
4.5168,2.4506e-05,0
4.5173,1.9303e-05,0
4.5178,1.5274e-05,0
4.5183,1.5946e-05,0
4.5189,1.8967e-05,0
4.5194,2.0981e-05,0
4.5199,2.1988e-05,0
4.5204,2.0645e-05,0
4.5209,1.5946e-05,0
4.5215,1.3764e-05,0
4.522,1.7624e-05,0
4.5225,2.6017e-05,0
4.523,3.3066e-05,0
4.5235,3.4745e-05,0
4.5241,3.3906e-05,0
4.5246,3.0381e-05,0
4.5251,2.3331e-05,0
4.5256,1.4939e-05,0
4.5261,8.5603e-06,0
4.5267,5.8747e-06,0
4.5272,3.8605e-06,0
4.5277,2.182e-06,0
4.5282,4.3641e-06,0
4.5287,5.2033e-06,0
4.5293,3.6927e-06,0
4.5298,4.1962e-06,0
4.5303,8.5603e-06,0
4.5308,1.2757e-05,0
4.5313,1.4603e-05,0
4.5318,1.7792e-05,0
4.5324,2.1317e-05,0
4.5329,2.1317e-05,0
4.5334,1.9806e-05,0
4.5339,1.9974e-05,0
4.5344,2.182e-05,0
4.535,2.4002e-05,0
4.5355,2.5177e-05,0
4.536,2.6352e-05,0
4.5365,2.887e-05,0
4.537,3.4745e-05,0
4.5376,4.1794e-05,0
4.5381,4.4648e-05,0
4.5386,4.5823e-05,0
4.5391,4.4144e-05,0
4.5396,4.4144e-05,0
4.5402,4.7837e-05,0
4.5407,5.0858e-05,0
4.5412,4.7837e-05,0
4.5417,4.2466e-05,0
4.5422,4.062e-05,0
4.5427,4.0116e-05,0
4.5433,3.6423e-05,0
4.5438,2.4842e-05,0
4.5443,6.2104e-06,0
4.5448,-2.5177e-06,0
4.5453,4.3641e-06,0
4.5459,1.1749e-05,0
4.5464,1.3931e-05,0
4.5469,1.2924e-05,0
4.5474,5.7069e-06,0
4.5479,-3.8605e-06,0
4.5485,-8.2246e-06,0
4.549,-1.0575e-05,0
4.5495,-1.1078e-05,0
4.55,-1.0239e-05,0
4.5505,-9.5674e-06,0
4.5511,-8.2246e-06,0
4.5516,-2.3499e-06,0
4.5521,7.0497e-06,0
4.5526,1.1078e-05,0
4.5531,9.0639e-06,0
4.5537,4.8676e-06,0
4.5542,3.8605e-06,0
4.5547,1.1414e-05,0
4.5552,2.2995e-05,0
4.5557,2.9709e-05,0
4.5563,2.9374e-05,0
4.5568,2.5177e-05,0
4.5573,2.266e-05,0
4.5578,2.3835e-05,0
4.5583,2.7695e-05,0
4.5588,3.0381e-05,0
4.5594,2.266e-05,0
4.5599,7.2175e-06,0
4.5604,-5.539e-06,0
4.5609,-1.091e-05,0
4.5614,-6.5461e-06,0
4.562,1.0071e-05,0
4.5625,3.5752e-05,0
4.563,5.7404e-05,0
4.5635,6.6636e-05,0
4.564,6.4286e-05,0
4.5646,5.623e-05,0
4.5651,4.9348e-05,0
4.5656,4.3137e-05,0
4.5661,3.3738e-05,0
4.5666,2.266e-05,0
4.5672,1.1582e-05,0
4.5677,8.3925e-07,0
4.5682,-1.1749e-06,0
4.5687,7.8889e-06,0
4.5692,2.1317e-05,0
4.5697,3.1556e-05,0
4.5703,3.3906e-05,0
4.5708,2.3667e-05,0
4.5713,7.5532e-06,0
4.5718,6.714e-07,0
4.5723,6.5461e-06,0
4.5729,1.3931e-05,0
4.5734,1.4939e-05,0
4.5739,1.0407e-05,0
4.5744,5.2033e-06,0
4.5749,3.5248e-06,0
4.5755,5.539e-06,0
4.576,9.9031e-06,0
4.5765,1.2924e-05,0
4.577,1.4267e-05,0
4.5775,1.7288e-05,0
4.5781,2.4338e-05,0
4.5786,3.122e-05,0
4.5791,3.2731e-05,0
4.5796,3.2898e-05,0
4.5801,3.5248e-05,0
4.5807,3.7095e-05,0
4.5812,3.6088e-05,0
4.5817,3.2731e-05,0
4.5822,2.8367e-05,0
4.5827,2.3331e-05,0
4.5832,1.561e-05,0
4.5838,1.8463e-06,0
4.5843,-1.4603e-05,0
4.5848,-2.031e-05,0
4.5853,-1.2421e-05,0
4.5858,-1.5106e-06,0
4.5864,3.357e-06,0
4.5869,2.8534e-06,0
4.5874,5.0355e-06,0
4.5879,1.2253e-05,0
4.5884,1.9974e-05,0
4.589,2.1149e-05,0
4.5895,1.326e-05,0
4.59,2.0142e-06,0
4.5905,1.5106e-06,0
4.591,1.1917e-05,0
4.5916,2.1317e-05,0
4.5921,2.4506e-05,0
4.5926,2.5345e-05,0
4.5931,2.501e-05,0
4.5936,2.2995e-05,0
4.5942,2.4674e-05,0
4.5947,3.0381e-05,0
4.5952,3.5416e-05,0
4.5957,3.743e-05,0
4.5962,3.6927e-05,0
4.5968,3.5416e-05,0
4.5973,3.3906e-05,0
4.5978,3.1724e-05,0
4.5983,3.0549e-05,0
4.5988,2.8702e-05,0
4.5993,2.9374e-05,0
4.5999,3.3402e-05,0
4.6004,4.2466e-05,0
4.6009,5.6062e-05,0
4.6014,6.3279e-05,0
4.6019,6.1265e-05,0
4.6025,5.5894e-05,0
4.603,5.2201e-05,0
4.6035,5.2201e-05,0
4.604,5.2873e-05,0
4.6045,4.8005e-05,0
4.6051,3.6423e-05,0
4.6056,2.5345e-05,0
4.6061,2.031e-05,0
4.6066,1.3596e-05,0
4.6071,2.3499e-06,0
4.6077,-4.1962e-06,0
4.6082,-2.3499e-06,0
4.6087,4.1962e-06,0
4.6092,1.7624e-05,0
4.6097,3.2059e-05,0
4.6102,4.0284e-05,0
4.6108,4.2466e-05,0
4.6113,3.8102e-05,0
4.6118,2.7192e-05,0
4.6123,1.5106e-05,0
4.6128,4.1962e-06,0
4.6134,-4.5319e-06,0
4.6139,-1.8296e-05,0
4.6144,-3.3738e-05,0
4.6149,-4.0955e-05,0
4.6154,-3.7934e-05,0
4.616,-3.2059e-05,0
4.6165,-3.0045e-05,0
4.617,-2.887e-05,0
4.6175,-2.652e-05,0
4.618,-2.4338e-05,0
4.6186,-2.266e-05,0
4.6191,-2.3331e-05,0
4.6196,-2.3331e-05,0
4.6201,-1.7624e-05,0
4.6206,-4.0284e-06,0
4.6212,1.2589e-05,0
4.6217,2.4506e-05,0
4.6222,3.1388e-05,0
4.6227,3.7766e-05,0
4.6232,4.5151e-05,0
4.6238,5.2201e-05,0
4.6243,5.6901e-05,0
4.6248,5.6733e-05,0
4.6253,5.3544e-05,0
4.6258,5.0019e-05,0
4.6263,4.8676e-05,0
4.6269,4.8173e-05,0
4.6274,4.7837e-05,0
4.6279,4.683e-05,0
4.6284,4.3809e-05,0
4.6289,3.7934e-05,0
4.6295,3.0045e-05,0
4.63,2.5681e-05,0
4.6305,2.4674e-05,0
4.631,2.1988e-05,0
4.6315,1.5274e-05,0
4.6321,8.2246e-06,0
4.6326,3.1891e-06,0
4.6331,1.0071e-06,0
4.6336,2.5177e-06,0
4.6341,5.2033e-06,0
4.6347,7.3854e-06,0
4.6352,5.539e-06,0
4.6357,3.357e-06,0
4.6362,4.8676e-06,0
4.6367,7.8889e-06,0
4.6372,1.0575e-05,0
4.6378,1.3931e-05,0
4.6383,1.5442e-05,0
4.6388,1.1917e-05,0
4.6393,8.896e-06,0
4.6398,1.1246e-05,0
4.6404,1.6953e-05,0
4.6409,2.2324e-05,0
4.6414,2.2995e-05,0
4.6419,2.0645e-05,0
4.6424,1.8463e-05,0
4.643,1.6617e-05,0
4.6435,1.5106e-05,0
4.644,1.6617e-05,0
4.6445,1.9135e-05,0
4.645,2.0645e-05,0
4.6456,2.1317e-05,0
4.6461,2.1317e-05,0
4.6466,2.1317e-05,0
4.6471,2.266e-05,0
4.6476,2.4002e-05,0
4.6482,2.5345e-05,0
4.6487,2.7863e-05,0
4.6492,3.1388e-05,0
4.6497,3.4745e-05,0
4.6502,3.7095e-05,0
4.6508,3.743e-05,0
4.6513,3.8437e-05,0
4.6518,3.9109e-05,0
4.6523,3.978e-05,0
4.6528,4.0452e-05,0
4.6533,3.9612e-05,0
4.6539,3.5416e-05,0
4.6544,3.0045e-05,0
4.6549,2.7863e-05,0
4.6554,2.9877e-05,0
4.6559,3.2898e-05,0
4.6565,3.6759e-05,0
4.657,3.9948e-05,0
4.6575,4.0116e-05,0
4.658,4.0452e-05,0
4.6585,4.4648e-05,0
4.6591,4.5319e-05,0
4.6596,3.6759e-05,0
4.6601,2.5681e-05,0
4.6606,2.0142e-05,0
4.6611,2.6352e-05,0
4.6617,4.0116e-05,0
4.6622,4.213e-05,0
4.6627,2.8367e-05,0
4.6632,1.6617e-05,0
4.6637,2.1317e-05,0
4.6643,3.5248e-05,0
4.6648,3.8605e-05,0
4.6653,3.0213e-05,0
4.6658,2.2156e-05,0
4.6663,1.9638e-05,0
4.6668,1.8967e-05,0
4.6674,1.1582e-05,0
4.6679,-3.1891e-06,0
4.6684,-1.8128e-05,0
4.6689,-2.501e-05,0
4.6694,-2.3163e-05,0
4.67,-1.5274e-05,0
4.6705,-4.3641e-06,0
4.671,8.896e-06,0
4.6715,1.8631e-05,0
4.672,2.1149e-05,0
4.6726,1.6281e-05,0
4.6731,1.0407e-05,0
4.6736,1.2253e-05,0
4.6741,1.796e-05,0
4.6746,2.031e-05,0
4.6752,2.1149e-05,0
4.6757,2.3499e-05,0
4.6762,2.5345e-05,0
4.6767,2.6352e-05,0
4.6772,2.6017e-05,0
4.6777,2.266e-05,0
4.6783,1.8463e-05,0
4.6788,1.4603e-05,0
4.6793,8.896e-06,0
4.6798,3.1891e-06,0
4.6803,0,0
4.6809,-1.5106e-06,0
4.6814,-8.3925e-07,0
4.6819,3.0213e-06,0
4.6824,8.3925e-06,0
4.6829,1.4603e-05,0
4.6835,1.9303e-05,0
4.684,1.7288e-05,0
4.6845,1.4603e-05,0
4.685,1.9303e-05,0
4.6855,2.8031e-05,0
4.6861,3.0213e-05,0
4.6866,2.1653e-05,0
4.6871,1.4939e-05,0
4.6876,1.6617e-05,0
4.6881,2.1653e-05,0
4.6887,2.4842e-05,0
4.6892,2.5177e-05,0
4.6897,2.8031e-05,0
4.6902,3.5248e-05,0
4.6907,4.2802e-05,0
4.6913,4.4816e-05,0
4.6918,4.4144e-05,0
4.6923,4.1794e-05,0
4.6928,3.7095e-05,0
4.6933,3.0045e-05,0
4.6938,2.501e-05,0
4.6944,2.1988e-05,0
4.6949,1.9974e-05,0
4.6954,1.7624e-05,0
4.6959,1.5778e-05,0
4.6964,1.5946e-05,0
4.697,1.6785e-05,0
4.6975,1.3931e-05,0
4.698,3.5248e-06,0
4.6985,-1.4771e-05,0
4.699,-3.2395e-05,0
4.6996,-3.592e-05,0
4.7001,-1.796e-05,0
4.7006,1.2421e-05,0
4.7011,3.592e-05,0
4.7016,4.2802e-05,0
4.7022,3.8437e-05,0
4.7027,3.0381e-05,0
4.7032,2.3331e-05,0
4.7037,1.7792e-05,0
4.7042,1.2924e-05,0
4.7047,9.2317e-06,0
4.7053,7.7211e-06,0
4.7058,9.0639e-06,0
4.7063,8.5603e-06,0
4.7068,5.0355e-06,0
4.7073,4.1962e-06,0
4.7079,7.0497e-06,0
4.7084,1.1749e-05,0
4.7089,1.7456e-05,0
4.7094,2.2324e-05,0
4.7099,2.8031e-05,0
4.7105,3.6759e-05,0
4.711,4.3473e-05,0
4.7115,4.4312e-05,0
4.712,4.2466e-05,0
4.7125,4.0116e-05,0
4.7131,3.4409e-05,0
4.7136,3.1388e-05,0
4.7141,3.4073e-05,0
4.7146,3.5416e-05,0
4.7151,3.2395e-05,0
4.7157,2.501e-05,0
4.7162,7.7211e-06,0
4.7167,-1.091e-05,0
4.7172,-1.9303e-05,0
4.7177,-1.8799e-05,0
4.7183,-1.5442e-05,0
4.7188,-1.6953e-05,0
4.7193,-1.9303e-05,0
4.7198,-1.326e-05,0
4.7203,1.1749e-06,0
4.7208,1.4267e-05,0
4.7214,1.7792e-05,0
4.7219,1.5946e-05,0
4.7224,1.9303e-05,0
4.7229,2.7024e-05,0
4.7234,3.4409e-05,0
4.724,3.8437e-05,0
4.7245,3.743e-05,0
4.725,3.4745e-05,0
4.7255,3.1556e-05,0
4.726,2.9206e-05,0
4.7266,2.7192e-05,0
4.7271,2.4338e-05,0
4.7276,2.3667e-05,0
4.7281,2.501e-05,0
4.7286,2.652e-05,0
4.7292,2.8702e-05,0
4.7297,3.1052e-05,0
4.7302,3.2395e-05,0
4.7307,3.2395e-05,0
4.7312,3.2395e-05,0
4.7317,3.5416e-05,0
4.7323,4.0116e-05,0
4.7328,4.448e-05,0
4.7333,4.8005e-05,0
4.7338,5.2033e-05,0
4.7343,5.8579e-05,0
4.7349,6.2608e-05,0
4.7354,6.0258e-05,0
4.7359,5.388e-05,0
4.7364,4.6662e-05,0
4.7369,3.9109e-05,0
4.7375,3.1556e-05,0
4.738,2.4674e-05,0
4.7385,1.4267e-05,0
4.739,-1.5106e-06,0
4.7395,-1.8799e-05,0
4.7401,-3.2059e-05,0
4.7406,-3.8102e-05,0
4.7411,-3.7263e-05,0
4.7416,-3.2731e-05,0
4.7421,-3.0045e-05,0
4.7427,-2.8031e-05,0
4.7432,-2.0981e-05,0
4.7437,-1.0239e-05,0
4.7442,-1.6785e-07,0
4.7447,6.5461e-06,0
4.7453,9.2317e-06,0
4.7458,9.7353e-06,0
4.7463,1.326e-05,0
4.7468,1.9638e-05,0
4.7473,2.2995e-05,0
4.7478,2.1317e-05,0
4.7484,1.9303e-05,0
4.7489,2.031e-05,0
4.7494,2.501e-05,0
4.7499,3.0213e-05,0
4.7504,3.1724e-05,0
4.751,3.0716e-05,0
4.7515,2.9709e-05,0
4.752,2.8031e-05,0
4.7525,2.7024e-05,0
4.753,2.7024e-05,0
4.7536,2.9541e-05,0
4.7541,3.5584e-05,0
4.7546,4.4144e-05,0
4.7551,5.0187e-05,0
4.7556,5.2873e-05,0
4.7562,5.2873e-05,0
4.7567,4.9012e-05,0
4.7572,4.2802e-05,0
4.7577,4.1962e-05,0
4.7582,4.4984e-05,0
4.7588,4.7501e-05,0
4.7593,4.8005e-05,0
4.7598,4.6662e-05,0
4.7603,4.5319e-05,0
4.7608,3.9948e-05,0
4.7613,2.7359e-05,0
4.7619,1.8631e-05,0
4.7624,2.2995e-05,0
4.7629,3.3234e-05,0
4.7634,3.6088e-05,0
4.7639,2.8367e-05,0
4.7645,1.5778e-05,0
4.765,1.6785e-06,0
4.7655,-9.5674e-06,0
4.766,-1.4939e-05,0
4.7665,-2.3163e-05,0
4.7671,-4.1123e-05,0
4.7676,-5.2873e-05,0
4.7681,-4.3809e-05,0
4.7686,-2.3163e-05,0
4.7691,-1.0071e-05,0
4.7697,-7.7211e-06,0
4.7702,-5.539e-06,0
4.7707,-1.6785e-06,0
4.7712,8.3925e-07,0
4.7717,-1.6785e-07,0
4.7722,1.6785e-07,0
4.7728,5.2033e-06,0
4.7733,1.0407e-05,0
4.7738,1.1917e-05,0
4.7743,9.7353e-06,0
4.7748,5.8747e-06,0
4.7754,6.8818e-06,0
4.7759,1.4603e-05,0
4.7764,2.4002e-05,0
4.7769,3.0884e-05,0
4.7774,3.6423e-05,0
4.778,3.978e-05,0
4.7785,4.1459e-05,0
4.779,4.2466e-05,0
4.7795,4.0787e-05,0
4.78,3.6759e-05,0
4.7806,3.2731e-05,0
4.7811,3.4745e-05,0
4.7816,4.1962e-05,0
4.7821,5.1194e-05,0
4.7826,5.7404e-05,0
4.7832,5.9586e-05,0
4.7837,6.1097e-05,0
4.7842,6.6972e-05,0
4.7847,7.6036e-05,0
4.7852,8.3085e-05,0
4.7858,8.8289e-05,0
4.7863,9.0135e-05,0
4.7868,8.7785e-05,0
4.7873,8.2582e-05,0
4.7878,7.2007e-05,0
4.7883,5.4551e-05,0
4.7889,3.5416e-05,0
4.7894,1.9303e-05,0
4.7899,-1.6785e-07,0
4.7904,-2.5177e-05,0
4.7909,-4.6494e-05,0
4.7915,-5.8076e-05,0
4.792,-6.0594e-05,0
4.7925,-5.7237e-05,0
4.793,-5.3544e-05,0
4.7935,-5.0523e-05,0
4.7941,-4.3977e-05,0
4.7946,-3.3066e-05,0
4.7951,-2.652e-05,0
4.7956,-2.8367e-05,0
4.7961,-3.357e-05,0
4.7967,-3.5752e-05,0
4.7972,-3.1052e-05,0
4.7977,-2.0142e-05,0
4.7982,-6.3783e-06,0
4.7987,5.7069e-06,0
4.7992,1.4267e-05,0
4.7998,1.8631e-05,0
4.8003,2.1317e-05,0
4.8008,2.3163e-05,0
4.8013,2.4002e-05,0
4.8018,2.7695e-05,0
4.8024,3.2731e-05,0
4.8029,3.8102e-05,0
4.8034,4.1291e-05,0
4.8039,4.2802e-05,0
4.8044,4.5151e-05,0
4.805,4.6159e-05,0
4.8055,4.8173e-05,0
4.806,5.0523e-05,0
4.8065,4.7837e-05,0
4.807,4.1962e-05,0
4.8076,3.7095e-05,0
4.8081,3.592e-05,0
4.8086,4.0116e-05,0
4.8091,4.5823e-05,0
4.8096,5.0019e-05,0
4.8102,5.7237e-05,0
4.8107,6.1601e-05,0
4.8112,5.9922e-05,0
4.8117,5.5558e-05,0
4.8122,5.069e-05,0
4.8128,4.7166e-05,0
4.8133,4.5151e-05,0
4.8138,4.5151e-05,0
4.8143,4.6159e-05,0
4.8148,4.3473e-05,0
4.8153,3.0716e-05,0
4.8159,1.2253e-05,0
4.8164,3.8605e-06,0
4.8169,1.3596e-05,0
4.8174,3.2898e-05,0
4.8179,4.7837e-05,0
4.8185,5.1194e-05,0
4.819,4.4816e-05,0
4.8195,3.8437e-05,0
4.82,3.0716e-05,0
4.8205,9.9031e-06,0
4.8211,-2.4002e-05,0
4.8216,-4.8508e-05,0
4.8221,-4.6998e-05,0
4.8226,-3.4409e-05,0
4.8231,-3.1724e-05,0
4.8237,-3.1891e-05,0
4.8242,-2.1988e-05,0
4.8247,-9.5674e-06,0
4.8252,-3.5248e-06,0
4.8257,-4.1962e-06,0
4.8262,-4.1962e-06,0
4.8268,5.0355e-07,0
4.8273,9.2317e-06,0
4.8278,1.6281e-05,0
4.8283,1.9135e-05,0
4.8288,2.1149e-05,0
4.8294,2.3667e-05,0
4.8299,2.652e-05,0
4.8304,2.9206e-05,0
4.8309,2.9374e-05,0
4.8314,2.9206e-05,0
4.832,3.2059e-05,0
4.8325,3.8437e-05,0
4.833,4.4144e-05,0
4.8335,4.6494e-05,0
4.834,4.5319e-05,0
4.8346,4.1794e-05,0
4.8351,3.827e-05,0
4.8356,3.4073e-05,0
4.8361,2.8031e-05,0
4.8366,2.031e-05,0
4.8372,1.3931e-05,0
4.8377,1.091e-05,0
4.8382,8.5603e-06,0
4.8387,4.5319e-06,0
4.8392,-1.1749e-06,0
4.8398,-2.8534e-06,0
4.8403,2.8534e-06,0
4.8408,1.1917e-05,0
4.8413,2.3163e-05,0
4.8418,3.1891e-05,0
4.8423,3.7934e-05,0
4.8429,3.8605e-05,0
4.8434,3.7095e-05,0
4.8439,4.2802e-05,0
4.8444,5.8915e-05,0
4.8449,7.4022e-05,0
4.8455,7.1e-05,0
4.846,4.9348e-05,0
4.8465,2.266e-05,0
4.847,2.5177e-06,0
4.8475,-7.8889e-06,0
4.8481,-1.1917e-05,0
4.8486,-1.2253e-05,0
4.8491,-6.5461e-06,0
4.8496,-5.539e-06,0
4.8501,-1.5274e-05,0
4.8507,-3.0381e-05,0
4.8512,-3.7095e-05,0
4.8517,-2.9709e-05,0
4.8522,-1.6953e-05,0
4.8527,-1.0575e-05,0
4.8533,-8.3925e-06,0
4.8538,-6.8818e-06,0
4.8543,-5.0355e-06,0
4.8548,-4.6998e-06,0
4.8553,-9.2317e-06,0
4.8558,-1.3092e-05,0
4.8564,-9.5674e-06,0
4.8569,-2.182e-06,0
4.8574,2.5177e-06,0
4.8579,5.0355e-07,0
4.8584,-2.182e-06,0
4.859,2.5177e-06,0
4.8595,1.3931e-05,0
4.86,2.4338e-05,0
4.8605,2.9877e-05,0
4.861,3.508e-05,0
4.8616,4.2298e-05,0
4.8621,4.8508e-05,0
4.8626,5.0858e-05,0
4.8631,4.9683e-05,0
4.8636,5.0019e-05,0
4.8642,5.2201e-05,0
4.8647,5.3208e-05,0
4.8652,5.3544e-05,0
4.8657,5.388e-05,0
4.8662,5.3208e-05,0
4.8667,5.2033e-05,0
4.8673,5.1194e-05,0
4.8678,4.9851e-05,0
4.8683,4.9516e-05,0
4.8688,4.8173e-05,0
4.8693,4.8508e-05,0
4.8699,4.9851e-05,0
4.8704,4.9516e-05,0
4.8709,4.918e-05,0
4.8714,4.918e-05,0
4.8719,4.683e-05,0
4.8725,4.2634e-05,0
4.873,4.0116e-05,0
4.8735,3.4409e-05,0
4.874,2.5849e-05,0
4.8745,1.8296e-05,0
4.8751,1.0071e-05,0
4.8756,-1.1749e-06,0
4.8761,-1.326e-05,0
4.8766,-1.9303e-05,0
4.8771,-1.3428e-05,0
4.8777,1.6785e-07,0
4.8782,8.7282e-06,0
4.8787,7.5532e-06,0
4.8792,5.539e-06,0
4.8797,5.8747e-06,0
4.8803,8.2246e-06,0
4.8808,1.0407e-05,0
4.8813,1.0575e-05,0
4.8818,1.1917e-05,0
4.8823,1.6785e-05,0
4.8828,2.1149e-05,0
4.8834,2.1988e-05,0
4.8839,2.2324e-05,0
4.8844,2.6352e-05,0
4.8849,3.2059e-05,0
4.8854,3.2563e-05,0
4.886,3.2395e-05,0
4.8865,3.4913e-05,0
4.887,3.6759e-05,0
4.8875,3.6759e-05,0
4.888,3.4745e-05,0
4.8886,3.0045e-05,0
4.8891,2.7695e-05,0
4.8896,3.0716e-05,0
4.8901,3.4409e-05,0
4.8906,3.1724e-05,0
4.8912,2.5177e-05,0
4.8917,1.8631e-05,0
4.8922,1.1246e-05,0
4.8927,7.0497e-06,0
4.8932,4.3641e-06,0
4.8937,3.0213e-06,0
4.8943,5.8747e-06,0
4.8948,9.7353e-06,0
4.8953,7.2175e-06,0
4.8958,-1.5106e-06,0
4.8963,-9.5674e-06,0
4.8969,-1.1582e-05,0
4.8974,-6.0426e-06,0
4.8979,2.0142e-06,0
4.8984,7.0497e-06,0
4.8989,7.0497e-06,0
4.8995,4.0284e-06,0
4.9,-2.182e-06,0
4.9005,-4.1962e-06,0
4.901,5.8747e-06,0
4.9015,2.5177e-05,0
4.9021,4.3473e-05,0
4.9026,5.1362e-05,0
4.9031,5.0019e-05,0
4.9036,4.2802e-05,0
4.9041,3.3402e-05,0
4.9047,2.1317e-05,0
4.9052,1.2924e-05,0
4.9057,1.326e-05,0
4.9062,2.0813e-05,0
4.9067,2.4002e-05,0
4.9073,1.5946e-05,0
4.9078,1.1749e-06,0
4.9083,-8.5603e-06,0
4.9088,-7.3854e-06,0
4.9093,3.8605e-06,0
4.9098,2.2324e-05,0
4.9104,3.8773e-05,0
4.9109,4.4816e-05,0
4.9114,4.1459e-05,0
4.9119,3.5752e-05,0
4.9124,3.0716e-05,0
4.913,2.501e-05,0
4.9135,1.796e-05,0
4.914,1.3596e-05,0
4.9145,1.2924e-05,0
4.915,1.4939e-05,0
4.9156,1.7792e-05,0
4.9161,1.8967e-05,0
4.9166,1.8128e-05,0
4.9171,1.9974e-05,0
4.9176,2.4674e-05,0
4.9182,2.9038e-05,0
4.9187,3.0213e-05,0
4.9192,3.0381e-05,0
4.9197,2.9877e-05,0
4.9202,2.5345e-05,0
4.9207,1.9638e-05,0
4.9213,1.6617e-05,0
4.9218,1.5442e-05,0
4.9223,1.4939e-05,0
4.9228,1.7792e-05,0
4.9233,2.4842e-05,0
4.9239,2.8702e-05,0
4.9244,2.7359e-05,0
4.9249,2.6017e-05,0
4.9254,2.7359e-05,0
4.9259,2.4338e-05,0
4.9265,1.7121e-05,0
4.927,1.4603e-05,0
4.9275,1.796e-05,0
4.928,1.5946e-05,0
4.9285,3.5248e-06,0
4.9291,-9.9031e-06,0
4.9296,-1.6281e-05,0
4.9301,-1.3596e-05,0
4.9306,-1.1414e-05,0
4.9311,-7.5532e-06,0
4.9317,5.8747e-06,0
4.9322,2.2492e-05,0
4.9327,2.9038e-05,0
4.9332,2.4002e-05,0
4.9337,1.1078e-05,0
4.9342,-3.357e-07,0
4.9348,-3.8605e-06,0
4.9353,-5.0355e-07,0
4.9358,5.8747e-06,0
4.9363,1.1917e-05,0
4.9368,1.6449e-05,0
4.9374,2.2492e-05,0
4.9379,2.8031e-05,0
4.9384,3.1052e-05,0
4.9389,3.4913e-05,0
4.9394,3.9948e-05,0
4.94,4.2802e-05,0
4.9405,4.0452e-05,0
4.941,3.357e-05,0
4.9415,2.4338e-05,0
4.942,1.6449e-05,0
4.9426,1.3596e-05,0
4.9431,1.6953e-05,0
4.9436,2.3331e-05,0
4.9441,2.6688e-05,0
4.9446,2.8702e-05,0
4.9452,3.0884e-05,0
4.9457,3.2731e-05,0
4.9462,3.3738e-05,0
4.9467,3.2059e-05,0
4.9472,2.9206e-05,0
4.9478,2.7024e-05,0
4.9483,2.4674e-05,0
4.9488,2.2492e-05,0
4.9493,2.2995e-05,0
4.9498,2.501e-05,0
4.9503,2.4002e-05,0
4.9509,1.8631e-05,0
4.9514,1.1414e-05,0
4.9519,7.5532e-06,0
4.9524,8.2246e-06,0
4.9529,9.9031e-06,0
4.9535,1.326e-05,0
4.954,1.5274e-05,0
4.9545,1.5274e-05,0
4.955,1.4771e-05,0
4.9555,1.4099e-05,0
4.9561,1.0239e-05,0
4.9566,8.2246e-06,0
4.9571,1.1246e-05,0
4.9576,1.6449e-05,0
4.9581,1.8967e-05,0
4.9587,2.2828e-05,0
4.9592,3.0045e-05,0
4.9597,3.6591e-05,0
4.9602,4.0116e-05,0
4.9607,4.2802e-05,0
4.9612,4.4816e-05,0
4.9618,4.0116e-05,0
4.9623,3.0549e-05,0
4.9628,2.3163e-05,0
4.9633,2.0645e-05,0
4.9638,2.266e-05,0
4.9644,2.501e-05,0
4.9649,2.6352e-05,0
4.9654,2.8031e-05,0
4.9659,2.6688e-05,0
4.9664,2.2156e-05,0
4.967,1.796e-05,0
4.9675,1.3596e-05,0
4.968,1.1582e-05,0
4.9685,1.3428e-05,0
4.969,1.5946e-05,0
4.9696,1.796e-05,0
4.9701,1.8296e-05,0
4.9706,1.9135e-05,0
4.9711,2.1317e-05,0
4.9716,2.417e-05,0
4.9722,2.2995e-05,0
4.9727,1.8631e-05,0
4.9732,1.5274e-05,0
4.9737,1.9638e-05,0
4.9742,2.9709e-05,0
4.9748,3.2563e-05,0
4.9753,3.0045e-05,0
4.9758,3.1052e-05,0
4.9763,3.5416e-05,0
4.9768,3.8102e-05,0
4.9773,3.6255e-05,0
4.9779,3.0381e-05,0
4.9784,2.4002e-05,0
4.9789,2.0981e-05,0
4.9794,1.8967e-05,0
4.9799,1.5442e-05,0
4.9805,1.3931e-05,0
4.981,1.8631e-05,0
4.9815,2.3331e-05,0
4.982,2.4338e-05,0
4.9825,2.0813e-05,0
4.9831,1.9638e-05,0
4.9836,2.3331e-05,0
4.9841,2.7192e-05,0
4.9846,2.6352e-05,0
4.9851,1.9974e-05,0
4.9857,1.2421e-05,0
4.9862,6.8818e-06,0
4.9867,4.3641e-06,0
4.9872,2.182e-06,0
4.9877,1.1749e-06,0
4.9882,-3.0213e-06,0
4.9888,-9.5674e-06,0
4.9893,-1.4603e-05,0
4.9898,-1.3092e-05,0
4.9903,-8.896e-06,0
4.9908,-7.5532e-06,0
4.9914,-8.2246e-06,0
4.9919,-6.5461e-06,0
4.9924,-4.5319e-06,0
4.9929,-3.1891e-06,0
4.9934,1.6785e-06,0
4.994,8.5603e-06,0
4.9945,1.561e-05,0
4.995,1.9303e-05,0
4.9955,1.7624e-05,0
4.996,1.4435e-05,0
4.9966,1.8463e-05,0
4.9971,2.6688e-05,0
4.9976,3.3906e-05,0
4.9981,3.5248e-05,0
4.9986,3.1052e-05,0
4.9992,2.4842e-05,0
4.9997,2.4002e-05,0
5.0002,2.9709e-05,0
5.0007,3.7095e-05,0
5.0012,4.0452e-05,0
5.0018,4.2466e-05,0
5.0023,4.3809e-05,0
5.0028,4.4984e-05,0
5.0033,4.213e-05,0
5.0038,3.5248e-05,0
5.0043,2.9541e-05,0
5.0049,2.6017e-05,0
5.0054,2.3499e-05,0
5.0059,1.9303e-05,0
5.0064,1.4435e-05,0
5.0069,1.091e-05,0
5.0075,1.2421e-05,0
5.008,1.7624e-05,0
5.0085,2.0981e-05,0
5.009,1.9135e-05,0
5.0095,1.3596e-05,0
5.0101,8.896e-06,0
5.0106,9.0639e-06,0
5.0111,1.5274e-05,0
5.0116,2.4506e-05,0
5.0121,3.1556e-05,0
5.0127,4.0955e-05,0
5.0132,5.388e-05,0
5.0137,6.3615e-05,0
5.0142,6.4286e-05,0
5.0147,6.1265e-05,0
5.0152,6.1265e-05,0
5.0158,6.0929e-05,0
5.0163,5.2873e-05,0
5.0168,3.8102e-05,0
5.0173,2.9038e-05,0
5.0178,2.501e-05,0
5.0184,1.4771e-05,0
5.0189,-5.0355e-07,0
5.0194,-1.6281e-05,0
5.0199,-2.652e-05,0
5.0204,-2.3499e-05,0
5.021,-1.4267e-05,0
5.0215,-9.0639e-06,0
5.022,-8.7282e-06,0
5.0225,-1.0575e-05,0
5.023,-1.6281e-05,0
5.0236,-2.0478e-05,0
5.0241,-1.9303e-05,0
5.0246,-1.326e-05,0
5.0251,-5.8747e-06,0
5.0256,0,0
5.0262,1.8463e-06,0
5.0267,3.357e-06,0
5.0272,1.1917e-05,0
5.0277,2.5177e-05,0
5.0282,3.4745e-05,0
5.0287,3.9948e-05,0
5.0293,4.3641e-05,0
5.0298,4.3641e-05,0
5.0303,3.6088e-05,0
5.0308,2.1988e-05,0
5.0313,7.2175e-06,0
5.0319,-5.0355e-07,0
5.0324,3.0213e-06,0
5.0329,1.3931e-05,0
5.0334,2.266e-05,0
5.0339,2.4002e-05,0
5.0345,2.1317e-05,0
5.035,1.9806e-05,0
5.0355,2.501e-05,0
5.036,3.3402e-05,0
5.0365,3.9445e-05,0
5.0371,4.2802e-05,0
5.0376,4.4144e-05,0
5.0381,4.3305e-05,0
5.0386,4.0116e-05,0
5.0391,3.8605e-05,0
5.0397,4.0787e-05,0
5.0402,4.4144e-05,0
5.0407,4.5487e-05,0
5.0412,4.0787e-05,0
5.0417,3.1724e-05,0
5.0423,2.2828e-05,0
5.0428,1.2924e-05,0
5.0433,5.2033e-06,0
5.0438,1.5106e-06,0
5.0443,-2.5177e-06,0
5.0448,-8.5603e-06,0
5.0454,-7.2175e-06,0
5.0459,0,0
5.0464,-8.3925e-07,0
5.0469,-1.091e-05,0
5.0474,-1.9135e-05,0
5.048,-1.8128e-05,0
5.0485,-8.896e-06,0
5.049,-1.8463e-06,0
5.0495,1.8463e-06,0
5.05,6.2104e-06,0
5.0506,1.2589e-05,0
5.0511,1.9135e-05,0
5.0516,2.5849e-05,0
5.0521,3.2395e-05,0
5.0526,3.592e-05,0
5.0532,3.6088e-05,0
5.0537,3.6255e-05,0
5.0542,3.5248e-05,0
5.0547,3.4745e-05,0
5.0552,3.4409e-05,0
5.0557,3.3402e-05,0
5.0563,3.3066e-05,0
5.0568,3.3066e-05,0
5.0573,3.2059e-05,0
5.0578,2.9374e-05,0
5.0583,2.8199e-05,0
5.0589,2.8702e-05,0
5.0594,3.1052e-05,0
5.0599,3.5584e-05,0
5.0604,3.4073e-05,0
5.0609,3.0884e-05,0
5.0615,3.5416e-05,0
5.062,3.9612e-05,0
5.0625,3.743e-05,0
5.063,3.9109e-05,0
5.0635,4.8005e-05,0
5.0641,5.4215e-05,0
5.0646,5.7069e-05,0
5.0651,5.3376e-05,0
5.0656,3.743e-05,0
5.0661,2.0478e-05,0
5.0667,1.326e-05,0
5.0672,1.0239e-05,0
5.0677,9.2317e-06,0
5.0682,1.1414e-05,0
5.0687,1.1078e-05,0
5.0693,3.8605e-06,0
5.0698,-9.0639e-06,0
5.0703,-2.3163e-05,0
5.0708,-3.2563e-05,0
5.0713,-3.2395e-05,0
5.0718,-2.501e-05,0
5.0724,-1.4435e-05,0
5.0729,-4.1962e-06,0
5.0734,1.8463e-06,0
5.0739,4.0284e-06,0
5.0744,7.3854e-06,0
5.075,1.4099e-05,0
5.0755,2.031e-05,0
5.076,2.5345e-05,0
5.0765,2.7192e-05,0
5.077,2.5345e-05,0
5.0776,2.4002e-05,0
5.0781,2.4002e-05,0
5.0786,2.5345e-05,0
5.0791,2.9206e-05,0
5.0796,3.8437e-05,0
5.0802,4.6494e-05,0
5.0807,4.4816e-05,0
5.0812,3.9277e-05,0
5.0817,3.8102e-05,0
5.0822,4.0116e-05,0
5.0827,3.8102e-05,0
5.0833,3.3738e-05,0
5.0838,3.2395e-05,0
5.0843,3.0549e-05,0
5.0848,2.9709e-05,0
5.0853,3.1891e-05,0
5.0859,2.9709e-05,0
5.0864,2.0981e-05,0
5.0869,1.5274e-05,0
5.0874,1.7288e-05,0
5.0879,2.4002e-05,0
5.0885,3.2395e-05,0
5.089,3.6759e-05,0
5.0895,3.6759e-05,0
5.09,3.4745e-05,0
5.0905,3.2898e-05,0
5.0911,3.0716e-05,0
5.0916,2.0981e-05,0
5.0921,4.0284e-06,0
5.0926,-1.7288e-05,0
5.0931,-3.592e-05,0
5.0937,-4.6326e-05,0
5.0942,-4.7166e-05,0
5.0947,-4.0787e-05,0
5.0952,-2.5681e-05,0
5.0957,-8.2246e-06,0
5.0963,1.0071e-06,0
5.0968,4.6998e-06,0
5.0973,1.1078e-05,0
5.0978,2.031e-05,0
5.0983,3.0381e-05,0
5.0988,4.0116e-05,0
5.0994,4.3977e-05,0
5.0999,3.8773e-05,0
5.1004,2.9877e-05,0
5.1009,2.3667e-05,0
5.1014,1.9806e-05,0
5.102,1.5946e-05,0
5.1025,9.2317e-06,0
5.103,7.8889e-06,0
5.1035,2.1988e-05,0
5.104,4.1627e-05,0
5.1046,5.623e-05,0
5.1051,6.3615e-05,0
5.1056,6.3783e-05,0
5.1061,5.9586e-05,0
5.1066,5.2705e-05,0
5.1072,4.6494e-05,0
5.1077,4.1123e-05,0
5.1082,3.4913e-05,0
5.1087,2.8534e-05,0
5.1092,2.0813e-05,0
5.1098,1.3596e-05,0
5.1103,1.4939e-05,0
5.1108,2.3331e-05,0
5.1113,2.8031e-05,0
5.1118,2.1653e-05,0
5.1123,7.5532e-06,0
5.1129,-3.8605e-06,0
5.1134,-5.539e-06,0
5.1139,1.1749e-06,0
5.1144,1.0575e-05,0
5.1149,1.7288e-05,0
5.1155,1.9638e-05,0
5.116,1.6449e-05,0
5.1165,6.8818e-06,0
5.117,-3.8605e-06,0
5.1175,-6.2104e-06,0
5.1181,3.8605e-06,0
5.1186,2.031e-05,0
5.1191,3.3906e-05,0
5.1196,4.0116e-05,0
5.1201,4.1459e-05,0
5.1207,3.9445e-05,0
5.1212,3.1724e-05,0
5.1217,1.8631e-05,0
5.1222,5.2033e-06,0
5.1227,-6.0426e-06,0
5.1232,-1.4435e-05,0
5.1238,-1.5946e-05,0
5.1243,-9.5674e-06,0
5.1248,2.8534e-06,0
5.1253,1.2924e-05,0
5.1258,1.5946e-05,0
5.1264,1.5274e-05,0
5.1269,1.4603e-05,0
5.1274,1.6953e-05,0
5.1279,2.1988e-05,0
5.1284,2.6017e-05,0
5.129,2.9206e-05,0
5.1295,3.1724e-05,0
5.13,2.7695e-05,0
5.1305,1.3931e-05,0
5.131,-6.8818e-06,0
5.1316,-2.3331e-05,0
5.1321,-2.501e-05,0
5.1326,-1.4435e-05,0
5.1331,1.6785e-07,0
5.1336,1.0575e-05,0
5.1342,1.4603e-05,0
5.1347,1.4603e-05,0
5.1352,1.2085e-05,0
5.1357,1.326e-05,0
5.1362,1.7288e-05,0
5.1368,2.3667e-05,0
5.1373,3.3906e-05,0
5.1378,4.2802e-05,0
5.1383,4.7333e-05,0
5.1388,4.5991e-05,0
5.1393,3.7934e-05,0
5.1399,2.7695e-05,0
5.1404,2.6017e-05,0
5.1409,3.0045e-05,0
5.1414,3.1891e-05,0
5.1419,3.4577e-05,0
5.1425,4.0787e-05,0
5.143,4.8173e-05,0
5.1435,5.3544e-05,0
5.144,5.304e-05,0
5.1445,4.8005e-05,0
5.1451,4.2802e-05,0
5.1456,3.5416e-05,0
5.1461,3.0381e-05,0
5.1466,2.6688e-05,0
5.1471,2.2828e-05,0
5.1477,1.8967e-05,0
5.1482,1.4603e-05,0
5.1487,9.5674e-06,0
5.1492,6.5461e-06,0
5.1497,9.2317e-06,0
5.1502,1.561e-05,0
5.1508,2.1317e-05,0
5.1513,2.5345e-05,0
5.1518,2.5681e-05,0
5.1523,2.182e-05,0
5.1528,1.9303e-05,0
5.1534,1.8631e-05,0
5.1539,1.8128e-05,0
5.1544,1.5946e-05,0
5.1549,1.4267e-05,0
5.1554,1.3596e-05,0
5.156,1.091e-05,0
5.1565,5.2033e-06,0
5.157,4.5319e-06,0
5.1575,7.8889e-06,0
5.158,1.1917e-05,0
5.1586,1.6449e-05,0
5.1591,1.9471e-05,0
5.1596,2.1988e-05,0
5.1601,2.501e-05,0
5.1606,2.7359e-05,0
5.1612,2.8367e-05,0
5.1617,2.8031e-05,0
5.1622,2.501e-05,0
5.1627,2.1988e-05,0
5.1632,1.9806e-05,0
5.1638,2.0981e-05,0
5.1643,2.3667e-05,0
5.1648,2.6017e-05,0
5.1653,2.7192e-05,0
5.1658,3.1724e-05,0
5.1663,4.1291e-05,0
5.1669,5.069e-05,0
5.1674,5.3544e-05,0
5.1679,5.3208e-05,0
5.1684,5.1865e-05,0
5.1689,4.9516e-05,0
5.1695,4.3809e-05,0
5.17,3.2731e-05,0
5.1705,1.7121e-05,0
5.171,3.5248e-06,0
5.1715,-3.5248e-06,0
5.1721,-8.5603e-06,0
5.1726,-1.5274e-05,0
5.1731,-2.1988e-05,0
5.1736,-2.6184e-05,0
5.1741,-2.6688e-05,0
5.1747,-2.4002e-05,0
5.1752,-1.9303e-05,0
5.1757,-1.3931e-05,0
5.1762,-6.5461e-06,0
5.1767,6.714e-07,0
5.1772,5.7069e-06,0
5.1778,8.896e-06,0
5.1783,1.0575e-05,0
5.1788,1.0239e-05,0
5.1793,7.7211e-06,0
5.1798,6.714e-06,0
5.1804,1.2924e-05,0
5.1809,2.2995e-05,0
5.1814,3.0716e-05,0
5.1819,3.3402e-05,0
5.1824,3.4745e-05,0
5.183,3.6088e-05,0
5.1835,3.7095e-05,0
5.184,3.9109e-05,0
5.1845,4.0116e-05,0
5.185,4.0116e-05,0
5.1856,3.8773e-05,0
5.1861,3.743e-05,0
5.1866,3.743e-05,0
5.1871,3.7263e-05,0
5.1876,3.7934e-05,0
5.1882,4.0452e-05,0
5.1887,4.2802e-05,0
5.1892,4.062e-05,0
5.1897,3.5752e-05,0
5.1902,2.8367e-05,0
5.1908,2.266e-05,0
5.1913,2.5345e-05,0
5.1918,3.3402e-05,0
5.1923,3.9445e-05,0
5.1928,4.062e-05,0
5.1933,3.8437e-05,0
5.1939,3.4745e-05,0
5.1944,3.0045e-05,0
5.1949,2.3499e-05,0
5.1954,1.796e-05,0
5.1959,1.8967e-05,0
5.1965,2.4002e-05,0
5.197,2.266e-05,0
5.1975,1.5946e-05,0
5.198,1.3931e-05,0
5.1985,1.6953e-05,0
5.1991,1.326e-05,0
5.1996,-1.8463e-06,0
5.2001,-2.0478e-05,0
5.2006,-3.0045e-05,0
5.2011,-2.9709e-05,0
5.2017,-2.501e-05,0
5.2022,-1.3764e-05,0
5.2027,4.6998e-06,0
5.2032,2.3835e-05,0
5.2037,3.4745e-05,0
5.2043,3.7934e-05,0
5.2048,3.5752e-05,0
5.2053,3.3738e-05,0
5.2058,3.1388e-05,0
5.2063,1.9974e-05,0
5.2068,1.1749e-06,0
5.2074,-1.0071e-05,0
5.2079,-5.8747e-06,0
5.2084,-3.357e-07,0
5.2089,-1.1749e-06,0
5.2094,-6.714e-07,0
5.21,9.5674e-06,0
5.2105,2.9374e-05,0
5.211,4.7837e-05,0
5.2115,5.4551e-05,0
5.212,5.2873e-05,0
5.2126,4.8676e-05,0
5.2131,4.448e-05,0
5.2136,4.3809e-05,0
5.2141,4.683e-05,0
5.2146,4.8173e-05,0
5.2152,4.683e-05,0
5.2157,3.978e-05,0
5.2162,3.1724e-05,0
5.2167,2.4338e-05,0
5.2172,1.4603e-05,0
5.2177,6.5461e-06,0
5.2183,5.7069e-06,0
5.2188,5.7069e-06,0
5.2193,2.5177e-06,0
5.2198,1.6785e-06,0
5.2203,4.1962e-06,0
5.2209,7.8889e-06,0
5.2214,1.3596e-05,0
5.2219,1.9303e-05,0
5.2224,2.1317e-05,0
5.2229,1.8799e-05,0
5.2235,1.5442e-05,0
5.224,1.6281e-05,0
5.2245,1.9974e-05,0
5.225,2.3667e-05,0
5.2255,2.3667e-05,0
5.2261,1.4099e-05,0
5.2266,-1.6785e-07,0
5.2271,-1.091e-05,0
5.2276,-1.3596e-05,0
5.2281,-1.3764e-05,0
5.2287,-1.9135e-05,0
5.2292,-2.6184e-05,0
5.2297,-2.3331e-05,0
5.2302,-5.8747e-06,0
5.2307,1.1582e-05,0
5.2313,1.7456e-05,0
5.2318,1.561e-05,0
5.2323,1.4939e-05,0
5.2328,1.6617e-05,0
5.2333,1.8296e-05,0
5.2338,2.4842e-05,0
5.2344,3.8102e-05,0
5.2349,4.4648e-05,0
5.2354,3.7263e-05,0
5.2359,2.266e-05,0
5.2364,1.5274e-05,0
5.237,2.0813e-05,0
5.2375,2.9374e-05,0
5.238,3.122e-05,0
5.2385,2.4338e-05,0
5.239,1.5946e-05,0
5.2396,1.091e-05,0
5.2401,8.5603e-06,0
5.2406,8.896e-06,0
5.2411,1.0575e-05,0
5.2416,9.5674e-06,0
5.2422,2.182e-06,0
5.2427,-1.6785e-06,0
5.2432,6.8818e-06,0
5.2437,2.266e-05,0
5.2442,3.4073e-05,0
5.2447,3.7095e-05,0
5.2453,3.8102e-05,0
5.2458,3.7766e-05,0
5.2463,3.7934e-05,0
5.2468,3.8773e-05,0
5.2473,3.9948e-05,0
5.2479,4.0116e-05,0
5.2484,3.9445e-05,0
5.2489,3.6423e-05,0
5.2494,3.0549e-05,0
5.2499,2.5849e-05,0
5.2505,2.4002e-05,0
5.251,2.3331e-05,0
5.2515,2.266e-05,0
5.252,2.0645e-05,0
5.2525,1.8128e-05,0
5.2531,1.9974e-05,0
5.2536,2.5345e-05,0
5.2541,2.8031e-05,0
5.2546,2.6017e-05,0
5.2551,1.9806e-05,0
5.2557,1.3092e-05,0
5.2562,1.326e-05,0
5.2567,1.9303e-05,0
5.2572,2.9206e-05,0
5.2577,3.743e-05,0
5.2583,4.062e-05,0
5.2588,3.8773e-05,0
5.2593,3.592e-05,0
5.2598,3.2563e-05,0
5.2603,2.8031e-05,0
5.2608,2.3835e-05,0
5.2614,2.1653e-05,0
5.2619,2.3331e-05,0
5.2624,2.6688e-05,0
5.2629,2.7192e-05,0
5.2634,2.501e-05,0
5.264,2.2995e-05,0
5.2645,2.3667e-05,0
5.265,2.266e-05,0
5.2655,1.7624e-05,0
5.266,1.4603e-05,0
5.2666,1.4939e-05,0
5.2671,1.7792e-05,0
5.2676,2.2156e-05,0
5.2681,2.182e-05,0
5.2686,1.4603e-05,0
5.2692,9.9031e-06,0
5.2697,1.4267e-05,0
5.2702,2.2492e-05,0
5.2707,2.6352e-05,0
5.2712,2.4002e-05,0
5.2717,2.2324e-05,0
5.2723,1.8631e-05,0
5.2728,7.8889e-06,0
5.2733,-9.5674e-06,0
5.2738,-2.266e-05,0
5.2743,-2.5513e-05,0
5.2749,-1.9638e-05,0
5.2754,-1.3596e-05,0
5.2759,-1.0239e-05,0
5.2764,-7.2175e-06,0
5.2769,2.6856e-06,0
5.2775,1.5274e-05,0
5.278,1.9974e-05,0
5.2785,1.8631e-05,0
5.279,2.0645e-05,0
5.2795,2.5345e-05,0
5.2801,2.9374e-05,0
5.2806,3.4409e-05,0
5.2811,4.0787e-05,0
5.2816,4.5151e-05,0
5.2821,4.3137e-05,0
5.2827,3.6423e-05,0
5.2832,2.6352e-05,0
5.2837,1.4603e-05,0
5.2842,4.8676e-06,0
5.2847,2.0142e-06,0
5.2852,8.2246e-06,0
5.2858,1.8296e-05,0
5.2863,2.9877e-05,0
5.2868,3.8102e-05,0
5.2873,3.8773e-05,0
5.2878,3.4073e-05,0
5.2884,2.8702e-05,0
5.2889,2.4002e-05,0
5.2894,1.7288e-05,0
5.2899,6.3783e-06,0
5.2904,-6.714e-07,0
5.291,2.3499e-06,0
5.2915,1.4267e-05,0
5.292,2.3499e-05,0
5.2925,2.4338e-05,0
5.293,2.4506e-05,0
5.2936,2.6017e-05,0
5.2941,2.1317e-05,0
5.2946,1.2253e-05,0
5.2951,5.539e-06,0
5.2956,7.5532e-06,0
5.2962,1.6953e-05,0
5.2967,2.652e-05,0
5.2972,3.0045e-05,0
5.2977,2.7024e-05,0
5.2982,2.1317e-05,0
5.2988,1.796e-05,0
5.2993,1.5274e-05,0
5.2998,1.1917e-05,0
5.3003,1.0071e-05,0
5.3008,1.3931e-05,0
5.3013,1.9974e-05,0
5.3019,2.5177e-05,0
5.3024,2.8031e-05,0
5.3029,2.8702e-05,0
5.3034,2.7192e-05,0
5.3039,2.652e-05,0
5.3045,2.9709e-05,0
5.305,3.7263e-05,0
5.3055,4.2802e-05,0
5.306,4.0787e-05,0
5.3065,3.3906e-05,0
5.3071,2.8367e-05,0
5.3076,2.4674e-05,0
5.3081,1.9974e-05,0
5.3086,1.4603e-05,0
5.3091,1.3764e-05,0
5.3097,1.6953e-05,0
5.3102,1.7792e-05,0
5.3107,1.4603e-05,0
5.3112,1.0407e-05,0
5.3117,7.7211e-06,0
5.3122,1.1917e-05,0
5.3128,2.3331e-05,0
5.3133,3.2059e-05,0
5.3138,3.7095e-05,0
5.3143,3.9277e-05,0
5.3148,3.7934e-05,0
5.3154,3.5752e-05,0
5.3159,3.3234e-05,0
5.3164,2.9038e-05,0
5.3169,2.8367e-05,0
5.3174,3.2898e-05,0
5.318,3.743e-05,0
5.3185,3.5752e-05,0
5.319,2.4674e-05,0
5.3195,1.0239e-05,0
5.32,3.5248e-06,0
5.3206,7.2175e-06,0
5.3211,1.0071e-05,0
5.3216,9.5674e-06,0
5.3221,1.3596e-05,0
5.3226,2.6184e-05,0
5.3232,4.7501e-05,0
5.3237,7.0161e-05,0
5.3242,8.7114e-05,0
5.3247,9.3828e-05,0
5.3252,8.7114e-05,0
5.3258,7.335e-05,0
5.3263,6.009e-05,0
5.3268,4.7837e-05,0
5.3273,3.2059e-05,0
5.3278,1.4267e-05,0
5.3283,-2.3499e-06,0
5.3289,-1.9303e-05,0
5.3294,-4.4312e-05,0
5.3299,-7.0832e-05,0
5.3304,-8.2246e-05,0
5.3309,-8.0064e-05,0
5.3315,-7.2007e-05,0
5.332,-5.7069e-05,0
5.3325,-3.8102e-05,0
5.333,-2.182e-05,0
5.3335,-1.4435e-05,0
5.3341,-1.6617e-05,0
5.3346,-2.4842e-05,0
5.3351,-2.9709e-05,0
5.3356,-2.2324e-05,0
5.3361,-5.8747e-06,0
5.3367,1.4267e-05,0
5.3372,3.4241e-05,0
5.3377,5.0858e-05,0
5.3382,6.0929e-05,0
5.3387,6.0594e-05,0
5.3392,5.3544e-05,0
5.3398,4.062e-05,0
5.3403,2.501e-05,0
5.3408,1.8296e-05,0
5.3413,2.0478e-05,0
5.3418,2.4002e-05,0
5.3424,2.182e-05,0
5.3429,8.896e-06,0
5.3434,-6.5461e-06,0
5.3439,-8.2246e-06,0
5.3444,3.357e-06,0
5.345,1.4267e-05,0
5.3455,1.9303e-05,0
5.346,1.8631e-05,0
5.3465,1.8967e-05,0
5.347,2.4002e-05,0
5.3476,3.2731e-05,0
5.3481,4.0452e-05,0
5.3486,4.5151e-05,0
5.3491,4.6326e-05,0
5.3496,4.5319e-05,0
5.3502,4.448e-05,0
5.3507,4.3137e-05,0
5.3512,4.213e-05,0
5.3517,4.448e-05,0
5.3522,4.4144e-05,0
5.3528,3.9948e-05,0
5.3533,3.7766e-05,0
5.3538,3.8773e-05,0
5.3543,3.9445e-05,0
5.3548,3.8773e-05,0
5.3553,3.8605e-05,0
5.3559,3.9612e-05,0
5.3564,3.9109e-05,0
5.3569,3.1556e-05,0
5.3574,1.7288e-05,0
5.3579,2.5177e-06,0
5.3585,-3.0213e-06,0
5.359,1.6785e-07,0
5.3595,5.2033e-06,0
5.36,7.8889e-06,0
5.3605,9.0639e-06,0
5.3611,1.1078e-05,0
5.3616,1.4099e-05,0
5.3621,1.6953e-05,0
5.3626,1.7288e-05,0
5.3631,1.4603e-05,0
5.3637,9.9031e-06,0
5.3642,3.8605e-06,0
5.3647,5.0355e-07,0
5.3652,3.1891e-06,0
5.3657,1.2253e-05,0
5.3662,2.3835e-05,0
5.3668,3.1891e-05,0
5.3673,3.2731e-05,0
5.3678,3.0045e-05,0
5.3683,2.9709e-05,0
5.3688,3.4577e-05,0
5.3694,4.0452e-05,0
5.3699,4.3305e-05,0
5.3704,4.1291e-05,0
5.3709,3.5416e-05,0
5.3714,3.0549e-05,0
5.372,3.3066e-05,0
5.3725,4.0116e-05,0
5.373,4.3305e-05,0
5.3735,3.8102e-05,0
5.374,2.8367e-05,0
5.3746,1.8631e-05,0
5.3751,5.539e-06,0
5.3756,-6.714e-06,0
5.3761,-9.2317e-06,0
5.3766,-2.3499e-06,0
5.3772,5.539e-06,0
5.3777,4.8676e-06,0
5.3782,-4.3641e-06,0
5.3787,-1.3092e-05,0
5.3792,-1.4939e-05,0
5.3797,-9.5674e-06,0
5.3803,-1.0071e-06,0
5.3808,1.1749e-05,0
5.3813,3.1388e-05,0
5.3818,5.0858e-05,0
5.3823,5.6733e-05,0
5.3829,4.6998e-05,0
5.3834,3.7095e-05,0
5.3839,3.5752e-05,0
5.3844,3.7934e-05,0
5.3849,3.8102e-05,0
5.3855,3.6088e-05,0
5.386,3.3402e-05,0
5.3865,3.0716e-05,0
5.387,2.3331e-05,0
5.3875,7.2175e-06,0
5.3881,-1.3596e-05,0
5.3886,-3.0549e-05,0
5.3891,-3.4241e-05,0
5.3896,-1.6281e-05,0
5.3901,1.1917e-05,0
5.3907,3.0213e-05,0
5.3912,3.3066e-05,0
5.3917,2.9374e-05,0
5.3922,2.7695e-05,0
5.3927,2.6688e-05,0
5.3933,2.0981e-05,0
5.3938,1.4267e-05,0
5.3943,1.0575e-05,0
5.3948,8.3925e-06,0
5.3953,6.2104e-06,0
5.3958,7.2175e-06,0
5.3964,9.9031e-06,0
5.3969,1.1414e-05,0
5.3974,1.326e-05,0
5.3979,1.6449e-05,0
5.3984,1.8296e-05,0
5.399,1.796e-05,0
5.3995,1.6449e-05,0
5.4,1.5274e-05,0
5.4005,1.796e-05,0
5.401,2.182e-05,0
5.4016,2.4002e-05,0
5.4021,2.4674e-05,0
5.4026,2.4506e-05,0
5.4031,2.652e-05,0
5.4036,3.0045e-05,0
5.4042,3.3066e-05,0
5.4047,3.4745e-05,0
5.4052,3.3738e-05,0
5.4057,3.4073e-05,0
5.4062,3.7766e-05,0
5.4067,4.1459e-05,0
5.4073,4.3473e-05,0
5.4078,4.2802e-05,0
5.4083,3.7263e-05,0
5.4088,3.3402e-05,0
5.4093,3.7598e-05,0
5.4099,4.2298e-05,0
5.4104,3.5584e-05,0
5.4109,2.2995e-05,0
5.4114,1.796e-05,0
5.4119,1.9135e-05,0
5.4125,2.031e-05,0
5.413,1.6953e-05,0
5.4135,9.5674e-06,0
5.414,4.8676e-06,0
5.4145,5.2033e-06,0
5.4151,7.7211e-06,0
5.4156,1.2589e-05,0
5.4161,1.9638e-05,0
5.4166,2.2324e-05,0
5.4171,2.3331e-05,0
5.4177,2.501e-05,0
5.4182,2.6352e-05,0
5.4187,2.4506e-05,0
5.4192,1.8296e-05,0
5.4197,1.0575e-05,0
5.4203,5.0355e-06,0
5.4208,4.8676e-06,0
5.4213,1.4099e-05,0
5.4218,2.7863e-05,0
5.4223,3.3402e-05,0
5.4228,3.1556e-05,0
5.4234,2.9206e-05,0
5.4239,2.7359e-05,0
5.4244,2.1988e-05,0
5.4249,1.7121e-05,0
5.4254,1.5274e-05,0
5.426,1.9135e-05,0
5.4265,3.0381e-05,0
5.427,4.1627e-05,0
5.4275,4.1627e-05,0
5.428,3.0381e-05,0
5.4286,1.6449e-05,0
5.4291,6.2104e-06,0
5.4296,5.2033e-06,0
5.4301,1.1582e-05,0
5.4306,1.5778e-05,0
5.4312,8.5603e-06,0
5.4317,-5.539e-06,0
5.4322,-1.8296e-05,0
5.4327,-2.6688e-05,0
5.4332,-2.8367e-05,0
5.4337,-1.9974e-05,0
5.4343,-5.2033e-06,0
5.4348,5.0355e-06,0
5.4353,7.8889e-06,0
5.4358,1.2085e-05,0
5.4363,1.7456e-05,0
5.4369,2.031e-05,0
5.4374,2.2995e-05,0
5.4379,3.0716e-05,0
5.4384,3.8773e-05,0
5.4389,4.2634e-05,0
5.4395,4.2802e-05,0
5.44,4.2802e-05,0
5.4405,4.1291e-05,0
5.441,3.7095e-05,0
5.4415,3.0716e-05,0
5.4421,2.031e-05,0
5.4426,8.5603e-06,0
5.4431,5.3712e-06,0
5.4436,7.2175e-06,0
5.4441,5.2033e-06,0
5.4447,-1.8463e-06,0
5.4452,-7.3854e-06,0
5.4457,-4.5319e-06,0
5.4462,4.1962e-06,0
5.4467,1.1246e-05,0
5.4473,1.4603e-05,0
5.4478,1.6281e-05,0
5.4483,1.5778e-05,0
5.4488,1.1917e-05,0
5.4493,9.2317e-06,0
5.4498,9.7353e-06,0
5.4504,1.3092e-05,0
5.4509,1.7288e-05,0
5.4514,2.1149e-05,0
5.4519,2.3331e-05,0
5.4524,2.3331e-05,0
5.453,2.5345e-05,0
5.4535,2.9374e-05,0
5.454,2.6688e-05,0
5.4545,1.8967e-05,0
5.455,1.6953e-05,0
5.4556,2.0981e-05,0
5.4561,2.7192e-05,0
5.4566,3.8437e-05,0
5.4571,4.7837e-05,0
5.4576,5.2201e-05,0
5.4582,5.1362e-05,0
5.4587,4.5991e-05,0
5.4592,3.4745e-05,0
5.4597,1.9303e-05,0
5.4602,9.3996e-06,0
5.4607,9.9031e-06,0
5.4613,1.1582e-05,0
5.4618,1.0407e-05,0
5.4623,1.3764e-05,0
5.4628,1.8967e-05,0
5.4633,1.8631e-05,0
5.4639,1.6281e-05,0
5.4644,1.8128e-05,0
5.4649,2.266e-05,0
5.4654,2.4338e-05,0
5.4659,2.182e-05,0
5.4665,1.7792e-05,0
5.467,1.4267e-05,0
5.4675,1.2253e-05,0
5.468,7.5532e-06,0
5.4685,-1.5106e-06,0
5.4691,-8.5603e-06,0
5.4696,-8.2246e-06,0
5.4701,-3.8605e-06,0
5.4706,3.0213e-06,0
5.4711,1.2924e-05,0
5.4717,2.3499e-05,0
5.4722,2.9374e-05,0
5.4727,3.0381e-05,0
5.4732,2.8702e-05,0
5.4737,2.5345e-05,0
5.4742,2.3667e-05,0
5.4748,3.1388e-05,0
5.4753,5.1194e-05,0
5.4758,6.865e-05,0
5.4763,6.865e-05,0
5.4768,5.6901e-05,0
5.4774,4.6159e-05,0
5.4779,4.1459e-05,0
5.4784,4.0116e-05,0
5.4789,3.6088e-05,0
5.4794,3.2059e-05,0
5.48,3.0045e-05,0
5.4805,2.7527e-05,0
5.481,1.5274e-05,0
5.4815,-4.3641e-06,0
5.482,-1.4099e-05,0
5.4826,-1.091e-05,0
5.4831,-5.3712e-06,0
5.4836,-6.714e-07,0
5.4841,5.539e-06,0
5.4846,1.2589e-05,0
5.4852,1.3931e-05,0
5.4857,7.8889e-06,0
5.4862,2.8534e-06,0
5.4867,6.5461e-06,0
5.4872,1.326e-05,0
5.4878,1.7624e-05,0
5.4883,2.0478e-05,0
5.4888,1.6617e-05,0
5.4893,5.8747e-06,0
5.4898,-4.8676e-06,0
5.4903,-5.539e-06,0
5.4909,1.1749e-06,0
5.4914,1.1246e-05,0
5.4919,2.1317e-05,0
5.4924,2.8534e-05,0
5.4929,3.3234e-05,0
5.4935,3.5416e-05,0
5.494,3.4745e-05,0
5.4945,3.6088e-05,0
5.495,4.0787e-05,0
5.4955,4.2466e-05,0
5.4961,3.7934e-05,0
5.4966,3.1891e-05,0
5.4971,2.7527e-05,0
5.4976,2.5849e-05,0
5.4981,2.3667e-05,0
5.4987,2.2324e-05,0
5.4992,2.1149e-05,0
5.4997,1.6281e-05,0
5.5002,1.2589e-05,0
5.5007,8.5603e-06,0
5.5012,-3.0213e-06,0
5.5018,-7.8889e-06,0
5.5023,6.0426e-06,0
5.5028,2.6688e-05,0
5.5033,3.9277e-05,0
5.5038,3.743e-05,0
5.5044,2.887e-05,0
5.5049,2.501e-05,0
5.5054,2.6017e-05,0
5.5059,2.4002e-05,0
5.5064,1.7624e-05,0
5.507,1.0575e-05,0
5.5075,1.2757e-05,0
5.508,2.1988e-05,0
5.5085,2.7863e-05,0
5.509,2.6856e-05,0
5.5096,2.2324e-05,0
5.5101,1.8296e-05,0
5.5106,2.2324e-05,0
5.5111,3.1724e-05,0
5.5116,3.6423e-05,0
5.5122,3.4241e-05,0
5.5127,3.0045e-05,0
5.5132,2.6688e-05,0
5.5137,2.3331e-05,0
5.5142,1.9303e-05,0
5.5148,1.4267e-05,0
5.5153,1.326e-05,0
5.5158,1.6617e-05,0
5.5163,2.0645e-05,0
5.5168,2.0645e-05,0
5.5173,1.6449e-05,0
5.5179,1.5778e-05,0
5.5184,2.2995e-05,0
5.5189,3.2395e-05,0
5.5194,4.062e-05,0
5.5199,4.8005e-05,0
5.5205,5.3544e-05,0
5.521,5.069e-05,0
5.5215,4.3473e-05,0
5.522,3.7095e-05,0
5.5225,2.7695e-05,0
5.5231,1.5274e-05,0
5.5236,4.1962e-06,0
5.5241,-3.8605e-06,0
5.5246,-8.3925e-06,0
5.5251,-3.8605e-06,0
5.5257,1.0407e-05,0
5.5262,2.4338e-05,0
5.5267,3.0549e-05,0
5.5272,2.7359e-05,0
5.5277,1.2589e-05,0
5.5282,-9.5674e-06,0
5.5288,-2.3499e-05,0
5.5293,-2.3835e-05,0
5.5298,-1.5778e-05,0
5.5303,-9.9031e-06,0
5.5308,-5.8747e-06,0
5.5314,-3.8605e-06,0
5.5319,-5.0355e-07,0
5.5324,7.2175e-06,0
5.5329,1.6449e-05,0
5.5334,2.2492e-05,0
5.534,2.7527e-05,0
5.5345,3.3234e-05,0
5.535,3.7095e-05,0
5.5355,3.9277e-05,0
5.536,4.0452e-05,0
5.5366,3.8773e-05,0
