45.302,4.3473e-05,0
45.303,4.3473e-05,0
45.303,4.2802e-05,0
45.304,4.0116e-05,0
45.304,3.4913e-05,0
45.305,2.7192e-05,0
45.305,1.796e-05,0
45.306,1.2421e-05,0
45.307,1.3596e-05,0
45.307,2.0645e-05,0
45.308,3.1052e-05,0
45.308,3.8773e-05,0
45.309,3.8437e-05,0
45.309,3.2898e-05,0
45.31,3.0381e-05,0
45.31,3.3738e-05,0
45.311,3.8437e-05,0
45.311,3.9948e-05,0
45.312,3.5416e-05,0
45.312,3.0549e-05,0
45.313,3.2059e-05,0
45.313,3.7095e-05,0
45.314,3.6591e-05,0
45.314,2.8702e-05,0
45.315,1.9806e-05,0
45.315,1.5946e-05,0
45.316,1.4099e-05,0
45.316,1.0575e-05,0
45.317,7.8889e-06,0
45.317,7.8889e-06,0
45.318,1.326e-05,0
45.318,2.4002e-05,0
45.319,3.508e-05,0
45.319,3.978e-05,0
45.32,3.743e-05,0
45.321,2.3499e-05,0
45.321,1.6785e-07,0
45.322,-1.7288e-05,0
45.322,-2.031e-05,0
45.323,-1.3931e-05,0
45.323,-3.1891e-06,0
45.324,8.2246e-06,0
45.324,1.9471e-05,0
45.325,2.6352e-05,0
45.325,2.0981e-05,0
45.326,3.5248e-06,0
45.326,-1.5106e-05,0
45.327,-2.1653e-05,0
45.327,-1.3428e-05,0
45.328,7.8889e-06,0
45.328,3.743e-05,0
45.329,6.7475e-05,0
45.329,9.0806e-05,0
45.33,0.0001039,0
45.33,0.00010927,0
45.331,0.00010944,0
45.331,0.00010054,0
45.332,8.0903e-05,0
45.332,5.7908e-05,0
45.333,3.8605e-05,0
45.334,2.5177e-05,0
45.334,1.2589e-05,0
45.335,-1.3428e-06,0
45.335,-1.4603e-05,0
45.336,-2.266e-05,0
45.336,-1.9806e-05,0
45.337,-1.0407e-05,0
45.337,-3.357e-07,0
45.338,8.7282e-06,0
45.338,1.4603e-05,0
45.339,1.6953e-05,0
45.339,1.796e-05,0
45.34,1.5778e-05,0
45.34,9.9031e-06,0
45.341,1.5106e-06,0
45.341,-1.091e-05,0
45.342,-2.031e-05,0
45.342,-2.182e-05,0
45.343,-2.1653e-05,0
45.343,-2.3499e-05,0
45.344,-2.501e-05,0
45.344,-2.4674e-05,0
45.345,-2.4674e-05,0
45.345,-2.501e-05,0
45.346,-2.6688e-05,0
45.346,-2.7192e-05,0
45.347,-2.7359e-05,0
45.348,-2.9877e-05,0
45.348,-3.5752e-05,0
45.349,-3.6423e-05,0
45.349,-2.6017e-05,0
45.35,-8.2246e-06,0
45.35,1.0239e-05,0
45.351,2.5681e-05,0
45.351,3.9948e-05,0
45.352,5.7572e-05,0
45.352,7.3014e-05,0
45.353,8.0735e-05,0
45.353,8.7449e-05,0
45.354,9.9535e-05,0
45.354,0.00011514,0
45.355,0.00012874,0
45.355,0.00013881,0
45.356,0.00013797,0
45.356,0.00012941,0
45.357,0.00012068,0
45.357,0.00010994,0
45.358,9.3492e-05,0
45.358,7.3014e-05,0
45.359,5.1865e-05,0
45.359,3.4745e-05,0
45.36,2.6017e-05,0
45.361,2.182e-05,0
45.361,1.5442e-05,0
45.362,6.5461e-06,0
45.362,-2.8534e-06,0
45.363,-7.8889e-06,0
45.363,-9.5674e-06,0
45.364,-9.5674e-06,0
45.364,-1.1917e-05,0
45.365,-1.7288e-05,0
45.365,-2.2324e-05,0
45.366,-2.7024e-05,0
45.366,-3.1052e-05,0
45.367,-3.1724e-05,0
45.367,-3.0045e-05,0
45.368,-3.0381e-05,0
45.368,-3.0884e-05,0
45.369,-2.9206e-05,0
45.369,-2.4338e-05,0
45.37,-2.3667e-05,0
45.37,-2.9038e-05,0
45.371,-3.4073e-05,0
45.371,-3.3066e-05,0
45.372,-2.5345e-05,0
45.372,-1.5274e-05,0
45.373,-7.3854e-06,0
45.373,5.0355e-07,0
45.374,1.1582e-05,0
45.375,2.5177e-05,0
45.375,3.4241e-05,0
45.376,2.6352e-05,0
45.376,-5.0355e-07,0
45.377,-2.7192e-05,0
45.377,-2.9709e-05,0
45.378,-1.091e-05,0
45.378,1.3092e-05,0
45.379,3.1388e-05,0
45.379,3.5752e-05,0
45.38,2.8702e-05,0
45.38,2.501e-05,0
45.381,3.0716e-05,0
45.381,3.827e-05,0
45.382,4.4816e-05,0
45.382,5.1698e-05,0
45.383,6.2272e-05,0
45.383,7.8553e-05,0
45.384,9.4835e-05,0
45.384,0.00010256,0
45.385,9.752e-05,0
45.385,8.7449e-05,0
45.386,8.2078e-05,0
45.386,7.9728e-05,0
45.387,7.7043e-05,0
45.388,6.4622e-05,0
45.388,4.2466e-05,0
45.389,1.8463e-05,0
45.389,-1.8463e-06,0
45.39,-1.9974e-05,0
45.39,-3.2731e-05,0
45.391,-3.6423e-05,0
45.391,-3.4241e-05,0
45.392,-2.8367e-05,0
45.392,-1.8296e-05,0
45.393,-4.5319e-06,0
45.393,1.0071e-05,0
45.394,2.4002e-05,0
45.394,3.3906e-05,0
45.395,4.0116e-05,0
45.395,4.6494e-05,0
45.396,5.304e-05,0
45.396,5.7404e-05,0
45.397,5.5894e-05,0
45.397,4.7669e-05,0
45.398,3.7934e-05,0
45.398,2.8031e-05,0
45.399,1.8463e-05,0
45.399,1.2589e-05,0
45.4,9.3996e-06,0
45.401,7.3854e-06,0
45.401,6.2104e-06,0
45.402,5.539e-06,0
45.402,1.0071e-06,0
45.403,-9.7353e-06,0
45.403,-2.182e-05,0
45.404,-2.887e-05,0
45.404,-2.9038e-05,0
45.405,-2.7024e-05,0
45.405,-2.4842e-05,0
45.406,-1.9638e-05,0
45.406,-1.1749e-05,0
45.407,-4.8676e-06,0
45.407,2.5177e-06,0
45.408,1.1246e-05,0
45.408,1.8967e-05,0
45.409,2.4002e-05,0
45.409,2.9374e-05,0
45.41,3.5416e-05,0
45.41,3.978e-05,0
45.411,3.9109e-05,0
45.411,3.0045e-05,0
45.412,1.4099e-05,0
45.412,-1.8463e-06,0
45.413,-1.326e-05,0
45.413,-1.4939e-05,0
45.414,-9.7353e-06,0
45.415,-2.182e-06,0
45.415,5.8747e-06,0
45.416,1.1414e-05,0
45.416,1.4435e-05,0
45.417,1.9974e-05,0
45.417,2.7695e-05,0
45.418,3.4577e-05,0
45.418,3.978e-05,0
45.419,4.2802e-05,0
45.419,4.2802e-05,0
45.42,4.2634e-05,0
45.42,3.978e-05,0
45.421,3.508e-05,0
45.421,3.2731e-05,0
45.422,3.6423e-05,0
45.422,4.2802e-05,0
45.423,4.918e-05,0
45.423,5.6565e-05,0
45.424,6.1769e-05,0
45.424,6.4286e-05,0
45.425,6.63e-05,0
45.425,6.7308e-05,0
45.426,6.6804e-05,0
45.426,6.5629e-05,0
45.427,6.6636e-05,0
45.428,6.1265e-05,0
45.428,4.4816e-05,0
45.429,2.0981e-05,0
45.429,-8.3925e-07,0
45.43,-1.8631e-05,0
45.43,-3.4073e-05,0
45.431,-4.7501e-05,0
45.431,-5.5222e-05,0
45.432,-5.2033e-05,0
45.432,-3.827e-05,0
45.433,-2.0645e-05,0
45.433,-5.539e-06,0
45.434,7.8889e-06,0
45.434,2.1317e-05,0
45.435,3.2731e-05,0
45.435,3.9109e-05,0
45.436,4.2802e-05,0
45.436,4.5487e-05,0
45.437,4.6494e-05,0
45.437,4.6159e-05,0
45.438,4.5823e-05,0
45.438,4.3641e-05,0
45.439,4.0116e-05,0
45.439,3.4073e-05,0
45.44,2.5681e-05,0
45.44,1.7288e-05,0
45.441,1.0575e-05,0
45.442,4.1962e-06,0
45.442,-8.3925e-07,0
45.443,-2.8534e-06,0
45.443,-4.1962e-06,0
45.444,-4.8676e-06,0
45.444,-5.539e-06,0
45.445,-5.539e-06,0
45.445,-3.8605e-06,0
45.446,-4.8676e-06,0
45.446,-1.0071e-05,0
45.447,-1.7288e-05,0
45.447,-2.4002e-05,0
45.448,-3.0381e-05,0
45.448,-3.9445e-05,0
45.449,-5.0523e-05,0
45.449,-5.6733e-05,0
45.45,-5.0858e-05,0
45.45,-3.2395e-05,0
45.451,-7.7211e-06,0
45.451,1.6281e-05,0
45.452,3.743e-05,0
45.452,5.3544e-05,0
45.453,6.7308e-05,0
45.453,8.5771e-05,0
45.454,0.00010826,0
45.455,0.0001237,0
45.455,0.00012757,0
45.456,0.00012303,0
45.456,0.00011699,0
45.457,0.00011061,0
45.457,9.6849e-05,0
45.458,7.0832e-05,0
45.458,3.9612e-05,0
45.459,1.6281e-05,0
45.459,2.8534e-06,0
45.46,-2.8534e-06,0
45.46,-4.8676e-06,0
45.461,-4.3641e-06,0
45.461,-1.0407e-05,0
45.462,-3.2059e-05,0
45.462,-5.9754e-05,0
45.463,-7.3182e-05,0
45.463,-6.6804e-05,0
45.464,-4.7501e-05,0
45.464,-2.6688e-05,0
45.465,-9.5674e-06,0
45.465,7.3854e-06,0
45.466,2.6688e-05,0
45.466,5.0523e-05,0
45.467,7.7714e-05,0
45.467,9.8192e-05,0
45.468,0.00010457,0
45.469,0.00010507,0
45.469,0.00010507,0
45.47,0.00010172,0
45.47,8.5435e-05,0
45.471,5.2873e-05,0
45.471,1.3931e-05,0
45.472,-1.8128e-05,0
45.472,-3.7766e-05,0
45.473,-4.4648e-05,0
45.473,-4.0955e-05,0
45.474,-3.1052e-05,0
45.474,-1.4603e-05,0
45.475,6.2104e-06,0
45.475,2.182e-05,0
45.476,3.1556e-05,0
45.476,3.1724e-05,0
45.477,1.3764e-05,0
45.477,-1.1749e-05,0
45.478,-2.5177e-05,0
45.478,-1.6281e-05,0
45.479,5.539e-06,0
45.479,2.3667e-05,0
45.48,3.122e-05,0
45.48,3.3402e-05,0
45.481,3.743e-05,0
45.481,4.6662e-05,0
45.482,5.0858e-05,0
45.483,4.5823e-05,0
45.483,4.2802e-05,0
45.484,4.9348e-05,0
45.484,5.8915e-05,0
45.485,6.8986e-05,0
45.485,7.4525e-05,0
45.486,6.8147e-05,0
45.486,5.3544e-05,0
45.487,3.9948e-05,0
45.487,3.0381e-05,0
45.488,2.5681e-05,0
45.488,2.2492e-05,0
45.489,1.7624e-05,0
45.489,1.1246e-05,0
45.49,1.8463e-06,0
45.49,-9.7353e-06,0
45.491,-1.9135e-05,0
45.491,-2.6352e-05,0
45.492,-3.0716e-05,0
45.492,-3.3738e-05,0
45.493,-4.0452e-05,0
45.493,-4.683e-05,0
45.494,-4.448e-05,0
45.494,-3.508e-05,0
45.495,-2.6017e-05,0
45.496,-2.0645e-05,0
45.496,-1.4939e-05,0
45.497,-1.1246e-05,0
45.497,-1.5778e-05,0
45.498,-3.0213e-05,0
45.498,-3.8437e-05,0
45.499,-3.2059e-05,0
45.499,-1.8463e-05,0
45.5,-5.3712e-06,0
45.5,9.2317e-06,0
45.501,2.8367e-05,0
45.501,5.0187e-05,0
45.502,6.4286e-05,0
45.502,6.4958e-05,0
45.503,5.8915e-05,0
45.503,6.0258e-05,0
45.504,6.9657e-05,0
45.504,7.4693e-05,0
45.505,7.0665e-05,0
45.505,6.5629e-05,0
45.506,5.8915e-05,0
45.506,4.6494e-05,0
45.507,3.2395e-05,0
45.507,2.0813e-05,0
45.508,1.3596e-05,0
45.508,1.0575e-05,0
45.509,8.2246e-06,0
45.51,3.6927e-06,0
45.51,-4.3641e-06,0
45.511,-1.4267e-05,0
45.511,-1.6617e-05,0
45.512,-9.9031e-06,0
45.512,-2.182e-06,0
45.513,5.2033e-06,0
45.513,1.326e-05,0
45.514,2.2995e-05,0
45.514,3.3906e-05,0
45.515,4.448e-05,0
45.515,5.0355e-05,0
45.516,5.3376e-05,0
45.516,5.7069e-05,0
45.517,6.2943e-05,0
45.517,6.6972e-05,0
45.518,6.7643e-05,0
45.518,6.3279e-05,0
45.519,5.3544e-05,0
45.519,4.3641e-05,0
45.52,3.4745e-05,0
45.52,2.5345e-05,0
45.521,1.4603e-05,0
45.521,-5.0355e-07,0
45.522,-1.4771e-05,0
45.523,-2.0478e-05,0
45.523,-1.5106e-05,0
45.524,-2.5177e-06,0
45.524,9.7353e-06,0
45.525,1.6953e-05,0
45.525,2.0142e-05,0
45.526,2.3667e-05,0
45.526,2.6352e-05,0
45.527,2.501e-05,0
45.527,2.3331e-05,0
45.528,2.6184e-05,0
45.528,3.2395e-05,0
45.529,3.2059e-05,0
45.529,2.0478e-05,0
45.53,6.8818e-06,0
45.53,-4.1962e-06,0
45.531,-1.2253e-05,0
45.531,-1.4099e-05,0
45.532,-8.5603e-06,0
45.532,1.5106e-06,0
45.533,1.2589e-05,0
45.533,2.501e-05,0
45.534,3.6759e-05,0
45.534,4.3809e-05,0
45.535,4.1123e-05,0
45.535,3.2059e-05,0
45.536,2.9374e-05,0
45.537,3.5752e-05,0
45.537,4.4816e-05,0
45.538,5.1865e-05,0
45.538,5.4551e-05,0
45.539,5.0858e-05,0
45.539,4.3137e-05,0
45.54,3.6423e-05,0
45.54,3.0213e-05,0
45.541,2.3667e-05,0
45.541,1.9135e-05,0
45.542,1.7624e-05,0
45.542,1.9471e-05,0
45.543,2.3163e-05,0
45.543,2.7359e-05,0
45.544,2.8031e-05,0
45.544,1.9806e-05,0
45.545,7.5532e-06,0
45.545,-4.6998e-06,0
45.546,-1.4435e-05,0
45.546,-1.7121e-05,0
45.547,-1.4939e-05,0
45.547,-1.3092e-05,0
45.548,-1.561e-05,0
45.548,-2.0645e-05,0
45.549,-2.1149e-05,0
45.55,-1.5442e-05,0
45.55,-1.6617e-05,0
45.551,-3.0381e-05,0
45.551,-4.918e-05,0
45.552,-6.0258e-05,0
45.552,-5.539e-05,0
45.553,-3.743e-05,0
45.553,-1.8296e-05,0
45.554,-1.1749e-06,0
45.554,1.9135e-05,0
45.555,4.5319e-05,0
45.555,6.9657e-05,0
45.556,8.1239e-05,0
45.556,7.8386e-05,0
45.557,7.4022e-05,0
45.557,7.4525e-05,0
45.558,7.6371e-05,0
45.558,8.0903e-05,0
45.559,8.5435e-05,0
45.559,8.0903e-05,0
45.56,6.7643e-05,0
45.56,5.3208e-05,0
45.561,4.4144e-05,0
45.561,4.1627e-05,0
45.562,4.1291e-05,0
45.562,3.7934e-05,0
45.563,3.3738e-05,0
45.564,3.3402e-05,0
45.564,3.3738e-05,0
45.565,2.6688e-05,0
45.565,1.5106e-05,0
45.566,7.2175e-06,0
45.566,7.0497e-06,0
45.567,1.326e-05,0
45.567,2.2995e-05,0
45.568,3.2059e-05,0
45.568,3.9109e-05,0
45.569,3.8437e-05,0
45.569,2.9877e-05,0
45.57,1.6617e-05,0
45.57,5.7069e-06,0
45.571,1.6785e-07,0
45.571,-5.539e-06,0
45.572,-1.1414e-05,0
45.572,-1.1917e-05,0
45.573,-5.8747e-06,0
45.573,-1.6785e-06,0
45.574,-1.5106e-06,0
45.574,3.0213e-06,0
45.575,1.4435e-05,0
45.575,2.4338e-05,0
45.576,2.6688e-05,0
45.577,2.1317e-05,0
45.577,1.2589e-05,0
45.578,4.3641e-06,0
45.578,-2.3499e-06,0
45.579,-7.5532e-06,0
45.579,-1.1917e-05,0
45.58,-1.3092e-05,0
45.58,-1.2253e-05,0
45.581,-1.091e-05,0
45.581,-1.1078e-05,0
45.582,-1.326e-05,0
45.582,-1.326e-05,0
45.583,-1.0407e-05,0
45.583,-7.8889e-06,0
45.584,-5.8747e-06,0
45.584,-3.357e-06,0
45.585,-3.5248e-06,0
45.585,-8.2246e-06,0
45.586,-1.8631e-05,0
45.586,-3.1052e-05,0
45.587,-3.508e-05,0
45.587,-2.7695e-05,0
45.588,-1.4435e-05,0
45.588,-2.5177e-06,0
45.589,8.2246e-06,0
45.59,2.4674e-05,0
45.59,4.3641e-05,0
45.591,5.8747e-05,0
45.591,6.9993e-05,0
45.592,8.1071e-05,0
45.592,8.7114e-05,0
45.593,8.3589e-05,0
45.593,7.6036e-05,0
45.594,7.4693e-05,0
45.594,8.1071e-05,0
45.595,8.6778e-05,0
45.595,8.1743e-05,0
45.596,6.8315e-05,0
45.596,5.8915e-05,0
45.597,6.0258e-05,0
45.597,6.1936e-05,0
45.598,5.388e-05,0
45.598,4.0116e-05,0
45.599,3.0716e-05,0
45.599,2.4674e-05,0
45.6,1.796e-05,0
45.6,1.4603e-05,0
45.601,1.6953e-05,0
45.601,2.0981e-05,0
45.602,2.1988e-05,0
45.602,1.796e-05,0
45.603,1.1246e-05,0
45.604,-3.357e-07,0
45.604,-1.3931e-05,0
45.605,-2.5513e-05,0
45.605,-3.1052e-05,0
45.606,-4.2802e-05,0
45.606,-7.5029e-05,0
45.607,-0.00011833,0
45.607,-0.00014368,0
45.608,-0.0001378,0
45.608,-0.00011095,0
45.609,-7.335e-05,0
45.609,-3.1556e-05,0
45.61,9.9031e-06,0
45.61,5.4551e-05,0
45.611,0.00010323,0
45.611,0.00014871,0
45.612,0.00018212,0
45.612,0.00019638,0
45.613,0.00018917,0
45.613,0.00017104,0
45.614,0.0001556,0
45.614,0.00014049,0
45.615,0.00011598,0
45.615,8.5771e-05,0
45.616,5.9922e-05,0
45.617,3.9948e-05,0
45.617,2.8031e-05,0
45.618,2.4002e-05,0
45.618,2.5345e-05,0
45.619,2.652e-05,0
45.619,2.266e-05,0
45.62,1.6617e-05,0
45.62,1.4267e-05,0
45.621,1.1246e-05,0
45.621,4.5319e-06,0
45.622,-1.8463e-06,0
45.622,-9.5674e-06,0
45.623,-1.7792e-05,0
45.623,-2.4002e-05,0
45.624,-2.6352e-05,0
45.624,-2.5849e-05,0
45.625,-2.5681e-05,0
45.625,-2.9038e-05,0
45.626,-3.4745e-05,0
45.626,-3.7934e-05,0
45.627,-3.9445e-05,0
45.627,-4.3137e-05,0
45.628,-4.4816e-05,0
45.628,-4.0452e-05,0
45.629,-3.1724e-05,0
45.629,-2.2995e-05,0
45.63,-1.3931e-05,0
45.631,-5.7069e-06,0
45.631,6.714e-07,0
45.632,4.1962e-06,0
45.632,2.8534e-06,0
45.633,5.0355e-07,0
45.633,1.8463e-06,0
45.634,7.8889e-06,0
45.634,1.4603e-05,0
45.635,1.9638e-05,0
45.635,2.4002e-05,0
45.636,2.6688e-05,0
45.636,2.8367e-05,0
45.637,3.1891e-05,0
45.637,3.4409e-05,0
45.638,3.4073e-05,0
45.638,3.3234e-05,0
45.639,3.5584e-05,0
45.639,3.9109e-05,0
45.64,4.213e-05,0
45.64,4.4144e-05,0
45.641,4.5991e-05,0
45.641,4.4144e-05,0
45.642,4.0116e-05,0
45.642,3.4745e-05,0
45.643,2.9206e-05,0
45.644,2.6352e-05,0
45.644,2.4002e-05,0
45.645,2.031e-05,0
45.645,1.8128e-05,0
45.646,1.8631e-05,0
45.646,1.9806e-05,0
45.647,2.1653e-05,0
45.647,2.2995e-05,0
45.648,2.0478e-05,0
45.648,1.7792e-05,0
45.649,1.4435e-05,0
45.649,9.5674e-06,0
45.65,6.5461e-06,0
45.65,7.5532e-06,0
45.651,1.1078e-05,0
45.651,1.3596e-05,0
45.652,1.2757e-05,0
45.652,8.3925e-06,0
45.653,4.1962e-06,0
45.653,4.8676e-06,0
45.654,9.9031e-06,0
45.654,1.6449e-05,0
45.655,2.2156e-05,0
45.655,3.1724e-05,0
45.656,4.4816e-05,0
45.656,5.6062e-05,0
45.657,6.2272e-05,0
45.658,6.1936e-05,0
45.658,5.623e-05,0
45.659,4.7669e-05,0
45.659,3.9109e-05,0
45.66,3.4073e-05,0
45.66,3.1724e-05,0
45.661,2.9038e-05,0
45.661,2.4506e-05,0
45.662,2.0142e-05,0
45.662,1.6449e-05,0
45.663,1.3596e-05,0
45.663,1.2253e-05,0
45.664,1.3931e-05,0
45.664,1.8967e-05,0
45.665,2.3163e-05,0
45.665,2.501e-05,0
45.666,2.3835e-05,0
45.666,2.0981e-05,0
45.667,1.561e-05,0
45.667,1.0071e-05,0
45.668,3.6927e-06,0
45.668,-6.0426e-06,0
45.669,-1.7288e-05,0
45.669,-2.501e-05,0
45.67,-2.4338e-05,0
45.67,-1.5946e-05,0
45.671,-5.539e-06,0
45.672,3.0213e-06,0
45.672,8.896e-06,0
45.673,1.2589e-05,0
45.673,1.3931e-05,0
45.674,7.8889e-06,0
45.674,-5.7069e-06,0
45.675,-2.1485e-05,0
45.675,-3.0716e-05,0
45.676,-3.2059e-05,0
45.676,-2.5849e-05,0
45.677,-1.326e-05,0
45.677,1.8463e-06,0
45.678,1.5106e-05,0
45.678,2.1653e-05,0
45.679,1.8967e-05,0
45.679,1.0239e-05,0
45.68,6.5461e-06,0
45.68,1.2085e-05,0
45.681,2.3163e-05,0
45.681,3.0884e-05,0
45.682,3.6088e-05,0
45.682,5.3544e-05,0
45.683,8.2582e-05,0
45.683,0.00010961,0
45.684,0.0001321,0
45.685,0.00015341,0
45.685,0.00016701,0
45.686,0.00016634,0
45.686,0.00015392,0
45.687,0.00014133,0
45.687,0.00013059,0
45.688,0.00011397,0
45.688,8.5771e-05,0
45.689,5.6901e-05,0
45.689,3.9109e-05,0
45.69,2.7359e-05,0
45.69,1.3931e-05,0
45.691,5.0355e-07,0
45.691,-1.091e-05,0
45.692,-2.1317e-05,0
45.692,-3.1052e-05,0
45.693,-4.1794e-05,0
45.693,-5.0858e-05,0
45.694,-5.4551e-05,0
45.694,-5.153e-05,0
45.695,-4.2634e-05,0
45.695,-3.2731e-05,0
45.696,-2.6184e-05,0
45.696,-2.031e-05,0
45.697,-1.7624e-05,0
45.697,-2.1317e-05,0
45.698,-2.9709e-05,0
45.699,-3.6423e-05,0
45.699,-3.5752e-05,0
45.7,-2.7192e-05,0
45.7,-1.5946e-05,0
45.701,-8.896e-06,0
45.701,-7.2175e-06,0
45.702,-7.8889e-06,0
45.702,-6.2104e-06,0
45.703,-2.8534e-06,0
45.703,1.6785e-06,0
45.704,7.8889e-06,0
45.704,1.5946e-05,0
45.705,2.2324e-05,0
45.705,2.4674e-05,0
45.706,2.4002e-05,0
45.706,2.1317e-05,0
45.707,1.9135e-05,0
45.707,2.0142e-05,0
45.708,2.1317e-05,0
45.708,2.0981e-05,0
45.709,2.3163e-05,0
45.709,2.7359e-05,0
45.71,2.8367e-05,0
45.71,2.5345e-05,0
45.711,2.266e-05,0
45.712,2.3667e-05,0
45.712,2.9374e-05,0
45.713,3.5248e-05,0
45.713,3.7095e-05,0
45.714,3.3066e-05,0
45.714,2.5849e-05,0
45.715,1.796e-05,0
45.715,1.3764e-05,0
45.716,1.2589e-05,0
45.716,1.0575e-05,0
45.717,5.539e-06,0
45.717,5.0355e-07,0
45.718,4.1962e-06,0
45.718,1.4603e-05,0
45.719,2.266e-05,0
45.719,2.4002e-05,0
45.72,1.8296e-05,0
45.72,1.0742e-05,0
45.721,7.3854e-06,0
45.721,9.2317e-06,0
45.722,8.3925e-06,0
45.722,5.0355e-06,0
45.723,4.6998e-06,0
45.723,7.8889e-06,0
45.724,1.1917e-05,0
45.724,1.5106e-05,0
45.725,1.5946e-05,0
45.726,1.7624e-05,0
45.726,2.0478e-05,0
45.727,2.4002e-05,0
45.727,2.9374e-05,0
45.728,3.3234e-05,0
45.728,3.508e-05,0
45.729,3.8773e-05,0
45.729,4.2466e-05,0
45.73,3.8437e-05,0
45.73,2.4674e-05,0
45.731,6.8818e-06,0
45.731,-1.1078e-05,0
45.732,-2.031e-05,0
45.732,-1.7624e-05,0
45.733,-9.2317e-06,0
45.733,-3.5248e-06,0
45.734,-3.8605e-06,0
45.734,-1.5106e-06,0
45.735,8.7282e-06,0
45.735,1.7288e-05,0
45.736,1.8631e-05,0
45.736,2.2324e-05,0
45.737,3.357e-05,0
45.737,5.069e-05,0
45.738,6.9993e-05,0
45.739,8.6946e-05,0
45.739,9.5171e-05,0
45.74,8.9464e-05,0
45.74,5.5726e-05,0
45.741,-1.1917e-05,0
45.741,-8.6107e-05,0
45.742,-0.00012908,0
45.742,-0.00012975,0
45.743,-9.9367e-05,0
45.743,-5.3208e-05,0
45.744,-5.3712e-06,0
45.744,3.4073e-05,0
45.745,6.3615e-05,0
45.745,8.7449e-05,0
45.746,0.0001086,0
45.746,0.0001237,0
45.747,0.00012908,0
45.747,0.00013512,0
45.748,0.00014922,0
45.748,0.00016902,0
45.749,0.00017574,0
45.749,0.00016265,0
45.75,0.0001368,0
45.75,0.00011078,0
45.751,9.0135e-05,0
45.752,7.3686e-05,0
45.752,6.0929e-05,0
45.753,5.0523e-05,0
45.753,3.9445e-05,0
45.754,2.1149e-05,0
45.754,-2.182e-06,0
45.755,-1.8967e-05,0
45.755,-2.4506e-05,0
45.756,-2.501e-05,0
45.756,-2.2156e-05,0
45.757,-1.2589e-05,0
45.757,1.3428e-06,0
45.758,1.3931e-05,0
45.758,2.4506e-05,0
45.759,3.3066e-05,0
45.759,3.743e-05,0
45.76,3.6088e-05,0
45.76,2.7695e-05,0
45.761,1.6449e-05,0
45.761,5.0355e-06,0
45.762,-4.6998e-06,0
45.762,-1.3596e-05,0
45.763,-2.2492e-05,0
45.763,-3.0381e-05,0
45.764,-3.3234e-05,0
45.764,-3.3234e-05,0
45.765,-3.508e-05,0
45.766,-4.0452e-05,0
45.766,-4.2969e-05,0
45.767,-4.0955e-05,0
45.767,-3.8437e-05,0
45.768,-3.5416e-05,0
45.768,-3.0716e-05,0
45.769,-2.5345e-05,0
45.769,-2.031e-05,0
45.77,-1.5946e-05,0
45.77,-1.1749e-05,0
45.771,-6.2104e-06,0
45.771,3.357e-07,0
45.772,4.6998e-06,0
45.772,9.0639e-06,0
45.773,1.1917e-05,0
45.773,1.5274e-05,0
45.774,1.8799e-05,0
45.774,2.2156e-05,0
45.775,2.2995e-05,0
45.775,2.0981e-05,0
45.776,1.8463e-05,0
45.776,1.6617e-05,0
45.777,1.4939e-05,0
45.777,1.3931e-05,0
45.778,1.4603e-05,0
45.779,1.4267e-05,0
45.779,1.3931e-05,0
45.78,1.6281e-05,0
45.78,2.1149e-05,0
45.781,2.3667e-05,0
45.781,2.3163e-05,0
45.782,2.1653e-05,0
45.782,1.9974e-05,0
45.783,1.8463e-05,0
45.783,1.5946e-05,0
45.784,1.091e-05,0
45.784,5.539e-06,0
45.785,4.6998e-06,0
45.785,7.2175e-06,0
45.786,5.8747e-06,0
45.786,-1.6785e-07,0
45.787,-8.3925e-06,0
45.787,-1.5946e-05,0
45.788,-1.8967e-05,0
45.788,-1.6953e-05,0
45.789,-1.1246e-05,0
45.789,0,0
45.79,1.4771e-05,0
45.79,2.6688e-05,0
45.791,3.4745e-05,0
45.791,4.0787e-05,0
45.792,4.1123e-05,0
45.793,3.6591e-05,0
45.793,3.3066e-05,0
45.794,3.2059e-05,0
45.794,2.9374e-05,0
45.795,2.3499e-05,0
45.795,1.7624e-05,0
45.796,1.5274e-05,0
45.796,1.2421e-05,0
45.797,6.5461e-06,0
45.797,-3.357e-07,0
45.798,-1.6785e-06,0
45.798,6.5461e-06,0
45.799,2.4842e-05,0
45.799,4.5487e-05,0
45.8,6.2104e-05,0
45.8,7.3686e-05,0
45.801,7.7379e-05,0
45.801,7.1e-05,0
45.802,5.304e-05,0
45.802,2.6688e-05,0
45.803,1.0071e-06,0
45.803,-1.5274e-05,0
45.804,-1.6617e-05,0
45.804,-4.1962e-06,0
45.805,1.4435e-05,0
45.806,2.9877e-05,0
45.806,4.062e-05,0
45.807,4.683e-05,0
45.807,4.6494e-05,0
45.808,3.3066e-05,0
45.808,1.2253e-05,0
45.809,3.8605e-06,0
45.809,1.9303e-05,0
45.81,4.9012e-05,0
45.81,7.7379e-05,0
45.811,9.6513e-05,0
45.811,0.00010491,0
45.812,0.00010188,0
45.812,9.3156e-05,0
45.813,8.5771e-05,0
45.813,8.3085e-05,0
45.814,8.2414e-05,0
45.814,7.6539e-05,0
45.815,6.6133e-05,0
45.815,5.6565e-05,0
45.816,5.304e-05,0
45.816,5.5558e-05,0
45.817,5.7572e-05,0
45.817,5.5222e-05,0
45.818,4.8676e-05,0
45.818,3.8102e-05,0
45.819,2.3835e-05,0
45.82,9.9031e-06,0
45.82,1.1749e-06,0
45.821,-5.0355e-06,0
45.821,-1.3092e-05,0
45.822,-2.4674e-05,0
45.822,-3.6759e-05,0
45.823,-4.2466e-05,0
45.823,-4.3137e-05,0
45.824,-4.4984e-05,0
45.824,-4.8508e-05,0
45.825,-5.0019e-05,0
45.825,-5.1194e-05,0
45.826,-5.6062e-05,0
45.826,-6.1936e-05,0
45.827,-5.9586e-05,0
45.827,-4.6494e-05,0
45.828,-2.9038e-05,0
45.828,-1.2421e-05,0
45.829,4.5319e-06,0
45.829,1.9806e-05,0
45.83,3.0045e-05,0
45.83,3.8437e-05,0
45.831,4.7837e-05,0
45.831,5.539e-05,0
45.832,5.7908e-05,0
45.833,5.3208e-05,0
45.833,4.683e-05,0
45.834,4.2802e-05,0
45.834,3.9948e-05,0
45.835,3.4073e-05,0
45.835,2.1988e-05,0
45.836,8.2246e-06,0
45.836,5.0355e-07,0
45.837,-1.0071e-06,0
45.837,1.1749e-06,0
45.838,4.1962e-06,0
45.838,7.8889e-06,0
45.839,1.1917e-05,0
45.839,1.6617e-05,0
45.84,1.9974e-05,0
45.84,2.0645e-05,0
45.841,1.9638e-05,0
45.841,2.0478e-05,0
45.842,2.4674e-05,0
45.842,2.7695e-05,0
45.843,2.6017e-05,0
45.843,2.1317e-05,0
45.844,1.6449e-05,0
45.844,1.091e-05,0
45.845,5.2033e-06,0
45.845,2.8534e-06,0
45.846,8.3925e-07,0
45.847,-4.8676e-06,0
45.847,-1.3764e-05,0
45.848,-2.4002e-05,0
45.848,-3.3234e-05,0
45.849,-3.7095e-05,0
45.849,-3.4241e-05,0
45.85,-2.3163e-05,0
45.85,-9.2317e-06,0
45.851,-1.6785e-07,0
45.851,8.3925e-07,0
45.852,3.6927e-06,0
45.852,1.8296e-05,0
45.853,3.7934e-05,0
45.853,5.3376e-05,0
45.854,6.2608e-05,0
45.854,7.4357e-05,0
45.855,9.8192e-05,0
45.855,0.00012605,0
45.856,0.00013747,0
45.856,0.00012874,0
45.857,0.00011498,0
45.857,9.987e-05,0
45.858,8.2582e-05,0
45.858,6.4286e-05,0
45.859,5.0523e-05,0
45.859,4.2466e-05,0
45.86,3.2731e-05,0
45.861,1.8799e-05,0
45.861,2.0142e-06,0
45.862,-1.7121e-05,0
45.862,-3.6088e-05,0
45.863,-5.7572e-05,0
45.863,-8.8792e-05,0
45.864,-0.00012287,0
45.864,-0.00013965,0
45.865,-0.00012857,0
45.865,-9.6513e-05,0
45.866,-5.304e-05,0
45.866,-6.8818e-06,0
45.867,3.508e-05,0
45.867,7.0497e-05,0
45.868,0.00010222,0
45.868,0.00013126,0
45.869,0.00015392,0
45.869,0.00016584,0
45.87,0.00016634,0
45.87,0.00015879,0
45.871,0.00015006,0
45.871,0.00013747,0
45.872,0.00011313,0
45.872,7.805e-05,0
45.873,4.1291e-05,0
45.874,1.1246e-05,0
45.874,-1.1246e-05,0
45.875,-2.9709e-05,0
45.875,-4.4144e-05,0
45.876,-5.4383e-05,0
45.876,-6.009e-05,0
45.877,-5.9251e-05,0
45.877,-5.0187e-05,0
45.878,-3.6088e-05,0
45.878,-1.9806e-05,0
45.879,-6.3783e-06,0
45.879,1.0071e-06,0
45.88,2.182e-06,0
45.88,2.5177e-06,0
45.881,8.2246e-06,0
45.881,1.7792e-05,0
45.882,2.4338e-05,0
45.882,2.8031e-05,0
45.883,3.0381e-05,0
45.883,3.2059e-05,0
45.884,3.2059e-05,0
45.884,2.8702e-05,0
45.885,2.2995e-05,0
45.885,1.5274e-05,0
45.886,8.2246e-06,0
45.886,4.6998e-06,0
45.887,4.8676e-06,0
45.888,7.8889e-06,0
45.888,1.2589e-05,0
45.889,1.2253e-05,0
45.889,3.5248e-06,0
45.89,-4.8676e-06,0
45.89,-5.8747e-06,0
45.891,-5.7069e-06,0
45.891,-9.0639e-06,0
45.892,-1.2757e-05,0
45.892,-1.3092e-05,0
45.893,-1.091e-05,0
45.893,-5.539e-06,0
45.894,1.1749e-06,0
45.894,7.8889e-06,0
45.895,1.0575e-05,0
45.895,6.2104e-06,0
45.896,1.0071e-06,0
45.896,2.8534e-06,0
45.897,1.3764e-05,0
45.897,2.4338e-05,0
45.898,2.9374e-05,0
45.898,3.1388e-05,0
45.899,3.4745e-05,0
45.899,4.1794e-05,0
45.9,4.9348e-05,0
45.901,5.3208e-05,0
45.901,5.4215e-05,0
45.902,5.7908e-05,0
45.902,5.8244e-05,0
45.903,5.0523e-05,0
45.903,3.978e-05,0
45.904,3.2731e-05,0
45.904,2.5849e-05,0
45.905,1.3931e-05,0
45.905,-5.0355e-07,0
45.906,-9.5674e-06,0
45.906,-1.1078e-05,0
45.907,-1.326e-05,0
45.907,-2.2324e-05,0
45.908,-2.7024e-05,0
45.908,-1.9303e-05,0
45.909,-4.0284e-06,0
45.909,9.9031e-06,0
45.91,2.0478e-05,0
45.91,2.9709e-05,0
45.911,3.3738e-05,0
45.911,3.1891e-05,0
45.912,2.3667e-05,0
45.912,1.1917e-05,0
45.913,1.1749e-06,0
45.913,-4.1962e-06,0
45.914,-6.5461e-06,0
45.915,-9.0639e-06,0
45.915,-8.896e-06,0
45.916,-6.8818e-06,0
45.916,-6.0426e-06,0
45.917,-1.8463e-06,0
45.917,6.8818e-06,0
45.918,1.6953e-05,0
45.918,2.1317e-05,0
45.919,2.182e-05,0
45.919,2.4002e-05,0
45.92,3.2059e-05,0
45.92,4.4144e-05,0
45.921,4.9516e-05,0
45.921,4.8173e-05,0
45.922,5.5894e-05,0
45.922,7.3686e-05,0
45.923,9.0303e-05,0
45.923,9.5506e-05,0
45.924,8.9967e-05,0
45.924,8.2246e-05,0
45.925,7.7546e-05,0
45.925,7.8721e-05,0
45.926,7.9728e-05,0
45.926,7.4189e-05,0
45.927,6.1601e-05,0
45.928,4.5991e-05,0
45.928,3.0045e-05,0
45.929,1.091e-05,0
45.929,-9.5674e-06,0
45.93,-2.3163e-05,0
45.93,-2.8702e-05,0
45.931,-2.8031e-05,0
45.931,-2.2492e-05,0
45.932,-1.1917e-05,0
45.932,-5.0355e-07,0
45.933,1.1078e-05,0
45.933,2.5177e-05,0
45.934,4.0787e-05,0
45.934,5.4887e-05,0
45.935,6.3615e-05,0
45.935,6.5461e-05,0
45.936,5.623e-05,0
45.936,3.508e-05,0
45.937,5.539e-06,0
45.937,-2.9709e-05,0
45.938,-5.6565e-05,0
45.938,-6.7643e-05,0
45.939,-6.5965e-05,0
45.939,-5.2369e-05,0
45.94,-2.9709e-05,0
45.941,-5.539e-06,0
45.941,1.4267e-05,0
45.942,2.7359e-05,0
45.942,3.8102e-05,0
45.943,5.304e-05,0
45.943,6.6804e-05,0
45.944,6.9657e-05,0
45.944,6.7811e-05,0
45.945,7.1e-05,0
45.945,7.4022e-05,0
45.946,7.0665e-05,0
45.946,5.9419e-05,0
45.947,4.0787e-05,0
45.947,2.5345e-05,0
45.948,1.8967e-05,0
45.948,1.8128e-05,0
45.949,1.4939e-05,0
45.949,4.6998e-06,0
45.95,-9.7353e-06,0
45.95,-1.9303e-05,0
45.951,-2.2324e-05,0
45.951,-2.4842e-05,0
45.952,-2.4674e-05,0
45.952,-1.9303e-05,0
45.953,-1.7792e-05,0
45.953,-2.1317e-05,0
45.954,-2.1653e-05,0
45.955,-1.7288e-05,0
45.955,-1.091e-05,0
45.956,-7.8889e-06,0
45.956,-6.2104e-06,0
45.957,-3.1891e-06,0
45.957,2.5177e-06,0
45.958,1.1246e-05,0
45.958,2.031e-05,0
45.959,2.4674e-05,0
45.959,2.5681e-05,0
45.96,2.8367e-05,0
45.96,3.6088e-05,0
45.961,4.4144e-05,0
45.961,4.3977e-05,0
45.962,3.7598e-05,0
45.962,3.6088e-05,0
45.963,4.1794e-05,0
45.963,4.6494e-05,0
45.964,4.7333e-05,0
45.964,4.683e-05,0
45.965,4.683e-05,0
45.965,4.2802e-05,0
45.966,2.9038e-05,0
45.966,9.3996e-06,0
45.967,-4.0284e-06,0
45.968,-8.5603e-06,0
45.968,-4.3641e-06,0
45.969,8.5603e-06,0
45.969,2.6688e-05,0
45.97,4.1123e-05,0
45.97,5.069e-05,0
45.971,5.6565e-05,0
45.971,5.7908e-05,0
45.972,5.2873e-05,0
45.972,4.4144e-05,0
45.973,3.7934e-05,0
45.973,3.978e-05,0
45.974,4.7501e-05,0
45.974,5.0187e-05,0
45.975,4.3977e-05,0
45.975,3.8102e-05,0
45.976,3.1724e-05,0
45.976,1.8631e-05,0
45.977,4.1962e-06,0
45.977,-6.8818e-06,0
45.978,-1.4435e-05,0
45.978,-1.7624e-05,0
45.979,-1.4603e-05,0
45.979,-5.539e-06,0
45.98,2.3499e-06,0
45.98,3.6927e-06,0
45.981,5.2033e-06,0
45.982,1.2589e-05,0
45.982,2.1988e-05,0
45.983,2.1149e-05,0
45.983,1.0575e-05,0
45.984,3.1891e-06,0
45.984,8.896e-06,0
45.985,2.7863e-05,0
45.985,5.0355e-05,0
45.986,6.7308e-05,0
45.986,7.2847e-05,0
45.987,6.6972e-05,0
45.987,5.623e-05,0
45.988,4.6494e-05,0
45.988,3.8102e-05,0
45.989,2.9038e-05,0
45.989,1.6617e-05,0
45.99,3.357e-06,0
45.99,-3.8605e-06,0
45.991,-4.5319e-06,0
45.991,-5.2033e-06,0
45.992,-7.0497e-06,0
45.992,-8.2246e-06,0
45.993,-7.5532e-06,0
45.993,-5.539e-06,0
45.994,-2.182e-06,0
45.995,1.5106e-06,0
45.995,3.357e-07,0
45.996,-5.539e-06,0
45.996,-1.1582e-05,0
45.997,-1.6449e-05,0
45.997,-1.9638e-05,0
45.998,-1.9471e-05,0
45.998,-1.5778e-05,0
45.999,-1.2253e-05,0
45.999,-1.1414e-05,0
46,-1.1078e-05,0
46,-1.0071e-05,0
46.001,-9.7353e-06,0
46.001,-7.0497e-06,0
46.002,0,0
46.002,9.0639e-06,0
46.003,1.6281e-05,0
46.003,2.1317e-05,0
46.004,2.5849e-05,0
46.004,2.8702e-05,0
46.005,2.9206e-05,0
46.005,2.6688e-05,0
46.006,2.2995e-05,0
46.006,1.4603e-05,0
46.007,-3.8605e-06,0
46.007,-2.501e-05,0
46.008,-3.2898e-05,0
46.009,-2.501e-05,0
46.009,-1.2253e-05,0
46.01,3.1891e-06,0
46.01,2.266e-05,0
46.011,4.2298e-05,0
46.011,5.8915e-05,0
46.012,7.1168e-05,0
46.012,7.8721e-05,0
46.013,8.1575e-05,0
46.013,8.0568e-05,0
46.014,7.7546e-05,0
46.014,7.3518e-05,0
46.015,6.4118e-05,0
46.015,4.7166e-05,0
46.016,2.3163e-05,0
46.016,-4.8676e-06,0
46.017,-3.0045e-05,0
46.017,-5.069e-05,0
46.018,-6.2943e-05,0
46.018,-6.3279e-05,0
46.019,-5.0019e-05,0
46.019,-2.5849e-05,0
46.02,1.8463e-06,0
46.02,2.266e-05,0
46.021,3.9445e-05,0
46.022,5.9251e-05,0
46.022,8.2078e-05,0
46.023,0.00010021,0
46.023,0.00011464,0
46.024,0.00012824,0
46.024,0.00013243,0
46.025,0.00011917,0
46.025,9.752e-05,0
46.026,8.0232e-05,0
46.026,7.1e-05,0
46.027,6.6972e-05,0
46.027,6.4286e-05,0
46.028,5.9251e-05,0
46.028,4.9683e-05,0
46.029,3.7766e-05,0
46.029,2.4674e-05,0
46.03,9.2317e-06,0
46.03,-1.2421e-05,0
46.031,-3.8437e-05,0
46.031,-5.388e-05,0
46.032,-5.2537e-05,0
46.032,-4.1459e-05,0
46.033,-2.5681e-05,0
46.033,-7.5532e-06,0
46.034,7.0497e-06,0
46.034,1.561e-05,0
46.035,2.4338e-05,0
46.036,3.2731e-05,0
46.036,3.7095e-05,0
46.037,3.743e-05,0
46.037,3.8773e-05,0
46.038,4.3473e-05,0
46.038,4.6998e-05,0
46.039,4.5151e-05,0
46.039,3.6759e-05,0
46.04,1.2924e-05,0
46.04,-2.0142e-05,0
46.041,-4.2634e-05,0
46.041,-4.5823e-05,0
46.042,-3.4409e-05,0
46.042,-1.6953e-05,0
46.043,-1.5106e-06,0
46.043,3.5248e-06,0
46.044,-1.8463e-06,0
46.044,-2.8534e-06,0
46.045,6.3783e-06,0
46.045,1.6281e-05,0
46.046,2.4338e-05,0
46.046,3.0381e-05,0
46.047,3.6423e-05,0
46.047,4.3641e-05,0
46.048,5.2537e-05,0
46.048,5.7908e-05,0
46.049,5.8915e-05,0
46.05,5.8915e-05,0
46.05,5.9586e-05,0
46.051,6.0594e-05,0
46.051,6.1097e-05,0
46.052,6.244e-05,0
46.052,6.4286e-05,0
46.053,6.1097e-05,0
46.053,5.0187e-05,0
46.054,3.4409e-05,0
46.054,1.9471e-05,0
46.055,1.0239e-05,0
46.055,5.2033e-06,0
46.056,-1.3428e-06,0
46.056,-7.0497e-06,0
46.057,-8.0568e-06,0
46.057,-7.5532e-06,0
46.058,-7.8889e-06,0
46.058,-5.8747e-06,0
46.059,-3.0213e-06,0
46.059,-1.8463e-06,0
46.06,-3.1891e-06,0
46.06,-5.539e-06,0
46.061,-7.8889e-06,0
46.061,-8.2246e-06,0
46.062,-7.5532e-06,0
46.063,-7.3854e-06,0
46.063,-8.2246e-06,0
46.064,-8.2246e-06,0
46.064,-7.5532e-06,0
46.065,-5.8747e-06,0
46.065,-5.0355e-06,0
46.066,-5.7069e-06,0
46.066,-4.8676e-06,0
46.067,1.5106e-06,0
46.067,8.896e-06,0
46.068,9.9031e-06,0
46.068,5.7069e-06,0
46.069,2.3499e-06,0
46.069,2.6856e-06,0
46.07,2.3499e-06,0
46.07,1.1749e-06,0
46.071,2.182e-06,0
46.071,4.5319e-06,0
46.072,4.5319e-06,0
46.072,2.5177e-06,0
46.073,-6.714e-07,0
46.073,-2.182e-06,0
46.074,-1.1749e-06,0
46.074,-3.357e-07,0
46.075,-2.182e-06,0
46.075,-5.0355e-06,0
46.076,-2.5177e-06,0
46.077,2.8534e-06,0
46.077,6.5461e-06,0
46.078,7.5532e-06,0
46.078,7.2175e-06,0
46.079,2.0142e-06,0
46.079,-7.5532e-06,0
46.08,-1.7624e-05,0
46.08,-2.1988e-05,0
46.081,-2.3163e-05,0
46.081,-2.6688e-05,0
46.082,-2.6352e-05,0
46.082,-1.3596e-05,0
46.083,8.5603e-06,0
46.083,3.4073e-05,0
46.084,5.9419e-05,0
46.084,8.7785e-05,0
46.085,0.00011531,0
46.085,0.00013579,0
46.086,0.0001472,0
46.086,0.00015392,0
46.087,0.00015879,0
46.087,0.00015895,0
46.088,0.00015224,0
46.088,0.00013747,0
46.089,0.0001138,0
46.09,7.7714e-05,0
46.09,2.1149e-05,0
46.091,-4.1794e-05,0
46.091,-9.0135e-05,0
46.092,-0.00012454,0
46.092,-0.00014687,0
46.093,-0.00015862,0
46.093,-0.00015946,0
46.094,-0.00014469,0
46.094,-0.00010726,0
46.095,-4.9851e-05,0
46.095,1.8967e-05,0
46.096,8.9128e-05,0
46.096,0.00014553,0
46.097,0.00017607,0
46.097,0.00019118,0
46.098,0.0002083,0
46.098,0.00022005,0
46.099,0.00021032,0
46.099,0.0001791,0
46.1,0.00014083,0
46.1,0.00011246,0
46.101,9.5171e-05,0
46.101,8.04e-05,0
46.102,5.7404e-05,0
46.102,2.6352e-05,0
46.103,-2.8534e-06,0
46.104,-2.6184e-05,0
46.104,-4.4312e-05,0
46.105,-5.6062e-05,0
46.105,-6.865e-05,0
46.106,-8.8792e-05,0
46.106,-0.00010658,0
46.107,-0.00010591,0
46.107,-9.0135e-05,0
46.108,-6.6133e-05,0
46.108,-4.1123e-05,0
46.109,-1.796e-05,0
46.109,5.0355e-06,0
46.11,2.6017e-05,0
46.11,4.1123e-05,0
46.111,5.153e-05,0
46.111,6.1097e-05,0
46.112,6.9154e-05,0
46.112,7.4022e-05,0
46.113,7.0832e-05,0
46.113,6.1601e-05,0
46.114,5.0355e-05,0
46.114,3.7766e-05,0
46.115,2.3163e-05,0
46.115,1.1078e-05,0
46.116,4.3641e-06,0
46.117,1.1749e-06,0
46.117,-1.0071e-06,0
46.118,-3.8605e-06,0
46.118,-5.8747e-06,0
46.119,-8.2246e-06,0
46.119,-1.3931e-05,0
46.12,-2.7359e-05,0
46.12,-4.3473e-05,0
46.121,-5.6733e-05,0
46.121,-6.5461e-05,0
46.122,-6.8147e-05,0
46.122,-6.2776e-05,0
46.123,-5.0523e-05,0
46.123,-3.6759e-05,0
46.124,-2.8702e-05,0
46.124,-2.417e-05,0
46.125,-1.4435e-05,0
46.125,2.5177e-06,0
46.126,2.3835e-05,0
46.126,4.8173e-05,0
46.127,7.0329e-05,0
46.127,8.7114e-05,0
46.128,9.7353e-05,0
46.128,0.00010021,0
46.129,9.7017e-05,0
46.13,8.7785e-05,0
46.13,7.4861e-05,0
46.131,6.2272e-05,0
46.131,5.6901e-05,0
46.132,5.3544e-05,0
46.132,4.6159e-05,0
46.133,3.5752e-05,0
46.133,2.5849e-05,0
46.134,1.6449e-05,0
46.134,6.5461e-06,0
46.135,-2.8534e-06,0
46.135,-6.3783e-06,0
46.136,-1.8463e-06,0
46.136,3.5248e-06,0
46.137,7.5532e-06,0
46.137,8.896e-06,0
46.138,8.2246e-06,0
46.138,5.8747e-06,0
46.139,6.8818e-06,0
46.139,1.1917e-05,0
46.14,1.796e-05,0
46.14,2.031e-05,0
46.141,2.0813e-05,0
46.141,2.3499e-05,0
46.142,2.8534e-05,0
46.142,3.122e-05,0
46.143,2.8367e-05,0
46.144,1.6617e-05,0
46.144,3.6927e-06,0
46.145,-2.8534e-06,0
46.145,-3.6927e-06,0
46.146,-3.5248e-06,0
46.146,-3.5248e-06,0
46.147,-9.7353e-06,0
46.147,-1.8128e-05,0
46.148,-1.8631e-05,0
46.148,-6.5461e-06,0
46.149,1.0575e-05,0
46.149,2.3835e-05,0
46.15,3.1724e-05,0
46.15,3.6759e-05,0
46.151,3.8102e-05,0
46.151,3.6088e-05,0
46.152,3.7766e-05,0
46.152,4.5151e-05,0
46.153,5.4215e-05,0
46.153,5.8915e-05,0
46.154,5.5558e-05,0
46.154,4.8173e-05,0
46.155,4.9516e-05,0
46.155,5.623e-05,0
46.156,5.6733e-05,0
46.157,4.4144e-05,0
46.157,2.6352e-05,0
46.158,8.5603e-06,0
46.158,-9.9031e-06,0
46.159,-2.7192e-05,0
46.159,-3.7934e-05,0
46.16,-4.2466e-05,0
46.16,-4.0452e-05,0
46.161,-3.4241e-05,0
46.161,-2.8702e-05,0
46.162,-2.1149e-05,0
46.162,-9.5674e-06,0
46.163,3.8605e-06,0
46.163,1.4267e-05,0
46.164,1.5946e-05,0
46.164,1.091e-05,0
46.165,6.5461e-06,0
46.165,7.8889e-06,0
46.166,1.3931e-05,0
46.166,1.9638e-05,0
46.167,1.9806e-05,0
46.167,1.5442e-05,0
46.168,1.4603e-05,0
46.168,2.1317e-05,0
46.169,3.0381e-05,0
46.169,4.0452e-05,0
46.17,5.0858e-05,0
46.171,5.9419e-05,0
46.171,6.1936e-05,0
46.172,6.244e-05,0
46.172,6.5965e-05,0
46.173,6.8986e-05,0
46.173,6.9322e-05,0
46.174,6.8482e-05,0
46.174,7.0161e-05,0
46.175,7.7714e-05,0
46.175,8.5603e-05,0
46.176,8.51e-05,0
46.176,7.335e-05,0
46.177,5.5558e-05,0
46.177,3.6088e-05,0
46.178,1.6281e-05,0
46.178,8.3925e-07,0
46.179,-5.2033e-06,0
46.179,-1.5106e-06,0
46.18,1.0575e-05,0
46.18,2.8702e-05,0
46.181,5.0523e-05,0
46.181,6.6133e-05,0
46.182,6.9322e-05,0
46.182,6.1936e-05,0
46.183,4.9012e-05,0
46.184,3.4409e-05,0
46.184,2.2492e-05,0
46.185,1.7792e-05,0
46.185,1.8631e-05,0
46.186,1.561e-05,0
46.186,3.8605e-06,0
46.187,-8.7282e-06,0
46.187,-1.7624e-05,0
46.188,-2.182e-05,0
46.188,-2.2492e-05,0
46.189,-2.0142e-05,0
46.189,-1.8463e-05,0
46.19,-1.6785e-05,0
46.19,-1.1917e-05,0
46.191,-6.2104e-06,0
46.191,-1.1749e-06,0
46.192,3.1891e-06,0
46.192,5.7069e-06,0
46.193,7.5532e-06,0
46.193,8.5603e-06,0
46.194,7.0497e-06,0
46.194,3.8605e-06,0
46.195,-1.6785e-07,0
46.195,-1.8463e-06,0
46.196,5.0355e-07,0
46.196,1.6785e-07,0
46.197,-6.3783e-06,0
46.198,-1.6953e-05,0
46.198,-2.4338e-05,0
46.199,-2.5177e-05,0
46.199,-2.501e-05,0
46.2,-2.8031e-05,0
46.2,-3.508e-05,0
46.201,-4.0116e-05,0
46.201,-3.7095e-05,0
46.202,-3.122e-05,0
46.202,-2.8367e-05,0
46.203,-2.8031e-05,0
46.203,-2.8367e-05,0
46.204,-2.4002e-05,0
46.204,-1.4939e-05,0
46.205,-2.0142e-06,0
46.205,1.0575e-05,0
46.206,2.1317e-05,0
46.206,3.1724e-05,0
46.207,4.0787e-05,0
46.207,4.7837e-05,0
46.208,5.5558e-05,0
46.208,6.3615e-05,0
46.209,6.9154e-05,0
46.209,7.0665e-05,0
46.21,7.1e-05,0
46.211,7.0832e-05,0
46.211,6.6468e-05,0
46.212,5.4719e-05,0
46.212,4.1962e-05,0
46.213,3.5416e-05,0
46.213,3.6088e-05,0
46.214,3.8773e-05,0
46.214,4.1794e-05,0
46.215,4.5823e-05,0
46.215,5.0858e-05,0
46.216,5.2873e-05,0
46.216,5.2201e-05,0
46.217,5.1194e-05,0
46.217,4.9516e-05,0
46.218,4.4144e-05,0
46.218,3.7095e-05,0
46.219,2.7359e-05,0
46.219,1.6114e-05,0
46.22,4.5319e-06,0
46.22,-2.6856e-06,0
46.221,-3.1891e-06,0
46.221,-1.5106e-06,0
46.222,-4.1962e-06,0
46.222,-1.2589e-05,0
46.223,-2.0142e-05,0
46.223,-2.6017e-05,0
46.224,-3.5584e-05,0
46.225,-5.0523e-05,0
46.225,-5.8747e-05,0
46.226,-5.3208e-05,0
46.226,-3.978e-05,0
46.227,-2.7527e-05,0
46.227,-2.8031e-05,0
46.228,-3.508e-05,0
46.228,-3.5752e-05,0
46.229,-2.6017e-05,0
46.229,-5.7069e-06,0
46.23,2.1653e-05,0
46.23,4.7333e-05,0
46.231,6.2608e-05,0
46.231,6.7643e-05,0
46.232,7.5868e-05,0
46.232,9.836e-05,0
46.233,0.0001237,0
46.233,0.0001378,0
46.234,0.00013915,0
46.234,0.0001378,0
46.235,0.00014855,0
46.235,0.00017137,0
46.236,0.00018816,0
46.236,0.00018044,0
46.237,0.00014888,0
46.237,0.00011128,0
46.238,8.426e-05,0
46.239,6.9154e-05,0
46.239,6.0929e-05,0
46.24,5.2201e-05,0
46.24,4.0452e-05,0
46.241,2.8702e-05,0
46.241,1.561e-05,0
46.242,1.6785e-07,0
46.242,-1.4939e-05,0
46.243,-2.501e-05,0
46.243,-3.122e-05,0
46.244,-3.4073e-05,0
46.244,-3.2898e-05,0
46.245,-2.9877e-05,0
46.245,-2.8367e-05,0
46.246,-2.5681e-05,0
46.246,-1.8967e-05,0
46.247,-1.1414e-05,0
46.247,-9.5674e-06,0
46.248,-1.326e-05,0
46.248,-1.8296e-05,0
46.249,-2.0478e-05,0
46.249,-1.8463e-05,0
46.25,-1.4939e-05,0
46.25,-9.9031e-06,0
46.251,-5.539e-06,0
46.252,-2.8534e-06,0
46.252,-2.182e-06,0
46.253,-3.5248e-06,0
46.253,-5.8747e-06,0
46.254,-1.1582e-05,0
46.254,-2.0645e-05,0
46.255,-3.0884e-05,0
46.255,-4.2466e-05,0
46.256,-5.7404e-05,0
46.256,-7.6371e-05,0
46.257,-9.1478e-05,0
46.257,-9.5506e-05,0
46.258,-8.7114e-05,0
46.258,-7.3854e-05,0
46.259,-6.4958e-05,0
46.259,-6.0258e-05,0
46.26,-5.388e-05,0
46.26,-4.5655e-05,0
46.261,-3.5752e-05,0
46.261,-2.5681e-05,0
46.262,-8.896e-06,0
46.262,2.0645e-05,0
46.263,4.4984e-05,0
46.263,3.9948e-05,0
46.264,1.561e-05,0
46.264,3.8605e-06,0
46.265,1.8631e-05,0
46.266,5.1865e-05,0
46.266,9.1142e-05,0
46.267,0.00013277,0
46.267,0.00017037,0
46.268,0.00019252,0
46.268,0.00019857,0
46.269,0.00019185,0
46.269,0.00017607,0
46.27,0.00015358,0
46.27,0.00012958,0
46.271,0.00010994,0
46.271,9.8527e-05,0
46.272,9.0135e-05,0
46.272,7.7043e-05,0
46.273,6.0258e-05,0
46.273,4.0787e-05,0
46.274,2.501e-05,0
46.274,1.561e-05,0
46.275,9.0639e-06,0
46.275,8.3925e-07,0
46.276,-1.1917e-05,0
46.276,-3.3066e-05,0
46.277,-6.6636e-05,0
46.277,-9.8024e-05,0
46.278,-0.0001086,0
46.279,-9.6345e-05,0
46.279,-7.2679e-05,0
46.28,-5.3544e-05,0
46.28,-4.7166e-05,0
46.281,-4.3641e-05,0
46.281,-3.1891e-05,0
46.282,-1.0407e-05,0
46.282,1.091e-05,0
46.283,2.4674e-05,0
46.283,3.2731e-05,0
46.284,4.0452e-05,0
46.284,4.9516e-05,0
46.285,6.0594e-05,0
46.285,6.63e-05,0
46.286,6.1097e-05,0
46.286,4.5487e-05,0
46.287,2.9206e-05,0
46.287,2.6688e-05,0
46.288,3.6927e-05,0
46.288,4.8173e-05,0
46.289,5.1026e-05,0
46.289,4.7501e-05,0
46.29,4.3305e-05,0
46.29,4.1794e-05,0
46.291,4.5487e-05,0
46.291,5.3376e-05,0
46.292,5.8915e-05,0
46.293,5.4887e-05,0
46.293,3.978e-05,0
46.294,2.1988e-05,0
46.294,8.896e-06,0
46.295,3.0213e-06,0
46.295,1.8463e-06,0
46.296,0,0
46.296,-3.8605e-06,0
46.297,-1.091e-05,0
46.297,-1.8631e-05,0
46.298,-1.9974e-05,0
46.298,-1.4939e-05,0
46.299,-1.2589e-05,0
46.299,-1.3092e-05,0
46.3,-9.7353e-06,0
46.3,-2.5177e-06,0
46.301,3.6927e-06,0
46.301,4.0284e-06,0
46.302,-1.1749e-06,0
46.302,-6.0426e-06,0
46.303,-7.5532e-06,0
46.303,-7.5532e-06,0
46.304,-8.896e-06,0
46.304,-2.0645e-05,0
46.305,-4.5823e-05,0
46.306,-7.0665e-05,0
46.306,-7.805e-05,0
46.307,-6.9993e-05,0
46.307,-5.5055e-05,0
46.308,-3.8102e-05,0
46.308,-1.796e-05,0
46.309,5.8747e-06,0
46.309,3.0045e-05,0
46.31,5.2369e-05,0
46.31,7.1504e-05,0
46.311,9.0974e-05,0
46.311,0.00011666,0
46.312,0.00014049,0
46.312,0.0001566,0
46.313,0.00016399,0
46.313,0.00016365,0
46.314,0.0001556,0
46.314,0.00013713,0
46.315,0.00010944,0
46.315,7.805e-05,0
46.316,4.9516e-05,0
46.316,2.8702e-05,0
46.317,1.6281e-05,0
46.317,8.896e-06,0
46.318,2.8534e-06,0
46.319,-3.1891e-06,0
46.319,-6.2104e-06,0
46.32,-9.3996e-06,0
46.32,-1.8967e-05,0
46.321,-3.1891e-05,0
46.321,-3.978e-05,0
46.322,-3.827e-05,0
46.322,-3.3402e-05,0
46.323,-3.2059e-05,0
46.323,-3.1724e-05,0
46.324,-2.9374e-05,0
46.324,-2.5681e-05,0
46.325,-2.4338e-05,0
46.325,-2.2324e-05,0
46.326,-1.7792e-05,0
46.326,-1.0575e-05,0
46.327,-3.1891e-06,0
46.327,3.1891e-06,0
46.328,5.2033e-06,0
46.328,-1.8463e-06,0
46.329,-9.2317e-06,0
46.329,-7.2175e-06,0
46.33,2.5177e-06,0
46.33,1.6281e-05,0
46.331,3.0549e-05,0
46.331,4.2466e-05,0
46.332,5.3544e-05,0
46.333,6.6133e-05,0
46.333,8.1743e-05,0
46.334,0.00010121,0
46.334,0.00011162,0
46.335,0.00010239,0
46.335,8.4092e-05,0
46.336,7.3014e-05,0
46.336,7.2007e-05,0
46.337,7.5029e-05,0
46.337,7.2343e-05,0
46.338,5.8244e-05,0
46.338,3.743e-05,0
46.339,2.1317e-05,0
46.339,8.5603e-06,0
46.34,-4.1962e-06,0
46.34,-1.6281e-05,0
46.341,-2.266e-05,0
46.341,-2.3163e-05,0
46.342,-1.9806e-05,0
46.342,-1.561e-05,0
46.343,-1.5778e-05,0
46.343,-2.2156e-05,0
46.344,-3.3402e-05,0
46.344,-4.4312e-05,0
46.345,-4.8173e-05,0
46.346,-4.2298e-05,0
46.346,-2.9877e-05,0
46.347,-2.3331e-05,0
46.347,-3.5248e-05,0
46.348,-5.7237e-05,0
46.348,-7.2679e-05,0
46.349,-6.9825e-05,0
46.349,-5.0187e-05,0
46.35,-2.2492e-05,0
46.35,7.2175e-06,0
46.351,3.743e-05,0
46.351,7.0665e-05,0
46.352,0.00010457,0
46.352,0.00013512,0
46.353,0.00014955,0
46.353,0.00014183,0
46.354,0.0001227,0
46.354,0.0001091,0
46.355,0.00010961,0
46.355,0.000118,0
46.356,0.00012136,0
46.356,0.0001091,0
46.357,8.5771e-05,0
46.357,6.3951e-05,0
46.358,5.0187e-05,0
46.358,4.062e-05,0
46.359,3.4073e-05,0
46.36,2.9709e-05,0
46.36,2.7359e-05,0
46.361,2.652e-05,0
46.361,2.5345e-05,0
46.362,1.9974e-05,0
46.362,5.8747e-06,0
46.363,-1.6281e-05,0
46.363,-4.0116e-05,0
46.364,-5.7069e-05,0
46.364,-6.3951e-05,0
46.365,-6.479e-05,0
46.365,-6.1936e-05,0
46.366,-6.2943e-05,0
46.366,-7.5364e-05,0
46.367,-9.1646e-05,0
46.367,-9.5674e-05,0
46.368,-8.51e-05,0
46.368,-6.4118e-05,0
46.369,-3.5416e-05,0
46.369,-8.3925e-07,0
46.37,3.6759e-05,0
46.37,7.4693e-05,0
46.371,0.00010457,0
46.371,0.00012169,0
46.372,0.00012505,0
46.373,0.00011733,0
46.373,0.00010222,0
46.374,8.6442e-05,0
46.374,7.7379e-05,0
46.375,7.6875e-05,0
46.375,7.6036e-05,0
46.376,6.5126e-05,0
46.376,4.8844e-05,0
46.377,3.3402e-05,0
46.377,2.0981e-05,0
46.378,1.0575e-05,0
46.378,4.5319e-06,0
46.379,-2.8534e-06,0
46.379,-9.2317e-06,0
46.38,-1.2924e-05,0
46.38,-1.5442e-05,0
46.381,-2.0478e-05,0
46.381,-2.7024e-05,0
46.382,-3.2395e-05,0
46.382,-3.5248e-05,0
46.383,-3.6088e-05,0
46.383,-3.4913e-05,0
46.384,-3.122e-05,0
46.384,-2.5177e-05,0
46.385,-2.2156e-05,0
46.385,-2.5849e-05,0
46.386,-2.8367e-05,0
46.387,-2.031e-05,0
46.387,-5.539e-06,0
46.388,6.8818e-06,0
46.388,1.4771e-05,0
46.389,2.1149e-05,0
46.389,2.6688e-05,0
46.39,3.1724e-05,0
46.39,3.7766e-05,0
46.391,4.5991e-05,0
46.391,5.2201e-05,0
46.392,5.0523e-05,0
46.392,4.2634e-05,0
46.393,3.6927e-05,0
46.393,3.5416e-05,0
46.394,3.4409e-05,0
46.394,3.3066e-05,0
46.395,3.1724e-05,0
46.395,2.9709e-05,0
46.396,2.6184e-05,0
46.396,1.9135e-05,0
46.397,7.5532e-06,0
46.397,-5.7069e-06,0
46.398,-1.1246e-05,0
46.398,-6.8818e-06,0
46.399,1.5106e-06,0
46.4,9.9031e-06,0
46.4,1.561e-05,0
46.401,2.1317e-05,0
46.401,2.7695e-05,0
46.402,3.1052e-05,0
46.402,3.3402e-05,0
46.403,3.4409e-05,0
46.403,3.3402e-05,0
46.404,2.9709e-05,0
46.404,2.6688e-05,0
46.405,2.9709e-05,0
46.405,3.3066e-05,0
46.406,2.8367e-05,0
46.406,1.8296e-05,0
46.407,1.2253e-05,0
46.407,1.2421e-05,0
46.408,1.5442e-05,0
46.408,1.9638e-05,0
46.409,2.266e-05,0
46.409,2.6017e-05,0
46.41,3.0716e-05,0
46.41,3.4745e-05,0
46.411,3.2731e-05,0
46.411,2.5681e-05,0
46.412,1.7288e-05,0
46.412,1.4099e-05,0
46.413,1.4603e-05,0
46.414,1.7624e-05,0
46.414,2.4002e-05,0
46.415,3.2059e-05,0
46.415,3.743e-05,0
46.416,3.6759e-05,0
46.416,3.1388e-05,0
46.417,2.4002e-05,0
46.417,1.5274e-05,0
46.418,5.0355e-06,0
46.418,-5.0355e-06,0
46.419,-7.8889e-06,0
46.419,-3.5248e-06,0
46.42,-5.539e-06,0
46.42,-3.4241e-05,0
46.421,-7.9728e-05,0
46.421,-0.00011061,0
46.422,-0.00011112,0
46.422,-8.7785e-05,0
46.423,-5.3208e-05,0
46.423,-1.6449e-05,0
46.424,1.8296e-05,0
46.424,5.2033e-05,0
46.425,8.3085e-05,0
46.425,0.00010524,0
46.426,0.00011582,0
46.426,0.00011666,0
46.427,0.00011531,0
46.428,0.00012236,0
46.428,0.00013529,0
46.429,0.00013881,0
46.429,0.00011901,0
46.43,7.7379e-05,0
46.43,3.5752e-05,0
46.431,1.2924e-05,0
46.431,1.0071e-05,0
46.432,1.7288e-05,0
46.432,2.9038e-05,0
46.433,4.4648e-05,0
46.433,5.8747e-05,0
46.434,6.6804e-05,0
46.434,7.2007e-05,0
46.435,7.7714e-05,0
46.435,8.1743e-05,0
46.436,8.4764e-05,0
46.436,8.8457e-05,0
46.437,8.9296e-05,0
46.437,8.275e-05,0
46.438,6.6636e-05,0
46.438,4.5487e-05,0
46.439,2.7695e-05,0
46.439,1.4435e-05,0
46.44,4.8676e-06,0
46.441,-2.182e-06,0
46.441,-8.2246e-06,0
46.442,-1.2589e-05,0
46.442,-1.7792e-05,0
46.443,-2.6352e-05,0
46.443,-3.4745e-05,0
46.444,-3.7263e-05,0
46.444,-3.9948e-05,0
46.445,-4.5655e-05,0
46.445,-5.1194e-05,0
46.446,-5.388e-05,0
46.446,-5.7572e-05,0
46.447,-6.1936e-05,0
46.447,-6.0258e-05,0
46.448,-5.3544e-05,0
46.448,-4.6159e-05,0
46.449,-3.6088e-05,0
46.449,-2.266e-05,0
46.45,-9.7353e-06,0
46.45,1.5106e-06,0
46.451,1.091e-05,0
46.451,1.7456e-05,0
46.452,1.9303e-05,0
46.452,1.4603e-05,0
46.453,8.2246e-06,0
46.453,7.5532e-06,0
46.454,1.1582e-05,0
46.455,1.7288e-05,0
46.455,2.3331e-05,0
46.456,2.6017e-05,0
46.456,2.5345e-05,0
46.457,2.4506e-05,0
46.457,2.9206e-05,0
46.458,3.7766e-05,0
46.458,4.2802e-05,0
46.459,4.6159e-05,0
46.459,4.7166e-05,0
46.46,4.7837e-05,0
46.46,5.0858e-05,0
46.461,5.3544e-05,0
46.461,5.4215e-05,0
46.462,5.3208e-05,0
46.462,5.0858e-05,0
46.463,4.6159e-05,0
46.463,4.0452e-05,0
46.464,3.2059e-05,0
46.464,2.1653e-05,0
46.465,1.091e-05,0
46.465,1.5106e-06,0
46.466,-5.539e-06,0
46.466,-1.1246e-05,0
46.467,-1.8967e-05,0
46.468,-2.4506e-05,0
46.468,-2.4338e-05,0
46.469,-1.7624e-05,0
46.469,-9.5674e-06,0
46.47,-1.6785e-07,0
46.47,9.0639e-06,0
46.471,1.5946e-05,0
46.471,1.7456e-05,0
46.472,1.6281e-05,0
46.472,1.5274e-05,0
46.473,1.3931e-05,0
46.473,1.0575e-05,0
46.474,9.2317e-06,0
46.474,9.2317e-06,0
46.475,1.0575e-05,0
46.475,1.2924e-05,0
46.476,1.1917e-05,0
46.476,7.8889e-06,0
46.477,2.0142e-06,0
46.477,-3.8605e-06,0
46.478,-5.2033e-06,0
46.478,5.0355e-07,0
46.479,9.5674e-06,0
46.479,1.6617e-05,0
46.48,1.6953e-05,0
46.48,1.326e-05,0
46.481,8.2246e-06,0
46.482,-1.6785e-07,0
46.482,-6.2104e-06,0
46.483,-6.3783e-06,0
46.483,-1.8463e-06,0
46.484,7.3854e-06,0
46.484,2.0645e-05,0
46.485,3.3066e-05,0
46.485,4.3641e-05,0
46.486,5.4551e-05,0
46.486,6.5797e-05,0
46.487,7.5364e-05,0
46.487,8.2918e-05,0
46.488,8.6778e-05,0
46.488,8.6275e-05,0
46.489,7.7714e-05,0
46.489,5.9251e-05,0
46.49,3.6088e-05,0
46.49,2.0645e-05,0
46.491,1.8296e-05,0
46.491,2.0478e-05,0
46.492,1.9303e-05,0
46.492,1.796e-05,0
46.493,1.7288e-05,0
46.493,1.4771e-05,0
46.494,7.5532e-06,0
46.495,3.1891e-06,0
46.495,1.326e-05,0
46.496,3.5752e-05,0
46.496,5.5558e-05,0
46.497,6.0929e-05,0
46.497,5.5558e-05,0
46.498,5.2033e-05,0
46.498,5.4887e-05,0
46.499,6.1601e-05,0
46.499,6.7643e-05,0
46.5,6.9322e-05,0
46.5,6.5293e-05,0
46.501,6.0258e-05,0
46.501,5.7572e-05,0
46.502,5.5894e-05,0
46.502,5.0187e-05,0
46.503,3.9445e-05,0
46.503,2.6184e-05,0
46.504,1.1917e-05,0
46.504,-5.2033e-06,0
46.505,-2.1653e-05,0
46.505,-3.1724e-05,0
46.506,-3.508e-05,0
46.506,-3.0884e-05,0
46.507,-2.0478e-05,0
46.508,-1.3596e-05,0
46.508,-2.1653e-05,0
46.509,-3.9445e-05,0
46.509,-4.6494e-05,0
46.51,-3.6759e-05,0
46.51,-2.1149e-05,0
46.511,-3.5248e-06,0
46.511,1.5778e-05,0
46.512,3.5248e-05,0
46.512,5.069e-05,0
46.513,5.8915e-05,0
46.513,5.9922e-05,0
46.514,5.3544e-05,0
46.514,4.7837e-05,0
46.515,4.918e-05,0
46.515,5.7908e-05,0
46.516,6.4622e-05,0
46.516,6.2943e-05,0
46.517,5.7237e-05,0
46.517,5.1194e-05,0
46.518,4.1794e-05,0
46.518,3.0045e-05,0
46.519,1.6617e-05,0
46.519,3.0213e-06,0
46.52,-9.5674e-06,0
46.52,-1.5778e-05,0
46.521,-1.6617e-05,0
46.522,-1.5274e-05,0
46.522,-1.4267e-05,0
46.523,-1.4099e-05,0
46.523,-1.5106e-05,0
46.524,-1.5274e-05,0
46.524,-1.2589e-05,0
46.525,-9.3996e-06,0
46.525,-3.5248e-06,0
46.526,6.5461e-06,0
46.526,2.0813e-05,0
46.527,3.4577e-05,0
46.527,4.1123e-05,0
46.528,3.592e-05,0
46.528,2.266e-05,0
46.529,8.896e-06,0
46.529,-2.5177e-06,0
46.53,-1.2757e-05,0
46.53,-1.9638e-05,0
46.531,-2.1149e-05,0
46.531,-2.031e-05,0
46.532,-1.6617e-05,0
46.532,-1.0575e-05,0
46.533,-6.714e-06,0
46.533,-5.539e-06,0
46.534,-5.0355e-07,0
46.535,1.326e-05,0
46.535,3.3402e-05,0
46.536,4.918e-05,0
46.536,5.2873e-05,0
46.537,4.6998e-05,0
46.537,4.1459e-05,0
46.538,4.0116e-05,0
46.538,4.448e-05,0
46.539,4.918e-05,0
46.539,4.5487e-05,0
46.54,3.3066e-05,0
46.54,2.1653e-05,0
46.541,1.8631e-05,0
46.541,1.9974e-05,0
46.542,1.9638e-05,0
46.542,1.9638e-05,0
46.543,1.8296e-05,0
46.543,1.7624e-05,0
46.544,1.7288e-05,0
46.544,1.796e-05,0
46.545,2.1317e-05,0
46.545,2.6352e-05,0
46.546,3.0381e-05,0
46.546,3.2059e-05,0
46.547,3.3234e-05,0
46.547,3.1388e-05,0
46.548,2.5681e-05,0
46.549,2.1149e-05,0
46.549,1.8631e-05,0
46.55,1.4267e-05,0
46.55,4.8676e-06,0
46.551,-8.5603e-06,0
46.551,-2.1653e-05,0
46.552,-2.7024e-05,0
46.552,-2.4506e-05,0
46.553,-1.8631e-05,0
46.553,-1.1078e-05,0
46.554,-1.1749e-06,0
46.554,1.0239e-05,0
46.555,1.9974e-05,0
46.555,2.5681e-05,0
46.556,2.887e-05,0
46.556,3.2059e-05,0
46.557,3.8102e-05,0
46.557,4.5151e-05,0
46.558,5.2201e-05,0
46.558,5.6901e-05,0
46.559,4.8508e-05,0
46.559,2.2324e-05,0
46.56,-1.2421e-05,0
46.56,-3.8102e-05,0
46.561,-4.8508e-05,0
46.562,-4.6662e-05,0
46.562,-4.0452e-05,0
46.563,-3.1724e-05,0
46.563,-1.796e-05,0
46.564,3.8605e-06,0
46.564,2.8534e-05,0
46.565,4.8508e-05,0
46.565,6.6636e-05,0
46.566,8.5267e-05,0
46.566,0.00010239,0
46.567,0.00011749,0
46.567,0.00012605,0
46.568,0.00012454,0
46.568,0.00011531,0
46.569,9.836e-05,0
46.569,7.5364e-05,0
46.57,5.1194e-05,0
46.57,2.9709e-05,0
46.571,1.2924e-05,0
46.571,3.0213e-06,0
46.572,-1.3428e-06,0
46.572,-5.0355e-07,0
46.573,1.8463e-06,0
46.573,5.0355e-06,0
46.574,9.2317e-06,0
46.574,1.1246e-05,0
46.575,1.3931e-05,0
46.576,1.8967e-05,0
46.576,2.4506e-05,0
46.577,2.7359e-05,0
46.577,2.5177e-05,0
46.578,1.4939e-05,0
46.578,2.6856e-06,0
46.579,-3.357e-06,0
46.579,-3.0213e-06,0
46.58,-6.2104e-06,0
46.58,-2.266e-05,0
46.581,-5.0858e-05,0
46.581,-7.8386e-05,0
46.582,-9.2821e-05,0
46.582,-9.1814e-05,0
46.583,-8.1071e-05,0
46.583,-6.1601e-05,0
46.584,-3.1556e-05,0
46.584,8.2246e-06,0
46.585,5.0858e-05,0
46.585,8.4428e-05,0
46.586,0.00010188,0
46.586,0.00010558,0
46.587,9.8695e-05,0
46.587,8.4428e-05,0
46.588,7.2343e-05,0
46.589,6.9657e-05,0
46.589,7.2343e-05,0
46.59,7.2175e-05,0
46.59,6.4118e-05,0
46.591,4.0116e-05,0
46.591,-3.5248e-06,0
46.592,-4.4144e-05,0
46.592,-6.3951e-05,0
46.593,-6.8315e-05,0
46.593,-6.3951e-05,0
46.594,-5.0187e-05,0
46.594,-3.1052e-05,0
46.595,-1.1078e-05,0
46.595,5.8747e-06,0
46.596,2.3667e-05,0
46.596,4.7501e-05,0
46.597,6.9993e-05,0
46.597,7.6204e-05,0
46.598,6.1936e-05,0
46.598,4.7501e-05,0
46.599,4.5991e-05,0
46.599,5.2705e-05,0
46.6,5.8579e-05,0
46.6,6.2272e-05,0
46.601,6.1601e-05,0
46.601,5.5222e-05,0
46.602,4.8173e-05,0
46.603,4.448e-05,0
46.603,4.2634e-05,0
46.604,4.3137e-05,0
46.604,4.8173e-05,0
46.605,5.5558e-05,0
46.605,6.2272e-05,0
46.606,6.7979e-05,0
46.606,6.7979e-05,0
46.607,6.1601e-05,0
46.607,5.1026e-05,0
46.608,4.062e-05,0
46.608,3.2395e-05,0
46.609,2.7359e-05,0
46.609,2.3163e-05,0
46.61,1.7288e-05,0
46.61,8.3925e-06,0
46.611,-1.8463e-06,0
46.611,-1.2421e-05,0
46.612,-2.266e-05,0
46.612,-3.1052e-05,0
46.613,-3.8437e-05,0
46.613,-4.448e-05,0
46.614,-4.9851e-05,0
46.614,-5.153e-05,0
46.615,-5.069e-05,0
46.615,-5.3376e-05,0
46.616,-5.5726e-05,0
46.617,-5.0187e-05,0
46.617,-3.7766e-05,0
46.618,-2.3163e-05,0
46.618,-9.5674e-06,0
46.619,1.0071e-06,0
46.619,4.8676e-06,0
46.62,6.5461e-06,0
46.62,8.5603e-06,0
46.621,4.3641e-06,0
46.621,-4.5319e-06,0
46.622,-1.2924e-05,0
46.622,-1.6953e-05,0
46.623,-1.4435e-05,0
46.623,-4.6998e-06,0
46.624,1.1078e-05,0
46.624,2.9038e-05,0
46.625,4.6494e-05,0
46.625,6.1936e-05,0
46.626,7.3686e-05,0
46.626,8.4092e-05,0
46.627,9.4667e-05,0
46.627,0.00010927,0
46.628,0.00012605,0
46.628,0.00013931,0
46.629,0.00014015,0
46.63,0.00012471,0
46.63,9.836e-05,0
46.631,7.5029e-05,0
46.631,5.9586e-05,0
46.632,4.6494e-05,0
46.632,2.9038e-05,0
46.633,1.0575e-05,0
46.633,-2.182e-06,0
46.634,-8.3925e-06,0
46.634,-1.2757e-05,0
46.635,-1.5274e-05,0
46.635,-1.4267e-05,0
46.636,-1.1246e-05,0
46.636,-7.5532e-06,0
46.637,-5.8747e-06,0
46.637,-7.7211e-06,0
46.638,-1.1246e-05,0
46.638,-1.4435e-05,0
46.639,-1.9806e-05,0
46.639,-2.7695e-05,0
46.64,-3.2059e-05,0
46.64,-3.0716e-05,0
46.641,-2.7024e-05,0
46.641,-2.417e-05,0
46.642,-2.5681e-05,0
46.642,-3.3234e-05,0
46.643,-4.1794e-05,0
46.644,-4.3473e-05,0
46.644,-3.4409e-05,0
46.645,-1.8631e-05,0
46.645,-8.3925e-07,0
46.646,1.7792e-05,0
46.646,3.8773e-05,0
46.647,5.7572e-05,0
46.647,7.4357e-05,0
46.648,8.8121e-05,0
46.648,9.366e-05,0
46.649,9.2317e-05,0
46.649,8.51e-05,0
46.65,7.3518e-05,0
46.65,6.1433e-05,0
46.651,5.3544e-05,0
46.651,4.8508e-05,0
46.652,4.1459e-05,0
46.652,3.0716e-05,0
46.653,1.8631e-05,0
46.653,8.3925e-06,0
46.654,1.1749e-06,0
46.654,-3.1891e-06,0
46.655,-7.5532e-06,0
46.655,-1.2924e-05,0
46.656,-1.7288e-05,0
46.657,-1.8631e-05,0
46.657,-1.5274e-05,0
46.658,-1.0239e-05,0
46.658,-6.2104e-06,0
46.659,-2.182e-06,0
46.659,2.8534e-06,0
46.66,4.5319e-06,0
46.66,-8.3925e-07,0
46.661,-7.0497e-06,0
46.661,-7.3854e-06,0
46.662,-5.0355e-07,0
46.662,1.1749e-05,0
46.663,2.6688e-05,0
46.663,4.2802e-05,0
46.664,5.4383e-05,0
46.664,5.7237e-05,0
46.665,5.3544e-05,0
46.665,5.1194e-05,0
46.666,5.1194e-05,0
46.666,4.7166e-05,0
46.667,4.062e-05,0
46.667,3.9445e-05,0
46.668,4.3137e-05,0
46.668,4.2802e-05,0
46.669,3.0716e-05,0
46.669,4.3641e-06,0
46.67,-2.3163e-05,0
46.671,-3.8773e-05,0
46.671,-4.213e-05,0
46.672,-3.5248e-05,0
46.672,-2.0813e-05,0
46.673,-2.5177e-06,0
46.673,1.5274e-05,0
46.674,2.7527e-05,0
46.674,3.5752e-05,0
46.675,4.448e-05,0
46.675,5.4551e-05,0
46.676,5.7069e-05,0
46.676,4.9516e-05,0
46.677,4.2466e-05,0
46.677,4.3809e-05,0
46.678,5.069e-05,0
46.678,5.3544e-05,0
46.679,5.2033e-05,0
46.679,4.7837e-05,0
46.68,4.1794e-05,0
46.68,3.8773e-05,0
46.681,4.213e-05,0
46.681,5.0523e-05,0
46.682,5.6565e-05,0
46.682,5.3544e-05,0
46.683,4.683e-05,0
46.684,4.2802e-05,0
46.684,4.1123e-05,0
46.685,3.4745e-05,0
46.685,2.6017e-05,0
46.686,2.0981e-05,0
46.686,2.0813e-05,0
46.687,2.1653e-05,0
46.687,2.1317e-05,0
46.688,2.2995e-05,0
46.688,2.0645e-05,0
46.689,7.7211e-06,0
46.689,-9.5674e-06,0
46.69,-2.1317e-05,0
46.69,-2.9206e-05,0
46.691,-3.4745e-05,0
46.691,-3.4745e-05,0
46.692,-3.0381e-05,0
46.692,-2.4506e-05,0
46.693,-1.5274e-05,0
46.693,-4.8676e-06,0
46.694,3.0213e-06,0
46.694,8.0568e-06,0
46.695,1.1917e-05,0
46.695,1.6449e-05,0
46.696,2.3331e-05,0
46.697,3.122e-05,0
46.697,3.3738e-05,0
46.698,3.1724e-05,0
46.698,2.9709e-05,0
46.699,2.4842e-05,0
46.699,1.561e-05,0
46.7,-2.3499e-06,0
46.7,-2.6856e-05,0
46.701,-4.3809e-05,0
46.701,-4.6662e-05,0
46.702,-3.8605e-05,0
46.702,-2.8031e-05,0
46.703,-1.8799e-05,0
46.703,-5.8747e-06,0
46.704,1.326e-05,0
46.704,3.6423e-05,0
46.705,5.5894e-05,0
46.705,6.7979e-05,0
46.706,7.0665e-05,0
46.706,6.8315e-05,0
46.707,7.5029e-05,0
46.707,8.7953e-05,0
46.708,9.1814e-05,0
46.708,7.9728e-05,0
46.709,5.5558e-05,0
46.709,3.0716e-05,0
46.71,1.7121e-05,0
46.711,1.4603e-05,0
46.711,1.8631e-05,0
46.712,2.1149e-05,0
46.712,1.9638e-05,0
46.713,1.4267e-05,0
46.713,6.0426e-06,0
46.714,-2.5177e-06,0
46.714,-7.8889e-06,0
46.715,-7.8889e-06,0
46.715,-5.539e-06,0
46.716,-3.6927e-06,0
46.716,-1.5106e-06,0
46.717,5.0355e-06,0
46.717,1.2253e-05,0
46.718,1.326e-05,0
46.718,3.8605e-06,0
46.719,-1.326e-05,0
46.719,-2.5681e-05,0
46.72,-2.8199e-05,0
46.72,-3.1556e-05,0
46.721,-3.508e-05,0
46.721,-2.8199e-05,0
46.722,-1.1582e-05,0
46.722,5.539e-06,0
46.723,1.796e-05,0
46.724,2.4674e-05,0
46.724,3.0213e-05,0
46.725,3.8773e-05,0
46.725,5.0187e-05,0
46.726,6.1433e-05,0
46.726,6.8315e-05,0
46.727,7.1672e-05,0
46.727,7.5364e-05,0
46.728,7.8218e-05,0
46.728,7.9896e-05,0
46.729,7.2343e-05,0
46.729,4.5823e-05,0
46.73,9.0639e-06,0
46.73,-1.9638e-05,0
46.731,-3.4073e-05,0
46.731,-4.1794e-05,0
46.732,-4.4816e-05,0
46.732,-3.9109e-05,0
46.733,-2.3163e-05,0
46.733,0,0
46.734,3.0045e-05,0
46.734,6.0929e-05,0
46.735,8.191e-05,0
46.735,8.5771e-05,0
46.736,8.1071e-05,0
46.736,7.9393e-05,0
46.737,8.2078e-05,0
46.738,7.9393e-05,0
46.738,7.1e-05,0
46.739,6.3615e-05,0
46.739,6.3279e-05,0
46.74,6.8147e-05,0
46.74,7.1504e-05,0
46.741,6.8986e-05,0
46.741,6.2104e-05,0
46.742,5.5558e-05,0
46.742,5.153e-05,0
46.743,4.6494e-05,0
46.743,3.743e-05,0
46.744,2.5345e-05,0
46.744,9.2317e-06,0
46.745,-6.8818e-06,0
46.745,-1.4099e-05,0
46.746,-1.1582e-05,0
46.746,-9.5674e-06,0
46.747,-1.6617e-05,0
46.747,-3.2395e-05,0
46.748,-4.7166e-05,0
46.748,-5.2537e-05,0
46.749,-4.8844e-05,0
46.749,-4.3137e-05,0
46.75,-4.1794e-05,0
46.751,-4.6159e-05,0
46.751,-5.388e-05,0
46.752,-6.3951e-05,0
46.752,-6.8482e-05,0
46.753,-5.7908e-05,0
46.753,-4.2802e-05,0
46.754,-2.8367e-05,0
46.754,-7.3854e-06,0
46.755,2.1317e-05,0
46.755,5.0858e-05,0
46.756,7.5364e-05,0
46.756,8.9464e-05,0
46.757,8.7449e-05,0
46.757,6.2776e-05,0
46.758,2.1317e-05,0
46.758,-1.561e-05,0
46.759,-3.2395e-05,0
46.759,-2.8367e-05,0
46.76,-1.2253e-05,0
46.76,9.2317e-06,0
46.761,3.0381e-05,0
46.761,4.6494e-05,0
46.762,5.4047e-05,0
46.762,4.8844e-05,0
46.763,3.5752e-05,0
46.763,2.4338e-05,0
46.764,2.266e-05,0
46.765,3.0716e-05,0
46.765,4.6159e-05,0
46.766,6.2943e-05,0
46.766,7.3686e-05,0
46.767,7.7714e-05,0
46.767,7.5364e-05,0
46.768,5.8747e-05,0
46.768,2.5345e-05,0
46.769,-6.8818e-06,0
46.769,-1.561e-05,0
46.77,1.1749e-06,0
46.77,2.2995e-05,0
46.771,3.2059e-05,0
46.771,3.6088e-05,0
46.772,5.0858e-05,0
46.772,7.7379e-05,0
46.773,0.00010054,0
46.773,0.00011615,0
46.774,0.00012874,0
46.774,0.00013394,0
46.775,0.0001284,0
46.775,0.00011263,0
46.776,9.5506e-05,0
46.776,8.3085e-05,0
46.777,7.6371e-05,0
46.778,6.6804e-05,0
46.778,4.7501e-05,0
46.779,2.4842e-05,0
46.779,5.8747e-06,0
46.78,-9.0639e-06,0
46.78,-2.031e-05,0
46.781,-2.7359e-05,0
46.781,-3.1388e-05,0
46.782,-3.4745e-05,0
46.782,-4.0116e-05,0
46.783,-4.5319e-05,0
46.783,-4.8005e-05,0
46.784,-4.7669e-05,0
46.784,-4.683e-05,0
46.785,-4.7837e-05,0
46.785,-5.1194e-05,0
46.786,-5.8915e-05,0
46.786,-7.2847e-05,0
46.787,-8.4764e-05,0
46.787,-8.5771e-05,0
46.788,-8.3757e-05,0
46.788,-8.3589e-05,0
46.789,-7.805e-05,0
46.789,-6.0594e-05,0
46.79,-3.4073e-05,0
46.79,-3.5248e-06,0
46.791,2.8031e-05,0
46.792,5.623e-05,0
46.792,7.6371e-05,0
46.793,8.3757e-05,0
46.793,8.3085e-05,0
46.794,8.9799e-05,0
46.794,9.8863e-05,0
46.795,9.8863e-05,0
46.795,8.7114e-05,0
46.796,6.7643e-05,0
46.796,4.5151e-05,0
46.797,2.4338e-05,0
46.797,8.3925e-06,0
46.798,0,0
46.798,-6.714e-07,0
46.799,2.0142e-06,0
46.799,1.1749e-06,0
46.8,-3.8605e-06,0
46.8,-1.0239e-05,0
46.801,-1.9303e-05,0
46.801,-2.6017e-05,0
46.802,-2.7695e-05,0
46.802,-2.5177e-05,0
46.803,-1.6281e-05,0
46.803,-5.0355e-07,0
46.804,1.5946e-05,0
46.804,2.8702e-05,0
46.805,3.8773e-05,0
46.806,4.5823e-05,0
46.806,5.0187e-05,0
46.807,5.2033e-05,0
46.807,4.8508e-05,0
46.808,3.7766e-05,0
46.808,2.4002e-05,0
46.809,1.4099e-05,0
46.809,9.2317e-06,0
46.81,5.539e-06,0
46.81,-3.0213e-06,0
46.811,-9.9031e-06,0
46.811,-7.8889e-06,0
46.812,2.3499e-06,0
46.812,1.5274e-05,0
46.813,2.9709e-05,0
46.813,4.3977e-05,0
46.814,5.4551e-05,0
46.814,6.0426e-05,0
46.815,6.4958e-05,0
46.815,6.9154e-05,0
46.816,7.1504e-05,0
46.816,7.0832e-05,0
46.817,6.5629e-05,0
46.817,5.623e-05,0
46.818,3.978e-05,0
46.819,1.0239e-05,0
46.819,-2.7024e-05,0
46.82,-5.9251e-05,0
46.82,-7.7211e-05,0
46.821,-8.1575e-05,0
46.821,-7.4357e-05,0
46.822,-6.2272e-05,0
46.822,-5.5222e-05,0
46.823,-5.7572e-05,0
46.823,-6.009e-05,0
46.824,-5.7572e-05,0
46.824,-5.3544e-05,0
46.825,-4.3473e-05,0
46.825,-2.3499e-05,0
46.826,5.8747e-06,0
46.826,3.8773e-05,0
46.827,7.2343e-05,0
46.827,0.00010256,0
46.828,0.00012656,0
46.828,0.00014536,0
46.829,0.00015895,0
46.829,0.00016751,0
46.83,0.00017943,0
46.83,0.00019957,0
46.831,0.00021871,0
46.831,0.00021904,0
46.832,0.00019857,0
46.833,0.00016701,0
46.833,0.00013059,0
46.834,9.5171e-05,0
46.834,6.3951e-05,0
46.835,4.1794e-05,0
46.835,2.501e-05,0
46.836,6.5461e-06,0
46.836,-1.1749e-05,0
46.837,-2.501e-05,0
46.837,-3.1724e-05,0
46.838,-3.508e-05,0
46.838,-3.9445e-05,0
46.839,-4.5151e-05,0
46.839,-4.683e-05,0
46.84,-4.5991e-05,0
46.84,-4.4984e-05,0
46.841,-4.5487e-05,0
46.841,-4.9516e-05,0
46.842,-5.6062e-05,0
46.842,-6.0761e-05,0
46.843,-6.0258e-05,0
46.843,-5.7572e-05,0
46.844,-5.1865e-05,0
46.844,-3.8773e-05,0
46.845,-2.031e-05,0
46.846,-3.1891e-06,0
46.846,4.5319e-06,0
46.847,3.0213e-06,0
46.847,-6.714e-07,0
46.848,-3.5248e-06,0
46.848,-1.3428e-06,0
46.849,8.5603e-06,0
46.849,1.8128e-05,0
46.85,2.1149e-05,0
46.85,1.9303e-05,0
46.851,1.3596e-05,0
46.851,8.3925e-06,0
46.852,8.5603e-06,0
46.852,1.0575e-05,0
46.853,1.1246e-05,0
46.853,5.8747e-06,0
46.854,-3.8605e-06,0
46.854,-1.1582e-05,0
46.855,-1.4603e-05,0
46.855,-1.0239e-05,0
46.856,1.8463e-06,0
46.856,1.6281e-05,0
46.857,2.4674e-05,0
46.857,1.9303e-05,0
46.858,6.714e-06,0
46.858,4.5319e-06,0
46.859,1.8128e-05,0
46.86,3.3738e-05,0
46.86,4.062e-05,0
46.861,4.2466e-05,0
46.861,4.6159e-05,0
46.862,5.069e-05,0
46.862,4.4144e-05,0
46.863,1.1582e-05,0
46.863,-4.1459e-05,0
46.864,-9.4499e-05,0
46.864,-0.0001284,0
46.865,-0.00013545,0
46.865,-0.00012656,0
46.866,-0.00010491,0
46.866,-6.6804e-05,0
46.867,-1.2924e-05,0
46.867,4.5487e-05,0
46.868,9.3828e-05,0
46.868,0.00012975,0
46.869,0.00016063,0
46.869,0.00018917,0
46.87,0.00020981,0
46.87,0.00021653,0
46.871,0.00021334,0
46.871,0.00020494,0
46.872,0.000189,0
46.873,0.00016483,0
46.873,0.00013478,0
46.874,0.00010289,0
46.874,7.0832e-05,0
46.875,4.1962e-05,0
46.875,1.8463e-05,0
46.876,-1.6785e-07,0
46.876,-1.6281e-05,0
46.877,-3.508e-05,0
46.877,-5.9922e-05,0
46.878,-8.6107e-05,0
46.878,-0.00010491,0
46.879,-0.00011179,0
46.879,-0.00010927,0
46.88,-0.00010037,0
46.88,-8.6107e-05,0
46.881,-6.6468e-05,0
46.881,-4.213e-05,0
46.882,-1.8128e-05,0
46.882,-1.0071e-06,0
46.883,9.9031e-06,0
46.883,2.3499e-05,0
46.884,4.2298e-05,0
46.884,6.1936e-05,0
46.885,7.7714e-05,0
46.886,8.4428e-05,0
46.886,8.4428e-05,0
46.887,7.5364e-05,0
46.887,5.623e-05,0
46.888,3.2059e-05,0
46.888,9.9031e-06,0
46.889,-7.8889e-06,0
46.889,-2.0478e-05,0
46.89,-2.5849e-05,0
46.89,-2.2324e-05,0
46.891,-1.2924e-05,0
46.891,-6.2104e-06,0
46.892,-2.182e-06,0
46.892,4.8676e-06,0
46.893,1.6449e-05,0
46.893,3.4745e-05,0
46.894,5.7572e-05,0
46.894,8.2246e-05,0
46.895,0.00010507,0
46.895,0.0001185,0
46.896,0.0001227,0
46.896,0.00012068,0
46.897,0.00011414,0
46.897,0.00010726,0
46.898,9.7856e-05,0
46.898,8.2918e-05,0
46.899,6.2943e-05,0
46.9,4.213e-05,0
46.9,2.182e-05,0
46.901,6.714e-06,0
46.901,-1.1749e-06,0
46.902,-7.5532e-06,0
46.902,-1.326e-05,0
46.903,-1.4603e-05,0
46.903,-1.6953e-05,0
46.904,-1.8631e-05,0
46.904,-1.7792e-05,0
46.905,-1.5778e-05,0
46.905,-1.326e-05,0
46.906,-1.1582e-05,0
46.906,-1.2421e-05,0
46.907,-1.2924e-05,0
46.907,-1.3428e-05,0
46.908,-1.4939e-05,0
46.908,-1.7456e-05,0
46.909,-1.9974e-05,0
46.909,-2.1988e-05,0
46.91,-2.3667e-05,0
46.91,-2.4506e-05,0
46.911,-2.3331e-05,0
46.911,-1.9806e-05,0
46.912,-1.6617e-05,0
46.913,-1.3596e-05,0
46.913,-1.2085e-05,0
46.914,-7.5532e-06,0
46.914,-6.714e-07,0
46.915,3.6927e-06,0
46.915,6.5461e-06,0
46.916,1.2421e-05,0
46.916,1.8967e-05,0
46.917,2.2995e-05,0
46.917,2.501e-05,0
46.918,2.5345e-05,0
46.918,2.182e-05,0
46.919,1.326e-05,0
46.919,5.8747e-06,0
46.92,6.2104e-06,0
46.92,9.3996e-06,0
46.921,9.2317e-06,0
46.921,9.2317e-06,0
46.922,1.1917e-05,0
46.922,1.5274e-05,0
46.923,1.5274e-05,0
46.923,1.3596e-05,0
46.924,1.326e-05,0
46.924,1.5274e-05,0
46.925,1.6617e-05,0
46.925,1.9303e-05,0
46.926,2.2492e-05,0
46.927,2.5849e-05,0
46.927,2.8367e-05,0
46.928,2.7359e-05,0
46.928,2.2828e-05,0
46.929,1.6953e-05,0
46.929,1.5442e-05,0
46.93,1.7624e-05,0
46.93,2.0478e-05,0
46.931,2.3331e-05,0
46.931,2.6688e-05,0
46.932,2.8702e-05,0
46.932,2.9374e-05,0
46.933,2.7024e-05,0
46.933,2.182e-05,0
46.934,1.4939e-05,0
46.934,8.2246e-06,0
46.935,-3.1891e-06,0
46.935,-1.9303e-05,0
46.936,-3.7934e-05,0
46.936,-5.2705e-05,0
46.937,-5.9754e-05,0
46.937,-5.8076e-05,0
46.938,-4.8341e-05,0
46.938,-3.0381e-05,0
46.939,-7.2175e-06,0
46.94,2.0981e-05,0
46.94,5.2033e-05,0
46.941,8.1743e-05,0
46.941,9.9199e-05,0
46.942,9.6513e-05,0
46.942,8.4428e-05,0
46.943,7.1e-05,0
46.943,6.2272e-05,0
46.944,5.8579e-05,0
46.944,6.1601e-05,0
46.945,7.3518e-05,0
46.945,8.8289e-05,0
46.946,0.00010054,0
46.946,0.00010709,0
46.947,0.00010524,0
46.947,9.366e-05,0
46.948,7.5029e-05,0
46.948,6.0594e-05,0
46.949,5.4047e-05,0
46.949,5.0187e-05,0
46.95,4.5991e-05,0
46.95,3.8437e-05,0
46.951,2.8367e-05,0
46.951,2.4506e-05,0
46.952,3.3234e-05,0
46.952,4.5319e-05,0
46.953,5.4551e-05,0
46.954,6.1265e-05,0
46.954,6.7811e-05,0
46.955,7.3686e-05,0
46.955,7.4189e-05,0
46.956,6.2943e-05,0
46.956,4.1794e-05,0
46.957,1.8799e-05,0
46.957,-3.0213e-06,0
46.958,-2.1653e-05,0
46.958,-3.3906e-05,0
46.959,-3.7766e-05,0
46.959,-3.4409e-05,0
46.96,-2.4002e-05,0
46.96,-1.4603e-05,0
46.961,-2.031e-05,0
46.961,-5.304e-05,0
46.962,-0.00011279,0
46.962,-0.00017557,0
46.963,-0.00020226,0
46.963,-0.00018044,0
46.964,-0.00012992,0
46.964,-7.3518e-05,0
46.965,-2.2492e-05,0
46.965,1.8631e-05,0
46.966,5.0187e-05,0
46.967,7.5029e-05,0
46.967,9.6513e-05,0
46.968,0.00012001,0
46.968,0.00014318,0
46.969,0.00016349,0
46.969,0.00017977,0
46.97,0.00018883,0
46.97,0.00018379,0
46.971,0.00016416,0
46.971,0.00013931,0
46.972,0.00011397,0
46.972,9.1142e-05,0
46.973,7.4693e-05,0
46.973,6.6636e-05,0
46.974,5.9586e-05,0
46.974,4.9851e-05,0
46.975,3.5752e-05,0
46.975,1.8631e-05,0
46.976,3.8605e-06,0
46.976,-3.5248e-06,0
46.977,-8.3925e-06,0
46.977,-1.796e-05,0
46.978,-3.2395e-05,0
46.978,-4.4816e-05,0
46.979,-5.0523e-05,0
46.979,-5.069e-05,0
46.98,-4.7669e-05,0
46.981,-4.2298e-05,0
46.981,-3.8437e-05,0
46.982,-3.7095e-05,0
46.982,-3.592e-05,0
46.983,-3.5248e-05,0
46.983,-3.6759e-05,0
46.984,-3.8773e-05,0
46.984,-3.6423e-05,0
46.985,-3.1052e-05,0
46.985,-2.7359e-05,0
46.986,-2.6352e-05,0
46.986,-2.4674e-05,0
46.987,-2.0645e-05,0
46.987,-1.6281e-05,0
46.988,-1.0239e-05,0
46.988,-3.1891e-06,0
46.989,1.8463e-06,0
46.989,5.2033e-06,0
46.99,7.2175e-06,0
46.99,5.0355e-06,0
46.991,-1.5106e-06,0
46.991,-6.3783e-06,0
46.992,-7.7211e-06,0
46.992,-6.8818e-06,0
46.993,-5.3712e-06,0
46.993,-4.0284e-06,0
46.994,-8.3925e-07,0
46.995,5.539e-06,0
46.995,1.0071e-05,0
46.996,1.0575e-05,0
46.996,8.7282e-06,0
46.997,4.1962e-06,0
46.997,-2.3499e-06,0
46.998,-4.1962e-06,0
46.998,-1.8463e-06,0
46.999,-4.8676e-06,0
46.999,-1.5274e-05,0
47,-2.7695e-05,0
47,-4.0787e-05,0
47.001,-4.6662e-05,0
47.001,-3.4409e-05,0
47.002,-9.9031e-06,0
47.002,1.6953e-05,0
47.003,4.0116e-05,0
47.003,5.8412e-05,0
47.004,7.5029e-05,0
47.004,9.0471e-05,0
47.005,0.00010574,0
47.005,0.00012169,0
47.006,0.00013948,0
47.006,0.00015023,0
47.007,0.00014133,0
47.008,0.00012102,0
47.008,0.00010088,0
47.009,8.1575e-05,0
47.009,5.9586e-05,0
47.01,3.9445e-05,0
47.01,2.4674e-05,0
47.011,1.8296e-05,0
47.011,1.7792e-05,0
47.012,1.9638e-05,0
47.012,2.1988e-05,0
47.013,2.2324e-05,0
47.013,2.1653e-05,0
47.014,2.3331e-05,0
47.014,2.6184e-05,0
47.015,2.7695e-05,0
47.015,2.9038e-05,0
47.016,3.122e-05,0
47.016,3.6088e-05,0
47.017,4.2802e-05,0
47.017,5.1698e-05,0
47.018,5.5055e-05,0
47.018,5.069e-05,0
47.019,4.0116e-05,0
47.019,3.0716e-05,0
47.02,2.4842e-05,0
47.02,2.3667e-05,0
47.021,2.3667e-05,0
47.022,2.1653e-05,0
47.022,1.7121e-05,0
47.023,1.3428e-05,0
47.023,9.9031e-06,0
47.024,4.3641e-06,0
47.024,-2.3499e-06,0
47.025,-8.5603e-06,0
47.025,-1.4603e-05,0
47.026,-2.1653e-05,0
47.026,-2.9206e-05,0
47.027,-3.3738e-05,0
47.027,-3.7095e-05,0
47.028,-4.1123e-05,0
47.028,-3.9445e-05,0
47.029,-3.1388e-05,0
47.029,-2.2324e-05,0
47.03,-1.5274e-05,0
47.03,-1.1917e-05,0
47.031,-1.0575e-05,0
47.031,-1.4267e-05,0
47.032,-2.4002e-05,0
47.032,-2.9038e-05,0
47.033,-2.266e-05,0
47.033,-5.539e-06,0
47.034,1.3931e-05,0
47.035,2.0981e-05,0
47.035,1.5442e-05,0
47.036,1.3092e-05,0
47.036,2.1653e-05,0
47.037,3.9445e-05,0
47.037,5.8915e-05,0
47.038,7.4022e-05,0
47.038,8.3757e-05,0
47.039,8.9799e-05,0
47.039,9.366e-05,0
47.04,9.5506e-05,0
47.04,9.5842e-05,0
47.041,9.3828e-05,0
47.041,8.6778e-05,0
47.042,7.8218e-05,0
47.042,7.4189e-05,0
47.043,7.1336e-05,0
47.043,6.2943e-05,0
47.044,4.5487e-05,0
47.044,2.5177e-05,0
47.045,6.3783e-06,0
47.045,-8.5603e-06,0
47.046,-1.561e-05,0
47.046,-1.7288e-05,0
47.047,-1.6617e-05,0
47.047,-1.4939e-05,0
47.048,-1.5106e-05,0
47.049,-1.7121e-05,0
47.049,-1.9303e-05,0
47.05,-2.0142e-05,0
47.05,-2.0981e-05,0
47.051,-2.652e-05,0
47.051,-3.357e-05,0
47.052,-3.6423e-05,0
47.052,-4.0116e-05,0
47.053,-4.3137e-05,0
47.053,-3.978e-05,0
47.054,-3.3738e-05,0
47.054,-2.6017e-05,0
47.055,-1.3764e-05,0
47.055,3.1891e-06,0
47.056,1.9638e-05,0
47.056,3.4073e-05,0
47.057,5.153e-05,0
47.057,6.9322e-05,0
47.058,8.51e-05,0
47.058,9.9535e-05,0
47.059,0.00010944,0
47.059,0.00010826,0
47.06,9.6513e-05,0
47.06,8.1071e-05,0
47.061,6.5293e-05,0
47.062,5.2873e-05,0
47.062,4.6494e-05,0
47.063,4.2802e-05,0
47.063,3.5248e-05,0
47.064,1.6449e-05,0
47.064,-1.1078e-05,0
47.065,-3.2395e-05,0
47.065,-3.4745e-05,0
47.066,-2.2324e-05,0
47.066,-9.5674e-06,0
47.067,-3.5248e-06,0
47.067,4.1962e-06,0
47.068,1.4603e-05,0
47.068,1.9974e-05,0
47.069,1.7288e-05,0
47.069,1.1917e-05,0
47.07,7.7211e-06,0
47.07,5.7069e-06,0
47.071,8.896e-06,0
47.071,1.5946e-05,0
47.072,2.182e-05,0
47.072,2.0645e-05,0
47.073,1.1917e-05,0
47.073,6.2104e-06,0
47.074,1.1582e-05,0
47.075,2.4674e-05,0
47.075,3.6759e-05,0
47.076,4.8173e-05,0
47.076,6.3615e-05,0
47.077,7.7043e-05,0
47.077,8.04e-05,0
47.078,6.6972e-05,0
47.078,3.743e-05,0
47.079,5.8747e-06,0
47.079,-1.4267e-05,0
47.08,-2.2156e-05,0
47.08,-2.2995e-05,0
47.081,-2.0645e-05,0
47.081,-1.4099e-05,0
47.082,-5.2033e-06,0
47.082,5.539e-06,0
47.083,1.8296e-05,0
47.083,3.0045e-05,0
47.084,3.8773e-05,0
47.084,4.3977e-05,0
47.085,4.448e-05,0
47.085,4.4144e-05,0
47.086,4.6159e-05,0
47.086,4.8676e-05,0
47.087,4.3473e-05,0
47.087,3.1052e-05,0
47.088,1.6449e-05,0
47.089,5.539e-06,0
47.089,3.5248e-06,0
47.09,8.7282e-06,0
47.09,6.8818e-06,0
47.091,-1.2589e-05,0
47.091,-3.6255e-05,0
47.092,-4.7837e-05,0
47.092,-5.1362e-05,0
47.093,-5.4551e-05,0
47.093,-5.4719e-05,0
47.094,-4.8844e-05,0
47.094,-3.9948e-05,0
47.095,-3.0381e-05,0
47.095,-1.9135e-05,0
47.096,-5.539e-06,0
47.096,1.3764e-05,0
47.097,4.213e-05,0
47.097,7.1e-05,0
47.098,9.3156e-05,0
47.098,0.00010927,0
47.099,0.00012102,0
47.099,0.00012438,0
47.1,0.00011733,0
47.1,0.00010658,0
47.101,9.7185e-05,0
47.102,8.7114e-05,0
47.102,7.4357e-05,0
47.103,5.9586e-05,0
47.103,4.0116e-05,0
47.104,1.5778e-05,0
47.104,-6.8818e-06,0
47.105,-2.4002e-05,0
47.105,-3.3738e-05,0
47.106,-3.4409e-05,0
47.106,-2.9709e-05,0
47.107,-1.8967e-05,0
47.107,-8.3925e-06,0
47.108,-5.0355e-06,0
47.108,-3.6927e-06,0
47.109,6.714e-07,0
47.109,3.8605e-06,0
47.11,-1.6785e-07,0
47.11,-1.2757e-05,0
47.111,-2.7024e-05,0
47.111,-3.3906e-05,0
47.112,-3.1724e-05,0
47.112,-2.3331e-05,0
47.113,-1.5946e-05,0
47.113,-1.6617e-05,0
47.114,-2.4338e-05,0
47.114,-3.1052e-05,0
47.115,-3.0045e-05,0
47.116,-1.8967e-05,0
47.116,-3.1891e-06,0
47.117,1.091e-05,0
47.117,2.266e-05,0
47.118,3.743e-05,0
47.118,5.4047e-05,0
47.119,6.865e-05,0
47.119,7.3686e-05,0
47.12,7.4022e-05,0
47.12,8.1071e-05,0
47.121,9.0639e-05,0
47.121,9.5842e-05,0
47.122,9.8192e-05,0
47.122,9.6513e-05,0
47.123,8.5771e-05,0
47.123,6.8986e-05,0
47.124,5.5055e-05,0
47.124,4.7837e-05,0
47.125,4.448e-05,0
47.125,4.0787e-05,0
47.126,3.357e-05,0
47.126,2.7527e-05,0
47.127,2.7024e-05,0
47.127,2.8031e-05,0
47.128,2.7359e-05,0
47.129,2.4338e-05,0
47.129,1.9974e-05,0
47.13,1.7288e-05,0
47.13,1.6953e-05,0
47.131,1.4603e-05,0
47.131,8.5603e-06,0
47.132,2.3499e-06,0
47.132,-3.357e-06,0
47.133,-7.7211e-06,0
47.133,-1.0239e-05,0
47.134,-1.2253e-05,0
47.134,-1.1749e-05,0
47.135,-1.2085e-05,0
47.135,-1.4603e-05,0
47.136,-2.1653e-05,0
47.136,-3.7766e-05,0
47.137,-6.0594e-05,0
47.137,-7.7379e-05,0
47.138,-8.6946e-05,0
47.138,-9.6849e-05,0
47.139,-9.8192e-05,0
47.139,-8.3421e-05,0
47.14,-5.8579e-05,0
47.14,-2.8702e-05,0
47.141,4.1962e-06,0
47.141,3.6759e-05,0
47.142,6.4286e-05,0
47.143,8.8289e-05,0
47.143,0.0001034,0
47.144,0.00010961,0
47.144,0.00011313,0
47.145,0.00011867,0
47.145,0.00012253,0
47.146,0.00012538,0
47.146,0.00012287,0
47.147,0.00010826,0
47.147,8.1239e-05,0
47.148,5.1194e-05,0
47.148,3.0045e-05,0
47.149,2.3163e-05,0
47.149,2.501e-05,0
47.15,2.7359e-05,0
47.15,2.7863e-05,0
47.151,2.3331e-05,0
47.151,1.5442e-05,0
47.152,5.7069e-06,0
47.152,-8.896e-06,0
47.153,-3.4073e-05,0
47.153,-6.6468e-05,0
47.154,-9.2988e-05,0
47.154,-0.00010054,0
47.155,-8.896e-05,0
47.156,-6.8315e-05,0
47.156,-4.6494e-05,0
47.157,-2.887e-05,0
47.157,-2.1317e-05,0
47.158,-1.7288e-05,0
47.158,-1.091e-05,0
47.159,-5.2033e-06,0
47.159,5.0355e-06,0
47.16,3.3402e-05,0
47.16,7.7714e-05,0
47.161,0.00012001,0
47.161,0.00013948,0
47.162,0.00013512,0
47.162,0.00011867,0
47.163,0.00010608,0
47.163,0.00010407,0
47.164,0.00010591,0
47.164,0.00010893,0
47.165,0.00011263,0
47.165,0.00010843,0
47.166,9.4499e-05,0
47.166,7.9057e-05,0
47.167,6.5126e-05,0
47.167,4.8173e-05,0
47.168,2.8031e-05,0
47.168,1.0407e-05,0
47.169,-4.6998e-06,0
47.17,-2.6688e-05,0
47.17,-5.4551e-05,0
47.171,-7.7043e-05,0
47.171,-8.6107e-05,0
47.172,-8.1071e-05,0
47.172,-7.0161e-05,0
47.173,-6.1936e-05,0
47.173,-5.8076e-05,0
47.174,-5.0858e-05,0
47.174,-3.8102e-05,0
47.175,-2.031e-05,0
47.175,1.1749e-06,0
47.176,2.501e-05,0
47.176,4.7166e-05,0
47.177,6.6133e-05,0
47.177,8.2246e-05,0
47.178,8.7449e-05,0
47.178,7.7379e-05,0
47.179,5.7572e-05,0
47.179,3.592e-05,0
47.18,1.8631e-05,0
47.18,1.1246e-05,0
47.181,1.0575e-05,0
47.181,1.0575e-05,0
47.182,9.9031e-06,0
47.182,8.5603e-06,0
47.183,8.5603e-06,0
47.184,1.1917e-05,0
47.184,1.796e-05,0
47.185,2.6352e-05,0
47.185,3.4073e-05,0
47.186,3.3738e-05,0
47.186,2.6352e-05,0
47.187,1.4603e-05,0
47.187,3.1891e-06,0
47.188,-3.5248e-06,0
47.188,-1.0407e-05,0
47.189,-2.1988e-05,0
47.189,-3.6759e-05,0
47.19,-5.388e-05,0
47.19,-7.8553e-05,0
47.191,-0.00010591,0
47.191,-0.00011766,0
47.192,-0.00010591,0
47.192,-7.9393e-05,0
47.193,-4.6662e-05,0
47.193,-9.9031e-06,0
47.194,3.2059e-05,0
47.194,7.1672e-05,0
47.195,9.9702e-05,0
47.195,0.00011498,0
47.196,0.00012538,0
47.197,0.00013344,0
47.197,0.00013864,0
47.198,0.00013764,0
47.198,0.00013227,0
47.199,0.00012035,0
47.199,9.6345e-05,0
47.2,6.5461e-05,0
47.2,4.2802e-05,0
47.201,3.4073e-05,0
47.201,3.1052e-05,0
47.202,2.6017e-05,0
47.202,1.9974e-05,0
47.203,1.8128e-05,0
47.203,2.0645e-05,0
47.204,2.4338e-05,0
47.204,2.6352e-05,0
47.205,2.7359e-05,0
47.205,3.2731e-05,0
47.206,3.8102e-05,0
47.206,3.978e-05,0
47.207,4.1627e-05,0
47.207,4.2466e-05,0
47.208,3.5416e-05,0
47.208,2.2324e-05,0
47.209,9.5674e-06,0
47.209,2.182e-06,0
47.21,-4.3641e-06,0
47.211,-1.6785e-05,0
47.211,-3.508e-05,0
47.212,-5.0019e-05,0
47.212,-5.5222e-05,0
47.213,-5.1194e-05,0
47.213,-3.9109e-05,0
47.214,-2.2324e-05,0
47.214,-5.8747e-06,0
47.215,6.2104e-06,0
47.215,1.091e-05,0
47.216,9.9031e-06,0
47.216,1.0575e-05,0
47.217,1.8463e-05,0
47.217,2.4002e-05,0
47.218,2.3667e-05,0
47.218,2.6017e-05,0
47.219,3.5752e-05,0
47.219,4.4816e-05,0
47.22,4.5991e-05,0
47.22,3.6759e-05,0
47.221,2.3331e-05,0
47.221,1.6281e-05,0
47.222,2.1317e-05,0
47.222,3.0549e-05,0
47.223,3.3738e-05,0
47.224,2.6688e-05,0
47.224,1.5946e-05,0
47.225,1.0239e-05,0
47.225,8.7282e-06,0
47.226,1.3596e-05,0
47.226,1.8631e-05,0
47.227,1.4099e-05,0
47.227,-8.3925e-07,0
47.228,-1.5442e-05,0
47.228,-1.9806e-05,0
47.229,-1.1749e-05,0
47.229,2.3499e-06,0
47.23,1.4267e-05,0
47.23,1.7792e-05,0
47.231,1.4603e-05,0
47.231,1.091e-05,0
47.232,8.5603e-06,0
47.232,6.8818e-06,0
47.233,4.8676e-06,0
47.233,6.0426e-06,0
47.234,1.4603e-05,0
47.234,2.8702e-05,0
47.235,4.5151e-05,0
47.235,6.0594e-05,0
47.236,7.0665e-05,0
47.236,6.9993e-05,0
47.237,5.8579e-05,0
47.238,4.5823e-05,0
47.238,3.5416e-05,0
47.239,2.1317e-05,0
47.239,7.5532e-06,0
47.24,8.3925e-07,0
47.24,4.5319e-06,0
47.241,1.2085e-05,0
47.241,1.4603e-05,0
47.242,1.1246e-05,0
47.242,1.1917e-05,0
47.243,1.9974e-05,0
47.243,2.9877e-05,0
47.244,3.5416e-05,0
47.244,3.6088e-05,0
47.245,3.2059e-05,0
47.245,2.2492e-05,0
47.246,1.2589e-05,0
47.246,9.0639e-06,0
47.247,7.5532e-06,0
47.247,1.5106e-06,0
47.248,-7.0497e-06,0
47.248,-1.1078e-05,0
47.249,-1.0239e-05,0
47.249,-8.2246e-06,0
47.25,-8.2246e-06,0
47.251,-5.8747e-06,0
47.251,3.0213e-06,0
47.252,1.4435e-05,0
47.252,2.6017e-05,0
47.253,4.1123e-05,0
47.253,5.7908e-05,0
47.254,6.9657e-05,0
47.254,7.335e-05,0
47.255,7.5029e-05,0
47.255,7.7546e-05,0
47.256,7.5868e-05,0
47.256,6.9322e-05,0
47.257,5.8244e-05,0
47.257,4.062e-05,0
47.258,1.3764e-05,0
47.258,-1.326e-05,0
47.259,-3.122e-05,0
47.259,-4.1459e-05,0
47.26,-4.9683e-05,0
47.26,-6.0258e-05,0
47.261,-6.9322e-05,0
47.261,-7.0665e-05,0
47.262,-6.865e-05,0
47.262,-6.7811e-05,0
47.263,-7.2007e-05,0
47.264,-8.1071e-05,0
47.264,-8.0903e-05,0
47.265,-6.4454e-05,0
47.265,-3.4577e-05,0
47.266,3.1891e-06,0
47.266,3.9948e-05,0
47.267,6.3615e-05,0
47.267,8.0064e-05,0
47.268,9.9199e-05,0
47.268,0.00012102,0
47.269,0.00014401,0
47.269,0.00016533,0
47.27,0.00017675,0
47.27,0.00018094,0
47.271,0.00018178,0
47.271,0.00018094,0
47.272,0.00016902,0
47.272,0.0001425,0
47.273,0.00010977,0
47.273,7.7043e-05,0
47.274,4.683e-05,0
47.274,2.4002e-05,0
47.275,1.1917e-05,0
47.275,5.539e-06,0
47.276,-6.714e-07,0
47.276,-6.8818e-06,0
47.277,-1.0407e-05,0
47.278,-8.3925e-06,0
47.278,-2.5177e-06,0
47.279,3.357e-06,0
47.279,4.8676e-06,0
47.28,2.5177e-06,0
47.28,3.1891e-06,0
47.281,5.7069e-06,0
47.281,3.8605e-06,0
47.282,-3.0213e-06,0
47.282,-1.2589e-05,0
47.283,-2.501e-05,0
47.283,-3.5248e-05,0
47.284,-4.0116e-05,0
47.284,-4.5823e-05,0
47.285,-5.1026e-05,0
47.285,-5.0019e-05,0
47.286,-4.3137e-05,0
47.286,-3.4745e-05,0
47.287,-2.3667e-05,0
47.287,-1.1582e-05,0
47.288,-2.5177e-06,0
47.288,3.5248e-06,0
47.289,1.1246e-05,0
47.289,1.6785e-05,0
47.29,1.6449e-05,0
47.291,1.0239e-05,0
47.291,5.0355e-07,0
47.292,-9.2317e-06,0
47.292,-1.8463e-05,0
47.293,-2.501e-05,0
47.293,-2.7024e-05,0
47.294,-2.7527e-05,0
47.294,-2.8031e-05,0
47.295,-2.8367e-05,0
47.295,-3.1388e-05,0
47.296,-3.4409e-05,0
47.296,-3.0045e-05,0
47.297,-1.8631e-05,0
47.297,-1.0071e-05,0
47.298,-8.5603e-06,0
47.298,-9.2317e-06,0
47.299,-4.8676e-06,0
47.299,6.8818e-06,0
47.3,2.4842e-05,0
47.3,4.6159e-05,0
47.301,6.5126e-05,0
47.301,8.1071e-05,0
47.302,9.2485e-05,0
47.302,9.9199e-05,0
47.303,0.0001039,0
47.303,0.00010323,0
47.304,9.2485e-05,0
47.305,7.4022e-05,0
47.305,5.7069e-05,0
47.306,5.1362e-05,0
47.306,5.2033e-05,0
47.307,5.0355e-05,0
47.307,4.2298e-05,0
47.308,3.1052e-05,0
47.308,2.2156e-05,0
47.309,1.7624e-05,0
47.309,1.5274e-05,0
47.31,9.3996e-06,0
47.31,1.1749e-06,0
47.311,-1.5106e-06,0
47.311,2.182e-06,0
47.312,7.7211e-06,0
47.312,1.1917e-05,0
47.313,1.9806e-05,0
47.313,3.0549e-05,0
47.314,3.7934e-05,0
47.314,4.062e-05,0
47.315,3.9445e-05,0
47.315,3.743e-05,0
47.316,3.6759e-05,0
47.316,3.8102e-05,0
47.317,4.0787e-05,0
47.318,4.0452e-05,0
47.318,3.5416e-05,0
47.319,2.9709e-05,0
47.319,2.5681e-05,0
47.32,1.9303e-05,0
47.32,1.1917e-05,0
47.321,3.8605e-06,0
47.321,-1.0407e-05,0
47.322,-3.8605e-05,0
47.322,-7.0832e-05,0
47.323,-8.9799e-05,0
47.323,-9.7856e-05,0
47.324,-0.0001086,0
47.324,-0.0001185,0
47.325,-0.00011279,0
47.325,-8.7449e-05,0
47.326,-5.2201e-05,0
47.326,-2.031e-05,0
47.327,5.8747e-06,0
47.327,3.2059e-05,0
47.328,6.0929e-05,0
47.328,8.9296e-05,0
47.329,0.00012035,0
47.329,0.00014888,0
47.33,0.00016298,0
47.33,0.00016097,0
47.331,0.00016097,0
47.332,0.00017104,0
47.332,0.0001791,0
47.333,0.00016902,0
47.333,0.00013646,0
47.334,9.1814e-05,0
47.334,5.4383e-05,0
47.335,3.743e-05,0
47.335,3.0884e-05,0
47.336,2.0645e-05,0
47.336,6.714e-06,0
47.337,-3.8605e-06,0
47.337,-1.0742e-05,0
47.338,-1.4939e-05,0
47.338,-1.4435e-05,0
47.339,-6.5461e-06,0
47.339,4.0284e-06,0
47.34,1.0575e-05,0
47.34,1.1917e-05,0
47.341,1.1917e-05,0
47.341,1.3931e-05,0
47.342,1.796e-05,0
47.342,1.8799e-05,0
47.343,1.561e-05,0
47.343,1.3931e-05,0
47.344,1.4603e-05,0
47.344,1.326e-05,0
47.345,6.714e-06,0
47.346,-3.6927e-06,0
47.346,-1.1582e-05,0
47.347,-1.7121e-05,0
47.347,-2.3331e-05,0
47.348,-3.0381e-05,0
47.348,-3.2563e-05,0
47.349,-2.9374e-05,0
47.349,-2.652e-05,0
47.35,-2.0645e-05,0
47.35,-7.5532e-06,0
47.351,8.2246e-06,0
47.351,1.9974e-05,0
47.352,2.7192e-05,0
47.352,3.0381e-05,0
47.353,3.0549e-05,0
47.353,2.9374e-05,0
47.354,2.7695e-05,0
47.354,2.6017e-05,0
47.355,2.4674e-05,0
47.355,2.1988e-05,0
47.356,1.561e-05,0
47.356,7.2175e-06,0
47.357,1.1749e-06,0
47.357,-1.5106e-06,0
47.358,-7.2175e-06,0
47.359,-1.2757e-05,0
47.359,-1.1078e-05,0
47.36,-2.8534e-06,0
47.36,7.0497e-06,0
47.361,1.2085e-05,0
47.361,1.0407e-05,0
47.362,6.5461e-06,0
47.362,4.5319e-06,0
47.363,5.7069e-06,0
47.363,1.0071e-05,0
47.364,1.5274e-05,0
47.364,1.8296e-05,0
47.365,1.9974e-05,0
47.365,2.5681e-05,0
47.366,3.4745e-05,0
47.366,4.3473e-05,0
47.367,4.9851e-05,0
47.367,5.1362e-05,0
47.368,4.8844e-05,0
47.368,4.6159e-05,0
47.369,4.5151e-05,0
47.369,4.4648e-05,0
47.37,4.1794e-05,0
47.37,3.6591e-05,0
47.371,2.8031e-05,0
47.371,1.8463e-05,0
47.372,1.3596e-05,0
47.373,1.1078e-05,0
47.373,7.2175e-06,0
47.374,2.8534e-06,0
47.374,-1.0071e-06,0
47.375,-7.3854e-06,0
47.375,-1.2924e-05,0
47.376,-1.5946e-05,0
47.376,-1.7624e-05,0
47.377,-1.7624e-05,0
47.377,-1.091e-05,0
47.378,-8.3925e-07,0
47.378,7.5532e-06,0
47.379,1.3931e-05,0
47.379,2.0981e-05,0
47.38,2.7192e-05,0
47.38,2.9206e-05,0
47.381,2.5849e-05,0
47.381,2.6017e-05,0
47.382,3.3234e-05,0
47.382,3.7766e-05,0
47.383,2.6688e-05,0
47.383,1.8463e-06,0
47.384,-2.2492e-05,0
47.384,-2.9038e-05,0
47.385,-1.7288e-05,0
47.386,2.5177e-06,0
47.386,2.3163e-05,0
47.387,4.3137e-05,0
47.387,6.2776e-05,0
47.388,8.1407e-05,0
47.388,9.7185e-05,0
47.389,0.00010994,0
47.389,0.00012001,0
47.39,0.00012203,0
47.39,0.00011716,0
47.391,0.00011128,0
47.391,0.00010256,0
47.392,9.0471e-05,0
47.392,7.4022e-05,0
47.393,5.4383e-05,0
47.393,3.5752e-05,0
47.394,1.9974e-05,0
47.394,7.2175e-06,0
47.395,-3.1891e-06,0
47.395,-1.0239e-05,0
47.396,-1.3596e-05,0
47.396,-1.3764e-05,0
47.397,-1.7624e-05,0
47.397,-2.3499e-05,0
47.398,-2.7863e-05,0
47.398,-3.1724e-05,0
47.399,-3.4073e-05,0
47.4,-3.2563e-05,0
47.4,-2.9709e-05,0
47.401,-2.7192e-05,0
47.401,-2.4674e-05,0
47.402,-1.6281e-05,0
47.402,-6.5461e-06,0
47.403,-3.0213e-06,0
47.403,-6.2104e-06,0
47.404,-1.1582e-05,0
47.404,-2.0478e-05,0
47.405,-3.9445e-05,0
47.405,-6.3279e-05,0
47.406,-7.4189e-05,0
47.406,-6.4622e-05,0
47.407,-4.1627e-05,0
47.407,-1.8128e-05,0
47.408,1.1749e-06,0
47.408,1.8631e-05,0
47.409,2.9374e-05,0
47.409,2.5681e-05,0
47.41,1.6617e-05,0
47.41,2.1317e-05,0
47.411,4.1123e-05,0
47.411,6.9322e-05,0
47.412,0.00010121,0
47.413,0.00013411,0
47.413,0.00015694,0
47.414,0.00016097,0
47.414,0.00014922,0
47.415,0.00013378,0
47.415,0.00011682,0
47.416,9.2149e-05,0
47.416,6.3783e-05,0
47.417,4.7837e-05,0
47.417,4.5487e-05,0
47.418,3.5416e-05,0
47.418,3.357e-06,0
47.419,-3.7766e-05,0
47.419,-6.1265e-05,0
47.42,-6.2608e-05,0
47.42,-5.2537e-05,0
47.421,-4.3305e-05,0
47.421,-3.5584e-05,0
47.422,-2.2828e-05,0
47.422,-6.5461e-06,0
47.423,8.7282e-06,0
47.423,2.0813e-05,0
47.424,3.0381e-05,0
47.424,3.8605e-05,0
47.425,4.6326e-05,0
47.425,5.4887e-05,0
47.426,6.4286e-05,0
47.427,6.8315e-05,0
47.427,6.1433e-05,0
47.428,4.2634e-05,0
47.428,2.1317e-05,0
47.429,7.5532e-06,0
47.429,6.714e-07,0
47.43,-5.7069e-06,0
47.43,-9.9031e-06,0
47.431,-9.3996e-06,0
47.431,-8.896e-06,0
47.432,-8.896e-06,0
47.432,-8.5603e-06,0
47.433,-7.7211e-06,0
47.433,-4.5319e-06,0
47.434,-5.3712e-06,0
47.434,-1.1917e-05,0
47.435,-1.6953e-05,0
47.435,-1.7288e-05,0
47.436,-1.4771e-05,0
47.436,-1.0239e-05,0
47.437,-5.8747e-06,0
47.437,-3.8605e-06,0
47.438,-1.6785e-06,0
47.438,6.714e-07,0
47.439,3.1891e-06,0
47.44,7.2175e-06,0
47.44,1.1078e-05,0
47.441,1.4771e-05,0
47.441,1.7288e-05,0
47.442,1.8799e-05,0
47.442,1.9303e-05,0
47.443,2.0645e-05,0
47.443,2.1317e-05,0
47.444,2.1317e-05,0
47.444,1.9974e-05,0
47.445,1.7624e-05,0
47.445,1.2757e-05,0
47.446,7.8889e-06,0
47.446,6.3783e-06,0
47.447,6.5461e-06,0
47.447,6.5461e-06,0
47.448,9.0639e-06,0
47.448,1.4267e-05,0
47.449,1.8296e-05,0
47.449,2.0645e-05,0
47.45,2.2324e-05,0
47.45,2.6688e-05,0
47.451,3.4241e-05,0
47.451,4.0787e-05,0
47.452,4.7501e-05,0
47.453,5.3376e-05,0
47.453,5.6062e-05,0
47.454,5.5558e-05,0
47.454,5.4215e-05,0
47.455,5.388e-05,0
47.455,5.2705e-05,0
47.456,5.0858e-05,0
47.456,4.8508e-05,0
47.457,4.5823e-05,0
47.457,4.3977e-05,0
47.458,3.9612e-05,0
47.458,3.1891e-05,0
47.459,2.3163e-05,0
47.459,1.4603e-05,0
47.46,6.3783e-06,0
47.46,-3.5248e-06,0
47.461,-1.4939e-05,0
47.461,-2.1653e-05,0
47.462,-2.1988e-05,0
47.462,-2.0981e-05,0
47.463,-2.1653e-05,0
47.463,-2.2324e-05,0
47.464,-1.796e-05,0
47.464,-6.714e-06,0
47.465,6.5461e-06,0
47.465,1.7792e-05,0
47.466,2.8702e-05,0
47.467,3.978e-05,0
47.467,5.0187e-05,0
47.468,5.9754e-05,0
47.468,6.6636e-05,0
47.469,6.6468e-05,0
47.469,5.9586e-05,0
47.47,5.0187e-05,0
47.47,4.1291e-05,0
47.471,2.7359e-05,0
47.471,4.5319e-06,0
47.472,-1.6281e-05,0
47.472,-2.4338e-05,0
47.473,-1.6953e-05,0
47.473,-3.0213e-06,0
47.474,2.5177e-06,0
47.474,-1.6785e-06,0
47.475,-1.5106e-06,0
47.475,8.2246e-06,0
47.476,2.3499e-05,0
47.476,4.1459e-05,0
47.477,6.0594e-05,0
47.477,7.4022e-05,0
47.478,7.805e-05,0
47.478,7.805e-05,0
47.479,7.6204e-05,0
47.48,6.479e-05,0
47.48,3.9277e-05,0
47.481,1.1749e-05,0
47.481,-6.714e-06,0
47.482,-1.3596e-05,0
47.482,-8.7282e-06,0
47.483,2.3499e-06,0
47.483,1.091e-05,0
47.484,1.0575e-05,0
47.484,5.2033e-06,0
47.485,5.2033e-06,0
47.485,1.6281e-05,0
47.486,3.1556e-05,0
47.486,4.0116e-05,0
47.487,4.1627e-05,0
47.487,4.1962e-05,0
47.488,4.2466e-05,0
47.488,3.9445e-05,0
47.489,3.4409e-05,0
47.489,3.2059e-05,0
47.49,3.4745e-05,0
47.49,4.0787e-05,0
47.491,4.7166e-05,0
47.491,5.153e-05,0
47.492,5.3208e-05,0
47.492,5.1362e-05,0
47.493,4.6998e-05,0
47.494,4.3305e-05,0
47.494,4.1962e-05,0
47.495,4.0116e-05,0
47.495,3.3402e-05,0
47.496,2.6184e-05,0
47.496,2.3835e-05,0
47.497,2.0981e-05,0
47.497,1.326e-05,0
47.498,5.0355e-06,0
47.498,-1.1749e-06,0
47.499,-5.8747e-06,0
47.499,-8.7282e-06,0
47.5,-1.0071e-05,0
47.5,-1.2589e-05,0
47.501,-1.7121e-05,0
47.501,-2.1653e-05,0
47.502,-2.2995e-05,0
47.502,-2.1653e-05,0
47.503,-1.9974e-05,0
47.503,-2.0142e-05,0
47.504,-1.9974e-05,0
47.504,-1.8128e-05,0
47.505,-1.6617e-05,0
47.505,-1.7288e-05,0
47.506,-2.1485e-05,0
47.507,-2.3331e-05,0
47.507,-2.266e-05,0
47.508,-2.0981e-05,0
47.508,-2.0645e-05,0
47.509,-2.1988e-05,0
47.509,-2.1653e-05,0
47.51,-2.031e-05,0
47.51,-1.7121e-05,0
47.511,-1.0239e-05,0
47.511,-6.714e-07,0
47.512,6.3783e-06,0
47.512,1.1917e-05,0
47.513,1.9638e-05,0
47.513,2.7695e-05,0
47.514,3.0716e-05,0
47.514,3.1388e-05,0
47.515,2.887e-05,0
47.515,2.7024e-05,0
47.516,3.6088e-05,0
47.516,5.7237e-05,0
47.517,7.7043e-05,0
47.517,8.2918e-05,0
47.518,7.805e-05,0
47.518,6.9657e-05,0
47.519,5.7237e-05,0
47.519,4.7501e-05,0
47.52,4.4312e-05,0
47.521,4.4144e-05,0
47.521,4.8508e-05,0
47.522,5.7404e-05,0
47.522,6.7811e-05,0
47.523,7.9728e-05,0
47.523,8.9464e-05,0
47.524,8.9128e-05,0
47.524,7.7043e-05,0
47.525,6.5126e-05,0
47.525,6.009e-05,0
47.526,5.4215e-05,0
47.526,4.3137e-05,0
47.527,2.652e-05,0
47.527,5.8747e-06,0
47.528,-1.4267e-05,0
47.528,-3.2395e-05,0
47.529,-4.8173e-05,0
47.529,-6.5461e-05,0
47.53,-9.0974e-05,0
47.53,-0.0001138,0
47.531,-0.00011733,0
47.531,-9.9367e-05,0
47.532,-6.7308e-05,0
47.532,-3.3066e-05,0
47.533,1.0071e-06,0
47.533,3.1724e-05,0
47.534,5.774e-05,0
47.535,8.3085e-05,0
47.535,0.00010591,0
47.536,0.00012203,0
47.536,0.00012975,0
47.537,0.0001326,0
47.537,0.00013277,0
47.538,0.00012673,0
47.538,0.00010994,0
47.539,8.2414e-05,0
47.539,5.5726e-05,0
47.54,3.9948e-05,0
47.54,3.3402e-05,0
47.541,3.122e-05,0
47.541,2.8367e-05,0
47.542,2.2995e-05,0
47.542,1.4099e-05,0
47.543,4.8676e-06,0
47.543,-6.714e-07,0
47.544,-1.6785e-06,0
47.544,-1.1749e-06,0
47.545,-5.3712e-06,0
47.545,-1.3596e-05,0
47.546,-1.8967e-05,0
47.546,-1.9638e-05,0
47.547,-2.1485e-05,0
47.548,-2.4674e-05,0
47.548,-2.6688e-05,0
47.549,-2.6184e-05,0
47.549,-2.8534e-05,0
47.55,-3.4409e-05,0
47.55,-3.8941e-05,0
47.551,-4.0116e-05,0
47.551,-3.7095e-05,0
47.552,-2.8702e-05,0
47.552,-1.6617e-05,0
47.553,-6.3783e-06,0
47.553,-2.182e-06,0
47.554,3.8605e-06,0
47.554,1.3596e-05,0
47.555,1.9135e-05,0
47.555,1.5946e-05,0
47.556,1.0575e-05,0
47.556,9.9031e-06,0
47.557,1.5274e-05,0
47.557,2.5177e-05,0
47.558,3.3402e-05,0
47.558,3.3738e-05,0
47.559,2.8534e-05,0
47.559,2.6017e-05,0
47.56,2.5681e-05,0
47.56,2.4002e-05,0
47.561,2.1317e-05,0
47.562,1.8967e-05,0
47.562,1.561e-05,0
47.563,1.0575e-05,0
47.563,6.2104e-06,0
47.564,3.6927e-06,0
47.564,3.5248e-06,0
47.565,3.5248e-06,0
47.565,5.0355e-06,0
47.566,9.9031e-06,0
47.566,1.6953e-05,0
47.567,2.1988e-05,0
47.567,2.8031e-05,0
47.568,3.3402e-05,0
47.568,3.6088e-05,0
47.569,3.6423e-05,0
47.569,3.0381e-05,0
47.57,1.8631e-05,0
47.57,1.0071e-05,0
47.571,9.2317e-06,0
47.571,1.4603e-05,0
47.572,2.4842e-05,0
47.572,3.6423e-05,0
47.573,4.3305e-05,0
47.573,4.1459e-05,0
47.574,3.6088e-05,0
47.575,3.3906e-05,0
47.575,3.4745e-05,0
47.576,3.743e-05,0
47.576,4.0787e-05,0
47.577,4.4144e-05,0
47.577,5.1194e-05,0
47.578,5.4719e-05,0
47.578,4.9516e-05,0
47.579,3.6591e-05,0
47.579,2.1988e-05,0
47.58,1.2253e-05,0
47.58,1.1414e-05,0
47.581,1.1749e-05,0
47.581,6.3783e-06,0
47.582,-4.0284e-06,0
47.582,-1.2924e-05,0
47.583,-1.561e-05,0
47.583,-1.8967e-05,0
47.584,-2.7863e-05,0
47.584,-4.4144e-05,0
47.585,-6.0426e-05,0
47.585,-6.865e-05,0
47.586,-6.8147e-05,0
47.586,-5.9586e-05,0
47.587,-4.2466e-05,0
47.587,-1.5274e-05,0
47.588,1.4939e-05,0
47.589,3.8605e-05,0
47.589,5.623e-05,0
47.59,6.7643e-05,0
47.59,7.0832e-05,0
47.591,7.0329e-05,0
47.591,7.5029e-05,0
47.592,9.0806e-05,0
47.592,0.00011615,0
47.593,0.00014116,0
47.593,0.00015543,0
47.594,0.00015459,0
47.594,0.00014418,0
47.595,0.00012706,0
47.595,0.00010994,0
47.596,9.4835e-05,0
47.596,7.7043e-05,0
47.597,5.6733e-05,0
47.597,4.0116e-05,0
47.598,2.9877e-05,0
47.598,2.2324e-05,0
47.599,1.1414e-05,0
47.599,-3.357e-07,0
47.6,-6.3783e-06,0
47.6,-5.539e-06,0
47.601,0,0
47.602,1.2085e-05,0
47.602,2.9374e-05,0
47.603,4.5823e-05,0
47.603,5.5222e-05,0
47.604,5.0523e-05,0
47.604,3.4745e-05,0
47.605,1.7121e-05,0
47.605,4.3641e-06,0
47.606,-5.2033e-06,0
47.606,-1.6953e-05,0
47.607,-2.9709e-05,0
47.607,-4.062e-05,0
47.608,-5.0355e-05,0
47.608,-5.3544e-05,0
47.609,-4.8173e-05,0
47.609,-3.6759e-05,0
47.61,-2.2995e-05,0
47.61,-9.2317e-06,0
47.611,1.6785e-06,0
47.611,6.8818e-06,0
47.612,1.1749e-05,0
47.612,2.0981e-05,0
47.613,3.3066e-05,0
47.613,4.0787e-05,0
47.614,3.9109e-05,0
47.614,2.8702e-05,0
47.615,1.5946e-05,0
47.616,5.8747e-06,0
47.616,-8.5603e-06,0
47.617,-3.122e-05,0
47.617,-5.1362e-05,0
47.618,-5.9922e-05,0
47.618,-5.7908e-05,0
47.619,-5.2537e-05,0
47.619,-4.3809e-05,0
47.62,-3.1388e-05,0
47.62,-2.031e-05,0
47.621,-1.6281e-05,0
47.621,-1.2253e-05,0
47.622,1.6785e-07,0
47.622,1.9974e-05,0
47.623,4.062e-05,0
47.623,6.1601e-05,0
47.624,8.3085e-05,0
47.624,0.00010256,0
47.625,0.00011498,0
47.625,0.00011615,0
47.626,0.00010407,0
47.626,8.4932e-05,0
47.627,6.9322e-05,0
47.627,6.1936e-05,0
47.628,5.8579e-05,0
47.629,5.5894e-05,0
47.629,4.8676e-05,0
47.63,3.5416e-05,0
47.63,2.182e-05,0
47.631,1.326e-05,0
47.631,8.5603e-06,0
47.632,5.2033e-06,0
47.632,2.6856e-06,0
47.633,1.8463e-06,0
47.633,-1.6785e-07,0
47.634,-6.8818e-06,0
47.634,-1.6953e-05,0
47.635,-2.9206e-05,0
47.635,-4.1123e-05,0
47.636,-5.3208e-05,0
47.636,-7.4861e-05,0
47.637,-9.8192e-05,0
47.637,-0.00010675,0
47.638,-9.4835e-05,0
47.638,-6.8986e-05,0
47.639,-3.7934e-05,0
47.639,-6.5461e-06,0
47.64,2.031e-05,0
47.64,4.2466e-05,0
47.641,6.3615e-05,0
47.642,8.3925e-05,0
47.642,9.5842e-05,0
47.643,9.752e-05,0
47.643,9.7353e-05,0
47.644,9.9199e-05,0
47.644,9.7856e-05,0
47.645,9.2821e-05,0
47.645,8.4764e-05,0
47.646,6.949e-05,0
47.646,5.0355e-05,0
47.647,3.9109e-05,0
47.647,3.4745e-05,0
47.648,2.8031e-05,0
47.648,1.5442e-05,0
47.649,3.6927e-06,0
47.649,-1.6785e-07,0
47.65,-3.357e-07,0
47.65,-2.8534e-06,0
47.651,-5.539e-06,0
47.651,-5.539e-06,0
47.652,-5.3712e-06,0
47.652,-5.0355e-06,0
47.653,-3.1891e-06,0
47.653,3.357e-07,0
47.654,3.1891e-06,0
47.654,3.8605e-06,0
47.655,8.3925e-06,0
47.656,1.5778e-05,0
47.656,2.0813e-05,0
47.657,2.1317e-05,0
47.657,2.0142e-05,0
47.658,1.7121e-05,0
47.658,1.2253e-05,0
47.659,9.5674e-06,0
47.659,1.1414e-05,0
47.66,1.8296e-05,0
47.66,2.5345e-05,0
47.661,2.7863e-05,0
47.661,2.7359e-05,0
47.662,2.6688e-05,0
47.662,2.7024e-05,0
47.663,2.3331e-05,0
47.663,1.8631e-05,0
47.664,1.7624e-05,0
47.664,1.9638e-05,0
47.665,1.9974e-05,0
47.665,1.6785e-05,0
47.666,1.1582e-05,0
47.666,7.5532e-06,0
47.667,5.3712e-06,0
47.667,2.182e-06,0
47.668,-8.7282e-06,0
47.669,-2.2995e-05,0
47.669,-2.7695e-05,0
47.67,-2.2995e-05,0
47.67,-2.031e-05,0
47.671,-2.4842e-05,0
47.671,-3.1052e-05,0
47.672,-3.1052e-05,0
47.672,-1.8296e-05,0
47.673,2.0142e-06,0
47.673,2.1988e-05,0
47.674,3.9445e-05,0
47.674,5.7237e-05,0
47.675,7.5029e-05,0
47.675,9.2485e-05,0
47.676,0.00010726,0
47.676,0.00011363,0
47.677,0.00010776,0
47.677,9.5506e-05,0
47.678,8.7785e-05,0
47.678,8.9464e-05,0
47.679,9.7185e-05,0
47.679,9.752e-05,0
47.68,8.6442e-05,0
47.68,6.8818e-05,0
47.681,5.2201e-05,0
47.681,3.9109e-05,0
47.682,2.5345e-05,0
47.683,9.3996e-06,0
47.683,-9.3996e-06,0
47.684,-3.0549e-05,0
47.684,-4.9012e-05,0
47.685,-5.8244e-05,0
47.685,-5.7908e-05,0
47.686,-5.2873e-05,0
47.686,-4.8844e-05,0
47.687,-4.1794e-05,0
47.687,-2.9038e-05,0
47.688,-1.3092e-05,0
47.688,1.1749e-06,0
47.689,1.4435e-05,0
47.689,2.6688e-05,0
47.69,3.8437e-05,0
47.69,5.2873e-05,0
47.691,7.0161e-05,0
47.691,8.8121e-05,0
47.692,9.7856e-05,0
47.692,9.1142e-05,0
47.693,7.4189e-05,0
47.693,5.4551e-05,0
47.694,3.3738e-05,0
47.694,1.5946e-05,0
47.695,5.2033e-06,0
47.696,0,0
47.696,-3.6927e-06,0
47.697,-7.7211e-06,0
47.697,-8.896e-06,0
47.698,-6.2104e-06,0
47.698,-2.3499e-06,0
47.699,-8.3925e-07,0
47.699,-6.8818e-06,0
47.7,-1.5442e-05,0
47.7,-1.9303e-05,0
47.701,-1.4939e-05,0
47.701,-4.1962e-06,0
47.702,6.5461e-06,0
47.702,1.4267e-05,0
47.703,1.8967e-05,0
47.703,2.4338e-05,0
47.704,3.1052e-05,0
47.704,3.8773e-05,0
47.705,4.4984e-05,0
47.705,5.0858e-05,0
47.706,5.4887e-05,0
47.706,5.1194e-05,0
47.707,3.4745e-05,0
47.707,1.3931e-05,0
47.708,2.5177e-06,0
47.708,8.5603e-06,0
47.709,2.3331e-05,0
47.71,3.4577e-05,0
47.71,3.827e-05,0
47.711,3.978e-05,0
47.711,4.2466e-05,0
47.712,4.7501e-05,0
47.712,5.2033e-05,0
47.713,4.8844e-05,0
47.713,3.592e-05,0
47.714,1.561e-05,0
47.714,-5.539e-06,0
47.715,-2.0981e-05,0
47.715,-3.3066e-05,0
47.716,-4.4648e-05,0
47.716,-6.0426e-05,0
47.717,-8.2414e-05,0
47.717,-0.00011414,0
47.718,-0.00014737,0
47.718,-0.00016265,0
47.719,-0.00014821,0
47.719,-0.0001133,0
47.72,-7.0497e-05,0
47.72,-3.122e-05,0
47.721,5.539e-06,0
47.721,4.6159e-05,0
47.722,8.9296e-05,0
47.722,0.00013176,0
47.723,0.0001707,0
47.724,0.00019806,0
47.724,0.00021535,0
47.725,0.0002271,0
47.725,0.00022576,0
47.726,0.00020327,0
47.726,0.0001613,0
47.727,0.00011431,0
47.727,7.6539e-05,0
47.728,5.1865e-05,0
47.728,3.3402e-05,0
47.729,1.5946e-05,0
47.729,8.3925e-07,0
47.73,-1.2421e-05,0
47.73,-2.4338e-05,0
47.731,-3.1052e-05,0
47.731,-3.6088e-05,0
47.732,-4.2466e-05,0
47.732,-4.6494e-05,0
47.733,-4.5487e-05,0
47.733,-3.9277e-05,0
47.734,-3.0213e-05,0
47.734,-2.0478e-05,0
47.735,-1.091e-05,0
47.735,-5.0355e-07,0
47.736,8.5603e-06,0
47.737,1.0575e-05,0
47.737,5.8747e-06,0
47.738,3.1891e-06,0
47.738,5.2033e-06,0
47.739,7.2175e-06,0
47.739,1.2085e-05,0
47.74,1.9471e-05,0
47.74,2.4674e-05,0
47.741,2.6352e-05,0
47.741,2.4002e-05,0
47.742,1.9303e-05,0
47.742,1.4771e-05,0
47.743,1.0742e-05,0
47.743,9.5674e-06,0
47.744,9.9031e-06,0
47.744,9.5674e-06,0
47.745,8.5603e-06,0
47.745,-1.6785e-06,0
47.746,-3.0716e-05,0
47.746,-6.1936e-05,0
47.747,-7.5364e-05,0
47.747,-6.9825e-05,0
47.748,-5.2537e-05,0
47.748,-2.7024e-05,0
47.749,3.357e-06,0
47.749,3.2731e-05,0
47.75,5.8244e-05,0
47.751,7.9057e-05,0
47.751,9.4499e-05,0
47.752,0.00010457,0
47.752,0.00010692,0
47.753,0.00010323,0
47.753,9.7856e-05,0
47.754,9.4835e-05,0
47.754,8.9464e-05,0
47.755,7.9057e-05,0
47.755,7.0665e-05,0
47.756,6.6804e-05,0
47.756,6.4118e-05,0
47.757,5.6901e-05,0
47.757,4.3473e-05,0
47.758,2.7359e-05,0
47.758,1.9638e-05,0
47.759,1.9806e-05,0
47.759,1.8967e-05,0
47.76,1.1414e-05,0
47.76,2.5177e-06,0
47.761,-1.6785e-06,0
47.761,-1.8463e-06,0
47.762,-3.8605e-06,0
47.762,-1.0575e-05,0
47.763,-1.8631e-05,0
47.764,-2.5345e-05,0
47.764,-2.8367e-05,0
47.765,-3.0213e-05,0
47.765,-3.5752e-05,0
47.766,-4.2466e-05,0
47.766,-4.8005e-05,0
47.767,-5.0187e-05,0
47.767,-4.9348e-05,0
47.768,-4.4144e-05,0
47.768,-3.4913e-05,0
47.769,-2.1653e-05,0
47.769,-4.3641e-06,0
47.77,1.4771e-05,0
47.77,3.2059e-05,0
47.771,4.8005e-05,0
47.771,5.7908e-05,0
47.772,5.9754e-05,0
47.772,5.5894e-05,0
47.773,4.6662e-05,0
47.773,3.0381e-05,0
47.774,9.5674e-06,0
47.774,-1.2253e-05,0
47.775,-2.8367e-05,0
47.775,-3.1052e-05,0
47.776,-2.3163e-05,0
47.776,-8.3925e-06,0
47.777,1.1749e-05,0
47.778,3.2395e-05,0
47.778,5.0187e-05,0
47.779,6.6972e-05,0
47.779,8.51e-05,0
47.78,0.00010121,0
47.78,0.00011565,0
47.781,0.00012673,0
47.781,0.00012236,0
47.782,0.00010121,0
47.782,7.805e-05,0
47.783,6.5293e-05,0
47.783,6.1936e-05,0
47.784,5.6565e-05,0
47.784,4.6159e-05,0
47.785,3.7766e-05,0
47.785,3.1388e-05,0
47.786,2.501e-05,0
47.786,1.4603e-05,0
47.787,8.3925e-07,0
47.787,-1.0071e-05,0
47.788,-1.2589e-05,0
47.788,-1.091e-05,0
47.789,-9.5674e-06,0
47.789,-1.1917e-05,0
47.79,-1.796e-05,0
47.791,-2.7863e-05,0
47.791,-4.2802e-05,0
47.792,-5.6565e-05,0
47.792,-6.2776e-05,0
47.793,-6.1601e-05,0
47.793,-6.1601e-05,0
47.794,-6.865e-05,0
47.794,-7.7211e-05,0
47.795,-7.7714e-05,0
47.795,-6.8315e-05,0
47.796,-4.9851e-05,0
47.796,-2.4674e-05,0
47.797,2.6856e-06,0
47.797,3.1724e-05,0
47.798,6.1601e-05,0
47.798,8.8457e-05,0
47.799,0.00010692,0
47.799,0.00011514,0
47.8,0.00011464,0
47.8,0.00010994,0
47.801,0.00010407,0
47.801,0.00010222,0
47.802,0.00010323,0
47.802,0.00010188,0
47.803,8.9128e-05,0
47.803,6.1936e-05,0
47.804,2.7695e-05,0
47.805,-1.8463e-06,0
47.805,-1.796e-05,0
47.806,-2.1988e-05,0
47.806,-1.796e-05,0
47.807,-9.5674e-06,0
47.807,2.5177e-06,0
47.808,1.5106e-05,0
47.808,2.6017e-05,0
47.809,3.4409e-05,0
47.809,3.8102e-05,0
47.81,3.6759e-05,0
47.81,3.3402e-05,0
47.811,3.0213e-05,0
47.811,2.6688e-05,0
47.812,2.4674e-05,0
47.812,3.0716e-05,0
47.813,4.7333e-05,0
47.813,7.0329e-05,0
47.814,8.6442e-05,0
47.814,9.1142e-05,0
47.815,8.7114e-05,0
47.815,7.6707e-05,0
47.816,5.8915e-05,0
47.816,4.2466e-05,0
47.817,3.2395e-05,0
47.818,2.1149e-05,0
47.818,2.5177e-06,0
47.819,-1.6785e-05,0
47.819,-3.0549e-05,0
47.82,-3.7766e-05,0
47.82,-4.2466e-05,0
47.821,-4.7166e-05,0
47.821,-5.4047e-05,0
47.822,-6.2943e-05,0
47.822,-6.714e-05,0
47.823,-6.3615e-05,0
47.823,-5.5894e-05,0
47.824,-4.9516e-05,0
47.824,-4.448e-05,0
47.825,-3.5752e-05,0
47.825,-2.5681e-05,0
47.826,-1.796e-05,0
47.826,-1.091e-05,0
47.827,-1.6785e-06,0
47.827,9.0639e-06,0
47.828,1.9638e-05,0
47.828,3.2898e-05,0
47.829,4.3473e-05,0
47.829,4.9516e-05,0
47.83,5.4887e-05,0
47.831,6.2272e-05,0
47.831,6.7308e-05,0
47.832,6.5126e-05,0
47.832,5.1362e-05,0
47.833,3.122e-05,0
47.833,1.1582e-05,0
47.834,-3.6927e-06,0
47.834,-1.0239e-05,0
47.835,-1.0407e-05,0
47.835,-6.5461e-06,0
47.836,-1.0071e-06,0
47.836,6.5461e-06,0
47.837,1.561e-05,0
47.837,2.4842e-05,0
47.838,2.9709e-05,0
47.838,3.3402e-05,0
47.839,4.0452e-05,0
47.839,4.683e-05,0
47.84,4.7501e-05,0
47.84,4.448e-05,0
47.841,4.0284e-05,0
47.841,3.5248e-05,0
47.842,3.3738e-05,0
47.842,3.9109e-05,0
47.843,4.4816e-05,0
47.843,4.4816e-05,0
47.844,4.213e-05,0
47.845,4.0452e-05,0
47.845,4.0787e-05,0
47.846,4.0452e-05,0
47.846,3.6927e-05,0
47.847,2.9374e-05,0
47.847,2.0478e-05,0
47.848,1.5274e-05,0
47.848,2.0645e-05,0
47.849,3.3066e-05,0
47.849,4.6159e-05,0
47.85,4.8844e-05,0
47.85,3.6759e-05,0
47.851,1.6281e-05,0
47.851,-5.539e-06,0
47.852,-2.2324e-05,0
47.852,-3.3066e-05,0
47.853,-3.9109e-05,0
47.853,-3.7766e-05,0
47.854,-2.8534e-05,0
47.854,-1.3596e-05,0
47.855,4.5319e-06,0
47.855,2.3499e-05,0
47.856,4.0452e-05,0
47.856,5.388e-05,0
47.857,6.3615e-05,0
47.858,6.949e-05,0
47.858,7.2343e-05,0
47.859,7.4189e-05,0
47.859,6.8986e-05,0
47.86,4.5151e-05,0
47.86,9.9031e-06,0
47.861,-1.1917e-05,0
47.861,-1.561e-05,0
47.862,-1.7624e-05,0
47.862,-2.2492e-05,0
47.863,-2.6017e-05,0
47.863,-2.2492e-05,0
47.864,-1.2589e-05,0
47.864,8.3925e-07,0
47.865,1.5106e-05,0
47.865,3.2563e-05,0
47.866,4.7837e-05,0
47.866,5.6565e-05,0
47.867,6.4286e-05,0
47.867,7.4861e-05,0
47.868,8.8121e-05,0
47.868,9.9199e-05,0
47.869,9.7688e-05,0
47.869,8.3757e-05,0
47.87,6.5293e-05,0
47.87,4.1962e-05,0
47.871,1.5946e-05,0
47.872,-5.7069e-06,0
47.872,-2.2492e-05,0
47.873,-3.3738e-05,0
47.873,-4.0787e-05,0
47.874,-4.4984e-05,0
47.874,-4.5655e-05,0
47.875,-4.2802e-05,0
47.875,-3.743e-05,0
47.876,-3.1891e-05,0
47.876,-2.8702e-05,0
47.877,-2.9709e-05,0
47.877,-3.5752e-05,0
47.878,-4.3641e-05,0
47.878,-4.6159e-05,0
47.879,-3.9612e-05,0
47.879,-2.5849e-05,0
47.88,-1.3931e-05,0
47.88,-8.5603e-06,0
47.881,-8.3925e-07,0
47.881,1.4771e-05,0
47.882,3.1388e-05,0
47.882,4.7166e-05,0
47.883,6.1433e-05,0
47.883,6.7979e-05,0
47.884,6.8818e-05,0
47.885,7.3686e-05,0
47.885,8.1743e-05,0
47.886,8.1743e-05,0
47.886,6.8482e-05,0
47.887,5.5558e-05,0
47.887,6.009e-05,0
47.888,8.0232e-05,0
47.888,9.7856e-05,0
47.889,0.0001039,0
47.889,0.00010373,0
47.89,0.00010457,0
47.89,0.0001044,0
47.891,9.5003e-05,0
47.891,7.7714e-05,0
47.892,6.1936e-05,0
47.892,5.2873e-05,0
47.893,4.7333e-05,0
47.893,4.0116e-05,0
47.894,3.0381e-05,0
47.894,1.6617e-05,0
47.895,-8.3925e-07,0
47.895,-1.5106e-05,0
47.896,-2.031e-05,0
47.896,-1.7792e-05,0
47.897,-1.326e-05,0
47.897,-1.1582e-05,0
47.898,-1.5274e-05,0
47.899,-2.4002e-05,0
47.899,-3.6759e-05,0
47.9,-5.2201e-05,0
47.9,-6.2272e-05,0
47.901,-6.1769e-05,0
47.901,-5.6062e-05,0
47.902,-4.8508e-05,0
47.902,-3.8437e-05,0
47.903,-2.8367e-05,0
47.903,-2.5345e-05,0
47.904,-2.8702e-05,0
47.904,-3.1891e-05,0
47.905,-2.5177e-05,0
47.905,-6.8818e-06,0
47.906,1.5274e-05,0
47.906,3.2898e-05,0
47.907,4.2802e-05,0
47.907,4.5487e-05,0
47.908,4.448e-05,0
47.908,4.4816e-05,0
47.909,4.3977e-05,0
47.909,3.978e-05,0
47.91,3.122e-05,0
47.91,2.266e-05,0
47.911,1.7121e-05,0
47.911,1.2421e-05,0
47.912,9.9031e-06,0
47.913,1.1414e-05,0
47.913,1.561e-05,0
47.914,1.796e-05,0
47.914,1.8967e-05,0
47.915,2.4674e-05,0
47.915,3.508e-05,0
47.916,4.213e-05,0
47.916,4.0787e-05,0
47.917,3.8437e-05,0
47.917,4.1627e-05,0
47.918,5.0858e-05,0
47.918,5.7572e-05,0
47.919,5.5558e-05,0
47.919,4.683e-05,0
47.92,3.9948e-05,0
47.92,3.4073e-05,0
47.921,2.031e-05,0
47.921,-2.3499e-06,0
47.922,-2.266e-05,0
47.922,-3.3402e-05,0
47.923,-3.5752e-05,0
47.923,-3.3738e-05,0
47.924,-2.5513e-05,0
47.924,-1.4267e-05,0
47.925,-3.0213e-06,0
47.926,3.1891e-06,0
47.926,3.357e-06,0
47.927,1.6785e-06,0
47.927,1.5106e-06,0
47.928,5.8747e-06,0
47.928,1.3596e-05,0
47.929,2.9374e-05,0
47.929,5.1194e-05,0
47.93,7.0329e-05,0
47.93,7.6707e-05,0
47.931,6.1936e-05,0
47.931,3.3402e-05,0
47.932,7.8889e-06,0
47.932,-4.1962e-06,0
47.933,-1.6785e-06,0
47.933,1.1917e-05,0
47.934,2.9877e-05,0
47.934,4.3305e-05,0
47.935,4.5487e-05,0
47.935,4.1123e-05,0
47.936,3.6088e-05,0
47.936,3.508e-05,0
47.937,3.9445e-05,0
47.937,4.2466e-05,0
47.938,3.8102e-05,0
47.938,3.0045e-05,0
47.939,3.2898e-05,0
47.94,4.8508e-05,0
47.94,6.4286e-05,0
47.941,6.949e-05,0
47.941,6.2104e-05,0
47.942,5.2201e-05,0
47.942,4.6159e-05,0
47.943,4.3473e-05,0
47.943,4.1459e-05,0
47.944,3.827e-05,0
47.944,2.7192e-05,0
47.945,1.1749e-06,0
47.945,-3.7095e-05,0
47.946,-7.1336e-05,0
47.946,-9.2317e-05,0
47.947,-9.9702e-05,0
47.947,-9.3828e-05,0
47.948,-7.9896e-05,0
47.948,-6.7308e-05,0
47.949,-5.6901e-05,0
47.949,-4.1123e-05,0
47.95,-1.6785e-05,0
47.95,1.326e-05,0
47.951,4.4144e-05,0
47.951,6.9657e-05,0
47.952,8.7449e-05,0
47.953,0.00010256,0
47.953,0.00011733,0
47.954,0.00012203,0
47.954,0.00010793,0
47.955,8.1743e-05,0
47.955,5.6901e-05,0
47.956,3.6088e-05,0
47.956,1.6953e-05,0
47.957,2.8534e-06,0
47.957,-5.0355e-06,0
47.958,-6.3783e-06,0
47.958,-1.0071e-06,0
47.959,6.5461e-06,0
47.959,6.3783e-06,0
47.96,6.3783e-06,0
47.96,1.6449e-05,0
47.961,3.4913e-05,0
47.961,5.5558e-05,0
47.962,7.1e-05,0
47.962,8.2078e-05,0
47.963,9.0135e-05,0
47.963,9.1142e-05,0
47.964,8.7617e-05,0
47.964,8.275e-05,0
47.965,7.3518e-05,0
47.965,5.4887e-05,0
47.966,3.3738e-05,0
47.967,1.4939e-05,0
47.967,1.6785e-07,0
47.968,-1.1749e-05,0
47.968,-2.1317e-05,0
47.969,-2.5177e-05,0
47.969,-2.0813e-05,0
47.97,-6.3783e-06,0
47.97,1.3764e-05,0
47.971,2.9038e-05,0
47.971,3.6759e-05,0
47.972,4.3809e-05,0
47.972,5.0187e-05,0
47.973,5.4383e-05,0
47.973,5.5726e-05,0
47.974,5.623e-05,0
47.974,5.8915e-05,0
47.975,6.1265e-05,0
47.975,5.2873e-05,0
47.976,3.0884e-05,0
47.976,2.8534e-06,0
47.977,-2.1149e-05,0
47.977,-3.508e-05,0
47.978,-3.9445e-05,0
47.978,-3.8437e-05,0
47.979,-3.6423e-05,0
47.98,-3.7095e-05,0
47.98,-4.1627e-05,0
47.981,-4.2802e-05,0
47.981,-3.8437e-05,0
47.982,-3.122e-05,0
47.982,-2.3667e-05,0
47.983,-1.6449e-05,0
47.983,-1.1917e-05,0
47.984,-8.3925e-06,0
47.984,-2.5177e-06,0
47.985,5.539e-06,0
47.985,1.0575e-05,0
47.986,1.0239e-05,0
47.986,6.5461e-06,0
47.987,5.2033e-06,0
47.987,7.3854e-06,0
47.988,1.1078e-05,0
47.988,1.0575e-05,0
47.989,3.6927e-06,0
47.989,-5.7069e-06,0
47.99,-1.0575e-05,0
47.99,-1.091e-05,0
47.991,-1.0239e-05,0
47.991,-7.0497e-06,0
47.992,-3.0213e-06,0
47.992,1.6785e-07,0
47.993,2.0142e-06,0
47.994,4.0284e-06,0
47.994,8.2246e-06,0
47.995,1.2757e-05,0
47.995,1.4939e-05,0
47.996,1.5274e-05,0
47.996,1.6617e-05,0
47.997,1.8967e-05,0
47.997,2.3331e-05,0
47.998,2.8199e-05,0
47.998,3.0045e-05,0
47.999,2.8199e-05,0
47.999,2.7527e-05,0
48,3.3066e-05,0
48,4.3137e-05,0
48.001,4.7166e-05,0
48.001,3.4073e-05,0
48.002,1.6953e-05,0
48.002,8.896e-06,0
48.003,7.5532e-06,0
48.003,1.2421e-05,0
48.004,2.2995e-05,0
48.004,3.6759e-05,0
48.005,4.9851e-05,0
48.005,5.8244e-05,0
48.006,6.3447e-05,0
48.007,6.8986e-05,0
48.007,7.2343e-05,0
48.008,7.0665e-05,0
48.008,6.6972e-05,0
48.009,6.4286e-05,0
48.009,5.774e-05,0
48.01,4.3809e-05,0
48.01,2.5849e-05,0
48.011,9.3996e-06,0
48.011,5.0355e-07,0
48.012,-1.5106e-06,0
48.012,-2.6856e-06,0
48.013,-1.8463e-06,0
48.013,8.3925e-07,0
48.014,7.0497e-06,0
48.014,1.561e-05,0
48.015,2.2324e-05,0
48.015,2.266e-05,0
48.016,9.2317e-06,0
48.016,-1.6281e-05,0
48.017,-3.827e-05,0
48.017,-4.448e-05,0
48.018,-3.7766e-05,0
48.018,-2.4338e-05,0
48.019,-1.0742e-05,0
48.02,6.714e-07,0
48.02,1.5442e-05,0
48.021,3.6927e-05,0
48.021,6.1601e-05,0
48.022,8.2078e-05,0
48.022,9.601e-05,0
48.023,0.00010323,0
48.023,9.8192e-05,0
48.024,7.57e-05,0
48.024,4.2802e-05,0
48.025,1.796e-05,0
48.025,1.0239e-05,0
48.026,8.7282e-06,0
48.026,2.8534e-06,0
48.027,-1.8463e-06,0
48.027,7.8889e-06,0
48.028,3.2731e-05,0
48.028,5.8244e-05,0
48.029,7.4357e-05,0
48.029,8.0735e-05,0
48.03,8.275e-05,0
48.03,8.4764e-05,0
48.031,8.4596e-05,0
48.031,8.3757e-05,0
48.032,7.8386e-05,0
48.032,6.4622e-05,0
48.033,4.4816e-05,0
48.034,3.0716e-05,0
48.034,2.8031e-05,0
48.035,2.8534e-05,0
48.035,2.266e-05,0
48.036,1.1246e-05,0
48.036,3.6927e-06,0
48.037,5.2033e-06,0
48.037,4.1962e-06,0
48.038,-1.8463e-06,0
48.038,-4.1962e-06,0
48.039,1.6785e-07,0
48.039,8.896e-06,0
48.04,1.8296e-05,0
48.04,2.4506e-05,0
48.041,2.1317e-05,0
48.041,4.8676e-06,0
48.042,-1.1078e-05,0
48.042,-1.6281e-05,0
48.043,-2.031e-05,0
48.043,-3.8102e-05,0
48.044,-7.1839e-05,0
48.044,-0.00010558,0
48.045,-0.00012219,0
48.045,-0.00011951,0
48.046,-0.00010591,0
48.047,-8.5603e-05,0
48.047,-6.3279e-05,0
48.048,-5.1865e-05,0
48.048,-5.9083e-05,0
48.049,-6.7308e-05,0
48.049,-5.2537e-05,0
48.05,-1.5442e-05,0
48.05,2.8031e-05,0
48.051,6.0594e-05,0
48.051,8.275e-05,0
48.052,0.00010574,0
48.052,0.00012807,0
48.053,0.00013747,0
48.053,0.00013344,0
48.054,0.00012975,0
48.054,0.0001326,0
48.055,0.00013747,0
48.055,0.00014083,0
48.056,0.0001415,0
48.056,0.00013344,0
48.057,0.00011531,0
48.057,9.0135e-05,0
48.058,6.4286e-05,0
48.058,4.0787e-05,0
48.059,2.1317e-05,0
48.059,7.5532e-06,0
48.06,-3.0213e-06,0
48.061,-1.2924e-05,0
48.061,-2.1653e-05,0
48.062,-2.9877e-05,0
48.062,-3.8102e-05,0
48.063,-4.5655e-05,0
48.063,-5.1865e-05,0
48.064,-5.2033e-05,0
48.064,-4.8676e-05,0
48.065,-4.7837e-05,0
48.065,-4.8508e-05,0
48.066,-4.8508e-05,0
48.066,-4.4648e-05,0
48.067,-3.6927e-05,0
48.067,-2.3835e-05,0
48.068,-8.2246e-06,0
48.068,5.0355e-06,0
48.069,1.1917e-05,0
48.069,1.5946e-05,0
48.07,2.0478e-05,0
48.07,2.8031e-05,0
48.071,3.8437e-05,0
48.071,4.6159e-05,0
48.072,4.7837e-05,0
48.072,4.9348e-05,0
48.073,5.388e-05,0
48.074,5.7069e-05,0
48.074,5.4551e-05,0
48.075,4.7501e-05,0
48.075,3.9612e-05,0
48.076,3.7263e-05,0
48.076,4.0116e-05,0
48.077,4.3977e-05,0
48.077,4.7166e-05,0
48.078,5.1194e-05,0
48.078,5.1698e-05,0
48.079,4.6159e-05,0
48.079,3.8437e-05,0
48.08,3.2395e-05,0
48.08,2.887e-05,0
48.081,2.4338e-05,0
48.081,2.0142e-05,0
48.082,1.2589e-05,0
48.082,-3.1891e-06,0
48.083,-2.1653e-05,0
48.083,-3.7766e-05,0
48.084,-5.4551e-05,0
48.084,-7.6036e-05,0
48.085,-9.6178e-05,0
48.085,-0.00010306,0
48.086,-9.2821e-05,0
48.086,-7.0161e-05,0
48.087,-4.1627e-05,0
48.088,-1.3931e-05,0
48.088,1.0575e-05,0
48.089,3.5752e-05,0
48.089,6.3447e-05,0
48.09,8.6946e-05,0
48.09,0.00010188,0
48.091,0.00010994,0
48.091,0.00011666,0
48.092,0.00012505,0
48.092,0.00012807,0
48.093,0.00011867,0
48.093,9.987e-05,0
48.094,8.04e-05,0
48.094,6.3783e-05,0
48.095,5.1194e-05,0
48.095,4.062e-05,0
48.096,2.6184e-05,0
48.096,1.0239e-05,0
48.097,-4.8676e-06,0
48.097,-1.8967e-05,0
48.098,-2.6688e-05,0
48.098,-2.5681e-05,0
48.099,-2.266e-05,0
48.099,-2.2324e-05,0
48.1,-2.1485e-05,0
48.1,-1.5778e-05,0
48.101,-5.539e-06,0
48.102,1.6785e-06,0
48.102,5.3712e-06,0
48.103,9.5674e-06,0
48.103,1.5106e-05,0
48.104,1.9806e-05,0
48.104,2.1653e-05,0
48.105,2.2324e-05,0
48.105,2.417e-05,0
48.106,2.501e-05,0
48.106,2.266e-05,0
48.107,1.9974e-05,0
48.107,1.3764e-05,0
48.108,2.182e-06,0
48.108,-8.896e-06,0
48.109,-1.6281e-05,0
48.109,-2.1988e-05,0
48.11,-2.7527e-05,0
48.11,-2.9709e-05,0
48.111,-2.3163e-05,0
48.111,-9.9031e-06,0
48.112,5.2033e-06,0
48.112,2.0478e-05,0
48.113,3.4745e-05,0
48.113,4.5823e-05,0
48.114,4.8844e-05,0
48.115,4.5655e-05,0
48.115,4.4816e-05,0
48.116,4.8173e-05,0
48.116,5.1194e-05,0
48.117,5.0858e-05,0
48.117,5.2537e-05,0
48.118,5.8915e-05,0
48.118,6.7979e-05,0
48.119,7.3686e-05,0
48.119,7.1168e-05,0
48.12,5.8915e-05,0
48.12,4.1291e-05,0
48.121,2.3163e-05,0
48.121,9.2317e-06,0
48.122,8.3925e-07,0
48.122,-7.8889e-06,0
48.123,-1.6281e-05,0
48.123,-1.6953e-05,0
48.124,-1.0239e-05,0
48.124,-3.0213e-06,0
48.125,-1.8463e-06,0
48.125,-6.5461e-06,0
48.126,-1.1749e-05,0
48.126,-1.5946e-05,0
48.127,-1.8967e-05,0
48.127,-1.8799e-05,0
48.128,-1.3596e-05,0
48.129,-2.5177e-06,0
48.129,8.896e-06,0
48.13,1.5946e-05,0
48.13,1.7288e-05,0
48.131,1.7624e-05,0
48.131,2.3667e-05,0
48.132,3.4745e-05,0
48.132,4.7501e-05,0
48.133,5.9586e-05,0
48.133,7.2343e-05,0
48.134,8.6275e-05,0
48.134,9.6849e-05,0
48.135,9.7856e-05,0
48.135,9.2821e-05,0
48.136,8.896e-05,0
48.136,9.0974e-05,0
48.137,8.8792e-05,0
48.137,7.3686e-05,0
48.138,4.8173e-05,0
48.138,2.3835e-05,0
48.139,6.0426e-06,0
48.139,-2.6856e-06,0
48.14,-2.8534e-06,0
48.14,-3.357e-07,0
48.141,2.5177e-06,0
48.142,6.2104e-06,0
48.142,1.0071e-05,0
48.143,1.7288e-05,0
48.143,2.6352e-05,0
48.144,2.887e-05,0
48.144,2.5345e-05,0
48.145,2.3499e-05,0
48.145,2.4674e-05,0
48.146,2.501e-05,0
48.146,1.8967e-05,0
48.147,7.3854e-06,0
48.147,-1.6785e-06,0
48.148,-4.8676e-06,0
48.148,-4.8676e-06,0
48.149,-4.5319e-06,0
48.149,-4.5319e-06,0
48.15,-5.539e-06,0
48.15,-5.8747e-06,0
48.151,-7.3854e-06,0
48.151,-1.5274e-05,0
48.152,-3.5584e-05,0
48.152,-6.7308e-05,0
48.153,-9.4499e-05,0
48.153,-0.00010507,0
48.154,-0.00010054,0
48.154,-8.7953e-05,0
48.155,-7.0665e-05,0
48.156,-5.3376e-05,0
48.156,-3.5752e-05,0
48.157,-1.4603e-05,0
48.157,1.1246e-05,0
48.158,4.1459e-05,0
48.158,7.1e-05,0
48.159,9.7185e-05,0
48.159,0.00012337,0
48.16,0.00014754,0
48.16,0.00016349,0
48.161,0.00016735,0
48.161,0.00015811,0
48.162,0.00013747,0
48.162,0.00011028,0
48.163,7.9728e-05,0
48.163,4.683e-05,0
48.164,1.5946e-05,0
48.164,-5.8747e-06,0
48.165,-1.4939e-05,0
48.165,-1.326e-05,0
48.166,-6.2104e-06,0
48.166,3.8605e-06,0
48.167,1.6953e-05,0
48.167,2.9038e-05,0
48.168,3.122e-05,0
48.169,1.3931e-05,0
48.169,-1.3092e-05,0
48.17,-3.0045e-05,0
48.17,-3.1891e-05,0
48.171,-2.9206e-05,0
48.171,-3.0381e-05,0
48.172,-3.2059e-05,0
48.172,-2.9206e-05,0
48.173,-1.9974e-05,0
48.173,-7.2175e-06,0
48.174,5.2033e-06,0
48.174,1.4771e-05,0
48.175,2.0981e-05,0
48.175,2.8534e-05,0
48.176,4.0116e-05,0
48.176,5.153e-05,0
48.177,5.623e-05,0
48.177,5.153e-05,0
48.178,3.9109e-05,0
48.178,2.4842e-05,0
48.179,1.8631e-05,0
48.179,2.0645e-05,0
48.18,2.6688e-05,0
48.18,3.122e-05,0
48.181,3.2059e-05,0
48.181,2.6352e-05,0
48.182,8.7282e-06,0
48.183,-1.3596e-05,0
48.183,-2.6352e-05,0
48.184,-2.8367e-05,0
48.184,-2.2828e-05,0
48.185,-1.2589e-05,0
48.185,4.3641e-06,0
48.186,2.3835e-05,0
48.186,3.743e-05,0
48.187,4.213e-05,0
48.187,3.8102e-05,0
48.188,2.9038e-05,0
48.188,1.8463e-05,0
48.189,7.8889e-06,0
48.189,3.8605e-06,0
48.19,1.1917e-05,0
48.19,2.501e-05,0
48.191,3.5584e-05,0
48.191,4.0116e-05,0
48.192,3.592e-05,0
48.192,2.4002e-05,0
48.193,8.896e-06,0
48.193,-1.6785e-06,0
48.194,-4.3641e-06,0
48.194,-5.0355e-07,0
48.195,4.1962e-06,0
48.196,1.1582e-05,0
48.196,2.031e-05,0
48.197,2.2324e-05,0
48.197,1.9303e-05,0
48.198,1.5946e-05,0
48.198,1.4603e-05,0
48.199,1.7121e-05,0
48.199,2.3667e-05,0
48.2,3.4745e-05,0
48.2,4.6159e-05,0
48.201,5.2033e-05,0
48.201,5.388e-05,0
48.202,5.0858e-05,0
48.202,3.7934e-05,0
48.203,1.1917e-05,0
48.203,-2.8031e-05,0
48.204,-7.0665e-05,0
48.204,-9.987e-05,0
48.205,-0.00010289,0
48.205,-8.426e-05,0
48.206,-5.9586e-05,0
48.206,-4.1123e-05,0
48.207,-3.3906e-05,0
48.207,-3.8941e-05,0
48.208,-4.8005e-05,0
48.209,-4.4648e-05,0
48.209,-1.3764e-05,0
48.21,3.9445e-05,0
48.21,0.00010071,0
48.211,0.00015425,0
48.211,0.00018514,0
48.212,0.00019789,0
48.212,0.00020562,0
48.213,0.00021166,0
48.213,0.00020897,0
48.214,0.00019689,0
48.214,0.00018531,0
48.215,0.00018379,0
48.215,0.00019017,0
48.216,0.00018447,0
48.216,0.00015425,0
48.217,0.00011128,0
48.217,7.1e-05,0
48.218,4.1123e-05,0
48.218,1.6785e-05,0
48.219,-5.539e-06,0
48.219,-2.5345e-05,0
48.22,-3.9948e-05,0
48.22,-4.5991e-05,0
48.221,-4.7166e-05,0
48.221,-4.6662e-05,0
48.222,-4.7501e-05,0
48.223,-4.9516e-05,0
48.223,-5.1362e-05,0
48.224,-5.3208e-05,0
48.224,-5.4551e-05,0
48.225,-5.4887e-05,0
48.225,-5.2033e-05,0
48.226,-4.9348e-05,0
48.226,-4.5823e-05,0
48.227,-4.1291e-05,0
48.227,-3.978e-05,0
48.228,-4.448e-05,0
48.228,-5.3208e-05,0
48.229,-6.1097e-05,0
48.229,-6.7979e-05,0
48.23,-7.1336e-05,0
48.23,-7.0329e-05,0
48.231,-6.479e-05,0
48.231,-5.7237e-05,0
48.232,-5.0523e-05,0
48.232,-4.4144e-05,0
48.233,-3.4913e-05,0
48.233,-1.9974e-05,0
48.234,-1.6785e-07,0
48.234,1.7792e-05,0
48.235,2.7695e-05,0
48.236,3.2059e-05,0
48.236,3.8437e-05,0
48.237,4.9851e-05,0
48.237,6.2943e-05,0
48.238,6.9657e-05,0
48.238,6.5629e-05,0
48.239,5.8076e-05,0
48.239,5.4887e-05,0
48.24,5.4887e-05,0
48.24,5.304e-05,0
48.241,4.8173e-05,0
48.241,4.1459e-05,0
48.242,3.4073e-05,0
48.242,3.0716e-05,0
48.243,2.7863e-05,0
48.243,2.4674e-05,0
48.244,2.266e-05,0
48.244,2.2995e-05,0
48.245,2.4002e-05,0
48.245,2.2995e-05,0
48.246,1.9974e-05,0
48.246,1.5946e-05,0
48.247,1.3596e-05,0
48.247,1.4603e-05,0
48.248,1.6953e-05,0
48.248,1.6281e-05,0
48.249,1.3931e-05,0
48.25,1.3092e-05,0
48.25,1.2421e-05,0
48.251,6.8818e-06,0
48.251,-4.8676e-06,0
48.252,-1.8631e-05,0
48.252,-2.8702e-05,0
48.253,-3.0381e-05,0
48.253,-2.4506e-05,0
48.254,-1.6281e-05,0
48.254,-1.3596e-05,0
48.255,-1.7792e-05,0
48.255,-2.4002e-05,0
48.256,-2.8199e-05,0
48.256,-2.9038e-05,0
48.257,-2.3331e-05,0
48.257,-6.8818e-06,0
48.258,2.0981e-05,0
48.258,5.2201e-05,0
48.259,8.0903e-05,0
48.259,0.00010239,0
48.26,0.00011313,0
48.26,0.00010877,0
48.261,8.5771e-05,0
48.261,5.5558e-05,0
48.262,3.743e-05,0
48.263,3.8773e-05,0
48.263,4.9516e-05,0
48.264,5.8915e-05,0
48.264,6.1265e-05,0
48.265,5.6565e-05,0
48.265,5.0187e-05,0
48.266,4.7166e-05,0
48.266,5.0858e-05,0
48.267,6.0594e-05,0
48.267,6.9657e-05,0
48.268,7.3014e-05,0
48.268,7.6707e-05,0
48.269,8.3589e-05,0
48.269,8.8289e-05,0
48.27,8.8457e-05,0
48.27,8.6275e-05,0
48.271,8.2414e-05,0
48.271,7.1672e-05,0
48.272,5.3544e-05,0
48.272,3.0213e-05,0
48.273,7.2175e-06,0
48.273,-1.4603e-05,0
48.274,-3.7263e-05,0
48.274,-6.2104e-05,0
48.275,-8.3421e-05,0
48.275,-9.3996e-05,0
48.276,-9.1814e-05,0
48.277,-8.4428e-05,0
48.277,-7.6204e-05,0
48.278,-6.3951e-05,0
48.278,-4.4648e-05,0
48.279,-2.182e-05,0
48.279,-5.0355e-07,0
48.28,2.1317e-05,0
48.28,4.7166e-05,0
48.281,7.3014e-05,0
48.281,9.1646e-05,0
48.282,0.00010188,0
48.282,0.00010457,0
48.283,0.00010188,0
48.283,9.2653e-05,0
48.284,7.3686e-05,0
48.284,4.9516e-05,0
48.285,2.9038e-05,0
48.285,1.561e-05,0
48.286,5.2033e-06,0
48.286,-5.2033e-06,0
48.287,-1.326e-05,0
48.287,-1.5274e-05,0
48.288,-1.0071e-05,0
48.288,-1.0071e-06,0
48.289,9.3996e-06,0
48.289,1.9806e-05,0
48.29,2.8367e-05,0
48.291,3.122e-05,0
48.291,2.8702e-05,0
48.292,2.6856e-05,0
48.292,2.7527e-05,0
48.293,2.9038e-05,0
48.293,2.8031e-05,0
48.294,1.8631e-05,0
48.294,2.5177e-06,0
48.295,-1.2253e-05,0
48.295,-1.8631e-05,0
48.296,-1.7121e-05,0
48.296,-1.2253e-05,0
48.297,-1.0407e-05,0
48.297,-1.561e-05,0
48.298,-2.6688e-05,0
48.298,-4.3977e-05,0
48.299,-5.7069e-05,0
48.299,-5.7572e-05,0
48.3,-5.1194e-05,0
48.3,-4.2802e-05,0
48.301,-3.2898e-05,0
48.301,-2.5849e-05,0
48.302,-2.6352e-05,0
48.302,-3.2395e-05,0
48.303,-3.0213e-05,0
48.304,-1.561e-05,0
48.304,5.8747e-06,0
48.305,3.3066e-05,0
48.305,6.1601e-05,0
48.306,8.8121e-05,0
48.306,0.00010726,0
48.307,0.00011615,0
48.307,0.00011498,0
48.308,0.00011179,0
48.308,0.00011363,0
48.309,0.00011682,0
48.309,0.00011447,0
48.31,0.00010373,0
48.31,8.8457e-05,0
48.311,7.3014e-05,0
48.311,6.0258e-05,0
48.312,5.0187e-05,0
48.312,4.1627e-05,0
48.313,3.4577e-05,0
48.313,2.2324e-05,0
48.314,-5.539e-06,0
48.314,-4.1794e-05,0
48.315,-6.7308e-05,0
48.315,-6.7308e-05,0
48.316,-4.8508e-05,0
48.316,-2.3667e-05,0
48.317,-2.3499e-06,0
48.318,1.6785e-05,0
48.318,3.4745e-05,0
48.319,5.0858e-05,0
48.319,6.2943e-05,0
48.32,6.7979e-05,0
48.32,6.6636e-05,0
48.321,6.1265e-05,0
48.321,5.3544e-05,0
48.322,4.7837e-05,0
48.322,4.0452e-05,0
48.323,2.5681e-05,0
48.323,7.3854e-06,0
48.324,-1.0239e-05,0
48.324,-2.6017e-05,0
48.325,-3.7095e-05,0
48.325,-3.8437e-05,0
48.326,-3.1891e-05,0
48.326,-2.2995e-05,0
48.327,-1.4771e-05,0
48.327,-9.0639e-06,0
48.328,-5.7069e-06,0
48.328,0,0
48.329,9.7353e-06,0
48.329,2.1653e-05,0
48.33,3.1388e-05,0
48.331,3.3738e-05,0
48.331,2.9374e-05,0
48.332,2.501e-05,0
48.332,2.2995e-05,0
48.333,2.266e-05,0
48.333,2.2324e-05,0
48.334,1.9974e-05,0
48.334,1.6953e-05,0
48.335,1.4435e-05,0
48.335,8.3925e-06,0
48.336,-8.3925e-07,0
48.336,-6.714e-06,0
48.337,-6.8818e-06,0
48.337,-5.8747e-06,0
48.338,-5.539e-06,0
48.338,-5.2033e-06,0
48.339,-6.3783e-06,0
48.339,-8.2246e-06,0
48.34,-8.3925e-06,0
48.34,-4.8676e-06,0
48.341,4.1962e-06,0
48.341,1.2924e-05,0
48.342,1.5442e-05,0
48.342,1.5946e-05,0
48.343,1.8631e-05,0
48.343,2.3331e-05,0
48.344,2.6688e-05,0
48.345,2.8702e-05,0
48.345,3.0045e-05,0
48.346,3.2059e-05,0
48.346,3.3402e-05,0
48.347,3.3738e-05,0
48.347,3.3402e-05,0
48.348,3.0549e-05,0
48.348,2.417e-05,0
48.349,1.8128e-05,0
48.349,1.3931e-05,0
48.35,9.2317e-06,0
48.35,6.3783e-06,0
48.351,3.1891e-06,0
48.351,-1.091e-05,0
48.352,-4.0284e-05,0
48.352,-6.6972e-05,0
48.353,-7.2679e-05,0
48.353,-5.9251e-05,0
48.354,-4.1627e-05,0
48.354,-2.2995e-05,0
48.355,-3.357e-06,0
48.355,1.4939e-05,0
48.356,2.6688e-05,0
48.356,3.122e-05,0
48.357,3.5752e-05,0
48.358,4.4144e-05,0
48.358,5.3544e-05,0
48.359,6.2272e-05,0
48.359,7.3182e-05,0
48.36,8.51e-05,0
48.36,9.0471e-05,0
48.361,8.661e-05,0
48.361,8.04e-05,0
48.362,7.9393e-05,0
48.362,8.1407e-05,0
48.363,8.6778e-05,0
48.363,9.5842e-05,0
48.364,0.00010591,0
48.364,0.00011128,0
48.365,0.00010558,0
48.365,9.2821e-05,0
48.366,8.04e-05,0
48.366,6.9657e-05,0
48.367,5.8076e-05,0
48.367,4.5487e-05,0
48.368,2.887e-05,0
48.368,1.1582e-05,0
48.369,-1.8463e-06,0
48.369,-7.5532e-06,0
48.37,-7.2175e-06,0
48.37,-2.8534e-06,0
48.371,2.5177e-06,0
48.372,7.8889e-06,0
48.372,1.2085e-05,0
48.373,1.6281e-05,0
48.373,2.266e-05,0
48.374,3.1052e-05,0
48.374,3.743e-05,0
48.375,3.743e-05,0
48.375,3.2059e-05,0
48.376,2.3499e-05,0
48.376,1.1917e-05,0
48.377,-1.6785e-07,0
48.377,-8.7282e-06,0
48.378,-1.1582e-05,0
48.378,-8.7282e-06,0
48.379,-2.182e-06,0
48.379,4.8676e-06,0
48.38,8.2246e-06,0
48.38,7.7211e-06,0
48.381,5.8747e-06,0
48.381,1.5106e-06,0
48.382,-8.0568e-06,0
48.382,-2.031e-05,0
48.383,-3.4409e-05,0
48.383,-4.6326e-05,0
48.384,-5.1194e-05,0
48.385,-4.6494e-05,0
48.385,-3.7766e-05,0
48.386,-3.1052e-05,0
48.386,-3.0549e-05,0
48.387,-2.9709e-05,0
48.387,-2.0813e-05,0
48.388,-9.2317e-06,0
48.388,-2.6856e-06,0
48.389,3.6927e-06,0
48.389,1.4267e-05,0
48.39,2.7863e-05,0
48.39,3.6759e-05,0
48.391,3.9612e-05,0
48.391,4.6494e-05,0
48.392,5.9251e-05,0
48.392,6.3783e-05,0
48.393,4.9851e-05,0
48.393,2.182e-05,0
48.394,-1.8463e-06,0
48.394,-7.0497e-06,0
48.395,1.8463e-06,0
48.395,1.6449e-05,0
48.396,3.3402e-05,0
48.396,4.8676e-05,0
48.397,6.2943e-05,0
48.398,7.6875e-05,0
48.398,8.9464e-05,0
48.399,9.836e-05,0
