5.5771,-1.8967e-05,0
5.5776,-5.7069e-06,0
5.5781,9.0639e-06,0
5.5786,6.3783e-06,0
5.5791,-1.7792e-05,0
5.5797,-4.448e-05,0
5.5802,-6.5126e-05,0
5.5807,-8.4932e-05,0
5.5812,-0.00010289,0
5.5817,-0.0001044,0
5.5823,-8.51e-05,0
5.5828,-6.1601e-05,0
5.5833,-3.4241e-05,0
5.5838,7.5532e-06,0
5.5843,5.6733e-05,0
5.5848,9.6178e-05,0
5.5854,0.00012605,0
5.5859,0.00015325,0
5.5864,0.00016835,0
5.5869,0.0001566,0
5.5874,0.0001138,0
5.588,5.6733e-05,0
5.5885,1.0575e-05,0
5.589,-1.9974e-05,0
5.5895,-5.388e-05,0
5.59,-9.2485e-05,0
5.5906,-0.00012068,0
5.5911,-0.00013663,0
5.5916,-0.00014066,0
5.5921,-0.00012908,0
5.5926,-0.00010205,0
5.5932,-6.0594e-05,0
5.5937,-1.5274e-05,0
5.5942,3.1556e-05,0
5.5947,8.3421e-05,0
5.5952,0.00013075,0
5.5957,0.00015761,0
5.5963,0.000165,0
5.5968,0.00016332,0
5.5973,0.00015795,0
5.5978,0.0001467,0
5.5983,0.000118,0
5.5989,7.4357e-05,0
5.5994,3.0045e-05,0
5.5999,1.1749e-06,0
5.6004,-5.539e-06,0
5.6009,2.3499e-06,0
5.6015,1.6785e-05,0
5.602,3.3402e-05,0
5.6025,4.2802e-05,0
5.603,3.508e-05,0
5.6035,1.3596e-05,0
5.6041,-3.5248e-06,0
5.6046,-1.091e-05,0
5.6051,-1.5946e-05,0
5.6056,-3.0549e-05,0
5.6061,-5.7404e-05,0
5.6067,-8.0735e-05,0
5.6072,-8.4764e-05,0
5.6077,-7.335e-05,0
5.6082,-6.63e-05,0
5.6087,-7.335e-05,0
5.6093,-8.2246e-05,0
5.6098,-7.3014e-05,0
5.6103,-4.0787e-05,0
5.6108,3.6927e-06,0
5.6113,4.4648e-05,0
5.6118,7.2343e-05,0
5.6124,9.3156e-05,0
5.6129,0.00012068,0
5.6134,0.00015325,0
5.6139,0.00017826,0
5.6144,0.0001937,0
5.615,0.0001989,0
5.6155,0.00018077,0
5.616,0.0001373,0
5.6165,8.6778e-05,0
5.617,4.9851e-05,0
5.6176,3.2563e-05,0
5.6181,2.652e-05,0
5.6186,2.182e-05,0
5.6191,1.5106e-06,0
5.6196,-4.0452e-05,0
5.6202,-7.5364e-05,0
5.6207,-7.9728e-05,0
5.6212,-6.7308e-05,0
5.6217,-6.2272e-05,0
5.6222,-7.9057e-05,0
5.6227,-0.00010793,0
5.6233,-0.00012975,0
5.6238,-0.00013159,0
5.6243,-0.00011817,0
5.6248,-9.366e-05,0
5.6253,-4.683e-05,0
5.6259,1.3092e-05,0
5.6264,5.7572e-05,0
5.6269,7.7043e-05,0
5.6274,8.6442e-05,0
5.6279,0.00010155,0
5.6285,0.00012857,0
5.629,0.00016567,0
5.6295,0.00020125,0
5.63,0.00021871,0
5.6305,0.00019823,0
5.6311,0.00013814,0
5.6316,6.3951e-05,0
5.6321,4.3641e-06,0
5.6326,-2.9038e-05,0
5.6331,-4.4984e-05,0
5.6337,-5.3544e-05,0
5.6342,-5.4887e-05,0
5.6347,-4.6662e-05,0
5.6352,-3.3066e-05,0
5.6357,-1.3931e-05,0
5.6363,1.2924e-05,0
5.6368,4.5823e-05,0
5.6373,7.7882e-05,0
5.6378,0.0001039,0
5.6383,0.00012136,0
5.6388,0.00012605,0
5.6394,0.00011464,0
5.6399,8.9799e-05,0
5.6404,5.9586e-05,0
5.6409,3.1052e-05,0
5.6414,1.1414e-05,0
5.642,0,0
5.6425,-9.9031e-06,0
5.643,-2.0645e-05,0
5.6435,-3.3234e-05,0
5.644,-4.1459e-05,0
5.6446,-4.3977e-05,0
5.6451,-4.213e-05,0
5.6456,-4.0116e-05,0
5.6461,-5.2201e-05,0
5.6466,-7.3182e-05,0
5.6472,-8.4932e-05,0
5.6477,-8.6442e-05,0
5.6482,-7.7714e-05,0
5.6487,-6.2608e-05,0
5.6492,-4.6159e-05,0
5.6498,-1.7792e-05,0
5.6503,1.9974e-05,0
5.6508,4.683e-05,0
5.6513,5.069e-05,0
5.6518,3.4073e-05,0
5.6523,-3.357e-07,0
5.6529,-5.6901e-05,0
5.6534,-0.00012874,0
5.6539,-0.00018463,0
5.6544,-0.00019957,0
5.6549,-0.00017591,0
5.6555,-0.00013042,0
5.656,-7.5029e-05,0
5.6565,-1.1749e-05,0
5.657,6.2943e-05,0
5.6575,0.00014452,0
5.6581,0.00022374,0
5.6586,0.0002892,0
5.6591,0.00032815,0
5.6596,0.0003268,0
5.6601,0.00027645,0
5.6607,0.00019051,0
5.6612,0.00010188,0
5.6617,3.8102e-05,0
5.6622,-5.7069e-06,0
5.6627,-3.9109e-05,0
5.6632,-5.539e-05,0
5.6638,-4.9348e-05,0
5.6643,-3.0045e-05,0
5.6648,-5.539e-06,0
5.6653,2.7024e-05,0
5.6658,6.3279e-05,0
5.6664,9.7688e-05,0
5.6669,0.00012337,0
5.6674,0.00013075,0
5.6679,0.00010994,0
5.6684,7.5532e-05,0
5.669,4.6494e-05,0
5.6695,1.6953e-05,0
5.67,-1.6281e-05,0
5.6705,-4.2969e-05,0
5.671,-5.153e-05,0
5.6716,-4.6494e-05,0
5.6721,-3.8773e-05,0
5.6726,-2.6352e-05,0
5.6731,-6.8818e-06,0
5.6736,1.0239e-05,0
5.6742,1.7792e-05,0
5.6747,1.7288e-05,0
5.6752,1.6617e-05,0
5.6757,2.3667e-05,0
5.6762,3.8773e-05,0
5.6768,5.2033e-05,0
5.6773,5.0355e-05,0
5.6778,3.1724e-05,0
5.6783,6.714e-06,0
5.6788,-1.3931e-05,0
5.6793,-3.4577e-05,0
5.6799,-6.7308e-05,0
5.6804,-0.00010759,0
5.6809,-0.00014083,0
5.6814,-0.00016533,0
5.6819,-0.00018614,0
5.6825,-0.00019756,0
5.683,-0.00019219,0
5.6835,-0.00017473,0
5.684,-0.0001415,0
5.6845,-8.4932e-05,0
5.6851,-1.2253e-05,0
5.6856,7.0329e-05,0
5.6861,0.00015375,0
5.6866,0.00020998,0
5.6871,0.00023163,0
5.6877,0.00023583,0
5.6882,0.00023549,0
5.6887,0.00022995,0
5.6892,0.00021099,0
5.6897,0.00018682,0
5.6902,0.00017305,0
5.6908,0.00015761,0
5.6913,0.00011968,0
5.6918,6.6972e-05,0
5.6923,1.0575e-05,0
5.6928,-3.8773e-05,0
5.6934,-5.623e-05,0
5.6939,-4.0787e-05,0
5.6944,-1.7624e-05,0
5.6949,-7.2175e-06,0
5.6954,-7.7211e-06,0
5.696,-7.8889e-06,0
5.6965,3.357e-06,0
5.697,2.2324e-05,0
5.6975,2.6352e-05,0
5.698,8.2246e-06,0
5.6986,-1.4099e-05,0
5.6991,-2.4506e-05,0
5.6996,-1.6785e-05,0
5.7001,-1.8463e-06,0
5.7006,-2.0142e-06,0
5.7012,-1.4267e-05,0
5.7017,-1.2757e-05,0
5.7022,9.7353e-06,0
5.7027,3.592e-05,0
5.7032,5.2873e-05,0
5.7038,6.865e-05,0
5.7043,8.5771e-05,0
5.7048,9.8192e-05,0
5.7053,0.00010289,0
5.7058,9.9031e-05,0
5.7063,9.1981e-05,0
5.7069,8.9799e-05,0
5.7074,9.2485e-05,0
5.7079,8.5603e-05,0
5.7084,5.7237e-05,0
5.7089,1.2589e-05,0
5.7095,-2.6184e-05,0
5.71,-4.4984e-05,0
5.7105,-4.6326e-05,0
5.711,-3.7766e-05,0
5.7115,-2.8031e-05,0
5.7121,-2.5177e-05,0
5.7126,-3.5416e-05,0
5.7131,-6.0761e-05,0
5.7136,-8.9464e-05,0
5.7141,-0.00010172,0
5.7147,-9.9199e-05,0
5.7152,-0.00010239,0
5.7157,-0.00011833,0
5.7162,-0.00012773,0
5.7167,-0.00011431,0
5.7172,-7.8889e-05,0
5.7178,-3.5752e-05,0
5.7183,1.2589e-05,0
5.7188,7.335e-05,0
5.7193,0.00011884,0
5.7198,0.00012303,0
5.7204,0.0001039,0
5.7209,8.275e-05,0
5.7214,7.1672e-05,0
5.7219,5.8412e-05,0
5.7224,3.2059e-05,0
5.723,2.5177e-06,0
5.7235,-1.2589e-05,0
5.724,-3.5248e-06,0
5.7245,2.031e-05,0
5.725,4.8676e-05,0
5.7256,7.4693e-05,0
5.7261,9.601e-05,0
5.7266,0.00011498,0
5.7271,0.0001321,0
5.7276,0.00013613,0
5.7282,0.00012152,0
5.7287,0.00010188,0
5.7292,8.9464e-05,0
5.7297,8.275e-05,0
5.7302,7.9561e-05,0
5.7307,8.3925e-05,0
5.7313,9.1814e-05,0
5.7318,7.7211e-05,0
5.7323,2.3667e-05,0
5.7328,-5.7404e-05,0
5.7333,-0.00013613,0
5.7339,-0.0001791,0
5.7344,-0.00018161,0
5.7349,-0.00015694,0
5.7354,-0.00011246,0
5.7359,-6.3279e-05,0
5.7365,-2.5345e-05,0
5.737,1.0575e-05,0
5.7375,6.479e-05,0
5.738,0.00012421,0
5.7385,0.00016214,0
5.7391,0.00016902,0
5.7396,0.00015929,0
5.7401,0.00013747,0
5.7406,9.0806e-05,0
5.7411,2.2156e-05,0
5.7417,-4.5991e-05,0
5.7422,-8.6107e-05,0
5.7427,-8.661e-05,0
5.7432,-6.3615e-05,0
5.7437,-3.978e-05,0
5.7443,-1.6281e-05,0
5.7448,1.1917e-05,0
5.7453,4.2802e-05,0
5.7458,7.4022e-05,0
5.7463,9.3828e-05,0
5.7468,0.00010188,0
5.7474,0.00010205,0
5.7479,9.3156e-05,0
5.7484,7.3518e-05,0
5.7489,4.7166e-05,0
5.7494,2.2324e-05,0
5.75,3.0213e-06,0
5.7505,-1.9303e-05,0
5.751,-4.7837e-05,0
5.7515,-7.0665e-05,0
5.752,-8.04e-05,0
5.7526,-8.275e-05,0
5.7531,-8.4428e-05,0
5.7536,-9.366e-05,0
5.7541,-0.00012203,0
5.7546,-0.0001655,0
5.7552,-0.00019454,0
5.7557,-0.00018547,0
5.7562,-0.00014166,0
5.7567,-8.1575e-05,0
5.7572,-2.2828e-05,0
5.7577,1.796e-05,0
5.7583,3.827e-05,0
5.7588,6.2272e-05,0
5.7593,0.00010524,0
5.7598,0.00016634,0
5.7603,0.00023281,0
5.7609,0.00028635,0
5.7614,0.00031052,0
5.7619,0.00029256,0
5.7624,0.00023801,0
5.7629,0.00017003,0
5.7635,0.00011666,0
5.764,8.8624e-05,0
5.7645,7.6036e-05,0
5.765,6.5293e-05,0
5.7655,4.8173e-05,0
5.7661,2.7192e-05,0
5.7666,1.1078e-05,0
5.7671,-2.6856e-06,0
5.7676,-1.6281e-05,0
5.7681,-2.6017e-05,0
5.7687,-3.2227e-05,0
5.7692,-4.1123e-05,0
5.7697,-4.9851e-05,0
5.7702,-4.8341e-05,0
5.7707,-3.7766e-05,0
5.7713,-2.4842e-05,0
5.7718,-1.8967e-05,0
5.7723,-3.7766e-05,0
5.7728,-8.2078e-05,0
5.7733,-0.00012639,0
5.7738,-0.00014166,0
5.7744,-0.00012387,0
5.7749,-9.0135e-05,0
5.7754,-6.1936e-05,0
5.7759,-4.3137e-05,0
5.7764,-2.5681e-05,0
5.777,-3.357e-06,0
5.7775,2.4842e-05,0
5.778,6.4286e-05,0
5.7785,0.00010994,0
5.779,0.00015258,0
5.7796,0.00018144,0
5.7801,0.00018463,0
5.7806,0.00016399,0
5.7811,0.00012505,0
5.7816,8.4428e-05,0
5.7822,5.623e-05,0
5.7827,3.4745e-05,0
5.7832,1.6449e-05,0
5.7837,1.326e-05,0
5.7842,2.8031e-05,0
5.7847,4.1962e-05,0
5.7853,3.4409e-05,0
5.7858,1.5778e-05,0
5.7863,6.0426e-06,0
5.7868,3.8605e-06,0
5.7873,0,0
5.7879,-4.1962e-06,0
5.7884,-1.1917e-05,0
5.7889,-1.9974e-05,0
5.7894,-1.5274e-05,0
5.7899,-1.0071e-05,0
5.7905,-2.1653e-05,0
5.791,-4.6159e-05,0
5.7915,-6.8147e-05,0
5.792,-8.0064e-05,0
5.7925,-8.6107e-05,0
5.7931,-8.9128e-05,0
5.7936,-8.8121e-05,0
5.7941,-8.5267e-05,0
5.7946,-8.7449e-05,0
5.7951,-9.5842e-05,0
5.7957,-9.5338e-05,0
5.7962,-8.04e-05,0
5.7967,-5.8579e-05,0
5.7972,-3.6088e-05,0
5.7977,-1.2253e-05,0
5.7983,2.2156e-05,0
5.7988,7.5364e-05,0
5.7993,0.00013445,0
5.7998,0.00018111,0
5.8003,0.00021065,0
5.8008,0.00023516,0
5.8014,0.00025261,0
5.8019,0.0002459,0
5.8024,0.00022542,0
5.8029,0.00021115,0
5.8034,0.00019554,0
5.804,0.00016466,0
5.8045,0.0001227,0
5.805,8.3589e-05,0
5.8055,5.2873e-05,0
5.806,3.0716e-05,0
5.8066,1.9303e-05,0
5.8071,1.0239e-05,0
5.8076,-1.8463e-06,0
5.8081,-1.5106e-05,0
5.8086,-3.1388e-05,0
5.8092,-4.7837e-05,0
5.8097,-5.8747e-05,0
5.8102,-6.6636e-05,0
5.8107,-7.5029e-05,0
5.8112,-7.7211e-05,0
5.8117,-6.8818e-05,0
5.8123,-5.388e-05,0
5.8128,-3.592e-05,0
5.8133,-9.7353e-06,0
5.8138,1.9974e-05,0
5.8143,4.0116e-05,0
5.8149,4.8676e-05,0
5.8154,5.4887e-05,0
5.8159,6.2272e-05,0
5.8164,6.2272e-05,0
5.8169,5.2873e-05,0
5.8175,4.3305e-05,0
5.818,3.9277e-05,0
5.8185,3.4409e-05,0
5.819,1.8631e-05,0
5.8195,-5.2033e-06,0
5.8201,-3.2395e-05,0
5.8206,-6.4286e-05,0
5.8211,-9.8527e-05,0
5.8216,-0.0001227,0
5.8221,-0.00013545,0
5.8227,-0.00015056,0
5.8232,-0.00016349,0
5.8237,-0.00015879,0
5.8242,-0.0001331,0
5.8247,-8.9296e-05,0
5.8252,-2.7024e-05,0
5.8258,4.448e-05,0
5.8263,0.00010927,0
5.8268,0.00015207,0
5.8273,0.00014217,0
5.8278,8.04e-05,0
5.8284,1.1246e-05,0
5.8289,-4.6159e-05,0
5.8294,-0.00011431,0
5.8299,-0.00019638,0
5.8304,-0.00024993,0
5.831,-0.00024573,0
5.8315,-0.00018866,0
5.832,-9.4163e-05,0
5.8325,2.0478e-05,0
5.833,0.00013848,0
5.8336,0.00023449,0
5.8341,0.00029088,0
5.8346,0.0003305,0
5.8351,0.00037229,0
5.8356,0.00040603,0
5.8362,0.0004119,0
5.8367,0.00038857,0
5.8372,0.00033939,0
5.8377,0.00026537,0
5.8382,0.00017842,0
5.8388,0.00010457,0
5.8393,6.009e-05,0
5.8398,3.743e-05,0
5.8403,2.0645e-05,0
5.8408,5.539e-06,0
5.8413,-1.1246e-05,0
5.8419,-3.508e-05,0
5.8424,-6.2608e-05,0
5.8429,-8.3253e-05,0
5.8434,-8.8457e-05,0
5.8439,-8.3253e-05,0
5.8445,-7.805e-05,0
5.845,-7.9057e-05,0
5.8455,-8.9967e-05,0
5.846,-0.00011531,0
5.8465,-0.00014569,0
5.8471,-0.00017053,0
5.8476,-0.00019437,0
5.8481,-0.0002083,0
5.8486,-0.0001989,0
5.8491,-0.0001603,0
5.8497,-0.00010222,0
5.8502,-2.9374e-05,0
5.8507,4.9516e-05,0
5.8512,0.00011733,0
5.8517,0.00016013,0
5.8522,0.0001848,0
5.8528,0.00019689,0
5.8533,0.00019638,0
5.8538,0.00017574,0
5.8543,0.00013646,0
5.8548,9.2485e-05,0
5.8554,5.2201e-05,0
5.8559,1.5442e-05,0
5.8564,-2.3835e-05,0
5.8569,-7.0832e-05,0
5.8574,-0.00011179,0
5.858,-0.0001237,0
5.8585,-9.8863e-05,0
5.859,-5.0523e-05,0
5.8595,5.2033e-06,0
5.86,5.4215e-05,0
5.8606,8.9799e-05,0
5.8611,0.00011229,0
5.8616,0.00012169,0
5.8621,0.00010961,0
5.8626,8.51e-05,0
5.8632,6.8818e-05,0
5.8637,6.0258e-05,0
5.8642,4.8173e-05,0
5.8647,3.3402e-05,0
5.8652,1.9806e-05,0
5.8658,1.1582e-05,0
5.8663,5.8747e-06,0
5.8668,-7.0497e-06,0
5.8673,-2.5681e-05,0
5.8678,-4.5823e-05,0
5.8683,-7.5532e-05,0
5.8689,-0.00011565,0
5.8694,-0.00014318,0
5.8699,-0.00015123,0
5.8704,-0.00014922,0
5.8709,-0.00014083,0
5.8715,-0.00011313,0
5.872,-6.244e-05,0
5.8725,2.3499e-06,0
5.873,7.57e-05,0
5.8735,0.0001472,0
5.8741,0.00020662,0
5.8746,0.00023885,0
5.8751,0.00023113,0
5.8756,0.00018648,0
5.8761,0.00012404,0
5.8767,6.5965e-05,0
5.8772,2.0645e-05,0
5.8777,-5.8747e-06,0
5.8782,-1.1078e-05,0
5.8787,-8.896e-06,0
5.8792,-6.8818e-06,0
5.8798,-4.3641e-06,0
5.8803,-6.2104e-06,0
5.8808,-2.501e-05,0
5.8813,-6.8315e-05,0
5.8818,-0.00011095,0
5.8824,-0.00012018,0
5.8829,-9.3492e-05,0
5.8834,-4.8005e-05,0
5.8839,5.8747e-06,0
5.8844,6.1601e-05,0
5.885,0.0001133,0
5.8855,0.00015459,0
5.886,0.00018077,0
5.8865,0.00019857,0
5.887,0.00021115,0
5.8876,0.00020528,0
5.8881,0.0001791,0
5.8886,0.00014469,0
5.8891,0.00010927,0
5.8896,7.9057e-05,0
5.8902,5.3544e-05,0
5.8907,3.3066e-05,0
5.8912,2.1317e-05,0
5.8917,1.561e-05,0
5.8922,7.2175e-06,0
5.8928,-4.8676e-06,0
5.8933,-1.4771e-05,0
5.8938,-2.0645e-05,0
5.8943,-2.7024e-05,0
5.8948,-3.8941e-05,0
5.8953,-5.2537e-05,0
5.8959,-6.3951e-05,0
5.8964,-7.4022e-05,0
5.8969,-8.1239e-05,0
5.8974,-8.4932e-05,0
5.8979,-9.8192e-05,0
5.8985,-0.00012757,0
5.899,-0.00015442,0
5.8995,-0.00016399,0
5.9,-0.00015425,0
5.9005,-0.00012673,0
5.9011,-8.6778e-05,0
5.9016,-4.1794e-05,0
5.9021,3.8605e-06,0
5.9026,4.9683e-05,0
5.9031,9.0974e-05,0
5.9037,0.00011901,0
5.9042,0.00013579,0
5.9047,0.00014888,0
5.9052,0.0001556,0
5.9057,0.00014821,0
5.9062,0.0001227,0
5.9068,8.2078e-05,0
5.9073,3.9445e-05,0
5.9078,1.5106e-06,0
5.9083,-4.3137e-05,0
5.9088,-0.00010289,0
5.9094,-0.00016349,0
5.9099,-0.00018648,0
5.9104,-0.00016466,0
5.9109,-0.00012639,0
5.9114,-8.04e-05,0
5.912,-2.9374e-05,0
5.9125,1.5946e-05,0
5.913,5.2705e-05,0
5.9135,8.04e-05,0
5.914,0.00010037,0
5.9146,9.5171e-05,0
5.9151,6.7643e-05,0
5.9156,5.623e-05,0
5.9161,8.2078e-05,0
5.9166,0.00012975,0
5.9172,0.00017238,0
5.9177,0.00020259,0
5.9182,0.00022542,0
5.9187,0.00023314,0
5.9192,0.00020914,0
5.9197,0.0001697,0
5.9203,0.00014754,0
5.9208,0.00013579,0
5.9213,0.00011901,0
5.9218,0.00010759,0
5.9223,0.00010625,0
5.9229,0.00010591,0
5.9234,9.3156e-05,0
5.9239,7.9393e-05,0
5.9244,7.7714e-05,0
5.9249,8.3085e-05,0
5.9255,8.6442e-05,0
5.926,8.426e-05,0
5.9265,6.2272e-05,0
5.927,-3.0213e-06,0
5.9275,-0.00011028,0
5.9281,-0.00022139,0
5.9286,-0.0002892,0
5.9291,-0.00028837,0
5.9296,-0.00023801,0
5.9301,-0.0001702,0
5.9307,-0.00010105,0
5.9312,-4.5151e-05,0
5.9317,-1.6281e-05,0
5.9322,5.0355e-06,0
5.9327,3.8941e-05,0
5.9333,7.8721e-05,0
5.9338,0.00010625,0
5.9343,0.00010793,0
5.9348,9.1142e-05,0
5.9353,8.04e-05,0
5.9358,9.2485e-05,0
5.9364,0.00012337,0
5.9369,0.00015593,0
5.9374,0.00017238,0
5.9379,0.00016701,0
5.9384,0.00015392,0
5.939,0.00014083,0
5.9395,0.00012203,0
5.94,9.7856e-05,0
5.9405,6.949e-05,0
5.941,3.743e-05,0
5.9416,7.8889e-06,0
5.9421,-1.091e-05,0
5.9426,-2.3331e-05,0
5.9431,-3.3906e-05,0
5.9436,-4.5991e-05,0
5.9442,-6.7979e-05,0
5.9447,-0.00010507,0
5.9452,-0.00015224,0
5.9457,-0.00019756,0
5.9462,-0.00023012,0
5.9467,-0.00024271,0
5.9473,-0.00022861,0
5.9478,-0.00019353,0
5.9483,-0.00015492,0
5.9488,-0.00012287,0
5.9493,-9.4499e-05,0
5.9499,-6.8986e-05,0
5.9504,-4.4816e-05,0
5.9509,-2.1317e-05,0
5.9514,5.2033e-06,0
5.9519,3.357e-05,0
5.9525,5.1194e-05,0
5.953,5.5558e-05,0
5.9535,5.5726e-05,0
5.954,6.009e-05,0
5.9545,7.9393e-05,0
5.9551,0.00011263,0
5.9556,0.00013008,0
5.9561,0.00011598,0
5.9566,8.8121e-05,0
5.9571,8.04e-05,0
5.9577,9.4499e-05,0
5.9582,0.00010088,0
5.9587,8.51e-05,0
5.9592,6.8315e-05,0
5.9597,6.3783e-05,0
5.9603,6.7643e-05,0
5.9608,6.4118e-05,0
5.9613,3.9109e-05,0
5.9618,5.2033e-06,0
5.9623,-1.6281e-05,0
5.9628,-2.5849e-05,0
5.9634,-3.9612e-05,0
5.9639,-5.7404e-05,0
5.9644,-6.7308e-05,0
5.9649,-5.1362e-05,0
5.9654,-9.0639e-06,0
5.966,2.6352e-05,0
5.9665,3.743e-05,0
5.967,3.743e-05,0
5.9675,4.3977e-05,0
5.968,6.5293e-05,0
5.9686,9.1814e-05,0
5.9691,0.00011061,0
5.9696,0.00011582,0
5.9701,9.987e-05,0
5.9706,5.8915e-05,0
5.9712,1.8967e-05,0
5.9717,5.0355e-07,0
5.9722,7.0497e-06,0
5.9727,3.2731e-05,0
5.9732,6.6804e-05,0
5.9737,0.00010188,0
5.9743,0.00012874,0
5.9748,0.00013529,0
5.9753,0.00012874,0
5.9758,0.00012572,0
5.9763,0.000118,0
5.9769,9.5171e-05,0
5.9774,6.0594e-05,0
5.9779,2.1317e-05,0
5.9784,-1.9471e-05,0
5.9789,-4.8508e-05,0
5.9795,-6.7643e-05,0
5.98,-8.8121e-05,0
5.9805,-0.00010759,0
5.981,-0.0001185,0
5.9815,-0.00012992,0
5.9821,-0.00016248,0
5.9826,-0.0001989,0
5.9831,-0.00020327,0
5.9836,-0.00017809,0
5.9841,-0.00014351,0
5.9847,-0.00011061,0
5.9852,-7.7043e-05,0
5.9857,-2.8031e-05,0
5.9862,3.3402e-05,0
5.9867,7.8386e-05,0
5.9873,9.5003e-05,0
5.9878,0.00010188,0
5.9883,0.00011867,0
5.9888,0.00014217,0
5.9893,0.00015828,0
5.9898,0.00015996,0
5.9904,0.00014653,0
5.9909,0.00011867,0
5.9914,9.5003e-05,0
5.9919,9.5171e-05,0
5.9924,0.00011313,0
5.993,0.00012874,0
5.9935,0.0001378,0
5.994,0.00014049,0
5.9945,0.00013529,0
5.995,0.00012186,0
5.9956,0.00010188,0
5.9961,8.9799e-05,0
5.9966,9.9702e-05,0
5.9971,0.00011582,0
5.9976,0.00011733,0
5.9982,0.00010323,0
5.9987,8.2414e-05,0
5.9992,6.1769e-05,0
5.9997,4.2802e-05,0
6.0002,2.3667e-05,0
6.0008,4.5319e-06,0
6.0013,-1.1246e-05,0
6.0018,-2.4674e-05,0
6.0023,-3.978e-05,0
6.0028,-5.1362e-05,0
6.0033,-5.4215e-05,0
6.0039,-5.5726e-05,0
6.0044,-6.3111e-05,0
6.0049,-7.8721e-05,0
6.0054,-9.8527e-05,0
6.0059,-0.00012639,0
6.0065,-0.00016768,0
6.007,-0.00022727,0
6.0075,-0.00029273,0
6.008,-0.00033016,0
6.0085,-0.00032412,0
6.0091,-0.00028434,0
6.0096,-0.00022609,0
6.0101,-0.0001603,0
6.0106,-9.1814e-05,0
6.0111,-1.2421e-05,0
6.0117,7.5532e-05,0
6.0122,0.00015996,0
6.0127,0.00023079,0
6.0132,0.00027645,0
6.0137,0.00028988,0
6.0142,0.00028081,0
6.0148,0.00024691,0
6.0153,0.00015761,0
6.0158,2.9206e-05,0
6.0163,-6.244e-05,0
6.0168,-8.0064e-05,0
6.0174,-4.9012e-05,0
6.0179,3.357e-07,0
6.0184,5.6901e-05,0
6.0189,0.00011347,0
6.0194,0.00015946,0
6.02,0.00019101,0
6.0205,0.00021317,0
6.021,0.00023079,0
6.0215,0.00022979,0
6.022,0.00020175,0
6.0226,0.00017305,0
6.0231,0.0001556,0
6.0236,0.00013344,0
6.0241,0.00010021,0
6.0246,6.5293e-05,0
6.0252,2.501e-05,0
6.0257,-3.2395e-05,0
6.0262,-0.00010658,0
6.0267,-0.00017859,0
6.0272,-0.00022828,0
6.0278,-0.00024993,0
6.0283,-0.00024288,0
6.0288,-0.00020713,0
6.0293,-0.00014821,0
6.0298,-7.6707e-05,0
6.0303,5.8747e-06,0
6.0309,9.4667e-05,0
6.0314,0.00017977,0
6.0319,0.00025026,0
6.0324,0.00028988,0
6.0329,0.0002798,0
6.0335,0.00023197,0
6.034,0.00017691,0
6.0345,0.00012807,0
6.035,8.5771e-05,0
6.0355,4.5823e-05,0
6.0361,7.2175e-06,0
6.0366,-2.501e-05,0
6.0371,-5.069e-05,0
6.0376,-7.8889e-05,0
6.0381,-0.00011666,0
6.0387,-0.00015409,0
6.0392,-0.00017154,0
6.0397,-0.00016349,0
6.0402,-0.00013646,0
6.0407,-0.00010239,0
6.0412,-7.4022e-05,0
6.0418,-5.388e-05,0
6.0423,-3.7766e-05,0
6.0428,-2.9374e-05,0
6.0433,-2.031e-05,0
6.0438,-4.1962e-06,0
6.0444,1.1246e-05,0
6.0449,1.4603e-05,0
6.0454,-5.0355e-07,0
6.0459,-2.0813e-05,0
6.0464,-2.8367e-05,0
6.047,-1.1078e-05,0
6.0475,2.5177e-05,0
6.048,6.1265e-05,0
6.0485,7.8386e-05,0
6.049,7.5532e-05,0
6.0496,6.7643e-05,0
6.0501,6.9993e-05,0
6.0506,8.0064e-05,0
6.0511,8.2078e-05,0
6.0516,7.2847e-05,0
6.0522,6.3615e-05,0
6.0527,6.2608e-05,0
6.0532,6.3951e-05,0
6.0537,5.9922e-05,0
6.0542,5.1194e-05,0
6.0548,4.1123e-05,0
6.0553,3.2059e-05,0
6.0558,2.501e-05,0
6.0563,1.5946e-05,0
6.0568,-5.0355e-07,0
6.0573,-1.7624e-05,0
6.0579,-2.7192e-05,0
6.0584,-3.3402e-05,0
6.0589,-4.213e-05,0
6.0594,-4.7166e-05,0
6.0599,-4.9348e-05,0
6.0605,-5.1194e-05,0
6.061,-4.9348e-05,0
6.0615,-4.1291e-05,0
6.062,-3.9445e-05,0
6.0625,-5.0187e-05,0
6.0631,-5.3208e-05,0
6.0636,-3.6927e-05,0
6.0641,-2.1988e-05,0
6.0646,-2.1988e-05,0
6.0651,-2.5177e-05,0
6.0657,-2.3667e-05,0
6.0662,-2.9709e-05,0
6.0667,-3.8773e-05,0
6.0672,-3.2395e-05,0
6.0677,-7.8889e-06,0
6.0682,2.8031e-05,0
6.0688,6.63e-05,0
6.0693,9.366e-05,0
6.0698,0.00010726,0
6.0703,0.00012471,0
6.0708,0.00016466,0
6.0714,0.00022005,0
6.0719,0.00026386,0
6.0724,0.00028383,0
6.0729,0.00029088,0
6.0734,0.00028702,0
6.074,0.00026168,0
6.0745,0.00021653,0
6.075,0.00016181,0
6.0755,0.00010826,0
6.076,6.4286e-05,0
6.0766,3.7095e-05,0
6.0771,2.5345e-05,0
6.0776,1.5274e-05,0
6.0781,-4.6998e-06,0
6.0786,-3.0549e-05,0
6.0792,-5.0523e-05,0
6.0797,-6.6133e-05,0
6.0802,-8.6442e-05,0
6.0807,-0.00011414,0
6.0812,-0.0001514,0
6.0818,-0.00018379,0
6.0823,-0.00019135,0
6.0828,-0.00017893,0
6.0833,-0.00016332,0
6.0838,-0.00014704,0
6.0843,-0.00011212,0
6.0849,-5.1698e-05,0
6.0854,1.5946e-05,0
6.0859,6.4286e-05,0
6.0864,9.0806e-05,0
6.0869,0.00011196,0
6.0875,0.00013378,0
6.088,0.00014569,0
6.0885,0.00013545,0
6.089,0.00010037,0
6.0895,4.9516e-05,0
6.0901,-1.8463e-06,0
6.0906,-4.4144e-05,0
6.0911,-7.7379e-05,0
6.0916,-9.987e-05,0
6.0921,-0.00010524,0
6.0927,-9.0806e-05,0
6.0932,-5.9251e-05,0
6.0937,-1.2253e-05,0
6.0942,3.9109e-05,0
6.0947,8.3421e-05,0
6.0953,0.00012001,0
6.0958,0.00015476,0
6.0963,0.00017557,0
6.0968,0.0001566,0
6.0973,8.1743e-05,0
6.0978,-2.031e-05,0
6.0984,-9.2821e-05,0
6.0989,-0.00011246,0
6.0994,-9.9702e-05,0
6.0999,-6.714e-05,0
6.1004,-1.4603e-05,0
6.101,4.3809e-05,0
6.1015,9.5506e-05,0
6.102,0.00013478,0
6.1025,0.0001613,0
6.103,0.00018111,0
6.1036,0.00018933,0
6.1041,0.00017171,0
6.1046,0.00012874,0
6.1051,7.4357e-05,0
6.1056,2.5345e-05,0
6.1062,-4.5319e-06,0
6.1067,-1.8967e-05,0
6.1072,-3.122e-05,0
6.1077,-5.4887e-05,0
6.1082,-8.9632e-05,0
6.1087,-0.00012773,0
6.1093,-0.00015006,0
6.1098,-0.00014502,0
6.1103,-0.00012253,0
6.1108,-0.00010155,0
6.1113,-9.0471e-05,0
6.1119,-9.1981e-05,0
6.1124,-0.00012152,0
6.1129,-0.00016567,0
6.1134,-0.00017288,0
6.1139,-0.00012505,0
6.1145,-5.6733e-05,0
6.115,5.8747e-06,0
6.1155,7.3686e-05,0
6.116,0.00013462,0
6.1165,0.0001655,0
6.1171,0.00016617,0
6.1176,0.00015778,0
6.1181,0.00016466,0
6.1186,0.00018312,0
6.1191,0.00019521,0
6.1197,0.00019051,0
6.1202,0.00017842,0
6.1207,0.00016886,0
6.1212,0.00016097,0
6.1217,0.00015526,0
6.1223,0.00015157,0
6.1228,0.00015123,0
6.1233,0.00014989,0
6.1238,0.00013881,0
6.1243,0.00011179,0
6.1248,7.3686e-05,0
6.1254,4.0116e-05,0
6.1259,1.4939e-05,0
6.1264,-1.2253e-05,0
6.1269,-3.9445e-05,0
6.1274,-5.6565e-05,0
6.128,-6.1601e-05,0
6.1285,-6.1936e-05,0
6.129,-6.5629e-05,0
6.1295,-6.9993e-05,0
6.13,-8.1575e-05,0
6.1306,-0.0001039,0
6.1311,-0.00011917,0
6.1316,-0.00011649,0
6.1321,-0.00010893,0
6.1326,-0.00010994,0
6.1332,-0.00010726,0
6.1337,-8.7617e-05,0
6.1342,-6.4622e-05,0
6.1347,-4.8844e-05,0
6.1352,-3.4073e-05,0
6.1357,-1.091e-05,0
6.1363,1.1582e-05,0
6.1368,1.9638e-05,0
6.1373,2.031e-05,0
6.1378,2.6688e-05,0
6.1383,3.978e-05,0
6.1389,4.5151e-05,0
6.1394,2.5681e-05,0
6.1399,-1.0239e-05,0
6.1404,-3.5248e-05,0
6.1409,-3.6255e-05,0
6.1415,-2.0981e-05,0
6.142,5.0355e-07,0
6.1425,2.6688e-05,0
6.143,5.5222e-05,0
6.1435,7.6204e-05,0
6.1441,8.1743e-05,0
6.1446,7.1672e-05,0
6.1451,5.0187e-05,0
6.1456,2.0813e-05,0
6.1461,-1.0239e-05,0
6.1467,-4.5823e-05,0
6.1472,-8.6107e-05,0
6.1477,-0.00012303,0
6.1482,-0.00015291,0
6.1487,-0.00016533,0
6.1493,-0.0001519,0
6.1498,-0.00011565,0
6.1503,-5.8579e-05,0
6.1508,8.2246e-06,0
6.1513,6.7475e-05,0
6.1518,0.00011968,0
6.1524,0.00017708,0
6.1529,0.00023868,0
6.1534,0.0002788,0
6.1539,0.00028518,0
6.1544,0.00027343,0
6.155,0.00025211,0
6.1555,0.00021468,0
6.156,0.00016265,0
6.1565,0.00010944,0
6.157,6.7475e-05,0
6.1576,3.6591e-05,0
6.1581,2.5177e-05,0
6.1586,2.7695e-05,0
6.1591,2.8367e-05,0
6.1596,2.5345e-05,0
6.1602,2.2995e-05,0
6.1607,1.9471e-05,0
6.1612,1.6617e-05,0
6.1617,1.5946e-05,0
6.1622,1.4939e-05,0
6.1627,1.8296e-05,0
6.1633,2.182e-05,0
6.1638,1.8967e-05,0
6.1643,7.3854e-06,0
6.1648,-1.0407e-05,0
6.1653,-3.8941e-05,0
6.1659,-7.6204e-05,0
6.1664,-0.00010591,0
6.1669,-0.00011363,0
6.1674,-0.00010759,0
6.1679,-9.987e-05,0
6.1685,-8.4092e-05,0
6.169,-5.069e-05,0
6.1695,-8.2246e-06,0
6.17,2.6688e-05,0
6.1705,5.6901e-05,0
6.1711,9.1814e-05,0
6.1716,0.00012404,0
6.1721,0.0001368,0
6.1726,0.00012387,0
6.1731,9.5171e-05,0
6.1737,5.153e-05,0
6.1742,-2.031e-05,0
6.1747,-0.00010793,0
6.1752,-0.00018883,0
6.1757,-0.00024623,0
6.1762,-0.00028048,0
6.1768,-0.00029239,0
6.1773,-0.00026654,0
6.1778,-0.00019806,0
6.1783,-0.00010574,0
6.1788,-6.8818e-06,0
6.1794,8.6778e-05,0
6.1799,0.00016986,0
6.1804,0.00024355,0
6.1809,0.00030398,0
6.1814,0.00035299,0
6.182,0.0003785,0
6.1825,0.00036776,0
6.183,0.0003315,0
6.1835,0.00028685,0
6.184,0.000237,0
6.1846,0.0001744,0
6.1851,9.6513e-05,0
6.1856,1.3596e-05,0
6.1861,-5.5894e-05,0
6.1866,-0.00010054,0
6.1872,-0.00012454,0
6.1877,-0.00014116,0
6.1882,-0.00015258,0
6.1887,-0.00015258,0
6.1892,-0.00013814,0
6.1898,-0.00011229,0
6.1903,-8.0232e-05,0
6.1908,-4.3641e-05,0
6.1913,-6.5461e-06,0
6.1918,2.9709e-05,0
6.1923,6.63e-05,0
6.1929,9.836e-05,0
6.1934,0.00011128,0
6.1939,0.0001039,0
6.1944,8.9632e-05,0
6.1949,7.1336e-05,0
6.1955,5.1865e-05,0
6.196,3.7934e-05,0
6.1965,3.3402e-05,0
6.197,3.0884e-05,0
6.1975,2.0981e-05,0
6.1981,3.357e-07,0
6.1986,-1.4267e-05,0
6.1991,-1.2253e-05,0
6.1996,3.357e-06,0
6.2001,2.2492e-05,0
6.2007,3.0045e-05,0
6.2012,2.8031e-05,0
6.2017,3.0549e-05,0
6.2022,3.508e-05,0
6.2027,3.122e-05,0
6.2032,2.4506e-05,0
6.2038,2.5849e-05,0
6.2043,2.501e-05,0
6.2048,1.0407e-05,0
6.2053,-6.8818e-06,0
6.2058,-2.6017e-05,0
6.2064,-6.7475e-05,0
6.2069,-0.00013764,0
6.2074,-0.00020159,0
6.2079,-0.00022307,0
6.2084,-0.00021149,0
6.209,-0.00017826,0
6.2095,-0.00013092,0
6.21,-0.00010272,0
6.2105,-0.00011112,0
6.211,-0.00011414,0
6.2116,-6.2943e-05,0
6.2121,4.1291e-05,0
6.2126,0.00015341,0
6.2131,0.00023331,0
6.2136,0.0002751,0
6.2142,0.00029122,0
6.2147,0.0002939,0
6.2152,0.00029726,0
6.2157,0.00030582,0
6.2162,0.00031572,0
6.2168,0.00031774,0
6.2173,0.00030498,0
6.2178,0.0002694,0
6.2183,0.00020494,0
6.2188,0.00012605,0
6.2193,5.9586e-05,0
6.2199,1.6281e-05,0
6.2204,-1.5274e-05,0
6.2209,-4.683e-05,0
6.2214,-8.0735e-05,0
6.2219,-0.00010927,0
6.2225,-0.00012572,0
6.223,-0.00012673,0
6.2235,-0.00012035,0
6.224,-0.00011431,0
6.2245,-0.00011313,0
6.2251,-0.00011095,0
6.2256,-0.00010021,0
6.2261,-7.6539e-05,0
6.2266,-4.6159e-05,0
6.2271,-1.5778e-05,0
6.2277,4.8676e-06,0
6.2282,6.8818e-06,0
6.2287,-6.2104e-06,0
6.2292,-2.6688e-05,0
6.2297,-4.5319e-05,0
6.2302,-5.6565e-05,0
6.2308,-6.5965e-05,0
6.2313,-8.3253e-05,0
6.2318,-0.00010524,0
6.2323,-0.00011666,0
6.2328,-0.00010423,0
6.2334,-7.5532e-05,0
6.2339,-5.623e-05,0
6.2344,-6.6636e-05,0
6.2349,-8.1743e-05,0
6.2354,-6.0761e-05,0
6.236,-9.9031e-06,0
6.2365,3.8437e-05,0
6.237,7.805e-05,0
6.2375,0.000118,0
6.238,0.00014955,0
6.2386,0.00016097,0
6.2391,0.00015325,0
6.2396,0.00013411,0
6.2401,0.00010541,0
6.2406,7.0161e-05,0
6.2412,4.5823e-05,0
6.2417,3.8102e-05,0
6.2422,3.8437e-05,0
6.2427,4.0787e-05,0
6.2432,3.9948e-05,0
6.2438,3.4073e-05,0
6.2443,2.7695e-05,0
6.2448,2.2324e-05,0
6.2453,1.5274e-05,0
6.2458,2.5177e-06,0
6.2463,-1.1582e-05,0
6.2469,-1.8463e-05,0
6.2474,-2.0478e-05,0
6.2479,-1.7792e-05,0
6.2484,-5.0355e-06,0
6.2489,8.3925e-07,0
6.2495,-1.5106e-05,0
6.25,-4.5151e-05,0
6.2505,-6.7979e-05,0
6.251,-7.4022e-05,0
6.2515,-6.6972e-05,0
6.2521,-5.0523e-05,0
6.2526,-3.2731e-05,0
6.2531,-1.4771e-05,0
6.2536,1.4435e-05,0
6.2541,6.0258e-05,0
6.2547,0.00011078,0
6.2552,0.00015258,0
6.2557,0.00017507,0
6.2562,0.00017758,0
6.2567,0.0001697,0
6.2572,0.00016197,0
6.2578,0.00015811,0
6.2583,0.00015258,0
6.2588,0.00013075,0
6.2593,8.4428e-05,0
6.2598,2.1988e-05,0
6.2604,-3.5248e-05,0
6.2609,-7.8889e-05,0
6.2614,-0.00010541,0
6.2619,-0.00010994,0
6.2624,-8.9296e-05,0
6.263,-4.8173e-05,0
6.2635,-1.3428e-06,0
6.264,4.2802e-05,0
6.2645,8.3085e-05,0
6.265,0.00011531,0
6.2656,0.00013545,0
6.2661,0.00014485,0
6.2666,0.00013445,0
6.2671,0.00010172,0
6.2676,6.2943e-05,0
6.2682,3.5248e-05,0
6.2687,1.7624e-05,0
6.2692,3.8605e-06,0
6.2697,-6.5461e-06,0
6.2702,-1.6617e-05,0
6.2707,-2.0813e-05,0
6.2713,-1.4603e-05,0
6.2718,-1.5106e-06,0
6.2723,1.4435e-05,0
6.2728,3.1724e-05,0
6.2733,4.9851e-05,0
6.2739,6.7811e-05,0
6.2744,7.0665e-05,0
6.2749,4.3473e-05,0
6.2754,1.1749e-06,0
6.2759,-5.2705e-05,0
6.2765,-0.00012555,0
6.277,-0.00020679,0
6.2775,-0.00026352,0
6.278,-0.00026906,0
6.2785,-0.00023532,0
6.2791,-0.00018061,0
6.2796,-0.0001138,0
6.2801,-5.3208e-05,0
6.2806,-2.1653e-05,0
6.2811,-1.3428e-06,0
6.2817,4.4144e-05,0
6.2822,0.00010927,0
6.2827,0.00015811,0
6.2832,0.00017171,0
6.2837,0.00014687,0
6.2843,0.0001039,0
6.2848,7.2175e-05,0
6.2853,5.4047e-05,0
6.2858,2.9374e-05,0
6.2863,-2.9206e-05,0
6.2868,-0.00012438,0
6.2874,-0.000213,0
6.2879,-0.00024321,0
6.2884,-0.00020713,0
6.2889,-0.00013243,0
6.2894,-4.9851e-05,0
6.29,3.5416e-05,0
6.2905,0.00012975,0
6.291,0.00022945,0
6.2915,0.00032479,0
6.292,0.00040636,0
6.2926,0.00046175,0
6.2931,0.0004819,0
6.2936,0.00046142,0
6.2941,0.00040351,0
6.2946,0.00032395,0
6.2952,0.00024825,0
6.2957,0.00019303,0
6.2962,0.00015895,0
6.2967,0.00013797,0
6.2972,0.00012471,0
6.2977,0.00012169,0
6.2983,0.00012471,0
6.2988,0.00011531,0
6.2993,8.5771e-05,0
6.2998,4.9516e-05,0
6.3003,1.3092e-05,0
6.3009,-2.5177e-05,0
6.3014,-6.1265e-05,0
6.3019,-8.7282e-05,0
6.3024,-0.00010272,0
6.3029,-0.0001185,0
6.3035,-0.00014334,0
6.304,-0.0001744,0
6.3045,-0.00019219,0
6.305,-0.00018396,0
6.3055,-0.00015727,0
6.3061,-0.00012824,0
6.3066,-0.00010574,0
6.3071,-9.6178e-05,0
6.3076,-0.00010188,0
6.3081,-0.00010423,0
6.3087,-8.51e-05,0
6.3092,-5.6901e-05,0
6.3097,-4.6326e-05,0
6.3102,-5.7572e-05,0
6.3107,-7.4022e-05,0
6.3113,-8.3589e-05,0
6.3118,-9.0471e-05,0
6.3123,-9.6849e-05,0
6.3128,-9.7856e-05,0
6.3133,-0.00010121,0
6.3138,-0.00011296,0
6.3144,-0.00012438,0
6.3149,-0.0001227,0
6.3154,-0.00010658,0
6.3159,-7.8721e-05,0
6.3164,-4.8676e-05,0
6.317,-3.0381e-05,0
6.3175,-2.9374e-05,0
6.318,-3.2898e-05,0
6.3185,-2.501e-05,0
6.319,-5.0355e-07,0
6.3196,3.2563e-05,0
6.3201,6.3447e-05,0
6.3206,8.6442e-05,0
6.3211,9.5674e-05,0
6.3216,8.426e-05,0
6.3222,6.3279e-05,0
6.3227,4.9516e-05,0
6.3232,4.7669e-05,0
6.3237,5.2537e-05,0
6.3242,5.774e-05,0
6.3247,6.3951e-05,0
6.3253,7.7714e-05,0
6.3258,9.3996e-05,0
6.3263,0.00010071,0
6.3268,9.6513e-05,0
6.3273,8.1743e-05,0
6.3279,5.4887e-05,0
6.3284,3.0549e-05,0
6.3289,2.0981e-05,0
6.3294,1.5946e-05,0
6.3299,-5.8747e-06,0
6.3305,-3.6759e-05,0
6.331,-4.6494e-05,0
6.3315,-2.3667e-05,0
6.332,1.4939e-05,0
6.3325,4.4816e-05,0
6.3331,6.865e-05,0
6.3336,0.00010726,0
6.3341,0.0001556,0
6.3346,0.00018833,0
6.3351,0.00020108,0
6.3357,0.00021132,0
6.3362,0.00022777,0
6.3367,0.00023751,0
6.3372,0.00022928,0
6.3377,0.00020293,0
6.3383,0.00015946,0
6.3388,0.00010625,0
6.3393,5.0858e-05,0
6.3398,6.2104e-06,0
6.3403,-1.8631e-05,0
6.3408,-2.9877e-05,0
6.3414,-4.0787e-05,0
6.3419,-4.8508e-05,0
6.3424,-4.3473e-05,0
6.3429,-4.7501e-05,0
6.3434,-6.9993e-05,0
6.344,-8.7282e-05,0
6.3445,-9.0135e-05,0
6.345,-8.5939e-05,0
6.3455,-7.8386e-05,0
6.346,-6.7308e-05,0
6.3466,-5.7069e-05,0
6.3471,-5.069e-05,0
6.3476,-3.7263e-05,0
6.3481,-1.1582e-05,0
6.3486,1.5106e-05,0
6.3492,3.7095e-05,0
6.3497,5.9251e-05,0
6.3502,7.7043e-05,0
6.3507,7.805e-05,0
6.3512,5.4887e-05,0
6.3518,1.9806e-05,0
6.3523,-1.7121e-05,0
6.3528,-5.9586e-05,0
6.3533,-0.0001044,0
6.3538,-0.00012807,0
6.3543,-0.00011733,0
6.3549,-8.5771e-05,0
6.3554,-5.1362e-05,0
6.3559,-1.6281e-05,0
6.3564,2.2995e-05,0
6.3569,5.6901e-05,0
6.3575,7.4357e-05,0
6.358,7.805e-05,0
6.3585,6.8147e-05,0
6.359,5.2873e-05,0
6.3595,4.1123e-05,0
6.3601,2.8534e-05,0
6.3606,7.2175e-06,0
6.3611,-2.5681e-05,0
6.3616,-5.2537e-05,0
6.3621,-5.5222e-05,0
6.3627,-3.6927e-05,0
6.3632,-6.0426e-06,0
6.3637,2.6688e-05,0
6.3642,5.4215e-05,0
6.3647,7.4357e-05,0
6.3652,8.9128e-05,0
6.3658,9.7688e-05,0
6.3663,9.0471e-05,0
6.3668,6.8315e-05,0
6.3673,3.978e-05,0
6.3678,9.2317e-06,0
6.3684,-3.0045e-05,0
6.3689,-7.6036e-05,0
6.3694,-0.00010927,0
6.3699,-0.00010491,0
6.3704,-5.304e-05,0
6.371,3.122e-05,0
6.3715,0.00011431,0
6.372,0.0001702,0
6.3725,0.00019806,0
6.373,0.00020612,0
6.3736,0.00020528,0
6.3741,0.00019924,0
6.3746,0.00018346,0
6.3751,0.0001566,0
6.3756,0.00012068,0
6.3762,7.57e-05,0
6.3767,2.6352e-05,0
6.3772,-1.0071e-06,0
6.3777,4.8676e-06,0
6.3782,2.1653e-05,0
6.3788,3.508e-05,0
6.3793,4.6159e-05,0
6.3798,6.0258e-05,0
6.3803,7.4022e-05,0
6.3808,7.5868e-05,0
6.3813,6.1601e-05,0
6.3819,4.0452e-05,0
6.3824,1.326e-05,0
6.3829,-3.508e-05,0
6.3834,-0.0001044,0
6.3839,-0.00016483,0
6.3845,-0.00019571,0
6.385,-0.00019907,0
6.3855,-0.00018447,0
6.386,-0.00015543,0
6.3865,-0.00011095,0
6.3871,-5.304e-05,0
6.3876,7.2175e-06,0
6.3881,6.3615e-05,0
6.3886,0.0001133,0
6.3891,0.00014704,0
6.3897,0.00015644,0
6.3902,0.0001425,0
6.3907,0.00012068,0
6.3912,0.00010172,0
6.3917,8.7785e-05,0
6.3922,7.8721e-05,0
6.3928,6.0594e-05,0
6.3933,2.6352e-05,0
6.3938,-2.0645e-05,0
6.3943,-6.6133e-05,0
6.3948,-0.00010172,0
6.3954,-0.00012773,0
6.3959,-0.00014267,0
6.3964,-0.00014368,0
6.3969,-0.0001279,0
6.3974,-9.8192e-05,0
6.398,-6.479e-05,0
6.3985,-3.0213e-05,0
6.399,1.1917e-05,0
6.3995,5.8579e-05,0
6.4,9.4835e-05,0
6.4006,0.00010323,0
6.4011,9.0303e-05,0
6.4016,7.8386e-05,0
6.4021,7.6707e-05,0
6.4026,7.8218e-05,0
6.4032,6.6972e-05,0
6.4037,4.213e-05,0
6.4042,2.7359e-05,0
6.4047,2.7024e-05,0
6.4052,2.4842e-05,0
6.4058,1.8631e-05,0
6.4063,9.0639e-06,0
6.4068,-4.8676e-06,0
6.4073,-9.5674e-06,0
6.4078,2.5177e-06,0
6.4083,7.8889e-06,0
6.4089,-5.8747e-06,0
6.4094,-1.4939e-05,0
6.4099,4.6998e-06,0
6.4104,3.4745e-05,0
6.4109,5.1865e-05,0
6.4115,4.3809e-05,0
6.412,2.3835e-05,0
6.4125,1.4939e-05,0
6.413,2.7527e-05,0
6.4135,4.4648e-05,0
6.4141,4.6662e-05,0
6.4146,2.4674e-05,0
6.4151,-2.3667e-05,0
6.4156,-9.2485e-05,0
6.4161,-0.00015392,0
6.4167,-0.00018044,0
6.4172,-0.00016785,0
6.4177,-0.00012538,0
6.4182,-6.244e-05,0
6.4187,1.2924e-05,0
6.4192,9.1814e-05,0
6.4198,0.00015929,0
6.4203,0.00020897,0
6.4208,0.00025127,0
6.4213,0.00028954,0
6.4218,0.00031237,0
6.4224,0.00030649,0
6.4229,0.00027645,0
6.4234,0.00023146,0
6.4239,0.00017356,0
6.4244,0.0001044,0
6.425,3.6423e-05,0
6.4255,-2.2324e-05,0
6.426,-6.865e-05,0
6.4265,-0.00011061,0
6.427,-0.00014955,0
6.4276,-0.000166,0
6.4281,-0.00015274,0
6.4286,-0.00012605,0
6.4291,-9.6345e-05,0
6.4296,-6.0258e-05,0
6.4302,-1.0575e-05,0
6.4307,4.683e-05,0
6.4312,0.00010356,0
6.4317,0.0001462,0
6.4322,0.00016533,0
6.4328,0.0001655,0
6.4333,0.00015106,0
6.4338,0.0001232,0
6.4343,7.9393e-05,0
6.4348,3.6088e-05,0
6.4353,1.0239e-05,0
6.4359,-3.5248e-06,0
6.4364,-1.2589e-05,0
6.4369,-1.8631e-05,0
6.4374,-2.2995e-05,0
6.4379,-3.4241e-05,0
6.4385,-6.5293e-05,0
6.439,-0.00011313,0
6.4395,-0.00015341,0
6.44,-0.00017305,0
6.4405,-0.00017641,0
6.4411,-0.00017087,0
6.4416,-0.00016248,0
6.4421,-0.00015157,0
6.4426,-0.00012975,0
6.4431,-9.6345e-05,0
6.4437,-5.7572e-05,0
6.4442,-1.091e-05,0
6.4447,4.5151e-05,0
6.4452,9.5338e-05,0
6.4457,0.00012303,0
6.4463,0.0001284,0
6.4468,0.00012253,0
6.4473,0.00011263,0
6.4478,0.00010507,0
6.4483,0.00010524,0
6.4488,0.00010759,0
6.4494,9.752e-05,0
6.4499,7.1e-05,0
6.4504,3.1724e-05,0
6.4509,-2.031e-05,0
6.4514,-7.7714e-05,0
6.452,-0.00011028,0
6.4525,-0.00010709,0
6.453,-8.8624e-05,0
6.4535,-6.5965e-05,0
6.454,-3.5248e-05,0
6.4546,5.7069e-06,0
6.4551,5.3544e-05,0
6.4556,0.00010356,0
6.4561,0.00015291,0
6.4566,0.00020511,0
6.4572,0.00024338,0
6.4577,0.00024271,0
6.4582,0.0002083,0
6.4587,0.00016768,0
6.4592,0.00013445,0
6.4597,0.00010491,0
6.4603,7.6371e-05,0
6.4608,5.1865e-05,0
6.4613,2.5345e-05,0
6.4618,-1.1582e-05,0
6.4623,-5.8244e-05,0
6.4629,-0.00011112,0
6.4634,-0.00014922,0
6.4639,-0.00015258,0
6.4644,-0.00012438,0
6.4649,-7.9728e-05,0
6.4655,-3.7766e-05,0
6.466,1.3428e-06,0
6.4665,3.978e-05,0
6.467,7.6371e-05,0
6.4675,0.00010155,0
6.4681,0.00011263,0
6.4686,0.00010239,0
6.4691,6.8147e-05,0
6.4696,2.4842e-05,0
6.4701,-4.6998e-06,0
6.4707,-1.7456e-05,0
6.4712,-3.1724e-05,0
6.4717,-4.1123e-05,0
6.4722,-2.6352e-05,0
6.4727,5.0355e-06,0
6.4733,3.9948e-05,0
6.4738,7.2175e-05,0
6.4743,9.7856e-05,0
6.4748,0.000118,0
6.4753,0.00013008,0
6.4758,0.00012068,0
6.4764,8.2414e-05,0
6.4769,2.2995e-05,0
6.4774,-4.3473e-05,0
6.4779,-9.4163e-05,0
6.4784,-0.00011431,0
6.479,-0.00011028,0
6.4795,-9.1814e-05,0
6.48,-7.0161e-05,0
6.4805,-5.4383e-05,0
6.481,-4.1291e-05,0
6.4816,-2.5681e-05,0
6.4821,-1.7288e-05,0
6.4826,-8.0568e-06,0
6.4831,1.8463e-05,0
6.4836,4.9851e-05,0
6.4842,6.3447e-05,0
6.4847,5.1698e-05,0
6.4852,3.2059e-05,0
6.4857,2.5513e-05,0
6.4862,3.4745e-05,0
6.4867,5.3544e-05,0
6.4873,7.4357e-05,0
6.4878,9.2149e-05,0
6.4883,0.0001039,0
6.4888,0.00010927,0
6.4893,0.00010524,0
6.4899,9.0471e-05,0
6.4904,7.6707e-05,0
6.4909,7.1336e-05,0
6.4914,6.9657e-05,0
6.4919,6.6133e-05,0
6.4925,5.8915e-05,0
6.493,5.0858e-05,0
6.4935,4.5823e-05,0
6.494,4.1962e-05,0
6.4945,3.6759e-05,0
6.4951,2.9374e-05,0
6.4956,2.4002e-05,0
6.4961,2.3499e-05,0
6.4966,2.4674e-05,0
6.4971,1.7288e-05,0
6.4977,-8.7282e-06,0
6.4982,-4.683e-05,0
6.4987,-8.4764e-05,0
6.4992,-0.00012001,0
6.4997,-0.00014804,0
6.5003,-0.00015492,0
6.5008,-0.0001373,0
6.5013,-0.00011196,0
6.5018,-9.0639e-05,0
6.5023,-6.7979e-05,0
6.5028,-3.7095e-05,0
6.5034,-2.182e-06,0
6.5039,2.8031e-05,0
6.5044,4.8005e-05,0
6.5049,5.9586e-05,0
6.5054,7.0665e-05,0
6.506,7.2175e-05,0
6.5065,5.7572e-05,0
6.507,3.8773e-05,0
6.5075,3.2059e-05,0
6.508,3.9612e-05,0
6.5086,4.918e-05,0
6.5091,4.4816e-05,0
6.5096,3.2731e-05,0
6.5101,2.4338e-05,0
6.5106,1.6617e-05,0
6.5112,1.1246e-05,0
6.5117,1.5274e-05,0
6.5122,3.3402e-05,0
6.5127,6.6636e-05,0
6.5132,0.0001034,0
6.5137,0.00013411,0
6.5143,0.00015459,0
6.5148,0.00015895,0
6.5153,0.00015023,0
6.5158,0.0001326,0
6.5163,0.00010491,0
6.5169,7.2175e-05,0
6.5174,4.7166e-05,0
6.5179,4.0116e-05,0
6.5184,3.6927e-05,0
6.5189,2.2995e-05,0
6.5195,3.1891e-06,0
6.52,-1.5946e-05,0
6.5205,-3.9109e-05,0
6.521,-7.3518e-05,0
6.5215,-0.00010323,0
6.5221,-0.00010994,0
6.5226,-9.3492e-05,0
6.5231,-6.8147e-05,0
6.5236,-5.6565e-05,0
6.5241,-6.5965e-05,0
6.5247,-7.57e-05,0
6.5252,-6.2608e-05,0
6.5257,-3.4073e-05,0
6.5262,-7.8889e-06,0
6.5267,1.7624e-05,0
6.5273,5.2201e-05,0
6.5278,8.6778e-05,0
6.5283,0.00010239,0
6.5288,0.00010407,0
6.5293,0.00011128,0
6.5298,0.00012001,0
6.5304,0.00010323,0
6.5309,5.8915e-05,0
6.5314,5.8747e-06,0
6.5319,-4.1123e-05,0
6.5324,-7.4022e-05,0
6.533,-8.6107e-05,0
6.5335,-6.479e-05,0
6.534,-1.7456e-05,0
6.5345,2.9374e-05,0
6.535,6.1601e-05,0
6.5356,8.51e-05,0
6.5361,0.0001039,0
6.5366,0.0001133,0
6.5371,0.00010625,0
6.5376,8.5771e-05,0
6.5382,5.9586e-05,0
6.5387,2.7192e-05,0
6.5392,-1.3931e-05,0
6.5397,-5.6565e-05,0
6.5402,-8.0064e-05,0
6.5408,-7.2175e-05,0
6.5413,-5.8244e-05,0
6.5418,-5.8579e-05,0
6.5423,-5.4551e-05,0
6.5428,-3.3738e-05,0
6.5433,-1.2421e-05,0
6.5439,2.3499e-06,0
6.5444,2.7024e-05,0
6.5449,6.9825e-05,0
6.5454,0.00011901,0
6.5459,0.00015996,0
6.5465,0.00017876,0
6.547,0.00016567,0
6.5475,0.00012706,0
6.548,7.4357e-05,0
6.5485,2.8031e-05,0
6.5491,8.7282e-06,0
6.5496,1.6114e-05,0
6.5501,2.6688e-05,0
6.5506,2.501e-05,0
6.5511,1.6953e-05,0
6.5517,7.5532e-06,0
6.5522,-4.1962e-06,0
6.5527,-1.5274e-05,0
6.5532,-2.031e-05,0
6.5537,-1.9303e-05,0
6.5542,-1.7792e-05,0
6.5548,-2.266e-05,0
6.5553,-3.508e-05,0
6.5558,-4.7166e-05,0
6.5563,-5.1865e-05,0
6.5568,-4.683e-05,0
6.5574,-2.887e-05,0
6.5579,-8.3925e-07,0
6.5584,2.6017e-05,0
6.5589,4.3473e-05,0
6.5594,5.4215e-05,0
6.56,6.5126e-05,0
6.5605,7.7043e-05,0
6.561,8.6946e-05,0
6.5615,9.4163e-05,0
6.562,9.5506e-05,0
6.5626,8.6442e-05,0
6.5631,6.8315e-05,0
6.5636,4.6494e-05,0
6.5641,2.3331e-05,0
6.5646,1.8463e-06,0
6.5652,-1.1917e-05,0
6.5657,-1.8296e-05,0
6.5662,-2.1653e-05,0
6.5667,-2.652e-05,0
6.5672,-3.6591e-05,0
6.5678,-6.4118e-05,0
6.5683,-0.00011565,0
6.5688,-0.00016231,0
6.5693,-0.00018279,0
6.5698,-0.00017977,0
6.5703,-0.00015828,0
6.5709,-0.00012303,0
6.5714,-9.3324e-05,0
6.5719,-8.0735e-05,0
6.5724,-6.4622e-05,0
6.5729,-2.501e-05,0
6.5735,3.4409e-05,0
6.574,9.0974e-05,0
6.5745,0.00012639,0
6.575,0.00014888,0
6.5755,0.00016617,0
6.5761,0.00017842,0
6.5766,0.00018782,0
6.5771,0.00019521,0
6.5776,0.00019857,0
6.5781,0.00019084,0
6.5787,0.00016835,0
6.5792,0.00012605,0
6.5797,7.3686e-05,0
6.5802,3.6423e-05,0
6.5807,2.5345e-05,0
6.5812,2.9709e-05,0
6.5818,2.6352e-05,0
6.5823,1.5946e-05,0
6.5828,7.2175e-06,0
6.5833,4.3641e-06,0
6.5838,1.0575e-05,0
6.5844,1.3092e-05,0
6.5849,-5.0355e-07,0
6.5854,-2.7695e-05,0
6.5859,-5.3544e-05,0
6.5864,-6.3951e-05,0
6.587,-6.1601e-05,0
6.5875,-4.5823e-05,0
6.588,-2.0645e-05,0
6.5885,6.0426e-06,0
6.589,3.3402e-05,0
6.5896,6.4286e-05,0
6.5901,9.6513e-05,0
6.5906,0.00011867,0
6.5911,0.00012387,0
6.5916,0.00011598,0
6.5922,9.8192e-05,0
6.5927,6.8315e-05,0
6.5932,2.887e-05,0
6.5937,-1.1582e-05,0
6.5942,-4.5823e-05,0
6.5948,-7.1336e-05,0
6.5953,-8.8289e-05,0
6.5958,-9.2149e-05,0
6.5963,-8.1743e-05,0
6.5968,-6.2776e-05,0
6.5973,-4.3137e-05,0
6.5979,-2.2324e-05,0
6.5984,4.5319e-06,0
6.5989,3.3738e-05,0
6.5994,6.2943e-05,0
6.5999,9.0806e-05,0
6.6005,0.00010927,0
6.601,0.00011162,0
6.6015,9.8863e-05,0
6.602,7.1e-05,0
6.6025,3.5584e-05,0
6.6031,4.5319e-06,0
6.6036,-1.8967e-05,0
6.6041,-4.3137e-05,0
6.6046,-6.4286e-05,0
6.6051,-6.5965e-05,0
6.6057,-4.4984e-05,0
6.6062,-1.8967e-05,0
6.6067,-1.5106e-06,0
6.6072,1.0239e-05,0
6.6077,2.182e-05,0
6.6082,3.9109e-05,0
6.6088,5.9586e-05,0
6.6093,7.4861e-05,0
6.6098,7.3854e-05,0
6.6103,4.9851e-05,0
6.6108,-2.0142e-06,0
6.6114,-6.8315e-05,0
6.6119,-0.00011749,0
6.6124,-0.00013915,0
6.6129,-0.00014553,0
6.6134,-0.00014015,0
6.614,-0.00012639,0
6.6145,-0.00010927,0
6.615,-8.5603e-05,0
6.6155,-4.7837e-05,0
6.616,4.5319e-06,0
6.6166,5.8915e-05,0
6.6171,9.5003e-05,0
6.6176,0.0001086,0
6.6181,0.00010306,0
6.6186,8.5771e-05,0
6.6192,6.865e-05,0
6.6197,5.3544e-05,0
6.6202,4.9851e-05,0
6.6207,6.2943e-05,0
6.6212,8.6107e-05,0
6.6217,9.8527e-05,0
6.6223,8.51e-05,0
6.6228,7.5029e-05,0
6.6233,9.7688e-05,0
6.6238,0.00014351,0
6.6243,0.00018648,0
6.6249,0.00021787,0
6.6254,0.00023751,0
6.6259,0.00023482,0
6.6264,0.00020998,0
6.6269,0.00019387,0
6.6275,0.00019319,0
6.628,0.00017104,0
6.6285,0.00012052,0
6.629,7.2343e-05,0
6.6295,4.7501e-05,0
6.6301,3.1052e-05,0
6.6306,3.5248e-06,0
6.6311,-3.2731e-05,0
6.6316,-6.7811e-05,0
6.6321,-9.0471e-05,0
6.6327,-0.00010776,0
6.6332,-0.00013898,0
6.6337,-0.00017742,0
6.6342,-0.00019538,0
6.6347,-0.00018413,0
6.6353,-0.00016617,0
6.6358,-0.00015727,0
6.6363,-0.00013747,0
6.6368,-9.5842e-05,0
6.6373,-4.4816e-05,0
6.6378,1.1749e-06,0
6.6384,4.6662e-05,0
6.6389,0.00010054,0
6.6394,0.00015157,0
6.6399,0.00017507,0
6.6404,0.00016315,0
6.641,0.00014553,0
6.6415,0.00014083,0
6.642,0.0001368,0
6.6425,0.00012438,0
6.643,0.00010155,0
6.6436,7.3854e-05,0
6.6441,4.6159e-05,0
6.6446,1.9471e-05,0
6.6451,-3.5248e-06,0
6.6456,-2.0645e-05,0
6.6462,-3.4409e-05,0
6.6467,-4.6159e-05,0
6.6472,-5.3376e-05,0
6.6477,-6.1097e-05,0
6.6482,-6.9993e-05,0
6.6487,-7.2679e-05,0
6.6493,-7.2847e-05,0
6.6498,-7.8721e-05,0
6.6503,-8.8121e-05,0
6.6508,-8.9799e-05,0
6.6513,-7.9057e-05,0
6.6519,-5.4215e-05,0
6.6524,-1.7624e-05,0
6.6529,1.8631e-05,0
6.6534,4.2802e-05,0
6.6539,4.918e-05,0
6.6545,4.2466e-05,0
6.655,3.3738e-05,0
6.6555,3.1556e-05,0
6.656,3.9277e-05,0
6.6565,4.918e-05,0
6.6571,5.4383e-05,0
6.6576,5.9251e-05,0
6.6581,6.6468e-05,0
6.6586,6.4286e-05,0
6.6591,4.7501e-05,0
6.6597,2.6352e-05,0
6.6602,9.0639e-06,0
6.6607,-1.1749e-06,0
6.6612,-5.539e-06,0
6.6617,-8.2246e-06,0
6.6623,-1.5946e-05,0
6.6628,-2.7695e-05,0
6.6633,-3.6759e-05,0
6.6638,-3.2395e-05,0
6.6643,-1.9638e-05,0
6.6648,-7.3854e-06,0
6.6654,1.3428e-06,0
6.6659,9.2317e-06,0
6.6664,1.8631e-05,0
6.6669,2.1653e-05,0
6.6674,1.326e-05,0
6.668,-6.5461e-06,0
6.6685,-2.2156e-05,0
6.669,-1.561e-05,0
6.6695,1.5106e-06,0
6.67,9.5674e-06,0
6.6706,1.5106e-06,0
6.6711,-1.4603e-05,0
6.6716,-2.2995e-05,0
6.6721,-2.0645e-05,0
6.6726,-6.5461e-06,0
6.6732,2.0645e-05,0
6.6737,5.5558e-05,0
6.6742,8.6107e-05,0
6.6747,0.00010524,0
6.6752,0.00011061,0
6.6757,0.00011028,0
6.6763,0.00010591,0
6.6768,9.4835e-05,0
6.6773,7.8386e-05,0
6.6778,6.0594e-05,0
6.6783,4.8173e-05,0
6.6789,3.9445e-05,0
6.6794,2.7359e-05,0
6.6799,1.2757e-05,0
6.6804,-5.0355e-07,0
6.6809,-6.2104e-06,0
6.6815,-5.539e-06,0
6.682,-4.1962e-06,0
6.6825,-5.2033e-06,0
6.683,-1.2421e-05,0
6.6835,-1.6953e-05,0
6.6841,-4.1962e-06,0
6.6846,1.9303e-05,0
6.6851,4.1794e-05,0
6.6856,5.4215e-05,0
6.6861,5.2873e-05,0
6.6867,3.743e-05,0
6.6872,1.2589e-05,0
6.6877,-1.5106e-06,0
6.6882,1.1582e-05,0
6.6887,3.7263e-05,0
6.6893,5.4215e-05,0
6.6898,6.1936e-05,0
6.6903,6.3615e-05,0
6.6908,5.7404e-05,0
6.6913,5.9922e-05,0
6.6918,8.9464e-05,0
6.6924,0.0001274,0
6.6929,0.00012673,0
6.6934,8.1071e-05,0
6.6939,1.9638e-05,0
6.6944,-3.978e-05,0
6.695,-0.00010088,0
6.6955,-0.00016315,0
6.696,-0.00020024,0
6.6965,-0.00019084,0
6.697,-0.00014888,0
6.6976,-9.4835e-05,0
6.6981,-3.2059e-05,0
6.6986,4.0116e-05,0
6.6991,0.00012068,0
6.6996,0.00020612,0
6.7002,0.00028048,0
6.7007,0.00032747,0
6.7012,0.00034946,0
6.7017,0.00034359,0
6.7022,0.00030163,0
6.7027,0.0002313,0
6.7033,0.00015644,0
6.7038,0.00010222,0
6.7043,7.5364e-05,0
6.7048,5.9586e-05,0
6.7053,3.6088e-05,0
6.7059,8.5603e-06,0
6.7064,-1.0575e-05,0
6.7069,-2.1317e-05,0
6.7074,-3.122e-05,0
6.7079,-4.6159e-05,0
6.7085,-6.4286e-05,0
6.709,-8.0232e-05,0
6.7095,-8.9799e-05,0
6.71,-9.2653e-05,0
6.7105,-9.5506e-05,0
6.7111,-0.00010709,0
6.7116,-0.00011766,0
6.7121,-0.0001185,0
6.7126,-0.00011766,0
6.7131,-0.00012589,0
6.7137,-0.00013898,0
6.7142,-0.00013948,0
6.7147,-0.00012119,0
6.7152,-9.3156e-05,0
6.7157,-6.4958e-05,0
6.7162,-3.3234e-05,0
6.7168,-2.0142e-06,0
6.7173,2.1317e-05,0
6.7178,3.4577e-05,0
6.7183,4.1459e-05,0
6.7188,4.6662e-05,0
6.7194,5.2537e-05,0
6.7199,5.0187e-05,0
6.7204,2.2995e-05,0
6.7209,-2.4338e-05,0
6.7214,-7.5532e-05,0
6.722,-0.00011867,0
6.7225,-0.00013814,0
6.723,-0.00012757,0
6.7235,-9.6849e-05,0
6.724,-7.1504e-05,0
6.7246,-5.8579e-05,0
6.7251,-3.6591e-05,0
6.7256,1.8463e-06,0
6.7261,4.8005e-05,0
6.7266,8.7617e-05,0
6.7272,0.00011447,0
6.7277,0.00013277,0
6.7282,0.00014485,0
6.7287,0.00015023,0
6.7292,0.00014351,0
6.7298,0.00011464,0
6.7303,6.8315e-05,0
6.7308,2.9877e-05,0
6.7313,1.8296e-05,0
6.7318,3.8437e-05,0
6.7323,7.5868e-05,0
6.7329,0.00011028,0
6.7334,0.00012941,0
6.7339,0.00013193,0
6.7344,0.00012136,0
6.7349,0.00010222,0
6.7355,9.4499e-05,0
6.736,0.00010826,0
6.7365,0.00012505,0
6.737,0.00012303,0
6.7375,0.00010188,0
6.7381,7.0497e-05,0
6.7386,3.8437e-05,0
6.7391,1.3092e-05,0
6.7396,-3.6927e-06,0
6.7401,-3.8605e-06,0
6.7407,1.1582e-05,0
6.7412,2.6688e-05,0
6.7417,2.6017e-05,0
6.7422,1.8631e-05,0
6.7427,1.561e-05,0
6.7432,1.1246e-05,0
6.7438,1.0071e-06,0
6.7443,-1.0407e-05,0
6.7448,-1.8296e-05,0
6.7453,-2.9038e-05,0
6.7458,-4.448e-05,0
6.7464,-5.6901e-05,0
6.7469,-5.8915e-05,0
6.7474,-5.153e-05,0
6.7479,-4.0452e-05,0
6.7484,-2.9038e-05,0
6.749,-1.4099e-05,0
6.7495,1.2924e-05,0
6.75,4.9516e-05,0
6.7505,7.3014e-05,0
6.751,6.8315e-05,0
6.7516,4.4648e-05,0
6.7521,2.3499e-05,0
6.7526,9.2317e-06,0
6.7531,-1.4771e-05,0
6.7536,-5.8747e-05,0
6.7542,-0.00010893,0
6.7547,-0.00014368,0
6.7552,-0.00016567,0
6.7557,-0.00017473,0
6.7562,-0.00016214,0
6.7568,-0.00012404,0
6.7573,-6.6133e-05,0
6.7578,-2.8534e-06,0
6.7583,5.1362e-05,0
6.7588,9.6178e-05,0
6.7593,0.00013848,0
6.7599,0.0001697,0
6.7604,0.00018111,0
6.7609,0.00017742,0
6.7614,0.00016432,0
6.7619,0.00014217,0
6.7625,0.00011061,0
6.763,7.6204e-05,0
6.7635,5.0019e-05,0
6.764,3.7263e-05,0
6.7645,3.5584e-05,0
6.7651,3.5416e-05,0
6.7656,3.0716e-05,0
6.7661,2.0645e-05,0
6.7666,3.6927e-06,0
6.7671,-1.9974e-05,0
6.7677,-4.9348e-05,0
6.7682,-7.3854e-05,0
6.7687,-7.9561e-05,0
6.7692,-7.6371e-05,0
6.7697,-8.6107e-05,0
6.7702,-0.00010793,0
6.7708,-0.00012538,0
6.7713,-0.00011464,0
6.7718,-7.2007e-05,0
6.7723,-2.031e-05,0
6.7728,2.266e-05,0
6.7734,6.0594e-05,0
6.7739,0.00010054,0
6.7744,0.00014217,0
6.7749,0.00018044,0
6.7754,0.00022475,0
6.776,0.00027108,0
6.7765,0.0002929,0
6.777,0.00027477,0
6.7775,0.0002318,0
6.778,0.00019252,0
6.7786,0.00016214,0
6.7791,0.00012874,0
6.7796,9.1142e-05,0
6.7801,4.9348e-05,0
6.7806,1.6785e-07,0
6.7812,-4.8173e-05,0
6.7817,-8.5603e-05,0
6.7822,-0.00010574,0
6.7827,-0.00010977,0
6.7832,-0.00010658,0
6.7838,-9.6178e-05,0
6.7843,-7.3686e-05,0
6.7848,-4.5487e-05,0
6.7853,-1.8967e-05,0
6.7858,7.0497e-06,0
6.7863,2.9541e-05,0
6.7869,3.7766e-05,0
6.7874,2.4002e-05,0
6.7879,6.0426e-06,0
6.7884,9.3996e-06,0
6.7889,2.501e-05,0
6.7895,2.6352e-05,0
6.79,7.0497e-06,0
6.7905,-1.091e-05,0
6.791,-1.6953e-05,0
6.7915,-2.3163e-05,0
6.7921,-2.9374e-05,0
6.7926,-2.417e-05,0
6.7931,-1.1078e-05,0
6.7936,-1.6785e-07,0
6.7941,6.5461e-06,0
6.7947,1.5274e-05,0
6.7952,2.4506e-05,0
6.7957,2.8031e-05,0
6.7962,2.5681e-05,0
6.7967,2.1149e-05,0
6.7973,2.031e-05,0
6.7978,2.4338e-05,0
6.7983,3.0045e-05,0
6.7988,3.1724e-05,0
6.7993,2.4842e-05,0
6.7998,8.896e-06,0
6.8004,-1.2421e-05,0
6.8009,-4.1459e-05,0
6.8014,-7.8218e-05,0
6.8019,-0.00011514,0
6.8024,-0.00013797,0
6.803,-0.00014284,0
6.8035,-0.00013848,0
6.804,-0.00012807,0
6.8045,-0.00010625,0
6.805,-7.1504e-05,0
6.8056,-2.887e-05,0
6.8061,2.2828e-05,0
6.8066,8.8289e-05,0
6.8071,0.00015023,0
6.8076,0.0001848,0
6.8082,0.00019319,0
6.8087,0.00018833,0
6.8092,0.00017238,0
6.8097,0.00013764,0
6.8102,8.3589e-05,0
6.8107,3.1052e-05,0
6.8113,1.1749e-06,0
6.8118,-4.5319e-06,0
6.8123,3.1891e-06,0
6.8128,1.4603e-05,0
6.8133,2.1988e-05,0
6.8139,3.0716e-05,0
6.8144,4.3305e-05,0
6.8149,5.9754e-05,0
6.8154,8.3925e-05,0
6.8159,0.00011061,0
6.8165,0.00012236,0
6.817,0.00011397,0
6.8175,9.5171e-05,0
6.818,7.8386e-05,0
6.8185,6.63e-05,0
6.8191,5.8076e-05,0
6.8196,4.9012e-05,0
6.8201,3.743e-05,0
6.8206,2.031e-05,0
6.8211,2.182e-06,0
6.8217,-9.5674e-06,0
6.8222,-9.2317e-06,0
6.8227,-1.5106e-06,0
6.8232,4.5319e-06,0
6.8237,2.8534e-06,0
6.8243,1.6785e-07,0
6.8248,2.182e-06,0
6.8253,4.0284e-06,0
6.8258,-5.0355e-07,0
6.8263,-1.2421e-05,0
6.8268,-2.6856e-05,0
6.8274,-3.9109e-05,0
6.8279,-4.8508e-05,0
6.8284,-5.8579e-05,0
6.8289,-6.9657e-05,0
6.8294,-7.4357e-05,0
6.83,-7.0329e-05,0
6.8305,-6.0594e-05,0
6.831,-5.4047e-05,0
6.8315,-4.8508e-05,0
6.832,-3.6423e-05,0
6.8326,-2.1988e-05,0
6.8331,-2.3163e-05,0
6.8336,-4.6326e-05,0
6.8341,-7.1672e-05,0
6.8346,-8.0568e-05,0
6.8352,-7.4022e-05,0
6.8357,-5.5558e-05,0
6.8362,-2.9709e-05,0
6.8367,5.0355e-07,0
6.8372,3.6088e-05,0
6.8377,7.6371e-05,0
6.8383,0.00011565,0
6.8388,0.00014754,0
6.8393,0.00017272,0
6.8398,0.00019051,0
6.8403,0.00020226,0
6.8409,0.00020578,0
6.8414,0.00018547,0
6.8419,0.00013277,0
6.8424,6.8315e-05,0
6.8429,1.8463e-05,0
6.8435,-4.0284e-06,0
6.844,-5.3712e-06,0
6.8445,-1.3428e-06,0
6.845,-1.5106e-06,0
6.8455,-3.1891e-06,0
6.8461,-8.2246e-06,0
6.8466,-1.7456e-05,0
6.8471,-2.5345e-05,0
6.8476,-2.3835e-05,0
6.8481,-1.4099e-05,0
6.8487,-4.8676e-06,0
6.8492,-2.6856e-06,0
6.8497,-5.2033e-06,0
6.8502,-5.539e-06,0
6.8507,3.5248e-06,0
6.8513,2.0981e-05,0
6.8518,4.2802e-05,0
6.8523,6.2272e-05,0
6.8528,6.0929e-05,0
6.8533,3.3906e-05,0
6.8538,-3.0213e-06,0
6.8544,-2.8031e-05,0
6.8549,-3.6423e-05,0
6.8554,-3.0045e-05,0
6.8559,-1.4603e-05,0
6.8564,2.8534e-06,0
6.857,1.2924e-05,0
6.8575,1.9471e-05,0
6.858,3.357e-05,0
6.8585,5.2537e-05,0
6.859,7.1672e-05,0
6.8596,8.6778e-05,0
6.8601,9.9535e-05,0
6.8606,0.00011447,0
6.8611,0.00012824,0
6.8616,0.00013126,0
6.8622,0.00011901,0
6.8627,9.8024e-05,0
6.8632,7.8386e-05,0
6.8637,6.1601e-05,0
6.8642,4.213e-05,0
6.8647,1.8631e-05,0
6.8653,3.1891e-06,0
6.8658,-1.091e-05,0
6.8663,-3.5584e-05,0
6.8668,-6.1265e-05,0
6.8673,-7.7882e-05,0
6.8679,-9.2821e-05,0
6.8684,-0.00011212,0
6.8689,-0.00011649,0
6.8694,-9.5171e-05,0
6.8699,-6.0594e-05,0
6.8705,-2.5681e-05,0
6.871,5.2033e-06,0
6.8715,3.1052e-05,0
6.872,5.0187e-05,0
6.8725,6.7979e-05,0
6.8731,8.3757e-05,0
6.8736,8.7114e-05,0
6.8741,7.6204e-05,0
6.8746,5.8076e-05,0
6.8751,3.508e-05,0
6.8757,9.5674e-06,0
6.8762,-9.9031e-06,0
6.8767,-2.0645e-05,0
6.8772,-2.5345e-05,0
6.8777,-2.5345e-05,0
6.8783,-2.266e-05,0
6.8788,-1.6953e-05,0
6.8793,-8.7282e-06,0
6.8798,0,0
6.8803,4.8676e-06,0
6.8808,-3.5248e-06,0
6.8814,-2.1653e-05,0
6.8819,-3.508e-05,0
6.8824,-3.9445e-05,0
6.8829,-3.9277e-05,0
6.8834,-3.3906e-05,0
6.884,-2.2828e-05,0
6.8845,-6.3783e-06,0
6.885,9.9031e-06,0
6.8855,1.8967e-05,0
6.886,2.1988e-05,0
6.8866,3.1556e-05,0
6.8871,5.539e-05,0
6.8876,9.3156e-05,0
6.8881,0.00013059,0
6.8886,0.00015492,0
6.8892,0.00016735,0
6.8897,0.00017288,0
6.8902,0.00016902,0
6.8907,0.0001561,0
6.8912,0.00014334,0
6.8918,0.00013378,0
6.8923,0.00012438,0
6.8928,0.0001086,0
6.8933,8.0064e-05,0
6.8938,4.213e-05,0
6.8943,9.2317e-06,0
6.8949,-1.5946e-05,0
6.8954,-4.0452e-05,0
6.8959,-7.4861e-05,0
6.8964,-0.00011162,0
6.8969,-0.00014183,0
6.8975,-0.00016449,0
6.898,-0.00018111,0
6.8985,-0.00018682,0
6.899,-0.00017725,0
6.8995,-0.00014318,0
6.9001,-8.7114e-05,0
6.9006,-2.6017e-05,0
6.9011,2.1149e-05,0
6.9016,5.153e-05,0
6.9021,8.6442e-05,0
6.9027,0.0001378,0
6.9032,0.00019319,0
6.9037,0.00022945,0
6.9042,0.00023214,0
6.9047,0.00021518,0
6.9052,0.00019471,0
6.9058,0.00017205,0
6.9063,0.00014553,0
6.9068,0.00012236,0
6.9073,0.00010826,0
6.9078,9.5171e-05,0
6.9084,6.9993e-05,0
6.9089,3.0884e-05,0
6.9094,-6.8818e-06,0
6.9099,-3.1724e-05,0
6.9104,-4.5319e-05,0
6.911,-6.1433e-05,0
6.9115,-8.9464e-05,0
6.912,-0.00011733,0
6.9125,-0.0001321,0
6.913,-0.00013579,0
6.9136,-0.00013344,0
6.9141,-0.00012572,0
6.9146,-0.00010591,0
6.9151,-7.57e-05,0
6.9156,-4.4816e-05,0
6.9162,-3.0045e-05,0
6.9167,-3.1388e-05,0
6.9172,-2.5681e-05,0
6.9177,-1.1749e-06,0
6.9182,2.8534e-05,0
6.9188,4.8844e-05,0
6.9193,5.6565e-05,0
6.9198,6.2272e-05,0
6.9203,7.5029e-05,0
6.9208,9.5842e-05,0
6.9213,0.00011128,0
6.9219,0.00010658,0
6.9224,9.1142e-05,0
6.9229,8.2414e-05,0
6.9234,7.8218e-05,0
6.9239,6.6468e-05,0
6.9245,4.2802e-05,0
6.925,1.6953e-05,0
6.9255,-1.1749e-06,0
6.926,-8.2246e-06,0
6.9265,-1.1246e-05,0
6.9271,-1.9974e-05,0
6.9276,-2.8534e-05,0
6.9281,-3.1891e-05,0
6.9286,-4.0452e-05,0
6.9291,-4.7501e-05,0
6.9297,-4.2298e-05,0
6.9302,-2.7024e-05,0
6.9307,-9.3996e-06,0
6.9312,2.5177e-06,0
6.9317,1.0575e-05,0
6.9322,1.6953e-05,0
6.9328,1.9974e-05,0
6.9333,1.6281e-05,0
6.9338,9.9031e-06,0
6.9343,3.5248e-06,0
6.9348,-6.0426e-06,0
6.9354,-1.4603e-05,0
6.9359,-1.0239e-05,0
6.9364,6.5461e-06,0
6.9369,2.5177e-05,0
6.9374,4.3305e-05,0
6.938,6.3279e-05,0
6.9385,7.9728e-05,0
6.939,8.896e-05,0
6.9395,8.7449e-05,0
6.94,7.805e-05,0
6.9406,6.2272e-05,0
6.9411,4.4144e-05,0
6.9416,2.887e-05,0
6.9421,1.4939e-05,0
6.9426,-5.2033e-06,0
6.9432,-3.3906e-05,0
6.9437,-5.9083e-05,0
6.9442,-6.6636e-05,0
6.9447,-5.8915e-05,0
6.9452,-5.2033e-05,0
6.9458,-4.3473e-05,0
6.9463,-1.6281e-05,0
6.9468,2.5345e-05,0
6.9473,5.7572e-05,0
6.9478,6.8315e-05,0
6.9483,7.2175e-05,0
6.9489,7.8386e-05,0
6.9494,8.1743e-05,0
6.9499,8.0064e-05,0
6.9504,7.7714e-05,0
6.9509,8.5267e-05,0
6.9515,0.00010826,0
6.952,0.00013445,0
6.9525,0.00014166,0
6.953,0.00012941,0
6.9535,0.00011582,0
6.9541,0.00010961,0
6.9546,0.00010121,0
6.9551,7.3182e-05,0
6.9556,2.9374e-05,0
6.9561,-3.1891e-06,0
6.9567,-1.4939e-05,0
6.9572,-1.9303e-05,0
6.9577,-2.7024e-05,0
6.9582,-3.6423e-05,0
6.9587,-4.4144e-05,0
6.9592,-5.2537e-05,0
6.9598,-6.7811e-05,0
6.9603,-9.2149e-05,0
6.9608,-0.00013462,0
6.9613,-0.00018749,0
6.9618,-0.00021518,0
6.9624,-0.00021099,0
6.9629,-0.00019521,0
6.9634,-0.00017977,0
6.9639,-0.00015828,0
6.9644,-0.00012186,0
6.965,-7.3686e-05,0
6.9655,-2.8031e-05,0
6.966,1.2589e-05,0
6.9665,4.3137e-05,0
6.967,7.3518e-05,0
6.9676,0.00012773,0
6.9681,0.00019269,0
6.9686,0.00024288,0
6.9691,0.00027041,0
6.9696,0.0002788,0
6.9702,0.00027141,0
6.9707,0.00026302,0
6.9712,0.00027007,0
6.9717,0.00028551,0
6.9722,0.0002788,0
6.9727,0.00023281,0
6.9733,0.00016835,0
6.9738,0.00011598,0
6.9743,8.4092e-05,0
6.9748,5.6733e-05,0
6.9753,2.5513e-05,0
6.9759,-5.0355e-07,0
6.9764,-1.5778e-05,0
6.9769,-2.8702e-05,0
6.9774,-4.4144e-05,0
6.9779,-5.7237e-05,0
6.9785,-5.9251e-05,0
6.979,-5.2201e-05,0
6.9795,-4.8676e-05,0
6.98,-5.7908e-05,0
6.9805,-7.2007e-05,0
6.9811,-7.9896e-05,0
6.9816,-8.2582e-05,0
6.9821,-8.2414e-05,0
6.9826,-8.0064e-05,0
6.9831,-7.2679e-05,0
6.9837,-5.8579e-05,0
6.9842,-4.3305e-05,0
6.9847,-2.6184e-05,0
6.9852,-5.2033e-06,0
6.9857,1.1246e-05,0
6.9863,1.5946e-05,0
6.9868,1.3092e-05,0
6.9873,1.1582e-05,0
6.9878,1.0239e-05,0
6.9883,6.714e-06,0
6.9888,4.6998e-06,0
6.9894,4.6998e-06,0
6.9899,-1.8463e-06,0
6.9904,-1.2589e-05,0
6.9909,-2.031e-05,0
6.9914,-2.652e-05,0
6.992,-3.122e-05,0
6.9925,-2.7359e-05,0
6.993,-1.3596e-05,0
6.9935,2.6856e-06,0
6.994,1.4603e-05,0
6.9946,1.9806e-05,0
6.9951,2.1317e-05,0
6.9956,1.5778e-05,0
6.9961,1.8463e-06,0
6.9966,-1.6281e-05,0
6.9972,-2.9877e-05,0
6.9977,-3.3066e-05,0
6.9982,-2.5681e-05,0
6.9987,-1.7121e-05,0
6.9992,-1.3931e-05,0
6.9997,-7.8889e-06,0
7.0003,2.182e-06,0
7.0008,1.5274e-05,0
7.0013,3.2898e-05,0
7.0018,5.3208e-05,0
7.0023,7.4189e-05,0
7.0029,9.0471e-05,0
7.0034,9.8695e-05,0
7.0039,9.7688e-05,0
7.0044,8.2414e-05,0
7.0049,5.9586e-05,0
7.0055,4.7166e-05,0
7.006,3.592e-05,0
7.0065,4.1962e-06,0
7.007,-4.2634e-05,0
7.0075,-7.5364e-05,0
7.0081,-7.5364e-05,0
7.0086,-5.6733e-05,0
7.0091,-3.5416e-05,0
7.0096,-1.3596e-05,0
7.0101,1.1917e-05,0
7.0107,3.743e-05,0
7.0112,6.4286e-05,0
7.0117,9.1646e-05,0
7.0122,0.00010994,0
7.0127,0.00010927,0
7.0133,9.5171e-05,0
7.0138,8.6778e-05,0
7.0143,9.2988e-05,0
7.0148,0.00010256,0
7.0153,0.00010491,0
7.0158,0.00010373,0
7.0164,0.00010423,0
7.0169,0.0001044,0
7.0174,9.8527e-05,0
7.0179,8.4932e-05,0
7.0184,7.1672e-05,0
7.019,6.3111e-05,0
7.0195,5.0187e-05,0
7.02,3.3066e-05,0
7.0205,2.5513e-05,0
7.021,2.5849e-05,0
7.0216,2.266e-05,0
7.0221,1.1749e-05,0
7.0226,-7.5532e-06,0
7.0231,-3.4577e-05,0
7.0236,-5.9251e-05,0
7.0242,-7.1672e-05,0
7.0247,-7.4022e-05,0
7.0252,-6.865e-05,0
7.0257,-5.5558e-05,0
7.0262,-4.2802e-05,0
7.0267,-3.827e-05,0
7.0273,-3.7766e-05,0
7.0278,-4.1291e-05,0
7.0283,-5.2201e-05,0
7.0288,-7.0665e-05,0
7.0293,-8.8792e-05,0
7.0299,-8.8457e-05,0
7.0304,-7.2007e-05,0
7.0309,-5.8244e-05,0
7.0314,-4.683e-05,0
7.0319,-2.2324e-05,0
7.0325,2.7024e-05,0
7.033,9.1478e-05,0
7.0335,0.00014519,0
7.034,0.00016802,0
7.0345,0.00016617,0
7.0351,0.00015828,0
7.0356,0.00014284,0
7.0361,0.00010961,0
7.0366,6.5629e-05,0
7.0371,2.4002e-05,0
7.0377,-2.3667e-05,0
7.0382,-7.7546e-05,0
7.0387,-0.00011783,0
7.0392,-0.00013193,0
7.0397,-0.00012337,0
7.0403,-9.7185e-05,0
7.0408,-5.0523e-05,0
7.0413,1.4939e-05,0
7.0418,7.9561e-05,0
7.0423,0.00012152,0
7.0428,0.0001415,0
7.0434,0.00015744,0
7.0439,0.0001754,0
7.0444,0.00019202,0
7.0449,0.00020444,0
7.0454,0.00020629,0
7.046,0.00018984,0
7.0465,0.00015593,0
7.047,0.00011666,0
7.0475,8.2078e-05,0
7.048,5.623e-05,0
7.0486,3.7766e-05,0
7.0491,1.8463e-05,0
7.0496,-4.8676e-06,0
7.0501,-3.0381e-05,0
7.0506,-5.4719e-05,0
7.0512,-7.2007e-05,0
7.0517,-8.1743e-05,0
7.0522,-8.4764e-05,0
7.0527,-8.04e-05,0
7.0532,-7.1e-05,0
7.0537,-5.7572e-05,0
7.0543,-4.1459e-05,0
7.0548,-2.5849e-05,0
7.0553,-1.2924e-05,0
7.0558,-4.1962e-06,0
7.0563,-8.3925e-06,0
7.0569,-3.5416e-05,0
7.0574,-7.7043e-05,0
7.0579,-0.00011028,0
7.0584,-0.00012538,0
7.0589,-0.00012538,0
7.0595,-0.00011481,0
7.06,-9.8192e-05,0
7.0605,-7.7211e-05,0
7.061,-4.6159e-05,0
7.0615,-4.1962e-06,0
7.0621,3.743e-05,0
7.0626,7.2007e-05,0
7.0631,9.9702e-05,0
7.0636,0.00012236,0
7.0641,0.00014015,0
7.0647,0.00015073,0
7.0652,0.00014821,0
7.0657,0.0001378,0
7.0662,0.0001284,0
7.0667,0.00011867,0
7.0672,0.00010709,0
7.0678,9.4499e-05,0
7.0683,7.9057e-05,0
7.0688,6.0258e-05,0
7.0693,4.5487e-05,0
7.0698,3.9612e-05,0
7.0704,3.4745e-05,0
7.0709,3.1724e-05,0
7.0714,3.1388e-05,0
7.0719,2.3163e-05,0
7.0724,-1.3428e-06,0
7.073,-3.5584e-05,0
7.0735,-6.2608e-05,0
7.074,-7.1e-05,0
7.0745,-6.5965e-05,0
7.075,-5.069e-05,0
7.0756,-2.887e-05,0
7.0761,-1.1917e-05,0
7.0766,-5.2033e-06,0
7.0771,-1.5274e-05,0
7.0776,-3.6423e-05,0
7.0782,-5.3544e-05,0
7.0787,-5.3208e-05,0
7.0792,-3.6423e-05,0
7.0797,-1.5778e-05,0
7.0802,-1.8463e-06,0
7.0808,4.5319e-06,0
7.0813,7.2175e-06,0
7.0818,1.8967e-05,0
7.0823,4.213e-05,0
7.0828,6.1936e-05,0
7.0833,7.2679e-05,0
7.0839,6.7308e-05,0
7.0844,3.743e-05,0
7.0849,-2.5177e-06,0
7.0854,-3.6423e-05,0
7.0859,-6.2272e-05,0
7.0865,-7.1336e-05,0
7.087,-6.1936e-05,0
7.0875,-4.062e-05,0
7.088,-1.561e-05,0
7.0885,5.8747e-06,0
7.0891,2.1149e-05,0
7.0896,3.508e-05,0
7.0901,6.1601e-05,0
7.0906,0.0001086,0
7.0911,0.00015677,0
7.0917,0.00017893,0
7.0922,0.000166,0
7.0927,0.00014015,0
7.0932,0.00012807,0
7.0937,0.00013277,0
7.0942,0.00014318,0
7.0948,0.00014788,0
7.0953,0.00014166,0
7.0958,0.00012337,0
7.0963,9.601e-05,0
7.0968,6.4286e-05,0
7.0974,3.4073e-05,0
7.0979,8.0568e-06,0
7.0984,-1.091e-05,0
7.0989,-2.5345e-05,0
7.0994,-4.0284e-05,0
7.1,-5.2537e-05,0
7.1005,-5.1362e-05,0
7.101,-3.6591e-05,0
7.1015,-2.1653e-05,0
7.102,-1.091e-05,0
7.1026,-3.357e-07,0
7.1031,1.2757e-05,0
7.1036,2.266e-05,0
7.1041,1.9303e-05,0
7.1046,5.8747e-06,0
7.1052,-6.0426e-06,0
7.1057,-1.2924e-05,0
7.1062,-1.8463e-05,0
7.1067,-2.8367e-05,0
7.1072,-3.6759e-05,0
7.1078,-3.6423e-05,0
7.1083,-3.3906e-05,0
7.1088,-3.8773e-05,0
7.1093,-4.918e-05,0
7.1098,-6.1601e-05,0
7.1103,-7.4022e-05,0
7.1109,-8.4764e-05,0
7.1114,-9.1478e-05,0
7.1119,-9.3492e-05,0
7.1124,-9.1478e-05,0
7.1129,-8.0903e-05,0
7.1135,-5.5558e-05,0
7.114,-1.9806e-05,0
7.1145,2.2324e-05,0
7.115,7.6204e-05,0
7.1155,0.0001227,0
7.1161,0.00014871,0
7.1166,0.00015744,0
7.1171,0.00015291,0
7.1176,0.00013864,0
7.1181,0.00011615,0
7.1187,8.5435e-05,0
7.1192,4.683e-05,0
7.1197,6.0426e-06,0
7.1202,-3.0716e-05,0
7.1207,-5.5726e-05,0
7.1212,-6.7643e-05,0
7.1218,-6.9993e-05,0
7.1223,-7.2847e-05,0
7.1228,-8.5603e-05,0
7.1233,-0.0001044,0
7.1238,-0.0001138,0
7.1244,-9.366e-05,0
7.1249,-4.448e-05,0
7.1254,1.4267e-05,0
7.1259,6.9993e-05,0
7.1264,0.00012035,0
7.127,0.00015358,0
7.1275,0.00015862,0
7.128,0.00013848,0
7.1285,0.00011498,0
7.129,0.00010121,0
7.1296,8.9967e-05,0
7.1301,7.1168e-05,0
7.1306,3.8102e-05,0
7.1311,-2.8534e-06,0
7.1316,-3.5752e-05,0
7.1322,-4.2802e-05,0
7.1327,-1.9974e-05,0
7.1332,1.5442e-05,0
7.1337,5.0858e-05,0
7.1342,8.7785e-05,0
7.1348,0.00012421,0
7.1353,0.00015895,0
7.1358,0.00018782,0
7.1363,0.00020125,0
7.1368,0.00018984,0
7.1373,0.00017154,0
7.1379,0.00015694,0
7.1384,0.00012857,0
7.1389,7.6707e-05,0
7.1394,2.5849e-05,0
7.1399,-5.3712e-06,0
7.1405,-3.2395e-05,0
7.141,-6.1936e-05,0
7.1415,-8.0735e-05,0
7.142,-8.4428e-05,0
7.1425,-8.0735e-05,0
7.1431,-7.2007e-05,0
7.1436,-6.3111e-05,0
7.1441,-6.4286e-05,0
7.1446,-6.8315e-05,0
7.1451,-6.0929e-05,0
7.1457,-5.153e-05,0
7.1462,-4.6326e-05,0
7.1467,-3.6423e-05,0
7.1472,-1.7624e-05,0
7.1477,2.8534e-06,0
7.1482,1.4603e-05,0
7.1488,1.2253e-05,0
7.1493,7.5532e-06,0
7.1498,1.3931e-05,0
7.1503,3.0549e-05,0
7.1508,4.3977e-05,0
7.1514,5.2201e-05,0
7.1519,5.8747e-05,0
7.1524,5.6062e-05,0
7.1529,3.9445e-05,0
7.1534,1.9806e-05,0
7.154,1.0575e-05,0
7.1545,1.4603e-05,0
7.155,1.6281e-05,0
7.1555,3.1891e-06,0
7.156,-2.031e-05,0
7.1566,-4.3473e-05,0
7.1571,-6.244e-05,0
7.1576,-7.3518e-05,0
7.1581,-7.7043e-05,0
7.1586,-7.2343e-05,0
7.1592,-5.1362e-05,0
7.1597,-1.4435e-05,0
7.1602,2.4338e-05,0
7.1607,5.4887e-05,0
7.1612,7.6204e-05,0
7.1617,8.51e-05,0
7.1623,8.4428e-05,0
7.1628,8.0064e-05,0
7.1633,7.5364e-05,0
7.1638,7.805e-05,0
7.1643,7.9561e-05,0
7.1649,6.6972e-05,0
7.1654,4.5823e-05,0
7.1659,3.6759e-05,0
7.1664,4.8173e-05,0
7.1669,6.8147e-05,0
7.1675,8.9128e-05,0
7.168,0.00010591,0
7.1685,0.00010793,0
7.169,9.3324e-05,0
7.1695,6.8818e-05,0
7.1701,4.2802e-05,0
7.1706,2.1653e-05,0
7.1711,5.2033e-06,0
7.1716,-9.5674e-06,0
7.1721,-2.1653e-05,0
7.1727,-3.0213e-05,0
7.1732,-4.0787e-05,0
7.1737,-5.153e-05,0
7.1742,-4.9516e-05,0
7.1747,-3.4409e-05,0
7.1753,-1.1917e-05,0
7.1758,1.561e-05,0
7.1763,4.5487e-05,0
7.1768,6.7811e-05,0
7.1773,7.0329e-05,0
7.1778,5.7237e-05,0
7.1784,4.0452e-05,0
7.1789,2.4674e-05,0
7.1794,6.5461e-06,0
7.1799,-1.3428e-05,0
7.1804,-2.5681e-05,0
7.181,-3.1052e-05,0
7.1815,-3.4745e-05,0
7.182,-4.1459e-05,0
7.1825,-5.3544e-05,0
7.183,-6.6636e-05,0
7.1836,-8.04e-05,0
7.1841,-9.7185e-05,0
7.1846,-0.00011347,0
7.1851,-0.00012387,0
7.1856,-0.00011296,0
7.1862,-7.6875e-05,0
7.1867,-3.0549e-05,0
7.1872,1.8631e-05,0
7.1877,6.7643e-05,0
7.1882,0.00010759,0
7.1887,0.00013646,0
7.1893,0.0001603,0
7.1898,0.00017876,0
7.1903,0.00018379,0
7.1908,0.00017288,0
7.1913,0.00014569,0
7.1919,0.00010608,0
7.1924,6.6636e-05,0
7.1929,3.9109e-05,0
7.1934,2.1988e-05,0
7.1939,1.1917e-05,0
7.1945,5.539e-06,0
7.195,8.3925e-07,0
7.1955,-2.6856e-06,0
7.196,-3.8605e-06,0
7.1965,-1.3428e-06,0
7.1971,3.8605e-06,0
7.1976,5.7069e-06,0
7.1981,2.5177e-06,0
7.1986,-4.8676e-06,0
7.1991,-1.4939e-05,0
7.1997,-2.3331e-05,0
7.2002,-3.2059e-05,0
7.2007,-4.0116e-05,0
7.2012,-4.213e-05,0
7.2017,-3.8773e-05,0
7.2023,-3.6088e-05,0
7.2028,-3.592e-05,0
7.2033,-3.3402e-05,0
7.2038,-2.031e-05,0
7.2043,-1.1749e-06,0
7.2048,6.2104e-06,0
7.2054,-2.3499e-06,0
7.2059,-1.5106e-06,0
7.2064,2.266e-05,0
7.2069,5.539e-05,0
7.2074,7.6204e-05,0
7.208,8.04e-05,0
7.2085,7.2343e-05,0
7.209,6.2272e-05,0
7.2095,5.3544e-05,0
7.21,4.918e-05,0
7.2106,5.3376e-05,0
7.2111,6.0929e-05,0
7.2116,6.3279e-05,0
7.2121,5.8579e-05,0
7.2126,5.7908e-05,0
7.2132,7.1e-05,0
7.2137,9.8192e-05,0
7.2142,0.00012589,0
7.2147,0.00013613,0
7.2152,0.00012303,0
7.2157,9.6513e-05,0
7.2163,6.3447e-05,0
7.2168,2.4842e-05,0
7.2173,-1.326e-05,0
7.2178,-4.918e-05,0
7.2183,-8.3421e-05,0
7.2189,-0.00010642,0
7.2194,-0.00010776,0
7.2199,-8.8792e-05,0
7.2204,-5.6062e-05,0
7.2209,-1.7288e-05,0
7.2215,2.5345e-05,0
7.222,6.1936e-05,0
7.2225,7.2343e-05,0
7.223,5.6901e-05,0
7.2235,3.9277e-05,0
7.2241,3.1556e-05,0
7.2246,3.3402e-05,0
7.2251,4.2466e-05,0
7.2256,4.8844e-05,0
7.2261,4.8508e-05,0
7.2267,4.2802e-05,0
7.2272,3.2059e-05,0
7.2277,1.4603e-05,0
7.2282,1.0071e-06,0
7.2287,1.2924e-05,0
7.2293,5.1362e-05,0
7.2298,8.4428e-05,0
7.2303,8.8289e-05,0
7.2308,6.6636e-05,0
7.2313,4.4816e-05,0
7.2318,3.7766e-05,0
7.2324,3.7934e-05,0
7.2329,3.3738e-05,0
7.2334,2.266e-05,0
7.2339,-3.357e-07,0
7.2344,-4.2298e-05,0
7.235,-8.9464e-05,0
7.2355,-0.00011598,0
7.236,-0.00010843,0
7.2365,-8.7114e-05,0
7.237,-7.4357e-05,0
7.2376,-7.2679e-05,0
7.2381,-6.8315e-05,0
7.2386,-4.9851e-05,0
7.2391,-3.1388e-05,0
7.2396,-3.357e-05,0
7.2402,-4.2466e-05,0
7.2407,-3.508e-05,0
7.2412,-1.561e-05,0
7.2417,-5.0355e-07,0
7.2422,1.326e-05,0
7.2428,3.6423e-05,0
7.2433,7.2847e-05,0
7.2438,0.00011615,0
7.2443,0.00015946,0
7.2448,0.00019823,0
7.2453,0.00022844,0
7.2459,0.00024892,0
7.2464,0.00026235,0
7.2469,0.00025966,0
7.2474,0.00022509,0
7.2479,0.0001603,0
7.2485,8.9799e-05,0
7.249,3.6591e-05,0
7.2495,1.1749e-06,0
7.25,-2.2492e-05,0
7.2505,-3.7263e-05,0
7.2511,-4.1794e-05,0
7.2516,-4.1123e-05,0
7.2521,-4.0787e-05,0
7.2526,-4.683e-05,0
7.2531,-5.623e-05,0
7.2537,-6.2104e-05,0
7.2542,-6.0258e-05,0
7.2547,-5.5558e-05,0
7.2552,-5.2033e-05,0
7.2557,-4.5823e-05,0
7.2562,-3.508e-05,0
7.2568,-2.5681e-05,0
7.2573,-2.0645e-05,0
7.2578,-1.9135e-05,0
7.2583,-1.9303e-05,0
7.2588,-2.0645e-05,0
7.2594,-2.417e-05,0
7.2599,-3.0213e-05,0
7.2604,-3.4073e-05,0
7.2609,-3.743e-05,0
7.2614,-3.9612e-05,0
7.262,-3.5752e-05,0
7.2625,-2.266e-05,0
7.263,-5.0355e-06,0
7.2635,7.8889e-06,0
7.264,1.2253e-05,0
7.2646,1.3931e-05,0
7.2651,1.9303e-05,0
7.2656,2.5345e-05,0
7.2661,2.0645e-05,0
7.2666,6.8818e-06,0
7.2672,-4.3641e-06,0
7.2677,-7.8889e-06,0
7.2682,-9.2317e-06,0
7.2687,-1.4099e-05,0
7.2692,-1.8296e-05,0
7.2698,-1.4267e-05,0
7.2703,-5.0355e-06,0
7.2708,2.0142e-06,0
7.2713,5.2033e-06,0
7.2718,1.0239e-05,0
7.2723,2.1988e-05,0
7.2729,4.0452e-05,0
7.2734,5.5894e-05,0
7.2739,6.5293e-05,0
7.2744,7.1e-05,0
7.2749,7.57e-05,0
7.2755,7.8218e-05,0
7.276,6.7643e-05,0
7.2765,4.5487e-05,0
7.277,2.0645e-05,0
7.2775,2.5177e-06,0
7.2781,-1.0239e-05,0
7.2786,-2.2324e-05,0
7.2791,-2.9038e-05,0
7.2796,-2.4338e-05,0
7.2801,-1.0071e-05,0
7.2807,5.2033e-06,0
7.2812,2.2324e-05,0
7.2817,4.9516e-05,0
7.2822,7.9561e-05,0
7.2827,0.00010121,0
7.2832,0.00011263,0
7.2838,0.00011263,0
7.2843,9.752e-05,0
7.2848,7.8553e-05,0
7.2853,6.7308e-05,0
7.2858,6.1936e-05,0
7.2864,5.623e-05,0
7.2869,4.2298e-05,0
7.2874,2.2492e-05,0
7.2879,4.5319e-06,0
7.2884,3.357e-07,0
7.289,5.8747e-06,0
7.2895,7.8889e-06,0
7.29,-1.1749e-06,0
7.2905,-4.8676e-06,0
7.291,5.0355e-06,0
7.2916,1.2085e-05,0
7.2921,7.5532e-06,0
7.2926,5.0355e-07,0
7.2931,-8.2246e-06,0
7.2936,-1.9303e-05,0
7.2942,-2.1317e-05,0
7.2947,-1.5106e-05,0
7.2952,-2.4002e-05,0
7.2957,-4.3809e-05,0
7.2962,-5.069e-05,0
7.2968,-3.8102e-05,0
7.2973,-9.7353e-06,0
7.2978,2.3667e-05,0
7.2983,4.7501e-05,0
7.2988,6.3447e-05,0
7.2993,8.2078e-05,0
7.2999,0.00010188,0
7.3004,0.00011548,0
7.3009,0.00012975,0
7.3014,0.00015341,0
7.3019,0.00017389,0
7.3025,0.00017473,0
7.303,0.00015341,0
7.3035,0.00011632,0
7.304,7.6371e-05,0
7.3045,4.3641e-05,0
7.3051,1.7121e-05,0
7.3056,-1.8631e-05,0
7.3061,-7.2343e-05,0
7.3066,-0.00012387,0
7.3071,-0.00015291,0
7.3077,-0.00017154,0
7.3082,-0.00020276,0
7.3087,-0.0002548,0
7.3092,-0.00030784,0
7.3097,-0.00032093,0
7.3102,-0.00027359,0
7.3108,-0.00019521,0
7.3113,-0.00012555,0
7.3118,-6.4958e-05,0
7.3123,5.8747e-06,0
7.3128,8.8457e-05,0
7.3134,0.000166,0
7.3139,0.00023919,0
7.3144,0.00031606,0
7.3149,0.0003738,0
7.3154,0.00039663,0
7.316,0.00039109,0
7.3165,0.00036339,0
7.317,0.0003117,0
7.3175,0.00025278,0
7.318,0.00020645,0
7.3186,0.00016835,0
7.3191,0.00012605,0
7.3196,7.5029e-05,0
7.3201,2.4338e-05,0
7.3206,-1.091e-05,0
7.3212,-2.3499e-05,0
7.3217,-1.6281e-05,0
7.3222,-4.5319e-06,0
7.3227,0,0
7.3232,-4.5319e-06,0
7.3238,-1.6281e-05,0
7.3243,-2.4002e-05,0
7.3248,-2.417e-05,0
7.3253,-2.1653e-05,0
7.3258,-1.8967e-05,0
7.3263,-2.266e-05,0
7.3269,-2.7695e-05,0
7.3274,-3.122e-05,0
7.3279,-3.7934e-05,0
7.3284,-5.2033e-05,0
7.3289,-6.8315e-05,0
7.3295,-7.5364e-05,0
7.33,-7.3014e-05,0
7.3305,-6.63e-05,0
7.331,-5.623e-05,0
7.3315,-4.3137e-05,0
7.3321,-2.9709e-05,0
7.3326,-2.1988e-05,0
7.3331,-1.8799e-05,0
7.3336,-1.2757e-05,0
7.3341,-7.2175e-06,0
7.3347,-6.0426e-06,0
7.3352,-6.0426e-06,0
7.3357,-1.8463e-06,0
7.3362,9.5674e-06,0
7.3367,2.266e-05,0
7.3373,3.508e-05,0
7.3378,4.6494e-05,0
7.3383,5.0523e-05,0
7.3388,3.8102e-05,0
7.3393,3.357e-06,0
7.3398,-4.8844e-05,0
7.3404,-9.1478e-05,0
7.3409,-0.00010121,0
7.3414,-8.6442e-05,0
7.3419,-6.7475e-05,0
7.3424,-5.1698e-05,0
7.343,-3.2563e-05,0
7.3435,-1.0575e-05,0
7.344,2.182e-06,0
7.3445,1.3428e-06,0
7.345,-2.5177e-06,0
7.3456,3.1891e-06,0
7.3461,1.796e-05,0
7.3466,3.6423e-05,0
7.3471,4.9516e-05,0
7.3476,5.5894e-05,0
7.3482,6.3447e-05,0
7.3487,6.8818e-05,0
7.3492,6.949e-05,0
7.3497,7.1672e-05,0
7.3502,7.7546e-05,0
7.3507,7.7714e-05,0
7.3513,6.1601e-05,0
7.3518,2.5177e-05,0
7.3523,-3.1052e-05,0
7.3528,-9.0471e-05,0
7.3533,-0.00012706,0
7.3539,-0.00013176,0
7.3544,-0.00011514,0
7.3549,-9.0303e-05,0
7.3554,-5.9754e-05,0
7.3559,-2.2492e-05,0
7.3565,1.9806e-05,0
7.357,6.7475e-05,0
7.3575,0.00012035,0
7.358,0.00016768,0
7.3585,0.00019622,0
7.3591,0.0002036,0
7.3596,0.00019689,0
7.3601,0.0001843,0
7.3606,0.00016147,0
7.3611,0.00012941,0
7.3617,0.00010172,0
7.3622,8.2918e-05,0
7.3627,6.7979e-05,0
7.3632,4.6494e-05,0
7.3637,1.0239e-05,0
7.3643,-4.062e-05,0
7.3648,-9.0135e-05,0
7.3653,-0.00012169,0
7.3658,-0.00012891,0
7.3663,-0.00011414,0
7.3668,-9.0471e-05,0
7.3674,-6.7979e-05,0
7.3679,-5.5894e-05,0
7.3684,-5.0187e-05,0
7.3689,-2.6352e-05,0
7.3694,1.9974e-05,0
7.37,6.4958e-05,0
7.3705,8.8457e-05,0
7.371,9.3828e-05,0
7.3715,9.2485e-05,0
7.372,9.0974e-05,0
7.3726,9.6513e-05,0
7.3731,0.00011061,0
7.3736,0.00012471,0
7.3741,0.00012773,0
7.3746,0.00011531,0
7.3752,9.5506e-05,0
7.3757,7.5364e-05,0
7.3762,5.4887e-05,0
7.3767,3.0549e-05,0
7.3772,5.8747e-06,0
7.3777,-2.8534e-06,0
7.3783,9.7353e-06,0
7.3788,2.6017e-05,0
7.3793,3.0549e-05,0
7.3798,2.7527e-05,0
7.3803,2.2995e-05,0
7.3809,2.0981e-05,0
7.3814,1.9135e-05,0
7.3819,1.1917e-05,0
7.3824,-3.5248e-06,0
7.3829,-1.4939e-05,0
7.3835,-1.3596e-05,0
7.384,-1.1582e-05,0
7.3845,-1.9303e-05,0
7.385,-3.3402e-05,0
7.3855,-3.8773e-05,0
7.3861,-3.5752e-05,0
7.3866,-3.5584e-05,0
7.3871,-3.7766e-05,0
7.3876,-3.6759e-05,0
7.3881,-4.3137e-05,0
7.3887,-6.4286e-05,0
7.3892,-8.5435e-05,0
7.3897,-7.9225e-05,0
7.3902,-4.7837e-05,0
7.3907,-3.3234e-05,0
7.3913,-6.7643e-05,0
7.3918,-0.00012673,0
7.3923,-0.00016953,0
7.3928,-0.00017305,0
7.3933,-0.00013462,0
7.3938,-6.5965e-05,0
7.3944,1.8967e-05,0
7.3949,9.8695e-05,0
7.3954,0.0001566,0
7.3959,0.00019168,0
7.3964,0.00021871,0
7.397,0.00025161,0
7.3975,0.00028837,0
7.398,0.00031942,0
7.3985,0.00032479,0
7.399,0.0002892,0
7.3996,0.00021804,0
7.4001,0.00013075,0
7.4006,5.3544e-05,0
7.4011,7.5532e-06,0
7.4016,-4.8676e-06,0
7.4022,5.8747e-06,0
7.4027,1.7624e-05,0
7.4032,1.3931e-05,0
7.4037,-3.357e-06,0
7.4042,-2.8702e-05,0
7.4047,-5.5558e-05,0
7.4053,-8.0735e-05,0
7.4058,-0.00010491,0
7.4063,-0.00012605,0
7.4068,-0.00014569,0
7.4073,-0.00017188,0
7.4079,-0.00021065,0
7.4084,-0.00023986,0
7.4089,-0.00023717,0
7.4094,-0.00019974,0
7.4099,-0.00012908,0
7.4105,-3.2395e-05,0
7.411,6.8315e-05,0
7.4115,0.00015677,0
7.412,0.00023365,0
7.4125,0.00029323,0
7.4131,0.00033016,0
7.4136,0.00034829,0
7.4141,0.0003451,0
7.4146,0.00031606,0
7.4151,0.00026571,0
7.4157,0.00020562,0
7.4162,0.00014804,0
7.4167,0.00010088,0
7.4172,6.4286e-05,0
7.4177,3.3738e-05,0
7.4182,8.896e-06,0
7.4188,-9.2317e-06,0
7.4193,-2.6017e-05,0
7.4198,-4.1459e-05,0
7.4203,-5.5894e-05,0
7.4208,-6.5965e-05,0
7.4214,-7.6707e-05,0
7.4219,-9.4163e-05,0
7.4224,-0.00012052,0
7.4229,-0.00015224,0
7.4234,-0.0001749,0
7.424,-0.00017423,0
7.4245,-0.00015325,0
7.425,-0.0001274,0
7.4255,-0.00010658,0
7.426,-9.131e-05,0
7.4266,-7.7714e-05,0
7.4271,-6.1936e-05,0
7.4276,-4.3305e-05,0
7.4281,-2.4674e-05,0
7.4286,-1.6785e-06,0
7.4292,2.4338e-05,0
7.4297,4.7333e-05,0
7.4302,6.5629e-05,0
7.4307,7.5868e-05,0
7.4312,8.3085e-05,0
7.4318,9.1814e-05,0
7.4323,9.8527e-05,0
7.4328,0.00010256,0
7.4333,9.6513e-05,0
7.4338,7.1e-05,0
7.4343,1.9974e-05,0
7.4349,-4.0452e-05,0
7.4354,-8.2918e-05,0
7.4359,-9.7185e-05,0
7.4364,-9.1981e-05,0
7.4369,-7.1336e-05,0
7.4375,-3.827e-05,0
7.438,-2.6856e-06,0
7.4385,2.5849e-05,0
7.439,4.683e-05,0
7.4395,7.1e-05,0
7.4401,9.601e-05,0
7.4406,0.00011263,0
7.4411,0.00011363,0
7.4416,9.4499e-05,0
7.4421,7.2007e-05,0
7.4427,5.3376e-05,0
7.4432,2.2324e-05,0
7.4437,-2.3667e-05,0
7.4442,-6.9322e-05,0
7.4447,-0.00010222,0
7.4452,-0.00011666,0
7.4458,-0.00011279,0
7.4463,-9.9702e-05,0
7.4468,-8.896e-05,0
7.4473,-8.1575e-05,0
7.4478,-6.3279e-05,0
7.4484,-2.5177e-05,0
7.4489,2.2324e-05,0
7.4494,6.7979e-05,0
7.4499,0.00010658,0
7.4504,0.0001415,0
7.451,0.00017574,0
7.4515,0.00019857,0
7.452,0.00019924,0
7.4525,0.00018698,0
7.453,0.00018077,0
7.4536,0.00018447,0
7.4541,0.000189,0
7.4546,0.00018312,0
7.4551,0.00015962,0
7.4556,0.00012639,0
7.4562,9.2317e-05,0
7.4567,4.5655e-05,0
7.4572,-1.5274e-05,0
7.4577,-6.9993e-05,0
7.4582,-0.00010121,0
7.4588,-0.00011028,0
7.4593,-0.00010423,0
7.4598,-8.7785e-05,0
7.4603,-6.2943e-05,0
7.4608,-3.592e-05,0
7.4613,-9.9031e-06,0
7.4619,1.5274e-05,0
7.4624,3.978e-05,0
7.4629,6.1601e-05,0
7.4634,7.4861e-05,0
7.4639,7.3686e-05,0
7.4645,5.8244e-05,0
7.465,3.2059e-05,0
7.4655,-4.5319e-06,0
7.466,-4.7837e-05,0
7.4665,-8.6442e-05,0
7.4671,-0.00010977,0
7.4676,-0.00011817,0
7.4681,-0.000118,0
7.4686,-0.00010826,0
7.4691,-8.8289e-05,0
7.4697,-6.3951e-05,0
7.4702,-3.7934e-05,0
7.4707,-6.5461e-06,0
7.4712,2.9374e-05,0
7.4717,6.5629e-05,0
7.4722,9.5842e-05,0
7.4728,0.00011565,0
7.4733,0.00012605,0
7.4738,0.00012035,0
7.4743,8.9128e-05,0
7.4748,5.0019e-05,0
7.4754,2.8702e-05,0
7.4759,2.9038e-05,0
7.4764,4.1459e-05,0
7.4769,5.7404e-05,0
7.4774,7.335e-05,0
7.478,7.9728e-05,0
7.4785,7.2007e-05,0
7.479,6.6804e-05,0
7.4795,7.7211e-05,0
7.48,9.5171e-05,0
7.4806,9.9031e-05,0
7.4811,7.6707e-05,0
7.4816,3.4409e-05,0
7.4821,-2.0645e-05,0
7.4826,-8.1575e-05,0
7.4832,-0.00013848,0
7.4837,-0.00018262,0
7.4842,-0.00021904,0
7.4847,-0.00024942,0
7.4852,-0.00025782,0
7.4858,-0.00023247,0
7.4863,-0.0001754,0
7.4868,-9.3156e-05,0
7.4873,-1.5106e-06,0
7.4878,8.3757e-05,0
7.4883,0.0001519,0
7.4889,0.00020612,0
7.4894,0.00024791,0
7.4899,0.00027611,0
7.4904,0.00028383,0
7.4909,0.00026906,0
7.4915,0.00023583,0
7.492,0.00019722,0
7.4925,0.00016046,0
7.493,0.0001232,0
7.4935,9.2149e-05,0
7.4941,7.9057e-05,0
7.4946,7.9561e-05,0
7.4951,7.7043e-05,0
7.4956,6.3279e-05,0
7.4961,3.2731e-05,0
7.4967,-7.3854e-06,0
7.4972,-4.0955e-05,0
7.4977,-5.9251e-05,0
7.4982,-6.3783e-05,0
7.4987,-5.3712e-05,0
7.4992,-3.1388e-05,0
7.4998,-1.2589e-05,0
7.5003,-1.0239e-05,0
7.5008,-2.5177e-05,0
7.5013,-5.1194e-05,0
7.5018,-8.8121e-05,0
7.5024,-0.0001237,0
7.5029,-0.00013613,0
7.5034,-0.00012203,0
7.5039,-8.9128e-05,0
7.5044,-4.683e-05,0
7.505,-2.5177e-06,0
7.5055,4.062e-05,0
7.506,8.4092e-05,0
7.5065,0.00012807,0
7.507,0.0001697,0
7.5076,0.00020024,0
7.5081,0.00021233,0
7.5086,0.00019789,0
7.5091,0.00016281,0
7.5096,0.00012253,0
7.5102,8.4428e-05,0
7.5107,4.6662e-05,0
7.5112,1.2253e-05,0
7.5117,-1.2757e-05,0
7.5122,-3.0381e-05,0
7.5127,-3.9948e-05,0
7.5133,-4.6326e-05,0
7.5138,-6.1601e-05,0
7.5143,-8.0735e-05,0
7.5148,-9.2485e-05,0
7.5153,-9.9535e-05,0
7.5159,-9.987e-05,0
7.5164,-9.1478e-05,0
7.5169,-8.3589e-05,0
7.5174,-7.6204e-05,0
7.5179,-5.4551e-05,0
7.5185,-2.0478e-05,0
7.519,9.2317e-06,0
7.5195,2.6352e-05,0
7.52,4.1123e-05,0
7.5205,5.1194e-05,0
7.5211,3.5416e-05,0
7.5216,-6.5461e-06,0
7.5221,-6.0761e-05,0
7.5226,-0.00011044,0
7.5231,-0.00014586,0
7.5237,-0.00016365,0
7.5242,-0.00017037,0
7.5247,-0.00016483,0
7.5252,-0.0001373,0
7.5257,-7.5868e-05,0
7.5263,1.3596e-05,0
7.5268,9.7017e-05,0
7.5273,0.00014586,0
7.5278,0.00016298,0
7.5283,0.00016281,0
7.5288,0.00015862,0
7.5294,0.000166,0
7.5299,0.00019017,0
7.5304,0.00021384,0
7.5309,0.00021518,0
7.5314,0.00019017,0
7.532,0.00016046,0
7.5325,0.00014351,0
7.533,0.0001368,0
7.5335,0.00012236,0
7.534,9.2485e-05,0
7.5346,6.4958e-05,0
7.5351,4.918e-05,0
7.5356,3.2563e-05,0
7.5361,1.8463e-06,0
7.5366,-3.4577e-05,0
7.5372,-6.1601e-05,0
7.5377,-6.6972e-05,0
7.5382,-5.7237e-05,0
7.5387,-4.1962e-05,0
7.5392,-1.796e-05,0
7.5397,1.4099e-05,0
7.5403,4.3809e-05,0
7.5408,6.2608e-05,0
7.5413,6.4286e-05,0
7.5418,5.153e-05,0
7.5423,3.4577e-05,0
7.5429,1.8128e-05,0
7.5434,-3.1891e-06,0
7.5439,-2.4842e-05,0
7.5444,-4.0955e-05,0
7.5449,-5.1362e-05,0
7.5455,-4.918e-05,0
7.546,-3.743e-05,0
7.5465,-2.1653e-05,0
7.547,-2.182e-06,0
7.5475,2.0478e-05,0
7.5481,3.8102e-05,0
7.5486,4.5823e-05,0
7.5491,4.8676e-05,0
7.5496,4.2802e-05,0
7.5501,1.091e-05,0
7.5507,-5.388e-05,0
7.5512,-0.00013646,0
7.5517,-0.00020041,0
7.5522,-0.00022492,0
7.5527,-0.00022441,0
7.5533,-0.00021401,0
7.5538,-0.0001989,0
7.5543,-0.00017893,0
7.5548,-0.00014267,0
7.5553,-7.9225e-05,0
7.5558,6.714e-06,0
7.5564,9.8192e-05,0
7.5569,0.0001796,0
7.5574,0.00024623,0
7.5579,0.00029474,0
7.5584,0.00032277,0
7.559,0.00033922,0
7.5595,0.00035299,0
7.56,0.00035299,0
7.5605,0.00032747,0
7.561,0.0002798,0
7.5616,0.00021988,0
7.5621,0.00015744,0
7.5626,0.00010323,0
7.5631,5.4215e-05,0
7.5636,1.3931e-05,0
7.5642,-1.3764e-05,0
7.5647,-3.7095e-05,0
7.5652,-6.5293e-05,0
7.5657,-9.836e-05,0
7.5662,-0.00012656,0
7.5667,-0.00014099,0
7.5673,-0.00014553,0
7.5678,-0.0001425,0
7.5683,-0.00013059,0
7.5688,-0.0001044,0
7.5693,-6.5293e-05,0
7.5699,-2.5177e-05,0
7.5704,9.2317e-06,0
7.5709,3.4745e-05,0
7.5714,4.8844e-05,0
7.5719,5.539e-05,0
7.5725,6.1936e-05,0
7.573,6.5629e-05,0
7.5735,5.9586e-05,0
7.574,4.1123e-05,0
7.5745,1.9303e-05,0
7.5751,5.7069e-06,0
7.5756,2.8534e-06,0
7.5761,5.8747e-06,0
7.5766,6.2104e-06,0
7.5771,-2.3499e-06,0
7.5777,-1.4939e-05,0
7.5782,-2.7192e-05,0
7.5787,-4.3473e-05,0
7.5792,-6.6636e-05,0
7.5797,-9.8863e-05,0
7.5803,-0.00013394,0
7.5808,-0.00015795,0
7.5813,-0.0001613,0
7.5818,-0.00013982,0
7.5823,-9.9535e-05,0
7.5828,-5.5726e-05,0
7.5834,-2.0645e-05,0
7.5839,1.1078e-05,0
7.5844,5.3208e-05,0
7.5849,0.0001138,0
7.5854,0.0001744,0
7.586,0.00021636,0
7.5865,0.00024019,0
7.587,0.00024942,0
7.5875,0.00024221,0
7.588,0.00021267,0
7.5886,0.00015996,0
7.5891,9.4835e-05,0
7.5896,3.0045e-05,0
7.5901,-3.3402e-05,0
7.5906,-8.4092e-05,0
7.5912,-0.00011397,0
7.5917,-0.00013092,0
7.5922,-0.00012992,0
7.5927,-0.00010658,0
7.5932,-7.4022e-05,0
7.5938,-4.062e-05,0
7.5943,-1.3764e-05,0
7.5948,6.0426e-06,0
7.5953,1.9974e-05,0
7.5958,3.8605e-05,0
7.5963,7.6371e-05,0
7.5969,0.00011666,0
7.5974,0.00013445,0
7.5979,0.00012807,0
7.5984,0.00010726,0
7.5989,8.5435e-05,0
7.5995,8.0903e-05,0
7.6,9.6849e-05,0
7.6005,0.00011179,0
7.601,9.7856e-05,0
7.6015,6.2608e-05,0
7.6021,3.122e-05,0
7.6026,1.1414e-05,0
7.6031,-5.539e-06,0
7.6036,-2.5513e-05,0
7.6041,-4.3137e-05,0
7.6047,-5.7237e-05,0
7.6052,-6.8315e-05,0
7.6057,-6.2608e-05,0
7.6062,-3.1556e-05,0
7.6067,1.4603e-05,0
7.6072,5.7572e-05,0
7.6078,8.9128e-05,0
7.6083,0.00010625,0
7.6088,0.00010826,0
7.6093,0.00010272,0
7.6098,9.366e-05,0
7.6104,8.3085e-05,0
7.6109,6.479e-05,0
7.6114,3.3066e-05,0
7.6119,-6.0426e-06,0
7.6124,-3.592e-05,0
7.613,-4.9851e-05,0
7.6135,-5.4383e-05,0
7.614,-5.2873e-05,0
7.6145,-4.6326e-05,0
7.615,-3.8773e-05,0
7.6156,-3.4241e-05,0
7.6161,-2.887e-05,0
7.6166,-1.8967e-05,0
7.6171,-7.8889e-06,0
7.6176,1.8463e-06,0
7.6182,1.1917e-05,0
7.6187,1.4603e-05,0
7.6192,1.0239e-05,0
7.6197,2.8534e-06,0
7.6202,-1.1749e-06,0
7.6208,6.3783e-06,0
7.6213,2.501e-05,0
7.6218,4.6494e-05,0
7.6223,5.6062e-05,0
7.6228,4.7501e-05,0
7.6233,3.2059e-05,0
7.6239,2.2492e-05,0
7.6244,1.8631e-05,0
7.6249,1.5274e-05,0
7.6254,1.4435e-05,0
7.6259,1.9974e-05,0
7.6265,2.8534e-05,0
7.627,3.3738e-05,0
7.6275,2.9709e-05,0
7.628,2.0645e-05,0
7.6285,1.1246e-05,0
7.6291,4.1962e-06,0
7.6296,-1.0071e-06,0
7.6301,-4.0284e-06,0
7.6306,-6.5461e-06,0
7.6311,-7.5532e-06,0
7.6317,-3.8605e-06,0
7.6322,6.5461e-06,0
7.6327,1.8799e-05,0
7.6332,2.6017e-05,0
7.6337,2.7527e-05,0
7.6342,2.5513e-05,0
7.6348,2.182e-05,0
7.6353,1.5274e-05,0
7.6358,8.0568e-06,0
7.6363,5.539e-06,0
7.6368,8.5603e-06,0
7.6374,1.4435e-05,0
7.6379,1.7288e-05,0
7.6384,1.0575e-05,0
7.6389,-1.6785e-06,0
7.6394,-1.4267e-05,0
7.64,-2.0981e-05,0
7.6405,-1.8967e-05,0
7.641,-1.2589e-05,0
7.6415,-4.8676e-06,0
7.642,-2.8534e-06,0
7.6426,-1.8799e-05,0
7.6431,-4.6494e-05,0
7.6436,-6.7475e-05,0
7.6441,-7.3518e-05,0
7.6446,-7.2007e-05,0
7.6452,-7.1e-05,0
7.6457,-5.8747e-05,0
7.6462,-2.6688e-05,0
7.6467,6.5461e-06,0
7.6472,2.182e-05,0
7.6478,2.7024e-05,0
7.6483,3.7766e-05,0
7.6488,4.5151e-05,0
7.6493,3.2898e-05,0
7.6498,5.8747e-06,0
7.6503,-1.2253e-05,0
7.6509,-8.2246e-06,0
7.6514,1.4939e-05,0
7.6519,4.8173e-05,0
7.6524,8.1743e-05,0
7.6529,0.00011464,0
7.6535,0.00015425,0
7.654,0.00020327,0
7.6545,0.00025228,0
7.655,0.00028417,0
7.6555,0.00028769,0
7.6561,0.00025765,0
7.6566,0.00020092,0
7.6571,0.00013411,0
7.6576,6.3951e-05,0
7.6581,-6.2104e-06,0
7.6587,-5.9754e-05,0
7.6592,-8.7617e-05,0
7.6597,-9.2317e-05,0
7.6602,-7.8721e-05,0
7.6607,-5.0355e-05,0
7.6612,-4.3641e-06,0
7.6618,5.069e-05,0
7.6623,9.5674e-05,0
7.6628,0.00012908,0
7.6633,0.00016265,0
7.6638,0.00019118,0
7.6644,0.00019705,0
7.6649,0.0001796,0
7.6654,0.0001467,0
7.6659,0.00010121,0
7.6664,4.9516e-05,0
7.667,7.0497e-06,0
7.6675,-2.4842e-05,0
7.668,-5.4719e-05,0
7.6685,-8.2582e-05,0
7.669,-0.00010591,0
7.6696,-0.00013176,0
7.6701,-0.00015694,0
7.6706,-0.00018144,0
7.6711,-0.00021669,0
7.6716,-0.00026285,0
7.6722,-0.00030079,0
7.6727,-0.000307,0
7.6732,-0.00027276,0
7.6737,-0.00022307,0
7.6742,-0.00017893,0
7.6748,-0.00012908,0
7.6753,-6.0929e-05,0
7.6758,1.7288e-05,0
7.6763,9.0974e-05,0
7.6768,0.00014687,0
7.6773,0.00017876,0
7.6779,0.00019319,0
7.6784,0.00019957,0
7.6789,0.00020041,0
7.6794,0.00019387,0
7.6799,0.00018044,0
7.6805,0.00016869,0
7.681,0.00016617,0
7.6815,0.00017137,0
7.682,0.00017507,0
7.6825,0.00016818,0
7.6831,0.00014183,0
7.6836,9.1142e-05,0
7.6841,2.0813e-05,0
7.6846,-6.1265e-05,0
7.6851,-0.00013814,0
7.6857,-0.00018799,0
7.6862,-0.00019303,0
7.6867,-0.00015895,0
7.6872,-0.00010642,0
7.6877,-5.0355e-05,0
7.6883,6.5461e-06,0
7.6888,6.6636e-05,0
7.6893,0.00012605,0
7.6898,0.00017977,0
7.6903,0.00022089,0
7.6908,0.00024002,0
7.6914,0.0002266,0
7.6919,0.00018682,0
7.6924,0.00014217,0
7.6929,0.00010188,0
7.6934,6.4622e-05,0
7.694,2.7359e-05,0
7.6945,-4.1962e-06,0
7.695,-2.501e-05,0
7.6955,-3.978e-05,0
7.696,-5.5222e-05,0
7.6966,-7.6707e-05,0
7.6971,-9.8863e-05,0
7.6976,-0.00011481,0
7.6981,-0.00011884,0
7.6986,-0.00010826,0
7.6992,-8.4764e-05,0
7.6997,-5.7404e-05,0
7.7002,-3.9948e-05,0
7.7007,-4.2298e-05,0
7.7012,-4.8508e-05,0
7.7017,-4.5151e-05,0
7.7023,-2.6352e-05,0
7.7028,-1.8463e-06,0
7.7033,5.7069e-06,0
7.7038,4.6998e-06,0
7.7043,1.2924e-05,0
7.7049,3.4577e-05,0
7.7054,6.63e-05,0
7.7059,0.00010188,0
7.7064,0.00013864,0
7.7069,0.00017423,0
7.7075,0.00019655,0
7.708,0.00019034,0
7.7085,0.00015694,0
7.709,0.00011766,0
7.7095,8.9464e-05,0
7.7101,6.7643e-05,0
7.7106,3.1388e-05,0
7.7111,-2.5681e-05,0
7.7116,-7.8721e-05,0
7.7121,-0.00010457,0
7.7127,-0.00010071,0
7.7132,-8.51e-05,0
7.7137,-6.865e-05,0
7.7142,-5.4551e-05,0
7.7147,-4.3137e-05,0
7.7153,-3.2059e-05,0
7.7158,-1.5274e-05,0
7.7163,1.1749e-06,0
7.7168,5.539e-06,0
7.7173,-4.0284e-06,0
7.7178,-2.5345e-05,0
7.7184,-6.0929e-05,0
7.7189,-9.5506e-05,0
7.7194,-0.00011447,0
7.7199,-0.00010927,0
7.7204,-8.4932e-05,0
7.721,-5.8747e-05,0
7.7215,-3.4073e-05,0
7.722,-2.0142e-06,0
7.7225,3.9445e-05,0
7.723,8.51e-05,0
7.7236,0.00012438,0
7.7241,0.00015023,0
7.7246,0.00015996,0
7.7251,0.00014922,0
7.7256,0.00012454,0
7.7262,9.987e-05,0
7.7267,8.3757e-05,0
7.7272,7.9057e-05,0
7.7277,8.2246e-05,0
7.7282,8.7785e-05,0
7.7287,8.7449e-05,0
7.7293,7.8721e-05,0
7.7298,6.6133e-05,0
7.7303,5.4215e-05,0
7.7308,4.1459e-05,0
7.7313,2.4674e-05,0
7.7319,1.1582e-05,0
7.7324,-3.357e-07,0
7.7329,-1.9135e-05,0
7.7334,-3.7766e-05,0
7.7339,-4.5991e-05,0
7.7345,-4.1794e-05,0
7.735,-2.8702e-05,0
7.7355,-1.4939e-05,0
7.736,-2.3499e-06,0
7.7365,7.8889e-06,0
7.7371,9.9031e-06,0
7.7376,2.3499e-06,0
7.7381,-1.4435e-05,0
7.7386,-2.7863e-05,0
7.7391,-2.3667e-05,0
7.7397,-8.0568e-06,0
7.7402,1.6785e-07,0
7.7407,-1.8463e-06,0
7.7412,-5.8747e-06,0
7.7417,-4.0284e-06,0
7.7423,9.3996e-06,0
7.7428,3.3234e-05,0
7.7433,6.0761e-05,0
7.7438,8.3757e-05,0
7.7443,9.0471e-05,0
7.7448,7.7043e-05,0
7.7454,4.7501e-05,0
7.7459,1.0239e-05,0
7.7464,-2.1149e-05,0
7.7469,-4.0452e-05,0
7.7474,-4.6494e-05,0
7.748,-4.3809e-05,0
7.7485,-3.6591e-05,0
7.749,-2.652e-05,0
7.7495,-1.2924e-05,0
7.75,5.539e-06,0
7.7506,2.2995e-05,0
7.7511,1.9806e-05,0
7.7516,-1.5274e-05,0
7.7521,-6.1936e-05,0
7.7526,-9.1478e-05,0
7.7532,-0.00010759,0
7.7537,-0.0001227,0
7.7542,-0.00013478,0
7.7547,-0.00013075,0
7.7552,-9.8863e-05,0
7.7557,-3.6255e-05,0
7.7563,4.5487e-05,0
7.7568,0.00012572,0
7.7573,0.00019588,0
7.7578,0.00024556,0
7.7583,0.00026957,0
7.7589,0.00026688,0
7.7594,0.00023751,0
7.7599,0.000189,0
7.7604,0.00013075,0
7.7609,7.2343e-05,0
7.7615,2.887e-05,0
7.762,7.8889e-06,0
7.7625,4.5319e-06,0
7.763,1.6449e-05,0
7.7635,4.213e-05,0
7.7641,6.0929e-05,0
7.7646,6.0594e-05,0
7.7651,5.0187e-05,0
7.7656,4.2802e-05,0
7.7661,4.2802e-05,0
7.7667,4.6159e-05,0
7.7672,4.7501e-05,0
7.7677,4.3305e-05,0
7.7682,3.2059e-05,0
7.7687,8.5603e-06,0
7.7693,-2.5513e-05,0
7.7698,-5.2705e-05,0
7.7703,-5.6901e-05,0
7.7708,-3.4073e-05,0
7.7713,4.0284e-06,0
7.7718,2.2324e-05,0
7.7724,5.0355e-06,0
7.7729,-2.031e-05,0
7.7734,-1.9471e-05,0
7.7739,7.5532e-06,0
7.7744,3.9109e-05,0
7.775,5.5222e-05,0
7.7755,4.9516e-05,0
7.776,2.266e-05,0
7.7765,-1.1414e-05,0
7.777,-3.3402e-05,0
7.7776,-2.4674e-05,0
7.7781,9.9031e-06,0
7.7786,4.5487e-05,0
7.7791,6.1601e-05,0
7.7796,5.774e-05,0
7.7802,4.8005e-05,0
7.7807,3.978e-05,0
7.7812,2.0478e-05,0
7.7817,-2.3331e-05,0
7.7822,-8.51e-05,0
7.7828,-0.00013713,0
7.7833,-0.00015694,0
7.7838,-0.00015023,0
7.7843,-0.00012773,0
7.7848,-9.2149e-05,0
7.7853,-4.2466e-05,0
7.7859,1.8631e-05,0
7.7864,8.1743e-05,0
7.7869,0.00014435,0
7.7874,0.00020629,0
7.7879,0.00025765,0
7.7885,0.0002939,0
7.789,0.00029894,0
7.7895,0.00025631,0
7.79,0.00017708,0
7.7905,9.6849e-05,0
7.7911,3.743e-05,0
7.7916,1.6785e-06,0
7.7921,-1.3596e-05,0
7.7926,-1.7792e-05,0
7.7931,-2.4338e-05,0
7.7937,-3.743e-05,0
7.7942,-5.1698e-05,0
7.7947,-6.0594e-05,0
7.7952,-7.7043e-05,0
7.7957,-0.00011095,0
7.7962,-0.00015644,0
7.7968,-0.00019689,0
7.7973,-0.00021099,0
7.7978,-0.00019554,0
7.7983,-0.00016416,0
7.7988,-0.00011833,0
7.7994,-5.774e-05,0
7.7999,8.3925e-06,0
7.8004,6.9322e-05,0
7.8009,0.00012673,0
7.8014,0.00019101,0
7.802,0.00025396,0
7.8025,0.00029239,0
7.803,0.00029726,0
7.8035,0.00027175,0
7.804,0.00021971,0
7.8046,0.00014955,0
7.8051,8.0903e-05,0
7.8056,2.7863e-05,0
7.8061,-1.1582e-05,0
7.8066,-4.448e-05,0
7.8072,-7.4022e-05,0
7.8077,-9.7185e-05,0
7.8082,-0.00010558,0
7.8087,-9.5842e-05,0
7.8092,-7.4861e-05,0
7.8098,-4.8173e-05,0
7.8103,-2.3331e-05,0
7.8108,-2.0142e-06,0
7.8113,2.266e-05,0
7.8118,4.8173e-05,0
7.8123,6.5965e-05,0
7.8129,7.2343e-05,0
7.8134,6.9657e-05,0
7.8139,5.7572e-05,0
7.8144,3.5584e-05,0
7.8149,1.8463e-06,0
7.8155,-3.978e-05,0
7.816,-7.4189e-05,0
7.8165,-9.1142e-05,0
7.817,-8.9967e-05,0
7.8175,-7.6707e-05,0
7.8181,-5.623e-05,0
7.8186,-3.9948e-05,0
7.8191,-3.3066e-05,0
7.8196,-2.031e-05,0
7.8201,8.2246e-06,0
7.8207,4.1123e-05,0
7.8212,5.8747e-05,0
7.8217,5.8915e-05,0
7.8222,4.4144e-05,0
7.8227,1.8296e-05,0
7.8232,-6.8818e-06,0
7.8238,-2.3667e-05,0
7.8243,-2.9709e-05,0
7.8248,-3.2059e-05,0
7.8253,-2.7695e-05,0
7.8258,-9.9031e-06,0
7.8264,1.8631e-05,0
7.8269,4.2634e-05,0
7.8274,5.1362e-05,0
7.8279,4.4816e-05,0
7.8284,2.6688e-05,0
7.829,2.5177e-06,0
7.8295,-1.6617e-05,0
7.83,-2.0813e-05,0
7.8305,-1.326e-05,0
7.831,2.8534e-06,0
7.8316,3.3906e-05,0
7.8321,7.7379e-05,0
7.8326,0.00011649,0
7.8331,0.00013378,0
7.8336,0.00013042,0
7.8342,0.00012203,0
7.8347,0.00012001,0
7.8352,0.00012102,0
7.8357,0.00010776,0
7.8362,7.57e-05,0
7.8368,3.8941e-05,0
7.8373,6.3783e-06,0
7.8378,-1.9303e-05,0
7.8383,-5.1865e-05,0
7.8388,-0.00011464,0
7.8393,-0.00019588,0
7.8399,-0.00024909,0
7.8404,-0.00025949,0
7.8409,-0.0002553,0
7.8414,-0.00025211,0
7.8419,-0.00023314,0
7.8425,-0.00018531,0
7.843,-0.0001091,0
7.8435,-1.2589e-05,0
7.844,9.0806e-05,0
7.8445,0.00018648,0
7.8451,0.00026134,0
7.8456,0.00031405,0
7.8461,0.00034862,0
7.8466,0.00035937,0
7.8471,0.00034577,0
7.8477,0.00031975,0
7.8482,0.00028652,0
7.8487,0.00023952,0
7.8492,0.00018245,0
7.8497,0.00012992,0
7.8502,9.987e-05,0
7.8508,9.3324e-05,0
7.8513,9.2988e-05,0
7.8518,8.5771e-05,0
7.8523,7.1672e-05,0
7.8528,5.4719e-05,0
7.8534,3.5752e-05,0
7.8539,1.3931e-05,0
7.8544,-1.1749e-05,0
7.8549,-3.6088e-05,0
7.8554,-4.8341e-05,0
7.856,-4.918e-05,0
7.8565,-4.9851e-05,0
7.857,-6.0594e-05,0
7.8575,-7.57e-05,0
7.858,-8.9799e-05,0
7.8586,-0.00010625,0
7.8591,-0.00012522,0
7.8596,-0.00014116,0
7.8601,-0.0001519,0
7.8606,-0.00015962,0
7.8612,-0.00016919,0
7.8617,-0.00018144,0
7.8622,-0.00018665,0
7.8627,-0.00017053,0
7.8632,-0.00013243,0
7.8637,-7.6539e-05,0
7.8643,-1.3092e-05,0
7.8648,5.1362e-05,0
7.8653,0.00010809,0
7.8658,0.00015224,0
7.8663,0.00018665,0
7.8669,0.00021032,0
7.8674,0.00022542,0
7.8679,0.00023616,0
7.8684,0.00023314,0
7.8689,0.0002036,0
7.8695,0.00015543,0
7.87,0.00011229,0
7.8705,8.2078e-05,0
7.871,5.4215e-05,0
7.8715,2.417e-05,0
7.8721,4.1962e-06,0
7.8726,-4.8676e-06,0
7.8731,-8.7282e-06,0
7.8736,-9.0639e-06,0
7.8741,-8.2246e-06,0
7.8747,-4.1962e-06,0
7.8752,-1.6785e-07,0
7.8757,4.1962e-06,0
7.8762,7.8889e-06,0
7.8767,5.539e-06,0
7.8773,-8.3925e-07,0
7.8778,-4.1962e-06,0
7.8783,-4.1962e-06,0
7.8788,-1.0071e-06,0
7.8793,3.8605e-06,0
7.8798,4.3641e-06,0
7.8804,-5.539e-06,0
7.8809,-2.8367e-05,0
7.8814,-5.8076e-05,0
7.8819,-7.9393e-05,0
7.8824,-8.0903e-05,0
7.883,-6.63e-05,0
7.8835,-4.8005e-05,0
7.884,-3.1052e-05,0
7.8845,-1.3764e-05,0
7.885,4.1962e-06,0
7.8856,2.1988e-05,0
7.8861,3.4745e-05,0
7.8866,3.4073e-05,0
7.8871,2.1317e-05,0
7.8876,3.8605e-06,0
7.8882,-1.0239e-05,0
7.8887,-1.7288e-05,0
7.8892,-1.561e-05,0
7.8897,-5.539e-06,0
7.8902,7.2175e-06,0
7.8907,2.266e-05,0
7.8913,3.9445e-05,0
7.8918,5.0523e-05,0
7.8923,5.2873e-05,0
7.8928,5.5222e-05,0
7.8933,6.1601e-05,0
7.8939,6.3447e-05,0
7.8944,5.6901e-05,0
7.8949,4.2802e-05,0
7.8954,2.9206e-05,0
7.8959,2.0478e-05,0
7.8965,1.2589e-05,0
7.897,2.0142e-06,0
7.8975,-9.9031e-06,0
7.898,-1.8296e-05,0
7.8985,-1.8967e-05,0
7.8991,-1.1917e-05,0
7.8996,-8.3925e-07,0
7.9001,7.8889e-06,0
7.9006,4.6998e-06,0
7.9011,-7.5532e-06,0
7.9017,-2.182e-05,0
7.9022,-3.3234e-05,0
7.9027,-3.7095e-05,0
7.9032,-3.508e-05,0
7.9037,-3.4745e-05,0
7.9043,-4.0452e-05,0
7.9048,-4.3137e-05,0
7.9053,-2.7863e-05,0
7.9058,4.6998e-06,0
7.9063,4.2298e-05,0
7.9068,7.3686e-05,0
7.9074,8.7617e-05,0
7.9079,8.3421e-05,0
7.9084,7.1e-05,0
7.9089,7.3686e-05,0
7.9094,9.7856e-05,0
7.91,0.00012203,0
7.9105,0.00013243,0
7.911,0.00013864,0
7.9115,0.00014183,0
7.912,0.00012673,0
7.9126,9.1814e-05,0
7.9131,5.2873e-05,0
7.9136,2.1149e-05,0
7.9141,-3.5248e-06,0
7.9146,-3.6423e-05,0
7.9152,-8.426e-05,0
7.9157,-0.00012723,0
7.9162,-0.00014385,0
7.9167,-0.0001274,0
7.9172,-8.7785e-05,0
7.9177,-3.3234e-05,0
7.9183,3.4745e-05,0
7.9188,0.0001086,0
7.9193,0.00017104,0
7.9198,0.00020729,0
7.9203,0.00021871,0
7.9209,0.00021065,0
7.9214,0.00018782,0
7.9219,0.00015862,0
7.9224,0.00012992,0
7.9229,0.00010407,0
7.9235,7.7043e-05,0
7.924,4.8508e-05,0
7.9245,2.501e-05,0
7.925,1.2421e-05,0
7.9255,1.326e-05,0
7.9261,1.9303e-05,0
7.9266,1.6785e-05,0
7.9271,6.5461e-06,0
7.9276,-6.2104e-06,0
7.9281,-1.7456e-05,0
7.9287,-2.6352e-05,0
7.9292,-3.4577e-05,0
7.9297,-4.1794e-05,0
7.9302,-4.8844e-05,0
7.9307,-5.0523e-05,0
7.9313,-4.8508e-05,0
7.9318,-5.2705e-05,0
7.9323,-6.244e-05,0
7.9328,-6.6468e-05,0
7.9333,-6.0929e-05,0
7.9338,-4.7166e-05,0
7.9344,-2.8031e-05,0
7.9349,-7.5532e-06,0
7.9354,8.7282e-06,0
7.9359,1.091e-05,0
7.9364,-8.3925e-07,0
7.937,-1.6281e-05,0
7.9375,-2.8534e-05,0
7.938,-4.1459e-05,0
7.9385,-6.3951e-05,0
7.939,-9.752e-05,0
7.9396,-0.00013294,0
7.9401,-0.00015778,0
7.9406,-0.00016735,0
7.9411,-0.00016516,0
7.9416,-0.0001561,0
7.9422,-0.00014418,0
7.9427,-0.0001279,0
7.9432,-9.3492e-05,0
7.9437,-3.3738e-05,0
7.9442,3.8773e-05,0
7.9447,0.00010994,0
7.9453,0.00017356,0
7.9458,0.00023247,0
7.9463,0.00027494,0
7.9468,0.00028585,0
7.9473,0.00027494,0
7.9479,0.00026168,0
7.9484,0.00025832,0
7.9489,0.00026168,0
7.9494,0.00025698,0
7.9499,0.00023717,0
7.9505,0.00020494,0
7.951,0.00016298,0
7.9515,0.00012068,0
7.952,9.3324e-05,0
7.9525,8.2078e-05,0
7.9531,6.5965e-05,0
7.9536,3.7766e-05,0
7.9541,6.0426e-06,0
7.9546,-1.7624e-05,0
7.9551,-3.5752e-05,0
7.9557,-5.4215e-05,0
7.9562,-6.7643e-05,0
7.9567,-7.6204e-05,0
7.9572,-8.5435e-05,0
7.9577,-9.6849e-05,0
7.9582,-0.00010541,0
7.9588,-0.00011229,0
7.9593,-0.00012018,0
7.9598,-0.00012622,0
7.9603,-0.0001274,0
7.9608,-0.00011565,0
7.9614,-9.2653e-05,0
7.9619,-7.8386e-05,0
7.9624,-8.2582e-05,0
7.9629,-8.5267e-05,0
7.9634,-6.865e-05,0
7.964,-3.6088e-05,0
7.9645,6.3783e-06,0
7.965,5.4215e-05,0
7.9655,0.00010088,0
7.966,0.00013948,0
7.9666,0.00016416,0
7.9671,0.00016886,0
7.9676,0.00015526,0
7.9681,0.00013411,0
7.9686,0.00010726,0
7.9692,8.0064e-05,0
7.9697,6.1601e-05,0
7.9702,5.5726e-05,0
7.9707,4.3809e-05,0
7.9712,1.0407e-05,0
7.9718,-3.2395e-05,0
7.9723,-6.3279e-05,0
7.9728,-7.335e-05,0
7.9733,-6.9322e-05,0
7.9738,-5.9251e-05,0
7.9743,-5.0187e-05,0
7.9749,-4.448e-05,0
7.9754,-3.7095e-05,0
7.9759,-2.1988e-05,0
7.9764,-1.1749e-06,0
7.9769,2.0142e-05,0
7.9775,3.743e-05,0
7.978,5.0019e-05,0
7.9785,5.7572e-05,0
7.979,5.8244e-05,0
7.9795,5.7404e-05,0
7.9801,6.0258e-05,0
7.9806,6.2943e-05,0
7.9811,6.0426e-05,0
7.9816,4.6159e-05,0
7.9821,2.182e-05,0
7.9827,-9.2317e-06,0
7.9832,-3.9277e-05,0
7.9837,-5.5222e-05,0
7.9842,-5.388e-05,0
7.9847,-4.3137e-05,0
7.9852,-2.8534e-05,0
7.9858,-1.0742e-05,0
7.9863,1.0575e-05,0
7.9868,3.5584e-05,0
7.9873,6.0929e-05,0
7.9878,7.9057e-05,0
7.9884,8.4932e-05,0
7.9889,7.6371e-05,0
7.9894,5.2537e-05,0
7.9899,2.0981e-05,0
7.9904,-8.3925e-06,0
7.991,-3.1724e-05,0
7.9915,-4.7333e-05,0
7.992,-5.539e-05,0
7.9925,-6.4622e-05,0
7.993,-8.191e-05,0
7.9936,-9.131e-05,0
7.9941,-7.5868e-05,0
7.9946,-4.1962e-05,0
7.9951,-5.3712e-06,0
7.9956,2.7695e-05,0
7.9962,5.2873e-05,0
7.9967,6.6972e-05,0
7.9972,7.4189e-05,0
7.9977,8.3757e-05,0
7.9982,9.4163e-05,0
7.9988,0.00010776,0
7.9993,0.00012337,0
7.9998,0.0001321,0
8.0003,0.00013478,0
8.0008,0.00014385,0
8.0013,0.00015392,0
8.0019,0.00014989,0
8.0024,0.00013075,0
8.0029,0.0001039,0
8.0034,7.3518e-05,0
8.0039,3.508e-05,0
8.0045,-1.1582e-05,0
8.005,-6.6972e-05,0
8.0055,-0.00013193,0
8.006,-0.00019001,0
8.0065,-0.00021955,0
8.0071,-0.00021065,0
8.0076,-0.00017121,0
8.0081,-0.0001086,0
8.0086,-3.6591e-05,0
8.0091,1.7288e-05,0
8.0097,3.978e-05,0
8.0102,5.0858e-05,0
8.0107,7.805e-05,0
8.0112,0.0001185,0
8.0117,0.00014939,0
8.0122,0.00016365,0
8.0128,0.00016718,0
8.0133,0.00016735,0
8.0138,0.00016735,0
8.0143,0.00016953,0
8.0148,0.00017591,0
8.0154,0.00018447,0
8.0159,0.00018698,0
8.0164,0.00017171,0
8.0169,0.00013747,0
8.0174,9.8527e-05,0
8.018,6.2776e-05,0
8.0185,3.3066e-05,0
8.019,1.561e-05,0
8.0195,8.3925e-06,0
8.02,1.8463e-06,0
8.0206,-9.3996e-06,0
8.0211,-2.3331e-05,0
8.0216,-3.4745e-05,0
8.0221,-4.1794e-05,0
8.0226,-4.7166e-05,0
8.0232,-5.5894e-05,0
8.0237,-6.1265e-05,0
8.0242,-5.1026e-05,0
8.0247,-3.6927e-05,0
8.0252,-3.6927e-05,0
8.0258,-5.0858e-05,0
8.0263,-6.2608e-05,0
8.0268,-6.244e-05,0
8.0273,-5.6565e-05,0
8.0278,-5.153e-05,0
8.0283,-5.2201e-05,0
8.0289,-5.5222e-05,0
8.0294,-5.8244e-05,0
8.0299,-6.1936e-05,0
8.0304,-6.6636e-05,0
8.0309,-6.9657e-05,0
8.0315,-6.9322e-05,0
8.032,-6.4958e-05,0
8.0325,-5.7069e-05,0
8.033,-4.7837e-05,0
8.0335,-4.0452e-05,0
8.0341,-3.2395e-05,0
8.0346,-2.5345e-05,0
8.0351,-2.3835e-05,0
8.0356,-2.5177e-05,0
8.0361,-2.1317e-05,0
8.0367,-4.8676e-06,0
8.0372,1.4267e-05,0
8.0377,2.4002e-05,0
8.0382,2.8031e-05,0
8.0387,3.6927e-05,0
8.0392,5.1865e-05,0
8.0398,6.4286e-05,0
8.0403,7.57e-05,0
8.0408,8.4428e-05,0
8.0413,8.8457e-05,0
8.0418,8.3757e-05,0
8.0424,6.5629e-05,0
8.0429,3.4745e-05,0
8.0434,1.6785e-07,0
8.0439,-2.182e-05,0
8.0444,-2.4338e-05,0
8.045,-1.0407e-05,0
8.0455,5.2033e-06,0
8.046,1.5274e-05,0
8.0465,2.8031e-05,0
8.047,5.2201e-05,0
8.0476,8.275e-05,0
8.0481,0.00011263,0
8.0486,0.0001373,0
8.0491,0.00014855,0
8.0496,0.00013814,0
8.0502,0.00010893,0
8.0507,7.4022e-05,0
8.0512,4.683e-05,0
8.0517,3.0884e-05,0
8.0522,2.9374e-05,0
8.0527,4.448e-05,0
8.0533,6.2943e-05,0
8.0538,7.57e-05,0
8.0543,8.1407e-05,0
8.0548,7.7714e-05,0
8.0553,6.5461e-05,0
8.0559,4.9012e-05,0
8.0564,3.2898e-05,0
8.0569,1.5946e-05,0
8.0574,-1.0239e-05,0
8.0579,-3.9948e-05,0
8.0585,-7.7714e-05,0
8.059,-0.00012152,0
8.0595,-0.00014788,0
8.06,-0.00014754,0
8.0605,-0.00012908,0
8.0611,-9.8192e-05,0
8.0616,-5.7237e-05,0
8.0621,-7.2175e-06,0
8.0626,4.1291e-05,0
8.0631,8.0232e-05,0
8.0637,0.00011044,0
8.0642,0.00012908,0
8.0647,0.00013394,0
8.0652,0.00012605,0
8.0657,0.000118,0
8.0663,0.00012102,0
8.0668,0.00012555,0
8.0673,0.00012018,0
8.0678,0.00010524,0
8.0683,8.3085e-05,0
8.0688,5.7908e-05,0
8.0694,2.6688e-05,0
8.0699,-9.0639e-06,0
8.0704,-4.0787e-05,0
8.0709,-6.5965e-05,0
8.0714,-9.8863e-05,0
8.072,-0.00013831,0
8.0725,-0.00017137,0
8.073,-0.00019269,0
8.0735,-0.00019387,0
8.074,-0.00016986,0
8.0746,-0.0001279,0
8.0751,-7.3686e-05,0
8.0756,-1.5778e-05,0
8.0761,3.7934e-05,0
8.0766,8.1071e-05,0
8.0772,0.00011733,0
8.0777,0.00015425,0
8.0782,0.00018849,0
8.0787,0.00020897,0
8.0792,0.00021267,0
8.0798,0.00019789,0
8.0803,0.00016197,0
8.0808,0.00011632,0
8.0813,7.6204e-05,0
8.0818,5.5894e-05,0
8.0823,6.1265e-05,0
8.0829,8.6778e-05,0
8.0834,0.00011766,0
8.0839,0.00013747,0
8.0844,0.00013948,0
8.0849,0.00013176,0
8.0855,0.00012001,0
8.086,0.00010054,0
8.0865,7.6707e-05,0
8.087,5.3208e-05,0
8.0875,2.7024e-05,0
8.0881,-3.357e-07,0
8.0886,-2.1317e-05,0
8.0891,-3.0381e-05,0
8.0896,-3.3738e-05,0
8.0901,-4.0452e-05,0
8.0907,-5.623e-05,0
8.0912,-8.0232e-05,0
8.0917,-0.00010658,0
8.0922,-0.00012807,0
8.0927,-0.0001509,0
8.0932,-0.00018598,0
8.0938,-0.00023264,0
8.0943,-0.00027494,0
8.0948,-0.00029609,0
8.0953,-0.00029374,0
8.0958,-0.00027158,0
8.0964,-0.00023432,0
8.0969,-0.00018732,0
8.0974,-0.00012773,0
8.0979,-4.4984e-05,0
8.0984,5.4215e-05,0
8.099,0.00014351,0
8.0995,0.00020444,0
8.1,0.00024825,0
8.1005,0.00028585,0
8.101,0.00030867,0
8.1016,0.00030968,0
8.1021,0.00029071,0
8.1026,0.00026235,0
8.1031,0.0002318,0
8.1036,0.00020327,0
8.1042,0.00017775,0
8.1047,0.00015627,0
8.1052,0.00013277,0
8.1057,0.00010524,0
8.1062,7.5364e-05,0
8.1067,5.0523e-05,0
8.1073,3.2059e-05,0
8.1078,1.7121e-05,0
8.1083,-3.6927e-06,0
8.1088,-3.2563e-05,0
8.1093,-6.0258e-05,0
8.1099,-7.4525e-05,0
8.1104,-7.7714e-05,0
8.1109,-8.4764e-05,0
8.1114,-0.00010272,0
8.1119,-0.00011968,0
8.1125,-0.00012555,0
8.113,-0.00012001,0
8.1135,-0.0001086,0
8.114,-9.7353e-05,0
8.1145,-8.4092e-05,0
8.1151,-6.6972e-05,0
8.1156,-4.062e-05,0
8.1161,-3.0213e-06,0
8.1166,4.062e-05,0
8.1171,8.4428e-05,0
8.1177,0.00012169,0
8.1182,0.00014922,0
8.1187,0.00016365,0
8.1192,0.00015761,0
8.1197,0.00012605,0
8.1203,8.6946e-05,0
8.1208,5.4551e-05,0
8.1213,2.0813e-05,0
8.1218,-1.4603e-05,0
8.1223,-4.1123e-05,0
8.1228,-5.0523e-05,0
8.1234,-4.3137e-05,0
8.1239,-2.1317e-05,0
8.1244,1.2924e-05,0
8.1249,4.5151e-05,0
8.1254,5.9754e-05,0
8.126,6.3615e-05,0
8.1265,6.5629e-05,0
8.127,5.3208e-05,0
8.1275,2.3163e-05,0
8.128,-3.357e-07,0
8.1286,-9.9031e-06,0
8.1291,-2.182e-05,0
8.1296,-3.3402e-05,0
8.1301,-3.2898e-05,0
8.1306,-2.1149e-05,0
8.1312,-1.7288e-05,0
8.1317,-3.4073e-05,0
8.1322,-5.3208e-05,0
8.1327,-5.5222e-05,0
8.1332,-4.7837e-05,0
8.1337,-4.5319e-05,0
8.1343,-5.3712e-05,0
8.1348,-6.6636e-05,0
8.1353,-7.1168e-05,0
8.1358,-5.9251e-05,0
8.1363,-3.508e-05,0
8.1369,-9.0639e-06,0
8.1374,1.6281e-05,0
8.1379,3.5752e-05,0
8.1384,2.7863e-05,0
8.1389,-4.1962e-06,0
8.1395,-2.3667e-05,0
8.14,-1.3428e-05,0
8.1405,1.7288e-05,0
8.141,5.4719e-05,0
8.1415,9.1142e-05,0
8.1421,0.00012068,0
8.1426,0.00014183,0
8.1431,0.0001613,0
8.1436,0.00018766,0
8.1441,0.00021669,0
8.1447,0.00023465,0
8.1452,0.00023851,0
8.1457,0.00022844,0
8.1462,0.00020159,0
8.1467,0.00016365,0
8.1472,0.00013008,0
8.1478,0.00010457,0
8.1483,7.8386e-05,0
8.1488,5.1698e-05,0
8.1493,2.6688e-05,0
8.1498,1.1749e-06,0
8.1504,-2.5849e-05,0
8.1509,-5.1865e-05,0
8.1514,-7.2847e-05,0
8.1519,-8.426e-05,0
8.1524,-8.4932e-05,0
8.153,-7.8218e-05,0
8.1535,-6.7308e-05,0
8.154,-5.4887e-05,0
8.1545,-4.3137e-05,0
8.155,-3.0045e-05,0
8.1556,-1.561e-05,0
8.1561,-4.6998e-06,0
8.1566,2.3499e-06,0
8.1571,2.5177e-06,0
8.1576,-1.091e-05,0
8.1582,-3.743e-05,0
8.1587,-6.3615e-05,0
8.1592,-7.9728e-05,0
8.1597,-8.5603e-05,0
8.1602,-8.3757e-05,0
8.1608,-7.4525e-05,0
8.1613,-6.1265e-05,0
8.1618,-4.6494e-05,0
8.1623,-2.8367e-05,0
8.1628,-5.7069e-06,0
8.1633,1.2085e-05,0
8.1639,5.2033e-06,0
8.1644,-2.9709e-05,0
8.1649,-6.3447e-05,0
8.1654,-7.1336e-05,0
8.1659,-5.7069e-05,0
8.1665,-3.357e-05,0
8.167,-9.5674e-06,0
8.1675,1.0407e-05,0
8.168,2.5345e-05,0
8.1685,3.7263e-05,0
8.1691,5.0355e-05,0
8.1696,6.009e-05,0
8.1701,6.7979e-05,0
8.1706,8.1743e-05,0
8.1711,0.00010121,0
8.1717,0.00011431,0
8.1722,0.00010507,0
8.1727,7.9057e-05,0
8.1732,6.9322e-05,0
8.1737,8.6442e-05,0
8.1743,0.00011682,0
8.1748,0.00014754,0
8.1753,0.00017708,0
8.1758,0.00019588,0
8.1763,0.00018749,0
8.1768,0.0001556,0
8.1774,0.00011733,0
8.1779,7.2847e-05,0
8.1784,1.8967e-05,0
8.1789,-3.6759e-05,0
8.1794,-7.2679e-05,0
8.18,-7.9728e-05,0
8.1805,-6.8315e-05,0
8.181,-5.7908e-05,0
8.1815,-5.0355e-05,0
8.182,-3.1724e-05,0
8.1826,-7.5532e-06,0
8.1831,3.8605e-06,0
8.1836,-5.7069e-06,0
8.1841,-2.5345e-05,0
8.1846,-3.1052e-05,0
8.1852,-2.0813e-05,0
8.1857,-1.3092e-05,0
8.1862,-8.3925e-06,0
8.1867,3.8605e-06,0
8.1872,2.4002e-05,0
8.1877,4.5991e-05,0
8.1883,6.5461e-05,0
8.1888,8.2582e-05,0
8.1893,9.4163e-05,0
8.1898,9.2485e-05,0
8.1903,7.2679e-05,0
8.1909,3.8773e-05,0
8.1914,7.8889e-06,0
8.1919,-9.0639e-06,0
8.1924,-1.2253e-05,0
8.1929,-9.7353e-06,0
8.1935,-1.0575e-05,0
8.194,-9.7353e-06,0
8.1945,3.1891e-06,0
8.195,2.3667e-05,0
8.1955,3.8102e-05,0
8.1961,3.743e-05,0
8.1966,1.4435e-05,0
8.1971,-1.9806e-05,0
8.1976,-4.5319e-05,0
8.1981,-5.7908e-05,0
8.1987,-6.5629e-05,0
8.1992,-7.4189e-05,0
8.1997,-7.4693e-05,0
8.2002,-5.8579e-05,0
8.2007,-3.0045e-05,0
8.2012,5.539e-06,0
8.2018,4.0116e-05,0
8.2023,6.3951e-05,0
8.2028,7.57e-05,0
8.2033,8.6442e-05,0
8.2038,9.6513e-05,0
8.2044,9.4499e-05,0
8.2049,7.8889e-05,0
8.2054,5.8244e-05,0
8.2059,3.743e-05,0
8.2064,1.3428e-06,0
8.207,-5.0019e-05,0
8.2075,-9.0135e-05,0
8.208,-0.00011028,0
8.2085,-0.00011884,0
8.209,-0.0001133,0
8.2096,-8.6778e-05,0
8.2101,-3.8605e-05,0
8.2106,2.0478e-05,0
8.2111,7.4357e-05,0
8.2116,0.00012337,0
8.2122,0.00017171,0
8.2127,0.00021099,0
8.2132,0.00023818,0
8.2137,0.00025664,0
8.2142,0.00025211,0
8.2148,0.00022911,0
8.2153,0.00020595,0
8.2158,0.00018094,0
8.2163,0.00014485,0
8.2168,0.00010323,0
8.2173,6.3279e-05,0
8.2179,2.3163e-05,0
8.2184,-1.8967e-05,0
8.2189,-5.9419e-05,0
8.2194,-9.9199e-05,0
8.2199,-0.0001415,0
8.2205,-0.00018312,0
8.221,-0.00022844,0
8.2215,-0.00027997,0
8.222,-0.00031052,0
8.2225,-0.0003028,0
8.2231,-0.00026772,0
8.2236,-0.00021804,0
8.2241,-0.00015358,0
8.2246,-6.7643e-05,0
8.2251,3.0381e-05,0
8.2257,0.00011984,0
8.2262,0.00019017,0
8.2267,0.00024556,0
8.2272,0.0002845,0
8.2277,0.00030599,0
8.2283,0.00030515,0
8.2288,0.00028098,0
8.2293,0.00024405,0
8.2298,0.00020192,0
8.2303,0.00015962,0
8.2308,0.00012203,0
8.2314,8.8457e-05,0
8.2319,5.9251e-05,0
8.2324,3.6255e-05,0
8.2329,1.561e-05,0
8.2334,-6.714e-07,0
8.234,-1.3092e-05,0
8.2345,-3.508e-05,0
8.235,-7.3182e-05,0
8.2355,-0.00011212,0
8.236,-0.00013361,0
8.2366,-0.00013848,0
8.2371,-0.00012908,0
8.2376,-0.00010574,0
8.2381,-7.4525e-05,0
8.2386,-4.3809e-05,0
8.2392,-1.561e-05,0
8.2397,1.5442e-05,0
8.2402,4.2802e-05,0
8.2407,5.7908e-05,0
8.2412,5.5558e-05,0
8.2417,4.213e-05,0
8.2423,3.0716e-05,0
8.2428,2.2324e-05,0
8.2433,1.0407e-05,0
8.2438,-2.8534e-06,0
8.2443,-1.3092e-05,0
8.2449,-2.0645e-05,0
8.2454,-1.7121e-05,0
8.2459,-2.8534e-06,0
8.2464,6.3783e-06,0
8.2469,8.2246e-06,0
8.2475,6.8818e-06,0
8.248,4.5319e-06,0
8.2485,2.182e-06,0
8.249,2.8534e-06,0
8.2495,1.0575e-05,0
8.2501,1.9974e-05,0
8.2506,1.7288e-05,0
8.2511,3.1891e-06,0
8.2516,-9.5674e-06,0
8.2521,-1.2924e-05,0
8.2527,-1.3931e-05,0
8.2532,-2.2492e-05,0
8.2537,-3.7766e-05,0
8.2542,-5.4383e-05,0
8.2547,-6.9993e-05,0
8.2553,-7.805e-05,0
8.2558,-7.9393e-05,0
8.2563,-8.4932e-05,0
8.2568,-8.9464e-05,0
8.2573,-8.7617e-05,0
8.2578,-8.3925e-05,0
8.2584,-7.5364e-05,0
8.2589,-5.0523e-05,0
8.2594,-8.2246e-06,0
8.2599,3.827e-05,0
8.2604,7.9393e-05,0
8.261,0.00012001,0
8.2615,0.0001603,0
8.262,0.00019252,0
8.2625,0.00021267,0
8.263,0.0002224,0
8.2636,0.00022458,0
8.2641,0.00022542,0
8.2646,0.00022206,0
8.2651,0.00020729,0
8.2656,0.00017977,0
8.2662,0.00014284,0
8.2667,0.00011196,0
8.2672,9.0974e-05,0
8.2677,7.3182e-05,0
8.2682,5.3208e-05,0
8.2688,3.3906e-05,0
8.2693,1.5106e-05,0
8.2698,-7.8889e-06,0
8.2703,-3.0381e-05,0
8.2708,-4.2466e-05,0
8.2713,-4.6494e-05,0
8.2719,-5.2537e-05,0
8.2724,-6.1097e-05,0
8.2729,-6.5965e-05,0
8.2734,-6.6972e-05,0
8.2739,-6.949e-05,0
8.2745,-6.8315e-05,0
8.275,-5.9251e-05,0
8.2755,-4.448e-05,0
8.276,-3.508e-05,0
8.2765,-4.1794e-05,0
8.2771,-5.9922e-05,0
8.2776,-7.3014e-05,0
8.2781,-6.7979e-05,0
8.2786,-5.8076e-05,0
8.2791,-6.2104e-05,0
8.2797,-7.8721e-05,0
8.2802,-8.8792e-05,0
8.2807,-7.5364e-05,0
8.2812,-3.743e-05,0
8.2817,1.0071e-05,0
8.2822,5.0858e-05,0
8.2828,8.6778e-05,0
8.2833,0.00012287,0
8.2838,0.00015694,0
8.2843,0.00018631,0
8.2848,0.00020914,0
8.2854,0.00023398,0
8.2859,0.00026,0
8.2864,0.00026638,0
8.2869,0.00024388,0
8.2874,0.00020327,0
8.288,0.0001561,0
8.2885,0.00010843,0
8.289,6.4958e-05,0
8.2895,2.9038e-05,0
8.29,3.0213e-06,0
8.2906,-1.561e-05,0
8.2911,-2.7024e-05,0
8.2916,-3.0549e-05,0
8.2921,-3.1724e-05,0
8.2926,-3.592e-05,0
8.2932,-4.2802e-05,0
8.2937,-5.1194e-05,0
8.2942,-5.8579e-05,0
8.2947,-6.3951e-05,0
8.2952,-6.714e-05,0
8.2957,-6.5629e-05,0
8.2963,-6.7643e-05,0
8.2968,-7.805e-05,0
8.2973,-9.2821e-05,0
8.2978,-0.00011313,0
8.2983,-0.00015325,0
8.2989,-0.000213,0
8.2994,-0.00025547,0
8.2999,-0.0002548,0
8.3004,-0.0002182,0
8.3009,-0.00016483,0
8.3015,-0.00011028,0
8.302,-6.5293e-05,0
8.3025,-3.1052e-05,0
8.303,4.8676e-06,0
8.3035,5.5726e-05,0
8.3041,0.00012035,0
8.3046,0.00018514,0
8.3051,0.00023314,0
8.3056,0.00025228,0
8.3061,0.00024019,0
8.3067,0.00020243,0
8.3072,0.00015224,0
8.3077,0.00010893,0
8.3082,8.51e-05,0
8.3087,6.6972e-05,0
8.3093,4.2802e-05,0
8.3098,2.4842e-05,0
8.3103,2.3331e-05,0
8.3108,3.1891e-05,0
8.3113,4.5487e-05,0
8.3118,6.3615e-05,0
8.3124,8.5435e-05,0
8.3129,0.0001039,0
8.3134,0.00011162,0
8.3139,0.00010407,0
8.3144,8.8792e-05,0
8.315,7.3518e-05,0
8.3155,5.2537e-05,0
8.316,1.9303e-05,0
8.3165,-2.5345e-05,0
8.317,-6.7979e-05,0
8.3176,-9.2485e-05,0
8.3181,-9.4499e-05,0
8.3186,-8.9296e-05,0
8.3191,-8.5603e-05,0
8.3196,-8.3421e-05,0
8.3202,-7.1336e-05,0
8.3207,-3.8605e-05,0
8.3212,1.1246e-05,0
8.3217,6.1433e-05,0
8.3222,9.7185e-05,0
8.3227,0.00012102,0
8.3233,0.00014418,0
8.3238,0.00016265,0
8.3243,0.00015694,0
8.3248,0.00013008,0
8.3253,0.0001133,0
8.3259,0.00011061,0
8.3264,0.00010323,0
8.3269,8.275e-05,0
8.3274,6.2776e-05,0
8.3279,5.3544e-05,0
8.3285,4.9516e-05,0
8.329,4.6494e-05,0
8.3295,3.3738e-05,0
8.33,4.6998e-06,0
8.3305,-3.1724e-05,0
8.3311,-6.1265e-05,0
8.3316,-8.0735e-05,0
8.3321,-9.4667e-05,0
8.3326,-0.00011313,0
8.3331,-0.00012706,0
8.3337,-0.00012572,0
8.3342,-0.00012673,0
8.3347,-0.00014955,0
8.3352,-0.00018766,0
8.3357,-0.00021451,0
8.3362,-0.00021132,0
8.3368,-0.00018346,0
8.3373,-0.00015425,0
8.3378,-0.00013445,0
8.3383,-0.00011783,0
8.3388,-9.2149e-05,0
8.3394,-4.5823e-05,0
8.3399,2.4842e-05,0
8.3404,0.00011766,0
8.3409,0.00022139,0
8.3414,0.0003127,0
8.342,0.00038068,0
8.3425,0.00042516,0
8.343,0.000449,0
8.3435,0.00045235,0
8.344,0.00043221,0
8.3446,0.00039109,0
8.3451,0.00033352,0
8.3456,0.00026654,0
8.3461,0.00019857,0
8.3466,0.00013411,0
8.3472,7.7714e-05,0
8.3477,3.2395e-05,0
8.3482,-4.6998e-06,0
8.3487,-3.9109e-05,0
8.3492,-7.1e-05,0
8.3498,-9.4835e-05,0
8.3503,-0.00010642,0
8.3508,-0.00010726,0
8.3513,-0.00010692,0
8.3518,-0.00011431,0
8.3523,-0.00012639,0
8.3529,-0.00013512,0
8.3534,-0.00013629,0
8.3539,-0.00013344,0
8.3544,-0.00013025,0
8.3549,-0.0001232,0
8.3555,-0.0001091,0
8.356,-9.1478e-05,0
8.3565,-7.5364e-05,0
8.357,-5.8244e-05,0
8.3575,-4.1459e-05,0
8.3581,-3.3066e-05,0
8.3586,-3.5248e-05,0
8.3591,-3.8773e-05,0
8.3596,-3.592e-05,0
8.3601,-2.5681e-05,0
8.3607,-1.6617e-05,0
8.3612,-1.4099e-05,0
8.3617,-1.326e-05,0
8.3622,-1.1246e-05,0
8.3627,-8.5603e-06,0
8.3633,-5.539e-06,0
8.3638,-6.2104e-06,0
8.3643,-1.1917e-05,0
8.3648,-1.6114e-05,0
8.3653,-1.561e-05,0
8.3658,-1.9303e-05,0
8.3664,-2.9206e-05,0
8.3669,-3.3906e-05,0
8.3674,-3.2059e-05,0
8.3679,-3.1724e-05,0
8.3684,-4.918e-05,0
8.369,-7.0665e-05,0
8.3695,-6.949e-05,0
8.37,-4.5823e-05,0
8.3705,-1.9638e-05,0
8.371,1.1749e-06,0
8.3716,2.6184e-05,0
8.3721,6.1601e-05,0
8.3726,0.00010256,0
8.3731,0.0001321,0
8.3736,0.00014653,0
8.3742,0.00014821,0
8.3747,0.00013948,0
8.3752,0.00012337,0
8.3757,0.00010373,0
8.3762,8.2078e-05,0
8.3767,5.6901e-05,0
8.3773,3.4073e-05,0
8.3778,1.3764e-05,0
8.3783,-8.3925e-06,0
8.3788,-3.743e-05,0
8.3793,-7.2007e-05,0
8.3799,-0.00010004,0
8.3804,-0.00010558,0
8.3809,-8.2078e-05,0
8.3814,-4.8844e-05,0
8.3819,-2.8534e-05,0
8.3825,-2.6184e-05,0
8.383,-2.4842e-05,0
8.3835,-2.6856e-06,0
8.384,3.592e-05,0
8.3845,7.57e-05,0
8.3851,0.00011666,0
8.3856,0.00014838,0
8.3861,0.00015358,0
8.3866,0.0001373,0
8.3871,0.00011783,0
8.3877,9.8024e-05,0
8.3882,6.8315e-05,0
8.3887,3.0716e-05,0
8.3892,-3.357e-07,0
8.3897,-1.3931e-05,0
8.3902,-7.3854e-06,0
8.3908,1.2924e-05,0
8.3913,3.6423e-05,0
8.3918,6.2943e-05,0
8.3923,0.00010054,0
8.3928,0.00014888,0
8.3934,0.00019924,0
8.3939,0.00024204,0
8.3944,0.00026403,0
8.3949,0.00025362,0
8.3954,0.00021602,0
8.396,0.00016667,0
8.3965,0.00011733,0
8.397,7.1e-05,0
8.3975,3.1388e-05,0
8.398,5.2033e-06,0
8.3986,-6.8818e-06,0
8.3991,-1.091e-05,0
8.3996,-1.2253e-05,0
8.4001,-1.7288e-05,0
8.4006,-2.5177e-05,0
8.4012,-3.3402e-05,0
8.4017,-4.6494e-05,0
8.4022,-6.3279e-05,0
8.4027,-7.5364e-05,0
8.4032,-8.661e-05,0
8.4038,-0.00010776,0
8.4043,-0.00014133,0
8.4048,-0.0001744,0
8.4053,-0.00018581,0
8.4058,-0.00017322,0
8.4063,-0.00014502,0
8.4069,-0.00010709,0
8.4074,-6.0594e-05,0
8.4079,-1.4099e-05,0
8.4084,2.652e-05,0
8.4089,6.0929e-05,0
8.4095,9.2317e-05,0
8.41,0.00012471,0
8.4105,0.00015828,0
8.411,0.0001754,0
8.4115,0.00014821,0
8.4121,8.275e-05,0
8.4126,1.4435e-05,0
8.4131,-3.4913e-05,0
8.4136,-6.6468e-05,0
8.4141,-9.4163e-05,0
8.4147,-0.00012068,0
8.4152,-0.00013613,0
8.4157,-0.00012891,0
8.4162,-0.00010004,0
8.4167,-7.335e-05,0
8.4172,-5.5894e-05,0
8.4178,-3.2731e-05,0
8.4183,3.6927e-06,0
8.4188,4.8676e-05,0
8.4193,9.3156e-05,0
8.4198,0.0001274,0
8.4204,0.00014653,0
8.4209,0.00015828,0
8.4214,0.00017507,0
8.4219,0.00020108,0
8.4224,0.00021871,0
8.423,0.0002083,0
8.4235,0.00017641,0
8.424,0.00014469,0
8.4245,0.00012035,0
8.425,9.8695e-05,0
8.4256,7.2847e-05,0
8.4261,4.3305e-05,0
8.4266,1.8631e-05,0
8.4271,-1.6785e-06,0
8.4276,-2.2492e-05,0
8.4282,-4.213e-05,0
8.4287,-5.9754e-05,0
8.4292,-7.6875e-05,0
8.4297,-8.8792e-05,0
8.4302,-9.5338e-05,0
8.4307,-9.987e-05,0
8.4313,-0.00010037,0
8.4318,-9.6513e-05,0
8.4323,-8.8121e-05,0
8.4328,-7.1168e-05,0
8.4333,-4.3809e-05,0
8.4339,-1.1246e-05,0
8.4344,2.1317e-05,0
8.4349,5.1865e-05,0
8.4354,7.1168e-05,0
8.4359,7.6036e-05,0
8.4365,7.7546e-05,0
8.437,7.9393e-05,0
8.4375,7.6371e-05,0
8.438,7.0329e-05,0
8.4385,6.5461e-05,0
8.4391,6.0426e-05,0
8.4396,5.0019e-05,0
8.4401,3.0549e-05,0
8.4406,1.5106e-06,0
8.4411,-2.6352e-05,0
8.4417,-4.9683e-05,0
8.4422,-8.4764e-05,0
8.4427,-0.00012605,0
8.4432,-0.00014418,0
8.4437,-0.00014116,0
8.4443,-0.00015425,0
8.4448,-0.00018766,0
8.4453,-0.00019789,0
8.4458,-0.00015996,0
8.4463,-8.7114e-05,0
8.4468,1.6785e-07,0
8.4474,9.0471e-05,0
8.4479,0.00017171,0
8.4484,0.00023146,0
8.4489,0.00026671,0
8.4494,0.00028853,0
8.45,0.0002976,0
8.4505,0.00029642,0
8.451,0.00028954,0
8.4515,0.00027041,0
8.452,0.00023012,0
8.4526,0.00017104,0
8.4531,0.00010457,0
8.4536,5.2201e-05,0
8.4541,2.4674e-05,0
8.4546,9.3996e-06,0
8.4552,-1.2589e-05,0
8.4557,-4.448e-05,0
8.4562,-7.1e-05,0
8.4567,-8.7282e-05,0
8.4572,-0.00010088,0
8.4578,-0.00011682,0
8.4583,-0.00013193,0
8.4588,-0.0001373,0
8.4593,-0.00012471,0
8.4598,-9.9199e-05,0
8.4603,-6.9657e-05,0
8.4609,-4.2466e-05,0
8.4614,-1.8631e-05,0
8.4619,2.5177e-06,0
8.4624,2.652e-05,0
8.4629,4.7333e-05,0
8.4635,5.5894e-05,0
8.464,5.623e-05,0
8.4645,6.009e-05,0
8.465,6.9322e-05,0
8.4655,7.2007e-05,0
8.4661,6.2272e-05,0
8.4666,5.1194e-05,0
8.4671,4.448e-05,0
8.4676,3.2059e-05,0
8.4681,1.091e-05,0
8.4687,-1.7624e-05,0
8.4692,-4.8173e-05,0
8.4697,-6.9993e-05,0
8.4702,-7.4525e-05,0
8.4707,-6.479e-05,0
8.4713,-4.213e-05,0
8.4718,-9.5674e-06,0
8.4723,2.4338e-05,0
8.4728,5.153e-05,0
8.4733,7.2679e-05,0
8.4738,8.7114e-05,0
8.4744,9.0974e-05,0
8.4749,8.4428e-05,0
8.4754,7.1672e-05,0
8.4759,5.4551e-05,0
8.4764,3.0549e-05,0
8.477,1.5106e-06,0
8.4775,-1.9303e-05,0
8.478,-2.2995e-05,0
8.4785,-1.6617e-05,0
8.479,-8.5603e-06,0
8.4796,8.3925e-07,0
8.4801,1.6953e-05,0
8.4806,3.743e-05,0
8.4811,5.6062e-05,0
8.4816,6.8315e-05,0
8.4822,7.1672e-05,0
8.4827,6.1601e-05,0
8.4832,4.4144e-05,0
8.4837,3.0381e-05,0
8.4842,2.031e-05,0
8.4848,1.0407e-05,0
8.4853,-1.8463e-06,0
8.4858,-1.1582e-05,0
8.4863,-1.5106e-05,0
8.4868,-1.6449e-05,0
8.4873,-2.4338e-05,0
8.4879,-3.5248e-05,0
8.4884,-4.0787e-05,0
8.4889,-3.5416e-05,0
8.4894,-2.0645e-05,0
8.4899,-4.1962e-06,0
8.4905,9.9031e-06,0
8.491,2.2995e-05,0
8.4915,3.3738e-05,0
8.492,3.6591e-05,0
8.4925,3.7766e-05,0
8.4931,4.5151e-05,0
8.4936,4.9348e-05,0
8.4941,5.1194e-05,0
8.4946,5.4719e-05,0
8.4951,6.0258e-05,0
8.4957,6.9322e-05,0
8.4962,7.6204e-05,0
8.4967,7.6036e-05,0
8.4972,6.3783e-05,0
8.4977,3.8941e-05,0
8.4983,4.5319e-06,0
8.4988,-2.9374e-05,0
8.4993,-5.153e-05,0
8.4998,-5.6565e-05,0
8.5003,-5.153e-05,0
8.5008,-4.448e-05,0
8.5014,-3.6088e-05,0
8.5019,-1.8799e-05,0
8.5024,1.6449e-05,0
8.5029,6.5293e-05,0
8.5034,0.00011363,0
8.504,0.00014922,0
8.5045,0.00016718,0
8.505,0.00015694,0
8.5055,0.00011179,0
8.506,5.388e-05,0
8.5066,1.2924e-05,0
8.5071,-3.1891e-06,0
8.5076,-3.6927e-06,0
8.5081,-6.714e-07,0
8.5086,5.0355e-07,0
8.5092,-5.0355e-07,0
8.5097,-2.5177e-06,0
8.5102,1.6785e-06,0
8.5107,1.1917e-05,0
8.5112,1.4939e-05,0
8.5117,3.357e-07,0
8.5123,-2.4338e-05,0
8.5128,-4.4312e-05,0
8.5133,-4.8508e-05,0
8.5138,-4.213e-05,0
8.5143,-3.9948e-05,0
8.5149,-4.7669e-05,0
8.5154,-6.1265e-05,0
8.5159,-6.6133e-05,0
8.5164,-5.1026e-05,0
8.5169,-2.2995e-05,0
8.5175,7.8889e-06,0
8.518,3.5416e-05,0
8.5185,5.4215e-05,0
8.519,7.3014e-05,0
8.5195,0.00010793,0
8.5201,0.00015929,0
8.5206,0.00020897,0
8.5211,0.00023314,0
8.5216,0.00022408,0
8.5221,0.00019286,0
8.5227,0.0001519,0
8.5232,0.00011397,0
8.5237,7.7882e-05,0
8.5242,3.827e-05,0
8.5247,-2.6856e-06,0
8.5252,-3.4577e-05,0
8.5258,-5.2873e-05,0
8.5263,-6.5629e-05,0
8.5268,-8.8121e-05,0
8.5273,-0.00012706,0
8.5278,-0.00017003,0
8.5284,-0.00020024,0
8.5289,-0.00020595,0
8.5294,-0.00017826,0
8.5299,-0.00012992,0
8.5304,-7.7043e-05,0
8.531,-2.3667e-05,0
8.5315,3.6423e-05,0
8.532,0.00010709,0
8.5325,0.00018027,0
8.533,0.00023835,0
8.5336,0.00026201,0
8.5341,0.00024674,0
8.5346,0.00021065,0
8.5351,0.00017171,0
8.5356,0.00013529,0
8.5362,9.7353e-05,0
8.5367,6.3447e-05,0
8.5372,3.9948e-05,0
8.5377,2.266e-05,0
8.5382,3.0213e-06,0
8.5388,-1.8631e-05,0
8.5393,-3.1724e-05,0
8.5398,-3.5752e-05,0
8.5403,-3.9109e-05,0
8.5408,-5.388e-05,0
8.5413,-8.3253e-05,0
8.5419,-0.00010793,0
8.5424,-0.00011095,0
8.5429,-9.3492e-05,0
8.5434,-6.5965e-05,0
8.5439,-3.6927e-05,0
8.5445,-1.0575e-05,0
8.545,1.1414e-05,0
8.5455,3.2059e-05,0
8.546,4.7837e-05,0
8.5465,5.2201e-05,0
8.5471,4.8005e-05,0
8.5476,4.4648e-05,0
8.5481,4.8676e-05,0
8.5486,5.0858e-05,0
8.5491,3.8437e-05,0
8.5497,6.5461e-06,0
8.5502,-3.3066e-05,0
8.5507,-6.4958e-05,0
8.5512,-8.0568e-05,0
8.5517,-7.6204e-05,0
8.5523,-5.8915e-05,0
8.5528,-4.2802e-05,0
8.5533,-3.4073e-05,0
8.5538,-2.652e-05,0
8.5543,-1.2253e-05,0
8.5548,8.3925e-06,0
8.5554,2.4506e-05,0
8.5559,3.4745e-05,0
8.5564,4.4816e-05,0
8.5569,4.4816e-05,0
8.5574,2.7192e-05,0
8.558,2.5177e-06,0
8.5585,-1.2085e-05,0
8.559,-1.5106e-05,0
8.5595,-1.1917e-05,0
8.56,-2.5177e-06,0
8.5606,1.326e-05,0
8.5611,3.4073e-05,0
8.5616,6.4118e-05,0
8.5621,9.4499e-05,0
8.5626,0.00011397,0
8.5632,0.00012203,0
8.5637,0.00012505,0
8.5642,0.0001237,0
8.5647,0.00011783,0
8.5652,0.0001086,0
8.5657,9.7185e-05,0
8.5663,8.4428e-05,0
8.5668,6.5965e-05,0
8.5673,3.978e-05,0
8.5678,1.4435e-05,0
8.5683,-1.5106e-06,0
8.5689,-9.0639e-06,0
8.5694,-1.5778e-05,0
8.5699,-4.0452e-05,0
8.5704,-9.9199e-05,0
8.5709,-0.00018144,0
8.5715,-0.00025194,0
8.572,-0.00027762,0
8.5725,-0.00025513,0
8.573,-0.00020478,0
8.5735,-0.00014351,0
8.5741,-7.6036e-05,0
8.5746,-3.5248e-06,0
8.5751,7.4022e-05,0
8.5756,0.00015526,0
8.5761,0.00024053,0
8.5767,0.00031405,0
8.5772,0.00034023,0
8.5777,0.00031791,0
8.5782,0.00026873,0
8.5787,0.00020427,0
8.5793,0.00013378,0
8.5798,6.5293e-05,0
8.5803,-1.1749e-06,0
8.5808,-5.6565e-05,0
8.5813,-8.661e-05,0
8.5818,-8.8792e-05,0
8.5824,-7.4189e-05,0
8.5829,-4.9851e-05,0
8.5834,-1.6281e-05,0
8.5839,2.3331e-05,0
8.5844,6.3279e-05,0
8.585,9.987e-05,0
8.5855,0.00012941,0
8.586,0.00014351,0
8.5865,0.00013579,0
8.587,0.00011917,0
8.5876,0.00010558,0
8.5881,8.7785e-05,0
8.5886,5.9419e-05,0
8.5891,2.7527e-05,0
8.5896,4.5319e-06,0
8.5902,-6.714e-06,0
8.5907,-1.091e-05,0
8.5912,-1.2924e-05,0
8.5917,-1.1582e-05,0
8.5922,-1.1246e-05,0
8.5928,-1.1917e-05,0
8.5933,-8.896e-06,0
8.5938,-1.6785e-06,0
8.5943,2.182e-06,0
8.5948,-2.3499e-06,0
8.5953,-1.1246e-05,0
8.5959,-2.2828e-05,0
8.5964,-3.4073e-05,0
8.5969,-4.2466e-05,0
8.5974,-5.0523e-05,0
8.5979,-5.8747e-05,0
8.5985,-6.4958e-05,0
8.599,-7.335e-05,0
8.5995,-8.7449e-05,0
8.6,-0.00010088,0
8.6005,-0.00010524,0
8.6011,-9.3324e-05,0
8.6016,-6.5965e-05,0
8.6021,-3.2395e-05,0
8.6026,-1.6785e-06,0
8.6031,2.4674e-05,0
8.6037,5.1865e-05,0
8.6042,7.5029e-05,0
8.6047,8.3421e-05,0
8.6052,7.8721e-05,0
8.6057,6.8986e-05,0
8.6062,6.2104e-05,0
8.6068,5.2705e-05,0
8.6073,3.8773e-05,0
8.6078,2.9374e-05,0
8.6083,2.9541e-05,0
8.6088,3.8773e-05,0
8.6094,5.1194e-05,0
8.6099,5.4887e-05,0
8.6104,4.5823e-05,0
8.6109,3.8102e-05,0
8.6114,3.7934e-05,0
8.612,4.0452e-05,0
8.6125,4.0452e-05,0
8.613,4.1459e-05,0
8.6135,4.5655e-05,0
8.614,5.153e-05,0
8.6146,5.623e-05,0
8.6151,5.623e-05,0
8.6156,5.0355e-05,0
8.6161,3.5752e-05,0
8.6166,1.6617e-05,0
8.6172,-6.8818e-06,0
8.6177,-3.8437e-05,0
8.6182,-7.7379e-05,0
8.6187,-0.00011531,0
8.6192,-0.00014066,0
8.6197,-0.00014116,0
8.6203,-0.00012136,0
8.6208,-0.00011179,0
8.6213,-0.00012236,0
8.6218,-0.00012807,0
8.6223,-0.00011464,0
8.6229,-9.4163e-05,0
8.6234,-6.5126e-05,0
8.6239,-1.8967e-05,0
8.6244,3.8773e-05,0
8.6249,9.2485e-05,0
8.6255,0.000142,0
8.626,0.00019487,0
8.6265,0.00023885,0
8.627,0.00025899,0
8.6275,0.00026537,0
8.6281,0.00026503,0
8.6286,0.00025899,0
8.6291,0.00024909,0
8.6296,0.00023432,0
8.6301,0.00021032,0
8.6307,0.00017708,0
8.6312,0.00013411,0
8.6317,8.9632e-05,0
8.6322,5.4383e-05,0
8.6327,3.1891e-05,0
8.6333,1.7288e-05,0
8.6338,3.8605e-06,0
8.6343,-8.3925e-06,0
8.6348,-1.9303e-05,0
8.6353,-3.4409e-05,0
8.6358,-5.5558e-05,0
8.6364,-7.6371e-05,0
8.6369,-8.7449e-05,0
8.6374,-9.9031e-05,0
8.6379,-0.00011917,0
8.6384,-0.00013478,0
8.639,-0.00013126,0
8.6395,-0.00011028,0
8.64,-8.8121e-05,0
8.6405,-6.8986e-05,0
8.641,-3.8102e-05,0
8.6416,4.1962e-06,0
8.6421,2.7024e-05,0
8.6426,2.266e-05,0
8.6431,2.266e-05,0
8.6436,4.0116e-05,0
8.6442,5.8915e-05,0
8.6447,6.6804e-05,0
8.6452,6.6804e-05,0
8.6457,6.3279e-05,0
8.6462,5.8244e-05,0
8.6468,5.2369e-05,0
8.6473,4.6159e-05,0
8.6478,3.4745e-05,0
8.6483,1.9638e-05,0
8.6488,1.5106e-06,0
8.6493,-1.561e-05,0
8.6499,-2.3835e-05,0
8.6504,-2.1317e-05,0
8.6509,-1.0575e-05,0
8.6514,-8.3925e-07,0
8.6519,8.896e-06,0
8.6525,2.8534e-05,0
8.653,5.2033e-05,0
8.6535,6.4286e-05,0
8.654,5.8076e-05,0
8.6545,3.8437e-05,0
8.6551,1.3931e-05,0
8.6556,-3.8605e-06,0
8.6561,-1.2924e-05,0
8.6566,-2.0645e-05,0
8.6571,-3.0716e-05,0
8.6577,-3.8102e-05,0
8.6582,-3.9109e-05,0
8.6587,-3.3402e-05,0
