91.804,0.0002031,0
91.805,0.00019857,0
91.805,0.00018514,0
91.806,0.00016432,0
91.806,0.00014452,0
91.807,0.00012857,0
91.807,0.00011447,0
91.808,9.0806e-05,0
91.808,4.2802e-05,0
91.809,-2.8367e-05,0
91.809,-0.00010591,0
91.81,-0.00017288,0
91.81,-0.0002177,0
91.811,-0.0002365,0
91.811,-0.00022979,0
91.812,-0.00019974,0
91.812,-0.0001556,0
91.813,-0.00011615,0
91.814,-8.7953e-05,0
91.814,-5.4215e-05,0
91.815,-6.714e-07,0
91.815,6.9154e-05,0
91.816,0.00013378,0
91.816,0.00018296,0
91.817,0.00022139,0
91.817,0.00024556,0
91.818,0.00024439,0
91.818,0.00021971,0
91.819,0.00019084,0
91.819,0.0001744,0
91.82,0.00015879,0
91.82,0.00012589,0
91.821,6.6972e-05,0
91.821,-6.2104e-06,0
91.822,-6.865e-05,0
91.822,-0.00010944,0
91.823,-0.00012488,0
91.823,-0.00012035,0
91.824,-0.00010356,0
91.824,-8.2078e-05,0
91.825,-5.8579e-05,0
91.825,-2.9206e-05,0
91.826,-5.3712e-06,0
91.826,1.1749e-05,0
91.827,3.5416e-05,0
91.828,6.4118e-05,0
91.828,8.3085e-05,0
91.829,8.6275e-05,0
91.829,7.9225e-05,0
91.83,6.3783e-05,0
91.83,4.2802e-05,0
91.831,2.3835e-05,0
91.831,7.7211e-06,0
91.832,-5.2033e-06,0
91.832,-1.3764e-05,0
91.833,-1.7288e-05,0
91.833,-1.6281e-05,0
91.834,-8.5603e-06,0
91.834,3.1891e-06,0
91.835,1.4267e-05,0
91.835,2.5681e-05,0
91.836,4.0452e-05,0
91.836,5.4887e-05,0
91.837,6.4958e-05,0
91.837,6.9993e-05,0
91.838,6.9322e-05,0
91.838,5.9754e-05,0
91.839,3.8605e-05,0
91.839,1.6617e-05,0
91.84,4.3641e-06,0
91.841,4.5319e-06,0
91.841,1.3931e-05,0
91.842,3.0549e-05,0
91.842,4.9516e-05,0
91.843,6.1265e-05,0
91.843,5.8915e-05,0
91.844,4.9348e-05,0
91.844,4.2466e-05,0
91.845,3.827e-05,0
91.845,3.3234e-05,0
91.846,2.8367e-05,0
91.846,1.8631e-05,0
91.847,-6.714e-07,0
91.847,-2.3163e-05,0
91.848,-4.0116e-05,0
91.848,-5.0187e-05,0
91.849,-5.4719e-05,0
91.849,-5.7237e-05,0
91.85,-5.8244e-05,0
91.85,-5.6733e-05,0
91.851,-5.4719e-05,0
91.851,-4.9851e-05,0
91.852,-3.8605e-05,0
91.852,-2.2492e-05,0
91.853,-7.0497e-06,0
91.853,1.6785e-07,0
91.854,-4.8676e-06,0
91.855,-2.0645e-05,0
91.855,-3.978e-05,0
91.856,-5.6062e-05,0
91.856,-6.7811e-05,0
91.857,-7.3014e-05,0
91.857,-8.1071e-05,0
91.858,-0.00010222,0
91.858,-0.00012438,0
91.859,-0.00012421,0
91.859,-9.7856e-05,0
91.86,-5.5894e-05,0
91.86,-6.8818e-06,0
91.861,4.0116e-05,0
91.861,7.0329e-05,0
91.862,8.3757e-05,0
91.862,9.8527e-05,0
91.863,0.00011901,0
91.863,0.00013713,0
91.864,0.00015325,0
91.864,0.00017171,0
91.865,0.00019571,0
91.865,0.00021988,0
91.866,0.00023214,0
91.866,0.00023348,0
91.867,0.00023381,0
91.868,0.00022878,0
91.868,0.00021233,0
91.869,0.00017742,0
91.869,0.00012102,0
91.87,5.4719e-05,0
91.87,-6.5461e-06,0
91.871,-5.6062e-05,0
91.871,-9.4499e-05,0
91.872,-0.00011901,0
91.872,-0.00011749,0
91.873,-9.0135e-05,0
91.873,-5.9419e-05,0
91.874,-4.918e-05,0
91.874,-6.2776e-05,0
91.875,-9.1478e-05,0
91.875,-0.00012438,0
91.876,-0.00015576,0
91.876,-0.00016584,0
91.877,-0.00013378,0
91.877,-7.6539e-05,0
91.878,-2.3835e-05,0
91.878,1.1414e-05,0
91.879,3.6759e-05,0
91.879,7.1504e-05,0
91.88,0.00012572,0
91.88,0.00019319,0
91.881,0.00025698,0
91.882,0.00030515,0
91.882,0.00033335,0
91.883,0.00033687,0
91.883,0.00031002,0
91.884,0.00025966,0
91.884,0.00021267,0
91.885,0.00018514,0
91.885,0.00017641,0
91.886,0.00017977,0
91.886,0.00018379,0
91.887,0.00017624,0
91.887,0.00015879,0
91.888,0.00013646,0
91.888,0.00010423,0
91.889,5.2201e-05,0
91.889,-1.6953e-05,0
91.89,-8.4428e-05,0
91.89,-0.00013176,0
91.891,-0.00015895,0
91.891,-0.0001754,0
91.892,-0.00018497,0
91.892,-0.00018799,0
91.893,-0.00019303,0
91.893,-0.00019638,0
91.894,-0.00018698,0
91.894,-0.00016332,0
91.895,-0.00013227,0
91.896,-0.00010524,0
91.896,-9.7688e-05,0
91.897,-0.0001133,0
91.897,-0.00013529,0
91.898,-0.00015056,0
91.898,-0.00016164,0
91.899,-0.00017288,0
91.899,-0.00018296,0
91.9,-0.00018564,0
91.9,-0.00016902,0
91.901,-0.0001284,0
91.901,-7.2679e-05,0
91.902,-1.5946e-05,0
91.902,3.2563e-05,0
91.903,6.8818e-05,0
91.903,9.8192e-05,0
91.904,0.0001279,0
91.904,0.00015157,0
91.905,0.00015895,0
91.905,0.00015123,0
91.906,0.00013663,0
91.906,0.00012337,0
91.907,0.00011615,0
91.907,0.0001133,0
91.908,0.00010776,0
91.909,9.8863e-05,0
91.909,9.6513e-05,0
91.91,0.00010088,0
91.91,0.00010323,0
91.911,9.8863e-05,0
91.911,8.4764e-05,0
91.912,6.0258e-05,0
91.912,2.652e-05,0
91.913,-1.6281e-05,0
91.913,-6.4454e-05,0
91.914,-0.00010826,0
91.914,-0.00013948,0
91.915,-0.00015459,0
91.915,-0.00015761,0
91.916,-0.00015006,0
91.916,-0.00013092,0
91.917,-9.9031e-05,0
91.917,-5.7237e-05,0
91.918,-7.8889e-06,0
91.918,5.1194e-05,0
91.919,0.00011867,0
91.919,0.00018212,0
91.92,0.00022744,0
91.92,0.00025093,0
91.921,0.00025345,0
91.921,0.00023851,0
91.922,0.00020394,0
91.923,0.00014603,0
91.923,7.3854e-05,0
91.924,-5.0355e-07,0
91.924,-6.1936e-05,0
91.925,-0.00010021,0
91.925,-0.00011733,0
91.926,-0.00011733,0
91.926,-0.00010591,0
91.927,-9.2149e-05,0
91.927,-8.5771e-05,0
91.928,-8.6107e-05,0
91.928,-8.04e-05,0
91.929,-6.4958e-05,0
91.929,-4.3977e-05,0
91.93,-2.8031e-05,0
91.93,-1.5106e-05,0
91.931,4.3641e-06,0
91.931,2.9877e-05,0
91.932,4.5319e-05,0
91.932,3.6759e-05,0
91.933,1.4603e-05,0
91.933,9.2317e-06,0
91.934,3.0045e-05,0
91.934,5.3544e-05,0
91.935,6.009e-05,0
91.936,4.5823e-05,0
91.936,1.4603e-05,0
91.937,-8.0568e-06,0
91.937,3.5248e-06,0
91.938,5.153e-05,0
91.938,0.000118,0
91.939,0.00017977,0
91.939,0.00021736,0
91.94,0.00022576,0
91.94,0.00021703,0
91.941,0.00020864,0
91.941,0.00020562,0
91.942,0.00018514,0
91.942,0.00013126,0
91.943,5.6733e-05,0
91.943,-2.652e-05,0
91.944,-0.00010877,0
91.944,-0.00016701,0
91.945,-0.00018665,0
91.945,-0.00017859,0
91.946,-0.00016802,0
91.946,-0.00016701,0
91.947,-0.00017037,0
91.947,-0.00016768,0
91.948,-0.000142,0
91.948,-8.7114e-05,0
91.949,-4.8676e-06,0
91.95,9.987e-05,0
91.95,0.00021267,0
91.951,0.000307,0
91.951,0.00036507,0
91.952,0.000402,0
91.952,0.00043473,0
91.953,0.00045907,0
91.953,0.00046645,0
91.954,0.0004631,0
91.954,0.00044765,0
91.955,0.00040116,0
91.955,0.00031539,0
91.956,0.00021065,0
91.956,0.00011716,0
91.957,4.213e-05,0
91.957,-2.3835e-05,0
91.958,-8.1743e-05,0
91.958,-0.00012656,0
91.959,-0.0001613,0
91.959,-0.00019773,0
91.96,-0.00023449,0
91.96,-0.00026151,0
91.961,-0.00027124,0
91.961,-0.00026117,0
91.962,-0.0002313,0
91.963,-0.00019319,0
91.963,-0.00016735,0
91.964,-0.00016197,0
91.964,-0.00016869,0
91.965,-0.00016818,0
91.965,-0.00015929,0
91.966,-0.00015123,0
91.966,-0.00015761,0
91.967,-0.00018245,0
91.967,-0.00021585,0
91.968,-0.00023885,0
91.968,-0.0002313,0
91.969,-0.00019638,0
91.969,-0.00015409,0
91.97,-0.00012404,0
91.97,-0.00010726,0
91.971,-8.2918e-05,0
91.971,-3.508e-05,0
91.972,2.182e-05,0
91.972,5.8915e-05,0
91.973,7.4357e-05,0
91.973,8.3757e-05,0
91.974,9.2485e-05,0
91.974,0.00010054,0
91.975,0.00011363,0
91.975,0.00013394,0
91.976,0.00014855,0
91.977,0.0001321,0
91.977,8.7785e-05,0
91.978,4.8676e-05,0
91.978,3.7766e-05,0
91.979,5.4383e-05,0
91.979,8.2078e-05,0
91.98,0.0001133,0
91.98,0.00014536,0
91.981,0.00016181,0
91.981,0.00014183,0
91.982,9.1478e-05,0
91.982,4.4816e-05,0
91.983,3.1891e-05,0
91.983,4.683e-05,0
91.984,7.3014e-05,0
91.984,0.0001044,0
91.985,0.00013545,0
91.985,0.00015543,0
91.986,0.0001608,0
91.986,0.00015325,0
91.987,0.00013378,0
91.987,0.000118,0
91.988,0.00011464,0
91.988,0.00010591,0
91.989,8.0064e-05,0
91.99,3.5752e-05,0
91.99,-1.1917e-05,0
91.991,-4.1459e-05,0
91.991,-5.0523e-05,0
91.992,-5.0858e-05,0
91.992,-6.3783e-05,0
91.993,-0.00010373,0
91.993,-0.00015174,0
91.994,-0.00017406,0
91.994,-0.00016449,0
91.995,-0.00013361,0
91.995,-9.4163e-05,0
91.996,-6.0258e-05,0
91.996,-3.9948e-05,0
91.997,-2.6352e-05,0
91.997,-6.2104e-06,0
91.998,2.4338e-05,0
91.998,6.4958e-05,0
91.999,0.00011901,0
91.999,0.00018447,0
92,0.00023516,0
92,0.0002459,0
92.001,0.00021569,0
92.001,0.00017087,0
92.002,0.00013881,0
92.002,0.00011598,0
92.003,8.7282e-05,0
92.004,4.5991e-05,0
92.004,3.357e-06,0
92.005,-2.5849e-05,0
92.005,-3.5416e-05,0
92.006,-3.2059e-05,0
92.006,-3.4073e-05,0
92.007,-4.4144e-05,0
92.007,-4.6494e-05,0
92.008,-3.8102e-05,0
92.008,-3.3738e-05,0
92.009,-3.9445e-05,0
92.009,-4.5319e-05,0
92.01,-4.5151e-05,0
92.01,-5.153e-05,0
92.011,-7.335e-05,0
92.011,-9.4835e-05,0
92.012,-0.00010155,0
92.012,-9.7353e-05,0
92.013,-9.5506e-05,0
92.013,-9.0471e-05,0
92.014,-7.9057e-05,0
92.014,-6.4454e-05,0
92.015,-5.5222e-05,0
92.015,-5.5726e-05,0
92.016,-5.7572e-05,0
92.017,-4.5823e-05,0
92.017,-2.031e-05,0
92.018,5.0355e-07,0
92.018,8.2246e-06,0
92.019,5.539e-06,0
92.019,-1.6617e-05,0
92.02,-5.388e-05,0
92.02,-8.0903e-05,0
92.021,-7.57e-05,0
92.021,-3.6759e-05,0
92.022,1.8631e-05,0
92.022,7.57e-05,0
92.023,0.00012404,0
92.023,0.00015962,0
92.024,0.0001895,0
92.024,0.00021166,0
92.025,0.00020259,0
92.025,0.00016869,0
92.026,0.00013646,0
92.026,0.00011867,0
92.027,0.00011313,0
92.027,0.00011196,0
92.028,0.00010642,0
92.028,9.4499e-05,0
92.029,7.2847e-05,0
92.029,4.9516e-05,0
92.03,3.2731e-05,0
92.031,2.1149e-05,0
92.031,2.7695e-05,0
92.032,5.2201e-05,0
92.032,6.3951e-05,0
92.033,3.6759e-05,0
92.033,-2.4842e-05,0
92.034,-8.7114e-05,0
92.034,-0.00012706,0
92.035,-0.00014116,0
92.035,-0.00013579,0
92.036,-0.00011833,0
92.036,-9.0806e-05,0
92.037,-5.1194e-05,0
92.037,-6.5461e-06,0
92.038,2.9374e-05,0
92.038,5.5894e-05,0
92.039,8.426e-05,0
92.039,0.00011464,0
92.04,0.00013579,0
92.04,0.00014267,0
92.041,0.00013193,0
92.041,0.00011263,0
92.042,0.00010541,0
92.042,0.00012337,0
92.043,0.00015761,0
92.044,0.00017826,0
92.044,0.00016097,0
92.045,0.00010961,0
92.045,3.2059e-05,0
92.046,-4.9516e-05,0
92.046,-0.00010088,0
92.047,-0.00011212,0
92.047,-9.8192e-05,0
92.048,-7.6707e-05,0
92.048,-5.0187e-05,0
92.049,-1.2253e-05,0
92.049,3.6759e-05,0
92.05,8.6946e-05,0
92.05,0.00012874,0
92.051,0.00016735,0
92.051,0.00020528,0
92.052,0.00022576,0
92.052,0.00021233,0
92.053,0.00017154,0
92.053,0.00012068,0
92.054,7.5029e-05,0
92.054,4.1123e-05,0
92.055,1.2085e-05,0
92.055,-2.2324e-05,0
92.056,-5.8579e-05,0
92.056,-8.4764e-05,0
92.057,-9.5842e-05,0
92.058,-0.00010071,0
92.058,-0.00010558,0
92.059,-0.00010692,0
92.059,-0.00010138,0
92.06,-9.2149e-05,0
92.06,-8.2246e-05,0
92.061,-6.9322e-05,0
92.061,-4.8508e-05,0
92.062,-3.6255e-05,0
92.062,-4.9012e-05,0
92.063,-6.9154e-05,0
92.063,-7.8889e-05,0
92.064,-7.2847e-05,0
92.064,-5.5726e-05,0
92.065,-3.7095e-05,0
92.065,-1.8967e-05,0
92.066,4.5319e-06,0
92.066,2.4002e-05,0
92.067,3.0716e-05,0
92.067,3.122e-05,0
92.068,3.508e-05,0
92.068,4.4144e-05,0
92.069,5.153e-05,0
92.069,5.4551e-05,0
92.07,6.1936e-05,0
92.071,7.5532e-05,0
92.071,8.2078e-05,0
92.072,7.5364e-05,0
92.072,6.3447e-05,0
92.073,4.9851e-05,0
92.073,2.6352e-05,0
92.074,-6.3783e-06,0
92.074,-4.213e-05,0
92.075,-7.6707e-05,0
92.075,-0.00010054,0
92.076,-9.5338e-05,0
92.076,-6.8986e-05,0
92.077,-5.2201e-05,0
92.077,-5.1362e-05,0
92.078,-4.8508e-05,0
92.078,-4.8508e-05,0
92.079,-6.2272e-05,0
92.079,-6.2608e-05,0
92.08,-2.5345e-05,0
92.08,3.9445e-05,0
92.081,0.00011363,0
92.081,0.00018648,0
92.082,0.00024456,0
92.082,0.00027779,0
92.083,0.00029357,0
92.084,0.00030683,0
92.084,0.00031136,0
92.085,0.00029155,0
92.085,0.00024791,0
92.086,0.00019051,0
92.086,0.00012622,0
92.087,6.1601e-05,0
92.087,5.0355e-07,0
92.088,-4.9012e-05,0
92.088,-9.6178e-05,0
92.089,-0.00015929,0
92.089,-0.0002407,0
92.09,-0.00030632,0
92.09,-0.0003174,0
92.091,-0.00027494,0
92.091,-0.00020142,0
92.092,-0.00011078,0
92.092,-3.0381e-05,0
92.093,2.0813e-05,0
92.093,5.774e-05,0
92.094,8.9967e-05,0
92.094,0.00011263,0
92.095,0.00013814,0
92.095,0.00017675,0
92.096,0.00020914,0
92.096,0.00019722,0
92.097,0.0001321,0
92.098,4.6662e-05,0
92.098,-1.0407e-05,0
92.099,-1.6449e-05,0
92.099,7.8889e-06,0
92.1,3.1556e-05,0
92.1,4.8508e-05,0
92.101,6.6972e-05,0
92.101,8.6442e-05,0
92.102,0.00010625,0
92.102,0.0001284,0
92.103,0.00015425,0
92.103,0.0001791,0
92.104,0.00018614,0
92.104,0.00016432,0
92.105,0.00012807,0
92.105,9.3324e-05,0
92.106,5.4719e-05,0
92.106,1.1917e-05,0
92.107,-2.4506e-05,0
92.107,-5.0187e-05,0
92.108,-6.8818e-05,0
92.108,-8.275e-05,0
92.109,-9.5842e-05,0
92.109,-0.00010809,0
92.11,-0.00011783,0
92.111,-0.00012152,0
92.111,-0.00012068,0
92.112,-0.00011632,0
92.112,-0.00011313,0
92.113,-0.00010893,0
92.113,-9.836e-05,0
92.114,-8.1743e-05,0
92.114,-6.7308e-05,0
92.115,-6.3783e-05,0
92.115,-6.6133e-05,0
92.116,-6.4958e-05,0
92.116,-5.7404e-05,0
92.117,-5.2201e-05,0
92.117,-5.0187e-05,0
92.118,-4.7166e-05,0
92.118,-4.6494e-05,0
92.119,-5.1194e-05,0
92.119,-5.5558e-05,0
92.12,-5.1865e-05,0
92.12,-3.8102e-05,0
92.121,-2.1988e-05,0
92.121,-1.4771e-05,0
92.122,-2.1653e-05,0
92.122,-3.8605e-05,0
92.123,-5.304e-05,0
92.123,-5.8915e-05,0
92.124,-6.0258e-05,0
92.125,-5.5558e-05,0
92.125,-3.9445e-05,0
92.126,-1.2421e-05,0
92.126,1.796e-05,0
92.127,4.1291e-05,0
92.127,5.1194e-05,0
92.128,6.479e-05,0
92.128,8.191e-05,0
92.129,8.7449e-05,0
92.129,8.7114e-05,0
92.13,8.7114e-05,0
92.13,8.1575e-05,0
92.131,6.63e-05,0
92.131,3.8102e-05,0
92.132,-6.714e-07,0
92.132,-6.0594e-05,0
92.133,-0.00013445,0
92.133,-0.00017305,0
92.134,-0.00015409,0
92.134,-0.0001039,0
92.135,-4.6494e-05,0
92.135,2.6017e-05,0
92.136,0.00012807,0
92.136,0.00023952,0
92.137,0.00032949,0
92.138,0.00039126,0
92.138,0.0004255,0
92.139,0.00043221,0
92.139,0.00041476,0
92.14,0.00038035,0
92.14,0.00033352,0
92.141,0.00027745,0
92.141,0.00021602,0
92.142,0.00016281,0
92.142,0.00011666,0
92.143,6.5965e-05,0
92.143,1.5274e-05,0
92.144,-1.7121e-05,0
92.144,-1.9974e-05,0
92.145,-5.2033e-06,0
92.145,9.7353e-06,0
92.146,1.7456e-05,0
92.146,2.1317e-05,0
92.147,2.7024e-05,0
92.147,3.6759e-05,0
92.148,4.4648e-05,0
92.148,3.9445e-05,0
92.149,2.7359e-05,0
92.149,1.5946e-05,0
92.15,-9.5674e-06,0
92.15,-6.7308e-05,0
92.151,-0.00014737,0
92.152,-0.00021468,0
92.152,-0.00024825,0
92.153,-0.00025882,0
92.153,-0.00025647,0
92.154,-0.00023902,0
92.154,-0.00021485,0
92.155,-0.00019806,0
92.155,-0.00018581,0
92.156,-0.00016802,0
92.156,-0.00014452,0
92.157,-0.00011162,0
92.157,-6.3279e-05,0
92.158,-1.9974e-05,0
92.158,-3.5248e-06,0
92.159,4.3641e-06,0
92.159,3.2059e-05,0
92.16,8.04e-05,0
92.16,0.0001331,0
92.161,0.00017708,0
92.161,0.00021267,0
92.162,0.00024607,0
92.162,0.00028316,0
92.163,0.00030834,0
92.163,0.000307,0
92.164,0.00028904,0
92.165,0.00027242,0
92.165,0.00025631,0
92.166,0.00021971,0
92.166,0.00015727,0
92.167,9.4667e-05,0
92.167,5.4215e-05,0
92.168,3.2563e-05,0
92.168,1.0575e-05,0
92.169,-1.326e-05,0
92.169,-3.1388e-05,0
92.17,-4.0452e-05,0
92.17,-4.0452e-05,0
92.171,-3.3738e-05,0
92.171,-3.5248e-05,0
92.172,-6.5797e-05,0
92.172,-0.00012102,0
92.173,-0.00017742,0
92.173,-0.00021401,0
92.174,-0.00022223,0
92.174,-0.00021501,0
92.175,-0.00020545,0
92.175,-0.00018849,0
92.176,-0.00015828,0
92.176,-0.00011397,0
92.177,-5.4551e-05,0
92.177,-1.6785e-07,0
92.178,2.6352e-05,0
92.179,3.5752e-05,0
92.179,5.8076e-05,0
92.18,0.00010188,0
92.18,0.00014754,0
92.181,0.00016667,0
92.181,0.0001509,0
92.182,0.00011447,0
92.182,7.9393e-05,0
92.183,5.5558e-05,0
92.183,4.6326e-05,0
92.184,5.4047e-05,0
92.184,7.3686e-05,0
92.185,8.7953e-05,0
92.185,8.7785e-05,0
92.186,7.7043e-05,0
92.186,5.9586e-05,0
92.187,2.5345e-05,0
92.187,-4.6159e-05,0
92.188,-0.0001613,0
92.188,-0.00029223,0
92.189,-0.00039294,0
92.189,-0.00042953,0
92.19,-0.00039831,0
92.19,-0.00031908,0
92.191,-0.00021619,0
92.192,-0.00010709,0
92.192,-3.0213e-06,0
92.193,9.5506e-05,0
92.193,0.00019487,0
92.194,0.00028685,0
92.194,0.00036474,0
92.195,0.00043355,0
92.195,0.00048038,0
92.196,0.0004688,0
92.196,0.00038085,0
92.197,0.00023482,0
92.197,8.2078e-05,0
92.198,-2.7527e-05,0
92.198,-9.0135e-05,0
92.199,-0.00011984,0
92.199,-0.00011531,0
92.2,-7.805e-05,0
92.2,-2.0981e-05,0
92.201,4.213e-05,0
92.201,0.00010306,0
92.202,0.00015291,0
92.202,0.00019319,0
92.203,0.00023516,0
92.203,0.00027594,0
92.204,0.0002986,0
92.204,0.00029525,0
92.205,0.00026772,0
92.206,0.0002224,0
92.206,0.00016197,0
92.207,9.5171e-05,0
92.207,3.1388e-05,0
92.208,-2.3835e-05,0
92.208,-7.2679e-05,0
92.209,-0.00011112,0
92.209,-0.00012975,0
92.21,-0.00013411,0
92.21,-0.00013545,0
92.211,-0.00013243,0
92.211,-0.00012186,0
92.212,-0.00010457,0
92.212,-8.5603e-05,0
92.213,-7.1672e-05,0
92.213,-6.4622e-05,0
92.214,-6.0258e-05,0
92.214,-5.4383e-05,0
92.215,-4.8173e-05,0
92.215,-5.0858e-05,0
92.216,-6.2608e-05,0
92.216,-7.6539e-05,0
92.217,-8.8121e-05,0
92.217,-9.6849e-05,0
92.218,-9.6849e-05,0
92.219,-8.9128e-05,0
92.219,-8.3085e-05,0
92.22,-8.275e-05,0
92.22,-8.4428e-05,0
92.221,-8.5771e-05,0
92.221,-9.0806e-05,0
92.222,-0.00010004,0
92.222,-0.00011196,0
92.223,-0.00012975,0
92.223,-0.00014871,0
92.224,-0.0001613,0
92.224,-0.00016349,0
92.225,-0.00015476,0
92.225,-0.00013462,0
92.226,-0.00010071,0
92.226,-6.3279e-05,0
92.227,-3.7766e-05,0
92.227,-1.1917e-05,0
92.228,3.2731e-05,0
92.228,9.5171e-05,0
92.229,0.0001608,0
92.229,0.00022139,0
92.23,0.00026705,0
92.23,0.00028316,0
92.231,0.00027108,0
92.231,0.00024775,0
92.232,0.00022005,0
92.233,0.00018514,0
92.233,0.00014888,0
92.234,0.00011565,0
92.234,7.3686e-05,0
92.235,1.9135e-05,0
92.235,-4.2298e-05,0
92.236,-9.8863e-05,0
92.236,-0.00013898,0
92.237,-0.00015325,0
92.237,-0.00014519,0
92.238,-0.00013445,0
92.238,-0.00013143,0
92.239,-0.00011833,0
92.239,-7.3014e-05,0
92.24,9.9031e-06,0
92.24,0.00012052,0
92.241,0.00023381,0
92.241,0.0003221,0
92.242,0.00037313,0
92.242,0.00039327,0
92.243,0.00039663,0
92.243,0.00038253,0
92.244,0.00034493,0
92.244,0.00028299,0
92.245,0.00020729,0
92.246,0.00012673,0
92.246,5.0523e-05,0
92.247,-2.5177e-06,0
92.247,-1.2757e-05,0
92.248,2.6856e-06,0
92.248,1.4603e-05,0
92.249,1.2421e-05,0
92.249,-1.1749e-06,0
92.25,-2.2492e-05,0
92.25,-4.5319e-05,0
92.251,-6.9154e-05,0
92.251,-9.836e-05,0
92.252,-0.00013109,0
92.252,-0.00013915,0
92.253,-0.00011028,0
92.253,-6.2272e-05,0
92.254,-1.8296e-05,0
92.254,1.3931e-05,0
92.255,4.9516e-05,0
92.255,0.00010021,0
92.256,0.00016197,0
92.256,0.00022542,0
92.257,0.00028803,0
92.257,0.00033654,0
92.258,0.00034694,0
92.258,0.00030465,0
92.259,0.00022542,0
92.26,0.00013075,0
92.26,4.062e-05,0
92.261,-3.0381e-05,0
92.261,-7.8721e-05,0
92.262,-0.00011514,0
92.262,-0.0001472,0
92.263,-0.00017322,0
92.263,-0.00019101,0
92.264,-0.00020092,0
92.264,-0.00019991,0
92.265,-0.00018917,0
92.265,-0.00016667,0
92.266,-0.0001425,0
92.266,-0.00015123,0
92.267,-0.0002083,0
92.267,-0.00027124,0
92.268,-0.00030246,0
92.268,-0.00029995,0
92.269,-0.00027376,0
92.269,-0.00022895,0
92.27,-0.00017758,0
92.27,-0.00013042,0
92.271,-9.3828e-05,0
92.271,-5.2705e-05,0
92.272,-3.357e-07,0
92.272,3.8773e-05,0
92.273,4.2802e-05,0
92.274,3.5416e-05,0
92.274,3.8102e-05,0
92.275,4.4144e-05,0
92.275,4.4816e-05,0
92.276,5.153e-05,0
92.276,7.6707e-05,0
92.277,0.00011917,0
92.277,0.00016399,0
92.278,0.00019907,0
92.278,0.00022441,0
92.279,0.00024422,0
92.279,0.00026218,0
92.28,0.00027242,0
92.28,0.00026906,0
92.281,0.00024086,0
92.281,0.00016567,0
92.282,3.2731e-05,0
92.282,-0.00012941,0
92.283,-0.00026151,0
92.283,-0.00032445,0
92.284,-0.00033805,0
92.284,-0.00033033,0
92.285,-0.00030095,0
92.285,-0.00024422,0
92.286,-0.00015644,0
92.287,-4.5991e-05,0
92.287,6.9993e-05,0
92.288,0.00018614,0
92.288,0.00030263,0
92.289,0.0004114,0
92.289,0.00048827,0
92.29,0.00051244,0
92.29,0.00048324,0
92.291,0.00041878,0
92.291,0.00034426,0
92.292,0.00027779,0
92.292,0.00022005,0
92.293,0.00016634,0
92.293,0.00011766,0
92.294,7.1336e-05,0
92.294,2.8534e-05,0
92.295,-2.5177e-06,0
92.295,-1.9974e-05,0
92.296,-2.9709e-05,0
92.296,-3.8102e-05,0
92.297,-4.8676e-05,0
92.297,-6.0761e-05,0
92.298,-7.3014e-05,0
92.298,-8.426e-05,0
92.299,-9.9535e-05,0
92.299,-0.00013294,0
92.3,-0.00017523,0
92.301,-0.00020981,0
92.301,-0.00024556,0
92.302,-0.00029827,0
92.302,-0.00035483,0
92.303,-0.00041173,0
92.303,-0.00048693,0
92.304,-0.00056095,0
92.304,-0.00058647,0
92.305,-0.00055055,0
92.305,-0.00047971,0
92.306,-0.00038907,0
92.306,-0.00027225,0
92.307,-0.00012807,0
92.307,2.4338e-05,0
92.308,0.00015828,0
92.308,0.00028081,0
92.309,0.00041392,0
92.309,0.00054165,0
92.31,0.00063363,0
92.31,0.00067459,0
92.311,0.0006719,0
92.311,0.00064102,0
92.312,0.00059066,0
92.312,0.00052151,0
92.313,0.00043624,0
92.314,0.00034929,0
92.314,0.00027578,0
92.315,0.00022861,0
92.315,0.00020713,0
92.316,0.00019152,0
92.316,0.00015795,0
92.317,8.3925e-05,0
92.317,-2.6688e-05,0
92.318,-0.00013159,0
92.318,-0.00019638,0
92.319,-0.00021653,0
92.319,-0.00021636,0
92.32,-0.00023717,0
92.32,-0.00028618,0
92.321,-0.00032747,0
92.321,-0.00033754,0
92.322,-0.00031824,0
92.322,-0.00028518,0
92.323,-0.00022811,0
92.323,-0.00015492,0
92.324,-0.00011145,0
92.324,-0.00010407,0
92.325,-9.7856e-05,0
92.325,-7.8553e-05,0
92.326,-7.9728e-05,0
92.326,-0.00012874,0
92.327,-0.00017557,0
92.328,-0.0001566,0
92.328,-7.5364e-05,0
92.329,3.0381e-05,0
92.329,0.00012639,0
92.33,0.00020394,0
92.33,0.00027141,0
92.331,0.00033117,0
92.331,0.00037749,0
92.332,0.00040905,0
92.332,0.00041946,0
92.333,0.00040569,0
92.333,0.00037816,0
92.334,0.00035232,0
92.334,0.00032697,0
92.335,0.00025631,0
92.335,0.00010642,0
92.336,-7.1672e-05,0
92.336,-0.00020612,0
92.337,-0.0002835,0
92.337,-0.00030918,0
92.338,-0.00027964,0
92.338,-0.00020981,0
92.339,-0.00013008,0
92.339,-6.009e-05,0
92.34,7.8889e-06,0
92.341,8.3085e-05,0
92.341,0.00015224,0
92.342,0.00019655,0
92.342,0.00021804,0
92.343,0.00023348,0
92.343,0.00025228,0
92.344,0.00025228,0
92.344,0.00021183,0
92.345,0.00014905,0
92.345,9.752e-05,0
92.346,7.0329e-05,0
92.346,5.9922e-05,0
92.347,5.5222e-05,0
92.347,5.5222e-05,0
92.348,4.9851e-05,0
92.348,4.2802e-05,0
92.349,3.743e-05,0
92.349,1.6953e-05,0
92.35,-2.2156e-05,0
92.35,-6.0594e-05,0
92.351,-8.4764e-05,0
92.351,-9.9702e-05,0
92.352,-0.00012203,0
92.352,-0.00018245,0
92.353,-0.00027897,0
92.353,-0.00037498,0
92.354,-0.00044094,0
92.355,-0.00047787,0
92.355,-0.00049096,0
92.356,-0.00046981,0
92.356,-0.00041576,0
92.357,-0.00034325,0
92.357,-0.00025748,0
92.358,-0.00016483,0
92.358,-6.8818e-05,0
92.359,3.2731e-05,0
92.359,0.00013394,0
92.36,0.00022744,0
92.36,0.0003164,0
92.361,0.00037783,0
92.361,0.00036004,0
92.362,0.00027645,0
92.362,0.0001984,0
92.363,0.00015828,0
92.363,0.00013898,0
92.364,0.00012035,0
92.364,0.00010927,0
92.365,0.00011498,0
92.365,0.00012471,0
92.366,0.00012068,0
92.366,0.00010021,0
92.367,7.9393e-05,0
92.368,6.3615e-05,0
92.368,4.448e-05,0
92.369,3.3738e-05,0
92.369,4.448e-05,0
92.37,5.4887e-05,0
92.37,2.7359e-05,0
92.371,-3.4241e-05,0
92.371,-8.8792e-05,0
92.372,-0.00012303,0
92.372,-0.00012639,0
92.373,-8.1743e-05,0
92.373,-3.8605e-06,0
92.374,7.0497e-05,0
92.374,0.00012337,0
92.375,0.00015677,0
92.375,0.00016214,0
92.376,0.00012874,0
92.376,8.0735e-05,0
92.377,5.5558e-05,0
92.377,4.8844e-05,0
92.378,4.1794e-05,0
92.378,4.0452e-05,0
92.379,2.9374e-05,0
92.379,-2.7695e-05,0
92.38,-0.00011699,0
92.38,-0.00017943,0
92.381,-0.00017809,0
92.382,-0.00013948,0
92.382,-0.00010423,0
92.383,-8.0568e-05,0
92.383,-6.8818e-05,0
92.384,-4.448e-05,0
92.384,1.1917e-05,0
92.385,8.0903e-05,0
92.385,0.00013898,0
92.386,0.00018648,0
92.386,0.00022173,0
92.387,0.00023348,0
92.387,0.00023717,0
92.388,0.00024254,0
92.388,0.00024724,0
92.389,0.00025866,0
92.389,0.00026302,0
92.39,0.00023012,0
92.39,0.00015627,0
92.391,6.9657e-05,0
92.391,2.8534e-06,0
92.392,-3.9612e-05,0
92.392,-6.3783e-05,0
92.393,-6.7979e-05,0
92.393,-4.9516e-05,0
92.394,-1.8799e-05,0
92.395,6.8818e-06,0
92.395,2.0645e-05,0
92.396,2.9374e-05,0
92.396,3.8437e-05,0
92.397,4.5823e-05,0
92.397,4.4144e-05,0
92.398,2.3499e-05,0
92.398,-4.8676e-06,0
92.399,-1.9974e-05,0
92.399,-2.9541e-05,0
92.4,-4.9851e-05,0
92.4,-7.4861e-05,0
92.401,-9.4331e-05,0
92.401,-0.00010977,0
92.402,-0.0001138,0
92.402,-0.0001044,0
92.403,-9.4331e-05,0
92.403,-9.2821e-05,0
92.404,-0.00010759,0
92.404,-0.00014385,0
92.405,-0.00019924,0
92.405,-0.00023868,0
92.406,-0.00023616,0
92.406,-0.00020209,0
92.407,-0.00016265,0
92.407,-0.00013277,0
92.408,-0.00013344,0
92.409,-0.00016818,0
92.409,-0.00020192,0
92.41,-0.00020461,0
92.41,-0.00017658,0
92.411,-0.00011884,0
92.411,-3.592e-05,0
92.412,4.7333e-05,0
92.412,0.00011531,0
92.413,0.00017238,0
92.413,0.00022878,0
92.414,0.0002788,0
92.414,0.00031707,0
92.415,0.00034946,0
92.415,0.00036776,0
92.416,0.00035416,0
92.416,0.00030733,0
92.417,0.00024456,0
92.417,0.00018178,0
92.418,0.0001274,0
92.418,9.2988e-05,0
92.419,7.9057e-05,0
92.419,6.5965e-05,0
92.42,3.5752e-05,0
92.42,-5.539e-06,0
92.421,-4.0452e-05,0
92.422,-6.0258e-05,0
92.422,-5.539e-05,0
92.423,-1.6953e-05,0
92.423,3.2395e-05,0
92.424,6.1097e-05,0
92.424,6.2776e-05,0
92.425,5.8244e-05,0
92.425,6.0258e-05,0
92.426,8.1743e-05,0
92.426,0.00013327,0
92.427,0.00020394,0
92.427,0.0002647,0
92.428,0.00028417,0
92.428,0.00025563,0
92.429,0.00019789,0
92.429,0.00013512,0
92.43,8.04e-05,0
92.43,3.5248e-05,0
92.431,2.182e-06,0
92.431,-1.6449e-05,0
92.432,-3.122e-05,0
92.432,-5.0858e-05,0
92.433,-7.4022e-05,0
92.433,-9.7353e-05,0
92.434,-0.00012488,0
92.434,-0.00015979,0
92.435,-0.00018967,0
92.436,-0.00020562,0
92.436,-0.00023398,0
92.437,-0.00028283,0
92.437,-0.00032093,0
92.438,-0.00032496,0
92.438,-0.00029223,0
92.439,-0.00023566,0
92.439,-0.000165,0
92.44,-7.9057e-05,0
92.44,1.6617e-05,0
92.441,0.00010323,0
92.441,0.0001796,0
92.442,0.00024338,0
92.442,0.00027158,0
92.443,0.00026436,0
92.443,0.00025194,0
92.444,0.00025228,0
92.444,0.00025194,0
92.445,0.00023079,0
92.445,0.00019118,0
92.446,0.00015023,0
92.446,0.00011733,0
92.447,8.8457e-05,0
92.447,6.3615e-05,0
92.448,4.3809e-05,0
92.449,1.8296e-05,0
92.449,-1.3428e-05,0
92.45,-4.4816e-05,0
92.45,-7.1839e-05,0
92.451,-8.661e-05,0
92.451,-8.3085e-05,0
92.452,-5.2873e-05,0
92.452,-2.4338e-05,0
92.453,-6.2104e-05,0
92.453,-0.0001707,0
92.454,-0.00029642,0
92.454,-0.00038035,0
92.455,-0.0003884,0
92.455,-0.00033167,0
92.456,-0.00023935,0
92.456,-0.00013361,0
92.457,-3.743e-05,0
92.457,3.5416e-05,0
92.458,8.9799e-05,0
92.458,0.00013747,0
92.459,0.00018782,0
92.459,0.00024959,0
92.46,0.00031405,0
92.46,0.00035567,0
92.461,0.00035702,0
92.462,0.0003409,0
92.462,0.00033251,0
92.463,0.00031774,0
92.463,0.00026302,0
92.464,0.00016332,0
92.464,5.4551e-05,0
92.465,-2.7695e-05,0
92.465,-7.7211e-05,0
92.466,-0.00010021,0
92.466,-0.0001138,0
92.467,-0.0001321,0
92.467,-0.0001697,0
92.468,-0.00021955,0
92.468,-0.00024892,0
92.469,-0.00024959,0
92.469,-0.00024758,0
92.47,-0.00026285,0
92.47,-0.00028551,0
92.471,-0.00027359,0
92.471,-0.00019437,0
92.472,-5.4887e-05,0
92.472,0.0001039,0
92.473,0.00024388,0
92.473,0.00034493,0
92.474,0.00040636,0
92.474,0.00043355,0
92.475,0.00043288,0
92.476,0.00040536,0
92.476,0.00036172,0
92.477,0.00032177,0
92.477,0.00029155,0
92.478,0.00027175,0
92.478,0.00025093,0
92.479,0.00021736,0
92.479,0.00017305,0
92.48,0.00013092,0
92.48,9.6178e-05,0
92.481,6.4286e-05,0
92.481,2.9709e-05,0
92.482,-9.7353e-06,0
92.482,-4.9516e-05,0
92.483,-7.8386e-05,0
92.483,-8.6778e-05,0
92.484,-7.5868e-05,0
92.484,-7.3014e-05,0
92.485,-9.3324e-05,0
92.485,-0.00012404,0
92.486,-0.00014351,0
92.486,-0.00014653,0
92.487,-0.00013848,0
92.487,-0.00012924,0
92.488,-0.0001237,0
92.489,-0.00012673,0
92.489,-0.00013982,0
92.49,-0.00015962,0
92.49,-0.00018061,0
92.491,-0.00018816,0
92.491,-0.00017322,0
92.492,-0.00015291,0
92.492,-0.00014603,0
92.493,-0.00015274,0
92.493,-0.00016953,0
92.494,-0.00018547,0
92.494,-0.00018682,0
92.495,-0.0001697,0
92.495,-0.0001378,0
92.496,-0.00010457,0
92.496,-7.4357e-05,0
92.497,-5.2033e-05,0
92.497,-6.1265e-05,0
92.498,-0.00011968,0
92.498,-0.00020024,0
92.499,-0.00025177,0
92.499,-0.00025614,0
92.5,-0.00023214,0
92.5,-0.00019857,0
92.501,-0.00014754,0
92.501,-6.9657e-05,0
92.502,3.2731e-05,0
92.503,0.00015409,0
92.503,0.00029155,0
92.504,0.00044262,0
92.504,0.00059385,0
92.505,0.00071118,0
92.505,0.00075801,0
92.506,0.00072595,0
92.506,0.00064269,0
92.507,0.00054551,0
92.507,0.00044833,0
92.508,0.00035164,0
92.508,0.00026302,0
92.509,0.00019084,0
92.509,0.00012471,0
92.51,5.0187e-05,0
92.51,-1.3428e-05,0
92.511,-5.0355e-05,0
92.511,-8.0903e-05,0
92.512,-0.00010793,0
92.512,-0.00011901,0
92.513,-0.00011984,0
92.513,-0.00012236,0
92.514,-0.00012505,0
92.514,-0.00012035,0
92.515,-0.00011061,0
92.516,-8.7114e-05,0
92.516,-4.3809e-05,0
92.517,1.8463e-06,0
92.517,3.8102e-05,0
92.518,7.0161e-05,0
92.518,8.7114e-05,0
92.519,8.0064e-05,0
92.519,6.4286e-05,0
92.52,3.5752e-05,0
92.52,-3.8605e-05,0
92.521,-0.00015106,0
92.521,-0.00025647,0
92.522,-0.00032193,0
92.522,-0.00035047,0
92.523,-0.00035534,0
92.523,-0.00034073,0
92.524,-0.00030095,0
92.524,-0.00023062,0
92.525,-0.00013931,0
92.525,-4.5487e-05,0
92.526,4.7837e-05,0
92.526,0.0001462,0
92.527,0.00025295,0
92.527,0.00035869,0
92.528,0.000426,0
92.528,0.0004312,0
92.529,0.0003926,0
92.53,0.00033318,0
92.53,0.00026168,0
92.531,0.0001848,0
92.531,0.00011733,0
92.532,6.9154e-05,0
92.532,4.1459e-05,0
92.533,2.652e-05,0
92.533,1.2421e-05,0
92.534,-8.3925e-06,0
92.534,-3.2395e-05,0
92.535,-5.9754e-05,0
92.535,-0.00010037,0
92.536,-0.00016265,0
92.536,-0.0002318,0
92.537,-0.00027611,0
92.537,-0.00028417,0
92.538,-0.00026604,0
92.538,-0.00023079,0
92.539,-0.00018077,0
92.539,-0.00014166,0
92.54,-0.00015291,0
92.54,-0.00020864,0
92.541,-0.0002412,0
92.541,-0.00021904,0
92.542,-0.00016399,0
92.543,-9.2149e-05,0
92.543,-5.539e-06,0
92.544,8.3085e-05,0
92.544,0.0001566,0
92.545,0.00021535,0
92.545,0.00025899,0
92.546,0.00028652,0
92.546,0.00031606,0
92.547,0.00035668,0
92.547,0.0003926,0
92.548,0.00039864,0
92.548,0.00036843,0
92.549,0.00031321,0
92.549,0.00023885,0
92.55,0.00015912,0
92.55,9.1814e-05,0
92.551,5.4047e-05,0
92.551,5.3544e-05,0
92.552,8.0232e-05,0
92.552,0.00011263,0
92.553,0.0001321,0
92.553,0.00012337,0
92.554,9.1478e-05,0
92.554,5.5558e-05,0
92.555,2.1653e-05,0
92.555,-1.5106e-05,0
92.556,-6.1265e-05,0
92.557,-0.00011615,0
92.557,-0.00016617,0
92.558,-0.00019924,0
92.558,-0.00022341,0
92.559,-0.00024858,0
92.559,-0.00029139,0
92.56,-0.00036725,0
92.56,-0.00045051,0
92.561,-0.00048643,0
92.561,-0.00045252,0
92.562,-0.00038689,0
92.562,-0.00034006,0
92.563,-0.00030582,0
92.563,-0.00024456,0
92.564,-0.00014351,0
92.564,-3.2395e-05,0
92.565,7.2175e-05,0
92.565,0.00017943,0
92.566,0.00029223,0
92.566,0.00040301,0
92.567,0.00049197,0
92.567,0.0005487,0
92.568,0.00058311,0
92.568,0.00060375,0
92.569,0.0006051,0
92.57,0.00058798,0
92.57,0.00055172,0
92.571,0.00050069,0
92.571,0.00044027,0
92.572,0.00036776,0
92.572,0.00028635,0
92.573,0.00020662,0
92.573,0.00013495,0
92.574,6.9993e-05,0
92.574,7.5532e-06,0
92.575,-5.0187e-05,0
92.575,-9.752e-05,0
92.576,-0.00013915,0
92.576,-0.00019756,0
92.577,-0.00029374,0
92.577,-0.00040871,0
92.578,-0.00050422,0
92.578,-0.00055676,0
92.579,-0.00057287,0
92.579,-0.00055827,0
92.58,-0.00050254,0
92.58,-0.00041308,0
92.581,-0.00030465,0
92.581,-0.00018866,0
92.582,-8.0903e-05,0
92.582,1.091e-05,0
92.583,9.6513e-05,0
92.584,0.00017993,0
92.584,0.00023919,0
92.585,0.00024691,0
92.585,0.00022072,0
92.586,0.00020192,0
92.586,0.00019722,0
92.587,0.00019051,0
92.587,0.00017037,0
92.588,0.00014452,0
92.588,0.00013344,0
92.589,0.00013613,0
92.589,0.00013445,0
92.59,0.00012622,0
92.59,0.00012975,0
92.591,0.00014939,0
92.591,0.00017238,0
92.592,0.00018749,0
92.592,0.00018631,0
92.593,0.00016432,0
92.593,0.00012941,0
92.594,9.9199e-05,0
92.594,8.0064e-05,0
92.595,5.3208e-05,0
92.595,8.7282e-06,0
92.596,-2.9541e-05,0
92.597,-3.3402e-05,0
92.597,-2.3835e-05,0
92.598,-3.3906e-05,0
92.598,-5.6901e-05,0
92.599,-7.0497e-05,0
92.599,-7.5196e-05,0
92.6,-7.9896e-05,0
92.6,-8.6778e-05,0
92.601,-9.4499e-05,0
92.601,-0.00010323,0
92.602,-0.0001086,0
92.602,-0.00010927,0
92.603,-0.00010709,0
92.603,-0.00010558,0
92.604,-0.00010961,0
92.604,-0.00013059,0
92.605,-0.00016667,0
92.605,-0.00019705,0
92.606,-0.00021216,0
92.606,-0.00021669,0
92.607,-0.00021367,0
92.607,-0.00020595,0
92.608,-0.00019101,0
92.608,-0.00016449,0
92.609,-0.00013092,0
92.609,-9.3492e-05,0
92.61,-5.153e-05,0
92.611,-1.1582e-05,0
92.611,2.3499e-05,0
92.612,5.9251e-05,0
92.612,0.00010121,0
92.613,0.0001467,0
92.613,0.00018111,0
92.614,0.00020226,0
92.614,0.00022274,0
92.615,0.00024858,0
92.615,0.00026839,0
92.616,0.00025832,0
92.616,0.00020394,0
92.617,0.00012505,0
92.617,4.918e-05,0
92.618,-8.896e-06,0
92.618,-4.4816e-05,0
92.619,-6.4118e-05,0
92.619,-6.865e-05,0
92.62,-5.0187e-05,0
92.62,-4.0284e-06,0
92.621,5.153e-05,0
92.621,9.9199e-05,0
92.622,0.00013948,0
92.622,0.00017876,0
92.623,0.00020713,0
92.624,0.00021434,0
92.624,0.00020595,0
92.625,0.00018967,0
92.625,0.00016701,0
92.626,0.00012723,0
92.626,7.4189e-05,0
92.627,8.5603e-06,0
92.627,-6.479e-05,0
92.628,-0.00012639,0
92.628,-0.00016869,0
92.629,-0.00020478,0
92.629,-0.00023667,0
92.63,-0.0002506,0
92.63,-0.0002412,0
92.631,-0.00022005,0
92.631,-0.00018766,0
92.632,-0.00012303,0
92.632,-2.2324e-05,0
92.633,7.7379e-05,0
92.633,0.00014183,0
92.634,0.0001707,0
92.634,0.0001791,0
92.635,0.00017809,0
92.635,0.00018363,0
92.636,0.00020427,0
92.636,0.00022274,0
92.637,0.00020931,0
92.638,0.00015224,0
92.638,3.5584e-05,0
92.639,-0.00013713,0
92.639,-0.00029575,0
92.64,-0.00037263,0
92.64,-0.0003639,0
92.641,-0.00029558,0
92.641,-0.00017658,0
92.642,-2.0645e-05,0
92.642,0.0001368,0
92.643,0.00026302,0
92.643,0.00035702,0
92.644,0.00043607,0
92.644,0.00050741,0
92.645,0.00055441,0
92.645,0.00056834,0
92.646,0.00055575,0
92.646,0.00051211,0
92.647,0.00043288,0
92.647,0.00032999,0
92.648,0.00022542,0
92.648,0.0001373,0
92.649,6.6636e-05,0
92.649,9.7353e-06,0
92.65,-3.0716e-05,0
92.65,-5.7237e-05,0
92.651,-8.1071e-05,0
92.652,-0.00010373,0
92.652,-0.00011078,0
92.653,-9.4331e-05,0
92.653,-8.0735e-05,0
92.654,-0.00010155,0
92.654,-0.0001462,0
92.655,-0.00018833,0
92.655,-0.00021317,0
92.656,-0.00021552,0
92.656,-0.00019991,0
92.657,-0.00017775,0
92.657,-0.0001603,0
92.658,-0.00015409,0
92.658,-0.00015895,0
92.659,-0.00016046,0
92.659,-0.00015778,0
92.66,-0.000166,0
92.66,-0.00017171,0
92.661,-0.00015879,0
92.661,-0.00013529,0
92.662,-0.00010423,0
92.662,-7.0329e-05,0
92.663,-4.0787e-05,0
92.663,-1.1582e-05,0
92.664,2.0981e-05,0
92.665,5.1362e-05,0
92.665,7.7043e-05,0
92.666,9.601e-05,0
92.666,0.00010021,0
92.667,8.3085e-05,0
92.667,4.683e-05,0
92.668,1.2924e-05,0
92.668,-1.1749e-06,0
92.669,3.357e-07,0
92.669,1.3596e-05,0
92.67,3.4745e-05,0
92.67,5.3544e-05,0
92.671,6.1265e-05,0
92.671,5.5894e-05,0
92.672,4.683e-05,0
92.672,4.0787e-05,0
92.673,3.9109e-05,0
92.673,4.7669e-05,0
92.674,6.2943e-05,0
92.674,7.5029e-05,0
92.675,8.1575e-05,0
92.675,7.9561e-05,0
92.676,6.5461e-05,0
92.676,4.3809e-05,0
92.677,2.5681e-05,0
92.677,4.5319e-06,0
92.678,-4.3137e-05,0
92.679,-0.00010927,0
92.679,-0.00015375,0
92.68,-0.00015274,0
92.68,-0.00011582,0
92.681,-6.4622e-05,0
92.681,-1.0575e-05,0
92.682,4.0787e-05,0
92.682,8.2918e-05,0
92.683,0.00011598,0
92.683,0.00014553,0
92.684,0.00017876,0
92.684,0.00020998,0
92.685,0.00022005,0
92.685,0.00019655,0
92.686,0.00015157,0
92.686,9.9199e-05,0
92.687,5.0858e-05,0
92.687,2.0478e-05,0
92.688,6.8818e-06,0
92.688,-5.0355e-07,0
92.689,-1.6449e-05,0
92.689,-6.8986e-05,0
92.69,-0.00016046,0
92.69,-0.00024858,0
92.691,-0.00029793,0
92.692,-0.00030867,0
92.692,-0.00028165,0
92.693,-0.00021334,0
92.693,-0.00011565,0
92.694,-1.4435e-05,0
92.694,7.0161e-05,0
92.695,0.00013478,0
92.695,0.00018598,0
92.696,0.00022542,0
92.696,0.00024657,0
92.697,0.00026033,0
92.697,0.00028585,0
92.698,0.00030599,0
92.698,0.00029189,0
92.699,0.00024439,0
92.699,0.00018833,0
92.7,0.00014351,0
92.7,0.00010675,0
92.701,6.4958e-05,0
92.701,1.9135e-05,0
92.702,-2.182e-05,0
92.702,-5.2201e-05,0
92.703,-7.1672e-05,0
92.703,-8.9632e-05,0
92.704,-0.000118,0
92.704,-0.00015274,0
92.705,-0.00017154,0
92.706,-0.00015593,0
92.706,-0.00011044,0
92.707,-4.3641e-05,0
92.707,3.8437e-05,0
92.708,0.00011246,0
92.708,0.00015795,0
92.709,0.00017893,0
92.709,0.000189,0
92.71,0.00018581,0
92.71,0.00016432,0
92.711,0.00012673,0
92.711,8.2582e-05,0
92.712,4.6159e-05,0
92.712,1.6953e-05,0
92.713,-2.3667e-05,0
92.713,-8.0735e-05,0
92.714,-0.00013613,0
92.714,-0.00017205,0
92.715,-0.00017523,0
92.715,-0.00014586,0
92.716,-0.00010088,0
92.716,-6.1265e-05,0
92.717,-2.4002e-05,0
92.717,1.5274e-05,0
92.718,3.827e-05,0
92.719,3.1388e-05,0
92.719,3.0213e-06,0
92.72,-1.4267e-05,0
92.72,-5.0355e-07,0
92.721,2.1317e-05,0
92.721,2.4674e-05,0
92.722,1.3428e-05,0
92.722,2.5177e-06,0
92.723,-5.0355e-07,0
92.723,4.6998e-06,0
92.724,1.2757e-05,0
92.724,2.1988e-05,0
92.725,3.3402e-05,0
92.725,4.3809e-05,0
92.726,3.9109e-05,0
92.726,2.6688e-05,0
92.727,2.887e-05,0
92.727,5.0355e-05,0
92.728,8.1743e-05,0
92.728,0.000118,0
92.729,0.00015543,0
92.729,0.00017775,0
92.73,0.00017809,0
92.73,0.00016902,0
92.731,0.00015476,0
92.731,0.00013008,0
92.732,9.5842e-05,0
92.733,5.388e-05,0
92.733,6.5461e-06,0
92.734,-4.3473e-05,0
92.734,-8.0064e-05,0
92.735,-9.6849e-05,0
92.735,-0.00010054,0
92.736,-9.2821e-05,0
92.736,-6.2943e-05,0
92.737,-1.091e-05,0
92.737,3.4745e-05,0
92.738,4.9516e-05,0
92.738,3.7095e-05,0
92.739,4.1962e-06,0
92.739,-4.2802e-05,0
92.74,-7.8889e-05,0
92.74,-8.275e-05,0
92.741,-6.0426e-05,0
92.741,-3.2731e-05,0
92.742,-9.9031e-06,0
92.742,-5.0355e-07,0
92.743,-1.1582e-05,0
92.743,-3.5752e-05,0
92.744,-6.5965e-05,0
92.744,-8.6107e-05,0
92.745,-8.1407e-05,0
92.746,-5.6901e-05,0
92.746,-3.0716e-05,0
92.747,-1.4099e-05,0
92.747,-1.2924e-05,0
92.748,-1.091e-05,0
92.748,5.539e-06,0
92.749,2.5681e-05,0
92.749,4.0955e-05,0
92.75,6.0761e-05,0
92.75,9.0135e-05,0
92.751,0.00011196,0
92.751,0.00012387,0
92.752,0.00014267,0
92.752,0.00016835,0
92.753,0.00019051,0
92.753,0.00020444,0
92.754,0.00021602,0
92.754,0.00022542,0
92.755,0.00019554,0
92.755,0.0001133,0
92.756,2.1988e-05,0
92.756,-3.7095e-05,0
92.757,-6.5461e-05,0
92.757,-7.805e-05,0
92.758,-7.8386e-05,0
92.758,-7.5029e-05,0
92.759,-8.1407e-05,0
92.76,-8.9799e-05,0
92.76,-8.0232e-05,0
92.761,-4.4312e-05,0
92.761,1.4267e-05,0
92.762,7.8553e-05,0
92.762,0.00012975,0
92.763,0.00016332,0
92.763,0.00018044,0
92.764,0.00017742,0
92.764,0.0001566,0
92.765,0.00012673,0
92.765,0.00010289,0
92.766,8.9799e-05,0
92.766,8.8121e-05,0
92.767,9.6178e-05,0
92.767,9.5674e-05,0
92.768,6.8818e-05,0
92.768,1.6617e-05,0
92.769,-5.2201e-05,0
92.769,-0.00013999,0
92.77,-0.00023012,0
92.77,-0.00028014,0
92.771,-0.00027897,0
92.771,-0.00026285,0
92.772,-0.00024271,0
92.773,-0.00020041,0
92.773,-0.00013445,0
92.774,-6.4622e-05,0
92.774,-6.3783e-06,0
92.775,3.9277e-05,0
92.775,7.6707e-05,0
92.776,0.00010927,0
92.776,0.00013008,0
92.777,0.00014687,0
92.777,0.00016902,0
92.778,0.00019789,0
92.778,0.0002266,0
92.779,0.00023952,0
92.779,0.00022844,0
92.78,0.0002036,0
92.78,0.00017624,0
92.781,0.00015375,0
92.781,0.00013713,0
92.782,0.00012203,0
92.782,0.0001039,0
92.783,8.0064e-05,0
92.783,4.918e-05,0
92.784,9.2317e-06,0
92.784,-3.0045e-05,0
92.785,-5.9922e-05,0
92.785,-8.6946e-05,0
92.786,-0.0001237,0
92.787,-0.00015811,0
92.787,-0.0001707,0
92.788,-0.00015828,0
92.788,-0.00013411,0
92.789,-0.00010977,0
92.789,-8.6442e-05,0
92.79,-6.4454e-05,0
92.79,-4.7166e-05,0
92.791,-3.8941e-05,0
92.791,-3.2059e-05,0
92.792,-2.1988e-05,0
92.792,-1.8296e-05,0
92.793,-2.6017e-05,0
92.793,-3.9612e-05,0
92.794,-5.8076e-05,0
92.794,-8.5267e-05,0
92.795,-0.00011061,0
92.795,-0.00012857,0
92.796,-0.00014166,0
92.796,-0.00014435,0
92.797,-0.0001284,0
92.797,-0.00010323,0
92.798,-8.3421e-05,0
92.798,-6.4286e-05,0
92.799,-2.8031e-05,0
92.8,2.7863e-05,0
92.8,8.9128e-05,0
92.801,0.00014653,0
92.801,0.00019588,0
92.802,0.00022911,0
92.802,0.00023935,0
92.803,0.00022609,0
92.803,0.00019571,0
92.804,0.00015895,0
92.804,0.00012438,0
92.805,9.2821e-05,0
92.805,6.2776e-05,0
92.806,3.9109e-05,0
92.806,2.6017e-05,0
92.807,2.7695e-05,0
92.807,5.069e-05,0
92.808,7.4861e-05,0
92.808,8.3085e-05,0
92.809,8.3757e-05,0
92.809,8.8624e-05,0
92.81,8.5771e-05,0
92.81,4.7837e-05,0
92.811,-2.4506e-05,0
92.811,-0.00010155,0
92.812,-0.00016667,0
92.812,-0.00021166,0
92.813,-0.00023465,0
92.814,-0.00022878,0
92.814,-0.00018967,0
92.815,-0.0001284,0
92.815,-5.5558e-05,0
92.816,1.9135e-05,0
92.816,7.7379e-05,0
92.817,0.00011464,0
92.817,0.00015023,0
92.818,0.00018212,0
92.818,0.00018917,0
92.819,0.00016432,0
92.819,0.00012639,0
92.82,9.987e-05,0
92.82,8.9799e-05,0
92.821,8.275e-05,0
92.821,7.6204e-05,0
92.822,7.6036e-05,0
92.822,8.04e-05,0
92.823,8.5771e-05,0
92.823,8.9128e-05,0
92.824,9.1142e-05,0
92.824,9.4163e-05,0
92.825,0.00010071,0
92.825,0.00010692,0
92.826,0.00011196,0
92.827,0.00011733,0
92.827,0.00012203,0
92.828,0.000118,0
92.828,0.00010726,0
92.829,9.6513e-05,0
92.829,8.51e-05,0
92.83,7.2343e-05,0
92.83,6.0929e-05,0
92.831,4.7837e-05,0
92.831,3.7766e-05,0
92.832,3.6423e-05,0
92.832,3.4745e-05,0
92.833,1.1917e-05,0
92.833,-3.5416e-05,0
92.834,-9.2149e-05,0
92.834,-0.00014972,0
92.835,-0.00020981,0
92.835,-0.00026218,0
92.836,-0.0002939,0
92.836,-0.00030011,0
92.837,-0.0002892,0
92.837,-0.00026957,0
92.838,-0.00023935,0
92.838,-0.00018917,0
92.839,-0.00011934,0
92.84,-4.0116e-05,0
92.84,3.6759e-05,0
92.841,0.00010759,0
92.841,0.00018077,0
92.842,0.00025161,0
92.842,0.0002986,0
92.843,0.00031237,0
92.843,0.0003033,0
92.844,0.00028585,0
92.844,0.00026621,0
92.845,0.00024321,0
92.845,0.00021468,0
92.846,0.0001754,0
92.846,0.0001227,0
92.847,6.4958e-05,0
92.847,1.2757e-05,0
92.848,-2.1317e-05,0
92.848,-3.5248e-05,0
92.849,-4.9516e-05,0
92.849,-8.0735e-05,0
92.85,-0.00012773,0
92.85,-0.00018598,0
92.851,-0.00024439,0
92.851,-0.00030364,0
92.852,-0.00035953,0
92.852,-0.00038589,0
92.853,-0.00036625,0
92.854,-0.00031455,0
92.854,-0.00025312,0
92.855,-0.00017238,0
92.855,-5.6733e-05,0
92.856,7.2007e-05,0
92.856,0.00019319,0
92.857,0.00030498,0
92.857,0.00040183,0
92.858,0.00047384,0
92.858,0.00051144,0
92.859,0.00050204,0
92.859,0.00044413,0
92.86,0.0003592,0
92.86,0.00026688,0
92.861,0.00017943,0
92.861,0.00010658,0
92.862,4.8173e-05,0
92.862,-8.3925e-07,0
92.863,-3.2395e-05,0
92.863,-4.2466e-05,0
92.864,-4.2634e-05,0
92.864,-4.2802e-05,0
92.865,-4.5487e-05,0
92.865,-4.7837e-05,0
92.866,-4.683e-05,0
92.867,-4.3641e-05,0
92.867,-4.3473e-05,0
92.868,-5.3208e-05,0
92.868,-7.3686e-05,0
92.869,-9.7353e-05,0
92.869,-0.00012908,0
92.87,-0.00017792,0
92.87,-0.00024506,0
92.871,-0.00032345,0
92.871,-0.00039243,0
92.872,-0.00043708,0
92.872,-0.00044933,0
92.873,-0.00042214,0
92.873,-0.00035534,0
92.874,-0.00026738,0
92.874,-0.00016634,0
92.875,-4.0955e-05,0
92.875,0.00010591,0
92.876,0.00024422,0
92.876,0.00035299,0
92.877,0.00043322,0
92.877,0.00048995,0
92.878,0.00051211,0
92.878,0.00049566,0
92.879,0.00045638,0
92.879,0.00039931,0
92.88,0.00032009,0
92.881,0.0002313,0
92.881,0.0001556,0
92.882,0.00010558,0
92.882,7.6875e-05,0
92.883,6.4286e-05,0
92.883,5.623e-05,0
92.884,5.0355e-05,0
92.884,4.2298e-05,0
92.885,2.501e-05,0
92.885,-2.0142e-06,0
92.886,-2.9877e-05,0
92.886,-5.2201e-05,0
92.887,-6.6636e-05,0
92.887,-7.5364e-05,0
92.888,-8.3085e-05,0
92.888,-8.3421e-05,0
92.889,-7.0329e-05,0
92.889,-4.5151e-05,0
92.89,-9.3996e-06,0
92.89,1.796e-05,0
92.891,1.1917e-05,0
92.891,-1.9303e-05,0
92.892,-4.7501e-05,0
92.892,-5.9083e-05,0
92.893,-5.9586e-05,0
92.894,-5.2201e-05,0
92.894,-3.978e-05,0
92.895,-2.8199e-05,0
92.895,-2.0478e-05,0
92.896,-1.0239e-05,0
92.896,4.5319e-06,0
92.897,2.0645e-05,0
92.897,3.1388e-05,0
92.898,3.0716e-05,0
92.898,2.0981e-05,0
92.899,1.0575e-05,0
92.899,0,0
92.9,-1.091e-05,0
92.9,-1.9638e-05,0
92.901,-2.8534e-05,0
92.901,-3.5584e-05,0
92.902,-3.6927e-05,0
92.902,-3.2898e-05,0
92.903,-2.7024e-05,0
92.903,-2.4842e-05,0
92.904,-2.4338e-05,0
92.904,-1.4939e-05,0
92.905,-5.539e-06,0
92.905,-6.3783e-06,0
92.906,-1.0742e-05,0
92.906,-1.2253e-05,0
92.907,-8.896e-06,0
92.908,3.357e-06,0
92.908,2.2995e-05,0
92.909,4.4984e-05,0
92.909,6.6133e-05,0
92.91,8.6275e-05,0
92.91,0.00011061,0
92.911,0.00013797,0
92.911,0.00015526,0
92.912,0.00015459,0
92.912,0.00013613,0
92.913,0.00011263,0
92.913,0.00010155,0
92.914,0.00010826,0
92.914,0.00012001,0
92.915,0.00012605,0
92.915,0.00012857,0
92.916,0.00012605,0
92.916,0.00010776,0
92.917,7.335e-05,0
92.917,4.6998e-05,0
92.918,3.7095e-05,0
92.918,2.6688e-05,0
92.919,1.5946e-05,0
92.919,1.0071e-05,0
92.92,5.2033e-06,0
92.921,-1.1917e-05,0
92.921,-5.4047e-05,0
92.922,-0.00012203,0
92.922,-0.00020864,0
92.923,-0.00031975,0
92.923,-0.0004542,0
92.924,-0.00056179,0
92.924,-0.00059469,0
92.925,-0.00055407,0
92.925,-0.00046662,0
92.926,-0.00034963,0
92.926,-0.00021535,0
92.927,-8.51e-05,0
92.927,2.4674e-05,0
92.928,0.00013008,0
92.928,0.00025765,0
92.929,0.00040737,0
92.929,0.00055222,0
92.93,0.00065747,0
92.93,0.00069506,0
92.931,0.00065512,0
92.931,0.00055373,0
92.932,0.000426,0
92.932,0.00031237,0
92.933,0.00022777,0
92.933,0.00016919,0
92.934,0.00013864,0
92.935,0.00013545,0
92.935,0.00014553,0
92.936,0.00014385,0
92.936,0.00011347,0
92.937,6.4958e-05,0
92.937,2.4338e-05,0
92.938,1.6785e-07,0
92.938,-2.0645e-05,0
92.939,-3.8941e-05,0
92.939,-4.6326e-05,0
92.94,-3.8941e-05,0
92.94,-9.7353e-06,0
92.941,2.7192e-05,0
92.941,2.2324e-05,0
92.942,-5.8579e-05,0
92.942,-0.00019152,0
92.943,-0.00031035,0
92.943,-0.00036927,0
92.944,-0.00037498,0
92.944,-0.00035198,0
92.945,-0.00031606,0
92.945,-0.00025866,0
92.946,-0.00017675,0
92.946,-8.2414e-05,0
92.947,1.4267e-05,0
92.948,0.00011531,0
92.948,0.00021871,0
92.949,0.00031975,0
92.949,0.0003978,0
92.95,0.00041878,0
92.95,0.00037313,0
92.951,0.00027913,0
92.951,0.00016802,0
92.952,6.8986e-05,0
92.952,8.3925e-07,0
92.953,-4.2466e-05,0
92.953,-7.6539e-05,0
92.954,-0.00010826,0
92.954,-0.00013495,0
92.955,-0.00015392,0
92.955,-0.00016818,0
92.956,-0.00017943,0
92.956,-0.00019638,0
92.957,-0.00023079,0
92.957,-0.00027745,0
92.958,-0.00031472,0
92.958,-0.00031891,0
92.959,-0.00029155,0
92.959,-0.00025563,0
92.96,-0.00022744,0
92.96,-0.0001984,0
92.961,-0.00015711,0
92.962,-0.00010558,0
92.962,-4.7166e-05,0
92.963,2.2492e-05,0
92.963,9.7856e-05,0
92.964,0.00015224,0
92.964,0.00014821,0
92.965,6.244e-05,0
92.965,-7.6371e-05,0
92.966,-0.00019571,0
92.966,-0.00026,0
92.967,-0.00027225,0
92.967,-0.00023583,0
92.968,-0.00014284,0
92.968,-2.5177e-06,0
92.969,0.00015492,0
92.969,0.00031673,0
92.97,0.0004772,0
92.97,0.00062289,0
92.971,0.00074508,0
92.971,0.00082666,0
92.972,0.00085704,0
92.972,0.00084378,0
92.973,0.00079007,0
92.973,0.00070278,0
92.974,0.00058932,0
92.975,0.00045235,0
92.975,0.0003117,0
92.976,0.00019252,0
92.976,0.00010423,0
92.977,3.6088e-05,0
92.977,-2.3163e-05,0
92.978,-7.5196e-05,0
92.978,-0.000118,0
92.979,-0.00016214,0
92.979,-0.00021871,0
92.98,-0.000284,0
92.98,-0.00034208,0
92.981,-0.00037615,0
92.981,-0.00037733,0
92.982,-0.00036793,0
92.982,-0.0003639,0
92.983,-0.00036658,0
92.983,-0.00036088,0
92.984,-0.00032059,0
92.984,-0.00023432,0
92.985,-0.00012035,0
92.985,-1.091e-05,0
92.986,7.6036e-05,0
92.986,0.00014385,0
92.987,0.00019051,0
92.987,0.00020259,0
92.988,0.00016701,0
92.989,8.7785e-05,0
92.989,-1.2757e-05,0
92.99,-9.752e-05,0
92.99,-0.00014603,0
92.991,-0.00016516,0
92.991,-0.0001707,0
92.992,-0.00016902,0
92.992,-0.00016332,0
92.993,-0.0001467,0
92.993,-0.00011431,0
92.994,-7.335e-05,0
92.994,-3.827e-05,0
92.995,-1.4267e-05,0
92.995,-5.8747e-06,0
92.996,-1.326e-05,0
92.996,-2.9038e-05,0
92.997,-5.1698e-05,0
92.997,-7.9728e-05,0
92.998,-0.00011968,0
92.998,-0.00018396,0
92.999,-0.00024607,0
92.999,-0.00025345,0
93,-0.00018598,0
93,-6.7811e-05,0
93.001,7.2679e-05,0
93.001,0.00021267,0
93.002,0.00033889,0
93.003,0.00043658,0
93.003,0.00050539,0
93.004,0.00055172,0
93.004,0.00056783,0
93.005,0.00053964,0
93.005,0.00046847,0
93.006,0.00037749,0
93.006,0.00029055,0
93.007,0.00022005,0
93.007,0.00016164,0
93.008,0.00010541,0
93.008,3.9277e-05,0
93.009,-5.1194e-05,0
93.009,-0.00015224,0
93.01,-0.00023986,0
93.01,-0.00029223,0
93.011,-0.00030213,0
93.011,-0.00028887,0
93.012,-0.00026923,0
93.012,-0.0002412,0
93.013,-0.00019924,0
93.013,-0.0001514,0
93.014,-9.6178e-05,0
93.014,-2.7359e-05,0
93.015,4.8676e-05,0
93.016,0.00011934,0
93.016,0.00017406,0
93.017,0.00021166,0
93.017,0.00023281,0
93.018,0.00023079,0
93.018,0.00019588,0
93.019,0.00013814,0
93.019,8.2582e-05,0
93.02,4.5151e-05,0
93.02,2.5681e-05,0
93.021,9.2317e-06,0
93.021,-1.6617e-05,0
93.022,-4.3809e-05,0
93.022,-6.2272e-05,0
93.023,-6.6133e-05,0
93.023,-6.2608e-05,0
93.024,-6.0594e-05,0
93.024,-5.5558e-05,0
93.025,-4.3809e-05,0
93.025,-2.8702e-05,0
93.026,-1.3596e-05,0
93.026,3.6927e-06,0
93.027,3.7095e-05,0
93.027,7.9896e-05,0
93.028,9.9199e-05,0
93.028,8.6442e-05,0
93.029,6.0594e-05,0
93.03,3.7934e-05,0
93.03,2.0478e-05,0
93.031,9.5674e-06,0
93.031,1.1246e-05,0
93.032,2.3835e-05,0
93.032,2.6688e-05,0
93.033,4.6998e-06,0
93.033,-3.7766e-05,0
93.034,-8.4764e-05,0
93.034,-0.00011363,0
93.035,-0.00011447,0
93.035,-0.00010356,0
93.036,-0.00010407,0
93.036,-0.00012404,0
93.037,-0.00017037,0
93.037,-0.00023767,0
93.038,-0.00029256,0
93.038,-0.00031186,0
93.039,-0.00031052,0
93.039,-0.00029021,0
93.04,-0.00023449,0
93.04,-0.00014788,0
93.041,-5.8747e-05,0
93.041,1.3428e-06,0
93.042,7.8889e-06,0
93.043,-4.8508e-05,0
93.043,-0.00015727,0
93.044,-0.00026537,0
93.044,-0.0003122,0
93.045,-0.00028132,0
93.045,-0.00020679,0
93.046,-0.00012203,0
93.046,-2.5177e-05,0
93.047,8.7785e-05,0
93.047,0.00020259,0
93.048,0.00031136,0
93.048,0.00041727,0
93.049,0.00052688,0
93.049,0.00064303,0
93.05,0.00075012,0
93.05,0.00082162,0
93.051,0.00083304,0
93.051,0.00077261,0
93.052,0.00066233,0
93.052,0.00054232,0
93.053,0.00044094,0
93.053,0.00035702,0
93.054,0.00027813,0
93.054,0.00019387,0
93.055,0.00010138,0
93.055,7.2175e-06,0
93.056,-6.865e-05,0
93.057,-0.00011733,0
93.057,-0.00015325,0
93.058,-0.00019638,0
93.058,-0.00024053,0
93.059,-0.00026722,0
93.059,-0.00027074,0
93.06,-0.00025446,0
93.06,-0.00022123,0
93.061,-0.00017859,0
93.061,-0.00014737,0
93.062,-0.00014888,0
93.062,-0.00016785,0
93.063,-0.00017641,0
93.063,-0.00015425,0
93.064,-0.00010205,0
93.064,-3.508e-05,0
93.065,2.9374e-05,0
93.065,5.1865e-05,0
93.066,8.7282e-06,0
93.066,-6.1936e-05,0
93.067,-0.00010793,0
93.067,-0.00010826,0
93.068,-8.0064e-05,0
93.068,-4.7166e-05,0
93.069,-9.0639e-06,0
93.07,3.8773e-05,0
93.07,8.7785e-05,0
93.071,0.00012471,0
93.071,0.00014888,0
93.072,0.00018111,0
93.072,0.000236,0
93.073,0.00029055,0
93.073,0.0002986,0
93.074,0.0002501,0
93.074,0.00017171,0
93.075,8.4092e-05,0
93.075,-8.896e-06,0
93.076,-0.00010121,0
93.076,-0.00017809,0
93.077,-0.00023029,0
93.077,-0.00026604,0
93.078,-0.00029021,0
93.078,-0.00030028,0
93.079,-0.00030246,0
93.079,-0.00029525,0
93.08,-0.00026033,0
93.08,-0.00018581,0
93.081,-8.4428e-05,0
93.081,1.5946e-05,0
93.082,9.1981e-05,0
93.082,0.00014804,0
93.083,0.00019437,0
93.084,0.00022895,0
93.084,0.00025144,0
93.085,0.0002798,0
93.085,0.00032445,0
93.086,0.00036507,0
93.086,0.00037749,0
93.087,0.00035836,0
93.087,0.00031606,0
93.088,0.00025765,0
93.088,0.00018933,0
93.089,0.00012488,0
93.089,7.4189e-05,0
93.09,3.122e-05,0
93.09,-1.2757e-05,0
93.091,-4.8844e-05,0
93.091,-6.5965e-05,0
93.092,-7.6707e-05,0
93.092,-9.4331e-05,0
93.093,-0.00012035,0
93.093,-0.00014788,0
93.094,-0.00017205,0
93.094,-0.00019554,0
93.095,-0.00023314,0
93.095,-0.00028719,0
93.096,-0.00033788,0
93.097,-0.00035416,0
93.097,-0.00033033,0
93.098,-0.0002835,0
93.098,-0.00021938,0
93.099,-0.00013008,0
93.099,-2.9038e-05,0
93.1,5.8747e-05,0
93.1,0.00012001,0
93.101,0.00016063,0
93.101,0.00019857,0
93.102,0.00025026,0
93.102,0.00029424,0
93.103,0.00030028,0
93.103,0.00027913,0
93.104,0.00024271,0
93.104,0.00018766,0
93.105,0.00012874,0
93.105,8.1407e-05,0
93.106,3.9445e-05,0
93.106,2.8534e-06,0
93.107,-1.5946e-05,0
93.107,-1.4603e-05,0
93.108,-5.0355e-06,0
93.108,6.2104e-06,0
93.109,1.4939e-05,0
93.109,9.9031e-06,0
93.11,-1.6281e-05,0
93.111,-6.3615e-05,0
93.111,-0.00011431,0
93.112,-0.00014469,0
93.112,-0.00015123,0
93.113,-0.00013462,0
93.113,-9.3492e-05,0
93.114,-4.3473e-05,0
93.114,-6.714e-07,0
93.115,3.4577e-05,0
93.115,7.3014e-05,0
93.116,0.00011934,0
93.116,0.00015526,0
93.117,0.00015946,0
93.117,0.00013948,0
93.118,0.00011229,0
93.118,8.04e-05,0
93.119,4.2298e-05,0
93.119,-5.0355e-07,0
93.12,-3.5416e-05,0
93.12,-6.1936e-05,0
93.121,-8.6275e-05,0
93.121,-0.00010239,0
93.122,-0.00010021,0
93.122,-8.6107e-05,0
93.123,-6.6468e-05,0
93.124,-3.9612e-05,0
93.124,-7.3854e-06,0
93.125,1.8128e-05,0
93.125,3.2563e-05,0
93.126,4.5991e-05,0
93.126,5.9586e-05,0
93.127,6.949e-05,0
93.127,7.5029e-05,0
93.128,7.4525e-05,0
93.128,6.8315e-05,0
93.129,6.3447e-05,0
93.129,6.1265e-05,0
93.13,5.8915e-05,0
93.13,6.0929e-05,0
93.131,6.865e-05,0
93.131,7.5532e-05,0
93.132,7.3686e-05,0
93.132,5.4215e-05,0
93.133,2.2324e-05,0
93.133,-1.5946e-05,0
93.134,-5.5222e-05,0
93.134,-8.5603e-05,0
93.135,-0.00010188,0
93.135,-0.00010574,0
93.136,-9.9367e-05,0
93.136,-8.0735e-05,0
93.137,-4.8005e-05,0
93.138,-5.539e-06,0
93.138,3.978e-05,0
93.139,7.7043e-05,0
93.139,9.9535e-05,0
93.14,0.00010994,0
93.14,0.00011766,0
93.141,0.00012975,0
93.141,0.00013982,0
93.142,0.00013613,0
93.142,0.00011833,0
93.143,8.0735e-05,0
93.143,1.2589e-05,0
93.144,-9.5171e-05,0
93.144,-0.00021888,0
93.145,-0.00029558,0
93.145,-0.00030616,0
93.146,-0.00029055,0
93.146,-0.00026235,0
93.147,-0.00020142,0
93.147,-0.00010524,0
93.148,2.0142e-06,0
93.148,0.00010591,0
93.149,0.0002083,0
93.149,0.00030867,0
93.15,0.00039445,0
93.151,0.00044497,0
93.151,0.00044564,0
93.152,0.00041509,0
93.152,0.00037749,0
93.153,0.00033889,0
93.153,0.0002939,0
93.154,0.00024422,0
93.154,0.00020041,0
93.155,0.00016902,0
93.155,0.00014183,0
93.156,0.00010558,0
93.156,6.3783e-05,0
93.157,2.9374e-05,0
93.157,6.5461e-06,0
93.158,-1.2253e-05,0
93.158,-3.4745e-05,0
93.159,-5.8579e-05,0
93.159,-8.6778e-05,0
93.16,-0.00012874,0
93.16,-0.00019269,0
93.161,-0.00029693,0
93.161,-0.00041291,0
93.162,-0.00047787,0
93.162,-0.00047887,0
93.163,-0.00044698,0
93.163,-0.00039696,0
93.164,-0.00031858,0
93.165,-0.0002125,0
93.165,-9.752e-05,0
93.166,1.4099e-05,0
93.166,0.00011968,0
93.167,0.000213,0
93.167,0.00029155,0
93.168,0.00035232,0
93.168,0.00039126,0
93.169,0.00040972,0
93.169,0.00041341,0
93.17,0.00039445,0
93.17,0.00035131,0
93.171,0.00029256,0
93.171,0.00022005,0
93.172,0.00014183,0
93.172,8.275e-05,0
93.173,5.3208e-05,0
93.173,3.9109e-05,0
93.174,2.4002e-05,0
93.174,-1.5106e-06,0
93.175,-3.4073e-05,0
93.175,-6.5293e-05,0
93.176,-8.6107e-05,0
93.176,-9.2821e-05,0
93.177,-9.4499e-05,0
93.178,-9.6849e-05,0
93.178,-9.836e-05,0
93.179,-9.5674e-05,0
93.179,-8.7449e-05,0
93.18,-7.7043e-05,0
93.18,-6.9322e-05,0
93.181,-6.3279e-05,0
93.181,-6.2776e-05,0
93.182,-7.3518e-05,0
93.182,-9.1142e-05,0
93.183,-0.00011246,0
93.183,-0.00012807,0
93.184,-0.00012572,0
93.184,-0.00010675,0
93.185,-8.5771e-05,0
93.185,-7.5532e-05,0
93.186,-7.9728e-05,0
93.186,-9.4163e-05,0
93.187,-0.00010759,0
93.187,-0.00011296,0
93.188,-0.00011128,0
93.188,-9.7688e-05,0
93.189,-6.7811e-05,0
93.189,-2.7024e-05,0
93.19,2.031e-05,0
93.191,7.2343e-05,0
93.191,0.00012438,0
93.192,0.00016634,0
93.192,0.00019588,0
93.193,0.00021736,0
93.193,0.00023885,0
93.194,0.00025463,0
93.194,0.00024489,0
93.195,0.00020175,0
93.195,0.00014989,0
93.196,0.00010658,0
93.196,5.9586e-05,0
93.197,1.2421e-05,0
93.197,-1.9806e-05,0
93.198,-3.8605e-05,0
93.198,-5.5726e-05,0
93.199,-7.2343e-05,0
93.199,-8.51e-05,0
93.2,-9.7856e-05,0
93.2,-0.00011095,0
93.201,-0.00011196,0
93.201,-0.00010088,0
93.202,-8.9128e-05,0
93.202,-7.5364e-05,0
93.203,-5.2537e-05,0
93.203,-1.5274e-05,0
93.204,3.4073e-05,0
93.205,9.2485e-05,0
93.205,0.00015258,0
93.206,0.00019957,0
93.206,0.00022324,0
93.207,0.00023062,0
93.207,0.00022676,0
93.208,0.00021199,0
93.208,0.00018782,0
93.209,0.00015476,0
93.209,0.00010994,0
93.21,5.4551e-05,0
93.21,-1.0239e-05,0
93.211,-8.4932e-05,0
93.211,-0.0001655,0
93.212,-0.00024741,0
93.212,-0.00030582,0
93.213,-0.00030632,0
93.213,-0.00025647,0
93.214,-0.00019017,0
93.214,-0.00012169,0
93.215,-5.388e-05,0
93.215,8.5603e-06,0
93.216,7.1e-05,0
93.216,0.00014351,0
93.217,0.00020259,0
93.218,0.00022408,0
93.218,0.00022206,0
93.219,0.00020612,0
93.219,0.00017171,0
93.22,0.00013227,0
93.22,0.00010726,0
93.221,0.0001044,0
93.221,0.00012522,0
93.222,0.00016902,0
93.222,0.00021669,0
93.223,0.00024288,0
93.223,0.00024691,0
93.224,0.00024002,0
93.224,0.00022676,0
93.225,0.00020293,0
93.225,0.00016097,0
93.226,0.00011128,0
93.226,6.8315e-05,0
93.227,3.3066e-05,0
93.227,1.1749e-06,0
93.228,-2.9709e-05,0
93.228,-5.3208e-05,0
93.229,-6.2272e-05,0
93.229,-5.9251e-05,0
93.23,-4.8844e-05,0
93.23,-3.2059e-05,0
93.231,-2.5345e-05,0
93.232,-3.9948e-05,0
93.232,-6.2943e-05,0
93.233,-8.0232e-05,0
93.233,-9.2149e-05,0
93.234,-0.00010105,0
93.234,-0.00011414,0
93.235,-0.00013864,0
93.235,-0.00017205,0
93.236,-0.00019924,0
93.236,-0.00021418,0
93.237,-0.00022274,0
93.237,-0.00022693,0
93.238,-0.00021619,0
93.238,-0.00018749,0
93.239,-0.0001509,0
93.239,-0.00012572,0
93.24,-0.00013109,0
93.24,-0.00017087,0
93.241,-0.00021888,0
93.241,-0.00024002,0
93.242,-0.00022257,0
93.242,-0.00017406,0
93.243,-9.8863e-05,0
93.243,-1.3596e-05,0
93.244,5.539e-05,0
93.245,9.6513e-05,0
93.245,0.00010457,0
93.246,0.00010138,0
93.246,0.00011901,0
93.247,0.00015727,0
93.247,0.00019756,0
93.248,0.00022475,0
93.248,0.00024338,0
93.249,0.00026369,0
93.249,0.00029055,0
93.25,0.00031438,0
93.25,0.00032177,0
93.251,0.000308,0
93.251,0.00026755,0
93.252,0.00022274,0
93.252,0.00020259,0
93.253,0.00020394,0
93.253,0.00020024,0
93.254,0.00018497,0
93.254,0.0001707,0
93.255,0.00014821,0
93.255,0.00011095,0
93.256,7.3686e-05,0
93.256,4.5487e-05,0
93.257,2.3163e-05,0
93.257,1.2924e-05,0
93.258,2.4002e-05,0
93.259,3.6423e-05,0
93.259,3.0213e-05,0
93.26,7.5532e-06,0
93.26,-1.8128e-05,0
93.261,-3.2563e-05,0
93.261,-3.3906e-05,0
93.262,-2.8199e-05,0
93.262,-2.1317e-05,0
93.263,-2.031e-05,0
93.263,-2.7359e-05,0
93.264,-3.8773e-05,0
93.264,-5.069e-05,0
93.265,-6.3951e-05,0
93.265,-6.9993e-05,0
93.266,-6.5965e-05,0
93.266,-5.9922e-05,0
93.267,-5.6565e-05,0
93.267,-5.4383e-05,0
93.268,-4.918e-05,0
93.268,-4.1459e-05,0
93.269,-3.508e-05,0
93.269,-3.2563e-05,0
93.27,-3.2898e-05,0
93.27,-3.2395e-05,0
93.271,-2.7863e-05,0
93.272,-2.2324e-05,0
93.272,-2.5681e-05,0
93.273,-4.2634e-05,0
93.273,-7.5532e-05,0
93.274,-0.00012052,0
93.274,-0.00016281,0
93.275,-0.00018631,0
93.275,-0.00018665,0
93.276,-0.00017641,0
93.276,-0.00016684,0
93.277,-0.0001519,0
93.277,-0.00011649,0
93.278,-6.4622e-05,0
93.278,-1.3931e-05,0
93.279,2.1317e-05,0
93.279,4.8005e-05,0
93.28,7.4022e-05,0
93.28,0.00010004,0
93.281,0.00011867,0
93.281,0.0001274,0
93.282,0.00013143,0
93.282,0.00013075,0
93.283,0.0001237,0
93.283,0.00011263,0
93.284,0.00010507,0
93.284,0.00010491,0
93.285,0.00011112,0
93.286,0.00011699,0
93.286,0.00012018,0
93.287,0.00011699,0
93.287,0.0001044,0
93.288,8.5771e-05,0
93.288,7.1e-05,0
93.289,6.1936e-05,0
93.289,5.9586e-05,0
93.29,6.3615e-05,0
93.29,6.7979e-05,0
93.291,5.9754e-05,0
93.291,3.2731e-05,0
93.292,5.0355e-07,0
93.292,-2.0478e-05,0
93.293,-3.3738e-05,0
93.293,-4.8844e-05,0
93.294,-6.7979e-05,0
93.294,-9.0471e-05,0
93.295,-0.00011565,0
93.295,-0.0001472,0
93.296,-0.00018413,0
93.296,-0.00021753,0
93.297,-0.00023751,0
93.297,-0.00022911,0
93.298,-0.00019823,0
93.299,-0.0001655,0
93.299,-0.0001368,0
93.3,-9.366e-05,0
93.3,-2.652e-05,0
93.301,4.4144e-05,0
93.301,0.00010188,0
93.302,0.00015291,0
93.302,0.0001937,0
93.303,0.00022408,0
93.303,0.00025899,0
93.304,0.00030599,0
93.304,0.00034795,0
93.305,0.00037044,0
93.305,0.00038219,0
93.306,0.00038656,0
93.306,0.00037816,0
93.307,0.0003503,0
93.307,0.00030246,0
93.308,0.0002365,0
93.308,0.00016097,0
93.309,8.7449e-05,0
93.309,1.5946e-05,0
93.31,-6.1936e-05,0
93.31,-0.00013462,0
93.311,-0.00018631,0
93.311,-0.00022139,0
93.312,-0.00024405,0
93.313,-0.00024372,0
93.313,-0.00021032,0
93.314,-0.0001472,0
93.314,-7.2679e-05,0
93.315,-2.5177e-06,0
93.315,5.7572e-05,0
93.316,0.00010188,0
93.316,0.00012438,0
93.317,0.000118,0
93.317,8.9464e-05,0
93.318,6.2104e-05,0
93.318,4.1291e-05,0
93.319,6.5461e-06,0
93.319,-6.1433e-05,0
93.32,-0.00014704,0
93.32,-0.00020175,0
93.321,-0.00019185,0
93.321,-0.00012589,0
93.322,-3.7934e-05,0
93.322,5.3208e-05,0
93.323,0.00013797,0
93.323,0.00019957,0
93.324,0.00023751,0
93.324,0.00026822,0
93.325,0.00029726,0
93.326,0.00031539,0
93.326,0.00030599,0
93.327,0.00026503,0
93.327,0.00020931,0
93.328,0.00015828,0
93.328,0.00011447,0
93.329,6.9322e-05,0
93.329,2.8199e-05,0
93.33,1.6785e-07,0
93.33,-1.5442e-05,0
93.331,-2.4338e-05,0
93.331,-3.3906e-05,0
93.332,-4.9348e-05,0
93.332,-6.6468e-05,0
93.333,-8.275e-05,0
93.333,-9.987e-05,0
93.334,-0.00011632,0
93.334,-0.00013042,0
93.335,-0.00014116,0
93.335,-0.00015291,0
93.336,-0.00019319,0
93.336,-0.00028316,0
93.337,-0.00038253,0
93.337,-0.00044027,0
93.338,-0.00044816,0
93.338,-0.00041862,0
93.339,-0.00036608,0
93.34,-0.0002939,0
93.34,-0.00021048,0
93.341,-0.00012908,0
93.341,-4.9851e-05,0
93.342,3.1388e-05,0
93.342,0.0001133,0
93.343,0.00019756,0
93.343,0.00027712,0
93.344,0.0003362,0
93.344,0.00036675,0
93.345,0.00036809,0
93.345,0.00034678,0
93.346,0.00031388,0
93.346,0.00027225,0
93.347,0.00022374,0
93.347,0.00017708,0
93.348,0.00014166,0
93.348,0.0001279,0
93.349,0.00012992,0
93.349,0.00012773,0
93.35,0.00011061,0
93.35,8.5771e-05,0
93.351,6.2104e-05,0
93.351,3.9445e-05,0
93.352,1.6617e-05,0
93.353,-6.0426e-06,0
93.353,-2.6352e-05,0
93.354,-4.3137e-05,0
93.354,-6.0761e-05,0
93.355,-8.3589e-05,0
93.355,-0.00011095,0
93.356,-0.00013713,0
93.356,-0.00015879,0
93.357,-0.00017624,0
93.357,-0.00019219,0
93.358,-0.0001994,0
93.358,-0.00019487,0
93.359,-0.00019538,0
93.359,-0.00021686,0
93.36,-0.00024875,0
93.36,-0.00025144,0
93.361,-0.00020243,0
93.361,-0.00011867,0
93.362,-3.8102e-05,0
93.362,2.0981e-05,0
93.363,7.2175e-05,0
93.363,0.00013109,0
93.364,0.00019319,0
93.364,0.00025261,0
93.365,0.00030599,0
93.365,0.00034997,0
93.366,0.00037514,0
93.367,0.00037548,0
93.367,0.0003498,0
93.368,0.00031102,0
93.368,0.00026906,0
93.369,0.00022861,0
93.369,0.00019118,0
93.37,0.00014972,0
93.37,9.9199e-05,0
93.371,4.3473e-05,0
93.371,-8.0568e-06,0
93.372,-4.5487e-05,0
93.372,-6.4622e-05,0
93.373,-6.8986e-05,0
93.373,-6.7979e-05,0
93.374,-6.1265e-05,0
93.374,-5.9251e-05,0
93.375,-6.9993e-05,0
93.375,-8.0735e-05,0
93.376,-8.3757e-05,0
93.376,-8.4092e-05,0
93.377,-8.896e-05,0
93.377,-9.9535e-05,0
93.378,-0.00012522,0
93.378,-0.00017842,0
93.379,-0.00024456,0
93.379,-0.00029155,0
93.38,-0.0003033,0
93.381,-0.0002788,0
93.381,-0.00022794,0
93.382,-0.00017154,0
93.382,-0.00012572,0
93.383,-8.4764e-05,0
93.383,-1.9974e-05,0
93.384,8.5435e-05,0
93.384,0.00020746,0
93.385,0.00031388,0
93.385,0.00039159,0
93.386,0.00044027,0
93.386,0.00045638,0
93.387,0.00043557,0
93.387,0.00039025,0
93.388,0.00033788,0
93.388,0.00028316,0
93.389,0.00022005,0
93.389,0.00015006,0
93.39,7.8386e-05,0
93.39,1.2085e-05,0
93.391,-3.6423e-05,0
93.391,-6.7308e-05,0
93.392,-8.7953e-05,0
93.392,-9.987e-05,0
93.393,-0.00010524,0
93.394,-0.00012992,0
93.394,-0.00018547,0
93.395,-0.00025177,0
93.395,-0.00028719,0
93.396,-0.00026638,0
93.396,-0.00020276,0
93.397,-0.00012337,0
93.397,-5.1865e-05,0
93.398,-7.3854e-06,0
93.398,1.3428e-06,0
93.399,-8.896e-06,0
93.399,-6.2104e-06,0
93.4,1.4939e-05,0
93.4,4.5151e-05,0
93.401,7.4022e-05,0
93.401,7.9896e-05,0
93.402,5.1194e-05,0
93.402,8.7282e-06,0
93.403,-1.561e-05,0
93.403,-5.0355e-06,0
93.404,3.0549e-05,0
93.404,8.7114e-05,0
93.405,0.00016164,0
93.405,0.00024154,0
93.406,0.00030263,0
93.406,0.00033687,0
93.407,0.00034359,0
93.408,0.00033285,0
93.408,0.00031724,0
93.409,0.00029491,0
93.409,0.00025026,0
93.41,0.00017742,0
93.41,8.7114e-05,0
93.411,4.5319e-06,0
93.411,-4.5823e-05,0
93.412,-6.0594e-05,0
93.412,-6.6468e-05,0
93.413,-9.2988e-05,0
93.413,-0.00013529,0
93.414,-0.00016231,0
93.414,-0.00016281,0
93.415,-0.00015492,0
93.415,-0.00015694,0
93.416,-0.00018363,0
93.416,-0.00025245,0
93.417,-0.0003649,0
93.417,-0.0004824,0
93.418,-0.00054685,0
93.418,-0.00053594,0
93.419,-0.00046494,0
93.419,-0.00035601,0
93.42,-0.0002229,0
93.421,-7.6371e-05,0
93.421,6.3279e-05,0
93.422,0.000189,0
93.422,0.00031136,0
93.423,0.0004302,0
93.423,0.00054635,0
93.424,0.00065579,0
93.424,0.00072494,0
93.425,0.00071688,0
93.425,0.00063279,0
93.426,0.00050909,0
93.426,0.00038605,0
93.427,0.00027712,0
93.427,0.00018463,0
93.428,0.00010558,0
93.428,3.7263e-05,0
93.429,-2.8367e-05,0
93.429,-9.2821e-05,0
93.43,-0.00014452,0
93.43,-0.00017423,0
93.431,-0.00018212,0
93.431,-0.00018447,0
93.432,-0.00019303,0
93.432,-0.00019521,0
93.433,-0.0001801,0
93.433,-0.00015509,0
93.434,-0.00013025,0
93.435,-0.0001138,0
93.435,-0.00010222,0
93.436,-9.752e-05,0
93.436,-0.00010524,0
93.437,-0.00011162,0
93.437,-0.00010239,0
93.438,-8.4764e-05,0
93.438,-6.6636e-05,0
93.439,-5.069e-05,0
93.439,-4.6662e-05,0
93.44,-6.2943e-05,0
93.44,-9.7353e-05,0
93.441,-0.00013361,0
93.441,-0.00016164,0
93.442,-0.00016936,0
93.442,-0.00013344,0
93.443,-5.7908e-05,0
93.443,3.0884e-05,0
93.444,0.00010625,0
93.444,0.000165,0
93.445,0.0002125,0
93.445,0.00024691,0
93.446,0.00025429,0
93.446,0.00022609,0
93.447,0.00017708,0
93.448,0.00013008,0
93.448,8.9632e-05,0
93.449,4.8005e-05,0
93.449,1.3596e-05,0
93.45,-2.182e-06,0
93.45,-6.2104e-06,0
93.451,-7.5532e-06,0
93.451,-8.2246e-06,0
93.452,-1.1749e-05,0
93.452,-3.2395e-05,0
93.453,-6.2943e-05,0
93.453,-8.0903e-05,0
93.454,-7.6204e-05,0
93.454,-6.7308e-05,0
93.455,-7.7043e-05,0
93.455,-0.00011229,0
93.456,-0.00015174,0
93.456,-0.00014989,0
93.457,-0.00011649,0
93.457,-9.0806e-05,0
93.458,-6.7811e-05,0
93.458,-2.0981e-05,0
93.459,5.8579e-05,0
93.459,0.00016097,0
93.46,0.00026235,0
93.46,0.00033385,0
93.461,0.00036843,0
93.462,0.00037917,0
93.462,0.00037615,0
93.463,0.00036574,0
93.463,0.00034057,0
93.464,0.00029625,0
93.464,0.0002365,0
93.465,0.0001749,0
93.465,0.00011397,0
93.466,5.2537e-05,0
93.466,-1.091e-05,0
93.467,-7.0329e-05,0
93.467,-0.00011263,0
93.468,-0.00012975,0
93.468,-0.00012438,0
93.469,-0.00010625,0
93.469,-8.7953e-05,0
93.47,-7.3854e-05,0
93.47,-5.4215e-05,0
93.471,-2.7024e-05,0
93.471,0,0
93.472,1.9303e-05,0
93.472,2.266e-05,0
93.473,2.182e-06,0
93.473,-2.501e-05,0
93.474,-3.592e-05,0
93.475,-3.5248e-05,0
93.475,-4.3641e-05,0
93.476,-6.2104e-05,0
93.476,-7.0329e-05,0
93.477,-6.3783e-05,0
93.477,-6.0594e-05,0
93.478,-6.3447e-05,0
93.478,-6.3951e-05,0
93.479,-5.9251e-05,0
93.479,-4.6662e-05,0
93.48,-2.7863e-05,0
93.48,-1.0742e-05,0
93.481,-2.5177e-06,0
93.481,-4.6998e-06,0
93.482,-1.0239e-05,0
93.482,-1.5946e-05,0
93.483,-2.3331e-05,0
93.483,-3.1724e-05,0
93.484,-3.3906e-05,0
93.484,-2.8367e-05,0
93.485,-1.8631e-05,0
93.485,-1.2085e-05,0
93.486,-9.5674e-06,0
93.486,-8.896e-06,0
93.487,-1.1749e-05,0
93.487,-1.8296e-05,0
93.488,-2.3331e-05,0
93.489,-2.5177e-05,0
93.489,-2.5681e-05,0
93.49,-3.122e-05,0
93.49,-4.5319e-05,0
93.491,-7.4693e-05,0
93.491,-0.00012807,0
93.492,-0.00019756,0
93.492,-0.00025043,0
93.493,-0.00026638,0
93.493,-0.00026436,0
93.494,-0.00026403,0
93.494,-0.00025798,0
93.495,-0.00023784,0
93.495,-0.0001989,0
93.496,-0.00013629,0
93.496,-5.4047e-05,0
93.497,3.6088e-05,0
93.497,0.00013478,0
93.498,0.00024523,0
93.498,0.00035164,0
93.499,0.00043758,0
93.499,0.00049129,0
93.5,0.00050993,0
93.5,0.00049918,0
93.501,0.00046041,0
93.502,0.0004067,0
93.502,0.00035836,0
93.503,0.00031606,0
93.503,0.00026973,0
93.504,0.00021871,0
93.504,0.00017238,0
93.505,0.00013193,0
93.505,9.5171e-05,0
93.506,6.6636e-05,0
93.506,4.4144e-05,0
93.507,1.9471e-05,0
93.507,-5.2033e-06,0
93.508,-2.4002e-05,0
93.508,-4.9516e-05,0
93.509,-8.8792e-05,0
93.509,-0.00012639,0
93.51,-0.00015023,0
93.51,-0.00014821,0
93.511,-0.0001086,0
93.511,-4.0116e-05,0
93.512,2.7359e-05,0
93.512,7.1336e-05,0
93.513,9.4835e-05,0
93.513,0.00011112,0
93.514,0.00013075,0
93.514,0.00015358,0
93.515,0.00017305,0
93.516,0.00017574,0
93.516,0.00015291,0
93.517,0.00010809,0
93.517,4.9516e-05,0
93.518,-2.4674e-05,0
93.518,-0.00010994,0
93.519,-0.00017691,0
93.519,-0.00021032,0
93.52,-0.00021837,0
93.52,-0.00021032,0
93.521,-0.00019017,0
93.521,-0.00015593,0
93.522,-0.00011212,0
93.522,-6.5126e-05,0
93.523,-1.3931e-05,0
93.523,4.0452e-05,0
93.524,8.8457e-05,0
93.524,0.00011766,0
93.525,0.00012203,0
93.525,0.00010625,0
93.526,7.4357e-05,0
93.526,3.0549e-05,0
93.527,-1.7792e-05,0
93.527,-5.5055e-05,0
93.528,-7.3518e-05,0
93.529,-7.8386e-05,0
93.529,-7.9225e-05,0
93.53,-7.7043e-05,0
93.53,-6.0426e-05,0
93.531,-2.031e-05,0
93.531,4.0116e-05,0
93.532,0.00010021,0
93.532,0.00014217,0
93.533,0.00016667,0
93.533,0.00018245,0
93.534,0.00019773,0
93.534,0.00020058,0
93.535,0.00018531,0
93.535,0.00015845,0
93.536,0.00012857,0
93.536,0.00010138,0
93.537,7.335e-05,0
93.537,4.3473e-05,0
93.538,1.7792e-05,0
93.538,6.714e-07,0
93.539,-8.2246e-06,0
93.539,-2.1988e-05,0
93.54,-6.3951e-05,0
93.54,-0.00012639,0
93.541,-0.00017658,0
93.541,-0.00019689,0
93.542,-0.00019454,0
93.543,-0.00018329,0
93.543,-0.00016449,0
93.544,-0.00013713,0
93.544,-0.00011078,0
93.545,-9.3828e-05,0
93.545,-7.9728e-05,0
93.546,-5.8076e-05,0
93.546,-3.3738e-05,0
93.547,-1.2421e-05,0
93.547,2.0142e-06,0
93.548,1.4267e-05,0
93.548,4.0284e-05,0
93.549,7.5364e-05,0
93.549,9.6178e-05,0
93.55,9.8192e-05,0
93.55,9.9031e-05,0
93.551,0.00011632,0
93.551,0.00014905,0
93.552,0.00018111,0
93.552,0.00019051,0
93.553,0.00017272,0
93.553,0.00014318,0
93.554,0.00011128,0
93.554,7.6036e-05,0
93.555,3.0213e-05,0
93.556,-3.508e-05,0
93.556,-9.987e-05,0
93.557,-0.00013864,0
93.557,-0.00014737,0
93.558,-0.00013814,0
93.558,-0.00012236,0
93.559,-0.00010826,0
93.559,-0.00010457,0
93.56,-0.00013042,0
93.56,-0.00018195,0
93.561,-0.00022609,0
93.561,-0.00022492,0
93.562,-0.00017389,0
93.562,-9.2317e-05,0
93.563,-1.1749e-06,0
93.563,9.4331e-05,0
93.564,0.00017691,0
93.564,0.00023264,0
93.565,0.00026621,0
93.565,0.00029189,0
93.566,0.00032042,0
93.566,0.0003597,0
93.567,0.00040603,0
93.567,0.0004255,0
93.568,0.00038387,0
93.569,0.00030431,0
93.569,0.0002318,0
93.57,0.0001843,0
93.57,0.00015492,0
93.571,0.00013143,0
93.571,0.00011263,0
93.572,8.5771e-05,0
93.572,5.2201e-05,0
93.573,1.9135e-05,0
93.573,-1.2253e-05,0
93.574,-4.5487e-05,0
93.574,-9.6681e-05,0
93.575,-0.00016063,0
93.575,-0.00020125,0
93.576,-0.00020847,0
93.576,-0.0002036,0
93.577,-0.00019789,0
93.577,-0.00019303,0
93.578,-0.00019756,0
93.578,-0.00021787,0
93.579,-0.00025144,0
93.579,-0.00027477,0
93.58,-0.00026671,0
93.58,-0.00022341,0
93.581,-0.00015929,0
93.581,-8.6778e-05,0
93.582,-1.5946e-05,0
93.583,4.6494e-05,0
93.583,0.00010037,0
93.584,0.00015106,0
93.584,0.00019857,0
93.585,0.00023348,0
93.585,0.00024791,0
93.586,0.00024422,0
93.586,0.00022626,0
93.587,0.00019303,0
93.587,0.00014049,0
93.588,6.714e-05,0
93.588,-1.8631e-05,0
93.589,-0.00010088,0
93.589,-0.00015123,0
93.59,-0.0001566,0
93.59,-0.0001368,0
93.591,-0.00012572,0
93.591,-0.00012673,0
93.592,-0.00012236,0
93.592,-9.6681e-05,0
93.593,-5.539e-05,0
93.593,-1.091e-05,0
93.594,3.2059e-05,0
93.594,7.8553e-05,0
93.595,0.00013411,0
93.596,0.00019152,0
93.596,0.00022995,0
93.597,0.00024657,0
93.597,0.00025026,0
93.598,0.00024422,0
93.598,0.0002318,0
93.599,0.00021736,0
93.599,0.00019789,0
93.6,0.00016902,0
93.6,0.00013243,0
93.601,9.5506e-05,0
93.601,6.2272e-05,0
93.602,3.0045e-05,0
93.602,2.0142e-06,0
93.603,-1.9638e-05,0
93.603,-3.508e-05,0
93.604,-4.3809e-05,0
93.604,-5.0019e-05,0
93.605,-5.623e-05,0
93.605,-6.3447e-05,0
93.606,-7.1168e-05,0
93.606,-7.6036e-05,0
93.607,-7.6371e-05,0
93.607,-7.4357e-05,0
93.608,-7.1839e-05,0
93.608,-7.0329e-05,0
93.609,-7.4693e-05,0
93.61,-8.7785e-05,0
93.61,-0.00010323,0
93.611,-0.00011044,0
93.611,-0.00011028,0
93.612,-0.00011028,0
93.612,-0.00011901,0
93.613,-0.0001425,0
93.613,-0.00019521,0
93.614,-0.00028081,0
93.614,-0.00036172,0
93.615,-0.00040418,0
93.615,-0.00040217,0
93.616,-0.00036407,0
93.616,-0.00028685,0
93.617,-0.00017037,0
93.617,-4.6998e-05,0
93.618,5.388e-05,0
93.618,0.00013915,0
93.619,0.00023079,0
93.619,0.00034191,0
93.62,0.00045772,0
93.62,0.00055541,0
93.621,0.00061617,0
93.621,0.00062658,0
93.622,0.0005826,0
93.623,0.00050153,0
93.623,0.00041123,0
93.624,0.00032076,0
93.624,0.00023348,0
93.625,0.00015811,0
93.625,0.00010138,0
93.626,6.1097e-05,0
93.626,2.9038e-05,0
93.627,-1.5106e-06,0
93.627,-3.827e-05,0
93.628,-9.2317e-05,0
93.628,-0.00015627,0
93.629,-0.0002177,0
93.629,-0.00028484,0
93.63,-0.00039915,0
93.63,-0.00053812,0
93.631,-0.00061836,0
93.631,-0.00059821,0
93.632,-0.00049751,0
93.632,-0.0003498,0
93.633,-0.00018161,0
93.633,-1.2421e-05,0
93.634,0.00014116,0
93.634,0.00026151,0
93.635,0.00033956,0
93.635,0.00040032,0
93.636,0.0004636,0
93.637,0.00052856,0
93.637,0.00056968,0
93.638,0.00055944,0
93.638,0.00049364,0
93.639,0.00040116,0
93.639,0.00031472,0
93.64,0.00024523,0
93.64,0.00019454,0
93.641,0.00016214,0
93.641,0.0001415,0
93.642,0.00013008,0
93.642,0.00012119,0
93.643,0.00010323,0
93.643,7.1504e-05,0
93.644,2.6352e-05,0
93.644,-2.0645e-05,0
93.645,-5.539e-05,0
93.645,-7.6371e-05,0
93.646,-9.2821e-05,0
93.646,-0.00011196,0
93.647,-0.00012689,0
93.647,-0.00013243,0
93.648,-0.00014318,0
93.648,-0.00017037,0
93.649,-0.0002078,0
93.65,-0.00026722,0
93.65,-0.00035232,0
93.651,-0.00042802,0
93.651,-0.00046528,0
93.652,-0.00046461,0
93.652,-0.0004307,0
93.653,-0.00035467,0
93.653,-0.00025211,0
93.654,-0.00017708,0
93.654,-0.00014955,0
93.655,-0.00012488,0
93.655,-7.4189e-05,0
93.656,-8.896e-06,0
93.656,5.9251e-05,0
93.657,0.00013008,0
93.657,0.00019689,0
93.658,0.00024959,0
93.658,0.00029223,0
93.659,0.00032479,0
93.659,0.00034694,0
93.66,0.00035299,0
93.66,0.00034728,0
93.661,0.00034459,0
93.661,0.00035366,0
93.662,0.00036138,0
93.662,0.00034292,0
93.663,0.00029357,0
93.664,0.0002266,0
93.664,0.00015962,0
93.665,0.00010373,0
93.665,6.5293e-05,0
93.666,4.4816e-05,0
93.666,3.4745e-05,0
93.667,2.652e-05,0
93.667,1.3931e-05,0
93.668,-5.2033e-06,0
93.668,-2.6017e-05,0
93.669,-4.6494e-05,0
93.669,-6.4622e-05,0
93.67,-7.9393e-05,0
93.67,-9.1478e-05,0
93.671,-0.00010524,0
93.671,-0.00012471,0
93.672,-0.00015392,0
93.672,-0.00018766,0
93.673,-0.00021451,0
93.673,-0.00023919,0
93.674,-0.00028937,0
93.674,-0.00036323,0
93.675,-0.00041912,0
93.675,-0.00042634,0
93.676,-0.00038505,0
93.677,-0.00030834,0
93.677,-0.00020981,0
93.678,-9.752e-05,0
93.678,1.8463e-05,0
93.679,0.00012656,0
93.679,0.00022106,0
93.68,0.00029928,0
93.68,0.00036423,0
93.681,0.0004114,0
93.681,0.00042818,0
93.682,0.00040804,0
93.682,0.00035769,0
93.683,0.0002939,0
93.683,0.00022744,0
93.684,0.00016432,0
93.684,0.00011531,0
93.685,8.3085e-05,0
93.685,5.623e-05,0
93.686,3.0381e-05,0
93.686,1.1246e-05,0
93.687,-8.3925e-07,0
93.687,-8.896e-06,0
93.688,-1.5778e-05,0
93.688,-2.7527e-05,0
93.689,-5.1194e-05,0
93.689,-8.1071e-05,0
93.69,-0.00011112,0
93.691,-0.00014804,0
93.691,-0.00018698,0
93.692,-0.00020444,0
93.692,-0.00019554,0
93.693,-0.00018212,0
93.693,-0.00017305,0
93.694,-0.00016835,0
93.694,-0.00016802,0
93.695,-0.00015694,0
93.695,-0.00012438,0
93.696,-8.5771e-05,0
93.696,-5.3376e-05,0
93.697,-1.8967e-05,0
93.697,2.9709e-05,0
93.698,8.4932e-05,0
93.698,0.0001274,0
93.699,0.00015358,0
93.699,0.00018379,0
93.7,0.0002318,0
93.7,0.0002845,0
93.701,0.00031371,0
93.701,0.00030716,0
93.702,0.00026638,0
93.702,0.00019957,0
93.703,0.00012287,0
93.704,4.7837e-05,0
93.704,-1.2253e-05,0
93.705,-4.5823e-05,0
93.705,-4.9012e-05,0
93.706,-2.6352e-05,0
93.706,1.5946e-05,0
93.707,6.4118e-05,0
93.707,0.00010356,0
93.708,0.00012992,0
93.708,0.00014519,0
93.709,0.00015274,0
93.709,0.00015761,0
93.71,0.00015627,0
93.71,0.00015157,0
93.711,0.00015157,0
93.711,0.00013529,0
93.712,7.335e-05,0
93.712,-1.7624e-05,0
93.713,-9.2485e-05,0
93.713,-0.00013545,0
93.714,-0.00016718,0
93.714,-0.00019756,0
93.715,-0.00020276,0
93.715,-0.00017473,0
93.716,-0.00013982,0
93.716,-0.00011229,0
93.717,-7.335e-05,0
93.718,-2.2324e-05,0
93.718,2.5681e-05,0
93.719,6.4286e-05,0
93.719,9.0135e-05,0
93.72,0.00010121,0
93.72,0.0001039,0
93.721,0.00010709,0
93.721,0.00010423,0
93.722,8.8792e-05,0
93.722,6.7979e-05,0
93.723,5.4551e-05,0
93.723,5.5726e-05,0
93.724,6.4958e-05,0
93.724,7.1168e-05,0
93.725,7.4693e-05,0
93.725,7.2343e-05,0
93.726,5.2201e-05,0
93.726,1.4939e-05,0
93.727,-2.2324e-05,0
93.727,-4.7837e-05,0
93.728,-5.3376e-05,0
93.728,-3.9445e-05,0
93.729,-2.031e-05,0
93.729,-5.2033e-06,0
93.73,5.8747e-06,0
93.731,1.1246e-05,0
93.731,1.2589e-05,0
93.732,7.7211e-06,0
93.732,-4.3641e-06,0
93.733,-1.8631e-05,0
93.733,-3.5416e-05,0
93.734,-6.3951e-05,0
93.734,-0.00012958,0
93.735,-0.00022391,0
93.735,-0.00029609,0
93.736,-0.00032009,0
93.736,-0.00029961,0
93.737,-0.00024254,0
93.737,-0.00015761,0
93.738,-7.0497e-05,0
93.738,3.0213e-06,0
93.739,7.4022e-05,0
93.739,0.00015056,0
93.74,0.00022274,0
93.74,0.00028148,0
93.741,0.00032479,0
93.741,0.00035299,0
93.742,0.00036709,0
93.742,0.00036373,0
93.743,0.00033889,0
93.743,0.00029709,0
93.744,0.0002454,0
93.745,0.00019588,0
93.745,0.00014687,0
93.746,8.4092e-05,0
93.746,1.1917e-05,0
93.747,-4.9851e-05,0
93.747,-8.7953e-05,0
93.748,-0.00011397,0
93.748,-0.00015341,0
93.749,-0.00020578,0
93.749,-0.00024019,0
93.75,-0.00023919,0
93.75,-0.00021099,0
93.751,-0.00016617,0
93.751,-0.00010994,0
93.752,-5.069e-05,0
93.752,5.0355e-07,0
93.753,4.0116e-05,0
93.753,7.0832e-05,0
93.754,0.00010591,0
93.754,0.00014888,0
93.755,0.00018883,0
93.755,0.00021183,0
93.756,0.00021468,0
93.756,0.00019705,0
93.757,0.00015325,0
93.757,8.0064e-05,0
93.758,-6.8818e-06,0
93.759,-8.7449e-05,0
93.759,-0.00014636,0
93.76,-0.00017272,0
93.76,-0.00016449,0
93.761,-0.00013361,0
93.761,-9.5338e-05,0
93.762,-5.8412e-05,0
93.762,-2.9374e-05,0
93.763,-8.5603e-06,0
93.763,1.561e-05,0
93.764,5.1194e-05,0
93.764,8.5771e-05,0
93.765,0.00010188,0
93.765,9.7688e-05,0
93.766,8.275e-05,0
93.766,6.8315e-05,0
93.767,5.3544e-05,0
93.767,3.2059e-05,0
93.768,7.7211e-06,0
93.768,-6.5461e-06,0
93.769,-2.8534e-06,0
93.769,1.2757e-05,0
93.77,3.0716e-05,0
93.77,4.6494e-05,0
93.771,5.9922e-05,0
93.772,7.4693e-05,0
93.772,8.5435e-05,0
93.773,8.191e-05,0
93.773,6.5293e-05,0
93.774,5.1698e-05,0
93.774,4.5655e-05,0
93.775,4.2802e-05,0
93.775,3.978e-05,0
93.776,3.5416e-05,0
93.776,2.9038e-05,0
93.777,1.8631e-05,0
93.777,3.0213e-06,0
93.778,-9.9031e-06,0
93.778,-1.1582e-05,0
93.779,-2.182e-06,0
93.779,1.1078e-05,0
93.78,1.8296e-05,0
93.78,2.2995e-05,0
93.781,2.7695e-05,0
93.781,2.9541e-05,0
93.782,3.4073e-05,0
93.782,4.0787e-05,0
93.783,3.3066e-05,0
93.783,8.3925e-07,0
93.784,-4.9683e-05,0
93.784,-0.00010054,0
93.785,-0.00013327,0
93.786,-0.00014183,0
93.786,-0.00013075,0
93.787,-0.00010155,0
93.787,-6.1936e-05,0
93.788,-2.031e-05,0
93.788,1.8128e-05,0
93.789,5.3544e-05,0
93.789,8.3085e-05,0
93.79,0.00010423,0
93.79,0.00012001,0
93.791,0.0001284,0
93.791,0.00012303,0
93.792,0.00010541,0
93.792,8.8792e-05,0
93.793,7.8218e-05,0
93.793,6.7308e-05,0
93.794,5.623e-05,0
93.794,4.8173e-05,0
93.795,3.9109e-05,0
93.795,2.7695e-05,0
93.796,2.3331e-05,0
93.796,2.6688e-05,0
93.797,3.0716e-05,0
93.797,3.0716e-05,0
93.798,3.122e-05,0
93.799,3.1724e-05,0
93.799,2.4002e-05,0
93.8,1.4603e-05,0
93.8,1.1246e-05,0
93.801,3.0213e-06,0
93.801,-1.2589e-05,0
93.802,-2.8367e-05,0
93.802,-4.1291e-05,0
93.803,-5.1865e-05,0
93.803,-6.4286e-05,0
93.804,-7.9393e-05,0
93.804,-8.3421e-05,0
93.805,-5.9419e-05,0
93.805,-1.6281e-05,0
93.806,2.1988e-05,0
93.806,3.9445e-05,0
93.807,4.2802e-05,0
93.807,4.8173e-05,0
93.808,5.4047e-05,0
93.808,4.7501e-05,0
93.809,3.6423e-05,0
93.809,3.6759e-05,0
93.81,4.3809e-05,0
93.81,3.8437e-05,0
93.811,1.9806e-05,0
93.811,6.714e-07,0
93.812,-1.3931e-05,0
93.813,-2.9038e-05,0
93.813,-5.8747e-05,0
93.814,-0.00010105,0
93.814,-0.0001368,0
93.815,-0.00015157,0
93.815,-0.00014217,0
93.816,-0.000118,0
93.816,-9.3324e-05,0
93.817,-6.9322e-05,0
93.817,-3.6255e-05,0
93.818,5.2033e-06,0
93.818,4.1962e-05,0
93.819,6.0258e-05,0
93.819,6.5965e-05,0
93.82,8.0064e-05,0
93.82,0.00011179,0
93.821,0.00014418,0
93.821,0.00015509,0
93.822,0.00014083,0
93.822,0.00012035,0
93.823,0.00010356,0
93.823,8.3757e-05,0
93.824,6.4286e-05,0
93.824,6.2943e-05,0
93.825,8.8289e-05,0
93.826,0.00012874,0
93.826,0.00017171,0
93.827,0.00020629,0
93.827,0.00022039,0
93.828,0.0002078,0
93.828,0.00016416,0
93.829,9.7353e-05,0
93.829,6.8818e-06,0
93.83,-8.7785e-05,0
93.83,-0.00014217,0
93.831,-0.00014502,0
93.831,-0.00011666,0
93.832,-7.6036e-05,0
93.832,-2.7695e-05,0
93.833,2.031e-05,0
93.833,6.0258e-05,0
93.834,8.1743e-05,0
93.834,7.9561e-05,0
93.835,7.2679e-05,0
93.835,7.9057e-05,0
93.836,8.6442e-05,0
93.836,7.7379e-05,0
93.837,5.623e-05,0
93.837,4.1291e-05,0
93.838,4.6662e-05,0
93.838,6.4118e-05,0
93.839,7.5029e-05,0
93.84,8.7449e-05,0
93.84,0.00011447,0
93.841,0.00014636,0
93.841,0.00015795,0
93.842,0.00013495,0
93.842,9.1142e-05,0
93.843,4.5487e-05,0
93.843,1.5274e-05,0
93.844,-5.539e-06,0
93.844,-2.8702e-05,0
93.845,-4.9348e-05,0
93.845,-5.8412e-05,0
93.846,-5.6565e-05,0
93.846,-5.4047e-05,0
93.847,-5.4719e-05,0
93.847,-5.9922e-05,0
93.848,-6.8482e-05,0
93.848,-8.04e-05,0
93.849,-8.6107e-05,0
93.849,-8.1407e-05,0
93.85,-7.4693e-05,0
93.85,-7.4693e-05,0
93.851,-7.805e-05,0
93.851,-7.3518e-05,0
93.852,-5.774e-05,0
93.853,-3.827e-05,0
93.853,-2.3331e-05,0
93.854,-1.2253e-05,0
93.854,-6.0426e-06,0
93.855,-8.2246e-06,0
93.855,-2.1653e-05,0
93.856,-3.508e-05,0
93.856,-4.213e-05,0
93.857,-4.3809e-05,0
93.857,-4.3137e-05,0
93.858,-4.3641e-05,0
93.858,-4.3809e-05,0
93.859,-3.7263e-05,0
93.859,-2.1317e-05,0
93.86,-1.6785e-07,0
93.86,2.031e-05,0
93.861,4.1123e-05,0
93.861,6.0594e-05,0
93.862,7.6707e-05,0
93.862,8.9632e-05,0
93.863,9.9199e-05,0
93.863,0.00010491,0
93.864,0.00010524,0
93.864,9.8527e-05,0
93.865,8.7114e-05,0
93.865,7.7211e-05,0
93.866,7.5029e-05,0
93.867,7.5029e-05,0
93.867,7.1504e-05,0
93.868,6.7979e-05,0
93.868,6.3279e-05,0
93.869,5.2201e-05,0
93.869,3.7934e-05,0
93.87,2.8534e-05,0
93.87,2.1988e-05,0
93.871,1.4099e-05,0
93.871,6.714e-07,0
93.872,-9.9031e-06,0
93.872,-1.3596e-05,0
93.873,-1.2924e-05,0
93.873,-1.3764e-05,0
93.874,-1.9638e-05,0
93.874,-2.8367e-05,0
93.875,-3.6255e-05,0
93.875,-4.4816e-05,0
93.876,-5.9419e-05,0
93.876,-8.6275e-05,0
93.877,-0.00013394,0
93.877,-0.00018984,0
93.878,-0.00022391,0
93.878,-0.00022626,0
93.879,-0.00020662,0
93.88,-0.00016197,0
93.88,-9.6849e-05,0
93.881,-3.1724e-05,0
93.881,1.4603e-05,0
93.882,3.592e-05,0
93.882,3.592e-05,0
93.883,3.3402e-05,0
93.883,4.8173e-05,0
93.884,8.1743e-05,0
93.884,0.00011363,0
93.885,0.00012656,0
93.885,0.00012958,0
93.886,0.00014049,0
93.886,0.00016231,0
93.887,0.00017305,0
93.887,0.00014015,0
93.888,7.7714e-05,0
93.888,3.2731e-05,0
93.889,2.4674e-05,0
93.889,4.5151e-05,0
93.89,8.1575e-05,0
93.89,0.00011196,0
93.891,0.00013713,0
93.891,0.0001613,0
93.892,0.00018363,0
93.892,0.00020729,0
93.893,0.00023214,0
93.894,0.00025513,0
93.894,0.00027712,0
93.895,0.00030431,0
93.895,0.0003268,0
93.896,0.00031438,0
93.896,0.00024959,0
93.897,0.00014032,0
93.897,2.5345e-05,0
93.898,-5.9754e-05,0
93.898,-0.00011095,0
93.899,-0.00013713,0
93.899,-0.00013411,0
93.9,-0.00010256,0
93.9,-6.6804e-05,0
93.901,-4.7837e-05,0
93.901,-3.8773e-05,0
93.902,-3.0716e-05,0
93.902,-1.4939e-05,0
93.903,2.0645e-05,0
93.903,7.2175e-05,0
93.904,0.00011162,0
93.904,0.00011095,0
93.905,6.4286e-05,0
93.905,-1.9471e-05,0
93.906,-0.00011833,0
93.907,-0.00020696,0
93.907,-0.00024959,0
93.908,-0.0002365,0
93.908,-0.00019773,0
93.909,-0.00016466,0
93.909,-0.00013713,0
93.91,-0.00010524,0
93.91,-6.3447e-05,0
93.911,-1.4435e-05,0
93.911,3.8102e-05,0
93.912,9.5842e-05,0
93.912,0.00015291,0
93.913,0.00019756,0
93.913,0.00022173,0
93.914,0.0002224,0
93.914,0.00020528,0
93.915,0.00018044,0
93.915,0.00014049,0
93.916,8.5603e-05,0
93.916,3.1388e-05,0
93.917,-7.8889e-06,0
93.917,-3.4409e-05,0
93.918,-5.6901e-05,0
93.918,-7.7043e-05,0
93.919,-8.6107e-05,0
93.919,-7.4693e-05,0
93.92,-5.6565e-05,0
93.921,-5.2201e-05,0
93.921,-6.0258e-05,0
93.922,-6.7811e-05,0
93.922,-6.7308e-05,0
93.923,-6.1601e-05,0
93.923,-5.539e-05,0
93.924,-5.623e-05,0
93.924,-6.009e-05,0
93.925,-6.0929e-05,0
93.925,-6.1936e-05,0
93.926,-6.63e-05,0
93.926,-6.714e-05,0
93.927,-5.7069e-05,0
93.927,-3.743e-05,0
93.928,-1.0071e-05,0
93.928,2.6017e-05,0
93.929,6.5629e-05,0
93.929,9.7856e-05,0
93.93,0.000118,0
93.93,0.00013126,0
93.931,0.00013545,0
93.931,0.00012589,0
93.932,0.00010524,0
93.932,7.8721e-05,0
93.933,5.153e-05,0
93.934,2.7527e-05,0
93.934,7.5532e-06,0
93.935,-1.2253e-05,0
93.935,-3.0381e-05,0
93.936,-4.3473e-05,0
93.936,-5.623e-05,0
93.937,-7.9057e-05,0
93.937,-0.0001091,0
93.938,-0.00013378,0
93.938,-0.00014284,0
93.939,-0.00014217,0
93.939,-0.00013529,0
93.94,-0.00011917,0
93.94,-9.0806e-05,0
93.941,-5.3544e-05,0
93.941,-1.3428e-05,0
93.942,2.2995e-05,0
93.942,5.3376e-05,0
93.943,8.6946e-05,0
93.943,0.00013243,0
93.944,0.0001848,0
93.944,0.00023079,0
93.945,0.00026067,0
93.945,0.00027376,0
93.946,0.00027242,0
93.947,0.00025496,0
93.947,0.00022542,0
93.948,0.00019084,0
93.948,0.00015123,0
93.949,0.00010423,0
93.949,5.4887e-05,0
93.95,1.6785e-05,0
93.95,-1.8463e-06,0
93.951,-6.0426e-06,0
93.951,-1.6785e-06,0
93.952,6.8818e-06,0
93.952,1.326e-05,0
93.953,1.5946e-05,0
93.953,1.5442e-05,0
93.954,7.2175e-06,0
93.954,-6.8818e-06,0
93.955,-2.417e-05,0
93.955,-4.7501e-05,0
93.956,-8.04e-05,0
93.956,-0.00011917,0
93.957,-0.00014385,0
93.957,-0.00013864,0
93.958,-0.00010944,0
93.958,-7.4861e-05,0
93.959,-4.6494e-05,0
93.959,-2.1653e-05,0
93.96,7.0497e-06,0
93.961,3.8941e-05,0
93.961,6.7643e-05,0
93.962,9.3156e-05,0
93.962,0.00011632,0
93.963,0.00012824,0
93.963,0.0001227,0
93.964,0.00010172,0
93.964,7.7882e-05,0
93.965,5.7237e-05,0
93.965,4.1459e-05,0
93.966,3.2563e-05,0
93.966,2.887e-05,0
93.967,2.5177e-05,0
93.967,2.1653e-05,0
93.968,1.9974e-05,0
93.968,2.3331e-05,0
93.969,3.0716e-05,0
93.969,3.5248e-05,0
93.97,3.3234e-05,0
93.97,3.2395e-05,0
93.971,3.5416e-05,0
93.971,3.8102e-05,0
93.972,3.5752e-05,0
93.972,2.8367e-05,0
93.973,1.5778e-05,0
93.974,-1.6785e-07,0
93.974,-1.2421e-05,0
93.975,-2.2995e-05,0
93.975,-3.8102e-05,0
93.976,-5.7572e-05,0
93.976,-7.1504e-05,0
93.977,-8.2078e-05,0
93.977,-9.5171e-05,0
93.978,-0.00011179,0
93.978,-0.0001321,0
93.979,-0.00014855,0
93.979,-0.00014788,0
93.98,-0.00012992,0
93.98,-0.00010323,0
93.981,-7.7043e-05,0
93.981,-5.5222e-05,0
93.982,-3.5752e-05,0
93.982,-1.5442e-05,0
93.983,6.5461e-06,0
93.983,3.0716e-05,0
93.984,5.539e-05,0
93.984,6.9657e-05,0
93.985,6.4286e-05,0
93.985,4.8508e-05,0
93.986,3.7263e-05,0
93.986,3.8437e-05,0
93.987,4.7333e-05,0
93.988,5.1194e-05,0
93.988,4.8844e-05,0
93.989,4.7333e-05,0
93.989,4.8173e-05,0
93.99,5.4047e-05,0
93.99,7.4357e-05,0
93.991,0.0001086,0
93.991,0.00014821,0
93.992,0.00018161,0
93.992,0.00020159,0
93.993,0.00020797,0
93.993,0.0002083,0
93.994,0.00021065,0
93.994,0.00021669,0
93.995,0.00022643,0
93.995,0.00023583,0
93.996,0.00023851,0
93.996,0.00023079,0
93.997,0.00020327,0
93.997,0.00015627,0
93.998,9.6513e-05,0
93.998,3.3906e-05,0
93.999,-1.796e-05,0
93.999,-5.0019e-05,0
94,-7.2007e-05,0
94.001,-9.6178e-05,0
94.001,-0.00012454,0
94.002,-0.0001519,0
94.002,-0.0001791,0
94.003,-0.0001989,0
94.003,-0.00020293,0
94.004,-0.00021149,0
94.004,-0.00024623,0
94.005,-0.00028199,0
94.005,-0.00027141,0
94.006,-0.00020931,0
94.006,-0.00013495,0
94.007,-7.3182e-05,0
94.007,-7.2175e-06,0
94.008,7.3686e-05,0
94.008,0.00015492,0
94.009,0.00021065,0
94.009,0.00023214,0
94.01,0.00024154,0
94.01,0.00025866,0
94.011,0.0002694,0
94.011,0.00024942,0
94.012,0.00019722,0
94.012,0.00013613,0
94.013,8.661e-05,0
94.013,4.6494e-05,0
94.014,-6.2104e-06,0
94.015,-6.7643e-05,0
94.015,-0.00011397,0
94.016,-0.00013545,0
94.016,-0.00013797,0
94.017,-0.00012924,0
94.017,-0.0001086,0
94.018,-7.4693e-05,0
94.018,-3.2563e-05,0
94.019,6.2104e-06,0
94.019,3.3066e-05,0
94.02,5.2201e-05,0
94.02,7.4022e-05,0
94.021,9.9535e-05,0
94.021,0.00012605,0
94.022,0.00014687,0
94.022,0.00015425,0
94.023,0.00014267,0
94.023,0.00011414,0
94.024,7.2679e-05,0
94.024,2.8031e-05,0
94.025,-1.6449e-05,0
94.025,-6.3615e-05,0
94.026,-0.00011044,0
94.026,-0.00014133,0
94.027,-0.00015123,0
94.028,-0.00014871,0
94.028,-0.00013613,0
94.029,-0.00010524,0
94.029,-6.1265e-05,0
94.03,-2.0645e-05,0
94.03,1.8967e-05,0
94.031,6.6636e-05,0
94.031,0.00011431,0
94.032,0.00014553,0
94.032,0.00015895,0
94.033,0.00016953,0
94.033,0.00018077,0
94.034,0.00018144,0
94.034,0.00016953,0
94.035,0.00014955,0
94.035,0.00012522,0
94.036,0.00010054,0
94.036,8.0064e-05,0
94.037,6.4622e-05,0
94.037,5.1362e-05,0
94.038,3.7263e-05,0
94.038,2.031e-05,0
94.039,2.8534e-06,0
94.039,-1.1078e-05,0
94.04,-2.2492e-05,0
94.04,-3.1724e-05,0
94.041,-4.2466e-05,0
94.042,-6.1265e-05,0
94.042,-8.0903e-05,0
94.043,-9.7185e-05,0
94.043,-0.00010726,0
94.044,-0.0001091,0
94.044,-0.00010961,0
94.045,-0.00010491,0
94.045,-9.1142e-05,0
94.046,-7.6371e-05,0
94.046,-7.2007e-05,0
94.047,-9.1142e-05,0
94.047,-0.00012136,0
94.048,-0.00013848,0
94.048,-0.00013579,0
94.049,-0.00011749,0
94.049,-9.131e-05,0
94.05,-5.7572e-05,0
94.05,-8.896e-06,0
94.051,5.0019e-05,0
94.051,9.5003e-05,0
94.052,0.00012102,0
94.052,0.00014519,0
94.053,0.00018027,0
94.053,0.00021418,0
94.054,0.00022777,0
94.055,0.00022324,0
94.055,0.00020897,0
94.056,0.00018682,0
94.056,0.00015627,0
94.057,0.00012337,0
94.057,7.7379e-05,0
94.058,1.2924e-05,0
94.058,-4.6998e-05,0
94.059,-8.3421e-05,0
94.059,-0.0001133,0
94.06,-0.00016332,0
94.06,-0.00022206,0
94.061,-0.00025715,0
94.061,-0.00027024,0
94.062,-0.00028182,0
94.062,-0.00028014,0
94.063,-0.00023818,0
94.063,-0.00017238,0
94.064,-0.00012622,0
94.064,-0.00010927,0
94.065,-8.9296e-05,0
94.065,-4.3641e-05,0
94.066,1.7288e-05,0
94.066,8.4092e-05,0
94.067,0.00013579,0
94.067,0.00015929,0
94.068,0.00016432,0
94.069,0.00016902,0
94.069,0.00018614,0
94.07,0.00021736,0
94.07,0.00026302,0
94.071,0.00031925,0
94.071,0.00037447,0
94.072,0.00041811,0
94.072,0.00044665,0
94.073,0.0004641,0
94.073,0.00046679,0
94.074,0.00044497,0
94.074,0.00039327,0
94.075,0.00031505,0
94.075,0.00022274,0
94.076,0.0001279,0
94.076,4.1459e-05,0
94.077,-2.9877e-05,0
94.077,-8.4092e-05,0
94.078,-0.00011666,0
94.078,-0.00012572,0
94.079,-0.00012589,0
94.079,-0.00012908,0
94.08,-0.00013092,0
94.08,-0.00012975,0
94.081,-0.00013696,0
94.082,-0.00015828,0
94.082,-0.00017826,0
94.083,-0.0001791,0
94.083,-0.000165,0
94.084,-0.00015576,0
94.084,-0.00017121,0
94.085,-0.00020813,0
94.085,-0.00024724,0
94.086,-0.00026671,0
94.086,-0.00025547,0
94.087,-0.00021166,0
94.087,-0.00015291,0
94.088,-9.5003e-05,0
94.088,-3.5752e-05,0
94.089,2.3835e-05,0
94.089,7.8218e-05,0
94.09,0.0001331,0
94.09,0.00019521,0
94.091,0.00025933,0
94.091,0.00031237,0
94.092,0.00034006,0
94.092,0.00034208,0
94.093,0.00032345,0
94.093,0.0002929,0
94.094,0.0002553,0
94.094,0.00021065,0
94.095,0.00016617,0
94.096,0.00012438,0
94.096,8.3085e-05,0
94.097,4.1459e-05,0
94.097,6.2104e-06,0
94.098,-1.7624e-05,0
94.098,-3.508e-05,0
94.099,-5.1865e-05,0
94.099,-7.0161e-05,0
94.1,-8.5435e-05,0
94.1,-9.2988e-05,0
94.101,-9.3156e-05,0
94.101,-9.4667e-05,0
94.102,-9.8024e-05,0
94.102,-0.00010037,0
94.103,-0.00010591,0
94.103,-0.00011699,0
94.104,-0.00012773,0
94.104,-0.00013277,0
94.105,-0.00013613,0
94.105,-0.00013814,0
94.106,-0.0001321,0
94.106,-0.00012169,0
94.107,-0.00012018,0
94.107,-0.00012136,0
94.108,-0.0001138,0
94.109,-0.00010037,0
94.109,-9.2485e-05,0
94.11,-8.6778e-05,0
94.11,-7.6204e-05,0
94.111,-5.6062e-05,0
94.111,-2.5513e-05,0
94.112,5.7069e-06,0
94.112,2.8534e-05,0
94.113,3.978e-05,0
94.113,4.3809e-05,0
94.114,4.5151e-05,0
94.114,3.8773e-05,0
94.115,2.2324e-05,0
94.115,6.5461e-06,0
94.116,2.5177e-06,0
94.116,1.326e-05,0
94.117,3.4073e-05,0
94.117,5.3208e-05,0
94.118,6.8986e-05,0
94.118,8.3757e-05,0
94.119,9.8192e-05,0
94.119,0.0001133,0
94.12,0.00012068,0
94.12,0.00011632,0
94.121,0.00011196,0
94.121,0.00011901,0
94.122,0.00013277,0
94.123,0.00014653,0
94.123,0.00015862,0
94.124,0.00016097,0
94.124,0.00014469,0
94.125,0.0001227,0
94.125,0.0001039,0
94.126,7.6539e-05,0
94.126,4.1459e-05,0
94.127,1.3764e-05,0
94.127,3.357e-07,0
94.128,-9.9031e-06,0
94.128,-2.417e-05,0
94.129,-3.9277e-05,0
94.129,-5.7572e-05,0
94.13,-9.5003e-05,0
94.13,-0.00013982,0
94.131,-0.00017037,0
94.131,-0.00019319,0
94.132,-0.00021871,0
94.132,-0.00023482,0
94.133,-0.00022307,0
94.133,-0.00017876,0
94.134,-0.00011313,0
94.134,-4.4144e-05,0
94.135,1.4603e-05,0
94.135,5.388e-05,0
94.136,8.3421e-05,0
94.137,0.00013579,0
94.137,0.00021032,0
94.138,0.00027712,0
94.138,0.00033066,0
94.139,0.00038488,0
94.139,0.0004349,0
94.14,0.0004594,0
94.14,0.00044698,0
94.141,0.00040804,0
94.141,0.00035299,0
94.142,0.00028988,0
94.142,0.00022744,0
94.143,0.000166,0
94.143,0.00011397,0
94.144,7.8218e-05,0
94.144,5.2033e-05,0
94.145,2.6688e-05,0
94.145,1.1749e-06,0
94.146,-2.4674e-05,0
94.146,-5.2201e-05,0
94.147,-7.7043e-05,0
94.147,-9.8863e-05,0
94.148,-0.00014015,0
94.148,-0.00022744,0
94.149,-0.00033117,0
94.15,-0.0003978,0
94.15,-0.00041476,0
94.151,-0.00040082,0
94.151,-0.00037632,0
94.152,-0.00035064,0
94.152,-0.00031186,0
94.153,-0.00024825,0
94.153,-0.00015996,0
94.154,-5.4551e-05,0
94.154,5.2033e-05,0
94.155,0.00015023,0
94.155,0.00023952,0
94.156,0.00030498,0
94.156,0.0003258,0
94.157,0.00030867,0
94.157,0.00028215,0
94.158,0.00026151,0
94.158,0.00024405,0
94.159,0.0002224,0
94.159,0.00019823,0
94.16,0.00017977,0
94.16,0.0001791,0
94.161,0.0002036,0
94.161,0.00023885,0
94.162,0.00025614,0
94.162,0.00024237,0
94.163,0.00020897,0
94.164,0.00017137,0
94.164,0.00012303,0
94.165,5.8076e-05,0
94.165,-4.5319e-06,0
94.166,-4.8676e-05,0
94.166,-7.1504e-05,0
94.167,-8.275e-05,0
94.167,-9.4835e-05,0
94.168,-0.00011347,0
94.168,-0.00013176,0
94.169,-0.0001467,0
94.169,-0.00015962,0
94.17,-0.00017003,0
94.17,-0.00017859,0
94.171,-0.00019236,0
94.171,-0.00020897,0
94.172,-0.00022777,0
94.172,-0.00025681,0
94.173,-0.00027829,0
94.173,-0.00027594,0
94.174,-0.00025278,0
94.174,-0.00020763,0
94.175,-0.00014401,0
94.175,-7.5029e-05,0
94.176,-1.091e-05,0
94.177,4.2802e-05,0
94.177,8.9799e-05,0
94.178,0.00012605,0
94.178,0.00013982,0
94.179,0.00012824,0
94.179,8.6107e-05,0
94.18,2.4338e-05,0
94.18,-3.2898e-05,0
94.181,-7.1336e-05,0
94.181,-9.752e-05,0
94.182,-0.00012605,0
94.182,-0.00015358,0
94.183,-0.00016298,0
94.183,-0.00014519,0
94.184,-0.00010809,0
94.184,-6.5293e-05,0
94.185,-1.091e-05,0
94.185,6.2943e-05,0
94.186,0.00014586,0
94.186,0.0002177,0
94.187,0.00026369,0
94.187,0.00027829,0
94.188,0.0002751,0
94.188,0.00026705,0
94.189,0.00025547,0
94.189,0.0002412,0
94.19,0.00022744,0
94.191,0.00021434,0
94.191,0.00019823,0
94.192,0.0001801,0
94.192,0.00015996,0
94.193,0.00014015,0
94.193,0.00012471,0
94.194,0.00011296,0
94.194,0.00010272,0
94.195,9.366e-05,0
94.195,8.5771e-05,0
94.196,7.57e-05,0
94.196,5.5726e-05,0
94.197,2.0645e-05,0
94.197,-2.3163e-05,0
94.198,-6.4622e-05,0
94.198,-0.00010188,0
94.199,-0.00014116,0
94.199,-0.00017104,0
94.2,-0.00017893,0
94.2,-0.00016818,0
94.201,-0.00015392,0
94.201,-0.00014603,0
94.202,-0.0001378,0
94.202,-0.00012538,0
94.203,-0.00010608,0
94.204,-7.7043e-05,0
94.204,-4.0116e-05,0
94.205,-1.0071e-06,0
94.205,2.9038e-05,0
94.206,4.2802e-05,0
94.206,4.1962e-05,0
94.207,3.0045e-05,0
94.207,2.1317e-05,0
94.208,2.7695e-05,0
94.208,4.5487e-05,0
94.209,6.6468e-05,0
94.209,8.2918e-05,0
94.21,9.4499e-05,0
94.21,0.00010105,0
94.211,0.00010256,0
94.211,0.00010524,0
94.212,0.00011128,0
94.212,0.00011431,0
94.213,0.00011028,0
94.213,9.5506e-05,0
94.214,6.865e-05,0
94.214,4.1291e-05,0
94.215,2.5345e-05,0
94.215,1.7624e-05,0
94.216,1.1582e-05,0
94.216,0,0
94.217,-2.5177e-05,0
94.218,-5.9419e-05,0
94.218,-9.7185e-05,0
94.219,-0.00014234,0
94.219,-0.00018631,0
94.22,-0.00020092,0
94.22,-0.00017842,0
94.221,-0.00014586,0
94.221,-0.00012119,0
94.222,-9.836e-05,0
94.222,-6.3783e-05,0
94.223,-2.4002e-05,0
94.223,-7.0497e-06,0
94.224,-4.6998e-06,0
94.224,1.6785e-05,0
94.225,7.7714e-05,0
94.225,0.00016533,0
94.226,0.00024489,0
94.226,0.00028786,0
94.227,0.0002929,0
94.227,0.00027192,0
94.228,0.00023348,0
94.228,0.00019521,0
94.229,0.00017238,0
94.229,0.00017557,0
94.23,0.00019504,0
94.231,0.00020461,0
94.231,0.00019319,0
94.232,0.00016835,0
94.232,0.00013982,0
94.233,0.00011733,0
94.233,9.836e-05,0
94.234,7.9393e-05,0
94.234,6.4958e-05,0
94.235,6.1265e-05,0
94.235,6.2272e-05,0
94.236,5.623e-05,0
94.236,4.1459e-05,0
94.237,1.8631e-05,0
94.237,-1.7624e-05,0
94.238,-6.1433e-05,0
94.238,-0.00010021,0
94.239,-0.00012807,0
94.239,-0.00014401,0
94.24,-0.00014083,0
94.24,-0.0001185,0
94.241,-8.8121e-05,0
94.241,-6.4622e-05,0
94.242,-5.304e-05,0
94.242,-4.8676e-05,0
94.243,-4.3641e-05,0
94.243,-3.2059e-05,0
94.244,-1.8463e-05,0
94.245,-1.091e-05,0
94.245,-9.5674e-06,0
94.246,-1.0407e-05,0
94.246,-8.5603e-06,0
94.247,-3.6927e-06,0
94.247,8.3925e-07,0
94.248,1.0071e-06,0
94.248,0,0
94.249,-2.8534e-06,0
94.249,-1.0575e-05,0
94.25,-2.5513e-05,0
94.25,-4.9012e-05,0
94.251,-7.57e-05,0
94.251,-9.8527e-05,0
94.252,-0.00011649,0
94.252,-0.00012807,0
94.253,-0.00013042,0
94.253,-0.00013243,0
94.254,-0.00014133,0
94.254,-0.0001462,0
94.255,-0.00013495,0
94.255,-0.00011196,0
94.256,-8.5435e-05,0
94.256,-6.0761e-05,0
94.257,-4.0284e-05,0
94.258,-2.182e-05,0
94.258,-6.5461e-06,0
94.259,5.2033e-06,0
94.259,1.9135e-05,0
94.26,3.0213e-05,0
94.26,2.6352e-05,0
94.261,1.2589e-05,0
94.261,-3.5248e-06,0
94.262,-3.2059e-05,0
94.262,-6.6468e-05,0
94.263,-8.0064e-05,0
94.263,-5.7069e-05,0
94.264,-7.0497e-06,0
94.264,5.0858e-05,0
94.265,0.00010323,0
94.265,0.00014536,0
94.266,0.00017171,0
94.266,0.00019118,0
94.267,0.00022173,0
94.267,0.00026487,0
94.268,0.00030666,0
94.268,0.00033452,0
94.269,0.00034493,0
94.269,0.00034611,0
94.27,0.00034157,0
94.27,0.00032714,0
94.271,0.00029206,0
94.272,0.00023247,0
94.272,0.00015056,0
94.273,6.8315e-05,0
94.273,1.4267e-05,0
94.274,-1.1917e-05,0
94.274,-3.4745e-05,0
94.275,-6.63e-05,0
94.275,-9.4667e-05,0
94.276,-0.00011363,0
94.276,-0.00012018,0
94.277,-0.00011363,0
94.277,-9.6513e-05,0
94.278,-7.2175e-05,0
94.278,-4.8005e-05,0
94.279,-4.1794e-05,0
94.279,-5.9083e-05,0
94.28,-8.0903e-05,0
94.28,-9.1142e-05,0
94.281,-8.0064e-05,0
94.281,-4.5991e-05,0
94.282,-7.2175e-06,0
94.282,2.0645e-05,0
94.283,3.4073e-05,0
94.283,3.8773e-05,0
94.284,4.5487e-05,0
94.285,5.7237e-05,0
94.285,6.4118e-05,0
94.286,6.1601e-05,0
94.286,5.623e-05,0
94.287,5.2537e-05,0
94.287,4.4816e-05,0
94.288,2.7863e-05,0
94.288,4.5319e-06,0
94.289,-1.6449e-05,0
94.289,-2.4338e-05,0
94.29,-1.2924e-05,0
94.29,7.5532e-06,0
94.291,1.9303e-05,0
94.291,1.0575e-05,0
94.292,-1.4603e-05,0
94.292,-4.0955e-05,0
94.293,-5.9922e-05,0
94.293,-7.3014e-05,0
94.294,-9.0974e-05,0
94.294,-0.00012975,0
94.295,-0.00020192,0
94.295,-0.00029206,0
94.296,-0.00035702,0
94.296,-0.00036541,0
94.297,-0.00031707,0
94.297,-0.00023012,0
94.298,-0.00012807,0
94.299,-2.031e-05,0
94.299,9.2821e-05,0
94.3,0.00020662,0
94.3,0.00031203,0
94.301,0.00039596,0
94.301,0.0004631,0
94.302,0.00051748,0
94.302,0.00054232,0
94.303,0.00051479,0
94.303,0.0004359,0
94.304,0.00032546,0
94.304,0.00021267,0
94.305,0.00012136,0
94.305,6.0761e-05,0
94.306,2.1317e-05,0
94.306,-2.5177e-06,0
94.307,-1.7624e-05,0
94.307,-3.9948e-05,0
94.308,-6.8986e-05,0
94.308,-8.6107e-05,0
94.309,-8.51e-05,0
94.309,-6.7308e-05,0
94.31,-3.6927e-05,0
94.31,-3.8605e-06,0
94.311,2.0645e-05,0
94.312,3.5752e-05,0
94.312,4.4144e-05,0
94.313,4.4144e-05,0
94.313,4.0955e-05,0
94.314,3.978e-05,0
94.314,4.2802e-05,0
94.315,4.4144e-05,0
94.315,4.213e-05,0
94.316,3.5416e-05,0
94.316,2.7695e-05,0
94.317,1.6449e-05,0
94.317,2.8534e-06,0
94.318,-2.8534e-06,0
94.318,-5.2033e-06,0
94.319,-2.0142e-05,0
94.319,-5.8412e-05,0
94.32,-0.00011464,0
94.32,-0.00016382,0
94.321,-0.00018514,0
94.321,-0.00018514,0
94.322,-0.00017977,0
94.322,-0.00016567,0
94.323,-0.00013579,0
94.323,-9.3156e-05,0
94.324,-4.3977e-05,0
94.325,9.5674e-06,0
94.325,5.6733e-05,0
94.326,8.6778e-05,0
94.326,9.752e-05,0
94.327,8.2078e-05,0
94.327,5.0858e-05,0
94.328,2.3835e-05,0
94.328,5.0355e-07,0
94.329,-2.8199e-05,0
94.329,-6.479e-05,0
94.33,-0.00011095,0
94.33,-0.00015258,0
94.331,-0.00016785,0
94.331,-0.00014922,0
94.332,-0.00010927,0
94.332,-5.6397e-05,0
94.333,5.0355e-07,0
94.333,4.1123e-05,0
94.334,5.9251e-05,0
94.334,7.4022e-05,0
94.335,0.00010893,0
94.335,0.00017238,0
94.336,0.00024388,0
94.336,0.00029223,0
94.337,0.00030196,0
94.337,0.0002845,0
94.338,0.00025144,0
94.339,0.00021032,0
94.339,0.0001697,0
94.34,0.00013243,0
94.34,9.4499e-05,0
94.341,5.9083e-05,0
94.341,3.2395e-05,0
94.342,1.5274e-05,0
94.342,2.182e-06,0
94.343,-8.2246e-06,0
94.343,-1.561e-05,0
94.344,-2.1149e-05,0
94.344,-2.501e-05,0
94.345,-2.8031e-05,0
94.345,-3.2395e-05,0
94.346,-3.8941e-05,0
94.346,-4.6159e-05,0
94.347,-5.3376e-05,0
94.347,-5.9922e-05,0
94.348,-6.6636e-05,0
94.348,-7.2679e-05,0
94.349,-7.4357e-05,0
94.349,-7.0832e-05,0
94.35,-6.0258e-05,0
94.35,-4.3809e-05,0
94.351,-2.8199e-05,0
94.352,-2.0142e-05,0
94.352,-2.031e-05,0
94.353,-2.4674e-05,0
94.353,-2.7024e-05,0
94.354,-2.501e-05,0
94.354,-2.0981e-05,0
94.355,-1.6953e-05,0
94.355,-1.1917e-05,0
94.356,-5.8747e-06,0
94.356,-3.357e-06,0
94.357,-7.0497e-06,0
94.357,-1.7792e-05,0
94.358,-3.4073e-05,0
94.358,-4.6998e-05,0
94.359,-4.4312e-05,0
94.359,-2.887e-05,0
94.36,-1.9974e-05,0
94.36,-2.7359e-05,0
94.361,-4.4816e-05,0
94.361,-6.6468e-05,0
94.362,-8.6778e-05,0
94.362,-9.9535e-05,0
94.363,-0.00010289,0
94.363,-9.4835e-05,0
94.364,-8.1743e-05,0
94.364,-8.0735e-05,0
94.365,-9.1478e-05,0
94.366,-9.2653e-05,0
94.366,-7.8218e-05,0
94.367,-5.5726e-05,0
94.367,-1.6953e-05,0
94.368,3.6591e-05,0
94.368,9.0974e-05,0
94.369,0.00014217,0
94.369,0.00019319,0
94.37,0.00024372,0
94.37,0.00028098,0
94.371,0.0003033,0
94.371,0.00032345,0
94.372,0.00034426,0
94.372,0.00035215,0
94.373,0.00034124,0
94.373,0.00031539,0
94.374,0.0002798,0
94.374,0.00023717,0
94.375,0.00019571,0
94.375,0.00015325,0
94.376,0.00010323,0
94.376,5.1865e-05,0
94.377,1.3931e-05,0
94.377,-4.8676e-06,0
94.378,-1.3596e-05,0
94.379,-1.4939e-05,0
94.379,-4.8676e-06,0
94.38,8.896e-06,0
94.38,1.8296e-05,0
94.381,2.6688e-05,0
94.381,3.1556e-05,0
94.382,2.6017e-05,0
94.382,1.0407e-05,0
94.383,-1.9974e-05,0
94.383,-5.8244e-05,0
94.384,-9.4331e-05,0
94.384,-0.00012857,0
94.385,-0.00015996,0
94.385,-0.00017742,0
94.386,-0.00017675,0
94.386,-0.00015425,0
94.387,-0.00011279,0
94.387,-6.6636e-05,0
94.388,-2.501e-05,0
94.388,1.5106e-05,0
94.389,5.1865e-05,0
94.389,7.8386e-05,0
94.39,9.3828e-05,0
94.39,9.8527e-05,0
94.391,8.7617e-05,0
94.391,6.2776e-05,0
94.392,3.3738e-05,0
94.393,1.091e-05,0
94.393,3.357e-07,0
94.394,-6.2104e-06,0
94.394,-1.4099e-05,0
94.395,-1.6281e-05,0
94.395,-8.5603e-06,0
94.396,3.8605e-06,0
94.396,1.2757e-05,0
94.397,1.5946e-05,0
94.397,9.0639e-06,0
94.398,-1.2253e-05,0
94.398,-4.5655e-05,0
94.399,-8.4596e-05,0
94.399,-0.00011884,0
94.4,-0.00014116,0
94.4,-0.00015157,0
94.401,-0.00014989,0
94.401,-0.00013361,0
94.402,-0.00011028,0
94.402,-8.9632e-05,0
94.403,-6.9657e-05,0
94.403,-3.8437e-05,0
94.404,9.7353e-06,0
94.404,6.7643e-05,0
94.405,0.00012706,0
94.406,0.00017406,0
94.406,0.0001937,0
94.407,0.00019034,0
94.407,0.00018111,0
94.408,0.00017574,0
94.408,0.00017272,0
94.409,0.00016533,0
94.409,0.00015425,0
94.41,0.00013545,0
94.41,0.0001086,0
94.411,7.9728e-05,0
94.411,4.918e-05,0
94.412,1.1917e-05,0
94.412,-2.4674e-05,0
94.413,-5.2873e-05,0
94.413,-6.7308e-05,0
94.414,-6.5965e-05,0
94.414,-5.5222e-05,0
94.415,-4.1962e-05,0
94.415,-3.1052e-05,0
94.416,-1.9638e-05,0
94.416,-1.0071e-06,0
94.417,2.4674e-05,0
94.417,5.0019e-05,0
94.418,7.2007e-05,0
94.418,9.2485e-05,0
94.419,0.00010574,0
94.42,0.00010054,0
94.42,8.0232e-05,0
94.421,5.8915e-05,0
94.421,4.2802e-05,0
94.422,3.0381e-05,0
94.422,1.3596e-05,0
94.423,-2.1149e-05,0
94.423,-8.2582e-05,0
94.424,-0.00016332,0
94.424,-0.00023029,0
94.425,-0.00025949,0
94.425,-0.0002553,0
94.426,-0.00022559,0
94.426,-0.00017977,0
94.427,-0.00011951,0
94.427,-4.918e-05,0
94.428,2.0981e-05,0
94.428,0.00010054,0
94.429,0.00019118,0
94.429,0.00027158,0
94.43,0.00032277,0
94.43,0.00033671,0
94.431,0.00031975,0
94.431,0.00028769,0
94.432,0.00025328,0
94.433,0.00022139,0
94.433,0.0001791,0
94.434,0.00011598,0
94.434,5.388e-05,0
94.435,9.7353e-06,0
94.435,-2.0478e-05,0
94.436,-3.978e-05,0
94.436,-5.0187e-05,0
94.437,-5.5558e-05,0
94.437,-5.4551e-05,0
94.438,-3.8773e-05,0
94.438,-6.2104e-06,0
94.439,3.5416e-05,0
94.439,8.04e-05,0
94.44,0.00012824,0
94.44,0.0001697,0
94.441,0.00018598,0
94.441,0.00017389,0
94.442,0.00014737,0
94.442,0.00012119,0
94.443,9.987e-05,0
94.443,7.9393e-05,0
94.444,5.8244e-05,0
94.444,3.3738e-05,0
94.445,-1.8463e-06,0
94.445,-4.9851e-05,0
94.446,-0.00010105,0
94.447,-0.00013999,0
94.447,-0.00015811,0
94.448,-0.00016097,0
94.448,-0.00015627,0
94.449,-0.00015023,0
94.449,-0.00015543,0
94.45,-0.00017288,0
94.45,-0.00018648,0
94.451,-0.00018547,0
94.451,-0.00016533,0
94.452,-0.00012908,0
94.452,-8.7114e-05,0
94.453,-4.1123e-05,0
94.453,2.8534e-06,0
94.454,3.8605e-05,0
94.454,6.3951e-05,0
94.455,8.5435e-05,0
94.455,0.00010423,0
94.456,0.00011934,0
94.456,0.00012874,0
94.457,0.00012706,0
94.457,0.00011263,0
94.458,9.2821e-05,0
94.458,7.7043e-05,0
94.459,6.4622e-05,0
94.46,4.7837e-05,0
94.46,2.6352e-05,0
94.461,7.5532e-06,0
94.461,0,0
94.462,3.0213e-06,0
94.462,6.2104e-06,0
94.463,2.182e-06,0
94.463,-4.1962e-06,0
94.464,-5.0355e-06,0
94.464,-1.5106e-06,0
94.465,8.3925e-07,0
94.465,1.1749e-06,0
94.466,2.5177e-06,0
94.466,8.3925e-06,0
94.467,1.9806e-05,0
94.467,2.9038e-05,0
94.468,3.0884e-05,0
94.468,2.6688e-05,0
94.469,2.1317e-05,0
94.469,1.6953e-05,0
94.47,1.3092e-05,0
94.47,9.5674e-06,0
94.471,3.0213e-06,0
94.471,-5.2033e-06,0
94.472,-1.5946e-05,0
94.472,-3.0884e-05,0
94.473,-4.9516e-05,0
94.474,-6.5965e-05,0
94.474,-7.3014e-05,0
94.475,-6.9154e-05,0
94.475,-6.0929e-05,0
94.476,-5.623e-05,0
94.476,-5.4383e-05,0
94.477,-4.8844e-05,0
94.477,-3.5752e-05,0
94.478,-1.5274e-05,0
94.478,1.0071e-05,0
94.479,3.0549e-05,0
94.479,3.8773e-05,0
94.48,3.4409e-05,0
94.48,1.1917e-05,0
94.481,-2.8367e-05,0
94.481,-6.9154e-05,0
94.482,-9.5171e-05,0
94.482,-0.00010289,0
94.483,-9.752e-05,0
94.483,-8.6107e-05,0
94.484,-7.0329e-05,0
94.484,-5.5055e-05,0
94.485,-3.4409e-05,0
94.485,-6.714e-06,0
94.486,1.7288e-05,0
94.487,3.2898e-05,0
94.487,4.8844e-05,0
94.488,7.6707e-05,0
94.488,0.00012555,0
94.489,0.00018782,0
94.489,0.00024036,0
94.49,0.00026738,0
94.49,0.00027544,0
94.491,0.00028081,0
94.491,0.0002835,0
94.492,0.00026302,0
94.492,0.00021132,0
94.493,0.0001415,0
94.493,6.865e-05,0
94.494,-1.6785e-07,0
94.494,-5.4719e-05,0
94.495,-8.4932e-05,0
94.495,-9.1142e-05,0
94.496,-7.9896e-05,0
94.496,-6.63e-05,0
94.497,-5.0355e-05,0
94.497,-2.7024e-05,0
94.498,1.1246e-05,0
94.498,7.8386e-05,0
94.499,0.00015727,0
94.499,0.00020562,0
94.5,0.00021636,0
94.501,0.00022341,0
94.501,0.00023885,0
94.502,0.00025362,0
94.502,0.00026033,0
94.503,0.00025765,0
94.503,0.00024556,0
94.504,0.00022206,0
94.504,0.00019689,0
94.505,0.00017171,0
94.505,0.00013814,0
94.506,9.1478e-05,0
94.506,3.8605e-05,0
94.507,-9.2317e-06,0
94.507,-5.1362e-05,0
94.508,-9.4835e-05,0
94.508,-0.00014368,0
94.509,-0.00019168,0
94.509,-0.00023163,0
94.51,-0.00027007,0
94.51,-0.00030431,0
94.511,-0.00031405,0
94.511,-0.00028551,0
94.512,-0.00023835,0
94.512,-0.00018816,0
94.513,-0.00012874,0
94.513,-5.8747e-05,0
94.514,6.5461e-06,0
94.515,5.2201e-05,0
94.515,7.1e-05,0
94.516,7.3518e-05,0
94.516,7.4189e-05,0
94.517,7.6707e-05,0
94.517,7.3686e-05,0
94.518,5.5558e-05,0
94.518,2.9206e-05,0
94.519,5.2033e-06,0
94.519,-1.4939e-05,0
94.52,-3.5416e-05,0
94.52,-5.2369e-05,0
94.521,-5.623e-05,0
94.521,-4.6159e-05,0
94.522,-2.7359e-05,0
94.522,-3.0213e-06,0
94.523,1.8967e-05,0
94.523,2.7863e-05,0
94.524,2.0981e-05,0
94.524,6.8818e-06,0
94.525,-1.0407e-05,0
94.525,-2.4338e-05,0
94.526,-3.1388e-05,0
94.526,-2.9709e-05,0
94.527,-1.9638e-05,0
94.528,-5.2033e-06,0
94.528,1.1246e-05,0
94.529,3.2563e-05,0
94.529,6.1265e-05,0
94.53,9.3492e-05,0
94.53,0.00011263,0
94.531,0.00011246,0
94.531,0.00010692,0
94.532,0.00010172,0
94.532,8.6275e-05,0
94.533,6.0258e-05,0
94.533,3.3738e-05,0
94.534,1.561e-05,0
94.534,7.5532e-06,0
94.535,8.7282e-06,0
94.535,1.7288e-05,0
94.536,2.652e-05,0
94.536,3.4745e-05,0
94.537,4.2298e-05,0
94.537,4.683e-05,0
94.538,4.683e-05,0
94.538,4.683e-05,0
94.539,4.7166e-05,0
94.539,4.213e-05,0
94.54,3.3738e-05,0
94.54,3.0045e-05,0
94.541,3.2059e-05,0
94.542,3.3402e-05,0
94.542,2.5177e-05,0
94.543,7.2175e-06,0
94.543,-1.8967e-05,0
94.544,-5.388e-05,0
94.544,-8.6107e-05,0
94.545,-0.00011028,0
94.545,-0.00013982,0
94.546,-0.00017993,0
94.546,-0.00021686,0
94.547,-0.00023684,0
94.547,-0.0002407,0
94.548,-0.00023751,0
94.548,-0.00022676,0
94.549,-0.00020024,0
94.549,-0.00015056,0
94.55,-8.426e-05,0
94.55,-1.8631e-05,0
94.551,3.8102e-05,0
94.551,9.2821e-05,0
94.552,0.00014519,0
94.552,0.00019152,0
94.553,0.00023532,0
94.553,0.00028048,0
94.554,0.00031707,0
94.555,0.00033117,0
94.555,0.00032076,0
94.556,0.00029928,0
94.556,0.00028048,0
94.557,0.00027175,0
94.557,0.0002751,0
94.558,0.00028115,0
94.558,0.00028215,0
94.559,0.00027175,0
94.559,0.00024691,0
94.56,0.0002083,0
94.56,0.00015543,0
94.561,9.8863e-05,0
94.561,5.0355e-05,0
94.562,1.8967e-05,0
94.562,2.8534e-06,0
94.563,-5.8747e-06,0
94.563,-1.2924e-05,0
94.564,-2.1653e-05,0
94.564,-3.4409e-05,0
94.565,-4.9516e-05,0
94.565,-6.3951e-05,0
94.566,-7.9393e-05,0
94.566,-9.7353e-05,0
94.567,-0.00011632,0
94.567,-0.0001373,0
94.568,-0.00015593,0
94.569,-0.00016248,0
94.569,-0.00015543,0
94.57,-0.00014083,0
94.57,-0.00012824,0
94.571,-0.00012068,0
94.571,-0.00011565,0
94.572,-0.00010944,0
94.572,-9.8863e-05,0
94.573,-8.9464e-05,0
94.573,-9.3156e-05,0
94.574,-0.00010961,0
94.574,-0.00012874,0
94.575,-0.00013831,0
94.575,-0.00014133,0
94.576,-0.00013411,0
94.576,-0.00011666,0
94.577,-8.9464e-05,0
94.577,-4.8508e-05,0
94.578,4.8676e-06,0
94.578,6.3951e-05,0
94.579,0.00012773,0
94.579,0.00018967,0
94.58,0.00024254,0
94.58,0.00027645,0
94.581,0.00027578,0
94.582,0.00022744,0
94.582,0.0001368,0
94.583,3.2059e-05,0
94.583,-5.1026e-05,0
94.584,-9.1478e-05,0
94.584,-0.00010222,0
94.585,-0.00010793,0
94.585,-0.00012001,0
94.586,-0.00013613,0
94.586,-0.00013529,0
94.587,-0.00010021,0
94.587,-6.7308e-05,0
94.588,-7.3182e-05,0
94.588,-9.752e-05,0
94.589,-8.6275e-05,0
94.589,-1.9974e-05,0
94.59,7.335e-05,0
94.59,0.00016281,0
94.591,0.00023868,0
94.591,0.00029978,0
94.592,0.00034476,0
94.592,0.00037279,0
94.593,0.0003832,0
94.593,0.00038253,0
94.594,0.00038119,0
94.594,0.0003691,0
94.595,0.00032747,0
94.596,0.00026487,0
94.596,0.00020461,0
94.597,0.00015811,0
94.597,0.00012337,0
94.598,9.4835e-05,0
94.598,7.3686e-05,0
94.599,6.0929e-05,0
94.599,4.8844e-05,0
94.6,2.9709e-05,0
94.6,3.8605e-06,0
94.601,-2.1988e-05,0
94.601,-4.3473e-05,0
94.602,-6.009e-05,0
94.602,-7.4357e-05,0
94.603,-8.6107e-05,0
94.603,-9.1814e-05,0
94.604,-9.3156e-05,0
94.604,-9.4835e-05,0
94.605,-9.8527e-05,0
94.605,-0.00010323,0
94.606,-0.00010675,0
94.606,-0.00010776,0
94.607,-0.00010541,0
94.607,-0.00010306,0
94.608,-0.00010323,0
94.609,-0.00010373,0
94.609,-0.00010272,0
94.61,-9.8527e-05,0
94.61,-9.2149e-05,0
94.611,-8.4764e-05,0
94.611,-7.8889e-05,0
94.612,-7.7379e-05,0
94.612,-7.8889e-05,0
94.613,-7.805e-05,0
94.613,-7.335e-05,0
94.614,-6.7643e-05,0
94.614,-6.2272e-05,0
94.615,-5.5894e-05,0
94.615,-4.7837e-05,0
94.616,-3.6759e-05,0
94.616,-2.501e-05,0
94.617,-1.6281e-05,0
94.617,-1.091e-05,0
94.618,-8.896e-06,0
94.618,-4.6998e-06,0
94.619,2.5177e-06,0
94.619,7.5532e-06,0
94.62,6.8818e-06,0
94.62,1.6785e-06,0
94.621,-9.5674e-06,0
94.621,-2.6688e-05,0
94.622,-4.1123e-05,0
94.623,-4.3641e-05,0
94.623,-3.4409e-05,0
94.624,-2.3499e-05,0
94.624,-1.6449e-05,0
94.625,-1.1582e-05,0
94.625,-6.2104e-06,0
94.626,4.5319e-06,0
94.626,2.3331e-05,0
94.627,5.3544e-05,0
94.627,9.3324e-05,0
94.628,0.00013176,0
94.628,0.00015962,0
94.629,0.0001744,0
94.629,0.00017473,0
94.63,0.00015895,0
94.63,0.00012605,0
94.631,8.7114e-05,0
94.631,5.7069e-05,0
94.632,3.827e-05,0
94.632,2.7024e-05,0
94.633,2.3331e-05,0
94.633,2.4338e-05,0
94.634,2.182e-05,0
94.634,1.091e-05,0
94.635,8.3925e-07,0
94.636,-2.8534e-06,0
94.636,1.0071e-06,0
94.637,8.5603e-06,0
94.637,1.3596e-05,0
94.638,2.1317e-05,0
94.638,3.2731e-05,0
94.639,4.2802e-05,0
94.639,5.0019e-05,0
94.64,5.623e-05,0
94.64,6.5629e-05,0
94.641,8.04e-05,0
94.641,8.9464e-05,0
94.642,7.8386e-05,0
94.642,4.8005e-05,0
94.643,1.4603e-05,0
94.643,-4.8676e-06,0
94.644,-9.2317e-06,0
94.644,-6.8818e-06,0
94.645,-2.8534e-06,0
94.645,2.5177e-06,0
94.646,3.1891e-06,0
94.646,8.3925e-07,0
94.647,4.3641e-06,0
94.647,1.9303e-05,0
94.648,2.9709e-05,0
94.648,2.0645e-05,0
94.649,5.2033e-06,0
94.65,-5.2033e-06,0
94.65,-5.0355e-06,0
94.651,1.1414e-05,0
94.651,4.1794e-05,0
94.652,7.9728e-05,0
94.652,0.00012068,0
94.653,0.00015946,0
94.653,0.0001848,0
94.654,0.00019454,0
94.654,0.00019689,0
94.655,0.00018984,0
94.655,0.00016567,0
94.656,0.00012773,0
94.656,8.4428e-05,0
94.657,3.7263e-05,0
94.657,-1.9303e-05,0
94.658,-9.1814e-05,0
94.658,-0.00018279,0
94.659,-0.00026688,0
94.659,-0.00031791,0
94.66,-0.00033452,0
94.66,-0.0003216,0
94.661,-0.00027695,0
94.661,-0.00020125,0
94.662,-0.00010726,0
94.663,-2.1653e-05,0
94.663,2.3331e-05,0
94.664,4.0787e-05,0
94.664,6.2608e-05,0
94.665,9.9535e-05,0
94.665,0.00014418,0
94.666,0.00018917,0
94.666,0.00022643,0
94.667,0.00025328,0
94.667,0.00026738,0
94.668,0.00027007,0
94.668,0.00026839,0
94.669,0.00027225,0
94.669,0.0002798,0
94.67,0.00028669,0
94.67,0.00028853,0
94.671,0.00027376,0
94.671,0.00023532,0
94.672,0.00018077,0
94.672,0.00012538,0
94.673,7.57e-05,0
94.673,3.1724e-05,0
94.674,-6.3783e-06,0
94.674,-4.062e-05,0
94.675,-6.9993e-05,0
94.675,-9.2149e-05,0
94.676,-0.00010625,0
94.677,-0.00011514,0
94.677,-0.00012303,0
94.678,-0.00013378,0
94.678,-0.00015258,0
94.679,-0.00017742,0
94.679,-0.00019135,0
94.68,-0.00018849,0
94.68,-0.00017809,0
94.681,-0.00016667,0
94.681,-0.00015509,0
94.682,-0.00014267,0
94.682,-0.00013243,0
94.683,-0.00012387,0
94.683,-0.00010893,0
94.684,-8.4764e-05,0
94.684,-5.3376e-05,0
94.685,-1.9135e-05,0
94.685,1.5274e-05,0
94.686,4.4648e-05,0
94.686,6.5965e-05,0
94.687,8.0735e-05,0
94.687,9.366e-05,0
94.688,0.00010558,0
94.688,0.0001086,0
94.689,0.00010138,0
94.69,8.7785e-05,0
94.69,6.7308e-05,0
94.691,4.3809e-05,0
94.691,2.3331e-05,0
94.692,3.1891e-06,0
94.692,-1.9806e-05,0
94.693,-3.8102e-05,0
94.693,-4.5319e-05,0
94.694,-5.0187e-05,0
94.694,-6.2943e-05,0
94.695,-8.3421e-05,0
94.695,-0.00010155,0
94.696,-0.00010944,0
94.696,-0.00010272,0
94.697,-7.2343e-05,0
94.697,-2.0981e-05,0
94.698,3.5416e-05,0
94.698,7.3014e-05,0
94.699,8.6275e-05,0
94.699,9.7185e-05,0
94.7,0.00011565,0
94.7,0.00012572,0
94.701,0.00011196,0
94.701,8.275e-05,0
94.702,5.6901e-05,0
94.703,3.8605e-05,0
94.703,2.2324e-05,0
94.704,8.896e-06,0
94.704,6.0426e-06,0
94.705,1.4939e-05,0
94.705,3.0045e-05,0
94.706,4.7501e-05,0
94.706,6.5629e-05,0
94.707,8.1071e-05,0
94.707,9.3324e-05,0
94.708,0.00010524,0
94.708,0.00011649,0
94.709,0.00012068,0
94.709,0.00011649,0
94.71,0.00010658,0
94.71,9.4835e-05,0
94.711,8.1407e-05,0
94.711,6.5965e-05,0
94.712,5.5558e-05,0
94.712,5.2033e-05,0
94.713,4.683e-05,0
94.713,3.4745e-05,0
94.714,1.5946e-05,0
94.714,-4.8676e-06,0
94.715,-1.9303e-05,0
94.715,-2.5345e-05,0
94.716,-2.5513e-05,0
94.717,-2.2324e-05,0
94.717,-1.3931e-05,0
94.718,-3.5248e-06,0
94.718,5.0355e-07,0
94.719,5.0355e-07,0
94.719,6.0426e-06,0
94.72,1.9303e-05,0
94.72,3.3402e-05,0
94.721,3.8605e-05,0
94.721,2.6184e-05,0
94.722,-9.3996e-06,0
94.722,-5.304e-05,0
94.723,-8.3085e-05,0
94.723,-9.6681e-05,0
94.724,-0.00010054,0
94.724,-9.6849e-05,0
94.725,-8.6778e-05,0
94.725,-7.6371e-05,0
94.726,-6.0258e-05,0
94.726,-3.0884e-05,0
94.727,4.8676e-06,0
94.727,3.592e-05,0
94.728,5.623e-05,0
94.728,6.9322e-05,0
94.729,8.1071e-05,0
94.73,9.2149e-05,0
94.73,9.7856e-05,0
94.731,9.9535e-05,0
94.731,9.752e-05,0
94.732,8.6442e-05,0
94.732,6.9657e-05,0
94.733,5.623e-05,0
94.733,4.8173e-05,0
94.734,4.8173e-05,0
94.734,4.918e-05,0
94.735,4.3977e-05,0
94.735,3.1891e-05,0
94.736,1.1749e-05,0
94.736,-1.2757e-05,0
94.737,-4.0452e-05,0
94.737,-6.3447e-05,0
94.738,-7.8386e-05,0
94.738,-8.5435e-05,0
94.739,-8.2078e-05,0
94.739,-6.2608e-05,0
94.74,-3.1724e-05,0
94.74,1.1749e-06,0
94.741,3.2898e-05,0
94.741,5.9251e-05,0
94.742,7.7211e-05,0
94.742,8.7114e-05,0
94.743,9.8527e-05,0
94.744,0.00011128,0
94.744,0.00011397,0
94.745,0.00010105,0
94.745,7.9393e-05,0
94.746,5.3544e-05,0
94.746,1.2924e-05,0
94.747,-4.7333e-05,0
94.747,-0.00010138,0
94.748,-0.00012538,0
94.748,-0.00012673,0
94.749,-0.000118,0
94.749,-9.6178e-05,0
94.75,-5.9922e-05,0
94.75,-2.0645e-05,0
94.751,9.9031e-06,0
94.751,3.9948e-05,0
94.752,7.0329e-05,0
94.752,9.2149e-05,0
94.753,0.00010574,0
94.753,0.00012404,0
94.754,0.00015157,0
94.754,0.0001697,0
94.755,0.00015291,0
94.755,9.1478e-05,0
94.756,-3.8605e-06,0
94.757,-0.00010625,0
94.757,-0.00018766,0
94.758,-0.00023113,0
94.758,-0.00023432,0
94.759,-0.00020964,0
94.759,-0.0001603,0
94.76,-8.2078e-05,0
94.76,1.091e-05,0
94.761,9.4835e-05,0
94.761,0.0001566,0
94.762,0.00019957,0
94.762,0.00023516,0
94.763,0.00026033,0
94.763,0.0002694,0
94.764,0.00026403,0
94.764,0.00025127,0
94.765,0.00023079,0
94.765,0.00019437,0
94.766,0.00012706,0
94.766,4.2802e-05,0
94.767,-2.4002e-05,0
94.767,-4.7166e-05,0
94.768,-2.7863e-05,0
94.768,1.4771e-05,0
94.769,6.3615e-05,0
94.769,0.00010692,0
94.77,0.00013596,0
94.771,0.00015308,0
94.771,0.0001608,0
94.772,0.00016197,0
94.772,0.00015543,0
94.773,0.00013881,0
94.773,0.00011699,0
94.774,9.2317e-05,0
94.774,6.865e-05,0
94.775,4.6662e-05,0
94.775,2.6352e-05,0
94.776,6.8818e-06,0
94.776,-1.0071e-05,0
94.777,-2.6017e-05,0
94.777,-4.1962e-05,0
94.778,-5.6733e-05,0
94.778,-6.5629e-05,0
94.779,-6.9993e-05,0
94.779,-6.8818e-05,0
94.78,-6.9993e-05,0
94.78,-8.0568e-05,0
94.781,-9.1646e-05,0
94.781,-0.00010222,0
94.782,-0.00011917,0
94.782,-0.00013848,0
94.783,-0.00014989,0
94.784,-0.00014888,0
94.784,-0.00013881,0
94.785,-0.00012052,0
94.785,-9.4331e-05,0
94.786,-6.2943e-05,0
94.786,-3.122e-05,0
94.787,-1.6785e-07,0
94.787,2.3667e-05,0
94.788,3.743e-05,0
94.788,4.7837e-05,0
94.789,5.623e-05,0
94.789,5.9586e-05,0
94.79,6.0426e-05,0
94.79,5.9922e-05,0
94.791,5.4887e-05,0
94.791,4.4816e-05,0
94.792,3.2731e-05,0
94.792,2.0645e-05,0
94.793,1.8463e-06,0
94.793,-2.5681e-05,0
94.794,-4.9348e-05,0
94.794,-5.9754e-05,0
94.795,-6.1433e-05,0
94.795,-5.4551e-05,0
94.796,-3.4241e-05,0
94.796,-1.2253e-05,0
94.797,-1.1749e-06,0
94.798,4.3641e-06,0
94.798,1.4267e-05,0
94.799,3.4241e-05,0
94.799,6.0594e-05,0
94.8,7.8386e-05,0
94.8,8.1239e-05,0
94.801,7.7714e-05,0
94.801,6.479e-05,0
94.802,4.0787e-05,0
94.802,1.5106e-05,0
94.803,-6.3783e-06,0
94.803,-2.8367e-05,0
94.804,-6.0594e-05,0
94.804,-0.00010356,0
94.805,-0.00014351,0
94.805,-0.00016852,0
94.806,-0.00018329,0
94.806,-0.00019236,0
94.807,-0.00019655,0
94.807,-0.00019437,0
94.808,-0.00018144,0
94.808,-0.00016667,0
94.809,-0.00015056,0
94.809,-0.00010658,0
94.81,-2.0981e-05,0
94.811,8.7114e-05,0
94.811,0.00019554,0
94.812,0.0002845,0
94.812,0.00034191,0
94.813,0.00037044,0
94.813,0.00038924,0
94.814,0.00039663,0
94.814,0.00037313,0
94.815,0.00031371,0
94.815,0.00023516,0
94.816,0.00016298,0
94.816,0.00010524,0
94.817,4.8173e-05,0
94.817,-1.3596e-05,0
94.818,-7.5364e-05,0
94.818,-0.00013646,0
94.819,-0.00018346,0
94.819,-0.00020595,0
94.82,-0.0002036,0
94.82,-0.0001749,0
94.821,-0.00011917,0
94.821,-4.7501e-05,0
94.822,2.9709e-05,0
94.822,0.00010893,0
94.823,0.00019118,0
94.823,0.00026604,0
94.824,0.00032663,0
94.825,0.00037749,0
94.825,0.00042147,0
94.826,0.00044329,0
94.826,0.00042885,0
94.827,0.00037951,0
94.827,0.00030733,0
94.828,0.00023012,0
94.828,0.00015962,0
94.829,9.7856e-05,0
94.829,4.3473e-05,0
94.83,2.182e-06,0
94.83,-2.501e-05,0
94.831,-4.4144e-05,0
94.831,-5.9419e-05,0
94.832,-7.2511e-05,0
94.832,-8.4428e-05,0
94.833,-9.366e-05,0
94.833,-9.9199e-05,0
94.834,-0.00010642,0
94.834,-0.00012454,0
94.835,-0.0001556,0
94.835,-0.00019655,0
94.836,-0.00023449,0
94.836,-0.00025362,0
94.837,-0.00025278,0
94.838,-0.00024221,0
94.838,-0.00022962,0
94.839,-0.00021569,0
94.839,-0.00019957,0
94.84,-0.00018312,0
94.84,-0.00016735,0
94.841,-0.00014737,0
94.841,-0.00011464,0
94.842,-7.3854e-05,0
94.842,-3.2731e-05,0
94.843,1.5106e-06,0
94.843,3.2563e-05,0
94.844,6.0426e-05,0
94.844,8.04e-05,0
94.845,9.5338e-05,0
94.845,0.00011061,0
94.846,0.00012975,0
94.846,0.00014653,0
94.847,0.00015694,0
94.847,0.00016399,0
94.848,0.00016953,0
94.848,0.0001697,0
94.849,0.00015106,0
94.849,0.00011917,0
94.85,9.7017e-05,0
94.85,7.9057e-05,0
94.851,5.3544e-05,0
94.852,2.4674e-05,0
94.852,-2.8534e-06,0
94.853,-2.7192e-05,0
94.853,-4.5823e-05,0
94.854,-5.539e-05,0
94.854,-5.9419e-05,0
94.855,-6.7643e-05,0
94.855,-9.2988e-05,0
94.856,-0.00012924,0
94.856,-0.00016483,0
94.857,-0.00019219,0
94.857,-0.0002177,0
94.858,-0.00024942,0
94.858,-0.00028602,0
94.859,-0.00032311,0
94.859,-0.00034073,0
94.86,-0.0003127,0
94.86,-0.00023919,0
94.861,-0.00014133,0
94.861,-4.448e-05,0
94.862,3.6591e-05,0
94.862,0.00011263,0
94.863,0.00018111,0
94.863,0.00022106,0
94.864,0.00025429,0
94.865,0.00030196,0
94.865,0.00034325,0
94.866,0.00034862,0
94.866,0.00032932,0
94.867,0.0003127,0
94.867,0.00029827,0
94.868,0.00026906,0
94.868,0.00023348,0
94.869,0.00021032,0
94.869,0.00020729,0
94.87,0.00021988,0
94.87,0.00024154,0
94.871,0.00026906,0
94.871,0.00029458,0
94.872,0.00030263,0
94.872,0.00028182,0
94.873,0.0002365,0
94.873,0.00017272,0
94.874,0.00010121,0
94.874,3.6591e-05,0
94.875,-1.091e-05,0
94.875,-4.4648e-05,0
94.876,-7.5868e-05,0
94.876,-0.00010323,0
94.877,-0.00012773,0
94.877,-0.0001561,0
94.878,-0.00018195,0
94.879,-0.00018984,0
94.879,-0.00018245,0
94.88,-0.00017876,0
94.88,-0.00018296,0
