28.356,-5.2537e-05,0
28.357,-5.9419e-05,0
28.357,-6.949e-05,0
28.358,-8.2246e-05,0
28.358,-0.00010188,0
28.359,-0.00011733,0
28.359,-0.00010776,0
28.36,-7.3014e-05,0
28.36,-4.062e-05,0
28.361,-2.7695e-05,0
28.361,-2.4338e-05,0
28.362,-1.7624e-05,0
28.362,-5.7069e-06,0
28.363,5.2033e-06,0
28.363,1.2924e-05,0
28.364,2.2492e-05,0
28.365,3.5248e-05,0
28.365,5.0187e-05,0
28.366,6.6972e-05,0
28.366,8.3085e-05,0
28.367,8.8121e-05,0
28.367,8.5603e-05,0
28.368,8.3085e-05,0
28.368,8.4428e-05,0
28.369,9.0135e-05,0
28.369,0.00010054,0
28.37,0.00010961,0
28.37,0.00011783,0
28.371,0.00012605,0
28.371,0.00012874,0
28.372,0.00012522,0
28.372,0.00011531,0
28.373,9.9702e-05,0
28.373,8.04e-05,0
28.374,5.2873e-05,0
28.374,2.501e-05,0
28.375,-5.0355e-07,0
28.375,-2.4506e-05,0
28.376,-4.6326e-05,0
28.376,-6.3111e-05,0
28.377,-7.0161e-05,0
28.378,-8.0735e-05,0
28.378,-9.9535e-05,0
28.379,-0.00010172,0
28.379,-8.0903e-05,0
28.38,-5.8915e-05,0
28.38,-6.8147e-05,0
28.381,-0.00010524,0
28.381,-0.00013025,0
28.382,-0.00012572,0
28.382,-9.987e-05,0
28.383,-6.0929e-05,0
28.383,-1.9303e-05,0
28.384,1.5106e-05,0
28.384,3.8437e-05,0
28.385,4.8173e-05,0
28.385,5.304e-05,0
28.386,5.7237e-05,0
28.386,6.2608e-05,0
28.387,7.3518e-05,0
28.387,9.1142e-05,0
28.388,0.00011061,0
28.388,0.00012807,0
28.389,0.00014049,0
28.389,0.00014888,0
28.39,0.00015023,0
28.39,0.0001556,0
28.391,0.00017238,0
28.392,0.00019252,0
28.392,0.00020662,0
28.393,0.00019521,0
28.393,0.0001472,0
28.394,8.3589e-05,0
28.394,2.8534e-05,0
28.395,-1.8463e-05,0
28.395,-5.8915e-05,0
28.396,-8.0735e-05,0
28.396,-8.7785e-05,0
28.397,-0.00011162,0
28.397,-0.00017003,0
28.398,-0.00024254,0
28.398,-0.00029357,0
28.399,-0.00029877,0
28.399,-0.00025698,0
28.4,-0.00019017,0
28.4,-0.0001237,0
28.401,-6.3279e-05,0
28.401,-1.1414e-05,0
28.402,2.1317e-05,0
28.402,3.3906e-05,0
28.403,3.6088e-05,0
28.403,3.592e-05,0
28.404,3.8773e-05,0
28.405,4.5151e-05,0
28.405,5.1865e-05,0
28.406,5.4887e-05,0
28.406,5.4719e-05,0
28.407,5.4887e-05,0
28.407,5.8579e-05,0
28.408,6.3783e-05,0
28.408,6.714e-05,0
28.409,6.7475e-05,0
28.409,6.8147e-05,0
28.41,7.3686e-05,0
28.41,8.04e-05,0
28.411,8.4092e-05,0
28.411,8.51e-05,0
28.412,8.4596e-05,0
28.412,8.2414e-05,0
28.413,8.1407e-05,0
28.413,8.2246e-05,0
28.414,8.1743e-05,0
28.414,8.2414e-05,0
28.415,8.0735e-05,0
28.415,7.5029e-05,0
28.416,6.5293e-05,0
28.416,5.2201e-05,0
28.417,4.2802e-05,0
28.418,4.1291e-05,0
28.418,4.6662e-05,0
28.419,5.3544e-05,0
28.419,5.2201e-05,0
28.42,4.213e-05,0
28.42,2.5849e-05,0
28.421,-4.3641e-06,0
28.421,-4.3809e-05,0
28.422,-6.1601e-05,0
28.422,-5.0019e-05,0
28.423,-2.7024e-05,0
28.423,-1.2589e-05,0
28.424,-9.2317e-06,0
28.424,-3.357e-06,0
28.425,1.2924e-05,0
28.425,2.8702e-05,0
28.426,4.2802e-05,0
28.426,6.5293e-05,0
28.427,8.8624e-05,0
28.427,9.5171e-05,0
28.428,8.2414e-05,0
28.428,5.8412e-05,0
28.429,3.4241e-05,0
28.429,2.1317e-05,0
28.43,1.6449e-05,0
28.43,1.0575e-05,0
28.431,5.8747e-06,0
28.432,9.3996e-06,0
28.432,2.2324e-05,0
28.433,3.508e-05,0
28.433,3.978e-05,0
28.434,4.213e-05,0
28.434,4.4816e-05,0
28.435,4.8676e-05,0
28.435,6.0258e-05,0
28.436,8.2918e-05,0
28.436,0.00011565,0
28.437,0.00015459,0
28.437,0.00018363,0
28.438,0.00019118,0
28.438,0.00018312,0
28.439,0.00016802,0
28.439,0.0001462,0
28.44,0.000118,0
28.44,9.0806e-05,0
28.441,6.1097e-05,0
28.441,8.896e-06,0
28.442,-7.805e-05,0
28.442,-0.00018195,0
28.443,-0.00026554,0
28.443,-0.0002981,0
28.444,-0.00026638,0
28.445,-0.00019387,0
28.445,-0.00013227,0
28.446,-0.00010289,0
28.446,-9.0639e-05,0
28.447,-9.1646e-05,0
28.447,-0.00010289,0
28.448,-0.0001091,0
28.448,-9.6849e-05,0
28.449,-7.4525e-05,0
28.449,-6.1936e-05,0
28.45,-5.9586e-05,0
28.45,-4.3809e-05,0
28.451,-1.2924e-05,0
28.451,6.5461e-06,0
28.452,7.7211e-06,0
28.452,6.8818e-06,0
28.453,1.1414e-05,0
28.453,1.8967e-05,0
28.454,2.6688e-05,0
28.454,3.4073e-05,0
28.455,3.9948e-05,0
28.455,4.6494e-05,0
28.456,5.9754e-05,0
28.456,7.9057e-05,0
28.457,0.00010172,0
28.457,0.00012387,0
28.458,0.00014217,0
28.459,0.00015358,0
28.459,0.00016281,0
28.46,0.00017288,0
28.46,0.00017826,0
28.461,0.00017675,0
28.461,0.0001702,0
28.462,0.00015526,0
28.462,0.00013378,0
28.463,0.00010054,0
28.463,5.304e-05,0
28.464,6.2104e-06,0
28.464,-3.0716e-05,0
28.465,-6.0594e-05,0
28.465,-8.9128e-05,0
28.466,-0.00011968,0
28.466,-0.0001378,0
28.467,-0.00013562,0
28.467,-0.00012605,0
28.468,-0.00011917,0
28.468,-0.00011514,0
28.469,-0.00010256,0
28.469,-7.5364e-05,0
28.47,-4.213e-05,0
28.47,-1.8463e-05,0
28.471,-2.6856e-06,0
28.471,1.6617e-05,0
28.472,3.8773e-05,0
28.473,5.7572e-05,0
28.473,6.9657e-05,0
28.474,7.6707e-05,0
28.474,8.7449e-05,0
28.475,0.00010491,0
28.475,0.000118,0
28.476,0.00012605,0
28.476,0.00013042,0
28.477,0.00012404,0
28.477,0.00010323,0
28.478,6.7811e-05,0
28.478,2.4842e-05,0
28.479,-9.7353e-06,0
28.479,-2.5345e-05,0
28.48,-2.8031e-05,0
28.48,-3.2731e-05,0
28.481,-4.5823e-05,0
28.481,-5.9083e-05,0
28.482,-6.4622e-05,0
28.482,-7.4357e-05,0
28.483,-9.0806e-05,0
28.483,-8.3757e-05,0
28.484,-2.1653e-05,0
28.484,7.7714e-05,0
28.485,0.00017137,0
28.486,0.00022072,0
28.486,0.00021602,0
28.487,0.00017893,0
28.487,0.00014015,0
28.488,0.00010961,0
28.488,7.5029e-05,0
28.489,3.1388e-05,0
28.489,-8.2246e-06,0
28.49,-3.2731e-05,0
28.49,-4.3137e-05,0
28.491,-4.2298e-05,0
28.491,-3.9277e-05,0
28.492,-4.3641e-05,0
28.492,-4.9851e-05,0
28.493,-4.6159e-05,0
28.493,-3.3738e-05,0
28.494,-1.8799e-05,0
28.494,4.3641e-06,0
28.495,3.7766e-05,0
28.495,6.2943e-05,0
28.496,6.4958e-05,0
28.496,5.4551e-05,0
28.497,4.7837e-05,0
28.497,5.3544e-05,0
28.498,6.1601e-05,0
28.498,6.5629e-05,0
28.499,6.8147e-05,0
28.5,6.5629e-05,0
28.5,5.4215e-05,0
28.501,3.5416e-05,0
28.501,9.5674e-06,0
28.502,-1.4939e-05,0
28.502,-2.5681e-05,0
28.503,-2.1653e-05,0
28.503,-1.561e-05,0
28.504,-1.3931e-05,0
28.504,-8.896e-06,0
28.505,-3.6927e-06,0
28.505,-5.2033e-06,0
28.506,-6.2104e-06,0
28.506,-4.1962e-06,0
28.507,-2.3499e-06,0
28.507,1.0071e-06,0
28.508,1.9303e-05,0
28.508,4.8173e-05,0
28.509,6.4286e-05,0
28.509,5.5558e-05,0
28.51,3.4745e-05,0
28.51,2.6184e-05,0
28.511,4.0116e-05,0
28.511,6.4286e-05,0
28.512,7.7379e-05,0
28.513,6.9993e-05,0
28.513,5.1865e-05,0
28.514,3.8941e-05,0
28.514,3.3738e-05,0
28.515,3.4073e-05,0
28.515,3.2059e-05,0
28.516,2.9206e-05,0
28.516,3.0381e-05,0
28.517,3.5248e-05,0
28.517,3.978e-05,0
28.518,4.0284e-05,0
28.518,3.5416e-05,0
28.519,3.4745e-05,0
28.519,4.2634e-05,0
28.52,5.1698e-05,0
28.52,5.3544e-05,0
28.521,5.1194e-05,0
28.521,4.683e-05,0
28.522,3.9109e-05,0
28.522,2.2828e-05,0
28.523,-8.3925e-07,0
28.523,-2.8199e-05,0
28.524,-4.9851e-05,0
28.524,-6.009e-05,0
28.525,-6.2104e-05,0
28.526,-6.2272e-05,0
28.526,-6.5293e-05,0
28.527,-6.6972e-05,0
28.527,-5.8579e-05,0
28.528,-4.0452e-05,0
28.528,-2.0478e-05,0
28.529,-7.5532e-06,0
28.529,1.1749e-06,0
28.53,7.8889e-06,0
28.53,3.1891e-06,0
28.531,-6.5461e-06,0
28.531,-1.1078e-05,0
28.532,-1.1582e-05,0
28.532,-9.2317e-06,0
28.533,-3.1891e-06,0
28.533,7.7211e-06,0
28.534,2.3835e-05,0
28.534,3.978e-05,0
28.535,5.5558e-05,0
28.535,7.1336e-05,0
28.536,8.7449e-05,0
28.536,0.00010491,0
28.537,0.00011464,0
28.537,0.00010877,0
28.538,9.1814e-05,0
28.538,8.1743e-05,0
28.539,8.51e-05,0
28.54,8.5603e-05,0
28.54,7.57e-05,0
28.541,5.9586e-05,0
28.541,3.7263e-05,0
28.542,1.1414e-05,0
28.542,-2.1317e-05,0
28.543,-6.9322e-05,0
28.543,-0.00011548,0
28.544,-0.0001368,0
28.544,-0.00013243,0
28.545,-0.00011229,0
28.545,-8.4428e-05,0
28.546,-4.918e-05,0
28.546,-1.5106e-05,0
28.547,4.3641e-06,0
28.547,1.3596e-05,0
28.548,1.4939e-05,0
28.548,4.3641e-06,0
28.549,-7.5532e-06,0
28.549,-1.3428e-06,0
28.55,2.3331e-05,0
28.55,4.6159e-05,0
28.551,5.4551e-05,0
28.551,5.069e-05,0
28.552,3.9445e-05,0
28.552,2.9709e-05,0
28.553,3.122e-05,0
28.554,4.0787e-05,0
28.554,4.3809e-05,0
28.555,3.9109e-05,0
28.555,2.8534e-05,0
28.556,1.1749e-05,0
28.556,-9.5674e-06,0
28.557,-3.1052e-05,0
28.557,-4.1794e-05,0
28.558,-2.9709e-05,0
28.558,2.8534e-06,0
28.559,3.5752e-05,0
28.559,5.7237e-05,0
28.56,6.4286e-05,0
28.56,5.5558e-05,0
28.561,4.1459e-05,0
28.561,2.9038e-05,0
28.562,1.3764e-05,0
28.562,-4.3641e-06,0
28.563,-2.3499e-06,0
28.563,3.0381e-05,0
28.564,7.9393e-05,0
28.564,0.00011934,0
28.565,0.00013109,0
28.565,0.00011498,0
28.566,9.1142e-05,0
28.567,7.8721e-05,0
28.567,7.5532e-05,0
28.568,7.3014e-05,0
28.568,6.4958e-05,0
28.569,5.7908e-05,0
28.569,6.0258e-05,0
28.57,6.9993e-05,0
28.57,8.4932e-05,0
28.571,9.4499e-05,0
28.571,8.5603e-05,0
28.572,6.1601e-05,0
28.572,3.3066e-05,0
28.573,9.0639e-06,0
28.573,-5.7069e-06,0
28.574,-1.4603e-05,0
28.574,-1.6281e-05,0
28.575,-9.0639e-06,0
28.575,-4.3641e-06,0
28.576,-9.0639e-06,0
28.576,-1.5106e-05,0
28.577,-1.2253e-05,0
28.577,1.6785e-07,0
28.578,1.2253e-05,0
28.578,1.326e-05,0
28.579,9.2317e-06,0
28.579,9.3996e-06,0
28.58,2.3499e-05,0
28.581,4.448e-05,0
28.581,5.8579e-05,0
28.582,5.8915e-05,0
28.582,5.1865e-05,0
28.583,4.9851e-05,0
28.583,5.2201e-05,0
28.584,5.4887e-05,0
28.584,5.3544e-05,0
28.585,5.2201e-05,0
28.585,5.6733e-05,0
28.586,5.623e-05,0
28.586,4.4312e-05,0
28.587,2.9709e-05,0
28.587,1.9303e-05,0
28.588,1.2589e-05,0
28.588,6.2104e-06,0
28.589,-1.5106e-06,0
28.589,-1.0071e-05,0
28.59,-1.091e-05,0
28.59,3.357e-07,0
28.591,1.4267e-05,0
28.591,1.5442e-05,0
28.592,6.2104e-06,0
28.592,-5.0355e-06,0
28.593,-1.6953e-05,0
28.594,-2.2492e-05,0
28.594,-1.4939e-05,0
28.595,-7.3854e-06,0
28.595,-1.0239e-05,0
28.596,-1.9638e-05,0
28.596,-3.4745e-05,0
28.597,-4.9012e-05,0
28.597,-5.3376e-05,0
28.598,-4.9851e-05,0
28.598,-4.5823e-05,0
28.599,-4.3473e-05,0
28.599,-3.7766e-05,0
28.6,-2.266e-05,0
28.6,3.1891e-06,0
28.601,3.2731e-05,0
28.601,5.1865e-05,0
28.602,5.7572e-05,0
28.602,6.009e-05,0
28.603,6.4958e-05,0
28.603,6.5293e-05,0
28.604,5.1362e-05,0
28.604,2.5177e-05,0
28.605,-3.6927e-06,0
28.605,-2.501e-05,0
28.606,-3.6088e-05,0
28.607,-3.8773e-05,0
28.607,-2.8367e-05,0
28.608,-5.539e-06,0
28.608,1.2757e-05,0
28.609,5.8747e-06,0
28.609,-1.9135e-05,0
28.61,-3.4241e-05,0
28.61,-2.7192e-05,0
28.611,-6.2104e-06,0
28.611,2.0981e-05,0
28.612,4.1794e-05,0
28.612,4.7669e-05,0
28.613,3.508e-05,0
28.613,3.8605e-06,0
28.614,-3.6759e-05,0
28.614,-6.8315e-05,0
28.615,-7.5364e-05,0
28.615,-4.8508e-05,0
28.616,-1.0575e-05,0
28.616,5.8747e-06,0
28.617,-4.1962e-06,0
28.617,-1.4099e-05,0
28.618,3.8605e-06,0
28.618,3.743e-05,0
28.619,5.153e-05,0
28.619,4.1627e-05,0
28.62,3.6759e-05,0
28.621,5.1194e-05,0
28.621,6.7475e-05,0
28.622,7.2175e-05,0
28.622,7.5029e-05,0
28.623,8.6442e-05,0
28.623,9.4163e-05,0
28.624,8.6778e-05,0
28.624,7.4357e-05,0
28.625,6.63e-05,0
28.625,6.3615e-05,0
28.626,6.63e-05,0
28.626,7.4357e-05,0
28.627,8.4932e-05,0
28.627,8.5435e-05,0
28.628,7.2679e-05,0
28.628,6.0761e-05,0
28.629,5.4887e-05,0
28.629,5.0858e-05,0
28.63,4.4144e-05,0
28.63,2.6688e-05,0
28.631,-3.1891e-06,0
28.631,-3.8605e-05,0
28.632,-6.5629e-05,0
28.632,-6.9993e-05,0
28.633,-4.4144e-05,0
28.634,4.8676e-06,0
28.634,6.1936e-05,0
28.635,0.00011112,0
28.635,0.00013948,0
28.636,0.00014553,0
28.636,0.0001321,0
28.637,0.00010306,0
28.637,6.3951e-05,0
28.638,2.0478e-05,0
28.638,-2.1485e-05,0
28.639,-5.3208e-05,0
28.639,-7.335e-05,0
28.64,-8.1407e-05,0
28.64,-8.1071e-05,0
28.641,-7.6707e-05,0
28.641,-6.6636e-05,0
28.642,-4.6662e-05,0
28.642,-1.7456e-05,0
28.643,9.5674e-06,0
28.643,2.3667e-05,0
28.644,2.7192e-05,0
28.644,2.4002e-05,0
28.645,1.7288e-05,0
28.645,1.2253e-05,0
28.646,1.1917e-05,0
28.646,1.091e-05,0
28.647,4.8676e-06,0
28.648,-2.8534e-06,0
28.648,-7.2175e-06,0
28.649,-1.1078e-05,0
28.649,-1.5106e-05,0
28.65,-7.5532e-06,0
28.65,1.3931e-05,0
28.651,4.2802e-05,0
28.651,7.2679e-05,0
28.652,9.5171e-05,0
28.652,0.00010239,0
28.653,0.00010054,0
28.653,9.2821e-05,0
28.654,8.3253e-05,0
28.654,7.3686e-05,0
28.655,6.63e-05,0
28.655,6.3615e-05,0
28.656,6.2943e-05,0
28.656,5.9754e-05,0
28.657,5.3376e-05,0
28.657,4.6494e-05,0
28.658,3.8437e-05,0
28.658,2.9374e-05,0
28.659,2.031e-05,0
28.659,1.2757e-05,0
28.66,8.5603e-06,0
28.66,6.0426e-06,0
28.661,1.1749e-06,0
28.662,-8.896e-06,0
28.662,-2.0981e-05,0
28.663,-2.7192e-05,0
28.663,-2.1653e-05,0
28.664,-5.7069e-06,0
28.664,1.4603e-05,0
28.665,3.6927e-05,0
28.665,5.6565e-05,0
28.666,6.7643e-05,0
28.666,6.9993e-05,0
28.667,6.4286e-05,0
28.667,5.1362e-05,0
28.668,3.743e-05,0
28.668,2.7359e-05,0
28.669,1.9974e-05,0
28.669,7.8889e-06,0
28.67,-1.2253e-05,0
28.67,-3.8605e-05,0
28.671,-5.539e-05,0
28.671,-4.918e-05,0
28.672,-2.031e-05,0
28.672,1.796e-05,0
28.673,5.0523e-05,0
28.673,7.1336e-05,0
28.674,8.51e-05,0
28.675,9.2821e-05,0
28.675,8.9799e-05,0
28.676,7.6371e-05,0
28.676,6.3615e-05,0
28.677,5.8579e-05,0
28.677,4.5991e-05,0
28.678,1.7624e-05,0
28.678,-1.0742e-05,0
28.679,-2.8534e-05,0
28.679,-3.7263e-05,0
28.68,-4.5487e-05,0
28.68,-6.4286e-05,0
28.681,-8.5939e-05,0
28.681,-9.0303e-05,0
28.682,-6.8147e-05,0
28.682,-3.0716e-05,0
28.683,-1.5106e-06,0
28.683,2.8534e-06,0
28.684,-1.2421e-05,0
28.684,-2.9374e-05,0
28.685,-3.3738e-05,0
28.685,-2.4674e-05,0
28.686,-1.7121e-05,0
28.686,-2.3163e-05,0
28.687,-3.5752e-05,0
28.688,-4.0116e-05,0
28.688,-3.8605e-05,0
28.689,-3.4241e-05,0
28.689,-2.6856e-05,0
28.69,-1.5274e-05,0
28.69,4.8676e-06,0
28.691,3.0381e-05,0
28.691,6.009e-05,0
28.692,8.6778e-05,0
28.692,0.00010608,0
28.693,0.00011565,0
28.693,0.00011766,0
28.694,0.00011833,0
28.694,0.00012538,0
28.695,0.00013646,0
28.695,0.00014485,0
28.696,0.00015157,0
28.696,0.00015157,0
28.697,0.00014083,0
28.697,0.00011783,0
28.698,8.5603e-05,0
28.698,5.3208e-05,0
28.699,2.4674e-05,0
28.699,-5.3712e-06,0
28.7,-3.6423e-05,0
28.7,-6.6468e-05,0
28.701,-9.4499e-05,0
28.702,-0.00011733,0
28.702,-0.00012941,0
28.703,-0.0001274,0
28.703,-0.00011867,0
28.704,-0.00010692,0
28.704,-9.9702e-05,0
28.705,-9.4331e-05,0
28.705,-7.9393e-05,0
28.706,-4.9348e-05,0
28.706,-9.2317e-06,0
28.707,3.6759e-05,0
28.707,7.6371e-05,0
28.708,0.00010323,0
28.708,0.00011246,0
28.709,9.7353e-05,0
28.709,6.5965e-05,0
28.71,3.7095e-05,0
28.71,2.5849e-05,0
28.711,3.1388e-05,0
28.711,4.0787e-05,0
28.712,4.9348e-05,0
28.712,5.7908e-05,0
28.713,7.1e-05,0
28.713,8.9632e-05,0
28.714,0.0001086,0
28.715,0.0001237,0
28.715,0.0001279,0
28.716,0.00011666,0
28.716,9.1478e-05,0
28.717,6.0761e-05,0
28.717,4.0955e-05,0
28.718,2.8702e-05,0
28.718,9.5674e-06,0
28.719,-1.6953e-05,0
28.719,-3.2563e-05,0
28.72,-1.7288e-05,0
28.72,1.5274e-05,0
28.721,2.7863e-05,0
28.721,2.0478e-05,0
28.722,1.6953e-05,0
28.722,2.5177e-05,0
28.723,3.9109e-05,0
28.723,4.448e-05,0
28.724,3.3738e-05,0
28.724,5.7069e-06,0
28.725,-3.9109e-05,0
28.725,-8.7449e-05,0
28.726,-0.00011598,0
28.726,-0.00012018,0
28.727,-0.00011246,0
28.727,-0.00010491,0
28.728,-0.00010121,0
28.729,-9.0135e-05,0
28.729,-5.9922e-05,0
28.73,-2.0813e-05,0
28.73,7.8889e-06,0
28.731,2.652e-05,0
28.731,3.978e-05,0
28.732,4.5991e-05,0
28.732,5.0187e-05,0
28.733,5.3376e-05,0
28.733,5.2705e-05,0
28.734,4.5487e-05,0
28.734,4.062e-05,0
28.735,4.4816e-05,0
28.735,4.683e-05,0
28.736,4.1123e-05,0
28.736,3.2731e-05,0
28.737,2.7527e-05,0
28.737,2.8534e-05,0
28.738,3.2059e-05,0
28.738,3.7095e-05,0
28.739,4.213e-05,0
28.739,4.5151e-05,0
28.74,4.5991e-05,0
28.74,4.6662e-05,0
28.741,4.5487e-05,0
28.741,4.3977e-05,0
28.742,4.4816e-05,0
28.743,4.8005e-05,0
28.743,5.2201e-05,0
28.744,5.5558e-05,0
28.744,5.6733e-05,0
28.745,5.4215e-05,0
28.745,5.2033e-05,0
28.746,5.4551e-05,0
28.746,5.623e-05,0
28.747,5.3544e-05,0
28.747,5.1362e-05,0
28.748,5.1194e-05,0
28.748,5.1194e-05,0
28.749,5.3376e-05,0
28.749,5.8747e-05,0
28.75,6.7308e-05,0
28.75,7.5364e-05,0
28.751,8.191e-05,0
28.751,8.3085e-05,0
28.752,8.0064e-05,0
28.752,7.7043e-05,0
28.753,7.3686e-05,0
28.753,6.4622e-05,0
28.754,4.6998e-05,0
28.754,2.4002e-05,0
28.755,-5.0355e-07,0
28.756,-3.2395e-05,0
28.756,-7.1839e-05,0
28.757,-0.00010608,0
28.757,-0.00011951,0
28.758,-0.0001086,0
28.758,-8.661e-05,0
28.759,-6.1936e-05,0
28.759,-4.2298e-05,0
28.76,-3.1388e-05,0
28.76,-1.8631e-05,0
28.761,8.896e-06,0
28.761,4.1459e-05,0
28.762,5.7572e-05,0
28.762,5.3544e-05,0
28.763,4.2802e-05,0
28.763,3.6759e-05,0
28.764,3.7766e-05,0
28.764,4.2634e-05,0
28.765,4.4816e-05,0
28.765,4.3473e-05,0
28.766,4.3137e-05,0
28.766,4.6159e-05,0
28.767,5.0187e-05,0
28.767,5.7572e-05,0
28.768,6.9657e-05,0
28.768,8.3421e-05,0
28.769,9.0135e-05,0
28.77,9.0806e-05,0
28.77,9.6849e-05,0
28.771,0.00010793,0
28.771,0.00011464,0
28.772,0.00010927,0
28.772,9.1814e-05,0
28.773,6.8986e-05,0
28.773,4.683e-05,0
28.774,2.1317e-05,0
28.774,-4.5319e-06,0
28.775,-2.7695e-05,0
28.775,-4.9683e-05,0
28.776,-7.9728e-05,0
28.776,-0.00011733,0
28.777,-0.00015258,0
28.777,-0.0001801,0
28.778,-0.00020024,0
28.778,-0.00020444,0
28.779,-0.0001895,0
28.779,-0.00016533,0
28.78,-0.0001415,0
28.78,-0.00011044,0
28.781,-6.865e-05,0
28.781,-1.9638e-05,0
28.782,2.5849e-05,0
28.783,5.8579e-05,0
28.783,7.8386e-05,0
28.784,8.8457e-05,0
28.784,8.9799e-05,0
28.785,8.6442e-05,0
28.785,8.1743e-05,0
28.786,7.9728e-05,0
28.786,7.7043e-05,0
28.787,7.2511e-05,0
28.787,6.7475e-05,0
28.788,5.8915e-05,0
28.788,4.9516e-05,0
28.789,4.1291e-05,0
28.789,3.2731e-05,0
28.79,2.9877e-05,0
28.79,4.3641e-05,0
28.791,6.5629e-05,0
28.791,7.805e-05,0
28.792,7.3686e-05,0
28.792,6.3783e-05,0
28.793,6.2943e-05,0
28.793,6.9657e-05,0
28.794,7.3518e-05,0
28.794,7.0161e-05,0
28.795,5.9922e-05,0
28.796,4.7669e-05,0
28.796,3.743e-05,0
28.797,3.5416e-05,0
28.797,3.7934e-05,0
28.798,4.1459e-05,0
28.798,4.7669e-05,0
28.799,5.4719e-05,0
28.799,6.2104e-05,0
28.8,6.8315e-05,0
28.8,6.6972e-05,0
28.801,5.6901e-05,0
28.801,3.8437e-05,0
28.802,2.0142e-05,0
28.802,1.5442e-05,0
28.803,2.2492e-05,0
28.803,2.266e-05,0
28.804,1.6449e-05,0
28.804,2.1988e-05,0
28.805,4.0787e-05,0
28.805,5.5894e-05,0
28.806,5.3544e-05,0
28.806,3.0549e-05,0
28.807,-2.182e-06,0
28.807,-2.501e-05,0
28.808,-3.9445e-05,0
28.808,-6.1936e-05,0
28.809,-8.8457e-05,0
28.81,-9.2653e-05,0
28.81,-6.8818e-05,0
28.811,-3.827e-05,0
28.811,-1.6953e-05,0
28.812,-2.0142e-06,0
28.812,1.4267e-05,0
28.813,3.1052e-05,0
28.813,5.1194e-05,0
28.814,6.5965e-05,0
28.814,6.4286e-05,0
28.815,5.4383e-05,0
28.815,4.4816e-05,0
28.816,3.508e-05,0
28.816,1.8631e-05,0
28.817,-5.0355e-06,0
28.817,-2.652e-05,0
28.818,-3.4577e-05,0
28.818,-3.2059e-05,0
28.819,-3.0716e-05,0
28.819,-3.3738e-05,0
28.82,-3.592e-05,0
28.82,-3.2395e-05,0
28.821,-2.3331e-05,0
28.821,-1.091e-05,0
28.822,1.6785e-07,0
28.823,8.3925e-06,0
28.823,9.2317e-06,0
28.824,6.3783e-06,0
28.824,1.0575e-05,0
28.825,2.0981e-05,0
28.825,3.4073e-05,0
28.826,4.8844e-05,0
28.826,6.1936e-05,0
28.827,7.7379e-05,0
28.827,9.1478e-05,0
28.828,9.9199e-05,0
28.828,9.8192e-05,0
28.829,9.2485e-05,0
28.829,8.7953e-05,0
28.83,8.8289e-05,0
28.83,8.6442e-05,0
28.831,7.4693e-05,0
28.831,5.9922e-05,0
28.832,4.8173e-05,0
28.832,4.5151e-05,0
28.833,4.6662e-05,0
28.833,4.5991e-05,0
28.834,4.6494e-05,0
28.834,4.9516e-05,0
28.835,4.683e-05,0
28.835,3.0045e-05,0
28.836,2.182e-06,0
28.837,-1.8799e-05,0
28.837,-1.7792e-05,0
28.838,-4.5319e-06,0
28.838,1.1749e-06,0
28.839,-4.1962e-06,0
28.839,-2.1653e-05,0
28.84,-4.9516e-05,0
28.84,-7.7379e-05,0
28.841,-9.2485e-05,0
28.841,-8.5435e-05,0
28.842,-6.1936e-05,0
28.842,-3.6591e-05,0
28.843,-1.2924e-05,0
28.843,3.6927e-06,0
28.844,1.326e-05,0
28.844,1.9135e-05,0
28.845,2.4002e-05,0
28.845,2.8367e-05,0
28.846,2.9038e-05,0
28.846,2.6184e-05,0
28.847,2.3331e-05,0
28.847,2.031e-05,0
28.848,1.326e-05,0
28.848,9.5674e-06,0
28.849,1.9638e-05,0
28.849,4.7333e-05,0
28.85,7.8889e-05,0
28.851,9.4163e-05,0
28.851,8.3757e-05,0
28.852,5.4551e-05,0
28.852,2.9206e-05,0
28.853,2.2156e-05,0
28.853,1.4939e-05,0
28.854,-7.0497e-06,0
28.854,-3.508e-05,0
28.855,-5.2033e-05,0
28.855,-5.1865e-05,0
28.856,-4.062e-05,0
28.856,-2.5681e-05,0
28.857,-1.0071e-05,0
28.857,2.3499e-06,0
28.858,1.1246e-05,0
28.858,2.0142e-05,0
28.859,3.3066e-05,0
28.859,5.0523e-05,0
28.86,6.6133e-05,0
28.86,7.3014e-05,0
28.861,7.6707e-05,0
28.861,8.3085e-05,0
28.862,9.6513e-05,0
28.862,0.0001133,0
28.863,0.00012001,0
28.864,0.00012035,0
28.864,0.00012404,0
28.865,0.00013176,0
28.865,0.000142,0
28.866,0.00015476,0
28.866,0.00015392,0
28.867,0.00012874,0
28.867,9.0135e-05,0
28.868,5.153e-05,0
28.868,1.9974e-05,0
28.869,-5.7069e-06,0
28.869,-3.592e-05,0
28.87,-7.9225e-05,0
28.87,-0.00013193,0
28.871,-0.00018682,0
28.871,-0.0002412,0
28.872,-0.00027813,0
28.872,-0.00027276,0
28.873,-0.00021132,0
28.873,-0.0001039,0
28.874,-4.1962e-06,0
28.874,4.213e-05,0
28.875,4.2634e-05,0
28.875,2.7359e-05,0
28.876,2.0813e-05,0
28.877,2.9206e-05,0
28.877,4.1627e-05,0
28.878,5.0019e-05,0
28.878,5.4383e-05,0
28.879,5.7908e-05,0
28.879,6.2943e-05,0
28.88,6.6972e-05,0
28.88,6.9993e-05,0
28.881,7.1672e-05,0
28.881,7.2679e-05,0
28.882,7.3686e-05,0
28.882,7.3014e-05,0
28.883,6.5965e-05,0
28.883,5.623e-05,0
28.884,4.8173e-05,0
28.884,4.0787e-05,0
28.885,3.2731e-05,0
28.885,2.6352e-05,0
28.886,2.6688e-05,0
28.886,3.6088e-05,0
28.887,4.5487e-05,0
28.887,4.8173e-05,0
28.888,4.6662e-05,0
28.888,4.5319e-05,0
28.889,5.0187e-05,0
28.889,5.539e-05,0
28.89,5.623e-05,0
28.891,5.7237e-05,0
28.891,5.7237e-05,0
28.892,5.4047e-05,0
28.892,4.6494e-05,0
28.893,3.3402e-05,0
28.893,1.561e-05,0
28.894,5.7069e-06,0
28.894,6.3783e-06,0
28.895,7.8889e-06,0
28.895,0,0
28.896,-1.1749e-05,0
28.896,-2.266e-05,0
28.897,-3.1388e-05,0
28.897,-3.1724e-05,0
28.898,-1.9638e-05,0
28.898,6.5461e-06,0
28.899,3.2898e-05,0
28.899,4.683e-05,0
28.9,5.0355e-05,0
28.9,5.2537e-05,0
28.901,4.8844e-05,0
28.901,2.4842e-05,0
28.902,-1.1414e-05,0
28.902,-3.7934e-05,0
28.903,-4.1794e-05,0
28.904,-2.266e-05,0
28.904,2.182e-06,0
28.905,1.1917e-05,0
28.905,6.8818e-06,0
28.906,-6.714e-07,0
28.906,-8.3925e-06,0
28.907,-1.8967e-05,0
28.907,-2.3331e-05,0
28.908,-1.2757e-05,0
28.908,5.8747e-06,0
28.909,2.5345e-05,0
28.909,5.2201e-05,0
28.91,7.9057e-05,0
28.91,9.5171e-05,0
28.911,0.00010423,0
28.911,0.00011196,0
28.912,0.00011531,0
28.912,0.00011363,0
28.913,0.00011179,0
28.913,0.00011464,0
28.914,0.00011128,0
28.914,9.1142e-05,0
28.915,5.7572e-05,0
28.915,1.8967e-05,0
28.916,-2.501e-05,0
28.916,-7.1672e-05,0
28.917,-0.00011565,0
28.918,-0.00015207,0
28.918,-0.00016751,0
28.919,-0.00015039,0
28.919,-0.00011128,0
28.92,-7.805e-05,0
28.92,-5.6733e-05,0
28.921,-3.4241e-05,0
28.921,-8.896e-06,0
28.922,9.2317e-06,0
28.922,1.7288e-05,0
28.923,1.8967e-05,0
28.923,1.2924e-05,0
28.924,5.7069e-06,0
28.924,7.2175e-06,0
28.925,1.5946e-05,0
28.925,2.5849e-05,0
28.926,3.4409e-05,0
28.926,3.7095e-05,0
28.927,3.0716e-05,0
28.927,2.266e-05,0
28.928,1.6617e-05,0
28.928,1.2589e-05,0
28.929,9.2317e-06,0
28.929,9.2317e-06,0
28.93,1.6281e-05,0
28.93,2.8367e-05,0
28.931,4.0116e-05,0
28.932,5.2033e-05,0
28.932,6.2104e-05,0
28.933,6.5293e-05,0
28.933,6.63e-05,0
28.934,6.9657e-05,0
28.934,7.3182e-05,0
28.935,8.04e-05,0
28.935,9.0471e-05,0
28.936,9.5506e-05,0
28.936,9.6849e-05,0
28.937,0.00010658,0
28.937,0.00012236,0
28.938,0.00013411,0
28.938,0.00013848,0
28.939,0.0001415,0
28.939,0.00014687,0
28.94,0.0001467,0
28.94,0.0001274,0
28.941,9.1142e-05,0
28.941,4.7333e-05,0
28.942,-5.8747e-06,0
28.942,-7.3854e-05,0
28.943,-0.00014553,0
28.943,-0.00018682,0
28.944,-0.00018061,0
28.945,-0.0001566,0
28.945,-0.00014871,0
28.946,-0.0001509,0
28.946,-0.00013562,0
28.947,-9.2485e-05,0
28.947,-4.0452e-05,0
28.948,-3.357e-07,0
28.948,2.9374e-05,0
28.949,5.5222e-05,0
28.949,7.335e-05,0
28.95,7.5868e-05,0
28.95,6.5126e-05,0
28.951,5.539e-05,0
28.951,5.5558e-05,0
28.952,6.0761e-05,0
28.952,6.1601e-05,0
28.953,6.009e-05,0
28.953,6.0761e-05,0
28.954,6.1265e-05,0
28.954,6.1601e-05,0
28.955,6.1265e-05,0
28.955,5.6733e-05,0
28.956,4.7501e-05,0
28.956,3.8773e-05,0
28.957,3.0213e-05,0
28.957,2.1317e-05,0
28.958,1.0575e-05,0
28.959,-6.0426e-06,0
28.959,-1.7624e-05,0
28.96,-1.5274e-05,0
28.96,-1.5106e-06,0
28.961,1.3931e-05,0
28.961,2.4842e-05,0
28.962,2.9709e-05,0
28.962,1.9806e-05,0
28.963,-7.5532e-06,0
28.963,-3.3402e-05,0
28.964,-4.8508e-05,0
28.964,-5.4551e-05,0
28.965,-4.8844e-05,0
28.965,-3.0381e-05,0
28.966,-3.1891e-06,0
28.966,3.0045e-05,0
28.967,5.6901e-05,0
28.967,6.5629e-05,0
28.968,6.0929e-05,0
28.968,5.3544e-05,0
28.969,5.1026e-05,0
28.969,5.3544e-05,0
28.97,6.2776e-05,0
28.97,7.0329e-05,0
28.971,6.7308e-05,0
28.972,5.4383e-05,0
28.972,4.1459e-05,0
28.973,3.1388e-05,0
28.973,2.501e-05,0
28.974,2.4002e-05,0
28.974,2.3667e-05,0
28.975,1.9471e-05,0
28.975,1.5106e-05,0
28.976,1.6953e-05,0
28.976,2.1317e-05,0
28.977,2.5681e-05,0
28.977,3.0716e-05,0
28.978,3.5752e-05,0
28.978,4.0116e-05,0
28.979,4.213e-05,0
28.979,4.2802e-05,0
28.98,4.3473e-05,0
28.98,4.6662e-05,0
28.981,5.4887e-05,0
28.981,6.7643e-05,0
28.982,8.4764e-05,0
28.982,9.8527e-05,0
28.983,0.00010088,0
28.983,9.3324e-05,0
28.984,7.9393e-05,0
28.985,6.3279e-05,0
28.985,5.2201e-05,0
28.986,4.8508e-05,0
28.986,3.8437e-05,0
28.987,9.7353e-06,0
28.987,-2.9038e-05,0
28.988,-6.0258e-05,0
28.988,-7.6707e-05,0
28.989,-7.8721e-05,0
28.989,-6.9993e-05,0
28.99,-5.623e-05,0
28.99,-4.9012e-05,0
28.991,-5.539e-05,0
28.991,-7.2007e-05,0
28.992,-9.0806e-05,0
28.992,-0.00010088,0
28.993,-9.5842e-05,0
28.993,-7.2175e-05,0
28.994,-4.0116e-05,0
28.994,-1.2924e-05,0
28.995,-1.8463e-06,0
28.995,-5.0355e-07,0
28.996,7.7211e-06,0
28.996,2.3331e-05,0
28.997,3.8605e-05,0
28.997,5.1698e-05,0
28.998,5.9251e-05,0
28.999,6.0929e-05,0
28.999,5.9586e-05,0
29,5.623e-05,0
29,5.0523e-05,0
29.001,4.5655e-05,0
29.001,3.9612e-05,0
29.002,3.122e-05,0
29.002,2.4674e-05,0
29.003,1.6449e-05,0
29.003,6.3783e-06,0
29.004,-1.8463e-06,0
29.004,-7.8889e-06,0
29.005,-3.5248e-06,0
29.005,1.7288e-05,0
29.006,4.213e-05,0
29.006,5.5894e-05,0
29.007,6.0761e-05,0
29.007,6.7979e-05,0
29.008,8.4764e-05,0
29.008,0.00010692,0
29.009,0.00012102,0
29.009,0.00011598,0
29.01,9.2317e-05,0
29.01,5.5222e-05,0
29.011,1.4603e-05,0
29.012,-1.1917e-05,0
29.012,-1.6617e-05,0
29.013,-2.8534e-06,0
29.013,1.4267e-05,0
29.014,2.1317e-05,0
29.014,1.9135e-05,0
29.015,4.1962e-06,0
29.015,-2.2492e-05,0
29.016,-4.3137e-05,0
29.016,-4.6494e-05,0
29.017,-5.0523e-05,0
29.017,-6.1601e-05,0
29.018,-6.4286e-05,0
29.018,-4.6159e-05,0
29.019,-1.7792e-05,0
29.019,1.1749e-05,0
29.02,4.3977e-05,0
29.02,7.2847e-05,0
29.021,8.7449e-05,0
29.021,8.0903e-05,0
29.022,6.2608e-05,0
29.022,4.5487e-05,0
29.023,2.8534e-05,0
29.023,9.5674e-06,0
29.024,-6.5461e-06,0
29.024,-1.2589e-05,0
29.025,-1.1246e-05,0
29.026,-4.8676e-06,0
29.026,-6.714e-07,0
29.027,-3.5248e-06,0
29.027,-5.0355e-06,0
29.028,5.539e-06,0
29.028,2.6017e-05,0
29.029,4.8508e-05,0
29.029,6.9993e-05,0
29.03,9.2149e-05,0
29.03,0.00011296,0
29.031,0.00012471,0
29.031,0.00012673,0
29.032,0.00012471,0
29.032,0.00012471,0
29.033,0.00012404,0
29.033,0.00012035,0
29.034,0.00011917,0
29.034,0.00011783,0
29.035,9.9199e-05,0
29.035,5.4383e-05,0
29.036,-1.0071e-05,0
29.036,-6.9657e-05,0
29.037,-0.00010138,0
29.037,-0.00011582,0
29.038,-0.00012303,0
29.038,-0.00011632,0
29.039,-9.6345e-05,0
29.04,-7.6539e-05,0
29.04,-7.1839e-05,0
29.041,-8.4764e-05,0
29.041,-0.00010021,0
29.042,-0.00010558,0
29.042,-9.3492e-05,0
29.043,-6.3783e-05,0
29.043,-2.4506e-05,0
29.044,1.7792e-05,0
29.044,6.1265e-05,0
29.045,9.1814e-05,0
29.045,0.00010776,0
29.046,0.00012035,0
29.046,0.00013579,0
29.047,0.00015341,0
29.047,0.00016953,0
29.048,0.00018077,0
29.048,0.00019118,0
29.049,0.00019991,0
29.049,0.0001895,0
29.05,0.00014972,0
29.05,9.752e-05,0
29.051,5.2873e-05,0
29.051,1.6617e-05,0
29.052,-2.3667e-05,0
29.053,-7.1168e-05,0
29.053,-0.00011313,0
29.054,-0.00015459,0
29.054,-0.00021099,0
29.055,-0.00026235,0
29.055,-0.00027695,0
29.056,-0.0002407,0
29.056,-0.00016315,0
29.057,-8.3421e-05,0
29.057,-3.2395e-05,0
29.058,-1.0239e-05,0
29.058,-8.2246e-06,0
29.059,-1.6617e-05,0
29.059,-2.6688e-05,0
29.06,-3.0381e-05,0
29.06,-1.2253e-05,0
29.061,3.1388e-05,0
29.061,7.9393e-05,0
29.062,0.00011682,0
29.062,0.00014267,0
29.063,0.00015895,0
29.063,0.00016667,0
29.064,0.0001697,0
29.064,0.00016567,0
29.065,0.00015157,0
29.066,0.00013545,0
29.066,0.000118,0
29.067,9.1814e-05,0
29.067,4.683e-05,0
29.068,2.0142e-06,0
29.068,-4.3641e-06,0
29.069,2.6688e-05,0
29.069,6.9657e-05,0
29.07,9.7017e-05,0
29.07,0.00010054,0
29.071,8.8792e-05,0
29.071,6.3447e-05,0
29.072,2.5345e-05,0
29.072,-1.2421e-05,0
29.073,-3.4409e-05,0
29.073,-4.1291e-05,0
29.074,-3.9109e-05,0
29.074,-4.7166e-05,0
29.075,-7.2343e-05,0
29.075,-8.8121e-05,0
29.076,-8.7114e-05,0
29.076,-8.0735e-05,0
29.077,-6.5293e-05,0
29.077,-2.8702e-05,0
29.078,2.652e-05,0
29.078,7.805e-05,0
29.079,0.00010239,0
29.08,9.5003e-05,0
29.08,6.6636e-05,0
29.081,3.4577e-05,0
29.081,1.6281e-05,0
29.082,1.9638e-05,0
29.082,3.3402e-05,0
29.083,4.5487e-05,0
29.083,5.4719e-05,0
29.084,6.4286e-05,0
29.084,7.1e-05,0
29.085,7.0665e-05,0
29.085,6.1601e-05,0
29.086,5.0523e-05,0
29.086,4.3641e-05,0
29.087,3.8773e-05,0
29.087,2.501e-05,0
29.088,-8.3925e-07,0
29.088,-3.4073e-05,0
29.089,-6.9154e-05,0
29.089,-9.987e-05,0
29.09,-0.00011263,0
29.09,-9.0135e-05,0
29.091,-3.8437e-05,0
29.091,1.5946e-05,0
29.092,5.4887e-05,0
29.093,7.1839e-05,0
29.093,6.3615e-05,0
29.094,4.2802e-05,0
29.094,3.1388e-05,0
29.095,3.6759e-05,0
29.095,4.8173e-05,0
29.096,5.3544e-05,0
29.096,4.683e-05,0
29.097,3.1388e-05,0
29.097,1.9471e-05,0
29.098,2.031e-05,0
29.098,2.8367e-05,0
29.099,3.5248e-05,0
29.099,4.062e-05,0
29.1,4.6662e-05,0
29.1,5.1194e-05,0
29.101,4.8005e-05,0
29.101,3.6255e-05,0
29.102,2.3667e-05,0
29.102,1.796e-05,0
29.103,1.8799e-05,0
29.103,1.9806e-05,0
29.104,1.6281e-05,0
29.104,1.1917e-05,0
29.105,1.0575e-05,0
29.105,1.0575e-05,0
29.106,1.4099e-05,0
29.107,2.3163e-05,0
29.107,3.743e-05,0
29.108,5.0187e-05,0
29.108,5.7237e-05,0
29.109,6.3279e-05,0
29.109,7.2343e-05,0
29.11,8.4428e-05,0
29.11,9.1478e-05,0
29.111,9.1142e-05,0
29.111,8.5771e-05,0
29.112,8.2246e-05,0
29.112,7.6371e-05,0
29.113,6.4286e-05,0
29.113,4.6326e-05,0
29.114,1.9303e-05,0
29.114,-1.5778e-05,0
29.115,-4.7166e-05,0
29.115,-6.3111e-05,0
29.116,-5.9251e-05,0
29.116,-4.1794e-05,0
29.117,-2.7359e-05,0
29.117,-2.6184e-05,0
29.118,-3.9109e-05,0
29.118,-6.2608e-05,0
29.119,-7.9393e-05,0
29.119,-8.04e-05,0
29.12,-7.1e-05,0
29.121,-6.2943e-05,0
29.121,-5.6901e-05,0
29.122,-5.0187e-05,0
29.122,-4.3137e-05,0
29.123,-4.2466e-05,0
29.123,-5.0523e-05,0
29.124,-5.8915e-05,0
29.124,-5.8747e-05,0
29.125,-4.5151e-05,0
29.125,-2.2156e-05,0
29.126,3.1891e-06,0
29.126,2.6184e-05,0
29.127,4.6662e-05,0
29.127,6.1936e-05,0
29.128,7.4189e-05,0
29.128,8.4764e-05,0
29.129,8.9464e-05,0
29.129,8.4932e-05,0
29.13,7.2343e-05,0
29.13,6.2943e-05,0
29.131,6.5629e-05,0
29.131,7.5364e-05,0
29.132,8.3085e-05,0
29.132,8.7785e-05,0
29.133,9.5674e-05,0
29.134,0.00010692,0
29.134,0.0001086,0
29.135,8.9799e-05,0
29.135,5.9754e-05,0
29.136,4.2802e-05,0
29.136,4.9851e-05,0
29.137,6.3951e-05,0
29.137,6.2608e-05,0
29.138,4.448e-05,0
29.138,3.3234e-05,0
29.139,3.9109e-05,0
29.139,3.978e-05,0
29.14,2.1988e-05,0
29.14,-5.539e-06,0
29.141,-2.8534e-05,0
29.141,-4.2466e-05,0
29.142,-4.7166e-05,0
29.142,-5.1194e-05,0
29.143,-5.5726e-05,0
29.143,-5.2873e-05,0
29.144,-3.6591e-05,0
29.144,-1.4603e-05,0
29.145,3.5248e-06,0
29.145,1.561e-05,0
29.146,2.4674e-05,0
29.146,2.9877e-05,0
29.147,3.0381e-05,0
29.148,2.6688e-05,0
29.148,1.9974e-05,0
29.149,1.4939e-05,0
29.149,1.7792e-05,0
29.15,2.4842e-05,0
29.15,3.1052e-05,0
29.151,3.9109e-05,0
29.151,4.9516e-05,0
29.152,5.8412e-05,0
29.152,6.2272e-05,0
29.153,6.1936e-05,0
29.153,6.0426e-05,0
29.154,6.0761e-05,0
29.154,6.1601e-05,0
29.155,5.9251e-05,0
29.155,4.9851e-05,0
29.156,3.8941e-05,0
29.156,3.1891e-05,0
29.157,2.7359e-05,0
29.157,2.1988e-05,0
29.158,1.4603e-05,0
29.158,4.8676e-06,0
29.159,-5.3712e-06,0
29.159,-1.1582e-05,0
29.16,-8.7282e-06,0
29.161,2.6856e-06,0
29.161,1.6617e-05,0
29.162,2.4842e-05,0
29.162,2.5513e-05,0
29.163,2.3835e-05,0
29.163,1.5274e-05,0
29.164,-4.5319e-06,0
29.164,-2.4002e-05,0
29.165,-4.1459e-05,0
29.165,-5.6565e-05,0
29.166,-5.5894e-05,0
29.166,-4.062e-05,0
29.167,-2.8534e-05,0
29.167,-3.1891e-05,0
29.168,-4.3641e-05,0
29.168,-4.3473e-05,0
29.169,-3.0045e-05,0
29.169,-1.5274e-05,0
29.17,-4.0284e-06,0
29.17,9.9031e-06,0
29.171,2.4674e-05,0
29.171,3.4577e-05,0
29.172,3.3906e-05,0
29.172,2.8702e-05,0
29.173,3.122e-05,0
29.174,4.0452e-05,0
29.174,4.8173e-05,0
29.175,5.4047e-05,0
29.175,5.9419e-05,0
29.176,6.1433e-05,0
29.176,5.7572e-05,0
29.177,4.7501e-05,0
29.177,4.1459e-05,0
29.178,5.0187e-05,0
29.178,6.5126e-05,0
29.179,7.6371e-05,0
29.179,8.3421e-05,0
29.18,8.6275e-05,0
29.18,8.7449e-05,0
29.181,8.7449e-05,0
29.181,8.275e-05,0
29.182,7.57e-05,0
29.182,7.57e-05,0
29.183,8.04e-05,0
29.183,8.1575e-05,0
29.184,7.8721e-05,0
29.184,7.2175e-05,0
29.185,5.8915e-05,0
29.185,3.4409e-05,0
29.186,8.3925e-07,0
29.186,-2.8367e-05,0
29.187,-5.5222e-05,0
29.188,-8.5771e-05,0
29.188,-0.00010759,0
29.189,-0.00011212,0
29.189,-0.00010826,0
29.19,-0.00010524,0
29.19,-0.0001044,0
29.191,-8.9967e-05,0
29.191,-5.5558e-05,0
29.192,-1.6281e-05,0
29.192,1.2253e-05,0
29.193,3.2059e-05,0
29.193,4.1291e-05,0
29.194,4.2802e-05,0
29.194,4.5487e-05,0
29.195,5.0858e-05,0
29.195,5.6397e-05,0
29.196,6.1936e-05,0
29.196,6.8315e-05,0
29.197,7.3518e-05,0
29.197,7.4357e-05,0
29.198,6.8315e-05,0
29.198,6.0426e-05,0
29.199,5.1362e-05,0
29.199,3.9948e-05,0
29.2,2.6017e-05,0
29.201,1.0575e-05,0
29.201,-1.5106e-06,0
29.202,-7.5532e-06,0
29.202,-4.1962e-06,0
29.203,5.539e-06,0
29.203,1.7624e-05,0
29.204,2.4338e-05,0
29.204,2.6017e-05,0
29.205,3.1052e-05,0
29.205,3.7934e-05,0
29.206,4.0955e-05,0
29.206,4.2802e-05,0
29.207,4.4984e-05,0
29.207,4.6159e-05,0
29.208,4.3809e-05,0
29.208,4.0452e-05,0
29.209,3.4745e-05,0
29.209,2.7863e-05,0
29.21,2.4002e-05,0
29.21,2.1653e-05,0
29.211,2.1317e-05,0
29.211,2.3163e-05,0
29.212,2.4506e-05,0
29.212,3.1388e-05,0
29.213,4.0787e-05,0
29.213,4.2802e-05,0
29.214,4.213e-05,0
29.215,4.6494e-05,0
29.215,5.304e-05,0
29.216,5.3376e-05,0
29.216,4.3137e-05,0
29.217,2.5345e-05,0
29.217,5.0355e-06,0
29.218,-1.8296e-05,0
29.218,-3.8605e-05,0
29.219,-5.4551e-05,0
29.219,-7.8721e-05,0
29.22,-0.00011464,0
29.22,-0.00014452,0
29.221,-0.00013898,0
29.221,-9.6178e-05,0
29.222,-3.592e-05,0
29.222,1.796e-05,0
29.223,5.3376e-05,0
29.223,6.9993e-05,0
29.224,7.1672e-05,0
29.224,6.5126e-05,0
29.225,5.8915e-05,0
29.225,6.2943e-05,0
29.226,7.6036e-05,0
29.226,8.9632e-05,0
29.227,9.9199e-05,0
29.227,0.00010457,0
29.228,9.9535e-05,0
29.229,8.7785e-05,0
29.229,7.7882e-05,0
29.23,7.3014e-05,0
29.23,7.1504e-05,0
29.231,6.2608e-05,0
29.231,3.7095e-05,0
29.232,-6.3783e-06,0
29.232,-5.9251e-05,0
29.233,-9.9031e-05,0
29.233,-9.5171e-05,0
29.234,-4.2466e-05,0
29.234,2.6688e-05,0
29.235,7.2007e-05,0
29.235,8.9799e-05,0
29.236,8.7449e-05,0
29.236,7.4357e-05,0
29.237,5.388e-05,0
29.237,2.9709e-05,0
29.238,4.5319e-06,0
29.238,-7.5532e-06,0
29.239,-5.539e-06,0
29.239,-1.4267e-05,0
29.24,-4.5319e-05,0
29.24,-7.6204e-05,0
29.241,-8.2918e-05,0
29.242,-7.2007e-05,0
29.242,-5.9586e-05,0
29.243,-4.5151e-05,0
29.243,-1.3596e-05,0
29.244,3.122e-05,0
29.244,6.0426e-05,0
29.245,6.4286e-05,0
29.245,5.5222e-05,0
29.246,4.448e-05,0
29.246,3.5248e-05,0
29.247,3.0884e-05,0
29.247,2.5345e-05,0
29.248,2.0981e-05,0
29.248,2.266e-05,0
29.249,3.2898e-05,0
29.249,4.2802e-05,0
29.25,4.3977e-05,0
29.25,4.213e-05,0
29.251,4.1962e-05,0
29.251,4.3137e-05,0
29.252,4.6159e-05,0
29.252,5.2873e-05,0
29.253,6.6804e-05,0
29.253,8.5771e-05,0
29.254,9.8863e-05,0
29.255,0.00010239,0
29.255,9.987e-05,0
29.256,9.6513e-05,0
29.256,0.00010088,0
29.257,0.00011145,0
29.257,0.00012136,0
29.258,0.00012253,0
29.258,0.00011263,0
29.259,9.6513e-05,0
29.259,7.4189e-05,0
29.26,3.6759e-05,0
29.26,-9.5674e-06,0
29.261,-4.7166e-05,0
29.261,-6.9322e-05,0
29.262,-8.2246e-05,0
29.262,-9.4499e-05,0
29.263,-0.00011229,0
29.263,-0.00013848,0
29.264,-0.00016835,0
29.264,-0.00018984,0
29.265,-0.00018631,0
29.265,-0.00015258,0
29.266,-0.00010524,0
29.266,-6.1936e-05,0
29.267,-2.8534e-05,0
29.267,-9.2317e-06,0
29.268,-8.3925e-07,0
29.269,1.1749e-06,0
29.269,3.5248e-06,0
29.27,1.091e-05,0
29.27,2.0645e-05,0
29.271,3.2563e-05,0
29.271,4.5487e-05,0
29.272,6.2943e-05,0
29.272,8.6946e-05,0
29.273,0.00010558,0
29.273,0.00010675,0
29.274,9.4835e-05,0
29.274,8.2078e-05,0
29.275,7.6371e-05,0
29.275,7.8889e-05,0
29.276,8.0735e-05,0
29.276,7.9728e-05,0
29.277,6.8315e-05,0
29.277,4.0116e-05,0
29.278,-1.5106e-06,0
29.278,-3.9612e-05,0
29.279,-5.6062e-05,0
29.279,-4.4984e-05,0
29.28,-1.6953e-05,0
29.28,5.0355e-06,0
29.281,4.1962e-06,0
29.282,-1.5274e-05,0
29.282,-4.3809e-05,0
29.283,-5.4551e-05,0
29.283,-2.5345e-05,0
29.284,3.3066e-05,0
29.284,8.8457e-05,0
29.285,0.00010574,0
29.285,8.2414e-05,0
29.286,4.8844e-05,0
29.286,2.1988e-05,0
29.287,8.5603e-06,0
29.287,2.7695e-05,0
29.288,7.0161e-05,0
29.288,9.836e-05,0
29.289,9.2821e-05,0
29.289,6.9657e-05,0
29.29,5.623e-05,0
29.29,5.5894e-05,0
29.291,5.6565e-05,0
29.291,4.8005e-05,0
29.292,3.4073e-05,0
29.292,2.1149e-05,0
29.293,1.2421e-05,0
29.293,8.5603e-06,0
29.294,7.2175e-06,0
29.294,2.5177e-06,0
29.295,-2.5177e-06,0
29.296,-2.6856e-06,0
29.296,2.3499e-06,0
29.297,9.9031e-06,0
29.297,1.6281e-05,0
29.298,2.3331e-05,0
29.298,3.1052e-05,0
29.299,3.7263e-05,0
29.299,4.4816e-05,0
29.3,5.3208e-05,0
29.3,5.9419e-05,0
29.301,6.2943e-05,0
29.301,6.4622e-05,0
29.302,6.63e-05,0
29.302,7.0832e-05,0
29.303,7.6371e-05,0
29.303,8.2246e-05,0
29.304,8.5771e-05,0
29.304,8.51e-05,0
29.305,8.0232e-05,0
29.305,7.8386e-05,0
29.306,8.0064e-05,0
29.306,7.3014e-05,0
29.307,5.4215e-05,0
29.307,3.3066e-05,0
29.308,1.3764e-05,0
29.308,-3.0213e-06,0
29.309,-1.8799e-05,0
29.31,-3.743e-05,0
29.31,-5.1362e-05,0
29.311,-5.4887e-05,0
29.311,-5.069e-05,0
29.312,-4.7501e-05,0
29.312,-4.918e-05,0
29.313,-4.2466e-05,0
29.313,-1.8631e-05,0
29.314,1.1917e-05,0
29.314,2.1653e-05,0
29.315,-7.8889e-06,0
29.315,-5.5055e-05,0
29.316,-8.7449e-05,0
29.316,-9.3828e-05,0
29.317,-7.8553e-05,0
29.317,-5.7237e-05,0
29.318,-4.1627e-05,0
29.318,-3.0381e-05,0
29.319,-1.5946e-05,0
29.319,4.8676e-06,0
29.32,2.0645e-05,0
29.32,2.6017e-05,0
29.321,2.5681e-05,0
29.321,2.7359e-05,0
29.322,3.6088e-05,0
29.323,4.4816e-05,0
29.323,4.7333e-05,0
29.324,3.5752e-05,0
29.324,1.2757e-05,0
29.325,-6.5461e-06,0
29.325,-1.3596e-05,0
29.326,-9.5674e-06,0
29.326,5.0355e-07,0
29.327,1.5946e-05,0
29.327,3.0716e-05,0
29.328,3.9445e-05,0
29.328,3.8102e-05,0
29.329,2.7024e-05,0
29.329,1.6953e-05,0
29.33,1.1582e-05,0
29.33,9.9031e-06,0
29.331,2.2995e-05,0
29.331,5.7237e-05,0
29.332,9.7856e-05,0
29.332,0.00012438,0
29.333,0.00012253,0
29.333,9.4499e-05,0
29.334,5.8244e-05,0
29.334,3.122e-05,0
29.335,1.0575e-05,0
29.335,-1.091e-05,0
29.336,-2.6688e-05,0
29.337,-2.9709e-05,0
29.337,-2.3667e-05,0
29.338,-1.7624e-05,0
29.338,-1.0239e-05,0
29.339,2.8534e-06,0
29.339,1.5274e-05,0
29.34,2.2492e-05,0
29.34,2.9374e-05,0
29.341,4.8173e-05,0
29.341,7.3182e-05,0
29.342,8.7785e-05,0
29.342,8.9464e-05,0
29.343,8.9632e-05,0
29.343,9.5842e-05,0
29.344,0.00010491,0
29.344,0.00011229,0
29.345,0.00011666,0
29.345,0.00012052,0
29.346,0.00012975,0
29.346,0.00014687,0
29.347,0.00016617,0
29.347,0.00017591,0
29.348,0.00016667,0
29.348,0.0001378,0
29.349,9.6178e-05,0
29.35,4.6494e-05,0
29.35,-9.2317e-06,0
29.351,-6.5965e-05,0
29.351,-0.00011749,0
29.352,-0.00016399,0
29.352,-0.00021837,0
29.353,-0.00027561,0
29.353,-0.00031153,0
29.354,-0.00031489,0
29.354,-0.00029038,0
29.355,-0.00024036,0
29.355,-0.00017205,0
29.356,-9.1478e-05,0
29.356,-1.4267e-05,0
29.357,3.5416e-05,0
29.357,4.8844e-05,0
29.358,4.213e-05,0
29.358,3.9109e-05,0
29.359,4.5487e-05,0
29.359,5.388e-05,0
29.36,5.8915e-05,0
29.36,5.8412e-05,0
29.361,5.8076e-05,0
29.361,6.1601e-05,0
29.362,6.63e-05,0
29.363,7.1e-05,0
29.363,7.5029e-05,0
29.364,7.6707e-05,0
29.364,7.7714e-05,0
29.365,7.5868e-05,0
29.365,7.3014e-05,0
29.366,7.0329e-05,0
29.366,6.6804e-05,0
29.367,6.2943e-05,0
29.367,5.8244e-05,0
29.368,5.2201e-05,0
29.368,4.8676e-05,0
29.369,4.6159e-05,0
29.369,4.6494e-05,0
29.37,5.0858e-05,0
29.37,5.2873e-05,0
29.371,5.1865e-05,0
29.371,4.8844e-05,0
29.372,4.7837e-05,0
29.372,4.7333e-05,0
29.373,4.5991e-05,0
29.373,4.4816e-05,0
29.374,4.1794e-05,0
29.374,3.9948e-05,0
29.375,3.7766e-05,0
29.375,3.5752e-05,0
29.376,3.2059e-05,0
29.377,2.9541e-05,0
29.377,2.9374e-05,0
29.378,2.9374e-05,0
29.378,2.652e-05,0
29.379,2.6184e-05,0
29.379,2.9374e-05,0
29.38,3.0213e-05,0
29.38,2.7192e-05,0
29.381,2.266e-05,0
29.381,1.9974e-05,0
29.382,2.0478e-05,0
29.382,1.9974e-05,0
29.383,1.7288e-05,0
29.383,1.8631e-05,0
29.384,2.2492e-05,0
29.384,2.4506e-05,0
29.385,2.182e-05,0
29.385,1.796e-05,0
29.386,1.3092e-05,0
29.386,6.714e-06,0
29.387,-1.3428e-06,0
29.387,-9.3996e-06,0
29.388,-1.5946e-05,0
29.388,-1.9806e-05,0
29.389,-1.9135e-05,0
29.39,-1.4603e-05,0
29.39,-1.0071e-05,0
29.391,-6.2104e-06,0
29.391,-3.5248e-06,0
29.392,-1.0071e-06,0
29.392,8.5603e-06,0
29.393,1.7121e-05,0
29.393,2.031e-05,0
29.394,2.6352e-05,0
29.394,3.508e-05,0
29.395,4.0116e-05,0
29.395,3.6088e-05,0
29.396,2.0645e-05,0
29.396,5.8747e-06,0
29.397,2.5177e-06,0
29.397,7.2175e-06,0
29.398,1.0239e-05,0
29.398,1.1078e-05,0
29.399,7.7211e-06,0
29.399,4.1962e-06,0
29.4,8.5603e-06,0
29.4,1.8967e-05,0
29.401,3.8773e-05,0
29.401,7.6204e-05,0
29.402,0.00012605,0
29.402,0.00017171,0
29.403,0.00019554,0
29.404,0.00018766,0
29.404,0.00016416,0
29.405,0.00014083,0
29.405,0.00011397,0
29.406,7.3014e-05,0
29.406,2.0813e-05,0
29.407,-3.2395e-05,0
29.407,-7.6707e-05,0
29.408,-0.00010625,0
29.408,-0.00010558,0
29.409,-7.9225e-05,0
29.409,-5.153e-05,0
29.41,-3.3906e-05,0
29.41,-2.417e-05,0
29.411,-3.3234e-05,0
29.411,-5.6565e-05,0
29.412,-7.5868e-05,0
29.412,-7.6371e-05,0
29.413,-6.1265e-05,0
29.413,-4.5319e-05,0
29.414,-3.4577e-05,0
29.414,-2.3163e-05,0
29.415,-1.0407e-05,0
29.415,-8.0568e-06,0
29.416,-1.3764e-05,0
29.416,-1.2253e-05,0
29.417,-8.3925e-07,0
29.418,9.2317e-06,0
29.418,9.7353e-06,0
29.419,3.5248e-06,0
29.419,-2.182e-06,0
29.42,-8.0568e-06,0
29.42,-1.6281e-05,0
29.421,-2.5177e-05,0
29.421,-3.2731e-05,0
29.422,-3.0213e-05,0
29.422,-6.0426e-06,0
29.423,3.0716e-05,0
29.423,6.1265e-05,0
29.424,8.1071e-05,0
29.424,9.1142e-05,0
29.425,9.3492e-05,0
29.425,9.2821e-05,0
29.426,9.0471e-05,0
29.426,8.04e-05,0
29.427,6.6972e-05,0
29.427,5.7069e-05,0
29.428,5.5222e-05,0
29.428,5.7572e-05,0
29.429,5.5726e-05,0
29.429,4.918e-05,0
29.43,5.0858e-05,0
29.431,6.1936e-05,0
29.431,6.8315e-05,0
29.432,5.774e-05,0
29.432,3.1556e-05,0
29.433,5.0355e-06,0
29.433,-1.561e-05,0
29.434,-3.0045e-05,0
29.434,-2.2324e-05,0
29.435,5.8747e-06,0
29.435,3.3738e-05,0
29.436,4.1291e-05,0
29.436,2.7527e-05,0
29.437,7.7211e-06,0
29.437,-3.5248e-06,0
29.438,-4.1962e-06,0
29.438,-4.1962e-06,0
29.439,-1.561e-05,0
29.439,-3.7095e-05,0
29.44,-4.918e-05,0
29.44,-4.1123e-05,0
29.441,-2.2995e-05,0
29.441,-6.5461e-06,0
29.442,6.0426e-06,0
29.442,1.3596e-05,0
29.443,1.3931e-05,0
29.444,1.0239e-05,0
29.444,9.0639e-06,0
29.445,1.7624e-05,0
29.445,3.743e-05,0
29.446,6.4286e-05,0
29.446,8.8289e-05,0
29.447,9.8695e-05,0
29.447,9.2821e-05,0
29.448,7.6371e-05,0
29.448,5.9922e-05,0
29.449,5.4215e-05,0
29.449,6.5293e-05,0
29.45,8.3589e-05,0
29.45,9.4499e-05,0
29.451,9.2821e-05,0
29.451,7.9057e-05,0
29.452,5.7404e-05,0
29.452,2.8702e-05,0
29.453,-2.5177e-06,0
29.453,-2.4506e-05,0
29.454,-3.2563e-05,0
29.454,-3.0381e-05,0
29.455,-2.031e-05,0
29.455,-5.539e-06,0
29.456,2.8534e-06,0
29.456,-1.3428e-06,0
29.457,-1.1414e-05,0
29.458,-1.6281e-05,0
29.458,-1.1582e-05,0
29.459,4.8676e-06,0
29.459,2.5849e-05,0
29.46,4.1459e-05,0
29.46,4.3473e-05,0
29.461,3.508e-05,0
29.461,2.4674e-05,0
29.462,1.3931e-05,0
29.462,5.0355e-06,0
29.463,1.6785e-06,0
29.463,-3.5248e-06,0
29.464,-1.5274e-05,0
29.464,-2.7192e-05,0
29.465,-3.0045e-05,0
29.465,-2.0981e-05,0
29.466,-3.8605e-06,0
29.466,8.5603e-06,0
29.467,1.0575e-05,0
29.467,1.1917e-05,0
29.468,1.796e-05,0
29.468,2.887e-05,0
29.469,3.9948e-05,0
29.469,4.4984e-05,0
29.47,3.978e-05,0
29.471,2.8702e-05,0
29.471,2.4506e-05,0
29.472,2.7359e-05,0
29.472,2.8702e-05,0
29.473,2.7359e-05,0
29.473,2.7863e-05,0
29.474,3.4073e-05,0
29.474,4.3473e-05,0
29.475,5.3544e-05,0
29.475,5.9586e-05,0
29.476,5.9586e-05,0
29.476,6.1936e-05,0
29.477,6.8986e-05,0
29.477,7.4189e-05,0
29.478,7.4357e-05,0
29.478,6.9154e-05,0
29.479,5.9922e-05,0
29.479,4.4144e-05,0
29.48,2.0142e-05,0
29.48,-9.2317e-06,0
29.481,-2.9541e-05,0
29.481,-3.978e-05,0
29.482,-4.7837e-05,0
29.482,-5.8244e-05,0
29.483,-6.9322e-05,0
29.483,-7.1504e-05,0
29.484,-5.7404e-05,0
29.485,-3.2731e-05,0
29.485,-6.2104e-06,0
29.486,2.0645e-05,0
29.486,4.5151e-05,0
29.487,6.0258e-05,0
29.487,6.2272e-05,0
29.488,5.9586e-05,0
29.488,5.5894e-05,0
29.489,4.9516e-05,0
29.489,4.2634e-05,0
29.49,3.9445e-05,0
29.49,3.8437e-05,0
29.491,3.4745e-05,0
29.491,2.7359e-05,0
29.492,2.1317e-05,0
29.492,2.266e-05,0
29.493,2.8031e-05,0
29.493,3.3402e-05,0
29.494,3.3738e-05,0
29.494,2.7863e-05,0
29.495,3.0045e-05,0
29.495,5.0187e-05,0
29.496,8.3589e-05,0
29.496,0.00010843,0
29.497,0.00011531,0
29.497,0.00011565,0
29.498,0.00011498,0
29.499,0.00011162,0
29.499,0.00010692,0
29.5,9.9031e-05,0
29.5,8.3757e-05,0
29.501,5.7237e-05,0
29.501,1.9806e-05,0
29.502,-1.561e-05,0
29.502,-4.7837e-05,0
29.503,-8.6778e-05,0
29.503,-0.00012689,0
29.504,-0.00015358,0
29.504,-0.00016584,0
29.505,-0.00016298,0
29.505,-0.0001472,0
29.506,-0.00012169,0
29.506,-9.752e-05,0
29.507,-7.9225e-05,0
29.507,-5.9754e-05,0
29.508,-4.3137e-05,0
29.508,-3.8437e-05,0
29.509,-3.5752e-05,0
29.509,-2.8367e-05,0
29.51,-2.501e-05,0
29.51,-2.6184e-05,0
29.511,-1.8296e-05,0
29.512,9.2317e-06,0
29.512,5.153e-05,0
29.513,9.1814e-05,0
29.513,0.00011128,0
29.514,0.00011095,0
29.514,9.8863e-05,0
29.515,8.7449e-05,0
29.515,8.3085e-05,0
29.516,8.2078e-05,0
29.516,8.1743e-05,0
29.517,8.3085e-05,0
29.517,8.7785e-05,0
29.518,8.9128e-05,0
29.518,8.9128e-05,0
29.519,9.1814e-05,0
29.519,0.00010021,0
29.52,0.00010776,0
29.52,0.00010222,0
29.521,8.2078e-05,0
29.521,6.2272e-05,0
29.522,5.5894e-05,0
29.522,6.5293e-05,0
29.523,8.7785e-05,0
29.523,0.00011917,0
29.524,0.00014469,0
29.524,0.00014586,0
29.525,0.0001185,0
29.526,6.3951e-05,0
29.526,-4.1962e-06,0
29.527,-5.7069e-05,0
29.527,-7.6707e-05,0
29.528,-8.2918e-05,0
29.528,-0.00010574,0
29.529,-0.00015459,0
29.529,-0.00020125,0
29.53,-0.00021166,0
29.53,-0.00019286,0
29.531,-0.00016634,0
29.531,-0.00013109,0
29.532,-8.0903e-05,0
29.532,-2.7024e-05,0
29.533,1.1078e-05,0
29.533,2.5177e-05,0
29.534,2.2995e-05,0
29.534,1.9638e-05,0
29.535,2.6352e-05,0
29.535,4.6494e-05,0
29.536,7.2679e-05,0
29.536,9.0471e-05,0
29.537,9.1646e-05,0
29.537,8.8121e-05,0
29.538,9.0135e-05,0
29.539,9.5171e-05,0
29.539,9.5171e-05,0
29.54,8.4932e-05,0
29.54,6.7643e-05,0
29.541,5.069e-05,0
29.541,3.0549e-05,0
29.542,6.2104e-06,0
29.542,-1.1582e-05,0
29.543,-2.031e-05,0
29.543,-2.4338e-05,0
29.544,-1.8128e-05,0
29.544,1.1749e-06,0
29.545,3.0884e-05,0
29.545,6.1601e-05,0
29.546,7.7043e-05,0
29.546,7.4357e-05,0
29.547,6.2608e-05,0
29.547,5.0187e-05,0
29.548,4.4144e-05,0
29.548,4.1459e-05,0
29.549,3.6591e-05,0
29.549,2.6352e-05,0
29.55,1.1917e-05,0
29.55,2.8534e-06,0
29.551,6.2104e-06,0
29.552,2.1317e-05,0
29.552,4.1459e-05,0
29.553,6.0258e-05,0
29.553,6.9993e-05,0
29.554,6.6468e-05,0
29.554,5.5222e-05,0
29.555,4.1459e-05,0
29.555,2.652e-05,0
29.556,9.9031e-06,0
29.556,-3.8605e-06,0
29.557,-8.2246e-06,0
29.557,2.3499e-06,0
29.558,1.0575e-05,0
29.558,1.1749e-06,0
29.559,-2.1149e-05,0
29.559,-4.3977e-05,0
29.56,-5.2537e-05,0
29.56,-3.2563e-05,0
29.561,5.0355e-06,0
29.561,3.6759e-05,0
29.562,5.4887e-05,0
29.562,6.2272e-05,0
29.563,6.8315e-05,0
29.563,7.805e-05,0
29.564,8.6778e-05,0
29.564,9.3492e-05,0
29.565,0.00010071,0
29.566,0.00010591,0
29.566,0.00011061,0
29.567,0.00011128,0
29.567,0.00010172,0
29.568,8.7449e-05,0
29.568,7.5364e-05,0
29.569,6.8818e-05,0
29.569,5.7404e-05,0
29.57,2.8367e-05,0
29.57,-1.4435e-05,0
29.571,-5.4383e-05,0
29.571,-8.8457e-05,0
29.572,-0.00011531,0
29.572,-0.00012908,0
29.573,-0.00013059,0
29.573,-0.00012874,0
29.574,-0.00012824,0
29.574,-0.00013008,0
29.575,-0.0001321,0
29.575,-0.0001321,0
29.576,-0.00011464,0
29.576,-6.63e-05,0
29.577,2.0142e-06,0
29.577,6.1265e-05,0
29.578,9.8192e-05,0
29.578,0.00011397,0
29.579,0.00011867,0
29.58,0.00012404,0
29.58,0.00012992,0
29.581,0.00012992,0
29.581,0.00012203,0
29.582,0.00010793,0
29.582,9.1814e-05,0
29.583,7.2679e-05,0
29.583,5.1194e-05,0
29.584,2.9709e-05,0
29.584,8.896e-06,0
29.585,-1.0071e-05,0
29.585,-1.9806e-05,0
29.586,-2.2324e-05,0
29.586,-2.5681e-05,0
29.587,-3.0716e-05,0
29.587,-4.1962e-05,0
29.588,-6.63e-05,0
29.588,-8.8121e-05,0
29.589,-8.426e-05,0
29.589,-5.7908e-05,0
29.59,-2.9877e-05,0
29.59,-7.7211e-06,0
29.591,1.1078e-05,0
29.591,3.4745e-05,0
29.592,6.6636e-05,0
29.593,9.5003e-05,0
29.593,0.00010457,0
29.594,0.00010323,0
29.594,0.00010692,0
29.595,0.00012102,0
29.595,0.00013176,0
29.596,0.00012589,0
29.596,0.00011196,0
29.597,9.987e-05,0
29.597,8.426e-05,0
29.598,5.9586e-05,0
29.598,2.7359e-05,0
29.599,-2.8534e-06,0
29.599,-2.4338e-05,0
29.6,-3.9109e-05,0
29.6,-4.8173e-05,0
29.601,-5.153e-05,0
29.601,-5.2705e-05,0
29.602,-4.9851e-05,0
29.602,-4.4144e-05,0
29.603,-3.8102e-05,0
29.603,-3.1556e-05,0
29.604,-2.1988e-05,0
29.604,-3.8605e-06,0
29.605,2.031e-05,0
29.605,4.5655e-05,0
29.606,6.9993e-05,0
29.607,9.1478e-05,0
29.607,0.00010188,0
29.608,9.7185e-05,0
29.608,8.9799e-05,0
29.609,8.5771e-05,0
29.609,8.1071e-05,0
29.61,7.7043e-05,0
29.61,6.6133e-05,0
29.611,4.3809e-05,0
29.611,1.1582e-05,0
29.612,-3.6255e-05,0
29.612,-9.2317e-05,0
29.613,-0.00013529,0
29.613,-0.00015241,0
29.614,-0.00013126,0
29.614,-6.8818e-05,0
29.615,7.8889e-06,0
29.615,5.8579e-05,0
29.616,6.63e-05,0
29.616,4.9516e-05,0
29.617,3.1388e-05,0
29.617,1.7121e-05,0
29.618,3.5248e-06,0
29.618,-7.7211e-06,0
29.619,-8.3925e-06,0
29.62,6.2104e-06,0
29.62,2.9374e-05,0
29.621,4.4984e-05,0
29.621,4.6159e-05,0
29.622,4.2634e-05,0
29.622,3.7934e-05,0
29.623,3.592e-05,0
29.623,3.8605e-05,0
29.624,4.3305e-05,0
29.624,5.0858e-05,0
29.625,6.1433e-05,0
29.625,6.4958e-05,0
29.626,6.2272e-05,0
29.626,6.4286e-05,0
29.627,6.9993e-05,0
29.627,7.0161e-05,0
29.628,6.4286e-05,0
29.628,5.5894e-05,0
29.629,5.3544e-05,0
29.629,5.6901e-05,0
29.63,5.2705e-05,0
29.63,4.0116e-05,0
29.631,3.1388e-05,0
29.631,3.357e-05,0
29.632,4.4312e-05,0
29.633,5.2201e-05,0
29.633,6.0761e-05,0
29.634,7.4861e-05,0
29.634,7.9728e-05,0
29.635,6.2943e-05,0
29.635,2.9038e-05,0
29.636,-1.3596e-05,0
29.636,-6.2272e-05,0
29.637,-0.00010793,0
29.637,-0.00013596,0
29.638,-0.00013764,0
29.638,-0.00011984,0
29.639,-0.00010491,0
29.639,-0.00010407,0
29.64,-0.00010222,0
29.64,-8.3085e-05,0
29.641,-5.4719e-05,0
29.641,-3.122e-05,0
29.642,-1.8967e-05,0
29.642,-1.0575e-05,0
29.643,1.6785e-06,0
29.643,1.6617e-05,0
29.644,2.8702e-05,0
29.644,3.8102e-05,0
29.645,4.448e-05,0
29.645,4.9348e-05,0
29.646,5.3208e-05,0
29.647,5.6733e-05,0
29.647,5.8244e-05,0
29.648,5.7572e-05,0
29.648,5.7404e-05,0
29.649,5.9586e-05,0
29.649,6.2943e-05,0
29.65,6.3447e-05,0
29.65,6.3111e-05,0
29.651,6.4118e-05,0
29.651,6.3783e-05,0
29.652,6.5629e-05,0
29.652,7.0497e-05,0
29.653,7.3686e-05,0
29.653,7.8889e-05,0
29.654,8.7785e-05,0
29.654,9.8527e-05,0
29.655,0.00010306,0
29.655,0.00010071,0
29.656,9.5674e-05,0
29.656,8.8121e-05,0
29.657,7.8553e-05,0
29.657,6.6972e-05,0
29.658,5.2201e-05,0
29.658,3.6591e-05,0
29.659,2.0981e-05,0
29.66,2.5177e-06,0
29.66,-2.501e-05,0
29.661,-5.9922e-05,0
29.661,-9.1646e-05,0
29.662,-0.0001091,0
29.662,-0.00011363,0
29.663,-0.00011632,0
29.663,-0.00011666,0
29.664,-9.9702e-05,0
29.664,-5.8412e-05,0
29.665,-7.3854e-06,0
29.665,3.4409e-05,0
29.666,5.9419e-05,0
29.666,6.5965e-05,0
29.667,6.2272e-05,0
29.667,5.623e-05,0
29.668,5.4383e-05,0
29.668,5.7404e-05,0
29.669,6.3447e-05,0
29.669,7.0329e-05,0
29.67,7.5029e-05,0
29.67,7.7043e-05,0
29.671,7.6875e-05,0
29.671,7.3014e-05,0
29.672,6.6804e-05,0
29.672,5.9586e-05,0
29.673,5.2201e-05,0
29.674,4.213e-05,0
29.674,2.3331e-05,0
29.675,5.0355e-07,0
29.675,-1.796e-05,0
29.676,-3.122e-05,0
29.676,-4.3305e-05,0
29.677,-5.153e-05,0
29.677,-4.8844e-05,0
29.678,-4.0452e-05,0
29.678,-3.0213e-05,0
29.679,-1.4939e-05,0
29.679,3.6927e-06,0
29.68,1.9471e-05,0
29.68,3.0381e-05,0
29.681,4.062e-05,0
29.681,5.5222e-05,0
29.682,6.9154e-05,0
29.682,7.4693e-05,0
29.683,7.2343e-05,0
29.683,6.9657e-05,0
29.684,7.2679e-05,0
29.684,7.7379e-05,0
29.685,8.3421e-05,0
29.685,8.5771e-05,0
29.686,8.3421e-05,0
29.686,8.0232e-05,0
29.687,7.6371e-05,0
29.688,6.7979e-05,0
29.688,5.2033e-05,0
29.689,2.6688e-05,0
29.689,1.6785e-07,0
29.69,-2.5513e-05,0
29.69,-5.2033e-05,0
29.691,-8.7114e-05,0
29.691,-0.00013008,0
29.692,-0.00016986,0
29.692,-0.00019387,0
29.693,-0.00019118,0
29.693,-0.00016197,0
29.694,-0.00012136,0
29.694,-8.3421e-05,0
29.695,-4.8508e-05,0
29.695,-1.0742e-05,0
29.696,1.9974e-05,0
29.696,3.1388e-05,0
29.697,3.2059e-05,0
29.697,3.6088e-05,0
29.698,4.683e-05,0
29.698,5.8915e-05,0
29.699,6.5293e-05,0
29.699,6.6636e-05,0
29.7,6.3279e-05,0
29.701,5.8579e-05,0
29.701,5.8412e-05,0
29.702,6.009e-05,0
29.702,6.1265e-05,0
29.703,6.6636e-05,0
29.703,7.2847e-05,0
29.704,7.6036e-05,0
29.704,8.3925e-05,0
29.705,9.6178e-05,0
29.705,0.00010809,0
29.706,0.00012068,0
29.706,0.00013378,0
29.707,0.00014603,0
29.707,0.00015291,0
29.708,0.00014888,0
29.708,0.0001368,0
29.709,0.00012387,0
29.709,0.00010591,0
29.71,7.3014e-05,0
29.71,2.6017e-05,0
29.711,-2.4338e-05,0
29.711,-7.4525e-05,0
29.712,-0.0001331,0
29.712,-0.00019353,0
29.713,-0.00022609,0
29.713,-0.00021686,0
29.714,-0.00017876,0
29.715,-0.00012303,0
29.715,-6.4454e-05,0
29.716,-1.6281e-05,0
29.716,2.4002e-05,0
29.717,6.2943e-05,0
29.717,0.00010457,0
29.718,0.00013478,0
29.718,0.00013378,0
29.719,0.00010591,0
29.719,7.8386e-05,0
29.72,6.1601e-05,0
29.72,5.4551e-05,0
29.721,5.2705e-05,0
29.721,5.0019e-05,0
29.722,4.6159e-05,0
29.722,4.1962e-05,0
29.723,3.7766e-05,0
29.723,3.7766e-05,0
29.724,3.743e-05,0
29.724,3.4409e-05,0
29.725,3.0716e-05,0
29.725,2.8031e-05,0
29.726,2.8534e-05,0
29.726,2.7695e-05,0
29.727,2.3667e-05,0
29.728,2.3331e-05,0
29.728,2.652e-05,0
29.729,2.4674e-05,0
29.729,2.0645e-05,0
29.73,2.1317e-05,0
29.73,2.1653e-05,0
29.731,1.6953e-05,0
29.731,1.2924e-05,0
29.732,1.2924e-05,0
29.732,1.3931e-05,0
29.733,1.4435e-05,0
29.733,1.4435e-05,0
29.734,1.4939e-05,0
29.734,1.7456e-05,0
29.735,2.2156e-05,0
29.735,2.6688e-05,0
29.736,3.1052e-05,0
29.736,4.0116e-05,0
29.737,5.4887e-05,0
29.737,6.7475e-05,0
29.738,7.8386e-05,0
29.738,9.3324e-05,0
29.739,0.00012035,0
29.739,0.00015828,0
29.74,0.00019286,0
29.741,0.00021099,0
29.741,0.00021233,0
29.742,0.00020125,0
29.742,0.00017406,0
29.743,0.00012975,0
29.743,8.0735e-05,0
29.744,3.6088e-05,0
29.744,-6.2104e-06,0
29.745,-5.0355e-05,0
29.745,-0.00010121,0
29.746,-0.00015996,0
29.746,-0.00021787,0
29.747,-0.00025563,0
29.747,-0.00026453,0
29.748,-0.0002553,0
29.748,-0.00023734,0
29.749,-0.00021233,0
29.749,-0.00018094,0
29.75,-0.0001509,0
29.75,-0.00013042,0
29.751,-0.00012522,0
29.751,-0.00013579,0
29.752,-0.00015627,0
29.752,-0.00017322,0
29.753,-0.0001749,0
29.753,-0.0001566,0
29.754,-0.0001185,0
29.755,-6.2104e-05,0
29.755,7.2175e-06,0
29.756,7.5868e-05,0
29.756,0.00012337,0
29.757,0.00014418,0
29.757,0.00014049,0
29.758,0.00012303,0
29.758,0.0001086,0
29.759,0.00010457,0
29.759,0.00010172,0
29.76,9.5674e-05,0
29.76,8.9799e-05,0
29.761,8.8792e-05,0
29.761,9.6345e-05,0
29.762,0.00011044,0
29.762,0.00012572,0
29.763,0.00014385,0
29.763,0.00016231,0
29.764,0.0001754,0
29.764,0.00017876,0
29.765,0.00016802,0
29.765,0.0001462,0
29.766,0.00012236,0
29.766,9.7185e-05,0
29.767,6.5629e-05,0
29.767,2.5849e-05,0
29.768,-1.7792e-05,0
29.769,-4.9851e-05,0
29.769,-4.9012e-05,0
29.77,-4.8676e-06,0
29.77,4.9851e-05,0
29.771,7.0497e-05,0
29.771,5.7237e-05,0
29.772,4.1291e-05,0
29.772,3.4745e-05,0
29.773,2.7527e-05,0
29.773,8.5603e-06,0
29.774,-1.8296e-05,0
29.774,-3.8941e-05,0
29.775,-3.6759e-05,0
29.775,-1.2421e-05,0
29.776,1.4603e-05,0
29.776,2.9206e-05,0
29.777,3.4073e-05,0
29.777,4.1459e-05,0
29.778,5.2873e-05,0
29.778,6.4286e-05,0
29.779,6.7308e-05,0
29.779,5.9251e-05,0
29.78,4.3473e-05,0
29.78,3.0045e-05,0
29.781,2.5513e-05,0
29.782,2.6352e-05,0
29.782,2.9709e-05,0
29.783,3.3402e-05,0
29.783,3.2731e-05,0
29.784,3.2059e-05,0
29.784,3.6423e-05,0
29.785,4.683e-05,0
29.785,6.009e-05,0
29.786,7.4861e-05,0
29.786,9.1142e-05,0
29.787,0.00010726,0
29.787,0.00011649,0
29.788,0.00011582,0
29.788,0.00011128,0
29.789,0.00010457,0
29.789,9.366e-05,0
29.79,7.2679e-05,0
29.79,4.0452e-05,0
29.791,-2.6856e-06,0
29.791,-5.4215e-05,0
29.792,-0.00011028,0
29.792,-0.00017238,0
29.793,-0.00022979,0
29.793,-0.00024372,0
29.794,-0.0001895,0
29.794,-9.5338e-05,0
29.795,-1.4099e-05,0
29.796,2.7695e-05,0
29.796,3.4745e-05,0
29.797,2.3331e-05,0
29.797,1.4603e-05,0
29.798,1.1246e-05,0
29.798,7.5532e-06,0
29.799,7.3854e-06,0
29.799,1.4099e-05,0
29.8,2.0981e-05,0
29.8,2.1317e-05,0
29.801,1.6953e-05,0
29.801,9.2317e-06,0
29.802,3.0213e-06,0
29.802,3.5248e-06,0
29.803,1.1749e-05,0
29.803,1.8631e-05,0
29.804,1.9303e-05,0
29.804,1.6617e-05,0
29.805,1.9806e-05,0
29.805,2.8031e-05,0
29.806,2.8199e-05,0
29.806,2.0645e-05,0
29.807,1.2924e-05,0
29.807,5.539e-06,0
29.808,-4.1962e-06,0
29.809,-2.0981e-05,0
29.809,-3.1052e-05,0
29.81,-2.1149e-05,0
29.81,2.5177e-06,0
29.811,2.1317e-05,0
29.811,2.7527e-05,0
29.812,2.3835e-05,0
29.812,1.796e-05,0
29.813,9.2317e-06,0
29.813,3.357e-07,0
29.814,1.0071e-06,0
29.814,9.5674e-06,0
29.815,1.5946e-05,0
29.815,1.326e-05,0
29.816,7.7211e-06,0
29.816,5.2033e-06,0
29.817,1.1078e-05,0
29.817,2.1317e-05,0
29.818,3.0884e-05,0
29.818,3.8437e-05,0
29.819,4.1962e-05,0
29.819,4.3977e-05,0
29.82,4.8173e-05,0
29.82,4.9012e-05,0
29.821,4.5487e-05,0
29.822,3.8437e-05,0
29.822,2.8031e-05,0
29.823,1.9638e-05,0
29.823,1.7288e-05,0
29.824,1.5442e-05,0
29.824,1.4603e-05,0
29.825,1.5442e-05,0
29.825,1.5946e-05,0
29.826,1.8296e-05,0
29.826,1.9974e-05,0
29.827,1.8967e-05,0
29.827,1.9303e-05,0
29.828,2.3667e-05,0
29.828,3.1388e-05,0
29.829,4.3305e-05,0
29.829,5.4551e-05,0
29.83,5.9251e-05,0
29.83,6.0258e-05,0
29.831,6.4286e-05,0
29.831,6.8818e-05,0
29.832,6.9322e-05,0
29.832,6.4958e-05,0
29.833,6.4118e-05,0
29.833,6.6972e-05,0
29.834,6.6972e-05,0
29.834,6.2104e-05,0
29.835,5.1698e-05,0
29.836,3.7263e-05,0
29.836,2.3835e-05,0
29.837,1.1582e-05,0
29.837,-3.6927e-06,0
29.838,-1.2253e-05,0
29.838,-1.2757e-05,0
29.839,-7.3854e-06,0
29.839,1.6785e-06,0
29.84,1.1414e-05,0
29.84,2.6688e-05,0
29.841,4.8844e-05,0
29.841,6.0258e-05,0
29.842,5.1194e-05,0
29.842,3.2898e-05,0
29.843,2.2324e-05,0
29.843,2.5681e-05,0
29.844,3.8773e-05,0
29.844,5.4383e-05,0
29.845,6.4286e-05,0
29.845,6.6636e-05,0
29.846,6.0929e-05,0
29.846,4.1794e-05,0
29.847,9.9031e-06,0
29.847,-1.2253e-05,0
29.848,-2.0142e-05,0
29.849,-2.3835e-05,0
29.849,-2.2324e-05,0
29.85,-1.9471e-05,0
29.85,-2.1988e-05,0
29.851,-2.4002e-05,0
29.851,-1.4603e-05,0
29.852,1.5106e-06,0
29.852,1.0575e-05,0
29.853,5.2033e-06,0
29.853,-1.0239e-05,0
29.854,-1.9303e-05,0
29.854,-1.4939e-05,0
29.855,-1.1414e-05,0
29.855,-1.1917e-05,0
29.856,-9.9031e-06,0
29.856,-2.182e-06,0
29.857,1.0239e-05,0
29.857,2.3667e-05,0
29.858,3.5416e-05,0
29.858,4.448e-05,0
29.859,5.304e-05,0
29.859,6.5629e-05,0
29.86,7.8721e-05,0
29.86,8.6442e-05,0
29.861,9.0974e-05,0
29.861,9.7688e-05,0
29.862,0.00010524,0
29.863,0.00010726,0
29.863,0.00010155,0
29.864,9.0806e-05,0
29.864,7.1e-05,0
29.865,3.4577e-05,0
29.865,-1.8799e-05,0
29.866,-6.4286e-05,0
29.866,-7.4357e-05,0
29.867,-5.388e-05,0
29.867,-3.7263e-05,0
29.868,-4.6494e-05,0
29.868,-7.7714e-05,0
29.869,-0.00010759,0
29.869,-0.00011666,0
29.87,-0.00010272,0
29.87,-7.4525e-05,0
29.871,-3.4241e-05,0
29.871,1.5106e-05,0
29.872,5.6062e-05,0
29.872,7.6707e-05,0
29.873,8.04e-05,0
29.873,7.6036e-05,0
29.874,6.5965e-05,0
29.874,5.2201e-05,0
29.875,3.6927e-05,0
29.875,2.1317e-05,0
29.876,7.0497e-06,0
29.877,-1.0071e-06,0
29.877,-2.3499e-06,0
29.878,8.3925e-07,0
29.878,1.4267e-05,0
29.879,3.3402e-05,0
29.879,5.0187e-05,0
29.88,6.2608e-05,0
29.88,7.1672e-05,0
29.881,7.8889e-05,0
29.881,8.5435e-05,0
29.882,8.896e-05,0
29.882,8.8121e-05,0
29.883,8.6442e-05,0
29.883,8.04e-05,0
29.884,5.8579e-05,0
29.884,2.4002e-05,0
29.885,-5.539e-06,0
29.885,-2.4002e-05,0
29.886,-3.2563e-05,0
29.886,-2.887e-05,0
29.887,-1.6281e-05,0
29.887,-8.2246e-06,0
29.888,-2.6688e-05,0
29.888,-6.5629e-05,0
29.889,-8.7449e-05,0
29.89,-7.4357e-05,0
29.89,-4.7501e-05,0
29.891,-3.5752e-05,0
29.891,-4.0452e-05,0
29.892,-4.5151e-05,0
29.892,-4.3137e-05,0
29.893,-3.9445e-05,0
29.893,-3.2059e-05,0
29.894,-9.9031e-06,0
29.894,2.417e-05,0
29.895,5.4887e-05,0
29.895,6.7979e-05,0
29.896,6.9657e-05,0
29.896,7.3014e-05,0
29.897,7.9057e-05,0
29.897,8.3757e-05,0
29.898,8.8457e-05,0
29.898,9.4163e-05,0
29.899,9.6849e-05,0
29.899,9.3828e-05,0
29.9,8.3085e-05,0
29.9,6.9993e-05,0
29.901,6.2943e-05,0
29.901,6.009e-05,0
29.902,6.2272e-05,0
29.902,6.6972e-05,0
29.903,6.0929e-05,0
29.904,3.7934e-05,0
29.904,2.3499e-06,0
29.905,-2.9877e-05,0
29.905,-4.0787e-05,0
29.906,-3.0381e-05,0
29.906,-1.8967e-05,0
29.907,-1.9303e-05,0
29.907,-4.0116e-05,0
29.908,-7.6707e-05,0
29.908,-0.00010491,0
29.909,-0.00010826,0
29.909,-7.2343e-05,0
29.91,1.6785e-07,0
29.91,7.2175e-05,0
29.911,0.00010457,0
29.911,9.8192e-05,0
29.912,7.7714e-05,0
29.912,6.1936e-05,0
29.913,5.5222e-05,0
29.913,5.4887e-05,0
29.914,6.0929e-05,0
29.914,7.3686e-05,0
29.915,9.6178e-05,0
29.915,0.00012387,0
29.916,0.0001425,0
29.917,0.00014704,0
29.917,0.00013898,0
29.918,0.00012236,0
29.918,9.8527e-05,0
29.919,7.4022e-05,0
29.919,4.0955e-05,0
29.92,-1.1078e-05,0
29.92,-7.9225e-05,0
29.921,-0.00014704,0
29.921,-0.00019252,0
29.922,-0.00020159,0
29.922,-0.0001796,0
29.923,-0.00013378,0
29.923,-7.7714e-05,0
29.924,-3.0045e-05,0
29.924,-2.182e-06,0
29.925,7.0497e-06,0
29.925,9.2317e-06,0
29.926,1.2924e-05,0
29.926,2.182e-05,0
29.927,3.9277e-05,0
29.927,5.8747e-05,0
29.928,6.9322e-05,0
29.928,6.9657e-05,0
29.929,6.8147e-05,0
29.93,6.8818e-05,0
29.93,6.7643e-05,0
29.931,6.2943e-05,0
29.931,5.6733e-05,0
29.932,4.918e-05,0
29.932,4.4144e-05,0
29.933,4.5319e-05,0
29.933,5.2537e-05,0
29.934,6.3615e-05,0
29.934,6.8986e-05,0
29.935,6.5293e-05,0
29.935,5.9922e-05,0
29.936,5.4887e-05,0
29.936,5.1362e-05,0
29.937,4.8844e-05,0
29.937,4.2802e-05,0
29.938,3.3402e-05,0
29.938,2.2995e-05,0
29.939,1.2085e-05,0
29.939,-4.1962e-06,0
29.94,-2.4002e-05,0
29.94,-4.213e-05,0
29.941,-5.1362e-05,0
29.941,-5.0355e-05,0
29.942,-4.5151e-05,0
29.942,-4.448e-05,0
29.943,-6.3279e-05,0
29.944,-9.1981e-05,0
29.944,-9.2485e-05,0
29.945,-5.2873e-05,0
29.945,-1.5106e-06,0
29.946,3.508e-05,0
29.946,4.8005e-05,0
29.947,4.4816e-05,0
29.947,3.8605e-05,0
29.948,3.592e-05,0
29.948,3.5416e-05,0
29.949,3.6927e-05,0
29.949,3.9445e-05,0
29.95,4.1459e-05,0
29.95,4.5151e-05,0
29.951,4.7501e-05,0
29.951,4.6326e-05,0
29.952,4.5151e-05,0
29.952,4.9851e-05,0
29.953,5.7572e-05,0
29.953,6.3615e-05,0
29.954,6.865e-05,0
29.954,7.4861e-05,0
29.955,8.3589e-05,0
29.955,9.1814e-05,0
29.956,9.1814e-05,0
29.956,8.8289e-05,0
29.957,8.8121e-05,0
29.958,8.6442e-05,0
29.958,7.6707e-05,0
29.959,5.8915e-05,0
29.959,3.7934e-05,0
29.96,1.326e-05,0
29.96,-1.9135e-05,0
29.961,-5.6733e-05,0
29.961,-8.9632e-05,0
29.962,-0.00010759,0
29.962,-9.9199e-05,0
29.963,-6.6636e-05,0
29.963,-3.4073e-05,0
29.964,-1.6953e-05,0
29.964,-2.182e-06,0
29.965,2.8031e-05,0
29.965,6.4286e-05,0
29.966,8.5267e-05,0
29.966,8.191e-05,0
29.967,6.4958e-05,0
29.967,4.5319e-05,0
29.968,1.9638e-05,0
29.968,-1.4939e-05,0
29.969,-3.6927e-05,0
29.969,-2.6688e-05,0
29.97,7.2175e-06,0
29.971,3.7934e-05,0
29.971,4.9516e-05,0
29.972,4.8173e-05,0
29.972,4.5991e-05,0
29.973,4.4312e-05,0
29.973,3.9445e-05,0
29.974,3.592e-05,0
29.974,3.6759e-05,0
29.975,3.5584e-05,0
29.975,3.2898e-05,0
29.976,3.1388e-05,0
29.976,2.9877e-05,0
29.977,2.4338e-05,0
29.977,1.796e-05,0
29.978,9.5674e-06,0
29.978,0,0
29.979,-7.0497e-06,0
29.979,-1.8463e-06,0
29.98,1.7288e-05,0
29.98,3.592e-05,0
29.981,4.2634e-05,0
29.981,3.4073e-05,0
29.982,1.4267e-05,0
29.982,-8.896e-06,0
29.983,-2.7024e-05,0
29.983,-3.5584e-05,0
29.984,-3.2731e-05,0
29.985,-2.4002e-05,0
29.985,-1.6281e-05,0
29.986,-1.5274e-05,0
29.986,-1.8631e-05,0
29.987,-1.6617e-05,0
29.987,-3.0213e-06,0
29.988,1.326e-05,0
29.988,1.9135e-05,0
29.989,2.5345e-05,0
29.989,4.3977e-05,0
29.99,6.2943e-05,0
29.99,6.9993e-05,0
29.991,6.6468e-05,0
29.991,5.4215e-05,0
29.992,3.9445e-05,0
29.992,2.9877e-05,0
29.993,2.5345e-05,0
29.993,2.2995e-05,0
29.994,2.2492e-05,0
29.994,2.3835e-05,0
29.995,3.0716e-05,0
29.995,4.1794e-05,0
29.996,5.4383e-05,0
29.996,6.7643e-05,0
29.997,7.5532e-05,0
29.998,7.6036e-05,0
29.998,7.2175e-05,0
29.999,6.6972e-05,0
29.999,6.1097e-05,0
30,5.7404e-05,0
30,5.4887e-05,0
30.001,4.5151e-05,0
30.001,2.2995e-05,0
30.002,-1.2421e-05,0
30.002,-5.2873e-05,0
30.003,-8.7449e-05,0
30.003,-0.00010776,0
30.004,-0.0001091,0
30.004,-9.4331e-05,0
30.005,-6.865e-05,0
30.005,-4.4144e-05,0
30.006,-2.7024e-05,0
30.006,-1.0239e-05,0
30.007,8.2246e-06,0
30.007,2.3163e-05,0
30.008,2.887e-05,0
30.008,3.1388e-05,0
30.009,3.743e-05,0
30.009,4.8173e-05,0
30.01,5.7908e-05,0
30.011,6.5293e-05,0
30.011,7.1e-05,0
30.012,7.8386e-05,0
30.012,8.3925e-05,0
30.013,8.2246e-05,0
30.013,7.57e-05,0
30.014,6.7308e-05,0
30.014,6.1097e-05,0
30.015,5.539e-05,0
30.015,4.5487e-05,0
30.016,2.3499e-05,0
30.016,-1.0239e-05,0
30.017,-3.8773e-05,0
30.017,-4.7166e-05,0
30.018,-3.7766e-05,0
30.018,-1.3931e-05,0
30.019,2.1317e-05,0
30.019,5.153e-05,0
30.02,5.3544e-05,0
30.02,2.1988e-05,0
30.021,-2.182e-05,0
30.021,-4.0116e-05,0
30.022,-2.1653e-05,0
30.022,1.1246e-05,0
30.023,3.4073e-05,0
30.023,4.4144e-05,0
30.024,4.5991e-05,0
30.025,4.4984e-05,0
30.025,4.2298e-05,0
30.026,3.6423e-05,0
30.026,3.5752e-05,0
30.027,4.5487e-05,0
30.027,5.5558e-05,0
30.028,5.8244e-05,0
30.028,5.0187e-05,0
30.029,2.8199e-05,0
30.029,-1.0575e-05,0
30.03,-5.6062e-05,0
30.03,-8.7282e-05,0
30.031,-9.1142e-05,0
30.031,-7.3518e-05,0
30.032,-5.5222e-05,0
30.032,-4.918e-05,0
30.033,-4.5151e-05,0
30.033,-2.6688e-05,0
30.034,4.3641e-06,0
30.034,3.2898e-05,0
30.035,4.7166e-05,0
30.035,4.7837e-05,0
30.036,4.8005e-05,0
30.036,5.7237e-05,0
30.037,6.5629e-05,0
30.038,6.9322e-05,0
30.038,7.1672e-05,0
30.039,7.4022e-05,0
30.039,7.1839e-05,0
30.04,5.9586e-05,0
30.04,4.062e-05,0
30.041,1.5106e-05,0
30.041,-1.3931e-05,0
30.042,-3.8437e-05,0
30.042,-5.7908e-05,0
30.043,-6.865e-05,0
30.043,-5.6901e-05,0
30.044,-2.6184e-05,0
30.044,6.2104e-06,0
30.045,3.5752e-05,0
30.045,5.9922e-05,0
30.046,7.2343e-05,0
30.046,7.4022e-05,0
30.047,7.1672e-05,0
30.047,6.7308e-05,0
30.048,6.2272e-05,0
30.048,6.0258e-05,0
30.049,6.2272e-05,0
30.049,6.2272e-05,0
30.05,5.9922e-05,0
30.05,5.8747e-05,0
30.051,5.9251e-05,0
30.052,5.7069e-05,0
30.052,5.2537e-05,0
30.053,4.9012e-05,0
30.053,4.8173e-05,0
30.054,4.8508e-05,0
30.054,4.3473e-05,0
30.055,3.4409e-05,0
30.055,3.0716e-05,0
30.056,3.0884e-05,0
30.056,2.9374e-05,0
30.057,3.1052e-05,0
30.057,4.0955e-05,0
30.058,5.153e-05,0
30.058,5.5222e-05,0
30.059,5.623e-05,0
30.059,5.6565e-05,0
30.06,6.0761e-05,0
30.06,7.2679e-05,0
30.061,8.3757e-05,0
30.061,8.7785e-05,0
30.062,8.7449e-05,0
30.062,8.7449e-05,0
30.063,9.0135e-05,0
30.063,8.4428e-05,0
30.064,6.7979e-05,0
30.064,5.4887e-05,0
30.065,5.3208e-05,0
30.066,5.3544e-05,0
30.066,4.448e-05,0
30.067,2.182e-05,0
30.067,3.8605e-06,0
30.068,-1.2589e-05,0
30.068,-5.0019e-05,0
30.069,-0.00010843,0
30.069,-0.00017641,0
30.07,-0.00023549,0
30.07,-0.00025563,0
30.071,-0.00022979,0
30.071,-0.00018715,0
30.072,-0.0001613,0
30.072,-0.00016298,0
30.073,-0.00017137,0
30.073,-0.00016164,0
30.074,-0.00013864,0
30.074,-0.00010893,0
30.075,-6.9993e-05,0
30.075,-2.7863e-05,0
30.076,3.5248e-06,0
30.076,1.6617e-05,0
30.077,2.3835e-05,0
30.077,4.1794e-05,0
30.078,7.57e-05,0
30.079,0.00011397,0
30.079,0.00013931,0
30.08,0.00014519,0
30.08,0.00014116,0
30.081,0.00014116,0
30.081,0.00014485,0
30.082,0.00015073,0
30.082,0.0001556,0
30.083,0.00016231,0
30.083,0.00017893,0
30.084,0.00019823,0
30.084,0.00020662,0
30.085,0.00020562,0
30.085,0.00020494,0
30.086,0.00020461,0
30.086,0.00019957,0
30.087,0.00018245,0
30.087,0.00014955,0
30.088,0.00010642,0
30.088,5.3544e-05,0
30.089,-1.1582e-05,0
30.089,-8.191e-05,0
30.09,-0.00013864,0
30.09,-0.0001707,0
30.091,-0.00018379,0
30.091,-0.00019353,0
30.092,-0.00020562,0
30.093,-0.00021149,0
30.093,-0.00019118,0
30.094,-0.00015694,0
30.094,-0.0001326,0
30.095,-0.00011548,0
30.095,-8.5435e-05,0
30.096,-3.4409e-05,0
30.096,1.3596e-05,0
30.097,3.743e-05,0
30.097,4.448e-05,0
30.098,4.2466e-05,0
30.098,3.7934e-05,0
30.099,3.8437e-05,0
30.099,4.2802e-05,0
30.1,4.7333e-05,0
30.1,5.0523e-05,0
30.101,5.3544e-05,0
30.101,5.5726e-05,0
30.102,5.6901e-05,0
30.102,5.6565e-05,0
30.103,5.6901e-05,0
30.103,5.7908e-05,0
30.104,5.5222e-05,0
30.104,5.069e-05,0
30.105,4.7166e-05,0
30.106,4.8173e-05,0
30.106,5.1362e-05,0
30.107,5.5222e-05,0
30.107,5.623e-05,0
30.108,6.1936e-05,0
30.108,7.5029e-05,0
30.109,9.0639e-05,0
30.109,0.00010625,0
30.11,0.00012001,0
30.11,0.00012874,0
30.111,0.00013411,0
30.111,0.00013898,0
30.112,0.00014972,0
30.112,0.0001613,0
30.113,0.00015761,0
30.113,0.00013478,0
30.114,9.6849e-05,0
30.114,5.0523e-05,0
30.115,6.714e-06,0
30.115,-2.8367e-05,0
30.116,-6.009e-05,0
30.116,-9.0974e-05,0
30.117,-0.00012673,0
30.117,-0.00017473,0
30.118,-0.00022609,0
30.119,-0.00025328,0
30.119,-0.00023432,0
30.12,-0.00018329,0
30.12,-0.0001284,0
30.121,-8.7114e-05,0
30.121,-5.7237e-05,0
30.122,-3.1891e-05,0
30.122,-8.3925e-06,0
30.123,1.4267e-05,0
30.123,3.3066e-05,0
30.124,4.3809e-05,0
30.124,5.2033e-05,0
30.125,5.5894e-05,0
30.125,5.7572e-05,0
30.126,5.8915e-05,0
30.126,5.6565e-05,0
30.127,5.3544e-05,0
30.127,5.1698e-05,0
30.128,5.3544e-05,0
30.128,5.7572e-05,0
30.129,6.1601e-05,0
30.129,6.1601e-05,0
30.13,5.8915e-05,0
30.13,5.8076e-05,0
30.131,5.8915e-05,0
30.131,6.0258e-05,0
30.132,5.9419e-05,0
30.133,5.7237e-05,0
30.133,5.5894e-05,0
30.134,5.623e-05,0
30.134,5.4887e-05,0
30.135,5.1698e-05,0
30.135,4.9851e-05,0
30.136,5.0858e-05,0
30.136,5.4887e-05,0
30.137,5.8244e-05,0
30.137,5.9922e-05,0
30.138,6.8147e-05,0
30.138,7.5029e-05,0
30.139,7.6036e-05,0
30.139,7.3518e-05,0
30.14,7.7714e-05,0
30.14,8.8792e-05,0
30.141,9.5506e-05,0
30.141,8.896e-05,0
30.142,7.1168e-05,0
30.142,5.0858e-05,0
30.143,3.2731e-05,0
30.143,1.8463e-05,0
30.144,6.0426e-06,0
30.144,-1.2924e-05,0
30.145,-3.9445e-05,0
30.145,-6.6636e-05,0
30.146,-9.4667e-05,0
30.147,-0.00011917,0
30.147,-0.0001274,0
30.148,-0.00011028,0
30.148,-7.1672e-05,0
30.149,-3.4073e-05,0
30.149,-1.4771e-05,0
30.15,-9.0639e-06,0
30.15,-5.2033e-06,0
30.151,3.5248e-06,0
30.151,1.6953e-05,0
30.152,3.0716e-05,0
30.152,4.5151e-05,0
30.153,6.6133e-05,0
30.153,8.7114e-05,0
30.154,9.6345e-05,0
30.154,9.3828e-05,0
30.155,9.1142e-05,0
30.155,9.1478e-05,0
30.156,8.9799e-05,0
30.156,7.8386e-05,0
30.157,5.3208e-05,0
30.157,2.3667e-05,0
30.158,4.5319e-06,0
30.158,-5.8747e-06,0
30.159,-1.561e-05,0
30.16,-2.7024e-05,0
30.16,-4.0116e-05,0
30.161,-5.4047e-05,0
30.161,-7.0329e-05,0
30.162,-7.805e-05,0
30.162,-5.9754e-05,0
30.163,-1.091e-05,0
30.163,5.3376e-05,0
30.164,0.00010457,0
30.164,0.00012505,0
30.165,0.00012538,0
30.165,0.00011514,0
30.166,9.3828e-05,0
30.166,6.7308e-05,0
30.167,4.0452e-05,0
30.167,1.7624e-05,0
30.168,1.6785e-07,0
30.168,-1.2589e-05,0
30.169,-2.266e-05,0
30.169,-2.501e-05,0
30.17,-2.182e-05,0
30.17,-1.9638e-05,0
30.171,-1.9638e-05,0
30.171,-2.0142e-05,0
30.172,-1.5946e-05,0
30.172,-7.3854e-06,0
30.173,-1.0071e-06,0
30.174,0,0
30.174,-1.0071e-06,0
30.175,-5.0355e-07,0
30.175,7.2175e-06,0
30.176,2.0478e-05,0
30.176,3.0716e-05,0
30.177,4.0116e-05,0
30.177,4.9516e-05,0
30.178,6.1601e-05,0
30.178,7.7714e-05,0
30.179,9.0135e-05,0
30.179,8.7617e-05,0
30.18,7.2007e-05,0
30.18,6.4622e-05,0
30.181,7.5532e-05,0
30.181,8.7617e-05,0
30.182,8.2078e-05,0
30.182,5.9586e-05,0
30.183,2.6688e-05,0
30.183,-1.1414e-05,0
30.184,-3.6759e-05,0
30.184,-4.2466e-05,0
30.185,-3.8941e-05,0
30.185,-3.7095e-05,0
30.186,-3.4409e-05,0
30.187,-2.3499e-05,0
30.187,-1.2924e-05,0
30.188,-2.2828e-05,0
30.188,-5.3544e-05,0
30.189,-8.7282e-05,0
30.189,-0.00011044,0
30.19,-0.00011028,0
30.19,-7.6371e-05,0
30.191,-3.3402e-05,0
30.191,-1.2253e-05,0
30.192,-1.5106e-05,0
30.192,-2.9374e-05,0
30.193,-4.1962e-05,0
30.193,-4.1794e-05,0
30.194,-2.4674e-05,0
30.194,6.5461e-06,0
30.195,4.0116e-05,0
30.195,6.6636e-05,0
30.196,8.04e-05,0
30.196,8.2078e-05,0
30.197,7.5029e-05,0
30.197,6.6133e-05,0
30.198,5.9419e-05,0
30.198,5.5558e-05,0
30.199,4.5319e-05,0
30.2,2.4002e-05,0
30.2,2.182e-06,0
30.201,-1.7121e-05,0
30.201,-3.3066e-05,0
30.202,-3.1556e-05,0
30.202,-6.8818e-06,0
30.203,2.501e-05,0
30.203,4.6326e-05,0
30.204,5.5558e-05,0
30.204,5.7908e-05,0
30.205,5.8579e-05,0
30.205,6.009e-05,0
30.206,6.244e-05,0
30.206,6.3615e-05,0
30.207,6.4286e-05,0
30.207,6.5629e-05,0
30.208,6.63e-05,0
30.208,6.5965e-05,0
30.209,6.1601e-05,0
30.209,5.623e-05,0
30.21,5.4887e-05,0
30.21,5.4215e-05,0
30.211,4.7501e-05,0
30.211,3.9948e-05,0
30.212,3.5752e-05,0
30.212,3.3402e-05,0
30.213,3.3066e-05,0
30.214,3.6759e-05,0
30.214,4.5151e-05,0
30.215,5.623e-05,0
30.215,5.8579e-05,0
30.216,5.1865e-05,0
30.216,4.0116e-05,0
30.217,2.8031e-05,0
30.217,2.501e-05,0
30.218,2.8031e-05,0
30.218,2.7695e-05,0
30.219,2.1317e-05,0
30.219,6.5461e-06,0
30.22,-7.2175e-06,0
30.22,-7.8889e-06,0
30.221,-3.6927e-06,0
30.221,-2.0142e-06,0
30.222,-2.5177e-06,0
30.222,-2.8534e-06,0
30.223,-4.8676e-06,0
30.223,-5.2033e-06,0
30.224,-2.6856e-06,0
30.224,-4.1962e-06,0
30.225,-7.0497e-06,0
30.225,-2.5177e-06,0
30.226,9.5674e-06,0
30.227,2.2324e-05,0
30.227,2.2324e-05,0
30.228,9.0639e-06,0
30.228,-2.8534e-06,0
30.229,-2.5177e-06,0
30.229,1.5274e-05,0
30.23,3.6423e-05,0
30.23,4.7837e-05,0
30.231,4.9851e-05,0
30.231,4.683e-05,0
30.232,4.6494e-05,0
30.232,5.1865e-05,0
30.233,5.7572e-05,0
30.233,5.6733e-05,0
30.234,5.4887e-05,0
30.234,5.4551e-05,0
30.235,5.0523e-05,0
30.235,3.9109e-05,0
30.236,2.7695e-05,0
30.236,2.5849e-05,0
30.237,3.1388e-05,0
30.237,3.743e-05,0
30.238,3.6759e-05,0
30.238,3.0045e-05,0
30.239,1.9638e-05,0
30.239,6.8818e-06,0
30.24,-1.6785e-06,0
30.241,-9.9031e-06,0
30.241,-2.4002e-05,0
30.242,-3.7263e-05,0
30.242,-3.592e-05,0
30.243,-1.7121e-05,0
30.243,4.8676e-06,0
30.244,1.7288e-05,0
30.244,2.3499e-05,0
30.245,2.7863e-05,0
30.245,2.8534e-05,0
30.246,2.5345e-05,0
30.246,2.182e-05,0
30.247,2.4674e-05,0
30.247,3.8605e-05,0
30.248,5.7908e-05,0
30.248,7.0665e-05,0
30.249,6.0258e-05,0
30.249,2.9374e-05,0
30.25,-3.1891e-06,0
30.25,-2.8367e-05,0
30.251,-4.5151e-05,0
30.251,-5.4215e-05,0
30.252,-5.9083e-05,0
30.252,-5.7908e-05,0
30.253,-4.683e-05,0
30.253,-3.2395e-05,0
30.254,-2.2324e-05,0
30.255,-1.8967e-05,0
30.255,-2.417e-05,0
30.256,-2.9877e-05,0
30.256,-2.9709e-05,0
30.257,-2.5345e-05,0
30.257,-2.3163e-05,0
30.258,-1.4435e-05,0
30.258,1.3428e-06,0
30.259,1.9303e-05,0
30.259,4.3305e-05,0
30.26,7.1672e-05,0
30.26,9.2149e-05,0
30.261,0.00010289,0
30.261,0.00011128,0
30.262,0.00011666,0
30.262,0.00012119,0
30.263,0.0001279,0
30.263,0.00013982,0
30.264,0.00015392,0
30.264,0.00016634,0
30.265,0.00017691,0
30.265,0.00018094,0
30.266,0.00017372,0
30.266,0.0001519,0
30.267,0.00011867,0
30.268,8.1407e-05,0
30.268,4.6494e-05,0
30.269,3.5248e-06,0
30.269,-5.4383e-05,0
30.27,-0.00011632,0
30.27,-0.00016953,0
30.271,-0.00020931,0
30.271,-0.00023835,0
30.272,-0.00026319,0
30.272,-0.00026755,0
30.273,-0.00022341,0
30.273,-0.00014015,0
30.274,-6.1433e-05,0
30.274,-1.3931e-05,0
30.275,2.8534e-06,0
30.275,3.8605e-06,0
30.276,1.1246e-05,0
30.276,2.9206e-05,0
30.277,4.9012e-05,0
30.277,6.0258e-05,0
30.278,5.9586e-05,0
30.278,5.3544e-05,0
30.279,5.4047e-05,0
30.279,6.2272e-05,0
30.28,7.5029e-05,0
30.28,9.2317e-05,0
30.281,0.00010524,0
30.282,0.00011028,0
30.282,0.00010726,0
30.283,8.9967e-05,0
30.283,5.9922e-05,0
30.284,1.9974e-05,0
30.284,-2.266e-05,0
30.285,-6.2104e-05,0
30.285,-8.9464e-05,0
30.286,-9.1478e-05,0
30.286,-6.9154e-05,0
30.287,-4.1123e-05,0
30.287,-1.8967e-05,0
30.288,0,0
30.288,1.8967e-05,0
30.289,3.508e-05,0
30.289,4.448e-05,0
30.29,4.2802e-05,0
30.29,3.3906e-05,0
30.291,3.7263e-05,0
30.291,6.63e-05,0
30.292,0.00010591,0
30.292,0.00013663,0
30.293,0.00015341,0
30.293,0.00015392,0
30.294,0.00014083,0
30.295,0.00012303,0
30.295,0.00010591,0
30.296,8.9128e-05,0
30.296,7.4189e-05,0
30.297,5.8244e-05,0
30.297,4.1459e-05,0
30.298,2.9709e-05,0
30.298,2.266e-05,0
30.299,1.7792e-05,0
30.299,1.1917e-05,0
30.3,6.714e-06,0
30.3,6.3783e-06,0
30.301,1.4267e-05,0
30.301,2.3163e-05,0
30.302,2.652e-05,0
30.302,2.5345e-05,0
30.303,2.5177e-05,0
30.303,2.6352e-05,0
30.304,2.8702e-05,0
30.304,3.2731e-05,0
30.305,3.2059e-05,0
30.305,2.6017e-05,0
30.306,1.6449e-05,0
30.306,2.6856e-06,0
30.307,-5.8747e-06,0
30.308,-3.8605e-06,0
30.308,1.8463e-06,0
30.309,1.8463e-06,0
30.309,-4.3641e-06,0
30.31,-1.4603e-05,0
30.31,-1.9974e-05,0
30.311,-1.9974e-05,0
30.311,-2.5345e-05,0
30.312,-3.0549e-05,0
30.312,-2.652e-05,0
30.313,-1.7792e-05,0
30.313,-6.2104e-06,0
30.314,2.8534e-06,0
30.314,-3.0213e-06,0
30.315,-2.1149e-05,0
30.315,-3.2563e-05,0
30.316,-3.4241e-05,0
30.316,-3.9109e-05,0
30.317,-4.7333e-05,0
30.317,-5.0019e-05,0
30.318,-4.4144e-05,0
30.318,-3.5416e-05,0
30.319,-2.8534e-05,0
30.319,-1.796e-05,0
30.32,-1.6785e-06,0
30.32,1.5274e-05,0
30.321,3.1388e-05,0
30.322,4.6494e-05,0
30.322,5.8244e-05,0
30.323,6.5461e-05,0
30.323,6.9657e-05,0
30.324,7.1504e-05,0
30.324,6.7979e-05,0
30.325,6.2776e-05,0
30.325,6.1265e-05,0
30.326,5.8915e-05,0
30.326,5.7069e-05,0
30.327,5.7237e-05,0
30.327,5.3376e-05,0
30.328,4.8173e-05,0
30.328,5.0187e-05,0
30.329,6.009e-05,0
30.329,7.1672e-05,0
30.33,7.9393e-05,0
30.33,8.3421e-05,0
30.331,8.8457e-05,0
30.331,9.6513e-05,0
30.332,0.0001044,0
30.332,0.00010558,0
30.333,9.752e-05,0
30.333,8.1743e-05,0
30.334,6.0929e-05,0
30.334,4.0787e-05,0
30.335,2.0645e-05,0
30.336,-4.5319e-06,0
30.336,-4.1123e-05,0
30.337,-8.7953e-05,0
30.337,-0.00013663,0
30.338,-0.00019185,0
30.338,-0.00025597,0
30.339,-0.00030465,0
30.339,-0.00030465,0
30.34,-0.00024388,0
30.34,-0.00014066,0
30.341,-3.2731e-05,0
30.341,4.9516e-05,0
30.342,9.752e-05,0
30.342,0.00011884,0
30.343,0.00012337,0
30.343,0.00011917,0
30.344,0.00010793,0
30.344,9.3828e-05,0
30.345,8.4092e-05,0
30.345,8.1239e-05,0
30.346,8.275e-05,0
30.346,8.3085e-05,0
30.347,8.3085e-05,0
30.347,8.2582e-05,0
30.348,8.2414e-05,0
30.349,8.4092e-05,0
30.349,9.0806e-05,0
30.35,0.00011095,0
30.35,0.00014217,0
30.351,0.00017406,0
30.351,0.00019152,0
30.352,0.00019269,0
30.352,0.00018144,0
30.353,0.0001608,0
30.353,0.00013462,0
30.354,0.00010692,0
30.354,7.2679e-05,0
30.355,2.8031e-05,0
30.355,-2.7695e-05,0
30.356,-9.9031e-05,0
30.356,-0.00018665,0
30.357,-0.00026302,0
30.357,-0.00028669,0
30.358,-0.00023986,0
30.358,-0.00015106,0
30.359,-6.6804e-05,0
30.359,-1.3931e-05,0
30.36,9.2317e-06,0
30.36,1.5442e-05,0
30.361,1.2924e-05,0
30.361,9.7353e-06,0
30.362,1.0239e-05,0
30.363,1.3092e-05,0
30.363,1.561e-05,0
30.364,1.6785e-05,0
30.364,1.8128e-05,0
30.365,1.5946e-05,0
30.365,1.1246e-05,0
30.366,1.2421e-05,0
30.366,2.0478e-05,0
30.367,3.0549e-05,0
30.367,4.213e-05,0
30.368,5.7069e-05,0
30.368,7.4022e-05,0
30.369,8.9128e-05,0
30.369,9.9199e-05,0
30.37,0.00010709,0
30.37,0.00011498,0
30.371,0.00012186,0
30.371,0.00012824,0
30.372,0.00013008,0
30.372,0.00012438,0
30.373,0.00011397,0
30.373,0.0001039,0
30.374,9.0135e-05,0
30.374,6.5293e-05,0
30.375,2.6017e-05,0
30.376,-1.8631e-05,0
30.376,-5.388e-05,0
30.377,-7.0832e-05,0
30.377,-7.2007e-05,0
30.378,-6.1265e-05,0
30.378,-4.5823e-05,0
30.379,-2.9709e-05,0
30.379,-1.6281e-05,0
30.38,-1.2589e-05,0
30.38,-1.8967e-05,0
30.381,-2.8534e-05,0
30.381,-4.3977e-05,0
30.382,-6.0594e-05,0
30.382,-6.3279e-05,0
30.383,-5.3376e-05,0
30.383,-4.1627e-05,0
30.384,-3.1724e-05,0
30.384,-3.0381e-05,0
30.385,-3.5584e-05,0
30.385,-3.5584e-05,0
30.386,-2.7024e-05,0
30.386,-1.5106e-05,0
30.387,-7.3854e-06,0
30.387,-4.5319e-06,0
30.388,-1.1749e-06,0
30.389,5.0355e-06,0
30.389,1.1246e-05,0
30.39,1.6281e-05,0
30.39,1.7288e-05,0
30.391,1.7288e-05,0
30.391,2.4002e-05,0
30.392,3.8102e-05,0
30.392,4.9348e-05,0
30.393,6.5965e-05,0
30.393,9.5674e-05,0
30.394,0.0001237,0
30.394,0.00013243,0
30.395,0.00012639,0
30.395,0.00012068,0
30.396,0.00012387,0
30.396,0.00012975,0
30.397,0.0001274,0
30.397,0.00010809,0
30.398,7.5868e-05,0
30.398,3.6088e-05,0
30.399,4.8676e-06,0
30.399,-2.8534e-06,0
30.4,2.0142e-06,0
30.4,8.0568e-06,0
30.401,6.8818e-06,0
30.401,-1.5946e-05,0
30.402,-6.2272e-05,0
30.403,-0.00010423,0
30.403,-0.00012102,0
30.404,-0.00011867,0
30.404,-0.0001044,0
30.405,-7.8889e-05,0
30.405,-4.8676e-05,0
30.406,-1.7792e-05,0
30.406,2.5177e-06,0
30.407,7.5532e-06,0
30.407,7.8889e-06,0
30.408,1.8631e-05,0
30.408,3.743e-05,0
30.409,5.7237e-05,0
30.409,6.5965e-05,0
30.41,6.0594e-05,0
30.41,4.8173e-05,0
30.411,3.6423e-05,0
30.411,3.5752e-05,0
30.412,4.9348e-05,0
30.412,7.8721e-05,0
30.413,0.00011632,0
30.413,0.00014385,0
30.414,0.00014788,0
30.414,0.00013075,0
30.415,0.00010709,0
30.416,8.426e-05,0
30.416,6.4286e-05,0
30.417,4.2466e-05,0
30.417,1.796e-05,0
30.418,-7.7211e-06,0
30.418,-2.7359e-05,0
30.419,-3.1724e-05,0
30.419,-2.031e-05,0
30.42,4.3641e-06,0
30.42,3.2395e-05,0
30.421,4.7333e-05,0
30.421,4.7166e-05,0
30.422,3.508e-05,0
30.422,1.9974e-05,0
30.423,1.2421e-05,0
30.423,1.4099e-05,0
30.424,2.031e-05,0
30.424,2.5345e-05,0
30.425,2.8702e-05,0
30.425,2.8702e-05,0
30.426,2.9206e-05,0
30.426,3.4409e-05,0
30.427,4.0116e-05,0
30.427,4.213e-05,0
30.428,4.6494e-05,0
30.428,5.3544e-05,0
30.429,5.8579e-05,0
30.43,5.9922e-05,0
30.43,6.1601e-05,0
30.431,5.6901e-05,0
30.431,3.8773e-05,0
30.432,1.7792e-05,0
30.432,3.5248e-06,0
30.433,-8.3925e-06,0
30.433,-2.5681e-05,0
30.434,-4.8341e-05,0
30.434,-7.2343e-05,0
30.435,-9.4499e-05,0
30.435,-0.00010961,0
30.436,-0.00011162,0
30.436,-9.9031e-05,0
30.437,-8.1743e-05,0
30.437,-7.1672e-05,0
30.438,-7.1336e-05,0
30.438,-5.8915e-05,0
30.439,-2.4506e-05,0
30.439,2.0645e-05,0
30.44,5.2873e-05,0
30.44,6.0929e-05,0
30.441,5.2873e-05,0
30.441,4.2802e-05,0
30.442,3.743e-05,0
30.442,3.5416e-05,0
30.443,3.3234e-05,0
30.444,3.122e-05,0
30.444,3.2059e-05,0
30.445,3.4745e-05,0
30.445,4.0116e-05,0
30.446,4.7166e-05,0
30.446,5.7404e-05,0
30.447,7.5029e-05,0
30.447,9.2485e-05,0
30.448,0.00010138,0
30.448,0.00010172,0
30.449,9.7185e-05,0
30.449,9.0974e-05,0
30.45,7.6707e-05,0
30.45,4.7333e-05,0
30.451,1.3764e-05,0
30.451,-1.1582e-05,0
30.452,-3.0884e-05,0
30.452,-4.7333e-05,0
30.453,-6.5293e-05,0
30.453,-8.1575e-05,0
30.454,-8.1239e-05,0
30.454,-7.0329e-05,0
30.455,-7.3014e-05,0
30.455,-9.3828e-05,0
30.456,-0.00010927,0
30.457,-9.2485e-05,0
30.457,-5.5558e-05,0
30.458,-2.4506e-05,0
30.458,-8.3925e-06,0
30.459,1.8463e-06,0
30.459,1.2589e-05,0
30.46,2.3667e-05,0
30.46,3.5416e-05,0
30.461,4.6159e-05,0
30.461,4.9348e-05,0
30.462,4.683e-05,0
30.462,4.5487e-05,0
30.463,4.918e-05,0
30.463,5.9586e-05,0
30.464,6.9657e-05,0
30.464,7.2343e-05,0
30.465,6.3615e-05,0
30.465,4.9851e-05,0
30.466,4.6662e-05,0
30.466,5.5222e-05,0
30.467,6.244e-05,0
30.467,6.0594e-05,0
30.468,5.3376e-05,0
30.468,4.7837e-05,0
30.469,4.9851e-05,0
30.47,5.8747e-05,0
30.47,6.63e-05,0
30.471,7.335e-05,0
30.471,7.8218e-05,0
30.472,7.8386e-05,0
30.472,7.6371e-05,0
30.473,6.9993e-05,0
30.473,6.2272e-05,0
30.474,6.5629e-05,0
30.474,7.3686e-05,0
30.475,6.6972e-05,0
30.475,4.2466e-05,0
30.476,1.326e-05,0
30.476,-4.1962e-06,0
30.477,-7.2175e-06,0
30.477,-1.0071e-05,0
30.478,-1.0575e-05,0
30.478,1.0575e-05,0
30.479,5.304e-05,0
30.479,8.8121e-05,0
30.48,9.7185e-05,0
30.48,8.896e-05,0
30.481,7.3182e-05,0
30.481,5.0858e-05,0
30.482,2.0981e-05,0
30.482,-6.8818e-06,0
30.483,-2.3331e-05,0
30.484,-2.9206e-05,0
30.484,-2.8367e-05,0
30.485,-2.8534e-05,0
30.485,-3.9109e-05,0
30.486,-5.3208e-05,0
30.486,-6.3447e-05,0
30.487,-6.865e-05,0
30.487,-5.8579e-05,0
30.488,-2.9877e-05,0
30.488,8.2246e-06,0
30.489,4.9851e-05,0
30.489,8.8289e-05,0
30.49,0.00010172,0
30.49,8.4428e-05,0
30.491,6.1265e-05,0
30.491,4.7166e-05,0
30.492,3.743e-05,0
30.492,2.9374e-05,0
30.493,2.2324e-05,0
30.493,1.6617e-05,0
30.494,1.1917e-05,0
30.494,7.2175e-06,0
30.495,3.5248e-06,0
30.495,1.2253e-05,0
30.496,2.8031e-05,0
30.497,3.0549e-05,0
30.497,6.8818e-06,0
30.498,-3.1388e-05,0
30.498,-6.2104e-05,0
30.499,-6.7475e-05,0
30.499,-4.8508e-05,0
30.5,-1.9638e-05,0
30.5,1.2757e-05,0
30.501,5.0187e-05,0
30.501,8.0232e-05,0
30.502,8.9799e-05,0
30.502,8.2078e-05,0
30.503,7.1336e-05,0
30.503,6.9657e-05,0
30.504,7.5532e-05,0
30.504,7.3518e-05,0
30.505,5.623e-05,0
30.505,3.2731e-05,0
30.506,1.5946e-05,0
30.506,9.9031e-06,0
30.507,6.8818e-06,0
30.507,6.5461e-06,0
30.508,9.0639e-06,0
30.508,1.5274e-05,0
30.509,2.4002e-05,0
30.509,2.5177e-05,0
30.51,1.7792e-05,0
30.511,1.091e-05,0
30.511,9.9031e-06,0
30.512,1.2253e-05,0
30.512,1.3931e-05,0
30.513,1.3931e-05,0
30.513,7.8889e-06,0
30.514,-6.8818e-06,0
30.514,-2.4506e-05,0
30.515,-4.2802e-05,0
30.515,-5.7404e-05,0
30.516,-6.3447e-05,0
30.516,-6.2608e-05,0
30.517,-5.8412e-05,0
30.517,-5.5222e-05,0
30.518,-6.1097e-05,0
30.518,-7.1e-05,0
30.519,-7.1e-05,0
30.519,-5.304e-05,0
30.52,-2.2995e-05,0
30.52,1.6785e-06,0
30.521,1.2421e-05,0
30.521,1.4939e-05,0
30.522,1.6281e-05,0
30.522,1.2924e-05,0
30.523,7.0497e-06,0
30.523,2.182e-06,0
30.524,-2.0142e-06,0
30.525,2.0142e-06,0
30.525,1.5274e-05,0
30.526,3.3402e-05,0
30.526,5.0019e-05,0
30.527,5.6901e-05,0
30.527,5.6733e-05,0
30.528,5.6901e-05,0
30.528,6.2776e-05,0
30.529,6.4958e-05,0
30.529,6.2272e-05,0
30.53,6.3951e-05,0
30.53,7.1672e-05,0
30.531,7.9057e-05,0
30.531,7.7714e-05,0
30.532,7.3014e-05,0
30.532,7.0161e-05,0
30.533,6.6972e-05,0
30.533,6.1265e-05,0
30.534,5.623e-05,0
30.534,5.623e-05,0
30.535,5.8915e-05,0
30.535,6.1601e-05,0
30.536,6.949e-05,0
30.536,7.9393e-05,0
30.537,8.275e-05,0
30.538,7.9057e-05,0
30.538,7.3518e-05,0
30.539,6.4958e-05,0
30.539,5.6733e-05,0
30.54,5.1194e-05,0
30.54,4.2466e-05,0
30.541,2.6017e-05,0
30.541,5.2033e-06,0
30.542,-2.3835e-05,0
30.542,-5.7237e-05,0
30.543,-7.4357e-05,0
30.543,-7.3014e-05,0
30.544,-5.8747e-05,0
30.544,-2.4842e-05,0
30.545,2.1988e-05,0
30.545,5.9922e-05,0
30.546,7.1336e-05,0
30.546,6.0258e-05,0
30.547,4.7501e-05,0
30.547,4.7166e-05,0
30.548,4.918e-05,0
30.548,3.5752e-05,0
30.549,8.2246e-06,0
30.549,-1.9471e-05,0
30.55,-3.4577e-05,0
30.55,-4.0452e-05,0
30.551,-4.213e-05,0
30.552,-3.5416e-05,0
30.552,-2.1317e-05,0
30.553,1.3428e-06,0
30.553,3.4577e-05,0
30.554,6.5965e-05,0
30.554,7.7546e-05,0
30.555,7.7043e-05,0
30.555,7.4861e-05,0
30.556,7.2343e-05,0
30.556,6.0929e-05,0
30.557,3.3234e-05,0
30.557,-4.1962e-06,0
30.558,-3.7766e-05,0
30.558,-5.4887e-05,0
30.559,-4.7837e-05,0
30.559,-2.3667e-05,0
30.56,1.091e-05,0
30.56,4.5655e-05,0
30.561,6.7979e-05,0
30.561,6.6972e-05,0
30.562,4.683e-05,0
30.562,3.0549e-05,0
30.563,2.7024e-05,0
30.563,2.5345e-05,0
30.564,1.7624e-05,0
30.565,7.2175e-06,0
30.565,-5.0355e-07,0
30.566,-2.8534e-06,0
30.566,1.1749e-06,0
30.567,9.5674e-06,0
30.567,1.8967e-05,0
30.568,2.6017e-05,0
30.568,3.3234e-05,0
30.569,4.2634e-05,0
30.569,5.0187e-05,0
30.57,5.8076e-05,0
30.57,6.5629e-05,0
30.571,6.5965e-05,0
30.571,6.0761e-05,0
30.572,5.153e-05,0
30.572,3.5416e-05,0
30.573,1.796e-05,0
30.573,9.2317e-06,0
30.574,8.5603e-06,0
30.574,4.1962e-06,0
30.575,-9.0639e-06,0
30.575,-2.266e-05,0
30.576,-2.7024e-05,0
30.576,-3.0381e-05,0
30.577,-3.7934e-05,0
30.578,-4.3137e-05,0
30.578,-4.2466e-05,0
30.579,-4.3473e-05,0
30.579,-5.1194e-05,0
30.58,-5.4383e-05,0
30.58,-4.3977e-05,0
30.581,-2.8702e-05,0
30.581,-2.2492e-05,0
30.582,-3.5584e-05,0
30.582,-6.9657e-05,0
30.583,-9.8695e-05,0
30.583,-9.6513e-05,0
30.584,-7.1336e-05,0
30.584,-3.7263e-05,0
30.585,-1.1749e-06,0
30.585,3.122e-05,0
30.586,5.3208e-05,0
30.586,6.3951e-05,0
30.587,6.7979e-05,0
30.587,6.6636e-05,0
30.588,6.1601e-05,0
30.588,5.6565e-05,0
30.589,5.5558e-05,0
30.589,5.7572e-05,0
30.59,6.0594e-05,0
30.59,6.2104e-05,0
30.591,6.5629e-05,0
30.592,7.2343e-05,0
30.592,7.6036e-05,0
30.593,7.4357e-05,0
30.593,7.1672e-05,0
30.594,7.2007e-05,0
30.594,6.5965e-05,0
30.595,5.1194e-05,0
30.595,3.8437e-05,0
30.596,3.5416e-05,0
30.596,4.3809e-05,0
30.597,5.2201e-05,0
30.597,5.539e-05,0
30.598,6.4286e-05,0
30.598,7.6371e-05,0
30.599,8.2918e-05,0
30.599,8.3421e-05,0
30.6,7.5029e-05,0
30.6,5.6901e-05,0
30.601,4.5151e-05,0
30.601,4.7501e-05,0
30.602,4.5487e-05,0
30.602,2.8702e-05,0
30.603,5.2033e-06,0
30.603,-9.9031e-06,0
30.604,-1.7792e-05,0
30.605,-2.2156e-05,0
30.605,-1.796e-05,0
30.606,-2.8534e-06,0
30.606,1.0239e-05,0
30.607,0,0
30.607,-3.2731e-05,0
30.608,-6.1601e-05,0
30.608,-5.7237e-05,0
30.609,-1.1749e-05,0
30.609,4.3809e-05,0
30.61,7.335e-05,0
30.61,7.7211e-05,0
30.611,6.63e-05,0
30.611,4.8844e-05,0
30.612,2.8702e-05,0
30.612,8.896e-06,0
30.613,1.5106e-06,0
30.613,1.1246e-05,0
30.614,2.3331e-05,0
30.614,2.3163e-05,0
30.615,1.8967e-05,0
30.615,1.9303e-05,0
30.616,2.031e-05,0
30.616,1.5106e-05,0
30.617,8.7282e-06,0
30.617,4.3641e-06,0
30.618,3.1891e-06,0
30.619,6.2104e-06,0
30.619,1.2589e-05,0
30.62,1.6281e-05,0
30.62,1.4267e-05,0
30.621,1.2253e-05,0
30.621,1.3092e-05,0
30.622,1.6281e-05,0
30.622,2.1317e-05,0
30.623,2.4674e-05,0
30.623,2.5345e-05,0
30.624,2.8702e-05,0
30.624,3.3738e-05,0
30.625,4.4816e-05,0
30.625,6.4118e-05,0
30.626,8.5771e-05,0
30.626,0.00010289,0
30.627,0.00011431,0
30.627,0.00012068,0
30.628,0.00012488,0
30.628,0.00013394,0
30.629,0.00014586,0
30.629,0.00014788,0
30.63,0.00013881,0
30.63,0.00012522,0
30.631,0.00010558,0
30.631,7.1e-05,0
30.632,2.652e-05,0
30.633,-1.5946e-05,0
30.633,-5.5222e-05,0
30.634,-9.9199e-05,0
30.634,-0.00014418,0
30.635,-0.0001843,0
30.635,-0.00021619,0
30.636,-0.00023331,0
30.636,-0.00023331,0
30.637,-0.0002219,0
30.637,-0.00020209,0
30.638,-0.00017272,0
30.638,-0.00013982,0
30.639,-0.00011179,0
30.639,-9.2485e-05,0
30.64,-7.4693e-05,0
30.64,-4.3809e-05,0
30.641,-4.3641e-06,0
30.641,2.9206e-05,0
30.642,5.2537e-05,0
30.642,7.2007e-05,0
30.643,8.8457e-05,0
30.643,9.8695e-05,0
30.644,0.00010323,0
30.644,0.00010625,0
30.645,0.00010793,0
30.646,0.0001044,0
30.646,9.9702e-05,0
30.647,9.8527e-05,0
30.647,9.8192e-05,0
30.648,0.00010306,0
30.648,0.00011162,0
30.649,0.00010893,0
30.649,9.3156e-05,0
30.65,8.1575e-05,0
30.65,8.9128e-05,0
30.651,0.0001086,0
30.651,0.0001185,0
30.652,0.00011531,0
30.652,0.00010457,0
30.653,8.3925e-05,0
30.653,4.6662e-05,0
30.654,-7.8889e-06,0
30.654,-6.8818e-05,0
30.655,-0.00010893,0
30.655,-0.00011682,0
30.656,-0.0001086,0
30.656,-0.00010776,0
30.657,-0.00011833,0
30.657,-0.00012253,0
30.658,-9.9199e-05,0
30.659,-4.4144e-05,0
30.659,2.0645e-05,0
30.66,6.8986e-05,0
30.66,8.8121e-05,0
30.661,8.5771e-05,0
30.661,7.9728e-05,0
30.662,7.6036e-05,0
30.662,6.9825e-05,0
30.663,6.1601e-05,0
30.663,5.2201e-05,0
30.664,3.9109e-05,0
30.664,3.0045e-05,0
30.665,2.8367e-05,0
30.665,3.1724e-05,0
30.666,4.1794e-05,0
30.666,4.8676e-05,0
30.667,5.3376e-05,0
30.667,6.1601e-05,0
30.668,7.5364e-05,0
30.668,9.601e-05,0
30.669,0.00012102,0
30.669,0.00013747,0
30.67,0.00013613,0
30.67,0.00012169,0
30.671,9.8695e-05,0
30.671,7.1e-05,0
30.672,4.213e-05,0
30.673,1.2757e-05,0
30.673,-1.2757e-05,0
30.674,-4.4816e-05,0
30.674,-0.00010524,0
30.675,-0.00018665,0
30.675,-0.00025412,0
30.676,-0.00025949,0
30.676,-0.00016818,0
30.677,-2.1653e-05,0
30.677,9.6513e-05,0
30.678,0.00014653,0
30.678,0.00013948,0
30.679,0.00010591,0
30.679,7.1336e-05,0
30.68,5.0523e-05,0
30.68,4.0955e-05,0
30.681,3.4745e-05,0
30.681,3.0716e-05,0
30.682,2.9038e-05,0
30.682,3.3906e-05,0
30.683,3.9109e-05,0
30.683,3.9612e-05,0
30.684,3.8605e-05,0
30.684,3.7766e-05,0
30.685,3.9109e-05,0
30.686,4.0452e-05,0
30.686,3.978e-05,0
30.687,3.6423e-05,0
30.687,3.4073e-05,0
30.688,3.1052e-05,0
30.688,2.501e-05,0
30.689,1.8631e-05,0
30.689,1.5442e-05,0
30.69,1.0407e-05,0
30.69,-1.8463e-06,0
30.691,-8.2246e-06,0
30.691,1.1749e-06,0
30.692,2.887e-05,0
30.692,6.8315e-05,0
30.693,0.00010793,0
30.693,0.00013529,0
30.694,0.00014754,0
30.694,0.0001462,0
30.695,0.00013378,0
30.695,0.00011615,0
30.696,9.8527e-05,0
30.696,8.3085e-05,0
30.697,6.5629e-05,0
30.697,4.5487e-05,0
30.698,1.7288e-05,0
30.698,-2.9709e-05,0
30.699,-8.7953e-05,0
30.7,-0.00012622,0
30.7,-0.0001284,0
30.701,-0.00011565,0
30.701,-0.00011128,0
30.702,-0.00011565,0
30.702,-0.00011699,0
30.703,-0.00011666,0
30.703,-0.00012538,0
30.704,-0.00014368,0
30.704,-0.00014939,0
30.705,-0.00012438,0
30.705,-8.1743e-05,0
30.706,-4.4144e-05,0
30.706,-2.031e-05,0
30.707,-7.5532e-06,0
30.707,1.6785e-07,0
30.708,5.0355e-06,0
30.708,9.9031e-06,0
30.709,1.6617e-05,0
30.709,2.4002e-05,0
30.71,3.0716e-05,0
30.71,3.4409e-05,0
30.711,3.827e-05,0
30.711,4.6159e-05,0
30.712,5.5558e-05,0
30.712,6.4958e-05,0
30.713,6.9657e-05,0
30.714,7.335e-05,0
30.714,7.7043e-05,0
30.715,7.6036e-05,0
30.715,7.2343e-05,0
30.716,6.865e-05,0
30.716,6.6636e-05,0
30.717,7.1672e-05,0
30.717,7.7379e-05,0
30.718,7.8218e-05,0
30.718,7.3686e-05,0
30.719,6.8818e-05,0
30.719,7.0161e-05,0
30.72,7.2679e-05,0
30.72,7.3686e-05,0
30.721,6.949e-05,0
30.721,5.3544e-05,0
30.722,3.7095e-05,0
30.722,2.652e-05,0
30.723,1.9135e-05,0
30.723,2.0813e-05,0
30.724,4.0452e-05,0
30.724,6.3279e-05,0
30.725,7.1839e-05,0
30.725,6.5965e-05,0
30.726,5.623e-05,0
30.727,5.5894e-05,0
30.727,7.9728e-05,0
30.728,0.00012068,0
30.728,0.00014888,0
30.729,0.00014586,0
30.729,0.00011263,0
30.73,6.2943e-05,0
30.73,8.5603e-06,0
30.731,-4.5823e-05,0
30.731,-9.6681e-05,0
30.732,-0.00014083,0
30.732,-0.00018094,0
30.733,-0.00021418,0
30.733,-0.00023046,0
30.734,-0.00021669,0
30.734,-0.00017591,0
30.735,-0.00012639,0
30.735,-8.0735e-05,0
30.736,-2.9709e-05,0
30.736,3.1052e-05,0
30.737,8.2414e-05,0
30.737,0.00010692,0
30.738,0.00010121,0
30.738,8.0064e-05,0
30.739,6.6804e-05,0
30.739,7.2343e-05,0
30.74,8.9464e-05,0
30.741,0.00010658,0
30.741,0.00011531,0
30.742,0.00011128,0
30.742,0.00010356,0
30.743,9.9535e-05,0
30.743,9.7856e-05,0
30.744,9.8527e-05,0
30.744,9.8527e-05,0
30.745,9.2821e-05,0
30.745,8.3925e-05,0
30.746,7.57e-05,0
30.746,6.7811e-05,0
30.747,5.7404e-05,0
30.747,3.7766e-05,0
30.748,1.4267e-05,0
30.748,-2.8534e-06,0
30.749,-1.6617e-05,0
30.749,-3.2059e-05,0
30.75,-4.9516e-05,0
30.75,-6.9322e-05,0
30.751,-9.5842e-05,0
30.751,-0.00012454,0
30.752,-0.00014267,0
30.752,-0.00013848,0
30.753,-0.00010809,0
30.754,-5.9586e-05,0
30.754,-4.1962e-06,0
30.755,4.8844e-05,0
30.755,8.896e-05,0
30.756,0.00010961,0
30.756,0.00011112,0
30.757,0.00010188,0
30.757,8.9799e-05,0
30.758,7.7714e-05,0
30.758,6.9322e-05,0
30.759,6.5293e-05,0
30.759,5.7572e-05,0
30.76,4.683e-05,0
30.76,3.9612e-05,0
30.761,3.4745e-05,0
30.761,2.8534e-05,0
30.762,2.2492e-05,0
30.762,1.9974e-05,0
30.763,1.9303e-05,0
30.763,1.7288e-05,0
30.764,1.3092e-05,0
30.764,1.1749e-05,0
30.765,1.3931e-05,0
30.765,1.8463e-05,0
30.766,2.4002e-05,0
30.767,2.9038e-05,0
30.767,3.1052e-05,0
30.768,3.122e-05,0
30.768,3.1556e-05,0
30.769,3.2059e-05,0
30.769,3.978e-05,0
30.77,4.683e-05,0
30.77,4.8173e-05,0
30.771,4.683e-05,0
30.771,4.1123e-05,0
30.772,3.0716e-05,0
30.772,2.0645e-05,0
30.773,1.1749e-05,0
30.773,3.1891e-06,0
30.774,-8.3925e-07,0
30.774,-3.8605e-06,0
30.775,-1.1582e-05,0
30.775,-2.5849e-05,0
30.776,-3.9445e-05,0
30.776,-4.213e-05,0
30.777,-3.3738e-05,0
30.777,-1.8296e-05,0
30.778,-3.357e-06,0
30.778,9.2317e-06,0
30.779,1.9806e-05,0
30.779,2.8031e-05,0
30.78,3.4409e-05,0
30.781,4.1459e-05,0
30.781,4.918e-05,0
30.782,5.2873e-05,0
30.782,4.918e-05,0
30.783,4.3809e-05,0
30.783,3.508e-05,0
30.784,1.8128e-05,0
30.784,-1.6785e-07,0
30.785,-1.2253e-05,0
30.785,-1.9974e-05,0
30.786,-3.0381e-05,0
30.786,-4.5823e-05,0
30.787,-5.3376e-05,0
30.787,-4.7166e-05,0
30.788,-3.2395e-05,0
30.788,-1.2924e-05,0
30.789,1.2589e-05,0
30.789,3.827e-05,0
30.79,5.7404e-05,0
30.79,6.8315e-05,0
30.791,7.1672e-05,0
30.791,7.2679e-05,0
30.792,7.5364e-05,0
30.792,7.7714e-05,0
30.793,7.6875e-05,0
30.794,7.0329e-05,0
30.794,5.5894e-05,0
30.795,3.9277e-05,0
30.795,2.5345e-05,0
30.796,9.9031e-06,0
30.796,-1.0239e-05,0
30.797,-2.1653e-05,0
30.797,-1.5274e-05,0
30.798,2.5177e-06,0
30.798,1.4435e-05,0
30.799,7.2175e-06,0
30.799,-5.8747e-06,0
30.8,-1.1749e-06,0
30.8,2.1988e-05,0
30.801,4.918e-05,0
30.801,6.2104e-05,0
30.802,5.9922e-05,0
30.802,5.3376e-05,0
30.803,5.2537e-05,0
30.803,5.623e-05,0
30.804,5.1865e-05,0
30.804,3.743e-05,0
30.805,2.266e-05,0
30.805,1.796e-05,0
30.806,1.8631e-05,0
30.806,2.0981e-05,0
30.807,2.3667e-05,0
30.808,2.2324e-05,0
30.808,1.8463e-05,0
30.809,1.3092e-05,0
30.809,2.182e-06,0
30.81,-3.5248e-06,0
30.81,2.182e-06,0
30.811,1.3931e-05,0
30.811,2.6352e-05,0
30.812,3.0716e-05,0
30.812,2.8534e-05,0
30.813,2.9709e-05,0
30.813,3.743e-05,0
30.814,4.3809e-05,0
30.814,3.2563e-05,0
30.815,7.7211e-06,0
30.815,-9.0639e-06,0
30.816,-7.8889e-06,0
30.816,-1.5106e-06,0
30.817,-1.3428e-06,0
30.817,-3.1891e-06,0
30.818,-1.5106e-06,0
30.818,4.5319e-06,0
30.819,6.3783e-06,0
30.819,5.0355e-07,0
30.82,-1.0239e-05,0
30.82,-2.2324e-05,0
30.821,-3.3402e-05,0
30.822,-4.6662e-05,0
30.822,-5.9251e-05,0
30.823,-5.6565e-05,0
30.823,-3.8773e-05,0
30.824,-1.8463e-05,0
30.824,4.3641e-06,0
30.825,2.1988e-05,0
30.825,2.031e-05,0
30.826,4.3641e-06,0
30.826,6.8818e-06,0
30.827,3.743e-05,0
30.827,6.9322e-05,0
30.828,8.3925e-05,0
30.828,8.2918e-05,0
30.829,7.2847e-05,0
30.829,6.0426e-05,0
30.83,5.2705e-05,0
30.83,4.7837e-05,0
30.831,3.8437e-05,0
30.831,2.0981e-05,0
30.832,1.0239e-05,0
30.832,1.2589e-05,0
30.833,2.4338e-05,0
30.833,4.1962e-05,0
30.834,5.7237e-05,0
30.835,6.1936e-05,0
30.835,5.9251e-05,0
30.836,5.2369e-05,0
30.836,3.8437e-05,0
30.837,2.3667e-05,0
30.837,1.3931e-05,0
30.838,6.5461e-06,0
30.838,3.8605e-06,0
30.839,4.5319e-06,0
30.839,7.2175e-06,0
30.84,1.0575e-05,0
30.84,5.2033e-06,0
30.841,-1.326e-05,0
30.841,-2.8199e-05,0
30.842,-2.266e-05,0
30.842,-6.8818e-06,0
30.843,1.1582e-05,0
30.843,2.8702e-05,0
30.844,3.4073e-05,0
30.844,2.6688e-05,0
30.845,1.3596e-05,0
30.845,1.6785e-06,0
30.846,-3.8605e-06,0
30.846,-3.5248e-06,0
30.847,-1.8463e-06,0
30.848,1.1749e-06,0
30.848,6.5461e-06,0
30.849,1.4771e-05,0
30.849,2.6688e-05,0
30.85,3.7095e-05,0
30.85,4.448e-05,0
30.851,5.4215e-05,0
30.851,6.8482e-05,0
30.852,8.5267e-05,0
30.852,9.7017e-05,0
30.853,9.9535e-05,0
30.853,9.7856e-05,0
30.854,9.752e-05,0
30.854,9.7185e-05,0
30.855,9.3828e-05,0
30.855,8.4764e-05,0
30.856,6.7643e-05,0
30.856,4.6159e-05,0
30.857,1.9974e-05,0
30.857,-7.0497e-06,0
30.858,-2.8534e-05,0
30.858,-4.4648e-05,0
30.859,-6.0426e-05,0
30.859,-6.8986e-05,0
30.86,-6.2943e-05,0
30.86,-5.153e-05,0
30.861,-4.5151e-05,0
30.862,-4.2298e-05,0
30.862,-3.4577e-05,0
30.863,-2.3331e-05,0
30.863,-1.4435e-05,0
30.864,-1.091e-05,0
30.864,-9.2317e-06,0
30.865,3.357e-07,0
30.865,1.6617e-05,0
30.866,2.6017e-05,0
30.866,2.8702e-05,0
30.867,3.0045e-05,0
30.867,3.1052e-05,0
30.868,3.3738e-05,0
30.868,4.2802e-05,0
30.869,5.6733e-05,0
30.869,6.8147e-05,0
30.87,7.3686e-05,0
30.87,7.805e-05,0
30.871,7.9057e-05,0
30.871,7.5029e-05,0
30.872,6.5629e-05,0
30.872,4.683e-05,0
30.873,1.1917e-05,0
30.873,-3.8102e-05,0
30.874,-9.1478e-05,0
30.875,-0.00013092,0
30.875,-0.00014569,0
30.876,-0.00012673,0
30.876,-7.9728e-05,0
30.877,-2.9038e-05,0
30.877,1.1917e-05,0
30.878,4.0955e-05,0
30.878,6.1265e-05,0
30.879,8.51e-05,0
30.879,0.00010977,0
30.88,0.00012438,0
30.88,0.00012555,0
30.881,0.00011229,0
30.881,8.9799e-05,0
30.882,6.8315e-05,0
30.882,5.0523e-05,0
30.883,3.7263e-05,0
30.883,3.2059e-05,0
30.884,3.1891e-05,0
30.884,3.2395e-05,0
30.885,3.3738e-05,0
30.885,3.8437e-05,0
30.886,3.9109e-05,0
30.886,3.0549e-05,0
30.887,1.796e-05,0
30.887,8.896e-06,0
30.888,3.357e-06,0
30.889,-1.3428e-06,0
30.889,-3.0213e-06,0
30.89,1.6785e-07,0
30.89,7.5532e-06,0
30.891,2.1317e-05,0
30.891,4.1794e-05,0
30.892,5.7237e-05,0
30.892,6.2943e-05,0
30.893,6.1601e-05,0
30.893,5.8244e-05,0
30.894,5.8076e-05,0
30.894,5.2705e-05,0
30.895,4.062e-05,0
30.895,3.3234e-05,0
30.896,3.6759e-05,0
30.896,3.9109e-05,0
30.897,2.501e-05,0
30.897,1.1749e-06,0
30.898,-2.1653e-05,0
30.898,-3.827e-05,0
30.899,-4.4648e-05,0
30.899,-4.2802e-05,0
30.9,-4.7837e-05,0
30.9,-6.3615e-05,0
30.901,-6.7308e-05,0
30.901,-4.5151e-05,0
30.902,-7.5532e-06,0
30.903,2.9206e-05,0
30.903,5.3544e-05,0
30.904,6.0258e-05,0
30.904,5.8579e-05,0
30.905,5.8915e-05,0
30.905,5.8412e-05,0
30.906,5.0858e-05,0
30.906,3.2563e-05,0
30.907,1.1582e-05,0
30.907,-4.8676e-06,0
30.908,-2.1149e-05,0
30.908,-3.8102e-05,0
30.909,-5.2201e-05,0
30.909,-6.4622e-05,0
30.91,-8.1407e-05,0
30.91,-9.4835e-05,0
30.911,-8.8121e-05,0
30.911,-5.7237e-05,0
30.912,-1.4939e-05,0
30.912,2.9038e-05,0
30.913,6.9993e-05,0
30.913,9.9031e-05,0
30.914,0.00010524,0
30.914,9.7856e-05,0
30.915,9.3156e-05,0
30.916,9.4835e-05,0
30.916,9.8527e-05,0
30.917,0.00010138,0
30.917,9.7856e-05,0
30.918,9.0303e-05,0
30.918,7.805e-05,0
30.919,5.6565e-05,0
30.919,3.0549e-05,0
30.92,5.7069e-06,0
30.92,-1.5778e-05,0
30.921,-3.743e-05,0
30.921,-4.7166e-05,0
30.922,-3.7263e-05,0
30.922,-1.8967e-05,0
30.923,-1.4939e-05,0
30.923,-3.2563e-05,0
30.924,-4.9851e-05,0
30.924,-4.9348e-05,0
30.925,-3.5416e-05,0
30.925,-1.7121e-05,0
30.926,2.182e-06,0
30.926,2.1653e-05,0
30.927,3.2059e-05,0
30.927,2.6352e-05,0
30.928,1.3596e-05,0
30.928,3.357e-06,0
30.929,-2.0142e-06,0
30.93,0,0
30.93,5.2033e-06,0
30.931,-1.1749e-06,0
30.931,-1.796e-05,0
30.932,-2.3667e-05,0
30.932,-5.0355e-06,0
30.933,2.8367e-05,0
30.933,5.6901e-05,0
30.934,7.1e-05,0
30.934,7.7043e-05,0
30.935,7.9728e-05,0
30.935,8.3589e-05,0
30.936,9.0974e-05,0
30.936,0.00010121,0
30.937,0.00010961,0
30.937,0.00011229,0
30.938,0.00011061,0
30.938,0.00010994,0
30.939,0.00011044,0
30.939,0.00010759,0
30.94,0.00010121,0
30.94,9.6178e-05,0
30.941,8.9799e-05,0
30.941,8.3085e-05,0
30.942,7.5532e-05,0
30.943,5.8915e-05,0
30.943,3.0045e-05,0
30.944,-5.539e-06,0
30.944,-3.6088e-05,0
30.945,-5.2369e-05,0
30.945,-5.0858e-05,0
30.946,-4.2969e-05,0
30.946,-5.0858e-05,0
30.947,-8.2078e-05,0
30.947,-0.00011061,0
30.948,-0.00011095,0
30.948,-7.9728e-05,0
30.949,-2.2324e-05,0
30.949,3.9445e-05,0
30.95,8.3757e-05,0
30.95,0.00011011,0
30.951,0.00012505,0
30.951,0.00012303,0
30.952,0.00010977,0
30.952,0.00010188,0
30.953,0.00010491,0
30.953,0.00010423,0
30.954,9.5171e-05,0
30.954,8.6442e-05,0
30.955,7.9896e-05,0
30.956,6.6972e-05,0
30.956,3.7766e-05,0
30.957,-5.0355e-06,0
30.957,-4.9516e-05,0
30.958,-9.0806e-05,0
30.958,-0.00012438,0
30.959,-0.00015174,0
30.959,-0.00017221,0
30.96,-0.00017893,0
30.96,-0.00016684,0
30.961,-0.00013512,0
30.961,-9.0135e-05,0
30.962,-5.2873e-05,0
30.962,-3.6088e-05,0
30.963,-2.3835e-05,0
30.963,-5.0355e-06,0
30.964,1.326e-05,0
30.964,2.3331e-05,0
30.965,2.1149e-05,0
30.965,1.8296e-05,0
30.966,2.3499e-05,0
30.966,3.743e-05,0
30.967,5.304e-05,0
30.967,6.1601e-05,0
30.968,6.3111e-05,0
30.968,6.4286e-05,0
30.969,6.2272e-05,0
30.97,5.9586e-05,0
30.97,6.4958e-05,0
30.971,7.6371e-05,0
30.971,8.4764e-05,0
30.972,8.7114e-05,0
30.972,8.5435e-05,0
30.973,7.9896e-05,0
30.973,7.4693e-05,0
30.974,7.1672e-05,0
30.974,6.5126e-05,0
30.975,5.7572e-05,0
30.975,5.5558e-05,0
30.976,5.3544e-05,0
30.976,5.0858e-05,0
30.977,4.6662e-05,0
30.977,4.2298e-05,0
30.978,4.2802e-05,0
30.978,4.1794e-05,0
30.979,3.8102e-05,0
30.979,3.4409e-05,0
30.98,3.0045e-05,0
30.98,1.8296e-05,0
30.981,-8.896e-06,0
30.981,-3.7766e-05,0
30.982,-5.8412e-05,0
30.983,-8.1575e-05,0
30.983,-0.00011397,0
30.984,-0.00013915,0
30.984,-0.00013948,0
30.985,-0.00011833,0
30.985,-7.6371e-05,0
30.986,-1.6617e-05,0
30.986,3.978e-05,0
30.987,6.8315e-05,0
30.987,6.7643e-05,0
30.988,5.539e-05,0
30.988,4.4816e-05,0
30.989,3.6927e-05,0
30.989,3.0381e-05,0
30.99,2.7359e-05,0
30.99,2.9038e-05,0
30.991,3.3066e-05,0
30.991,3.8102e-05,0
30.992,4.0452e-05,0
30.992,4.213e-05,0
30.993,4.8005e-05,0
30.993,5.7908e-05,0
30.994,6.63e-05,0
30.994,7.1672e-05,0
30.995,7.7043e-05,0
30.995,8.4428e-05,0
30.996,9.0135e-05,0
30.997,8.7449e-05,0
30.997,7.6371e-05,0
30.998,6.6972e-05,0
30.998,6.1936e-05,0
30.999,6.0929e-05,0
30.999,5.9586e-05,0
31,5.5726e-05,0
31,5.3208e-05,0
31.001,4.3137e-05,0
31.001,1.8128e-05,0
31.002,-1.3931e-05,0
31.002,-4.0116e-05,0
31.003,-4.9348e-05,0
31.003,-4.1794e-05,0
31.004,-2.9709e-05,0
31.004,-2.031e-05,0
31.005,-1.4603e-05,0
31.005,-2.3331e-05,0
31.006,-4.8005e-05,0
31.006,-6.7643e-05,0
31.007,-6.4286e-05,0
31.007,-3.9445e-05,0
31.008,-1.091e-05,0
31.008,1.3596e-05,0
31.009,3.3066e-05,0
31.009,4.7333e-05,0
31.01,5.7237e-05,0
31.011,6.1433e-05,0
31.011,6.3279e-05,0
31.012,6.3783e-05,0
31.012,6.4118e-05,0
31.013,6.0761e-05,0
31.013,5.2201e-05,0
31.014,4.448e-05,0
31.014,3.9109e-05,0
31.015,3.6423e-05,0
31.015,3.8773e-05,0
31.016,3.9948e-05,0
31.016,3.1052e-05,0
31.017,9.5674e-06,0
31.017,-5.0355e-06,0
31.018,1.2589e-05,0
31.018,4.7837e-05,0
31.019,6.4958e-05,0
31.019,4.6494e-05,0
31.02,1.0071e-05,0
31.02,-2.5177e-05,0
31.021,-4.3137e-05,0
31.021,-2.8702e-05,0
31.022,7.8889e-06,0
31.022,4.7837e-05,0
31.023,7.9728e-05,0
31.024,9.8863e-05,0
31.024,0.00010776,0
31.025,0.00011229,0
31.025,0.00011431,0
31.026,0.0001133,0
31.026,0.00010021,0
31.027,7.7714e-05,0
31.027,5.5222e-05,0
31.028,3.6591e-05,0
31.028,2.031e-05,0
31.029,8.896e-06,0
31.029,-1.5106e-06,0
31.03,-1.2924e-05,0
31.03,-2.5849e-05,0
31.031,-4.3305e-05,0
31.031,-6.0426e-05,0
31.032,-6.7811e-05,0
31.032,-6.6972e-05,0
31.033,-6.2272e-05,0
31.033,-5.5222e-05,0
31.034,-5.6062e-05,0
31.034,-7.3686e-05,0
31.035,-0.00010088,0
31.035,-0.00012538,0
31.036,-0.00013529,0
31.037,-0.00012303,0
31.037,-9.7688e-05,0
31.038,-7.7714e-05,0
31.038,-6.9154e-05,0
31.039,-5.1194e-05,0
31.039,-1.326e-05,0
31.04,2.182e-05,0
31.04,4.0452e-05,0
31.041,4.5151e-05,0
31.041,4.3809e-05,0
31.042,4.5823e-05,0
31.042,4.9851e-05,0
31.043,4.6326e-05,0
31.043,4.1794e-05,0
31.044,4.5151e-05,0
31.044,5.6062e-05,0
31.045,6.865e-05,0
31.045,7.7546e-05,0
31.046,8.5435e-05,0
31.046,9.366e-05,0
31.047,0.00010121,0
31.047,0.00010591,0
31.048,0.00010256,0
31.048,9.0471e-05,0
31.049,7.3854e-05,0
31.049,5.7908e-05,0
31.05,4.6326e-05,0
31.051,4.4144e-05,0
31.051,5.5558e-05,0
31.052,7.6371e-05,0
31.052,9.6513e-05,0
31.053,0.00010994,0
31.053,0.00011112,0
31.054,9.8863e-05,0
31.054,8.7617e-05,0
31.055,8.8121e-05,0
31.055,9.3828e-05,0
31.056,9.0806e-05,0
31.056,6.6804e-05,0
31.057,3.0884e-05,0
31.057,1.1749e-06,0
31.058,-2.6017e-05,0
31.058,-6.1265e-05,0
31.059,-9.4835e-05,0
31.059,-0.00011363,0
31.06,-0.00012169,0
31.06,-0.00013193,0
31.061,-0.0001472,0
31.061,-0.00014452,0
31.062,-0.00010625,0
31.062,-5.153e-05,0
31.063,-1.3764e-05,0
31.064,2.0142e-06,0
31.064,1.3931e-05,0
31.065,2.8534e-05,0
31.065,3.3402e-05,0
31.066,3.0213e-05,0
31.066,3.2395e-05,0
31.067,4.1459e-05,0
31.067,4.7837e-05,0
31.068,5.3544e-05,0
31.068,5.774e-05,0
31.069,5.623e-05,0
31.069,5.6565e-05,0
31.07,6.4118e-05,0
31.07,7.6875e-05,0
31.071,8.8792e-05,0
31.071,9.4163e-05,0
31.072,0.00010021,0
31.072,0.00011061,0
31.073,0.0001227,0
31.073,0.00013243,0
31.074,0.00012706,0
31.074,9.8863e-05,0
31.075,6.8986e-05,0
31.075,5.6062e-05,0
31.076,5.8244e-05,0
31.076,6.5965e-05,0
31.077,6.6972e-05,0
31.078,5.6901e-05,0
31.078,3.5416e-05,0
31.079,5.7069e-06,0
31.079,-2.7359e-05,0
31.08,-6.1936e-05,0
31.08,-9.1478e-05,0
31.081,-9.987e-05,0
31.081,-8.8457e-05,0
31.082,-7.8386e-05,0
31.082,-7.8721e-05,0
31.083,-7.3854e-05,0
31.083,-5.9586e-05,0
31.084,-4.7166e-05,0
31.084,-3.9948e-05,0
31.085,-3.2059e-05,0
31.085,-1.7456e-05,0
31.086,2.0142e-06,0
31.086,1.9471e-05,0
31.087,2.8367e-05,0
31.087,2.6688e-05,0
31.088,2.4002e-05,0
31.088,2.3667e-05,0
31.089,2.6352e-05,0
31.089,3.3738e-05,0
31.09,4.4984e-05,0
31.09,5.7572e-05,0
31.091,6.949e-05,0
31.092,7.6036e-05,0
31.092,7.57e-05,0
31.093,6.8986e-05,0
31.093,6.5797e-05,0
31.094,6.8818e-05,0
31.094,6.9993e-05,0
31.095,6.6972e-05,0
31.095,5.8244e-05,0
31.096,4.5823e-05,0
31.096,3.2563e-05,0
31.097,1.5274e-05,0
31.097,-2.182e-06,0
31.098,-1.3596e-05,0
31.098,-1.9974e-05,0
31.099,-2.031e-05,0
31.099,-1.3596e-05,0
31.1,-4.8676e-06,0
31.1,-8.3925e-07,0
31.101,8.3925e-07,0
31.101,5.539e-06,0
31.102,1.2253e-05,0
31.102,2.0645e-05,0
31.103,2.8367e-05,0
31.103,3.0716e-05,0
31.104,3.1388e-05,0
31.105,3.2731e-05,0
31.105,2.8702e-05,0
31.106,1.3092e-05,0
31.106,-1.0575e-05,0
31.107,-2.3163e-05,0
31.107,-1.7288e-05,0
31.108,-6.8818e-06,0
31.108,1.6785e-06,0
31.109,9.9031e-06,0
31.109,1.9303e-05,0
31.11,3.6591e-05,0
31.11,5.6733e-05,0
31.111,6.8986e-05,0
31.111,7.1168e-05,0
31.112,6.2943e-05,0
31.112,4.9516e-05,0
31.113,3.7095e-05,0
31.113,2.1317e-05,0
31.114,2.5177e-06,0
31.114,-1.2589e-05,0
31.115,-1.7624e-05,0
31.115,-1.1917e-05,0
31.116,-1.1749e-06,0
31.116,7.8889e-06,0
31.117,1.3931e-05,0
31.117,1.6953e-05,0
31.118,1.7121e-05,0
31.119,1.561e-05,0
31.119,1.5946e-05,0
31.12,2.1653e-05,0
31.12,3.0045e-05,0
31.121,3.7934e-05,0
31.121,4.0787e-05,0
31.122,3.6927e-05,0
31.122,3.0045e-05,0
31.123,2.4674e-05,0
31.123,2.5681e-05,0
31.124,3.4073e-05,0
31.124,4.6662e-05,0
31.125,5.4047e-05,0
31.125,5.0858e-05,0
31.126,4.5151e-05,0
31.126,4.4144e-05,0
31.127,4.7166e-05,0
31.127,4.6159e-05,0
31.128,2.9709e-05,0
31.128,-3.357e-07,0
31.129,-2.4002e-05,0
31.129,-3.1052e-05,0
31.13,-3.5752e-05,0
31.13,-5.7572e-05,0
31.131,-9.3156e-05,0
31.132,-9.5674e-05,0
31.132,-4.918e-05,0
31.133,-4.6998e-06,0
31.133,-1.1749e-06,0
31.134,-2.4674e-05,0
31.134,-4.4816e-05,0
31.135,-4.0452e-05,0
31.135,-2.031e-05,0
31.136,-6.714e-06,0
31.136,2.5177e-06,0
31.137,2.2324e-05,0
31.137,5.2201e-05,0
31.138,8.04e-05,0
31.138,9.987e-05,0
31.139,0.00010961,0
31.139,0.00011263,0
31.14,0.00010675,0
31.14,9.3156e-05,0
31.141,7.9896e-05,0
31.141,7.0161e-05,0
31.142,5.3544e-05,0
31.142,2.7359e-05,0
31.143,-4.1962e-06,0
31.143,-2.4338e-05,0
31.144,-1.5778e-05,0
31.145,1.3596e-05,0
31.145,4.062e-05,0
31.146,4.9851e-05,0
31.146,4.4648e-05,0
31.147,4.3473e-05,0
31.147,5.9586e-05,0
31.148,8.3421e-05,0
31.148,0.00010356,0
31.149,0.00011968,0
31.149,0.00012924,0
31.15,0.00012656,0
31.15,0.00011733,0
31.151,0.00010994,0
31.151,9.9199e-05,0
31.152,7.3014e-05,0
31.152,2.9374e-05,0
31.153,-1.5442e-05,0
31.153,-4.918e-05,0
31.154,-7.4693e-05,0
31.154,-9.9702e-05,0
31.155,-0.00013277,0
31.155,-0.00017087,0
31.156,-0.00019051,0
31.156,-0.00017977,0
31.157,-0.00014939,0
31.157,-0.000118,0
31.158,-0.00010054,0
31.159,-9.1142e-05,0
31.159,-7.4022e-05,0
31.16,-4.1794e-05,0
31.16,-4.1962e-06,0
31.161,2.7863e-05,0
31.161,4.8844e-05,0
31.162,6.3951e-05,0
31.162,7.3014e-05,0
31.163,7.5029e-05,0
31.163,7.57e-05,0
31.164,7.5029e-05,0
31.164,7.5364e-05,0
31.165,7.9057e-05,0
31.165,9.3156e-05,0
31.166,0.00011565,0
31.166,0.00013143,0
31.167,0.00013042,0
31.167,0.00011733,0
31.168,0.00010172,0
31.168,8.7114e-05,0
31.169,7.0161e-05,0
31.169,5.7404e-05,0
31.17,5.5222e-05,0
31.17,5.4887e-05,0
31.171,5.153e-05,0
31.172,4.7501e-05,0
31.172,4.1962e-05,0
31.173,2.3331e-05,0
31.173,-5.0355e-07,0
31.174,-1.561e-05,0
31.174,-2.7024e-05,0
31.175,-5.1865e-05,0
31.175,-8.2918e-05,0
31.176,-9.5171e-05,0
31.176,-7.7043e-05,0
31.177,-4.5823e-05,0
31.177,-3.1724e-05,0
31.178,-4.7333e-05,0
31.178,-6.865e-05,0
31.179,-6.5965e-05,0
31.179,-4.3137e-05,0
31.18,-9.7353e-06,0
31.18,2.3163e-05,0
31.181,4.6998e-05,0
31.181,5.8915e-05,0
31.182,5.9083e-05,0
31.182,5.0187e-05,0
31.183,3.743e-05,0
31.183,3.0381e-05,0
31.184,3.0045e-05,0
31.184,3.5416e-05,0
31.185,4.2802e-05,0
31.186,4.8508e-05,0
31.186,5.0858e-05,0
31.187,5.5894e-05,0
31.187,6.1936e-05,0
31.188,6.4286e-05,0
31.188,6.2943e-05,0
31.189,5.9419e-05,0
31.189,5.5894e-05,0
31.19,5.3376e-05,0
31.19,5.2033e-05,0
31.191,5.1865e-05,0
31.191,4.683e-05,0
31.192,4.0452e-05,0
31.192,4.0452e-05,0
31.193,4.5823e-05,0
31.193,5.0523e-05,0
31.194,5.623e-05,0
31.194,6.8315e-05,0
31.195,8.0735e-05,0
31.195,8.7114e-05,0
31.196,8.1239e-05,0
31.196,6.1936e-05,0
31.197,4.1123e-05,0
31.197,2.9206e-05,0
31.198,2.2995e-05,0
31.198,1.3428e-05,0
31.199,-3.1891e-06,0
31.2,-2.4002e-05,0
31.2,-5.2201e-05,0
31.201,-8.4428e-05,0
31.201,-0.00010608,0
31.202,-0.00011162,0
31.202,-0.00011162,0
31.203,-0.00011447,0
31.203,-0.00010977,0
31.204,-8.2918e-05,0
31.204,-3.9612e-05,0
31.205,1.1749e-06,0
31.205,2.6688e-05,0
31.206,3.5752e-05,0
31.206,3.4577e-05,0
31.207,3.0549e-05,0
31.207,2.5513e-05,0
31.208,1.6449e-05,0
31.208,1.2589e-05,0
31.209,1.9135e-05,0
31.209,3.2059e-05,0
31.21,4.6662e-05,0
31.21,5.4551e-05,0
31.211,5.4887e-05,0
31.211,5.623e-05,0
31.212,6.1265e-05,0
31.213,6.4286e-05,0
31.213,6.3447e-05,0
31.214,5.8244e-05,0
31.214,4.9516e-05,0
31.215,4.4816e-05,0
31.215,4.448e-05,0
31.216,4.5991e-05,0
31.216,4.4816e-05,0
31.217,4.4816e-05,0
31.217,5.4887e-05,0
31.218,7.1e-05,0
31.218,7.8721e-05,0
31.219,7.3518e-05,0
31.219,6.3279e-05,0
31.22,5.6901e-05,0
31.22,5.8244e-05,0
31.221,6.3951e-05,0
31.221,6.9657e-05,0
31.222,7.1672e-05,0
31.222,6.8986e-05,0
31.223,6.8315e-05,0
31.223,7.3014e-05,0
31.224,8.2078e-05,0
31.224,8.6107e-05,0
31.225,8.2414e-05,0
31.226,7.5029e-05,0
31.226,6.6804e-05,0
31.227,5.2369e-05,0
31.227,2.6352e-05,0
31.228,-1.0575e-05,0
31.228,-3.7095e-05,0
31.229,-4.6662e-05,0
31.229,-4.8341e-05,0
31.23,-5.5055e-05,0
31.23,-7.8889e-05,0
31.231,-0.00011632,0
31.231,-0.00014553,0
31.232,-0.00015056,0
31.232,-0.0001373,0
31.233,-0.00011212,0
31.233,-8.0064e-05,0
31.234,-4.4144e-05,0
31.234,-1.1414e-05,0
31.235,1.4939e-05,0
31.235,3.4577e-05,0
31.236,4.8173e-05,0
31.236,5.3544e-05,0
31.237,5.2537e-05,0
31.237,5.1362e-05,0
31.238,5.069e-05,0
31.238,5.304e-05,0
31.239,5.8915e-05,0
31.24,6.4286e-05,0
31.24,6.63e-05,0
31.241,6.5965e-05,0
31.241,5.9586e-05,0
31.242,5.0858e-05,0
31.242,4.0787e-05,0
31.243,2.8031e-05,0
31.243,1.9303e-05,0
31.244,1.4771e-05,0
31.244,1.3596e-05,0
31.245,1.326e-05,0
31.245,8.5603e-06,0
31.246,3.1891e-06,0
31.246,7.0497e-06,0
31.247,2.031e-05,0
31.247,3.2059e-05,0
31.248,3.6591e-05,0
31.248,3.6088e-05,0
31.249,3.2395e-05,0
31.249,2.4002e-05,0
31.25,1.4771e-05,0
31.25,1.4267e-05,0
31.251,2.6688e-05,0
31.251,4.4984e-05,0
31.252,5.4551e-05,0
31.253,5.0523e-05,0
31.253,4.3977e-05,0
31.254,4.3809e-05,0
31.254,4.1962e-05,0
31.255,2.3667e-05,0
31.255,-3.8605e-06,0
31.256,-1.8296e-05,0
31.256,-1.091e-05,0
31.257,8.5603e-06,0
31.257,2.4842e-05,0
31.258,2.6017e-05,0
31.258,1.3764e-05,0
31.259,-5.539e-06,0
31.259,-2.9709e-05,0
31.26,-5.388e-05,0
31.26,-7.335e-05,0
31.261,-8.04e-05,0
31.261,-6.9993e-05,0
31.262,-4.8676e-05,0
31.262,-2.8367e-05,0
31.263,-1.5274e-05,0
31.263,-2.3499e-06,0
31.264,9.7353e-06,0
31.264,1.796e-05,0
31.265,2.9709e-05,0
31.265,4.6494e-05,0
31.266,6.3279e-05,0
31.267,7.4861e-05,0
31.267,7.6204e-05,0
31.268,6.9657e-05,0
31.268,6.6804e-05,0
31.269,7.7211e-05,0
31.269,9.5171e-05,0
31.27,0.00010793,0
31.27,0.0001044,0
31.271,8.896e-05,0
31.271,7.9057e-05,0
31.272,8.275e-05,0
31.272,8.9799e-05,0
31.273,8.9632e-05,0
31.273,7.8386e-05,0
31.274,5.8579e-05,0
31.274,3.4577e-05,0
31.275,2.5177e-06,0
31.275,-2.8031e-05,0
31.276,-4.4816e-05,0
31.276,-4.7166e-05,0
31.277,-4.7669e-05,0
31.277,-6.7643e-05,0
31.278,-0.00010256,0
31.278,-0.00012857,0
31.279,-0.00012387,0
31.279,-9.3492e-05,0
31.28,-5.2369e-05,0
31.281,-1.6281e-05,0
31.281,3.5248e-06,0
31.282,1.3931e-05,0
31.282,3.0549e-05,0
31.283,4.9851e-05,0
31.283,5.7404e-05,0
31.284,5.2873e-05,0
31.284,4.4984e-05,0
31.285,3.743e-05,0
31.285,2.9206e-05,0
31.286,1.9974e-05,0
31.286,1.4099e-05,0
31.287,1.7121e-05,0
31.287,2.3499e-05,0
31.288,1.8463e-05,0
31.288,8.2246e-06,0
31.289,8.2246e-06,0
31.289,2.1988e-05,0
31.29,4.0787e-05,0
31.29,6.009e-05,0
31.291,6.949e-05,0
31.291,6.9154e-05,0
31.292,6.7979e-05,0
31.292,7.0161e-05,0
31.293,6.865e-05,0
31.294,5.8579e-05,0
31.294,4.8173e-05,0
31.295,4.4144e-05,0
31.295,4.448e-05,0
31.296,4.6494e-05,0
31.296,4.448e-05,0
31.297,3.7095e-05,0
31.297,3.5584e-05,0
31.298,3.9612e-05,0
31.298,4.0452e-05,0
31.299,3.508e-05,0
31.299,2.7863e-05,0
31.3,2.5513e-05,0
31.3,3.2563e-05,0
31.301,4.5151e-05,0
31.301,5.4215e-05,0
31.302,5.623e-05,0
31.302,5.623e-05,0
31.303,5.3544e-05,0
31.303,4.8173e-05,0
31.304,4.0955e-05,0
31.304,3.4409e-05,0
31.305,2.8534e-05,0
31.305,1.9303e-05,0
31.306,6.8818e-06,0
31.306,-6.2104e-06,0
31.307,-2.1653e-05,0
31.308,-3.508e-05,0
31.308,-4.4648e-05,0
31.309,-5.4551e-05,0
31.309,-6.3615e-05,0
31.31,-6.8147e-05,0
31.31,-6.5293e-05,0
31.311,-5.2201e-05,0
31.311,-3.3066e-05,0
31.312,-7.2175e-06,0
31.312,2.501e-05,0
31.313,5.4719e-05,0
31.313,6.9657e-05,0
31.314,6.9657e-05,0
31.314,6.0258e-05,0
31.315,5.0858e-05,0
31.315,4.8676e-05,0
31.316,5.2201e-05,0
31.316,6.0761e-05,0
31.317,7.0832e-05,0
31.317,7.8386e-05,0
31.318,8.5435e-05,0
31.318,9.4499e-05,0
31.319,0.00010692,0
31.319,0.00011934,0
31.32,0.00012337,0
31.321,0.00011464,0
31.321,0.00010457,0
31.322,0.00010289,0
31.322,9.9535e-05,0
31.323,8.4764e-05,0
31.323,5.8747e-05,0
31.324,2.5177e-05,0
31.324,-1.6449e-05,0
31.325,-6.5461e-05,0
31.325,-0.00012706,0
31.326,-0.00019806,0
31.326,-0.00025698,0
31.327,-0.00027141,0
31.327,-0.00023449,0
31.328,-0.00018128,0
31.328,-0.00013848,0
31.329,-0.00010356,0
31.329,-6.2943e-05,0
31.33,-1.7121e-05,0
31.33,2.1317e-05,0
31.331,4.5151e-05,0
31.331,5.5894e-05,0
31.332,5.9586e-05,0
31.332,5.8915e-05,0
31.333,5.623e-05,0
31.334,5.153e-05,0
31.334,4.5319e-05,0
31.335,4.2802e-05,0
31.335,4.5991e-05,0
31.336,5.0187e-05,0
31.336,5.2201e-05,0
31.337,5.0355e-05,0
31.337,4.3641e-05,0
31.338,3.8773e-05,0
31.338,4.1459e-05,0
31.339,4.9348e-05,0
31.339,5.539e-05,0
31.34,5.4047e-05,0
31.34,4.8844e-05,0
31.341,4.7166e-05,0
31.341,5.1698e-05,0
31.342,5.8915e-05,0
31.342,6.2943e-05,0
31.343,6.0258e-05,0
31.343,5.623e-05,0
31.344,5.0523e-05,0
31.344,3.9277e-05,0
31.345,2.8367e-05,0
31.345,2.0981e-05,0
31.346,1.7624e-05,0
31.346,1.8631e-05,0
31.347,1.561e-05,0
31.348,5.2033e-06,0
31.348,2.5177e-06,0
31.349,1.3931e-05,0
31.349,2.7359e-05,0
31.35,3.3066e-05,0
31.35,3.4073e-05,0
31.351,3.5248e-05,0
31.351,3.8102e-05,0
31.352,4.062e-05,0
31.352,4.0787e-05,0
31.353,4.3473e-05,0
31.353,4.683e-05,0
31.354,4.6159e-05,0
31.354,4.5319e-05,0
31.355,4.6159e-05,0
31.355,4.7837e-05,0
31.356,4.3641e-05,0
31.356,3.3066e-05,0
31.357,2.4842e-05,0
31.357,2.0645e-05,0
31.358,1.3092e-05,0
31.358,-3.8605e-06,0
31.359,-2.4842e-05,0
31.359,-2.7695e-05,0
31.36,-4.1962e-06,0
31.36,3.3066e-05,0
31.361,6.4958e-05,0
31.362,8.3925e-05,0
31.362,9.4331e-05,0
31.363,9.5171e-05,0
31.363,8.5435e-05,0
31.364,5.8579e-05,0
31.364,1.2924e-05,0
31.365,-3.508e-05,0
31.365,-6.6636e-05,0
31.366,-8.3421e-05,0
31.366,-0.00010037,0
31.367,-0.00012018,0
31.367,-0.00011296,0
31.368,-5.9419e-05,0
31.368,1.5778e-05,0
31.369,6.5293e-05,0
31.369,6.7979e-05,0
31.37,3.8773e-05,0
31.37,7.2175e-06,0
31.371,-3.8605e-06,0
31.371,1.6785e-07,0
31.372,2.5177e-06,0
31.372,-5.0355e-07,0
31.373,-3.6927e-06,0
31.373,-4.5319e-06,0
31.374,-1.5106e-06,0
31.375,6.5461e-06,0
31.375,1.1917e-05,0
31.376,5.0355e-06,0
31.376,-2.1317e-05,0
31.377,-5.4215e-05,0
31.377,-6.1265e-05,0
31.378,-2.031e-05,0
31.378,6.1936e-05,0
31.379,0.00014116,0
31.379,0.0001796,0
31.38,0.00018111,0
31.38,0.00016416,0
31.381,0.00014267,0
31.381,0.00012136,0
31.382,9.2317e-05,0
31.382,5.6901e-05,0
31.383,2.6184e-05,0
31.383,3.8605e-06,0
31.384,-1.4267e-05,0
31.384,-3.2059e-05,0
31.385,-4.7669e-05,0
31.385,-6.0761e-05,0
31.386,-7.1504e-05,0
31.386,-7.3686e-05,0
31.387,-6.4958e-05,0
31.387,-4.9516e-05,0
31.388,-2.9374e-05,0
31.389,-9.2317e-06,0
31.389,8.5603e-06,0
31.39,2.3331e-05,0
31.39,3.2731e-05,0
31.391,3.4073e-05,0
31.391,2.9374e-05,0
31.392,2.3667e-05,0
31.392,1.9471e-05,0
31.393,1.8631e-05,0
31.393,2.182e-05,0
31.394,2.4338e-05,0
31.394,2.5177e-05,0
31.395,2.8702e-05,0
31.395,3.4745e-05,0
31.396,4.2298e-05,0
31.396,5.0858e-05,0
31.397,5.7572e-05,0
31.397,6.0761e-05,0
31.398,6.1936e-05,0
31.398,6.0258e-05,0
31.399,5.4215e-05,0
31.399,4.5151e-05,0
31.4,3.827e-05,0
31.4,3.5416e-05,0
31.401,3.4745e-05,0
31.402,3.4073e-05,0
31.402,3.5416e-05,0
31.403,3.3234e-05,0
31.403,2.2828e-05,0
31.404,1.1414e-05,0
31.404,2.8534e-06,0
31.405,-8.3925e-07,0
31.405,1.8463e-06,0
31.406,3.8605e-06,0
31.406,1.5106e-06,0
31.407,-1.6785e-06,0
31.407,-5.0355e-06,0
31.408,-5.2033e-06,0
31.408,-3.8605e-06,0
31.409,1.6785e-06,0
31.409,8.896e-06,0
31.41,1.3931e-05,0
31.41,1.6449e-05,0
31.411,1.5946e-05,0
31.411,1.5946e-05,0
31.412,1.8463e-05,0
31.412,2.3835e-05,0
31.413,2.9541e-05,0
31.413,3.4577e-05,0
31.414,3.8102e-05,0
31.415,3.9445e-05,0
31.415,4.2466e-05,0
31.416,5.0858e-05,0
31.416,5.9586e-05,0
31.417,6.3279e-05,0
31.417,6.4622e-05,0
31.418,6.3279e-05,0
31.418,5.7908e-05,0
31.419,5.304e-05,0
31.419,4.8173e-05,0
31.42,4.0787e-05,0
31.42,3.4073e-05,0
31.421,2.7024e-05,0
31.421,1.8967e-05,0
31.422,9.2317e-06,0
31.422,-5.2033e-06,0
31.423,-2.0981e-05,0
31.423,-2.9374e-05,0
31.424,-2.7695e-05,0
31.424,-2.4002e-05,0
31.425,-2.4002e-05,0
31.425,-3.4745e-05,0
31.426,-5.2033e-05,0
31.426,-6.1936e-05,0
31.427,-5.4551e-05,0
31.427,-3.3066e-05,0
31.428,-7.7211e-06,0
31.429,1.7288e-05,0
31.429,3.978e-05,0
31.43,4.8508e-05,0
31.43,3.4073e-05,0
31.431,1.0575e-05,0
31.431,-1.0071e-05,0
31.432,-3.2898e-05,0
31.432,-6.865e-05,0
31.433,-0.00010289,0
31.433,-0.00010608,0
31.434,-7.1336e-05,0
31.434,-1.2757e-05,0
31.435,4.9851e-05,0
31.435,9.3828e-05,0
31.436,0.00010776,0
31.436,0.00010323,0
31.437,9.601e-05,0
31.437,8.9799e-05,0
31.438,9.2485e-05,0
31.438,0.00010054,0
31.439,0.00010726,0
31.439,0.00010726,0
31.44,0.00010558,0
31.44,0.00010826,0
31.441,0.00011061,0
31.442,0.00010323,0
31.442,8.7785e-05,0
31.443,6.8986e-05,0
31.443,4.4816e-05,0
31.444,9.9031e-06,0
31.444,-2.7024e-05,0
31.445,-4.918e-05,0
31.445,-5.1865e-05,0
31.446,-4.4984e-05,0
31.446,-5.0187e-05,0
31.447,-7.8721e-05,0
31.447,-0.00010239,0
31.448,-8.3085e-05,0
31.448,-2.501e-05,0
31.449,3.6088e-05,0
31.449,7.7211e-05,0
31.45,0.00010323,0
31.45,0.00012387,0
31.451,0.00013411,0
31.451,0.00012572,0
31.452,0.00010256,0
31.452,8.0064e-05,0
31.453,6.3447e-05,0
31.453,5.1865e-05,0
31.454,4.7501e-05,0
31.454,4.8005e-05,0
31.455,4.8173e-05,0
31.456,4.7669e-05,0
31.456,4.6326e-05,0
31.457,4.5487e-05,0
31.457,4.9851e-05,0
31.458,5.7908e-05,0
31.458,6.0761e-05,0
31.459,5.2201e-05,0
