2.0193,0.00023835,0
2.0198,0.00028753,0
2.0203,0.00028383,0
2.0208,0.00023482,0
2.0214,0.00017507,0
2.0219,0.00012639,0
2.0224,8.04e-05,0
2.0229,3.4577e-05,0
2.0234,1.0575e-05,0
2.024,9.7353e-06,0
2.0245,1.6953e-05,0
2.025,2.4002e-05,0
2.0255,2.7695e-05,0
2.026,2.8367e-05,0
2.0266,2.4002e-05,0
2.0271,1.0071e-05,0
2.0276,-5.8747e-06,0
2.0281,-1.6953e-05,0
2.0286,-2.501e-05,0
2.0292,-3.3066e-05,0
2.0297,-4.213e-05,0
2.0302,-4.6998e-05,0
2.0307,-4.0452e-05,0
2.0312,-2.3331e-05,0
2.0318,-6.2104e-06,0
2.0323,8.5603e-06,0
2.0328,2.4338e-05,0
2.0333,3.8773e-05,0
2.0338,4.7501e-05,0
2.0343,4.5151e-05,0
2.0349,3.2059e-05,0
2.0354,9.2317e-06,0
2.0359,-1.2253e-05,0
2.0364,-2.266e-05,0
2.0369,-1.4771e-05,0
2.0375,5.539e-06,0
2.038,1.4099e-05,0
2.0385,5.0355e-07,0
2.039,-2.0478e-05,0
2.0395,-3.2731e-05,0
2.0401,-3.2731e-05,0
2.0406,-3.5416e-05,0
2.0411,-6.3447e-05,0
2.0416,-0.00010155,0
2.0421,-0.00011917,0
2.0427,-0.00011044,0
2.0432,-9.6178e-05,0
2.0437,-8.6778e-05,0
2.0442,-7.335e-05,0
2.0447,-4.3977e-05,0
2.0452,5.2033e-06,0
2.0458,5.8244e-05,0
2.0463,9.3156e-05,0
2.0468,0.00010524,0
2.0473,9.8863e-05,0
2.0478,8.51e-05,0
2.0484,7.7043e-05,0
2.0489,7.1672e-05,0
2.0494,5.9419e-05,0
2.0499,4.683e-05,0
2.0504,4.4144e-05,0
2.051,4.2634e-05,0
2.0515,3.6759e-05,0
2.052,3.9109e-05,0
2.0525,5.0858e-05,0
2.053,5.8579e-05,0
2.0536,4.9851e-05,0
2.0541,2.501e-05,0
2.0546,-5.0355e-07,0
2.0551,-2.1653e-05,0
2.0556,-4.1962e-05,0
2.0562,-5.2033e-05,0
2.0567,-4.4984e-05,0
2.0572,-2.7359e-05,0
2.0577,-1.2589e-05,0
2.0582,-1.2924e-05,0
2.0587,-1.8296e-05,0
2.0593,-1.2924e-05,0
2.0598,5.2033e-06,0
2.0603,2.6017e-05,0
2.0608,4.4144e-05,0
2.0613,5.9251e-05,0
2.0619,7.0161e-05,0
2.0624,6.7308e-05,0
2.0629,5.3376e-05,0
2.0634,5.0858e-05,0
2.0639,7.0832e-05,0
2.0645,9.0135e-05,0
2.065,8.7114e-05,0
2.0655,6.1265e-05,0
2.066,3.508e-05,0
2.0665,2.6017e-05,0
2.0671,3.5416e-05,0
2.0676,5.0187e-05,0
2.0681,5.623e-05,0
2.0686,5.304e-05,0
2.0691,4.7333e-05,0
2.0697,4.6494e-05,0
2.0702,5.539e-05,0
2.0707,6.9322e-05,0
2.0712,7.7714e-05,0
2.0717,7.5029e-05,0
2.0722,6.0594e-05,0
2.0728,3.7934e-05,0
2.0733,8.2246e-06,0
2.0738,-3.9948e-05,0
2.0743,-0.00010642,0
2.0748,-0.00015962,0
2.0754,-0.00017473,0
2.0759,-0.0001566,0
2.0764,-0.00012891,0
2.0769,-0.00010625,0
2.0774,-8.0232e-05,0
2.078,-4.0452e-05,0
2.0785,1.7288e-05,0
2.079,9.1814e-05,0
2.0795,0.00017943,0
2.08,0.00025614,0
2.0806,0.00029323,0
2.0811,0.00027695,0
2.0816,0.00021871,0
2.0821,0.00014569,0
2.0826,8.1407e-05,0
2.0832,3.7263e-05,0
2.0837,1.0071e-05,0
2.0842,-9.9031e-06,0
2.0847,-2.6017e-05,0
2.0852,-3.4745e-05,0
2.0857,-3.9109e-05,0
2.0863,-3.743e-05,0
2.0868,-2.182e-05,0
2.0873,-5.0355e-07,0
2.0878,1.1749e-05,0
2.0883,-2.5177e-06,0
2.0889,-3.2227e-05,0
2.0894,-4.8676e-05,0
2.0899,-4.7837e-05,0
2.0904,-3.508e-05,0
2.0909,-1.2421e-05,0
2.0915,1.326e-05,0
2.092,2.9709e-05,0
2.0925,3.5416e-05,0
2.093,4.2802e-05,0
2.0935,5.9922e-05,0
2.0941,7.2343e-05,0
2.0946,6.5461e-05,0
2.0951,5.1698e-05,0
2.0956,4.918e-05,0
2.0961,5.2201e-05,0
2.0967,4.3473e-05,0
2.0972,2.7024e-05,0
2.0977,2.266e-05,0
2.0982,3.508e-05,0
2.0987,4.6998e-05,0
2.0993,3.7263e-05,0
2.0998,4.5319e-06,0
2.1003,-3.2395e-05,0
2.1008,-6.1265e-05,0
2.1013,-8.2414e-05,0
2.1018,-9.8863e-05,0
2.1024,-0.00010558,0
2.1029,-9.7185e-05,0
2.1034,-7.8721e-05,0
2.1039,-5.9922e-05,0
2.1044,-3.8437e-05,0
2.105,-7.5532e-06,0
2.1055,1.326e-05,0
2.106,3.1891e-06,0
2.1065,-2.5681e-05,0
2.107,-5.1194e-05,0
2.1076,-6.5293e-05,0
2.1081,-7.3686e-05,0
2.1086,-7.2343e-05,0
2.1091,-5.2201e-05,0
2.1096,-1.2924e-05,0
2.1102,3.9445e-05,0
2.1107,9.2821e-05,0
2.1112,0.00014519,0
2.1117,0.00020192,0
2.1122,0.00024791,0
2.1128,0.00025194,0
2.1133,0.00020629,0
2.1138,0.00014083,0
2.1143,7.6036e-05,0
2.1148,4.1962e-06,0
2.1153,-7.1336e-05,0
2.1159,-0.00011817,0
2.1164,-0.00011347,0
2.1169,-6.6636e-05,0
2.1174,-5.539e-06,0
2.1179,4.0116e-05,0
2.1185,6.2943e-05,0
2.119,7.9728e-05,0
2.1195,0.00011061,0
2.12,0.0001655,0
2.1205,0.00022945,0
2.1211,0.00026671,0
2.1216,0.00025563,0
2.1221,0.00020259,0
2.1226,0.00012857,0
2.1231,5.4551e-05,0
2.1237,-6.5461e-06,0
2.1242,-4.0787e-05,0
2.1247,-4.0116e-05,0
2.1252,-2.1653e-05,0
2.1257,-4.8676e-06,0
2.1263,4.0284e-06,0
2.1268,-5.0355e-07,0
2.1273,-1.3596e-05,0
2.1278,-2.1317e-05,0
2.1283,-1.8967e-05,0
2.1288,-8.7282e-06,0
2.1294,1.0071e-06,0
2.1299,-8.7282e-06,0
2.1304,-4.6494e-05,0
2.1309,-8.4092e-05,0
2.1314,-9.7017e-05,0
2.132,-9.6849e-05,0
2.1325,-0.00010004,0
2.133,-0.00010356,0
2.1335,-0.00010306,0
2.134,-9.5338e-05,0
2.1346,-8.0064e-05,0
2.1351,-5.9922e-05,0
2.1356,-4.1459e-05,0
2.1361,-3.4409e-05,0
2.1366,-3.7095e-05,0
2.1372,-3.7263e-05,0
2.1377,-2.031e-05,0
2.1382,1.0575e-05,0
2.1387,3.6088e-05,0
2.1392,3.5584e-05,0
2.1397,2.3331e-05,0
2.1403,3.1052e-05,0
2.1408,6.5293e-05,0
2.1413,0.00010658,0
2.1418,0.00013646,0
2.1423,0.00014603,0
2.1429,0.00013243,0
2.1434,0.00010356,0
2.1439,7.3518e-05,0
2.1444,6.0258e-05,0
2.1449,6.3279e-05,0
2.1455,5.9754e-05,0
2.146,3.4409e-05,0
2.1465,-1.1582e-05,0
2.147,-5.153e-05,0
2.1475,-5.7237e-05,0
2.1481,-3.8437e-05,0
2.1486,-2.9206e-05,0
2.1491,-3.1052e-05,0
2.1496,-3.3234e-05,0
2.1501,-4.3137e-05,0
2.1507,-5.7237e-05,0
2.1512,-5.9251e-05,0
2.1517,-4.7166e-05,0
2.1522,-2.3163e-05,0
2.1527,8.896e-06,0
2.1532,4.4144e-05,0
2.1538,8.04e-05,0
2.1543,0.00011112,0
2.1548,0.00013394,0
2.1553,0.00014318,0
2.1558,0.00013394,0
2.1564,0.00012035,0
2.1569,0.00010726,0
2.1574,8.4428e-05,0
2.1579,5.1698e-05,0
2.1584,2.182e-05,0
2.159,7.8889e-06,0
2.1595,1.3092e-05,0
2.16,2.501e-05,0
2.1605,2.4338e-05,0
2.161,7.0497e-06,0
2.1616,-1.2924e-05,0
2.1621,-2.0478e-05,0
2.1626,-1.4603e-05,0
2.1631,1.0071e-06,0
2.1636,2.0981e-05,0
2.1642,1.9806e-05,0
2.1647,-7.2175e-06,0
2.1652,-3.827e-05,0
2.1657,-5.0355e-05,0
2.1662,-3.1556e-05,0
2.1667,5.0355e-07,0
2.1673,1.4603e-05,0
2.1678,5.539e-06,0
2.1683,-8.5603e-06,0
2.1688,-1.796e-05,0
2.1693,-8.2246e-06,0
2.1699,2.7695e-05,0
2.1704,6.7643e-05,0
2.1709,9.0471e-05,0
2.1714,9.2485e-05,0
2.1719,8.0064e-05,0
2.1725,6.2943e-05,0
2.173,5.8915e-05,0
2.1735,6.6972e-05,0
2.174,6.3111e-05,0
2.1745,3.3738e-05,0
2.1751,-1.1246e-05,0
2.1756,-5.2537e-05,0
2.1761,-7.7714e-05,0
2.1766,-8.4092e-05,0
2.1771,-6.9993e-05,0
2.1777,-3.508e-05,0
2.1782,1.8463e-06,0
2.1787,1.9974e-05,0
2.1792,2.6352e-05,0
2.1797,4.5151e-05,0
2.1803,7.1672e-05,0
2.1808,8.1407e-05,0
2.1813,7.0329e-05,0
2.1818,5.0187e-05,0
2.1823,2.8367e-05,0
2.1828,5.2033e-06,0
2.1834,-2.1653e-05,0
2.1839,-5.1194e-05,0
2.1844,-7.6707e-05,0
2.1849,-9.5674e-05,0
2.1854,-9.8863e-05,0
2.186,-7.1336e-05,0
2.1865,-2.1653e-05,0
2.187,7.8889e-06,0
2.1875,-6.8818e-06,0
2.188,-3.1052e-05,0
2.1886,-2.2995e-05,0
2.1891,-8.2246e-06,0
2.1896,-8.2246e-06,0
2.1901,1.6281e-05,0
2.1906,8.275e-05,0
2.1912,0.00014418,0
2.1917,0.00015828,0
2.1922,0.00015392,0
2.1927,0.00016214,0
2.1932,0.0001655,0
2.1938,0.00015073,0
2.1943,0.00013411,0
2.1948,0.00012605,0
2.1953,0.00011481,0
2.1958,9.5171e-05,0
2.1963,7.4693e-05,0
2.1969,6.3447e-05,0
2.1974,4.5487e-05,0
2.1979,8.3925e-07,0
2.1984,-4.7333e-05,0
2.1989,-6.1265e-05,0
2.1995,-3.8102e-05,0
2.2,-3.5248e-06,0
2.2005,2.7863e-05,0
2.201,5.623e-05,0
2.2015,9.4163e-05,0
2.2021,0.00013008,0
2.2026,0.00013176,0
2.2031,9.4499e-05,0
2.2036,5.2537e-05,0
2.2041,2.8367e-05,0
2.2047,-1.6785e-06,0
2.2052,-4.8844e-05,0
2.2057,-8.896e-05,0
2.2062,-0.00010977,0
2.2067,-0.00013075,0
2.2073,-0.00015593,0
2.2078,-0.00016735,0
2.2083,-0.00014636,0
2.2088,-9.3996e-05,0
2.2093,-3.508e-05,0
2.2098,5.7069e-06,0
2.2104,2.5681e-05,0
2.2109,3.4577e-05,0
2.2114,3.4409e-05,0
2.2119,4.0787e-05,0
2.2124,6.9993e-05,0
2.213,9.6345e-05,0
2.2135,9.4499e-05,0
2.214,6.6804e-05,0
2.2145,1.9974e-05,0
2.215,-2.6352e-05,0
2.2156,-2.1317e-05,0
2.2161,4.9348e-05,0
2.2166,0.00014485,0
2.2171,0.0002078,0
2.2176,0.00020662,0
2.2182,0.00014804,0
2.2187,7.1672e-05,0
2.2192,3.5248e-06,0
2.2197,-7.6707e-05,0
2.2202,-0.00014049,0
2.2207,-0.00013462,0
2.2213,-7.6204e-05,0
2.2218,-2.0813e-05,0
2.2223,1.7288e-05,0
2.2228,4.7837e-05,0
2.2233,6.6804e-05,0
2.2239,6.2943e-05,0
2.2244,3.8437e-05,0
2.2249,2.4506e-05,0
2.2254,2.1988e-05,0
2.2259,5.8747e-06,0
2.2265,-3.0549e-05,0
2.227,-6.4286e-05,0
2.2275,-6.9993e-05,0
2.228,-4.7501e-05,0
2.2285,-7.0497e-06,0
2.2291,3.5416e-05,0
2.2296,7.3014e-05,0
2.2301,0.00010423,0
2.2306,0.00012404,0
2.2311,0.00013243,0
2.2317,0.00013109,0
2.2322,0.00010927,0
2.2327,5.2201e-05,0
2.2332,-1.5274e-05,0
2.2337,-5.0187e-05,0
2.2342,-4.213e-05,0
2.2348,-2.1149e-05,0
2.2353,-2.0645e-05,0
2.2358,-5.1865e-05,0
2.2363,-0.00010088,0
2.2368,-0.00013512,0
2.2374,-0.00014687,0
2.2379,-0.00015308,0
2.2384,-0.0001514,0
2.2389,-0.0001321,0
2.2394,-0.00010893,0
2.24,-9.0806e-05,0
2.2405,-2.8031e-05,0
2.241,0.00010726,0
2.2415,0.00026302,0
2.242,0.00035265,0
2.2426,0.00034292,0
2.2431,0.00026268,0
2.2436,0.00016936,0
2.2441,0.00010289,0
2.2446,7.1336e-05,0
2.2452,5.6565e-05,0
2.2457,4.5991e-05,0
2.2462,3.743e-05,0
2.2467,2.1988e-05,0
2.2472,-8.896e-06,0
2.2477,-4.2802e-05,0
2.2483,-5.623e-05,0
2.2488,-4.5151e-05,0
2.2493,-1.8463e-05,0
2.2498,7.8889e-06,0
2.2503,1.9135e-05,0
2.2509,2.0645e-05,0
2.2514,2.6352e-05,0
2.2519,3.2563e-05,0
2.2524,3.3402e-05,0
2.2529,2.4002e-05,0
2.2535,1.0575e-05,0
2.254,2.182e-06,0
2.2545,-1.3764e-05,0
2.255,-4.2466e-05,0
2.2555,-7.0665e-05,0
2.2561,-8.8792e-05,0
2.2566,-0.00010188,0
2.2571,-0.00011128,0
2.2576,-0.00011363,0
2.2581,-0.00011263,0
2.2587,-0.00011917,0
2.2592,-0.00014032,0
2.2597,-0.00016634,0
2.2602,-0.00014922,0
2.2607,-6.7979e-05,0
2.2612,3.2059e-05,0
2.2618,0.00010423,0
2.2623,0.00014737,0
2.2628,0.00016617,0
2.2633,0.0001697,0
2.2638,0.00018379,0
2.2644,0.00021183,0
2.2649,0.0002266,0
2.2654,0.00020847,0
2.2659,0.00016147,0
2.2664,0.00012035,0
2.267,0.00010843,0
2.2675,0.0001039,0
2.268,7.9057e-05,0
2.2685,4.1459e-05,0
2.269,1.8296e-05,0
2.2696,3.5248e-06,0
2.2701,-4.1123e-05,0
2.2706,-0.000118,0
2.2711,-0.0001697,0
2.2716,-0.00015778,0
2.2722,-0.00010105,0
2.2727,-3.7095e-05,0
2.2732,1.5946e-05,0
2.2737,5.7069e-05,0
2.2742,9.4835e-05,0
2.2748,0.00013948,0
2.2753,0.0001791,0
2.2758,0.00018245,0
2.2763,0.00015694,0
2.2768,0.00013143,0
2.2773,0.00010256,0
2.2779,5.7908e-05,0
2.2784,7.5532e-06,0
2.2789,-2.5681e-05,0
2.2794,-3.3738e-05,0
2.2799,-3.0381e-05,0
2.2805,-3.2059e-05,0
2.281,-3.8437e-05,0
2.2815,-4.1794e-05,0
2.282,-4.213e-05,0
2.2825,-4.918e-05,0
2.2831,-5.3208e-05,0
2.2836,-3.0213e-05,0
2.2841,1.2924e-05,0
2.2846,4.1123e-05,0
2.2851,4.2802e-05,0
2.2857,3.4073e-05,0
2.2862,2.4674e-05,0
2.2867,1.6617e-05,0
2.2872,1.0071e-05,0
2.2877,3.8605e-06,0
2.2883,-8.0568e-06,0
2.2888,-2.8702e-05,0
2.2893,-5.1194e-05,0
2.2898,-6.6972e-05,0
2.2903,-6.6636e-05,0
2.2908,-4.5823e-05,0
2.2914,-1.091e-05,0
2.2919,2.7024e-05,0
2.2924,5.774e-05,0
2.2929,7.9057e-05,0
2.2934,9.3492e-05,0
2.294,9.6513e-05,0
2.2945,8.4428e-05,0
2.295,6.0258e-05,0
2.2955,2.501e-05,0
2.296,-9.9031e-06,0
2.2966,-3.0716e-05,0
2.2971,-4.3137e-05,0
2.2976,-5.1865e-05,0
2.2981,-5.8244e-05,0
2.2986,-6.1433e-05,0
2.2992,-7.5196e-05,0
2.2997,-0.00010356,0
2.3002,-0.00011984,0
2.3007,-0.00011397,0
2.3012,-9.6345e-05,0
2.3018,-6.9322e-05,0
2.3023,-2.7695e-05,0
2.3028,2.9709e-05,0
2.3033,8.275e-05,0
2.3038,0.00011313,0
2.3043,0.00013075,0
2.3049,0.00016432,0
2.3054,0.00022005,0
2.3059,0.00027158,0
2.3064,0.00028283,0
2.3069,0.00024506,0
2.3075,0.00018363,0
2.308,0.00013092,0
2.3085,9.4163e-05,0
2.309,6.1936e-05,0
2.3095,2.8534e-05,0
2.3101,-5.0355e-06,0
2.3106,-4.683e-05,0
2.3111,-9.3492e-05,0
2.3116,-0.00012706,0
2.3121,-0.00013982,0
2.3127,-0.0001373,0
2.3132,-0.0001284,0
2.3137,-0.00011699,0
2.3142,-9.0806e-05,0
2.3147,-3.2563e-05,0
2.3152,4.7837e-05,0
2.3158,0.00012639,0
2.3163,0.00018413,0
2.3168,0.00020327,0
2.3173,0.00018245,0
2.3178,0.00014284,0
2.3184,8.896e-05,0
2.3189,1.8967e-05,0
2.3194,-4.5487e-05,0
2.3199,-8.275e-05,0
2.3204,-8.8121e-05,0
2.321,-6.9993e-05,0
2.3215,-4.448e-05,0
2.322,-2.3667e-05,0
2.3225,3.6927e-06,0
2.323,3.3234e-05,0
2.3236,3.8605e-05,0
2.3241,1.9135e-05,0
2.3246,1.796e-05,0
2.3251,4.1962e-05,0
2.3256,6.3615e-05,0
2.3262,7.1336e-05,0
2.3267,6.8147e-05,0
2.3272,6.5293e-05,0
2.3277,6.8986e-05,0
2.3282,7.1504e-05,0
2.3287,7.0161e-05,0
2.3293,7.1672e-05,0
2.3298,7.2847e-05,0
2.3303,6.7475e-05,0
2.3308,5.3544e-05,0
2.3313,3.5752e-05,0
2.3319,1.4267e-05,0
2.3324,-2.182e-06,0
2.3329,6.8818e-06,0
2.3334,3.978e-05,0
2.3339,6.5461e-05,0
2.3345,5.8747e-05,0
2.335,3.0549e-05,0
2.3355,-9.5674e-06,0
2.336,-6.0929e-05,0
2.3365,-0.00010809,0
2.3371,-0.00014116,0
2.3376,-0.00016063,0
2.3381,-0.00016869,0
2.3386,-0.000165,0
2.3391,-0.00014788,0
2.3397,-0.00012454,0
2.3402,-9.5171e-05,0
2.3407,-4.3977e-05,0
2.3412,2.7359e-05,0
2.3417,9.601e-05,0
2.3422,0.00014485,0
2.3428,0.00017372,0
2.3433,0.00017272,0
2.3438,0.0001284,0
2.3443,5.1865e-05,0
2.3448,-2.7359e-05,0
2.3454,-9.4163e-05,0
2.3459,-0.00014318,0
2.3464,-0.00017708,0
2.3469,-0.00017725,0
2.3474,-0.0001227,0
2.348,-3.508e-05,0
2.3485,3.8102e-05,0
2.349,7.0665e-05,0
2.3495,9.2485e-05,0
2.35,0.000142,0
2.3506,0.00021183,0
2.3511,0.00028283,0
2.3516,0.00034527,0
2.3521,0.00037313,0
2.3526,0.00034426,0
2.3532,0.00026839,0
2.3537,0.00018984,0
2.3542,0.0001368,0
2.3547,0.00010591,0
2.3552,8.4428e-05,0
2.3558,6.1265e-05,0
2.3563,2.9206e-05,0
2.3568,-5.539e-06,0
2.3573,-3.1052e-05,0
2.3578,-4.5487e-05,0
2.3583,-5.6565e-05,0
2.3589,-6.7475e-05,0
2.3594,-7.1504e-05,0
2.3599,-6.2943e-05,0
2.3604,-4.9683e-05,0
2.3609,-4.9851e-05,0
2.3615,-6.7979e-05,0
2.362,-9.4163e-05,0
2.3625,-0.00011078,0
2.363,-0.00011699,0
2.3635,-0.00012723,0
2.3641,-0.0001415,0
2.3646,-0.00014536,0
2.3651,-0.00013193,0
2.3656,-0.00010423,0
2.3661,-6.1265e-05,0
2.3667,-7.7211e-06,0
2.3672,4.3809e-05,0
2.3677,8.275e-05,0
2.3682,0.00010356,0
2.3687,0.00010591,0
2.3693,9.3156e-05,0
2.3698,6.7979e-05,0
2.3703,4.8173e-05,0
2.3708,4.918e-05,0
2.3713,6.3951e-05,0
2.3718,6.8986e-05,0
2.3724,5.0858e-05,0
2.3729,1.796e-05,0
2.3734,-8.3925e-06,0
2.3739,-1.9303e-05,0
2.3744,-2.1653e-05,0
2.375,-2.1317e-05,0
2.3755,-2.0981e-05,0
2.376,-1.8631e-05,0
2.3765,-1.3931e-05,0
2.377,-6.5461e-06,0
2.3776,3.5248e-06,0
2.3781,1.7288e-05,0
2.3786,2.9374e-05,0
2.3791,2.7192e-05,0
2.3796,1.3764e-05,0
2.3802,4.8676e-06,0
2.3807,4.5319e-06,0
2.3812,-2.182e-06,0
2.3817,-1.2589e-05,0
2.3822,-1.6953e-05,0
2.3828,-1.2757e-05,0
2.3833,-3.5248e-06,0
2.3838,5.0355e-06,0
2.3843,8.5603e-06,0
2.3848,7.8889e-06,0
2.3853,1.1917e-05,0
2.3859,2.501e-05,0
2.3864,4.2466e-05,0
2.3869,5.2201e-05,0
2.3874,4.8173e-05,0
2.3879,4.7501e-05,0
2.3885,5.9922e-05,0
2.389,6.7643e-05,0
2.3895,5.774e-05,0
2.39,4.1123e-05,0
2.3905,2.8031e-05,0
2.3911,1.4771e-05,0
2.3916,3.357e-07,0
2.3921,-1.091e-05,0
2.3926,-1.3764e-05,0
2.3931,-8.5603e-06,0
2.3937,-3.1891e-06,0
2.3942,3.1891e-06,0
2.3947,2.0645e-05,0
2.3952,4.3641e-05,0
2.3957,6.0929e-05,0
2.3963,6.9657e-05,0
2.3968,7.57e-05,0
2.3973,7.6371e-05,0
2.3978,6.6972e-05,0
2.3983,4.4816e-05,0
2.3988,1.7288e-05,0
2.3994,5.0355e-07,0
2.3999,-8.3925e-07,0
2.4004,5.8747e-06,0
2.4009,8.5603e-06,0
2.4014,-5.539e-06,0
2.402,-2.9374e-05,0
2.4025,-3.1556e-05,0
2.403,-2.3499e-06,0
2.4035,2.8199e-05,0
2.404,2.3667e-05,0
2.4046,-1.2253e-05,0
2.4051,-5.0019e-05,0
2.4056,-8.1407e-05,0
2.4061,-9.9031e-05,0
2.4066,-8.1743e-05,0
2.4072,-3.0381e-05,0
2.4077,1.6617e-05,0
2.4082,3.1724e-05,0
2.4087,3.3402e-05,0
2.4092,5.388e-05,0
2.4097,9.0639e-05,0
2.4103,0.00013042,0
2.4108,0.0001754,0
2.4113,0.00022374,0
2.4118,0.00025328,0
2.4123,0.00025463,0
2.4129,0.00024086,0
2.4134,0.00022509,0
2.4139,0.00020243,0
2.4144,0.00016701,0
2.4149,0.00012673,0
2.4155,8.5771e-05,0
2.416,4.0452e-05,0
2.4165,-1.5106e-06,0
2.417,-2.652e-05,0
2.4175,-3.5752e-05,0
2.4181,-3.3738e-05,0
2.4186,-2.2995e-05,0
2.4191,-8.7282e-06,0
2.4196,-3.1891e-06,0
2.4201,-2.1653e-05,0
2.4207,-6.7979e-05,0
2.4212,-0.000118,0
2.4217,-0.00014284,0
2.4222,-0.00013629,0
2.4227,-0.00011598,0
2.4232,-9.1478e-05,0
2.4238,-6.5126e-05,0
2.4243,-3.7766e-05,0
2.4248,-9.7353e-06,0
2.4253,1.3764e-05,0
2.4258,3.7263e-05,0
2.4264,4.9012e-05,0
2.4269,4.6159e-05,0
2.4274,4.448e-05,0
2.4279,4.6998e-05,0
2.4284,4.0955e-05,0
2.429,1.7624e-05,0
2.4295,-8.2246e-06,0
2.43,-1.8128e-05,0
2.4305,-8.2246e-06,0
2.431,4.6998e-06,0
2.4316,1.6785e-06,0
2.4321,-2.266e-05,0
2.4326,-5.7237e-05,0
2.4331,-8.9296e-05,0
2.4336,-0.000118,0
2.4342,-0.00013227,0
2.4347,-0.00012773,0
2.4352,-0.0001227,0
2.4357,-0.00013294,0
2.4362,-0.00014653,0
2.4367,-0.0001373,0
2.4373,-9.8024e-05,0
2.4378,-3.6759e-05,0
2.4383,1.9974e-05,0
2.4388,6.6972e-05,0
2.4393,0.000118,0
2.4399,0.00017943,0
2.4404,0.00023415,0
2.4409,0.00025698,0
2.4414,0.00025278,0
2.4419,0.00024556,0
2.4425,0.00023348,0
2.443,0.00020528,0
2.4435,0.00017305,0
2.444,0.00015157,0
2.4445,0.00013848,0
2.4451,0.00011901,0
2.4456,7.9057e-05,0
2.4461,3.4745e-05,0
2.4466,7.2175e-06,0
2.4471,-2.8534e-06,0
2.4477,-3.5248e-06,0
2.4482,2.5177e-06,0
2.4487,1.2589e-05,0
2.4492,1.7288e-05,0
2.4497,1.9974e-05,0
2.4503,2.9374e-05,0
2.4508,4.4984e-05,0
2.4513,4.7837e-05,0
2.4518,2.8702e-05,0
2.4523,6.714e-06,0
2.4528,1.6785e-06,0
2.4534,7.5532e-06,0
2.4539,2.5177e-06,0
2.4544,-2.9038e-05,0
2.4549,-7.6707e-05,0
2.4554,-0.00011548,0
2.456,-0.00013545,0
2.4565,-0.00013915,0
2.457,-0.00013109,0
2.4575,-0.00011666,0
2.458,-0.00010054,0
2.4586,-8.4428e-05,0
2.4591,-5.7908e-05,0
2.4596,-1.9638e-05,0
2.4601,2.1317e-05,0
2.4606,5.2705e-05,0
2.4612,6.8482e-05,0
2.4617,7.1336e-05,0
2.4622,6.8315e-05,0
2.4627,6.1601e-05,0
2.4632,4.1459e-05,0
2.4638,5.8747e-06,0
2.4643,-2.8031e-05,0
2.4648,-4.6326e-05,0
2.4653,-4.9516e-05,0
2.4658,-4.1794e-05,0
2.4663,-2.652e-05,0
2.4669,-4.3641e-06,0
2.4674,2.3331e-05,0
2.4679,4.4144e-05,0
2.4684,5.5558e-05,0
2.4689,6.865e-05,0
2.4695,8.1743e-05,0
2.47,8.8457e-05,0
2.4705,8.4092e-05,0
2.471,6.8315e-05,0
2.4715,5.0187e-05,0
2.4721,2.7695e-05,0
2.4726,1.8463e-06,0
2.4731,-1.6953e-05,0
2.4736,-1.7792e-05,0
2.4741,-7.2175e-06,0
2.4747,5.7069e-06,0
2.4752,2.031e-05,0
2.4757,3.9612e-05,0
2.4762,6.1601e-05,0
2.4767,7.7211e-05,0
2.4773,8.4092e-05,0
2.4778,8.6107e-05,0
2.4783,8.0735e-05,0
2.4788,7.0665e-05,0
2.4793,5.623e-05,0
2.4798,2.1317e-05,0
2.4804,-3.4745e-05,0
2.4809,-8.6946e-05,0
2.4814,-0.00010994,0
2.4819,-0.00010491,0
2.4824,-8.9799e-05,0
2.483,-7.5364e-05,0
2.4835,-5.9251e-05,0
2.484,-3.3738e-05,0
2.4845,3.8605e-06,0
2.485,4.6494e-05,0
2.4856,9.0974e-05,0
2.4861,0.00013075,0
2.4866,0.00015492,0
2.4871,0.00015492,0
2.4876,0.00012068,0
2.4882,6.8818e-05,0
2.4887,4.5319e-05,0
2.4892,5.7237e-05,0
2.4897,7.1672e-05,0
2.4902,5.9754e-05,0
2.4907,1.9974e-05,0
2.4913,-1.7288e-05,0
2.4918,-2.2995e-05,0
2.4923,7.0497e-06,0
2.4928,5.3712e-05,0
2.4933,0.00010356,0
2.4939,0.00014418,0
2.4944,0.00016886,0
2.4949,0.00017809,0
2.4954,0.00017372,0
2.4959,0.00015442,0
2.4965,0.00012337,0
2.497,8.7114e-05,0
2.4975,4.8676e-05,0
2.498,1.3931e-05,0
2.4985,-7.0497e-06,0
2.4991,-1.4435e-05,0
2.4996,-1.7121e-05,0
2.5001,-2.4674e-05,0
2.5006,-3.7263e-05,0
2.5011,-4.9851e-05,0
2.5017,-6.244e-05,0
2.5022,-7.335e-05,0
2.5027,-7.805e-05,0
2.5032,-7.7043e-05,0
2.5037,-7.3014e-05,0
2.5042,-6.1265e-05,0
2.5048,-4.2802e-05,0
2.5053,-2.7192e-05,0
2.5058,-1.4939e-05,0
2.5063,-2.182e-06,0
2.5068,2.8534e-06,0
2.5074,-2.3499e-06,0
2.5079,-1.1749e-06,0
2.5084,1.0575e-05,0
2.5089,2.0478e-05,0
2.5094,1.5946e-05,0
2.51,1.6785e-07,0
2.5105,-1.5946e-05,0
2.511,-3.4073e-05,0
2.5115,-4.6494e-05,0
2.512,-2.6017e-05,0
2.5126,1.8631e-05,0
2.5131,5.0355e-05,0
2.5136,5.1362e-05,0
2.5141,3.5248e-05,0
2.5146,1.796e-05,0
2.5152,-5.0355e-07,0
2.5157,-2.1653e-05,0
2.5162,-3.9612e-05,0
2.5167,-4.1123e-05,0
2.5172,-3.4409e-05,0
2.5177,-3.3402e-05,0
2.5183,-4.0452e-05,0
2.5188,-4.7669e-05,0
2.5193,-4.5487e-05,0
2.5198,-3.6088e-05,0
2.5203,-2.7024e-05,0
2.5209,-1.8631e-05,0
2.5214,-2.5177e-06,0
2.5219,1.8631e-05,0
2.5224,3.8605e-05,0
2.5229,5.7237e-05,0
2.5235,7.335e-05,0
2.524,7.9057e-05,0
2.5245,7.805e-05,0
2.525,8.3085e-05,0
2.5255,0.00010121,0
2.5261,0.00011414,0
2.5266,9.3828e-05,0
2.5271,4.4144e-05,0
2.5276,-1.1749e-06,0
2.5281,-1.2421e-05,0
2.5287,1.1582e-05,0
2.5292,5.4887e-05,0
2.5297,9.0471e-05,0
2.5302,9.5003e-05,0
2.5307,7.4693e-05,0
2.5312,5.6733e-05,0
2.5318,6.6972e-05,0
2.5323,0.00010457,0
2.5328,0.00014821,0
2.5333,0.00017238,0
2.5338,0.0001608,0
2.5344,0.00012136,0
2.5349,7.6371e-05,0
2.5354,5.1698e-05,0
2.5359,4.5991e-05,0
2.5364,3.9109e-05,0
2.537,2.3331e-05,0
2.5375,-5.0355e-07,0
2.538,-3.1052e-05,0
2.5385,-6.1601e-05,0
2.539,-8.2414e-05,0
2.5396,-8.9128e-05,0
2.5401,-8.191e-05,0
2.5406,-6.7475e-05,0
2.5411,-4.8844e-05,0
2.5416,-2.4842e-05,0
2.5422,2.5177e-06,0
2.5427,2.3331e-05,0
2.5432,3.357e-05,0
2.5437,3.743e-05,0
2.5442,3.3066e-05,0
2.5448,1.796e-05,0
2.5453,1.5106e-06,0
2.5458,-9.0639e-06,0
2.5463,-1.7624e-05,0
2.5468,-2.4674e-05,0
2.5473,-2.6688e-05,0
2.5479,-3.1556e-05,0
2.5484,-3.6591e-05,0
2.5489,-3.1052e-05,0
2.5494,-1.0239e-05,0
2.5499,1.6281e-05,0
2.5505,3.3066e-05,0
2.551,3.743e-05,0
2.5515,3.7095e-05,0
2.552,3.2563e-05,0
2.5525,2.2156e-05,0
2.5531,1.8967e-05,0
2.5536,2.7359e-05,0
2.5541,3.0045e-05,0
2.5546,2.501e-05,0
2.5551,2.4674e-05,0
2.5557,2.4338e-05,0
2.5562,1.2924e-05,0
2.5567,-5.2033e-06,0
2.5572,-9.9031e-06,0
2.5577,8.3925e-07,0
2.5583,1.2589e-05,0
2.5588,2.0981e-05,0
2.5593,2.8367e-05,0
2.5598,3.5416e-05,0
2.5603,4.3641e-05,0
2.5608,4.6494e-05,0
2.5614,4.2298e-05,0
2.5619,3.5752e-05,0
2.5624,2.7359e-05,0
2.5629,1.2589e-05,0
2.5634,-1.4939e-05,0
2.564,-5.2537e-05,0
2.5645,-9.5171e-05,0
2.565,-0.00013462,0
2.5655,-0.00015526,0
2.566,-0.00015459,0
2.5666,-0.00014301,0
2.5671,-0.00011783,0
2.5676,-6.0594e-05,0
2.5681,3.1556e-05,0
2.5686,0.00013109,0
2.5692,0.00020595,0
2.5697,0.00023314,0
2.5702,0.00020612,0
2.5707,0.00013747,0
2.5712,6.2776e-05,0
2.5718,2.1988e-05,0
2.5723,1.6617e-05,0
2.5728,1.1917e-05,0
2.5733,-1.9135e-05,0
2.5738,-5.2201e-05,0
2.5743,-4.5991e-05,0
2.5749,7.2175e-06,0
2.5754,7.4189e-05,0
2.5759,0.00011514,0
2.5764,0.00011464,0
2.5769,8.5435e-05,0
2.5775,6.2943e-05,0
2.578,7.335e-05,0
2.5785,0.00012068,0
2.579,0.00017876,0
2.5795,0.00020595,0
2.5801,0.00018816,0
2.5806,0.00014452,0
2.5811,0.00010423,0
2.5816,8.1239e-05,0
2.5821,7.5029e-05,0
2.5827,7.1336e-05,0
2.5832,5.7908e-05,0
2.5837,3.4409e-05,0
2.5842,1.4267e-05,0
2.5847,6.8818e-06,0
2.5852,2.5177e-06,0
2.5858,-1.2253e-05,0
2.5863,-3.978e-05,0
2.5868,-7.0665e-05,0
2.5873,-9.3828e-05,0
2.5878,-9.8863e-05,0
2.5884,-9.1981e-05,0
2.5889,-7.9393e-05,0
2.5894,-5.8244e-05,0
2.5899,-2.7863e-05,0
2.5904,3.1891e-06,0
2.591,1.8967e-05,0
2.5915,1.1749e-05,0
2.592,-1.2757e-05,0
2.5925,-3.7598e-05,0
2.593,-4.8005e-05,0
2.5936,-4.3305e-05,0
2.5941,-3.2898e-05,0
2.5946,-2.4338e-05,0
2.5951,-1.4771e-05,0
2.5956,-1.6785e-06,0
2.5962,2.1317e-05,0
2.5967,4.8508e-05,0
2.5972,6.6468e-05,0
2.5977,6.9657e-05,0
2.5982,6.4286e-05,0
2.5987,6.7643e-05,0
2.5993,8.1071e-05,0
2.5998,8.7114e-05,0
2.6003,7.4022e-05,0
2.6008,4.7166e-05,0
2.6013,1.3596e-05,0
2.6019,-1.7121e-05,0
2.6024,-3.9948e-05,0
2.6029,-5.4551e-05,0
2.6034,-6.6636e-05,0
2.6039,-7.9393e-05,0
2.6045,-9.0974e-05,0
2.605,-9.7688e-05,0
2.6055,-9.0135e-05,0
2.606,-6.0594e-05,0
2.6065,-2.1988e-05,0
2.6071,3.5248e-06,0
2.6076,8.7282e-06,0
2.6081,1.0575e-05,0
2.6086,2.4002e-05,0
2.6091,4.8173e-05,0
2.6097,6.63e-05,0
2.6102,7.2175e-05,0
2.6107,5.9251e-05,0
2.6112,1.6617e-05,0
2.6117,-4.2802e-05,0
2.6122,-8.3085e-05,0
2.6128,-8.8121e-05,0
2.6133,-6.949e-05,0
2.6138,-4.683e-05,0
2.6143,-2.2995e-05,0
2.6148,1.3092e-05,0
2.6154,6.3951e-05,0
2.6159,0.0001284,0
2.6164,0.00020998,0
2.6169,0.00028853,0
2.6174,0.00032479,0
2.618,0.00029961,0
2.6185,0.00023062,0
2.619,0.00015358,0
2.6195,8.8457e-05,0
2.62,4.448e-05,0
2.6206,2.3163e-05,0
2.6211,1.7288e-05,0
2.6216,1.8631e-05,0
2.6221,7.2175e-06,0
2.6226,-2.7359e-05,0
2.6232,-6.7308e-05,0
2.6237,-8.9464e-05,0
2.6242,-8.4932e-05,0
2.6247,-6.3615e-05,0
2.6252,-4.6159e-05,0
2.6258,-3.7263e-05,0
2.6263,-2.1653e-05,0
2.6268,1.0071e-05,0
2.6273,4.9012e-05,0
2.6278,9.1142e-05,0
2.6283,0.0001326,0
2.6289,0.00015056,0
2.6294,0.00012589,0
2.6299,7.6371e-05,0
2.6304,3.8102e-05,0
2.6309,2.3835e-05,0
2.6315,1.8463e-05,0
2.632,4.6998e-06,0
2.6325,-2.2995e-05,0
2.633,-5.2705e-05,0
2.6335,-6.3279e-05,0
2.6341,-4.9348e-05,0
2.6346,-2.4338e-05,0
2.6351,-2.5177e-06,0
2.6356,1.0407e-05,0
2.6361,2.3667e-05,0
2.6367,4.5319e-05,0
2.6372,6.7643e-05,0
2.6377,7.5364e-05,0
2.6382,6.2608e-05,0
2.6387,2.8367e-05,0
2.6393,-1.6617e-05,0
2.6398,-4.8676e-05,0
2.6403,-6.9154e-05,0
2.6408,-9.1646e-05,0
2.6413,-0.00011934,0
2.6418,-0.00014704,0
2.6424,-0.00015761,0
2.6429,-0.00012673,0
2.6434,-5.623e-05,0
2.6439,1.7288e-05,0
2.6444,6.6804e-05,0
2.645,9.7856e-05,0
2.6455,0.00012253,0
2.646,0.00013545,0
2.6465,0.00013143,0
2.647,0.0001237,0
2.6476,0.00012471,0
2.6481,0.00011867,0
2.6486,9.0135e-05,0
2.6491,5.8412e-05,0
2.6496,4.1459e-05,0
2.6502,3.122e-05,0
2.6507,1.7121e-05,0
2.6512,3.8605e-06,0
2.6517,8.3925e-07,0
2.6522,3.1891e-06,0
2.6528,-1.0239e-05,0
2.6533,-4.9683e-05,0
2.6538,-9.131e-05,0
2.6543,-0.00011095,0
2.6548,-0.00010826,0
2.6553,-9.6849e-05,0
2.6559,-8.3421e-05,0
2.6564,-6.4118e-05,0
2.6569,-2.7863e-05,0
2.6574,2.7024e-05,0
2.6579,8.5771e-05,0
2.6585,0.00012706,0
2.659,0.00013797,0
2.6595,0.00011867,0
2.66,7.5029e-05,0
2.6605,2.0645e-05,0
2.6611,-2.9038e-05,0
2.6616,-6.9993e-05,0
2.6621,-9.2485e-05,0
2.6626,-9.2485e-05,0
2.6631,-8.4092e-05,0
2.6637,-8.3589e-05,0
2.6642,-7.4525e-05,0
2.6647,-3.3906e-05,0
2.6652,2.266e-05,0
2.6657,6.2776e-05,0
2.6662,8.5771e-05,0
2.6668,0.00011531,0
2.6673,0.00014955,0
2.6678,0.00016214,0
2.6683,0.00015358,0
2.6688,0.0001415,0
2.6694,0.00012908,0
2.6699,0.00010994,0
2.6704,7.9057e-05,0
2.6709,4.8844e-05,0
2.6714,2.9709e-05,0
2.672,1.8631e-05,0
2.6725,1.2421e-05,0
2.673,7.2175e-06,0
2.6735,1.6785e-07,0
2.674,-9.9031e-06,0
2.6746,-1.8967e-05,0
2.6751,-2.3835e-05,0
2.6756,-2.2492e-05,0
2.6761,-1.4771e-05,0
2.6766,-1.0071e-05,0
2.6772,-1.3596e-05,0
2.6777,-1.1917e-05,0
2.6782,-1.5106e-06,0
2.6787,9.2317e-06,0
2.6792,1.0239e-05,0
2.6797,3.1891e-06,0
2.6803,-1.8463e-06,0
2.6808,-6.5461e-06,0
2.6813,-1.2757e-05,0
2.6818,-1.8128e-05,0
2.6823,-1.9974e-05,0
2.6829,-1.7792e-05,0
2.6834,-1.1582e-05,0
2.6839,-1.1749e-06,0
2.6844,1.3931e-05,0
2.6849,3.2731e-05,0
2.6855,5.2537e-05,0
2.686,6.5126e-05,0
2.6865,7.9393e-05,0
2.687,0.00010188,0
2.6875,0.00011363,0
2.6881,0.00010239,0
2.6886,7.5029e-05,0
2.6891,3.6759e-05,0
2.6896,-1.091e-05,0
2.6901,-5.9419e-05,0
2.6907,-0.00010021,0
2.6912,-0.00012421,0
2.6917,-0.00012908,0
2.6922,-0.00012975,0
2.6927,-0.00013008,0
2.6932,-0.00012404,0
2.6938,-0.00010608,0
2.6943,-8.1071e-05,0
2.6948,-4.683e-05,0
2.6953,3.0213e-06,0
2.6958,5.2537e-05,0
2.6964,8.4428e-05,0
2.6969,9.6849e-05,0
2.6974,9.987e-05,0
2.6979,0.00010121,0
2.6984,0.00012656,0
2.699,0.00018111,0
2.6995,0.0002318,0
2.7,0.00024456,0
2.7005,0.00020931,0
2.701,0.00015627,0
2.7016,0.00011414,0
2.7021,9.0639e-05,0
2.7026,8.7114e-05,0
2.7031,9.6849e-05,0
2.7036,0.00010323,0
2.7042,9.4835e-05,0
2.7047,8.0064e-05,0
2.7052,7.0665e-05,0
2.7057,6.9657e-05,0
2.7062,7.335e-05,0
2.7067,6.8147e-05,0
2.7073,4.7501e-05,0
2.7078,8.3925e-06,0
2.7083,-3.1052e-05,0
2.7088,-4.7837e-05,0
2.7093,-4.8173e-05,0
2.7099,-4.6998e-05,0
2.7104,-5.2369e-05,0
2.7109,-6.3615e-05,0
2.7114,-7.4693e-05,0
2.7119,-7.1672e-05,0
2.7125,-5.1194e-05,0
2.713,-2.266e-05,0
2.7135,1.5106e-06,0
2.714,6.5461e-06,0
2.7145,-1.0071e-06,0
2.7151,-3.0213e-06,0
2.7156,6.0426e-06,0
2.7161,1.9974e-05,0
2.7166,2.5849e-05,0
2.7171,1.6953e-05,0
2.7177,1.8463e-06,0
2.7182,-5.539e-06,0
2.7187,-1.8463e-06,0
2.7192,3.6927e-06,0
2.7197,1.0071e-06,0
2.7203,-1.3596e-05,0
2.7208,-3.0716e-05,0
2.7213,-3.7263e-05,0
2.7218,-3.4745e-05,0
2.7223,-3.4073e-05,0
2.7228,-3.8773e-05,0
2.7234,-4.5151e-05,0
2.7239,-5.069e-05,0
2.7244,-4.3473e-05,0
2.7249,-1.6953e-05,0
2.7254,1.1078e-05,0
2.726,2.7024e-05,0
2.7265,3.3738e-05,0
2.727,3.3402e-05,0
2.7275,2.5345e-05,0
2.728,1.2421e-05,0
2.7286,-3.357e-06,0
2.7291,-2.6184e-05,0
2.7296,-3.8605e-05,0
2.7301,-2.8702e-05,0
2.7306,-1.1246e-05,0
2.7312,5.0355e-07,0
2.7317,2.3499e-06,0
2.7322,1.8463e-06,0
2.7327,1.3931e-05,0
2.7332,4.3809e-05,0
2.7338,7.7714e-05,0
2.7343,9.4331e-05,0
2.7348,8.5267e-05,0
2.7353,6.3951e-05,0
2.7358,5.153e-05,0
2.7363,6.63e-05,0
2.7369,0.00010222,0
2.7374,0.00012605,0
2.7379,0.00012169,0
2.7384,9.5506e-05,0
2.7389,5.6397e-05,0
2.7395,1.6449e-05,0
2.74,-7.7211e-06,0
2.7405,-1.6281e-05,0
2.741,-1.7792e-05,0
2.7415,-2.031e-05,0
2.7421,-2.9709e-05,0
2.7426,-3.6927e-05,0
2.7431,-2.4338e-05,0
2.7436,7.8889e-06,0
2.7441,4.9516e-05,0
2.7447,8.6442e-05,0
2.7452,0.00010289,0
2.7457,9.6849e-05,0
2.7462,8.2414e-05,0
2.7467,7.4861e-05,0
2.7473,7.4357e-05,0
2.7478,6.3279e-05,0
2.7483,3.0381e-05,0
2.7488,-1.5274e-05,0
2.7493,-5.8915e-05,0
2.7498,-8.7114e-05,0
2.7504,-9.1814e-05,0
2.7509,-7.2007e-05,0
2.7514,-4.3473e-05,0
2.7519,-2.9038e-05,0
2.7524,-2.1149e-05,0
2.753,-8.3925e-07,0
2.7535,3.3402e-05,0
2.754,6.8986e-05,0
2.7545,0.00010423,0
2.755,0.00014049,0
2.7556,0.00016533,0
2.7561,0.0001697,0
2.7566,0.00015392,0
2.7571,0.0001227,0
2.7576,8.3925e-05,0
2.7582,4.7166e-05,0
2.7587,2.266e-05,0
2.7592,1.4099e-05,0
2.7597,1.1078e-05,0
2.7602,-3.0213e-06,0
2.7607,-3.2395e-05,0
2.7613,-5.6565e-05,0
2.7618,-5.7237e-05,0
2.7623,-4.8676e-05,0
2.7628,-5.153e-05,0
2.7633,-6.4118e-05,0
2.7639,-6.9657e-05,0
2.7644,-5.8076e-05,0
2.7649,-4.683e-05,0
2.7654,-4.6662e-05,0
2.7659,-4.2634e-05,0
2.7665,-2.4002e-05,0
2.767,3.8605e-06,0
2.7675,3.3738e-05,0
2.768,6.5797e-05,0
2.7685,9.8863e-05,0
2.7691,0.00012119,0
2.7696,0.00011666,0
2.7701,8.9296e-05,0
2.7706,6.8818e-05,0
2.7711,7.8386e-05,0
2.7717,0.00010239,0
2.7722,0.00011431,0
2.7727,0.00010826,0
2.7732,9.4499e-05,0
2.7737,7.2343e-05,0
2.7742,3.4073e-05,0
2.7748,-1.7624e-05,0
2.7753,-6.7643e-05,0
2.7758,-0.00010658,0
2.7763,-0.00013008,0
2.7768,-0.00013344,0
2.7774,-0.00012169,0
2.7779,-0.00010524,0
2.7784,-9.1478e-05,0
2.7789,-8.5771e-05,0
2.7794,-8.1239e-05,0
2.78,-5.7908e-05,0
2.7805,-7.2175e-06,0
2.781,4.9851e-05,0
2.7815,8.5771e-05,0
2.782,0.00010272,0
2.7826,0.00011699,0
2.7831,0.00013378,0
2.7836,0.00014704,0
2.7841,0.00014955,0
2.7846,0.00014284,0
2.7852,0.00013478,0
2.7857,0.0001237,0
2.7862,9.5842e-05,0
2.7867,4.7333e-05,0
2.7872,-4.5319e-06,0
2.7877,-4.3809e-05,0
2.7883,-6.4118e-05,0
2.7888,-6.8315e-05,0
2.7893,-6.244e-05,0
2.7898,-5.5894e-05,0
2.7903,-5.388e-05,0
2.7909,-5.388e-05,0
2.7914,-4.918e-05,0
2.7919,-3.2563e-05,0
2.7924,5.0355e-06,0
2.7929,4.9012e-05,0
2.7935,6.0258e-05,0
2.794,3.8437e-05,0
2.7945,2.6017e-05,0
2.795,4.3137e-05,0
2.7955,6.8315e-05,0
2.7961,8.3757e-05,0
2.7966,8.6778e-05,0
2.7971,8.4092e-05,0
2.7976,7.9896e-05,0
2.7981,6.4118e-05,0
2.7987,3.8605e-05,0
2.7992,1.326e-05,0
2.7997,-1.5274e-05,0
2.8002,-4.448e-05,0
2.8007,-5.5726e-05,0
2.8013,-4.5151e-05,0
2.8018,-2.6352e-05,0
2.8023,-1.4939e-05,0
2.8028,-6.3783e-06,0
2.8033,9.5674e-06,0
2.8038,2.9206e-05,0
2.8044,4.2802e-05,0
2.8049,5.0187e-05,0
2.8054,5.2873e-05,0
2.8059,3.827e-05,0
2.8064,-4.8676e-06,0
2.807,-5.7908e-05,0
2.8075,-9.3324e-05,0
2.808,-0.00010423,0
2.8085,-9.6513e-05,0
2.809,-7.6371e-05,0
2.8096,-5.0187e-05,0
2.8101,-2.5681e-05,0
2.8106,3.357e-07,0
2.8111,4.213e-05,0
2.8116,9.8863e-05,0
2.8122,0.0001467,0
2.8127,0.00016802,0
2.8132,0.00017171,0
2.8137,0.00017154,0
2.8142,0.00015711,0
2.8148,0.00011128,0
2.8153,4.8508e-05,0
2.8158,7.8889e-06,0
2.8163,3.8605e-06,0
2.8168,1.6953e-05,0
2.8173,3.0045e-05,0
2.8179,4.2298e-05,0
2.8184,5.4047e-05,0
2.8189,5.8076e-05,0
2.8194,5.2201e-05,0
2.8199,3.6591e-05,0
2.8205,1.3092e-05,0
2.821,-1.3092e-05,0
2.8215,-4.1794e-05,0
2.822,-7.4693e-05,0
2.8225,-0.00010692,0
2.8231,-0.00013361,0
2.8236,-0.00013696,0
2.8241,-9.7017e-05,0
2.8246,-2.9206e-05,0
2.8251,3.0381e-05,0
2.8257,6.0258e-05,0
2.8262,6.865e-05,0
2.8267,7.1504e-05,0
2.8272,7.7714e-05,0
2.8277,8.5603e-05,0
2.8283,8.3757e-05,0
2.8288,7.2679e-05,0
2.8293,4.6159e-05,0
2.8298,5.8747e-06,0
2.8303,-1.6617e-05,0
2.8308,-8.896e-06,0
2.8314,1.3596e-05,0
2.8319,3.2563e-05,0
2.8324,4.3977e-05,0
2.8329,4.6159e-05,0
2.8334,3.2563e-05,0
2.834,1.0575e-05,0
2.8345,-5.7069e-06,0
2.835,-1.5442e-05,0
2.8355,-1.8631e-05,0
2.836,-1.2589e-05,0
2.8366,7.0497e-06,0
2.8371,3.4073e-05,0
2.8376,4.3977e-05,0
2.8381,2.6688e-05,0
2.8386,1.2757e-05,0
2.8392,3.0716e-05,0
2.8397,6.4286e-05,0
2.8402,9.0135e-05,0
2.8407,0.00010994,0
2.8412,0.00011766,0
2.8418,9.5842e-05,0
2.8423,4.918e-05,0
2.8428,-4.8676e-06,0
2.8433,-4.1794e-05,0
2.8438,-5.5055e-05,0
2.8443,-5.6062e-05,0
2.8449,-4.213e-05,0
2.8454,-1.1078e-05,0
2.8459,2.4506e-05,0
2.8464,5.7572e-05,0
2.8469,9.4835e-05,0
2.8475,0.00013982,0
2.848,0.0001744,0
2.8485,0.0001744,0
2.849,0.00014586,0
2.8495,0.00011397,0
2.8501,7.8721e-05,0
2.8506,1.9806e-05,0
2.8511,-6.0929e-05,0
2.8516,-0.00012102,0
2.8521,-0.00013008,0
2.8527,-0.00010105,0
2.8532,-6.2272e-05,0
2.8537,-3.0213e-05,0
2.8542,-1.1582e-05,0
2.8547,-1.2253e-05,0
2.8552,-1.6449e-05,0
2.8558,-1.5778e-05,0
2.8563,-1.6449e-05,0
2.8568,-3.4745e-05,0
2.8573,-8.3421e-05,0
2.8578,-0.00014267,0
2.8584,-0.00017171,0
2.8589,-0.00014687,0
2.8594,-8.6778e-05,0
2.8599,-1.9471e-05,0
2.8604,3.9109e-05,0
2.861,8.1743e-05,0
2.8615,0.00010826,0
2.862,0.00013025,0
2.8625,0.00016265,0
2.863,0.00019588,0
2.8636,0.00020729,0
2.8641,0.00018514,0
2.8646,0.0001373,0
2.8651,8.5435e-05,0
2.8656,4.8676e-05,0
2.8662,2.266e-05,0
2.8667,-1.6785e-07,0
2.8672,-1.6953e-05,0
2.8677,-2.5681e-05,0
2.8682,-3.5416e-05,0
2.8687,-5.5222e-05,0
2.8693,-7.4357e-05,0
2.8698,-7.5364e-05,0
2.8703,-5.9419e-05,0
2.8708,-4.7166e-05,0
2.8713,-5.9922e-05,0
2.8719,-9.366e-05,0
2.8724,-0.0001227,0
2.8729,-0.00013411,0
2.8734,-0.00012941,0
2.8739,-0.00010457,0
2.8745,-5.4047e-05,0
2.875,1.2757e-05,0
2.8755,9.1814e-05,0
2.876,0.00017372,0
2.8765,0.00023616,0
2.8771,0.00027578,0
2.8776,0.00029155,0
2.8781,0.00028115,0
2.8786,0.00024825,0
2.8791,0.00019773,0
2.8797,0.00014183,0
2.8802,9.2988e-05,0
2.8807,5.3208e-05,0
2.8812,2.3331e-05,0
2.8817,3.6927e-06,0
2.8822,-9.9031e-06,0
2.8828,-1.8463e-05,0
2.8833,-1.9806e-05,0
2.8838,-1.8967e-05,0
2.8843,-2.0645e-05,0
2.8848,-3.122e-05,0
2.8854,-6.5629e-05,0
2.8859,-0.00011363,0
2.8864,-0.00014318,0
2.8869,-0.00014385,0
2.8874,-0.00012723,0
2.888,-8.9799e-05,0
2.8885,-3.2059e-05,0
2.889,2.8031e-05,0
2.8895,7.9393e-05,0
2.89,0.00012303,0
2.8906,0.0001472,0
2.8911,0.00014217,0
2.8916,0.000118,0
2.8921,8.5771e-05,0
2.8926,5.4047e-05,0
2.8932,2.3835e-05,0
2.8937,-8.2246e-06,0
2.8942,-3.3906e-05,0
2.8947,-4.213e-05,0
2.8952,-3.2395e-05,0
2.8958,-1.7288e-05,0
2.8963,-5.539e-06,0
2.8968,1.8463e-06,0
2.8973,3.5248e-06,0
2.8978,-8.3925e-07,0
2.8983,-5.8747e-06,0
2.8989,-5.8747e-06,0
2.8994,-3.357e-07,0
2.8999,5.8747e-06,0
2.9004,9.3996e-06,0
2.9009,1.561e-05,0
2.9015,1.9974e-05,0
2.902,1.796e-05,0
2.9025,4.3641e-06,0
2.903,-1.1582e-05,0
2.9035,-2.2324e-05,0
2.9041,-2.9374e-05,0
2.9046,-2.8534e-05,0
2.9051,-2.0142e-05,0
2.9056,-1.3596e-05,0
2.9061,-1.4267e-05,0
2.9067,-1.5274e-05,0
2.9072,-1.1749e-05,0
2.9077,0,0
2.9082,1.9303e-05,0
2.9087,3.6255e-05,0
2.9093,3.9109e-05,0
2.9098,3.0716e-05,0
2.9103,1.7792e-05,0
2.9108,1.1582e-05,0
2.9113,1.6785e-05,0
2.9118,1.7288e-05,0
2.9124,-1.0071e-06,0
2.9129,-3.0381e-05,0
2.9134,-5.1362e-05,0
2.9139,-5.2537e-05,0
2.9144,-3.4073e-05,0
2.915,-7.5532e-06,0
2.9155,2.1988e-05,0
2.916,5.5055e-05,0
2.9165,8.9799e-05,0
2.917,0.00012471,0
2.9176,0.00016315,0
2.9181,0.00020243,0
2.9186,0.00022777,0
2.9191,0.00022005,0
2.9196,0.00017742,0
2.9202,0.00011061,0
2.9207,4.0452e-05,0
2.9212,-1.6449e-05,0
2.9217,-4.7837e-05,0
2.9222,-5.7572e-05,0
2.9228,-5.9251e-05,0
2.9233,-6.2104e-05,0
2.9238,-6.3279e-05,0
2.9243,-5.5055e-05,0
2.9248,-3.5416e-05,0
2.9253,-9.5674e-06,0
2.9259,2.1988e-05,0
2.9264,5.4719e-05,0
2.9269,7.8386e-05,0
2.9274,8.3589e-05,0
2.9279,6.7643e-05,0
2.9285,4.9516e-05,0
2.929,4.0787e-05,0
2.9295,2.9206e-05,0
2.93,4.5319e-06,0
2.9305,-1.6281e-05,0
2.9311,-1.8967e-05,0
2.9316,-9.2317e-06,0
2.9321,1.1246e-05,0
2.9326,3.9948e-05,0
2.9331,6.6972e-05,0
2.9337,7.7379e-05,0
2.9342,7.57e-05,0
2.9347,7.3686e-05,0
2.9352,7.0665e-05,0
2.9357,6.5629e-05,0
2.9362,5.5055e-05,0
2.9368,2.7527e-05,0
2.9373,-1.8296e-05,0
2.9378,-6.479e-05,0
2.9383,-9.0806e-05,0
2.9388,-8.1575e-05,0
2.9394,-5.388e-05,0
2.9399,-3.2563e-05,0
2.9404,-1.6953e-05,0
2.9409,1.0071e-06,0
2.9414,1.8631e-05,0
2.942,3.0716e-05,0
2.9425,3.9445e-05,0
2.943,4.7501e-05,0
2.9435,4.3809e-05,0
2.944,3.1724e-05,0
2.9446,2.7359e-05,0
2.9451,3.122e-05,0
2.9456,3.2059e-05,0
2.9461,2.1149e-05,0
2.9466,1.8463e-06,0
2.9472,-1.0575e-05,0
2.9477,-2.182e-06,0
2.9482,2.1149e-05,0
2.9487,4.1123e-05,0
2.9492,3.6423e-05,0
2.9497,-3.5248e-06,0
2.9503,-7.1e-05,0
2.9508,-0.00013814,0
2.9513,-0.00017272,0
2.9518,-0.00016785,0
2.9523,-0.00014385,0
2.9529,-0.00011531,0
2.9534,-8.0232e-05,0
2.9539,-2.7527e-05,0
2.9544,4.213e-05,0
2.9549,0.00011833,0
2.9555,0.00019118,0
2.956,0.00024775,0
2.9565,0.00026302,0
2.957,0.0002318,0
2.9575,0.00018178,0
2.9581,0.00013948,0
2.9586,0.00010709,0
2.9591,6.8818e-05,0
2.9596,2.0142e-05,0
2.9601,-1.5946e-05,0
2.9607,-2.2492e-05,0
2.9612,-9.9031e-06,0
2.9617,-3.6927e-06,0
2.9622,-2.7024e-05,0
2.9627,-7.1839e-05,0
2.9632,-0.00010037,0
2.9638,-9.5506e-05,0
2.9643,-8.2078e-05,0
2.9648,-7.2679e-05,0
2.9653,-4.7669e-05,0
2.9658,2.5177e-06,0
2.9664,6.1433e-05,0
2.9669,0.00011263,0
2.9674,0.00015056,0
2.9679,0.00017708,0
2.9684,0.00018094,0
2.969,0.00015358,0
2.9695,0.00011263,0
2.97,7.6036e-05,0
2.9705,4.0116e-05,0
2.971,5.0355e-07,0
2.9716,-3.3234e-05,0
2.9721,-5.2537e-05,0
2.9726,-4.9516e-05,0
2.9731,-3.1556e-05,0
2.9736,-8.3925e-06,0
2.9742,1.4267e-05,0
2.9747,3.4241e-05,0
2.9752,4.213e-05,0
2.9757,3.8773e-05,0
2.9762,3.5416e-05,0
2.9768,3.5752e-05,0
2.9773,3.8437e-05,0
2.9778,4.0452e-05,0
2.9783,4.683e-05,0
2.9788,7.2007e-05,0
2.9793,0.0001039,0
2.9799,0.00011397,0
2.9804,9.6513e-05,0
2.9809,5.623e-05,0
2.9814,-1.6785e-07,0
2.9819,-5.3544e-05,0
2.9825,-8.3421e-05,0
2.983,-9.4163e-05,0
2.9835,-9.3492e-05,0
2.984,-8.3085e-05,0
2.9845,-6.9154e-05,0
2.9851,-5.5894e-05,0
2.9856,-3.9109e-05,0
2.9861,-1.5106e-05,0
2.9866,1.2757e-05,0
2.9871,3.4409e-05,0
2.9877,3.7934e-05,0
2.9882,1.9974e-05,0
2.9887,-9.7353e-06,0
2.9892,-3.7934e-05,0
2.9897,-5.4887e-05,0
2.9903,-6.5797e-05,0
2.9908,-6.865e-05,0
2.9913,-5.4215e-05,0
2.9918,-2.7359e-05,0
2.9923,-4.6998e-06,0
2.9928,8.7282e-06,0
2.9934,2.4842e-05,0
2.9939,4.9516e-05,0
2.9944,7.8218e-05,0
2.9949,0.00010239,0
2.9954,0.00011766,0
2.996,0.00012404,0
2.9965,0.00011934,0
2.997,0.00010491,0
2.9975,8.3085e-05,0
2.998,5.8579e-05,0
2.9986,3.5416e-05,0
2.9991,1.3931e-05,0
2.9996,-5.539e-06,0
3.0001,-2.2492e-05,0
3.0006,-3.3738e-05,0
3.0012,-3.8102e-05,0
3.0017,-3.4409e-05,0
3.0022,-2.1653e-05,0
3.0027,-4.1962e-06,0
3.0032,8.5603e-06,0
3.0038,1.4771e-05,0
3.0043,1.9303e-05,0
3.0048,2.4002e-05,0
3.0053,2.4338e-05,0
3.0058,1.9135e-05,0
3.0063,1.7624e-05,0
3.0069,2.1988e-05,0
3.0074,2.7192e-05,0
3.0079,2.7359e-05,0
3.0084,2.4002e-05,0
3.0089,2.3163e-05,0
3.0095,1.8967e-05,0
3.01,5.2033e-06,0
3.0105,-1.0071e-06,0
3.011,1.5946e-05,0
3.0115,4.3641e-05,0
3.0121,5.9251e-05,0
3.0126,5.6565e-05,0
3.0131,3.508e-05,0
3.0136,5.0355e-06,0
3.0141,-1.1582e-05,0
3.0147,-8.3925e-06,0
3.0152,3.8605e-06,0
3.0157,1.561e-05,0
3.0162,1.9471e-05,0
3.0167,1.1246e-05,0
3.0173,-3.357e-07,0
3.0178,2.5177e-06,0
3.0183,2.6352e-05,0
3.0188,6.3615e-05,0
3.0193,0.00010524,0
3.0198,0.00013915,0
3.0204,0.00015023,0
3.0209,0.0001331,0
3.0214,9.7856e-05,0
3.0219,6.2272e-05,0
3.0224,4.213e-05,0
3.023,4.5823e-05,0
3.0235,6.5461e-05,0
3.024,7.5029e-05,0
3.0245,5.7908e-05,0
3.025,1.9974e-05,0
3.0256,-1.3092e-05,0
3.0261,-2.9877e-05,0
3.0266,-4.5151e-05,0
3.0271,-6.2943e-05,0
3.0276,-6.9657e-05,0
3.0282,-6.3447e-05,0
3.0287,-5.7572e-05,0
3.0292,-6.3615e-05,0
3.0297,-7.4189e-05,0
3.0302,-7.5364e-05,0
3.0307,-6.9657e-05,0
3.0313,-6.1936e-05,0
3.0318,-5.4383e-05,0
3.0323,-4.9516e-05,0
3.0328,-5.3376e-05,0
3.0333,-5.8076e-05,0
3.0339,-4.7166e-05,0
3.0344,-1.8967e-05,0
3.0349,1.4603e-05,0
3.0354,4.2802e-05,0
3.0359,6.2943e-05,0
3.0365,9.1646e-05,0
3.037,0.00014553,0
3.0375,0.0001994,0
3.038,0.00022374,0
3.0385,0.00021099,0
3.0391,0.00018245,0
3.0396,0.00016432,0
3.0401,0.00015358,0
3.0406,0.00012236,0
3.0411,5.8915e-05,0
3.0417,-5.539e-06,0
3.0422,-4.8508e-05,0
3.0427,-8.4932e-05,0
3.0432,-0.00012438,0
3.0437,-0.00014653,0
3.0442,-0.00013462,0
3.0448,-9.9031e-05,0
3.0453,-6.2272e-05,0
3.0458,-2.9709e-05,0
3.0463,6.8818e-06,0
3.0468,4.5487e-05,0
3.0474,7.9057e-05,0
3.0479,0.00010709,0
3.0484,0.00013411,0
3.0489,0.00015023,0
3.0494,0.00014569,0
3.05,0.00012203,0
3.0505,8.896e-05,0
3.051,5.3544e-05,0
3.0515,1.8296e-05,0
3.052,-1.561e-05,0
3.0526,-4.6494e-05,0
3.0531,-7.4357e-05,0
3.0536,-9.9702e-05,0
3.0541,-0.00012639,0
3.0546,-0.00014754,0
3.0552,-0.00014334,0
3.0557,-0.00011313,0
3.0562,-8.3421e-05,0
3.0567,-7.6204e-05,0
3.0572,-8.1071e-05,0
3.0577,-7.6539e-05,0
3.0583,-4.7837e-05,0
3.0588,3.1891e-06,0
3.0593,5.8915e-05,0
3.0598,0.00010608,0
3.0603,0.00013982,0
3.0609,0.00017574,0
3.0614,0.00022039,0
3.0619,0.00025614,0
3.0624,0.00025681,0
3.0629,0.00020897,0
3.0635,0.00014083,0
3.064,8.7953e-05,0
3.0645,5.5222e-05,0
3.065,3.2563e-05,0
3.0655,2.1653e-05,0
3.0661,2.0813e-05,0
3.0666,2.2492e-05,0
3.0671,2.2324e-05,0
3.0676,2.1317e-05,0
3.0681,2.7192e-05,0
3.0687,4.062e-05,0
3.0692,4.5823e-05,0
3.0697,2.9038e-05,0
3.0702,-1.8463e-06,0
3.0707,-3.2563e-05,0
3.0713,-5.4887e-05,0
3.0718,-6.5797e-05,0
3.0723,-6.5965e-05,0
3.0728,-6.0258e-05,0
3.0733,-6.0594e-05,0
3.0738,-6.479e-05,0
3.0744,-6.4622e-05,0
3.0749,-6.0761e-05,0
3.0754,-4.5823e-05,0
3.0759,-2.182e-05,0
3.0764,2.182e-06,0
3.077,1.7288e-05,0
3.0775,1.561e-05,0
3.078,2.8534e-06,0
3.0785,-2.8534e-06,0
3.079,1.0239e-05,0
3.0796,3.7766e-05,0
3.0801,7.0161e-05,0
3.0806,9.1646e-05,0
3.0811,8.275e-05,0
3.0816,5.9419e-05,0
3.0822,4.8173e-05,0
3.0827,4.9012e-05,0
3.0832,4.918e-05,0
3.0837,4.4984e-05,0
3.0842,3.978e-05,0
3.0848,2.9038e-05,0
3.0853,1.1582e-05,0
3.0858,-7.0497e-06,0
3.0863,-1.9974e-05,0
3.0868,-1.9638e-05,0
3.0873,-5.8747e-06,0
3.0879,6.5461e-06,0
3.0884,1.8463e-06,0
3.0889,-1.3931e-05,0
3.0894,-2.8702e-05,0
3.0899,-3.4577e-05,0
3.0905,-3.0381e-05,0
3.091,-2.0981e-05,0
3.0915,-1.561e-05,0
3.092,-1.796e-05,0
3.0925,-2.1317e-05,0
3.0931,-1.9303e-05,0
3.0936,-7.5532e-06,0
3.0941,2.0645e-05,0
3.0946,5.6565e-05,0
3.0951,8.1743e-05,0
3.0957,8.8457e-05,0
3.0962,8.8457e-05,0
3.0967,8.51e-05,0
3.0972,7.1504e-05,0
3.0977,4.4144e-05,0
3.0983,1.796e-05,0
3.0988,1.6785e-06,0
3.0993,-1.0575e-05,0
3.0998,-2.501e-05,0
3.1003,-3.2059e-05,0
3.1008,-1.1078e-05,0
3.1014,4.8508e-05,0
3.1019,0.00011833,0
3.1024,0.00014888,0
3.1029,0.00012807,0
3.1034,8.6442e-05,0
3.104,5.3544e-05,0
3.1045,3.122e-05,0
3.105,1.0239e-05,0
3.1055,-3.5248e-06,0
3.106,-1.8463e-06,0
3.1066,9.0639e-06,0
3.1071,1.2589e-05,0
3.1076,8.2246e-06,0
3.1081,6.3783e-06,0
3.1086,1.3764e-05,0
3.1092,2.6688e-05,0
3.1097,3.7095e-05,0
3.1102,3.6759e-05,0
3.1107,3.2731e-05,0
3.1112,2.7024e-05,0
3.1117,1.7792e-05,0
3.1123,1.0575e-05,0
3.1128,1.0575e-05,0
3.1133,1.326e-05,0
3.1138,1.326e-05,0
3.1143,7.2175e-06,0
3.1149,-1.6785e-06,0
3.1154,-1.3596e-05,0
3.1159,-2.7527e-05,0
3.1164,-3.6255e-05,0
3.1169,-3.9948e-05,0
3.1175,-4.0787e-05,0
3.118,-3.8773e-05,0
3.1185,-2.8031e-05,0
3.119,-2.3499e-06,0
3.1195,2.4506e-05,0
3.1201,3.7263e-05,0
3.1206,3.978e-05,0
3.1211,4.1291e-05,0
3.1216,3.9109e-05,0
3.1221,2.9541e-05,0
3.1227,1.1246e-05,0
3.1232,-2.2995e-05,0
3.1237,-6.63e-05,0
3.1242,-9.6513e-05,0
3.1247,-9.8863e-05,0
3.1252,-6.4958e-05,0
3.1258,-1.8463e-05,0
3.1263,1.2589e-05,0
3.1268,2.9038e-05,0
3.1273,5.3544e-05,0
3.1278,9.5506e-05,0
3.1284,0.00013898,0
3.1289,0.00016533,0
3.1294,0.0001801,0
3.1299,0.00019789,0
3.1304,0.00019622,0
3.131,0.00015023,0
3.1315,7.9057e-05,0
3.132,2.1988e-05,0
3.1325,-4.8676e-06,0
3.133,-1.5946e-05,0
3.1336,-1.8296e-05,0
3.1341,-7.5532e-06,0
3.1346,1.5946e-05,0
3.1351,1.6617e-05,0
3.1356,-1.6617e-05,0
3.1362,-5.0858e-05,0
3.1367,-6.4622e-05,0
3.1372,-6.2608e-05,0
3.1377,-5.2705e-05,0
3.1382,-4.448e-05,0
3.1387,-4.683e-05,0
3.1393,-5.5222e-05,0
3.1398,-5.6901e-05,0
3.1403,-4.3977e-05,0
3.1408,-2.5177e-05,0
3.1413,-2.5681e-05,0
3.1419,-4.6494e-05,0
3.1424,-6.8818e-05,0
3.1429,-8.1407e-05,0
3.1434,-8.2078e-05,0
3.1439,-7.1672e-05,0
3.1445,-5.2537e-05,0
3.145,-2.1149e-05,0
3.1455,3.0716e-05,0
3.146,9.7185e-05,0
3.1465,0.00016332,0
3.1471,0.00021871,0
3.1476,0.00027007,0
3.1481,0.00031539,0
3.1486,0.00032479,0
3.1491,0.00028249,0
3.1497,0.00021518,0
3.1502,0.00014015,0
3.1507,6.1936e-05,0
3.1512,2.5177e-06,0
3.1517,-2.6856e-05,0
3.1522,-3.3906e-05,0
3.1528,-3.3066e-05,0
3.1533,-3.1388e-05,0
3.1538,-3.0381e-05,0
3.1543,-2.7359e-05,0
3.1548,-1.7121e-05,0
3.1554,-1.6785e-06,0
3.1559,1.4771e-05,0
3.1564,3.1388e-05,0
3.1569,3.9948e-05,0
3.1574,3.9277e-05,0
3.158,3.592e-05,0
3.1585,2.7024e-05,0
3.159,9.7353e-06,0
3.1595,-3.1891e-06,0
3.16,-5.8747e-06,0
3.1606,-6.714e-06,0
3.1611,-1.2924e-05,0
3.1616,-2.0645e-05,0
3.1621,-2.9038e-05,0
3.1626,-4.0452e-05,0
3.1632,-5.2201e-05,0
3.1637,-6.0594e-05,0
3.1642,-6.6468e-05,0
3.1647,-7.4861e-05,0
3.1652,-8.5267e-05,0
3.1658,-8.6107e-05,0
3.1663,-7.2511e-05,0
3.1668,-4.7501e-05,0
3.1673,-1.6281e-05,0
3.1678,1.2589e-05,0
3.1683,2.5849e-05,0
3.1689,2.2995e-05,0
3.1694,2.031e-05,0
3.1699,3.4409e-05,0
3.1704,4.6159e-05,0
3.1709,3.4577e-05,0
3.1715,6.5461e-06,0
3.172,-1.9303e-05,0
3.1725,-3.592e-05,0
3.173,-4.3137e-05,0
3.1735,-3.6088e-05,0
3.1741,-1.6953e-05,0
3.1746,1.326e-05,0
3.1751,4.8844e-05,0
3.1756,6.9322e-05,0
3.1761,7.3014e-05,0
3.1767,7.7714e-05,0
3.1772,8.4428e-05,0
3.1777,8.9296e-05,0
3.1782,8.8121e-05,0
3.1787,8.5771e-05,0
3.1793,0.00010323,0
3.1798,0.0001425,0
3.1803,0.0001744,0
3.1808,0.00017171,0
3.1813,0.00013344,0
3.1818,7.8889e-05,0
3.1824,2.6688e-05,0
3.1829,-1.4939e-05,0
3.1834,-5.1194e-05,0
3.1839,-7.3854e-05,0
3.1844,-7.4189e-05,0
3.185,-7.7379e-05,0
3.1855,-0.00010423,0
3.186,-0.00013277,0
3.1865,-0.00013042,0
3.187,-8.9632e-05,0
3.1876,-3.3738e-05,0
3.1881,1.6617e-05,0
3.1886,5.3376e-05,0
3.1891,7.4189e-05,0
3.1896,8.1407e-05,0
3.1902,8.3085e-05,0
3.1907,8.7114e-05,0
3.1912,8.04e-05,0
3.1917,6.2776e-05,0
3.1922,4.9516e-05,0
3.1928,4.7837e-05,0
3.1933,4.9516e-05,0
3.1938,4.9012e-05,0
3.1943,4.6159e-05,0
3.1948,3.9277e-05,0
3.1953,2.5345e-05,0
3.1959,1.4939e-05,0
3.1964,1.796e-05,0
3.1969,2.7359e-05,0
3.1974,3.6088e-05,0
3.1979,3.3738e-05,0
3.1985,2.0981e-05,0
3.199,1.0575e-05,0
3.1995,7.0497e-06,0
3.2,5.7069e-06,0
3.2005,4.5319e-06,0
3.2011,7.7211e-06,0
3.2016,2.0478e-05,0
3.2021,5.3208e-05,0
3.2026,9.0806e-05,0
3.2031,0.00010323,0
3.2037,8.9464e-05,0
3.2042,7.0329e-05,0
3.2047,5.4215e-05,0
3.2052,3.6423e-05,0
3.2057,1.1917e-05,0
3.2062,-1.7624e-05,0
3.2068,-4.4144e-05,0
3.2073,-6.5629e-05,0
3.2078,-7.9728e-05,0
3.2083,-7.5868e-05,0
3.2088,-5.8412e-05,0
3.2094,-3.7766e-05,0
3.2099,-2.4674e-05,0
3.2104,-1.8799e-05,0
3.2109,-8.2246e-06,0
3.2114,6.0426e-06,0
3.212,1.2421e-05,0
3.2125,1.2253e-05,0
3.213,1.4099e-05,0
3.2135,3.5248e-06,0
3.214,-3.0716e-05,0
3.2146,-6.244e-05,0
3.2151,-6.2943e-05,0
3.2156,-3.1724e-05,0
3.2161,9.7353e-06,0
3.2166,4.0116e-05,0
3.2172,5.8244e-05,0
3.2177,7.5029e-05,0
3.2182,9.4163e-05,0
3.2187,0.0001133,0
3.2192,0.00013008,0
3.2197,0.0001415,0
3.2203,0.00013613,0
3.2208,0.00010843,0
3.2213,6.9154e-05,0
3.2218,3.6759e-05,0
3.2223,1.796e-05,0
3.2229,5.8747e-06,0
3.2234,-2.182e-06,0
3.2239,-1.5106e-06,0
3.2244,4.5319e-06,0
3.2249,1.326e-05,0
3.2255,2.5849e-05,0
3.226,4.3305e-05,0
3.2265,5.6062e-05,0
3.227,4.9851e-05,0
3.2275,3.3738e-05,0
3.2281,2.5345e-05,0
3.2286,2.3331e-05,0
3.2291,1.6617e-05,0
3.2296,1.1749e-06,0
3.2301,-1.6953e-05,0
3.2307,-3.1388e-05,0
3.2312,-4.7166e-05,0
3.2317,-6.949e-05,0
3.2322,-8.2414e-05,0
3.2327,-6.8315e-05,0
3.2332,-3.978e-05,0
3.2338,-2.0981e-05,0
3.2343,-1.3931e-05,0
3.2348,-2.8534e-06,0
3.2353,1.8463e-05,0
3.2358,3.9445e-05,0
3.2364,5.3376e-05,0
3.2369,6.479e-05,0
3.2374,8.04e-05,0
3.2379,9.6849e-05,0
3.2384,8.9799e-05,0
3.239,3.6759e-05,0
3.2395,-4.9683e-05,0
3.24,-0.00012438,0
3.2405,-0.00016332,0
3.241,-0.00017154,0
3.2416,-0.00017205,0
3.2421,-0.00017121,0
3.2426,-0.00015744,0
3.2431,-0.00013361,0
3.2436,-9.8192e-05,0
3.2442,-3.2563e-05,0
3.2447,7.2511e-05,0
3.2452,0.00019638,0
3.2457,0.00029256,0
3.2462,0.00032546,0
3.2468,0.00030465,0
3.2473,0.00026654,0
3.2478,0.00024321,0
3.2483,0.00024758,0
3.2488,0.00026168,0
3.2493,0.0002506,0
3.2499,0.00020192,0
3.2504,0.00013327,0
3.2509,6.9657e-05,0
3.2514,2.1988e-05,0
3.2519,-1.091e-05,0
3.2525,-3.2563e-05,0
3.253,-4.5487e-05,0
3.2535,-5.153e-05,0
3.254,-5.0019e-05,0
3.2545,-4.8005e-05,0
3.2551,-4.918e-05,0
3.2556,-5.2201e-05,0
3.2561,-4.9851e-05,0
3.2566,-3.743e-05,0
3.2571,-2.4002e-05,0
3.2577,-1.7792e-05,0
3.2582,-1.4939e-05,0
3.2587,-1.6281e-05,0
3.2592,-3.3402e-05,0
3.2597,-6.1936e-05,0
3.2603,-7.4525e-05,0
3.2608,-7.5364e-05,0
3.2613,-8.3421e-05,0
3.2618,-9.0135e-05,0
3.2623,-7.2679e-05,0
3.2628,-3.4577e-05,0
3.2634,6.0426e-06,0
3.2639,4.1962e-05,0
3.2644,7.6371e-05,0
3.2649,0.00010222,0
3.2654,0.00010289,0
3.266,8.5435e-05,0
3.2665,6.3279e-05,0
3.267,4.3305e-05,0
3.2675,2.7024e-05,0
3.268,1.6449e-05,0
3.2686,1.0575e-05,0
3.2691,-2.5177e-06,0
3.2696,-2.1317e-05,0
3.2701,-3.1891e-05,0
3.2706,-2.7695e-05,0
3.2712,-6.714e-06,0
3.2717,2.266e-05,0
3.2722,4.683e-05,0
3.2727,5.6733e-05,0
3.2732,5.2201e-05,0
3.2738,3.2059e-05,0
3.2743,-1.8463e-06,0
3.2748,-3.3066e-05,0
3.2753,-4.8676e-05,0
3.2758,-5.623e-05,0
3.2763,-6.4622e-05,0
3.2769,-6.4622e-05,0
3.2774,-4.3473e-05,0
3.2779,-7.5532e-06,0
3.2784,2.7695e-05,0
3.2789,6.1936e-05,0
3.2795,9.4499e-05,0
3.28,0.00011095,0
3.2805,9.4499e-05,0
3.281,4.2634e-05,0
3.2815,-1.8631e-05,0
3.2821,-5.9251e-05,0
3.2826,-8.3085e-05,0
3.2831,-0.00010826,0
3.2836,-0.00013092,0
3.2841,-0.00011212,0
3.2847,-4.1291e-05,0
3.2852,4.8173e-05,0
3.2857,0.00012857,0
3.2862,0.00018732,0
3.2867,0.0002177,0
3.2872,0.00021636,0
3.2878,0.00017977,0
3.2883,0.00012035,0
3.2888,7.335e-05,0
3.2893,6.2272e-05,0
3.2898,7.5868e-05,0
3.2904,8.9464e-05,0
3.2909,9.5842e-05,0
3.2914,9.9199e-05,0
3.2919,0.00010021,0
3.2924,9.5506e-05,0
3.293,8.4764e-05,0
3.2935,6.9657e-05,0
3.294,5.1865e-05,0
3.2945,3.5416e-05,0
3.295,2.9038e-05,0
3.2956,2.5849e-05,0
3.2961,1.9135e-05,0
3.2966,5.2033e-06,0
3.2971,-1.091e-05,0
3.2976,-2.3331e-05,0
3.2982,-3.3738e-05,0
3.2987,-3.8437e-05,0
3.2992,-2.5849e-05,0
3.2997,-1.091e-05,0
3.3002,-1.8631e-05,0
3.3007,-4.8173e-05,0
3.3013,-8.2246e-05,0
3.3018,-0.00010088,0
3.3023,-9.5506e-05,0
3.3028,-6.9322e-05,0
3.3033,-3.4745e-05,0
3.3039,-3.5248e-06,0
3.3044,1.5106e-05,0
3.3049,2.2492e-05,0
3.3054,3.3066e-05,0
3.3059,3.5416e-05,0
3.3065,6.0426e-06,0
3.307,-4.5487e-05,0
3.3075,-9.8527e-05,0
3.308,-0.00013999,0
3.3085,-0.00015879,0
3.3091,-0.00015106,0
3.3096,-0.00012824,0
3.3101,-0.00010054,0
3.3106,-7.0832e-05,0
3.3111,-2.9206e-05,0
3.3117,3.9612e-05,0
3.3122,0.00013075,0
3.3127,0.00021669,0
3.3132,0.00027376,0
3.3137,0.00028182,0
3.3142,0.00023952,0
3.3148,0.00016365,0
3.3153,7.6371e-05,0
3.3158,-7.2175e-06,0
3.3163,-8.0064e-05,0
3.3168,-0.00014133,0
3.3174,-0.0001744,0
3.3179,-0.0001613,0
3.3184,-0.00011632,0
3.3189,-6.9657e-05,0
3.3194,-3.2395e-05,0
3.32,-2.3499e-06,0
3.3205,2.9877e-05,0
3.321,8.51e-05,0
3.3215,0.00016147,0
3.322,0.00022039,0
3.3226,0.00022811,0
3.3231,0.00020461,0
3.3236,0.00017641,0
3.3241,0.0001472,0
3.3246,0.00012001,0
3.3252,0.00010256,0
3.3257,9.2485e-05,0
3.3262,7.6875e-05,0
3.3267,4.4144e-05,0
3.3272,1.0407e-05,0
3.3277,-6.2104e-06,0
3.3283,-1.7288e-05,0
3.3288,-2.8199e-05,0
3.3293,-2.7359e-05,0
3.3298,-2.3331e-05,0
3.3303,-3.5584e-05,0
3.3309,-6.7643e-05,0
3.3314,-0.00012404,0
3.3319,-0.0001613,0
3.3324,-0.00012639,0
3.3329,-4.2802e-05,0
3.3335,2.6856e-05,0
3.334,5.5558e-05,0
3.3345,5.6565e-05,0
3.335,4.3977e-05,0
3.3355,2.8367e-05,0
3.3361,3.6088e-05,0
3.3366,7.57e-05,0
3.3371,0.00011128,0
3.3376,0.00010088,0
3.3381,4.9516e-05,0
3.3387,2.5177e-06,0
3.3392,-1.2253e-05,0
3.3397,2.8534e-06,0
3.3402,4.6662e-05,0
3.3407,0.00010961,0
3.3413,0.00016634,0
3.3418,0.00019034,0
3.3423,0.00017708,0
3.3428,0.00015157,0
3.3433,0.0001321,0
3.3438,0.00010893,0
3.3444,7.2847e-05,0
3.3449,2.5177e-05,0
3.3454,-2.9206e-05,0
3.3459,-8.3589e-05,0
3.3464,-0.00013596,0
3.347,-0.00019152,0
3.3475,-0.00025211,0
3.348,-0.00029474,0
3.3485,-0.00028954,0
3.349,-0.00024422,0
3.3496,-0.00019051,0
3.3501,-0.00013747,0
3.3506,-6.2776e-05,0
3.3511,4.5991e-05,0
3.3516,0.00017255,0
3.3522,0.00027779,0
3.3527,0.0003362,0
3.3532,0.00033519,0
3.3537,0.00027695,0
3.3542,0.00019857,0
3.3548,0.00013881,0
3.3553,9.7856e-05,0
3.3558,5.5558e-05,0
3.3563,1.0407e-05,0
3.3568,-3.1388e-05,0
3.3573,-7.2343e-05,0
3.3579,-0.00011514,0
3.3584,-0.00016684,0
3.3589,-0.00022525,0
3.3594,-0.00027124,0
3.3599,-0.00026252,0
3.3605,-0.00018984,0
3.361,-0.00010004,0
3.3615,-3.7766e-05,0
3.362,1.3931e-05,0
3.3625,7.8721e-05,0
3.3631,0.00015543,0
3.3636,0.00022072,0
3.3641,0.00026235,0
3.3646,0.00027544,0
3.3651,0.00026403,0
3.3657,0.00024036,0
3.3662,0.00021048,0
3.3667,0.00018413,0
3.3672,0.00016835,0
3.3677,0.00014855,0
3.3683,0.00011246,0
3.3688,7.0665e-05,0
3.3693,3.1052e-05,0
3.3698,-7.2175e-06,0
3.3703,-4.3473e-05,0
3.3708,-8.0232e-05,0
3.3714,-0.0001039,0
3.3719,-0.00010172,0
3.3724,-9.2485e-05,0
3.3729,-9.3156e-05,0
3.3734,-9.4835e-05,0
3.374,-9.131e-05,0
3.3745,-8.4764e-05,0
3.375,-6.3951e-05,0
3.3755,-1.5106e-05,0
3.376,4.2802e-05,0
3.3766,8.6275e-05,0
3.3771,0.00010591,0
3.3776,9.366e-05,0
3.3781,5.5558e-05,0
3.3786,1.6953e-05,0
3.3792,-2.8534e-06,0
3.3797,-5.3712e-06,0
3.3802,-1.8463e-06,0
3.3807,-3.357e-06,0
3.3812,-8.2246e-06,0
3.3817,-1.9638e-05,0
3.3823,-5.069e-05,0
3.3828,-9.3156e-05,0
3.3833,-0.00011699,0
3.3838,-0.00011296,0
3.3843,-9.0303e-05,0
3.3849,-5.539e-05,0
3.3854,-9.2317e-06,0
3.3859,2.2995e-05,0
3.3864,2.2995e-05,0
3.3869,1.3764e-05,0
3.3875,7.5532e-06,0
3.388,-4.5319e-06,0
3.3885,-3.508e-05,0
3.389,-7.5532e-05,0
3.3895,-0.00010306,0
3.3901,-0.00010642,0
3.3906,-8.9128e-05,0
3.3911,-6.2943e-05,0
3.3916,-4.448e-05,0
3.3921,-3.7934e-05,0
3.3927,-2.4338e-05,0
3.3932,2.2324e-05,0
3.3937,8.4092e-05,0
3.3942,0.0001321,0
3.3947,0.00017272,0
3.3952,0.00018447,0
3.3958,0.00015425,0
3.3963,0.00010893,0
3.3968,7.6875e-05,0
3.3973,6.6636e-05,0
3.3978,5.9419e-05,0
3.3984,4.3137e-05,0
3.3989,2.6017e-05,0
3.3994,2.9374e-05,0
3.3999,6.2943e-05,0
3.4004,0.00012471,0
3.401,0.00020343,0
3.4015,0.00025765,0
3.402,0.00023784,0
3.4025,0.00015962,0
3.403,8.7617e-05,0
3.4036,7.3014e-05,0
3.4041,0.00011733,0
3.4046,0.00017272,0
3.4051,0.00017943,0
3.4056,0.00011632,0
3.4062,3.8437e-05,0
3.4067,-4.8676e-06,0
3.4072,-2.0813e-05,0
3.4077,-3.7263e-05,0
3.4082,-6.3951e-05,0
3.4087,-8.4932e-05,0
3.4093,-8.1743e-05,0
3.4098,-6.5965e-05,0
3.4103,-5.1698e-05,0
3.4108,-3.5752e-05,0
3.4113,-3.0381e-05,0
3.4119,-4.7166e-05,0
3.4124,-7.2511e-05,0
3.4129,-9.4835e-05,0
3.4134,-0.00011548,0
3.4139,-0.00012589,0
3.4145,-0.00012102,0
3.415,-0.00010088,0
3.4155,-7.5364e-05,0
3.416,-6.2104e-05,0
3.4165,-6.6804e-05,0
3.4171,-6.9657e-05,0
3.4176,-4.6662e-05,0
3.4181,8.2246e-06,0
3.4186,9.4331e-05,0
3.4191,0.00017876,0
3.4197,0.00021585,0
3.4202,0.00019689,0
3.4207,0.00014888,0
3.4212,9.9031e-05,0
3.4217,4.1962e-05,0
3.4223,-3.3234e-05,0
3.4228,-9.8863e-05,0
3.4233,-0.00013344,0
3.4238,-0.0001472,0
3.4243,-0.00017104,0
3.4248,-0.00022173,0
3.4254,-0.00025782,0
3.4259,-0.00022878,0
3.4264,-0.00012723,0
3.4269,3.1891e-05,0
3.4274,0.00019974,0
3.428,0.00030834,0
3.4285,0.00033989,0
3.429,0.00032815,0
3.4295,0.00033117,0
3.43,0.00035685,0
3.4306,0.00036339,0
3.4311,0.00033268,0
3.4316,0.00026839,0
3.4321,0.00018379,0
3.4326,0.00011313,0
3.4332,7.3182e-05,0
3.4337,4.8844e-05,0
3.4342,2.2995e-05,0
3.4347,5.0355e-07,0
3.4352,-7.8889e-06,0
3.4358,-8.896e-06,0
3.4363,-1.3931e-05,0
3.4368,-3.508e-05,0
3.4373,-6.949e-05,0
3.4378,-0.00010927,0
3.4383,-0.00014485,0
3.4389,-0.00017121,0
3.4394,-0.00017272,0
3.4399,-0.00014653,0
3.4404,-0.00011531,0
3.4409,-9.5338e-05,0
3.4415,-8.1071e-05,0
3.442,-6.1265e-05,0
3.4425,-3.6591e-05,0
3.443,-1.4267e-05,0
3.4435,1.6114e-05,0
3.4441,6.3111e-05,0
3.4446,0.00010541,0
3.4451,0.00011196,0
3.4456,7.2679e-05,0
3.4461,1.5106e-05,0
3.4467,-2.6184e-05,0
3.4472,-3.7766e-05,0
3.4477,-1.9303e-05,0
3.4482,1.4603e-05,0
3.4487,3.7934e-05,0
3.4493,3.3402e-05,0
3.4498,2.2324e-05,0
3.4503,3.5752e-05,0
3.4508,6.7475e-05,0
3.4513,8.2078e-05,0
3.4518,6.4958e-05,0
3.4524,3.6088e-05,0
3.4529,1.5946e-05,0
3.4534,6.5461e-06,0
3.4539,4.1962e-06,0
3.4544,1.8463e-06,0
3.455,-2.5177e-06,0
3.4555,-1.2924e-05,0
3.456,-2.6017e-05,0
3.4565,-3.5752e-05,0
3.457,-4.2466e-05,0
3.4576,-4.8508e-05,0
3.4581,-6.1433e-05,0
3.4586,-7.9728e-05,0
3.4591,-8.3085e-05,0
3.4596,-6.2943e-05,0
3.4602,-3.3402e-05,0
3.4607,-4.3641e-06,0
3.4612,2.652e-05,0
3.4617,5.623e-05,0
3.4622,7.3686e-05,0
3.4628,7.335e-05,0
3.4633,6.4958e-05,0
3.4638,5.6901e-05,0
3.4643,4.2466e-05,0
3.4648,1.9806e-05,0
3.4653,5.0355e-07,0
3.4659,-1.5106e-06,0
3.4664,8.5603e-06,0
3.4669,2.2156e-05,0
3.4674,3.6088e-05,0
3.4679,4.1291e-05,0
3.4685,3.4913e-05,0
3.469,2.6017e-05,0
3.4695,2.0645e-05,0
3.47,1.8631e-05,0
3.4705,1.6617e-05,0
3.4711,1.7288e-05,0
3.4716,2.1988e-05,0
3.4721,2.6688e-05,0
3.4726,2.501e-05,0
3.4731,1.796e-05,0
3.4737,1.3428e-05,0
3.4742,1.5106e-05,0
3.4747,2.0981e-05,0
3.4752,2.7024e-05,0
3.4757,3.1724e-05,0
3.4762,3.2059e-05,0
3.4768,2.9038e-05,0
3.4773,2.7695e-05,0
3.4778,3.2059e-05,0
3.4783,3.8941e-05,0
3.4788,3.9612e-05,0
3.4794,3.2059e-05,0
3.4799,1.1749e-05,0
3.4804,-1.8128e-05,0
3.4809,-6.9154e-05,0
3.4814,-0.00012706,0
3.482,-0.00014636,0
3.4825,-0.00012287,0
3.483,-9.0303e-05,0
3.4835,-7.3518e-05,0
3.484,-6.9154e-05,0
3.4846,-7.1336e-05,0
3.4851,-6.5293e-05,0
3.4856,-1.326e-05,0
3.4861,6.9657e-05,0
3.4866,0.00010625,0
3.4872,6.4286e-05,0
3.4877,1.6785e-06,0
3.4882,-2.8367e-05,0
3.4887,-1.4603e-05,0
3.4892,3.7263e-05,0
3.4897,0.00012136,0
3.4903,0.00020394,0
3.4908,0.00023146,0
3.4913,0.00019789,0
3.4918,0.00015677,0
3.4923,0.00014418,0
3.4929,0.00016063,0
3.4934,0.00020327,0
3.4939,0.00026403,0
3.4944,0.00032076,0
3.4949,0.0003503,0
3.4955,0.00034694,0
3.496,0.00030968,0
3.4965,0.00024523,0
3.497,0.00017003,0
3.4975,9.6345e-05,0
3.4981,3.2395e-05,0
3.4986,-2.1988e-05,0
3.4991,-7.2679e-05,0
3.4996,-0.00012303,0
3.5001,-0.0001655,0
3.5007,-0.00018363,0
3.5012,-0.00017104,0
3.5017,-0.00013814,0
3.5022,-0.00010726,0
3.5027,-9.0974e-05,0
3.5032,-7.0665e-05,0
3.5038,-4.0787e-05,0
3.5043,-1.4267e-05,0
3.5048,5.2033e-06,0
3.5053,1.3931e-05,0
3.5058,1.4099e-05,0
3.5064,8.2246e-06,0
3.5069,-8.0568e-06,0
3.5074,-3.2563e-05,0
3.5079,-5.2537e-05,0
3.5084,-5.3376e-05,0
3.509,-3.978e-05,0
3.5095,-2.7192e-05,0
3.51,-2.4674e-05,0
3.5105,-2.9038e-05,0
3.511,-3.6759e-05,0
3.5116,-6.8818e-05,0
3.5121,-0.00014133,0
3.5126,-0.00020511,0
3.5131,-0.00020159,0
3.5136,-0.00015241,0
3.5142,-0.00013445,0
3.5147,-0.00016097,0
3.5152,-0.00016483,0
3.5157,-9.8695e-05,0
3.5162,1.3764e-05,0
3.5168,0.00014049,0
3.5173,0.00026067,0
3.5178,0.00035836,0
3.5183,0.00039461,0
3.5188,0.00035534,0
3.5193,0.0002934,0
3.5199,0.0002454,0
3.5204,0.00018245,0
3.5209,9.3156e-05,0
3.5214,1.4435e-05,0
3.5219,-3.3906e-05,0
3.5225,-5.388e-05,0
3.523,-5.388e-05,0
3.5235,-4.3305e-05,0
3.524,-2.182e-05,0
3.5245,8.896e-06,0
3.5251,3.3066e-05,0
3.5256,4.5487e-05,0
3.5261,5.4215e-05,0
3.5266,6.0594e-05,0
3.5271,6.1265e-05,0
3.5277,5.4383e-05,0
3.5282,3.7263e-05,0
3.5287,1.3764e-05,0
3.5292,-1.2589e-05,0
3.5297,-4.9348e-05,0
3.5303,-9.0806e-05,0
3.5308,-0.00011951,0
3.5313,-0.00013176,0
3.5318,-0.00012941,0
3.5323,-0.00011649,0
3.5328,-9.6178e-05,0
3.5334,-7.0161e-05,0
3.5339,-4.448e-05,0
3.5344,-3.6088e-05,0
3.5349,-5.2705e-05,0
3.5354,-6.4958e-05,0
3.536,-5.2873e-05,0
3.5365,-2.417e-05,0
3.537,5.539e-06,0
3.5375,2.8702e-05,0
3.538,4.8676e-05,0
3.5386,7.4693e-05,0
3.5391,0.00011464,0
3.5396,0.00015459,0
3.5401,0.00016886,0
3.5406,0.00014553,0
3.5412,9.6345e-05,0
3.5417,3.2059e-05,0
3.5422,-4.4648e-05,0
3.5427,-0.00011044,0
3.5432,-0.00015929,0
3.5438,-0.00020243,0
3.5443,-0.00022744,0
3.5448,-0.00023113,0
3.5453,-0.00023247,0
3.5458,-0.00020797,0
3.5463,-0.00012622,0
3.5469,-7.5532e-06,0
3.5474,0.0001044,0
3.5479,0.00019756,0
3.5484,0.00028585,0
3.5489,0.00036608,0
3.5495,0.00039763,0
3.55,0.00037078,0
3.5505,0.00030733,0
3.551,0.00023885,0
3.5515,0.00018917,0
3.5521,0.00016399,0
3.5526,0.0001561,0
3.5531,0.00015207,0
3.5536,0.00013445,0
3.5541,9.2988e-05,0
3.5547,4.3641e-05,0
3.5552,1.3428e-06,0
3.5557,-2.7695e-05,0
3.5562,-2.7024e-05,0
3.5567,-4.6998e-06,0
3.5572,7.0497e-06,0
3.5578,-5.2033e-06,0
3.5583,-2.9206e-05,0
3.5588,-5.6565e-05,0
3.5593,-7.7714e-05,0
3.5598,-8.661e-05,0
3.5604,-8.5771e-05,0
3.5609,-7.7043e-05,0
3.5614,-5.539e-05,0
3.5619,-2.4002e-05,0
3.5624,1.7121e-05,0
3.563,6.5293e-05,0
3.5635,0.0001039,0
3.564,0.00010726,0
3.5645,6.8986e-05,0
3.565,1.3596e-05,0
3.5656,-3.122e-05,0
3.5661,-5.5222e-05,0
3.5666,-6.3951e-05,0
3.5671,-6.3951e-05,0
3.5676,-5.4719e-05,0
3.5682,-3.5584e-05,0
3.5687,-1.2253e-05,0
3.5692,9.0639e-06,0
3.5697,2.6017e-05,0
3.5702,4.2802e-05,0
3.5707,5.8579e-05,0
3.5713,6.0258e-05,0
3.5718,3.9277e-05,0
3.5723,-1.326e-05,0
3.5728,-7.1336e-05,0
3.5733,-9.2988e-05,0
3.5739,-7.8721e-05,0
3.5744,-5.4551e-05,0
3.5749,-3.3066e-05,0
3.5754,-1.4939e-05,0
3.5759,3.1891e-06,0
3.5765,2.1317e-05,0
3.577,3.4409e-05,0
3.5775,4.3473e-05,0
3.578,4.6159e-05,0
3.5785,3.0716e-05,0
3.5791,7.8889e-06,0
3.5796,-1.5106e-06,0
3.5801,2.5177e-06,0
3.5806,1.3596e-05,0
3.5811,2.501e-05,0
3.5817,3.2731e-05,0
3.5822,4.0452e-05,0
3.5827,5.069e-05,0
3.5832,5.6901e-05,0
3.5837,5.8412e-05,0
3.5842,6.0761e-05,0
3.5848,6.3111e-05,0
3.5853,5.9922e-05,0
3.5858,4.7501e-05,0
3.5863,3.1724e-05,0
3.5868,1.6785e-05,0
3.5874,-6.2104e-06,0
3.5879,-4.4984e-05,0
3.5884,-8.2246e-05,0
3.5889,-9.5674e-05,0
3.5894,-8.275e-05,0
3.59,-5.3208e-05,0
3.5905,-1.3092e-05,0
3.591,2.5681e-05,0
3.5915,5.153e-05,0
3.592,6.0929e-05,0
3.5926,6.2608e-05,0
3.5931,7.9728e-05,0
3.5936,0.00011447,0
3.5941,0.00012572,0
3.5946,9.2988e-05,0
3.5952,4.4144e-05,0
3.5957,1.1078e-05,0
3.5962,-1.3092e-05,0
3.5967,-4.7333e-05,0
3.5972,-7.0832e-05,0
3.5978,-4.6998e-05,0
3.5983,1.5274e-05,0
3.5988,6.865e-05,0
3.5993,8.191e-05,0
3.5998,7.7714e-05,0
3.6003,8.1743e-05,0
3.6009,8.4092e-05,0
3.6014,7.6371e-05,0
3.6019,6.1936e-05,0
3.6024,4.3473e-05,0
3.6029,2.5345e-05,0
3.6035,1.4435e-05,0
3.604,6.3783e-06,0
3.6045,-1.3596e-05,0
3.605,-5.8579e-05,0
3.6055,-0.00011498,0
3.6061,-0.00013411,0
3.6066,-8.5603e-05,0
3.6071,5.2033e-06,0
3.6076,8.7953e-05,0
3.6081,0.00014821,0
3.6087,0.00019722,0
3.6092,0.00023583,0
3.6097,0.00025664,0
3.6102,0.00025933,0
3.6107,0.00024758,0
3.6113,0.00021837,0
3.6118,0.00015828,0
3.6123,7.1672e-05,0
3.6128,-1.2757e-05,0
3.6133,-7.9393e-05,0
3.6138,-0.00012253,0
3.6144,-0.00014066,0
3.6149,-0.00013579,0
3.6154,-0.00011598,0
3.6159,-9.2653e-05,0
3.6164,-7.3014e-05,0
3.617,-6.9993e-05,0
3.6175,-7.8553e-05,0
3.618,-8.0232e-05,0
3.6185,-6.9993e-05,0
3.619,-5.7908e-05,0
3.6196,-4.8844e-05,0
3.6201,-3.5752e-05,0
3.6206,-1.8296e-05,0
3.6211,-2.1988e-05,0
3.6216,-3.9445e-05,0
3.6222,-4.6662e-05,0
3.6227,-4.8005e-05,0
3.6232,-4.9851e-05,0
3.6237,-4.7669e-05,0
3.6242,-3.1891e-05,0
3.6248,1.8463e-06,0
3.6253,4.8844e-05,0
3.6258,9.4835e-05,0
3.6263,0.00012001,0
3.6268,0.000118,0
3.6273,0.0001086,0
3.6279,0.00011095,0
3.6284,0.00011733,0
3.6289,0.00010138,0
3.6294,5.4887e-05,0
3.6299,8.3925e-06,0
3.6305,-1.6449e-05,0
3.631,-1.561e-05,0
3.6315,1.3931e-05,0
3.632,6.8818e-05,0
3.6325,0.00012102,0
3.6331,0.00014418,0
3.6336,0.00012941,0
3.6341,7.5868e-05,0
3.6346,-4.1962e-06,0
3.6351,-9.366e-05,0
3.6357,-0.000142,0
3.6362,-0.00011514,0
3.6367,-5.0019e-05,0
3.6372,-5.8747e-06,0
3.6377,-2.3499e-06,0
3.6383,-2.4842e-05,0
3.6388,-4.5319e-05,0
3.6393,-4.3137e-05,0
3.6398,-1.3931e-05,0
3.6403,4.213e-05,0
3.6408,9.7017e-05,0
3.6414,0.00011833,0
3.6419,0.00010776,0
3.6424,8.8792e-05,0
3.6429,8.9128e-05,0
3.6434,0.00012303,0
3.644,0.0001707,0
3.6445,0.00020327,0
3.645,0.00020713,0
3.6455,0.00018228,0
3.646,0.00013042,0
3.6466,5.9251e-05,0
3.6471,5.0355e-06,0
3.6476,-8.5603e-06,0
3.6481,-2.501e-05,0
3.6486,-8.9464e-05,0
3.6492,-0.00017305,0
3.6497,-0.00021686,0
3.6502,-0.00021183,0
3.6507,-0.00018061,0
3.6512,-0.00015409,0
3.6517,-0.0001462,0
3.6523,-0.00013747,0
3.6528,-0.00011582,0
3.6533,-7.5364e-05,0
3.6538,-1.1246e-05,0
3.6543,5.8915e-05,0
3.6549,0.00011968,0
3.6554,0.00016399,0
3.6559,0.00018967,0
3.6564,0.00020511,0
3.6569,0.00022274,0
3.6575,0.00023482,0
3.658,0.00022542,0
3.6585,0.00019269,0
3.659,0.00015224,0
3.6595,0.00011699,0
3.6601,8.7114e-05,0
3.6606,5.6062e-05,0
3.6611,2.4506e-05,0
3.6616,-1.1749e-06,0
3.6621,-1.8296e-05,0
3.6627,-3.1724e-05,0
3.6632,-4.8341e-05,0
3.6637,-6.2272e-05,0
3.6642,-6.0929e-05,0
3.6647,-4.3137e-05,0
3.6652,-3.2395e-05,0
3.6658,-4.2802e-05,0
3.6663,-5.4047e-05,0
3.6668,-4.5151e-05,0
3.6673,-3.7934e-05,0
3.6678,-5.0523e-05,0
3.6684,-6.479e-05,0
3.6689,-6.3951e-05,0
3.6694,-5.1194e-05,0
3.6699,-3.9277e-05,0
3.6704,-3.0716e-05,0
3.671,-2.2324e-05,0
3.6715,-1.8296e-05,0
3.672,-1.4099e-05,0
3.6725,-6.5461e-06,0
3.673,1.6785e-07,0
3.6736,7.5532e-06,0
3.6741,1.5106e-05,0
3.6746,9.3996e-06,0
3.6751,-1.1749e-05,0
3.6756,-3.6759e-05,0
3.6762,-5.1194e-05,0
3.6767,-5.4383e-05,0
3.6772,-4.9348e-05,0
3.6777,-3.0213e-05,0
3.6782,6.5461e-06,0
3.6787,4.9851e-05,0
3.6793,8.8121e-05,0
3.6798,0.00010709,0
3.6803,0.00010927,0
3.6808,0.00010423,0
3.6813,9.0471e-05,0
3.6819,7.7379e-05,0
3.6824,8.2078e-05,0
3.6829,0.0001039,0
3.6834,0.00012136,0
3.6839,0.00011196,0
3.6845,7.3686e-05,0
3.685,3.2563e-05,0
3.6855,1.1582e-05,0
3.686,5.7069e-06,0
3.6865,-1.1246e-05,0
3.6871,-4.4816e-05,0
3.6876,-7.1e-05,0
3.6881,-8.1743e-05,0
3.6886,-8.51e-05,0
3.6891,-8.275e-05,0
3.6897,-7.4357e-05,0
3.6902,-6.5293e-05,0
3.6907,-4.5319e-05,0
3.6912,-9.0639e-06,0
3.6917,3.8773e-05,0
3.6923,9.6345e-05,0
3.6928,0.00015627,0
3.6933,0.00019907,0
3.6938,0.00021535,0
3.6943,0.00021636,0
3.6948,0.00020797,0
3.6954,0.00019168,0
3.6959,0.00015929,0
3.6964,0.00011095,0
3.6969,6.4286e-05,0
3.6974,3.2395e-05,0
3.698,1.8296e-05,0
3.6985,1.3596e-05,0
3.699,-8.3925e-07,0
3.6995,-3.3402e-05,0
3.7,-5.5726e-05,0
3.7006,-6.3111e-05,0
3.7011,-8.04e-05,0
3.7016,-0.00010507,0
3.7021,-0.00011867,0
3.7026,-0.00011498,0
3.7032,-0.00010272,0
3.7037,-8.04e-05,0
3.7042,-3.8773e-05,0
3.7047,1.561e-05,0
3.7052,5.4551e-05,0
3.7058,7.0161e-05,0
3.7063,7.6036e-05,0
3.7068,7.2175e-05,0
3.7073,5.2873e-05,0
3.7078,3.3738e-05,0
3.7083,3.0045e-05,0
3.7089,2.6688e-05,0
3.7094,1.3596e-05,0
3.7099,5.539e-06,0
3.7104,1.8463e-05,0
3.7109,4.3137e-05,0
3.7115,7.2343e-05,0
3.712,0.00010188,0
3.7125,0.00011464,0
3.713,9.6849e-05,0
3.7135,5.4887e-05,0
3.7141,1.3428e-05,0
3.7146,-1.3596e-05,0
3.7151,-2.6688e-05,0
3.7156,-3.1388e-05,0
3.7161,-3.0381e-05,0
3.7167,-2.4002e-05,0
3.7172,-2.031e-05,0
3.7177,-1.3931e-05,0
3.7182,9.5674e-06,0
3.7187,3.6591e-05,0
3.7193,4.0116e-05,0
3.7198,1.8631e-05,0
3.7203,-5.539e-06,0
3.7208,-1.7624e-05,0
3.7213,-2.5345e-05,0
3.7218,-3.8941e-05,0
3.7224,-5.2369e-05,0
3.7229,-5.2201e-05,0
3.7234,-3.7766e-05,0
3.7239,-2.1317e-05,0
3.7244,-7.5532e-06,0
3.725,9.7353e-06,0
3.7255,2.8702e-05,0
3.726,4.7501e-05,0
3.7265,6.1601e-05,0
3.727,7.1e-05,0
3.7276,7.6371e-05,0
3.7281,7.2343e-05,0
3.7286,5.5726e-05,0
3.7291,3.3738e-05,0
3.7296,1.7121e-05,0
3.7302,6.714e-06,0
3.7307,-2.5177e-06,0
3.7312,-1.0071e-05,0
3.7317,-1.4939e-05,0
3.7322,-1.9638e-05,0
3.7327,-2.2995e-05,0
3.7333,-1.5946e-05,0
3.7338,-2.6856e-06,0
3.7343,1.1749e-06,0
3.7348,-3.8605e-06,0
3.7353,-8.7282e-06,0
3.7359,-1.1749e-05,0
3.7364,-1.8967e-05,0
3.7369,-3.3402e-05,0
3.7374,-5.2201e-05,0
3.7379,-6.479e-05,0
3.7385,-8.7114e-05,0
3.739,-0.00013109,0
3.7395,-0.00017171,0
3.74,-0.00016466,0
3.7405,-9.2821e-05,0
3.7411,-5.0355e-07,0
3.7416,7.1672e-05,0
3.7421,0.00013663,0
3.7426,0.00022475,0
3.7431,0.00033083,0
3.7437,0.00042231,0
3.7442,0.00045957,0
3.7447,0.00043087,0
3.7452,0.0003503,0
3.7457,0.00023381,0
3.7462,9.8527e-05,0
3.7468,-2.0645e-05,0
3.7473,-9.1142e-05,0
3.7478,-0.00011196,0
3.7483,-0.00010977,0
3.7488,-9.752e-05,0
3.7494,-6.7811e-05,0
3.7499,-2.3499e-05,0
3.7504,2.4002e-05,0
3.7509,6.6972e-05,0
3.7514,0.00010658,0
3.752,0.00013814,0
3.7525,0.00014116,0
3.753,0.00011229,0
3.7535,6.0426e-05,0
3.754,-9.5674e-06,0
3.7546,-8.4428e-05,0
3.7551,-0.0001373,0
3.7556,-0.00013881,0
3.7561,-0.00010256,0
3.7566,-7.3014e-05,0
3.7572,-7.5364e-05,0
3.7577,-9.2821e-05,0
3.7582,-0.00010222,0
3.7587,-9.9367e-05,0
3.7592,-9.5506e-05,0
3.7597,-0.00010256,0
3.7603,-0.00011733,0
3.7608,-0.000118,0
3.7613,-9.6178e-05,0
3.7618,-4.448e-05,0
3.7623,3.7766e-05,0
3.7629,0.00010994,0
3.7634,0.00011464,0
3.7639,5.7572e-05,0
3.7644,1.8463e-06,0
3.7649,-2.0142e-05,0
3.7655,-1.9806e-05,0
3.766,-6.0426e-06,0
3.7665,3.4409e-05,0
3.767,9.8527e-05,0
3.7675,0.00015543,0
3.7681,0.00019185,0
3.7686,0.00021988,0
3.7691,0.00024355,0
3.7696,0.00025328,0
3.7701,0.00023583,0
3.7707,0.00019185,0
3.7712,0.00013143,0
3.7717,7.8218e-05,0
3.7722,4.2802e-05,0
3.7727,1.561e-05,0
3.7732,-1.6281e-05,0
3.7738,-5.0187e-05,0
3.7743,-6.6972e-05,0
3.7748,-6.3447e-05,0
3.7753,-6.1433e-05,0
3.7758,-6.7643e-05,0
3.7764,-7.0161e-05,0
3.7769,-5.1865e-05,0
3.7774,-1.9638e-05,0
3.7779,4.5319e-06,0
3.7784,1.4267e-05,0
3.779,2.7695e-05,0
3.7795,5.0523e-05,0
3.78,6.0426e-05,0
3.7805,4.5151e-05,0
3.781,2.4002e-05,0
3.7816,2.0645e-05,0
3.7821,2.5177e-05,0
3.7826,1.3596e-05,0
3.7831,-9.2317e-06,0
3.7836,-2.4674e-05,0
3.7842,-2.7359e-05,0
3.7847,-2.3499e-05,0
3.7852,-2.2995e-05,0
3.7857,-2.8031e-05,0
3.7862,-3.122e-05,0
3.7868,-3.2731e-05,0
3.7873,-2.9709e-05,0
3.7878,-1.4603e-05,0
3.7883,2.0142e-06,0
3.7888,1.6785e-07,0
3.7893,-2.9206e-05,0
3.7899,-6.7308e-05,0
3.7904,-8.3925e-05,0
3.7909,-6.5293e-05,0
3.7914,-3.3402e-05,0
3.7919,-2.3667e-05,0
3.7925,-4.4648e-05,0
3.793,-6.7811e-05,0
3.7935,-5.5894e-05,0
3.794,1.1749e-06,0
3.7945,7.4357e-05,0
3.7951,0.00012656,0
3.7956,0.0001368,0
3.7961,0.00010893,0
3.7966,6.3447e-05,0
3.7971,2.6688e-05,0
3.7977,9.0639e-06,0
3.7982,1.6785e-06,0
3.7987,-2.5177e-06,0
3.7992,-4.1962e-06,0
3.7997,-3.357e-06,0
3.8003,-1.5106e-06,0
3.8008,3.357e-07,0
3.8013,3.357e-07,0
3.8018,5.2033e-06,0
3.8023,2.1653e-05,0
3.8028,3.6759e-05,0
3.8034,3.5752e-05,0
3.8039,1.796e-05,0
3.8044,-4.0284e-06,0
3.8049,-1.6953e-05,0
3.8054,-2.0981e-05,0
3.806,-1.3596e-05,0
3.8065,9.9031e-06,0
3.807,4.062e-05,0
3.8075,5.5558e-05,0
3.808,4.7837e-05,0
3.8086,3.0045e-05,0
3.8091,3.5416e-05,0
3.8096,6.6636e-05,0
3.8101,9.8192e-05,0
3.8106,0.00010944,0
3.8112,0.00010037,0
3.8117,8.5603e-05,0
3.8122,7.7043e-05,0
3.8127,7.57e-05,0
3.8132,6.4286e-05,0
3.8138,1.326e-05,0
3.8143,-6.5461e-05,0
3.8148,-0.00014049,0
3.8153,-0.00020041,0
3.8158,-0.00024237,0
3.8163,-0.00025261,0
3.8169,-0.00022223,0
3.8174,-0.00015425,0
3.8179,-5.1362e-05,0
3.8184,7.1504e-05,0
3.8189,0.00019185,0
3.8195,0.00029256,0
3.82,0.0003696,0
3.8205,0.00040368,0
3.821,0.00036843,0
3.8215,0.00028014,0
3.8221,0.00018849,0
3.8226,0.00012605,0
3.8231,9.9702e-05,0
3.8236,9.7017e-05,0
3.8241,0.00010256,0
3.8247,0.00010491,0
3.8252,0.00010121,0
3.8257,9.1142e-05,0
3.8262,6.63e-05,0
3.8267,2.9877e-05,0
3.8272,-1.0071e-06,0
3.8278,-2.0142e-05,0
3.8283,-2.6856e-05,0
3.8288,-2.3667e-05,0
3.8293,-2.1988e-05,0
3.8298,-2.266e-05,0
3.8304,-2.1317e-05,0
3.8309,-1.8296e-05,0
3.8314,-8.896e-06,0
3.8319,7.5532e-06,0
3.8324,1.9303e-05,0
3.833,1.3428e-05,0
3.8335,-5.0355e-06,0
3.834,-2.5849e-05,0
3.8345,-3.827e-05,0
3.835,-3.5416e-05,0
3.8356,-2.8199e-05,0
3.8361,-2.7527e-05,0
3.8366,-2.5681e-05,0
3.8371,-2.9541e-05,0
3.8376,-4.5487e-05,0
3.8382,-5.7572e-05,0
3.8387,-5.5894e-05,0
3.8392,-5.7572e-05,0
3.8397,-7.7714e-05,0
3.8402,-0.00010625,0
3.8407,-0.00010474,0
3.8413,-7.0161e-05,0
3.8418,-3.743e-05,0
3.8423,-3.508e-05,0
3.8428,-6.1265e-05,0
3.8433,-7.9728e-05,0
3.8439,-6.5629e-05,0
3.8444,-2.2324e-05,0
3.8449,3.2395e-05,0
3.8454,6.8986e-05,0
3.8459,6.3279e-05,0
3.8465,3.1891e-05,0
3.847,1.0575e-05,0
3.8475,1.1414e-05,0
3.848,2.2995e-05,0
3.8485,2.8031e-05,0
3.8491,1.4267e-05,0
3.8496,-6.2104e-06,0
3.8501,-1.561e-05,0
3.8506,-7.5532e-06,0
3.8511,1.326e-05,0
3.8517,4.0955e-05,0
3.8522,7.4693e-05,0
3.8527,0.00010188,0
3.8532,0.00010726,0
3.8537,9.7856e-05,0
3.8542,8.0064e-05,0
3.8548,4.2802e-05,0
3.8553,-2.2324e-05,0
3.8558,-8.8457e-05,0
3.8563,-0.00012404,0
3.8568,-0.00012689,0
3.8574,-9.6513e-05,0
3.8579,-3.8437e-05,0
3.8584,2.0645e-05,0
3.8589,5.7572e-05,0
3.8594,7.3686e-05,0
3.86,8.3589e-05,0
3.8605,9.987e-05,0
3.861,0.00012807,0
3.8615,0.0001655,0
3.862,0.0002036,0
3.8626,0.00023415,0
3.8631,0.00024523,0
3.8636,0.00022206,0
3.8641,0.00017305,0
3.8646,0.00012874,0
3.8652,0.00010289,0
3.8657,8.7785e-05,0
3.8662,7.9728e-05,0
3.8667,6.8818e-05,0
3.8672,4.4144e-05,0
3.8678,1.1246e-05,0
3.8683,-2.2492e-05,0
3.8688,-6.5293e-05,0
3.8693,-0.00010306,0
3.8698,-0.00010507,0
3.8703,-7.5868e-05,0
3.8709,-5.2201e-05,0
3.8714,-5.0858e-05,0
3.8719,-5.8076e-05,0
3.8724,-5.0019e-05,0
3.8729,-2.3331e-05,0
3.8735,7.2175e-06,0
3.874,3.3066e-05,0
3.8745,5.3544e-05,0
3.875,6.3279e-05,0
3.8755,5.0019e-05,0
3.8761,1.3764e-05,0
3.8766,-2.0645e-05,0
3.8771,-3.9612e-05,0
3.8776,-4.4648e-05,0
3.8781,-3.122e-05,0
3.8787,-3.5248e-06,0
3.8792,2.1317e-05,0
3.8797,2.6017e-05,0
3.8802,1.7121e-05,0
3.8807,2.266e-05,0
3.8813,5.4887e-05,0
3.8818,8.8457e-05,0
3.8823,9.0135e-05,0
3.8828,4.8508e-05,0
3.8833,-7.5532e-06,0
3.8838,-4.9851e-05,0
3.8844,-8.4092e-05,0
3.8849,-0.0001284,0
3.8854,-0.00015358,0
3.8859,-0.00012857,0
3.8864,-8.2078e-05,0
3.887,-4.9683e-05,0
3.8875,-1.4603e-05,0
3.888,6.2272e-05,0
3.8885,0.00017876,0
3.889,0.00027343,0
3.8896,0.00029995,0
3.8901,0.00026084,0
3.8906,0.00018447,0
3.8911,9.987e-05,0
3.8916,3.3066e-05,0
3.8922,-4.3641e-06,0
3.8927,-1.2924e-05,0
3.8932,-6.5461e-06,0
3.8937,-3.8605e-06,0
3.8942,-2.8534e-06,0
3.8948,2.8534e-06,0
3.8953,7.8889e-06,0
3.8958,5.7069e-06,0
3.8963,-4.8676e-06,0
3.8968,-1.9638e-05,0
3.8973,-3.1556e-05,0
3.8979,-3.8437e-05,0
3.8984,-3.8941e-05,0
3.8989,-3.8437e-05,0
3.8994,-4.2802e-05,0
3.8999,-4.8508e-05,0
3.9005,-4.8508e-05,0
3.901,-4.3641e-05,0
3.9015,-3.978e-05,0
3.902,-3.978e-05,0
3.9025,-3.5752e-05,0
3.9031,-2.501e-05,0
3.9036,-1.8967e-05,0
3.9041,-1.2421e-05,0
3.9046,1.0071e-05,0
3.9051,4.0452e-05,0
3.9057,6.1433e-05,0
3.9062,6.8482e-05,0
3.9067,6.7811e-05,0
3.9072,6.3279e-05,0
3.9077,6.0426e-05,0
3.9082,6.4622e-05,0
3.9088,6.6133e-05,0
3.9093,3.1388e-05,0
3.9098,-3.8102e-05,0
3.9103,-8.9799e-05,0
3.9108,-8.5603e-05,0
3.9114,-5.623e-05,0
3.9119,-5.0355e-05,0
3.9124,-7.9728e-05,0
3.9129,-0.00013227,0
3.9134,-0.00017104,0
3.914,-0.00017372,0
3.9145,-0.00015106,0
3.915,-0.00012219,0
3.9155,-9.8024e-05,0
3.916,-7.7546e-05,0
3.9166,-4.7166e-05,0
3.9171,9.2317e-06,0
3.9176,0.00010994,0
3.9181,0.00024019,0
3.9186,0.00034426,0
3.9192,0.00038421,0
3.9197,0.00037716,0
3.9202,0.00035668,0
3.9207,0.00033117,0
3.9212,0.00028853,0
3.9217,0.00023012,0
3.9223,0.00016986,0
3.9228,0.00012589,0
3.9233,0.0001039,0
3.9238,8.8792e-05,0
3.9243,6.4622e-05,0
3.9249,3.4913e-05,0
3.9254,1.3596e-05,0
3.9259,8.3925e-07,0
3.9264,-6.8818e-06,0
3.9269,-1.2757e-05,0
3.9275,-1.9638e-05,0
3.928,-2.7192e-05,0
3.9285,-2.9709e-05,0
3.929,-2.6017e-05,0
3.9295,-1.9806e-05,0
3.9301,-1.7792e-05,0
3.9306,-1.9806e-05,0
3.9311,-2.8702e-05,0
3.9316,-5.8579e-05,0
3.9321,-0.0001044,0
3.9327,-0.00012706,0
3.9332,-0.00011565,0
3.9337,-0.00010004,0
3.9342,-9.7856e-05,0
3.9347,-0.00010507,0
3.9352,-0.00011296,0
3.9358,-0.00011095,0
3.9363,-9.4163e-05,0
3.9368,-7.4525e-05,0
3.9373,-6.9154e-05,0
3.9378,-7.1336e-05,0
3.9384,-5.774e-05,0
3.9389,-2.2324e-05,0
3.9394,2.2995e-05,0
3.9399,5.7572e-05,0
3.9404,6.3615e-05,0
3.941,7.2679e-05,0
3.9415,0.00012471,0
3.942,0.00019588,0
3.9425,0.00022072,0
3.943,0.00017675,0
3.9436,9.6513e-05,0
3.9441,2.7024e-05,0
3.9446,-1.1582e-05,0
3.9451,-1.5106e-05,0
3.9456,1.3764e-05,0
3.9462,4.683e-05,0
3.9467,5.2705e-05,0
3.9472,4.448e-05,0
3.9477,5.8244e-05,0
3.9482,0.00010088,0
3.9487,0.00013747,0
3.9493,0.00013042,0
3.9498,8.5771e-05,0
3.9503,3.9277e-05,0
3.9508,-2.5177e-06,0
3.9513,-3.6423e-05,0
3.9519,-4.9516e-05,0
3.9524,-4.4816e-05,0
3.9529,-4.2298e-05,0
3.9534,-5.2201e-05,0
3.9539,-6.7979e-05,0
3.9545,-7.9225e-05,0
3.955,-7.9728e-05,0
3.9555,-7.6371e-05,0
3.956,-8.0568e-05,0
3.9565,-8.661e-05,0
3.9571,-8.5603e-05,0
3.9576,-7.2343e-05,0
3.9581,-3.9612e-05,0
3.9586,9.5674e-06,0
3.9591,5.6565e-05,0
3.9597,8.9464e-05,0
3.9602,0.00011263,0
3.9607,0.00012136,0
3.9612,0.00011061,0
3.9617,9.3828e-05,0
3.9623,8.7785e-05,0
3.9628,8.6946e-05,0
3.9633,7.6036e-05,0
3.9638,5.9251e-05,0
3.9643,4.5487e-05,0
3.9648,4.3977e-05,0
3.9654,5.5558e-05,0
3.9659,6.5126e-05,0
3.9664,5.7069e-05,0
3.9669,3.4745e-05,0
3.9674,8.2246e-06,0
3.968,-1.3596e-05,0
3.9685,-3.508e-05,0
3.969,-6.3111e-05,0
3.9695,-8.8121e-05,0
3.97,-9.0471e-05,0
3.9706,-7.4861e-05,0
3.9711,-6.2943e-05,0
3.9716,-6.1265e-05,0
3.9721,-5.0858e-05,0
3.9726,-1.3092e-05,0
3.9732,3.8773e-05,0
3.9737,8.8121e-05,0
3.9742,0.0001274,0
3.9747,0.00015157,0
3.9752,0.00015291,0
3.9758,0.00013713,0
3.9763,0.00011984,0
3.9768,0.00011296,0
3.9773,0.00010826,0
3.9778,8.9128e-05,0
3.9783,5.6901e-05,0
3.9789,2.5345e-05,0
3.9794,7.7211e-06,0
3.9799,8.896e-06,0
3.9804,1.3092e-05,0
3.9809,7.8889e-06,0
3.9815,-3.1891e-06,0
3.982,-9.9031e-06,0
3.9825,-1.4771e-05,0
3.983,-2.182e-05,0
3.9835,-2.9206e-05,0
3.9841,-3.2059e-05,0
3.9846,-2.2324e-05,0
3.9851,-8.3925e-07,0
3.9856,1.8799e-05,0
3.9861,2.9709e-05,0
3.9867,3.2898e-05,0
3.9872,1.8967e-05,0
3.9877,-1.2757e-05,0
3.9882,-5.0187e-05,0
3.9887,-7.7379e-05,0
3.9893,-8.2078e-05,0
3.9898,-6.6972e-05,0
3.9903,-4.1123e-05,0
3.9908,-1.0575e-05,0
3.9913,2.0645e-05,0
3.9918,4.918e-05,0
3.9924,7.3182e-05,0
3.9929,8.7953e-05,0
3.9934,9.0974e-05,0
3.9939,8.5603e-05,0
3.9944,7.1e-05,0
3.995,4.8005e-05,0
3.9955,1.8296e-05,0
3.996,-1.9135e-05,0
3.9965,-4.6494e-05,0
3.997,-4.2802e-05,0
3.9976,-1.5106e-05,0
3.9981,8.896e-06,0
3.9986,1.0575e-05,0
3.9991,-4.0284e-06,0
3.9996,-1.4267e-05,0
4.0002,-5.539e-06,0
4.0007,1.6785e-05,0
4.0012,3.743e-05,0
4.0017,5.1698e-05,0
4.0022,6.3279e-05,0
4.0027,7.5364e-05,0
4.0033,8.3085e-05,0
4.0038,8.2918e-05,0
4.0043,7.8386e-05,0
4.0048,6.9322e-05,0
4.0053,5.1698e-05,0
4.0059,3.2898e-05,0
4.0064,2.501e-05,0
4.0069,2.7359e-05,0
4.0074,3.2731e-05,0
4.0079,2.5513e-05,0
4.0085,3.1891e-06,0
4.009,-2.8534e-06,0
4.0095,1.5106e-05,0
4.01,2.6688e-05,0
4.0105,1.0575e-05,0
4.0111,-1.561e-05,0
4.0116,-3.0381e-05,0
4.0121,-2.9206e-05,0
4.0126,-2.1653e-05,0
4.0131,-1.6281e-05,0
4.0137,-6.3783e-06,0
4.0142,8.896e-06,0
4.0147,2.2995e-05,0
4.0152,3.592e-05,0
4.0157,4.683e-05,0
4.0163,5.5222e-05,0
4.0168,5.3544e-05,0
4.0173,3.592e-05,0
4.0178,1.1917e-05,0
4.0183,-1.0071e-05,0
4.0188,-3.3906e-05,0
4.0194,-5.774e-05,0
4.0199,-7.5868e-05,0
4.0204,-8.5771e-05,0
4.0209,-8.9632e-05,0
4.0214,-8.4764e-05,0
4.022,-7.2007e-05,0
4.0225,-5.0019e-05,0
4.023,-1.2924e-05,0
4.0235,3.592e-05,0
4.024,8.9464e-05,0
4.0246,0.00013696,0
4.0251,0.00016466,0
4.0256,0.00016785,0
4.0261,0.00015459,0
4.0266,0.00014183,0
4.0272,0.00013495,0
4.0277,0.00012068,0
4.0282,9.0974e-05,0
4.0287,5.7237e-05,0
4.0292,3.3234e-05,0
4.0297,1.6449e-05,0
4.0303,-5.2033e-06,0
4.0308,-2.3667e-05,0
4.0313,-1.8296e-05,0
4.0318,1.6785e-06,0
4.0323,9.9031e-06,0
4.0329,-6.8818e-06,0
4.0334,-3.3738e-05,0
4.0339,-5.5055e-05,0
4.0344,-7.2679e-05,0
4.0349,-8.6442e-05,0
4.0355,-9.8527e-05,0
4.036,-0.00011901,0
4.0365,-0.00014267,0
4.037,-0.00014905,0
4.0375,-0.00013109,0
4.0381,-9.6178e-05,0
4.0386,-4.4984e-05,0
4.0391,2.266e-05,0
4.0396,9.2988e-05,0
4.0401,0.00015258,0
4.0407,0.00018044,0
4.0412,0.00018245,0
4.0417,0.00018161,0
4.0422,0.00018161,0
4.0427,0.0001744,0
4.0432,0.00015274,0
4.0438,0.00011615,0
4.0443,7.2847e-05,0
4.0448,4.3641e-05,0
4.0453,3.8605e-05,0
4.0458,4.7333e-05,0
4.0464,5.5222e-05,0
4.0469,6.5629e-05,0
4.0474,8.3085e-05,0
4.0479,9.4331e-05,0
4.0484,9.5171e-05,0
4.049,9.366e-05,0
4.0495,0.00010037,0
4.05,0.00011179,0
4.0505,0.0001039,0
4.051,7.0329e-05,0
4.0516,3.2059e-05,0
4.0521,-5.8747e-06,0
4.0526,-5.9419e-05,0
4.0531,-0.00010608,0
4.0536,-0.00011229,0
4.0542,-8.51e-05,0
4.0547,-4.8508e-05,0
4.0552,-1.3764e-05,0
4.0557,1.3764e-05,0
4.0562,3.3234e-05,0
4.0568,4.4648e-05,0
4.0573,4.8676e-05,0
4.0578,5.2537e-05,0
4.0583,5.9586e-05,0
4.0588,5.5558e-05,0
4.0593,2.9374e-05,0
4.0599,-5.2033e-06,0
4.0604,-3.6423e-05,0
4.0609,-7.8553e-05,0
4.0614,-0.00013848,0
4.0619,-0.00019101,0
4.0625,-0.0002078,0
4.063,-0.00018917,0
4.0635,-0.00014821,0
4.064,-9.5674e-05,0
4.0645,-4.2802e-05,0
4.0651,3.357e-07,0
4.0656,3.8437e-05,0
4.0661,8.7449e-05,0
4.0666,0.00014871,0
4.0671,0.00019504,0
4.0677,0.00019521,0
4.0682,0.00015492,0
4.0687,0.0001039,0
4.0692,6.5629e-05,0
4.0697,4.6326e-05,0
4.0702,4.0116e-05,0
4.0708,3.743e-05,0
4.0713,3.6423e-05,0
4.0718,2.8702e-05,0
4.0723,4.1962e-06,0
4.0728,-2.6017e-05,0
4.0734,-3.978e-05,0
4.0739,-3.3738e-05,0
4.0744,-1.6281e-05,0
4.0749,6.5461e-06,0
4.0754,1.9806e-05,0
4.076,8.7282e-06,0
4.0765,-1.8463e-05,0
4.077,-4.0452e-05,0
4.0775,-4.2802e-05,0
4.078,-3.4409e-05,0
4.0786,-3.2563e-05,0
4.0791,-4.1794e-05,0
4.0796,-5.3376e-05,0
4.0801,-5.7069e-05,0
4.0806,-4.0787e-05,0
4.0812,-3.5248e-06,0
4.0817,4.7166e-05,0
4.0822,9.4499e-05,0
4.0827,0.00011783,0
4.0832,0.00011598,0
4.0838,0.00011464,0
4.0843,0.00012555,0
4.0848,0.0001425,0
4.0853,0.0001509,0
4.0858,0.00013814,0
4.0863,9.9199e-05,0
4.0869,4.5151e-05,0
4.0874,-5.539e-06,0
4.0879,-3.7766e-05,0
4.0884,-4.6494e-05,0
4.0889,-4.1291e-05,0
4.0895,-3.4745e-05,0
4.09,-4.1459e-05,0
4.0905,-5.8244e-05,0
4.091,-6.5293e-05,0
4.0915,-5.6565e-05,0
4.0921,-3.6423e-05,0
4.0926,-6.8818e-06,0
4.0931,3.0045e-05,0
4.0936,6.1433e-05,0
4.0941,7.9393e-05,0
4.0947,9.2653e-05,0
4.0952,0.00012421,0
4.0957,0.00016902,0
4.0962,0.00019202,0
4.0967,0.00017053,0
4.0972,0.00012068,0
4.0978,6.1936e-05,0
4.0983,3.8605e-06,0
4.0988,-3.8437e-05,0
4.0993,-5.623e-05,0
4.0998,-5.2537e-05,0
4.1004,-4.213e-05,0
4.1009,-3.978e-05,0
4.1014,-3.4577e-05,0
4.1019,-1.2085e-05,0
4.1024,1.6953e-05,0
4.103,2.8702e-05,0
4.1035,3.0045e-05,0
4.104,3.3402e-05,0
4.1045,3.3402e-05,0
4.105,2.6352e-05,0
4.1056,1.3092e-05,0
4.1061,-2.182e-06,0
4.1066,-1.4435e-05,0
4.1071,-2.266e-05,0
4.1076,-2.3667e-05,0
4.1082,-1.7456e-05,0
4.1087,-1.2924e-05,0
4.1092,-1.1078e-05,0
4.1097,-3.8605e-06,0
4.1102,1.3596e-05,0
4.1108,2.8031e-05,0
4.1113,1.9638e-05,0
4.1118,3.8605e-06,0
4.1123,-3.8605e-06,0
4.1128,-2.6352e-05,0
4.1133,-6.9154e-05,0
4.1139,-9.9702e-05,0
4.1144,-9.5842e-05,0
4.1149,-5.9922e-05,0
4.1154,-7.8889e-06,0
4.1159,4.6494e-05,0
4.1165,0.00010021,0
4.117,0.00015023,0
4.1175,0.0001848,0
4.118,0.00019554,0
4.1185,0.00018413,0
4.1191,0.00014754,0
4.1196,8.5771e-05,0
4.1201,1.2253e-05,0
4.1206,-5.4719e-05,0
4.1211,-0.00010121,0
4.1217,-0.0001185,0
4.1222,-0.00011431,0
4.1227,-0.00010021,0
4.1232,-8.2414e-05,0
4.1237,-6.7811e-05,0
4.1242,-4.8508e-05,0
4.1248,-1.2924e-05,0
4.1253,3.5416e-05,0
4.1258,8.426e-05,0
4.1263,0.00011632,0
4.1268,0.00012253,0
4.1274,0.00011196,0
4.1279,0.00010457,0
4.1284,9.8527e-05,0
4.1289,7.6371e-05,0
4.1294,4.1459e-05,0
4.13,1.4771e-05,0
4.1305,4.3641e-06,0
4.131,4.5319e-06,0
4.1315,1.5274e-05,0
4.132,3.8102e-05,0
4.1326,5.3376e-05,0
4.1331,4.2802e-05,0
4.1336,1.6617e-05,0
4.1341,-1.091e-05,0
4.1346,-5.2537e-05,0
4.1352,-0.00011598,0
4.1357,-0.00014653,0
4.1362,-0.00011632,0
4.1367,-6.2943e-05,0
4.1372,-2.0981e-05,0
4.1377,9.9031e-06,0
4.1383,4.3809e-05,0
4.1388,8.1071e-05,0
4.1393,0.000118,0
4.1398,0.00015828,0
4.1403,0.00019319,0
4.1409,0.00020847,0
4.1414,0.00019252,0
4.1419,0.00016332,0
4.1424,0.0001425,0
4.1429,0.0001227,0
4.1435,9.0471e-05,0
4.144,4.9012e-05,0
4.1445,1.5106e-05,0
4.145,-1.0071e-06,0
4.1455,2.5177e-06,0
4.1461,2.5177e-06,0
4.1466,-2.1149e-05,0
4.1471,-5.0187e-05,0
4.1476,-7.1336e-05,0
4.1481,-8.0064e-05,0
4.1487,-7.8721e-05,0
4.1492,-7.9393e-05,0
4.1497,-8.6442e-05,0
4.1502,-7.6707e-05,0
4.1507,-4.3137e-05,0
4.1513,-1.0071e-05,0
4.1518,1.4267e-05,0
4.1523,4.1291e-05,0
4.1528,7.1e-05,0
4.1533,9.2485e-05,0
4.1538,9.752e-05,0
4.1544,8.6442e-05,0
4.1549,6.6636e-05,0
4.1554,5.4719e-05,0
4.1559,4.2298e-05,0
4.1564,1.8631e-05,0
4.157,-1.1246e-05,0
4.1575,-4.5319e-05,0
4.158,-8.1407e-05,0
4.1585,-0.00011162,0
4.159,-0.00012505,0
4.1596,-0.00011028,0
4.1601,-7.6875e-05,0
4.1606,-4.6662e-05,0
4.1611,-2.9877e-05,0
4.1616,-1.6953e-05,0
4.1622,-6.0426e-06,0
4.1627,5.0355e-07,0
4.1632,1.3764e-05,0
4.1637,3.1891e-05,0
4.1642,3.9445e-05,0
4.1647,3.2059e-05,0
4.1653,1.6617e-05,0
4.1658,7.8889e-06,0
4.1663,9.0639e-06,0
4.1668,1.0575e-05,0
4.1673,1.8296e-05,0
4.1679,4.3137e-05,0
4.1684,7.5532e-05,0
4.1689,9.5171e-05,0
4.1694,0.00010356,0
4.1699,0.00010759,0
4.1705,0.00010642,0
4.171,9.9535e-05,0
4.1715,9.366e-05,0
4.172,9.9535e-05,0
4.1725,0.00011498,0
4.1731,0.00012538,0
4.1736,0.00012186,0
4.1741,0.00010658,0
4.1746,8.0064e-05,0
4.1751,4.2802e-05,0
4.1757,4.0284e-06,0
4.1762,-3.4745e-05,0
4.1767,-6.6972e-05,0
4.1772,-7.9561e-05,0
4.1777,-6.949e-05,0
4.1783,-4.7669e-05,0
4.1788,-2.4506e-05,0
4.1793,-6.5461e-06,0
4.1798,3.5248e-06,0
4.1803,9.2317e-06,0
4.1808,2.031e-05,0
4.1814,3.0884e-05,0
4.1819,3.508e-05,0
4.1824,3.4745e-05,0
4.1829,2.7695e-05,0
4.1834,1.2924e-05,0
4.184,0,0
4.1845,-4.8676e-06,0
4.185,-3.5248e-06,0
4.1855,-3.1891e-06,0
4.186,-6.3783e-06,0
4.1866,-8.0568e-06,0
4.1871,-8.5603e-06,0
4.1876,-1.6281e-05,0
4.1881,-3.2731e-05,0
4.1886,-3.4577e-05,0
4.1892,-1.0239e-05,0
4.1897,2.3667e-05,0
4.1902,4.7501e-05,0
4.1907,5.4215e-05,0
4.1912,5.153e-05,0
4.1917,5.2201e-05,0
4.1923,6.3447e-05,0
4.1928,8.8289e-05,0
4.1933,0.00011263,0
4.1938,0.00011162,0
4.1943,8.4932e-05,0
4.1949,5.9586e-05,0
4.1954,4.9516e-05,0
4.1959,3.508e-05,0
4.1964,-2.5177e-06,0
4.1969,-4.7501e-05,0
4.1975,-6.865e-05,0
4.198,-6.5965e-05,0
4.1985,-6.4958e-05,0
4.199,-6.949e-05,0
4.1995,-6.009e-05,0
4.2001,-3.1052e-05,0
4.2006,4.3641e-06,0
4.2011,2.8367e-05,0
4.2016,3.9612e-05,0
4.2021,4.8341e-05,0
4.2027,5.3208e-05,0
4.2032,5.4719e-05,0
4.2037,6.4286e-05,0
4.2042,8.4428e-05,0
4.2047,0.00010121,0
4.2053,0.00010474,0
4.2058,0.00010037,0
4.2063,9.4331e-05,0
4.2068,8.3085e-05,0
4.2073,5.5558e-05,0
4.2078,6.8818e-06,0
4.2084,-5.3376e-05,0
4.2089,-0.00010457,0
4.2094,-0.00013646,0
4.2099,-0.00015962,0
4.2104,-0.00017809,0
4.211,-0.00017389,0
4.2115,-0.00013344,0
4.212,-7.0161e-05,0
4.2125,-4.0284e-06,0
4.213,6.4286e-05,0
4.2136,0.0001373,0
4.2141,0.00019756,0
4.2146,0.00022441,0
4.2151,0.00022408,0
4.2156,0.00021384,0
4.2162,0.00019454,0
4.2167,0.00015727,0
4.2172,9.752e-05,0
4.2177,2.1988e-05,0
4.2182,-4.9851e-05,0
4.2188,-9.6513e-05,0
4.2193,-0.0001086,0
4.2198,-0.00010256,0
4.2203,-9.5842e-05,0
4.2208,-8.2078e-05,0
4.2213,-5.1194e-05,0
4.2219,-1.9303e-05,0
4.2224,2.3499e-06,0
4.2229,4.6494e-05,0
4.2234,0.00011464,0
4.2239,0.00016701,0
4.2245,0.00017272,0
4.225,0.00014015,0
4.2255,0.00010172,0
4.226,8.1407e-05,0
4.2265,7.0329e-05,0
4.2271,5.2873e-05,0
4.2276,2.1988e-05,0
4.2281,-1.5778e-05,0
4.2286,-4.4984e-05,0
4.2291,-5.4215e-05,0
4.2297,-5.0019e-05,0
4.2302,-4.2466e-05,0
4.2307,-3.3234e-05,0
4.2312,-1.9638e-05,0
4.2317,-2.182e-06,0
4.2322,1.796e-05,0
4.2328,3.6759e-05,0
4.2333,4.683e-05,0
4.2338,4.3473e-05,0
4.2343,2.4338e-05,0
4.2348,-2.3499e-06,0
4.2354,-2.1149e-05,0
4.2359,-2.7024e-05,0
4.2364,-2.8534e-05,0
4.2369,-3.9445e-05,0
4.2374,-5.6901e-05,0
4.238,-5.9251e-05,0
4.2385,-4.1123e-05,0
4.239,-2.1317e-05,0
4.2395,-8.896e-06,0
4.24,3.0213e-06,0
4.2406,1.9135e-05,0
4.2411,3.3402e-05,0
4.2416,5.1865e-05,0
4.2421,8.0064e-05,0
4.2426,0.00010256,0
4.2432,9.752e-05,0
4.2437,6.6804e-05,0
4.2442,3.0716e-05,0
4.2447,-5.7069e-06,0
4.2452,-2.9374e-05,0
4.2458,-2.8031e-05,0
4.2463,-2.182e-06,0
4.2468,2.7359e-05,0
4.2473,4.4144e-05,0
4.2478,4.5823e-05,0
4.2483,3.9445e-05,0
4.2489,4.3977e-05,0
4.2494,6.8818e-05,0
4.2499,9.2149e-05,0
4.2504,9.5003e-05,0
4.2509,7.7714e-05,0
4.2515,3.7263e-05,0
4.252,-1.7121e-05,0
4.2525,-5.4551e-05,0
4.253,-6.2272e-05,0
4.2535,-6.0258e-05,0
4.2541,-7.3518e-05,0
4.2546,-0.00010541,0
4.2551,-0.00012035,0
4.2556,-8.9128e-05,0
4.2561,-3.3402e-05,0
4.2567,1.1078e-05,0
4.2572,2.9206e-05,0
4.2577,3.3402e-05,0
4.2582,3.4409e-05,0
4.2587,4.2634e-05,0
4.2592,7.1839e-05,0
4.2598,0.00012219,0
4.2603,0.00018094,0
4.2608,0.00021267,0
4.2613,0.00018413,0
4.2618,0.00011632,0
4.2624,6.4958e-05,0
4.2629,5.3544e-05,0
4.2634,5.8747e-05,0
4.2639,5.3208e-05,0
4.2644,3.3906e-05,0
4.265,1.796e-05,0
4.2655,1.2253e-05,0
4.266,9.9031e-06,0
4.2665,-1.1749e-06,0
4.267,-2.9038e-05,0
4.2676,-6.5293e-05,0
4.2681,-9.601e-05,0
4.2686,-0.00011733,0
4.2691,-0.00013227,0
4.2696,-0.00013747,0
4.2702,-0.00012757,0
4.2707,-0.00010138,0
4.2712,-6.2272e-05,0
4.2717,-1.6281e-05,0
4.2722,3.592e-05,0
4.2728,8.8289e-05,0
4.2733,0.00012639,0
4.2738,0.0001509,0
4.2743,0.00018614,0
4.2748,0.00022811,0
4.2753,0.00024103,0
4.2759,0.0002078,0
4.2764,0.00014569,0
4.2769,8.4092e-05,0
4.2774,3.7766e-05,0
4.2779,8.5603e-06,0
4.2785,-7.2175e-06,0
4.279,-2.0142e-05,0
4.2795,-3.6423e-05,0
4.28,-5.2873e-05,0
4.2805,-7.3014e-05,0
4.2811,-9.8695e-05,0
4.2816,-0.00011531,0
4.2821,-0.00010759,0
4.2826,-8.3085e-05,0
4.2831,-6.009e-05,0
4.2837,-5.3208e-05,0
4.2842,-5.7908e-05,0
4.2847,-4.3137e-05,0
4.2852,9.2317e-06,0
4.2857,7.6371e-05,0
4.2862,0.00012068,0
4.2868,0.0001274,0
4.2873,0.00011263,0
4.2878,9.5171e-05,0
4.2883,8.3085e-05,0
4.2888,8.4428e-05,0
4.2894,9.5171e-05,0
4.2899,9.6513e-05,0
4.2904,7.5029e-05,0
4.2909,4.062e-05,0
4.2914,9.2317e-06,0
4.292,-1.4435e-05,0
4.2925,-3.3738e-05,0
4.293,-4.2634e-05,0
4.2935,-4.3641e-05,0
4.294,-5.4215e-05,0
4.2946,-7.9057e-05,0
4.2951,-9.4499e-05,0
4.2956,-8.9799e-05,0
4.2961,-8.1407e-05,0
4.2966,-7.4357e-05,0
4.2972,-5.7069e-05,0
4.2977,-1.6617e-05,0
4.2982,3.978e-05,0
4.2987,9.601e-05,0
4.2992,0.00013881,0
4.2998,0.00016097,0
4.3003,0.00016432,0
4.3008,0.00015761,0
4.3013,0.0001509,0
4.3018,0.00012421,0
4.3023,5.8915e-05,0
4.3029,-1.6617e-05,0
4.3034,-6.1936e-05,0
4.3039,-7.0497e-05,0
4.3044,-5.6565e-05,0
4.3049,-3.8941e-05,0
4.3055,-2.2995e-05,0
4.306,-4.1962e-06,0
4.3065,1.8128e-05,0
4.307,4.6159e-05,0
4.3075,7.7043e-05,0
4.3081,9.987e-05,0
4.3086,0.00010642,0
4.3091,0.00010121,0
4.3096,8.9632e-05,0
4.3101,7.3014e-05,0
4.3107,5.623e-05,0
4.3112,4.0955e-05,0
4.3117,2.6017e-05,0
4.3122,9.7353e-06,0
4.3127,-1.5946e-05,0
4.3133,-3.4073e-05,0
4.3138,-3.4241e-05,0
4.3143,-2.1653e-05,0
4.3148,-9.2317e-06,0
4.3153,-3.357e-06,0
4.3158,-5.8747e-06,0
4.3164,-1.1582e-05,0
4.3169,-9.0639e-06,0
4.3174,1.3764e-05,0
4.3179,5.2873e-05,0
4.3184,9.4499e-05,0
4.319,0.00011934,0
4.3195,0.00011145,0
4.32,7.9728e-05,0
4.3205,3.9277e-05,0
4.321,-3.0213e-06,0
4.3216,-3.9109e-05,0
4.3221,-6.1601e-05,0
4.3226,-7.0665e-05,0
4.3231,-7.5029e-05,0
4.3236,-8.1743e-05,0
4.3242,-8.8121e-05,0
4.3247,-8.9464e-05,0
4.3252,-8.191e-05,0
4.3257,-6.1265e-05,0
4.3262,-3.3066e-05,0
4.3267,-1.3596e-05,0
4.3273,-1.0407e-05,0
4.3278,-1.4603e-05,0
4.3283,-2.1653e-05,0
4.3288,-3.4073e-05,0
4.3293,-4.7333e-05,0
4.3299,-4.5823e-05,0
4.3304,-2.6352e-05,0
4.3309,-4.3641e-06,0
4.3314,6.5461e-06,0
4.3319,1.9303e-05,0
4.3325,4.2802e-05,0
4.333,7.0665e-05,0
4.3335,9.4667e-05,0
4.334,0.00010591,0
4.3345,0.00010289,0
4.3351,9.366e-05,0
4.3356,8.8457e-05,0
4.3361,9.2317e-05,0
4.3366,9.8192e-05,0
4.3371,9.8527e-05,0
4.3377,9.0471e-05,0
4.3382,7.7379e-05,0
4.3387,6.5629e-05,0
4.3392,6.4958e-05,0
4.3397,7.2679e-05,0
4.3403,7.7714e-05,0
4.3408,7.5029e-05,0
4.3413,7.1336e-05,0
4.3418,7.4357e-05,0
4.3423,7.9728e-05,0
4.3428,7.57e-05,0
4.3434,6.4118e-05,0
4.3439,4.9012e-05,0
4.3444,2.5345e-05,0
4.3449,-3.8605e-06,0
4.3454,-3.2898e-05,0
4.346,-5.623e-05,0
4.3465,-7.3014e-05,0
4.347,-8.6442e-05,0
4.3475,-0.00010172,0
4.348,-0.00012068,0
4.3486,-0.00012589,0
4.3491,-9.6513e-05,0
4.3496,-4.3809e-05,0
4.3501,3.6927e-06,0
4.3506,3.0716e-05,0
4.3512,4.1123e-05,0
4.3517,4.5151e-05,0
4.3522,4.1459e-05,0
4.3527,3.6088e-05,0
4.3532,4.5487e-05,0
4.3537,7.4189e-05,0
4.3543,9.3324e-05,0
4.3548,7.9561e-05,0
4.3553,5.3376e-05,0
4.3558,4.0284e-05,0
4.3563,3.9277e-05,0
4.3569,3.1891e-05,0
4.3574,1.9638e-05,0
4.3579,1.5442e-05,0
4.3584,2.9374e-05,0
4.3589,5.9251e-05,0
4.3595,8.5771e-05,0
4.36,8.8457e-05,0
4.3605,7.1336e-05,0
4.361,5.7572e-05,0
4.3615,6.2104e-05,0
4.3621,7.7714e-05,0
4.3626,9.1478e-05,0
4.3631,9.9031e-05,0
4.3636,9.6513e-05,0
4.3641,7.9728e-05,0
4.3647,4.4816e-05,0
4.3652,1.1246e-05,0
4.3657,-4.1962e-06,0
4.3662,-7.5532e-06,0
4.3667,-1.6617e-05,0
4.3673,-3.4577e-05,0
4.3678,-4.9516e-05,0
4.3683,-6.1936e-05,0
4.3688,-7.3014e-05,0
4.3693,-7.3518e-05,0
4.3698,-5.7908e-05,0
4.3704,-4.0452e-05,0
4.3709,-4.062e-05,0
4.3714,-5.4719e-05,0
4.3719,-6.7979e-05,0
4.3724,-7.0329e-05,0
4.373,-5.5894e-05,0
4.3735,-3.5584e-05,0
4.374,-2.7024e-05,0
4.3745,-3.0381e-05,0
4.375,-2.7024e-05,0
4.3756,-4.1962e-06,0
4.3761,3.1724e-05,0
4.3766,6.3447e-05,0
4.3771,7.4861e-05,0
4.3776,6.8818e-05,0
4.3782,5.9754e-05,0
4.3787,5.3208e-05,0
4.3792,4.9348e-05,0
4.3797,4.8676e-05,0
4.3802,3.9277e-05,0
4.3807,1.0071e-06,0
4.3813,-3.8437e-05,0
4.3818,-4.9683e-05,0
4.3823,-3.6088e-05,0
4.3828,-1.1749e-05,0
4.3833,1.326e-05,0
4.3839,2.6688e-05,0
4.3844,3.0381e-05,0
4.3849,4.7166e-05,0
4.3854,9.0471e-05,0
4.3859,0.0001425,0
4.3865,0.0001702,0
4.387,0.00015795,0
4.3875,0.00010726,0
4.388,4.8173e-05,0
4.3885,1.8631e-05,0
4.3891,1.3764e-05,0
4.3896,2.8534e-06,0
4.3901,-2.417e-05,0
4.3906,-4.8508e-05,0
4.3911,-5.5894e-05,0
4.3917,-5.4887e-05,0
4.3922,-5.623e-05,0
4.3927,-5.5222e-05,0
4.3932,-4.5823e-05,0
4.3937,-2.7192e-05,0
4.3943,-4.6998e-06,0
4.3948,1.0239e-05,0
4.3953,2.4674e-05,0
4.3958,4.8676e-05,0
4.3963,7.1336e-05,0
4.3968,7.0329e-05,0
4.3974,4.4648e-05,0
4.3979,1.796e-05,0
4.3984,7.5532e-06,0
4.3989,1.4603e-05,0
4.3994,3.8437e-05,0
4.4,7.4693e-05,0
4.4005,0.00011833,0
4.401,0.00015879,0
4.4015,0.00017708,0
4.402,0.00017977,0
4.4026,0.00018245,0
4.4031,0.00016634,0
4.4036,0.00011867,0
4.4041,6.8315e-05,0
4.4046,4.8844e-05,0
4.4052,5.0355e-05,0
4.4057,3.8102e-05,0
4.4062,1.3428e-06,0
4.4067,-3.122e-05,0
4.4072,-4.0284e-05,0
4.4078,-3.9277e-05,0
4.4083,-4.3137e-05,0
4.4088,-3.7934e-05,0
4.4093,-1.6617e-05,0
4.4098,3.8605e-06,0
4.4103,9.2317e-06,0
4.4109,-1.1749e-06,0
4.4114,-1.6617e-05,0
4.4119,-2.3331e-05,0
4.4124,-2.031e-05,0
4.4129,-1.7624e-05,0
4.4135,-1.561e-05,0
4.414,-1.9638e-05,0
4.4145,-3.5248e-05,0
4.415,-5.3376e-05,0
4.4155,-6.1265e-05,0
4.4161,-5.4551e-05,0
4.4166,-3.9109e-05,0
4.4171,-1.9638e-05,0
4.4176,-1.5106e-06,0
4.4181,1.2253e-05,0
4.4187,2.2995e-05,0
4.4192,2.6352e-05,0
4.4197,1.6449e-05,0
4.4202,-2.182e-06,0
4.4207,-1.3428e-05,0
4.4212,-1.2253e-05,0
4.4218,-1.0407e-05,0
4.4223,-2.0645e-05,0
4.4228,-4.0116e-05,0
4.4233,-5.1865e-05,0
4.4238,-5.4047e-05,0
4.4244,-5.0858e-05,0
4.4249,-3.2731e-05,0
4.4254,-3.6927e-06,0
4.4259,1.326e-05,0
4.4264,1.0575e-05,0
4.427,-4.6998e-06,0
4.4275,-1.4603e-05,0
4.428,-3.357e-06,0
4.4285,3.0381e-05,0
4.429,7.0497e-05,0
4.4296,9.836e-05,0
4.4301,9.8527e-05,0
4.4306,7.2343e-05,0
4.4311,3.3402e-05,0
4.4316,-1.5106e-06,0
4.4322,-2.2324e-05,0
4.4327,-2.9709e-05,0
4.4332,-1.9974e-05,0
4.4337,-5.2033e-06,0
4.4342,-6.2104e-06,0
4.4348,-6.3783e-06,0
4.4353,2.4002e-05,0
4.4358,6.8986e-05,0
4.4363,9.5506e-05,0
4.4368,9.6849e-05,0
4.4373,8.2414e-05,0
4.4379,7.2343e-05,0
4.4384,7.8218e-05,0
4.4389,8.0903e-05,0
4.4394,7.335e-05,0
4.4399,7.1839e-05,0
4.4405,8.6946e-05,0
4.441,0.00011196,0
4.4415,0.00013344,0
4.442,0.00013512,0
4.4425,0.00011582,0
4.4431,9.3492e-05,0
4.4436,8.4428e-05,0
4.4441,8.3421e-05,0
4.4446,7.4693e-05,0
4.4451,6.1601e-05,0
4.4457,5.5558e-05,0
4.4462,5.8915e-05,0
4.4467,6.0761e-05,0
4.4472,5.2201e-05,0
4.4477,3.0884e-05,0
4.4482,-2.5177e-06,0
4.4488,-4.213e-05,0
4.4493,-7.5364e-05,0
4.4498,-8.6442e-05,0
4.4503,-7.9728e-05,0
4.4508,-7.1672e-05,0
4.4514,-6.9322e-05,0
4.4519,-7.335e-05,0
4.4524,-8.0735e-05,0
4.4529,-8.0903e-05,0
4.4534,-5.4047e-05,0
4.454,-4.1962e-06,0
4.4545,3.9612e-05,0
4.455,5.9586e-05,0
4.4555,6.3111e-05,0
4.456,6.0761e-05,0
4.4566,4.1962e-05,0
4.4571,7.7211e-06,0
4.4576,0,0
4.4581,2.652e-05,0
4.4586,4.1962e-05,0
4.4592,2.1653e-05,0
4.4597,-1.561e-05,0
4.4602,-3.4409e-05,0
4.4607,-9.7353e-06,0
4.4612,4.448e-05,0
4.4618,8.2078e-05,0
4.4623,7.8889e-05,0
4.4628,5.623e-05,0
4.4633,4.8844e-05,0
4.4638,5.4887e-05,0
4.4643,5.1698e-05,0
4.4649,3.743e-05,0
4.4654,2.2324e-05,0
4.4659,1.6617e-05,0
4.4664,2.4002e-05,0
4.4669,3.3738e-05,0
4.4675,4.2802e-05,0
4.468,5.1362e-05,0
4.4685,5.4719e-05,0
4.469,5.4887e-05,0
4.4695,4.9851e-05,0
4.4701,2.7024e-05,0
4.4706,-1.8296e-05,0
4.4711,-7.1336e-05,0
4.4716,-0.00011565,0
4.4721,-0.0001425,0
4.4727,-0.00014737,0
4.4732,-0.00013613,0
4.4737,-0.00011867,0
4.4742,-0.00010256,0
4.4747,-9.1814e-05,0
4.4752,-8.4932e-05,0
4.4758,-7.0665e-05,0
4.4763,-3.3906e-05,0
4.4768,1.3596e-05,0
4.4773,4.4816e-05,0
4.4778,4.1459e-05,0
4.4784,2.4002e-05,0
4.4789,2.6184e-05,0
4.4794,5.8915e-05,0
4.4799,0.00011028,0
4.4804,0.000165,0
4.481,0.00020461,0
4.4815,0.00021971,0
4.482,0.00021367,0
4.4825,0.00018849,0
4.483,0.0001373,0
4.4836,6.8147e-05,0
4.4841,8.896e-06,0
4.4846,-2.3499e-05,0
4.4851,-3.3234e-05,0
4.4856,-3.4577e-05,0
4.4862,-4.1123e-05,0
4.4867,-5.2537e-05,0
4.4872,-5.5894e-05,0
4.4877,-5.1194e-05,0
4.4882,-4.2634e-05,0
4.4887,-2.5345e-05,0
4.4893,-6.714e-07,0
4.4898,2.5513e-05,0
4.4903,5.0523e-05,0
4.4908,8.7785e-05,0
4.4913,0.00013898,0
4.4919,0.00016953,0
4.4924,0.0001556,0
4.4929,0.00011431,0
4.4934,8.0064e-05,0
4.4939,6.6133e-05,0
4.4945,5.6901e-05,0
4.495,3.4577e-05,0
4.4955,1.7288e-05,0
4.496,3.4577e-05,0
4.4965,7.9225e-05,0
4.4971,0.0001133,0
4.4976,0.00011313,0
4.4981,8.1407e-05,0
4.4986,3.8773e-05,0
4.4991,1.4267e-05,0
4.4997,8.5603e-06,0
4.5002,-5.0355e-07,0
4.5007,-1.6281e-05,0
4.5012,-3.0213e-05,0
4.5017,-5.7237e-05,0
4.5023,-9.6849e-05,0
4.5028,-0.00012018,0
4.5033,-0.00011447,0
4.5038,-9.2988e-05,0
4.5043,-7.3518e-05,0
4.5048,-6.3615e-05,0
4.5054,-5.8076e-05,0
4.5059,-4.9348e-05,0
4.5064,-3.5416e-05,0
4.5069,-1.8463e-05,0
4.5074,-2.5177e-06,0
4.508,9.0639e-06,0
4.5085,1.796e-05,0
4.509,2.1988e-05,0
4.5095,1.9974e-05,0
4.51,1.9638e-05,0
4.5106,2.4674e-05,0
4.5111,3.1724e-05,0
4.5116,4.213e-05,0
4.5121,5.6565e-05,0
4.5126,6.7475e-05,0
4.5132,6.4622e-05,0
4.5137,4.1123e-05,0
4.5142,-3.6927e-06,0
4.5147,-5.7908e-05,0
4.5152,-9.9199e-05,0
4.5157,-0.00011733,0
4.5163,-0.00012102,0
4.5168,-0.00011095,0
4.5173,-7.4022e-05,0
4.5178,-7.5532e-06,0
4.5183,7.2343e-05,0
4.5189,0.0001331,0
4.5194,0.0001697,0
4.5199,0.00019991,0
4.5204,0.00022542,0
4.5209,0.00022744,0
4.5215,0.0001989,0
4.522,0.00015425,0
4.5225,0.0001044,0
4.523,5.7908e-05,0
4.5235,3.3066e-05,0
4.5241,4.2634e-05,0
4.5246,6.8986e-05,0
4.5251,8.7449e-05,0
4.5256,0.00010121,0
4.5261,0.00011095,0
4.5267,0.00010004,0
4.5272,7.1672e-05,0
4.5277,5.1865e-05,0
4.5282,4.7501e-05,0
4.5287,3.8773e-05,0
4.5293,1.326e-05,0
4.5298,-2.3331e-05,0
4.5303,-6.1936e-05,0
4.5308,-9.2821e-05,0
4.5313,-0.00010239,0
4.5318,-8.9464e-05,0
4.5324,-6.5797e-05,0
4.5329,-4.8341e-05,0
4.5334,-5.388e-05,0
4.5339,-7.8386e-05,0
4.5344,-0.00010105,0
4.535,-0.00010272,0
4.5355,-8.51e-05,0
4.536,-5.6397e-05,0
4.5365,-2.6856e-05,0
4.537,-7.7211e-06,0
4.5376,-1.8463e-06,0
4.5381,1.8463e-06,0
4.5386,1.5946e-05,0
4.5391,4.0787e-05,0
4.5396,6.0258e-05,0
4.5402,5.1865e-05,0
4.5407,-5.0355e-07,0
4.5412,-7.3518e-05,0
4.5417,-0.00012438,0
4.5422,-0.00013931,0
4.5427,-0.00012605,0
4.5433,-9.3492e-05,0
4.5438,-5.0019e-05,0
4.5443,-6.8818e-06,0
4.5448,3.3906e-05,0
4.5453,8.5771e-05,0
4.5459,0.00015526,0
4.5464,0.0002083,0
4.5469,0.00022139,0
4.5474,0.00020931,0
4.5479,0.00019705,0
4.5485,0.00018614,0
4.549,0.00016667,0
4.5495,0.00013713,0
4.55,0.00010188,0
4.5505,5.623e-05,0
4.5511,4.1962e-06,0
4.5516,-3.2731e-05,0
4.5521,-5.0523e-05,0
4.5526,-6.4118e-05,0
4.5531,-8.191e-05,0
4.5537,-9.8024e-05,0
4.5542,-9.752e-05,0
4.5547,-7.0329e-05,0
4.5552,-2.6184e-05,0
4.5557,1.6281e-05,0
4.5563,4.5151e-05,0
4.5568,6.5293e-05,0
4.5573,7.5029e-05,0
4.5578,7.0665e-05,0
4.5583,5.2369e-05,0
4.5588,3.3906e-05,0
4.5594,1.9638e-05,0
4.5599,7.2175e-06,0
4.5604,-6.3783e-06,0
4.5609,-1.9303e-05,0
4.5614,-2.5681e-05,0
4.562,-3.1388e-05,0
4.5625,-3.8773e-05,0
4.563,-3.2059e-05,0
4.5635,-1.2757e-05,0
4.564,-3.8605e-06,0
4.5646,-1.4099e-05,0
4.5651,-2.4674e-05,0
4.5656,-1.7624e-05,0
4.5661,1.0071e-06,0
4.5666,1.9303e-05,0
4.5672,3.2731e-05,0
4.5677,4.6326e-05,0
4.5682,6.6636e-05,0
4.5687,8.2414e-05,0
4.5692,8.1575e-05,0
4.5697,7.5029e-05,0
4.5703,7.7379e-05,0
4.5708,8.9128e-05,0
4.5713,9.7856e-05,0
4.5718,8.9128e-05,0
4.5723,6.4958e-05,0
4.5729,3.4745e-05,0
4.5734,2.5177e-06,0
4.5739,-3.0884e-05,0
4.5744,-5.8244e-05,0
4.5749,-8.1239e-05,0
4.5755,-0.00010222,0
4.576,-0.00011716,0
4.5765,-0.00011716,0
4.577,-9.6178e-05,0
4.5775,-5.9586e-05,0
4.5781,-3.5416e-05,0
4.5786,-3.978e-05,0
4.5791,-4.5823e-05,0
4.5796,-2.6688e-05,0
4.5801,2.7024e-05,0
4.5807,9.3156e-05,0
4.5812,0.0001368,0
4.5817,0.0001462,0
4.5822,0.00014452,0
4.5827,0.00014485,0
4.5832,0.00012572,0
4.5838,9.4163e-05,0
4.5843,7.8218e-05,0
4.5848,6.9154e-05,0
4.5853,5.3544e-05,0
4.5858,2.8031e-05,0
4.5864,1.1749e-06,0
4.5869,-1.326e-05,0
4.5874,-1.3764e-05,0
4.5879,1.0071e-06,0
4.5884,3.0213e-05,0
4.589,6.4118e-05,0
4.5895,9.3828e-05,0
4.59,0.00012857,0
4.5905,0.00016466,0
4.591,0.00018044,0
4.5916,0.00016231,0
4.5921,0.00012438,0
4.5926,8.7449e-05,0
4.5931,6.3615e-05,0
4.5936,5.069e-05,0
4.5942,3.5248e-05,0
4.5947,5.539e-06,0
4.5952,-3.3234e-05,0
4.5957,-7.57e-05,0
4.5962,-0.00011934,0
4.5968,-0.00015425,0
4.5973,-0.00016953,0
4.5978,-0.00017003,0
4.5983,-0.00016684,0
4.5988,-0.00016097,0
4.5993,-0.00014485,0
4.5999,-0.00012136,0
4.6004,-8.9464e-05,0
4.6009,-4.1123e-05,0
4.6014,2.5681e-05,0
4.6019,8.7953e-05,0
4.6025,0.000118,0
4.603,0.00011733,0
4.6035,0.00011363,0
4.604,0.00012589,0
4.6045,0.00015023,0
4.6051,0.00017272,0
4.6056,0.00018346,0
4.6061,0.00018044,0
4.6066,0.00016063,0
4.6071,0.00012605,0
4.6077,8.4092e-05,0
4.6082,4.5991e-05,0
4.6087,1.8967e-05,0
4.6092,2.5177e-06,0
4.6097,-1.0071e-05,0
4.6102,-1.5946e-05,0
4.6108,-1.6281e-05,0
4.6113,-2.5849e-05,0
4.6118,-4.9851e-05,0
4.6123,-7.6204e-05,0
4.6128,-8.8289e-05,0
4.6134,-8.0735e-05,0
4.6139,-6.4118e-05,0
4.6144,-5.1194e-05,0
4.6149,-3.7095e-05,0
4.6154,-1.6449e-05,0
4.616,2.8534e-06,0
4.6165,1.091e-05,0
4.617,1.561e-05,0
4.6175,2.8031e-05,0
4.618,4.3473e-05,0
4.6186,4.8005e-05,0
4.6191,3.7766e-05,0
4.6196,2.652e-05,0
4.6201,3.0549e-05,0
4.6206,4.8173e-05,0
4.6212,6.9657e-05,0
4.6217,8.3757e-05,0
4.6222,8.2414e-05,0
4.6227,6.8818e-05,0
4.6232,5.4383e-05,0
4.6238,4.7837e-05,0
4.6243,4.6998e-05,0
4.6248,4.3809e-05,0
4.6253,3.592e-05,0
4.6258,2.501e-05,0
4.6263,1.9974e-05,0
4.6269,2.7695e-05,0
4.6274,4.0787e-05,0
4.6279,5.1865e-05,0
4.6284,5.7237e-05,0
4.6289,5.153e-05,0
4.6295,2.6688e-05,0
4.63,-4.8676e-06,0
4.6305,-2.9206e-05,0
4.631,-4.8676e-05,0
4.6315,-6.63e-05,0
4.6321,-8.7785e-05,0
4.6326,-0.00011028,0
4.6331,-0.00012085,0
4.6336,-0.00011296,0
4.6341,-8.6275e-05,0
4.6347,-4.8508e-05,0
4.6352,-1.1917e-05,0
4.6357,1.5274e-05,0
4.6362,4.0116e-05,0
4.6367,7.4022e-05,0
4.6372,0.00010893,0
4.6378,0.00012639,0
4.6383,0.00011162,0
4.6388,7.6707e-05,0
4.6393,3.9109e-05,0
4.6398,-2.3499e-06,0
4.6404,-4.0787e-05,0
4.6409,-6.2608e-05,0
4.6414,-5.9251e-05,0
4.6419,-3.0381e-05,0
4.6424,1.8967e-05,0
4.643,7.0832e-05,0
4.6435,9.7185e-05,0
4.644,9.2485e-05,0
4.6445,7.2007e-05,0
4.645,6.0929e-05,0
4.6456,7.1672e-05,0
4.6461,8.5435e-05,0
4.6466,8.0064e-05,0
4.6471,6.3279e-05,0
4.6476,5.4215e-05,0
4.6482,5.6901e-05,0
4.6487,6.0594e-05,0
4.6492,5.1865e-05,0
4.6497,2.6688e-05,0
4.6502,-1.796e-05,0
4.6508,-6.6972e-05,0
4.6513,-8.51e-05,0
4.6518,-6.3447e-05,0
4.6523,-3.2563e-05,0
4.6528,-1.3931e-05,0
4.6533,1.1749e-06,0
4.6539,3.0716e-05,0
4.6544,6.7979e-05,0
4.6549,9.4331e-05,0
4.6554,0.00010054,0
4.6559,9.2317e-05,0
4.6565,7.805e-05,0
4.657,5.623e-05,0
4.6575,2.8702e-05,0
4.658,1.1582e-05,0
4.6585,8.2246e-06,0
4.6591,5.8747e-06,0
4.6596,1.5106e-06,0
4.6601,6.5461e-06,0
4.6606,1.4603e-05,0
4.6611,1.6281e-05,0
4.6617,1.0575e-05,0
4.6622,3.5248e-06,0
4.6627,1.8463e-06,0
4.6632,3.0213e-06,0
4.6637,2.0142e-06,0
4.6643,1.1749e-06,0
4.6648,1.1749e-06,0
4.6653,-1.3428e-06,0
4.6658,-7.7211e-06,0
4.6663,-1.2924e-05,0
4.6668,-1.6617e-05,0
4.6674,-2.0645e-05,0
4.6679,-2.417e-05,0
4.6684,-2.1149e-05,0
4.6689,-1.1749e-05,0
4.6694,-2.6856e-06,0
4.67,-2.5177e-06,0
4.6705,-1.561e-05,0
4.671,-1.3596e-05,0
4.6715,1.7624e-05,0
4.672,5.8915e-05,0
4.6726,8.7282e-05,0
4.6731,8.9799e-05,0
4.6736,7.2679e-05,0
4.6741,5.0523e-05,0
4.6746,3.5584e-05,0
4.6752,3.3234e-05,0
4.6757,3.4577e-05,0
4.6762,2.8702e-05,0
4.6767,1.091e-05,0
4.6772,-1.091e-05,0
4.6777,-1.4939e-05,0
4.6783,4.8676e-06,0
4.6788,3.2059e-05,0
4.6793,5.4887e-05,0
4.6798,6.8315e-05,0
4.6803,6.63e-05,0
4.6809,5.153e-05,0
4.6814,3.3066e-05,0
4.6819,2.0478e-05,0
4.6824,1.8799e-05,0
4.6829,2.5345e-05,0
4.6835,2.7695e-05,0
4.684,2.2156e-05,0
4.6845,1.4939e-05,0
4.685,5.539e-06,0
4.6855,-9.9031e-06,0
4.6861,-2.9709e-05,0
4.6866,-4.4144e-05,0
4.6871,-4.8844e-05,0
4.6876,-5.1698e-05,0
4.6881,-5.623e-05,0
4.6887,-5.0355e-05,0
4.6892,-2.6017e-05,0
4.6897,-1.1749e-06,0
4.6902,-7.2175e-06,0
4.6907,-4.2969e-05,0
4.6913,-7.5029e-05,0
4.6918,-7.8721e-05,0
4.6923,-4.8005e-05,0
4.6928,2.182e-06,0
4.6933,5.9419e-05,0
4.6938,0.00011968,0
4.6944,0.00018044,0
4.6949,0.0002412,0
4.6954,0.00029323,0
4.6959,0.00030632,0
4.6964,0.00026,0
4.697,0.0001744,0
4.6975,8.6778e-05,0
4.698,2.8702e-05,0
4.6985,-3.8605e-06,0
4.699,-3.8605e-05,0
4.6996,-8.9464e-05,0
4.7001,-0.00014032,0
4.7006,-0.00016634,0
4.7011,-0.00015946,0
4.7016,-0.0001331,0
4.7022,-0.00010474,0
4.7027,-7.2175e-05,0
4.7032,-2.7863e-05,0
4.7037,1.7792e-05,0
4.7042,6.63e-05,0
4.7047,0.00013411,0
4.7053,0.00019957,0
4.7058,0.00022139,0
4.7063,0.00020209,0
4.7068,0.00017003,0
4.7073,0.00013411,0
4.7079,9.3828e-05,0
4.7084,5.2201e-05,0
4.7089,4.3641e-06,0
4.7094,-4.448e-05,0
4.7099,-8.4428e-05,0
4.7105,-0.00010927,0
4.711,-0.00011682,0
4.7115,-0.00011867,0
4.712,-0.00012119,0
4.7125,-0.00010239,0
4.7131,-5.388e-05,0
4.7136,5.0355e-07,0
4.7141,5.0858e-05,0
4.7146,0.00010172,0
4.7151,0.00014754,0
4.7157,0.00017037,0
4.7162,0.00016097,0
4.7167,0.00013596,0
4.7172,0.00011128,0
4.7177,7.8721e-05,0
4.7183,2.652e-05,0
4.7188,-4.0116e-05,0
4.7193,-8.5267e-05,0
4.7198,-9.1478e-05,0
4.7203,-7.3182e-05,0
4.7208,-5.2873e-05,0
4.7214,-4.1291e-05,0
4.7219,-2.8534e-05,0
4.7224,-1.1582e-05,0
4.7229,3.0213e-06,0
4.7234,1.9974e-05,0
4.724,4.5151e-05,0
4.7245,6.8315e-05,0
4.725,6.9322e-05,0
4.7255,4.1459e-05,0
4.726,5.8747e-06,0
4.7266,-8.0568e-06,0
4.7271,-2.8534e-06,0
4.7276,3.0213e-06,0
4.7281,-1.6785e-06,0
4.7286,-1.091e-05,0
4.7292,-1.2421e-05,0
4.7297,-1.5106e-06,0
4.7302,1.5778e-05,0
4.7307,3.0884e-05,0
4.7312,3.9445e-05,0
4.7317,3.8773e-05,0
4.7323,2.6184e-05,0
4.7328,2.3499e-06,0
4.7333,-2.1988e-05,0
4.7338,-3.2395e-05,0
4.7343,-2.4674e-05,0
4.7349,-1.2924e-05,0
4.7354,-1.326e-05,0
4.7359,-2.3499e-05,0
4.7364,-3.0213e-05,0
4.7369,-2.501e-05,0
4.7375,-2.031e-05,0
4.738,-2.8031e-05,0
4.7385,-4.2298e-05,0
4.739,-5.0523e-05,0
4.7395,-4.4312e-05,0
4.7401,-2.4338e-05,0
4.7406,1.3092e-05,0
4.7411,6.2272e-05,0
4.7416,0.00010625,0
4.7421,0.00013344,0
4.7427,0.0001425,0
4.7432,0.00013646,0
4.7437,0.00012287,0
4.7442,0.00010591,0
4.7447,9.2821e-05,0
4.7453,8.6778e-05,0
4.7458,7.7546e-05,0
4.7463,5.8915e-05,0
4.7468,3.9445e-05,0
4.7473,2.6688e-05,0
4.7478,1.796e-05,0
4.7484,2.8534e-06,0
4.7489,-1.9638e-05,0
4.7494,-3.5248e-05,0
4.7499,-3.7095e-05,0
4.7504,-3.2059e-05,0
4.751,-2.6017e-05,0
4.7515,-1.8296e-05,0
4.752,-7.5532e-06,0
4.7525,4.1962e-06,0
4.753,1.4267e-05,0
4.7536,2.6352e-05,0
4.7541,4.3809e-05,0
4.7546,5.9586e-05,0
4.7551,6.7475e-05,0
4.7556,6.5629e-05,0
4.7562,6.4958e-05,0
4.7567,8.0735e-05,0
4.7572,0.00010054,0
4.7577,9.5674e-05,0
4.7582,5.2033e-05,0
4.7588,-1.8296e-05,0
4.7593,-8.8289e-05,0
4.7598,-0.0001415,0
4.7603,-0.0001707,0
4.7608,-0.0001697,0
4.7613,-0.00014653,0
4.7619,-0.00011666,0
4.7624,-9.6849e-05,0
4.7629,-8.2078e-05,0
4.7634,-5.8915e-05,0
4.7639,-2.4338e-05,0
4.7645,1.9303e-05,0
4.765,7.1e-05,0
4.7655,0.00012471,0
4.766,0.0001655,0
4.7665,0.00017758,0
4.7671,0.00016751,0
4.7676,0.00014989,0
4.7681,0.00013394,0
4.7686,0.00012538,0
4.7691,0.0001321,0
4.7697,0.00014049,0
4.7702,0.00013008,0
4.7707,0.00010373,0
4.7712,7.7043e-05,0
4.7717,5.3544e-05,0
4.7722,3.2731e-05,0
4.7728,1.4099e-05,0
4.7733,1.1749e-06,0
4.7738,-5.7069e-06,0
4.7743,-8.7282e-06,0
4.7748,-1.2253e-05,0
4.7754,-1.796e-05,0
4.7759,-2.5849e-05,0
4.7764,-3.592e-05,0
4.7769,-4.1459e-05,0
4.7774,-3.8773e-05,0
4.778,-2.9038e-05,0
4.7785,-2.1317e-05,0
4.779,-1.7624e-05,0
4.7795,-1.5946e-05,0
4.78,-2.0478e-05,0
4.7806,-2.4002e-05,0
4.7811,-1.1414e-05,0
4.7816,1.6281e-05,0
4.7821,4.3641e-05,0
4.7826,5.4047e-05,0
4.7832,4.3809e-05,0
4.7837,2.3163e-05,0
4.7842,8.5603e-06,0
4.7847,1.3596e-05,0
4.7852,2.7359e-05,0
4.7858,3.0716e-05,0
4.7863,1.4603e-05,0
4.7868,-2.0981e-05,0
4.7873,-6.0426e-05,0
4.7878,-9.5338e-05,0
4.7883,-0.00012505,0
4.7889,-0.0001331,0
4.7894,-0.00010642,0
4.7899,-5.4551e-05,0
4.7904,-2.3499e-06,0
4.7909,3.9109e-05,0
4.7915,7.3686e-05,0
4.792,9.8863e-05,0
4.7925,0.00011833,0
4.793,0.00013344,0
4.7935,0.00013629,0
4.7941,0.00012052,0
4.7946,9.4499e-05,0
4.7951,7.2343e-05,0
4.7956,5.6733e-05,0
4.7961,4.5487e-05,0
4.7967,4.213e-05,0
4.7972,4.9012e-05,0
4.7977,6.4118e-05,0
4.7982,8.6442e-05,0
4.7987,0.00011095,0
4.7992,0.00012068,0
4.7998,0.00010642,0
4.8003,7.5364e-05,0
4.8008,3.9277e-05,0
4.8013,7.5532e-06,0
4.8018,-1.1078e-05,0
4.8024,-1.0575e-05,0
4.8029,9.5674e-06,0
4.8034,3.0716e-05,0
4.8039,2.8702e-05,0
4.8044,1.3764e-05,0
4.805,7.8889e-06,0
4.8055,1.1749e-05,0
4.806,2.4002e-05,0
4.8065,3.978e-05,0
4.807,5.1362e-05,0
4.8076,5.4551e-05,0
4.8081,3.6759e-05,0
4.8086,-9.5674e-06,0
4.8091,-5.388e-05,0
4.8096,-5.7237e-05,0
4.8102,-3.3066e-05,0
4.8107,-2.9877e-05,0
4.8112,-5.9586e-05,0
4.8117,-9.0639e-05,0
4.8122,-0.00010423,0
4.8128,-0.00010625,0
4.8133,-0.0001039,0
4.8138,-9.6849e-05,0
4.8143,-6.7811e-05,0
4.8148,-1.1749e-05,0
4.8153,4.6494e-05,0
4.8159,8.4428e-05,0
4.8164,0.00010726,0
4.8169,0.00012874,0
4.8174,0.00014653,0
4.8179,0.00014485,0
4.8185,0.00012404,0
4.819,0.00010155,0
4.8195,8.9799e-05,0
4.82,8.6442e-05,0
4.8205,8.1743e-05,0
4.8211,7.1336e-05,0
4.8216,5.4215e-05,0
4.8221,3.6759e-05,0
4.8226,2.0981e-05,0
4.8231,-1.1749e-06,0
4.8237,-3.2731e-05,0
4.8242,-7.0329e-05,0
4.8247,-0.00010776,0
4.8252,-0.00013881,0
4.8257,-0.00015409,0
4.8262,-0.00015241,0
4.8268,-0.00013327,0
4.8273,-0.00010423,0
4.8278,-8.0232e-05,0
4.8283,-6.7308e-05,0
4.8288,-5.2369e-05,0
4.8294,-1.6281e-05,0
4.8299,2.7024e-05,0
4.8304,5.5558e-05,0
4.8309,7.4022e-05,0
4.8314,9.4163e-05,0
4.832,0.00011229,0
4.8325,0.00011531,0
4.833,0.00011044,0
4.8335,0.00011968,0
4.834,0.00013999,0
4.8346,0.00015392,0
4.8351,0.0001519,0
4.8356,0.00014351,0
4.8361,0.00013445,0
4.8366,0.00011229,0
4.8372,7.4189e-05,0
4.8377,4.1291e-05,0
4.8382,2.7359e-05,0
4.8387,1.9974e-05,0
4.8392,9.0639e-06,0
4.8398,-7.7211e-06,0
4.8403,-2.9709e-05,0
4.8408,-4.8508e-05,0
4.8413,-5.304e-05,0
4.8418,-3.8605e-05,0
4.8423,-1.2253e-05,0
4.8429,8.3925e-06,0
4.8434,1.5946e-05,0
4.8439,1.326e-05,0
4.8444,2.5177e-06,0
4.8449,-1.4771e-05,0
4.8455,-2.9038e-05,0
4.846,-4.2466e-05,0
4.8465,-5.9922e-05,0
4.847,-7.2343e-05,0
4.8475,-7.2511e-05,0
4.8481,-5.623e-05,0
4.8486,-2.7695e-05,0
4.8491,0,0
4.8496,1.9806e-05,0
4.8501,3.4073e-05,0
4.8507,5.1865e-05,0
4.8512,7.8721e-05,0
4.8517,0.00010272,0
4.8522,0.00011598,0
4.8527,0.00011649,0
4.8533,9.8192e-05,0
4.8538,6.4118e-05,0
4.8543,3.0213e-05,0
4.8548,7.5532e-06,0
4.8553,-6.3783e-06,0
4.8558,-1.7121e-05,0
4.8564,-2.8199e-05,0
4.8569,-4.4648e-05,0
4.8574,-6.244e-05,0
4.8579,-6.7979e-05,0
4.8584,-5.388e-05,0
4.859,-2.1653e-05,0
4.8595,1.7288e-05,0
4.86,4.9516e-05,0
4.8605,7.2679e-05,0
4.861,9.0471e-05,0
4.8616,9.2988e-05,0
4.8621,7.5364e-05,0
4.8626,6.63e-05,0
4.8631,8.426e-05,0
4.8636,0.00010054,0
4.8642,9.2317e-05,0
4.8647,6.949e-05,0
4.8652,4.1291e-05,0
4.8657,8.2246e-06,0
4.8662,-2.9374e-05,0
4.8667,-6.2272e-05,0
4.8673,-7.805e-05,0
4.8678,-6.9322e-05,0
4.8683,-4.213e-05,0
4.8688,-1.2253e-05,0
4.8693,7.0497e-06,0
4.8699,1.091e-05,0
4.8704,7.2175e-06,0
4.8709,5.0355e-06,0
4.8714,9.0639e-06,0
4.8719,2.4506e-05,0
4.8725,4.4144e-05,0
4.873,5.0523e-05,0
4.8735,3.6423e-05,0
4.874,1.5274e-05,0
4.8745,1.8463e-06,0
4.8751,-1.1414e-05,0
4.8756,-3.3738e-05,0
4.8761,-6.0258e-05,0
4.8766,-0.0001039,0
4.8771,-0.00017742,0
4.8777,-0.00023398,0
4.8782,-0.00022861,0
4.8787,-0.00017607,0
4.8792,-0.00010877,0
4.8797,-3.508e-05,0
4.8803,5.2201e-05,0
4.8808,0.00015459,0
4.8813,0.00025933,0
4.8818,0.00034627,0
4.8823,0.00040922,0
4.8828,0.00044027,0
4.8834,0.00041711,0
4.8839,0.00033805,0
4.8844,0.0002318,0
4.8849,0.00013378,0
4.8854,6.2608e-05,0
4.886,1.3596e-05,0
4.8865,-3.4409e-05,0
4.887,-7.7714e-05,0
4.8875,-0.00010457,0
4.888,-0.00011431,0
4.8886,-0.00010793,0
4.8891,-8.6442e-05,0
4.8896,-5.304e-05,0
4.8901,-2.0813e-05,0
4.8906,4.1962e-06,0
4.8912,3.4241e-05,0
4.8917,7.6036e-05,0
4.8922,0.00010893,0
4.8927,0.00011263,0
4.8932,0.00010121,0
4.8937,9.1142e-05,0
4.8943,7.1e-05,0
4.8948,3.7934e-05,0
4.8953,1.0239e-05,0
4.8958,-1.0239e-05,0
4.8963,-3.5248e-05,0
4.8969,-6.2272e-05,0
4.8974,-7.6707e-05,0
4.8979,-7.4357e-05,0
4.8984,-6.3111e-05,0
4.8989,-5.2873e-05,0
4.8995,-4.7166e-05,0
4.9,-3.827e-05,0
4.9005,-2.3331e-05,0
4.901,-5.2033e-06,0
4.9015,1.326e-05,0
4.9021,3.0884e-05,0
4.9026,4.4144e-05,0
4.9031,5.4887e-05,0
4.9036,5.9922e-05,0
4.9041,5.6565e-05,0
4.9047,4.683e-05,0
4.9052,3.3234e-05,0
4.9057,1.3596e-05,0
4.9062,-1.1246e-05,0
4.9067,-3.2563e-05,0
4.9073,-4.5823e-05,0
4.9078,-5.1362e-05,0
4.9083,-4.5151e-05,0
4.9088,-2.8367e-05,0
4.9093,-9.2317e-06,0
4.9098,1.5106e-06,0
4.9104,-1.8463e-06,0
4.9109,-1.091e-05,0
4.9114,-7.0497e-06,0
4.9119,2.3331e-05,0
4.9124,7.5029e-05,0
4.913,0.00012102,0
4.9135,0.0001331,0
4.914,0.00010541,0
4.9145,4.9012e-05,0
4.915,-1.1246e-05,0
4.9156,-5.2537e-05,0
4.9161,-7.8721e-05,0
4.9166,-0.00010977,0
4.9171,-0.00014032,0
4.9176,-0.00015862,0
4.9182,-0.00016466,0
4.9187,-0.00015946,0
4.9192,-0.00013445,0
4.9197,-8.6442e-05,0
4.9202,-2.8199e-05,0
4.9207,2.4842e-05,0
4.9213,6.865e-05,0
4.9218,0.00010558,0
4.9223,0.0001368,0
4.9228,0.00015157,0
4.9233,0.00013512,0
4.9239,0.00010306,0
4.9244,7.7211e-05,0
4.9249,5.5558e-05,0
4.9254,3.0716e-05,0
4.9259,9.0639e-06,0
4.9265,4.8676e-06,0
4.927,1.8463e-05,0
4.9275,3.6759e-05,0
4.928,5.2537e-05,0
4.9285,6.6804e-05,0
4.9291,8.1743e-05,0
4.9296,9.1814e-05,0
4.9301,9.3828e-05,0
4.9306,9.7856e-05,0
4.9311,0.00011162,0
4.9317,0.000118,0
4.9322,0.00010205,0
4.9327,5.4887e-05,0
4.9332,-1.0575e-05,0
4.9337,-5.2537e-05,0
4.9342,-5.6565e-05,0
4.9348,-4.4816e-05,0
4.9353,-3.8773e-05,0
4.9358,-4.213e-05,0
4.9363,-4.3473e-05,0
4.9368,-3.2563e-05,0
4.9374,-7.0497e-06,0
4.9379,3.3066e-05,0
4.9384,7.9057e-05,0
4.9389,0.00011263,0
4.9394,0.00011514,0
4.94,9.2821e-05,0
4.9405,7.4189e-05,0
4.941,6.8818e-05,0
4.9415,6.8147e-05,0
4.942,6.479e-05,0
4.9426,5.4215e-05,0
4.9431,3.1388e-05,0
4.9436,6.5461e-06,0
4.9441,1.8463e-06,0
4.9446,2.7359e-05,0
4.9452,6.1433e-05,0
4.9457,7.335e-05,0
4.9462,5.8747e-05,0
4.9467,3.0045e-05,0
4.9472,6.714e-07,0
4.9478,-1.9471e-05,0
4.9483,-2.8702e-05,0
4.9488,-3.4073e-05,0
4.9493,-3.6423e-05,0
4.9498,-4.0787e-05,0
4.9503,-5.3376e-05,0
4.9509,-6.2776e-05,0
4.9514,-5.0523e-05,0
4.9519,-1.5946e-05,0
4.9524,1.8631e-05,0
4.9529,3.1052e-05,0
4.9535,3.743e-05,0
4.954,7.57e-05,0
4.9545,0.00013243,0
4.955,0.00016416,0
4.9555,0.00016197,0
4.9561,0.00014418,0
4.9566,0.00011498,0
4.9571,7.4693e-05,0
4.9576,3.6927e-05,0
4.9581,1.2253e-05,0
4.9587,0,0
4.9592,-9.5674e-06,0
4.9597,-3.0381e-05,0
4.9602,-5.2873e-05,0
4.9607,-5.6901e-05,0
4.9612,-4.9348e-05,0
4.9618,-4.7166e-05,0
4.9623,-6.2943e-05,0
4.9628,-8.5435e-05,0
4.9633,-0.00010256,0
4.9638,-0.00011548,0
4.9644,-0.00012085,0
4.9649,-0.00011666,0
4.9654,-0.00010961,0
4.9659,-9.8863e-05,0
4.9664,-7.3014e-05,0
4.967,-1.7288e-05,0
4.9675,6.2272e-05,0
4.968,0.00012992,0
4.9685,0.0001566,0
4.969,0.00015425,0
4.9696,0.00014754,0
4.9701,0.00014788,0
4.9706,0.00014553,0
4.9711,0.00012505,0
4.9716,7.8553e-05,0
4.9722,1.8296e-05,0
4.9727,-3.1388e-05,0
4.9732,-5.388e-05,0
4.9737,-5.2705e-05,0
4.9742,-3.9109e-05,0
4.9748,-2.7359e-05,0
4.9753,-2.9206e-05,0
4.9758,-2.9709e-05,0
4.9763,-1.3596e-05,0
4.9768,1.0071e-05,0
4.9773,4.062e-05,0
4.9779,8.5267e-05,0
4.9784,0.00012454,0
4.9789,0.00013613,0
4.9794,0.00012605,0
4.9799,0.00010793,0
4.9805,8.9128e-05,0
4.981,6.7643e-05,0
4.9815,4.3977e-05,0
4.982,2.1317e-05,0
4.9825,8.2246e-06,0
4.9831,5.2033e-06,0
4.9836,4.1962e-06,0
4.9841,5.2033e-06,0
4.9846,1.1414e-05,0
4.9851,1.4099e-05,0
4.9857,6.8818e-06,0
4.9862,-1.0071e-06,0
4.9867,3.357e-07,0
4.9872,9.2317e-06,0
4.9877,1.3092e-05,0
4.9882,6.8818e-06,0
4.9888,-6.8818e-06,0
4.9893,-2.5681e-05,0
4.9898,-4.2466e-05,0
4.9903,-4.5319e-05,0
4.9908,-4.4312e-05,0
4.9914,-6.1601e-05,0
4.9919,-9.1478e-05,0
4.9924,-0.00010759,0
4.9929,-0.00010088,0
4.9934,-7.4357e-05,0
4.994,-3.8102e-05,0
4.9945,-8.3925e-07,0
4.995,3.6423e-05,0
4.9955,7.6371e-05,0
4.996,0.0001237,0
4.9966,0.00017171,0
4.9971,0.00019823,0
4.9976,0.00018514,0
4.9981,0.00014116,0
4.9986,9.5003e-05,0
4.9992,6.1601e-05,0
4.9997,3.8773e-05,0
5.0002,2.0478e-05,0
5.0007,5.2033e-06,0
5.0012,-6.8818e-06,0
5.0018,-1.6281e-05,0
5.0023,-1.796e-05,0
5.0028,-1.1414e-05,0
5.0033,-7.5532e-06,0
5.0038,-8.896e-06,0
5.0043,-1.5778e-05,0
5.0049,-2.8702e-05,0
5.0054,-4.9851e-05,0
5.0059,-7.0665e-05,0
5.0064,-7.9561e-05,0
5.0069,-7.4022e-05,0
5.0075,-5.8747e-05,0
5.008,-4.0284e-05,0
5.0085,-2.417e-05,0
5.009,-1.2253e-05,0
5.0095,3.8605e-06,0
5.0101,4.2802e-05,0
5.0106,9.752e-05,0
5.0111,0.00012874,0
5.0116,0.00011766,0
5.0121,8.51e-05,0
5.0127,6.0258e-05,0
5.0132,4.8676e-05,0
5.0137,4.7501e-05,0
5.0142,6.7643e-05,0
5.0147,0.0001091,0
5.0152,0.00013193,0
5.0158,8.9128e-05,0
5.0163,-1.1582e-05,0
5.0168,-9.987e-05,0
5.0173,-0.00013613,0
5.0178,-0.00014485,0
5.0184,-0.00015862,0
5.0189,-0.00017675,0
5.0194,-0.00018312,0
5.0199,-0.00016164,0
5.0204,-8.5939e-05,0
5.021,6.0594e-05,0
5.0215,0.00023549,0
5.022,0.00037212,0
5.0225,0.00043758,0
5.023,0.00043053,0
5.0236,0.00037649,0
5.0241,0.00030381,0
5.0246,0.00022794,0
5.0251,0.00014788,0
5.0256,6.63e-05,0
5.0262,-8.0568e-06,0
5.0267,-6.5965e-05,0
5.0272,-0.00010088,0
5.0277,-0.00011649,0
5.0282,-0.00012287,0
5.0287,-0.00011548,0
5.0293,-8.9632e-05,0
5.0298,-5.6901e-05,0
5.0303,-3.4073e-05,0
5.0308,-2.7024e-05,0
5.0313,-2.8199e-05,0
5.0319,-2.6017e-05,0
5.0324,-1.6617e-05,0
5.0329,-4.8676e-06,0
5.0334,6.5461e-06,0
5.0339,1.1246e-05,0
5.0345,-8.2246e-06,0
5.035,-4.5487e-05,0
5.0355,-6.7979e-05,0
5.036,-6.7308e-05,0
5.0365,-6.4286e-05,0
5.0371,-7.1336e-05,0
5.0376,-8.2582e-05,0
5.0381,-9.1478e-05,0
5.0386,-9.2988e-05,0
5.0391,-8.0064e-05,0
5.0397,-4.8173e-05,0
5.0402,-4.3641e-06,0
5.0407,4.1459e-05,0
5.0412,8.04e-05,0
5.0417,0.00011246,0
5.0423,0.00014603,0
5.0428,0.00017977,0
5.0433,0.00019236,0
5.0438,0.00017238,0
5.0443,0.00012857,0
5.0448,7.7379e-05,0
5.0454,3.1556e-05,0
5.0459,0,0
5.0464,-1.5274e-05,0
5.0469,-2.501e-05,0
5.0474,-4.0787e-05,0
5.048,-7.0497e-05,0
5.0485,-0.00012085,0
5.049,-0.00016953,0
5.0495,-0.00019286,0
5.05,-0.00018396,0
5.0506,-0.00014569,0
5.0511,-9.8192e-05,0
5.0516,-5.6565e-05,0
5.0521,-1.1414e-05,0
5.0526,4.7501e-05,0
5.0532,0.00012119,0
5.0537,0.0002036,0
5.0542,0.00028081,0
5.0547,0.00033788,0
5.0552,0.00037481,0
5.0557,0.00038756,0
5.0563,0.00035534,0
5.0568,0.0002741,0
5.0573,0.00017372,0
5.0578,8.1071e-05,0
5.0583,6.2104e-06,0
5.0589,-4.9348e-05,0
5.0594,-8.0735e-05,0
5.0599,-9.4163e-05,0
5.0604,-9.8192e-05,0
5.0609,-9.2485e-05,0
5.0615,-8.3085e-05,0
5.062,-7.2007e-05,0
5.0625,-5.4551e-05,0
5.063,-3.4073e-05,0
5.0635,-1.8463e-05,0
5.0641,-1.1078e-05,0
5.0646,-9.2317e-06,0
5.0651,-7.2175e-06,0
5.0656,-3.0213e-06,0
5.0661,3.6927e-06,0
5.0667,1.4939e-05,0
5.0672,2.6352e-05,0
5.0677,2.4338e-05,0
5.0682,1.0575e-05,0
5.0687,-2.8534e-06,0
5.0693,-1.0742e-05,0
5.0698,-1.4099e-05,0
5.0703,-1.8296e-05,0
5.0708,-3.1052e-05,0
5.0713,-4.8173e-05,0
5.0718,-6.6804e-05,0
5.0724,-8.9464e-05,0
5.0729,-0.00011061,0
5.0734,-0.00012035,0
5.0739,-0.00011414,0
5.0744,-9.6849e-05,0
5.075,-6.8482e-05,0
5.0755,-2.0981e-05,0
5.076,4.3809e-05,0
5.0765,0.00010961,0
5.077,0.00015492,0
5.0776,0.00017104,0
5.0781,0.00016802,0
5.0786,0.00015828,0
5.0791,0.000142,0
5.0796,0.00011666,0
5.0802,8.3085e-05,0
5.0807,4.0116e-05,0
5.0812,-8.3925e-07,0
5.0817,-5.539e-06,0
5.0822,2.8367e-05,0
5.0827,5.5894e-05,0
5.0833,4.4984e-05,0
5.0838,7.8889e-06,0
5.0843,-2.4674e-05,0
5.0848,-3.7934e-05,0
5.0853,-3.7766e-05,0
5.0859,-2.9709e-05,0
5.0864,-1.3596e-05,0
5.0869,9.0639e-06,0
5.0874,2.9038e-05,0
5.0879,3.4073e-05,0
5.0885,3.122e-05,0
5.089,3.592e-05,0
5.0895,5.153e-05,0
5.09,6.3615e-05,0
5.0905,5.8915e-05,0
5.0911,3.5416e-05,0
5.0916,-2.5177e-06,0
5.0921,-3.9445e-05,0
5.0926,-6.3783e-05,0
5.0931,-7.6707e-05,0
5.0937,-8.0735e-05,0
5.0942,-8.0735e-05,0
5.0947,-7.7546e-05,0
5.0952,-6.865e-05,0
5.0957,-5.4887e-05,0
5.0963,-3.2395e-05,0
5.0968,3.8605e-06,0
5.0973,4.9516e-05,0
5.0978,8.7114e-05,0
5.0983,0.00011296,0
5.0988,0.00012219,0
5.0994,0.00012102,0
5.0999,0.00012471,0
5.1004,0.00013109,0
5.1009,0.0001185,0
