104.92,9.1981e-05,0
104.92,2.3667e-05,0
104.92,-3.8941e-05,0
104.92,-8.3085e-05,0
104.92,-0.00011229,0
104.92,-0.00012404,0
104.92,-0.00010289,0
104.92,-4.5487e-05,0
104.93,2.1317e-05,0
104.93,7.9561e-05,0
104.93,0.00012253,0
104.93,0.00014485,0
104.93,0.0001274,0
104.93,6.4286e-05,0
104.93,-2.1149e-05,0
104.93,-0.00012186,0
104.93,-0.0002078,0
104.93,-0.00021535,0
104.93,-0.0001326,0
104.93,1.5106e-06,0
104.93,0.0001284,0
104.93,0.00018715,0
104.93,0.00015543,0
104.93,7.0329e-05,0
104.93,-1.6785e-07,0
104.93,-2.2995e-05,0
104.93,-1.7121e-05,0
104.94,-2.652e-05,0
104.94,-7.335e-05,0
104.94,-0.00014234,0
104.94,-0.00018514,0
104.94,-0.00016265,0
104.94,-8.7114e-05,0
104.94,-9.3996e-06,0
104.94,2.8702e-05,0
104.94,2.7695e-05,0
104.94,1.3931e-05,0
104.94,1.9303e-05,0
104.94,6.7308e-05,0
104.94,0.00019538,0
104.94,0.00035366,0
104.94,0.00038756,0
104.94,0.00026571,0
104.94,9.0806e-05,0
104.94,-3.8605e-05,0
104.94,-7.6371e-05,0
104.94,-3.0716e-05,0
104.95,6.9657e-05,0
104.95,0.00017758,0
104.95,0.00023717,0
104.95,0.00023214,0
104.95,0.00019219,0
104.95,0.00015224,0
104.95,0.00012203,0
104.95,8.0064e-05,0
104.95,2.266e-05,0
104.95,-4.0116e-05,0
104.95,-9.2988e-05,0
104.95,-0.00010961,0
104.95,-8.8457e-05,0
104.95,-8.1407e-05,0
104.95,-0.00011431,0
104.95,-0.00016936,0
104.95,-0.0002224,0
104.95,-0.00026017,0
104.95,-0.00026688,0
104.96,-0.00022525,0
104.96,-0.00016567,0
104.96,-0.00014452,0
104.96,-0.00016315,0
104.96,-0.00014855,0
104.96,-6.7811e-05,0
104.96,4.3977e-05,0
104.96,0.00013243,0
104.96,0.00016701,0
104.96,0.00013797,0
104.96,6.5965e-05,0
104.96,1.4603e-05,0
104.96,1.1749e-06,0
104.96,-1.5106e-06,0
104.96,5.539e-06,0
104.96,1.9471e-05,0
104.96,2.6017e-05,0
104.96,2.6688e-05,0
104.96,4.0452e-05,0
104.97,7.5029e-05,0
104.97,0.00013394,0
104.97,0.00018782,0
104.97,0.00018514,0
104.97,0.0001086,0
104.97,3.5752e-05,0
104.97,3.2395e-05,0
104.97,2.1317e-05,0
104.97,-6.9154e-05,0
104.97,-0.00019319,0
104.97,-0.00028786,0
104.97,-0.00036574,0
104.97,-0.00045353,0
104.97,-0.0004824,0
104.97,-0.00038152,0
104.97,-0.00017725,0
104.97,4.9851e-05,0
104.97,0.00023012,0
104.97,0.00032731,0
104.97,0.00034795,0
104.98,0.00033721,0
104.98,0.00035248,0
104.98,0.00041946,0
104.98,0.00052218,0
104.98,0.00062222,0
104.98,0.00066653,0
104.98,0.00060946,0
104.98,0.00046813,0
104.98,0.00031119,0
104.98,0.00019319,0
104.98,0.00012337,0
104.98,8.2078e-05,0
104.98,5.7572e-05,0
104.98,5.1194e-05,0
104.98,4.5487e-05,0
104.98,2.3667e-05,0
104.98,-8.896e-06,0
104.98,-4.1291e-05,0
104.98,-7.4022e-05,0
104.99,-0.00010809,0
104.99,-0.00014385,0
104.99,-0.00017574,0
104.99,-0.0001984,0
104.99,-0.0002219,0
104.99,-0.00025211,0
104.99,-0.00027863,0
104.99,-0.00028417,0
104.99,-0.00026571,0
104.99,-0.00023415,0
104.99,-0.00020343,0
104.99,-0.00016902,0
104.99,-8.8792e-05,0
104.99,5.2537e-05,0
104.99,0.00013613,0
104.99,6.009e-05,0
104.99,-0.00011833,0
104.99,-0.00025882,0
104.99,-0.00032126,0
105,-0.00035668,0
105,-0.00037699,0
105,-0.00034006,0
105,-0.00022794,0
105,-5.5894e-05,0
105,0.00010021,0
105,0.00013545,0
105,9.836e-05,0
105,9.2485e-05,0
105,0.00012438,0
105,0.00016349,0
105,0.00021065,0
105,0.00025093,0
105,0.00027041,0
105,0.00028316,0
105,0.00029474,0
105,0.00030129,0
105,0.00030465,0
105,0.00029525,0
105.01,0.00025127,0
105.01,0.00018564,0
105.01,0.00011867,0
105.01,5.2201e-05,0
105.01,-1.3596e-05,0
105.01,-5.8244e-05,0
105.01,-7.5029e-05,0
105.01,-7.7546e-05,0
105.01,-6.0929e-05,0
105.01,-7.5532e-06,0
105.01,4.062e-05,0
105.01,3.6423e-05,0
105.01,-1.5106e-06,0
105.01,-2.3667e-05,0
105.01,3.0213e-06,0
105.01,6.4958e-05,0
105.01,0.00012471,0
105.01,0.00015677,0
105.01,0.00015358,0
105.01,0.00012605,0
105.02,8.0735e-05,0
105.02,2.2995e-05,0
105.02,-2.7192e-05,0
105.02,-5.8244e-05,0
105.02,-7.6036e-05,0
105.02,-8.4092e-05,0
105.02,-8.6442e-05,0
105.02,-8.9128e-05,0
105.02,-0.00010826,0
105.02,-0.0001415,0
105.02,-0.00014922,0
105.02,-0.00012219,0
105.02,-0.00010474,0
105.02,-0.00011716,0
105.02,-0.00015241,0
105.02,-0.00018749,0
105.02,-0.00019672,0
105.02,-0.00017691,0
105.02,-0.00013243,0
105.03,-7.0161e-05,0
105.03,4.5319e-06,0
105.03,7.5868e-05,0
105.03,0.00013143,0
105.03,0.00017641,0
105.03,0.00022928,0
105.03,0.00028568,0
105.03,0.00031875,0
105.03,0.00030062,0
105.03,0.00022844,0
105.03,0.00012908,0
105.03,3.5752e-05,0
105.03,-4.5823e-05,0
105.03,-0.00011968,0
105.03,-0.00010574,0
105.03,1.8463e-06,0
105.03,9.8527e-05,0
105.03,0.00013713,0
105.03,0.0001237,0
105.04,8.7449e-05,0
105.04,4.6494e-05,0
105.04,-1.4939e-05,0
105.04,-6.865e-05,0
105.04,-2.3667e-05,0
105.04,0.00010591,0
105.04,0.00022139,0
105.04,0.00023684,0
105.04,0.00013394,0
105.04,-5.8747e-06,0
105.04,-8.8457e-05,0
105.04,-9.2653e-05,0
105.04,-5.1194e-05,0
105.04,-2.182e-06,0
105.04,3.4745e-05,0
105.04,2.8031e-05,0
105.04,-1.7288e-05,0
105.04,-4.4144e-05,0
105.04,-4.0116e-05,0
105.05,-2.9374e-05,0
105.05,-3.6759e-05,0
105.05,-7.5868e-05,0
105.05,-0.00012052,0
105.05,-0.00014855,0
105.05,-0.00014636,0
105.05,-0.00012102,0
105.05,-0.00010188,0
105.05,-0.0001279,0
105.05,-0.00019823,0
105.05,-0.0002558,0
105.05,-0.00022055,0
105.05,-0.00011196,0
105.05,-1.6785e-05,0
105.05,2.1988e-05,0
105.05,2.5177e-05,0
105.05,4.9516e-05,0
105.05,0.00011934,0
105.05,0.00021569,0
105.05,0.00031438,0
105.06,0.00037984,0
105.06,0.00039528,0
105.06,0.00038857,0
105.06,0.000355,0
105.06,0.00024556,0
105.06,8.3085e-05,0
105.06,-5.0858e-05,0
105.06,-0.00011498,0
105.06,-0.00011431,0
105.06,-6.3279e-05,0
105.06,1.0575e-05,0
105.06,5.623e-05,0
105.06,3.9109e-05,0
105.06,-6.8818e-06,0
105.06,-2.9709e-05,0
105.06,-2.9709e-05,0
105.06,-2.9206e-05,0
105.06,-2.8367e-05,0
105.06,-1.4771e-05,0
105.07,1.796e-05,0
105.07,5.2033e-05,0
105.07,6.3615e-05,0
105.07,4.9851e-05,0
105.07,2.7359e-05,0
105.07,5.539e-06,0
105.07,-1.3596e-05,0
105.07,-3.2563e-05,0
105.07,-3.122e-05,0
105.07,-1.6785e-06,0
105.07,3.1388e-05,0
105.07,4.4816e-05,0
105.07,3.1724e-05,0
105.07,5.0355e-07,0
105.07,-2.0981e-05,0
105.07,-1.8967e-05,0
105.07,-5.0355e-07,0
105.07,2.6184e-05,0
105.07,5.153e-05,0
105.08,6.2608e-05,0
105.08,5.153e-05,0
105.08,2.0142e-05,0
105.08,-1.7792e-05,0
105.08,-3.8941e-05,0
105.08,-3.0381e-05,0
105.08,-5.0355e-06,0
105.08,2.2156e-05,0
105.08,4.8508e-05,0
105.08,7.6707e-05,0
105.08,7.5029e-05,0
105.08,3.8941e-05,0
105.08,4.5151e-05,0
105.08,0.00011263,0
105.08,0.00015492,0
105.08,8.7785e-05,0
105.08,-7.5532e-05,0
105.08,-0.0001895,0
105.08,-0.00015879,0
105.08,-4.683e-05,0
105.09,4.1794e-05,0
105.09,7.6204e-05,0
105.09,9.3324e-05,0
105.09,0.00010726,0
105.09,0.00010121,0
105.09,0.00010726,0
105.09,0.00014049,0
105.09,0.00014351,0
105.09,8.2414e-05,0
105.09,-6.3783e-06,0
105.09,-0.00010423,0
105.09,-0.00017356,0
105.09,-0.00018279,0
105.09,-0.00016634,0
105.09,-0.0001754,0
105.09,-0.00018631,0
105.09,-0.0001133,0
105.09,1.3764e-05,0
105.09,7.7043e-05,0
105.1,7.4693e-05,0
105.1,0.00015811,0
105.1,0.00037951,0
105.1,0.00053057,0
105.1,0.00043758,0
105.1,0.0001984,0
105.1,2.3499e-06,0
105.1,-8.7953e-05,0
105.1,-9.6849e-05,0
105.1,-5.5894e-05,0
105.1,8.896e-06,0
105.1,5.1362e-05,0
105.1,1.796e-05,0
105.1,-5.5055e-05,0
105.1,-9.1478e-05,0
105.1,-0.00010004,0
105.1,-0.00010491,0
105.1,-0.00010121,0
105.1,-7.8218e-05,0
105.11,-4.8173e-05,0
105.11,-4.3473e-05,0
105.11,-6.1265e-05,0
105.11,-7.8386e-05,0
105.11,-7.8218e-05,0
105.11,-5.9586e-05,0
105.11,-3.4409e-05,0
105.11,-1.3092e-05,0
105.11,3.1891e-06,0
105.11,1.5106e-06,0
105.11,-2.0981e-05,0
105.11,-3.8102e-05,0
105.11,-3.4409e-05,0
105.11,-2.4338e-05,0
105.11,-2.1317e-05,0
105.11,-2.4506e-05,0
105.11,-2.7024e-05,0
105.11,-2.0142e-05,0
105.11,-1.3931e-05,0
105.12,-2.5849e-05,0
105.12,-5.2705e-05,0
105.12,-8.3589e-05,0
105.12,-0.00010893,0
105.12,-0.00010977,0
105.12,-7.1672e-05,0
105.12,-9.7353e-06,0
105.12,5.069e-05,0
105.12,9.5171e-05,0
105.12,0.00011984,0
105.12,0.00013008,0
105.12,0.00013629,0
105.12,0.00014183,0
105.12,0.0001509,0
105.12,0.00015023,0
105.12,0.00013059,0
105.12,9.6513e-05,0
105.12,5.8915e-05,0
105.12,3.4745e-05,0
105.12,2.0981e-05,0
105.13,-1.6281e-05,0
105.13,-8.4092e-05,0
105.13,-0.00012001,0
105.13,-9.1478e-05,0
105.13,-3.1052e-05,0
105.13,7.3854e-06,0
105.13,-1.4771e-05,0
105.13,-9.1478e-05,0
105.13,-0.0001895,0
105.13,-0.00025731,0
105.13,-0.00027024,0
105.13,-0.00022408,0
105.13,-0.0001091,0
105.13,5.0523e-05,0
105.13,0.00019991,0
105.13,0.00030599,0
105.13,0.00039025,0
105.13,0.0004777,0
105.13,0.00054769,0
105.14,0.00056364,0
105.14,0.00052352,0
105.14,0.00045605,0
105.14,0.00037565,0
105.14,0.00027376,0
105.14,0.00016768,0
105.14,9.6513e-05,0
105.14,6.0929e-05,0
105.14,2.7695e-05,0
105.14,-1.1749e-06,0
105.14,2.6352e-05,0
105.14,7.0329e-05,0
105.14,3.6088e-05,0
105.14,-0.00010709,0
105.14,-0.0002929,0
105.14,-0.0004166,0
105.14,-0.00044967,0
105.14,-0.00043339,0
105.14,-0.00038471,0
105.15,-0.00029441,0
105.15,-0.00019101,0
105.15,-0.00011229,0
105.15,-3.0045e-05,0
105.15,8.2414e-05,0
105.15,0.00020075,0
105.15,0.00032345,0
105.15,0.00043355,0
105.15,0.0004735,0
105.15,0.0004067,0
105.15,0.00028283,0
105.15,0.0001707,0
105.15,7.8553e-05,0
105.15,-3.8605e-06,0
105.15,-5.9922e-05,0
105.15,-7.9393e-05,0
105.15,-8.51e-05,0
105.15,-0.0001034,0
105.15,-0.000118,0
105.16,-0.00011028,0
105.16,-9.5506e-05,0
105.16,-9.0639e-05,0
105.16,-9.8192e-05,0
105.16,-0.00011095,0
105.16,-0.00012454,0
105.16,-0.00014351,0
105.16,-0.00015157,0
105.16,-0.00011766,0
105.16,-3.8437e-05,0
105.16,4.8005e-05,0
105.16,0.00012203,0
105.16,0.00020847,0
105.16,0.00025597,0
105.16,0.00016399,0
105.16,-4.7166e-05,0
105.16,-0.0002318,0
105.16,-0.00030095,0
105.16,-0.00028618,0
105.17,-0.00024775,0
105.17,-0.00019622,0
105.17,-0.00011263,0
105.17,1.6953e-05,0
105.17,0.00015929,0
105.17,0.00026168,0
105.17,0.00030498,0
105.17,0.00029357,0
105.17,0.00024758,0
105.17,0.0001937,0
105.17,0.00017624,0
105.17,0.00018866,0
105.17,0.00017406,0
105.17,0.00011313,0
105.17,3.5416e-05,0
105.17,-2.7527e-05,0
105.17,-7.8889e-05,0
105.17,-0.00011078,0
105.17,-0.00011598,0
105.17,-0.00010742,0
105.18,-9.3492e-05,0
105.18,-7.6036e-05,0
105.18,-4.9851e-05,0
105.18,-1.6281e-05,0
105.18,3.357e-06,0
105.18,-5.0355e-07,0
105.18,-1.561e-05,0
105.18,-2.4674e-05,0
105.18,-2.2324e-05,0
105.18,-1.3092e-05,0
105.18,-2.5177e-06,0
105.18,5.8747e-06,0
105.18,6.8818e-06,0
105.18,2.182e-06,0
105.18,-5.539e-06,0
105.18,-8.0568e-06,0
105.18,1.8463e-06,0
105.18,1.5946e-05,0
105.18,2.3835e-05,0
105.19,3.0716e-05,0
105.19,4.0955e-05,0
105.19,4.2466e-05,0
105.19,4.3641e-06,0
105.19,-8.0735e-05,0
105.19,-0.00016785,0
105.19,-0.00020545,0
105.19,-0.00018144,0
105.19,-0.00012085,0
105.19,-6.0594e-05,0
105.19,-2.4002e-05,0
105.19,-3.1724e-05,0
105.19,-7.2847e-05,0
105.19,-7.7379e-05,0
105.19,-9.9031e-06,0
105.19,0.00010306,0
105.19,0.00020494,0
105.19,0.00026033,0
105.19,0.00025631,0
105.2,0.00019504,0
105.2,0.000118,0
105.2,7.2343e-05,0
105.2,8.0735e-05,0
105.2,0.00013008,0
105.2,0.00017876,0
105.2,0.00019974,0
105.2,0.00020125,0
105.2,0.00019319,0
105.2,0.00018766,0
105.2,0.00019588,0
105.2,0.00021384,0
105.2,0.00021971,0
105.2,0.00019034,0
105.2,0.00013042,0
105.2,6.3951e-05,0
105.2,8.896e-06,0
105.2,-3.357e-05,0
105.2,-6.6972e-05,0
105.2,-8.6107e-05,0
105.21,-8.6778e-05,0
105.21,-6.7475e-05,0
105.21,-3.8605e-05,0
105.21,-1.0407e-05,0
105.21,1.3092e-05,0
105.21,1.9974e-05,0
105.21,2.5177e-06,0
105.21,-3.7095e-05,0
105.21,-0.00010004,0
105.21,-0.00017272,0
105.21,-0.00021518,0
105.21,-0.00022492,0
105.21,-0.00021401,0
105.21,-0.00019135,0
105.21,-0.00016315,0
105.21,-0.00012454,0
105.21,-7.9896e-05,0
105.21,-3.9109e-05,0
105.21,-8.2246e-06,0
105.22,1.9135e-05,0
105.22,8.04e-05,0
105.22,0.00017792,0
105.22,0.00023616,0
105.22,0.000213,0
105.22,0.00013243,0
105.22,4.7837e-05,0
105.22,-3.6927e-06,0
105.22,-2.2995e-05,0
105.22,-1.6785e-07,0
105.22,7.7379e-05,0
105.22,0.000165,0
105.22,0.00021132,0
105.22,0.0002088,0
105.22,0.00020578,0
105.22,0.00026839,0
105.22,0.00032546,0
105.22,0.00026419,0
105.22,9.0639e-05,0
105.23,-7.9057e-05,0
105.23,-0.00017053,0
105.23,-0.00020595,0
105.23,-0.00022509,0
105.23,-0.00022039,0
105.23,-0.00016281,0
105.23,-5.5558e-05,0
105.23,5.3544e-05,0
105.23,0.0001086,0
105.23,0.0001091,0
105.23,7.57e-05,0
105.23,1.8967e-05,0
105.23,-5.0523e-05,0
105.23,-0.00011061,0
105.23,-0.00015023,0
105.23,-0.00016013,0
105.23,-0.00014636,0
105.23,-0.0001237,0
105.23,-9.6849e-05,0
105.24,-5.774e-05,0
105.24,-1.3931e-05,0
105.24,1.4267e-05,0
105.24,2.0813e-05,0
105.24,2.5345e-05,0
105.24,5.8579e-05,0
105.24,0.00010709,0
105.24,0.00012723,0
105.24,0.00010658,0
105.24,7.7043e-05,0
105.24,6.2943e-05,0
105.24,6.4286e-05,0
105.24,7.7714e-05,0
105.24,9.752e-05,0
105.24,0.00011682,0
105.24,0.0001462,0
105.24,0.00016835,0
105.24,0.00015593,0
105.24,0.00012186,0
105.25,7.7546e-05,0
105.25,2.652e-05,0
105.25,-1.6281e-05,0
105.25,-4.1794e-05,0
105.25,-4.9851e-05,0
105.25,-3.8437e-05,0
105.25,-8.2246e-06,0
105.25,1.7792e-05,0
105.25,1.1078e-05,0
105.25,-1.4771e-05,0
105.25,-2.7359e-05,0
105.25,-2.2492e-05,0
105.25,-2.4674e-05,0
105.25,-4.7333e-05,0
105.25,-8.8792e-05,0
105.25,-0.00012891,0
105.25,-0.00014133,0
105.25,-0.0001039,0
105.25,-1.7624e-05,0
105.25,8.9128e-05,0
105.26,0.00017876,0
105.26,0.00020729,0
105.26,0.00017288,0
105.26,0.00012337,0
105.26,9.3828e-05,0
105.26,8.9799e-05,0
105.26,0.00010356,0
105.26,0.00010709,0
105.26,7.2343e-05,0
105.26,-9.9031e-06,0
105.26,-0.00010675,0
105.26,-0.00017473,0
105.26,-0.00020444,0
105.26,-0.00020713,0
105.26,-0.00019521,0
105.26,-0.00018144,0
105.26,-0.00018245,0
105.26,-0.00019286,0
105.26,-0.00017372,0
105.27,-8.2246e-05,0
105.27,0.00010188,0
105.27,0.00037111,0
105.27,0.00055743,0
105.27,0.00050976,0
105.27,0.00026671,0
105.27,-4.0284e-06,0
105.27,-0.00016953,0
105.27,-0.0002182,0
105.27,-0.00014989,0
105.27,2.1317e-05,0
105.27,0.00019705,0
105.27,0.00027578,0
105.27,0.00024019,0
105.27,0.00016818,0
105.27,0.00011934,0
105.27,8.661e-05,0
105.27,5.0858e-05,0
105.27,1.6449e-05,0
105.28,5.0355e-07,0
105.28,-2.0142e-06,0
105.28,-6.8818e-06,0
105.28,-1.561e-05,0
105.28,-2.501e-05,0
105.28,-2.9374e-05,0
105.28,-2.7863e-05,0
105.28,-2.6688e-05,0
105.28,-2.7024e-05,0
105.28,-2.5681e-05,0
105.28,-2.3667e-05,0
105.28,-2.4674e-05,0
105.28,-2.8031e-05,0
105.28,-3.0549e-05,0
105.28,-3.1052e-05,0
105.28,-3.1052e-05,0
105.28,-2.8702e-05,0
105.28,-2.6184e-05,0
105.28,-2.4674e-05,0
105.28,-2.1988e-05,0
105.29,-1.8967e-05,0
105.29,-1.6281e-05,0
105.29,-1.3764e-05,0
105.29,-9.9031e-06,0
105.29,-2.8534e-06,0
105.29,5.0355e-07,0
105.29,7.5532e-06,0
105.29,3.2395e-05,0
105.29,5.8244e-05,0
105.29,6.6972e-05,0
105.29,5.388e-05,0
105.29,2.9206e-05,0
105.29,1.1749e-05,0
105.29,3.1891e-06,0
105.29,-8.2246e-06,0
105.29,-1.7792e-05,0
105.29,-1.6953e-05,0
105.29,-1.4603e-05,0
105.29,-1.9638e-05,0
105.3,-2.3163e-05,0
105.3,-1.3428e-05,0
105.3,1.3428e-06,0
105.3,1.3931e-05,0
105.3,2.1149e-05,0
105.3,1.9135e-05,0
105.3,1.0575e-05,0
105.3,2.3499e-06,0
105.3,-2.182e-06,0
105.3,-2.182e-06,0
105.3,5.539e-06,0
105.3,1.8799e-05,0
105.3,3.3066e-05,0
105.3,4.1459e-05,0
105.3,5.3544e-05,0
105.3,7.1672e-05,0
105.3,8.51e-05,0
105.3,8.3421e-05,0
105.3,6.63e-05,0
105.31,4.2466e-05,0
105.31,1.8967e-05,0
105.31,-6.714e-06,0
105.31,-3.5416e-05,0
105.31,-6.5461e-05,0
105.31,-8.04e-05,0
105.31,-7.6036e-05,0
105.31,-6.6972e-05,0
105.31,-6.0929e-05,0
105.31,-5.623e-05,0
105.31,-4.448e-05,0
105.31,-1.6953e-05,0
105.31,1.7288e-05,0
105.31,4.9516e-05,0
105.31,7.1e-05,0
105.31,6.8986e-05,0
105.31,4.8508e-05,0
105.31,4.7166e-05,0
105.31,7.8386e-05,0
105.32,0.00010625,0
105.32,0.00010675,0
105.32,9.6178e-05,0
105.32,9.1814e-05,0
105.32,8.9632e-05,0
105.32,8.4932e-05,0
105.32,5.4215e-05,0
105.32,6.714e-06,0
105.32,-6.714e-07,0
105.32,4.7333e-05,0
105.32,9.3156e-05,0
105.32,9.4499e-05,0
105.32,5.3208e-05,0
105.32,-5.8747e-06,0
105.32,-4.9348e-05,0
105.32,-5.774e-05,0
105.32,-3.0381e-05,0
105.32,2.9374e-05,0
105.32,0.00011196,0
105.32,0.00019185,0
105.33,0.00024892,0
105.33,0.00027225,0
105.33,0.00026268,0
105.33,0.00022609,0
105.33,0.000166,0
105.33,9.7185e-05,0
105.33,4.1123e-05,0
105.33,9.0639e-06,0
105.33,-4.6998e-06,0
105.33,-1.1246e-05,0
105.33,-1.4939e-05,0
105.33,-1.1917e-05,0
105.33,-5.539e-06,0
105.33,-3.5248e-06,0
105.33,-6.5461e-06,0
105.33,-1.3764e-05,0
105.33,-2.4338e-05,0
105.33,-3.3402e-05,0
105.33,-3.3906e-05,0
105.34,-2.1317e-05,0
105.34,-2.501e-05,0
105.34,-5.6565e-05,0
105.34,-9.7017e-05,0
105.34,-0.00013478,0
105.34,-0.00015325,0
105.34,-0.00014553,0
105.34,-0.00011766,0
105.34,-7.3686e-05,0
105.34,-2.501e-05,0
105.34,2.1149e-05,0
105.34,6.8986e-05,0
105.34,0.00012673,0
105.34,0.00020293,0
105.34,0.00028115,0
105.34,0.00030767,0
105.34,0.00026285,0
105.34,0.0001749,0
105.34,8.4092e-05,0
105.35,1.2085e-05,0
105.35,-3.743e-05,0
105.35,-7.4189e-05,0
105.35,-0.00010289,0
105.35,-0.00012706,0
105.35,-0.00015341,0
105.35,-0.00016533,0
105.35,-0.00015106,0
105.35,-0.00012505,0
105.35,-0.00010423,0
105.35,-8.896e-05,0
105.35,-6.6804e-05,0
105.35,-3.5248e-05,0
105.35,-5.2033e-06,0
105.35,1.0239e-05,0
105.35,1.1749e-05,0
105.35,1.0407e-05,0
105.35,1.4771e-05,0
105.35,2.7359e-05,0
105.36,4.1459e-05,0
105.36,4.7501e-05,0
105.36,4.3137e-05,0
105.36,3.4073e-05,0
105.36,2.5345e-05,0
105.36,1.8296e-05,0
105.36,1.0239e-05,0
105.36,8.3925e-07,0
105.36,-2.5177e-06,0
105.36,-8.2246e-06,0
105.36,-3.4745e-05,0
105.36,-7.5364e-05,0
105.36,-0.00010524,0
105.36,-0.00011263,0
105.36,-0.00010709,0
105.36,-9.5674e-05,0
105.36,-7.805e-05,0
105.36,-5.0019e-05,0
105.36,-7.0497e-06,0
105.36,4.2466e-05,0
105.37,8.5771e-05,0
105.37,0.00012706,0
105.37,0.00015962,0
105.37,0.00016818,0
105.37,0.00015392,0
105.37,0.00012723,0
105.37,9.3828e-05,0
105.37,6.6636e-05,0
105.37,6.7475e-05,0
105.37,9.6345e-05,0
105.37,0.00013059,0
105.37,0.00015291,0
105.37,0.00015962,0
105.37,0.00015006,0
105.37,0.00012975,0
105.37,0.00010507,0
105.37,7.805e-05,0
105.37,5.623e-05,0
105.37,3.0716e-05,0
105.38,-1.091e-05,0
105.38,-5.2033e-05,0
105.38,-6.3951e-05,0
105.38,-4.448e-05,0
105.38,-2.182e-05,0
105.38,-1.2757e-05,0
105.38,-1.1414e-05,0
105.38,-1.3764e-05,0
105.38,-1.2253e-05,0
105.38,-2.5177e-06,0
105.38,6.5461e-06,0
105.38,2.6688e-05,0
105.38,6.9657e-05,0
105.38,0.00011431,0
105.38,0.00012773,0
105.38,9.987e-05,0
105.38,4.7501e-05,0
105.38,-4.8676e-06,0
105.38,-4.0452e-05,0
105.39,-8.1071e-05,0
105.39,-0.00014049,0
105.39,-0.00018212,0
105.39,-0.00017641,0
105.39,-0.00013646,0
105.39,-9.3492e-05,0
105.39,-6.1936e-05,0
105.39,-3.592e-05,0
105.39,-8.2246e-06,0
105.39,1.8631e-05,0
105.39,3.8102e-05,0
105.39,5.2705e-05,0
105.39,7.7043e-05,0
105.39,0.00012136,0
105.39,0.00017423,0
105.39,0.00020763,0
105.39,0.00019638,0
105.39,0.00012723,0
105.39,3.0045e-05,0
105.39,-3.4073e-05,0
105.4,-4.3473e-05,0
105.4,-1.6953e-05,0
105.4,1.9303e-05,0
105.4,4.5487e-05,0
105.4,5.1194e-05,0
105.4,3.8773e-05,0
105.4,2.0478e-05,0
105.4,1.7624e-05,0
105.4,4.1459e-05,0
105.4,7.805e-05,0
105.4,9.6178e-05,0
105.4,8.1575e-05,0
105.4,4.8173e-05,0
105.4,1.4099e-05,0
105.4,-1.5946e-05,0
105.4,-4.6494e-05,0
105.4,-7.5364e-05,0
105.4,-0.00010188,0
105.4,-0.00012152,0
105.41,-0.00012874,0
105.41,-0.00012958,0
105.41,-0.00012471,0
105.41,-9.5338e-05,0
105.41,-3.743e-05,0
105.41,2.1317e-05,0
105.41,6.1601e-05,0
105.41,8.9799e-05,0
105.41,0.00011229,0
105.41,0.0001279,0
105.41,0.00013814,0
105.41,0.00014217,0
105.41,0.00013545,0
105.41,0.00011766,0
105.41,9.8192e-05,0
105.41,8.1743e-05,0
105.41,7.1e-05,0
105.41,6.4958e-05,0
105.41,5.7908e-05,0
105.42,4.683e-05,0
105.42,2.7192e-05,0
105.42,-5.2033e-06,0
105.42,-3.8605e-05,0
105.42,-5.1865e-05,0
105.42,-4.0452e-05,0
105.42,-2.2995e-05,0
105.42,-2.7527e-05,0
105.42,-5.4887e-05,0
105.42,-8.4092e-05,0
105.42,-0.00010105,0
105.42,-0.00010021,0
105.42,-8.426e-05,0
105.42,-6.0594e-05,0
105.42,-2.6352e-05,0
105.42,1.9135e-05,0
105.42,5.8915e-05,0
105.42,9.6513e-05,0
105.42,0.0001321,0
105.43,0.00015157,0
105.43,0.00014754,0
105.43,0.00011867,0
105.43,7.7043e-05,0
105.43,4.683e-05,0
105.43,2.8031e-05,0
105.43,1.0575e-05,0
105.43,-2.3499e-06,0
105.43,-8.0568e-06,0
105.43,-1.3428e-05,0
105.43,-3.122e-05,0
105.43,-6.1936e-05,0
105.43,-8.7785e-05,0
105.43,-0.00010021,0
105.43,-0.00010759,0
105.43,-0.00013327,0
105.43,-0.00016063,0
105.43,-0.00015157,0
105.43,-0.0001086,0
105.44,-6.1601e-05,0
105.44,-2.2995e-05,0
105.44,2.3331e-05,0
105.44,8.2078e-05,0
105.44,0.00013948,0
105.44,0.00018111,0
105.44,0.00020259,0
105.44,0.00021267,0
105.44,0.00021384,0
105.44,0.00020293,0
105.44,0.00018312,0
105.44,0.00015912,0
105.44,0.0001284,0
105.44,8.8121e-05,0
105.44,4.9516e-05,0
105.44,2.5177e-05,0
105.44,1.1078e-05,0
105.44,-5.0355e-07,0
105.44,-9.3996e-06,0
105.44,-6.3783e-06,0
105.45,1.5274e-05,0
105.45,3.8773e-05,0
105.45,4.7837e-05,0
105.45,4.4648e-05,0
105.45,3.508e-05,0
105.45,1.9303e-05,0
105.45,-2.182e-06,0
105.45,-2.7024e-05,0
105.45,-4.8341e-05,0
105.45,-5.8915e-05,0
105.45,-5.9586e-05,0
105.45,-5.1865e-05,0
105.45,-4.1123e-05,0
105.45,-3.2898e-05,0
105.45,-3.0549e-05,0
105.45,-3.1388e-05,0
105.45,-2.7024e-05,0
105.45,-1.4771e-05,0
105.45,2.182e-06,0
105.46,2.0813e-05,0
105.46,2.8534e-05,0
105.46,1.5778e-05,0
105.46,-5.539e-06,0
105.46,-9.5674e-06,0
105.46,8.5603e-06,0
105.46,2.6017e-05,0
105.46,2.0981e-05,0
105.46,-3.0213e-06,0
105.46,-2.6352e-05,0
105.46,-3.8437e-05,0
105.46,-4.5487e-05,0
105.46,-4.6662e-05,0
105.46,-4.0452e-05,0
105.46,-3.2731e-05,0
105.46,-3.743e-05,0
105.46,-5.388e-05,0
105.46,-5.4383e-05,0
105.46,-2.031e-05,0
105.47,3.4913e-05,0
105.47,8.1071e-05,0
105.47,8.9128e-05,0
105.47,6.0258e-05,0
105.47,1.7121e-05,0
105.47,-2.1485e-05,0
105.47,-3.6759e-05,0
105.47,-2.3163e-05,0
105.47,5.0355e-06,0
105.47,3.4073e-05,0
105.47,4.4984e-05,0
105.47,2.9709e-05,0
105.47,1.5778e-05,0
105.47,2.501e-05,0
105.47,5.0523e-05,0
105.47,7.0161e-05,0
105.47,6.0258e-05,0
105.47,1.2421e-05,0
105.47,-4.8844e-05,0
105.47,-0.00010524,0
105.48,-0.00014485,0
105.48,-0.00013696,0
105.48,-7.9393e-05,0
105.48,-7.3854e-06,0
105.48,4.8508e-05,0
105.48,9.4667e-05,0
105.48,0.00013478,0
105.48,0.00017104,0
105.48,0.0002172,0
105.48,0.00027108,0
105.48,0.00030733,0
105.48,0.00030448,0
105.48,0.00025765,0
105.48,0.00017708,0
105.48,0.00010037,0
105.48,5.4383e-05,0
105.48,3.6088e-05,0
105.48,3.2059e-05,0
105.48,3.7095e-05,0
105.49,4.9851e-05,0
105.49,6.0929e-05,0
105.49,5.7572e-05,0
105.49,3.6927e-05,0
105.49,7.5532e-06,0
105.49,-5.8747e-06,0
105.49,-1.5106e-06,0
105.49,-6.8818e-06,0
105.49,-3.9109e-05,0
105.49,-8.6107e-05,0
105.49,-0.00012656,0
105.49,-0.00012438,0
105.49,-8.4428e-05,0
105.49,-5.2873e-05,0
105.49,-4.3977e-05,0
105.49,-4.448e-05,0
105.49,-5.388e-05,0
105.49,-6.7643e-05,0
105.49,-7.4525e-05,0
105.5,-6.5126e-05,0
105.5,-6.8818e-06,0
105.5,0.00012471,0
105.5,0.00029155,0
105.5,0.00042046,0
105.5,0.00047082,0
105.5,0.00042953,0
105.5,0.0003164,0
105.5,0.00018682,0
105.5,9.0471e-05,0
105.5,3.3402e-05,0
105.5,-4.0284e-06,0
105.5,-2.9709e-05,0
105.5,-4.7837e-05,0
105.5,-6.8315e-05,0
105.5,-9.3156e-05,0
105.5,-0.00011699,0
105.5,-0.00013378,0
105.5,-0.00014284,0
105.51,-0.00014704,0
105.51,-0.00014888,0
105.51,-0.00014166,0
105.51,-0.00012387,0
105.51,-0.00010138,0
105.51,-8.0064e-05,0
105.51,-6.1601e-05,0
105.51,-4.6326e-05,0
105.51,-3.2898e-05,0
105.51,-2.182e-05,0
105.51,-1.3596e-05,0
105.51,-4.1962e-06,0
105.51,8.5603e-06,0
105.51,1.7624e-05,0
105.51,1.8296e-05,0
105.51,9.9031e-06,0
105.51,-2.5177e-06,0
105.51,-1.2421e-05,0
105.51,-1.8967e-05,0
105.52,-2.1653e-05,0
105.52,-2.3499e-05,0
105.52,-2.9877e-05,0
105.52,-4.3977e-05,0
105.52,-5.9922e-05,0
105.52,-6.5293e-05,0
105.52,-5.069e-05,0
105.52,-2.4842e-05,0
105.52,-5.8747e-06,0
105.52,3.8605e-06,0
105.52,1.0239e-05,0
105.52,1.1917e-05,0
105.52,2.5177e-06,0
105.52,-3.3906e-05,0
105.52,-8.3421e-05,0
105.52,-0.0001133,0
105.52,-0.00010759,0
105.52,-7.2343e-05,0
105.52,-2.501e-05,0
105.52,1.9471e-05,0
105.53,5.5055e-05,0
105.53,8.6107e-05,0
105.53,0.00011128,0
105.53,0.00013243,0
105.53,0.00015526,0
105.53,0.00017406,0
105.53,0.0001848,0
105.53,0.00019185,0
105.53,0.00019319,0
105.53,0.00017658,0
105.53,0.0001331,0
105.53,9.8527e-05,0
105.53,0.0001039,0
105.53,0.00013193,0
105.53,0.0001326,0
105.53,8.8457e-05,0
105.53,2.4674e-05,0
105.53,-4.3137e-05,0
105.53,-0.000118,0
105.54,-0.0001801,0
105.54,-0.00019286,0
105.54,-0.00013394,0
105.54,-3.1724e-05,0
105.54,4.3473e-05,0
105.54,5.304e-05,0
105.54,1.9303e-05,0
105.54,-5.8747e-06,0
105.54,5.539e-06,0
105.54,4.0116e-05,0
105.54,7.3686e-05,0
105.54,9.3828e-05,0
105.54,9.752e-05,0
105.54,8.6946e-05,0
105.54,8.1071e-05,0
105.54,8.5771e-05,0
105.54,8.4428e-05,0
105.54,7.7043e-05,0
105.54,6.5293e-05,0
105.55,3.2059e-05,0
105.55,-2.3499e-05,0
105.55,-7.6371e-05,0
105.55,-0.00010071,0
105.55,-9.4499e-05,0
105.55,-7.3014e-05,0
105.55,-5.0355e-05,0
105.55,-3.0045e-05,0
105.55,-8.896e-06,0
105.55,1.5778e-05,0
105.55,4.6159e-05,0
105.55,6.1601e-05,0
105.55,6.5629e-05,0
105.55,7.8386e-05,0
105.55,9.3492e-05,0
105.55,9.9199e-05,0
105.55,9.2653e-05,0
105.55,8.6107e-05,0
105.55,8.275e-05,0
105.55,7.0832e-05,0
105.56,5.0019e-05,0
105.56,2.9038e-05,0
105.56,1.4771e-05,0
105.56,3.357e-06,0
105.56,-1.6953e-05,0
105.56,-4.9851e-05,0
105.56,-8.3925e-05,0
105.56,-0.00010256,0
105.56,-0.00010289,0
105.56,-8.7953e-05,0
105.56,-4.7837e-05,0
105.56,2.9709e-05,0
105.56,9.987e-05,0
105.56,0.00011229,0
105.56,7.4189e-05,0
105.56,1.326e-05,0
105.56,-3.5752e-05,0
105.56,-6.1265e-05,0
105.56,-8.2414e-05,0
105.57,-9.9031e-05,0
105.57,-8.51e-05,0
105.57,-3.7598e-05,0
105.57,2.6352e-05,0
105.57,0.00010021,0
105.57,0.00018782,0
105.57,0.0002798,0
105.57,0.00037346,0
105.57,0.00041946,0
105.57,0.00034191,0
105.57,0.00013814,0
105.57,-7.2679e-05,0
105.57,-0.00018044,0
105.57,-0.00018463,0
105.57,-0.00015492,0
105.57,-0.00013613,0
105.57,-0.00012068,0
105.57,-0.00010222,0
105.57,-6.7475e-05,0
105.58,-4.1962e-06,0
105.58,7.4357e-05,0
105.58,0.00015425,0
105.58,0.0002031,0
105.58,0.00017809,0
105.58,9.7856e-05,0
105.58,1.7792e-05,0
105.58,-3.357e-05,0
105.58,-6.63e-05,0
105.58,-0.0001237,0
105.58,-0.0001942,0
105.58,-0.00022861,0
105.58,-0.00020998,0
105.58,-0.00014855,0
105.58,-6.5293e-05,0
105.58,1.8967e-05,0
105.58,8.9464e-05,0
105.58,0.00014015,0
105.58,0.00018312,0
105.59,0.00022055,0
105.59,0.00025093,0
105.59,0.00029256,0
105.59,0.00036205,0
105.59,0.00039864,0
105.59,0.00033922,0
105.59,0.00021434,0
105.59,8.5435e-05,0
105.59,-8.5603e-06,0
105.59,-6.9993e-05,0
105.59,-0.00011296,0
105.59,-0.00013327,0
105.59,-0.00013864,0
105.59,-0.0001603,0
105.59,-0.00021988,0
105.59,-0.00029038,0
105.59,-0.00028534,0
105.59,-0.00019437,0
105.59,-0.00010961,0
105.59,-0.00010071,0
105.6,-0.00015593,0
105.6,-0.00020629,0
105.6,-0.00019521,0
105.6,-0.00013143,0
105.6,-5.6565e-05,0
105.6,2.8702e-05,0
105.6,0.00012605,0
105.6,0.00020562,0
105.6,0.0002407,0
105.6,0.00022744,0
105.6,0.00018849,0
105.6,0.0001566,0
105.6,0.00014284,0
105.6,0.00014015,0
105.6,0.00012874,0
105.6,9.6345e-05,0
105.6,5.7404e-05,0
105.6,3.6423e-05,0
105.6,2.5345e-05,0
105.61,7.5532e-06,0
105.61,-1.4099e-05,0
105.61,-2.8702e-05,0
105.61,-3.3066e-05,0
105.61,-3.1052e-05,0
105.61,-2.6017e-05,0
105.61,-1.7792e-05,0
105.61,-1.2085e-05,0
105.61,-1.4603e-05,0
105.61,-2.1317e-05,0
105.61,-2.1988e-05,0
105.61,-1.4939e-05,0
105.61,-3.1891e-06,0
105.61,9.9031e-06,0
105.61,1.9638e-05,0
105.61,3.3402e-05,0
105.61,6.0929e-05,0
105.61,8.2918e-05,0
105.61,7.3686e-05,0
105.62,3.6759e-05,0
105.62,-7.8889e-06,0
105.62,-5.1026e-05,0
105.62,-8.8457e-05,0
105.62,-0.00011833,0
105.62,-0.0001331,0
105.62,-0.00012924,0
105.62,-0.00011196,0
105.62,-9.5171e-05,0
105.62,-8.8121e-05,0
105.62,-9.2317e-05,0
105.62,-0.00010004,0
105.62,-9.4499e-05,0
105.62,-7.0665e-05,0
105.62,-4.2466e-05,0
105.62,-1.8128e-05,0
105.62,1.091e-05,0
105.62,5.2873e-05,0
105.62,0.00011666,0
105.62,0.00016869,0
105.63,0.00018598,0
105.63,0.00020595,0
105.63,0.00023885,0
105.63,0.00025496,0
105.63,0.00023684,0
105.63,0.00019118,0
105.63,0.00013512,0
105.63,8.7449e-05,0
105.63,6.8315e-05,0
105.63,8.9464e-05,0
105.63,0.0001274,0
105.63,0.00013814,0
105.63,8.1071e-05,0
105.63,-2.7695e-05,0
105.63,-0.00011968,0
105.63,-0.0001603,0
105.63,-0.00016332,0
105.63,-0.00014401,0
105.63,-0.00011128,0
105.64,-8.04e-05,0
105.64,-5.8579e-05,0
105.64,-3.0716e-05,0
105.64,1.0575e-05,0
105.64,5.9922e-05,0
105.64,0.00013545,0
105.64,0.00027813,0
105.64,0.00042348,0
105.64,0.00045638,0
105.64,0.00035383,0
105.64,0.00020192,0
105.64,9.4499e-05,0
105.64,4.2466e-05,0
105.64,7.8889e-06,0
105.64,-2.8367e-05,0
105.64,-5.7908e-05,0
105.64,-7.6204e-05,0
105.64,-7.335e-05,0
105.64,-5.5726e-05,0
105.65,-4.7837e-05,0
105.65,-5.5894e-05,0
105.65,-5.623e-05,0
105.65,-4.0284e-05,0
105.65,-2.5345e-05,0
105.65,-2.2324e-05,0
105.65,-2.7024e-05,0
105.65,-2.8367e-05,0
105.65,-2.031e-05,0
105.65,-1.0407e-05,0
105.65,-1.2589e-05,0
105.65,-2.8031e-05,0
105.65,-4.0116e-05,0
105.65,-3.9612e-05,0
105.65,-3.5416e-05,0
105.65,-3.4409e-05,0
105.65,-2.9038e-05,0
105.65,-1.9135e-05,0
105.65,-1.3596e-05,0
105.66,-1.9638e-05,0
105.66,-2.5513e-05,0
105.66,-1.6281e-05,0
105.66,7.8889e-06,0
105.66,3.0716e-05,0
105.66,5.2537e-05,0
105.66,7.2175e-05,0
105.66,8.1071e-05,0
105.66,7.4357e-05,0
105.66,5.0019e-05,0
105.66,1.8799e-05,0
105.66,-2.0142e-06,0
105.66,-4.8676e-06,0
105.66,0,0
105.66,-7.0497e-06,0
105.66,-3.7766e-05,0
105.66,-7.6036e-05,0
105.66,-0.00010726,0
105.66,-0.00011984,0
105.67,-0.00012068,0
105.67,-0.00012035,0
105.67,-0.00011565,0
105.67,-9.7185e-05,0
105.67,-6.2776e-05,0
105.67,-2.4506e-05,0
105.67,-1.8463e-06,0
105.67,3.357e-06,0
105.67,1.091e-05,0
105.67,2.9877e-05,0
105.67,4.8173e-05,0
105.67,5.8915e-05,0
105.67,6.7475e-05,0
105.67,7.3686e-05,0
105.67,7.335e-05,0
105.67,6.8986e-05,0
105.67,7.1336e-05,0
105.67,7.7546e-05,0
105.67,7.9728e-05,0
105.67,9.2485e-05,0
105.68,0.00011028,0
105.68,0.00012471,0
105.68,0.00013277,0
105.68,0.00012941,0
105.68,0.00011044,0
105.68,7.8386e-05,0
105.68,4.8508e-05,0
105.68,4.0116e-05,0
105.68,3.7934e-05,0
105.68,1.5106e-06,0
105.68,-8.4428e-05,0
105.68,-0.00019353,0
105.68,-0.00026856,0
105.68,-0.00029273,0
105.68,-0.00026755,0
105.68,-0.00019806,0
105.68,-0.00010658,0
105.68,-2.0981e-05,0
105.68,5.6565e-05,0
105.69,0.00014217,0
105.69,0.00025127,0
105.69,0.00039193,0
105.69,0.0005299,0
105.69,0.00058999,0
105.69,0.00052856,0
105.69,0.00039092,0
105.69,0.00024926,0
105.69,0.00013545,0
105.69,5.2873e-05,0
105.69,3.0213e-06,0
105.69,-1.7121e-05,0
105.69,-2.2492e-05,0
105.69,-3.2395e-05,0
105.69,-6.4622e-05,0
105.69,-9.752e-05,0
105.69,-0.00011682,0
105.69,-0.00013797,0
105.69,-0.00015727,0
105.7,-0.00013596,0
105.7,-5.8579e-05,0
105.7,-8.896e-06,0
105.7,-6.3951e-05,0
105.7,-0.00018547,0
105.7,-0.00026587,0
105.7,-0.00025547,0
105.7,-0.00017842,0
105.7,-6.865e-05,0
105.7,6.5629e-05,0
105.7,0.00019655,0
105.7,0.0002798,0
105.7,0.00031522,0
105.7,0.00030599,0
105.7,0.00024472,0
105.7,0.00014922,0
105.7,5.9419e-05,0
105.7,-3.5248e-06,0
105.7,-3.978e-05,0
105.7,-5.4719e-05,0
105.71,-5.7908e-05,0
105.71,-6.1265e-05,0
105.71,-6.9154e-05,0
105.71,-7.7211e-05,0
105.71,-8.1407e-05,0
105.71,-8.2246e-05,0
105.71,-9.0303e-05,0
105.71,-0.00010759,0
105.71,-0.00011431,0
105.71,-0.00010054,0
105.71,-6.2608e-05,0
105.71,-1.561e-05,0
105.71,1.8631e-05,0
105.71,2.8367e-05,0
105.71,1.1582e-05,0
105.71,-2.4506e-05,0
105.71,-5.6733e-05,0
105.71,-5.8076e-05,0
105.71,-1.6449e-05,0
105.72,4.7837e-05,0
105.72,0.0001044,0
105.72,0.0001284,0
105.72,0.00011061,0
105.72,7.57e-05,0
105.72,5.7404e-05,0
105.72,5.9586e-05,0
105.72,6.8315e-05,0
105.72,8.9128e-05,0
105.72,0.00013344,0
105.72,0.00017121,0
105.72,0.00016265,0
105.72,0.00012236,0
105.72,8.7785e-05,0
105.72,6.4118e-05,0
105.72,5.0187e-05,0
105.72,4.6159e-05,0
105.72,3.508e-05,0
105.72,9.9031e-06,0
105.73,-1.5778e-05,0
105.73,-3.0716e-05,0
105.73,-3.0381e-05,0
105.73,-2.4674e-05,0
105.73,-3.2395e-05,0
105.73,-4.1291e-05,0
105.73,-2.9709e-05,0
105.73,2.5177e-06,0
105.73,2.6688e-05,0
105.73,2.1317e-05,0
105.73,-4.1962e-06,0
105.73,-2.887e-05,0
105.73,-3.9612e-05,0
105.73,-4.4816e-05,0
105.73,-4.6326e-05,0
105.73,-3.8437e-05,0
105.73,-1.8631e-05,0
105.73,7.5532e-06,0
105.73,2.8031e-05,0
105.74,3.3066e-05,0
105.74,2.5345e-05,0
105.74,2.1149e-05,0
105.74,3.743e-05,0
105.74,6.0761e-05,0
105.74,7.1839e-05,0
105.74,7.2343e-05,0
105.74,7.2007e-05,0
105.74,6.9657e-05,0
105.74,4.7166e-05,0
105.74,-9.9031e-06,0
105.74,-6.865e-05,0
105.74,-0.00010088,0
105.74,-0.00011917,0
105.74,-0.00013579,0
105.74,-0.00014586,0
105.74,-0.0001702,0
105.74,-0.0002229,0
105.74,-0.0002605,0
105.75,-0.00025194,0
105.75,-0.00020024,0
105.75,-0.00013176,0
105.75,-6.6804e-05,0
105.75,-7.2175e-06,0
105.75,5.153e-05,0
105.75,0.00010793,0
105.75,0.00014452,0
105.75,0.00012656,0
105.75,6.865e-05,0
105.75,1.9638e-05,0
105.75,-3.0213e-06,0
105.75,-1.5946e-05,0
105.75,-2.2828e-05,0
105.75,-9.5674e-06,0
105.75,2.8367e-05,0
105.75,8.1407e-05,0
105.75,0.00013394,0
105.75,0.00019202,0
105.75,0.00027242,0
105.76,0.0003691,0
105.76,0.00044027,0
105.76,0.00046007,0
105.76,0.0004359,0
105.76,0.00037145,0
105.76,0.00027477,0
105.76,0.00016953,0
105.76,8.1575e-05,0
105.76,2.3331e-05,0
105.76,-5.8747e-06,0
105.76,-1.5106e-05,0
105.76,-1.0071e-05,0
105.76,6.5461e-06,0
105.76,2.6688e-05,0
105.76,3.743e-05,0
105.76,4.1794e-05,0
105.76,6.865e-05,0
105.76,0.00011464,0
105.76,0.00013915,0
105.77,0.00012136,0
105.77,7.4861e-05,0
105.77,2.4338e-05,0
105.77,-1.6785e-05,0
105.77,-4.8173e-05,0
105.77,-7.3518e-05,0
105.77,-9.3324e-05,0
105.77,-0.00010591,0
105.77,-0.00011095,0
105.77,-0.00011498,0
105.77,-0.000118,0
105.77,-0.00011363,0
105.77,-0.00010457,0
105.77,-9.8863e-05,0
105.77,-9.6849e-05,0
105.77,-9.7353e-05,0
105.77,-9.6849e-05,0
105.77,-9.3156e-05,0
105.77,-7.8889e-05,0
105.78,-5.3544e-05,0
105.78,-4.6494e-05,0
105.78,-6.7643e-05,0
105.78,-9.8695e-05,0
105.78,-0.00011716,0
105.78,-0.00011498,0
105.78,-9.8695e-05,0
105.78,-7.7714e-05,0
105.78,-5.9754e-05,0
105.78,-4.1459e-05,0
105.78,-1.8967e-05,0
105.78,1.3764e-05,0
105.78,6.4118e-05,0
105.78,0.0001368,0
105.78,0.00021267,0
105.78,0.0002553,0
105.78,0.0002412,0
105.78,0.00017658,0
105.78,8.6442e-05,0
105.78,9.5674e-06,0
105.79,-2.6017e-05,0
105.79,-3.4745e-05,0
105.79,-4.3137e-05,0
105.79,-5.4047e-05,0
105.79,-5.4887e-05,0
105.79,-4.5151e-05,0
105.79,-3.8605e-05,0
105.79,-4.448e-05,0
105.79,-5.0187e-05,0
105.79,-5.069e-05,0
105.79,-4.6159e-05,0
105.79,-3.2731e-05,0
105.79,-5.2033e-06,0
105.79,3.8605e-05,0
105.79,8.7617e-05,0
105.79,0.00012908,0
105.79,0.00018984,0
105.79,0.00029122,0
105.79,0.00035752,0
105.8,0.00030599,0
105.8,0.00014989,0
105.8,-2.8199e-05,0
105.8,-0.00015425,0
105.8,-0.00021199,0
105.8,-0.00022844,0
105.8,-0.00023818,0
105.8,-0.00023969,0
105.8,-0.00022324,0
105.8,-0.00018682,0
105.8,-0.00015006,0
105.8,-0.00013663,0
105.8,-0.0001321,0
105.8,-9.752e-05,0
105.8,-3.1052e-05,0
105.8,3.1556e-05,0
105.8,4.6662e-05,0
105.8,3.5416e-05,0
105.8,4.8005e-05,0
105.81,9.8863e-05,0
105.81,0.0001791,0
105.81,0.00027913,0
105.81,0.00038991,0
105.81,0.00047518,0
105.81,0.00049129,0
105.81,0.00042818,0
105.81,0.0003164,0
105.81,0.0002125,0
105.81,0.0001519,0
105.81,0.00011867,0
105.81,7.8553e-05,0
105.81,2.3331e-05,0
105.81,-2.2324e-05,0
105.81,-3.5752e-05,0
105.81,-1.8631e-05,0
105.81,7.5532e-06,0
105.81,1.561e-05,0
105.81,-2.8534e-06,0
105.82,-3.3234e-05,0
105.82,-5.6733e-05,0
105.82,-7.0832e-05,0
105.82,-7.1504e-05,0
105.82,-3.9612e-05,0
105.82,3.4745e-05,0
105.82,0.00010323,0
105.82,0.00011632,0
105.82,7.0665e-05,0
105.82,2.5177e-06,0
105.82,-4.1291e-05,0
105.82,-4.3809e-05,0
105.82,-3.8773e-05,0
105.82,-5.8076e-05,0
105.82,-9.6345e-05,0
105.82,-0.00013931,0
105.82,-0.00017221,0
105.82,-0.00018547,0
105.82,-0.00017037,0
105.82,-0.00014452,0
105.83,-0.00013982,0
105.83,-0.0001514,0
105.83,-0.00014939,0
105.83,-0.00011615,0
105.83,-5.5894e-05,0
105.83,1.091e-05,0
105.83,6.5965e-05,0
105.83,0.00010558,0
105.83,0.00013042,0
105.83,0.0001462,0
105.83,0.00015811,0
105.83,0.00015744,0
105.83,0.00014553,0
105.83,0.00013478,0
105.83,0.00012471,0
105.83,0.00010558,0
105.83,7.5029e-05,0
105.83,3.4241e-05,0
105.83,-1.6617e-05,0
105.84,-6.6804e-05,0
105.84,-0.00010893,0
105.84,-0.00013462,0
105.84,-0.00014401,0
105.84,-0.00014385,0
105.84,-0.0001321,0
105.84,-9.5674e-05,0
105.84,-4.6494e-05,0
105.84,-6.714e-06,0
105.84,2.182e-05,0
105.84,4.7333e-05,0
105.84,0.00010105,0
105.84,0.0001843,0
105.84,0.00023348,0
105.84,0.00018917,0
105.84,8.7785e-05,0
105.84,4.1962e-06,0
105.84,-6.9322e-05,0
105.84,-0.00015056,0
105.85,-0.00021233,0
105.85,-0.00023012,0
105.85,-0.00020998,0
105.85,-0.00016315,0
105.85,-7.5868e-05,0
105.85,5.9586e-05,0
105.85,0.00020864,0
105.85,0.0003268,0
105.85,0.00039394,0
105.85,0.00040368,0
105.85,0.0003597,0
105.85,0.00027779,0
105.85,0.00019437,0
105.85,0.00013512,0
105.85,9.2485e-05,0
105.85,5.3544e-05,0
105.85,2.5681e-05,0
105.85,1.5106e-05,0
105.85,1.4771e-05,0
105.86,1.8631e-05,0
105.86,2.9877e-05,0
105.86,4.0955e-05,0
105.86,2.8031e-05,0
105.86,-1.091e-05,0
105.86,-6.0258e-05,0
105.86,-0.00012169,0
105.86,-0.00017557,0
105.86,-0.00022123,0
105.86,-0.00024405,0
105.86,-0.00022274,0
105.86,-0.00016281,0
105.86,-8.9464e-05,0
105.86,-1.4939e-05,0
105.86,4.7166e-05,0
105.86,8.6107e-05,0
105.86,0.00010541,0
105.86,0.00010524,0
105.86,9.3828e-05,0
105.86,7.6371e-05,0
105.87,4.4144e-05,0
105.87,1.3428e-06,0
105.87,-3.2395e-05,0
105.87,-4.4648e-05,0
105.87,-3.7766e-05,0
105.87,-3.1556e-05,0
105.87,-3.6088e-05,0
105.87,-2.8031e-05,0
105.87,1.6785e-07,0
105.87,3.0213e-05,0
105.87,4.683e-05,0
105.87,5.0523e-05,0
105.87,5.3544e-05,0
105.87,6.2776e-05,0
105.87,6.479e-05,0
105.87,5.0858e-05,0
105.87,2.6184e-05,0
105.87,5.2033e-06,0
105.87,-7.2175e-06,0
105.88,-1.9303e-05,0
105.88,-3.2563e-05,0
105.88,-3.9109e-05,0
105.88,-2.8367e-05,0
105.88,-7.2175e-06,0
105.88,8.3925e-06,0
105.88,5.2033e-06,0
105.88,-2.4506e-05,0
105.88,-6.1265e-05,0
105.88,-8.0064e-05,0
105.88,-8.0735e-05,0
105.88,-6.8818e-05,0
105.88,-3.6759e-05,0
105.88,9.0639e-06,0
105.88,4.683e-05,0
105.88,6.2776e-05,0
105.88,6.3279e-05,0
105.88,6.8147e-05,0
105.88,7.9728e-05,0
105.89,8.3085e-05,0
105.89,6.1601e-05,0
105.89,2.6352e-05,0
105.89,-6.2104e-06,0
105.89,-2.7024e-05,0
105.89,-3.7263e-05,0
105.89,-3.7095e-05,0
105.89,-2.9038e-05,0
105.89,-1.4099e-05,0
105.89,9.9031e-06,0
105.89,4.3641e-05,0
105.89,7.57e-05,0
105.89,9.7185e-05,0
105.89,0.00011028,0
105.89,0.0001185,0
105.89,0.000118,0
105.89,0.00010356,0
105.89,8.1743e-05,0
105.89,6.0426e-05,0
105.89,4.8173e-05,0
105.9,5.3544e-05,0
105.9,7.5029e-05,0
105.9,0.00010256,0
105.9,0.00012757,0
105.9,0.00014687,0
105.9,0.0001561,0
105.9,0.00015207,0
105.9,0.00013747,0
105.9,0.00012018,0
105.9,0.00010491,0
105.9,9.1981e-05,0
105.9,7.6204e-05,0
105.9,5.8915e-05,0
105.9,4.3809e-05,0
105.9,3.0716e-05,0
105.9,1.6953e-05,0
105.9,3.0213e-06,0
105.9,-1.0575e-05,0
105.9,-2.6352e-05,0
105.91,-3.9612e-05,0
105.91,-4.7166e-05,0
105.91,-4.9851e-05,0
105.91,-4.6494e-05,0
105.91,-3.743e-05,0
105.91,-3.4241e-05,0
105.91,-4.7837e-05,0
105.91,-6.1265e-05,0
105.91,-5.4551e-05,0
105.91,-2.9877e-05,0
105.91,-7.8889e-06,0
105.91,-7.3854e-06,0
105.91,-2.6184e-05,0
105.91,-4.5319e-05,0
105.91,-4.9012e-05,0
105.91,-2.8702e-05,0
105.91,1.5106e-05,0
105.91,7.3014e-05,0
105.91,0.00013915,0
105.92,0.00018111,0
105.92,0.00017977,0
105.92,0.00015476,0
105.92,0.00013008,0
105.92,0.00010658,0
105.92,7.7043e-05,0
105.92,4.5151e-05,0
105.92,2.0645e-05,0
105.92,8.5603e-06,0
105.92,-2.5177e-06,0
105.92,-3.0381e-05,0
105.92,-6.7979e-05,0
105.92,-0.00011028,0
105.92,-0.000166,0
105.92,-0.00021585,0
105.92,-0.00023348,0
105.92,-0.00021535,0
105.92,-0.00016584,0
105.92,-9.6513e-05,0
105.93,-3.5416e-05,0
105.93,1.9974e-05,0
105.93,9.8863e-05,0
105.93,0.00019319,0
105.93,0.00027041,0
105.93,0.0003221,0
105.93,0.00032747,0
105.93,0.00026235,0
105.93,0.00013613,0
105.93,6.714e-07,0
105.93,-9.7017e-05,0
105.93,-0.00015492,0
105.93,-0.00017876,0
105.93,-0.00016735,0
105.93,-0.00012824,0
105.93,-7.2007e-05,0
105.93,-1.8296e-05,0
105.93,2.0478e-05,0
105.93,5.2873e-05,0
105.94,9.7688e-05,0
105.94,0.00014754,0
105.94,0.00017842,0
105.94,0.0001749,0
105.94,0.00015123,0
105.94,0.00012807,0
105.94,0.0001091,0
105.94,8.4428e-05,0
105.94,5.6901e-05,0
105.94,3.4577e-05,0
105.94,1.6281e-05,0
105.94,-2.5177e-06,0
105.94,-2.8367e-05,0
105.94,-5.6901e-05,0
105.94,-7.4693e-05,0
105.94,-6.865e-05,0
105.94,-4.2466e-05,0
105.94,-1.8799e-05,0
105.94,-1.2757e-05,0
105.94,-2.1653e-05,0
105.95,-3.8437e-05,0
105.95,-5.5222e-05,0
105.95,-5.9251e-05,0
105.95,-4.3137e-05,0
105.95,-8.0568e-06,0
105.95,3.2059e-05,0
105.95,5.6901e-05,0
105.95,5.2873e-05,0
105.95,2.4002e-05,0
105.95,-5.2033e-06,0
105.95,-1.1246e-05,0
105.95,1.1749e-06,0
105.95,1.1917e-05,0
105.95,9.5674e-06,0
105.95,-2.182e-06,0
105.95,-1.4939e-05,0
105.95,-2.2324e-05,0
105.95,-2.2324e-05,0
105.95,-1.8296e-05,0
105.96,-1.3596e-05,0
105.96,-8.2246e-06,0
105.96,-3.5248e-06,0
105.96,-3.357e-07,0
105.96,2.182e-06,0
105.96,3.0213e-06,0
105.96,3.357e-06,0
105.96,6.5461e-06,0
105.96,1.2589e-05,0
105.96,1.8296e-05,0
105.96,2.1149e-05,0
105.96,1.6617e-05,0
105.96,-1.2924e-05,0
105.96,-5.9922e-05,0
105.96,-9.7688e-05,0
105.96,-0.00010541,0
105.96,-7.335e-05,0
105.96,-2.5513e-05,0
105.96,-2.8534e-06,0
105.97,-1.2589e-05,0
105.97,-3.827e-05,0
105.97,-6.0258e-05,0
105.97,-6.1433e-05,0
105.97,-1.0239e-05,0
105.97,0.00010105,0
105.97,0.00023314,0
105.97,0.00034258,0
105.97,0.00039394,0
105.97,0.00035802,0
105.97,0.00026067,0
105.97,0.00016231,0
105.97,9.0974e-05,0
105.97,4.448e-05,0
105.97,1.5946e-05,0
105.97,4.8676e-06,0
105.97,5.8747e-06,0
105.97,1.1414e-05,0
105.97,1.3764e-05,0
105.97,1.5778e-05,0
105.98,1.6617e-05,0
105.98,1.2757e-05,0
105.98,1.2589e-05,0
105.98,1.8631e-05,0
105.98,1.8631e-05,0
105.98,9.9031e-06,0
105.98,3.357e-07,0
105.98,-8.896e-06,0
105.98,-1.7624e-05,0
105.98,-2.3667e-05,0
105.98,-2.0981e-05,0
105.98,-1.091e-05,0
105.98,-1.6785e-06,0
105.98,2.3499e-06,0
105.98,1.6785e-07,0
105.98,-1.5946e-05,0
105.98,-5.2201e-05,0
105.98,-9.5171e-05,0
105.98,-0.00011884,0
105.99,-0.00012001,0
105.99,-0.0001185,0
105.99,-0.00013193,0
105.99,-0.00016567,0
105.99,-0.00018564,0
105.99,-0.00016399,0
105.99,-0.00011615,0
105.99,-6.5797e-05,0
105.99,-3.1388e-05,0
105.99,-2.5177e-05,0
105.99,-3.5416e-05,0
105.99,-4.7166e-05,0
105.99,-5.0187e-05,0
105.99,-2.9206e-05,0
105.99,1.5778e-05,0
105.99,7.1504e-05,0
105.99,0.00012303,0
105.99,0.00016197,0
105.99,0.0002083,0
106,0.00029693,0
106,0.00040452,0
106,0.00045705,0
106,0.00042382,0
106,0.00034728,0
106,0.00028132,0
106,0.00023113,0
106,0.00019185,0
106,0.00016483,0
106,0.00014401,0
106,0.00012035,0
106,8.5771e-05,0
106,2.8031e-05,0
106,-6.4286e-05,0
106,-0.00016449,0
106,-0.00022173,0
106,-0.00020511,0
106,-0.00014284,0
106,-7.6875e-05,0
106.01,-2.3835e-05,0
106.01,1.7288e-05,0
106.01,4.4816e-05,0
106.01,4.8173e-05,0
106.01,3.8605e-05,0
106.01,4.4144e-05,0
106.01,7.0329e-05,0
106.01,8.7617e-05,0
106.01,6.7811e-05,0
106.01,2.2324e-05,0
106.01,-1.9638e-05,0
106.01,-4.2466e-05,0
106.01,-4.5487e-05,0
106.01,-3.122e-05,0
106.01,-1.7792e-05,0
106.01,-1.9303e-05,0
106.01,-3.5752e-05,0
106.01,-5.7237e-05,0
106.01,-7.4693e-05,0
106.02,-8.04e-05,0
106.02,-7.7379e-05,0
106.02,-7.4357e-05,0
106.02,-7.4693e-05,0
106.02,-6.7811e-05,0
106.02,-5.0187e-05,0
106.02,-3.6088e-05,0
106.02,-3.7934e-05,0
106.02,-4.5823e-05,0
106.02,-5.2369e-05,0
106.02,-5.623e-05,0
106.02,-5.7572e-05,0
106.02,-6.7979e-05,0
106.02,-9.2988e-05,0
106.02,-0.00011833,0
106.02,-0.00013545,0
106.02,-0.00015778,0
106.02,-0.0001942,0
106.02,-0.00023113,0
106.02,-0.00024338,0
106.03,-0.00022039,0
106.03,-0.00017205,0
106.03,-0.00010759,0
106.03,-2.5177e-05,0
106.03,7.335e-05,0
106.03,0.00017675,0
106.03,0.00026973,0
106.03,0.00033318,0
106.03,0.00034728,0
106.03,0.0003221,0
106.03,0.00028786,0
106.03,0.0002548,0
106.03,0.00022139,0
106.03,0.00018379,0
106.03,0.0001509,0
106.03,0.00013881,0
106.03,0.00013848,0
106.03,0.00012689,0
106.03,0.0001044,0
106.04,8.7449e-05,0
106.04,8.3085e-05,0
106.04,8.896e-05,0
106.04,9.6178e-05,0
106.04,8.7785e-05,0
106.04,7.1336e-05,0
106.04,6.8986e-05,0
106.04,7.335e-05,0
106.04,6.9154e-05,0
106.04,4.5823e-05,0
106.04,1.0239e-05,0
106.04,-1.1917e-05,0
106.04,-5.539e-06,0
106.04,1.1246e-05,0
106.04,2.3499e-05,0
106.04,2.8031e-05,0
106.04,2.0478e-05,0
106.04,-6.5461e-06,0
106.04,-4.3809e-05,0
106.05,-6.6636e-05,0
106.05,-6.5965e-05,0
106.05,-6.1936e-05,0
106.05,-6.1936e-05,0
106.05,-5.8579e-05,0
106.05,-5.2201e-05,0
106.05,-4.5151e-05,0
106.05,-3.8437e-05,0
106.05,-3.2731e-05,0
106.05,-2.6688e-05,0
106.05,-2.0981e-05,0
106.05,-1.8967e-05,0
106.05,-1.8967e-05,0
106.05,-1.796e-05,0
106.05,-1.4267e-05,0
106.05,-8.5603e-06,0
106.05,-6.5461e-06,0
106.05,-1.1582e-05,0
106.05,-2.0981e-05,0
106.06,-3.1388e-05,0
106.06,-3.2898e-05,0
106.06,-2.0645e-05,0
106.06,-3.8605e-06,0
106.06,9.9031e-06,0
106.06,1.7121e-05,0
106.06,1.8967e-05,0
106.06,1.8967e-05,0
106.06,1.7288e-05,0
106.06,1.6281e-05,0
106.06,1.8296e-05,0
106.06,2.1653e-05,0
106.06,2.3331e-05,0
106.06,2.1317e-05,0
106.06,1.3931e-05,0
106.06,5.2033e-06,0
106.06,9.5674e-06,0
106.06,3.2395e-05,0
106.06,6.9322e-05,0
106.06,0.00011263,0
106.07,0.0001425,0
106.07,0.00013747,0
106.07,0.00010289,0
106.07,5.7572e-05,0
106.07,1.2589e-05,0
106.07,-3.5584e-05,0
106.07,-0.00010172,0
106.07,-0.0001702,0
106.07,-0.00020293,0
106.07,-0.0001937,0
106.07,-0.00017003,0
106.07,-0.00015258,0
106.07,-0.00013277,0
106.07,-9.8863e-05,0
106.07,-5.2537e-05,0
106.07,-3.5248e-06,0
106.07,3.6759e-05,0
106.07,7.2007e-05,0
106.07,0.00011061,0
106.08,0.0001472,0
106.08,0.00015677,0
106.08,0.00013411,0
106.08,0.00010541,0
106.08,7.0497e-05,0
106.08,2.4002e-05,0
106.08,-1.4771e-05,0
106.08,-3.7095e-05,0
106.08,-4.3305e-05,0
106.08,-3.1724e-05,0
106.08,-6.5461e-06,0
106.08,2.7024e-05,0
106.08,7.8386e-05,0
106.08,0.00015056,0
106.08,0.00022844,0
106.08,0.00028853,0
106.08,0.00031539,0
106.08,0.00031069,0
106.08,0.00028215,0
106.09,0.00024405,0
106.09,0.00021183,0
106.09,0.00019789,0
106.09,0.00020461,0
106.09,0.00020595,0
106.09,0.00017842,0
106.09,0.00012152,0
106.09,5.7404e-05,0
106.09,6.3783e-06,0
106.09,-2.9038e-05,0
106.09,-5.7237e-05,0
106.09,-8.04e-05,0
106.09,-9.6178e-05,0
106.09,-0.00010172,0
106.09,-0.00010222,0
106.09,-0.00011095,0
106.09,-0.00012522,0
106.09,-0.00012438,0
106.09,-0.00010625,0
106.09,-8.4764e-05,0
106.1,-6.9993e-05,0
106.1,-6.1601e-05,0
106.1,-5.4215e-05,0
106.1,-4.3641e-05,0
106.1,-2.7695e-05,0
106.1,-1.1917e-05,0
106.1,-4.5319e-06,0
106.1,-4.3641e-06,0
106.1,-7.7211e-06,0
106.1,-9.2317e-06,0
106.1,-8.2246e-06,0
106.1,-7.8889e-06,0
106.1,-6.8818e-06,0
106.1,-4.5319e-06,0
106.1,1.6785e-07,0
106.1,5.8747e-06,0
106.1,6.2104e-06,0
106.1,-1.1749e-06,0
106.1,-1.326e-05,0
106.11,-2.2324e-05,0
106.11,-2.1988e-05,0
106.11,-1.561e-05,0
106.11,-6.714e-06,0
106.11,1.5946e-05,0
106.11,5.0523e-05,0
106.11,6.8986e-05,0
106.11,5.1194e-05,0
106.11,1.1078e-05,0
106.11,-3.1556e-05,0
106.11,-6.5965e-05,0
106.11,-8.5603e-05,0
106.11,-9.0974e-05,0
106.11,-8.7449e-05,0
106.11,-7.4357e-05,0
106.11,-4.9516e-05,0
106.11,-2.7359e-05,0
106.11,-1.9638e-05,0
106.11,-6.5461e-06,0
106.12,2.2324e-05,0
106.12,5.3544e-05,0
106.12,7.57e-05,0
106.12,8.2078e-05,0
106.12,7.2343e-05,0
106.12,5.2033e-05,0
106.12,2.7863e-05,0
106.12,6.5461e-06,0
106.12,-5.539e-06,0
106.12,-8.2246e-06,0
106.12,-5.7069e-06,0
106.12,-2.5177e-06,0
106.12,1.1749e-06,0
106.12,9.5674e-06,0
106.12,2.5513e-05,0
106.12,4.5487e-05,0
106.12,6.8986e-05,0
106.12,8.8792e-05,0
106.12,9.5506e-05,0
106.13,8.7953e-05,0
106.13,6.6972e-05,0
106.13,3.5752e-05,0
106.13,4.8676e-06,0
106.13,-1.3596e-05,0
106.13,-1.6449e-05,0
106.13,-8.5603e-06,0
106.13,4.5319e-06,0
106.13,1.8128e-05,0
106.13,2.1653e-05,0
106.13,1.091e-05,0
106.13,3.357e-06,0
106.13,1.561e-05,0
106.13,4.8341e-05,0
106.13,8.896e-05,0
106.13,0.00011968,0
106.13,0.00012924,0
106.13,0.00012471,0
106.13,0.00011632,0
106.13,0.0001039,0
106.14,8.9967e-05,0
106.14,7.8553e-05,0
106.14,6.6804e-05,0
106.14,5.3544e-05,0
106.14,4.3809e-05,0
106.14,3.0716e-05,0
106.14,7.8889e-06,0
106.14,-2.266e-05,0
106.14,-5.8076e-05,0
106.14,-9.2821e-05,0
106.14,-0.00012303,0
106.14,-0.00014955,0
106.14,-0.00016785,0
106.14,-0.00016785,0
106.14,-0.00013915,0
106.14,-7.0329e-05,0
106.14,2.0813e-05,0
106.14,9.6513e-05,0
106.14,0.00014116,0
106.15,0.00015023,0
106.15,0.00013529,0
106.15,0.00013512,0
106.15,0.00017574,0
106.15,0.00023281,0
106.15,0.00026839,0
106.15,0.00025295,0
106.15,0.00018648,0
106.15,0.00010977,0
106.15,5.5558e-05,0
106.15,2.9709e-05,0
106.15,2.1317e-05,0
106.15,1.561e-05,0
106.15,1.0575e-05,0
106.15,8.7282e-06,0
106.15,3.5248e-06,0
106.15,-3.1891e-06,0
106.15,1.8463e-06,0
106.15,1.6785e-05,0
106.16,2.6688e-05,0
106.16,2.2492e-05,0
106.16,7.2175e-06,0
106.16,-1.0575e-05,0
106.16,-2.0645e-05,0
106.16,-2.5849e-05,0
106.16,-3.2395e-05,0
106.16,-4.2298e-05,0
106.16,-5.2033e-05,0
106.16,-5.2537e-05,0
106.16,-4.5151e-05,0
106.16,-3.7934e-05,0
106.16,-3.4745e-05,0
106.16,-3.1724e-05,0
106.16,-2.8031e-05,0
106.16,-2.4506e-05,0
106.16,-2.3667e-05,0
106.16,-2.4674e-05,0
106.16,-2.2995e-05,0
106.17,-1.7456e-05,0
106.17,-1.1582e-05,0
106.17,-7.7211e-06,0
106.17,-5.8747e-06,0
106.17,-5.2033e-06,0
106.17,-5.0355e-06,0
106.17,-4.8676e-06,0
106.17,-2.5177e-06,0
106.17,1.5106e-06,0
106.17,4.1962e-06,0
106.17,6.0426e-06,0
106.17,7.5532e-06,0
106.17,1.796e-05,0
106.17,5.5894e-05,0
106.17,0.00011028,0
106.17,0.00013982,0
106.17,0.00012035,0
106.17,6.3447e-05,0
106.17,-1.2253e-05,0
106.17,-9.0639e-05,0
106.18,-0.0001425,0
106.18,-0.00015291,0
106.18,-0.00013193,0
106.18,-0.00010071,0
106.18,-7.2343e-05,0
106.18,-4.9683e-05,0
106.18,-3.2395e-05,0
106.18,-1.1246e-05,0
106.18,2.031e-05,0
106.18,6.1936e-05,0
106.18,9.5674e-05,0
106.18,0.00011112,0
106.18,0.00011632,0
106.18,0.00011632,0
106.18,0.00010927,0
106.18,9.5506e-05,0
106.18,7.4357e-05,0
106.18,5.0858e-05,0
106.18,3.5248e-05,0
106.19,2.8031e-05,0
106.19,2.5849e-05,0
106.19,2.4338e-05,0
106.19,2.6017e-05,0
106.19,2.8031e-05,0
106.19,2.7695e-05,0
106.19,2.7359e-05,0
106.19,2.8031e-05,0
106.19,2.7863e-05,0
106.19,2.4674e-05,0
106.19,2.1653e-05,0
106.19,2.0813e-05,0
106.19,2.3667e-05,0
106.19,3.1052e-05,0
106.19,4.2466e-05,0
106.19,5.4887e-05,0
106.19,6.4958e-05,0
106.19,7.2007e-05,0
106.19,7.5029e-05,0
106.2,7.4693e-05,0
106.2,7.1504e-05,0
106.2,5.9922e-05,0
106.2,4.1962e-05,0
106.2,2.6352e-05,0
106.2,1.5778e-05,0
106.2,4.8676e-06,0
106.2,-2.4506e-05,0
106.2,-7.7882e-05,0
106.2,-0.00012857,0
106.2,-0.00014754,0
106.2,-0.00014116,0
106.2,-0.00013277,0
106.2,-0.0001284,0
106.2,-0.0001039,0
106.2,-4.7501e-05,0
106.2,1.5778e-05,0
106.2,4.5991e-05,0
106.2,3.8773e-05,0
106.2,3.3906e-05,0
106.21,5.304e-05,0
106.21,8.0903e-05,0
106.21,9.5506e-05,0
106.21,9.5506e-05,0
106.21,0.00010356,0
106.21,0.00013025,0
106.21,0.00014687,0
106.21,0.00013462,0
106.21,9.9031e-05,0
106.21,5.153e-05,0
106.21,1.0239e-05,0
106.21,-5.2033e-06,0
106.21,7.0497e-06,0
106.21,2.9709e-05,0
106.21,4.5487e-05,0
106.21,4.5151e-05,0
106.21,3.743e-05,0
106.21,3.8102e-05,0
106.21,4.8508e-05,0
106.22,6.1936e-05,0
106.22,7.5532e-05,0
106.22,7.9393e-05,0
106.22,5.7572e-05,0
106.22,1.796e-05,0
106.22,-1.4603e-05,0
106.22,-2.6856e-05,0
106.22,-2.8199e-05,0
106.22,-2.4506e-05,0
106.22,-1.2253e-05,0
106.22,3.1891e-06,0
106.22,8.7282e-06,0
106.22,1.1749e-05,0
106.22,2.0142e-05,0
106.22,3.2898e-05,0
106.22,4.7166e-05,0
106.22,6.2272e-05,0
106.22,7.2511e-05,0
106.22,7.6036e-05,0
106.23,7.7043e-05,0
106.23,7.7546e-05,0
106.23,7.9393e-05,0
106.23,8.8289e-05,0
106.23,9.6345e-05,0
106.23,9.0974e-05,0
106.23,6.7979e-05,0
106.23,2.7695e-05,0
106.23,-2.5345e-05,0
106.23,-7.2679e-05,0
106.23,-9.8192e-05,0
106.23,-0.00010373,0
106.23,-9.8863e-05,0
106.23,-9.4835e-05,0
106.23,-0.00010021,0
106.23,-0.000118,0
106.23,-0.0001425,0
106.23,-0.00015224,0
106.23,-0.00013445,0
106.24,-9.0303e-05,0
106.24,-3.7934e-05,0
106.24,-1.5106e-06,0
106.24,6.8818e-06,0
106.24,-7.0497e-06,0
106.24,-2.3331e-05,0
106.24,-2.501e-05,0
106.24,-4.6998e-06,0
106.24,3.1891e-05,0
106.24,7.5029e-05,0
106.24,0.00011514,0
106.24,0.00013747,0
106.24,0.000142,0
106.24,0.00013948,0
106.24,0.00014704,0
106.24,0.00016802,0
106.24,0.00018715,0
106.24,0.00019655,0
106.24,0.00019924,0
106.25,0.00019185,0
106.25,0.00016399,0
106.25,0.00011833,0
106.25,7.3014e-05,0
106.25,3.7766e-05,0
106.25,1.4939e-05,0
106.25,3.1891e-06,0
106.25,-3.357e-06,0
106.25,-1.091e-05,0
106.25,-1.9135e-05,0
106.25,-2.1653e-05,0
106.25,-1.7792e-05,0
106.25,-1.3931e-05,0
106.25,-1.4435e-05,0
106.25,-1.8799e-05,0
106.25,-2.2828e-05,0
106.25,-2.2324e-05,0
106.25,-1.9471e-05,0
106.25,-1.6953e-05,0
106.25,-1.4435e-05,0
106.26,-1.2253e-05,0
106.26,-1.2253e-05,0
106.26,-1.326e-05,0
106.26,-1.1078e-05,0
106.26,-8.5603e-06,0
106.26,-1.1917e-05,0
106.26,-2.1653e-05,0
106.26,-3.0716e-05,0
106.26,-3.1388e-05,0
106.26,-2.501e-05,0
106.26,-2.031e-05,0
106.26,-2.031e-05,0
106.26,-1.8631e-05,0
106.26,-6.3783e-06,0
106.26,7.0497e-06,0
106.26,1.6281e-05,0
106.26,3.1052e-05,0
106.26,4.0787e-05,0
106.26,2.6352e-05,0
106.27,-1.3092e-05,0
106.27,-6.1433e-05,0
106.27,-9.7856e-05,0
106.27,-0.00010289,0
106.27,-5.9419e-05,0
106.27,4.0787e-05,0
106.27,0.00015795,0
106.27,0.00023935,0
106.27,0.0002506,0
106.27,0.0001848,0
106.27,8.4764e-05,0
106.27,3.5248e-06,0
106.27,-4.4144e-05,0
106.27,-7.2175e-05,0
106.27,-9.1142e-05,0
106.27,-0.00010356,0
106.27,-0.00010574,0
106.27,-9.4835e-05,0
106.27,-8.1407e-05,0
106.28,-6.5965e-05,0
106.28,-4.062e-05,0
106.28,-7.7211e-06,0
106.28,2.266e-05,0
106.28,4.4144e-05,0
106.28,5.388e-05,0
106.28,5.153e-05,0
106.28,4.683e-05,0
106.28,4.7501e-05,0
106.28,5.0523e-05,0
106.28,5.0523e-05,0
106.28,4.7501e-05,0
106.28,4.4648e-05,0
106.28,4.4144e-05,0
106.28,4.448e-05,0
106.28,4.5487e-05,0
106.28,4.8173e-05,0
106.28,4.9851e-05,0
106.28,4.7166e-05,0
106.28,4.213e-05,0
106.29,3.8102e-05,0
106.29,3.7766e-05,0
106.29,3.978e-05,0
106.29,3.9445e-05,0
106.29,3.6088e-05,0
106.29,3.2059e-05,0
106.29,3.0045e-05,0
106.29,2.8534e-05,0
106.29,2.4842e-05,0
106.29,2.0478e-05,0
106.29,1.9974e-05,0
106.29,1.9303e-05,0
106.29,1.5778e-05,0
106.29,5.8747e-06,0
106.29,-1.7456e-05,0
106.29,-7.6875e-05,0
106.29,-0.00016181,0
106.29,-0.00021317,0
106.29,-0.00019907,0
106.3,-0.00014687,0
106.3,-9.2821e-05,0
106.3,-5.0523e-05,0
106.3,-2.3667e-05,0
106.3,-3.1891e-06,0
106.3,2.0981e-05,0
106.3,5.2705e-05,0
106.3,8.9632e-05,0
106.3,0.0001321,0
106.3,0.00018598,0
106.3,0.00024691,0
106.3,0.00028988,0
106.3,0.00029491,0
106.3,0.00026839,0
106.3,0.00022995,0
106.3,0.00019588,0
106.3,0.00017288,0
106.3,0.00015157,0
106.3,0.00012337,0
106.31,8.8457e-05,0
106.31,4.9516e-05,0
106.31,1.326e-05,0
106.31,-9.5674e-06,0
106.31,-1.5274e-05,0
106.31,-1.3764e-05,0
106.31,-1.2589e-05,0
106.31,-1.4267e-05,0
106.31,-1.7288e-05,0
106.31,-1.9303e-05,0
106.31,-2.031e-05,0
106.31,-2.1653e-05,0
106.31,-2.3667e-05,0
106.31,-2.5345e-05,0
106.31,-2.5345e-05,0
106.31,-2.3163e-05,0
106.31,-1.6281e-05,0
106.31,-7.8889e-06,0
106.31,-4.1962e-06,0
106.32,-5.7069e-06,0
106.32,-1.1917e-05,0
106.32,-1.8128e-05,0
106.32,-2.3163e-05,0
106.32,-2.7024e-05,0
106.32,-2.8534e-05,0
106.32,-3.4745e-05,0
106.32,-4.3473e-05,0
106.32,-4.683e-05,0
106.32,-4.3977e-05,0
106.32,-4.213e-05,0
106.32,-3.8102e-05,0
106.32,-2.9374e-05,0
106.32,-1.6785e-05,0
106.32,-5.0355e-06,0
106.32,2.3499e-06,0
106.32,5.8747e-06,0
106.32,8.896e-06,0
106.32,1.1749e-05,0
106.33,1.6617e-05,0
106.33,2.9374e-05,0
106.33,4.448e-05,0
106.33,4.7166e-05,0
106.33,4.4144e-05,0
106.33,4.0116e-05,0
106.33,3.4409e-05,0
106.33,2.8534e-05,0
106.33,2.5345e-05,0
106.33,2.501e-05,0
106.33,2.6688e-05,0
106.33,2.4338e-05,0
106.33,1.4267e-05,0
106.33,-1.6785e-07,0
106.33,-1.2421e-05,0
106.33,-1.8967e-05,0
106.33,-1.4939e-05,0
106.33,-3.0213e-06,0
106.33,6.0426e-06,0
106.33,1.0071e-06,0
106.34,-1.8296e-05,0
106.34,-4.0955e-05,0
106.34,-5.9251e-05,0
106.34,-6.5461e-05,0
106.34,-5.6565e-05,0
106.34,-3.5584e-05,0
106.34,-7.3854e-06,0
106.34,2.5345e-05,0
106.34,5.0858e-05,0
106.34,5.9586e-05,0
106.34,5.7908e-05,0
106.34,5.4383e-05,0
106.34,5.1362e-05,0
106.34,4.8173e-05,0
106.34,4.5487e-05,0
106.34,4.3473e-05,0
106.34,3.6423e-05,0
106.34,3.2395e-05,0
106.34,3.4745e-05,0
106.35,2.7695e-05,0
106.35,5.8747e-06,0
106.35,-1.6281e-05,0
106.35,-2.2995e-05,0
106.35,-1.091e-05,0
106.35,7.2175e-06,0
106.35,2.031e-05,0
106.35,3.2731e-05,0
106.35,5.153e-05,0
106.35,7.5364e-05,0
106.35,8.9799e-05,0
106.35,9.3492e-05,0
106.35,0.00010054,0
106.35,9.987e-05,0
106.35,7.3014e-05,0
106.35,3.8773e-05,0
106.35,2.5345e-05,0
106.35,2.4506e-05,0
106.35,-1.6785e-06,0
106.36,-6.3447e-05,0
106.36,-0.00013126,0
106.36,-0.00016533,0
106.36,-0.00015694,0
106.36,-0.00012169,0
106.36,-7.3014e-05,0
106.36,-1.091e-05,0
106.36,6.7643e-05,0
106.36,0.00015291,0
106.36,0.00022206,0
106.36,0.00026973,0
106.36,0.00030129,0
106.36,0.00032177,0
106.36,0.00031774,0
106.36,0.00026806,0
106.36,0.00017876,0
106.36,8.51e-05,0
106.36,1.9974e-05,0
106.36,-2.8534e-06,0
106.36,6.0426e-06,0
106.37,2.4506e-05,0
106.37,4.4144e-05,0
106.37,6.1936e-05,0
106.37,6.3447e-05,0
106.37,4.3305e-05,0
106.37,1.5274e-05,0
106.37,-6.2104e-06,0
106.37,-2.1988e-05,0
106.37,-4.1123e-05,0
106.37,-6.1936e-05,0
106.37,-7.3182e-05,0
106.37,-7.0497e-05,0
106.37,-6.2272e-05,0
106.37,-6.3279e-05,0
106.37,-7.2679e-05,0
106.37,-7.5868e-05,0
106.37,-7.1336e-05,0
106.37,-6.2272e-05,0
106.37,-4.8508e-05,0
106.38,-3.1388e-05,0
106.38,-1.6953e-05,0
106.38,-1.0407e-05,0
106.38,-1.091e-05,0
106.38,-1.6617e-05,0
106.38,-2.4674e-05,0
106.38,-3.0381e-05,0
106.38,-3.1724e-05,0
106.38,-2.9541e-05,0
106.38,-2.5681e-05,0
106.38,-2.4506e-05,0
106.38,-2.5345e-05,0
106.38,-2.6352e-05,0
106.38,-2.501e-05,0
106.38,-2.2995e-05,0
106.38,-1.8296e-05,0
106.38,-5.539e-06,0
106.38,1.4939e-05,0
106.38,3.743e-05,0
106.39,5.2201e-05,0
106.39,5.4887e-05,0
106.39,5.153e-05,0
106.39,4.7837e-05,0
106.39,4.213e-05,0
106.39,3.4577e-05,0
106.39,2.9709e-05,0
106.39,2.8031e-05,0
106.39,2.6352e-05,0
106.39,2.4002e-05,0
106.39,2.2995e-05,0
106.39,2.3667e-05,0
106.39,2.182e-05,0
106.39,1.6953e-05,0
106.39,8.5603e-06,0
106.39,-8.2246e-06,0
106.39,-2.8199e-05,0
106.39,-4.1794e-05,0
106.39,-4.3473e-05,0
106.4,-3.8941e-05,0
106.4,-3.0549e-05,0
106.4,-1.9638e-05,0
106.4,-6.5461e-06,0
106.4,8.3925e-06,0
106.4,2.501e-05,0
106.4,4.4648e-05,0
106.4,6.6636e-05,0
106.4,9.0471e-05,0
106.4,0.00011397,0
106.4,0.00013227,0
106.4,0.00013394,0
106.4,0.00011733,0
106.4,0.00010054,0
106.4,9.8527e-05,0
106.4,0.00010826,0
106.4,0.00011733,0
106.4,0.0001086,0
106.4,7.8721e-05,0
106.4,3.7095e-05,0
106.41,-5.8747e-06,0
106.41,-4.1123e-05,0
106.41,-5.5055e-05,0
106.41,-4.4648e-05,0
106.41,-2.3499e-05,0
106.41,-8.2246e-06,0
106.41,-2.6856e-06,0
106.41,0,0
106.41,1.1078e-05,0
106.41,2.7359e-05,0
106.41,4.3809e-05,0
106.41,5.4047e-05,0
106.41,5.1865e-05,0
106.41,3.6759e-05,0
106.41,1.1246e-05,0
106.41,-1.3596e-05,0
106.41,-2.6017e-05,0
106.41,-3.3066e-05,0
106.41,-3.3738e-05,0
106.42,-1.4435e-05,0
106.42,2.8534e-05,0
106.42,6.7475e-05,0
106.42,7.9896e-05,0
106.42,6.2608e-05,0
106.42,2.5345e-05,0
106.42,-6.2104e-06,0
106.42,-1.7624e-05,0
106.42,-1.9638e-05,0
106.42,-2.6352e-05,0
106.42,-4.6159e-05,0
106.42,-8.191e-05,0
106.42,-0.00012723,0
106.42,-0.000165,0
106.42,-0.00018094,0
106.42,-0.00016399,0
106.42,-0.00011733,0
106.42,-5.8579e-05,0
106.42,-5.2033e-06,0
106.43,2.5345e-05,0
106.43,3.3402e-05,0
106.43,3.5584e-05,0
106.43,5.2033e-05,0
106.43,9.2653e-05,0
106.43,0.00014083,0
106.43,0.00017372,0
106.43,0.0001791,0
106.43,0.00015795,0
106.43,0.0001284,0
106.43,9.2485e-05,0
106.43,5.6901e-05,0
106.43,4.6494e-05,0
106.43,6.6972e-05,0
106.43,9.3828e-05,0
106.43,0.00010356,0
106.43,9.1142e-05,0
106.43,6.9322e-05,0
106.43,4.7166e-05,0
106.44,2.2324e-05,0
106.44,2.5177e-06,0
106.44,4.6998e-06,0
106.44,3.0381e-05,0
106.44,5.8412e-05,0
106.44,6.4958e-05,0
106.44,4.7501e-05,0
106.44,1.8631e-05,0
106.44,-4.8676e-06,0
106.44,-1.2757e-05,0
106.44,-4.5319e-06,0
106.44,1.0575e-05,0
106.44,2.6017e-05,0
106.44,3.6759e-05,0
106.44,3.8773e-05,0
106.44,3.1556e-05,0
106.44,1.8128e-05,0
106.44,2.5177e-06,0
106.44,-7.0497e-06,0
106.44,-8.5603e-06,0
106.45,-4.8676e-06,0
106.45,-5.0355e-07,0
106.45,4.1962e-06,0
106.45,9.2317e-06,0
106.45,1.5946e-05,0
106.45,2.7527e-05,0
106.45,4.213e-05,0
106.45,4.8173e-05,0
106.45,2.2324e-05,0
106.45,-2.9709e-05,0
106.45,-5.8579e-05,0
106.45,-5.6397e-05,0
106.45,-5.9754e-05,0
106.45,-9.9199e-05,0
106.45,-0.00015895,0
106.45,-0.00020226,0
106.45,-0.00019521,0
106.45,-0.00014553,0
106.45,-8.7617e-05,0
106.46,-3.7095e-05,0
106.46,1.2757e-05,0
106.46,7.6707e-05,0
106.46,0.00014553,0
106.46,0.00020562,0
106.46,0.00025429,0
106.46,0.00029189,0
106.46,0.00031724,0
106.46,0.00031337,0
106.46,0.00026671,0
106.46,0.00019236,0
106.46,0.0001232,0
106.46,7.3686e-05,0
106.46,4.3473e-05,0
106.46,1.9303e-05,0
106.46,-2.182e-06,0
106.46,-1.4267e-05,0
106.46,-1.9303e-05,0
106.46,-3.0045e-05,0
106.47,-6.3279e-05,0
106.47,-0.00011145,0
106.47,-0.00014754,0
106.47,-0.00016265,0
106.47,-0.00016936,0
106.47,-0.0001561,0
106.47,-0.00010423,0
106.47,-5.1362e-05,0
106.47,-3.6255e-05,0
106.47,-5.1194e-05,0
106.47,-6.9154e-05,0
106.47,-6.2943e-05,0
106.47,-2.2492e-05,0
106.47,4.1459e-05,0
106.47,0.00010524,0
106.47,0.00014653,0
106.47,0.00015694,0
106.47,0.00015224,0
106.47,0.00014519,0
106.47,0.00012874,0
106.48,0.00011095,0
106.48,0.00010188,0
106.48,8.9799e-05,0
106.48,6.5629e-05,0
106.48,3.6088e-05,0
106.48,1.7288e-05,0
106.48,2.0981e-05,0
106.48,3.7766e-05,0
106.48,5.7404e-05,0
106.48,7.3854e-05,0
106.48,7.7546e-05,0
106.48,6.5629e-05,0
106.48,4.683e-05,0
106.48,2.5345e-05,0
106.48,-2.182e-06,0
106.48,-3.2898e-05,0
106.48,-5.7572e-05,0
106.48,-6.9657e-05,0
106.48,-6.63e-05,0
106.49,-4.8173e-05,0
106.49,-2.1653e-05,0
106.49,2.5177e-06,0
106.49,1.796e-05,0
106.49,2.1149e-05,0
106.49,8.5603e-06,0
106.49,-9.2317e-06,0
106.49,-1.1917e-05,0
106.49,-4.1962e-06,0
106.49,5.2033e-06,0
106.49,1.9135e-05,0
106.49,4.2634e-05,0
106.49,4.9516e-05,0
106.49,-8.0568e-06,0
106.49,-0.00010726,0
106.49,-0.00018547,0
106.49,-0.0002036,0
106.49,-0.00016567,0
106.49,-0.00011565,0
106.5,-9.6513e-05,0
106.5,-0.00012186,0
106.5,-0.000213,0
106.5,-0.00036793,0
106.5,-0.00048542,0
106.5,-0.00046662,0
106.5,-0.00029776,0
106.5,-5.6062e-05,0
106.5,0.00015879,0
106.5,0.00028837,0
106.5,0.00032277,0
106.5,0.00030297,0
106.5,0.0002892,0
106.5,0.00031942,0
106.5,0.00038924,0
106.5,0.00047317,0
106.5,0.00055105,0
106.5,0.00059268,0
106.5,0.00055827,0
106.51,0.00045907,0
106.51,0.00033318,0
106.51,0.00020612,0
106.51,8.7617e-05,0
106.51,-2.0478e-05,0
106.51,-0.00010893,0
106.51,-0.00017003,0
106.51,-0.00020259,0
106.51,-0.00020914,0
106.51,-0.00019823,0
106.51,-0.00017171,0
106.51,-0.00012522,0
106.51,-6.7643e-05,0
106.51,-1.7624e-05,0
106.51,2.031e-05,0
106.51,5.4887e-05,0
106.51,7.57e-05,0
106.51,6.6636e-05,0
106.51,3.743e-05,0
106.52,2.6688e-05,0
106.52,5.304e-05,0
106.52,9.987e-05,0
106.52,0.00013008,0
106.52,0.00012052,0
106.52,7.4357e-05,0
106.52,1.2924e-05,0
106.52,-3.7263e-05,0
106.52,-6.1433e-05,0
106.52,-6.9322e-05,0
106.52,-7.7043e-05,0
106.52,-0.00010021,0
106.52,-0.00015392,0
106.52,-0.00023717,0
106.52,-0.00029609,0
106.52,-0.00029609,0
106.52,-0.00024791,0
106.52,-0.00017322,0
106.52,-9.1646e-05,0
106.52,-1.3092e-05,0
106.53,4.9516e-05,0
106.53,7.1e-05,0
106.53,4.1459e-05,0
106.53,2.2995e-05,0
106.53,6.9993e-05,0
106.53,0.00015912,0
106.53,0.00023415,0
106.53,0.00027175,0
106.53,0.00026973,0
106.53,0.00023079,0
106.53,0.00017137,0
106.53,0.00011632,0
106.53,7.6371e-05,0
106.53,4.5487e-05,0
106.53,2.4674e-05,0
106.53,1.7456e-05,0
106.53,2.1653e-05,0
106.53,3.0716e-05,0
106.53,3.4409e-05,0
106.54,2.5345e-05,0
106.54,-1.1749e-06,0
106.54,-2.7024e-05,0
106.54,1.326e-05,0
106.54,8.8457e-05,0
106.54,9.8192e-05,0
106.54,2.3835e-05,0
106.54,-8.1239e-05,0
106.54,-0.00016399,0
106.54,-0.0001984,0
106.54,-0.00018447,0
106.54,-0.0001519,0
106.54,-0.00012203,0
106.54,-9.3156e-05,0
106.54,-7.5364e-05,0
106.54,-8.3253e-05,0
106.54,-9.1478e-05,0
106.54,-8.8792e-05,0
106.54,-8.1407e-05,0
106.55,-5.5055e-05,0
106.55,-1.2924e-05,0
106.55,1.4435e-05,0
106.55,1.0071e-05,0
106.55,-1.8463e-06,0
106.55,4.6998e-06,0
106.55,2.1988e-05,0
106.55,4.2466e-05,0
106.55,7.335e-05,0
106.55,0.00010507,0
106.55,0.00011481,0
106.55,9.1142e-05,0
106.55,4.9851e-05,0
106.55,6.8818e-06,0
106.55,-1.0407e-05,0
106.55,2.1988e-05,0
106.55,8.4428e-05,0
106.55,0.0001284,0
106.55,0.00012438,0
106.56,8.275e-05,0
106.56,3.1891e-05,0
106.56,-2.501e-05,0
106.56,-7.8386e-05,0
106.56,-0.00010155,0
106.56,-8.8121e-05,0
106.56,-4.448e-05,0
106.56,2.7359e-05,0
106.56,0.00011766,0
106.56,0.00019521,0
106.56,0.00023952,0
106.56,0.00025228,0
106.56,0.00024288,0
106.56,0.00021854,0
106.56,0.00018447,0
106.56,0.00014704,0
106.56,0.00011447,0
106.56,9.2485e-05,0
106.56,5.6062e-05,0
106.56,-2.4002e-05,0
106.57,-0.00013092,0
106.57,-0.00022828,0
106.57,-0.00027276,0
106.57,-0.00026134,0
106.57,-0.00022979,0
106.57,-0.00018799,0
106.57,-0.00012908,0
106.57,-6.3951e-05,0
106.57,-2.0981e-05,0
106.57,6.714e-07,0
106.57,1.1749e-05,0
106.57,1.1078e-05,0
106.57,2.4674e-05,0
106.57,4.9348e-05,0
106.57,6.949e-05,0
106.57,0.00012689,0
106.57,0.00030028,0
106.57,0.00050741,0
106.57,0.00056582,0
106.58,0.0004537,0
106.58,0.00029776,0
106.58,0.00019185,0
106.58,0.0001415,0
106.58,9.4835e-05,0
106.58,2.9374e-05,0
106.58,-1.9471e-05,0
106.58,-3.508e-05,0
106.58,-4.0284e-05,0
106.58,-5.7572e-05,0
106.58,-8.426e-05,0
106.58,-8.0064e-05,0
106.58,-4.0452e-05,0
106.58,-1.0407e-05,0
106.58,-9.2317e-06,0
106.58,-2.266e-05,0
106.58,-3.7095e-05,0
106.58,-5.3208e-05,0
106.58,-6.865e-05,0
106.59,-2.7695e-05,0
106.59,7.1e-05,0
106.59,0.00012203,0
106.59,6.2104e-05,0
106.59,-6.7475e-05,0
106.59,-0.0001744,0
106.59,-0.0002177,0
106.59,-0.00022173,0
106.59,-0.00020713,0
106.59,-0.00017305,0
106.59,-0.0001227,0
106.59,-7.2679e-05,0
106.59,-2.9877e-05,0
106.59,2.2492e-05,0
106.59,6.8986e-05,0
106.59,7.9057e-05,0
106.59,5.7404e-05,0
106.59,3.2059e-05,0
106.59,1.5442e-05,0
106.59,-1.1749e-05,0
106.6,-5.9251e-05,0
106.6,-8.2078e-05,0
106.6,-5.4551e-05,0
106.6,-8.3925e-07,0
106.6,3.2731e-05,0
106.6,1.2253e-05,0
106.6,-4.3641e-05,0
106.6,-7.1672e-05,0
106.6,-5.1865e-05,0
106.6,-2.9374e-05,0
106.6,-2.2156e-05,0
106.6,-2.5177e-06,0
106.6,1.9135e-05,0
106.6,-5.539e-06,0
106.6,-6.7475e-05,0
106.6,-8.6107e-05,0
106.6,-8.896e-06,0
106.6,0.00014351,0
106.6,0.00028048,0
106.61,0.00031136,0
106.61,0.00024271,0
106.61,0.00014015,0
106.61,4.3641e-05,0
106.61,-3.9612e-05,0
106.61,-9.8192e-05,0
106.61,-0.00010423,0
106.61,-5.0858e-05,0
106.61,3.4409e-05,0
106.61,0.0001039,0
106.61,0.00012673,0
106.61,0.00011162,0
106.61,8.8457e-05,0
106.61,7.1672e-05,0
106.61,6.8986e-05,0
106.61,9.3492e-05,0
106.61,0.0001185,0
106.61,0.0001274,0
106.61,0.00013982,0
106.62,0.0001556,0
106.62,0.00016281,0
106.62,0.00014653,0
106.62,0.000118,0
106.62,0.00012337,0
106.62,0.00017792,0
106.62,0.00022509,0
106.62,0.00021401,0
106.62,0.00015157,0
106.62,7.7043e-05,0
106.62,7.8889e-06,0
106.62,-8.04e-05,0
106.62,-0.00019622,0
106.62,-0.00029088,0
106.62,-0.00033201,0
106.62,-0.00032647,0
106.62,-0.00029776,0
106.62,-0.00026151,0
106.62,-0.00020226,0
106.63,-0.00012773,0
106.63,-7.57e-05,0
106.63,-4.7166e-05,0
106.63,-7.7211e-06,0
106.63,6.63e-05,0
106.63,0.00018312,0
106.63,0.00026873,0
106.63,0.0002506,0
106.63,0.00015929,0
106.63,7.2007e-05,0
106.63,1.6281e-05,0
106.63,-1.1582e-05,0
106.63,-2.2828e-05,0
106.63,-2.1653e-05,0
106.63,2.182e-06,0
106.63,2.9374e-05,0
106.63,2.8702e-05,0
106.63,-1.8463e-06,0
106.63,-3.4073e-05,0
106.63,-5.153e-05,0
106.64,-5.7908e-05,0
106.64,-5.7572e-05,0
106.64,-5.4551e-05,0
106.64,-4.9012e-05,0
106.64,-4.4816e-05,0
106.64,-4.5823e-05,0
106.64,-4.5151e-05,0
106.64,-3.9109e-05,0
106.64,-2.4002e-05,0
106.64,7.8889e-06,0
106.64,2.7192e-05,0
106.64,-7.2175e-06,0
106.64,-5.4215e-05,0
106.64,-5.6062e-05,0
106.64,-1.1414e-05,0
106.64,5.9922e-05,0
106.64,0.00013008,0
106.64,0.0001744,0
106.64,0.00018245,0
106.65,0.00015543,0
106.65,0.00013512,0
106.65,0.00014553,0
106.65,0.00012639,0
106.65,4.3977e-05,0
106.65,-4.683e-05,0
106.65,-9.836e-05,0
106.65,-0.00012035,0
106.65,-0.00013881,0
106.65,-0.00016197,0
106.65,-0.0001613,0
106.65,-0.00012001,0
106.65,-4.9851e-05,0
106.65,4.8173e-05,0
106.65,0.00015761,0
106.65,0.00023281,0
106.65,0.00026336,0
106.65,0.00024791,0
106.65,0.00019387,0
106.66,0.00013411,0
106.66,8.9296e-05,0
106.66,6.7308e-05,0
106.66,5.3544e-05,0
106.66,3.4241e-05,0
106.66,1.7288e-05,0
106.66,-3.0213e-06,0
106.66,-3.7095e-05,0
106.66,-7.4693e-05,0
106.66,-9.2485e-05,0
106.66,-8.4932e-05,0
106.66,-6.0929e-05,0
106.66,-2.8031e-05,0
106.66,1.1246e-05,0
106.66,5.4887e-05,0
106.66,9.8863e-05,0
106.66,0.00015258,0
106.66,0.00022744,0
106.66,0.0002986,0
106.67,0.00030364,0
106.67,0.00023851,0
106.67,0.0001425,0
106.67,2.6184e-05,0
106.67,-8.6946e-05,0
106.67,-0.00014888,0
106.67,-0.00014788,0
106.67,-0.00012689,0
106.67,-0.00012941,0
106.67,-0.00015123,0
106.67,-0.00015593,0
106.67,-0.00013445,0
106.67,-0.00014804,0
106.67,-0.00023482,0
106.67,-0.00030683,0
106.67,-0.00025362,0
106.67,-3.7766e-05,0
106.67,0.00017238,0
106.67,0.00024019,0
106.67,0.00019319,0
106.68,8.7785e-05,0
106.68,-2.2828e-05,0
106.68,-7.57e-05,0
106.68,-4.2634e-05,0
106.68,3.122e-05,0
106.68,9.7688e-05,0
106.68,0.00014334,0
106.68,0.00018077,0
106.68,0.00022811,0
106.68,0.00025933,0
106.68,0.00026168,0
106.68,0.00025832,0
106.68,0.00026101,0
106.68,0.00025429,0
106.68,0.00022408,0
106.68,0.00017708,0
106.68,0.00013613,0
106.68,0.00010121,0
106.68,6.0258e-05,0
106.69,2.501e-05,0
106.69,5.8747e-06,0
106.69,-9.3996e-06,0
106.69,-3.6591e-05,0
106.69,-6.8986e-05,0
106.69,-9.3492e-05,0
106.69,-9.9535e-05,0
106.69,-9.6849e-05,0
106.69,-0.00010407,0
106.69,-0.00011733,0
106.69,-0.00011061,0
106.69,-5.2033e-06,0
106.69,0.00019504,0
106.69,0.00033217,0
106.69,0.0002835,0
106.69,9.6513e-05,0
106.69,-9.0471e-05,0
106.69,-0.0002031,0
106.69,-0.0002412,0
106.7,-0.00021468,0
106.7,-0.00014804,0
106.7,-7.3014e-05,0
106.7,-1.8296e-05,0
106.7,1.0575e-05,0
106.7,6.2104e-06,0
106.7,-3.7095e-05,0
106.7,-7.4022e-05,0
106.7,-0.00010054,0
106.7,-0.00015627,0
106.7,-0.00022844,0
106.7,-0.00029206,0
106.7,-0.00032428,0
106.7,-0.00027074,0
106.7,-0.00016349,0
106.7,-8.0735e-05,0
106.7,-4.3137e-05,0
106.7,-3.7934e-05,0
106.7,-4.5823e-05,0
106.7,-3.743e-05,0
106.71,5.0355e-06,0
106.71,7.0329e-05,0
106.71,0.00013176,0
106.71,0.00017272,0
106.71,0.00017641,0
106.71,0.00014284,0
106.71,0.00012052,0
106.71,0.00012924,0
106.71,0.00013948,0
106.71,0.00014217,0
106.71,0.00014754,0
106.71,0.00015106,0
106.71,0.00013613,0
106.71,9.9199e-05,0
106.71,5.4551e-05,0
106.71,1.8631e-05,0
106.71,-2.182e-06,0
106.71,-1.1078e-05,0
106.71,-1.6449e-05,0
106.72,-3.2395e-05,0
106.72,-5.3208e-05,0
106.72,-4.5823e-05,0
106.72,-6.0426e-06,0
106.72,2.9374e-05,0
106.72,4.062e-05,0
106.72,3.7095e-05,0
106.72,3.6088e-05,0
106.72,4.918e-05,0
106.72,7.6707e-05,0
106.72,0.00011749,0
106.72,0.00015962,0
106.72,0.00017943,0
106.72,0.00016852,0
106.72,0.00014318,0
106.72,0.00012303,0
106.72,0.00010776,0
106.72,9.4331e-05,0
106.72,7.2343e-05,0
106.73,3.5752e-05,0
106.73,6.2104e-06,0
106.73,5.9251e-05,0
106.73,0.00014452,0
106.73,0.0001425,0
106.73,8.9799e-05,0
106.73,6.2776e-05,0
106.73,2.5345e-05,0
106.73,-8.1743e-05,0
106.73,-0.00021099,0
106.73,-0.00027897,0
106.73,-0.00026403,0
106.73,-0.00020226,0
106.73,-0.00014922,0
106.73,-0.00012824,0
106.73,-0.00014888,0
106.73,-0.00022542,0
106.73,-0.0002892,0
106.73,-0.00023969,0
106.74,-9.3828e-05,0
106.74,1.6281e-05,0
106.74,2.0813e-05,0
106.74,-1.796e-05,0
106.74,-2.2995e-05,0
106.74,-2.7359e-05,0
106.74,-5.9586e-05,0
106.74,-6.7979e-05,0
106.74,-2.0645e-05,0
106.74,6.4286e-05,0
106.74,0.0001462,0
106.74,0.00020562,0
106.74,0.00027628,0
106.74,0.0003879,0
106.74,0.00051916,0
106.74,0.00059704,0
106.74,0.00057388,0
106.74,0.0004871,0
106.74,0.00041308,0
106.75,0.00034006,0
106.75,0.00023482,0
106.75,0.00010726,0
106.75,-9.2317e-06,0
106.75,-9.5003e-05,0
106.75,-0.00015358,0
106.75,-0.00017658,0
106.75,-0.00016533,0
106.75,-0.00015979,0
106.75,-0.00017691,0
106.75,-0.00017943,0
106.75,-0.00014636,0
106.75,-9.6178e-05,0
106.75,-6.5293e-05,0
106.75,-8.1743e-05,0
106.75,-0.00012555,0
106.75,-0.00015644,0
106.75,-0.0001848,0
106.75,-0.00022576,0
106.75,-0.00026067,0
106.76,-0.0002506,0
106.76,-0.00014032,0
106.76,7.2847e-05,0
106.76,0.00029659,0
106.76,0.00043154,0
106.76,0.00047149,0
106.76,0.00046427,0
106.76,0.00042046,0
106.76,0.00033687,0
106.76,0.00025882,0
106.76,0.00019622,0
106.76,0.0001274,0
106.76,4.6998e-05,0
106.76,-3.8605e-05,0
106.76,-0.00010591,0
106.76,-0.00014301,0
106.76,-0.000165,0
106.76,-0.00018363,0
106.76,-0.00020461,0
106.77,-0.00019303,0
106.77,-0.00011263,0
106.77,-1.1917e-05,0
106.77,1.6617e-05,0
106.77,-4.448e-05,0
106.77,-0.00013126,0
106.77,-0.00019387,0
106.77,-0.0001749,0
106.77,-5.5222e-05,0
106.77,7.9393e-05,0
106.77,0.00015694,0
106.77,0.00015727,0
106.77,0.00012673,0
106.77,0.0001331,0
106.77,0.00016634,0
106.77,0.00018514,0
106.77,0.00017171,0
106.77,0.00013915,0
106.77,8.51e-05,0
106.78,-6.714e-07,0
106.78,-8.1071e-05,0
106.78,-0.00013227,0
106.78,-0.00016835,0
106.78,-0.00020729,0
106.78,-0.00023499,0
106.78,-0.00023516,0
106.78,-0.00022039,0
106.78,-0.00019873,0
106.78,-0.0001801,0
106.78,-0.00016584,0
106.78,-0.00014788,0
106.78,-0.00011363,0
106.78,-6.3951e-05,0
106.78,-1.2757e-05,0
106.78,3.9109e-05,0
106.78,0.00010004,0
106.78,0.00014284,0
106.78,0.00012136,0
106.78,3.9109e-05,0
106.79,-4.5991e-05,0
106.79,-0.00010675,0
106.79,-0.0001519,0
106.79,-0.00015761,0
106.79,-0.00013378,0
106.79,-0.00012857,0
106.79,-0.00012572,0
106.79,-8.1743e-05,0
106.79,1.1749e-06,0
106.79,8.896e-05,0
106.79,0.00015526,0
106.79,0.00018379,0
106.79,0.0001848,0
106.79,0.00019353,0
106.79,0.00021166,0
106.79,0.00019152,0
106.79,0.00011632,0
106.79,2.4842e-05,0
106.79,-4.7166e-05,0
106.8,-8.4428e-05,0
106.8,-9.6849e-05,0
106.8,-0.00010306,0
106.8,-9.987e-05,0
106.8,-6.3447e-05,0
106.8,1.1246e-05,0
106.8,0.00010658,0
106.8,0.00023348,0
106.8,0.00039545,0
106.8,0.00047485,0
106.8,0.0003968,0
106.8,0.00024388,0
106.8,0.00015694,0
106.8,0.00014133,0
106.8,0.00011363,0
106.8,4.4144e-05,0
106.8,-3.8941e-05,0
106.8,-9.1142e-05,0
106.8,-9.0806e-05,0
106.81,-5.5894e-05,0
106.81,-8.2246e-06,0
106.81,4.2802e-05,0
106.81,8.9799e-05,0
106.81,0.00011447,0
106.81,0.00013327,0
106.81,0.00022341,0
106.81,0.00042818,0
106.81,0.00062423,0
106.81,0.00062557,0
106.81,0.00038387,0
106.81,3.2731e-05,0
106.81,-0.00024657,0
106.81,-0.00037195,0
106.81,-0.00037749,0
106.81,-0.0003174,0
106.81,-0.00023465,0
106.81,-0.00017037,0
106.81,-0.00014821,0
106.82,-0.00014267,0
106.82,-9.8192e-05,0
106.82,-2.1317e-05,0
106.82,3.1052e-05,0
106.82,2.6688e-05,0
106.82,-7.0497e-06,0
106.82,-2.4338e-05,0
106.82,-2.8702e-05,0
106.82,-3.0549e-05,0
106.82,-1.5946e-05,0
106.82,1.1246e-05,0
106.82,3.1891e-05,0
106.82,3.5416e-05,0
106.82,2.7359e-05,0
106.82,7.3854e-06,0
106.82,-2.8367e-05,0
106.82,-7.2175e-05,0
106.82,-9.6849e-05,0
106.82,-9.3492e-05,0
106.83,-0.00010423,0
106.83,-0.00013696,0
106.83,-0.00015962,0
106.83,-0.00015778,0
106.83,-0.00013915,0
106.83,-0.00011582,0
106.83,-8.3085e-05,0
106.83,-2.7527e-05,0
106.83,3.743e-05,0
106.83,8.6946e-05,0
106.83,0.00013881,0
106.83,0.00026268,0
106.83,0.0004166,0
106.83,0.00045705,0
106.83,0.00032546,0
106.83,0.00012807,0
106.83,-1.2589e-05,0
106.83,-6.4622e-05,0
106.83,-4.7166e-05,0
106.83,1.3428e-06,0
106.84,3.1052e-05,0
106.84,-1.0071e-06,0
106.84,-5.1362e-05,0
106.84,-6.9154e-05,0
106.84,-5.0187e-05,0
106.84,-2.7024e-05,0
106.84,-3.6591e-05,0
106.84,-6.7643e-05,0
106.84,-8.0064e-05,0
106.84,-5.3208e-05,0
106.84,-2.3499e-06,0
106.84,3.3066e-05,0
106.84,2.887e-05,0
106.84,2.2492e-05,0
106.84,2.6352e-05,0
106.84,1.7792e-05,0
106.84,-5.0019e-05,0
106.84,-0.00017859,0
106.84,-0.00027477,0
106.85,-0.00028937,0
106.85,-0.00026923,0
106.85,-0.00024523,0
106.85,-0.00017943,0
106.85,-5.1026e-05,0
106.85,9.752e-05,0
106.85,0.00022777,0
106.85,0.00031203,0
106.85,0.00034057,0
106.85,0.00033687,0
106.85,0.00032345,0
106.85,0.0003033,0
106.85,0.00025161,0
106.85,0.00016902,0
106.85,8.51e-05,0
106.85,3.122e-05,0
106.85,1.3596e-05,0
106.85,2.8367e-05,0
106.85,8.3085e-05,0
106.86,0.00012639,0
106.86,0.00010289,0
106.86,3.357e-05,0
106.86,-8.5603e-06,0
106.86,1.6114e-05,0
106.86,6.5293e-05,0
106.86,7.4525e-05,0
106.86,3.6927e-06,0
106.86,-0.00011565,0
106.86,-0.00019789,0
106.86,-0.00018514,0
106.86,-7.6707e-05,0
106.86,8.8792e-05,0
106.86,0.00021099,0
106.86,0.00022257,0
106.86,0.00014754,0
106.86,7.3518e-05,0
106.86,5.4551e-05,0
106.86,7.8553e-05,0
106.86,0.00010709,0
106.87,0.00013411,0
106.87,0.00015492,0
106.87,0.00012203,0
106.87,2.7695e-05,0
106.87,-5.9251e-05,0
106.87,-9.5506e-05,0
106.87,-0.0001091,0
106.87,-0.00013025,0
106.87,-0.00014553,0
106.87,-0.00014032,0
106.87,-0.00013176,0
106.87,-0.00013999,0
106.87,-0.00014989,0
106.87,-0.00015207,0
106.87,-0.0001331,0
106.87,-8.1575e-05,0
106.87,-3.6255e-05,0
106.87,-4.2466e-05,0
106.87,-0.00011447,0
106.88,-0.00019135,0
106.88,-0.00020226,0
106.88,-0.00016214,0
106.88,-0.00012203,0
106.88,-9.2821e-05,0
106.88,-5.5222e-05,0
106.88,1.1917e-05,0
106.88,0.00011044,0
106.88,0.00020394,0
106.88,0.00026386,0
106.88,0.00031086,0
106.88,0.00033922,0
106.88,0.00031304,0
106.88,0.00022274,0
106.88,0.0001039,0
106.88,1.2924e-05,0
106.88,-4.0787e-05,0
106.88,-5.5222e-05,0
106.88,-3.9109e-05,0
106.89,-1.796e-05,0
106.89,-1.3428e-06,0
106.89,2.8367e-05,0
106.89,7.5364e-05,0
106.89,0.00010726,0
106.89,9.8863e-05,0
106.89,6.3615e-05,0
106.89,4.4144e-05,0
106.89,5.4383e-05,0
106.89,8.5771e-05,0
106.89,0.00013512,0
106.89,0.00018514,0
106.89,0.00020494,0
106.89,0.00018044,0
106.89,0.00013646,0
106.89,0.00010306,0
106.89,8.661e-05,0
106.89,6.9657e-05,0
106.89,4.6159e-05,0
106.9,3.6088e-05,0
106.9,4.4984e-05,0
106.9,6.1265e-05,0
106.9,5.8244e-05,0
106.9,2.6017e-05,0
106.9,-2.182e-05,0
106.9,-4.7669e-05,0
106.9,-3.7598e-05,0
106.9,-1.1749e-05,0
106.9,7.2175e-06,0
106.9,-3.1891e-06,0
106.9,-5.5055e-05,0
106.9,-0.00012706,0
106.9,-0.00019084,0
106.9,-0.00023465,0
106.9,-0.00025261,0
106.9,-0.00024388,0
106.9,-0.00024036,0
106.9,-0.00022928,0
106.9,-0.00022072,0
106.91,-0.00020058,0
106.91,-0.0001368,0
106.91,-5.069e-05,0
106.91,-4.5319e-06,0
106.91,-1.2085e-05,0
106.91,-2.9877e-05,0
106.91,-3.1052e-05,0
106.91,-1.9471e-05,0
106.91,-2.182e-06,0
106.91,5.5894e-05,0
106.91,0.0001984,0
106.91,0.00034493,0
106.91,0.00039562,0
106.91,0.00036977,0
106.91,0.00031942,0
106.91,0.00026806,0
106.91,0.00021115,0
106.91,0.00014015,0
106.91,7.3686e-05,0
106.92,3.8437e-05,0
106.92,3.743e-05,0
106.92,5.2033e-05,0
106.92,6.0761e-05,0
106.92,5.8915e-05,0
106.92,5.3208e-05,0
106.92,4.8844e-05,0
106.92,4.683e-05,0
106.92,4.1459e-05,0
106.92,2.1653e-05,0
106.92,-4.5319e-06,0
106.92,-2.031e-05,0
106.92,-3.0549e-05,0
106.92,-4.8508e-05,0
106.92,-6.2272e-05,0
106.92,-5.4887e-05,0
106.92,-5.1194e-05,0
106.92,-6.7308e-05,0
106.92,-9.0303e-05,0
106.93,-0.00010088,0
106.93,-8.9296e-05,0
106.93,-4.1794e-05,0
106.93,5.3376e-05,0
106.93,0.00013814,0
106.93,0.00017037,0
106.93,0.00017305,0
106.93,0.00016281,0
106.93,0.00012136,0
106.93,4.3473e-05,0
106.93,-4.4816e-05,0
106.93,-0.00011682,0
106.93,-0.00016936,0
106.93,-0.00019387,0
106.93,-0.00015459,0
106.93,-6.0929e-05,0
106.93,1.6617e-05,0
106.93,4.2802e-05,0
106.93,3.9948e-05,0
106.94,2.266e-05,0
106.94,-5.3712e-06,0
106.94,-3.3738e-05,0
106.94,-4.5151e-05,0
106.94,-3.0045e-05,0
106.94,-2.5177e-06,0
106.94,1.9974e-05,0
106.94,3.1724e-05,0
106.94,3.4745e-05,0
106.94,3.6591e-05,0
106.94,4.213e-05,0
106.94,4.3137e-05,0
106.94,3.1388e-05,0
106.94,1.6281e-05,0
106.94,1.1078e-05,0
106.94,1.5946e-05,0
106.94,2.652e-05,0
106.94,3.592e-05,0
106.94,3.1891e-05,0
106.94,1.1917e-05,0
106.95,-1.0575e-05,0
106.95,-2.0478e-05,0
106.95,-1.6281e-05,0
106.95,-6.2104e-06,0
106.95,-1.5778e-05,0
106.95,-6.8315e-05,0
106.95,-0.00012857,0
106.95,-0.00014855,0
106.95,-0.00013478,0
106.95,-0.0001091,0
106.95,-7.6539e-05,0
106.95,-2.7359e-05,0
106.95,3.0045e-05,0
106.95,7.7043e-05,0
106.95,0.00011313,0
106.95,0.00015291,0
106.95,0.00020394,0
106.95,0.00026772,0
106.95,0.00031673,0
106.96,0.00030784,0
106.96,0.00025144,0
106.96,0.00019924,0
106.96,0.0001754,0
106.96,0.00015409,0
106.96,9.4331e-05,0
106.96,5.0355e-07,0
106.96,-7.6707e-05,0
106.96,-0.00011229,0
106.96,-0.00011632,0
106.96,-8.9464e-05,0
106.96,-5.2201e-05,0
106.96,-3.4073e-05,0
106.96,-6.244e-05,0
106.96,-0.00011414,0
106.96,-9.7688e-05,0
106.96,9.2317e-06,0
106.96,0.00011531,0
106.96,0.00012303,0
106.97,2.9374e-05,0
106.97,-5.1194e-05,0
106.97,-5.9922e-05,0
106.97,-3.2395e-05,0
106.97,-1.1078e-05,0
106.97,-9.2317e-06,0
106.97,-1.1917e-05,0
106.97,2.182e-06,0
106.97,4.1123e-05,0
106.97,8.04e-05,0
106.97,8.2918e-05,0
106.97,2.6688e-05,0
106.97,-5.5894e-05,0
106.97,-0.00010608,0
106.97,-0.00010272,0
106.97,-4.5655e-05,0
106.97,3.0716e-05,0
106.97,6.9993e-05,0
106.97,5.7237e-05,0
106.97,2.9374e-05,0
106.98,3.592e-05,0
106.98,8.8792e-05,0
106.98,0.00018312,0
106.98,0.0002741,0
106.98,0.00027276,0
106.98,0.00016466,0
106.98,2.6017e-05,0
106.98,-6.5797e-05,0
106.98,-0.00010138,0
106.98,-0.00011212,0
106.98,-9.1646e-05,0
106.98,1.5106e-06,0
106.98,0.00011397,0
106.98,0.00014989,0
106.98,9.6178e-05,0
106.98,8.2246e-06,0
106.98,-8.2246e-05,0
106.98,-0.00016516,0
106.98,-0.00021334,0
106.99,-0.00021535,0
106.99,-0.00018799,0
106.99,-0.00013176,0
106.99,-4.5151e-05,0
106.99,2.4338e-05,0
106.99,4.3473e-05,0
106.99,4.0787e-05,0
106.99,5.3208e-05,0
106.99,8.5435e-05,0
106.99,0.00012622,0
106.99,0.00012387,0
106.99,5.4719e-05,0
106.99,-1.2757e-05,0
106.99,1.0071e-05,0
106.99,9.2149e-05,0
106.99,0.0001227,0
106.99,8.5435e-05,0
106.99,3.7095e-05,0
106.99,3.8605e-06,0
107,-3.8605e-06,0
107,3.0045e-05,0
107,0.00011867,0
107,0.00022995,0
107,0.00029877,0
107,0.00029239,0
107,0.00024053,0
107,0.00017104,0
107,9.3156e-05,0
107,2.2324e-05,0
107,-2.501e-05,0
107,-4.3473e-05,0
107,-4.5487e-05,0
107,-4.8508e-05,0
107,-7.9728e-05,0
107,-0.00014015,0
107,-0.00018782,0
107,-0.00020964,0
107,-0.00021082,0
107.01,-0.00019554,0
107.01,-0.00016533,0
107.01,-0.00012639,0
107.01,-9.2485e-05,0
107.01,-6.6468e-05,0
107.01,-2.3667e-05,0
107.01,3.6088e-05,0
107.01,8.661e-05,0
107.01,0.00011229,0
107.01,0.00011397,0
107.01,9.6345e-05,0
107.01,7.8889e-05,0
107.01,7.5029e-05,0
107.01,7.8386e-05,0
107.01,7.6371e-05,0
107.01,7.5868e-05,0
107.01,8.6275e-05,0
107.01,8.2414e-05,0
107.01,4.3809e-05,0
107.02,-1.2924e-05,0
107.02,-5.1865e-05,0
107.02,-6.1265e-05,0
107.02,-4.2802e-05,0
107.02,-6.3783e-06,0
107.02,2.3331e-05,0
107.02,3.2395e-05,0
107.02,2.266e-05,0
107.02,9.2317e-06,0
107.02,4.6998e-06,0
107.02,7.5532e-06,0
107.02,1.7288e-05,0
107.02,3.3738e-05,0
107.02,4.3977e-05,0
107.02,4.1123e-05,0
107.02,2.4674e-05,0
107.02,-1.6785e-06,0
107.02,-3.2395e-05,0
107.02,-5.2537e-05,0
107.02,-4.8844e-05,0
107.03,-2.3499e-05,0
107.03,7.2175e-06,0
107.03,3.1724e-05,0
107.03,5.0019e-05,0
107.03,5.4215e-05,0
107.03,4.1794e-05,0
107.03,3.0716e-05,0
107.03,4.3473e-05,0
107.03,8.04e-05,0
107.03,0.00012337,0
107.03,0.00016197,0
107.03,0.00018749,0
107.03,0.00017406,0
107.03,0.00013344,0
107.03,0.0001039,0
107.03,7.5532e-05,0
107.03,2.2995e-05,0
107.03,-5.4551e-05,0
107.03,-0.00013713,0
107.04,-0.00018329,0
107.04,-0.00016197,0
107.04,-8.1743e-05,0
107.04,5.2033e-06,0
107.04,5.4551e-05,0
107.04,5.6901e-05,0
107.04,4.1291e-05,0
107.04,3.6255e-05,0
107.04,4.8173e-05,0
107.04,7.2175e-05,0
107.04,0.00011397,0
107.04,0.00017171,0
107.04,0.00021166,0
107.04,0.00019487,0
107.04,0.0001237,0
107.04,4.1123e-05,0
107.04,-1.6281e-05,0
107.04,-3.8437e-05,0
107.04,-3.508e-05,0
107.05,-2.4842e-05,0
107.05,-1.9638e-05,0
107.05,-1.7624e-05,0
107.05,-1.5442e-05,0
107.05,-1.6617e-05,0
107.05,-2.031e-05,0
107.05,-2.2995e-05,0
107.05,-2.4338e-05,0
107.05,-2.3667e-05,0
107.05,-2.3163e-05,0
107.05,-2.4338e-05,0
107.05,-2.2995e-05,0
107.05,-1.8463e-05,0
107.05,-1.6617e-05,0
107.05,-1.6281e-05,0
107.05,-1.2757e-05,0
107.05,-9.0639e-06,0
107.05,-7.5532e-06,0
107.05,-7.0497e-06,0
107.06,-5.539e-06,0
107.06,-6.714e-07,0
107.06,6.2104e-06,0
107.06,1.3931e-05,0
107.06,2.4842e-05,0
107.06,3.2563e-05,0
107.06,3.5416e-05,0
107.06,4.1459e-05,0
107.06,4.4816e-05,0
107.06,3.2059e-05,0
107.06,1.7792e-05,0
107.06,2.5513e-05,0
107.06,4.0452e-05,0
107.06,4.5991e-05,0
107.06,9.6849e-05,0
107.06,0.00018111,0
107.06,0.00019319,0
107.06,8.896e-05,0
107.06,-6.5461e-05,0
107.06,-0.00017255,0
107.07,-0.00019521,0
107.07,-0.00015795,0
107.07,-9.7353e-05,0
107.07,-4.5319e-05,0
107.07,-1.9303e-05,0
107.07,6.0426e-06,0
107.07,3.8773e-05,0
107.07,6.2943e-05,0
107.07,7.335e-05,0
107.07,6.8986e-05,0
107.07,5.4215e-05,0
107.07,3.508e-05,0
107.07,1.8296e-05,0
107.07,5.2033e-06,0
107.07,-1.6281e-05,0
107.07,-4.4816e-05,0
107.07,-6.4622e-05,0
107.07,-6.6972e-05,0
107.07,-4.9348e-05,0
107.08,-2.2828e-05,0
107.08,6.8818e-06,0
107.08,3.9612e-05,0
107.08,6.7475e-05,0
107.08,8.1743e-05,0
107.08,9.2149e-05,0
107.08,0.00010071,0
107.08,0.00011397,0
107.08,0.00014922,0
107.08,0.00018833,0
107.08,0.00019185,0
107.08,0.00014469,0
107.08,7.7714e-05,0
107.08,2.6352e-05,0
107.08,-1.2253e-05,0
107.08,-7.4525e-05,0
107.08,-0.0001415,0
107.08,-0.00017893,0
107.08,-0.00018984,0
107.09,-0.00019521,0
107.09,-0.00020545,0
107.09,-0.00020595,0
107.09,-0.00017372,0
107.09,-0.00010289,0
107.09,-1.1582e-05,0
107.09,9.6513e-05,0
107.09,0.00021871,0
107.09,0.0003211,0
107.09,0.00038119,0
107.09,0.00038253,0
107.09,0.00031774,0
107.09,0.00023969,0
107.09,0.00020528,0
107.09,0.00021602,0
107.09,0.00023146,0
107.09,0.00021669,0
107.09,0.00016936,0
107.09,0.00010927,0
107.09,3.3906e-05,0
107.1,-5.9922e-05,0
107.1,-8.8121e-05,0
107.1,1.8463e-05,0
107.1,0.00014536,0
107.1,0.00015258,0
107.1,2.5849e-05,0
107.1,-0.000142,0
107.1,-0.00026503,0
107.1,-0.00030683,0
107.1,-0.00027594,0
107.1,-0.00020964,0
107.1,-0.00014385,0
107.1,-0.0001133,0
107.1,-0.0001034,0
107.1,-6.2272e-05,0
107.1,6.714e-06,0
107.1,5.5558e-05,0
107.1,6.63e-05,0
107.1,5.2201e-05,0
107.11,3.357e-05,0
107.11,2.1317e-05,0
107.11,1.7288e-05,0
107.11,5.539e-06,0
107.11,-2.5681e-05,0
107.11,-6.3447e-05,0
107.11,-8.5435e-05,0
107.11,-8.3757e-05,0
107.11,-6.865e-05,0
107.11,-4.918e-05,0
107.11,-2.7024e-05,0
107.11,1.0071e-06,0
107.11,3.1891e-05,0
107.11,5.9251e-05,0
107.11,8.3925e-05,0
107.11,0.00010541,0
107.11,0.00011128,0
107.11,8.9464e-05,0
107.11,4.2466e-05,0
107.12,4.0284e-06,0
107.12,-2.0142e-06,0
107.12,5.8747e-06,0
107.12,1.0071e-06,0
107.12,-1.8128e-05,0
107.12,-3.1052e-05,0
107.12,-2.6688e-05,0
107.12,-1.561e-05,0
107.12,-1.2253e-05,0
107.12,-1.5274e-05,0
107.12,-1.6449e-05,0
107.12,-1.0575e-05,0
107.12,-1.8463e-06,0
107.12,2.5177e-06,0
107.12,1.1749e-06,0
107.12,-1.4435e-05,0
107.12,-6.0426e-05,0
107.12,-0.00013176,0
107.12,-0.00019252,0
107.13,-0.0002036,0
107.13,-0.00016718,0
107.13,-0.00010289,0
107.13,-2.652e-05,0
107.13,4.4144e-05,0
107.13,8.51e-05,0
107.13,8.9799e-05,0
107.13,8.7449e-05,0
107.13,0.00011514,0
107.13,0.00017406,0
107.13,0.0002459,0
107.13,0.00031925,0
107.13,0.00039294,0
107.13,0.00041744,0
107.13,0.00033285,0
107.13,0.00015123,0
107.13,-2.9206e-05,0
107.13,-0.00012303,0
107.13,-0.00012773,0
107.14,-8.8121e-05,0
107.14,-4.5991e-05,0
107.14,-1.2253e-05,0
107.14,1.7792e-05,0
107.14,5.623e-05,0
107.14,9.9199e-05,0
107.14,0.00010692,0
107.14,6.3447e-05,0
107.14,1.1246e-05,0
107.14,-2.2156e-05,0
107.14,-3.7095e-05,0
107.14,-3.743e-05,0
107.14,-2.8199e-05,0
107.14,-1.6785e-06,0
107.14,4.4312e-05,0
107.14,8.8457e-05,0
107.14,0.00011363,0
107.14,0.00013008,0
107.14,0.00014603,0
107.14,0.00014871,0
107.15,0.0001373,0
107.15,0.00011044,0
107.15,6.4118e-05,0
107.15,1.5274e-05,0
107.15,-2.4338e-05,0
107.15,-6.4286e-05,0
107.15,-0.00010222,0
107.15,-0.00012018,0
107.15,-0.00010507,0
107.15,-6.3279e-05,0
107.15,-3.1891e-06,0
107.15,3.7766e-05,0
107.15,3.3906e-05,0
107.15,-2.0981e-05,0
107.15,-9.8192e-05,0
107.15,-0.00013848,0
107.15,-0.00012471,0
107.15,-8.0064e-05,0
107.15,-3.0381e-05,0
107.16,-5.0355e-06,0
107.16,-4.3641e-06,0
107.16,-1.5274e-05,0
107.16,-3.978e-05,0
107.16,-7.3518e-05,0
107.16,-7.2343e-05,0
107.16,-1.0239e-05,0
107.16,6.8986e-05,0
107.16,0.00011028,0
107.16,0.00010658,0
107.16,8.6946e-05,0
107.16,8.3757e-05,0
107.16,0.0001039,0
107.16,0.00012807,0
107.16,0.00013462,0
107.16,0.00011833,0
107.16,8.9799e-05,0
107.16,6.0594e-05,0
107.16,4.1459e-05,0
107.17,2.9374e-05,0
107.17,1.6953e-05,0
107.17,2.0142e-06,0
107.17,-4.8676e-06,0
107.17,5.0355e-06,0
107.17,2.9709e-05,0
107.17,5.5558e-05,0
107.17,7.6036e-05,0
107.17,9.4163e-05,0
107.17,0.00011078,0
107.17,0.00012068,0
107.17,0.00010692,0
107.17,7.6204e-05,0
107.17,6.2943e-05,0
107.17,6.7308e-05,0
107.17,5.623e-05,0
107.17,1.9303e-05,0
107.17,-2.0981e-05,0
107.17,-4.3809e-05,0
107.17,-4.9516e-05,0
107.18,-5.4887e-05,0
107.18,-6.2608e-05,0
107.18,-6.1601e-05,0
107.18,-4.918e-05,0
107.18,-3.9109e-05,0
107.18,-3.827e-05,0
107.18,-4.3137e-05,0
107.18,-5.0858e-05,0
107.18,-5.9922e-05,0
107.18,-6.6133e-05,0
107.18,-6.7979e-05,0
107.18,-6.5965e-05,0
107.18,-6.1433e-05,0
107.18,-5.4383e-05,0
107.18,-4.5487e-05,0
107.18,-3.3738e-05,0
107.18,-1.9303e-05,0
107.18,-2.0142e-06,0
107.18,1.2924e-05,0
107.19,1.5946e-05,0
107.19,6.714e-06,0
107.19,-3.6927e-06,0
107.19,-8.5603e-06,0
107.19,-8.5603e-06,0
107.19,-4.5319e-06,0
107.19,7.7211e-06,0
107.19,2.7359e-05,0
107.19,4.4144e-05,0
107.19,5.4215e-05,0
107.19,6.0594e-05,0
107.19,5.9586e-05,0
107.19,4.9851e-05,0
107.19,3.3066e-05,0
107.19,2.0478e-05,0
107.19,2.1317e-05,0
107.19,2.7192e-05,0
107.19,2.1988e-05,0
107.19,4.8676e-06,0
107.2,-2.0981e-05,0
107.2,-4.2969e-05,0
107.2,-4.5319e-05,0
107.2,-1.8296e-05,0
107.2,2.4002e-05,0
107.2,4.8173e-05,0
107.2,5.304e-05,0
107.2,6.009e-05,0
107.2,4.8844e-05,0
107.2,-6.714e-06,0
107.2,-5.9586e-05,0
107.2,-7.9393e-05,0
107.2,-8.6275e-05,0
107.2,-9.6849e-05,0
107.2,-0.00012438,0
107.2,-0.00017406,0
107.2,-0.00019152,0
107.2,-0.00011582,0
107.2,-2.8534e-06,0
107.21,7.0329e-05,0
107.21,0.00011128,0
107.21,0.00016147,0
107.21,0.00023717,0
107.21,0.00031472,0
107.21,0.00034426,0
107.21,0.00029978,0
107.21,0.00022072,0
107.21,0.00018077,0
107.21,0.00023079,0
107.21,0.00031925,0
107.21,0.00031807,0
107.21,0.00021065,0
107.21,7.2175e-05,0
107.21,-3.0045e-05,0
107.21,-7.2007e-05,0
107.21,-5.8915e-05,0
107.21,-3.5248e-06,0
107.21,7.0832e-05,0
107.21,0.00012522,0
107.22,0.00012303,0
107.22,6.6636e-05,0
107.22,1.8631e-05,0
107.22,1.8631e-05,0
107.22,3.1724e-05,0
107.22,1.2757e-05,0
107.22,-2.9374e-05,0
107.22,-4.8173e-05,0
107.22,-2.9877e-05,0
107.22,7.2175e-06,0
107.22,4.2802e-05,0
107.22,7.7211e-05,0
107.22,0.00011212,0
107.22,0.00013478,0
107.22,0.00013344,0
107.22,9.6513e-05,0
107.22,3.4241e-05,0
107.22,-2.5345e-05,0
107.22,-6.2608e-05,0
107.23,-7.6371e-05,0
107.23,-7.7379e-05,0
107.23,-7.7043e-05,0
107.23,-7.7043e-05,0
107.23,-7.6875e-05,0
107.23,-7.4525e-05,0
107.23,-6.9993e-05,0
107.23,-6.5965e-05,0
107.23,-6.7979e-05,0
107.23,-7.3014e-05,0
107.23,-7.5364e-05,0
107.23,-6.4622e-05,0
107.23,-3.7766e-05,0
107.23,-9.9031e-06,0
107.23,1.1917e-05,0
107.23,1.6953e-05,0
107.23,-5.0355e-07,0
107.23,-3.1052e-05,0
107.23,-6.3951e-05,0
107.24,-8.6275e-05,0
107.24,-9.0974e-05,0
107.24,-9.6513e-05,0
107.24,-0.0001185,0
107.24,-0.00014519,0
107.24,-0.0001519,0
107.24,-0.00013176,0
107.24,-9.6178e-05,0
107.24,-6.4118e-05,0
107.24,-4.5991e-05,0
107.24,-4.5487e-05,0
107.24,-4.6662e-05,0
107.24,-2.8367e-05,0
107.24,4.5319e-06,0
107.24,4.2802e-05,0
107.24,7.57e-05,0
107.24,9.0135e-05,0
107.24,8.7282e-05,0
107.24,7.4189e-05,0
107.25,6.7308e-05,0
107.25,8.9464e-05,0
107.25,0.00013512,0
107.25,0.00017171,0
107.25,0.00017641,0
107.25,0.00015526,0
107.25,0.00013243,0
107.25,0.00012689,0
107.25,0.00014469,0
107.25,0.00016097,0
107.25,0.00012723,0
107.25,4.448e-05,0
107.25,-4.6662e-05,0
107.25,-0.00011548,0
107.25,-0.00014855,0
107.25,-0.00014855,0
107.25,-0.00012908,0
107.25,-9.6849e-05,0
107.25,-3.5416e-05,0
107.25,4.7501e-05,0
107.26,0.00010138,0
107.26,0.00010709,0
107.26,0.00010021,0
107.26,0.00010558,0
107.26,0.00011766,0
107.26,0.00016399,0
107.26,0.00017641,0
107.26,7.3518e-05,0
107.26,-5.1194e-05,0
107.26,-0.00011749,0
107.26,-0.00014049,0
107.26,-0.00018178,0
107.26,-0.00025261,0
107.26,-0.00026285,0
107.26,-0.00020058,0
107.26,-0.00011145,0
107.26,-6.2104e-06,0
107.26,8.51e-05,0
107.26,0.00010927,0
107.27,0.00010726,0
107.27,0.00017423,0
107.27,0.0003033,0
107.27,0.00039461,0
107.27,0.00040435,0
107.27,0.00036104,0
107.27,0.00030028,0
107.27,0.00025228,0
107.27,0.00020847,0
107.27,0.0001556,0
107.27,0.0001284,0
107.27,0.00015106,0
107.27,0.00018363,0
107.27,0.00016953,0
107.27,0.00010172,0
107.27,-1.8296e-05,0
107.27,-0.00016097,0
107.27,-0.00026117,0
107.27,-0.00027276,0
107.28,-0.00022576,0
107.28,-0.00017826,0
107.28,-0.00015409,0
107.28,-0.00010541,0
107.28,2.8534e-05,0
107.28,0.00018379,0
107.28,0.00023415,0
107.28,0.00013764,0
107.28,-8.2246e-06,0
107.28,-0.00012438,0
107.28,-0.00022593,0
107.28,-0.00030414,0
107.28,-0.00032428,0
107.28,-0.00029709,0
107.28,-0.00026084,0
107.28,-0.0002365,0
107.28,-0.0002219,0
107.28,-0.00018933,0
107.28,-0.00013579,0
107.28,-9.7185e-05,0
107.29,-7.7043e-05,0
107.29,-5.5222e-05,0
107.29,-6.3783e-06,0
107.29,7.7714e-05,0
107.29,0.0001744,0
107.29,0.00026436,0
107.29,0.00030968,0
107.29,0.00029122,0
107.29,0.00029525,0
107.29,0.00040536,0
107.29,0.0005482,0
107.29,0.00055642,0
107.29,0.00037313,0
107.29,0.00011867,0
107.29,-6.949e-05,0
107.29,-0.00016466,0
107.29,-0.00017221,0
107.29,-0.00011095,0
107.29,-3.3906e-05,0
107.3,-1.4099e-05,0
107.3,-3.0381e-05,0
107.3,-3.8941e-05,0
107.3,-5.0355e-05,0
107.3,-6.0258e-05,0
107.3,-4.2634e-05,0
107.3,4.1962e-06,0
107.3,5.9922e-05,0
107.3,9.601e-05,0
107.3,9.8527e-05,0
107.3,7.805e-05,0
107.3,5.0187e-05,0
107.3,2.4506e-05,0
107.3,6.3783e-06,0
107.3,-5.539e-06,0
107.3,-1.5106e-05,0
107.3,-2.501e-05,0
107.3,-3.6088e-05,0
107.3,-4.3137e-05,0
107.31,-4.4816e-05,0
107.31,-4.6326e-05,0
107.31,-4.7166e-05,0
107.31,-4.5151e-05,0
107.31,-4.1962e-05,0
107.31,-4.3137e-05,0
107.31,-4.4648e-05,0
107.31,-3.1052e-05,0
107.31,-6.8818e-06,0
107.31,2.182e-06,0
107.31,-1.561e-05,0
107.31,-4.3305e-05,0
107.31,-9.2149e-05,0
107.31,-0.00017675,0
107.31,-0.00021082,0
107.31,-0.00016869,0
107.31,-0.00012001,0
107.31,-9.5003e-05,0
107.31,-9.5171e-05,0
107.32,-9.3492e-05,0
107.32,-6.0258e-05,0
107.32,1.1917e-05,0
107.32,0.00011464,0
107.32,0.00021703,0
107.32,0.00028719,0
107.32,0.00030867,0
107.32,0.00027897,0
107.32,0.0002083,0
107.32,0.00012673,0
107.32,6.7979e-05,0
107.32,3.6759e-05,0
107.32,2.652e-05,0
107.32,3.2059e-05,0
107.32,4.4816e-05,0
107.32,6.865e-05,0
107.32,8.9799e-05,0
107.32,4.9348e-05,0
107.32,-9.7353e-05,0
107.33,-0.00030884,0
107.33,-0.00048072,0
107.33,-0.00053158,0
107.33,-0.00044111,0
107.33,-0.00028954,0
107.33,-0.00017507,0
107.33,-9.8695e-05,0
107.33,-7.2175e-06,0
107.33,0.00017238,0
107.33,0.00043255,0
107.33,0.00066686,0
107.33,0.00076657,0
107.33,0.00070681,0
107.33,0.00058798,0
107.33,0.00045487,0
107.33,0.00030901,0
107.33,0.00018849,0
107.33,9.8192e-05,0
107.33,1.1749e-06,0
107.33,-0.00010793,0
107.34,-0.0001744,0
107.34,-0.00019722,0
107.34,-0.00023079,0
107.34,-0.00027057,0
107.34,-0.0002845,0
107.34,-0.0002412,0
107.34,-0.0001613,0
107.34,-8.7449e-05,0
107.34,-1.2924e-05,0
107.34,8.5771e-05,0
107.34,0.00016298,0
107.34,0.00018984,0
107.34,0.00018027,0
107.34,0.00014922,0
107.34,0.00011733,0
107.34,0.00011128,0
107.34,0.0001133,0
107.34,9.2485e-05,0
107.34,4.918e-05,0
107.35,1.3428e-05,0
107.35,2.8534e-05,0
107.35,8.9128e-05,0
107.35,0.00014435,0
107.35,0.00015744,0
107.35,0.00011666,0
107.35,1.7121e-05,0
107.35,-8.0064e-05,0
107.35,-0.00010121,0
107.35,-5.4887e-05,0
107.35,-1.3596e-05,0
107.35,-1.5106e-05,0
107.35,-5.623e-05,0
107.35,-0.00011263,0
107.35,-0.00014334,0
107.35,-0.0001321,0
107.35,-8.8792e-05,0
107.35,-2.1988e-05,0
107.35,4.2802e-05,0
107.36,7.3686e-05,0
107.36,6.6636e-05,0
107.36,2.8199e-05,0
107.36,-2.2995e-05,0
107.36,-6.1433e-05,0
107.36,-7.7882e-05,0
107.36,-7.7379e-05,0
107.36,-7.7379e-05,0
107.36,-8.3253e-05,0
107.36,-6.2272e-05,0
107.36,-1.2421e-05,0
107.36,2.8031e-05,0
107.36,4.1459e-05,0
107.36,3.9612e-05,0
107.36,3.4073e-05,0
107.36,1.9135e-05,0
107.36,6.714e-07,0
107.36,-7.0497e-06,0
107.36,1.6785e-07,0
107.36,1.2924e-05,0
107.37,2.3835e-05,0
107.37,3.122e-05,0
107.37,2.4842e-05,0
107.37,1.2924e-05,0
107.37,5.7069e-06,0
107.37,3.6927e-06,0
107.37,6.8818e-06,0
107.37,1.561e-05,0
107.37,2.4842e-05,0
107.37,3.3402e-05,0
107.37,3.9109e-05,0
107.37,3.2731e-05,0
107.37,2.9709e-05,0
107.37,5.388e-05,0
107.37,7.5364e-05,0
107.37,7.1336e-05,0
107.37,4.9348e-05,0
107.37,1.6617e-05,0
107.37,-3.3906e-05,0
107.38,-6.1601e-05,0
107.38,-3.2563e-05,0
107.38,-4.1962e-06,0
107.38,-8.7114e-05,0
107.38,-0.00026302,0
107.38,-0.00038135,0
107.38,-0.00036742,0
107.38,-0.00027208,0
107.38,-0.00017591,0
107.38,-0.00010373,0
107.38,-3.8437e-05,0
107.38,3.0716e-05,0
107.38,0.00010457,0
107.38,0.00020159,0
107.38,0.00033754,0
107.38,0.00048592,0
107.38,0.00057656,0
107.38,0.00057052,0
107.38,0.00049398,0
107.39,0.00038924,0
107.39,0.00027846,0
107.39,0.00014804,0
107.39,-2.1653e-05,0
107.39,-0.00017507,0
107.39,-0.00023868,0
107.39,-0.00022676,0
107.39,-0.00019571,0
107.39,-0.00016818,0
107.39,-0.0001368,0
107.39,-0.00011548,0
107.39,-0.00013042,0
107.39,-0.00012941,0
107.39,5.5894e-05,0
107.39,0.00039193,0
107.39,0.0006437,0
107.39,0.00067324,0
107.39,0.00051815,0
107.39,0.00027108,0
107.4,2.4674e-05,0
107.4,-0.00013243,0
107.4,-0.00015895,0
107.4,-8.8792e-05,0
107.4,-1.4603e-05,0
107.4,1.1749e-05,0
107.4,-2.6184e-05,0
107.4,-0.00010793,0
107.4,-0.00015761,0
107.4,-0.00016886,0
107.4,-0.00016852,0
107.4,-0.00014485,0
107.4,-0.0001044,0
107.4,-7.8386e-05,0
107.4,-8.1575e-05,0
107.4,-0.00010356,0
107.4,-0.00010927,0
107.4,-6.6804e-05,0
107.4,1.1582e-05,0
107.41,7.5364e-05,0
107.41,9.0471e-05,0
107.41,6.865e-05,0
107.41,4.213e-05,0
107.41,2.9374e-05,0
107.41,2.7359e-05,0
107.41,1.2421e-05,0
107.41,-1.7456e-05,0
107.41,-5.2201e-05,0
107.41,-8.6275e-05,0
107.41,-0.00013277,0
107.41,-0.00017943,0
107.41,-0.00019185,0
107.41,-0.00016751,0
107.41,-0.00015174,0
107.41,-0.0001613,0
107.41,-0.0001326,0
107.41,-3.3906e-05,0
107.41,8.04e-05,0
107.41,0.00013411,0
107.42,0.00012505,0
107.42,0.00010994,0
107.42,9.8192e-05,0
107.42,7.2007e-05,0
107.42,7.2343e-05,0
107.42,0.00012203,0
107.42,0.0001697,0
107.42,0.00015778,0
107.42,7.805e-05,0
107.42,-7.2175e-06,0
107.42,-5.2537e-05,0
107.42,-5.1362e-05,0
107.42,-2.031e-05,0
107.42,2.4002e-05,0
107.42,7.2343e-05,0
107.42,0.00012454,0
107.42,0.00018178,0
107.42,0.00023214,0
107.42,0.0002553,0
107.43,0.00024221,0
107.43,0.00020125,0
107.43,0.00014418,0
107.43,8.8457e-05,0
107.43,5.3376e-05,0
107.43,3.1052e-05,0
107.43,1.0407e-05,0
107.43,-8.2246e-06,0
107.43,-2.031e-05,0
107.43,-2.9038e-05,0
107.43,-3.7095e-05,0
107.43,-4.5319e-05,0
107.43,-5.304e-05,0
107.43,-5.5222e-05,0
107.43,-5.0187e-05,0
107.43,-4.1123e-05,0
107.43,-2.7863e-05,0
107.43,-1.091e-05,0
107.43,4.1962e-06,0
107.44,1.0071e-05,0
107.44,6.8818e-06,0
107.44,-3.0213e-06,0
107.44,-1.4435e-05,0
107.44,-2.1653e-05,0
107.44,-2.8199e-05,0
107.44,-3.6255e-05,0
107.44,-4.1123e-05,0
107.44,-3.6927e-05,0
107.44,-2.1653e-05,0
107.44,-1.8463e-06,0
107.44,3.6927e-06,0
107.44,-2.887e-05,0
107.44,-8.9128e-05,0
107.44,-0.00013915,0
107.44,-0.00015476,0
107.44,-0.00014166,0
107.44,-0.0001279,0
107.44,-0.00011984,0
107.44,-0.00010423,0
107.45,-7.6875e-05,0
107.45,-3.8605e-05,0
107.45,2.6352e-05,0
107.45,0.00014049,0
107.45,0.00032966,0
107.45,0.00052923,0
107.45,0.00057119,0
107.45,0.00041073,0
107.45,0.00016349,0
107.45,-2.8702e-05,0
107.45,-0.00012505,0
107.45,-0.0001519,0
107.45,-0.00015526,0
107.45,-0.00018212,0
107.45,-0.00021099,0
107.45,-0.00016751,0
107.45,-5.1194e-05,0
107.45,6.1265e-05,0
107.45,0.00013579,0
107.46,0.00018044,0
107.46,0.00021401,0
107.46,0.00025882,0
107.46,0.00027041,0
107.46,0.00020327,0
107.46,8.9799e-05,0
107.46,-1.0239e-05,0
107.46,-8.1239e-05,0
107.46,-0.00013176,0
107.46,-0.00016147,0
107.46,-0.0001697,0
107.46,-0.00016248,0
107.46,-0.00014922,0
107.46,-0.00012706,0
107.46,-8.6107e-05,0
107.46,-5.8244e-05,0
107.46,-7.5532e-05,0
107.46,-9.5506e-05,0
107.46,-7.3686e-05,0
107.47,-8.5603e-06,0
107.47,7.3182e-05,0
107.47,0.00013545,0
107.47,0.00015341,0
107.47,0.00011968,0
107.47,6.3783e-05,0
107.47,4.1794e-05,0
107.47,7.1839e-05,0
107.47,0.0001368,0
107.47,0.00018413,0
107.47,0.00017137,0
107.47,0.00013327,0
107.47,0.00011649,0
107.47,0.00011363,0
107.47,9.9367e-05,0
107.47,7.0832e-05,0
107.47,5.1698e-05,0
107.47,4.1291e-05,0
107.47,2.0478e-05,0
107.48,-1.1749e-05,0
107.48,-3.1724e-05,0
107.48,-2.4338e-05,0
107.48,-4.8676e-06,0
107.48,-1.6785e-06,0
107.48,-2.4674e-05,0
107.48,-5.3208e-05,0
107.48,-6.6636e-05,0
107.48,-8.1575e-05,0
107.48,-0.00011447,0
107.48,-0.0001378,0
107.48,-0.00012522,0
107.48,-9.5171e-05,0
107.48,-7.9057e-05,0
107.48,-8.51e-05,0
107.48,-0.00010507,0
107.48,-0.00012438,0
107.48,-0.00012337,0
107.48,-7.9561e-05,0
107.48,2.4842e-05,0
107.49,0.00016886,0
107.49,0.00030398,0
107.49,0.00040233,0
107.49,0.00044027,0
107.49,0.00041442,0
107.49,0.00034459,0
107.49,0.00026168,0
107.49,0.00018682,0
107.49,0.00011666,0
107.49,4.4816e-05,0
107.49,-4.5319e-06,0
107.49,3.1891e-06,0
107.49,2.9709e-05,0
107.49,2.3331e-05,0
107.49,-3.0381e-05,0
107.49,-0.00010709,0
107.49,-0.0001707,0
107.49,-0.00020696,0
107.49,-0.00021736,0
107.5,-0.00019857,0
107.5,-0.00014871,0
107.5,-9.2821e-05,0
107.5,-5.5894e-05,0
107.5,-5.0019e-05,0
107.5,-3.978e-05,0
107.5,2.3499e-06,0
107.5,6.1265e-05,0
107.5,0.00011078,0
107.5,0.00013545,0
107.5,0.00013814,0
107.5,0.00012203,0
107.5,9.5171e-05,0
107.5,7.2007e-05,0
107.5,5.9922e-05,0
107.5,5.4887e-05,0
107.5,4.5823e-05,0
107.5,2.0645e-05,0
107.5,-2.2156e-05,0
107.51,-7.7546e-05,0
107.51,-0.00016986,0
107.51,-0.00026168,0
107.51,-0.00024573,0
107.51,-0.00013713,0
107.51,-7.0832e-05,0
107.51,-0.00012018,0
107.51,-0.00020511,0
107.51,-0.00021434,0
107.51,-0.00012706,0
107.51,1.326e-05,0
107.51,0.0001697,0
107.51,0.0003268,0
107.51,0.00041106,0
107.51,0.00036205,0
107.51,0.00019789,0
107.51,1.0575e-05,0
107.51,-8.51e-05,0
107.51,-6.5461e-05,0
107.52,-1.2253e-05,0
107.52,1.7121e-05,0
107.52,4.3641e-05,0
107.52,8.9632e-05,0
107.52,0.000166,0
107.52,0.00024875,0
107.52,0.00029223,0
107.52,0.00028182,0
107.52,0.00022878,0
107.52,0.00014116,0
107.52,2.4002e-05,0
107.52,-0.00010272,0
107.52,-0.00018279,0
107.52,-0.00018094,0
107.52,-0.00013478,0
107.52,-8.6946e-05,0
107.52,-4.9348e-05,0
107.52,-1.5778e-05,0
107.52,1.8631e-05,0
107.52,5.069e-05,0
107.53,8.1407e-05,0
107.53,0.00011095,0
107.53,0.00010776,0
107.53,6.6972e-05,0
107.53,1.9135e-05,0
107.53,-1.6281e-05,0
107.53,-6.3279e-05,0
107.53,-0.00012656,0
107.53,-0.00018228,0
107.53,-0.00018631,0
107.53,-0.00011229,0
107.53,-1.6785e-06,0
107.53,0.00011749,0
107.53,0.00021434,0
107.53,0.00023012,0
107.53,0.00016432,0
107.53,8.0064e-05,0
107.53,2.2995e-05,0
107.53,-2.8534e-06,0
107.54,-2.8534e-06,0
107.54,-1.8463e-06,0
107.54,-3.1724e-05,0
107.54,-6.7643e-05,0
107.54,-7.3686e-05,0
107.54,-5.6565e-05,0
107.54,-4.3641e-05,0
107.54,-3.8605e-05,0
107.54,-3.0549e-05,0
107.54,-1.3764e-05,0
107.54,1.326e-05,0
107.54,4.7669e-05,0
107.54,7.0329e-05,0
107.54,7.1336e-05,0
107.54,6.3951e-05,0
107.54,6.0761e-05,0
107.54,6.2943e-05,0
107.54,5.8412e-05,0
107.54,3.122e-05,0
107.55,-1.4267e-05,0
107.55,-5.2369e-05,0
107.55,-6.949e-05,0
107.55,-7.2175e-05,0
107.55,-6.8315e-05,0
107.55,-5.6565e-05,0
107.55,-3.1052e-05,0
107.55,1.0071e-06,0
107.55,1.9135e-05,0
107.55,1.796e-05,0
107.55,1.561e-05,0
107.55,2.0645e-05,0
107.55,2.3331e-05,0
107.55,2.7527e-05,0
107.55,4.062e-05,0
107.55,5.1362e-05,0
107.55,4.4144e-05,0
107.55,1.2253e-05,0
107.55,-2.5681e-05,0
107.56,-5.069e-05,0
107.56,-5.7908e-05,0
107.56,-5.1362e-05,0
107.56,-3.6759e-05,0
107.56,-1.8967e-05,0
107.56,4.6998e-06,0
107.56,3.1388e-05,0
107.56,6.0594e-05,0
107.56,9.4499e-05,0
107.56,0.00010222,0
107.56,4.1627e-05,0
107.56,-4.6662e-05,0
107.56,-9.4163e-05,0
107.56,-7.8553e-05,0
107.56,-1.9638e-05,0
107.56,4.5319e-05,0
107.56,9.0303e-05,0
107.56,0.00010256,0
107.56,9.6849e-05,0
107.56,0.00011246,0
107.57,0.00016197,0
107.57,0.00022106,0
107.57,0.00025396,0
107.57,0.00024086,0
107.57,0.0001791,0
107.57,8.3421e-05,0
107.57,1.2421e-05,0
107.57,2.5177e-06,0
107.57,3.2731e-05,0
107.57,4.918e-05,0
107.57,2.031e-05,0
107.57,-3.5416e-05,0
107.57,-7.2175e-05,0
107.57,-6.3279e-05,0
107.57,-3.0381e-05,0
107.57,-1.4267e-05,0
107.57,-2.8367e-05,0
107.57,-6.9657e-05,0
107.57,-0.00012924,0
107.58,-0.00018346,0
107.58,-0.00020159,0
107.58,-0.00017725,0
107.58,-0.00013092,0
107.58,-9.2653e-05,0
107.58,-8.5435e-05,0
107.58,-7.4693e-05,0
107.58,-2.3163e-05,0
107.58,6.3279e-05,0
107.58,0.00016365,0
107.58,0.00025631,0
107.58,0.00031522,0
107.58,0.00032546,0
107.58,0.00028283,0
107.58,0.00020092,0
107.58,0.00011514,0
107.58,4.3809e-05,0
107.58,-3.4241e-05,0
107.58,-9.2821e-05,0
107.59,-0.00010054,0
107.59,-7.4693e-05,0
107.59,-1.9806e-05,0
107.59,6.1936e-05,0
107.59,0.00012119,0
107.59,0.00013109,0
107.59,8.5771e-05,0
107.59,1.7121e-05,0
107.59,-2.182e-05,0
107.59,-1.0575e-05,0
107.59,4.0116e-05,0
107.59,0.00010222,0
107.59,0.00013462,0
107.59,0.00015543,0
107.59,0.0001942,0
107.59,0.00022206,0
107.59,0.00022609,0
107.59,0.00021199,0
107.59,0.00017641,0
107.59,0.00011951,0
107.6,3.8773e-05,0
107.6,-5.2537e-05,0
107.6,-0.00011766,0
107.6,-0.0001331,0
107.6,-0.000118,0
107.6,-9.4331e-05,0
107.6,-8.04e-05,0
107.6,-0.00010188,0
107.6,-0.00016432,0
107.6,-0.00024086,0
107.6,-0.00027913,0
107.6,-0.00026537,0
107.6,-0.00022626,0
107.6,-0.00019336,0
107.6,-0.00017473,0
107.6,-0.00015492,0
107.6,-0.00011162,0
107.6,-3.1724e-05,0
107.6,7.7546e-05,0
107.61,0.00018245,0
107.61,0.00024791,0
107.61,0.00023851,0
107.61,0.00015862,0
107.61,5.6901e-05,0
107.61,-5.8747e-06,0
107.61,-1.6953e-05,0
107.61,1.8463e-06,0
107.61,3.0213e-05,0
107.61,5.8244e-05,0
107.61,8.2918e-05,0
107.61,0.00010692,0
107.61,0.00014385,0
107.61,0.0001942,0
107.61,0.00021971,0
107.61,0.00020578,0
107.61,0.00016953,0
107.61,0.00011028,0
107.61,2.9709e-05,0
107.62,-4.0955e-05,0
107.62,-6.5797e-05,0
107.62,-3.2395e-05,0
107.62,3.0716e-05,0
107.62,8.3085e-05,0
107.62,9.0135e-05,0
107.62,4.9516e-05,0
107.62,-7.2175e-06,0
107.62,-4.5823e-05,0
107.62,-5.304e-05,0
107.62,-3.743e-05,0
107.62,-2.0981e-05,0
107.62,-9.9031e-06,0
107.62,1.8631e-05,0
107.62,8.2246e-05,0
107.62,0.00014015,0
107.62,0.00013243,0
107.62,2.4842e-05,0
107.62,-0.00013713,0
107.63,-0.00025563,0
107.63,-0.00028249,0
107.63,-0.00023264,0
107.63,-0.00016197,0
107.63,-0.00011733,0
107.63,-0.00011951,0
107.63,-0.00014519,0
107.63,-0.00013579,0
107.63,-7.4357e-05,0
107.63,1.3931e-05,0
107.63,9.4331e-05,0
107.63,0.00013915,0
107.63,0.00014972,0
107.63,0.00014603,0
107.63,0.00013848,0
107.63,0.00013143,0
107.63,0.00012706,0
107.63,0.00012337,0
107.63,0.00012673,0
107.64,0.0001237,0
107.64,9.6178e-05,0
107.64,6.5629e-05,0
107.64,4.4984e-05,0
107.64,1.7121e-05,0
107.64,-5.1194e-05,0
107.64,-0.00016835,0
107.64,-0.00025496,0
107.64,-0.00025093,0
107.64,-0.00018766,0
107.64,-0.00011229,0
107.64,-5.5222e-05,0
107.64,-2.4002e-05,0
107.64,-5.0355e-06,0
107.64,2.5345e-05,0
107.64,7.57e-05,0
107.64,0.00013646,0
107.64,0.0001942,0
107.64,0.00022173,0
107.64,0.00020092,0
107.65,0.00014888,0
107.65,9.5171e-05,0
107.65,5.0858e-05,0
107.65,1.796e-05,0
107.65,-4.6998e-06,0
107.65,-2.0645e-05,0
107.65,-3.0549e-05,0
107.65,-3.3738e-05,0
107.65,-2.7359e-05,0
107.65,-1.7792e-05,0
107.65,-1.3764e-05,0
107.65,5.8747e-06,0
107.65,4.9516e-05,0
107.65,9.6513e-05,0
107.65,0.00011766,0
107.65,0.0001133,0
107.65,9.9535e-05,0
107.65,9.1981e-05,0
107.65,9.6513e-05,0
107.66,9.5506e-05,0
107.66,9.0639e-05,0
107.66,0.00012001,0
107.66,0.00021334,0
107.66,0.00033519,0
107.66,0.00036608,0
107.66,0.00022811,0
107.66,-2.7863e-05,0
107.66,-0.00030448,0
107.66,-0.00049549,0
107.66,-0.0005445,0
107.66,-0.00047938,0
107.66,-0.00035567,0
107.66,-0.00025328,0
107.66,-0.00021904,0
107.66,-0.00018849,0
107.66,-0.00010423,0
107.66,1.7121e-05,0
107.66,0.00015392,0
107.67,0.00033519,0
107.67,0.00047384,0
107.67,0.00044564,0
107.67,0.00029256,0
107.67,0.00015023,0
107.67,0.00010776,0
107.67,0.000166,0
107.67,0.00026403,0
107.67,0.00031254,0
107.67,0.00027695,0
107.67,0.00020092,0
107.67,0.00013277,0
107.67,8.9799e-05,0
107.67,6.5629e-05,0
107.67,4.5151e-05,0
107.67,2.3499e-05,0
107.67,1.7288e-05,0
107.67,3.1388e-05,0
107.67,5.1865e-05,0
107.67,6.5126e-05,0
107.68,7.6371e-05,0
107.68,8.5771e-05,0
107.68,6.9993e-05,0
107.68,3.0716e-05,0
107.68,7.2175e-06,0
107.68,-2.1653e-05,0
107.68,-1.1078e-05,0
107.68,8.4764e-05,0
107.68,0.00015459,0
107.68,9.7185e-05,0
107.68,-6.5126e-05,0
107.68,-0.00024959,0
107.68,-0.00041039,0
107.68,-0.00050086,0
107.68,-0.00050053,0
107.68,-0.00043473,0
107.68,-0.00033402,0
107.68,-0.00024456,0
107.68,-0.00020696,0
107.69,-0.00018245,0
107.69,-0.0001697,0
107.69,-0.00018363,0
107.69,-0.00019303,0
107.69,-0.00016164,0
107.69,-8.4428e-05,0
107.69,3.4577e-05,0
107.69,0.00019017,0
107.69,0.00030062,0
107.69,0.00028115,0
107.69,0.00016667,0
107.69,6.9993e-05,0
107.69,6.5293e-05,0
107.69,0.00012337,0
107.69,0.00016533,0
107.69,0.00019152,0
107.69,0.00022945,0
107.69,0.00026033,0
107.69,0.00029726,0
107.7,0.00032294,0
107.7,0.0003033,0
107.7,0.00023616,0
107.7,0.00014015,0
107.7,4.7333e-05,0
107.7,-9.3996e-06,0
107.7,-1.6281e-05,0
107.7,1.4603e-05,0
107.7,4.2466e-05,0
107.7,4.7837e-05,0
107.7,2.0813e-05,0
107.7,-3.9109e-05,0
107.7,-0.00010457,0
107.7,-0.00014284,0
107.7,-0.00014939,0
107.7,-0.00011531,0
107.7,-5.6901e-05,0
107.7,-3.2731e-05,0
107.7,-7.5532e-05,0
107.71,-0.00014788,0
107.71,-0.00019219,0
107.71,-0.00018027,0
107.71,-0.00012605,0
107.71,-8.191e-05,0
107.71,-5.153e-05,0
107.71,-2.182e-06,0
107.71,6.1265e-05,0
107.71,0.00011229,0
107.71,0.00013881,0
107.71,0.00015291,0
107.71,0.00017406,0
107.71,0.00020511,0
107.71,0.00022341,0
107.71,0.00020125,0
107.71,0.0001556,0
107.71,0.00012253,0
107.71,0.00010457,0
107.71,8.5435e-05,0
107.71,5.4887e-05,0
107.72,1.9974e-05,0
107.72,-2.6856e-06,0
107.72,-1.6281e-05,0
107.72,-3.8773e-05,0
107.72,-7.1e-05,0
107.72,-8.7114e-05,0
107.72,-7.4189e-05,0
107.72,-6.6133e-05,0
107.72,-8.3757e-05,0
107.72,-0.00010759,0
107.72,-0.00011162,0
107.72,-8.0232e-05,0
107.72,-3.0549e-05,0
107.72,-1.6785e-07,0
107.72,1.2253e-05,0
107.72,3.3402e-05,0
107.72,7.9728e-05,0
107.72,0.00013982,0
107.72,0.00018178,0
107.73,0.00018782,0
107.73,0.00015291,0
107.73,5.7908e-05,0
107.73,-7.7043e-05,0
107.73,-0.00015929,0
107.73,-0.00015375,0
107.73,-8.8121e-05,0
107.73,8.3925e-07,0
107.73,4.5487e-05,0
107.73,2.4002e-05,0
107.73,-1.091e-05,0
107.73,-1.8631e-05,0
107.73,-1.6281e-05,0
107.73,-2.5177e-06,0
107.73,5.9251e-05,0
107.73,0.00013764,0
107.73,0.00017607,0
107.73,0.0001603,0
107.73,0.00011363,0
107.74,7.8721e-05,0
107.74,4.8173e-05,0
107.74,-2.1988e-05,0
107.74,-0.0001044,0
107.74,-0.00013462,0
107.74,-9.3492e-05,0
107.74,-2.1149e-05,0
107.74,2.7695e-05,0
107.74,4.5487e-05,0
107.74,0.00010088,0
107.74,0.00019722,0
107.74,0.00021099,0
107.74,8.9632e-05,0
107.74,-2.8031e-05,0
107.74,-2.3499e-06,0
107.74,6.4286e-05,0
107.74,-1.3764e-05,0
107.74,-0.00020864,0
107.74,-0.00033838,0
107.75,-0.00030733,0
107.75,-0.00017658,0
107.75,-8.6107e-05,0
107.75,-6.9993e-05,0
107.75,-4.6998e-06,0
107.75,0.00011598,0
107.75,0.00020343,0
107.75,0.00025563,0
107.75,0.00028048,0
107.75,0.00028585,0
107.75,0.00029223,0
107.75,0.00029458,0
107.75,0.00028585,0
107.75,0.00025631,0
107.75,0.00020226,0
107.75,0.0001368,0
107.75,7.9728e-05,0
107.75,5.3208e-05,0
107.75,6.1936e-05,0
107.75,8.1743e-05,0
107.76,8.4428e-05,0
107.76,4.3641e-05,0
107.76,-3.6759e-05,0
107.76,-0.00011347,0
107.76,-0.00016164,0
107.76,-0.00018849,0
107.76,-0.00022324,0
107.76,-0.00025664,0
107.76,-0.00025362,0
107.76,-0.00020948,0
107.76,-0.0001472,0
107.76,-8.4092e-05,0
107.76,-3.2059e-05,0
107.76,-3.6927e-06,0
107.76,2.6017e-05,0
107.76,8.51e-05,0
107.76,0.0001556,0
107.76,0.0002083,0
107.76,0.00024942,0
107.77,0.00025211,0
107.77,0.00014116,0
107.77,-7.6204e-05,0
107.77,-0.00027578,0
107.77,-0.00035869,0
107.77,-0.00032949,0
107.77,-0.00025815,0
107.77,-0.00019118,0
107.77,-0.00013462,0
107.77,-8.661e-05,0
107.77,-4.2802e-05,0
107.77,1.3092e-05,0
107.77,7.5532e-05,0
107.77,0.00012572,0
107.77,0.00018497,0
107.77,0.00024388,0
107.77,0.00027376,0
107.77,0.0002647,0
107.77,0.00022979,0
107.78,0.00018212,0
107.78,0.0001368,0
107.78,0.0001039,0
107.78,9.4163e-05,0
107.78,0.00010558,0
107.78,0.00012538,0
107.78,0.00014284,0
107.78,0.00013646,0
107.78,8.5771e-05,0
107.78,9.2317e-06,0
107.78,-4.3809e-05,0
107.78,-5.7237e-05,0
107.78,-5.4551e-05,0
107.78,-5.1865e-05,0
107.78,-4.3977e-05,0
107.78,-2.9206e-05,0
107.78,-1.2924e-05,0
107.78,8.5603e-06,0
107.78,4.213e-05,0
107.78,8.8457e-05,0
107.79,0.00014653,0
107.79,0.00017977,0
107.79,0.0001561,0
107.79,8.2414e-05,0
107.79,-1.2253e-05,0
107.79,-9.1478e-05,0
107.79,-0.00014166,0
107.79,-0.00016567,0
107.79,-0.00017473,0
107.79,-0.00017171,0
107.79,-0.00014368,0
107.79,-7.4189e-05,0
107.79,2.3835e-05,0
107.79,0.00010323,0
107.79,0.00013277,0
107.79,0.00012387,0
107.79,0.00010373,0
107.79,8.04e-05,0
107.79,5.0355e-05,0
107.8,2.5345e-05,0
107.8,1.1078e-05,0
107.8,2.3499e-06,0
107.8,-3.1891e-06,0
107.8,-8.5603e-06,0
107.8,-2.1988e-05,0
107.8,-4.448e-05,0
107.8,-7.8386e-05,0
107.8,-0.0001321,0
107.8,-0.00018967,0
107.8,-0.00021921,0
107.8,-0.00020998,0
107.8,-0.00017691,0
107.8,-0.0001237,0
107.8,-5.4215e-05,0
107.8,1.1582e-05,0
107.8,8.0735e-05,0
107.8,0.00020125,0
107.8,0.000355,0
107.81,0.00044027,0
107.81,0.00039394,0
107.81,0.00024086,0
107.81,7.4022e-05,0
107.81,-3.3402e-05,0
107.81,-7.6371e-05,0
107.81,-0.00011833,0
107.81,-0.00017339,0
107.81,-0.00017641,0
107.81,-0.00012052,0
107.81,-8.6442e-05,0
107.81,-0.00012387,0
107.81,-0.00017104,0
107.81,-0.0001514,0
107.81,-7.4189e-05,0
107.81,1.7456e-05,0
107.81,0.00011531,0
107.81,0.00020125,0
107.81,0.00024489,0
107.82,0.00026403,0
107.82,0.0002694,0
107.82,0.00023079,0
107.82,0.00014939,0
107.82,7.1e-05,0
107.82,2.9374e-05,0
107.82,1.7288e-05,0
107.82,1.2589e-05,0
107.82,5.2033e-06,0
107.82,-5.0355e-07,0
107.82,2.3499e-06,0
107.82,9.0639e-06,0
107.82,1.2589e-05,0
107.82,1.326e-05,0
107.82,6.714e-06,0
107.82,4.5319e-06,0
107.82,2.266e-05,0
107.82,3.4745e-05,0
107.82,5.8747e-06,0
107.83,-5.7908e-05,0
107.83,-0.00011833,0
107.83,-0.00013948,0
107.83,-0.00013092,0
107.83,-0.00016181,0
107.83,-0.00026453,0
107.83,-0.0003404,0
107.83,-0.00030498,0
107.83,-0.00019101,0
107.83,-7.7379e-05,0
107.83,1.8967e-05,0
107.83,0.00011531,0
107.83,0.00017893,0
107.83,0.00018984,0
107.83,0.00019084,0
107.83,0.00022744,0
107.83,0.00029441,0
107.83,0.0003258,0
107.83,0.0002845,0
107.83,0.00023717,0
107.84,0.00022928,0
107.84,0.00023214,0
107.84,0.00020259,0
107.84,0.00013814,0
107.84,0.00010491,0
107.84,0.00014485,0
107.84,0.0001801,0
107.84,0.00013948,0
107.84,4.5151e-05,0
107.84,-4.4984e-05,0
107.84,-0.00010927,0
107.84,-0.00014066,0
107.84,-0.00014737,0
107.84,-0.00015274,0
107.84,-0.00016768,0
107.84,-0.00020478,0
107.84,-0.00024489,0
107.84,-0.00024506,0
107.84,-0.00019823,0
107.85,-0.00013361,0
107.85,-7.9393e-05,0
107.85,-4.8508e-05,0
107.85,-4.7837e-05,0
107.85,-8.0568e-05,0
107.85,-9.8863e-05,0
107.85,-6.2776e-05,0
107.85,9.0639e-06,0
107.85,7.6036e-05,0
107.85,0.00010155,0
107.85,7.9728e-05,0
107.85,2.8702e-05,0
107.85,-4.2802e-05,0
107.85,-0.00013545,0
107.85,-0.00023247,0
107.85,-0.00029004,0
107.85,-0.0002511,0
107.85,-0.00016735,0
107.85,-0.0001331,0
107.86,-0.00011431,0
107.86,-3.1388e-05,0
107.86,0.00013948,0
107.86,0.00034124,0
107.86,0.00049398,0
107.86,0.00054601,0
107.86,0.00049868,0
107.86,0.00039864,0
107.86,0.00030582,0
107.86,0.00026134,0
107.86,0.00024959,0
107.86,0.00024019,0
107.86,0.00024154,0
107.86,0.0002506,0
107.86,0.0002318,0
107.86,0.00019689,0
107.86,0.00014788,0
107.86,7.7043e-05,0
107.86,1.3092e-05,0
107.86,-2.4002e-05,0
107.87,-3.8437e-05,0
107.87,-4.2298e-05,0
107.87,-4.0955e-05,0
107.87,-3.5248e-05,0
107.87,-2.5345e-05,0
107.87,-5.7069e-06,0
107.87,2.2324e-05,0
107.87,4.1459e-05,0
107.87,7.2343e-05,0
107.87,0.0001039,0
107.87,7.2007e-05,0
107.87,-5.8244e-05,0
107.87,-0.00025127,0
107.87,-0.00041929,0
107.87,-0.00047837,0
107.87,-0.00039847,0
107.87,-0.00029038,0
107.87,-0.00025077,0
107.87,-0.00022274,0
107.88,-0.00014485,0
107.88,-4.5319e-05,0
107.88,4.0452e-05,0
107.88,0.0001133,0
107.88,0.00016835,0
107.88,0.00019857,0
107.88,0.00019017,0
107.88,0.00015811,0
107.88,0.0001603,0
107.88,0.0001754,0
107.88,0.00013277,0
107.88,3.508e-05,0
107.88,-5.153e-05,0
107.88,-9.1478e-05,0
107.88,-8.8792e-05,0
107.88,-5.7404e-05,0
107.88,-2.0981e-05,0
107.88,8.3925e-07,0
107.88,9.5674e-06,0
107.89,1.4603e-05,0
107.89,2.7695e-05,0
107.89,4.7166e-05,0
107.89,6.5629e-05,0
107.89,7.9561e-05,0
107.89,8.6442e-05,0
107.89,7.8553e-05,0
107.89,5.8579e-05,0
107.89,4.7166e-05,0
107.89,5.2873e-05,0
107.89,5.9922e-05,0
107.89,5.0858e-05,0
107.89,2.182e-05,0
107.89,-1.3428e-05,0
107.89,-3.8437e-05,0
107.89,-5.0523e-05,0
107.89,-6.3111e-05,0
107.89,-8.191e-05,0
107.89,-9.2821e-05,0
107.9,-9.3492e-05,0
107.9,-9.987e-05,0
107.9,-0.00010977,0
107.9,-0.00010658,0
107.9,-8.6107e-05,0
107.9,-5.623e-05,0
107.9,-1.9303e-05,0
107.9,1.796e-05,0
107.9,4.3305e-05,0
107.9,6.009e-05,0
107.9,7.805e-05,0
107.9,9.752e-05,0
107.9,0.00010994,0
107.9,0.00010658,0
107.9,9.4163e-05,0
107.9,8.4428e-05,0
107.9,7.0497e-05,0
107.9,3.2059e-05,0
107.9,-3.2395e-05,0
107.91,-0.00010423,0
107.91,-0.00016315,0
107.91,-0.00019219,0
107.91,-0.00019672,0
107.91,-0.00019202,0
107.91,-0.0001749,0
107.91,-0.00013344,0
107.91,-7.2343e-05,0
107.91,6.5461e-06,0
107.91,0.00010188,0
107.91,0.000213,0
107.91,0.00032445,0
107.91,0.00041006,0
107.91,0.00044833,0
107.91,0.00042684,0
107.91,0.00035702,0
107.91,0.00026537,0
107.91,0.00017742,0
107.91,0.00011263,0
107.91,7.4357e-05,0
107.92,5.2873e-05,0
107.92,3.5752e-05,0
107.92,1.7121e-05,0
107.92,-2.3499e-06,0
107.92,-1.3596e-05,0
107.92,-1.7288e-05,0
107.92,-1.6953e-05,0
107.92,-8.896e-06,0
107.92,1.2253e-05,0
107.92,3.5416e-05,0
107.92,4.1459e-05,0
107.92,1.9638e-05,0
107.92,-1.8631e-05,0
107.92,-4.448e-05,0
107.92,-5.1362e-05,0
107.92,-5.0858e-05,0
107.92,-4.1962e-05,0
107.92,-1.9303e-05,0
107.92,-1.5106e-06,0
107.93,-3.0213e-06,0
107.93,-2.9709e-05,0
107.93,-7.2847e-05,0
107.93,-9.0471e-05,0
107.93,-6.3279e-05,0
107.93,-1.9974e-05,0
107.93,2.3499e-05,0
107.93,5.6901e-05,0
107.93,7.6539e-05,0
107.93,8.7114e-05,0
107.93,9.7688e-05,0
107.93,0.00010726,0
107.93,9.8527e-05,0
107.93,5.8915e-05,0
107.93,2.0645e-05,0
107.93,-6.3783e-06,0
107.93,-2.1653e-05,0
107.93,-2.6184e-05,0
107.93,-3.2563e-05,0
107.94,-6.2104e-05,0
107.94,-9.836e-05,0
107.94,-9.987e-05,0
107.94,-5.8244e-05,0
107.94,-3.0213e-06,0
107.94,5.1194e-05,0
107.94,9.1478e-05,0
107.94,9.4835e-05,0
107.94,5.4551e-05,0
107.94,-1.7121e-05,0
107.94,-7.4525e-05,0
107.94,-7.0665e-05,0
107.94,-2.0645e-05,0
107.94,2.0981e-05,0
107.94,3.3402e-05,0
107.94,3.1388e-05,0
107.94,3.2059e-05,0
107.94,3.2395e-05,0
107.94,2.3331e-05,0
107.94,2.3667e-05,0
107.95,6.0929e-05,0
107.95,0.00012874,0
107.95,0.00018077,0
107.95,0.00018614,0
107.95,0.00013361,0
107.95,3.6927e-05,0
107.95,-5.0355e-05,0
107.95,-4.3473e-05,0
107.95,4.4984e-05,0
107.95,9.5338e-05,0
107.95,5.9586e-05,0
107.95,-8.7282e-06,0
107.95,-3.6088e-05,0
107.95,-1.6449e-05,0
107.95,1.6785e-07,0
107.95,-3.0213e-06,0
107.95,-1.7624e-05,0
107.95,-4.7501e-05,0
107.95,-7.805e-05,0
107.96,-8.9464e-05,0
107.96,-8.7114e-05,0
107.96,-8.4092e-05,0
107.96,-7.805e-05,0
107.96,-4.8676e-05,0
107.96,7.8889e-06,0
107.96,7.3182e-05,0
107.96,0.00011984,0
107.96,0.00013394,0
107.96,0.00010961,0
107.96,9.9535e-05,0
107.96,0.00012673,0
107.96,0.0001378,0
107.96,9.4835e-05,0
107.96,1.4099e-05,0
107.96,-6.5461e-05,0
107.96,-0.00011917,0
107.96,-0.00013999,0
107.96,-0.00011531,0
107.97,-5.8244e-05,0
107.97,-7.5532e-06,0
107.97,2.266e-05,0
107.97,3.743e-05,0
107.97,3.5416e-05,0
107.97,2.7359e-05,0
107.97,2.4674e-05,0
107.97,2.3331e-05,0
107.97,1.1749e-05,0
107.97,-2.1653e-05,0
107.97,-6.3447e-05,0
107.97,-8.6778e-05,0
107.97,-8.7114e-05,0
107.97,-6.9993e-05,0
107.97,-5.5222e-05,0
107.97,-9.752e-05,0
107.97,-0.00023062,0
107.97,-0.00036742,0
107.97,-0.00041257,0
107.98,-0.00035785,0
107.98,-0.00024002,0
107.98,-0.00010491,0
107.98,1.6449e-05,0
107.98,0.00012085,0
107.98,0.00020461,0
107.98,0.00026755,0
107.98,0.00033872,0
107.98,0.0004453,0
107.98,0.0005487,0
107.98,0.00056381,0
107.98,0.00047619,0
107.98,0.00035148,0
107.98,0.00023717,0
107.98,0.00014855,0
107.98,9.1478e-05,0
107.98,6.0258e-05,0
107.98,4.3977e-05,0
107.98,4.0116e-05,0
107.98,4.5319e-05,0
107.99,4.448e-05,0
107.99,2.2828e-05,0
107.99,-1.7456e-05,0
107.99,-5.069e-05,0
107.99,-6.4622e-05,0
107.99,-8.0064e-05,0
107.99,-0.00010474,0
107.99,-0.00014519,0
107.99,-0.00019303,0
107.99,-0.0002172,0
107.99,-0.00020797,0
107.99,-0.00016634,0
107.99,-0.00010625,0
107.99,-4.4144e-05,0
107.99,8.5603e-06,0
107.99,4.3809e-05,0
107.99,7.8721e-05,0
107.99,0.00012874,0
107.99,0.00017708,0
108,0.00019957,0
108,0.00020125,0
108,0.00019185,0
108,0.00016802,0
108,0.00012404,0
108,6.7811e-05,0
108,1.7288e-05,0
108,-6.8818e-06,0
108,-7.8889e-06,0
108,-7.2175e-06,0
