42.185,1.3092e-05,0
42.186,-3.1052e-05,0
42.186,-2.6688e-05,0
42.187,8.4092e-05,0
42.188,0.00025882,0
42.188,0.00036104,0
42.189,0.00032747,0
42.189,0.00023264,0
42.19,0.00015778,0
42.19,0.00010172,0
42.191,2.3667e-05,0
42.191,-0.00012287,0
42.192,-0.00032949,0
42.192,-0.00046947,0
42.193,-0.00042197,0
42.193,-0.00023633,0
42.194,-5.0019e-05,0
42.194,4.6159e-05,0
42.195,7.805e-05,0
42.195,0.00012438,0
42.196,0.00019236,0
42.196,0.00024825,0
42.197,0.00028618,0
42.197,0.00032277,0
42.198,0.00041643,0
42.198,0.00054568,0
42.199,0.00058798,0
42.199,0.0004725,0
42.2,0.00023784,0
42.2,-2.4002e-05,0
42.201,-0.00022257,0
42.202,-0.00034174,0
42.202,-0.00044346,0
42.203,-0.00053762,0
42.203,-0.0005821,0
42.204,-0.00054484,0
42.204,-0.00044211,0
42.205,-0.00031958,0
42.205,-0.00021888,0
42.206,-0.0001378,0
42.206,-6.1936e-05,0
42.207,1.561e-05,0
42.207,8.1071e-05,0
42.208,0.00011061,0
42.208,9.5338e-05,0
42.209,6.0929e-05,0
42.209,4.3641e-05,0
42.21,5.2537e-05,0
42.21,9.0974e-05,0
42.211,0.00017372,0
42.211,0.00029357,0
42.212,0.00034157,0
42.212,0.00024556,0
42.213,6.949e-05,0
42.213,-8.7282e-05,0
42.214,-0.00016886,0
42.215,-0.00016818,0
42.215,-0.0001133,0
42.216,-5.9922e-05,0
42.216,-1.561e-05,0
42.217,3.357e-05,0
42.217,6.0929e-05,0
42.218,4.1627e-05,0
42.218,-1.1414e-05,0
42.219,-5.2873e-05,0
42.219,-1.091e-05,0
42.22,0.0001321,0
42.22,0.00025631,0
42.221,0.00028383,0
42.221,0.00021065,0
42.222,7.2679e-05,0
42.222,-8.0735e-05,0
42.223,-0.00018614,0
42.223,-0.00019034,0
42.224,-7.805e-05,0
42.224,8.8121e-05,0
42.225,0.00020964,0
42.225,0.00024607,0
42.226,0.00024204,0
42.226,0.00023482,0
42.227,0.00022139,0
42.227,0.00019756,0
42.228,0.00014469,0
42.229,3.978e-05,0
42.229,-0.00010877,0
42.23,-0.00025597,0
42.23,-0.00032647,0
42.231,-0.00027477,0
42.231,-0.00013411,0
42.232,-8.2246e-06,0
42.232,3.8437e-05,0
42.233,1.561e-05,0
42.233,-1.7288e-05,0
42.234,1.0239e-05,0
42.234,0.00010256,0
42.235,0.00018967,0
42.235,0.00022676,0
42.236,0.00020629,0
42.236,0.00015392,0
42.237,0.00012471,0
42.237,0.00013982,0
42.238,0.00012992,0
42.238,5.3544e-05,0
42.239,-5.4383e-05,0
42.239,-0.00015627,0
42.24,-0.00025093,0
42.24,-0.00029558,0
42.241,-0.00025278,0
42.242,-0.00016332,0
42.242,-4.9516e-05,0
42.243,5.388e-05,0
42.243,8.8121e-05,0
42.244,6.5965e-05,0
42.244,5.4887e-05,0
42.245,7.9728e-05,0
42.245,0.00010994,0
42.246,0.00012001,0
42.246,0.00010356,0
42.247,7.1e-05,0
42.247,3.7766e-05,0
42.248,1.1246e-05,0
42.248,1.1749e-06,0
42.249,1.4099e-05,0
42.249,5.5726e-05,0
42.25,0.00012303,0
42.25,0.00020175,0
42.251,0.0002835,0
42.251,0.00036339,0
42.252,0.00038421,0
42.252,0.00031539,0
42.253,0.0001754,0
42.253,1.7792e-05,0
42.254,-0.00010071,0
42.254,-0.00016735,0
42.255,-0.00016416,0
42.256,-8.6946e-05,0
42.256,3.1891e-05,0
42.257,0.00014318,0
42.257,0.00020444,0
42.258,0.00019387,0
42.258,0.00010407,0
42.259,-2.2995e-05,0
42.259,-0.0001415,0
42.26,-0.00023952,0
42.26,-0.00028031,0
42.261,-0.00022727,0
42.261,-0.00015711,0
42.262,-0.0001566,0
42.262,-0.00015778,0
42.263,-9.3324e-05,0
42.263,-2.3667e-05,0
42.264,-1.1246e-05,0
42.264,-7.0329e-05,0
42.265,-0.0001791,0
42.265,-0.00025463,0
42.266,-0.00024321,0
42.266,-0.00017221,0
42.267,-0.00010423,0
42.267,-8.3925e-05,0
42.268,-0.00011179,0
42.269,-0.00014821,0
42.269,-0.00015677,0
42.27,-0.00012639,0
42.27,-6.9657e-05,0
42.271,-3.0045e-05,0
42.271,-1.091e-05,0
42.272,2.501e-05,0
42.272,7.6707e-05,0
42.273,0.00011246,0
42.273,0.00013042,0
42.274,0.00016063,0
42.274,0.00019521,0
42.275,0.00020461,0
42.275,0.00019118,0
42.276,0.00017641,0
42.276,0.00016835,0
42.277,0.00020394,0
42.277,0.00025966,0
42.278,0.00026973,0
42.278,0.00022408,0
42.279,0.00012438,0
42.279,-2.9374e-05,0
42.28,-0.00017255,0
42.28,-0.0002182,0
42.281,-0.00014536,0
42.281,-2.9877e-05,0
42.282,6.3279e-05,0
42.283,0.0001185,0
42.283,0.00013143,0
42.284,0.00010658,0
42.284,5.2705e-05,0
42.285,-6.714e-06,0
42.285,-1.8631e-05,0
42.286,2.3163e-05,0
42.286,7.4693e-05,0
42.287,0.00010037,0
42.287,9.9702e-05,0
42.288,0.00011196,0
42.288,0.00013193,0
42.289,0.00015291,0
42.289,0.0001848,0
42.29,0.00018447,0
42.29,0.00013478,0
42.291,7.335e-05,0
42.291,3.3066e-05,0
42.292,3.5248e-06,0
42.292,-3.3738e-05,0
42.293,-8.3757e-05,0
42.293,-0.0001133,0
42.294,-9.5674e-05,0
42.294,-3.1891e-05,0
42.295,7.2343e-05,0
42.295,0.00014888,0
42.296,0.00013344,0
42.297,3.5416e-05,0
42.297,-8.3589e-05,0
42.298,-0.00014586,0
42.298,-0.00016902,0
42.299,-0.00018178,0
42.299,-0.00016382,0
42.3,-0.00010927,0
42.3,-4.8844e-05,0
42.301,-2.182e-06,0
42.301,3.1724e-05,0
42.302,4.8173e-05,0
42.302,3.743e-05,0
42.303,1.2421e-05,0
42.303,-1.0071e-06,0
42.304,5.623e-05,0
42.304,0.00022626,0
42.305,0.00039193,0
42.305,0.00041828,0
42.306,0.00030028,0
42.306,0.00010507,0
42.307,-0.00010423,0
42.307,-0.00028954,0
42.308,-0.00043238,0
42.308,-0.00048106,0
42.309,-0.00043876,0
42.31,-0.00031891,0
42.31,-0.00014066,0
42.311,3.3402e-05,0
42.311,0.00014536,0
42.312,0.00019084,0
42.312,0.00019957,0
42.313,0.00020192,0
42.313,0.00021065,0
42.314,0.00021703,0
42.314,0.00021233,0
42.315,0.00019387,0
42.315,0.00016063,0
42.316,0.00011397,0
42.316,4.8173e-05,0
42.317,-3.508e-05,0
42.317,-9.6178e-05,0
42.318,-8.6442e-05,0
42.318,-1.8296e-05,0
42.319,4.3305e-05,0
42.319,6.0929e-05,0
42.32,5.1865e-05,0
42.32,5.0858e-05,0
42.321,7.0665e-05,0
42.321,0.00010088,0
42.322,0.00011263,0
42.322,9.6178e-05,0
42.323,6.8986e-05,0
42.324,6.63e-05,0
42.324,8.6442e-05,0
42.325,9.3996e-05,0
42.325,5.9083e-05,0
42.326,-2.3667e-05,0
42.326,-0.00015258,0
42.327,-0.00027846,0
42.327,-0.0003023,0
42.328,-0.00021485,0
42.328,-0.00010709,0
42.329,-4.4312e-05,0
42.329,-1.8967e-05,0
42.33,-3.8605e-06,0
42.33,1.1749e-05,0
42.331,4.5823e-05,0
42.331,0.0001133,0
42.332,0.00018312,0
42.332,0.00022895,0
42.333,0.00025563,0
42.333,0.00028182,0
42.334,0.00032982,0
42.334,0.00035232,0
42.335,0.00025161,0
42.335,3.8102e-05,0
42.336,-0.00015862,0
42.337,-0.00025597,0
42.337,-0.00026889,0
42.338,-0.00024154,0
42.338,-0.00022139,0
42.339,-0.00021468,0
42.339,-0.00018866,0
42.34,-0.00015526,0
42.34,-0.00011162,0
42.341,-2.5513e-05,0
42.341,9.5171e-05,0
42.342,0.000189,0
42.342,0.00022173,0
42.343,0.00019705,0
42.343,0.0001321,0
42.344,5.9922e-05,0
42.344,-6.0426e-06,0
42.345,-7.0161e-05,0
42.345,-0.00012471,0
42.346,-0.00013176,0
42.346,-7.0497e-05,0
42.347,3.6255e-05,0
42.347,0.00015291,0
42.348,0.00022609,0
42.348,0.00022878,0
42.349,0.00019588,0
42.349,0.00016432,0
42.35,0.00013411,0
42.351,0.0001091,0
42.351,7.7211e-05,0
42.352,3.8102e-05,0
42.352,8.5603e-06,0
42.353,-5.539e-06,0
42.353,-2.8367e-05,0
42.354,-6.6804e-05,0
42.354,-9.7185e-05,0
42.355,-8.9799e-05,0
42.355,-4.0452e-05,0
42.356,-1.0407e-05,0
42.356,-3.3066e-05,0
42.357,-3.2059e-05,0
42.357,4.0116e-05,0
42.358,0.00011733,0
42.358,0.00012522,0
42.359,5.9586e-05,0
42.359,-4.0452e-05,0
42.36,-0.00013059,0
42.36,-0.00017087,0
42.361,-0.0001561,0
42.361,-0.0001133,0
42.362,-7.8386e-05,0
42.362,-8.275e-05,0
42.363,-0.00012303,0
42.364,-0.00017121,0
42.364,-0.00022542,0
42.365,-0.00026336,0
42.365,-0.00025245,0
42.366,-0.000189,0
42.366,-0.00010407,0
42.367,-3.7095e-05,0
42.367,4.1962e-06,0
42.368,4.5151e-05,0
42.368,0.00010977,0
42.369,0.00019034,0
42.369,0.00024607,0
42.37,0.0002553,0
42.37,0.00022811,0
42.371,0.00020125,0
42.371,0.00020092,0
42.372,0.00020494,0
42.372,0.00018178,0
42.373,0.00012656,0
42.373,7.4693e-05,0
42.374,6.0426e-05,0
42.374,8.0232e-05,0
42.375,0.00010574,0
42.375,0.00011498,0
42.376,0.00013713,0
42.377,0.00018161,0
42.377,0.0001895,0
42.378,0.00013948,0
42.378,8.0064e-05,0
42.379,2.4674e-05,0
42.379,-3.8437e-05,0
42.38,-0.00010088,0
42.38,-0.00014687,0
42.381,-0.0001843,0
42.381,-0.00021065,0
42.382,-0.00016684,0
42.382,-4.8508e-05,0
42.383,5.8915e-05,0
42.383,9.752e-05,0
42.384,8.5771e-05,0
42.384,7.1e-05,0
42.385,6.9154e-05,0
42.385,6.7643e-05,0
42.386,5.3544e-05,0
42.386,3.8605e-05,0
42.387,4.4144e-05,0
42.387,6.949e-05,0
42.388,9.6513e-05,0
42.388,0.00011229,0
42.389,0.00011296,0
42.389,0.00010709,0
42.39,9.5842e-05,0
42.391,8.0568e-05,0
42.391,6.1433e-05,0
42.392,4.0787e-05,0
42.392,2.4002e-05,0
42.393,1.3764e-05,0
42.393,4.1962e-06,0
42.394,2.5177e-06,0
42.394,1.6281e-05,0
42.395,3.0716e-05,0
42.395,2.652e-05,0
42.396,1.6785e-07,0
42.396,-3.592e-05,0
42.397,-5.9419e-05,0
42.397,-5.6733e-05,0
42.398,-3.3402e-05,0
42.398,-1.5946e-05,0
42.399,-1.561e-05,0
42.399,-1.5274e-05,0
42.4,1.6785e-06,0
42.4,3.1052e-05,0
42.401,5.5894e-05,0
42.401,6.4958e-05,0
42.402,5.7404e-05,0
42.402,3.743e-05,0
42.403,6.3783e-06,0
42.404,-4.1291e-05,0
42.404,-9.7688e-05,0
42.405,-0.00013394,0
42.405,-0.00012169,0
42.406,-6.9322e-05,0
42.406,-1.9806e-05,0
42.407,6.3783e-06,0
42.407,3.2731e-05,0
42.408,6.7475e-05,0
42.408,9.5506e-05,0
42.409,0.00010726,0
42.409,0.00010658,0
42.41,0.00010893,0
42.41,0.00012438,0
42.411,0.00013848,0
42.411,0.00012874,0
42.412,9.6178e-05,0
42.412,6.1601e-05,0
42.413,4.0452e-05,0
42.413,3.0213e-05,0
42.414,3.1052e-05,0
42.414,4.7837e-05,0
42.415,8.3421e-05,0
42.415,0.00011783,0
42.416,0.00011766,0
42.416,7.9393e-05,0
42.417,2.266e-05,0
42.418,-3.8773e-05,0
42.418,-9.0471e-05,0
42.419,-0.00011095,0
42.419,-0.00010188,0
42.42,-9.3156e-05,0
42.42,-9.8695e-05,0
42.421,-0.00010272,0
42.421,-0.0001086,0
42.422,-0.00014385,0
42.422,-0.00020075,0
42.423,-0.00020931,0
42.423,-0.00011984,0
42.424,1.1749e-05,0
42.424,9.1814e-05,0
42.425,8.1239e-05,0
42.425,9.9031e-06,0
42.426,-5.7908e-05,0
42.426,-7.4357e-05,0
42.427,-4.9348e-05,0
42.427,-2.1653e-05,0
42.428,-9.9031e-06,0
42.428,-1.091e-05,0
42.429,-6.5461e-06,0
42.429,8.2246e-06,0
42.43,3.8102e-05,0
42.431,7.7211e-05,0
42.431,0.00011615,0
42.432,0.00014788,0
42.432,0.00018312,0
42.433,0.00022509,0
42.433,0.00024086,0
42.434,0.00021032,0
42.434,0.00016751,0
42.435,0.00014553,0
42.435,0.00012421,0
42.436,7.6371e-05,0
42.436,7.8889e-06,0
42.437,-2.9709e-05,0
42.437,2.1317e-05,0
42.438,0.00010591,0
42.438,0.00011666,0
42.439,3.743e-05,0
42.439,-7.2175e-05,0
42.44,-0.0001603,0
42.44,-0.00020108,0
42.441,-0.00017826,0
42.441,-0.00010256,0
42.442,-8.896e-06,0
42.442,7.3854e-05,0
42.443,0.00012605,0
42.443,0.00013545,0
42.444,0.00011867,0
42.445,9.0639e-05,0
42.445,5.8915e-05,0
42.446,3.0381e-05,0
42.446,6.2104e-06,0
42.447,-2.0645e-05,0
42.447,-3.3738e-05,0
42.448,-1.0239e-05,0
42.448,2.0813e-05,0
42.449,1.9974e-05,0
42.449,-4.3641e-06,0
42.45,-2.2995e-05,0
42.45,-2.0478e-05,0
42.451,5.2033e-06,0
42.451,4.6662e-05,0
42.452,7.6539e-05,0
42.452,7.2679e-05,0
42.453,3.0549e-05,0
42.453,-1.9303e-05,0
42.454,-1.3931e-05,0
42.454,4.2466e-05,0
42.455,7.2175e-05,0
42.455,5.7237e-05,0
42.456,2.031e-05,0
42.456,-3.2731e-05,0
42.457,-9.0806e-05,0
42.458,-0.00012505,0
42.458,-0.00012018,0
42.459,-9.5171e-05,0
42.459,-7.6204e-05,0
42.46,-5.8579e-05,0
42.46,-2.4674e-05,0
42.461,2.2492e-05,0
42.461,6.479e-05,0
42.462,9.4499e-05,0
42.462,0.00012639,0
42.463,0.00017339,0
42.463,0.00022576,0
42.464,0.00025899,0
42.464,0.00024456,0
42.465,0.00017977,0
42.465,9.7688e-05,0
42.466,4.5151e-05,0
42.466,2.1988e-05,0
42.467,-4.5319e-06,0
42.467,-3.592e-05,0
42.468,-7.8721e-05,0
42.468,-0.00014116,0
42.469,-0.00017758,0
42.469,-0.00015627,0
42.47,-0.00010658,0
42.47,-7.9393e-05,0
42.471,-9.7353e-05,0
42.472,-0.00013025,0
42.472,-0.00014586,0
42.473,-0.0001425,0
42.473,-0.00011347,0
42.474,-5.3544e-05,0
42.474,1.4267e-05,0
42.475,6.1097e-05,0
42.475,7.9728e-05,0
42.476,8.4092e-05,0
42.476,0.00010675,0
42.477,0.00014452,0
42.477,0.00015761,0
42.478,0.00014989,0
42.478,0.00013277,0
42.479,8.9799e-05,0
42.479,2.6688e-05,0
42.48,-2.6184e-05,0
42.48,-6.7308e-05,0
42.481,-0.00010759,0
42.481,-0.00013008,0
42.482,-0.00011128,0
42.482,-6.1601e-05,0
42.483,-6.8818e-06,0
42.483,4.9516e-05,0
42.484,0.0001039,0
42.484,0.00014284,0
42.485,0.0001603,0
42.486,0.00016818,0
42.486,0.00016735,0
42.487,0.00015157,0
42.487,0.00011968,0
42.488,7.3182e-05,0
42.488,1.5946e-05,0
42.489,-5.2369e-05,0
42.489,-0.00010172,0
42.49,-9.6513e-05,0
42.49,-4.8676e-05,0
42.491,-8.3925e-07,0
42.491,2.1653e-05,0
42.492,1.9974e-05,0
42.492,9.0639e-06,0
42.493,1.1078e-05,0
42.493,2.9709e-05,0
42.494,5.1865e-05,0
42.494,7.4861e-05,0
42.495,0.00011783,0
42.495,0.00018782,0
42.496,0.00025127,0
42.496,0.00027779,0
42.497,0.00026537,0
42.497,0.00021367,0
42.498,0.00013344,0
42.499,4.5151e-05,0
42.499,-3.0381e-05,0
42.5,-9.366e-05,0
42.5,-0.00017205,0
42.501,-0.00025782,0
42.501,-0.00028031,0
42.502,-0.00021501,0
42.502,-0.00010793,0
42.503,-1.1917e-05,0
42.503,5.8915e-05,0
42.504,0.0001091,0
42.504,0.00013915,0
42.505,0.0001514,0
42.505,0.00014351,0
42.506,0.00011196,0
42.506,5.7572e-05,0
42.507,6.5461e-06,0
42.507,-2.031e-05,0
42.508,-4.5823e-05,0
42.508,-7.4022e-05,0
42.509,-8.1239e-05,0
42.509,-6.3951e-05,0
42.51,-5.3208e-05,0
42.51,-4.2802e-05,0
42.511,6.5461e-06,0
42.511,8.6778e-05,0
42.512,0.00017154,0
42.513,0.00025664,0
42.513,0.00028484,0
42.514,0.00020444,0
42.514,3.743e-05,0
42.515,-0.00015526,0
42.515,-0.00031673,0
42.516,-0.00041408,0
42.516,-0.00043658,0
42.517,-0.00039495,0
42.517,-0.00031791,0
42.518,-0.00024271,0
42.518,-0.00018044,0
42.519,-0.00010423,0
42.519,2.182e-06,0
42.52,0.00010188,0
42.52,0.0001613,0
42.521,0.00018044,0
42.521,0.00017221,0
42.522,0.00014804,0
42.522,0.00012052,0
42.523,0.00010457,0
42.523,0.00010726,0
42.524,0.0001227,0
42.524,0.00013344,0
42.525,0.00012807,0
42.526,0.00010726,0
42.526,8.7449e-05,0
42.527,9.0974e-05,0
42.527,0.00011699,0
42.528,0.00013227,0
42.528,0.00011968,0
42.529,9.4667e-05,0
42.529,6.5293e-05,0
42.53,2.2995e-05,0
42.53,-2.2492e-05,0
42.531,-2.4338e-05,0
42.531,1.4939e-05,0
42.532,4.2466e-05,0
42.532,2.4506e-05,0
42.533,4.5319e-06,0
42.533,4.213e-05,0
42.534,0.00010524,0
42.534,0.00013999,0
42.535,0.00012186,0
42.535,4.0787e-05,0
42.536,-4.6494e-05,0
42.536,-8.5267e-05,0
42.537,-7.9393e-05,0
42.537,-3.8605e-05,0
42.538,2.3499e-05,0
42.538,6.7979e-05,0
42.539,7.5029e-05,0
42.54,5.0019e-05,0
42.54,9.2317e-06,0
42.541,-8.896e-06,0
42.541,7.8889e-06,0
42.542,3.2059e-05,0
42.542,4.7166e-05,0
42.543,6.3279e-05,0
42.543,9.7856e-05,0
42.544,0.00014116,0
42.544,0.00016751,0
42.545,0.00016298,0
42.545,0.0001274,0
42.546,7.4357e-05,0
42.546,1.6785e-05,0
42.547,3.8605e-06,0
42.547,7.5868e-05,0
42.548,0.00016298,0
42.548,0.00015962,0
42.549,4.7333e-05,0
42.549,-9.9535e-05,0
42.55,-0.00018782,0
42.55,-0.00018178,0
42.551,-0.00012706,0
42.551,-8.661e-05,0
42.552,-8.2414e-05,0
42.553,-7.805e-05,0
42.553,-1.561e-05,0
42.554,7.6707e-05,0
42.554,0.00012136,0
42.555,9.5842e-05,0
42.555,3.7095e-05,0
42.556,-1.5946e-05,0
42.556,-5.8579e-05,0
42.557,-8.8457e-05,0
42.557,-8.7953e-05,0
42.558,-5.9922e-05,0
42.558,-4.2802e-05,0
42.559,-6.4286e-05,0
42.559,-9.4499e-05,0
42.56,-0.00010222,0
42.56,-9.4499e-05,0
42.561,-7.2343e-05,0
42.561,-1.5946e-05,0
42.562,5.153e-05,0
42.562,7.6036e-05,0
42.563,5.7572e-05,0
42.563,3.592e-05,0
42.564,1.3596e-05,0
42.564,-2.3835e-05,0
42.565,-4.2802e-05,0
42.566,-1.561e-05,0
42.566,2.9374e-05,0
42.567,4.7333e-05,0
42.567,5.7572e-05,0
42.568,8.04e-05,0
42.568,8.04e-05,0
42.569,3.9445e-05,0
42.569,3.1891e-06,0
42.57,-5.2033e-06,0
42.57,-1.1749e-06,0
42.571,2.0645e-05,0
42.571,7.2679e-05,0
42.572,0.000118,0
42.572,0.00012941,0
42.573,0.00011917,0
42.573,0.00010457,0
42.574,8.9464e-05,0
42.574,5.3376e-05,0
42.575,-3.8605e-06,0
42.575,-5.4551e-05,0
42.576,-6.6636e-05,0
42.576,-3.3738e-05,0
42.577,3.8605e-06,0
42.577,-7.3854e-06,0
42.578,-4.5151e-05,0
42.578,-3.508e-05,0
42.579,3.8605e-05,0
42.58,0.0001274,0
42.58,0.00021602,0
42.581,0.00027376,0
42.581,0.00023986,0
42.582,0.00012018,0
42.582,6.714e-06,0
42.583,-2.5345e-05,0
42.583,7.2175e-06,0
42.584,5.0187e-05,0
42.584,6.3951e-05,0
42.585,2.7024e-05,0
42.585,-5.4887e-05,0
42.586,-9.6849e-05,0
42.586,-2.501e-05,0
42.587,7.4693e-05,0
42.587,9.8192e-05,0
42.588,8.3757e-05,0
42.588,8.4932e-05,0
42.589,6.7811e-05,0
42.589,4.5319e-06,0
42.59,-7.4525e-05,0
42.59,-0.00013428,0
42.591,-0.00020662,0
42.591,-0.00031992,0
42.592,-0.00041442,0
42.593,-0.00039596,0
42.593,-0.00024959,0
42.594,-6.3279e-05,0
42.594,0.00010121,0
42.595,0.0002365,0
42.595,0.00033452,0
42.596,0.00034896,0
42.596,0.00025966,0
42.597,0.00011313,0
42.597,-2.8702e-05,0
42.598,-0.00013478,0
42.598,-0.00019622,0
42.599,-0.0001744,0
42.599,-7.0329e-05,0
42.6,5.0355e-05,0
42.6,0.00013545,0
42.601,0.00018346,0
42.601,0.00019789,0
42.602,0.00017272,0
42.602,0.00011145,0
42.603,4.0452e-05,0
42.603,-1.326e-05,0
42.604,-4.1459e-05,0
42.604,-5.388e-05,0
42.605,-5.8579e-05,0
42.605,-5.1865e-05,0
42.606,-3.5248e-05,0
42.607,3.1891e-06,0
42.607,7.3686e-05,0
42.608,0.00015274,0
42.608,0.00023079,0
42.609,0.00031673,0
42.609,0.00035634,0
42.61,0.00030851,0
42.61,0.00020696,0
42.611,0.0001232,0
42.611,0.00010507,0
42.612,0.00010658,0
42.612,7.7714e-05,0
42.613,1.796e-05,0
42.613,-5.6565e-05,0
42.614,-0.00011598,0
42.614,-0.00015795,0
42.615,-0.00019588,0
42.615,-0.00021804,0
42.616,-0.00020041,0
42.616,-0.00013344,0
42.617,-3.0381e-05,0
42.617,2.1653e-05,0
42.618,-3.9109e-05,0
42.618,-0.00014939,0
42.619,-0.00022223,0
42.62,-0.0002224,0
42.62,-0.00017339,0
42.621,-0.00010423,0
42.621,-4.3137e-05,0
42.622,1.6785e-07,0
42.622,4.3473e-05,0
42.623,0.0001039,0
42.623,0.00015023,0
42.624,0.0001472,0
42.624,0.00010457,0
42.625,6.8986e-05,0
42.625,6.1601e-05,0
42.626,6.5965e-05,0
42.626,5.6901e-05,0
42.627,2.4002e-05,0
42.627,1.6785e-07,0
42.628,3.3402e-05,0
42.628,0.00010289,0
42.629,0.00014536,0
42.629,0.00014754,0
42.63,0.00013277,0
42.63,0.00010054,0
42.631,4.7837e-05,0
42.631,-8.3925e-07,0
42.632,-1.1246e-05,0
42.632,2.2828e-05,0
42.633,0.00010155,0
42.634,0.00020645,0
42.634,0.00028283,0
42.635,0.00030163,0
42.635,0.00026134,0
42.636,0.00018161,0
42.636,9.8024e-05,0
42.637,4.8844e-05,0
42.637,4.1794e-05,0
42.638,3.9109e-05,0
42.638,-1.1582e-05,0
42.639,-0.00011951,0
42.639,-0.00020964,0
42.64,-0.00022274,0
42.64,-0.00019655,0
42.641,-0.00017977,0
42.641,-0.00016802,0
42.642,-0.00015123,0
42.642,-0.00013176,0
42.643,-8.426e-05,0
42.643,-8.2246e-06,0
42.644,4.4984e-05,0
42.644,6.7979e-05,0
42.645,5.8244e-05,0
42.645,1.5106e-05,0
42.646,-3.0381e-05,0
42.647,-5.2033e-05,0
42.647,-5.5726e-05,0
42.648,-5.9922e-05,0
42.648,-6.5965e-05,0
42.649,-7.0161e-05,0
42.649,-6.865e-05,0
42.65,-3.2395e-05,0
42.65,4.213e-05,0
42.651,0.00010071,0
42.651,9.1478e-05,0
42.652,2.7863e-05,0
42.652,-3.0884e-05,0
42.653,-3.7766e-05,0
42.653,8.896e-06,0
42.654,8.0903e-05,0
42.654,0.00016231,0
42.655,0.00021871,0
42.655,0.00021787,0
42.656,0.00016701,0
42.656,0.00010105,0
42.657,4.918e-05,0
42.657,2.6688e-05,0
42.658,5.3544e-05,0
42.658,9.0135e-05,0
42.659,6.2776e-05,0
42.659,-3.8605e-06,0
42.66,-1.7288e-05,0
42.661,3.9612e-05,0
42.661,0.00011632,0
42.662,0.0001556,0
42.662,0.00014284,0
42.663,0.00010944,0
42.663,0.00012203,0
42.664,0.00018463,0
42.664,0.0002125,0
42.665,0.00015325,0
42.665,3.5752e-05,0
42.666,-7.3014e-05,0
42.666,-0.00011263,0
42.667,-6.0594e-05,0
42.667,7.3854e-06,0
42.668,1.4435e-05,0
42.668,-2.3331e-05,0
42.669,-5.2873e-05,0
42.669,-5.153e-05,0
42.67,-5.3208e-05,0
42.67,-0.00011917,0
42.671,-0.00025866,0
42.671,-0.00040636,0
42.672,-0.00047568,0
42.672,-0.00041526,0
42.673,-0.00026218,0
42.673,-0.00011196,0
42.674,-2.1317e-05,0
42.675,3.7095e-05,0
42.675,0.00011061,0
42.676,0.00016701,0
42.676,0.00014166,0
42.677,3.7095e-05,0
42.677,-9.3996e-05,0
42.678,-0.00023919,0
42.678,-0.00037514,0
42.679,-0.00040183,0
42.679,-0.00022995,0
42.68,9.366e-05,0
42.68,0.00037716,0
42.681,0.00047417,0
42.681,0.00040267,0
42.682,0.00028719,0
42.682,0.00020847,0
42.683,0.00017507,0
42.683,0.00016617,0
42.684,0.00015023,0
42.684,0.00012236,0
42.685,0.0001237,0
42.685,0.00014133,0
42.686,0.00012706,0
42.686,7.3686e-05,0
42.687,1.8463e-05,0
42.688,2.182e-06,0
42.688,1.2253e-05,0
42.689,-1.7792e-05,0
42.689,-8.3253e-05,0
42.69,-9.2485e-05,0
42.69,-1.091e-05,0
42.691,0.00011531,0
42.691,0.00020092,0
42.692,0.00018447,0
42.692,6.4286e-05,0
42.693,-7.6707e-05,0
42.693,-0.0001514,0
42.694,-0.00014754,0
42.694,-8.8289e-05,0
42.695,-1.0575e-05,0
42.695,5.4047e-05,0
42.696,8.3085e-05,0
42.696,8.2414e-05,0
42.697,8.661e-05,0
42.697,0.00013042,0
42.698,0.00018212,0
42.698,0.00016768,0
42.699,8.2414e-05,0
42.699,-1.326e-05,0
42.7,-5.4551e-05,0
42.7,-2.887e-05,0
42.701,-3.0213e-06,0
42.702,-3.0381e-05,0
42.702,-9.5003e-05,0
42.703,-0.00014435,0
42.703,-0.00015157,0
42.704,-0.00012639,0
42.704,-7.6204e-05,0
42.705,1.8463e-05,0
42.705,0.00013948,0
42.706,0.00024623,0
42.706,0.00029055,0
42.707,0.00024623,0
42.707,0.0001462,0
42.708,6.3279e-05,0
42.708,1.4603e-05,0
42.709,-4.2802e-05,0
42.709,-0.00011145,0
42.71,-0.00011951,0
42.71,-4.9851e-05,0
42.711,2.7359e-05,0
42.711,6.7308e-05,0
42.712,7.7714e-05,0
42.712,7.1336e-05,0
42.713,5.0187e-05,0
42.713,2.3667e-05,0
42.714,1.0071e-05,0
42.715,9.9031e-06,0
42.715,3.357e-06,0
42.716,-2.6184e-05,0
42.716,-5.3208e-05,0
42.717,-3.3906e-05,0
42.717,2.182e-05,0
42.718,7.1336e-05,0
42.718,8.7114e-05,0
42.719,6.1097e-05,0
42.719,1.796e-05,0
42.72,-1.561e-05,0
42.72,-4.2802e-05,0
42.721,-4.1794e-05,0
42.721,-9.5674e-06,0
42.722,1.5778e-05,0
42.722,2.9206e-05,0
42.723,4.5151e-05,0
42.723,6.4958e-05,0
42.724,7.6875e-05,0
42.724,7.7714e-05,0
42.725,7.9393e-05,0
42.725,8.8457e-05,0
42.726,0.0001034,0
42.726,0.00010541,0
42.727,8.9128e-05,0
42.727,7.0161e-05,0
42.728,7.2007e-05,0
42.729,8.9967e-05,0
42.729,9.7856e-05,0
42.73,7.3854e-05,0
42.73,1.0575e-05,0
42.731,-7.6036e-05,0
42.731,-0.00014838,0
42.732,-0.00017137,0
42.732,-0.0001472,0
42.733,-9.6178e-05,0
42.733,3.8605e-06,0
42.734,0.00018564,0
42.734,0.00033553,0
42.735,0.00032613,0
42.735,0.00014452,0
42.736,-0.00011246,0
42.736,-0.00030549,0
42.737,-0.00034292,0
42.737,-0.00027259,0
42.738,-0.00018833,0
42.738,-0.00014351,0
42.739,-7.2847e-05,0
42.739,8.2246e-05,0
42.74,0.00023616,0
42.74,0.00028988,0
42.741,0.00025161,0
42.742,0.0001848,0
42.742,0.00010054,0
42.743,-8.3925e-07,0
42.743,-6.6468e-05,0
42.744,-7.8553e-05,0
42.744,-8.8792e-05,0
42.745,-0.00011481,0
42.745,-0.00012018,0
42.746,-9.7353e-05,0
42.746,-6.6468e-05,0
42.747,-4.3473e-05,0
42.747,-3.2898e-05,0
42.748,-2.7695e-05,0
42.748,-2.4338e-05,0
42.749,-1.9974e-05,0
42.749,5.0355e-07,0
42.75,3.1052e-05,0
42.75,7.2847e-05,0
42.751,0.00013663,0
42.751,0.00021032,0
42.752,0.00030146,0
42.752,0.00037346,0
42.753,0.00034023,0
42.753,0.00021938,0
42.754,0.00010155,0
42.755,-3.357e-07,0
42.755,-0.00011699,0
42.756,-0.00026168,0
42.756,-0.00041895,0
42.757,-0.00052067,0
42.757,-0.00047971,0
42.758,-0.00029273,0
42.758,-9.8863e-05,0
42.759,-4.6998e-06,0
42.759,2.6352e-05,0
42.76,9.0806e-05,0
42.76,0.00018564,0
42.761,0.00022307,0
42.761,0.00017339,0
42.762,8.3589e-05,0
42.762,1.7288e-05,0
42.763,6.5461e-06,0
42.763,3.1388e-05,0
42.764,4.6159e-05,0
42.764,2.8367e-05,0
42.765,-1.091e-05,0
42.765,-5.2873e-05,0
42.766,-5.623e-05,0
42.766,1.1917e-05,0
42.767,0.00011128,0
42.767,0.00017943,0
42.768,0.00020729,0
42.769,0.00020713,0
42.769,0.00017389,0
42.77,0.00011061,0
42.77,3.5416e-05,0
42.771,-4.3305e-05,0
42.771,-0.00012152,0
42.772,-0.00016365,0
42.772,-0.0001274,0
42.773,-4.7669e-05,0
42.773,8.5603e-06,0
42.774,1.8967e-05,0
42.774,7.2175e-06,0
42.775,1.561e-05,0
42.775,5.0523e-05,0
42.776,8.7282e-05,0
42.776,0.00010021,0
42.777,8.7785e-05,0
42.777,7.0832e-05,0
42.778,6.7643e-05,0
42.778,7.4693e-05,0
42.779,9.6345e-05,0
42.779,0.00011833,0
42.78,0.00010021,0
42.78,3.2563e-05,0
42.781,-3.0381e-05,0
42.782,-4.5319e-05,0
42.782,-3.5752e-05,0
42.783,-3.7095e-05,0
42.783,-4.0955e-05,0
42.784,-2.031e-05,0
42.784,1.1917e-05,0
42.785,4.8844e-05,0
42.785,8.8457e-05,0
42.786,9.8863e-05,0
42.786,8.3085e-05,0
42.787,6.6972e-05,0
42.787,3.4073e-05,0
42.788,-3.1556e-05,0
42.788,-0.00010994,0
42.789,-0.00012924,0
42.789,-3.5752e-05,0
42.79,0.00011649,0
42.79,0.00021334,0
42.791,0.00022089,0
42.791,0.00017842,0
42.792,0.00012773,0
42.792,0.00010524,0
42.793,0.00010826,0
42.793,0.00011531,0
42.794,0.00011363,0
42.794,8.2582e-05,0
42.795,3.1724e-05,0
42.796,2.182e-05,0
42.796,7.8386e-05,0
42.797,0.00017305,0
42.797,0.00024959,0
42.798,0.00023113,0
42.798,8.3589e-05,0
42.799,-0.00011196,0
42.799,-0.00025563,0
42.8,-0.00031556,0
42.8,-0.00032596,0
42.801,-0.00030062,0
42.801,-0.00019974,0
42.802,-5.5726e-05,0
42.802,5.6565e-05,0
42.803,0.00011263,0
42.803,0.00010591,0
42.804,5.0858e-05,0
42.804,-8.5603e-06,0
42.805,-2.5345e-05,0
42.805,1.7624e-05,0
42.806,7.8218e-05,0
42.806,0.00010591,0
42.807,7.6204e-05,0
42.807,2.1988e-05,0
42.808,-2.2828e-05,0
42.809,-6.2608e-05,0
42.809,-0.00010457,0
42.81,-0.00013797,0
42.81,-0.00013294,0
42.811,-5.7404e-05,0
42.811,4.7501e-05,0
42.812,0.00010726,0
42.812,9.8192e-05,0
42.813,5.8915e-05,0
42.813,3.3738e-05,0
42.814,2.2324e-05,0
42.814,-2.5177e-06,0
42.815,-5.0858e-05,0
42.815,-8.8457e-05,0
42.816,-4.1291e-05,0
42.816,0.0001237,0
42.817,0.00031707,0
42.817,0.00039461,0
42.818,0.0003456,0
42.818,0.00027074,0
42.819,0.00020394,0
42.819,0.00010625,0
42.82,-5.8244e-05,0
42.82,-0.00024405,0
42.821,-0.00035198,0
42.821,-0.00034829,0
42.822,-0.00028769,0
42.823,-0.00022358,0
42.823,-0.00016818,0
42.824,-0.00011783,0
42.824,-7.6204e-05,0
42.825,-5.4551e-05,0
42.825,-4.3977e-05,0
42.826,-2.3835e-05,0
42.826,1.6785e-07,0
42.827,1.3931e-05,0
42.827,1.1917e-05,0
42.828,-3.357e-07,0
42.828,-2.8534e-06,0
42.829,2.4002e-05,0
42.829,7.5029e-05,0
42.83,0.00011884,0
42.83,0.00014418,0
42.831,0.000166,0
42.831,0.00018648,0
42.832,0.00019319,0
42.832,0.00019689,0
42.833,0.00021854,0
42.833,0.00024691,0
42.834,0.00024674,0
42.834,0.00020259,0
42.835,0.00015023,0
42.836,0.00010373,0
42.836,5.5222e-05,0
42.837,1.5946e-05,0
42.837,-1.6281e-05,0
42.838,-5.9754e-05,0
42.838,-0.00012035,0
42.839,-0.00017372,0
42.839,-0.00019924,0
42.84,-0.00019068,0
42.84,-0.00015828,0
42.841,-0.00010256,0
42.841,3.1891e-06,0
42.842,0.00014318,0
42.842,0.00022727,0
42.843,0.00018917,0
42.843,6.9322e-05,0
42.844,-5.9586e-05,0
42.844,-0.00017775,0
42.845,-0.00027041,0
42.845,-0.00031908,0
42.846,-0.00035131,0
42.846,-0.00033973,0
42.847,-0.00023851,0
42.847,-9.1646e-05,0
42.848,4.6662e-05,0
42.848,0.00014351,0
42.849,0.00018111,0
42.85,0.00019387,0
42.85,0.0002036,0
42.851,0.00020293,0
42.851,0.00019101,0
42.852,0.00019521,0
42.852,0.00022811,0
42.853,0.00024691,0
42.853,0.00020108,0
42.854,0.00010256,0
42.854,1.7121e-05,0
42.855,-1.3092e-05,0
42.855,-4.5319e-06,0
42.856,8.3925e-07,0
42.856,-1.6617e-05,0
42.857,-3.6759e-05,0
42.857,-2.0981e-05,0
42.858,4.448e-05,0
42.858,9.8863e-05,0
42.859,0.00010457,0
42.859,9.2485e-05,0
42.86,8.51e-05,0
42.86,7.1672e-05,0
42.861,7.2343e-05,0
42.861,0.00011531,0
42.862,0.00015727,0
42.862,0.00014939,0
42.863,0.00010658,0
42.864,6.479e-05,0
42.864,1.6953e-05,0
42.865,-3.6423e-05,0
42.865,-7.4357e-05,0
42.866,-0.00010004,0
42.866,-0.00012522,0
42.867,-0.00012924,0
42.867,-0.00010373,0
42.868,-8.2078e-05,0
42.868,-8.1743e-05,0
42.869,-9.3492e-05,0
42.869,-9.7185e-05,0
42.87,-8.5435e-05,0
42.87,-7.6539e-05,0
42.871,-7.4022e-05,0
42.871,-4.1291e-05,0
42.872,7.2679e-05,0
42.872,0.000236,0
42.873,0.00034762,0
42.873,0.00034023,0
42.874,0.00026268,0
42.874,0.00022744,0
42.875,0.00022039,0
42.875,0.00020058,0
42.876,0.00015711,0
42.877,3.0549e-05,0
42.877,-0.00015509,0
42.878,-0.00027376,0
42.878,-0.00027544,0
42.879,-0.00019454,0
42.879,-0.00011867,0
42.88,-0.00010893,0
42.88,-0.00017943,0
42.881,-0.00025345,0
42.881,-0.00019034,0
42.882,4.8676e-06,0
42.882,0.00019001,0
42.883,0.0002835,0
42.883,0.00030062,0
42.884,0.00028887,0
42.884,0.00027359,0
42.885,0.00025681,0
42.885,0.00022777,0
42.886,0.00016298,0
42.886,3.7263e-05,0
42.887,-0.00015996,0
42.887,-0.0003597,0
42.888,-0.00042315,0
42.888,-0.00032496,0
42.889,-0.00017154,0
42.889,-7.3686e-05,0
42.89,-7.5532e-05,0
42.891,-0.00014217,0
42.891,-0.00020478,0
42.892,-0.00019689,0
42.892,-0.00010591,0
42.893,1.2924e-05,0
42.893,0.00010423,0
42.894,0.00013814,0
42.894,0.00012102,0
42.895,8.191e-05,0
42.895,4.062e-05,0
42.896,2.4674e-05,0
42.896,3.9277e-05,0
42.897,7.0161e-05,0
42.897,0.00010675,0
42.898,0.00014032,0
42.898,0.00016751,0
42.899,0.00018296,0
42.899,0.00017507,0
42.9,0.00013545,0
42.9,6.63e-05,0
42.901,-2.8534e-06,0
42.901,-2.8367e-05,0
42.902,-4.5319e-06,0
42.902,-2.5177e-06,0
42.903,-6.4286e-05,0
42.904,-0.00010843,0
42.904,-5.7908e-05,0
42.905,3.4073e-05,0
42.905,7.7043e-05,0
42.906,6.8315e-05,0
42.906,5.8244e-05,0
42.907,8.4092e-05,0
42.907,0.00012673,0
42.908,0.00013075,0
42.908,9.9199e-05,0
42.909,6.479e-05,0
42.909,2.652e-05,0
42.91,-2.7024e-05,0
42.91,-6.865e-05,0
42.911,-6.8818e-05,0
42.911,-3.7263e-05,0
42.912,-8.896e-06,0
42.912,1.5106e-06,0
42.913,-8.5603e-06,0
42.913,-1.1582e-05,0
42.914,2.1317e-05,0
42.914,7.4189e-05,0
42.915,0.00010793,0
42.915,0.00011044,0
42.916,9.8695e-05,0
42.916,8.4428e-05,0
42.917,7.0665e-05,0
42.918,6.2272e-05,0
42.918,5.623e-05,0
42.919,3.9445e-05,0
42.919,5.7069e-06,0
42.92,-4.1794e-05,0
42.92,-9.0135e-05,0
42.921,-0.00011347,0
42.921,-9.5674e-05,0
42.922,-5.5558e-05,0
42.922,-2.5681e-05,0
42.923,-5.539e-06,0
42.923,4.2466e-05,0
42.924,0.00012874,0
42.924,0.00022878,0
42.925,0.00029357,0
42.925,0.00027007,0
42.926,0.00018967,0
42.926,0.00010524,0
42.927,5.8747e-06,0
42.927,-0.00010121,0
42.928,-0.00017003,0
42.928,-0.00019974,0
42.929,-0.00021149,0
42.929,-0.00020024,0
42.93,-0.00017523,0
42.931,-0.00015962,0
42.931,-0.00011263,0
42.932,-1.9303e-05,0
42.932,6.8315e-05,0
42.933,0.00010591,0
42.933,9.1981e-05,0
42.934,5.8244e-05,0
42.934,2.9038e-05,0
42.935,1.1749e-06,0
42.935,-2.3163e-05,0
42.936,-2.8031e-05,0
42.936,-9.9031e-06,0
42.937,1.9471e-05,0
42.937,4.4312e-05,0
42.938,4.683e-05,0
42.938,3.1724e-05,0
42.939,1.796e-05,0
42.939,1.6281e-05,0
42.94,2.5345e-05,0
42.94,4.0787e-05,0
42.941,7.3014e-05,0
42.941,0.00012706,0
42.942,0.00018245,0
42.942,0.00022005,0
42.943,0.00021938,0
42.944,0.00017104,0
42.944,9.6178e-05,0
42.945,1.4267e-05,0
42.945,-6.244e-05,0
42.946,-0.00011565,0
42.946,-0.0001425,0
42.947,-0.00015795,0
42.947,-0.00015694,0
42.948,-0.00011733,0
42.948,-4.7837e-05,0
42.949,2.0981e-05,0
42.949,7.1672e-05,0
42.95,9.8527e-05,0
42.95,0.00010491,0
42.951,0.00010306,0
42.951,9.4499e-05,0
42.952,8.6778e-05,0
42.952,8.0064e-05,0
42.953,6.865e-05,0
42.953,9.1814e-05,0
42.954,0.00016097,0
42.954,0.00022895,0
42.955,0.00025295,0
42.955,0.00021032,0
42.956,0.0001274,0
42.956,4.6159e-05,0
42.957,-8.896e-06,0
42.958,-2.3835e-05,0
42.958,-2.7192e-05,0
42.959,-5.9251e-05,0
42.959,-0.00010759,0
42.96,-0.00015073,0
42.96,-0.00018816,0
42.961,-0.00021921,0
42.961,-0.00022408,0
42.962,-0.00018262,0
42.962,-0.00011884,0
42.963,-5.9922e-05,0
42.963,-5.0355e-07,0
42.964,4.8844e-05,0
42.964,7.6204e-05,0
42.965,9.1646e-05,0
42.965,9.9535e-05,0
42.966,0.00010507,0
42.966,0.0001227,0
42.967,0.00015274,0
42.967,0.00018984,0
42.968,0.00023331,0
42.968,0.00026268,0
42.969,0.00028383,0
42.969,0.00028266,0
42.97,0.00020494,0
42.971,6.1601e-05,0
42.971,-8.3757e-05,0
42.972,-0.00018849,0
42.972,-0.00025832,0
42.973,-0.00029609,0
42.973,-0.00027947,0
42.974,-0.00021451,0
42.974,-0.00013848,0
42.975,-7.1336e-05,0
42.975,-3.4073e-05,0
42.976,-4.1291e-05,0
42.976,-7.2007e-05,0
42.977,-5.9419e-05,0
42.977,1.796e-05,0
42.978,9.1646e-05,0
42.978,9.9535e-05,0
42.979,7.5029e-05,0
42.979,6.4958e-05,0
42.98,5.4047e-05,0
42.98,1.8967e-05,0
42.981,-3.4073e-05,0
42.981,-8.426e-05,0
42.982,-0.00012236,0
42.982,-0.00013982,0
42.983,-0.00012857,0
42.983,-8.2078e-05,0
42.984,-1.9135e-05,0
42.985,2.1317e-05,0
42.985,2.6688e-05,0
42.986,2.3499e-05,0
42.986,3.4409e-05,0
42.987,5.5055e-05,0
42.987,7.1672e-05,0
42.988,8.3757e-05,0
42.988,0.00010121,0
42.989,0.00011582,0
42.989,0.00011498,0
42.99,0.00010893,0
42.99,0.00012102,0
42.991,0.00016617,0
42.991,0.00023197,0
42.992,0.00027309,0
42.992,0.00025765,0
42.993,0.00018816,0
42.993,7.805e-05,0
42.994,-5.7237e-05,0
42.994,-0.00017507,0
42.995,-0.00021871,0
42.995,-0.0001848,0
42.996,-9.1478e-05,0
42.996,2.182e-05,0
42.997,9.3492e-05,0
42.998,0.00010491,0
42.998,8.5435e-05,0
42.999,7.3686e-05,0
42.999,7.6036e-05,0
43,7.7714e-05,0
43,7.2007e-05,0
43.001,6.4622e-05,0
43.001,5.7572e-05,0
43.002,4.1794e-05,0
43.002,1.9806e-05,0
43.003,1.4603e-05,0
43.003,2.8534e-05,0
43.004,4.5487e-05,0
43.004,5.2201e-05,0
43.005,4.9348e-05,0
43.005,5.0858e-05,0
43.006,5.6733e-05,0
43.006,4.7333e-05,0
43.007,2.501e-05,0
43.007,1.2253e-05,0
43.008,1.6281e-05,0
43.008,2.7192e-05,0
43.009,4.7333e-05,0
43.009,8.2246e-05,0
43.01,0.00011196,0
43.01,0.0001044,0
43.011,6.7643e-05,0
43.012,2.5681e-05,0
43.012,-2.2156e-05,0
43.013,-8.8121e-05,0
43.013,-0.00017607,0
43.014,-0.00026806,0
43.014,-0.00034594,0
43.015,-0.00036423,0
43.015,-0.00027359,0
43.016,-0.00011128,0
43.016,2.1988e-05,0
43.017,7.2679e-05,0
43.017,5.2873e-05,0
43.018,1.1414e-05,0
43.018,-1.5106e-05,0
43.019,-1.9638e-05,0
43.019,-7.5532e-06,0
43.02,1.6785e-05,0
43.02,3.9109e-05,0
43.021,4.3137e-05,0
43.021,4.2802e-05,0
43.022,4.9516e-05,0
43.022,5.623e-05,0
43.023,6.2943e-05,0
43.023,7.3182e-05,0
43.024,8.04e-05,0
43.025,8.0735e-05,0
43.025,6.9322e-05,0
43.026,5.2369e-05,0
43.026,5.0019e-05,0
43.027,6.8147e-05,0
43.027,8.3085e-05,0
43.028,7.2343e-05,0
43.028,3.6759e-05,0
43.029,1.0575e-05,0
43.029,2.4002e-05,0
43.03,5.3544e-05,0
43.03,6.2943e-05,0
43.031,6.2608e-05,0
43.031,7.4357e-05,0
43.032,9.836e-05,0
43.032,0.00011666,0
43.033,0.00012136,0
43.033,0.00012136,0
43.034,0.00012001,0
43.034,0.0001086,0
43.035,8.04e-05,0
43.035,4.448e-05,0
43.036,1.7792e-05,0
43.036,2.182e-06,0
43.037,-1.3931e-05,0
43.037,-1.7624e-05,0
43.038,1.1246e-05,0
43.039,5.6062e-05,0
43.039,8.7785e-05,0
43.04,9.3828e-05,0
43.04,8.2918e-05,0
43.041,7.2007e-05,0
43.041,5.5558e-05,0
43.042,1.0071e-05,0
43.042,-6.479e-05,0
43.043,-0.00013344,0
43.043,-0.00016785,0
43.044,-0.00016449,0
43.044,-0.00013848,0
43.045,-0.00011565,0
43.045,-8.2414e-05,0
43.046,-1.5106e-05,0
43.046,6.63e-05,0
43.047,0.00011766,0
43.047,0.00011263,0
43.048,5.3376e-05,0
43.048,-2.5177e-05,0
43.049,-9.1814e-05,0
43.049,-0.00014183,0
43.05,-0.00017826,0
43.05,-0.00016533,0
43.051,-7.3686e-05,0
43.051,3.9445e-05,0
43.052,0.00015325,0
43.053,0.00029525,0
43.053,0.0004265,0
43.054,0.00047048,0
43.054,0.0004302,0
43.055,0.00034359,0
43.055,0.00022307,0
43.056,7.0665e-05,0
43.056,-7.8218e-05,0
43.057,-0.00016399,0
43.057,-0.00014955,0
43.058,-6.4958e-05,0
43.058,-4.8676e-06,0
43.059,-3.2395e-05,0
43.059,-0.00013109,0
43.06,-0.00022995,0
43.06,-0.00028568,0
43.061,-0.00029239,0
43.061,-0.00023549,0
43.062,-0.00012303,0
43.062,-1.3931e-05,0
43.063,3.2059e-05,0
43.063,2.7359e-05,0
43.064,1.9638e-05,0
43.064,1.7288e-05,0
43.065,2.5177e-05,0
43.066,5.0019e-05,0
43.066,7.7714e-05,0
43.067,9.3828e-05,0
43.067,0.00010188,0
43.068,0.00011565,0
43.068,0.00012874,0
43.069,0.00012874,0
43.069,0.00010625,0
43.07,7.0161e-05,0
43.07,3.6759e-05,0
43.071,7.7211e-06,0
43.071,-8.2246e-06,0
43.072,-1.1749e-06,0
43.072,2.4506e-05,0
43.073,3.8941e-05,0
43.073,2.5513e-05,0
43.074,3.1891e-06,0
43.074,-1.5946e-05,0
43.075,-3.357e-05,0
43.075,-4.8676e-05,0
43.076,-5.7404e-05,0
43.076,-5.4215e-05,0
43.077,-4.2802e-05,0
43.077,-3.5752e-05,0
43.078,-5.2033e-06,0
43.078,6.9657e-05,0
43.079,0.00013243,0
43.08,0.00013881,0
43.08,9.0135e-05,0
43.081,1.3931e-05,0
43.081,-4.918e-05,0
43.082,-8.9632e-05,0
43.082,-0.00011666,0
43.083,-0.00012035,0
43.083,-7.2679e-05,0
43.084,9.2317e-06,0
43.084,5.8244e-05,0
43.085,4.683e-05,0
43.085,3.3738e-05,0
43.086,6.9657e-05,0
43.086,0.00012538,0
43.087,0.0001556,0
43.087,0.00015492,0
43.088,0.00013663,0
43.088,0.00010323,0
43.089,6.0929e-05,0
43.089,2.5681e-05,0
43.09,1.8296e-05,0
43.09,3.4409e-05,0
43.091,5.388e-05,0
43.091,6.2608e-05,0
43.092,5.7572e-05,0
43.093,4.448e-05,0
43.093,2.9374e-05,0
43.094,2.3667e-05,0
43.094,4.1794e-05,0
43.095,7.1672e-05,0
43.095,9.2149e-05,0
43.096,0.0001133,0
43.096,0.00014133,0
43.097,0.00015509,0
43.097,0.00013948,0
43.098,0.00010373,0
43.098,5.5894e-05,0
43.099,-1.6785e-07,0
43.099,-6.5461e-05,0
43.1,-0.00012555,0
43.1,-0.00015845,0
43.101,-0.00016399,0
43.101,-0.00013445,0
43.102,-5.2033e-05,0
43.102,6.2943e-05,0
43.103,0.00013747,0
43.103,0.00013881,0
43.104,9.9199e-05,0
43.104,5.7572e-05,0
43.105,2.1988e-05,0
43.105,-5.2033e-06,0
43.106,1.7288e-05,0
43.107,9.2317e-05,0
43.107,0.00010256,0
43.108,-1.1246e-05,0
43.108,-0.00013713,0
43.109,-0.00017658,0
43.109,-0.00014905,0
43.11,-0.00010625,0
43.11,-4.7669e-05,0
43.111,4.1794e-05,0
43.111,0.00013999,0
43.112,0.00023482,0
43.112,0.0003033,0
43.113,0.00031606,0
43.113,0.00027041,0
43.114,0.00017943,0
43.114,6.8818e-05,0
43.115,-3.2898e-05,0
43.115,-0.00012589,0
43.116,-0.00020746,0
43.116,-0.00024976,0
43.117,-0.00024372,0
43.117,-0.00023247,0
43.118,-0.00026873,0
43.118,-0.0003268,0
43.119,-0.00031925,0
43.12,-0.00022895,0
43.12,-0.00011313,0
43.121,-2.5849e-05,0
43.121,9.5674e-06,0
43.122,2.5177e-06,0
43.122,-2.4338e-05,0
43.123,-4.2802e-05,0
43.123,-2.9709e-05,0
43.124,9.2317e-06,0
43.124,4.683e-05,0
43.125,6.949e-05,0
43.125,7.2007e-05,0
43.126,5.6901e-05,0
43.126,4.4816e-05,0
43.127,5.6901e-05,0
43.127,8.9296e-05,0
43.128,0.0001227,0
43.128,0.00014334,0
43.129,0.00015392,0
43.129,0.00016701,0
43.13,0.00019084,0
43.13,0.00022609,0
43.131,0.00025161,0
43.131,0.00024926,0
43.132,0.00021854,0
43.133,0.00017288,0
43.133,0.00011464,0
43.134,4.2466e-05,0
43.134,-3.1724e-05,0
43.135,-6.2943e-05,0
43.135,-3.4745e-05,0
43.136,-4.1962e-06,0
43.136,-1.091e-05,0
43.137,-4.213e-05,0
43.137,-7.4693e-05,0
43.138,-0.00011884,0
43.138,-0.00018212,0
43.139,-0.00022928,0
43.139,-0.0002088,0
43.14,-9.8192e-05,0
43.14,5.4887e-05,0
43.141,0.00016667,0
43.141,0.00018782,0
43.142,0.00013864,0
43.142,8.0232e-05,0
43.143,4.6159e-05,0
43.143,3.4745e-05,0
43.144,3.743e-05,0
43.144,4.5487e-05,0
43.145,7.9728e-05,0
43.145,0.00014083,0
43.146,0.00014536,0
43.147,4.7166e-05,0
43.147,-8.8792e-05,0
43.148,-0.00017943,0
43.148,-0.00019538,0
43.149,-0.0001556,0
43.149,-9.7185e-05,0
43.15,-4.7837e-05,0
43.15,-1.9806e-05,0
43.151,1.0071e-06,0
43.151,3.6088e-05,0
43.152,8.8457e-05,0
43.152,0.00012807,0
43.153,0.00012673,0
43.153,0.00010088,0
43.154,9.5003e-05,0
43.154,0.00011934,0
43.155,0.00014166,0
43.155,0.00013545,0
43.156,0.00010591,0
43.156,4.0452e-05,0
43.157,-7.8889e-05,0
43.157,-0.00018531,0
43.158,-0.00017288,0
43.158,-3.9277e-05,0
43.159,0.00010239,0
43.16,0.00016701,0
43.16,0.00016567,0
43.161,0.000118,0
43.161,5.3208e-05,0
43.162,5.2033e-06,0
43.162,-2.7527e-05,0
43.163,-6.6133e-05,0
43.163,-0.0001086,0
43.164,-0.00013462,0
43.164,-0.00010793,0
43.165,-2.0813e-05,0
43.165,7.9561e-05,0
43.166,0.00014603,0
43.166,0.00018346,0
43.167,0.0002172,0
43.167,0.00024019,0
43.168,0.00023146,0
43.168,0.00019051,0
43.169,0.00012505,0
43.169,6.2943e-05,0
43.17,2.1988e-05,0
43.17,-1.2924e-05,0
43.171,-3.3066e-05,0
43.171,-2.3499e-05,0
43.172,1.2085e-05,0
43.172,9.1646e-05,0
43.173,0.00022979,0
43.174,0.00041073,0
43.174,0.0005205,0
43.175,0.00044732,0
43.175,0.00021199,0
43.176,-6.479e-05,0
43.176,-0.00028316,0
43.177,-0.00044816,0
43.177,-0.00055189,0
43.178,-0.00054014,0
43.178,-0.00042768,0
43.179,-0.00032613,0
43.179,-0.00029223,0
43.18,-0.00027846,0
43.18,-0.00024791,0
43.181,-0.00019454,0
43.181,-0.00010574,0
43.182,-1.6785e-07,0
43.182,7.7043e-05,0
43.183,0.00011028,0
43.183,0.00010843,0
43.184,8.2078e-05,0
43.184,4.3473e-05,0
43.185,1.796e-05,0
43.185,4.7166e-05,0
43.186,0.00013579,0
43.187,0.00021904,0
43.187,0.00025077,0
43.188,0.00024775,0
43.188,0.00023247,0
43.189,0.00020125,0
43.189,0.00015056,0
43.19,9.2149e-05,0
43.19,4.8844e-05,0
43.191,1.6953e-05,0
43.191,-1.9471e-05,0
43.192,-5.4887e-05,0
43.192,-7.8386e-05,0
43.193,-8.8289e-05,0
43.193,-8.4596e-05,0
43.194,-5.388e-05,0
43.194,1.5106e-06,0
43.195,5.7572e-05,0
43.195,9.5674e-05,0
43.196,0.00011397,0
43.196,0.00012068,0
43.197,0.0001321,0
43.197,0.00015459,0
43.198,0.00017372,0
43.198,0.00016936,0
43.199,0.00014217,0
43.199,0.0001044,0
43.2,7.7546e-05,0
43.201,7.3014e-05,0
43.201,6.5629e-05,0
43.202,2.0645e-05,0
43.202,-7.2679e-05,0
43.203,-0.00018917,0
43.203,-0.00026889,0
43.204,-0.00027309,0
43.204,-0.00022727,0
43.205,-0.00017053,0
43.205,-0.0001227,0
43.206,-8.7953e-05,0
43.206,-4.5823e-05,0
43.207,2.3667e-05,0
43.207,8.9967e-05,0
43.208,0.00011061,0
43.208,8.2414e-05,0
43.209,2.1988e-05,0
43.209,-4.6494e-05,0
43.21,-9.0135e-05,0
43.21,-8.9464e-05,0
43.211,-7.805e-05,0
43.211,-8.426e-05,0
43.212,-5.7908e-05,0
43.212,1.6617e-05,0
43.213,0.00010373,0
43.214,0.00019051,0
43.214,0.00024422,0
43.215,0.0002318,0
43.215,0.00016953,0
43.216,9.4835e-05,0
43.216,4.2802e-05,0
43.217,2.9038e-05,0
43.217,3.8437e-05,0
43.218,4.9012e-05,0
43.218,5.0858e-05,0
43.219,4.5823e-05,0
43.219,5.2201e-05,0
43.22,7.5029e-05,0
43.22,9.2317e-05,0
43.221,7.6036e-05,0
43.221,1.4603e-05,0
43.222,-8.1575e-05,0
43.222,-0.00017087,0
43.223,-0.00019605,0
43.223,-0.0001415,0
43.224,-4.8341e-05,0
43.224,2.6017e-05,0
43.225,5.1698e-05,0
43.225,4.918e-05,0
43.226,4.6159e-05,0
43.226,5.4047e-05,0
43.227,6.949e-05,0
43.228,8.1743e-05,0
43.228,8.9799e-05,0
43.229,0.00010591,0
43.229,0.00013814,0
43.23,0.00017406,0
43.23,0.00019319,0
43.231,0.00020108,0
43.231,0.00019974,0
43.232,0.00015996,0
43.232,7.2175e-05,0
43.233,-5.774e-05,0
43.233,-0.00019705,0
43.234,-0.00025849,0
43.234,-0.00020461,0
43.235,-7.4022e-05,0
43.235,6.479e-05,0
43.236,0.00015123,0
43.236,0.00017708,0
43.237,0.0001425,0
43.237,5.539e-05,0
43.238,-5.153e-05,0
43.238,-0.00013646,0
43.239,-0.0001702,0
43.239,-0.0001467,0
43.24,-0.00010457,0
43.24,-9.1478e-05,0
43.241,-9.987e-05,0
43.242,-9.5506e-05,0
43.242,-7.3518e-05,0
43.243,-4.6662e-05,0
43.243,-2.031e-05,0
43.244,-4.6998e-06,0
43.244,-1.3428e-06,0
43.245,3.357e-07,0
43.245,5.539e-06,0
43.246,2.2828e-05,0
43.246,6.0258e-05,0
43.247,9.1981e-05,0
43.247,9.2485e-05,0
43.248,6.6636e-05,0
43.248,3.0549e-05,0
43.249,2.5681e-05,0
43.249,8.0735e-05,0
43.25,0.000165,0
43.25,0.00022374,0
43.251,0.00023532,0
43.251,0.00022055,0
43.252,0.00019857,0
43.252,0.00018715,0
43.253,0.00020209,0
43.253,0.00018782,0
43.254,9.1646e-05,0
43.255,-3.3738e-05,0
43.255,-9.6178e-05,0
43.256,-7.7714e-05,0
43.256,-6.0426e-06,0
43.257,6.0258e-05,0
43.257,7.7546e-05,0
43.258,3.9445e-05,0
43.258,-3.9277e-05,0
43.259,-0.00011565,0
43.259,-0.00013428,0
43.26,-9.0135e-05,0
43.26,-3.4073e-05,0
43.261,-6.714e-07,0
43.261,2.1317e-05,0
43.262,2.9709e-05,0
43.262,1.091e-05,0
43.263,-2.1988e-05,0
43.263,-4.1794e-05,0
43.264,-4.4816e-05,0
43.264,-4.5319e-05,0
43.265,-3.9445e-05,0
43.265,-2.2995e-05,0
43.266,-6.8818e-06,0
43.266,-6.2104e-06,0
43.267,-2.266e-05,0
43.267,-4.2802e-05,0
43.268,-6.2608e-05,0
43.269,-7.7379e-05,0
43.269,-7.7379e-05,0
43.27,-6.5293e-05,0
43.27,-4.6494e-05,0
43.271,-1.5442e-05,0
43.271,3.1891e-05,0
43.272,8.04e-05,0
43.272,0.00010927,0
43.273,0.00011531,0
43.273,0.00011464,0
43.274,0.00012605,0
43.274,0.00014334,0
43.275,0.00014989,0
43.275,0.00014418,0
43.276,0.00012639,0
43.276,8.51e-05,0
43.277,3.1052e-05,0
43.277,5.2033e-06,0
43.278,3.0045e-05,0
43.278,7.6875e-05,0
43.279,0.00010256,0
43.279,9.3828e-05,0
43.28,7.0497e-05,0
43.28,3.7263e-05,0
43.281,-6.8818e-06,0
43.282,-5.2033e-05,0
43.282,-6.5629e-05,0
43.283,-3.1891e-05,0
43.283,2.8031e-05,0
43.284,8.0735e-05,0
43.284,8.3589e-05,0
43.285,3.8437e-05,0
43.285,-1.9303e-05,0
43.286,-7.5364e-05,0
43.286,-0.00011783,0
43.287,-0.00011934,0
43.287,-6.6133e-05,0
43.288,9.9031e-06,0
43.288,7.9225e-05,0
43.289,0.00014351,0
43.289,0.00017037,0
43.29,0.00011699,0
43.29,1.5946e-05,0
43.291,-4.4312e-05,0
43.291,-4.6159e-05,0
43.292,-5.4719e-05,0
43.292,-9.836e-05,0
43.293,-0.00013982,0
43.293,-0.00011783,0
43.294,-1.8296e-05,0
43.294,8.9967e-05,0
43.295,0.00012454,0
43.296,8.5267e-05,0
43.296,2.5681e-05,0
43.297,-2.7359e-05,0
43.297,-7.2679e-05,0
43.298,-7.805e-05,0
43.298,-3.1388e-05,0
43.299,1.5274e-05,0
43.299,2.0813e-05,0
43.3,-7.5532e-06,0
43.3,-4.0116e-05,0
43.301,-3.7095e-05,0
43.301,-1.8463e-06,0
43.302,2.1317e-05,0
43.302,1.0575e-05,0
43.303,-1.1414e-05,0
43.303,-2.6017e-05,0
43.304,-4.1459e-05,0
43.304,-5.6733e-05,0
43.305,-5.8244e-05,0
43.305,-3.6927e-05,0
43.306,-6.5461e-06,0
43.306,2.1317e-05,0
43.307,5.153e-05,0
43.307,8.3925e-05,0
43.308,0.00010356,0
43.309,0.00010961,0
43.309,0.00011263,0
43.31,0.00011212,0
43.31,0.00010256,0
43.311,9.1478e-05,0
43.311,8.3589e-05,0
43.312,8.896e-05,0
43.312,0.00010188,0
43.313,0.00010574,0
43.313,9.366e-05,0
43.314,6.2272e-05,0
43.314,2.1317e-05,0
43.315,-1.4939e-05,0
43.315,-4.0955e-05,0
43.316,-4.4816e-05,0
43.316,-1.8463e-05,0
43.317,2.0981e-05,0
43.317,4.3305e-05,0
43.318,4.0787e-05,0
43.318,2.1988e-05,0
43.319,-9.7353e-06,0
43.319,-4.3305e-05,0
43.32,-5.153e-05,0
43.32,-2.4674e-05,0
43.321,8.3925e-06,0
43.322,1.3764e-05,0
43.322,-1.8463e-05,0
43.323,-5.3208e-05,0
43.323,-5.0187e-05,0
43.324,-2.1653e-05,0
43.324,9.5674e-06,0
43.325,3.8437e-05,0
43.325,7.2007e-05,0
43.326,0.0001039,0
43.326,0.00011934,0
43.327,0.00010726,0
43.327,7.9057e-05,0
43.328,6.9322e-05,0
43.328,9.752e-05,0
43.329,0.00013344,0
43.329,0.00012068,0
43.33,3.9109e-05,0
43.33,-4.0284e-05,0
43.331,-3.2227e-05,0
43.331,4.4648e-05,0
43.332,0.00011397,0
43.332,0.00014267,0
43.333,0.00015123,0
43.333,0.00014049,0
43.334,8.5435e-05,0
43.334,-8.7282e-06,0
43.335,-9.8527e-05,0
43.336,-0.00014553,0
43.336,-0.000142,0
43.337,-0.00011431,0
43.337,-9.5506e-05,0
43.338,-9.6178e-05,0
43.338,-9.7688e-05,0
43.339,-7.6707e-05,0
43.339,-4.1291e-05,0
43.34,-2.4842e-05,0
43.34,-2.5177e-05,0
43.341,-8.2246e-06,0
43.341,3.4241e-05,0
43.342,8.1239e-05,0
43.342,0.00010877,0
43.343,9.4163e-05,0
43.343,3.5584e-05,0
43.344,-4.3137e-05,0
43.344,-0.00012992,0
43.345,-0.00019252,0
43.345,-0.00016718,0
43.346,-3.5416e-05,0
43.346,0.00013864,0
43.347,0.00024825,0
43.347,0.00023885,0
43.348,0.00015627,0
43.349,7.9393e-05,0
43.349,3.2059e-05,0
43.35,3.357e-07,0
43.35,-2.7527e-05,0
43.351,-5.5222e-05,0
43.351,-6.1601e-05,0
43.352,5.0355e-07,0
43.352,0.00010088,0
43.353,0.00015358,0
43.353,0.00014083,0
43.354,0.00010658,0
43.354,7.7379e-05,0
43.355,5.4215e-05,0
43.355,3.6927e-05,0
43.356,2.9374e-05,0
43.356,3.6591e-05,0
43.357,5.6901e-05,0
43.357,0.00010138,0
43.358,0.00018967,0
43.358,0.00029693,0
43.359,0.00035399,0
43.359,0.00034493,0
43.36,0.00028853,0
43.36,0.00018766,0
43.361,6.6468e-05,0
43.361,-4.3473e-05,0
43.362,-0.00014351,0
43.363,-0.00024523,0
43.363,-0.00032009,0
43.364,-0.00032613,0
43.364,-0.00024926,0
43.365,-0.00012186,0
43.365,-2.8534e-05,0
43.366,-2.031e-05,0
43.366,-6.1601e-05,0
43.367,-9.2485e-05,0
43.367,-9.2317e-05,0
43.368,-8.3589e-05,0
43.368,-8.7449e-05,0
43.369,-9.5842e-05,0
43.369,-8.4596e-05,0
43.37,-4.1291e-05,0
43.37,-3.357e-07,0
43.371,-1.6785e-07,0
43.371,-1.5778e-05,0
43.372,1.5106e-06,0
43.372,4.7166e-05,0
43.373,8.4764e-05,0
43.373,9.8527e-05,0
43.374,8.6442e-05,0
43.374,6.0761e-05,0
43.375,2.8031e-05,0
43.376,-1.4267e-05,0
43.376,-6.4622e-05,0
43.377,-9.6178e-05,0
43.377,-8.896e-05,0
43.378,-7.6371e-05,0
43.378,-6.7643e-05,0
43.379,-3.2395e-05,0
43.379,3.8437e-05,0
43.38,0.00010323,0
43.38,0.00011901,0
43.381,9.5506e-05,0
43.381,6.8818e-05,0
43.382,6.2943e-05,0
43.382,7.7043e-05,0
43.383,9.7688e-05,0
43.383,0.00011447,0
43.384,0.00012656,0
43.384,0.00013059,0
43.385,0.00012068,0
43.385,0.00010256,0
43.386,9.8192e-05,0
43.386,0.00011867,0
43.387,0.00014955,0
43.387,0.00016533,0
43.388,0.00015425,0
43.388,0.00011632,0
43.389,7.1e-05,0
43.39,4.8173e-05,0
43.39,4.4144e-05,0
43.391,2.6688e-05,0
43.391,-1.6449e-05,0
43.392,-8.1575e-05,0
43.392,-0.00015744,0
43.393,-0.00022106,0
43.393,-0.00024657,0
43.394,-0.00022374,0
43.394,-0.0001801,0
43.395,-0.00015711,0
43.395,-0.00015761,0
43.396,-0.00014133,0
43.396,-9.1142e-05,0
43.397,-3.4409e-05,0
43.397,3.1891e-06,0
43.398,2.031e-05,0
43.398,2.7863e-05,0
43.399,2.8534e-05,0
43.399,2.6017e-05,0
43.4,2.8534e-05,0
43.4,3.5752e-05,0
43.401,5.0858e-05,0
43.401,7.3014e-05,0
43.402,0.00010188,0
43.403,0.00013008,0
43.403,0.00014922,0
43.404,0.00015727,0
43.404,0.00016097,0
43.405,0.00016298,0
43.405,0.00016449,0
43.406,0.00016164,0
43.406,0.0001415,0
43.407,0.00010306,0
43.407,6.2272e-05,0
43.408,3.5584e-05,0
43.408,2.1317e-05,0
43.409,1.561e-05,0
43.409,2.7359e-05,0
43.41,6.1433e-05,0
43.41,9.5003e-05,0
43.411,8.6778e-05,0
43.411,2.8702e-05,0
43.412,-2.9038e-05,0
43.412,-4.3137e-05,0
43.413,-3.0716e-05,0
43.413,-2.0142e-05,0
43.414,-2.5345e-05,0
43.414,-5.1362e-05,0
43.415,-6.9993e-05,0
43.415,-4.4816e-05,0
43.416,3.0045e-05,0
43.417,9.2821e-05,0
43.417,8.8457e-05,0
43.418,4.2298e-05,0
43.418,4.1962e-06,0
43.419,-6.3783e-06,0
43.419,-1.1749e-06,0
43.42,1.326e-05,0
43.42,3.9277e-05,0
43.421,8.4428e-05,0
43.421,0.0001331,0
43.422,0.00015358,0
43.422,0.00013378,0
43.423,8.7114e-05,0
43.423,2.3331e-05,0
43.424,-4.8173e-05,0
43.424,-0.00011766,0
43.425,-0.00018094,0
43.425,-0.00024388,0
43.426,-0.00031069,0
43.426,-0.00031421,0
43.427,-0.00021065,0
43.427,-7.6707e-05,0
43.428,1.8463e-06,0
43.428,3.122e-05,0
43.429,5.0858e-05,0
43.429,6.949e-05,0
43.43,7.7546e-05,0
43.431,7.1672e-05,0
43.431,5.7908e-05,0
43.432,4.9012e-05,0
43.432,5.2201e-05,0
43.433,5.9586e-05,0
43.433,6.5629e-05,0
43.434,7.4861e-05,0
43.434,8.8121e-05,0
43.435,0.00010457,0
43.435,0.00012253,0
43.436,0.0001284,0
43.436,0.00011095,0
43.437,7.6371e-05,0
43.437,5.1194e-05,0
43.438,4.448e-05,0
43.438,4.4144e-05,0
43.439,4.2802e-05,0
43.439,4.1459e-05,0
43.44,3.8102e-05,0
43.44,4.448e-05,0
43.441,6.9657e-05,0
43.441,9.0471e-05,0
43.442,0.00010155,0
43.442,0.00012035,0
43.443,0.0001284,0
43.444,0.00010088,0
43.444,4.8173e-05,0
43.445,-4.0284e-06,0
43.445,-4.448e-05,0
43.446,-7.7379e-05,0
43.446,-9.1478e-05,0
43.447,-5.9586e-05,0
43.447,1.1582e-05,0
43.448,8.4428e-05,0
43.448,0.0001237,0
43.449,0.00011699,0
43.449,0.00010021,0
43.45,0.00011196,0
43.45,0.00012337,0
43.451,0.0001086,0
43.451,6.7475e-05,0
43.452,8.896e-06,0
43.452,-4.6662e-05,0
43.453,-8.7617e-05,0
43.453,-0.00011263,0
43.454,-0.00010524,0
43.454,-6.865e-05,0
43.455,-3.7095e-05,0
43.455,-1.4435e-05,0
43.456,1.8463e-05,0
43.456,4.9516e-05,0
43.457,6.2943e-05,0
43.458,5.539e-05,0
43.458,3.1388e-05,0
43.459,-3.357e-07,0
43.459,-3.8941e-05,0
43.46,-8.4428e-05,0
43.46,-0.00012639,0
43.461,-0.00014519,0
43.461,-0.00012773,0
43.462,-8.0903e-05,0
43.462,-1.7456e-05,0
43.463,4.7501e-05,0
43.463,0.00010105,0
43.464,0.00012874,0
43.464,0.00012807,0
43.465,0.00011766,0
43.465,0.00010188,0
43.466,6.3615e-05,0
43.466,-1.9638e-05,0
43.467,-0.00013445,0
43.467,-0.00023516,0
43.468,-0.0002511,0
43.468,-0.00016265,0
43.469,-3.1724e-05,0
43.469,7.7546e-05,0
43.47,0.00013512,0
43.471,0.00014385,0
43.471,0.00012773,0
43.472,0.000118,0
43.472,0.00011867,0
43.473,0.00011464,0
43.473,9.1646e-05,0
43.474,5.2201e-05,0
43.474,2.031e-05,0
43.475,6.714e-06,0
43.475,2.0142e-06,0
43.476,7.0497e-06,0
43.476,1.4939e-05,0
43.477,1.091e-05,0
43.477,-5.539e-06,0
43.478,-2.4002e-05,0
43.478,-2.7527e-05,0
43.479,-8.2246e-06,0
43.479,1.7121e-05,0
43.48,4.0787e-05,0
43.48,7.2343e-05,0
43.481,9.987e-05,0
43.481,9.987e-05,0
43.482,6.8482e-05,0
43.482,3.4409e-05,0
43.483,1.9974e-05,0
43.483,1.3092e-05,0
43.484,6.3783e-06,0
43.485,1.8463e-06,0
43.485,-2.9038e-05,0
43.486,-9.4835e-05,0
43.486,-0.00013344,0
43.487,-0.00011447,0
43.487,-7.6707e-05,0
43.488,-5.4047e-05,0
43.488,-3.3906e-05,0
43.489,6.8818e-06,0
43.489,6.1936e-05,0
43.49,0.00010625,0
43.49,0.00013462,0
43.491,0.00016197,0
43.491,0.00017641,0
43.492,0.00016365,0
43.492,0.00013344,0
43.493,9.366e-05,0
43.493,4.4816e-05,0
43.494,-1.2589e-05,0
43.494,-5.7908e-05,0
43.495,-6.0258e-05,0
43.495,-2.9877e-05,0
43.496,4.1962e-06,0
43.496,3.357e-05,0
43.497,4.6159e-05,0
43.498,1.6281e-05,0
43.498,-4.918e-05,0
43.499,-0.00010759,0
43.499,-0.00013713,0
43.5,-0.00014334,0
43.5,-0.0001237,0
43.501,-7.2343e-05,0
43.501,-4.1962e-06,0
43.502,5.7572e-05,0
43.502,0.00010172,0
43.503,0.00012706,0
43.503,0.00013814,0
43.504,0.00014217,0
43.504,0.0001425,0
43.505,0.00014267,0
43.505,0.00013814,0
43.506,0.00012052,0
43.506,8.7617e-05,0
43.507,2.5177e-05,0
43.507,-8.0568e-05,0
43.508,-0.00016248,0
43.508,-0.00013227,0
43.509,-2.7192e-05,0
43.509,5.1865e-05,0
43.51,6.5965e-05,0
43.511,5.7572e-05,0
43.511,6.865e-05,0
43.512,9.0471e-05,0
43.512,0.0001044,0
43.513,0.00011296,0
43.513,0.00011632,0
43.514,0.00012488,0
43.514,0.00017171,0
43.515,0.00020528,0
43.515,0.00014485,0
43.516,3.2395e-05,0
43.516,-4.8173e-05,0
43.517,-0.00010289,0
43.517,-0.0001655,0
43.518,-0.00023062,0
43.518,-0.00025899,0
43.519,-0.00019705,0
43.519,-6.6636e-05,0
43.52,4.7166e-05,0
43.52,8.6442e-05,0
43.521,5.9586e-05,0
43.521,9.2317e-06,0
43.522,-2.6017e-05,0
43.522,-2.6352e-05,0
43.523,-1.5274e-05,0
43.523,-2.887e-05,0
43.524,-6.0426e-05,0
43.525,-6.8986e-05,0
43.525,-4.0116e-05,0
43.526,1.2589e-05,0
43.526,6.0929e-05,0
43.527,9.0135e-05,0
43.527,0.00010323,0
43.528,0.00010994,0
43.528,0.00012102,0
43.529,0.00012605,0
43.529,0.00011498,0
43.53,9.7185e-05,0
43.53,8.1407e-05,0
43.531,5.9586e-05,0
43.531,2.1988e-05,0
43.532,-9.5674e-06,0
43.532,-5.3712e-06,0
43.533,3.4073e-05,0
43.533,8.5771e-05,0
43.534,0.00014603,0
43.534,0.00020847,0
43.535,0.0002694,0
43.535,0.00029928,0
43.536,0.00025127,0
43.536,0.00013864,0
43.537,4.8676e-06,0
43.538,-0.00014989,0
43.538,-0.00029071,0
43.539,-0.00035131,0
43.539,-0.0003305,0
43.54,-0.00025798,0
43.54,-0.00015912,0
43.541,-7.5029e-05,0
43.541,-2.1653e-05,0
43.542,2.5177e-06,0
43.542,8.7282e-06,0
43.543,1.5946e-05,0
43.543,2.6017e-05,0
43.544,2.9038e-05,0
43.544,2.4674e-05,0
43.545,1.3596e-05,0
43.545,1.8463e-06,0
43.546,6.5461e-06,0
43.546,3.6927e-05,0
43.547,7.9896e-05,0
43.547,0.00011598,0
43.548,0.00013495,0
43.548,0.00013327,0
43.549,0.00011196,0
43.549,8.1239e-05,0
43.55,6.63e-05,0
43.55,8.4092e-05,0
43.551,0.00011766,0
43.552,0.00013512,0
43.552,0.000118,0
43.553,8.0568e-05,0
43.553,4.3809e-05,0
43.554,7.2175e-06,0
43.554,-3.2731e-05,0
43.555,-6.2608e-05,0
43.555,-7.5364e-05,0
43.556,-8.0735e-05,0
43.556,-8.3757e-05,0
43.557,-7.4189e-05,0
43.557,-5.2201e-05,0
43.558,-3.7766e-05,0
43.558,-4.5487e-05,0
43.559,-6.479e-05,0
43.559,-7.0329e-05,0
43.56,-6.1601e-05,0
43.56,-6.1601e-05,0
43.561,-7.9561e-05,0
43.561,-0.00010222,0
43.562,-0.00011112,0
43.562,-9.2485e-05,0
43.563,-4.9851e-05,0
43.563,-9.5674e-06,0
43.564,7.7211e-06,0
43.565,1.5274e-05,0
43.565,4.4816e-05,0
43.566,9.6178e-05,0
43.566,0.00014603,0
43.567,0.00017893,0
43.567,0.00019722,0
43.568,0.00019521,0
43.568,0.00016231,0
43.569,0.000118,0
43.569,0.00010373,0
43.57,0.0001185,0
43.57,0.0001232,0
43.571,7.8218e-05,0
43.571,-7.5532e-06,0
43.572,-8.3085e-05,0
43.572,-0.00011363,0
43.573,-0.0001133,0
43.573,-0.00010927,0
43.574,-9.987e-05,0
43.574,-7.805e-05,0
43.575,-4.6494e-05,0
43.575,-1.0575e-05,0
43.576,2.887e-05,0
43.576,6.4622e-05,0
43.577,8.1071e-05,0
43.577,6.6804e-05,0
43.578,3.357e-05,0
43.579,1.9638e-05,0
43.579,5.0858e-05,0
43.58,0.00010256,0
43.58,0.00013445,0
43.581,0.00013277,0
43.581,0.00010323,0
43.582,7.0832e-05,0
43.582,5.153e-05,0
43.583,2.9709e-05,0
43.583,-5.0355e-07,0
43.584,-2.4338e-05,0
43.584,-2.652e-05,0
43.585,-1.0071e-06,0
43.585,2.8031e-05,0
43.586,2.652e-05,0
43.586,1.3428e-06,0
43.587,-1.6785e-06,0
43.587,4.6159e-05,0
43.588,0.00013646,0
43.588,0.000236,0
43.589,0.00031136,0
43.589,0.00033822,0
43.59,0.00033687,0
43.59,0.00032613,0
43.591,0.00027074,0
43.592,0.0001472,0
43.592,-6.3783e-06,0
43.593,-0.00012102,0
43.593,-0.00018883,0
43.594,-0.00023348,0
43.594,-0.0002751,0
43.595,-0.00032764,0
43.595,-0.00036474,0
43.596,-0.00034862,0
43.596,-0.00028484,0
43.597,-0.00020595,0
43.597,-0.00013143,0
43.598,-6.6972e-05,0
43.598,-9.9031e-06,0
43.599,4.9516e-05,0
43.599,0.00011044,0
43.6,0.00016164,0
43.6,0.00017641,0
43.601,0.00015358,0
43.601,9.7017e-05,0
43.602,1.5946e-05,0
43.602,-6.8315e-05,0
43.603,-0.00012572,0
43.603,-0.00013696,0
43.604,-0.00010558,0
43.604,-3.8941e-05,0
43.605,5.069e-05,0
43.606,0.00013243,0
43.606,0.00016953,0
43.607,0.00015862,0
43.607,0.00012001,0
43.608,7.5029e-05,0
43.608,4.918e-05,0
43.609,4.8005e-05,0
43.609,4.3305e-05,0
43.61,1.8631e-05,0
43.61,-1.5946e-05,0
43.611,-4.448e-05,0
43.611,-5.6565e-05,0
43.612,-5.1026e-05,0
43.612,-2.9877e-05,0
43.613,7.5532e-06,0
43.613,7.4189e-05,0
43.614,0.00014737,0
43.614,0.00017876,0
43.615,0.00014955,0
43.615,7.9561e-05,0
43.616,3.1891e-06,0
43.616,-6.1265e-05,0
43.617,-9.9199e-05,0
43.617,-0.00010256,0
43.618,-8.0903e-05,0
43.618,-1.5778e-05,0
43.619,9.4499e-05,0
43.62,0.00020041,0
43.62,0.00025278,0
43.621,0.00024791,0
43.621,0.00021334,0
43.622,0.00017675,0
43.622,0.00016802,0
43.623,0.00018547,0
43.623,0.00018396,0
43.624,0.00014871,0
43.624,9.1814e-05,0
43.625,1.561e-05,0
43.625,-7.4189e-05,0
43.626,-0.0001467,0
43.626,-0.00017339,0
43.627,-0.0001519,0
43.627,-0.00011363,0
43.628,-8.7449e-05,0
43.628,-6.3447e-05,0
43.629,-2.2156e-05,0
43.629,2.9709e-05,0
43.63,7.3014e-05,0
43.63,8.9632e-05,0
43.631,6.7643e-05,0
43.631,9.9031e-06,0
43.632,-5.5222e-05,0
43.633,-9.6513e-05,0
43.633,-0.00010121,0
43.634,-7.9561e-05,0
43.634,-5.8579e-05,0
43.635,-6.7643e-05,0
43.635,-0.00010927,0
43.636,-0.00013562,0
43.636,-0.00010507,0
43.637,-5.3712e-05,0
43.637,-1.2924e-05,0
43.638,3.9445e-05,0
43.638,0.00010726,0
43.639,0.000165,0
43.639,0.00019991,0
43.64,0.00021669,0
43.64,0.00021233,0
43.641,0.00017221,0
43.641,9.366e-05,0
43.642,-3.8605e-06,0
43.642,-8.6946e-05,0
43.643,-0.0001237,0
43.643,-0.00011447,0
43.644,-8.8289e-05,0
43.644,-6.6972e-05,0
43.645,-5.9922e-05,0
43.645,-5.4887e-05,0
43.646,-3.6759e-05,0
43.647,-1.9135e-05,0
43.647,-2.182e-05,0
43.648,-3.3066e-05,0
43.648,-1.2589e-05,0
43.649,4.0452e-05,0
43.649,9.5842e-05,0
43.65,0.00012941,0
43.65,0.00013344,0
43.651,0.00011128,0
43.651,8.0232e-05,0
43.652,6.244e-05,0
43.652,6.4286e-05,0
43.653,6.1433e-05,0
43.653,3.4577e-05,0
43.654,4.8676e-06,0
43.654,-1.0071e-06,0
43.655,1.8631e-05,0
43.655,6.3279e-05,0
43.656,0.00011699,0
43.656,0.00013545,0
43.657,0.00010423,0
43.657,4.7669e-05,0
43.658,-8.2246e-06,0
43.658,-6.5293e-05,0
43.659,-0.00012572,0
43.66,-0.00016584,0
43.66,-0.0001655,0
43.661,-0.00014955,0
43.661,-0.00012605,0
43.662,-7.9057e-05,0
43.662,-2.4338e-05,0
43.663,1.5778e-05,0
43.663,3.508e-05,0
43.664,3.2395e-05,0
43.664,2.182e-05,0
43.665,2.7695e-05,0
43.665,4.2634e-05,0
43.666,4.5991e-05,0
43.666,4.1123e-05,0
43.667,4.5319e-05,0
43.667,6.2272e-05,0
43.668,7.805e-05,0
43.668,8.6778e-05,0
43.669,8.7785e-05,0
43.669,7.7714e-05,0
43.67,4.7166e-05,0
43.67,-1.1749e-06,0
43.671,-4.448e-05,0
43.671,-6.1936e-05,0
43.672,-4.8676e-05,0
43.672,-1.561e-05,0
43.673,2.1988e-05,0
43.674,5.623e-05,0
43.674,7.6707e-05,0
43.675,7.4189e-05,0
43.675,5.3208e-05,0
43.676,1.8967e-05,0
43.676,-1.7288e-05,0
43.677,-3.978e-05,0
43.677,-3.8605e-05,0
43.678,2.182e-06,0
43.678,6.7979e-05,0
43.679,0.00011598,0
43.679,0.00012992,0
43.68,0.00011917,0
43.68,0.00010071,0
43.681,8.9464e-05,0
43.681,8.7449e-05,0
43.682,8.3421e-05,0
43.682,6.0258e-05,0
43.683,1.9303e-05,0
43.683,-5.7069e-06,0
43.684,6.8818e-06,0
43.684,4.0787e-05,0
43.685,6.6636e-05,0
43.685,6.865e-05,0
43.686,5.6062e-05,0
43.687,4.2298e-05,0
43.687,3.1891e-05,0
43.688,2.5345e-05,0
43.688,2.7359e-05,0
43.689,5.069e-05,0
43.689,8.8457e-05,0
43.69,0.00010591,0
43.69,8.0232e-05,0
43.691,3.3402e-05,0
43.691,-1.8463e-06,0
43.692,-2.8199e-05,0
43.692,-5.1026e-05,0
43.693,-6.8482e-05,0
43.693,-6.8315e-05,0
43.694,-5.8579e-05,0
43.694,-5.5894e-05,0
43.695,-4.8844e-05,0
43.695,-2.5681e-05,0
43.696,1.0071e-05,0
43.696,4.7501e-05,0
43.697,6.63e-05,0
43.697,6.3279e-05,0
43.698,5.7572e-05,0
43.698,6.244e-05,0
43.699,7.5364e-05,0
43.7,8.426e-05,0
43.7,7.9057e-05,0
43.701,7.2847e-05,0
43.701,7.1336e-05,0
43.702,7.6539e-05,0
43.702,8.5771e-05,0
43.703,8.6946e-05,0
43.703,8.04e-05,0
43.704,6.1601e-05,0
43.704,2.5345e-05,0
43.705,-9.0639e-06,0
43.705,-2.4002e-05,0
43.706,-2.031e-05,0
43.706,-1.1246e-05,0
43.707,-1.4771e-05,0
43.707,-2.8367e-05,0
43.708,-3.508e-05,0
43.708,-4.3137e-05,0
43.709,-5.4551e-05,0
43.709,-4.4984e-05,0
43.71,-1.3092e-05,0
43.71,1.6953e-05,0
43.711,3.3738e-05,0
43.711,5.2201e-05,0
43.712,8.9464e-05,0
43.712,0.00011699,0
43.713,0.00010457,0
43.714,6.7643e-05,0
43.714,2.9374e-05,0
43.715,-2.182e-06,0
43.715,-1.9638e-05,0
43.716,-2.6184e-05,0
43.716,-3.6591e-05,0
43.717,-5.5055e-05,0
43.717,-7.9561e-05,0
43.718,-8.3085e-05,0
43.718,-4.9348e-05,0
43.719,-1.1414e-05,0
43.719,-4.1962e-06,0
43.72,-3.0381e-05,0
43.72,-7.5029e-05,0
43.721,-0.00010491,0
43.721,-9.2149e-05,0
43.722,-3.2731e-05,0
43.722,3.1556e-05,0
43.723,5.623e-05,0
43.723,5.7908e-05,0
43.724,6.4958e-05,0
43.724,7.6371e-05,0
43.725,7.7211e-05,0
43.725,6.7643e-05,0
43.726,4.9851e-05,0
43.727,2.266e-05,0
43.727,2.0142e-06,0
43.728,1.8631e-05,0
43.728,6.6636e-05,0
43.729,0.00011598,0
43.729,0.00014888,0
43.73,0.00014737,0
43.73,0.00011061,0
43.731,5.8244e-05,0
43.731,-2.5177e-06,0
43.732,-6.1433e-05,0
43.732,-0.00011565,0
43.733,-0.00017742,0
43.733,-0.00023868,0
43.734,-0.00029592,0
43.734,-0.00032026,0
43.735,-0.00028702,0
43.735,-0.00020394,0
43.736,-8.3421e-05,0
43.736,5.2873e-05,0
43.737,0.000165,0
43.737,0.00023348,0
43.738,0.00026168,0
43.738,0.00026436,0
43.739,0.00024758,0
43.739,0.00021334,0
43.74,0.00018245,0
43.741,0.00017406,0
43.741,0.00018077,0
43.742,0.00017876,0
43.742,0.00014687,0
43.743,8.51e-05,0
43.743,1.1582e-05,0
43.744,-6.5797e-05,0
43.744,-0.00014351,0
43.745,-0.00020159,0
43.745,-0.00021334,0
43.746,-0.00018027,0
43.746,-0.00013462,0
43.747,-0.00010004,0
43.747,-7.2847e-05,0
43.748,-4.5991e-05,0
43.748,-2.7527e-05,0
43.749,-3.0716e-05,0
43.749,-4.1123e-05,0
43.75,-2.9206e-05,0
43.75,1.6953e-05,0
43.751,8.0903e-05,0
43.751,0.00013512,0
43.752,0.00016684,0
43.752,0.00018111,0
43.753,0.00018614,0
43.754,0.00018917,0
43.754,0.00019705,0
43.755,0.00020662,0
43.755,0.00020394,0
43.756,0.00017288,0
43.756,0.00011061,0
43.757,3.4073e-05,0
43.757,-3.6088e-05,0
43.758,-9.9535e-05,0
43.758,-0.00015207,0
43.759,-0.00017842,0
43.759,-0.00017708,0
43.76,-0.00016063,0
43.76,-0.00014804,0
43.761,-0.00013176,0
43.761,-8.5939e-05,0
43.762,-2.2995e-05,0
43.762,2.5177e-05,0
43.763,5.5726e-05,0
43.763,7.5029e-05,0
43.764,8.3925e-05,0
43.764,9.3492e-05,0
43.765,0.00011061,0
43.765,0.00013109,0
43.766,0.00014955,0
43.766,0.00015946,0
43.767,0.00015761,0
43.768,0.00015224,0
43.768,0.00014267,0
43.769,0.00011582,0
43.769,8.3085e-05,0
43.77,7.805e-05,0
43.77,8.8457e-05,0
43.771,7.4357e-05,0
43.771,3.6759e-05,0
43.772,6.2104e-06,0
43.772,-1.8967e-05,0
43.773,-8.8121e-05,0
43.773,-0.00021334,0
43.774,-0.00029793,0
43.774,-0.00026403,0
43.775,-0.00015325,0
43.775,-5.069e-05,0
43.776,9.9031e-06,0
43.776,3.9445e-05,0
43.777,5.4719e-05,0
43.777,6.5965e-05,0
43.778,7.57e-05,0
43.778,9.1814e-05,0
43.779,0.00012169,0
43.779,0.00014704,0
43.78,0.00014418,0
43.781,0.0001086,0
43.781,7.0832e-05,0
43.782,8.5771e-05,0
43.782,0.00014553,0
43.783,0.00018547,0
43.783,0.00018782,0
43.784,0.00017406,0
43.784,0.00013881,0
43.785,8.9632e-05,0
43.785,5.0187e-05,0
43.786,1.0575e-05,0
43.786,-3.6759e-05,0
43.787,-9.5842e-05,0
43.787,-0.00015862,0
43.788,-0.00018094,0
43.788,-0.00011112,0
43.789,3.2731e-05,0
43.789,0.00019487,0
43.79,0.00029558,0
43.79,0.0002788,0
43.791,0.00015056,0
43.791,-2.266e-05,0
43.792,-0.00014653,0
43.792,-0.000189,0
43.793,-0.00020998,0
43.793,-0.00024942,0
43.794,-0.00024758,0
43.795,-0.00017087,0
43.795,-6.2943e-05,0
43.796,4.9348e-05,0
43.796,0.00015157,0
43.797,0.00022072,0
43.797,0.00022492,0
43.798,0.00017339,0
43.798,9.9031e-05,0
43.799,2.8367e-05,0
43.799,-2.9038e-05,0
43.8,-6.3111e-05,0
43.8,-6.9993e-05,0
43.801,-8.3589e-05,0
43.801,-0.00012975,0
43.802,-0.00017003,0
43.802,-0.00015929,0
43.803,-9.3156e-05,0
43.803,3.357e-07,0
43.804,8.2918e-05,0
43.804,0.0001321,0
43.805,0.00016332,0
43.805,0.00020914,0
43.806,0.0002892,0
43.806,0.00037783,0
43.807,0.00037011,0
43.807,0.00023079,0
43.808,3.7766e-05,0
43.809,-0.000118,0
43.809,-0.00023214,0
43.81,-0.00033368,0
43.81,-0.00042382,0
43.811,-0.00049902,0
43.811,-0.00050858,0
43.812,-0.00037632,0
43.812,-0.00014166,0
43.813,5.7404e-05,0
43.813,0.0001425,0
43.814,0.00014485,0
43.814,0.00013042,0
43.815,0.00013143,0
43.815,0.00013848,0
43.816,0.00014116,0
43.816,0.0001462,0
43.817,0.00015895,0
43.817,0.0001744,0
43.818,0.00016684,0
43.818,0.00010323,0
43.819,-2.2492e-05,0
43.819,-0.00016382,0
43.82,-0.00024657,0
43.82,-0.00022542,0
43.821,-0.0001321,0
43.822,-3.3906e-05,0
43.822,3.7934e-05,0
43.823,7.5029e-05,0
43.823,7.8889e-05,0
43.824,6.0594e-05,0
43.824,5.2537e-05,0
43.825,8.04e-05,0
43.825,0.00013411,0
43.826,0.0001744,0
43.826,0.0001707,0
43.827,0.00013881,0
43.827,0.00012068,0
43.828,0.00014536,0
43.828,0.00019454,0
43.829,0.00022005,0
43.829,0.00020159,0
43.83,0.00014989,0
43.83,8.5771e-05,0
43.831,3.0381e-05,0
43.831,-3.8605e-06,0
43.832,-3.2395e-05,0
43.832,-6.6972e-05,0
43.833,-8.4764e-05,0
43.833,-7.57e-05,0
43.834,-3.0884e-05,0
43.834,2.7695e-05,0
43.835,5.4047e-05,0
43.836,3.6088e-05,0
43.836,-7.7211e-06,0
43.837,-5.388e-05,0
43.837,-6.2272e-05,0
43.838,5.0355e-07,0
43.838,8.5603e-05,0
43.839,0.00010172,0
43.839,3.2227e-05,0
43.84,-7.2343e-05,0
43.84,-0.00016214,0
43.841,-0.00018917,0
43.841,-0.00014166,0
43.842,-8.8624e-05,0
43.842,-0.00011028,0
43.843,-0.00021401,0
43.843,-0.00032059,0
43.844,-0.00032999,0
43.844,-0.0002031,0
43.845,-2.0813e-05,0
43.845,0.0001185,0
43.846,0.00015627,0
43.846,0.00011179,0
43.847,9.4163e-05,0
43.847,0.00014083,0
43.848,0.00019168,0
43.849,0.00021535,0
43.849,0.00021518,0
43.85,0.00018917,0
43.85,0.00015543,0
43.851,0.00013008,0
43.851,0.00010524,0
43.852,9.366e-05,0
43.852,0.00011498,0
43.853,0.00015694,0
43.853,0.00015358,0
43.854,0.0001039,0
43.854,6.6972e-05,0
43.855,5.9922e-05,0
43.855,6.9657e-05,0
43.856,0.00010155,0
43.856,0.00010524,0
43.857,1.5946e-05,0
43.857,-0.00014234,0
43.858,-0.00027074,0
43.858,-0.00032529,0
43.859,-0.00030918,0
43.859,-0.00023381,0
43.86,-0.00012958,0
43.86,-4.9683e-05,0
43.861,6.2104e-06,0
43.861,7.1168e-05,0
43.862,0.00012605,0
43.863,0.00013411,0
43.863,9.5842e-05,0
43.864,5.1865e-05,0
43.864,3.6759e-05,0
43.865,5.2033e-05,0
43.865,6.6972e-05,0
43.866,6.8818e-05,0
43.866,7.2175e-05,0
43.867,8.51e-05,0
43.867,8.7785e-05,0
43.868,7.6371e-05,0
43.868,7.805e-05,0
43.869,9.0303e-05,0
43.869,8.9464e-05,0
43.87,7.1336e-05,0
43.87,6.7643e-05,0
43.871,0.00011263,0
43.871,0.00018245,0
43.872,0.00021166,0
43.872,0.00019286,0
43.873,0.0001754,0
43.873,0.00015593,0
43.874,0.00010088,0
43.874,1.5946e-05,0
43.875,-5.9251e-05,0
43.876,-0.00011464,0
43.876,-0.00017205,0
43.877,-0.00023986,0
43.877,-0.00026503,0
43.878,-0.00020293,0
43.878,-8.2078e-05,0
43.879,5.1362e-05,0
43.879,0.00015711,0
43.88,0.00021166,0
43.88,0.0002224,0
43.881,0.00020981,0
43.881,0.00019051,0
43.882,0.00016886,0
43.882,0.00014351,0
43.883,0.00010961,0
43.883,5.8244e-05,0
43.884,-1.5946e-05,0
43.884,-0.00010709,0
43.885,-0.00018547,0
43.885,-0.00021736,0
43.886,-0.00020159,0
43.886,-0.00016013,0
43.887,-0.00011749,0
43.887,-8.6946e-05,0
43.888,-8.3925e-05,0
43.889,-8.3421e-05,0
43.889,-3.2731e-05,0
43.89,8.2078e-05,0
43.89,0.00018849,0
43.891,0.00021636,0
43.891,0.0001749,0
43.892,0.00010558,0
43.892,4.2802e-05,0
43.893,-6.2104e-06,0
43.893,-4.2634e-05,0
43.894,-3.6759e-05,0
43.894,2.4338e-05,0
43.895,9.9199e-05,0
43.895,0.00014301,0
43.896,0.00014217,0
43.896,0.0001039,0
43.897,4.7501e-05,0
43.897,-9.5674e-06,0
43.898,-5.6062e-05,0
43.898,-8.4428e-05,0
43.899,-0.00010407,0
43.899,-0.00011095,0
43.9,-9.1478e-05,0
43.9,-5.7404e-05,0
43.901,-3.1052e-05,0
43.901,-1.8631e-05,0
43.902,-1.4099e-05,0
43.903,-1.9638e-05,0
43.903,-4.5319e-05,0
43.904,-9.6849e-05,0
43.904,-0.00016399,0
43.905,-0.00021921,0
43.905,-0.00023566,0
43.906,-0.0002078,0
43.906,-0.00015039,0
43.907,-8.8289e-05,0
43.907,-2.9877e-05,0
43.908,2.2324e-05,0
43.908,5.9251e-05,0
43.909,8.5267e-05,0
43.909,0.00010457,0
43.91,0.00012102,0
43.91,0.00013277,0
43.911,0.00014418,0
43.911,0.000165,0
43.912,0.00018581,0
43.912,0.00018917,0
43.913,0.00018212,0
43.913,0.00020394,0
43.914,0.00028534,0
43.914,0.00038387,0
43.915,0.00041912,0
43.916,0.00037313,0
43.916,0.00026033,0
43.917,9.7856e-05,0
43.917,-7.6371e-05,0
43.918,-0.00021267,0
43.918,-0.00031539,0
43.919,-0.0003921,0
43.919,-0.00038051,0
43.92,-0.00024691,0
43.92,-5.9083e-05,0
43.921,6.9657e-05,0
43.921,0.00010188,0
43.922,7.9057e-05,0
43.922,5.0523e-05,0
43.923,1.9806e-05,0
43.923,-1.6785e-06,0
43.924,2.4002e-05,0
43.924,9.6849e-05,0
43.925,0.0001791,0
43.925,0.00020343,0
43.926,0.000166,0
43.926,0.00011531,0
43.927,6.1936e-05,0
43.927,6.5461e-06,0
43.928,-4.5823e-05,0
43.928,-0.00011733,0
43.929,-0.0002229,0
43.93,-0.00031505,0
43.93,-0.00029911,0
43.931,-0.00013596,0
43.931,7.7043e-05,0
43.932,0.00020797,0
43.932,0.00023331,0
43.933,0.00020024,0
43.933,0.00015627,0
43.934,0.0001237,0
43.934,0.00010289,0
43.935,8.51e-05,0
43.935,7.0329e-05,0
43.936,6.4286e-05,0
43.936,6.0258e-05,0
43.937,3.7766e-05,0
43.937,-9.5674e-06,0
43.938,-6.4118e-05,0
43.938,-0.00010961,0
43.939,-0.00013277,0
43.939,-0.00012589,0
43.94,-9.4667e-05,0
43.94,-5.304e-05,0
43.941,-1.1414e-05,0
43.941,2.4338e-05,0
43.942,4.6662e-05,0
43.943,5.8579e-05,0
43.943,6.9993e-05,0
43.944,7.9057e-05,0
43.944,7.7043e-05,0
43.945,6.8315e-05,0
43.945,6.949e-05,0
43.946,8.7114e-05,0
43.946,0.00010457,0
43.947,0.00010256,0
43.947,8.9632e-05,0
43.948,8.1743e-05,0
43.948,7.9057e-05,0
43.949,7.3686e-05,0
43.949,6.3615e-05,0
43.95,4.7501e-05,0
43.95,3.2059e-05,0
43.951,1.9974e-05,0
43.951,5.2033e-06,0
43.952,-1.9806e-05,0
43.952,-4.6494e-05,0
43.953,-4.9012e-05,0
43.953,-1.9638e-05,0
43.954,2.266e-05,0
43.954,5.5222e-05,0
43.955,7.4022e-05,0
43.955,8.9632e-05,0
43.956,0.00011313,0
43.957,0.00013915,0
43.957,0.00013881,0
43.958,9.5842e-05,0
43.958,4.6159e-05,0
43.959,2.182e-05,0
43.959,2.6856e-06,0
43.96,-4.0116e-05,0
43.96,-0.00010323,0
43.961,-0.00014519,0
43.961,-0.00013797,0
43.962,-0.00011263,0
43.962,-0.00010306,0
43.963,-0.00011766,0
43.963,-0.0001415,0
43.964,-0.00014754,0
43.964,-0.00012706,0
43.965,-9.7185e-05,0
43.965,-7.6371e-05,0
43.966,-6.7308e-05,0
43.966,-4.7501e-05,0
43.967,-6.5461e-06,0
43.967,3.6088e-05,0
43.968,6.0929e-05,0
43.968,6.9657e-05,0
43.969,7.7714e-05,0
43.969,9.5171e-05,0
43.97,0.00012337,0
43.971,0.00014653,0
43.971,0.00014301,0
43.972,0.00010961,0
43.972,6.7643e-05,0
43.973,3.4073e-05,0
43.973,1.1582e-05,0
43.974,3.357e-07,0
43.974,-1.4267e-05,0
43.975,-3.7766e-05,0
43.975,-5.5558e-05,0
43.976,-4.9851e-05,0
43.976,-2.2324e-05,0
43.977,4.1962e-06,0
43.977,1.5106e-05,0
43.978,1.9135e-05,0
43.978,4.0284e-05,0
43.979,6.6804e-05,0
43.979,7.9057e-05,0
43.98,8.7449e-05,0
43.98,9.4499e-05,0
43.981,8.896e-05,0
43.981,7.3182e-05,0
43.982,5.6733e-05,0
43.982,4.1794e-05,0
43.983,1.7288e-05,0
43.984,-3.122e-05,0
43.984,-8.5435e-05,0
43.985,-0.00010893,0
43.985,-8.1743e-05,0
43.986,-3.0381e-05,0
43.986,6.2104e-06,0
43.987,1.9303e-05,0
43.987,2.2492e-05,0
43.988,3.0716e-05,0
43.988,4.6326e-05,0
43.989,6.1433e-05,0
43.989,6.3447e-05,0
43.99,5.7572e-05,0
43.99,5.8915e-05,0
43.991,5.6901e-05,0
43.991,4.918e-05,0
43.992,4.6159e-05,0
43.992,4.7333e-05,0
43.993,5.4047e-05,0
43.993,6.3447e-05,0
43.994,6.2608e-05,0
43.994,5.069e-05,0
43.995,6.2608e-05,0
43.995,0.00012572,0
43.996,0.00019454,0
43.996,0.00021871,0
43.997,0.00019789,0
43.998,0.0001556,0
43.998,0.0001086,0
43.999,7.7043e-05,0
43.999,8.0064e-05,0
44,9.9199e-05,0
44,0.00010323,0
44.001,8.0735e-05,0
44.001,2.0142e-05,0
44.002,-5.388e-05,0
44.002,-0.00010457,0
44.003,-0.00014083,0
44.003,-0.00019168,0
44.004,-0.00025563,0
44.004,-0.00028333,0
44.005,-0.00024321,0
44.005,-0.00017305,0
44.006,-0.00011296,0
44.006,-7.6371e-05,0
44.007,-5.2201e-05,0
44.007,-3.0381e-05,0
44.008,-1.3596e-05,0
44.008,-2.4338e-05,0
44.009,-8.426e-05,0
44.009,-0.00017171,0
44.01,-0.00022744,0
44.011,-0.00020259,0
44.011,-9.2317e-05,0
44.012,5.7572e-05,0
44.012,0.00017607,0
44.013,0.00022475,0
44.013,0.00020394,0
44.014,0.00014553,0
44.014,9.836e-05,0
44.015,8.8289e-05,0
44.015,9.8863e-05,0
44.016,0.00010289,0
44.016,9.2988e-05,0
44.017,7.805e-05,0
44.017,6.1265e-05,0
44.018,5.2873e-05,0
44.018,5.2873e-05,0
44.019,5.3208e-05,0
44.019,6.4286e-05,0
44.02,9.8024e-05,0
44.02,0.00014318,0
44.021,0.00017305,0
44.021,0.00016835,0
44.022,0.00013176,0
44.022,7.8386e-05,0
44.023,2.266e-05,0
44.023,-2.8031e-05,0
44.024,-6.7308e-05,0
44.025,-8.275e-05,0
44.025,-7.2511e-05,0
44.026,-3.9445e-05,0
44.026,7.5532e-06,0
44.027,4.9012e-05,0
44.027,7.2007e-05,0
44.028,7.0665e-05,0
44.028,6.1265e-05,0
44.029,6.6972e-05,0
44.029,8.6107e-05,0
44.03,0.00010759,0
44.03,0.00012001,0
44.031,0.00010658,0
44.031,4.8676e-05,0
44.032,-4.0787e-05,0
44.032,-0.00012203,0
44.033,-0.00015174,0
44.033,-0.00012337,0
44.034,-8.5771e-05,0
44.034,-7.1168e-05,0
44.035,-7.2847e-05,0
44.035,-7.9057e-05,0
44.036,-8.04e-05,0
44.036,-6.3615e-05,0
44.037,-3.0381e-05,0
44.038,7.2175e-06,0
44.038,4.1123e-05,0
44.039,5.9922e-05,0
44.039,6.5126e-05,0
44.04,6.5965e-05,0
44.04,6.7811e-05,0
44.041,6.9657e-05,0
44.041,7.2847e-05,0
44.042,8.7114e-05,0
44.042,0.00011095,0
44.043,0.00013176,0
44.043,0.0001462,0
44.044,0.000165,0
44.044,0.00017893,0
44.045,0.00018027,0
44.045,0.00017977,0
44.046,0.00019454,0
44.046,0.00024154,0
44.047,0.00033117,0
44.047,0.00040787,0
44.048,0.00040317,0
44.048,0.00029894,0
44.049,0.00013059,0
44.049,-5.4887e-05,0
44.05,-0.00022106,0
44.05,-0.0003555,0
44.051,-0.0004641,0
44.052,-0.00053107,0
44.052,-0.00052772,0
44.053,-0.00044195,0
44.053,-0.00030582,0
44.054,-0.00019286,0
44.054,-0.00014653,0
44.055,-0.00014788,0
44.055,-0.00015879,0
44.056,-0.00016013,0
44.056,-0.00013713,0
44.057,-4.8341e-05,0
44.057,9.1142e-05,0
44.058,0.00020394,0
44.058,0.00024691,0
44.059,0.00022106,0
44.059,0.00015274,0
44.06,6.5629e-05,0
44.06,-3.0884e-05,0
44.061,-0.00013378,0
44.061,-0.0001942,0
44.062,-0.00015929,0
44.062,-3.6423e-05,0
44.063,0.00011263,0
44.063,0.00021183,0
44.064,0.00023616,0
44.065,0.00021233,0
44.065,0.00016231,0
44.066,0.00010558,0
44.066,6.4118e-05,0
44.067,3.4745e-05,0
44.067,6.5461e-06,0
44.068,-1.9303e-05,0
44.068,-4.3137e-05,0
44.069,-6.1265e-05,0
44.069,-4.8005e-05,0
44.07,-1.4603e-05,0
44.07,-5.2033e-06,0
44.071,-3.0549e-05,0
44.071,-5.2369e-05,0
44.072,-3.2563e-05,0
44.072,2.9877e-05,0
44.073,0.00010239,0
44.073,0.00015526,0
44.074,0.00017842,0
44.074,0.00017389,0
44.075,0.00016365,0
44.075,0.00016533,0
44.076,0.00016231,0
44.076,0.00016667,0
44.077,0.00023449,0
44.078,0.00032412,0
44.078,0.00031472,0
44.079,0.00017171,0
44.079,-3.2563e-05,0
44.08,-0.000189,0
44.08,-0.00024573,0
44.081,-0.00021602,0
44.081,-0.00016164,0
44.082,-0.00013613,0
44.082,-0.00013948,0
44.083,-0.00012723,0
44.083,-6.865e-05,0
44.084,7.8889e-06,0
44.084,5.7908e-05,0
44.085,7.0161e-05,0
44.085,6.6636e-05,0
44.086,6.4118e-05,0
44.086,6.6804e-05,0
44.087,6.4958e-05,0
44.087,5.0858e-05,0
44.088,5.2873e-05,0
44.088,8.04e-05,0
44.089,8.6778e-05,0
44.089,4.6159e-05,0
44.09,-1.6281e-05,0
44.09,-7.1672e-05,0
44.091,-0.00010423,0
44.092,-9.0806e-05,0
44.092,-4.3473e-05,0
44.093,9.5674e-06,0
44.093,5.3208e-05,0
44.094,8.1071e-05,0
44.094,9.2485e-05,0
44.095,8.661e-05,0
44.095,7.335e-05,0
44.096,6.2608e-05,0
44.096,5.8747e-05,0
44.097,5.8915e-05,0
44.097,4.8508e-05,0
44.098,3.2731e-05,0
44.098,2.5345e-05,0
44.099,2.1317e-05,0
44.099,2.1317e-05,0
44.1,3.4745e-05,0
44.1,5.5222e-05,0
44.101,6.2776e-05,0
44.101,4.3473e-05,0
44.102,8.3925e-06,0
44.102,-1.1749e-05,0
44.103,-4.8676e-06,0
44.103,1.7121e-05,0
44.104,4.2466e-05,0
44.105,6.949e-05,0
44.105,9.0471e-05,0
44.106,8.896e-05,0
44.106,5.5558e-05,0
44.107,3.5248e-06,0
44.107,-1.796e-05,0
44.108,5.0187e-05,0
44.108,0.0001843,0
44.109,0.00027007,0
44.109,0.0002647,0
44.11,0.00021267,0
44.11,0.00014485,0
44.111,8.3085e-05,0
44.111,3.4409e-05,0
44.112,-2.3331e-05,0
44.112,-0.00011212,0
44.113,-0.00019622,0
44.113,-0.00019152,0
44.114,-9.4835e-05,0
44.114,-2.0813e-05,0
44.115,-5.1865e-05,0
44.115,-0.00013478,0
44.116,-0.00017473,0
44.116,-0.00016349,0
44.117,-0.00013411,0
44.117,-0.00010306,0
44.118,-8.8289e-05,0
44.119,-8.6778e-05,0
44.119,-7.0497e-05,0
44.12,-4.1291e-05,0
44.12,-1.8463e-05,0
44.121,4.0284e-06,0
44.121,5.8747e-06,0
44.122,-2.3667e-05,0
44.122,-5.1362e-05,0
44.123,-4.1794e-05,0
44.123,-3.6927e-06,0
44.124,1.9135e-05,0
44.124,2.1149e-05,0
44.125,3.8102e-05,0
44.125,5.2201e-05,0
44.126,4.0787e-05,0
44.126,4.683e-05,0
44.127,8.3085e-05,0
44.127,8.8289e-05,0
44.128,4.6326e-05,0
44.128,-5.7069e-06,0
44.129,-2.0981e-05,0
44.129,5.153e-05,0
44.13,0.00016701,0
44.13,0.00021921,0
44.131,0.0001848,0
44.132,0.00010407,0
44.132,1.8631e-05,0
44.133,-1.8631e-05,0
44.133,-1.3764e-05,0
44.134,-2.5345e-05,0
44.134,-9.1142e-05,0
44.135,-0.00016802,0
44.135,-0.00018564,0
44.136,-0.00014922,0
44.136,-8.8792e-05,0
44.137,-3.1388e-05,0
44.137,-1.2924e-05,0
44.138,-1.2924e-05,0
44.138,3.1388e-05,0
44.139,9.7856e-05,0
44.139,0.00012723,0
44.14,0.00011263,0
44.14,8.3757e-05,0
44.141,6.1601e-05,0
44.141,4.7166e-05,0
44.142,3.5584e-05,0
44.142,2.0142e-05,0
44.143,1.1414e-05,0
44.143,1.4939e-05,0
44.144,2.1988e-05,0
44.144,3.9612e-05,0
44.145,6.3951e-05,0
44.146,7.7379e-05,0
44.146,7.7546e-05,0
44.147,6.3951e-05,0
44.147,2.6688e-05,0
44.148,-2.2324e-05,0
44.148,-4.7333e-05,0
44.149,-4.0116e-05,0
44.149,-5.539e-06,0
44.15,6.5293e-05,0
44.15,0.00015627,0
44.151,0.0002172,0
44.151,0.00021199,0
44.152,0.00016584,0
44.152,0.00013545,0
44.153,0.00015996,0
44.153,0.00020394,0
44.154,0.00018883,0
44.154,0.00010239,0
44.155,-5.2033e-06,0
44.155,-8.2414e-05,0
44.156,-0.00012303,0
44.156,-0.00015912,0
44.157,-0.00018849,0
44.157,-0.00016432,0
44.158,-8.275e-05,0
44.158,9.9031e-06,0
44.159,7.2007e-05,0
44.16,9.3492e-05,0
44.16,8.4428e-05,0
44.161,5.7237e-05,0
44.161,1.7121e-05,0
44.162,-2.8534e-05,0
44.162,-5.7237e-05,0
44.163,-4.3809e-05,0
44.163,-4.3641e-06,0
44.164,3.2731e-05,0
44.164,5.153e-05,0
44.165,5.153e-05,0
44.165,4.4648e-05,0
44.166,4.0787e-05,0
44.166,3.3906e-05,0
44.167,7.8889e-06,0
44.167,-3.1556e-05,0
44.168,-5.9922e-05,0
44.168,-9.2317e-05,0
44.169,-0.00011901,0
44.169,-9.4835e-05,0
44.17,-3.3738e-05,0
44.17,1.0407e-05,0
44.171,2.2324e-05,0
44.171,3.0549e-05,0
44.172,5.6565e-05,0
44.173,0.00010591,0
44.173,0.00016584,0
44.174,0.00020511,0
44.174,0.00021602,0
44.175,0.00024691,0
44.175,0.000307,0
44.176,0.00033419,0
44.176,0.00030062,0
44.177,0.00023851,0
44.177,0.00015828,0
44.178,6.7475e-05,0
44.178,1.2757e-05,0
44.179,9.2317e-06,0
44.179,3.357e-07,0
44.18,-6.3279e-05,0
44.18,-0.0001566,0
44.181,-0.00022106,0
44.181,-0.00025429,0
44.182,-0.00029609,0
44.182,-0.00033167,0
44.183,-0.00031489,0
44.183,-0.00023935,0
44.184,-6.0929e-05,0
44.184,0.00019672,0
44.185,0.00038387,0
44.185,0.00044866,0
44.186,0.00042684,0
44.187,0.00034023,0
44.187,0.00020763,0
44.188,2.0813e-05,0
44.188,-0.00025026,0
44.189,-0.00055055,0
44.189,-0.00071655,0
44.19,-0.00063044,0
44.19,-0.0003832,0
44.191,-0.00017221,0
44.191,-7.6875e-05,0
44.192,-5.2537e-05,0
44.192,-4.1291e-05,0
44.193,-3.6927e-06,0
44.193,6.3615e-05,0
44.194,0.00012807,0
44.194,0.00015694,0
44.195,0.00015459,0
44.195,0.00014183,0
44.196,0.0001378,0
44.196,0.0001514,0
44.197,0.00016701,0
44.197,0.00015241,0
44.198,0.00010188,0
44.198,4.7501e-05,0
44.199,3.357e-07,0
44.2,-3.2395e-05,0
44.2,-3.508e-05,0
44.201,-2.3667e-05,0
44.201,-1.5946e-05,0
44.202,-5.0355e-07,0
44.202,1.7121e-05,0
44.203,9.9199e-05,0
44.203,0.00026369,0
44.204,0.0003785,0
44.204,0.00035366,0
44.205,0.00022744,0
44.205,7.7379e-05,0
44.206,-5.4551e-05,0
44.206,-0.00016281,0
44.207,-0.00023717,0
44.207,-0.00024489,0
44.208,-0.00017003,0
44.208,-5.9754e-05,0
44.209,-4.8676e-06,0
44.209,-1.796e-05,0
44.21,-3.4745e-05,0
44.21,-1.1917e-05,0
44.211,3.8773e-05,0
44.211,9.5506e-05,0
44.212,0.00012303,0
44.212,0.00011128,0
44.213,0.00010155,0
44.214,0.0001237,0
44.214,0.00016449,0
44.215,0.00018245,0
44.215,0.00016449,0
44.216,0.00012421,0
44.216,5.7237e-05,0
44.217,-4.5823e-05,0
44.217,-0.00016214,0
44.218,-0.00023449,0
44.218,-0.0002266,0
44.219,-0.00016097,0
44.219,-7.7043e-05,0
44.22,-1.6785e-07,0
44.22,6.0258e-05,0
44.221,0.00010121,0
44.221,0.00012639,0
44.222,0.00014015,0
44.222,0.00014922,0
44.223,0.00015006,0
44.223,0.00013529,0
44.224,0.00012119,0
44.224,0.00012874,0
44.225,0.00014435,0
44.225,0.00013394,0
44.226,7.8553e-05,0
44.227,-4.1962e-06,0
44.227,-7.8721e-05,0
44.228,-0.00012287,0
44.228,-0.0001284,0
44.229,-0.00010222,0
44.229,-6.6972e-05,0
44.23,-5.2537e-05,0
44.23,-4.3977e-05,0
44.231,-4.5319e-06,0
44.231,4.2802e-05,0
44.232,6.1265e-05,0
44.232,5.5894e-05,0
44.233,4.4816e-05,0
44.233,2.7192e-05,0
44.234,6.5461e-06,0
44.234,-3.6927e-06,0
44.235,6.2104e-06,0
44.235,4.4816e-05,0
44.236,0.0001039,0
44.236,0.0001425,0
44.237,0.00014922,0
44.237,0.0001373,0
44.238,0.00010088,0
44.238,3.9277e-05,0
44.239,-2.652e-05,0
44.239,-7.2847e-05,0
44.24,-0.00010138,0
44.241,-0.00011078,0
44.241,-6.6636e-05,0
44.242,2.6688e-05,0
44.242,6.9993e-05,0
44.243,2.7359e-05,0
44.243,-3.6759e-05,0
44.244,-8.1407e-05,0
44.244,-0.00010323,0
44.245,-9.5842e-05,0
44.245,-6.3615e-05,0
44.246,-2.6017e-05,0
44.246,1.4267e-05,0
44.247,6.0426e-05,0
44.247,9.5842e-05,0
44.248,0.0001086,0
44.248,0.00012605,0
44.249,0.0001368,0
44.249,0.00010054,0
44.25,2.7359e-05,0
44.25,-3.7766e-05,0
44.251,-6.714e-05,0
44.251,-8.04e-05,0
44.252,-0.00010004,0
44.252,-0.00011464,0
44.253,-0.00012454,0
44.254,-0.00011649,0
44.254,-3.9612e-05,0
44.255,8.0735e-05,0
44.255,0.00015862,0
44.256,0.00015727,0
44.256,0.00010709,0
44.257,9.1814e-05,0
44.257,0.00019638,0
44.258,0.00034879,0
44.258,0.00041073,0
44.259,0.0003305,0
44.259,0.00017154,0
44.26,2.417e-05,0
44.26,-7.9561e-05,0
44.261,-0.00017322,0
44.261,-0.00028333,0
44.262,-0.00035148,0
44.262,-0.00030582,0
44.263,-0.00014099,0
44.263,3.3906e-05,0
44.264,9.9199e-05,0
44.264,9.0471e-05,0
44.265,0.00010323,0
44.265,0.00014586,0
44.266,0.0001467,0
44.267,6.7475e-05,0
44.267,-5.2201e-05,0
44.268,-0.00014099,0
44.268,-0.00015912,0
44.269,-0.00010457,0
44.269,-1.0575e-05,0
44.27,7.4693e-05,0
44.27,0.00012773,0
44.271,0.0001462,0
44.271,0.00014536,0
44.272,0.00014351,0
44.272,0.00016768,0
44.273,0.00023348,0
44.273,0.00029726,0
44.274,0.00027359,0
44.274,0.00016164,0
44.275,3.8102e-05,0
44.275,-5.5558e-05,0
44.276,-0.00011598,0
44.276,-0.00014116,0
44.277,-0.00010893,0
44.277,-1.6281e-05,0
44.278,8.2918e-05,0
44.278,0.00013008,0
44.279,0.00010054,0
44.279,1.6617e-05,0
44.28,-8.6275e-05,0
44.281,-0.00015996,0
44.281,-0.00018631,0
44.282,-0.0001801,0
44.282,-0.00016248,0
44.283,-0.00015039,0
44.283,-0.00015392,0
44.284,-0.00016667,0
44.284,-0.00017255,0
44.285,-0.00016567,0
44.285,-0.00014519,0
44.286,-9.2317e-05,0
44.286,-5.0355e-07,0
44.287,8.2918e-05,0
44.287,0.00010726,0
44.288,8.3085e-05,0
44.288,5.4215e-05,0
44.289,4.3977e-05,0
44.289,4.9516e-05,0
44.29,6.009e-05,0
44.29,7.2175e-05,0
44.291,9.2485e-05,0
44.291,0.00011128,0
44.292,0.00011699,0
44.292,0.00011296,0
44.293,0.00010793,0
44.294,0.00010759,0
44.294,0.00010944,0
44.295,0.00010961,0
44.295,0.00011162,0
44.296,0.00012136,0
44.296,0.00013512,0
44.297,0.00013898,0
44.297,0.00012337,0
44.298,8.1575e-05,0
44.298,2.1317e-05,0
44.299,-1.9471e-05,0
44.299,-1.7456e-05,0
44.3,1.5106e-06,0
44.3,2.5177e-06,0
44.301,-1.9638e-05,0
44.301,-4.7837e-05,0
44.302,-6.4622e-05,0
44.302,-7.1336e-05,0
44.303,-7.1672e-05,0
44.303,-5.7069e-05,0
44.304,-2.266e-05,0
44.304,1.1917e-05,0
44.305,3.5416e-05,0
44.305,5.6062e-05,0
44.306,7.9896e-05,0
44.306,0.0001086,0
44.307,0.00013948,0
44.308,0.00016265,0
44.308,0.00016298,0
44.309,0.0001373,0
44.309,0.00010726,0
44.31,0.00010591,0
44.31,0.00011766,0
44.311,9.4163e-05,0
44.311,1.4771e-05,0
44.312,-9.5171e-05,0
44.312,-0.00019756,0
44.313,-0.00027427,0
44.313,-0.00031724,0
44.314,-0.00031522,0
44.314,-0.00026604,0
44.315,-0.00019638,0
44.315,-0.0001368,0
44.316,-9.7353e-05,0
44.316,-7.1672e-05,0
44.317,-4.5823e-05,0
44.317,-5.539e-06,0
44.318,3.8437e-05,0
44.318,6.6972e-05,0
44.319,7.8721e-05,0
44.319,8.0232e-05,0
44.32,8.0064e-05,0
44.321,7.2343e-05,0
44.321,5.4215e-05,0
44.322,4.7501e-05,0
44.322,6.5126e-05,0
44.323,9.1814e-05,0
44.323,0.00011363,0
44.324,0.00012941,0
44.324,0.00014284,0
44.325,0.00013663,0
44.325,0.00010961,0
44.326,8.275e-05,0
44.326,6.6636e-05,0
44.327,5.7404e-05,0
44.327,5.0858e-05,0
44.328,3.8605e-05,0
44.328,2.031e-05,0
44.329,7.2175e-06,0
44.329,1.326e-05,0
44.33,4.1123e-05,0
44.33,8.1743e-05,0
44.331,0.00012035,0
44.331,0.00014955,0
44.332,0.0001702,0
44.332,0.00020125,0
44.333,0.00023751,0
44.333,0.00025127,0
44.334,0.00022895,0
44.335,0.00016634,0
44.335,6.7811e-05,0
44.336,-5.2033e-05,0
44.336,-0.00015795,0
44.337,-0.0002271,0
44.337,-0.00026033,0
44.338,-0.00026235,0
44.338,-0.00020612,0
44.339,-5.9586e-05,0
44.339,0.00010306,0
44.34,0.0001791,0
44.34,0.00017557,0
44.341,0.00018363,0
44.341,0.00021384,0
44.342,0.00017977,0
44.342,5.5558e-05,0
44.343,-0.00010138,0
44.343,-0.0002313,0
44.344,-0.00031774,0
44.344,-0.0003545,0
44.345,-0.00031807,0
44.345,-0.00024338,0
44.346,-0.00018816,0
44.346,-0.00011984,0
44.347,-2.7024e-05,0
44.347,5.2201e-05,0
44.348,0.00010524,0
44.349,0.00013747,0
44.349,0.0001425,0
44.35,0.00012236,0
44.35,9.5003e-05,0
44.351,7.6371e-05,0
44.351,7.6036e-05,0
44.352,8.275e-05,0
44.352,8.4932e-05,0
44.353,8.2078e-05,0
44.353,7.3014e-05,0
44.354,5.7572e-05,0
44.354,2.7359e-05,0
44.355,-1.5442e-05,0
44.355,-4.3305e-05,0
44.356,-3.4409e-05,0
44.356,-4.5319e-06,0
44.357,1.9806e-05,0
44.357,3.3066e-05,0
44.358,4.6662e-05,0
44.358,6.4286e-05,0
44.359,7.9057e-05,0
44.359,8.5267e-05,0
44.36,8.3421e-05,0
44.36,8.0064e-05,0
44.361,7.4525e-05,0
44.362,7.3014e-05,0
44.362,9.0471e-05,0
44.363,0.00011917,0
44.363,0.00013411,0
44.364,0.00013797,0
44.364,0.00014855,0
44.365,0.00015862,0
44.365,0.0001509,0
44.366,0.00012471,0
44.366,9.7856e-05,0
44.367,7.2175e-05,0
44.367,1.3931e-05,0
44.368,-9.4667e-05,0
44.368,-0.00020226,0
44.369,-0.00022358,0
44.369,-0.00015325,0
44.37,-5.9251e-05,0
44.37,1.3931e-05,0
44.371,5.8579e-05,0
44.371,7.5029e-05,0
44.372,7.4861e-05,0
44.372,6.0929e-05,0
44.373,3.0716e-05,0
44.373,-2.7527e-05,0
44.374,-0.00010608,0
44.374,-0.00015593,0
44.375,-0.00015224,0
44.376,-0.00011481,0
44.376,-7.9057e-05,0
44.377,-5.5726e-05,0
44.377,-4.2634e-05,0
44.378,-4.0452e-05,0
44.378,-4.2802e-05,0
44.379,-4.918e-05,0
44.379,-5.6901e-05,0
44.38,-4.7333e-05,0
44.38,-1.6785e-05,0
44.381,1.7288e-05,0
44.381,4.5319e-05,0
44.382,6.9657e-05,0
44.382,9.2485e-05,0
44.383,0.00010642,0
44.383,0.00010658,0
44.384,0.00010188,0
44.384,0.00010172,0
44.385,9.7856e-05,0
44.385,7.6036e-05,0
44.386,3.4073e-05,0
44.386,-1.2757e-05,0
44.387,-4.2802e-05,0
44.387,-4.5823e-05,0
44.388,-3.4577e-05,0
44.389,-1.6281e-05,0
44.389,2.6688e-05,0
44.39,9.752e-05,0
44.39,0.00016651,0
44.391,0.00020259,0
44.391,0.00019588,0
44.392,0.00017037,0
44.392,0.00016197,0
44.393,0.00017607,0
44.393,0.00019857,0
44.394,0.00020662,0
44.394,0.00016802,0
44.395,4.3473e-05,0
44.395,-0.00015258,0
44.396,-0.00030028,0
44.396,-0.00029676,0
44.397,-0.00017926,0
44.397,-5.774e-05,0
44.398,-7.5532e-06,0
44.398,-3.122e-05,0
44.399,-7.5868e-05,0
44.399,-9.9702e-05,0
44.4,-0.00010188,0
44.4,-9.3828e-05,0
44.401,-7.9728e-05,0
44.401,-6.4286e-05,0
44.402,-5.5894e-05,0
44.403,-5.623e-05,0
44.403,-5.0523e-05,0
44.404,-2.5177e-05,0
44.404,1.7456e-05,0
44.405,5.7908e-05,0
44.405,8.1575e-05,0
44.406,8.7785e-05,0
44.406,8.3421e-05,0
44.407,7.5029e-05,0
44.407,7.0665e-05,0
44.408,6.7979e-05,0
44.408,5.8579e-05,0
44.409,3.9109e-05,0
44.409,1.6953e-05,0
44.41,-2.0142e-06,0
44.41,7.2175e-06,0
44.411,6.949e-05,0
44.411,0.00014066,0
44.412,0.00016634,0
44.412,0.00013713,0
44.413,8.7449e-05,0
44.413,5.9586e-05,0
44.414,4.7501e-05,0
44.414,3.0045e-05,0
44.415,-1.5106e-06,0
44.416,-4.2634e-05,0
44.416,-7.9393e-05,0
44.417,-6.2608e-05,0
44.417,3.4745e-05,0
44.418,0.00015425,0
44.418,0.00019152,0
44.419,0.00013545,0
44.419,6.1601e-05,0
44.42,2.3835e-05,0
44.42,1.7792e-05,0
44.421,2.2828e-05,0
44.421,2.6352e-05,0
44.422,3.508e-05,0
44.422,4.9516e-05,0
44.423,4.7166e-05,0
44.423,3.4577e-05,0
44.424,3.0045e-05,0
44.424,2.0478e-05,0
44.425,-2.031e-05,0
44.425,-9.3156e-05,0
44.426,-0.00015543,0
44.426,-0.00018094,0
44.427,-0.00016097,0
44.427,-0.00010021,0
44.428,-3.2563e-05,0
44.428,1.0239e-05,0
44.429,2.3163e-05,0
44.43,2.4674e-05,0
44.43,3.6927e-05,0
44.431,6.6468e-05,0
44.431,0.00010272,0
44.432,0.00012656,0
44.432,0.00013495,0
44.433,0.00013478,0
44.433,0.00013143,0
44.434,0.00012605,0
44.434,0.00012001,0
44.435,0.0001086,0
44.435,8.3757e-05,0
44.436,3.4745e-05,0
44.436,-2.6352e-05,0
44.437,-6.0761e-05,0
44.437,-7.335e-05,0
44.438,-8.6946e-05,0
44.438,-8.7617e-05,0
44.439,-6.5797e-05,0
44.439,-4.1794e-05,0
44.44,-3.6759e-05,0
44.44,-4.3473e-05,0
44.441,-4.7333e-05,0
44.441,-5.0187e-05,0
44.442,-5.4215e-05,0
44.443,-5.7404e-05,0
44.443,-3.978e-05,0
44.444,1.5946e-05,0
44.444,8.3253e-05,0
44.445,0.00012454,0
44.445,0.00013814,0
44.446,0.00015023,0
44.446,0.00016365,0
44.447,0.00016936,0
44.447,0.00016567,0
44.448,0.00015795,0
44.448,0.0001603,0
44.449,0.00019991,0
44.449,0.00025396,0
44.45,0.00026436,0
44.45,0.00019521,0
44.451,6.2776e-05,0
44.451,-6.3279e-05,0
44.452,-0.00013445,0
44.452,-0.00017758,0
44.453,-0.00024187,0
44.453,-0.00034392,0
44.454,-0.00045,0
44.454,-0.00047904,0
44.455,-0.00037145,0
44.456,-0.00018497,0
44.456,-4.062e-05,0
44.457,1.6785e-05,0
44.457,2.0142e-05,0
44.458,1.6617e-05,0
44.458,2.6017e-05,0
44.459,4.4144e-05,0
44.459,6.2943e-05,0
44.46,8.0064e-05,0
44.46,9.4163e-05,0
44.461,0.0001133,0
44.461,0.0001321,0
44.462,0.00014015,0
44.462,0.00013109,0
44.463,0.00011196,0
44.463,9.6513e-05,0
44.464,8.9799e-05,0
44.464,8.8457e-05,0
44.465,9.0471e-05,0
44.465,8.7114e-05,0
44.466,6.7643e-05,0
44.466,2.9038e-05,0
44.467,-1.2085e-05,0
44.467,-3.827e-05,0
44.468,-4.8844e-05,0
44.468,-4.5823e-05,0
44.469,-2.266e-05,0
44.47,9.2317e-06,0
44.47,3.3906e-05,0
44.471,4.8676e-05,0
44.471,6.6972e-05,0
44.472,9.8192e-05,0
44.472,0.00013545,0
44.473,0.000165,0
44.473,0.00017641,0
44.474,0.00016768,0
44.474,0.00015929,0
44.475,0.00017137,0
44.475,0.00018245,0
44.476,0.0001655,0
44.476,0.00012538,0
44.477,6.6636e-05,0
44.477,-7.2175e-06,0
44.478,-8.2414e-05,0
44.478,-0.00013545,0
44.479,-0.00016483,0
44.479,-0.00019303,0
44.48,-0.00022307,0
44.48,-0.00021317,0
44.481,-0.00014653,0
44.481,-6.9657e-05,0
44.482,-2.7192e-05,0
44.483,-9.5674e-06,0
44.483,1.0575e-05,0
44.484,4.9516e-05,0
44.484,0.00011766,0
44.485,0.00020394,0
44.485,0.0002788,0
44.486,0.0003268,0
44.486,0.00033754,0
44.487,0.00030431,0
44.487,0.00023885,0
44.488,0.00016735,0
44.488,8.5435e-05,0
44.489,-3.6423e-05,0
44.489,-0.00020092,0
44.49,-0.00035282,0
44.49,-0.00043104,0
44.491,-0.00043674,0
44.491,-0.00038236,0
44.492,-0.00026889,0
44.492,-0.0001509,0
44.493,-8.6107e-05,0
44.493,-7.8889e-05,0
44.494,-9.2988e-05,0
44.494,-8.4428e-05,0
44.495,-2.9709e-05,0
44.495,6.2943e-05,0
44.496,0.0001514,0
44.497,0.00020931,0
44.497,0.00024086,0
44.498,0.00025429,0
44.498,0.00025614,0
44.499,0.00024204,0
44.499,0.00020125,0
44.5,0.00013915,0
44.5,7.8386e-05,0
44.501,3.4073e-05,0
44.501,-3.8605e-06,0
44.502,-5.7572e-05,0
44.502,-0.00011666,0
44.503,-0.00012908,0
44.503,-8.661e-05,0
44.504,-3.4745e-05,0
44.504,1.2757e-05,0
44.505,4.5487e-05,0
44.505,5.153e-05,0
44.506,3.3402e-05,0
44.506,1.1749e-05,0
44.507,6.3783e-06,0
44.507,1.7288e-05,0
44.508,3.5752e-05,0
44.508,4.7501e-05,0
44.509,4.7166e-05,0
44.51,2.8702e-05,0
44.51,-9.5674e-06,0
44.511,-4.0452e-05,0
44.511,-4.213e-05,0
44.512,-2.2492e-05,0
44.512,-6.714e-07,0
44.513,1.5106e-05,0
44.513,2.1317e-05,0
44.514,1.2253e-05,0
44.514,-3.1891e-06,0
44.515,-4.5319e-06,0
44.515,9.0639e-06,0
44.516,3.0045e-05,0
44.516,4.8844e-05,0
44.517,5.8244e-05,0
44.517,5.2873e-05,0
44.518,3.978e-05,0
44.518,2.7863e-05,0
44.519,2.0645e-05,0
44.519,1.8631e-05,0
44.52,2.182e-05,0
44.52,3.4745e-05,0
44.521,6.2943e-05,0
44.521,9.3156e-05,0
44.522,0.00011263,0
44.522,0.00011615,0
44.523,0.0001039,0
44.524,8.1071e-05,0
44.524,5.2873e-05,0
44.525,2.6017e-05,0
44.525,-3.357e-07,0
44.526,-2.2995e-05,0
44.526,-3.8773e-05,0
44.527,-3.3906e-05,0
44.527,4.1962e-06,0
44.528,6.0258e-05,0
44.528,0.00011162,0
44.529,0.00014351,0
44.529,0.0001472,0
44.53,0.00012203,0
44.53,8.5771e-05,0
44.531,6.7979e-05,0
44.531,6.8986e-05,0
44.532,6.3951e-05,0
44.532,4.0452e-05,0
44.533,1.2421e-05,0
44.533,-2.5177e-06,0
44.534,-4.8676e-06,0
44.534,-5.2033e-06,0
44.535,5.2033e-06,0
44.535,3.1388e-05,0
44.536,4.9683e-05,0
44.536,4.6494e-05,0
44.537,3.0381e-05,0
44.538,6.5461e-06,0
44.538,-1.7288e-05,0
44.539,-3.2731e-05,0
44.539,-4.5487e-05,0
44.54,-5.0187e-05,0
44.54,-3.9612e-05,0
44.541,-4.6326e-05,0
44.541,-8.9128e-05,0
44.542,-0.00012035,0
44.542,-0.00010524,0
44.543,-7.335e-05,0
44.543,-4.3137e-05,0
44.544,-1.8463e-06,0
44.544,2.5513e-05,0
44.545,7.8889e-06,0
44.545,-2.8534e-05,0
44.546,-3.1556e-05,0
44.546,3.5248e-06,0
44.547,3.4913e-05,0
44.547,3.2563e-05,0
44.548,8.2246e-06,0
44.548,0,0
44.549,1.9638e-05,0
44.549,5.2705e-05,0
44.55,9.2317e-05,0
44.551,0.00013646,0
44.551,0.00016936,0
44.552,0.00017137,0
44.552,0.00014687,0
44.553,0.00010994,0
44.553,5.2873e-05,0
44.554,-2.266e-05,0
44.554,-7.2007e-05,0
44.555,-8.275e-05,0
44.555,-8.0232e-05,0
44.556,-5.7908e-05,0
44.556,-3.0213e-06,0
44.557,6.6972e-05,0
44.557,0.00011397,0
44.558,0.00010558,0
44.558,4.2802e-05,0
44.559,-3.6255e-05,0
44.559,-8.3421e-05,0
44.56,-6.9154e-05,0
44.56,-2.182e-06,0
44.561,7.6371e-05,0
44.561,0.00012136,0
44.562,0.00012605,0
44.562,0.00011867,0
44.563,0.00011531,0
44.563,0.00010423,0
44.564,8.1239e-05,0
44.565,4.8676e-05,0
44.565,-9.5674e-06,0
44.566,-9.9199e-05,0
44.566,-0.00018631,0
44.567,-0.00023415,0
44.567,-0.00022811,0
44.568,-0.00017725,0
44.568,-0.00010088,0
44.569,-6.3783e-06,0
44.569,9.5171e-05,0
44.57,0.00016567,0
44.57,0.000189,0
44.571,0.00016902,0
44.571,0.0001133,0
44.572,3.4073e-05,0
44.572,-3.743e-05,0
44.573,-7.9057e-05,0
44.573,-8.8289e-05,0
44.574,-5.8579e-05,0
44.574,3.357e-07,0
44.575,5.4215e-05,0
44.575,9.6849e-05,0
44.576,0.0001472,0
44.576,0.00018061,0
44.577,0.00015962,0
44.578,0.00010726,0
44.578,5.9922e-05,0
44.579,3.0213e-06,0
44.579,-7.3014e-05,0
44.58,-0.00014989,0
44.58,-0.00023935,0
44.581,-0.00031841,0
44.581,-0.00033184,0
44.582,-0.00029592,0
44.582,-0.00026789,0
44.583,-0.00024942,0
44.583,-0.00019823,0
44.584,-0.00010591,0
44.584,-3.0213e-06,0
44.585,9.0135e-05,0
44.585,0.00016701,0
44.586,0.00022139,0
44.586,0.00025026,0
44.587,0.00025933,0
44.587,0.00025396,0
44.588,0.00023516,0
44.588,0.00021468,0
44.589,0.00021904,0
44.589,0.00024791,0
44.59,0.00025228,0
44.59,0.00021166,0
44.591,0.00015828,0
44.592,0.00010491,0
44.592,2.5177e-05,0
44.593,-8.4428e-05,0
44.593,-0.00016785,0
44.594,-0.00018447,0
44.594,-0.00016315,0
44.595,-0.00015459,0
44.595,-0.00014217,0
44.596,-0.00011615,0
44.596,-9.5842e-05,0
44.597,-6.3783e-05,0
44.597,-9.5674e-06,0
44.598,4.213e-05,0
44.598,7.6204e-05,0
44.599,0.00010155,0
44.599,0.00012236,0
44.6,0.0001514,0
44.6,0.00019722,0
44.601,0.00023449,0
44.601,0.00024288,0
44.602,0.00022123,0
44.602,0.00017574,0
44.603,0.00012605,0
44.603,9.0303e-05,0
44.604,7.3686e-05,0
44.605,7.0665e-05,0
44.605,6.5629e-05,0
44.606,3.9948e-05,0
44.606,2.8534e-06,0
44.607,-1.091e-05,0
44.607,9.5674e-06,0
44.608,2.9206e-05,0
44.608,1.9974e-05,0
44.609,1.8463e-06,0
44.609,-1.5946e-05,0
44.61,-5.6565e-05,0
44.61,-0.00011162,0
44.611,-0.00012303,0
44.611,-8.3757e-05,0
44.612,-6.7308e-05,0
44.612,-8.9128e-05,0
44.613,-5.9922e-05,0
44.613,4.8173e-05,0
44.614,0.00015341,0
44.614,0.00018682,0
44.615,0.0001566,0
44.615,0.00011498,0
44.616,9.8192e-05,0
44.616,0.00012505,0
44.617,0.00015828,0
44.617,0.00015023,0
44.618,0.00011649,0
44.619,9.7353e-05,0
44.619,9.7185e-05,0
44.62,0.00010172,0
44.62,8.9799e-05,0
44.621,4.0116e-05,0
44.621,-4.8508e-05,0
44.622,-0.00017389,0
44.622,-0.00031136,0
44.623,-0.00040183,0
44.623,-0.00042264,0
44.624,-0.00040569,0
44.624,-0.00035399,0
44.625,-0.00024775,0
44.625,-9.9702e-05,0
44.626,3.6759e-05,0
44.626,0.00011481,0
44.627,0.00012924,0
44.627,0.00010071,0
44.628,6.7811e-05,0
44.628,6.479e-05,0
44.629,8.51e-05,0
44.629,0.00010608,0
44.63,0.00011464,0
44.63,0.00010323,0
44.631,7.4189e-05,0
44.632,4.3473e-05,0
44.632,2.1317e-05,0
44.633,9.2317e-06,0
44.633,6.2104e-06,0
44.634,5.8747e-06,0
44.634,4.5319e-06,0
44.635,-1.3428e-06,0
44.635,-9.9031e-06,0
44.636,-1.5274e-05,0
44.636,-1.6785e-07,0
44.637,4.0452e-05,0
44.637,9.0974e-05,0
44.638,0.00012874,0
44.638,0.00015157,0
44.639,0.00018178,0
44.639,0.00021602,0
44.64,0.00023549,0
44.64,0.00023062,0
44.641,0.00019638,0
44.641,0.00011699,0
44.642,-4.8676e-06,0
44.642,-0.00011128,0
44.643,-0.00015157,0
44.643,-0.00013394,0
44.644,-8.9632e-05,0
44.645,-3.1052e-05,0
44.645,3.2731e-05,0
44.646,7.5868e-05,0
44.646,8.0735e-05,0
44.647,5.4887e-05,0
44.647,1.1917e-05,0
44.648,-4.3137e-05,0
44.648,-8.4764e-05,0
44.649,-9.8863e-05,0
44.649,-9.8695e-05,0
44.65,-9.3492e-05,0
44.65,-8.1407e-05,0
44.651,-6.0594e-05,0
44.651,-3.7934e-05,0
44.652,-1.5274e-05,0
44.652,1.7121e-05,0
44.653,5.7908e-05,0
44.653,9.987e-05,0
44.654,0.00013344,0
44.654,0.00014922,0
44.655,0.00014687,0
44.655,0.0001227,0
44.656,7.1839e-05,0
44.656,8.5603e-06,0
44.657,-3.4409e-05,0
44.657,-5.1194e-05,0
44.658,-6.1265e-05,0
44.659,-7.4022e-05,0
44.659,-8.8121e-05,0
44.66,-9.3996e-05,0
44.66,-7.7379e-05,0
44.661,-3.592e-05,0
44.661,1.7288e-05,0
44.662,6.5629e-05,0
44.662,9.8863e-05,0
44.663,0.00011464,0
44.663,0.00011565,0
44.664,9.752e-05,0
44.664,4.8173e-05,0
44.665,-1.4771e-05,0
44.665,-4.062e-05,0
44.666,-1.6449e-05,0
44.666,2.7863e-05,0
44.667,7.3686e-05,0
44.667,0.00011733,0
44.668,0.00014452,0
44.668,0.00014301,0
44.669,0.00011901,0
44.669,7.6036e-05,0
44.67,1.1917e-05,0
44.67,-3.9109e-05,0
44.671,-5.0858e-05,0
44.672,-3.6759e-05,0
44.672,-9.9031e-06,0
44.673,1.8296e-05,0
44.673,4.0284e-05,0
44.674,6.8315e-05,0
44.674,0.00011615,0
44.675,0.00017574,0
44.675,0.00024187,0
44.676,0.00029693,0
44.676,0.00033083,0
44.677,0.0003362,0
44.677,0.00026839,0
44.678,0.00012068,0
44.678,-4.8173e-05,0
44.679,-0.00020243,0
44.679,-0.0003263,0
44.68,-0.00037917,0
44.68,-0.00033788,0
44.681,-0.00022911,0
44.681,-0.00010793,0
44.682,-3.5416e-05,0
44.682,-2.5849e-05,0
44.683,-4.918e-05,0
44.683,-6.2608e-05,0
44.684,-4.8508e-05,0
44.684,-2.3835e-05,0
44.685,-1.4435e-05,0
44.686,-3.1724e-05,0
44.686,-7.4022e-05,0
44.687,-0.00011464,0
44.687,-0.00011833,0
44.688,-8.2414e-05,0
44.688,-4.5487e-05,0
44.689,-2.3331e-05,0
44.689,3.5248e-06,0
44.69,4.3809e-05,0
44.69,9.1814e-05,0
44.691,0.00013948,0
44.691,0.00016701,0
44.692,0.00016432,0
44.692,0.00013344,0
44.693,8.5435e-05,0
44.693,4.8173e-05,0
44.694,3.1052e-05,0
44.694,2.6184e-05,0
44.695,3.0213e-05,0
44.695,2.9374e-05,0
44.696,4.8676e-06,0
44.696,-4.3473e-05,0
44.697,-9.3492e-05,0
44.697,-0.00011078,0
44.698,-8.8289e-05,0
44.699,-5.3712e-05,0
44.699,-3.9109e-05,0
44.7,-4.7837e-05,0
44.7,-5.5894e-05,0
44.701,-3.9948e-05,0
44.701,-9.0639e-06,0
44.702,6.5461e-06,0
44.702,-5.539e-06,0
44.703,-2.3163e-05,0
44.703,-1.3092e-05,0
44.704,2.7359e-05,0
44.704,6.244e-05,0
44.705,7.1336e-05,0
44.705,7.1336e-05,0
44.706,8.3421e-05,0
44.706,0.00011044,0
44.707,0.00015224,0
44.707,0.00019034,0
44.708,0.00019991,0
44.708,0.00017641,0
44.709,0.00013109,0
44.709,8.275e-05,0
44.71,4.5655e-05,0
44.71,1.2924e-05,0
44.711,-3.1891e-05,0
44.711,-6.7475e-05,0
44.712,-5.7908e-05,0
44.713,-1.0071e-05,0
44.713,3.5752e-05,0
44.714,5.6733e-05,0
44.714,5.623e-05,0
44.715,5.3544e-05,0
44.715,5.5222e-05,0
44.716,5.0858e-05,0
44.716,3.7766e-05,0
44.717,2.417e-05,0
44.717,1.7624e-05,0
44.718,1.9303e-05,0
44.718,3.0716e-05,0
44.719,4.6159e-05,0
44.719,6.0258e-05,0
44.72,6.5629e-05,0
44.72,6.6972e-05,0
44.721,7.5029e-05,0
44.721,9.5003e-05,0
44.722,0.00012068,0
44.722,0.00013613,0
44.723,0.00013814,0
44.723,0.00013747,0
44.724,0.00014334,0
44.724,0.00015425,0
44.725,0.00015828,0
44.725,0.00014183,0
44.726,9.8863e-05,0
44.727,3.8605e-05,0
44.727,-5.539e-06,0
44.728,-5.0355e-07,0
44.728,3.3906e-05,0
44.729,5.0523e-05,0
44.729,3.4745e-05,0
44.73,1.3764e-05,0
44.73,-1.326e-05,0
44.731,-8.6778e-05,0
44.731,-0.00021938,0
44.732,-0.00036205,0
44.732,-0.00044833,0
44.733,-0.00044967,0
44.733,-0.000379,0
44.734,-0.00026537,0
44.734,-0.00014553,0
44.735,-5.4887e-05,0
44.735,-6.0426e-06,0
44.736,1.5946e-05,0
44.736,3.2731e-05,0
44.737,4.6159e-05,0
44.737,5.6901e-05,0
44.738,6.8315e-05,0
44.738,7.2847e-05,0
44.739,4.8676e-05,0
44.74,3.1891e-06,0
44.74,-1.6785e-05,0
44.741,8.896e-06,0
44.741,5.8076e-05,0
44.742,9.5674e-05,0
44.742,0.00010927,0
44.743,0.00011397,0
44.743,0.00011464,0
44.744,0.00010222,0
44.744,8.6442e-05,0
44.745,8.1071e-05,0
44.745,8.4092e-05,0
44.746,9.0303e-05,0
44.746,9.4331e-05,0
44.747,9.0135e-05,0
44.747,8.4764e-05,0
44.748,8.5435e-05,0
44.748,8.8457e-05,0
44.749,9.3324e-05,0
44.749,9.0639e-05,0
44.75,6.865e-05,0
44.75,2.9877e-05,0
44.751,-4.0284e-06,0
44.751,-4.1962e-06,0
44.752,2.6184e-05,0
44.752,6.0258e-05,0
44.753,7.6036e-05,0
44.754,7.7714e-05,0
44.754,8.4764e-05,0
44.755,0.00010491,0
44.755,0.00012857,0
44.756,0.00013613,0
44.756,0.00012673,0
44.757,0.00011934,0
44.757,0.00012538,0
44.758,0.00013193,0
44.758,0.00010239,0
44.759,1.7288e-05,0
44.759,-8.3421e-05,0
44.76,-0.00015207,0
44.76,-0.00019269,0
44.761,-0.00020226,0
44.761,-0.00015325,0
44.762,-6.0929e-05,0
44.762,1.9974e-05,0
44.763,4.7166e-05,0
44.763,4.1794e-05,0
44.764,5.3544e-05,0
44.764,7.7211e-05,0
44.765,8.1743e-05,0
44.765,6.2272e-05,0
44.766,2.2324e-05,0
44.767,-2.3163e-05,0
44.767,-5.9754e-05,0
44.768,-7.4861e-05,0
44.768,-6.009e-05,0
44.769,-2.5681e-05,0
44.769,-1.6785e-06,0
44.77,1.0071e-06,0
44.77,-5.8747e-06,0
44.771,-1.1246e-05,0
44.771,-8.3925e-06,0
44.772,-1.5106e-06,0
44.772,-3.5248e-06,0
44.773,-6.8818e-06,0
44.773,6.3783e-06,0
44.774,3.0716e-05,0
44.774,4.448e-05,0
44.775,3.7095e-05,0
44.775,1.7624e-05,0
44.776,3.0213e-06,0
44.776,-7.2175e-06,0
44.777,-1.6449e-05,0
44.777,-1.2085e-05,0
44.778,1.1582e-05,0
44.778,3.0716e-05,0
44.779,2.3163e-05,0
44.779,-1.6617e-05,0
44.78,-6.5293e-05,0
44.781,-7.9728e-05,0
44.781,-5.5558e-05,0
44.782,-1.796e-05,0
44.782,2.4842e-05,0
44.783,7.6371e-05,0
44.783,0.00013042,0
44.784,0.00017691,0
44.784,0.00020847,0
44.785,0.0002224,0
44.785,0.00020998,0
44.786,0.00017003,0
44.786,0.00011531,0
44.787,5.9586e-05,0
44.787,1.0575e-05,0
44.788,-4.6159e-05,0
44.788,-0.00012639,0
44.789,-0.00019823,0
44.789,-0.00019924,0
44.79,-0.00011917,0
44.79,-2.3163e-05,0
44.791,3.592e-05,0
44.791,6.5965e-05,0
44.792,9.0471e-05,0
44.792,0.00010121,0
44.793,8.0903e-05,0
44.794,3.3906e-05,0
44.794,-7.5532e-06,0
44.795,-2.4506e-05,0
44.795,-2.9206e-05,0
44.796,-3.5752e-05,0
44.796,-5.2537e-05,0
44.797,-6.7979e-05,0
44.797,-5.774e-05,0
44.798,-1.7288e-05,0
44.798,3.978e-05,0
44.799,9.1814e-05,0
44.799,0.00011263,0
44.8,0.00010054,0
44.8,9.1142e-05,0
44.801,9.4835e-05,0
44.801,0.00010121,0
44.802,0.00011464,0
44.802,0.00013243,0
44.803,0.00011531,0
44.803,3.2059e-05,0
44.804,-7.1168e-05,0
44.804,-0.00011598,0
44.805,-0.00012236,0
44.805,-0.00015677,0
44.806,-0.00020662,0
44.806,-0.00021434,0
44.807,-0.00015979,0
44.808,-8.9128e-05,0
44.808,-5.0355e-05,0
44.809,-5.2033e-05,0
44.809,-6.5629e-05,0
44.81,-6.2776e-05,0
44.81,-4.5487e-05,0
44.811,-1.9303e-05,0
44.811,1.0239e-05,0
44.812,3.8102e-05,0
44.812,6.3951e-05,0
44.813,9.1981e-05,0
44.813,0.00012337,0
44.814,0.0001378,0
44.814,0.0001232,0
44.815,9.2485e-05,0
44.815,6.4286e-05,0
44.816,4.7669e-05,0
44.816,5.2873e-05,0
44.817,7.7379e-05,0
44.817,0.00010155,0
44.818,0.00011397,0
44.818,0.00011196,0
44.819,0.00010642,0
44.819,0.00010944,0
44.82,0.00011699,0
44.821,0.00012505,0
44.821,0.00012874,0
44.822,0.00011246,0
44.822,5.9419e-05,0
44.823,-1.8463e-06,0
44.823,-3.7263e-05,0
44.824,-3.827e-05,0
44.824,-5.2033e-06,0
44.825,4.4648e-05,0
44.825,8.2414e-05,0
44.826,9.1646e-05,0
44.826,7.57e-05,0
44.827,4.2634e-05,0
44.827,8.896e-06,0
44.828,-1.2253e-05,0
44.828,-2.9709e-05,0
44.829,-5.1194e-05,0
44.829,-7.2007e-05,0
44.83,-9.2149e-05,0
44.83,-9.6849e-05,0
44.831,-6.4958e-05,0
44.831,-6.5461e-06,0
44.832,5.4719e-05,0
44.832,0.00010457,0
44.833,0.0001378,0
44.834,0.00014955,0
44.834,0.00014066,0
44.835,0.00013126,0
44.835,0.00013327,0
44.836,0.00013243,0
44.836,0.00011246,0
44.837,6.7475e-05,0
44.837,1.8631e-05,0
44.838,-1.0407e-05,0
44.838,-1.4603e-05,0
44.839,-4.5319e-06,0
44.839,-1.5106e-06,0
44.84,-1.6953e-05,0
44.84,-4.8173e-05,0
44.841,-7.3686e-05,0
44.841,-7.3182e-05,0
44.842,-5.0187e-05,0
44.842,-2.0981e-05,0
44.843,3.1891e-06,0
44.843,1.7288e-05,0
44.844,2.3331e-05,0
44.844,3.3402e-05,0
44.845,5.4887e-05,0
44.845,8.3085e-05,0
44.846,0.00011666,0
44.846,0.00012068,0
44.847,8.1575e-05,0
44.848,4.918e-05,0
44.848,4.918e-05,0
44.849,5.9922e-05,0
44.849,6.5293e-05,0
44.85,6.0594e-05,0
44.85,3.1388e-05,0
44.851,-1.8967e-05,0
44.851,-7.1e-05,0
44.852,-0.00011196,0
44.852,-0.00013042,0
44.853,-0.00012337,0
44.853,-0.00011263,0
44.854,-0.00011095,0
44.854,-0.00011833,0
44.855,-0.00013613,0
44.855,-0.00015006,0
44.856,-0.0001331,0
44.856,-7.6539e-05,0
44.857,0,0
44.857,6.8482e-05,0
44.858,0.00011682,0
44.858,0.00014553,0
44.859,0.00015845,0
44.859,0.00016013,0
44.86,0.00016466,0
44.861,0.00017641,0
44.861,0.00018849,0
44.862,0.00019319,0
44.862,0.00018044,0
44.863,0.0001415,0
44.863,8.1071e-05,0
44.864,1.326e-05,0
44.864,-4.7166e-05,0
44.865,-0.00010088,0
44.865,-0.00014855,0
44.866,-0.00018195,0
44.866,-0.00019991,0
44.867,-0.00021233,0
44.867,-0.00021921,0
44.868,-0.00020713,0
44.868,-0.00017171,0
44.869,-0.00011145,0
44.869,-3.9612e-05,0
44.87,2.4002e-05,0
44.87,6.865e-05,0
44.871,9.1646e-05,0
44.871,0.00010256,0
44.872,0.00011498,0
44.872,0.00013411,0
44.873,0.00015627,0
44.873,0.00018379,0
44.874,0.00020864,0
44.875,0.00021065,0
44.875,0.00018447,0
44.876,0.00013545,0
44.876,5.7572e-05,0
44.877,-4.3137e-05,0
44.877,-0.0001556,0
44.878,-0.00024724,0
44.878,-0.00026973,0
44.879,-0.00021837,0
44.879,-0.00012673,0
44.88,-2.3331e-05,0
44.88,7.2343e-05,0
44.881,0.00012673,0
44.881,0.00011598,0
44.882,6.5461e-05,0
44.882,1.326e-05,0
44.883,-1.8296e-05,0
44.883,-2.1653e-05,0
44.884,6.2104e-06,0
44.884,5.0523e-05,0
44.885,8.6442e-05,0
44.885,0.00010524,0
44.886,0.00013462,0
44.886,0.00017037,0
44.887,0.00017406,0
44.888,0.00014334,0
44.888,0.00011565,0
44.889,9.4667e-05,0
44.889,4.9012e-05,0
44.89,-1.2924e-05,0
44.89,-3.2059e-05,0
44.891,-6.714e-06,0
44.891,7.8889e-06,0
44.892,-4.1962e-06,0
44.892,8.3925e-07,0
44.893,3.2059e-05,0
44.893,5.3544e-05,0
44.894,3.122e-05,0
44.894,-1.6953e-05,0
44.895,-3.6927e-05,0
44.895,-3.1891e-06,0
44.896,6.0761e-05,0
44.896,9.9199e-05,0
44.897,8.9464e-05,0
44.897,4.3473e-05,0
44.898,-2.4002e-05,0
44.898,-7.7043e-05,0
44.899,-8.5603e-05,0
44.899,-6.1265e-05,0
44.9,-3.5416e-05,0
44.9,-8.5603e-06,0
44.901,5.153e-05,0
44.902,0.00014905,0
44.902,0.00022257,0
44.903,0.0002031,0
44.903,0.00011363,0
44.904,3.8437e-05,0
44.904,8.5603e-06,0
44.905,-4.5319e-06,0
44.905,-3.4577e-05,0
44.906,-8.3757e-05,0
44.906,-0.00013529,0
44.907,-0.00017305,0
44.907,-0.00016667,0
44.908,-9.131e-05,0
44.908,1.8799e-05,0
44.909,9.7185e-05,0
44.909,0.00011128,0
44.91,8.04e-05,0
44.91,4.918e-05,0
44.911,3.8102e-05,0
44.911,4.1794e-05,0
44.912,4.7501e-05,0
44.912,4.2634e-05,0
44.913,2.5345e-05,0
44.913,-7.7211e-06,0
44.914,-5.388e-05,0
44.914,-9.3492e-05,0
44.915,-0.00010373,0
44.916,-7.7546e-05,0
44.916,-2.5345e-05,0
44.917,3.2563e-05,0
44.917,7.6036e-05,0
44.918,9.8192e-05,0
44.918,0.00011061,0
44.919,0.00011313,0
44.919,0.0001086,0
44.92,0.00010524,0
44.92,0.00010256,0
44.921,8.9632e-05,0
44.921,5.9251e-05,0
44.922,1.6281e-05,0
44.922,-1.8967e-05,0
44.923,-3.3738e-05,0
44.923,-3.3738e-05,0
44.924,-3.2395e-05,0
44.924,-2.9374e-05,0
44.925,-2.8702e-05,0
44.925,-3.7095e-05,0
44.926,-4.3809e-05,0
44.926,-3.8773e-05,0
44.927,-2.7024e-05,0
44.927,-1.2085e-05,0
44.928,5.2033e-06,0
44.929,2.1149e-05,0
44.929,3.5752e-05,0
44.93,5.388e-05,0
44.93,7.5029e-05,0
44.931,9.1981e-05,0
44.931,8.9799e-05,0
44.932,7.5532e-05,0
44.932,7.1839e-05,0
44.933,7.8386e-05,0
44.933,7.7714e-05,0
44.934,5.8747e-05,0
44.934,3.0045e-05,0
44.935,7.2175e-06,0
44.935,-6.8818e-06,0
44.936,-1.8967e-05,0
44.936,-3.0381e-05,0
44.937,-3.2731e-05,0
44.937,-1.5106e-05,0
44.938,2.7192e-05,0
44.938,7.7714e-05,0
44.939,0.00010155,0
44.939,9.366e-05,0
44.94,7.7379e-05,0
44.94,6.5293e-05,0
44.941,5.9419e-05,0
44.941,5.8076e-05,0
44.942,5.6062e-05,0
44.943,4.6159e-05,0
44.943,2.6688e-05,0
44.944,5.0355e-06,0
44.944,-1.2924e-05,0
44.945,-2.8367e-05,0
44.945,-4.1962e-05,0
44.946,-4.1291e-05,0
44.946,-3.3402e-05,0
44.947,-3.4745e-05,0
44.947,-4.8173e-05,0
44.948,-6.1097e-05,0
44.948,-6.0761e-05,0
44.949,-5.8747e-05,0
44.949,-6.9322e-05,0
44.95,-8.1239e-05,0
44.95,-8.2918e-05,0
44.951,-8.1239e-05,0
44.951,-7.0665e-05,0
44.952,-4.3137e-05,0
44.952,-8.5603e-06,0
44.953,1.9974e-05,0
44.953,5.4047e-05,0
44.954,0.00010021,0
44.954,0.00014485,0
44.955,0.00017842,0
44.956,0.00019017,0
44.956,0.00017003,0
44.957,0.00012236,0
44.957,6.63e-05,0
44.958,1.8631e-05,0
44.958,-1.2253e-05,0
44.959,-1.5106e-05,0
44.959,2.3499e-06,0
44.96,2.2324e-05,0
44.96,3.8773e-05,0
44.961,5.2873e-05,0
44.961,7.9057e-05,0
44.962,0.00012337,0
44.962,0.00017272,0
44.963,0.00021569,0
44.963,0.00023784,0
44.964,0.00021535,0
44.964,0.00013747,0
44.965,2.7863e-05,0
44.965,-7.7043e-05,0
44.966,-0.00015459,0
44.966,-0.00019672,0
44.967,-0.00022206,0
44.967,-0.00023348,0
44.968,-0.00020494,0
44.968,-0.00014704,0
44.969,-7.7043e-05,0
44.97,-4.3641e-06,0
44.97,4.6494e-05,0
44.971,6.1769e-05,0
44.971,5.6733e-05,0
44.972,4.7501e-05,0
44.972,4.0787e-05,0
44.973,4.0116e-05,0
44.973,5.2705e-05,0
44.974,7.8386e-05,0
44.974,0.00010524,0
44.975,0.00011649,0
44.975,9.8863e-05,0
44.976,5.9419e-05,0
44.976,1.5946e-05,0
44.977,-2.3163e-05,0
44.977,-5.623e-05,0
44.978,-7.4189e-05,0
44.978,-6.9154e-05,0
44.979,-5.0523e-05,0
44.979,-2.4506e-05,0
44.98,2.182e-06,0
44.98,1.9638e-05,0
44.981,1.796e-05,0
44.981,8.2246e-06,0
44.982,8.3925e-06,0
44.983,1.5946e-05,0
44.983,2.7192e-05,0
44.984,4.5487e-05,0
44.984,7.9728e-05,0
44.985,0.00011162,0
44.985,0.00011632,0
44.986,8.1743e-05,0
44.986,3.3234e-05,0
44.987,1.9303e-05,0
44.987,4.3473e-05,0
44.988,5.8915e-05,0
44.988,4.0116e-05,0
44.989,5.8747e-06,0
44.989,-1.1078e-05,0
44.99,1.6785e-07,0
44.99,2.5345e-05,0
44.991,3.9445e-05,0
44.991,2.9374e-05,0
44.992,3.8605e-06,0
44.992,6.8818e-06,0
44.993,5.623e-05,0
44.993,0.00012404,0
44.994,0.00017708,0
44.994,0.00020259,0
44.995,0.00020562,0
44.995,0.00019286,0
44.996,0.0001697,0
44.997,0.0001368,0
44.997,9.4163e-05,0
44.998,4.7501e-05,0
44.998,-7.8889e-06,0
44.999,-7.0161e-05,0
44.999,-0.00011783,0
45,-0.0001378,0
45,-0.00013814,0
45.001,-0.00011968,0
45.001,-9.6345e-05,0
45.002,-9.8863e-05,0
45.002,-0.00012555,0
45.003,-0.0001566,0
45.003,-0.00017675,0
45.004,-0.0001613,0
45.004,-0.00010407,0
45.005,-3.0381e-05,0
45.005,2.9374e-05,0
45.006,5.7572e-05,0
45.006,6.009e-05,0
45.007,5.2873e-05,0
45.007,4.4144e-05,0
45.008,3.6423e-05,0
45.008,3.6759e-05,0
45.009,4.4144e-05,0
45.01,5.069e-05,0
45.01,5.2201e-05,0
45.011,5.0858e-05,0
45.011,4.7501e-05,0
45.012,3.743e-05,0
45.012,1.0575e-05,0
45.013,-2.3163e-05,0
45.013,-4.5487e-05,0
45.014,-4.6662e-05,0
45.014,-2.7359e-05,0
45.015,4.1962e-06,0
45.015,3.2059e-05,0
45.016,5.0187e-05,0
45.016,5.2705e-05,0
45.017,4.3473e-05,0
45.017,2.8702e-05,0
45.018,2.2995e-05,0
45.018,3.2395e-05,0
45.019,4.3137e-05,0
45.019,3.7934e-05,0
45.02,3.5248e-06,0
45.02,-4.5823e-05,0
45.021,-7.7546e-05,0
45.021,-6.8986e-05,0
45.022,-2.3835e-05,0
45.023,3.2898e-05,0
45.023,8.1407e-05,0
45.024,0.0001086,0
45.024,0.00011128,0
45.025,9.6178e-05,0
45.025,7.1839e-05,0
45.026,5.1026e-05,0
45.026,5.0187e-05,0
45.027,7.1672e-05,0
45.027,0.00010172,0
45.028,0.00013713,0
45.028,0.0001791,0
45.029,0.00021552,0
45.029,0.00023516,0
45.03,0.0002318,0
45.03,0.00021434,0
45.031,0.00019857,0
45.031,0.00018228,0
45.032,0.00014083,0
45.032,5.7069e-05,0
45.033,-7.2175e-05,0
45.033,-0.00023096,0
45.034,-0.00037598,0
45.034,-0.00043758,0
45.035,-0.00039864,0
45.035,-0.00030163,0
45.036,-0.00020226,0
45.037,-0.00011498,0
45.037,-2.887e-05,0
45.038,4.6662e-05,0
45.038,8.426e-05,0
45.039,8.2078e-05,0
45.039,6.0929e-05,0
45.04,4.2802e-05,0
45.04,3.5752e-05,0
45.041,3.6591e-05,0
45.041,4.8173e-05,0
45.042,7.805e-05,0
45.042,0.00011833,0
45.043,0.00015358,0
45.043,0.00018144,0
45.044,0.00020511,0
45.044,0.00021199,0
45.045,0.00018682,0
45.045,0.00012975,0
45.046,5.6565e-05,0
45.046,-1.3596e-05,0
45.047,-7.2679e-05,0
45.047,-0.0001284,0
45.048,-0.00017977,0
45.048,-0.00021082,0
45.049,-0.00021468,0
45.05,-0.00020226,0
45.05,-0.00017104,0
45.051,-0.0001138,0
45.051,-3.978e-05,0
45.052,5.9251e-05,0
45.052,0.0001603,0
45.053,0.00019202,0
45.053,0.00014469,0
45.054,8.4092e-05,0
45.054,4.9516e-05,0
45.055,3.3066e-05,0
45.055,1.4603e-05,0
45.056,-2.5177e-06,0
45.056,-3.1891e-06,0
45.057,1.1749e-05,0
45.057,2.7695e-05,0
45.058,5.9251e-05,0
45.058,0.00010004,0
45.059,9.987e-05,0
45.059,3.978e-05,0
45.06,-3.2563e-05,0
45.06,-5.2873e-05,0
45.061,-1.3596e-05,0
45.061,3.4073e-05,0
45.062,4.8173e-05,0
45.062,3.2059e-05,0
45.063,8.896e-06,0
45.064,-6.2104e-06,0
45.064,1.5106e-06,0
45.065,4.1291e-05,0
45.065,0.00010121,0
45.066,0.00016063,0
45.066,0.00019152,0
45.067,0.00017893,0
45.067,0.00014385,0
45.068,0.00012136,0
45.068,0.00012035,0
45.069,0.00013478,0
45.069,0.00015895,0
45.07,0.00017255,0
45.07,0.00016097,0
45.071,0.00012253,0
45.071,6.5293e-05,0
45.072,1.8463e-05,0
45.072,1.3596e-05,0
45.073,5.4047e-05,0
45.073,0.00010155,0
45.074,0.00011498,0
45.074,8.1575e-05,0
45.075,4.6998e-06,0
45.075,-0.00010457,0
45.076,-0.00019286,0
45.077,-0.0002031,0
45.077,-0.00016281,0
45.078,-0.00014536,0
45.078,-0.00017456,0
45.079,-0.00020092,0
45.079,-0.00017641,0
45.08,-0.00010256,0
45.08,-4.5319e-06,0
45.081,0.00010021,0
45.081,0.00018514,0
45.082,0.00022878,0
45.082,0.0002412,0
45.083,0.00023146,0
45.083,0.00018984,0
45.084,9.9535e-05,0
45.084,-2.652e-05,0
45.085,-0.00013747,0
45.085,-0.00019823,0
45.086,-0.00022828,0
45.086,-0.00024338,0
45.087,-0.00023281,0
45.087,-0.00019622,0
45.088,-0.00015291,0
45.088,-0.0001274,0
45.089,-0.00011833,0
45.089,-0.00011263,0
45.09,-9.9535e-05,0
45.091,-6.7811e-05,0
45.091,-1.3596e-05,0
45.092,3.5416e-05,0
45.092,5.1362e-05,0
45.093,4.1123e-05,0
45.093,2.2828e-05,0
45.094,1.5946e-05,0
45.094,2.5345e-05,0
45.095,4.0116e-05,0
45.095,5.7237e-05,0
45.096,8.0064e-05,0
45.096,0.00010877,0
45.097,0.00013747,0
45.097,0.00016298,0
45.098,0.00018648,0
45.098,0.00020528,0
45.099,0.00021015,0
45.099,0.00019756,0
45.1,0.00015727,0
45.1,7.9057e-05,0
45.101,-1.6449e-05,0
45.101,-8.8624e-05,0
45.102,-0.00011968,0
45.102,-0.0001086,0
45.103,-7.7546e-05,0
45.103,-5.6901e-05,1
45.104,-6.3447e-05,1
45.105,-7.9728e-05,1
45.105,-6.9993e-05,1
45.106,-2.4674e-05,1
45.106,3.2563e-05,1
45.107,7.7714e-05,1
45.107,0.00010759,1
45.108,0.00012807,1
45.108,0.000142,1
45.109,0.0001509,1
45.109,0.0001556,1
45.11,0.00014351,1
45.11,9.2653e-05,1
45.111,1.2924e-05,1
45.111,-1.9974e-05,1
45.112,3.3402e-05,1
45.112,0.00011514,1
45.113,0.00016567,1
45.113,0.00018312,1
45.114,0.00018161,1
45.114,0.00016181,1
45.115,0.00012102,1
45.115,7.2847e-05,1
45.116,4.4144e-05,1
45.116,3.2898e-05,1
45.117,3.1891e-06,1
45.118,-6.0929e-05,1
45.118,-0.00014032,1
45.119,-0.00022106,1
45.119,-0.00029273,1
45.12,-0.00031069,1
45.12,-0.00023868,1
45.121,-9.6681e-05,1
45.121,3.1724e-05,1
45.122,8.1071e-05,1
45.122,7.7714e-05,1
45.123,5.3376e-05,1
45.123,1.3092e-05,1
45.124,-2.6688e-05,1
45.124,-4.6326e-05,1
45.125,-5.1362e-05,1
45.125,-4.918e-05,1
45.126,-3.978e-05,1
45.126,-2.9709e-05,1
45.127,-2.182e-06,1
45.127,4.7837e-05,1
45.128,9.2653e-05,1
45.128,0.00012807,1
45.129,0.00015492,1
45.129,0.00016349,1
45.13,0.00015023,1
45.13,0.00013915,1
45.131,0.00014217,1
45.132,0.00013881,1
45.132,0.00012253,1
45.133,0.00010793,1
45.133,0.00010306,1
45.134,9.5842e-05,1
45.134,6.7643e-05,1
45.135,1.6785e-07,1
45.135,-9.836e-05,1
45.136,-0.00016768,1
45.136,-0.00015291,1
45.137,-8.1743e-05,1
45.137,-9.3996e-06,1
45.138,3.6423e-05,1
45.138,5.2537e-05,1
45.139,7.8218e-05,1
45.139,0.0001415,1
45.14,0.00022173,1
45.14,0.00027913,1
45.141,0.00029105,1
45.141,0.0002459,1
45.142,0.00016701,1
45.142,0.00010239,1
45.143,6.7979e-05,1
45.143,4.4144e-05,1
45.144,1.1917e-05,1
45.145,-2.8199e-05,1
45.145,-7.4693e-05,1
45.146,-0.00013059,1
45.146,-0.00016349,1
45.147,-0.00014687,1
45.147,-9.8695e-05,1
45.148,-5.0355e-05,1
45.148,-2.1149e-05,1
45.149,-2.7863e-05,1
45.149,-7.5196e-05,1
45.15,-0.00013042,1
45.15,-0.00016533,1
45.151,-0.00017171,1
45.151,-0.00015375,1
45.152,-0.00012908,1
45.152,-0.00010457,1
45.153,-7.6875e-05,1
45.153,-4.1123e-05,1
45.154,-7.5532e-06,1
45.154,7.5532e-06,1
45.155,-1.8463e-06,1
45.155,-3.9109e-05,1
45.156,-9.7185e-05,1
45.156,-0.00013126,1
45.157,-0.00010658,1
45.157,-5.6565e-05,1
45.158,-2.8702e-05,1
45.159,-2.4338e-05,1
45.159,-1.9974e-05,1
45.16,-5.0355e-07,1
45.16,2.9709e-05,1
45.161,6.2776e-05,1
45.161,9.8863e-05,1
45.162,0.00013344,1
45.162,0.00015526,1
45.163,0.00016584,1
45.163,0.0001754,1
45.164,0.00018581,1
45.164,0.00018782,1
45.165,0.0001791,1
45.165,0.00015627,1
45.166,0.00011095,1
45.166,5.4215e-05,1
45.167,2.0813e-05,1
45.167,1.6953e-05,1
45.168,2.5177e-05,1
45.168,3.2731e-05,1
45.169,2.9206e-05,1
45.169,-1.6785e-07,1
45.17,-6.7308e-05,1
45.17,-0.00014737,1
45.171,-0.00019689,1
45.172,-0.00019487,1
45.172,-0.0001509,1
45.173,-9.1646e-05,1
45.173,-3.8102e-05,1
45.174,8.5603e-06,1
45.174,4.0452e-05,1
45.175,4.8173e-05,1
45.175,4.2634e-05,1
45.176,4.8341e-05,1
45.176,7.1e-05,1
45.177,9.4499e-05,1
45.177,9.7856e-05,1
45.178,7.8889e-05,1
45.178,6.8986e-05,1
45.179,8.4428e-05,1
45.179,9.9199e-05,1
45.18,9.601e-05,1
45.18,8.3085e-05,1
45.181,8.2246e-05,1
45.181,0.00010188,1
45.182,0.00013143,1
45.182,0.00015593,1
45.183,0.00017003,1
45.183,0.00017842,1
45.184,0.00018296,1
45.184,0.00018514,1
45.185,0.00018984,1
45.186,0.00020377,1
45.186,0.00022811,1
45.187,0.00024724,1
45.187,0.0002558,1
45.188,0.00025328,1
45.188,0.00021854,1
45.189,0.00012471,1
45.189,-1.8128e-05,1
45.19,-0.00016886,1
45.19,-0.00028081,1
45.191,-0.00032277,1
45.191,-0.00030414,1
45.192,-0.00025715,1
45.192,-0.00019387,1
45.193,-0.00013445,1
45.193,-0.00010591,1
45.194,-0.00010591,1
45.194,-0.00012068,1
45.195,-0.00014066,1
45.195,-0.00015627,1
45.196,-0.00015157,1
45.196,-0.00012975,1
45.197,-0.00010037,1
45.197,-6.949e-05,1
45.198,-3.7766e-05,1
45.199,9.5674e-06,1
45.199,7.0329e-05,1
45.2,0.00012522,1
45.2,0.00016265,1
45.201,0.00018782,1
45.201,0.00019152,1
45.202,0.00017926,1
45.202,0.00017977,1
45.203,0.00020209,1
45.203,0.00022307,1
45.204,0.00020058,1
45.204,0.00010407,1
45.205,-4.0787e-05,1
45.205,-0.00013042,1
45.206,-0.00012169,1
45.206,-5.9251e-05,1
45.207,2.3499e-06,1
45.207,3.1388e-05,1
45.208,2.6352e-05,1
45.208,1.8463e-06,1
45.209,-3.1724e-05,1
45.209,-6.8147e-05,1
45.21,-0.00010558,1
45.21,-0.00012538,1
45.211,-0.00010927,1
45.212,-7.3518e-05,1
45.212,-3.6423e-05,1
45.213,-2.3499e-06,1
45.213,2.9709e-05,1
45.214,6.4958e-05,1
45.214,0.00010172,1
45.215,0.00012924,1
45.215,0.00014485,1
45.216,0.00014804,1
45.216,0.0001321,1
45.217,9.7688e-05,1
45.217,5.1865e-05,1
45.218,-5.0355e-07,1
45.218,-5.623e-05,1
45.219,-0.00011179,1
45.219,-0.00015325,1
45.22,-0.00015375,1
45.22,-0.00010608,1
45.221,-4.3473e-05,1
45.221,-6.3783e-06,1
45.222,-2.5177e-06,1
45.222,-1.1078e-05,1
45.223,-8.2246e-06,1
45.223,1.2589e-05,1
45.224,4.2802e-05,1
45.224,7.2679e-05,1
45.225,9.3156e-05,1
45.226,0.00010591,1
45.226,0.00011867,1
45.227,0.00013042,1
45.227,0.00013797,1
45.228,0.00013848,1
45.228,0.00012874,1
45.229,0.00011229,1
45.229,8.9128e-05,1
45.23,5.388e-05,1
45.23,1.1917e-05,1
45.231,-1.4603e-05,1
45.231,-2.2995e-05,1
45.232,-2.6352e-05,1
45.232,-3.4745e-05,1
45.233,-4.4816e-05,1
45.233,-4.2466e-05,1
45.234,-2.3499e-05,1
45.234,1.3092e-05,1
45.235,6.8315e-05,1
45.235,0.00012572,1
45.236,0.00016432,1
45.236,0.00018061,1
45.237,0.00018077,1
45.237,0.00016768,1
45.238,0.00014855,1
45.239,0.00012975,1
45.239,0.00011095,1
45.24,8.4764e-05,1
45.24,3.8102e-05,1
45.241,-8.5603e-06,1
45.241,-1.9638e-05,1
45.242,1.8463e-06,1
45.242,3.0549e-05,1
45.243,5.3208e-05,1
45.243,5.4887e-05,1
45.244,5.8747e-06,1
45.244,-0.00010272,1
45.245,-0.00022307,1
45.245,-0.0002887,1
45.246,-0.00027007,1
45.246,-0.00019538,1
45.247,-0.0001034,1
45.247,-2.1317e-05,1
45.248,8.3925e-06,1
45.248,-1.1246e-05,1
45.249,-3.8437e-05,1
45.249,-5.5726e-05,1
45.25,-7.0832e-05,1
45.25,-8.9632e-05,1
45.251,-9.7856e-05,1
45.251,-7.6036e-05,1
45.252,-2.9206e-05,1
45.253,2.4002e-05,1
45.253,8.2078e-05,1
45.254,0.00013378,1
45.254,0.00015425,1
45.255,0.0001556,1
45.255,0.00016751,1
45.256,0.00019185,1
45.256,0.00020125,1
45.257,0.0001707,1
45.257,9.7185e-05,1
45.258,1.8967e-05,1
45.258,-2.8367e-05,1
45.259,-5.6565e-05,1
45.259,-8.1071e-05,1
45.26,-8.9464e-05,1
45.26,-8.7114e-05,1
45.261,-9.9031e-05,1
45.261,-0.0001331,1
45.262,-0.000166,1
45.262,-0.00017104,1
45.263,-0.00013764,1
45.263,-7.4022e-05,1
45.264,-1.1749e-05,1
45.264,2.7359e-05,1
45.265,4.5991e-05,1
45.266,6.2608e-05,1
45.266,8.51e-05,1
45.267,0.00011968,1
45.267,0.00017171,1
45.268,0.00021602,1
45.268,0.00023012,1
45.269,0.00021971,1
45.269,0.00018631,1
45.27,0.00013562,1
45.27,8.2414e-05,1
45.271,3.5752e-05,1
45.271,6.3783e-06,1
45.272,2.8534e-06,1
45.272,2.7192e-05,1
45.273,6.6804e-05,1
45.273,0.00010574,1
45.274,0.000118,1
45.274,9.1478e-05,1
