2.2311,-0.00010524,0
2.2317,-0.00022928,0
2.2322,-0.00033519,0
2.2327,-0.00036323,0
2.2332,-0.00032193,0
2.2337,-0.00024187,0
2.2342,-0.00015593,0
2.2348,-5.2201e-05,0
2.2353,8.3589e-05,0
2.2358,0.00020931,0
2.2363,0.00028249,0
2.2368,0.00029491,0
2.2374,0.00027745,0
2.2379,0.00026033,0
2.2384,0.00021736,0
2.2389,0.00012505,0
2.2394,3.5416e-05,0
2.24,-1.4939e-05,0
2.2405,-3.4073e-05,0
2.241,-1.3596e-05,0
2.2415,3.4241e-05,0
2.242,9.4835e-05,0
2.2426,0.00016332,0
2.2431,0.00016886,0
2.2436,3.5584e-05,0
2.2441,-0.00021317,0
2.2446,-0.00041056,0
2.2452,-0.00041425,0
2.2457,-0.00023902,0
2.2462,-2.2324e-05,0
2.2467,9.1142e-05,0
2.2472,7.5364e-05,0
2.2477,3.7263e-05,0
2.2483,5.6901e-05,0
2.2488,0.0001279,0
2.2493,0.00023482,0
2.2498,0.00030918,0
2.2503,0.00029088,0
2.2509,0.00018917,0
2.2514,5.7908e-05,0
2.2519,-3.5584e-05,0
2.2524,-4.918e-05,0
2.2529,4.5319e-06,0
2.2535,7.0161e-05,0
2.254,0.00010658,0
2.2545,0.00010289,0
2.255,7.7043e-05,0
2.2555,4.2466e-05,0
2.2561,6.8818e-06,0
2.2566,1.4939e-05,0
2.2571,7.6707e-05,0
2.2576,9.752e-05,0
2.2581,2.1988e-05,0
2.2587,-7.1e-05,0
2.2592,-8.3421e-05,0
2.2597,-4.8173e-05,0
2.2602,-3.2395e-05,0
2.2607,-5.0523e-05,0
2.2612,-6.9993e-05,0
2.2618,-5.6397e-05,0
2.2623,-5.539e-06,0
2.2628,3.3402e-05,0
2.2633,2.7863e-05,0
2.2638,-1.4267e-05,0
2.2644,-5.1194e-05,0
2.2649,-6.2776e-05,0
2.2654,-6.1601e-05,0
2.2659,-4.5823e-05,0
2.2664,-2.4338e-05,0
2.267,3.357e-07,0
2.2675,1.5442e-05,0
2.268,-5.539e-06,0
2.2685,-5.2201e-05,0
2.269,-8.6778e-05,0
2.2696,-9.5506e-05,0
2.2701,-0.00011666,0
2.2706,-0.0001274,0
2.2711,-5.0187e-05,0
2.2716,6.6972e-05,0
2.2722,0.00012404,0
2.2727,0.00011565,0
2.2732,0.00010188,0
2.2737,0.00010776,0
2.2742,0.00014888,0
2.2748,0.00023885,0
2.2753,0.00033721,0
2.2758,0.00036675,0
2.2763,0.00028148,0
2.2768,0.00012572,0
2.2773,1.4939e-05,0
2.2779,-1.1078e-05,0
2.2784,-5.8747e-06,0
2.2789,-9.9031e-06,0
2.2794,-2.4674e-05,0
2.2799,-1.9806e-05,0
2.2805,1.6953e-05,0
2.281,6.63e-05,0
2.2815,0.00011196,0
2.282,0.00014821,0
2.2825,0.00017003,0
2.2831,0.00015828,0
2.2836,0.00012656,0
2.2841,0.00011649,0
2.2846,0.0001185,0
2.2851,5.7908e-05,0
2.2857,-0.0001284,0
2.2862,-0.00031908,0
2.2867,-0.00032647,0
2.2872,-0.00018564,0
2.2877,-7.4189e-05,0
2.2883,-8.3757e-05,0
2.2888,-0.00015895,0
2.2893,-0.00020696,0
2.2898,-0.00019152,0
2.2903,-0.00011666,0
2.2908,-3.5248e-06,0
2.2914,9.9031e-05,0
2.2919,0.00013915,0
2.2924,0.00012052,0
2.2929,9.6178e-05,0
2.2934,8.7785e-05,0
2.294,8.4764e-05,0
2.2945,8.3421e-05,0
2.295,8.896e-05,0
2.2955,8.9128e-05,0
2.296,7.0665e-05,0
2.2966,4.6159e-05,0
2.2971,2.8031e-05,0
2.2976,1.8631e-05,0
2.2981,1.561e-05,0
2.2986,1.6953e-05,0
2.2992,-4.5319e-06,0
2.2997,-6.865e-05,0
2.3002,-0.00012874,0
2.3007,-0.00015073,0
2.3012,-0.00013394,0
2.3018,-7.1336e-05,0
2.3023,7.4022e-05,0
2.3028,0.0002177,0
2.3033,0.00022945,0
2.3038,0.00010491,0
2.3043,-1.8296e-05,0
2.3049,-3.8437e-05,0
2.3054,7.2175e-06,0
2.3059,4.7166e-05,0
2.3064,6.6972e-05,0
2.3069,9.2821e-05,0
2.3075,0.00012035,0
2.308,8.2918e-05,0
2.3085,-2.182e-05,0
2.309,-7.4693e-05,0
2.3095,-8.2246e-06,0
2.3101,9.366e-05,0
2.3106,9.5171e-05,0
2.3111,-1.9303e-05,0
2.3116,-0.00013613,0
2.3121,-0.00016399,0
2.3127,-9.2317e-05,0
2.3132,1.5274e-05,0
2.3137,5.5222e-05,0
2.3142,-1.7456e-05,0
2.3147,-0.00010491,0
2.3152,-9.4835e-05,0
2.3158,-1.9638e-05,0
2.3163,2.2324e-05,0
2.3168,1.1917e-05,0
2.3173,2.3163e-05,0
2.3178,9.4835e-05,0
2.3184,0.0001989,0
2.3189,0.00026033,0
2.3194,0.00024825,0
2.3199,0.000213,0
2.3204,0.00017775,0
2.321,0.00014083,0
2.3215,9.9535e-05,0
2.322,4.918e-05,0
2.3225,7.5532e-06,0
2.323,-1.5946e-05,0
2.3236,-5.2201e-05,0
2.3241,-0.00010524,0
2.3246,-0.00013713,0
2.3251,-0.00011397,0
2.3256,-4.9012e-05,0
2.3262,5.2033e-06,0
2.3267,6.8818e-06,0
2.3272,-3.9109e-05,0
2.3277,-8.0735e-05,0
2.3282,-7.6707e-05,0
2.3287,-3.9109e-05,0
2.3293,-6.5461e-06,0
2.3298,5.0355e-06,0
2.3303,-1.8463e-06,0
2.3308,-5.539e-06,0
2.3313,2.8534e-05,0
2.3319,9.9199e-05,0
2.3324,0.00015627,0
2.3329,0.00016265,0
2.3334,0.00013075,0
2.3339,8.7785e-05,0
2.3345,4.2802e-05,0
2.335,2.3499e-06,0
2.3355,-3.122e-05,0
2.336,-5.4719e-05,0
2.3365,-3.2898e-05,0
2.3371,2.9374e-05,0
2.3376,4.4816e-05,0
2.3381,-3.3402e-05,0
2.3386,-0.00015325,0
2.3391,-0.00023012,0
2.3397,-0.0002219,0
2.3402,-0.00013411,0
2.3407,-1.8296e-05,0
2.3412,6.2608e-05,0
2.3417,7.7379e-05,0
2.3422,5.9754e-05,0
2.3428,4.7837e-05,0
2.3433,3.9445e-05,0
2.3438,3.3234e-05,0
2.3443,2.5345e-05,0
2.3448,3.8102e-05,0
2.3454,8.275e-05,0
2.3459,0.0001274,0
2.3464,0.00014553,0
2.3469,0.00014267,0
2.3474,0.00014385,0
2.348,0.00016483,0
2.3485,0.00020058,0
2.349,0.00021468,0
2.3495,0.00016869,0
2.35,8.1743e-05,0
2.3506,4.0284e-06,0
2.3511,-4.1794e-05,0
2.3516,-6.1936e-05,0
2.3521,-6.4118e-05,0
2.3526,-3.6088e-05,0
2.3532,2.3331e-05,0
2.3537,7.5029e-05,0
2.3542,9.5171e-05,0
2.3547,9.1142e-05,0
2.3552,7.0665e-05,0
2.3558,4.5823e-05,0
2.3563,3.4745e-05,0
2.3568,3.6088e-05,0
2.3573,3.1388e-05,0
2.3578,2.6352e-05,0
2.3583,2.6352e-05,0
2.3589,5.623e-05,0
2.3594,0.00014603,0
2.3599,0.00021451,0
2.3604,0.00017104,0
2.3609,4.2466e-05,0
2.3615,-7.335e-05,0
2.362,-0.00013361,0
2.3625,-0.00015694,0
2.363,-0.00016265,0
2.3635,-0.00015962,0
2.3641,-0.00015375,0
2.3646,-0.00014183,0
2.3651,-0.00012924,0
2.3656,-0.0001373,0
2.3661,-0.00016466,0
2.3667,-0.00016667,0
2.3672,-0.00011044,0
2.3677,-2.652e-05,0
2.3682,3.1891e-05,0
2.3687,4.5991e-05,0
2.3693,2.7695e-05,0
2.3698,4.1962e-06,0
2.3703,1.3428e-06,0
2.3708,2.7695e-05,0
2.3713,6.5629e-05,0
2.3718,7.6707e-05,0
2.3724,5.7572e-05,0
2.3729,4.5823e-05,0
2.3734,5.3544e-05,0
2.3739,6.2943e-05,0
2.3744,5.0187e-05,0
2.375,1.9806e-05,0
2.3755,3.0213e-06,0
2.376,8.7282e-06,0
2.3765,1.5442e-05,0
2.377,1.0239e-05,0
2.3776,-2.7192e-05,0
2.3781,-9.9199e-05,0
2.3786,-0.00017507,0
2.3791,-0.0002078,0
2.3796,-0.00016986,0
2.3802,-9.4835e-05,0
2.3807,-3.0549e-05,0
2.3812,9.5674e-06,0
2.3817,3.4409e-05,0
2.3822,7.0665e-05,0
2.3828,0.00015795,0
2.3833,0.00028954,0
2.3838,0.00038387,0
2.3843,0.00038119,0
2.3848,0.00029592,0
2.3853,0.00019219,0
2.3859,0.00013411,0
2.3864,0.00012723,0
2.3869,0.00012253,0
2.3874,8.8121e-05,0
2.3879,4.6662e-05,0
2.3885,2.6017e-05,0
2.389,3.5752e-05,0
2.3895,7.9393e-05,0
2.39,0.0001321,0
2.3905,0.00015224,0
2.3911,0.00011666,0
2.3916,5.1865e-05,0
2.3921,7.5532e-06,0
2.3926,-1.2589e-05,0
2.3931,-2.9877e-05,0
2.3937,-4.2298e-05,0
2.3942,-3.6927e-05,0
2.3947,-3.0381e-05,0
2.3952,-3.2898e-05,0
2.3957,-3.8773e-05,0
2.3963,-4.0452e-05,0
2.3968,-4.3137e-05,0
2.3973,-6.4622e-05,0
2.3978,-0.00010625,0
2.3983,-0.00013243,0
2.3988,-0.00013764,0
2.3994,-0.00013059,0
2.3999,-0.00010893,0
2.4004,-6.5965e-05,0
2.4009,-1.9806e-05,0
2.4014,-5.539e-06,0
2.402,-1.9303e-05,0
2.4025,-1.6953e-05,0
2.403,2.4002e-05,0
2.4035,6.7979e-05,0
2.404,4.8173e-05,0
2.4046,-1.9638e-05,0
2.4051,-6.2104e-05,0
2.4056,-6.1433e-05,0
2.4061,-4.7501e-05,0
2.4066,-4.8173e-05,0
2.4072,-7.805e-05,0
2.4077,-0.00014318,0
2.4082,-0.00022408,0
2.4087,-0.00028652,0
2.4092,-0.00031606,0
2.4097,-0.00029055,0
2.4103,-0.00022861,0
2.4108,-0.00015023,0
2.4113,-5.0355e-05,0
2.4118,8.2078e-05,0
2.4123,0.00025563,0
2.4129,0.0004584,0
2.4134,0.00063833,0
2.4139,0.0007236,0
2.4144,0.00070278,0
2.4149,0.00060728,0
2.4155,0.00047904,0
2.416,0.00035131,0
2.4165,0.00024623,0
2.417,0.00018514,0
2.4175,0.00015375,0
2.4181,0.00011028,0
2.4186,4.6494e-05,0
2.4191,-1.1917e-05,0
2.4196,-4.8508e-05,0
2.4201,-6.5965e-05,0
2.4207,-7.57e-05,0
2.4212,-9.2149e-05,0
2.4217,-0.00011951,0
2.4222,-0.00015526,0
2.4227,-0.00017842,0
2.4232,-0.0001608,0
2.4238,-9.366e-05,0
2.4243,-1.2924e-05,0
2.4248,2.1317e-05,0
2.4253,-1.6785e-05,0
2.4258,-9.1478e-05,0
2.4264,-0.00015006,0
2.4269,-0.00015694,0
2.4274,-0.0001274,0
2.4279,-9.9535e-05,0
2.4284,-7.7379e-05,0
2.429,-6.865e-05,0
2.4295,-7.805e-05,0
2.43,-8.0232e-05,0
2.4305,-6.5629e-05,0
2.431,-4.3809e-05,0
2.4316,-1.9974e-05,0
2.4321,-8.3925e-07,0
2.4326,4.1962e-06,0
2.4331,-1.8967e-05,0
2.4336,-5.8244e-05,0
2.4342,-7.1672e-05,0
2.4347,-3.6088e-05,0
2.4352,-3.0381e-05,0
2.4357,-0.0001185,0
2.4362,-0.00023297,0
2.4367,-0.00026285,0
2.4373,-0.00017758,0
2.4378,-2.6688e-05,0
2.4383,0.00013243,0
2.4388,0.00025765,0
2.4393,0.00033016,0
2.4399,0.00035366,0
2.4404,0.00033553,0
2.4409,0.0002892,0
2.4414,0.00023348,0
2.4419,0.0001744,0
2.4425,0.00012001,0
2.443,7.9561e-05,0
2.4435,5.3544e-05,0
2.444,3.7263e-05,0
2.4445,2.4002e-05,0
2.4451,8.5603e-06,0
2.4456,-7.5532e-06,0
2.4461,-1.6953e-05,0
2.4466,-1.561e-05,0
2.4471,-9.2317e-06,0
2.4477,-5.7069e-06,0
2.4482,-6.5461e-06,0
2.4487,-8.7282e-06,0
2.4492,-1.2589e-05,0
2.4497,-1.4435e-05,0
2.4503,-1.561e-05,0
2.4508,-1.7288e-05,0
2.4513,-1.9974e-05,0
2.4518,-1.5106e-05,0
2.4523,1.2589e-05,0
2.4528,5.3208e-05,0
2.4534,8.7785e-05,0
2.4539,0.00012471,0
2.4544,0.00015358,0
2.4549,0.00013915,0
2.4554,6.4286e-05,0
2.456,-3.7095e-05,0
2.4565,-0.00010793,0
2.457,-0.0001274,0
2.4575,-0.00012236,0
2.458,-0.00012303,0
2.4586,-0.0001274,0
2.4591,-0.00013059,0
2.4596,-0.00013814,0
2.4601,-0.000142,0
2.4606,-0.00014485,0
2.4612,-0.00015677,0
2.4617,-0.00015492,0
2.4622,-0.00012035,0
2.4627,-5.7404e-05,0
2.4632,1.2757e-05,0
2.4638,5.8244e-05,0
2.4643,7.5364e-05,0
2.4648,8.6442e-05,0
2.4653,0.00010591,0
2.4658,0.00012941,0
2.4663,0.00014955,0
2.4669,0.0001519,0
2.4674,0.00011783,0
2.4679,5.4887e-05,0
2.4684,-6.8818e-06,0
2.4689,-3.9445e-05,0
2.4695,-3.827e-05,0
2.47,-1.9471e-05,0
2.4705,-1.091e-05,0
2.471,-3.8437e-05,0
2.4715,-9.2988e-05,0
2.4721,-0.00013143,0
2.4726,-0.00011934,0
2.4731,-6.8315e-05,0
2.4736,-8.2246e-06,0
2.4741,3.8605e-05,0
2.4747,7.1336e-05,0
2.4752,0.00011095,0
2.4757,0.00018379,0
2.4762,0.00029642,0
2.4767,0.00040603,0
2.4773,0.00043154,0
2.4778,0.00035013,0
2.4783,0.00022878,0
2.4788,0.00014334,0
2.4793,0.00010793,0
2.4798,0.00010121,0
2.4804,0.0001133,0
2.4809,0.00011917,0
2.4814,8.51e-05,0
2.4819,2.1317e-05,0
2.4824,-2.3499e-05,0
2.483,-2.7359e-05,0
2.4835,1.8463e-06,0
2.484,4.213e-05,0
2.4845,7.6204e-05,0
2.485,9.5842e-05,0
2.4856,8.6442e-05,0
2.4861,4.3809e-05,0
2.4866,-6.5461e-06,0
2.4871,-2.9038e-05,0
2.4876,-3.2227e-05,0
2.4882,-7.1336e-05,0
2.4887,-0.00015106,0
2.4892,-0.00024036,0
2.4897,-0.00030314,0
2.4902,-0.0003127,0
2.4907,-0.00027813,0
2.4913,-0.00022777,0
2.4918,-0.00012874,0
2.4923,1.3428e-05,0
2.4928,0.00010591,0
2.4933,9.9199e-05,0
2.4939,3.978e-05,0
2.4944,3.6927e-06,0
2.4949,-2.182e-06,0
2.4954,-3.0213e-06,0
2.4959,3.6927e-06,0
2.4965,5.2033e-06,0
2.497,3.8605e-06,0
2.4975,6.2272e-05,0
2.498,0.00017574,0
2.4985,0.00024556,0
2.4991,0.00022341,0
2.4996,0.00013881,0
2.5001,4.8173e-05,0
2.5006,-1.2253e-05,0
2.5011,-3.6423e-05,0
2.5017,-2.8031e-05,0
2.5022,6.2104e-06,0
2.5027,2.3835e-05,0
2.5032,-5.539e-06,0
2.5037,-3.1556e-05,0
2.5042,-2.0142e-06,0
2.5048,7.2343e-05,0
2.5053,0.00015291,0
2.5058,0.00019622,0
2.5063,0.00017758,0
2.5068,0.00011095,0
2.5074,4.2466e-05,0
2.5079,-1.5106e-06,0
2.5084,-2.5681e-05,0
2.5089,-4.0955e-05,0
2.5094,-3.827e-05,0
2.51,2.5177e-06,0
2.5105,6.0426e-05,0
2.511,9.0471e-05,0
2.5115,6.7811e-05,0
2.512,1.4099e-05,0
2.5126,-4.0284e-05,0
2.5131,-8.7617e-05,0
2.5136,-0.00012001,0
2.5141,-0.00013495,0
2.5146,-0.00014166,0
2.5152,-0.0001415,0
2.5157,-0.00012454,0
2.5162,-9.8863e-05,0
2.5167,-7.335e-05,0
2.5172,-4.0452e-05,0
2.5177,-5.0355e-07,0
2.5183,1.1582e-05,0
2.5188,-1.8128e-05,0
2.5193,-5.0523e-05,0
2.5198,-5.9251e-05,0
2.5203,-5.0355e-05,0
2.5209,-3.2563e-05,0
2.5214,8.2246e-06,0
2.5219,6.1265e-05,0
2.5224,0.00010373,0
2.5229,0.00013277,0
2.5235,0.00017037,0
2.524,0.00021921,0
2.5245,0.00024758,0
2.525,0.00023667,0
2.5255,0.00019185,0
2.5261,0.0001284,0
2.5266,6.0426e-05,0
2.5271,-8.2246e-06,0
2.5276,-6.3447e-05,0
2.5281,-9.366e-05,0
2.5287,-0.00010994,0
2.5292,-0.00011598,0
2.5297,-0.00010944,0
2.5302,-8.7785e-05,0
2.5307,-4.5319e-05,0
2.5312,2.6688e-05,0
2.5318,0.00012236,0
2.5323,0.00020058,0
2.5328,0.00020125,0
2.5333,0.0001185,0
2.5338,2.9374e-05,0
2.5344,-1.0407e-05,0
2.5349,-5.0355e-06,0
2.5354,2.0813e-05,0
2.5359,4.3305e-05,0
2.5364,4.5487e-05,0
2.537,3.4073e-05,0
2.5375,3.743e-05,0
2.538,6.0929e-05,0
2.5385,7.1336e-05,0
2.539,3.7934e-05,0
2.5396,-1.8296e-05,0
2.5401,-4.5487e-05,0
2.5406,-3.0716e-05,0
2.5411,-6.5461e-06,0
2.5416,-3.8605e-06,0
2.5422,-2.6184e-05,0
2.5427,-4.683e-05,0
2.5432,-3.2898e-05,0
2.5437,-5.0355e-07,0
2.5442,8.3925e-06,0
2.5448,-2.4506e-05,0
2.5453,-7.4861e-05,0
2.5458,-0.00010021,0
2.5463,-8.4932e-05,0
2.5468,-4.8508e-05,0
2.5473,-1.9303e-05,0
2.5479,-1.5946e-05,0
2.5484,-3.6423e-05,0
2.5489,-4.918e-05,0
2.5494,-1.6953e-05,0
2.5499,5.2201e-05,0
2.5505,0.0001133,0
2.551,0.0001373,0
2.5515,0.00012337,0
2.552,0.00010256,0
2.5525,0.00010994,0
2.5531,0.0001514,0
2.5536,0.00019588,0
2.5541,0.000213,0
2.5546,0.0002083,0
2.5551,0.00018514,0
2.5557,0.00013747,0
2.5562,8.8121e-05,0
2.5567,7.0329e-05,0
2.5572,7.0497e-05,0
2.5577,5.6901e-05,0
2.5583,1.7792e-05,0
2.5588,-4.0955e-05,0
2.5593,-9.9535e-05,0
2.5598,-0.00012941,0
2.5603,-0.00013445,0
2.5608,-0.00013159,0
2.5614,-0.00012203,0
2.5619,-0.00010004,0
2.5624,-6.5797e-05,0
2.5629,-2.9206e-05,0
2.5634,5.2033e-06,0
2.564,4.0452e-05,0
2.5645,6.6804e-05,0
2.565,6.6972e-05,0
2.5655,5.7404e-05,0
2.566,6.479e-05,0
2.5666,7.57e-05,0
2.5671,5.8412e-05,0
2.5676,5.2033e-06,0
2.5681,-6.0761e-05,0
2.5686,-0.00010558,0
2.5692,-0.00011699,0
2.5697,-0.00010423,0
2.5702,-7.1336e-05,0
2.5707,-6.714e-06,0
2.5712,6.2943e-05,0
2.5718,9.2821e-05,0
2.5723,8.5435e-05,0
2.5728,6.3615e-05,0
2.5733,4.2802e-05,0
2.5738,3.3066e-05,0
2.5743,4.3809e-05,0
2.5749,6.4286e-05,0
2.5754,6.7811e-05,0
2.5759,4.4816e-05,0
2.5764,1.0575e-05,0
2.5769,-1.1414e-05,0
2.5775,-2.0142e-05,0
2.578,-3.8605e-05,0
2.5785,-8.5771e-05,0
2.579,-0.00013075,0
2.5795,-0.00018379,0
2.5801,-0.00026571,0
2.5806,-0.00030851,0
2.5811,-0.00025194,0
2.5816,-0.0001227,0
2.5821,1.3596e-05,0
2.5827,0.00010961,0
2.5832,0.00016567,0
2.5837,0.0002036,0
2.5842,0.00024019,0
2.5847,0.00027561,0
2.5852,0.00029357,0
2.5858,0.00028988,0
2.5863,0.00024086,0
2.5868,0.00012773,0
2.5873,2.5177e-05,0
2.5878,-9.9031e-06,0
2.5884,-2.182e-06,0
2.5889,2.1988e-05,0
2.5894,5.7572e-05,0
2.5899,9.4835e-05,0
2.5904,0.00011431,0
2.591,0.00010759,0
2.5915,8.6946e-05,0
2.592,5.4215e-05,0
2.5925,1.0407e-05,0
2.593,-3.4409e-05,0
2.5936,-7.5029e-05,0
2.5941,-0.00010004,0
2.5946,-8.3589e-05,0
2.5951,-2.4674e-05,0
2.5956,8.5771e-05,0
2.5962,0.00020192,0
2.5967,0.00022072,0
2.5972,0.00012471,0
2.5977,4.1962e-06,0
2.5982,-5.0523e-05,0
2.5987,-3.592e-05,0
2.5993,-6.2104e-06,0
2.5998,2.0142e-06,0
2.6003,-2.6352e-05,0
2.6008,-8.1743e-05,0
2.6013,-0.0001284,0
2.6019,-0.00015123,0
2.6024,-0.0001509,0
2.6029,-0.00013109,0
2.6034,-0.00010155,0
2.6039,-6.9322e-05,0
2.6045,-3.1052e-05,0
2.605,7.7211e-06,0
2.6055,3.5416e-05,0
2.606,7.4861e-05,0
2.6065,0.00013915,0
2.6071,0.00019387,0
2.6076,0.00019991,0
2.6081,0.00015795,0
2.6086,0.0001086,0
2.6091,9.1981e-05,0
2.6097,0.00010457,0
2.6102,9.8527e-05,0
2.6107,5.8579e-05,0
2.6112,5.539e-06,0
2.6117,-3.508e-05,0
2.6122,-4.1962e-05,0
2.6128,-1.2757e-05,0
2.6133,2.031e-05,0
2.6138,1.2757e-05,0
2.6143,-3.5416e-05,0
2.6148,-7.2175e-05,0
2.6154,-4.2802e-05,0
2.6159,2.3331e-05,0
2.6164,6.949e-05,0
2.6169,8.3589e-05,0
2.6174,7.4022e-05,0
2.618,5.1698e-05,0
2.6185,3.2731e-05,0
2.619,2.501e-05,0
2.6195,1.9638e-05,0
2.62,1.5778e-05,0
2.6206,-1.6785e-07,0
2.6211,-4.5151e-05,0
2.6216,-0.00010793,0
2.6221,-0.00015862,0
2.6226,-0.00019387,0
2.6232,-0.0002318,0
2.6237,-0.00027141,0
2.6242,-0.00028669,0
2.6247,-0.00021888,0
2.6252,-8.2078e-05,0
2.6258,5.0187e-05,0
2.6263,0.00011229,0
2.6268,0.00010709,0
2.6273,9.9031e-05,0
2.6278,0.00013948,0
2.6283,0.00022794,0
2.6289,0.00031388,0
2.6294,0.00035232,0
2.6299,0.0003221,0
2.6304,0.00024758,0
2.6309,0.00017154,0
2.6315,0.00010961,0
2.632,5.8747e-05,0
2.6325,2.6688e-05,0
2.633,-3.1891e-06,0
2.6335,-3.6423e-05,0
2.6341,-5.2705e-05,0
2.6346,-5.0355e-05,0
2.6351,-3.592e-05,0
2.6356,-7.0497e-06,0
2.6361,2.5681e-05,0
2.6367,3.8605e-05,0
2.6372,2.9038e-05,0
2.6377,1.5442e-05,0
2.6382,2.0478e-05,0
2.6387,5.7572e-05,0
2.6393,0.00010306,0
2.6398,0.00010709,0
2.6403,7.5532e-05,0
2.6408,9.4499e-05,0
2.6413,0.00016902,0
2.6418,0.00018077,0
2.6424,7.1e-05,0
2.6429,-8.2414e-05,0
2.6434,-0.00017691,0
2.6439,-0.00020192,0
2.6444,-0.00020175,0
2.645,-0.00020645,0
2.6455,-0.00020494,0
2.646,-0.0001895,0
2.6465,-0.00016315,0
2.647,-0.00013579,0
2.6476,-0.00011833,0
2.6481,-0.00010004,0
2.6486,-6.1936e-05,0
2.6491,2.2492e-05,0
2.6496,0.00015811,0
2.6502,0.00025093,0
2.6507,0.00022005,0
2.6512,0.00010625,0
2.6517,5.0355e-07,0
2.6522,-5.9922e-05,0
2.6528,-9.5506e-05,0
2.6533,-0.00011296,0
2.6538,-0.00010222,0
2.6543,-8.6778e-05,0
2.6548,-9.9199e-05,0
2.6553,-0.00011112,0
2.6559,-8.6107e-05,0
2.6564,-4.9516e-05,0
2.6569,-2.182e-05,0
2.6574,-2.6856e-06,0
2.6579,2.7359e-05,0
2.6585,8.8457e-05,0
2.659,0.0001707,0
2.6595,0.00023348,0
2.66,0.00024422,0
2.6605,0.00020528,0
2.6611,0.0001603,0
2.6616,0.00013344,0
2.6621,0.00010021,0
2.6626,4.8173e-05,0
2.6631,5.0355e-07,0
2.6637,-2.031e-05,0
2.6642,-1.3764e-05,0
2.6647,-1.0071e-06,0
2.6652,1.7792e-05,0
2.6657,4.5151e-05,0
2.6662,8.8289e-05,0
2.6668,0.00014485,0
2.6673,0.00020394,0
2.6678,0.00025127,0
2.6683,0.0002647,0
2.6688,0.00023801,0
2.6694,0.00019454,0
2.6699,0.00016483,0
2.6704,0.00013478,0
2.6709,8.3757e-05,0
2.6714,2.4002e-05,0
2.672,-3.0045e-05,0
2.6725,-7.5868e-05,0
2.673,-0.00010088,0
2.6735,-9.366e-05,0
2.674,-6.6133e-05,0
2.6746,-4.2466e-05,0
2.6751,-3.508e-05,0
2.6756,-3.9277e-05,0
2.6761,-4.3137e-05,0
2.6766,-4.1794e-05,0
2.6772,-4.0116e-05,0
2.6777,-3.7934e-05,0
2.6782,-3.6591e-05,0
2.6787,-3.8102e-05,0
2.6792,-4.1291e-05,0
2.6797,-4.2802e-05,0
2.6803,-4.213e-05,0
2.6808,-3.978e-05,0
2.6813,-3.5752e-05,0
2.6818,-2.2324e-05,0
2.6823,4.5319e-06,0
2.6829,2.4338e-05,0
2.6834,2.1317e-05,0
2.6839,-2.182e-06,0
2.6844,-3.0045e-05,0
2.6849,-4.4816e-05,0
2.6855,-4.6662e-05,0
2.686,-5.5222e-05,0
2.6865,-7.7546e-05,0
2.687,-9.4835e-05,0
2.6875,-9.4331e-05,0
2.6881,-8.6275e-05,0
2.6886,-8.6107e-05,0
2.6891,-8.4932e-05,0
2.6896,-7.6707e-05,0
2.6901,-7.3518e-05,0
2.6907,-6.3111e-05,0
2.6912,-2.6688e-05,0
2.6917,2.8031e-05,0
2.6922,6.8482e-05,0
2.6927,7.1336e-05,0
2.6932,5.0187e-05,0
2.6938,4.4144e-05,0
2.6943,7.5029e-05,0
2.6948,0.0001274,0
2.6953,0.00017574,0
2.6958,0.00019907,0
2.6964,0.00018497,0
2.6969,0.00013462,0
2.6974,7.9057e-05,0
2.6979,4.7166e-05,0
2.6984,4.0787e-05,0
2.699,5.4215e-05,0
2.6995,7.8721e-05,0
2.7,0.00010121,0
2.7005,0.0001133,0
2.701,0.00012068,0
2.7016,0.00013411,0
2.7021,0.00014083,0
2.7026,0.00012119,0
2.7031,7.6707e-05,0
2.7036,2.4674e-05,0
2.7042,-1.2924e-05,0
2.7047,-2.6352e-05,0
2.7052,-3.3402e-05,0
2.7057,-4.5991e-05,0
2.7062,-5.2873e-05,0
2.7067,-7.3686e-05,0
2.7073,-0.00010289,0
2.7078,-0.00010205,0
2.7083,-6.9993e-05,0
2.7088,-2.652e-05,0
2.7093,9.7353e-06,0
2.7099,2.4506e-05,0
2.7104,1.1917e-05,0
2.7109,-3.0716e-05,0
2.7114,-5.8915e-05,0
2.7119,-3.978e-05,0
2.7125,2.3331e-05,0
2.713,9.6849e-05,0
2.7135,0.00012068,0
2.714,9.0303e-05,0
2.7145,5.6733e-05,0
2.7151,5.5558e-05,0
2.7156,8.7449e-05,0
2.7161,0.00013948,0
2.7166,0.00017238,0
2.7171,0.00015157,0
2.7177,0.00010809,0
2.7182,8.9128e-05,0
2.7187,8.1743e-05,0
2.7192,5.8915e-05,0
2.7197,2.652e-05,0
2.7203,-6.8818e-06,0
2.7208,-4.4144e-05,0
2.7213,-8.51e-05,0
2.7218,-0.00011951,0
2.7223,-0.00014015,0
2.7228,-0.00013764,0
2.7234,-0.00011649,0
2.7239,-8.9799e-05,0
2.7244,-7.4525e-05,0
2.7249,-7.5532e-05,0
2.7254,-9.3492e-05,0
2.726,-0.00011901,0
2.7265,-0.00012186,0
2.727,-7.0329e-05,0
2.7275,3.357e-05,0
2.728,0.00013982,0
2.7286,0.00020394,0
2.7291,0.00022005,0
2.7296,0.00021988,0
2.7301,0.00023381,0
2.7306,0.00024137,0
2.7312,0.00022676,0
2.7317,0.00019454,0
2.7322,0.00014217,0
2.7327,7.1e-05,0
2.7332,4.5319e-06,0
2.7338,-3.2731e-05,0
2.7343,-3.2731e-05,0
2.7348,-2.7863e-05,0
2.7353,-4.4984e-05,0
2.7358,-6.5965e-05,0
2.7363,-7.8721e-05,0
2.7369,-8.6107e-05,0
2.7374,-8.8289e-05,0
2.7379,-8.1575e-05,0
2.7384,-6.9993e-05,0
2.7389,-6.865e-05,0
2.7395,-6.4622e-05,0
2.74,-4.7837e-05,0
2.7405,-3.827e-05,0
2.741,-1.8967e-05,0
2.7415,1.9638e-05,0
2.7421,5.0858e-05,0
2.7426,5.5558e-05,0
2.7431,4.1123e-05,0
2.7436,3.1724e-05,0
2.7441,3.6423e-05,0
2.7447,3.743e-05,0
2.7452,1.8296e-05,0
2.7457,-2.3499e-05,0
2.7462,-6.5797e-05,0
2.7467,-9.7856e-05,0
2.7473,-0.00014217,0
2.7478,-0.00018111,0
2.7483,-0.00017607,0
2.7488,-0.0001227,0
2.7493,-3.592e-05,0
2.7498,7.1336e-05,0
2.7504,0.00018514,0
2.7509,0.00028048,0
2.7514,0.00033989,0
2.7519,0.00035769,0
2.7524,0.00032479,0
2.753,0.00024691,0
2.7535,0.00014452,0
2.754,3.4409e-05,0
2.7545,-7.0665e-05,0
2.755,-0.00014603,0
2.7556,-0.00017607,0
2.7561,-0.00016735,0
2.7566,-0.00013999,0
2.7571,-0.00010809,0
2.7576,-7.6539e-05,0
2.7582,-4.3809e-05,0
2.7587,1.1246e-05,0
2.7592,0.00010658,0
2.7597,0.00021199,0
2.7602,0.0002647,0
2.7607,0.00025597,0
2.7613,0.00021233,0
2.7618,0.00015341,0
2.7623,0.00011514,0
2.7628,0.00010524,0
2.7633,8.6778e-05,0
2.7639,4.1459e-05,0
2.7644,-3.0213e-06,0
2.7649,1.2421e-05,0
2.7654,9.8192e-05,0
2.7659,0.00015358,0
2.7665,0.00010239,0
2.767,-1.9806e-05,0
2.7675,-0.00012538,0
2.768,-0.00017775,0
2.7685,-0.00019269,0
2.7691,-0.00019705,0
2.7696,-0.00020511,0
2.7701,-0.00021888,0
2.7706,-0.00021518,0
2.7711,-0.00018212,0
2.7717,-0.00014485,0
2.7722,-0.00011296,0
2.7727,-7.57e-05,0
2.7732,-2.0645e-05,0
2.7737,3.8437e-05,0
2.7742,8.04e-05,0
2.7748,0.00011196,0
2.7753,0.00015157,0
2.7758,0.00018967,0
2.7763,0.00019051,0
2.7768,0.00014922,0
2.7774,7.8721e-05,0
2.7779,-1.0071e-06,0
2.7784,-4.8844e-05,0
2.7789,-4.7501e-05,0
2.7794,-2.501e-05,0
2.78,1.0071e-06,0
2.7805,2.4002e-05,0
2.781,3.4409e-05,0
2.7815,4.5991e-05,0
2.782,7.9393e-05,0
2.7826,0.00012136,0
2.7831,0.00013008,0
2.7836,8.51e-05,0
2.7841,2.3667e-05,0
2.7846,-3.1891e-06,0
2.7852,4.6998e-06,0
2.7857,1.8967e-05,0
2.7862,3.0716e-05,0
2.7867,4.5823e-05,0
2.7872,5.7237e-05,0
2.7877,5.1865e-05,0
2.7883,2.5345e-05,0
2.7888,-1.3931e-05,0
2.7893,-5.4551e-05,0
2.7898,-9.7185e-05,0
2.7903,-0.00013613,0
2.7909,-0.00015341,0
2.7914,-0.00016516,0
2.7919,-0.00019538,0
2.7924,-0.00021132,0
2.7929,-0.00017305,0
2.7935,-8.6778e-05,0
2.794,2.0981e-05,0
2.7945,0.00012589,0
2.795,0.00020461,0
2.7955,0.0002459,0
2.7961,0.00025866,0
2.7966,0.00025278,0
2.7971,0.00022676,0
2.7976,0.00018581,0
2.7981,0.00013864,0
2.7987,9.1142e-05,0
2.7992,4.0116e-05,0
2.7997,-3.4073e-05,0
2.8002,-0.00012303,0
2.8007,-0.00015207,0
2.8013,-8.7114e-05,0
2.8018,-1.9135e-05,0
2.8023,-3.2395e-05,0
2.8028,-9.9702e-05,0
2.8033,-0.0001373,0
2.8038,-0.00010574,0
2.8044,-7.0497e-06,0
2.8049,0.00014636,0
2.8054,0.00030196,0
2.8059,0.00037514,0
2.8064,0.00032512,0
2.807,0.00019789,0
2.8075,9.9199e-05,0
2.808,6.6636e-05,0
2.8085,7.2007e-05,0
2.809,8.1407e-05,0
2.8096,6.1601e-05,0
2.8101,2.1317e-05,0
2.8106,4.3641e-06,0
2.8111,-1.3764e-05,0
2.8116,-6.3615e-05,0
2.8122,-0.00011934,0
2.8127,-0.00016617,0
2.8132,-0.00023146,0
2.8137,-0.0003127,0
2.8142,-0.00031522,0
2.8148,-0.00020897,0
2.8153,-0.00011716,0
2.8158,-8.4764e-05,0
2.8163,-1.8967e-05,0
2.8168,0.00010541,0
2.8173,0.00018816,0
2.8179,0.00017708,0
2.8184,0.00013596,0
2.8189,0.00014385,0
2.8194,0.00019051,0
2.8199,0.00024019,0
2.8205,0.00027024,0
2.821,0.00026134,0
2.8215,0.00022274,0
2.822,0.00016768,0
2.8225,9.5842e-05,0
2.8231,6.4286e-05,0
2.8236,0.00011901,0
2.8241,0.00016265,0
2.8246,0.00010843,0
2.8251,-6.714e-06,0
2.8257,-9.2317e-05,0
2.8262,-0.00010222,0
2.8267,-6.5797e-05,0
2.8272,-3.6255e-05,0
2.8277,-3.8773e-05,0
2.8283,-5.7069e-05,0
2.8288,-7.0665e-05,0
2.8293,-7.7546e-05,0
2.8298,-8.1239e-05,0
2.8303,-8.0064e-05,0
2.8308,-8.9296e-05,0
2.8314,-0.00011128,0
2.8319,-0.00014284,0
2.8324,-0.00018732,0
2.8329,-0.00021787,0
2.8334,-0.00021451,0
2.834,-0.00016735,0
2.8345,-7.3518e-05,0
2.835,3.8773e-05,0
2.8355,0.00011984,0
2.836,0.00012908,0
2.8366,7.8386e-05,0
2.8371,6.2608e-05,0
2.8376,0.00011229,0
2.8381,0.00017137,0
2.8386,0.00021233,0
2.8392,0.00023516,0
2.8397,0.00022408,0
2.8402,0.00017876,0
2.8407,0.00013545,0
2.8412,0.00012438,0
2.8418,0.00012807,0
2.8423,0.00010591,0
2.8428,4.2802e-05,0
2.8433,-3.7095e-05,0
2.8438,-0.00010843,0
2.8443,-0.0001561,0
2.8449,-0.00015761,0
2.8454,-0.00012404,0
2.8459,-8.9632e-05,0
2.8464,-7.9393e-05,0
2.8469,-9.1142e-05,0
2.8475,-0.00010793,0
2.848,-0.00010054,0
2.8485,-4.9012e-05,0
2.849,1.8631e-05,0
2.8495,6.5797e-05,0
2.8501,7.4693e-05,0
2.8506,5.5222e-05,0
2.8511,2.4674e-05,0
2.8516,-1.7624e-05,0
2.8521,-5.3208e-05,0
2.8527,-6.8818e-05,0
2.8532,-7.4022e-05,0
2.8537,-7.57e-05,0
2.8542,-7.2343e-05,0
2.8547,-5.4887e-05,0
2.8552,-1.326e-05,0
2.8558,5.4383e-05,0
2.8563,0.00013008,0
2.8568,0.00019487,0
2.8573,0.00020494,0
2.8578,0.00013126,0
2.8584,4.3137e-05,0
2.8589,8.896e-06,0
2.8594,9.9031e-06,0
2.8599,-2.182e-06,0
2.8604,-1.6281e-05,0
2.861,-1.1246e-05,0
2.8615,2.1988e-05,0
2.862,7.8218e-05,0
2.8625,0.00012656,0
2.863,0.0001378,0
2.8636,0.00012068,0
2.8641,0.00010155,0
2.8646,9.987e-05,0
2.8651,0.00011699,0
2.8656,0.00012975,0
2.8662,0.0001227,0
2.8667,9.8192e-05,0
2.8672,7.3182e-05,0
2.8677,7.3686e-05,0
2.8682,9.6178e-05,0
2.8687,8.4428e-05,0
2.8693,6.2104e-06,0
2.8698,-8.9128e-05,0
2.8703,-0.00012438,0
2.8708,-8.8792e-05,0
2.8713,-3.8773e-05,0
2.8719,-2.6184e-05,0
2.8724,-5.0858e-05,0
2.8729,-9.2317e-05,0
2.8734,-0.00011833,0
2.8739,-0.00011112,0
2.8745,-8.6946e-05,0
2.875,-4.5823e-05,0
2.8755,1.2589e-05,0
2.876,7.6036e-05,0
2.8765,0.00010121,0
2.8771,9.2821e-05,0
2.8776,0.00011263,0
2.8781,0.00013277,0
2.8786,8.5771e-05,0
2.8791,-5.7069e-06,0
2.8797,-6.1097e-05,0
2.8802,-1.9303e-05,0
2.8807,8.7953e-05,0
2.8812,0.00016432,0
2.8817,0.00016063,0
2.8822,8.9799e-05,0
2.8828,-1.8463e-06,0
2.8833,-6.4622e-05,0
2.8838,-8.04e-05,0
2.8843,-6.3447e-05,0
2.8848,-3.978e-05,0
2.8854,-2.8702e-05,0
2.8859,-3.3906e-05,0
2.8864,-4.918e-05,0
2.8869,-6.9657e-05,0
2.8874,-0.00010239,0
2.888,-0.00013579,0
2.8885,-0.00013965,0
2.889,-6.8986e-05,0
2.8895,7.4693e-05,0
2.89,0.00017356,0
2.8906,0.0001415,0
2.8911,3.5584e-05,0
2.8916,-3.3066e-05,0
2.8921,-3.4241e-05,0
2.8926,-1.1749e-05,0
2.8932,-1.3092e-05,0
2.8937,-4.8173e-05,0
2.8942,-0.00011984,0
2.8947,-0.00019907,0
2.8952,-0.00021451,0
2.8958,-0.0001519,0
2.8963,-6.1936e-05,0
2.8968,2.1317e-05,0
2.8973,9.2821e-05,0
2.8978,0.00014217,0
2.8983,0.00017137,0
2.8989,0.00018917,0
2.8994,0.00020494,0
2.8999,0.00022509,0
2.9004,0.00023465,0
2.9009,0.00020864,0
2.9015,0.00015023,0
2.902,8.5771e-05,0
2.9025,5.0858e-05,0
2.903,5.8244e-05,0
2.9035,7.2679e-05,0
2.9041,6.3951e-05,0
2.9046,3.2731e-05,0
2.9051,3.1891e-06,0
2.9056,1.1749e-06,0
2.9061,3.3066e-05,0
2.9067,6.949e-05,0
2.9072,7.4525e-05,0
2.9077,5.8244e-05,0
2.9082,2.266e-05,0
2.9087,-1.7624e-05,0
2.9093,-3.7095e-05,0
2.9098,-3.743e-05,0
2.9103,-4.1459e-05,0
2.9108,-6.2272e-05,0
2.9113,-8.6107e-05,0
2.9118,-9.1646e-05,0
2.9124,-7.1e-05,0
2.9129,-4.0787e-05,0
2.9134,-1.091e-05,0
2.9139,2.6352e-05,0
2.9144,6.1097e-05,0
2.915,7.3014e-05,0
2.9155,5.2873e-05,0
2.916,2.1317e-05,0
2.9165,5.7069e-06,0
2.917,2.0813e-05,0
2.9176,6.3951e-05,0
2.9181,0.00011095,0
2.9186,0.00012874,0
2.9191,0.0001133,0
2.9196,9.5674e-05,0
2.9202,7.4861e-05,0
2.9207,2.4338e-05,0
2.9212,-4.7333e-05,0
2.9217,-0.00010491,0
2.9222,-0.00012186,0
2.9228,-0.00011397,0
2.9233,-9.8863e-05,0
2.9238,-4.6494e-05,0
2.9243,2.0645e-05,0
2.9248,2.6352e-05,0
2.9253,-2.3331e-05,0
2.9259,-4.918e-05,0
2.9264,-3.8605e-06,0
2.9269,9.5842e-05,0
2.9274,0.00020058,0
2.9279,0.00025698,0
2.9285,0.00024221,0
2.929,0.00019236,0
2.9295,0.0001467,0
2.93,0.00010373,0
2.9305,5.774e-05,0
2.9311,2.8702e-05,0
2.9316,1.6281e-05,0
2.9321,-1.6281e-05,0
2.9326,-6.7979e-05,0
2.9331,-0.00010256,0
2.9337,-0.00010944,0
2.9342,-0.0001091,0
2.9347,-0.00010944,0
2.9352,-9.0974e-05,0
2.9357,-5.7908e-05,0
2.9362,-3.6255e-05,0
2.9368,-3.9445e-05,0
2.9373,-4.448e-05,0
2.9378,-1.1749e-06,0
2.9383,9.0471e-05,0
2.9388,0.00015157,0
2.9394,0.00012136,0
2.9399,5.0187e-05,0
2.9404,6.5461e-06,0
2.9409,-1.3931e-05,0
2.9414,-2.9038e-05,0
2.942,-3.8605e-05,0
2.9425,-4.9851e-05,0
2.943,-6.2272e-05,0
2.9435,-5.8747e-05,0
2.944,-3.0716e-05,0
2.9446,1.1246e-05,0
2.9451,5.2873e-05,0
2.9456,7.3014e-05,0
2.9461,7.8386e-05,0
2.9466,8.8792e-05,0
2.9472,0.00010977,0
2.9477,0.00013143,0
2.9482,0.00013143,0
2.9487,9.1814e-05,0
2.9492,2.6688e-05,0
2.9497,-4.6159e-05,0
2.9503,-9.5003e-05,0
2.9508,-8.0064e-05,0
2.9513,-3.0381e-05,0
2.9518,1.326e-05,0
2.9523,4.4144e-05,0
2.9529,5.4887e-05,0
2.9534,4.6494e-05,0
2.9539,4.3473e-05,0
2.9544,5.388e-05,0
2.9549,7.1336e-05,0
2.9555,8.4428e-05,0
2.956,8.275e-05,0
2.9565,7.1672e-05,0
2.957,7.4022e-05,0
2.9575,0.00010323,0
2.9581,0.0001279,0
2.9586,0.00011196,0
2.9591,7.1e-05,0
2.9596,4.448e-05,0
2.9601,2.9038e-05,0
2.9607,5.0355e-06,0
2.9612,-2.9038e-05,0
2.9617,-6.0761e-05,0
2.9622,-7.8721e-05,0
2.9627,-8.6778e-05,0
2.9632,-7.0161e-05,0
2.9638,2.5513e-05,0
2.9643,0.00015425,0
2.9648,0.00018883,0
2.9653,7.335e-05,0
2.9658,-0.00010121,0
2.9664,-0.00019974,0
2.9669,-0.00020209,0
2.9674,-0.00015895,0
2.9679,-0.0001138,0
2.9684,-8.1071e-05,0
2.969,-5.3208e-05,0
2.9695,-3.122e-05,0
2.97,-2.3163e-05,0
2.9705,-2.5345e-05,0
2.971,-2.5681e-05,0
2.9716,-1.7288e-05,0
2.9721,1.0071e-06,0
2.9726,2.8031e-05,0
2.9731,5.5222e-05,0
2.9736,8.0568e-05,0
2.9742,0.00010558,0
2.9747,0.00012471,0
2.9752,0.00012874,0
2.9757,0.00010692,0
2.9762,5.4047e-05,0
2.9768,3.1891e-06,0
2.9773,-1.5778e-05,0
2.9778,-1.4435e-05,0
2.9783,-3.0381e-05,0
2.9788,-6.479e-05,0
2.9793,-9.131e-05,0
2.9799,-9.9199e-05,0
2.9804,-9.5506e-05,0
2.9809,-7.4189e-05,0
2.9814,-3.4409e-05,0
2.9819,-7.7211e-06,0
2.9825,-4.6494e-05,0
2.983,-0.00013277,0
2.9835,-0.00018111,0
2.984,-0.00015828,0
2.9845,-9.7856e-05,0
2.9851,-4.2466e-05,0
2.9856,-4.6998e-06,0
2.9861,1.7456e-05,0
2.9866,2.8534e-05,0
2.9871,5.069e-05,0
2.9877,0.00011464,0
2.9882,0.00019622,0
2.9887,0.00023079,0
2.9892,0.00020125,0
2.9897,0.00014351,0
2.9903,9.3492e-05,0
2.9908,5.4383e-05,0
2.9913,2.4002e-05,0
2.9918,6.714e-06,0
2.9923,2.5681e-05,0
2.9928,0.00013176,0
2.9934,0.00027678,0
2.9939,0.00033503,0
2.9944,0.00026403,0
2.9949,0.00012673,0
2.9954,4.1962e-06,0
2.996,-8.8457e-05,0
2.9965,-0.00017473,0
2.997,-0.00020847,0
2.9975,-0.00017154,0
2.998,-0.00011078,0
2.9986,-6.1936e-05,0
2.9991,-1.9471e-05,0
2.9996,8.5603e-06,0
3.0001,1.5778e-05,0
3.0006,2.8031e-05,0
3.0012,7.4525e-05,0
3.0017,0.00016332,0
3.0022,0.00024892,0
3.0027,0.00026638,0
3.0032,0.0002177,0
3.0038,0.00016701,0
3.0043,0.00016063,0
3.0048,0.00019286,0
3.0053,0.00022995,0
3.0058,0.00023012,0
3.0063,0.00018564,0
3.0069,0.00012605,0
3.0074,6.2943e-05,0
3.0079,3.8605e-06,0
3.0084,-2.2492e-05,0
3.0089,-6.714e-06,0
3.0095,1.9303e-05,0
3.01,2.1653e-05,0
3.0105,-4.8676e-06,0
3.011,-4.2466e-05,0
3.0115,-7.4357e-05,0
3.0121,-8.7449e-05,0
3.0126,-8.0232e-05,0
3.0131,-6.1936e-05,0
3.0136,-4.5823e-05,0
3.0141,-4.3137e-05,0
3.0147,-4.0116e-05,0
3.0152,-2.0981e-05,0
3.0157,-3.1891e-06,0
3.0162,-1.091e-05,0
3.0167,-4.3137e-05,0
3.0173,-7.805e-05,0
3.0178,-0.00010188,0
3.0183,-0.00011112,0
3.0188,-9.9702e-05,0
3.0193,-6.2943e-05,0
3.0198,-8.2246e-06,0
3.0204,4.2802e-05,0
3.0209,4.2466e-05,0
3.0214,-3.6088e-05,0
3.0219,-0.00013613,0
3.0224,-0.00018598,0
3.023,-0.00014334,0
3.0235,2.8702e-05,0
3.024,0.00020243,0
3.0245,0.00020662,0
3.025,4.8173e-05,0
3.0256,-9.8695e-05,0
3.0261,-0.0001039,0
3.0266,2.0813e-05,0
3.0271,0.00018715,0
3.0276,0.00030129,0
3.0282,0.00030263,0
3.0287,0.00020528,0
3.0292,9.4163e-05,0
3.0297,3.4241e-05,0
3.0302,2.3499e-05,0
3.0307,2.1317e-05,0
3.0313,-4.5319e-06,0
3.0318,-4.918e-05,0
3.0323,-8.9128e-05,0
3.0328,-0.00010054,0
3.0333,-7.805e-05,0
3.0339,-4.1459e-05,0
3.0344,-1.326e-05,0
3.0349,-1.4099e-05,0
3.0354,-4.9683e-05,0
3.0359,-7.805e-05,0
3.0365,-6.2272e-05,0
3.037,-1.4939e-05,0
3.0375,3.8773e-05,0
3.038,0.00011699,0
3.0385,0.00018027,0
3.0391,0.00015224,0
3.0396,5.069e-05,0
3.0401,-4.7837e-05,0
3.0406,-0.00010239,0
3.0411,-0.00011565,0
3.0417,-9.5842e-05,0
3.0422,-2.5681e-05,0
3.0427,7.1336e-05,0
3.0432,0.00011162,0
3.0437,9.2821e-05,0
3.0442,4.5655e-05,0
3.0448,-2.4506e-05,0
3.0453,-0.00010172,0
3.0458,-0.00015325,0
3.0463,-0.00013848,0
3.0468,-6.0594e-05,0
3.0474,1.8296e-05,0
3.0479,5.0187e-05,0
3.0484,3.743e-05,0
3.0489,6.2104e-06,0
3.0494,-4.0116e-05,0
3.05,-6.4286e-05,0
3.0505,-2.8702e-05,0
3.051,3.0716e-05,0
3.0515,6.9322e-05,0
3.052,7.7714e-05,0
3.0526,8.7282e-05,0
3.0531,0.00011196,0
3.0536,0.00013948,0
3.0541,0.00017809,0
3.0546,0.00027091,0
3.0552,0.00038253,0
3.0557,0.00042919,0
3.0562,0.00037397,0
3.0567,0.00021132,0
3.0572,-2.2324e-05,0
3.0577,-0.00022324,0
3.0583,-0.00031086,0
3.0588,-0.00031354,0
3.0593,-0.00026487,0
3.0598,-0.00016802,0
3.0603,-4.2802e-05,0
3.0609,5.388e-05,0
3.0614,9.4499e-05,0
3.0619,0.00014066,0
3.0624,0.00020763,0
3.0629,0.00022274,0
3.0635,0.00016802,0
3.064,9.3324e-05,0
3.0645,1.6617e-05,0
3.065,-6.5629e-05,0
3.0655,-0.00011363,0
3.0661,-0.00010961,0
3.0666,-6.7643e-05,0
3.0671,-1.2757e-05,0
3.0676,3.1052e-05,0
3.0681,4.0787e-05,0
3.0687,1.3428e-05,0
3.0692,-2.0981e-05,0
3.0697,-3.4913e-05,0
3.0702,-2.1988e-05,0
3.0707,-1.2924e-05,0
3.0713,-4.0955e-05,0
3.0718,-6.3111e-05,0
3.0723,-4.448e-05,0
3.0728,-4.3473e-05,0
3.0733,-0.00010356,0
3.0738,-0.00017893,0
3.0744,-0.00021971,0
3.0749,-0.00025362,0
3.0754,-0.00032512,0
3.0759,-0.00035886,0
3.0764,-0.00025194,0
3.077,-1.6785e-05,0
3.0775,0.00023851,0
3.078,0.00035332,0
3.0785,0.0003117,0
3.079,0.0002172,0
3.0796,0.00015895,0
3.0801,0.00016432,0
3.0806,0.00022274,0
3.0811,0.00029592,0
3.0816,0.00031807,0
3.0822,0.00029172,0
3.0827,0.00023717,0
3.0832,0.00019638,0
3.0837,0.00022139,0
3.0842,0.00023079,0
3.0848,0.0001227,0
3.0853,-4.6159e-05,0
3.0858,-0.00011649,0
3.0863,-6.3447e-05,0
3.0868,-2.0142e-06,0
3.0873,-1.3428e-06,0
3.0879,-3.1891e-06,0
3.0884,6.7979e-05,0
3.0889,0.00016013,0
3.0894,0.00017977,0
3.0899,0.0001086,0
3.0905,-7.5532e-06,0
3.091,-0.00010809,0
3.0915,-0.00017137,0
3.092,-0.0002036,0
3.0925,-0.00023062,0
3.0931,-0.00028736,0
3.0936,-0.00037481,0
3.0941,-0.00042164,0
3.0946,-0.00039176,0
3.0951,-0.00032479,0
3.0957,-0.00026403,0
3.0962,-0.00023046,0
3.0967,-0.00020797,0
3.0972,-0.00015258,0
3.0977,-3.0213e-05,0
3.0983,0.0001509,0
3.0988,0.00034896,0
3.0993,0.00051882,0
3.0998,0.00059335,0
3.1003,0.00055273,0
3.1008,0.00043876,0
3.1014,0.00029793,0
3.1019,0.00017675,0
3.1024,0.00013478,0
3.1029,0.00015895,0
3.1034,0.00014435,0
3.104,3.5248e-05,0
3.1045,-8.9128e-05,0
3.105,-0.00013831,0
3.1055,-0.00014267,0
3.106,-0.00013948,0
3.1066,-0.0001091,0
3.1071,-6.0258e-05,0
3.1076,-3.7095e-05,0
3.1081,-4.4984e-05,0
3.1086,-4.8676e-05,0
3.1092,-4.448e-05,0
3.1097,-4.9683e-05,0
3.1102,-4.8173e-05,0
3.1107,-5.7069e-06,0
3.1112,9.987e-05,0
3.1117,0.00020797,0
3.1123,0.00021434,0
3.1128,0.00010323,0
3.1133,-4.4816e-05,0
3.1138,-0.00013646,0
3.1143,-0.00014301,0
3.1149,-9.9031e-05,0
3.1154,-5.9754e-05,0
3.1159,-3.978e-05,0
3.1164,-1.7624e-05,0
3.1169,2.2995e-05,0
3.1175,8.2414e-05,0
3.118,0.00015006,0
3.1185,0.00019857,0
3.119,0.00021468,0
3.1195,0.00020494,0
3.1201,0.00016466,0
3.1206,0.00010524,0
3.1211,4.8173e-05,0
3.1216,-4.3641e-06,0
3.1221,-6.479e-05,0
3.1227,-0.00013646,0
3.1232,-0.00019957,0
3.1237,-0.00022794,0
3.1242,-0.00022274,0
3.1247,-0.00019219,0
3.1252,-0.00015291,0
3.1258,-0.00012001,0
3.1263,-7.2007e-05,0
3.1268,1.6785e-07,0
3.1273,6.8986e-05,0
3.1278,0.00010776,0
3.1284,0.00013143,0
3.1289,0.00014183,0
3.1294,0.00013814,0
3.1299,0.00014586,0
3.1304,0.00014519,0
3.131,0.00010121,0
3.1315,1.6281e-05,0
3.132,-8.51e-05,0
3.1325,-0.00017188,0
3.133,-0.00021418,0
3.1336,-0.00020797,0
3.1341,-0.00015979,0
3.1346,-7.4022e-05,0
3.1351,2.8367e-05,0
3.1356,9.987e-05,0
3.1362,0.00010524,0
3.1367,6.7308e-05,0
3.1372,9.1142e-05,0
3.1377,0.00022609,0
3.1382,0.00033687,0
3.1387,0.00029726,0
3.1393,0.00015543,0
3.1398,4.0787e-05,0
3.1403,1.4771e-05,0
3.1408,3.2059e-05,0
3.1413,3.2059e-05,0
3.1419,2.266e-05,0
3.1424,1.9974e-05,0
3.1429,2.5849e-05,0
3.1434,2.7359e-05,0
3.1439,1.5946e-05,0
3.1445,-1.0575e-05,0
3.145,-4.5823e-05,0
3.1455,-7.6036e-05,0
3.146,-9.8192e-05,0
3.1465,-0.00012035,0
3.1471,-0.00011632,0
3.1476,-7.7043e-05,0
3.1481,-2.182e-05,0
3.1486,4.0116e-05,0
3.1491,0.00011095,0
3.1497,0.00017792,0
3.1502,0.00021602,0
3.1507,0.00021569,0
3.1512,0.00018715,0
3.1517,0.0001415,0
3.1522,8.4428e-05,0
3.1528,2.182e-05,0
3.1533,-2.031e-05,0
3.1538,-2.5177e-05,0
3.1543,-1.796e-05,0
3.1548,-2.7359e-05,0
3.1554,-5.5558e-05,0
3.1559,-8.2078e-05,0
3.1564,-9.1142e-05,0
3.1569,-8.9464e-05,0
3.1574,-8.0735e-05,0
3.158,-6.865e-05,0
3.1585,-6.1433e-05,0
3.159,-6.6133e-05,0
3.1595,-8.7449e-05,0
3.16,-0.0001091,0
3.1606,-0.00010088,0
3.1611,-5.0355e-05,0
3.1616,1.5274e-05,0
3.1621,5.623e-05,0
3.1626,6.244e-05,0
3.1632,6.1265e-05,0
3.1637,0.00010021,0
3.1642,0.00021451,0
3.1647,0.00031942,0
3.1652,0.00034359,0
3.1658,0.00026268,0
3.1663,9.1478e-05,0
3.1668,-0.0001331,0
3.1673,-0.00033855,0
3.1678,-0.00039982,0
3.1683,-0.00026436,0
3.1689,-3.7263e-05,0
3.1694,0.0001086,0
3.1699,9.0471e-05,0
3.1704,-2.7024e-05,0
3.1709,-0.00011514,0
3.1715,-8.1407e-05,0
3.172,3.1891e-05,0
3.1725,0.00013848,0
3.173,0.00019319,0
3.1735,0.00019823,0
3.1741,0.0002083,0
3.1746,0.00025362,0
3.1751,0.00030599,0
3.1756,0.0003258,0
3.1761,0.00030465,0
3.1767,0.00025597,0
3.1772,0.00018682,0
3.1777,0.00010188,0
3.1782,1.4267e-05,0
3.1787,-3.1388e-05,0
3.1793,4.1962e-06,0
3.1798,5.8244e-05,0
3.1803,2.5345e-05,0
3.1808,-0.00010289,0
3.1813,-0.00023751,0
3.1818,-0.00029206,0
3.1824,-0.00026201,0
3.1829,-0.00020813,0
3.1834,-0.00018212,0
3.1839,-0.00017053,0
3.1844,-0.00013663,0
3.185,-7.6707e-05,0
3.1855,-3.2059e-05,0
3.186,-2.7024e-05,0
3.1865,-3.7095e-05,0
3.187,-2.8367e-05,0
3.1876,6.8818e-06,0
3.1881,7.5029e-05,0
3.1886,0.0001697,0
3.1891,0.00024892,0
3.1896,0.00029642,0
3.1902,0.00032815,0
3.1907,0.00033184,0
3.1912,0.00026403,0
3.1917,0.00011229,0
3.1922,-6.9322e-05,0
3.1928,-0.00015778,0
3.1933,-9.5003e-05,0
3.1938,-1.4267e-05,0
3.1943,-3.1724e-05,0
3.1948,-0.00012505,0
3.1953,-0.0002078,0
3.1959,-0.00020729,0
3.1964,-9.1981e-05,0
3.1969,8.6778e-05,0
3.1974,0.00021854,0
3.1979,0.00022895,0
3.1985,0.00014401,0
3.199,4.3473e-05,0
3.1995,-7.5532e-06,0
3.2,-1.9638e-05,0
3.2005,-3.3066e-05,0
3.2011,-7.1e-05,0
3.2016,-0.00017053,0
3.2021,-0.00029793,0
3.2026,-0.00032815,0
3.2031,-0.00024993,0
3.2037,-0.00015862,0
3.2042,-0.00012421,0
3.2047,-0.00012203,0
3.2052,-0.00010759,0
3.2057,-9.6178e-05,0
3.2062,-0.0001086,0
3.2068,-5.5894e-05,0
3.2073,8.5771e-05,0
3.2078,0.00019722,0
3.2083,0.00019991,0
3.2088,0.00012706,0
3.2094,1.796e-05,0
3.2099,-7.5532e-05,0
3.2104,-6.0594e-05,0
3.2109,8.4428e-05,0
3.2114,0.00025295,0
3.212,0.00034694,0
3.2125,0.00038051,0
3.213,0.00041039,0
3.2135,0.00043087,0
3.214,0.00041543,0
3.2146,0.00037565,0
3.2151,0.00032143,0
3.2156,0.00024724,0
3.2161,0.00015946,0
3.2166,8.4764e-05,0
3.2172,3.592e-05,0
3.2177,2.0142e-06,0
3.2182,-2.8702e-05,0
3.2187,-6.0594e-05,0
3.2192,-9.5338e-05,0
3.2197,-0.00012639,0
3.2203,-0.00015644,0
3.2208,-0.00019739,0
3.2213,-0.00022441,0
3.2218,-0.00016483,0
3.2223,-6.1936e-05,0
3.2229,-2.8534e-05,0
3.2234,-7.1168e-05,0
3.2239,-0.00010155,0
3.2244,-8.51e-05,0
3.2249,-5.8747e-05,0
3.2255,-4.7669e-05,0
3.226,-3.2395e-05,0
3.2265,7.2175e-06,0
3.227,7.7882e-05,0
3.2275,0.00014519,0
3.2281,0.00016164,0
3.2286,0.00013982,0
3.2291,0.00010558,0
3.2296,6.5629e-05,0
3.2301,1.4771e-05,0
3.2307,-6.6972e-05,0
3.2312,-0.0001848,0
3.2317,-0.00031002,0
3.2322,-0.00040351,0
3.2327,-0.00044295,0
3.2332,-0.00041912,0
3.2338,-0.00033822,0
3.2343,-0.00021283,0
3.2348,-5.153e-05,0
3.2353,0.00013008,0
3.2358,0.00030163,0
3.2364,0.00043792,0
3.2369,0.00049633,0
3.2374,0.00045772,0
3.2379,0.00036272,0
3.2384,0.00024741,0
3.239,0.00014485,0
3.2395,7.5029e-05,0
3.24,3.4745e-05,0
3.2405,1.3931e-05,0
3.241,-4.1962e-06,0
3.2416,-5.3208e-05,0
3.2421,-0.0001326,0
3.2426,-0.00019219,0
3.2431,-0.00018144,0
3.2436,-0.00012824,0
3.2442,-0.00010021,0
3.2447,-9.752e-05,0
3.2452,-8.1743e-05,0
3.2457,-3.3066e-05,0
3.2462,2.3331e-05,0
3.2468,6.4118e-05,0
3.2473,9.6345e-05,0
3.2478,0.00012656,0
3.2483,0.00016281,0
3.2488,0.00022408,0
3.2493,0.0002835,0
3.2499,0.00028316,0
3.2504,0.00021602,0
3.2509,0.00010491,0
3.2514,7.0497e-06,0
3.2519,-3.7095e-05,0
3.2525,-3.6423e-05,0
3.253,-2.6352e-05,0
3.2535,-4.0452e-05,0
3.254,-0.0001232,0
3.2545,-0.00027108,0
3.2551,-0.00035534,0
3.2556,-0.00032193,0
3.2561,-0.0002224,0
3.2566,-7.1672e-05,0
3.2571,9.7353e-05,0
3.2577,0.00018044,0
3.2582,0.00016902,0
3.2587,0.00015929,0
3.2592,0.00019554,0
3.2597,0.00021334,0
3.2603,0.0001185,0
3.2608,-2.417e-05,0
3.2613,-8.3085e-05,0
3.2618,-7.6371e-05,0
3.2623,-0.00010222,0
3.2628,-0.00015358,0
3.2634,-0.00018245,0
3.2639,-0.00018396,0
3.2644,-0.00012236,0
3.2649,4.8844e-05,0
3.2654,0.00026554,0
3.266,0.00041073,0
3.2665,0.0004349,0
3.267,0.00036692,0
3.2675,0.00030398,0
3.268,0.0002892,0
3.2686,0.00023062,0
3.2691,7.9728e-05,0
3.2696,-8.275e-05,0
3.2701,-0.00016584,0
3.2706,-0.00017121,0
3.2712,-0.0001462,0
3.2717,-0.00011363,0
3.2722,-8.7114e-05,0
3.2727,-8.1239e-05,0
3.2732,-5.6397e-05,0
3.2738,1.4267e-05,0
3.2743,9.9031e-05,0
3.2748,0.00014318,0
3.2753,0.00011649,0
3.2758,4.4816e-05,0
3.2763,-3.1724e-05,0
3.2769,-0.00010658,0
3.2774,-0.00018799,0
3.2779,-0.00023885,0
3.2784,-0.00025899,0
3.2789,-0.00026806,0
3.2795,-0.00026352,0
3.28,-0.00022576,0
3.2805,-0.00013663,0
3.281,5.2033e-06,0
3.2815,0.00015727,0
3.2821,0.00026923,0
3.2826,0.0003174,0
3.2831,0.00029944,0
3.2836,0.00023717,0
3.2841,0.00017708,0
3.2847,0.00015727,0
3.2852,0.00017339,0
3.2857,0.00018581,0
3.2862,0.00016466,0
3.2867,0.00010994,0
3.2872,5.9586e-05,0
3.2878,4.9516e-05,0
3.2883,4.9348e-05,0
3.2888,2.501e-05,0
3.2893,-1.6785e-06,0
3.2898,-1.0071e-05,0
3.2904,-4.9683e-05,0
3.2909,-0.00014888,0
3.2914,-0.00019118,0
3.2919,-0.00010256,0
3.2924,3.4409e-05,0
3.293,0.00011598,0
3.2935,0.00013613,0
3.294,0.00012404,0
3.2945,8.3757e-05,0
3.295,3.6927e-05,0
3.2956,2.3835e-05,0
3.2961,5.2873e-05,0
3.2966,7.9896e-05,0
3.2971,5.9586e-05,0
3.2976,8.2246e-06,0
3.2982,-1.1917e-05,0
3.2987,1.7288e-05,0
3.2992,5.0187e-05,0
3.2997,3.4073e-05,0
3.3002,-4.1291e-05,0
3.3007,-0.00011263,0
3.3013,-0.00013008,0
3.3018,-0.00010877,0
3.3023,-8.8792e-05,0
3.3028,-8.6778e-05,0
3.3033,-8.8624e-05,0
3.3039,-8.0064e-05,0
3.3044,-4.9683e-05,0
3.3049,-2.5177e-06,0
3.3054,3.8437e-05,0
3.3059,7.4861e-05,0
3.3065,8.3421e-05,0
3.307,2.2995e-05,0
3.3075,-6.3111e-05,0
3.308,-0.00012186,0
3.3085,-0.00015056,0
3.3091,-0.00016298,0
3.3096,-0.00014368,0
3.3101,-7.2007e-05,0
3.3106,4.448e-05,0
3.3111,0.00017305,0
3.3117,0.00028652,0
3.3122,0.00035802,0
3.3127,0.00036776,0
3.3132,0.00032378,0
3.3137,0.00024355,0
3.3142,0.0001462,0
3.3148,5.3376e-05,0
3.3153,-2.7192e-05,0
3.3158,-9.2988e-05,0
3.3163,-0.00012639,0
3.3168,-0.00011968,0
3.3174,-8.6442e-05,0
3.3179,-4.7166e-05,0
3.3184,-2.9374e-05,0
3.3189,-5.8579e-05,0
3.3194,-9.0806e-05,0
3.32,-7.0665e-05,0
3.3205,-5.539e-06,0
3.321,5.7572e-05,0
3.3215,8.3421e-05,0
3.322,6.1601e-05,0
3.3226,1.0575e-05,0
3.3231,-2.7192e-05,0
3.3236,-2.8367e-05,0
3.3241,1.5106e-06,0
3.3246,2.6688e-05,0
3.3252,1.796e-05,0
3.3257,-1.6617e-05,0
3.3262,-4.1962e-05,0
3.3267,-2.7695e-05,0
3.3272,1.4099e-05,0
3.3277,4.1627e-05,0
3.3283,3.7766e-05,0
3.3288,3.2227e-05,0
3.3293,5.7237e-05,0
3.3298,0.00010893,0
3.3303,0.0001613,0
3.3309,0.00017943,0
3.3314,0.00014687,0
3.3319,9.2653e-05,0
3.3324,4.7166e-05,0
3.3329,1.6281e-05,0
3.3335,1.1749e-06,0
3.334,-1.1749e-06,0
3.3345,1.3428e-06,0
3.335,1.0239e-05,0
3.3355,2.3331e-05,0
3.3361,3.3234e-05,0
3.3366,3.508e-05,0
3.3371,2.6017e-05,0
3.3376,7.8889e-06,0
3.3381,-9.5674e-06,0
3.3387,-2.1149e-05,0
3.3392,-2.3667e-05,0
3.3397,-1.9471e-05,0
3.3402,-1.3931e-05,0
3.3407,-1.6281e-05,0
3.3413,-2.501e-05,0
3.3418,-2.501e-05,0
3.3423,-1.7456e-05,0
3.3428,-1.3764e-05,0
3.3433,-1.7456e-05,0
3.3438,-2.8031e-05,0
3.3444,-4.0284e-05,0
3.3449,-6.714e-05,0
3.3454,-0.00013042,0
3.3459,-0.00021132,0
3.3464,-0.00026889,0
3.347,-0.0002793,0
3.3475,-0.00024355,0
3.348,-0.00018447,0
3.3485,-0.00010692,0
3.349,6.8818e-06,0
3.3496,0.0001509,0
3.3501,0.0002751,0
3.3506,0.00033922,0
3.3511,0.00034527,0
3.3516,0.00032747,0
3.3522,0.00031254,0
3.3527,0.00029961,0
3.3532,0.00026705,0
3.3537,0.00021468,0
3.3542,0.00016986,0
3.3548,0.00013243,0
3.3553,8.7449e-05,0
3.3558,5.0523e-05,0
3.3563,4.2466e-05,0
3.3568,4.6326e-05,0
3.3573,3.7934e-05,0
3.3579,1.4603e-05,0
3.3584,-1.8463e-05,0
3.3589,-7.0329e-05,0
3.3594,-0.00011414,0
3.3599,-0.0001091,0
3.3605,-5.9251e-05,0
3.361,5.7069e-06,0
3.3615,4.4648e-05,0
3.362,4.1459e-05,0
3.3625,1.3931e-05,0
3.3631,-7.2175e-06,0
3.3636,-1.7792e-05,0
3.3641,-7.3854e-05,0
3.3646,-0.00018144,0
3.3651,-0.00026436,0
3.3657,-0.00026436,0
3.3662,-0.00015694,0
3.3667,-1.5946e-05,0
3.3672,4.6662e-05,0
3.3677,2.3331e-05,0
3.3683,3.5248e-06,0
3.3688,5.9586e-05,0
3.3693,0.00018111,0
3.3698,0.00029055,0
3.3703,0.00033251,0
3.3708,0.00026923,0
3.3714,0.00012236,0
3.3719,-1.561e-05,0
3.3724,-8.2078e-05,0
3.3729,-5.388e-05,0
3.3734,5.8747e-06,0
3.374,-2.1149e-05,0
3.3745,-0.00016986,0
3.375,-0.00034879,0
3.3755,-0.00043087,0
3.376,-0.00038119,0
3.3766,-0.00025177,0
3.3771,-0.00010222,0
3.3776,2.7863e-05,0
3.3781,0.0001368,0
3.3786,0.00022979,0
3.3792,0.00028048,0
3.3797,0.00028048,0
3.3802,0.00024221,0
3.3807,0.00021132,0
3.3812,0.00021669,0
3.3817,0.00023062,0
3.3823,0.00023583,0
3.3828,0.00025698,0
3.3833,0.00026571,0
3.3838,0.00021921,0
3.3843,0.00012253,0
3.3849,3.4745e-05,0
3.3854,-2.2324e-05,0
3.3859,-7.7043e-05,0
3.3864,-0.00012807,0
3.3869,-0.00015056,0
3.3875,-0.0001331,0
3.388,-8.9296e-05,0
3.3885,-4.0787e-05,0
3.389,-2.8534e-06,0
3.3895,1.4771e-05,0
3.3901,2.2995e-05,0
3.3906,3.5752e-05,0
3.3911,4.8173e-05,0
3.3916,5.4887e-05,0
3.3921,5.6901e-05,0
3.3927,4.8508e-05,0
3.3932,2.5345e-05,0
3.3937,1.6785e-07,0
3.3942,-1.1078e-05,0
3.3947,-1.3764e-05,0
3.3952,-3.4577e-05,0
3.3958,-8.3757e-05,0
3.3963,-0.00012706,0
3.3968,-0.00013512,0
3.3973,-0.00011682,0
3.3978,-9.366e-05,0
3.3984,-7.7714e-05,0
3.3989,-6.4118e-05,0
3.3994,-4.8844e-05,0
3.3999,-3.3738e-05,0
3.4004,-1.9303e-05,0
3.401,-8.0568e-06,0
3.4015,-2.182e-06,0
3.402,-2.0645e-05,0
3.4025,-8.4932e-05,0
3.403,-0.0001801,0
3.4036,-0.00024724,0
3.4041,-0.00024221,0
3.4046,-0.00018698,0
3.4051,-0.00011128,0
3.4056,-1.8128e-05,0
3.4062,7.4022e-05,0
3.4067,0.00014318,0
3.4072,0.00020226,0
3.4077,0.00027158,0
3.4082,0.00033234,0
3.4087,0.00036172,0
3.4093,0.00034997,0
3.4098,0.00029894,0
3.4103,0.00023348,0
3.4108,0.00017977,0
3.4113,0.00014351,0
3.4119,0.000118,0
3.4124,9.9367e-05,0
3.4129,9.4499e-05,0
3.4134,8.5771e-05,0
3.4139,2.9206e-05,0
3.4145,-7.3518e-05,0
3.415,-0.00015593,0
3.4155,-0.00018296,0
3.416,-0.00016265,0
3.4165,-0.00011901,0
3.4171,-7.4189e-05,0
3.4176,-3.7934e-05,0
3.4181,-1.2757e-05,0
3.4186,1.1917e-05,0
3.4191,4.8173e-05,0
3.4197,8.275e-05,0
3.4202,9.1646e-05,0
3.4207,7.3686e-05,0
3.4212,4.5151e-05,0
3.4217,1.561e-05,0
3.4223,-2.5177e-06,0
3.4228,-5.2033e-06,0
3.4233,-5.0355e-07,0
3.4238,4.5319e-06,0
3.4243,4.8676e-06,0
3.4248,2.3499e-06,0
3.4254,2.182e-06,0
3.4259,8.896e-06,0
3.4264,1.9135e-05,0
3.4269,2.6352e-05,0
3.4274,2.417e-05,0
3.428,1.2253e-05,0
3.4285,1.5106e-06,0
3.429,3.0213e-06,0
3.4295,1.5274e-05,0
3.43,1.9806e-05,0
3.4306,-1.8463e-06,0
3.4311,-3.7766e-05,0
3.4316,-5.3544e-05,0
3.4321,-3.508e-05,0
3.4326,3.1891e-06,0
3.4332,4.0787e-05,0
3.4337,6.4958e-05,0
3.4342,8.6946e-05,0
3.4347,0.0001091,0
3.4352,0.00010222,0
3.4358,4.6159e-05,0
3.4363,-4.2634e-05,0
3.4368,-0.00012068,0
3.4373,-0.00019303,0
3.4378,-0.00028585,0
3.4383,-0.0003508,0
3.4389,-0.00033587,0
3.4394,-0.00024707,0
3.4399,-0.00010591,0
3.4404,7.3182e-05,0
3.4409,0.00024808,0
3.4415,0.00037229,0
3.442,0.00039428,0
3.4425,0.00033687,0
3.443,0.00028182,0
3.4435,0.00026201,0
3.4441,0.00030666,0
3.4446,0.00039528,0
3.4451,0.00040267,0
3.4456,0.00027225,0
3.4461,9.836e-05,0
3.4467,5.7069e-06,0
3.4472,6.5461e-06,0
3.4477,1.8631e-05,0
3.4482,1.0575e-05,0
3.4487,-2.182e-05,0
3.4493,-0.00011263,0
3.4498,-0.00023549,0
3.4503,-0.00030481,0
3.4508,-0.0002929,0
3.4513,-0.00023751,0
3.4518,-0.00018547,0
3.4524,-0.00016181,0
3.4529,-0.0001613,0
3.4534,-0.0001514,0
3.4539,-8.1575e-05,0
3.4544,3.9612e-05,0
3.455,0.00014888,0
3.4555,0.00018883,0
3.456,0.00016432,0
3.4565,0.00012639,0
3.457,0.00011162,0
3.4576,0.00014066,0
3.4581,0.00019789,0
3.4586,0.00024422,0
3.4591,0.00024959,0
3.4596,0.00020125,0
3.4602,9.1814e-05,0
3.4607,-8.2078e-05,0
3.4612,-0.00024221,0
3.4617,-0.00027343,0
3.4622,-0.00019068,0
3.4628,-0.00011296,0
3.4633,-0.00012085,0
3.4638,-0.00017389,0
3.4643,-0.00017272,0
3.4648,-8.1743e-05,0
3.4653,7.9393e-05,0
3.4659,0.00025496,0
3.4664,0.00037044,0
3.4669,0.00038119,0
3.4674,0.00029122,0
3.4679,0.00014871,0
3.4685,3.1891e-05,0
3.469,-1.561e-05,0
3.4695,-1.6114e-05,0
3.47,-4.5319e-06,0
3.4705,1.4267e-05,0
3.4711,3.0045e-05,0
3.4716,3.4073e-05,0
3.4721,3.4745e-05,0
3.4726,3.9109e-05,0
3.4731,3.9445e-05,0
3.4737,3.1556e-05,0
3.4742,1.6281e-05,0
3.4747,-1.0742e-05,0
3.4752,-4.5487e-05,0
3.4757,-0.00010591,0
3.4762,-0.00020696,0
3.4768,-0.00031589,0
3.4773,-0.00037044,0
3.4778,-0.00034174,0
3.4783,-0.00026403,0
3.4788,-0.00018128,0
3.4794,-9.6178e-05,0
3.4799,8.5603e-06,0
3.4804,0.00012656,0
3.4809,0.00024657,0
3.4814,0.00034157,0
3.482,0.00036507,0
3.4825,0.0002934,0
3.483,0.00017171,0
3.4835,5.6565e-05,0
3.484,-2.9038e-05,0
3.4846,-7.1336e-05,0
3.4851,-9.3996e-05,0
3.4856,-0.00011313,0
3.4861,-0.00012404,0
3.4866,-0.000118,0
3.4872,-8.9464e-05,0
3.4877,-2.5681e-05,0
3.4882,9.3324e-05,0
3.4887,0.00019118,0
3.4892,0.00016835,0
3.4897,4.6494e-05,0
3.4903,-6.714e-05,0
3.4908,-0.00011766,0
3.4913,-0.00012958,0
3.4918,-0.00014217,0
3.4923,-0.00014385,0
3.4929,-0.00012471,0
3.4934,-7.6204e-05,0
3.4939,0,0
3.4944,5.2537e-05,0
3.4949,6.3447e-05,0
3.4955,7.1168e-05,0
3.496,0.00012538,0
3.4965,0.00022005,0
3.497,0.00031321,0
3.4975,0.0003602,0
3.4981,0.00033889,0
3.4986,0.00027041,0
3.4991,0.00020125,0
3.4996,0.00015627,0
3.5001,0.00012673,0
3.5007,8.8121e-05,0
3.5012,4.0116e-05,0
3.5017,1.5106e-06,0
3.5022,-2.4674e-05,0
3.5027,-6.5293e-05,0
3.5032,-0.00010826,0
3.5038,-0.00011397,0
3.5043,-8.3589e-05,0
3.5048,-4.6494e-05,0
3.5053,-2.652e-05,0
3.5058,-2.266e-05,0
3.5064,-3.0213e-05,0
3.5069,-5.0355e-05,0
3.5074,-6.6972e-05,0
3.5079,-5.6733e-05,0
3.5084,-2.6352e-05,0
3.509,-1.6785e-06,0
3.5095,2.8367e-05,0
3.51,0.00013411,0
3.5105,0.00025899,0
3.511,0.00027208,0
3.5116,0.00015425,0
3.5121,-2.8534e-06,0
3.5126,-0.00010961,0
3.5131,-0.00015912,0
3.5136,-0.00017993,0
3.5142,-0.00017322,0
3.5147,-0.00013814,0
3.5152,-8.51e-05,0
3.5157,-4.5991e-05,0
3.5162,-7.2007e-05,0
3.5168,-0.00014888,0
3.5173,-0.00020948,0
3.5178,-0.00019638,0
3.5183,-0.00011666,0
3.5188,-2.8199e-05,0
3.5193,1.9135e-05,0
3.5199,3.9612e-05,0
3.5204,8.4428e-05,0
3.5209,0.00016902,0
3.5214,0.00026487,0
3.5219,0.0003127,0
3.5225,0.00028685,0
3.523,0.00023784,0
3.5235,0.00020914,0
3.524,0.00018379,0
3.5245,0.00014049,0
3.5251,9.0471e-05,0
3.5256,4.3473e-05,0
3.5261,5.539e-06,0
3.5266,-1.6449e-05,0
3.5271,-1.6617e-05,0
3.5277,-2.6856e-06,0
3.5282,3.6927e-06,0
3.5287,0,0
3.5292,-1.5106e-06,0
3.5297,-1.4267e-05,0
3.5303,-3.508e-05,0
3.5308,-3.5752e-05,0
3.5313,-2.6017e-05,0
3.5318,-1.7624e-05,0
3.5323,-3.5416e-05,0
3.5328,-7.9896e-05,0
3.5334,-0.00011649,0
3.5339,-0.00011514,0
3.5344,-7.5196e-05,0
3.5349,-1.2253e-05,0
3.5354,6.5965e-05,0
3.536,0.00014351,0
3.5365,0.00019521,0
3.537,0.00022005,0
3.5375,0.00024187,0
3.538,0.00025144,0
3.5386,0.00021736,0
3.5391,0.00012119,0
3.5396,-6.3783e-06,0
3.5401,-0.00011313,0
3.5406,-0.00016097,0
3.5412,-0.0001613,0
3.5417,-0.00014334,0
3.5422,-0.00013327,0
3.5427,-0.00012589,0
3.5432,-9.3156e-05,0
3.5438,-2.9877e-05,0
3.5443,4.2802e-05,0
3.5448,9.7185e-05,0
3.5453,0.00016634,0
3.5458,0.00023012,0
3.5463,0.00020461,0
3.5469,9.4835e-05,0
3.5474,8.3925e-07,0
3.5479,-1.4099e-05,0
3.5484,6.3783e-06,0
3.5489,3.1891e-06,0
3.5495,-3.8605e-06,0
3.55,2.7192e-05,0
3.5505,6.2104e-05,0
3.551,5.8244e-05,0
3.5515,3.2059e-05,0
3.5521,1.2757e-05,0
3.5526,5.2033e-06,0
3.5531,-2.182e-06,0
3.5536,-1.4435e-05,0
3.5541,-2.266e-05,0
3.5547,-2.3163e-05,0
3.5552,-2.4506e-05,0
3.5557,-3.3738e-05,0
3.5562,-4.8508e-05,0
3.5567,-6.5797e-05,0
3.5572,-0.00010658,0
3.5578,-0.0001749,0
3.5583,-0.0002135,0
3.5588,-0.00018329,0
3.5593,-9.8527e-05,0
3.5598,-1.4603e-05,0
3.5604,2.7359e-05,0
3.5609,3.2395e-05,0
3.5614,2.6688e-05,0
3.5619,3.4745e-05,0
3.5624,6.8818e-05,0
3.563,0.00011867,0
3.5635,0.00014536,0
3.564,0.00012136,0
3.5645,8.0735e-05,0
3.565,6.3615e-05,0
3.5656,6.949e-05,0
3.5661,7.7043e-05,0
3.5666,7.0665e-05,0
3.5671,5.1362e-05,0
3.5676,2.5849e-05,0
3.5682,2.8534e-06,0
3.5687,-1.5274e-05,0
3.5692,-3.9612e-05,0
3.5697,-9.4835e-05,0
3.5702,-0.00015308,0
3.5707,-0.00017658,0
3.5713,-0.00014771,0
3.5718,-8.4092e-05,0
3.5723,-2.5681e-05,0
3.5728,2.7695e-05,0
3.5733,9.5842e-05,0
3.5739,0.00016567,0
3.5744,0.00020763,0
3.5749,0.00022374,0
3.5754,0.00023046,0
3.5759,0.00022811,0
3.5765,0.00019487,0
3.577,0.00013227,0
3.5775,7.5868e-05,0
3.578,4.7501e-05,0
3.5785,3.7766e-05,0
3.5791,3.7263e-05,0
3.5796,4.0787e-05,0
3.5801,4.7333e-05,0
3.5806,5.6901e-05,0
3.5811,6.2943e-05,0
3.5817,5.3544e-05,0
3.5822,3.592e-05,0
3.5827,2.5849e-05,0
3.5832,1.6449e-05,0
3.5837,-1.6785e-07,0
3.5842,-2.3835e-05,0
3.5848,-2.501e-05,0
3.5853,3.2395e-05,0
3.5858,7.7714e-05,0
3.5863,3.1388e-05,0
3.5868,-7.8721e-05,0
3.5874,-0.00016197,0
3.5879,-0.00018547,0
3.5884,-0.00018329,0
3.5889,-0.00017775,0
3.5894,-0.00015828,0
3.59,-0.00013059,0
3.5905,-9.6681e-05,0
3.591,-6.5797e-05,0
3.5915,-3.743e-05,0
3.592,8.3925e-06,0
3.5926,4.5151e-05,0
3.5931,5.8915e-05,0
3.5936,8.0064e-05,0
3.5941,0.00012337,0
3.5946,0.00016634,0
3.5952,0.00017037,0
3.5957,0.00014083,0
3.5962,0.00011766,0
3.5967,0.000118,0
3.5972,0.00012605,0
3.5978,0.0001086,0
3.5983,3.9445e-05,0
3.5988,-4.0787e-05,0
3.5993,-6.2272e-05,0
3.5998,-2.7863e-05,0
3.6003,2.5849e-05,0
3.6009,5.623e-05,0
3.6014,2.5345e-05,0
3.6019,-3.743e-05,0
3.6024,-6.1936e-05,0
3.6029,-2.2156e-05,0
3.6035,5.7572e-05,0
3.604,0.00012807,0
3.6045,0.00014788,0
3.605,0.00012723,0
3.6055,0.00011263,0
3.6061,0.00012337,0
3.6066,0.00014049,0
3.6071,0.00014804,0
3.6076,0.0001368,0
3.6081,9.0974e-05,0
3.6087,2.2324e-05,0
3.6092,-2.7359e-05,0
3.6097,-3.7934e-05,0
3.6102,-2.9038e-05,0
3.6107,-2.3835e-05,0
3.6113,-2.2828e-05,0
3.6118,-1.1582e-05,0
3.6123,1.0575e-05,0
3.6128,3.1891e-05,0
3.6133,5.3208e-05,0
3.6138,6.8986e-05,0
3.6144,6.8315e-05,0
3.6149,4.4144e-05,0
3.6154,-6.5461e-06,0
3.6159,-7.8553e-05,0
3.6164,-0.00014032,0
3.617,-0.00016432,0
3.6175,-0.00016768,0
3.618,-0.0001942,0
3.6185,-0.00023398,0
3.619,-0.00023952,0
3.6196,-0.00016852,0
3.6201,-4.6326e-05,0
3.6206,3.3906e-05,0
3.6211,1.8631e-05,0
3.6216,-5.5222e-05,0
3.6222,-8.3253e-05,0
3.6227,-1.8296e-05,0
3.6232,9.836e-05,0
3.6237,0.00021468,0
3.6242,0.00028182,0
3.6248,0.00026,0
3.6253,0.00017137,0
3.6258,8.5771e-05,0
3.6263,4.5151e-05,0
3.6268,3.8773e-05,0
3.6273,3.8437e-05,0
3.6279,2.4842e-05,0
3.6284,-2.0142e-06,0
3.6289,-2.9709e-05,0
3.6294,-4.3473e-05,0
3.6299,-5.0523e-05,0
3.6305,-7.1336e-05,0
3.631,-0.00010037,0
3.6315,-0.00011968,0
3.632,-0.00011649,0
3.6325,-9.131e-05,0
3.6331,-5.3208e-05,0
3.6336,-9.5674e-06,0
3.6341,4.7166e-05,0
3.6346,0.0001368,0
3.6351,0.00023818,0
3.6357,0.00028887,0
3.6362,0.00025597,0
3.6367,0.0001519,0
3.6372,1.6281e-05,0
3.6377,-8.5771e-05,0
3.6383,-0.00012908,0
3.6388,-0.00012723,0
3.6393,-0.00010457,0
3.6398,-7.7379e-05,0
3.6403,-3.1388e-05,0
3.6408,4.2634e-05,0
3.6414,0.00013579,0
3.6419,0.00021971,0
3.6424,0.0002506,0
3.6429,0.00022441,0
3.6434,0.00018648,0
3.644,0.0001556,0
3.6445,0.00012287,0
3.645,9.1646e-05,0
3.6455,7.7714e-05,0
3.646,7.7714e-05,0
3.6466,6.8986e-05,0
3.6471,3.743e-05,0
3.6476,-9.5674e-06,0
3.6481,-4.7501e-05,0
3.6486,-6.63e-05,0
3.6492,-8.896e-05,0
3.6497,-0.00013378,0
3.6502,-0.00017255,0
3.6507,-0.00018195,0
3.6512,-0.00016617,0
3.6517,-0.00014049,0
3.6523,-0.00010944,0
3.6528,-7.4357e-05,0
3.6533,-2.7863e-05,0
3.6538,3.6255e-05,0
3.6543,0.00013344,0
3.6549,0.00025631,0
3.6554,0.00034762,0
3.6559,0.00037682,0
3.6564,0.00036574,0
3.6569,0.00028484,0
3.6575,0.00012203,0
3.658,-6.1769e-05,0
3.6585,-0.00019084,0
3.659,-0.00023146,0
3.6595,-0.00022123,0
3.6601,-0.00020964,0
3.6606,-0.00018849,0
3.6611,-0.00014519,0
3.6616,-7.5364e-05,0
3.6621,-9.9031e-06,0
3.6627,2.4002e-05,0
3.6632,3.8102e-05,0
3.6637,5.1865e-05,0
3.6642,6.2104e-05,0
3.6647,5.9922e-05,0
3.6652,4.6998e-05,0
3.6658,2.0645e-05,0
3.6663,-4.8508e-05,0
3.6668,-0.00013579,0
3.6673,-0.00016684,0
3.6678,-0.0001284,0
3.6684,-5.2537e-05,0
3.6689,2.501e-05,0
3.6694,6.3615e-05,0
3.6699,5.3376e-05,0
3.6704,2.8199e-05,0
3.671,1.5106e-05,0
3.6715,1.6617e-05,0
3.672,2.5345e-05,0
3.6725,2.266e-05,0
3.673,2.5177e-06,0
3.6736,-1.4939e-05,0
3.6741,-1.326e-05,0
3.6746,-1.1749e-06,0
3.6751,2.3835e-05,0
3.6756,7.4525e-05,0
3.6762,0.00013445,0
3.6767,0.00016265,0
3.6772,0.00013243,0
3.6777,7.3686e-05,0
3.6782,2.7863e-05,0
3.6787,-2.3163e-05,0
3.6793,-0.00011632,0
3.6798,-0.00018648,0
3.6803,-0.00017725,0
3.6808,-0.00012203,0
3.6813,-6.0258e-05,0
3.6819,-4.1962e-06,0
3.6824,5.9922e-05,0
3.6829,0.00013864,0
3.6834,0.00020394,0
3.6839,0.00023919,0
3.6845,0.00024741,0
3.685,0.0002313,0
3.6855,0.00018077,0
3.686,0.0001091,0
3.6865,5.3376e-05,0
3.6871,3.2395e-05,0
3.6876,3.6759e-05,0
3.6881,3.6927e-05,0
3.6886,1.6617e-05,0
3.6891,-7.3854e-06,0
3.6897,-2.0142e-05,0
3.6902,-2.1317e-05,0
3.6907,-1.561e-05,0
3.6912,-1.1582e-05,0
3.6917,-1.4939e-05,0
3.6923,-2.2995e-05,0
3.6928,-3.1052e-05,0
3.6933,-3.827e-05,0
3.6938,-5.2369e-05,0
3.6943,-6.7979e-05,0
3.6948,-5.6565e-05,0
3.6954,-2.0645e-05,0
3.6959,9.2317e-06,0
3.6964,2.9709e-05,0
3.6969,4.3305e-05,0
3.6974,6.009e-05,0
3.698,8.6778e-05,0
3.6985,0.00011867,0
3.699,0.0001462,0
3.6995,0.00016416,0
3.7,0.00017591,0
3.7006,0.00018044,0
3.7011,0.00017775,0
3.7016,0.00015274,0
3.7021,8.2414e-05,0
3.7026,-7.2175e-06,0
3.7032,-5.9251e-05,0
3.7037,-5.9083e-05,0
3.7042,-4.0452e-05,0
3.7047,-2.8702e-05,0
3.7052,-1.2924e-05,0
3.7058,-5.0355e-07,0
3.7063,-9.9031e-06,0
3.7068,-3.0045e-05,0
3.7073,-2.5345e-05,0
3.7078,-8.2246e-06,0
3.7083,-2.6017e-05,0
3.7089,-7.805e-05,0
3.7094,-0.0001274,0
3.7099,-0.00016197,0
3.7104,-0.00016382,0
3.7109,-0.00012773,0
3.7115,-6.949e-05,0
3.712,-1.561e-05,0
3.7125,2.1317e-05,0
3.713,4.448e-05,0
3.7135,5.9586e-05,0
3.7141,7.2847e-05,0
3.7146,8.8792e-05,0
3.7151,0.00011196,0
3.7156,0.00012857,0
3.7161,0.00012471,0
3.7167,0.00010994,0
3.7172,9.3828e-05,0
3.7177,7.6036e-05,0
3.7182,5.4887e-05,0
3.7187,3.5416e-05,0
3.7193,2.2995e-05,0
3.7198,9.9031e-06,0
3.7203,-4.8676e-06,0
3.7208,-1.5442e-05,0
3.7213,-2.2828e-05,0
3.7218,-2.7359e-05,0
3.7224,-2.2324e-05,0
3.7229,-2.8534e-06,0
3.7234,2.1317e-05,0
3.7239,3.7095e-05,0
3.7244,4.0787e-05,0
3.725,3.4577e-05,0
3.7255,2.4338e-05,0
3.726,2.2492e-05,0
3.7265,3.978e-05,0
3.727,6.4958e-05,0
3.7276,7.4022e-05,0
3.7281,5.5222e-05,0
3.7286,2.1317e-05,0
3.7291,-1.3764e-05,0
3.7296,-3.8773e-05,0
3.7302,-4.3977e-05,0
3.7307,-2.8199e-05,0
3.7312,6.5461e-06,0
3.7317,4.8005e-05,0
3.7322,6.6636e-05,0
3.7327,5.1865e-05,0
3.7333,2.3835e-05,0
3.7338,-4.8676e-06,0
3.7343,-2.7024e-05,0
3.7348,-3.8102e-05,0
3.7353,-3.6088e-05,0
3.7359,-2.501e-05,0
3.7364,-1.1078e-05,0
3.7369,1.5106e-06,0
3.7374,1.8296e-05,0
3.7379,4.3641e-05,0
3.7385,7.0832e-05,0
3.739,8.5771e-05,0
3.7395,8.1071e-05,0
3.74,6.7979e-05,0
3.7405,5.4047e-05,0
3.7411,3.7095e-05,0
3.7416,1.7792e-05,0
3.7421,-3.5248e-06,0
3.7426,-1.5946e-05,0
3.7431,-1.0575e-05,0
3.7437,3.8605e-06,0
3.7442,8.896e-06,0
3.7447,2.5177e-06,0
3.7452,-8.5603e-06,0
3.7457,-1.8296e-05,0
3.7462,-1.6281e-05,0
3.7468,3.0213e-06,0
3.7473,3.3402e-05,0
3.7478,6.1936e-05,0
3.7483,7.9561e-05,0
3.7488,8.4932e-05,0
3.7494,8.275e-05,0
3.7499,7.6036e-05,0
3.7504,6.5293e-05,0
3.7509,4.9851e-05,0
3.7514,2.4674e-05,0
3.752,-9.3996e-06,0
3.7525,-3.6759e-05,0
3.753,-4.6662e-05,0
3.7535,-4.2969e-05,0
3.754,-2.9709e-05,0
3.7546,-1.5946e-05,0
3.7551,-8.2246e-06,0
3.7556,9.2317e-06,0
3.7561,4.0955e-05,0
3.7566,5.4215e-05,0
3.7572,1.9806e-05,0
3.7577,-5.2537e-05,0
3.7582,-0.00010927,0
3.7587,-0.00011296,0
3.7592,-8.6946e-05,0
3.7597,-7.805e-05,0
3.7603,-9.1478e-05,0
3.7608,-7.2343e-05,0
3.7613,-4.1962e-06,0
3.7618,7.3518e-05,0
3.7623,0.00013814,0
3.7629,0.00018782,0
3.7634,0.00020662,0
3.7639,0.00017893,0
3.7644,0.00011162,0
3.7649,4.2466e-05,0
3.7655,1.326e-05,0
3.766,1.796e-05,0
3.7665,-5.539e-06,0
3.767,-4.3809e-05,0
3.7675,-5.2873e-05,0
3.7681,-3.4073e-05,0
3.7686,-1.091e-05,0
3.7691,1.9471e-05,0
3.7696,7.805e-05,0
3.7701,0.00015291,0
3.7707,0.00019521,0
3.7712,0.00017372,0
3.7717,0.00011397,0
3.7722,4.3641e-05,0
3.7727,-4.3137e-05,0
3.7732,-0.00012689,0
3.7738,-0.00017154,0
3.7743,-0.00017372,0
3.7748,-0.0001556,0
3.7753,-0.00013109,0
3.7758,-8.51e-05,0
3.7764,5.2033e-06,0
3.7769,0.00013982,0
3.7774,0.00026806,0
3.7779,0.00032412,0
3.7784,0.00030431,0
3.779,0.00023314,0
3.7795,0.00013814,0
3.78,5.3544e-05,0
3.7805,-1.6785e-06,0
3.781,-3.4073e-05,0
3.7816,-5.2369e-05,0
3.7821,-5.5222e-05,0
3.7826,-3.8941e-05,0
3.7831,-2.031e-05,0
3.7836,-5.8747e-06,0
3.7842,6.5461e-06,0
3.7847,1.9135e-05,0
3.7852,3.8437e-05,0
3.7857,5.0858e-05,0
3.7862,3.8605e-05,0
3.7868,-4.1962e-06,0
3.7873,-7.4357e-05,0
3.7878,-0.00014922,0
3.7883,-0.0001937,0
3.7888,-0.00019873,0
3.7893,-0.0001796,0
3.7899,-0.0001519,0
3.7904,-0.00011179,0
3.7909,-5.1698e-05,0
3.7914,2.5681e-05,0
3.7919,0.00010726,0
3.7925,0.00016886,0
3.793,0.00018379,0
3.7935,0.00015862,0
3.794,0.000118,0
3.7945,8.3757e-05,0
3.7951,6.5965e-05,0
3.7956,5.9251e-05,0
3.7961,5.7908e-05,0
3.7966,7.2007e-05,0
3.7971,9.8192e-05,0
3.7977,0.00011095,0
3.7982,9.4499e-05,0
3.7987,4.9683e-05,0
3.7992,-1.2421e-05,0
3.7997,-6.0594e-05,0
3.8003,-7.5029e-05,0
3.8008,-5.9251e-05,0
3.8013,-2.2828e-05,0
3.8018,1.2924e-05,0
3.8023,2.1317e-05,0
3.8028,8.896e-06,0
3.8034,1.0071e-06,0
3.8039,-3.1891e-06,0
3.8044,-1.2589e-05,0
3.8049,-2.2995e-05,0
3.8054,-3.1556e-05,0
3.806,-4.3809e-05,0
3.8065,-6.1601e-05,0
3.807,-7.2007e-05,0
3.8075,-6.7308e-05,0
3.808,-5.2201e-05,0
3.8086,-3.122e-05,0
3.8091,-8.3925e-07,0
3.8096,3.4073e-05,0
3.8101,6.0594e-05,0
3.8106,6.7475e-05,0
3.8112,6.4286e-05,0
3.8117,6.9993e-05,0
3.8122,7.8721e-05,0
3.8127,7.3686e-05,0
3.8132,5.5894e-05,0
3.8138,3.827e-05,0
3.8143,2.9206e-05,0
3.8148,2.887e-05,0
3.8153,2.9374e-05,0
3.8158,3.592e-05,0
3.8163,5.7404e-05,0
3.8169,8.1407e-05,0
3.8174,8.7953e-05,0
3.8179,7.7043e-05,0
3.8184,6.1601e-05,0
3.8189,4.8173e-05,0
3.8195,3.4409e-05,0
3.82,2.182e-05,0
3.8205,1.326e-05,0
3.821,9.2317e-06,0
3.8215,8.2246e-06,0
3.8221,7.7211e-06,0
3.8226,8.7282e-06,0
3.8231,1.8631e-05,0
3.8236,2.3331e-05,0
3.8241,1.2589e-05,0
3.8247,-1.2589e-05,0
3.8252,-4.6662e-05,0
3.8257,-7.8386e-05,0
3.8262,-9.0303e-05,0
3.8267,-7.9393e-05,0
3.8272,-5.6733e-05,0
3.8278,-3.9109e-05,0
3.8283,-3.4745e-05,0
3.8288,-3.357e-05,0
3.8293,-2.031e-05,0
3.8298,1.1749e-05,0
3.8304,5.1865e-05,0
3.8309,7.9057e-05,0
3.8314,8.3589e-05,0
3.8319,7.57e-05,0
3.8324,7.2343e-05,0
3.833,7.0329e-05,0
3.8335,8.6946e-05,0
3.834,0.00014166,0
3.8345,0.00019034,0
3.835,0.0001744,0
3.8356,8.4932e-05,0
3.8361,-5.1698e-05,0
3.8366,-0.00015157,0
3.8371,-0.00015442,0
3.8376,-8.4932e-05,0
3.8382,2.182e-06,0
3.8387,7.8386e-05,0
3.8392,0.00013512,0
3.8397,0.00016365,0
3.8402,0.00017708,0
3.8407,0.00018698,0
3.8413,0.00018849,0
3.8418,0.00017372,0
3.8423,0.00012572,0
3.8428,3.743e-05,0
3.8433,-4.3305e-05,0
3.8439,-6.9657e-05,0
3.8444,-4.5487e-05,0
3.8449,1.1749e-06,0
3.8454,3.978e-05,0
3.8459,6.1097e-05,0
3.8465,6.3615e-05,0
3.847,5.0858e-05,0
3.8475,3.9277e-05,0
3.848,4.1794e-05,0
3.8485,4.3137e-05,0
3.8491,1.4603e-05,0
3.8496,-3.1891e-05,0
3.8501,-6.5461e-05,0
3.8506,-8.0735e-05,0
3.8511,-8.8792e-05,0
3.8517,-8.9464e-05,0
3.8522,-8.0064e-05,0
3.8527,-6.3279e-05,0
3.8532,-4.8844e-05,0
3.8537,-4.7837e-05,0
3.8542,-5.7572e-05,0
3.8548,-7.2007e-05,0
3.8553,-9.0974e-05,0
3.8558,-0.00010037,0
3.8563,-8.2414e-05,0
3.8568,-5.0187e-05,0
3.8574,-3.8773e-05,0
3.8579,-5.1865e-05,0
3.8584,-6.3615e-05,0
3.8589,-3.9109e-05,0
3.8594,1.3596e-05,0
3.86,3.9612e-05,0
3.8605,1.2253e-05,0
3.861,-3.5416e-05,0
3.8615,-6.4118e-05,0
3.862,-6.244e-05,0
3.8626,-2.7024e-05,0
3.8631,3.7095e-05,0
3.8636,9.7185e-05,0
3.8641,0.00013344,0
3.8646,0.00015828,0
3.8652,0.00017641,0
3.8657,0.00019722,0
3.8662,0.00021199,0
3.8667,0.00019252,0
3.8672,0.00014385,0
3.8678,9.5171e-05,0
3.8683,5.7572e-05,0
3.8688,2.6688e-05,0
3.8693,2.5177e-06,0
3.8698,-1.0575e-05,0
3.8703,-9.7353e-06,0
3.8709,1.0239e-05,0
3.8714,5.388e-05,0
3.8719,0.00011179,0
3.8724,0.00015023,0
3.8729,0.00014553,0
3.8735,0.00010105,0
3.874,5.5726e-05,0
3.8745,4.7166e-05,0
3.875,6.7475e-05,0
3.8755,8.0232e-05,0
3.8761,6.8986e-05,0
3.8766,3.9948e-05,0
3.8771,1.1749e-06,0
3.8776,-3.2395e-05,0
3.8781,-4.2466e-05,0
3.8787,-3.4409e-05,0
3.8792,-2.266e-05,0
3.8797,-1.1917e-05,0
3.8802,-8.3925e-07,0
3.8807,7.7211e-06,0
3.8813,9.5674e-06,0
3.8818,4.3641e-06,0
3.8823,-5.539e-06,0
3.8828,-2.6017e-05,0
3.8833,-6.0258e-05,0
3.8838,-0.00010608,0
3.8844,-0.00016919,0
3.8849,-0.00026923,0
3.8854,-0.00035567,0
3.8859,-0.00036977,0
3.8864,-0.00032546,0
3.887,-0.00024942,0
3.8875,-0.00015996,0
3.888,-7.3686e-05,0
3.8885,-3.1891e-06,0
3.889,4.448e-05,0
3.8896,8.8121e-05,0
3.8901,0.00015828,0
3.8906,0.00025681,0
3.8911,0.00032882,0
3.8916,0.00033016,0
3.8922,0.00028988,0
3.8927,0.00025161,0
3.8932,0.00021451,0
3.8937,0.00016768,0
3.8942,0.00012471,0
3.8948,0.0001086,0
3.8953,0.00012001,0
3.8958,0.00013596,0
3.8963,0.00013143,0
3.8968,0.00010776,0
3.8973,8.3085e-05,0
3.8979,6.6972e-05,0
3.8984,4.9851e-05,0
3.8989,2.8031e-05,0
3.8994,7.7211e-06,0
3.8999,-6.8818e-06,0
3.9005,3.5248e-06,0
3.901,5.7404e-05,0
3.9015,0.0001232,0
3.902,0.00015291,0
3.9025,0.0001326,0
3.9031,8.2246e-05,0
3.9036,2.8702e-05,0
3.9041,-1.6281e-05,0
3.9046,-4.8508e-05,0
3.9051,-6.1936e-05,0
3.9057,-6.2943e-05,0
3.9062,-6.3951e-05,0
3.9067,-7.4525e-05,0
3.9072,-9.4163e-05,0
3.9077,-0.00010289,0
3.9082,-9.0806e-05,0
3.9088,-7.2175e-05,0
3.9093,-6.5965e-05,0
3.9098,-7.8386e-05,0
3.9103,-9.5842e-05,0
3.9108,-0.00010457,0
3.9114,-0.0001039,0
3.9119,-9.3492e-05,0
3.9124,-7.9393e-05,0
3.9129,-6.9322e-05,0
3.9134,-6.4286e-05,0
3.914,-6.4622e-05,0
3.9145,-7.8889e-05,0
3.915,-0.00010793,0
3.9155,-0.00013092,0
3.916,-0.00013193,0
3.9166,-0.000118,0
3.9171,-9.9199e-05,0
3.9176,-7.5532e-05,0
3.9181,-4.2802e-05,0
3.9186,1.0071e-05,0
3.9192,8.5771e-05,0
3.9197,0.00016634,0
3.9202,0.00024204,0
3.9207,0.00030951,0
3.9212,0.00034459,0
3.9217,0.00032714,0
3.9223,0.00026973,0
3.9228,0.00020327,0
3.9233,0.00014939,0
3.9238,0.00011112,0
3.9243,8.4932e-05,0
3.9249,6.5965e-05,0
3.9254,5.0858e-05,0
3.9259,3.0045e-05,0
3.9264,-1.0575e-05,0
3.9269,-5.1194e-05,0
3.9275,-6.7979e-05,0
3.928,-6.9657e-05,0
3.9285,-7.335e-05,0
3.929,-6.8147e-05,0
3.9295,-3.9109e-05,0
3.9301,8.2246e-06,0
3.9306,5.9419e-05,0
3.9311,9.9199e-05,0
3.9316,0.00011347,0
3.9321,9.5171e-05,0
3.9327,4.8844e-05,0
3.9332,-5.539e-06,0
3.9337,-3.9277e-05,0
3.9342,-3.3066e-05,0
3.9347,-1.6785e-07,0
3.9352,2.1317e-05,0
3.9358,1.5442e-05,0
3.9363,5.8747e-06,0
3.9368,8.5603e-06,0
3.9373,1.8296e-05,0
3.9378,2.8702e-05,0
3.9384,3.4241e-05,0
3.9389,3.1724e-05,0
3.9394,2.3499e-05,0
3.9399,1.1582e-05,0
3.9404,-1.0575e-05,0
3.941,-5.6565e-05,0
3.9415,-9.4835e-05,0
3.942,-9.8863e-05,0
3.9425,-8.275e-05,0
3.943,-6.3951e-05,0
3.9436,-4.7669e-05,0
3.9441,-3.2731e-05,0
3.9446,-2.0981e-05,0
3.9451,-1.091e-05,0
3.9456,5.2033e-06,0
3.9462,2.9374e-05,0
3.9467,5.4215e-05,0
3.9472,6.1265e-05,0
3.9477,4.8676e-05,0
3.9482,3.7263e-05,0
3.9487,3.3402e-05,0
3.9493,2.8031e-05,0
3.9498,1.796e-05,0
3.9503,8.5603e-06,0
3.9508,1.7288e-05,0
3.9513,4.7166e-05,0
3.9519,6.0258e-05,0
3.9524,4.8844e-05,0
3.9529,3.6759e-05,0
3.9534,4.1291e-05,0
3.9539,5.4887e-05,0
3.9545,6.4286e-05,0
3.955,7.2511e-05,0
3.9555,6.0594e-05,0
3.956,1.8967e-05,0
3.9565,-1.9806e-05,0
3.9571,-2.4842e-05,0
3.9576,-9.3996e-06,0
3.9581,3.357e-07,0
3.9586,7.2175e-06,0
3.9591,2.7527e-05,0
3.9597,5.0858e-05,0
3.9602,6.0761e-05,0
3.9607,6.2104e-05,0
3.9612,6.6804e-05,0
3.9617,7.5029e-05,0
3.9623,7.5532e-05,0
3.9628,5.7908e-05,0
3.9633,2.3667e-05,0
3.9638,-9.2317e-06,0
3.9643,-1.091e-05,0
3.9648,8.0568e-06,0
3.9654,-8.3925e-07,0
3.9659,-4.0452e-05,0
3.9664,-6.7475e-05,0
3.9669,-5.5894e-05,0
3.9674,-2.7695e-05,0
3.968,-8.2246e-06,0
3.9685,-5.0355e-07,0
3.969,3.6927e-06,0
3.9695,1.091e-05,0
3.97,1.326e-05,0
3.9706,5.2033e-06,0
3.9711,1.2253e-05,0
3.9716,3.508e-05,0
3.9721,4.1794e-05,0
3.9726,2.9877e-05,0
3.9732,2.2995e-05,0
3.9737,4.213e-05,0
3.9742,7.9057e-05,0
3.9747,0.00010591,0
3.9752,0.00011531,0
3.9758,0.00012068,0
3.9763,0.0001321,0
3.9768,0.00013915,0
3.9773,0.0001274,0
3.9778,0.00010356,0
3.9783,7.8386e-05,0
3.9789,5.4215e-05,0
3.9794,4.3809e-05,0
3.9799,4.2802e-05,0
3.9804,3.3738e-05,0
3.9809,4.8676e-06,0
3.9815,-3.1052e-05,0
3.982,-5.8412e-05,0
3.9825,-7.2847e-05,0
3.983,-7.57e-05,0
3.9835,-6.5293e-05,0
3.9841,-4.062e-05,0
3.9846,-9.3996e-06,0
3.9851,1.0407e-05,0
3.9856,1.1749e-05,0
3.9861,1.5946e-05,0
3.9867,3.2731e-05,0
3.9872,4.5487e-05,0
3.9877,3.0549e-05,0
3.9882,-1.8296e-05,0
3.9887,-8.426e-05,0
3.9893,-0.00013428,0
3.9898,-0.0001472,0
3.9903,-0.00012924,0
3.9908,-9.8024e-05,0
3.9913,-6.6804e-05,0
3.9918,-4.1794e-05,0
3.9924,-1.6785e-05,0
3.9929,1.9303e-05,0
3.9934,7.1e-05,0
3.9939,0.00013143,0
3.9944,0.00017893,0
3.995,0.00019286,0
3.9955,0.00017977,0
3.996,0.00015543,0
3.9965,0.00012152,0
3.997,8.4764e-05,0
3.9976,5.6397e-05,0
3.9981,3.8437e-05,0
3.9986,2.6184e-05,0
3.9991,1.4771e-05,0
3.9996,2.182e-06,0
4.0002,-1.4267e-05,0
4.0007,-3.743e-05,0
4.0012,-6.4622e-05,0
4.0017,-6.9993e-05,0
4.0022,-4.1794e-05,0
4.0027,-5.8747e-06,0
4.0033,1.0407e-05,0
4.0038,3.8605e-06,0
4.0043,-4.6998e-06,0
4.0048,5.0355e-06,0
4.0053,3.1724e-05,0
4.0059,5.7237e-05,0
4.0064,6.1601e-05,0
4.0069,3.6088e-05,0
4.0074,-3.0045e-05,0
4.0079,-0.0001227,0
4.0085,-0.00019487,0
4.009,-0.00021183,0
4.0095,-0.0001848,0
4.01,-0.00016684,0
4.0105,-0.0001655,0
4.0111,-0.00014435,0
4.0116,-8.1407e-05,0
4.0121,1.8631e-05,0
4.0126,0.00013613,0
4.0131,0.00023784,0
4.0137,0.00030045,0
4.0142,0.00031891,0
4.0147,0.0003023,0
4.0152,0.00027074,0
4.0157,0.00023012,0
4.0163,0.00016768,0
4.0168,9.6513e-05,0
4.0173,5.0858e-05,0
4.0178,5.2705e-05,0
4.0183,0.00010021,0
4.0188,0.00015157,0
4.0194,0.00015862,0
4.0199,0.00011934,0
4.0204,5.7404e-05,0
4.0209,-5.8747e-06,0
4.0214,-5.5222e-05,0
4.022,-8.5435e-05,0
4.0225,-9.601e-05,0
4.023,-9.6849e-05,0
4.0235,-8.7785e-05,0
4.024,-5.4047e-05,0
4.0246,-3.1891e-06,0
4.0251,3.4409e-05,0
4.0256,3.9109e-05,0
4.0261,2.1149e-05,0
4.0266,9.2317e-06,0
4.0272,1.7121e-05,0
4.0277,3.0381e-05,0
4.0282,3.0716e-05,0
4.0287,1.5946e-05,0
4.0292,-2.8534e-06,0
4.0297,-1.5106e-05,0
4.0303,-1.9638e-05,0
4.0308,-1.7121e-05,0
4.0313,-9.9031e-06,0
4.0318,-6.0426e-06,0
4.0323,-2.2324e-05,0
4.0329,-5.4383e-05,0
4.0334,-7.335e-05,0
4.0339,-6.5797e-05,0
4.0344,-4.0787e-05,0
4.0349,-1.5442e-05,0
4.0355,3.0213e-06,0
4.036,7.2175e-06,0
4.0365,-5.8747e-06,0
4.037,-3.2059e-05,0
4.0375,-5.6565e-05,0
4.0381,-5.9251e-05,0
4.0386,-3.9948e-05,0
4.0391,-1.7792e-05,0
4.0396,-6.5461e-06,0
4.0401,7.5532e-06,0
4.0407,2.4002e-05,0
4.0412,7.2175e-06,0
4.0417,-5.8747e-05,0
4.0422,-0.00012068,0
4.0427,-0.00013411,0
4.0432,-0.00011716,0
4.0438,-9.7856e-05,0
4.0443,-7.3014e-05,0
4.0448,-2.3331e-05,0
4.0453,5.2537e-05,0
4.0458,0.00013848,0
4.0464,0.00022274,0
4.0469,0.00031237,0
4.0474,0.00038555,0
4.0479,0.00039327,0
4.0484,0.00032428,0
4.049,0.00021804,0
4.0495,0.00012337,0
4.05,6.0929e-05,0
4.0505,2.266e-05,0
4.051,-4.8676e-06,0
4.0516,-2.3835e-05,0
4.0521,-3.0045e-05,0
4.0526,-1.6785e-05,0
4.0531,1.5274e-05,0
4.0536,4.6662e-05,0
4.0542,5.8244e-05,0
4.0547,4.9516e-05,0
4.0552,2.1317e-05,0
4.0557,-2.8534e-05,0
4.0562,-7.7882e-05,0
4.0568,-0.00010155,0
4.0573,-0.00010071,0
4.0578,-9.5003e-05,0
4.0583,-9.7185e-05,0
4.0588,-0.00010256,0
4.0593,-9.8527e-05,0
4.0599,-8.5435e-05,0
4.0604,-7.0329e-05,0
4.0609,-5.2201e-05,0
4.0614,-3.0045e-05,0
4.0619,-1.3092e-05,0
4.0625,0,0
4.063,2.417e-05,0
4.0635,5.4215e-05,0
4.064,6.5293e-05,0
4.0645,5.2201e-05,0
4.0651,3.0213e-05,0
4.0656,1.3931e-05,0
4.0661,-8.3925e-07,0
4.0666,-2.9709e-05,0
4.0671,-6.2943e-05,0
4.0677,-8.6778e-05,0
4.0682,-0.00013545,0
4.0687,-0.0001848,0
4.0692,-0.00017641,0
4.0697,-9.4499e-05,0
4.0702,3.0549e-05,0
4.0708,0.00014351,0
4.0713,0.00021334,0
4.0718,0.00023885,0
4.0723,0.00022794,0
4.0728,0.00019756,0
4.0734,0.00016197,0
4.0739,0.00011884,0
4.0744,5.4215e-05,0
4.0749,-2.8367e-05,0
4.0754,-8.6946e-05,0
4.076,-9.6849e-05,0
4.0765,-7.0161e-05,0
4.077,-2.2828e-05,0
4.0775,4.3473e-05,0
4.078,0.00012773,0
4.0786,0.00020192,0
4.0791,0.00024137,0
4.0796,0.00023516,0
4.0801,0.00019118,0
4.0806,0.00014217,0
4.0812,0.00011263,0
4.0817,9.0974e-05,0
4.0822,6.4118e-05,0
4.0827,3.7095e-05,0
4.0832,1.796e-05,0
4.0838,3.6927e-06,0
4.0843,-1.1917e-05,0
4.0848,-2.3331e-05,0
4.0853,-2.5177e-05,0
4.0858,-2.1149e-05,0
4.0863,-1.5778e-05,0
4.0869,-9.9031e-06,0
4.0874,-1.0239e-05,0
4.0879,-2.0645e-05,0
4.0884,-3.6255e-05,0
4.0889,-4.6662e-05,0
4.0895,-4.7166e-05,0
4.09,-4.6998e-05,0
4.0905,-4.9683e-05,0
4.091,-4.9851e-05,0
4.0915,-4.448e-05,0
4.0921,-3.6423e-05,0
4.0926,-4.1123e-05,0
4.0931,-5.0858e-05,0
4.0936,-4.6159e-05,0
4.0941,-2.7024e-05,0
4.0947,-7.0497e-06,0
4.0952,6.714e-07,0
4.0957,-3.357e-06,0
4.0962,4.6998e-06,0
4.0967,3.1724e-05,0
4.0972,5.539e-05,0
4.0978,6.3951e-05,0
4.0983,6.9993e-05,0
4.0988,8.2582e-05,0
4.0993,8.8457e-05,0
4.0998,7.8721e-05,0
4.1004,6.4622e-05,0
4.1009,5.4383e-05,0
4.1014,3.6088e-05,0
4.1019,-3.8605e-06,0
4.1024,-4.8508e-05,0
4.103,-7.1e-05,0
4.1035,-7.4357e-05,0
4.104,-7.6875e-05,0
4.1045,-8.2078e-05,0
4.105,-7.9561e-05,0
4.1056,-6.3279e-05,0
4.1061,-3.6927e-05,0
4.1066,7.2175e-06,0
4.1071,7.7714e-05,0
4.1076,0.00015962,0
4.1082,0.0002177,0
4.1087,0.00022676,0
4.1092,0.00019722,0
4.1097,0.00015895,0
4.1102,0.00011766,0
4.1108,7.0665e-05,0
4.1113,2.7359e-05,0
4.1118,-8.2246e-06,0
4.1123,-4.0787e-05,0
4.1128,-6.7308e-05,0
4.1133,-8.1071e-05,0
4.1139,-8.6107e-05,0
4.1144,-7.3686e-05,0
4.1149,-3.0381e-05,0
4.1154,2.6688e-05,0
4.1159,7.2343e-05,0
4.1165,9.3492e-05,0
4.117,9.6513e-05,0
4.1175,9.7185e-05,0
4.118,9.987e-05,0
4.1185,0.00010155,0
4.1191,9.0303e-05,0
4.1196,7.3014e-05,0
4.1201,6.4286e-05,0
4.1206,5.7908e-05,0
4.1211,4.4144e-05,0
4.1217,2.0813e-05,0
4.1222,-1.4267e-05,0
4.1227,-5.2201e-05,0
4.1232,-7.1336e-05,0
4.1237,-5.6565e-05,0
4.1242,-1.9638e-05,0
4.1248,1.2589e-05,0
4.1253,2.3835e-05,0
4.1258,1.6785e-07,0
4.1263,-7.3686e-05,0
4.1268,-0.00014989,0
4.1274,-0.00016265,0
4.1279,-0.00011582,0
4.1284,-5.8915e-05,0
4.1289,-2.2324e-05,0
4.1294,-3.6927e-06,0
4.13,1.1582e-05,0
4.1305,3.978e-05,0
4.131,7.8218e-05,0
4.1315,0.00010625,0
4.132,0.00010793,0
4.1326,8.4596e-05,0
4.1331,3.978e-05,0
4.1336,-2.8031e-05,0
4.1341,-8.9632e-05,0
4.1346,-0.00010843,0
4.1352,-8.5603e-05,0
4.1357,-4.0452e-05,0
4.1362,4.1962e-06,0
4.1367,2.7359e-05,0
4.1372,3.0045e-05,0
4.1377,3.6759e-05,0
4.1383,8.2078e-05,0
4.1388,0.00014955,0
4.1393,0.00018883,0
4.1398,0.00017842,0
4.1403,0.00013411,0
4.1409,7.9057e-05,0
4.1414,2.5177e-05,0
4.1419,-2.4506e-05,0
4.1424,-6.63e-05,0
4.1429,-0.00011901,0
4.1435,-0.00018379,0
4.144,-0.00022072,0
4.1445,-0.00021048,0
4.145,-0.00015459,0
4.1455,-7.1839e-05,0
4.1461,3.6927e-06,0
4.1466,5.9586e-05,0
4.1471,0.00010306,0
4.1476,0.00014519,0
4.1481,0.00019152,0
4.1487,0.00023549,0
4.1492,0.00025026,0
4.1497,0.00022928,0
4.1502,0.00019101,0
4.1507,0.00015543,0
4.1513,0.00012874,0
4.1518,0.00010188,0
4.1523,6.7643e-05,0
4.1528,3.5248e-05,0
4.1533,1.3092e-05,0
4.1538,2.3499e-06,0
4.1544,-8.3925e-06,0
4.1549,-2.5849e-05,0
4.1554,-3.5752e-05,0
4.1559,-2.5345e-05,0
4.1564,3.357e-07,0
4.157,2.4338e-05,0
4.1575,2.9374e-05,0
4.158,1.9303e-05,0
4.1585,4.1962e-06,0
4.159,-1.6953e-05,0
4.1596,-4.1123e-05,0
4.1601,-5.2873e-05,0
4.1606,-4.1123e-05,0
4.1611,-1.9135e-05,0
4.1616,-1.091e-05,0
4.1622,-2.1653e-05,0
4.1627,-3.6423e-05,0
4.1632,-3.9445e-05,0
4.1637,-3.3066e-05,0
4.1642,-2.4674e-05,0
4.1647,-1.326e-05,0
4.1653,2.182e-06,0
4.1658,1.3931e-05,0
4.1663,2.1653e-05,0
4.1668,2.7192e-05,0
4.1673,2.7695e-05,0
4.1679,1.8631e-05,0
4.1684,7.5532e-06,0
4.1689,1.1749e-06,0
4.1694,-7.8889e-06,0
4.1699,-2.3499e-05,0
4.1705,-3.6591e-05,0
4.171,-3.357e-05,0
4.1715,-1.9974e-05,0
4.172,-1.091e-05,0
4.1725,-2.0478e-05,0
4.1731,-4.7166e-05,0
4.1736,-6.5293e-05,0
4.1741,-5.2033e-05,0
4.1746,-1.9471e-05,0
4.1751,6.0426e-06,0
4.1757,2.3163e-05,0
4.1762,3.9445e-05,0
4.1767,5.8915e-05,0
4.1772,8.7953e-05,0
4.1777,0.000118,0
4.1783,0.00013243,0
4.1788,0.00013411,0
4.1793,0.00014217,0
4.1798,0.00015207,0
4.1803,0.00014653,0
4.1808,0.00012102,0
4.1814,7.6036e-05,0
4.1819,1.1917e-05,0
4.1824,-5.2369e-05,0
4.1829,-9.0471e-05,0
4.1834,-0.00010877,0
4.184,-0.00011716,0
4.1845,-9.752e-05,0
4.185,-5.2369e-05,0
4.1855,7.2175e-06,0
4.186,6.3447e-05,0
4.1866,0.00011044,0
4.1871,0.00015274,0
4.1876,0.00019638,0
4.1881,0.00023348,0
4.1886,0.00023532,0
4.1892,0.00019924,0
4.1897,0.0001425,0
4.1902,8.51e-05,0
4.1907,4.0787e-05,0
4.1912,1.6449e-05,0
4.1917,1.2253e-05,0
4.1923,2.4506e-05,0
4.1928,3.6591e-05,0
4.1933,3.5752e-05,0
4.1938,2.1317e-05,0
4.1943,-3.357e-06,0
4.1949,-3.3066e-05,0
4.1954,-5.8076e-05,0
4.1959,-7.6371e-05,0
4.1964,-8.2918e-05,0
4.1969,-6.3615e-05,0
4.1975,-3.2395e-05,0
4.198,-3.6088e-05,0
4.1985,-9.5003e-05,0
4.199,-0.00016181,0
4.1995,-0.00019118,0
4.2001,-0.00016936,0
4.2006,-0.00011565,0
4.2011,-6.7643e-05,0
4.2016,-4.5823e-05,0
4.2021,-3.2395e-05,0
4.2027,1.8463e-06,0
4.2032,6.3951e-05,0
4.2037,0.0001425,0
4.2042,0.00020629,0
4.2047,0.00023062,0
4.2053,0.00020562,0
4.2058,0.00013864,0
4.2063,6.5629e-05,0
4.2068,1.8631e-05,0
4.2073,-5.0355e-07,0
4.2078,-7.8889e-06,0
4.2084,-1.0239e-05,0
4.2089,-2.3499e-06,0
4.2094,3.5248e-06,0
4.2099,-1.3428e-06,0
4.2104,-7.5532e-06,0
4.211,-8.3925e-06,0
4.2115,-9.2317e-06,0
4.212,-1.091e-05,0
4.2125,-8.896e-06,0
4.213,-7.5532e-06,0
4.2136,-1.4603e-05,0
4.2141,-3.1388e-05,0
4.2146,-4.3137e-05,0
4.2151,-4.2466e-05,0
4.2156,-3.0549e-05,0
4.2162,-1.091e-05,0
4.2167,-3.8605e-06,0
4.2172,-2.1653e-05,0
4.2177,-4.4648e-05,0
4.2182,-6.2104e-05,0
4.2188,-8.1071e-05,0
4.2193,-0.00010239,0
4.2198,-0.00010658,0
4.2203,-8.1407e-05,0
4.2208,-4.1459e-05,0
4.2213,2.3499e-06,0
4.2219,6.3615e-05,0
4.2224,0.0001472,0
4.2229,0.00023197,0
4.2234,0.00029055,0
4.2239,0.00030935,0
4.2245,0.00029709,0
4.225,0.00026436,0
4.2255,0.00021401,0
4.226,0.00015828,0
4.2265,0.00010289,0
4.2271,6.0929e-05,0
4.2276,4.8005e-05,0
4.2281,4.8844e-05,0
4.2286,4.3473e-05,0
4.2291,2.7024e-05,0
4.2297,-5.0355e-07,0
4.2302,-3.743e-05,0
4.2307,-7.4357e-05,0
4.2312,-9.4835e-05,0
4.2317,-7.805e-05,0
4.2322,-3.2731e-05,0
4.2328,3.5248e-06,0
4.2333,-4.5319e-06,0
4.2338,-5.5894e-05,0
4.2343,-0.00010994,0
4.2348,-0.00015677,0
4.2354,-0.00018816,0
4.2359,-0.00017758,0
4.2364,-0.00012773,0
4.2369,-5.6397e-05,0
4.2374,1.3092e-05,0
4.238,5.5222e-05,0
4.2385,7.5029e-05,0
4.239,9.8192e-05,0
4.2395,0.00013864,0
4.24,0.00018094,0
4.2406,0.00017053,0
4.2411,8.2414e-05,0
4.2416,-2.4674e-05,0
4.2421,-8.2582e-05,0
4.2426,-8.2078e-05,0
4.2432,-5.9419e-05,0
4.2437,-4.8508e-05,0
4.2442,-5.9251e-05,0
4.2447,-7.1336e-05,0
4.2452,-5.9922e-05,0
4.2458,-1.9974e-05,0
4.2463,4.4144e-05,0
4.2468,0.00011733,0
4.2473,0.0001697,0
4.2478,0.00018212,0
4.2483,0.00017423,0
4.2489,0.0001744,0
4.2494,0.0001697,0
4.2499,0.00013579,0
4.2504,8.426e-05,0
4.2509,3.9277e-05,0
4.2515,1.6449e-05,0
4.252,3.2563e-05,0
4.2525,7.6707e-05,0
4.253,0.00010826,0
4.2535,9.8695e-05,0
4.2541,6.0258e-05,0
4.2546,2.2828e-05,0
4.2551,9.7353e-06,0
4.2556,1.4603e-05,0
4.2561,2.1653e-05,0
4.2567,2.5849e-05,0
4.2572,1.9974e-05,0
4.2577,-1.4939e-05,0
4.2582,-8.3421e-05,0
4.2587,-0.00014099,0
4.2592,-0.00015157,0
4.2598,-0.00013629,0
4.2603,-0.00011766,0
4.2608,-9.5842e-05,0
4.2613,-8.3085e-05,0
4.2618,-9.1814e-05,0
4.2624,-0.0001091,0
4.2629,-0.00011145,0
4.2634,-8.2414e-05,0
4.2639,-3.3738e-05,0
4.2644,-5.2033e-06,0
4.265,-1.091e-05,0
4.2655,-2.5345e-05,0
4.266,-2.0142e-05,0
4.2665,2.266e-05,0
4.267,9.8192e-05,0
4.2676,0.00016701,0
4.2681,0.00019185,0
4.2686,0.00016349,0
4.2691,8.6275e-05,0
4.2696,-8.5603e-06,0
4.2702,-6.5293e-05,0
4.2707,-6.4118e-05,0
4.2712,-3.6088e-05,0
4.2717,-1.2253e-05,0
4.2722,6.714e-07,0
4.2728,-2.5177e-06,0
4.2733,-2.0981e-05,0
4.2738,-4.0116e-05,0
4.2743,-5.2705e-05,0
4.2748,-3.8941e-05,0
4.2753,5.7069e-06,0
4.2759,6.865e-05,0
4.2764,0.00012857,0
4.2769,0.00016735,0
4.2774,0.0001801,0
4.2779,0.00018161,0
4.2785,0.00019118,0
4.279,0.00020864,0
4.2795,0.00021468,0
4.28,0.00019454,0
4.2805,0.00015224,0
4.2811,0.00010423,0
4.2816,5.9251e-05,0
4.2821,1.7121e-05,0
4.2826,-3.0381e-05,0
4.2831,-7.7043e-05,0
4.2837,-0.00010205,0
4.2842,-0.00011565,0
4.2847,-0.00013713,0
4.2852,-0.00016231,0
4.2857,-0.00017288,0
4.2862,-0.00016281,0
4.2868,-0.0001331,0
4.2873,-9.4163e-05,0
4.2878,-5.2201e-05,0
4.2883,-1.1749e-06,0
4.2888,6.63e-05,0
4.2894,0.00015727,0
4.2899,0.00023818,0
4.2904,0.00024993,0
4.2909,0.00018883,0
4.2914,0.00010188,0
4.292,2.8031e-05,0
4.2925,-2.1149e-05,0
4.293,-4.6494e-05,0
4.2935,-4.6494e-05,0
4.294,-3.0213e-05,0
4.2946,-1.0575e-05,0
4.2951,7.3854e-06,0
4.2956,2.2324e-05,0
4.2961,4.062e-05,0
4.2966,6.6133e-05,0
4.2972,8.9128e-05,0
4.2977,0.00010121,0
4.2982,8.6778e-05,0
4.2987,2.6856e-05,0
4.2992,-5.1865e-05,0
4.2998,-0.00010675,0
4.3003,-0.00012203,0
4.3008,-0.00010809,0
4.3013,-8.3589e-05,0
4.3018,-6.0594e-05,0
4.3023,-3.6591e-05,0
4.3029,-1.2253e-05,0
4.3034,1.5946e-05,0
4.3039,4.7837e-05,0
4.3044,7.9057e-05,0
4.3049,0.00010239,0
4.3055,0.00010709,0
4.306,9.987e-05,0
4.3065,9.1142e-05,0
4.307,8.2246e-05,0
4.3075,7.6036e-05,0
4.3081,8.4596e-05,0
4.3086,0.00011733,0
4.3091,0.00015828,0
4.3096,0.00017675,0
4.3101,0.00016768,0
4.3107,0.00014217,0
4.3112,0.00010658,0
4.3117,5.8915e-05,0
4.3122,1.1917e-05,0
4.3127,-2.1988e-05,0
4.3133,-4.1123e-05,0
4.3138,-3.9277e-05,0
4.3143,-1.6953e-05,0
4.3148,1.0575e-05,0
4.3153,1.1582e-05,0
4.3158,-2.0981e-05,0
4.3164,-5.9083e-05,0
4.3169,-8.51e-05,0
4.3174,-0.00011179,0
4.3179,-0.00014401,0
4.3184,-0.00017691,0
4.319,-0.00020243,0
4.3195,-0.00021166,0
4.32,-0.00019185,0
4.3205,-0.0001284,0
4.321,-3.1388e-05,0
4.3216,5.4719e-05,0
4.3221,7.57e-05,0
4.3226,2.1317e-05,0
4.3231,-3.5248e-05,0
4.3236,-3.1388e-05,0
4.3242,2.2492e-05,0
4.3247,7.8721e-05,0
4.3252,0.00010054,0
4.3257,9.4499e-05,0
4.3262,8.3757e-05,0
4.3267,7.7043e-05,0
4.3273,7.3014e-05,0
4.3278,8.191e-05,0
4.3283,9.5003e-05,0
4.3288,8.3589e-05,0
4.3293,5.5894e-05,0
4.3299,3.3066e-05,0
4.3304,-8.5603e-06,0
4.3309,-5.388e-05,0
4.3314,-6.6804e-05,0
4.3319,-4.7166e-05,0
4.3325,-1.3931e-05,0
4.333,1.796e-05,0
4.3335,4.1459e-05,0
4.334,5.5558e-05,0
4.3345,6.6972e-05,0
4.3351,8.04e-05,0
4.3356,0.00010155,0
4.3361,0.0001331,0
4.3366,0.00015929,0
4.3371,0.00015543,0
4.3377,0.00012404,0
4.3382,8.7617e-05,0
4.3387,5.8915e-05,0
4.3392,3.9445e-05,0
4.3397,3.0045e-05,0
4.3403,2.5681e-05,0
4.3408,1.8296e-05,0
4.3413,7.0497e-06,0
4.3418,-5.0355e-07,0
4.3423,-9.3996e-06,0
4.3428,-3.0213e-05,0
4.3434,-5.623e-05,0
4.3439,-6.9993e-05,0
4.3444,-6.8818e-05,0
4.3449,-6.4118e-05,0
4.3454,-6.0258e-05,0
4.346,-5.2537e-05,0
4.3465,-3.7095e-05,0
4.347,-8.896e-06,0
4.3475,3.3234e-05,0
4.348,7.7043e-05,0
4.3486,0.00010356,0
4.3491,0.0001039,0
4.3496,8.3421e-05,0
4.3501,5.1865e-05,0
4.3506,1.2253e-05,0
4.3512,-1.8799e-05,0
4.3517,-1.8128e-05,0
4.3522,2.3499e-06,0
4.3527,4.3641e-06,0
4.3532,-2.501e-05,0
4.3537,-6.0426e-05,0
4.3543,-8.4428e-05,0
4.3548,-8.4428e-05,0
4.3553,-4.918e-05,0
4.3558,1.0575e-05,0
4.3563,6.3951e-05,0
4.3569,8.5771e-05,0
4.3574,7.7714e-05,0
4.3579,7.7714e-05,0
4.3584,0.00010977,0
4.3589,0.00014217,0
4.3595,0.00012538,0
4.36,6.0258e-05,0
4.3605,-9.7353e-06,0
4.361,-5.3376e-05,0
4.3615,-7.1e-05,0
4.3621,-7.6036e-05,0
4.3626,-7.9225e-05,0
4.3631,-7.6204e-05,0
4.3636,-5.1698e-05,0
4.3641,-7.3854e-06,0
4.3647,4.5487e-05,0
4.3652,9.2821e-05,0
4.3657,0.00011901,0
4.3662,0.00011112,0
4.3667,7.0665e-05,0
4.3673,1.6785e-05,0
4.3678,-2.1653e-05,0
4.3683,-2.1653e-05,0
4.3688,1.3092e-05,0
4.3693,5.6901e-05,0
4.3698,8.4428e-05,0
4.3704,8.2414e-05,0
4.3709,5.8076e-05,0
4.3714,3.7766e-05,0
4.3719,3.0549e-05,0
4.3724,2.266e-05,0
4.373,1.1078e-05,0
4.3735,-2.0142e-06,0
4.374,-3.1891e-06,0
4.3745,1.4603e-05,0
4.375,4.0787e-05,0
4.3756,5.2201e-05,0
4.3761,3.8102e-05,0
4.3766,1.4435e-05,0
4.3771,8.5603e-06,0
4.3776,3.0381e-05,0
4.3782,6.244e-05,0
4.3787,9.2485e-05,0
4.3792,0.00011296,0
4.3797,0.00011162,0
4.3802,9.1142e-05,0
4.3807,7.1336e-05,0
4.3813,5.4719e-05,0
4.3818,2.4506e-05,0
4.3823,-1.9471e-05,0
4.3828,-5.388e-05,0
4.3833,-6.7643e-05,0
4.3839,-7.9728e-05,0
4.3844,-0.00012924,0
4.3849,-0.00019286,0
4.3854,-0.00019773,0
4.3859,-0.00013143,0
4.3865,-4.2466e-05,0
4.387,2.6017e-05,0
4.3875,6.1936e-05,0
4.388,7.3182e-05,0
4.3885,6.5965e-05,0
4.3891,2.9877e-05,0
4.3896,-2.0142e-05,0
4.3901,-3.7934e-05,0
4.3906,-5.2033e-06,0
4.3911,3.6591e-05,0
4.3917,3.0716e-05,0
4.3922,-1.4603e-05,0
4.3927,-5.1698e-05,0
4.3932,-6.7308e-05,0
4.3937,-7.8218e-05,0
4.3943,-7.8553e-05,0
4.3948,-6.0594e-05,0
4.3953,-2.501e-05,0
4.3958,2.4002e-05,0
4.3963,8.2918e-05,0
4.3968,0.00015358,0
4.3974,0.00023348,0
4.3979,0.00031186,0
4.3984,0.00034694,0
4.3989,0.00030867,0
4.3994,0.00023449,0
4.4,0.00017708,0
4.4005,0.00014401,0
4.401,0.00012102,0
4.4015,9.8863e-05,0
4.402,7.7714e-05,0
4.4026,5.8244e-05,0
4.4031,3.2059e-05,0
4.4036,2.6856e-06,0
4.4041,-1.9303e-05,0
4.4046,-3.0045e-05,0
4.4052,-3.6927e-05,0
4.4057,-4.4816e-05,0
4.4062,-5.7404e-05,0
4.4067,-7.1336e-05,0
4.4072,-7.6539e-05,0
4.4078,-6.3951e-05,0
4.4083,-3.9277e-05,0
4.4088,-1.9638e-05,0
4.4093,-2.9374e-05,0
4.4098,-7.6371e-05,0
4.4103,-0.00013025,0
4.4109,-0.00015291,0
4.4114,-0.00014452,0
4.4119,-0.00012454,0
4.4124,-0.00010306,0
4.4129,-8.0064e-05,0
4.4135,-4.8508e-05,0
4.414,2.8534e-06,0
4.4145,7.5029e-05,0
4.415,0.00014821,0
4.4155,0.00019084,0
4.4161,0.00019454,0
4.4166,0.00019034,0
4.4171,0.00019387,0
4.4176,0.00018363,0
4.4181,0.00013948,0
4.4187,6.5629e-05,0
4.4192,-1.7792e-05,0
4.4197,-7.4357e-05,0
4.4202,-9.1142e-05,0
4.4207,-8.8792e-05,0
4.4212,-8.6778e-05,0
4.4218,-8.2078e-05,0
4.4223,-7.6539e-05,0
4.4228,-7.6036e-05,0
4.4233,-6.5965e-05,0
4.4238,-3.8102e-05,0
4.4244,-6.5461e-06,0
4.4249,1.561e-05,0
4.4254,1.8967e-05,0
4.4259,-2.8534e-06,0
4.4264,-3.3738e-05,0
4.427,-3.8437e-05,0
4.4275,-7.5532e-06,0
4.428,4.0116e-05,0
4.4285,7.1336e-05,0
4.429,8.04e-05,0
4.4296,8.6442e-05,0
4.4301,9.2317e-05,0
4.4306,9.0974e-05,0
4.4311,7.6036e-05,0
4.4316,5.0019e-05,0
4.4322,2.0981e-05,0
4.4327,-1.8128e-05,0
4.4332,-8.5435e-05,0
4.4337,-0.00019655,0
4.4342,-0.00031035,0
4.4348,-0.00034728,0
4.4353,-0.00029088,0
4.4358,-0.00018363,0
4.4363,-8.0735e-05,0
4.4368,-3.3906e-05,0
4.4373,-7.7211e-06,0
4.4379,5.7069e-05,0
4.4384,0.00016181,0
4.4389,0.00027041,0
4.4394,0.000355,0
4.4399,0.0003926,0
4.4405,0.00037346,0
4.441,0.00030666,0
4.4415,0.00022307,0
4.442,0.0001603,0
4.4425,0.00013109,0
4.4431,0.0001237,0
4.4436,0.00011733,0
4.4441,0.00010188,0
4.4446,8.1071e-05,0
4.4451,5.8747e-05,0
4.4457,4.1459e-05,0
4.4462,2.3331e-05,0
4.4467,1.5106e-06,0
4.4472,-1.6114e-05,0
4.4477,-2.9374e-05,0
4.4482,-5.4047e-05,0
4.4488,-9.6849e-05,0
4.4493,-0.00014099,0
4.4498,-0.00016567,0
4.4503,-0.00017037,0
4.4508,-0.00017456,0
4.4514,-0.00019588,0
4.4519,-0.00021367,0
4.4524,-0.00018715,0
4.4529,-0.00011011,0
4.4534,-1.9806e-05,0
4.454,5.4719e-05,0
4.4545,0.00011196,0
4.455,0.00016214,0
4.4555,0.00019857,0
4.456,0.0002088,0
4.4566,0.00019689,0
4.4571,0.0001749,0
4.4576,0.00015543,0
4.4581,0.00012773,0
4.4586,7.57e-05,0
4.4592,2.7359e-05,0
4.4597,2.1317e-05,0
4.4602,4.4144e-05,0
4.4607,5.4887e-05,0
4.4612,2.6688e-05,0
4.4618,-2.7863e-05,0
4.4623,-6.9154e-05,0
4.4628,-7.805e-05,0
4.4633,-6.1601e-05,0
4.4638,-3.592e-05,0
4.4643,-6.8818e-06,0
4.4649,1.2253e-05,0
4.4654,3.1891e-06,0
4.4659,-2.9709e-05,0
4.4664,-5.4383e-05,0
4.4669,-5.8244e-05,0
4.4675,-5.304e-05,0
4.468,-4.3473e-05,0
4.4685,-2.1653e-05,0
4.469,1.6953e-05,0
4.4695,6.1265e-05,0
4.4701,9.6849e-05,0
4.4706,0.00011733,0
4.4711,0.00012639,0
4.4716,0.00012656,0
4.4721,0.00011733,0
4.4727,9.836e-05,0
4.4732,7.4693e-05,0
4.4737,5.9922e-05,0
4.4742,6.2272e-05,0
4.4747,7.3518e-05,0
4.4752,7.5532e-05,0
4.4758,5.7237e-05,0
4.4763,2.501e-05,0
4.4768,-9.2317e-06,0
4.4773,-3.6759e-05,0
4.4778,-5.8579e-05,0
4.4784,-7.0665e-05,0
4.4789,-6.5629e-05,0
4.4794,-4.5823e-05,0
4.4799,-3.3402e-05,0
4.4804,-4.1962e-05,0
4.481,-5.6901e-05,0
4.4815,-6.2272e-05,0
4.482,-4.9348e-05,0
4.4825,-2.2995e-05,0
4.483,8.2246e-06,0
4.4836,3.4241e-05,0
4.4841,4.683e-05,0
4.4846,4.4648e-05,0
4.4851,3.2059e-05,0
4.4856,2.8031e-05,0
4.4862,3.8773e-05,0
4.4867,5.3544e-05,0
4.4872,6.5629e-05,0
4.4877,7.9057e-05,0
4.4882,9.0471e-05,0
4.4887,8.9799e-05,0
4.4893,7.2343e-05,0
4.4898,3.4745e-05,0
4.4903,-7.7211e-06,0
4.4908,-2.887e-05,0
4.4913,-2.1653e-05,0
4.4919,1.6785e-07,0
4.4924,1.9974e-05,0
4.4929,3.357e-05,0
4.4934,4.1962e-05,0
4.4939,4.1459e-05,0
4.4945,2.8702e-05,0
4.495,1.8128e-05,0
4.4955,2.0645e-05,0
4.496,3.9445e-05,0
4.4965,5.6901e-05,0
4.4971,4.5823e-05,0
4.4976,4.3641e-06,0
4.4981,-3.4241e-05,0
4.4986,-3.8941e-05,0
4.4991,-1.7792e-05,0
4.4997,3.357e-07,0
4.5002,-5.539e-06,0
4.5007,-1.4267e-05,0
4.5012,-1.5106e-06,0
4.5017,2.3499e-05,0
4.5023,4.1123e-05,0
4.5028,4.448e-05,0
4.5033,4.213e-05,0
4.5038,4.5151e-05,0
4.5043,4.4816e-05,0
4.5048,3.5248e-05,0
4.5054,1.9303e-05,0
4.5059,-3.0213e-06,0
4.5064,-2.1317e-05,0
4.5069,-2.6688e-05,0
4.5074,-2.4506e-05,0
4.508,-2.4002e-05,0
4.5085,-2.3667e-05,0
4.509,-2.3163e-05,0
4.5095,-2.0981e-05,0
4.51,-2.0981e-05,0
4.5106,-1.796e-05,0
4.5111,-3.6927e-06,0
4.5116,2.5681e-05,0
4.5121,6.009e-05,0
4.5126,8.3421e-05,0
4.5132,9.4835e-05,0
4.5137,0.00010121,0
4.5142,0.00010272,0
4.5147,9.4163e-05,0
4.5152,7.5029e-05,0
4.5157,5.6901e-05,0
4.5163,4.2634e-05,0
4.5168,2.4338e-05,0
4.5173,-3.0213e-06,0
4.5178,-3.1052e-05,0
4.5183,-6.479e-05,0
4.5189,-0.00012068,0
4.5194,-0.00017473,0
4.5199,-0.00020427,0
4.5204,-0.00020024,0
4.5209,-0.00016013,0
4.5215,-0.00010021,0
4.522,-3.8605e-05,0
4.5225,2.501e-05,0
4.523,0.00010188,0
4.5235,0.00018346,0
4.5241,0.00023449,0
4.5246,0.00022995,0
4.5251,0.0001613,0
4.5256,6.4958e-05,0
4.5261,-1.0071e-05,0
4.5267,-4.918e-05,0
4.5272,-5.7908e-05,0
4.5277,-4.9851e-05,0
4.5282,-4.2466e-05,0
4.5287,-5.0355e-05,0
4.5293,-5.9251e-05,0
4.5298,-4.8173e-05,0
4.5303,-1.7624e-05,0
4.5308,2.0813e-05,0
4.5313,5.8076e-05,0
4.5318,8.7449e-05,0
4.5324,0.00010524,0
4.5329,0.00011145,0
4.5334,0.00011229,0
4.5339,0.00012253,0
4.5344,0.00014603,0
4.535,0.00017507,0
4.5355,0.00018984,0
4.536,0.00016953,0
4.5365,0.00013848,0
4.537,0.00011598,0
4.5376,8.4764e-05,0
4.5381,2.9374e-05,0
4.5386,-4.1459e-05,0
4.5391,-9.7353e-05,0
4.5396,-0.00011699,0
4.5402,-0.00010037,0
4.5407,-4.8173e-05,0
4.5412,3.2395e-05,0
4.5417,0.00011296,0
4.5422,0.0001608,0
4.5427,0.00015224,0
4.5433,0.00010625,0
4.5438,7.0161e-05,0
4.5443,6.009e-05,0
4.5448,5.5055e-05,0
4.5453,3.6759e-05,0
4.5459,6.8818e-06,0
4.5464,-1.9303e-05,0
4.5469,-2.9709e-05,0
4.5474,-2.6688e-05,0
4.5479,-1.1246e-05,0
4.5485,2.3499e-06,0
4.549,-9.0639e-06,0
4.5495,-4.6159e-05,0
4.55,-8.9464e-05,0
4.5505,-0.00012102,0
4.5511,-0.00013428,0
4.5516,-0.00013613,0
4.5521,-0.00013613,0
4.5526,-0.00013529,0
4.5531,-0.0001284,0
4.5537,-0.00012136,0
4.5542,-0.00011733,0
4.5547,-9.8024e-05,0
4.5552,-4.8844e-05,0
4.5557,3.4073e-05,0
4.5563,0.00012656,0
4.5568,0.00019571,0
4.5573,0.0002407,0
4.5578,0.00027141,0
4.5583,0.00028048,0
4.5588,0.00025144,0
4.5594,0.00018732,0
4.5599,0.00011968,0
4.5604,8.2414e-05,0
4.5609,7.4022e-05,0
4.5614,6.0594e-05,0
4.562,2.7192e-05,0
4.5625,-7.5532e-06,0
4.563,-2.9038e-05,0
4.5635,-4.1962e-05,0
4.564,-5.153e-05,0
4.5646,-5.4215e-05,0
4.5651,-4.8173e-05,0
4.5656,-3.7095e-05,0
4.5661,-3.2898e-05,0
4.5666,-3.9277e-05,0
4.5672,-4.5151e-05,0
4.5677,-4.3809e-05,0
4.5682,-4.1794e-05,0
4.5687,-4.5991e-05,0
4.5692,-5.2537e-05,0
4.5697,-5.8076e-05,0
4.5703,-7.2175e-05,0
4.5708,-8.191e-05,0
4.5713,-6.6804e-05,0
4.5718,-3.122e-05,0
4.5723,5.7069e-06,0
4.5729,2.9038e-05,0
4.5734,3.7766e-05,0
4.5739,4.0787e-05,0
4.5744,4.4144e-05,0
4.5749,4.7501e-05,0
4.5755,5.3208e-05,0
4.576,6.4958e-05,0
4.5765,7.2679e-05,0
4.577,6.1265e-05,0
4.5775,3.1052e-05,0
4.5781,-5.3712e-06,0
4.5786,-3.3066e-05,0
4.5791,-5.1865e-05,0
4.5796,-6.865e-05,0
4.5801,-6.1601e-05,0
4.5807,-3.4745e-05,0
4.5812,-2.3667e-05,0
4.5817,-3.1891e-05,0
4.5822,-2.6017e-05,0
4.5827,4.5319e-06,0
4.5832,2.7695e-05,0
4.5838,2.7695e-05,0
4.5843,1.9303e-05,0
4.5848,2.5177e-05,0
4.5853,5.1698e-05,0
4.5858,7.9393e-05,0
4.5864,9.987e-05,0
4.5869,0.00012471,0
4.5874,0.00015929,0
4.5879,0.00019756,0
4.5884,0.00022039,0
4.589,0.00019655,0
4.5895,0.00012471,0
4.59,3.4073e-05,0
4.5905,-4.7501e-05,0
4.591,-0.00010155,0
4.5916,-0.00012102,0
4.5921,-0.00010843,0
4.5926,-7.0329e-05,0
4.5931,-2.417e-05,0
4.5936,2.4002e-05,0
4.5942,7.4189e-05,0
4.5947,0.000118,0
4.5952,0.00015056,0
4.5957,0.00016265,0
4.5962,0.00014217,0
4.5968,0.00010323,0
4.5973,7.1336e-05,0
4.5978,6.0929e-05,0
4.5983,6.4118e-05,0
4.5988,6.4286e-05,0
4.5993,5.623e-05,0
4.5999,4.6494e-05,0
4.6004,3.5584e-05,0
4.6009,1.9303e-05,0
4.6014,-3.1891e-06,0
4.6019,-2.9374e-05,0
4.6025,-5.2873e-05,0
4.603,-6.9154e-05,0
4.6035,-7.8386e-05,0
4.604,-8.1071e-05,0
4.6045,-8.0232e-05,0
4.6051,-7.0832e-05,0
4.6056,-3.3234e-05,0
4.6061,2.5513e-05,0
4.6066,6.7475e-05,0
4.6071,6.5126e-05,0
4.6077,3.3234e-05,0
4.6082,8.3925e-06,0
4.6087,-3.357e-07,0
4.6092,-1.3931e-05,0
4.6097,-4.3137e-05,0
4.6102,-7.0161e-05,0
4.6108,-7.335e-05,0
4.6113,-6.1601e-05,0
4.6118,-4.9516e-05,0
4.6123,-3.2059e-05,0
4.6128,8.3925e-07,0
4.6134,4.4144e-05,0
4.6139,8.5771e-05,0
4.6144,0.00011766,0
4.6149,0.00013075,0
4.6154,0.00012522,0
4.616,0.00010759,0
4.6165,8.3085e-05,0
4.617,5.5222e-05,0
4.6175,2.5177e-05,0
4.618,1.8463e-06,0
4.6186,-1.8463e-06,0
4.6191,-1.5106e-06,0
4.6196,-8.3925e-06,0
4.6201,-1.7624e-05,0
4.6206,-3.0045e-05,0
4.6212,-4.0452e-05,0
4.6217,-3.6759e-05,0
4.6222,-1.9638e-05,0
4.6227,-1.8463e-06,0
4.6232,1.0071e-06,0
4.6238,-1.2253e-05,0
4.6243,-1.561e-05,0
4.6248,8.896e-06,0
4.6253,4.6159e-05,0
4.6258,6.8482e-05,0
4.6263,5.5894e-05,0
4.6269,1.4603e-05,0
4.6274,-3.3738e-05,0
4.6279,-7.1e-05,0
4.6284,-8.0735e-05,0
4.6289,-5.4551e-05,0
4.6295,-1.8799e-05,0
4.63,-1.6785e-07,0
4.6305,-2.8534e-06,0
4.631,-1.326e-05,0
4.6315,-1.9974e-05,0
4.6321,-1.9638e-05,0
4.6326,-9.5674e-06,0
4.6331,9.9031e-06,0
4.6336,3.1388e-05,0
4.6341,5.0858e-05,0
4.6347,8.3085e-05,0
4.6352,0.00012773,0
4.6357,0.00016466,0
4.6362,0.00017423,0
4.6367,0.00015157,0
4.6372,0.00011867,0
4.6378,0.00010692,0
4.6383,0.00011598,0
4.6388,0.00011649,0
4.6393,9.9031e-05,0
4.6398,8.1239e-05,0
4.6404,7.0832e-05,0
4.6409,7.1839e-05,0
4.6414,9.0639e-05,0
4.6419,0.00010726,0
4.6424,8.8457e-05,0
4.643,4.9851e-05,0
4.6435,3.2731e-05,0
4.644,3.4073e-05,0
4.6445,1.9135e-05,0
4.645,-2.8031e-05,0
4.6456,-8.7785e-05,0
4.6461,-0.00013227,0
4.6466,-0.0001472,0
4.6471,-0.00014737,0
4.6476,-0.00016432,0
4.6482,-0.00022542,0
4.6487,-0.00029071,0
4.6492,-0.00029575,0
4.6497,-0.00022559,0
4.6502,-0.00011011,0
4.6508,3.6927e-06,0
4.6513,7.7714e-05,0
4.6518,0.0001086,0
4.6523,0.00013646,0
4.6528,0.00018682,0
4.6533,0.00025161,0
4.6539,0.00031673,0
4.6544,0.0003597,0
4.6549,0.00034762,0
4.6554,0.00027745,0
4.6559,0.00017053,0
4.6565,6.8986e-05,0
4.657,8.3925e-07,0
4.6575,-4.2969e-05,0
4.658,-7.2175e-05,0
4.6585,-8.5939e-05,0
4.6591,-8.7785e-05,0
4.6596,-8.1575e-05,0
4.6601,-6.4622e-05,0
4.6606,-3.6591e-05,0
4.6611,-4.8676e-06,0
4.6617,2.1317e-05,0
4.6622,4.2802e-05,0
4.6627,6.6972e-05,0
4.6632,7.8386e-05,0
4.6637,6.4286e-05,0
4.6643,3.4409e-05,0
4.6648,5.8747e-06,0
4.6653,-9.7353e-06,0
4.6658,-1.326e-05,0
4.6663,-1.7624e-05,0
4.6668,-2.2492e-05,0
4.6674,-1.7792e-05,0
4.6679,-6.8818e-06,0
4.6684,0,0
4.6689,-3.357e-07,0
4.6694,-1.8463e-06,0
4.67,-4.5319e-06,0
4.6705,-8.3925e-06,0
4.671,-1.0239e-05,0
4.6715,-1.4435e-05,0
4.672,-3.4409e-05,0
4.6726,-5.8915e-05,0
4.6731,-5.6397e-05,0
4.6736,-3.1388e-05,0
4.6741,-1.4939e-05,0
4.6746,-2.3331e-05,0
4.6752,-4.448e-05,0
4.6757,-5.7237e-05,0
4.6762,-5.5726e-05,0
4.6767,-3.827e-05,0
4.6772,8.3925e-07,0
4.6777,4.1459e-05,0
4.6783,5.0858e-05,0
4.6788,1.9303e-05,0
4.6793,-2.182e-05,0
4.6798,-2.5681e-05,0
4.6803,1.1582e-05,0
4.6809,5.4047e-05,0
4.6814,8.4092e-05,0
4.6819,0.00010608,0
4.6824,0.00011128,0
4.6829,7.4525e-05,0
4.6835,5.2033e-06,0
4.684,-3.9612e-05,0
4.6845,-4.5151e-05,0
4.685,-3.8605e-05,0
4.6855,-3.1388e-05,0
4.6861,-1.8128e-05,0
4.6866,5.8747e-06,0
4.6871,4.1459e-05,0
4.6876,8.5435e-05,0
4.6881,0.00012102,0
4.6887,0.00013277,0
4.6892,0.00012068,0
4.6897,9.3828e-05,0
4.6902,6.4622e-05,0
4.6907,4.1627e-05,0
4.6913,2.4674e-05,0
4.6918,1.0575e-05,0
4.6923,-5.0355e-07,0
4.6928,-2.182e-06,0
4.6933,1.2085e-05,0
4.6938,2.9206e-05,0
4.6944,2.9038e-05,0
4.6949,7.7211e-06,0
4.6954,-1.796e-05,0
4.6959,-3.5752e-05,0
4.6964,-5.7572e-05,0
4.697,-8.426e-05,0
4.6975,-9.5506e-05,0
4.698,-7.9561e-05,0
4.6985,-4.2298e-05,0
4.699,8.3925e-07,0
4.6996,3.4745e-05,0
4.7001,5.3544e-05,0
4.7006,6.7475e-05,0
4.7011,8.3085e-05,0
4.7016,9.752e-05,0
4.7022,0.00011464,0
4.7027,0.00013713,0
4.7032,0.00014435,0
4.7037,0.00012387,0
4.7042,8.9464e-05,0
4.7047,5.7572e-05,0
4.7053,4.5487e-05,0
4.7058,4.9516e-05,0
4.7063,3.7766e-05,0
4.7068,-1.2924e-05,0
4.7073,-7.5532e-05,0
4.7079,-0.00010927,0
4.7084,-0.00010625,0
4.7089,-7.4022e-05,0
4.7094,-2.7024e-05,0
4.7099,1.2253e-05,0
4.7105,2.8031e-05,0
4.711,2.8031e-05,0
4.7115,2.9709e-05,0
4.712,4.4144e-05,0
4.7125,6.8986e-05,0
4.7131,9.3156e-05,0
4.7136,0.00010658,0
4.7141,0.00010608,0
4.7146,0.00010356,0
4.7151,0.00011162,0
4.7157,0.00013109,0
4.7162,0.0001462,0
4.7167,0.0001368,0
4.7172,9.752e-05,0
4.7177,4.1123e-05,0
4.7183,-3.357e-07,0
4.7188,-1.1582e-05,0
4.7193,-5.8747e-06,0
4.7198,-1.5106e-06,0
4.7203,-7.5532e-06,0
4.7208,-1.2757e-05,0
4.7214,-6.2104e-06,0
4.7219,6.5461e-06,0
4.7224,1.8296e-05,0
4.7229,2.8199e-05,0
4.7234,3.122e-05,0
4.724,1.9974e-05,0
4.7245,-6.2104e-06,0
4.725,-6.0761e-05,0
4.7255,-0.00013747,0
4.726,-0.00018044,0
4.7266,-0.00016718,0
4.7271,-0.00012438,0
4.7276,-8.4764e-05,0
4.7281,-5.8747e-05,0
4.7286,-3.2395e-05,0
4.7292,7.5532e-06,0
4.7297,5.1194e-05,0
4.7302,7.6707e-05,0
4.7307,8.191e-05,0
4.7312,7.6204e-05,0
4.7317,6.9322e-05,0
4.7323,6.7308e-05,0
4.7328,7.2343e-05,0
4.7333,9.0806e-05,0
4.7338,0.000118,0
4.7343,0.00013344,0
4.7349,0.00012874,0
4.7354,0.00011531,0
4.7359,0.00010021,0
4.7364,8.04e-05,0
4.7369,4.6159e-05,0
4.7375,-5.539e-06,0
4.738,-6.0761e-05,0
4.7385,-0.00010088,0
4.739,-0.00012035,0
4.7395,-0.00011229,0
4.7401,-7.6036e-05,0
4.7406,-5.3544e-05,0
4.7411,-0.00010356,0
4.7416,-0.00021015,0
4.7421,-0.00027376,0
4.7427,-0.00026772,0
4.7432,-0.00025278,0
4.7437,-0.00024338,0
4.7442,-0.00021401,0
4.7447,-0.00015123,0
4.7453,-6.2776e-05,0
4.7458,2.4674e-05,0
4.7463,0.00011061,0
4.7468,0.00022173,0
4.7473,0.00034359,0
4.7478,0.00042147,0
4.7484,0.00042348,0
4.7489,0.00038521,0
4.7494,0.00033217,0
4.7499,0.00025631,0
4.7504,0.00018614,0
4.751,0.00015325,0
4.7515,0.00013411,0
4.752,0.00010457,0
4.7525,7.4861e-05,0
4.753,5.4719e-05,0
4.7536,3.2059e-05,0
4.7541,4.5319e-06,0
4.7546,-2.1653e-05,0
4.7551,-4.1123e-05,0
4.7556,-5.6733e-05,0
4.7562,-7.1168e-05,0
4.7567,-7.5532e-05,0
4.7572,-5.4719e-05,0
4.7577,-2.0142e-05,0
4.7582,3.1891e-06,0
4.7588,1.5106e-06,0
4.7593,-1.7288e-05,0
4.7598,-3.6759e-05,0
4.7603,-4.6159e-05,0
4.7608,-4.1794e-05,0
4.7613,-1.8631e-05,0
4.7619,2.4002e-05,0
4.7624,8.5771e-05,0
4.7629,0.00014385,0
4.7634,0.00015996,0
4.7639,0.00013193,0
4.7645,8.8121e-05,0
4.765,5.7237e-05,0
4.7655,3.1724e-05,0
4.766,-7.0497e-06,0
4.7665,-6.2104e-05,0
4.7671,-0.00012505,0
4.7676,-0.00017507,0
4.7681,-0.0001984,0
4.7686,-0.00019622,0
4.7691,-0.00017339,0
4.7697,-0.00013898,0
4.7702,-0.00010356,0
4.7707,-6.3615e-05,0
4.7712,1.6785e-06,0
4.7717,8.8457e-05,0
4.7722,0.00016567,0
4.7728,0.00018379,0
4.7733,0.00013411,0
4.7738,6.949e-05,0
4.7743,2.1653e-05,0
4.7748,-1.1917e-05,0
4.7754,-1.7792e-05,0
4.7759,1.1246e-05,0
4.7764,4.4816e-05,0
4.7769,5.5222e-05,0
4.7774,5.0858e-05,0
4.778,5.8747e-05,0
4.7785,8.7785e-05,0
4.779,0.00011733,0
4.7795,0.00013008,0
4.78,0.00012639,0
4.7806,0.00011313,0
4.7811,0.00010121,0
4.7816,8.9799e-05,0
4.7821,7.0665e-05,0
4.7826,4.062e-05,0
4.7832,7.5532e-06,0
4.7837,-1.8631e-05,0
4.7842,-4.4144e-05,0
4.7847,-6.7475e-05,0
4.7852,-7.0665e-05,0
4.7858,-5.4383e-05,0
4.7863,-3.7263e-05,0
4.7868,-3.122e-05,0
4.7873,-3.2395e-05,0
4.7878,-3.5752e-05,0
4.7883,-4.4144e-05,0
4.7889,-5.4383e-05,0
4.7894,-6.0929e-05,0
4.7899,-7.4693e-05,0
4.7904,-0.00011582,0
4.7909,-0.00018346,0
4.7915,-0.00023549,0
4.792,-0.00024775,0
4.7925,-0.00021283,0
4.793,-0.00014166,0
4.7935,-5.0523e-05,0
4.7941,4.0787e-05,0
4.7946,0.00011263,0
4.7951,0.00017775,0
4.7956,0.00025899,0
4.7961,0.00034728,0
4.7967,0.00041241,0
4.7972,0.00042416,0
4.7977,0.00037615,0
4.7982,0.00029323,0
4.7987,0.00020327,0
4.7992,0.00011565,0
4.7998,4.0452e-05,0
4.8003,-2.5849e-05,0
4.8008,-9.4499e-05,0
4.8013,-0.00014066,0
4.8018,-0.00014083,0
4.8024,-0.00010272,0
4.8029,-5.0019e-05,0
4.8034,5.0355e-07,0
4.8039,4.6159e-05,0
4.8044,7.57e-05,0
4.805,8.1407e-05,0
4.8055,6.9657e-05,0
4.806,5.4047e-05,0
4.8065,4.6159e-05,0
4.807,4.3473e-05,0
4.8076,2.5345e-05,0
4.8081,2.182e-06,0
4.8086,-2.0478e-05,0
4.8091,-5.5894e-05,0
4.8096,-9.8192e-05,0
4.8102,-0.00012723,0
4.8107,-0.00013075,0
4.8112,-0.00011095,0
4.8117,-7.335e-05,0
4.8122,-3.0716e-05,0
4.8128,8.5603e-06,0
4.8133,5.0523e-05,0
4.8138,9.4667e-05,0
4.8143,0.00012941,0
4.8148,0.00014166,0
4.8153,0.00012857,0
4.8159,9.5674e-05,0
4.8164,5.5558e-05,0
4.8169,1.6617e-05,0
4.8174,-1.2924e-05,0
4.8179,-2.0478e-05,0
4.8185,-7.2175e-06,0
4.819,1.6953e-05,0
4.8195,4.6662e-05,0
4.82,6.8315e-05,0
4.8205,7.0161e-05,0
4.8211,6.1601e-05,0
4.8216,5.6565e-05,0
4.8221,4.7669e-05,0
4.8226,2.7695e-05,0
4.8231,6.5461e-06,0
4.8237,-1.091e-05,0
4.8242,-3.0045e-05,0
4.8247,-5.0523e-05,0
4.8252,-6.5126e-05,0
4.8257,-7.5532e-05,0
4.8262,-8.51e-05,0
4.8268,-9.5171e-05,0
4.8273,-0.00010256,0
4.8278,-0.00010155,0
4.8283,-9.752e-05,0
4.8288,-9.6681e-05,0
4.8294,-9.6849e-05,0
4.8299,-9.8863e-05,0
4.8304,-9.5003e-05,0
4.8309,-7.4189e-05,0
4.8314,-3.3402e-05,0
4.832,2.4002e-05,0
4.8325,9.9535e-05,0
4.833,0.00017406,0
4.8335,0.00021871,0
4.834,0.00022492,0
4.8346,0.00020931,0
4.8351,0.00018883,0
4.8356,0.00016869,0
4.8361,0.00014788,0
4.8366,0.00012505,0
4.8372,0.00010793,0
4.8377,0.00011464,0
4.8382,0.00013143,0
4.8387,0.00012471,0
4.8392,8.7617e-05,0
4.8398,4.1459e-05,0
4.8403,5.0355e-07,0
4.8408,-2.4338e-05,0
4.8413,-2.9877e-05,0
4.8418,-1.5274e-05,0
4.8423,2.8534e-06,0
4.8429,6.8818e-06,0
4.8434,-3.5248e-06,0
4.8439,-3.3738e-05,0
4.8444,-6.5461e-05,0
4.8449,-7.6036e-05,0
4.8455,-7.805e-05,0
4.846,-8.2414e-05,0
4.8465,-8.8121e-05,0
4.847,-9.4835e-05,0
4.8475,-9.836e-05,0
4.8481,-7.9728e-05,0
4.8486,-2.0813e-05,0
4.8491,5.7572e-05,0
4.8496,0.00011917,0
4.8501,0.0001415,0
4.8507,0.00011699,0
4.8512,6.5629e-05,0
4.8517,1.2421e-05,0
4.8522,-4.0787e-05,0
4.8527,-7.5532e-05,0
4.8533,-7.6371e-05,0
4.8538,-5.2537e-05,0
4.8543,-2.3835e-05,0
4.8548,7.8889e-06,0
4.8553,4.6494e-05,0
4.8558,7.5532e-05,0
4.8564,7.57e-05,0
4.8569,4.6494e-05,0
4.8574,1.9303e-05,0
4.8579,1.1917e-05,0
4.8584,1.0575e-05,0
4.859,3.5248e-06,0
4.8595,-6.8818e-06,0
4.86,-4.1794e-05,0
4.8605,-0.00010172,0
4.861,-0.00013529,0
4.8616,-0.00011649,0
4.8621,-6.6804e-05,0
4.8626,-2.4002e-05,0
4.8631,-2.8534e-06,0
4.8636,5.539e-06,0
4.8642,2.1317e-05,0
4.8647,5.0355e-05,0
4.8652,7.6371e-05,0
4.8657,9.7688e-05,0
4.8662,0.00011095,0
4.8667,0.00010961,0
4.8673,0.00012203,0
4.8678,0.00017943,0
4.8683,0.00026352,0
4.8688,0.00032076,0
4.8693,0.00030649,0
4.8699,0.00022979,0
4.8704,0.00013747,0
4.8709,5.8915e-05,0
4.8714,3.8605e-06,0
4.8719,-1.2085e-05,0
4.8725,1.2421e-05,0
4.873,4.213e-05,0
4.8735,3.8437e-05,0
4.874,-3.357e-07,0
4.8745,-4.4984e-05,0
4.8751,-7.3182e-05,0
4.8756,-9.0471e-05,0
4.8761,-0.00010407,0
4.8766,-0.00010893,0
4.8771,-9.752e-05,0
4.8777,-7.8386e-05,0
4.8782,-6.8986e-05,0
4.8787,-6.4958e-05,0
4.8792,-5.2201e-05,0
4.8797,-2.5345e-05,0
4.8803,9.7353e-06,0
4.8808,3.6759e-05,0
4.8813,5.4551e-05,0
4.8818,7.0329e-05,0
4.8823,7.7043e-05,0
4.8828,6.7643e-05,0
4.8834,5.3376e-05,0
4.8839,5.5558e-05,0
4.8844,7.9561e-05,0
4.8849,0.00010256,0
4.8854,0.00010323,0
4.886,7.6539e-05,0
4.8865,4.2802e-05,0
4.887,1.2589e-05,0
4.8875,-2.6688e-05,0
4.888,-7.7546e-05,0
4.8886,-0.00012136,0
4.8891,-0.00014939,0
4.8896,-0.000166,0
4.8901,-0.00017977,0
4.8906,-0.00018833,0
4.8912,-0.00018682,0
4.8917,-0.00018144,0
4.8922,-0.00017406,0
4.8927,-0.00015811,0
4.8932,-0.00012404,0
4.8937,-6.5126e-05,0
4.8943,8.896e-06,0
4.8948,7.3686e-05,0
4.8953,0.00013143,0
4.8958,0.00019454,0
4.8963,0.00026889,0
4.8969,0.00033603,0
4.8974,0.00037783,0
4.8979,0.00037665,0
4.8984,0.00032815,0
4.8989,0.0002548,0
4.8995,0.00018967,0
4.9,0.00014351,0
4.9005,0.00010457,0
4.901,6.2943e-05,0
4.9015,1.7121e-05,0
4.9021,-4.213e-05,0
4.9026,-0.00011464,0
4.9031,-0.0001566,0
4.9036,-0.00014871,0
4.9041,-0.00010994,0
4.9047,-6.6972e-05,0
4.9052,-3.9109e-05,0
4.9057,-2.8031e-05,0
4.9062,-3.357e-05,0
4.9067,-4.5319e-05,0
4.9073,-4.5487e-05,0
4.9078,-2.7863e-05,0
4.9083,-6.714e-07,0
4.9088,2.3835e-05,0
4.9093,2.5345e-05,0
4.9098,6.2104e-06,0
4.9104,3.357e-07,0
4.9109,2.3667e-05,0
4.9114,5.8244e-05,0
4.9119,7.9561e-05,0
4.9124,6.9657e-05,0
4.913,3.0213e-05,0
4.9135,4.8676e-06,0
4.914,1.0575e-05,0
4.9145,2.2156e-05,0
4.915,1.6785e-05,0
4.9156,-1.0407e-05,0
4.9161,-5.3544e-05,0
4.9166,-8.7449e-05,0
4.9171,-9.4163e-05,0
4.9176,-7.1e-05,0
4.9182,-2.4842e-05,0
4.9187,2.1988e-05,0
4.9192,4.3809e-05,0
4.9197,4.448e-05,0
4.9202,5.3544e-05,0
4.9207,8.3421e-05,0
4.9213,0.00011061,0
4.9218,0.00010558,0
4.9223,7.2007e-05,0
4.9228,2.501e-05,0
4.9233,-3.508e-05,0
4.9239,-9.3156e-05,0
4.9244,-0.00011514,0
4.9249,-9.3828e-05,0
4.9254,-5.6565e-05,0
4.9259,-1.8463e-05,0
4.9265,2.4002e-05,0
4.927,7.5364e-05,0
4.9275,0.00013529,0
4.928,0.00019084,0
4.9285,0.00022643,0
4.9291,0.00024019,0
4.9296,0.00022744,0
4.9301,0.00018648,0
4.9306,0.0001321,0
4.9311,8.04e-05,0
4.9317,3.8941e-05,0
4.9322,6.8818e-06,0
4.9327,-2.501e-05,0
4.9332,-6.0761e-05,0
4.9337,-8.275e-05,0
4.9342,-7.2007e-05,0
4.9348,-3.6759e-05,0
4.9353,3.0213e-06,0
4.9358,1.796e-05,0
4.9363,-2.0142e-06,0
4.9368,-4.3473e-05,0
4.9374,-8.2918e-05,0
4.9379,-9.6513e-05,0
4.9384,-7.4861e-05,0
4.9389,-3.0381e-05,0
4.9394,1.0575e-05,0
4.94,2.6688e-05,0
4.9405,5.2033e-06,0
4.941,-3.2898e-05,0
4.9415,-4.5823e-05,0
4.942,-2.5345e-05,0
4.9426,1.6281e-05,0
4.9431,6.0258e-05,0
4.9436,7.8721e-05,0
4.9441,5.7404e-05,0
4.9446,1.7624e-05,0
4.9452,-1.2924e-05,0
4.9457,-2.6184e-05,0
4.9462,-3.8102e-05,0
4.9467,-5.9586e-05,0
4.9472,-7.5364e-05,0
4.9478,-8.1743e-05,0
4.9483,-0.00011229,0
4.9488,-0.00017221,0
4.9493,-0.00019873,0
4.9498,-0.00015627,0
4.9503,-6.1433e-05,0
4.9509,3.2563e-05,0
4.9514,7.5364e-05,0
4.9519,5.8244e-05,0
4.9524,3.0045e-05,0
4.9529,4.2466e-05,0
4.9535,9.6513e-05,0
4.954,0.00016953,0
4.9545,0.00024204,0
4.955,0.00027846,0
4.9555,0.00025631,0
4.9561,0.00019857,0
4.9566,0.00014066,0
4.9571,0.00010826,0
4.9576,0.00010306,0
4.9581,9.0806e-05,0
4.9587,5.623e-05,0
4.9592,2.501e-05,0
4.9597,1.7121e-05,0
4.9602,2.8367e-05,0
4.9607,3.3066e-05,0
4.9612,1.1917e-05,0
4.9618,-1.8967e-05,0
4.9623,-4.9851e-05,0
4.9628,-8.2414e-05,0
4.9633,-0.00012589,0
4.9638,-0.0002083,0
4.9644,-0.0003211,0
4.9649,-0.00039126,0
4.9654,-0.00035232,0
4.9659,-0.00023499,0
4.9664,-0.00013277,0
4.967,-5.4551e-05,0
4.9675,1.1582e-05,0
4.968,2.652e-05,0
4.9685,1.1749e-05,0
4.969,4.8173e-05,0
4.9696,0.00015895,0
4.9701,0.00029525,0
4.9706,0.0003973,0
4.9711,0.00044211,0
4.9716,0.00044833,0
4.9722,0.00046175,0
4.9727,0.00049297,0
4.9732,0.00051077,0
4.9737,0.00049197,0
4.9742,0.00040385,0
4.9748,0.00023851,0
4.9753,4.1794e-05,0
4.9758,-0.0001425,0
4.9763,-0.00027662,0
4.9768,-0.0003305,0
4.9773,-0.00030918,0
4.9779,-0.0002407,0
4.9784,-0.00015761,0
4.9789,-9.5338e-05,0
4.9794,-7.5029e-05,0
4.9799,-7.2679e-05,0
4.9805,-5.069e-05,0
4.981,-3.3402e-05,0
4.9815,-5.5726e-05,0
4.982,-9.9535e-05,0
4.9825,-0.00012773,0
4.9831,-0.00012236,0
4.9836,-7.0665e-05,0
4.9841,2.7695e-05,0
4.9846,0.00011296,0
4.9851,0.00013646,0
4.9857,0.00011649,0
4.9862,6.8315e-05,0
4.9867,2.2324e-05,0
4.9872,6.3783e-06,0
4.9877,1.8631e-05,0
4.9882,4.1459e-05,0
4.9888,5.3376e-05,0
4.9893,5.9586e-05,0
4.9898,7.6707e-05,0
4.9903,8.9632e-05,0
4.9908,9.6178e-05,0
4.9914,0.00010474,0
4.9919,9.7856e-05,0
4.9924,6.7643e-05,0
4.9929,3.1052e-05,0
4.9934,-1.4267e-05,0
4.994,-7.0665e-05,0
4.9945,-0.00014788,0
4.995,-0.00021854,0
4.9955,-0.00024321,0
4.996,-0.00022307,0
4.9966,-0.00014855,0
4.9971,-3.0045e-05,0
4.9976,8.7114e-05,0
4.9981,0.00017104,0
4.9986,0.00022072,0
4.9992,0.00025127,0
4.9997,0.00026638,0
5.0002,0.00027108,0
5.0007,0.00027913,0
5.0012,0.00027846,0
5.0018,0.00024489,0
5.0023,0.00017977,0
5.0028,9.1814e-05,0
5.0033,-1.2085e-05,0
5.0038,-9.4163e-05,0
5.0043,-0.00011867,0
5.0049,-0.0001232,0
5.0054,-0.00015879,0
5.0059,-0.00020041,0
5.0064,-0.00021183,0
5.0069,-0.00018363,0
5.0075,-0.00013898,0
5.008,-0.00010692,0
5.0085,-9.8192e-05,0
5.009,-9.3324e-05,0
5.0095,-7.8721e-05,0
5.0101,-4.6159e-05,0
5.0106,1.5946e-05,0
5.0111,7.9057e-05,0
5.0116,8.1743e-05,0
5.0121,1.326e-05,0
5.0127,-9.2988e-05,0
5.0132,-0.00020964,0
5.0137,-0.00030146,0
5.0142,-0.00031824,0
5.0147,-0.00025379,0
5.0152,-0.00016281,0
5.0158,-0.00010541,0
5.0163,-9.1981e-05,0
5.0168,-6.5797e-05,0
5.0173,3.3066e-05,0
5.0178,0.00017742,0
5.0184,0.00029693,0
5.0189,0.00032949,0
5.0194,0.00026403,0
5.0199,0.00019084,0
5.0204,0.00016214,0
5.021,0.00012874,0
5.0215,6.2943e-05,0
5.022,-7.5532e-06,0
5.0225,-5.0187e-05,0
5.023,-6.244e-05,0
5.0236,-6.0594e-05,0
5.0241,-3.978e-05,0
5.0246,4.0452e-05,0
5.0251,0.00019773,0
5.0256,0.00032932,0
5.0262,0.0003315,0
5.0267,0.00023264,0
5.0272,0.0001284,0
5.0277,7.3686e-05,0
5.0282,5.4719e-05,0
5.0287,3.3066e-05,0
5.0293,1.6617e-05,0
5.0298,1.3931e-05,0
5.0303,1.5106e-06,0
5.0308,-2.1653e-05,0
5.0313,-3.2395e-05,0
5.0319,-2.0981e-05,0
5.0324,-1.1917e-05,0
5.0329,-1.6281e-05,0
5.0334,-6.2104e-06,0
5.0339,2.1653e-05,0
5.0345,3.0716e-05,0
5.035,2.031e-05,0
5.0355,3.0045e-05,0
5.036,7.2343e-05,0
5.0365,6.7811e-05,0
5.0371,-3.6423e-05,0
5.0376,-0.00019051,0
5.0381,-0.00029189,0
5.0386,-0.0002892,0
5.0391,-0.00022744,0
5.0397,-0.00016953,0
5.0402,-0.0001284,0
5.0407,-9.6178e-05,0
5.0412,-7.2679e-05,0
5.0417,-8.1407e-05,0
5.0423,-7.5532e-05,0
5.0428,1.8631e-05,0
5.0433,0.00018447,0
5.0438,0.00033553,0
5.0443,0.00039629,0
5.0448,0.00034359,0
5.0454,0.00024422,0
5.0459,0.00017238,0
5.0464,0.00015828,0
5.0469,0.00019521,0
5.0474,0.0002647,0
5.048,0.00031807,0
5.0485,0.0002939,0
5.049,0.00017507,0
5.0495,-5.7069e-06,0
5.05,-0.00018782,0
5.0506,-0.00031757,0
5.0511,-0.00035886,0
5.0516,-0.00032915,0
5.0521,-0.00026889,0
5.0526,-0.00019152,0
5.0532,-8.51e-05,0
5.0537,6.8986e-05,0
5.0542,0.00026822,0
5.0547,0.00043893,0
5.0552,0.00049247,0
5.0557,0.00042348,0
5.0563,0.00029088,0
5.0568,0.00016466,0
5.0573,7.4357e-05,0
5.0578,-6.714e-07,0
5.0583,-8.2078e-05,0
5.0589,-0.00018178,0
5.0594,-0.00028685,0
5.0599,-0.00036054,0
5.0604,-0.00040485,0
5.0609,-0.00040502,0
5.0615,-0.00027947,0
5.062,-6.0761e-05,0
5.0625,0.00010188,0
5.063,0.00013445,0
5.0635,9.366e-05,0
5.0641,8.3421e-05,0
5.0646,0.0001472,0
5.0651,0.00024422,0
5.0656,0.00031489,0
5.0661,0.00034073,0
5.0667,0.00030498,0
5.0672,0.00017171,0
5.0677,1.1749e-06,0
5.0682,-8.9799e-05,0
5.0687,-8.7282e-05,0
5.0693,-6.5461e-05,0
5.0698,-7.0665e-05,0
5.0703,-9.9535e-05,0
5.0708,-0.00012169,0
5.0713,-0.00011028,0
5.0718,-7.0497e-05,0
5.0724,-3.8773e-05,0
5.0729,-3.9109e-05,0
5.0734,-7.4693e-05,0
5.0739,-0.00010591,0
5.0744,-8.3421e-05,0
5.075,-6.2104e-06,0
5.0755,8.9799e-05,0
5.076,0.00016399,0
5.0765,0.00019387,0
5.077,0.00017977,0
5.0776,0.00012438,0
5.0781,5.1698e-05,0
5.0786,7.2175e-06,0
5.0791,-2.3331e-05,0
5.0796,-8.4092e-05,0
5.0802,-0.00015862,0
5.0807,-0.000165,0
5.0812,-4.5151e-05,0
5.0817,9.0974e-05,0
5.0822,0.00011666,0
5.0827,5.1194e-05,0
5.0833,-8.2246e-06,0
5.0838,-1.8967e-05,0
5.0843,-1.4603e-05,0
5.0848,-3.9277e-05,0
5.0853,-7.5868e-05,0
5.0859,-0.00010054,0
5.0864,-0.00012605,0
5.0869,-0.00015946,0
5.0874,-0.00016919,0
5.0879,-0.00012639,0
5.0885,-5.8915e-05,0
5.089,-3.357e-07,0
5.0895,6.1601e-05,0
5.09,0.00012572,0
5.0905,0.000165,0
5.0911,0.00014133,0
5.0916,4.5319e-05,0
5.0921,-5.7908e-05,0
5.0926,-0.00010356,0
5.0931,-8.3757e-05,0
5.0937,-1.5778e-05,0
5.0942,7.4357e-05,0
5.0947,0.00014821,0
5.0952,0.00017977,0
5.0957,0.00017087,0
5.0963,0.00016751,0
5.0968,0.00016667,0
5.0973,0.00011833,0
5.0978,2.8702e-05,0
5.0983,-4.6662e-05,0
5.0988,-6.8482e-05,0
5.0994,-3.1052e-05,0
5.0999,2.2492e-05,0
5.1004,5.7237e-05,0
5.1009,9.3156e-05,0
5.1014,0.00016432,0
5.102,0.00026033,0
5.1025,0.00033318,0
5.103,0.0003597,0
5.1035,0.00032848,0
5.104,0.00024019,0
5.1046,0.00013075,0
5.1051,6.009e-05,0
5.1056,6.2776e-05,0
5.1061,9.3156e-05,0
5.1066,7.4189e-05,0
5.1072,-2.7359e-05,0
5.1077,-0.00017691,0
5.1082,-0.00028299,0
5.1087,-0.00029726,0
5.1092,-0.00025496,0
5.1098,-0.0001843,0
5.1103,-0.00010021,0
5.1108,-3.5248e-06,0
5.1113,8.04e-05,0
5.1118,0.00012639,0
5.1123,0.00013747,0
5.1129,0.00013075,0
5.1134,0.00012505,0
5.1139,0.00011984,0
5.1144,9.5171e-05,0
5.1149,1.1749e-05,0
5.1155,-9.7353e-05,0
5.116,-0.00015979,0
5.1165,-0.00015996,0
5.117,-0.00014099,0
5.1175,-0.00015274,0
5.1181,-0.00018111,0
5.1186,-0.00017675,0
5.1191,-0.00012203,0
5.1196,-3.7766e-05,0
5.1201,4.0787e-05,0
5.1207,8.4932e-05,0
5.1212,0.00010843,0
5.1217,0.00012622,0
5.1222,0.00012807,0
5.1227,0.00010726,0
5.1232,7.4357e-05,0
5.1238,4.4816e-05,0
5.1243,1.4939e-05,0
5.1248,-3.1724e-05,0
5.1253,-0.00011733,0
5.1258,-0.00022089,0
5.1264,-0.00026688,0
5.1269,-0.00023381,0
5.1274,-0.00017087,0
5.1279,-0.00012538,0
5.1284,-9.6849e-05,0
5.129,-5.8915e-05,0
5.1295,1.6281e-05,0
5.13,0.00013915,0
5.1305,0.00028383,0
5.131,0.00037514,0
5.1316,0.00036876,0
5.1321,0.0002939,0
5.1326,0.00018698,0
5.1331,8.1071e-05,0
5.1336,3.9109e-05,0
5.1342,3.7934e-05,0
5.1347,-1.8463e-05,0
5.1352,-0.00011481,0
5.1357,-0.00017473,0
5.1362,-0.00016399,0
5.1368,-9.9535e-05,0
5.1373,-2.9038e-05,0
5.1378,1.1078e-05,0
5.1383,4.2466e-05,0
5.1388,8.8289e-05,0
5.1393,0.00012807,0
5.1399,0.00014452,0
5.1404,0.00014015,0
5.1409,0.0001425,0
5.1414,0.00017641,0
5.1419,0.00022005,0
5.1425,0.00022979,0
5.143,0.00019756,0
5.1435,0.00015224,0
5.144,0.00011263,0
5.1445,7.8386e-05,0
5.1451,4.9012e-05,0
5.1456,2.1317e-05,0
5.1461,-4.1962e-06,0
5.1466,-2.2995e-05,0
5.1471,-4.1794e-05,0
5.1477,-7.335e-05,0
5.1482,-0.00012992,0
5.1487,-0.00019521,0
5.1492,-0.00023365,0
5.1497,-0.00023398,0
5.1502,-0.00020377,0
5.1508,-0.00016466,0
5.1513,-0.00014519,0
5.1518,-0.00014855,0
5.1523,-0.00015291,0
5.1528,-0.00013478,0
5.1534,-8.896e-05,0
5.1539,-4.448e-05,0
5.1544,-1.2421e-05,0
5.1549,1.1078e-05,0
5.1554,1.8799e-05,0
5.156,-6.0426e-06,0
5.1565,-4.213e-05,0
5.157,-4.5487e-05,0
5.1575,1.0239e-05,0
5.158,0.00010407,0
5.1586,0.00014418,0
5.1591,4.3977e-05,0
5.1596,-0.00015308,0
5.1601,-0.00032798,0
5.1606,-0.00037296,0
5.1612,-0.00025664,0
5.1617,-5.539e-05,0
5.1622,0.00013713,0
5.1627,0.00029424,0
5.1632,0.00042097,0
5.1638,0.00051614,0
5.1643,0.00061752,0
5.1648,0.00073434,0
5.1653,0.00076187,0
5.1658,0.00061953,0
5.1663,0.0003691,0
5.1669,0.00014116,0
5.1674,9.7353e-06,0
5.1679,-3.5752e-05,0
5.1684,-4.8676e-05,0
5.1689,-6.7308e-05,0
5.1695,-9.5338e-05,0
5.17,-0.00011414,0
5.1705,-0.00010222,0
5.171,-6.7811e-05,0
5.1715,-3.7766e-05,0
5.1721,-5.0355e-05,0
5.1726,-0.00011363,0
5.1731,-0.00016399,0
5.1736,-0.00014888,0
5.1741,-8.5771e-05,0
5.1747,-2.3163e-05,0
5.1752,3.8605e-06,0
5.1757,-3.1891e-06,0
5.1762,-1.0407e-05,0
5.1767,-2.0142e-06,0
5.1772,1.561e-05,0
5.1778,3.8773e-05,0
5.1783,4.0955e-05,0
5.1788,2.8534e-06,0
5.1793,-5.0187e-05,0
5.1798,-8.51e-05,0
5.1804,-9.0806e-05,0
5.1809,-8.2078e-05,0
5.1814,-7.1336e-05,0
5.1819,-6.3951e-05,0
5.1824,-5.3208e-05,0
5.183,-3.9109e-05,0
5.1835,-3.3402e-05,0
5.184,-4.2298e-05,0
5.1845,-6.2104e-05,0
5.185,-0.00010155,0
5.1856,-0.00016802,0
5.1861,-0.00022089,0
5.1866,-0.00019789,0
5.1871,-0.00010524,0
5.1876,-3.1891e-05,0
5.1882,-3.7095e-05,0
5.1887,-6.865e-05,0
5.1892,-4.2466e-05,0
5.1897,6.865e-05,0
5.1902,0.00023684,0
5.1908,0.00041207,0
5.1913,0.00052016,0
5.1918,0.00049599,0
5.1923,0.00035903,0
5.1928,0.00020897,0
5.1933,0.00011632,0
5.1939,7.1839e-05,0
5.1944,3.6423e-05,0
5.1949,6.3783e-06,0
5.1954,-2.8534e-06,0
5.1959,-1.4939e-05,0
5.1965,-3.8102e-05,0
5.197,-3.1052e-05,0
5.1975,3.357e-07,0
5.198,8.2246e-06,0
5.1985,-4.8676e-06,0
5.1991,-1.6281e-05,0
5.1996,-1.0239e-05,0
5.2001,1.5946e-05,0
5.2006,2.8534e-06,0
5.2011,-9.5506e-05,0
5.2017,-0.00021619,0
5.2022,-0.00029793,0
5.2027,-0.00034879,0
5.2032,-0.00035953,0
5.2037,-0.00030213,0
5.2043,-0.00017171,0
5.2048,1.1078e-05,0
5.2053,0.00019487,0
5.2058,0.00030263,0
5.2063,0.0002892,0
5.2068,0.0002036,0
5.2074,0.00014334,0
5.2079,0.00015828,0
5.2084,0.00020293,0
5.2089,0.00020192,0
5.2094,0.00012337,0
5.21,2.5177e-06,0
5.2105,-8.6778e-05,0
5.211,-0.00011028,0
5.2115,-8.0064e-05,0
5.212,-2.2492e-05,0
5.2126,3.8437e-05,0
5.2131,8.5603e-05,0
5.2136,0.00011565,0
5.2141,0.00014754,0
5.2146,0.00021048,0
5.2152,0.00028484,0
5.2157,0.00031472,0
5.2162,0.00027779,0
5.2167,0.00019823,0
5.2172,0.00010591,0
5.2177,2.2995e-05,0
5.2183,-4.3305e-05,0
5.2188,-8.8792e-05,0
5.2193,-0.00010759,0
5.2198,-9.9535e-05,0
5.2203,-8.5435e-05,0
5.2209,-8.2918e-05,0
5.2214,-0.00010323,0
5.2219,-0.00013764,0
5.2224,-0.000166,0
5.2229,-0.00018346,0
5.2235,-0.00019185,0
5.224,-0.00019017,0
5.2245,-0.00016634,0
5.225,-9.4835e-05,0
5.2255,3.4913e-05,0
5.2261,0.00017926,0
5.2266,0.00026738,0
5.2271,0.00027175,0
5.2276,0.00021871,0
5.2281,0.00014469,0
5.2287,4.8676e-05,0
5.2292,-5.3544e-05,0
5.2297,-0.00013596,0
5.2302,-0.00019135,0
5.2307,-0.00018514,0
5.2313,-0.00012136,0
5.2318,-9.9535e-05,0
5.2323,-0.00015946,0
5.2328,-0.00020595,0
5.2333,-0.00016533,0
5.2338,-7.8721e-05,0
5.2344,-5.539e-06,0
5.2349,6.6636e-05,0
5.2354,0.00019051,0
5.2359,0.0003456,0
5.2364,0.00044564,0
5.237,0.0004396,0
5.2375,0.00035634,0
5.238,0.00025563,0
5.2385,0.00017339,0
5.239,0.0001044,0
5.2396,4.2466e-05,0
5.2401,-3.8605e-06,0
5.2406,-2.8702e-05,0
5.2411,-3.2395e-05,0
5.2416,-3.0381e-05,0
5.2422,-4.7837e-05,0
5.2427,-9.2653e-05,0
5.2432,-0.00013478,0
5.2437,-0.00014922,0
5.2442,-0.00014301,0
5.2447,-0.00013025,0
5.2453,-0.00012572,0
5.2458,-0.00013646,0
5.2463,-0.00016298,0
5.2468,-0.00018027,0
5.2473,-0.00015593,0
5.2479,-8.4764e-05,0
5.2484,3.8605e-06,0
5.2489,5.9586e-05,0
5.2494,8.1407e-05,0
5.2499,0.00011095,0
5.2505,0.00016466,0
5.251,0.00022727,0
5.2515,0.00025899,0
5.252,0.00023281,0
5.2525,0.00017977,0
5.2531,0.00012874,0
5.2536,7.6036e-05,0
5.2541,1.8128e-05,0
5.2546,-4.2466e-05,0
5.2551,-8.7449e-05,0
5.2557,-9.836e-05,0
5.2562,-6.8986e-05,0
5.2567,-1.091e-05,0
5.2572,4.5487e-05,0
5.2577,7.2679e-05,0
5.2583,8.661e-05,0
5.2588,7.8386e-05,0
5.2593,3.7934e-05,0
5.2598,9.5674e-06,0
5.2603,7.5532e-06,0
5.2608,1.8631e-05,0
5.2614,5.539e-06,0
5.2619,-6.1433e-05,0
5.2624,-0.00015023,0
5.2629,-0.00021401,0
5.2634,-0.00023734,0
5.264,-0.00021434,0
5.2645,-0.00014083,0
5.265,-3.0549e-05,0
5.2655,7.5532e-05,0
5.266,0.00015727,0
5.2666,0.00023214,0
5.2671,0.00029693,0
5.2676,0.00031405,0
5.2681,0.00027578,0
5.2686,0.00021334,0
5.2692,0.0001556,0
5.2697,0.00010944,0
5.2702,6.2104e-05,0
5.2707,1.1917e-05,0
5.2712,-2.2995e-05,0
5.2717,-4.0787e-05,0
5.2723,-5.3544e-05,0
5.2728,-6.8818e-05,0
5.2733,-8.4092e-05,0
5.2738,-9.2988e-05,0
5.2743,-8.3085e-05,0
5.2749,-5.1194e-05,0
5.2754,-2.2995e-05,0
5.2759,-2.3667e-05,0
5.2764,-4.6159e-05,0
5.2769,-6.2608e-05,0
5.2775,-6.4622e-05,0
5.278,-7.3014e-05,0
5.2785,-9.5506e-05,0
5.279,-9.5171e-05,0
5.2795,-5.9419e-05,0
5.2801,-1.1246e-05,0
5.2806,2.3163e-05,0
5.2811,3.8437e-05,0
5.2816,3.827e-05,0
5.2821,2.182e-05,0
5.2827,1.1582e-05,0
5.2832,2.6352e-05,0
5.2837,5.2537e-05,0
5.2842,5.7908e-05,0
5.2847,3.0045e-05,0
5.2852,-1.9638e-05,0
5.2858,-9.6178e-05,0
5.2863,-0.00018547,0
5.2868,-0.00024993,0
5.2873,-0.00023835,0
5.2878,-0.00014401,0
5.2884,-2.4506e-05,0
5.2889,5.3208e-05,0
5.2894,4.2802e-05,0
5.2899,-8.3925e-07,0
5.2904,3.592e-05,0
5.291,0.00018581,0
5.2915,0.00036272,0
5.292,0.00046813,0
5.2925,0.00047518,0
5.293,0.00042416,0
5.2936,0.00036306,0
5.2941,0.00029928,0
5.2946,0.00023079,0
5.2951,0.00016197,0
5.2956,7.7043e-05,0
5.2962,-1.796e-05,0
5.2967,-9.1814e-05,0
5.2972,-0.00014049,0
5.2977,-0.00016886,0
5.2982,-0.00017557,0
5.2988,-0.0001603,0
5.2993,-0.00012572,0
5.2998,-6.6133e-05,0
5.3003,2.4002e-05,0
5.3008,0.00013445,0
5.3013,0.00022039,0
5.3019,0.00022106,0
5.3024,0.0001368,0
5.3029,3.8437e-05,0
5.3034,-1.561e-05,0
5.3039,-3.3066e-05,0
5.3045,-7.0497e-05,0
5.305,-0.00015744,0
5.3055,-0.00023197,0
5.306,-0.00023012,0
5.3065,-0.00015895,0
5.3071,-5.5222e-05,0
5.3076,2.9206e-05,0
5.3081,7.2679e-05,0
5.3086,8.9128e-05,0
