68.891,0.00033217,0
68.892,0.00017742,0
68.892,3.2731e-05,0
68.893,-3.978e-05,0
68.893,-8.0903e-05,0
68.894,-0.00015207,0
68.894,-0.00025798,0
68.895,-0.00034929,0
68.895,-0.00034946,0
68.896,-0.00024926,0
68.896,-0.00013109,0
68.897,-2.7695e-05,0
68.897,0.00010675,0
68.898,0.00023314,0
68.898,0.00025144,0
68.899,0.00015023,0
68.899,-2.0142e-06,0
68.9,-0.00014401,0
68.9,-0.00024405,0
68.901,-0.00030481,0
68.901,-0.00032747,0
68.902,-0.00031304,0
68.902,-0.00022223,0
68.903,-5.2873e-05,0
68.903,9.6345e-05,0
68.904,0.00015526,0
68.905,0.0001519,0
68.905,0.00013344,0
68.906,0.00011128,0
68.906,8.04e-05,0
68.907,4.7837e-05,0
68.907,1.5106e-06,0
68.908,-8.2918e-05,0
68.908,-0.00019185,0
68.909,-0.00025765,0
68.909,-0.00023281,0
68.91,-0.00014183,0
68.91,-3.2059e-05,0
68.911,9.0471e-05,0
68.911,0.00022542,0
68.912,0.00030448,0
68.912,0.00028685,0
68.913,0.00020897,0
68.913,7.9561e-05,0
68.914,-7.9225e-05,0
68.914,-0.00017137,0
68.915,-0.00016483,0
68.915,-0.00010893,0
68.916,-3.7095e-05,0
68.916,5.6901e-05,0
68.917,0.00015056,0
68.918,0.00020981,0
68.918,0.0002506,0
68.919,0.00028585,0
68.919,0.00028585,0
68.92,0.00020142,0
68.92,6.4958e-05,0
68.921,-4.9851e-05,0
68.921,-0.00010423,0
68.922,-0.00010323,0
68.922,-9.366e-05,0
68.923,-8.3085e-05,0
68.923,-3.1052e-05,0
68.924,4.6159e-05,0
68.924,8.9128e-05,0
68.925,0.00011766,0
68.925,0.00022408,0
68.926,0.00041946,0
68.926,0.00058193,0
68.927,0.00058059,0
68.927,0.00041173,0
68.928,0.00017238,0
68.928,-4.448e-05,0
68.929,-0.00020847,0
68.929,-0.0003268,0
68.93,-0.00041895,0
68.93,-0.00048089,0
68.931,-0.00045403,0
68.932,-0.00032462,0
68.932,-0.00016197,0
68.933,-6.3279e-05,0
68.933,-5.8579e-05,0
68.934,-9.5506e-05,0
68.934,-0.00011716,0
68.935,-9.6681e-05,0
68.935,-3.8102e-05,0
68.936,4.1962e-06,0
68.936,-1.7456e-05,0
68.937,-5.5894e-05,0
68.937,-5.388e-05,0
68.938,-1.561e-05,0
68.938,5.2537e-05,0
68.939,0.00016902,0
68.939,0.0003268,0
68.94,0.00045303,0
68.94,0.00046175,0
68.941,0.00033754,0
68.941,0.00016533,0
68.942,4.3137e-05,0
68.942,-2.1485e-05,0
68.943,-6.8818e-05,0
68.943,-0.00013227,0
68.944,-0.00018212,0
68.945,-0.00012622,0
68.945,4.4816e-05,0
68.946,0.00022408,0
68.946,0.00029911,0
68.947,0.00023516,0
68.947,9.4163e-05,0
68.948,-6.1936e-05,0
68.948,-0.00022425,0
68.949,-0.00039126,0
68.949,-0.0005064,0
68.95,-0.00048055,0
68.95,-0.0003127,0
68.951,-9.4163e-05,0
68.951,9.4331e-05,0
68.952,0.00022106,0
68.952,0.00026386,0
68.953,0.00023348,0
68.953,0.0001791,0
68.954,0.00014015,0
68.954,0.00012303,0
68.955,9.1814e-05,0
68.955,2.4002e-05,0
68.956,-5.2705e-05,0
68.956,-0.00012706,0
68.957,-0.00018077,0
68.957,-0.00019068,0
68.958,-0.00014519,0
68.959,-7.2007e-05,0
68.959,-1.7456e-05,0
68.96,1.091e-05,0
68.96,9.0806e-05,0
68.961,0.00024842,0
68.961,0.00038102,0
68.962,0.00044228,0
68.962,0.00044161,0
68.963,0.00036843,0
68.963,0.00021602,0
68.964,-1.8967e-05,0
68.964,-0.00034929,0
68.965,-0.00066653,0
68.965,-0.00072712,0
68.966,-0.0004453,0
68.966,-5.8412e-05,0
68.967,0.00018698,0
68.967,0.00025362,0
68.968,0.00023214,0
68.968,0.0001895,0
68.969,0.00012438,0
68.969,4.1627e-05,0
68.97,1.8296e-05,0
68.97,7.0665e-05,0
68.971,0.00011531,0
68.972,0.00011347,0
68.972,9.3828e-05,0
68.973,6.7643e-05,0
68.973,2.0645e-05,0
68.974,-5.0523e-05,0
68.974,-0.00011699,0
68.975,-0.00014485,0
68.975,-0.00012706,0
68.976,-8.0735e-05,0
68.976,-2.4002e-05,0
68.977,2.5345e-05,0
68.977,5.3544e-05,0
68.978,6.2776e-05,0
68.978,6.1601e-05,0
68.979,5.7404e-05,0
68.979,5.8412e-05,0
68.98,8.3925e-05,0
68.98,0.00014217,0
68.981,0.00019857,0
68.981,0.00019689,0
68.982,0.00012589,0
68.982,3.4409e-05,0
68.983,-3.4745e-05,0
68.983,-8.6107e-05,0
68.984,-0.00012874,0
68.984,-0.00012589,0
68.985,-4.918e-05,0
68.986,7.1336e-05,0
68.986,0.0001791,0
68.987,0.00023482,0
68.987,0.00024288,0
68.988,0.00022139,0
68.988,0.00016768,0
68.989,0.00010692,0
68.989,7.2679e-05,0
68.99,5.7069e-05,0
68.99,4.0116e-05,0
68.991,2.887e-05,0
68.991,3.7934e-05,0
68.992,5.1362e-05,0
68.992,3.6591e-05,0
68.993,7.3854e-06,0
68.993,-1.5274e-05,0
68.994,-3.4073e-05,0
68.994,-4.6159e-05,0
68.995,-4.9851e-05,0
68.995,-4.7166e-05,0
68.996,-3.1388e-05,0
68.996,-6.8818e-06,0
68.997,2.9877e-05,0
68.997,7.5029e-05,0
68.998,7.9728e-05,0
68.999,2.5849e-05,0
68.999,-3.6423e-05,0
69,-8.0735e-05,0
69,-0.000118,0
69.001,-0.00012404,0
69.001,-6.9657e-05,0
69.002,2.8199e-05,0
69.002,0.00011666,0
69.003,0.00016768,0
69.003,0.00018984,0
69.004,0.00019252,0
69.004,0.00017389,0
69.005,0.00016147,0
69.005,0.00013445,0
69.006,5.8915e-05,0
69.006,-4.3809e-05,0
69.007,-0.00013545,0
69.007,-0.00019403,0
69.008,-0.00021099,0
69.008,-0.00022576,0
69.009,-0.00027309,0
69.009,-0.00032177,0
69.01,-0.00029961,0
69.01,-0.00017826,0
69.011,-3.7598e-05,0
69.011,2.9877e-05,0
69.012,1.2589e-05,0
69.013,-5.1194e-05,0
69.013,-0.00011666,0
69.014,-0.00013243,0
69.014,-8.1743e-05,0
69.015,5.2033e-06,0
69.015,8.04e-05,0
69.016,0.00011766,0
69.016,0.00012169,0
69.017,0.00011162,0
69.017,0.00010658,0
69.018,0.0001133,0
69.018,0.00012874,0
69.019,0.00014049,0
69.019,0.00013545,0
69.02,0.00012253,0
69.02,0.00013646,0
69.021,0.00016701,0
69.021,0.00018228,0
69.022,0.00022911,0
69.022,0.00033687,0
69.023,0.00039411,0
69.023,0.00031371,0
69.024,0.0001472,0
69.024,1.0071e-06,0
69.025,-0.0001133,0
69.025,-0.00026033,0
69.026,-0.00044161,0
69.027,-0.00059284,0
69.027,-0.0005915,0
69.028,-0.00036524,0
69.028,-3.9948e-05,0
69.029,0.00017238,0
69.029,0.00020259,0
69.03,0.00014485,0
69.03,9.8024e-05,0
69.031,8.2414e-05,0
69.031,7.7211e-05,0
69.032,7.1336e-05,0
69.032,7.5029e-05,0
69.033,8.7449e-05,0
69.033,9.4499e-05,0
69.034,8.9464e-05,0
69.034,6.865e-05,0
69.035,4.5655e-05,0
69.035,3.6759e-05,0
69.036,4.1459e-05,0
69.036,5.7237e-05,0
69.037,7.2007e-05,0
69.037,8.04e-05,0
69.038,8.3757e-05,0
69.038,8.1239e-05,0
69.039,9.2485e-05,0
69.04,0.00012555,0
69.04,0.00014754,0
69.041,0.00013277,0
69.041,8.2078e-05,0
69.042,1.2589e-05,0
69.042,-5.9922e-05,0
69.043,-0.00010927,0
69.043,-0.00010826,0
69.044,-4.3305e-05,0
69.044,4.8508e-05,0
69.045,9.3492e-05,0
69.045,7.6707e-05,0
69.046,3.8102e-05,0
69.046,2.5177e-06,0
69.047,-4.062e-05,0
69.047,-9.0471e-05,0
69.048,-0.00012085,0
69.048,-0.00011128,0
69.049,-7.8889e-05,0
69.049,-5.6062e-05,0
69.05,-4.4984e-05,0
69.05,-3.3234e-05,0
69.051,-2.4338e-05,0
69.051,-1.6953e-05,0
69.052,-1.8463e-06,0
69.052,2.2324e-05,0
69.053,4.5487e-05,0
69.054,6.0929e-05,0
69.054,6.5965e-05,0
69.055,5.8915e-05,0
69.055,4.7166e-05,0
69.056,3.1724e-05,0
69.056,1.1749e-06,0
69.057,-3.1724e-05,0
69.057,-4.0116e-05,0
69.058,-2.0142e-05,0
69.058,8.5603e-06,0
69.059,2.8534e-05,0
69.059,4.683e-05,0
69.06,7.805e-05,0
69.06,0.00012052,0
69.061,0.00015627,0
69.061,0.00016751,0
69.062,0.00014922,0
69.062,0.00011263,0
69.063,8.2918e-05,0
69.063,7.5029e-05,0
69.064,7.7379e-05,0
69.064,7.0665e-05,0
69.065,4.8173e-05,0
69.065,1.2253e-05,0
69.066,-3.2731e-05,0
69.067,-7.9896e-05,0
69.067,-0.00012538,0
69.068,-0.00016684,0
69.068,-0.00020024,0
69.069,-0.00020797,0
69.069,-0.00017607,0
69.07,-0.00012102,0
69.07,-7.1504e-05,0
69.071,-3.3402e-05,0
69.071,4.1962e-06,0
69.072,5.1865e-05,0
69.072,0.00010373,0
69.073,0.00014334,0
69.073,0.0001655,0
69.074,0.00017708,0
69.074,0.00019554,0
69.075,0.00021871,0
69.075,0.00020259,0
69.076,0.00012522,0
69.076,6.4286e-05,0
69.077,9.1646e-05,0
69.077,0.00013999,0
69.078,0.00012706,0
69.078,4.7333e-05,0
69.079,-6.1097e-05,0
69.079,-0.00016231,0
69.08,-0.00023751,0
69.081,-0.00025412,0
69.081,-0.00020545,0
69.082,-0.00013109,0
69.082,-6.9322e-05,0
69.083,-1.8967e-05,0
69.083,3.2395e-05,0
69.084,8.4428e-05,0
69.084,0.00012337,0
69.085,0.00014401,0
69.085,0.00016751,0
69.086,0.00020595,0
69.086,0.00024355,0
69.087,0.0002365,0
69.087,0.00017842,0
69.088,0.00010088,0
69.088,3.0045e-05,0
69.089,-1.1917e-05,0
69.089,-2.6352e-05,0
69.09,-3.8605e-05,0
69.09,-6.6804e-05,0
69.091,-9.7017e-05,0
69.091,-9.9535e-05,0
69.092,-6.5461e-05,0
69.092,-3.2395e-05,0
69.093,-2.8031e-05,0
69.094,-1.8128e-05,0
69.094,3.2059e-05,0
69.095,0.00010961,0
69.095,0.00017876,0
69.096,0.00020595,0
69.096,0.00019319,0
69.097,0.00017205,0
69.097,0.00015291,0
69.098,0.00012136,0
69.098,8.1743e-05,0
69.099,5.8915e-05,0
69.099,4.1459e-05,0
69.1,6.3783e-06,0
69.1,-4.2298e-05,0
69.101,-7.8889e-05,0
69.101,-7.9393e-05,0
69.102,-5.5055e-05,0
69.102,-5.0523e-05,0
69.103,-8.1239e-05,0
69.103,-0.00010793,0
69.104,-8.0735e-05,0
69.104,-2.2828e-05,0
69.105,1.1917e-05,0
69.105,2.4002e-05,0
69.106,2.417e-05,0
69.106,3.0213e-06,0
69.107,-3.8605e-05,0
69.108,-7.2007e-05,0
69.108,-7.9728e-05,0
69.109,-8.1743e-05,0
69.109,-9.7017e-05,0
69.11,-0.00011263,0
69.11,-0.00010625,0
69.111,-6.0594e-05,0
69.111,1.796e-05,0
69.112,9.8527e-05,0
69.112,0.00015946,0
69.113,0.00020461,0
69.113,0.00022794,0
69.114,0.00021871,0
69.114,0.00017708,0
69.115,0.00013059,0
69.115,0.00010256,0
69.116,8.7449e-05,0
69.116,6.5461e-05,0
69.117,3.4745e-05,0
69.117,2.1317e-05,0
69.118,2.9877e-05,0
69.118,1.4939e-05,0
69.119,-4.8173e-05,0
69.119,-0.00011716,0
69.12,-0.00014418,0
69.121,-0.00013881,0
69.121,-0.00012337,0
69.122,-9.2485e-05,0
69.122,-4.7166e-05,0
69.123,-1.091e-05,0
69.123,5.2033e-06,0
69.124,9.9031e-06,0
69.124,1.2421e-05,0
69.125,1.796e-05,0
69.125,2.4002e-05,0
69.126,2.2995e-05,0
69.126,1.7624e-05,0
69.127,1.9303e-05,0
69.127,2.6352e-05,0
69.128,2.5345e-05,0
69.128,1.6953e-05,0
69.129,1.0071e-06,0
69.129,-3.5248e-05,0
69.13,-9.0471e-05,0
69.13,-0.00013075,0
69.131,-0.0001185,0
69.131,-6.1936e-05,0
69.132,-3.0213e-06,0
69.132,3.3402e-05,0
69.133,4.9012e-05,0
69.133,5.4887e-05,0
69.134,5.623e-05,0
69.135,5.6565e-05,0
69.135,5.9922e-05,0
69.136,7.1e-05,0
69.136,8.3085e-05,0
69.137,8.1743e-05,0
69.137,7.57e-05,0
69.138,8.0903e-05,0
69.138,9.1814e-05,0
69.139,0.00010037,0
69.139,0.00010726,0
69.14,0.00010826,0
69.14,9.366e-05,0
69.141,7.6204e-05,0
69.141,8.0064e-05,0
69.142,9.9031e-05,0
69.142,0.0001086,0
69.143,8.8121e-05,0
69.143,3.7263e-05,0
69.144,-1.9471e-05,0
69.144,-6.6804e-05,0
69.145,-0.00010994,0
69.145,-0.00014116,0
69.146,-0.00013159,0
69.146,-7.8889e-05,0
69.147,-1.3596e-05,0
69.148,4.448e-05,0
69.148,7.9225e-05,0
69.149,7.4861e-05,0
69.149,4.5487e-05,0
69.15,4.3977e-05,0
69.15,9.0806e-05,0
69.151,0.00013545,0
69.151,0.0001274,0
69.152,7.5029e-05,0
69.152,1.2924e-05,0
69.153,-4.1962e-05,0
69.153,-7.9728e-05,0
69.154,-9.5171e-05,0
69.154,-9.4163e-05,0
69.155,-9.8192e-05,0
69.155,-0.00010893,0
69.156,-9.8695e-05,0
69.156,-6.865e-05,0
69.157,-6.0929e-05,0
69.157,-7.9057e-05,0
69.158,-8.3589e-05,0
69.158,-5.7237e-05,0
69.159,-5.539e-06,0
69.159,4.9516e-05,0
69.16,9.4163e-05,0
69.16,0.00014083,0
69.161,0.00018094,0
69.162,0.00019437,0
69.162,0.00017473,0
69.163,0.00014385,0
69.163,0.0001274,0
69.164,0.00011397,0
69.164,8.51e-05,0
69.165,5.0187e-05,0
69.165,2.2492e-05,0
69.166,-1.2757e-05,0
69.166,-5.7237e-05,0
69.167,-9.6513e-05,0
69.167,-0.00013042,0
69.168,-0.00015425,0
69.168,-0.0001425,0
69.169,-9.0974e-05,0
69.169,-3.2059e-05,0
69.17,1.1582e-05,0
69.17,3.0716e-05,0
69.171,3.8437e-05,0
69.171,5.153e-05,0
69.172,6.9657e-05,0
69.172,9.3996e-05,0
69.173,0.00012572,0
69.173,0.00014435,0
69.174,0.00012689,0
69.175,8.0232e-05,0
69.175,4.3809e-05,0
69.176,4.213e-05,0
69.176,5.388e-05,0
69.177,5.4383e-05,0
69.177,6.3951e-05,0
69.178,8.5771e-05,0
69.178,7.9393e-05,0
69.179,4.2634e-05,0
69.179,1.5274e-05,0
69.18,1.5778e-05,0
69.18,3.7934e-05,0
69.181,7.0665e-05,0
69.181,0.00010423,0
69.182,0.00012454,0
69.182,0.00012572,0
69.183,0.0001133,0
69.183,8.3589e-05,0
69.184,3.8605e-05,0
69.184,0,0
69.185,-1.9303e-05,0
69.185,-3.7766e-05,0
69.186,-5.2873e-05,0
69.186,-4.0116e-05,0
69.187,-7.5532e-06,0
69.188,2.2324e-05,0
69.188,4.1459e-05,0
69.189,4.918e-05,0
69.189,3.4745e-05,0
69.19,6.5461e-06,0
69.19,-2.031e-05,0
69.191,-3.9445e-05,0
69.191,-3.9948e-05,0
69.192,-2.5681e-05,0
69.192,-1.4939e-05,0
69.193,-1.1582e-05,0
69.193,-1.6281e-05,0
69.194,-2.7024e-05,0
69.194,-2.2492e-05,0
69.195,5.3712e-06,0
69.195,3.592e-05,0
69.196,5.623e-05,0
69.196,7.0665e-05,0
69.197,8.8457e-05,0
69.197,0.00010289,0
69.198,0.00010289,0
69.198,9.1142e-05,0
69.199,7.5532e-05,0
69.199,5.5558e-05,0
69.2,2.7359e-05,0
69.2,-1.1078e-05,0
69.201,-5.8076e-05,0
69.202,-9.366e-05,0
69.202,-0.00010088,0
69.203,-9.5506e-05,0
69.203,-9.836e-05,0
69.204,-0.00010692,0
69.204,-0.00011095,0
69.205,-0.00011682,0
69.205,-0.00011598,0
69.206,-6.5126e-05,0
69.206,3.6088e-05,0
69.207,0.00012454,0
69.207,0.00014603,0
69.208,0.00010826,0
69.208,6.1265e-05,0
69.209,3.5752e-05,0
69.209,2.266e-05,0
69.21,9.9031e-06,0
69.21,-9.9031e-06,0
69.211,-4.062e-05,0
69.211,-6.8147e-05,0
69.212,-7.5364e-05,0
69.212,-6.1601e-05,0
69.213,-5.0019e-05,0
69.213,-5.0523e-05,0
69.214,-3.1052e-05,0
69.215,2.7527e-05,0
69.215,9.7185e-05,0
69.216,0.00015073,0
69.216,0.00017758,0
69.217,0.0001801,0
69.217,0.00016986,0
69.218,0.00016164,0
69.218,0.00015828,0
69.219,0.00014116,0
69.219,9.8527e-05,0
69.22,6.1601e-05,0
69.22,5.3544e-05,0
69.221,4.448e-05,0
69.221,8.896e-06,0
69.222,-3.2227e-05,0
69.222,-5.539e-05,0
69.223,-7.2511e-05,0
69.223,-0.00010004,0
69.224,-0.00013126,0
69.224,-0.00014939,0
69.225,-0.00014519,0
69.225,-0.00012219,0
69.226,-8.5435e-05,0
69.226,-1.6281e-05,0
69.227,0.00010793,0
69.227,0.00024137,0
69.228,0.00030851,0
69.229,0.00029139,0
69.229,0.00022374,0
69.23,0.00012136,0
69.23,-1.0407e-05,0
69.231,-0.00011917,0
69.231,-0.00017205,0
69.232,-0.00021451,0
69.232,-0.00026067,0
69.233,-0.00024607,0
69.233,-0.00017205,0
69.234,-0.00011363,0
69.234,-9.1142e-05,0
69.235,-6.244e-05,0
69.235,9.0639e-06,0
69.236,8.8457e-05,0
69.236,0.00012505,0
69.237,0.00011431,0
69.237,6.8147e-05,0
69.238,8.7282e-06,0
69.238,-3.6927e-05,0
69.239,-5.3208e-05,0
69.239,-3.3066e-05,0
69.24,-1.3428e-06,0
69.24,3.0045e-05,0
69.241,6.0761e-05,0
69.242,5.2033e-05,0
69.242,-2.4674e-05,0
69.243,-0.00010994,0
69.243,-0.00010843,0
69.244,-1.9303e-05,0
69.244,8.4428e-05,0
69.245,0.00015258,0
69.245,0.00018178,0
69.246,0.00017842,0
69.246,0.00014888,0
69.247,0.00011397,0
69.247,0.00010088,0
69.248,8.7785e-05,0
69.248,5.6062e-05,0
69.249,3.0045e-05,0
69.249,3.2563e-05,0
69.25,5.9922e-05,0
69.25,8.7114e-05,0
69.251,0.00010407,0
69.251,0.00012219,0
69.252,0.00014334,0
69.252,0.0001561,0
69.253,0.00015291,0
69.253,0.0001378,0
69.254,0.00011733,0
69.254,0.00010054,0
69.255,8.5771e-05,0
69.256,6.2272e-05,0
69.256,4.3305e-05,0
69.257,4.0284e-05,0
69.257,4.7166e-05,0
69.258,4.2802e-05,0
69.258,9.0639e-06,0
69.259,-4.1962e-05,0
69.259,-6.4118e-05,0
69.26,-3.1388e-05,0
69.26,2.8031e-05,0
69.261,8.1743e-05,0
69.261,9.836e-05,0
69.262,8.6442e-05,0
69.262,8.8121e-05,0
69.263,9.4835e-05,0
69.263,7.8889e-05,0
69.264,4.2634e-05,0
69.264,9.9031e-06,0
69.265,-2.7695e-05,0
69.265,-6.9993e-05,0
69.266,-8.8792e-05,0
69.266,-9.752e-05,0
69.267,-0.00012689,0
69.267,-0.00016835,0
69.268,-0.00019286,0
69.269,-0.00020276,0
69.269,-0.00020696,0
69.27,-0.00018665,0
69.27,-0.00014569,0
69.271,-0.00011514,0
69.271,-7.9393e-05,0
69.272,4.1962e-06,0
69.272,9.6513e-05,0
69.273,0.00013478,0
69.273,0.00011666,0
69.274,8.1071e-05,0
69.274,5.8412e-05,0
69.275,4.8844e-05,0
69.275,5.0523e-05,0
69.276,5.8915e-05,0
69.276,5.5558e-05,0
69.277,4.2802e-05,0
69.277,3.8437e-05,0
69.278,4.2466e-05,0
69.278,4.5487e-05,0
69.279,4.2802e-05,0
69.279,3.1388e-05,0
69.28,2.1317e-05,0
69.28,1.3596e-05,0
69.281,2.5177e-06,0
69.281,-9.2317e-06,0
69.282,-9.9031e-06,0
69.283,3.1891e-06,0
69.283,2.182e-05,0
69.284,3.6088e-05,0
69.284,3.2563e-05,0
69.285,1.3596e-05,0
69.285,-1.0239e-05,0
69.286,-1.7121e-05,0
69.286,1.326e-05,0
69.287,5.7908e-05,0
69.287,8.5771e-05,0
69.288,9.836e-05,0
69.288,0.00010793,0
69.289,0.0001274,0
69.289,0.00014452,0
69.29,0.00013948,0
69.29,0.00011162,0
69.291,6.9657e-05,0
69.291,2.7359e-05,0
69.292,-4.8676e-06,0
69.292,-1.8128e-05,0
69.293,-1.8967e-05,0
69.293,-1.2589e-05,0
69.294,-3.0213e-06,0
69.294,7.2175e-06,0
69.295,2.0645e-05,0
69.296,3.5752e-05,0
69.296,4.7501e-05,0
69.297,4.8676e-05,0
69.297,3.0045e-05,0
69.298,1.6785e-07,0
69.298,-1.5778e-05,0
69.299,-1.2085e-05,0
69.299,-8.3925e-07,0
69.3,3.5248e-06,0
69.3,-6.2104e-06,0
69.301,-1.7624e-05,0
69.301,-1.4603e-05,0
69.302,7.0497e-06,0
69.302,4.213e-05,0
69.303,7.8721e-05,0
69.303,0.00010574,0
69.304,0.00013143,0
69.304,0.00016432,0
69.305,0.00017977,0
69.305,0.00014939,0
69.306,6.865e-05,0
69.306,-2.501e-05,0
69.307,-9.5506e-05,0
69.307,-0.00013646,0
69.308,-0.0001519,0
69.308,-0.00014083,0
69.309,-0.00010944,0
69.31,-6.5797e-05,0
69.31,-3.8605e-06,0
69.311,5.0355e-05,0
69.311,7.0161e-05,0
69.312,9.8192e-05,0
69.312,0.00019487,0
69.313,0.00030179,0
69.313,0.00034292,0
69.314,0.00028769,0
69.314,0.00016147,0
69.315,1.1917e-05,0
69.315,-0.00013042,0
69.316,-0.00026302,0
69.316,-0.00040603,0
69.317,-0.00052235,0
69.317,-0.00050892,0
69.318,-0.00033536,0
69.318,-0.00012186,0
69.319,3.4073e-05,0
69.319,0.00012639,0
69.32,0.0001603,0
69.32,0.00014351,0
69.321,8.3757e-05,0
69.321,-8.896e-06,0
69.322,-9.5171e-05,0
69.323,-0.00011397,0
69.323,-4.0452e-05,0
69.324,6.0929e-05,0
69.324,0.00010591,0
69.325,8.9128e-05,0
69.325,4.7501e-05,0
69.326,8.5603e-06,0
69.326,-1.326e-05,0
69.327,-2.031e-05,0
69.327,-2.9374e-05,0
69.328,-2.3499e-05,0
69.328,2.9709e-05,0
69.329,0.000166,0
69.329,0.00037749,0
69.33,0.00054299,0
69.33,0.00057119,0
69.331,0.00045504,0
69.331,0.00026235,0
69.332,6.7643e-05,0
69.332,-0.0001039,0
69.333,-0.00025563,0
69.333,-0.00039193,0
69.334,-0.00046528,0
69.334,-0.00039109,0
69.335,-0.00019823,0
69.335,-3.6591e-05,0
69.336,4.1962e-06,0
69.337,-3.508e-05,0
69.337,-6.3447e-05,0
69.338,-3.8605e-05,0
69.338,9.0639e-06,0
69.339,2.6688e-05,0
69.339,9.2317e-06,0
69.34,-7.7211e-06,0
69.34,-6.2104e-06,0
69.341,9.7353e-06,0
69.341,2.4506e-05,0
69.342,2.887e-05,0
69.342,2.5513e-05,0
69.343,2.8534e-05,0
69.343,4.3305e-05,0
69.344,6.3279e-05,0
69.344,8.5771e-05,0
69.345,0.0001086,0
69.345,0.00012773,0
69.346,0.00013713,0
69.346,0.00013613,0
69.347,0.0001331,0
69.347,0.00012857,0
69.348,0.00011363,0
69.348,8.8457e-05,0
69.349,6.865e-05,0
69.35,6.6636e-05,0
69.35,8.1071e-05,0
69.351,9.6178e-05,0
69.351,0.00010172,0
69.352,9.5171e-05,0
69.352,7.6204e-05,0
69.353,5.0019e-05,0
69.353,2.9541e-05,0
69.354,2.2324e-05,0
69.354,2.4002e-05,0
69.355,2.8031e-05,0
69.355,3.1388e-05,0
69.356,3.6759e-05,0
69.356,5.5894e-05,0
69.357,8.6946e-05,0
69.357,0.00011162,0
69.358,0.00011431,0
69.358,0.00010121,0
69.359,8.0735e-05,0
69.359,5.8747e-05,0
69.36,3.8773e-05,0
69.36,2.2492e-05,0
69.361,3.5248e-06,0
69.361,-2.7359e-05,0
69.362,-8.1239e-05,0
69.362,-0.00013848,0
69.363,-0.00014183,0
69.364,-8.04e-05,0
69.364,-2.0142e-06,0
69.365,4.0284e-05,0
69.365,3.2059e-05,0
69.366,-6.3783e-06,0
69.366,-5.4551e-05,0
69.367,-0.00010088,0
69.367,-0.00014653,0
69.368,-0.00016835,0
69.368,-0.00012706,0
69.369,-2.0981e-05,0
69.369,8.8457e-05,0
69.37,0.00014687,0
69.37,0.00015157,0
69.371,0.00012538,0
69.371,9.5171e-05,0
69.372,8.4428e-05,0
69.372,9.6345e-05,0
69.373,9.3492e-05,0
69.373,4.1794e-05,0
69.374,-4.1794e-05,0
69.374,-0.00011095,0
69.375,-0.00013344,0
69.375,-0.00010826,0
69.376,-5.304e-05,0
69.376,1.3428e-06,0
69.377,2.7527e-05,0
69.378,3.6088e-05,0
69.378,4.3305e-05,0
69.379,2.1317e-05,0
69.379,-2.3163e-05,0
69.38,-5.1362e-05,0
69.38,-5.4047e-05,0
69.381,-7.7714e-05,0
69.381,-0.00016281,0
69.382,-0.00026403,0
69.382,-0.0003122,0
69.383,-0.00027913,0
69.383,-0.0001702,0
69.384,-4.0452e-05,0
69.384,5.069e-05,0
69.385,0.00010491,0
69.385,0.00013848,0
69.386,0.00014418,0
69.386,0.0001274,0
69.387,0.0001086,0
69.387,0.0001044,0
69.388,0.00011229,0
69.388,0.00012471,0
69.389,0.00012975,0
69.389,0.00012874,0
69.39,0.0001509,0
69.391,0.0002172,0
69.391,0.00028182,0
69.392,0.00029088,0
69.392,0.00024271,0
69.393,0.00016181,0
69.393,6.5293e-05,0
69.394,-4.5487e-05,0
69.394,-0.0001467,0
69.395,-0.00019269,0
69.395,-0.00015711,0
69.396,-8.4428e-05,0
69.396,-2.4506e-05,0
69.397,1.8631e-05,0
69.397,3.743e-05,0
69.398,2.8702e-05,0
69.398,2.3499e-05,0
69.399,2.266e-05,0
69.399,1.3428e-05,0
69.4,9.5674e-06,0
69.4,3.2395e-05,0
69.401,7.7043e-05,0
69.401,0.00012236,0
69.402,0.00012824,0
69.402,8.4764e-05,0
69.403,2.3163e-05,0
69.403,-1.9974e-05,0
69.404,-3.2395e-05,0
69.405,-1.5778e-05,0
69.405,2.8534e-05,0
69.406,6.63e-05,0
69.406,6.4286e-05,0
69.407,2.8367e-05,0
69.407,-2.3499e-05,0
69.408,-7.0497e-05,0
69.408,-0.00010625,0
69.409,-0.00012874,0
69.409,-0.00012505,0
69.41,-9.4667e-05,0
69.41,-4.9851e-05,0
69.411,-1.9974e-05,0
69.411,-3.4745e-05,0
69.412,-5.6565e-05,0
69.412,-2.9374e-05,0
69.413,3.3234e-05,0
69.413,8.5603e-05,0
69.414,0.00010826,0
69.414,0.00011749,0
69.415,0.00013277,0
69.415,0.00014553,0
69.416,0.00014435,0
69.416,0.00016214,0
69.417,0.00025664,0
69.418,0.00040787,0
69.418,0.00047619,0
69.419,0.00038521,0
69.419,0.00020293,0
69.42,2.1317e-05,0
69.42,-0.00013915,0
69.421,-0.00028954,0
69.421,-0.00040284,0
69.422,-0.00042449,0
69.422,-0.00036524,0
69.423,-0.00025782,0
69.423,-0.00010491,0
69.424,3.9277e-05,0
69.424,0.00010591,0
69.425,0.00010155,0
69.425,7.9728e-05,0
69.426,7.0329e-05,0
69.426,7.6371e-05,0
69.427,8.9464e-05,0
69.427,9.3828e-05,0
69.428,9.1142e-05,0
69.428,9.7856e-05,0
69.429,0.00010843,0
69.429,0.0001039,0
69.43,7.1336e-05,0
69.43,1.4435e-05,0
69.431,-5.0523e-05,0
69.432,-9.2485e-05,0
69.432,-9.3492e-05,0
69.433,-7.0161e-05,0
69.433,-3.8773e-05,0
69.434,-6.5461e-06,0
69.434,1.8631e-05,0
69.435,3.743e-05,0
69.435,5.2537e-05,0
69.436,5.4887e-05,0
69.436,3.6088e-05,0
69.437,-2.5177e-06,0
69.437,-4.3305e-05,0
69.438,-6.7643e-05,0
69.438,-7.57e-05,0
69.439,-7.2343e-05,0
69.439,-5.8076e-05,0
69.44,-2.7359e-05,0
69.44,1.326e-05,0
69.441,4.3473e-05,0
69.441,5.0187e-05,0
69.442,5.6062e-05,0
69.442,7.7714e-05,0
69.443,9.7688e-05,0
69.443,9.5506e-05,0
69.444,7.4357e-05,0
69.445,3.6759e-05,0
69.445,-1.4603e-05,0
69.446,-4.448e-05,0
69.446,-1.9303e-05,0
69.447,4.1291e-05,0
69.447,9.2485e-05,0
69.448,0.00012538,0
69.448,0.00013881,0
69.449,0.00012035,0
69.449,8.6778e-05,0
69.45,8.1407e-05,0
69.45,9.4499e-05,0
69.451,8.3421e-05,0
69.451,3.6591e-05,0
69.452,-1.7792e-05,0
69.452,-4.3305e-05,0
69.453,-2.8031e-05,0
69.453,2.2995e-05,0
69.454,9.2821e-05,0
69.454,0.00016097,0
69.455,0.00020293,0
69.455,0.00021166,0
69.456,0.00019135,0
69.456,0.00014485,0
69.457,9.1142e-05,0
69.457,3.2731e-05,0
69.458,-4.5823e-05,0
69.459,-0.00014788,0
69.459,-0.00021468,0
69.46,-0.00019437,0
69.46,-0.00013445,0
69.461,-9.8192e-05,0
69.461,-7.9225e-05,0
69.462,-5.0187e-05,0
69.462,-2.2324e-05,0
69.463,-1.1414e-05,0
69.463,-3.357e-06,0
69.464,3.3066e-05,0
69.464,9.2821e-05,0
69.465,0.00011934,0
69.465,8.9128e-05,0
69.466,2.417e-05,0
69.466,-4.6662e-05,0
69.467,-9.4163e-05,0
69.467,-0.00010877,0
69.468,-0.00010507,0
69.468,-9.5842e-05,0
69.469,-6.0594e-05,0
69.469,2.7695e-05,0
69.47,0.00013277,0
69.47,0.00017708,0
69.471,0.00015291,0
69.472,9.8527e-05,0
69.472,4.1962e-05,0
69.473,5.539e-06,0
69.473,-2.5177e-06,0
69.474,-2.182e-06,0
69.474,-4.3137e-05,0
69.475,-0.0001326,0
69.475,-0.00019286,0
69.476,-0.00015258,0
69.476,-4.9012e-05,0
69.477,2.3163e-05,0
69.477,2.9038e-05,0
69.478,7.7211e-06,0
69.478,-6.5461e-06,0
69.479,-6.8818e-06,0
69.479,4.3641e-06,0
69.48,2.0478e-05,0
69.48,2.7359e-05,0
69.481,1.9303e-05,0
69.481,1.2757e-05,0
69.482,7.5532e-06,0
69.482,-7.8889e-06,0
69.483,-2.4338e-05,0
69.483,-2.501e-05,0
69.484,-3.5248e-06,0
69.484,2.1988e-05,0
69.485,3.8773e-05,0
69.486,5.8747e-05,0
69.486,9.0974e-05,0
69.487,0.00012169,0
69.487,0.00013596,0
69.488,0.00012874,0
69.488,0.00011061,0
69.489,9.0471e-05,0
69.489,7.335e-05,0
69.49,7.0497e-05,0
69.49,7.8386e-05,0
69.491,7.7546e-05,0
69.491,6.0594e-05,0
69.492,5.2537e-05,0
69.492,8.3085e-05,0
69.493,0.0001331,0
69.493,0.00016768,0
69.494,0.00017876,0
69.494,0.00017826,0
69.495,0.00016701,0
69.495,0.00014318,0
69.496,0.00010692,0
69.496,5.6733e-05,0
69.497,-8.3925e-07,0
69.497,-5.153e-05,0
69.498,-9.2988e-05,0
69.499,-0.00012136,0
69.499,-0.00014284,0
69.5,-0.00017272,0
69.5,-0.00021367,0
69.501,-0.0002454,0
69.501,-0.00024338,0
69.502,-0.00020461,0
69.502,-0.00015795,0
69.503,-0.00011733,0
69.503,-7.7043e-05,0
69.504,-3.3066e-05,0
69.504,1.3428e-06,0
69.505,1.9135e-05,0
69.505,3.2731e-05,0
69.506,5.0858e-05,0
69.506,6.5629e-05,0
69.507,6.5461e-05,0
69.507,5.4215e-05,0
69.508,3.9948e-05,0
69.508,3.0549e-05,0
69.509,3.0716e-05,0
69.509,3.9277e-05,0
69.51,4.9516e-05,0
69.51,5.3376e-05,0
69.511,4.8173e-05,0
69.511,4.0452e-05,0
69.512,4.4312e-05,0
69.513,7.1e-05,0
69.513,0.00010591,0
69.514,0.00013243,0
69.514,0.00014032,0
69.515,0.00012337,0
69.515,9.3828e-05,0
69.516,6.5629e-05,0
69.516,4.1459e-05,0
69.517,3.0045e-05,0
69.517,3.6088e-05,0
69.518,5.0187e-05,0
69.518,6.8986e-05,0
69.519,9.752e-05,0
69.519,0.00012068,0
69.52,0.00012673,0
69.52,0.00012538,0
69.521,0.00013059,0
69.521,0.00014754,0
69.522,0.00015862,0
69.522,0.00014418,0
69.523,0.00010776,0
69.523,5.8579e-05,0
69.524,1.0575e-05,0
69.524,-2.9709e-05,0
69.525,-6.0426e-05,0
69.526,-7.8218e-05,0
69.526,-9.4667e-05,0
69.527,-0.00012673,0
69.527,-0.00016147,0
69.528,-0.00015946,0
69.528,-0.00011666,0
69.529,-5.8747e-05,0
69.529,-1.4267e-05,0
69.53,9.5674e-06,0
69.53,2.7695e-05,0
69.531,5.7404e-05,0
69.531,0.00010188,0
69.532,0.0001415,0
69.532,0.00015828,0
69.533,0.00015828,0
69.533,0.00015258,0
69.534,0.00012052,0
69.534,5.774e-05,0
69.535,-1.6281e-05,0
69.535,-6.0594e-05,0
69.536,-6.0258e-05,0
69.536,-6.5629e-05,0
69.537,-0.00012287,0
69.537,-0.00020897,0
69.538,-0.00026,0
69.538,-0.0002506,0
69.539,-0.0001801,0
69.54,-7.0329e-05,0
69.54,2.3163e-05,0
69.541,6.0258e-05,0
69.541,5.7237e-05,0
69.542,4.1794e-05,0
69.542,2.8367e-05,0
69.543,1.3931e-05,0
69.543,-6.8818e-06,0
69.544,-2.6184e-05,0
69.544,-3.978e-05,0
69.545,-5.0187e-05,0
69.545,-4.8676e-05,0
69.546,-1.2924e-05,0
69.546,4.7837e-05,0
69.547,9.5674e-05,0
69.547,0.00010994,0
69.548,9.7688e-05,0
69.548,8.1575e-05,0
69.549,7.6371e-05,0
69.549,7.6371e-05,0
69.55,6.7475e-05,0
69.55,5.4215e-05,0
69.551,5.2201e-05,0
69.551,6.3951e-05,0
69.552,7.9393e-05,0
69.553,9.3492e-05,0
69.553,9.6513e-05,0
69.554,8.3085e-05,0
69.554,5.2873e-05,0
69.555,2.4842e-05,0
69.555,1.3092e-05,0
69.556,1.1414e-05,0
69.556,1.6449e-05,0
69.557,3.2563e-05,0
69.557,6.009e-05,0
69.558,0.00010625,0
69.558,0.00016567,0
69.559,0.00019907,0
69.559,0.00019152,0
69.56,0.00016365,0
69.56,0.0001368,0
69.561,0.00011531,0
69.561,9.5003e-05,0
69.562,7.5364e-05,0
69.562,5.2873e-05,0
69.563,1.1917e-05,0
69.563,-5.4047e-05,0
69.564,-0.00012505,0
69.564,-0.00017775,0
69.565,-0.00019118,0
69.566,-0.00015761,0
69.566,-0.0001039,0
69.567,-6.244e-05,0
69.567,-3.2563e-05,0
69.568,-5.3712e-06,0
69.568,1.9135e-05,0
69.569,3.1724e-05,0
69.569,3.2731e-05,0
69.57,3.4409e-05,0
69.57,3.8437e-05,0
69.571,3.978e-05,0
69.571,3.3234e-05,0
69.572,1.8296e-05,0
69.572,1.0071e-06,0
69.573,-9.0639e-06,0
69.573,-3.6927e-06,0
69.574,5.2033e-06,0
69.574,1.1917e-05,0
69.575,2.0645e-05,0
69.575,3.0549e-05,0
69.576,4.0116e-05,0
69.576,4.1123e-05,0
69.577,2.5513e-05,0
69.577,-5.7069e-06,0
69.578,-4.683e-05,0
69.578,-8.8792e-05,0
69.579,-0.00012975,0
69.58,-0.00016231,0
69.58,-0.00016818,0
69.581,-0.00014133,0
69.581,-8.9632e-05,0
69.582,-3.3738e-05,0
69.582,5.0355e-07,0
69.583,1.8631e-05,0
69.583,4.918e-05,0
69.584,9.9199e-05,0
69.584,0.00014704,0
69.585,0.00016298,0
69.585,0.00014015,0
69.586,0.00010423,0
69.586,8.3757e-05,0
69.587,7.8218e-05,0
69.587,6.6972e-05,0
69.588,3.7766e-05,0
69.588,-1.1246e-05,0
69.589,-7.8889e-05,0
69.589,-0.00012404,0
69.59,-8.9464e-05,0
69.59,1.796e-05,0
69.591,0.00011867,0
69.591,0.00015425,0
69.592,0.00012874,0
69.593,7.9393e-05,0
69.593,3.5752e-05,0
69.594,4.3641e-06,0
69.594,-2.0645e-05,0
69.595,-3.9109e-05,0
69.595,-4.8508e-05,0
69.596,-4.2802e-05,0
69.596,-1.9303e-05,0
69.597,1.6953e-05,0
69.597,4.8676e-05,0
69.598,6.5629e-05,0
69.598,6.5629e-05,0
69.599,5.7237e-05,0
69.599,5.2873e-05,0
69.6,5.6565e-05,0
69.6,6.0258e-05,0
69.601,5.0019e-05,0
69.601,1.3931e-05,0
69.602,-3.8605e-05,0
69.602,-7.3686e-05,0
69.603,-6.2943e-05,0
69.603,-1.4099e-05,0
69.604,3.8437e-05,0
69.604,6.1936e-05,0
69.605,5.6901e-05,0
69.605,4.1459e-05,0
69.606,2.6017e-05,0
69.607,1.5274e-05,0
69.607,1.7792e-05,0
69.608,3.3738e-05,0
69.608,5.4215e-05,0
69.609,7.7379e-05,0
69.609,0.00011263,0
69.61,0.00014351,0
69.61,0.00014351,0
69.611,0.00012337,0
69.611,0.00010726,0
69.612,9.8527e-05,0
69.612,8.0232e-05,0
69.613,5.2201e-05,0
69.613,2.266e-05,0
69.614,-5.8747e-06,0
69.614,-3.9277e-05,0
69.615,-5.3544e-05,0
69.615,-2.4338e-05,0
69.616,2.031e-05,0
69.616,4.213e-05,0
69.617,4.0116e-05,0
69.617,2.7024e-05,0
69.618,2.0645e-05,0
69.618,2.8031e-05,0
69.619,3.8102e-05,0
69.62,4.1962e-05,0
69.62,3.743e-05,0
69.621,2.9374e-05,0
69.621,1.2085e-05,0
69.622,-3.1556e-05,0
69.622,-9.7856e-05,0
69.623,-0.00014267,0
69.623,-0.00013462,0
69.624,-9.0806e-05,0
69.624,-4.5487e-05,0
69.625,-1.6281e-05,0
69.625,7.8889e-06,0
69.626,5.304e-05,0
69.626,0.0001274,0
69.627,0.00019319,0
69.627,0.00022593,0
69.628,0.00023919,0
69.628,0.00022609,0
69.629,0.000165,0
69.629,6.8315e-05,0
69.63,-1.9974e-05,0
69.63,-8.1407e-05,0
69.631,-0.00010491,0
69.631,-9.0974e-05,0
69.632,-6.4622e-05,0
69.632,-2.5177e-05,0
69.633,3.8773e-05,0
69.634,0.00011028,0
69.634,0.00014183,0
69.635,9.9199e-05,0
69.635,1.1246e-05,0
69.636,-6.7979e-05,0
69.636,-0.00012001,0
69.637,-0.00014788,0
69.637,-0.00015912,0
69.638,-0.00016516,0
69.638,-0.0001613,0
69.639,-0.00012538,0
69.639,-5.153e-05,0
69.64,3.743e-05,0
69.64,0.00011078,0
69.641,0.00014855,0
69.641,0.0001556,0
69.642,0.0001514,0
69.642,0.00014318,0
69.643,0.00013831,0
69.643,0.00013025,0
69.644,9.601e-05,0
69.644,3.4073e-05,0
69.645,-2.9206e-05,0
69.645,-7.6371e-05,0
69.646,-0.00011884,0
69.647,-0.00018128,0
69.647,-0.0002652,0
69.648,-0.00032966,0
69.648,-0.00031807,0
69.649,-0.00021367,0
69.649,-6.3951e-05,0
69.65,6.1769e-05,0
69.65,0.00012807,0
69.651,0.00014133,0
69.651,0.0001284,0
69.652,0.00012807,0
69.652,0.00017523,0
69.653,0.00025563,0
69.653,0.00032949,0
69.654,0.00037749,0
69.654,0.00039562,0
69.655,0.00037816,0
69.655,0.00032546,0
69.656,0.00027376,0
69.656,0.00025328,0
69.657,0.00024288,0
69.657,0.00018111,0
69.658,3.8773e-05,0
69.658,-0.00014418,0
69.659,-0.00029676,0
69.659,-0.00037548,0
69.66,-0.00038622,0
69.661,-0.00036423,0
69.661,-0.00035433,0
69.662,-0.00035349,0
69.662,-0.00031673,0
69.663,-0.00024388,0
69.663,-0.00015543,0
69.664,-5.388e-05,0
69.664,4.3977e-05,0
69.665,0.0001039,0
69.665,0.00011666,0
69.666,8.426e-05,0
69.666,2.6017e-05,0
69.667,-3.0716e-05,0
69.667,-5.6901e-05,0
69.668,-4.7166e-05,0
69.668,-2.8367e-05,0
69.669,-7.7211e-06,0
69.669,1.6953e-05,0
69.67,4.1459e-05,0
69.67,6.9322e-05,0
69.671,0.00010004,0
69.671,0.0001274,0
69.672,0.00015895,0
69.672,0.00018396,0
69.673,0.00019454,0
69.674,0.00021871,0
69.674,0.0002553,0
69.675,0.00026067,0
69.675,0.00022139,0
69.676,0.00017104,0
69.676,0.00016936,0
69.677,0.00020394,0
69.677,0.00017003,0
69.678,1.4939e-05,0
69.678,-0.00016567,0
69.679,-0.00026201,0
69.679,-0.00026671,0
69.68,-0.00023583,0
69.68,-0.00020897,0
69.681,-0.00018212,0
69.681,-0.00017205,0
69.682,-0.00017221,0
69.682,-0.00013243,0
69.683,-5.0858e-05,0
69.683,1.8631e-05,0
69.684,5.4551e-05,0
69.684,8.5771e-05,0
69.685,0.00014922,0
69.685,0.00022374,0
69.686,0.00025832,0
69.686,0.00024825,0
69.687,0.00021804,0
69.688,0.00018933,0
69.688,0.0001702,0
69.689,0.0001556,0
69.689,0.00013579,0
69.69,0.00010541,0
69.69,7.0161e-05,0
69.691,4.0452e-05,0
69.691,4.5319e-06,0
69.692,-6.6804e-05,0
69.692,-0.00015828,0
69.693,-0.00021132,0
69.693,-0.00019638,0
69.694,-0.00015526,0
69.694,-0.0001274,0
69.695,-0.00010054,0
69.695,-6.2608e-05,0
69.696,-1.5778e-05,0
69.696,3.9109e-05,0
69.697,7.8386e-05,0
69.697,7.2847e-05,0
69.698,1.7624e-05,0
69.698,-4.8508e-05,0
69.699,-6.4118e-05,0
69.699,-2.6017e-05,0
69.7,4.062e-05,0
69.701,0.00011582,0
69.701,0.00018984,0
69.702,0.0002835,0
69.702,0.00038253,0
69.703,0.0004312,0
69.703,0.0004302,0
69.704,0.00039109,0
69.704,0.00029726,0
69.705,0.00015157,0
69.705,-2.2156e-05,0
69.706,-0.00015929,0
69.706,-0.00023986,0
69.707,-0.0003174,0
69.707,-0.00037145,0
69.708,-0.00029558,0
69.708,-8.4764e-05,0
69.709,0.00014183,0
69.709,0.0002798,0
69.71,0.00027175,0
69.71,0.00012874,0
69.711,-6.0929e-05,0
69.711,-0.00021233,0
69.712,-0.00029256,0
69.712,-0.00033519,0
69.713,-0.00040267,0
69.713,-0.00047854,0
69.714,-0.00049583,0
69.715,-0.00039562,0
69.715,-0.000189,0
69.716,7.8889e-06,0
69.716,8.4428e-05,0
69.717,5.7572e-05,0
69.717,1.8463e-06,0
69.718,-1.8967e-05,0
69.718,1.9974e-05,0
69.719,8.8457e-05,0
69.719,0.00014687,0
69.72,0.00017255,0
69.72,0.0001697,0
69.721,0.00015258,0
69.721,0.00013394,0
69.722,0.00012001,0
69.722,0.00011263,0
69.723,0.00010994,0
69.723,0.00011447,0
69.724,0.00012404,0
69.724,0.00015459,0
69.725,0.00020931,0
69.725,0.00023851,0
69.726,0.00021904,0
69.726,0.0001791,0
69.727,0.00015207,0
69.728,0.00013193,0
69.728,0.00010222,0
69.729,7.4861e-05,0
69.729,6.3615e-05,0
69.73,6.9993e-05,0
69.73,6.4286e-05,0
69.731,1.6785e-07,0
69.731,-0.0001321,0
69.732,-0.00025228,0
69.732,-0.00028904,0
69.733,-0.00026302,0
69.733,-0.00020662,0
69.734,-0.00011565,0
69.734,1.6785e-07,0
69.735,9.7856e-05,0
69.735,0.00015224,0
69.736,0.00017104,0
69.736,0.00017557,0
69.737,0.00017893,0
69.737,0.00018346,0
69.738,0.00018732,0
69.738,0.00018547,0
69.739,0.00017339,0
69.739,0.00015727,0
69.74,0.00013915,0
69.74,0.00010222,0
69.741,3.9277e-05,0
69.742,-3.4409e-05,0
69.742,-9.3828e-05,0
69.743,-0.00011968,0
69.743,-0.00011347,0
69.744,-8.51e-05,0
69.744,-3.3738e-05,0
69.745,2.5681e-05,0
69.745,6.9657e-05,0
69.746,9.3828e-05,0
69.746,0.00012219,0
69.747,0.00016164,0
69.747,0.00014888,0
69.748,5.774e-05,0
69.748,-4.7501e-05,0
69.749,-8.6275e-05,0
69.749,-5.9922e-05,0
69.75,-3.4913e-05,0
69.75,-4.3137e-05,0
69.751,-6.9993e-05,0
69.751,-0.00010507,0
69.752,-0.00015325,0
69.752,-0.00020528,0
69.753,-0.00023449,0
69.753,-0.00022039,0
69.754,-0.00016617,0
69.754,-9.0471e-05,0
69.755,1.5106e-06,0
69.756,8.3757e-05,0
69.756,0.00011766,0
69.757,0.00010625,0
69.757,8.9128e-05,0
69.758,8.0064e-05,0
69.758,5.7572e-05,0
69.759,0,0
69.759,-8.2078e-05,0
69.76,-0.00012706,0
69.76,-9.4163e-05,0
69.761,-2.2828e-05,0
69.761,3.2059e-05,0
69.762,6.0258e-05,0
69.762,7.9057e-05,0
69.763,8.6778e-05,0
69.763,9.0471e-05,0
69.764,0.00010726,0
69.764,0.00013613,0
69.765,0.00016046,0
69.765,0.00017037,0
69.766,0.00017003,0
69.766,0.00016399,0
69.767,0.00015358,0
69.767,0.00013931,0
69.768,0.0001274,0
69.769,0.00012605,0
69.769,0.00016097,0
69.77,0.00019554,0
69.77,0.00016567,0
69.771,7.805e-05,0
69.771,-1.4603e-05,0
69.772,-0.00010121,0
69.772,-0.00020763,0
69.773,-0.00032042,0
69.773,-0.00037833,0
69.774,-0.00034376,0
69.774,-0.00025412,0
69.775,-0.00014871,0
69.775,-3.7934e-05,0
69.776,5.0858e-05,0
69.776,8.1743e-05,0
69.777,6.2272e-05,0
69.777,2.417e-05,0
69.778,-2.0981e-05,0
69.778,-5.8244e-05,0
69.779,-6.3447e-05,0
69.779,-2.8031e-05,0
69.78,4.1794e-05,0
69.78,0.00010541,0
69.781,0.00013059,0
69.781,0.00011666,0
69.782,7.8218e-05,0
69.783,1.8463e-05,0
69.783,-3.8605e-05,0
69.784,-3.5584e-05,0
69.784,2.5345e-05,0
69.785,7.8721e-05,0
69.785,8.3589e-05,0
69.786,4.7501e-05,0
69.786,9.2317e-06,0
69.787,2.3667e-05,0
69.787,0.00013042,0
69.788,0.00027846,0
69.788,0.00036205,0
69.789,0.00033788,0
69.789,0.00024388,0
69.79,0.00015425,0
69.79,0.00010323,0
69.791,7.6036e-05,0
69.791,4.4816e-05,0
69.792,6.714e-06,0
69.792,-2.2156e-05,0
69.793,-3.0884e-05,0
69.793,-2.8702e-05,0
69.794,-3.1052e-05,0
69.794,-3.1388e-05,0
69.795,-2.3163e-05,0
69.796,-8.896e-06,0
69.796,-8.3925e-07,0
69.797,-2.0981e-05,0
69.797,-7.8889e-05,0
69.798,-0.00015425,0
69.798,-0.00021166,0
69.799,-0.00022156,0
69.799,-0.00019051,0
69.8,-0.00015073,0
69.8,-0.00011296,0
69.801,-7.4022e-05,0
69.801,-3.9109e-05,0
69.802,-1.1246e-05,0
69.802,7.2175e-06,0
69.803,2.7192e-05,0
69.803,5.9754e-05,0
69.804,9.5674e-05,0
69.804,0.00012874,0
69.805,0.00015761,0
69.805,0.00017641,0
69.806,0.00017507,0
69.806,0.00014301,0
69.807,8.9967e-05,0
69.807,4.4648e-05,0
69.808,1.1917e-05,0
69.808,-1.5778e-05,0
69.809,-4.5487e-05,0
69.81,-6.4622e-05,0
69.81,-4.0116e-05,0
69.811,1.0239e-05,0
69.811,3.8605e-05,0
69.812,4.1627e-05,0
69.812,3.2059e-05,0
69.813,1.2589e-05,0
69.813,-1.3596e-05,0
69.814,-4.2634e-05,0
69.814,-7.335e-05,0
69.815,-9.0806e-05,0
69.815,-8.51e-05,0
69.816,-5.5222e-05,0
69.816,-6.0426e-06,0
69.817,3.4745e-05,0
69.817,4.1794e-05,0
69.818,3.122e-05,0
69.818,3.2395e-05,0
69.819,4.8173e-05,0
69.819,6.009e-05,0
69.82,7.4022e-05,0
69.82,0.00010155,0
69.821,0.00012673,0
69.821,0.0001326,0
69.822,0.00012404,0
69.823,0.00011212,0
69.823,0.00010407,0
69.824,9.5003e-05,0
69.824,8.5771e-05,0
69.825,9.1142e-05,0
69.825,0.00010574,0
69.826,0.000118,0
69.826,0.00013948,0
69.827,0.00016735,0
69.827,0.0001791,0
69.828,0.00015828,0
69.828,0.00011061,0
69.829,4.5487e-05,0
69.829,-3.6423e-05,0
69.83,-0.00013327,0
69.83,-0.00022408,0
69.831,-0.00027745,0
69.831,-0.00028115,0
69.832,-0.00023986,0
69.832,-0.00017339,0
69.833,-0.00011061,0
69.833,-6.4622e-05,0
69.834,-3.7095e-05,0
69.834,-2.1149e-05,0
69.835,-1.0239e-05,0
69.835,-3.357e-06,0
69.836,9.5674e-06,0
69.837,3.0716e-05,0
69.837,4.5487e-05,0
69.838,5.8579e-05,0
69.838,8.2414e-05,0
69.839,0.00010457,0
69.839,0.00010323,0
69.84,6.2776e-05,0
69.84,5.539e-06,0
69.841,-8.3925e-07,0
69.841,5.8244e-05,0
69.842,0.00013948,0
69.842,0.00022458,0
69.843,0.00029323,0
69.843,0.00031337,0
69.844,0.00027242,0
69.844,0.0001848,0
69.845,8.275e-05,0
69.845,-1.0239e-05,0
69.846,-8.9296e-05,0
69.846,-0.00017037,0
69.847,-0.00024506,0
69.847,-0.00026738,0
69.848,-0.00021468,0
69.848,-0.00013529,0
69.849,-9.0135e-05,0
69.85,-8.1407e-05,0
69.85,-7.0665e-05,0
69.851,-3.1052e-05,0
69.851,2.3667e-05,0
69.852,7.0665e-05,0
69.852,9.1142e-05,0
69.853,8.5771e-05,0
69.853,7.5868e-05,0
69.854,6.5293e-05,0
69.854,4.8676e-05,0
69.855,2.266e-05,0
69.855,-6.5461e-06,0
69.856,-1.5106e-05,0
69.856,2.0813e-05,0
69.857,8.1071e-05,0
69.857,0.00010893,0
69.858,7.7714e-05,0
69.858,4.1459e-05,0
69.859,6.479e-05,0
69.859,0.00012236,0
69.86,0.00014183,0
69.86,0.00011414,0
69.861,7.1336e-05,0
69.861,2.3499e-05,0
69.862,-2.7192e-05,0
69.862,-5.7572e-05,0
69.863,-7.0329e-05,0
69.864,-7.9393e-05,0
69.864,-8.5435e-05,0
69.865,-7.8721e-05,0
69.865,-4.5991e-05,0
69.866,1.8463e-06,0
69.866,3.9948e-05,0
69.867,6.244e-05,0
69.867,7.8386e-05,0
69.868,9.1142e-05,0
69.868,9.7185e-05,0
69.869,8.5435e-05,0
69.869,6.0929e-05,0
69.87,5.0858e-05,0
69.87,5.8579e-05,0
69.871,3.978e-05,0
69.871,-2.7863e-05,0
69.872,-9.8192e-05,0
69.872,-0.00011028,0
69.873,-6.1601e-05,0
69.873,-4.3641e-06,0
69.874,1.4603e-05,0
69.874,1.2421e-05,0
69.875,2.1317e-05,0
69.875,4.213e-05,0
69.876,6.2608e-05,0
69.877,6.9993e-05,0
69.877,6.1265e-05,0
69.878,4.4816e-05,0
69.878,2.9374e-05,0
69.879,1.5106e-05,0
69.879,2.5177e-06,0
69.88,2.182e-06,0
69.88,9.0639e-06,0
69.881,2.4674e-05,0
69.881,5.5726e-05,0
69.882,8.9464e-05,0
69.882,0.00010541,0
69.883,9.752e-05,0
69.883,7.5029e-05,0
69.884,5.7572e-05,0
69.884,6.1265e-05,0
69.885,9.0974e-05,0
69.885,0.00012538,0
69.886,0.00013713,0
69.886,0.00011582,0
69.887,6.8315e-05,0
69.887,3.6927e-06,0
69.888,-6.3279e-05,0
69.888,-0.00010574,0
69.889,-0.00011447,0
69.889,-9.3828e-05,0
69.89,-5.3208e-05,0
69.891,-1.0407e-05,0
69.891,2.4002e-05,0
69.892,2.9038e-05,0
69.892,-3.5248e-06,0
69.893,-4.6326e-05,0
69.893,-7.0161e-05,0
69.894,-8.0232e-05,0
69.894,-0.0001039,0
69.895,-0.00012404,0
69.895,-8.9128e-05,0
69.896,-7.2175e-06,0
69.896,5.7237e-05,0
69.897,9.2485e-05,0
69.897,0.00012102,0
69.898,0.00014385,0
69.898,0.00014553,0
69.899,0.00013915,0
69.899,0.0001519,0
69.9,0.00015627,0
69.9,0.00012438,0
69.901,7.7714e-05,0
69.901,3.4073e-05,0
69.902,-1.561e-05,0
69.902,-6.2776e-05,0
69.903,-9.2988e-05,0
69.904,-0.0001138,0
69.904,-0.00012908,0
69.905,-0.0001044,0
69.905,-2.7024e-05,0
69.906,5.1362e-05,0
69.906,8.5771e-05,0
69.907,8.8457e-05,0
69.907,8.9632e-05,0
69.908,8.1743e-05,0
69.908,4.3473e-05,0
69.909,-1.9806e-05,0
69.909,-8.3925e-05,0
69.91,-0.00010944,0
69.91,-8.6275e-05,0
69.911,-4.4816e-05,0
69.911,-1.4267e-05,0
69.912,1.8463e-06,0
69.912,1.9974e-05,0
69.913,4.0116e-05,0
69.913,4.7166e-05,0
69.914,5.3544e-05,0
69.914,8.1575e-05,0
69.915,0.00011666,0
69.915,0.00013243,0
69.916,0.0001185,0
69.916,8.7114e-05,0
69.917,5.3544e-05,0
69.918,1.8296e-05,0
69.918,-2.6352e-05,0
69.919,-5.3712e-05,0
69.919,1.0071e-06,0
69.92,0.0001467,0
69.92,0.00026268,0
69.921,0.00025765,0
69.921,0.00013747,0
69.922,-2.7863e-05,0
69.922,-0.00016936,0
69.923,-0.00026352,0
69.923,-0.00029877,0
69.924,-0.00028098,0
69.924,-0.00025966,0
69.925,-0.00026638,0
69.925,-0.00025698,0
69.926,-0.00018195,0
69.926,-5.7404e-05,0
69.927,7.3014e-05,0
69.927,0.0001603,0
69.928,0.00017675,0
69.928,0.00013579,0
69.929,7.7043e-05,0
69.929,3.4241e-05,0
69.93,-1.5106e-06,0
69.931,-3.5584e-05,0
69.931,-4.7837e-05,0
69.932,-3.1052e-05,0
69.932,1.2589e-05,0
69.933,7.1672e-05,0
69.933,0.00012136,0
69.934,0.00013109,0
69.934,0.00010423,0
69.935,7.9728e-05,0
69.935,6.2272e-05,0
69.936,3.4409e-05,0
69.936,5.0355e-06,0
69.937,9.5674e-06,0
69.937,6.9993e-05,0
69.938,0.00016365,0
69.938,0.00022979,0
69.939,0.00024137,0
69.939,0.0002177,0
69.94,0.00018178,0
69.94,0.00016818,0
69.941,0.00018984,0
69.941,0.00019454,0
69.942,0.00014385,0
69.942,6.3783e-05,0
69.943,-1.4939e-05,0
69.944,-9.3324e-05,0
69.944,-0.00017742,0
69.945,-0.0002219,0
69.945,-0.00018094,0
69.946,-8.0735e-05,0
69.946,5.7069e-06,0
69.947,4.2802e-05,0
69.947,3.7263e-05,0
69.948,2.0813e-05,0
69.948,2.7359e-05,0
69.949,7.3014e-05,0
69.949,0.00013075,0
69.95,0.00014821,0
69.95,0.00012706,0
69.951,9.7856e-05,0
69.951,6.6636e-05,0
69.952,3.3738e-05,0
69.952,6.2104e-06,0
69.953,-1.9303e-05,0
69.953,-3.592e-05,0
69.954,-2.2492e-05,0
69.954,5.3544e-05,0
69.955,0.00013646,0
69.955,0.00013579,0
69.956,5.5558e-05,0
69.956,-4.8005e-05,0
69.957,-0.00013092,0
69.958,-0.00016365,0
69.958,-0.00014066,0
69.959,-7.8721e-05,0
69.959,-8.7282e-06,0
69.96,4.3473e-05,0
69.96,7.3014e-05,0
69.961,0.00010256,0
69.961,0.00012673,0
69.962,0.00012303,0
69.962,8.51e-05,0
69.963,2.0645e-05,0
69.963,-8.0903e-05,0
69.964,-0.00021518,0
69.964,-0.00030666,0
69.965,-0.00029407,0
69.965,-0.0001994,0
69.966,-8.4764e-05,0
69.966,3.8605e-06,0
69.967,4.4816e-05,0
69.967,4.4816e-05,0
69.968,2.5681e-05,0
69.968,9.9031e-06,0
69.969,1.4099e-05,0
69.969,3.743e-05,0
69.97,6.8986e-05,0
69.971,0.00010222,0
69.971,0.0001274,0
69.972,0.00013243,0
69.972,0.00012001,0
69.973,0.00010591,0
69.973,0.0001044,0
69.974,0.00011699,0
69.974,0.00013075,0
69.975,0.00013243,0
69.975,0.00011196,0
69.976,5.8579e-05,0
69.976,-2.1653e-05,0
69.977,-9.1646e-05,0
69.977,-0.00010558,0
69.978,-5.9251e-05,0
69.978,-2.652e-05,0
69.979,-5.7572e-05,0
69.979,-0.00010625,0
69.98,-0.00011447,0
69.98,-7.7379e-05,0
69.981,-2.031e-05,0
69.981,3.6759e-05,0
69.982,9.752e-05,0
69.982,0.00016567,0
69.983,0.00020528,0
69.983,0.00019118,0
69.984,0.00014754,0
69.985,0.00012119,0
69.985,0.00014015,0
69.986,0.00020394,0
69.986,0.00026621,0
69.987,0.00028988,0
69.987,0.00027813,0
69.988,0.00019857,0
69.988,4.9516e-05,0
69.989,-0.00010558,0
69.989,-0.00020293,0
69.99,-0.00024808,0
69.99,-0.00030834,0
69.991,-0.00041157,0
69.991,-0.00049146,0
69.992,-0.00048576,0
69.992,-0.00039864,0
69.993,-0.00026755,0
69.993,-0.00012538,0
69.994,-7.5532e-06,0
69.994,5.3544e-05,0
69.995,5.3544e-05,0
69.995,2.8031e-05,0
69.996,1.9303e-05,0
69.996,3.8437e-05,0
69.997,6.7979e-05,0
69.998,0.00010927,0
69.998,0.00016046,0
69.999,0.00019622,0
69.999,0.00019957,0
70,0.00019084,0
70,0.00020125,0
70.001,0.00023381,0
70.001,0.00023986,0
70.002,0.00019705,0
70.002,0.00014133,0
70.003,0.00010591,0
70.003,8.0232e-05,0
70.004,2.6688e-05,0
70.004,-4.918e-05,0
70.005,-9.5171e-05,0
70.005,-8.4596e-05,0
70.006,-4.3473e-05,0
70.006,-1.1749e-06,0
70.007,2.0813e-05,0
70.007,7.3854e-06,0
70.008,-4.8676e-05,0
70.008,-0.00011901,0
70.009,-0.00014351,0
70.009,-9.0471e-05,0
70.01,1.2421e-05,0
70.01,0.00010524,0
70.011,0.00014821,0
70.012,0.00016365,0
70.012,0.00022257,0
70.013,0.0002976,0
70.013,0.00029424,0
70.014,0.00019655,0
70.014,6.5293e-05,0
70.015,-4.7166e-05,0
70.015,-0.00012773,0
70.016,-0.00017557,0
70.016,-0.00018094,0
70.017,-0.00013629,0
70.017,-6.7979e-05,0
70.018,-1.1078e-05,0
70.018,3.8605e-05,0
70.019,9.2485e-05,0
70.019,0.00012874,0
70.02,0.00014049,0
70.02,0.00014385,0
70.021,0.00013143,0
70.021,7.0497e-05,0
70.022,-3.1052e-05,0
70.022,-0.00011095,0
70.023,-0.00013008,0
70.023,-0.00011296,0
70.024,-9.0471e-05,0
70.025,-6.1433e-05,0
70.025,-1.3596e-05,0
70.026,4.6159e-05,0
70.026,0.00010155,0
70.027,0.00014922,0
70.027,0.00017943,0
70.028,0.0001791,0
70.028,0.00019236,0
70.029,0.00030028,0
70.029,0.0004359,0
70.03,0.00044816,0
70.03,0.000308,0
70.031,9.9199e-05,0
70.031,-9.987e-05,0
70.032,-0.00025362,0
70.032,-0.0003686,0
70.033,-0.00046259,0
70.033,-0.00051144,0
70.034,-0.00047015,0
70.034,-0.0003268,0
70.035,-0.00013915,0
70.035,-1.2421e-05,0
70.036,-2.182e-06,0
70.036,-8.0232e-05,0
70.037,-0.0001707,0
70.037,-0.00018581,0
70.038,-0.00011279,0
70.039,-2.4002e-05,0
70.039,2.9374e-05,0
70.04,5.9922e-05,0
70.04,9.8863e-05,0
70.041,0.00013478,0
70.041,0.00014217,0
70.042,0.00012874,0
70.042,0.00011968,0
70.043,0.00014418,0
70.043,0.00021367,0
70.044,0.00027359,0
70.044,0.00028501,0
70.045,0.00026268,0
70.045,0.0002271,0
70.046,0.00018833,0
70.046,0.00015895,0
70.047,0.00013545,0
70.047,0.00011162,0
70.048,8.9464e-05,0
70.048,4.3809e-05,0
70.049,-4.4984e-05,0
70.049,-0.00014636,0
70.05,-0.00019353,0
70.05,-0.00015375,0
70.051,-7.2847e-05,0
70.052,-3.4745e-05,0
70.052,-7.8386e-05,0
70.053,-0.00014989,0
70.053,-0.0001895,0
70.054,-0.00017691,0
70.054,-0.00012102,0
70.055,-3.1724e-05,0
70.055,9.987e-05,0
70.056,0.00026235,0
70.056,0.00041509,0
70.057,0.00050036,0
70.057,0.00046712,0
70.058,0.00032143,0
70.058,0.00013478,0
70.059,-3.5248e-05,0
70.059,-0.00016265,0
70.06,-0.00025161,0
70.06,-0.00031505,0
70.061,-0.00035718,0
70.061,-0.00037514,0
70.062,-0.00034459,0
70.062,-0.00027947,0
70.063,-0.00019353,0
70.063,-8.9128e-05,0
70.064,1.5778e-05,0
70.064,0.00010524,0
70.065,0.00016416,0
70.066,0.00017826,0
70.066,0.000166,0
70.067,0.00017742,0
70.067,0.00021787,0
70.068,0.00023247,0
70.068,0.00017171,0
70.069,5.6901e-05,0
70.069,-7.0329e-05,0
70.07,-0.00018329,0
70.07,-0.00026403,0
70.071,-0.00027762,0
70.071,-0.00022106,0
70.072,-0.00013512,0
70.072,-5.6901e-05,0
70.073,5.2033e-06,0
70.073,5.7237e-05,0
70.074,9.5003e-05,0
70.074,0.0001138,0
70.075,0.00012068,0
70.075,0.00012438,0
70.076,0.00014469,0
70.076,0.00021334,0
70.077,0.00032613,0
70.077,0.00041073,0
70.078,0.00042953,0
70.079,0.00039797,0
70.079,0.00031807,0
70.08,0.00019655,0
70.08,7.0161e-05,0
70.081,-5.9251e-05,0
70.081,-0.00021233,0
70.082,-0.00034107,0
70.082,-0.00035584,0
70.083,-0.00024489,0
70.083,-9.0639e-05,0
70.084,3.2563e-05,0
70.084,0.00010289,0
70.085,0.00012522,0
70.085,0.00011061,0
70.086,7.2343e-05,0
70.086,3.1052e-05,0
70.087,-3.5248e-06,0
70.087,-2.3667e-05,0
70.088,2.3499e-06,0
70.088,3.0716e-05,0
70.089,2.182e-06,0
70.089,-4.3809e-05,0
70.09,-1.9638e-05,0
70.09,9.8527e-05,0
70.091,0.00019857,0
70.091,0.00018111,0
70.092,7.7714e-05,0
70.093,-4.3473e-05,0
70.093,-0.00013881,0
70.094,-0.00018279,0
70.094,-0.00018346,0
70.095,-0.00016365,0
70.095,-0.00013025,0
70.096,-0.00010222,0
70.096,-0.00010155,0
70.097,-0.00010591,0
70.097,-8.1743e-05,0
70.098,-1.5106e-05,0
70.098,8.04e-05,0
70.099,0.00016281,0
70.099,0.00020763,0
70.1,0.00023616,0
70.1,0.00025463,0
70.101,0.00022676,0
70.101,0.00015677,0
70.102,9.7185e-05,0
70.102,8.0064e-05,0
70.103,8.5603e-05,0
70.103,6.6133e-05,0
70.104,1.4267e-05,0
70.104,-3.743e-05,0
70.105,-5.8579e-05,0
70.106,-4.5823e-05,0
70.106,-2.3499e-05,0
70.107,-3.4409e-05,0
70.107,-7.8721e-05,0
70.108,-0.00010423,0
70.108,-7.9057e-05,0
70.109,-2.031e-05,0
70.109,3.3402e-05,0
70.11,4.8844e-05,0
70.11,3.8773e-05,0
70.111,3.2395e-05,0
70.111,2.9374e-05,0
70.112,2.0981e-05,0
70.112,1.1582e-05,0
70.113,1.6785e-07,0
70.113,-1.4771e-05,0
70.114,-6.0426e-06,0
70.114,3.2563e-05,0
70.115,5.6733e-05,0
70.115,4.8844e-05,0
70.116,8.0903e-05,0
70.116,0.00016197,0
70.117,0.00020897,0
70.117,0.00018245,0
70.118,0.00010323,0
70.118,2.0142e-05,0
70.119,-2.4674e-05,0
70.12,-3.2059e-05,0
70.12,-5.388e-05,0
70.121,-0.00010826,0
70.121,-0.00017977,0
70.122,-0.00022509,0
70.122,-0.00019236,0
70.123,-5.3208e-05,0
70.123,0.00011229,0
70.124,0.00015627,0
70.124,4.3641e-05,0
70.125,-0.00012639,0
70.125,-0.00023952,0
70.126,-0.00027527,0
70.126,-0.00026386,0
70.127,-0.00020092,0
70.127,-8.275e-05,0
70.128,4.0116e-05,0
70.128,0.00010591,0
70.129,0.00010188,0
70.129,5.8244e-05,0
70.13,1.796e-05,0
70.13,2.0813e-05,0
70.131,6.2943e-05,0
70.131,0.00010591,0
70.132,0.00010843,0
70.132,7.7043e-05,0
70.133,3.2395e-05,0
70.134,0,0
70.134,1.3596e-05,0
70.135,3.6088e-05,0
70.135,3.6088e-05,0
70.136,6.009e-05,0
70.136,0.00012639,0
70.137,0.00019319,0
70.137,0.00023616,0
70.138,0.00024019,0
70.138,0.00019991,0
70.139,0.00013764,0
70.139,8.1575e-05,0
70.14,5.2873e-05,0
70.14,5.8915e-05,0
70.141,0.000118,0
70.141,0.00020058,0
70.142,0.00022911,0
70.142,0.00016399,0
70.143,3.8102e-05,0
70.143,-6.244e-05,0
70.144,-9.3492e-05,0
70.144,-8.5435e-05,0
70.145,-9.8527e-05,0
70.145,-0.0001603,0
70.146,-0.00021468,0
70.147,-0.00020276,0
70.147,-0.00010541,0
70.148,2.8031e-05,0
70.148,0.00012723,0
70.149,0.00019689,0
70.149,0.00029088,0
70.15,0.00040485,0
70.15,0.0004255,0
70.151,0.00028786,0
70.151,5.7908e-05,0
70.152,-0.00015459,0
70.152,-0.0003174,0
70.153,-0.00046242,0
70.153,-0.00059586,0
70.154,-0.00062155,0
70.154,-0.00047417,0
70.155,-0.00022928,0
70.155,-2.3499e-05,0
70.156,8.3757e-05,0
70.156,0.00013143,0
70.157,0.00015694,0
70.157,0.00016835,0
70.158,0.00016986,0
70.158,0.00016768,0
70.159,0.00016634,0
70.159,0.0001707,0
70.16,0.00017842,0
70.161,0.00018044,0
70.161,0.00016768,0
70.162,0.00013629,0
70.162,8.9799e-05,0
70.163,3.8102e-05,0
70.163,-7.5532e-06,0
70.164,-4.5823e-05,0
70.164,-7.3518e-05,0
70.165,-7.7714e-05,0
70.165,-6.5293e-05,0
70.166,-5.7908e-05,0
70.166,-4.683e-05,0
70.167,-1.7288e-05,0
70.167,2.9038e-05,0
70.168,9.1142e-05,0
70.168,0.00016197,0
70.169,0.00021468,0
70.169,0.00023751,0
70.17,0.00023616,0
70.17,0.00022223,0
70.171,0.00020192,0
70.171,0.0001754,0
70.172,0.00013915,0
70.172,8.51e-05,0
70.173,4.5319e-06,0
70.174,-0.00010121,0
70.174,-0.00020948,0
70.175,-0.0002835,0
70.175,-0.00028014,0
70.176,-0.00020394,0
70.176,-0.00010961,0
70.177,-3.592e-05,0
70.177,1.4603e-05,0
70.178,4.6662e-05,0
70.178,7.1672e-05,0
70.179,9.2821e-05,0
70.179,0.00010591,0
70.18,0.00011632,0
70.18,0.00011984,0
70.181,0.00010658,0
70.181,7.1504e-05,0
70.182,1.8128e-05,0
70.182,-3.5416e-05,0
70.183,-5.8076e-05,0
70.183,-3.4745e-05,0
70.184,7.2175e-06,0
70.184,2.5681e-05,0
70.185,1.6617e-05,0
70.185,8.896e-06,0
70.186,1.4603e-05,0
70.186,2.7024e-05,0
70.187,4.1794e-05,0
70.188,4.0787e-05,0
70.188,7.8889e-06,0
70.189,-5.6565e-05,0
70.189,-0.00013344,0
70.19,-0.00018077,0
70.19,-0.00016399,0
70.191,-0.00010961,0
70.191,-4.1123e-05,0
70.192,6.7475e-05,0
70.192,0.00018514,0
70.193,0.00023583,0
70.193,0.00020729,0
70.194,0.00014049,0
70.194,7.6875e-05,0
70.195,3.7934e-05,0
70.195,3.0716e-05,0
70.196,3.2059e-05,0
70.196,1.5274e-05,0
70.197,-1.1582e-05,0
70.197,-1.9974e-05,0
70.198,-1.2589e-05,0
70.198,-3.1052e-05,0
70.199,-7.1504e-05,0
70.199,-7.9728e-05,0
70.2,-2.9709e-05,0
70.201,5.4887e-05,0
70.201,0.00013864,0
70.202,0.00017574,0
70.202,0.00013545,0
70.203,5.4215e-05,0
70.203,-3.0381e-05,0
70.204,-0.0001284,0
70.204,-0.00022979,0
70.205,-0.00029139,0
70.205,-0.00027443,0
70.206,-0.00016667,0
70.206,-1.0071e-05,0
70.207,0.00011481,0
70.207,0.0001415,0
70.208,7.2007e-05,0
70.208,-1.7121e-05,0
70.209,-4.6326e-05,0
70.209,-1.1917e-05,0
70.21,3.9612e-05,0
70.21,8.5771e-05,0
70.211,0.00012605,0
70.211,0.00015627,0
70.212,0.00016802,0
70.212,0.00015895,0
70.213,0.00014183,0
70.213,0.00012505,0
70.214,9.987e-05,0
70.215,6.4286e-05,0
70.215,4.1291e-05,0
70.216,3.978e-05,0
70.216,4.8173e-05,0
70.217,6.9657e-05,0
70.217,0.00013512,0
70.218,0.00021703,0
70.218,0.00024036,0
70.219,0.00019454,0
70.219,0.00012924,0
70.22,7.5364e-05,0
70.22,3.6088e-05,0
70.221,1.0575e-05,0
70.221,-8.3925e-07,0
70.222,1.1582e-05,0
70.222,7.2343e-05,0
70.223,0.00014955,0
70.223,0.0001566,0
70.224,6.6972e-05,0
70.224,-5.8244e-05,0
70.225,-0.00015677,0
70.225,-0.00020696,0
70.226,-0.0002219,0
70.226,-0.00023381,0
70.227,-0.00023163,0
70.228,-0.0001984,0
70.228,-0.00013948,0
70.229,-6.2943e-05,0
70.229,1.5778e-05,0
70.23,6.5461e-05,0
70.23,8.1407e-05,0
70.231,8.9296e-05,0
70.231,9.7185e-05,0
70.232,9.0471e-05,0
70.232,6.2272e-05,0
70.233,2.6017e-05,0
70.233,-4.3641e-06,0
70.234,-2.1653e-05,0
70.234,-2.4002e-05,0
70.235,-6.3783e-06,0
70.235,3.5752e-05,0
70.236,6.9993e-05,0
70.236,6.2776e-05,0
70.237,2.4338e-05,0
70.237,-4.8676e-06,0
70.238,-1.0407e-05,0
70.238,-2.8534e-06,0
70.239,6.8818e-06,0
70.239,1.2085e-05,0
70.24,1.1582e-05,0
70.24,1.7288e-05,0
70.241,3.978e-05,0
70.242,7.57e-05,0
70.242,0.00010541,0
70.243,0.00011313,0
70.243,9.2988e-05,0
70.244,5.0523e-05,0
70.244,-2.0142e-06,0
70.245,-4.3641e-05,0
70.245,-3.978e-05,0
70.246,1.1749e-06,0
70.246,2.266e-05,0
70.247,-2.8534e-06,0
70.247,-4.1962e-05,0
70.248,-5.7404e-05,0
70.248,-5.4047e-05,0
70.249,-4.9851e-05,0
70.249,-3.6591e-05,0
70.25,2.182e-06,0
70.25,5.5894e-05,0
70.251,0.00010927,0
70.251,0.00014754,0
70.252,0.00015459,0
70.252,0.00013613,0
70.253,0.00011464,0
70.253,9.9199e-05,0
70.254,8.2414e-05,0
70.255,4.9348e-05,0
70.255,-1.0575e-05,0
70.256,-8.7114e-05,0
70.256,-0.00016634,0
70.257,-0.00023532,0
70.257,-0.00026621,0
70.258,-0.00023012,0
70.258,-0.00013831,0
70.259,-2.7024e-05,0
70.259,7.3014e-05,0
70.26,0.00013848,0
70.26,0.00016097,0
70.261,0.00015123,0
70.261,0.00012035,0
70.262,7.3014e-05,0
70.262,3.6088e-05,0
70.263,2.0478e-05,0
70.263,1.1749e-06,0
70.264,2.0478e-05,0
70.264,0.00011061,0
70.265,0.00021569,0
70.265,0.00025899,0
70.266,0.00023146,0
70.266,0.0001608,0
70.267,5.8244e-05,0
70.267,-5.7572e-05,0
70.268,-0.00015946,0
70.269,-0.00024842,0
70.269,-0.00030867,0
70.27,-0.00028098,0
70.27,-0.00016063,0
70.271,-3.8605e-05,0
70.271,1.6785e-06,0
70.272,-3.9445e-05,0
70.272,-0.00010323,0
70.273,-0.00014334,0
70.273,-0.00014435,0
70.274,-0.00012387,0
70.274,-0.00010256,0
70.275,-6.2943e-05,0
70.275,0,0
70.276,6.5461e-05,0
70.276,0.000118,0
70.277,0.00014284,0
70.277,0.0001279,0
70.278,8.2246e-05,0
70.278,5.1362e-05,0
70.279,5.9754e-05,0
70.279,8.1407e-05,0
70.28,9.2821e-05,0
70.28,0.00012001,0
70.281,0.00015459,0
70.282,0.00014116,0
70.282,8.5435e-05,0
70.283,6.5126e-05,0
70.283,0.00011263,0
70.284,0.00019286,0
70.284,0.00028383,0
70.285,0.00032076,0
70.285,0.00026134,0
70.286,0.00012337,0
70.286,-2.9038e-05,0
70.287,-0.00014821,0
70.287,-0.00022928,0
70.288,-0.0002652,0
70.288,-0.00023062,0
70.289,-0.00012992,0
70.289,-1.6785e-06,0
70.29,0.00010138,0
70.29,0.00015593,0
70.291,0.00016231,0
70.291,0.00012807,0
70.292,9.2317e-05,0
70.292,7.5029e-05,0
70.293,6.6133e-05,0
70.293,4.0284e-05,0
70.294,-1.4267e-05,0
70.294,-7.57e-05,0
70.295,-0.00011263,0
70.296,-0.00010642,0
70.296,-6.3615e-05,0
70.297,-9.7353e-06,0
70.297,2.7192e-05,0
70.298,5.153e-05,0
70.298,7.8386e-05,0
70.299,9.6178e-05,0
70.299,9.752e-05,0
70.3,9.6513e-05,0
70.3,0.00011279,0
70.301,0.0001274,0
70.301,0.00012639,0
70.302,0.00012169,0
70.302,0.00010608,0
70.303,8.0232e-05,0
70.303,6.6133e-05,0
70.304,7.0665e-05,0
70.304,7.9057e-05,0
70.305,7.1672e-05,0
70.305,3.978e-05,0
70.306,-4.6998e-06,0
70.306,-5.2201e-05,0
70.307,-8.8121e-05,0
70.307,-0.00011363,0
70.308,-0.00013545,0
70.309,-0.00012572,0
70.309,-5.3544e-05,0
70.31,5.7572e-05,0
70.31,0.0001509,0
70.311,0.00018648,0
70.311,0.00016164,0
70.312,0.0001091,0
70.312,5.8579e-05,0
70.313,1.1246e-05,0
70.313,-2.6688e-05,0
70.314,-4.7837e-05,0
70.314,-5.774e-05,0
70.315,-5.4719e-05,0
70.315,-4.5823e-05,0
70.316,-4.8005e-05,0
70.316,-5.2537e-05,0
70.317,-3.2898e-05,0
70.317,7.7211e-06,0
70.318,4.1962e-05,0
70.318,5.5558e-05,0
70.319,4.7501e-05,0
70.319,2.9709e-05,0
70.32,1.5946e-05,0
70.32,8.5603e-06,0
70.321,6.2104e-06,0
70.322,1.7121e-05,0
70.322,4.6159e-05,0
70.323,8.5771e-05,0
70.323,0.00012605,0
70.324,0.00016835,0
70.324,0.00020494,0
70.325,0.00021669,0
70.325,0.0001994,0
70.326,0.00016516,0
70.326,0.00012941,0
70.327,0.00010591,0
70.327,9.0135e-05,0
70.328,5.9586e-05,0
70.328,-9.5674e-06,0
70.329,-0.00011615,0
70.329,-0.00025328,0
70.33,-0.00040351,0
70.33,-0.00049751,0
70.331,-0.00047803,0
70.331,-0.00033956,0
70.332,-0.00015593,0
70.332,-2.4842e-05,0
70.333,2.7695e-05,0
70.333,2.4002e-05,0
70.334,-4.5319e-06,0
70.334,-3.6927e-05,0
70.335,-5.7908e-05,0
70.336,-5.623e-05,0
70.336,-3.978e-05,0
70.337,-1.8296e-05,0
70.337,6.3783e-06,0
70.338,3.2731e-05,0
70.338,6.2608e-05,0
70.339,9.3828e-05,0
70.339,0.00011565,0
70.34,0.00011783,0
70.34,0.00011397,0
70.341,0.00012085,0
70.341,0.00013982,0
70.342,0.00015962,0
70.342,0.00016584,0
70.343,0.00015795,0
70.343,0.00014217,0
70.344,0.00012236,0
70.344,0.00010188,0
70.345,8.4428e-05,0
70.345,8.4428e-05,0
70.346,0.00010977,0
70.346,0.00013143,0
70.347,0.00013378,0
70.347,0.0001227,0
70.348,0.00010088,0
70.349,7.9393e-05,0
70.349,9.1142e-05,0
70.35,0.00012874,0
70.35,0.00014788,0
70.351,0.00012186,0
70.351,7.1336e-05,0
70.352,1.9806e-05,0
70.352,-3.6591e-05,0
70.353,-0.00010642,0
70.353,-0.00018228,0
70.354,-0.00023667,0
70.354,-0.00025513,0
70.355,-0.00025631,0
70.355,-0.00023919,0
70.356,-0.00018799,0
70.356,-0.00014519,0
70.357,-0.0001514,0
70.357,-0.00014116,0
70.358,-5.2705e-05,0
70.358,6.2272e-05,0
70.359,0.00011061,0
70.359,5.0523e-05,0
70.36,-7.1504e-05,0
70.36,-0.00015526,0
70.361,-0.0001425,0
70.361,-6.4958e-05,0
70.362,-3.8605e-06,0
70.363,2.3331e-05,0
70.363,6.5629e-05,0
70.364,0.0001566,0
70.364,0.00026369,0
70.365,0.00037111,0
70.365,0.00047518,0
70.366,0.00046981,0
70.366,0.00029995,0
70.367,5.9922e-05,0
70.367,-9.6345e-05,0
70.368,-0.00014183,0
70.368,-0.00015862,0
70.369,-0.00017775,0
70.369,-0.00017255,0
70.37,-0.00014334,0
70.37,-0.00011095,0
70.371,-8.3085e-05,0
70.371,-7.6204e-05,0
70.372,-0.00012471,0
70.372,-0.00020864,0
70.373,-0.00023667,0
70.373,-0.00014418,0
70.374,1.5946e-05,0
70.374,0.00013411,0
70.375,0.0001655,0
70.376,0.0001321,0
70.376,8.2414e-05,0
70.377,5.4383e-05,0
70.377,5.6901e-05,0
70.378,8.4932e-05,0
70.378,0.00014284,0
70.379,0.00020998,0
70.379,0.0002313,0
70.38,0.00018447,0
70.38,9.8192e-05,0
70.381,1.5274e-05,0
70.381,-4.2802e-05,0
70.382,-7.1839e-05,0
70.382,-5.8244e-05,0
70.383,-6.714e-07,0
70.383,7.1e-05,0
70.384,0.00012706,0
70.384,0.00014485,0
70.385,0.00013344,0
70.385,0.00011397,0
70.386,9.9535e-05,0
70.386,9.5506e-05,0
70.387,0.00010256,0
70.387,0.00011363,0
70.388,0.00011598,0
70.388,0.00011128,0
70.389,0.00010239,0
70.39,9.4163e-05,0
70.39,0.00010491,0
70.391,0.00011867,0
70.391,9.3324e-05,0
70.392,3.4409e-05,0
70.392,-3.1052e-05,0
70.393,-8.04e-05,0
70.393,-0.00010893,0
70.394,-0.00011162,0
70.394,-9.0806e-05,0
70.395,-6.4622e-05,0
70.395,-4.2634e-05,0
70.396,-1.7288e-05,0
70.396,-1.6785e-07,0
70.397,-8.5603e-06,0
70.397,-2.7024e-05,0
70.398,-2.4338e-05,0
70.398,1.6785e-06,0
70.399,2.5849e-05,0
70.399,3.2395e-05,0
70.4,2.6017e-05,0
70.4,1.3931e-05,0
70.401,-6.714e-06,0
70.401,-3.3066e-05,0
70.402,-4.8005e-05,0
70.403,-4.0284e-05,0
70.403,-1.6281e-05,0
70.404,2.0645e-05,0
70.404,5.7572e-05,0
70.405,7.2343e-05,0
70.405,6.1936e-05,0
70.406,4.4144e-05,0
70.406,4.213e-05,0
70.407,5.5222e-05,0
70.407,6.1433e-05,0
70.408,4.7501e-05,0
70.408,2.1988e-05,0
70.409,-4.5319e-06,0
70.409,-2.2156e-05,0
70.41,-2.1485e-05,0
70.41,-1.2253e-05,0
70.411,-8.5603e-06,0
70.411,-7.2175e-06,0
70.412,-2.182e-06,0
70.412,1.1582e-05,0
70.413,3.8605e-05,0
70.413,7.5532e-05,0
70.414,0.0001039,0
70.414,0.00010558,0
70.415,7.7714e-05,0
70.415,4.0116e-05,0
70.416,1.3092e-05,0
70.417,1.0071e-06,0
70.417,1.0407e-05,0
70.418,3.8102e-05,0
70.418,6.6972e-05,0
70.419,6.3279e-05,0
70.419,6.5461e-06,0
70.42,-8.4092e-05,0
70.42,-0.00017826,0
70.421,-0.00023549,0
70.421,-0.00020998,0
70.422,-9.8024e-05,0
70.422,4.6159e-05,0
70.423,0.00016013,0
70.423,0.00021736,0
70.424,0.00022475,0
70.424,0.00020528,0
70.425,0.00016835,0
70.425,0.00011514,0
70.426,4.7501e-05,0
70.426,-3.6423e-05,0
70.427,-0.00013982,0
70.427,-0.00024254,0
70.428,-0.00030532,0
70.428,-0.00030666,0
70.429,-0.00025211,0
70.43,-0.00016768,0
70.43,-8.4764e-05,0
70.431,-2.4338e-05,0
70.431,1.561e-05,0
70.432,4.448e-05,0
70.432,7.8721e-05,0
70.433,0.000142,0
70.433,0.00022676,0
70.434,0.00029793,0
70.434,0.00030901,0
70.435,0.00025362,0
70.435,0.00017406,0
70.436,0.0001086,0
70.436,4.3305e-05,0
70.437,-5.2873e-05,0
70.437,-0.00016466,0
70.438,-0.00024556,0
70.438,-0.00023868,0
70.439,-0.00012572,0
70.439,4.0116e-05,0
70.44,0.00018178,0
70.44,0.00027225,0
70.441,0.00032747,0
70.441,0.00035836,0
70.442,0.0003597,0
70.442,0.00032949,0
70.443,0.00026638,0
70.444,0.0001556,0
70.444,-2.2324e-05,0
70.445,-0.00026621,0
70.445,-0.00048441,0
70.446,-0.00052738,0
70.446,-0.00034762,0
70.447,-7.8889e-05,0
70.447,0.00011431,0
70.448,0.00019756,0
70.448,0.00020192,0
70.449,0.00016835,0
70.449,0.00013327,0
70.45,0.00011044,0
70.45,0.00010927,0
70.451,0.00012169,0
70.451,0.00010843,0
70.452,5.6901e-05,0
70.452,-1.9638e-05,0
70.453,-0.00010742,0
70.453,-0.00017607,0
70.454,-0.0001895,0
70.454,-0.00015543,0
70.455,-0.00012908,0
70.455,-0.00013663,0
70.456,-0.00015157,0
70.457,-0.00013613,0
70.457,-8.4092e-05,0
70.458,-3.8605e-05,0
70.458,-4.0955e-05,0
70.459,-4.1627e-05,0
70.459,2.4002e-05,0
70.46,0.0001133,0
70.46,0.00016365,0
70.461,0.00015795,0
70.461,0.00012404,0
70.462,0.00010306,0
70.462,0.00011464,0
70.463,0.0001519,0
70.463,0.00019051,0
70.464,0.00020343,0
70.464,0.00017523,0
70.465,0.00010256,0
70.465,3.1052e-05,0
70.466,7.8889e-06,0
70.466,5.3544e-05,0
70.467,0.00011514,0
70.467,0.00010239,0
70.468,-8.5603e-06,0
70.468,-0.00015056,0
70.469,-0.00025698,0
70.469,-0.00032277,0
70.47,-0.0003592,0
70.471,-0.00034443,0
70.471,-0.00025429,0
70.472,-0.00011632,0
70.472,2.8199e-05,0
70.473,0.00014015,0
70.473,0.00019051,0
70.474,0.00017691,0
70.474,0.00012337,0
70.475,6.4622e-05,0
70.475,2.887e-05,0
70.476,3.4745e-05,0
70.476,8.2414e-05,0
70.477,0.0001462,0
70.477,0.00016768,0
70.478,0.00011699,0
70.478,3.2059e-05,0
70.479,-4.213e-05,0
70.479,-9.8192e-05,0
70.48,-0.00013764,0
70.48,-0.0001519,0
70.481,-0.00012824,0
70.481,-7.9393e-05,0
70.482,-3.0213e-05,0
70.482,1.5106e-05,0
70.483,6.0258e-05,0
70.484,9.5842e-05,0
70.484,0.00011632,0
70.485,0.00012186,0
70.485,0.00011196,0
70.486,9.6345e-05,0
70.486,9.8192e-05,0
70.487,0.00011431,0
70.487,0.00012203,0
70.488,0.00011632,0
70.488,8.9799e-05,0
70.489,4.2634e-05,0
70.489,5.2033e-06,0
70.49,4.1962e-06,0
70.49,2.9206e-05,0
70.491,4.7669e-05,0
70.491,4.0787e-05,0
70.492,2.0981e-05,0
70.492,1.4099e-05,0
70.493,2.6352e-05,0
70.493,4.3641e-05,0
70.494,7.3014e-05,0
70.494,0.00012505,0
70.495,0.00016936,0
70.495,0.00017171,0
70.496,0.0001368,0
70.496,8.8457e-05,0
70.497,3.8437e-05,0
70.498,-1.3596e-05,0
70.498,-5.5894e-05,0
70.499,-7.4189e-05,0
70.499,-7.57e-05,0
70.5,-7.8721e-05,0
70.5,-8.7114e-05,0
70.501,-8.4764e-05,0
70.501,-5.2369e-05,0
70.502,1.1749e-06,0
70.502,5.2873e-05,0
70.503,8.8457e-05,0
70.503,0.00010457,0
70.504,0.00011095,0
70.504,0.00011397,0
70.505,0.00010323,0
70.505,7.7546e-05,0
70.506,4.5823e-05,0
70.506,1.1246e-05,0
70.507,-2.3835e-05,0
70.507,-4.2802e-05,0
70.508,-4.1123e-05,0
70.508,-2.1653e-05,0
70.509,2.2324e-05,0
70.509,8.1071e-05,0
70.51,0.00011833,0
70.51,0.00010071,0
70.511,3.6423e-05,0
70.512,-4.1962e-05,0
70.512,-0.00011246,0
70.513,-0.0001378,0
70.513,-9.4163e-05,0
70.514,-4.1962e-06,0
70.514,8.0903e-05,0
70.515,0.00013814,0
70.515,0.00014754,0
70.516,9.5171e-05,0
70.516,2.9374e-05,0
70.517,7.8889e-06,0
70.517,2.266e-05,0
70.518,1.6953e-05,0
70.518,-3.4577e-05,0
70.519,-9.4163e-05,0
70.519,-9.1478e-05,0
70.52,-3.9445e-05,0
70.52,-8.896e-06,0
70.521,-8.7282e-06,0
70.521,-2.2828e-05,0
70.522,-5.304e-05,0
70.522,-8.7282e-05,0
70.523,-9.9199e-05,0
70.523,-8.2918e-05,0
70.524,-4.6494e-05,0
70.525,3.6927e-06,0
70.525,5.774e-05,0
70.526,9.4835e-05,0
70.526,0.0001138,0
70.527,0.00012136,0
70.527,0.00012001,0
70.528,0.00011649,0
70.528,0.00011347,0
70.529,0.00010709,0
70.529,9.7353e-05,0
70.53,8.3757e-05,0
70.53,7.3518e-05,0
70.531,6.3615e-05,0
70.531,5.0187e-05,0
70.532,5.2201e-05,0
70.532,8.0232e-05,0
70.533,0.00011112,0
70.533,0.00011313,0
70.534,7.7714e-05,0
70.534,2.4338e-05,0
70.535,-2.4674e-05,0
70.535,-5.8412e-05,0
70.536,-8.2414e-05,0
70.536,-0.00010709,0
70.537,-0.00013243,0
70.537,-0.00014653,0
70.538,-0.00014452,0
70.539,-0.00012169,0
70.539,-8.2078e-05,0
70.54,-3.1052e-05,0
70.54,1.3596e-05,0
70.541,3.2563e-05,0
70.541,2.2995e-05,0
70.542,7.2175e-06,0
70.542,1.1749e-06,0
70.543,3.0213e-06,0
70.543,4.0284e-06,0
70.544,-2.6856e-06,0
70.544,-1.6953e-05,0
70.545,-2.6688e-05,0
70.545,-1.9974e-05,0
70.546,1.0575e-05,0
70.546,5.1698e-05,0
70.547,7.57e-05,0
70.547,6.9657e-05,0
70.548,3.7095e-05,0
70.548,-9.9031e-06,0
70.549,-3.4241e-05,0
70.549,-1.2924e-05,0
70.55,2.9374e-05,0
70.55,6.4958e-05,0
70.551,7.7714e-05,0
70.552,6.865e-05,0
70.552,4.7837e-05,0
70.553,3.1388e-05,0
70.553,3.4409e-05,0
70.554,5.153e-05,0
70.554,6.5629e-05,0
70.555,7.335e-05,0
70.555,7.4861e-05,0
70.556,7.2679e-05,0
70.556,7.8889e-05,0
70.557,9.2821e-05,0
70.557,0.00010423,0
70.558,0.00010927,0
70.558,0.00010692,0
70.559,0.0001039,0
70.559,0.00011313,0
70.56,0.00012689,0
70.56,0.00013059,0
70.561,0.00011598,0
70.561,7.805e-05,0
70.562,2.0478e-05,0
70.562,-4.7837e-05,0
70.563,-0.00010071,0
70.563,-0.00010491,0
70.564,-6.6972e-05,0
70.564,-2.6184e-05,0
70.565,-1.6281e-05,0
70.566,-4.8676e-05,0
70.566,-9.6849e-05,0
70.567,-0.00010944,0
70.567,-8.1407e-05,0
70.568,-5.2201e-05,0
70.568,-3.2395e-05,0
70.569,-8.7282e-06,0
70.569,8.5603e-06,0
70.57,8.7282e-06,0
70.57,-1.8463e-06,0
70.571,-9.3996e-06,0
70.571,3.1891e-06,0
70.572,2.8031e-05,0
70.572,4.3641e-05,0
70.573,4.3809e-05,0
70.573,3.1052e-05,0
70.574,1.3596e-05,0
70.574,2.5177e-06,0
70.575,-5.0355e-06,0
70.575,-1.2924e-05,0
70.576,-1.561e-05,0
70.576,-1.4939e-05,0
70.577,-2.3499e-05,0
70.577,-4.2634e-05,0
70.578,-3.6423e-05,0
70.579,1.8967e-05,0
70.579,9.7856e-05,0
70.58,0.00015828,0
70.58,0.00018178,0
70.581,0.00018228,0
70.581,0.00018715,0
70.582,0.00018766,0
70.582,0.00015123,0
70.583,8.3925e-05,0
70.583,1.4267e-05,0
70.584,-6.5461e-05,0
70.584,-0.00015879,0
70.585,-0.00020729,0
70.585,-0.00016097,0
70.586,-5.9922e-05,0
70.586,1.9974e-05,0
70.587,6.1601e-05,0
70.587,7.805e-05,0
70.588,7.7714e-05,0
70.588,6.2272e-05,0
70.589,4.0116e-05,0
70.589,1.3596e-05,0
70.59,-2.4842e-05,0
70.59,-7.7043e-05,0
70.591,-0.00013931,0
70.591,-0.00018447,0
70.592,-0.00017943,0
70.593,-0.00010927,0
70.593,2.8702e-05,0
70.594,0.00019101,0
70.594,0.00027443,0
70.595,0.0002548,0
70.595,0.00022206,0
70.596,0.00022995,0
70.596,0.00022307,0
70.597,0.0001608,0
70.597,4.4816e-05,0
70.598,-8.7953e-05,0
70.598,-0.0001707,0
70.599,-0.00017574,0
70.599,-0.00012236,0
70.6,-5.6733e-05,0
70.6,-1.4267e-05,0
70.601,8.3925e-07,0
70.601,-2.8534e-06,0
70.602,6.8818e-06,0
70.602,5.0187e-05,0
70.603,0.00010021,0
70.603,0.00013495,0
70.604,0.00015795,0
70.604,0.00016936,0
70.605,0.00016449,0
70.606,0.00015106,0
70.606,0.00014821,0
70.607,0.00017272,0
70.607,0.00021837,0
70.608,0.00023247,0
70.608,0.00018917,0
70.609,0.00011414,0
70.609,3.1724e-05,0
70.61,-5.3208e-05,0
70.61,-0.00013227,0
70.611,-0.0002036,0
70.611,-0.00027561,0
70.612,-0.00035013,0
70.612,-0.00039193,0
70.613,-0.00034627,0
70.613,-0.00022643,0
70.614,-0.0001086,0
70.614,-3.4577e-05,0
70.615,2.4002e-05,0
70.615,9.2821e-05,0
70.616,0.00013948,0
70.616,0.0001378,0
70.617,0.00010457,0
70.617,6.0929e-05,0
70.618,1.7624e-05,0
70.618,-1.8463e-05,0
70.619,-4.3137e-05,0
70.62,-4.3305e-05,0
70.62,-1.8128e-05,0
70.621,7.2175e-06,0
70.621,1.3931e-05,0
70.622,4.1962e-06,0
70.622,-8.896e-06,0
70.623,-1.3092e-05,0
70.623,-1.1749e-06,0
70.624,2.182e-05,0
70.624,3.9445e-05,0
70.625,3.7766e-05,0
70.625,2.9038e-05,0
70.626,2.8534e-05,0
70.626,3.4073e-05,0
70.627,3.2395e-05,0
70.627,1.5946e-05,0
70.628,-4.1962e-06,0
70.628,-7.8889e-06,0
70.629,1.8128e-05,0
70.629,5.8579e-05,0
70.63,8.8457e-05,0
70.63,0.00010826,0
70.631,0.0001284,0
70.631,0.00014284,0
70.632,0.00014032,0
70.633,0.00011934,0
70.633,9.4499e-05,0
70.634,8.3925e-05,0
70.634,8.9128e-05,0
70.635,9.752e-05,0
70.635,9.6513e-05,0
70.636,8.6275e-05,0
70.636,8.6946e-05,0
70.637,0.00010776,0
70.637,0.0001321,0
70.638,0.00014687,0
70.638,0.00016667,0
70.639,0.00018178,0
70.639,0.00013898,0
70.64,2.6688e-05,0
70.64,-0.00010037,0
70.641,-0.00018514,0
70.641,-0.00021267,0
70.642,-0.00019303,0
70.642,-0.00013814,0
70.643,-8.1407e-05,0
70.643,-6.1433e-05,0
70.644,-6.6636e-05,0
70.644,-4.7166e-05,0
70.645,5.0355e-06,0
70.645,2.8702e-05,0
70.646,-2.2995e-05,0
70.647,-0.00010155,0
70.647,-0.00013562,0
70.648,-0.00012018,0
70.648,-0.00011229,0
70.649,-0.00013646,0
70.649,-0.00014116,0
70.65,-9.1646e-05,0
70.65,-6.2104e-06,0
70.651,9.0135e-05,0
70.651,0.00015258,0
70.652,0.00015912,0
70.652,0.00013864,0
70.653,0.00012035,0
70.653,0.00010188,0
70.654,5.2537e-05,0
70.654,-4.9851e-05,0
70.655,-0.00014485,0
70.655,-0.00014536,0
70.656,-4.918e-05,0
70.656,8.0232e-05,0
70.657,0.00016265,0
70.657,0.00017037,0
70.658,0.00014989,0
70.658,0.00018212,0
70.659,0.00027611,0
70.66,0.00036104,0
70.66,0.00038253,0
70.661,0.00034224,0
70.661,0.00025161,0
70.662,0.00012723,0
70.662,5.0355e-07,0
70.663,-0.00010826,0
70.663,-0.00019152,0
70.664,-0.00024842,0
70.664,-0.00025379,0
70.665,-0.00016432,0
70.665,-1.7624e-05,0
70.666,0.00010054,0
70.666,0.0001227,0
70.667,4.3473e-05,0
70.667,-6.244e-05,0
70.668,-0.00010491,0
70.668,-6.949e-05,0
70.669,1.0071e-06,0
70.669,3.4241e-05,0
70.67,-1.796e-05,0
70.67,-0.00010658,0
70.671,-0.00015325,0
70.671,-0.00014217,0
70.672,-0.00011296,0
70.672,-0.00010272,0
70.673,-0.00011464,0
70.674,-0.00013713,0
70.674,-0.00013411,0
70.675,-9.2821e-05,0
70.675,-3.1052e-05,0
70.676,3.743e-05,0
70.676,7.8386e-05,0
70.677,6.3951e-05,0
70.677,2.7863e-05,0
70.678,1.8967e-05,0
70.678,3.508e-05,0
70.679,5.0187e-05,0
70.679,5.9922e-05,0
70.68,8.5435e-05,0
70.68,0.00012941,0
70.681,0.00017171,0
70.681,0.00020763,0
70.682,0.00023482,0
70.682,0.00024254,0
70.683,0.00022542,0
70.683,0.0001801,0
70.684,0.00012001,0
70.684,5.623e-05,0
70.685,-6.2104e-06,0
70.685,-6.5629e-05,0
70.686,-0.00010256,0
70.687,-9.8192e-05,0
70.687,-7.1e-05,0
70.688,-5.2705e-05,0
70.688,-4.5823e-05,0
70.689,-3.9445e-05,0
70.689,-3.2395e-05,0
70.69,-2.4002e-05,0
70.69,-1.0239e-05,0
70.691,9.2317e-06,0
70.691,3.5416e-05,0
70.692,7.7043e-05,0
70.692,0.00014922,0
70.693,0.00024388,0
70.693,0.0003315,0
70.694,0.00038051,0
70.694,0.00038354,0
70.695,0.00036474,0
70.695,0.00033503,0
70.696,0.00028031,0
70.696,0.00020713,0
70.697,0.00013881,0
70.697,6.5126e-05,0
70.698,-5.304e-05,0
70.698,-0.00023163,0
70.699,-0.00043624,0
70.7,-0.00057975,0
70.7,-0.00057874,0
70.701,-0.00044732,0
70.701,-0.00028719,0
70.702,-0.00016936,0
70.702,-0.00010155,0
70.703,-7.5029e-05,0
70.703,-8.51e-05,0
70.704,-0.00014116,0
70.704,-0.00023684,0
70.705,-0.00032277,0
70.705,-0.00033452,0
70.706,-0.00024154,0
70.706,-7.3014e-05,0
70.707,9.3828e-05,0
70.707,0.00019504,0
70.708,0.00021669,0
70.708,0.00019857,0
70.709,0.00019051,0
70.709,0.00020394,0
70.71,0.00023331,0
70.71,0.00026537,0
70.711,0.000284,0
70.711,0.00027779,0
70.712,0.00025396,0
70.712,0.00023062,0
70.713,0.000213,0
70.714,0.00020897,0
70.714,0.00021367,0
70.715,0.00019437,0
70.715,0.0001462,0
70.716,0.00010507,0
70.716,8.4428e-05,0
70.717,4.6662e-05,0
70.717,-1.9638e-05,0
70.718,-4.1123e-05,0
70.718,5.5222e-05,0
70.719,0.00015425,0
70.719,6.7475e-05,0
70.72,-0.00017826,0
70.72,-0.00035752,0
70.721,-0.00033352,0
70.721,-0.00019538,0
70.722,-7.7043e-05,0
70.722,-1.5106e-06,0
70.723,5.0187e-05,0
70.723,8.3757e-05,0
70.724,6.3447e-05,0
70.724,-2.4674e-05,0
70.725,-0.0001138,0
70.725,-0.00015862,0
70.726,-0.00017691,0
70.727,-0.00015023,0
70.727,-8.2078e-05,0
70.728,-2.9709e-05,0
70.728,8.2246e-06,0
70.729,6.009e-05,0
70.729,0.0001086,0
70.73,0.00013378,0
70.73,0.00014737,0
70.731,0.00017977,0
70.731,0.00018749,0
70.732,0.00011263,0
70.732,1.5106e-05,0
70.733,-2.5681e-05,0
70.733,-2.6688e-05,0
70.734,-4.0116e-05,0
70.734,-7.1336e-05,0
70.735,-8.9632e-05,0
70.735,-8.2078e-05,0
70.736,-5.0355e-05,0
70.736,2.0645e-05,0
70.737,9.8695e-05,0
70.737,0.00013613,0
70.738,0.00014318,0
70.738,0.00014284,0
70.739,0.00012421,0
70.739,8.1575e-05,0
70.74,2.8534e-05,0
70.741,-2.8031e-05,0
70.741,-8.0064e-05,0
70.742,-0.0001039,0
70.742,-7.3518e-05,0
70.743,-2.5681e-05,0
70.743,-4.2466e-05,0
70.744,-0.00010088,0
70.744,-0.00012505,0
70.745,-0.00010088,0
70.745,-4.5319e-05,0
70.746,-6.714e-07,0
70.746,-5.539e-06,0
70.747,-3.1052e-05,0
70.747,-3.7934e-05,0
70.748,-2.1149e-05,0
70.748,3.6927e-06,0
70.749,2.7192e-05,0
70.749,4.2298e-05,0
70.75,5.153e-05,0
70.75,6.3951e-05,0
70.751,8.0903e-05,0
70.751,9.836e-05,0
70.752,0.0001138,0
70.752,0.00011934,0
70.753,0.00011464,0
70.754,0.00010088,0
70.754,8.7785e-05,0
70.755,8.426e-05,0
70.755,8.6275e-05,0
70.756,8.8289e-05,0
70.756,8.6442e-05,0
70.757,8.1407e-05,0
70.757,7.3014e-05,0
70.758,6.1936e-05,0
70.758,4.9348e-05,0
70.759,4.5823e-05,0
70.759,5.9922e-05,0
70.76,8.0735e-05,0
70.76,8.7617e-05,0
70.761,7.5868e-05,0
70.761,6.6133e-05,0
70.762,7.4189e-05,0
70.762,8.5771e-05,0
70.763,9.3828e-05,0
70.763,0.00010054,0
70.764,0.00010188,0
70.764,8.426e-05,0
70.765,4.2802e-05,0
70.765,1.6785e-07,0
70.766,-2.1653e-05,0
70.766,-2.5681e-05,0
70.767,-1.6449e-05,0
70.768,3.0213e-06,0
70.768,1.6617e-05,0
70.769,1.1414e-05,0
70.769,-9.5674e-06,0
70.77,-3.5584e-05,0
70.77,-5.9251e-05,0
70.771,-8.6275e-05,0
70.771,-0.00011447,0
70.772,-0.0001237,0
70.772,-0.00010289,0
70.773,-6.1265e-05,0
70.773,-1.8631e-05,0
70.774,5.0355e-06,0
70.774,2.5177e-06,0
70.775,-2.3331e-05,0
70.775,-6.4622e-05,0
70.776,-8.3085e-05,0
70.776,-3.8941e-05,0
70.777,5.1362e-05,0
70.777,0.00014318,0
70.778,0.00021032,0
70.778,0.00024221,0
70.779,0.00022979,0
70.779,0.0001848,0
70.78,0.0001326,0
70.781,8.3925e-05,0
70.781,3.0716e-05,0
70.782,-3.5248e-05,0
70.782,-0.00010726,0
70.783,-0.00016332,0
70.783,-0.00018648,0
70.784,-0.0001608,0
70.784,-9.3156e-05,0
70.785,-1.1246e-05,0
70.785,9.4163e-05,0
70.786,0.00021636,0
70.786,0.0002976,0
70.787,0.00029525,0
70.787,0.00022274,0
70.788,0.00010591,0
70.788,-3.592e-05,0
70.789,-0.00017171,0
70.789,-0.00026671,0
70.79,-0.00027594,0
70.79,-0.00018682,0
70.791,-5.8579e-05,0
70.791,3.3234e-05,0
70.792,7.1336e-05,0
70.792,7.4189e-05,0
70.793,5.069e-05,0
70.793,1.326e-05,0
70.794,1.5946e-05,0
70.795,8.3085e-05,0
70.795,0.00014687,0
70.796,0.00015761,0
70.796,0.00014922,0
70.797,0.00014821,0
70.797,0.00014284,0
70.798,0.00013411,0
70.798,0.00012572,0
70.799,0.00011061,0
70.799,0.00011162,0
70.8,0.00015157,0
70.8,0.00017809,0
70.801,0.00010658,0
70.801,-5.1026e-05,0
70.802,-0.00021199,0
70.802,-0.00029558,0
70.803,-0.00026151,0
70.803,-0.00014888,0
70.804,-3.8605e-05,0
70.804,1.6617e-05,0
70.805,1.8967e-05,0
70.805,-4.8676e-06,0
70.806,-1.6281e-05,0
70.806,4.8173e-05,0
70.807,0.00011531,0
70.808,9.6178e-05,0
70.808,1.1582e-05,0
70.809,-0.00011162,0
70.809,-0.00023314,0
70.81,-0.0003211,0
70.81,-0.0003874,0
70.811,-0.00045269,0
70.811,-0.00049532,0
70.812,-0.00044044,0
70.812,-0.00025362,0
70.813,-2.8367e-05,0
70.813,0.00010289,0
70.814,0.00010809,0
70.814,6.8986e-05,0
70.815,5.0019e-05,0
70.815,4.1962e-05,0
70.816,1.9638e-05,0
70.816,-1.6449e-05,0
70.817,-3.978e-05,0
70.817,-3.7095e-05,0
70.818,-6.5461e-06,0
70.818,5.2537e-05,0
70.819,0.00011984,0
70.819,0.00016617,0
70.82,0.00018312,0
70.82,0.00018346,0
70.821,0.00018228,0
70.822,0.00018245,0
70.822,0.00018379,0
70.823,0.00017977,0
70.823,0.0001707,0
70.824,0.00016449,0
70.824,0.00016298,0
70.825,0.00016432,0
70.825,0.00016634,0
70.826,0.00016953,0
70.826,0.00017473,0
70.827,0.00017406,0
70.827,0.00015778,0
70.828,0.00013243,0
70.828,0.00011464,0
70.829,0.00010289,0
70.829,9.4499e-05,0
70.83,9.9702e-05,0
70.83,0.00011666,0
70.831,0.00013344,0
70.831,0.00014217,0
70.832,0.00014334,0
70.832,0.00013394,0
70.833,0.00012572,0
70.833,0.00012673,0
70.834,0.00012807,0
70.835,0.00010893,0
70.835,8.0232e-05,0
70.836,5.623e-05,0
70.836,2.9038e-05,0
70.837,-2.266e-05,0
70.837,-9.7017e-05,0
70.838,-0.00017305,0
70.838,-0.00022945,0
70.839,-0.00025664,0
70.839,-0.00025765,0
70.84,-0.0002501,0
70.84,-0.00024556,0
70.841,-0.00023062,0
70.841,-0.00018631,0
70.842,-0.0001237,0
70.842,-5.7237e-05,0
70.843,1.5778e-05,0
70.843,8.8121e-05,0
70.844,0.00013931,0
70.844,0.00016147,0
70.845,0.00016097,0
70.845,0.00014284,0
70.846,0.00010692,0
70.846,5.8915e-05,0
70.847,9.2317e-06,0
70.847,-2.6017e-05,0
70.848,-2.5345e-05,0
70.849,2.5849e-05,0
70.849,8.9799e-05,0
70.85,0.00012404,0
70.85,0.00011145,0
70.851,6.3279e-05,0
70.851,1.0071e-06,0
70.852,-5.6901e-05,0
70.852,-0.00011229,0
70.853,-0.00014653,0
70.853,-0.00011112,0
70.854,-1.7456e-05,0
70.854,5.623e-05,0
70.855,6.8315e-05,0
70.855,4.8173e-05,0
70.856,3.8605e-05,1
70.856,5.0858e-05,1
70.857,6.2608e-05,1
70.857,5.3376e-05,1
70.858,2.5177e-05,1
70.858,-2.0142e-06,1
70.859,-1.2421e-05,1
70.859,-1.7624e-05,1
70.86,-2.3163e-05,1
70.86,-1.9135e-05,1
70.861,-3.6927e-06,1
70.862,1.5946e-05,1
70.862,3.8773e-05,1
70.863,6.8315e-05,1
70.863,9.601e-05,1
70.864,0.00011196,1
70.864,0.00010893,1
70.865,8.7617e-05,1
70.865,7.1e-05,1
70.866,7.3854e-05,1
70.866,8.7785e-05,1
70.867,9.8695e-05,1
70.867,9.987e-05,1
70.868,8.6778e-05,1
70.868,5.8915e-05,1
70.869,2.9877e-05,1
70.869,9.9031e-06,1
70.87,-1.091e-05,1
70.87,-3.4577e-05,1
70.871,-3.7766e-05,1
70.871,-9.0639e-06,1
70.872,3.6088e-05,1
70.872,5.8579e-05,1
70.873,3.5416e-05,1
70.873,-5.539e-06,1
70.874,-3.9948e-05,1
70.874,-7.2343e-05,1
70.875,-0.00010977,1
70.876,-0.00016013,1
70.876,-0.00020377,1
70.877,-0.00019924,1
70.877,-0.00012673,1
70.878,-2.0645e-05,1
70.878,5.2201e-05,1
70.879,6.7811e-05,1
70.879,5.388e-05,1
70.88,4.7333e-05,1
70.88,5.6901e-05,1
70.881,7.335e-05,1
70.881,8.5771e-05,1
70.882,8.2414e-05,1
70.882,6.5126e-05,1
70.883,5.5894e-05,1
70.883,6.8147e-05,1
70.884,9.4163e-05,1
70.884,0.0001227,1
70.885,0.0001462,1
70.885,0.00016231,1
70.886,0.00016164,1
70.886,0.0001373,1
70.887,0.00010105,1
70.887,7.6707e-05,1
70.888,6.9657e-05,1
70.888,5.9419e-05,1
70.889,2.6688e-05,1
70.89,-2.1149e-05,1
70.89,-6.8986e-05,1
70.891,-0.00011162,1
70.891,-0.00014083,1
70.892,-0.00015341,1
70.892,-0.00015492,1
70.893,-0.00014418,1
70.893,-0.00012102,1
70.894,-7.9561e-05,1
70.894,-2.6856e-05,1
70.895,1.9135e-05,1
70.895,3.4577e-05,1
70.896,1.9806e-05,1
70.896,-1.5106e-06,1
70.897,-1.4771e-05,1
70.897,-2.4338e-05,1
70.898,-4.7837e-05,1
70.898,-9.0471e-05,1
70.899,-0.00012572,1
70.899,-0.0001237,1
70.9,-7.805e-05,1
70.9,5.2033e-06,1
70.901,0.00010726,1
70.901,0.00019571,1
70.902,0.00024221,1
70.903,0.00023281,1
70.903,0.00018296,1
70.904,0.00013143,1
70.904,0.00010927,1
70.905,0.0001091,1
70.905,0.00010558,1
70.906,8.661e-05,1
70.906,5.0858e-05,1
70.907,2.0142e-06,1
70.907,-2.5849e-05,1
70.908,-2.2324e-05,1
70.908,-1.6449e-05,1
70.909,-1.5274e-05,1
70.909,-8.5603e-06,1
70.91,0,1
70.91,-5.0355e-07,1
70.911,-5.539e-06,1
70.911,-9.3996e-06,1
70.912,-7.3854e-06,1
70.912,-1.6449e-05,1
70.913,-4.1459e-05,1
70.913,-5.7572e-05,1
70.914,-5.2705e-05,1
70.914,-3.6591e-05,1
70.915,-1.8967e-05,1
70.915,-1.0071e-05,1
70.916,-8.3925e-06,1
70.917,-7.3854e-06,1
70.917,-1.3092e-05,1
70.918,-1.9638e-05,1
70.918,-7.7211e-06,1
70.919,1.4939e-05,1
70.919,3.5416e-05,1
70.92,6.8818e-05,1
70.92,0.00012471,1
70.921,0.00018178,1
70.921,0.00022173,1
70.922,0.0002553,1
70.922,0.00027779,1
70.923,0.00025933,1
70.923,0.00019051,1
70.924,9.3828e-05,1
70.924,1.5778e-05,1
70.925,-2.4338e-05,1
70.925,-6.0929e-05,1
70.926,-0.00010541,1
70.926,-0.00012673,1
70.927,-0.0001284,1
70.927,-0.00010172,1
70.928,-3.1724e-05,1
70.928,3.7095e-05,1
70.929,5.4215e-05,1
70.93,1.561e-05,1
70.93,-5.1194e-05,1
70.931,-8.7114e-05,1
70.931,-6.1265e-05,1
70.932,-1.091e-05,1
70.932,1.2589e-05,1
70.933,1.091e-05,1
70.933,2.3499e-06,1
70.934,-1.1917e-05,1
70.934,-3.4409e-05,1
70.935,-4.683e-05,1
70.935,-3.0381e-05,1
70.936,4.5319e-06,1
70.936,3.0381e-05,1
70.937,4.1459e-05,1
70.937,4.3809e-05,1
70.938,4.4144e-05,1
70.938,4.7501e-05,1
70.939,5.1194e-05,1
70.939,3.9445e-05,1
70.94,1.2757e-05,1
70.94,-1.9303e-05,1
70.941,-5.8412e-05,1
70.941,-9.0639e-05,1
70.942,-8.426e-05,1
70.942,-3.5416e-05,1
70.943,2.1988e-05,1
70.944,5.3208e-05,1
70.944,5.8915e-05,1
70.945,6.1601e-05,1
70.945,7.1672e-05,1
70.946,7.9057e-05,1
70.946,8.5771e-05,1
70.947,9.987e-05,1
70.947,0.00011397,1
70.948,0.00012303,1
70.948,0.00012454,1
70.949,0.00011699,1
70.949,9.987e-05,1
70.95,7.2847e-05,1
70.95,3.9445e-05,1
70.951,3.0716e-05,1
70.951,7.5029e-05,1
70.952,0.00012538,1
70.952,0.00013579,1
70.953,0.00011363,1
70.953,8.5771e-05,1
70.954,5.623e-05,1
70.954,1.2589e-05,1
70.955,-2.6688e-05,1
70.955,-3.3066e-05,1
70.956,-1.8463e-05,1
70.957,-3.357e-06,1
70.957,3.8605e-06,1
70.958,-9.5674e-06,1
70.958,-3.9445e-05,1
70.959,-7.3518e-05,1
70.959,-9.3156e-05,1
70.96,-7.7714e-05,1
70.96,-3.1891e-05,1
70.961,1.3596e-05,1
70.961,3.5416e-05,1
70.962,3.7095e-05,1
70.962,4.6159e-05,1
70.963,6.7475e-05,1
70.963,7.335e-05,1
70.964,4.3809e-05,1
70.964,-1.1078e-05,1
70.965,-7.2007e-05,1
70.965,-0.00011733,1
70.966,-0.00013008,1
70.966,-0.00011431,1
70.967,-8.8289e-05,1
70.967,-7.2343e-05,1
70.968,-7.3686e-05,1
70.968,-8.1575e-05,1
70.969,-7.6371e-05,1
70.969,-5.6565e-05,1
70.97,-3.5416e-05,1
70.971,-1.9806e-05,1
70.971,-4.3641e-06,1
70.972,1.0071e-05,1
70.972,2.4002e-05,1
70.973,3.4409e-05,1
70.973,4.2802e-05,1
70.974,5.153e-05,1
70.974,6.0929e-05,1
70.975,7.3518e-05,1
70.975,8.4764e-05,1
70.976,9.0639e-05,1
70.976,9.752e-05,1
70.977,0.00010625,1
70.977,0.00010826,1
70.978,0.00010507,1
70.978,0.00010457,1
70.979,0.00010994,1
70.979,0.00011867,1
70.98,0.00013042,1
70.98,0.00015425,1
70.981,0.00018749,1
70.981,0.00019789,1
70.982,0.00017624,1
70.982,0.00014116,1
70.983,0.00010188,1
70.984,5.623e-05,1
70.984,-6.714e-07,1
70.985,-7.1e-05,1
70.985,-0.00013327,1
70.986,-0.00018631,1
70.986,-0.00023549,1
70.987,-0.00024657,1
70.987,-0.00020427,1
70.988,-0.00014301,1
70.988,-9.0806e-05,1
70.989,-3.7598e-05,1
70.989,1.6281e-05,1
70.99,5.4551e-05,1
70.99,6.7475e-05,1
70.991,5.6901e-05,1
70.991,3.2731e-05,1
70.992,6.8818e-06,1
70.992,-1.1749e-05,1
70.993,-1.6953e-05,1
70.993,-6.8818e-06,1
70.994,1.0239e-05,1
70.994,2.7359e-05,1
70.995,4.3473e-05,1
70.995,5.4215e-05,1
70.996,6.7643e-05,1
70.996,9.5842e-05,1
70.997,0.00014066,1
70.998,0.0001754,1
70.998,0.00017171,1
70.999,0.00013948,1
70.999,0.0001044,1
71,6.6972e-05,1
71,2.2995e-05,1
71.001,-2.0981e-05,1
71.001,-6.1936e-05,1
71.002,-0.00011078,1
71.002,-0.00015929,1
71.003,-0.00016432,1
71.003,-0.00010793,1
71.004,-2.4506e-05,1
71.004,5.9586e-05,1
71.005,0.00012908,1
71.005,0.0001613,1
71.006,0.00016332,1
71.006,0.00015023,1
71.007,0.00012689,1
71.007,0.0001044,1
71.008,8.8121e-05,1
71.008,7.5364e-05,1
71.009,7.2007e-05,1
71.009,7.0665e-05,1
71.01,5.9251e-05,1
71.011,5.0858e-05,1
71.011,5.1194e-05,1
71.012,3.1891e-05,1
71.012,-2.9038e-05,1
71.013,-9.7185e-05,1
71.013,-0.00012203,1
71.014,-0.00010675,1
71.014,-8.7449e-05,1
71.015,-8.1407e-05,1
71.015,-7.7882e-05,1
71.016,-5.9754e-05,1
71.016,-4.2802e-05,1
71.017,-3.4745e-05,1
71.017,-2.3163e-05,1
71.018,-5.2033e-06,1
71.018,8.2246e-06,1
71.019,2.2324e-05,1
71.019,3.2395e-05,1
71.02,3.4745e-05,1
71.02,4.5487e-05,1
71.021,6.4118e-05,1
71.021,7.0832e-05,1
71.022,4.7166e-05,1
71.022,1.6281e-05,1
71.023,1.4603e-05,1
71.023,3.1388e-05,1
71.024,4.1459e-05,1
71.025,4.8173e-05,1
71.025,5.7404e-05,1
71.026,6.0594e-05,1
71.026,4.4816e-05,1
71.027,1.796e-05,1
71.027,2.3499e-06,1
71.028,6.8818e-06,1
71.028,1.4435e-05,1
71.029,6.3783e-06,1
71.029,-1.6617e-05,1
71.03,-2.3835e-05,1
71.03,1.2253e-05,1
71.031,8.1239e-05,1
71.031,0.00014804,1
71.032,0.00017641,1
71.032,0.00017171,1
71.033,0.00016265,1
71.033,0.00015023,1
71.034,0.00012236,1
71.034,7.4693e-05,1
71.035,1.2924e-05,1
71.035,-5.6733e-05,1
71.036,-0.00013243,1
71.036,-0.00018883,1
71.037,-0.00020377,1
71.038,-0.0001942,1
71.038,-0.00017641,1
71.039,-0.00015241,1
71.039,-0.00012387,1
71.04,-9.3996e-05,1
71.04,-6.0258e-05,1
71.041,-1.5274e-05,1
71.041,2.9709e-05,1
71.042,5.5222e-05,1
71.042,6.0258e-05,1
71.043,5.0187e-05,1
71.043,3.2059e-05,1
71.044,1.9303e-05,1
71.044,1.4603e-05,1
71.045,6.3783e-06,1
71.045,-2.8534e-06,1
71.046,1.1246e-05,1
71.046,5.2201e-05,1
71.047,7.8553e-05,1
71.047,6.2608e-05,1
71.048,2.8367e-05,1
71.048,1.5946e-05,1
71.049,4.0116e-05,1
71.049,7.6707e-05,1
71.05,9.8863e-05,1
71.05,0.00010239,1
71.051,9.5171e-05,1
71.052,8.5771e-05,1
71.052,7.7379e-05,1
71.053,5.9922e-05,1
71.053,3.2898e-05,1
71.054,1.5442e-05,1
71.054,1.9974e-05,1
71.055,4.2802e-05,1
71.055,8.7449e-05,1
71.056,0.00013948,1
71.056,0.00017037,1
71.057,0.00016768,1
71.057,0.00015694,1
71.058,0.00015694,1
71.058,0.00015157,1
71.059,0.00012924,1
71.059,9.4331e-05,1
71.06,7.4022e-05,1
71.06,6.7811e-05,1
71.061,3.122e-05,1
71.061,-4.8005e-05,1
71.062,-0.00012639,1
71.062,-0.0001754,1
71.063,-0.00020746,1
71.063,-0.00022374,1
71.064,-0.00020696,1
71.065,-0.00014972,1
71.065,-6.4286e-05,1
71.066,1.0071e-05,1
71.066,4.0116e-05,1
71.067,3.0716e-05,1
71.067,9.9031e-06,1
71.068,6.8818e-06,1
71.068,1.9303e-05,1
71.069,3.1052e-05,1
71.069,3.3738e-05,1
71.07,2.2324e-05,1
71.07,-5.539e-06,1
71.071,-4.3137e-05,1
71.071,-6.479e-05,1
71.072,-4.7669e-05,1
71.072,-7.5532e-06,1
71.073,1.7288e-05,1
71.073,9.5674e-06,1
71.074,-7.5532e-06,1
71.074,3.357e-06,1
71.075,3.8102e-05,1
71.075,7.8218e-05,1
71.076,0.0001227,1
71.076,0.00014485,1
71.077,0.00012035,1
71.078,6.9993e-05,1
71.078,2.7359e-05,1
71.079,-4.3641e-06,1
71.079,-3.9445e-05,1
71.08,-7.9561e-05,1
71.08,-0.00011095,1
71.081,-0.00010927,1
71.081,-5.4887e-05,1
71.082,4.4648e-05,1
71.082,0.00014217,1
71.083,0.00019319,1
71.083,0.00019219,1
71.084,0.000165,1
71.084,0.0001321,1
71.085,0.00010457,1
71.085,9.8527e-05,1
71.086,0.00011666,1
71.086,0.00014083,1
71.087,0.00016197,1
71.087,0.00017205,1
71.088,0.00014553,1
71.088,7.4693e-05,1
71.089,-2.2995e-05,1
71.089,-0.00012807,1
71.09,-0.00022676,1
71.09,-0.00029239,1
71.091,-0.00029525,1
71.092,-0.0002276,1
71.092,-0.0001232,1
71.093,-3.1388e-05,1
71.093,4.2802e-05,1
71.094,0.00013092,1
71.094,0.00020259,1
71.095,0.000213,1
71.095,0.00016835,1
71.096,9.3492e-05,1
71.096,1.6617e-05,1
71.097,-2.9709e-05,1
71.097,-4.5487e-05,1
71.098,-3.1388e-05,1
71.098,1.1414e-05,1
71.099,4.4816e-05,1
71.099,5.6733e-05,1
71.1,5.8915e-05,1
71.1,4.6159e-05,1
71.101,3.5416e-05,1
71.101,5.623e-05,1
71.102,0.00010658,1
71.102,0.00015224,1
71.103,0.00015677,1
71.103,0.00010994,1
71.104,3.978e-05,1
71.105,-1.561e-05,1
71.105,-4.8844e-05,1
71.106,-6.865e-05,1
71.106,-6.9993e-05,1
71.107,-5.3712e-05,1
71.107,-2.8534e-05,1
71.108,-2.8534e-06,1
71.108,1.7288e-05,1
71.109,2.501e-05,1
71.109,1.8631e-05,1
71.11,1.0239e-05,1
71.11,5.2033e-06,1
71.111,-5.2033e-06,1
71.111,-1.8463e-05,1
71.112,-2.5849e-05,1
71.112,-2.6017e-05,1
71.113,-2.0478e-05,1
71.113,-1.1582e-05,1
71.114,-8.3925e-07,1
71.114,1.2085e-05,1
71.115,2.6017e-05,1
71.115,4.0787e-05,1
71.116,5.2873e-05,1
71.116,5.9419e-05,1
71.117,5.9586e-05,1
71.117,5.6062e-05,1
71.118,5.6901e-05,1
71.119,5.9754e-05,1
71.119,5.623e-05,1
71.12,4.1123e-05,1
71.12,1.7792e-05,1
71.121,-2.8534e-06,1
71.121,-1.6953e-05,1
71.122,-2.3331e-05,1
71.122,-2.8367e-05,1
71.123,-3.1052e-05,1
71.123,-1.5946e-05,1
71.124,1.7288e-05,1
71.124,3.8102e-05,1
71.125,2.9038e-05,1
71.125,9.9031e-06,1
71.126,3.6927e-06,1
71.126,1.4435e-05,1
71.127,3.8437e-05,1
71.127,6.1433e-05,1
71.128,7.5029e-05,1
71.128,7.4693e-05,1
71.129,6.2776e-05,1
71.129,4.8005e-05,1
71.13,3.1388e-05,1
71.13,1.5946e-05,1
71.131,7.5532e-06,1
71.132,-2.8534e-06,1
71.132,-2.9038e-05,1
71.133,-7.335e-05,1
71.133,-0.00010625,1
71.134,-0.00010105,1
71.134,-6.5629e-05,1
71.135,-3.0045e-05,1
71.135,-9.2317e-06,1
71.136,-2.8534e-06,1
71.136,-5.0355e-06,1
71.137,3.357e-06,1
71.137,2.6352e-05,1
71.138,4.8173e-05,1
71.138,6.1433e-05,1
71.139,7.3518e-05,1
71.139,7.6371e-05,1
71.14,6.63e-05,1
71.14,4.7166e-05,1
71.141,2.5345e-05,1
71.141,7.8889e-06,1
71.142,3.1891e-06,1
71.142,1.8631e-05,1
71.143,5.2537e-05,1
71.143,8.0735e-05,1
71.144,8.51e-05,1
71.144,7.0329e-05,1
71.145,7.57e-05,1
71.146,0.00011733,1
71.146,0.0001556,1
71.147,0.00015492,1
71.147,0.00011397,1
71.148,4.8173e-05,1
71.148,-2.031e-05,1
71.149,-6.4622e-05,1
71.149,-7.6875e-05,1
71.15,-6.714e-05,1
71.15,-6.0594e-05,1
71.151,-7.4357e-05,1
71.151,-7.2847e-05,1
71.152,-2.1988e-05,1
71.152,5.6565e-05,1
71.153,0.00011682,1
71.153,0.00014083,1
71.154,0.00012824,1
71.154,8.3757e-05,1
71.155,2.3499e-05,1
71.155,-3.4745e-05,1
71.156,-8.191e-05,1
71.156,-0.00010155,1
71.157,-9.7017e-05,1
71.157,-8.3253e-05,1
71.158,-6.5797e-05,1
71.159,-7.3014e-05,1
71.159,-0.00012001,1
71.16,-0.00014855,1
71.16,-0.00011028,1
71.161,-4.4648e-05,1
71.161,-3.8605e-06,1
71.162,6.714e-07,1
71.162,-8.2246e-06,1
71.163,-8.896e-06,1
71.163,5.2033e-06,1
71.164,2.9877e-05,1
71.164,5.2201e-05,1
71.165,6.9657e-05,1
71.165,9.1814e-05,1
71.166,0.00012203,1
71.166,0.00014754,1
71.167,0.00015744,1
71.167,0.00015761,1
71.168,0.00015895,1
71.168,0.00016097,1
71.169,0.00016835,1
71.169,0.00018312,1
71.17,0.00017574,1
71.17,0.00012874,1
71.171,5.8412e-05,1
71.171,-2.2995e-05,1
71.172,-0.00011229,1
71.173,-0.00017977,1
71.173,-0.00018967,1
71.174,-0.00013931,1
71.174,-6.3447e-05,1
71.175,1.5106e-06,1
71.175,3.0213e-05,1
71.176,1.7624e-05,1
71.176,-1.0575e-05,1
71.177,-2.7695e-05,1
71.177,-1.4435e-05,1
71.178,1.4099e-05,1
71.178,3.2059e-05,1
71.179,3.3066e-05,1
71.179,2.5177e-05,1
71.18,1.4939e-05,1
71.18,1.8128e-05,1
71.181,5.1362e-05,1
71.181,0.00010054,1
71.182,0.00014217,1
71.182,0.00016533,1
71.183,0.00017221,1
71.183,0.000165,1
71.184,0.00014318,1
71.184,0.00011464,1
71.185,8.8289e-05,1
71.186,6.4286e-05,1
71.186,4.1459e-05,1
71.187,1.0407e-05,1
71.187,-3.508e-05,1
71.188,-7.9561e-05,1
71.188,-9.0135e-05,1
71.189,-6.3951e-05,1
71.189,-2.7863e-05,1
71.19,-9.0639e-06,1
71.19,-5.539e-06,1
71.191,-4.1962e-06,1
71.191,-1.5106e-05,1
71.192,-3.7766e-05,1
71.192,-4.8173e-05,1
71.193,-3.357e-05,1
71.193,-1.2924e-05,1
71.194,5.0355e-07,1
71.194,6.5461e-06,1
71.195,7.5532e-06,1
71.195,1.2757e-05,1
71.196,1.9974e-05,1
71.196,2.2492e-05,1
71.197,3.8102e-05,1
71.197,7.5029e-05,1
71.198,0.00010407,1
71.198,8.9128e-05,1
71.199,3.5248e-05,1
71.2,-2.1988e-05,1
71.2,-5.3208e-05,1
71.201,-6.8147e-05,1
71.201,-8.5267e-05,1
71.202,-0.00010088,1
71.202,-9.752e-05,1
71.203,-6.865e-05,1
71.203,-3.2395e-05,1
71.204,-1.4771e-05,1
71.204,-2.9709e-05,1
71.205,-6.4622e-05,1
71.205,-7.6036e-05,1
71.206,-3.5752e-05,1
71.206,3.0381e-05,1
71.207,8.6275e-05,1
71.207,0.00011363,1
71.208,0.00011531,1
71.208,0.00010726,1
71.209,0.00010373,1
71.209,0.00010121,1
71.21,8.9128e-05,1
71.21,6.9993e-05,1
71.211,5.539e-05,1
71.211,5.5558e-05,1
71.212,5.9419e-05,1
71.213,5.8747e-05,1
71.213,5.623e-05,1
71.214,5.153e-05,1
71.214,5.0187e-05,1
71.215,5.539e-05,1
71.215,4.4144e-05,1
71.216,1.561e-05,1
71.216,1.4603e-05,1
71.217,5.3208e-05,1
71.217,0.00011363,1
71.218,0.00017557,1
71.218,0.00021132,1
71.219,0.00021971,1
71.219,0.00020763,1
71.22,0.00015123,1
71.22,4.5823e-05,1
71.221,-8.3421e-05,1
71.221,-0.00020981,1
71.222,-0.00029642,1
71.222,-0.00031757,1
71.223,-0.00027611,1
71.223,-0.00019588,1
71.224,-0.00010776,1
71.224,-3.8437e-05,1
71.225,3.8605e-06,1
71.225,2.0478e-05,1
71.226,2.7024e-05,1
71.227,4.1123e-05,1
71.227,6.5461e-05,1
71.228,8.8121e-05,1
71.228,9.9199e-05,1
71.229,0.00010004,1
71.229,9.4163e-05,1
71.23,8.8792e-05,1
71.23,9.601e-05,1
71.231,0.00011699,1
71.231,0.00014485,1
71.232,0.0001754,1
71.232,0.00018732,1
71.233,0.00016735,1
71.233,0.00012001,1
71.234,4.3473e-05,1
71.234,-5.8747e-05,1
71.235,-0.00014485,1
71.235,-0.00018631,1
71.236,-0.00020259,1
71.236,-0.00021032,1
71.237,-0.00019286,1
71.237,-0.00014066,1
71.238,-7.9561e-05,1
71.238,-3.357e-05,1
71.239,-4.1962e-06,1
71.24,2.1317e-05,1
71.24,5.3376e-05,1
71.241,8.1575e-05,1
71.241,0.00010323,1
71.242,0.00011783,1
71.242,0.00013126,1
71.243,0.00015123,1
71.243,0.00018111,1
71.244,0.00021602,1
71.244,0.00023684,1
71.245,0.00024556,1
71.245,0.00025127,1
71.246,0.0002464,1
71.246,0.00022106,1
71.247,0.00018061,1
71.247,0.00012253,1
71.248,4.0116e-05,1
71.248,-7.8218e-05,1
71.249,-0.0002276,1
71.249,-0.00035769,1
71.25,-0.00040569,1
71.25,-0.0003644,1
71.251,-0.00028887,1
71.251,-0.000236,1
71.252,-0.00020914,1
71.252,-0.000189,1
71.253,-0.00014754,1
71.254,-6.9322e-05,1
71.254,3.3066e-05,1
71.255,0.00013881,1
71.255,0.00020528,1
71.256,0.00021703,1
71.256,0.00018547,1
71.257,0.00012874,1
71.257,6.5629e-05,1
71.258,1.1749e-06,1
71.258,-5.7908e-05,1
71.259,-8.4428e-05,1
71.259,-5.388e-05,1
71.26,1.4771e-05,1
71.26,7.1672e-05,1
71.261,8.1407e-05,1
71.261,5.0523e-05,1
71.262,5.539e-06,1
71.262,-3.9277e-05,1
71.263,-7.1839e-05,1
71.263,-7.7043e-05,1
71.264,-4.7837e-05,1
71.264,-1.5106e-06,1
71.265,3.1891e-05,1
71.265,4.2802e-05,1
71.266,5.5558e-05,1
71.266,9.9031e-05,1
71.267,0.00015929,1
71.268,0.00019084,1
71.268,0.00017574,1
71.269,0.00013545,1
71.269,8.9799e-05,1
71.27,4.7669e-05,1
71.27,1.5946e-05,1
71.271,1.0071e-06,1
71.271,9.2317e-06,1
71.272,3.2563e-05,1
71.272,5.1865e-05,1
71.273,7.805e-05,1
71.273,0.0001133,1
71.274,0.0001326,1
71.274,0.00014754,1
71.275,0.00018363,1
71.275,0.00020377,1
71.276,0.00017641,1
71.276,0.00012001,1
71.277,6.0929e-05,1
71.277,1.1917e-05,1
71.278,-2.1653e-05,1
71.278,-3.0381e-05,1
71.279,-2.1653e-05,1
71.279,-6.2104e-06,1
71.28,2.0645e-05,1
71.281,3.7095e-05,1
71.281,2.6688e-05,1
71.282,1.4435e-05,1
71.282,-1.3428e-06,1
71.283,-5.2201e-05,1
71.283,-0.0001509,1
71.284,-0.00024036,1
71.284,-0.00025916,1
71.285,-0.0002083,1
71.285,-0.00012958,1
71.286,-5.3208e-05,1
71.286,5.153e-05,1
71.287,0.00017372,1
71.287,0.00024892,1
71.288,0.00026285,1
71.288,0.00022676,1
71.289,0.00016097,1
71.289,0.00010188,1
71.29,4.5487e-05,1
71.29,-3.7263e-05,1
71.291,-0.00013445,1
71.291,-0.00021871,1
71.292,-0.00027292,1
71.292,-0.00024892,1
71.293,-0.00013109,1
71.293,1.7121e-05,1
71.294,0.00012035,1
71.295,0.00015727,1
71.295,0.00014553,1
71.296,0.00010994,1
71.296,6.0258e-05,1
71.297,-5.2033e-06,1
71.297,-6.7979e-05,1
71.298,-0.00010272,1
71.298,-9.0135e-05,1
71.299,-5.2369e-05,1
71.299,-1.2589e-05,1
71.3,1.6953e-05,1
71.3,7.5532e-06,1
71.301,-4.1459e-05,1
71.301,-8.6778e-05,1
71.302,-9.2988e-05,1
71.302,-6.63e-05,1
71.303,-2.9709e-05,1
71.303,1.3092e-05,1
71.304,5.6733e-05,1
71.304,9.5842e-05,1
71.305,0.00012555,1
71.305,0.00013075,1
71.306,0.00011061,1
71.306,9.1142e-05,1
71.307,0.00010037,1
71.308,0.00013562,1
71.308,0.00017641,1
71.309,0.00021099,1
71.309,0.00020528,1
71.31,0.00015425,1
71.31,8.4764e-05,1
71.311,8.3925e-06,1
71.311,-6.2776e-05,1
71.312,-0.00011984,1
71.312,-0.00015543,1
71.313,-0.00015039,1
71.313,-0.00012152,1
71.314,-0.00011229,1
71.314,-0.00010491,1
71.315,-6.1265e-05,1
71.315,-6.5461e-06,1
71.316,2.9877e-05,1
71.316,4.8005e-05,1
71.317,5.6901e-05,1
71.317,6.4286e-05,1
71.318,7.3686e-05,1
71.318,7.805e-05,1
71.319,5.8412e-05,1
71.319,1.3931e-05,1
71.32,-2.7024e-05,1
71.32,-3.6088e-05,1
71.321,-2.9709e-05,1
71.322,-3.6088e-05,1
71.322,-4.8508e-05,1
71.323,-5.2033e-05,1
71.323,-4.4816e-05,1
71.324,-3.2395e-05,1
71.324,-1.4939e-05,1
71.325,5.2033e-06,1
71.325,2.652e-05,1
71.326,4.918e-05,1
71.326,7.9057e-05,1
71.327,0.00010977,1
71.327,0.00012203,1
71.328,0.00010306,1
71.328,6.479e-05,1
71.329,3.3402e-05,1
71.329,2.2492e-05,1
71.33,2.1149e-05,1
71.33,1.9806e-05,1
71.331,1.4603e-05,1
71.331,6.0426e-06,1
71.332,1.6785e-07,1
71.332,-5.0355e-07,1
71.333,1.326e-05,1
71.333,4.4816e-05,1
71.334,9.2485e-05,1
71.335,0.00014066,1
71.335,0.00016768,1
71.336,0.00016466,1
71.336,0.00013327,1
71.337,8.2582e-05,1
71.337,3.8773e-05,1
71.338,2.1988e-05,1
71.338,1.6617e-05,1
71.339,1.9303e-05,1
71.339,6.2272e-05,1
71.34,0.0001331,1
71.34,0.00016298,1
71.341,0.00012538,1
71.341,5.9251e-05,1
71.342,1.0575e-05,1
71.342,-1.4939e-05,1
71.343,-3.8605e-05,1
71.343,-6.865e-05,1
71.344,-9.4163e-05,1
71.344,-7.3014e-05,1
71.345,1.8967e-05,1
71.345,0.00012203,1
71.346,0.00016231,1
71.346,0.00014452,1
71.347,0.00012639,1
71.347,0.00011565,1
71.348,8.4428e-05,1
71.349,1.5106e-05,1
71.349,-9.4835e-05,1
71.35,-0.00022307,1
71.35,-0.00028837,1
71.351,-0.00023868,1
71.351,-0.00013814,1
71.352,-6.9322e-05,1
71.352,-5.304e-05,1
71.353,-5.6565e-05,1
71.353,-5.0187e-05,1
71.354,-4.062e-05,1
71.354,-2.9709e-05,1
71.355,-1.3764e-05,1
71.355,4.1962e-06,1
71.356,1.5106e-05,1
71.356,1.2421e-05,1
71.357,2.5177e-06,1
71.357,-3.8605e-06,1
71.358,0,1
71.358,2.2324e-05,1
71.359,5.4383e-05,1
71.359,7.6875e-05,1
71.36,8.5603e-05,1
71.36,9.0471e-05,1
71.361,9.9199e-05,1
71.362,0.00012169,1
71.362,0.00017607,1
71.363,0.00022509,1
71.363,0.00021938,1
71.364,0.00016298,1
71.364,9.7017e-05,1
71.365,6.6133e-05,1
71.365,5.0858e-05,1
71.366,1.2924e-05,1
71.366,-3.2227e-05,1
71.367,-4.3137e-05,1
71.367,-2.0813e-05,1
71.368,-1.2924e-05,1
71.368,-5.3544e-05,1
71.369,-9.366e-05,1
71.369,-5.6397e-05,1
71.37,3.9109e-05,1
71.37,0.00010507,1
71.371,0.00010172,1
71.371,5.7572e-05,1
71.372,1.9303e-05,1
71.372,2.182e-06,1
71.373,-5.539e-06,1
71.373,-1.6114e-05,1
71.374,-3.6591e-05,1
71.374,-6.5965e-05,1
71.375,-9.3492e-05,1
71.376,-8.9967e-05,1
71.376,-3.3234e-05,1
71.377,4.5823e-05,1
71.377,9.987e-05,1
71.378,0.0001185,1
71.378,0.00011615,1
71.379,0.00010826,1
71.379,0.00010155,1
71.38,0.00010088,1
71.38,9.6849e-05,1
71.381,7.2007e-05,1
71.381,2.8702e-05,1
71.382,-2.7024e-05,1
71.382,-7.4357e-05,1
71.383,-6.2943e-05,1
71.383,-1.3596e-05,1
71.384,1.5106e-06,1
71.384,-4.1123e-05,1
71.385,-0.00010961,1
71.385,-0.00016886,1
71.386,-0.00020192,1
71.386,-0.00020108,1
71.387,-0.00016567,1
71.387,-9.5338e-05,1
71.388,-1.0742e-05,1
71.389,5.5558e-05,1
71.389,8.5771e-05,1
71.39,9.5674e-05,1
71.39,0.00010726,1
71.391,0.00012136,1
71.391,0.00012757,1
71.392,0.0001232,1
71.392,0.00010423,1
71.393,7.4861e-05,1
71.393,5.6901e-05,1
71.394,6.0929e-05,1
71.394,7.6875e-05,1
71.395,8.9128e-05,1
71.395,8.5603e-05,1
71.396,6.7475e-05,1
71.396,3.8437e-05,1
71.397,7.8889e-06,1
71.397,-1.6785e-05,1
71.398,-3.4241e-05,1
71.398,-4.062e-05,1
71.399,-3.2395e-05,1
71.399,-1.6785e-05,1
71.4,1.6785e-07,1
71.4,1.5946e-05,1
71.401,3.2731e-05,1
71.401,5.3208e-05,1
71.402,7.5364e-05,1
71.403,9.0974e-05,1
71.403,8.2414e-05,1
71.404,5.0187e-05,1
71.404,6.5461e-06,1
71.405,-3.8437e-05,1
71.405,-6.2272e-05,1
71.406,-5.0858e-05,1
71.406,-2.1988e-05,1
71.407,4.5319e-06,1
71.407,1.5778e-05,1
71.408,9.5674e-06,1
71.408,-8.3925e-07,1
71.409,-1.1078e-05,1
71.409,-2.9038e-05,1
71.41,-4.2802e-05,1
71.41,-4.0452e-05,1
71.411,-2.9877e-05,1
71.411,-2.7024e-05,1
71.412,-3.0045e-05,1
71.412,-3.0716e-05,1
71.413,-3.0716e-05,1
71.413,-3.508e-05,1
71.414,-4.0787e-05,1
71.414,-3.4073e-05,1
71.415,-1.2253e-05,1
71.416,1.561e-05,1
71.416,3.6759e-05,1
71.417,4.4816e-05,1
71.417,4.4144e-05,1
71.418,4.4144e-05,1
71.418,4.8676e-05,1
71.419,5.6901e-05,1
71.419,6.9657e-05,1
71.42,8.6442e-05,1
71.42,9.8863e-05,1
71.421,9.5506e-05,1
71.421,7.57e-05,1
71.422,5.6901e-05,1
71.422,5.8747e-05,1
71.423,8.1071e-05,1
71.423,0.00010793,1
71.424,0.0001237,1
71.424,0.00012068,1
71.425,9.5842e-05,1
71.425,4.8173e-05,1
71.426,5.539e-06,1
71.426,-9.5674e-06,1
71.427,-5.539e-06,1
71.427,0,1
71.428,6.3783e-06,1
71.428,1.5442e-05,1
71.429,2.7192e-05,1
71.43,4.1794e-05,1
71.43,5.2705e-05,1
71.431,5.3376e-05,1
71.431,4.7166e-05,1
71.432,3.8773e-05,1
71.432,2.4002e-05,1
71.433,1.326e-05,1
71.433,1.561e-05,1
71.434,2.2324e-05,1
71.434,1.8967e-05,1
71.435,6.714e-07,1
71.435,-9.3996e-06,1
71.436,2.3331e-05,1
71.436,8.1743e-05,1
71.437,0.00011196,1
71.437,8.6778e-05,1
71.438,2.8031e-05,1
71.438,-3.2059e-05,1
71.439,-8.6107e-05,1
71.439,-0.00013327,1
71.44,-0.00016399,1
71.44,-0.00016768,1
71.441,-0.00016399,1
71.441,-0.00015862,1
71.442,-0.00012152,1
71.443,-5.1026e-05,1
71.443,1.1917e-05,1
71.444,4.7501e-05,1
71.444,6.1433e-05,1
71.445,6.5293e-05,1
71.445,7.9057e-05,1
71.446,9.8863e-05,1
71.446,9.9031e-05,1
71.447,7.7379e-05,1
71.447,6.3279e-05,1
71.448,0.00011246,1
71.448,0.00021401,1
71.449,0.00027544,1
71.449,0.00024204,1
71.45,0.00013394,1
71.45,1.8463e-06,1
71.451,-0.00010877,1
71.451,-0.00018614,1
71.452,-0.00023784,1
71.452,-0.00024775,1
71.453,-0.00017037,1
71.453,-1.1917e-05,1
71.454,0.00012924,1
71.454,0.00017658,1
71.455,0.00014788,1
71.456,0.00010491,1
71.456,8.9128e-05,1
71.457,0.00010121,1
71.457,0.0001237,1
71.458,0.00014083,1
71.458,0.00015258,1
71.459,0.00015492,1
71.459,0.00014015,1
71.46,0.00011263,1
71.46,8.7449e-05,1
71.461,7.1e-05,1
71.461,6.009e-05,1
71.462,4.3809e-05,1
71.462,1.4771e-05,1
71.463,-2.9877e-05,1
71.463,-8.5771e-05,1
71.464,-0.00013478,1
71.464,-0.00015979,1
71.465,-0.0001603,1
71.465,-0.00014536,1
71.466,-0.00012354,1
71.466,-9.7856e-05,1
71.467,-7.4525e-05,1
71.467,-5.6565e-05,1
71.468,-4.0116e-05,1
71.468,-2.2324e-05,1
71.469,-6.2104e-06,1
71.47,1.1078e-05,1
71.47,3.508e-05,1
71.471,6.1097e-05,1
71.471,8.04e-05,1
71.472,9.1142e-05,1
71.472,9.6178e-05,1
71.473,0.00010491,1
71.473,0.00012052,1
71.474,0.00013277,1
71.474,0.00013075,1
71.475,0.00011044,1
71.475,8.5435e-05,1
71.476,7.2175e-05,1
71.476,6.4286e-05,1
71.477,4.5823e-05,1
71.477,1.7624e-05,1
71.478,-9.0639e-06,1
71.478,-3.2731e-05,1
71.479,-5.5558e-05,1
71.479,-6.63e-05,1
71.48,-5.4215e-05,1
71.48,-3.0045e-05,1
71.481,-8.2246e-06,1
71.481,5.2033e-06,1
71.482,1.4603e-05,1
71.483,2.501e-05,1
71.483,3.3738e-05,1
71.484,4.0955e-05,1
71.484,4.4816e-05,1
71.485,5.7572e-05,1
71.485,0.00010105,1
71.486,0.00016349,1
71.486,0.00021267,1
71.487,0.00021921,1
71.487,0.00017977,1
71.488,0.00010726,1
71.488,1.5106e-05,1
71.489,-8.2414e-05,1
71.489,-0.00016886,1
71.49,-0.0002365,1
71.49,-0.00027108,1
71.491,-0.00026755,1
71.491,-0.00021686,1
71.492,-0.0001279,1
71.492,-3.4073e-05,1
71.493,3.2059e-05,1
71.493,7.2343e-05,1
71.494,9.9199e-05,1
71.494,0.00011078,1
71.495,9.8527e-05,1
71.495,7.2343e-05,1
71.496,4.8341e-05,1
71.497,3.2059e-05,1
71.497,2.5345e-05,1
71.498,2.1317e-05,1
71.498,1.4939e-05,1
71.499,-5.0355e-07,1
71.499,-2.887e-05,1
71.5,-5.8747e-05,1
71.5,-7.1336e-05,1
71.501,-5.5894e-05,1
71.501,-2.3331e-05,1
71.502,1.0575e-05,1
71.502,3.6423e-05,1
71.503,5.4887e-05,1
71.503,6.5965e-05,1
71.504,6.3783e-05,1
71.504,4.1459e-05,1
71.505,8.3925e-06,1
71.505,-1.5106e-05,1
71.506,-1.3596e-05,1
71.506,1.5274e-05,1
71.507,5.7404e-05,1
71.507,9.4331e-05,1
71.508,0.00011464,1
71.508,0.00012337,1
71.509,0.00012673,1
71.51,0.00011531,1
71.51,8.4092e-05,1
71.511,4.4816e-05,1
71.511,1.326e-05,1
71.512,-1.4603e-05,1
71.512,-4.5487e-05,1
71.513,-7.4022e-05,1
71.513,-9.366e-05,1
71.514,-0.00010004,1
71.514,-8.1071e-05,1
71.515,-3.3066e-05,1
71.515,2.3499e-05,1
71.516,7.2679e-05,1
71.516,0.00010994,1
71.517,0.00012975,1
71.517,0.00012992,1
71.518,0.00012186,1
71.518,0.000118,1
71.519,0.00012438,1
71.519,0.00013243,1
71.52,0.00013075,1
71.52,0.00012001,1
71.521,0.00010088,1
71.521,7.2847e-05,1
71.522,3.8605e-05,1
71.522,-4.8676e-06,1
71.523,-4.683e-05,1
71.524,-6.1433e-05,1
71.524,-5.4719e-05,1
71.525,-3.508e-05,1
71.525,-3.1891e-06,1
71.526,1.8631e-05,1
71.526,1.4099e-05,1
71.527,-2.8534e-06,1
71.527,-1.6785e-05,1
71.528,-3.5416e-05,1
71.528,-7.1839e-05,1
71.529,-0.00011447,1
71.529,-0.00014217,1
71.53,-0.00014553,1
71.53,-0.00013545,1
71.531,-0.00011766,1
71.531,-7.6707e-05,1
71.532,-2.0645e-05,1
71.532,3.0381e-05,1
71.533,6.4958e-05,1
71.533,8.7785e-05,1
71.534,0.00012068,1
71.534,0.00016735,1
71.535,0.00019454,1
71.535,0.00019823,1
71.536,0.00020226,1
71.537,0.00020763,1
71.537,0.00020058,1
71.538,0.00017876,1
71.538,0.00016365,1
71.539,0.00015761,1
71.539,0.00012337,1
71.54,4.1291e-05,1
71.54,-5.5894e-05,1
71.541,-0.00012538,1
71.541,-0.00016315,1
71.542,-0.00018698,1
71.542,-0.00019454,1
71.543,-0.00017758,1
71.543,-0.00017137,1
71.544,-0.00020729,1
71.544,-0.00022223,1
71.545,-0.00016332,1
71.545,-6.9993e-05,1
71.546,1.5106e-06,1
71.546,4.8508e-05,1
71.547,7.8218e-05,1
71.547,9.1142e-05,1
71.548,9.1142e-05,1
71.548,8.4428e-05,1
71.549,8.0064e-05,1
71.549,8.0064e-05,1
71.55,8.0903e-05,1
71.551,8.3925e-05,1
71.551,8.7785e-05,1
71.552,8.6442e-05,1
71.552,7.5364e-05,1
71.553,5.8244e-05,1
71.553,3.978e-05,1
71.554,2.3835e-05,1
71.554,1.9303e-05,1
71.555,3.508e-05,1
71.555,6.6133e-05,1
71.556,9.7185e-05,1
71.556,0.00011733,1
71.557,0.00012589,1
71.557,0.00012287,1
71.558,0.00011044,1
71.558,9.5171e-05,1
71.559,7.805e-05,1
71.559,5.4215e-05,1
71.56,2.1317e-05,1
71.56,-1.561e-05,1
71.561,-4.7669e-05,1
71.561,-6.5629e-05,1
71.562,-7.2175e-05,1
71.562,-7.335e-05,1
71.563,-7.6707e-05,1
71.564,-8.2246e-05,1
71.564,-7.4022e-05,1
71.565,-4.6494e-05,1
71.565,-1.326e-05,1
71.566,1.326e-05,1
71.566,3.0716e-05,1
71.567,4.1459e-05,1
71.567,5.3208e-05,1
71.568,6.3951e-05,1
71.568,6.6972e-05,1
71.569,6.3615e-05,1
71.569,6.2608e-05,1
71.57,6.2608e-05,1
71.57,5.6901e-05,1
71.571,4.0116e-05,1
71.571,9.2317e-06,1
71.572,-2.2324e-05,1
71.572,-3.7263e-05,1
71.573,-3.5752e-05,1
71.573,-2.7192e-05,1
71.574,-1.8296e-05,1
71.574,-7.2175e-06,1
71.575,6.714e-06,1
71.575,1.9974e-05,1
71.576,2.3499e-05,1
71.576,1.7624e-05,1
71.577,1.6449e-05,1
71.578,3.4913e-05,1
71.578,6.7979e-05,1
71.579,9.1814e-05,1
71.579,9.2821e-05,1
71.58,7.7546e-05,1
71.58,5.7237e-05,1
71.581,3.3066e-05,1
71.581,6.5461e-06,1
71.582,-2.2324e-05,1
71.582,-5.0858e-05,1
71.583,-7.7714e-05,1
71.583,-9.4163e-05,1
71.584,-8.2918e-05,1
71.584,-4.9851e-05,1
71.585,-2.2324e-05,1
71.585,-1.7288e-05,1
71.586,-2.031e-05,1
71.586,-1.2253e-05,1
71.587,3.1891e-06,1
71.587,1.8463e-05,1
71.588,3.1724e-05,1
71.588,4.3641e-05,1
71.589,5.5894e-05,1
71.589,7.4357e-05,1
71.59,0.00010961,1
71.591,0.00016214,1
71.591,0.00021804,1
71.592,0.00025563,1
71.592,0.00026,1
71.593,0.00023818,1
71.593,0.00020998,1
71.594,0.00018379,1
71.594,0.00015258,1
71.595,0.00010356,1
71.595,3.3402e-05,1
71.596,-4.4984e-05,1
71.596,-0.00012807,1
71.597,-0.00021485,1
71.597,-0.00028215,1
71.598,-0.00031237,1
71.598,-0.00030414,1
71.599,-0.00026856,1
71.599,-0.00022022,1
71.6,-0.00016735,1
71.6,-0.00010927,1
71.601,-5.1194e-05,1
71.601,-6.8818e-06,1
71.602,1.796e-05,1
71.602,4.1459e-05,1
71.603,6.8482e-05,1
71.603,8.04e-05,1
71.604,6.7811e-05,1
71.605,4.2466e-05,1
71.605,2.8031e-05,1
71.606,2.6017e-05,1
71.606,2.2828e-05,1
71.607,1.4267e-05,1
71.607,6.5461e-06,1
71.608,1.4267e-05,1
71.608,3.9612e-05,1
71.609,7.0161e-05,1
71.609,9.8527e-05,1
71.61,0.00011917,1
71.61,0.0001284,1
71.611,0.00013143,1
71.611,0.00012404,1
71.612,9.5171e-05,1
71.612,5.2201e-05,1
71.613,1.561e-05,1
71.613,-1.0575e-05,1
71.614,-1.6617e-05,1
71.614,2.182e-05,1
71.615,8.0064e-05,1
71.615,9.6513e-05,1
71.616,5.8244e-05,1
71.616,5.8747e-06,1
71.617,-2.7359e-05,1
71.618,-3.5416e-05,1
71.618,-2.5681e-05,1
71.619,-8.5603e-06,1
71.619,1.1749e-06,1
71.62,-5.7069e-06,1
71.62,-1.5442e-05,1
71.621,-7.0497e-06,1
71.621,2.5681e-05,1
71.622,6.3447e-05,1
71.622,9.1142e-05,1
71.623,0.00011565,1
71.623,0.00013143,1
71.624,0.00012236,1
71.624,8.1407e-05,1
71.625,2.1317e-05,1
71.625,-3.6927e-05,1
71.626,-8.51e-05,1
71.626,-0.00010625,1
71.627,-9.3996e-05,1
71.627,-5.0523e-05,1
71.628,1.4267e-05,1
71.628,9.1981e-05,1
71.629,0.00015224,1
71.629,0.000166,1
71.63,0.0001425,1
71.63,0.00010893,1
71.631,8.3589e-05,1
71.632,7.2007e-05,1
71.632,6.63e-05,1
71.633,6.1601e-05,1
71.633,6.0594e-05,1
71.634,5.8076e-05,1
71.634,4.1123e-05,1
71.635,1.1582e-05,1
71.635,-1.1246e-05,1
71.636,-1.2253e-05,1
71.636,5.2033e-06,1
71.637,2.1149e-05,1
71.637,1.6617e-05,1
71.638,-9.0639e-06,1
71.638,-4.0787e-05,1
71.639,-5.7908e-05,1
71.639,-5.3376e-05,1
71.64,-4.0787e-05,1
71.64,-2.8367e-05,1
71.641,-1.5106e-05,1
71.641,-8.896e-06,1
71.642,-1.1246e-05,1
71.642,-1.6449e-05,1
71.643,-1.561e-05,1
71.643,-5.0355e-06,1
71.644,1.0575e-05,1
71.644,2.5345e-05,1
71.645,3.4745e-05,1
71.646,4.062e-05,1
71.646,4.2802e-05,1
71.647,3.6088e-05,1
71.647,2.0478e-05,1
71.648,1.5106e-06,1
71.648,-1.2589e-05,1
71.649,-2.4842e-05,1
71.649,-3.7934e-05,1
71.65,-4.6326e-05,1
71.65,-4.3473e-05,1
71.651,-3.2395e-05,1
71.651,-1.5442e-05,1
71.652,1.5106e-06,1
71.652,1.326e-05,1
71.653,1.9471e-05,1
71.653,1.9974e-05,1
71.654,2.3331e-05,1
71.654,3.2059e-05,1
71.655,4.1794e-05,1
71.655,4.9851e-05,1
71.656,5.388e-05,1
71.656,5.4551e-05,1
71.657,5.7237e-05,1
71.657,6.1601e-05,1
71.658,6.3951e-05,1
71.659,6.5629e-05,1
71.659,6.8818e-05,1
71.66,6.8315e-05,1
71.66,6.1265e-05,1
71.661,5.4719e-05,1
71.661,5.3208e-05,1
71.662,5.6733e-05,1
71.662,6.2608e-05,1
71.663,6.865e-05,1
71.663,7.7882e-05,1
71.664,8.4932e-05,1
71.664,7.8721e-05,1
71.665,6.1097e-05,1
71.665,3.7263e-05,1
71.666,1.091e-05,1
71.666,-1.1749e-05,1
71.667,-2.2324e-05,1
71.667,-1.9638e-05,1
71.668,-1.3931e-05,1
71.668,-9.0639e-06,1
71.669,-3.6927e-06,1
71.669,3.0213e-06,1
71.67,5.2033e-06,1
71.67,-5.0355e-07,1
71.671,-4.8676e-06,1
71.671,2.8534e-06,1
71.672,1.6953e-05,1
71.673,2.3667e-05,1
71.673,1.9806e-05,1
71.674,8.0568e-06,1
71.674,-7.5532e-06,1
71.675,-1.7288e-05,1
71.675,-4.1962e-06,1
71.676,3.0549e-05,1
71.676,5.8915e-05,1
71.677,6.2272e-05,1
71.677,4.2802e-05,1
71.678,1.4435e-05,1
71.678,-1.091e-05,1
71.679,-2.4338e-05,1
71.679,-2.7863e-05,1
71.68,-2.9374e-05,1
71.68,-3.508e-05,1
71.681,-3.7598e-05,1
71.681,-2.9877e-05,1
71.682,-2.0645e-05,1
71.682,-1.8128e-05,1
71.683,-1.3596e-05,1
71.683,1.6785e-06,1
71.684,1.5946e-05,1
71.684,1.9974e-05,1
71.685,2.4002e-05,1
71.686,3.978e-05,1
71.686,5.8579e-05,1
71.687,6.4118e-05,1
71.687,5.7237e-05,1
71.688,5.5222e-05,1
71.688,6.4622e-05,1
71.689,7.6036e-05,1
71.689,8.1071e-05,1
71.69,8.275e-05,1
71.69,8.6778e-05,1
71.691,9.5171e-05,1
71.691,9.8863e-05,1
71.692,9.9031e-05,1
71.692,0.00011128,1
71.693,0.00013243,1
71.693,0.00013462,1
71.694,0.00010793,1
71.694,7.1504e-05,1
71.695,3.6759e-05,1
71.695,-7.3854e-06,1
71.696,-6.2104e-05,1
71.696,-0.00010776,1
71.697,-0.00012908,1
71.697,-0.00012992,1
71.698,-0.00011598,1
71.698,-9.3996e-05,1
71.699,-6.9825e-05,1
71.7,-5.1865e-05,1
71.7,-4.448e-05,1
71.701,-4.7837e-05,1
71.701,-5.0523e-05,1
71.702,-3.9109e-05,1
71.702,-1.4099e-05,1
71.703,9.0639e-06,1
71.703,1.9806e-05,1
71.704,2.1317e-05,1
71.704,1.7288e-05,1
71.705,9.9031e-06,1
71.705,-8.3925e-07,1
71.706,-9.0639e-06,1
71.706,-7.5532e-06,1
71.707,6.5461e-06,1
71.707,2.266e-05,1
71.708,3.4745e-05,1
71.708,4.683e-05,1
71.709,5.7237e-05,1
71.709,6.5629e-05,1
71.71,6.8315e-05,1
71.71,5.8579e-05,1
71.711,4.213e-05,1
71.711,3.2059e-05,1
71.712,2.652e-05,1
71.713,1.4603e-05,1
71.713,-3.5248e-06,1
71.714,-2.1149e-05,1
71.714,-3.743e-05,1
71.715,-4.5487e-05,1
71.715,-3.0381e-05,1
71.716,1.0071e-06,1
71.716,3.0045e-05,1
71.717,5.0019e-05,1
71.717,6.6804e-05,1
71.718,7.8889e-05,1
71.718,7.8218e-05,1
71.719,6.1601e-05,1
71.719,3.9109e-05,1
71.72,3.0045e-05,1
71.72,4.0452e-05,1
71.721,6.6804e-05,1
71.721,9.601e-05,1
71.722,0.00010558,1
71.722,9.5171e-05,1
71.723,8.0064e-05,1
71.723,6.6804e-05,1
71.724,5.0858e-05,1
71.724,4.0116e-05,1
71.725,4.2802e-05,1
71.725,5.1865e-05,1
71.726,4.683e-05,1
71.727,2.501e-05,1
71.727,-5.8747e-06,1
71.728,-3.9109e-05,1
71.728,-5.2369e-05,1
71.729,-4.5991e-05,1
71.729,-4.5823e-05,1
71.73,-5.9419e-05,1
71.73,-6.5461e-05,1
71.731,-3.9445e-05,1
71.731,1.6281e-05,1
71.732,8.9296e-05,1
71.732,0.00015258,1
71.733,0.00017305,1
71.733,0.00014368,1
71.734,8.5771e-05,1
71.734,1.7624e-05,1
71.735,-6.7643e-05,1
71.735,-0.00016332,1
71.736,-0.00022643,1
71.736,-0.00021955,1
71.737,-0.00016667,1
71.737,-0.00012303,1
71.738,-0.00010222,1
71.738,-9.0806e-05,1
71.739,-6.9657e-05,1
71.74,-3.6423e-05,1
71.74,-4.3641e-06,1
71.741,1.6281e-05,1
71.741,2.6017e-05,1
71.742,3.6088e-05,1
71.742,5.0858e-05,1
71.743,7.0329e-05,1
71.743,9.0974e-05,1
71.744,0.00011464,1
71.744,0.00013814,1
71.745,0.0001556,1
71.745,0.00015761,1
71.746,0.00014838,1
71.746,0.00014469,1
71.747,0.00014888,1
71.747,0.00015258,1
71.748,0.00014418,1
71.748,0.00012068,1
71.749,8.6442e-05,1
71.749,4.8676e-05,1
71.75,1.7624e-05,1
71.75,-2.5177e-06,1
71.751,-1.5106e-05,1
71.751,-2.3331e-05,1
71.752,-3.2227e-05,1
71.752,-4.5151e-05,1
71.753,-5.1698e-05,1
71.754,-4.448e-05,1
71.754,-3.592e-05,1
71.755,-3.2731e-05,1
71.755,-2.8031e-05,1
71.756,-1.6953e-05,1
71.756,-3.0213e-06,1
71.757,7.2175e-06,1
71.757,8.7282e-06,1
71.758,6.3783e-06,1
71.758,1.0575e-05,1
71.759,2.4338e-05,1
71.759,4.2802e-05,1
71.76,5.8244e-05,1
71.76,6.1433e-05,1
71.761,5.2873e-05,1
71.761,4.4144e-05,1
71.762,4.3809e-05,1
71.762,4.6494e-05,1
71.763,4.3473e-05,1
71.763,3.2395e-05,1
71.764,1.561e-05,1
71.764,-6.3783e-06,1
71.765,-2.1653e-05,1
71.765,-2.0981e-05,1
71.766,-9.3996e-06,1
71.767,5.2033e-06,1
71.767,1.8967e-05,1
71.768,2.3331e-05,1
71.768,1.9974e-05,1
71.769,1.7288e-05,1
71.769,1.8631e-05,1
71.77,2.7359e-05,1
71.77,4.1459e-05,1
71.771,4.9851e-05,1
71.771,4.683e-05,1
71.772,4.8173e-05,1
71.772,6.5965e-05,1
71.773,9.7856e-05,1
71.773,0.00012673,1
71.774,0.0001378,1
71.774,0.00013545,1
71.775,0.00013042,1
71.775,0.0001227,1
71.776,0.00011128,1
71.776,9.7185e-05,1
71.777,8.3085e-05,1
71.777,6.9322e-05,1
71.778,4.1123e-05,1
71.778,-1.0239e-05,1
71.779,-5.9586e-05,1
71.779,-7.57e-05,1
71.78,-4.7501e-05,1
71.781,1.0071e-06,1
71.781,2.9374e-05,1
71.782,2.417e-05,1
71.782,5.539e-06,1
71.783,-1.2924e-05,1
71.783,-3.6759e-05,1
71.784,-6.5126e-05,1
71.784,-9.2317e-05,1
71.785,-0.00010726,1
71.785,-9.9535e-05,1
71.786,-7.5029e-05,1
71.786,-4.8173e-05,1
71.787,-2.1653e-05,1
71.787,9.0639e-06,1
71.788,4.8005e-05,1
71.788,9.7856e-05,1
71.789,0.00015073,1
71.789,0.00017372,1
71.79,0.00015358,1
71.79,0.00010692,1
71.791,5.388e-05,1
71.791,1.1078e-05,1
71.792,-1.6617e-05,1
71.792,-3.8773e-05,1
71.793,-6.2943e-05,1
71.794,-8.8457e-05,1
71.794,-0.00011263,1
71.795,-0.00012572,1
71.795,-0.00011363,1
71.796,-8.1743e-05,1
71.796,-4.3137e-05,1
71.797,-9.0639e-06,1
71.797,4.8676e-06,1
71.798,-4.5319e-06,1
71.798,-1.091e-05,1
71.799,2.182e-06,1
71.799,1.7792e-05,1
71.8,1.7456e-05,1
71.8,4.0284e-06,1
71.801,-2.8534e-06,1
71.801,3.8605e-06,1
71.802,1.796e-05,1
71.802,3.1052e-05,1
71.803,4.3473e-05,1
71.803,5.9251e-05,1
71.804,7.57e-05,1
71.804,8.5771e-05,1
71.805,8.2078e-05,1
71.805,6.5629e-05,1
71.806,4.8173e-05,1
71.806,4.5487e-05,1
71.807,5.3376e-05,1
71.808,5.9922e-05,1
71.808,6.3447e-05,1
71.809,6.7643e-05,1
71.809,6.6636e-05,1
71.81,5.6901e-05,1
71.81,4.4144e-05,1
71.811,3.8773e-05,1
71.811,4.0116e-05,1
71.812,3.827e-05,1
71.812,2.7695e-05,1
71.813,7.2175e-06,1
71.813,-1.1917e-05,1
71.814,-1.8296e-05,1
71.814,-1.326e-05,1
71.815,-7.0497e-06,1
71.815,-4.5319e-06,1
71.816,-2.182e-06,1
71.816,2.5177e-06,1
71.817,1.2421e-05,1
71.817,3.1724e-05,1
71.818,6.0258e-05,1
71.818,8.7282e-05,1
71.819,0.00010188,1
71.819,0.00010726,1
71.82,0.00010658,1
71.821,0.00010037,1
71.821,9.6513e-05,1
71.822,9.3828e-05,1
71.822,8.5771e-05,1
71.823,7.2343e-05,1
71.823,4.3809e-05,1
71.824,-1.0575e-05,1
71.824,-7.1e-05,1
71.825,-0.00010071,1
71.825,-0.00010037,1
71.826,-9.8192e-05,1
71.826,-0.00011162,1
71.827,-0.00012773,1
71.827,-0.00012219,1
71.828,-8.7449e-05,1
71.828,-4.0452e-05,1
71.829,-4.6998e-06,1
71.829,7.5532e-06,1
71.83,7.8889e-06,1
71.83,8.896e-06,1
71.831,1.5106e-05,1
71.831,2.7359e-05,1
71.832,4.4816e-05,1
71.832,6.2943e-05,1
71.833,8.5771e-05,1
71.834,0.0001086,1
71.834,0.0001237,1
71.835,0.00013109,1
71.835,0.00013344,1
71.836,0.00013059,1
71.836,0.00012102,1
71.837,9.9535e-05,1
71.837,7.0329e-05,1
71.838,5.0858e-05,1
71.838,4.1459e-05,1
71.839,3.2059e-05,1
71.839,2.1988e-05,1
71.84,1.1246e-05,1
71.84,-2.182e-06,1
71.841,-1.6617e-05,1
71.841,-2.8702e-05,1
71.842,-3.6423e-05,1
71.842,-4.1459e-05,1
71.843,-4.3809e-05,1
71.843,-5.0019e-05,1
71.844,-7.2007e-05,1
71.844,-0.00011699,1
71.845,-0.00018195,1
71.845,-0.00022609,1
71.846,-0.00021267,1
71.846,-0.00015492,1
71.847,-9.2988e-05,1
71.848,-3.9277e-05,1
71.848,2.6184e-05,1
71.849,9.1814e-05,1
71.849,0.00012337,1
71.85,0.00011934,1
71.85,0.00010692,1
71.851,0.0001039,1
71.851,0.00010289,1
71.852,8.275e-05,1
71.852,4.7333e-05,1
71.853,1.6953e-05,1
71.853,-7.5532e-06,1
71.854,-2.8702e-05,1
71.854,-3.5248e-05,1
71.855,-2.417e-05,1
71.855,-7.5532e-06,1
71.856,1.0239e-05,1
71.856,3.4073e-05,1
71.857,6.9322e-05,1
71.857,0.0001039,1
71.858,0.00012018,1
71.858,0.00011196,1
71.859,8.9967e-05,1
71.859,6.9657e-05,1
71.86,5.5055e-05,1
71.861,4.918e-05,1
71.861,4.918e-05,1
71.862,5.0523e-05,1
71.862,5.388e-05,1
71.863,6.0258e-05,1
71.863,7.0665e-05,1
71.864,8.1071e-05,1
71.864,9.0806e-05,1
71.865,9.4667e-05,1
71.865,8.9128e-05,1
71.866,7.9896e-05,1
71.866,7.2679e-05,1
71.867,6.6972e-05,1
71.867,6.4622e-05,1
71.868,6.2776e-05,1
71.868,5.8915e-05,1
71.869,5.3544e-05,1
71.869,3.6088e-05,1
71.87,-8.3925e-07,1
71.87,-4.3473e-05,1
71.871,-6.6468e-05,1
71.871,-5.6565e-05,1
71.872,-2.9038e-05,1
71.872,-4.8676e-06,1
71.873,1.0239e-05,1
71.873,2.4842e-05,1
71.874,3.743e-05,1
71.875,3.9445e-05,1
71.875,2.9877e-05,1
71.876,1.4603e-05,1
71.876,3.1891e-06,1
71.877,1.8463e-06,1
71.877,3.5248e-06,1
71.878,-2.0142e-06,1
71.878,-8.896e-06,1
71.879,-6.2104e-06,1
71.879,5.2033e-06,1
71.88,2.2828e-05,1
71.88,4.6998e-05,1
71.881,6.4958e-05,1
71.881,5.6062e-05,1
71.882,1.6953e-05,1
71.882,-3.5248e-05,1
71.883,-7.2343e-05,1
71.883,-8.7617e-05,1
71.884,-9.5506e-05,1
71.884,-9.987e-05,1
71.885,-9.9031e-05,1
71.885,-8.6946e-05,1
71.886,-5.4215e-05,1
71.886,-2.8534e-06,1
71.887,4.2802e-05,1
71.888,6.63e-05,1
71.888,6.6972e-05,1
71.889,5.6901e-05,1
71.889,4.683e-05,1
71.89,4.9851e-05,1
71.89,6.6133e-05,1
71.891,8.1071e-05,1
71.891,8.4764e-05,1
71.892,8.0064e-05,1
71.892,6.8482e-05,1
71.893,4.8844e-05,1
71.893,2.8031e-05,1
71.894,2.3667e-05,1
71.894,4.213e-05,1
71.895,6.3615e-05,1
71.895,6.7643e-05,1
71.896,5.8915e-05,1
71.896,4.4144e-05,1
71.897,2.266e-05,1
71.897,-1.6785e-07,1
71.898,-8.5603e-06,1
71.898,5.539e-06,1
71.899,2.6017e-05,1
71.899,3.4073e-05,1
71.9,3.978e-05,1
71.9,5.8244e-05,1
71.901,7.805e-05,1
71.902,8.5771e-05,1
71.902,8.1407e-05,1
71.903,5.9586e-05,1
71.903,2.6688e-05,1
71.904,-5.3712e-06,1
71.904,-3.0716e-05,1
71.905,-4.7837e-05,1
71.905,-5.2705e-05,1
71.906,-4.3641e-05,1
71.906,-1.8967e-05,1
71.907,1.3931e-05,1
71.907,4.1459e-05,1
71.908,5.8915e-05,1
71.908,7.1839e-05,1
71.909,8.0064e-05,1
71.909,8.04e-05,1
71.91,7.7714e-05,1
71.91,6.4958e-05,1
71.911,4.0955e-05,1
71.911,1.5778e-05,1
71.912,-2.8534e-06,1
71.912,-2.887e-05,1
71.913,-6.8315e-05,1
71.913,-0.00010642,1
71.914,-0.00012908,1
71.915,-0.00013378,1
71.915,-0.00013579,1
71.916,-0.00015023,1
71.916,-0.00015358,1
71.917,-0.00011431,1
71.917,-4.213e-05,1
71.918,3.5248e-05,1
71.918,0.00010927,1
71.919,0.0001697,1
71.919,0.00020578,1
71.92,0.00022055,1
71.92,0.00021871,1
71.921,0.00020192,1
71.921,0.00018312,1
71.922,0.00017171,1
71.922,0.00015929,1
71.923,0.00012538,1
71.923,6.949e-05,1
71.924,1.0071e-05,1
71.924,-5.5558e-05,1
71.925,-0.0001279,1
71.925,-0.00017137,1
71.926,-0.0001613,1
71.926,-0.00010759,1
71.927,-4.5823e-05,1
71.927,-1.2924e-05,1
71.928,-1.091e-05,1
71.929,-8.896e-06,1
71.929,2.5177e-06,1
71.93,6.0426e-06,1
71.93,-1.5442e-05,1
71.931,-6.4622e-05,1
71.931,-9.601e-05,1
71.932,-6.4622e-05,1
71.932,7.8889e-06,1
71.933,6.6972e-05,1
71.933,9.6513e-05,1
71.934,9.7856e-05,1
71.934,6.1601e-05,1
71.935,-8.2246e-06,1
71.935,-9.1478e-05,1
71.936,-0.00015476,1
71.936,-0.00017171,1
71.937,-0.00014485,1
71.937,-9.2149e-05,1
71.938,-3.3906e-05,1
71.938,1.2589e-05,1
71.939,3.743e-05,1
71.939,4.5319e-05,1
71.94,4.0452e-05,1
71.94,3.1724e-05,1
71.941,2.6184e-05,1
71.942,2.4002e-05,1
71.942,1.8967e-05,1
71.943,3.8605e-06,1
71.943,-2.266e-05,1
71.944,-3.9277e-05,1
71.944,-2.8031e-05,1
71.945,-4.1962e-06,1
71.945,1.5442e-05,1
71.946,2.6184e-05,1
71.946,2.9038e-05,1
71.947,2.5849e-05,1
71.947,2.3163e-05,1
71.948,2.8031e-05,1
71.948,4.6662e-05,1
71.949,7.6707e-05,1
71.949,0.00010893,1
71.95,0.00013109,1
71.95,0.00013948,1
71.951,0.00014217,1
71.951,0.00014871,1
71.952,0.00014888,1
71.952,0.00013646,1
71.953,0.00011749,1
71.953,0.00010239,1
71.954,9.7856e-05,1
71.954,0.00010608,1
71.955,0.00011733,1
71.956,0.00012303,1
71.956,0.00011716,1
71.957,9.9702e-05,1
71.957,8.1575e-05,1
71.958,6.6804e-05,1
71.958,4.7837e-05,1
71.959,2.5345e-05,1
71.959,3.8605e-06,1
71.96,-1.9135e-05,1
71.96,-4.2634e-05,1
71.961,-5.9251e-05,1
71.961,-7.3686e-05,1
71.962,-9.1478e-05,1
71.962,-0.00010071,1
71.963,-9.0471e-05,1
71.963,-5.9754e-05,1
71.964,-2.7359e-05,1
71.964,9.0639e-06,1
71.965,7.1336e-05,1
71.965,0.00013999,1
71.966,0.00018363,1
71.966,0.00018866,1
71.967,0.00015392,1
71.967,9.7185e-05,1
71.968,3.9948e-05,1
71.969,-8.5603e-06,1
71.969,-4.8844e-05,1
71.97,-8.2582e-05,1
71.97,-0.00010491,1
71.971,-0.00010323,1
71.971,-7.0665e-05,1
71.972,-2.8367e-05,1
71.972,-3.357e-06,1
71.973,1.1749e-06,1
71.973,-1.0071e-06,1
71.974,1.0071e-06,1
71.974,1.6785e-07,1
71.975,-1.5946e-05,1
71.975,-3.3738e-05,1
71.976,-2.9206e-05,1
71.976,-4.6998e-06,1
71.977,2.2995e-05,1
71.977,4.5487e-05,1
71.978,5.9586e-05,1
71.978,6.1936e-05,1
71.979,5.0187e-05,1
71.979,3.0549e-05,1
71.98,9.7353e-06,1
71.98,-1.326e-05,1
71.981,-3.4409e-05,1
71.981,-4.3977e-05,1
71.982,-3.3402e-05,1
71.983,5.0355e-07,1
71.983,4.4648e-05,1
