123.81,0.00017037,0
123.81,0.00014737,0
123.81,0.00012169,0
123.81,0.0001133,0
123.81,0.00010994,0
123.81,9.4499e-05,0
123.81,8.1407e-05,0
123.81,9.8863e-05,0
123.81,0.00012958,0
123.81,0.00013915,0
123.81,0.00012857,0
123.81,0.00010642,0
123.81,6.5629e-05,0
123.81,1.3764e-05,0
123.81,-2.9374e-05,0
123.82,-5.8076e-05,0
123.82,-8.2078e-05,0
123.82,-9.2149e-05,0
123.82,-7.3182e-05,0
123.82,-5.5055e-05,0
123.82,-6.7979e-05,0
123.82,-6.6804e-05,0
123.82,-2.4002e-05,0
123.82,2.2324e-05,0
123.82,4.9516e-05,0
123.82,7.3686e-05,0
123.82,0.00010088,0
123.82,0.00011229,0
123.82,0.00010172,0
123.82,7.7714e-05,0
123.82,3.9445e-05,0
123.82,-1.091e-05,0
123.82,-6.1601e-05,0
123.82,-0.00011699,0
123.83,-0.00017607,0
123.83,-0.00019487,0
123.83,-0.00012773,0
123.83,5.2033e-06,0
123.83,0.00012605,0
123.83,0.00018514,0
123.83,0.00018379,0
123.83,0.00014955,0
123.83,0.00011867,0
123.83,0.00010658,0
123.83,0.00010759,0
123.83,0.00011783,0
123.83,0.00013512,0
123.83,0.00014083,0
123.83,0.00011363,0
123.83,5.7908e-05,0
123.83,5.8747e-06,0
123.83,-1.6617e-05,0
123.83,-1.5274e-05,0
123.83,-1.3428e-05,0
123.84,-2.7359e-05,0
123.84,-7.0161e-05,0
123.84,-0.00012958,0
123.84,-0.00015727,0
123.84,-0.00013109,0
123.84,-9.0135e-05,0
123.84,-9.3828e-05,0
123.84,-0.00010541,0
123.84,-5.153e-05,0
123.84,3.8102e-05,0
123.84,0.00010507,0
123.84,0.00013797,0
123.84,0.00014636,0
123.84,0.00013915,0
123.84,0.00011984,0
123.84,8.9128e-05,0
123.84,5.0858e-05,0
123.84,2.4506e-05,0
123.84,1.9974e-05,0
123.85,2.2492e-05,0
123.85,1.4267e-05,0
123.85,-1.0071e-05,0
123.85,-4.9851e-05,0
123.85,-8.896e-05,0
123.85,-0.00010944,0
123.85,-0.00011313,0
123.85,-0.00010423,0
123.85,-7.5868e-05,0
123.85,-4.1291e-05,0
123.85,-2.9709e-05,0
123.85,-3.9109e-05,0
123.85,-5.1698e-05,0
123.85,-7.2007e-05,0
123.85,-9.366e-05,0
123.85,-5.5222e-05,0
123.85,5.0858e-05,0
123.85,0.0001368,0
123.85,0.000166,0
123.86,0.00015358,0
123.86,0.00013394,0
123.86,0.00012874,0
123.86,0.00012337,0
123.86,9.5506e-05,0
123.86,4.5991e-05,0
123.86,5.539e-06,0
123.86,2.182e-06,0
123.86,8.2246e-06,0
123.86,-2.2156e-05,0
123.86,-7.4525e-05,0
123.86,-8.7785e-05,0
123.86,-3.743e-05,0
123.86,3.8773e-05,0
123.86,0.00010658,0
123.86,0.00015123,0
123.86,0.00015644,0
123.86,0.00012673,0
123.86,9.1142e-05,0
123.87,6.1769e-05,0
123.87,2.6688e-05,0
123.87,-2.0645e-05,0
123.87,-9.0974e-05,0
123.87,-0.00019051,0
123.87,-0.00026621,0
123.87,-0.00022341,0
123.87,-8.4596e-05,0
123.87,2.8031e-05,0
123.87,9.5842e-05,0
123.87,0.00017272,0
123.87,0.00023717,0
123.87,0.00024086,0
123.87,0.00019286,0
123.87,0.00015056,0
123.87,0.00014418,0
123.87,0.00013579,0
123.87,8.8457e-05,0
123.87,2.8702e-05,0
123.88,5.0355e-06,0
123.88,2.7359e-05,0
123.88,6.3447e-05,0
123.88,8.275e-05,0
123.88,7.2679e-05,0
123.88,3.6759e-05,0
123.88,3.8605e-06,0
123.88,1.5106e-06,0
123.88,2.9877e-05,0
123.88,6.8986e-05,0
123.88,9.0806e-05,0
123.88,6.2943e-05,0
123.88,-3.8605e-06,0
123.88,-6.4958e-05,0
123.88,-8.9464e-05,0
123.88,-9.1142e-05,0
123.88,-0.00010692,0
123.88,-0.00017641,0
123.88,-0.00029558,0
123.88,-0.00032882,0
123.89,-0.00017473,0
123.89,5.623e-05,0
123.89,0.00020595,0
123.89,0.00024791,0
123.89,0.00022727,0
123.89,0.00017675,0
123.89,0.00010961,0
123.89,5.0187e-05,0
123.89,3.3402e-05,0
123.89,6.8818e-05,0
123.89,0.00014083,0
123.89,0.00020864,0
123.89,0.00023012,0
123.89,0.00021132,0
123.89,0.00017171,0
123.89,0.00011498,0
123.89,4.4816e-05,0
123.89,-1.1749e-05,0
123.89,-4.1459e-05,0
123.9,-5.2705e-05,0
123.9,-7.1672e-05,0
123.9,-9.2149e-05,0
123.9,-9.5506e-05,0
123.9,-0.00010709,0
123.9,-0.00014586,0
123.9,-0.00019739,0
123.9,-0.0002454,0
123.9,-0.00029659,0
123.9,-0.00033889,0
123.9,-0.00033654,0
123.9,-0.0002788,0
123.9,-0.0001989,0
123.9,-0.00012522,0
123.9,-5.0019e-05,0
123.9,3.6088e-05,0
123.9,0.00012119,0
123.9,0.00019269,0
123.9,0.00023398,0
123.91,0.00023851,0
123.91,0.00022878,0
123.91,0.00020914,0
123.91,0.00016902,0
123.91,0.00012975,0
123.91,0.00010927,0
123.91,9.3156e-05,0
123.91,6.714e-05,0
123.91,5.0019e-05,0
123.91,5.0523e-05,0
123.91,5.388e-05,0
123.91,5.4551e-05,0
123.91,5.7908e-05,0
123.91,5.153e-05,0
123.91,3.1891e-06,0
123.91,-7.6371e-05,0
123.91,-0.00014284,0
123.91,-0.00016818,0
123.91,-0.00016684,0
123.91,-0.0001331,0
123.92,-3.0884e-05,0
123.92,9.4331e-05,0
123.92,0.00016567,0
123.92,0.00016013,0
123.92,0.00011128,0
123.92,6.5293e-05,0
123.92,3.4745e-05,0
123.92,-5.539e-06,0
123.92,-4.6494e-05,0
123.92,-2.266e-05,0
123.92,7.57e-05,0
123.92,0.00018178,0
123.92,0.00022475,0
123.92,0.0001989,0
123.92,0.00013948,0
123.92,7.1672e-05,0
123.92,-1.1246e-05,0
123.92,-0.00012186,0
123.92,-0.00020478,0
123.93,-0.00019236,0
123.93,-9.9199e-05,0
123.93,4.1123e-05,0
123.93,0.00018581,0
123.93,0.00027225,0
123.93,0.00028182,0
123.93,0.00024523,0
123.93,0.00019823,0
123.93,0.00016869,0
123.93,0.00015224,0
123.93,0.00011716,0
123.93,6.9657e-05,0
123.93,6.4286e-05,0
123.93,0.00010726,0
123.93,0.00014351,0
123.93,0.00013915,0
123.93,0.00010658,0
123.93,6.3951e-05,0
123.93,1.1246e-05,0
123.94,-6.3279e-05,0
123.94,-0.00012773,0
123.94,-0.00011733,0
123.94,-4.3137e-05,0
123.94,1.0071e-06,0
123.94,-4.1123e-05,0
123.94,-0.00010222,0
123.94,-0.00010977,0
123.94,-9.2821e-05,0
123.94,-0.00010491,0
123.94,-0.00014452,0
123.94,-0.0001707,0
123.94,-0.00016046,0
123.94,-0.00010809,0
123.94,-1.9471e-05,0
123.94,7.7211e-05,0
123.94,0.00013176,0
123.94,0.00012102,0
123.94,7.3014e-05,0
123.95,2.1317e-05,0
123.95,-2.4674e-05,0
123.95,-5.2033e-05,0
123.95,-4.9683e-05,0
123.95,-2.8367e-05,0
123.95,-3.357e-06,0
123.95,2.7024e-05,0
123.95,5.8579e-05,0
123.95,6.9154e-05,0
123.95,5.8244e-05,0
123.95,3.3906e-05,0
123.95,-3.1891e-06,0
123.95,-4.5823e-05,0
123.95,-8.6778e-05,0
123.95,-0.00015593,0
123.95,-0.00027141,0
123.95,-0.00033201,0
123.95,-0.00024758,0
123.95,-7.335e-05,0
123.95,0.00011263,0
123.96,0.00025899,0
123.96,0.00031069,0
123.96,0.00027041,0
123.96,0.00021166,0
123.96,0.00018581,0
123.96,0.000165,0
123.96,0.00010692,0
123.96,2.9709e-05,0
123.96,-9.5674e-06,0
123.96,-1.561e-05,0
123.96,-2.7359e-05,0
123.96,-5.6397e-05,0
123.96,-8.9967e-05,0
123.96,-0.00011061,0
123.96,-0.00012404,0
123.96,-0.00016466,0
123.96,-0.0002083,0
123.96,-0.00018396,0
123.96,-0.00011212,0
123.97,-5.6565e-05,0
123.97,-2.3835e-05,0
123.97,-1.4267e-05,0
123.97,-3.5752e-05,0
123.97,-7.4693e-05,0
123.97,-0.00011968,0
123.97,-0.00013361,0
123.97,-5.539e-05,0
123.97,9.2317e-05,0
123.97,0.0002318,0
123.97,0.00032143,0
123.97,0.00034661,0
123.97,0.00031606,0
123.97,0.00025966,0
123.97,0.00020931,0
123.97,0.00018161,0
123.97,0.00017305,0
123.97,0.00017221,0
123.97,0.00016634,0
123.98,0.00015627,0
123.98,0.00014653,0
123.98,0.00012975,0
123.98,0.00010591,0
123.98,9.2485e-05,0
123.98,8.3925e-05,0
123.98,5.8244e-05,0
123.98,2.6017e-05,0
123.98,-6.2104e-06,0
123.98,-4.8341e-05,0
123.98,-0.00010289,0
123.98,-0.00017356,0
123.98,-0.00025849,0
123.98,-0.00031791,0
123.98,-0.00027326,0
123.98,-0.00011179,0
123.98,7.3182e-05,0
123.98,0.00019487,0
123.98,0.00022408,0
123.98,0.00016399,0
123.99,4.8173e-05,0
123.99,-4.4144e-05,0
123.99,-5.9251e-05,0
123.99,-5.2537e-05,0
123.99,-7.2679e-05,0
123.99,-5.1362e-05,0
123.99,5.539e-05,0
123.99,0.00017272,0
123.99,0.00021535,0
123.99,0.00017842,0
123.99,0.00011296,0
123.99,6.5797e-05,0
123.99,4.9348e-05,0
123.99,4.2802e-05,0
123.99,2.6688e-05,0
123.99,1.326e-05,0
123.99,3.122e-05,0
123.99,6.9993e-05,0
123.99,9.0974e-05,0
124,8.6275e-05,0
124,7.7714e-05,0
124,7.2847e-05,0
124,5.539e-05,0
124,2.1317e-05,0
124,-4.3977e-05,0
124,-0.00012303,0
124,-0.00012992,0
124,-6.009e-05,0
124,1.9638e-05,0
124,8.5771e-05,0
124,0.00013948,0
124,0.00015543,0
124,0.00011431,0
124,4.0955e-05,0
124,-2.8031e-05,0
124,-8.7282e-05,0
124,-0.00015392,0
124,-0.0002412,0
124.01,-0.00031673,0
124.01,-0.00033973,0
124.01,-0.00029827,0
124.01,-0.00020729,0
124.01,-8.3085e-05,0
124.01,4.5991e-05,0
124.01,0.00015694,0
124.01,0.00023549,0
124.01,0.00025077,0
124.01,0.0002036,0
124.01,0.00013529,0
124.01,9.5171e-05,0
124.01,8.4428e-05,0
124.01,4.6159e-05,0
124.01,-3.6591e-05,0
124.01,-0.00010893,0
124.01,-0.00012387,0
124.01,-0.00010961,0
124.01,-0.00011112,0
124.02,-0.0001227,0
124.02,-8.0735e-05,0
124.02,3.4577e-05,0
124.02,0.00013512,0
124.02,0.00014485,0
124.02,8.6946e-05,0
124.02,3.4073e-05,0
124.02,2.4338e-05,0
124.02,5.4887e-05,0
124.02,9.7856e-05,0
124.02,0.00013814,0
124.02,0.00017171,0
124.02,0.00018514,0
124.02,0.00016231,0
124.02,0.00010524,0
124.02,4.3473e-05,0
124.02,1.1749e-06,0
124.02,-2.652e-05,0
124.02,-4.7669e-05,0
124.03,-6.5293e-05,0
124.03,-7.8386e-05,0
124.03,-7.3686e-05,0
124.03,-5.6565e-05,0
124.03,-4.4816e-05,0
124.03,-4.8341e-05,0
124.03,-5.623e-05,0
124.03,-5.8076e-05,0
124.03,-5.7908e-05,0
124.03,-5.2369e-05,0
124.03,-3.4409e-05,0
124.03,-1.3092e-05,0
124.03,1.2589e-05,0
124.03,4.6326e-05,0
124.03,7.2007e-05,0
124.03,7.9057e-05,0
124.03,7.1504e-05,0
124.03,5.3544e-05,0
124.03,7.2175e-06,0
124.03,-8.6275e-05,0
124.04,-0.0002219,0
124.04,-0.00036457,0
124.04,-0.00042113,0
124.04,-0.00028132,0
124.04,3.3402e-05,0
124.04,0.0003268,0
124.04,0.00045772,0
124.04,0.00045034,0
124.04,0.0003879,0
124.04,0.00031875,0
124.04,0.00025832,0
124.04,0.00021115,0
124.04,0.0001744,0
124.04,0.00014116,0
124.04,0.00011229,0
124.04,9.2485e-05,0
124.04,8.0735e-05,0
124.04,6.63e-05,0
124.04,4.8676e-05,0
124.05,3.5416e-05,0
124.05,2.9374e-05,0
124.05,1.7624e-05,0
124.05,-1.8463e-06,0
124.05,-2.1149e-05,0
124.05,-3.0381e-05,0
124.05,-1.9806e-05,0
124.05,-8.2246e-06,0
124.05,-1.091e-05,0
124.05,-2.3835e-05,0
124.05,-3.8773e-05,0
124.05,-5.6901e-05,0
124.05,-7.4861e-05,0
124.05,-8.275e-05,0
124.05,-6.3951e-05,0
124.05,1.8463e-06,0
124.05,8.3085e-05,0
124.05,0.00010726,0
124.05,6.865e-05,0
124.06,2.0645e-05,0
124.06,-1.8799e-05,0
124.06,-9.4331e-05,0
124.06,-0.00026638,0
124.06,-0.00049918,0
124.06,-0.0005769,0
124.06,-0.00033419,0
124.06,7.7211e-05,0
124.06,0.00037011,0
124.06,0.00043624,0
124.06,0.00035013,0
124.06,0.00022475,0
124.06,0.00013596,0
124.06,0.00010037,0
124.06,0.00010188,0
124.06,0.00011263,0
124.06,0.00010188,0
124.06,5.8747e-05,0
124.06,1.3931e-05,0
124.06,-1.2757e-05,0
124.07,-5.0523e-05,0
124.07,-0.00011968,0
124.07,-0.000142,0
124.07,-4.5823e-05,0
124.07,9.7185e-05,0
124.07,0.00015677,0
124.07,0.00011112,0
124.07,3.8102e-05,0
124.07,-5.3712e-06,0
124.07,9.0639e-06,0
124.07,8.2582e-05,0
124.07,0.00018279,0
124.07,0.00026302,0
124.07,0.00028719,0
124.07,0.00025194,0
124.07,0.00018715,0
124.07,0.00012454,0
124.07,7.4189e-05,0
124.07,3.2059e-05,0
124.08,-5.2033e-06,0
124.08,-3.122e-05,0
124.08,-5.7237e-05,0
124.08,-0.00010037,0
124.08,-0.00013579,0
124.08,-0.0001326,0
124.08,-0.00011514,0
124.08,-0.00011431,0
124.08,-0.00012454,0
124.08,-0.00013478,0
124.08,-0.00014485,0
124.08,-0.00016449,0
124.08,-0.00020343,0
124.08,-0.00022441,0
124.08,-0.00020108,0
124.08,-0.0001608,0
124.08,-0.00014603,0
124.08,-0.00017926,0
124.08,-0.00021267,0
124.09,-0.00021032,0
124.09,-0.00018128,0
124.09,-0.00012337,0
124.09,2.0142e-06,0
124.09,0.0001697,0
124.09,0.00028316,0
124.09,0.00030532,0
124.09,0.00029223,0
124.09,0.00030062,0
124.09,0.00031254,0
124.09,0.00029055,0
124.09,0.00023314,0
124.09,0.00016231,0
124.09,0.0001044,0
124.09,7.3686e-05,0
124.09,5.9586e-05,0
124.09,3.9948e-05,0
124.09,6.8818e-06,0
124.09,-2.9206e-05,0
124.1,-4.3137e-05,0
124.1,-3.0716e-05,0
124.1,-5.539e-06,0
124.1,1.0575e-05,0
124.1,4.6998e-06,0
124.1,-2.2492e-05,0
124.1,-5.9251e-05,0
124.1,-0.00011833,0
124.1,-0.00023113,0
124.1,-0.00034946,0
124.1,-0.00034829,0
124.1,-0.00015627,0
124.1,0.00012169,0
124.1,0.00031774,0
124.1,0.00039663,0
124.1,0.00038085,0
124.1,0.00026017,0
124.1,5.6565e-05,0
124.1,-0.0001368,0
124.11,-0.00023079,0
124.11,-0.00017423,0
124.11,1.7121e-05,0
124.11,0.00022106,0
124.11,0.00030918,0
124.11,0.00027091,0
124.11,0.00018715,0
124.11,0.00011934,0
124.11,5.2873e-05,0
124.11,-1.6281e-05,0
124.11,-5.0187e-05,0
124.11,-3.1388e-05,0
124.11,1.4603e-05,0
124.11,3.9612e-05,0
124.11,2.5681e-05,0
124.11,1.2421e-05,0
124.11,3.0213e-05,0
124.11,5.7069e-05,0
124.11,7.1504e-05,0
124.11,7.5868e-05,0
124.12,6.63e-05,0
124.12,2.3331e-05,0
124.12,-4.2298e-05,0
124.12,-7.4357e-05,0
124.12,-4.3977e-05,0
124.12,4.3641e-06,0
124.12,3.0045e-05,0
124.12,3.2395e-05,0
124.12,2.0645e-05,0
124.12,1.4939e-05,0
124.12,1.3428e-05,0
124.12,-9.5674e-06,0
124.12,-5.153e-05,0
124.12,-9.4163e-05,0
124.12,-0.00012001,0
124.12,-9.6849e-05,0
124.12,-1.2757e-05,0
124.12,9.8695e-05,0
124.12,0.00020192,0
124.13,0.00028283,0
124.13,0.000308,0
124.13,0.00025127,0
124.13,0.00015174,0
124.13,5.5222e-05,0
124.13,-5.3544e-05,0
124.13,-0.00017473,0
124.13,-0.00029894,0
124.13,-0.00042365,0
124.13,-0.00049918,0
124.13,-0.00042802,0
124.13,-0.00018866,0
124.13,7.7043e-05,0
124.13,0.00021032,0
124.13,0.00019554,0
124.13,0.00010776,0
124.13,1.6281e-05,0
124.13,-4.9851e-05,0
124.13,-6.6133e-05,0
124.14,-1.3931e-05,0
124.14,7.8218e-05,0
124.14,0.00013277,0
124.14,0.00013075,0
124.14,0.00011699,0
124.14,0.00012337,0
124.14,0.00014351,0
124.14,0.00014553,0
124.14,0.00012068,0
124.14,0.0001034,0
124.14,0.00011061,0
124.14,0.00012605,0
124.14,0.0001415,0
124.14,0.00016013,0
124.14,0.00017557,0
124.14,0.00018245,0
124.14,0.00018346,0
124.14,0.00017339,0
124.14,0.00014653,0
124.14,0.00011061,0
124.15,8.3757e-05,0
124.15,6.7308e-05,0
124.15,4.6159e-05,0
124.15,1.7121e-05,0
124.15,-1.3596e-05,0
124.15,-4.683e-05,0
124.15,-0.00010037,0
124.15,-0.00020159,0
124.15,-0.00031841,0
124.15,-0.00037581,0
124.15,-0.00037078,0
124.15,-0.00037145,0
124.15,-0.00039344,0
124.15,-0.00034728,0
124.15,-0.0001749,0
124.15,3.7766e-05,0
124.15,0.00015593,0
124.15,0.00014116,0
124.15,4.2298e-05,0
124.16,-8.0064e-05,0
124.16,-0.00011699,0
124.16,-1.1749e-05,0
124.16,0.00015258,0
124.16,0.00023314,0
124.16,0.00018312,0
124.16,0.00010541,0
124.16,8.1743e-05,0
124.16,7.805e-05,0
124.16,4.7501e-05,0
124.16,-2.9541e-05,0
124.16,-0.00016466,0
124.16,-0.00027477,0
124.16,-0.00018631,0
124.16,8.4596e-05,0
124.16,0.00032412,0
124.16,0.00042013,0
124.16,0.00040536,0
124.16,0.00033016,0
124.17,0.00023549,0
124.17,0.00014939,0
124.17,8.8457e-05,0
124.17,7.2343e-05,0
124.17,9.9199e-05,0
124.17,0.00012874,0
124.17,0.00013478,0
124.17,0.0001227,0
124.17,9.7017e-05,0
124.17,6.3447e-05,0
124.17,3.2731e-05,0
124.17,2.1317e-05,0
124.17,1.1078e-05,0
124.17,-1.8463e-06,0
124.17,1.0407e-05,0
124.17,2.0813e-05,0
124.17,-3.6927e-06,0
124.17,-5.623e-05,0
124.17,-0.00013915,0
124.18,-0.00023415,0
124.18,-0.00028249,0
124.18,-0.00024892,0
124.18,-0.00015476,0
124.18,-5.388e-05,0
124.18,4.2298e-05,0
124.18,0.00013462,0
124.18,0.00017943,0
124.18,0.00013344,0
124.18,5.2537e-05,0
124.18,2.5513e-05,0
124.18,5.5055e-05,0
124.18,9.4499e-05,0
124.18,0.00012052,0
124.18,0.00010625,0
124.18,1.2757e-05,0
124.18,-0.00013126,0
124.18,-0.00022039,0
124.18,-0.00019957,0
124.18,-0.00011682,0
124.19,-4.5319e-05,0
124.19,7.5532e-06,0
124.19,7.3014e-05,0
124.19,0.00013881,0
124.19,0.00016802,0
124.19,0.00014754,0
124.19,9.5171e-05,0
124.19,6.4118e-05,0
124.19,7.5029e-05,0
124.19,9.3156e-05,0
124.19,8.6442e-05,0
124.19,6.3279e-05,0
124.19,4.9516e-05,0
124.19,5.2705e-05,0
124.19,6.009e-05,0
124.19,6.4958e-05,0
124.19,5.8579e-05,0
124.19,3.3234e-05,0
124.19,-6.2104e-06,0
124.2,-4.8173e-05,0
124.2,-8.7114e-05,0
124.2,-0.00012958,0
124.2,-0.00017305,0
124.2,-0.00020813,0
124.2,-0.00020427,0
124.2,-0.00015459,0
124.2,-0.00010188,0
124.2,-7.3014e-05,0
124.2,-8.4428e-05,0
124.2,-0.00012958,0
124.2,-0.00018128,0
124.2,-0.00017557,0
124.2,-8.896e-05,0
124.2,3.8773e-05,0
124.2,0.00016835,0
124.2,0.00026806,0
124.2,0.00031354,0
124.2,0.00030834,0
124.21,0.00028299,0
124.21,0.00025933,0
124.21,0.00022072,0
124.21,0.00014922,0
124.21,7.2343e-05,0
124.21,2.1653e-05,0
124.21,5.8747e-06,0
124.21,1.6785e-07,0
124.21,-5.0858e-05,0
124.21,-0.00016936,0
124.21,-0.00031086,0
124.21,-0.0003743,0
124.21,-0.00025731,0
124.21,-9.3996e-06,0
124.21,0.00019588,0
124.21,0.00025899,0
124.21,0.00021837,0
124.21,0.00015879,0
124.21,0.00010961,0
124.22,5.7908e-05,0
124.22,5.8747e-06,0
124.22,-3.5752e-05,0
124.22,-5.8747e-05,0
124.22,-5.4719e-05,0
124.22,-3.2395e-05,0
124.22,-3.0716e-05,0
124.22,-4.0284e-05,0
124.22,2.8367e-05,0
124.22,0.00018077,0
124.22,0.00030599,0
124.22,0.00033754,0
124.22,0.00031707,0
124.22,0.00030011,0
124.22,0.00028383,0
124.22,0.00025362,0
124.22,0.00020797,0
124.22,0.00015627,0
124.22,0.00010625,0
124.22,7.4357e-05,0
124.23,7.0665e-05,0
124.23,6.6804e-05,0
124.23,2.4338e-05,0
124.23,-7.5029e-05,0
124.23,-0.0001843,0
124.23,-0.0002501,0
124.23,-0.0002845,0
124.23,-0.00033754,0
124.23,-0.0004166,0
124.23,-0.00042885,0
124.23,-0.00030095,0
124.23,-8.5435e-05,0
124.23,0.00010541,0
124.23,0.00020024,0
124.23,0.00019857,0
124.23,0.00015358,0
124.23,0.00012572,0
124.23,0.00012572,0
124.23,0.00014015,0
124.24,0.00013814,0
124.24,9.7856e-05,0
124.24,6.6133e-05,0
124.24,0.00010004,0
124.24,0.00017037,0
124.24,0.00018312,0
124.24,7.6036e-05,0
124.24,-0.00012186,0
124.24,-0.00028266,0
124.24,-0.00030649,0
124.24,-0.00025345,0
124.24,-0.00022945,0
124.24,-0.00020612,0
124.24,-0.00013596,0
124.24,-6.1936e-05,0
124.24,-2.1988e-05,0
124.24,-9.5674e-06,0
124.24,-1.2924e-05,0
124.24,-2.3331e-05,0
124.25,-2.9709e-05,0
124.25,-2.4338e-05,0
124.25,-1.1749e-05,0
124.25,1.4939e-05,0
124.25,6.8986e-05,0
124.25,9.9702e-05,0
124.25,8.0735e-05,0
124.25,7.2007e-05,0
124.25,0.0001039,0
124.25,0.00013411,0
124.25,0.00011632,0
124.25,5.9586e-05,0
124.25,1.4099e-05,0
124.25,-2.8534e-06,0
124.25,-1.1749e-06,0
124.25,1.3931e-05,0
124.25,4.8173e-05,0
124.25,0.00010138,0
124.25,0.00015795,0
124.25,0.00020763,0
124.26,0.00024556,0
124.26,0.00025765,0
124.26,0.0002276,0
124.26,0.0001744,0
124.26,0.00013411,0
124.26,0.00013008,0
124.26,0.00014687,0
124.26,0.00013848,0
124.26,7.6875e-05,0
124.26,-2.2828e-05,0
124.26,-8.9464e-05,0
124.26,-7.4189e-05,0
124.26,8.0568e-06,0
124.26,0.00012035,0
124.26,0.00021535,0
124.26,0.00024959,0
124.26,0.00022475,0
124.26,0.00017641,0
124.26,0.00013545,0
124.27,0.00010457,0
124.27,6.4958e-05,0
124.27,6.8818e-06,0
124.27,-6.949e-05,0
124.27,-0.00016231,0
124.27,-0.00026487,0
124.27,-0.00034325,0
124.27,-0.00035567,0
124.27,-0.00030985,0
124.27,-0.00026218,0
124.27,-0.00022878,0
124.27,-0.00018816,0
124.27,-0.00014502,0
124.27,-0.00012068,0
124.27,-0.00010356,0
124.27,-7.3014e-05,0
124.27,-3.4409e-05,0
124.27,-3.8605e-06,0
124.27,9.2317e-06,0
124.28,2.0142e-06,0
124.28,-1.091e-05,0
124.28,-1.326e-05,0
124.28,2.5177e-06,0
124.28,2.1653e-05,0
124.28,1.9806e-05,0
124.28,1.796e-05,0
124.28,4.2802e-05,0
124.28,7.6371e-05,0
124.28,9.366e-05,0
124.28,9.6178e-05,0
124.28,0.00010172,0
124.28,0.00011044,0
124.28,9.6345e-05,0
124.28,5.1026e-05,0
124.28,1.4099e-05,0
124.28,2.1988e-05,0
124.28,6.1936e-05,0
124.28,8.661e-05,0
124.29,4.4144e-05,0
124.29,-4.7166e-05,0
124.29,-0.00012438,0
124.29,-0.00012337,0
124.29,-5.3544e-05,0
124.29,1.5946e-05,0
124.29,7.0665e-05,0
124.29,0.00012924,0
124.29,0.00017708,0
124.29,0.00017708,0
124.29,0.00013025,0
124.29,9.0135e-05,0
124.29,6.3783e-05,0
124.29,1.3092e-05,0
124.29,-4.5823e-05,0
124.29,-5.8915e-05,0
124.29,-3.8605e-05,0
124.29,-4.448e-05,0
124.29,-7.7882e-05,0
124.3,-6.3279e-05,0
124.3,2.8534e-05,0
124.3,0.00012438,0
124.3,0.00015425,0
124.3,0.00013277,0
124.3,0.00010994,0
124.3,0.00010776,0
124.3,0.00012169,0
124.3,0.000118,0
124.3,8.2414e-05,0
124.3,4.8173e-05,0
124.3,5.8579e-05,0
124.3,0.00011044,0
124.3,0.0001561,0
124.3,0.00015459,0
124.3,0.0001227,0
124.3,0.00010373,0
124.3,0.00010155,0
124.3,8.9464e-05,0
124.3,6.2943e-05,0
124.31,4.9516e-05,0
124.31,4.7501e-05,0
124.31,2.3331e-05,0
124.31,-2.8367e-05,0
124.31,-8.2918e-05,0
124.31,-0.00011884,0
124.31,-0.00014888,0
124.31,-0.00019504,0
124.31,-0.00023499,0
124.31,-0.00024053,0
124.31,-0.00023482,0
124.31,-0.00020629,0
124.31,-0.00013361,0
124.31,-3.2898e-05,0
124.31,5.623e-05,0
124.31,0.0001138,0
124.31,0.0001378,0
124.31,0.0001227,0
124.31,8.2414e-05,0
124.32,5.4719e-05,0
124.32,6.7308e-05,0
124.32,0.00010256,0
124.32,0.00011565,0
124.32,9.2149e-05,0
124.32,5.7908e-05,0
124.32,4.1627e-05,0
124.32,3.8773e-05,0
124.32,2.9038e-05,0
124.32,2.501e-05,0
124.32,3.6423e-05,0
124.32,3.0381e-05,0
124.32,-7.2175e-06,0
124.32,-3.9445e-05,0
124.32,-3.2731e-05,0
124.32,1.4267e-05,0
124.32,7.2343e-05,0
124.32,9.8527e-05,0
124.32,5.2537e-05,0
124.33,-5.1194e-05,0
124.33,-0.00012102,0
124.33,-8.9296e-05,0
124.33,-3.6927e-06,0
124.33,3.0045e-05,0
124.33,-1.5274e-05,0
124.33,-5.1865e-05,0
124.33,-2.6688e-05,0
124.33,1.1749e-06,0
124.33,-1.2589e-05,0
124.33,-2.3835e-05,0
124.33,-1.5106e-06,0
124.33,2.9374e-05,0
124.33,4.3137e-05,0
124.33,3.4745e-05,0
124.33,2.887e-05,0
124.33,5.1698e-05,0
124.33,6.7811e-05,0
124.33,3.4409e-05,0
124.33,-5.7572e-05,0
124.34,-0.00017205,0
124.34,-0.00023784,0
124.34,-0.00023465,0
124.34,-0.00021518,0
124.34,-0.00020175,0
124.34,-0.00013965,0
124.34,4.1459e-05,0
124.34,0.00028383,0
124.34,0.00043607,0
124.34,0.00044027,0
124.34,0.00035366,0
124.34,0.0002459,0
124.34,0.00015778,0
124.34,0.00010121,0
124.34,7.4693e-05,0
124.34,6.0761e-05,0
124.34,4.2466e-05,0
124.34,2.8031e-05,0
124.34,2.9374e-05,0
124.35,3.3402e-05,0
124.35,2.5849e-05,0
124.35,2.4506e-05,0
124.35,4.7837e-05,0
124.35,8.2078e-05,0
124.35,0.00010927,0
124.35,0.0001284,0
124.35,0.00014099,0
124.35,0.00014318,0
124.35,0.00013713,0
124.35,0.00013411,0
124.35,0.00014754,0
124.35,0.00017842,0
124.35,0.00019655,0
124.35,0.0001744,0
124.35,0.0001237,0
124.35,5.9251e-05,0
124.35,-1.796e-05,0
124.35,-7.7043e-05,0
124.36,-0.0001138,0
124.36,-0.00016349,0
124.36,-0.0002365,0
124.36,-0.00028786,0
124.36,-0.00028904,0
124.36,-0.00026453,0
124.36,-0.00022173,0
124.36,-0.00016399,0
124.36,-0.00011901,0
124.36,-0.00010961,0
124.36,-0.00012958,0
124.36,-0.00015711,0
124.36,-0.00016802,0
124.36,-0.00011917,0
124.36,2.6017e-05,0
124.36,0.00018044,0
124.36,0.00021468,0
124.36,0.00014049,0
124.36,8.04e-05,0
124.37,0.00011313,0
124.37,0.00020041,0
124.37,0.0002553,0
124.37,0.00023331,0
124.37,0.00017305,0
124.37,0.00013512,0
124.37,0.00011447,0
124.37,7.9057e-05,0
124.37,4.0116e-05,0
124.37,2.9206e-05,0
124.37,5.0019e-05,0
124.37,7.8721e-05,0
124.37,8.6946e-05,0
124.37,6.8315e-05,0
124.37,3.1891e-05,0
124.37,-5.539e-06,0
124.37,-5.8747e-06,0
124.37,3.3402e-05,0
124.37,4.4984e-05,0
124.38,-1.2757e-05,0
124.38,-0.0001091,0
124.38,-0.00018883,0
124.38,-0.00023264,0
124.38,-0.00024691,0
124.38,-0.00024707,0
124.38,-0.00025177,0
124.38,-0.00025513,0
124.38,-0.00021871,0
124.38,-0.00011246,0
124.38,3.7095e-05,0
124.38,0.00016046,0
124.38,0.00021434,0
124.38,0.0002172,0
124.38,0.00019471,0
124.38,0.00014855,0
124.38,8.3757e-05,0
124.38,1.8128e-05,0
124.38,-5.0187e-05,0
124.38,-0.00014838,0
124.39,-0.00026419,0
124.39,-0.0002892,0
124.39,-0.00016181,0
124.39,5.2873e-05,0
124.39,0.00022441,0
124.39,0.00027108,0
124.39,0.00021418,0
124.39,0.0001326,0
124.39,7.6371e-05,0
124.39,3.8773e-05,0
124.39,7.0497e-06,0
124.39,1.0575e-05,0
124.39,6.9657e-05,0
124.39,0.00014871,0
124.39,0.00020662,0
124.39,0.00023012,0
124.39,0.00022794,0
124.39,0.00022123,0
124.39,0.00020998,0
124.4,0.00018077,0
124.4,0.00013361,0
124.4,8.04e-05,0
124.4,3.2731e-05,0
124.4,-9.5674e-06,0
124.4,-5.4047e-05,0
124.4,-0.00011128,0
124.4,-0.00020226,0
124.4,-0.00029793,0
124.4,-0.00030549,0
124.4,-0.00017876,0
124.4,1.0407e-05,0
124.4,0.00014032,0
124.4,0.00016265,0
124.4,0.00012538,0
124.4,9.2988e-05,0
124.4,7.7043e-05,0
124.4,4.1794e-05,0
124.4,-2.7359e-05,0
124.41,-0.00011867,0
124.41,-0.00023717,0
124.41,-0.00032882,0
124.41,-0.00029374,0
124.41,-0.00012454,0
124.41,6.479e-05,0
124.41,0.00017121,0
124.41,0.00019118,0
124.41,0.00016097,0
124.41,0.00012085,0
124.41,0.0001133,0
124.41,0.00012874,0
124.41,0.00014116,0
124.41,0.00013948,0
124.41,0.00012136,0
124.41,0.00010793,0
124.41,0.0001086,0
124.41,0.00010642,0
124.41,0.00010994,0
124.42,0.00013898,0
124.42,0.0001697,0
124.42,0.00016365,0
124.42,0.00012068,0
124.42,7.3518e-05,0
124.42,4.5319e-05,0
124.42,3.6088e-05,0
124.42,2.9038e-05,0
124.42,1.6449e-05,0
124.42,7.5532e-06,0
124.42,1.6785e-07,0
124.42,-1.0407e-05,0
124.42,-3.0716e-05,0
124.42,-7.4861e-05,0
124.42,-0.00013562,0
124.42,-0.00018212,0
124.42,-0.000165,0
124.42,-6.7979e-05,0
124.42,2.9038e-05,0
124.42,4.8844e-05,0
124.43,2.8031e-05,0
124.43,3.2395e-05,0
124.43,4.1291e-05,0
124.43,-3.5248e-06,0
124.43,-0.00010558,0
124.43,-0.00022559,0
124.43,-0.00029189,0
124.43,-0.00023096,0
124.43,-8.04e-05,0
124.43,6.4286e-05,0
124.43,0.00015946,0
124.43,0.00018917,0
124.43,0.00015425,0
124.43,9.9535e-05,0
124.43,5.0355e-05,0
124.43,1.2924e-05,0
124.43,1.4603e-05,0
124.43,5.1865e-05,0
124.43,6.4958e-05,0
124.44,4.6159e-05,0
124.44,5.2201e-05,0
124.44,7.9225e-05,0
124.44,7.6036e-05,0
124.44,3.0549e-05,0
124.44,-6.8818e-06,0
124.44,8.7282e-06,0
124.44,5.5726e-05,0
124.44,8.51e-05,0
124.44,7.5029e-05,0
124.44,5.3208e-05,0
124.44,5.8579e-05,0
124.44,8.3085e-05,0
124.44,8.4428e-05,0
124.44,5.4215e-05,0
124.44,1.2421e-05,0
124.44,-3.0716e-05,0
124.44,-6.0761e-05,0
124.44,-5.8412e-05,0
124.45,-6.2104e-06,0
124.45,6.8482e-05,0
124.45,0.00011246,0
124.45,0.00011934,0
124.45,0.00010961,0
124.45,9.0471e-05,0
124.45,6.8986e-05,0
124.45,5.6733e-05,0
124.45,5.9419e-05,0
124.45,6.8986e-05,0
124.45,4.6326e-05,0
124.45,-1.9135e-05,0
124.45,-7.6036e-05,0
124.45,-8.2078e-05,0
124.45,-4.0787e-05,0
124.45,3.357e-06,0
124.45,-1.0407e-05,0
124.45,-0.00012068,0
124.45,-0.00027427,0
124.45,-0.00034157,0
124.46,-0.00031875,0
124.46,-0.00034459,0
124.46,-0.00044077,0
124.46,-0.00044228,0
124.46,-0.00022811,0
124.46,8.6946e-05,0
124.46,0.00028215,0
124.46,0.00029223,0
124.46,0.00020629,0
124.46,0.00012874,0
124.46,9.8192e-05,0
124.46,9.2653e-05,0
124.46,9.2317e-05,0
124.46,9.1142e-05,0
124.46,6.9993e-05,0
124.46,2.3667e-05,0
124.46,-3.2227e-05,0
124.46,-6.0761e-05,0
124.46,-8.3925e-07,0
124.47,0.0001368,0
124.47,0.00024422,0
124.47,0.00025429,0
124.47,0.00020662,0
124.47,0.00015375,0
124.47,0.00011514,0
124.47,9.0806e-05,0
124.47,7.7714e-05,0
124.47,7.5364e-05,0
124.47,7.4357e-05,0
124.47,6.2943e-05,0
124.47,6.3951e-05,0
124.47,0.00010289,0
124.47,0.00015157,0
124.47,0.00015761,0
124.47,0.00010994,0
124.47,4.2802e-05,0
124.47,-2.8199e-05,0
124.47,-9.366e-05,0
124.48,-0.00013126,0
124.48,-0.00017372,0
124.48,-0.0002365,0
124.48,-0.00020964,0
124.48,-6.0761e-05,0
124.48,8.51e-05,0
124.48,0.00012874,0
124.48,0.00011044,0
124.48,0.00011598,0
124.48,0.0001425,0
124.48,0.00010088,0
124.48,-4.0452e-05,0
124.48,-0.00019135,0
124.48,-0.00020981,0
124.48,-4.9851e-05,0
124.48,0.00015492,0
124.48,0.00022139,0
124.48,0.00013294,0
124.48,5.388e-05,0
124.49,7.5029e-05,0
124.49,0.00014284,0
124.49,0.0001895,0
124.49,0.0001895,0
124.49,0.00016634,0
124.49,0.00016298,0
124.49,0.00017842,0
124.49,0.00018648,0
124.49,0.0001556,0
124.49,6.8986e-05,0
124.49,-2.6017e-05,0
124.49,-5.6565e-05,0
124.49,-1.5106e-05,0
124.49,4.8844e-05,0
124.49,0.00010054,0
124.49,0.00014066,0
124.49,0.00015962,0
124.49,0.00014066,0
124.49,8.275e-05,0
124.49,1.9974e-05,0
124.5,-8.7282e-06,0
124.5,-1.9974e-05,0
124.5,-8.896e-06,0
124.5,3.978e-05,0
124.5,7.7546e-05,0
124.5,6.0258e-05,0
124.5,-3.5248e-06,0
124.5,-8.0735e-05,0
124.5,-0.00013848,0
124.5,-0.00016416,0
124.5,-0.00016265,0
124.5,-0.00014385,0
124.5,-0.00014401,0
124.5,-0.00020696,0
124.5,-0.0003258,0
124.5,-0.00042667,0
124.5,-0.00041543,0
124.5,-0.00027544,0
124.5,-0.00012303,0
124.51,-5.9586e-05,0
124.51,-6.7308e-05,0
124.51,-4.448e-05,0
124.51,3.8102e-05,0
124.51,9.0135e-05,0
124.51,9.2485e-05,0
124.51,0.00010726,0
124.51,0.00014015,0
124.51,0.00016399,0
124.51,0.00016567,0
124.51,0.00014351,0
124.51,9.5842e-05,0
124.51,4.0116e-05,0
124.51,-1.2924e-05,0
124.51,-5.7572e-05,0
124.51,-7.2007e-05,0
124.51,-6.8147e-05,0
124.51,-8.1743e-05,0
124.51,-8.8792e-05,0
124.52,-3.4073e-05,0
124.52,5.9922e-05,0
124.52,0.00010927,0
124.52,6.8818e-05,0
124.52,-1.1246e-05,0
124.52,-4.8508e-05,0
124.52,-2.5681e-05,0
124.52,1.1582e-05,0
124.52,2.9374e-05,0
124.52,3.5416e-05,0
124.52,4.7333e-05,0
124.52,6.9657e-05,0
124.52,8.9799e-05,0
124.52,9.7017e-05,0
124.52,9.1142e-05,0
124.52,7.8721e-05,0
124.52,6.4958e-05,0
124.52,5.2033e-05,0
124.52,5.0187e-05,0
124.53,6.949e-05,0
124.53,0.00010239,0
124.53,0.00011984,0
124.53,0.00010642,0
124.53,0.00010323,0
124.53,0.00014788,0
124.53,0.00019152,0
124.53,0.00017339,0
124.53,8.5771e-05,0
124.53,-4.2634e-05,0
124.53,-0.00015341,0
124.53,-0.00021619,0
124.53,-0.00027762,0
124.53,-0.00031875,0
124.53,-0.0002224,0
124.53,-2.6017e-05,0
124.53,0.00010927,0
124.53,0.00013747,0
124.53,0.00011431,0
124.53,8.7449e-05,0
124.54,5.623e-05,0
124.54,1.4435e-05,0
124.54,-2.2828e-05,0
124.54,-2.417e-05,0
124.54,6.2608e-05,0
124.54,0.0002219,0
124.54,0.0003503,0
124.54,0.00037313,0
124.54,0.00029693,0
124.54,0.00016701,0
124.54,3.8773e-05,0
124.54,-5.623e-05,0
124.54,-0.00010105,0
124.54,-4.3137e-05,0
124.54,9.2821e-05,0
124.54,0.0001801,0
124.54,0.00016181,0
124.54,9.8527e-05,0
124.54,4.8173e-05,0
124.55,1.4267e-05,0
124.55,6.2104e-06,0
124.55,4.2802e-05,0
124.55,9.7856e-05,0
124.55,0.00013646,0
124.55,0.00015106,0
124.55,0.00014083,0
124.55,0.00011565,0
124.55,9.987e-05,0
124.55,0.00010507,0
124.55,0.00011531,0
124.55,0.00010994,0
124.55,8.8121e-05,0
124.55,7.9393e-05,0
124.55,8.5771e-05,0
124.55,7.4022e-05,0
124.55,1.796e-05,0
124.55,-8.2078e-05,0
124.55,-0.00017288,0
124.56,-0.00019739,0
124.56,-0.00017675,0
124.56,-0.0001415,0
124.56,-0.00010944,0
124.56,-0.00010054,0
124.56,-0.00010642,0
124.56,-0.00011565,0
124.56,-0.00010289,0
124.56,-5.2033e-05,0
124.56,-1.2589e-05,0
124.56,-2.1988e-05,0
124.56,-6.2943e-05,0
124.56,-0.00013176,0
124.56,-0.00025765,0
124.56,-0.00041694,0
124.56,-0.00051563,0
124.56,-0.00045772,0
124.56,-0.00022458,0
124.56,7.57e-05,0
124.56,0.00027108,0
124.57,0.00030129,0
124.57,0.00021703,0
124.57,8.51e-05,0
124.57,-4.4144e-05,0
124.57,-0.00012236,0
124.57,-0.00011582,0
124.57,-5.3208e-05,0
124.57,1.0407e-05,0
124.57,5.069e-05,0
124.57,7.3014e-05,0
124.57,7.8386e-05,0
124.57,8.0232e-05,0
124.57,0.00010323,0
124.57,0.00013797,0
124.57,0.00015358,0
124.57,0.00015023,0
124.57,0.00014166,0
124.57,0.00012236,0
124.57,8.8457e-05,0
124.58,5.7237e-05,0
124.58,3.3738e-05,0
124.58,-5.0355e-07,0
124.58,-5.1865e-05,0
124.58,-0.00010474,0
124.58,-0.00012656,0
124.58,-7.3182e-05,0
124.58,3.592e-05,0
124.58,0.00014351,0
124.58,0.00020595,0
124.58,0.00020528,0
124.58,0.0001556,0
124.58,9.0135e-05,0
124.58,3.5416e-05,0
124.58,3.8605e-06,0
124.58,-9.9031e-06,0
124.58,-1.5274e-05,0
124.58,-1.7121e-05,0
124.58,-7.2175e-06,0
124.59,-1.561e-05,0
124.59,-6.4454e-05,0
124.59,-9.2988e-05,0
124.59,-4.1291e-05,0
124.59,9.5003e-05,0
124.59,0.00026352,0
124.59,0.00037548,0
124.59,0.00038488,0
124.59,0.00031522,0
124.59,0.00019504,0
124.59,3.3066e-05,0
124.59,-0.00014217,0
124.59,-0.0002412,0
124.59,-0.00018799,0
124.59,-2.8367e-05,0
124.59,0.00010625,0
124.59,0.00013747,0
124.59,8.9128e-05,0
124.59,2.031e-05,0
124.6,-3.3066e-05,0
124.6,-6.0761e-05,0
124.6,-5.7572e-05,0
124.6,-4.5655e-05,0
124.6,-3.5416e-05,0
124.6,-2.1317e-05,0
124.6,-9.9031e-06,0
124.6,-5.2033e-06,0
124.6,2.1317e-05,0
124.6,0.00010121,0
124.6,0.00019806,0
124.6,0.00025563,0
124.6,0.00025765,0
124.6,0.00022945,0
124.6,0.00020847,0
124.6,0.00020528,0
124.6,0.00018245,0
124.6,0.00010524,0
124.6,-1.1749e-05,0
124.61,-0.00012773,0
124.61,-0.00022257,0
124.61,-0.00028736,0
124.61,-0.00033687,0
124.61,-0.00037481,0
124.61,-0.00033217,0
124.61,-0.00015039,0
124.61,8.0232e-05,0
124.61,0.00020662,0
124.61,0.00017272,0
124.61,1.5274e-05,0
124.61,-0.00016365,0
124.61,-0.00024019,0
124.61,-0.00016533,0
124.61,-1.3596e-05,0
124.61,8.7282e-05,0
124.61,8.0064e-05,0
124.61,6.0426e-06,0
124.61,-4.683e-05,0
124.61,-3.1891e-05,0
124.62,2.1149e-05,0
124.62,5.539e-05,0
124.62,4.9516e-05,0
124.62,2.3331e-05,0
124.62,8.3925e-07,0
124.62,-4.1962e-06,0
124.62,1.8296e-05,0
124.62,5.4887e-05,0
124.62,6.9657e-05,0
124.62,4.7166e-05,0
124.62,2.2324e-05,0
124.62,3.8605e-05,0
124.62,8.3085e-05,0
124.62,0.00011246,0
124.62,0.00011397,0
124.62,9.4163e-05,0
124.62,6.7475e-05,0
124.62,4.8676e-05,0
124.62,3.9445e-05,0
124.63,3.4409e-05,0
124.63,2.1317e-05,0
124.63,-4.3641e-06,0
124.63,-2.1653e-05,0
124.63,-2.9206e-05,0
124.63,-4.9516e-05,0
124.63,-7.6036e-05,0
124.63,-7.7379e-05,0
124.63,-4.8508e-05,0
124.63,-2.031e-05,0
124.63,5.2033e-06,0
124.63,2.5513e-05,0
124.63,1.6617e-05,0
124.63,-7.5532e-06,0
124.63,-3.508e-05,0
124.63,-6.1601e-05,0
124.63,-0.00010256,0
124.63,-0.00016046,0
124.63,-0.00017272,0
124.64,-9.4163e-05,0
124.64,2.0142e-05,0
124.64,0.00014351,0
124.64,0.00029189,0
124.64,0.00041274,0
124.64,0.00043188,0
124.64,0.00035399,0
124.64,0.00024271,0
124.64,0.00012807,0
124.64,3.2059e-05,0
124.64,5.0355e-06,0
124.64,2.7863e-05,0
124.64,3.5416e-05,0
124.64,1.2253e-05,0
124.64,-2.2995e-05,0
124.64,-4.4816e-05,0
124.64,-4.6998e-05,0
124.64,-3.8605e-05,0
124.64,-2.2828e-05,0
124.64,8.5603e-06,0
124.65,5.3544e-05,0
124.65,8.4428e-05,0
124.65,7.7043e-05,0
124.65,3.8437e-05,0
124.65,-9.0639e-06,0
124.65,-3.0884e-05,0
124.65,-1.6785e-07,0
124.65,6.5293e-05,0
124.65,0.00010121,0
124.65,9.6345e-05,0
124.65,0.00011011,0
124.65,0.00014888,0
124.65,0.0001519,0
124.65,0.00010893,0
124.65,3.6088e-05,0
124.65,-7.2007e-05,0
124.65,-0.00019571,0
124.65,-0.00029558,0
124.65,-0.00035265,0
124.66,-0.00036625,0
124.66,-0.00033251,0
124.66,-0.00023482,0
124.66,-7.6036e-05,0
124.66,0.00010591,0
124.66,0.00025765,0
124.66,0.0003221,0
124.66,0.00028904,0
124.66,0.00020377,0
124.66,0.00011531,0
124.66,4.3305e-05,0
124.66,-1.091e-05,0
124.66,-4.0452e-05,0
124.66,-4.0955e-05,0
124.66,-2.1317e-05,0
124.66,2.8534e-06,0
124.66,1.8967e-05,0
124.66,3.3738e-05,0
124.66,6.4118e-05,0
124.67,0.00010994,0
124.67,0.00013948,0
124.67,0.00013848,0
124.67,0.00011783,0
124.67,8.8457e-05,0
124.67,5.2873e-05,0
124.67,1.0071e-06,0
124.67,-7.6539e-05,0
124.67,-0.00016399,0
124.67,-0.00020343,0
124.67,-0.00015392,0
124.67,-7.2343e-05,0
124.67,-1.796e-05,0
124.67,3.2059e-05,0
124.67,9.5171e-05,0
124.67,0.00013881,0
124.67,0.00014754,0
124.67,0.00014737,0
124.67,0.00015543,0
124.68,0.00017003,0
124.68,0.00018782,0
124.68,0.00020243,0
124.68,0.00019823,0
124.68,0.000165,0
124.68,0.00011095,0
124.68,5.0858e-05,0
124.68,-1.2253e-05,0
124.68,-8.0903e-05,0
124.68,-0.00013361,0
124.68,-0.00016567,0
124.68,-0.00021149,0
124.68,-0.00027359,0
124.68,-0.00028115,0
124.68,-0.00020998,0
124.68,-0.00014536,0
124.68,-0.00017037,0
124.68,-0.00025664,0
124.68,-0.00029508,0
124.69,-0.00023616,0
124.69,-0.00012824,0
124.69,-1.5946e-05,0
124.69,6.7308e-05,0
124.69,7.4357e-05,0
124.69,4.1794e-05,0
124.69,5.2537e-05,0
124.69,0.0001133,0
124.69,0.00016953,0
124.69,0.00021065,0
124.69,0.0002553,0
124.69,0.00027309,0
124.69,0.00027477,0
124.69,0.00028669,0
124.69,0.00026772,0
124.69,0.00019974,0
124.69,0.00013143,0
124.69,9.7185e-05,0
124.69,8.0568e-05,0
124.69,6.8818e-05,0
124.7,6.3951e-05,0
124.7,6.4286e-05,0
124.7,4.8508e-05,0
124.7,5.0355e-06,0
124.7,-3.4409e-05,0
124.7,-4.2298e-05,0
124.7,-3.0716e-05,0
124.7,-2.9877e-05,0
124.7,-5.9251e-05,0
124.7,-0.00010088,0
124.7,-0.0001237,0
124.7,-0.00011833,0
124.7,-9.6849e-05,0
124.7,-7.5364e-05,0
124.7,-5.4383e-05,0
124.7,-3.9109e-05,0
124.7,-2.2492e-05,0
124.7,8.896e-06,0
124.7,4.448e-05,0
124.71,5.9922e-05,0
124.71,5.0523e-05,0
124.71,2.9541e-05,0
124.71,1.3596e-05,0
124.71,8.5603e-06,0
124.71,7.8889e-06,0
124.71,7.5532e-06,0
124.71,8.5603e-06,0
124.71,1.0407e-05,0
124.71,1.0407e-05,0
124.71,1.2253e-05,0
124.71,1.2589e-05,0
124.71,-2.3331e-05,0
124.71,-9.7185e-05,0
124.71,-0.00013797,0
124.71,-9.2821e-05,0
124.71,5.2033e-06,0
124.71,8.04e-05,0
124.71,0.00010155,0
124.72,9.7856e-05,0
124.72,0.00010994,0
124.72,0.00011598,0
124.72,8.426e-05,0
124.72,3.3402e-05,0
124.72,2.6352e-05,0
124.72,0.00011934,0
124.72,0.00027678,0
124.72,0.00039394,0
124.72,0.00040804,0
124.72,0.00034275,0
124.72,0.00025899,0
124.72,0.00018816,0
124.72,0.00012203,0
124.72,4.918e-05,0
124.72,-2.4674e-05,0
124.72,-8.6107e-05,0
124.72,-0.00013193,0
124.72,-0.00018262,0
124.72,-0.00025194,0
124.73,-0.00028904,0
124.73,-0.00023096,0
124.73,-0.00010625,0
124.73,-1.3931e-05,0
124.73,-1.2924e-05,0
124.73,-8.1743e-05,0
124.73,-0.00010524,0
124.73,-2.6017e-05,0
124.73,6.5629e-05,0
124.73,7.9728e-05,0
124.73,2.0142e-05,0
124.73,-4.4648e-05,0
124.73,-4.8676e-05,0
124.73,1.9471e-05,0
124.73,0.00010591,0
124.73,0.000142,0
124.73,9.5506e-05,0
124.73,-3.0381e-05,0
124.73,-0.00016651,0
124.74,-0.00022811,0
124.74,-0.00019387,0
124.74,-0.00010927,0
124.74,-2.4338e-05,0
124.74,4.5487e-05,0
124.74,8.04e-05,0
124.74,8.51e-05,0
124.74,8.9464e-05,0
124.74,0.00011666,0
124.74,0.00015224,0
124.74,0.0001566,0
124.74,0.00012874,0
124.74,9.987e-05,0
124.74,8.9799e-05,0
124.74,0.00010037,0
124.74,0.00010893,0
124.74,9.9702e-05,0
124.74,8.51e-05,0
124.74,7.2007e-05,0
124.75,4.9348e-05,0
124.75,9.2317e-06,0
124.75,-3.8773e-05,0
124.75,-8.7114e-05,0
124.75,-0.00015425,0
124.75,-0.0002647,0
124.75,-0.00037464,0
124.75,-0.00038202,0
124.75,-0.00024556,0
124.75,-1.7624e-05,0
124.75,0.00020125,0
124.75,0.00030582,0
124.75,0.00027561,0
124.75,0.00018413,0
124.75,0.00010893,0
124.75,6.8315e-05,0
124.75,4.8676e-05,0
124.75,3.6088e-05,0
124.75,2.9877e-05,0
124.76,3.4073e-05,0
124.76,6.1265e-05,0
124.76,0.00010994,0
124.76,0.00014855,0
124.76,0.00015543,0
124.76,0.00014485,0
124.76,0.0001274,0
124.76,0.00010793,0
124.76,8.8457e-05,0
124.76,4.6494e-05,0
124.76,-1.561e-05,0
124.76,-7.4189e-05,0
124.76,-0.00012471,0
124.76,-0.00016432,0
124.76,-0.00019554,0
124.76,-0.00020427,0
124.76,-0.00016617,0
124.76,-8.2078e-05,0
124.76,2.5513e-05,0
124.76,0.00010793,0
124.77,0.0001368,0
124.77,0.00010927,0
124.77,4.4816e-05,0
124.77,1.2421e-05,0
124.77,3.7766e-05,0
124.77,7.7546e-05,0
124.77,9.4835e-05,0
124.77,9.3492e-05,0
124.77,9.7185e-05,0
124.77,0.00012505,0
124.77,0.00017104,0
124.77,0.00019319,0
124.77,0.00016835,0
124.77,0.00012203,0
124.77,7.5029e-05,0
124.77,1.326e-05,0
124.77,-7.1504e-05,0
124.77,-0.00018161,0
124.77,-0.00028467,0
124.78,-0.00025916,0
124.78,-7.2007e-05,0
124.78,0.00012303,0
124.78,0.00020394,0
124.78,0.0002083,0
124.78,0.00020092,0
124.78,0.00019487,0
124.78,0.00017272,0
124.78,0.00010793,0
124.78,1.2924e-05,0
124.78,-5.6062e-05,0
124.78,-7.1336e-05,0
124.78,-4.3473e-05,0
124.78,2.7359e-05,0
124.78,0.00011598,0
124.78,0.00017104,0
124.78,0.00015224,0
124.78,3.8102e-05,0
124.78,-0.00014737,0
124.79,-0.00032059,0
124.79,-0.00041442,0
124.79,-0.00041089,0
124.79,-0.00037044,0
124.79,-0.00034611,0
124.79,-0.00031606,0
124.79,-0.0002501,0
124.79,-0.00012169,0
124.79,5.4887e-05,0
124.79,0.00020763,0
124.79,0.00028148,0
124.79,0.00028551,0
124.79,0.00026134,0
124.79,0.00022609,0
124.79,0.00018144,0
124.79,0.0001415,0
124.79,0.00011867,0
124.79,0.00011028,0
124.79,0.00010826,0
124.8,0.00011095,0
124.8,0.00012169,0
124.8,0.00013059,0
124.8,0.00012673,0
124.8,0.00010843,0
124.8,7.3182e-05,0
124.8,1.9974e-05,0
124.8,-5.2033e-05,0
124.8,-0.00011833,0
124.8,-0.00012404,0
124.8,-5.6733e-05,0
124.8,2.0645e-05,0
124.8,4.0116e-05,0
124.8,-1.5106e-06,0
124.8,-4.7501e-05,0
124.8,-5.7069e-05,0
124.8,-3.508e-05,0
124.8,-1.2757e-05,0
124.8,5.0355e-07,0
124.8,1.7288e-05,0
124.81,2.3499e-05,0
124.81,-8.2246e-06,0
124.81,-4.3305e-05,0
124.81,-2.3331e-05,0
124.81,1.9135e-05,0
124.81,3.978e-05,0
124.81,4.7166e-05,0
124.81,3.0045e-05,0
124.81,-5.6565e-05,0
124.81,-0.00021334,0
124.81,-0.00037967,0
124.81,-0.0004683,0
124.81,-0.00041811,0
124.81,-0.00022106,0
124.81,7.6036e-05,0
124.81,0.00034997,0
124.81,0.00047753,0
124.81,0.00045068,0
124.81,0.00035869,0
124.82,0.00026671,0
124.82,0.00020108,0
124.82,0.0001744,0
124.82,0.00016584,0
124.82,0.00014267,0
124.82,0.00010222,0
124.82,7.0832e-05,0
124.82,7.4693e-05,0
124.82,0.00010188,0
124.82,0.00012068,0
124.82,0.00012253,0
124.82,0.00011867,0
124.82,0.00011263,0
124.82,0.00010121,0
124.82,8.4428e-05,0
124.82,6.7308e-05,0
124.82,5.1698e-05,0
124.82,2.5681e-05,0
124.82,-1.4435e-05,0
124.83,-5.3544e-05,0
124.83,-7.335e-05,0
124.83,-8.3589e-05,0
124.83,-9.7856e-05,0
124.83,-0.00010826,0
124.83,-0.00011028,0
124.83,-0.00010625,0
124.83,-9.2317e-05,0
124.83,-6.1097e-05,0
124.83,-1.8296e-05,0
124.83,4.1794e-05,0
124.83,9.752e-05,0
124.83,7.57e-05,0
124.83,-3.1388e-05,0
124.83,-8.9799e-05,0
124.83,-1.9974e-05,0
124.83,0.0001091,0
124.83,0.00021401,0
124.83,0.00023214,0
124.83,0.00013243,0
124.84,-8.896e-06,0
124.84,-9.8192e-05,0
124.84,-0.00014099,0
124.84,-0.00013797,0
124.84,-5.774e-05,0
124.84,5.8579e-05,0
124.84,0.00011649,0
124.84,7.9728e-05,0
124.84,-9.5674e-06,0
124.84,-8.426e-05,0
124.84,-0.00010692,0
124.84,-8.4428e-05,0
124.84,-5.5055e-05,0
124.84,-4.4144e-05,0
124.84,-4.6159e-05,0
124.84,-5.1698e-05,0
124.84,-5.4383e-05,0
124.84,-5.9419e-05,0
124.84,-6.6133e-05,0
124.85,-6.4286e-05,0
124.85,-5.0523e-05,0
124.85,-3.0549e-05,0
124.85,-1.2253e-05,0
124.85,-4.6998e-06,0
124.85,-4.1962e-06,0
124.85,1.2589e-05,0
124.85,5.4215e-05,0
124.85,8.9464e-05,0
124.85,9.6849e-05,0
124.85,9.7185e-05,0
124.85,0.00010726,0
124.85,0.00011078,0
124.85,8.275e-05,0
124.85,2.8031e-05,0
124.85,-2.8031e-05,0
124.85,-7.805e-05,0
124.85,-0.00010994,0
124.85,-0.00010121,0
124.86,-6.1265e-05,0
124.86,4.5319e-06,0
124.86,9.0974e-05,0
124.86,0.00014284,0
124.86,0.00010356,0
124.86,1.5106e-05,0
124.86,-4.1291e-05,0
124.86,-5.5055e-05,0
124.86,-5.0523e-05,0
124.86,-2.0645e-05,0
124.86,4.3641e-05,0
124.86,0.00013243,0
124.86,0.00019991,0
124.86,0.00018245,0
124.86,7.5029e-05,0
124.86,-2.1653e-05,0
124.86,-4.7837e-05,0
124.86,-4.6159e-05,0
124.86,-2.0645e-05,0
124.87,7.1336e-05,0
124.87,0.00018379,0
124.87,0.00022005,0
124.87,0.00016432,0
124.87,6.5965e-05,0
124.87,-1.5106e-06,0
124.87,1.4267e-05,0
124.87,8.4092e-05,0
124.87,0.0001462,0
124.87,0.00016953,0
124.87,0.0001613,0
124.87,0.00014553,0
124.87,0.0001368,0
124.87,0.0001279,0
124.87,0.00011363,0
124.87,9.2317e-05,0
124.87,6.7643e-05,0
124.87,4.3473e-05,0
124.87,2.3163e-05,0
124.88,5.0355e-06,0
124.88,-1.9806e-05,0
124.88,-3.9109e-05,0
124.88,-3.9109e-05,0
124.88,-2.8702e-05,0
124.88,-3.1388e-05,0
124.88,-5.2873e-05,0
124.88,-8.7449e-05,0
124.88,-0.00013109,0
124.88,-0.00017473,0
124.88,-0.00019974,0
124.88,-0.00016835,0
124.88,-8.275e-05,0
124.88,1.2085e-05,0
124.88,8.8289e-05,0
124.88,0.00013008,0
124.88,0.00013646,0
124.88,0.00010642,0
124.88,3.1388e-05,0
124.88,-7.5196e-05,0
124.89,-0.00017356,0
124.89,-0.00022979,0
124.89,-0.00019521,0
124.89,-6.0258e-05,0
124.89,9.3156e-05,0
124.89,0.00017758,0
124.89,0.00016365,0
124.89,8.9632e-05,0
124.89,1.7456e-05,0
124.89,-1.2589e-05,0
124.89,-7.8889e-06,0
124.89,2.3499e-06,0
124.89,3.8605e-06,0
124.89,8.3925e-07,0
124.89,6.5461e-06,0
124.89,1.8967e-05,0
124.89,2.6184e-05,0
124.89,3.2898e-05,0
124.89,4.9851e-05,0
124.9,7.3686e-05,0
124.9,9.6345e-05,0
124.9,0.00011078,0
124.9,0.00011531,0
124.9,0.00011431,0
124.9,0.00010524,0
124.9,7.1672e-05,0
124.9,8.0568e-06,0
124.9,-2.2492e-05,0
124.9,2.5177e-05,0
124.9,8.7617e-05,0
124.9,9.6178e-05,0
124.9,6.0426e-05,0
124.9,2.9206e-05,0
124.9,1.3596e-05,0
124.9,-9.5674e-06,0
124.9,-4.8508e-05,0
124.9,-9.3492e-05,0
124.9,-0.00012404,0
124.91,-0.00013898,0
124.91,-0.00017473,0
124.91,-0.00025731,0
124.91,-0.00032462,0
124.91,-0.00028971,0
124.91,-0.00013982,0
124.91,3.978e-05,0
124.91,0.00014687,0
124.91,0.00015979,0
124.91,0.00013663,0
124.91,0.00011464,0
124.91,8.4428e-05,0
124.91,4.4816e-05,0
124.91,5.2033e-06,0
124.91,-3.6759e-05,0
124.91,-8.5435e-05,0
124.91,-0.00014972,0
124.91,-0.00023835,0
124.91,-0.00031489,0
124.92,-0.00027494,0
124.92,-8.3757e-05,0
124.92,0.00017507,0
124.92,0.0003644,0
124.92,0.00041123,0
124.92,0.00035534,0
124.92,0.00027578,0
124.92,0.00021602,0
124.92,0.00018883,0
124.92,0.00018212,0
124.92,0.00017272,0
124.92,0.00014788,0
124.92,0.00011666,0
124.92,9.7353e-05,0
124.92,0.00010323,0
124.92,0.00012505,0
124.92,0.00012639,0
124.92,0.00010037,0
124.92,8.4428e-05,0
124.92,8.4428e-05,0
124.93,6.7643e-05,0
124.93,3.0549e-05,0
124.93,7.3854e-06,0
124.93,2.4338e-05,0
124.93,5.9419e-05,0
124.93,8.6442e-05,0
124.93,0.00010625,0
124.93,0.00013411,0
124.93,0.00015811,0
124.93,0.00013445,0
124.93,6.5126e-05,0
124.93,-2.8534e-06,0
124.93,-4.0116e-05,0
124.93,-5.4047e-05,0
124.93,-8.191e-05,0
124.93,-0.00016248,0
124.93,-0.00028031,0
124.93,-0.00033402,0
124.93,-0.00025647,0
124.94,-0.00012555,0
124.94,-3.2395e-05,0
124.94,2.6688e-05,0
124.94,8.04e-05,0
124.94,0.00011884,0
124.94,0.00011666,0
124.94,8.5435e-05,0
124.94,6.0929e-05,0
124.94,5.153e-05,0
124.94,3.6423e-05,0
124.94,-1.1582e-05,0
124.94,-8.2918e-05,0
124.94,-0.0001232,0
124.94,-6.6133e-05,0
124.94,4.2802e-05,0
124.94,9.2485e-05,0
124.94,5.9251e-05,0
124.94,0,0
124.94,-2.7695e-05,0
124.95,-2.2156e-05,0
124.95,-1.8296e-05,0
124.95,-3.7766e-05,0
124.95,-8.3085e-05,0
124.95,-0.00012975,0
124.95,-0.00014217,0
124.95,-9.1478e-05,0
124.95,-1.3931e-05,0
124.95,2.5345e-05,0
124.95,3.4745e-05,0
124.95,7.4357e-05,0
124.95,0.00014553,0
124.95,0.00019487,0
124.95,0.00020931,0
124.95,0.00020645,0
124.95,0.00019722,0
124.95,0.00018833,0
124.95,0.00017758,0
124.95,0.00015761,0
124.95,0.00012639,0
124.96,8.1575e-05,0
124.96,1.8631e-05,0
124.96,-6.5965e-05,0
124.96,-0.0001509,0
124.96,-0.00019403,0
124.96,-0.0001801,0
124.96,-0.00015174,0
124.96,-0.00014133,0
124.96,-0.00015845,0
124.96,-0.00021283,0
124.96,-0.00027041,0
124.96,-0.00025916,0
124.96,-0.00016298,0
124.96,-4.3137e-05,0
124.96,6.0929e-05,0
124.96,0.00013613,0
124.96,0.0001462,0
124.96,0.00010826,0
124.96,0.00010423,0
124.97,0.00016231,0
124.97,0.00023046,0
124.97,0.00026302,0
124.97,0.00025983,0
124.97,0.00024221,0
124.97,0.00022206,0
124.97,0.00019957,0
124.97,0.00018413,0
124.97,0.00015258,0
124.97,7.5532e-05,0
124.97,-4.3137e-05,0
124.97,-0.00019101,0
124.97,-0.00033083,0
124.97,-0.00041173,0
124.97,-0.00044044,0
124.97,-0.00044295,0
124.97,-0.00044228,0
124.97,-0.00041341,0
124.97,-0.00027947,0
124.98,-2.9374e-05,0
124.98,0.00023482,0
124.98,0.00040871,0
124.98,0.00046175,0
124.98,0.00040703,0
124.98,0.00029844,0
124.98,0.0002078,0
124.98,0.00016818,0
124.98,0.00016197,0
124.98,0.00015778,0
124.98,0.00013982,0
124.98,0.0001138,0
124.98,9.0806e-05,0
124.98,7.3014e-05,0
124.98,5.9419e-05,0
124.98,4.9348e-05,0
124.98,4.213e-05,0
124.98,3.7766e-05,0
124.98,3.5248e-05,0
124.99,3.2059e-05,0
124.99,2.5849e-05,0
124.99,1.326e-05,0
124.99,-4.3641e-06,0
124.99,-1.8296e-05,0
124.99,-3.3738e-05,0
124.99,-6.1936e-05,0
124.99,-8.0735e-05,0
124.99,-3.8102e-05,0
124.99,5.8244e-05,0
124.99,0.00014754,0
124.99,0.00019454,0
124.99,0.00020662,0
124.99,0.00019387,0
124.99,0.00016046,0
124.99,0.00011229,0
124.99,4.8173e-05,0
124.99,-3.2563e-05,0
124.99,-9.9199e-05,0
124.99,-0.00010877,0
125,-8.3085e-05,0
125,-6.2776e-05,0
125,-4.6662e-05,0
125,-3.8437e-05,0
125,-4.6159e-05,0
125,-5.4719e-05,0
125,-8.7282e-05,0
125,-0.0001989,0
125,-0.00036339,0
125,-0.00044514,0
125,-0.00035634,0
125,-0.00015308,0
125,1.8967e-05,0
125,9.5506e-05,0
125,0.00013646,0
125,0.00018212,0
125,0.00020981,0
125,0.00020562,0
125,0.00018245,0
125.01,0.00015996,0
125.01,0.00014166,0
125.01,0.00012471,0
125.01,0.00011666,0
125.01,0.00011766,0
125.01,0.00011699,0
125.01,0.00010826,0
125.01,9.5171e-05,0
125.01,7.7043e-05,0
125.01,5.2033e-05,0
125.01,2.5345e-05,0
125.01,9.5674e-06,0
125.01,4.0284e-06,0
125.01,-5.539e-06,0
125.01,-1.9638e-05,0
125.01,-2.5681e-05,0
125.01,-1.8128e-05,0
125.01,-6.714e-06,0
125.01,-1.7792e-05,0
125.02,-5.7404e-05,0
125.02,-8.9464e-05,0
125.02,-9.1478e-05,0
125.02,-5.4719e-05,0
125.02,6.714e-07,0
125.02,1.9974e-05,0
125.02,4.6998e-06,0
125.02,-2.182e-06,0
125.02,7.8889e-06,0
125.02,9.9031e-06,0
125.02,-1.4267e-05,0
125.02,-6.1936e-05,0
125.02,-0.00011733,0
125.02,-0.00016667,0
125.02,-0.00017305,0
125.02,-0.00014183,0
125.02,-9.8192e-05,0
125.02,-2.4338e-05,0
125.02,7.1336e-05,0
125.03,0.00015006,0
125.03,0.00018094,0
125.03,0.00017171,0
125.03,0.00014435,0
125.03,0.00010524,0
125.03,8.4428e-05,0
125.03,0.00012068,0
125.03,0.00020259,0
125.03,0.00026604,0
125.03,0.00025228,0
125.03,0.00017809,0
125.03,0.00010172,0
125.03,6.3111e-05,0
125.03,7.7714e-05,0
125.03,0.00011565,0
125.03,0.00011632,0
125.03,5.0523e-05,0
125.03,-2.8367e-05,0
125.03,-5.9251e-05,0
125.03,-6.0761e-05,0
125.04,-7.3014e-05,0
125.04,-9.0806e-05,0
125.04,-9.752e-05,0
125.04,-9.2988e-05,0
125.04,-8.6107e-05,0
125.04,-7.5868e-05,0
125.04,-6.4622e-05,0
125.04,-5.388e-05,0
125.04,-3.3066e-05,0
125.04,-5.0355e-07,0
125.04,3.7766e-05,0
125.04,7.9896e-05,0
125.04,0.00012186,0
125.04,0.0001603,0
125.04,0.00018161,0
125.04,0.00017708,0
125.04,0.00015694,0
125.04,0.00013008,0
125.04,0.00010121,0
125.05,7.3518e-05,0
125.05,5.0858e-05,0
125.05,3.9612e-05,0
125.05,2.0813e-05,0
125.05,-3.9277e-05,0
125.05,-0.00013193,0
125.05,-0.00019051,0
125.05,-0.00019672,0
125.05,-0.00019705,0
125.05,-0.00021367,0
125.05,-0.00023415,0
125.05,-0.00024019,0
125.05,-0.00020494,0
125.05,-0.00010843,0
125.05,2.6688e-05,0
125.05,0.00015291,0
125.05,0.00021518,0
125.05,0.00017339,0
125.05,6.8986e-05,0
125.06,-1.2924e-05,0
125.06,-2.266e-05,0
125.06,3.1052e-05,0
125.06,8.0735e-05,0
125.06,5.9419e-05,0
125.06,-2.7527e-05,0
125.06,-6.9993e-05,0
125.06,-4.8676e-06,0
125.06,9.5506e-05,0
125.06,0.00015828,0
125.06,0.00017876,0
125.06,0.00017675,0
125.06,0.00016902,0
125.06,0.00015627,0
125.06,0.00012706,0
125.06,9.0135e-05,0
125.06,4.9348e-05,0
125.06,7.8889e-06,0
125.06,-5.2033e-06,0
125.06,2.8031e-05,0
125.07,8.6275e-05,0
125.07,0.00011044,0
125.07,6.4286e-05,0
125.07,-3.357e-07,0
125.07,-4.3809e-05,0
125.07,-9.1478e-05,0
125.07,-0.00013982,0
125.07,-0.0001373,0
125.07,-8.3757e-05,0
125.07,-3.3234e-05,0
125.07,-1.091e-05,0
125.07,0,0
125.07,3.0381e-05,0
125.07,7.0497e-05,0
125.07,8.3757e-05,0
125.07,5.4887e-05,0
125.07,1.6785e-07,0
125.07,-4.5151e-05,0
125.07,-6.0929e-05,0
125.08,-5.7572e-05,0
125.08,-4.6998e-05,0
125.08,-1.9638e-05,0
125.08,1.8967e-05,0
125.08,8.896e-06,0
125.08,-6.5293e-05,0
125.08,-0.00011296,0
125.08,-5.0523e-05,0
125.08,0.00010188,0
125.08,0.00024674,0
125.08,0.00028148,0
125.08,0.00016584,0
125.08,-2.8534e-06,0
125.08,-6.8986e-05,0
125.08,-7.3854e-06,0
125.08,8.2918e-05,0
125.08,0.00013915,0
125.08,0.00015056,0
125.08,0.00013243,0
125.09,0.00012773,0
125.09,0.00014788,0
125.09,0.00015224,0
125.09,0.00012018,0
125.09,7.9728e-05,0
125.09,6.1097e-05,0
125.09,6.2943e-05,0
125.09,7.57e-05,0
125.09,9.7688e-05,0
125.09,0.00012874,0
125.09,0.00016298,0
125.09,0.00019017,0
125.09,0.00020092,0
125.09,0.00019319,0
125.09,0.00017305,0
125.09,0.00013344,0
125.09,7.0329e-05,0
125.09,-2.5177e-06,0
125.09,-7.335e-05,0
125.1,-0.00014687,0
125.1,-0.00022089,0
125.1,-0.0002845,0
125.1,-0.00032848,0
125.1,-0.00034661,0
125.1,-0.00034342,0
125.1,-0.00033201,0
125.1,-0.00032479,0
125.1,-0.00031136,0
125.1,-0.0002605,0
125.1,-0.00016399,0
125.1,-5.5558e-05,0
125.1,1.8967e-05,0
125.1,3.9109e-05,0
125.1,7.8889e-06,0
125.1,-4.0116e-05,0
125.1,-5.7069e-05,0
125.1,-3.4073e-05,0
125.1,-8.896e-06,0
125.11,-8.2246e-06,0
125.11,1.4435e-05,0
125.11,0.00011481,0
125.11,0.0002506,0
125.11,0.00032479,0
125.11,0.00030532,0
125.11,0.00024086,0
125.11,0.0001697,0
125.11,9.9535e-05,0
125.11,5.9251e-05,0
125.11,4.7166e-05,0
125.11,3.0381e-05,0
125.11,4.3473e-05,0
125.11,0.00010423,0
125.11,0.00014939,0
125.11,0.0001378,0
125.11,9.3324e-05,0
125.11,4.6494e-05,0
125.11,1.091e-05,0
125.11,-7.0497e-06,0
125.12,-1.1917e-05,0
125.12,-4.1291e-05,0
125.12,-0.00010759,0
125.12,-0.0001603,0
125.12,-0.00017037,0
125.12,-0.00015325,0
125.12,-0.00012757,0
125.12,-8.7785e-05,0
125.12,-3.3738e-05,0
125.12,1.8296e-05,0
125.12,4.8508e-05,0
125.12,2.5849e-05,0
125.12,-4.3137e-05,0
125.12,-9.0135e-05,0
125.12,-7.0161e-05,0
125.12,8.7282e-06,0
125.12,9.9702e-05,0
125.12,0.0001514,0
125.12,0.00017339,0
125.13,0.00021334,0
125.13,0.00026033,0
125.13,0.00025882,0
125.13,0.00021401,0
125.13,0.00017423,0
125.13,0.00014385,0
125.13,0.00010138,0
125.13,4.7501e-05,0
125.13,-4.6998e-06,0
125.13,-3.508e-05,0
125.13,-2.7863e-05,0
125.13,1.8631e-05,0
125.13,8.04e-05,0
125.13,0.00010977,0
125.13,8.8457e-05,0
125.13,5.4551e-05,0
125.13,4.2634e-05,0
125.13,3.592e-05,0
125.13,7.2175e-06,0
125.14,-3.0884e-05,0
125.14,-4.8844e-05,0
125.14,-4.7837e-05,0
125.14,-5.2705e-05,0
125.14,-8.2414e-05,0
125.14,-0.00014418,0
125.14,-0.00020998,0
125.14,-0.00023012,0
125.14,-0.00017943,0
125.14,-6.3279e-05,0
125.14,7.335e-05,0
125.14,0.00017087,0
125.14,0.00021166,0
125.14,0.00021669,0
125.14,0.00022072,0
125.14,0.00023516,0
125.14,0.00024691,0
125.14,0.00023801,0
125.14,0.00020494,0
125.14,0.000165,0
125.15,0.00012992,0
125.15,9.5674e-05,0
125.15,5.6062e-05,0
125.15,1.2421e-05,0
125.15,-3.2731e-05,0
125.15,-7.9561e-05,0
125.15,-0.00011196,0
125.15,-0.00011699,0
125.15,-0.00010524,0
125.15,-8.0064e-05,0
125.15,-4.4984e-05,0
125.15,-2.6856e-05,0
125.15,-4.1459e-05,0
125.15,-7.6707e-05,0
125.15,-0.00012639,0
125.15,-0.00019303,0
125.15,-0.00020948,0
125.15,-0.00012505,0
125.15,-1.5274e-05,0
125.16,4.0116e-05,0
125.16,4.9516e-05,0
125.16,4.8173e-05,0
125.16,3.9109e-05,0
125.16,2.1653e-05,0
125.16,1.6617e-05,0
125.16,3.0549e-05,0
125.16,5.5055e-05,0
125.16,8.1743e-05,0
125.16,0.00010105,0
125.16,0.00010037,0
125.16,7.3014e-05,0
125.16,2.4842e-05,0
125.16,-4.7837e-05,0
125.16,-0.00012102,0
125.16,-0.00014569,0
125.16,-0.00012236,0
125.16,-9.3828e-05,0
125.16,-9.7856e-05,0
125.17,-0.00011565,0
125.17,-9.6849e-05,0
125.17,-3.4241e-05,0
125.17,2.6017e-05,0
125.17,4.683e-05,0
125.17,4.4816e-05,0
125.17,5.0355e-05,0
125.17,6.3279e-05,0
125.17,6.7811e-05,0
125.17,5.7069e-05,0
125.17,1.5442e-05,0
125.17,-6.5293e-05,0
125.17,-0.00015979,0
125.17,-0.0002036,0
125.17,-0.00014318,0
125.17,-1.4267e-05,0
125.17,7.1839e-05,0
125.17,4.2466e-05,0
125.17,-7.2343e-05,0
125.18,-0.00015962,0
125.18,-0.00010239,0
125.18,9.0974e-05,0
125.18,0.00027376,0
125.18,0.00035198,0
125.18,0.0003456,0
125.18,0.00031623,0
125.18,0.00030599,0
125.18,0.000307,0
125.18,0.00027779,0
125.18,0.00020931,0
125.18,0.00014284,0
125.18,9.6849e-05,0
125.18,3.0716e-05,0
125.18,-9.836e-05,0
125.18,-0.00028182,0
125.18,-0.00040938,0
125.18,-0.00033855,0
125.18,-0.00013378,0
125.19,1.1582e-05,0
125.19,6.0761e-05,0
125.19,9.7185e-05,0
125.19,0.0001472,0
125.19,0.00017876,0
125.19,0.00018178,0
125.19,0.00017574,0
125.19,0.00017372,0
125.19,0.00017171,0
125.19,0.00015593,0
125.19,0.00012001,0
125.19,8.1743e-05,0
125.19,6.4286e-05,0
125.19,5.6062e-05,0
125.19,2.3331e-05,0
125.19,-1.1582e-05,0
125.19,1.8631e-05,0
125.19,8.9799e-05,0
125.19,0.0001284,0
125.19,0.00012438,0
125.2,0.00010776,0
125.2,8.7449e-05,0
125.2,5.3208e-05,0
125.2,1.4267e-05,0
125.2,5.2033e-06,0
125.2,2.4842e-05,0
125.2,5.0019e-05,0
125.2,6.0258e-05,0
125.2,4.448e-05,0
125.2,1.1246e-05,0
125.2,-2.1653e-05,0
125.2,-5.2705e-05,0
125.2,-9.1478e-05,0
125.2,-0.00013915,0
125.2,-0.00018061,0
125.2,-0.00021384,0
125.2,-0.00023885,0
125.2,-0.00022039,0
125.2,-0.00013814,0
125.21,-3.7095e-05,0
125.21,3.3066e-05,0
125.21,9.0806e-05,0
125.21,0.00015828,0
125.21,0.00018631,0
125.21,0.00013713,0
125.21,2.7359e-05,0
125.21,-9.2821e-05,0
125.21,-0.0001519,0
125.21,-0.00013982,0
125.21,-0.00012035,0
125.21,-0.00012673,0
125.21,-9.0806e-05,0
125.21,1.5106e-05,0
125.21,0.00010574,0
125.21,0.00012001,0
125.21,7.5364e-05,0
125.21,9.9031e-06,0
125.21,-4.9516e-05,0
125.22,-9.6513e-05,0
125.22,-0.00013864,0
125.22,-0.00018161,0
125.22,-0.0001942,0
125.22,-0.00013713,0
125.22,-3.4073e-05,0
125.22,5.3376e-05,0
125.22,9.3156e-05,0
125.22,0.00011565,0
125.22,0.0001608,0
125.22,0.00020125,0
125.22,0.00020729,0
125.22,0.00019168,0
125.22,0.0001744,0
125.22,0.00016063,0
125.22,0.00014754,0
125.22,0.00013008,0
125.22,0.00011061,0
125.22,8.0735e-05,0
125.22,2.6688e-05,0
125.23,-1.9303e-05,0
125.23,-1.3764e-05,0
125.23,3.5752e-05,0
125.23,9.1646e-05,0
125.23,0.00013243,0
125.23,0.00014838,0
125.23,0.00015006,0
125.23,0.0001556,0
125.23,0.00016466,0
125.23,0.00015526,0
125.23,9.5674e-05,0
125.23,-4.0284e-05,0
125.23,-0.00022206,0
125.23,-0.00034795,0
125.23,-0.00036541,0
125.23,-0.00031606,0
125.23,-0.0002041,0
125.23,-5.7404e-05,0
125.23,4.0116e-05,0
125.24,6.1936e-05,0
125.24,4.6494e-05,0
125.24,2.501e-05,0
125.24,8.7282e-06,0
125.24,-6.2104e-06,0
125.24,-1.6785e-05,0
125.24,-1.9303e-05,0
125.24,-1.5946e-05,0
125.24,-1.2757e-05,0
125.24,-1.4435e-05,0
125.24,-9.5674e-06,0
125.24,1.7288e-05,0
125.24,5.4719e-05,0
125.24,8.7114e-05,0
125.24,0.00010423,0
125.24,0.00010256,0
125.24,9.1646e-05,0
125.24,7.7379e-05,0
125.24,5.1194e-05,0
125.25,-1.4267e-05,0
125.25,-9.5003e-05,0
125.25,-0.00011867,0
125.25,-0.00010423,0
125.25,-7.6539e-05,0
125.25,-1.6785e-07,0
125.25,0.00011061,0
125.25,0.00017305,0
125.25,0.00015442,0
125.25,0.00010356,0
125.25,6.7643e-05,0
125.25,5.304e-05,0
125.25,4.7166e-05,0
125.25,3.9445e-05,0
125.25,2.9709e-05,0
125.25,2.5345e-05,0
125.25,3.1724e-05,0
125.25,3.9948e-05,0
125.25,3.3234e-05,0
125.26,-8.7282e-06,0
125.26,-4.7669e-05,0
125.26,1.2421e-05,0
125.26,0.00015459,0
125.26,0.00027208,0
125.26,0.00030431,0
125.26,0.00026554,0
125.26,0.00020192,0
125.26,0.00014267,0
125.26,8.3589e-05,0
125.26,2.1317e-05,0
125.26,-2.652e-05,0
125.26,-6.1265e-05,0
125.26,-0.00011095,0
125.26,-0.00017826,0
125.26,-0.00023046,0
125.26,-0.00020964,0
125.26,-9.752e-05,0
125.26,3.6088e-05,0
125.26,0.00012253,0
125.27,0.00014955,0
125.27,0.00012605,0
125.27,7.8889e-05,0
125.27,5.0858e-05,0
125.27,6.479e-05,0
125.27,0.00010138,0
125.27,0.00013277,0
125.27,0.0001514,0
125.27,0.00016332,0
125.27,0.00016365,0
125.27,0.00012941,0
125.27,5.2201e-05,0
125.27,-4.918e-05,0
125.27,-0.00014485,0
125.27,-0.00020024,0
125.27,-0.00019504,0
125.27,-0.00012572,0
125.27,-1.091e-05,0
125.27,9.0639e-05,0
125.28,0.00012941,0
125.28,9.7688e-05,0
125.28,3.2059e-05,0
125.28,-1.2924e-05,0
125.28,-2.7695e-05,0
125.28,-4.3473e-05,0
125.28,-7.3518e-05,0
125.28,-0.00010642,0
125.28,-0.0001237,0
125.28,-0.00011196,0
125.28,-7.1672e-05,0
125.28,-1.2253e-05,0
125.28,4.9851e-05,0
125.28,9.5842e-05,0
125.28,0.00011582,0
125.28,0.00010121,0
125.28,6.3951e-05,0
125.28,3.0716e-05,0
125.28,9.0639e-06,0
125.29,-1.5946e-05,0
125.29,-4.9516e-05,0
125.29,-8.9967e-05,0
125.29,-0.00013713,0
125.29,-0.00013495,0
125.29,-5.388e-05,0
125.29,3.6759e-05,0
125.29,5.3208e-05,0
125.29,-6.714e-07,0
125.29,-4.1123e-05,0
125.29,-3.3066e-05,0
125.29,-4.5319e-06,0
125.29,-5.2033e-06,0
125.29,-5.0019e-05,0
125.29,-0.00010407,0
125.29,-0.00014452,0
125.29,-0.00017792,0
125.29,-0.00016483,0
125.29,-8.2414e-05,0
125.3,1.2253e-05,0
125.3,6.1601e-05,0
125.3,6.9322e-05,0
125.3,6.6972e-05,0
125.3,7.4861e-05,0
125.3,8.8792e-05,0
125.3,9.9199e-05,0
125.3,0.00010843,0
125.3,0.00011699,0
125.3,0.00012773,0
125.3,0.00013898,0
125.3,0.00012807,0
125.3,8.2414e-05,0
125.3,1.2924e-05,0
125.3,-6.8315e-05,0
125.3,-0.0001425,0
125.3,-0.00018866,0
125.3,-0.00018144,0
125.3,-7.8218e-05,0
125.3,9.7856e-05,0
125.31,0.00026571,0
125.31,0.00036843,0
125.31,0.00038656,0
125.31,0.00034157,0
125.31,0.00027007,0
125.31,0.00020259,0
125.31,0.00014049,0
125.31,6.8986e-05,0
125.31,-1.091e-05,0
125.31,-8.7449e-05,0
125.31,-0.00014284,0
125.31,-0.00013579,0
125.31,-5.304e-05,0
125.31,4.9516e-05,0
125.31,0.00010423,0
125.31,8.9632e-05,0
125.31,3.0381e-05,0
125.31,-1.8967e-05,0
125.31,-2.182e-06,0
125.32,6.4958e-05,0
125.32,0.00011431,0
125.32,0.00012656,0
125.32,0.00011699,0
125.32,9.5674e-05,0
125.32,5.8579e-05,0
125.32,6.2104e-06,0
125.32,-6.479e-05,0
125.32,-0.00012102,0
125.32,-9.3492e-05,0
125.32,1.2253e-05,0
125.32,0.00011061,0
125.32,0.00014519,0
125.32,0.00013025,0
125.32,0.00010642,0
125.32,8.8792e-05,0
125.32,6.7643e-05,0
125.32,3.7934e-05,0
125.32,6.3783e-06,0
125.33,-1.7121e-05,0
125.33,-1.0407e-05,0
125.33,1.6953e-05,0
125.33,2.501e-05,0
125.33,8.896e-06,0
125.33,-3.8605e-06,0
125.33,-1.1246e-05,0
125.33,-2.9374e-05,0
125.33,-6.6636e-05,0
125.33,-0.00012119,0
125.33,-0.00014754,0
125.33,-0.00012387,0
125.33,-7.9728e-05,0
125.33,-3.3906e-05,0
125.33,4.1962e-06,0
125.33,3.2563e-05,0
125.33,5.2537e-05,0
125.33,6.4958e-05,0
125.33,7.7546e-05,0
125.33,9.1814e-05,0
125.34,0.00010054,0
125.34,9.4163e-05,0
125.34,6.865e-05,0
125.34,3.8773e-05,0
125.34,2.1653e-05,0
125.34,9.0639e-06,0
125.34,-1.091e-05,0
125.34,-2.887e-05,0
125.34,-3.6927e-05,0
125.34,-3.3234e-05,0
125.34,-1.9974e-05,0
125.34,-3.5248e-06,0
125.34,8.3925e-06,0
125.34,1.4603e-05,0
125.34,2.1149e-05,0
125.34,2.8367e-05,0
125.34,3.508e-05,0
125.34,2.7527e-05,0
125.34,-6.5461e-06,0
125.35,-6.7475e-05,0
125.35,-0.00016516,0
125.35,-0.00028518,0
125.35,-0.00037884,0
125.35,-0.00041492,0
125.35,-0.00037111,0
125.35,-0.00021871,0
125.35,7.5532e-06,0
125.35,0.00022005,0
125.35,0.00034594,0
125.35,0.0003597,0
125.35,0.00030297,0
125.35,0.000236,0
125.35,0.00017171,0
125.35,0.0001039,0
125.35,2.8031e-05,0
125.35,-3.6423e-05,0
125.35,-4.918e-05,0
125.35,-2.3331e-05,0
125.36,-2.887e-05,0
125.36,-0.00011347,0
125.36,-0.00020964,0
125.36,-0.00021216,0
125.36,-0.00012404,0
125.36,-7.0497e-06,0
125.36,9.5003e-05,0
125.36,0.00014418,0
125.36,0.00013008,0
125.36,8.3421e-05,0
125.36,2.1317e-05,0
125.36,-3.5416e-05,0
125.36,-2.9709e-05,0
125.36,5.8915e-05,0
125.36,0.0001707,0
125.36,0.00021938,0
125.36,0.0001937,0
125.36,0.00015207,0
125.36,0.00012605,0
125.37,0.00010054,0
125.37,6.865e-05,0
125.37,4.0955e-05,0
125.37,2.3499e-05,0
125.37,1.561e-05,0
125.37,2.0981e-05,0
125.37,3.8773e-05,0
125.37,7.9057e-05,0
125.37,0.00014217,0
125.37,0.00019152,0
125.37,0.00019571,0
125.37,0.00014989,0
125.37,7.1336e-05,0
125.37,-3.122e-05,0
125.37,-0.00015123,0
125.37,-0.00025396,0
125.37,-0.00028769,0
125.37,-0.00019722,0
125.37,2.9038e-05,0
125.38,0.0002741,0
125.38,0.00038421,0
125.38,0.00033939,0
125.38,0.00024623,0
125.38,0.00017876,0
125.38,0.00012773,0
125.38,7.5029e-05,0
125.38,2.4674e-05,0
125.38,-1.326e-05,0
125.38,-3.5752e-05,0
125.38,-5.388e-05,0
125.38,-8.5771e-05,0
125.38,-0.00013864,0
125.38,-0.00019001,0
125.38,-0.00018782,0
125.38,-0.00012522,0
125.38,-5.3208e-05,0
125.38,-7.2175e-06,0
125.38,1.1749e-05,0
125.38,1.1582e-05,0
125.39,1.4435e-05,0
125.39,3.2059e-05,0
125.39,5.1865e-05,0
125.39,6.2104e-05,0
125.39,6.949e-05,0
125.39,8.3757e-05,0
125.39,0.00010071,0
125.39,0.00010625,0
125.39,9.4499e-05,0
125.39,7.3686e-05,0
125.39,5.8915e-05,0
125.39,5.8076e-05,0
125.39,7.2175e-05,0
125.39,9.7353e-05,0
125.39,0.00011833,0
125.39,0.00011934,0
125.39,9.0303e-05,0
125.39,3.6927e-05,0
125.39,-2.1653e-05,0
125.4,-7.1839e-05,0
125.4,-0.00010373,0
125.4,-0.0001039,0
125.4,-8.3925e-05,0
125.4,-6.8986e-05,0
125.4,-7.5532e-05,0
125.4,-9.9535e-05,0
125.4,-0.0001274,0
125.4,-0.0001331,0
125.4,-9.7185e-05,0
125.4,-4.6662e-05,0
125.4,-2.0478e-05,0
125.4,-3.0716e-05,0
125.4,-6.865e-05,0
125.4,-0.00010893,0
125.4,-0.00011632,0
125.4,-8.8121e-05,0
125.4,-7.335e-05,0
125.4,-9.9031e-05,0
125.41,-0.00010877,0
125.41,-7.0665e-05,0
125.41,-2.2995e-05,0
125.41,-8.896e-06,0
125.41,-1.7624e-05,0
125.41,1.3596e-05,0
125.41,0.00010826,0
125.41,0.00021837,0
125.41,0.00024741,0
125.41,0.00015811,0
125.41,2.8031e-05,0
125.41,-3.2731e-05,0
125.41,7.8889e-06,0
125.41,7.8721e-05,0
125.41,0.0001086,0
125.41,9.366e-05,0
125.41,5.7069e-05,0
125.41,1.5442e-05,0
125.41,-2.7024e-05,0
125.42,-5.6733e-05,0
125.42,-4.7837e-05,0
125.42,8.896e-06,0
125.42,7.0832e-05,0
125.42,8.8457e-05,0
125.42,6.7979e-05,0
125.42,3.7095e-05,0
125.42,7.8889e-06,0
125.42,-2.0813e-05,0
125.42,-5.3376e-05,0
125.42,-8.7785e-05,0
125.42,-9.8192e-05,0
125.42,-4.4144e-05,0
125.42,6.9657e-05,0
125.42,0.00016617,0
125.42,0.00018128,0
125.42,0.00015425,0
125.42,0.00014737,0
125.42,0.00016097,0
125.42,0.000165,0
125.43,0.00015023,0
125.43,0.00012605,0
125.43,0.00010692,0
125.43,9.6513e-05,0
125.43,9.2821e-05,0
125.43,9.2485e-05,0
125.43,9.7185e-05,0
125.43,9.8527e-05,0
125.43,7.9561e-05,0
125.43,3.3738e-05,0
125.43,-2.6017e-05,0
125.43,-8.2078e-05,0
125.43,-0.00013495,0
125.43,-0.00021082,0
125.43,-0.00031069,0
125.43,-0.00037682,0
125.43,-0.00035584,0
125.43,-0.00021653,0
125.43,6.8818e-06,0
125.44,0.00019538,0
125.44,0.00029558,0
125.44,0.00032311,0
125.44,0.00029122,0
125.44,0.00022811,0
125.44,0.00017305,0
125.44,0.00014284,0
125.44,0.00012303,0
125.44,9.9031e-05,0
125.44,7.9057e-05,0
125.44,6.8315e-05,0
125.44,5.1362e-05,0
125.44,2.4002e-05,0
125.44,4.1962e-06,0
125.44,-6.714e-06,0
125.44,-2.2492e-05,0
125.44,-3.508e-05,0
125.44,-5.5222e-05,0
125.44,-0.00010961,0
125.45,-0.00014183,0
125.45,-6.9993e-05,0
125.45,4.8676e-05,0
125.45,0.00010994,0
125.45,0.00011229,0
125.45,0.00012136,0
125.45,0.00016802,0
125.45,0.00021736,0
125.45,0.00023331,0
125.45,0.00020729,0
125.45,0.00015023,0
125.45,8.275e-05,0
125.45,2.8199e-05,0
125.45,-3.1891e-06,0
125.45,-1.1582e-05,0
125.45,1.8463e-06,0
125.45,4.1962e-05,0
125.45,9.366e-05,0
125.45,0.00012605,0
125.45,0.00013394,0
125.46,0.00012874,0
125.46,0.00011716,0
125.46,0.00010591,0
125.46,9.6513e-05,0
125.46,8.2078e-05,0
125.46,5.623e-05,0
125.46,1.0071e-05,0
125.46,-6.6636e-05,0
125.46,-0.00017003,0
125.46,-0.00026705,0
125.46,-0.00032663,0
125.46,-0.0003555,0
125.46,-0.00038723,0
125.46,-0.00042667,0
125.46,-0.00043389,0
125.46,-0.00038807,0
125.46,-0.00030918,0
125.46,-0.00023885,0
125.46,-0.000213,0
125.47,-0.00022643,0
125.47,-0.00022223,0
125.47,-0.00017288,0
125.47,-0.00010188,0
125.47,-1.3596e-05,0
125.47,9.0471e-05,0
125.47,0.00017154,0
125.47,0.00019857,0
125.47,0.00018044,0
125.47,0.00016818,0
125.47,0.0001942,0
125.47,0.00024321,0
125.47,0.00028232,0
125.47,0.00029625,0
125.47,0.00028719,0
125.47,0.00026033,0
125.47,0.00022206,0
125.47,0.00014687,0
125.47,2.1988e-05,0
125.48,-8.6946e-05,0
125.48,-9.5338e-05,0
125.48,-1.1246e-05,0
125.48,8.1071e-05,0
125.48,0.0001227,0
125.48,0.00012203,0
125.48,9.4499e-05,0
125.48,5.388e-05,0
125.48,3.3066e-05,0
125.48,3.4745e-05,0
125.48,3.2563e-05,0
125.48,2.4674e-05,0
125.48,1.4603e-05,0
125.48,-9.5674e-06,0
125.48,-4.8508e-05,0
125.48,-8.8792e-05,0
125.48,-0.00011682,0
125.48,-0.00013915,0
125.48,-0.00013831,0
125.49,-9.4163e-05,0
125.49,-2.2995e-05,0
125.49,5.2537e-05,0
125.49,0.00010961,0
125.49,0.00013814,0
125.49,0.00014989,0
125.49,0.00015291,0
125.49,0.00013445,0
125.49,0.00010054,0
125.49,8.4764e-05,0
125.49,9.9199e-05,0
125.49,0.00011901,0
125.49,0.00011934,0
125.49,9.7017e-05,0
125.49,6.0929e-05,0
125.49,1.561e-05,0
125.49,-2.2324e-05,0
125.49,-3.2395e-05,0
125.49,-3.9109e-05,0
125.5,-7.7043e-05,0
125.5,-0.00014888,0
125.5,-0.000213,0
125.5,-0.00019588,0
125.5,-7.805e-05,0
125.5,5.5894e-05,0
125.5,0.00011884,0
125.5,0.00014015,0
125.5,0.00018312,0
125.5,0.00023146,0
125.5,0.00025026,0
125.5,0.00022341,0
125.5,0.00014183,0
125.5,8.3925e-07,0
125.5,-0.00017675,0
125.5,-0.00029306,0
125.5,-0.00022106,0
125.5,8.3925e-07,0
125.5,0.00018463,0
125.5,0.00023532,0
125.51,0.00019789,0
125.51,0.00015694,0
125.51,0.00014485,0
125.51,0.00014015,0
125.51,0.00012807,0
125.51,0.00011716,0
125.51,0.00012471,0
125.51,0.00014821,0
125.51,0.00016567,0
125.51,0.00015979,0
125.51,0.00013193,0
125.51,9.8192e-05,0
125.51,7.3518e-05,0
125.51,5.2873e-05,0
125.51,2.2156e-05,0
125.51,-2.6688e-05,0
125.51,-7.8721e-05,0
125.51,-0.0001086,0
125.51,-0.00012572,0
125.52,-0.00012152,0
125.52,-7.5868e-05,0
125.52,-5.0355e-06,0
125.52,5.3544e-05,0
125.52,6.7308e-05,0
125.52,2.0813e-05,0
125.52,-7.1e-05,0
125.52,-0.00017876,0
125.52,-0.0002553,0
125.52,-0.00025765,0
125.52,-0.00018379,0
125.52,-9.7017e-05,0
125.52,-6.1936e-05,0
125.52,-6.865e-05,0
125.52,-6.2608e-05,0
125.52,-2.5681e-05,0
125.52,1.6281e-05,0
125.52,4.3305e-05,0
125.52,6.2943e-05,0
125.53,7.9057e-05,0
125.53,0.00010289,0
125.53,0.00014351,0
125.53,0.00017389,0
125.53,0.00014267,0
125.53,5.5558e-05,0
125.53,-1.2924e-05,0
125.53,-4.3977e-05,0
125.53,-8.1071e-05,0
125.53,-0.00012924,0
125.53,-0.00015811,0
125.53,-0.00016818,0
125.53,-0.00018614,0
125.53,-0.00020528,0
125.53,-0.00019857,0
125.53,-0.00016164,0
125.53,-0.00011749,0
125.53,-8.7953e-05,0
125.53,-7.3854e-05,0
125.53,-5.5558e-05,0
125.54,-2.2492e-05,0
125.54,2.5345e-05,0
125.54,8.9799e-05,0
125.54,0.0001514,0
125.54,0.00018044,0
125.54,0.00016634,0
125.54,0.000118,0
125.54,6.2104e-05,0
125.54,2.4506e-05,0
125.54,2.4002e-05,0
125.54,5.4887e-05,0
125.54,8.2078e-05,0
125.54,8.6778e-05,0
125.54,7.9057e-05,0
125.54,6.3615e-05,0
125.54,3.8773e-05,0
125.54,5.0355e-06,0
125.54,-2.3667e-05,0
125.54,-1.8631e-05,0
125.55,8.7282e-06,0
125.55,7.5532e-06,0
125.55,-2.7695e-05,0
125.55,-2.6184e-05,0
125.55,3.2898e-05,0
125.55,9.6513e-05,0
125.55,0.00013042,0
125.55,0.00013613,0
125.55,0.00011833,0
125.55,7.3182e-05,0
125.55,1.796e-05,0
125.55,-1.7624e-05,0
125.55,-3.6759e-05,0
125.55,-3.7263e-05,0
125.55,-7.5532e-06,0
125.55,2.6688e-05,0
125.55,6.0258e-05,0
125.55,9.2821e-05,0
125.55,6.8315e-05,0
125.56,-4.1962e-06,0
125.56,-2.1653e-05,0
125.56,7.7043e-05,0
125.56,0.00021602,0
125.56,0.00030398,0
125.56,0.00032479,0
125.56,0.00029928,0
125.56,0.00023885,0
125.56,0.00015711,0
125.56,8.6442e-05,0
125.56,4.918e-05,0
125.56,4.3473e-05,0
125.56,5.6062e-05,0
125.56,6.6972e-05,0
125.56,6.3111e-05,0
125.56,4.7669e-05,0
125.56,3.3402e-05,0
125.56,2.8031e-05,0
125.56,3.1556e-05,0
125.57,3.8102e-05,0
125.57,4.2466e-05,0
125.57,4.4144e-05,0
125.57,4.3809e-05,0
125.57,4.1291e-05,0
125.57,3.9109e-05,0
125.57,4.5487e-05,0
125.57,6.3447e-05,0
125.57,7.9393e-05,0
125.57,8.2582e-05,0
125.57,7.1839e-05,0
125.57,5.6397e-05,0
125.57,4.9012e-05,0
125.57,5.1194e-05,0
125.57,4.0284e-05,0
125.57,9.5674e-06,0
125.57,-2.1653e-05,0
125.57,-5.0187e-05,0
125.57,-6.5461e-05,0
125.57,-5.7237e-05,0
125.58,-3.7095e-05,0
125.58,-3.6927e-05,0
125.58,-8.1071e-05,0
125.58,-0.00015106,0
125.58,-0.0002041,0
125.58,-0.00022559,0
125.58,-0.00023734,0
125.58,-0.00021636,0
125.58,-0.0001368,0
125.58,-4.3473e-05,0
125.58,3.1388e-05,0
125.58,7.5029e-05,0
125.58,8.5771e-05,0
125.58,7.2343e-05,0
125.58,4.8173e-05,0
125.58,1.9303e-05,0
125.58,-1.7792e-05,0
125.58,-5.8915e-05,0
125.58,-9.1646e-05,0
125.59,-0.00010155,0
125.59,-8.9296e-05,0
125.59,-7.1672e-05,0
125.59,-6.1936e-05,0
125.59,-6.1601e-05,0
125.59,-6.0594e-05,0
125.59,-5.4047e-05,0
125.59,-5.0858e-05,0
125.59,-4.7837e-05,0
125.59,-2.3163e-05,0
125.59,2.6688e-05,0
125.59,8.3421e-05,0
125.59,0.00012639,0
125.59,0.00016281,0
125.59,0.00019319,0
125.59,0.00019722,0
125.59,0.00016886,0
125.59,0.00012874,0
125.59,9.1142e-05,0
125.6,5.153e-05,0
125.6,5.8747e-06,0
125.6,-4.8844e-05,0
125.6,-0.00011749,0
125.6,-0.00017372,0
125.6,-0.00018363,0
125.6,-0.00015442,0
125.6,-0.00011296,0
125.6,-7.9393e-05,0
125.6,-5.7404e-05,0
125.6,-2.7695e-05,0
125.6,1.2924e-05,0
125.6,2.9877e-05,0
125.6,2.5177e-06,0
125.6,-6.0258e-05,0
125.6,-0.00013982,0
125.6,-0.0001994,0
125.6,-0.00017993,0
125.6,-6.1433e-05,0
125.61,0.00010071,0
125.61,0.00020964,0
125.61,0.00019387,0
125.61,7.7714e-05,0
125.61,-1.2253e-05,0
125.61,2.3163e-05,0
125.61,0.00014485,0
125.61,0.00025228,0
125.61,0.0002835,0
125.61,0.00024959,0
125.61,0.00020327,0
125.61,0.00017507,0
125.61,0.00016751,0
125.61,0.00017658,0
125.61,0.00018077,0
125.61,0.00016852,0
125.61,0.00015425,0
125.61,0.00014183,0
125.61,0.0001279,0
125.61,0.00011095,0
125.62,7.8721e-05,0
125.62,4.4816e-05,0
125.62,3.4073e-05,0
125.62,3.3234e-05,0
125.62,-5.0355e-07,0
125.62,-6.0426e-05,0
125.62,-0.00010121,0
125.62,-0.00010776,0
125.62,-7.1839e-05,0
125.62,-1.4939e-05,0
125.62,1.5274e-05,0
125.62,1.9135e-05,0
125.62,4.5319e-06,0
125.62,-2.7024e-05,0
125.62,-5.2033e-05,0
125.62,-6.6972e-05,0
125.62,-9.0639e-05,0
125.62,-0.00010558,0
125.62,-9.0471e-05,0
125.63,-5.0187e-05,0
125.63,1.5106e-06,0
125.63,7.7379e-05,0
125.63,0.00015761,0
125.63,0.00021099,0
125.63,0.00024254,0
125.63,0.00026889,0
125.63,0.0003033,0
125.63,0.00034694,0
125.63,0.00035702,0
125.63,0.00029961,0
125.63,0.0001848,0
125.63,4.3977e-05,0
125.63,-0.00010054,0
125.63,-0.00023801,0
125.63,-0.00034308,0
125.63,-0.00038723,0
125.63,-0.00035937,0
125.63,-0.00023214,0
125.64,-1.1582e-05,0
125.64,0.00019504,0
125.64,0.0002798,0
125.64,0.00025026,0
125.64,0.00018111,0
125.64,0.00012605,0
125.64,9.3492e-05,0
125.64,6.4286e-05,0
125.64,1.8631e-05,0
125.64,-3.743e-05,0
125.64,-8.9296e-05,0
125.64,-0.0001368,0
125.64,-0.00017607,0
125.64,-0.00019353,0
125.64,-0.00018279,0
125.64,-0.00015341,0
125.64,-0.00012102,0
125.64,-9.3828e-05,0
125.64,-7.1504e-05,0
125.64,-5.3712e-05,0
125.65,-4.1123e-05,0
125.65,-3.0381e-05,0
125.65,-1.8128e-05,0
125.65,-6.3783e-06,0
125.65,-6.8818e-06,0
125.65,-1.4099e-05,0
125.65,0,0
125.65,4.8005e-05,0
125.65,0.00010289,0
125.65,0.0001274,0
125.65,0.00011666,0
125.65,8.04e-05,0
125.65,3.743e-05,0
125.65,3.0213e-05,0
125.65,7.0832e-05,0
125.65,0.00012119,0
125.65,0.00014217,0
125.65,0.00014133,0
125.65,0.00013143,0
125.66,0.00010591,0
125.66,7.0665e-05,0
125.66,3.6423e-05,0
125.66,-7.8889e-06,0
125.66,-0.00010054,0
125.66,-0.0002177,0
125.66,-0.00026336,0
125.66,-0.00023549,0
125.66,-0.00020024,0
125.66,-0.00017188,0
125.66,-0.00014737,0
125.66,-0.00013613,0
125.66,-0.00012975,0
125.66,-0.0001138,0
125.66,-8.2582e-05,0
125.66,-3.8941e-05,0
125.66,6.3783e-06,0
125.66,4.2802e-05,0
125.66,5.7572e-05,0
125.67,5.623e-05,0
125.67,5.4887e-05,0
125.67,6.7979e-05,0
125.67,8.8457e-05,0
125.67,0.00010054,0
125.67,0.0001034,0
125.67,8.275e-05,0
125.67,2.1988e-05,0
125.67,-8.4764e-05,0
125.67,-0.00020797,0
125.67,-0.00029239,0
125.67,-0.00029088,0
125.67,-0.0001942,0
125.67,-3.9445e-05,0
125.67,0.00016298,0
125.67,0.00035567,0
125.67,0.00045,0
125.67,0.0004255,0
125.67,0.0003409,0
125.68,0.00025379,0
125.68,0.0001744,0
125.68,0.00010121,0
125.68,5.5558e-05,0
125.68,4.2802e-05,0
125.68,7.2007e-05,0
125.68,0.0001326,0
125.68,0.00018581,0
125.68,0.00020058,0
125.68,0.00017574,0
125.68,0.00014015,0
125.68,0.00011699,0
125.68,8.8289e-05,0
125.68,5.6901e-05,0
125.68,4.2802e-05,0
125.68,4.8508e-05,0
125.68,7.2007e-05,0
125.68,0.00010054,0
125.68,0.00011246,0
125.69,0.00010541,0
125.69,9.3156e-05,0
125.69,7.2343e-05,0
125.69,2.8702e-05,0
125.69,-3.8102e-05,0
125.69,-0.00011833,0
125.69,-0.00016399,0
125.69,-0.00013982,0
125.69,-6.4958e-05,0
125.69,2.8534e-06,0
125.69,1.0575e-05,0
125.69,-2.182e-06,0
125.69,1.9303e-05,0
125.69,5.4215e-05,0
125.69,6.0761e-05,0
125.69,4.5823e-05,0
125.69,3.9445e-05,0
125.69,5.2537e-05,0
125.69,7.6036e-05,0
125.69,8.8289e-05,0
125.7,9.601e-05,0
125.7,0.00011598,0
125.7,0.00013411,0
125.7,0.00013411,0
125.7,0.00011984,0
125.7,9.3828e-05,0
125.7,4.2466e-05,0
125.7,-3.5416e-05,0
125.7,-0.00010088,0
125.7,-0.00011833,0
125.7,-9.8863e-05,0
125.7,-8.3925e-05,0
125.7,-7.7379e-05,0
125.7,-6.8315e-05,0
125.7,-5.7404e-05,0
125.7,-2.6856e-05,0
125.7,1.1917e-05,0
125.7,1.1246e-05,0
125.7,-3.1052e-05,0
125.71,-6.6972e-05,0
125.71,-9.5003e-05,0
125.71,-0.00015325,0
125.71,-0.00023969,0
125.71,-0.0003211,0
125.71,-0.00035567,0
125.71,-0.00028165,0
125.71,-8.6275e-05,0
125.71,0.00013092,0
125.71,0.0002506,0
125.71,0.00026033,0
125.71,0.00022441,0
125.71,0.00018732,0
125.71,0.00016164,0
125.71,0.00015325,0
125.71,0.0001556,0
125.71,0.00014485,0
125.71,0.00011196,0
125.71,6.3951e-05,0
125.72,1.2589e-05,0
125.72,-3.3906e-05,0
125.72,-7.805e-05,0
125.72,-0.00012169,0
125.72,-0.00015828,0
125.72,-0.00017658,0
125.72,-0.00018614,0
125.72,-0.00019504,0
125.72,-0.00018883,0
125.72,-0.00016063,0
125.72,-0.00012958,0
125.72,-0.00012001,0
125.72,-0.00013445,0
125.72,-0.00015862,0
125.72,-0.00017792,0
125.72,-0.00015056,0
125.72,-4.918e-05,0
125.72,8.0903e-05,0
125.72,0.00016751,0
125.72,0.00018782,0
125.73,0.00016432,0
125.73,0.00012874,0
125.73,9.2485e-05,0
125.73,4.8844e-05,0
125.73,-1.6785e-06,0
125.73,-4.5487e-05,0
125.73,-4.7166e-05,0
125.73,1.091e-05,0
125.73,8.2078e-05,0
125.73,0.00011968,0
125.73,0.00014687,0
125.73,0.00021132,0
125.73,0.00028786,0
125.73,0.00029256,0
125.73,0.00020914,0
125.73,0.00011397,0
125.73,7.5029e-05,0
125.73,0.00011095,0
125.73,0.00017104,0
125.74,0.00017809,0
125.74,0.0001274,0
125.74,8.3757e-05,0
125.74,8.0903e-05,0
125.74,9.4499e-05,0
125.74,9.1814e-05,0
125.74,7.1504e-05,0
125.74,4.5991e-05,0
125.74,1.796e-05,0
125.74,-8.896e-06,0
125.74,-3.0549e-05,0
125.74,-5.388e-05,0
125.74,-6.8986e-05,0
125.74,-6.0258e-05,0
125.74,-2.652e-05,0
125.74,2.5513e-05,0
125.74,7.0665e-05,0
125.74,9.9199e-05,0
125.74,0.0001227,0
125.75,0.00013579,0
125.75,0.00012068,0
125.75,7.57e-05,0
125.75,1.0575e-05,0
125.75,-7.7379e-05,0
125.75,-0.00017339,0
125.75,-0.00020612,0
125.75,-0.00011514,0
125.75,6.7979e-05,0
125.75,0.00023751,0
125.75,0.00031203,0
125.75,0.00028853,0
125.75,0.00022542,0
125.75,0.00016097,0
125.75,0.00010524,0
125.75,7.9728e-05,0
125.75,8.04e-05,0
125.75,7.9728e-05,0
125.75,6.4622e-05,0
125.76,4.2802e-05,0
125.76,1.1246e-05,0
125.76,-2.0142e-05,0
125.76,-2.1653e-05,0
125.76,-9.9031e-06,0
125.76,-2.3667e-05,0
125.76,-4.918e-05,0
125.76,-8.1071e-05,0
125.76,-0.0001326,0
125.76,-0.00020998,0
125.76,-0.00027611,0
125.76,-0.00027259,0
125.76,-0.00020192,0
125.76,-0.00011296,0
125.76,-4.6326e-05,0
125.76,-1.6785e-06,0
125.76,3.6759e-05,0
125.76,4.9516e-05,0
125.76,2.8031e-05,0
125.77,1.0071e-06,0
125.77,-1.1246e-05,0
125.77,-8.2246e-06,0
125.77,7.8889e-06,0
125.77,2.1317e-05,0
125.77,2.2492e-05,0
125.77,1.9638e-05,0
125.77,1.3092e-05,0
125.77,1.1582e-05,0
125.77,3.827e-05,0
125.77,9.0471e-05,0
125.77,0.00012924,0
125.77,0.00012052,0
125.77,6.8315e-05,0
125.77,6.3783e-06,0
125.77,-3.2059e-05,0
125.77,-4.2969e-05,0
125.77,-6.2104e-05,0
125.77,-0.00012169,0
125.77,-0.00019084,0
125.78,-0.00022089,0
125.78,-0.00020494,0
125.78,-0.00015224,0
125.78,-9.2988e-05,0
125.78,-7.0329e-05,0
125.78,-7.5868e-05,0
125.78,-4.6998e-05,0
125.78,2.5177e-05,0
125.78,8.7953e-05,0
125.78,9.8527e-05,0
125.78,6.5965e-05,0
125.78,3.5584e-05,0
125.78,3.3402e-05,0
125.78,4.9851e-05,0
125.78,6.2943e-05,0
125.78,7.2343e-05,0
125.78,8.5771e-05,0
125.78,9.5674e-05,0
125.78,9.7353e-05,0
125.79,9.7856e-05,0
125.79,9.987e-05,0
125.79,9.1142e-05,0
125.79,5.4215e-05,0
125.79,6.714e-07,0
125.79,-4.5487e-05,0
125.79,-7.335e-05,0
125.79,-5.6565e-05,0
125.79,7.5532e-06,0
125.79,8.275e-05,0
125.79,0.00013982,0
125.79,0.00016181,0
125.79,0.00015358,0
125.79,0.00013294,0
125.79,0.00011061,0
125.79,9.1814e-05,0
125.79,7.4861e-05,0
125.79,6.2272e-05,0
125.79,6.2272e-05,0
125.8,7.2679e-05,0
125.8,8.2078e-05,0
125.8,7.9728e-05,0
125.8,6.4286e-05,0
125.8,4.7501e-05,0
125.8,3.3906e-05,0
125.8,1.4267e-05,0
125.8,-3.3402e-05,0
125.8,-0.00012169,0
125.8,-0.00020696,0
125.8,-0.00020545,0
125.8,-8.1407e-05,0
125.8,0.00010172,0
125.8,0.00022878,0
125.8,0.00024993,0
125.8,0.00019135,0
125.8,0.00010457,0
125.8,2.7024e-05,0
125.8,-3.3066e-05,0
125.8,-3.8437e-05,0
125.81,4.0452e-05,0
125.81,0.00013848,0
125.81,0.00016886,0
125.81,0.00011196,0
125.81,2.887e-05,0
125.81,2.1317e-05,0
125.81,0.00012068,0
125.81,0.00023818,0
125.81,0.00028551,0
125.81,0.0002459,0
125.81,0.00015325,0
125.81,3.6591e-05,0
125.81,-9.0806e-05,0
125.81,-0.00018447,0
125.81,-0.00020562,0
125.81,-0.00019051,0
125.81,-0.00020562,0
125.81,-0.00024573,0
125.81,-0.00023734,0
125.82,-0.00012908,0
125.82,1.4939e-05,0
125.82,0.00010692,0
125.82,0.00012941,0
125.82,0.00010222,0
125.82,7.5868e-05,0
125.82,0.00010356,0
125.82,0.00016298,0
125.82,0.00019655,0
125.82,0.00021669,0
125.82,0.00025396,0
125.82,0.00028803,0
125.82,0.00028988,0
125.82,0.00024909,0
125.82,0.00017893,0
125.82,9.2317e-05,0
125.82,-1.0071e-05,0
125.82,-0.00012589,0
125.82,-0.0002318,0
125.83,-0.00029206,0
125.83,-0.00030448,0
125.83,-0.00029726,0
125.83,-0.00028014,0
125.83,-0.00024775,0
125.83,-0.00020696,0
125.83,-0.0001608,0
125.83,-9.9535e-05,0
125.83,-3.1388e-05,0
125.83,7.5532e-06,0
125.83,9.9031e-06,0
125.83,2.501e-05,0
125.83,7.2679e-05,0
125.83,0.00011951,0
125.83,0.00014418,0
125.83,0.00014687,0
125.83,0.00014888,0
125.83,0.000165,0
125.83,0.00018648,0
125.84,0.00018564,0
125.84,0.00015795,0
125.84,0.00012908,0
125.84,9.9535e-05,0
125.84,5.0523e-05,0
125.84,-1.2924e-05,0
125.84,-7.8889e-05,0
125.84,-0.00013747,0
125.84,-0.00017842,0
125.84,-0.00019454,0
125.84,-0.00017591,0
125.84,-0.00015593,0
125.84,-0.00018027,0
125.84,-0.00024422,0
125.84,-0.00030582,0
125.84,-0.00034678,0
125.84,-0.0003545,0
125.84,-0.00030498,0
125.84,-0.0002036,0
125.84,-0.00010054,0
125.85,-4.062e-05,0
125.85,-1.4939e-05,0
125.85,1.091e-05,0
125.85,4.5823e-05,0
125.85,6.7979e-05,0
125.85,6.5461e-05,0
125.85,5.7572e-05,0
125.85,5.4215e-05,0
125.85,5.2033e-05,0
125.85,5.8915e-05,0
125.85,8.275e-05,0
125.85,0.00011363,0
125.85,0.00014989,0
125.85,0.00019655,0
125.85,0.00024523,0
125.85,0.00027376,0
125.85,0.00027443,0
125.85,0.0002454,0
125.85,0.00019387,0
125.86,0.00012505,0
125.86,2.1317e-05,0
125.86,-0.00011867,0
125.86,-0.00026017,0
125.86,-0.00025446,0
125.86,-3.5248e-06,0
125.86,0.00030867,0
125.86,0.00043943,0
125.86,0.00034661,0
125.86,0.00017876,0
125.86,8.1743e-05,0
125.86,7.7211e-05,0
125.86,0.00011514,0
125.86,0.00014083,0
125.86,0.00012203,0
125.86,6.8315e-05,0
125.86,1.9638e-05,0
125.86,4.8676e-06,0
125.86,9.5674e-06,0
125.87,5.7069e-06,0
125.87,-7.2175e-06,0
125.87,-1.4099e-05,0
125.87,-2.182e-06,0
125.87,2.652e-05,0
125.87,5.8915e-05,0
125.87,7.6371e-05,0
125.87,3.4745e-05,0
125.87,-5.5222e-05,0
125.87,-0.00010172,0
125.87,-5.0355e-05,0
125.87,4.9348e-05,0
125.87,0.00012152,0
125.87,0.00014687,0
125.87,0.00016164,0
125.87,0.00018581,0
125.87,0.00020276,0
125.87,0.00020427,0
125.87,0.00019521,0
125.88,0.0001791,0
125.88,0.00016365,0
125.88,0.00014855,0
125.88,0.00010826,0
125.88,4.4144e-05,0
125.88,-1.5106e-06,0
125.88,-1.9638e-05,0
125.88,-5.9419e-05,0
125.88,-0.0001519,0
125.88,-0.00026302,0
125.88,-0.00036138,0
125.88,-0.00041627,0
125.88,-0.00032848,0
125.88,-6.4118e-05,0
125.88,0.00021585,0
125.88,0.00034359,0
125.88,0.00032747,0
125.88,0.00025631,0
125.88,0.00018178,0
125.88,0.00011179,0
125.89,4.5151e-05,0
125.89,-8.896e-06,0
125.89,-3.7766e-05,0
125.89,-4.9851e-05,0
125.89,-6.1265e-05,0
125.89,-7.1e-05,0
125.89,-6.9825e-05,0
125.89,-6.1433e-05,0
125.89,-5.0019e-05,0
125.89,-2.6017e-05,0
125.89,2.6856e-06,0
125.89,1.5946e-05,0
125.89,1.9806e-05,0
125.89,2.9374e-05,0
125.89,3.9277e-05,0
125.89,3.9277e-05,0
125.89,2.6352e-05,0
125.89,8.896e-06,0
125.89,4.3641e-06,0
125.9,1.9638e-05,0
125.9,4.4648e-05,0
125.9,6.009e-05,0
125.9,5.1865e-05,0
125.9,1.8296e-05,0
125.9,-1.6617e-05,0
125.9,-2.031e-05,0
125.9,3.357e-07,0
125.9,2.2995e-05,0
125.9,3.0045e-05,0
125.9,7.2175e-06,0
125.9,-4.2466e-05,0
125.9,-9.9535e-05,0
125.9,-0.00014804,0
125.9,-0.00016818,0
125.9,-0.00016432,0
125.9,-0.00016802,0
125.9,-0.00019756,0
125.9,-0.00022593,0
125.91,-0.00022475,0
125.91,-0.00019823,0
125.91,-0.00017305,0
125.91,-0.0001509,0
125.91,-0.00011028,0
125.91,-3.7263e-05,0
125.91,5.1194e-05,0
125.91,0.00011867,0
125.91,0.00015023,0
125.91,0.00012522,0
125.91,5.7237e-05,0
125.91,-8.896e-06,0
125.91,-6.949e-05,0
125.91,-0.00013864,0
125.91,-0.00020662,0
125.91,-0.00020075,0
125.91,-0.00010155,0
125.91,-3.357e-05,0
125.91,-4.3137e-05,0
125.92,-1.9974e-05,0
125.92,8.8792e-05,0
125.92,0.00020243,0
125.92,0.00023482,0
125.92,0.00019118,0
125.92,0.00013529,0
125.92,0.00010793,0
125.92,0.00010423,0
125.92,0.00011632,0
125.92,0.00014485,0
125.92,0.00017557,0
125.92,0.00018178,0
125.92,0.00016835,0
125.92,0.0001519,0
125.92,0.00013008,0
125.92,9.1981e-05,0
125.92,2.4338e-05,0
125.92,-8.3925e-05,0
125.92,-0.00018329,0
125.92,-0.00016147,0
125.93,2.5177e-06,0
125.93,0.00018849,0
125.93,0.00028853,0
125.93,0.00029424,0
125.93,0.00025161,0
125.93,0.00019823,0
125.93,0.00014049,0
125.93,9.1814e-05,0
125.93,8.0232e-05,0
125.93,9.7688e-05,0
125.93,0.00011061,0
125.93,9.5171e-05,0
125.93,6.0761e-05,0
125.93,3.0381e-05,0
125.93,1.3931e-05,0
125.93,1.6617e-05,0
125.93,2.9374e-05,0
125.93,3.2563e-05,0
125.93,2.6184e-05,0
125.94,2.3499e-05,0
125.94,2.652e-05,0
125.94,2.501e-05,0
125.94,2.6856e-06,0
125.94,-5.0523e-05,0
125.94,-0.00013814,0
125.94,-0.00019353,0
125.94,-0.00012891,0
125.94,3.1556e-05,0
125.94,0.00017104,0
125.94,0.0002271,0
125.94,0.00022139,0
125.94,0.00018715,0
125.94,0.00013881,0
125.94,8.7785e-05,0
125.94,5.3208e-05,0
125.94,4.683e-05,0
125.94,5.8747e-05,0
125.94,6.1265e-05,0
125.95,4.683e-05,0
125.95,3.3738e-05,0
125.95,2.4002e-05,0
125.95,1.8296e-05,0
125.95,2.887e-05,0
125.95,6.1601e-05,0
125.95,9.7856e-05,0
125.95,0.00011934,0
125.95,0.00011598,0
125.95,8.9632e-05,0
125.95,5.7572e-05,0
125.95,2.7527e-05,0
125.95,1.8463e-06,0
125.95,-2.9206e-05,0
125.95,-7.6539e-05,0
125.95,-0.00011632,0
125.95,-0.00013243,0
125.95,-0.000142,0
125.95,-0.0001613,0
125.95,-0.0001895,0
125.96,-0.00020075,0
125.96,-0.00018061,0
125.96,-0.00014653,0
125.96,-0.00012102,0
125.96,-0.00011263,0
125.96,-0.00010138,0
125.96,-7.1336e-05,0
125.96,-3.8941e-05,0
125.96,-1.6953e-05,0
125.96,0,0
125.96,7.8889e-06,0
125.96,1.6785e-06,0
125.96,-7.2175e-06,0
125.96,-8.7282e-06,0
125.96,-1.1917e-05,0
125.96,-3.2395e-05,0
125.96,-6.6636e-05,0
125.96,-8.4092e-05,0
125.96,-5.8076e-05,0
125.97,-1.9303e-05,0
125.97,-5.7069e-06,0
125.97,-3.357e-07,0
125.97,6.5461e-06,0
125.97,8.3925e-07,0
125.97,-1.091e-05,0
125.97,-1.7624e-05,0
125.97,-2.4002e-05,0
125.97,-2.9206e-05,0
125.97,-2.9206e-05,0
125.97,-2.7359e-05,0
125.97,-2.4842e-05,0
125.97,-2.5513e-05,0
125.97,-3.1052e-05,0
125.97,-4.2298e-05,0
125.97,-6.2272e-05,0
125.97,-0.00010088,0
125.97,-0.0001378,0
125.97,-9.0303e-05,0
125.98,6.865e-05,0
125.98,0.00023449,0
125.98,0.00032345,0
125.98,0.0003409,0
125.98,0.00031136,0
125.98,0.00025396,0
125.98,0.00020192,0
125.98,0.00017037,0
125.98,0.00014553,0
125.98,0.00011531,0
125.98,8.1575e-05,0
125.98,4.8676e-05,0
125.98,2.4674e-05,0
125.98,1.1582e-05,0
125.98,-3.357e-06,0
125.98,-2.2324e-05,0
125.98,-9.2317e-06,0
125.98,5.0523e-05,0
125.98,0.00010658,0
125.99,0.00011212,0
125.99,7.3014e-05,0
125.99,2.8031e-05,0
125.99,-1.6114e-05,0
125.99,-8.1071e-05,0
125.99,-0.00011699,0
125.99,-6.244e-05,0
125.99,2.7192e-05,0
125.99,8.7114e-05,0
125.99,0.00011263,0
125.99,0.00011128,0
125.99,8.9799e-05,0
125.99,5.9922e-05,0
125.99,3.2898e-05,0
125.99,1.8296e-05,0
125.99,1.8967e-05,0
125.99,2.6017e-05,0
125.99,3.5248e-05,0
125.99,5.3544e-05,0
126,8.6107e-05,0
126,0.00010776,0
126,0.00010826,0
126,0.00011699,0
126,0.00014284,0
126,0.00015291,0
126,0.00013075,0
126,8.6778e-05,0
126,4.062e-05,0
126,3.0213e-06,0
126,-2.6017e-05,0
126,-4.3809e-05,0
126,-4.8508e-05,0
126,-5.4719e-05,0
126,-8.3421e-05,0
126,-0.00013982,0
126,-0.00019907,0
126,-0.0002224,0
126,-0.00018581,0
126,-9.4835e-05,0
126.01,1.561e-05,0
126.01,0.00010507,0
126.01,0.00014485,0
126.01,0.00013999,0
126.01,0.0001321,0
126.01,0.00013898,0
126.01,0.0001472,0
126.01,0.00015459,0
126.01,0.00016164,0
126.01,0.00015979,0
126.01,0.00014519,0
126.01,0.00012505,0
126.01,9.9199e-05,0
126.01,7.1839e-05,0
126.01,4.5487e-05,0
126.01,5.2033e-06,0
126.01,-5.0523e-05,0
126.01,-9.1646e-05,0
126.01,-0.00011313,0
126.02,-0.00014385,0
126.02,-0.00016399,0
126.02,-0.00013646,0
126.02,-8.8121e-05,0
126.02,-5.4215e-05,0
126.02,-4.448e-05,0
126.02,-5.6565e-05,0
126.02,-7.805e-05,0
126.02,-9.3156e-05,0
126.02,-0.00011431,0
126.02,-0.00015375,0
126.02,-0.00018245,0
126.02,-0.00014183,0
126.02,-3.4577e-05,0
126.02,6.4118e-05,0
126.02,0.00010709,0
126.02,0.0001039,0
126.02,8.275e-05,0
126.02,6.4286e-05,0
126.03,6.479e-05,0
126.03,8.4764e-05,0
126.03,0.00010726,0
126.03,0.00011833,0
126.03,0.00011347,0
126.03,9.4835e-05,0
126.03,6.7308e-05,0
126.03,3.978e-05,0
126.03,3.1052e-05,0
126.03,4.6326e-05,0
126.03,6.8147e-05,0
126.03,6.7475e-05,0
126.03,2.6352e-05,0
126.03,-3.6927e-05,0
126.03,-8.7114e-05,0
126.03,-0.00010793,0
126.03,-0.00011263,0
126.03,-0.00012572,0
126.03,-0.00016466,0
126.03,-0.00020243,0
126.04,-0.00019051,0
126.04,-0.00013646,0
126.04,-8.661e-05,0
126.04,-5.7908e-05,0
126.04,-4.0955e-05,0
126.04,-2.8367e-05,0
126.04,-1.5946e-05,0
126.04,-7.3854e-06,0
126.04,-7.7211e-06,0
126.04,-8.5603e-06,0
126.04,8.3925e-07,0
126.04,2.4002e-05,0
126.04,6.8315e-05,0
126.04,0.0001133,0
126.04,0.00014066,0
126.04,0.00015023,0
126.04,0.00014217,0
126.04,0.000118,0
126.04,7.4357e-05,0
126.05,1.0575e-05,0
126.05,-4.062e-05,0
126.05,-3.978e-05,0
126.05,2.3331e-05,0
126.05,0.00010591,0
126.05,0.00013277,0
126.05,8.04e-05,0
126.05,2.2156e-05,0
126.05,4.3809e-05,0
126.05,0.00013277,0
126.05,0.00020797,0
126.05,0.00023079,0
126.05,0.00021636,0
126.05,0.00019756,0
126.05,0.00017641,0
126.05,0.00012471,0
126.05,6.5461e-05,0
126.05,6.3615e-05,0
126.05,0.00011531,0
126.06,0.00015425,0
126.06,0.00014804,0
126.06,0.00012035,0
126.06,9.7856e-05,0
126.06,8.1071e-05,0
126.06,6.1097e-05,0
126.06,4.1291e-05,0
126.06,3.2059e-05,0
126.06,2.6688e-05,0
126.06,5.2033e-06,0
126.06,-2.6688e-05,0
126.06,-4.1794e-05,0
126.06,-2.9206e-05,0
126.06,-5.8747e-06,0
126.06,-3.1891e-06,0
126.06,-2.7527e-05,0
126.06,-4.5991e-05,0
126.06,-3.3738e-05,0
126.06,-7.0497e-06,0
126.07,3.0213e-06,0
126.07,-1.0239e-05,0
126.07,-3.122e-05,0
126.07,-4.1459e-05,0
126.07,-2.1653e-05,0
126.07,3.6423e-05,0
126.07,0.00010726,0
126.07,0.00013915,0
126.07,0.00012186,0
126.07,9.6513e-05,0
126.07,8.4764e-05,0
126.07,7.6707e-05,0
126.07,6.6636e-05,0
126.07,5.6901e-05,0
126.07,4.3977e-05,0
126.07,3.1891e-05,0
126.07,2.1988e-05,0
126.07,2.182e-06,0
126.07,-2.8031e-05,0
126.07,-5.8747e-05,0
126.08,-8.4092e-05,0
126.08,-8.0735e-05,0
126.08,-1.3092e-05,0
126.08,9.8695e-05,0
126.08,0.00017423,0
126.08,0.00016751,0
126.08,0.00013881,0
126.08,0.00013344,0
126.08,0.00011363,0
126.08,4.4648e-05,0
126.08,-5.388e-05,0
126.08,-0.00014401,0
126.08,-0.00021267,0
126.08,-0.00024607,0
126.08,-0.00024103,0
126.08,-0.00020998,0
126.08,-0.00016735,0
126.08,-0.00013512,0
126.08,-0.00012052,0
126.09,-0.00011766,0
126.09,-0.00013159,0
126.09,-0.00015727,0
126.09,-0.00017221,0
126.09,-0.0001556,0
126.09,-0.00011632,0
126.09,-7.6539e-05,0
126.09,-4.2802e-05,0
126.09,-1.3428e-05,0
126.09,1.5274e-05,0
126.09,3.6759e-05,0
126.09,4.6662e-05,0
126.09,5.4215e-05,0
126.09,6.7643e-05,0
126.09,7.4357e-05,0
126.09,5.1865e-05,0
126.09,-1.8463e-06,0
126.09,-5.3208e-05,0
126.09,-5.8579e-05,0
126.1,-1.4939e-05,0
126.1,3.508e-05,0
126.1,7.0497e-05,0
126.1,0.00011464,0
126.1,0.00016197,0
126.1,0.0001791,0
126.1,0.00015392,0
126.1,9.7353e-05,0
126.1,3.1388e-05,0
126.1,-2.6017e-05,0
126.1,-7.8889e-05,0
126.1,-0.00010944,0
126.1,-8.2414e-05,0
126.1,3.0213e-06,0
126.1,0.0001039,0
126.1,0.00016634,0
126.1,0.00016533,0
126.1,0.00013109,0
126.1,0.00010188,0
126.11,8.1743e-05,0
126.11,6.4958e-05,0
126.11,5.153e-05,0
126.11,3.7934e-05,0
126.11,2.2156e-05,0
126.11,-7.0497e-06,0
126.11,-6.1936e-05,0
126.11,-0.00012102,0
126.11,-0.00013008,0
126.11,-6.1265e-05,0
126.11,5.153e-05,0
126.11,0.00016097,0
126.11,0.00022509,0
126.11,0.00023684,0
126.11,0.00022811,0
126.11,0.00021468,0
126.11,0.00020058,0
126.11,0.00018581,0
126.11,0.00016735,0
126.11,0.00014318,0
126.12,0.00011263,0
126.12,8.1407e-05,0
126.12,4.062e-05,0
126.12,-1.9303e-05,0
126.12,-7.6204e-05,0
126.12,-8.275e-05,0
126.12,-1.8128e-05,0
126.12,7.4693e-05,0
126.12,0.00014586,0
126.12,0.00016735,0
126.12,0.00013042,0
126.12,5.539e-05,0
126.12,-2.6017e-05,0
126.12,-9.2988e-05,0
126.12,-0.0001279,0
126.12,-0.00010893,0
126.12,-3.8773e-05,0
126.12,2.3163e-05,0
126.12,3.6088e-05,0
126.13,2.9206e-05,0
126.13,3.743e-05,0
126.13,4.1627e-05,0
126.13,1.0575e-05,0
126.13,-4.9516e-05,0
126.13,-8.3421e-05,0
126.13,-5.3376e-05,0
126.13,-9.7353e-06,0
126.13,-9.5674e-06,0
126.13,-3.9948e-05,0
126.13,-6.1769e-05,0
126.13,-3.5752e-05,0
126.13,5.0355e-05,0
126.13,0.00016684,0
126.13,0.00026503,0
126.13,0.00031371,0
126.13,0.00031337,0
126.13,0.00027779,0
126.13,0.00021921,0
126.14,0.00014485,0
126.14,5.4215e-05,0
126.14,-4.5151e-05,0
126.14,-0.0001368,0
126.14,-0.00020864,0
126.14,-0.00025328,0
126.14,-0.00026369,0
126.14,-0.00025295,0
126.14,-0.00024019,0
126.14,-0.00022525,0
126.14,-0.00020595,0
126.14,-0.00017742,0
126.14,-0.00013982,0
126.14,-0.00010138,0
126.14,-6.5797e-05,0
126.14,-3.9109e-05,0
126.14,-2.0142e-05,0
126.14,-1.8463e-06,0
126.14,1.9974e-05,0
126.14,4.4144e-05,0
126.15,6.4286e-05,0
126.15,8.2918e-05,0
126.15,0.00010558,0
126.15,0.00012471,0
126.15,0.00013042,0
126.15,0.0001274,0
126.15,0.00011901,0
126.15,0.00010239,0
126.15,7.8386e-05,0
126.15,4.918e-05,0
126.15,2.0645e-05,0
126.15,-4.1962e-06,0
126.15,-2.031e-05,0
126.15,-1.5106e-05,0
126.15,1.0239e-05,0
126.15,2.2492e-05,0
126.15,8.3925e-07,0
126.15,-3.827e-05,0
126.15,-8.4596e-05,0
126.16,-0.00012874,0
126.16,-0.00016013,0
126.16,-0.00015258,0
126.16,-0.00010155,0
126.16,-5.2873e-05,0
126.16,-9.0639e-06,0
126.16,5.539e-05,0
126.16,0.00010692,0
126.16,0.00011716,0
126.16,0.00011716,0
126.16,0.00012471,0
126.16,0.00013143,0
126.16,0.00012673,0
126.16,0.00011464,0
126.16,0.00011196,0
126.16,0.00011984,0
126.16,0.0001274,0
126.16,0.0001284,0
126.16,0.00012102,0
126.17,0.00010558,0
126.17,8.0903e-05,0
126.17,4.9516e-05,0
126.17,2.1317e-05,0
126.17,3.6927e-06,0
126.17,-5.2033e-06,0
126.17,-8.7282e-06,0
126.17,-1.7288e-05,0
126.17,-3.7766e-05,0
126.17,-6.5629e-05,0
126.17,-9.1981e-05,0
126.17,-0.00010155,0
126.17,-8.896e-05,0
126.17,-7.2175e-05,0
126.17,-7.1336e-05,0
126.17,-7.7882e-05,0
126.17,-5.9251e-05,0
126.17,-1.0575e-05,0
126.17,4.2466e-05,0
126.18,6.6972e-05,0
126.18,5.3208e-05,0
126.18,3.0045e-05,0
126.18,3.6423e-05,0
126.18,7.2007e-05,0
126.18,0.00011531,0
126.18,0.0001509,0
126.18,0.00016567,0
126.18,0.00015895,0
126.18,0.00013277,0
126.18,0.00010356,0
126.18,8.5771e-05,0
126.18,7.4189e-05,0
126.18,5.3376e-05,0
126.18,1.561e-05,0
126.18,-2.9038e-05,0
126.18,-5.5894e-05,0
126.18,-6.6468e-05,0
126.18,-6.3783e-05,0
126.19,-6.8315e-05,0
126.19,-9.5003e-05,0
126.19,-9.8527e-05,0
126.19,-3.7766e-05,0
126.19,4.8173e-05,0
126.19,0.00010256,0
126.19,0.00011783,0
126.19,0.00012874,0
126.19,0.00015291,0
126.19,0.00016432,0
126.19,0.0001415,0
126.19,8.7617e-05,0
126.19,2.652e-05,0
126.19,6.8818e-06,0
126.19,3.0716e-05,0
126.19,4.6494e-05,0
126.19,4.4816e-05,0
126.19,5.2873e-05,0
126.19,6.7475e-05,0
126.19,7.3686e-05,0
126.2,7.1336e-05,0
126.2,6.6636e-05,0
126.2,6.0929e-05,0
126.2,5.6901e-05,0
126.2,6.2104e-05,0
126.2,7.6707e-05,0
126.2,8.5603e-05,0
126.2,7.335e-05,0
126.2,5.153e-05,0
126.2,4.4648e-05,0
126.2,4.9851e-05,0
126.2,4.8173e-05,0
126.2,2.887e-05,0
126.2,-1.0407e-05,0
126.2,-5.2537e-05,0
126.2,-8.2246e-05,0
126.2,-0.00010793,0
126.2,-0.00012488,0
126.2,-0.00011431,0
126.21,-8.3421e-05,0
126.21,-6.4118e-05,0
126.21,-5.6565e-05,0
126.21,-4.6159e-05,0
126.21,-3.3738e-05,0
126.21,-2.501e-05,0
126.21,-1.9135e-05,0
126.21,-1.4939e-05,0
126.21,-1.796e-05,0
126.21,-4.3137e-05,0
126.21,-9.9535e-05,0
126.21,-0.00016466,0
126.21,-0.00020494,0
126.21,-0.00020864,0
126.21,-0.00018833,0
126.21,-0.00014855,0
126.21,-9.6345e-05,0
126.21,-4.7166e-05,0
126.21,-7.5532e-06,0
126.22,2.2828e-05,0
126.22,3.8102e-05,0
126.22,2.5513e-05,0
126.22,1.4603e-05,0
126.22,3.3402e-05,0
126.22,5.1698e-05,0
126.22,4.5487e-05,0
126.22,4.1627e-05,0
126.22,6.479e-05,0
126.22,0.00010256,0
126.22,0.00013059,0
126.22,0.00014351,0
126.22,0.00014418,0
126.22,0.0001368,0
126.22,0.0001227,0
126.22,0.00010373,0
126.22,8.3085e-05,0
126.22,6.7308e-05,0
126.22,5.8244e-05,0
126.22,4.9851e-05,0
126.23,3.9948e-05,0
126.23,4.3137e-05,0
126.23,6.4622e-05,0
126.23,8.04e-05,0
126.23,6.2943e-05,0
126.23,3.1891e-06,0
126.23,-7.2847e-05,0
126.23,-0.00011481,0
126.23,-8.4596e-05,0
126.23,1.326e-05,0
126.23,0.00012102,0
126.23,0.00018178,0
126.23,0.00017288,0
126.23,0.000118,0
126.23,8.3085e-05,0
126.23,9.7185e-05,0
126.23,0.0001237,0
126.23,0.00012874,0
126.23,0.00012421,0
126.24,0.0001237,0
126.24,0.00011313,0
126.24,7.3686e-05,0
126.24,1.7288e-05,0
126.24,-7.8889e-06,0
126.24,1.5946e-05,0
126.24,4.5487e-05,0
126.24,3.9612e-05,0
126.24,1.3428e-05,0
126.24,-4.8676e-06,0
126.24,-5.2033e-06,0
126.24,1.3931e-05,0
126.24,4.2466e-05,0
126.24,5.3544e-05,0
126.24,3.0213e-05,0
126.24,3.8605e-06,0
126.24,2.5177e-05,0
126.24,8.3757e-05,0
126.24,0.00012404,0
126.25,0.00012538,0
126.25,0.00010021,0
126.25,6.2272e-05,0
126.25,2.182e-05,0
126.25,-1.561e-05,0
126.25,-4.9516e-05,0
126.25,-8.0903e-05,0
126.25,-0.00010726,0
126.25,-0.00011095,0
126.25,-8.0064e-05,0
126.25,-2.8367e-05,0
126.25,1.7624e-05,0
126.25,3.5416e-05,0
126.25,3.1724e-05,0
126.25,2.3835e-05,0
126.25,1.9974e-05,0
126.25,1.0407e-05,0
126.25,-2.3499e-05,0
126.25,-8.3421e-05,0
126.26,-0.00014318,0
126.26,-0.00016046,0
126.26,-0.00013646,0
126.26,-0.00011296,0
126.26,-9.3828e-05,0
126.26,-5.5894e-05,0
126.26,-8.7282e-06,0
126.26,2.8367e-05,0
126.26,5.0019e-05,0
126.26,5.9586e-05,0
126.26,6.8147e-05,0
126.26,8.1575e-05,0
126.26,9.2988e-05,0
126.26,9.3828e-05,0
126.26,8.661e-05,0
126.26,8.3757e-05,0
126.26,8.5435e-05,0
126.26,7.1e-05,0
126.26,2.7359e-05,0
126.27,-2.1149e-05,0
126.27,-5.1026e-05,0
126.27,-7.1504e-05,0
126.27,-0.00010625,0
126.27,-0.00016651,0
126.27,-0.00021501,0
126.27,-0.00019605,0
126.27,-0.00011296,0
126.27,-1.9303e-05,0
126.27,3.9948e-05,0
126.27,5.0523e-05,0
126.27,2.5513e-05,0
126.27,-8.896e-06,0
126.27,-2.4674e-05,0
126.27,-2.2995e-05,0
126.27,-2.501e-05,0
126.27,-3.0381e-05,0
126.27,-1.2253e-05,0
126.27,3.4577e-05,0
126.27,5.3544e-05,0
126.28,2.7863e-05,0
126.28,3.2898e-05,0
126.28,0.00011984,0
126.28,0.00022055,0
126.28,0.00026067,0
126.28,0.00023717,0
126.28,0.00018279,0
126.28,0.00012773,0
126.28,8.7449e-05,0
126.28,5.0019e-05,0
126.28,1.7288e-05,0
126.28,2.1988e-05,0
126.28,6.2608e-05,0
126.28,0.00010088,0
126.28,0.00011112,0
126.28,0.00010709,0
126.28,0.00010121,0
126.28,8.5435e-05,0
126.28,5.9922e-05,0
126.29,3.9445e-05,0
126.29,2.2492e-05,0
126.29,-2.0142e-06,0
126.29,-2.7024e-05,0
126.29,-4.1627e-05,0
126.29,-6.5293e-05,0
126.29,-0.00010188,0
126.29,-0.00010021,0
126.29,-3.5752e-05,0
126.29,3.9445e-05,0
126.29,7.5029e-05,0
126.29,8.3421e-05,0
126.29,8.5771e-05,0
126.29,7.5532e-05,0
126.29,4.1962e-05,0
126.29,-2.4338e-05,0
126.29,-0.00010843,0
126.29,-0.00013881,0
126.29,-5.3208e-05,0
126.3,9.4667e-05,0
126.3,0.00018447,0
126.3,0.00018044,0
126.3,0.0001274,0
126.3,5.8579e-05,0
126.3,-2.9374e-05,0
126.3,-0.00013059,0
126.3,-0.00019034,0
126.3,-0.00013411,0
126.3,1.3596e-05,0
126.3,0.00012958,0
126.3,0.00015526,0
126.3,0.00013512,0
126.3,0.0001091,0
126.3,5.6397e-05,0
126.3,-1.091e-05,0
126.3,-1.9638e-05,0
126.3,3.9948e-05,0
126.3,0.0001086,0
126.31,0.00014704,0
126.31,0.00016365,0
126.31,0.00016768,0
126.31,0.00015073,0
126.31,0.00012303,0
126.31,0.00010457,0
126.31,9.1814e-05,0
126.31,8.1407e-05,0
126.31,7.3686e-05,0
126.31,5.6901e-05,0
126.31,2.2995e-05,0
126.31,-2.1485e-05,0
126.31,-5.7908e-05,0
126.31,-7.9561e-05,0
126.31,-0.00010323,0
126.31,-0.00013848,0
126.31,-0.00016248,0
126.31,-0.00014855,0
126.31,-0.0001039,0
126.31,-3.7766e-05,0
126.32,3.9109e-05,0
126.32,9.7185e-05,0
126.32,0.00012236,0
126.32,0.00011666,0
126.32,8.7617e-05,0
126.32,5.8244e-05,0
126.32,5.3208e-05,0
126.32,6.7643e-05,0
126.32,7.3014e-05,0
126.32,5.4887e-05,0
126.32,1.9638e-05,0
126.32,-1.9471e-05,0
126.32,-5.2369e-05,0
126.32,-7.9393e-05,0
126.32,-0.00010608,0
126.32,-0.00012085,0
126.32,-0.00011531,0
126.32,-0.00010491,0
126.32,-9.987e-05,0
126.33,-9.1814e-05,0
126.33,-8.4428e-05,0
126.33,-8.896e-05,0
126.33,-0.00010423,0
126.33,-0.00012253,0
126.33,-0.000142,0
126.33,-0.00015761,0
126.33,-0.00016197,0
126.33,-0.0001697,0
126.33,-0.00019101,0
126.33,-0.00018363,0
126.33,-0.0001034,0
126.33,1.7624e-05,0
126.33,0.00010524,0
126.33,0.00013143,0
126.33,0.00012807,0
126.33,0.00012404,0
126.33,0.00011867,0
126.33,0.00011447,0
126.34,0.00011263,0
126.34,0.00010524,0
126.34,8.7114e-05,0
126.34,7.7043e-05,0
126.34,0.00010658,0
126.34,0.00015879,0
126.34,0.00019017,0
126.34,0.00018564,0
126.34,0.00015912,0
126.34,0.00012169,0
126.34,7.7714e-05,0
126.34,2.8702e-05,0
126.34,-1.6953e-05,0
126.34,-4.1123e-05,0
126.34,-3.4409e-05,0
126.34,-6.8818e-06,0
126.34,5.2033e-06,0
126.34,-2.501e-05,0
126.34,-7.5868e-05,0
126.34,-0.00010222,0
126.35,-8.4092e-05,0
126.35,-4.5487e-05,0
126.35,-1.8967e-05,0
126.35,-1.4435e-05,0
126.35,-1.0407e-05,0
126.35,1.3764e-05,0
126.35,4.4816e-05,0
126.35,6.63e-05,0
126.35,6.63e-05,0
126.35,3.8605e-05,0
126.35,-9.5674e-06,0
126.35,-2.9206e-05,0
126.35,3.7095e-05,0
126.35,0.00015727,0
126.35,0.00024489,0
126.35,0.00027913,0
126.35,0.00029306,0
126.35,0.00028753,0
126.35,0.00024858,0
126.36,0.00019051,0
126.36,0.00013948,0
126.36,9.6345e-05,0
126.36,5.0019e-05,0
126.36,4.8676e-06,0
126.36,-2.5345e-05,0
126.36,-3.978e-05,0
126.36,-2.8367e-05,0
126.36,3.1891e-06,0
126.36,-5.0355e-06,0
126.36,-6.3279e-05,0
126.36,-0.00010574,0
126.36,-7.6371e-05,0
126.36,6.3783e-06,0
126.36,6.9657e-05,0
126.36,7.8721e-05,0
126.36,4.6998e-05,0
126.36,1.0071e-05,0
126.36,-9.2317e-06,0
126.37,-1.9974e-05,0
126.37,-3.6255e-05,0
126.37,-6.5629e-05,0
126.37,-7.8721e-05,0
126.37,-1.3764e-05,0
126.37,9.836e-05,0
126.37,0.00016667,0
126.37,0.00016265,0
126.37,0.00012404,0
126.37,8.9128e-05,0
126.37,6.8147e-05,0
126.37,6.3447e-05,0
126.37,6.3615e-05,0
126.37,6.009e-05,0
126.37,5.7572e-05,0
126.37,5.7572e-05,0
126.37,6.1265e-05,0
126.37,6.4118e-05,0
126.37,6.1601e-05,0
126.38,6.1601e-05,0
126.38,6.4622e-05,0
126.38,5.623e-05,0
126.38,3.3066e-05,0
126.38,1.326e-05,0
126.38,-5.0355e-07,0
126.38,-1.3764e-05,0
126.38,-5.8747e-06,0
126.38,1.5106e-05,0
126.38,1.2924e-05,0
126.38,-2.3331e-05,0
126.38,-7.8721e-05,0
126.38,-0.00013008,0
126.38,-0.00015895,0
126.38,-0.00015929,0
126.38,-0.00015459,0
126.38,-0.00015727,0
126.38,-0.00015979,0
126.38,-0.00015694,0
126.38,-0.00015593,0
126.39,-0.00016164,0
126.39,-0.0001613,0
126.39,-0.00012975,0
126.39,-8.191e-05,0
126.39,-5.069e-05,0
126.39,-3.3738e-05,0
126.39,-1.9638e-05,0
126.39,-1.6617e-05,0
126.39,-2.7024e-05,0
126.39,-3.3738e-05,0
126.39,-1.0575e-05,0
126.39,4.2802e-05,0
126.39,9.5171e-05,0
126.39,0.00012538,0
126.39,0.00013613,0
126.39,0.00013378,0
126.39,0.0001237,0
126.39,0.00010877,0
126.39,9.3828e-05,0
126.4,7.7043e-05,0
126.4,5.388e-05,0
126.4,2.9206e-05,0
126.4,5.539e-06,0
126.4,-1.9806e-05,0
126.4,-4.0787e-05,0
126.4,-5.0523e-05,0
126.4,-5.3208e-05,0
126.4,-5.5558e-05,0
126.4,-4.6662e-05,0
126.4,-2.0645e-05,0
126.4,9.3996e-06,0
126.4,3.8102e-05,0
126.4,6.3279e-05,0
126.4,7.9057e-05,0
126.4,8.7785e-05,0
126.4,8.3757e-05,0
126.4,4.2466e-05,0
126.4,-4.0955e-05,0
126.41,-0.00010507,0
126.41,-0.00010675,0
126.41,-5.4551e-05,0
126.41,3.3066e-05,0
126.41,0.00010591,0
126.41,0.00011934,0
126.41,7.9393e-05,0
126.41,2.7024e-05,0
126.41,-1.1917e-05,0
126.41,-5.7069e-06,0
126.41,5.9922e-05,0
126.41,0.00013075,0
126.41,0.00014553,0
126.41,0.00011414,0
126.41,9.5338e-05,0
126.41,0.00010272,0
126.41,0.00011531,0
126.41,0.0001237,0
126.41,0.00012874,0
126.42,0.00013243,0
126.42,0.00013008,0
126.42,0.00011363,0
126.42,8.6778e-05,0
126.42,6.3615e-05,0
126.42,6.2608e-05,0
126.42,8.5435e-05,0
126.42,0.00010323,0
126.42,9.4163e-05,0
126.42,6.6972e-05,0
126.42,4.5487e-05,0
126.42,2.9541e-05,0
126.42,7.7211e-06,0
126.42,-1.3596e-05,0
126.42,-2.5849e-05,0
126.42,-3.5752e-05,0
126.42,-3.7766e-05,0
126.42,-2.4338e-05,0
126.42,6.8818e-06,0
126.42,3.6591e-05,0
126.43,5.153e-05,0
126.43,5.6901e-05,0
126.43,5.623e-05,0
126.43,5.0858e-05,0
126.43,4.7669e-05,0
126.43,5.6733e-05,0
126.43,7.2679e-05,0
126.43,7.3686e-05,0
126.43,5.0187e-05,0
126.43,1.7624e-05,0
126.43,-4.3641e-06,0
126.43,-2.3667e-05,0
126.43,-6.8482e-05,0
126.43,-0.00011565,0
126.43,-9.8192e-05,0
126.43,-8.896e-06,0
126.43,8.1239e-05,0
126.43,0.00012706,0
126.43,0.0001274,0
126.44,9.1142e-05,0
126.44,4.0787e-05,0
126.44,1.1582e-05,0
126.44,9.5674e-06,0
126.44,1.2924e-05,0
126.44,1.8967e-05,0
126.44,2.266e-05,0
126.44,6.0426e-06,0
126.44,-3.1388e-05,0
126.44,-7.6707e-05,0
126.44,-0.00012572,0
126.44,-0.00019185,0
126.44,-0.00023449,0
126.44,-0.00019605,0
126.44,-0.00010826,0
126.44,-3.2731e-05,0
126.44,9.3996e-06,0
126.44,2.3331e-05,0
126.44,2.6688e-05,0
126.45,3.1556e-05,0
126.45,3.2395e-05,0
126.45,2.5177e-05,0
126.45,2.0142e-05,0
126.45,2.5345e-05,0
126.45,3.9948e-05,0
126.45,5.6733e-05,0
126.45,6.6972e-05,0
126.45,6.6636e-05,0
126.45,5.4215e-05,0
126.45,3.592e-05,0
126.45,1.7792e-05,0
126.45,5.2033e-06,0
126.45,-3.0213e-06,0
126.45,-8.5603e-06,0
126.45,-6.8818e-06,0
126.45,3.8605e-06,0
126.45,2.182e-05,0
126.45,3.2395e-05,0
126.45,2.6688e-05,0
126.46,1.5274e-05,0
126.46,1.0239e-05,0
126.46,1.8296e-05,0
126.46,3.7263e-05,0
126.46,5.2537e-05,0
126.46,5.6733e-05,0
126.46,6.3279e-05,0
126.46,8.5603e-05,0
126.46,0.00011531,0
126.46,0.00013344,0
126.46,0.00012068,0
126.46,7.4022e-05,0
126.46,4.8676e-06,0
126.46,-6.9322e-05,0
126.46,-0.00012018,0
126.46,-0.00016416,0
126.46,-0.00023046,0
126.46,-0.00025463,0
126.46,-0.00016986,0
126.47,-4.1794e-05,0
126.47,2.4338e-05,0
126.47,8.3925e-07,0
126.47,-6.6133e-05,0
126.47,-0.00010793,0
126.47,-8.0064e-05,0
126.47,1.8463e-05,0
126.47,0.00014804,0
126.47,0.0002459,0
126.47,0.00027678,0
126.47,0.00025681,0
126.47,0.00021837,0
126.47,0.00017977,0
126.47,0.00014804,0
126.47,0.00012236,0
126.47,0.00010021,0
126.47,7.8721e-05,0
126.47,5.539e-05,0
126.47,3.508e-05,0
126.48,1.9974e-05,0
126.48,9.9031e-06,0
126.48,1.6785e-07,0
126.48,-1.8296e-05,0
126.48,-4.8005e-05,0
126.48,-7.2343e-05,0
126.48,-7.2343e-05,0
126.48,-4.5487e-05,0
126.48,1.1749e-06,0
126.48,5.2705e-05,0
126.48,8.9632e-05,0
126.48,0.00010188,0
126.48,9.0135e-05,0
126.48,7.4693e-05,0
126.48,6.4958e-05,0
126.48,5.5222e-05,0
126.48,5.3544e-05,0
126.48,4.0116e-05,0
126.48,-2.0981e-05,0
126.49,-9.4331e-05,0
126.49,-0.00013059,0
126.49,-0.00014049,0
126.49,-0.00014435,0
126.49,-0.00011162,0
126.49,-3.6255e-05,0
126.49,5.2705e-05,0
126.49,0.00013814,0
126.49,0.00019437,0
126.49,0.0001937,0
126.49,0.00014687,0
126.49,9.0135e-05,0
126.49,5.0858e-05,0
126.49,3.3066e-05,0
126.49,3.2059e-05,0
126.49,3.6591e-05,0
126.49,3.2059e-05,0
126.49,1.8296e-05,0
126.49,5.7069e-06,0
126.5,9.2317e-06,0
126.5,3.0549e-05,0
126.5,5.9922e-05,0
126.5,8.4092e-05,0
126.5,0.00010155,0
126.5,0.00012035,0
126.5,0.00013613,0
126.5,0.00014015,0
126.5,0.00012941,0
126.5,0.00011917,0
126.5,0.00012454,0
126.5,0.00013814,0
126.5,0.00013831,0
126.5,0.00012941,0
126.5,0.00011397,0
126.5,8.6946e-05,0
126.5,5.2369e-05,0
126.5,5.2033e-06,0
126.5,-5.2873e-05,0
126.5,-0.00010205,0
126.51,-0.00012538,0
126.51,-0.00013495,0
126.51,-0.00015157,0
126.51,-0.00017675,0
126.51,-0.00020075,0
126.51,-0.00021854,0
126.51,-0.00022643,0
126.51,-0.0002172,0
126.51,-0.0001942,0
126.51,-0.0001744,0
126.51,-0.00016466,0
126.51,-0.00014116,0
126.51,-9.1478e-05,0
126.51,-4.2634e-05,0
126.51,-1.0407e-05,0
126.51,1.4771e-05,0
126.51,3.0716e-05,0
126.51,3.1724e-05,0
126.51,2.7863e-05,0
126.52,3.3402e-05,0
126.52,5.5222e-05,0
126.52,7.9728e-05,0
126.52,8.4764e-05,0
126.52,6.2104e-05,0
126.52,2.652e-05,0
126.52,8.2246e-06,0
126.52,1.4435e-05,0
126.52,1.8128e-05,0
126.52,2.3499e-06,0
126.52,-2.4002e-05,0
126.52,-4.1123e-05,0
126.52,-3.3906e-05,0
126.52,-1.0407e-05,0
126.52,8.5603e-06,0
126.52,1.8631e-05,0
126.52,3.0213e-05,0
126.52,4.6494e-05,0
126.52,6.0929e-05,0
126.53,7.7714e-05,0
126.53,0.00010188,0
126.53,0.00012958,0
126.53,0.00015291,0
126.53,0.00016567,0
126.53,0.00016013,0
126.53,0.00014099,0
126.53,0.00012186,0
126.53,9.8527e-05,0
126.53,6.0426e-05,0
126.53,1.6617e-05,0
126.53,-2.5849e-05,0
126.53,-8.5771e-05,0
126.53,-0.00016584,0
126.53,-0.0002177,0
126.53,-0.00020528,0
126.53,-0.00014318,0
126.53,-5.6733e-05,0
126.53,4.2466e-05,0
126.53,0.00013411,0
126.54,0.00019051,0
126.54,0.00020444,0
126.54,0.00019622,0
126.54,0.00018581,0
126.54,0.00018111,0
126.54,0.00017473,0
126.54,0.00014989,0
126.54,0.00011246,0
126.54,8.8457e-05,0
126.54,8.4092e-05,0
126.54,7.5029e-05,0
126.54,4.7501e-05,0
126.54,2.7192e-05,0
126.54,3.6423e-05,0
126.54,5.3208e-05,0
126.54,5.5558e-05,0
126.54,4.918e-05,0
126.54,4.3305e-05,0
126.54,2.501e-05,0
126.55,-5.0355e-06,0
126.55,-3.5248e-05,0
126.55,-7.4022e-05,0
126.55,-8.3925e-05,0
126.55,-1.9638e-05,0
126.55,6.63e-05,0
126.55,0.0001039,0
126.55,9.752e-05,0
126.55,7.7043e-05,0
126.55,4.9683e-05,0
126.55,1.2589e-05,0
126.55,-1.8296e-05,0
126.55,-3.2395e-05,0
126.55,-3.1724e-05,0
126.55,-9.7353e-06,0
126.55,1.6617e-05,0
126.55,3.0716e-05,0
126.55,4.062e-05,0
126.55,5.3208e-05,0
126.56,5.2537e-05,0
126.56,3.4409e-05,0
126.56,1.2589e-05,0
126.56,-5.2033e-06,0
126.56,-2.3331e-05,0
126.56,-3.2731e-05,0
126.56,-1.4939e-05,0
126.56,1.5274e-05,0
126.56,1.9974e-05,0
126.56,-7.8889e-06,0
126.56,-4.2466e-05,0
126.56,-5.304e-05,0
126.56,-1.8463e-05,0
126.56,4.7501e-05,0
126.56,0.0001086,0
126.56,0.00013864,0
126.56,0.00013613,0
126.56,0.00011666,0
126.56,8.9632e-05,0
126.57,5.8412e-05,0
126.57,2.7695e-05,0
126.57,4.3641e-06,0
126.57,-6.714e-06,0
126.57,-1.1078e-05,0
126.57,-1.796e-05,0
126.57,-3.2227e-05,0
126.57,-4.7669e-05,0
126.57,-4.3809e-05,0
126.57,-1.7624e-05,0
126.57,6.5461e-06,0
126.57,1.7121e-05,0
126.57,2.182e-05,0
126.57,2.7359e-05,0
126.57,2.9709e-05,0
126.57,2.0981e-05,0
126.57,-1.5106e-06,0
126.57,-3.1724e-05,0
126.57,-6.4622e-05,0
126.58,-8.8121e-05,0
126.58,-9.1478e-05,0
126.58,-7.805e-05,0
126.58,-6.009e-05,0
126.58,-5.1194e-05,0
126.58,-5.2705e-05,0
126.58,-6.2104e-05,0
126.58,-7.4693e-05,0
126.58,-8.7449e-05,0
126.58,-9.7856e-05,0
126.58,-0.00010121,0
126.58,-9.752e-05,0
126.58,-8.6275e-05,0
126.58,-7.1336e-05,0
126.58,-7.0161e-05,0
126.58,-7.9393e-05,0
126.58,-6.5965e-05,0
126.58,-1.8631e-05,0
126.58,3.3066e-05,0
126.58,6.5461e-05,0
126.59,7.6371e-05,0
126.59,7.4357e-05,0
126.59,6.1769e-05,0
126.59,4.4816e-05,0
126.59,3.978e-05,0
126.59,5.5222e-05,0
126.59,7.7379e-05,0
126.59,8.7114e-05,0
126.59,7.7379e-05,0
126.59,4.9851e-05,0
126.59,2.887e-05,0
126.59,3.9109e-05,0
126.59,6.6972e-05,0
126.59,8.9128e-05,0
126.59,0.00010188,0
126.59,0.00011061,0
126.59,0.00011263,0
126.59,0.00010541,0
126.59,9.5506e-05,0
126.6,8.8457e-05,0
126.6,8.04e-05,0
126.6,7.2007e-05,0
126.6,7.7043e-05,0
126.6,9.9199e-05,0
126.6,0.00012236,0
126.6,0.00012874,0
126.6,0.00010893,0
126.6,6.6133e-05,0
126.6,2.3331e-05,0
126.6,-1.8296e-05,0
126.6,-6.8147e-05,0
126.6,-9.2653e-05,0
126.6,-6.9993e-05,0
126.6,-1.9974e-05,0
126.6,4.1123e-05,0
126.6,8.9128e-05,0
126.6,9.0135e-05,0
126.6,4.6159e-05,0
126.61,6.3783e-06,0
126.61,5.8747e-06,0
126.61,2.6017e-05,0
126.61,4.683e-05,0
126.61,6.7643e-05,0
126.61,8.7785e-05,0
126.61,9.7185e-05,0
126.61,9.1981e-05,0
126.61,7.7714e-05,0
126.61,6.7643e-05,0
126.61,6.0258e-05,0
126.61,3.978e-05,0
126.61,-4.3641e-06,0
126.61,-6.1097e-05,0
126.61,-9.6849e-05,0
126.61,-9.7017e-05,0
126.61,-7.5196e-05,0
126.61,-4.4816e-05,0
126.61,-1.2253e-05,0
126.61,3.2563e-05,0
126.62,0.00010625,0
126.62,0.00019185,0
126.62,0.00025463,0
126.62,0.00028652,0
126.62,0.00028719,0
126.62,0.00026336,0
126.62,0.0002271,0
126.62,0.00018144,0
126.62,0.00012169,0
126.62,5.4215e-05,0
126.62,-9.9031e-06,0
126.62,-6.6468e-05,0
126.62,-0.00010927,0
126.62,-0.00014049,0
126.62,-0.00016802,0
126.62,-0.00018933,0
126.62,-0.00020008,0
126.62,-0.00019957,0
126.62,-0.0001895,0
126.63,-0.00017087,0
126.63,-0.00014133,0
126.63,-0.00011632,0
126.63,-0.00010726,0
126.63,-9.8863e-05,0
126.63,-7.805e-05,0
126.63,-5.7069e-05,0
126.63,-4.7501e-05,0
126.63,-3.7263e-05,0
126.63,-8.5603e-06,0
126.63,3.6591e-05,0
126.63,7.9728e-05,0
126.63,0.00010491,0
126.63,0.00011095,0
126.63,0.00010642,0
126.63,9.0471e-05,0
126.63,5.2033e-05,0
126.63,-3.8605e-06,0
126.63,-5.2705e-05,0
126.64,-7.0665e-05,0
126.64,-6.009e-05,0
126.64,-4.5991e-05,0
126.64,-5.6733e-05,0
126.64,-8.3253e-05,0
126.64,-7.9561e-05,0
126.64,-2.5849e-05,0
126.64,4.918e-05,0
126.64,0.00011128,0
126.64,0.00014452,0
126.64,0.00014838,0
126.64,0.0001279,0
126.64,9.3324e-05,0
126.64,6.0258e-05,0
126.64,4.1459e-05,0
126.64,3.743e-05,0
126.64,4.0116e-05,0
126.64,3.3906e-05,0
126.64,2.1317e-05,0
126.65,1.8631e-05,0
126.65,2.5513e-05,0
126.65,3.7263e-05,0
126.65,4.918e-05,0
126.65,5.8076e-05,0
126.65,6.3447e-05,0
126.65,6.7811e-05,0
126.65,6.9657e-05,0
126.65,4.213e-05,0
126.65,-3.0213e-06,0
126.65,3.1891e-06,0
126.65,6.2272e-05,0
126.65,0.0001086,0
126.65,0.00010491,0
126.65,6.6133e-05,0
126.65,1.8631e-05,0
126.65,-1.9471e-05,0
126.65,-4.448e-05,0
126.65,-6.009e-05,0
126.65,-6.479e-05,0
126.66,-6.2943e-05,0
126.66,-6.9993e-05,0
126.66,-7.2343e-05,0
126.66,-4.5487e-05,0
126.66,3.8605e-06,0
126.66,4.5823e-05,0
126.66,5.8915e-05,0
126.66,6.2104e-05,0
126.66,7.6036e-05,0
126.66,9.0806e-05,0
126.66,8.51e-05,0
126.66,4.4144e-05,0
126.66,-3.1388e-05,0
126.66,-0.00010759,0
126.66,-0.00015727,0
126.66,-0.00016936,0
126.66,-0.00011783,0
126.66,-8.3925e-06,0
126.66,0.00010692,0
126.67,0.00018312,0
126.67,0.00022206,0
126.67,0.00023616,0
126.67,0.00022257,0
126.67,0.00018413,0
126.67,0.0001331,0
126.67,7.6875e-05,0
126.67,2.8367e-05,0
126.67,-7.0497e-06,0
126.67,-6.7811e-05,0
126.67,-0.00017624,0
126.67,-0.00022223,0
126.67,-0.0001321,0
126.67,-1.091e-05,0
126.67,4.213e-05,0
126.67,5.8579e-05,0
126.67,7.8553e-05,0
126.67,0.00010172,0
126.67,0.00011733,0
126.68,0.00011716,0
126.68,9.8024e-05,0
126.68,6.7643e-05,0
126.68,3.978e-05,0
126.68,2.2995e-05,0
126.68,1.7624e-05,0
126.68,2.1149e-05,0
126.68,2.4674e-05,0
126.68,2.4674e-05,0
126.68,2.1317e-05,0
126.68,1.3092e-05,0
126.68,5.0355e-06,0
126.68,-3.8605e-06,0
126.68,-2.1317e-05,0
126.68,-4.1123e-05,0
126.68,-4.8508e-05,0
126.68,-3.3738e-05,0
126.68,1.3092e-05,0
126.68,8.9464e-05,0
126.69,0.00016466,0
126.69,0.00019789,0
126.69,0.00018715,0
126.69,0.00016231,0
126.69,0.00015291,0
126.69,0.0001603,0
126.69,0.00015761,0
126.69,0.00012706,0
126.69,8.2414e-05,0
126.69,4.6159e-05,0
126.69,1.2924e-05,0
126.69,-2.9206e-05,0
126.69,-6.9993e-05,0
126.69,-9.5003e-05,0
126.69,-0.00011263,0
126.69,-0.00013495,0
126.69,-0.00014804,0
126.69,-0.0001368,0
126.69,-0.0001086,0
126.69,-7.2511e-05,0
126.7,-3.1724e-05,0
126.7,5.8747e-06,0
126.7,2.4002e-05,0
126.7,1.9303e-05,0
126.7,1.0575e-05,0
126.7,1.2589e-05,0
126.7,2.1317e-05,0
126.7,2.5681e-05,0
126.7,2.3163e-05,0
126.7,2.0478e-05,0
126.7,1.0239e-05,0
126.7,-9.5674e-06,0
126.7,-3.2563e-05,0
126.7,-4.7837e-05,0
126.7,-4.5151e-05,0
126.7,-3.3066e-05,0
126.7,-2.8534e-05,0
126.7,-3.2059e-05,0
126.7,-3.2395e-05,0
126.71,-2.1149e-05,0
126.71,-2.5177e-06,0
126.71,1.1078e-05,0
126.71,1.4603e-05,0
126.71,1.0575e-05,0
126.71,2.3499e-06,0
126.71,-9.3996e-06,0
126.71,-2.5849e-05,0
126.71,-4.9348e-05,0
126.71,-8.2414e-05,0
126.71,-0.00013025,0
126.71,-0.00018245,0
126.71,-0.00019504,0
126.71,-0.00013227,0
126.71,-1.7288e-05,0
126.71,9.752e-05,0
126.71,0.00017305,0
126.71,0.00019773,0
126.71,0.00018396,0
126.72,0.00015694,0
126.72,0.00013512,0
126.72,0.00012404,0
126.72,0.000118,0
126.72,0.00011431,0
126.72,0.00011196,0
126.72,0.00010961,0
126.72,0.0001086,0
126.72,0.00011246,0
126.72,0.00011666,0
126.72,0.0001138,0
126.72,0.00010793,0
126.72,0.00010373,0
126.72,9.3828e-05,0
126.72,6.9657e-05,0
126.72,3.508e-05,0
126.72,5.539e-06,0
126.72,-1.6617e-05,0
126.72,-5.0019e-05,0
126.72,-9.8192e-05,0
126.73,-0.00012538,0
126.73,-0.00010423,0
126.73,-5.8579e-05,0
126.73,-3.3738e-05,0
126.73,-3.9948e-05,0
126.73,-4.7333e-05,0
126.73,-4.5151e-05,0
126.73,-4.7333e-05,0
126.73,-5.623e-05,0
126.73,-4.9516e-05,0
126.73,-1.2924e-05,0
126.73,4.1794e-05,0
126.73,9.7856e-05,0
126.73,0.00013462,0
126.73,0.00013915,0
126.73,0.00011917,0
126.73,8.5267e-05,0
126.73,4.918e-05,0
126.73,2.3667e-05,0
126.74,-8.5603e-06,0
126.74,-4.4816e-05,0
126.74,-4.7333e-05,0
126.74,-1.7792e-05,0
126.74,1.8463e-06,0
126.74,6.8818e-06,0
126.74,3.0549e-05,0
126.74,6.63e-05,0
126.74,7.9057e-05,0
126.74,5.8579e-05,0
126.74,2.652e-05,0
126.74,2.182e-05,0
126.74,6.0426e-05,0
126.74,0.00011028,0
126.74,0.00013948,0
126.74,0.00014704,0
126.74,0.00013042,0
126.74,9.0471e-05,0
126.74,6.9657e-05,0
126.75,9.1478e-05,0
126.75,0.00011884,0
126.75,0.00010927,0
126.75,7.0329e-05,0
126.75,2.7527e-05,0
126.75,-1.0407e-05,0
126.75,-3.7766e-05,0
126.75,-4.5991e-05,0
126.75,-4.062e-05,0
126.75,-4.0452e-05,0
126.75,-4.6998e-05,0
126.75,-5.0523e-05,0
126.75,-4.6494e-05,0
126.75,-3.7766e-05,0
126.75,-2.5681e-05,0
126.75,-1.7288e-05,0
126.75,-1.5946e-05,0
126.75,-1.1246e-05,0
126.75,-3.0213e-06,0
126.76,8.3925e-06,0
126.76,2.6017e-05,0
126.76,3.6423e-05,0
126.76,3.4241e-05,0
126.76,3.4241e-05,0
126.76,3.7095e-05,0
126.76,3.2059e-05,0
126.76,2.4338e-05,0
126.76,1.796e-05,0
126.76,1.1749e-06,0
126.76,-2.6017e-05,0
126.76,-4.7837e-05,0
126.76,-6.5461e-05,0
126.76,-9.3324e-05,0
126.76,-0.00012706,0
126.76,-0.00013579,0
126.76,-9.4667e-05,0
126.76,-1.796e-05,0
126.76,5.0019e-05,0
126.77,7.4357e-05,0
126.77,5.7572e-05,0
126.77,2.9206e-05,0
126.77,1.6281e-05,0
126.77,2.5345e-05,0
126.77,5.6733e-05,0
126.77,0.00010172,0
126.77,0.00013915,0
126.77,0.00016248,0
126.77,0.00018144,0
126.77,0.00019638,0
126.77,0.00019504,0
126.77,0.00016869,0
126.77,0.00012538,0
126.77,8.275e-05,0
126.77,4.1291e-05,0
126.77,6.714e-07,0
126.77,-3.3234e-05,0
126.77,-5.8244e-05,0
126.77,-7.3014e-05,0
126.78,-8.661e-05,0
126.78,-0.00011347,0
126.78,-0.00015174,0
126.78,-0.00016634,0
126.78,-0.00012908,0
126.78,-6.7643e-05,0
126.78,-2.7695e-05,0
126.78,-1.6114e-05,0
126.78,-7.7211e-06,0
126.78,4.3641e-06,0
126.78,1.0575e-05,0
126.78,1.4267e-05,0
126.78,2.0645e-05,0
126.78,2.1317e-05,0
126.78,9.7353e-06,0
126.78,-5.2033e-06,0
126.78,-1.2421e-05,0
126.78,-5.2033e-06,0
126.78,1.3428e-05,0
126.79,2.2995e-05,0
126.79,1.4939e-05,0
126.79,6.8818e-06,0
126.79,1.0407e-05,0
126.79,-9.5674e-06,0
126.79,-7.9393e-05,0
126.79,-0.00015862,0
126.79,-0.00017003,0
126.79,-5.8412e-05,0
126.79,0.00013864,0
126.79,0.00028769,0
126.79,0.00031405,0
126.79,0.0002501,0
126.79,0.00016667,0
126.79,0.0001039,0
126.79,6.8986e-05,0
126.79,5.539e-05,0
126.79,5.4887e-05,0
126.79,6.3111e-05,0
126.8,6.7643e-05,0
126.8,5.8244e-05,0
126.8,4.1459e-05,0
126.8,2.8702e-05,0
126.8,2.7359e-05,0
126.8,3.1388e-05,0
126.8,3.1052e-05,0
126.8,2.5681e-05,0
126.8,1.8631e-05,0
126.8,1.4603e-05,0
126.8,1.3931e-05,0
126.8,1.3764e-05,0
126.8,1.1582e-05,0
126.8,1.1582e-05,0
126.8,1.5106e-05,0
126.8,1.0071e-05,0
126.8,3.0213e-06,0
126.8,1.5274e-05,0
126.8,4.1962e-05,0
126.81,5.8076e-05,0
126.81,5.7237e-05,0
126.81,5.0858e-05,0
126.81,3.8102e-05,0
126.81,2.7359e-05,0
126.81,4.1794e-05,0
126.81,7.2847e-05,0
126.81,9.1142e-05,0
126.81,0.00010071,0
126.81,0.00011766,0
126.81,0.0001326,0
126.81,0.00013126,0
126.81,0.00010591,0
126.81,5.4215e-05,0
126.81,-3.6927e-06,0
126.81,-4.6159e-05,0
126.81,-8.3421e-05,0
126.81,-0.00013713,0
126.81,-0.00019957,0
126.81,-0.00024355,0
126.82,-0.00025446,0
126.82,-0.00022509,0
126.82,-0.00015929,0
126.82,-8.2078e-05,0
126.82,-1.1917e-05,0
126.82,5.4551e-05,0
126.82,0.00011481,0
126.82,0.00012639,0
126.82,8.6946e-05,0
126.82,5.1194e-05,0
126.82,4.1459e-05,0
126.82,3.3402e-05,0
126.82,3.1891e-06,0
126.82,-4.5823e-05,0
126.82,-8.0735e-05,0
126.82,-6.1601e-05,0
126.82,7.7211e-06,0
126.82,7.9561e-05,0
126.82,0.00012337,0
126.83,0.00013948,0
126.83,0.0001415,0
126.83,0.00014301,0
126.83,0.00013948,0
126.83,0.00012186,0
126.83,9.1814e-05,0
126.83,6.7475e-05,0
126.83,5.7404e-05,0
126.83,5.3544e-05,0
126.83,4.5487e-05,0
126.83,3.1891e-05,0
126.83,2.6688e-05,0
126.83,3.4409e-05,0
126.83,4.0955e-05,0
126.83,3.743e-05,0
126.83,3.0716e-05,0
126.83,2.4002e-05,0
126.83,5.539e-06,0
126.83,-3.0381e-05,0
126.84,-7.7714e-05,0
126.84,-0.00013243,0
126.84,-0.00017154,0
126.84,-0.00016097,0
126.84,-0.00010306,0
126.84,-3.8102e-05,0
126.84,9.0639e-06,0
126.84,4.1291e-05,0
126.84,4.8173e-05,0
126.84,1.4435e-05,0
126.84,-4.4312e-05,0
126.84,-8.7953e-05,0
126.84,-8.8289e-05,0
126.84,-6.5965e-05,0
126.84,-6.0929e-05,0
126.84,-8.3421e-05,0
126.84,-0.00010625,0
126.84,-8.9464e-05,0
126.84,-2.9206e-05,0
126.84,4.2634e-05,0
126.85,0.00010323,0
126.85,0.00014855,0
126.85,0.00018497,0
126.85,0.00020192,0
126.85,0.00018816,0
126.85,0.00015627,0
126.85,0.00012874,0
126.85,0.00011464,0
126.85,0.00011078,0
126.85,0.00010323,0
126.85,7.8386e-05,0
126.85,4.3473e-05,0
126.85,1.2421e-05,0
126.85,-1.561e-05,0
126.85,-4.3137e-05,0
126.85,-5.2537e-05,0
126.85,-3.357e-05,0
126.85,-1.4939e-05,0
126.85,-4.8676e-06,0
126.86,1.8799e-05,0
126.86,5.0523e-05,0
126.86,6.2943e-05,0
126.86,4.9851e-05,0
126.86,2.652e-05,0
126.86,-4.8676e-06,0
126.86,-3.4241e-05,0
126.86,-2.9709e-05,0
126.86,-1.5778e-05,0
126.86,-4.0116e-05,0
126.86,-8.4428e-05,0
126.86,-9.6849e-05,0
126.86,-4.7669e-05,0
126.86,4.4816e-05,0
126.86,0.0001321,0
126.86,0.00018178,0
126.86,0.00018833,0
126.86,0.00016097,0
126.86,0.00012152,0
126.87,8.6275e-05,0
126.87,4.8005e-05,0
126.87,-1.6785e-05,0
126.87,-9.4163e-05,0
126.87,-0.00012773,0
126.87,-9.0471e-05,0
126.87,-5.0355e-06,0
126.87,8.5267e-05,0
126.87,0.00014334,0
126.87,0.00015677,0
126.87,0.0001373,0
126.87,0.00010507,0
126.87,7.1839e-05,0
126.87,4.4816e-05,0
126.87,3.0549e-05,0
126.87,2.4002e-05,0
126.87,3.8605e-06,0
126.87,-2.8031e-05,0
126.87,-3.357e-05,0
126.88,-2.182e-06,0
126.88,4.0452e-05,0
126.88,6.6636e-05,0
126.88,6.9993e-05,0
126.88,5.7237e-05,0
126.88,3.7766e-05,0
126.88,1.8799e-05,0
126.88,3.8605e-06,0
126.88,-1.5106e-06,0
126.88,6.8818e-06,0
126.88,2.3835e-05,0
126.88,3.8941e-05,0
126.88,5.6733e-05,0
126.88,8.6442e-05,0
126.88,0.00011733,0
126.88,0.00012874,0
126.88,0.00011867,0
126.88,0.00010356,0
126.88,9.3156e-05,0
126.88,7.6539e-05,0
126.89,4.3809e-05,0
126.89,2.182e-06,0
126.89,-3.6759e-05,0
126.89,-7.4357e-05,0
126.89,-0.00011867,0
126.89,-0.00016667,0
126.89,-0.00019622,0
126.89,-0.00019907,0
126.89,-0.0001942,0
126.89,-0.00019353,0
126.89,-0.0001895,0
126.89,-0.00017473,0
126.89,-0.0001274,0
126.89,-2.7527e-05,0
126.89,9.4331e-05,0
126.89,0.00017171,0
126.89,0.00018312,0
126.89,0.00015123,0
126.89,0.00011263,0
126.9,8.4932e-05,0
126.9,6.1601e-05,0
126.9,4.062e-05,0
126.9,2.9374e-05,0
