49.716,2.0981e-05,0
49.717,2.182e-05,0
49.717,1.5274e-05,0
49.718,6.8818e-06,0
49.718,-4.1962e-06,0
49.719,-1.7624e-05,0
49.719,-4.918e-05,0
49.72,-0.00012136,0
49.721,-0.00020494,0
49.721,-0.00023851,0
49.722,-0.00020645,0
49.722,-0.00013176,0
49.723,-1.7624e-05,0
49.723,0.00014015,0
49.724,0.00029038,0
49.724,0.00037212,0
49.725,0.0003738,0
49.725,0.00030834,0
49.726,0.00021065,0
49.726,0.00011917,0
49.727,6.1601e-05,0
49.727,3.978e-05,0
49.728,6.1265e-05,0
49.728,0.0001368,0
49.729,0.00023079,0
49.729,0.00027712,0
49.73,0.00025563,0
49.73,0.00019387,0
49.731,0.00013378,0
49.731,9.0135e-05,0
49.732,6.5629e-05,0
49.732,5.0523e-05,0
49.733,3.3738e-05,0
49.733,1.7792e-05,0
49.734,9.5674e-06,0
49.735,1.091e-05,0
49.735,1.8631e-05,0
49.736,2.9374e-05,0
49.736,4.2466e-05,0
49.737,5.9586e-05,0
49.737,7.2343e-05,0
49.738,5.3208e-05,0
49.738,-2.0645e-05,0
49.739,-0.0001472,0
49.739,-0.00028585,0
49.74,-0.00036524,0
49.74,-0.00034241,0
49.741,-0.0002553,0
49.741,-0.00015509,0
49.742,-2.9206e-05,0
49.742,0.00013344,0
49.743,0.00025631,0
49.743,0.00026789,0
49.744,0.00019756,0
49.744,0.00011196,0
49.745,5.3544e-05,0
49.745,3.0381e-05,0
49.746,3.0213e-05,0
49.746,2.9038e-05,0
49.747,1.6281e-05,0
49.748,-4.5319e-06,0
49.748,-2.9374e-05,0
49.749,-6.8818e-05,0
49.749,-0.00013613,0
49.75,-0.00020562,0
49.75,-0.00022928,0
49.751,-0.0001937,0
49.751,-0.00011766,0
49.752,-1.5946e-05,0
49.752,9.6513e-05,0
49.753,0.00018648,0
49.753,0.00023986,0
49.754,0.00026134,0
49.754,0.00023935,0
49.755,0.0001702,0
49.755,7.9057e-05,0
49.756,4.5319e-06,0
49.756,-3.5248e-05,0
49.757,-5.0187e-05,0
49.757,-3.978e-05,0
49.758,-5.8747e-06,0
49.758,2.7863e-05,0
49.759,4.7837e-05,0
49.759,5.3544e-05,0
49.76,4.918e-05,0
49.76,4.5823e-05,0
49.761,5.4215e-05,0
49.762,6.9657e-05,0
49.762,7.7882e-05,0
49.763,7.6707e-05,0
49.763,7.3014e-05,0
49.764,6.0929e-05,0
49.764,2.4506e-05,0
49.765,-4.2466e-05,0
49.765,-0.00011766,0
49.766,-0.00016466,0
49.766,-0.00017742,0
49.767,-0.00015778,0
49.767,-0.00012908,0
49.768,-0.00012689,0
49.768,-0.00013713,0
49.769,-0.00012438,0
49.769,-9.5171e-05,0
49.77,-7.5364e-05,0
49.77,-8.5771e-05,0
49.771,-8.3421e-05,0
49.771,-1.5442e-05,0
49.772,9.0806e-05,0
49.772,0.00016902,0
49.773,0.00018329,0
49.773,0.0001514,0
49.774,0.00012454,0
49.775,0.0001227,0
49.775,0.00011128,0
49.776,8.0903e-05,0
49.776,5.623e-05,0
49.777,4.5823e-05,0
49.777,3.7766e-05,0
49.778,3.9948e-05,0
49.778,5.0523e-05,0
49.779,5.2201e-05,0
49.779,6.0929e-05,0
49.78,9.5842e-05,0
49.78,0.00011531,0
49.781,5.623e-05,0
49.781,-6.479e-05,0
49.782,-0.00015711,0
49.782,-0.00017339,0
49.783,-0.00013562,0
49.783,-7.0329e-05,0
49.784,1.5106e-05,0
49.784,0.00012001,0
49.785,0.00019924,0
49.785,0.00021065,0
49.786,0.00015828,0
49.786,8.1407e-05,0
49.787,2.8702e-05,0
49.787,6.8818e-06,0
49.788,-1.1078e-05,0
49.789,-5.9251e-05,0
49.789,-0.00013965,0
49.79,-0.00022676,0
49.79,-0.00028585,0
49.791,-0.00027729,0
49.791,-0.00019538,0
49.792,-6.0594e-05,0
49.792,9.8863e-05,0
49.793,0.00025866,0
49.793,0.00038589,0
49.794,0.00042885,0
49.794,0.00037346,0
49.795,0.00026806,0
49.795,0.00016265,0
49.796,8.1071e-05,0
49.796,3.5248e-05,0
49.797,2.3163e-05,0
49.797,2.3331e-05,0
49.798,1.0575e-05,0
49.798,-2.1149e-05,0
49.799,-5.069e-05,0
49.799,-6.2608e-05,0
49.8,-7.3014e-05,0
49.8,-0.00011699,0
49.801,-0.0002078,0
49.801,-0.00028484,0
49.802,-0.00028837,0
49.803,-0.00022173,0
49.803,-0.00011716,0
49.804,2.8534e-06,0
49.804,0.00013747,0
49.805,0.00027611,0
49.805,0.00037984,0
49.806,0.00039831,0
49.806,0.00033133,0
49.807,0.00023012,0
49.807,0.00013881,0
49.808,6.865e-05,0
49.808,2.031e-05,0
49.809,-1.1749e-06,0
49.809,-1.0071e-06,0
49.81,5.2033e-06,0
49.81,7.8889e-06,0
49.811,2.182e-06,0
49.811,-2.6688e-05,0
49.812,-8.0735e-05,0
49.812,-0.00013361,0
49.813,-0.00015576,0
49.813,-0.00014788,0
49.814,-0.00012488,0
49.814,-8.8792e-05,0
49.815,-2.5681e-05,0
49.816,5.8244e-05,0
49.816,0.00010826,0
49.817,0.00010256,0
49.817,6.6636e-05,0
49.818,3.0716e-05,0
49.818,4.6998e-06,0
49.819,-6.0426e-06,0
49.819,-1.8463e-06,0
49.82,1.796e-05,0
49.82,5.1865e-05,0
49.821,8.6778e-05,0
49.821,0.00010071,0
49.822,7.3854e-05,0
49.822,2.2492e-05,0
49.823,-2.0813e-05,0
49.823,-4.8005e-05,0
49.824,-6.8482e-05,0
49.824,-8.5771e-05,0
49.825,-9.0135e-05,0
49.825,-6.7308e-05,0
49.826,-1.7288e-05,0
49.826,4.062e-05,0
49.827,7.5868e-05,0
49.827,8.2918e-05,0
49.828,8.4428e-05,0
49.828,8.7114e-05,0
49.829,8.3085e-05,0
49.83,7.335e-05,0
49.83,6.009e-05,0
49.831,4.8005e-05,0
49.831,4.3305e-05,0
49.832,4.1291e-05,0
49.832,3.0716e-05,0
49.833,1.4267e-05,0
49.833,2.5177e-06,0
49.834,-1.5106e-06,0
49.834,8.3925e-07,0
49.835,2.182e-06,0
49.835,5.2033e-06,0
49.836,1.1078e-05,0
49.836,6.2104e-06,0
49.837,-1.8296e-05,0
49.837,-6.7979e-05,0
49.838,-0.00013512,0
49.838,-0.0001942,0
49.839,-0.0002318,0
49.839,-0.00024842,0
49.84,-0.0002323,0
49.84,-0.00017758,0
49.841,-0.0001034,0
49.841,-2.8367e-05,0
49.842,4.6159e-05,0
49.843,0.00012068,0
49.843,0.00017826,0
49.844,0.00022509,0
49.844,0.00026,0
49.845,0.00026386,0
49.845,0.00024086,0
49.846,0.00018984,0
49.846,0.00013579,0
49.847,0.00011498,0
49.847,0.00014267,0
49.848,0.00018581,0
49.848,0.00019185,0
49.849,0.00016181,0
49.849,0.00012706,0
49.85,0.00010994,0
49.85,0.00010188,0
49.851,8.9799e-05,0
49.851,8.1575e-05,0
49.852,8.275e-05,0
49.852,7.3686e-05,0
49.853,4.5151e-05,0
49.853,4.1962e-06,0
49.854,-5.623e-05,0
49.854,-0.00011632,0
49.855,-0.00014385,0
49.855,-0.00013495,0
49.856,-0.00010625,0
49.857,-7.0832e-05,0
49.857,-1.9806e-05,0
49.858,4.3305e-05,0
49.858,8.6107e-05,0
49.859,9.1814e-05,0
49.859,7.4022e-05,0
49.86,5.4551e-05,0
49.86,4.0452e-05,0
49.861,3.6591e-05,0
49.861,2.0981e-05,0
49.862,-2.7863e-05,0
49.862,-8.5603e-05,0
49.863,-0.00012068,0
49.863,-0.00011716,0
49.864,-0.00010037,0
49.864,-0.00012001,0
49.865,-0.00018967,0
49.865,-0.00027913,0
49.866,-0.00033704,0
49.866,-0.00032563,0
49.867,-0.00026201,0
49.867,-0.00018044,0
49.868,-7.2007e-05,0
49.868,9.0806e-05,0
49.869,0.00026436,0
49.87,0.00036876,0
49.87,0.00036641,0
49.871,0.0002835,0
49.871,0.00015006,0
49.872,1.0575e-05,0
49.872,-6.6972e-05,0
49.873,-6.7475e-05,0
49.873,-3.6423e-05,0
49.874,-2.8534e-06,0
49.874,2.4338e-05,0
49.875,3.2059e-05,0
49.875,4.7501e-05,0
49.876,9.2485e-05,0
49.876,0.00013411,0
49.877,0.00013411,0
49.877,0.00010726,0
49.878,0.00011061,0
49.878,0.00015291,0
49.879,0.00018917,0
49.879,0.000189,0
49.88,0.00015929,0
49.88,0.00012068,0
49.881,9.3828e-05,0
49.881,7.9057e-05,0
49.882,6.3279e-05,0
49.883,3.9109e-05,0
49.883,9.0639e-06,0
49.884,-2.7863e-05,0
49.884,-7.2679e-05,0
49.885,-0.00010558,0
49.885,-9.7185e-05,0
49.886,-4.8508e-05,0
49.886,1.6785e-07,0
49.887,2.9374e-05,0
49.887,4.448e-05,0
49.888,5.4047e-05,0
49.888,5.388e-05,0
49.889,2.8702e-05,0
49.889,-8.2246e-06,0
49.89,-2.6352e-05,0
49.89,-2.887e-05,0
49.891,-3.4409e-05,0
49.891,-4.6159e-05,0
49.892,-5.7404e-05,0
49.892,-6.3615e-05,0
49.893,-6.0761e-05,0
49.893,-4.8173e-05,0
49.894,-2.4002e-05,0
49.894,1.4603e-05,0
49.895,5.2537e-05,0
49.895,6.5629e-05,0
49.896,5.0858e-05,0
49.897,1.9638e-05,0
49.897,-1.1749e-05,0
49.898,-3.7263e-05,0
49.898,-7.0329e-05,0
49.899,-0.00010658,0
49.899,-0.00011447,0
49.9,-7.7714e-05,0
49.9,-1.6953e-05,0
49.901,2.9038e-05,0
49.901,4.8844e-05,0
49.902,7.2679e-05,0
49.902,0.00011263,0
49.903,0.0001462,0
49.903,0.00015694,0
49.904,0.00016365,0
49.904,0.00018044,0
49.905,0.00018648,0
49.905,0.00016751,0
49.906,0.00013394,0
49.906,9.5171e-05,0
49.907,5.2873e-05,0
49.907,1.5946e-05,0
49.908,-9.9031e-06,0
49.908,-2.8702e-05,0
49.909,-5.1698e-05,0
49.91,-8.2078e-05,0
49.91,-0.00010726,0
49.911,-0.00012924,0
49.911,-0.00017842,0
49.912,-0.00028434,0
49.912,-0.00040267,0
49.913,-0.0004401,0
49.913,-0.00036675,0
49.914,-0.00024254,0
49.914,-0.00011699,0
49.915,3.6255e-05,0
49.915,0.00024372,0
49.916,0.00044295,0
49.916,0.00052285,0
49.917,0.00045353,0
49.917,0.00032747,0
49.918,0.00024338,0
49.918,0.00019974,0
49.919,0.00015341,0
49.919,0.00010356,0
49.92,7.1336e-05,0
49.92,5.9419e-05,0
49.921,5.7572e-05,0
49.921,5.2705e-05,0
49.922,4.2802e-05,0
49.922,3.2395e-05,0
49.923,2.1149e-05,0
49.924,6.3783e-06,0
49.924,-1.5778e-05,0
49.925,-3.4409e-05,0
49.925,-4.1291e-05,0
49.926,-3.7766e-05,0
49.926,-3.0549e-05,0
49.927,-1.796e-05,0
49.927,3.8605e-06,0
49.928,2.266e-05,0
49.928,3.1388e-05,0
49.929,2.8702e-05,0
49.929,1.326e-05,0
49.93,-1.0239e-05,0
49.93,-4.5319e-05,0
49.931,-9.9702e-05,0
49.931,-0.0001707,0
49.932,-0.0002412,0
49.932,-0.00027947,0
49.933,-0.00024942,0
49.933,-0.00015828,0
49.934,-4.8005e-05,0
49.934,6.0594e-05,0
49.935,0.00015962,0
49.935,0.00022945,0
49.936,0.00026369,0
49.937,0.00026604,0
49.937,0.00022391,0
49.938,0.00015727,0
49.938,0.00011565,0
49.939,0.00010726,0
49.939,0.00010558,0
49.94,0.00010054,0
49.94,0.00010188,0
49.941,0.00010423,0
49.941,8.9128e-05,0
49.942,6.4286e-05,0
49.942,4.1627e-05,0
49.943,1.4099e-05,0
49.943,-2.0813e-05,0
49.944,-5.9251e-05,0
49.944,-9.8863e-05,0
49.945,-0.00014217,0
49.945,-0.00017339,0
49.946,-0.00016919,0
49.946,-0.00013159,0
49.947,-8.0903e-05,0
49.947,-2.9709e-05,0
49.948,1.1582e-05,0
49.948,3.3066e-05,0
49.949,3.592e-05,0
49.949,1.9974e-05,0
49.95,-2.0142e-06,0
49.951,-1.4435e-05,0
49.951,-2.5345e-05,0
49.952,-3.9948e-05,0
49.952,-5.069e-05,0
49.953,-3.8437e-05,0
49.953,4.5319e-06,0
49.954,4.9851e-05,0
49.954,7.1e-05,0
49.955,5.8915e-05,0
49.955,2.4338e-05,0
49.956,-3.5248e-06,0
49.956,-1.5274e-05,0
49.957,-2.3835e-05,0
49.957,-2.8031e-05,0
49.958,-6.8818e-06,0
49.958,3.1891e-05,0
49.959,7.0832e-05,0
49.959,0.00011112,0
49.96,0.00014804,0
49.96,0.00016835,0
49.961,0.00016768,0
49.961,0.00014418,0
49.962,0.00010507,0
49.962,7.7546e-05,0
49.963,6.8818e-05,0
49.964,6.3279e-05,0
49.964,5.4887e-05,0
49.965,4.9516e-05,0
49.965,4.683e-05,0
49.966,4.2802e-05,0
49.966,3.5248e-05,0
49.967,2.3331e-05,0
49.967,1.0239e-05,0
49.968,6.714e-07,0
49.968,-5.2033e-06,0
49.969,-9.2317e-06,0
49.969,-1.091e-05,0
49.97,-1.091e-05,0
49.97,-1.1749e-05,0
49.971,-1.5442e-05,0
49.971,-1.7792e-05,0
49.972,-1.6449e-05,0
49.972,-1.5106e-05,0
49.973,-1.7456e-05,0
49.973,-2.8031e-05,0
49.974,-4.8005e-05,0
49.974,-6.4622e-05,0
49.975,-6.6636e-05,0
49.975,-6.1936e-05,0
49.976,-6.5797e-05,0
49.976,-8.04e-05,0
49.977,-8.896e-05,0
49.978,-8.04e-05,0
49.978,-5.5558e-05,0
49.979,-2.8534e-05,0
49.979,-2.1317e-05,0
49.98,-3.6591e-05,0
49.98,-4.9516e-05,0
49.981,-2.1149e-05,0
49.981,2.2995e-05,0
49.982,1.796e-05,0
49.982,-3.0716e-05,0
49.983,-6.3447e-05,0
49.983,-5.4887e-05,0
49.984,-1.9806e-05,0
49.984,2.031e-05,0
49.985,6.6636e-05,0
49.985,0.00013512,0
49.986,0.00022794,0
49.986,0.00030901,0
49.987,0.00033251,0
49.987,0.00031522,0
49.988,0.00029625,0
49.988,0.00027141,0
49.989,0.00021535,0
49.989,0.00014418,0
49.99,8.3421e-05,0
49.99,3.8102e-05,0
49.991,6.8818e-06,0
49.992,-1.0742e-05,0
49.992,-1.8631e-05,0
49.993,-1.5442e-05,0
49.993,-1.8463e-06,0
49.994,5.2033e-06,0
49.994,-8.7282e-06,0
49.995,-3.2731e-05,0
49.995,-4.8508e-05,0
49.996,-5.304e-05,0
49.996,-5.2705e-05,0
49.997,-5.0019e-05,0
49.997,-4.3977e-05,0
49.998,-4.4816e-05,0
49.998,-6.8818e-05,0
49.999,-0.00012018,0
49.999,-0.00018631,0
50,-0.00025463,0
50,-0.0003122,0
50.001,-0.00031992,0
50.001,-0.00026067,0
50.002,-0.00015425,0
50.002,-1.2924e-05,0
50.003,0.00014183,0
50.003,0.00027141,0
50.004,0.00033285,0
50.005,0.00031673,0
50.005,0.00025496,0
50.006,0.0001895,0
50.006,0.00014905,0
50.007,0.00013294,0
50.007,0.0001133,0
50.008,6.9993e-05,0
50.008,7.5532e-06,0
50.009,-5.5558e-05,0
50.009,-0.00010994,0
50.01,-0.00014485,0
50.01,-0.00015509,0
50.011,-0.0001425,0
50.011,-0.00011565,0
50.012,-9.3828e-05,0
50.012,-7.7379e-05,0
50.013,-4.3137e-05,0
50.013,1.0575e-05,0
50.014,6.8315e-05,0
50.014,0.00013008,0
50.015,0.00019168,0
50.015,0.00024036,0
50.016,0.00025798,0
50.016,0.00022542,0
50.017,0.00015056,0
50.017,6.2608e-05,0
50.018,-8.3925e-06,0
50.019,-4.1627e-05,0
50.019,-3.8605e-05,0
50.02,-1.3931e-05,0
50.02,2.652e-05,0
50.021,7.57e-05,0
50.021,0.00011196,0
50.022,0.00011867,0
50.022,8.6778e-05,0
50.023,2.5345e-05,0
50.023,-2.6688e-05,0
50.024,-3.743e-05,0
50.024,-1.561e-05,0
50.025,1.3931e-05,0
50.025,3.122e-05,0
50.026,2.5345e-05,0
50.026,3.6927e-06,0
50.027,-9.2317e-06,0
50.027,-1.1582e-05,0
50.028,-2.266e-05,0
50.028,-3.122e-05,0
50.029,-1.5946e-05,0
50.029,2.0981e-05,0
50.03,6.0594e-05,0
50.03,7.6371e-05,0
50.031,6.63e-05,0
50.032,4.8173e-05,0
50.032,3.2395e-05,0
50.033,2.2324e-05,0
50.033,2.0142e-05,0
50.034,3.2059e-05,0
50.034,5.304e-05,0
50.035,6.3447e-05,0
50.035,5.5558e-05,0
50.036,3.3906e-05,0
50.036,9.7353e-06,0
50.037,-8.2246e-06,0
50.037,-2.1653e-05,0
50.038,-3.8437e-05,0
50.038,-5.623e-05,0
50.039,-6.63e-05,0
50.039,-6.8482e-05,0
50.04,-7.2007e-05,0
50.04,-7.7043e-05,0
50.041,-7.7379e-05,0
50.041,-7.1336e-05,0
50.042,-5.1865e-05,0
50.042,-2.031e-05,0
50.043,6.714e-07,0
50.043,-3.0213e-06,0
50.044,-1.2757e-05,0
50.044,-1.9303e-05,0
50.045,-2.6352e-05,0
50.046,-2.5345e-05,0
50.046,-8.896e-06,0
50.047,1.8967e-05,0
50.047,4.8844e-05,0
50.048,6.8986e-05,0
50.048,6.6972e-05,0
50.049,3.2731e-05,0
50.049,-3.827e-05,0
50.05,-0.00012337,0
50.05,-0.00016852,0
50.051,-0.00014972,0
50.051,-7.4357e-05,0
50.052,3.5752e-05,0
50.052,0.00015425,0
50.053,0.00026554,0
50.053,0.00035282,0
50.054,0.00037581,0
50.054,0.00031522,0
50.055,0.00022123,0
50.055,0.0001415,0
50.056,7.57e-05,0
50.056,1.7288e-05,0
50.057,-2.3667e-05,0
50.057,-3.8941e-05,0
50.058,-3.3738e-05,0
50.059,-2.3667e-05,0
50.059,-1.796e-05,0
50.06,-1.1246e-05,0
50.06,-3.357e-06,0
50.061,-1.6785e-06,0
50.061,-1.6281e-05,0
50.062,-4.4144e-05,0
50.062,-6.5797e-05,0
50.063,-6.865e-05,0
50.063,-5.6565e-05,0
50.064,-3.6423e-05,0
50.064,-3.357e-06,0
50.065,3.9277e-05,0
50.065,6.1601e-05,0
50.066,6.0258e-05,0
50.066,4.918e-05,0
50.067,-6.714e-07,0
50.067,-8.6946e-05,0
50.068,-0.00015006,0
50.068,-0.00014955,0
50.069,-0.00011934,0
50.069,-0.00011699,0
50.07,-0.00015174,0
50.07,-0.00017406,0
50.071,-0.00015258,0
50.072,-0.00010256,0
50.072,-4.0452e-05,0
50.073,4.5487e-05,0
50.073,0.00015828,0
50.074,0.00026671,0
50.074,0.00033822,0
50.075,0.0003738,0
50.075,0.00034191,0
50.076,0.00024254,0
50.076,0.00014754,0
50.077,9.5171e-05,0
50.077,6.8315e-05,0
50.078,4.6326e-05,0
50.078,3.0716e-05,0
50.079,2.887e-05,0
50.079,3.3066e-05,0
50.08,3.1891e-05,0
50.08,2.5345e-05,0
50.081,1.9806e-05,0
50.081,1.4267e-05,0
50.082,4.0284e-06,0
50.082,-1.0239e-05,0
50.083,-2.2324e-05,0
50.083,-2.9541e-05,0
50.084,-3.5584e-05,0
50.084,-4.8341e-05,0
50.085,-6.3447e-05,0
50.086,-6.0594e-05,0
50.086,-1.8631e-05,0
50.087,5.0019e-05,0
50.087,0.00010222,0
50.088,0.00010927,0
50.088,7.4357e-05,0
50.089,2.4674e-05,0
50.089,-2.266e-05,0
50.09,-8.6442e-05,0
50.09,-0.00017842,0
50.091,-0.00026033,0
50.091,-0.00028232,0
50.092,-0.00024422,0
50.092,-0.00017339,0
50.093,-8.3925e-05,0
50.093,2.4842e-05,0
50.094,0.00014653,0
50.094,0.00024422,0
50.095,0.0002798,0
50.095,0.00024556,0
50.096,0.00016701,0
50.096,8.4092e-05,0
50.097,2.8702e-05,0
50.097,-7.2175e-06,0
50.098,-5.9586e-05,0
50.099,-0.00012152,0
50.099,-0.00016164,0
50.1,-0.00016818,0
50.1,-0.00013277,0
50.101,-5.9586e-05,0
50.101,1.6449e-05,0
50.102,8.5435e-05,0
50.102,0.00018077,0
50.103,0.00029239,0
50.103,0.00036138,0
50.104,0.00034493,0
50.104,0.00025731,0
50.105,0.00015425,0
50.105,8.4932e-05,0
50.106,5.4719e-05,0
50.106,4.2634e-05,0
50.107,3.2731e-05,0
50.107,2.2995e-05,0
50.108,8.5603e-06,0
50.108,-1.1414e-05,0
50.109,-2.5345e-05,0
50.109,-2.7359e-05,0
50.11,-2.1317e-05,0
50.11,-1.6953e-05,0
50.111,-3.9445e-05,0
50.111,-0.00010524,0
50.112,-0.00016701,0
50.113,-0.0001754,0
50.113,-0.00013831,0
50.114,-8.4764e-05,0
50.114,-1.4099e-05,0
50.115,7.7043e-05,0
50.115,0.00017339,0
50.116,0.0002511,0
50.116,0.00025866,0
50.117,0.0001655,0
50.117,3.3402e-05,0
50.118,-6.6972e-05,0
50.118,-0.00012253,0
50.119,-0.00014183,0
50.119,-0.00013176,0
50.12,-0.00010927,0
50.12,-7.9728e-05,0
50.121,-3.8605e-05,0
50.121,9.2317e-06,0
50.122,5.8412e-05,0
50.122,0.00011414,0
50.123,0.00015862,0
50.123,0.00015979,0
50.124,0.00011867,0
50.124,6.1936e-05,0
50.125,2.0813e-05,0
50.126,5.7069e-06,0
50.126,3.8605e-06,0
50.127,5.0355e-07,0
50.127,-5.539e-06,0
50.128,-8.7282e-06,0
50.128,-5.8747e-06,0
50.129,-3.0213e-06,0
50.129,-4.8676e-06,0
50.13,-1.5778e-05,0
50.13,-4.3473e-05,0
50.131,-7.9393e-05,0
50.131,-9.3156e-05,0
50.132,-7.2175e-05,0
50.132,-3.6591e-05,0
50.133,-2.8534e-06,0
50.133,3.4241e-05,0
50.134,7.6371e-05,0
50.134,0.00011061,0
50.135,0.00011666,0
50.135,9.0974e-05,0
50.136,5.8244e-05,0
50.136,3.4409e-05,0
50.137,1.4099e-05,0
50.137,-2.8534e-06,0
50.138,-1.3428e-05,0
50.138,-1.0239e-05,0
50.139,-3.357e-07,0
50.14,3.8605e-06,0
50.14,-8.3925e-07,0
50.141,-7.0497e-06,0
50.141,-6.0426e-06,0
50.142,-2.3499e-06,0
50.142,-4.0284e-06,0
50.143,-7.5532e-06,0
50.143,-1.1749e-05,0
50.144,-1.9471e-05,0
50.144,-3.4913e-05,0
50.145,-4.2466e-05,0
50.145,-2.266e-05,0
50.146,1.1582e-05,0
50.146,3.0045e-05,0
50.147,1.9303e-05,0
50.147,-3.1891e-05,0
50.148,-0.00011498,0
50.148,-0.00019252,0
50.149,-0.00022358,0
50.149,-0.00020394,0
50.15,-0.00016399,0
50.15,-0.00015241,0
50.151,-0.00016298,0
50.151,-0.00013159,0
50.152,-2.9038e-05,0
50.153,9.9535e-05,0
50.153,0.00017977,0
50.154,0.00019689,0
50.154,0.00021837,0
50.155,0.00031136,0
50.155,0.00044698,0
50.156,0.00050103,0
50.156,0.00040569,0
50.157,0.00025866,0
50.157,0.00018849,0
50.158,0.00019722,0
50.158,0.00020629,0
50.159,0.00017876,0
50.159,0.00013579,0
50.16,0.00010021,0
50.16,7.4693e-05,0
50.161,5.8747e-05,0
50.161,4.9012e-05,0
50.162,3.7095e-05,0
50.162,2.5345e-05,0
50.163,1.5778e-05,0
50.163,5.8747e-06,0
50.164,-4.1962e-06,0
50.164,-1.4267e-05,0
50.165,-2.501e-05,0
50.165,-4.8844e-05,0
50.166,-0.00010541,0
50.167,-0.00017205,0
50.167,-0.0002135,0
50.168,-0.00022576,0
50.168,-0.00022274,0
50.169,-0.00020729,0
50.169,-0.00016466,0
50.17,-8.2414e-05,0
50.17,2.7359e-05,0
50.171,0.00012236,0
50.171,0.00017675,0
50.172,0.00020259,0
50.172,0.00020494,0
50.173,0.00017809,0
50.173,0.00012706,0
50.174,7.4022e-05,0
50.174,4.9851e-05,0
50.175,5.388e-05,0
50.175,5.7572e-05,0
50.176,4.2802e-05,0
50.176,1.4099e-05,0
50.177,-1.4603e-05,0
50.177,-3.1891e-05,0
50.178,-4.4816e-05,0
50.178,-6.3279e-05,0
50.179,-7.8721e-05,0
50.179,-8.4428e-05,0
50.18,-8.3085e-05,0
50.181,-9.366e-05,0
50.181,-0.00010457,0
50.182,-8.3757e-05,0
50.182,-4.2298e-05,0
50.183,-1.1917e-05,0
50.183,-8.3925e-07,0
50.184,6.3783e-06,0
50.184,1.6449e-05,0
50.185,2.2324e-05,0
50.185,2.1317e-05,0
50.186,2.501e-05,0
50.186,3.9109e-05,0
50.187,5.2873e-05,0
50.187,5.7572e-05,0
50.188,4.7501e-05,0
50.188,2.9374e-05,0
50.189,1.8463e-06,0
50.189,-3.7934e-05,0
50.19,-7.4525e-05,0
50.19,-8.7953e-05,0
50.191,-7.1672e-05,0
50.191,-4.7669e-05,0
50.192,-3.508e-05,0
50.192,-3.2059e-05,0
50.193,-2.0645e-05,0
50.194,2.6017e-05,0
50.194,8.8457e-05,0
50.195,0.00012656,0
50.195,0.0001284,0
50.196,0.00010961,0
50.196,9.4667e-05,0
50.197,9.7688e-05,0
50.197,0.00011061,0
50.198,0.00011196,0
50.198,9.0471e-05,0
50.199,5.9586e-05,0
50.199,3.4409e-05,0
50.2,2.0981e-05,0
50.2,1.5274e-05,0
50.201,1.091e-05,0
50.201,5.2033e-06,0
50.202,3.8605e-06,0
50.202,7.8889e-06,0
50.203,5.8747e-06,0
50.203,-1.5778e-05,0
50.204,-6.0426e-05,0
50.204,-0.00011699,0
50.205,-0.00016399,0
50.205,-0.00018682,0
50.206,-0.00018598,0
50.206,-0.00014485,0
50.207,-5.7908e-05,0
50.208,3.8773e-05,0
50.208,0.00010692,0
50.209,0.00013881,0
50.209,0.00014435,0
50.21,0.00010776,0
50.21,3.2059e-05,0
50.211,-2.2324e-05,0
50.211,-1.9471e-05,0
50.212,1.2589e-05,0
50.212,4.5487e-05,0
50.213,9.5171e-05,0
50.213,0.00017842,0
50.214,0.00026067,0
50.214,0.00028048,0
50.215,0.00022609,0
50.215,0.00015291,0
50.216,0.00010188,0
50.216,6.6636e-05,0
50.217,3.4913e-05,0
50.217,7.8889e-06,0
50.218,-9.5674e-06,0
50.218,-2.0981e-05,0
50.219,-3.0213e-05,0
50.219,-3.5752e-05,0
50.22,-3.5752e-05,0
50.221,-3.508e-05,0
50.221,-3.743e-05,0
50.222,-4.1123e-05,0
50.222,-4.8341e-05,0
50.223,-7.7379e-05,0
50.223,-0.00014166,0
50.224,-0.00020562,0
50.224,-0.00022408,0
50.225,-0.00019454,0
50.225,-0.00013663,0
50.226,-7.1672e-05,0
50.226,-5.2033e-06,0
50.227,5.623e-05,0
50.227,9.6513e-05,0
50.228,0.00012287,0
50.228,0.00015996,0
50.229,0.0002078,0
50.229,0.00023667,0
50.23,0.00022206,0
50.23,0.00018413,0
50.231,0.00016063,0
50.231,0.00014922,0
50.232,0.00013008,0
50.232,0.00011061,0
50.233,0.00010037,0
50.233,8.9128e-05,0
50.234,7.1e-05,0
50.235,5.153e-05,0
50.235,3.6088e-05,0
50.236,2.2324e-05,0
50.236,8.5603e-06,0
50.237,-3.357e-06,0
50.237,-1.0071e-05,0
50.238,-1.4603e-05,0
50.238,-2.2156e-05,0
50.239,-2.7359e-05,0
50.239,-2.501e-05,0
50.24,-2.0645e-05,0
50.24,-2.3667e-05,0
50.241,-3.8437e-05,0
50.241,-5.5894e-05,0
50.242,-6.3279e-05,0
50.242,-7.2511e-05,0
50.243,-9.9031e-05,0
50.243,-0.00012807,0
50.244,-0.00013512,0
50.244,-0.00012203,0
50.245,-0.00010423,0
50.245,-8.6778e-05,0
50.246,-6.3783e-05,0
50.246,-2.6352e-05,0
50.247,1.9974e-05,0
50.248,4.8676e-05,0
50.248,2.1317e-05,0
50.249,-8.1071e-05,0
50.249,-0.00020024,0
50.25,-0.00026436,0
50.25,-0.0002647,0
50.251,-0.00021955,0
50.251,-0.00012505,0
50.252,1.8296e-05,0
50.252,0.00018917,0
50.253,0.00035097,0
50.253,0.00044228,0
50.254,0.00042684,0
50.254,0.00035064,0
50.255,0.00027494,0
50.255,0.00021988,0
50.256,0.00017842,0
50.256,0.00014536,0
50.257,0.00011632,0
50.257,8.5771e-05,0
50.258,4.8844e-05,0
50.258,-3.8605e-06,0
50.259,-6.6636e-05,0
50.259,-0.00011095,0
50.26,-0.00012018,0
50.261,-0.00012136,0
50.261,-0.00013143,0
50.262,-0.0001138,0
50.262,-5.0523e-05,0
50.263,2.4002e-05,0
50.263,8.04e-05,0
50.264,0.00010491,0
50.264,0.00010121,0
50.265,8.2078e-05,0
50.265,6.0761e-05,0
50.266,5.2201e-05,0
50.266,6.4286e-05,0
50.267,8.5771e-05,0
50.267,8.9799e-05,0
50.268,5.9922e-05,0
50.268,1.6617e-05,0
50.269,-6.714e-06,0
50.269,-6.2104e-06,0
50.27,5.2033e-06,0
50.27,1.2924e-05,0
50.271,6.5461e-06,0
50.271,-1.1582e-05,0
50.272,-3.508e-05,0
50.272,-6.6972e-05,0
50.273,-9.8192e-05,0
50.273,-0.00010927,0
50.274,-9.0974e-05,0
50.275,-5.7404e-05,0
50.275,-2.2156e-05,0
50.276,6.0426e-06,0
50.276,3.0381e-05,0
50.277,5.4047e-05,0
50.277,5.9922e-05,0
50.278,4.0452e-05,0
50.278,1.091e-05,0
50.279,-4.8676e-06,0
50.279,6.2104e-06,0
50.28,3.743e-05,0
50.28,6.7979e-05,0
50.281,7.5029e-05,0
50.281,6.4118e-05,0
50.282,5.7572e-05,0
50.282,5.7069e-05,0
50.283,4.918e-05,0
50.283,3.8102e-05,0
50.284,3.7934e-05,0
50.284,4.918e-05,0
50.285,6.5629e-05,0
50.285,7.9728e-05,0
50.286,8.6946e-05,0
50.286,8.3085e-05,0
50.287,7.2679e-05,0
50.288,6.2608e-05,0
50.288,5.6901e-05,0
50.289,5.388e-05,0
50.289,4.8508e-05,0
50.29,4.0955e-05,0
50.29,3.4745e-05,0
50.291,3.0549e-05,0
50.291,1.7624e-05,0
50.292,-1.2757e-05,0
50.292,-4.2466e-05,0
50.293,-4.6494e-05,0
50.293,-3.6591e-05,0
50.294,-3.9109e-05,0
50.294,-6.1265e-05,0
50.295,-8.5435e-05,0
50.295,-9.1646e-05,0
50.296,-7.8721e-05,0
50.296,-5.4215e-05,0
50.297,-1.9806e-05,0
50.297,1.9638e-05,0
50.298,6.8818e-05,0
50.298,0.00010893,0
50.299,0.00010172,0
50.299,4.1794e-05,0
50.3,-1.9135e-05,0
50.3,-2.5345e-05,0
50.301,1.2589e-05,0
50.302,4.3809e-05,0
50.302,4.7333e-05,0
50.303,3.0381e-05,0
50.303,1.7624e-05,0
50.304,2.4338e-05,0
50.304,4.2802e-05,0
50.305,6.1601e-05,0
50.305,7.7379e-05,0
50.306,9.8527e-05,0
50.306,0.0001237,0
50.307,0.00013881,0
50.307,0.00013411,0
50.308,0.00011984,0
50.308,0.0001086,0
50.309,9.8527e-05,0
50.309,8.3925e-05,0
50.31,6.6972e-05,0
50.31,5.1194e-05,0
50.311,2.9709e-05,0
50.311,-2.5177e-06,0
50.312,-3.978e-05,0
50.312,-8.8792e-05,0
50.313,-0.00018279,0
50.313,-0.00031186,0
50.314,-0.00040955,0
50.315,-0.00043053,0
50.315,-0.00037346,0
50.316,-0.00027276,0
50.316,-0.00015207,0
50.317,-8.3925e-07,0
50.317,0.00017121,0
50.318,0.00030062,0
50.318,0.00033788,0
50.319,0.00030045,0
50.319,0.00022139,0
50.32,0.00014603,0
50.32,0.00011531,0
50.321,0.00011598,0
50.321,0.00011431,0
50.322,0.00010658,0
50.322,0.00010105,0
50.323,8.7114e-05,0
50.323,5.8915e-05,0
50.324,2.9206e-05,0
50.324,1.1078e-05,0
50.325,4.5319e-06,0
50.325,1.3428e-06,0
50.326,-4.5319e-06,0
50.326,-1.6281e-05,0
50.327,-4.8508e-05,0
50.327,-0.00011347,0
50.328,-0.00017775,0
50.329,-0.00020008,0
50.329,-0.00016886,0
50.33,-0.00010994,0
50.33,-4.6494e-05,0
50.331,1.8463e-05,0
50.331,8.1743e-05,0
50.332,0.00012773,0
50.332,0.00014586,0
50.333,0.00012857,0
50.333,8.04e-05,0
50.334,4.7501e-05,0
50.334,6.5965e-05,0
50.335,0.00012169,0
50.335,0.00017641,0
50.336,0.00020645,0
50.336,0.00019857,0
50.337,0.00014351,0
50.337,6.0929e-05,0
50.338,-6.2104e-06,0
50.338,-4.1794e-05,0
50.339,-5.3376e-05,0
50.339,-4.3809e-05,0
50.34,-1.8967e-05,0
50.34,1.3092e-05,0
50.341,5.0523e-05,0
50.342,8.5771e-05,0
50.342,0.00010726,0
50.343,0.00010726,0
50.343,9.1478e-05,0
50.344,7.4189e-05,0
50.344,5.7237e-05,0
50.345,3.0884e-05,0
50.345,-1.091e-05,0
50.346,-5.9922e-05,0
50.346,-0.00010423,0
50.347,-0.0001368,0
50.347,-0.00014083,0
50.348,-9.836e-05,0
50.348,-2.2828e-05,0
50.349,4.1794e-05,0
50.349,6.5461e-05,0
50.35,5.7572e-05,0
50.35,3.6759e-05,0
50.351,4.1962e-06,0
50.351,-2.7192e-05,0
50.352,-4.0116e-05,0
50.352,-4.8173e-05,0
50.353,-6.6133e-05,0
50.353,-8.1407e-05,0
50.354,-8.2078e-05,0
50.354,-7.3518e-05,0
50.355,-5.4887e-05,0
50.356,-2.8199e-05,0
50.356,-1.1749e-06,0
50.357,2.8031e-05,0
50.357,7.0665e-05,0
50.358,0.00010961,0
50.358,0.00010692,0
50.359,6.1936e-05,0
50.359,1.4267e-05,0
50.36,-1.2924e-05,0
50.36,-2.7192e-05,0
50.361,-3.2227e-05,0
50.361,-1.796e-05,0
50.362,1.6281e-05,0
50.362,5.0187e-05,0
50.363,5.7404e-05,0
50.363,4.3809e-05,0
50.364,4.0787e-05,0
50.364,6.5629e-05,0
50.365,8.9799e-05,0
50.365,7.1336e-05,0
50.366,1.8631e-05,0
50.366,-2.4338e-05,0
50.367,-2.9374e-05,0
50.367,-1.0407e-05,0
50.368,0,0
50.368,-1.0407e-05,0
50.369,-2.6017e-05,0
50.37,-2.7695e-05,0
50.37,-2.1317e-05,0
50.371,-3.9277e-05,0
50.371,-6.4622e-05,0
50.372,-4.5655e-05,0
50.372,1.7121e-05,0
50.373,7.1168e-05,0
50.373,8.4932e-05,0
50.374,6.3951e-05,0
50.374,1.9638e-05,0
50.375,-2.1653e-05,0
50.375,-4.9348e-05,0
50.376,-8.275e-05,0
50.376,-0.00011766,0
50.377,-0.00013143,0
50.377,-0.00010642,0
50.378,-4.6159e-05,0
50.378,1.4603e-05,0
50.379,6.8315e-05,0
50.379,0.00013613,0
50.38,0.00021971,0
50.38,0.00027276,0
50.381,0.00026033,0
50.381,0.00021434,0
50.382,0.00016768,0
50.383,0.00012975,0
50.383,0.00010658,0
50.384,9.3996e-05,0
50.384,7.6875e-05,0
50.385,4.1962e-05,0
50.385,3.357e-06,0
50.386,-1.5946e-05,0
50.386,-1.6617e-05,0
50.387,-1.8128e-05,0
50.387,-2.8367e-05,0
50.388,-2.4002e-05,0
50.388,1.1917e-05,0
50.389,6.63e-05,0
50.389,0.00011095,0
50.39,0.00012303,0
50.39,0.00010272,0
50.391,7.2343e-05,0
50.391,4.9851e-05,0
50.392,3.1388e-05,0
50.392,1.2085e-05,0
50.393,-3.0213e-06,0
50.393,-1.1414e-05,0
50.394,-1.7624e-05,0
50.394,-3.1891e-05,0
50.395,-5.8244e-05,0
50.395,-8.9967e-05,0
50.396,-0.00012203,0
50.397,-0.00016684,0
50.397,-0.00022844,0
50.398,-0.00026235,0
50.398,-0.0002224,0
50.399,-0.00011682,0
50.399,1.5106e-06,0
50.4,0.00010272,0
50.4,0.00018044,0
50.401,0.00021736,0
50.401,0.00020864,0
50.402,0.00016751,0
50.402,0.00011196,0
50.403,4.4144e-05,0
50.403,-3.2395e-05,0
50.404,-9.1814e-05,0
50.404,-9.9535e-05,0
50.405,-4.7166e-05,0
50.405,3.4745e-05,0
50.406,0.00010524,0
50.406,0.00014586,0
50.407,0.00015929,0
50.407,0.00014939,0
50.408,0.00012975,0
50.408,0.0001133,0
50.409,0.00010021,0
50.41,9.752e-05,0
50.41,0.00010239,0
50.411,8.51e-05,0
50.411,3.1052e-05,0
50.412,-3.2227e-05,0
50.412,-7.2679e-05,0
50.413,-8.9464e-05,0
50.413,-9.987e-05,0
50.414,-0.00011347,0
50.414,-0.0001284,0
50.415,-0.00013075,0
50.415,-0.00010457,0
50.416,-5.4047e-05,0
50.416,-4.1962e-06,0
50.417,3.5752e-05,0
50.417,7.5029e-05,0
50.418,0.0001138,0
50.418,0.00013143,0
50.419,0.00011548,0
50.419,8.3421e-05,0
50.42,3.4745e-05,0
50.42,-2.4674e-05,0
50.421,-6.1936e-05,0
50.421,-6.9993e-05,0
50.422,-4.448e-05,0
50.422,3.1891e-05,0
50.423,0.00013445,0
50.424,0.00021283,0
50.424,0.00023751,0
50.425,0.00021468,0
50.425,0.00016768,0
50.426,0.00011347,0
50.426,6.7811e-05,0
50.427,4.7166e-05,0
50.427,4.8508e-05,0
50.428,4.9348e-05,0
50.428,1.4267e-05,0
50.429,-7.2175e-05,0
50.429,-0.00017406,0
50.43,-0.00024523,0
50.43,-0.0003023,0
50.431,-0.00036306,0
50.431,-0.00037615,0
50.432,-0.00029693,0
50.432,-0.00015106,0
50.433,3.1891e-06,0
50.433,0.00012303,0
50.434,0.00019118,0
50.434,0.00023868,0
50.435,0.00028887,0
50.435,0.00030599,0
50.436,0.00026352,0
50.437,0.0001843,0
50.437,0.00012471,0
50.438,0.00010658,0
50.438,0.00010054,0
50.439,8.51e-05,0
50.439,6.0929e-05,0
50.44,3.4409e-05,0
50.44,1.3764e-05,0
50.441,3.6927e-06,0
50.441,-1.8463e-06,0
50.442,-1.1246e-05,0
50.442,-2.0981e-05,0
50.443,-2.3667e-05,0
50.443,-2.1149e-05,0
50.444,-1.4435e-05,0
50.444,-7.5532e-06,0
50.445,-3.5248e-06,0
50.445,-1.5106e-06,0
50.446,-2.8534e-06,0
50.446,-8.896e-06,0
50.447,-1.9974e-05,0
50.447,-4.1123e-05,0
50.448,-6.865e-05,0
50.448,-8.9632e-05,0
50.449,-0.00010423,0
50.45,-0.00011296,0
50.45,-0.00010658,0
50.451,-7.1336e-05,0
50.451,-2.0981e-05,0
50.452,1.7121e-05,0
50.452,3.8102e-05,0
50.453,5.9586e-05,0
50.453,9.6513e-05,0
50.454,0.00012874,0
50.454,0.00012673,0
50.455,0.00010726,0
50.455,9.1142e-05,0
50.456,7.2679e-05,0
50.456,4.7166e-05,0
50.457,2.3163e-05,0
50.457,1.091e-05,0
50.458,6.3783e-06,0
50.458,1.1749e-06,0
50.459,-3.5248e-06,0
50.459,3.357e-07,0
50.46,9.9031e-06,0
50.46,1.3931e-05,0
50.461,-1.0071e-06,0
50.461,-3.0549e-05,0
50.462,-4.918e-05,0
50.462,-4.683e-05,0
50.463,-3.6423e-05,0
50.464,-3.8437e-05,0
50.464,-4.683e-05,0
50.465,-3.7766e-05,0
50.465,-1.3596e-05,0
50.466,5.8747e-06,0
50.466,1.6449e-05,0
50.467,2.2324e-05,0
50.467,3.2731e-05,0
50.468,5.4551e-05,0
50.468,8.1407e-05,0
50.469,0.00010491,0
50.469,0.00011666,0
50.47,0.00011766,0
50.47,0.00011313,0
50.471,0.00010188,0
50.471,8.4932e-05,0
50.472,6.7643e-05,0
50.472,5.8076e-05,0
50.473,5.7572e-05,0
50.473,5.7572e-05,0
50.474,5.3544e-05,0
50.474,4.5487e-05,0
50.475,3.8102e-05,0
50.475,2.9709e-05,0
50.476,1.3931e-05,0
50.477,-1.4603e-05,0
50.477,-5.4047e-05,0
50.478,-0.00010373,0
50.478,-0.00014754,0
50.479,-0.00016802,0
50.479,-0.000166,0
50.48,-0.00013176,0
50.48,-4.9516e-05,0
50.481,4.5487e-05,0
50.481,0.00010591,0
50.482,0.00014116,0
50.482,0.00016818,0
50.483,0.00015123,0
50.483,9.1646e-05,0
50.484,5.2705e-05,0
50.484,6.0929e-05,0
50.485,8.4428e-05,0
50.485,9.5842e-05,0
50.486,9.5506e-05,0
50.486,9.1981e-05,0
50.487,9.0806e-05,0
50.487,7.9057e-05,0
50.488,4.9516e-05,0
50.488,2.2324e-05,0
50.489,1.6953e-05,0
50.489,2.5345e-05,0
50.49,2.7695e-05,0
50.491,1.4603e-05,0
50.491,-1.4939e-05,0
50.492,-7.5029e-05,0
50.492,-0.00017742,0
50.493,-0.00027007,0
50.493,-0.00028484,0
50.494,-0.00021703,0
50.494,-0.00011481,0
50.495,-2.031e-05,0
50.495,6.6972e-05,0
50.496,0.00015425,0
50.496,0.00021653,0
50.497,0.00022408,0
50.497,0.00016265,0
50.498,7.5029e-05,0
50.498,2.7695e-05,0
50.499,3.9109e-05,0
50.499,8.1407e-05,0
50.5,0.00012001,0
50.5,0.0001274,0
50.501,0.00010155,0
50.501,7.7379e-05,0
50.502,7.2007e-05,0
50.502,7.3014e-05,0
50.503,6.6468e-05,0
50.504,3.9612e-05,0
50.504,-1.5778e-05,0
50.505,-8.8457e-05,0
50.505,-0.0001561,0
50.506,-0.0001994,0
50.506,-0.0002088,0
50.507,-0.00018614,0
50.507,-0.00014318,0
50.508,-7.9393e-05,0
50.508,1.3764e-05,0
50.509,0.00012102,0
50.509,0.00022458,0
50.51,0.00028165,0
50.51,0.00025731,0
50.511,0.00018782,0
50.511,0.00012975,0
50.512,0.00010054,0
50.512,9.5003e-05,0
50.513,9.8863e-05,0
50.513,8.7449e-05,0
50.514,5.7908e-05,0
50.514,3.2731e-05,0
50.515,1.4603e-05,0
50.515,-1.6953e-05,0
50.516,-6.0929e-05,0
50.516,-9.0974e-05,0
50.517,-8.9799e-05,0
50.518,-7.2847e-05,0
50.518,-5.5558e-05,0
50.519,-3.0381e-05,0
50.519,7.8889e-06,0
50.52,5.4047e-05,0
50.52,8.2078e-05,0
50.521,7.1672e-05,0
50.521,3.0716e-05,0
50.522,-6.8818e-06,0
50.522,-2.6017e-05,0
50.523,-3.6423e-05,0
50.523,-4.1459e-05,0
50.524,-3.3906e-05,0
50.524,-6.3783e-06,0
50.525,3.357e-05,0
50.525,5.153e-05,0
50.526,3.0381e-05,0
50.526,1.8463e-06,0
50.527,1.8463e-06,0
50.527,2.7359e-05,0
50.528,6.0761e-05,0
50.528,8.661e-05,0
50.529,9.4499e-05,0
50.529,9.0303e-05,0
50.53,7.9057e-05,0
50.531,5.623e-05,0
50.531,2.8702e-05,0
50.532,8.896e-06,0
50.532,0,0
50.533,-1.3931e-05,0
50.533,-3.4073e-05,0
50.534,-5.2537e-05,0
50.534,-6.8986e-05,0
50.535,-9.4163e-05,0
50.535,-0.00012639,0
50.536,-0.00014217,0
50.536,-0.00013159,0
50.537,-0.00010893,0
50.537,-9.2653e-05,0
50.538,-8.3085e-05,0
50.538,-6.2272e-05,0
50.539,-2.6352e-05,0
50.539,7.8889e-06,0
50.54,3.1556e-05,0
50.54,6.6972e-05,0
50.541,0.00013478,0
50.541,0.00019957,0
50.542,0.00021736,0
50.542,0.00019286,0
50.543,0.00013948,0
50.543,6.7979e-05,0
50.544,-4.6998e-06,0
50.545,-5.3208e-05,0
50.545,-7.6371e-05,0
50.546,-8.7114e-05,0
50.546,-9.1981e-05,0
50.547,-7.5532e-05,0
50.547,-2.1653e-05,0
50.548,4.5823e-05,0
50.548,9.4499e-05,0
50.549,0.00012169,0
50.549,0.00014871,0
50.55,0.00017473,0
50.55,0.00017171,0
50.551,0.00013848,0
50.551,0.00010054,0
50.552,7.1336e-05,0
50.552,4.9348e-05,0
50.553,2.9709e-05,0
50.553,1.5106e-05,0
50.554,8.896e-06,0
50.554,6.0426e-06,0
50.555,-1.0071e-05,0
50.555,-3.7263e-05,0
50.556,-5.069e-05,0
50.556,-4.1123e-05,0
50.557,-1.796e-05,0
50.557,2.182e-06,0
50.558,8.5603e-06,0
50.559,2.3499e-06,0
50.559,-9.9031e-06,0
50.56,-2.0645e-05,0
50.56,-3.9948e-05,0
50.561,-6.6804e-05,0
50.561,-8.3421e-05,0
50.562,-8.1743e-05,0
50.562,-6.3447e-05,0
50.563,-3.4073e-05,0
50.563,-4.5319e-06,0
50.564,1.7121e-05,0
50.564,3.6759e-05,0
50.565,6.5629e-05,0
50.565,9.7185e-05,0
50.566,0.00011901,0
50.566,0.00012505,0
50.567,0.00012404,0
50.567,0.00011162,0
50.568,7.335e-05,0
50.568,2.4674e-05,0
50.569,-2.182e-06,0
50.569,1.1749e-06,0
50.57,1.4603e-05,0
50.57,2.2828e-05,0
50.571,2.1988e-05,0
50.572,1.6785e-05,0
50.572,1.4603e-05,0
50.573,1.3596e-05,0
50.573,-1.8463e-06,0
50.574,-4.0452e-05,0
50.574,-8.1407e-05,0
50.575,-0.00010961,0
50.575,-0.00012908,0
50.576,-0.00014955,0
50.576,-0.00017104,0
50.577,-0.00018128,0
50.577,-0.00016265,0
50.578,-9.4499e-05,0
50.578,-1.8631e-05,0
50.579,2.0645e-05,0
50.579,2.9374e-05,0
50.58,3.6255e-05,0
50.58,7.57e-05,0
50.581,0.00012404,0
50.581,0.00011061,0
50.582,4.062e-05,0
50.582,-1.1246e-05,0
50.583,1.9974e-05,0
50.583,0.0001237,0
50.584,0.00021703,0
50.584,0.00026571,0
50.585,0.00028937,0
50.586,0.00030867,0
50.586,0.00031673,0
50.587,0.00028786,0
50.587,0.0002224,0
50.588,0.00015123,0
50.588,9.8863e-05,0
50.589,7.1e-05,0
50.589,5.9922e-05,0
50.59,5.2873e-05,0
50.59,3.9109e-05,0
50.591,1.2924e-05,0
50.591,-2.3331e-05,0
50.592,-6.1433e-05,0
50.592,-9.3492e-05,0
50.593,-0.00011263,0
50.593,-0.00011028,0
50.594,-8.661e-05,0
50.594,-5.4215e-05,0
50.595,-1.5946e-05,0
50.595,1.5946e-05,0
50.596,2.0981e-05,0
50.596,3.357e-07,0
50.597,-2.3835e-05,0
50.597,-3.6088e-05,0
50.598,-5.2873e-05,0
50.599,-8.3757e-05,0
50.599,-0.0001039,0
50.6,-9.0135e-05,0
50.6,-3.6759e-05,0
50.601,4.8005e-05,0
50.601,0.00013126,0
50.602,0.00018497,0
50.602,0.00019789,0
50.603,0.00018245,0
50.603,0.00015593,0
50.604,0.00012136,0
50.604,8.3589e-05,0
50.605,5.7404e-05,0
50.605,4.2802e-05,0
50.606,2.6688e-05,0
50.606,5.8747e-06,0
50.607,-7.5532e-06,0
50.607,-1.0071e-05,0
50.608,-7.5532e-06,0
50.608,-9.2317e-06,0
50.609,-2.4002e-05,0
50.609,-4.9516e-05,0
50.61,-7.3014e-05,0
50.61,-8.6778e-05,0
50.611,-9.0471e-05,0
50.611,-7.9561e-05,0
50.612,-5.1698e-05,0
50.613,-1.6617e-05,0
50.613,8.2246e-06,0
50.614,-2.8534e-06,0
50.614,-6.9322e-05,0
50.615,-0.00017406,0
50.615,-0.00025026,0
50.616,-0.00026084,0
50.616,-0.00021317,0
50.617,-0.00012975,0
50.617,-3.4577e-05,0
50.618,6.3783e-05,0
50.618,0.00015526,0
50.619,0.00021669,0
50.619,0.00022643,0
50.62,0.00018564,0
50.62,0.0001232,0
50.621,6.8986e-05,0
50.621,2.9877e-05,0
50.622,5.0355e-07,0
50.622,-8.2246e-06,0
50.623,1.0575e-05,0
50.623,3.7263e-05,0
50.624,5.0858e-05,0
50.624,5.2369e-05,0
50.625,6.1265e-05,0
50.626,7.7714e-05,0
50.626,8.51e-05,0
50.627,6.9657e-05,0
50.627,3.6423e-05,0
50.628,1.0071e-06,0
50.628,-2.1653e-05,0
50.629,-2.4506e-05,0
50.629,-1.2757e-05,0
50.63,4.6998e-06,0
50.63,1.7288e-05,0
50.631,2.6352e-05,0
50.631,3.2059e-05,0
50.632,2.6688e-05,0
50.632,1.4435e-05,0
50.633,-8.3925e-07,0
50.633,-3.1388e-05,0
50.634,-8.4428e-05,0
50.634,-0.00012941,0
50.635,-0.00014351,0
50.635,-0.0001331,0
50.636,-0.00010188,0
50.636,-5.6901e-05,0
50.637,-1.3596e-05,0
50.637,2.0645e-05,0
50.638,5.1194e-05,0
50.639,8.4092e-05,0
50.639,0.00011263,0
50.64,0.00011296,0
50.64,7.805e-05,0
50.641,2.9038e-05,0
50.641,-1.0239e-05,0
50.642,-2.182e-05,0
50.642,-1.4267e-05,0
50.643,5.0355e-07,0
50.643,2.7024e-05,0
50.644,6.6804e-05,0
50.644,0.00010642,0
50.645,0.00013109,0
50.645,0.00014485,0
50.646,0.00014015,0
50.646,0.00011901,0
50.647,9.8527e-05,0
50.647,9.9031e-05,0
50.648,0.00011397,0
50.648,0.00011263,0
50.649,8.7785e-05,0
50.649,6.8315e-05,0
50.65,7.4189e-05,0
50.65,8.3085e-05,0
50.651,6.9657e-05,0
50.651,2.2324e-05,0
50.652,-4.7166e-05,0
50.653,-9.5842e-05,0
50.653,-9.0135e-05,0
50.654,-3.7766e-05,0
50.654,2.5345e-05,0
50.655,6.9657e-05,0
50.655,8.9799e-05,0
50.656,9.0974e-05,0
50.656,7.2343e-05,0
50.657,1.7288e-05,0
50.657,-5.7908e-05,0
50.658,-0.00011313,0
50.658,-0.00012723,0
50.659,-0.0001034,0
50.659,-6.3447e-05,0
50.66,-2.1988e-05,0
50.66,2.3499e-05,0
50.661,5.6565e-05,0
50.661,6.009e-05,0
50.662,4.7501e-05,0
50.662,2.9374e-05,0
50.663,1.7288e-05,0
50.663,2.0478e-05,0
50.664,2.9206e-05,0
50.664,2.8702e-05,0
50.665,9.0639e-06,0
50.666,-2.7695e-05,0
50.666,-6.0594e-05,0
50.667,-6.7643e-05,0
50.667,-6.009e-05,0
50.668,-6.1936e-05,0
50.668,-5.6565e-05,0
50.669,-2.0981e-05,0
50.669,3.743e-05,0
50.67,0.00010155,0
50.67,0.00013814,0
50.671,0.00013243,0
50.671,0.00010591,0
50.672,7.2007e-05,0
50.672,4.4144e-05,0
50.673,3.4073e-05,0
50.673,2.501e-05,0
50.674,1.4939e-05,0
50.674,2.9374e-05,0
50.675,7.1672e-05,0
50.675,0.00011397,0
50.676,0.00012538,0
50.676,8.6442e-05,0
50.677,2.7024e-05,0
50.677,-1.6953e-05,0
50.678,-3.6759e-05,0
50.678,-3.978e-05,0
50.679,-3.0381e-05,0
50.68,-1.1749e-05,0
50.68,1.6449e-05,0
50.681,3.8773e-05,0
50.681,3.0381e-05,0
50.682,-1.561e-05,0
50.682,-7.6707e-05,0
50.683,-0.00011968,0
50.683,-0.00012908,0
50.684,-9.6178e-05,0
50.684,-2.5681e-05,0
50.685,5.4719e-05,0
50.685,0.00012471,0
50.686,0.00018849,0
50.686,0.00022811,0
50.687,0.00020108,0
50.687,0.00012068,0
50.688,5.5222e-05,0
50.688,3.0716e-05,0
50.689,2.7359e-05,0
50.689,1.8631e-05,0
50.69,-5.539e-06,0
50.69,-3.4745e-05,0
50.691,-5.9251e-05,0
50.691,-8.04e-05,0
50.692,-9.4667e-05,0
50.693,-7.6875e-05,0
50.693,-2.1988e-05,0
50.694,3.7263e-05,0
50.694,6.4286e-05,0
50.695,6.2272e-05,0
50.695,6.0258e-05,0
50.696,7.0665e-05,0
50.696,7.6371e-05,0
50.697,7.1504e-05,0
50.697,5.7908e-05,0
50.698,3.508e-05,0
50.698,7.5532e-06,0
50.699,-1.8967e-05,0
50.699,-3.1556e-05,0
50.7,-2.1149e-05,0
50.7,1.091e-05,0
50.701,4.0787e-05,0
50.701,5.0858e-05,0
50.702,4.2802e-05,0
50.702,1.5442e-05,0
50.703,-1.7288e-05,0
50.703,-3.6759e-05,0
50.704,-2.9709e-05,0
50.704,1.2924e-05,0
50.705,7.0665e-05,0
50.705,0.00010222,0
50.706,9.4667e-05,0
50.707,4.8173e-05,0
50.707,-1.0407e-05,0
50.708,-4.6159e-05,0
50.708,-5.7908e-05,0
50.709,-6.2104e-05,0
50.709,-5.8915e-05,0
50.71,-4.448e-05,0
50.71,-2.6688e-05,0
50.711,-6.5461e-06,0
50.711,1.0239e-05,0
50.712,4.6998e-06,0
50.712,-1.8296e-05,0
50.713,-2.6688e-05,0
50.713,-6.3783e-06,0
50.714,2.5681e-05,0
50.714,4.5487e-05,0
50.715,4.3977e-05,0
50.715,3.3738e-05,0
50.716,3.4913e-05,0
50.716,4.4144e-05,0
50.717,4.7501e-05,0
50.717,5.0187e-05,0
50.718,5.6901e-05,0
50.718,6.2776e-05,0
50.719,6.6972e-05,0
50.719,7.1672e-05,0
50.72,7.57e-05,0
50.721,8.1407e-05,0
50.721,8.9128e-05,0
50.722,8.8457e-05,0
50.722,7.1672e-05,0
50.723,4.213e-05,0
50.723,1.6617e-05,0
50.724,2.6856e-06,0
50.724,-1.2253e-05,0
50.725,-3.7934e-05,0
50.725,-6.5293e-05,0
50.726,-9.0974e-05,0
50.726,-0.00013344,0
50.727,-0.00018782,0
50.727,-0.00021988,0
50.728,-0.00020998,0
50.728,-0.0001749,0
50.729,-0.0001321,0
50.729,-8.191e-05,0
50.73,-1.8967e-05,0
50.73,5.8076e-05,0
50.731,0.00014284,0
50.731,0.0002078,0
50.732,0.00023449,0
50.732,0.00022979,0
50.733,0.00020008,0
50.734,0.00015828,0
50.734,0.00012605,0
50.735,0.00010088,0
50.735,7.335e-05,0
50.736,4.8508e-05,0
50.736,2.0645e-05,0
50.737,-1.561e-05,0
50.737,-4.3809e-05,0
50.738,-3.827e-05,0
50.738,1.8463e-06,0
50.739,6.2272e-05,0
50.739,0.00013008,0
50.74,0.00018044,0
50.74,0.00018782,0
50.741,0.0001368,0
50.741,3.6759e-05,0
50.742,-6.1936e-05,0
50.742,-0.00010793,0
50.743,-0.00010138,0
50.743,-8.275e-05,0
50.744,-7.335e-05,0
50.744,-6.0929e-05,0
50.745,-3.9277e-05,0
50.745,-2.501e-05,0
50.746,-2.266e-05,0
50.746,-2.7192e-05,0
50.747,-3.2731e-05,0
50.748,-2.4842e-05,0
50.748,-1.2253e-05,0
50.749,-1.3596e-05,0
50.749,-1.561e-05,0
50.75,6.3783e-06,0
50.75,5.3208e-05,0
50.751,0.00010491,0
50.751,0.00013579,0
50.752,0.00014519,0
50.752,0.00014553,0
50.753,0.00012471,0
50.753,7.2343e-05,0
50.754,9.9031e-06,0
50.754,-4.8676e-05,0
50.755,-9.8527e-05,0
50.755,-0.00012924,0
50.756,-0.00014049,0
50.756,-0.00012689,0
50.757,-8.1407e-05,0
50.757,-8.2246e-06,0
50.758,7.7211e-05,0
50.758,0.00013999,0
50.759,0.00016281,0
50.759,0.00016365,0
50.76,0.00016768,0
50.761,0.0001707,0
50.761,0.00016432,0
50.762,0.000165,0
50.762,0.00016869,0
50.763,0.00016953,0
50.763,0.00017473,0
50.764,0.00015795,0
50.764,0.00010121,0
50.765,3.6423e-05,0
50.765,-8.2246e-06,0
50.766,-3.978e-05,0
50.766,-7.5029e-05,0
50.767,-0.00010037,0
50.767,-9.8192e-05,0
50.768,-6.8147e-05,0
50.768,-3.4073e-05,0
50.769,-2.5849e-05,0
50.769,-3.3402e-05,0
50.77,-2.7192e-05,0
50.77,1.5106e-06,0
50.771,4.0116e-05,0
50.771,6.244e-05,0
50.772,5.3376e-05,0
50.772,1.7288e-05,0
50.773,-1.1582e-05,0
50.773,-1.4603e-05,0
50.774,-6.5461e-06,0
50.775,-6.2104e-06,0
50.775,-1.4435e-05,0
50.776,-2.5849e-05,0
50.776,-3.2059e-05,0
50.777,-3.4073e-05,0
50.777,-4.8005e-05,0
50.778,-8.9632e-05,0
50.778,-0.00014519,0
50.779,-0.00018682,0
50.779,-0.00019756,0
50.78,-0.00017356,0
50.78,-0.0001232,0
50.781,-5.9083e-05,0
50.781,1.0407e-05,0
50.782,7.9393e-05,0
50.782,0.0001274,0
50.783,0.00014183,0
50.783,0.00013814,0
50.784,0.00013344,0
50.784,0.00012639,0
50.785,0.00010222,0
50.785,6.865e-05,0
50.786,5.3208e-05,0
50.786,5.0858e-05,0
50.787,3.7263e-05,0
50.788,2.1653e-05,0
50.788,2.031e-05,0
50.789,2.3667e-05,0
50.789,2.266e-05,0
50.79,1.2253e-05,0
50.79,-2.887e-05,0
50.791,-0.00010306,0
50.791,-0.000166,0
50.792,-0.0001796,0
50.792,-0.00015308,0
50.793,-0.00010407,0
50.793,-4.6159e-05,0
50.794,2.1317e-05,0
50.794,0.00010726,0
50.795,0.00017272,0
50.795,0.00017943,0
50.796,0.00016365,0
50.796,0.00017574,0
50.797,0.00019705,0
50.797,0.00019001,0
50.798,0.00015274,0
50.798,9.9031e-05,0
50.799,4.6494e-05,0
50.799,1.4603e-05,0
50.8,2.6856e-06,0
50.8,-2.182e-06,0
50.801,-2.0142e-06,0
50.802,1.0071e-06,0
50.802,-5.3712e-06,0
50.803,-2.1653e-05,0
50.803,-3.4577e-05,0
50.804,-3.2395e-05,0
50.804,-2.4506e-05,0
50.805,-2.9709e-05,0
50.805,-4.7166e-05,0
50.806,-5.6733e-05,0
50.806,-4.4816e-05,0
50.807,-1.091e-05,0
50.807,3.4241e-05,0
50.808,6.9657e-05,0
50.808,8.661e-05,0
50.809,8.6946e-05,0
50.809,7.4693e-05,0
50.81,3.5416e-05,0
50.81,-3.7095e-05,0
50.811,-0.00010356,0
50.811,-0.00012454,0
50.812,-9.8192e-05,0
50.812,-4.7837e-05,0
50.813,-8.2246e-06,0
50.813,-1.1414e-05,0
50.814,-4.8341e-05,0
50.815,-6.2272e-05,0
50.815,-5.7237e-05,0
50.816,-6.8986e-05,0
50.816,-8.426e-05,0
50.817,-6.63e-05,0
50.817,-1.1582e-05,0
50.818,4.0787e-05,0
50.818,4.0116e-05,0
50.819,8.2246e-06,0
50.819,-1.6785e-06,0
50.82,3.8605e-06,0
50.82,3.2059e-05,0
50.821,0.00011514,0
50.821,0.00024019,0
50.822,0.0003498,0
50.822,0.0003926,0
50.823,0.00035399,0
50.823,0.00026386,0
50.824,0.00018296,0
50.824,0.00014821,0
50.825,0.00014049,0
50.825,0.00013075,0
50.826,0.00012773,0
50.826,0.00014083,0
50.827,0.00013445,0
50.828,9.2149e-05,0
50.828,3.3234e-05,0
50.829,-1.6617e-05,0
50.829,-4.2466e-05,0
50.83,-5.0355e-05,0
50.83,-6.1097e-05,0
50.831,-7.2343e-05,0
50.831,-7.0497e-05,0
50.832,-6.0258e-05,0
50.832,-4.918e-05,0
50.833,-4.5823e-05,0
50.833,-6.63e-05,0
50.834,-0.00010423,0
50.834,-0.00012689,0
50.835,-0.00011498,0
50.835,-7.805e-05,0
50.836,-3.5248e-05,0
50.836,1.0071e-06,0
50.837,1.7288e-05,0
50.837,2.7695e-05,0
50.838,5.4047e-05,0
50.838,6.1265e-05,0
50.839,3.0045e-05,0
50.839,-2.0142e-06,0
50.84,-2.8534e-06,0
50.84,1.9974e-05,0
50.841,3.8941e-05,0
50.842,3.1891e-05,0
50.842,-1.326e-05,0
50.843,-7.1336e-05,0
50.843,-0.00010138,0
50.844,-9.7017e-05,0
50.844,-8.0903e-05,0
50.845,-6.2272e-05,0
50.845,-3.827e-05,0
50.846,-1.1414e-05,0
50.846,6.3783e-06,0
50.847,1.5106e-06,0
50.847,-2.5681e-05,0
50.848,-5.388e-05,0
50.848,-6.4622e-05,0
50.849,-5.8579e-05,0
50.849,-4.3977e-05,0
50.85,-1.9303e-05,0
50.85,1.3428e-05,0
50.851,4.1962e-05,0
50.851,4.7837e-05,0
50.852,3.2227e-05,0
50.852,2.2828e-05,0
50.853,3.9109e-05,0
50.853,5.4887e-05,0
50.854,3.743e-05,0
50.855,6.3783e-06,0
50.855,1.3428e-06,0
50.856,1.2757e-05,0
50.856,1.3092e-05,0
50.857,2.5849e-05,0
50.857,7.0665e-05,0
50.858,0.00012639,0
50.858,0.00017356,0
50.859,0.0001989,0
50.859,0.00019907,0
50.86,0.0001749,0
50.86,0.00014116,0
50.861,0.00010893,0
50.861,8.04e-05,0
50.862,5.9754e-05,0
50.862,4.0116e-05,0
50.863,1.1917e-05,0
50.863,-2.031e-05,0
50.864,-4.4144e-05,0
50.864,-5.3376e-05,0
50.865,-4.6998e-05,0
50.865,-3.0213e-05,0
50.866,-1.5274e-05,0
50.866,-4.1962e-06,0
50.867,8.3925e-07,0
50.867,-6.3783e-06,0
50.868,-2.652e-05,0
50.869,-4.9348e-05,0
50.869,-5.1194e-05,0
50.87,-2.5177e-05,0
50.87,1.1078e-05,0
50.871,3.9445e-05,0
50.871,5.539e-05,0
50.872,7.0161e-05,0
50.872,8.04e-05,0
50.873,6.2608e-05,0
50.873,3.2059e-05,0
50.874,2.1149e-05,0
50.874,1.2589e-05,0
50.875,-6.2104e-06,0
50.875,-1.2253e-05,0
50.876,4.3641e-06,0
50.876,1.9806e-05,0
50.877,1.2924e-05,0
50.877,-8.2246e-06,0
50.878,-3.6423e-05,0
50.878,-6.7811e-05,0
50.879,-6.9825e-05,0
50.879,-2.9374e-05,0
50.88,1.6617e-05,0
50.88,3.978e-05,0
50.881,4.0116e-05,0
50.882,4.0452e-05,0
50.882,5.4215e-05,0
50.883,5.0187e-05,0
50.883,-4.8676e-06,0
50.884,-7.3014e-05,0
50.884,-9.6345e-05,0
50.885,-7.6036e-05,0
50.885,-3.9109e-05,0
50.886,-1.8463e-06,0
50.886,2.6688e-05,0
50.887,7.1e-05,0
50.887,0.00014519,0
50.888,0.00020427,0
50.888,0.00019857,0
50.889,0.00014032,0
50.889,8.5771e-05,0
50.89,7.8889e-05,0
50.89,0.00011397,0
50.891,0.00015106,0
50.891,0.00014838,0
50.892,0.00011044,0
50.892,7.5868e-05,0
50.893,5.623e-05,0
50.893,4.1962e-05,0
50.894,2.031e-05,0
50.894,-2.2995e-05,0
50.895,-8.0232e-05,0
50.896,-0.00013243,0
50.896,-0.00017523,0
50.897,-0.00022106,0
50.897,-0.00024657,0
50.898,-0.00021199,0
50.898,-0.00011968,0
50.899,-7.8889e-06,0
50.899,7.9728e-05,0
50.9,0.00012203,0
50.9,0.00014754,0
50.901,0.00016617,0
50.901,0.00013881,0
50.902,7.8721e-05,0
50.902,5.0858e-05,0
50.903,7.7714e-05,0
50.903,0.00012152,0
50.904,0.00015358,0
50.904,0.00018044,0
50.905,0.00020192,0
50.905,0.00020662,0
50.906,0.00017574,0
50.906,0.00012404,0
50.907,8.7114e-05,0
50.907,7.1e-05,0
50.908,4.7669e-05,0
50.908,6.5461e-06,0
50.909,-2.3835e-05,0
50.91,-2.1317e-05,0
50.91,1.1749e-06,0
50.911,1.5106e-05,0
50.911,1.6953e-05,0
50.912,2.1317e-05,0
50.912,2.9038e-05,0
50.913,2.1988e-05,0
50.913,-5.2033e-06,0
50.914,-3.508e-05,0
50.914,-5.5222e-05,0
50.915,-7.805e-05,0
50.915,-0.00011246,0
50.916,-0.00014771,0
50.916,-0.0001655,0
50.917,-0.00016315,0
50.917,-0.00014838,0
50.918,-0.00012538,0
50.918,-8.9632e-05,0
50.919,-4.6662e-05,0
50.919,-1.5274e-05,0
50.92,-1.0071e-05,0
50.92,-1.8296e-05,0
50.921,-5.8747e-06,0
50.921,2.1988e-05,0
50.922,2.4506e-05,0
50.923,1.6785e-07,0
50.923,-2.2995e-05,0
50.924,-3.6423e-05,0
50.924,-4.3137e-05,0
50.925,-3.7934e-05,0
50.925,-2.031e-05,0
50.926,2.182e-06,0
50.926,2.2995e-05,0
50.927,4.2634e-05,0
50.927,7.0497e-05,0
50.928,0.00012068,0
50.928,0.00017104,0
50.929,0.00019219,0
50.929,0.00017826,0
50.93,0.00014754,0
50.93,0.00011766,0
50.931,8.4596e-05,0
50.931,4.2802e-05,0
50.932,3.357e-06,0
50.932,-2.417e-05,0
50.933,-3.7263e-05,0
50.933,-4.5151e-05,0
50.934,-5.3712e-05,0
50.934,-5.2873e-05,0
50.935,-4.2298e-05,0
50.935,-3.4409e-05,0
50.936,-3.0716e-05,0
50.937,-2.7192e-05,0
50.937,-3.122e-05,0
50.938,-4.3137e-05,0
50.938,-5.9586e-05,0
50.939,-8.4932e-05,0
50.939,-0.00011968,0
50.94,-0.0001514,0
50.94,-0.00017389,0
50.941,-0.00017809,0
50.941,-0.00016785,0
50.942,-0.00015258,0
50.942,-0.00011095,0
50.943,-3.2395e-05,0
50.943,6.9657e-05,0
50.944,0.00017775,0
50.944,0.00026604,0
50.945,0.00032949,0
50.945,0.00035164,0
50.946,0.00031522,0
50.946,0.00024926,0
50.947,0.00018312,0
50.947,0.00013529,0
50.948,0.00011347,0
50.948,9.3492e-05,0
50.949,6.009e-05,0
50.95,3.978e-05,0
50.95,5.0523e-05,0
50.951,6.4286e-05,0
50.951,5.5558e-05,0
50.952,3.3234e-05,0
50.952,1.5106e-05,0
50.953,-3.1891e-06,0
50.953,-2.3667e-05,0
50.954,-4.0452e-05,0
50.954,-5.623e-05,0
50.955,-8.5603e-05,0
50.955,-0.00010927,0
50.956,-8.1071e-05,0
50.956,-1.6785e-07,0
50.957,9.4331e-05,0
50.957,0.00015996,0
50.958,0.00016953,0
50.958,0.00013646,0
50.959,8.426e-05,0
50.959,2.031e-05,0
50.96,-4.3641e-05,0
50.96,-8.4764e-05,0
50.961,-9.2149e-05,0
50.961,-7.5029e-05,0
50.962,-4.7837e-05,0
50.962,-2.1988e-05,0
50.963,-2.0645e-05,0
50.964,-3.4241e-05,0
50.964,-2.7695e-05,0
50.965,-1.6785e-06,0
50.965,1.9135e-05,0
50.966,2.2995e-05,0
50.966,2.1317e-05,0
50.967,1.7456e-05,0
50.967,-8.2246e-06,0
50.968,-5.0019e-05,0
50.968,-6.6468e-05,0
50.969,-4.0452e-05,0
50.969,2.8534e-06,0
50.97,4.7837e-05,0
50.97,9.2485e-05,0
50.971,0.00012656,0
50.971,0.00014116,0
50.972,0.00014855,0
50.972,0.00014519,0
50.973,0.00012136,0
50.973,9.3156e-05,0
50.974,7.2007e-05,0
50.974,4.5487e-05,0
50.975,1.3092e-05,0
50.975,-8.7282e-06,0
50.976,-1.7792e-05,0
50.977,-2.1653e-05,0
50.977,-2.2995e-05,0
50.978,-1.6953e-05,0
50.978,1.1246e-05,0
50.979,6.865e-05,0
50.979,0.00012605,0
50.98,0.00014418,0
50.98,0.00011128,0
50.981,5.7908e-05,0
50.981,2.7024e-05,0
50.982,2.3331e-05,0
50.982,1.2421e-05,0
50.983,-1.5946e-05,0
50.983,-4.7166e-05,0
50.984,-7.0329e-05,0
50.984,-0.00010138,0
50.985,-0.00014754,0
50.985,-0.00018849,0
50.986,-0.00020562,0
50.986,-0.00017473,0
50.987,-9.1814e-05,0
50.987,9.0639e-06,0
50.988,9.2485e-05,0
50.988,0.00015224,0
50.989,0.00018598,0
50.989,0.00018077,0
50.99,0.0001415,0
50.991,8.6442e-05,0
50.991,3.6088e-05,0
50.992,7.3854e-06,0
50.992,-4.1962e-06,0
50.993,-5.0355e-06,0
50.993,8.896e-06,0
50.994,2.652e-05,0
50.994,4.7837e-05,0
50.995,6.7979e-05,0
50.995,6.865e-05,0
50.996,5.9922e-05,0
50.996,6.2272e-05,0
50.997,6.9322e-05,0
50.997,6.8315e-05,0
50.998,5.7237e-05,0
50.998,3.2731e-05,0
50.999,-3.1891e-06,0
50.999,-3.4073e-05,0
51,-7.1672e-05,0
51,-0.00012908,0
51.001,-0.00018849,0
51.001,-0.00020243,0
51.002,-0.0001566,0
51.002,-9.1478e-05,0
51.003,-3.8941e-05,0
51.004,8.3925e-07,0
51.004,4.3473e-05,0
51.005,9.0303e-05,0
51.005,0.00012337,0
51.006,0.00012522,0
51.006,9.8863e-05,0
51.007,7.6707e-05,0
51.007,6.9657e-05,0
51.008,6.7308e-05,0
51.008,6.9154e-05,0
51.009,8.2582e-05,0
51.009,9.601e-05,0
51.01,9.5842e-05,0
51.01,8.5771e-05,0
51.011,7.4022e-05,0
51.011,5.9419e-05,0
51.012,4.1291e-05,0
51.012,2.6688e-05,0
51.013,1.9638e-05,0
51.013,2.5681e-05,0
51.014,3.4745e-05,0
51.014,3.2731e-05,0
51.015,1.5274e-05,0
51.015,-1.4267e-05,0
51.016,-3.4241e-05,0
51.017,-3.6423e-05,0
51.017,-2.5849e-05,0
51.018,-9.3996e-06,0
51.018,8.5603e-06,0
51.019,2.5681e-05,0
51.019,2.9038e-05,0
51.02,1.7288e-05,0
51.02,7.8889e-06,0
51.021,2.182e-06,0
51.021,-8.896e-06,0
51.022,-1.8631e-05,0
51.022,-1.6785e-05,0
51.023,-8.2246e-06,0
51.023,-1.5106e-06,0
51.024,3.8605e-06,0
51.024,1.1246e-05,0
51.025,2.1988e-05,0
51.025,3.1891e-05,0
51.026,3.7766e-05,0
51.026,3.2731e-05,0
51.027,-4.3641e-06,0
51.027,-8.1743e-05,0
51.028,-0.0001697,0
51.028,-0.00022374,0
51.029,-0.00021871,0
51.029,-0.00015627,0
51.03,-5.2873e-05,0
51.031,6.9322e-05,0
51.031,0.00019252,0
51.032,0.0002986,0
51.032,0.00035164,0
51.033,0.00032831,0
51.033,0.00024154,0
51.034,0.00014217,0
51.034,7.6036e-05,0
51.035,4.4816e-05,0
51.035,2.9374e-05,0
51.036,2.182e-05,0
51.036,1.9974e-05,0
51.037,1.9303e-05,0
51.037,1.6617e-05,0
51.038,6.5461e-06,0
51.038,-1.6617e-05,0
51.039,-4.2969e-05,0
51.039,-5.8076e-05,0
51.04,-7.2007e-05,0
51.04,-0.00010558,0
51.041,-0.00016164,0
51.041,-0.0002219,0
51.042,-0.00026067,0
51.042,-0.00026252,0
51.043,-0.00021753,0
51.044,-0.00012471,0
51.044,-1.091e-05,0
51.045,7.9057e-05,0
51.045,0.00013143,0
51.046,0.000165,0
51.046,0.00017943,0
51.047,0.00016164,0
51.047,0.0001284,0
51.048,9.7856e-05,0
51.048,8.7617e-05,0
51.049,9.7856e-05,0
51.049,7.6204e-05,0
51.05,1.5274e-05,0
51.05,-2.2995e-05,0
51.051,-5.2033e-06,0
51.051,4.6326e-05,0
51.052,0.00010558,0
51.052,0.00016231,0
51.053,0.00020108,0
51.053,0.00021166,0
51.054,0.0001942,0
51.054,0.00015828,0
51.055,0.00012538,0
51.055,0.00011229,0
51.056,0.00010507,0
51.056,8.8121e-05,0
51.057,6.7643e-05,0
51.058,4.5823e-05,0
51.058,1.9303e-05,0
51.059,-7.5532e-06,0
51.059,-3.2563e-05,0
51.06,-4.7333e-05,0
51.06,-4.3809e-05,0
51.061,-2.7359e-05,0
51.061,-7.8889e-06,0
51.062,-2.3499e-06,0
51.062,-5.7069e-06,0
51.063,9.9031e-06,0
51.063,4.1123e-05,0
51.064,5.623e-05,0
51.064,4.7166e-05,0
51.065,2.7527e-05,0
51.065,8.5603e-06,0
51.066,-6.2104e-06,0
51.066,-1.561e-05,0
51.067,-3.4409e-05,0
51.067,-7.8386e-05,0
51.068,-0.00013361,0
51.068,-0.00016869,0
51.069,-0.00016886,0
51.069,-0.00014788,0
51.07,-0.00013394,0
51.071,-0.00013663,0
51.071,-0.00013982,0
51.072,-0.00013126,0
51.072,-0.00011162,0
51.073,-0.00010256,0
51.073,-0.00010105,0
51.074,-8.7114e-05,0
51.074,-5.3376e-05,0
51.075,-1.8296e-05,0
51.075,-1.3428e-06,0
51.076,4.3641e-06,0
51.076,1.8631e-05,0
51.077,3.7766e-05,0
51.077,6.2776e-05,0
51.078,0.00011783,0
51.078,0.00019051,0
51.079,0.00024321,0
51.079,0.00024959,0
51.08,0.00020713,0
51.08,0.0001467,0
51.081,0.00010574,0
51.081,9.2821e-05,0
51.082,9.1814e-05,0
51.082,9.0806e-05,0
51.083,8.5771e-05,0
51.083,8.0064e-05,0
51.084,7.7043e-05,0
51.085,6.7475e-05,0
51.085,4.7837e-05,0
51.086,3.5752e-05,0
51.086,4.0452e-05,0
51.087,5.2705e-05,0
51.087,5.9419e-05,0
51.088,5.6062e-05,0
51.088,4.9851e-05,0
51.089,3.4745e-05,0
51.089,3.5248e-06,0
51.09,-3.743e-05,0
51.09,-7.7546e-05,0
51.091,-0.00012639,0
51.091,-0.00016634,0
51.092,-0.00017272,0
51.092,-0.00014838,0
51.093,-0.00011196,0
51.093,-6.009e-05,0
51.094,1.4771e-05,0
51.094,7.8889e-05,0
51.095,0.0001039,0
51.095,9.8527e-05,0
51.096,7.3686e-05,0
51.096,3.508e-05,0
51.097,-3.0549e-05,0
51.097,-0.00010188,0
51.098,-0.00012706,0
51.099,-0.0001086,0
51.099,-7.1e-05,0
51.1,-9.5674e-06,0
51.1,8.1407e-05,0
51.101,0.00017305,0
51.101,0.00022542,0
51.102,0.00022727,0
51.102,0.0002031,0
51.103,0.0001744,0
51.103,0.00015425,0
51.104,0.00013025,0
51.104,8.7114e-05,0
51.105,3.508e-05,0
51.105,-6.714e-07,0
51.106,-6.3783e-06,0
51.106,1.6617e-05,0
51.107,4.9012e-05,0
51.107,6.6636e-05,0
51.108,6.7308e-05,0
51.108,6.2272e-05,0
51.109,5.2201e-05,0
51.109,2.0142e-05,0
51.11,-2.9709e-05,0
51.11,-6.865e-05,0
51.111,-7.6875e-05,0
51.112,-5.4887e-05,0
51.112,-2.6184e-05,0
51.113,-9.7353e-06,0
51.113,-3.5248e-06,0
51.114,6.3783e-06,0
51.114,2.4674e-05,0
51.115,3.8773e-05,0
51.115,4.5991e-05,0
51.116,6.5629e-05,0
51.116,0.00010105,0
51.117,0.00013109,0
51.117,0.00014267,0
51.118,0.00013646,0
51.118,0.00011901,0
51.119,9.366e-05,0
51.119,6.3615e-05,0
51.12,2.7695e-05,0
51.12,-2.7024e-05,0
51.121,-8.896e-05,0
51.121,-0.00013327,0
51.122,-0.00014368,0
51.122,-0.00012975,0
51.123,-0.00011347,0
51.123,-9.7856e-05,0
51.124,-7.6036e-05,0
51.124,-4.8508e-05,0
51.125,-1.091e-05,0
51.126,3.1388e-05,0
51.126,5.4887e-05,0
51.127,5.6062e-05,0
51.127,5.2369e-05,0
51.128,4.4816e-05,0
51.128,3.5416e-05,0
51.129,2.6184e-05,0
51.129,1.4099e-05,0
51.13,7.2175e-06,0
51.13,9.3996e-06,0
51.131,1.1749e-06,0
51.131,-3.9277e-05,0
51.132,-9.0303e-05,0
51.132,-0.0001086,0
51.133,-8.4932e-05,0
51.133,-4.0116e-05,0
51.134,4.5319e-06,0
51.134,3.743e-05,0
51.135,6.3783e-05,0
51.135,9.6513e-05,0
51.136,0.00010658,0
51.136,5.623e-05,0
51.137,-2.7695e-05,0
51.137,-9.1142e-05,0
51.138,-0.00011598,0
51.139,-0.00011951,0
51.139,-0.0001237,0
51.14,-0.000118,0
51.14,-7.4693e-05,0
51.141,7.5532e-06,0
51.141,8.9799e-05,0
51.142,0.00012757,0
51.142,0.00012438,0
51.143,0.00013075,0
51.143,0.00015962,0
51.144,0.00017339,0
51.144,0.00015056,0
51.145,0.00010541,0
51.145,6.7475e-05,0
51.146,4.3473e-05,0
51.146,1.326e-05,0
51.147,-3.3234e-05,0
51.147,-8.2582e-05,0
51.148,-0.00010709,0
51.148,-9.1142e-05,0
51.149,-3.827e-05,0
51.149,3.0549e-05,0
51.15,9.6513e-05,0
51.15,0.00013948,0
51.151,0.00014989,0
51.151,0.00012773,0
51.152,9.4499e-05,0
51.153,7.9393e-05,0
51.153,8.6442e-05,0
51.154,9.8863e-05,0
51.154,0.00011044,0
51.155,0.00012757,0
51.155,0.00013646,0
51.156,0.00011447,0
51.156,7.2175e-05,0
51.157,3.9109e-05,0
51.157,2.6352e-05,0
51.158,2.1317e-05,0
51.158,1.5778e-05,0
51.159,8.3925e-06,0
51.159,-1.0239e-05,0
51.16,-4.213e-05,0
51.16,-6.5293e-05,0
51.161,-6.9993e-05,0
51.161,-6.949e-05,0
51.162,-6.4454e-05,0
51.162,-5.4551e-05,0
51.163,-4.4648e-05,0
51.163,-3.2898e-05,0
51.164,-1.9974e-05,0
51.164,-1.2253e-05,0
51.165,-5.3712e-06,0
51.166,3.0213e-06,0
51.166,1.091e-05,0
51.167,1.6953e-05,0
51.167,7.5532e-06,0
51.168,-1.9303e-05,0
51.168,-3.9109e-05,0
51.169,-3.4073e-05,0
51.169,-1.0575e-05,0
51.17,1.1078e-05,0
51.17,1.8296e-05,0
51.171,1.9974e-05,0
51.171,2.7863e-05,0
51.172,3.508e-05,0
51.172,2.8702e-05,0
51.173,-4.3641e-06,0
51.173,-6.244e-05,0
51.174,-0.00011598,0
51.174,-0.0001326,0
51.175,-0.0001039,0
51.175,-5.069e-05,0
51.176,7.7211e-06,0
51.176,6.6804e-05,0
51.177,0.0001185,0
51.177,0.00015795,0
51.178,0.00018614,0
51.178,0.00018715,0
51.179,0.0001566,0
51.18,0.00011699,0
51.18,7.2679e-05,0
51.181,2.6352e-05,0
51.181,-1.4603e-05,0
51.182,-5.2873e-05,0
51.182,-8.9799e-05,0
51.183,-0.00012438,0
51.183,-0.00016768,0
51.184,-0.00021283,0
51.184,-0.00021787,0
51.185,-0.00014838,0
51.185,-1.1078e-05,0
51.186,0.00012337,0
51.186,0.00019722,0
51.187,0.00021686,0
51.187,0.00020343,0
51.188,0.00018547,0
51.188,0.00018111,0
51.189,0.00017641,0
51.189,0.00016701,0
51.19,0.00016399,0
51.19,0.00017255,0
51.191,0.00016869,0
51.191,0.00012471,0
51.192,5.3544e-05,0
51.193,-6.8818e-06,0
51.193,-3.1724e-05,0
51.194,-3.0884e-05,0
51.194,-3.4409e-05,0
51.195,-4.8508e-05,0
51.195,-4.1123e-05,0
51.196,5.539e-06,0
51.196,4.2802e-05,0
51.197,3.3066e-05,0
51.197,-2.5177e-06,0
51.198,-3.3066e-05,0
51.198,-3.9277e-05,0
51.199,-2.6352e-05,0
51.199,-1.1917e-05,0
51.2,5.0355e-07,0
51.2,2.0142e-05,0
51.201,5.9419e-05,0
51.201,0.00010054,0
51.202,0.0001133,0
51.202,9.9702e-05,0
51.203,6.6972e-05,0
51.203,2.4674e-05,0
51.204,-5.7069e-06,0
51.204,-1.1749e-05,0
51.205,-1.6953e-05,0
51.206,-5.2705e-05,0
51.206,-0.00012236,0
51.207,-0.00021032,0
51.207,-0.00030129,0
51.208,-0.00036104,0
51.208,-0.00036826,0
51.209,-0.00035215,0
51.209,-0.00031858,0
51.21,-0.00024607,0
51.21,-0.00010037,0
51.211,0.00010289,0
51.211,0.0002939,0
51.212,0.00042852,0
51.212,0.0004819,0
51.213,0.0004641,0
51.213,0.00041006,0
51.214,0.00032882,0
51.214,0.00023952,0
51.215,0.00017037,0
51.215,0.00012387,0
51.216,9.4499e-05,0
51.216,7.5029e-05,0
51.217,6.479e-05,0
51.217,6.2272e-05,0
51.218,5.8244e-05,0
51.218,4.8676e-05,0
51.219,3.978e-05,0
51.22,3.5248e-05,0
51.22,2.6688e-05,0
51.221,1.2253e-05,0
51.221,-4.8676e-06,0
51.222,-2.5681e-05,0
51.222,-4.8341e-05,0
51.223,-6.0594e-05,0
51.223,-6.1601e-05,0
51.224,-5.8747e-05,0
51.224,-5.3376e-05,0
51.225,-5.3544e-05,0
51.225,-8.4428e-05,0
51.226,-0.00014217,0
51.226,-0.00018799,0
51.227,-0.00019655,0
51.227,-0.00017087,0
51.228,-0.00012673,0
51.228,-8.426e-05,0
51.229,-4.0116e-05,0
51.229,2.7192e-05,0
51.23,0.00010457,0
51.23,0.00014032,0
51.231,0.00012337,0
51.231,9.7856e-05,0
51.232,7.9057e-05,0
51.233,6.0258e-05,0
51.233,3.7263e-05,0
51.234,1.2421e-05,0
51.234,-7.7211e-06,0
51.235,-1.3931e-05,0
51.235,-2.0142e-06,0
51.236,1.5274e-05,0
51.236,2.2828e-05,0
51.237,2.1988e-05,0
51.237,2.0981e-05,0
51.238,2.7359e-05,0
51.238,4.4144e-05,0
51.239,6.0929e-05,0
51.239,6.8315e-05,0
51.24,6.6133e-05,0
51.24,5.8076e-05,0
51.241,4.7837e-05,0
51.241,3.6759e-05,0
51.242,2.1149e-05,0
51.242,-5.8747e-06,0
51.243,-4.8173e-05,0
51.243,-9.3492e-05,0
51.244,-0.00012605,0
51.244,-0.00013193,0
51.245,-0.0001086,0
51.245,-6.5293e-05,0
51.246,-1.6281e-05,0
51.247,3.2059e-05,0
51.247,8.51e-05,0
51.248,0.00014754,0
51.248,0.00019789,0
51.249,0.00019773,0
51.249,0.00015325,0
51.25,0.00010961,0
51.25,9.0471e-05,0
51.251,8.5771e-05,0
51.251,8.0735e-05,0
51.252,7.2007e-05,0
51.252,6.2272e-05,0
51.253,4.918e-05,0
51.253,2.9038e-05,0
51.254,5.0355e-07,0
51.254,-3.4073e-05,0
51.255,-7.0329e-05,0
51.255,-9.752e-05,0
51.256,-0.00010692,0
51.256,-9.4499e-05,0
51.257,-6.4622e-05,0
51.257,-2.3499e-05,0
51.258,2.1317e-05,0
51.258,5.9586e-05,0
51.259,8.2414e-05,0
51.26,8.7785e-05,0
51.26,6.949e-05,0
51.261,3.4409e-05,0
51.261,1.796e-05,0
51.262,1.5274e-05,0
51.262,2.5177e-06,0
51.263,-1.3596e-05,0
51.263,-1.0239e-05,0
51.264,1.0239e-05,0
51.264,3.5584e-05,0
51.265,6.4286e-05,0
51.265,8.7953e-05,0
51.266,9.2653e-05,0
51.266,7.2343e-05,0
51.267,4.1291e-05,0
51.267,1.9303e-05,0
51.268,1.1917e-05,0
51.268,4.8676e-06,0
51.269,-1.1582e-05,0
51.269,-2.266e-05,0
51.27,-2.2492e-05,0
51.27,-4.0787e-05,0
51.271,-9.987e-05,0
51.271,-0.00016147,0
51.272,-0.00018044,0
51.272,-0.00015694,0
51.273,-0.00010893,0
51.274,-4.8173e-05,0
51.274,1.326e-05,0
51.275,4.8173e-05,0
51.275,3.6591e-05,0
51.276,-1.3931e-05,0
51.276,-6.7475e-05,0
51.277,-8.7617e-05,0
51.277,-5.9922e-05,0
51.278,7.8889e-06,0
51.278,9.0806e-05,0
51.279,0.00018111,0
51.279,0.00026839,0
51.28,0.00032143,0
51.28,0.00032613,0
51.281,0.0003033,0
51.281,0.00027108,0
51.282,0.00023247,0
51.282,0.00019303,0
51.283,0.00014922,0
51.283,9.4499e-05,0
51.284,4.1794e-05,0
51.284,1.6617e-05,0
51.285,1.6617e-05,0
51.285,1.7288e-05,0
51.286,8.2246e-06,0
51.286,4.8676e-06,0
51.287,9.2317e-06,0
51.288,7.3854e-06,0
51.288,-3.5248e-06,0
51.289,-1.7121e-05,0
51.289,-2.5849e-05,0
51.29,-2.7695e-05,0
51.29,-2.8367e-05,0
51.291,-3.4409e-05,0
51.291,-4.1794e-05,0
51.292,-4.448e-05,0
51.292,-4.8005e-05,0
51.293,-6.5965e-05,0
51.293,-9.9535e-05,0
51.294,-0.00013848,0
51.294,-0.0001707,0
51.295,-0.00018144,0
51.295,-0.00016584,0
51.296,-0.00013747,0
51.296,-9.6178e-05,0
51.297,-3.0884e-05,0
51.297,5.2873e-05,0
51.298,0.00012404,0
51.298,0.00014905,0
51.299,0.00012505,0
51.299,8.1071e-05,0
51.3,5.0523e-05,0
51.301,4.0787e-05,0
51.301,5.5558e-05,0
51.302,8.4428e-05,0
51.302,0.0001044,0
51.303,0.00011313,0
51.303,0.00012068,0
51.304,0.00012454,0
51.304,0.0001138,0
51.305,8.4092e-05,0
51.305,4.3977e-05,0
51.306,1.0575e-05,0
51.306,-9.2317e-06,0
51.307,-2.9206e-05,0
51.307,-6.1433e-05,0
51.308,-9.2149e-05,0
51.308,-0.00010105,0
51.309,-9.3156e-05,0
51.309,-0.00010306,0
51.31,-0.00014871,0
51.31,-0.00020948,0
51.311,-0.00027225,0
51.311,-0.00034023,0
51.312,-0.00039696,0
51.312,-0.00040787,0
51.313,-0.00033016,0
51.313,-0.00015425,0
51.314,7.0329e-05,0
51.315,0.00027024,0
51.315,0.00041341,0
51.316,0.00050707,0
51.316,0.00053829,0
51.317,0.00047417,0
51.317,0.0003456,0
51.318,0.00023012,0
51.318,0.00015795,0
51.319,0.00012572,0
51.319,0.00012773,0
51.32,0.00014485,0
51.32,0.00016332,0
51.321,0.00016768,0
51.321,0.00014603,0
51.322,9.987e-05,0
51.322,4.5823e-05,0
51.323,8.896e-06,0
51.323,8.3925e-07,0
51.324,1.2924e-05,0
51.324,2.6688e-05,0
51.325,3.0549e-05,0
51.325,2.7024e-05,0
51.326,2.3667e-05,0
51.326,1.0071e-05,0
51.327,-2.3835e-05,0
51.328,-6.9993e-05,0
51.328,-0.00010541,0
51.329,-0.00012102,0
51.329,-0.00013428,0
51.33,-0.00015325,0
51.33,-0.0001608,0
51.331,-0.00014166,0
51.331,-9.7353e-05,0
51.332,-4.1794e-05,0
51.332,1.3764e-05,0
51.333,4.8844e-05,0
51.333,3.6088e-05,0
51.334,-1.6281e-05,0
51.334,-6.7811e-05,0
51.335,-9.366e-05,0
51.335,-9.1478e-05,0
51.336,-6.9993e-05,0
51.336,-3.7263e-05,0
51.337,1.3596e-05,0
51.337,8.0903e-05,0
51.338,0.00014133,0
51.338,0.00017154,0
51.339,0.00016634,0
51.339,0.00014318,0
51.34,0.00011649,0
51.34,9.5171e-05,0
51.341,7.5029e-05,0
51.342,5.3544e-05,0
51.342,3.508e-05,0
51.343,1.0575e-05,0
51.343,-3.4409e-05,0
51.344,-9.8863e-05,0
51.344,-0.0001556,0
51.345,-0.00016701,0
51.345,-0.00013881,0
51.346,-0.00010088,0
51.346,-5.8915e-05,0
51.347,-8.896e-06,0
51.347,4.3977e-05,0
51.348,8.8457e-05,0
51.348,0.00010558,0
51.349,9.5171e-05,0
51.349,8.0064e-05,0
51.35,7.1e-05,0
51.35,6.479e-05,0
51.351,4.9348e-05,0
51.351,2.0981e-05,0
51.352,-1.6281e-05,0
51.352,-5.0523e-05,0
51.353,-6.6636e-05,0
51.353,-5.8076e-05,0
51.354,-3.6255e-05,0
51.355,-9.9031e-06,0
51.355,2.6688e-05,0
51.356,6.3447e-05,0
51.356,8.7617e-05,0
51.357,8.5435e-05,0
51.357,5.153e-05,0
51.358,1.4771e-05,0
51.358,-3.357e-07,0
51.359,-8.3925e-07,0
51.359,1.8463e-06,0
51.36,9.7353e-06,0
51.36,2.1317e-05,0
51.361,3.0045e-05,0
51.361,3.7934e-05,0
51.362,5.0523e-05,0
51.362,6.0258e-05,0
51.363,6.3279e-05,0
51.363,7.0329e-05,0
51.364,8.6778e-05,0
51.364,9.9031e-05,0
51.365,9.0974e-05,0
51.365,5.6901e-05,0
51.366,3.8605e-06,0
51.366,-5.9922e-05,0
51.367,-0.00013495,0
51.367,-0.00021032,0
51.368,-0.00025983,0
51.369,-0.00026654,0
51.369,-0.00021971,0
51.37,-0.00011464,0
51.37,9.2317e-06,0
51.371,0.00012068,0
51.371,0.00021703,0
51.372,0.00025748,0
51.372,0.00021334,0
51.373,0.00013042,0
51.373,7.57e-05,0
51.374,5.4887e-05,0
51.374,4.1123e-05,0
51.375,1.2085e-05,0
51.375,-4.2298e-05,0
51.376,-9.5171e-05,0
51.376,-0.00010658,0
51.377,-8.275e-05,0
51.377,-4.0116e-05,0
51.378,1.5274e-05,0
51.378,8.275e-05,0
51.379,0.000165,0
51.379,0.00024959,0
51.38,0.00031002,0
51.38,0.00031707,0
51.381,0.00027309,0
51.382,0.00021065,0
51.382,0.0001519,0
51.383,0.00010726,0
51.383,8.1407e-05,0
51.384,6.4622e-05,0
51.384,4.1627e-05,0
51.385,1.8296e-05,0
51.385,5.8747e-06,0
51.386,-4.8676e-06,0
51.386,-2.0981e-05,0
51.387,-3.3066e-05,0
51.387,-3.8773e-05,0
51.388,-4.7501e-05,0
51.388,-7.1336e-05,0
51.389,-0.00011095,0
51.389,-0.00014318,0
51.39,-0.00014368,0
51.39,-0.00011263,0
51.391,-6.7643e-05,0
51.391,-1.6281e-05,0
51.392,3.9445e-05,0
51.392,9.2485e-05,0
51.393,0.00013881,0
51.393,0.00016265,0
51.394,0.00014133,0
51.395,8.4932e-05,0
51.395,2.6184e-05,0
51.396,-1.4435e-05,0
51.396,-3.4409e-05,0
51.397,-2.3163e-05,0
51.397,1.4099e-05,0
51.398,5.3376e-05,0
51.398,7.2343e-05,0
51.399,5.069e-05,0
51.399,-1.5106e-06,0
51.4,-5.8915e-05,0
51.4,-0.00012186,0
51.401,-0.00017742,0
51.401,-0.00019454,0
51.402,-0.00016936,0
51.402,-0.00011145,0
51.403,-1.5778e-05,0
51.403,0.00011313,0
51.404,0.00023314,0
51.404,0.00030498,0
51.405,0.0003174,0
51.405,0.00028635,0
51.406,0.00024154,0
51.406,0.00018581,0
51.407,0.00012186,0
51.407,7.4861e-05,0
51.408,5.4551e-05,0
51.409,4.6159e-05,0
51.409,3.6759e-05,0
51.41,1.9135e-05,0
51.41,-3.6927e-06,0
51.411,-1.7288e-05,0
51.411,-2.3331e-05,0
51.412,-2.6688e-05,0
51.412,-3.2395e-05,0
51.413,-4.5487e-05,0
51.413,-6.4622e-05,0
51.414,-7.8721e-05,0
51.414,-8.6442e-05,0
51.415,-9.2317e-05,0
51.415,-9.7185e-05,0
51.416,-0.00010155,0
51.416,-9.9031e-05,0
51.417,-8.04e-05,0
51.417,-5.153e-05,0
51.418,-2.7863e-05,0
51.418,-1.4603e-05,0
51.419,-7.5532e-06,0
51.419,-1.4939e-05,0
51.42,-3.7095e-05,0
51.42,-4.9012e-05,0
51.421,-3.978e-05,0
51.422,-3.4409e-05,0
51.422,-5.3208e-05,0
51.423,-9.8863e-05,0
51.423,-0.00014435,0
51.424,-0.00014519,0
51.424,-9.4499e-05,0
51.425,-2.5849e-05,0
51.425,3.4745e-05,0
51.426,8.04e-05,0
51.426,0.00011095,0
51.427,0.00012337,0
51.427,0.00011464,0
51.428,8.4764e-05,0
51.428,5.4551e-05,0
51.429,4.4312e-05,0
51.429,5.2873e-05,0
51.43,6.4958e-05,0
51.43,7.2343e-05,0
51.431,7.2175e-05,0
51.431,6.2608e-05,0
51.432,4.8005e-05,0
51.432,3.7263e-05,0
51.433,2.887e-05,0
51.433,1.8967e-05,0
51.434,1.1582e-05,0
51.434,1.0071e-05,0
51.435,8.896e-06,0
51.436,2.5177e-06,0
51.436,-2.8534e-06,0
51.437,1.0071e-06,0
51.437,1.2253e-05,0
51.438,2.4002e-05,0
51.438,2.5681e-05,0
51.439,1.8296e-05,0
51.439,1.2589e-05,0
51.44,1.5106e-05,0
51.44,2.266e-05,0
51.441,2.6688e-05,0
51.441,2.6352e-05,0
51.442,2.3667e-05,0
51.442,2.4842e-05,0
51.443,3.3906e-05,0
51.443,4.6998e-05,0
51.444,5.2873e-05,0
51.444,4.2466e-05,0
51.445,2.5681e-05,0
51.445,4.5319e-06,0
51.446,-2.7527e-05,0
51.446,-7.9896e-05,0
51.447,-0.00015778,0
51.447,-0.00023566,0
51.448,-0.00027846,0
51.449,-0.00026957,0
51.449,-0.0002088,0
51.45,-0.00011078,0
51.45,6.2104e-06,0
51.451,0.00012941,0
51.451,0.00023986,0
51.452,0.00029357,0
51.452,0.00027376,0
51.453,0.000213,0
51.453,0.00016197,0
51.454,0.00015291,0
51.454,0.00017473,0
51.455,0.00020427,0
51.455,0.00023583,0
51.456,0.00025211,0
51.456,0.0002318,0
51.457,0.00017977,0
51.457,0.00012522,0
51.458,8.9799e-05,0
51.458,6.1936e-05,0
51.459,2.0142e-05,0
51.459,-5.8915e-05,0
51.46,-0.00016114,0
51.46,-0.00022995,0
51.461,-0.00023381,0
51.461,-0.00018967,0
51.462,-0.00012908,0
51.463,-5.1865e-05,0
51.463,5.5055e-05,0
51.464,0.0001707,0
51.464,0.00025362,0
51.465,0.00027779,0
51.465,0.00024154,0
51.466,0.00015761,0
51.466,3.743e-05,0
51.467,-7.8721e-05,0
51.467,-0.00013462,0
51.468,-0.00013277,0
51.468,-0.00012874,0
51.469,-0.00013512,0
51.469,-0.00012404,0
51.47,-0.00010759,0
51.47,-9.7017e-05,0
51.471,-8.5435e-05,0
51.471,-8.1743e-05,0
51.472,-7.0161e-05,0
51.472,-1.4603e-05,0
51.473,6.1601e-05,0
51.473,0.00010692,0
51.474,0.00012824,0
51.474,0.00014351,0
51.475,0.000166,0
51.475,0.00021703,0
51.476,0.0002694,0
51.477,0.00025295,0
51.477,0.0001707,0
51.478,9.0974e-05,0
51.478,5.153e-05,0
51.479,4.5151e-05,0
51.479,4.6326e-05,0
51.48,3.6759e-05,0
51.48,1.9303e-05,0
51.481,8.896e-06,0
51.481,1.0575e-05,0
51.482,8.3925e-07,0
51.482,-2.6688e-05,0
51.483,-5.1194e-05,0
51.483,-5.5558e-05,0
51.484,-4.1291e-05,0
51.484,-2.1317e-05,0
51.485,-1.2589e-05,0
51.485,-2.1653e-05,0
51.486,-3.5248e-05,0
51.486,-4.1962e-05,0
51.487,-4.1459e-05,0
51.487,-3.6423e-05,0
51.488,-2.887e-05,0
51.488,-1.9303e-05,0
51.489,-4.1962e-06,0
51.49,1.9135e-05,0
51.49,4.1123e-05,0
51.491,4.8844e-05,0
51.491,4.1794e-05,0
51.492,3.1724e-05,0
51.492,2.3331e-05,0
51.493,1.7792e-05,0
51.493,1.0575e-05,0
51.494,-6.2104e-06,0
51.494,-2.9877e-05,0
51.495,-5.3376e-05,0
51.495,-6.0426e-05,0
51.496,-4.6326e-05,0
51.496,-2.3163e-05,0
51.497,-1.6785e-06,0
51.497,1.326e-05,0
51.498,1.8631e-05,0
51.498,1.3092e-05,0
51.499,2.3499e-06,0
51.499,-2.5177e-06,0
51.5,-2.0142e-06,0
51.5,-8.3925e-06,0
51.501,-2.4338e-05,0
51.501,-3.6591e-05,0
51.502,-3.4409e-05,0
51.502,-1.9638e-05,0
51.503,-9.0639e-06,0
51.504,-1.091e-05,0
51.504,-1.2924e-05,0
51.505,-5.3712e-06,0
51.505,7.0497e-06,0
51.506,9.5674e-06,0
51.506,-5.2033e-06,0
51.507,-6.2104e-06,0
51.507,3.0045e-05,0
51.508,7.1672e-05,0
51.508,7.8889e-05,0
51.509,6.4958e-05,0
51.509,6.5293e-05,0
51.51,7.7882e-05,0
51.51,8.0735e-05,0
51.511,6.4118e-05,0
51.511,4.3809e-05,0
51.512,3.5752e-05,0
51.512,3.5416e-05,0
51.513,3.978e-05,0
51.513,3.9277e-05,0
51.514,2.4338e-05,0
51.514,-1.326e-05,0
51.515,-9.0471e-05,0
51.515,-0.00018514,0
51.516,-0.00024086,0
51.517,-0.000237,0
51.517,-0.00019303,0
51.518,-0.00012992,0
51.518,-4.6494e-05,0
51.519,6.8818e-05,0
51.519,0.0001801,0
51.52,0.00022979,0
51.52,0.00020259,0
51.521,0.00013411,0
51.521,6.4622e-05,0
51.522,-6.2104e-06,0
51.522,-6.1601e-05,0
51.523,-6.1265e-05,0
51.523,-1.5106e-06,0
51.524,9.6513e-05,0
51.524,0.00020008,0
51.525,0.00025731,0
51.525,0.00024154,0
51.526,0.00019034,0
51.526,0.0001415,0
51.527,0.00010004,0
51.527,6.009e-05,0
51.528,3.6088e-05,0
51.528,4.3641e-05,0
51.529,7.2847e-05,0
51.529,0.00010709,0
51.53,0.00012857,0
51.531,0.00011464,0
51.531,7.7043e-05,0
51.532,4.1962e-05,0
51.532,2.3331e-05,0
51.533,1.7792e-05,0
51.533,9.5674e-06,0
51.534,-6.8818e-06,0
51.534,-2.4002e-05,0
51.535,-3.508e-05,0
51.535,-3.9445e-05,0
51.536,-4.3809e-05,0
51.536,-4.683e-05,0
51.537,-4.1123e-05,0
51.537,-3.4073e-05,0
51.538,-3.7934e-05,0
51.538,-4.5991e-05,0
51.539,-4.448e-05,0
51.539,-2.4506e-05,0
51.54,7.8889e-06,0
51.54,2.9038e-05,0
51.541,1.9974e-05,0
51.541,-3.1052e-05,0
51.542,-0.00011917,0
51.542,-0.00020259,0
51.543,-0.0002365,0
51.544,-0.00021401,0
51.544,-0.00014099,0
51.545,-2.5345e-05,0
51.545,0.00010558,0
51.546,0.0002224,0
51.546,0.00028988,0
51.547,0.00029105,0
51.547,0.00024607,0
51.548,0.00019084,0
51.548,0.00014804,0
51.549,0.0001091,0
51.549,6.5629e-05,0
51.55,3.2563e-05,0
51.55,2.0981e-05,0
51.551,1.9471e-05,0
51.551,1.3931e-05,0
51.552,4.1962e-06,0
51.552,-4.6998e-06,0
51.553,-9.5674e-06,0
51.553,-1.1749e-05,0
51.554,-1.4603e-05,0
51.554,-1.5274e-05,0
51.555,-8.0568e-06,0
51.555,6.5461e-06,0
51.556,1.8631e-05,0
51.556,1.8296e-05,0
51.557,6.5461e-06,0
51.558,-5.539e-06,0
51.558,-7.5532e-06,0
51.559,-8.7282e-06,0
51.559,-2.7024e-05,0
51.56,-6.4118e-05,0
51.56,-9.8192e-05,0
51.561,-0.00010591,0
51.561,-8.896e-05,0
51.562,-5.9251e-05,0
51.562,-2.4842e-05,0
51.563,1.091e-05,0
51.563,3.9948e-05,0
51.564,5.5055e-05,0
51.564,5.623e-05,0
51.565,3.9109e-05,0
51.565,4.8676e-06,0
51.566,-2.0813e-05,0
51.566,-2.2995e-05,0
51.567,-1.4099e-05,0
51.567,6.714e-07,0
51.568,2.9709e-05,0
51.568,7.3014e-05,0
51.569,0.00011431,0
51.569,0.00013579,0
51.57,0.00014485,0
51.571,0.00013411,0
51.571,9.6513e-05,0
51.572,5.3208e-05,0
51.572,1.7288e-05,0
51.573,-1.1917e-05,0
51.573,-3.5248e-05,0
51.574,-6.4622e-05,0
51.574,-0.00010121,0
51.575,-0.00012387,0
51.575,-0.00013478,0
51.576,-0.00014553,0
51.576,-0.00014318,0
51.577,-0.00011431,0
51.577,-8.6107e-05,0
51.578,-8.0903e-05,0
51.578,-6.3447e-05,0
51.579,4.1962e-06,0
51.579,9.9702e-05,0
51.58,0.00018329,0
51.58,0.0002501,0
51.581,0.00028988,0
51.581,0.00027645,0
51.582,0.00022643,0
51.582,0.00016097,0
51.583,7.4022e-05,0
51.584,-2.7695e-05,0
51.584,-9.5674e-05,0
51.585,-9.8192e-05,0
51.585,-5.6062e-05,0
51.586,-2.182e-06,0
51.586,3.978e-05,0
51.587,6.4622e-05,0
51.587,8.6946e-05,0
51.588,0.00010491,0
51.588,9.8192e-05,0
51.589,7.3014e-05,0
51.589,5.0858e-05,0
51.59,3.6088e-05,0
51.59,1.9303e-05,0
51.591,-1.6785e-07,0
51.591,-6.5461e-06,0
51.592,9.9031e-06,0
51.592,2.3499e-05,0
51.593,1.3596e-05,0
51.593,-5.0355e-07,0
51.594,-8.2246e-06,0
51.594,-1.9471e-05,0
51.595,-3.4745e-05,0
51.595,-5.388e-05,0
51.596,-7.57e-05,0
51.596,-8.8457e-05,0
51.597,-9.0806e-05,0
51.598,-8.896e-05,0
51.598,-8.0232e-05,0
51.599,-5.1026e-05,0
51.599,7.5532e-06,0
51.6,7.7714e-05,0
51.6,0.00013478,0
51.601,0.00015828,0
51.601,0.00014452,0
51.602,0.00012505,0
51.602,0.00013008,0
51.603,0.00014922,0
51.603,0.00015358,0
51.604,0.00013529,0
51.604,0.0001086,0
51.605,8.1743e-05,0
51.605,5.6733e-05,0
51.606,3.4577e-05,0
51.606,1.9303e-05,0
51.607,9.0639e-06,0
51.607,-1.1749e-06,0
51.608,-1.3092e-05,0
51.608,-1.9303e-05,0
51.609,-1.796e-05,0
51.609,-3.2395e-05,0
51.61,-7.7714e-05,0
51.611,-0.00014519,0
51.611,-0.0002083,0
51.612,-0.00023784,0
51.612,-0.00022626,0
51.613,-0.00018077,0
51.613,-0.00011028,0
51.614,-1.9638e-05,0
51.614,8.04e-05,0
51.615,0.0001603,0
51.615,0.00019991,0
51.616,0.00020394,0
51.616,0.00017742,0
51.617,0.00013227,0
51.617,9.5842e-05,0
51.618,9.0806e-05,0
51.618,0.00010726,0
51.619,0.00012471,0
51.619,0.00012874,0
51.62,0.00011347,0
51.62,8.426e-05,0
51.621,4.8676e-05,0
51.621,1.1246e-05,0
51.622,-2.7359e-05,0
51.622,-7.6204e-05,0
51.623,-0.00015006,0
51.623,-0.00024942,0
51.624,-0.00034661,0
51.625,-0.00039545,0
51.625,-0.00036004,0
51.626,-0.0002417,0
51.626,-7.9057e-05,0
51.627,8.4428e-05,0
51.627,0.00021384,0
51.628,0.00030599,0
51.628,0.00034795,0
51.629,0.00030179,0
51.629,0.00016164,0
51.63,-1.6785e-06,0
51.63,-0.00010071,0
51.631,-0.00010692,0
51.631,-6.5629e-05,0
51.632,-1.8967e-05,0
51.632,3.1891e-05,0
51.633,8.4764e-05,0
51.633,0.00013462,0
51.634,0.000166,0
51.634,0.00016869,0
51.635,0.00016869,0
51.635,0.00017977,0
51.636,0.00018849,0
51.636,0.00017943,0
51.637,0.00014586,0
51.638,0.00010776,0
51.638,7.8218e-05,0
51.639,5.6901e-05,0
51.639,4.448e-05,0
51.64,4.0116e-05,0
51.64,3.2731e-05,0
51.641,1.9974e-05,0
51.641,9.0639e-06,0
51.642,-2.8534e-06,0
51.642,-1.8296e-05,0
51.643,-3.0381e-05,0
51.643,-3.0716e-05,0
51.644,-1.5274e-05,0
51.644,-5.0355e-07,0
51.645,-1.2757e-05,0
51.645,-5.3712e-05,0
51.646,-0.00010289,0
51.646,-0.00012522,0
51.647,-0.00010088,0
51.647,-4.5991e-05,0
51.648,9.5674e-06,0
51.648,4.4648e-05,0
51.649,6.9993e-05,0
51.649,9.5842e-05,0
51.65,9.0303e-05,0
51.65,4.3809e-05,0
51.651,-1.326e-05,0
51.652,-5.9251e-05,0
51.652,-8.2246e-05,0
51.653,-8.51e-05,0
51.653,-8.4428e-05,0
51.654,-7.4357e-05,0
51.654,-4.4144e-05,0
51.655,-2.182e-06,0
51.655,4.1962e-05,0
51.656,7.1672e-05,0
51.656,7.8386e-05,0
51.657,7.1336e-05,0
51.657,4.8844e-05,0
51.658,1.4435e-05,0
51.658,-2.1988e-05,0
51.659,-4.8508e-05,0
51.659,-4.062e-05,0
51.66,1.4435e-05,0
51.66,7.9561e-05,0
51.661,0.00011263,0
51.661,0.00011481,0
51.662,0.00010155,0
51.662,8.7114e-05,0
51.663,7.7546e-05,0
51.663,6.4286e-05,0
51.664,4.7669e-05,0
51.664,3.6759e-05,0
51.665,3.4409e-05,0
51.666,3.508e-05,0
51.666,2.7695e-05,0
51.667,1.4267e-05,0
51.667,5.2033e-06,0
51.668,2.8534e-06,0
51.668,1.6785e-07,0
51.669,-9.5674e-06,0
51.669,-2.3667e-05,0
51.67,-3.4073e-05,0
51.67,-3.4073e-05,0
51.671,-2.9541e-05,0
51.671,-2.652e-05,0
51.672,-2.501e-05,0
51.672,-2.1653e-05,0
51.673,-2.5177e-05,0
51.673,-4.2466e-05,0
51.674,-6.63e-05,0
51.674,-8.3757e-05,0
51.675,-7.5364e-05,0
51.675,-3.357e-05,0
51.676,1.6281e-05,0
51.676,5.2201e-05,0
51.677,8.4428e-05,0
51.677,0.00012807,0
51.678,0.00015862,0
51.679,0.00015073,0
51.679,0.00010843,0
51.68,3.8437e-05,0
51.68,-3.0549e-05,0
51.681,-5.1194e-05,0
51.681,-3.7766e-05,0
51.682,-2.7359e-05,0
51.682,-1.4603e-05,0
51.683,2.8534e-05,0
51.683,9.0471e-05,0
51.684,0.00011078,0
51.684,7.0161e-05,0
51.685,2.4674e-05,0
51.685,1.5274e-05,0
51.686,3.2563e-05,0
51.686,4.3473e-05,0
51.687,3.5752e-05,0
51.687,2.266e-05,0
51.688,1.8128e-05,0
51.688,2.1149e-05,0
51.689,1.8967e-05,0
51.689,1.0239e-05,0
51.69,9.9031e-06,0
51.69,1.5946e-05,0
51.691,-3.5248e-06,0
51.691,-7.4022e-05,0
51.692,-0.00017154,0
51.693,-0.00024321,0
51.693,-0.00026369,0
51.694,-0.00024623,0
51.694,-0.0001989,0
51.695,-0.00010121,0
51.695,2.3331e-05,0
51.696,0.00012538,0
51.696,0.00019554,0
51.697,0.00023801,0
51.697,0.0002553,0
51.698,0.00024154,0
51.698,0.00020662,0
51.699,0.00017305,0
51.699,0.00014015,0
51.7,0.00010574,0
51.7,7.2679e-05,0
51.701,4.1459e-05,0
51.701,1.5274e-05,0
51.702,-4.5319e-06,0
51.702,-2.7359e-05,0
51.703,-5.5894e-05,0
51.703,-7.4693e-05,0
51.704,-6.5797e-05,0
51.704,-3.827e-05,0
51.705,-1.4939e-05,0
51.706,7.2175e-06,0
51.706,4.8844e-05,0
51.707,0.00011061,0
51.707,0.00015543,0
51.708,0.00016231,0
51.708,0.00014452,0
51.709,0.00012186,0
51.709,0.00010121,0
51.71,7.7379e-05,0
51.71,5.3376e-05,0
51.711,3.9445e-05,0
51.711,3.3738e-05,0
51.712,2.2995e-05,0
51.712,-5.0355e-07,0
51.713,-3.7934e-05,0
51.713,-8.6275e-05,0
51.714,-0.0001331,0
51.714,-0.00016281,0
51.715,-0.0001749,0
51.715,-0.00017406,0
51.716,-0.00016684,0
51.716,-0.00014804,0
51.717,-9.4835e-05,0
51.717,-1.0575e-05,0
51.718,8.0903e-05,0
51.718,0.00015962,0
51.719,0.00020562,0
51.72,0.00021653,0
51.72,0.00021334,0
51.721,0.00019991,0
51.721,0.00016986,0
51.722,0.00012941,0
51.722,8.7114e-05,0
51.723,3.978e-05,0
51.723,-2.1653e-05,0
51.724,-7.7379e-05,0
51.724,-9.8192e-05,0
51.725,-9.9031e-05,0
51.725,-0.00010423,0
51.726,-0.0001044,0
51.726,-9.1646e-05,0
51.727,-8.896e-05,0
51.727,-0.00011179,0
51.728,-0.00014754,0
51.728,-0.000166,0
51.729,-0.00015459,0
51.729,-0.0001133,0
51.73,-5.9419e-05,0
51.73,-4.1962e-06,0
51.731,7.0329e-05,0
51.731,0.00017893,0
51.732,0.00028182,0
51.733,0.00032479,0
51.733,0.00030632,0
51.734,0.0002741,0
51.734,0.00024422,0
51.735,0.00019521,0
51.735,0.0001368,0
51.736,0.00010021,0
51.736,8.6442e-05,0
51.737,7.9561e-05,0
51.737,7.0497e-05,0
51.738,5.7572e-05,0
51.738,3.3234e-05,0
51.739,-8.3925e-07,0
51.739,-3.1052e-05,0
51.74,-4.918e-05,0
51.74,-5.8915e-05,0
51.741,-6.1601e-05,0
51.741,-5.1865e-05,0
51.742,-2.9374e-05,0
51.742,-1.1749e-06,0
51.743,2.3667e-05,0
51.743,3.5752e-05,0
51.744,2.8367e-05,0
51.744,3.357e-07,0
51.745,-4.0452e-05,0
51.745,-8.1743e-05,0
51.746,-0.00011598,0
51.747,-0.00014452,0
51.747,-0.00016751,0
51.748,-0.00017675,0
51.748,-0.00016785,0
51.749,-0.00013915,0
51.749,-8.8121e-05,0
51.75,-2.266e-05,0
51.75,5.153e-05,0
51.751,0.0001185,0
51.751,0.00016332,0
51.752,0.00018614,0
51.752,0.00019756,0
51.753,0.00018648,0
51.753,0.00013713,0
51.754,6.4286e-05,0
51.754,-5.2033e-06,0
51.755,-4.9851e-05,0
51.755,-6.0258e-05,0
51.756,-5.2873e-05,0
51.756,-4.3473e-05,0
51.757,-3.5752e-05,0
51.757,-2.031e-05,0
51.758,9.7353e-06,0
51.758,3.5416e-05,0
51.759,4.213e-05,0
51.76,3.743e-05,0
51.76,2.5849e-05,0
51.761,1.2924e-05,0
51.761,7.2175e-06,0
51.762,1.5442e-05,0
51.762,4.0452e-05,0
51.763,6.5293e-05,0
51.763,7.2007e-05,0
51.764,6.7475e-05,0
51.764,6.4118e-05,0
51.765,5.7572e-05,0
51.765,3.8605e-05,0
51.766,8.5603e-06,0
51.766,-2.031e-05,0
51.767,-4.6662e-05,0
51.767,-8.4932e-05,0
51.768,-0.00014519,0
51.768,-0.00021401,0
51.769,-0.0002459,0
51.769,-0.00021283,0
51.77,-0.00013361,0
51.77,-4.5823e-05,0
51.771,4.1794e-05,0
51.771,0.00013814,0
51.772,0.00023348,0
51.773,0.00028585,0
51.773,0.00025412,0
51.774,0.0001561,0
51.774,7.0665e-05,0
51.775,4.6159e-05,0
51.775,6.9825e-05,0
51.776,9.2317e-05,0
51.776,8.9296e-05,0
51.777,7.335e-05,0
51.777,5.623e-05,0
51.778,3.7934e-05,0
51.778,1.7456e-05,0
51.779,3.357e-06,0
51.779,5.0355e-06,0
51.78,1.4939e-05,0
51.78,2.3499e-05,0
51.781,2.5681e-05,0
51.781,2.266e-05,0
51.782,1.9638e-05,0
51.782,1.6617e-05,0
51.783,1.1582e-05,0
51.783,9.2317e-06,0
51.784,1.4267e-05,0
51.784,1.9471e-05,0
51.785,2.4002e-05,0
51.785,3.0549e-05,0
51.786,3.1388e-05,0
51.787,1.5442e-05,0
51.787,-2.1317e-05,0
51.788,-6.8818e-05,0
51.788,-0.00011363,0
51.789,-0.00015325,0
51.789,-0.00017742,0
51.79,-0.00017221,0
51.79,-0.00013881,0
51.791,-7.4022e-05,0
51.791,2.652e-05,0
51.792,0.00013512,0
51.792,0.00021434,0
51.793,0.00024506,0
51.793,0.00023113,0
51.794,0.00020259,0
51.794,0.00017977,0
51.795,0.00015627,0
51.795,0.00012119,0
51.796,7.2679e-05,0
51.796,2.7024e-05,0
51.797,1.1749e-06,0
51.797,-1.1246e-05,0
51.798,-3.2227e-05,0
51.798,-6.8315e-05,0
51.799,-9.2821e-05,0
51.8,-8.0232e-05,0
51.8,-3.5416e-05,0
51.801,3.0213e-05,0
51.801,0.00010289,0
51.802,0.00016399,0
51.802,0.00020662,0
51.803,0.00022123,0
51.803,0.00019504,0
51.804,0.00013109,0
51.804,5.8244e-05,0
51.805,6.3783e-06,0
51.805,-2.3835e-05,0
51.806,-4.1794e-05,0
51.806,-4.8844e-05,0
51.807,-5.3376e-05,0
51.807,-6.9993e-05,0
51.808,-9.1478e-05,0
51.808,-0.00010994,0
51.809,-0.00012454,0
51.809,-0.00011766,0
51.81,-7.8218e-05,0
51.81,-2.031e-05,0
51.811,1.1582e-05,0
51.811,-5.0355e-06,0
51.812,-2.5681e-05,0
51.812,-1.1749e-06,0
51.813,5.5222e-05,0
51.814,9.4163e-05,0
51.814,0.00011179,0
51.815,0.00010994,0
51.815,6.5629e-05,0
51.816,-1.326e-05,0
51.816,-0.00010004,0
51.817,-0.00016013,0
51.817,-0.00016231,0
51.818,-0.00010541,0
51.818,-1.2253e-05,0
51.819,8.6778e-05,0
51.819,0.0001697,0
51.82,0.00021569,0
51.82,0.00021971,0
51.821,0.00018782,0
51.821,0.00013596,0
51.822,8.6778e-05,0
51.822,5.2201e-05,0
51.823,2.7024e-05,0
51.823,7.8889e-06,0
51.824,8.5603e-06,0
51.824,2.6184e-05,0
51.825,3.4073e-05,0
51.825,2.3667e-05,0
51.826,8.896e-06,0
51.827,-5.7069e-06,0
51.827,-2.5513e-05,0
51.828,-4.4984e-05,0
51.828,-5.4887e-05,0
51.829,-5.9419e-05,0
51.829,-7.6875e-05,0
51.83,-0.00013478,0
51.83,-0.00023499,0
51.831,-0.00031925,0
51.831,-0.00032563,0
51.832,-0.00025832,0
51.832,-0.00015425,0
51.833,-2.9709e-05,0
51.833,0.00011296,0
51.834,0.0002506,0
51.834,0.00034762,0
51.835,0.00037179,0
51.835,0.00030297,0
51.836,0.00018581,0
51.836,0.00011061,0
51.837,8.4596e-05,0
51.837,4.3809e-05,0
51.838,-2.0645e-05,0
51.838,-6.6972e-05,0
51.839,-8.1071e-05,0
51.839,-8.5603e-05,0
51.84,-8.9799e-05,0
51.841,-7.8553e-05,0
51.841,-4.2466e-05,0
51.842,1.9638e-05,0
51.842,9.2988e-05,0
51.843,0.00013814,0
51.843,0.00014972,0
51.844,0.00016365,0
51.844,0.00018178,0
51.845,0.00016332,0
51.845,0.00010457,0
51.846,4.2802e-05,0
51.846,5.2033e-06,0
51.847,-1.0071e-05,0
51.847,-3.0381e-05,0
51.848,-6.1265e-05,0
51.848,-7.7882e-05,0
51.849,-7.1168e-05,0
51.849,-5.0187e-05,0
51.85,-2.1149e-05,0
51.85,5.2033e-06,0
51.851,2.4002e-05,0
51.851,3.2563e-05,0
51.852,3.0716e-05,0
51.852,2.3331e-05,0
51.853,1.3931e-05,0
51.853,3.8605e-06,0
51.854,-5.0355e-06,0
51.855,-1.2757e-05,0
51.855,-1.796e-05,0
51.856,-2.3331e-05,0
51.856,-3.1052e-05,0
51.857,-4.0452e-05,0
51.857,-3.8941e-05,0
51.858,-1.3596e-05,0
51.858,3.0716e-05,0
51.859,7.7043e-05,0
51.859,0.00010256,0
51.86,8.8457e-05,0
51.86,1.8631e-05,0
51.861,-9.131e-05,0
51.861,-0.00017758,0
51.862,-0.00019001,0
51.862,-0.00013176,0
51.863,-3.357e-05,0
51.863,7.9057e-05,0
51.864,0.00018581,0
51.864,0.00026168,0
51.865,0.00028283,0
51.865,0.00022358,0
51.866,0.00010423,0
51.866,-1.2253e-05,0
51.867,-7.805e-05,0
51.868,-9.3828e-05,0
51.868,-8.8792e-05,0
51.869,-8.2078e-05,0
51.869,-7.2007e-05,0
51.87,-7.2679e-05,0
51.87,-9.4835e-05,0
51.871,-0.00013982,0
51.871,-0.00016902,0
51.872,-0.00013545,0
51.872,-4.1794e-05,0
51.873,5.7237e-05,0
51.873,0.0001237,0
51.874,0.00020931,0
51.874,0.0003305,0
51.875,0.00042684,0
51.875,0.0004443,0
51.876,0.0003785,0
51.876,0.00028887,0
51.877,0.00023851,0
51.877,0.00022374,0
51.878,0.00019286,0
51.878,0.00013227,0
51.879,7.3854e-05,0
51.879,3.4745e-05,0
51.88,9.3996e-06,0
51.88,-4.6998e-06,0
51.881,-7.5532e-06,0
51.882,-1.1917e-05,0
51.882,-2.501e-05,0
51.883,-4.3809e-05,0
51.883,-5.6901e-05,0
51.884,-6.3951e-05,0
51.884,-7.5364e-05,0
51.885,-9.2317e-05,0
51.885,-0.00010037,0
51.886,-9.5338e-05,0
51.886,-8.2246e-05,0
51.887,-6.2272e-05,0
51.887,-3.743e-05,0
51.888,-1.2253e-05,0
51.888,-1.2421e-05,0
51.889,-6.2104e-05,0
51.889,-0.00013243,0
51.89,-0.00017188,0
51.89,-0.00017507,0
51.891,-0.00015761,0
51.891,-0.00011968,0
51.892,-6.0594e-05,0
51.892,8.2246e-06,0
51.893,6.9993e-05,0
51.893,0.00011783,0
51.894,0.00012824,0
51.895,9.3156e-05,0
51.895,4.1459e-05,0
51.896,3.8605e-06,0
51.896,-1.6785e-06,0
51.897,1.8296e-05,0
51.897,3.592e-05,0
51.898,3.6759e-05,0
51.898,2.9877e-05,0
51.899,1.9638e-05,0
51.899,9.9031e-06,0
51.9,3.5248e-06,0
51.9,-2.8534e-06,0
51.901,-2.0981e-05,0
51.901,-5.8579e-05,0
51.902,-0.00011095,0
51.902,-0.00015929,0
51.903,-0.00019068,0
51.903,-0.00019974,0
51.904,-0.00017842,0
51.904,-0.00012203,0
51.905,-4.8173e-05,0
51.905,1.7792e-05,0
51.906,8.1239e-05,0
51.906,0.00013613,0
51.907,0.00016432,0
51.907,0.00015258,0
51.908,0.00010423,0
51.909,5.4383e-05,0
51.909,2.9038e-05,0
51.91,1.796e-05,0
51.91,1.1917e-05,0
51.911,1.1246e-05,0
51.911,1.7121e-05,0
51.912,2.0142e-05,0
51.912,2.4002e-05,0
51.913,3.4409e-05,0
51.913,3.5416e-05,0
51.914,1.3931e-05,0
51.914,-1.3428e-06,0
51.915,3.0381e-05,0
51.915,8.9799e-05,0
51.916,0.00013092,0
51.916,0.00015023,0
51.917,0.00017305,0
51.917,0.00019269,0
51.918,0.00018346,0
51.918,0.00013545,0
51.919,7.5532e-05,0
51.919,3.5584e-05,0
51.92,3.0381e-05,0
51.92,5.3208e-05,0
51.921,8.6275e-05,0
51.922,0.00010138,0
51.922,8.7114e-05,0
51.923,6.0929e-05,0
51.923,4.2298e-05,0
51.924,3.6423e-05,0
51.924,3.6759e-05,0
51.925,3.1891e-05,0
51.925,1.5946e-05,0
51.926,-6.8818e-06,0
51.926,-2.9374e-05,0
51.927,-4.9516e-05,0
51.927,-7.8889e-05,0
51.928,-0.00012538,0
51.928,-0.00017775,0
51.929,-0.00021585,0
51.929,-0.00022911,0
51.93,-0.00022307,0
51.93,-0.00020293,0
51.931,-0.0001613,0
51.931,-9.0303e-05,0
51.932,9.5674e-06,0
51.932,0.0001227,0
51.933,0.00021384,0
51.933,0.00026503,0
51.934,0.00027544,0
51.934,0.00025093,0
51.935,0.00021115,0
51.936,0.00018514,0
51.936,0.00018581,0
51.937,0.00020713,0
51.937,0.00023381,0
51.938,0.00023935,0
51.938,0.00019152,0
51.939,0.0001133,0
51.939,6.8986e-05,0
51.94,7.2343e-05,0
51.94,6.4286e-05,0
51.941,1.8631e-05,0
51.941,-2.031e-05,0
51.942,-2.2828e-05,0
51.942,-1.561e-05,0
51.943,-2.1317e-05,0
51.943,-2.9038e-05,0
51.944,-2.5177e-05,0
51.944,-2.1149e-05,0
51.945,-3.3402e-05,0
51.945,-6.3951e-05,0
51.946,-9.2988e-05,0
51.946,-0.00011733,0
51.947,-0.00016466,0
51.947,-0.00023482,0
51.948,-0.00028182,0
51.949,-0.00026772,0
51.949,-0.00019873,0
51.95,-0.00010591,0
51.95,-2.3331e-05,0
51.951,5.388e-05,0
51.951,0.00014401,0
51.952,0.00023214,0
51.952,0.00027074,0
51.953,0.00021938,0
51.953,0.00012605,0
51.954,6.9657e-05,0
51.954,5.2201e-05,0
51.955,4.0955e-05,0
51.955,3.0213e-05,0
51.956,2.7192e-05,0
51.956,2.6688e-05,0
51.957,1.2253e-05,0
51.957,-1.7288e-05,0
51.958,-5.7069e-05,0
51.958,-9.4331e-05,0
51.959,-0.00012119,0
51.959,-0.00013478,0
51.96,-0.00012908,0
51.96,-9.6345e-05,0
51.961,-4.6159e-05,0
51.962,-9.7353e-06,0
51.962,5.2033e-06,0
51.963,1.2589e-05,0
51.963,1.9471e-05,0
51.964,1.1246e-05,0
51.964,-3.0381e-05,0
51.965,-9.2317e-05,0
51.965,-0.00012757,0
51.966,-0.00010742,0
51.966,-5.2369e-05,0
51.967,-5.0355e-06,0
51.967,1.7288e-05,0
51.968,4.6326e-05,0
51.968,0.00011179,0
51.969,0.00019252,0
51.969,0.00023297,0
51.97,0.00020259,0
51.97,0.0001368,0
51.971,9.7688e-05,0
51.971,8.5771e-05,0
51.972,6.8315e-05,0
51.972,4.8844e-05,0
51.973,4.1627e-05,0
51.973,3.8437e-05,0
51.974,3.3402e-05,0
51.974,2.9709e-05,0
51.975,2.7359e-05,0
51.976,2.4338e-05,0
51.976,2.1317e-05,0
51.977,2.9038e-05,0
51.977,4.4816e-05,0
51.978,6.0929e-05,0
51.978,5.8076e-05,0
51.979,3.1052e-05,0
51.979,-4.5319e-06,0
51.98,-3.8102e-05,0
51.98,-7.2007e-05,0
51.981,-0.00012303,0
51.981,-0.00017356,0
51.982,-0.00017893,0
51.982,-0.00014452,0
51.983,-0.00010323,0
51.983,-6.6636e-05,0
51.984,-1.4939e-05,0
51.984,5.6901e-05,0
51.985,0.00011833,0
51.985,0.0001462,0
51.986,0.00016869,0
51.986,0.00020931,0
51.987,0.00025261,0
51.987,0.00026134,0
51.988,0.00021636,0
51.989,0.00014284,0
51.989,8.0903e-05,0
51.99,3.4745e-05,0
51.99,-8.5603e-06,0
51.991,-3.6255e-05,0
51.991,-3.743e-05,0
51.992,-2.2492e-05,0
51.992,-6.8818e-06,0
51.993,-2.182e-06,0
51.993,2.3499e-06,0
51.994,1.9806e-05,0
51.994,3.2059e-05,0
51.995,2.0981e-05,0
51.995,0,0
51.996,-7.5532e-06,0
51.996,-3.6927e-06,0
51.997,2.0142e-06,0
51.997,9.9031e-06,0
51.998,1.8631e-05,0
51.998,2.7359e-05,0
51.999,3.4577e-05,0
51.999,3.508e-05,0
52,2.3667e-05,0
52,3.8605e-06,0
52.001,-1.7288e-05,0
52.001,-4.062e-05,0
52.002,-7.57e-05,0
52.003,-0.00012857,0
52.003,-0.00017691,0
52.004,-0.00019219,0
52.004,-0.0001749,0
52.005,-0.00014166,0
52.005,-9.6513e-05,0
52.006,-3.8102e-05,0
52.006,2.7527e-05,0
52.007,9.4499e-05,0
52.007,0.00015291,0
52.008,0.00018178,0
52.008,0.00016902,0
52.009,0.0001227,0
52.009,7.2343e-05,0
52.01,5.3544e-05,0
52.01,7.7714e-05,0
52.011,0.00012404,0
52.011,0.00016886,0
52.012,0.00020494,0
52.012,0.0002125,0
52.013,0.00017507,0
52.013,0.00012337,0
52.014,9.9199e-05,0
52.014,0.00010256,0
52.015,8.7449e-05,0
52.016,3.6088e-05,0
52.016,-2.0981e-05,0
52.017,-6.2776e-05,0
52.017,-7.3686e-05,0
52.018,-5.539e-05,0
52.018,-3.7766e-05,0
52.019,-3.4073e-05,0
52.019,-3.1724e-05,0
52.02,-8.896e-06,0
52.02,4.0284e-06,0
52.021,-3.1891e-05,0
52.021,-7.8721e-05,0
52.022,-8.4428e-05,0
52.022,-5.2537e-05,0
52.023,-1.2589e-05,0
52.023,2.1317e-05,0
52.024,4.448e-05,0
52.024,6.5965e-05,0
52.025,9.0806e-05,0
52.025,9.9199e-05,0
52.026,6.7308e-05,0
52.026,9.5674e-06,0
52.027,-3.1052e-05,0
52.027,-4.2466e-05,0
52.028,-4.7501e-05,0
52.028,-5.4383e-05,0
52.029,-5.9922e-05,0
52.03,-6.4958e-05,0
52.03,-5.8244e-05,0
52.031,-3.8437e-05,0
52.031,-1.3092e-05,0
52.032,2.0645e-05,0
52.032,5.6565e-05,0
52.033,7.9057e-05,0
52.033,8.5435e-05,0
52.034,7.3686e-05,0
52.034,4.8005e-05,0
52.035,2.7695e-05,0
52.035,1.7624e-05,0
52.036,8.5603e-06,0
52.036,-1.1749e-06,0
52.037,-9.2317e-06,0
52.037,-1.1246e-05,0
52.038,-2.5177e-06,0
52.038,2.182e-06,0
52.039,-1.8463e-06,0
52.039,4.5319e-06,0
52.04,2.0645e-05,0
52.04,2.4674e-05,0
52.041,1.326e-05,0
52.041,-3.1891e-06,0
52.042,-2.2995e-05,0
52.042,-3.9277e-05,0
52.043,-5.2537e-05,0
52.044,-4.6662e-05,0
52.044,-1.091e-05,0
52.045,3.6591e-05,0
52.045,8.1071e-05,0
52.046,0.0001039,0
52.046,0.00010877,0
52.047,0.000118,0
52.047,0.00012219,0
52.048,9.3156e-05,0
52.048,3.3906e-05,0
52.049,-2.6688e-05,0
52.049,-6.6133e-05,0
52.05,-9.2653e-05,0
52.05,-0.00011951,0
52.051,-0.00013999,0
52.051,-0.00013713,0
52.052,-0.00010961,0
52.052,-6.4622e-05,0
52.053,-1.9303e-05,0
52.053,-1.1917e-05,0
52.054,-3.5752e-05,0
52.054,-3.508e-05,0
52.055,2.6017e-05,0
52.055,0.0001086,0
52.056,0.00014888,0
52.057,0.00015358,0
52.057,0.00016231,0
52.058,0.00018816,0
52.058,0.00019319,0
52.059,0.00015627,0
52.059,0.00012387,0
52.06,0.00013613,0
52.06,0.00017641,0
52.061,0.00019756,0
52.061,0.00018614,0
52.062,0.00017356,0
52.062,0.00016835,0
52.063,0.00014418,0
52.063,9.8024e-05,0
52.064,5.4047e-05,0
52.064,2.5345e-05,0
52.065,6.5461e-06,0
52.065,-1.1582e-05,0
52.066,-2.9709e-05,0
52.066,-4.8676e-05,0
52.067,-7.4693e-05,0
52.067,-0.00010793,0
52.068,-0.00013747,0
52.068,-0.00015291,0
52.069,-0.00015056,0
52.069,-0.00013646,0
52.07,-0.00011414,0
52.071,-8.2582e-05,0
52.071,-4.918e-05,0
52.072,-5.1865e-05,0
52.072,-9.5338e-05,0
52.073,-0.00013092,0
52.073,-0.0001279,0
52.074,-9.7688e-05,0
52.074,-4.8173e-05,0
52.075,2.0645e-05,0
52.075,0.00010105,0
52.076,0.00016735,0
52.076,0.00020209,0
52.077,0.0002031,0
52.077,0.00017641,0
52.078,0.00014083,0
52.078,0.00010289,0
52.079,7.4525e-05,0
52.079,6.63e-05,0
52.08,7.4525e-05,0
52.08,8.7953e-05,0
52.081,0.00010054,0
52.081,0.0001039,0
52.082,0.00010558,0
52.082,9.8863e-05,0
52.083,7.1672e-05,0
52.084,3.357e-05,0
52.084,1.5106e-06,0
52.085,-1.6281e-05,0
52.085,-1.9806e-05,0
52.086,-2.501e-05,0
52.086,-5.4551e-05,0
52.087,-0.00010021,0
52.087,-0.00012035,0
52.088,-0.00010558,0
52.088,-8.1743e-05,0
52.089,-6.7308e-05,0
52.089,-6.7811e-05,0
52.09,-5.8747e-05,0
52.09,-2.9709e-05,0
52.091,-2.5345e-05,0
52.091,-5.7572e-05,0
52.092,-9.3156e-05,0
52.092,-0.00010843,0
52.093,-0.00010138,0
52.093,-7.5364e-05,0
52.094,-2.6688e-05,0
52.094,2.6352e-05,0
52.095,5.4551e-05,0
52.095,6.0594e-05,0
52.096,6.0594e-05,0
52.096,5.8915e-05,0
52.097,6.6972e-05,0
52.098,9.366e-05,0
52.098,0.00010658,0
52.099,9.7017e-05,0
52.099,7.6036e-05,0
52.1,4.5823e-05,0
52.1,2.4842e-05,0
52.101,1.7624e-05,0
52.101,4.3641e-06,0
52.102,-8.7282e-06,0
52.102,-1.6785e-07,0
52.103,2.4002e-05,0
52.103,4.6159e-05,0
52.104,6.2272e-05,0
52.104,7.8721e-05,0
52.105,8.8792e-05,0
52.105,8.0064e-05,0
52.106,5.7908e-05,0
52.106,4.8844e-05,0
52.107,5.5894e-05,0
52.107,5.069e-05,0
52.108,2.9877e-05,0
52.108,1.6449e-05,0
52.109,1.561e-05,0
52.109,1.5778e-05,0
52.11,3.357e-06,0
52.111,-1.6953e-05,0
52.111,-4.448e-05,0
52.112,-7.9393e-05,0
52.112,-9.3492e-05,0
52.113,-7.335e-05,0
52.113,-3.5416e-05,0
52.114,3.357e-07,0
52.114,1.8296e-05,0
52.115,2.8031e-05,0
52.115,5.9251e-05,0
52.116,0.00010826,0
52.116,0.00013512,0
52.117,0.00012941,0
52.117,0.00012068,0
52.118,0.00013948,0
52.118,0.00016533,0
52.119,0.00015023,0
52.119,0.0001039,0
52.12,5.0187e-05,0
52.12,-1.1917e-05,0
52.121,-7.805e-05,0
52.121,-0.00011901,0
52.122,-0.00012102,0
52.122,-0.00010776,0
52.123,-8.3085e-05,0
52.123,-3.5416e-05,0
52.124,2.6184e-05,0
52.125,6.7475e-05,0
52.125,6.63e-05,0
52.126,2.5681e-05,0
52.126,-2.3163e-05,0
52.127,-4.7333e-05,0
52.127,-4.683e-05,0
52.128,-3.2563e-05,0
52.128,-9.3996e-06,0
52.129,2.0981e-05,0
52.129,4.2466e-05,0
52.13,3.7095e-05,0
52.13,1.6785e-05,0
52.131,7.7211e-06,0
52.131,2.1653e-05,0
52.132,4.1459e-05,0
52.132,4.0116e-05,0
52.133,1.0239e-05,0
52.133,-5.7069e-05,0
52.134,-0.00015811,0
52.134,-0.0002464,0
52.135,-0.00026369,0
52.135,-0.0002125,0
52.136,-0.00012303,0
52.136,-6.2104e-06,0
52.137,0.00013713,0
52.138,0.00028753,0
52.138,0.00041073,0
52.139,0.00045974,0
52.139,0.00041946,0
52.14,0.00032747,0
52.14,0.00023516,0
52.141,0.00016164,0
52.141,9.601e-05,0
52.142,2.6688e-05,0
52.142,-3.7934e-05,0
52.143,-7.4693e-05,0
52.143,-8.9464e-05,0
52.144,-0.00011514,0
52.144,-0.0001415,0
52.145,-0.00012807,0
52.145,-6.5126e-05,0
52.146,1.6785e-05,0
52.146,8.1239e-05,0
52.147,0.00011531,0
52.147,0.00012337,0
52.148,0.00011061,0
52.148,7.7714e-05,0
52.149,3.743e-05,0
52.149,6.2104e-06,0
52.15,-7.5532e-06,0
52.151,-1.0575e-05,0
52.151,-9.3996e-06,0
52.152,2.8534e-06,0
52.152,1.6785e-05,0
52.153,1.0575e-05,0
52.153,-1.1917e-05,0
52.154,-3.7766e-05,0
52.154,-5.623e-05,0
52.155,-4.9851e-05,0
52.155,-1.6953e-05,0
52.156,1.2924e-05,0
52.156,2.1988e-05,0
52.157,2.8702e-05,0
52.157,3.9277e-05,0
52.158,2.887e-05,0
52.158,-6.2104e-06,0
52.159,-3.978e-05,0
52.159,-5.1865e-05,0
52.16,-2.8367e-05,0
52.16,2.6017e-05,0
52.161,6.4286e-05,0
52.161,6.5629e-05,0
52.162,4.8844e-05,0
52.162,1.8631e-05,0
52.163,-3.2731e-05,0
52.163,-8.6275e-05,0
52.164,-0.00011313,0
52.165,-0.00011464,0
52.165,-0.00010625,0
52.166,-0.00010574,0
52.166,-9.8192e-05,0
52.167,-4.3305e-05,0
52.167,4.4144e-05,0
52.168,0.00011699,0
52.168,0.000165,0
52.169,0.00019957,0
52.169,0.00021367,0
52.17,0.00018614,0
52.17,0.00010843,0
52.171,1.7624e-05,0
52.171,-3.7263e-05,0
52.172,-4.5319e-05,0
52.172,-2.9877e-05,0
52.173,-2.0142e-05,0
52.173,-1.7624e-05,0
52.174,-5.539e-06,0
52.174,1.9974e-05,0
52.175,3.5416e-05,0
52.175,3.8941e-05,0
52.176,4.213e-05,0
52.176,4.1459e-05,0
52.177,4.2969e-05,0
52.178,5.0858e-05,0
52.178,5.4215e-05,0
52.179,5.3376e-05,0
52.179,4.9348e-05,0
52.18,3.3066e-05,0
52.18,1.4939e-05,0
52.181,7.0497e-06,0
52.181,-1.2253e-05,0
52.182,-4.3137e-05,0
52.182,-5.3376e-05,0
52.183,-3.743e-05,0
52.183,-1.5946e-05,0
52.184,-2.3499e-06,0
52.184,-1.5106e-06,0
52.185,-3.0213e-06,0
52.185,1.4939e-05,0
52.186,3.8773e-05,0
52.186,4.2802e-05,0
52.187,2.9709e-05,0
52.187,2.5513e-05,0
52.188,2.2492e-05,0
52.188,-1.8631e-05,0
52.189,-8.9128e-05,0
52.189,-0.00013462,0
52.19,-0.0001279,0
52.19,-8.3253e-05,0
52.191,-2.1653e-05,0
52.192,4.1794e-05,0
52.192,9.8527e-05,0
52.193,0.00014687,0
52.193,0.00016986,0
52.194,0.00015358,0
52.194,0.00011061,0
52.195,6.9657e-05,0
52.195,4.3137e-05,0
52.196,2.7527e-05,0
52.196,3.1556e-05,0
52.197,5.8915e-05,0
52.197,9.1142e-05,0
52.198,0.00010692,0
52.198,9.1142e-05,0
52.199,4.3977e-05,0
52.199,-2.1653e-05,0
52.2,-9.5674e-05,0
52.2,-0.00015106,0
52.201,-0.00016651,0
52.201,-0.00018077,0
52.202,-0.00021317,0
52.202,-0.00020159,0
52.203,-0.00010893,0
52.203,1.3428e-05,0
52.204,0.00011464,0
52.205,0.00018547,0
52.205,0.00022794,0
52.206,0.00021736,0
52.206,0.0001566,0
52.207,0.00010491,0
52.207,7.5868e-05,0
52.208,4.1459e-05,0
52.208,1.1246e-05,0
52.209,1.5946e-05,0
52.209,4.8005e-05,0
52.21,4.3473e-05,0
52.21,-4.3809e-05,0
52.211,-0.00014871,0
52.211,-0.00018329,0
52.212,-0.00014536,0
52.212,-5.9586e-05,0
52.213,7.4357e-05,0
52.213,0.00024691,0
52.214,0.00040401,0
52.214,0.00046377,0
52.215,0.00038622,0
52.215,0.00024271,0
52.216,0.00011632,0
52.216,1.8967e-05,0
52.217,-4.2298e-05,0
52.217,-5.9922e-05,0
52.218,-3.4577e-05,0
52.219,4.1962e-06,0
52.219,3.0716e-05,0
52.22,-3.6927e-06,0
52.22,-9.5674e-05,0
52.221,-0.00014687,0
52.221,-0.00010407,0
52.222,-1.6449e-05,0
52.222,5.1194e-05,0
52.223,8.4932e-05,0
52.223,8.191e-05,0
52.224,3.1724e-05,0
52.224,-4.7166e-05,0
52.225,-9.366e-05,0
52.225,-8.04e-05,0
52.226,-4.6159e-05,0
52.226,-3.6423e-05,0
52.227,-2.8367e-05,0
52.227,3.2395e-05,0
52.228,0.00012136,0
52.228,0.00014083,0
52.229,8.7785e-05,0
52.229,5.1362e-05,0
52.23,5.9419e-05,0
52.23,5.9754e-05,0
52.231,2.9877e-05,0
52.231,7.8889e-06,0
52.232,-1.9638e-05,0
52.233,-0.00011766,0
52.233,-0.00025026,0
52.234,-0.00031287,0
52.234,-0.00028534,0
52.235,-0.00025715,0
52.235,-0.00028602,0
52.236,-0.00034661,0
52.236,-0.00039965,0
52.237,-0.00040267,0
52.237,-0.00034191,0
52.238,-0.00020008,0
52.238,2.8702e-05,0
52.239,0.00026755,0
52.239,0.00044228,0
52.24,0.00054601,0
52.24,0.00059738,0
52.241,0.00060073,0
52.241,0.00052016,0
52.242,0.00036407,0
52.242,0.00023885,0
52.243,0.00019773,0
52.243,0.00019857,0
52.244,0.00019689,0
52.244,0.00017238,0
52.245,0.00014485,0
52.246,0.00011733,0
52.246,6.9657e-05,0
52.247,2.0981e-05,0
52.247,1.6785e-06,0
52.248,-1.0239e-05,0
52.248,-4.2298e-05,0
52.249,-0.00012891,0
52.249,-0.00026117,0
52.25,-0.00035299,0
52.25,-0.00036759,0
52.251,-0.00037111,0
52.251,-0.00040401,0
52.252,-0.00040066,0
52.252,-0.00033201,0
52.253,-0.00028786,0
52.253,-0.00029877,0
52.254,-0.00027863,0
52.254,-0.0001613,0
52.255,2.3835e-05,0
52.255,0.00022878,0
52.256,0.00044396,0
52.256,0.0006014,0
52.257,0.00061886,0
52.257,0.00046847,0
52.258,0.00025026,0
52.258,8.3757e-05,0
52.259,-3.0884e-05,0
52.26,-0.00010994,0
52.26,-0.00010658,0
52.261,7.8889e-06,0
52.261,0.00018077,0
52.262,0.00034762,0
52.262,0.00042147,0
52.263,0.00038555,0
52.263,0.00028988,0
52.264,0.00017087,0
52.264,7.3518e-05,0
52.265,1.8967e-05,0
52.265,-3.5248e-06,0
52.266,-1.0071e-06,0
52.266,6.8818e-06,0
52.267,-1.6785e-06,0
52.267,-2.0813e-05,0
52.268,-3.508e-05,0
52.268,-4.8844e-05,0
52.269,-6.7308e-05,0
52.269,-8.1743e-05,0
52.27,-7.9561e-05,0
52.27,-7.2679e-05,0
52.271,-8.191e-05,0
52.271,-0.00010222,0
52.272,-0.00013629,0
52.273,-0.00019571,0
52.273,-0.00026017,0
52.274,-0.00030398,0
52.274,-0.00034124,0
52.275,-0.00036507,0
52.275,-0.00032445,0
52.276,-0.00020293,0
52.276,-5.388e-05,0
52.277,6.9657e-05,0
52.277,0.00013948,0
52.278,0.00010088,0
52.278,-5.7069e-06,0
52.279,-4.6494e-05,0
52.279,-1.9135e-05,0
52.28,-9.9031e-06,0
52.28,-5.4215e-05,0
52.281,-0.00015727,0
52.281,-0.00024775,0
52.282,-0.00022307,0
52.282,-3.122e-05,0
52.283,0.00023348,0
52.283,0.00044228,0
52.284,0.00058596,0
52.284,0.00069741,0
52.285,0.00074844,0
52.285,0.0006766,0
52.286,0.00048458,0
52.287,0.00027544,0
52.287,0.00014284,0
52.288,8.5771e-05,0
52.288,6.3615e-05,0
52.289,4.0787e-05,0
52.289,1.1246e-05,0
52.29,-2.7863e-05,0
52.29,-7.3518e-05,0
52.291,-0.00010877,0
52.291,-0.00012572,0
52.292,-0.00012454,0
52.292,-0.0001138,0
52.293,-0.00012807,0
52.293,-0.00019471,0
52.294,-0.00026235,0
52.294,-0.00028602,0
52.295,-0.00026487,0
52.295,-0.00021569,0
52.296,-0.00012908,0
52.296,1.4267e-05,0
52.297,0.00017574,0
52.297,0.00027947,0
52.298,0.0002892,0
52.298,0.00020511,0
52.299,9.5506e-05,0
52.3,3.508e-05,0
52.3,2.5177e-05,0
52.301,2.4338e-05,0
52.301,1.3092e-05,0
52.302,-1.1749e-06,0
52.302,-7.0497e-06,0
52.303,-6.8818e-06,0
52.303,-5.8747e-06,0
52.304,-3.8605e-06,0
52.304,-3.0213e-06,0
52.305,-1.0742e-05,0
52.305,-2.7863e-05,0
52.306,-4.6159e-05,0
52.306,-6.5126e-05,0
52.307,-0.00010356,0
52.307,-0.00017154,0
52.308,-0.00024842,0
52.308,-0.00030666,0
52.309,-0.00029357,0
52.309,-0.00020679,0
52.31,-9.7185e-05,0
52.31,1.8967e-05,0
52.311,0.00011666,0
52.311,0.000118,0
52.312,5.2033e-06,0
52.312,-0.00011296,0
52.313,-0.00014418,0
52.314,-5.7908e-05,0
52.314,8.9799e-05,0
52.315,0.00020192,0
52.315,0.00027813,0
52.316,0.00035467,0
52.316,0.00039126,0
52.317,0.00034627,0
52.317,0.00025278,0
52.318,0.0001556,0
52.318,8.275e-05,0
52.319,3.508e-05,0
52.319,-3.1891e-06,0
52.32,-2.7695e-05,0
52.32,-1.091e-05,0
52.321,3.7766e-05,0
52.321,7.7379e-05,0
52.322,7.6875e-05,0
52.322,4.5823e-05,0
52.323,1.1078e-05,0
52.323,-1.7792e-05,0
52.324,-2.9038e-05,0
52.324,-2.6184e-05,0
52.325,-4.2466e-05,0
52.325,-8.4764e-05,0
52.326,-0.00013562,0
52.327,-0.00018279,0
52.327,-0.00023835,0
52.328,-0.00029374,0
52.328,-0.00032395,0
52.329,-0.00029155,0
52.329,-0.00017121,0
52.33,-1.326e-05,0
52.33,0.00013277,0
52.331,0.00026134,0
52.331,0.00036759,0
52.332,0.00041341,0
52.332,0.00035332,0
52.333,0.00022593,0
52.333,0.00012505,0
52.334,8.1575e-05,0
52.334,6.5629e-05,0
52.335,7.1504e-05,0
52.335,0.00011464,0
52.336,0.0001509,0
52.336,0.0001514,0
52.337,0.00015392,0
52.337,0.00015358,0
52.338,9.3324e-05,0
52.338,-1.561e-05,0
52.339,-9.8695e-05,0
52.34,-0.00012136,0
52.34,-9.601e-05,0
52.341,-4.2969e-05,0
52.341,1.7288e-05,0
52.342,4.8005e-05,0
52.342,4.4648e-05,0
52.343,4.3977e-05,0
52.343,3.0884e-05,0
52.344,-1.326e-05,0
52.344,-6.5965e-05,0
52.345,-9.8192e-05,0
52.345,-9.7353e-05,0
52.346,-9.0135e-05,0
52.346,-0.00011431,0
52.347,-0.00015576,0
52.347,-0.00016768,0
52.348,-0.00016399,0
52.348,-0.00017826,0
52.349,-0.00020243,0
52.349,-0.00024137,0
52.35,-0.00030565,0
52.35,-0.00040569,0
52.351,-0.00051328,0
52.351,-0.00053896,0
52.352,-0.00040771,0
52.352,-8.1071e-05,0
52.353,0.00035097,0
52.354,0.00067375,0
52.354,0.00074307,0
52.355,0.00057555,0
52.355,0.00033385,0
52.356,0.00016634,0
52.356,8.4428e-05,0
52.357,2.9206e-05,0
52.357,1.7792e-05,0
52.358,9.7017e-05,0
52.358,0.00024053,0
52.359,0.0003597,0
52.359,0.00040771,0
52.36,0.00041341,0
52.36,0.00040334,0
52.361,0.00035366,0
52.361,0.00027813,0
52.362,0.00021535,0
52.362,0.00016684,0
52.363,0.00011179,0
52.363,4.7837e-05,0
52.364,-2.417e-05,0
52.364,-0.00010793,0
52.365,-0.00019084,0
52.365,-0.00025798,0
52.366,-0.00029055,0
52.367,-0.00026554,0
52.367,-0.00017943,0
52.368,-9.1646e-05,0
52.368,-3.2563e-05,0
52.369,2.266e-05,0
52.369,3.6927e-05,0
52.37,4.8676e-06,0
52.37,-1.5106e-05,0
52.371,6.8818e-06,0
52.371,5.2537e-05,0
52.372,0.00010121,0
52.372,0.00014015,0
52.373,0.00014855,0
52.373,0.00011632,0
52.374,6.5461e-05,0
52.374,2.9374e-05,0
52.375,1.4603e-05,0
52.375,-6.3783e-06,0
52.376,-3.4745e-05,0
52.376,-6.5461e-05,0
52.377,-0.00010726,0
52.377,-0.00015341,0
52.378,-0.00019185,0
52.378,-0.00024321,0
52.379,-0.00031455,0
52.379,-0.00034812,0
52.38,-0.00027813,0
52.381,-0.0001331,0
52.381,0,0
52.382,0.00010088,0
52.382,0.00017675,0
52.383,0.00021602,0
52.383,0.00020192,0
52.384,0.00013915,0
52.384,7.2007e-05,0
52.385,4.213e-05,0
52.385,3.1724e-05,0
52.386,-2.5177e-06,0
52.386,-6.2272e-05,0
52.387,-0.00011464,0
52.387,-0.00016936,0
52.388,-0.00021166,0
52.388,-0.00016265,0
52.389,-3.1724e-05,0
52.389,0.00010558,0
52.39,0.00021837,0
52.39,0.00030062,0
52.391,0.00030599,0
52.391,0.00023281,0
52.392,8.0735e-05,0
52.392,-0.00013143,0
52.393,-0.00027057,0
52.394,-0.0002501,0
52.394,-0.00013982,0
52.395,-3.4745e-05,0
52.395,6.6468e-05,0
52.396,0.00021166,0
52.396,0.00036641,0
52.397,0.0004453,0
52.397,0.00039445,0
52.398,0.00025093,0
52.398,0.00010994,0
52.399,3.5248e-05,0
52.399,1.2421e-05,0
52.4,9.2317e-06,0
52.4,1.5106e-05,0
52.401,3.4409e-05,0
52.401,6.4286e-05,0
52.402,0.00010356,0
52.402,0.00013529,0
52.403,0.00013478,0
52.403,9.0471e-05,0
52.404,2.3667e-05,0
52.404,-2.8031e-05,0
52.405,-4.8173e-05,0
52.405,-5.0858e-05,0
52.406,-6.1936e-05,0
52.406,-7.5364e-05,0
52.407,-6.7643e-05,0
52.408,-4.918e-05,0
52.408,-4.6494e-05,0
52.409,-6.9154e-05,0
52.409,-0.0001091,0
52.41,-0.00014485,0
52.41,-0.00016751,0
52.411,-0.00019168,0
52.411,-0.00023415,0
52.412,-0.00030498,0
52.412,-0.00035131,0
52.413,-0.0003164,0
52.413,-0.00022206,0
52.414,-0.00011028,0
52.414,3.9445e-05,0
52.415,0.00022441,0
52.415,0.00033956,0
52.416,0.0003362,0
52.416,0.00029189,0
52.417,0.00028434,0
52.417,0.00029961,0
52.418,0.00027745,0
52.418,0.00021518,0
52.419,0.00016516,0
52.419,0.00014485,0
52.42,0.0001279,0
52.42,0.00010306,0
52.421,7.0161e-05,0
52.422,2.2324e-05,0
52.422,-3.2059e-05,0
52.423,-7.0329e-05,0
52.423,-9.9199e-05,0
52.424,-0.00015425,0
52.424,-0.00024053,0
52.425,-0.00028283,0
52.425,-0.00022408,0
52.426,-0.00011984,0
52.426,-4.7501e-05,0
52.427,1.2421e-05,0
52.427,8.51e-05,0
52.428,0.00015341,0
52.428,0.00020427,0
52.429,0.00020058,0
52.429,0.00015056,0
52.43,0.00010239,0
52.43,4.7669e-05,0
52.431,-3.9445e-05,0
52.431,-0.00015039,0
52.432,-0.00027662,0
52.432,-0.00038152,0
52.433,-0.00035618,0
52.433,-0.00016852,0
52.434,7.1e-05,0
52.435,0.00024422,0
52.435,0.00033251,0
52.436,0.00035702,0
52.436,0.00032277,0
52.437,0.00019622,0
52.437,1.5946e-05,0
52.438,-7.4525e-05,0
52.438,-2.2492e-05,0
52.439,9.0135e-05,0
52.439,0.00017288,0
52.44,0.00019991,0
52.44,0.00019168,0
52.441,0.00016399,0
52.441,0.00011464,0
52.442,4.5151e-05,0
52.442,-1.561e-05,0
52.443,-3.0045e-05,0
52.443,1.0407e-05,0
52.444,6.4622e-05,0
52.444,7.335e-05,0
52.445,1.3931e-05,0
52.445,-9.2485e-05,0
52.446,-0.00020343,0
52.446,-0.00028988,0
52.447,-0.00037195,0
52.447,-0.00043842,0
52.448,-0.000473,0
52.449,-0.00051295,0
52.449,-0.00055608,0
52.45,-0.00054652,0
52.45,-0.00043607,0
52.451,-0.00019487,0
52.451,0.00017574,0
52.452,0.00055508,0
52.452,0.00083841,0
52.453,0.00097269,0
52.453,0.0009183,0
52.454,0.00072158,0
52.454,0.00048827,0
52.455,0.00031035,0
52.455,0.00021065,0
52.456,0.00015492,0
52.456,0.00011196,0
52.457,7.7714e-05,0
52.457,5.7237e-05,0
52.458,4.448e-05,0
52.458,3.2898e-05,0
52.459,2.3667e-05,0
52.459,1.4939e-05,0
52.46,-1.9638e-05,0
52.46,-9.0135e-05,0
52.461,-0.0001608,0
52.462,-0.00020226,0
52.462,-0.00020746,0
52.463,-0.00016164,0
52.463,-7.4693e-05,0
52.464,-4.0452e-05,0
52.464,-0.00014368,0
52.465,-0.00028484,0
52.465,-0.00031791,0
52.466,-0.00030985,0
52.466,-0.00037095,0
52.467,-0.00043137,0
52.467,-0.00037749,0
52.468,-0.00023532,0
52.468,-4.2634e-05,0
52.469,0.00017574,0
52.469,0.00038589,0
52.47,0.00057052,0
52.47,0.00067291,0
52.471,0.00061819,0
52.471,0.00045202,0
52.472,0.00029105,0
52.472,0.00015795,0
52.473,1.6281e-05,0
52.473,-0.00011548,0
52.474,-0.00018883,0
52.474,-0.00017842,0
52.475,-0.00010642,0
52.476,-2.652e-05,0
52.476,3.5416e-05,0
52.477,6.8986e-05,0
52.477,3.8102e-05,0
52.478,-4.6326e-05,0
52.478,-0.00011078,0
52.479,-0.00011128,0
52.479,-7.4189e-05,0
52.48,-3.2059e-05,0
52.48,1.6617e-05,0
52.481,6.4622e-05,0
52.481,9.3492e-05,0
52.482,8.6778e-05,0
52.482,4.2466e-05,0
52.483,-1.5778e-05,0
52.483,-5.4215e-05,0
52.484,-5.5894e-05,0
52.484,-2.1317e-05,0
52.485,3.0716e-05,0
52.485,7.5364e-05,0
52.486,9.3828e-05,0
52.486,8.6778e-05,0
52.487,8.1407e-05,0
52.487,7.57e-05,0
52.488,5.153e-05,0
52.489,2.2995e-05,0
52.489,1.1917e-05,0
52.49,1.7792e-05,0
52.49,2.4338e-05,0
52.491,1.4267e-05,0
52.491,-1.2924e-05,0
52.492,-4.0116e-05,0
52.492,-5.7572e-05,0
52.493,-6.7643e-05,0
52.493,-7.6371e-05,0
52.494,-7.5364e-05,0
52.494,-5.1865e-05,0
52.495,-2.9206e-05,0
52.495,-5.388e-05,0
52.496,-0.00011028,0
52.496,-0.0001274,0
52.497,-7.3182e-05,0
52.497,5.2033e-06,0
52.498,6.8482e-05,0
52.498,0.00012018,0
52.499,0.00016298,0
52.499,0.00018648,0
52.5,0.00015241,0
52.5,6.0929e-05,0
52.501,-3.3738e-05,0
52.502,-8.0735e-05,0
52.502,-7.7379e-05,0
52.503,-6.6133e-05,0
52.503,-9.6178e-05,0
52.504,-0.00017708,0
52.504,-0.00028383,0
52.505,-0.0003545,0
52.505,-0.00032445,0
52.506,-0.00022341,0
52.506,-9.9535e-05,0
52.507,7.4022e-05,0
52.507,0.00026386,0
52.508,0.00035903,0
52.508,0.00035215,0
52.509,0.0003033,0
52.509,0.00022609,0
52.51,0.00012605,0
52.51,4.2802e-05,0
52.511,-2.8031e-05,0
52.511,-0.00011363,0
52.512,-0.00018195,0
52.512,-0.00017305,0
52.513,-7.805e-05,0
52.513,5.3376e-05,0
52.514,0.00016936,0
52.514,0.00023667,0
52.515,0.00022005,0
52.516,0.00013109,0
52.516,4.683e-05,0
52.517,-8.2246e-06,0
52.517,-5.623e-05,0
52.518,-6.7811e-05,0
52.518,-4.7333e-05,0
52.519,1.3596e-05,0
52.519,0.00012169,0
52.52,0.00023751,0
52.52,0.00027745,0
52.521,0.00024154,0
52.521,0.00020864,0
52.522,0.00022945,0
52.522,0.00026957,0
52.523,0.00026369,0
52.523,0.00020024,0
52.524,0.00011296,0
52.524,4.7166e-05,0
52.525,1.9471e-05,0
52.525,1.1246e-05,0
52.526,8.896e-06,0
52.526,3.6927e-06,0
52.527,-1.6953e-05,0
52.527,-4.3305e-05,0
52.528,-5.0187e-05,0
52.529,-4.4816e-05,0
52.529,-4.3137e-05,0
52.53,-3.122e-05,0
52.53,-3.0213e-06,0
52.531,1.9135e-05,0
52.531,2.2995e-05,0
52.532,4.5319e-06,0
52.532,-2.8702e-05,0
52.533,-6.0761e-05,0
52.533,-8.8792e-05,0
52.534,-0.00010658,0
52.534,-0.00010793,0
52.535,-0.00010222,0
52.535,-0.00010457,0
52.536,-0.00012102,0
52.536,-0.00015946,0
52.537,-0.00024305,0
52.537,-0.00038202,0
52.538,-0.00052403,0
52.538,-0.00058277,0
52.539,-0.0005299,0
52.539,-0.00039998,0
52.54,-0.00019001,0
52.54,9.0974e-05,0
52.541,0.00036507,0
52.541,0.00057656,0
52.542,0.00068667,0
52.543,0.00066183,0
52.543,0.00055558,0
52.544,0.00044161,0
52.544,0.00032412,0
52.545,0.00021804,0
52.545,0.00014754,0
52.546,0.0001133,0
52.546,9.1646e-05,0
52.547,6.479e-05,0
52.547,3.4241e-05,0
52.548,4.5319e-06,0
52.548,-2.9709e-05,0
52.549,-6.9322e-05,0
52.549,-9.366e-05,0
52.55,-8.1575e-05,0
52.55,-4.1459e-05,0
52.551,1.2253e-05,0
52.551,6.009e-05,0
52.552,8.6442e-05,0
52.552,7.9561e-05,0
52.553,3.6088e-05,0
52.553,-8.2246e-06,0
52.554,-3.1891e-05,0
52.554,-5.8915e-05,0
52.555,-9.3492e-05,0
52.556,-0.00010558,0
52.556,-8.2246e-05,0
52.557,-4.4144e-05,0
52.557,3.1891e-06,0
52.558,3.4913e-05,0
52.558,5.8747e-06,0
52.559,-7.1839e-05,0
52.559,-0.00018682,0
52.56,-0.00039512,0
52.56,-0.00059184,0
52.561,-0.00059083,0
52.561,-0.00039814,0
52.562,-0.00015375,0
52.562,6.0258e-05,0
52.563,0.0002459,0
52.563,0.00038924,0
52.564,0.00043624,0
52.564,0.00037951,0
52.565,0.00026571,0
52.565,0.00016231,0
52.566,0.00012001,0
52.566,0.00013042,0
52.567,0.00011464,0
52.567,2.9038e-05,0
52.568,-5.9251e-05,0
52.568,-8.5267e-05,0
52.569,-3.5248e-05,0
52.57,5.7404e-05,0
52.57,0.0001509,0
52.571,0.00022257,0
52.571,0.00027041,0
52.572,0.00028383,0
52.572,0.00023146,0
52.573,0.00012605,0
52.573,2.7695e-05,0
52.574,-1.561e-05,0
52.574,-7.8889e-06,0
52.575,1.6281e-05,0
52.575,2.7192e-05,0
52.576,1.8967e-05,0
52.576,1.6785e-07,0
52.577,-2.0645e-05,0
52.577,-4.1123e-05,0
52.578,-6.0594e-05,0
52.578,-8.51e-05,0
52.579,-0.00011766,0
52.579,-0.00014536,0
52.58,-0.00016399,0
52.58,-0.00017809,0
52.581,-0.00018447,0
52.581,-0.00016802,0
52.582,-0.00012639,0
52.583,-6.8147e-05,0
52.583,6.714e-07,0
52.584,6.9657e-05,0
52.584,0.00012203,0
52.585,0.00014318,0
52.585,0.00012958,0
52.586,9.6513e-05,0
52.586,6.2608e-05,0
52.587,3.0716e-05,0
52.587,-7.7211e-06,0
52.588,-5.4383e-05,0
52.588,-0.00010994,0
52.589,-0.00016181,0
52.589,-0.00022156,0
52.59,-0.00030448,0
52.59,-0.00032496,0
52.591,-0.00023432,0
52.591,-8.9799e-05,0
52.592,7.4189e-05,0
52.592,0.00022945,0
52.593,0.00033553,0
52.593,0.00040468,0
52.594,0.00041341,0
52.594,0.00032647,0
52.595,0.00021602,0
52.595,0.00013747,0
52.596,6.4118e-05,0
52.597,-1.1749e-06,0
52.597,-1.7624e-05,0
52.598,6.2104e-06,0
52.598,4.5151e-05,0
52.599,9.1142e-05,0
52.599,0.00013814,0
52.6,0.00018564,0
52.6,0.00021267,0
52.601,0.00019554,0
52.601,0.00015694,0
52.602,0.00013411,0
52.602,0.0001227,0
52.603,9.2149e-05,0
52.603,4.0116e-05,0
52.604,-1.2253e-05,0
52.604,-4.5823e-05,0
52.605,-5.8579e-05,0
52.605,-5.3544e-05,0
52.606,-2.8199e-05,0
52.606,1.5274e-05,0
52.607,4.0116e-05,0
52.607,1.2924e-05,0
52.608,-3.3906e-05,0
52.608,-6.7475e-05,0
52.609,-7.2343e-05,0
52.609,-6.1601e-05,0
52.61,-5.3208e-05,0
52.611,-4.5319e-05,0
52.611,-2.7863e-05,0
52.612,-8.3925e-06,0
52.612,-2.5177e-05,0
52.613,-5.3208e-05,0
52.613,-3.7095e-05,0
52.614,-1.2589e-05,0
52.614,-1.2253e-05,0
52.615,-1.796e-05,0
52.615,-1.1246e-05,0
52.616,1.6281e-05,0
52.616,5.4383e-05,0
52.617,6.0761e-05,0
52.617,1.2589e-05,0
52.618,-3.3738e-05,0
52.618,-3.2395e-05,0
52.619,-1.4603e-05,0
52.619,-1.1917e-05,0
52.62,-1.8799e-05,0
52.62,-1.8296e-05,0
52.621,-9.9031e-06,0
52.621,-5.2033e-06,0
52.622,-1.8967e-05,0
52.622,-5.7069e-05,0
52.623,-0.00010625,0
52.624,-0.00013512,0
52.624,-0.00012723,0
52.625,-0.00010239,0
52.625,-6.8818e-05,0
52.626,-7.0497e-06,0
52.626,7.7714e-05,0
52.627,0.00016886,0
52.627,0.00025563,0
52.628,0.00030951,0
52.628,0.00031438,0
52.629,0.00029172,0
52.629,0.00026134,0
52.63,0.00021602,0
52.63,0.00014754,0
52.631,6.5797e-05,0
52.631,-9.0639e-06,0
52.632,-7.1e-05,0
52.632,-0.00011632,0
52.633,-0.00013831,0
52.633,-0.00015862,0
52.634,-0.0002464,0
52.634,-0.00044933,0
52.635,-0.00069137,0
52.635,-0.00079544,0
52.636,-0.00066065,0
52.636,-0.00037833,0
52.637,-8.4932e-05,0
52.638,0.00021938,0
52.638,0.00054635,0
52.639,0.00077697,0
52.639,0.0007518,0
52.64,0.00051009,0
52.64,0.00025765,0
52.641,0.00013495,0
52.641,0.00011632,0
52.642,0.00012454,0
52.642,0.00012337,0
52.643,0.00011179,0
52.643,9.7856e-05,0
52.644,6.9657e-05,0
52.644,3.4073e-05,0
52.645,1.0239e-05,0
52.645,5.0355e-06,0
52.646,1.7456e-05,0
52.646,3.592e-05,0
52.647,4.683e-05,0
52.647,4.2466e-05,0
52.648,2.5681e-05,0
52.648,1.7288e-05,0
52.649,2.0142e-05,0
52.649,8.5603e-06,0
52.65,-1.4099e-05,0
52.651,-2.0813e-05,0
52.651,-9.5674e-06,0
52.652,2.8534e-06,0
52.652,7.2175e-06,0
52.653,1.9974e-05,0
52.653,4.062e-05,0
52.654,4.6662e-05,0
52.654,2.7192e-05,0
52.655,1.4603e-05,0
52.655,3.1891e-05,0
52.656,5.7404e-05,0
52.656,7.3686e-05,0
52.657,7.7714e-05,0
52.657,6.3783e-05,0
52.658,2.6688e-05,0
52.658,-1.7624e-05,0
52.659,-6.479e-05,0
52.659,-0.00013462,0
52.66,-0.00022072,0
52.66,-0.00030515,0
52.661,-0.00035282,0
52.661,-0.00033754,0
52.662,-0.00029877,0
52.662,-0.00028132,0
52.663,-0.00026571,0
52.663,-0.00020024,0
52.664,-8.6442e-05,0
52.665,4.1794e-05,0
52.665,0.00016667,0
52.666,0.00026738,0
52.666,0.00033956,0
52.667,0.00039109,0
52.667,0.00041173,0
52.668,0.00039059,0
52.668,0.0003211,0
52.669,0.00023415,0
52.669,0.00018413,0
52.67,0.00016953,0
52.67,0.00015744,0
52.671,0.0001378,0
52.671,0.00011531,0
52.672,9.0806e-05,0
52.672,6.4286e-05,0
52.673,4.2802e-05,0
52.673,3.1052e-05,0
52.674,2.1317e-05,0
52.674,7.5532e-06,0
52.675,-6.0426e-06,0
52.675,-2.1653e-05,0
52.676,-5.9251e-05,0
52.676,-0.00011968,0
52.677,-0.00016416,0
52.678,-0.00017893,0
52.678,-0.00017775,0
52.679,-0.0001749,0
52.679,-0.00015308,0
52.68,-7.9728e-05,0
52.68,1.6281e-05,0
52.681,5.539e-05,0
52.681,4.9012e-05,0
52.682,5.5558e-05,0
52.682,7.6036e-05,0
52.683,0.00010323,0
52.683,0.0001086,0
52.684,6.0929e-05,0
52.684,1.1749e-06,0
52.685,-2.031e-05,0
52.685,-6.3783e-06,0
52.686,1.4099e-05,0
52.686,3.2059e-05,0
52.687,3.9445e-05,0
52.687,3.7934e-05,0
52.688,3.2059e-05,0
52.688,6.8818e-06,0
52.689,-2.1485e-05,0
52.689,-1.9638e-05,0
52.69,5.2033e-06,0
52.691,3.9109e-05,0
52.691,7.9393e-05,0
52.692,0.00010574,0
52.692,9.5171e-05,0
52.693,5.7404e-05,0
52.693,1.4939e-05,0
52.694,-1.561e-05,0
52.694,-2.8367e-05,0
52.695,-2.3667e-05,0
52.695,-2.182e-05,0
52.696,-3.7934e-05,0
52.696,-6.479e-05,0
52.697,-9.5506e-05,0
52.697,-0.00012505,0
52.698,-0.0001472,0
52.698,-0.00017842,0
52.699,-0.00023449,0
52.699,-0.00028786,0
52.7,-0.00033066,0
52.7,-0.00035836,0
52.701,-0.00030515,0
52.701,-0.00014855,0
52.702,1.4603e-05,0
52.702,0.00011162,0
52.703,0.00019185,0
52.703,0.00033469,0
52.704,0.00054971,0
52.705,0.00070346,0
52.705,0.00065982,0
52.706,0.00046712,0
52.706,0.00027964,0
52.707,0.00018329,0
52.707,0.00015962,0
52.708,0.00015023,0
52.708,0.00012773,0
52.709,8.9296e-05,0
52.709,4.9348e-05,0
52.71,9.2317e-06,0
52.71,-3.7766e-05,0
52.711,-7.3182e-05,0
52.711,-8.7785e-05,0
52.712,-9.5171e-05,0
52.712,-0.00011867,0
52.713,-0.00016953,0
52.713,-0.00023197,0
52.714,-0.00030347,0
52.714,-0.00038337,0
52.715,-0.00041442,0
52.715,-0.00035383,0
52.716,-0.000237,0
52.716,-9.8863e-05,0
52.717,5.4719e-05,0
52.718,0.00020259,0
52.718,0.00033822,0
52.719,0.00042013,0
52.719,0.0003973,0
52.72,0.00031304,0
52.72,0.00024422,0
52.721,0.00021199,0
52.721,0.00019101,0
52.722,0.00015862,0
52.722,0.00011582,0
52.723,6.7308e-05,0
52.723,1.4267e-05,0
52.724,-3.4073e-05,0
52.724,-6.2776e-05,0
52.725,-7.2007e-05,0
52.725,-6.949e-05,0
52.726,-6.949e-05,0
52.726,-7.57e-05,0
52.727,-8.0232e-05,0
52.727,-7.8386e-05,0
52.728,-7.4189e-05,0
52.728,-7.9393e-05,0
52.729,-9.4835e-05,0
52.729,-0.00010625,0
52.73,-0.00012018,0
52.73,-0.00013982,0
52.731,-0.00014452,0
52.732,-0.00012639,0
52.732,-9.7185e-05,0
52.733,-7.5364e-05,0
52.733,-5.9251e-05,0
52.734,-4.213e-05,0
52.734,-1.7624e-05,0
52.735,1.1917e-05,0
52.735,2.8702e-05,0
52.736,4.1627e-05,0
52.736,6.7643e-05,0
52.737,9.752e-05,0
52.737,0.00010323,0
52.738,9.2821e-05,0
52.738,8.4764e-05,0
52.739,7.9393e-05,0
52.739,6.6636e-05,0
52.74,4.8676e-05,0
52.74,4.8508e-05,0
52.741,8.4764e-05,0
52.741,0.000118,0
52.742,0.00011968,0
52.742,9.9199e-05,0
52.743,8.04e-05,0
52.743,6.6972e-05,0
52.744,4.5487e-05,0
52.745,3.6759e-05,0
52.745,4.2802e-05,0
52.746,9.3996e-06,0
52.746,-0.00011431,0
52.747,-0.00030011,0
52.747,-0.00038907,0
52.748,-0.00029357,0
52.748,-0.00011196,0
52.749,5.5558e-05,0
52.749,0.00018984,0
52.75,0.00027141,0
52.75,0.00026772,0
52.751,0.00010642,0
52.751,-0.00020226,0
52.752,-0.00048307,0
52.752,-0.00056851,0
52.753,-0.00041039,0
52.753,-8.7785e-05,0
52.754,0.00028182,0
52.754,0.00063699,0
52.755,0.0008844,0
52.755,0.00090924,0
52.756,0.00075717,0
52.756,0.00054568,0
52.757,0.0003315,0
52.757,0.00016701,0
52.758,8.6778e-05,0
52.759,6.479e-05,0
52.759,5.8747e-05,0
52.76,5.1194e-05,0
52.76,3.8605e-05,0
52.761,1.3931e-05,0
52.761,-4.0452e-05,0
52.762,-0.00012857,0
52.762,-0.00022609,0
52.763,-0.00032076,0
52.763,-0.00041442,0
52.764,-0.00045303,0
52.764,-0.00038404,0
52.765,-0.00022089,0
52.765,-3.1891e-05,0
52.766,0.0001284,0
52.766,0.0002313,0
52.767,0.0002751,0
52.767,0.00027091,0
52.768,0.00022676,0
52.768,0.00014821,0
52.769,6.009e-05,0
52.769,5.2033e-06,0
52.77,-5.8747e-06,0
52.77,9.2317e-06,0
52.771,2.6688e-05,0
52.772,2.4338e-05,0
52.772,-6.8818e-06,0
52.773,-4.683e-05,0
52.773,-6.9657e-05,0
52.774,-6.7643e-05,0
52.774,-5.5894e-05,0
52.775,-5.6901e-05,0
52.775,-7.8386e-05,0
52.776,-0.00010256,0
52.776,-0.00011749,0
52.777,-0.00012186,0
52.777,-0.00011682,0
52.778,-0.00012908,0
52.778,-0.00016197,0
52.779,-0.0001754,0
52.779,-0.0001378,0
52.78,-8.04e-05,0
52.78,-6.7811e-05,0
52.781,-7.4022e-05,0
52.781,-1.326e-05,0
52.782,0.00010105,0
52.782,0.00018228,0
52.783,0.00020125,0
52.783,0.00019957,0
52.784,0.00019823,0
52.784,0.00017171,0
52.785,0.00010356,0
52.786,4.0787e-05,0
52.786,2.2324e-05,0
52.787,4.062e-05,0
52.787,2.031e-05,0
52.788,-9.6849e-05,0
52.788,-0.00029122,0
52.789,-0.00045386,0
52.789,-0.00046461,0
52.79,-0.00031455,0
52.79,-8.6107e-05,0
52.791,0.00012807,0
52.791,0.00029995,0
52.792,0.00045235,0
52.792,0.00057522,0
52.793,0.00060342,0
52.793,0.00050791,0
52.794,0.00032143,0
52.794,0.00013361,0
52.795,1.7121e-05,0
52.795,-3.0381e-05,0
52.796,-4.3641e-05,0
52.796,-6.6636e-05,0
52.797,-0.0001133,0
52.797,-0.00013982,0
52.798,-0.00011162,0
52.798,-5.2369e-05,0
52.799,3.0213e-06,0
52.8,4.8173e-05,0
