1.8801,9.0135e-05,0
1.8807,6.4958e-05,0
1.8812,9.0135e-05,0
1.8817,0.00013831,0
1.8822,0.00016164,0
1.8827,0.00012136,0
1.8833,3.1891e-05,0
1.8838,-3.4241e-05,0
1.8843,-6.0929e-05,0
1.8848,-8.6778e-05,0
1.8853,-0.00013445,0
1.8858,-0.00018547,0
1.8864,-0.00012303,0
1.8869,8.8289e-05,0
1.8874,0.00029256,0
1.8879,0.00038236,0
1.8884,0.00039965,0
1.889,0.00039663,0
1.8895,0.00037179,0
1.89,0.00028383,0
1.8905,0.0001368,0
1.891,-4.1962e-06,0
1.8916,-9.7185e-05,0
1.8921,-0.0001519,0
1.8926,-0.00017154,0
1.8931,-0.0001556,0
1.8936,-0.00014301,0
1.8942,-0.00015962,0
1.8947,-0.00019773,0
1.8952,-0.00023684,0
1.8957,-0.00018648,0
1.8962,5.539e-06,0
1.8967,0.00019957,0
1.8973,0.00023432,0
1.8978,0.0001368,0
1.8983,3.3066e-05,0
1.8988,-2.7192e-05,0
1.8993,-9.4163e-05,0
1.8999,-0.0002266,0
1.9004,-0.00038404,0
1.9009,-0.00046545,0
1.9014,-0.00041341,0
1.9019,-0.00025866,0
1.9025,-9.2317e-05,0
1.903,3.6423e-05,0
1.9035,0.00011498,0
1.904,0.00013075,0
1.9045,0.00010306,0
1.9051,7.9896e-05,0
1.9056,8.0064e-05,0
1.9061,8.6946e-05,0
1.9066,8.8121e-05,0
1.9071,8.426e-05,0
1.9077,8.9128e-05,0
1.9082,0.00011263,0
1.9087,0.00014955,0
1.9092,0.00018547,0
1.9097,0.00018312,0
1.9103,0.00014066,0
1.9108,8.7114e-05,0
1.9113,2.9206e-05,0
1.9118,-5.774e-05,0
1.9123,-0.00013495,0
1.9128,-0.00011783,0
1.9134,-4.7166e-05,0
1.9139,1.1749e-06,0
1.9144,3.3738e-05,0
1.9149,3.6759e-05,0
1.9154,9.2317e-06,0
1.916,-1.2757e-05,0
1.9165,-3.4241e-05,0
1.917,-8.8121e-05,0
1.9175,-0.00016701,0
1.918,-0.00020679,0
1.9186,-0.00018396,0
1.9191,-0.0001284,0
1.9196,-6.5461e-05,0
1.9201,-3.4073e-05,0
1.9206,-3.7766e-05,0
1.9212,-4.7166e-05,0
1.9217,-5.5558e-05,0
1.9222,-8.896e-05,0
1.9227,-0.00012656,0
1.9232,-6.5629e-05,0
1.9238,0.00010625,0
1.9243,0.00027477,0
1.9248,0.0003456,0
1.9253,0.00030532,0
1.9258,0.00019655,0
1.9263,8.9464e-05,0
1.9269,3.0549e-05,0
1.9274,2.8367e-05,0
1.9279,5.388e-05,0
1.9284,7.6707e-05,0
1.9289,8.5771e-05,0
1.9295,9.0639e-05,0
1.93,0.00011716,0
1.9305,0.00014955,0
1.931,0.00014284,0
1.9315,9.4331e-05,0
1.9321,5.2537e-05,0
1.9326,5.8244e-05,0
1.9331,0.00010054,0
1.9336,0.0001331,0
1.9341,0.00012454,0
1.9347,7.0832e-05,0
1.9352,1.6785e-07,0
1.9357,-2.1149e-05,0
1.9362,3.0381e-05,0
1.9367,8.1575e-05,0
1.9372,6.2776e-05,0
1.9378,5.2033e-06,0
1.9383,-2.6017e-05,0
1.9388,-2.1317e-05,0
1.9393,-1.2253e-05,0
1.9398,-1.5778e-05,0
1.9404,-1.9303e-05,0
1.9409,-1.4603e-05,0
1.9414,4.3641e-06,0
1.9419,5.8579e-05,0
1.9424,0.00012337,0
1.943,0.00015291,0
1.9435,0.0001509,0
1.944,0.00016197,0
1.9445,0.00018698,0
1.945,0.00016768,0
1.9456,9.7185e-05,0
1.9461,3.0381e-05,0
1.9466,-3.0549e-05,0
1.9471,-0.00012454,0
1.9476,-0.00025043,0
1.9482,-0.00034812,0
1.9487,-0.00030582,0
1.9492,-0.00010625,0
1.9497,9.8527e-05,0
1.9502,0.00016751,0
1.9507,0.00011145,0
1.9513,1.2589e-05,0
1.9518,-5.388e-05,0
1.9523,-4.9012e-05,0
1.9528,-1.2757e-05,0
1.9533,7.2175e-06,0
1.9539,-2.182e-06,0
1.9544,-2.9877e-05,0
1.9549,-6.5629e-05,0
1.9554,-0.00010155,0
1.9559,-0.00012236,0
1.9565,-8.2918e-05,0
1.957,1.4267e-05,0
1.9575,0.00010088,0
1.958,0.00013109,0
1.9585,0.00014217,0
1.9591,0.00018917,0
1.9596,0.00024741,0
1.9601,0.00024691,0
1.9606,0.00017238,0
1.9611,7.6875e-05,0
1.9617,4.8676e-06,0
1.9622,-5.1865e-05,0
1.9627,-0.00010961,0
1.9632,-0.00014972,0
1.9637,-0.00017574,0
1.9643,-0.0001697,0
1.9648,-7.7714e-05,0
1.9653,6.9322e-05,0
1.9658,0.00017842,0
1.9663,0.00020729,0
1.9668,0.00014553,0
1.9674,3.0045e-05,0
1.9679,-6.0594e-05,0
1.9684,-9.3828e-05,0
1.9689,-9.2988e-05,0
1.9694,-0.00010675,0
1.97,-0.00013512,0
1.9705,-0.00014401,0
1.971,-0.00012387,0
1.9715,-7.6707e-05,0
1.972,-7.5532e-06,0
1.9726,7.0329e-05,0
1.9731,0.00014955,0
1.9736,0.00021938,0
1.9741,0.0002553,0
1.9746,0.0002318,0
1.9752,0.00016768,0
1.9757,9.5842e-05,0
1.9762,7.0497e-06,0
1.9767,-0.00012857,0
1.9772,-0.00030784,0
1.9777,-0.00042919,0
1.9783,-0.00038689,0
1.9788,-0.0002224,0
1.9793,-4.6494e-05,0
1.9798,6.1433e-05,0
1.9803,0.00010574,0
1.9809,0.00013596,0
1.9814,0.00013931,0
1.9819,0.00010071,0
1.9824,5.0523e-05,0
1.9829,1.9974e-05,0
1.9835,4.8676e-06,0
1.984,-1.3092e-05,0
1.9845,-3.4241e-05,0
1.985,-5.2537e-05,0
1.9855,-5.388e-05,0
1.9861,-9.2317e-06,0
1.9866,7.0329e-05,0
1.9871,0.00014905,0
1.9876,0.00021132,0
1.9881,0.00024741,0
1.9887,0.00023919,0
1.9892,0.00019319,0
1.9897,0.00013143,0
1.9902,6.5461e-05,0
1.9907,-7.7211e-06,0
1.9912,-9.2149e-05,0
1.9918,-0.0001566,0
1.9923,-0.00021183,0
1.9928,-0.00029055,0
1.9933,-0.00028064,0
1.9938,-8.3757e-05,0
1.9944,0.00020192,0
1.9949,0.00037279,0
1.9954,0.00035332,0
1.9959,0.00023616,0
1.9964,0.00012404,0
1.997,3.8102e-05,0
1.9975,-3.8437e-05,0
1.998,-9.3492e-05,0
1.9985,-9.6849e-05,0
1.999,-5.1194e-05,0
1.9996,7.0497e-06,0
2.0001,4.062e-05,0
2.0006,4.5823e-05,0
2.0011,2.7695e-05,0
2.0016,-5.8747e-06,0
2.0022,2.8534e-06,0
2.0027,7.4861e-05,0
2.0032,0.00016886,0
2.0037,0.00025731,0
2.0042,0.00031472,0
2.0048,0.00032747,0
2.0053,0.00030515,0
2.0058,0.00026705,0
2.0063,0.00022475,0
2.0068,0.00018413,0
2.0073,0.00015358,0
2.0079,0.00012773,0
2.0084,9.1981e-05,0
2.0089,5.0858e-05,0
2.0094,1.6281e-05,0
2.0099,-1.8967e-05,0
2.0105,-6.7643e-05,0
2.011,-0.00013596,0
2.0115,-0.00020914,0
2.012,-0.00025614,0
2.0125,-0.00026873,0
2.0131,-0.00028199,0
2.0136,-0.00031186,0
2.0141,-0.00030146,0
2.0146,-0.00019991,0
2.0151,-5.7237e-05,0
2.0157,3.743e-05,0
2.0162,6.3615e-05,0
2.0167,7.2343e-05,0
2.0172,0.00011061,0
2.0177,0.00017977,0
2.0183,0.00024086,0
2.0188,0.00026688,0
2.0193,0.00027175,0
2.0198,0.00027108,0
2.0203,0.00026705,0
2.0208,0.00025228,0
2.0214,0.00021166,0
2.0219,0.00014754,0
2.0224,6.5629e-05,0
2.0229,-2.9038e-05,0
2.0234,-0.00011028,0
2.024,-0.00017372,0
2.0245,-0.00023801,0
2.025,-0.00030414,0
2.0255,-0.00039176,0
2.026,-0.00047182,0
2.0266,-0.00045504,0
2.0271,-0.00034292,0
2.0276,-0.0002135,0
2.0281,-9.6849e-05,0
2.0286,-7.5532e-06,0
2.0292,2.6017e-05,0
2.0297,2.031e-05,0
2.0302,2.5177e-05,0
2.0307,4.3473e-05,0
2.0312,5.6733e-05,0
2.0318,6.9657e-05,0
2.0323,9.1814e-05,0
2.0328,0.000118,0
2.0333,0.00013478,0
2.0338,0.00012874,0
2.0343,9.2988e-05,0
2.0349,4.8173e-05,0
2.0354,1.9974e-05,0
2.0359,4.1962e-06,0
2.0364,-2.501e-05,0
2.0369,-5.6733e-05,0
2.0375,-4.8005e-05,0
2.038,1.1078e-05,0
2.0385,9.1142e-05,0
2.039,0.00014351,0
2.0395,0.00013881,0
2.0401,9.6513e-05,0
2.0406,7.7379e-05,0
2.0411,9.5674e-05,0
2.0416,0.00010826,0
2.0421,0.00010457,0
2.0427,7.6371e-05,0
2.0432,1.5106e-06,0
2.0437,-7.9561e-05,0
2.0442,-0.0001086,0
2.0447,-8.4092e-05,0
2.0452,-6.9993e-05,0
2.0458,-7.0329e-05,0
2.0463,-3.4409e-05,0
2.0468,2.1988e-05,0
2.0473,5.0187e-05,0
2.0478,2.4002e-05,0
2.0484,-3.4409e-05,0
2.0489,-6.7475e-05,0
2.0494,-7.1168e-05,0
2.0499,-7.9057e-05,0
2.0504,-4.5151e-05,0
2.051,7.9728e-05,0
2.0515,0.00021837,0
2.052,0.000284,0
2.0525,0.00026973,0
2.053,0.00022408,0
2.0536,0.0001744,0
2.0541,0.0001326,0
2.0546,0.00012303,0
2.0551,0.00014351,0
2.0556,0.00016852,0
2.0562,0.00020024,0
2.0567,0.00023214,0
2.0572,0.00024288,0
2.0577,0.00022777,0
2.0582,0.00018749,0
2.0587,0.00013512,0
2.0593,9.1142e-05,0
2.0598,6.1265e-05,0
2.0603,4.2802e-05,0
2.0608,1.4939e-05,0
2.0613,-3.2395e-05,0
2.0619,-0.00010138,0
2.0624,-0.00020427,0
2.0629,-0.00030414,0
2.0634,-0.00033318,0
2.0639,-0.00026772,0
2.0645,-0.00015224,0
2.065,-4.448e-05,0
2.0655,2.8702e-05,0
2.066,5.4719e-05,0
2.0665,4.8844e-05,0
2.0671,3.4073e-05,0
2.0676,2.182e-06,0
2.0681,-5.9922e-05,0
2.0686,-0.00013059,0
2.0691,-0.00016634,0
2.0697,-0.00014888,0
2.0702,-0.00010759,0
2.0707,-6.5965e-05,0
2.0712,-1.4435e-05,0
2.0717,3.4577e-05,0
2.0722,5.5558e-05,0
2.0728,4.1123e-05,0
2.0733,2.5177e-06,0
2.0738,-2.4506e-05,0
2.0743,-1.0575e-05,0
2.0748,2.3499e-05,0
2.0754,4.5319e-05,0
2.0759,5.2201e-05,0
2.0764,6.3279e-05,0
2.0769,0.00010323,0
2.0774,0.00015828,0
2.078,0.00017171,0
2.0785,0.00011984,0
2.079,3.0045e-05,0
2.0795,-5.7908e-05,0
2.08,-0.00012303,0
2.0806,-0.00017842,0
2.0811,-0.00023734,0
2.0816,-0.00022358,0
2.0821,-6.4958e-05,0
2.0826,0.00013948,0
2.0832,0.00026252,0
2.0837,0.00029323,0
2.0842,0.00029256,0
2.0847,0.00027729,0
2.0852,0.00022609,0
2.0857,0.00015694,0
2.0863,9.987e-05,0
2.0868,5.2033e-05,0
2.0873,-6.8818e-06,0
2.0878,-7.6875e-05,0
2.0883,-0.00014821,0
2.0889,-0.00020696,0
2.0894,-0.00023314,0
2.0899,-0.00023482,0
2.0904,-0.00022374,0
2.0909,-0.00018849,0
2.0915,-0.00011901,0
2.092,-2.7695e-05,0
2.0925,6.2608e-05,0
2.093,0.00013478,0
2.0935,0.00017607,0
2.0941,0.00015727,0
2.0946,7.4357e-05,0
2.0951,-1.9974e-05,0
2.0956,-0.00011112,0
2.0961,-0.00019974,0
2.0967,-0.00018732,0
2.0972,-7.2175e-06,0
2.0977,0.00023516,0
2.0982,0.00038505,0
2.0987,0.00039495,0
2.0993,0.00032445,0
2.0998,0.00024456,0
2.1003,0.00017758,0
2.1008,0.00012673,0
2.1013,9.752e-05,0
2.1018,6.6468e-05,0
2.1024,3.1388e-05,0
2.1029,1.7121e-05,0
2.1034,1.6953e-05,0
2.1039,-3.5248e-06,0
2.1044,-4.0787e-05,0
2.105,-4.5823e-05,0
2.1055,1.6785e-07,0
2.106,6.2104e-05,0
2.1065,0.00010591,0
2.107,0.00013814,0
2.1076,0.00018866,0
2.1081,0.00022542,0
2.1086,0.00019303,0
2.1091,9.4499e-05,0
2.1096,-2.417e-05,0
2.1102,-9.8527e-05,0
2.1107,-9.2149e-05,0
2.1112,-2.7192e-05,0
2.1117,3.3402e-05,0
2.1122,2.6352e-05,0
2.1128,-5.6733e-05,0
2.1133,-0.00015627,0
2.1138,-0.00021703,0
2.1143,-0.00022962,0
2.1148,-0.00021804,0
2.1153,-0.00020897,0
2.1159,-0.00020092,0
2.1164,-0.00018195,0
2.1169,-0.00016617,0
2.1174,-0.00015576,0
2.1179,-0.00011229,0
2.1185,-6.2104e-06,0
2.119,0.00011783,0
2.1195,0.00019991,0
2.12,0.00024623,0
2.1205,0.00026755,0
2.1211,0.0002558,0
2.1216,0.00020931,0
2.1221,0.00015593,0
2.1226,0.00011531,0
2.1231,7.9057e-05,0
2.1237,3.3738e-05,0
2.1242,-1.9638e-05,0
2.1247,-7.2007e-05,0
2.1252,-0.00011112,0
2.1257,-0.00013092,0
2.1263,-0.0001368,0
2.1268,-0.00012572,0
2.1273,-0.00010574,0
2.1278,-8.8121e-05,0
2.1283,-5.8244e-05,0
2.1288,-3.592e-05,0
2.1294,-3.3402e-05,0
2.1299,-2.1653e-05,0
2.1304,-1.0071e-06,0
2.1309,-2.8702e-05,0
2.1314,-0.00013982,0
2.132,-0.0002548,0
2.1325,-0.00020394,0
2.133,2.0981e-05,0
2.1335,0.00023197,0
2.134,0.0003221,0
2.1346,0.00030666,0
2.1351,0.00024657,0
2.1356,0.00019538,0
2.1361,0.00015795,0
2.1366,0.00012572,0
2.1372,0.00010826,0
2.1377,0.00010642,0
2.1382,0.00011095,0
2.1387,0.00011934,0
2.1392,0.0001279,0
2.1397,0.00013378,0
2.1403,0.00013059,0
2.1408,0.00010692,0
2.1413,6.5461e-05,0
2.1418,3.1556e-05,0
2.1423,8.5603e-06,0
2.1429,-1.0575e-05,0
2.1434,-3.0045e-05,0
2.1439,-5.9922e-05,0
2.1444,-0.00010591,0
2.1449,-0.00016248,0
2.1455,-0.00022525,0
2.146,-0.0002976,0
2.1465,-0.00032966,0
2.147,-0.00025194,0
2.1475,-9.601e-05,0
2.1481,5.8915e-05,0
2.1486,0.00022139,0
2.1491,0.00038387,0
2.1496,0.00046444,0
2.1501,0.0004396,0
2.1507,0.00037044,0
2.1512,0.0002882,0
2.1517,0.00018497,0
2.1522,0.00010776,0
2.1527,8.7449e-05,0
2.1532,5.5222e-05,0
2.1538,-5.0355e-07,0
2.1543,-7.3854e-06,0
2.1548,2.887e-05,0
2.1553,4.0116e-05,0
2.1558,2.0813e-05,0
2.1564,1.3092e-05,0
2.1569,2.0981e-05,0
2.1574,1.796e-05,0
2.1579,-2.0478e-05,0
2.1584,-0.000118,0
2.159,-0.00022005,0
2.1595,-0.0002454,0
2.16,-0.00020897,0
2.1605,-0.00018715,0
2.161,-0.00020394,0
2.1616,-0.00022895,0
2.1621,-0.00023281,0
2.1626,-0.00020545,0
2.1631,-0.0001561,0
2.1636,-9.7353e-05,0
2.1642,-4.9516e-05,0
2.1647,-1.796e-05,0
2.1652,1.2085e-05,0
2.1657,3.6759e-05,0
2.1662,3.827e-05,0
2.1667,3.0884e-05,0
2.1673,5.388e-05,0
2.1678,0.00011162,0
2.1683,0.00015291,0
2.1688,0.00015123,0
2.1693,0.00012522,0
2.1699,8.7114e-05,0
2.1704,4.4144e-05,0
2.1709,-2.031e-05,0
2.1714,-0.0001326,0
2.1719,-0.00024607,0
2.1725,-0.00026252,0
2.173,-0.00018144,0
2.1735,-8.2414e-05,0
2.174,6.0426e-06,0
2.1745,0.00010793,0
2.1751,0.00019739,0
2.1756,0.00021501,0
2.1761,0.00018514,0
2.1766,0.0001472,0
2.1771,9.3828e-05,0
2.1777,2.7359e-05,0
2.1782,1.1749e-06,0
2.1787,3.2731e-05,0
2.1792,6.6468e-05,0
2.1797,7.1672e-05,0
2.1803,7.6371e-05,0
2.1808,9.2485e-05,0
2.1813,7.335e-05,0
2.1818,9.9031e-06,0
2.1823,-5.1865e-05,0
2.1828,-9.0135e-05,0
2.1834,-0.00013176,0
2.1839,-0.00020394,0
2.1844,-0.00025127,0
2.1849,-0.00018463,0
2.1854,-1.5106e-06,0
2.186,0.00020293,0
2.1865,0.00032345,0
2.187,0.00036759,0
2.1875,0.00038488,0
2.188,0.000379,0
2.1886,0.00034829,0
2.1891,0.00030465,0
2.1896,0.00026033,0
2.1901,0.00020914,0
2.1906,0.00015123,0
2.1912,0.00010356,0
2.1917,6.6972e-05,0
2.1922,1.6281e-05,0
2.1927,-6.1936e-05,0
2.1932,-0.00014015,0
2.1938,-0.00014888,0
2.1943,-4.2969e-05,0
2.1948,0.00011296,0
2.1953,0.0002177,0
2.1958,0.00024019,0
2.1963,0.00019521,0
2.1969,0.00013294,0
2.1974,8.3757e-05,0
2.1979,2.8367e-05,0
2.1984,-5.3544e-05,0
2.1989,-0.0001702,0
2.1995,-0.00028719,0
2.2,-0.00034745,0
2.2005,-0.00034325,0
2.201,-0.00030683,0
2.2015,-0.00027108,0
2.2021,-0.00025866,0
2.2026,-0.00026453,0
2.2031,-0.00026336,0
2.2036,-0.00024674,0
2.2041,-0.000213,0
2.2047,-0.00016684,0
2.2052,-0.00010155,0
2.2057,-1.6785e-07,0
2.2062,0.00013394,0
2.2067,0.00027208,0
2.2073,0.00036289,0
2.2078,0.00037514,0
2.2083,0.00035114,0
2.2088,0.00034292,0
2.2093,0.00034661,0
2.2098,0.00033285,0
2.2104,0.00029189,0
2.2109,0.00023247,0
2.2114,0.00016768,0
2.2119,0.00011095,0
2.2124,5.7908e-05,0
2.213,-2.5345e-05,0
2.2135,-0.00014183,0
2.214,-0.00023214,0
2.2145,-0.0002652,0
2.215,-0.00024674,0
2.2156,-0.00017842,0
2.2161,-9.0135e-05,0
2.2166,-3.2395e-05,0
2.2171,-1.9135e-05,0
2.2176,-9.0639e-06,0
2.2182,2.7359e-05,0
2.2187,7.6875e-05,0
2.2192,0.00010524,0
2.2197,9.7185e-05,0
2.2202,6.4286e-05,0
2.2207,3.0045e-05,0
2.2213,1.8631e-05,0
2.2218,3.6423e-05,0
2.2223,7.3014e-05,0
2.2228,9.8527e-05,0
2.2233,9.6513e-05,0
2.2239,7.6707e-05,0
2.2244,5.7237e-05,0
2.2249,5.1865e-05,0
2.2254,5.9922e-05,0
2.2259,6.1601e-05,0
2.2265,3.6591e-05,0
2.227,-7.5532e-06,0
2.2275,-5.2033e-05,0
2.228,-9.8192e-05,0
2.2285,-0.0001415,0
2.2291,-0.00015962,0
2.2296,-0.00015929,0
2.2301,-0.00016886,0
2.2306,-0.00019756,0
2.2311,-0.00022307,0
2.2317,-0.00022609,0
2.2322,-0.00020327,0
2.2327,-0.00016567,0
2.2332,-0.00015459,0
2.2337,-0.00018094,0
2.2342,-0.00017507,0
2.2348,-9.3828e-05,0
2.2353,3.4409e-05,0
2.2358,0.0001613,0
2.2363,0.00023146,0
2.2368,0.00022676,0
2.2374,0.00017574,0
2.2379,0.00013243,0
2.2384,0.00012874,0
2.2389,0.00014821,0
2.2394,0.00016046,0
2.24,0.00015358,0
2.2405,0.00013713,0
2.241,0.00012102,0
2.2415,0.00010793,0
2.242,0.00010457,0
2.2426,0.00010625,0
2.2431,9.3156e-05,0
2.2436,5.9754e-05,0
2.2441,4.9516e-05,0
2.2446,0.00011901,0
2.2452,0.00024489,0
2.2457,0.00034359,0
2.2462,0.00035836,0
2.2467,0.00030263,0
2.2472,0.0002224,0
2.2477,0.0001425,0
2.2483,7.5868e-05,0
2.2488,2.9038e-05,0
2.2493,-2.1317e-05,0
2.2498,-9.1478e-05,0
2.2503,-0.00015241,0
2.2509,-0.00019152,0
2.2514,-0.00023616,0
2.2519,-0.00027259,0
2.2524,-0.00026722,0
2.2529,-0.00025127,0
2.2535,-0.0002313,0
2.254,-0.00014636,0
2.2545,-1.3931e-05,0
2.255,5.623e-05,0
2.2555,2.3667e-05,0
2.2561,-8.0903e-05,0
2.2566,-0.00020813,0
2.2571,-0.0002652,0
2.2576,-0.0001321,0
2.2581,0.0001279,0
2.2587,0.00030599,0
2.2592,0.00032747,0
2.2597,0.00027611,0
2.2602,0.00022509,0
2.2607,0.00018111,0
2.2612,0.00013613,0
2.2618,9.4835e-05,0
2.2623,6.244e-05,0
2.2628,2.9038e-05,0
2.2633,-1.5106e-06,0
2.2638,-1.3764e-05,0
2.2644,-7.5532e-06,0
2.2649,6.5461e-06,0
2.2654,1.561e-05,0
2.2659,8.896e-06,0
2.2664,6.2104e-06,0
2.267,3.4577e-05,0
2.2675,8.51e-05,0
2.268,0.00012136,0
2.2685,0.00012337,0
2.269,9.4667e-05,0
2.2696,4.7501e-05,0
2.2701,-3.8773e-05,0
2.2706,-0.00019991,0
2.2711,-0.00035399,0
2.2716,-0.00033754,0
2.2722,-0.00011968,0
2.2727,0.00012471,0
2.2732,0.00024691,0
2.2737,0.00024825,0
2.2742,0.00020645,0
2.2748,0.00019152,0
2.2753,0.00020562,0
2.2758,0.00020394,0
2.2763,0.00016936,0
2.2768,0.00013193,0
2.2773,8.8289e-05,0
2.2779,6.2104e-06,0
2.2784,-8.1743e-05,0
2.2789,-0.00012085,0
2.2794,-0.00010256,0
2.2799,-6.479e-05,0
2.2805,-2.887e-05,0
2.281,-2.5177e-06,0
2.2815,9.9031e-06,0
2.282,8.5603e-06,0
2.2825,5.7069e-06,0
2.2831,2.2492e-05,0
2.2836,5.1865e-05,0
2.2841,6.2608e-05,0
2.2846,1.9974e-05,0
2.2851,-6.1601e-05,0
2.2857,-0.00011044,0
2.2862,-0.00010759,0
2.2867,-7.9561e-05,0
2.2872,-5.5222e-05,0
2.2877,-7.1e-05,0
2.2883,-0.00013629,0
2.2888,-0.00018195,0
2.2893,-0.00014519,0
2.2898,-5.774e-05,0
2.2903,-2.5177e-06,0
2.2908,-8.2246e-06,0
2.2914,-1.4099e-05,0
2.2919,4.0452e-05,0
2.2924,0.0001091,0
2.2929,9.7185e-05,0
2.2934,3.8773e-05,0
2.294,4.8005e-05,0
2.2945,0.00012488,0
2.295,0.00018279,0
2.2955,0.00018782,0
2.296,0.00016718,0
2.2966,0.00015023,0
2.2971,0.00013864,0
2.2976,0.00012253,0
2.2981,9.9031e-05,0
2.2986,7.4693e-05,0
2.2992,4.3809e-05,0
2.2997,-1.091e-05,0
2.3002,-7.8218e-05,0
2.3007,-0.00012454,0
2.3012,-0.00014401,0
2.3018,-0.0001519,0
2.3023,-0.0001425,0
2.3028,-0.00011531,0
2.3033,-9.4835e-05,0
2.3038,-8.6442e-05,0
2.3043,-6.9993e-05,0
2.3049,-4.0452e-05,0
2.3054,-1.2589e-05,0
2.3059,1.5106e-05,0
2.3064,4.8341e-05,0
2.3069,6.3279e-05,0
2.3075,5.4719e-05,0
2.308,5.9251e-05,0
2.3085,0.00010491,0
2.309,0.00015543,0
2.3095,0.0001603,0
2.3101,0.00012236,0
2.3106,5.7404e-05,0
2.3111,-2.031e-05,0
2.3116,-6.6636e-05,0
2.3121,-5.8747e-05,0
2.3127,-3.1891e-05,0
2.3132,-2.3331e-05,0
2.3137,-2.8031e-05,0
2.3142,-6.5461e-06,0
2.3147,5.4383e-05,0
2.3152,0.00010491,0
2.3158,8.6442e-05,0
2.3163,2.8031e-05,0
2.3168,-3.1891e-06,0
2.3173,1.0575e-05,0
2.3178,4.0452e-05,0
2.3184,5.0523e-05,0
2.3189,4.4312e-05,0
2.3194,3.6591e-05,0
2.3199,1.7288e-05,0
2.3204,-3.2059e-05,0
2.321,-0.00010726,0
2.3215,-0.00015727,0
2.322,-0.00014485,0
2.3225,-0.00010037,0
2.323,-6.2608e-05,0
2.3236,-1.9974e-05,0
2.3241,4.9851e-05,0
2.3246,0.00015358,0
2.3251,0.00024019,0
2.3256,0.00026101,0
2.3262,0.00023868,0
2.3267,0.00021736,0
2.3272,0.00020092,0
2.3277,0.00016466,0
2.3282,0.00011447,0
2.3287,7.3182e-05,0
2.3293,6.9322e-05,0
2.3298,9.7856e-05,0
2.3303,9.9535e-05,0
2.3308,6.1769e-05,0
2.3313,2.7695e-05,0
2.3319,1.1414e-05,0
2.3324,-1.5106e-06,0
2.3329,-9.3996e-06,0
2.3334,6.3783e-06,0
2.3339,2.3163e-05,0
2.3345,1.9638e-05,0
2.335,9.5674e-06,0
2.3355,-9.7353e-06,0
2.336,-5.4383e-05,0
2.3365,-0.00012639,0
2.3371,-0.0001895,0
2.3376,-0.00016802,0
2.3381,-2.5177e-05,0
2.3386,0.00014015,0
2.3391,0.00020293,0
2.3397,0.00015828,0
2.3402,8.5603e-05,0
2.3407,3.1388e-05,0
2.3412,-1.8967e-05,0
2.3417,-8.426e-05,0
2.3422,-0.0001373,0
2.3428,-0.00011397,0
2.3433,-2.0981e-05,0
2.3438,6.1433e-05,0
2.3443,9.4835e-05,0
2.3448,0.0001185,0
2.3454,0.00012605,0
2.3459,8.5435e-05,0
2.3464,5.623e-05,0
2.3469,9.0806e-05,0
2.3474,0.00012068,0
2.348,9.6513e-05,0
2.3485,4.5991e-05,0
2.349,-2.266e-05,0
2.3495,-7.6707e-05,0
2.35,-4.6998e-05,0
2.3506,3.0549e-05,0
2.3511,5.4719e-05,0
2.3516,1.796e-05,0
2.3521,-5.539e-06,0
2.3526,1.091e-05,0
2.3532,2.1653e-05,0
2.3537,-9.5674e-06,0
2.3542,-7.9896e-05,0
2.3547,-0.00017288,0
2.3552,-0.00025228,0
2.3558,-0.0002454,0
2.3563,-0.00013999,0
2.3568,-2.4506e-05,0
2.3573,3.1891e-05,0
2.3578,4.213e-05,0
2.3583,4.683e-05,0
2.3589,5.2201e-05,0
2.3594,4.3473e-05,0
2.3599,2.6352e-05,0
2.3604,1.1917e-05,0
2.3609,1.5106e-06,0
2.3615,-7.3854e-06,0
2.362,-1.2589e-05,0
2.3625,-1.4435e-05,0
2.363,-3.1388e-05,0
2.3635,-6.4622e-05,0
2.3641,-8.7449e-05,0
2.3646,-8.1407e-05,0
2.3651,-2.7863e-05,0
2.3656,5.7069e-05,0
2.3661,0.00011246,0
2.3667,0.00011598,0
2.3672,7.805e-05,0
2.3677,8.5603e-06,0
2.3682,-6.7308e-05,0
2.3687,-0.00012421,0
2.3693,-0.00015106,0
2.3698,-0.00013327,0
2.3703,-4.7501e-05,0
2.3708,8.4092e-05,0
2.3713,0.0002083,0
2.3718,0.00028719,0
2.3724,0.00029793,0
2.3729,0.00024422,0
2.3734,0.00014485,0
2.3739,-1.8296e-05,0
2.3744,-0.00024137,0
2.375,-0.00043742,0
2.3755,-0.00052352,0
2.376,-0.00043104,0
2.3765,-0.00016634,0
2.377,0.00017893,0
2.3776,0.00044329,0
2.3781,0.00052805,0
2.3786,0.00047619,0
2.3791,0.00039596,0
2.3796,0.00033083,0
2.3802,0.00026705,0
2.3807,0.00020226,0
2.3812,0.00014351,0
2.3817,9.5171e-05,0
2.3822,3.9445e-05,0
2.3828,-3.6423e-05,0
2.3833,-8.6946e-05,0
2.3838,-4.6159e-05,0
2.3843,6.9825e-05,0
2.3848,0.00016483,0
2.3853,0.00019638,0
2.3859,0.00018564,0
2.3864,0.00015157,0
2.3869,8.6442e-05,0
2.3874,1.1917e-05,0
2.3879,-3.6423e-05,0
2.3885,-4.3977e-05,0
2.389,-2.7192e-05,0
2.3895,-2.9877e-05,0
2.39,-6.63e-05,0
2.3905,-9.6178e-05,0
2.3911,-0.00010658,0
2.3916,-0.00012723,0
2.3921,-0.00015341,0
2.3926,-0.0001415,0
2.3931,-9.6849e-05,0
2.3937,-9.0303e-05,0
2.3942,-0.00014318,0
2.3947,-0.00019655,0
2.3952,-0.00018128,0
2.3957,-0.00011464,0
2.3963,-9.5506e-05,0
2.3968,-0.00014032,0
2.3973,-0.00015476,0
2.3978,-8.3925e-05,0
2.3983,6.8818e-06,0
2.3988,6.7308e-05,0
2.3994,0.00011968,0
2.3999,0.00018178,0
2.4004,0.00023684,0
2.4009,0.00025866,0
2.4014,0.00024724,0
2.402,0.00020998,0
2.4025,0.00015207,0
2.403,8.9128e-05,0
2.4035,5.1698e-05,0
2.404,8.1071e-05,0
2.4046,0.00017104,0
2.4051,0.00023851,0
2.4056,0.00022441,0
2.4061,0.00014469,0
2.4066,5.8747e-05,0
2.4072,1.561e-05,0
2.4077,-9.5674e-06,0
2.4082,-5.8244e-05,0
2.4087,-0.00012169,0
2.4092,-0.00016399,0
2.4097,-0.00018396,0
2.4103,-0.00017137,0
2.4108,-0.00011431,0
2.4113,-4.2802e-05,0
2.4118,1.2924e-05,0
2.4123,3.6255e-05,0
2.4129,1.6785e-05,0
2.4134,-2.0142e-05,0
2.4139,-2.9709e-05,0
2.4144,-1.6785e-07,0
2.4149,4.4144e-05,0
2.4155,7.6371e-05,0
2.416,8.9799e-05,0
2.4165,9.2149e-05,0
2.417,9.1814e-05,0
2.4175,9.5003e-05,0
2.4181,0.00010491,0
2.4186,0.00012404,0
2.4191,0.00014687,0
2.4196,0.00016936,0
2.4201,0.00018077,0
2.4207,0.00015795,0
2.4212,9.9535e-05,0
2.4217,4.0116e-05,0
2.4222,-3.5248e-06,0
2.4227,-5.3208e-05,0
2.4232,-0.00011246,0
2.4238,-0.00015828,0
2.4243,-0.00017104,0
2.4248,-0.00013545,0
2.4253,-9.1142e-05,0
2.4258,-8.2582e-05,0
2.4264,-9.4667e-05,0
2.4269,-0.00010591,0
2.4274,-0.00010776,0
2.4279,-9.8527e-05,0
2.4284,-6.1936e-05,0
2.429,1.7792e-05,0
2.4295,0.00011078,0
2.43,0.00017708,0
2.4305,0.00020864,0
2.431,0.00021132,0
2.4316,0.00019387,0
2.4321,0.00016181,0
2.4326,0.00011716,0
2.4331,6.4286e-05,0
2.4336,1.1917e-05,0
2.4342,-4.0284e-05,0
2.4347,-0.0001086,0
2.4352,-0.00016114,0
2.4357,-0.00014704,0
2.4362,-9.6345e-05,0
2.4367,-5.9419e-05,0
2.4373,-5.0019e-05,0
2.4378,-6.6636e-05,0
2.4383,-0.00010188,0
2.4388,-0.00013159,0
2.4393,-0.00012085,0
2.4399,-5.9922e-05,0
2.4404,-1.8463e-06,0
2.4409,7.2175e-06,0
2.4414,-3.8605e-06,0
2.4419,-5.8747e-06,0
2.4425,-5.0355e-07,0
2.443,1.0239e-05,0
2.4435,2.0645e-05,0
2.444,2.1317e-05,0
2.4445,2.1988e-05,0
2.4451,5.623e-05,0
2.4456,0.00010961,0
2.4461,0.0001472,0
2.4466,0.00016147,0
2.4471,0.00014922,0
2.4477,0.00011968,0
2.4482,9.7856e-05,0
2.4487,8.7953e-05,0
2.4492,5.3544e-05,0
2.4497,-1.6617e-05,0
2.4503,-7.2175e-05,0
2.4508,-9.2988e-05,0
2.4513,-8.1575e-05,0
2.4518,-4.3641e-05,0
2.4523,-6.8818e-06,0
2.4528,7.2175e-06,0
2.4534,7.3854e-06,0
2.4539,8.3925e-07,0
2.4544,-2.0142e-05,0
2.4549,-3.9445e-05,0
2.4554,-4.1962e-05,0
2.456,-5.1865e-05,0
2.4565,-3.8437e-05,0
2.457,3.0045e-05,0
2.4575,0.0001039,0
2.458,0.00013545,0
2.4586,0.00013545,0
2.4591,0.0001321,0
2.4596,0.00013545,0
2.4601,0.0001321,0
2.4606,9.9535e-05,0
2.4612,4.3305e-05,0
2.4617,-7.3854e-06,0
2.4622,-4.7166e-05,0
2.4627,-7.2007e-05,0
2.4632,-6.0258e-05,0
2.4638,-1.5106e-05,0
2.4643,5.2033e-05,0
2.4648,0.00012001,0
2.4653,0.00014955,0
2.4658,0.0001326,0
2.4663,9.0806e-05,0
2.4669,5.2873e-05,0
2.4674,2.2828e-05,0
2.4679,4.5319e-06,0
2.4684,3.9445e-05,0
2.4689,0.00010726,0
2.4695,0.0001331,0
2.47,8.9464e-05,0
2.4705,1.6785e-07,0
2.471,-0.00011363,0
2.4715,-0.00021971,0
2.4721,-0.00022391,0
2.4726,-9.2653e-05,0
2.4731,6.5629e-05,0
2.4736,0.00015526,0
2.4741,0.00019487,0
2.4747,0.0002266,0
2.4752,0.00025631,0
2.4757,0.00025631,0
2.4762,0.00019924,0
2.4767,0.00010323,0
2.4773,1.6281e-05,0
2.4778,-2.0813e-05,0
2.4783,-5.7069e-06,0
2.4788,1.2589e-05,0
2.4793,-5.539e-06,0
2.4798,-4.8508e-05,0
2.4804,-8.4092e-05,0
2.4809,-7.7043e-05,0
2.4814,-3.5248e-06,0
2.4819,0.00010877,0
2.4824,0.00019084,0
2.483,0.00019924,0
2.4835,0.00016231,0
2.484,0.00013042,0
2.4845,0.00011347,0
2.485,0.00010608,0
2.4856,0.0001034,0
2.4861,9.3324e-05,0
2.4866,6.1601e-05,0
2.4871,6.3783e-06,0
2.4876,-5.5558e-05,0
2.4882,-0.00012136,0
2.4887,-0.00019538,0
2.4892,-0.00024506,0
2.4897,-0.00024674,0
2.4902,-0.00022492,0
2.4907,-0.00019487,0
2.4913,-0.00015325,0
2.4918,-0.00011095,0
2.4923,-9.0806e-05,0
2.4928,-7.1168e-05,0
2.4933,-3.7766e-05,0
2.4939,-4.2802e-05,0
2.4944,-0.00011565,0
2.4949,-0.0002036,0
2.4954,-0.00023516,0
2.4959,-0.00017288,0
2.4965,-2.8031e-05,0
2.497,0.00013176,0
2.4975,0.00023885,0
2.498,0.00027544,0
2.4985,0.00026436,0
2.4991,0.00022945,0
2.4996,0.00018296,0
2.5001,0.00013512,0
2.5006,8.5603e-05,0
2.5011,2.7695e-05,0
2.5017,-2.7024e-05,0
2.5022,-7.0329e-05,0
2.5027,-0.00010893,0
2.5032,-0.00014955,0
2.5037,-0.00019219,0
2.5042,-0.00023616,0
2.5048,-0.00023986,0
2.5053,-0.00015308,0
2.5058,-1.2253e-05,0
2.5063,0.00010591,0
2.5068,0.00015962,0
2.5074,0.00015694,0
2.5079,0.00012236,0
2.5084,7.7546e-05,0
2.5089,3.743e-05,0
2.5094,1.8631e-05,0
2.51,2.7695e-05,0
2.5105,3.7095e-05,0
2.511,4.0452e-05,0
2.5115,6.244e-05,0
2.512,0.00010323,0
2.5126,0.00013193,0
2.5131,0.0001284,0
2.5136,0.00011061,0
2.5141,0.00010961,0
2.5146,0.00013143,0
2.5152,0.00012303,0
2.5157,5.2873e-05,0
2.5162,-1.0575e-05,0
2.5167,-3.3402e-05,0
2.5172,-4.5151e-05,0
2.5177,-3.6423e-05,0
2.5183,1.8967e-05,0
2.5188,8.5603e-05,0
2.5193,0.00010457,0
2.5198,6.3615e-05,0
2.5203,8.3925e-07,0
2.5209,-5.2369e-05,0
2.5214,-8.7953e-05,0
2.5219,-8.4092e-05,0
2.5224,-4.918e-05,0
2.5229,-3.2059e-05,0
2.5235,-5.9251e-05,0
2.524,-0.0001086,0
2.5245,-0.00014821,0
2.525,-0.00016197,0
2.5255,-0.00011716,0
2.5261,1.6281e-05,0
2.5266,0.00016902,0
2.5271,0.00024825,0
2.5276,0.00024791,0
2.5281,0.00021032,0
2.5287,0.00017675,0
2.5292,0.00015459,0
2.5297,0.00011296,0
2.5302,6.009e-05,0
2.5307,6.6972e-05,0
2.5312,0.0001415,0
2.5318,0.00023079,0
2.5323,0.00027964,0
2.5328,0.00024892,0
2.5333,0.00014183,0
2.5338,5.539e-06,0
2.5344,-0.0001138,0
2.5349,-0.00020327,0
2.5354,-0.00024976,0
2.5359,-0.00024472,0
2.5364,-0.00018547,0
2.537,-4.6494e-05,0
2.5375,0.00013109,0
2.538,0.00022895,0
2.5385,0.0002271,0
2.539,0.00020394,0
2.5396,0.00017775,0
2.5401,0.00012404,0
2.5406,4.918e-05,0
2.5411,-2.0645e-05,0
2.5416,-6.7979e-05,0
2.5422,-8.6107e-05,0
2.5427,-8.2078e-05,0
2.5432,-6.8147e-05,0
2.5437,-5.2537e-05,0
2.5442,-3.4073e-05,0
2.5448,-1.2757e-05,0
2.5453,3.6927e-06,0
2.5458,1.6114e-05,0
2.5463,3.8605e-05,0
2.5468,7.4357e-05,0
2.5473,0.00010021,0
2.5479,9.6513e-05,0
2.5484,7.3854e-05,0
2.5489,4.9683e-05,0
2.5494,4.0284e-05,0
2.5499,4.8173e-05,0
2.5505,5.0858e-05,0
2.551,4.8173e-05,0
2.5515,4.7166e-05,0
2.552,4.0116e-05,0
2.5525,4.3809e-05,0
2.5531,6.2272e-05,0
2.5536,4.3473e-05,0
2.5541,-1.8296e-05,0
2.5546,-4.9851e-05,0
2.5551,-3.0381e-05,0
2.5557,-6.714e-07,0
2.5562,1.7456e-05,0
2.5567,8.896e-06,0
2.5572,-4.1794e-05,0
2.5577,-0.00010558,0
2.5583,-0.00015492,0
2.5588,-0.00020293,0
2.5593,-0.00025513,0
2.5598,-0.0002981,0
2.5603,-0.00031086,0
2.5608,-0.00025849,0
2.5614,-0.00014586,0
2.5619,-3.1724e-05,0
2.5624,2.7527e-05,0
2.5629,3.2563e-05,0
2.5634,2.5681e-05,0
2.564,3.3402e-05,0
2.5645,4.9516e-05,0
2.565,6.7979e-05,0
2.5655,8.6442e-05,0
2.566,9.4499e-05,0
2.5666,8.51e-05,0
2.5671,8.9464e-05,0
2.5676,0.00012488,0
2.5681,0.00016063,0
2.5686,0.00016835,0
2.5692,0.00015358,0
2.5697,0.00013445,0
2.5702,0.00011598,0
2.5707,9.7856e-05,0
2.5712,7.8721e-05,0
2.5718,5.8915e-05,0
2.5723,2.1653e-05,0
2.5728,-2.266e-05,0
2.5733,-2.4338e-05,0
2.5738,2.6688e-05,0
2.5743,8.04e-05,0
2.5749,9.752e-05,0
2.5754,7.8721e-05,0
2.5759,3.4577e-05,0
2.5764,-3.3402e-05,0
2.5769,-9.9702e-05,0
2.5775,-0.00013445,0
2.578,-0.00014217,0
2.5785,-0.00015996,0
2.579,-0.00019504,0
2.5795,-0.00020729,0
2.5801,-0.00018094,0
2.5806,-0.00014519,0
2.5811,-0.00010977,0
2.5816,-4.4816e-05,0
2.5821,5.5222e-05,0
2.5827,0.00013999,0
2.5832,0.0001472,0
2.5837,8.7785e-05,0
2.5842,2.031e-05,0
2.5847,-1.9974e-05,0
2.5852,-6.0594e-05,0
2.5858,-0.00010541,0
2.5863,-5.2873e-05,0
2.5868,0.00011397,0
2.5873,0.00027192,0
2.5878,0.0003404,0
2.5884,0.00033402,0
2.5889,0.0002892,0
2.5894,0.00023012,0
2.5899,0.0001744,0
2.5904,0.0001378,0
2.591,0.00011867,0
2.5915,0.00010843,0
2.592,0.00010105,0
2.5925,9.2149e-05,0
2.593,8.1743e-05,0
2.5936,7.2847e-05,0
2.5941,6.7643e-05,0
2.5946,6.1265e-05,0
2.5951,4.4816e-05,0
2.5956,1.8463e-05,0
2.5962,-1.6785e-07,0
2.5967,1.0071e-06,0
2.5972,1.0239e-05,0
2.5977,1.7288e-05,0
2.5982,2.9038e-05,0
2.5987,3.7934e-05,0
2.5993,4.062e-05,0
2.5998,3.6591e-05,0
2.6003,1.2421e-05,0
2.6008,-2.9877e-05,0
2.6013,-5.8747e-05,0
2.6019,-6.0929e-05,0
2.6024,-1.091e-05,0
2.6029,9.8527e-05,0
2.6034,0.00020058,0
2.6039,0.00022408,0
2.6045,0.0001895,0
2.605,0.00015224,0
2.6055,0.00010558,0
2.606,6.2943e-05,0
2.6065,5.4215e-05,0
2.6071,5.153e-05,0
2.6076,1.9303e-05,0
2.6081,-4.9851e-05,0
2.6086,-0.00016735,0
2.6091,-0.00030364,0
2.6097,-0.00036172,0
2.6102,-0.00029827,0
2.6107,-0.00018296,0
2.6112,-9.5338e-05,0
2.6117,-4.7333e-05,0
2.6122,-1.2589e-05,0
2.6128,1.6281e-05,0
2.6133,2.4674e-05,0
2.6138,2.417e-05,0
2.6143,3.6591e-05,0
2.6148,5.623e-05,0
2.6154,6.9657e-05,0
2.6159,7.9057e-05,0
2.6164,8.7114e-05,0
2.6169,8.8792e-05,0
2.6174,8.2078e-05,0
2.618,6.6804e-05,0
2.6185,4.7333e-05,0
2.619,3.3066e-05,0
2.6195,3.4577e-05,0
2.62,4.062e-05,0
2.6206,4.213e-05,0
2.6211,4.5487e-05,0
2.6216,4.7166e-05,0
2.6221,4.0452e-05,0
2.6226,4.1962e-05,0
2.6232,4.7166e-05,0
2.6237,1.796e-05,0
2.6242,-6.3951e-05,0
2.6247,-0.00017171,0
2.6252,-0.0002548,0
2.6258,-0.00027427,0
2.6263,-0.00023432,0
2.6268,-0.00016768,0
2.6273,-9.1142e-05,0
2.6278,-2.5345e-05,0
2.6283,-8.2246e-06,0
2.6289,-3.3066e-05,0
2.6294,-4.9012e-05,0
2.6299,-3.8102e-05,0
2.6304,-1.4099e-05,0
2.6309,1.5274e-05,0
2.6315,4.1794e-05,0
2.632,4.9851e-05,0
2.6325,5.4215e-05,0
2.633,9.1646e-05,0
2.6335,0.00014586,0
2.6341,0.00016735,0
2.6346,0.00015157,0
2.6351,0.00013915,0
2.6356,0.00015761,0
2.6361,0.00018346,0
2.6367,0.00019118,0
2.6372,0.00020024,0
2.6377,0.0002224,0
2.6382,0.00021199,0
2.6387,0.00013411,0
2.6393,1.5778e-05,0
2.6398,-9.1981e-05,0
2.6403,-0.00015325,0
2.6408,-0.00017742,0
2.6413,-0.00018833,0
2.6418,-0.00013848,0
2.6424,2.5177e-06,0
2.6429,0.00013848,0
2.6434,0.00014553,0
2.6439,5.5222e-05,0
2.6444,-1.9135e-05,0
2.645,-4.8676e-05,0
2.6455,-6.1265e-05,0
2.646,-5.7237e-05,0
2.6465,-4.3305e-05,0
2.647,-3.6088e-05,0
2.6476,-2.9709e-05,0
2.6481,-1.2589e-05,0
2.6486,9.5674e-06,0
2.6491,2.7192e-05,0
2.6496,4.2802e-05,0
2.6502,5.5894e-05,0
2.6507,6.4286e-05,0
2.6512,6.5629e-05,0
2.6517,5.8579e-05,0
2.6522,4.2466e-05,0
2.6528,1.7288e-05,0
2.6533,-3.6927e-06,0
2.6538,-1.2085e-05,0
2.6543,-1.1246e-05,0
2.6548,-1.3931e-05,0
2.6553,5.2033e-06,0
2.6559,6.2776e-05,0
2.6564,0.00011128,0
2.6569,0.00011246,0
2.6574,6.6133e-05,0
2.6579,5.0355e-07,0
2.6585,-3.1724e-05,0
2.659,-8.2246e-06,0
2.6595,1.9638e-05,0
2.66,4.0452e-05,0
2.6605,0.00010037,0
2.6611,0.00018077,0
2.6616,0.00021837,0
2.6621,0.00019521,0
2.6626,0.00014049,0
2.6631,8.5771e-05,0
2.6637,2.4674e-05,0
2.6642,-3.4073e-05,0
2.6647,-5.1194e-05,0
2.6652,-2.2995e-05,0
2.6657,1.5106e-05,0
2.6662,3.2059e-05,0
2.6668,3.7095e-05,0
2.6673,4.8676e-05,0
2.6678,6.6636e-05,0
2.6683,7.9393e-05,0
2.6688,7.7379e-05,0
2.6694,5.8244e-05,0
2.6699,3.9445e-05,0
2.6704,3.6088e-05,0
2.6709,3.3402e-05,0
2.6714,2.4002e-05,0
2.672,2.1317e-05,0
2.6725,1.1749e-05,0
2.673,-1.0071e-05,0
2.6735,-3.6927e-06,0
2.674,3.9445e-05,0
2.6746,7.7714e-05,0
2.6751,8.3085e-05,0
2.6756,7.7714e-05,0
2.6761,9.1142e-05,0
2.6766,0.00011196,0
2.6772,0.00012136,0
2.6777,0.000118,0
2.6782,9.8024e-05,0
2.6787,5.9251e-05,0
2.6792,3.0213e-06,0
2.6797,-6.2608e-05,0
2.6803,-0.00014015,0
2.6808,-0.0002078,0
2.6813,-0.00022828,0
2.6818,-0.00021501,0
2.6823,-0.00018396,0
2.6829,-0.00014922,0
2.6834,-0.0001425,0
2.6839,-0.00018312,0
2.6844,-0.00027578,0
2.6849,-0.00037665,0
2.6855,-0.00043758,0
2.686,-0.00047417,0
2.6865,-0.00047098,0
2.687,-0.00034577,0
2.6875,-8.896e-05,0
2.6881,0.00018094,0
2.6886,0.00033872,0
2.6891,0.0003503,0
2.6896,0.00029625,0
2.6901,0.00026419,0
2.6907,0.00025194,0
2.6912,0.00022861,0
2.6917,0.00020629,0
2.6922,0.00020427,0
2.6927,0.00020729,0
2.6932,0.00020662,0
2.6938,0.00019924,0
2.6943,0.00017675,0
2.6948,0.00014704,0
2.6953,0.00012203,0
2.6958,0.00010457,0
2.6964,9.3828e-05,0
2.6969,8.6107e-05,0
2.6974,7.6036e-05,0
2.6979,5.7237e-05,0
2.6984,3.1052e-05,0
2.699,-8.2246e-06,0
2.6995,-6.0761e-05,0
2.7,-8.7114e-05,0
2.7005,-0.00010289,0
2.701,-0.00016936,0
2.7016,-0.00027376,0
2.7021,-0.00035282,0
2.7026,-0.00032882,0
2.7031,-0.00018262,0
2.7036,-1.6281e-05,0
2.7042,4.8173e-05,0
2.7047,3.2731e-05,0
2.7052,6.0594e-05,0
2.7057,0.00016365,0
2.7062,0.00026705,0
2.7067,0.00030314,0
2.7073,0.00026302,0
2.7078,0.00019353,0
2.7083,0.00014217,0
2.7088,0.00011867,0
2.7093,0.00010054,0
2.7099,7.335e-05,0
2.7104,5.7237e-05,0
2.7109,6.6133e-05,0
2.7114,7.3014e-05,0
2.7119,4.8173e-05,0
2.7125,-7.3854e-06,0
2.713,-6.7643e-05,0
2.7135,-9.7185e-05,0
2.714,-7.5868e-05,0
2.7145,-1.9303e-05,0
2.7151,3.6591e-05,0
2.7156,7.4861e-05,0
2.7161,9.9702e-05,0
2.7166,0.00011666,0
2.7171,0.00014485,0
2.7177,0.00019017,0
2.7182,0.00023835,0
2.7187,0.00027813,0
2.7192,0.0002939,0
2.7197,0.00027712,0
2.7203,0.00024187,0
2.7208,0.00020259,0
2.7213,0.000165,0
2.7218,0.00012387,0
2.7223,6.3783e-05,0
2.7228,-1.4603e-05,0
2.7234,-9.3492e-05,0
2.7239,-0.00018027,0
2.7244,-0.00028081,0
2.7249,-0.00034073,0
2.7254,-0.00031958,0
2.726,-0.00024724,0
2.7265,-0.00017775,0
2.727,-0.00010793,0
2.7275,-1.9638e-05,0
2.728,6.5629e-05,0
2.7286,0.00010188,0
2.7291,6.4958e-05,0
2.7296,-1.326e-05,0
2.7301,-8.7114e-05,0
2.7306,-0.00014183,0
2.7312,-0.00021602,0
2.7317,-0.00034124,0
2.7322,-0.00050338,0
2.7327,-0.0005816,0
2.7332,-0.00040468,0
2.7338,-4.2802e-05,0
2.7343,0.00023146,0
2.7348,0.00028585,0
2.7353,0.00021334,0
2.7358,0.00014955,0
2.7363,0.00013109,0
2.7369,0.0001274,0
2.7374,0.00013176,0
2.7379,0.00015224,0
2.7384,0.00016265,0
2.7389,0.0001472,0
2.7395,0.00012236,0
2.74,0.00010893,0
2.7405,0.00012068,0
2.741,0.0001378,0
2.7415,0.00013042,0
2.7421,0.00011179,0
2.7426,0.00013277,0
2.7431,0.00019034,0
2.7436,0.00022441,0
2.7441,0.00021669,0
2.7447,0.00019185,0
2.7452,0.00016902,0
2.7457,0.00012941,0
2.7462,3.5248e-05,0
2.7467,-9.6345e-05,0
2.7473,-0.00019336,0
2.7478,-0.00020578,0
2.7483,-0.00015895,0
2.7488,-0.00011901,0
2.7493,-0.00011431,0
2.7498,-0.00012169,0
2.7504,-0.00011783,0
2.7509,-0.00010222,0
2.7514,-8.3085e-05,0
2.7519,-7.4022e-05,0
2.7524,-8.4932e-05,0
2.753,-0.00011044,0
2.7535,-0.0001237,0
2.754,-0.00011414,0
2.7545,-0.00010356,0
2.755,-9.3492e-05,0
2.7556,-6.6636e-05,0
2.7561,-2.9206e-05,0
2.7566,-5.0355e-07,0
2.7571,9.0639e-06,0
2.7576,3.6927e-06,0
2.7582,2.8367e-05,0
2.7587,8.4428e-05,0
2.7592,0.00012505,0
2.7597,0.0001425,0
2.7602,0.00016768,0
2.7607,0.00021283,0
2.7613,0.00024556,0
2.7618,0.00023717,0
2.7623,0.00021334,0
2.7628,0.00018514,0
2.7633,0.00011498,0
2.7639,-3.1891e-06,0
2.7644,-7.5029e-05,0
2.7649,-3.1052e-05,0
2.7654,7.2343e-05,0
2.7659,0.00016231,0
2.7665,0.00019252,0
2.767,0.00015106,0
2.7675,9.601e-05,0
2.768,8.9128e-05,0
2.7685,0.00011498,0
2.7691,0.00012337,0
2.7696,9.987e-05,0
2.7701,7.0665e-05,0
2.7706,5.0523e-05,0
2.7711,2.7359e-05,0
2.7717,-1.6785e-06,0
2.7722,-2.5345e-05,0
2.7727,-4.213e-05,0
2.7732,-6.5629e-05,0
2.7737,-0.00010692,0
2.7742,-0.00017104,0
2.7748,-0.00022777,0
2.7753,-0.00021904,0
2.7758,-0.00016718,0
2.7763,-0.00013445,0
2.7768,-0.00010558,0
2.7774,-3.3234e-05,0
2.7779,7.8218e-05,0
2.7784,0.00017574,0
2.7789,0.00021132,0
2.7794,0.00017037,0
2.78,6.9657e-05,0
2.7805,-3.8941e-05,0
2.781,-9.836e-05,0
2.7815,-0.00010491,0
2.782,-0.00010121,0
2.7826,-0.00011783,0
2.7831,-0.00015425,0
2.7836,-0.0001472,0
2.7841,-5.9922e-05,0
2.7846,6.5797e-05,0
2.7852,0.00018111,0
2.7857,0.00027175,0
2.7862,0.00036407,0
2.7867,0.00042013,0
2.7872,0.00037749,0
2.7877,0.00026973,0
2.7883,0.00016953,0
2.7888,9.0471e-05,0
2.7893,1.0239e-05,0
2.7898,-7.8386e-05,0
2.7903,-0.00014032,0
2.7909,-0.00014099,0
2.7914,-6.5126e-05,0
2.7919,2.9877e-05,0
2.7924,6.7643e-05,0
2.7929,5.8579e-05,0
2.7935,5.153e-05,0
2.794,4.8173e-05,0
2.7945,4.1459e-05,0
2.795,3.3066e-05,0
2.7955,3.6927e-06,0
2.7961,-4.3977e-05,0
2.7966,-0.00010155,0
2.7971,-0.00017322,0
2.7976,-0.00026621,0
2.7981,-0.00039059,0
2.7987,-0.00052654,0
2.7992,-0.0005727,0
2.7997,-0.00040385,0
2.8002,-7.3854e-05,0
2.8007,0.00020293,0
2.8013,0.00031069,0
2.8018,0.00031203,0
2.8023,0.00029172,0
2.8028,0.00028048,0
2.8033,0.00026503,0
2.8038,0.00022542,0
2.8044,0.00017557,0
2.8049,0.0001274,0
2.8054,7.8218e-05,0
2.8059,3.6927e-05,0
2.8064,3.4073e-05,0
2.807,6.9322e-05,0
2.8075,0.00010121,0
2.808,8.7114e-05,0
2.8085,2.031e-05,0
2.809,-3.8605e-05,0
2.8096,-2.6184e-05,0
2.8101,7.8889e-06,0
2.8106,-2.6688e-05,0
2.8111,-9.1478e-05,0
2.8116,-0.00011498,0
2.8122,-9.8527e-05,0
2.8127,-8.3757e-05,0
2.8132,-7.4357e-05,0
2.8137,-2.031e-05,0
2.8142,8.4932e-05,0
2.8148,0.00017775,0
2.8153,0.00020696,0
2.8158,0.00019521,0
2.8163,0.00018195,0
2.8168,0.00016298,0
2.8173,0.00012186,0
2.8179,6.3951e-05,0
2.8184,7.2175e-06,0
2.8189,-2.5849e-05,0
2.8194,-3.5416e-05,0
2.8199,-4.3977e-05,0
2.8205,-5.7237e-05,0
2.821,-7.4189e-05,0
2.8215,-9.601e-05,0
2.822,-0.00010457,0
2.8225,-8.2918e-05,0
2.8231,-4.213e-05,0
2.8236,6.5461e-06,0
2.8241,5.7237e-05,0
2.8246,9.0974e-05,0
2.8251,0.00010726,0
2.8257,0.00012337,0
2.8262,0.00015157,0
2.8267,0.00018514,0
2.8272,0.00020259,0
2.8277,0.00019152,0
2.8283,0.00015627,0
2.8288,0.00010809,0
2.8293,6.2943e-05,0
2.8298,3.1388e-05,0
2.8303,-6.8818e-06,0
2.8308,-8.6107e-05,0
2.8314,-0.00017372,0
2.8319,-0.00020528,0
2.8324,-0.00016986,0
2.8329,-0.00011498,0
2.8334,-8.275e-05,0
2.834,-9.3492e-05,0
2.8345,-0.00015778,0
2.835,-0.00027158,0
2.8355,-0.00040435,0
2.836,-0.0004589,0
2.8366,-0.00039747,0
2.8371,-0.00030011,0
2.8376,-0.00020679,0
2.8381,-9.0135e-05,0
2.8386,6.6468e-05,0
2.8392,0.0002177,0
2.8397,0.0003023,0
2.8402,0.00032982,0
2.8407,0.00034762,0
2.8412,0.00035702,0
2.8418,0.00034191,0
2.8423,0.00031354,0
2.8428,0.00029928,0
2.8433,0.0002892,0
2.8438,0.00024825,0
2.8443,0.00018883,0
2.8449,0.00014418,0
2.8454,0.00010188,0
2.8459,3.6759e-05,0
2.8464,-2.7024e-05,0
2.8469,-6.1601e-05,0
2.8475,-6.865e-05,0
2.848,-5.0355e-05,0
2.8485,-2.1653e-05,0
2.849,-6.5461e-06,0
2.8495,-1.1917e-05,0
2.8501,-2.1988e-05,0
2.8506,-2.652e-05,0
2.8511,-3.1388e-05,0
2.8516,-3.508e-05,0
2.8521,-2.2324e-05,0
2.8527,3.1891e-06,0
2.8532,2.4674e-05,0
2.8537,3.4577e-05,0
2.8542,4.0787e-05,0
2.8547,4.7166e-05,0
2.8552,4.5319e-05,0
2.8558,3.8437e-05,0
2.8563,4.1123e-05,0
2.8568,5.0187e-05,0
2.8573,4.4648e-05,0
2.8578,2.5177e-05,0
2.8584,1.5778e-05,0
2.8589,2.7695e-05,0
2.8594,4.7501e-05,0
2.8599,3.4745e-05,0
2.8604,-3.9445e-05,0
2.861,-0.00015325,0
2.8615,-0.00023062,0
2.862,-0.0002459,0
2.8625,-0.00025161,0
2.863,-0.0002407,0
2.8636,-0.0001848,0
2.8641,-0.00010021,0
2.8646,-1.326e-05,0
2.8651,5.7908e-05,0
2.8656,9.366e-05,0
2.8662,9.0471e-05,0
2.8667,7.4693e-05,0
2.8672,5.8915e-05,0
2.8677,2.9709e-05,0
2.8682,-6.3951e-05,0
2.8687,-0.00019168,0
2.8693,-0.0001754,0
2.8698,7.0497e-05,0
2.8703,0.00036675,0
2.8708,0.0005059,0
2.8713,0.00046242,0
2.8719,0.00033016,0
2.8724,0.00021317,0
2.8729,0.00017507,0
2.8734,0.00017859,0
2.8739,0.00014754,0
2.8745,7.6875e-05,0
2.875,1.9303e-05,0
2.8755,-2.5177e-06,0
2.876,-9.9031e-06,0
2.8765,-1.8967e-05,0
2.8771,-3.1052e-05,0
2.8776,-4.5151e-05,0
2.8781,-5.3544e-05,0
2.8786,-5.2201e-05,0
2.8791,-3.3234e-05,0
2.8797,-1.6785e-06,0
2.8802,2.266e-05,0
2.8807,4.0787e-05,0
2.8812,6.5629e-05,0
2.8817,9.3828e-05,0
2.8822,0.00010927,0
2.8828,9.6513e-05,0
2.8833,7.2007e-05,0
2.8838,7.3686e-05,0
2.8843,9.9199e-05,0
2.8848,0.00011783,0
2.8854,0.00011867,0
2.8859,0.00010524,0
2.8864,8.2414e-05,0
2.8869,6.0594e-05,0
2.8874,3.7766e-05,0
2.888,-8.896e-06,0
2.8885,-7.6204e-05,0
2.889,-0.00014418,0
2.8895,-0.00021099,0
2.89,-0.00027007,0
2.8906,-0.00031203,0
2.8911,-0.00031623,0
2.8916,-0.00027712,0
2.8921,-0.0002365,0
2.8926,-0.00022475,0
2.8932,-0.00022609,0
2.8937,-0.00018346,0
2.8942,-8.9799e-05,0
2.8947,-2.9709e-05,0
2.8952,-5.6733e-05,0
2.8958,-9.9367e-05,0
2.8963,-6.1433e-05,0
2.8968,4.0116e-05,0
2.8973,0.00012136,0
2.8978,0.00015795,0
2.8983,0.0001707,0
2.8989,0.00016751,0
2.8994,0.00015526,0
2.8999,0.0001613,0
2.9004,0.00019017,0
2.9009,0.00020931,0
2.9015,0.00019857,0
2.902,0.00017423,0
2.9025,0.00015828,0
2.903,0.00014821,0
2.9035,0.00013411,0
2.9041,0.00012471,0
2.9046,0.00011733,0
2.9051,9.6849e-05,0
2.9056,6.4622e-05,0
2.9061,2.887e-05,0
2.9067,-3.8605e-06,0
2.9072,-2.9038e-05,0
2.9077,-4.8676e-05,0
2.9082,-6.2608e-05,0
2.9087,-6.3111e-05,0
2.9093,-4.3137e-05,0
2.9098,-4.5319e-06,0
2.9103,3.592e-05,0
2.9108,6.1265e-05,0
2.9113,7.57e-05,0
2.9118,9.2149e-05,0
2.9124,0.00010961,0
2.9129,9.9031e-05,0
2.9134,3.9445e-05,0
2.9139,-6.4118e-05,0
2.9144,-0.00019907,0
2.915,-0.00032193,0
2.9155,-0.00036793,0
2.916,-0.00030364,0
2.9165,-0.00010188,0
2.917,0.00016684,0
2.9176,0.00034208,0
2.9181,0.00034174,0
2.9186,0.00021854,0
2.9191,8.275e-05,0
2.9196,5.539e-06,0
2.9202,-1.6281e-05,0
2.9207,-1.9806e-05,0
2.9212,-3.2059e-05,0
2.9217,-5.6397e-05,0
2.9222,-7.3686e-05,0
2.9228,-5.8244e-05,0
2.9233,-5.539e-06,0
2.9238,6.0929e-05,0
2.9243,0.0001044,0
2.9248,0.00011498,0
2.9253,0.0001091,0
2.9259,9.9535e-05,0
2.9264,8.9296e-05,0
2.9269,8.8121e-05,0
2.9274,9.601e-05,0
2.9279,0.00010625,0
2.9285,0.00011514,0
2.929,0.000118,0
2.9295,0.000118,0
2.93,0.00012035,0
2.9305,0.00012605,0
2.9311,0.00012438,0
2.9316,8.8121e-05,0
2.9321,5.539e-06,0
2.9326,-8.7114e-05,0
2.9331,-0.00010742,0
2.9337,-5.4719e-05,0
2.9342,-1.561e-05,0
2.9347,2.2995e-05,0
2.9352,9.7185e-05,0
2.9357,0.00015996,0
2.9362,0.000166,0
2.9368,0.00015291,0
2.9373,0.00013545,0
2.9378,0.00010826,0
2.9383,0.00010188,0
2.9388,9.2485e-05,0
2.9394,1.8463e-05,0
2.9399,-0.00010591,0
2.9404,-0.00017305,0
2.9409,-0.00017121,0
2.9414,-0.00018547,0
2.942,-0.00020159,0
2.9425,-0.00015895,0
2.943,-9.987e-05,0
2.9435,-0.00010121,0
2.944,-0.00016097,0
2.9446,-0.00021619,0
2.9451,-0.00023465,0
2.9456,-0.00021317,0
2.9461,-0.00015291,0
2.9466,-8.2078e-05,0
2.9472,-3.6759e-05,0
2.9477,-2.5849e-05,0
2.9482,-3.0381e-05,0
2.9487,-2.6184e-05,0
2.9492,-7.5532e-06,0
2.9497,1.8296e-05,0
2.9503,6.4958e-05,0
2.9508,0.00011296,0
2.9513,0.00012572,0
2.9518,0.00010927,0
2.9523,0.0001039,0
2.9529,0.00012337,0
2.9534,0.00016164,0
2.9539,0.0002078,0
2.9544,0.00023549,0
2.9549,0.00022525,0
2.9555,0.00018917,0
2.956,0.00016516,0
2.9565,0.00017205,0
2.957,0.00019252,0
2.9575,0.0001744,0
2.9581,0.00010994,0
2.9586,4.8508e-05,0
2.9591,5.2033e-06,0
2.9596,-6.9657e-05,0
2.9601,-0.00019303,0
2.9607,-0.00029021,0
2.9612,-0.00028048,0
2.9617,-0.0001989,0
2.9622,-0.0001237,0
2.9627,-7.8721e-05,0
2.9632,-5.2369e-05,0
2.9638,-2.6856e-05,0
2.9643,-3.0213e-06,0
2.9648,-2.182e-06,0
2.9653,-2.1988e-05,0
2.9658,-4.1291e-05,0
2.9664,-4.2466e-05,0
2.9669,-3.0045e-05,0
2.9674,-2.5177e-05,0
2.9679,-1.326e-05,0
2.9684,4.2802e-05,0
2.969,0.00011447,0
2.9695,0.0001415,0
2.97,0.00011582,0
2.9705,6.6636e-05,0
2.971,-5.7069e-06,0
2.9716,-0.00012908,0
2.9721,-0.00024993,0
2.9726,-0.00020998,0
2.9731,4.0116e-05,0
2.9736,0.00032613,0
2.9742,0.00044732,0
2.9747,0.00038656,0
2.9752,0.0002741,0
2.9757,0.00020713,0
2.9762,0.00019756,0
2.9768,0.00020897,0
2.9773,0.00021032,0
2.9778,0.0002088,0
2.9783,0.00021837,0
2.9788,0.00023247,0
2.9793,0.00022744,0
2.9799,0.00018547,0
2.9804,0.00010843,0
2.9809,1.9974e-05,0
2.9814,-6.7643e-05,0
2.9819,-0.00017607,0
2.9825,-0.00031388,0
2.983,-0.00044094,0
2.9835,-0.00046813,0
2.984,-0.00036608,0
2.9845,-0.00019471,0
2.9851,-3.7598e-05,0
2.9856,4.7501e-05,0
2.9861,6.1936e-05,0
2.9866,4.3137e-05,0
2.9871,2.9877e-05,0
2.9877,3.978e-05,0
2.9882,7.2679e-05,0
2.9887,0.00011229,0
2.9892,0.00013646,0
2.9897,0.00014553,0
2.9903,0.00014452,0
2.9908,0.00012505,0
2.9913,6.8147e-05,0
2.9918,-3.4745e-05,0
2.9923,-0.00015694,0
2.9928,-0.00026537,0
2.9934,-0.00033318,0
2.9939,-0.00035483,0
2.9944,-0.00033989,0
2.9949,-0.00026134,0
2.9954,-7.6036e-05,0
2.996,0.00015912,0
2.9965,0.00033687,0
2.997,0.00040133,0
2.9975,0.00038253,0
2.998,0.00035836,0
2.9986,0.00034359,0
2.9991,0.00031304,0
2.9996,0.00025396,0
3.0001,0.0001895,0
3.0006,0.00014603,0
3.0012,0.00011632,0
3.0017,7.9057e-05,0
3.0022,4.1291e-05,0
3.0027,1.0575e-05,0
3.0032,-2.7695e-05,0
3.0038,-7.7546e-05,0
3.0043,-0.00012303,0
3.0048,-0.00015023,0
3.0053,-0.00015526,0
3.0058,-0.00015526,0
3.0063,-0.00016533,0
3.0069,-0.00017171,0
3.0074,-0.00014821,0
3.0079,-9.9199e-05,0
3.0084,-6.0594e-05,0
3.0089,-5.5558e-05,0
3.0095,-7.6036e-05,0
3.01,-9.2988e-05,0
3.0105,-7.805e-05,0
3.011,-5.1865e-05,0
3.0115,-3.8605e-05,0
3.0121,-3.508e-05,0
3.0126,-3.7263e-05,0
3.0131,-3.3066e-05,0
3.0136,4.0284e-06,0
3.0141,8.3421e-05,0
3.0147,0.0001655,0
3.0152,0.00020562,0
3.0157,0.00021267,0
3.0162,0.00020696,0
3.0167,0.0001942,0
3.0173,0.00018917,0
3.0178,0.00018447,0
3.0183,0.00015258,0
3.0188,8.5435e-05,0
3.0193,-1.2924e-05,0
3.0198,-0.00011263,0
3.0204,-0.00017221,0
3.0209,-0.00018094,0
3.0214,-0.00014804,0
3.0219,-9.752e-05,0
3.0224,-4.5823e-05,0
3.023,-1.6785e-07,0
3.0235,4.5823e-05,0
3.024,8.2414e-05,0
3.0245,8.9464e-05,0
3.025,7.4189e-05,0
3.0256,5.8747e-05,0
3.0261,5.8244e-05,0
3.0266,6.5293e-05,0
3.0271,5.9251e-05,0
3.0276,3.8102e-05,0
3.0282,2.0981e-05,0
3.0287,1.8967e-05,0
3.0292,2.9709e-05,0
3.0297,4.0787e-05,0
3.0302,3.7934e-05,0
3.0307,2.9709e-05,0
3.0313,2.8367e-05,0
3.0318,3.0381e-05,0
3.0323,2.3667e-05,0
3.0328,3.5248e-06,0
3.0333,-2.3331e-05,0
3.0339,-5.4887e-05,0
3.0344,-9.2485e-05,0
3.0349,-0.00011666,0
3.0354,-0.00011145,0
3.0359,-8.2414e-05,0
3.0365,-4.4816e-05,0
3.037,-1.1246e-05,0
3.0375,-1.6785e-06,0
3.038,-1.6449e-05,0
3.0385,-8.2246e-06,0
3.0391,4.2298e-05,0
3.0396,9.2149e-05,0
3.0401,0.00012068,0
3.0406,0.00011733,0
3.0411,7.7546e-05,0
3.0417,4.1459e-05,0
3.0422,4.7837e-05,0
3.0427,6.8986e-05,0
3.0432,5.9586e-05,0
3.0437,4.4816e-05,0
3.0442,7.8218e-05,0
3.0448,0.00012723,0
3.0453,0.00014418,0
3.0458,0.00014485,0
3.0463,0.00015023,0
3.0468,0.00013982,0
3.0474,0.00010961,0
3.0479,7.2343e-05,0
3.0484,1.8463e-05,0
3.0489,-3.7095e-05,0
3.0494,-6.9657e-05,0
3.05,-6.3279e-05,0
3.0505,-3.0045e-05,0
3.051,-1.2253e-05,0
3.0515,-2.0981e-05,0
3.052,-4.1794e-05,0
3.0526,-6.2608e-05,0
3.0531,-8.3421e-05,0
3.0536,-9.1142e-05,0
3.0541,-2.5513e-05,0
3.0546,0.00013411,0
3.0552,0.00030834,0
3.0557,0.00041576,0
3.0562,0.00042953,0
3.0567,0.00035903,0
3.0572,0.00024791,0
3.0577,0.0001566,0
3.0583,8.8121e-05,0
3.0588,5.0355e-06,0
3.0593,-9.6849e-05,0
3.0598,-0.00018833,0
3.0603,-0.00024103,0
3.0609,-0.00025731,0
3.0614,-0.00025597,0
3.0619,-0.0002318,0
3.0624,-0.00019588,0
3.0629,-0.00015207,0
3.0635,-7.9393e-05,0
3.064,-1.5946e-05,0
3.0645,-8.0568e-06,0
3.065,-4.8676e-05,0
3.0655,-0.00014368,0
3.0661,-0.0003305,0
3.0666,-0.00054534,0
3.0671,-0.000568,0
3.0676,-0.00030918,0
3.0681,3.8437e-05,0
3.0687,0.00024825,0
3.0692,0.0002751,0
3.0697,0.00021065,0
3.0702,0.00014737,0
3.0707,0.00011749,0
3.0713,0.00011766,0
3.0718,0.00014166,0
3.0723,0.0001791,0
3.0728,0.00021032,0
3.0733,0.00022274,0
3.0738,0.00021787,0
3.0744,0.00020729,0
3.0749,0.00019454,0
3.0754,0.00017171,0
3.0759,0.00014888,0
3.0764,0.00015392,0
3.077,0.00017272,0
3.0775,0.00016835,0
3.078,0.00012068,0
3.0785,2.4338e-05,0
3.079,-7.1336e-05,0
3.0796,-8.5603e-05,0
3.0801,-1.5946e-05,0
3.0806,6.5629e-05,0
3.0811,9.8527e-05,0
3.0816,7.9057e-05,0
3.0822,3.6088e-05,0
3.0827,-5.0355e-07,0
3.0832,-1.9974e-05,0
3.0837,-3.9109e-05,0
3.0842,-5.9922e-05,0
3.0848,-6.8818e-05,0
3.0853,-5.9251e-05,0
3.0858,-4.1459e-05,0
3.0863,-2.0478e-05,0
3.0868,5.2033e-06,0
3.0873,2.9374e-05,0
3.0879,4.0116e-05,0
3.0884,3.9277e-05,0
3.0889,3.9948e-05,0
3.0894,4.2298e-05,0
3.0899,3.9277e-05,0
3.0905,2.7359e-05,0
3.091,1.4435e-05,0
3.0915,1.561e-05,0
3.092,2.0813e-05,0
3.0925,7.0497e-06,0
3.0931,-2.8702e-05,0
3.0936,-7.6036e-05,0
3.0941,-0.00010272,0
3.0946,-7.3014e-05,0
3.0951,-9.2317e-06,0
3.0957,3.6759e-05,0
3.0962,2.7695e-05,0
3.0967,-2.9709e-05,0
3.0972,-9.8863e-05,0
3.0977,-0.00015006,0
3.0983,-0.00017591,0
3.0988,-0.00018698,0
3.0993,-0.00017205,0
3.0998,-0.00012589,0
3.1003,-7.7211e-05,0
3.1008,-4.448e-05,0
3.1014,-1.561e-05,0
3.1019,-3.0213e-06,0
3.1024,-2.6017e-05,0
3.1029,-3.0381e-05,0
3.1034,3.978e-05,0
3.104,0.00015425,0
3.1045,0.00022055,0
3.105,0.00020125,0
3.1055,0.00014318,0
3.106,8.7449e-05,0
3.1066,4.7166e-05,0
3.1071,2.9877e-05,0
3.1076,5.0858e-05,0
3.1081,9.6513e-05,0
3.1086,0.00012975,0
3.1092,0.00013579,0
3.1097,0.00011901,0
3.1102,8.3925e-05,0
3.1107,4.6998e-05,0
3.1112,1.326e-05,0
3.1117,-5.0858e-05,0
3.1123,-0.00015325,0
3.1128,-0.00023784,0
3.1133,-0.00023247,0
3.1138,-0.00011716,0
3.1143,5.5055e-05,0
3.1149,0.00021384,0
3.1154,0.00030733,0
3.1159,0.00033486,0
3.1164,0.00031875,0
3.1169,0.00027813,0
3.1175,0.00024623,0
3.118,0.00023079,0
3.1185,0.00021636,0
3.119,0.00018648,0
3.1195,0.0001368,0
3.1201,6.0929e-05,0
3.1206,-5.3208e-05,0
3.1211,-0.00019454,0
3.1216,-0.00035315,0
3.1221,-0.00047585,0
3.1227,-0.00048072,0
3.1232,-0.00036977,0
3.1237,-0.00019185,0
3.1242,-1.1582e-05,0
3.1247,0.00011867,0
3.1252,0.00017406,0
3.1258,0.00013764,0
3.1263,4.8173e-05,0
3.1268,-3.4745e-05,0
3.1273,-0.0001091,0
3.1278,-0.00015157,0
3.1284,-8.3421e-05,0
3.1289,8.8457e-05,0
3.1294,0.00025278,0
3.1299,0.00033335,0
3.1304,0.00033016,0
3.131,0.00029491,0
3.1315,0.00027343,0
3.132,0.00026134,0
3.1325,0.00023784,0
3.133,0.00020662,0
3.1336,0.0001796,0
3.1341,0.00015006,0
3.1346,0.00011867,0
3.1351,8.7114e-05,0
3.1356,4.7501e-05,0
3.1362,1.1749e-05,0
3.1367,-2.4002e-05,0
3.1372,-8.2078e-05,0
3.1377,-0.0001509,0
3.1382,-0.00019655,0
3.1387,-0.00019991,0
3.1393,-0.00016298,0
3.1398,-0.00011783,0
3.1403,-8.2078e-05,0
3.1408,-3.2563e-05,0
3.1413,4.9516e-05,0
3.1419,0.0001274,0
3.1424,0.0001378,0
3.1429,7.4525e-05,0
3.1434,-1.1078e-05,0
3.1439,-6.4118e-05,0
3.1445,-6.8986e-05,0
3.145,-4.448e-05,0
3.1455,-1.6785e-06,0
3.146,4.0116e-05,0
3.1465,5.2201e-05,0
3.1471,3.7766e-05,0
3.1476,1.6953e-05,0
3.1481,-1.5106e-05,0
3.1486,-9.0135e-05,0
3.1491,-0.00018614,0
3.1497,-0.00023835,0
3.1502,-0.00024187,0
3.1507,-0.00023247,0
3.1512,-0.00022156,0
3.1517,-0.0001801,0
3.1522,-9.8024e-05,0
3.1528,-4.6998e-06,0
3.1533,6.5965e-05,0
3.1538,9.5171e-05,0
3.1543,9.366e-05,0
3.1548,7.1e-05,0
3.1554,2.6184e-05,0
3.1559,-2.1653e-05,0
3.1564,-4.3137e-05,0
3.1569,-4.3137e-05,0
3.1574,-3.7934e-05,0
3.158,-3.6927e-05,0
3.1585,-4.3137e-05,0
3.159,-5.4047e-05,0
3.1595,-6.6636e-05,0
3.16,-7.2847e-05,0
3.1606,-6.0258e-05,0
3.1611,-2.4674e-05,0
3.1616,3.4409e-05,0
3.1621,0.00011363,0
3.1626,0.00019924,0
3.1632,0.00026503,0
3.1637,0.00028618,0
3.1642,0.00027024,0
3.1647,0.00024959,0
3.1652,0.00023214,0
3.1658,0.0002036,0
3.1663,0.00016298,0
3.1668,0.00011783,0
3.1673,7.1e-05,0
3.1678,2.0813e-05,0
3.1683,-3.0381e-05,0
3.1689,-3.9612e-05,0
3.1694,2.4002e-05,0
3.1699,0.0001086,0
3.1704,0.00016214,0
3.1709,0.00018245,0
3.1715,0.00017708,0
3.172,0.00014452,0
3.1725,9.5842e-05,0
3.173,4.918e-05,0
3.1735,1.1917e-05,0
3.1741,-1.8967e-05,0
3.1746,-4.5151e-05,0
3.1751,-6.9322e-05,0
3.1756,-8.9296e-05,0
3.1761,-9.8527e-05,0
3.1767,-0.00010155,0
3.1772,-0.00010021,0
3.1777,-8.9464e-05,0
3.1782,-8.0232e-05,0
3.1787,-7.6707e-05,0
3.1793,-3.8941e-05,0
3.1798,3.508e-05,0
3.1803,0.00012505,0
3.1808,0.0002036,0
3.1813,0.00022744,0
3.1818,0.00019907,0
3.1824,0.00014318,0
3.1829,8.1407e-05,0
3.1834,3.743e-05,0
3.1839,8.3925e-06,0
3.1844,-5.1026e-05,0
3.185,-0.00020226,0
3.1855,-0.00037162,0
3.186,-0.00036054,0
3.1865,-0.00015207,0
3.187,5.4887e-05,0
3.1876,0.000118,0
3.1881,0.00010021,0
3.1886,0.00011582,0
3.1891,0.00014485,0
3.1896,0.00013344,0
3.1902,0.00011028,0
3.1907,0.00011044,0
3.1912,0.00010994,0
3.1917,8.0735e-05,0
3.1922,3.4745e-05,0
3.1928,-6.8818e-06,0
3.1933,-3.743e-05,0
3.1938,-5.7572e-05,0
3.1943,-6.7643e-05,0
3.1948,-6.8986e-05,0
3.1953,-4.8005e-05,0
3.1959,-7.0497e-06,0
3.1964,2.4842e-05,0
3.1969,5.388e-05,0
3.1974,0.00010692,0
3.1979,0.0001566,0
3.1985,0.00016768,0
3.199,0.00014284,0
3.1995,0.00010256,0
3.2,5.4551e-05,0
3.2005,1.1582e-05,0
3.2011,-3.9948e-05,0
3.2016,-0.00012639,0
3.2021,-0.00018027,0
3.2026,-0.00014385,0
3.2031,-4.9516e-05,0
3.2037,3.6088e-05,0
3.2042,9.6849e-05,0
3.2047,0.00015023,0
3.2052,0.00018849,0
3.2057,0.00018749,0
3.2062,0.0001754,0
3.2068,0.00019185,0
3.2073,0.00020696,0
3.2078,0.00017708,0
3.2083,0.00011548,0
3.2088,3.6927e-05,0
3.2094,-5.388e-05,0
3.2099,-0.00013848,0
3.2104,-0.00019437,0
3.2109,-0.00021233,0
3.2114,-0.00021434,0
3.212,-0.00022777,0
3.2125,-0.00025295,0
3.213,-0.00026285,0
3.2135,-0.00023432,0
3.214,-0.00018279,0
3.2146,-0.00013696,0
3.2151,-9.9367e-05,0
3.2156,-7.3182e-05,0
3.2161,-6.6636e-05,0
3.2166,-6.4286e-05,0
3.2172,-4.0452e-05,0
3.2177,9.9031e-06,0
3.2182,6.2608e-05,0
3.2187,0.00010037,0
3.2192,0.00013277,0
3.2197,0.00016449,0
3.2203,0.00019017,0
3.2208,0.00020461,0
3.2213,0.00019907,0
3.2218,0.00017574,0
3.2223,0.00014922,0
3.2229,0.0001284,0
3.2234,0.00010491,0
3.2239,8.0735e-05,0
3.2244,6.9993e-05,0
3.2249,6.0594e-05,0
3.2255,2.7695e-05,0
3.226,-1.7121e-05,0
3.2265,-3.5248e-05,0
3.227,-2.3667e-05,0
3.2275,-1.2589e-05,0
3.2281,-3.2395e-05,0
3.2286,-8.0735e-05,0
3.2291,-0.00011078,0
3.2296,-0.00010776,0
3.2301,-0.00010491,0
3.2307,-0.0001039,0
3.2312,-7.8386e-05,0
3.2317,-2.6688e-05,0
3.2322,2.9877e-05,0
3.2327,6.6636e-05,0
3.2332,8.3757e-05,0
3.2338,9.1981e-05,0
3.2343,8.3757e-05,0
3.2348,6.63e-05,0
3.2353,6.4958e-05,0
3.2358,5.3544e-05,0
3.2364,1.3428e-06,0
3.2369,-5.4719e-05,0
3.2374,-2.7695e-05,0
3.2379,9.752e-05,0
3.2384,0.00022408,0
3.239,0.00026638,0
3.2395,0.00022475,0
3.24,0.0001509,0
3.2405,9.5171e-05,0
3.241,7.805e-05,0
3.2416,8.4932e-05,0
3.2421,8.5771e-05,0
3.2426,6.9322e-05,0
3.2431,3.8605e-05,0
3.2436,-1.6785e-05,0
3.2442,-6.5797e-05,0
3.2447,-6.6636e-05,0
3.2452,-4.8676e-05,0
3.2457,-3.3738e-05,0
3.2462,2.5177e-06,0
3.2468,6.7979e-05,0
3.2473,0.00012857,0
3.2478,0.00013462,0
3.2483,8.1407e-05,0
3.2488,1.1917e-05,0
3.2493,-2.652e-05,0
3.2499,-2.501e-05,0
3.2504,-1.0071e-05,0
3.2509,1.9471e-05,0
3.2514,7.5532e-05,0
3.2519,0.00015492,0
3.2525,0.00023919,0
3.253,0.00030028,0
3.2535,0.00031472,0
3.254,0.00028518,0
3.2545,0.0002266,0
3.2551,0.00014284,0
3.2556,3.0045e-05,0
3.2561,-8.8121e-05,0
3.2566,-0.00017188,0
3.2571,-0.00022945,0
3.2577,-0.00029424,0
3.2582,-0.00037346,0
3.2587,-0.00044396,0
3.2592,-0.00044782,0
3.2597,-0.00034023,0
3.2603,-0.00017742,0
3.2608,-5.1865e-05,0
3.2613,2.0981e-05,0
3.2618,7.6539e-05,0
3.2623,0.00013277,0
3.2628,0.000165,0
3.2634,0.0001566,0
3.2639,0.00013193,0
3.2644,0.00011598,0
3.2649,0.0001138,0
3.2654,0.00011246,0
3.266,8.8457e-05,0
3.2665,3.9948e-05,0
3.267,-4.6998e-06,0
3.2675,-2.8367e-05,0
3.268,-4.5823e-05,0
3.2686,-8.2918e-05,0
3.2691,-0.00014418,0
3.2696,-0.00018312,0
3.2701,-0.0001378,0
3.2706,-2.6688e-05,0
3.2712,5.1362e-05,0
3.2717,5.4719e-05,0
3.2722,4.6159e-05,0
3.2727,6.4958e-05,0
3.2732,7.7714e-05,0
3.2738,7.6036e-05,0
3.2743,8.04e-05,0
3.2748,4.6159e-05,0
3.2753,-3.3066e-05,0
3.2758,-4.8508e-05,0
3.2763,2.6688e-05,0
3.2769,9.0974e-05,0
3.2774,7.8889e-05,0
3.2779,3.3402e-05,0
3.2784,3.3906e-05,0
3.2789,8.4428e-05,0
3.2795,0.00012572,0
3.28,0.00013445,0
3.2805,0.00012857,0
3.281,0.00013042,0
3.2815,0.00014838,0
3.2821,0.00014754,0
3.2826,8.5435e-05,0
3.2831,2.3667e-05,0
3.2836,3.2395e-05,0
3.2841,7.57e-05,0
3.2847,9.5842e-05,0
3.2852,7.7043e-05,0
3.2857,3.978e-05,0
3.2862,1.6785e-06,0
3.2867,-3.978e-05,0
3.2872,-7.6204e-05,0
3.2878,-0.00011984,0
3.2883,-0.00016483,0
3.2888,-0.00015207,0
3.2893,-8.04e-05,0
3.2898,-1.8967e-05,0
3.2904,-1.7456e-05,0
3.2909,-4.213e-05,0
3.2914,-3.7934e-05,0
3.2919,-1.7792e-05,0
3.2924,-4.8676e-06,0
3.293,3.6088e-05,0
3.2935,9.9535e-05,0
3.294,0.00013579,0
3.2945,0.00013931,0
3.295,0.00011347,0
3.2956,5.623e-05,0
3.2961,-2.5681e-05,0
3.2966,-0.00010726,0
3.2971,-0.00015929,0
3.2976,-0.00017188,0
3.2982,-0.00015291,0
3.2987,-0.00012303,0
3.2992,-9.6345e-05,0
3.2997,-6.8315e-05,0
3.3002,-3.6088e-05,0
3.3007,-4.5319e-06,0
3.3013,1.7792e-05,0
3.3018,4.2802e-05,0
3.3023,7.8889e-05,0
3.3028,0.00010188,0
3.3033,9.0806e-05,0
3.3039,6.3279e-05,0
3.3044,4.9516e-05,0
3.3049,6.63e-05,0
3.3054,8.5771e-05,0
3.3059,9.3828e-05,0
3.3065,0.00012757,0
3.307,0.00018547,0
3.3075,0.00021099,0
3.308,0.00015811,0
3.3085,5.5726e-05,0
3.3091,-2.9709e-05,0
3.3096,-6.8986e-05,0
3.3101,-6.0594e-05,0
3.3106,-4.448e-05,0
3.3111,-4.4816e-05,0
3.3117,-4.5151e-05,0
3.3122,-5.3208e-05,0
3.3127,-7.3182e-05,0
3.3132,-5.7908e-05,0
3.3137,-2.182e-06,0
3.3142,3.9445e-05,0
3.3148,5.0858e-05,0
3.3153,6.3279e-05,0
3.3158,8.0903e-05,0
3.3163,8.275e-05,0
3.3168,8.1407e-05,0
3.3174,9.5674e-05,0
3.3179,0.00011028,0
3.3184,0.00010524,0
3.3189,9.7185e-05,0
3.3194,9.1142e-05,0
3.32,7.2343e-05,0
3.3205,3.5752e-05,0
3.321,-3.2059e-05,0
3.3215,-0.0001425,0
3.322,-0.00020108,0
3.3226,-9.5506e-05,0
3.3231,0.00011279,0
3.3236,0.00025093,0
3.3241,0.00024288,0
3.3246,0.0001514,0
3.3252,4.3977e-05,0
3.3257,-2.9038e-05,0
3.3262,1.6785e-07,0
3.3267,9.8527e-05,0
3.3272,0.0001509,0
3.3277,0.00012874,0
3.3283,0.00011397,0
3.3288,0.0001655,0
3.3293,0.00024775,0
3.3298,0.00029256,0
3.3303,0.00028786,0
3.3309,0.00024154,0
3.3314,0.00013478,0
3.3319,-3.4577e-05,0
3.3324,-0.00019521,0
3.3329,-0.0002939,0
3.3335,-0.00035853,0
3.334,-0.00039948,0
3.3345,-0.00035349,0
3.335,-0.00019722,0
3.3355,-4.6998e-06,0
3.3361,0.00013747,0
3.3366,0.00020175,0
3.3371,0.00020629,0
3.3376,0.00017977,0
3.3381,0.00014989,0
3.3387,0.00013613,0
3.3392,0.00013764,0
3.3397,0.00013915,0
3.3402,0.0001274,0
3.3407,9.752e-05,0
3.3413,5.2705e-05,0
3.3418,1.1246e-05,0
3.3423,-1.7121e-05,0
3.3428,-4.3305e-05,0
3.3433,-7.6875e-05,0
3.3438,-0.00011263,0
3.3444,-0.00014452,0
3.3449,-0.00016197,0
3.3454,-0.0001603,0
3.3459,-0.00014485,0
3.3464,-0.0001274,0
3.347,-0.00012236,0
3.3475,-0.00012287,0
3.348,-0.0001284,0
3.3485,-0.00013931,0
3.349,-0.00014871,0
3.3496,-0.00016214,0
3.3501,-0.00017137,0
3.3506,-0.0001566,0
3.3511,-0.00011028,0
3.3516,-2.7695e-05,0
3.3522,5.8579e-05,0
3.3527,0.00011246,0
3.3532,0.00014603,0
3.3537,0.00018111,0
3.3542,0.00021048,0
3.3548,0.00022173,0
3.3553,0.00021132,0
3.3558,0.00017708,0
3.3563,0.00012303,0
3.3568,6.1601e-05,0
3.3573,4.1962e-06,0
3.3579,-3.827e-05,0
3.3584,-6.1265e-05,0
3.3589,-7.1672e-05,0
3.3594,-8.1407e-05,0
3.3599,-8.7449e-05,0
3.3605,-8.191e-05,0
3.361,-6.1097e-05,0
3.3615,-2.6856e-05,0
3.362,9.0639e-06,0
3.3625,3.0549e-05,0
3.3631,4.0116e-05,0
3.3636,4.683e-05,0
3.3641,5.5894e-05,0
3.3646,6.5629e-05,0
3.3651,7.0329e-05,0
3.3657,6.4622e-05,0
3.3662,4.7837e-05,0
3.3667,2.6017e-05,0
3.3672,2.182e-06,0
3.3677,-1.5274e-05,0
3.3683,-3.5752e-05,0
3.3688,-6.63e-05,0
3.3693,-8.4596e-05,0
3.3698,-8.8624e-05,0
3.3703,-9.5506e-05,0
3.3708,-0.00010625,0
3.3714,-0.00012639,0
3.3719,-0.00015912,0
3.3724,-0.00016802,0
3.3729,-0.00012068,0
3.3734,-7.9728e-05,0
3.374,-8.7785e-05,0
3.3745,-1.9638e-05,0
3.375,0.00021468,0
3.3755,0.00047149,0
3.376,0.00055776,0
3.3766,0.00047652,0
3.3771,0.00035601,0
3.3776,0.00025765,0
3.3781,0.00016634,0
3.3786,7.805e-05,0
3.3792,1.1582e-05,0
3.3797,-2.1653e-05,0
3.3802,1.0575e-05,0
3.3807,0.00010658,0
3.3812,0.0002036,0
3.3817,0.00023532,0
3.3823,0.00019655,0
3.3828,0.00012471,0
3.3833,3.5752e-05,0
3.3838,-6.9993e-05,0
3.3843,-0.00016298,0
3.3849,-0.0001791,0
3.3854,-8.3085e-05,0
3.3859,3.6759e-05,0
3.3864,6.0929e-05,0
3.3869,2.0142e-05,0
3.3875,1.2253e-05,0
3.388,3.7263e-05,0
3.3885,3.3906e-05,0
3.389,-4.6326e-05,0
3.3895,-0.00018766,0
3.3901,-0.00029139,0
3.3906,-0.00026067,0
3.3911,-8.9464e-05,0
3.3916,0.0001138,0
3.3921,0.00023885,0
3.3927,0.00025631,0
3.3932,0.00019219,0
3.3937,0.00010457,0
3.3942,4.9516e-05,0
3.3947,3.9445e-05,0
3.3952,6.6468e-05,0
3.3958,0.00011901,0
3.3963,0.00017658,0
3.3968,0.00021468,0
3.3973,0.00023532,0
3.3978,0.00023348,0
3.3984,0.00020629,0
3.3989,0.00015694,0
3.3994,9.8527e-05,0
3.3999,4.5487e-05,0
3.4004,7.8889e-06,0
3.401,-4.6998e-06,0
3.4015,1.7288e-05,0
3.402,5.4551e-05,0
3.4025,5.623e-05,0
3.403,3.0045e-05,0
3.4036,3.4745e-05,0
3.4041,6.63e-05,0
3.4046,7.9057e-05,0
3.4051,6.2943e-05,0
3.4056,4.5319e-05,0
3.4062,3.1724e-05,0
3.4067,-1.1582e-05,0
3.4072,-0.00010289,0
3.4077,-0.00019001,0
3.4082,-0.00023331,0
3.4087,-0.00024707,0
3.4093,-0.00024691,0
3.4098,-0.00023247,0
3.4103,-0.00021082,0
3.4108,-0.00020662,0
3.4113,-0.00022945,0
3.4119,-0.00025882,0
3.4124,-0.00027527,0
3.4129,-0.00027779,0
3.4134,-0.00028064,0
3.4139,-0.00029944,0
3.4145,-0.00029541,0
3.415,-0.00022861,0
3.4155,-0.00012857,0
3.416,-1.9974e-05,0
3.4165,8.1407e-05,0
3.4171,0.00015106,0
3.4176,0.00017775,0
3.4181,0.00016936,0
3.4186,0.00014553,0
3.4191,0.00012438,0
3.4197,0.00011296,0
3.4202,0.00011582,0
3.4207,0.00013143,0
3.4212,0.0001467,0
3.4217,0.00014334,0
3.4223,0.0001232,0
3.4228,0.00010541,0
3.4233,9.5842e-05,0
3.4238,9.0806e-05,0
3.4243,8.5603e-05,0
3.4248,7.4022e-05,0
3.4254,5.5894e-05,0
3.4259,2.7695e-05,0
3.4264,-1.2924e-05,0
3.4269,-3.9445e-05,0
3.4274,-3.1052e-05,0
3.428,3.8605e-06,0
3.4285,3.2563e-05,0
3.429,1.4603e-05,0
3.4295,-4.448e-05,0
3.43,-0.00010524,0
3.4306,-0.00014418,0
3.4311,-0.0001321,0
3.4316,-5.5726e-05,0
3.4321,4.8508e-05,0
3.4326,0.00012471,0
3.4332,0.00016181,0
3.4337,0.00015962,0
3.4342,0.00011582,0
3.4347,5.2201e-05,0
3.4352,-2.1653e-05,0
3.4358,-7.9393e-05,0
3.4363,-9.2149e-05,0
3.4368,-8.0735e-05,0
3.4373,-5.6733e-05,0
3.4378,1.1749e-05,0
3.4383,9.1814e-05,0
3.4389,0.00015761,0
3.4394,0.00020729,0
3.4399,0.00019722,0
3.4404,0.00013814,0
3.4409,0.00010809,0
3.4415,0.0001368,0
3.442,0.00018363,0
3.4425,0.0002088,0
3.443,0.00020864,0
3.4435,0.00019319,0
3.4441,0.00016886,0
3.4446,0.00014351,0
3.4451,0.00011917,0
3.4456,9.6178e-05,0
3.4461,7.5364e-05,0
3.4467,5.5558e-05,0
3.4472,4.1123e-05,0
3.4477,3.6759e-05,0
3.4482,3.3234e-05,0
3.4487,5.0355e-07,0
3.4493,-4.7501e-05,0
3.4498,-5.2369e-05,0
3.4503,-5.539e-06,0
3.4508,5.7237e-05,0
3.4513,0.00011733,0
3.4518,0.0001561,0
3.4524,0.00015811,0
3.4529,0.00013075,0
3.4534,8.5771e-05,0
3.4539,4.9851e-05,0
3.4544,3.4745e-05,0
3.455,2.5681e-05,0
3.4555,8.7282e-06,0
3.456,-1.6953e-05,0
3.4565,-1.561e-05,0
3.457,2.1317e-05,0
3.4576,4.0452e-05,0
3.4581,1.2589e-05,0
3.4586,-3.6423e-05,0
3.4591,-9.4163e-05,0
3.4596,-0.00016197,0
3.4602,-0.00019387,0
3.4607,-0.0001462,0
3.4612,-6.2608e-05,0
3.4617,-2.7359e-05,0
3.4622,-4.4648e-05,0
3.4628,-7.7882e-05,0
3.4633,-0.00010289,0
3.4638,-8.8121e-05,0
3.4643,-3.508e-05,0
3.4648,1.6617e-05,0
3.4653,2.4842e-05,0
3.4659,-8.5603e-06,0
3.4664,-4.4816e-05,0
3.4669,-6.0594e-05,0
3.4674,-6.6133e-05,0
3.4679,-6.0594e-05,0
3.4685,-1.091e-05,0
3.469,7.9561e-05,0
3.4695,0.0001509,0
3.47,0.00016567,0
3.4705,0.00013462,0
3.4711,7.7714e-05,0
3.4716,1.4603e-05,0
3.4721,-5.0019e-05,0
3.4726,-0.00010843,0
3.4731,-0.00013831,0
3.4737,-0.00014116,0
3.4742,-0.0001321,0
3.4747,-0.00011666,0
3.4752,-9.8192e-05,0
3.4757,-8.3085e-05,0
3.4762,-5.9586e-05,0
3.4768,-1.2253e-05,0
3.4773,5.0858e-05,0
3.4778,0.00010591,0
3.4783,0.00013411,0
3.4788,0.00014284,0
3.4794,0.00013948,0
3.4799,0.00011666,0
3.4804,8.275e-05,0
3.4809,5.5222e-05,0
3.4814,3.357e-06,0
3.482,-7.3686e-05,0
3.4825,-0.00011481,0
3.483,-0.00012169,0
3.4835,-0.0001509,0
3.484,-0.00020024,0
3.4846,-0.00024271,0
3.4851,-0.00027041,0
3.4856,-0.00024019,0
3.4861,-0.00013545,0
3.4866,-4.2298e-05,0
3.4872,-6.3783e-06,0
3.4877,1.8631e-05,0
3.4882,8.5603e-05,0
3.4887,0.00015962,0
3.4892,0.00018514,0
3.4897,0.00015677,0
3.4903,9.7856e-05,0
3.4908,5.0187e-05,0
3.4913,5.4887e-05,0
3.4918,0.00011464,0
3.4923,0.00018682,0
3.4929,0.00023986,0
3.4934,0.00026839,0
3.4939,0.00027427,0
3.4944,0.00025748,0
3.4949,0.00022408,0
3.4955,0.00018883,0
3.496,0.00016063,0
3.4965,0.00012538,0
3.497,7.2007e-05,0
3.4975,1.9303e-05,0
3.4981,-9.0639e-06,0
3.4986,7.5532e-06,0
3.4991,7.6875e-05,0
3.4996,0.00016097,0
3.5001,0.00020394,0
3.5007,0.00018883,0
3.5012,0.00014737,0
3.5017,0.00010726,0
3.5022,6.2608e-05,0
3.5027,-2.4506e-05,0
3.5032,-0.00017154,0
3.5038,-0.00032932,0
3.5043,-0.00037212,0
3.5048,-0.00024758,0
3.5053,-5.6733e-05,0
3.5058,5.7572e-05,0
3.5064,5.0858e-05,0
3.5069,1.5946e-05,0
3.5074,3.9445e-05,0
3.5079,8.2414e-05,0
3.5084,7.1e-05,0
3.509,1.1917e-05,0
3.5095,-2.2828e-05,0
3.51,1.8296e-05,0
3.5105,0.0001185,0
3.511,0.00021636,0
3.5116,0.00027645,0
3.5121,0.00030733,0
3.5126,0.00031052,0
3.5131,0.00027074,0
3.5136,0.00019168,0
3.5142,9.5674e-05,0
3.5147,5.7069e-06,0
3.5152,-7.5532e-05,0
3.5157,-0.00015795,0
3.5162,-0.00021938,0
3.5168,-0.00017221,0
3.5173,2.4002e-05,0
3.5178,0.0002318,0
3.5183,0.00029256,0
3.5188,0.00021401,0
3.5193,8.7449e-05,0
3.5199,-3.2898e-05,0
3.5204,-0.00012454,0
3.5209,-0.00017507,0
3.5214,-0.00018061,0
3.5219,-0.00016046,0
3.5225,-0.00013999,0
3.523,-0.00011833,0
3.5235,-8.3757e-05,0
3.524,-5.3544e-05,0
3.5245,-4.6494e-05,0
3.5251,-6.3447e-05,0
3.5256,-9.2821e-05,0
3.5261,-0.00011649,0
3.5266,-0.00012471,0
3.5271,-0.00012001,0
3.5277,-0.00010675,0
3.5282,-0.00010608,0
3.5287,-0.00012471,0
3.5292,-0.00011783,0
3.5297,-6.0761e-05,0
3.5303,1.8631e-05,0
3.5308,8.5603e-05,0
3.5313,0.0001321,0
3.5318,0.00015274,0
3.5323,0.00014083,0
3.5328,0.00010826,0
3.5334,7.9393e-05,0
3.5339,3.6423e-05,0
3.5344,-2.6352e-05,0
3.5349,-7.6036e-05,0
3.5354,-0.00010105,0
3.536,-0.00010759,0
3.5365,-0.0001044,0
3.537,-9.5506e-05,0
3.5375,-7.6036e-05,0
3.538,-4.448e-05,0
3.5386,-9.9031e-06,0
3.5391,1.2589e-05,0
3.5396,3.1388e-05,0
3.5401,5.8915e-05,0
3.5406,9.0806e-05,0
3.5412,0.00011867,0
3.5417,0.00011531,0
3.5422,4.1291e-05,0
3.5427,-6.009e-05,0
3.5432,-0.00010323,0
3.5438,-8.1743e-05,0
3.5443,-5.6901e-05,0
3.5448,-6.3279e-05,0
3.5453,-7.7379e-05,0
3.5458,-8.0232e-05,0
3.5463,-6.8818e-05,0
3.5469,-3.5752e-05,0
3.5474,1.9806e-05,0
3.5479,8.7785e-05,0
3.5484,0.00013747,0
3.5489,0.0001472,0
3.5495,0.00013411,0
3.55,0.00012538,0
3.5505,0.00010625,0
3.551,5.5894e-05,0
3.5515,5.539e-06,0
3.5521,-1.6281e-05,0
3.5526,-1.2589e-05,0
3.5531,8.3925e-06,0
3.5536,4.1794e-05,0
3.5541,7.6707e-05,0
3.5547,0.00010591,0
3.5552,0.00012438,0
3.5557,0.0001472,0
3.5562,0.00016332,0
3.5567,0.00013982,0
3.5572,0.0001039,0
3.5578,0.00011464,0
3.5583,0.00016667,0
3.5588,0.00019689,0
3.5593,0.00018564,0
3.5598,0.00015828,0
3.5604,0.00011095,0
3.5609,3.0716e-05,0
3.5614,-1.3931e-05,0
3.5619,7.5532e-06,0
3.5624,2.3499e-05,0
3.563,-9.7353e-06,0
3.5635,-3.357e-06,0
3.564,9.836e-05,0
3.5645,0.00021199,0
3.565,0.00027225,0
3.5656,0.00028215,0
3.5661,0.00023986,0
3.5666,0.00014351,0
3.5671,7.5532e-06,0
3.5676,-0.00013378,0
3.5682,-0.00026705,0
3.5687,-0.00036776,0
3.5692,-0.00035198,0
3.5697,-0.00021837,0
3.5702,-7.805e-05,0
3.5707,2.8367e-05,0
3.5713,0.00010927,0
3.5718,0.00015023,0
3.5723,0.00015879,0
3.5728,0.00014939,0
3.5733,0.00012068,0
3.5739,8.3589e-05,0
3.5744,5.623e-05,0
3.5749,4.3809e-05,0
3.5754,4.0116e-05,0
3.5759,3.6088e-05,0
3.5765,2.887e-05,0
3.577,2.3331e-05,0
3.5775,2.1317e-05,0
3.578,1.2421e-05,0
3.5785,-5.7069e-06,0
3.5791,-2.0645e-05,0
3.5796,-2.1317e-05,0
3.5801,-9.9031e-06,0
3.5806,2.5177e-06,0
3.5811,4.5319e-06,0
3.5817,-6.3783e-06,0
3.5822,-2.5681e-05,0
3.5827,-2.9038e-05,0
3.5832,-6.5461e-06,0
3.5837,1.7624e-05,0
3.5842,3.3738e-05,0
3.5848,4.6159e-05,0
3.5853,6.3951e-05,0
3.5858,0.00010491,0
3.5863,0.00018044,0
3.5868,0.00026101,0
3.5874,0.00030414,0
3.5879,0.00030532,0
3.5884,0.00028417,0
3.5889,0.00023398,0
3.5894,0.00012404,0
3.59,-5.4719e-05,0
3.5905,-0.00023281,0
3.591,-0.00031824,0
3.5915,-0.00030901,0
3.592,-0.000307,0
3.5926,-0.00036239,0
3.5931,-0.00042768,0
3.5936,-0.00045504,0
3.5941,-0.00042969,0
3.5946,-0.00035114,0
3.5952,-0.00025345,0
3.5957,-0.00019219,0
3.5962,-0.00016584,0
3.5967,-0.00015123,0
3.5972,-0.00014922,0
3.5978,-0.00011279,0
3.5983,-2.6017e-05,0
3.5988,4.062e-05,0
3.5993,7.0329e-05,0
3.5998,0.00011363,0
3.6003,0.000166,0
3.6009,0.0001895,0
3.6014,0.00017943,0
3.6019,0.00015929,0
3.6024,0.00015476,0
3.6029,0.00016432,0
3.6035,0.000165,0
3.604,0.00014754,0
3.6045,0.0001133,0
3.605,7.6371e-05,0
3.6055,5.4047e-05,0
3.6061,2.3499e-05,0
3.6066,-1.4603e-05,0
3.6071,-1.0239e-05,0
3.6076,2.8367e-05,0
3.6081,5.7908e-05,0
3.6087,5.9922e-05,0
3.6092,3.8102e-05,0
3.6097,1.3931e-05,0
3.6102,8.3925e-07,0
3.6107,-1.5106e-05,0
3.6113,-2.266e-05,0
3.6118,1.6281e-05,0
3.6123,9.1142e-05,0
3.6128,0.00013243,0
3.6133,0.0001185,0
3.6138,0.00010105,0
3.6144,0.00010407,0
3.6149,0.00010658,0
3.6154,9.601e-05,0
3.6159,5.4383e-05,0
3.6164,-1.091e-05,0
3.617,-6.3783e-05,0
3.6175,-5.0355e-05,0
3.618,6.0258e-05,0
3.6185,0.00021401,0
3.619,0.00030582,0
3.6196,0.00029592,0
3.6201,0.00023281,0
3.6206,0.00016466,0
3.6211,0.00010927,0
3.6216,7.1504e-05,0
3.6222,4.9012e-05,0
3.6227,2.6688e-05,0
3.6232,-8.896e-06,0
3.6237,-4.3977e-05,0
3.6242,-5.3376e-05,0
3.6248,-1.7624e-05,0
3.6253,2.9709e-05,0
3.6258,4.2802e-05,0
3.6263,2.7192e-05,0
3.6268,6.8818e-06,0
3.6273,-1.8631e-05,0
3.6279,-3.1388e-05,0
3.6284,-2.0478e-05,0
3.6289,-2.0645e-05,0
3.6294,-4.5823e-05,0
3.6299,-5.3376e-05,0
3.6305,-1.2253e-05,0
3.631,6.9657e-05,0
3.6315,0.00014821,0
3.632,0.00018766,0
3.6325,0.0002031,0
3.6331,0.00022643,0
3.6336,0.00024154,0
3.6341,0.00022005,0
3.6346,0.00015459,0
3.6351,4.1123e-05,0
3.6357,-8.5267e-05,0
3.6362,-0.00015291,0
3.6367,-0.0001556,0
3.6372,-0.00011447,0
3.6377,-3.5752e-05,0
3.6383,5.4215e-05,0
3.6388,0.00013277,0
3.6393,0.00015627,0
3.6398,0.00010088,0
3.6403,5.539e-06,0
3.6408,-8.0735e-05,0
3.6414,-0.00013613,0
3.6419,-0.00016584,0
3.6424,-0.00017339,0
3.6429,-0.0001613,0
3.6434,-0.00013344,0
3.644,-9.131e-05,0
3.6445,-3.0381e-05,0
3.645,4.5487e-05,0
3.6455,0.00010692,0
3.646,0.00010574,0
3.6466,3.5416e-05,0
3.6471,-8.2078e-05,0
3.6476,-0.00021501,0
3.6481,-0.00027477,0
3.6486,-0.00022945,0
3.6492,-0.00014267,0
3.6497,-5.8915e-05,0
3.6502,2.3499e-06,0
3.6507,2.4002e-05,0
3.6512,8.5603e-06,0
3.6517,-2.6184e-05,0
3.6523,-5.6565e-05,0
3.6528,-6.4286e-05,0
3.6533,-3.3234e-05,0
3.6538,3.0549e-05,0
3.6543,7.5029e-05,0
3.6549,8.0232e-05,0
3.6554,6.2943e-05,0
3.6559,3.5416e-05,0
3.6564,9.2317e-06,0
3.6569,-1.6785e-07,0
3.6575,4.8676e-06,0
3.658,7.5532e-06,0
3.6585,2.1149e-05,0
3.659,4.918e-05,0
3.6595,6.2104e-05,0
3.6601,5.4215e-05,0
3.6606,5.6901e-05,0
3.6611,8.8121e-05,0
3.6616,0.00012035,0
3.6621,0.0001274,0
3.6627,0.00010491,0
3.6632,5.6733e-05,0
3.6637,1.8463e-06,0
3.6642,-4.3809e-05,0
3.6647,-9.6513e-05,0
3.6652,-0.00019168,0
3.6658,-0.00029474,0
3.6663,-0.00029776,0
3.6668,-0.00016953,0
3.6673,-2.0981e-05,0
3.6678,3.6088e-05,0
3.6684,3.5248e-06,0
3.6689,-5.4887e-05,0
3.6694,-7.0665e-05,0
3.6699,5.0355e-07,0
3.6704,0.00015291,0
3.671,0.00031673,0
3.6715,0.00040737,0
3.672,0.00039998,0
3.6725,0.00033117,0
3.673,0.00025328,0
3.6736,0.00019789,0
3.6741,0.000165,0
3.6746,0.00014536,0
3.6751,0.00012236,0
3.6756,9.1142e-05,0
3.6762,6.865e-05,0
3.6767,5.8579e-05,0
3.6772,5.6062e-05,0
3.6777,5.623e-05,0
3.6782,5.2201e-05,0
3.6787,3.9277e-05,0
3.6793,1.8967e-05,0
3.6798,1.1917e-05,0
3.6803,2.7359e-05,0
3.6808,4.5487e-05,0
3.6813,5.5222e-05,0
3.6819,6.4958e-05,0
3.6824,8.6778e-05,0
3.6829,0.00012136,0
3.6834,0.0001566,0
3.6839,0.00017406,0
3.6845,0.00016701,0
3.685,0.00014603,0
3.6855,0.00012018,0
3.686,9.0806e-05,0
3.6865,6.0594e-05,0
3.6871,2.7024e-05,0
3.6876,-2.7024e-05,0
3.6881,-9.131e-05,0
3.6886,-0.00011363,0
3.6891,-9.3828e-05,0
3.6897,-8.2414e-05,0
3.6902,-9.1981e-05,0
3.6907,-9.752e-05,0
3.6912,-0.00010088,0
3.6917,-0.00013176,0
3.6923,-0.00019185,0
3.6928,-0.00023902,0
3.6933,-0.00024607,0
3.6938,-0.00022676,0
3.6943,-0.00019269,0
3.6948,-0.00014049,0
3.6954,-8.6778e-05,0
3.6959,-4.8005e-05,0
3.6964,-2.5345e-05,0
3.6969,-1.6953e-05,0
3.6974,-2.7695e-05,0
3.698,-6.4118e-05,0
3.6985,-0.00012505,0
3.699,-0.00017188,0
3.6995,-0.00015425,0
3.7,-7.8889e-05,0
3.7006,-2.2324e-05,0
3.7011,-1.8128e-05,0
3.7016,1.0407e-05,0
3.7021,9.4331e-05,0
3.7026,0.00016902,0
3.7032,0.00019252,0
3.7037,0.0001754,0
3.7042,0.0001509,0
3.7047,0.00013243,0
3.7052,0.00011514,0
3.7058,0.0001039,0
3.7063,9.987e-05,0
3.7068,8.8289e-05,0
3.7073,6.5965e-05,0
3.7078,4.2466e-05,0
3.7083,3.1052e-05,0
3.7089,3.2731e-05,0
3.7094,4.0116e-05,0
3.7099,5.0858e-05,0
3.7104,6.009e-05,0
3.7109,6.5797e-05,0
3.7115,7.2007e-05,0
3.712,7.4525e-05,0
3.7125,8.0064e-05,0
3.713,0.00010105,0
3.7135,0.00011766,0
3.7141,0.00011112,0
3.7146,8.7785e-05,0
3.7151,5.3208e-05,0
3.7156,7.5532e-06,0
3.7161,-3.7095e-05,0
3.7167,-6.6636e-05,0
3.7172,-6.5293e-05,0
3.7177,-2.7024e-05,0
3.7182,3.9445e-05,0
3.7187,0.00010155,0
3.7193,0.00012975,0
3.7198,0.00011598,0
3.7203,7.7546e-05,0
3.7208,4.8173e-05,0
3.7213,5.388e-05,0
3.7218,8.2414e-05,0
3.7224,9.2485e-05,0
3.7229,6.5965e-05,0
3.7234,2.2324e-05,0
3.7239,-1.1078e-05,0
3.7244,-1.6281e-05,0
3.725,-4.1962e-06,0
3.7255,-4.3641e-06,0
3.726,-1.8296e-05,0
3.7265,-1.4435e-05,0
3.727,9.9031e-06,0
3.7276,3.2731e-05,0
3.7281,3.2563e-05,0
3.7286,3.0213e-06,0
3.7291,-3.6591e-05,0
3.7296,-6.4622e-05,0
3.7302,-9.3828e-05,0
3.7307,-0.00013982,0
3.7312,-0.00016953,0
3.7317,-0.00015056,0
3.7322,-9.3492e-05,0
3.7327,-2.2995e-05,0
3.7333,4.6662e-05,0
3.7338,0.00010188,0
3.7343,0.000118,0
3.7348,9.1142e-05,0
3.7353,5.3544e-05,0
3.7359,3.9948e-05,0
3.7364,5.3712e-05,0
3.7369,6.63e-05,0
3.7374,6.2776e-05,0
3.7379,5.7404e-05,0
3.7385,6.1936e-05,0
3.739,6.3951e-05,0
3.7395,5.0523e-05,0
3.74,2.4674e-05,0
3.7405,5.8747e-06,0
3.7411,1.1749e-06,0
3.7416,5.7069e-06,0
3.7421,1.3596e-05,0
3.7426,7.2175e-06,0
3.7431,6.8818e-06,0
3.7437,4.5487e-05,0
3.7442,9.3156e-05,0
3.7447,0.00010524,0
3.7452,7.0832e-05,0
3.7457,1.8296e-05,0
3.7462,-4.7501e-05,0
3.7468,-0.00014452,0
3.7473,-0.00022979,0
3.7478,-0.00022643,0
3.7483,-0.00014939,0
3.7488,-7.1504e-05,0
3.7494,-5.0355e-06,0
3.7499,6.2272e-05,0
3.7504,0.00011162,0
3.7509,0.00012236,0
3.7514,9.8527e-05,0
3.752,6.9657e-05,0
3.7525,5.7237e-05,0
3.753,5.8747e-05,0
3.7535,6.6636e-05,0
3.754,7.3686e-05,0
3.7546,7.6707e-05,0
3.7551,7.7379e-05,0
3.7556,7.57e-05,0
3.7561,6.6972e-05,0
3.7566,5.6062e-05,0
3.7572,4.8173e-05,0
3.7577,4.2802e-05,0
3.7582,3.7934e-05,0
3.7587,3.1724e-05,0
3.7592,2.7359e-05,0
3.7597,2.8534e-05,0
3.7603,3.1388e-05,0
3.7608,3.2059e-05,0
3.7613,2.8702e-05,0
3.7618,2.4002e-05,0
3.7623,2.9374e-05,0
3.7629,4.448e-05,0
3.7634,4.7501e-05,0
3.7639,2.4002e-05,0
3.7644,-3.5248e-06,0
3.7649,-3.357e-06,0
3.7655,3.0549e-05,0
3.766,9.7688e-05,0
3.7665,0.00017238,0
3.767,0.00023029,0
3.7675,0.00025563,0
3.7681,0.00024691,0
3.7686,0.00021787,0
3.7691,0.00017423,0
3.7696,0.0001133,0
3.7701,4.2466e-05,0
3.7707,-1.7624e-05,0
3.7712,-5.2201e-05,0
3.7717,-8.5603e-05,0
3.7722,-0.00014066,0
3.7727,-0.00020175,0
3.7732,-0.00024372,0
3.7738,-0.00026151,0
3.7743,-0.00027276,0
3.7748,-0.00028988,0
3.7753,-0.00031321,0
3.7758,-0.00034191,0
3.7764,-0.00034627,0
3.7769,-0.00027863,0
3.7774,-0.00014217,0
3.7779,3.7934e-05,0
3.7784,0.00023079,0
3.779,0.00037011,0
3.7795,0.00040771,0
3.78,0.0003602,0
3.7805,0.00026285,0
3.781,0.00014687,0
3.7816,3.8773e-05,0
3.7821,-3.2395e-05,0
3.7826,-6.63e-05,0
3.7831,-8.9967e-05,0
3.7836,-0.00012169,0
3.7842,-0.00017876,0
3.7847,-0.00026235,0
3.7852,-0.00030884,0
3.7857,-0.00025698,0
3.7862,-0.00015644,0
3.7868,-7.1336e-05,0
3.7873,3.0716e-05,0
3.7878,0.0001514,0
3.7883,0.00022593,0
3.7888,0.00022274,0
3.7893,0.00018077,0
3.7899,0.00015879,0
3.7904,0.00017154,0
3.7909,0.00019319,0
3.7914,0.00020696,0
3.7919,0.00021199,0
3.7925,0.00020645,0
3.793,0.00018715,0
3.7935,0.00014284,0
3.794,5.5222e-05,0
3.7945,-4.0116e-05,0
3.7951,-5.9754e-05,0
3.7956,-3.8605e-06,0
3.7961,5.0858e-05,0
3.7966,4.7501e-05,0
3.7971,-2.8534e-06,0
3.7977,-4.5823e-05,0
3.7982,-3.8437e-05,0
3.7987,6.2104e-06,0
3.7992,4.3473e-05,0
3.7997,4.4648e-05,0
3.8003,2.4674e-05,0
3.8008,1.0407e-05,0
3.8013,1.1582e-05,0
3.8018,2.2492e-05,0
3.8023,4.1291e-05,0
3.8028,5.3376e-05,0
3.8034,5.0019e-05,0
3.8039,4.7333e-05,0
3.8044,5.4887e-05,0
3.8049,7.1e-05,0
3.8054,8.8457e-05,0
3.806,9.5506e-05,0
3.8065,9.6178e-05,0
3.807,0.00010188,0
3.8075,0.00010457,0
3.808,8.8792e-05,0
3.8086,5.8244e-05,0
3.8091,1.091e-05,0
3.8096,-6.2776e-05,0
3.8101,-0.00012438,0
3.8106,-9.9535e-05,0
3.8112,-4.8676e-06,0
3.8117,7.8386e-05,0
3.8122,0.00013613,0
3.8127,0.00018195,0
3.8132,0.0002036,0
3.8138,0.00019219,0
3.8143,0.00016483,0
3.8148,0.00013478,0
3.8153,0.00010776,0
3.8158,7.9393e-05,0
3.8163,4.3809e-05,0
3.8169,5.0355e-07,0
3.8174,-4.6159e-05,0
3.8179,-9.9367e-05,0
3.8184,-0.00015442,0
3.8189,-0.00017893,0
3.8195,-0.00015962,0
3.82,-0.00013915,0
3.8205,-0.00015459,0
3.821,-0.00019588,0
3.8215,-0.0002412,0
3.8221,-0.00027712,0
3.8226,-0.00027443,0
3.8231,-0.00020343,0
3.8236,-5.9586e-05,0
3.8241,0.00011934,0
3.8247,0.00024422,0
3.8252,0.00027745,0
3.8257,0.00026017,0
3.8262,0.00022811,0
3.8267,0.000189,0
3.8272,0.00014888,0
3.8278,0.00010793,0
3.8283,4.8173e-05,0
3.8288,-3.3738e-05,0
3.8293,-0.00010021,0
3.8298,-0.00011498,0
3.8304,-9.5171e-05,0
3.8309,-8.426e-05,0
3.8314,-9.6345e-05,0
3.8319,-0.00011044,0
3.8324,-0.00010776,0
3.833,-0.00010155,0
3.8335,-0.0001237,0
3.834,-0.00016953,0
3.8345,-0.00017842,0
3.835,-0.00011196,0
3.8356,-2.9374e-05,0
3.8361,1.1917e-05,0
3.8366,2.266e-05,0
3.8371,3.2059e-05,0
3.8376,4.8005e-05,0
3.8382,5.4887e-05,0
3.8387,4.0787e-05,0
3.8392,2.5345e-05,0
3.8397,2.7695e-05,0
3.8402,2.8031e-05,0
3.8407,-1.5106e-06,0
3.8413,-6.2272e-05,0
3.8418,-0.00011867,0
3.8423,-0.00011615,0
3.8428,-5.6733e-05,0
3.8433,-2.0645e-05,0
3.8439,-4.7166e-05,0
3.8444,-8.2078e-05,0
3.8449,-4.0452e-05,0
3.8454,0.00010188,0
3.8459,0.00027544,0
3.8465,0.00038756,0
3.847,0.00039528,0
3.8475,0.00033083,0
3.848,0.00025127,0
3.8485,0.0001801,0
3.8491,0.0001321,0
3.8496,0.00012454,0
3.8501,0.00014083,0
3.8506,0.00014754,0
3.8511,0.00013545,0
3.8517,0.00011196,0
3.8522,8.6778e-05,0
3.8527,7.0832e-05,0
3.8532,6.7308e-05,0
3.8537,6.865e-05,0
3.8542,6.2943e-05,0
3.8548,4.4144e-05,0
3.8553,1.8631e-05,0
3.8558,6.2104e-06,0
3.8563,1.2253e-05,0
3.8568,2.5345e-05,0
3.8574,2.7695e-05,0
3.8579,3.1388e-05,0
3.8584,5.9922e-05,0
3.8589,0.00011078,0
3.8594,0.00016902,0
3.86,0.00019722,0
3.8605,0.00018077,0
3.861,0.00015224,0
3.8615,0.00013109,0
3.862,0.0001044,0
3.8626,6.3615e-05,0
3.8631,1.1582e-05,0
3.8636,-3.6759e-05,0
3.8641,-7.8889e-05,0
3.8646,-0.00011884,0
3.8652,-0.0001707,0
3.8657,-0.00021501,0
3.8662,-0.00021921,0
3.8667,-0.00020142,0
3.8672,-0.00021468,0
3.8678,-0.00025261,0
3.8683,-0.0002323,0
3.8688,-0.00012572,0
3.8693,3.357e-06,0
3.8698,8.6107e-05,0
3.8703,9.6849e-05,0
3.8709,5.6733e-05,0
3.8714,-2.5177e-06,0
3.8719,-5.5726e-05,0
3.8724,-9.2485e-05,0
3.8729,-0.00014234,0
3.8735,-0.00022324,0
3.874,-0.00028098,0
3.8745,-0.00025798,0
3.875,-0.00015459,0
3.8755,-1.9135e-05,0
3.8761,7.7546e-05,0
3.8766,0.00010423,0
3.8771,9.5003e-05,0
3.8776,9.1142e-05,0
3.8781,9.2821e-05,0
3.8787,9.1478e-05,0
3.8792,9.752e-05,0
3.8797,0.00012136,0
3.8802,0.00015593,0
3.8807,0.00017607,0
3.8813,0.00018732,0
3.8818,0.00023163,0
3.8823,0.00031405,0
3.8828,0.00038824,0
3.8833,0.00040116,0
3.8838,0.00033637,0
3.8844,0.00021015,0
3.8849,5.9922e-05,0
3.8854,-5.388e-05,0
3.8859,-0.00010423,0
3.8864,-0.00011598,0
3.887,-0.00011296,0
3.8875,-0.00010675,0
3.888,-0.0001331,0
3.8885,-0.00020293,0
3.889,-0.00025463,0
3.8896,-0.00024775,0
3.8901,-0.00021267,0
3.8906,-0.00018514,0
3.8911,-0.00015828,0
3.8916,-0.00011498,0
3.8922,-8.6107e-05,0
3.8927,-9.8863e-05,0
3.8932,-0.00011833,0
3.8937,-9.0639e-05,0
3.8942,-1.4939e-05,0
3.8948,7.4357e-05,0
3.8953,0.00013545,0
3.8958,0.00015023,0
3.8963,0.00013008,0
3.8968,0.00010088,0
3.8973,8.3589e-05,0
3.8979,8.3757e-05,0
3.8984,9.1478e-05,0
3.8989,8.3757e-05,0
3.8994,5.5222e-05,0
3.8999,3.6088e-05,0
3.9005,3.4745e-05,0
3.901,3.7263e-05,0
3.9015,3.4745e-05,0
3.902,3.6591e-05,0
3.9025,4.7837e-05,0
3.9031,4.7669e-05,0
3.9036,1.8631e-05,0
3.9041,-1.4939e-05,0
3.9046,-1.8967e-05,0
3.9051,1.5946e-05,0
3.9057,6.1601e-05,0
3.9062,8.5435e-05,0
3.9067,8.4764e-05,0
3.9072,7.6204e-05,0
3.9077,7.1e-05,0
3.9082,7.3686e-05,0
3.9088,7.6371e-05,0
3.9093,5.9251e-05,0
3.9098,2.5513e-05,0
3.9103,1.326e-05,0
3.9108,3.2395e-05,0
3.9114,5.1194e-05,0
3.9119,4.0787e-05,0
3.9124,7.7211e-06,0
3.9129,-2.4674e-05,0
3.9134,-5.1026e-05,0
3.914,-6.2776e-05,0
3.9145,-3.6255e-05,0
3.915,1.5106e-05,0
3.9155,5.7572e-05,0
3.916,0.00010994,0
3.9166,0.00017708,0
3.9171,0.00019487,0
3.9176,0.00014083,0
3.9181,9.6849e-05,0
3.9186,0.00011128,0
3.9192,0.00013562,0
3.9197,0.00012824,0
3.9202,0.00010256,0
3.9207,6.7979e-05,0
3.9212,2.6352e-05,0
3.9217,7.8889e-06,0
3.9223,2.266e-05,0
3.9228,4.0452e-05,0
3.9233,4.0452e-05,0
3.9238,2.6017e-05,0
3.9243,8.2246e-06,0
3.9249,-1.091e-05,0
3.9254,-2.501e-05,0
3.9259,-1.0575e-05,0
3.9264,4.0452e-05,0
3.9269,9.1814e-05,0
3.9275,0.00010658,0
3.928,9.0471e-05,0
3.9285,5.4719e-05,0
3.929,-4.1962e-06,0
3.9295,-7.0832e-05,0
3.9301,-0.00013143,0
3.9306,-0.00017624,0
3.9311,-0.00017792,0
3.9316,-0.00010138,0
3.9321,1.9471e-05,0
3.9327,0.00011263,0
3.9332,0.00013747,0
3.9337,9.9199e-05,0
3.9342,2.4674e-05,0
3.9347,-5.9586e-05,0
3.9352,-0.00013562,0
3.9358,-0.00015006,0
3.9363,-7.7043e-05,0
3.9368,3.3234e-05,0
3.9373,0.00013344,0
3.9378,0.00021669,0
3.9384,0.00027175,0
3.9389,0.00027779,0
3.9394,0.00021988,0
3.9399,0.000118,0
3.9404,2.4002e-05,0
3.941,-4.2634e-05,0
3.9415,-0.00010105,0
3.942,-0.00016181,0
3.9425,-0.00020897,0
3.943,-0.00020981,0
3.9436,-0.00015543,0
3.9441,-9.7856e-05,0
3.9446,-6.7643e-05,0
3.9451,-6.2272e-05,0
3.9456,-6.949e-05,0
3.9462,-8.04e-05,0
3.9467,-8.9128e-05,0
3.9472,-7.9728e-05,0
3.9477,-6.7308e-05,0
3.9482,-5.2537e-05,0
3.9487,-2.0981e-05,0
3.9493,1.7792e-05,0
3.9498,5.539e-05,0
3.9503,0.0001039,0
3.9508,0.00016349,0
3.9513,0.00020528,0
3.9519,0.00021166,0
3.9524,0.00021468,0
3.9529,0.00023029,0
3.9534,0.00023851,0
3.9539,0.00020797,0
3.9545,0.00012169,0
3.955,-6.8818e-06,0
3.9555,-0.00013613,0
3.956,-0.00024926,0
3.9565,-0.00032647,0
3.9571,-0.00033402,0
3.9576,-0.00027729,0
3.9581,-0.00020108,0
3.9586,-0.0001373,0
3.9591,-9.2988e-05,0
3.9597,-7.0665e-05,0
3.9602,-6.0594e-05,0
3.9607,-3.6423e-05,0
3.9612,7.7211e-06,0
3.9617,3.7934e-05,0
3.9623,2.4674e-05,0
3.9628,-2.0142e-05,0
3.9633,-5.388e-05,0
3.9638,-2.8031e-05,0
3.9643,5.5894e-05,0
3.9648,0.0001368,0
3.9654,0.00016802,0
3.9659,0.00015627,0
3.9664,0.00013747,0
3.9669,0.00012992,0
3.9674,0.00013478,0
3.968,0.00013848,0
3.9685,0.00012253,0
3.969,9.1142e-05,0
3.9695,7.57e-05,0
3.97,8.661e-05,0
3.9706,0.00010407,0
3.9711,0.00010172,0
3.9716,8.1743e-05,0
3.9721,5.9922e-05,0
3.9726,4.2634e-05,0
3.9732,3.743e-05,0
3.9737,3.3738e-05,0
3.9742,2.1317e-05,0
3.9747,8.0568e-06,0
3.9752,-8.3925e-07,0
3.9758,-1.8631e-05,0
3.9763,-6.0594e-05,0
3.9768,-0.00012992,0
3.9773,-0.00026503,0
3.9778,-0.00042953,0
3.9783,-0.00040754,0
3.9789,-0.00011632,0
3.9794,0.00020713,0
3.9799,0.00034896,0
3.9804,0.00034157,0
3.9809,0.00027578,0
3.9815,0.00020478,0
3.982,0.00016902,0
3.9825,0.000166,0
3.983,0.00015677,0
3.9835,0.0001086,0
3.9841,1.7456e-05,0
3.9846,-6.8315e-05,0
3.9851,-7.4357e-05,0
3.9856,3.5248e-06,0
3.9861,9.5506e-05,0
3.9867,0.00014418,0
3.9872,0.00013881,0
3.9877,0.00010054,0
3.9882,6.1936e-05,0
3.9887,3.0884e-05,0
3.9893,1.7624e-05,0
3.9898,2.5345e-05,0
3.9903,3.3738e-05,0
3.9908,1.7288e-05,0
3.9913,-1.4771e-05,0
3.9918,-2.4338e-05,0
3.9924,4.0284e-06,0
3.9929,6.4118e-05,0
3.9934,0.00012975,0
3.9939,0.00016835,0
3.9944,0.00016214,0
3.995,0.00011464,0
3.9955,4.5823e-05,0
3.996,-6.2104e-06,0
3.9965,-6.5461e-06,0
3.997,3.508e-05,0
3.9976,7.3014e-05,0
3.9981,8.3085e-05,0
3.9986,8.9128e-05,0
3.9991,0.00011867,0
3.9996,0.00015442,0
4.0002,0.0001556,0
4.0007,0.00012001,0
4.0012,7.7546e-05,0
4.0017,3.9445e-05,0
4.0022,-4.5319e-06,0
4.0027,-6.865e-05,0
4.0033,-0.00015459,0
4.0038,-0.0002365,0
4.0043,-0.00026923,0
4.0048,-0.00024053,0
4.0053,-0.00017591,0
4.0059,-0.00010927,0
4.0064,-7.0832e-05,0
4.0069,-6.6972e-05,0
4.0074,-8.2918e-05,0
4.0079,-0.00011162,0
4.0085,-0.0001274,0
4.009,-9.366e-05,0
4.0095,-3.7766e-05,0
4.01,0,0
4.0105,1.3596e-05,0
4.0111,1.4099e-05,0
4.0116,1.6449e-05,0
4.0121,3.4745e-05,0
4.0126,7.3686e-05,0
4.0131,0.00014217,0
4.0137,0.00022341,0
4.0142,0.00026671,0
4.0147,0.00026117,0
4.0152,0.00023415,0
4.0157,0.00021132,0
4.0163,0.00019387,0
4.0168,0.00016567,0
4.0173,0.00012538,0
4.0178,8.2078e-05,0
4.0183,4.0955e-05,0
4.0188,-1.091e-05,0
4.0194,-7.6875e-05,0
4.0199,-0.0001331,0
4.0204,-0.00016802,0
4.0209,-0.0001942,0
4.0214,-0.00022324,0
4.022,-0.00024993,0
4.0225,-0.00026101,0
4.023,-0.00024976,0
4.0235,-0.0002172,0
4.024,-0.00017389,0
4.0246,-0.00014485,0
4.0251,-0.00015744,0
4.0256,-0.00018665,0
4.0261,-0.00018094,0
4.0266,-0.00013361,0
4.0272,-8.6107e-05,0
4.0277,-6.244e-05,0
4.0282,-4.5487e-05,0
4.0287,-8.7282e-06,0
4.0292,4.9012e-05,0
4.0297,0.00011431,0
4.0303,0.00018984,0
4.0308,0.00027578,0
4.0313,0.00035366,0
4.0318,0.00040368,0
4.0323,0.0004161,0
4.0329,0.00039797,0
4.0334,0.00034946,0
4.0339,0.00025731,0
4.0344,0.00011867,0
4.0349,-3.8773e-05,0
4.0355,-0.00011246,0
4.036,-5.8747e-05,0
4.0365,3.0213e-06,0
4.037,-2.9374e-05,0
4.0375,-9.8192e-05,0
4.0381,-0.00014855,0
4.0386,-0.00019622,0
4.0391,-0.00025563,0
4.0396,-0.0003456,0
4.0401,-0.00044715,0
4.0407,-0.00045689,0
4.0412,-0.00032126,0
4.0417,-0.0001039,0
4.0422,0.00010726,0
4.0427,0.00024657,0
4.0432,0.00028988,0
4.0438,0.00026839,0
4.0443,0.00022777,0
4.0448,0.00019051,0
4.0453,0.00016097,0
4.0458,0.00013948,0
4.0464,0.00012505,0
4.0469,0.0001091,0
4.0474,9.836e-05,0
4.0479,9.9199e-05,0
4.0484,0.00010188,0
4.049,8.9464e-05,0
4.0495,6.6636e-05,0
4.05,4.213e-05,0
4.0505,1.2253e-05,0
4.051,8.896e-06,0
4.0516,6.244e-05,0
4.0521,0.00013394,0
4.0526,0.00017507,0
4.0531,0.00017406,0
4.0536,0.00014519,0
4.0542,0.00011162,0
4.0547,0.0001034,0
4.0552,0.00010726,0
4.0557,7.6539e-05,0
4.0562,1.6785e-05,0
4.0568,-1.0239e-05,0
4.0573,2.7863e-05,0
4.0578,9.0471e-05,0
4.0583,0.00010574,0
4.0588,5.9419e-05,0
4.0593,1.1582e-05,0
4.0599,2.5177e-06,0
4.0604,1.796e-05,0
4.0609,3.743e-05,0
4.0614,5.7237e-05,0
4.0619,6.4286e-05,0
4.0625,5.1865e-05,0
4.063,3.6423e-05,0
4.0635,1.7288e-05,0
4.064,-1.326e-05,0
4.0645,-4.7333e-05,0
4.0651,-6.1433e-05,0
4.0656,-4.4144e-05,0
4.0661,-1.0742e-05,0
4.0666,1.3596e-05,0
4.0671,1.9303e-05,0
4.0677,5.2033e-06,0
4.0682,-2.5177e-05,0
4.0687,-3.1388e-05,0
4.0692,2.8367e-05,0
4.0697,0.00012454,0
4.0702,0.00020024,0
4.0708,0.00024019,0
4.0713,0.00024724,0
4.0718,0.00023079,0
4.0723,0.00020763,0
4.0728,0.00017624,0
4.0734,0.0001279,0
4.0739,8.7785e-05,0
4.0744,6.63e-05,0
4.0749,3.3738e-05,0
4.0754,-3.122e-05,0
4.076,-0.00010927,0
4.0765,-0.00016449,0
4.077,-0.00018732,0
4.0775,-0.00019857,0
4.078,-0.00021233,0
4.0786,-0.00022609,0
4.0791,-0.0002276,0
4.0796,-0.00019907,0
4.0801,-0.00014485,0
4.0806,-8.3421e-05,0
4.0812,-3.5416e-05,0
4.0817,-1.6953e-05,0
4.0822,-8.2246e-06,0
4.0827,3.0549e-05,0
4.0832,9.9199e-05,0
4.0838,0.00015392,0
4.0843,0.000165,0
4.0848,0.00012723,0
4.0853,5.3544e-05,0
4.0858,-2.2492e-05,0
4.0863,-5.9586e-05,0
4.0869,-4.8676e-05,0
4.0874,-3.3234e-05,0
4.0879,-6.6804e-05,0
4.0884,-0.00014855,0
4.0889,-0.00023868,0
4.0895,-0.00030129,0
4.09,-0.00032747,0
4.0905,-0.00032227,0
4.091,-0.00029021,0
4.0915,-0.0002318,0
4.0921,-0.00016667,0
4.0926,-0.00012052,0
4.0931,-9.6345e-05,0
4.0936,-8.1743e-05,0
4.0941,-6.2776e-05,0
4.0947,-3.9109e-05,0
4.0952,-1.0407e-05,0
4.0957,1.4603e-05,0
4.0962,5.388e-05,0
4.0967,0.00011666,0
4.0972,0.00017339,0
4.0978,0.00019823,0
4.0983,0.00018581,0
4.0988,0.00014855,0
4.0993,0.00011363,0
4.0998,9.7185e-05,0
4.1004,0.00010726,0
4.1009,0.00014955,0
4.1014,0.00018782,0
4.1019,0.00019655,0
4.1024,0.00020612,0
4.103,0.00022005,0
4.1035,0.0001895,0
4.104,0.00011766,0
4.1045,8.9296e-05,0
4.105,0.00013596,0
4.1056,0.00016164,0
4.1061,7.9057e-05,0
4.1066,-4.8341e-05,0
4.1071,-7.9393e-05,0
4.1076,-1.7121e-05,0
4.1082,-7.5532e-06,0
4.1087,-0.00012773,0
4.1092,-0.0002365,0
4.1097,-0.00014972,0
4.1102,8.0064e-05,0
4.1108,0.00025765,0
4.1113,0.00028585,0
4.1118,0.0002224,0
4.1123,0.00017708,0
4.1128,0.00018883,0
4.1133,0.0002031,0
4.1139,0.00017708,0
4.1144,0.00012908,0
4.1149,8.9799e-05,0
4.1154,6.2608e-05,0
4.1159,4.7837e-05,0
4.1165,4.7837e-05,0
4.117,5.623e-05,0
4.1175,5.1194e-05,0
4.118,2.7024e-05,0
4.1185,5.8747e-06,0
4.1191,4.5319e-06,0
4.1196,2.6856e-06,0
4.1201,-2.2324e-05,0
4.1206,-5.0019e-05,0
4.1211,-4.3137e-05,0
4.1217,-1.8631e-05,0
4.1222,-1.8799e-05,0
4.1227,-4.5319e-05,0
4.1232,-9.4331e-05,0
4.1237,-0.00014083,0
4.1242,-0.00012538,0
4.1248,-3.3066e-05,0
4.1253,9.2485e-05,0
4.1258,0.00020864,0
4.1263,0.0002741,0
4.1268,0.00027645,0
4.1274,0.00024237,0
4.1279,0.00019454,0
4.1284,0.0001368,0
4.1289,9.4331e-05,0
4.1294,0.00010239,0
4.13,0.00015828,0
4.1305,0.00020964,0
4.131,0.00022005,0
4.1315,0.00019857,0
4.132,0.00016197,0
4.1326,0.00010944,0
4.1331,5.3544e-05,0
4.1336,1.0407e-05,0
4.1341,-4.2634e-05,0
4.1346,-0.0001237,0
4.1352,-0.00021132,0
4.1357,-0.00029055,0
4.1362,-0.00036121,0
4.1367,-0.00041509,0
4.1372,-0.00044866,0
4.1377,-0.00045118,0
4.1383,-0.00040804,0
4.1388,-0.00031002,0
4.1393,-0.00015425,0
4.1398,1.4939e-05,0
4.1403,0.00014435,0
4.1409,0.00021233,0
4.1414,0.00022005,0
4.1419,0.00018111,0
4.1424,0.00013294,0
4.1429,0.000118,0
4.1435,0.00013545,0
4.144,0.00015476,0
4.1445,0.00016097,0
4.145,0.00015492,0
4.1455,0.00013059,0
4.1461,7.7714e-05,0
4.1466,0,0
4.1471,-7.0497e-05,0
4.1476,-0.0001133,0
4.1481,-0.00013948,0
4.1487,-0.00016147,0
4.1492,-0.00018984,0
4.1497,-0.00021703,0
4.1502,-0.00023314,0
4.1507,-0.00024305,0
4.1513,-0.00024758,0
4.1518,-0.00024002,0
4.1523,-0.00022341,0
4.1528,-0.00019152,0
4.1533,-0.00013361,0
4.1538,-5.6733e-05,0
4.1544,9.9031e-06,0
4.1549,3.8102e-05,0
4.1554,4.6494e-05,0
4.1559,6.7308e-05,0
4.1564,9.3492e-05,0
4.157,8.9128e-05,0
4.1575,4.4984e-05,0
4.158,-1.1749e-06,0
4.1585,1.8631e-05,0
4.159,0.00011263,0
4.1596,0.00019319,0
4.1601,0.00019722,0
4.1606,0.00015778,0
4.1611,0.0001274,0
4.1616,0.00012102,0
4.1622,0.00010423,0
4.1627,4.8173e-05,0
4.1632,-8.7282e-06,0
4.1637,-3.1891e-06,0
4.1642,7.7714e-05,0
4.1647,0.00017037,0
4.1653,0.00021736,0
4.1658,0.00021283,0
4.1663,0.00018379,0
4.1668,0.0001556,0
4.1673,0.00013277,0
4.1679,0.00010625,0
4.1684,7.5532e-05,0
4.1689,6.8986e-05,0
4.1694,9.5171e-05,0
4.1699,0.00012404,0
4.1705,0.00012706,0
4.171,0.00011095,0
4.1715,9.8192e-05,0
4.172,9.1142e-05,0
4.1725,7.1e-05,0
4.1731,2.6688e-05,0
4.1736,-4.8173e-05,0
4.1741,-0.00015862,0
4.1746,-0.00024053,0
4.1751,-0.00022072,0
4.1757,-0.00014704,0
4.1762,-0.00011363,0
4.1767,-9.987e-05,0
4.1772,-4.0452e-05,0
4.1777,3.7766e-05,0
4.1783,6.6468e-05,0
4.1788,4.5151e-05,0
4.1793,1.6281e-05,0
4.1798,2.5177e-06,0
4.1803,1.8463e-06,0
4.1808,3.4073e-05,0
4.1814,0.00012605,0
4.1819,0.00023348,0
4.1824,0.00027544,0
4.1829,0.00024657,0
4.1834,0.00020394,0
4.184,0.00017842,0
4.1845,0.00017238,0
4.185,0.00017842,0
4.1855,0.00018766,0
4.186,0.00019857,0
4.1866,0.00020511,0
4.1871,0.00020394,0
4.1876,0.00019236,0
4.1881,0.00016735,0
4.1886,0.000142,0
4.1892,0.00012001,0
4.1897,9.131e-05,0
4.1902,4.6159e-05,0
4.1907,-1.6449e-05,0
4.1912,-8.04e-05,0
4.1917,-0.00013109,0
4.1923,-0.00017523,0
4.1928,-0.00020293,0
4.1933,-0.00020092,0
4.1938,-0.00019353,0
4.1943,-0.00021199,0
4.1949,-0.00024489,0
4.1954,-0.00024875,0
4.1959,-0.00020092,0
4.1964,-0.00014368,0
4.1969,-0.00012253,0
4.1975,-0.00011968,0
4.198,-0.00010222,0
4.1985,-7.6371e-05,0
4.199,-5.5558e-05,0
4.1995,-3.8941e-05,0
4.2001,-2.2995e-05,0
4.2006,-1.2589e-05,0
4.2011,-1.4267e-05,0
4.2016,-2.4674e-05,0
4.2021,-3.4073e-05,0
4.2027,-2.3835e-05,0
4.2032,3.3738e-05,0
4.2037,0.00013529,0
4.2042,0.00023885,0
4.2047,0.0002986,0
4.2053,0.00029458,0
4.2058,0.00024154,0
4.2063,0.00018312,0
4.2068,0.00013579,0
4.2073,8.6442e-05,0
4.2078,2.4842e-05,0
4.2084,-4.5487e-05,0
4.2089,-0.00011246,0
4.2094,-0.00017473,0
4.2099,-0.00023767,0
4.2104,-0.00029424,0
4.211,-0.00031757,0
4.2115,-0.00027175,0
4.212,-0.00014972,0
4.2125,9.9031e-06,0
4.213,0.00013109,0
4.2136,0.0001707,0
4.2141,0.0001603,0
4.2146,0.00014485,0
4.2151,0.0001284,0
4.2156,0.00010658,0
4.2162,7.805e-05,0
4.2167,4.2466e-05,0
4.2172,3.0213e-06,0
4.2177,-3.6759e-05,0
4.2182,-6.865e-05,0
4.2188,-8.1407e-05,0
4.2193,-7.7714e-05,0
4.2198,-7.1168e-05,0
4.2203,-7.335e-05,0
4.2208,-7.4525e-05,0
4.2213,-5.304e-05,0
4.2219,-9.7353e-06,0
4.2224,3.508e-05,0
4.2229,7.805e-05,0
4.2234,0.00011078,0
4.2239,0.00011934,0
4.2245,0.00010306,0
4.225,5.4551e-05,0
4.2255,-1.796e-05,0
4.226,-9.2988e-05,0
4.2265,-0.00017809,0
4.2271,-0.00027611,0
4.2276,-0.00031069,0
4.2281,-0.00020528,0
4.2286,-2.8199e-05,0
4.2291,0.00011565,0
4.2297,0.00019454,0
4.2302,0.00023314,0
4.2307,0.0002506,0
4.2312,0.00025765,0
4.2317,0.00025563,0
4.2322,0.00022911,0
4.2328,0.00018044,0
4.2333,0.00013143,0
4.2338,9.8527e-05,0
4.2343,7.9393e-05,0
4.2348,5.6901e-05,0
4.2354,1.6785e-05,0
4.2359,-2.887e-05,0
4.2364,-4.6159e-05,0
4.2369,-2.8031e-05,0
4.2374,0,0
4.238,-6.5461e-06,0
4.2385,-6.4622e-05,0
4.239,-9.9535e-05,0
4.2395,-4.0452e-05,0
4.24,9.752e-05,0
4.2406,0.00024002,0
4.2411,0.00031942,0
4.2416,0.00031237,0
4.2421,0.00024187,0
4.2426,0.00017137,0
4.2432,0.0001462,0
4.2437,0.00013881,0
4.2442,8.5771e-05,0
4.2447,1.3596e-05,0
4.2452,-2.8534e-06,0
4.2458,4.1459e-05,0
4.2463,9.7856e-05,0
4.2468,0.00012874,0
4.2473,0.00012924,0
4.2478,0.00012169,0
4.2483,0.00012018,0
4.2489,0.00010658,0
4.2494,7.4693e-05,0
4.2499,4.9012e-05,0
4.2504,5.2537e-05,0
4.2509,8.4764e-05,0
4.2515,0.00011397,0
4.252,0.00011783,0
4.2525,6.9657e-05,0
4.253,-3.743e-05,0
4.2535,-0.0001373,0
4.2541,-0.00017775,0
4.2546,-0.00019991,0
4.2551,-0.00023616,0
4.2556,-0.00025748,0
4.2561,-0.00024204,0
4.2567,-0.00019034,0
4.2572,-0.0001237,0
4.2577,-6.0258e-05,0
4.2582,9.9031e-06,0
4.2587,7.3518e-05,0
4.2592,0.00010457,0
4.2598,0.00010172,0
4.2603,7.3014e-05,0
4.2608,3.508e-05,0
4.2613,1.1582e-05,0
4.2618,1.8296e-05,0
4.2624,5.623e-05,0
4.2629,0.00010323,0
4.2634,0.00012454,0
4.2639,0.00011044,0
4.2644,8.1407e-05,0
4.265,5.0523e-05,0
4.2655,5.539e-06,0
4.266,-5.2705e-05,0
4.2665,-0.00011128,0
4.267,-0.00018061,0
4.2676,-0.00023751,0
4.2681,-0.00022995,0
4.2686,-0.00016382,0
4.2691,-9.3324e-05,0
4.2696,-5.8076e-05,0
4.2702,-6.009e-05,0
4.2707,-8.4764e-05,0
4.2712,-0.00011431,0
4.2717,-0.00013478,0
4.2722,-0.00013999,0
4.2728,-0.00013529,0
4.2733,-0.00012555,0
4.2738,-0.00010507,0
4.2743,-7.2007e-05,0
4.2748,-3.0716e-05,0
4.2753,1.5106e-05,0
4.2759,6.6804e-05,0
4.2764,0.00010658,0
4.2769,0.000118,0
4.2774,0.00010692,0
4.2779,9.2821e-05,0
4.2785,8.8289e-05,0
4.279,8.5771e-05,0
4.2795,7.7043e-05,0
4.28,6.2104e-05,0
4.2805,5.0523e-05,0
4.2811,4.4816e-05,0
4.2816,3.3402e-05,0
4.2821,1.7792e-05,0
4.2826,1.2253e-05,0
4.2831,2.5681e-05,0
4.2837,5.2537e-05,0
4.2842,7.8889e-05,0
4.2847,9.1142e-05,0
4.2852,8.8792e-05,0
4.2857,8.2414e-05,0
4.2862,7.2343e-05,0
4.2868,4.7333e-05,0
4.2873,8.3925e-07,0
4.2878,-4.0955e-05,0
4.2883,-4.7837e-05,0
4.2888,-3.978e-05,0
4.2894,-5.9922e-05,0
4.2899,-0.0001034,0
4.2904,-0.00013092,0
4.2909,-9.0303e-05,0
4.2914,5.5222e-05,0
4.292,0.00020914,0
4.2925,0.00027376,0
4.293,0.0002454,0
4.2935,0.00013193,0
4.294,-2.0645e-05,0
4.2946,-0.0001467,0
4.2951,-0.00021317,0
4.2956,-0.00018144,0
4.2961,-3.7598e-05,0
4.2966,0.00016097,0
4.2972,0.00031807,0
4.2977,0.00036625,0
4.2982,0.00030246,0
4.2987,0.00020461,0
4.2992,0.00015492,0
4.2998,0.00015828,0
4.3003,0.00016466,0
4.3008,0.00015492,0
4.3013,0.00013814,0
4.3018,0.00012136,0
4.3023,0.00011766,0
4.3029,0.00013176,0
4.3034,0.00013512,0
4.3039,0.00010994,0
4.3044,6.3783e-05,0
4.3049,1.561e-05,0
4.3055,-1.5442e-05,0
4.306,-2.266e-05,0
4.3065,-2.887e-05,0
4.307,-7.4357e-05,0
4.3075,-0.00011246,0
4.3081,-8.426e-05,0
4.3086,-3.6423e-05,0
4.3091,-4.1459e-05,0
4.3096,-0.00010692,0
4.3101,-0.0001462,0
4.3107,-8.4764e-05,0
4.3112,5.0858e-05,0
4.3117,0.00018564,0
4.3122,0.00026638,0
4.3127,0.00027712,0
4.3133,0.00023784,0
4.3138,0.00018212,0
4.3143,0.00012605,0
4.3148,6.7643e-05,0
4.3153,-8.3925e-07,0
4.3158,-8.4092e-05,0
4.3164,-0.00017305,0
4.3169,-0.00021569,0
4.3174,-0.00015207,0
4.3179,-4.3641e-06,0
4.3184,0.00015123,0
4.319,0.00024858,0
4.3195,0.00026537,0
4.32,0.00021032,0
4.3205,0.00011498,0
4.321,2.031e-05,0
4.3216,-5.2873e-05,0
4.3221,-0.00010407,0
4.3226,-0.0001472,0
4.3231,-0.00019034,0
4.3236,-0.00022106,0
4.3242,-0.00022509,0
4.3247,-0.00021317,0
4.3252,-0.00020931,0
4.3257,-0.00021082,0
4.3262,-0.00020394,0
4.3267,-0.00019269,0
4.3273,-0.0001791,0
4.3278,-0.00016013,0
4.3283,-0.00014032,0
4.3288,-0.00012001,0
4.3293,-9.601e-05,0
4.3299,-8.8624e-05,0
4.3304,-9.9199e-05,0
4.3309,-9.7856e-05,0
4.3314,-7.1336e-05,0
4.3319,-2.8702e-05,0
4.3325,2.8702e-05,0
4.333,0.00010121,0
4.3335,0.00014821,0
4.334,0.00015291,0
4.3345,0.00014653,0
4.3351,0.00014754,0
4.3356,0.00015325,0
4.3361,0.00015509,0
4.3366,0.00014754,0
4.3371,0.00012857,0
4.3377,0.00010558,0
4.3382,8.8792e-05,0
4.3387,8.1239e-05,0
4.3392,7.9393e-05,0
4.3397,7.2511e-05,0
4.3403,4.8005e-05,0
4.3408,2.5177e-06,0
4.3413,-6.2272e-05,0
4.3418,-0.00014871,0
4.3423,-0.00024758,0
4.3428,-0.00028316,0
4.3434,-0.0001707,0
4.3439,3.4745e-05,0
4.3444,0.00017826,0
4.3449,0.00019773,0
4.3454,0.00016701,0
4.346,0.00013848,0
4.3465,9.2485e-05,0
4.347,1.4603e-05,0
4.3475,-3.3234e-05,0
4.348,2.3331e-05,0
4.3486,0.00015157,0
4.3491,0.00023935,0
4.3496,0.00023348,0
4.3501,0.00016701,0
4.3506,0.00010289,0
4.3512,6.6972e-05,0
4.3517,5.8579e-05,0
4.3522,6.9322e-05,0
4.3527,7.4022e-05,0
4.3532,5.3544e-05,0
4.3537,3.0213e-05,0
4.3543,1.5442e-05,0
4.3548,-6.3783e-06,0
4.3553,-3.743e-05,0
4.3558,-6.6636e-05,0
4.3563,-8.1407e-05,0
4.3569,-8.275e-05,0
4.3574,-9.0135e-05,0
4.3579,-0.0001138,0
4.3584,-0.00013394,0
4.3589,-0.00014217,0
4.3595,-0.00015543,0
4.36,-0.00015224,0
4.3605,-0.00011565,0
4.361,-8.0735e-05,0
4.3615,-7.5532e-05,0
4.3621,-5.6901e-05,0
4.3626,4.213e-05,0
4.3631,0.0002083,0
4.3636,0.00035869,0
4.3641,0.00042348,0
4.3647,0.00040603,0
4.3652,0.00035383,0
4.3657,0.00029625,0
4.3662,0.00024137,0
4.3667,0.0001942,0
4.3673,0.00014485,0
4.3678,9.4667e-05,0
4.3683,6.63e-05,0
4.3688,7.1168e-05,0
4.3693,8.1743e-05,0
4.3698,7.5364e-05,0
4.3704,5.5222e-05,0
4.3709,2.4002e-05,0
4.3714,-2.2324e-05,0
4.3719,-7.6371e-05,0
4.3724,-0.00013143,0
4.373,-0.0001796,0
4.3735,-0.00020226,0
4.374,-0.00019689,0
4.3745,-0.0001754,0
4.375,-0.0001415,0
4.3756,-0.00010927,0
4.3761,-7.805e-05,0
4.3766,-1.6953e-05,0
4.3771,6.8315e-05,0
4.3776,0.00014452,0
4.3782,0.00019554,0
4.3787,0.00021132,0
4.3792,0.00020192,0
4.3797,0.00017288,0
4.3802,0.00010793,0
4.3807,2.8534e-05,0
4.3813,-5.7069e-06,0
4.3818,1.7456e-05,0
4.3823,5.0355e-05,0
4.3828,5.0187e-05,0
4.3833,6.0426e-06,0
4.3839,-4.9851e-05,0
4.3844,-7.5364e-05,0
4.3849,-7.2343e-05,0
4.3854,-7.7882e-05,0
4.3859,-0.00011951,0
4.3865,-0.00014485,0
4.387,-9.2485e-05,0
4.3875,-3.5248e-06,0
4.388,3.7934e-05,0
4.3885,3.0045e-05,0
4.3891,3.1724e-05,0
4.3896,5.5894e-05,0
4.3901,6.2943e-05,0
4.3906,2.6017e-05,0
4.3911,-3.2395e-05,0
4.3917,-6.9322e-05,0
4.3922,-8.1071e-05,0
4.3927,-8.0903e-05,0
4.3932,-7.6707e-05,0
4.3937,-6.6972e-05,0
4.3943,-4.3473e-05,0
4.3948,-9.9031e-06,0
4.3953,2.6352e-05,0
4.3958,6.1936e-05,0
4.3963,8.4932e-05,0
4.3968,9.3828e-05,0
4.3974,9.2653e-05,0
4.3979,7.7714e-05,0
4.3984,5.2537e-05,0
4.3989,1.4267e-05,0
4.3994,-2.6017e-05,0
4.4,-5.6565e-05,0
4.4005,-8.8457e-05,0
4.401,-0.00011615,0
4.4015,-0.00011749,0
4.402,-0.00010524,0
4.4026,-0.00010591,0
4.4031,-0.00011833,0
4.4036,-0.00012236,0
4.4041,-0.00012236,0
4.4046,-0.00011783,0
4.4052,-9.987e-05,0
4.4057,-6.8147e-05,0
4.4062,-3.0381e-05,0
4.4067,2.0142e-05,0
4.4072,9.7017e-05,0
4.4078,0.00016097,0
4.4083,0.0001707,0
4.4088,0.00013814,0
4.4093,9.6345e-05,0
4.4098,6.4958e-05,0
4.4103,5.2537e-05,0
4.4109,4.7501e-05,0
4.4114,2.8031e-05,0
4.4119,3.1556e-05,0
4.4124,9.2317e-05,0
4.4129,0.00016567,0
4.4135,0.00019269,0
4.414,0.00016147,0
4.4145,7.7546e-05,0
4.415,-4.7669e-05,0
4.4155,-0.00015274,0
4.4161,-0.00020444,0
4.4166,-0.00022274,0
4.4171,-0.00019857,0
4.4176,-9.1478e-05,0
4.4181,7.5532e-05,0
4.4187,0.00021317,0
4.4192,0.0002751,0
4.4197,0.00026772,0
4.4202,0.00023969,0
4.4207,0.00023784,0
4.4212,0.0002459,0
4.4218,0.00023818,0
4.4223,0.00022408,0
4.4228,0.00021602,0
4.4233,0.00020729,0
4.4238,0.00019236,0
4.4244,0.00017742,0
4.4249,0.00017171,0
4.4254,0.0001754,0
4.4259,0.00018144,0
4.4264,0.00017708,0
4.427,0.00014217,0
4.4275,7.4022e-05,0
4.428,-6.714e-06,0
4.4285,-9.4835e-05,0
4.429,-0.0002182,0
4.4296,-0.00036407,0
4.4301,-0.00046259,0
4.4306,-0.0004688,0
4.4311,-0.00036423,0
4.4316,-0.00017507,0
4.4322,-1.4771e-05,0
4.4327,3.1891e-05,0
4.4332,3.5248e-06,0
4.4337,-2.501e-05,0
4.4342,-2.7527e-05,0
4.4348,-1.5778e-05,0
4.4353,-1.6953e-05,0
4.4358,-4.3305e-05,0
4.4363,-4.0452e-05,0
4.4368,3.2059e-05,0
4.4373,0.00011934,0
4.4379,0.00014888,0
4.4384,0.00011263,0
4.4389,5.4551e-05,0
4.4394,1.3596e-05,0
4.4399,-2.182e-06,0
4.4405,-4.6998e-06,0
4.441,3.0213e-06,0
4.4415,3.4745e-05,0
4.442,0.00010457,0
4.4425,0.00020662,0
4.4431,0.00029625,0
4.4436,0.00032882,0
4.4441,0.00030565,0
4.4446,0.00025093,0
4.4451,0.00018245,0
4.4457,0.00011699,0
4.4462,7.0832e-05,0
4.4467,4.683e-05,0
4.4472,3.0716e-05,0
4.4477,1.1582e-05,0
4.4482,-6.2104e-06,0
4.4488,-8.2246e-06,0
4.4493,-2.8534e-06,0
4.4498,-8.2246e-06,0
4.4503,-2.1653e-05,0
4.4508,-3.2731e-05,0
4.4514,-4.0955e-05,0
4.4519,-5.2873e-05,0
4.4524,-7.3686e-05,0
4.4529,-9.987e-05,0
4.4534,-0.00012958,0
4.454,-0.00015425,0
4.4545,-0.00015476,0
4.455,-0.00012924,0
4.4555,-9.4163e-05,0
4.456,-6.1936e-05,0
4.4566,-4.5487e-05,0
4.4571,-6.0258e-05,0
4.4576,-8.4428e-05,0
4.4581,-8.8289e-05,0
4.4586,-6.5965e-05,0
4.4592,-1.8967e-05,0
4.4597,3.7934e-05,0
4.4602,8.1071e-05,0
4.4607,0.00010726,0
4.4612,0.00012639,0
4.4618,0.00013613,0
4.4623,0.00013075,0
4.4628,0.00011699,0
4.4633,9.3828e-05,0
4.4638,6.3447e-05,0
4.4643,3.978e-05,0
4.4649,3.0381e-05,0
4.4654,2.5681e-05,0
4.4659,1.1917e-05,0
4.4664,-2.0478e-05,0
4.4669,-6.9993e-05,0
4.4675,-0.0001133,0
4.468,-0.00010977,0
4.4685,-6.7475e-05,0
4.469,-5.6565e-05,0
4.4695,-0.00011263,0
4.4701,-0.0002031,0
4.4706,-0.00025412,0
4.4711,-0.00023046,0
4.4716,-0.00015325,0
4.4721,-6.0929e-05,0
4.4727,1.8631e-05,0
4.4732,7.805e-05,0
4.4737,0.00011733,0
4.4742,0.00013344,0
4.4747,0.00012605,0
4.4752,0.0001133,0
4.4758,0.00010054,0
4.4763,7.5868e-05,0
4.4768,5.4719e-05,0
4.4773,5.3208e-05,0
4.4778,6.3783e-05,0
4.4784,6.63e-05,0
4.4789,5.623e-05,0
4.4794,4.3809e-05,0
4.4799,2.6017e-05,0
4.4804,6.714e-07,0
4.481,-1.091e-05,0
4.4815,-2.5177e-06,0
4.482,1.7288e-05,0
4.4825,4.1123e-05,0
4.483,5.7572e-05,0
4.4836,5.4887e-05,0
4.4841,5.304e-05,0
4.4846,8.6442e-05,0
4.4851,0.00012656,0
4.4856,0.00012908,0
4.4862,7.9057e-05,0
4.4867,-2.2492e-05,0
4.4872,-0.00010927,0
4.4877,-0.00010591,0
4.4882,-1.7288e-05,0
4.4887,9.5338e-05,0
4.4893,0.00018111,0
4.4898,0.00022391,0
4.4903,0.00021736,0
4.4908,0.00015862,0
4.4913,7.2847e-05,0
4.4919,-1.0575e-05,0
4.4924,-9.4163e-05,0
4.4929,-0.00017658,0
4.4934,-0.00022039,0
4.4939,-0.00020024,0
4.4945,-0.00012438,0
4.495,-3.2563e-05,0
4.4955,6.2943e-05,0
4.496,0.00018044,0
4.4965,0.00026738,0
4.4971,0.00026839,0
4.4976,0.00021065,0
4.4981,0.0001467,0
4.4986,0.00010054,0
4.4991,7.7714e-05,0
4.4997,6.4286e-05,0
4.5002,4.7333e-05,0
4.5007,3.5752e-05,0
4.5012,2.9374e-05,0
4.5017,1.1582e-05,0
4.5023,-8.896e-06,0
4.5028,3.357e-07,0
4.5033,3.3234e-05,0
4.5038,4.8508e-05,0
4.5043,2.5345e-05,0
4.5048,-3.5248e-06,0
4.5054,-6.3783e-06,0
4.5059,4.1291e-05,0
4.5064,0.00012203,0
4.5069,0.00017708,0
4.5074,0.00017339,0
4.508,0.00013898,0
4.5085,0.00011246,0
4.509,0.00010642,0
4.5095,0.00010457,0
4.51,9.0303e-05,0
4.5106,6.6972e-05,0
4.5111,4.4984e-05,0
4.5116,2.3667e-05,0
4.5121,-2.7695e-05,0
4.5126,-0.00012303,0
4.5132,-0.00016516,0
4.5137,-7.8218e-05,0
4.5142,5.5222e-05,0
4.5147,0.000118,0
4.5152,0.00010776,0
4.5157,8.8457e-05,0
4.5163,8.5771e-05,0
4.5168,5.774e-05,0
4.5173,-2.8534e-05,0
4.5178,-0.00013126,0
4.5183,-0.00018279,0
4.5189,-0.00017842,0
4.5194,-0.00016114,0
4.5199,-0.0001702,0
4.5204,-0.00021216,0
4.5209,-0.00024775,0
4.5215,-0.00021585,0
4.522,-0.00013008,0
4.5225,-6.0761e-05,0
4.523,-3.6423e-05,0
4.5235,-3.4241e-05,0
4.5241,-3.5248e-05,0
4.5246,-2.9709e-05,0
4.5251,-1.7624e-05,0
4.5256,-1.7624e-05,0
4.5261,-4.7837e-05,0
4.5267,-0.00010172,0
4.5272,-0.00014821,0
4.5277,-0.00017053,0
4.5282,-0.00014569,0
4.5287,-4.9851e-05,0
4.5293,6.865e-05,0
4.5298,0.00012992,0
4.5303,0.00013042,0
4.5308,0.00012337,0
4.5313,0.0001326,0
4.5318,0.00015492,0
4.5324,0.0001895,0
4.5329,0.00022676,0
4.5334,0.00025127,0
4.5339,0.00025966,0
4.5344,0.00024556,0
4.535,0.00021065,0
4.5355,0.00017356,0
4.536,0.00014083,0
4.5365,0.00010726,0
4.537,8.8121e-05,0
4.5376,8.3757e-05,0
4.5381,6.1265e-05,0
4.5386,3.6927e-06,0
4.5391,-7.3686e-05,0
4.5396,-0.00014485,0
4.5402,-0.00019336,0
4.5407,-0.00024019,0
4.5412,-0.0003216,0
4.5417,-0.00039545,0
4.5422,-0.00039042,0
4.5427,-0.00031337,0
4.5433,-0.00023012,0
4.5438,-0.0001566,0
4.5443,-8.4932e-05,0
4.5448,-3.4073e-05,0
4.5453,2.8702e-05,0
4.5459,0.00015996,0
4.5464,0.00031908,0
4.5469,0.00039126,0
4.5474,0.00034409,0
4.5479,0.00025765,0
4.5485,0.00020377,0
4.549,0.00018044,0
4.5495,0.00015862,0
4.55,0.00013344,0
4.5505,0.00012136,0
4.5511,0.00012522,0
4.5516,0.00013042,0
4.5521,0.00012589,0
4.5526,0.00011196,0
4.5531,0.00010121,0
4.5537,9.7688e-05,0
4.5542,9.7185e-05,0
4.5547,9.1814e-05,0
4.5552,6.4286e-05,0
4.5557,3.0549e-05,0
4.5563,2.6688e-05,0
4.5568,4.7333e-05,0
4.5573,6.865e-05,0
4.5578,7.5364e-05,0
4.5583,5.4047e-05,0
4.5588,7.0497e-06,0
4.5594,-3.978e-05,0
4.5599,-6.1936e-05,0
4.5604,-3.4409e-05,0
4.5609,3.8605e-05,0
4.5614,9.5842e-05,0
4.562,8.7114e-05,0
4.5625,2.8702e-05,0
4.563,-3.9109e-05,0
4.5635,-9.3996e-05,0
4.564,-0.00013881,0
4.5646,-0.00018967,0
4.5651,-0.00021367,0
4.5656,-0.00018296,0
4.5661,-0.00012908,0
4.5666,-8.7114e-05,0
4.5672,-4.683e-05,0
4.5677,1.6281e-05,0
4.5682,7.1e-05,0
4.5687,6.1936e-05,0
4.5692,5.2033e-06,0
4.5697,-3.122e-05,0
4.5703,-4.3473e-05,0
4.5708,-2.9709e-05,0
4.5713,4.2802e-05,0
4.5718,0.00014401,0
4.5723,0.00021468,0
4.5729,0.00025496,0
4.5734,0.00029374,0
4.5739,0.00033419,0
4.5744,0.00036138,0
4.5749,0.00036071,0
4.5755,0.00031975,0
4.576,0.00023818,0
4.5765,0.00013797,0
4.577,4.2802e-05,0
4.5775,-5.388e-05,0
4.5781,-0.00015056,0
4.5786,-0.00022106,0
4.5791,-0.00024523,0
4.5796,-0.00024237,0
4.5801,-0.00024439,0
4.5807,-0.00024758,0
4.5812,-0.00021132,0
4.5817,-0.00011749,0
4.5822,1.6785e-06,0
4.5827,9.0471e-05,0
4.5832,0.00012773,0
4.5838,0.00012001,0
4.5843,8.7785e-05,0
4.5848,4.5823e-05,0
4.5853,-3.1891e-06,0
4.5858,-4.8844e-05,0
4.5864,-9.3156e-05,0
4.5869,-0.00014653,0
4.5874,-0.0002083,0
4.5879,-0.00023717,0
4.5884,-0.00020226,0
4.589,-0.00014099,0
4.5895,-0.00010726,0
4.59,-0.00011196,0
4.5905,-0.00012488,0
4.591,-0.00012723,0
4.5916,-0.00011766,0
4.5921,-8.1071e-05,0
4.5926,-1.4099e-05,0
4.5931,5.9419e-05,0
4.5936,0.00010944,0
4.5942,0.00013327,0
4.5947,0.00014821,0
4.5952,0.00016365,0
4.5957,0.0001843,0
4.5962,0.00018917,0
4.5968,0.0001284,0
4.5973,-1.2253e-05,0
4.5978,-0.00013848,0
4.5983,-0.00013915,0
4.5988,-3.3066e-05,0
4.5993,8.9799e-05,0
4.5999,0.00016634,0
4.6004,0.00018614,0
4.6009,0.00016701,0
4.6014,0.00013663,0
4.6019,0.0001044,0
4.6025,7.4525e-05,0
4.603,5.6062e-05,0
4.6035,4.4144e-05,0
4.604,2.7527e-05,0
4.6045,-3.8605e-06,0
4.6051,-2.5849e-05,0
4.6056,-1.6953e-05,0
4.6061,4.5319e-06,0
4.6066,1.5274e-05,0
4.6071,1.0575e-05,0
4.6077,1.8463e-06,0
4.6082,1.6785e-07,0
4.6087,5.8747e-06,0
4.6092,1.2253e-05,0
4.6097,9.2317e-06,0
4.6102,-6.5461e-06,0
4.6108,-2.3667e-05,0
4.6113,-3.9109e-05,0
4.6118,-6.3279e-05,0
4.6123,-0.00010776,0
4.6128,-0.00014754,0
4.6134,-0.00013529,0
4.6139,-5.7404e-05,0
4.6144,7.1839e-05,0
4.6149,0.00019286,0
4.6154,0.00021569,0
4.616,0.0001368,0
4.6165,4.6326e-05,0
4.617,2.1317e-05,0
4.6175,6.3111e-05,0
4.618,0.00014989,0
4.6186,0.00023684,0
4.6191,0.00025966,0
4.6196,0.00022005,0
4.6201,0.00016432,0
4.6206,0.00013126,0
4.6212,0.00013948,0
4.6217,0.00015677,0
4.6222,0.00012169,0
4.6227,3.8102e-05,0
4.6232,-8.2246e-06,0
4.6238,2.3499e-05,0
4.6243,7.6371e-05,0
4.6248,7.3518e-05,0
4.6253,-4.0284e-06,0
4.6258,-9.9031e-05,0
4.6263,-0.00014284,0
4.6269,-0.00012236,0
4.6274,-8.2414e-05,0
4.6279,-6.009e-05,0
4.6284,-4.1291e-05,0
4.6289,-1.4603e-05,0
4.6295,5.0355e-06,0
4.63,2.5513e-05,0
4.6305,5.9922e-05,0
4.631,8.8457e-05,0
4.6315,8.5771e-05,0
4.6321,5.8915e-05,0
4.6326,2.9038e-05,0
4.6331,6.8818e-06,0
4.6336,-6.5461e-06,0
4.6341,-2.8534e-06,0
4.6347,2.3667e-05,0
4.6352,6.2943e-05,0
4.6357,9.4499e-05,0
4.6362,0.00010893,0
4.6367,0.00011246,0
4.6372,0.00011749,0
4.6378,0.000118,0
4.6383,9.9199e-05,0
4.6388,5.7237e-05,0
4.6393,-4.5319e-06,0
4.6398,-5.6565e-05,0
4.6404,-8.3757e-05,0
4.6409,-0.00010675,0
4.6414,-0.0001138,0
4.6419,-6.7308e-05,0
4.6424,1.8296e-05,0
4.643,6.2943e-05,0
4.6435,1.3428e-06,0
4.644,-0.00010809,0
4.6445,-0.00015123,0
4.645,-0.00010188,0
4.6456,-2.8534e-05,0
4.6461,3.8605e-06,0
4.6466,1.9974e-05,0
4.6471,6.7979e-05,0
4.6476,0.0001655,0
4.6482,0.00025429,0
4.6487,0.00024355,0
4.6492,0.00014116,0
4.6497,3.1891e-05,0
4.6502,-5.388e-05,0
4.6508,-0.00012471,0
4.6513,-0.00017037,0
4.6518,-0.00017893,0
4.6523,-0.00015727,0
4.6528,-0.00011598,0
4.6533,-6.6636e-05,0
4.6539,-2.0478e-05,0
4.6544,1.1917e-05,0
4.6549,2.887e-05,0
4.6554,3.9612e-05,0
4.6559,5.1194e-05,0
4.6565,6.3279e-05,0
4.657,6.6972e-05,0
4.6575,6.244e-05,0
4.658,5.3544e-05,0
4.6585,4.0787e-05,0
4.6591,2.4506e-05,0
4.6596,1.1749e-06,0
4.6601,-2.5345e-05,0
4.6606,-4.2802e-05,0
4.6611,-4.1459e-05,0
4.6617,-2.8702e-05,0
4.6622,-2.3667e-05,0
4.6627,-3.2563e-05,0
4.6632,-3.508e-05,0
4.6637,-1.5778e-05,0
4.6643,5.8747e-06,0
4.6648,5.7069e-06,0
4.6653,-2.3331e-05,0
4.6658,-6.8482e-05,0
4.6663,-0.0001373,0
4.6668,-0.00020041,0
4.6674,-0.00019118,0
4.6679,-0.0001378,0
4.6684,-9.5842e-05,0
4.6689,-5.8244e-05,0
4.6694,-2.501e-05,0
4.67,-3.1388e-05,0
4.6705,-9.8695e-05,0
4.671,-0.00019219,0
4.6715,-0.00026352,0
4.672,-0.00024825,0
4.6726,-0.00012169,0
4.6731,3.743e-05,0
4.6736,0.00015996,0
4.6741,0.00024858,0
4.6746,0.00033066,0
4.6752,0.00040267,0
4.6757,0.00041207,0
4.6762,0.00032445,0
4.6767,0.00020125,0
4.6772,0.00012102,0
4.6777,9.987e-05,0
4.6783,0.00011968,0
4.6788,0.00016835,0
4.6793,0.00021804,0
4.6798,0.00024103,0
4.6803,0.00022777,0
4.6809,0.00019051,0
4.6814,0.00015744,0
4.6819,0.00014888,0
4.6824,0.00015409,0
4.6829,0.0001472,0
4.6835,0.00011582,0
4.684,8.04e-05,0
4.6845,5.0858e-05,0
4.685,2.3163e-05,0
4.6855,1.5106e-06,0
4.6861,-1.2589e-05,0
4.6866,-2.5681e-05,0
4.6871,-3.508e-05,0
4.6876,-4.2802e-05,0
4.6881,-3.6759e-05,0
4.6887,-1.0239e-05,0
4.6892,-1.5106e-06,0
4.6897,-4.6326e-05,0
4.6902,-0.00012605,0
4.6907,-0.00018682,0
4.6913,-0.00018631,0
4.6918,-0.00012757,0
4.6923,-5.7237e-05,0
4.6928,1.9806e-05,0
4.6933,0.00016147,0
4.6938,0.00033989,0
4.6944,0.0004537,0
4.6949,0.00045303,0
4.6954,0.00037246,0
4.6959,0.00028585,0
4.6964,0.00019152,0
4.697,6.5965e-05,0
4.6975,-3.9277e-05,0
4.698,-6.9322e-05,0
4.6985,-6.6636e-05,0
4.699,-9.6849e-05,0
4.6996,-0.0001373,0
4.7001,-0.00014922,0
4.7006,-0.00015442,0
4.7011,-0.00017473,0
4.7016,-0.00018816,0
4.7022,-0.00019672,0
4.7027,-0.00021837,0
4.7032,-0.00024204,0
4.7037,-0.00024976,0
4.7042,-0.00022173,0
4.7047,-0.00015409,0
4.7053,-8.2246e-05,0
4.7058,-3.7095e-05,0
4.7063,-2.8534e-05,0
4.7068,-4.5823e-05,0
4.7073,-6.1936e-05,0
4.7079,-6.1769e-05,0
4.7084,-4.7333e-05,0
4.7089,-2.1653e-05,0
4.7094,1.1917e-05,0
4.7099,5.8244e-05,0
4.7105,0.00010994,0
4.711,0.00013243,0
4.7115,0.0001227,0
4.712,0.00011363,0
4.7125,0.00010658,0
4.7131,8.896e-05,0
4.7136,6.2608e-05,0
4.7141,3.1388e-05,0
4.7146,-1.4603e-05,0
4.7151,-6.1601e-05,0
4.7157,-8.5267e-05,0
4.7162,-8.3925e-05,0
4.7167,-7.4693e-05,0
4.7172,-7.6707e-05,0
4.7177,-8.9967e-05,0
4.7183,-6.2943e-05,0
4.7188,6.8818e-06,0
4.7193,3.978e-05,0
4.7198,-4.3473e-05,0
4.7203,-0.00023465,0
4.7208,-0.00041643,0
4.7214,-0.00047871,0
4.7219,-0.00038622,0
4.7224,-0.00015795,0
4.7229,9.7856e-05,0
4.7234,0.00028148,0
4.724,0.00038236,0
4.7245,0.0004072,0
4.725,0.00037833,0
4.7255,0.00033654,0
4.726,0.0003033,0
4.7266,0.00026772,0
4.7271,0.00022844,0
4.7276,0.0001895,0
4.7281,0.0001472,0
4.7286,0.00010423,0
4.7292,6.5629e-05,0
4.7297,3.9109e-05,0
4.7302,2.8702e-05,0
4.7307,1.9471e-05,0
4.7312,4.3641e-06,0
4.7317,6.2104e-06,0
4.7323,3.2563e-05,0
4.7328,5.0858e-05,0
4.7333,5.2537e-05,0
4.7338,5.8244e-05,0
4.7343,6.1433e-05,0
4.7349,4.1794e-05,0
4.7354,6.2104e-06,0
4.7359,-2.4002e-05,0
4.7364,-3.1388e-05,0
4.7369,-1.6449e-05,0
4.7375,-1.5106e-06,0
4.738,-1.0071e-06,0
4.7385,3.1891e-06,0
4.739,2.652e-05,0
4.7395,5.5726e-05,0
4.7401,5.623e-05,0
4.7406,9.9031e-06,0
4.7411,-6.3951e-05,0
4.7416,-9.836e-05,0
4.7421,-6.3279e-05,0
4.7427,-2.4338e-05,0
4.7432,-2.0142e-05,0
4.7437,6.714e-07,0
4.7442,8.1407e-05,0
4.7447,0.0001754,0
4.7453,0.00020226,0
4.7458,0.0001373,0
4.7463,1.8463e-05,0
4.7468,-7.9393e-05,0
4.7473,-7.3518e-05,0
4.7478,4.5487e-05,0
4.7484,0.00016802,0
4.7489,0.00021317,0
4.7494,0.00021283,0
4.7499,0.00020528,0
4.7504,0.00017171,0
4.751,0.00010726,0
4.7515,4.3473e-05,0
4.752,1.4939e-05,0
4.7525,5.3544e-05,0
4.753,0.00015358,0
4.7536,0.0002459,0
4.7541,0.00026839,0
4.7546,0.00023818,0
4.7551,0.00019857,0
4.7556,0.0001603,0
4.7562,0.00011128,0
4.7567,4.8173e-05,0
4.7572,-1.9638e-05,0
4.7577,-7.8721e-05,0
4.7582,-0.00010239,0
4.7588,-9.2317e-05,0
4.7593,-8.1071e-05,0
4.7598,-6.1433e-05,0
4.7603,-2.5345e-05,0
4.7608,-1.8799e-05,0
4.7613,-7.805e-05,0
4.7619,-0.00013143,0
4.7624,-7.6875e-05,0
4.7629,6.2104e-05,0
4.7634,0.00017507,0
4.7639,0.00020092,0
4.7645,0.00013982,0
4.765,3.122e-05,0
4.7655,-9.2317e-05,0
4.766,-0.00020847,0
4.7665,-0.00029911,0
4.7671,-0.00035953,0
4.7676,-0.00038505,0
4.7681,-0.00037128,0
4.7686,-0.00033285,0
4.7691,-0.00028786,0
4.7697,-0.00024573,0
4.7702,-0.00022106,0
4.7707,-0.00021904,0
4.7712,-0.00020729,0
4.7717,-0.00016818,0
4.7722,-0.00011901,0
4.7728,-9.3492e-05,0
4.7733,-0.00011733,0
4.7738,-0.00018094,0
4.7743,-0.00024086,0
4.7748,-0.00026084,0
4.7754,-0.00019672,0
4.7759,-4.213e-05,0
4.7764,0.00013445,0
4.7769,0.00026638,0
4.7774,0.00032546,0
4.778,0.00031858,0
4.7785,0.0002939,0
4.779,0.0002892,0
4.7795,0.00029793,0
4.78,0.00030263,0
4.7806,0.00029189,0
4.7811,0.00026336,0
4.7816,0.00022358,0
4.7821,0.00017171,0
4.7826,0.00011313,0
4.7832,4.918e-05,0
4.7837,-3.1891e-05,0
4.7842,-8.9464e-05,0
4.7847,-0.00010809,0
4.7852,-0.00013008,0
4.7858,-0.00016365,0
4.7863,-0.00017943,0
4.7868,-0.00018178,0
4.7873,-0.00015895,0
4.7878,-4.0116e-05,0
4.7883,0.00014217,0
4.7889,0.00028501,0
4.7894,0.00037212,0
4.7899,0.00040888,0
4.7904,0.000379,0
4.7909,0.00030112,0
4.7915,0.00021938,0
4.792,0.00015543,0
4.7925,0.00011632,0
4.793,9.2149e-05,0
4.7935,7.0329e-05,0
4.7941,4.5151e-05,0
4.7946,1.9638e-05,0
4.7951,1.7624e-05,0
4.7956,3.4241e-05,0
4.7961,3.7766e-05,0
4.7967,7.0497e-06,0
4.7972,-5.7404e-05,0
4.7977,-0.00014569,0
4.7982,-0.00021585,0
4.7987,-0.0002454,0
4.7992,-0.00021233,0
4.7998,-0.00010642,0
4.8003,2.6184e-05,0
4.8008,0.00013579,0
4.8013,0.00021602,0
4.8018,0.00026822,0
4.8024,0.00026839,0
4.8029,0.00021233,0
4.8034,0.00012807,0
4.8039,3.6088e-05,0
4.8044,-3.3738e-05,0
4.805,-4.7501e-05,0
4.8055,-1.4939e-05,0
4.806,3.1388e-05,0
4.8065,7.2007e-05,0
4.807,7.7043e-05,0
4.8076,3.9445e-05,0
4.8081,0,0
4.8086,-7.7211e-06,0
4.8091,-7.0497e-06,0
4.8096,-3.4073e-05,0
4.8102,-8.0064e-05,0
4.8107,-0.00011716,0
4.8112,-0.00011397,0
4.8117,-5.4887e-05,0
4.8122,4.8676e-06,0
4.8128,1.8967e-05,0
4.8133,2.182e-05,0
4.8138,5.3544e-05,0
4.8143,0.00012287,0
4.8148,0.00020394,0
4.8153,0.00024355,0
4.8159,0.00022609,0
4.8164,0.00019051,0
4.8169,0.00017037,0
4.8174,0.00015744,0
4.8179,0.00012169,0
4.8185,5.9586e-05,0
4.819,-1.9303e-05,0
4.8195,-0.0001034,0
4.82,-0.00017507,0
4.8205,-0.0002271,0
4.8211,-0.00026033,0
4.8216,-0.00026772,0
4.8221,-0.00023751,0
4.8226,-0.00019353,0
4.8231,-0.00018279,0
4.8237,-0.00019219,0
4.8242,-0.00018732,0
4.8247,-0.00016483,0
4.8252,-0.0001613,0
4.8257,-0.00023331,0
4.8262,-0.00032999,0
4.8268,-0.00029592,0
4.8273,-0.00011884,0
4.8278,5.8076e-05,0
4.8283,0.00013327,0
4.8288,0.00010726,0
4.8294,3.1052e-05,0
4.8299,-2.031e-05,0
4.8304,2.5177e-05,0
4.8309,0.00014284,0
4.8314,0.00023146,0
4.832,0.00024926,0
4.8325,0.00022744,0
4.833,0.00018782,0
4.8335,0.00012874,0
4.834,6.4286e-05,0
4.8346,1.5946e-05,0
4.8351,-7.7211e-06,0
4.8356,-4.8676e-06,0
4.8361,1.9303e-05,0
4.8366,5.153e-05,0
4.8372,8.04e-05,0
4.8377,9.8527e-05,0
4.8382,0.00010759,0
4.8387,0.00011363,0
4.8392,0.00011212,0
4.8398,0.00010726,0
4.8403,0.00010776,0
4.8408,0.00011766,0
4.8413,0.00012924,0
4.8418,0.00012673,0
4.8423,0.00010021,0
4.8429,6.4286e-05,0
4.8434,4.6494e-05,0
4.8439,3.8941e-05,0
4.8444,1.7624e-05,0
4.8449,-1.561e-05,0
4.8455,-3.9445e-05,0
4.846,-4.4312e-05,0
4.8465,-5.6901e-05,0
4.847,-8.6778e-05,0
4.8475,-0.00011414,0
4.8481,-0.00013143,0
4.8486,-0.00013596,0
4.8491,-0.00010356,0
4.8496,-5.2201e-05,0
4.8501,-2.1149e-05,0
4.8507,2.0981e-05,0
4.8512,9.0806e-05,0
4.8517,0.00015006,0
4.8522,0.00016164,0
4.8527,0.0001425,0
4.8533,0.00012136,0
4.8538,8.8457e-05,0
4.8543,3.122e-05,0
4.8548,-5.3376e-05,0
4.8553,-0.00020108,0
4.8558,-0.00030968,0
4.8564,-0.00022005,0
4.8569,1.2757e-05,0
4.8574,0.00020327,0
4.8579,0.00026571,0
4.8584,0.00023012,0
4.859,0.000166,0
4.8595,9.7856e-05,0
4.86,1.3931e-05,0
4.8605,-7.4022e-05,0
4.861,-9.987e-05,0
4.8616,-2.9206e-05,0
4.8621,6.4958e-05,0
4.8626,9.5842e-05,0
4.8631,6.0761e-05,0
4.8636,2.9709e-05,0
4.8642,4.3641e-05,0
4.8647,8.2918e-05,0
4.8652,0.0001091,0
4.8657,0.00010541,0
4.8662,7.5868e-05,0
4.8667,4.0116e-05,0
4.8673,1.2085e-05,0
4.8678,-1.4939e-05,0
4.8683,-4.1123e-05,0
4.8688,-5.6062e-05,0
4.8693,-6.4622e-05,0
4.8699,-7.7714e-05,0
4.8704,-9.7185e-05,0
4.8709,-9.8527e-05,0
4.8714,-4.6494e-05,0
4.8719,2.5849e-05,0
4.8725,6.9993e-05,0
4.873,7.6036e-05,0
4.8735,9.6345e-05,0
4.874,0.00016231,0
4.8745,0.0002266,0
4.8751,0.00023197,0
4.8756,0.00018044,0
4.8761,9.4835e-05,0
4.8766,-1.2253e-05,0
4.8771,-7.2847e-05,0
4.8777,-3.9109e-05,0
4.8782,4.8173e-05,0
4.8787,0.00012052,0
4.8792,0.00015862,0
4.8797,0.00016751,0
4.8803,0.00015727,0
4.8808,0.000165,0
4.8813,0.00023079,0
4.8818,0.00031388,0
4.8823,0.00034896,0
4.8828,0.00033419,0
4.8834,0.00026403,0
4.8839,0.00011128,0
4.8844,-0.00011884,0
4.8849,-0.00035802,0
4.8854,-0.00047317,0
4.886,-0.00037011,0
4.8865,-0.00013848,0
4.887,3.6591e-05,0
4.8875,4.5151e-05,0
4.888,-6.6804e-05,0
4.8886,-0.00016701,0
4.8891,-0.00017859,0
4.8896,-0.00012354,0
4.8901,-6.0929e-05,0
4.8906,-1.326e-05,0
4.8912,2.3667e-05,0
4.8917,5.2537e-05,0
4.8922,7.9225e-05,0
4.8927,0.00010306,0
4.8932,0.00010222,0
4.8937,6.5629e-05,0
4.8943,8.7282e-06,0
4.8948,-5.539e-05,0
4.8953,-0.0001274,0
4.8958,-0.00020377,0
4.8963,-0.00027813,0
4.8969,-0.00034107,0
4.8974,-0.00035735,0
4.8979,-0.00030901,0
4.8984,-0.00021367,0
4.8989,-0.00010675,0
4.8995,-2.5513e-05,0
4.9,2.0142e-05,0
4.9005,4.7333e-05,0
4.901,6.8986e-05,0
4.9015,8.3421e-05,0
4.9021,7.7043e-05,0
4.9026,5.1194e-05,0
4.9031,3.2731e-05,0
4.9036,3.0549e-05,0
4.9041,2.2156e-05,0
4.9047,-5.0355e-07,0
4.9052,-3.1052e-05,0
4.9057,-6.6804e-05,0
4.9062,-7.335e-05,0
4.9067,1.8463e-06,0
4.9073,0.000118,0
4.9078,0.00018883,0
4.9083,0.00019756,0
4.9088,0.00018514,0
4.9093,0.00015459,0
4.9098,0.00010004,0
4.9104,6.4286e-05,0
4.9109,7.5364e-05,0
4.9114,0.0001462,0
4.9119,0.00023079,0
4.9124,0.00026403,0
4.913,0.00022509,0
4.9135,0.0001368,0
4.914,2.6688e-05,0
4.9145,-9.2485e-05,0
4.915,-0.0001791,0
4.9156,-0.00017658,0
4.9161,-9.2485e-05,0
4.9166,1.0071e-06,0
4.9171,5.4551e-05,0
4.9176,6.9322e-05,0
4.9182,6.3951e-05,0
4.9187,4.2802e-05,0
4.9192,-3.357e-07,0
4.9197,-5.7908e-05,0
4.9202,-0.0001227,0
4.9207,-0.00015258,0
4.9213,-8.8457e-05,0
4.9218,3.7263e-05,0
4.9223,0.00011363,0
4.9228,7.9728e-05,0
4.9233,-2.1653e-05,0
4.9239,-0.00011363,0
4.9244,-0.0001415,0
4.9249,-6.4118e-05,0
4.9254,0.00010121,0
4.9259,0.00025597,0
4.9265,0.00031136,0
4.927,0.00030028,0
4.9275,0.00029122,0
4.928,0.00028283,0
4.9285,0.00025093,0
4.9291,0.0002031,0
4.9296,0.00015946,0
4.9301,0.00013143,0
4.9306,0.00011565,0
4.9311,0.00010222,0
4.9317,8.6946e-05,0
4.9322,7.335e-05,0
4.9327,6.865e-05,0
4.9332,6.8986e-05,0
4.9337,5.6565e-05,0
4.9342,2.182e-05,0
4.9348,-4.1794e-05,0
4.9353,-0.00011917,0
4.9358,-0.00016466,0
4.9363,-0.0001608,0
4.9368,-0.00014519,0
4.9374,-0.00013982,0
4.9379,-0.00013814,0
4.9384,-0.00014116,0
4.9389,-0.00013378,0
4.9394,-8.7785e-05,0
4.94,-1.1582e-05,0
4.9405,6.3447e-05,0
4.941,0.000118,0
4.9415,0.00014855,0
4.942,0.0001566,0
4.9426,0.00015258,0
4.9431,0.00015023,0
4.9436,0.00014855,0
4.9441,0.00014485,0
4.9446,0.00013948,0
4.9452,0.00012136,0
4.9457,8.6778e-05,0
4.9462,4.5487e-05,0
4.9467,1.326e-05,0
4.9472,-6.8818e-06,0
4.9478,-1.8128e-05,0
4.9483,-1.8799e-05,0
4.9488,-8.2246e-06,0
4.9493,1.6114e-05,0
4.9498,5.2201e-05,0
4.9503,8.8457e-05,0
4.9509,0.00011431,0
4.9514,0.00012136,0
4.9519,9.1981e-05,0
4.9524,1.8631e-05,0
4.9529,-8.04e-05,0
4.9535,-0.0001796,0
4.954,-0.00022828,0
4.9545,-0.00018178,0
4.955,-6.1936e-05,0
4.9555,7.1672e-05,0
4.9561,0.00017171,0
4.9566,0.00021367,0
4.9571,0.00017372,0
4.9576,5.069e-05,0
4.9581,-8.0903e-05,0
4.9587,-0.00016365,0
4.9592,-0.00020847,0
4.9597,-0.00026302,0
4.9602,-0.00037414,0
4.9607,-0.00053796,0
4.9612,-0.00061164,0
4.9618,-0.00049851,0
4.9623,-0.00030364,0
4.9628,-0.00015056,0
4.9633,-5.069e-05,0
4.9638,2.1149e-05,0
4.9644,5.7572e-05,0
4.9649,4.6662e-05,0
4.9654,1.2253e-05,0
4.9659,-8.0568e-06,0
4.9664,-3.8605e-06,0
