2.8303,-0.00014015,0
2.8308,-0.00019756,0
2.8314,-0.00022441,0
2.8319,-0.0001989,0
2.8324,-0.00013277,0
2.8329,-4.4144e-05,0
2.8334,6.4286e-05,0
2.834,0.00018245,0
2.8345,0.00027141,0
2.835,0.00030062,0
2.8355,0.00030297,0
2.836,0.00030834,0
2.8366,0.00028652,0
2.8371,0.00020159,0
2.8376,8.1407e-05,0
2.8381,-1.091e-05,0
2.8386,-4.2802e-05,0
2.8392,-2.417e-05,0
2.8397,8.5603e-06,0
2.8402,3.4409e-05,0
2.8407,4.6662e-05,0
2.8412,4.8173e-05,0
2.8418,3.8102e-05,0
2.8423,9.7353e-06,0
2.8428,-4.0284e-05,0
2.8433,-0.00010071,0
2.8438,-0.0001472,0
2.8443,-0.00015895,0
2.8449,-0.00013478,0
2.8454,-8.9799e-05,0
2.8459,-3.6591e-05,0
2.8464,9.7353e-06,0
2.8469,4.1123e-05,0
2.8475,6.8315e-05,0
2.848,9.1142e-05,0
2.8485,9.5171e-05,0
2.849,7.4022e-05,0
2.8495,2.7192e-05,0
2.8501,-2.9709e-05,0
2.8506,-7.4357e-05,0
2.8511,-0.00010893,0
2.8516,-0.0001331,0
2.8521,-0.00012018,0
2.8527,-7.1504e-05,0
2.8532,-1.7288e-05,0
2.8537,3.3906e-05,0
2.8542,8.1743e-05,0
2.8547,0.00011229,0
2.8552,0.00010524,0
2.8558,8.2414e-05,0
2.8563,8.9128e-05,0
2.8568,0.00015023,0
2.8573,0.00023348,0
2.8578,0.00027897,0
2.8584,0.00026033,0
2.8589,0.0002083,0
2.8594,0.00016768,0
2.8599,0.00014821,0
2.8604,0.00012169,0
2.861,6.1097e-05,0
2.8615,-3.0884e-05,0
2.862,-0.00010188,0
2.8625,-0.00011363,0
2.863,-7.9728e-05,0
2.8636,-3.6591e-05,0
2.8641,-1.5106e-05,0
2.8646,-1.8967e-05,0
2.8651,-3.5416e-05,0
2.8656,-4.6494e-05,0
2.8662,-5.1194e-05,0
2.8667,-5.9586e-05,0
2.8672,-6.8818e-05,0
2.8677,-6.8482e-05,0
2.8682,-6.1433e-05,0
2.8687,-5.623e-05,0
2.8693,-5.6565e-05,0
2.8698,-6.3951e-05,0
2.8703,-6.5629e-05,0
2.8708,-4.8676e-05,0
2.8713,-2.6856e-05,0
2.8719,-3.2395e-05,0
2.8724,-7.7211e-05,0
2.8729,-0.00013982,0
2.8734,-0.00018379,0
2.8739,-0.00017859,0
2.8745,-0.00013579,0
2.875,-9.4835e-05,0
2.8755,-7.1e-05,0
2.876,-5.1865e-05,0
2.8765,-7.5532e-06,0
2.8771,6.4958e-05,0
2.8776,0.00013411,0
2.8781,0.00018581,0
2.8786,0.00023012,0
2.8791,0.00026906,0
2.8797,0.00028988,0
2.8802,0.00028853,0
2.8807,0.00028014,0
2.8812,0.00026184,0
2.8817,0.00020931,0
2.8822,0.00012236,0
2.8828,4.2298e-05,0
2.8833,0,0
2.8838,-4.3641e-06,0
2.8843,1.0239e-05,0
2.8848,1.9974e-05,0
2.8854,1.9638e-05,0
2.8859,1.2757e-05,0
2.8864,-3.5248e-06,0
2.8869,-2.6017e-05,0
2.8874,-4.1794e-05,0
2.888,-4.7501e-05,0
2.8885,-5.2369e-05,0
2.889,-6.3615e-05,0
2.8895,-8.275e-05,0
2.89,-9.7688e-05,0
2.8906,-8.8792e-05,0
2.8911,-5.6565e-05,0
2.8916,-2.2995e-05,0
2.8921,-5.539e-06,0
2.8926,5.0355e-07,0
2.8932,-2.8534e-06,0
2.8937,-1.796e-05,0
2.8942,-3.743e-05,0
2.8947,-5.0523e-05,0
2.8952,-5.388e-05,0
2.8958,-4.683e-05,0
2.8963,-3.4745e-05,0
2.8968,-2.5177e-05,0
2.8973,-1.4939e-05,0
2.8978,-1.1749e-06,0
2.8983,9.9031e-06,0
2.8989,1.3092e-05,0
2.8994,1.2085e-05,0
2.8999,1.9974e-05,0
2.9004,4.9516e-05,0
2.9009,8.1239e-05,0
2.9015,8.7114e-05,0
2.902,7.2343e-05,0
2.9025,6.1601e-05,0
2.903,5.8747e-05,0
2.9035,4.7837e-05,0
2.9041,3.122e-05,0
2.9046,2.3331e-05,0
2.9051,3.743e-05,0
2.9056,7.0665e-05,0
2.9061,0.00010591,0
2.9067,0.00014083,0
2.9072,0.00016667,0
2.9077,0.00016432,0
2.9082,0.00014083,0
2.9087,0.00011464,0
2.9093,9.4163e-05,0
2.9098,7.2343e-05,0
2.9103,4.7166e-05,0
2.9108,2.8702e-05,0
2.9113,2.5849e-05,0
2.9118,2.9709e-05,0
2.9124,1.9638e-05,0
2.9129,-8.5603e-06,0
2.9134,-5.3208e-05,0
2.9139,-0.00010356,0
2.9144,-0.00013176,0
2.915,-0.00013344,0
2.9155,-0.00013344,0
2.916,-0.00014166,0
2.9165,-0.00014267,0
2.917,-0.00012387,0
2.9176,-9.3492e-05,0
2.9181,-6.8482e-05,0
2.9186,-4.3809e-05,0
2.9191,-1.9638e-05,0
2.9196,8.3925e-07,0
2.9202,2.1317e-05,0
2.9207,5.7572e-05,0
2.9212,0.00010994,0
2.9217,0.00015106,0
2.9222,0.00015979,0
2.9228,0.00015207,0
2.9233,0.00015291,0
2.9238,0.0001707,0
2.9243,0.00018648,0
2.9248,0.00017339,0
2.9253,0.00013059,0
2.9259,8.4428e-05,0
2.9264,4.9683e-05,0
2.9269,3.0045e-05,0
2.9274,2.266e-05,0
2.9279,2.1988e-05,0
2.9285,2.0981e-05,0
2.929,1.2589e-05,0
2.9295,-1.1749e-06,0
2.93,-1.6953e-05,0
2.9305,-3.2395e-05,0
2.9311,-4.1459e-05,0
2.9316,-4.6159e-05,0
2.9321,-4.4816e-05,0
2.9326,-3.6927e-05,0
2.9331,-2.2995e-05,0
2.9337,-1.3931e-05,0
2.9342,-2.9877e-05,0
2.9347,-5.8747e-05,0
2.9352,-6.4622e-05,0
2.9357,-4.2298e-05,0
2.9362,-1.561e-05,0
2.9368,-9.5674e-06,0
2.9373,-2.2324e-05,0
2.9378,-2.2492e-05,0
2.9383,6.3783e-06,0
2.9388,5.1026e-05,0
2.9394,9.1981e-05,0
2.9399,0.00011061,0
2.9404,0.0001039,0
2.9409,8.3085e-05,0
2.9414,6.0594e-05,0
2.942,4.5319e-05,0
2.9425,3.508e-05,0
2.943,2.9374e-05,0
2.9435,2.6352e-05,0
2.944,1.4267e-05,0
2.9446,-1.0239e-05,0
2.9451,-3.6088e-05,0
2.9456,-5.0019e-05,0
2.9461,-4.3809e-05,0
2.9466,-1.7624e-05,0
2.9472,4.8676e-06,0
2.9477,-1.2924e-05,0
2.9482,-7.9561e-05,0
2.9487,-0.0001467,0
2.9492,-0.00016365,0
2.9497,-0.00012992,0
2.9503,-7.8721e-05,0
2.9508,-3.4073e-05,0
2.9513,8.3925e-07,0
2.9518,3.8102e-05,0
2.9523,9.8192e-05,0
2.9529,0.00017893,0
2.9534,0.00025077,0
2.9539,0.00029525,0
2.9544,0.00029055,0
2.9549,0.00022995,0
2.9555,0.00016181,0
2.956,0.00013059,0
2.9565,0.00013126,0
2.957,0.00011464,0
2.9575,5.0019e-05,0
2.9581,-3.9109e-05,0
2.9586,-0.00010675,0
2.9591,-0.00013394,0
2.9596,-0.00014234,0
2.9601,-0.00015006,0
2.9607,-0.00016248,0
2.9612,-0.00018614,0
2.9617,-0.0001989,0
2.9622,-0.00016298,0
2.9627,-7.1504e-05,0
2.9632,4.918e-05,0
2.9638,0.00016164,0
2.9643,0.00024036,0
2.9648,0.00027913,0
2.9653,0.00027678,0
2.9658,0.00022676,0
2.9664,0.00014905,0
2.9669,9.3492e-05,0
2.9674,8.0903e-05,0
2.9679,8.1407e-05,0
2.9684,6.1433e-05,0
2.969,3.0213e-05,0
2.9695,2.0981e-05,0
2.97,3.7934e-05,0
2.9705,4.683e-05,0
2.971,2.7192e-05,0
2.9716,-4.5319e-06,0
2.9721,-2.9038e-05,0
2.9726,-4.8844e-05,0
2.9731,-7.7211e-05,0
2.9736,-9.9199e-05,0
2.9742,-9.4835e-05,0
2.9747,-7.7714e-05,0
2.9752,-7.9393e-05,0
2.9757,-0.00011095,0
2.9762,-0.00014183,0
2.9768,-0.00013075,0
2.9773,-7.5868e-05,0
2.9778,-1.0575e-05,0
2.9783,4.448e-05,0
2.9788,8.1575e-05,0
2.9793,9.8863e-05,0
2.9799,0.00010222,0
2.9804,0.00010759,0
2.9809,0.00012471,0
2.9814,0.00013596,0
2.9819,0.000118,0
2.9825,7.1672e-05,0
2.983,1.561e-05,0
2.9835,-2.3667e-05,0
2.984,-3.8437e-05,0
2.9845,-4.1794e-05,0
2.9851,-4.5151e-05,0
2.9856,-4.4648e-05,0
2.9861,-3.122e-05,0
2.9866,-2.1988e-05,0
2.9871,-3.1724e-05,0
2.9877,-4.8005e-05,0
2.9882,-5.2537e-05,0
2.9887,-3.4577e-05,0
2.9892,-6.8818e-06,0
2.9897,1.5106e-06,0
2.9903,-7.5532e-06,0
2.9908,-8.2246e-06,0
2.9913,1.091e-05,0
2.9918,4.2466e-05,0
2.9923,6.5965e-05,0
2.9928,6.8147e-05,0
2.9934,5.6733e-05,0
2.9939,4.8005e-05,0
2.9944,4.5151e-05,0
2.9949,4.0116e-05,0
2.9954,2.7527e-05,0
2.996,5.0355e-06,0
2.9965,-1.9974e-05,0
2.997,-4.5151e-05,0
2.9975,-7.6036e-05,0
2.998,-0.00011766,0
2.9986,-0.00015862,0
2.9991,-0.00016617,0
2.9996,-0.00012992,0
3.0001,-7.57e-05,0
3.0006,-3.0381e-05,0
3.0012,1.7288e-05,0
3.0017,7.8553e-05,0
3.0022,0.00014318,0
3.0027,0.0002083,0
3.0032,0.0002501,0
3.0038,0.00024607,0
3.0043,0.00019722,0
3.0048,0.00011766,0
3.0053,5.0019e-05,0
3.0058,2.2492e-05,0
3.0063,2.6352e-05,0
3.0069,4.5823e-05,0
3.0074,6.7308e-05,0
3.0079,6.5461e-05,0
3.0084,2.9374e-05,0
3.0089,-7.7211e-06,0
3.0095,-2.8534e-06,0
3.01,3.6088e-05,0
3.0105,6.4118e-05,0
3.011,6.244e-05,0
3.0115,3.9109e-05,0
3.0121,3.6927e-06,0
3.0126,-3.3738e-05,0
3.0131,-4.9851e-05,0
3.0136,-3.7766e-05,0
3.0141,-2.0478e-05,0
3.0147,-1.8631e-05,0
3.0152,-3.592e-05,0
3.0157,-5.3712e-05,0
3.0162,-5.7572e-05,0
3.0167,-7.5364e-05,0
3.0173,-0.00010826,0
3.0178,-0.00013075,0
3.0183,-0.00012908,0
3.0188,-0.00010591,0
3.0193,-7.2679e-05,0
3.0198,-1.6281e-05,0
3.0204,6.5629e-05,0
3.0209,0.00014754,0
3.0214,0.00019554,0
3.0219,0.00021032,0
3.0224,0.00022341,0
3.023,0.0002506,0
3.0235,0.00026537,0
3.024,0.00023415,0
3.0245,0.00016231,0
3.025,9.3828e-05,0
3.0256,6.9322e-05,0
3.0261,8.275e-05,0
3.0266,0.00010121,0
3.0271,0.00010088,0
3.0276,7.8553e-05,0
3.0282,3.9445e-05,0
3.0287,-6.3783e-06,0
3.0292,-4.6662e-05,0
3.0297,-6.7979e-05,0
3.0302,-6.7979e-05,0
3.0307,-6.1265e-05,0
3.0313,-7.0497e-05,0
3.0318,-0.00010574,0
3.0323,-0.00014771,0
3.0328,-0.00017507,0
3.0333,-0.00018379,0
3.0339,-0.00017305,0
3.0344,-0.00013478,0
3.0349,-7.2679e-05,0
3.0354,-5.2033e-06,0
3.0359,5.388e-05,0
3.0365,0.00011128,0
3.037,0.00015962,0
3.0375,0.00017691,0
3.038,0.00016298,0
3.0385,0.00012673,0
3.0391,7.6371e-05,0
3.0396,2.5345e-05,0
3.0401,-1.5946e-05,0
3.0406,-4.5151e-05,0
3.0411,-5.6901e-05,0
3.0417,-4.448e-05,0
3.0422,-7.3854e-06,0
3.0427,2.3499e-05,0
3.0432,8.5603e-06,0
3.0437,-6.6972e-05,0
3.0442,-0.00017406,0
3.0448,-0.000236,0
3.0453,-0.00020713,0
3.0458,-0.00013008,0
3.0463,-6.8986e-05,0
3.0468,-2.7695e-05,0
3.0474,3.592e-05,0
3.0479,0.0001378,0
3.0484,0.00025866,0
3.0489,0.00038186,0
3.0494,0.00047887,0
3.05,0.00050573,0
3.0505,0.00044933,0
3.051,0.00034359,0
3.0515,0.00022811,0
3.052,0.00011615,0
3.0526,1.4603e-05,0
3.0531,-6.865e-05,0
3.0536,-0.00011431,0
3.0541,-0.00011817,0
3.0546,-0.00010054,0
3.0552,-9.0471e-05,0
3.0557,-9.4499e-05,0
3.0562,-9.6345e-05,0
3.0567,-8.6107e-05,0
3.0572,-6.0929e-05,0
3.0577,-2.652e-05,0
3.0583,-9.0639e-06,0
3.0588,-2.2492e-05,0
3.0593,-5.2201e-05,0
3.0598,-7.7379e-05,0
3.0603,-8.3589e-05,0
3.0609,-7.4861e-05,0
3.0614,-6.3951e-05,0
3.0619,-5.9419e-05,0
3.0624,-4.9012e-05,0
3.0629,-1.4939e-05,0
3.0635,3.0716e-05,0
3.064,4.9012e-05,0
3.0645,3.9277e-05,0
3.065,4.0955e-05,0
3.0655,8.191e-05,0
3.0661,0.0001373,0
3.0666,0.00017507,0
3.0671,0.00018682,0
3.0676,0.00018782,0
3.0681,0.00018547,0
3.0687,0.00016701,0
3.0692,0.00011397,0
3.0697,4.9851e-05,0
3.0702,4.1962e-06,0
3.0707,-2.9709e-05,0
3.0713,-6.4958e-05,0
3.0718,-9.4163e-05,0
3.0723,-0.00012924,0
3.0728,-0.00019789,0
3.0733,-0.00029189,0
3.0738,-0.00036172,0
3.0744,-0.00037028,0
3.0749,-0.00032177,0
3.0754,-0.00026369,0
3.0759,-0.0002365,0
3.0764,-0.00020511,0
3.077,-0.00012471,0
3.0775,-6.3783e-06,0
3.078,0.00011699,0
3.0785,0.00021904,0
3.079,0.00027477,0
3.0796,0.00027628,0
3.0801,0.00024623,0
3.0806,0.00021401,0
3.0811,0.00018228,0
3.0816,0.00013764,0
3.0822,8.9799e-05,0
3.0827,5.539e-05,0
3.0832,3.7766e-05,0
3.0837,2.4002e-05,0
3.0842,4.6998e-06,0
3.0848,-1.7456e-05,0
3.0853,-3.6591e-05,0
3.0858,-4.9683e-05,0
3.0863,-5.2201e-05,0
3.0868,-4.4312e-05,0
3.0873,-3.508e-05,0
3.0879,-3.2395e-05,0
3.0884,-3.4913e-05,0
3.0889,-4.1794e-05,0
3.0894,-5.8076e-05,0
3.0899,-8.5435e-05,0
3.0905,-0.00010893,0
3.091,-0.00010994,0
3.0915,-8.7785e-05,0
3.092,-4.2466e-05,0
3.0925,2.6184e-05,0
3.0931,0.00010105,0
3.0936,0.00016533,0
3.0941,0.00022441,0
3.0946,0.00027175,0
3.0951,0.00029995,0
3.0957,0.00029155,0
3.0962,0.00021686,0
3.0967,0.00011833,0
3.0972,7.0329e-05,0
3.0977,8.9128e-05,0
3.0983,0.00012874,0
3.0988,0.0001425,0
3.0993,0.00012824,0
3.0998,0.0001086,0
3.1003,8.6946e-05,0
3.1008,6.8818e-05,0
3.1014,6.8986e-05,0
3.1019,7.6875e-05,0
3.1024,5.4215e-05,0
3.1029,-3.0213e-06,0
3.1034,-5.8915e-05,0
3.104,-8.5771e-05,0
3.1045,-8.1407e-05,0
3.105,-5.388e-05,0
3.1055,-2.1988e-05,0
3.106,-8.896e-06,0
3.1066,-1.8296e-05,0
3.1071,-4.1794e-05,0
3.1076,-6.6804e-05,0
3.1081,-9.0639e-05,0
3.1086,-0.00011682,0
3.1092,-0.00014536,0
3.1097,-0.00017053,0
3.1102,-0.00017742,0
3.1107,-0.00015358,0
3.1112,-0.00010021,0
3.1117,-3.6591e-05,0
3.1123,4.1962e-06,0
3.1128,7.8889e-06,0
3.1133,1.1917e-05,0
3.1138,5.623e-05,0
3.1143,0.00012438,0
3.1149,0.00017137,0
3.1154,0.00018447,0
3.1159,0.00017339,0
3.1164,0.00015341,0
3.1169,0.00013982,0
3.1175,0.00015023,0
3.118,0.00017842,0
3.1185,0.00019991,0
3.119,0.00020125,0
3.1195,0.00017574,0
3.1201,0.00013008,0
3.1206,8.5603e-05,0
3.1211,6.9322e-05,0
3.1216,7.6204e-05,0
3.1221,5.8915e-05,0
3.1227,3.8605e-06,0
3.1232,-3.508e-05,0
3.1237,-1.9638e-05,0
3.1242,2.0478e-05,0
3.1247,3.4073e-05,0
3.1252,8.5603e-06,0
3.1258,-3.6591e-05,0
3.1263,-7.8218e-05,0
3.1268,-0.00010155,0
3.1273,-0.00011246,0
3.1278,-0.00012438,0
3.1284,-0.00012908,0
3.1289,-0.00012757,0
3.1294,-0.00013008,0
3.1299,-0.00014687,0
3.1304,-0.0001749,0
3.131,-0.00018413,0
3.1315,-0.0001462,0
3.132,-8.7449e-05,0
3.1325,-4.8173e-05,0
3.133,-3.2563e-05,0
3.1336,-1.5106e-05,0
3.1341,2.0981e-05,0
3.1346,6.63e-05,0
3.1351,0.00012001,0
3.1356,0.00017423,0
3.1362,0.00018312,0
3.1367,0.00012102,0
3.1372,3.2731e-05,0
3.1377,-2.0981e-05,0
3.1382,-3.2059e-05,0
3.1387,-2.2492e-05,0
3.1393,5.7069e-06,0
3.1398,4.2802e-05,0
3.1403,6.4622e-05,0
3.1408,5.8915e-05,0
3.1413,3.7766e-05,0
3.1419,2.9206e-05,0
3.1424,4.7333e-05,0
3.1429,7.1504e-05,0
3.1434,7.8218e-05,0
3.1439,6.63e-05,0
3.1445,4.5487e-05,0
3.145,2.501e-05,0
3.1455,9.9031e-06,0
3.146,-1.0071e-06,0
3.1465,-8.896e-06,0
3.1471,-1.9471e-05,0
3.1476,-3.2731e-05,0
3.1481,-3.6088e-05,0
3.1486,-2.1988e-05,0
3.1491,6.8818e-06,0
3.1497,4.0116e-05,0
3.1502,6.244e-05,0
3.1507,6.2943e-05,0
3.1512,4.9851e-05,0
3.1517,3.8773e-05,0
3.1522,3.9277e-05,0
3.1528,4.2802e-05,0
3.1533,4.7166e-05,0
3.1538,5.8244e-05,0
3.1543,6.5293e-05,0
3.1548,6.9322e-05,0
3.1554,8.51e-05,0
3.1559,0.00010927,0
3.1564,0.0001138,0
3.1569,7.9728e-05,0
3.1574,2.4674e-05,0
3.158,-2.2995e-05,0
3.1585,-5.4047e-05,0
3.159,-6.9657e-05,0
3.1595,-6.6636e-05,0
3.16,-4.213e-05,0
3.1606,-8.896e-06,0
3.1611,1.3596e-05,0
3.1616,3.5248e-05,0
3.1621,7.5029e-05,0
3.1626,0.00011901,0
3.1632,0.0001415,0
3.1637,0.0001331,0
3.1642,9.6849e-05,0
3.1647,4.8173e-05,0
3.1652,1.7121e-05,0
3.1658,1.7792e-05,0
3.1663,2.8031e-05,0
3.1668,2.3667e-05,0
3.1673,2.3499e-06,0
3.1678,-2.2492e-05,0
3.1683,-3.7095e-05,0
3.1689,-3.6927e-05,0
3.1694,-3.0045e-05,0
3.1699,-2.3667e-05,0
3.1704,-2.1988e-05,0
3.1709,-2.5177e-05,0
3.1715,-3.3066e-05,0
3.172,-4.5823e-05,0
3.1725,-5.7572e-05,0
3.173,-5.6565e-05,0
3.1735,-4.8173e-05,0
3.1741,-4.3473e-05,0
3.1746,-2.8702e-05,0
3.1751,-1.3428e-06,0
3.1756,1.9806e-05,0
3.1761,1.0239e-05,0
3.1767,-3.6927e-05,0
3.1772,-0.00010088,0
3.1777,-0.00013428,0
3.1782,-9.2988e-05,0
3.1787,-1.0071e-05,0
3.1793,3.7934e-05,0
3.1798,4.062e-05,0
3.1803,4.5487e-05,0
3.1808,8.9799e-05,0
3.1813,0.00018245,0
3.1818,0.0003127,0
3.1824,0.00041946,0
3.1829,0.00041946,0
3.1834,0.00031136,0
3.1839,0.00016751,0
3.1844,5.1194e-05,0
3.185,-1.3092e-05,0
3.1855,-5.2537e-05,0
3.186,-9.1646e-05,0
3.1865,-0.00011263,0
3.187,-9.1478e-05,0
3.1876,-4.9683e-05,0
3.1881,-2.7024e-05,0
3.1886,-2.9206e-05,0
3.1891,-4.2298e-05,0
3.1896,-4.918e-05,0
3.1902,-4.3473e-05,0
3.1907,-3.6927e-05,0
3.1912,-3.4073e-05,0
3.1917,-3.0716e-05,0
3.1922,-2.8367e-05,0
3.1928,-2.3835e-05,0
3.1933,-1.3764e-05,0
3.1938,-3.357e-06,0
3.1943,-3.357e-06,0
3.1948,-1.6617e-05,0
3.1953,-2.1317e-05,0
3.1959,6.5461e-06,0
3.1964,6.5965e-05,0
3.1969,0.00012203,0
3.1974,0.00014083,0
3.1979,0.00013411,0
3.1985,0.00012975,0
3.199,0.00012102,0
3.1995,8.7449e-05,0
3.2,2.4674e-05,0
3.2005,-4.7166e-05,0
3.2011,-0.00010491,0
3.2016,-0.00013059,0
3.2021,-0.00012555,0
3.2026,-0.00010759,0
3.2031,-9.7185e-05,0
3.2037,-0.00010289,0
3.2042,-0.00010256,0
3.2047,-6.1936e-05,0
3.2052,1.4267e-05,0
3.2057,8.6946e-05,0
3.2062,0.00011682,0
3.2068,0.00011145,0
3.2073,0.00010642,0
3.2078,0.00010927,0
3.2083,0.00011598,0
3.2088,0.00012337,0
3.2094,0.00012219,0
3.2099,0.00010172,0
3.2104,6.2272e-05,0
3.2109,1.8463e-05,0
3.2114,-1.8967e-05,0
3.212,-5.4215e-05,0
3.2125,-9.0303e-05,0
3.213,-0.0001185,0
3.2135,-0.00011766,0
3.214,-9.0806e-05,0
3.2146,-7.1839e-05,0
3.2151,-7.335e-05,0
3.2156,-7.4693e-05,0
3.2161,-6.0258e-05,0
3.2166,-2.7695e-05,0
3.2172,6.2104e-06,0
3.2177,1.7121e-05,0
3.2182,9.2317e-06,0
3.2187,1.9303e-05,0
3.2192,6.8986e-05,0
3.2197,0.0001425,0
3.2203,0.00020159,0
3.2208,0.00021736,0
3.2213,0.00018598,0
3.2218,0.00012538,0
3.2223,3.6927e-05,0
3.2229,-6.4622e-05,0
3.2234,-0.000142,0
3.2239,-0.00018312,0
3.2244,-0.00018514,0
3.2249,-0.0001556,0
3.2255,-0.00011968,0
3.226,-9.8863e-05,0
3.2265,-9.2653e-05,0
3.227,-6.9993e-05,0
3.2275,6.2104e-06,0
3.2281,0.00011296,0
3.2286,0.00018178,0
3.2291,0.0001702,0
3.2296,0.00010726,0
3.2301,5.623e-05,0
3.2307,4.683e-05,0
3.2312,6.0426e-05,0
3.2317,6.8147e-05,0
3.2322,6.0258e-05,0
3.2327,3.743e-05,0
3.2332,1.4603e-05,0
3.2338,1.1582e-05,0
3.2343,1.3764e-05,0
3.2348,-1.6617e-05,0
3.2353,-7.5532e-05,0
3.2358,-0.00011817,0
3.2364,-0.00012438,0
3.2369,-0.00010491,0
3.2374,-4.5487e-05,0
3.2379,6.6636e-05,0
3.2384,0.00018514,0
3.239,0.00026571,0
3.2395,0.0003221,0
3.24,0.00038236,0
3.2405,0.00042147,0
3.241,0.00038924,0
3.2416,0.00029155,0
3.2421,0.0001848,0
3.2426,0.00011917,0
3.2431,8.8457e-05,0
3.2436,7.8889e-05,0
3.2442,8.04e-05,0
3.2447,7.2175e-05,0
3.2452,4.5151e-05,0
3.2457,-3.5248e-06,0
3.2462,-5.6565e-05,0
3.2468,-8.7449e-05,0
3.2473,-9.752e-05,0
3.2478,-0.00011162,0
3.2483,-0.0001425,0
3.2488,-0.00017792,0
3.2493,-0.00020024,0
3.2499,-0.00019387,0
3.2504,-0.000165,0
3.2509,-0.0001274,0
3.2514,-8.9128e-05,0
3.2519,-4.0452e-05,0
3.2525,1.8967e-05,0
3.253,6.0929e-05,0
3.2535,7.2007e-05,0
3.254,6.7811e-05,0
3.2545,6.63e-05,0
3.2551,6.1601e-05,0
3.2556,3.6759e-05,0
3.2561,-8.896e-06,0
3.2566,-5.5558e-05,0
3.2571,-8.6275e-05,0
3.2577,-8.7953e-05,0
3.2582,-5.4887e-05,0
3.2587,-1.1749e-06,0
3.2592,4.6326e-05,0
3.2597,7.8218e-05,0
3.2603,0.00010591,0
3.2608,0.00013008,0
3.2613,0.00013478,0
3.2618,0.00010507,0
3.2623,4.918e-05,0
3.2628,-3.8605e-06,0
3.2634,-5.539e-05,0
3.2639,-0.00012572,0
3.2644,-0.0001801,0
3.2649,-0.00017574,0
3.2654,-0.0001279,0
3.266,-7.0665e-05,0
3.2665,-2.1149e-05,0
3.267,3.0381e-05,0
3.2675,8.51e-05,0
3.268,0.00012421,0
3.2686,0.0001368,0
3.2691,0.00012874,0
3.2696,0.00010457,0
3.2701,6.1936e-05,0
3.2706,1.0239e-05,0
3.2712,-3.2898e-05,0
3.2717,-5.5055e-05,0
3.2722,-4.918e-05,0
3.2727,-2.652e-05,0
3.2732,-1.5778e-05,0
3.2738,-2.3499e-05,0
3.2743,-3.2898e-05,0
3.2748,-2.3667e-05,0
3.2753,4.8676e-06,0
3.2758,2.8702e-05,0
3.2763,4.2802e-05,0
3.2769,6.5293e-05,0
3.2774,9.2149e-05,0
3.2779,9.9199e-05,0
3.2784,8.1743e-05,0
3.2789,5.4215e-05,0
3.2795,3.4073e-05,0
3.28,3.6591e-05,0
3.2805,6.1265e-05,0
3.281,8.8457e-05,0
3.2815,0.00010558,0
3.2821,0.00010021,0
3.2826,6.1601e-05,0
3.2831,1.1917e-05,0
3.2836,-1.3596e-05,0
3.2841,-3.1052e-05,0
3.2847,-5.5894e-05,0
3.2852,-7.9057e-05,0
3.2857,-8.4764e-05,0
3.2862,-8.0232e-05,0
3.2867,-9.1478e-05,0
3.2872,-0.00010272,0
3.2878,-7.5868e-05,0
3.2883,3.357e-06,0
3.2888,0.00011095,0
3.2893,0.00020259,0
3.2898,0.00025127,0
3.2904,0.00025295,0
3.2909,0.00020662,0
3.2914,0.00013646,0
3.2919,8.275e-05,0
3.2924,5.8076e-05,0
3.293,4.2802e-05,0
3.2935,1.4603e-05,0
3.294,-2.1988e-05,0
3.2945,-5.1194e-05,0
3.295,-7.6204e-05,0
3.2956,-0.00011565,0
3.2961,-0.00015224,0
3.2966,-0.00015677,0
3.2971,-0.0001425,0
3.2976,-0.0001368,0
3.2982,-0.00013881,0
3.2987,-0.00012706,0
3.2992,-9.1646e-05,0
3.2997,-4.0284e-05,0
3.3002,6.2104e-06,0
3.3007,4.2466e-05,0
3.3013,7.7714e-05,0
3.3018,0.00011347,0
3.3023,0.00013411,0
3.3028,0.0001378,0
3.3033,0.00014368,0
3.3039,0.00014922,0
3.3044,0.00013109,0
3.3049,8.5603e-05,0
3.3054,4.7333e-05,0
3.3059,5.0858e-05,0
3.3065,8.51e-05,0
3.307,0.00011867,0
3.3075,0.00014217,0
3.308,0.00016768,0
3.3085,0.00018044,0
3.3091,0.00015459,0
3.3096,9.6178e-05,0
3.3101,3.978e-05,0
3.3106,1.4603e-05,0
3.3111,2.6184e-05,0
3.3117,4.8508e-05,0
3.3122,4.4816e-05,0
3.3127,-7.5532e-06,0
3.3132,-9.0471e-05,0
3.3137,-0.00015409,0
3.3142,-0.0001702,0
3.3148,-0.00016046,0
3.3153,-0.00015627,0
3.3158,-0.00016197,0
3.3163,-0.00015325,0
3.3168,-0.00010759,0
3.3174,-3.357e-05,0
3.3179,4.918e-05,0
3.3184,0.00012505,0
3.3189,0.00017423,0
3.3194,0.00018514,0
3.32,0.00016231,0
3.3205,0.00013143,0
3.321,0.00012337,0
3.3215,0.00012908,0
3.322,0.000118,0
3.3226,7.335e-05,0
3.3231,-1.3931e-05,0
3.3236,-9.8192e-05,0
3.3241,-0.00012555,0
3.3246,-9.1142e-05,0
3.3252,-2.2995e-05,0
3.3257,3.9612e-05,0
3.3262,7.2679e-05,0
3.3267,8.3589e-05,0
3.3272,8.0735e-05,0
3.3277,7.7043e-05,0
3.3283,9.1814e-05,0
3.3288,0.00011598,0
3.3293,9.5171e-05,0
3.3298,-8.3925e-07,0
3.3303,-0.00010809,0
3.3309,-0.0001603,0
3.3314,-0.00017356,0
3.3319,-0.00020327,0
3.3324,-0.00024892,0
3.3329,-0.00026184,0
3.3335,-0.00021535,0
3.334,-0.00013646,0
3.3345,-7.2343e-05,0
3.335,-2.4338e-05,0
3.3355,2.8199e-05,0
3.3361,8.9464e-05,0
3.3366,0.00014284,0
3.3371,0.00017154,0
3.3376,0.00016902,0
3.3381,0.00013008,0
3.3387,7.805e-05,0
3.3392,3.978e-05,0
3.3397,2.4002e-05,0
3.3402,2.7192e-05,0
3.3407,4.5151e-05,0
3.3413,7.9057e-05,0
3.3418,0.00013176,0
3.3423,0.000189,0
3.3428,0.00023046,0
3.3433,0.00024288,0
3.3438,0.00020914,0
3.3444,0.00014653,0
3.3449,9.5171e-05,0
3.3454,4.9851e-05,0
3.3459,-1.8463e-06,0
3.3464,-3.4409e-05,0
3.347,-3.0381e-05,0
3.3475,-1.2421e-05,0
3.348,-7.5532e-06,0
3.3485,-1.8631e-05,0
3.349,-3.743e-05,0
3.3496,-5.4887e-05,0
3.3501,-7.335e-05,0
3.3506,-9.1814e-05,0
3.3511,-0.00010373,0
3.3516,-0.00011716,0
3.3522,-0.00013948,0
3.3527,-0.00016164,0
3.3532,-0.00015358,0
3.3537,-0.00010121,0
3.3542,-2.9877e-05,0
3.3548,2.7024e-05,0
3.3553,5.5222e-05,0
3.3558,6.1433e-05,0
3.3563,5.774e-05,0
3.3568,5.7237e-05,0
3.3573,6.8818e-05,0
3.3579,8.3589e-05,0
3.3584,8.1071e-05,0
3.3589,5.8915e-05,0
3.3594,3.3066e-05,0
3.3599,1.4603e-05,0
3.3605,-5.0355e-07,0
3.361,-1.091e-05,0
3.3615,-2.6856e-06,0
3.362,2.0645e-05,0
3.3625,3.4409e-05,0
3.3631,2.7192e-05,0
3.3636,2.8031e-05,0
3.3641,6.1936e-05,0
3.3646,0.00010088,0
3.3651,0.00011749,0
3.3657,0.0001138,0
3.3662,0.00011498,0
3.3667,0.00014301,0
3.3672,0.00017641,0
3.3677,0.00016852,0
3.3683,0.00010172,0
3.3688,1.9303e-05,0
3.3693,-4.5487e-05,0
3.3698,-9.6178e-05,0
3.3703,-0.00013931,0
3.3708,-0.00015744,0
3.3714,-0.00014469,0
3.3719,-0.00011968,0
3.3724,-0.00010407,0
3.3729,-8.4092e-05,0
3.3734,-3.8773e-05,0
3.374,2.5177e-05,0
3.3745,9.0639e-05,0
3.375,0.00013545,0
3.3755,0.00012001,0
3.376,4.1794e-05,0
3.3766,-2.5849e-05,0
3.3771,-1.4267e-05,0
3.3776,5.7572e-05,0
3.3781,0.00011162,0
3.3786,0.00012538,0
3.3792,0.00014284,0
3.3797,0.00018614,0
3.3802,0.00022911,0
3.3807,0.00024691,0
3.3812,0.00024959,0
3.3817,0.00023717,0
3.3823,0.00019319,0
3.3828,0.00012152,0
3.3833,3.978e-05,0
3.3838,-4.4312e-05,0
3.3843,-0.00012303,0
3.3849,-0.00018749,0
3.3854,-0.00022844,0
3.3859,-0.00022576,0
3.3864,-0.00018715,0
3.3869,-0.00015694,0
3.3875,-0.00014603,0
3.388,-0.00013059,0
3.3885,-0.00010054,0
3.389,-6.8315e-05,0
3.3895,-5.3208e-05,0
3.3901,-6.0258e-05,0
3.3906,-6.4118e-05,0
3.3911,-4.5823e-05,0
3.3916,-1.8967e-05,0
3.3921,2.0142e-06,0
3.3927,2.2995e-05,0
3.3932,4.683e-05,0
3.3937,6.0258e-05,0
3.3942,6.5461e-05,0
3.3947,8.1743e-05,0
3.3952,0.00011397,0
3.3958,0.00013143,0
3.3963,0.0001086,0
3.3968,5.9419e-05,0
3.3973,1.561e-05,0
3.3978,-1.3428e-06,0
3.3984,5.2033e-06,0
3.3989,1.4603e-05,0
3.3994,-1.0071e-06,0
3.3999,-4.448e-05,0
3.4004,-8.6107e-05,0
3.401,-0.00010188,0
3.4015,-9.2485e-05,0
3.402,-6.865e-05,0
3.4025,-3.0716e-05,0
3.403,1.561e-05,0
3.4036,4.9516e-05,0
3.4041,6.714e-05,0
3.4046,8.3085e-05,0
3.4051,0.00010188,0
3.4056,0.00011699,0
3.4062,0.00011934,0
3.4067,0.00011901,0
3.4072,0.00012203,0
3.4077,0.00011766,0
3.4082,9.3156e-05,0
3.4087,6.5629e-05,0
3.4093,5.623e-05,0
3.4098,6.0929e-05,0
3.4103,6.8147e-05,0
3.4108,7.9393e-05,0
3.4113,8.661e-05,0
3.4119,6.2776e-05,0
3.4124,1.1246e-05,0
3.4129,-2.3331e-05,0
3.4134,-7.5532e-06,0
3.4139,4.3473e-05,0
3.4145,8.51e-05,0
3.415,8.9799e-05,0
3.4155,6.8818e-05,0
3.416,5.0187e-05,0
3.4165,4.7166e-05,0
3.4171,4.683e-05,0
3.4176,4.0452e-05,0
3.4181,3.2731e-05,0
3.4186,1.7288e-05,0
3.4191,-2.501e-05,0
3.4197,-0.00010256,0
3.4202,-0.00018648,0
3.4207,-0.0002219,0
3.4212,-0.00020243,0
3.4217,-0.00018329,0
3.4223,-0.00019135,0
3.4228,-0.00018262,0
3.4233,-0.00011666,0
3.4238,-9.5674e-06,0
3.4243,0.00011431,0
3.4248,0.00022643,0
3.4254,0.00028988,0
3.4259,0.00028098,0
3.4264,0.00021804,0
3.4269,0.00014955,0
3.4274,0.00011347,0
3.428,0.00011733,0
3.4285,0.00013277,0
3.429,0.00013764,0
3.4295,0.00013092,0
3.43,0.00011095,0
3.4306,8.1743e-05,0
3.4311,5.5894e-05,0
3.4316,3.2731e-05,0
3.4321,6.8818e-06,0
3.4326,-1.2085e-05,0
3.4332,-2.5345e-05,0
3.4337,-6.1265e-05,0
3.4342,-0.00011666,0
3.4347,-0.0001509,0
3.4352,-0.00014821,0
3.4358,-0.00011615,0
3.4363,-6.9322e-05,0
3.4368,-4.3641e-05,0
3.4373,-6.6468e-05,0
3.4378,-0.00011598,0
3.4383,-0.00013529,0
3.4389,-9.8024e-05,0
3.4394,-2.266e-05,0
3.4399,5.153e-05,0
3.4404,9.9535e-05,0
3.4409,0.00011397,0
3.4415,0.00010105,0
3.442,9.1142e-05,0
3.4425,0.00010457,0
3.443,0.0001274,0
3.4435,0.0001331,0
3.4441,0.00012068,0
3.4446,0.00010692,0
3.4451,9.5674e-05,0
3.4456,8.3421e-05,0
3.4461,6.7979e-05,0
3.4467,5.1362e-05,0
3.4472,3.4409e-05,0
3.4477,-5.3712e-06,0
3.4482,-8.7449e-05,0
3.4487,-0.00017473,0
3.4493,-0.0002083,0
3.4498,-0.0001989,0
3.4503,-0.00018195,0
3.4508,-0.00015425,0
3.4513,-0.00011481,0
3.4518,-7.4525e-05,0
3.4524,-2.3331e-05,0
3.4529,5.5222e-05,0
3.4534,0.00015358,0
3.4539,0.00023449,0
3.4544,0.00026067,0
3.455,0.00023717,0
3.4555,0.00019823,0
3.456,0.00016181,0
3.4565,0.00012337,0
3.457,8.4092e-05,0
3.4576,5.1194e-05,0
3.4581,1.9974e-05,0
3.4586,-1.4939e-05,0
3.4591,-4.4144e-05,0
3.4596,-7.2175e-05,0
3.4602,-0.00011162,0
3.4607,-0.00014133,0
3.4612,-0.00013915,0
3.4617,-0.00012203,0
3.4622,-0.00012219,0
3.4628,-0.00013176,0
3.4633,-0.00012001,0
3.4638,-9.5338e-05,0
3.4643,-7.7714e-05,0
3.4648,-7.4357e-05,0
3.4653,-7.6036e-05,0
3.4659,-7.1e-05,0
3.4664,-5.3208e-05,0
3.4669,-1.8967e-05,0
3.4674,3.6255e-05,0
3.4679,0.00011128,0
3.4685,0.0001895,0
3.469,0.00024657,0
3.4695,0.00027427,0
3.47,0.00027913,0
3.4705,0.00026806,0
3.4711,0.00024154,0
3.4716,0.00019991,0
3.4721,0.00013848,0
3.4726,6.1265e-05,0
3.4731,-7.7211e-06,0
3.4737,-4.3473e-05,0
3.4742,-3.8102e-05,0
3.4747,3.0213e-06,0
3.4752,5.9251e-05,0
3.4757,0.00010524,0
3.4762,0.00012773,0
3.4768,0.00012186,0
3.4773,8.04e-05,0
3.4778,1.1246e-05,0
3.4783,-4.3977e-05,0
3.4788,-6.244e-05,0
3.4794,-5.4719e-05,0
3.4799,-3.7934e-05,0
3.4804,-2.1653e-05,0
3.4809,-9.2317e-06,0
3.4814,-3.357e-07,0
3.482,8.5603e-06,0
3.4825,1.2757e-05,0
3.483,6.2104e-06,0
3.4835,-1.8967e-05,0
3.484,-5.9083e-05,0
3.4846,-9.8024e-05,0
3.4851,-0.00011951,0
3.4856,-0.00012387,0
3.4861,-0.00011968,0
3.4866,-9.1814e-05,0
3.4872,-3.9277e-05,0
3.4877,4.6998e-06,0
3.4882,1.5946e-05,0
3.4887,1.0407e-05,0
3.4892,4.3641e-06,0
3.4897,-7.8889e-06,0
3.4903,-2.4674e-05,0
3.4908,-3.508e-05,0
3.4913,-2.5681e-05,0
3.4918,8.5603e-06,0
3.4923,4.7501e-05,0
3.4929,7.2343e-05,0
3.4934,7.8218e-05,0
3.4939,7.335e-05,0
3.4944,7.7379e-05,0
3.4949,0.00010155,0
3.4955,0.00013109,0
3.496,0.00013545,0
3.4965,0.00010658,0
3.497,6.4958e-05,0
3.4975,2.9877e-05,0
3.4981,3.8605e-06,0
3.4986,-5.0355e-06,0
3.4991,6.2104e-06,0
3.4996,2.1988e-05,0
3.5001,2.4338e-05,0
3.5007,1.1246e-05,0
3.5012,-5.8747e-06,0
3.5017,-1.6617e-05,0
3.5022,-2.2324e-05,0
3.5027,-2.8702e-05,0
3.5032,-3.6759e-05,0
3.5038,-4.2802e-05,0
3.5043,-4.1291e-05,0
3.5048,-3.3234e-05,0
3.5053,-1.8296e-05,0
3.5058,-1.8463e-06,0
3.5064,2.182e-06,0
3.5069,-8.5603e-06,0
3.5074,-1.9303e-05,0
3.5079,-2.0645e-05,0
3.5084,2.0142e-06,0
3.509,5.0858e-05,0
3.5095,9.987e-05,0
3.51,0.00011531,0
3.5105,9.4835e-05,0
3.511,6.9657e-05,0
3.5116,5.8915e-05,0
3.5121,4.8508e-05,0
3.5126,3.2731e-05,0
3.5131,2.9374e-05,0
3.5136,3.4409e-05,0
3.5142,1.7121e-05,0
3.5147,-2.501e-05,0
3.5152,-5.9251e-05,0
3.5157,-6.2943e-05,0
3.5162,-4.1459e-05,0
3.5168,-1.2421e-05,0
3.5173,1.091e-05,0
3.5178,2.9877e-05,0
3.5183,4.4984e-05,0
3.5188,4.1962e-05,0
3.5193,1.2757e-05,0
3.5199,-3.2898e-05,0
3.5204,-7.3518e-05,0
3.5209,-8.6442e-05,0
3.5214,-6.865e-05,0
3.5219,-4.0116e-05,0
3.5225,-2.6856e-05,0
3.523,-2.031e-05,0
3.5235,2.8534e-05,0
3.524,0.00013445,0
3.5245,0.00026134,0
3.5251,0.00034594,0
3.5256,0.00034493,0
3.5261,0.00027745,0
3.5266,0.00019303,0
3.5271,0.00012589,0
3.5277,0.00010172,0
3.5282,0.00011968,0
3.5287,0.00014083,0
3.5292,0.00013193,0
3.5297,9.0806e-05,0
3.5303,4.3641e-05,0
3.5308,6.5461e-06,0
3.5313,-2.6688e-05,0
3.5318,-5.2537e-05,0
3.5323,-5.6397e-05,0
3.5328,-5.0019e-05,0
3.5334,-5.1194e-05,0
3.5339,-5.7237e-05,0
3.5344,-6.0761e-05,0
3.5349,-5.7404e-05,0
3.5354,-3.4073e-05,0
3.536,1.8296e-05,0
3.5365,8.2414e-05,0
3.537,0.00012723,0
3.5375,0.00013948,0
3.538,0.00012203,0
3.5386,7.0329e-05,0
3.5391,-1.8463e-05,0
3.5396,-0.00012505,0
3.5401,-0.00019638,0
3.5406,-0.00020897,0
3.5412,-0.00019437,0
3.5417,-0.00017137,0
3.5422,-0.00013277,0
3.5427,-6.8147e-05,0
3.5432,-3.1891e-06,0
3.5438,2.4002e-05,0
3.5443,4.1962e-06,0
3.5448,-3.1052e-05,0
3.5453,-4.5823e-05,0
3.5458,-4.3137e-05,0
3.5463,-4.9516e-05,0
3.5469,-7.1336e-05,0
3.5474,-8.7449e-05,0
3.5479,-8.3589e-05,0
3.5484,-4.0787e-05,0
3.5489,6.865e-05,0
3.5495,0.00020528,0
3.55,0.0002845,0
3.5505,0.00026705,0
3.551,0.00019252,0
3.5515,0.000118,0
3.5521,8.4428e-05,0
3.5526,9.5674e-05,0
3.5531,0.00013243,0
3.5536,0.00015795,0
3.5541,0.00015157,0
3.5547,0.00012253,0
3.5552,8.1239e-05,0
3.5557,3.4073e-05,0
3.5562,-9.2317e-06,0
3.5567,-3.9948e-05,0
3.5572,-5.4383e-05,0
3.5578,-5.5558e-05,0
3.5583,-5.388e-05,0
3.5588,-5.2201e-05,0
3.5593,-5.0523e-05,0
3.5598,-4.6998e-05,0
3.5604,-4.3137e-05,0
3.5609,-3.978e-05,0
3.5614,-3.9445e-05,0
3.5619,-4.448e-05,0
3.5624,-5.0523e-05,0
3.563,-5.3376e-05,0
3.5635,-5.1194e-05,0
3.564,-4.7837e-05,0
3.5645,-5.1362e-05,0
3.565,-5.3544e-05,0
3.5656,-4.2466e-05,0
3.5661,-2.3331e-05,0
3.5666,-1.5778e-05,0
3.5671,-4.4312e-05,0
3.5676,-0.0001039,0
3.5682,-0.00014855,0
3.5687,-0.00015929,0
3.5692,-0.00017037,0
3.5697,-0.00019101,0
3.5702,-0.00019957,0
3.5707,-0.00018044,0
3.5713,-0.00013025,0
3.5718,-5.8076e-05,0
3.5723,2.1988e-05,0
3.5728,0.00010054,0
3.5733,0.00016265,0
3.5739,0.00020662,0
3.5744,0.0002454,0
3.5749,0.00027611,0
3.5754,0.00027494,0
3.5759,0.00023381,0
3.5765,0.00018715,0
3.577,0.00015895,0
3.5775,0.00014183,0
3.578,0.00013327,0
3.5785,0.00013478,0
3.5791,0.00013545,0
3.5796,0.00012303,0
3.5801,0.00010054,0
3.5806,8.2078e-05,0
3.5811,7.4693e-05,0
3.5817,6.7643e-05,0
3.5822,6.1265e-05,0
3.5827,4.9851e-05,0
3.5832,1.9638e-05,0
3.5837,-2.1653e-05,0
3.5842,-5.3712e-05,0
3.5848,-7.5532e-05,0
3.5853,-9.3156e-05,0
3.5858,-0.00010289,0
3.5863,-0.00010222,0
3.5868,-8.2582e-05,0
3.5874,-3.7095e-05,0
3.5879,1.1749e-05,0
3.5884,3.8773e-05,0
3.5889,6.2272e-05,0
3.5894,0.00010658,0
3.59,0.00013579,0
3.5905,0.00010507,0
3.591,4.8173e-05,0
3.5915,2.031e-05,0
3.592,2.1317e-05,0
3.5926,1.2924e-05,0
3.5931,-1.6953e-05,0
3.5936,-4.3137e-05,0
3.5941,-4.1123e-05,0
3.5946,-9.2317e-06,0
3.5952,3.8102e-05,0
3.5957,8.51e-05,0
3.5962,0.0001138,0
3.5967,9.4835e-05,0
3.5972,3.4241e-05,0
3.5978,-2.3667e-05,0
3.5983,-4.8341e-05,0
3.5988,-4.7837e-05,0
3.5993,-4.2298e-05,0
3.5998,-4.3305e-05,0
3.6003,-4.9683e-05,0
3.6009,-5.2873e-05,0
3.6014,-5.2705e-05,0
3.6019,-5.5222e-05,0
3.6024,-5.1194e-05,0
3.6029,-3.3906e-05,0
3.6035,-1.2421e-05,0
3.604,8.5603e-06,0
3.6045,3.0716e-05,0
3.605,5.0858e-05,0
3.6055,5.8579e-05,0
3.6061,5.7069e-05,0
3.6066,6.0594e-05,0
3.6071,6.9657e-05,0
3.6076,6.7979e-05,0
3.6081,4.9012e-05,0
3.6087,2.1149e-05,0
3.6092,-1.2589e-05,0
3.6097,-5.4719e-05,0
3.6102,-9.752e-05,0
3.6107,-0.0001368,0
3.6113,-0.00017456,0
3.6118,-0.00019437,0
3.6123,-0.00017658,0
3.6128,-0.00013529,0
3.6133,-8.8121e-05,0
3.6138,-2.7024e-05,0
3.6144,6.3615e-05,0
3.6149,0.00017708,0
3.6154,0.00027913,0
3.6159,0.00034627,0
3.6164,0.00037179,0
3.617,0.00034728,0
3.6175,0.00027108,0
3.618,0.00016432,0
3.6185,7.7714e-05,0
3.619,3.3906e-05,0
3.6196,1.2924e-05,0
3.6201,-3.1891e-06,0
3.6206,-2.1988e-05,0
3.6211,-4.5823e-05,0
3.6216,-5.8579e-05,0
3.6222,-4.8173e-05,0
3.6227,-1.4267e-05,0
3.6232,3.1052e-05,0
3.6237,6.8986e-05,0
3.6242,7.2847e-05,0
3.6248,4.683e-05,0
3.6253,1.9303e-05,0
3.6258,3.8605e-06,0
3.6263,5.539e-06,0
3.6268,2.0142e-05,0
3.6273,3.743e-05,0
3.6279,5.2201e-05,0
3.6284,5.4215e-05,0
3.6289,3.4745e-05,0
3.6294,1.0239e-05,0
3.6299,6.5461e-06,0
3.6305,1.5946e-05,0
3.631,1.0575e-05,0
3.6315,-1.5274e-05,0
3.632,-3.6423e-05,0
3.6325,-3.9612e-05,0
3.6331,-5.7237e-05,0
3.6336,-0.00013059,0
3.6341,-0.00023381,0
3.6346,-0.00029491,0
3.6351,-0.00027007,0
3.6357,-0.00018195,0
3.6362,-8.275e-05,0
3.6367,-1.0071e-05,0
3.6372,3.5248e-05,0
3.6377,6.4958e-05,0
3.6383,9.7185e-05,0
3.6388,0.00015459,0
3.6393,0.00021955,0
3.6398,0.00024422,0
3.6403,0.00021434,0
3.6408,0.00016768,0
3.6414,0.0001556,0
3.6419,0.00018245,0
3.6424,0.00021468,0
3.6429,0.00022727,0
3.6434,0.0002083,0
3.644,0.00015694,0
3.6445,7.335e-05,0
3.645,-3.1388e-05,0
3.6455,-0.0001237,0
3.646,-0.00017859,0
3.6466,-0.00019655,0
3.6471,-0.00018816,0
3.6476,-0.00016298,0
3.6481,-0.00012219,0
3.6486,-5.2873e-05,0
3.6492,5.1865e-05,0
3.6497,0.00016768,0
3.6502,0.00025177,0
3.6507,0.00026571,0
3.6512,0.00019974,0
3.6517,9.4499e-05,0
3.6523,1.5274e-05,0
3.6528,-1.3092e-05,0
3.6533,-2.0981e-05,0
3.6538,-5.5558e-05,0
3.6543,-0.00012404,0
3.6549,-0.00018228,0
3.6554,-0.00019168,0
3.6559,-0.00015996,0
3.6564,-0.00011196,0
3.6569,-6.7475e-05,0
3.6575,-4.3137e-05,0
3.658,-3.3066e-05,0
3.6585,-1.0575e-05,0
3.659,4.8508e-05,0
3.6595,0.00012169,0
3.6601,0.00017675,0
3.6606,0.00021166,0
3.6611,0.00021736,0
3.6616,0.00017591,0
3.6621,0.00010726,0
3.6627,5.8244e-05,0
3.6632,4.8173e-05,0
3.6637,5.5894e-05,0
3.6642,5.7404e-05,0
3.6647,6.2776e-05,0
3.6652,8.2414e-05,0
3.6658,9.3828e-05,0
3.6663,6.8315e-05,0
3.6668,1.3092e-05,0
3.6673,-3.9109e-05,0
3.6678,-6.5629e-05,0
3.6684,-7.1839e-05,0
3.6689,-7.6371e-05,0
3.6694,-8.0064e-05,0
3.6699,-8.0568e-05,0
3.6704,-8.9464e-05,0
3.671,-0.00010826,0
3.6715,-0.00011666,0
3.672,-0.00010692,0
3.6725,-8.2078e-05,0
3.673,-5.2033e-05,0
3.6736,-3.5416e-05,0
3.6741,-2.8031e-05,0
3.6746,-9.9031e-06,0
3.6751,4.1962e-06,0
3.6756,-9.7353e-06,0
3.6762,-3.7934e-05,0
3.6767,-4.0284e-05,0
3.6772,-1.5106e-06,0
3.6777,5.9586e-05,0
3.6782,0.00010709,0
3.6787,0.00011498,0
3.6793,8.8457e-05,0
3.6798,5.3544e-05,0
3.6803,4.062e-05,0
3.6808,6.5461e-05,0
3.6813,0.00011733,0
3.6819,0.00016399,0
3.6824,0.00016533,0
3.6829,0.00011112,0
3.6834,3.978e-05,0
3.6839,-1.2924e-05,0
3.6845,-3.8437e-05,0
3.685,-4.6494e-05,0
3.6855,-4.4816e-05,0
3.686,-4.2802e-05,0
3.6865,-4.1962e-05,0
3.6871,-3.978e-05,0
3.6876,-3.4241e-05,0
3.6881,-2.8534e-05,0
3.6886,-2.4338e-05,0
3.6891,-1.796e-05,0
3.6897,-3.1891e-06,0
3.6902,1.5274e-05,0
3.6907,2.5345e-05,0
3.6912,2.5177e-05,0
3.6917,1.5442e-05,0
3.6923,5.0355e-07,0
3.6928,-8.896e-06,0
3.6933,3.1891e-06,0
3.6938,3.8941e-05,0
3.6943,7.4357e-05,0
3.6948,9.0135e-05,0
3.6954,9.2485e-05,0
3.6959,9.6513e-05,0
3.6964,9.4835e-05,0
3.6969,7.1e-05,0
3.6974,3.7766e-05,0
3.698,1.7121e-05,0
3.6985,-8.3925e-07,0
3.699,-4.5823e-05,0
3.6995,-0.00012169,0
3.7,-0.00019353,0
3.7006,-0.00022962,0
3.7011,-0.00025261,0
3.7016,-0.00026621,0
3.7021,-0.00023264,0
3.7026,-0.00013999,0
3.7032,-3.0381e-05,0
3.7037,5.2201e-05,0
3.7042,0.00012773,0
3.7047,0.00023046,0
3.7052,0.00034057,0
3.7058,0.00042634,0
3.7063,0.00047652,0
3.7068,0.00048005,0
3.7073,0.00042617,0
3.7078,0.00033318,0
3.7083,0.00023717,0
3.7089,0.00015224,0
3.7094,7.57e-05,0
3.7099,1.6953e-05,0
3.7104,-9.5674e-06,0
3.7109,-6.8818e-06,0
3.7115,4.8676e-06,0
3.712,1.561e-05,0
3.7125,1.7624e-05,0
3.713,3.1891e-06,0
3.7135,-2.5681e-05,0
3.7141,-6.865e-05,0
3.7146,-0.00012589,0
3.7151,-0.00018799,0
3.7156,-0.00023381,0
3.7161,-0.00024187,0
3.7167,-0.00021032,0
3.7172,-0.00015795,0
3.7177,-0.0001039,0
3.7182,-5.0187e-05,0
3.7187,4.8676e-06,0
3.7193,5.9586e-05,0
3.7198,0.00010675,0
3.7203,0.00014401,0
3.7208,0.00017574,0
3.7213,0.00019118,0
3.7218,0.00016902,0
3.7224,0.00011179,0
3.7229,5.0019e-05,0
3.7234,-3.5248e-06,0
3.7239,-5.8412e-05,0
3.7244,-0.00010793,0
3.725,-0.00013143,0
3.7255,-0.00011901,0
3.726,-7.6707e-05,0
3.7265,-3.2395e-05,0
3.727,-4.3641e-06,0
3.7276,1.1246e-05,0
3.7281,1.8967e-05,0
3.7286,3.9109e-05,0
3.7291,7.6371e-05,0
3.7296,0.0001044,0
3.7302,9.987e-05,0
3.7307,8.2246e-05,0
3.7312,8.275e-05,0
3.7317,7.6036e-05,0
3.7322,2.3331e-05,0
3.7327,-3.1556e-05,0
3.7333,-4.0787e-05,0
3.7338,-2.1317e-05,0
3.7343,-1.3931e-05,0
3.7348,-4.0116e-05,0
3.7353,-7.5364e-05,0
3.7359,-7.6371e-05,0
3.7364,-4.062e-05,0
3.7369,1.6785e-07,0
3.7374,1.1414e-05,0
3.7379,-4.5319e-06,0
3.7385,-3.3738e-05,0
3.739,-6.3615e-05,0
3.7395,-6.6636e-05,0
3.74,-2.9709e-05,0
3.7405,1.5946e-05,0
3.7411,2.8702e-05,0
3.7416,-8.3925e-07,0
3.7421,-3.1052e-05,0
3.7426,-2.9206e-05,0
3.7431,1.8463e-06,0
3.7437,3.1388e-05,0
3.7442,2.3667e-05,0
3.7447,-7.3854e-06,0
3.7452,-2.2324e-05,0
3.7457,-1.091e-05,0
3.7462,1.3092e-05,0
3.7468,4.1459e-05,0
3.7473,9.5842e-05,0
3.7478,0.00018144,0
3.7483,0.00023868,0
3.7488,0.00022441,0
3.7494,0.00017826,0
3.7499,0.00014318,0
3.7504,0.00012186,0
3.7509,0.0001133,0
3.7514,0.0001227,0
3.752,0.00014653,0
3.7525,0.00016432,0
3.753,0.00014049,0
3.7535,6.5293e-05,0
3.754,-1.4267e-05,0
3.7546,-5.1362e-05,0
3.7551,-6.479e-05,0
3.7556,-8.6946e-05,0
3.7561,-0.00011229,0
3.7566,-0.00011968,0
3.7572,-0.0001086,0
3.7577,-0.00010054,0
3.7582,-0.00010423,0
3.7587,-0.00011968,0
3.7592,-0.00014066,0
3.7597,-0.00014855,0
3.7603,-0.000142,0
3.7608,-0.00013613,0
3.7613,-0.00013596,0
3.7618,-0.00013277,0
3.7623,-0.00011749,0
3.7629,-7.9896e-05,0
3.7634,-2.3331e-05,0
3.7639,3.6759e-05,0
3.7644,8.6778e-05,0
3.7649,0.00012287,0
3.7655,0.00015476,0
3.766,0.0001848,0
3.7665,0.00019252,0
3.767,0.00015694,0
3.7675,9.0471e-05,0
3.7681,2.4338e-05,0
3.7686,-1.4435e-05,0
3.7691,-2.0478e-05,0
3.7696,-1.6785e-06,0
3.7701,2.9374e-05,0
3.7707,5.8915e-05,0
3.7712,8.5771e-05,0
3.7717,0.00011128,0
3.7722,0.00013646,0
3.7727,0.00015996,0
3.7732,0.00017339,0
3.7738,0.00017053,0
3.7743,0.0001509,0
3.7748,0.00012236,0
3.7753,9.5506e-05,0
3.7758,7.0832e-05,0
3.7764,5.1362e-05,0
3.7769,3.1891e-05,0
3.7774,2.5177e-06,0
3.7779,-3.3234e-05,0
3.7784,-5.9754e-05,0
3.779,-6.009e-05,0
3.7795,-4.5991e-05,0
3.78,-5.5055e-05,0
3.7805,-9.1142e-05,0
3.781,-0.00011447,0
3.7816,-0.00010826,0
3.7821,-8.5435e-05,0
3.7826,-5.7404e-05,0
3.7831,-3.0045e-05,0
3.7836,-6.8818e-06,0
3.7842,1.0071e-05,0
3.7847,3.4073e-05,0
3.7852,7.5532e-05,0
3.7857,0.0001185,0
3.7862,0.00012975,0
3.7868,9.2149e-05,0
3.7873,3.7766e-05,0
3.7878,1.3764e-05,0
3.7883,1.9135e-05,0
3.7888,2.3667e-05,0
3.7893,2.2156e-05,0
3.7899,2.8367e-05,0
3.7904,4.9348e-05,0
3.7909,7.2679e-05,0
3.7914,7.6875e-05,0
3.7919,6.4622e-05,0
3.7925,6.7979e-05,0
3.793,9.0471e-05,0
3.7935,0.0001086,0
3.794,0.00011666,0
3.7945,0.0001133,0
3.7951,0.00010323,0
3.7956,9.7856e-05,0
3.7961,9.1814e-05,0
3.7966,6.6636e-05,0
3.7971,1.7624e-05,0
3.7977,-3.6423e-05,0
3.7982,-8.6946e-05,0
3.7987,-0.00014183,0
3.7992,-0.00018547,0
3.7997,-0.0001989,0
3.8003,-0.00020461,0
3.8008,-0.00022005,0
3.8013,-0.00022391,0
3.8018,-0.00019722,0
3.8023,-0.00013512,0
3.8028,-4.5151e-05,0
3.8034,6.3951e-05,0
3.8039,0.00018447,0
3.8044,0.00028534,0
3.8049,0.00033553,0
3.8054,0.00032177,0
3.806,0.00026067,0
3.8065,0.00018044,0
3.807,8.9128e-05,0
3.8075,-1.8463e-06,0
3.808,-6.3783e-05,0
3.8086,-8.426e-05,0
3.8091,-7.6371e-05,0
3.8096,-5.4215e-05,0
3.8101,-3.7766e-05,0
3.8106,-4.4816e-05,0
3.8112,-6.4622e-05,0
3.8117,-7.335e-05,0
3.8122,-6.9993e-05,0
3.8127,-6.5461e-05,0
3.8132,-4.683e-05,0
3.8138,1.3764e-05,0
3.8143,9.5842e-05,0
3.8148,0.00013948,0
3.8153,0.000118,0
3.8158,6.6972e-05,0
3.8163,2.8199e-05,0
3.8169,7.8889e-06,0
3.8174,-2.8534e-06,0
3.8179,-1.4939e-05,0
3.8184,-3.7934e-05,0
3.8189,-7.335e-05,0
3.8195,-0.00010759,0
3.82,-0.00013109,0
3.8205,-0.0001425,0
3.821,-0.00012958,0
3.8215,-8.0735e-05,0
3.8221,-1.5946e-05,0
3.8226,2.8367e-05,0
3.8231,5.0523e-05,0
3.8236,7.1e-05,0
3.8241,0.00010356,0
3.8247,0.00014217,0
3.8252,0.00017423,0
3.8257,0.00019135,0
3.8262,0.00017406,0
3.8267,0.00011699,0
3.8272,5.9251e-05,0
3.8278,3.2731e-05,0
3.8283,3.6759e-05,0
3.8288,4.4816e-05,0
3.8293,3.4745e-05,0
3.8298,1.8799e-05,0
3.8304,2.2324e-05,0
3.8309,3.4745e-05,0
3.8314,2.9709e-05,0
3.8319,5.0355e-07,0
3.8324,-4.1459e-05,0
3.833,-8.6275e-05,0
3.8335,-0.00012169,0
3.834,-0.00013512,0
3.8345,-0.00013713,0
3.835,-0.00014905,0
3.8356,-0.0001749,0
3.8361,-0.00019319,0
3.8366,-0.00017943,0
3.8371,-0.00012303,0
3.8376,-2.5849e-05,0
3.8382,9.4499e-05,0
3.8387,0.00019756,0
3.8392,0.00025429,0
3.8397,0.00026839,0
3.8402,0.00026772,0
3.8407,0.00027897,0
3.8413,0.00028383,0
3.8418,0.00025731,0
3.8423,0.00020914,0
3.8428,0.00015996,0
3.8433,0.00011531,0
3.8439,7.6875e-05,0
3.8444,4.9851e-05,0
3.8449,3.4073e-05,0
3.8454,2.5177e-05,0
3.8459,7.2175e-06,0
3.8465,-2.4002e-05,0
3.847,-5.1194e-05,0
3.8475,-6.3279e-05,0
3.848,-6.7979e-05,0
3.8485,-8.9632e-05,0
3.8491,-0.00012773,0
3.8496,-0.00015543,0
3.8501,-0.00015207,0
3.8506,-0.00010726,0
3.8511,-3.3066e-05,0
3.8517,4.3641e-05,0
3.8522,9.9702e-05,0
3.8527,0.00013327,0
3.8532,0.00015946,0
3.8537,0.00018077,0
3.8542,0.00017842,0
3.8548,0.00014015,0
3.8553,7.3014e-05,0
3.8558,-8.3925e-06,0
3.8563,-8.0903e-05,0
3.8568,-0.00011347,0
3.8574,-9.1142e-05,0
3.8579,-3.7766e-05,0
3.8584,1.2924e-05,0
3.8589,5.2201e-05,0
3.8594,9.0639e-05,0
3.86,0.00012471,0
3.8605,0.00012723,0
3.861,8.3085e-05,0
3.8615,1.796e-05,0
3.862,-2.5513e-05,0
3.8626,-3.8102e-05,0
3.8631,-3.8102e-05,0
3.8636,-3.978e-05,0
3.8641,-7.2679e-05,0
3.8646,-0.00011347,0
3.8652,-9.9367e-05,0
3.8657,-2.5513e-05,0
3.8662,7.0832e-05,0
3.8667,0.00015325,0
3.8672,0.00018682,0
3.8678,0.00016432,0
3.8683,0.00011431,0
3.8688,6.8315e-05,0
3.8693,2.6352e-05,0
3.8698,-2.7024e-05,0
3.8703,-0.00010692,0
3.8709,-0.00020175,0
3.8714,-0.00027276,0
3.8719,-0.00029743,0
3.8724,-0.00027762,0
3.8729,-0.00024204,0
3.8735,-0.00022878,0
3.874,-0.00023214,0
3.8745,-0.00020998,0
3.875,-0.00015492,0
3.8755,-8.51e-05,0
3.8761,7.8889e-06,0
3.8766,0.00012572,0
3.8771,0.00024019,0
3.8776,0.00030381,0
3.8781,0.00031875,0
3.8787,0.00031774,0
3.8792,0.00031136,0
3.8797,0.00028988,0
3.8802,0.00024942,0
3.8807,0.0001942,0
3.8813,0.00013747,0
3.8818,9.4667e-05,0
3.8823,6.9657e-05,0
3.8828,5.6565e-05,0
3.8833,5.0523e-05,0
3.8838,4.5151e-05,0
3.8844,3.3906e-05,0
3.8849,1.6785e-05,0
3.8854,2.5177e-06,0
3.8859,-3.8605e-06,0
3.8864,-6.5461e-06,0
3.887,-1.6953e-05,0
3.8875,-4.1123e-05,0
3.888,-6.7811e-05,0
3.8885,-8.275e-05,0
3.889,-8.7114e-05,0
3.8896,-8.3925e-05,0
3.8901,-6.6972e-05,0
3.8906,-4.213e-05,0
3.8911,-2.5177e-05,0
3.8916,-1.8631e-05,0
3.8922,-1.7288e-05,0
3.8927,-1.9471e-05,0
3.8932,-2.1653e-05,0
3.8937,-2.3331e-05,0
3.8942,-2.4506e-05,0
3.8948,-2.7024e-05,0
3.8953,-4.4648e-05,0
3.8958,-9.0303e-05,0
3.8963,-0.00014653,0
3.8968,-0.00016667,0
3.8973,-0.0001373,0
3.8979,-9.0471e-05,0
3.8984,-4.6159e-05,0
3.8989,-2.0142e-06,0
3.8994,4.3641e-05,0
3.8999,9.2485e-05,0
3.9005,0.00015879,0
3.901,0.00025563,0
3.9015,0.00035097,0
3.902,0.00039159,0
3.9025,0.00035618,0
3.9031,0.00027175,0
3.9036,0.00018212,0
3.9041,0.00010826,0
3.9046,5.3208e-05,0
3.9051,2.652e-05,0
3.9057,2.0478e-05,0
3.9062,-5.0355e-06,0
3.9067,-6.0258e-05,0
3.9072,-0.00011011,0
3.9077,-0.00013008,0
3.9082,-0.00012891,0
3.9088,-0.00012924,0
3.9093,-0.00013445,0
3.9098,-0.00011968,0
3.9103,-6.9993e-05,0
3.9108,9.7353e-06,0
3.9114,0.00010054,0
3.9119,0.0001744,0
3.9124,0.00020931,0
3.9129,0.00019655,0
3.9134,0.00016197,0
3.914,0.00014351,0
3.9145,0.00013848,0
3.915,0.0001133,0
3.9155,5.3544e-05,0
3.916,-1.9135e-05,0
3.9166,-9.752e-05,0
3.9171,-0.00018749,0
3.9176,-0.00026151,0
3.9181,-0.0002845,0
3.9186,-0.00022643,0
3.9192,-0.00010407,0
3.9197,1.0575e-05,0
3.9202,6.5126e-05,0
3.9207,8.2918e-05,0
3.9212,0.00010423,0
3.9217,0.0001368,0
3.9223,0.00017104,0
3.9228,0.00019789,0
3.9233,0.00020461,0
3.9238,0.00019319,0
3.9243,0.0001707,0
3.9249,0.00014385,0
3.9254,0.00011397,0
3.9259,5.8579e-05,0
3.9264,-1.5946e-05,0
3.9269,-8.3757e-05,0
3.9275,-0.00012857,0
3.928,-0.00014083,0
3.9285,-0.00012454,0
3.929,-9.987e-05,0
3.9295,-7.9561e-05,0
3.9301,-6.0594e-05,0
3.9306,-4.4144e-05,0
3.9311,-3.2395e-05,0
3.9316,-2.5345e-05,0
3.9321,-2.2156e-05,0
3.9327,-2.6017e-05,0
3.9332,-3.2059e-05,0
3.9337,-3.508e-05,0
3.9342,-3.8773e-05,0
3.9347,-4.3137e-05,0
3.9352,-3.9445e-05,0
3.9358,-3.3738e-05,0
3.9363,-3.4073e-05,0
3.9368,-3.7766e-05,0
3.9373,-3.5416e-05,0
3.9378,-1.4267e-05,0
3.9384,9.3996e-06,0
3.9389,1.4435e-05,0
3.9394,2.6856e-06,0
3.9399,-9.0639e-06,0
3.9404,-1.091e-05,0
3.941,-1.0575e-05,0
3.9415,-1.2924e-05,0
3.942,-1.3596e-05,0
3.9425,-2.501e-05,0
3.943,-5.9922e-05,0
3.9436,-0.00010289,0
3.9441,-0.00011431,0
3.9446,-6.0426e-05,0
3.9451,3.8102e-05,0
3.9456,0.00012203,0
3.9462,0.00015761,0
3.9467,0.00016214,0
3.9472,0.00016197,0
3.9477,0.00018312,0
3.9482,0.00024741,0
3.9487,0.0003221,0
3.9493,0.00034543,0
3.9498,0.00029256,0
3.9503,0.00019219,0
3.9508,9.7185e-05,0
3.9513,2.9206e-05,0
3.9519,-1.4939e-05,0
3.9524,-2.4506e-05,0
3.9529,1.0239e-05,0
3.9534,7.3014e-05,0
3.9539,0.00012068,0
3.9545,0.00011867,0
3.955,7.9393e-05,0
3.9555,3.5416e-05,0
3.956,6.8818e-06,0
3.9565,-2.3499e-06,0
3.9571,-5.8747e-06,0
3.9576,-2.0142e-05,0
3.9581,-4.3641e-05,0
3.9586,-6.4622e-05,0
3.9591,-7.9393e-05,0
3.9597,-9.3828e-05,0
3.9602,-0.00011901,0
3.9607,-0.00017205,0
3.9612,-0.00022307,0
3.9617,-0.00021183,0
3.9623,-0.00012992,0
3.9628,-2.5681e-05,0
3.9633,4.1459e-05,0
3.9638,5.6901e-05,0
3.9643,5.8915e-05,0
3.9648,7.1e-05,0
3.9654,8.275e-05,0
3.9659,8.6946e-05,0
3.9664,8.9799e-05,0
3.9669,8.1239e-05,0
3.9674,5.4383e-05,0
3.968,2.2156e-05,0
3.9685,-1.2757e-05,0
3.969,-3.4409e-05,0
3.9695,-2.6352e-05,0
3.97,6.2104e-06,0
3.9706,4.9851e-05,0
3.9711,9.3156e-05,0
3.9716,0.00012505,0
3.9721,0.00013277,0
3.9726,0.00011884,0
3.9732,9.7856e-05,0
3.9737,8.1743e-05,0
3.9742,7.2847e-05,0
3.9747,6.3279e-05,0
3.9752,4.3473e-05,0
3.9758,1.8631e-05,0
3.9763,-3.0213e-06,0
3.9768,-1.6617e-05,0
3.9773,-2.0813e-05,0
3.9778,-1.9135e-05,0
3.9783,-1.5106e-05,0
3.9789,-1.5442e-05,0
3.9794,-2.8367e-05,0
3.9799,-5.7069e-05,0
3.9804,-9.2149e-05,0
3.9809,-0.00012018,0
3.9815,-0.00013411,0
3.982,-0.00014351,0
3.9825,-0.00016164,0
3.983,-0.00017087,0
3.9835,-0.00013629,0
3.9841,-6.3951e-05,0
3.9846,7.0497e-06,0
3.9851,5.3544e-05,0
3.9856,8.5267e-05,0
3.9861,0.00011783,0
3.9867,0.00015694,0
3.9872,0.00018782,0
3.9877,0.00018682,0
3.9882,0.0001509,0
3.9887,9.9199e-05,0
3.9893,5.4887e-05,0
3.9898,2.182e-05,0
3.9903,-2.2156e-05,0
3.9908,-8.4932e-05,0
3.9913,-0.00013797,0
3.9918,-0.00014267,0
3.9924,-9.4163e-05,0
3.9929,-2.6184e-05,0
3.9934,2.501e-05,0
3.9939,4.918e-05,0
3.9944,5.8244e-05,0
3.995,7.805e-05,0
3.9955,0.0001185,0
3.996,0.00015644,0
3.9965,0.00015157,0
3.997,0.00010172,0
3.9976,5.4047e-05,0
3.9981,2.9709e-05,0
3.9986,1.1917e-05,0
3.9991,1.1749e-06,0
3.9996,1.2757e-05,0
4.0002,4.8173e-05,0
4.0007,0.00010088,0
4.0012,0.00015409,0
4.0017,0.00018245,0
4.0022,0.00017372,0
4.0027,0.0001331,0
4.0033,6.9657e-05,0
4.0038,-1.5106e-06,0
4.0043,-6.7979e-05,0
4.0048,-0.00014452,0
4.0053,-0.00024388,0
4.0059,-0.00030431,0
4.0064,-0.00026587,0
4.0069,-0.00014888,0
4.0074,-2.4338e-05,0
4.0079,5.8915e-05,0
4.0085,0.00010105,0
4.009,9.2821e-05,0
4.0095,1.9974e-05,0
4.01,-6.8986e-05,0
4.0105,-9.5506e-05,0
4.0111,-4.4648e-05,0
4.0116,3.9109e-05,0
4.0121,0.00011212,0
4.0126,0.00016399,0
4.0131,0.00022072,0
4.0137,0.00030062,0
4.0142,0.0003837,0
4.0147,0.00042818,0
4.0152,0.00038824,0
4.0157,0.00026,0
4.0163,0.00010726,0
4.0168,7.7211e-06,0
4.0173,-2.1317e-05,0
4.0178,-4.1291e-05,0
4.0183,-9.4163e-05,0
4.0188,-0.00014049,0
4.0194,-0.00014099,0
4.0199,-0.00011095,0
4.0204,-9.1478e-05,0
4.0209,-0.00010625,0
4.0214,-0.00013478,0
4.022,-0.00013445,0
4.0225,-0.00010239,0
4.023,-6.2776e-05,0
4.0235,-1.8296e-05,0
4.024,2.8031e-05,0
4.0246,4.9516e-05,0
4.0251,2.8031e-05,0
4.0256,-4.1962e-06,0
4.0261,3.0213e-06,0
4.0266,6.1265e-05,0
4.0272,0.00013478,0
4.0277,0.00018094,0
4.0282,0.00018782,0
4.0287,0.00016432,0
4.0292,9.0974e-05,0
4.0297,-5.1865e-05,0
4.0303,-0.00020142,0
4.0308,-0.00027091,0
4.0313,-0.00025496,0
4.0318,-0.00020847,0
4.0323,-0.00016432,0
4.0329,-0.00011951,0
4.0334,-7.4022e-05,0
4.0339,-2.1149e-05,0
4.0344,6.6133e-05,0
4.0349,0.00019286,0
4.0355,0.00030532,0
4.036,0.00033117,0
4.0365,0.00026268,0
4.037,0.00015023,0
4.0375,3.1724e-05,0
4.0381,-7.0497e-05,0
4.0386,-0.00012337,0
4.0391,-0.00012572,0
4.0396,-0.00010994,0
4.0401,-9.6849e-05,0
4.0407,-7.8721e-05,0
4.0412,-4.448e-05,0
4.0417,1.1749e-06,0
4.0422,5.0019e-05,0
4.0427,8.6778e-05,0
4.0432,0.00010172,0
4.0438,0.00010021,0
4.0443,9.4499e-05,0
4.0448,9.1646e-05,0
4.0453,9.3156e-05,0
4.0458,9.2485e-05,0
4.0464,7.6875e-05,0
4.0469,3.7095e-05,0
4.0474,-8.0568e-06,0
4.0479,-3.1388e-05,0
4.0484,-2.6017e-05,0
4.049,-1.4099e-05,0
4.0495,-2.1988e-05,0
4.05,-4.5823e-05,0
4.0505,-6.0929e-05,0
4.051,-6.0761e-05,0
4.0516,-6.0929e-05,0
4.0521,-6.2272e-05,0
4.0526,-5.304e-05,0
4.0531,-2.5345e-05,0
4.0536,1.4435e-05,0
4.0542,4.0452e-05,0
4.0547,4.0452e-05,0
4.0552,2.4002e-05,0
4.0557,6.3783e-06,0
4.0562,-4.5319e-06,0
4.0568,-5.8747e-06,0
4.0573,-5.8747e-06,0
4.0578,-1.3764e-05,0
4.0583,-1.9638e-05,0
4.0588,-6.8818e-06,0
4.0593,2.4002e-05,0
4.0599,5.153e-05,0
4.0604,6.1433e-05,0
4.0609,6.2272e-05,0
4.0614,6.6972e-05,0
4.0619,7.0161e-05,0
4.0625,5.7908e-05,0
4.063,3.9277e-05,0
4.0635,3.6088e-05,0
4.064,4.918e-05,0
4.0645,5.7908e-05,0
4.0651,5.1362e-05,0
4.0656,3.5416e-05,0
4.0661,1.5274e-05,0
4.0666,-1.1582e-05,0
4.0671,-4.4816e-05,0
4.0677,-7.8386e-05,0
4.0682,-0.00010893,0
4.0687,-0.00012387,0
4.0692,-0.00011179,0
4.0697,-7.1504e-05,0
4.0702,-2.0478e-05,0
4.0708,1.2589e-05,0
4.0713,2.4002e-05,0
4.0718,4.0955e-05,0
4.0723,8.275e-05,0
4.0728,0.00013059,0
4.0734,0.00016315,0
4.0739,0.00017507,0
4.0744,0.00016902,0
4.0749,0.00015123,0
4.0754,0.00013579,0
4.076,0.00013025,0
4.0765,0.00011867,0
4.077,8.8121e-05,0
4.0775,5.388e-05,0
4.078,2.9038e-05,0
4.0786,1.7456e-05,0
4.0791,2.2324e-05,0
4.0796,3.3738e-05,0
4.0801,3.5752e-05,0
4.0806,1.0071e-05,0
4.0812,-4.6662e-05,0
4.0817,-0.00010105,0
4.0822,-0.00010826,0
4.0827,-6.8315e-05,0
4.0832,-2.9709e-05,0
4.0838,-1.561e-05,0
4.0843,-1.2589e-05,0
4.0848,-1.2757e-05,0
4.0853,-1.1414e-05,0
4.0858,8.3925e-06,0
4.0863,5.0019e-05,0
4.0869,9.3156e-05,0
4.0874,0.00010809,0
4.0879,0.00010474,0
4.0884,0.00010155,0
4.0889,0.00011145,0
4.0895,0.00015425,0
4.09,0.00022005,0
4.0905,0.00026705,0
4.091,0.00025866,0
4.0915,0.00019319,0
4.0921,0.00010423,0
4.0926,1.5778e-05,0
4.0931,-6.6133e-05,0
4.0936,-0.00013193,0
4.0941,-0.00017641,0
4.0947,-0.00019571,0
4.0952,-0.00018531,0
4.0957,-0.0001415,0
4.0962,-7.2679e-05,0
4.0967,1.0071e-05,0
4.0972,8.191e-05,0
4.0978,0.00010994,0
4.0983,9.5842e-05,0
4.0988,6.7475e-05,0
4.0993,4.3809e-05,0
4.0998,3.0045e-05,0
4.1004,1.5106e-05,0
4.1009,-2.031e-05,0
4.1014,-5.9586e-05,0
4.1019,-6.865e-05,0
4.1024,-4.448e-05,0
4.103,-1.9806e-05,0
4.1035,-9.7353e-06,0
4.104,-7.5532e-06,0
4.1045,-1.5106e-06,0
4.105,5.0355e-06,0
4.1056,-4.1962e-06,0
4.1061,-1.9303e-05,0
4.1066,-2.0981e-05,0
4.1071,-3.2059e-05,0
4.1076,-7.3182e-05,0
4.1082,-0.00011145,0
4.1087,-0.00011666,0
4.1092,-9.987e-05,0
4.1097,-6.1433e-05,0
4.1102,2.182e-06,0
4.1108,6.0594e-05,0
4.1113,7.3518e-05,0
4.1118,3.6088e-05,0
4.1123,-1.6114e-05,0
4.1128,-6.4958e-05,0
4.1133,-8.9464e-05,0
4.1139,-7.1839e-05,0
4.1144,-4.5823e-05,0
4.1149,-4.4312e-05,0
4.1154,-6.7308e-05,0
4.1159,-7.9393e-05,0
4.1165,-4.6662e-05,0
4.117,2.3331e-05,0
4.1175,9.752e-05,0
4.118,0.00016332,0
4.1185,0.00021199,0
4.1191,0.000213,0
4.1196,0.00014754,0
4.1201,7.2343e-05,0
4.1206,4.7501e-05,0
4.1211,6.6972e-05,0
4.1217,9.9702e-05,0
4.1222,0.00013025,0
4.1227,0.00015761,0
4.1232,0.0001613,0
4.1237,0.00014318,0
4.1242,0.00014418,0
4.1248,0.00017792,0
4.1253,0.00020729,0
4.1258,0.00019857,0
4.1263,0.00015694,0
4.1268,0.00010574,0
4.1274,6.3279e-05,0
4.1279,2.3667e-05,0
4.1284,-1.8631e-05,0
4.1289,-5.539e-05,0
4.1294,-8.4092e-05,0
4.13,-0.0001138,0
4.1305,-0.00013881,0
4.131,-0.00014083,0
4.1315,-0.00012052,0
4.132,-9.2988e-05,0
4.1326,-6.8315e-05,0
4.1331,-4.4144e-05,0
4.1336,-1.9974e-05,0
4.1341,-4.6998e-06,0
4.1346,-3.357e-07,0
4.1352,2.5177e-06,0
4.1357,9.2317e-06,0
4.1362,1.2421e-05,0
4.1367,4.6998e-06,0
4.1372,-1.4267e-05,0
4.1377,-3.6423e-05,0
4.1383,-4.7501e-05,0
4.1388,-4.683e-05,0
4.1393,-4.8005e-05,0
4.1398,-6.3447e-05,0
4.1403,-8.0232e-05,0
4.1409,-7.5364e-05,0
4.1414,-4.7166e-05,0
4.1419,-1.9806e-05,0
4.1424,1.6785e-07,0
4.1429,2.8367e-05,0
4.1435,6.7643e-05,0
4.144,0.00010172,0
4.1445,0.00011196,0
4.145,0.00010356,0
4.1455,9.3828e-05,0
4.1461,7.7714e-05,0
4.1466,4.448e-05,0
4.1471,7.8889e-06,0
4.1476,-1.1749e-05,0
4.1481,-1.2589e-05,0
4.1487,-7.5532e-06,0
4.1492,-8.0568e-06,0
4.1497,-1.3596e-05,0
4.1502,-1.1078e-05,0
4.1507,2.8534e-06,0
4.1513,1.091e-05,0
4.1518,1.0239e-05,0
4.1523,-1.0071e-06,0
4.1528,-1.1582e-05,0
4.1533,-4.8676e-06,0
4.1538,1.7288e-05,0
4.1544,2.6017e-05,0
4.1549,6.5461e-06,0
4.1554,-2.4842e-05,0
4.1559,-3.2898e-05,0
4.1564,-4.6998e-06,0
4.157,4.0116e-05,0
4.1575,8.4092e-05,0
4.158,0.00012773,0
4.1585,0.00016584,0
4.159,0.00016735,0
4.1596,0.0001274,0
4.1601,8.9799e-05,0
4.1606,8.661e-05,0
4.1611,9.7353e-05,0
4.1616,9.4835e-05,0
4.1622,7.2007e-05,0
4.1627,4.3641e-05,0
4.1632,2.7695e-05,0
4.1637,3.2059e-05,0
4.1642,5.3544e-05,0
4.1647,7.4693e-05,0
4.1653,6.4286e-05,0
4.1658,2.3499e-05,0
4.1663,-1.561e-05,0
4.1668,-4.062e-05,0
4.1673,-6.714e-05,0
4.1679,-8.7785e-05,0
4.1684,-9.0135e-05,0
4.1689,-8.9967e-05,0
4.1694,-7.2343e-05,0
4.1699,-6.3783e-06,0
4.1705,9.5338e-05,0
4.171,0.00019622,0
4.1715,0.0002647,0
4.172,0.00028316,0
4.1725,0.00025765,0
4.1731,0.00021065,0
4.1736,0.00015811,0
4.1741,9.3324e-05,0
4.1746,1.561e-05,0
4.1751,-7.2007e-05,0
4.1757,-0.00015946,0
4.1762,-0.00022374,0
4.1767,-0.0002459,0
4.1772,-0.000237,0
4.1777,-0.00021434,0
4.1783,-0.00017574,0
4.1788,-0.00011565,0
4.1793,-4.9348e-05,0
4.1798,-4.1962e-06,0
4.1803,1.2757e-05,0
4.1808,1.1246e-05,0
4.1814,-9.5674e-06,0
4.1819,-4.5151e-05,0
4.1824,-5.6901e-05,0
4.1829,-2.8367e-05,0
4.1834,1.5274e-05,0
4.184,5.0523e-05,0
4.1845,8.3421e-05,0
4.185,0.00011582,0
4.1855,0.00013713,0
4.186,0.00014788,0
4.1866,0.00015526,0
4.1871,0.00015123,0
4.1876,0.00011615,0
4.1881,5.3544e-05,0
4.1886,-6.2104e-06,0
4.1892,-4.918e-05,0
4.1897,-8.3757e-05,0
4.1902,-0.00010759,0
4.1907,-0.00011128,0
4.1912,-9.8024e-05,0
4.1917,-7.335e-05,0
4.1923,-5.304e-05,0
4.1928,-4.1459e-05,0
4.1933,-2.4338e-05,0
4.1938,-5.539e-06,0
4.1943,1.4267e-05,0
4.1949,4.5319e-05,0
4.1954,7.57e-05,0
4.1959,8.6442e-05,0
4.1964,8.2078e-05,0
4.1969,7.5029e-05,0
4.1975,7.1672e-05,0
4.198,8.7282e-05,0
4.1985,0.00011263,0
4.199,0.00011246,0
4.1995,9.7185e-05,0
4.2001,0.00010625,0
4.2006,0.00014015,0
4.2011,0.00017137,0
4.2016,0.00018648,0
4.2021,0.00019118,0
4.2027,0.00017977,0
4.2032,0.00013159,0
4.2037,4.4816e-05,0
4.2042,-4.4816e-05,0
4.2047,-0.00011028,0
4.2053,-0.00016147,0
4.2058,-0.00020562,0
4.2063,-0.00023113,0
4.2068,-0.00022509,0
4.2073,-0.00019353,0
4.2078,-0.00015308,0
4.2084,-0.00011464,0
4.2089,-7.3854e-05,0
4.2094,-2.6688e-05,0
4.2099,2.6184e-05,0
4.2104,6.6804e-05,0
4.211,7.7379e-05,0
4.2115,6.1601e-05,0
4.212,3.9277e-05,0
4.2125,3.1724e-05,0
4.213,4.1459e-05,0
4.2136,5.0187e-05,0
4.2141,4.8173e-05,0
4.2146,4.3809e-05,0
4.2151,4.4144e-05,0
4.2156,4.683e-05,0
4.2162,4.5151e-05,0
4.2167,3.122e-05,0
4.2172,2.182e-06,0
4.2177,-3.3066e-05,0
4.2182,-4.8676e-05,0
4.2188,-2.9709e-05,0
4.2193,1.561e-05,0
4.2198,5.8244e-05,0
4.2203,8.3085e-05,0
4.2208,0.00010172,0
4.2213,0.00012656,0
4.2219,0.00016164,0
4.2224,0.00020159,0
4.2229,0.00021938,0
4.2234,0.00018698,0
4.2239,0.00011649,0
4.2245,4.9516e-05,0
4.225,1.0742e-05,0
4.2255,-5.2033e-06,0
4.226,-1.3931e-05,0
4.2265,-2.182e-05,0
4.2271,-2.4002e-05,0
4.2276,-1.3596e-05,0
4.2281,2.182e-06,0
4.2286,1.1749e-06,0
4.2291,-1.6617e-05,0
4.2297,-3.5248e-05,0
4.2302,-5.5894e-05,0
4.2307,-8.0903e-05,0
4.2312,-0.00010289,0
4.2317,-0.0001086,0
4.2322,-9.7856e-05,0
4.2328,-8.2414e-05,0
4.2333,-5.2537e-05,0
4.2338,-6.714e-06,0
4.2343,4.1794e-05,0
4.2348,7.7043e-05,0
4.2354,9.0471e-05,0
4.2359,9.0806e-05,0
4.2364,8.4428e-05,0
4.2369,6.1936e-05,0
4.2374,2.6688e-05,0
4.238,-5.2033e-06,0
4.2385,-3.6088e-05,0
4.239,-6.1097e-05,0
4.2395,-5.9251e-05,0
4.24,-3.508e-05,0
4.2406,-3.5248e-06,0
4.2411,3.2059e-05,0
4.2416,7.9057e-05,0
4.2421,0.00012656,0
4.2426,0.00015526,0
4.2432,0.0001561,0
4.2437,0.00013193,0
4.2442,0.00010256,0
4.2447,9.2485e-05,0
4.2452,9.2149e-05,0
4.2458,8.2078e-05,0
4.2463,6.6133e-05,0
4.2468,4.6662e-05,0
4.2473,2.3667e-05,0
4.2478,7.2175e-06,0
4.2483,1.4771e-05,0
4.2489,3.6591e-05,0
4.2494,4.8844e-05,0
4.2499,3.6423e-05,0
4.2504,-3.5248e-06,0
4.2509,-6.7308e-05,0
4.2515,-0.00014553,0
4.252,-0.00022005,0
4.2525,-0.00025664,0
4.253,-0.00022962,0
4.2535,-0.00015593,0
4.2541,-8.2414e-05,0
4.2546,-3.0549e-05,0
4.2551,1.5106e-05,0
4.2556,6.8986e-05,0
4.2561,0.00013277,0
4.2567,0.0002088,0
4.2572,0.00028115,0
4.2577,0.00032143,0
4.2582,0.000307,0
4.2587,0.00023482,0
4.2592,0.00013327,0
4.2598,4.0452e-05,0
4.2603,-3.743e-05,0
4.2608,-0.00010759,0
4.2613,-0.00016634,0
4.2618,-0.00019152,0
4.2624,-0.00017305,0
4.2629,-0.00012605,0
4.2634,-7.3182e-05,0
4.2639,-1.7288e-05,0
4.2644,4.8173e-05,0
4.265,0.00012169,0
4.2655,0.00018984,0
4.266,0.00022274,0
4.2665,0.00020595,0
4.267,0.00016281,0
4.2676,0.00011246,0
4.2681,6.009e-05,0
4.2686,2.4506e-05,0
4.2691,6.714e-06,0
4.2696,-6.8818e-06,0
4.2702,-2.8702e-05,0
4.2707,-6.3951e-05,0
4.2712,-9.0303e-05,0
4.2717,-9.0974e-05,0
4.2722,-9.6345e-05,0
4.2728,-0.00013713,0
4.2733,-0.0001942,0
4.2738,-0.00024372,0
4.2743,-0.00024506,0
4.2748,-0.00017775,0
4.2753,-7.4022e-05,0
4.2759,2.182e-05,0
4.2764,8.7785e-05,0
4.2769,0.00013143,0
4.2774,0.0001707,0
4.2779,0.00019957,0
4.2785,0.00019722,0
4.279,0.0001697,0
4.2795,0.0001321,0
4.28,8.4428e-05,0
4.2805,2.2828e-05,0
4.2811,-4.7501e-05,0
4.2816,-0.00010037,0
4.2821,-0.00011347,0
4.2826,-9.987e-05,0
4.2831,-9.836e-05,0
4.2837,-0.00012673,0
4.2842,-0.00014972,0
4.2847,-0.00013864,0
4.2852,-0.00010423,0
4.2857,-7.1e-05,0
4.2862,-4.5655e-05,0
4.2868,-2.8702e-05,0
4.2873,-1.4267e-05,0
4.2878,1.2253e-05,0
4.2883,6.9657e-05,0
4.2888,0.0001415,0
4.2894,0.00019387,0
4.2899,0.00021787,0
4.2904,0.00022744,0
4.2909,0.00022811,0
4.2914,0.00021451,0
4.292,0.0001796,0
4.2925,0.00012287,0
4.293,5.623e-05,0
4.2935,8.5603e-06,0
4.294,-9.2317e-06,0
4.2946,-1.2085e-05,0
4.2951,-1.326e-05,0
4.2956,-4.5319e-06,0
4.2961,2.9374e-05,0
4.2966,8.51e-05,0
4.2972,0.00013545,0
4.2977,0.00012589,0
4.2982,5.4719e-05,0
4.2987,-2.3667e-05,0
4.2992,-8.8457e-05,0
4.2998,-0.00012773,0
4.3003,-0.00011565,0
4.3008,-5.9251e-05,0
4.3013,1.9638e-05,0
4.3018,0.00010793,0
4.3023,0.00018547,0
4.3029,0.00024456,0
4.3034,0.00028585,0
4.3039,0.00029525,0
4.3044,0.00025312,0
4.3049,0.00016483,0
4.3055,6.63e-05,0
4.306,-9.2317e-06,0
4.3065,-5.6062e-05,0
4.307,-9.2988e-05,0
4.3075,-0.00011263,0
4.3081,-9.5506e-05,0
4.3086,-3.2395e-05,0
4.3091,6.6133e-05,0
4.3096,0.00015023,0
4.3101,0.00017658,0
4.3107,0.00014452,0
4.3112,7.1336e-05,0
4.3117,-1.091e-05,0
4.3122,-5.7069e-05,0
4.3127,-4.8508e-05,0
4.3133,-1.1917e-05,0
4.3138,2.266e-05,0
4.3143,4.4144e-05,0
4.3148,3.8941e-05,0
4.3153,8.5603e-06,0
4.3158,-3.8773e-05,0
4.3164,-9.6178e-05,0
4.3169,-0.0001472,0
4.3174,-0.00017037,0
4.3179,-0.00016533,0
4.3184,-0.00014032,0
4.319,-0.00011632,0
4.3195,-0.00011061,0
4.32,-0.00011196,0
4.3205,-9.8527e-05,0
4.321,-6.3279e-05,0
4.3216,-9.9031e-06,0
4.3221,4.0787e-05,0
4.3226,6.7979e-05,0
4.3231,8.2582e-05,0
4.3236,0.00010037,0
4.3242,0.00011666,0
4.3247,0.00012337,0
4.3252,0.00012001,0
4.3257,9.6345e-05,0
4.3262,4.7166e-05,0
4.3267,-6.2104e-06,0
4.3273,-4.918e-05,0
4.3278,-9.3156e-05,0
4.3283,-0.00015174,0
4.3288,-0.0002229,0
4.3293,-0.00027762,0
4.3299,-0.00028904,0
4.3304,-0.00024724,0
4.3309,-0.00017121,0
4.3314,-9.1478e-05,0
4.3319,-1.1582e-05,0
4.3325,7.2847e-05,0
4.333,0.00015023,0
4.3335,0.0001937,0
4.334,0.00021669,0
4.3345,0.00025664,0
4.3351,0.00029055,0
4.3356,0.00028098,0
4.3361,0.00024556,0
4.3366,0.00020243,0
4.3371,0.00015023,0
4.3377,8.3085e-05,0
4.3382,-5.0355e-06,0
4.3387,-9.7017e-05,0
4.3392,-0.00016869,0
4.3397,-0.00020578,0
4.3403,-0.00021183,0
4.3408,-0.00019051,0
4.3413,-0.00014603,0
4.3418,-0.00012085,0
4.3423,-0.00015241,0
4.3428,-0.00023331,0
4.3434,-0.00029239,0
4.3439,-0.0002318,0
4.3444,-7.2847e-05,0
4.3449,7.0161e-05,0
4.3454,0.00013663,0
4.346,0.0001655,0
4.3465,0.00022945,0
4.347,0.00034896,0
4.3475,0.00048324,0
4.348,0.00058328,0
4.3486,0.00062524,0
4.3491,0.00059738,0
4.3496,0.00048827,0
4.3501,0.00031673,0
4.3506,0.00014955,0
4.3512,3.1052e-05,0
4.3517,-3.4241e-05,0
4.3522,-6.6804e-05,0
4.3527,-9.131e-05,0
4.3532,-0.00010742,0
4.3537,-0.00010373,0
4.3543,-8.0232e-05,0
4.3548,-5.3208e-05,0
4.3553,-3.2395e-05,0
4.3558,-1.561e-05,0
4.3563,-7.5532e-06,0
4.3569,-1.9974e-05,0
4.3574,-6.6636e-05,0
4.3579,-0.00014821,0
4.3584,-0.0002417,0
4.3589,-0.00030347,0
4.3595,-0.00031455,0
4.36,-0.00027578,0
4.3605,-0.00019773,0
4.361,-0.00010423,0
4.3615,-2.031e-05,0
4.3621,3.1724e-05,0
4.3626,4.3473e-05,0
4.3631,4.448e-05,0
4.3636,6.4958e-05,0
4.3641,0.00010306,0
4.3647,0.00011934,0
4.3652,7.9057e-05,0
4.3657,3.1891e-06,0
4.3662,-4.4816e-05,0
4.3667,-4.0955e-05,0
4.3673,-9.9031e-06,0
4.3678,1.9974e-05,0
4.3683,3.7095e-05,0
4.3688,4.3473e-05,0
4.3693,4.6159e-05,0
4.3698,4.6998e-05,0
4.3704,3.9948e-05,0
4.3709,3.2059e-05,0
4.3714,3.1388e-05,0
4.3719,3.2059e-05,0
4.3724,3.3066e-05,0
4.373,4.0452e-05,0
4.3735,5.0523e-05,0
4.374,5.3544e-05,0
4.3745,4.9012e-05,0
4.375,3.508e-05,0
4.3756,1.5946e-05,0
4.3761,-2.182e-06,0
4.3766,-1.7121e-05,0
4.3771,-2.6352e-05,0
4.3776,-2.3835e-05,0
4.3782,-1.2589e-05,0
4.3787,-7.8889e-06,0
4.3792,-1.091e-05,0
4.3797,-1.1917e-05,0
4.3802,-5.539e-06,0
4.3807,5.8747e-06,0
4.3813,1.5946e-05,0
4.3818,2.6017e-05,0
4.3823,3.508e-05,0
4.3828,2.4002e-05,0
4.3833,-5.7069e-06,0
4.3839,-1.8631e-05,0
4.3844,1.0071e-05,0
4.3849,5.6733e-05,0
4.3854,7.6036e-05,0
4.3859,6.1265e-05,0
4.3865,3.9109e-05,0
4.387,3.3738e-05,0
4.3875,4.5151e-05,0
4.388,5.9419e-05,0
4.3885,6.2104e-05,0
4.3891,4.3473e-05,0
4.3896,3.6927e-06,0
4.3901,-3.508e-05,0
4.3906,-4.918e-05,0
4.3911,-3.2563e-05,0
4.3917,-2.031e-05,0
4.3922,-4.2466e-05,0
4.3927,-5.9586e-05,0
4.3932,-2.9709e-05,0
4.3937,3.0045e-05,0
4.3943,8.1407e-05,0
4.3948,0.00010121,0
4.3953,5.5222e-05,0
4.3958,-7.805e-05,0
4.3963,-0.00021736,0
4.3968,-0.00024724,0
4.3974,-0.00016298,0
4.3979,-5.2201e-05,0
4.3984,2.182e-05,0
4.3989,7.9057e-05,0
4.3994,0.00017624,0
4.4,0.00032479,0
4.4005,0.00048659,0
4.401,0.00060678,0
4.4015,0.00063632,0
4.402,0.00056716,0
4.4026,0.00043993,0
4.4031,0.000307,0
4.4036,0.00019789,0
4.4041,0.00010692,0
4.4046,1.5274e-05,0
4.4052,-6.1936e-05,0
4.4057,-0.00011095,0
4.4062,-0.00015862,0
4.4067,-0.0002172,0
4.4072,-0.00026336,0
4.4078,-0.00028199,0
4.4083,-0.00028635,0
4.4088,-0.00026671,0
4.4093,-0.00021048,0
4.4098,-0.00013378,0
4.4103,-5.5055e-05,0
4.4109,1.091e-05,0
4.4114,5.2201e-05,0
4.4119,6.2943e-05,0
4.4124,4.1291e-05,0
4.4129,-6.8818e-06,0
4.4135,-5.9586e-05,0
4.414,-0.00010172,0
4.4145,-0.00012387,0
4.415,-0.00012874,0
4.4155,-0.00011431,0
4.4161,-7.2343e-05,0
4.4166,-1.9806e-05,0
4.4171,1.1246e-05,0
4.4176,1.7121e-05,0
4.4181,2.8031e-05,0
4.4187,6.5461e-05,0
4.4192,0.000118,0
4.4197,0.00015828,0
4.4202,0.00016835,0
4.4207,0.00014485,0
4.4212,9.5171e-05,0
4.4218,3.0549e-05,0
4.4223,-2.6688e-05,0
4.4228,-6.244e-05,0
4.4233,-8.3757e-05,0
4.4238,-0.00010675,0
4.4244,-0.00011884,0
4.4249,-0.00010272,0
4.4254,-6.5629e-05,0
4.4259,-1.561e-05,0
4.4264,4.448e-05,0
4.427,0.00010977,0
4.4275,0.00015291,0
4.428,0.00015073,0
4.4285,0.00011464,0
4.429,6.7811e-05,0
4.4296,1.3092e-05,0
4.4301,-4.7166e-05,0
4.4306,-9.987e-05,0
4.4311,-0.00014804,0
4.4316,-0.00017708,0
4.4322,-0.00015492,0
4.4327,-8.51e-05,0
4.4332,-1.6785e-07,0
4.4337,6.1936e-05,0
4.4342,9.366e-05,0
4.4348,0.00013545,0
4.4353,0.00020813,0
4.4358,0.00027007,0
4.4363,0.00027242,0
4.4368,0.00022777,0
4.4373,0.00017473,0
4.4379,0.00013378,0
4.4384,0.00010558,0
4.4389,8.2078e-05,0
4.4394,5.7069e-05,0
4.4399,3.8773e-05,0
4.4405,3.4577e-05,0
4.441,3.508e-05,0
4.4415,2.6017e-05,0
4.442,1.1246e-05,0
4.4425,-4.0284e-06,0
4.4431,-1.9638e-05,0
4.4436,-3.7263e-05,0
4.4441,-4.918e-05,0
4.4446,-4.448e-05,0
4.4451,-3.4577e-05,0
4.4457,-3.7095e-05,0
4.4462,-5.153e-05,0
4.4467,-6.5629e-05,0
4.4472,-7.4525e-05,0
4.4477,-7.5868e-05,0
4.4482,-7.2511e-05,0
4.4488,-7.2679e-05,0
4.4493,-7.0329e-05,0
4.4498,-5.6565e-05,0
4.4503,-2.5513e-05,0
4.4508,2.4338e-05,0
4.4514,6.8986e-05,0
4.4519,8.04e-05,0
4.4524,5.1698e-05,0
4.4529,0,0
4.4534,-6.1601e-05,0
4.454,-0.00011196,0
4.4545,-0.00011615,0
4.455,-7.6707e-05,0
4.4555,-4.6159e-05,0
4.456,-5.623e-05,0
4.4566,-7.2343e-05,0
4.4571,-3.743e-05,0
4.4576,5.8915e-05,0
4.4581,0.00018279,0
4.4586,0.0002845,0
4.4592,0.00033654,0
4.4597,0.00034476,0
4.4602,0.0003221,0
4.4607,0.0002798,0
4.4612,0.00022475,0
4.4618,0.00018161,0
4.4623,0.00016298,0
4.4628,0.00014418,0
4.4633,0.00011431,0
4.4638,8.1575e-05,0
4.4643,4.7837e-05,0
4.4649,6.2104e-06,0
4.4654,-3.8941e-05,0
4.4659,-7.4022e-05,0
4.4664,-9.3156e-05,0
4.4669,-0.00010054,0
4.4675,-0.00010927,0
4.468,-0.00013008,0
4.4685,-0.00015123,0
4.469,-0.00014838,0
4.4695,-0.00012589,0
4.4701,-0.00010222,0
4.4706,-7.6371e-05,0
4.4711,-4.5487e-05,0
4.4716,-2.1988e-05,0
4.4721,-1.0239e-05,0
4.4727,-1.1749e-05,0
4.4732,-2.4338e-05,0
4.4737,-4.7166e-05,0
4.4742,-8.9464e-05,0
4.4747,-0.00013764,0
4.4752,-0.00015862,0
4.4758,-0.0001415,0
4.4763,-0.00010608,0
4.4768,-8.1239e-05,0
4.4773,-6.63e-05,0
4.4778,-4.7501e-05,0
4.4784,-3.6759e-05,0
4.4789,-1.4435e-05,0
4.4794,6.1601e-05,0
4.4799,0.0001603,0
4.4804,0.00021653,0
4.481,0.00020125,0
4.4815,0.00014536,0
4.482,9.4163e-05,0
4.4825,8.275e-05,0
4.483,0.00010256,0
4.4836,0.000118,0
4.4841,0.00012152,0
4.4846,0.00011128,0
4.4851,7.7043e-05,0
4.4856,2.0981e-05,0
4.4862,-3.3906e-05,0
4.4867,-6.5293e-05,0
4.4872,-5.9251e-05,0
4.4877,-2.1988e-05,0
4.4882,2.182e-05,0
4.4887,4.9012e-05,0
4.4893,5.7572e-05,0
4.4898,6.0929e-05,0
4.4903,6.6133e-05,0
4.4908,6.1936e-05,0
4.4913,3.9445e-05,0
4.4919,-5.0355e-07,0
4.4924,-7.3686e-05,0
4.4929,-0.00018598,0
4.4934,-0.00029223,0
4.4939,-0.00032882,0
4.4945,-0.00028316,0
4.495,-0.00020427,0
4.4955,-0.00012757,0
4.496,-4.3809e-05,0
4.4965,5.4551e-05,0
4.4971,0.00015526,0
4.4976,0.00025228,0
4.4981,0.00033805,0
4.4986,0.00038286,0
4.4991,0.00037246,0
4.4997,0.00033452,0
4.5002,0.00029189,0
4.5007,0.0002459,0
4.5012,0.00018933,0
4.5017,0.00012673,0
4.5023,8.4428e-05,0
4.5028,7.335e-05,0
4.5033,8.4092e-05,0
4.5038,9.1814e-05,0
4.5043,6.0258e-05,0
4.5048,-5.8747e-06,0
4.5054,-5.388e-05,0
4.5059,-5.5222e-05,0
4.5064,-4.7837e-05,0
4.5069,-5.9754e-05,0
4.5074,-6.7811e-05,0
4.508,-4.918e-05,0
4.5085,-2.3499e-05,0
4.509,-6.5461e-06,0
4.5095,-4.8676e-06,0
4.51,-2.6184e-05,0
4.5106,-6.2272e-05,0
4.5111,-9.3828e-05,0
4.5116,-0.00010423,0
4.5121,-9.6513e-05,0
4.5126,-7.57e-05,0
4.5132,-4.7501e-05,0
4.5137,-2.5681e-05,0
4.5142,-8.2246e-06,0
4.5147,2.5345e-05,0
4.5152,6.9154e-05,0
4.5157,9.4331e-05,0
4.5163,9.1646e-05,0
4.5168,6.7979e-05,0
4.5173,3.3066e-05,0
4.5178,-2.182e-06,0
4.5183,-3.592e-05,0
4.5189,-6.2104e-05,0
4.5194,-6.8315e-05,0
4.5199,-5.8244e-05,0
4.5204,-5.1026e-05,0
4.5209,-5.6901e-05,0
4.5215,-7.1336e-05,0
4.522,-8.6778e-05,0
4.5225,-8.8792e-05,0
4.523,-6.244e-05,0
4.5235,-2.3331e-05,0
4.5241,1.0575e-05,0
4.5246,3.8605e-05,0
4.5251,6.2608e-05,0
4.5256,7.6036e-05,0
4.5261,8.3085e-05,0
4.5267,8.7785e-05,0
4.5272,8.3757e-05,0
4.5277,6.6636e-05,0
4.5282,3.9277e-05,0
4.5287,7.7211e-06,0
4.5293,-1.3931e-05,0
4.5298,-1.0239e-05,0
4.5303,2.417e-05,0
4.5308,6.2943e-05,0
4.5313,6.9657e-05,0
4.5318,4.4144e-05,0
4.5324,1.9806e-05,0
4.5329,3.357e-06,0
4.5334,-2.0981e-05,0
4.5339,-5.4719e-05,0
4.5344,-7.5532e-05,0
4.535,-6.9322e-05,0
4.5355,-4.5991e-05,0
4.536,-1.9303e-05,0
4.5365,1.1414e-05,0
4.537,5.0858e-05,0
4.5376,8.7617e-05,0
4.5381,0.00010457,0
4.5386,9.5674e-05,0
4.5391,6.9154e-05,0
4.5396,5.0858e-05,0
4.5402,5.8579e-05,0
4.5407,7.9728e-05,0
4.5412,8.5267e-05,0
4.5417,6.1433e-05,0
4.5422,2.7359e-05,0
4.5427,1.4603e-05,0
4.5433,3.3234e-05,0
4.5438,6.2943e-05,0
4.5443,7.7379e-05,0
4.5448,7.7043e-05,0
4.5453,7.335e-05,0
4.5459,7.5364e-05,0
4.5464,8.7282e-05,0
4.5469,0.00010222,0
4.5474,9.8024e-05,0
4.5479,7.3686e-05,0
4.5485,5.7237e-05,0
4.549,5.5222e-05,0
4.5495,5.153e-05,0
4.55,3.2395e-05,0
4.5505,-1.3596e-05,0
4.5511,-7.9728e-05,0
4.5516,-0.00013797,0
4.5521,-0.00017842,0
4.5526,-0.0002031,0
4.5531,-0.00019437,0
4.5537,-0.00015006,0
4.5542,-9.1814e-05,0
4.5547,-3.1556e-05,0
4.5552,2.8702e-05,0
4.5557,8.7785e-05,0
4.5563,0.00015996,0
4.5568,0.00024556,0
4.5573,0.00031807,0
4.5578,0.00034124,0
4.5583,0.00030364,0
4.5588,0.00023751,0
4.5594,0.00017893,0
4.5599,0.00012857,0
4.5604,6.6468e-05,0
4.5609,2.5177e-06,0
4.5614,-2.8367e-05,0
4.562,-1.8631e-05,0
4.5625,1.1749e-06,0
4.563,-1.091e-05,0
4.5635,-7.0665e-05,0
4.564,-0.00015442,0
4.5646,-0.00022509,0
4.5651,-0.00024858,0
4.5656,-0.00022777,0
4.5661,-0.00019202,0
4.5666,-0.00016097,0
4.5672,-0.00012908,0
4.5677,-8.5771e-05,0
4.5682,-2.2156e-05,0
4.5687,6.7643e-05,0
4.5692,0.00015425,0
4.5697,0.00020092,0
4.5703,0.00019219,0
4.5708,0.00015224,0
4.5713,0.00011649,0
4.5718,9.9199e-05,0
4.5723,8.7282e-05,0
4.5729,7.3686e-05,0
4.5734,7.0665e-05,0
4.5739,5.153e-05,0
4.5744,-2.2828e-05,0
4.5749,-0.00011749,0
4.5755,-0.00017574,0
4.576,-0.00020192,0
4.5765,-0.00020108,0
4.577,-0.00014368,0
4.5775,-7.5532e-06,0
4.5781,0.0001702,0
4.5786,0.00028316,0
4.5791,0.00028014,0
4.5796,0.00022811,0
4.5801,0.0002036,0
4.5807,0.0002036,0
4.5812,0.00018682,0
4.5817,0.0001415,0
4.5822,7.9057e-05,0
4.5827,1.5274e-05,0
4.5832,-2.8702e-05,0
4.5838,-4.4984e-05,0
4.5843,-4.4144e-05,0
4.5848,-3.9612e-05,0
4.5853,-4.1962e-05,0
4.5858,-5.0187e-05,0
4.5864,-5.6901e-05,0
4.5869,-5.4887e-05,0
4.5874,-4.2466e-05,0
4.5879,-3.0716e-05,0
4.5884,-3.0381e-05,0
4.589,-4.2969e-05,0
4.5895,-6.9322e-05,0
4.59,-0.00010961,0
4.5905,-0.00015123,0
4.591,-0.00017339,0
4.5916,-0.00016298,0
4.5921,-0.00012488,0
4.5926,-6.9322e-05,0
4.5931,-9.9031e-06,0
4.5936,4.2802e-05,0
4.5942,8.9967e-05,0
4.5947,0.00013478,0
4.5952,0.00018044,0
4.5957,0.00021569,0
4.5962,0.00022441,0
4.5968,0.00019974,0
4.5973,0.00014536,0
4.5978,8.1071e-05,0
4.5983,3.1724e-05,0
4.5988,1.0239e-05,0
4.5993,6.0426e-06,0
4.5999,-2.0142e-06,0
4.6004,-2.031e-05,0
4.6009,-4.2466e-05,0
4.6014,-5.623e-05,0
4.6019,-5.9586e-05,0
4.6025,-6.1769e-05,0
4.603,-7.3686e-05,0
4.6035,-9.752e-05,0
4.604,-0.00011951,0
4.6045,-0.00012354,0
4.6051,-0.00010289,0
4.6056,-6.0426e-05,0
4.6061,-1.0407e-05,0
4.6066,2.4674e-05,0
4.6071,4.3137e-05,0
4.6077,6.1936e-05,0
4.6082,8.8121e-05,0
4.6087,0.00011565,0
4.6092,0.00013411,0
4.6097,0.00013075,0
4.6102,9.6513e-05,0
4.6108,4.6326e-05,0
4.6113,-2.3499e-06,0
4.6118,-2.501e-05,0
4.6123,-2.4506e-05,0
4.6128,-3.1388e-05,0
4.6134,-6.2104e-05,0
4.6139,-0.00010692,0
4.6144,-0.00013915,0
4.6149,-0.00013176,0
4.6154,-6.9993e-05,0
4.616,2.0645e-05,0
4.6165,9.8024e-05,0
4.617,0.00013462,0
4.6175,0.0001237,0
4.618,7.2007e-05,0
4.6186,1.7288e-05,0
4.6191,1.326e-05,0
4.6196,5.0187e-05,0
4.6201,6.0929e-05,0
4.6206,2.7695e-05,0
4.6212,-1.0239e-05,0
4.6217,-5.539e-06,0
4.6222,4.9012e-05,0
4.6227,0.00012169,0
4.6232,0.00017523,0
4.6238,0.00018245,0
4.6243,0.00013075,0
4.6248,4.918e-05,0
4.6253,-2.1653e-05,0
4.6258,-6.714e-05,0
4.6263,-9.9535e-05,0
4.6269,-0.00013797,0
4.6274,-0.00017205,0
4.6279,-0.00017842,0
4.6284,-0.0001519,0
4.6289,-9.7185e-05,0
4.6295,-1.6281e-05,0
4.63,7.5364e-05,0
4.6305,0.00014922,0
4.631,0.00019084,0
4.6315,0.00021233,0
4.6321,0.00023113,0
4.6326,0.00024556,0
4.6331,0.00023247,0
4.6336,0.00018144,0
4.6341,0.00012471,0
4.6347,0.00010726,0
4.6352,0.00013092,0
4.6357,0.00015106,0
4.6362,0.00011766,0
4.6367,2.9206e-05,0
4.6372,-4.7669e-05,0
4.6378,-6.5965e-05,0
4.6383,-4.3137e-05,0
4.6388,-2.6352e-05,0
4.6393,-3.5248e-05,0
4.6398,-6.6636e-05,0
4.6404,-0.00010105,0
4.6409,-9.4835e-05,0
4.6414,-2.7192e-05,0
4.6419,6.6133e-05,0
4.6424,0.00014049,0
4.643,0.00017205,0
4.6435,0.00015879,0
4.644,0.00012857,0
4.6445,0.0001034,0
4.645,7.9393e-05,0
4.6456,5.0355e-05,0
4.6461,3.357e-07,0
4.6466,-8.8121e-05,0
4.6471,-0.00017221,0
4.6476,-0.00019101,0
4.6482,-0.00015409,0
4.6487,-0.00011363,0
4.6492,-9.7185e-05,0
4.6497,-0.0001091,0
4.6502,-0.00014267,0
4.6508,-0.00017272,0
4.6513,-0.00016382,0
4.6518,-0.00010188,0
4.6523,-1.4267e-05,0
4.6528,5.8915e-05,0
4.6533,0.00010088,0
4.6539,0.00011313,0
4.6544,0.00011196,0
4.6549,0.00011968,0
4.6554,0.00013646,0
4.6559,0.00015157,0
4.6565,0.0001556,0
4.657,0.00014452,0
4.6575,0.00011666,0
4.658,7.6707e-05,0
4.6585,2.7359e-05,0
4.6591,-2.3163e-05,0
4.6596,-6.2272e-05,0
4.6601,-8.0735e-05,0
4.6606,-8.191e-05,0
4.6611,-7.2679e-05,0
4.6617,-5.8579e-05,0
4.6622,-4.3137e-05,0
4.6627,-2.2324e-05,0
4.6632,2.5177e-06,0
4.6637,1.8631e-05,0
4.6643,1.9638e-05,0
4.6648,1.5106e-05,0
4.6653,1.0575e-05,0
4.6658,8.896e-06,0
4.6663,6.5461e-06,0
4.6668,-5.539e-06,0
4.6674,-2.1485e-05,0
4.6679,-2.1988e-05,0
4.6684,8.7282e-06,0
4.6689,6.0761e-05,0
4.6694,0.00010507,0
4.67,0.00012656,0
4.6705,0.00013445,0
4.671,0.00014569,0
4.6715,0.00016936,0
4.672,0.00019487,0
4.6726,0.0001994,0
4.6731,0.0001707,0
4.6736,0.00011263,0
4.6741,4.3473e-05,0
4.6746,-2.0478e-05,0
4.6752,-7.3854e-05,0
4.6757,-0.00010826,0
4.6762,-0.00011363,0
4.6767,-8.8792e-05,0
4.6772,-5.6062e-05,0
4.6777,-3.2395e-05,0
4.6783,-1.4267e-05,0
4.6788,-1.0742e-05,0
4.6793,-3.2898e-05,0
4.6798,-7.5364e-05,0
4.6803,-0.00011128,0
4.6809,-0.00011447,0
4.6814,-9.6345e-05,0
4.6819,-8.3757e-05,0
4.6824,-7.9393e-05,0
4.6829,-5.7237e-05,0
4.6835,-1.1749e-06,0
4.684,6.6133e-05,0
4.6845,0.00011766,0
4.685,0.00014418,0
4.6855,0.00013713,0
4.6861,9.0471e-05,0
4.6866,2.8031e-05,0
4.6871,-1.8128e-05,0
4.6876,-6.9322e-05,0
4.6881,-0.00014485,0
4.6887,-0.00018144,0
4.6892,-0.00012975,0
4.6897,-3.2731e-05,0
4.6902,4.9516e-05,0
4.6907,0.00010558,0
4.6913,0.00015509,0
4.6918,0.00020461,0
4.6923,0.00025228,0
4.6928,0.00030733,0
4.6933,0.00035836,0
4.6938,0.00037682,0
4.6944,0.00034292,0
4.6949,0.00027678,0
4.6954,0.000213,0
4.6959,0.00015828,0
4.6964,0.00010222,0
4.697,3.743e-05,0
4.6975,-3.9612e-05,0
4.698,-0.00011431,0
4.6985,-0.00016231,0
4.699,-0.00018279,0
4.6996,-0.00018631,0
4.7001,-0.00017943,0
4.7006,-0.00015644,0
4.7011,-0.0001185,0
4.7016,-7.9728e-05,0
4.7022,-5.153e-05,0
4.7027,-3.508e-05,0
4.7032,-2.0981e-05,0
4.7037,-1.2757e-05,0
4.7042,-1.9303e-05,0
4.7047,-3.2731e-05,0
4.7053,-3.4409e-05,0
4.7058,-2.1653e-05,0
4.7063,-1.0071e-06,0
4.7068,9.2317e-06,0
4.7073,4.5319e-06,0
4.7079,4.8676e-06,0
4.7084,1.9303e-05,0
4.7089,3.7095e-05,0
4.7094,4.5487e-05,0
4.7099,4.9516e-05,0
4.7105,6.6804e-05,0
4.711,8.1743e-05,0
4.7115,5.8244e-05,0
4.712,1.6785e-06,0
4.7125,-5.1362e-05,0
4.7131,-8.3589e-05,0
4.7136,-0.00010591,0
4.7141,-0.00010809,0
4.7146,-8.51e-05,0
4.7151,-4.8341e-05,0
4.7157,-4.1962e-06,0
4.7162,3.7263e-05,0
4.7167,5.9586e-05,0
4.7172,7.2679e-05,0
4.7177,8.4428e-05,0
4.7183,7.0329e-05,0
4.7188,2.4842e-05,0
4.7193,-2.2324e-05,0
4.7198,-3.8773e-05,0
4.7203,-9.3996e-06,0
4.7208,4.4144e-05,0
4.7214,8.3757e-05,0
4.7219,9.4499e-05,0
4.7224,9.1478e-05,0
4.7229,9.0135e-05,0
4.7234,9.8863e-05,0
4.724,0.00011464,0
4.7245,0.00012538,0
4.725,0.00011699,0
4.7255,8.3085e-05,0
4.726,3.6591e-05,0
4.7266,2.5177e-06,0
4.7271,-7.8889e-06,0
4.7276,-3.6927e-06,0
4.7281,-1.3428e-06,0
4.7286,-1.0239e-05,0
4.7292,-3.3234e-05,0
4.7297,-6.1265e-05,0
4.7302,-8.191e-05,0
4.7307,-9.6178e-05,0
4.7312,-0.00010692,0
4.7317,-0.00011699,0
4.7323,-0.00013277,0
4.7328,-0.00013931,0
4.7333,-0.00012471,0
4.7338,-9.3492e-05,0
4.7343,-5.4215e-05,0
4.7349,-1.4267e-05,0
4.7354,1.4267e-05,0
4.7359,3.0716e-05,0
4.7364,4.9516e-05,0
4.7369,7.7714e-05,0
4.7375,9.9031e-05,0
4.738,0.00010961,0
4.7385,0.0001232,0
4.739,0.00013747,0
4.7395,0.00014888,0
4.7401,0.0001556,0
4.7406,0.0001514,0
4.7411,0.00014116,0
4.7416,0.00014284,0
4.7421,0.00016701,0
4.7427,0.00019152,0
4.7432,0.0001895,0
4.7437,0.00015711,0
4.7442,9.9199e-05,0
4.7447,1.9974e-05,0
4.7453,-5.4551e-05,0
4.7458,-0.00010121,0
4.7463,-0.00012706,0
4.7468,-0.0001519,0
4.7473,-0.00018144,0
4.7478,-0.00020108,0
4.7484,-0.0002036,0
4.7489,-0.00017826,0
4.7494,-0.0001232,0
4.7499,-6.1601e-05,0
4.7504,-2.031e-05,0
4.751,7.7211e-06,0
4.7515,3.9612e-05,0
4.752,7.1336e-05,0
4.7525,8.9799e-05,0
4.753,9.9199e-05,0
4.7536,0.00011514,0
4.7541,0.00013747,0
4.7546,0.00014066,0
4.7551,0.0001086,0
4.7556,5.7572e-05,0
4.7562,1.7624e-05,0
4.7567,8.2246e-06,0
4.7572,2.9541e-05,0
4.7577,6.1433e-05,0
4.7582,9.0471e-05,0
4.7588,0.0001284,0
4.7593,0.00017691,0
4.7598,0.00022475,0
4.7603,0.00026168,0
4.7608,0.00027007,0
4.7613,0.00023079,0
4.7619,0.0001462,0
4.7624,4.3137e-05,0
4.7629,-5.4215e-05,0
4.7634,-0.00013999,0
4.7639,-0.0001984,0
4.7645,-0.00020444,0
4.765,-0.00015895,0
4.7655,-9.752e-05,0
4.766,-5.539e-05,0
4.7665,-3.9948e-05,0
4.7671,-3.4073e-05,0
4.7676,-2.4338e-05,0
4.7681,-1.3931e-05,0
4.7686,-2.8534e-06,0
4.7691,1.0575e-05,0
4.7697,1.9135e-05,0
4.7702,1.6617e-05,0
4.7707,7.0497e-06,0
4.7712,2.8534e-06,0
4.7717,2.8534e-06,0
4.7722,-5.0355e-06,0
4.7728,-2.8702e-05,0
4.7733,-5.7908e-05,0
4.7738,-6.949e-05,0
4.7743,-7.6707e-05,0
4.7748,-0.00010826,0
4.7754,-0.00016097,0
4.7759,-0.00019269,0
4.7764,-0.00017322,0
4.7769,-0.00011901,0
4.7774,-5.1698e-05,0
4.778,1.9471e-05,0
4.7785,8.4596e-05,0
4.779,0.00013176,0
4.7795,0.00016197,0
4.78,0.00018514,0
4.7806,0.00020528,0
4.7811,0.00021434,0
4.7816,0.00020058,0
4.7821,0.00015996,0
4.7826,0.00011061,0
4.7832,7.2343e-05,0
4.7837,4.213e-05,0
4.7842,9.5674e-06,0
4.7847,-2.266e-05,0
4.7852,-2.7024e-05,0
4.7858,3.5248e-06,0
4.7863,3.2898e-05,0
4.7868,3.743e-05,0
4.7873,2.3331e-05,0
4.7878,8.5603e-06,0
4.7883,8.2246e-06,0
4.7889,4.0452e-05,0
4.7894,9.5674e-05,0
4.7899,0.00014351,0
4.7904,0.00015543,0
4.7909,0.00013092,0
4.7915,0.00010121,0
4.792,0.00010188,0
4.7925,0.00012538,0
4.793,0.0001284,0
4.7935,9.1646e-05,0
4.7941,1.9974e-05,0
4.7946,-6.2608e-05,0
4.7951,-0.00010877,0
4.7956,-0.00010205,0
4.7961,-7.7379e-05,0
4.7967,-6.9322e-05,0
4.7972,-7.57e-05,0
4.7977,-7.4022e-05,0
4.7982,-5.388e-05,0
4.7987,-2.5345e-05,0
4.7992,-2.8534e-06,0
4.7998,1.0575e-05,0
4.8003,1.9974e-05,0
4.8008,3.0549e-05,0
4.8013,4.3473e-05,0
4.8018,5.4215e-05,0
4.8024,5.9251e-05,0
4.8029,6.0258e-05,0
4.8034,5.6062e-05,0
4.8039,4.0787e-05,0
4.8044,2.0478e-05,0
4.805,5.2033e-06,0
4.8055,-6.0426e-06,0
4.806,-1.6953e-05,0
4.8065,-2.8367e-05,0
4.807,-3.8941e-05,0
4.8076,-4.7166e-05,0
4.8081,-5.8915e-05,0
4.8086,-6.8315e-05,0
4.8091,-6.7979e-05,0
4.8096,-6.5629e-05,0
4.8102,-5.623e-05,0
4.8107,-3.2395e-05,0
4.8112,-1.2924e-05,0
4.8117,-1.1749e-05,0
4.8122,-2.2995e-05,0
4.8128,-3.6423e-05,0
4.8133,-5.1698e-05,0
4.8138,-5.9083e-05,0
4.8143,-4.8005e-05,0
4.8148,-2.4674e-05,0
4.8153,7.3854e-06,0
4.8159,3.6759e-05,0
4.8164,4.918e-05,0
4.8169,4.8173e-05,0
4.8174,4.8005e-05,0
4.8179,5.2201e-05,0
4.8185,5.0858e-05,0
4.819,4.1794e-05,0
4.8195,3.0045e-05,0
4.82,1.8967e-05,0
4.8205,1.3092e-05,0
4.8211,9.0639e-06,0
4.8216,-4.3641e-06,0
4.8221,-2.1653e-05,0
4.8226,-5.2201e-05,0
4.8231,-8.9799e-05,0
4.8237,-9.8192e-05,0
4.8242,-6.1936e-05,0
4.8247,-1.5106e-06,0
4.8252,5.7572e-05,0
4.8257,0.00010977,0
4.8262,0.0001707,0
4.8268,0.00023885,0
4.8273,0.0002647,0
4.8278,0.00021199,0
4.8283,0.00011061,0
4.8288,5.2033e-06,0
4.8294,-8.2078e-05,0
4.8299,-0.00013025,0
4.8304,-0.00012102,0
4.8309,-5.623e-05,0
4.8314,2.501e-05,0
4.832,9.6345e-05,0
4.8325,0.00017053,0
4.833,0.00026839,0
4.8335,0.00038924,0
4.834,0.00048324,0
4.8346,0.00049784,0
4.8351,0.00042382,0
4.8356,0.00027678,0
4.8361,0.00010356,0
4.8366,-2.5849e-05,0
4.8372,-8.7282e-05,0
4.8377,-0.00010558,0
4.8382,-0.00010591,0
4.8387,-9.7185e-05,0
4.8392,-8.1407e-05,0
4.8398,-6.8147e-05,0
4.8403,-6.6804e-05,0
4.8408,-7.9225e-05,0
4.8413,-0.00010222,0
4.8418,-0.00012387,0
4.8423,-0.00013948,0
4.8429,-0.0001514,0
4.8434,-0.0001613,0
4.8439,-0.00017456,0
4.8444,-0.00019202,0
4.8449,-0.00019034,0
4.8455,-0.00015895,0
4.846,-0.00012303,0
4.8465,-0.00010961,0
4.847,-0.00010004,0
4.8475,-6.8315e-05,0
4.8481,-1.7624e-05,0
4.8486,3.6088e-05,0
4.8491,8.4764e-05,0
4.8496,0.00013613,0
4.8501,0.00019857,0
4.8507,0.00025161,0
4.8512,0.00026839,0
4.8517,0.0002407,0
4.8522,0.00019017,0
4.8527,0.0001368,0
4.8533,8.9799e-05,0
4.8538,5.9754e-05,0
4.8543,5.4383e-05,0
4.8548,6.1601e-05,0
4.8553,4.9348e-05,0
4.8558,-1.4939e-05,0
4.8564,-0.00011179,0
4.8569,-0.00016701,0
4.8574,-0.00014888,0
4.8579,-9.6513e-05,0
4.8584,-5.7572e-05,0
4.859,-4.7166e-05,0
4.8595,-5.1362e-05,0
4.86,-4.4312e-05,0
4.8605,3.357e-07,0
4.861,7.7546e-05,0
4.8616,0.00013663,0
4.8621,0.00013378,0
4.8626,8.1407e-05,0
4.8631,2.6352e-05,0
4.8636,-1.5946e-05,0
4.8642,-6.1265e-05,0
4.8647,-0.00011632,0
4.8652,-0.00016349,0
4.8657,-0.00018144,0
4.8662,-0.00016785,0
4.8667,-0.00012857,0
4.8673,-7.6707e-05,0
4.8678,-2.887e-05,0
4.8683,6.5461e-06,0
4.8688,3.5752e-05,0
4.8693,6.3615e-05,0
4.8699,9.4835e-05,0
4.8704,0.0001279,0
4.8709,0.0001472,0
4.8714,0.00014452,0
4.8719,0.00012605,0
4.8725,9.5842e-05,0
4.873,6.7475e-05,0
4.8735,6.3447e-05,0
4.874,8.3589e-05,0
4.8745,0.0001086,0
4.8751,0.00011833,0
4.8756,0.00010457,0
4.8761,6.6972e-05,0
4.8766,6.2104e-06,0
4.8771,-4.7837e-05,0
4.8777,-6.1601e-05,0
4.8782,-3.8605e-05,0
4.8787,-1.3931e-05,0
4.8792,-1.3092e-05,0
4.8797,-1.3931e-05,0
4.8803,1.6617e-05,0
4.8808,7.1e-05,0
4.8813,0.00011749,0
4.8818,0.0001425,0
4.8823,0.00014788,0
4.8828,0.00013814,0
4.8834,0.00011984,0
4.8839,0.00010726,0
4.8844,0.00010591,0
4.8849,0.00010306,0
4.8854,7.4357e-05,0
4.886,2.3835e-05,0
4.8865,-2.0645e-05,0
4.887,-4.5823e-05,0
4.8875,-5.7237e-05,0
4.888,-7.1336e-05,0
4.8886,-0.00010759,0
4.8891,-0.0001613,0
4.8896,-0.00018883,0
4.8901,-0.00016634,0
4.8906,-0.00011582,0
4.8912,-5.5726e-05,0
4.8917,8.896e-06,0
4.8922,6.865e-05,0
4.8927,0.00011901,0
4.8932,0.00016567,0
4.8937,0.00021468,0
4.8943,0.00024456,0
4.8948,0.00022307,0
4.8953,0.00016147,0
4.8958,9.8863e-05,0
4.8963,4.8173e-05,0
4.8969,6.2104e-06,0
4.8974,-2.2995e-05,0
4.8979,-3.6423e-05,0
4.8984,-3.7934e-05,0
4.8989,-3.7095e-05,0
4.8995,-3.508e-05,0
4.9,-2.6184e-05,0
4.9005,-1.1414e-05,0
4.901,-6.0426e-06,0
4.9015,-8.896e-06,0
4.9021,-7.5532e-06,0
4.9026,-2.182e-06,0
4.9031,-2.8534e-06,0
4.9036,-2.0813e-05,0
4.9041,-4.1962e-05,0
4.9047,-5.2201e-05,0
4.9052,-6.3279e-05,0
4.9057,-9.2149e-05,0
4.9062,-0.00012673,0
4.9067,-0.00012102,0
4.9073,-4.6494e-05,0
4.9078,6.2608e-05,0
4.9083,0.00013881,0
4.9088,0.00015258,0
4.9093,0.00012975,0
4.9098,0.00011934,0
4.9104,0.0001425,0
4.9109,0.00016701,0
4.9114,0.00014485,0
4.9119,8.3757e-05,0
4.9124,2.4338e-05,0
4.913,-1.0407e-05,0
4.9135,-2.9374e-05,0
4.914,-5.1362e-05,0
4.9145,-8.5771e-05,0
4.915,-0.00011749,0
4.9156,-0.00012589,0
4.9161,-0.00010726,0
4.9166,-7.6707e-05,0
4.9171,-5.6565e-05,0
4.9176,-6.1936e-05,0
4.9182,-8.5603e-05,0
4.9187,-0.00010323,0
4.9192,-0.00010323,0
4.9197,-0.00010004,0
4.9202,-0.00010591,0
4.9207,-0.00012236,0
4.9213,-0.00014217,0
4.9218,-0.00014821,0
4.9223,-0.00014418,0
4.9228,-0.00013596,0
4.9233,-0.00011028,0
4.9239,-5.539e-05,0
4.9244,1.561e-05,0
4.9249,8.4932e-05,0
4.9254,0.00017003,0
4.9259,0.00028115,0
4.9265,0.00039327,0
4.927,0.00046343,0
4.9275,0.0004725,0
4.928,0.00043188,0
4.9285,0.0003592,0
4.9291,0.00027108,0
4.9296,0.0001754,0
4.9301,7.57e-05,0
4.9306,-1.8296e-05,0
4.9311,-7.9896e-05,0
4.9317,-0.00010021,0
4.9322,-0.00010407,0
4.9327,-0.00010977,0
4.9332,-0.00010188,0
4.9337,-7.1e-05,0
4.9342,-3.6088e-05,0
4.9348,-1.0239e-05,0
4.9353,1.1246e-05,0
4.9358,3.743e-05,0
4.9363,6.7475e-05,0
4.9368,8.8457e-05,0
4.9374,9.2485e-05,0
4.9379,8.426e-05,0
4.9384,6.5965e-05,0
4.9389,3.2395e-05,0
4.9394,2.8534e-06,0
4.94,2.6856e-06,0
4.9405,2.3331e-05,0
4.941,3.6759e-05,0
4.9415,3.7095e-05,0
4.942,3.3402e-05,0
4.9426,2.8367e-05,0
4.9431,2.7695e-05,0
4.9436,3.743e-05,0
4.9441,4.9683e-05,0
4.9446,5.2537e-05,0
4.9452,3.978e-05,0
4.9457,1.6953e-05,0
4.9462,8.7282e-06,0
4.9467,2.031e-05,0
4.9472,8.5603e-06,0
4.9478,-3.1388e-05,0
4.9483,-5.3208e-05,0
4.9488,-4.918e-05,0
4.9493,-5.388e-05,0
4.9498,-6.4622e-05,0
4.9503,-4.2802e-05,0
4.9509,1.9638e-05,0
4.9514,8.4428e-05,0
4.9519,0.00011112,0
4.9524,9.987e-05,0
4.9529,7.6371e-05,0
4.9535,4.5151e-05,0
4.954,-8.3925e-06,0
4.9545,-8.1407e-05,0
4.955,-0.00016953,0
4.9555,-0.00027477,0
4.9561,-0.00038152,0
4.9566,-0.00046108,0
4.9571,-0.00048475,0
4.9576,-0.00043171,0
4.9581,-0.00030767,0
4.9587,-0.0001519,0
4.9592,-5.539e-06,0
4.9597,0.00011649,0
4.9602,0.00023046,0
4.9607,0.00035097,0
4.9612,0.00044765,0
4.9618,0.00045907,0
4.9623,0.00036826,0
4.9628,0.00023566,0
4.9633,0.0001378,0
4.9638,7.7714e-05,0
4.9644,3.0716e-05,0
4.9649,3.6927e-06,0
4.9654,-6.2104e-06,0
4.9659,-2.9709e-05,0
4.9664,-8.1743e-05,0
4.967,-0.00013025,0
4.9675,-0.00013059,0
4.968,-8.6107e-05,0
4.9685,-3.357e-05,0
4.969,1.3931e-05,0
4.9696,6.5461e-05,0
4.9701,0.00012119,0
4.9706,0.00017809,0
4.9711,0.00023532,0
4.9716,0.00028853,0
4.9722,0.00031035,0
4.9727,0.00026738,0
4.9732,0.00017607,0
4.9737,9.0974e-05,0
4.9742,4.062e-05,0
4.9748,1.1582e-05,0
4.9753,-1.5778e-05,0
4.9758,-4.8508e-05,0
4.9763,-8.7449e-05,0
4.9768,-0.0001237,0
4.9773,-0.00014452,0
4.9779,-0.00013764,0
4.9784,-0.00010776,0
4.9789,-7.1e-05,0
4.9794,-3.4409e-05,0
4.9799,-4.8676e-06,0
4.9805,5.0355e-06,0
4.981,1.0575e-05,0
4.9815,3.6088e-05,0
4.982,6.0426e-05,0
4.9825,5.2873e-05,0
4.9831,2.5681e-05,0
4.9836,3.6927e-06,0
4.9841,1.6785e-06,0
4.9846,2.2995e-05,0
4.9851,6.0426e-05,0
4.9857,0.00010188,0
4.9862,0.00013042,0
4.9867,0.00013848,0
4.9872,0.00013109,0
4.9877,0.0001086,0
4.9882,7.8553e-05,0
4.9888,4.8844e-05,0
4.9893,2.3835e-05,0
4.9898,4.8676e-06,0
4.9903,-1.3764e-05,0
4.9908,-4.2466e-05,0
4.9914,-7.7882e-05,0
4.9919,-0.00011162,0
4.9924,-0.00014066,0
4.9929,-0.00014502,0
4.9934,-0.00010893,0
4.994,-5.0187e-05,0
4.9945,6.5461e-06,0
4.995,5.4215e-05,0
4.9955,9.5171e-05,0
4.996,0.00013277,0
4.9966,0.00017137,0
4.9971,0.00020595,0
4.9976,0.00022576,0
4.9981,0.00021267,0
4.9986,0.00016768,0
4.9992,0.0001091,0
4.9997,5.2201e-05,0
5.0002,-2.5177e-06,0
5.0007,-6.1936e-05,0
5.0012,-0.00012102,0
5.0018,-0.00016533,0
5.0023,-0.0001843,0
5.0028,-0.00019068,0
5.0033,-0.00020528,0
5.0038,-0.000236,0
5.0043,-0.00025798,0
5.0049,-0.00024321,0
5.0054,-0.00018933,0
5.0059,-0.00011397,0
5.0064,-3.1052e-05,0
5.0069,4.9348e-05,0
5.0075,0.00012639,0
5.008,0.00021669,0
5.0085,0.00032177,0
5.009,0.00040536,0
5.0095,0.00041476,0
5.0101,0.00034543,0
5.0106,0.00023415,0
5.0111,0.00011498,0
5.0116,1.4939e-05,0
5.0121,-4.448e-05,0
5.0127,-6.1265e-05,0
5.0132,-4.8844e-05,0
5.0137,-3.1556e-05,0
5.0142,-1.9638e-05,0
5.0147,-1.5946e-05,0
5.0152,-2.1317e-05,0
5.0158,-3.1052e-05,0
5.0163,-4.0284e-05,0
5.0168,-4.448e-05,0
5.0173,-3.8773e-05,0
5.0178,-2.6017e-05,0
5.0184,-1.4939e-05,0
5.0189,-6.0426e-06,0
5.0194,-2.0142e-06,0
5.0199,-4.3641e-06,0
5.0204,-1.2589e-05,0
5.021,-2.1317e-05,0
5.0215,-1.5106e-05,0
5.022,6.0426e-06,0
5.0225,1.091e-05,0
5.023,-9.0639e-06,0
5.0236,-3.4577e-05,0
5.0241,-4.683e-05,0
5.0246,-4.0787e-05,0
5.0251,-2.3667e-05,0
5.0256,-6.8818e-06,0
5.0262,2.3499e-06,0
5.0267,5.0355e-07,0
5.0272,-2.417e-05,0
5.0277,-6.1936e-05,0
5.0282,-7.3014e-05,0
5.0287,-4.8173e-05,0
5.0293,-2.5177e-05,0
5.0298,-3.0716e-05,0
5.0303,-4.8173e-05,0
5.0308,-4.3809e-05,0
5.0313,1.8463e-06,0
5.0319,9.0471e-05,0
5.0324,0.00018715,0
5.0329,0.00025295,0
5.0334,0.00027494,0
5.0339,0.00025194,0
5.0345,0.00020159,0
5.035,0.00014855,0
5.0355,0.00010507,0
5.036,7.1e-05,0
5.0365,4.448e-05,0
5.0371,2.2324e-05,0
5.0376,6.2104e-06,0
5.0381,-1.1749e-06,0
5.0386,-3.0213e-06,0
5.0391,-2.9374e-05,0
5.0397,-0.00010188,0
5.0402,-0.00016936,0
5.0407,-0.00018296,0
5.0412,-0.00015073,0
5.0417,-0.00011632,0
5.0423,-8.7449e-05,0
5.0428,-3.3906e-05,0
5.0433,5.2537e-05,0
5.0438,0.00013143,0
5.0443,0.00016667,0
5.0448,0.00019236,0
5.0454,0.00023281,0
5.0459,0.00025261,0
5.0464,0.00022811,0
5.0469,0.00016869,0
5.0474,9.6513e-05,0
5.048,3.2898e-05,0
5.0485,-2.3667e-05,0
5.049,-7.6875e-05,0
5.0495,-0.00012572,0
5.05,-0.00016634,0
5.0506,-0.00017607,0
5.0511,-0.00013445,0
5.0516,-5.6062e-05,0
5.0521,3.9948e-05,0
5.0526,0.00014754,0
5.0532,0.00023583,0
5.0537,0.00027427,0
5.0542,0.00028182,0
5.0547,0.00027578,0
5.0552,0.00024321,0
5.0557,0.00018212,0
5.0563,0.00010692,0
5.0568,3.2731e-05,0
5.0573,-2.2492e-05,0
5.0578,-5.2705e-05,0
5.0583,-7.0329e-05,0
5.0589,-8.8624e-05,0
5.0594,-0.00010893,0
5.0599,-0.00012639,0
5.0604,-0.00013948,0
5.0609,-0.00016332,0
5.0615,-0.00019286,0
5.062,-0.00021149,0
5.0625,-0.00020293,0
5.063,-0.00015895,0
5.0635,-0.00010289,0
5.0641,-6.479e-05,0
5.0646,-4.4312e-05,0
5.0651,-2.5681e-05,0
5.0656,-1.3931e-05,0
5.0661,-2.5177e-05,0
5.0667,-5.623e-05,0
5.0672,-7.57e-05,0
5.0677,-7.1839e-05,0
5.0682,-6.2272e-05,0
5.0687,-4.9516e-05,0
5.0693,-1.2085e-05,0
5.0698,5.1362e-05,0
5.0703,0.00011716,0
5.0708,0.0001608,0
5.0713,0.0001744,0
5.0718,0.00016466,0
5.0724,0.00015023,0
5.0729,0.00014267,0
5.0734,0.00014217,0
5.0739,0.00013948,0
5.0744,0.00012555,0
5.075,0.00010256,0
5.0755,7.8721e-05,0
5.076,5.7572e-05,0
5.0765,3.3402e-05,0
5.077,8.3925e-07,0
5.0776,-3.508e-05,0
5.0781,-6.3615e-05,0
5.0786,-7.6539e-05,0
5.0791,-7.7043e-05,0
5.0796,-6.865e-05,0
5.0802,-5.2537e-05,0
5.0807,-3.5752e-05,0
5.0812,-2.4674e-05,0
5.0817,-1.561e-05,0
5.0822,8.3925e-07,0
5.0827,1.9303e-05,0
5.0833,2.5345e-05,0
5.0838,2.3667e-05,0
5.0843,2.4506e-05,0
5.0848,3.0884e-05,0
5.0853,3.5416e-05,0
5.0859,3.2059e-05,0
5.0864,2.9877e-05,0
5.0869,3.4409e-05,0
5.0874,3.9109e-05,0
5.0879,4.5991e-05,0
5.0885,5.5558e-05,0
5.089,6.2272e-05,0
5.0895,6.3951e-05,0
5.09,3.9445e-05,0
5.0905,-3.9948e-05,0
5.0911,-0.00015727,0
5.0916,-0.00023986,0
5.0921,-0.00024305,0
5.0926,-0.00018598,0
5.0931,-0.00011733,0
5.0937,-6.2776e-05,0
5.0942,1.0071e-06,0
5.0947,9.7856e-05,0
5.0952,0.00021602,0
5.0957,0.00032462,0
5.0963,0.00039294,0
5.0968,0.00040804,0
5.0973,0.00037699,0
5.0978,0.00030834,0
5.0983,0.00021988,0
5.0988,0.00013915,0
5.0994,7.7379e-05,0
5.0999,1.5274e-05,0
5.1004,-6.1097e-05,0
5.1009,-0.00012186,0
5.1014,-0.00012773,0
5.102,-8.9799e-05,0
5.1025,-5.5222e-05,0
5.103,-4.683e-05,0
5.1035,-5.304e-05,0
5.104,-6.6804e-05,0
5.1046,-8.2414e-05,0
5.1051,-8.1743e-05,0
5.1056,-5.1865e-05,0
5.1061,-8.2246e-06,0
5.1066,2.501e-05,0
5.1072,2.7359e-05,0
5.1077,-1.6785e-06,0
5.1082,-3.1388e-05,0
5.1087,-3.0045e-05,0
5.1092,-9.2317e-06,0
5.1098,-2.8534e-06,0
5.1103,-1.9303e-05,0
5.1108,-3.8941e-05,0
5.1113,-5.6733e-05,0
5.1118,-7.8553e-05,0
5.1123,-8.8792e-05,0
5.1129,-6.3615e-05,0
5.1134,-1.2924e-05,0
5.1139,2.1317e-05,0
5.1144,2.2995e-05,0
5.1149,2.7359e-05,0
5.1155,7.9728e-05,0
5.116,0.00017104,0
5.1165,0.00024556,0
5.117,0.00026067,0
5.1175,0.00022878,0
5.1181,0.00018077,0
5.1186,0.00013848,0
5.1191,0.00010356,0
5.1196,6.4958e-05,0
5.1201,3.0549e-05,0
5.1207,1.6281e-05,0
5.1212,8.2246e-06,0
5.1217,-8.896e-06,0
5.1222,-2.2324e-05,0
5.1227,-2.2492e-05,0
5.1232,-1.4603e-05,0
5.1238,-1.1078e-05,0
5.1243,-1.2253e-05,0
5.1248,-7.2175e-06,0
5.1253,1.0071e-05,0
5.1258,1.4099e-05,0
5.1264,-5.539e-06,0
5.1269,-3.3738e-05,0
5.1274,-5.8076e-05,0
5.1279,-7.5868e-05,0
5.1284,-8.4428e-05,0
5.129,-7.7714e-05,0
5.1295,-5.0858e-05,0
5.13,-1.091e-05,0
5.1305,2.8702e-05,0
5.131,5.4047e-05,0
5.1316,5.8076e-05,0
5.1321,4.2298e-05,0
5.1326,2.3499e-05,0
5.1331,1.1917e-05,0
5.1336,2.5177e-06,0
5.1342,-7.5532e-06,0
5.1347,-3.2395e-05,0
5.1352,-7.6539e-05,0
5.1357,-0.00011296,0
5.1362,-0.00011666,0
5.1368,-9.3156e-05,0
5.1373,-4.5319e-05,0
5.1378,2.0142e-05,0
5.1383,8.4428e-05,0
5.1388,0.00013478,0
5.1393,0.00016332,0
5.1399,0.00016466,0
5.1404,0.00014989,0
5.1409,0.00013143,0
5.1414,0.00010675,0
5.1419,6.3615e-05,0
5.1425,6.5461e-06,0
5.143,-3.8437e-05,0
5.1435,-5.774e-05,0
5.144,-5.8579e-05,0
5.1445,-4.7837e-05,0
5.1451,-2.4674e-05,0
5.1456,1.5778e-05,0
5.1461,6.4622e-05,0
5.1466,9.7185e-05,0
5.1471,9.9031e-05,0
5.1477,7.1504e-05,0
5.1482,2.4506e-05,0
5.1487,-2.1988e-05,0
5.1492,-5.388e-05,0
5.1497,-6.3447e-05,0
5.1502,-5.1194e-05,0
5.1508,-2.8031e-05,0
5.1513,-4.8676e-06,0
5.1518,1.3764e-05,0
5.1523,2.031e-05,0
5.1528,2.1988e-05,0
5.1534,3.3402e-05,0
5.1539,5.3208e-05,0
5.1544,6.5965e-05,0
5.1549,6.3951e-05,0
5.1554,4.6998e-05,0
5.156,2.1317e-05,0
5.1565,5.2033e-06,0
5.157,1.4099e-05,0
5.1575,4.2802e-05,0
5.158,7.335e-05,0
5.1586,9.0974e-05,0
5.1591,8.5771e-05,0
5.1596,5.1698e-05,0
5.1601,1.1246e-05,0
5.1606,-8.3925e-07,0
5.1612,1.8631e-05,0
5.1617,4.7837e-05,0
5.1622,6.2943e-05,0
5.1627,5.0523e-05,0
5.1632,1.8463e-05,0
5.1638,-1.3092e-05,0
5.1643,-3.6255e-05,0
5.1648,-5.388e-05,0
5.1653,-5.7908e-05,0
5.1658,-3.6927e-05,0
5.1663,-1.091e-05,0
5.1669,-3.357e-06,0
5.1674,-1.1917e-05,0
5.1679,-2.7695e-05,0
5.1684,-4.7837e-05,0
5.1689,-6.244e-05,0
5.1695,-6.0594e-05,0
5.17,-4.213e-05,0
5.1705,-2.1653e-05,0
5.171,-1.6785e-07,0
5.1715,2.4506e-05,0
5.1721,4.3473e-05,0
5.1726,4.4984e-05,0
5.1731,2.6352e-05,0
5.1736,-9.9031e-06,0
5.1741,-4.1794e-05,0
5.1747,-4.5655e-05,0
5.1752,-1.8463e-05,0
5.1757,1.8967e-05,0
5.1762,4.8173e-05,0
5.1767,7.3182e-05,0
5.1772,0.00010591,0
5.1778,0.00014888,0
5.1783,0.00019319,0
5.1788,0.00022509,0
5.1793,0.00022055,0
5.1798,0.00018463,0
5.1804,0.0001556,0
5.1809,0.00016147,0
5.1814,0.00019068,0
5.1819,0.00019991,0
5.1824,0.000166,0
5.183,0.00011313,0
5.1835,7.6707e-05,0
5.184,4.1459e-05,0
5.1845,-2.4842e-05,0
5.185,-8.3421e-05,0
5.1856,-9.6345e-05,0
5.1861,-9.9031e-05,0
5.1866,-0.00013327,0
5.1871,-0.00017809,0
5.1876,-0.00019471,0
5.1882,-0.00018883,0
5.1887,-0.00020562,0
5.1892,-0.00023465,0
5.1897,-0.00023667,0
5.1902,-0.00022358,0
5.1908,-0.0002172,0
5.1913,-0.00021199,0
5.1918,-0.00018816,0
5.1923,-0.00013294,0
5.1928,-4.9851e-05,0
5.1933,6.1265e-05,0
5.1939,0.00019857,0
5.1944,0.00033956,0
5.1949,0.00044363,0
5.1954,0.00048592,0
5.1959,0.0004725,0
5.1965,0.0004166,0
5.197,0.00033385,0
5.1975,0.0002407,0
5.198,0.0001462,0
5.1985,5.4047e-05,0
5.1991,-3.5248e-05,0
5.1996,-0.00012555,0
5.2001,-0.00021233,0
5.2006,-0.0002751,0
5.2011,-0.00029961,0
5.2017,-0.00028367,0
5.2022,-0.00023734,0
5.2027,-0.00017591,0
5.2032,-0.00010507,0
5.2037,-3.5416e-05,0
5.2043,1.7288e-05,0
5.2048,5.7237e-05,0
5.2053,0.00010256,0
5.2058,0.00015543,0
5.2063,0.00018866,0
5.2068,0.00018178,0
5.2074,0.00014049,0
5.2079,8.5771e-05,0
5.2084,4.1459e-05,0
5.2089,1.5778e-05,0
5.2094,-2.8534e-06,0
5.21,-1.6281e-05,0
5.2105,-2.1317e-05,0
5.211,-2.182e-05,0
5.2115,-1.9471e-05,0
5.212,-2.0981e-05,0
5.2126,-3.4409e-05,0
5.2131,-4.9851e-05,0
5.2136,-5.0523e-05,0
5.2141,-4.0116e-05,0
5.2146,-2.6017e-05,0
5.2152,-1.2589e-05,0
5.2157,-6.0426e-06,0
5.2162,-1.561e-05,0
5.2167,-2.652e-05,0
5.2172,-1.561e-05,0
5.2177,1.6953e-05,0
5.2183,4.918e-05,0
5.2188,6.479e-05,0
5.2193,6.1265e-05,0
5.2198,5.1698e-05,0
5.2203,4.5823e-05,0
5.2209,4.7333e-05,0
5.2214,6.9154e-05,0
5.2219,0.00010809,0
5.2224,0.00013193,0
5.2229,0.00012605,0
5.2235,0.00011162,0
5.224,9.4499e-05,0
5.2245,6.6972e-05,0
5.225,3.1556e-05,0
5.2255,-2.8534e-06,0
5.2261,-2.7359e-05,0
5.2266,-3.8102e-05,0
5.2271,-3.592e-05,0
5.2276,-3.4913e-05,0
5.2281,-4.4648e-05,0
5.2287,-5.1362e-05,0
5.2292,-3.9277e-05,0
5.2297,-1.5946e-05,0
5.2302,5.0355e-07,0
5.2307,2.5177e-06,0
5.2313,-8.5603e-06,0
5.2318,-2.8367e-05,0
5.2323,-4.2802e-05,0
5.2328,-3.9445e-05,0
5.2333,-2.1988e-05,0
5.2338,4.1962e-06,0
5.2344,3.9612e-05,0
5.2349,6.6636e-05,0
5.2354,6.4286e-05,0
5.2359,6.3447e-05,0
5.2364,0.00010188,0
5.237,0.00015727,0
5.2375,0.00018044,0
5.238,0.0001608,0
5.2385,0.00011666,0
5.239,7.7043e-05,0
5.2396,6.1601e-05,0
5.2401,5.9586e-05,0
5.2406,4.3809e-05,0
5.2411,-2.182e-06,0
5.2416,-6.5629e-05,0
5.2422,-0.00010893,0
5.2427,-0.00011968,0
5.2432,-0.00010306,0
5.2437,-7.1e-05,0
5.2442,-4.7166e-05,0
5.2447,-4.6998e-05,0
5.2453,-5.9922e-05,0
5.2458,-8.3589e-05,0
5.2463,-0.00010222,0
5.2468,-7.9057e-05,0
5.2473,-2.031e-05,0
5.2479,2.3835e-05,0
5.2484,3.3738e-05,0
5.2489,4.2634e-05,0
5.2494,7.5868e-05,0
5.2499,0.00012136,0
5.2505,0.00017456,0
5.251,0.00023314,0
5.2515,0.00027645,0
5.252,0.00028417,0
5.2525,0.00023751,0
5.2531,0.00013848,0
5.2536,2.6688e-05,0
5.2541,-5.4551e-05,0
5.2546,-9.6178e-05,0
5.2551,-0.00010205,0
5.2557,-7.2679e-05,0
5.2562,-1.7288e-05,0
5.2567,3.9612e-05,0
5.2572,8.4428e-05,0
5.2577,0.00011263,0
5.2583,0.00013109,0
5.2588,0.00014401,0
5.2593,0.0001368,0
5.2598,0.00010927,0
5.2603,7.57e-05,0
5.2608,3.743e-05,0
5.2614,-1.3931e-05,0
5.2619,-7.6371e-05,0
5.2624,-0.00011901,0
5.2629,-0.0001237,0
5.2634,-0.00010524,0
5.264,-8.0232e-05,0
5.2645,-5.5558e-05,0
5.265,-3.4241e-05,0
5.2655,-2.2492e-05,0
5.266,-2.9709e-05,0
5.2666,-4.5991e-05,0
5.2671,-5.8747e-05,0
5.2676,-6.2943e-05,0
5.2681,-6.2272e-05,0
5.2686,-6.0761e-05,0
5.2692,-5.7237e-05,0
5.2697,-4.3305e-05,0
5.2702,-1.9303e-05,0
5.2707,-4.8676e-06,0
5.2712,-2.266e-05,0
5.2717,-5.069e-05,0
5.2723,-5.5222e-05,0
5.2728,-3.1891e-05,0
5.2733,4.1962e-06,0
5.2738,3.9612e-05,0
5.2743,7.5029e-05,0
5.2749,0.00011162,0
5.2754,0.00014351,0
5.2759,0.00016197,0
5.2764,0.00016332,0
5.2769,0.00015291,0
5.2775,0.00011934,0
5.278,4.7501e-05,0
5.2785,-2.4002e-05,0
5.279,-5.0523e-05,0
5.2795,-3.3066e-05,0
5.2801,-1.2253e-05,0
5.2806,-4.6998e-06,0
5.2811,-3.8605e-06,0
5.2816,-2.0981e-05,0
5.2821,-7.4189e-05,0
5.2827,-0.00014452,0
5.2832,-0.00018346,0
5.2837,-0.00016063,0
5.2842,-0.00011011,0
5.2847,-8.04e-05,0
5.2852,-6.2608e-05,0
5.2858,-2.6017e-05,0
5.2863,3.3738e-05,0
5.2868,9.8192e-05,0
5.2873,0.00015727,0
5.2878,0.00021535,0
5.2884,0.00025563,0
5.2889,0.00024691,0
5.2894,0.00018967,0
5.2899,0.00010944,0
5.2904,4.1459e-05,0
5.291,1.3596e-05,0
5.2915,2.3835e-05,0
5.292,5.0858e-05,0
5.2925,8.1071e-05,0
5.293,0.00010558,0
5.2936,0.00011095,0
5.2941,9.5003e-05,0
5.2946,6.6468e-05,0
5.2951,3.3066e-05,0
5.2956,1.2924e-05,0
5.2962,1.0071e-05,0
5.2967,9.3996e-06,0
5.2972,-2.8534e-06,0
5.2977,-2.6688e-05,0
5.2982,-4.918e-05,0
5.2988,-5.623e-05,0
5.2993,-6.1936e-05,0
5.2998,-8.9967e-05,0
5.3003,-0.00012689,0
5.3008,-0.00013596,0
5.3013,-0.00010323,0
5.3019,-4.7333e-05,0
5.3024,5.2033e-06,0
5.3029,4.8676e-05,0
5.3034,8.3757e-05,0
5.3039,0.0001086,0
5.3045,0.00013277,0
5.305,0.0001608,0
5.3055,0.00016432,0
5.306,0.00011649,0
5.3065,3.8102e-05,0
5.3071,-2.3163e-05,0
5.3076,-3.7934e-05,0
5.3081,-1.9135e-05,0
5.3086,-2.182e-06,0
5.3091,2.5177e-06,0
5.3097,-2.8534e-06,0
5.3102,-1.4939e-05,0
5.3107,-3.3738e-05,0
5.3112,-6.1433e-05,0
5.3117,-8.7449e-05,0
5.3122,-8.5603e-05,0
5.3128,-4.5655e-05,0
5.3133,1.5946e-05,0
5.3138,7.7714e-05,0
5.3143,0.00011749,0
5.3148,0.00012169,0
5.3154,0.00010239,0
5.3159,8.6946e-05,0
5.3164,9.2485e-05,0
5.3169,9.7185e-05,0
5.3174,7.8721e-05,0
5.318,4.683e-05,0
5.3185,1.7792e-05,0
5.319,2.3499e-06,0
5.3195,-6.5461e-06,0
5.32,-1.796e-05,0
5.3206,-2.501e-05,0
5.3211,-1.9974e-05,0
5.3216,-1.0239e-05,0
5.3221,-7.8889e-06,0
5.3226,-6.3783e-06,0
5.3232,4.0284e-06,0
5.3237,1.5274e-05,0
5.3242,1.6617e-05,0
5.3247,2.3499e-06,0
5.3252,-4.448e-05,0
5.3258,-0.00010423,0
5.3263,-0.000118,0
5.3268,-7.2007e-05,0
5.3273,-1.2589e-05,0
5.3278,5.8747e-06,0
5.3283,-1.7624e-05,0
5.3289,-3.508e-05,0
5.3294,-1.0575e-05,0
5.3299,5.0187e-05,0
5.3304,0.00010323,0
5.3309,0.00012605,0
5.3315,0.00014015,0
5.332,0.00015459,0
5.3325,0.00016097,0
5.333,0.00016365,0
5.3335,0.00015946,0
5.3341,0.00014351,0
5.3346,0.00011363,0
5.3351,5.6733e-05,0
5.3356,-1.9303e-05,0
5.3361,-5.5222e-05,0
5.3367,-3.7766e-05,0
5.3372,-1.1582e-05,0
5.3377,2.5177e-06,0
5.3382,1.5442e-05,0
5.3387,3.6088e-05,0
5.3392,5.9586e-05,0
5.3398,7.9057e-05,0
5.3403,9.3828e-05,0
5.3408,0.00011263,0
5.3413,0.00011934,0
5.3418,7.3014e-05,0
5.3424,-1.9303e-05,0
5.3429,-0.00010457,0
5.3434,-0.0001556,0
5.3439,-0.00018111,0
5.3444,-0.00017523,0
5.345,-0.0001326,0
5.3455,-8.8121e-05,0
5.346,-7.6204e-05,0
5.3465,-8.0064e-05,0
5.347,-7.3686e-05,0
5.3476,-6.8986e-05,0
5.3481,-8.4764e-05,0
5.3486,-0.00011431,0
5.3491,-0.0001227,0
5.3496,-7.8386e-05,0
5.3502,1.6785e-06,0
5.3507,7.9057e-05,0
5.3512,0.00013243,0
5.3517,0.00015727,0
5.3522,0.00015795,0
5.3528,0.00015325,0
5.3533,0.00015291,0
5.3538,0.00014871,0
5.3543,0.00013008,0
5.3548,0.00010558,0
5.3553,7.5029e-05,0
5.3559,3.1891e-05,0
5.3564,-8.5603e-06,0
5.3569,-2.182e-05,0
5.3574,-3.357e-07,0
5.3579,4.1794e-05,0
5.3585,7.5029e-05,0
5.359,8.8289e-05,0
5.3595,8.8289e-05,0
5.36,8.1743e-05,0
5.3605,6.6133e-05,0
5.3611,3.978e-05,0
5.3616,1.4435e-05,0
5.3621,-1.8631e-05,0
5.3626,-7.8721e-05,0
5.3631,-0.00012924,0
5.3637,-0.00012454,0
5.3642,-7.2847e-05,0
5.3647,-2.1988e-05,0
5.3652,-5.0355e-07,0
5.3657,7.5532e-06,0
5.3662,3.508e-05,0
5.3668,8.3757e-05,0
5.3673,0.00012975,0
5.3678,0.00015492,0
5.3683,0.00014922,0
5.3688,0.0001185,0
5.3694,8.5771e-05,0
5.3699,6.0929e-05,0
5.3704,2.8534e-05,0
5.3709,-3.3402e-05,0
5.3714,-0.00011128,0
5.372,-0.00017238,0
5.3725,-0.00019789,0
5.373,-0.00018514,0
5.3735,-0.0001415,0
5.374,-9.836e-05,0
5.3746,-8.7449e-05,0
5.3751,-9.752e-05,0
5.3756,-8.6442e-05,0
5.3761,-4.5655e-05,0
5.3766,-5.0355e-07,0
5.3772,3.1052e-05,0
5.3777,5.304e-05,0
5.3782,6.5965e-05,0
5.3787,7.6371e-05,0
5.3792,0.00011061,0
5.3797,0.00017305,0
5.3803,0.00022979,0
5.3808,0.0002501,0
5.3813,0.00023449,0
5.3818,0.00019722,0
5.3823,0.00015341,0
5.3829,0.00011699,0
5.3834,9.6513e-05,0
5.3839,9.0974e-05,0
5.3844,8.5771e-05,0
5.3849,6.5965e-05,0
5.3855,3.2059e-05,0
5.386,-8.896e-06,0
5.3865,-5.153e-05,0
5.387,-8.9128e-05,0
5.3875,-0.00011884,0
5.3881,-0.00013898,0
5.3886,-0.00014267,0
5.3891,-0.00012052,0
5.3896,-7.8386e-05,0
5.3901,-3.5584e-05,0
5.3907,-7.0497e-06,0
5.3912,1.0071e-05,0
5.3917,2.7192e-05,0
5.3922,4.3977e-05,0
5.3927,5.8915e-05,0
5.3933,7.3182e-05,0
5.3938,8.2078e-05,0
5.3943,9.1142e-05,0
5.3948,0.00011363,0
5.3953,0.00013764,0
5.3958,0.0001373,0
5.3964,0.00010558,0
5.3969,6.0761e-05,0
5.3974,2.031e-05,0
5.3979,-3.8605e-06,0
5.3984,-1.3596e-05,0
5.399,-2.1988e-05,0
5.3995,-4.4984e-05,0
5.4,-6.2272e-05,0
5.4005,-2.4002e-05,0
5.401,6.1936e-05,0
5.4016,0.0001138,0
5.4021,8.3085e-05,0
5.4026,1.6617e-05,0
5.4031,-1.5106e-05,0
5.4036,-9.9031e-06,0
5.4042,-2.182e-06,0
5.4047,1.1749e-06,0
5.4052,4.3641e-06,0
5.4057,-5.7069e-06,0
5.4062,-4.3641e-05,0
5.4067,-8.896e-05,0
5.4073,-0.00011598,0
5.4078,-0.00014704,0
5.4083,-0.0001942,0
5.4088,-0.00020427,0
5.4093,-0.00014032,0
5.4099,-3.7263e-05,0
5.4104,3.9948e-05,0
5.4109,7.3014e-05,0
5.4114,8.7114e-05,0
5.4119,0.00010625,0
5.4125,0.00013881,0
5.413,0.00018782,0
5.4135,0.00023717,0
5.414,0.00025026,0
5.4145,0.0002036,0
5.4151,0.00011632,0
5.4156,3.0716e-05,0
5.4161,-1.8631e-05,0
5.4166,-2.4002e-05,0
5.4171,-5.0355e-06,0
5.4177,1.9806e-05,0
5.4182,2.3163e-05,0
5.4187,-8.0568e-06,0
5.4192,-4.9348e-05,0
5.4197,-8.275e-05,0
5.4203,-0.00010826,0
5.4208,-0.00012203,0
5.4213,-0.00011632,0
5.4218,-8.2078e-05,0
5.4223,-2.6017e-05,0
5.4228,2.2324e-05,0
5.4234,4.6662e-05,0
5.4239,7.6371e-05,0
5.4244,0.00013915,0
5.4249,0.00020125,0
5.4254,0.00020494,0
5.426,0.00013915,0
5.4265,5.6901e-05,0
5.427,8.896e-06,0
5.4275,-5.0355e-06,0
5.428,-7.8889e-06,0
5.4286,-9.5674e-06,0
5.4291,-6.8818e-06,0
5.4296,7.8889e-06,0
5.4301,3.4745e-05,0
5.4306,5.4887e-05,0
5.4312,5.8747e-05,0
5.4317,4.8844e-05,0
5.4322,3.3402e-05,0
5.4327,2.182e-05,0
5.4332,8.896e-06,0
5.4337,-9.7353e-06,0
5.4343,-2.7695e-05,0
5.4348,-3.978e-05,0
5.4353,-5.4551e-05,0
5.4358,-6.5293e-05,0
5.4363,-6.0761e-05,0
5.4369,-5.6397e-05,0
5.4374,-6.5629e-05,0
5.4379,-7.7714e-05,0
5.4384,-7.1e-05,0
5.4389,-3.9277e-05,0
5.4395,5.8747e-06,0
5.44,5.0187e-05,0
5.4405,8.5771e-05,0
5.441,0.00010709,0
5.4415,0.0001133,0
5.4421,0.00011313,0
5.4426,0.00011968,0
5.4431,0.00013277,0
5.4436,0.00013646,0
5.4441,0.00011867,0
5.4447,8.5435e-05,0
5.4452,5.2201e-05,0
5.4457,3.0716e-05,0
5.4462,2.5849e-05,0
5.4467,3.2395e-05,0
5.4473,3.508e-05,0
5.4478,2.7695e-05,0
5.4483,1.6953e-05,0
5.4488,-1.1749e-06,0
5.4493,-3.2731e-05,0
5.4498,-7.1168e-05,0
5.4504,-9.2485e-05,0
5.4509,-8.0232e-05,0
5.4514,-4.3977e-05,0
5.4519,-4.3641e-06,0
5.4524,3.1052e-05,0
5.453,7.0329e-05,0
5.4535,0.00010692,0
5.454,0.00011531,0
5.4545,0.00010088,0
5.455,9.7856e-05,0
5.4556,0.00010457,0
5.4561,8.4428e-05,0
5.4566,3.1388e-05,0
5.4571,-2.1653e-05,0
5.4576,-4.6326e-05,0
5.4582,-4.8005e-05,0
5.4587,-5.304e-05,0
5.4592,-6.9322e-05,0
5.4597,-7.0665e-05,0
5.4602,-4.5487e-05,0
5.4607,-2.4338e-05,0
5.4613,-3.2731e-05,0
5.4618,-5.8076e-05,0
5.4623,-7.6371e-05,0
5.4628,-7.6036e-05,0
5.4633,-5.5894e-05,0
5.4639,-1.796e-05,0
5.4644,2.7527e-05,0
5.4649,5.9922e-05,0
5.4654,6.2272e-05,0
5.4659,4.0116e-05,0
5.4665,1.326e-05,0
5.467,5.0355e-07,0
5.4675,7.0497e-06,0
5.468,1.6953e-05,0
5.4685,1.796e-05,0
5.4691,-6.5461e-06,0
5.4696,-5.9251e-05,0
5.4701,-9.6178e-05,0
5.4706,-8.7449e-05,0
5.4711,-5.5055e-05,0
5.4717,-2.8367e-05,0
5.4722,-1.6449e-05,0
5.4727,-1.6617e-05,0
5.4732,-1.7624e-05,0
5.4737,-1.2421e-05,0
5.4742,2.6856e-06,0
5.4748,3.3234e-05,0
5.4753,6.1601e-05,0
5.4758,7.57e-05,0
5.4763,8.8289e-05,0
5.4768,0.00010809,0
5.4774,0.00012975,0
5.4779,0.00014301,0
5.4784,0.0001509,0
5.4789,0.00016063,0
5.4794,0.00016701,0
5.48,0.00015509,0
5.4805,0.00012186,0
5.481,8.5771e-05,0
5.4815,6.3615e-05,0
5.482,5.1698e-05,0
5.4826,3.743e-05,0
5.4831,1.8631e-05,0
5.4836,3.1891e-06,0
5.4841,-7.2175e-06,0
5.4846,-1.3596e-05,0
5.4852,-1.7288e-05,0
5.4857,-1.6953e-05,0
5.4862,-1.3596e-05,0
5.4867,-1.091e-05,0
5.4872,-1.6281e-05,0
5.4878,-3.0716e-05,0
5.4883,-4.7166e-05,0
5.4888,-5.9586e-05,0
5.4893,-5.7237e-05,0
5.4898,-3.7263e-05,0
5.4903,-1.561e-05,0
5.4909,3.1891e-06,0
5.4914,2.9877e-05,0
5.4919,6.5293e-05,0
5.4924,9.6513e-05,0
5.4929,0.00011263,0
5.4935,0.00011397,0
5.494,0.00010239,0
5.4945,7.9561e-05,0
5.495,5.1194e-05,0
5.4955,2.7359e-05,0
5.4961,1.0239e-05,0
5.4966,5.2033e-06,0
5.4971,1.4603e-05,0
5.4976,3.0716e-05,0
5.4981,3.4073e-05,0
5.4987,1.326e-05,0
5.4992,-9.3996e-06,0
5.4997,-7.3854e-06,0
5.5002,2.2324e-05,0
5.5007,5.4887e-05,0
5.5012,6.5629e-05,0
5.5018,5.3544e-05,0
5.5023,4.4144e-05,0
5.5028,5.6565e-05,0
5.5033,9.366e-05,0
5.5038,0.00014183,0
5.5044,0.00016667,0
5.5049,0.0001519,0
5.5054,0.00010726,0
5.5059,5.2873e-05,0
5.5064,1.4099e-05,0
5.507,-2.3499e-06,0
5.5075,-2.4506e-05,0
5.508,-8.275e-05,0
5.5085,-0.00017624,0
5.509,-0.00024758,0
5.5096,-0.00026806,0
5.5101,-0.00026386,0
5.5106,-0.00025194,0
5.5111,-0.00023449,0
5.5116,-0.00019605,0
5.5122,-0.00011968,0
5.5127,-1.8799e-05,0
5.5132,7.2007e-05,0
5.5137,0.00013579,0
5.5142,0.00018144,0
5.5148,0.00020696,0
5.5153,0.000213,0
5.5158,0.00020713,0
5.5163,0.00017943,0
5.5168,0.00013075,0
5.5173,8.1575e-05,0
5.5179,3.7598e-05,0
5.5184,-8.7282e-06,0
5.5189,-3.5248e-05,0
5.5194,-1.8631e-05,0
5.5199,2.0142e-05,0
5.5205,5.623e-05,0
5.521,8.4764e-05,0
5.5215,0.00010692,0
5.522,0.00013092,0
5.5225,0.00015543,0
5.5231,0.00016432,0
5.5236,0.00015492,0
5.5241,0.00013529,0
5.5246,0.00010256,0
5.5251,5.3376e-05,0
5.5257,6.3783e-06,0
5.5262,-2.9374e-05,0
5.5267,-6.6133e-05,0
5.5272,-0.00010591,0
5.5277,-0.00013075,0
5.5282,-0.00012236,0
5.5288,-9.2988e-05,0
5.5293,-7.0329e-05,0
5.5298,-6.009e-05,0
5.5303,-3.7766e-05,0
5.5308,-2.5177e-06,0
5.5314,1.6953e-05,0
5.5319,7.8889e-06,0
5.5324,-8.2246e-06,0
5.5329,-1.8463e-05,0
5.5334,-2.6184e-05,0
5.534,-3.2059e-05,0
5.5345,-2.8534e-05,0
5.535,-9.2317e-06,0
5.5355,8.2246e-06,0
5.536,5.539e-06,0
5.5366,-1.2589e-05,0
5.5371,-3.9948e-05,0
5.5376,-7.1336e-05,0
5.5381,-9.8863e-05,0
5.5386,-0.00012001,0
5.5392,-0.00012438,0
5.5397,-0.00010524,0
5.5402,-6.6133e-05,0
5.5407,-2.031e-05,0
5.5412,8.3925e-07,0
5.5418,2.5177e-06,0
5.5423,1.3931e-05,0
5.5428,3.4745e-05,0
5.5433,5.2705e-05,0
5.5438,6.2272e-05,0
5.5443,6.1433e-05,0
5.5449,5.5558e-05,0
5.5454,5.0187e-05,0
5.5459,5.153e-05,0
5.5464,6.3951e-05,0
5.5469,8.7114e-05,0
5.5475,0.00011112,0
5.548,0.00012085,0
5.5485,0.00011296,0
5.549,9.2821e-05,0
5.5495,7.0832e-05,0
5.5501,5.7237e-05,0
5.5506,5.4047e-05,0
5.5511,5.7908e-05,0
5.5516,6.0594e-05,0
5.5521,5.2201e-05,0
5.5527,3.827e-05,0
5.5532,2.8534e-05,0
5.5537,2.1317e-05,0
5.5542,1.4603e-05,0
5.5547,4.1962e-06,0
5.5553,-9.7353e-06,0
5.5558,-2.1653e-05,0
5.5563,-2.7192e-05,0
5.5568,-2.9038e-05,0
5.5573,-3.357e-05,0
5.5578,-3.4577e-05,0
5.5584,-2.6184e-05,0
5.5589,-1.796e-05,0
5.5594,-1.4099e-05,0
5.5599,1.6785e-06,0
5.5604,4.7837e-05,0
5.561,0.00012287,0
5.5615,0.00018178,0
5.562,0.00017423,0
5.5625,0.00012471,0
5.563,8.6946e-05,0
5.5636,5.8915e-05,0
5.5641,2.5849e-05,0
5.5646,-1.5106e-06,0
5.5651,-1.4603e-05,0
5.5656,-3.357e-06,0
5.5662,3.4073e-05,0
5.5667,7.6036e-05,0
5.5672,0.00010776,0
5.5677,0.00012773,0
5.5682,0.00013042,0
5.5687,0.00012203,0
5.5693,0.00010574,0
5.5698,7.2679e-05,0
5.5703,2.8367e-05,0
5.5708,-9.2317e-06,0
5.5713,-3.4409e-05,0
5.5719,-4.8508e-05,0
5.5724,-6.3615e-05,0
5.5729,-8.6778e-05,0
5.5734,-0.00010256,0
5.5739,-9.9367e-05,0
5.5745,-7.5196e-05,0
5.575,-3.8102e-05,0
5.5755,-1.2085e-05,0
5.576,-2.5177e-06,0
5.5765,8.7282e-06,0
5.5771,3.1388e-05,0
5.5776,5.1698e-05,0
5.5781,6.3951e-05,0
5.5786,7.8218e-05,0
5.5791,8.7114e-05,0
5.5797,7.3014e-05,0
5.5802,4.7837e-05,0
5.5807,3.9948e-05,0
5.5812,5.4215e-05,0
5.5817,6.2943e-05,0
5.5823,4.6494e-05,0
5.5828,1.0575e-05,0
5.5833,-1.5946e-05,0
5.5838,-6.8818e-06,0
5.5843,2.5345e-05,0
5.5848,5.8915e-05,0
5.5854,8.2414e-05,0
5.5859,9.1814e-05,0
5.5864,9.2485e-05,0
5.5869,9.5003e-05,0
5.5874,7.6875e-05,0
5.588,1.1582e-05,0
5.5885,-6.6972e-05,0
5.589,-0.00010088,0
5.5895,-8.3421e-05,0
5.59,-5.2033e-05,0
5.5906,-4.062e-05,0
5.5911,-4.8508e-05,0
5.5916,-4.6159e-05,0
5.5921,-1.8967e-05,0
5.5926,1.6617e-05,0
5.5932,3.4409e-05,0
5.5937,2.4338e-05,0
5.5942,-9.7353e-06,0
5.5947,-6.0594e-05,0
5.5952,-0.00011196,0
5.5957,-0.00013545,0
5.5963,-0.0001232,0
5.5968,-9.0135e-05,0
5.5973,-4.683e-05,0
5.5978,-1.1749e-06,0
5.5983,4.3977e-05,0
5.5989,8.0232e-05,0
5.5994,9.5171e-05,0
5.5999,8.1575e-05,0
5.6004,5.623e-05,0
5.6009,3.508e-05,0
5.6015,1.4099e-05,0
5.602,-3.8605e-06,0
5.6025,-2.8534e-06,0
5.603,1.6281e-05,0
5.6035,4.0787e-05,0
5.6041,7.4022e-05,0
5.6046,0.00011397,0
5.6051,0.0001415,0
5.6056,0.00013915,0
5.6061,9.5842e-05,0
5.6067,2.8031e-05,0
5.6072,-1.1582e-05,0
5.6077,6.5461e-06,0
5.6082,5.388e-05,0
5.6087,8.2078e-05,0
5.6093,7.7546e-05,0
5.6098,6.2104e-05,0
5.6103,5.153e-05,0
5.6108,4.0787e-05,0
5.6113,1.9974e-05,0
5.6118,-1.4267e-05,0
5.6124,-5.3208e-05,0
5.6129,-8.9128e-05,0
5.6134,-0.00011565,0
5.6139,-0.00012253,0
5.6144,-0.00010323,0
5.615,-6.0761e-05,0
5.6155,-3.0213e-06,0
5.616,5.3544e-05,0
5.6165,9.2485e-05,0
5.617,0.00011901,0
5.6176,0.00014183,0
5.6181,0.0001561,0
5.6186,0.00014116,0
5.6191,8.7785e-05,0
5.6196,2.1653e-05,0
5.6202,-2.501e-05,0
5.6207,-4.2466e-05,0
5.6212,-4.4648e-05,0
5.6217,-4.5487e-05,0
5.6222,-5.5558e-05,0
5.6227,-6.949e-05,0
5.6233,-6.9657e-05,0
5.6238,-4.3977e-05,0
5.6243,-6.8818e-06,0
5.6248,1.5778e-05,0
5.6253,1.1414e-05,0
5.6259,-1.091e-05,0
5.6264,-2.4338e-05,0
5.6269,-1.1749e-05,0
5.6274,2.7024e-05,0
5.6279,7.5532e-05,0
5.6285,0.00011028,0
5.629,0.00012169,0
5.6295,0.0001091,0
5.63,8.1743e-05,0
5.6305,5.2705e-05,0
5.6311,2.9541e-05,0
5.6316,3.5248e-06,0
5.6321,-4.8844e-05,0
5.6326,-0.0001133,0
5.6331,-0.00014737,0
5.6337,-0.00013696,0
5.6342,-9.6849e-05,0
5.6347,-5.2201e-05,0
5.6352,-1.8463e-05,0
5.6357,1.1078e-05,0
5.6363,5.2033e-05,0
5.6368,0.00010726,0
5.6373,0.00015895,0
5.6378,0.00018866,0
5.6383,0.00018212,0
5.6388,0.00013814,0
5.6394,7.7379e-05,0
5.6399,1.8967e-05,0
5.6404,-2.9206e-05,0
5.6409,-5.6565e-05,0
5.6414,-6.1601e-05,0
5.642,-4.9348e-05,0
5.6425,-2.5177e-05,0
5.643,9.9031e-06,0
5.6435,6.1433e-05,0
5.644,0.00012001,0
5.6446,0.0001603,0
5.6451,0.00016953,0
5.6456,0.00015459,0
5.6461,0.00012035,0
5.6466,7.7043e-05,0
5.6472,2.9374e-05,0
5.6477,-7.2175e-06,0
5.6482,-9.5674e-06,0
5.6487,2.6017e-05,0
5.6492,5.8579e-05,0
5.6498,5.0858e-05,0
5.6503,1.796e-05,0
5.6508,-1.1749e-06,0
5.6513,5.2033e-06,0
5.6518,2.031e-05,0
5.6523,2.6352e-05,0
5.6529,1.5274e-05,0
5.6534,-9.9031e-06,0
5.6539,-3.3402e-05,0
5.6544,-3.2563e-05,0
5.6549,-8.5603e-06,0
5.6555,1.2085e-05,0
5.656,2.5345e-05,0
5.6565,3.4241e-05,0
5.657,4.062e-05,0
5.6575,5.0187e-05,0
5.6581,5.9251e-05,0
5.6586,3.6423e-05,0
5.6591,-2.9709e-05,0
5.6596,-9.2317e-05,0
5.6601,-0.00011044,0
5.6607,-8.8289e-05,0
5.6612,-5.9251e-05,0
5.6617,-5.0019e-05,0
5.6622,-5.0187e-05,0
5.6627,-3.9109e-05,0
5.6632,-2.8367e-05,0
5.6638,-4.0787e-05,0
5.6643,-6.0761e-05,0
5.6648,-6.0929e-05,0
5.6653,-4.683e-05,0
5.6658,-3.8102e-05,0
5.6664,-3.3066e-05,0
5.6669,-2.2995e-05,0
5.6674,6.714e-06,0
5.6679,6.2272e-05,0
5.6684,0.00012639,0
5.669,0.00019051,0
5.6695,0.00024825,0
5.67,0.00027041,0
5.6705,0.00025698,0
5.671,0.00024858,0
5.6716,0.00025899,0
5.6721,0.00026285,0
5.6726,0.0002271,0
5.6731,0.0001425,0
5.6736,3.6423e-05,0
5.6742,-6.1601e-05,0
5.6747,-0.00013109,0
5.6752,-0.00016432,0
5.6757,-0.00017255,0
5.6762,-0.00016634,0
5.6768,-0.00015207,0
5.6773,-0.00013713,0
5.6778,-0.00012169,0
5.6783,-0.00011162,0
5.6788,-0.00011632,0
5.6793,-0.00012236,0
5.6799,-0.00010524,0
5.6804,-8.4092e-05,0
5.6809,-8.5267e-05,0
5.6814,-9.7856e-05,0
5.6819,-9.1142e-05,0
5.6825,-4.8508e-05,0
5.683,1.5274e-05,0
5.6835,6.5965e-05,0
5.684,8.2078e-05,0
5.6845,7.4693e-05,0
5.6851,6.2943e-05,0
5.6856,6.3615e-05,0
5.6861,8.7785e-05,0
5.6866,0.00011179,0
5.6871,0.00010893,0
5.6877,8.1407e-05,0
5.6882,5.5558e-05,0
5.6887,4.8844e-05,0
5.6892,5.153e-05,0
5.6897,4.8173e-05,0
5.6902,4.683e-05,0
5.6908,5.2033e-05,0
5.6913,5.2537e-05,0
5.6918,3.7934e-05,0
5.6923,9.9031e-06,0
5.6928,-1.6785e-05,0
5.6934,-2.5681e-05,0
5.6939,-1.6281e-05,0
5.6944,-2.3499e-06,0
5.6949,7.0497e-06,0
5.6954,1.5274e-05,0
5.696,2.0981e-05,0
5.6965,1.796e-05,0
5.697,7.5532e-06,0
5.6975,-6.2104e-06,0
5.698,-2.0645e-05,0
5.6986,-2.9038e-05,0
5.6991,-1.9638e-05,0
5.6996,1.2589e-05,0
5.7001,5.623e-05,0
5.7006,0.00010256,0
5.7012,0.00015023,0
5.7017,0.00018346,0
5.7022,0.00018077,0
5.7027,0.00013948,0
5.7032,9.2149e-05,0
5.7038,6.0258e-05,0
5.7043,3.6759e-05,0
5.7048,5.8747e-06,0
5.7053,-5.0019e-05,0
5.7058,-0.00012068,0
5.7063,-0.00016802,0
5.7069,-0.00017121,0
5.7074,-0.00013713,0
5.7079,-7.9728e-05,0
5.7084,-1.1078e-05,0
5.7089,5.2873e-05,0
5.7095,0.00010188,0
5.71,0.00014754,0
5.7105,0.00019857,0
5.711,0.00025496,0
5.7115,0.00030179,0
5.7121,0.00030297,0
5.7126,0.00022408,0
5.7131,9.7017e-05,0
5.7136,-4.6998e-06,0
5.7141,-5.2537e-05,0
5.7147,-7.0329e-05,0
5.7152,-8.661e-05,0
5.7157,-0.00011061,0
5.7162,-0.00012505,0
5.7167,-0.00011901,0
5.7172,-9.8863e-05,0
5.7178,-7.1336e-05,0
5.7183,-3.743e-05,0
5.7188,8.3925e-07,0
5.7193,3.4745e-05,0
5.7198,5.0187e-05,0
5.7204,4.5487e-05,0
5.7209,2.8031e-05,0
5.7214,6.5461e-06,0
5.7219,-1.5946e-05,0
5.7224,-4.8173e-05,0
5.723,-9.2149e-05,0
5.7235,-0.00012924,0
5.724,-0.00013529,0
5.7245,-0.00011733,0
5.725,-9.5674e-05,0
5.7256,-5.8244e-05,0
5.7261,5.8747e-06,0
5.7266,8.7114e-05,0
5.7271,0.00015862,0
5.7276,0.00019924,0
5.7282,0.00021115,0
5.7287,0.00020629,0
5.7292,0.00020092,0
5.7297,0.00019857,0
5.7302,0.00018413,0
5.7307,0.00014821,0
5.7313,9.9702e-05,0
5.7318,5.5894e-05,0
5.7323,2.6688e-05,0
5.7328,1.3428e-05,0
5.7333,7.5532e-06,0
5.7339,1.0071e-06,0
5.7344,5.0355e-07,0
5.7349,7.8889e-06,0
5.7354,1.3092e-05,0
5.7359,1.091e-05,0
5.7365,2.8534e-06,0
5.737,-4.8676e-06,0
5.7375,-1.1078e-05,0
5.738,-2.9709e-05,0
5.7385,-4.9851e-05,0
5.7391,-4.7333e-05,0
5.7396,-2.8031e-05,0
5.7401,-1.8967e-05,0
5.7406,-1.5274e-05,0
5.7411,-6.0426e-06,0
5.7417,2.5177e-06,0
5.7422,-8.3925e-07,0
5.7427,-1.7288e-05,0
5.7432,-2.2995e-05,0
5.7437,-7.2175e-06,0
5.7443,5.2033e-06,0
5.7448,-1.091e-05,0
5.7453,-5.1698e-05,0
5.7458,-8.51e-05,0
5.7463,-8.4092e-05,0
5.7468,-5.1865e-05,0
5.7474,-2.1653e-05,0
5.7479,-2.182e-05,0
5.7484,-4.9683e-05,0
5.7489,-9.2988e-05,0
5.7494,-0.00012555,0
5.75,-0.00011901,0
5.7505,-9.0974e-05,0
5.751,-7.0329e-05,0
5.7515,-5.774e-05,0
5.752,-3.8437e-05,0
5.7526,-1.5274e-05,0
5.7531,-5.2033e-06,0
5.7536,-9.0639e-06,0
5.7541,-1.6785e-07,0
5.7546,4.2466e-05,0
5.7552,9.752e-05,0
5.7557,0.00013747,0
5.7562,0.00016349,0
5.7567,0.00018782,0
5.7572,0.00020108,0
5.7577,0.00018698,0
5.7583,0.00014939,0
5.7588,0.00010893,0
5.7593,7.8386e-05,0
5.7598,5.8747e-05,0
5.7603,4.6494e-05,0
5.7609,3.2731e-05,0
5.7614,-6.714e-07,0
5.7619,-4.8508e-05,0
5.7624,-8.2246e-05,0
5.7629,-8.4092e-05,0
5.7635,-5.9754e-05,0
5.764,-3.4241e-05,0
5.7645,-2.7359e-05,0
5.765,-3.2898e-05,0
5.7655,-3.3402e-05,0
5.7661,-2.5849e-05,0
5.7666,-8.896e-06,0
5.7671,2.6688e-05,0
5.7676,7.2679e-05,0
5.7681,0.0001039,0
5.7687,0.00011598,0
5.7692,0.00012102,0
5.7697,0.00011431,0
5.7702,8.6946e-05,0
5.7707,6.0594e-05,0
5.7713,5.4047e-05,0
5.7718,5.1865e-05,0
5.7723,4.3473e-05,0
5.7728,3.9948e-05,0
5.7733,4.7501e-05,0
5.7738,5.9586e-05,0
5.7744,5.7237e-05,0
5.7749,2.8031e-05,0
5.7754,-5.0355e-07,0
5.7759,1.8463e-06,0
5.7764,1.7288e-05,0
5.777,1.7121e-05,0
5.7775,1.091e-05,0
5.778,1.7288e-05,0
5.7785,3.4745e-05,0
5.779,4.2802e-05,0
5.7796,2.6688e-05,0
5.7801,5.8747e-06,0
5.7806,1.9974e-05,0
5.7811,7.335e-05,0
5.7816,0.00012773,0
5.7822,0.00014754,0
5.7827,0.00012068,0
5.7832,4.9516e-05,0
5.7837,-3.1388e-05,0
5.7842,-7.1504e-05,0
5.7847,-5.7572e-05,0
5.7853,-1.2253e-05,0
5.7858,3.1724e-05,0
5.7863,5.3544e-05,0
5.7868,4.9012e-05,0
5.7873,2.4842e-05,0
5.7879,3.6927e-06,0
5.7884,-1.4435e-05,0
5.7889,-4.3137e-05,0
5.7894,-7.0497e-05,0
5.7899,-8.0903e-05,0
5.7905,-7.9728e-05,0
5.791,-9.4499e-05,0
5.7915,-0.00013042,0
5.792,-0.00015811,0
5.7925,-0.00015073,0
5.7931,-0.00010423,0
5.7936,-3.2395e-05,0
5.7941,3.0549e-05,0
5.7946,6.7308e-05,0
5.7951,8.4092e-05,0
5.7957,9.9702e-05,0
5.7962,0.00012068,0
5.7967,0.0001425,0
5.7972,0.00017003,0
5.7977,0.00020024,0
5.7983,0.00021636,0
5.7988,0.00021166,0
5.7993,0.00019655,0
5.7998,0.00016365,0
5.8003,0.00010726,0
5.8008,5.4215e-05,0
5.8014,3.4241e-05,0
5.8019,4.1459e-05,0
5.8024,4.6494e-05,0
5.8029,2.9206e-05,0
5.8034,8.3925e-07,0
5.804,-1.4435e-05,0
5.8045,-1.4603e-05,0
5.805,-1.2085e-05,0
5.8055,-9.5674e-06,0
5.806,-1.8463e-06,0
5.8066,8.3925e-07,0
5.8071,-1.8463e-05,0
5.8076,-5.1865e-05,0
5.8081,-9.0471e-05,0
5.8086,-0.00013512,0
5.8092,-0.00017205,0
5.8097,-0.00018967,0
5.8102,-0.00019789,0
5.8107,-0.00020343,0
5.8112,-0.00021166,0
5.8117,-0.00022744,0
5.8123,-0.00024388,0
5.8128,-0.00024607,0
5.8133,-0.00019152,0
5.8138,-6.8315e-05,0
5.8143,6.865e-05,0
5.8149,0.00016365,0
5.8154,0.00021199,0
5.8159,0.00024086,0
5.8164,0.00027376,0
5.8169,0.00031337,0
5.8175,0.00034275,0
5.818,0.00032747,0
5.8185,0.00024422,0
5.819,0.00013109,0
5.8195,4.1291e-05,0
5.8201,-5.2033e-06,0
5.8206,-2.4338e-05,0
5.8211,-3.743e-05,0
5.8216,-4.8508e-05,0
5.8221,-4.7669e-05,0
5.8227,-3.1556e-05,0
5.8232,-1.4939e-05,0
5.8237,-6.8818e-06,0
5.8242,-5.539e-06,0
5.8247,-4.1962e-06,0
5.8252,9.0639e-06,0
5.8258,3.6088e-05,0
5.8263,5.8076e-05,0
5.8268,5.774e-05,0
5.8273,4.062e-05,0
5.8278,1.7456e-05,0
5.8284,-5.7069e-06,0
5.8289,-2.3667e-05,0
5.8294,-3.7766e-05,0
5.8299,-4.8005e-05,0
5.8304,-5.1698e-05,0
5.831,-6.0594e-05,0
5.8315,-7.2007e-05,0
5.832,-6.4622e-05,0
5.8325,-4.1123e-05,0
5.833,-2.501e-05,0
5.8336,-1.9974e-05,0
5.8341,-3.5248e-06,0
5.8346,3.2731e-05,0
5.8351,6.5965e-05,0
5.8356,8.7449e-05,0
5.8362,9.7688e-05,0
5.8367,9.2317e-05,0
5.8372,8.04e-05,0
5.8377,6.5965e-05,0
5.8382,5.0858e-05,0
5.8388,4.8173e-05,0
5.8393,5.9922e-05,0
5.8398,7.9225e-05,0
5.8403,0.00010524,0
5.8408,0.00013713,0
5.8413,0.0001608,0
5.8419,0.00014737,0
5.8424,9.6513e-05,0
5.8429,3.3738e-05,0
5.8434,-1.4267e-05,0
5.8439,-3.1052e-05,0
5.8445,-1.9471e-05,0
5.845,-9.2317e-06,0
5.8455,-2.3331e-05,0
5.846,-5.2369e-05,0
5.8465,-6.5293e-05,0
5.8471,-4.7333e-05,0
5.8476,-1.1246e-05,0
5.8481,1.5946e-05,0
5.8486,1.6617e-05,0
5.8491,-2.8534e-06,0
5.8497,-2.4674e-05,0
5.8502,-4.0787e-05,0
5.8507,-4.5151e-05,0
5.8512,-3.0381e-05,0
5.8517,-1.5106e-05,0
5.8522,-2.031e-05,0
5.8528,-4.213e-05,0
5.8533,-6.63e-05,0
5.8538,-8.5267e-05,0
5.8543,-0.00010155,0
5.8548,-0.00010675,0
5.8554,-9.0135e-05,0
5.8559,-6.6636e-05,0
5.8564,-6.009e-05,0
5.8569,-8.5267e-05,0
5.8574,-0.00011582,0
5.858,-9.9199e-05,0
5.8585,-2.1988e-05,0
5.859,8.8121e-05,0
5.8595,0.0001801,0
5.86,0.00022106,0
5.8606,0.00023348,0
5.8611,0.00026201,0
5.8616,0.00032294,0
5.8621,0.00038018,0
5.8626,0.00039998,0
5.8632,0.00036944,0
5.8637,0.0002882,0
5.8642,0.00018212,0
5.8647,8.3757e-05,0
5.8652,1.2924e-05,0
5.8658,-2.6688e-05,0
5.8663,-3.9277e-05,0
5.8668,-3.743e-05,0
5.8673,-3.3066e-05,0
5.8678,-3.7263e-05,0
5.8683,-4.5991e-05,0
5.8689,-4.6159e-05,0
5.8694,-3.4073e-05,0
5.8699,-2.3499e-05,0
5.8704,-2.8367e-05,0
5.8709,-4.4984e-05,0
5.8715,-5.9586e-05,0
5.872,-6.4622e-05,0
5.8725,-6.4622e-05,0
5.873,-6.479e-05,0
5.8735,-6.5293e-05,0
5.8741,-6.5629e-05,0
5.8746,-5.9922e-05,0
5.8751,-4.3137e-05,0
5.8756,-1.9806e-05,0
5.8761,-6.5461e-06,0
5.8767,-8.2246e-06,0
5.8772,-1.1582e-05,0
5.8777,-9.0639e-06,0
5.8782,-4.8676e-06,0
5.8787,-1.1917e-05,0
5.8792,-3.3066e-05,0
5.8798,-5.8412e-05,0
5.8803,-7.0665e-05,0
5.8808,-5.5222e-05,0
5.8813,-1.7792e-05,0
5.8818,2.4674e-05,0
5.8824,5.9251e-05,0
5.8829,7.7714e-05,0
5.8834,7.5029e-05,0
5.8839,6.479e-05,0
5.8844,5.9754e-05,0
5.885,4.8508e-05,0
5.8855,2.4338e-05,0
5.886,-5.0355e-07,0
5.8865,-2.3331e-05,0
5.887,-4.8676e-05,0
5.8876,-6.9993e-05,0
5.8881,-7.6036e-05,0
5.8886,-6.3279e-05,0
5.8891,-4.4816e-05,0
5.8896,-2.9038e-05,0
5.8902,-1.6281e-05,0
5.8907,-3.357e-06,0
5.8912,8.896e-06,0
5.8917,2.0981e-05,0
5.8922,3.5248e-05,0
5.8928,4.8173e-05,0
5.8933,5.5222e-05,0
5.8938,5.8244e-05,0
5.8943,6.4286e-05,0
5.8948,8.5771e-05,0
5.8953,0.00012203,0
5.8959,0.00014368,0
5.8964,0.00011968,0
5.8969,5.2201e-05,0
5.8974,-1.3764e-05,0
5.8979,-3.3738e-05,0
5.8985,5.0355e-07,0
5.899,6.0929e-05,0
5.8995,0.00011666,0
5.9,0.00015291,0
5.9005,0.00016936,0
5.9011,0.00017658,0
5.9016,0.00018816,0
5.9021,0.00019991,0
5.9026,0.00020394,0
5.9031,0.00019017,0
5.9037,0.00013512,0
5.9042,5.3544e-05,0
5.9047,-2.501e-05,0
5.9052,-9.2317e-05,0
5.9057,-0.00014133,0
5.9062,-0.00016953,0
5.9068,-0.00017775,0
5.9073,-0.00017205,0
5.9078,-0.00014385,0
5.9083,-9.4163e-05,0
