74.737,-0.00020192,0
74.738,-0.00019353,0
74.738,-0.00018682,0
74.739,-0.00017356,0
74.739,-0.00014116,0
74.74,-9.1142e-05,0
74.74,-4.4144e-05,0
74.741,-1.4267e-05,0
74.741,1.6785e-07,0
74.742,1.3764e-05,0
74.742,3.7766e-05,0
74.743,5.9586e-05,0
74.743,7.2175e-05,0
74.744,8.2414e-05,0
74.744,9.1478e-05,0
74.745,8.7785e-05,0
74.745,6.5629e-05,0
74.746,4.8844e-05,0
74.746,5.7237e-05,0
74.747,8.4932e-05,0
74.747,0.0001091,0
74.748,0.00011917,0
74.748,0.00011666,0
74.749,0.00010524,0
74.749,9.6345e-05,0
74.75,9.7688e-05,0
74.751,9.987e-05,0
74.751,9.8527e-05,0
74.752,9.366e-05,0
74.752,8.4764e-05,0
74.753,7.4357e-05,0
74.753,6.6972e-05,0
74.754,6.4286e-05,0
74.754,6.6972e-05,0
74.755,7.57e-05,0
74.755,7.6204e-05,0
74.756,4.9851e-05,0
74.756,1.1749e-05,0
74.757,-1.3092e-05,0
74.757,-1.7624e-05,0
74.758,2.8534e-06,0
74.758,4.7501e-05,0
74.759,9.5674e-05,0
74.759,0.00012471,0
74.76,0.0001284,0
74.76,0.00011061,0
74.761,7.3686e-05,0
74.761,3.6088e-05,0
74.762,1.4099e-05,0
74.762,1.2589e-05,0
74.763,1.8296e-05,0
74.764,1.6449e-05,0
74.764,-5.7069e-06,0
74.765,-5.2873e-05,0
74.765,-9.6849e-05,0
74.766,-8.7953e-05,0
74.766,-3.743e-05,0
74.767,-6.0426e-06,0
74.767,-4.3641e-06,0
74.768,-1.2589e-05,0
74.768,-2.5177e-05,0
74.769,-2.2324e-05,0
74.769,2.8534e-06,0
74.77,4.0452e-05,0
74.77,7.2511e-05,0
74.771,8.5435e-05,0
74.771,7.5029e-05,0
74.772,5.2369e-05,0
74.772,4.4144e-05,0
74.773,5.7908e-05,0
74.773,7.7714e-05,0
74.774,8.7785e-05,0
74.774,8.1575e-05,0
74.775,7.6875e-05,0
74.775,9.5842e-05,0
74.776,0.00012874,0
74.776,0.00016298,0
74.777,0.00018698,0
74.778,0.00019387,0
74.778,0.00017272,0
74.779,0.00011984,0
74.779,4.5487e-05,0
74.78,-5.153e-05,0
74.78,-0.00016265,0
74.781,-0.00024086,0
74.781,-0.00025849,0
74.782,-0.00022811,0
74.782,-0.00017775,0
74.783,-0.00012975,0
74.783,-9.8863e-05,0
74.784,-9.0303e-05,0
74.784,-9.6345e-05,0
74.785,-9.3492e-05,0
74.785,-6.7308e-05,0
74.786,-2.8031e-05,0
74.786,3.0213e-06,0
74.787,2.7359e-05,0
74.787,5.9586e-05,0
74.788,9.4331e-05,0
74.788,0.00011196,0
74.789,0.00011212,0
74.789,0.0001039,0
74.79,9.6513e-05,0
74.791,9.6513e-05,0
74.791,9.4163e-05,0
74.792,9.0471e-05,0
74.792,9.6513e-05,0
74.793,0.00011447,0
74.793,0.00013445,0
74.794,0.00013881,0
74.794,0.00011749,0
74.795,8.0735e-05,0
74.795,4.3809e-05,0
74.796,1.9135e-05,0
74.796,5.2033e-06,0
74.797,-1.091e-05,0
74.797,-2.9206e-05,0
74.798,-4.6662e-05,0
74.798,-7.2679e-05,0
74.799,-0.00011968,0
74.799,-0.00016936,0
74.8,-0.00019319,0
74.8,-0.00020444,0
74.801,-0.00022123,0
74.801,-0.00021686,0
74.802,-0.00016365,0
74.802,-8.6442e-05,0
74.803,-2.9374e-05,0
74.803,-8.3925e-06,0
74.804,1.1749e-06,0
74.805,3.2395e-05,0
74.805,8.04e-05,0
74.806,0.00011666,0
74.806,0.00012538,0
74.807,0.00012102,0
74.807,0.00012337,0
74.808,0.00013797,0
74.808,0.00015291,0
74.809,0.00014989,0
74.809,0.00012706,0
74.81,0.00010776,0
74.81,0.00011128,0
74.811,0.00013042,0
74.811,0.00013999,0
74.812,0.0001227,0
74.812,8.9296e-05,0
74.813,5.3544e-05,0
74.813,1.0575e-05,0
74.814,-3.2563e-05,0
74.814,-4.7166e-05,0
74.815,-3.2395e-05,0
74.815,-1.8967e-05,0
74.816,-2.3667e-05,0
74.816,-3.8437e-05,0
74.817,-5.5894e-05,0
74.818,-7.57e-05,0
74.818,-9.1478e-05,0
74.819,-8.6778e-05,0
74.819,-6.1936e-05,0
74.82,-3.5752e-05,0
74.82,-2.7024e-05,0
74.821,-3.7766e-05,0
74.821,-4.5823e-05,0
74.822,-3.508e-05,0
74.822,-2.5177e-06,0
74.823,3.9612e-05,0
74.823,7.2679e-05,0
74.824,8.8289e-05,0
74.824,9.0303e-05,0
74.825,8.0735e-05,0
74.825,6.7811e-05,0
74.826,6.3615e-05,0
74.826,6.6804e-05,0
74.827,7.0329e-05,0
74.827,8.1239e-05,0
74.828,9.7185e-05,0
74.828,9.7185e-05,0
74.829,7.6371e-05,0
74.829,5.4551e-05,0
74.83,3.9109e-05,0
74.831,4.1962e-05,0
74.831,6.7643e-05,0
74.832,9.3828e-05,0
74.832,9.3492e-05,0
74.833,6.4286e-05,0
74.833,3.5584e-05,0
74.834,2.2995e-05,0
74.834,2.266e-05,0
74.835,3.0045e-05,0
74.835,3.7263e-05,0
74.836,3.6591e-05,0
74.836,2.7024e-05,0
74.837,1.5946e-05,0
74.837,1.9638e-05,0
74.838,5.4047e-05,0
74.838,0.00010558,0
74.839,0.00013948,0
74.839,0.00015023,0
74.84,0.00014183,0
74.84,0.00011716,0
74.841,8.6946e-05,0
74.841,5.0355e-05,0
74.842,1.2421e-05,0
74.842,-2.5681e-05,0
74.843,-7.4861e-05,0
74.843,-0.00012656,0
74.844,-0.00014485,0
74.845,-0.00010893,0
74.845,-3.743e-05,0
74.846,3.508e-05,0
74.846,8.1743e-05,0
74.847,0.00010323,0
74.847,0.00011128,0
74.848,9.5842e-05,0
74.848,6.3951e-05,0
74.849,4.2802e-05,0
74.849,3.2059e-05,0
74.85,3.743e-05,0
74.85,7.1e-05,0
74.851,0.0001133,0
74.851,0.00013915,0
74.852,0.00013629,0
74.852,8.7785e-05,0
74.853,-9.5674e-06,0
74.853,-0.00012035,0
74.854,-0.00019454,0
74.854,-0.00022039,0
74.855,-0.00023197,0
74.855,-0.00022995,0
74.856,-0.00019084,0
74.856,-0.00013008,0
74.857,-8.661e-05,0
74.858,-6.7811e-05,0
74.858,-6.244e-05,0
74.859,-6.9993e-05,0
74.859,-8.1407e-05,0
74.86,-7.3014e-05,0
74.86,-5.6397e-05,0
74.861,-5.539e-05,0
74.861,-4.8508e-05,0
74.862,-1.3596e-05,0
74.862,2.3331e-05,0
74.863,2.3331e-05,0
74.863,7.7211e-06,0
74.864,1.5946e-05,0
74.864,3.978e-05,0
74.865,4.1123e-05,0
74.865,2.1988e-05,0
74.866,2.0645e-05,0
74.866,4.5823e-05,0
74.867,5.8915e-05,0
74.867,5.2873e-05,0
74.868,7.4861e-05,0
74.868,0.00012874,0
74.869,0.00017255,0
74.869,0.00019051,0
74.87,0.00019705,0
74.87,0.00019454,0
74.871,0.00018212,0
74.872,0.000165,0
74.872,0.0001415,0
74.873,0.00011498,0
74.873,9.0806e-05,0
74.874,6.6972e-05,0
74.874,3.8773e-05,0
74.875,8.3925e-07,0
74.875,-4.7333e-05,0
74.876,-8.4764e-05,0
74.876,-9.4835e-05,0
74.877,-8.4092e-05,0
74.877,-6.3615e-05,0
74.878,-3.5752e-05,0
74.878,-1.0575e-05,0
74.879,-7.7211e-06,0
74.879,-2.182e-05,0
74.88,-3.3738e-05,0
74.88,-3.1388e-05,0
74.881,-2.3667e-05,0
74.881,-2.5177e-05,0
74.882,-3.3234e-05,0
74.882,-3.1724e-05,0
74.883,-7.8889e-06,0
74.883,2.6688e-05,0
74.884,5.0523e-05,0
74.885,5.5558e-05,0
74.885,4.8173e-05,0
74.886,4.2298e-05,0
74.886,4.3473e-05,0
74.887,3.7263e-05,0
74.887,2.1988e-05,0
74.888,1.3596e-05,0
74.888,1.8631e-05,0
74.889,3.3738e-05,0
74.889,4.6326e-05,0
74.89,5.3544e-05,0
74.89,6.3447e-05,0
74.891,6.8315e-05,0
74.891,5.8915e-05,0
74.892,4.8173e-05,0
74.892,5.1698e-05,0
74.893,6.7308e-05,0
74.893,7.8721e-05,0
74.894,7.6875e-05,0
74.894,7.2343e-05,0
74.895,7.7379e-05,0
74.895,8.0064e-05,0
74.896,7.0665e-05,0
74.896,5.623e-05,0
74.897,5.069e-05,0
74.897,4.4648e-05,0
74.898,2.031e-05,0
74.899,-1.1917e-05,0
74.899,-5.1362e-05,0
74.9,-9.836e-05,0
74.9,-0.0001378,0
74.901,-0.0001373,0
74.901,-7.4693e-05,0
74.902,1.1749e-06,0
74.902,2.7024e-05,0
74.903,1.091e-05,0
74.903,-5.3712e-06,0
74.904,-6.2104e-06,0
74.904,6.5461e-06,0
74.905,2.9038e-05,0
74.905,4.918e-05,0
74.906,6.1433e-05,0
74.906,6.6804e-05,0
74.907,7.2343e-05,0
74.907,7.1672e-05,0
74.908,6.6972e-05,0
74.908,7.7379e-05,0
74.909,0.00010054,0
74.909,0.00011514,0
74.91,0.00011061,0
74.91,9.3156e-05,0
74.911,7.2007e-05,0
74.912,5.6062e-05,0
74.912,4.8173e-05,0
74.913,3.9445e-05,0
74.913,3.2731e-05,0
74.914,2.7024e-05,0
74.914,6.5461e-06,0
74.915,-2.2995e-05,0
74.915,-2.501e-05,0
74.916,4.1962e-06,0
74.916,2.6184e-05,0
74.917,2.1317e-05,0
74.917,1.2253e-05,0
74.918,1.6617e-05,0
74.918,7.8889e-06,0
74.919,-4.5319e-05,0
74.919,-0.0001284,0
74.92,-0.00018917,0
74.92,-0.00018984,0
74.921,-0.00012488,0
74.921,-4.2802e-05,0
74.922,8.896e-06,0
74.922,3.1891e-05,0
74.923,5.069e-05,0
74.923,7.9057e-05,0
74.924,0.00010121,0
74.924,0.00010172,0
74.925,8.8457e-05,0
74.926,7.7714e-05,0
74.926,6.1936e-05,0
74.927,3.4745e-05,0
74.927,8.896e-06,0
74.928,-1.4435e-05,0
74.928,-3.8605e-05,0
74.929,-5.6565e-05,0
74.929,-6.1601e-05,0
74.93,-5.2033e-05,0
74.93,-3.7766e-05,0
74.931,-2.5345e-05,0
74.931,-1.4267e-05,0
74.932,-7.5532e-06,0
74.932,-8.5603e-06,0
74.933,-1.2253e-05,0
74.933,2.6856e-06,0
74.934,3.7095e-05,0
74.934,7.0329e-05,0
74.935,9.0135e-05,0
74.935,9.4835e-05,0
74.936,8.7114e-05,0
74.936,7.6036e-05,0
74.937,6.9657e-05,0
74.937,6.9322e-05,0
74.938,5.3544e-05,0
74.939,2.0645e-05,0
74.939,-7.7211e-06,0
74.94,-2.0478e-05,0
74.94,-2.3331e-05,0
74.941,-2.3331e-05,0
74.941,-1.3931e-05,0
74.942,1.1078e-05,0
74.942,3.9445e-05,0
74.943,5.5558e-05,0
74.943,5.8076e-05,0
74.944,5.7404e-05,0
74.944,5.8076e-05,0
74.945,5.3208e-05,0
74.945,4.2802e-05,0
74.946,2.1988e-05,0
74.946,-1.5274e-05,0
74.947,-4.448e-05,0
74.947,-3.2731e-05,0
74.948,1.1917e-05,0
74.948,3.6423e-05,0
74.949,1.8631e-05,0
74.949,-1.1917e-05,0
74.95,-1.5106e-05,0
74.95,5.2033e-06,0
74.951,1.1582e-05,0
74.951,-6.8818e-06,0
74.952,-1.6449e-05,0
74.953,2.5177e-06,0
74.953,3.3402e-05,0
74.954,4.9516e-05,0
74.954,4.6159e-05,0
74.955,3.7766e-05,0
74.955,3.2898e-05,0
74.956,3.122e-05,0
74.956,3.1388e-05,0
74.957,3.508e-05,0
74.957,3.978e-05,0
74.958,4.0116e-05,0
74.958,3.9109e-05,0
74.959,4.2802e-05,0
74.959,5.5222e-05,0
74.96,7.0665e-05,0
74.96,8.0232e-05,0
74.961,8.4764e-05,0
74.961,8.6946e-05,0
74.962,8.3253e-05,0
74.962,7.6371e-05,0
74.963,7.6036e-05,0
74.963,7.6204e-05,0
74.964,6.3783e-05,0
74.964,4.5823e-05,0
74.965,3.6088e-05,0
74.966,2.3331e-05,0
74.966,-2.8534e-06,0
74.967,-1.9638e-05,0
74.967,-8.5603e-06,0
74.968,1.8631e-05,0
74.968,3.743e-05,0
74.969,4.1459e-05,0
74.969,3.0045e-05,0
74.97,7.8889e-06,0
74.97,-1.2924e-05,0
74.971,-1.9135e-05,0
74.971,-2.6856e-06,0
74.972,1.9974e-05,0
74.972,4.213e-05,0
74.973,6.9322e-05,0
74.973,0.00010088,0
74.974,0.00012874,0
74.974,0.00014569,0
74.975,0.00014351,0
74.975,0.00011514,0
74.976,6.0258e-05,0
74.976,-1.326e-05,0
74.977,-8.2414e-05,0
74.977,-0.00014788,0
74.978,-0.00020746,0
74.978,-0.00024254,0
74.979,-0.00023566,0
74.98,-0.00017893,0
74.98,-0.00010776,0
74.981,-7.1336e-05,0
74.981,-7.1e-05,0
74.982,-7.6204e-05,0
74.982,-7.2007e-05,0
74.983,-6.1936e-05,0
74.983,-5.2201e-05,0
74.984,-4.1627e-05,0
74.984,-2.3667e-05,0
74.985,6.8818e-06,0
74.985,4.5319e-05,0
74.986,7.7714e-05,0
74.986,9.4835e-05,0
74.987,9.6513e-05,0
74.987,8.9128e-05,0
74.988,7.6875e-05,0
74.988,6.4958e-05,0
74.989,6.0594e-05,0
74.989,7.0329e-05,0
74.99,8.5771e-05,0
74.99,9.1814e-05,0
74.991,8.4764e-05,0
74.991,7.6371e-05,0
74.992,7.2511e-05,0
74.993,6.7643e-05,0
74.993,5.7572e-05,0
74.994,4.9348e-05,0
74.994,5.539e-05,0
74.995,7.2343e-05,0
74.995,8.9632e-05,0
74.996,9.7688e-05,0
74.996,0.00010423,0
74.997,0.00011397,0
74.997,0.00011716,0
74.998,0.00010726,0
74.998,9.7688e-05,0
74.999,9.1142e-05,0
74.999,8.3085e-05,0
75,6.9154e-05,0
75,4.6494e-05,0
75.001,3.8773e-05,0
75.001,5.5894e-05,0
75.002,7.4357e-05,0
75.002,6.4958e-05,0
75.003,2.0645e-05,0
75.003,-3.9445e-05,0
75.004,-8.8457e-05,0
75.004,-0.00010658,0
75.005,-9.7353e-05,0
75.005,-9.4163e-05,0
75.006,-0.00012001,0
75.007,-0.00014553,0
75.007,-0.00012908,0
75.008,-8.3757e-05,0
75.008,-4.3473e-05,0
75.009,-1.5778e-05,0
75.009,1.0575e-05,0
75.01,3.3234e-05,0
75.01,4.2802e-05,0
75.011,4.1291e-05,0
75.011,3.7766e-05,0
75.012,3.8437e-05,0
75.012,4.4648e-05,0
75.013,5.9586e-05,0
75.013,8.1407e-05,0
75.014,0.00010088,0
75.014,0.00012337,0
75.015,0.00014922,0
75.015,0.00016298,0
75.016,0.0001509,0
75.016,0.00011632,0
75.017,8.426e-05,0
75.017,7.9393e-05,0
75.018,9.6849e-05,0
75.018,0.00011464,0
75.019,0.00011028,0
75.019,7.6036e-05,0
75.02,3.0549e-05,0
75.021,5.8747e-06,0
75.021,-2.8534e-06,0
75.022,-1.9638e-05,0
75.022,-5.623e-05,0
75.023,-0.00011246,0
75.023,-0.00015492,0
75.024,-0.00015073,0
75.024,-0.00011565,0
75.025,-0.00010491,0
75.025,-0.00013059,0
75.026,-0.00013478,0
75.026,-7.1e-05,0
75.027,2.6688e-05,0
75.027,8.8457e-05,0
75.028,8.0232e-05,0
75.028,3.5416e-05,0
75.029,1.6785e-07,0
75.029,-1.561e-05,0
75.03,-2.417e-05,0
75.03,-2.6184e-05,0
75.031,-2.3667e-05,0
75.031,-3.7766e-05,0
75.032,-8.3757e-05,0
75.032,-0.00013881,0
75.033,-0.0001613,0
75.034,-0.00013344,0
75.034,-8.1239e-05,0
75.035,-2.6352e-05,0
75.035,2.0478e-05,0
75.036,4.7837e-05,0
75.036,5.3544e-05,0
75.037,5.2201e-05,0
75.037,5.7572e-05,0
75.038,7.0832e-05,0
75.038,7.7043e-05,0
75.039,6.5126e-05,0
75.039,5.9586e-05,0
75.04,7.5029e-05,0
75.04,0.00010256,0
75.041,0.00012975,0
75.041,0.00014485,0
75.042,0.00014267,0
75.042,0.00013042,0
75.043,0.00011313,0
75.043,8.51e-05,0
75.044,7.2343e-05,0
75.044,8.9296e-05,0
75.045,9.7856e-05,0
75.045,8.0232e-05,0
75.046,6.009e-05,0
75.046,4.3473e-05,0
75.047,2.1317e-05,0
75.048,-3.1891e-06,0
75.048,-2.2156e-05,0
75.049,-3.2059e-05,0
75.049,-3.508e-05,0
75.05,-4.0284e-05,0
75.05,-5.5894e-05,0
75.051,-7.5364e-05,0
75.051,-8.5435e-05,0
75.052,-8.04e-05,0
75.052,-6.0258e-05,0
75.053,-3.2395e-05,0
75.053,-1.0239e-05,0
75.054,3.357e-07,0
75.054,7.7211e-06,0
75.055,2.0478e-05,0
75.055,3.7934e-05,0
75.056,5.3376e-05,0
75.056,6.5797e-05,0
75.057,7.9561e-05,0
75.057,9.5171e-05,0
75.058,0.00010944,0
75.058,0.00011565,0
75.059,0.00011531,0
75.059,0.0001086,0
75.06,9.5171e-05,0
75.061,8.1071e-05,0
75.061,7.1672e-05,0
75.062,6.5965e-05,0
75.062,5.8915e-05,0
75.063,5.1865e-05,0
75.063,4.4144e-05,0
75.064,3.1052e-05,0
75.064,1.1078e-05,0
75.065,-1.2757e-05,0
75.065,-3.4409e-05,0
75.066,-3.8437e-05,0
75.066,-1.8967e-05,0
75.067,5.0355e-06,0
75.067,1.7456e-05,0
75.068,1.5946e-05,0
75.068,6.3783e-06,0
75.069,-5.2033e-06,0
75.069,-8.896e-06,0
75.07,-6.8818e-06,0
75.07,-7.8889e-06,0
75.071,-9.2317e-06,0
75.071,-1.2085e-05,0
75.072,-1.796e-05,0
75.072,-1.796e-05,0
75.073,-6.2104e-06,0
75.073,1.5274e-05,0
75.074,3.6759e-05,0
75.075,5.0523e-05,0
75.075,5.4887e-05,0
75.076,5.3208e-05,0
75.076,5.1194e-05,0
75.077,4.8005e-05,0
75.077,3.8773e-05,0
75.078,2.5345e-05,0
75.078,1.7792e-05,0
75.079,2.2156e-05,0
75.079,3.743e-05,0
75.08,5.623e-05,0
75.08,6.4958e-05,0
75.081,6.4286e-05,0
75.081,6.4958e-05,0
75.082,6.2943e-05,0
75.082,6.2272e-05,0
75.083,7.2679e-05,0
75.083,9.5003e-05,0
75.084,0.00012723,0
75.084,0.00016013,0
75.085,0.00017473,0
75.085,0.00016449,0
75.086,0.0001462,0
75.086,0.0001274,0
75.087,8.5435e-05,0
75.088,1.4267e-05,0
75.088,-5.6397e-05,0
75.089,-9.9031e-05,0
75.089,-0.00012354,0
75.09,-0.00015425,0
75.09,-0.00019672,0
75.091,-0.00023616,0
75.091,-0.00024556,0
75.092,-0.00022374,0
75.092,-0.00020461,0
75.093,-0.0001984,0
75.093,-0.00017473,0
75.094,-0.00010709,0
75.094,-2.2324e-05,0
75.095,2.8031e-05,0
75.095,2.9038e-05,0
75.096,4.5319e-06,0
75.096,-8.0568e-06,0
75.097,1.0407e-05,0
75.097,4.3473e-05,0
75.098,7.6371e-05,0
75.098,0.00011263,0
75.099,0.00014586,0
75.099,0.00015929,0
75.1,0.00013747,0
75.1,8.7617e-05,0
75.101,4.5991e-05,0
75.102,3.2059e-05,0
75.102,3.3066e-05,0
75.103,3.7095e-05,0
75.103,4.0955e-05,0
75.104,3.9445e-05,0
75.104,2.6017e-05,0
75.105,1.1749e-06,0
75.105,-1.9806e-05,0
75.106,-2.4674e-05,0
75.106,-1.4603e-05,0
75.107,2.3499e-06,0
75.107,1.8296e-05,0
75.108,2.652e-05,0
75.108,2.7024e-05,0
75.109,2.1317e-05,0
75.109,1.2589e-05,0
75.11,2.182e-06,0
75.11,-1.1917e-05,0
75.111,-2.182e-05,0
75.111,-4.5319e-06,0
75.112,4.4144e-05,0
75.112,8.6442e-05,0
75.113,8.5771e-05,0
75.113,5.2873e-05,0
75.114,1.4603e-05,0
75.115,-2.8534e-06,0
75.115,1.8631e-05,0
75.116,5.2873e-05,0
75.116,6.3615e-05,0
75.117,4.9012e-05,0
75.117,2.2324e-05,0
75.118,3.8605e-06,0
75.118,8.896e-06,0
75.119,3.2059e-05,0
75.119,5.2537e-05,0
75.12,5.7908e-05,0
75.12,5.9922e-05,0
75.121,7.2343e-05,0
75.121,8.9632e-05,0
75.122,9.9702e-05,0
75.122,0.0001039,0
75.123,0.00010994,0
75.123,0.00011632,0
75.124,0.00012303,0
75.124,0.00013277,0
75.125,0.00013579,0
75.125,0.00012169,0
75.126,8.6442e-05,0
75.126,4.5991e-05,0
75.127,2.652e-05,0
75.127,3.0213e-05,0
75.128,3.2898e-05,0
75.129,1.8128e-05,0
75.129,-1.1246e-05,0
75.13,-4.2466e-05,0
75.13,-6.9993e-05,0
75.131,-9.4835e-05,0
75.131,-0.00011179,0
75.132,-0.00011917,0
75.132,-0.00011598,0
75.133,-0.00010289,0
75.133,-9.4331e-05,0
75.134,-9.1478e-05,0
75.134,-7.9393e-05,0
75.135,-5.7908e-05,0
75.135,-3.9277e-05,0
75.136,-1.9974e-05,0
75.136,6.5461e-06,0
75.137,3.2731e-05,0
75.137,5.1194e-05,0
75.138,6.0258e-05,0
75.138,6.6972e-05,0
75.139,7.5029e-05,0
75.139,7.6036e-05,0
75.14,7.2343e-05,0
75.14,7.8218e-05,0
75.141,8.5771e-05,0
75.142,7.7043e-05,0
75.142,5.3544e-05,0
75.143,2.9877e-05,0
75.143,2.8534e-06,0
75.144,-3.122e-05,0
75.144,-3.9948e-05,0
75.145,-9.5674e-06,0
75.145,4.1962e-05,0
75.146,8.0735e-05,0
75.146,8.51e-05,0
75.147,6.3615e-05,0
75.147,3.3066e-05,0
75.148,3.0213e-06,0
75.148,-2.031e-05,0
75.149,-3.6927e-05,0
75.149,-4.4144e-05,0
75.15,-2.4674e-05,0
75.15,2.3331e-05,0
75.151,6.5965e-05,0
75.151,7.6539e-05,0
75.152,6.949e-05,0
75.152,6.6972e-05,0
75.153,6.3447e-05,0
75.153,4.9516e-05,0
75.154,3.2059e-05,0
75.154,1.1917e-05,0
75.155,2.3499e-06,0
75.156,1.326e-05,0
75.156,1.8631e-05,0
75.157,0,0
75.157,-1.3092e-05,0
75.158,2.182e-06,0
75.158,2.9374e-05,0
75.159,5.1362e-05,0
75.159,7.6371e-05,0
75.16,0.00010759,0
75.16,0.00013109,0
75.161,0.00013881,0
75.161,0.00013193,0
75.162,0.0001138,0
75.162,8.8289e-05,0
75.163,4.7333e-05,0
75.163,-9.7353e-06,0
75.164,-7.5029e-05,0
75.164,-0.00012052,0
75.165,-0.00010323,0
75.165,-5.8244e-05,0
75.166,-5.0523e-05,0
75.166,-7.9057e-05,0
75.167,-9.6849e-05,0
75.167,-9.2988e-05,0
75.168,-8.51e-05,0
75.169,-8.1575e-05,0
75.169,-8.9632e-05,0
75.17,-9.1478e-05,0
75.17,-6.5965e-05,0
75.171,-1.9638e-05,0
75.171,2.3331e-05,0
75.172,4.6998e-05,0
75.172,5.1865e-05,0
75.173,4.1123e-05,0
75.173,2.3331e-05,0
75.174,2.031e-05,0
75.174,4.0787e-05,0
75.175,6.2272e-05,0
75.175,6.7475e-05,0
75.176,6.6468e-05,0
75.176,6.949e-05,0
75.177,7.4861e-05,0
75.177,7.6539e-05,0
75.178,7.6204e-05,0
75.178,7.6371e-05,0
75.179,7.2175e-05,0
75.179,6.1265e-05,0
75.18,4.5487e-05,0
75.18,3.2059e-05,0
75.181,2.6688e-05,0
75.181,2.6352e-05,0
75.182,2.6352e-05,0
75.183,2.5681e-05,0
75.183,3.2059e-05,0
75.184,5.2537e-05,0
75.184,7.7714e-05,0
75.185,9.2988e-05,0
75.185,9.4163e-05,0
75.186,8.9128e-05,0
75.186,8.8457e-05,0
75.187,9.0135e-05,0
75.187,8.275e-05,0
75.188,6.4958e-05,0
75.188,3.8773e-05,0
75.189,6.8818e-06,0
75.189,-2.1317e-05,0
75.19,-3.6423e-05,0
75.19,-3.9612e-05,0
75.191,-3.9948e-05,0
75.191,-4.0116e-05,0
75.192,-4.448e-05,0
75.192,-5.7237e-05,0
75.193,-7.2007e-05,0
75.193,-7.1672e-05,0
75.194,-5.0187e-05,0
75.194,-1.9638e-05,0
75.195,8.0568e-06,0
75.196,2.8702e-05,0
75.196,3.592e-05,0
75.197,1.9638e-05,0
75.197,-1.6281e-05,0
75.198,-3.8773e-05,0
75.198,-3.3738e-05,0
75.199,-9.9031e-06,0
75.199,1.6617e-05,0
75.2,3.3402e-05,0
75.2,4.2802e-05,0
75.201,5.1194e-05,0
75.201,4.9516e-05,0
75.202,3.7095e-05,0
75.202,2.7024e-05,0
75.203,2.9038e-05,0
75.203,4.8005e-05,0
75.204,7.9057e-05,0
75.204,9.7353e-05,0
75.205,7.8721e-05,0
75.205,2.1988e-05,0
75.206,-3.3906e-05,0
75.206,-4.0452e-05,0
75.207,5.7069e-06,0
75.207,5.5894e-05,0
75.208,7.2343e-05,0
75.209,6.2776e-05,0
75.209,4.2634e-05,0
75.21,1.796e-05,0
75.21,-1.5106e-06,0
75.211,5.0355e-07,0
75.211,2.031e-05,0
75.212,3.5584e-05,0
75.212,3.6759e-05,0
75.213,3.508e-05,0
75.213,2.8702e-05,0
75.214,8.5603e-06,0
75.214,-5.7069e-06,0
75.215,4.1962e-06,0
75.215,2.6688e-05,0
75.216,4.7166e-05,0
75.216,6.7643e-05,0
75.217,7.8721e-05,0
75.217,6.4622e-05,0
75.218,3.5584e-05,0
75.218,2.6688e-05,0
75.219,5.069e-05,0
75.219,8.51e-05,0
75.22,0.00010793,0
75.22,0.0001133,0
75.221,0.00010272,0
75.221,8.9799e-05,0
75.222,8.6442e-05,0
75.223,8.5771e-05,0
75.223,7.7379e-05,0
75.224,7.2007e-05,0
75.224,4.5991e-05,0
75.225,-1.3931e-05,0
75.225,-5.6733e-05,0
75.226,-4.5823e-05,0
75.226,-1.5274e-05,0
75.227,-2.3163e-05,0
75.227,-5.1362e-05,0
75.228,-5.7572e-05,0
75.228,-5.9251e-05,0
75.229,-8.8121e-05,0
75.229,-0.00012773,0
75.23,-0.00013965,0
75.23,-0.00010692,0
75.231,-4.918e-05,0
75.231,-8.5603e-06,0
75.232,-1.5106e-06,0
75.232,-9.5674e-06,0
75.233,-1.5442e-05,0
75.233,-1.2757e-05,0
75.234,-5.0355e-06,0
75.234,3.357e-06,0
75.235,9.7353e-06,0
75.236,2.5177e-06,0
75.236,-9.5674e-06,0
75.237,4.1962e-06,0
75.237,4.6494e-05,0
75.238,8.8121e-05,0
75.238,0.00011196,0
75.239,0.00011363,0
75.239,0.00010037,0
75.24,8.6442e-05,0
75.24,7.7043e-05,0
75.241,6.8315e-05,0
75.241,5.5726e-05,0
75.242,3.5584e-05,0
75.242,1.796e-05,0
75.243,2.501e-05,0
75.243,5.7908e-05,0
75.244,9.2988e-05,0
75.244,0.00010726,0
75.245,8.5435e-05,0
75.245,3.5416e-05,0
75.246,-8.2246e-06,0
75.246,-4.2802e-05,0
75.247,-8.426e-05,0
75.247,-0.00010608,0
75.248,-8.6778e-05,0
75.248,-4.8676e-05,0
75.249,-2.4506e-05,0
75.25,-1.091e-05,0
75.25,6.2104e-06,0
75.251,1.8967e-05,0
75.251,1.6449e-05,0
75.252,3.8605e-06,0
75.252,-1.2421e-05,0
75.253,-3.4241e-05,0
75.253,-5.069e-05,0
75.254,-4.9683e-05,0
75.254,-3.7263e-05,0
75.255,-2.9709e-05,0
75.255,-3.8773e-05,0
75.256,-4.683e-05,0
75.256,-2.031e-05,0
75.257,2.652e-05,0
75.257,4.6494e-05,0
75.258,3.0045e-05,0
75.258,1.5946e-05,0
75.259,2.0813e-05,0
75.259,3.0045e-05,0
75.26,3.1891e-05,0
75.26,1.796e-05,0
75.261,-5.0355e-06,0
75.261,-2.3163e-05,0
75.262,-2.8031e-05,0
75.263,-1.796e-05,0
75.263,-1.6953e-05,0
75.264,-4.8508e-05,0
75.264,-7.3014e-05,0
75.265,-5.9922e-05,0
75.265,-1.1582e-05,0
75.266,6.4118e-05,0
75.266,0.00013378,0
75.267,0.00014351,0
75.267,8.9799e-05,0
75.268,3.1052e-05,0
75.268,2.7695e-05,0
75.269,8.04e-05,0
75.269,0.00013143,0
75.27,0.00014955,0
75.27,0.00014234,0
75.271,0.00013613,0
75.271,0.00014083,0
75.272,0.00014166,0
75.272,0.00012874,0
75.273,0.00010793,0
75.273,8.7617e-05,0
75.274,7.7714e-05,0
75.274,8.1071e-05,0
75.275,9.1142e-05,0
75.275,9.5506e-05,0
75.276,8.6442e-05,0
75.277,6.7308e-05,0
75.277,4.4144e-05,0
75.278,2.7695e-05,0
75.278,2.0478e-05,0
75.279,1.9638e-05,0
75.279,5.0355e-06,0
75.28,-3.1052e-05,0
75.28,-6.3615e-05,0
75.281,-7.9057e-05,0
75.281,-7.5532e-05,0
75.282,-5.388e-05,0
75.282,-2.6352e-05,0
75.283,-4.1962e-06,0
75.283,3.8605e-06,0
75.284,8.896e-06,0
75.284,2.4842e-05,0
75.285,4.3641e-05,0
75.285,6.0594e-05,0
75.286,7.8386e-05,0
75.286,8.6442e-05,0
75.287,6.8986e-05,0
75.287,3.6759e-05,0
75.288,2.266e-05,0
75.288,3.9445e-05,0
75.289,5.623e-05,0
75.29,4.9348e-05,0
75.29,3.357e-05,0
75.291,2.4002e-05,0
75.291,1.4939e-05,0
75.292,1.1749e-05,0
75.292,2.0142e-05,0
75.293,3.4745e-05,0
75.293,4.3473e-05,0
75.294,3.6759e-05,0
75.294,1.2589e-05,0
75.295,-2.1317e-05,0
75.295,-4.8508e-05,0
75.296,-5.5894e-05,0
75.296,-5.0523e-05,0
75.297,-4.7669e-05,0
75.297,-4.8844e-05,0
75.298,-4.7501e-05,0
75.298,-3.7766e-05,0
75.299,-2.1988e-05,0
75.299,-1.1414e-05,0
75.3,-1.3931e-05,0
75.3,-2.2324e-05,0
75.301,-2.2995e-05,0
75.301,-1.1078e-05,0
75.302,1.1582e-05,0
75.302,3.8102e-05,0
75.303,5.8579e-05,0
75.304,7.4022e-05,0
75.304,8.3085e-05,0
75.305,8.4092e-05,0
75.305,7.8721e-05,0
75.306,7.5029e-05,0
75.306,7.2343e-05,0
75.307,6.5293e-05,0
75.307,5.4215e-05,0
75.308,3.2731e-05,0
75.308,-5.8747e-06,0
75.309,-5.3208e-05,0
75.309,-9.2317e-05,0
75.31,-0.00012656,0
75.31,-0.00015056,0
75.311,-0.00014418,0
75.311,-0.00010893,0
75.312,-6.949e-05,0
75.312,-4.9851e-05,0
75.313,-3.8773e-05,0
75.313,-1.1078e-05,0
75.314,2.4338e-05,0
75.314,5.0355e-05,0
75.315,7.2343e-05,0
75.315,8.896e-05,0
75.316,9.5506e-05,0
75.317,8.8289e-05,0
75.317,7.5029e-05,0
75.318,5.8915e-05,0
75.318,4.0116e-05,0
75.319,3.508e-05,0
75.319,4.0452e-05,0
75.32,3.592e-05,0
75.32,2.1988e-05,0
75.321,1.6953e-05,0
75.321,1.8296e-05,0
75.322,1.796e-05,0
75.322,1.9974e-05,0
75.323,2.5681e-05,0
75.323,3.2059e-05,0
75.324,4.2298e-05,0
75.324,5.1362e-05,0
75.325,5.3208e-05,0
75.325,5.1865e-05,0
75.326,5.4887e-05,0
75.326,6.1601e-05,0
75.327,6.7979e-05,0
75.327,7.2343e-05,0
75.328,7.1e-05,0
75.328,5.8244e-05,0
75.329,4.0787e-05,0
75.329,3.2563e-05,0
75.33,2.8031e-05,0
75.331,6.714e-07,0
75.331,-4.6494e-05,0
75.332,-7.9561e-05,0
75.332,-7.4525e-05,0
75.333,-4.213e-05,0
75.333,-9.0639e-06,0
75.334,1.2253e-05,0
75.334,2.1988e-05,0
75.335,3.0045e-05,0
75.335,4.4816e-05,0
75.336,7.2343e-05,0
75.336,9.7353e-05,0
75.337,9.6178e-05,0
75.337,7.7211e-05,0
75.338,6.5797e-05,0
75.338,6.3951e-05,0
75.339,5.7572e-05,0
75.339,4.4144e-05,0
75.34,2.4674e-05,0
75.34,1.8463e-06,0
75.341,-1.2924e-05,0
75.341,-1.561e-05,0
75.342,-5.539e-06,0
75.342,2.2156e-05,0
75.343,6.4958e-05,0
75.344,8.8457e-05,0
75.344,7.5029e-05,0
75.345,5.3712e-05,0
75.345,4.9516e-05,0
75.346,5.4215e-05,0
75.346,5.069e-05,0
75.347,2.3331e-05,0
75.347,-1.8967e-05,0
75.348,-4.062e-05,0
75.348,-3.1724e-05,0
75.349,-2.7695e-05,0
75.349,-3.9109e-05,0
75.35,-3.6255e-05,0
75.35,-1.3931e-05,0
75.351,6.3783e-06,0
75.351,1.6617e-05,0
75.352,2.7695e-05,0
75.352,4.3305e-05,0
75.353,4.8173e-05,0
75.353,3.743e-05,0
75.354,2.1317e-05,0
75.354,1.6617e-05,0
75.355,2.5345e-05,0
75.355,3.2731e-05,0
75.356,3.3906e-05,0
75.356,4.1291e-05,0
75.357,5.6733e-05,0
75.358,7.1336e-05,0
75.358,7.9225e-05,0
75.359,8.2414e-05,0
75.359,7.4357e-05,0
75.36,5.8915e-05,0
75.36,6.0929e-05,0
75.361,7.1336e-05,0
75.361,6.3279e-05,0
75.362,3.6088e-05,0
75.362,8.7282e-06,0
75.363,-4.8676e-06,0
75.363,-1.1246e-05,0
75.364,-1.796e-05,0
75.364,-2.4002e-05,0
75.365,-3.7766e-05,0
75.365,-5.7404e-05,0
75.366,-6.6972e-05,0
75.366,-6.3279e-05,0
75.367,-5.6733e-05,0
75.367,-5.3208e-05,0
75.368,-5.388e-05,0
75.368,-6.7979e-05,0
75.369,-8.4596e-05,0
75.369,-7.5868e-05,0
75.37,-3.6423e-05,0
75.371,4.5319e-06,0
75.371,2.8702e-05,0
75.372,3.8102e-05,0
75.372,4.1962e-05,0
75.373,4.4984e-05,0
75.373,5.3544e-05,0
75.374,6.5965e-05,0
75.374,7.0329e-05,0
75.375,6.6468e-05,0
75.375,5.8915e-05,0
75.376,3.9445e-05,0
75.376,1.4435e-05,0
75.377,-9.5674e-06,0
75.377,-3.5416e-05,0
75.378,-5.5558e-05,0
75.378,-5.6901e-05,0
75.379,-4.2466e-05,0
75.379,-2.4002e-05,0
75.38,-6.5461e-06,0
75.38,9.2317e-06,0
75.381,2.266e-05,0
75.381,3.2731e-05,0
75.382,3.7095e-05,0
75.382,3.8773e-05,0
75.383,4.1794e-05,0
75.383,4.5991e-05,0
75.384,5.0858e-05,0
75.385,5.1698e-05,0
75.385,4.5487e-05,0
75.386,3.6759e-05,0
75.386,1.8631e-05,0
75.387,-1.3092e-05,0
75.387,-3.592e-05,0
75.388,-1.8296e-05,0
75.388,3.6088e-05,0
75.389,8.1071e-05,0
75.389,8.1575e-05,0
75.39,5.7908e-05,0
75.39,4.7333e-05,0
75.391,5.8747e-05,0
75.391,8.0064e-05,0
75.392,8.8121e-05,0
75.392,7.1672e-05,0
75.393,4.213e-05,0
75.393,2.1317e-05,0
75.394,1.8463e-05,0
75.394,2.9374e-05,0
75.395,3.6759e-05,0
75.395,2.9709e-05,0
75.396,1.5946e-05,0
75.396,6.714e-06,0
75.397,4.5319e-06,0
75.397,1.0239e-05,0
75.398,2.1149e-05,0
75.399,3.1052e-05,0
75.399,3.7598e-05,0
75.4,4.2466e-05,0
75.4,6.4286e-05,0
75.401,0.00010776,0
75.401,0.00014183,0
75.402,0.0001462,0
75.402,0.00012958,0
75.403,0.00010793,0
75.403,8.2414e-05,0
75.404,4.1123e-05,0
75.404,-2.2324e-05,0
75.405,-7.6204e-05,0
75.405,-7.6036e-05,0
75.406,-3.3738e-05,0
75.406,2.5177e-06,0
75.407,9.2317e-06,0
75.407,-1.0575e-05,0
75.408,-3.6927e-05,0
75.408,-4.2466e-05,0
75.409,-2.9038e-05,0
75.409,-2.2995e-05,0
75.41,-3.3738e-05,0
75.41,-4.3641e-05,0
75.411,-4.1123e-05,0
75.412,-2.7863e-05,0
75.412,-2.0981e-05,0
75.413,-2.9206e-05,0
75.413,-4.0452e-05,0
75.414,-2.7024e-05,0
75.414,1.1917e-05,0
75.415,4.2802e-05,0
75.415,5.1865e-05,0
75.416,5.0523e-05,0
75.416,4.6326e-05,0
75.417,4.1459e-05,0
75.417,3.4745e-05,0
75.418,2.266e-05,0
75.418,1.2253e-05,0
75.419,5.8747e-06,0
75.419,5.7069e-06,0
75.42,9.9031e-06,0
75.42,1.1078e-05,0
75.421,1.326e-05,0
75.421,2.1988e-05,0
75.422,3.1724e-05,0
75.422,3.8773e-05,0
75.423,4.5823e-05,0
75.423,5.4887e-05,0
75.424,6.479e-05,0
75.424,6.6804e-05,0
75.425,5.4383e-05,0
75.426,3.7095e-05,0
75.426,2.8031e-05,0
75.427,2.1149e-05,0
75.427,1.091e-05,0
75.428,6.3783e-06,0
75.428,1.1749e-05,0
75.429,2.9038e-05,0
75.429,5.153e-05,0
75.43,5.8579e-05,0
75.43,4.3473e-05,0
75.431,1.8296e-05,0
75.431,0,0
75.432,-6.5461e-06,0
75.432,-1.2589e-05,0
75.433,-2.266e-05,0
75.433,-2.6017e-05,0
75.434,-1.091e-05,0
75.434,1.1414e-05,0
75.435,2.2492e-05,0
75.435,2.1653e-05,0
75.436,2.0981e-05,0
75.436,2.6352e-05,0
75.437,3.4073e-05,0
75.437,3.4073e-05,0
75.438,1.7288e-05,0
75.439,-6.714e-06,0
75.439,-2.1149e-05,0
75.44,-2.3667e-05,0
75.44,-2.5177e-05,0
75.441,-1.8631e-05,0
75.441,7.2175e-06,0
75.442,4.2802e-05,0
75.442,6.7643e-05,0
75.443,8.0735e-05,0
75.443,8.3925e-05,0
75.444,7.6204e-05,0
75.444,6.4958e-05,0
75.445,5.623e-05,0
75.445,5.2873e-05,0
75.446,4.7333e-05,0
75.446,2.7695e-05,0
75.447,2.5177e-06,0
75.447,-8.2246e-06,0
75.448,8.3925e-07,0
75.448,-8.3925e-07,0
75.449,-2.266e-05,0
75.449,-5.1194e-05,0
75.45,-7.57e-05,0
75.45,-8.1743e-05,0
75.451,-5.4887e-05,0
75.451,0,0
75.452,5.4215e-05,0
75.453,8.4596e-05,0
75.453,9.5674e-05,0
75.454,0.00010793,0
75.454,0.00013008,0
75.455,0.00015241,0
75.455,0.00015425,0
75.456,0.00013478,0
75.456,0.00011431,0
75.457,9.7185e-05,0
75.457,7.57e-05,0
75.458,4.5991e-05,0
75.458,6.8818e-06,0
75.459,-4.448e-05,0
75.459,-8.896e-05,0
75.46,-0.00011833,0
75.46,-0.00014418,0
75.461,-0.00015106,0
75.461,-0.00011028,0
75.462,-4.9516e-05,0
75.462,-2.4338e-05,0
75.463,-3.7095e-05,0
75.463,-4.3137e-05,0
75.464,-3.3906e-05,0
75.464,-1.4435e-05,0
75.465,3.2395e-05,0
75.466,0.00010524,0
75.466,0.00016701,0
75.467,0.00019303,0
75.467,0.00020394,0
75.468,0.0002224,0
75.468,0.00024019,0
75.469,0.00021099,0
75.469,0.00011867,0
75.47,1.796e-05,0
75.47,-4.8173e-05,0
75.471,-9.4499e-05,0
75.471,-0.00012958,0
75.472,-0.00013696,0
75.472,-0.00011313,0
75.473,-8.0064e-05,0
75.473,-4.0787e-05,0
75.474,-1.1749e-06,0
75.474,1.8631e-05,0
75.475,1.7792e-05,0
75.475,1.5946e-05,0
75.476,1.796e-05,0
75.476,1.5106e-05,0
75.477,5.8747e-06,0
75.477,-1.1917e-05,0
75.478,-4.0452e-05,0
75.478,-6.5461e-05,0
75.479,-7.2175e-05,0
75.48,-6.0594e-05,0
75.48,-3.9612e-05,0
75.481,-2.417e-05,0
75.481,-2.6017e-05,0
75.482,-3.508e-05,0
75.482,-3.3402e-05,0
75.483,-1.8631e-05,0
75.483,-1.8463e-06,0
75.484,1.1749e-05,0
75.484,3.0716e-05,0
75.485,6.0258e-05,0
75.485,7.9896e-05,0
75.486,8.2078e-05,0
75.486,8.0064e-05,0
75.487,8.4092e-05,0
75.487,0.00010658,0
75.488,0.00014351,0
75.488,0.00015543,0
75.489,0.00013277,0
75.489,0.00011179,0
75.49,0.0001086,0
75.49,0.00010491,0
75.491,8.275e-05,0
75.491,5.0187e-05,0
75.492,2.6017e-05,0
75.493,5.3712e-06,0
75.493,-2.1653e-05,0
75.494,-3.6591e-05,0
75.494,-3.3066e-05,0
75.495,-2.0478e-05,0
75.495,-1.7624e-05,0
75.496,-3.5584e-05,0
75.496,-5.3712e-05,0
75.497,-5.2033e-05,0
75.497,-4.3305e-05,0
75.498,-4.1962e-05,0
75.498,-4.213e-05,0
75.499,-3.5248e-05,0
75.499,-2.3667e-05,0
75.5,-9.2317e-06,0
75.5,4.8676e-06,0
75.501,9.5674e-06,0
75.501,9.7353e-06,0
75.502,1.7624e-05,0
75.502,3.4577e-05,0
75.503,5.2033e-05,0
75.503,6.6972e-05,0
75.504,8.1407e-05,0
75.504,9.5842e-05,0
75.505,0.00011212,0
75.505,0.00012874,0
75.506,0.00014183,0
75.507,0.00014553,0
75.507,0.00014116,0
75.508,0.00013394,0
75.508,0.00012001,0
75.509,9.752e-05,0
75.509,8.0903e-05,0
75.51,6.6972e-05,0
75.51,4.1123e-05,0
75.511,1.4939e-05,0
75.511,2.9709e-05,0
75.512,6.7308e-05,0
75.512,6.4622e-05,0
75.513,2.0981e-05,0
75.513,-6.5461e-06,0
75.514,-1.3931e-05,0
75.514,-2.1653e-05,0
75.515,-2.5681e-05,0
75.515,-2.8367e-05,0
75.516,-4.0452e-05,0
75.516,-5.9754e-05,0
75.517,-7.7714e-05,0
75.517,-0.00011263,0
75.518,-0.00016902,0
75.518,-0.00020897,0
75.519,-0.00020612,0
75.52,-0.00018077,0
75.52,-0.00014888,0
75.521,-8.5771e-05,0
75.521,-1.5106e-06,0
75.522,5.4887e-05,0
75.522,7.0329e-05,0
75.523,6.6636e-05,0
75.523,5.4887e-05,0
75.524,3.8773e-05,0
75.524,3.8773e-05,0
75.525,5.7572e-05,0
75.525,6.1936e-05,0
75.526,2.4674e-05,0
75.526,-5.5558e-05,0
75.527,-0.00011901,0
75.527,-9.0974e-05,0
75.528,8.896e-06,0
75.528,8.7785e-05,0
75.529,0.00010021,0
75.529,7.3686e-05,0
75.53,3.6423e-05,0
75.53,2.5177e-06,0
75.531,-1.6281e-05,0
75.531,-5.0355e-06,0
75.532,2.7024e-05,0
75.532,3.0045e-05,0
75.533,-5.539e-06,0
75.534,-2.2995e-05,0
75.534,0,0
75.535,2.5681e-05,0
75.535,3.3738e-05,0
75.536,3.3402e-05,0
75.536,4.7501e-05,0
75.537,7.3686e-05,0
75.537,7.9561e-05,0
75.538,5.2033e-05,0
75.538,1.9471e-05,0
75.539,4.3641e-06,0
75.539,1.561e-05,0
75.54,4.2466e-05,0
75.54,5.6565e-05,0
75.541,6.9993e-05,0
75.541,9.0135e-05,0
75.542,0.00010088,0
75.542,9.0135e-05,0
75.543,6.949e-05,0
75.543,5.0523e-05,0
75.544,3.6423e-05,0
75.544,3.1724e-05,0
75.545,4.9516e-05,0
75.545,8.2414e-05,0
75.546,0.00010323,0
75.547,0.00010591,0
75.547,0.00010188,0
75.548,9.6513e-05,0
75.548,8.6778e-05,0
75.549,7.8386e-05,0
75.549,8.5771e-05,0
75.55,0.00011431,0
75.55,0.00014553,0
75.551,0.00014871,0
75.551,0.00011397,0
75.552,6.6636e-05,0
75.552,3.5584e-05,0
75.553,1.6785e-05,0
75.553,-8.0568e-06,0
75.554,-3.9445e-05,0
75.554,-5.8579e-05,0
75.555,-6.2943e-05,0
75.555,-4.918e-05,0
75.556,-1.6449e-05,0
75.556,1.5778e-05,0
75.557,2.4338e-05,0
75.557,2.0142e-06,0
75.558,-4.3809e-05,0
75.558,-7.7546e-05,0
75.559,-7.2175e-05,0
75.559,-4.2466e-05,0
75.56,-2.2995e-05,0
75.561,-1.6281e-05,0
75.561,-6.2104e-06,0
75.562,9.2317e-06,0
75.562,2.7359e-05,0
75.563,4.5487e-05,0
75.563,5.0523e-05,0
75.564,2.7192e-05,0
75.564,3.1891e-06,0
75.565,1.4939e-05,0
75.565,6.3783e-05,0
75.566,0.00013042,0
75.566,0.00020108,0
75.567,0.00025127,0
75.567,0.00025563,0
75.568,0.00021367,0
75.568,0.00015593,0
75.569,0.00011028,0
75.569,7.3014e-05,0
75.57,2.2995e-05,0
75.57,-5.4887e-05,0
75.571,-0.00015929,0
75.571,-0.00026336,0
75.572,-0.0003211,0
75.572,-0.00032815,0
75.573,-0.00031086,0
75.574,-0.00027158,0
75.574,-0.00020763,0
75.575,-0.00015006,0
75.575,-0.00012874,0
75.576,-0.00012001,0
75.576,-9.3156e-05,0
75.577,-5.388e-05,0
75.577,-2.6688e-05,0
75.578,-2.1317e-05,0
75.578,-2.1653e-05,0
75.579,-1.9638e-05,0
75.579,-9.5674e-06,0
75.58,1.9638e-05,0
75.58,4.8508e-05,0
75.581,5.6901e-05,0
75.581,5.2873e-05,0
75.582,6.2104e-05,0
75.582,8.7785e-05,0
75.583,0.00010759,0
75.583,0.00010793,0
75.584,9.0471e-05,0
75.584,7.1e-05,0
75.585,6.0929e-05,0
75.585,5.7908e-05,0
75.586,5.2369e-05,0
75.587,4.7333e-05,0
75.587,5.069e-05,0
75.588,6.1936e-05,0
75.588,7.2343e-05,0
75.589,7.7714e-05,0
75.589,8.51e-05,0
75.59,9.6513e-05,0
75.59,0.00010121,0
75.591,9.7856e-05,0
75.591,9.4667e-05,0
75.592,9.1478e-05,0
75.592,8.8121e-05,0
75.593,8.9128e-05,0
75.593,9.6178e-05,0
75.594,0.00010642,0
75.594,0.00011531,0
75.595,0.00012404,0
75.595,0.0001284,0
75.596,0.00012471,0
75.596,0.00012186,0
75.597,0.00011733,0
75.597,9.7185e-05,0
75.598,6.2272e-05,0
75.598,1.3092e-05,0
75.599,-4.5823e-05,0
75.599,-9.8192e-05,0
75.6,-0.00012975,0
75.601,-0.00012589,0
75.601,-7.9393e-05,0
75.602,-4.8676e-06,0
75.602,6.2943e-05,0
75.603,9.5506e-05,0
75.603,9.0806e-05,0
75.604,7.5029e-05,0
75.604,5.623e-05,0
75.605,2.2995e-05,0
75.605,-1.5778e-05,0
75.606,-3.8605e-05,0
75.606,-3.9109e-05,0
75.607,-2.5681e-05,0
75.607,-1.326e-05,0
75.608,-1.1917e-05,0
75.608,-1.5778e-05,0
75.609,1.6785e-07,0
75.609,4.3137e-05,0
75.61,8.8457e-05,0
75.61,0.000118,0
75.611,0.00012874,0
75.611,0.00011666,0
75.612,8.1071e-05,0
75.612,2.2492e-05,0
75.613,-3.5752e-05,0
75.614,-6.3951e-05,0
75.614,-6.0594e-05,0
75.615,-5.2201e-05,0
75.615,-4.5319e-05,0
75.616,-3.2731e-05,0
75.616,-1.3596e-05,0
75.617,9.5674e-06,0
75.617,4.1291e-05,0
75.618,7.6371e-05,0
75.618,9.6849e-05,0
75.619,9.7185e-05,0
75.619,8.51e-05,0
75.62,6.8986e-05,0
75.62,5.8915e-05,0
75.621,5.6062e-05,0
75.621,5.5558e-05,0
75.622,5.6901e-05,0
75.622,6.0929e-05,0
75.623,6.4286e-05,0
75.623,5.3544e-05,0
75.624,3.2059e-05,0
75.624,2.0981e-05,0
75.625,2.1317e-05,0
75.625,-5.8747e-06,0
75.626,-7.6036e-05,0
75.626,-0.00013411,0
75.627,-0.00014166,0
75.628,-0.00012656,0
75.628,-0.00011296,0
75.629,-9.6513e-05,0
75.629,-7.0665e-05,0
75.63,-4.3137e-05,0
75.63,-3.3906e-05,0
75.631,-5.069e-05,0
75.631,-7.805e-05,0
75.632,-9.5506e-05,0
75.632,-8.8289e-05,0
75.633,-7.4022e-05,0
75.633,-7.3014e-05,0
75.634,-7.2007e-05,0
75.634,-4.7333e-05,0
75.635,-7.5532e-06,0
75.635,2.0645e-05,0
75.636,3.122e-05,0
75.636,3.6255e-05,0
75.637,4.3809e-05,0
75.637,5.7237e-05,0
75.638,7.2511e-05,0
75.638,8.275e-05,0
75.639,8.4932e-05,0
75.639,8.8792e-05,0
75.64,9.9199e-05,0
75.641,9.9199e-05,0
75.641,7.8386e-05,0
75.642,5.0858e-05,0
75.642,1.8631e-05,0
75.643,-9.3996e-06,0
75.643,-4.8676e-06,0
75.644,3.1724e-05,0
75.644,6.2943e-05,0
75.645,6.1936e-05,0
75.645,4.3305e-05,0
75.646,3.508e-05,0
75.646,3.7934e-05,0
75.647,3.7263e-05,0
75.647,3.1388e-05,0
75.648,3.8773e-05,0
75.648,6.8315e-05,0
75.649,0.00010188,0
75.649,0.00012203,0
75.65,0.00012874,0
75.65,0.0001321,0
75.651,0.00013109,0
75.651,0.00011531,0
75.652,7.6371e-05,0
75.652,2.9374e-05,0
75.653,2.182e-06,0
75.653,-1.2421e-05,0
75.654,-3.357e-05,0
75.655,-5.5222e-05,0
75.655,-7.6371e-05,0
75.656,-9.2653e-05,0
75.656,-9.0135e-05,0
75.657,-6.6972e-05,0
75.657,-4.0452e-05,0
75.658,-2.5345e-05,0
75.658,-9.9031e-06,0
75.659,1.8631e-05,0
75.659,4.6159e-05,0
75.66,4.8173e-05,0
75.66,2.0981e-05,0
75.661,-4.3641e-06,0
75.661,1.6785e-06,0
75.662,4.0452e-05,0
75.662,8.2414e-05,0
75.663,9.7856e-05,0
75.663,9.2988e-05,0
75.664,9.1814e-05,0
75.664,9.9199e-05,0
75.665,0.00011028,0
75.665,0.00012052,0
75.666,0.00011028,0
75.666,5.9251e-05,0
75.667,9.5674e-06,0
75.668,1.5106e-06,0
75.668,7.8889e-06,0
75.669,-2.8534e-06,0
75.669,-3.0549e-05,0
75.67,-5.8076e-05,0
75.67,-8.5771e-05,0
75.671,-0.00010558,0
75.671,-8.8457e-05,0
75.672,-2.3331e-05,0
75.672,6.5965e-05,0
75.673,0.00013059,0
75.673,0.00013545,0
75.674,8.9464e-05,0
75.674,2.6688e-05,0
75.675,-2.0142e-05,0
75.675,-3.6591e-05,0
75.676,-2.9541e-05,0
75.676,-9.5674e-06,0
75.677,1.1749e-05,0
75.677,3.3234e-05,0
75.678,4.8173e-05,0
75.678,4.1123e-05,0
75.679,1.5274e-05,0
75.679,-5.8747e-06,0
75.68,-1.2924e-05,0
75.68,-2.3331e-05,0
75.681,-4.6494e-05,0
75.682,-6.1601e-05,0
75.682,-5.5558e-05,0
75.683,-3.8437e-05,0
75.683,-1.6281e-05,0
75.684,1.1582e-05,0
75.684,2.8031e-05,0
75.685,2.9709e-05,0
75.685,4.7837e-05,0
75.686,9.3156e-05,0
75.686,0.00014183,0
75.687,0.00017003,0
75.687,0.00017037,0
75.688,0.00014737,0
75.688,0.00011196,0
75.689,8.1407e-05,0
75.689,6.2104e-05,0
75.69,4.3473e-05,0
75.69,1.796e-05,0
75.691,-3.5248e-06,0
75.691,-2.8534e-06,0
75.692,2.1317e-05,0
75.692,4.0116e-05,0
75.693,2.9709e-05,0
75.693,2.5177e-06,0
75.694,-1.5106e-05,0
75.695,-1.1078e-05,0
75.695,8.3925e-07,0
75.696,-4.1962e-06,0
75.696,-2.9038e-05,0
75.697,-5.6565e-05,0
75.697,-6.8986e-05,0
75.698,-6.8315e-05,0
75.698,-8.4764e-05,0
75.699,-0.00012102,0
75.699,-0.0001472,0
75.7,-0.00014116,0
75.7,-0.00010642,0
75.701,-5.9586e-05,0
75.701,-2.5345e-05,0
75.702,-7.5532e-06,0
75.702,1.0575e-05,0
75.703,2.8702e-05,0
75.703,4.2466e-05,0
75.704,6.5461e-05,0
75.704,9.9199e-05,0
75.705,0.00012052,0
75.705,0.00012673,0
75.706,0.00012807,0
75.706,0.00012337,0
75.707,9.4163e-05,0
75.707,2.1653e-05,0
75.708,-6.3951e-05,0
75.709,-0.00010524,0
75.709,-8.1239e-05,0
75.71,-2.1485e-05,0
75.71,3.6759e-05,0
75.711,6.4958e-05,0
75.711,6.0929e-05,0
75.712,4.7669e-05,0
75.712,3.9948e-05,0
75.713,3.743e-05,0
75.713,3.4745e-05,0
75.714,3.0045e-05,0
75.714,2.2995e-05,0
75.715,1.9303e-05,0
75.715,2.2828e-05,0
75.716,2.9374e-05,0
75.716,3.8102e-05,0
75.717,4.9516e-05,0
75.717,6.4958e-05,0
75.718,8.4428e-05,0
75.718,0.00010105,0
75.719,0.00011229,0
75.719,0.00012035,0
75.72,0.00012538,0
75.72,0.00012001,0
75.721,9.1142e-05,0
75.722,4.683e-05,0
75.722,5.539e-06,0
75.723,-2.3331e-05,0
75.723,-3.8102e-05,0
75.724,-5.623e-05,0
75.724,-7.3182e-05,0
75.725,-6.479e-05,0
75.725,-2.7695e-05,0
75.726,1.6449e-05,0
75.726,4.4144e-05,0
75.727,5.7908e-05,0
75.727,6.714e-05,0
75.728,7.3014e-05,0
75.728,7.3518e-05,0
75.729,7.8386e-05,0
75.729,9.3492e-05,0
75.73,0.0001133,0
75.73,0.00012538,0
75.731,0.00012001,0
75.731,0.00010188,0
75.732,8.5435e-05,0
75.732,8.04e-05,0
75.733,7.7714e-05,0
75.733,6.4286e-05,0
75.734,3.3402e-05,0
75.734,-7.7211e-06,0
75.735,-5.0523e-05,0
75.736,-8.8624e-05,0
75.736,-0.00010675,0
75.737,-8.7449e-05,0
75.737,-4.5319e-05,0
75.738,-2.031e-05,0
75.738,-3.0381e-05,0
75.739,-5.0355e-05,0
75.739,-4.9012e-05,0
75.74,-4.5823e-05,0
75.74,-6.4958e-05,0
75.741,-8.9632e-05,0
75.741,-0.00010138,0
75.742,-0.00010021,0
75.742,-8.6442e-05,0
75.743,-6.865e-05,0
75.743,-5.3208e-05,0
75.744,-3.3402e-05,0
75.744,-4.8676e-06,0
75.745,2.652e-05,0
75.745,4.8676e-05,0
75.746,6.6133e-05,0
75.746,9.1142e-05,0
75.747,0.00012102,0
75.747,0.00014754,0
75.748,0.00016751,0
75.749,0.0001744,0
75.749,0.00016466,0
75.75,0.00014217,0
75.75,0.0001039,0
75.751,5.0858e-05,0
75.751,5.539e-06,0
75.752,-2.8199e-05,0
75.752,-8.1743e-05,0
75.753,-0.00013898,0
75.753,-0.00014888,0
75.754,-0.0001034,0
75.754,-3.6423e-05,0
75.755,1.2421e-05,0
75.755,1.796e-05,0
75.756,-5.0355e-06,0
75.756,-1.9135e-05,0
75.757,-1.3596e-05,0
75.757,-2.1988e-05,0
75.758,-6.7643e-05,0
75.758,-0.00011128,0
75.759,-0.00010558,0
75.759,-5.5894e-05,0
75.76,4.6998e-06,0
75.76,5.3208e-05,0
75.761,7.2007e-05,0
75.761,5.6901e-05,0
75.762,3.6927e-05,0
75.763,4.3809e-05,0
75.763,6.6636e-05,0
75.764,8.3085e-05,0
75.764,8.3085e-05,0
75.765,6.9993e-05,0
75.765,5.0523e-05,0
75.766,3.2059e-05,0
75.766,2.2995e-05,0
75.767,2.8367e-05,0
75.767,4.2802e-05,0
75.768,5.4047e-05,0
75.768,5.069e-05,0
75.769,4.1291e-05,0
75.769,3.7934e-05,0
75.77,4.1291e-05,0
75.77,4.5487e-05,0
75.771,3.978e-05,0
75.771,1.2253e-05,0
75.772,-1.5442e-05,0
75.772,-1.7792e-05,0
75.773,1.6785e-07,0
75.773,1.561e-05,0
75.774,6.0426e-06,0
75.774,-8.5603e-06,0
75.775,5.539e-06,0
75.775,4.3473e-05,0
75.776,7.0497e-05,0
75.777,7.2343e-05,0
75.777,6.5293e-05,0
75.778,5.9586e-05,0
75.778,5.4551e-05,0
75.779,5.0858e-05,0
75.779,4.9516e-05,0
75.78,5.1362e-05,0
75.78,5.3376e-05,0
75.781,4.9012e-05,0
75.781,3.743e-05,0
75.782,2.6352e-05,0
75.782,2.1653e-05,0
75.783,2.1988e-05,0
75.783,3.0381e-05,0
75.784,4.1459e-05,0
75.784,4.8005e-05,0
75.785,5.0858e-05,0
75.785,5.069e-05,0
75.786,4.6159e-05,0
75.786,4.5991e-05,0
75.787,6.0426e-05,0
75.787,8.7449e-05,0
75.788,0.00011078,0
75.788,0.00011481,0
75.789,0.00010222,0
75.79,8.4428e-05,0
75.79,6.8147e-05,0
75.791,5.4215e-05,0
75.791,3.4409e-05,0
75.792,6.714e-06,0
75.792,-1.8631e-05,0
75.793,-3.5416e-05,0
75.793,-3.8102e-05,0
75.794,-3.6759e-05,0
75.794,-4.4312e-05,0
75.795,-4.5319e-05,0
75.795,-2.9038e-05,0
75.796,-9.5674e-06,0
75.796,3.8605e-06,0
75.797,1.4603e-05,0
75.797,1.326e-05,0
75.798,-3.8605e-06,0
75.798,-2.6017e-05,0
75.799,-3.9277e-05,0
75.799,-3.0884e-05,0
75.8,-3.6927e-06,0
75.8,2.887e-05,0
75.801,6.0258e-05,0
75.801,8.7785e-05,0
75.802,0.00010289,0
75.802,9.3492e-05,0
75.803,6.479e-05,0
75.804,3.9109e-05,0
75.804,3.0381e-05,0
75.805,2.4674e-05,0
75.805,1.5106e-06,0
75.806,-3.7766e-05,0
75.806,-7.7379e-05,0
75.807,-9.8695e-05,0
75.807,-9.2485e-05,0
75.808,-6.1769e-05,0
75.808,-3.1891e-05,0
75.809,-2.5681e-05,0
75.809,-3.3738e-05,0
75.81,-2.887e-05,0
75.81,1.8463e-06,0
75.811,4.6159e-05,0
75.811,7.9393e-05,0
75.812,8.9799e-05,0
75.812,7.9225e-05,0
75.813,5.4887e-05,0
75.813,2.501e-05,0
75.814,1.8463e-06,0
75.814,-8.2246e-06,0
75.815,-1.561e-05,0
75.815,-2.3667e-05,0
75.816,-3.6423e-05,0
75.817,-7.2007e-05,0
75.817,-0.00012404,0
75.818,-0.00014989,0
75.818,-0.00013109,0
75.819,-0.00010155,0
75.819,-9.2653e-05,0
75.82,-8.2078e-05,0
75.82,-4.0452e-05,0
75.821,1.796e-05,0
75.821,5.8915e-05,0
75.822,6.7979e-05,0
75.822,5.0858e-05,0
75.823,3.5416e-05,0
75.823,4.1123e-05,0
75.824,6.4286e-05,0
75.824,9.1478e-05,0
75.825,0.0001138,0
75.825,0.00012454,0
75.826,0.0001321,0
75.826,0.00014687,0
75.827,0.00016533,0
75.827,0.00018732,0
75.828,0.00019454,0
75.828,0.00016735,0
75.829,0.00012505,0
75.829,9.3156e-05,0
75.83,6.4286e-05,0
75.831,2.6352e-05,0
75.831,-6.5461e-06,0
75.832,-3.1052e-05,0
75.832,-4.9851e-05,0
75.833,-4.683e-05,0
75.833,-3.3738e-05,0
75.834,-3.1052e-05,0
75.834,-2.8367e-05,0
75.835,-3.4073e-05,0
75.835,-6.244e-05,0
75.836,-7.7379e-05,0
75.836,-4.8173e-05,0
75.837,-1.326e-05,0
75.837,-1.1246e-05,0
75.838,-2.9709e-05,0
75.838,-4.8005e-05,0
75.839,-4.6159e-05,0
75.839,-2.266e-05,0
75.84,3.6927e-06,0
75.84,3.7263e-05,0
75.841,7.6371e-05,0
75.841,9.9031e-05,0
75.842,9.752e-05,0
75.842,8.3757e-05,0
75.843,7.1e-05,0
75.844,6.9657e-05,0
75.844,6.8818e-05,0
75.845,5.6901e-05,0
75.845,4.1123e-05,0
75.846,2.8031e-05,0
75.846,4.5319e-06,0
75.847,-1.9638e-05,0
75.847,-5.539e-06,0
75.848,3.7095e-05,0
75.848,5.623e-05,0
75.849,4.8173e-05,0
75.849,3.592e-05,0
75.85,3.0381e-05,0
75.85,3.6759e-05,0
75.851,3.978e-05,0
75.851,2.6688e-05,0
75.852,9.5674e-06,0
75.852,-1.5106e-05,0
75.853,-3.0381e-05,0
75.853,-1.4435e-05,0
75.854,2.1653e-05,0
75.854,4.8508e-05,0
75.855,5.069e-05,0
75.855,3.508e-05,0
75.856,1.9974e-05,0
75.856,2.3331e-05,0
75.857,4.6159e-05,0
75.858,6.9657e-05,0
75.858,7.8721e-05,0
75.859,7.8889e-05,0
75.859,7.8386e-05,0
75.86,7.7714e-05,0
75.86,8.3757e-05,0
75.861,9.3156e-05,0
75.861,9.2149e-05,0
75.862,7.6707e-05,0
75.862,5.5558e-05,0
75.863,3.9445e-05,0
75.863,3.2059e-05,0
75.864,2.1653e-05,0
75.864,-4.6998e-06,0
75.865,-4.2298e-05,0
75.865,-6.6972e-05,0
75.866,-6.009e-05,0
75.866,-2.7863e-05,0
75.867,-1.8463e-06,0
75.867,4.5319e-06,0
75.868,1.2421e-05,0
75.868,2.8367e-05,0
75.869,3.743e-05,0
75.869,3.4073e-05,0
75.87,3.0884e-05,0
75.871,3.4073e-05,0
75.871,3.5584e-05,0
75.872,2.8031e-05,0
75.872,2.3499e-05,0
75.873,3.4745e-05,0
75.873,5.8747e-05,0
75.874,7.9728e-05,0
75.874,8.4764e-05,0
75.875,7.7211e-05,0
75.875,6.0258e-05,0
75.876,3.7095e-05,0
75.876,1.2253e-05,0
75.877,-1.4939e-05,0
75.877,-4.3473e-05,0
75.878,-6.5629e-05,0
75.878,-8.7449e-05,0
75.879,-0.00011464,0
75.879,-0.00013982,0
75.88,-0.00015694,0
75.88,-0.00015761,0
75.881,-0.00013143,0
75.881,-8.2582e-05,0
75.882,-3.6088e-05,0
75.882,-1.1917e-05,0
75.883,-9.0639e-06,0
75.883,-1.7624e-05,0
75.884,-2.0981e-05,0
75.885,-9.5674e-06,0
75.885,8.2246e-06,0
75.886,1.7624e-05,0
75.886,2.0478e-05,0
75.887,2.6856e-05,0
75.887,4.2802e-05,0
75.888,6.3615e-05,0
75.888,8.4428e-05,0
75.889,9.9199e-05,0
75.889,9.2988e-05,0
75.89,5.3544e-05,0
75.89,1.4267e-05,0
75.891,1.3596e-05,0
75.891,3.5416e-05,0
75.892,4.1123e-05,0
75.892,2.5345e-05,0
75.893,5.2033e-06,0
75.893,-5.0355e-07,0
75.894,1.4603e-05,0
75.894,3.5752e-05,0
75.895,4.8341e-05,0
75.895,5.4887e-05,0
75.896,5.8915e-05,0
75.896,5.8244e-05,0
75.897,6.3279e-05,0
75.898,7.8721e-05,0
75.898,9.0639e-05,0
75.899,9.2317e-05,0
75.899,8.7449e-05,0
75.9,7.8386e-05,0
75.9,6.3951e-05,0
75.901,5.4047e-05,0
75.901,4.9683e-05,0
75.902,4.213e-05,0
75.902,3.4745e-05,0
75.903,2.3331e-05,0
75.903,-6.2104e-06,0
75.904,-3.2563e-05,0
75.904,-4.5655e-05,0
75.905,-4.5319e-05,0
75.905,-1.2253e-05,0
75.906,4.1794e-05,0
75.906,6.8315e-05,0
75.907,5.7237e-05,0
75.907,3.1052e-05,0
75.908,9.7353e-06,0
75.908,5.0355e-06,0
75.909,-1.0071e-06,0
75.909,-2.4002e-05,0
75.91,-3.0716e-05,0
75.91,-1.8463e-06,0
75.911,2.9877e-05,0
75.912,4.3641e-05,0
75.912,4.8676e-05,0
75.913,5.0187e-05,0
75.913,4.918e-05,0
75.914,4.9851e-05,0
75.914,5.2705e-05,0
75.915,5.4215e-05,0
75.915,6.2104e-05,0
75.916,7.4357e-05,0
75.916,7.6539e-05,0
75.917,5.8747e-05,0
75.917,2.7359e-05,0
75.918,1.1246e-05,0
75.918,1.7288e-05,0
75.919,1.8296e-05,0
75.919,7.5532e-06,0
75.92,8.5603e-06,0
75.92,1.9974e-05,0
75.921,2.1653e-05,0
75.921,1.4267e-05,0
75.922,1.0575e-05,0
75.922,1.5274e-05,0
75.923,1.9638e-05,0
75.923,1.5274e-05,0
75.924,2.182e-06,0
75.925,-1.4939e-05,0
75.925,-3.1388e-05,0
75.926,-2.9877e-05,0
75.926,-7.8889e-06,0
75.927,2.9374e-05,0
75.927,7.0832e-05,0
75.928,0.00010843,0
75.928,0.0001415,0
75.929,0.0001697,0
75.929,0.0001843,0
75.93,0.00017893,0
75.93,0.00016147,0
75.931,0.00013613,0
75.931,9.7185e-05,0
75.932,5.3208e-05,0
75.932,1.5778e-05,0
75.933,-3.6423e-05,0
75.933,-0.00011347,0
75.934,-0.00018178,0
75.934,-0.00021904,0
75.935,-0.00022626,0
75.935,-0.00020226,0
75.936,-0.00014485,0
75.936,-8.3421e-05,0
75.937,-5.4047e-05,0
75.938,-5.8915e-05,0
75.938,-6.9993e-05,0
75.939,-7.2679e-05,0
75.939,-7.335e-05,0
75.94,-7.9057e-05,0
75.94,-8.5435e-05,0
75.941,-8.2918e-05,0
75.941,-7.1e-05,0
75.942,-5.5222e-05,0
75.942,-3.743e-05,0
75.943,-2.1988e-05,0
75.943,-9.2317e-06,0
75.944,5.8747e-06,0
75.944,2.6688e-05,0
75.945,4.4816e-05,0
75.945,5.6901e-05,0
75.946,7.4861e-05,0
75.946,0.00010558,0
75.947,0.00013109,0
75.947,0.00013931,0
75.948,0.00013864,0
75.948,0.000142,0
75.949,0.00014536,0
75.949,0.00013848,0
75.95,0.00011917,0
75.95,8.0735e-05,0
75.951,2.031e-05,0
75.952,-3.4241e-05,0
75.952,-4.5151e-05,0
75.953,-1.2924e-05,0
75.953,1.7456e-05,0
75.954,1.5946e-05,0
75.954,4.1962e-06,0
75.955,1.0575e-05,0
75.955,2.9374e-05,0
75.956,3.8437e-05,0
75.956,3.1388e-05,0
75.957,1.7624e-05,0
75.957,1.1749e-05,0
75.958,1.0575e-05,0
75.958,2.031e-05,0
75.959,5.153e-05,0
75.959,8.7785e-05,0
75.96,0.00010323,0
75.96,9.8695e-05,0
75.961,8.6275e-05,0
75.961,6.949e-05,0
75.962,4.7837e-05,0
75.962,2.9709e-05,0
75.963,3.1388e-05,0
75.963,5.5558e-05,0
75.964,8.4428e-05,0
75.965,0.00010037,0
75.965,9.5842e-05,0
75.966,8.3421e-05,0
75.966,7.5029e-05,0
75.967,5.7572e-05,0
75.967,1.9806e-05,0
75.968,-3.4409e-05,0
75.968,-8.7953e-05,0
75.969,-9.601e-05,0
75.969,-5.388e-05,0
75.97,-1.3596e-05,0
75.97,7.0497e-06,0
75.971,2.7863e-05,0
75.971,5.3208e-05,0
75.972,6.7643e-05,0
75.972,6.5293e-05,0
75.973,4.9516e-05,0
75.973,3.0716e-05,0
75.974,1.8463e-05,0
75.974,9.3996e-06,0
75.975,-5.8747e-06,0
75.975,-3.1388e-05,0
75.976,-6.0761e-05,0
75.976,-7.2007e-05,0
75.977,-5.8076e-05,0
75.977,-3.6927e-05,0
75.978,-2.0981e-05,0
75.979,-6.0426e-06,0
75.979,4.1962e-06,0
75.98,-4.8676e-06,0
75.98,-2.1653e-05,0
75.981,-6.2104e-06,0
75.981,3.6088e-05,0
75.982,5.7069e-05,0
75.982,4.4144e-05,0
75.983,2.9709e-05,0
75.983,3.6759e-05,0
75.984,4.9851e-05,0
75.984,4.8508e-05,0
75.985,4.8173e-05,0
75.985,6.714e-05,0
75.986,8.3757e-05,0
75.986,8.0735e-05,0
75.987,6.865e-05,0
75.987,5.9419e-05,0
75.988,5.2537e-05,0
75.988,4.7501e-05,0
75.989,5.304e-05,0
75.989,7.1e-05,0
75.99,8.7449e-05,0
75.99,9.1478e-05,0
75.991,8.5603e-05,0
75.992,7.2511e-05,0
75.992,5.3544e-05,0
75.993,3.9445e-05,0
75.993,2.9541e-05,0
75.994,1.326e-05,0
75.994,0,0
75.995,-2.3499e-06,0
75.995,-8.7282e-06,0
75.996,-2.4338e-05,0
75.996,-2.8702e-05,0
75.997,-1.2924e-05,0
75.997,3.1891e-06,0
75.998,5.8747e-06,0
75.998,-1.326e-05,0
75.999,-5.2537e-05,0
75.999,-8.0064e-05,0
76,-7.1336e-05,0
76,-4.6159e-05,0
76.001,-3.5584e-05,0
76.001,-3.6591e-05,0
76.002,-4.4648e-05,0
76.002,-5.6733e-05,0
76.003,-4.9516e-05,0
76.003,-1.326e-05,0
76.004,2.1988e-05,0
76.004,2.8367e-05,0
76.005,1.0407e-05,0
76.006,-1.1749e-05,0
76.006,-1.4099e-05,0
76.007,1.8296e-05,0
76.007,6.4286e-05,0
76.008,9.0471e-05,0
76.008,9.0974e-05,0
76.009,8.1407e-05,0
76.009,7.8218e-05,0
76.01,8.0735e-05,0
76.01,7.8386e-05,0
76.011,6.244e-05,0
76.011,3.8773e-05,0
76.012,1.561e-05,0
76.012,1.5106e-06,0
76.013,1.5946e-05,0
76.013,4.7501e-05,0
76.014,6.8147e-05,0
76.014,7.0665e-05,0
76.015,7.805e-05,0
76.015,9.8863e-05,0
76.016,0.00011431,0
76.016,0.00011162,0
76.017,9.9535e-05,0
76.017,8.8121e-05,0
76.018,7.5868e-05,0
76.019,6.0929e-05,0
76.019,4.2802e-05,0
76.02,1.8296e-05,0
76.02,-2.8031e-05,0
76.021,-8.9128e-05,0
76.021,-0.00012505,0
76.022,-0.00012236,0
76.022,-0.00010222,0
76.023,-6.3951e-05,0
76.023,-5.8747e-06,0
76.024,3.6088e-05,0
76.024,4.4816e-05,0
76.025,4.1291e-05,0
76.025,3.2395e-05,0
76.026,-3.6927e-06,0
76.026,-4.0452e-05,0
76.027,-4.9851e-05,0
76.027,-8.661e-05,0
76.028,-0.00015157,0
76.028,-0.00017523,0
76.029,-0.00015325,0
76.029,-0.0001237,0
76.03,-9.6178e-05,0
76.03,-6.0426e-05,0
76.031,-2.4338e-05,0
76.031,-1.091e-05,0
76.032,-1.0239e-05,0
76.033,5.0355e-07,0
76.033,2.1988e-05,0
76.034,4.5319e-05,0
76.034,6.2943e-05,0
76.035,6.6133e-05,0
76.035,6.0594e-05,0
76.036,5.8915e-05,0
76.036,6.2943e-05,0
76.037,6.5629e-05,0
76.037,6.1265e-05,0
76.038,5.4383e-05,0
76.038,5.2201e-05,0
76.039,6.1265e-05,0
76.039,8.896e-05,0
76.04,0.00012001,0
76.04,0.00012857,0
76.041,0.00010457,0
76.041,7.1e-05,0
76.042,6.2272e-05,0
76.042,8.2582e-05,0
76.043,9.6513e-05,0
76.043,7.4357e-05,0
76.044,3.8605e-05,0
76.044,2.2324e-05,0
76.045,3.0045e-05,0
76.046,5.0858e-05,0
76.046,6.865e-05,0
76.047,5.388e-05,0
76.047,9.9031e-06,0
76.048,-2.6017e-05,0
76.048,-2.0645e-05,0
76.049,1.9974e-05,0
76.049,4.683e-05,0
76.05,3.9445e-05,0
76.05,1.7121e-05,0
76.051,5.0355e-07,0
76.051,-8.2246e-06,0
76.052,-9.7353e-06,0
76.052,-3.0213e-06,0
76.053,1.2924e-05,0
76.053,3.3402e-05,0
76.054,5.4215e-05,0
76.054,7.0329e-05,0
76.055,7.5364e-05,0
76.055,6.479e-05,0
76.056,4.5487e-05,0
76.056,3.4745e-05,0
76.057,3.3234e-05,0
76.057,3.1724e-05,0
76.058,2.6352e-05,0
76.058,1.7624e-05,0
76.059,6.5461e-06,0
76.06,-1.6785e-06,0
76.06,-5.0355e-06,0
76.061,-1.1749e-06,0
76.061,9.2317e-06,0
76.062,1.7121e-05,0
76.062,2.1317e-05,0
76.063,2.5345e-05,0
76.063,2.6352e-05,0
76.064,2.0813e-05,0
76.064,1.3931e-05,0
76.065,1.0575e-05,0
76.065,9.5674e-06,0
76.066,1.6281e-05,0
76.066,3.4577e-05,0
76.067,5.6901e-05,0
76.067,7.1336e-05,0
76.068,7.2343e-05,0
76.068,6.5293e-05,0
76.069,6.2272e-05,0
76.069,6.8147e-05,0
76.07,7.4693e-05,0
76.07,6.7811e-05,0
76.071,4.0452e-05,0
76.071,1.8463e-06,0
76.072,-2.8702e-05,0
76.073,-3.8102e-05,0
76.073,-2.8534e-05,0
76.074,-1.1749e-05,0
76.074,-6.0426e-06,0
76.075,-1.6281e-05,0
76.075,-2.7695e-05,0
76.076,-3.3738e-05,0
76.076,-3.7766e-05,0
76.077,-3.1388e-05,0
76.077,-1.6281e-05,0
76.078,-6.8818e-06,0
76.078,-8.2246e-06,0
76.079,-1.5778e-05,0
76.079,-1.9638e-05,0
76.08,-1.3596e-05,0
76.08,-5.2033e-06,0
76.081,-1.0071e-06,0
76.081,4.5319e-06,0
76.082,1.3764e-05,0
76.082,2.2324e-05,0
76.083,2.9709e-05,0
76.083,3.6088e-05,0
76.084,4.7333e-05,0
76.084,6.2608e-05,0
76.085,7.4022e-05,0
76.085,7.8386e-05,0
76.086,7.805e-05,0
76.087,7.8386e-05,0
76.087,8.51e-05,0
76.088,0.00010222,0
76.088,0.00011968,0
76.089,0.00012992,0
76.089,0.00013411,0
76.09,0.00013042,0
76.09,0.00011498,0
76.091,9.5842e-05,0
76.091,7.4357e-05,0
76.092,4.9516e-05,0
76.092,2.6688e-05,0
76.093,4.6998e-06,0
76.093,-2.1653e-05,0
76.094,-5.5894e-05,0
76.094,-0.00010642,0
76.095,-0.00016667,0
76.095,-0.00020092,0
76.096,-0.0001989,0
76.096,-0.00018077,0
76.097,-0.00016097,0
76.097,-0.0001415,0
76.098,-0.00012136,0
76.098,-9.8863e-05,0
76.099,-6.1601e-05,0
76.1,-1.2589e-05,0
76.1,2.7359e-05,0
76.101,4.3473e-05,0
76.101,4.4816e-05,0
76.102,3.357e-05,0
76.102,4.5319e-06,0
76.103,-1.561e-05,0
76.103,2.8534e-06,0
76.104,5.1194e-05,0
76.104,8.6778e-05,0
76.105,8.51e-05,0
76.105,6.8986e-05,0
76.106,6.7811e-05,0
76.106,8.8792e-05,0
76.107,0.00011531,0
76.107,0.0001274,0
76.108,0.00012605,0
76.108,0.00012035,0
76.109,0.00010692,0
76.109,8.2582e-05,0
76.11,6.0929e-05,0
76.11,4.4816e-05,0
76.111,1.9303e-05,0
76.111,-4.1962e-06,0
76.112,-1.3764e-05,0
76.112,-2.5177e-06,0
76.113,1.6281e-05,0
76.114,2.1988e-05,0
76.114,1.5946e-05,0
76.115,1.3092e-05,0
76.115,2.031e-05,0
76.116,3.2731e-05,0
76.116,5.0858e-05,0
76.117,6.7308e-05,0
76.117,6.7643e-05,0
76.118,4.7333e-05,0
76.118,1.796e-05,0
76.119,-1.0239e-05,0
76.119,-2.031e-05,0
76.12,3.357e-07,0
76.12,2.8702e-05,0
76.121,4.7501e-05,0
76.121,5.7069e-05,0
76.122,4.5151e-05,0
76.122,1.4603e-05,0
76.123,-1.8463e-06,0
76.123,-4.1962e-06,0
76.124,-1.8296e-05,0
76.124,-3.8773e-05,0
76.125,-3.6423e-05,0
76.125,-7.7211e-06,0
76.126,2.266e-05,0
76.126,4.0116e-05,0
76.127,4.8173e-05,0
76.128,5.4887e-05,0
76.128,6.4286e-05,0
76.129,7.1672e-05,0
76.129,7.0665e-05,0
76.13,6.5965e-05,0
76.13,6.0426e-05,0
76.131,5.0019e-05,0
76.131,3.9109e-05,0
76.132,2.9374e-05,0
76.132,1.9638e-05,0
76.133,1.091e-05,0
76.133,9.2317e-06,0
76.134,1.9303e-05,0
76.134,2.2324e-05,0
76.135,2.182e-06,0
76.135,-1.5946e-05,0
76.136,-4.8676e-06,0
76.136,1.6953e-05,0
76.137,2.1653e-05,0
76.137,1.1246e-05,0
76.138,-5.8747e-06,0
76.138,-2.3331e-05,0
76.139,-3.1052e-05,0
76.139,-1.9638e-05,0
76.14,-1.0071e-06,0
76.141,8.0568e-06,0
76.141,3.5248e-06,0
76.142,1.6785e-07,0
76.142,1.0239e-05,0
76.143,2.9709e-05,0
76.143,4.7837e-05,0
76.144,5.6733e-05,0
76.144,5.5558e-05,0
76.145,5.0858e-05,0
76.145,4.448e-05,0
76.146,3.1891e-05,0
76.146,1.7288e-05,0
76.147,9.5674e-06,0
76.147,7.8889e-06,0
76.148,1.1749e-06,0
76.148,-1.4099e-05,0
76.149,-2.6017e-05,0
76.149,-2.5681e-05,0
76.15,-1.796e-05,0
76.15,-1.796e-05,0
76.151,-2.5849e-05,0
76.151,-3.3738e-05,0
76.152,-2.6352e-05,0
76.152,2.0142e-06,0
76.153,3.0381e-05,0
76.153,4.7501e-05,0
76.154,5.8244e-05,0
76.155,6.8986e-05,0
76.155,7.5532e-05,0
76.156,7.2007e-05,0
76.156,5.5894e-05,0
76.157,4.0116e-05,0
76.157,2.8031e-05,0
76.158,1.7624e-05,0
76.158,8.896e-06,0
76.159,-1.8463e-06,0
76.159,-1.1414e-05,0
76.16,-1.9303e-05,0
76.16,-3.3738e-05,0
76.161,-4.2634e-05,0
76.161,-2.8199e-05,0
76.162,-8.5603e-06,0
76.162,-1.1582e-05,0
76.163,-2.501e-05,0
76.163,-3.0213e-05,0
76.164,-3.5416e-05,0
76.164,-4.062e-05,0
76.165,-2.9038e-05,0
76.165,-4.1962e-06,0
76.166,1.4603e-05,0
76.166,2.1149e-05,0
76.167,2.7863e-05,0
76.168,3.978e-05,0
76.168,5.2873e-05,0
76.169,8.04e-05,0
76.169,0.00012169,0
76.17,0.00015341,0
76.17,0.00015174,0
76.171,0.0001274,0
76.171,0.00010574,0
76.172,8.5771e-05,0
76.172,6.0761e-05,0
76.173,3.4745e-05,0
76.173,1.6785e-05,0
76.174,8.5603e-06,0
76.174,7.5532e-06,0
76.175,7.8889e-06,0
76.175,1.326e-05,0
76.176,3.6423e-05,0
76.176,6.479e-05,0
76.177,7.5364e-05,0
76.177,7.5029e-05,0
76.178,7.7043e-05,0
76.178,6.3279e-05,0
76.179,2.9206e-05,0
76.179,9.9031e-06,0
76.18,1.9471e-05,0
76.18,4.1459e-05,0
76.181,4.9012e-05,0
76.182,2.5849e-05,0
76.182,-1.6617e-05,0
76.183,-6.8147e-05,0
76.183,-0.00011934,0
76.184,-0.00014636,0
76.184,-0.00013512,0
76.185,-8.7785e-05,0
76.185,-3.0045e-05,0
76.186,8.7282e-06,0
76.186,2.4002e-05,0
76.187,2.8367e-05,0
76.187,2.6688e-05,0
76.188,2.266e-05,0
76.188,2.2995e-05,0
76.189,3.2395e-05,0
76.189,5.6733e-05,0
76.19,9.0471e-05,0
76.19,0.00011128,0
76.191,0.00010961,0
76.191,9.3828e-05,0
76.192,6.9154e-05,0
76.192,3.2731e-05,0
76.193,-4.8676e-06,0
76.193,-2.3667e-05,0
76.194,-1.8463e-05,0
76.195,5.0355e-07,0
76.195,1.9974e-05,0
76.196,3.4073e-05,0
76.196,4.062e-05,0
76.197,3.4409e-05,0
76.197,2.4674e-05,0
76.198,1.2924e-05,0
76.198,-5.539e-06,0
76.199,-1.5778e-05,0
76.199,-1.4939e-05,0
76.2,-1.4603e-05,0
76.2,-2.031e-05,0
76.201,-2.6352e-05,0
76.201,-2.2324e-05,0
76.202,-6.2104e-06,0
76.202,9.0639e-06,0
76.203,1.561e-05,0
76.203,1.7792e-05,0
76.204,1.8631e-05,0
76.204,2.0645e-05,0
76.205,2.5345e-05,0
76.205,2.9709e-05,0
76.206,3.2731e-05,0
76.206,3.6088e-05,0
76.207,4.1459e-05,0
76.207,4.9851e-05,0
76.208,5.9922e-05,0
76.209,7.3686e-05,0
76.209,9.4835e-05,0
76.21,0.00011565,0
76.21,0.00013243,0
76.211,0.00014284,0
76.211,0.00014553,0
76.212,0.00014116,0
76.212,0.00013411,0
76.213,0.00012538,0
76.213,0.00011666,0
76.214,0.00010675,0
76.214,8.4428e-05,0
76.215,4.5487e-05,0
76.215,5.0355e-07,0
76.216,-4.7333e-05,0
76.216,-9.6345e-05,0
76.217,-0.0001368,0
76.217,-0.00016013,0
76.218,-0.00015425,0
76.218,-0.0001279,0
76.219,-0.00010558,0
76.219,-9.5506e-05,0
76.22,-9.2485e-05,0
76.22,-9.0303e-05,0
76.221,-8.6275e-05,0
76.222,-8.1743e-05,0
76.222,-7.2511e-05,0
76.223,-6.0594e-05,0
76.223,-5.0523e-05,0
76.224,-3.7095e-05,0
76.224,-2.4338e-05,0
76.225,-1.3764e-05,0
76.225,2.182e-06,0
76.226,2.3331e-05,0
76.226,4.0116e-05,0
76.227,5.1865e-05,0
76.227,6.4286e-05,0
76.228,8.275e-05,0
76.228,0.00010692,0
76.229,0.0001331,0
76.229,0.00014888,0
76.23,0.0001509,0
76.23,0.00014553,0
76.231,0.00013075,0
76.231,0.00010793,0
76.232,8.04e-05,0
76.232,5.7572e-05,0
76.233,5.0858e-05,0
76.233,6.0594e-05,0
76.234,7.4693e-05,0
76.234,7.6036e-05,0
76.235,5.5558e-05,0
76.236,2.4674e-05,0
76.236,-3.0213e-06,0
76.237,-1.2757e-05,0
76.237,2.8534e-06,0
76.238,3.0213e-05,0
76.238,4.1459e-05,0
76.239,3.0549e-05,0
76.239,2.1317e-05,0
76.24,2.1988e-05,0
76.24,1.6449e-05,0
76.241,1.1246e-05,0
76.241,1.7121e-05,0
76.242,1.2421e-05,0
76.242,-1.7288e-05,0
76.243,-5.6565e-05,0
76.243,-8.0064e-05,0
76.244,-7.8386e-05,0
76.244,-6.3783e-05,0
76.245,-5.6397e-05,0
76.245,-6.5461e-05,0
76.246,-8.2078e-05,0
76.246,-8.4092e-05,0
76.247,-6.4286e-05,0
76.247,-3.743e-05,0
76.248,-1.2421e-05,0
76.249,1.2924e-05,0
76.249,2.1149e-05,0
76.25,7.8889e-06,0
76.25,-6.8818e-06,0
76.251,-9.2317e-06,0
76.251,3.8605e-06,0
76.252,3.6423e-05,0
76.252,8.4428e-05,0
76.253,0.00012522,0
76.253,0.00014099,0
76.254,0.00013243,0
76.254,0.00011179,0
76.255,9.8192e-05,0
76.255,9.7185e-05,0
76.256,9.4163e-05,0
76.256,7.0832e-05,0
76.257,2.9038e-05,0
76.257,-5.2033e-06,0
76.258,-5.0355e-07,0
76.258,2.8534e-05,0
76.259,4.4144e-05,0
76.259,3.8605e-05,0
76.26,3.592e-05,0
76.26,5.0019e-05,0
76.261,5.7572e-05,0
76.261,4.9516e-05,0
76.262,3.2059e-05,0
76.263,2.8534e-06,0
76.263,-2.4338e-05,0
76.264,-2.887e-05,0
76.264,-1.9135e-05,0
76.265,-2.0813e-05,0
76.265,-3.7766e-05,0
76.266,-4.6326e-05,0
76.266,-2.7192e-05,0
76.267,1.3596e-05,0
76.267,4.8173e-05,0
76.268,6.0929e-05,0
76.268,5.1194e-05,0
76.269,2.8702e-05,0
76.269,1.1246e-05,0
76.27,1.1414e-05,0
76.27,2.0981e-05,0
76.271,2.7695e-05,0
76.271,2.0813e-05,0
76.272,7.2175e-06,0
76.272,6.8818e-06,0
76.273,2.6352e-05,0
76.273,6.2272e-05,0
76.274,8.9799e-05,0
76.274,7.0665e-05,0
76.275,1.1917e-05,0
76.276,-3.2395e-05,0
76.276,-2.7024e-05,0
76.277,2.2324e-05,0
76.277,7.8721e-05,0
76.278,9.8527e-05,0
76.278,8.0064e-05,0
76.279,6.009e-05,0
76.279,5.8579e-05,0
76.28,6.0426e-05,0
76.28,4.6662e-05,0
76.281,1.9806e-05,0
76.281,-1.2253e-05,0
76.282,-4.213e-05,0
76.282,-5.9922e-05,0
76.283,-6.1601e-05,0
76.283,-6.0761e-05,0
76.284,-6.7308e-05,0
76.284,-6.2776e-05,0
76.285,-4.0116e-05,0
76.285,-1.9135e-05,0
76.286,-5.8747e-06,0
76.286,9.2317e-06,0
76.287,3.2059e-05,0
76.287,5.3208e-05,0
76.288,5.6733e-05,0
76.288,4.8005e-05,0
76.289,5.0019e-05,0
76.29,7.1e-05,0
76.29,9.9535e-05,0
76.291,0.00011615,0
76.291,0.00011179,0
76.292,9.1478e-05,0
76.292,6.8315e-05,0
76.293,4.4816e-05,0
76.293,1.9974e-05,0
76.294,-1.0239e-05,0
76.294,-4.3137e-05,0
76.295,-4.8173e-05,0
76.295,-2.8367e-05,0
76.296,-7.2175e-06,0
76.296,1.1917e-05,0
76.297,2.7359e-05,0
76.297,3.1724e-05,0
76.298,2.9541e-05,0
76.298,2.4002e-05,0
76.299,1.6617e-05,0
76.299,1.1582e-05,0
76.3,2.5177e-06,0
76.3,-3.3066e-05,0
76.301,-9.1142e-05,0
76.301,-0.00012773,0
76.302,-0.00011867,0
76.303,-8.8121e-05,0
76.303,-6.5461e-05,0
76.304,-5.2201e-05,0
76.304,-3.4073e-05,0
76.305,-7.7211e-06,0
76.305,1.6281e-05,0
76.306,2.8367e-05,0
76.306,3.7934e-05,0
76.307,5.8579e-05,0
76.307,8.3085e-05,0
76.308,9.7017e-05,0
76.308,0.00010289,0
76.309,0.00010726,0
76.309,0.00010172,0
76.31,8.7282e-05,0
76.31,8.2078e-05,0
76.311,8.3757e-05,0
76.311,7.8721e-05,0
76.312,6.4958e-05,0
76.312,5.1698e-05,0
76.313,4.3809e-05,0
76.313,3.4745e-05,0
76.314,1.796e-05,0
76.314,-2.5177e-06,0
76.315,-1.6449e-05,0
76.316,-1.4771e-05,0
76.316,-3.6927e-06,0
76.317,-3.357e-07,0
76.317,-1.1078e-05,0
76.318,-2.3667e-05,0
76.318,-2.7359e-05,0
76.319,-2.6352e-05,0
76.319,-2.2324e-05,0
76.32,-5.2033e-06,0
76.32,2.7359e-05,0
76.321,6.7979e-05,0
76.321,0.00010625,0
76.322,0.00012605,0
76.322,0.00011582,0
76.323,8.7449e-05,0
76.323,6.0258e-05,0
76.324,4.062e-05,0
76.324,3.5248e-05,0
76.325,4.2634e-05,0
76.325,4.7501e-05,0
76.326,3.6255e-05,0
76.326,2.2995e-05,0
76.327,2.7695e-05,0
76.327,4.7501e-05,0
76.328,6.7308e-05,0
76.328,7.2679e-05,0
76.329,6.6636e-05,0
76.33,5.5222e-05,0
76.33,4.6159e-05,0
76.331,5.2201e-05,0
76.331,6.6972e-05,0
76.332,7.4525e-05,0
76.332,6.1936e-05,0
76.333,2.4842e-05,0
76.333,-2.3163e-05,0
76.334,-5.0187e-05,0
76.334,-4.5487e-05,0
76.335,-2.7192e-05,0
76.335,-2.3331e-05,0
76.336,-3.5752e-05,0
76.336,-3.5416e-05,0
76.337,-1.9303e-05,0
76.337,-4.5319e-06,0
76.338,1.2589e-05,0
76.338,3.4745e-05,0
76.339,5.0858e-05,0
76.339,4.8844e-05,0
76.34,2.4338e-05,0
76.34,-5.2033e-06,0
76.341,-2.7695e-05,0
76.341,-3.8437e-05,0
76.342,-2.652e-05,0
76.343,3.1891e-06,0
76.343,1.796e-05,0
76.344,-3.0213e-06,0
76.344,-3.0716e-05,0
76.345,-3.0716e-05,0
76.345,-6.2104e-06,0
76.346,2.9374e-05,0
76.346,6.4286e-05,0
76.347,8.51e-05,0
76.347,8.3925e-05,0
76.348,7.1504e-05,0
76.348,6.0258e-05,0
76.349,5.7237e-05,0
76.349,6.4958e-05,0
76.35,7.3518e-05,0
76.35,6.9154e-05,0
76.351,4.6159e-05,0
76.351,4.6998e-06,0
76.352,-3.978e-05,0
76.352,-6.5965e-05,0
76.353,-8.1239e-05,0
76.353,-0.00010893,0
76.354,-0.00013948,0
76.354,-0.00014502,0
76.355,-0.00012035,0
76.355,-8.3085e-05,0
76.356,-4.5823e-05,0
76.357,-1.3428e-05,0
76.357,8.896e-06,0
76.358,2.4338e-05,0
76.358,4.213e-05,0
76.359,6.1265e-05,0
76.359,7.2175e-05,0
76.36,7.4357e-05,0
76.36,6.8315e-05,0
76.361,5.3544e-05,0
76.361,3.3738e-05,0
76.362,1.796e-05,0
76.362,5.8747e-06,0
76.363,6.714e-07,0
76.363,1.6785e-06,0
76.364,5.2033e-06,0
76.364,1.5274e-05,0
76.365,2.4002e-05,0
76.365,1.8631e-05,0
76.366,2.5177e-06,0
76.366,-8.5603e-06,0
76.367,-8.5603e-06,0
76.367,5.8747e-06,0
76.368,2.9038e-05,0
76.368,4.5823e-05,0
76.369,5.153e-05,0
76.37,4.8508e-05,0
76.37,4.448e-05,0
76.371,4.3473e-05,0
76.371,4.448e-05,0
76.372,4.7837e-05,0
76.372,5.388e-05,0
76.373,5.8915e-05,0
76.373,5.6901e-05,0
76.374,4.3641e-05,0
76.374,3.6255e-05,0
76.375,4.7837e-05,0
76.375,6.2608e-05,0
76.376,6.9657e-05,0
76.376,7.4693e-05,0
76.377,7.5029e-05,0
76.377,6.7643e-05,0
76.378,6.4622e-05,0
76.378,6.7308e-05,0
76.379,5.7572e-05,0
76.379,3.2059e-05,0
76.38,6.5461e-06,0
76.38,-4.6998e-06,0
76.381,-2.8534e-06,0
76.381,5.8747e-06,0
76.382,1.3764e-05,0
76.382,1.561e-05,0
76.383,9.2317e-06,0
76.384,4.0284e-06,0
76.384,1.8463e-06,0
76.385,-9.9031e-06,0
76.385,-2.031e-05,0
76.386,-1.1749e-05,0
76.386,0,0
76.387,-5.0355e-07,0
76.387,-8.2246e-06,0
76.388,-1.2757e-05,0
76.388,-1.5946e-05,0
76.389,-1.5946e-05,0
76.389,-1.2253e-05,0
76.39,-1.1078e-05,0
76.39,-1.8631e-05,0
76.391,-2.1988e-05,0
76.391,-6.3783e-06,0
76.392,2.0813e-05,0
76.392,3.7766e-05,0
76.393,3.2395e-05,0
76.393,2.3835e-05,0
76.394,2.4002e-05,0
76.394,3.1388e-05,0
76.395,5.1865e-05,0
76.395,8.2078e-05,0
76.396,0.00010088,0
76.397,9.9031e-05,0
76.397,8.5771e-05,0
76.398,7.2175e-05,0
76.398,5.7908e-05,0
76.399,4.9348e-05,0
76.399,5.2537e-05,0
76.4,6.0929e-05,0
76.4,6.8315e-05,0
76.401,6.1265e-05,0
76.401,3.743e-05,0
76.402,1.7288e-05,0
76.402,1.3596e-05,0
76.403,2.5177e-05,0
76.403,4.448e-05,0
76.404,6.0258e-05,0
76.404,6.6972e-05,0
76.405,6.6972e-05,0
76.405,6.4286e-05,0
76.406,5.8579e-05,0
76.406,4.0452e-05,0
76.407,1.6617e-05,0
76.407,2.182e-06,0
76.408,-6.2104e-06,0
76.408,-2.1653e-05,0
76.409,-3.6591e-05,0
76.409,-2.6352e-05,0
76.41,1.0071e-06,0
76.411,1.4603e-05,0
76.411,1.1414e-05,0
76.412,-2.182e-06,0
76.412,-3.6423e-05,0
76.413,-7.0832e-05,0
76.413,-7.1672e-05,0
76.414,-5.8076e-05,0
76.414,-5.388e-05,0
76.415,-3.9445e-05,0
76.415,-1.5442e-05,0
76.416,-1.5106e-06,0
76.416,1.1749e-06,0
76.417,-3.5248e-06,0
76.417,-9.2317e-06,0
76.418,-9.3996e-06,0
76.418,6.3783e-06,0
76.419,2.9709e-05,0
76.419,3.6088e-05,0
76.42,2.7359e-05,0
76.42,2.2156e-05,0
76.421,2.0645e-05,0
76.421,1.3764e-05,0
76.422,-1.1078e-05,0
76.422,-4.8173e-05,0
76.423,-5.5222e-05,0
76.424,-1.0407e-05,0
76.424,5.0355e-05,0
76.425,8.2582e-05,0
76.425,7.7379e-05,0
76.426,5.9586e-05,0
76.426,5.539e-05,0
76.427,6.2272e-05,0
76.427,6.5293e-05,0
76.428,5.8244e-05,0
76.428,4.4816e-05,0
76.429,3.5416e-05,0
76.429,3.6423e-05,0
76.43,4.4984e-05,0
76.43,4.6998e-05,0
76.431,4.3809e-05,0
76.431,4.5823e-05,0
76.432,5.153e-05,0
76.432,5.4551e-05,0
76.433,5.3544e-05,0
76.433,4.7166e-05,0
76.434,4.1291e-05,0
76.434,4.1123e-05,0
76.435,3.8102e-05,0
76.435,2.9206e-05,0
76.436,2.7192e-05,0
76.436,3.0045e-05,0
76.437,2.501e-05,0
76.438,1.7121e-05,0
76.438,1.6617e-05,0
76.439,2.501e-05,0
76.439,3.8773e-05,0
76.44,4.683e-05,0
76.44,4.2466e-05,0
76.441,2.9709e-05,0
76.441,1.5274e-05,0
76.442,1.0071e-06,0
76.442,-1.0239e-05,0
76.443,-1.7624e-05,0
76.443,-2.7024e-05,0
76.444,-4.1291e-05,0
76.444,-4.8508e-05,0
76.445,-3.9445e-05,0
76.445,-2.031e-05,0
76.446,5.3712e-06,0
76.446,3.7095e-05,0
76.447,5.4215e-05,0
76.447,3.7095e-05,0
76.448,4.1962e-06,0
76.448,-1.4267e-05,0
76.449,-7.0497e-06,0
76.449,1.4603e-05,0
76.45,3.1388e-05,0
76.451,3.6088e-05,0
76.451,3.7766e-05,0
76.452,4.3473e-05,0
76.452,4.9348e-05,0
76.453,4.8005e-05,0
76.453,4.213e-05,0
76.454,2.7527e-05,0
76.454,3.1891e-06,0
76.455,-1.4939e-05,0
76.455,-2.2324e-05,0
76.456,-3.6759e-05,0
76.456,-6.7643e-05,0
76.457,-8.3757e-05,0
76.457,-6.3279e-05,0
76.458,-3.6591e-05,0
76.458,-1.5778e-05,0
76.459,9.3996e-06,0
76.459,2.7695e-05,0
76.46,2.1149e-05,0
76.46,2.5177e-06,0
76.461,-1.1749e-06,0
76.461,1.4603e-05,0
76.462,3.743e-05,0
76.462,5.4215e-05,0
76.463,6.1936e-05,0
76.463,6.8315e-05,0
76.464,8.2078e-05,0
76.465,9.7017e-05,0
76.465,9.8527e-05,0
76.466,8.4428e-05,0
76.466,6.9322e-05,0
76.467,6.0761e-05,0
76.467,5.7237e-05,0
76.468,5.2873e-05,0
76.468,3.8102e-05,0
76.469,1.5274e-05,0
76.469,-5.2033e-06,0
76.47,-1.4267e-05,0
76.47,1.0071e-06,0
76.471,4.0452e-05,0
76.471,7.2007e-05,0
76.472,6.9322e-05,0
76.472,4.683e-05,0
76.473,3.2395e-05,0
76.473,1.9303e-05,0
76.474,3.8605e-06,0
76.474,-3.1891e-06,0
76.475,-7.8889e-06,0
76.475,-1.9974e-05,0
76.476,-4.3137e-05,0
76.476,-6.4622e-05,0
76.477,-5.4383e-05,0
76.478,-1.561e-05,0
76.478,2.3667e-05,0
76.479,5.2201e-05,0
76.479,6.865e-05,0
76.48,6.9993e-05,0
76.48,6.2943e-05,0
76.481,5.9419e-05,0
76.481,5.9754e-05,0
76.482,5.7237e-05,0
76.482,5.153e-05,0
76.483,3.6591e-05,0
76.483,2.4674e-05,0
76.484,3.5248e-05,0
76.484,5.4719e-05,0
76.485,5.6901e-05,0
76.485,3.3738e-05,0
76.486,1.5106e-06,0
76.486,-1.7288e-05,0
76.487,-1.1246e-05,0
76.487,1.1582e-05,0
76.488,3.1891e-05,0
76.488,3.8437e-05,0
76.489,3.3402e-05,0
76.489,2.182e-05,0
76.49,1.5106e-06,0
76.49,-1.4603e-05,0
76.491,-4.8676e-06,0
76.492,1.9303e-05,0
76.492,2.9206e-05,0
76.493,1.4939e-05,0
76.493,-5.7069e-06,0
76.494,-9.2317e-06,0
76.494,1.1749e-06,0
76.495,6.3783e-06,0
76.495,8.7282e-06,0
76.496,1.4099e-05,0
76.496,1.6617e-05,0
76.497,2.4506e-05,0
76.497,4.3809e-05,0
76.498,6.1601e-05,0
76.498,6.8986e-05,0
76.499,6.9657e-05,0
76.499,6.8315e-05,0
76.5,6.3951e-05,0
76.5,5.9586e-05,0
76.501,5.7908e-05,0
76.501,5.1865e-05,0
76.502,3.1388e-05,0
76.502,-6.714e-07,0
76.503,-2.6184e-05,0
76.503,-3.8102e-05,0
76.504,-4.2466e-05,0
76.504,-4.4312e-05,0
76.505,-4.0787e-05,0
76.506,-2.9038e-05,0
76.506,-1.1917e-05,0
76.507,4.8676e-06,0
76.507,1.9135e-05,0
76.508,2.8702e-05,0
76.508,2.9374e-05,0
76.509,2.4338e-05,0
76.509,2.4506e-05,0
76.51,2.3163e-05,0
76.51,1.4603e-05,0
76.511,5.8747e-06,0
76.511,7.2175e-06,0
76.512,2.1317e-05,0
76.512,3.6088e-05,0
76.513,3.8605e-05,0
76.513,3.1052e-05,0
76.514,2.417e-05,0
76.514,1.8631e-05,0
76.515,8.2246e-06,0
76.515,-6.8818e-06,0
76.516,-1.8967e-05,0
76.516,-2.4002e-05,0
76.517,-3.1891e-05,0
76.517,-4.7166e-05,0
76.518,-5.3208e-05,0
76.519,-3.8102e-05,0
76.519,-1.6449e-05,0
76.52,-1.5106e-06,0
76.52,3.5248e-06,0
76.521,6.2104e-06,0
76.521,1.0575e-05,0
76.522,1.4603e-05,0
76.522,1.6449e-05,0
76.523,2.2156e-05,0
76.523,2.9206e-05,0
76.524,2.4338e-05,0
76.524,1.4435e-05,0
76.525,1.4435e-05,0
76.525,2.4338e-05,0
76.526,3.3906e-05,0
76.526,3.5416e-05,0
76.527,3.3234e-05,0
76.527,3.1388e-05,0
76.528,3.4409e-05,0
76.528,4.9683e-05,0
76.529,6.714e-05,0
76.529,7.9728e-05,0
76.53,9.1646e-05,0
76.53,9.836e-05,0
76.531,8.8457e-05,0
76.531,6.9657e-05,0
76.532,5.539e-05,0
76.533,4.2466e-05,0
76.533,1.3931e-05,0
76.534,-2.0645e-05,0
76.534,-2.8702e-05,0
76.535,5.0355e-07,0
76.535,3.7095e-05,0
76.536,5.153e-05,0
76.536,4.7669e-05,0
76.537,4.1459e-05,0
76.537,3.6759e-05,0
76.538,3.2059e-05,0
76.538,2.6017e-05,0
76.539,1.0239e-05,0
76.539,-1.2757e-05,0
76.54,-2.3835e-05,0
76.54,-9.7353e-06,0
76.541,9.9031e-06,0
76.541,1.1917e-05,0
76.542,4.5319e-06,0
76.542,7.5532e-06,0
76.543,2.5177e-05,0
76.543,4.213e-05,0
76.544,4.8508e-05,0
76.544,5.4215e-05,0
76.545,6.8986e-05,0
76.546,8.8624e-05,0
76.546,9.752e-05,0
76.547,9.2149e-05,0
76.547,7.5029e-05,0
76.548,4.7837e-05,0
76.548,1.9974e-05,0
76.549,3.1891e-06,0
76.549,-1.6785e-07,0
76.55,1.3596e-05,0
76.55,2.1317e-05,0
76.551,5.2033e-06,0
76.551,-1.0575e-05,0
76.552,-9.0639e-06,0
76.552,-6.2104e-06,0
76.553,-8.2246e-06,0
76.553,-1.0407e-05,0
76.554,-1.2085e-05,0
76.554,-1.2253e-05,0
76.555,-1.7288e-05,0
76.555,-3.1388e-05,0
76.556,-3.1724e-05,0
76.556,-5.3712e-06,0
76.557,2.5345e-05,0
76.557,4.3977e-05,0
76.558,5.539e-05,0
76.558,6.5629e-05,0
76.559,6.5461e-05,0
76.56,5.0523e-05,0
76.56,2.9374e-05,0
76.561,6.2104e-06,0
76.561,-6.3783e-06,0
76.562,4.8676e-06,0
76.562,2.4002e-05,0
76.563,2.9709e-05,0
76.563,2.4674e-05,0
76.564,8.5603e-06,0
76.564,-1.3092e-05,0
76.565,-2.031e-05,0
76.565,-1.8631e-05,0
76.566,-1.2924e-05,0
76.566,5.2033e-06,0
76.567,2.7527e-05,0
76.567,3.2059e-05,0
76.568,1.5946e-05,0
76.568,-3.1891e-06,0
76.569,-1.5778e-05,0
76.569,-2.1653e-05,0
76.57,-1.5106e-05,0
76.57,3.0213e-06,0
76.571,2.0645e-05,0
76.571,3.1052e-05,0
76.572,3.8102e-05,0
76.573,4.6662e-05,0
76.573,5.7404e-05,0
76.574,6.1433e-05,0
76.574,5.3544e-05,0
76.575,4.683e-05,0
76.575,4.6494e-05,0
76.576,4.5487e-05,0
76.576,3.2731e-05,0
76.577,3.8605e-06,0
76.577,-1.9303e-05,0
76.578,-5.7069e-06,0
76.578,3.3402e-05,0
76.579,5.9754e-05,0
76.579,6.1601e-05,0
76.58,5.0523e-05,0
76.58,4.0787e-05,0
76.581,4.1291e-05,0
76.581,4.4144e-05,0
76.582,3.3234e-05,0
76.582,4.5319e-06,0
76.583,-2.9038e-05,0
76.583,-5.7237e-05,0
76.584,-7.8721e-05,0
76.584,-9.0639e-05,0
76.585,-8.3589e-05,0
76.585,-5.7908e-05,0
76.586,-2.8199e-05,0
76.587,-1.2589e-05,0
76.587,-6.5461e-06,0
76.588,9.9031e-06,0
76.588,3.743e-05,0
76.589,6.1265e-05,0
76.589,7.4861e-05,0
76.59,8.0232e-05,0
76.59,7.7546e-05,0
76.591,6.9657e-05,0
76.591,6.1601e-05,0
76.592,5.623e-05,0
76.592,4.8508e-05,0
76.593,3.3234e-05,0
76.593,1.4603e-05,0
76.594,2.5177e-06,0
76.594,-3.357e-06,0
76.595,-5.539e-06,0
76.595,3.8605e-06,0
76.596,1.6617e-05,0
76.596,1.9303e-05,0
76.597,2.1317e-05,0
76.597,3.3402e-05,0
76.598,4.5151e-05,0
76.598,4.4816e-05,0
76.599,3.2059e-05,0
76.6,1.9135e-05,0
76.6,1.1582e-05,0
76.601,1.4603e-05,0
76.601,2.2492e-05,0
76.602,2.4002e-05,0
76.602,2.5345e-05,0
76.603,4.0116e-05,0
76.603,6.4958e-05,0
76.604,8.5771e-05,0
76.604,0.00010289,0
76.605,0.00011984,0
76.605,0.00012085,0
76.606,9.6849e-05,0
76.606,6.6972e-05,0
76.607,5.2537e-05,0
76.607,5.8915e-05,0
76.608,6.949e-05,0
76.608,5.4887e-05,0
76.609,8.896e-06,0
76.609,-5.2537e-05,0
76.61,-8.3589e-05,0
76.61,-5.4383e-05,0
76.611,6.714e-07,0
76.611,2.9038e-05,0
76.612,2.7359e-05,0
76.612,2.6688e-05,0
76.613,2.9374e-05,0
76.614,1.9303e-05,0
76.614,1.8463e-06,0
76.615,-1.091e-05,0
76.615,-2.7024e-05,0
76.616,-5.1194e-05,0
76.616,-5.388e-05,0
76.617,-2.2324e-05,0
76.617,7.8889e-06,0
76.618,1.0071e-05,0
76.618,1.3428e-06,0
76.619,7.7211e-06,0
76.619,2.2324e-05,0
76.62,3.3738e-05,0
76.62,4.4816e-05,0
76.621,5.539e-05,0
76.621,5.2537e-05,0
76.622,2.1988e-05,0
76.622,-2.2324e-05,0
76.623,-4.3809e-05,0
76.623,-2.7024e-05,0
76.624,-1.1749e-06,0
76.624,6.5461e-06,0
76.625,4.1962e-06,0
76.625,1.3931e-05,0
76.626,3.3066e-05,0
76.627,4.2802e-05,0
76.627,4.2298e-05,0
76.628,4.1962e-05,0
76.628,4.918e-05,0
76.629,6.0594e-05,0
76.629,7.2343e-05,0
76.63,8.1575e-05,0
76.63,8.2918e-05,0
76.631,7.6371e-05,0
76.631,7.0161e-05,0
76.632,7.7379e-05,0
76.632,9.0471e-05,0
76.633,9.3156e-05,0
76.633,8.5267e-05,0
76.634,6.8315e-05,0
76.634,4.2298e-05,0
76.635,7.8889e-06,0
76.635,-2.9877e-05,0
76.636,-5.7237e-05,0
76.636,-5.7237e-05,0
76.637,-4.3137e-05,0
76.637,-4.6662e-05,0
76.638,-7.2679e-05,0
76.638,-9.3324e-05,0
76.639,-8.6946e-05,0
76.639,-6.5965e-05,0
76.64,-5.5894e-05,0
76.641,-5.9754e-05,0
76.641,-6.4118e-05,0
76.642,-6.9154e-05,0
76.642,-8.0735e-05,0
76.643,-8.3085e-05,0
76.643,-7.0329e-05,0
76.644,-4.683e-05,0
76.644,-1.9303e-05,0
76.645,1.5106e-06,0
76.645,1.9974e-05,0
76.646,4.9516e-05,0
76.646,8.2078e-05,0
76.647,9.7017e-05,0
76.647,9.9199e-05,0
76.648,0.00010121,0
76.648,0.00010222,0
76.649,9.8527e-05,0
76.649,8.9632e-05,0
76.65,7.2007e-05,0
76.65,5.4551e-05,0
76.651,5.2033e-05,0
76.651,6.1936e-05,0
76.652,6.4622e-05,0
76.652,4.448e-05,0
76.653,1.9806e-05,0
76.654,1.4939e-05,0
76.654,1.9135e-05,0
76.655,8.2246e-06,0
76.655,-1.6953e-05,0
76.656,-3.2731e-05,0
76.656,-2.266e-05,0
76.657,7.3854e-06,0
76.657,3.3906e-05,0
76.658,3.7766e-05,0
76.658,2.8702e-05,0
76.659,2.9374e-05,0
76.659,4.1123e-05,0
76.66,4.6998e-05,0
76.66,4.1459e-05,0
76.661,2.7695e-05,0
76.661,1.5778e-05,0
76.662,2.0981e-05,0
76.662,3.9445e-05,0
76.663,5.1194e-05,0
76.663,4.2466e-05,0
76.664,1.9303e-05,0
76.664,8.3925e-07,0
76.665,1.3428e-06,0
76.665,1.796e-05,0
76.666,4.1123e-05,0
76.666,6.0258e-05,0
76.667,6.2776e-05,0
76.668,5.4887e-05,0
76.668,4.7669e-05,0
76.669,2.1988e-05,0
76.669,-1.7792e-05,0
76.67,-2.6352e-05,0
76.67,1.5778e-05,0
76.671,6.7979e-05,0
76.671,8.5771e-05,0
76.672,6.63e-05,0
76.672,2.7024e-05,0
76.673,-1.5442e-05,0
76.673,-4.3305e-05,0
76.674,-4.5991e-05,0
76.674,-3.5752e-05,0
76.675,-2.182e-05,0
76.675,-3.357e-06,0
76.676,1.5946e-05,0
76.676,2.7359e-05,0
76.677,3.0213e-05,0
76.677,3.0045e-05,0
76.678,3.3402e-05,0
76.678,3.9109e-05,0
76.679,4.2466e-05,0
76.679,3.8102e-05,0
76.68,2.9374e-05,0
76.681,2.8534e-05,0
76.681,3.7766e-05,0
76.682,4.6662e-05,0
76.682,4.8005e-05,0
76.683,4.8173e-05,0
76.683,5.4719e-05,0
76.684,6.2776e-05,0
76.684,6.5629e-05,0
76.685,6.0426e-05,0
76.685,5.153e-05,0
76.686,4.448e-05,0
76.686,4.0787e-05,0
76.687,3.8102e-05,0
76.687,3.2731e-05,0
76.688,1.9303e-05,0
76.688,6.2104e-06,0
76.689,1.1078e-05,0
76.689,3.6759e-05,0
76.69,6.1601e-05,0
76.69,7.2007e-05,0
76.691,7.1839e-05,0
76.691,6.949e-05,0
76.692,6.5797e-05,0
76.692,6.0258e-05,0
76.693,5.6565e-05,0
76.694,5.2369e-05,0
76.694,3.592e-05,0
76.695,1.0575e-05,0
76.695,-3.8605e-06,0
76.696,5.0355e-07,0
76.696,9.2317e-06,0
76.697,3.0213e-06,0
76.697,-1.8296e-05,0
76.698,-4.8173e-05,0
76.698,-7.335e-05,0
76.699,-8.2078e-05,0
76.699,-7.5196e-05,0
76.7,-6.1097e-05,0
76.7,-4.2634e-05,0
76.701,-1.2924e-05,0
76.701,2.0142e-05,0
76.702,3.3402e-05,0
76.702,2.2324e-05,0
76.703,3.8605e-06,0
76.703,-5.2033e-06,0
76.704,-5.7069e-06,0
76.704,-8.2246e-06,0
76.705,-1.8967e-05,0
76.705,-3.978e-05,0
76.706,-7.2175e-05,0
76.706,-9.9031e-05,0
76.707,-9.4499e-05,0
76.708,-6.5126e-05,0
76.708,-3.6423e-05,0
76.709,-1.8631e-05,0
76.709,-6.2104e-06,0
76.71,4.1962e-06,0
76.71,1.4939e-05,0
76.711,3.2059e-05,0
76.711,5.0355e-05,0
76.712,5.7908e-05,0
76.712,5.9251e-05,0
76.713,5.9586e-05,0
76.713,5.3208e-05,0
76.714,5.0858e-05,0
76.714,6.4286e-05,0
76.715,8.2078e-05,0
76.715,8.4932e-05,0
76.716,6.865e-05,0
76.716,4.2802e-05,0
76.717,2.0813e-05,0
76.717,7.5532e-06,0
76.718,-1.1749e-06,0
76.718,-8.2246e-06,0
76.719,-1.4267e-05,0
76.719,-1.4267e-05,0
76.72,-9.2317e-06,0
76.721,8.2246e-06,0
76.721,4.1627e-05,0
76.722,6.6972e-05,0
76.722,5.8076e-05,0
76.723,3.2731e-05,0
76.723,2.2995e-05,0
76.724,1.6785e-05,0
76.724,2.182e-06,0
76.725,6.3783e-06,0
76.725,4.1459e-05,0
76.726,8.04e-05,0
76.726,8.275e-05,0
76.727,5.0187e-05,0
76.727,1.9638e-05,0
76.728,1.4939e-05,0
76.728,3.508e-05,0
76.729,5.9251e-05,0
76.729,6.9657e-05,0
76.73,6.1097e-05,0
76.73,3.743e-05,0
76.731,1.1917e-05,0
76.731,1.1749e-06,0
76.732,6.2104e-06,0
76.732,1.6617e-05,0
76.733,2.7359e-05,0
76.733,3.2731e-05,0
76.734,3.1724e-05,0
76.735,2.182e-05,0
76.735,8.5603e-06,0
76.736,2.182e-06,0
76.736,3.0213e-06,0
76.737,5.0355e-06,0
76.737,-3.357e-07,0
76.738,-6.8818e-06,0
76.738,-1.8463e-06,0
76.739,1.6617e-05,0
76.739,3.3066e-05,0
76.74,3.743e-05,0
76.74,3.6088e-05,0
76.741,4.4144e-05,0
76.741,6.6804e-05,0
76.742,8.8121e-05,0
76.742,9.1142e-05,0
76.743,8.5603e-05,0
76.743,8.3085e-05,0
76.744,7.3686e-05,0
76.744,4.6326e-05,0
76.745,1.5946e-05,0
76.745,-1.0071e-06,0
76.746,-2.8534e-06,0
76.746,2.8534e-06,0
76.747,5.7069e-06,0
76.748,7.5532e-06,0
76.748,1.3596e-05,0
76.749,2.1317e-05,0
76.749,1.7288e-05,0
76.75,3.6927e-06,0
76.75,5.2033e-06,0
76.751,2.5849e-05,0
76.751,4.6494e-05,0
76.752,5.7237e-05,0
76.752,5.8579e-05,0
76.753,5.0019e-05,0
76.753,3.7095e-05,0
76.754,3.3738e-05,0
76.754,4.2802e-05,0
76.755,5.4383e-05,0
76.755,5.7908e-05,0
76.756,4.8173e-05,0
76.756,3.1556e-05,0
76.757,1.561e-05,0
76.757,6.3783e-06,0
76.758,5.2033e-06,0
76.758,6.714e-06,0
76.759,3.5248e-06,0
76.759,-7.8889e-06,0
76.76,-2.652e-05,0
76.76,-4.5487e-05,0
76.761,-5.7237e-05,0
76.762,-6.0929e-05,0
76.762,-5.9922e-05,0
76.763,-5.2537e-05,0
76.763,-4.0116e-05,0
76.764,-2.4338e-05,0
76.764,-6.0426e-06,0
76.765,9.5674e-06,0
76.765,1.7121e-05,0
76.766,2.0478e-05,0
76.766,2.5513e-05,0
76.767,2.8702e-05,0
76.767,2.501e-05,0
76.768,1.6953e-05,0
76.768,6.5461e-06,0
76.769,0,0
76.769,1.6785e-06,0
76.77,1.1246e-05,0
76.77,1.4603e-05,0
76.771,7.8889e-06,0
76.771,-3.0213e-06,0
76.772,-1.0742e-05,0
76.772,-5.539e-06,0
76.773,1.1246e-05,0
76.773,2.6688e-05,0
76.774,3.3738e-05,0
76.775,3.978e-05,0
76.775,4.7501e-05,0
76.776,5.6565e-05,0
76.776,6.5965e-05,0
76.777,7.3518e-05,0
76.777,7.9728e-05,0
76.778,8.2414e-05,0
76.778,7.7714e-05,0
76.779,6.8818e-05,0
76.779,6.6972e-05,0
76.78,7.1336e-05,0
76.78,7.2343e-05,0
76.781,6.0761e-05,0
76.781,3.8102e-05,0
76.782,1.4603e-05,0
76.782,2.182e-06,0
76.783,4.8676e-06,0
76.783,1.0742e-05,0
76.784,5.2033e-06,0
76.784,-1.2924e-05,0
76.785,-2.7695e-05,0
76.785,-3.3066e-05,0
76.786,-3.4409e-05,0
76.786,-2.7359e-05,0
76.787,-1.5106e-05,0
76.787,-2.5177e-06,0
76.788,1.0575e-05,0
76.789,1.6281e-05,0
76.789,1.3092e-05,0
76.79,1.1414e-05,0
76.79,1.7288e-05,0
76.791,2.8031e-05,0
76.791,3.6088e-05,0
76.792,4.2466e-05,0
76.792,4.7166e-05,0
76.793,4.213e-05,0
76.793,2.266e-05,0
76.794,-3.1891e-06,0
76.794,-1.7288e-05,0
76.795,-2.4002e-05,0
76.795,-3.2898e-05,0
76.796,-4.0787e-05,0
76.796,-5.069e-05,0
76.797,-5.623e-05,0
76.797,-3.2059e-05,0
76.798,1.4939e-05,0
76.798,3.978e-05,0
76.799,3.6759e-05,0
76.799,3.1388e-05,0
76.8,3.6927e-05,0
76.8,4.5823e-05,0
76.801,4.9851e-05,0
76.802,4.0787e-05,0
76.802,1.326e-05,0
76.803,-1.8799e-05,0
76.803,-3.2563e-05,0
76.804,-2.1149e-05,0
76.804,1.0575e-05,0
76.805,4.4144e-05,0
76.805,5.8915e-05,0
76.806,5.5222e-05,0
76.806,4.6159e-05,0
76.807,2.7192e-05,0
76.807,9.9031e-06,0
76.808,1.6449e-05,0
76.808,3.0884e-05,0
76.809,3.6759e-05,0
76.809,4.3809e-05,0
76.81,5.7237e-05,0
76.81,6.4286e-05,0
76.811,5.8244e-05,0
76.811,3.8773e-05,0
76.812,1.3931e-05,0
76.812,4.5319e-06,0
76.813,1.9638e-05,0
76.813,4.0787e-05,0
76.814,4.7166e-05,0
76.814,4.213e-05,0
76.815,3.6591e-05,0
76.816,3.7095e-05,0
76.816,5.4887e-05,0
76.817,8.4764e-05,0
76.817,0.0001034,0
76.818,9.7688e-05,0
76.818,8.1407e-05,0
76.819,7.335e-05,0
76.819,6.8818e-05,0
76.82,5.4215e-05,0
76.82,3.4073e-05,0
76.821,2.0645e-05,0
76.821,1.1246e-05,0
76.822,5.0355e-06,0
76.822,3.5248e-06,0
76.823,-4.8676e-06,0
76.823,-2.7024e-05,0
76.824,-4.1794e-05,0
76.824,-3.1388e-05,0
76.825,-9.5674e-06,0
76.825,9.7353e-06,0
76.826,1.4267e-05,0
76.826,4.0284e-06,0
76.827,-4.6998e-06,0
76.827,1.5106e-06,0
76.828,1.0575e-05,0
76.829,6.2104e-06,0
76.829,-7.5532e-06,0
76.83,-2.501e-05,0
76.83,-4.3809e-05,0
76.831,-5.0523e-05,0
76.831,-3.3906e-05,0
76.832,-9.2317e-06,0
76.832,-2.0142e-06,0
76.833,-1.5106e-06,0
76.833,2.3499e-05,0
76.834,6.3615e-05,0
76.834,8.4764e-05,0
76.835,7.3182e-05,0
76.835,3.978e-05,0
76.836,1.1078e-05,0
76.836,1.1246e-05,0
76.837,2.7359e-05,0
76.837,3.0549e-05,0
76.838,2.6352e-05,0
76.838,3.8102e-05,0
76.839,6.1601e-05,0
76.839,7.3518e-05,0
76.84,6.865e-05,0
76.84,5.8412e-05,0
76.841,5.6901e-05,0
76.841,6.479e-05,0
76.842,7.5029e-05,0
76.843,7.6875e-05,0
76.843,5.6565e-05,0
76.844,1.8296e-05,0
76.844,-1.561e-05,0
76.845,-2.8702e-05,0
76.845,-2.8702e-05,0
76.846,-2.6184e-05,0
76.846,-1.9974e-05,0
76.847,-8.7282e-06,0
76.847,1.8463e-06,0
76.848,5.7069e-06,0
76.848,3.0213e-06,0
76.849,-1.5106e-06,0
76.849,-1.1749e-06,0
76.85,-1.0071e-06,0
76.85,-1.1749e-06,0
76.851,1.0407e-05,0
76.851,2.9877e-05,0
76.852,4.3137e-05,0
76.852,4.1459e-05,0
76.853,2.7863e-05,0
76.853,1.7288e-05,0
76.854,1.2757e-05,0
76.854,1.1749e-06,0
76.855,-1.3596e-05,0
76.856,-1.3092e-05,0
76.856,-5.539e-06,0
76.857,-3.1891e-06,0
76.857,-3.8605e-06,0
76.858,-7.8889e-06,0
76.858,-1.7792e-05,0
76.859,-2.3667e-05,0
76.859,-2.1653e-05,0
76.86,-2.0645e-05,0
76.86,-2.0981e-05,0
76.861,-1.5106e-05,0
76.861,-8.7282e-06,0
76.862,-9.3996e-06,0
76.862,-5.2033e-06,0
76.863,3.5248e-06,0
76.863,1.326e-05,0
76.864,1.796e-05,0
76.864,1.1246e-05,0
76.865,4.3641e-06,0
76.865,1.1917e-05,0
76.866,3.4073e-05,0
76.866,4.9516e-05,0
76.867,4.683e-05,0
76.867,4.213e-05,0
76.868,5.3544e-05,0
76.868,7.6875e-05,0
76.869,9.836e-05,0
76.87,0.00010692,0
76.87,0.00010524,0
76.871,9.9199e-05,0
76.871,8.7114e-05,0
76.872,6.6636e-05,0
76.872,4.4144e-05,0
76.873,3.3738e-05,0
76.873,2.9709e-05,0
76.874,2.7695e-05,0
76.874,2.9374e-05,0
76.875,3.9948e-05,0
76.875,5.4383e-05,0
76.876,5.8915e-05,0
76.876,4.6494e-05,0
76.877,2.6017e-05,0
76.877,4.5319e-06,0
76.878,-9.2317e-06,0
76.878,-1.1246e-05,0
76.879,-7.2175e-06,0
76.879,-3.357e-06,0
76.88,2.5177e-06,0
76.88,1.7121e-05,0
76.881,3.4241e-05,0
76.881,4.3137e-05,0
76.882,4.3977e-05,0
76.882,4.1794e-05,0
76.883,4.0284e-05,0
76.884,3.8773e-05,0
76.884,4.1459e-05,0
76.885,5.2537e-05,0
76.885,6.7979e-05,0
76.886,7.7714e-05,0
76.886,6.4622e-05,0
76.887,4.0787e-05,0
76.887,3.7095e-05,0
76.888,5.4215e-05,0
76.888,6.6804e-05,0
76.889,6.0761e-05,0
76.889,4.213e-05,0
76.89,2.3835e-05,0
76.89,1.9638e-05,0
76.891,2.7863e-05,0
76.891,2.7024e-05,0
76.892,2.182e-06,0
76.892,-4.3305e-05,0
76.893,-9.2653e-05,0
76.893,-0.00012186,0
76.894,-0.00011649,0
76.894,-8.9464e-05,0
76.895,-7.4861e-05,0
76.895,-8.3085e-05,0
76.896,-0.00010071,0
76.897,-0.00011666,0
76.897,-0.00011968,0
76.898,-9.9031e-05,0
76.898,-6.4958e-05,0
76.899,-3.5248e-05,0
76.899,-1.2757e-05,0
76.9,1.0407e-05,0
76.9,3.3234e-05,0
76.901,5.2201e-05,0
76.901,7.0665e-05,0
76.902,9.1814e-05,0
76.902,0.00011095,0
76.903,0.00011498,0
76.903,9.7017e-05,0
76.904,6.6804e-05,0
76.904,4.5655e-05,0
76.905,4.0116e-05,0
76.905,4.2802e-05,0
76.906,3.8102e-05,0
76.906,2.501e-05,0
76.907,1.7624e-05,0
76.907,2.9038e-05,0
76.908,5.4719e-05,0
76.908,7.57e-05,0
76.909,8.0903e-05,0
76.909,7.3182e-05,0
76.91,5.6901e-05,0
76.911,4.3473e-05,0
76.911,2.7024e-05,0
76.912,-5.2033e-06,0
76.912,-2.6688e-05,0
76.913,-1.2589e-05,0
76.913,1.6617e-05,0
76.914,3.5416e-05,0
76.914,4.2802e-05,0
76.915,4.4648e-05,0
76.915,4.0787e-05,0
76.916,3.4409e-05,0
76.916,2.8702e-05,0
76.917,3.0045e-05,0
76.917,4.0787e-05,0
76.918,5.1865e-05,0
76.918,5.4215e-05,0
76.919,4.683e-05,0
76.919,3.9277e-05,0
76.92,4.2802e-05,0
76.92,5.0355e-05,0
76.921,5.2873e-05,0
76.921,4.6662e-05,0
76.922,3.3738e-05,0
76.922,2.3667e-05,0
76.923,2.3499e-05,0
76.924,3.0549e-05,0
76.924,2.9038e-05,0
76.925,1.0239e-05,0
76.925,-1.2589e-05,0
76.926,-2.2324e-05,0
76.926,-2.4002e-05,0
76.927,-2.182e-05,0
76.927,-1.1917e-05,0
76.928,-3.8605e-06,0
76.928,-1.2757e-05,0
76.929,-2.7359e-05,0
76.929,-2.2995e-05,0
76.93,-2.6856e-06,0
76.93,2.0981e-05,0
76.931,3.6088e-05,0
76.931,4.6998e-05,0
76.932,5.4383e-05,0
76.932,4.8508e-05,0
76.933,2.8702e-05,0
76.933,1.2253e-05,0
76.934,1.2421e-05,0
76.934,2.8367e-05,0
76.935,4.4312e-05,0
76.935,5.2201e-05,0
76.936,5.623e-05,0
76.936,5.7572e-05,0
76.937,4.8173e-05,0
76.938,3.6759e-05,0
76.938,3.7095e-05,0
76.939,4.1962e-05,0
76.939,2.9038e-05,0
76.94,2.0142e-06,0
76.94,-1.6281e-05,0
76.941,-2.2324e-05,0
76.941,-1.9303e-05,0
76.942,-1.2253e-05,0
76.942,-5.539e-06,0
76.943,-3.0213e-06,0
76.943,-8.3925e-07,0
76.944,4.5319e-06,0
76.944,8.2246e-06,0
76.945,-8.3925e-07,0
76.945,-2.0981e-05,0
76.946,-3.8437e-05,0
76.946,-3.8605e-05,0
76.947,-2.3499e-05,0
76.947,-7.8889e-06,0
76.948,1.6785e-07,0
76.948,3.1891e-06,0
76.949,2.5177e-06,0
76.949,0,0
76.95,5.8747e-06,0
76.951,1.8296e-05,0
76.951,2.266e-05,0
76.952,1.3931e-05,0
76.952,-1.5106e-06,0
76.953,-6.5461e-06,0
76.953,8.896e-06,0
76.954,3.1052e-05,0
76.954,4.5487e-05,0
76.955,5.2705e-05,0
76.955,5.8244e-05,0
76.956,6.5629e-05,0
76.956,7.335e-05,0
76.957,8.3757e-05,0
76.957,9.1981e-05,0
76.958,9.1814e-05,0
76.958,8.896e-05,0
76.959,9.1142e-05,0
76.959,8.9799e-05,0
76.96,7.7379e-05,0
76.96,6.6468e-05,0
76.961,6.5293e-05,0
76.961,6.2943e-05,0
76.962,5.3544e-05,0
76.962,4.5151e-05,0
76.963,3.508e-05,0
76.963,8.5603e-06,0
76.964,-2.3163e-05,0
76.965,-3.5584e-05,0
76.965,-3.7095e-05,0
76.966,-4.6662e-05,0
76.966,-5.0523e-05,0
76.967,-2.7192e-05,0
76.967,8.896e-06,0
76.968,1.9974e-05,0
76.968,6.2104e-06,0
76.969,-5.0355e-07,0
76.969,-3.357e-07,0
76.97,-5.7069e-06,0
76.97,-1.3764e-05,0
76.971,-1.796e-05,0
76.971,-2.0478e-05,0
76.972,-1.3596e-05,0
76.972,1.1078e-05,0
76.973,3.6927e-05,0
76.973,4.062e-05,0
76.974,1.9638e-05,0
76.974,3.8605e-06,0
76.975,2.0981e-05,0
76.975,6.1936e-05,0
76.976,9.3156e-05,0
76.976,0.00010256,0
76.977,0.00010423,0
76.978,0.00010726,0
76.978,0.00011699,0
76.979,0.00012538,0
76.979,0.00010188,0
76.98,4.918e-05,0
76.98,1.091e-05,0
76.981,1.0575e-05,0
76.981,1.7121e-05,0
76.982,1.1749e-06,0
76.982,-3.1724e-05,0
76.983,-6.5965e-05,0
76.983,-8.8792e-05,0
76.984,-8.9296e-05,0
76.984,-7.5364e-05,0
76.985,-5.2537e-05,0
76.985,-2.7863e-05,0
76.986,-1.8799e-05,0
76.986,-2.1149e-05,0
76.987,-1.9303e-05,0
76.987,-1.4435e-05,0
76.988,-1.3092e-05,0
76.988,-2.0645e-05,0
76.989,-3.0549e-05,0
76.989,-3.2059e-05,0
76.99,-2.3667e-05,0
76.99,-1.3596e-05,0
76.991,-6.8818e-06,0
76.992,-7.5532e-06,0
76.992,-1.1582e-05,0
76.993,-1.9974e-05,0
76.993,-2.0645e-05,0
76.994,1.1749e-06,0
76.994,3.0716e-05,0
76.995,4.8005e-05,0
76.995,5.0858e-05,0
76.996,4.4144e-05,0
76.996,3.9277e-05,0
76.997,4.2466e-05,0
76.997,4.7501e-05,0
76.998,4.7837e-05,0
76.998,4.3473e-05,0
76.999,4.1291e-05,0
76.999,4.7501e-05,0
77,6.0258e-05,0
77,6.8315e-05,0
77.001,7.0329e-05,0
77.001,7.1672e-05,0
77.002,7.0832e-05,0
77.002,6.8315e-05,0
77.003,7.3686e-05,0
77.003,8.5603e-05,0
77.004,8.8457e-05,0
77.005,7.6036e-05,0
77.005,5.7572e-05,0
77.006,4.5487e-05,0
77.006,4.5823e-05,0
77.007,4.8508e-05,0
77.007,3.0381e-05,0
77.008,-8.3925e-07,0
77.008,-9.7353e-06,0
77.009,2.5177e-06,0
77.009,1.2589e-05,0
77.01,6.3783e-06,0
77.01,-1.3596e-05,0
77.011,-2.8534e-05,0
77.011,-2.7024e-05,0
77.012,-1.6281e-05,0
77.012,-9.0639e-06,0
77.013,-1.6785e-07,0
77.013,1.6617e-05,0
77.014,3.1724e-05,0
77.014,4.0452e-05,0
77.015,4.7166e-05,0
77.015,5.3544e-05,0
77.016,5.1362e-05,0
77.016,4.3809e-05,0
77.017,3.508e-05,0
77.017,2.652e-05,0
77.018,2.1653e-05,0
77.019,2.3331e-05,0
77.019,2.2995e-05,0
77.02,1.561e-05,0
77.02,1.4771e-05,0
77.021,2.7359e-05,0
77.021,4.0955e-05,0
77.022,3.592e-05,0
77.022,1.326e-05,0
77.023,1.6785e-07,0
77.023,1.6449e-05,0
77.024,4.9012e-05,0
77.024,6.5965e-05,0
77.025,5.5894e-05,0
77.025,2.8702e-05,0
77.026,1.0071e-06,0
77.026,-2.4002e-05,0
77.027,-3.9277e-05,0
77.027,-3.827e-05,0
77.028,-2.5345e-05,0
77.028,-9.0639e-06,0
77.029,4.5319e-06,0
77.029,1.2253e-05,0
77.03,1.5946e-05,0
77.03,2.0645e-05,0
77.031,3.2731e-05,0
77.032,5.0858e-05,0
77.032,6.4286e-05,0
77.033,6.4958e-05,0
77.033,5.4047e-05,0
77.034,4.1123e-05,0
77.034,3.9277e-05,0
77.035,4.5991e-05,0
77.035,4.1459e-05,0
77.036,1.4939e-05,0
77.036,-2.1149e-05,0
77.037,-4.0116e-05,0
77.037,-2.5681e-05,0
77.038,1.1582e-05,0
77.038,4.6159e-05,0
77.039,6.0594e-05,0
77.039,6.3447e-05,0
77.04,6.3951e-05,0
77.04,5.8244e-05,0
77.041,3.8437e-05,0
77.041,1.1414e-05,0
77.042,-3.0213e-06,0
77.042,-3.357e-07,0
77.043,-1.6785e-07,0
77.043,-1.7624e-05,0
77.044,-3.3402e-05,0
77.044,-2.8534e-05,0
77.045,-5.3712e-06,0
77.046,2.0645e-05,0
77.046,3.2059e-05,0
77.047,2.6017e-05,0
77.047,1.5946e-05,0
77.048,1.1917e-05,0
77.048,8.3925e-06,0
77.049,-2.0142e-06,0
77.049,-9.9031e-06,0
77.05,-1.1749e-06,0
77.05,5.7069e-06,0
77.051,1.5106e-06,0
77.051,1.0407e-05,0
77.052,3.7934e-05,0
77.052,5.8915e-05,0
77.053,6.1433e-05,0
77.053,4.6159e-05,0
77.054,7.8889e-06,0
77.054,-5.2705e-05,0
77.055,-9.9702e-05,0
77.055,-8.9799e-05,0
77.056,-3.5584e-05,0
77.056,7.2175e-06,0
77.057,1.2589e-05,0
77.057,-7.0497e-06,0
77.058,-3.1052e-05,0
77.059,-4.4144e-05,0
77.059,-4.3137e-05,0
77.06,-2.9709e-05,0
77.06,-5.2033e-06,0
77.061,2.5681e-05,0
77.061,5.388e-05,0
77.062,7.2007e-05,0
77.062,8.3085e-05,0
77.063,9.5171e-05,0
77.063,0.00010541,0
77.064,0.00011044,0
77.064,0.00011095,0
77.065,0.00010726,0
77.065,9.8527e-05,0
77.066,8.661e-05,0
77.066,7.0329e-05,0
77.067,4.1459e-05,0
77.067,4.8676e-06,0
77.068,-2.1317e-05,0
77.068,-3.0045e-05,0
77.069,-2.887e-05,0
77.069,-1.9638e-05,0
77.07,-2.6856e-06,0
77.07,1.0407e-05,0
77.071,8.5603e-06,0
77.072,3.8605e-06,0
77.072,6.0426e-06,0
77.073,1.4939e-05,0
77.073,3.1388e-05,0
77.074,5.069e-05,0
77.074,6.5629e-05,0
77.075,7.1672e-05,0
77.075,6.9322e-05,0
77.076,5.1194e-05,0
77.076,2.8702e-05,0
77.077,2.7192e-05,0
77.077,4.7501e-05,0
77.078,6.9657e-05,0
77.078,7.6371e-05,0
77.079,6.5629e-05,0
77.079,4.4816e-05,0
77.08,3.2563e-05,0
77.08,3.0716e-05,0
77.081,3.0045e-05,0
77.081,3.1052e-05,0
77.082,2.5849e-05,0
77.082,1.4267e-05,0
77.083,5.0355e-06,0
77.083,8.3925e-07,0
77.084,6.714e-07,0
77.084,-1.5106e-06,0
77.085,-7.0497e-06,0
77.086,-5.8747e-06,0
77.086,6.3783e-06,0
77.087,2.1149e-05,0
77.087,2.9038e-05,0
77.088,3.2059e-05,0
77.088,3.6759e-05,0
77.089,4.4144e-05,0
77.089,3.743e-05,0
77.09,5.8747e-06,0
77.09,-3.508e-05,0
77.091,-5.9922e-05,0
77.091,-6.7643e-05,0
77.092,-6.9993e-05,0
77.092,-6.9322e-05,0
77.093,-6.7308e-05,0
77.093,-6.6804e-05,0
77.094,-5.9251e-05,0
77.094,-3.5248e-05,0
77.095,-1.326e-05,0
77.095,-1.2924e-05,0
77.096,-2.5681e-05,0
77.096,-3.2059e-05,0
77.097,-2.182e-05,0
77.097,2.8534e-06,0
77.098,2.7192e-05,0
77.099,4.3473e-05,0
77.099,5.539e-05,0
77.1,6.2272e-05,0
77.1,6.3951e-05,0
77.101,6.6972e-05,0
77.101,7.8386e-05,0
77.102,9.6345e-05,0
77.102,0.00010893,0
77.103,0.00010826,0
77.103,0.00010222,0
77.104,9.6849e-05,0
77.104,8.8457e-05,0
77.105,8.3925e-05,0
77.105,9.3828e-05,0
77.106,0.00010726,0
77.106,0.00010574,0
77.107,7.9728e-05,0
77.107,3.1388e-05,0
77.108,-9.2317e-06,0
77.108,-9.7353e-06,0
77.109,1.6785e-05,0
77.109,4.4816e-05,0
77.11,6.2776e-05,0
77.11,6.9322e-05,0
77.111,6.7979e-05,0
77.111,6.4958e-05,0
77.112,6.2272e-05,0
77.113,5.6733e-05,0
77.113,4.213e-05,0
77.114,4.5319e-06,0
77.114,-3.7934e-05,0
77.115,-4.3977e-05,0
77.115,-1.1917e-05,0
77.116,1.1582e-05,0
77.116,1.8463e-06,0
77.117,-2.2156e-05,0
77.117,-4.6494e-05,0
77.118,-7.805e-05,0
77.118,-0.00011229,0
77.119,-0.00013075,0
77.119,-0.00013277,0
77.12,-0.00012404,0
77.12,-0.00011263,0
77.121,-0.00011582,0
77.121,-0.00012505,0
77.122,-0.00011028,0
77.122,-6.7811e-05,0
77.123,-1.8967e-05,0
77.123,1.5946e-05,0
77.124,3.1724e-05,0
77.124,4.213e-05,0
77.125,5.3376e-05,0
77.126,5.9586e-05,0
77.126,5.8747e-05,0
77.127,5.9586e-05,0
77.127,6.3783e-05,0
77.128,6.1601e-05,0
77.128,5.1194e-05,0
77.129,4.6494e-05,0
77.129,5.7572e-05,0
77.13,7.1336e-05,0
77.13,7.5029e-05,0
77.131,6.7308e-05,0
77.131,6.0929e-05,0
77.132,6.1601e-05,0
77.132,6.2272e-05,0
77.133,6.2104e-05,0
77.133,6.2608e-05,0
77.134,6.6468e-05,0
77.134,7.3518e-05,0
77.135,7.9728e-05,0
77.135,8.0232e-05,0
77.136,7.1e-05,0
77.136,6.0761e-05,0
77.137,5.8244e-05,0
77.137,6.0258e-05,0
77.138,5.6397e-05,0
77.138,4.8173e-05,0
77.139,3.5416e-05,0
77.14,2.0645e-05,0
77.14,8.5603e-06,0
77.141,2.3499e-06,0
77.141,1.0575e-05,0
77.142,3.6088e-05,0
77.142,5.9922e-05,0
77.143,6.8147e-05,0
77.143,6.8315e-05,0
77.144,7.0329e-05,0
77.144,7.5364e-05,0
77.145,8.04e-05,0
77.145,7.2343e-05,0
77.146,4.3809e-05,0
77.146,6.2104e-06,0
77.147,-2.266e-05,0
77.147,-3.9109e-05,0
77.148,-4.5823e-05,0
77.148,-4.7166e-05,0
77.149,-5.5222e-05,0
77.149,-5.9922e-05,0
77.15,-4.3305e-05,0
77.15,-1.561e-05,0
77.151,4.5319e-06,0
77.151,1.4267e-05,0
77.152,1.5946e-05,0
77.153,1.0575e-05,0
77.153,5.2033e-06,0
77.154,8.0568e-06,0
77.154,2.0478e-05,0
77.155,3.2059e-05,0
77.155,3.743e-05,0
77.156,3.8437e-05,0
77.156,3.6423e-05,0
77.157,3.4745e-05,0
77.157,3.5584e-05,0
77.158,3.5416e-05,0
77.158,2.7695e-05,0
77.159,1.1582e-05,0
77.159,-1.3428e-06,0
77.16,1.1749e-06,0
77.16,1.4603e-05,0
77.161,2.5345e-05,0
77.161,3.1724e-05,0
77.162,3.743e-05,0
77.162,4.062e-05,0
77.163,3.3234e-05,0
77.163,2.6017e-05,0
77.164,3.1724e-05,0
77.164,4.1794e-05,0
77.165,4.7501e-05,0
77.165,4.0955e-05,0
77.166,2.8702e-05,0
77.167,2.6017e-05,0
77.167,3.3402e-05,0
77.168,3.6255e-05,0
77.168,2.3835e-05,0
77.169,8.0568e-06,0
77.169,-8.3925e-07,0
77.17,-5.8747e-06,0
77.17,-1.2085e-05,0
77.171,-2.5345e-05,0
77.171,-4.7166e-05,0
77.172,-6.2104e-05,0
77.172,-5.8412e-05,0
77.173,-4.3137e-05,0
77.173,-2.9038e-05,0
77.174,-1.9303e-05,0
77.174,-6.8818e-06,0
77.175,6.2104e-06,0
77.175,1.2589e-05,0
77.176,1.1582e-05,0
77.176,1.1582e-05,0
77.177,1.4267e-05,0
77.177,1.326e-05,0
77.178,1.2589e-05,0
77.178,2.2995e-05,0
77.179,4.4144e-05,0
77.18,6.3615e-05,0
77.18,7.2679e-05,0
77.181,7.7043e-05,0
77.181,8.5435e-05,0
77.182,9.8527e-05,0
77.182,0.00010927,0
77.183,0.00010188,0
77.183,8.2246e-05,0
77.184,7.4693e-05,0
77.184,8.3925e-05,0
77.185,8.7785e-05,0
77.185,7.2007e-05,0
77.186,4.683e-05,0
77.186,1.9974e-05,0
77.187,-8.3925e-06,0
77.187,-3.9948e-05,0
77.188,-6.7308e-05,0
77.188,-7.5196e-05,0
77.189,-4.8341e-05,0
77.189,4.3641e-06,0
77.19,4.2802e-05,0
77.19,4.5487e-05,0
77.191,2.3163e-05,0
77.191,-3.5248e-06,0
77.192,-2.9038e-05,0
77.192,-5.5894e-05,0
77.193,-8.2078e-05,0
77.194,-0.00011179,0
77.194,-0.00013176,0
77.195,-0.00012001,0
77.195,-7.6707e-05,0
77.196,-2.3835e-05,0
77.196,1.326e-05,0
77.197,2.4674e-05,0
77.197,2.1988e-05,0
77.198,2.5345e-05,0
77.198,3.5752e-05,0
77.199,4.2298e-05,0
77.199,4.2298e-05,0
77.2,4.2802e-05,0
77.2,4.7166e-05,0
77.201,4.8173e-05,0
77.201,3.5584e-05,0
77.202,1.9974e-05,0
77.202,1.2253e-05,0
77.203,8.3925e-07,0
77.203,-8.896e-06,0
77.204,-2.5177e-06,0
77.204,1.0575e-05,0
77.205,2.8031e-05,0
77.205,5.4215e-05,0
77.206,7.3686e-05,0
77.207,7.2343e-05,0
77.207,5.9586e-05,0
77.208,5.2201e-05,0
77.208,4.5991e-05,0
77.209,3.508e-05,0
77.209,2.887e-05,0
77.21,2.9541e-05,0
77.21,3.508e-05,0
77.211,4.2466e-05,0
77.211,4.9851e-05,0
77.212,5.9922e-05,0
77.212,7.335e-05,0
77.213,8.4428e-05,0
77.213,9.0471e-05,0
77.214,9.2485e-05,0
77.214,8.8792e-05,0
77.215,7.6036e-05,0
77.215,6.1601e-05,0
77.216,5.153e-05,0
77.216,4.3809e-05,0
77.217,3.5752e-05,0
77.217,3.0884e-05,0
77.218,3.1891e-05,0
77.218,2.8534e-05,0
77.219,1.7288e-05,0
77.219,4.6998e-06,0
77.22,-6.8818e-06,0
77.221,-9.5674e-06,0
77.221,-4.5319e-06,0
77.222,-9.0639e-06,0
77.222,-2.182e-05,0
77.223,-2.266e-05,0
77.223,-1.091e-05,0
77.224,-5.0355e-06,0
77.224,-8.7282e-06,0
77.225,-1.1078e-05,0
77.225,-6.0426e-06,0
77.226,9.9031e-06,0
77.226,2.9374e-05,0
77.227,4.213e-05,0
77.227,4.8844e-05,0
77.228,5.0187e-05,0
77.228,4.1291e-05,0
77.229,2.7024e-05,0
77.229,2.1149e-05,0
77.23,2.5345e-05,0
77.23,3.1724e-05,0
77.231,3.357e-05,0
77.231,3.2395e-05,0
77.232,2.8031e-05,0
77.232,2.4506e-05,0
77.233,2.2828e-05,0
77.234,2.6352e-05,0
77.234,3.3066e-05,0
77.235,3.1724e-05,0
77.235,1.6785e-05,0
77.236,-3.1891e-06,0
77.236,-1.0239e-05,0
77.237,-5.539e-06,0
77.237,-3.0213e-06,0
77.238,-9.5674e-06,0
77.238,-1.6449e-05,0
77.239,-6.8818e-06,0
77.239,1.8296e-05,0
77.24,3.4745e-05,0
77.24,3.2395e-05,0
77.241,2.3667e-05,0
77.241,1.3764e-05,0
77.242,3.6927e-06,0
77.242,6.5461e-06,0
77.243,1.7288e-05,0
77.243,1.2421e-05,0
77.244,-1.3596e-05,0
77.244,-3.6759e-05,0
77.245,-3.3906e-05,0
77.245,-1.3596e-05,0
77.246,8.3925e-06,0
77.246,2.3499e-05,0
77.247,3.1052e-05,0
77.248,3.1556e-05,0
77.248,2.6017e-05,0
77.249,1.7624e-05,0
77.249,9.3996e-06,0
77.25,3.357e-06,0
77.25,-3.5248e-06,0
77.251,-1.2924e-05,0
77.251,-1.4939e-05,0
77.252,2.182e-06,0
77.252,3.1724e-05,0
77.253,5.5894e-05,0
77.253,6.63e-05,0
77.254,6.63e-05,0
77.254,6.4118e-05,0
77.255,5.8747e-05,0
77.255,5.2873e-05,0
77.256,5.4047e-05,0
77.256,5.8579e-05,0
77.257,6.2776e-05,0
77.257,6.5965e-05,0
77.258,6.9657e-05,0
77.258,7.2007e-05,0
77.259,7.0329e-05,0
77.259,6.3951e-05,0
77.26,5.0858e-05,0
77.26,3.0716e-05,0
77.261,1.561e-05,0
77.262,1.6617e-05,0
77.262,3.6591e-05,0
77.263,6.7308e-05,0
77.263,9.4499e-05,0
77.264,0.00010642,0
77.264,0.00010239,0
77.265,8.8121e-05,0
77.265,7.6539e-05,0
77.266,7.3182e-05,0
77.266,6.63e-05,0
77.267,4.3305e-05,0
77.267,7.8889e-06,0
77.268,-2.5177e-05,0
77.268,-4.3473e-05,0
77.269,-4.7166e-05,0
77.269,-5.4383e-05,0
77.27,-7.5868e-05,0
77.27,-9.6849e-05,0
77.271,-0.00010105,0
77.271,-9.6178e-05,0
77.272,-8.896e-05,0
77.272,-7.5532e-05,0
77.273,-6.2608e-05,0
77.273,-4.8508e-05,0
77.274,-3.1724e-05,0
77.275,-2.1988e-05,0
77.275,-2.8367e-05,0
77.276,-3.6927e-05,0
77.276,-4.0955e-05,0
77.277,-3.9277e-05,0
77.277,-2.8702e-05,0
77.278,-5.2033e-06,0
77.278,2.2492e-05,0
77.279,4.1291e-05,0
77.279,4.5823e-05,0
77.28,5.153e-05,0
77.28,6.479e-05,0
77.281,7.6204e-05,0
77.281,7.805e-05,0
77.282,7.0832e-05,0
77.282,6.0258e-05,0
77.283,5.3376e-05,0
77.283,5.1362e-05,0
77.284,5.0187e-05,0
77.284,4.7166e-05,0
77.285,4.5487e-05,0
77.285,4.0116e-05,0
77.286,2.8367e-05,0
77.286,2.6688e-05,0
77.287,3.2563e-05,0
77.287,3.5416e-05,0
77.288,3.1388e-05,0
77.289,2.0981e-05,0
77.289,2.5177e-06,0
77.29,-2.6352e-05,0
77.29,-3.743e-05,0
77.291,-7.8889e-06,0
77.291,3.1724e-05,0
77.292,4.9516e-05,0
77.292,5.4215e-05,0
77.293,5.7572e-05,0
77.293,4.8005e-05,0
77.294,2.6017e-05,0
77.294,1.9471e-05,0
77.295,4.213e-05,0
77.295,6.63e-05,0
77.296,6.009e-05,0
77.296,3.1891e-05,0
77.297,9.0639e-06,0
77.297,3.357e-06,0
77.298,6.8818e-06,0
77.298,1.6281e-05,0
77.299,3.0716e-05,0
77.299,3.6423e-05,0
77.3,2.3499e-05,0
77.3,5.2033e-06,0
77.301,1.6785e-06,0
77.302,7.8889e-06,0
77.302,4.8676e-06,0
77.303,-2.3499e-06,0
77.303,-5.539e-06,0
77.304,-7.2175e-06,0
77.304,-1.4267e-05,0
77.305,-2.6352e-05,0
77.305,-3.4409e-05,0
77.306,-2.9877e-05,0
77.306,-1.8631e-05,0
77.307,-1.1582e-05,0
77.307,-7.0497e-06,0
77.308,5.539e-06,0
77.308,2.4506e-05,0
77.309,4.2466e-05,0
77.309,5.1194e-05,0
77.31,4.5487e-05,0
77.31,3.9109e-05,0
77.311,4.6159e-05,0
77.311,5.7404e-05,0
77.312,6.4622e-05,0
77.312,7.0161e-05,0
77.313,7.6875e-05,0
77.313,8.7114e-05,0
77.314,9.5506e-05,0
77.314,9.9031e-05,0
77.315,0.00010155,0
77.316,0.00010558,0
77.316,0.00010625,0
77.317,0.00010021,0
77.317,9.1646e-05,0
77.318,8.5771e-05,0
77.318,7.4693e-05,0
77.319,5.0187e-05,0
77.319,1.5946e-05,0
77.32,-3.5248e-06,0
77.32,-1.5106e-06,0
77.321,1.1246e-05,0
77.321,2.5681e-05,0
77.322,3.2395e-05,0
77.322,2.1988e-05,0
77.323,-2.5177e-06,0
77.323,-2.7695e-05,0
77.324,-4.5319e-05,0
77.324,-5.539e-05,0
77.325,-5.6733e-05,0
77.325,-6.2104e-05,0
77.326,-7.9728e-05,0
77.326,-8.9632e-05,0
77.327,-8.0903e-05,0
77.327,-7.1504e-05,0
77.328,-6.865e-05,0
77.329,-6.1265e-05,0
77.329,-5.2537e-05,0
77.33,-4.8508e-05,0
77.33,-3.9109e-05,0
77.331,-1.4939e-05,0
77.331,8.2246e-06,0
77.332,1.1749e-05,0
77.332,-6.714e-07,0
77.333,-9.9031e-06,0
77.333,-6.5461e-06,0
77.334,7.2175e-06,0
77.334,2.0478e-05,0
77.335,2.2995e-05,0
77.335,2.0478e-05,0
77.336,1.2421e-05,0
77.336,-3.8605e-06,0
77.337,-1.0239e-05,0
77.337,2.3499e-06,0
77.338,2.1317e-05,0
77.338,3.9612e-05,0
77.339,5.623e-05,0
77.339,7.1504e-05,0
77.34,7.9225e-05,0
77.34,7.7714e-05,0
77.341,6.8147e-05,0
77.341,6.0594e-05,0
77.342,6.1601e-05,0
77.343,6.3615e-05,0
77.343,5.623e-05,0
77.344,4.3473e-05,0
77.344,3.827e-05,0
77.345,4.1459e-05,0
77.345,4.8844e-05,0
77.346,6.2104e-05,0
77.346,8.04e-05,0
77.347,9.3156e-05,0
77.347,9.0471e-05,0
77.348,7.4861e-05,0
77.348,5.4047e-05,0
77.349,3.8437e-05,0
77.349,3.5584e-05,0
77.35,4.3809e-05,0
77.35,5.0523e-05,0
77.351,5.0187e-05,0
77.351,4.7333e-05,0
77.352,4.5319e-05,0
77.352,4.5151e-05,0
77.353,4.2298e-05,0
77.353,3.6927e-05,0
77.354,3.5584e-05,0
77.354,3.827e-05,0
77.355,3.7095e-05,0
77.356,2.652e-05,0
77.356,1.3092e-05,0
77.357,3.5248e-06,0
77.357,-5.0355e-07,0
77.358,8.7282e-06,0
77.358,2.7695e-05,0
77.359,4.7501e-05,0
77.359,5.4887e-05,0
77.36,4.1459e-05,0
77.36,2.0645e-05,0
77.361,8.896e-06,0
77.361,5.2033e-06,0
77.362,-3.5248e-06,0
77.362,-2.0645e-05,0
77.363,-3.4745e-05,0
77.363,-3.9277e-05,0
77.364,-3.3234e-05,0
77.364,-1.8967e-05,0
77.365,-5.539e-06,0
77.365,8.3925e-07,0
77.366,8.7282e-06,0
77.366,2.1317e-05,0
77.367,3.0716e-05,0
77.367,2.9038e-05,0
77.368,2.031e-05,0
77.368,5.0355e-06,0
77.369,-1.8799e-05,0
77.37,-3.592e-05,0
77.37,-3.0045e-05,0
77.371,-1.6785e-05,0
77.371,-1.091e-05,0
77.372,-1.091e-05,0
77.372,-1.2421e-05,0
77.373,-9.0639e-06,0
77.373,4.3641e-06,0
77.374,2.2324e-05,0
77.374,3.6591e-05,0
77.375,5.3544e-05,0
77.375,7.2343e-05,0
77.376,8.3085e-05,0
77.376,7.7211e-05,0
77.377,5.8244e-05,0
77.377,4.0787e-05,0
77.378,3.8102e-05,0
77.378,5.153e-05,0
77.379,6.1936e-05,0
77.379,5.069e-05,0
77.38,3.5752e-05,0
77.38,4.2298e-05,0
77.381,5.5894e-05,0
77.381,5.0019e-05,0
77.382,2.0981e-05,0
77.383,-1.2924e-05,0
77.383,-3.4409e-05,0
77.384,-5.0858e-05,0
77.384,-6.9993e-05,0
77.385,-8.5435e-05,0
77.385,-9.2821e-05,0
77.386,-8.8457e-05,0
77.386,-7.6036e-05,0
77.387,-6.3951e-05,0
77.387,-5.6733e-05,0
77.388,-4.8844e-05,0
77.388,-3.8437e-05,0
77.389,-2.8367e-05,0
77.389,-1.326e-05,0
77.39,9.2317e-06,0
77.39,2.9709e-05,0
77.391,3.978e-05,0
77.391,5.0187e-05,0
77.392,6.8315e-05,0
77.392,8.896e-05,0
77.393,0.00010121,0
77.393,9.9199e-05,0
77.394,9.0471e-05,0
77.394,8.5603e-05,0
77.395,8.8792e-05,0
77.395,9.6178e-05,0
77.396,0.00010105,0
77.397,9.8863e-05,0
77.397,9.2485e-05,0
77.398,8.3589e-05,0
77.398,6.9322e-05,0
77.399,4.7501e-05,0
77.399,2.3331e-05,0
77.4,2.5177e-06,0
77.4,-1.0407e-05,0
77.401,-1.8128e-05,0
77.401,-2.9206e-05,0
77.402,-3.6255e-05,0
77.402,-1.7624e-05,0
77.403,2.5345e-05,0
77.403,6.2272e-05,0
77.404,7.1839e-05,0
77.404,5.2033e-05,0
77.405,1.8631e-05,0
77.405,-1.561e-05,0
77.406,-4.0787e-05,0
77.406,-5.304e-05,0
77.407,-4.9516e-05,0
77.407,-3.2059e-05,0
77.408,-1.9303e-05,0
77.408,-1.7121e-05,0
77.409,-1.1246e-05,0
77.41,5.0355e-07,0
77.41,1.1078e-05,0
77.411,1.6281e-05,0
77.411,2.0645e-05,0
77.412,3.3402e-05,0
77.412,4.8844e-05,0
77.413,5.5055e-05,0
77.413,5.1865e-05,0
77.414,4.8173e-05,0
77.414,5.0858e-05,0
77.415,6.1265e-05,0
77.415,6.7308e-05,0
77.416,5.8747e-05,0
77.416,4.5823e-05,0
77.417,3.978e-05,0
77.417,4.0955e-05,0
77.418,4.5151e-05,0
77.418,5.0858e-05,0
77.419,5.4551e-05,0
77.419,6.1265e-05,0
77.42,7.6036e-05,0
77.42,9.3828e-05,0
77.421,0.00011061,0
77.421,0.00012068,0
77.422,0.00011531,0
77.422,9.4163e-05,0
77.423,6.7979e-05,0
77.424,3.3402e-05,0
77.424,-2.266e-05,0
77.425,-8.661e-05,0
77.425,-0.00011229,0
77.426,-8.1071e-05,0
77.426,-3.508e-05,0
77.427,-1.2924e-05,0
77.427,-1.1582e-05,0
77.428,-8.2246e-06,0
77.428,1.1749e-06,0
77.429,5.8747e-06,0
77.429,1.0575e-05,0
77.43,2.4674e-05,0
77.43,3.7766e-05,0
77.431,3.743e-05,0
77.431,2.501e-05,0
77.432,6.2104e-06,0
77.432,-1.5274e-05,0
77.433,-3.6927e-05,0
77.433,-5.539e-05,0
77.434,-6.1936e-05,0
77.434,-4.7837e-05,0
77.435,-2.031e-05,0
77.435,-2.8534e-06,0
77.436,-1.5106e-06,0
77.437,6.714e-06,0
77.437,3.8773e-05,0
77.438,8.1071e-05,0
77.438,0.00010826,0
77.439,0.00011347,0
77.439,0.00010457,0
77.44,9.1646e-05,0
77.44,7.8553e-05,0
77.441,6.1601e-05,0
77.441,4.1962e-05,0
77.442,2.2995e-05,0
77.442,5.2033e-06,0
77.443,-1.1917e-05,0
77.443,-2.4338e-05,0
77.444,-3.6423e-05,0
77.444,-5.5558e-05,0
77.445,-7.8721e-05,0
77.445,-9.1142e-05,0
77.446,-8.7953e-05,0
77.446,-7.2679e-05,0
77.447,-4.8844e-05,0
77.447,-2.8031e-05,0
77.448,-1.8967e-05,0
77.448,-1.9303e-05,0
77.449,-1.9638e-05,0
77.45,-1.5106e-05,0
77.45,-1.2253e-05,0
77.451,-1.6449e-05,0
77.451,-2.2492e-05,0
77.452,-1.4939e-05,0
77.452,8.2246e-06,0
77.453,2.8534e-05,0
77.453,3.743e-05,0
77.454,4.6159e-05,0
77.454,5.4551e-05,0
77.455,5.2705e-05,0
77.455,4.2298e-05,0
77.456,4.062e-05,0
77.456,5.2873e-05,0
77.457,6.6972e-05,0
77.457,7.4357e-05,0
77.458,7.1e-05,0
77.458,6.1265e-05,0
77.459,4.9851e-05,0
77.459,4.0955e-05,0
77.46,4.1794e-05,0
77.46,5.9419e-05,0
77.461,8.5267e-05,0
77.461,9.8192e-05,0
77.462,8.8121e-05,0
77.462,6.8147e-05,0
77.463,5.9922e-05,0
77.464,7.4357e-05,0
77.464,9.6513e-05,0
77.465,0.00010071,0
77.465,8.8457e-05,0
77.466,8.2414e-05,0
77.466,8.1743e-05,0
77.467,7.3686e-05,0
77.467,5.4215e-05,0
77.468,3.8102e-05,0
77.468,3.0381e-05,0
77.469,1.6281e-05,0
77.469,-1.326e-05,0
77.47,-5.1194e-05,0
77.47,-8.1071e-05,0
77.471,-9.2149e-05,0
77.471,-8.6107e-05,0
77.472,-6.7643e-05,0
77.472,-3.508e-05,0
77.473,9.3996e-06,0
77.473,4.3641e-05,0
77.474,4.8173e-05,0
77.474,3.3402e-05,0
77.475,1.7456e-05,0
77.475,5.539e-06,0
77.476,2.8534e-06,0
77.477,1.3764e-05,0
77.477,2.3667e-05,0
77.478,1.1078e-05,0
77.478,-1.1078e-05,0
77.479,-1.4603e-05,0
77.479,9.2317e-06,0
77.48,4.1962e-05,0
77.48,6.5629e-05,0
77.481,8.4428e-05,0
77.481,0.00010658,0
77.482,0.00012874,0
77.482,0.00013327,0
77.483,0.00011397,0
77.483,9.1814e-05,0
77.484,8.3085e-05,0
77.484,8.4092e-05,0
77.485,7.6204e-05,0
77.485,3.8605e-05,0
77.486,-2.6856e-05,0
77.486,-9.0471e-05,0
77.487,-0.00012572,0
77.487,-0.00012052,0
77.488,-8.4932e-05,0
77.488,-5.5222e-05,0
77.489,-5.5894e-05,0
77.489,-6.4958e-05,0
77.49,-6.2104e-05,0
77.491,-5.8244e-05,0
77.491,-5.4047e-05,0
77.492,-2.9709e-05,0
77.492,1.7288e-05,0
77.493,6.1265e-05,0
77.493,7.6371e-05,0
77.494,6.7811e-05,0
77.494,5.4215e-05,0
77.495,4.3809e-05,0
77.495,3.6088e-05,0
77.496,3.2395e-05,0
77.496,3.0213e-05,0
77.497,2.6688e-05,0
77.497,2.1317e-05,0
77.498,1.796e-05,0
77.498,1.6281e-05,0
77.499,1.5946e-05,0
77.499,2.1653e-05,0
77.5,3.1388e-05,0
77.5,3.3234e-05,0
77.501,2.2995e-05,0
77.501,1.1078e-05,0
77.502,7.7211e-06,0
77.502,1.5946e-05,0
77.503,2.7527e-05,0
77.504,2.7863e-05,0
77.504,1.7624e-05,0
77.505,5.539e-06,0
77.505,-5.0355e-06,0
77.506,-1.1749e-05,0
77.506,-1.0071e-05,0
77.507,-6.714e-07,0
77.507,6.2104e-06,0
77.508,4.1962e-06,0
77.508,1.5106e-06,0
77.509,1.4939e-05,0
77.509,4.1459e-05,0
77.51,6.3615e-05,0
77.51,6.5293e-05,0
77.511,5.5558e-05,0
77.511,5.0355e-05,0
77.512,4.918e-05,0
77.512,4.5487e-05,0
77.513,3.978e-05,0
77.513,2.6017e-05,0
77.514,4.3641e-06,0
77.514,-1.5778e-05,0
77.515,-2.5681e-05,0
77.515,-1.561e-05,0
77.516,1.5946e-05,0
77.516,5.153e-05,0
77.517,6.7643e-05,0
77.518,6.0929e-05,0
77.518,5.153e-05,0
77.519,5.8579e-05,0
77.519,7.3686e-05,0
77.52,7.4693e-05,0
77.52,5.5894e-05,0
77.521,2.9374e-05,0
77.521,7.2175e-06,0
77.522,-1.2589e-05,0
77.522,-3.978e-05,0
77.523,-5.8412e-05,0
77.523,-3.5752e-05,0
77.524,1.9471e-05,0
77.524,5.9251e-05,0
77.525,5.7572e-05,0
77.525,3.0045e-05,0
77.526,1.1749e-05,0
77.526,1.1246e-05,0
77.527,7.5532e-06,0
77.527,-1.326e-05,0
77.528,-3.3234e-05,0
77.528,-2.8702e-05,0
77.529,-8.7282e-06,0
77.529,-2.8534e-06,0
77.53,-8.0568e-06,0
77.531,8.3925e-07,0
77.531,2.7359e-05,0
77.532,5.6901e-05,0
77.532,7.0329e-05,0
77.533,6.6972e-05,0
77.533,5.9419e-05,0
77.534,5.5558e-05,0
77.534,5.8244e-05,0
77.535,6.2943e-05,0
77.535,5.774e-05,0
77.536,3.0549e-05,0
77.536,-3.357e-06,0
77.537,-1.0742e-05,0
77.537,5.539e-06,0
77.538,3.2731e-05,0
77.538,6.4286e-05,0
77.539,8.3085e-05,0
77.539,8.426e-05,0
77.54,6.5629e-05,0
77.54,3.8102e-05,0
77.541,1.8631e-05,0
77.541,3.6927e-06,0
77.542,-1.091e-05,0
77.542,-1.7456e-05,0
77.543,-1.6449e-05,0
77.543,-1.6281e-05,0
77.544,-1.3596e-05,0
77.545,-8.3925e-06,0
77.545,1.0071e-06,0
77.546,1.1917e-05,0
77.546,1.3428e-05,0
77.547,8.2246e-06,0
77.547,-2.5177e-06,0
77.548,-2.0142e-05,0
77.548,-3.3738e-05,0
77.549,-3.508e-05,0
77.549,-2.3499e-05,0
77.55,1.8463e-06,0
77.55,3.3738e-05,0
77.551,5.6901e-05,0
77.551,6.5629e-05,0
77.552,6.9657e-05,0
77.552,7.4022e-05,0
77.553,7.1504e-05,0
77.553,5.8579e-05,0
77.554,3.9445e-05,0
77.554,9.0639e-06,0
77.555,-3.2059e-05,0
77.555,-6.0258e-05,0
77.556,-5.7069e-05,0
77.556,-3.1724e-05,0
77.557,5.0355e-07,0
77.558,2.8702e-05,0
77.558,4.448e-05,0
77.559,3.743e-05,0
77.559,1.7288e-05,0
77.56,6.2104e-06,0
77.56,2.0142e-06,0
77.561,-3.1891e-06,0
77.561,-3.8605e-06,0
77.562,1.8463e-06,0
77.562,7.2175e-06,0
77.563,5.8747e-06,0
77.563,2.5177e-06,0
77.564,3.8605e-06,0
77.564,8.7282e-06,0
77.565,1.5946e-05,0
77.565,2.0478e-05,0
77.566,1.6785e-05,0
77.566,1.6617e-05,0
77.567,2.9038e-05,0
77.567,4.213e-05,0
77.568,4.6326e-05,0
77.568,4.0116e-05,0
77.569,2.9709e-05,0
77.569,3.3402e-05,0
77.57,4.5655e-05,0
77.57,4.8173e-05,0
77.571,4.0116e-05,0
77.572,2.7863e-05,0
77.572,1.5274e-05,0
77.573,6.8818e-06,0
77.573,8.0568e-06,0
77.574,2.8199e-05,0
77.574,5.4887e-05,0
77.575,7.0329e-05,0
77.575,7.7379e-05,0
77.576,8.8121e-05,0
77.576,9.9199e-05,0
77.577,0.00010491,0
77.577,0.00010491,0
77.578,0.00010188,0
77.578,9.7856e-05,0
77.579,9.1814e-05,0
77.579,7.4357e-05,0
77.58,3.2731e-05,0
77.58,-2.1988e-05,0
77.581,-5.2705e-05,0
77.581,-3.4577e-05,0
77.582,1.8967e-05,0
77.582,6.4622e-05,0
77.583,8.4428e-05,0
77.583,8.8457e-05,0
77.584,7.5532e-05,0
77.585,6.3447e-05,0
77.585,6.8315e-05,0
77.586,7.9728e-05,0
77.586,7.8386e-05,0
77.587,5.0355e-05,0
77.587,1.9638e-05,0
77.588,2.1988e-05,0
77.588,5.4887e-05,0
77.589,7.805e-05,0
77.589,5.1698e-05,0
77.59,-1.326e-05,0
77.59,-8.04e-05,0
77.591,-0.00015459,0
77.591,-0.00022676,0
77.592,-0.00023935,0
77.592,-0.0001801,0
77.593,-0.00010407,0
77.593,-5.2201e-05,0
77.594,-3.592e-05,0
77.594,-4.3473e-05,0
77.595,-4.683e-05,0
77.595,-4.0787e-05,0
77.596,-3.3066e-05,0
77.596,-2.7695e-05,0
77.597,-1.8463e-05,0
77.597,-2.8534e-06,0
77.598,8.3925e-06,0
77.599,6.5461e-06,0
77.599,-1.0071e-06,0
77.6,-4.1962e-06,0
77.6,-1.6785e-07,0
77.601,1.8128e-05,0
77.601,4.3473e-05,0
77.602,5.7908e-05,0
77.602,6.2272e-05,0
77.603,6.2943e-05,0
77.603,5.8579e-05,0
77.604,5.0523e-05,0
77.604,4.7501e-05,0
77.605,4.9012e-05,0
77.605,5.0187e-05,0
77.606,4.5487e-05,0
77.606,3.1724e-05,0
77.607,1.4603e-05,0
77.607,1.0575e-05,0
77.608,3.0716e-05,0
77.608,5.6565e-05,0
77.609,6.2272e-05,0
77.609,4.8005e-05,0
77.61,3.5752e-05,0
77.61,3.4745e-05,0
77.611,3.9277e-05,0
77.612,4.0284e-05,0
77.612,3.8773e-05,0
77.613,3.743e-05,0
77.613,3.2059e-05,0
77.614,1.8631e-05,0
77.614,4.5319e-06,0
77.615,-8.3925e-07,0
77.615,-1.8463e-06,0
77.616,-4.1962e-06,0
77.616,-2.8534e-06,0
77.617,1.0575e-05,0
77.617,2.7863e-05,0
77.618,3.9277e-05,0
77.618,4.2802e-05,0
77.619,4.1962e-05,0
77.619,4.2466e-05,0
77.62,4.448e-05,0
77.62,5.4215e-05,0
77.621,7.2343e-05,0
77.621,8.7617e-05,0
77.622,8.9632e-05,0
77.622,8.2918e-05,0
77.623,7.0665e-05,0
77.623,5.2705e-05,0
77.624,3.743e-05,0
77.624,2.8031e-05,0
77.625,1.1917e-05,0
77.626,-6.8818e-06,0
77.626,-8.5603e-06,0
77.627,1.6449e-05,0
77.627,5.2201e-05,0
77.628,7.4022e-05,0
77.628,6.7979e-05,0
77.629,4.4144e-05,0
77.629,2.0645e-05,0
77.63,1.1917e-05,0
77.63,7.5532e-06,0
77.631,-1.1246e-05,0
77.631,-2.8367e-05,0
77.632,-2.7359e-05,0
77.632,-1.8799e-05,0
77.633,-1.0239e-05,0
77.633,-6.3783e-06,0
77.634,-8.5603e-06,0
77.634,-1.5274e-05,0
77.635,-2.3163e-05,0
77.635,-2.652e-05,0
77.636,-2.6688e-05,0
77.636,-2.9877e-05,0
77.637,-3.1052e-05,0
77.637,-1.7288e-05,0
77.638,9.5674e-06,0
77.638,3.1556e-05,0
77.639,3.8437e-05,0
77.64,3.8102e-05,0
77.64,3.8102e-05,0
77.641,3.8941e-05,0
77.641,4.3473e-05,0
77.642,4.7837e-05,0
77.642,4.4648e-05,0
77.643,4.2802e-05,0
77.643,4.6159e-05,0
77.644,4.3473e-05,0
77.644,3.3906e-05,0
77.645,2.9877e-05,0
77.645,3.508e-05,0
77.646,4.1962e-05,0
77.646,4.5823e-05,0
77.647,5.1362e-05,0
77.647,5.7572e-05,0
77.648,6.2608e-05,0
77.648,6.7979e-05,0
77.649,8.1743e-05,0
77.649,9.8192e-05,0
77.65,0.00010323,0
77.65,9.3156e-05,0
77.651,7.9393e-05,0
77.651,6.3615e-05,0
77.652,3.6423e-05,0
77.653,5.0355e-06,0
77.653,-2.0142e-05,0
77.654,-5.0523e-05,0
77.654,-9.8695e-05,0
77.655,-0.00014418,0
77.655,-0.00015677,0
77.656,-0.00012639,0
77.656,-6.6804e-05,0
77.657,-1.7288e-05,0
77.657,-2.5177e-06,0
77.658,-4.1962e-06,0
77.658,-6.714e-07,0
77.659,7.3854e-06,0
77.659,1.6281e-05,0
77.66,2.3331e-05,0
77.66,2.4002e-05,0
77.661,1.7288e-05,0
77.661,1.0575e-05,0
77.662,9.2317e-06,0
77.662,1.1749e-05,0
77.663,2.0142e-05,0
77.663,3.4745e-05,0
77.664,4.7333e-05,0
77.664,5.1865e-05,0
77.665,5.2201e-05,0
77.665,6.1097e-05,0
77.666,7.8386e-05,0
77.667,8.8457e-05,0
77.667,8.1743e-05,0
77.668,5.7404e-05,0
77.668,2.1317e-05,0
77.669,-3.1891e-06,0
77.669,5.539e-06,0
77.67,1.5946e-05,0
77.67,-1.0407e-05,0
77.671,-5.8076e-05,0
77.671,-8.6275e-05,0
77.672,-5.6901e-05,0
77.672,2.6017e-05,0
77.673,0.00010423,0
77.673,0.00013109,0
77.674,0.00011632,0
77.674,7.8553e-05,0
77.675,2.652e-05,0
77.675,-1.091e-05,0
77.676,-1.2924e-05,0
77.676,1.1749e-05,0
77.677,2.9877e-05,0
77.677,2.6352e-05,0
77.678,8.2246e-06,0
77.678,1.1749e-06,0
77.679,2.4674e-05,0
77.68,6.0761e-05,0
77.68,8.661e-05,0
77.681,9.6513e-05,0
77.681,9.1814e-05,0
77.682,7.8386e-05,0
77.682,6.7308e-05,0
77.683,6.1601e-05,0
77.683,4.683e-05,0
77.684,2.3163e-05,0
77.684,-6.714e-07,0
77.685,-1.7792e-05,0
77.685,-3.0381e-05,0
77.686,-3.4913e-05,0
77.686,-3.2898e-05,0
77.687,-3.592e-05,0
77.687,-2.8367e-05,0
77.688,-3.0213e-06,0
77.688,2.6352e-05,0
77.689,5.623e-05,0
77.689,8.8792e-05,0
77.69,0.00011968,0
77.69,0.00014217,0
77.691,0.00015123,0
77.691,0.00014754,0
77.692,0.00013713,0
77.692,0.0001237,0
77.693,9.8527e-05,0
77.694,4.9516e-05,0
77.694,9.5674e-06,0
77.695,1.1582e-05,0
77.695,1.8631e-05,0
77.696,-2.0478e-05,0
77.696,-9.7856e-05,0
77.697,-0.00016533,0
77.697,-0.00019907,0
77.698,-0.00020427,0
77.698,-0.00019471,0
77.699,-0.00017775,0
77.699,-0.00014939,0
77.7,-0.0001091,0
77.7,-6.63e-05,0
77.701,-3.1388e-05,0
77.701,-7.8889e-06,0
77.702,5.539e-06,0
77.702,1.0071e-05,0
77.703,9.0639e-06,0
77.703,9.5674e-06,0
77.704,1.4267e-05,0
77.704,1.1917e-05,0
77.705,1.1749e-06,0
77.705,-2.8534e-06,0
77.706,9.5674e-06,0
77.707,3.0045e-05,0
77.707,4.9851e-05,0
77.708,6.8986e-05,0
77.708,7.5029e-05,0
77.709,6.5461e-05,0
77.709,5.5222e-05,0
77.71,5.3376e-05,0
77.71,5.3544e-05,0
77.711,4.5319e-05,0
77.711,3.2395e-05,0
77.712,2.6688e-05,0
77.712,2.9709e-05,0
77.713,3.2563e-05,0
77.713,3.8773e-05,0
77.714,5.6062e-05,0
77.714,7.3518e-05,0
77.715,8.0064e-05,0
77.715,8.0735e-05,0
77.716,8.3421e-05,0
77.716,8.661e-05,0
77.717,8.4932e-05,0
77.717,7.8553e-05,0
77.718,7.3686e-05,0
77.718,6.8315e-05,0
77.719,5.2705e-05,0
77.719,3.1724e-05,0
77.72,1.5946e-05,0
77.721,4.8676e-06,0
77.721,-2.8534e-06,0
77.722,-9.5674e-06,0
77.722,-1.3596e-05,0
77.723,-7.8889e-06,0
77.723,4.8676e-06,0
77.724,1.4603e-05,0
77.724,2.0142e-05,0
77.725,2.266e-05,0
77.725,2.5345e-05,0
77.726,3.1724e-05,0
77.726,4.0116e-05,0
77.727,5.0187e-05,0
77.727,5.6565e-05,0
77.728,5.3544e-05,0
77.728,4.5151e-05,0
77.729,3.592e-05,0
77.729,2.0981e-05,0
77.73,-1.8463e-06,0
77.73,-1.5946e-05,0
77.731,-1.5442e-05,0
77.731,-1.0239e-05,0
77.732,2.182e-06,0
77.732,1.8296e-05,0
77.733,2.7695e-05,0
77.734,2.9709e-05,0
77.734,2.9206e-05,0
77.735,2.5345e-05,0
77.735,1.6449e-05,0
77.736,8.3925e-06,0
77.736,9.5674e-06,0
77.737,2.2828e-05,0
77.737,4.1794e-05,0
77.738,5.7069e-05,0
77.738,6.3279e-05,0
77.739,5.8244e-05,0
77.739,4.8005e-05,0
77.74,4.5487e-05,0
77.74,5.5894e-05,0
77.741,6.2943e-05,0
77.741,5.5894e-05,0
77.742,3.8773e-05,0
77.742,2.2324e-05,0
77.743,1.4603e-05,0
77.743,1.2924e-05,0
77.744,6.3783e-06,0
77.744,-6.5461e-06,0
77.745,-2.1149e-05,0
77.745,-3.6255e-05,0
77.746,-5.0523e-05,0
77.746,-5.1865e-05,0
77.747,-3.8605e-05,0
77.748,-2.3331e-05,0
77.748,-7.5532e-06,0
77.749,1.5274e-05,0
77.749,3.9612e-05,0
77.75,5.7069e-05,0
77.75,6.8315e-05,0
77.751,7.1e-05,0
77.751,6.949e-05,0
77.752,6.4286e-05,0
77.752,5.3544e-05,0
77.753,2.9206e-05,0
77.753,-3.5248e-06,0
77.754,-1.796e-05,0
77.754,-6.714e-06,0
77.755,1.5274e-05,0
77.755,3.2059e-05,0
77.756,3.5416e-05,0
77.756,2.6688e-05,0
77.757,1.8631e-05,0
77.757,2.3835e-05,0
77.758,3.5752e-05,0
77.758,3.2059e-05,0
77.759,9.0639e-06,0
77.759,-8.896e-06,0
77.76,5.0355e-07,0
77.761,2.2995e-05,0
77.761,3.1724e-05,0
77.762,1.7288e-05,0
77.762,-3.6927e-06,0
77.763,-1.7288e-05,0
77.763,-2.6352e-05,0
77.764,-3.0045e-05,0
77.764,-2.1653e-05,0
77.765,2.5177e-06,0
77.765,2.5849e-05,0
77.766,3.8102e-05,0
77.766,5.6733e-05,0
77.767,9.2821e-05,0
77.767,0.00012169,0
77.768,0.0001274,0
77.768,0.00012673,0
77.769,0.000118,0
77.769,8.5771e-05,0
77.77,4.1794e-05,0
77.77,7.7211e-06,0
77.771,-1.8631e-05,0
77.771,-4.7837e-05,0
77.772,-7.57e-05,0
77.772,-9.9199e-05,0
77.773,-0.00011431,0
77.773,-0.00012572,0
77.774,-0.00012505,0
77.775,-0.00010356,0
77.775,-6.4958e-05,0
77.776,-2.266e-05,0
77.776,3.8605e-06,0
77.777,4.5319e-06,0
77.777,-5.539e-06,0
77.778,-8.3925e-06,0
77.778,-3.357e-06,0
77.779,1.0407e-05,0
77.779,1.7288e-05,0
77.78,4.1962e-06,0
77.78,-9.2317e-06,0
77.781,-8.2246e-06,0
77.781,-4.5319e-06,0
77.782,2.5177e-06,0
77.782,1.796e-05,0
77.783,3.4577e-05,0
77.783,4.2802e-05,0
77.784,4.7837e-05,0
77.784,5.4215e-05,0
77.785,5.6901e-05,0
77.785,5.4887e-05,0
77.786,5.5558e-05,0
77.786,5.8244e-05,0
77.787,5.4215e-05,0
77.788,4.5319e-05,0
77.788,3.6423e-05,0
77.789,1.9303e-05,0
77.789,-4.8676e-06,0
77.79,-9.3996e-06,0
77.79,2.0645e-05,0
77.791,5.8915e-05,0
77.791,7.4357e-05,0
77.792,7.7379e-05,0
77.792,8.4764e-05,0
77.793,9.6178e-05,0
77.793,0.00010373,0
77.794,9.752e-05,0
77.794,9.0471e-05,0
77.795,8.7785e-05,0
77.795,8.5771e-05,0
77.796,8.2918e-05,0
77.796,7.9393e-05,0
77.797,7.6371e-05,0
77.797,6.0258e-05,0
77.798,1.9471e-05,0
77.798,-2.0478e-05,0
77.799,-2.9709e-05,0
77.799,-2.031e-05,0
77.8,-2.3499e-05,0
77.8,-4.2802e-05,0
77.801,-5.5894e-05,0
77.802,-5.5222e-05,0
77.802,-5.4887e-05,0
77.803,-6.1769e-05,0
77.803,-5.9251e-05,0
77.804,-4.0787e-05,0
77.804,-2.4338e-05,0
77.805,-2.2995e-05,0
77.805,-2.4674e-05,0
77.806,-1.4099e-05,0
77.806,6.2104e-06,0
77.807,2.266e-05,0
77.807,3.1891e-05,0
77.808,3.7263e-05,0
77.808,4.4312e-05,0
77.809,5.3544e-05,0
77.809,5.9922e-05,0
77.81,5.9586e-05,0
77.81,5.7404e-05,0
77.811,5.8915e-05,0
77.811,6.5965e-05,0
77.812,7.335e-05,0
77.812,8.1407e-05,0
77.813,8.8457e-05,0
77.813,8.5435e-05,0
77.814,7.2007e-05,0
77.815,5.8915e-05,0
77.815,5.0858e-05,0
77.816,3.9109e-05,0
77.816,2.3331e-05,0
77.817,1.3596e-05,0
77.817,1.4603e-05,0
77.818,2.1149e-05,0
77.818,2.3331e-05,0
77.819,1.1246e-05,0
77.819,-2.8534e-06,0
77.82,8.3925e-07,0
77.82,1.326e-05,0
77.821,1.8463e-05,0
77.821,2.3499e-05,0
77.822,3.4073e-05,0
77.822,4.1123e-05,0
77.823,4.0116e-05,0
77.823,3.7263e-05,0
77.824,4.3473e-05,0
77.824,5.7572e-05,0
77.825,7.1e-05,0
77.825,7.57e-05,0
77.826,6.6636e-05,0
77.826,4.7501e-05,0
77.827,2.4506e-05,0
77.828,1.3092e-05,0
77.828,2.0645e-05,0
77.829,2.2492e-05,0
77.829,-4.5319e-06,0
77.83,-3.4241e-05,0
77.83,-2.6017e-05,0
77.831,4.5319e-06,0
77.831,1.8296e-05,0
77.832,1.6953e-05,0
77.832,2.2995e-05,0
77.833,3.1891e-05,0
77.833,2.5345e-05,0
77.834,9.2317e-06,0
77.834,1.1749e-06,0
77.835,1.8463e-06,0
77.835,3.5248e-06,0
77.836,2.5177e-06,0
77.836,-1.1749e-06,0
77.837,-1.0071e-06,0
77.837,8.7282e-06,0
77.838,1.7121e-05,0
77.838,1.8967e-05,0
77.839,2.5345e-05,0
