85.454,8.5435e-05,0
85.455,6.5629e-05,0
85.456,4.1794e-05,0
85.456,3.3234e-05,0
85.457,3.978e-05,0
85.457,3.8437e-05,0
85.458,1.796e-05,0
85.458,-1.0239e-05,0
85.459,-2.2324e-05,0
85.459,-1.561e-05,0
85.46,-4.1962e-06,0
85.46,4.8676e-06,0
85.461,1.1582e-05,0
85.461,1.8631e-05,0
85.462,3.3234e-05,0
85.462,5.5222e-05,0
85.463,8.3085e-05,0
85.463,0.00011514,0
85.464,0.00013948,0
85.464,0.00015929,0
85.465,0.00018463,0
85.465,0.00020259,0
85.466,0.00018212,0
85.466,0.00010977,0
85.467,4.5319e-06,0
85.467,-0.00010826,0
85.468,-0.00020679,0
85.469,-0.00026671,0
85.469,-0.00027947,0
85.47,-0.00024741,0
85.47,-0.00017675,0
85.471,-8.0232e-05,0
85.471,8.2246e-06,0
85.472,7.1168e-05,0
85.472,0.00012203,0
85.473,0.00017171,0
85.473,0.00021468,0
85.474,0.00027091,0
85.474,0.00035702,0
85.475,0.0004359,0
85.475,0.00045638,0
85.476,0.00040502,0
85.476,0.0003033,0
85.477,0.00019789,0
85.477,0.00012924,0
85.478,9.7856e-05,0
85.478,8.0232e-05,0
85.479,5.623e-05,0
85.479,2.1317e-05,0
85.48,-1.2421e-05,0
85.48,-2.7863e-05,0
85.481,-2.6017e-05,0
85.481,-2.9206e-05,0
85.482,-4.7501e-05,0
85.483,-7.2175e-05,0
85.483,-7.7211e-05,0
85.484,-5.5055e-05,0
85.484,-3.1052e-05,0
85.485,-3.4073e-05,0
85.485,-6.5629e-05,0
85.486,-0.00010491,0
85.486,-0.00013126,0
85.487,-0.00015207,0
85.487,-0.000189,0
85.488,-0.00023062,0
85.488,-0.00024858,0
85.489,-0.00023046,0
85.489,-0.00018816,0
85.49,-0.00013613,0
85.49,-7.9561e-05,0
85.491,-2.2492e-05,0
85.491,3.2563e-05,0
85.492,9.2821e-05,0
85.492,0.00015593,0
85.493,0.00020729,0
85.493,0.00023465,0
85.494,0.00023348,0
85.494,0.00020931,0
85.495,0.00018984,0
85.496,0.0001895,0
85.496,0.00018682,0
85.497,0.00015727,0
85.497,0.00010323,0
85.498,4.8173e-05,0
85.498,-3.357e-06,0
85.499,-7.6539e-05,0
85.499,-0.00014519,0
85.5,-0.00017053,0
85.5,-0.00015996,0
85.501,-0.00014704,0
85.501,-0.00014469,0
85.502,-0.00012068,0
85.502,-3.4409e-05,0
85.503,9.4331e-05,0
85.503,0.00020629,0
85.504,0.00026839,0
85.504,0.00029189,0
85.505,0.00028316,0
85.505,0.00023549,0
85.506,0.00014754,0
85.506,3.3234e-05,0
85.507,-7.7379e-05,0
85.507,-0.00014586,0
85.508,-0.00018497,0
85.508,-0.00024254,0
85.509,-0.00031254,0
85.51,-0.00032815,0
85.51,-0.00025866,0
85.511,-0.00014922,0
85.511,-6.4622e-05,0
85.512,-2.3667e-05,0
85.512,-6.8818e-06,0
85.513,1.9303e-05,0
85.513,6.1601e-05,0
85.514,9.6513e-05,0
85.514,0.00012068,0
85.515,0.0001603,0
85.515,0.00020494,0
85.516,0.00022324,0
85.516,0.00021468,0
85.517,0.00020427,0
85.517,0.00021115,0
85.518,0.0002271,0
85.518,0.00021535,0
85.519,0.00016231,0
85.519,9.2988e-05,0
85.52,2.5681e-05,0
85.52,-4.683e-05,0
85.521,-0.00012773,0
85.521,-0.00018346,0
85.522,-0.00019487,0
85.522,-0.00018833,0
85.523,-0.00019756,0
85.524,-0.00021602,0
85.524,-0.00021468,0
85.525,-0.00020041,0
85.525,-0.00021619,0
85.526,-0.00023868,0
85.526,-0.00020041,0
85.527,-9.4499e-05,0
85.527,9.7353e-06,0
85.528,5.8244e-05,0
85.528,7.8721e-05,0
85.529,0.0001274,0
85.529,0.00019924,0
85.53,0.00023919,0
85.53,0.00021938,0
85.531,0.00017255,0
85.531,0.00013613,0
85.532,0.00010994,0
85.532,8.7785e-05,0
85.533,7.2007e-05,0
85.533,6.009e-05,0
85.534,5.3544e-05,0
85.534,6.4286e-05,0
85.535,8.1575e-05,0
85.535,9.366e-05,0
85.536,0.00012337,0
85.537,0.00017691,0
85.537,0.00021904,0
85.538,0.0002224,0
85.538,0.00019588,0
85.539,0.00017507,0
85.539,0.00017691,0
85.54,0.00017171,0
85.54,0.00013445,0
85.541,8.3757e-05,0
85.541,5.3208e-05,0
85.542,4.062e-05,0
85.542,1.8296e-05,0
85.543,-1.4603e-05,0
85.543,-4.4816e-05,0
85.544,-7.1336e-05,0
85.544,-9.5171e-05,0
85.545,-0.00010877,0
85.545,-0.00011682,0
85.546,-0.00013243,0
85.546,-0.00015543,0
85.547,-0.00017641,0
85.547,-0.00019219,0
85.548,-0.00019303,0
85.548,-0.00017137,0
85.549,-0.00013445,0
85.549,-9.5506e-05,0
85.55,-5.623e-05,0
85.551,-9.7353e-06,0
85.551,4.6662e-05,0
85.552,0.00010625,0
85.552,0.00015946,0
85.553,0.00018648,0
85.553,0.0001754,0
85.554,0.00013227,0
85.554,6.3279e-05,0
85.555,-2.4338e-05,0
85.555,-9.2821e-05,0
85.556,-0.00012706,0
85.556,-0.00014821,0
85.557,-0.00015744,0
85.557,-0.00014922,0
85.558,-0.00013898,0
85.558,-0.00014183,0
85.559,-0.00014788,0
85.559,-0.00013596,0
85.56,-9.4163e-05,0
85.56,-2.6017e-05,0
85.561,4.918e-05,0
85.561,9.7185e-05,0
85.562,0.000118,0
85.562,0.00015375,0
85.563,0.00022341,0
85.564,0.00029793,0
85.564,0.00034762,0
85.565,0.0003644,0
85.565,0.00035399,0
85.566,0.00031724,0
85.566,0.00025077,0
85.567,0.00017238,0
85.567,0.00011363,0
85.568,8.5435e-05,0
85.568,6.6133e-05,0
85.569,2.7695e-05,0
85.569,-1.8296e-05,0
85.57,-3.5248e-05,0
85.57,-8.2246e-06,0
85.571,3.2731e-05,0
85.571,4.4816e-05,0
85.572,2.8031e-05,0
85.572,1.9303e-05,0
85.573,4.448e-05,0
85.573,6.2272e-05,0
85.574,2.8702e-05,0
85.574,-5.1194e-05,0
85.575,-0.00013344,0
85.575,-0.00018547,0
85.576,-0.00021032,0
85.576,-0.00022744,0
85.577,-0.00024942,0
85.578,-0.00026806,0
85.578,-0.00027443,0
85.579,-0.00026755,0
85.579,-0.00023835,0
85.58,-0.00017507,0
85.58,-9.1142e-05,0
85.581,-2.1317e-05,0
85.581,2.3667e-05,0
85.582,6.6804e-05,0
85.582,0.00013613,0
85.583,0.00023012,0
85.583,0.00030834,0
85.584,0.00033184,0
85.584,0.00029256,0
85.585,0.00022072,0
85.585,0.0001556,0
85.586,0.00010541,0
85.586,4.8508e-05,0
85.587,1.1749e-06,0
85.587,2.8534e-06,0
85.588,2.9374e-05,0
85.588,3.6088e-05,0
85.589,2.0142e-05,0
85.589,5.2033e-06,0
85.59,1.796e-05,0
85.591,5.3544e-05,0
85.591,6.1769e-05,0
85.592,1.5946e-05,0
85.592,-5.2873e-05,0
85.593,-0.00010188,0
85.593,-0.00012857,0
85.594,-0.00013764,0
85.594,-0.00011984,0
85.595,-8.1071e-05,0
85.595,-4.5319e-05,0
85.596,-3.2731e-05,0
85.596,-5.2033e-05,0
85.597,-7.4357e-05,0
85.597,-4.7166e-05,0
85.598,2.4674e-05,0
85.598,8.04e-05,0
85.599,8.4428e-05,0
85.599,4.7837e-05,0
85.6,1.326e-05,0
85.6,9.2317e-06,0
85.601,2.8534e-06,0
85.601,-5.2201e-05,0
85.602,-0.00012723,0
85.602,-0.00015996,0
85.603,-0.00013915,0
85.603,-8.7449e-05,0
85.604,-1.6953e-05,0
85.605,7.5532e-05,0
85.605,0.00018379,0
85.606,0.00026772,0
85.606,0.00029256,0
85.607,0.00026738,0
85.607,0.00020729,0
85.608,0.00013243,0
85.608,9.9031e-05,0
85.609,0.00011263,0
85.609,0.00012035,0
85.61,9.5842e-05,0
85.61,5.8915e-05,0
85.611,4.3473e-05,0
85.611,6.5461e-05,0
85.612,0.00011632,0
85.612,0.0001707,0
85.613,0.00020192,0
85.613,0.0001984,0
85.614,0.00016483,0
85.614,0.00010507,0
85.615,3.3906e-05,0
85.615,-3.6759e-05,0
85.616,-9.1142e-05,0
85.616,-0.00010977,0
85.617,-9.4499e-05,0
85.618,-6.2272e-05,0
85.618,-2.2492e-05,0
85.619,6.5461e-06,0
85.619,1.0575e-05,0
85.62,-2.5177e-06,0
85.62,-1.6449e-05,0
85.621,-2.5177e-05,0
85.621,-3.508e-05,0
85.622,-6.2943e-05,0
85.622,-0.00012303,0
85.623,-0.00020226,0
85.623,-0.00026117,0
85.624,-0.00028115,0
85.624,-0.00027745,0
85.625,-0.00025933,0
85.625,-0.00021753,0
85.626,-0.00015459,0
85.626,-8.7114e-05,0
85.627,-2.2156e-05,0
85.627,4.6159e-05,0
85.628,0.00013361,0
85.628,0.00023381,0
85.629,0.00031589,0
85.629,0.00035013,0
85.63,0.00033016,0
85.63,0.0002751,0
85.631,0.00021149,0
85.632,0.00016181,0
85.632,0.00013008,0
85.633,9.366e-05,0
85.633,5.9419e-05,0
85.634,4.5487e-05,0
85.634,4.6494e-05,0
85.635,4.1627e-05,0
85.635,2.9038e-05,0
85.636,2.4338e-05,0
85.636,2.9709e-05,0
85.637,3.3738e-05,0
85.637,2.1317e-05,0
85.638,-1.7792e-05,0
85.638,-6.4958e-05,0
85.639,-9.0974e-05,0
85.639,-8.8624e-05,0
85.64,-6.9657e-05,0
85.64,-4.7501e-05,0
85.641,-3.2731e-05,0
85.641,-1.3428e-05,0
85.642,9.5674e-06,0
85.642,1.561e-05,0
85.643,-1.9638e-05,0
85.643,-9.5003e-05,0
85.644,-0.000166,0
85.645,-0.00022828,0
85.645,-0.00029155,0
85.646,-0.00032848,0
85.646,-0.00033016,0
85.647,-0.00029928,0
85.647,-0.00022693,0
85.648,-0.00010927,0
85.648,3.978e-05,0
85.649,0.00019521,0
85.649,0.00034191,0
85.65,0.00047048,0
85.65,0.00056481,0
85.651,0.00061349,0
85.651,0.00059603,0
85.652,0.00048727,0
85.652,0.00030062,0
85.653,8.9799e-05,0
85.653,-7.2679e-05,0
85.654,-0.00015207,0
85.654,-0.00018161,0
85.655,-0.00019705,0
85.655,-0.00018917,0
85.656,-0.00013143,0
85.656,-4.448e-05,0
85.657,2.5681e-05,0
85.657,7.5029e-05,0
85.658,0.00012589,0
85.659,0.00016097,0
85.659,0.00014401,0
85.66,8.6778e-05,0
85.66,3.827e-05,0
85.661,1.9471e-05,0
85.661,7.2175e-06,0
85.662,-2.3163e-05,0
85.662,-5.6901e-05,0
85.663,-7.7882e-05,0
85.663,-0.00010373,0
85.664,-0.00015023,0
85.664,-0.00019823,0
85.665,-0.00023717,0
85.665,-0.00025983,0
85.666,-0.00023969,0
85.666,-0.00017742,0
85.667,-0.00010172,0
85.667,-5.2537e-05,0
85.668,-8.2246e-06,0
85.668,7.2847e-05,0
85.669,0.0001791,0
85.669,0.0002647,0
85.67,0.000284,0
85.67,0.00024422,0
85.671,0.00019286,0
85.672,0.00013848,0
85.672,6.1936e-05,0
85.673,-1.6785e-07,0
85.673,-9.2317e-06,0
85.674,1.1078e-05,0
85.674,1.796e-05,0
85.675,7.8889e-06,0
85.675,3.6927e-06,0
85.676,1.9806e-05,0
85.676,5.3544e-05,0
85.677,7.8218e-05,0
85.677,7.6036e-05,0
85.678,6.5293e-05,0
85.678,6.9322e-05,0
85.679,6.63e-05,0
85.679,2.5345e-05,0
85.68,-4.7669e-05,0
85.68,-0.00012035,0
85.681,-0.00016399,0
85.681,-0.00017288,0
85.682,-0.00015761,0
85.682,-0.00012538,0
85.683,-8.2918e-05,0
85.683,-3.6088e-05,0
85.684,-7.5532e-06,0
85.684,-4.1962e-06,0
85.685,1.1246e-05,0
85.686,6.1601e-05,0
85.686,0.00012941,0
85.687,0.00018631,0
85.687,0.00022358,0
85.688,0.0002548,0
85.688,0.00029525,0
85.689,0.00033016,0
85.689,0.00032529,0
85.69,0.00028652,0
85.69,0.00025899,0
85.691,0.00024825,0
85.691,0.00023079,0
85.692,0.00019152,0
85.692,0.00013059,0
85.693,6.5629e-05,0
85.693,1.1917e-05,0
85.694,-3.2563e-05,0
85.694,-7.2175e-05,0
85.695,-0.00010289,0
85.695,-0.00012236,0
85.696,-0.00013512,0
85.696,-0.00014569,0
85.697,-0.00015677,0
85.697,-0.00015946,0
85.698,-0.00015023,0
85.699,-0.00013747,0
85.699,-0.00012673,0
85.7,-0.00011699,0
85.7,-0.00012035,0
85.701,-0.00015056,0
85.701,-0.00019017,0
85.702,-0.00020595,0
85.702,-0.00019722,0
85.703,-0.00018027,0
85.703,-0.00016349,0
85.704,-0.0001472,0
85.704,-0.00013629,0
85.705,-0.00012102,0
85.705,-8.5771e-05,0
85.706,-3.1052e-05,0
85.706,2.5681e-05,0
85.707,6.6636e-05,0
85.707,9.3828e-05,0
85.708,0.00012001,0
85.708,0.00014939,0
85.709,0.00017708,0
85.709,0.0001895,0
85.71,0.00018463,0
85.71,0.00017574,0
85.711,0.00016265,0
85.712,0.0001321,0
85.712,9.2149e-05,0
85.713,4.8005e-05,0
85.713,-3.0549e-05,0
85.714,-0.00015123,0
85.714,-0.00025463,0
85.715,-0.00028333,0
85.715,-0.00023919,0
85.716,-0.00017372,0
85.716,-0.00011833,0
85.717,-6.1601e-05,0
85.717,1.4267e-05,0
85.718,0.00011431,0
85.718,0.00021971,0
85.719,0.00031136,0
85.719,0.00037716,0
85.72,0.00043087,0
85.72,0.00047317,0
85.721,0.00047182,0
85.721,0.00041308,0
85.722,0.00032546,0
85.722,0.00023717,0
85.723,0.00017775,0
85.723,0.00015023,0
85.724,0.00011951,0
85.724,5.5222e-05,0
85.725,-3.7095e-05,0
85.726,-0.00012824,0
85.726,-0.00019051,0
85.727,-0.00021233,0
85.727,-0.00021401,0
85.728,-0.00022492,0
85.728,-0.00023314,0
85.729,-0.00021669,0
85.729,-0.00019219,0
85.73,-0.00018195,0
85.73,-0.00017876,0
85.731,-0.00015492,0
85.731,-0.00011061,0
85.732,-6.2104e-05,0
85.732,-1.1078e-05,0
85.733,4.1291e-05,0
85.733,9.6178e-05,0
85.734,0.00015996,0
85.734,0.00022274,0
85.735,0.00024875,0
85.735,0.00022542,0
85.736,0.00018447,0
85.736,0.00015828,0
85.737,0.00013344,0
85.737,8.5435e-05,0
85.738,3.3906e-05,0
85.739,1.0239e-05,0
85.739,9.0639e-06,0
85.74,3.5248e-06,0
85.74,-1.2589e-05,0
85.741,-2.1317e-05,0
85.741,-1.3764e-05,0
85.742,3.0213e-06,0
85.742,1.796e-05,0
85.743,2.501e-05,0
85.743,3.3066e-05,0
85.744,4.8676e-05,0
85.744,6.6972e-05,0
85.745,7.8889e-05,0
85.745,8.275e-05,0
85.746,7.0161e-05,0
85.746,2.9038e-05,0
85.747,-3.0549e-05,0
85.747,-8.426e-05,0
85.748,-0.00012908,0
85.748,-0.00018128,0
85.749,-0.0002511,0
85.749,-0.00031438,0
85.75,-0.00033352,0
85.75,-0.00031371,0
85.751,-0.00029021,0
85.751,-0.00026722,0
85.752,-0.00021199,0
85.753,-0.00010037,0
85.753,4.8508e-05,0
85.754,0.00019689,0
85.754,0.00031707,0
85.755,0.00040334,0
85.755,0.00044228,0
85.756,0.00041794,0
85.756,0.00034157,0
85.757,0.00025328,0
85.757,0.00019017,0
85.758,0.00015325,0
85.758,0.00012605,0
85.759,9.1142e-05,0
85.759,3.7766e-05,0
85.76,-1.1246e-05,0
85.76,-2.9709e-05,0
85.761,-2.3163e-05,0
85.761,-2.031e-05,0
85.762,-2.9374e-05,0
85.762,-3.3402e-05,0
85.763,-3.1724e-05,0
85.763,-5.5055e-05,0
85.764,-0.00012102,0
85.764,-0.00019789,0
85.765,-0.00024858,0
85.766,-0.00025664,0
85.766,-0.00021736,0
85.767,-0.00017171,0
85.767,-0.0001697,0
85.768,-0.0001754,0
85.768,-0.00014049,0
85.769,-6.8315e-05,0
85.769,9.0639e-06,0
85.77,6.8986e-05,0
85.77,0.00012404,0
85.771,0.00019655,0
85.771,0.00026671,0
85.772,0.00030112,0
85.772,0.00029693,0
85.773,0.00027645,0
85.773,0.00025631,0
85.774,0.00023348,0
85.774,0.00019521,0
85.775,0.00013394,0
85.775,7.5029e-05,0
85.776,4.5487e-05,0
85.776,3.8605e-05,0
85.777,3.0549e-05,0
85.777,1.4267e-05,0
85.778,-2.5177e-06,0
85.778,-2.9038e-05,0
85.779,-0.00010709,0
85.78,-0.00021317,0
85.78,-0.00026386,0
85.781,-0.00023751,0
85.781,-0.00018614,0
85.782,-0.00015459,0
85.782,-0.0001373,0
85.783,-0.00010692,0
85.783,-5.4215e-05,0
85.784,9.2317e-06,0
85.784,6.4118e-05,0
85.785,0.0001044,0
85.785,0.00014066,0
85.786,0.00016986,0
85.786,0.00016936,0
85.787,0.00013495,0
85.787,9.5842e-05,0
85.788,7.1504e-05,0
85.788,6.1601e-05,0
85.789,6.2943e-05,0
85.789,8.1743e-05,0
85.79,0.00012001,0
85.79,0.00018111,0
85.791,0.00025496,0
85.791,0.00030599,0
85.792,0.00031002,0
85.793,0.00027947,0
85.793,0.00024204,0
85.794,0.00020797,0
85.794,0.00017675,0
85.795,0.00014334,0
85.795,0.00011397,0
85.796,9.1142e-05,0
85.796,6.7643e-05,0
85.797,3.6088e-05,0
85.797,-1.4099e-05,0
85.798,-7.1e-05,0
85.798,-0.00011632,0
85.799,-0.00015929,0
85.799,-0.00020998,0
85.8,-0.00025194,0
85.8,-0.00028266,0
85.801,-0.00030951,0
85.801,-0.00031237,0
85.802,-0.00028048,0
85.802,-0.00026235,0
85.803,-0.00030716,0
85.803,-0.00037397,0
85.804,-0.00035752,0
85.804,-0.00024556,0
85.805,-0.00011196,0
85.805,-2.0478e-05,0
85.806,2.4842e-05,0
85.807,4.5487e-05,0
85.807,5.9251e-05,0
85.808,7.9057e-05,0
85.808,0.00010591,0
85.809,0.00011431,0
85.809,8.0064e-05,0
85.81,2.8367e-05,0
85.81,1.1246e-05,0
85.811,4.0955e-05,0
85.811,0.00010121,0
85.812,0.0001791,0
85.812,0.00025429,0
85.813,0.00029844,0
85.813,0.00028954,0
85.814,0.00023549,0
85.814,0.00017238,0
85.815,0.00013008,0
85.815,0.00011296,0
85.816,0.00010155,0
85.816,7.6707e-05,0
85.817,3.5584e-05,0
85.817,-1.3931e-05,0
85.818,-6.9993e-05,0
85.818,-0.00011531,0
85.819,-0.0001232,0
85.82,-9.1646e-05,0
85.82,-4.8508e-05,0
85.821,-2.7359e-05,0
85.821,-3.0549e-05,0
85.822,-3.6423e-05,0
85.822,-3.6759e-05,0
85.823,-3.3402e-05,0
85.823,-1.6953e-05,0
85.824,1.5274e-05,0
85.824,5.388e-05,0
85.825,9.1646e-05,0
85.825,0.00012505,0
85.826,0.00015895,0
85.826,0.00019672,0
85.827,0.00021804,0
85.827,0.00019219,0
85.828,0.00011666,0
85.828,1.0575e-05,0
85.829,-9.0471e-05,0
85.829,-0.00014989,0
85.83,-0.00015744,0
85.83,-0.00013277,0
85.831,-9.7856e-05,0
85.831,-5.8412e-05,0
85.832,-1.6785e-05,0
85.832,3.2059e-05,0
85.833,0.0001039,0
85.834,0.00020259,0
85.834,0.00030263,0
85.835,0.00035534,0
85.835,0.00033553,0
85.836,0.00027108,0
85.836,0.00020209,0
85.837,0.00014485,0
85.837,9.2485e-05,0
85.838,3.3402e-05,0
85.838,-1.3092e-05,0
85.839,-2.7192e-05,0
85.839,-2.2995e-05,0
85.84,-1.796e-05,0
85.84,-9.5674e-06,0
85.841,4.1962e-06,0
85.841,2.3835e-05,0
85.842,5.069e-05,0
85.842,7.7043e-05,0
85.843,9.3156e-05,0
85.843,9.3828e-05,0
85.844,8.275e-05,0
85.844,6.1936e-05,0
85.845,2.9877e-05,0
85.845,-1.796e-05,0
85.846,-7.4189e-05,0
85.847,-0.00012035,0
85.847,-0.0001608,0
85.848,-0.00021334,0
85.848,-0.00025496,0
85.849,-0.00025698,0
85.849,-0.00022609,0
85.85,-0.00019387,0
85.85,-0.00016197,0
85.851,-0.00011531,0
85.851,-4.9851e-05,0
85.852,2.1317e-05,0
85.852,6.6468e-05,0
85.853,7.57e-05,0
85.853,6.7308e-05,0
85.854,5.7908e-05,0
85.854,4.2802e-05,0
85.855,5.0355e-07,0
85.855,-5.9251e-05,0
85.856,-8.6778e-05,0
85.856,-8.04e-05,0
85.857,-9.6513e-05,0
85.857,-0.00016214,0
85.858,-0.00023919,0
85.858,-0.00026957,0
85.859,-0.00024019,0
85.859,-0.00018967,0
85.86,-0.00016667,0
85.861,-0.00018799,0
85.861,-0.00022441,0
85.862,-0.00023549,0
85.862,-0.0001984,0
85.863,-0.00012052,0
85.863,-2.8367e-05,0
85.864,7.9393e-05,0
85.864,0.00019051,0
85.865,0.00027007,0
85.865,0.00031472,0
85.866,0.00035097,0
85.866,0.00039461,0
85.867,0.00043288,0
85.867,0.00044363,0
85.868,0.00040787,0
85.868,0.0003258,0
85.869,0.00023046,0
85.869,0.00014955,0
85.87,8.275e-05,0
85.87,1.7792e-05,0
85.871,-4.0116e-05,0
85.871,-7.0665e-05,0
85.872,-6.5126e-05,0
85.872,-3.6927e-05,0
85.873,-9.9031e-06,0
85.874,-3.8605e-06,0
85.874,-1.2924e-05,0
85.875,-2.5681e-05,0
85.875,-5.6565e-05,0
85.876,-0.00010289,0
85.876,-0.00013411,0
85.877,-0.00012924,0
85.877,-8.5435e-05,0
85.878,-1.9471e-05,0
85.878,4.8005e-05,0
85.879,0.0001086,0
85.879,0.00016349,0
85.88,0.00021065,0
85.88,0.00024388,0
85.881,0.00026033,0
85.881,0.00028383,0
85.882,0.00034006,0
85.882,0.0004067,0
85.883,0.00041677,0
85.883,0.00033956,0
85.884,0.00022089,0
85.884,0.00011582,0
85.885,4.213e-05,0
85.885,8.3925e-06,0
85.886,1.9135e-05,0
85.886,6.1433e-05,0
85.887,0.00010323,0
85.888,0.0001138,0
85.888,8.7114e-05,0
85.889,4.6159e-05,0
85.889,1.2421e-05,0
85.89,-2.501e-05,0
85.89,-8.4428e-05,0
85.891,-0.00013512,0
85.891,-0.00014737,0
85.892,-0.00014485,0
85.892,-0.00016097,0
85.893,-0.00019471,0
85.893,-0.00022324,0
85.894,-0.00022962,0
85.894,-0.00021703,0
85.895,-0.00019622,0
85.895,-0.00017742,0
85.896,-0.00017473,0
85.896,-0.00022895,0
85.897,-0.00033805,0
85.897,-0.00042432,0
85.898,-0.00042701,0
85.898,-0.00035735,0
85.899,-0.00027091,0
85.899,-0.00020259,0
85.9,-0.00013428,0
85.9,-5.4383e-05,0
85.901,3.3234e-05,0
85.902,0.00012136,0
85.902,0.00020763,0
85.903,0.00028887,0
85.903,0.00033788,0
85.904,0.00033687,0
85.904,0.00029323,0
85.905,0.00023046,0
85.905,0.00016735,0
85.906,0.00012505,0
85.906,0.00012438,0
85.907,0.00016432,0
85.907,0.00021736,0
85.908,0.00024775,0
85.908,0.00023314,0
85.909,0.00018648,0
85.909,0.00014267,0
85.91,0.00012219,0
85.91,0.00012169,0
85.911,0.00011565,0
85.911,9.3828e-05,0
85.912,7.1e-05,0
85.912,4.7837e-05,0
85.913,2.1653e-05,0
85.913,-4.3641e-06,0
85.914,-2.887e-05,0
85.915,-5.5222e-05,0
85.915,-9.4667e-05,0
85.916,-0.0001509,0
85.916,-0.00021032,0
85.917,-0.00023616,0
85.917,-0.00020478,0
85.918,-0.00014435,0
85.918,-0.00010793,0
85.919,-0.00010021,0
85.919,-8.8121e-05,0
85.92,-4.9516e-05,0
85.92,1.5106e-06,0
85.921,6.4622e-05,0
85.921,0.00016181,0
85.922,0.00028669,0
85.922,0.00038119,0
85.923,0.00039461,0
85.923,0.00034224,0
85.924,0.00026906,0
85.924,0.00019689,0
85.925,0.00012102,0
85.925,2.7192e-05,0
85.926,-8.1239e-05,0
85.926,-0.00018514,0
85.927,-0.00026436,0
85.927,-0.00031102,0
85.928,-0.0003174,0
85.929,-0.00028081,0
85.929,-0.00022089,0
85.93,-0.00017087,0
85.93,-0.00013965,0
85.931,-0.00010692,0
85.931,-4.1627e-05,0
85.932,5.4383e-05,0
85.932,0.00014485,0
85.933,0.00019991,0
85.933,0.00021418,0
85.934,0.00020377,0
85.934,0.00018212,0
85.935,0.00015425,0
85.935,0.00012438,0
85.936,9.3492e-05,0
85.936,5.3544e-05,0
85.937,6.0426e-06,0
85.937,-2.5345e-05,0
85.938,-2.6352e-05,0
85.938,-1.1582e-05,0
85.939,1.0071e-06,0
85.939,1.1078e-05,0
85.94,2.4674e-05,0
85.94,3.7766e-05,0
85.941,4.6159e-05,0
85.942,4.6159e-05,0
85.942,3.7095e-05,0
85.943,2.6017e-05,0
85.943,1.7456e-05,0
85.944,-6.5461e-06,0
85.944,-8.1071e-05,0
85.945,-0.00017188,0
85.945,-0.0002135,0
85.946,-0.00020427,0
85.946,-0.00020545,0
85.947,-0.00024523,0
85.947,-0.00027309,0
85.948,-0.00022962,0
85.948,-0.00011766,0
85.949,-5.0355e-07,0
85.949,6.479e-05,0
85.95,7.4861e-05,0
85.95,6.5629e-05,0
85.951,7.2007e-05,0
85.951,9.2317e-05,0
85.952,0.00010222,0
85.952,9.7017e-05,0
85.953,9.7185e-05,0
85.953,0.00012706,0
85.954,0.00018094,0
85.954,0.00023012,0
85.955,0.00025295,0
85.956,0.00025849,0
85.956,0.00025765,0
85.957,0.00023046,0
85.957,0.00015727,0
85.958,6.009e-05,0
85.958,-9.0639e-06,0
85.959,-1.9471e-05,0
85.959,2.0645e-05,0
85.96,7.7714e-05,0
85.96,0.00012085,0
85.961,0.00013445,0
85.961,0.00012337,0
85.962,0.0001039,0
85.962,9.1478e-05,0
85.963,9.3156e-05,0
85.963,0.00010692,0
85.964,0.00012874,0
85.964,0.00014418,0
85.965,0.00013646,0
85.965,0.00010188,0
85.966,4.5823e-05,0
85.966,-2.4674e-05,0
85.967,-9.1142e-05,0
85.967,-0.00011968,0
85.968,-0.00010591,0
85.969,-8.4428e-05,0
85.969,-8.0735e-05,0
85.97,-9.3492e-05,0
85.97,-0.00010356,0
85.971,-0.00010893,0
85.971,-0.00012236,0
85.972,-0.0001373,0
85.972,-0.00014569,0
85.973,-0.00015409,0
85.973,-0.00018883,0
85.974,-0.00025043,0
85.974,-0.00030867,0
85.975,-0.00033167,0
85.975,-0.00030347,0
85.976,-0.0002271,0
85.976,-0.00013478,0
85.977,-4.918e-05,0
85.977,3.4073e-05,0
85.978,0.0001227,0
85.978,0.00021132,0
85.979,0.00028736,0
85.979,0.00035399,0
85.98,0.00041006,0
85.98,0.00043288,0
85.981,0.00040049,0
85.981,0.00032143,0
85.982,0.00023667,0
85.983,0.00017238,0
85.983,0.00012723,0
85.984,9.0806e-05,0
85.984,6.4286e-05,0
85.985,5.4887e-05,0
85.985,6.0594e-05,0
85.986,6.6972e-05,0
85.986,5.8244e-05,0
85.987,2.3499e-05,0
85.987,-2.9206e-05,0
85.988,-7.6875e-05,0
85.988,-0.00010054,0
85.989,-9.5171e-05,0
85.989,-7.5364e-05,0
85.99,-6.8986e-05,0
85.99,-7.1672e-05,0
85.991,-5.0187e-05,0
85.991,9.7353e-06,0
85.992,8.8457e-05,0
85.992,0.00015023,0
85.993,0.00016466,0
85.993,0.0001462,0
85.994,0.00012706,0
85.994,0.00010793,0
85.995,6.1601e-05,0
85.996,-3.4409e-05,0
85.996,-0.00014737,0
85.997,-0.00022089,0
85.997,-0.00021938,0
85.998,-0.00015946,0
85.998,-9.0806e-05,0
85.999,-4.1459e-05,0
85.999,-1.091e-05,0
86,1.0575e-05,0
86,3.2731e-05,0
86.001,5.153e-05,0
86.001,7.6707e-05,0
86.002,0.00011649,0
86.002,0.00014133,0
86.003,0.00012404,0
86.003,8.0735e-05,0
86.004,3.8437e-05,0
86.004,7.2175e-06,0
86.005,-1.3931e-05,0
86.005,-1.6617e-05,0
86.006,-4.1962e-06,0
86.006,-6.2104e-06,0
86.007,-3.4409e-05,0
86.007,-5.8076e-05,0
86.008,-5.4215e-05,0
86.008,-4.448e-05,0
86.009,-6.5293e-05,0
86.01,-0.00010759,0
86.01,-0.00014116,0
86.011,-0.00014855,0
86.011,-0.00012639,0
86.012,-8.6778e-05,0
86.012,-4.1459e-05,0
86.013,6.8818e-06,0
86.013,5.8579e-05,0
86.014,9.3828e-05,0
86.014,0.00010726,0
86.015,0.00011699,0
86.015,0.0001331,0
86.016,0.00014083,0
86.016,0.00012538,0
86.017,8.7785e-05,0
86.017,4.4144e-05,0
86.018,1.7121e-05,0
86.018,1.5946e-05,0
86.019,3.2059e-05,0
86.019,5.3376e-05,0
86.02,7.3686e-05,0
86.02,8.4932e-05,0
86.021,8.191e-05,0
86.021,6.714e-05,0
86.022,3.9277e-05,0
86.023,9.0639e-06,0
86.023,-1.5274e-05,0
86.024,-4.062e-05,0
86.024,-6.7475e-05,0
86.025,-9.1646e-05,0
86.025,-0.00011162,0
86.026,-0.00011901,0
86.026,-0.00011112,0
86.027,-0.00010256,0
86.027,-0.00010457,0
86.028,-0.00011615,0
86.028,-0.00012354,0
86.029,-9.7856e-05,0
86.029,-3.8437e-05,0
86.03,2.3163e-05,0
86.03,5.3208e-05,0
86.031,4.6662e-05,0
86.031,1.8296e-05,0
86.032,-1.5106e-06,0
86.032,6.2104e-06,0
86.033,2.7695e-05,0
86.033,3.0716e-05,0
86.034,8.2246e-06,0
86.034,1.2589e-05,0
86.035,7.1e-05,0
86.035,0.00013545,0
86.036,0.00015157,0
86.037,0.00013411,0
86.037,0.00014452,0
86.038,0.00020931,0
86.038,0.00029995,0
86.039,0.00036071,0
86.039,0.00037447,0
86.04,0.00035114,0
86.04,0.00025899,0
86.041,9.7017e-05,0
86.041,-5.4887e-05,0
86.042,-0.00013495,0
86.042,-0.00016197,0
86.043,-0.00017691,0
86.043,-0.00019319,0
86.044,-0.00019353,0
86.044,-0.00015677,0
86.045,-8.6946e-05,0
86.045,6.3783e-06,0
86.046,0.00012236,0
86.046,0.00024623,0
86.047,0.00032999,0
86.047,0.00033385,0
86.048,0.00027645,0
86.048,0.00021267,0
86.049,0.00016667,0
86.05,0.00012723,0
86.05,8.1071e-05,0
86.051,2.9038e-05,0
86.051,-1.4771e-05,0
86.052,-5.3376e-05,0
86.052,-9.5003e-05,0
86.053,-0.00012639,0
86.053,-0.00013663,0
86.054,-0.00012589,0
86.054,-0.00010457,0
86.055,-8.7449e-05,0
86.055,-8.2078e-05,0
86.056,-8.3421e-05,0
86.056,-8.3421e-05,0
86.057,-8.1743e-05,0
86.057,-8.8289e-05,0
86.058,-0.00010843,0
86.058,-0.00013294,0
86.059,-0.00014586,0
86.059,-0.00014015,0
86.06,-0.0001232,0
86.06,-0.00010272,0
86.061,-8.0735e-05,0
86.061,-5.6565e-05,0
86.062,-3.0716e-05,0
86.062,-1.6785e-06,0
86.063,2.9374e-05,0
86.064,6.4286e-05,0
86.064,0.00011363,0
86.065,0.00016231,0
86.065,0.00017339,0
86.066,0.00014418,0
86.066,0.00010188,0
86.067,6.5293e-05,0
86.067,4.3473e-05,0
86.068,4.3137e-05,0
86.068,5.9251e-05,0
86.069,7.9057e-05,0
86.069,9.752e-05,0
86.07,0.0001133,0
86.07,0.00012119,0
86.071,0.00011632,0
86.071,9.9199e-05,0
86.072,7.5532e-05,0
86.072,4.3473e-05,0
86.073,3.6927e-06,0
86.073,-3.5248e-05,0
86.074,-6.9825e-05,0
86.074,-0.00010625,0
86.075,-0.00014066,0
86.075,-0.00015979,0
86.076,-0.00016248,0
86.077,-0.00017406,0
86.077,-0.00022089,0
86.078,-0.00027678,0
86.078,-0.00028585,0
86.079,-0.00024053,0
86.079,-0.00019538,0
86.08,-0.00020293,0
86.08,-0.00025295,0
86.081,-0.00025832,0
86.081,-0.00016684,0
86.082,-2.4506e-05,0
86.082,8.0735e-05,0
86.083,0.00012287,0
86.083,0.00016852,0
86.084,0.00025631,0
86.084,0.00034359,0
86.085,0.00038219,0
86.085,0.00041073,0
86.086,0.00049667,0
86.086,0.00064034,0
86.087,0.00075045,0
86.087,0.00074743,0
86.088,0.00065109,0
86.088,0.00053225,0
86.089,0.0004265,0
86.09,0.00031136,0
86.09,0.00017372,0
86.091,5.388e-05,0
86.091,-3.5416e-05,0
86.092,-0.0001044,0
86.092,-0.00014754,0
86.093,-0.000166,0
86.093,-0.00016902,0
86.094,-0.00017356,0
86.094,-0.00018044,0
86.095,-0.00016718,0
86.095,-0.00013881,0
86.096,-0.00012169,0
86.096,-0.00012119,0
86.097,-0.00012706,0
86.097,-0.00013327,0
86.098,-0.00014452,0
86.098,-0.00015157,0
86.099,-0.00013982,0
86.099,-0.00011598,0
86.1,-9.7688e-05,0
86.1,-9.4163e-05,0
86.101,-0.00010121,0
86.101,-0.00010709,0
86.102,-0.00010541,0
86.102,-9.6849e-05,0
86.103,-8.8792e-05,0
86.104,-8.661e-05,0
86.104,-8.9128e-05,0
86.105,-9.4835e-05,0
86.105,-0.00010323,0
86.106,-0.00010491,0
86.106,-0.00010726,0
86.107,-0.00012538,0
86.107,-0.00014804,0
86.108,-0.00014939,0
86.108,-0.00012522,0
86.109,-8.8792e-05,0
86.109,-5.8747e-05,0
86.11,-2.6017e-05,0
86.11,2.1317e-05,0
86.111,6.4286e-05,0
86.111,0.00010121,0
86.112,0.00015459,0
86.112,0.00021904,0
86.113,0.00026436,0
86.113,0.00027477,0
86.114,0.00025966,0
86.114,0.00024489,0
86.115,0.00023885,0
86.115,0.00022475,0
86.116,0.00019118,0
86.117,0.0001509,0
86.117,0.00011128,0
86.118,4.8173e-05,0
86.118,-5.4551e-05,0
86.119,-0.00016332,0
86.119,-0.00023398,0
86.12,-0.00026134,0
86.12,-0.00027393,0
86.121,-0.00030179,0
86.121,-0.00033368,0
86.122,-0.00031925,0
86.122,-0.00024154,0
86.123,-0.00014049,0
86.123,-4.7837e-05,0
86.124,3.5752e-05,0
86.124,0.00011196,0
86.125,0.00017708,0
86.125,0.00021132,0
86.126,0.00020293,0
86.126,0.00017339,0
86.127,0.0001509,0
86.127,0.00013143,0
86.128,0.00010004,0
86.128,6.1936e-05,0
86.129,4.3809e-05,0
86.129,6.3279e-05,0
86.13,0.00010457,0
86.131,0.00013143,0
86.131,0.00014485,0
86.132,0.00018363,0
86.132,0.00024942,0
86.133,0.00029458,0
86.133,0.00028618,0
86.134,0.0002506,0
86.134,0.00021854,0
86.135,0.00019118,0
86.135,0.00015509,0
86.136,0.00012337,0
86.136,0.00011498,0
86.137,0.00013361,0
86.137,0.00014418,0
86.138,9.3828e-05,0
86.138,-3.0213e-06,0
86.139,-9.6178e-05,0
86.139,-0.00018514,0
86.14,-0.00029055,0
86.14,-0.00037195,0
86.141,-0.00037414,0
86.141,-0.0003075,0
86.142,-0.00022274,0
86.142,-0.00015677,0
86.143,-0.00012102,0
86.144,-8.3085e-05,0
86.144,-2.1653e-05,0
86.145,4.448e-05,0
86.145,0.00010239,0
86.146,0.00016365,0
86.146,0.0002271,0
86.147,0.00024758,0
86.147,0.00020662,0
86.148,0.00013361,0
86.148,6.8147e-05,0
86.149,3.1891e-05,0
86.149,2.0813e-05,0
86.15,1.9303e-05,0
86.15,2.1317e-05,0
86.151,1.7792e-05,0
86.151,-4.5319e-06,0
86.152,-3.9277e-05,0
86.152,-6.0258e-05,0
86.153,-4.7501e-05,0
86.153,-1.0239e-05,0
86.154,2.2492e-05,0
86.154,4.1459e-05,0
86.155,6.009e-05,0
86.155,8.2414e-05,0
86.156,0.00010457,0
86.156,0.00013814,0
86.157,0.00017574,0
86.158,0.0001791,0
86.158,0.00013327,0
86.159,6.0258e-05,0
86.159,-4.8676e-06,0
86.16,-3.6759e-05,0
86.16,-3.9109e-05,0
86.161,-2.5849e-05,0
86.161,-1.9135e-05,0
86.162,-2.7192e-05,0
86.162,-2.1317e-05,0
86.163,1.8631e-05,0
86.163,6.9657e-05,0
86.164,0.00010172,0
86.164,7.57e-05,0
86.165,1.326e-05,0
86.165,-1.8967e-05,0
86.166,-1.8799e-05,0
86.166,-2.5681e-05,0
86.167,-4.1459e-05,0
86.167,-4.1459e-05,0
86.168,-1.8296e-05,0
86.168,-4.0284e-06,0
86.169,-3.1556e-05,0
86.169,-7.6371e-05,0
86.17,-7.2679e-05,0
86.171,-1.1246e-05,0
86.171,4.1459e-05,0
86.172,3.9277e-05,0
86.172,-5.8747e-06,0
86.173,-6.6636e-05,0
86.173,-0.00012908,0
86.174,-0.00018111,0
86.174,-0.00020142,0
86.175,-0.0001754,0
86.175,-0.00013193,0
86.176,-0.00011514,0
86.176,-0.00012555,0
86.177,-0.00013831,0
86.177,-0.00013881,0
86.178,-0.00012068,0
86.178,-6.9993e-05,0
86.179,1.6449e-05,0
86.179,0.00012303,0
86.18,0.00022509,0
86.18,0.00030062,0
86.181,0.00033822,0
86.181,0.00035265,0
86.182,0.00035399,0
86.182,0.00032781,0
86.183,0.00027611,0
86.183,0.00021569,0
86.184,0.00015241,0
86.185,5.8412e-05,0
86.185,-8.0735e-05,0
86.186,-0.00021015,0
86.186,-0.00028165,0
86.187,-0.00031791,0
86.187,-0.00033939,0
86.188,-0.00032932,0
86.188,-0.00029189,0
86.189,-0.00023818,0
86.189,-0.00017607,0
86.19,-0.00010793,0
86.19,-1.2253e-05,0
86.191,0.00013126,0
86.191,0.00029374,0
86.192,0.00042818,0
86.192,0.00049331,0
86.193,0.00045705,0
86.193,0.0003315,0
86.194,0.00018614,0
86.194,8.2918e-05,0
86.195,3.8773e-05,0
86.195,5.4383e-05,0
86.196,0.0001138,0
86.196,0.00016416,0
86.197,0.00015828,0
86.198,9.7688e-05,0
86.198,2.0478e-05,0
86.199,-2.5849e-05,0
86.199,-3.2731e-05,0
86.2,-2.7359e-05,0
86.2,-3.2395e-05,0
86.201,-4.5151e-05,0
86.201,-4.5991e-05,0
86.202,-2.7359e-05,0
86.202,1.6785e-07,0
86.203,2.0981e-05,0
86.203,2.0478e-05,0
86.204,0,0
86.204,-2.0645e-05,0
86.205,-4.0787e-05,0
86.205,-6.3447e-05,0
86.206,-9.0471e-05,0
86.206,-0.00010625,0
86.207,-8.2246e-05,0
86.207,-1.6281e-05,0
86.208,4.0787e-05,0
86.208,3.6591e-05,0
86.209,-2.9709e-05,0
86.209,-0.00010155,0
86.21,-0.00013445,0
86.21,-0.00013478,0
86.211,-0.0001227,0
86.212,-0.00010994,0
86.212,-0.00011112,0
86.213,-0.00014452,0
86.213,-0.00019236,0
86.214,-0.00021367,0
86.214,-0.00019521,0
86.215,-0.00013579,0
86.215,-4.7501e-05,0
86.216,4.1123e-05,0
86.216,0.00010256,0
86.217,0.00013143,0
86.217,0.00015744,0
86.218,0.00020813,0
86.218,0.00026436,0
86.219,0.00028719,0
86.219,0.00024321,0
86.22,0.0001462,0
86.22,6.2776e-05,0
86.221,1.3092e-05,0
86.221,-3.6423e-05,0
86.222,-0.00011028,0
86.222,-0.00016399,0
86.223,-0.00013881,0
86.223,-5.6565e-05,0
86.224,2.5177e-05,0
86.225,7.9393e-05,0
86.225,9.5003e-05,0
86.226,7.6371e-05,0
86.226,3.1891e-05,0
86.227,-3.1891e-06,0
86.227,2.9374e-05,0
86.228,0.00012807,0
86.228,0.00022307,0
86.229,0.00025328,0
86.229,0.00023482,0
86.23,0.00022408,0
86.23,0.00025026,0
86.231,0.00029021,0
86.231,0.00030901,0
86.232,0.00030297,0
86.232,0.00027712,0
86.233,0.00023314,0
86.233,0.00016684,0
86.234,8.04e-05,0
86.234,-6.3783e-06,0
86.235,-5.8244e-05,0
86.235,-7.7211e-05,0
86.236,-0.00012169,0
86.236,-0.00022089,0
86.237,-0.00033251,0
86.237,-0.00041811,0
86.238,-0.00046209,0
86.239,-0.00044732,0
86.239,-0.00038924,0
86.24,-0.00032378,0
86.24,-0.00024607,0
86.241,-0.00014351,0
86.241,-3.2059e-05,0
86.242,8.2246e-05,0
86.242,0.00019857,0
86.243,0.00031136,0
86.243,0.00040317,0
86.244,0.00044967,0
86.244,0.0004208,0
86.245,0.00034208,0
86.245,0.00026268,0
86.246,0.00016365,0
86.246,1.2253e-05,0
86.247,-0.00013025,0
86.247,-0.00018766,0
86.248,-0.00017121,0
86.248,-0.00012219,0
86.249,-6.3951e-05,0
86.249,-2.8534e-06,0
86.25,5.9251e-05,0
86.25,0.000118,0
86.251,0.00016097,0
86.251,0.0001791,0
86.252,0.00018245,0
86.253,0.00018883,0
86.253,0.00020024,0
86.254,0.00020293,0
86.254,0.00018111,0
86.255,0.00012337,0
86.255,4.0452e-05,0
86.256,-3.357e-05,0
86.256,-8.0903e-05,0
86.257,-0.00010088,0
86.257,-0.00010507,0
86.258,-0.00010289,0
86.258,-9.3324e-05,0
86.259,-8.1407e-05,0
86.259,-7.2679e-05,0
86.26,-8.3421e-05,0
86.26,-0.00010172,0
86.261,-9.987e-05,0
86.261,-8.2414e-05,0
86.262,-7.5532e-05,0
86.262,-8.1239e-05,0
86.263,-6.3447e-05,0
86.263,-1.6785e-07,0
86.264,6.8315e-05,0
86.264,9.3492e-05,0
86.265,7.4357e-05,0
86.266,4.1794e-05,0
86.266,1.1917e-05,0
86.267,-2.4338e-05,0
86.267,-5.9586e-05,0
86.268,-7.1672e-05,0
86.268,-5.8412e-05,0
86.269,-3.743e-05,0
86.269,-4.0452e-05,0
86.27,-8.8289e-05,0
86.27,-0.00015224,0
86.271,-0.00019286,0
86.271,-0.00020545,0
86.272,-0.00021434,0
86.272,-0.00022744,0
86.273,-0.00022206,0
86.273,-0.00018698,0
86.274,-0.00014418,0
86.274,-0.00010423,0
86.275,-4.9516e-05,0
86.275,3.2059e-05,0
86.276,0.00011061,0
86.276,0.00015929,0
86.277,0.00018917,0
86.277,0.00021468,0
86.278,0.00023482,0
86.278,0.00024372,0
86.279,0.00022911,0
86.28,0.0001791,0
86.28,0.00011061,0
86.281,5.5726e-05,0
86.281,3.0213e-05,0
86.282,2.0981e-05,0
86.282,2.1149e-05,0
86.283,4.2634e-05,0
86.283,7.7546e-05,0
86.284,0.00010574,0
86.284,0.00011112,0
86.285,0.00010021,0
86.285,8.7785e-05,0
86.286,5.7572e-05,0
86.286,-1.8128e-05,0
86.287,-0.00010524,0
86.287,-0.00013931,0
86.288,-0.00010289,0
86.288,-3.0381e-05,0
86.289,4.8173e-05,0
86.289,0.00012454,0
86.29,0.00019554,0
86.29,0.00026302,0
86.291,0.00031405,0
86.291,0.00033906,0
86.292,0.00034661,0
86.293,0.00033335,0
86.293,0.00028719,0
86.294,0.00020847,0
86.294,0.00011128,0
86.295,4.8676e-06,0
86.295,-9.2149e-05,0
86.296,-0.00015425,0
86.296,-0.00018329,0
86.297,-0.00018933,0
86.297,-0.00017977,0
86.298,-0.00016332,0
86.298,-0.00014687,0
86.299,-0.0001326,0
86.299,-0.00010944,0
86.3,-6.7475e-05,0
86.3,-5.8747e-06,0
86.301,7.9728e-05,0
86.301,0.00018228,0
86.302,0.00025429,0
86.302,0.00024691,0
86.303,0.00016315,0
86.303,7.1336e-05,0
86.304,2.6184e-05,0
86.304,9.5674e-06,0
86.305,-8.896e-06,0
86.305,-4.9683e-05,0
86.306,-9.3828e-05,0
86.307,-0.00010457,0
86.307,-8.4092e-05,0
86.308,-5.7908e-05,0
86.308,-3.7766e-05,0
86.309,-1.4435e-05,0
86.309,3.4577e-05,0
86.31,0.00010591,0
86.31,0.00016298,0
86.311,0.00017758,0
86.311,0.00016265,0
86.312,0.00014284,0
86.312,0.0001279,0
86.313,0.00011162,0
86.313,8.426e-05,0
86.314,4.1459e-05,0
86.314,-1.7121e-05,0
86.315,-8.4092e-05,0
86.315,-0.00014485,0
86.316,-0.0001895,0
86.316,-0.00020629,0
86.317,-0.00018396,0
86.317,-0.00015056,0
86.318,-0.00014385,0
86.318,-0.00016533,0
86.319,-0.00021384,0
86.32,-0.00028534,0
86.32,-0.00033956,0
86.321,-0.00034711,0
86.321,-0.00030716,0
86.322,-0.00023113,0
86.322,-0.00013982,0
86.323,-5.6733e-05,0
86.323,-4.8676e-06,0
86.324,1.6281e-05,0
86.324,2.501e-05,0
86.325,4.2466e-05,0
86.325,9.6849e-05,0
86.326,0.0001848,0
86.326,0.00026621,0
86.327,0.00030398,0
86.327,0.00028954,0
86.328,0.00024858,0
86.328,0.00022072,0
86.329,0.0002172,0
86.329,0.00023214,0
86.33,0.00025412,0
86.33,0.00027208,0
86.331,0.0002892,0
86.331,0.0003127,0
86.332,0.00032311,0
86.332,0.00029827,0
86.333,0.00024556,0
86.334,0.00018715,0
86.334,0.00013075,0
86.335,8.0735e-05,0
86.335,4.1123e-05,0
86.336,6.5461e-06,0
86.336,-3.1052e-05,0
86.337,-6.5629e-05,0
86.337,-8.4596e-05,0
86.338,-9.4835e-05,0
86.338,-0.00012773,0
86.339,-0.00018766,0
86.339,-0.00024288,0
86.34,-0.00026201,0
86.34,-0.00024657,0
86.341,-0.00020964,0
86.341,-0.00016063,0
86.342,-0.00011481,0
86.342,-9.0471e-05,0
86.343,-8.2078e-05,0
86.343,-6.2104e-05,0
86.344,-1.6953e-05,0
86.344,4.9851e-05,0
86.345,0.00011833,0
86.345,0.00016432,0
86.346,0.00016667,0
86.347,0.0001284,0
86.347,7.7379e-05,0
86.348,4.0116e-05,0
86.348,8.896e-06,0
86.349,-1.3428e-06,0
86.349,2.652e-05,0
86.35,6.6468e-05,0
86.35,6.9322e-05,0
86.351,3.2898e-05,0
86.351,7.3854e-06,0
86.352,1.9638e-05,0
86.352,5.2033e-05,0
86.353,8.275e-05,0
86.353,0.00010188,0
86.354,9.9031e-05,0
86.354,6.9154e-05,0
86.355,3.9109e-05,0
86.355,3.743e-05,0
86.356,4.7837e-05,0
86.356,3.5416e-05,0
86.357,-1.3596e-05,0
86.357,-7.3686e-05,0
86.358,-0.00010642,0
86.358,-9.8863e-05,0
86.359,-7.4357e-05,0
86.359,-5.5894e-05,0
86.36,-3.1891e-05,0
86.361,8.3925e-06,0
86.361,3.1891e-05,0
86.362,2.7695e-05,0
86.362,3.1388e-05,0
86.363,6.6972e-05,0
86.363,0.00011632,0
86.364,0.00013529,0
86.364,0.0001086,0
86.365,6.4286e-05,0
86.365,4.448e-05,0
86.366,5.2537e-05,0
86.366,5.4551e-05,0
86.367,2.3835e-05,0
86.367,-1.6953e-05,0
86.368,-4.0787e-05,0
86.368,-4.9516e-05,0
86.369,-5.4887e-05,0
86.369,-6.7979e-05,0
86.37,-8.661e-05,0
86.37,-9.7017e-05,0
86.371,-0.00010692,0
86.371,-0.00013478,0
86.372,-0.00017406,0
86.372,-0.00020293,0
86.373,-0.00023667,0
86.374,-0.0003117,0
86.374,-0.0003827,0
86.375,-0.00036356,0
86.375,-0.00024573,0
86.376,-9.8527e-05,0
86.376,1.4603e-05,0
86.377,7.1672e-05,0
86.377,0.0001133,0
86.378,0.00020394,0
86.378,0.00032647,0
86.379,0.00040233,0
86.379,0.00039629,0
86.38,0.00033754,0
86.38,0.0002751,0
86.381,0.00023146,0
86.381,0.00018967,0
86.382,0.00013663,0
86.382,8.5771e-05,0
86.383,4.0452e-05,0
86.383,-2.182e-05,0
86.384,-0.00010423,0
86.384,-0.00016886,0
86.385,-0.00019387,0
86.385,-0.00018363,0
86.386,-0.00014083,0
86.386,-6.3783e-05,0
86.387,4.1459e-05,0
86.388,0.0001608,0
86.388,0.00027158,0
86.389,0.00033268,0
86.389,0.0003305,0
86.39,0.00030364,0
86.39,0.0002788,0
86.391,0.00025077,0
86.391,0.00021535,0
86.392,0.00018144,0
86.392,0.00015341,0
86.393,0.00013243,0
86.393,0.00012287,0
86.394,0.00012152,0
86.394,0.00011498,0
86.395,9.7185e-05,0
86.395,6.7475e-05,0
86.396,3.0884e-05,0
86.396,-1.8463e-06,0
86.397,-2.6688e-05,0
86.397,-4.9516e-05,0
86.398,-7.5029e-05,0
86.398,-9.6178e-05,0
86.399,-0.00010306,0
86.399,-0.00010088,0
86.4,-9.5506e-05,0
86.401,-8.7449e-05,0
86.401,-7.5029e-05,0
86.402,-6.6636e-05,0
86.402,-6.3783e-05,0
86.403,-5.4551e-05,0
86.403,-4.2298e-05,0
86.404,-3.6591e-05,0
86.404,-3.6927e-05,0
86.405,-4.0787e-05,0
86.405,-4.5487e-05,0
86.406,-4.9851e-05,0
86.406,-5.3376e-05,0
86.407,-5.0187e-05,0
86.407,-3.7095e-05,0
86.408,-1.9806e-05,0
86.408,-1.7288e-05,0
86.409,-4.1459e-05,0
86.409,-6.6133e-05,0
86.41,-5.9419e-05,0
86.41,-2.2156e-05,0
86.411,1.1414e-05,0
86.411,2.6352e-05,0
86.412,2.9709e-05,0
86.412,2.887e-05,0
86.413,1.9638e-05,0
86.413,5.2033e-06,0
86.414,-1.6785e-06,0
86.415,3.1891e-06,0
86.415,2.5177e-06,0
86.416,-1.5274e-05,0
86.416,-3.8437e-05,0
86.417,-4.0452e-05,0
86.417,-1.6785e-05,0
86.418,1.5274e-05,0
86.418,3.3738e-05,0
86.419,4.4144e-05,0
86.419,6.7308e-05,0
86.42,0.00010054,0
86.42,0.00011749,0
86.421,9.4835e-05,0
86.421,4.6998e-05,0
86.422,-1.091e-05,0
86.422,-8.7785e-05,0
86.423,-0.00018077,0
86.423,-0.00024909,0
86.424,-0.00025731,0
86.424,-0.00022206,0
86.425,-0.00018782,0
86.425,-0.00017607,0
86.426,-0.00018212,0
86.426,-0.00018799,0
86.427,-0.00016265,0
86.428,-7.6875e-05,0
86.428,7.9057e-05,0
86.429,0.00026554,0
86.429,0.00039998,0
86.43,0.00042583,0
86.43,0.00036004,0
86.431,0.00029659,0
86.431,0.00029592,0
86.432,0.00031337,0
86.432,0.00028266,0
86.433,0.00018883,0
86.433,8.7114e-05,0
86.434,3.4745e-05,0
86.434,2.5345e-05,0
86.435,2.031e-05,0
86.435,4.1962e-06,0
86.436,-1.8463e-06,0
86.436,2.7863e-05,0
86.437,9.0471e-05,0
86.437,0.00016466,0
86.438,0.0002318,0
86.438,0.00027141,0
86.439,0.00026839,0
86.439,0.00022458,0
86.44,0.00014855,0
86.441,6.1433e-05,0
86.441,-1.9471e-05,0
86.442,-8.6275e-05,0
86.442,-0.00014351,0
86.443,-0.00018967,0
86.443,-0.00020981,0
86.444,-0.00019387,0
86.444,-0.00015962,0
86.445,-0.00013495,0
86.445,-0.00012404,0
86.446,-0.00012807,0
86.446,-0.00013965,0
86.447,-0.00014234,0
86.447,-0.00013982,0
86.448,-0.00015258,0
86.448,-0.00017675,0
86.449,-0.0001937,0
86.449,-0.00018547,0
86.45,-0.00014351,0
86.45,-7.6204e-05,0
86.451,-3.5248e-06,0
86.451,5.1362e-05,0
86.452,9.5338e-05,0
86.452,0.00014049,0
86.453,0.00018463,0
86.453,0.00022811,0
86.454,0.00027913,0
86.455,0.00033721,0
86.455,0.00038051,0
86.456,0.00037514,0
86.456,0.00030968,0
86.457,0.00021468,0
86.457,0.00013075,0
86.458,6.244e-05,0
86.458,-2.5177e-06,0
86.459,-5.4551e-05,0
86.459,-7.7379e-05,0
86.46,-7.5868e-05,0
86.46,-7.0665e-05,0
86.461,-6.479e-05,0
86.461,-5.4215e-05,0
86.462,-4.0787e-05,0
86.462,-3.2898e-05,0
86.463,-3.7766e-05,0
86.463,-4.9348e-05,0
86.464,-5.4215e-05,0
86.464,-4.8844e-05,0
86.465,-4.3137e-05,0
86.465,-4.5319e-05,0
86.466,-5.7404e-05,0
86.466,-7.805e-05,0
86.467,-9.1478e-05,0
86.468,-8.7282e-05,0
86.468,-6.1936e-05,0
86.469,-2.1653e-05,0
86.469,8.5603e-06,0
86.47,9.0639e-06,0
86.47,-7.8889e-06,0
86.471,-2.501e-05,0
86.471,-3.6759e-05,0
86.472,-2.8367e-05,0
86.472,-1.6785e-06,0
86.473,2.0981e-05,0
86.473,2.1988e-05,0
86.474,7.0497e-06,0
86.474,4.8676e-06,0
86.475,2.4506e-05,0
86.475,4.3137e-05,0
86.476,4.1627e-05,0
86.476,2.6688e-05,0
86.477,6.2104e-06,0
86.477,-2.5681e-05,0
86.478,-6.4622e-05,0
86.478,-0.00010172,0
86.479,-0.00013848,0
86.479,-0.00017121,0
86.48,-0.00017809,0
86.48,-0.0001472,0
86.481,-9.9535e-05,0
86.482,-4.9683e-05,0
86.482,6.2104e-06,0
86.483,6.3279e-05,0
86.483,0.00010994,0
86.484,0.00014418,0
86.484,0.0001791,0
86.485,0.00022139,0
86.485,0.0002647,0
86.486,0.00029995,0
86.486,0.00032714,0
86.487,0.00034157,0
86.487,0.00033318,0
86.488,0.00030448,0
86.488,0.00026688,0
86.489,0.00022441,0
86.489,0.00017406,0
86.49,0.00011582,0
86.49,6.2776e-05,0
86.491,2.4002e-05,0
86.491,1.8463e-06,0
86.492,-1.8463e-06,0
86.492,-3.5248e-06,0
86.493,-1.4267e-05,0
86.493,-2.5177e-05,0
86.494,-3.3402e-05,0
86.495,-4.7501e-05,0
86.495,-6.4286e-05,0
86.496,-6.9154e-05,0
86.496,-7.2007e-05,0
86.497,-7.805e-05,0
86.497,-7.6539e-05,0
86.498,-7.2847e-05,0
86.498,-7.4693e-05,0
86.499,-8.5771e-05,0
86.499,-0.00011028,0
86.5,-0.00013999,0
86.5,-0.00015946,0
86.501,-0.0001702,0
86.501,-0.00019118,0
86.502,-0.00022593,0
86.502,-0.00025463,0
86.503,-0.00025127,0
86.503,-0.0001989,0
86.504,-0.00010927,0
86.504,-2.5849e-05,0
86.505,3.7766e-05,0
86.505,9.0471e-05,0
86.506,0.00014469,0
86.506,0.0002219,0
86.507,0.0003258,0
86.507,0.00042214,0
86.508,0.00046712,0
86.509,0.00044497,0
86.509,0.00036205,0
86.51,0.00024355,0
86.51,0.0001279,0
86.511,4.7837e-05,0
86.511,5.8747e-06,0
86.512,-2.652e-05,0
86.512,-6.1601e-05,0
86.513,-9.6681e-05,0
86.513,-0.00012656,0
86.514,-0.00013243,0
86.514,-0.00010105,0
86.515,-5.388e-05,0
86.515,-2.5681e-05,0
86.516,-3.592e-05,0
86.516,-7.7043e-05,0
86.517,-0.00010625,0
86.517,-0.00010071,0
86.518,-7.1839e-05,0
86.518,-4.9516e-05,0
86.519,-4.213e-05,0
86.519,-3.1891e-05,0
86.52,-1.5106e-06,0
86.52,4.0116e-05,0
86.521,7.805e-05,0
86.522,0.00011968,0
86.522,0.00017339,0
86.523,0.00022643,0
86.523,0.00024472,0
86.524,0.00020964,0
86.524,0.00015459,0
86.525,0.00011984,0
86.525,0.00010793,0
86.526,8.7617e-05,0
86.526,3.743e-05,0
86.527,-2.6184e-05,0
86.527,-8.1071e-05,0
86.528,-0.00011716,0
86.528,-0.00014116,0
86.529,-0.00017876,0
86.529,-0.00022408,0
86.53,-0.00025345,0
86.53,-0.00025966,0
86.531,-0.0002464,0
86.531,-0.00022089,0
86.532,-0.00018195,0
86.532,-0.00012589,0
86.533,-5.3208e-05,0
86.533,3.6088e-05,0
86.534,0.00012656,0
86.534,0.00020797,0
86.535,0.00027024,0
86.536,0.00029844,0
86.536,0.00028383,0
86.537,0.00023449,0
86.537,0.0001744,0
86.538,0.0001321,0
86.538,0.00010994,0
86.539,8.2582e-05,0
86.539,4.0787e-05,0
86.54,-8.2246e-06,0
86.54,-4.6998e-05,0
86.541,-6.9993e-05,0
86.541,-8.51e-05,0
86.542,-9.3492e-05,0
86.542,-8.5771e-05,0
86.543,-6.4454e-05,0
86.543,-3.6759e-05,0
86.544,-6.2104e-06,0
86.544,3.1388e-05,0
86.545,7.9728e-05,0
86.545,0.0001232,0
86.546,0.000142,0
86.546,0.00012605,0
86.547,8.9128e-05,0
86.547,4.8005e-05,0
86.548,9.5674e-06,0
86.549,-2.4674e-05,0
86.549,-5.4383e-05,0
86.55,-7.0329e-05,0
86.55,-7.6371e-05,0
86.551,-8.4764e-05,0
86.551,-9.3492e-05,0
86.552,-9.7017e-05,0
86.552,-9.4163e-05,0
86.553,-8.3925e-05,0
86.553,-7.4693e-05,0
86.554,-8.5939e-05,0
86.554,-0.00011649,0
86.555,-0.00015509,0
86.555,-0.00017372,0
86.556,-0.00014234,0
86.556,-6.3279e-05,0
86.557,2.8702e-05,0
86.557,0.0001034,0
86.558,0.00016567,0
86.558,0.00022408,0
86.559,0.00027779,0
86.559,0.00032345,0
86.56,0.00035366,0
86.56,0.00036289,0
86.561,0.00034493,0
86.561,0.00029894,0
86.562,0.00023851,0
86.563,0.00018631,0
86.563,0.00015459,0
86.564,0.00013109,0
86.564,0.00010726,0
86.565,8.8792e-05,0
86.565,6.8986e-05,0
86.566,3.9445e-05,0
86.566,9.2317e-06,0
86.567,-2.4506e-05,0
86.567,-8.0735e-05,0
86.568,-0.00015425,0
86.568,-0.00021518,0
86.569,-0.00023935,0
86.569,-0.00022811,0
86.57,-0.0002036,0
86.57,-0.00018396,0
86.571,-0.00017037,0
86.571,-0.00014603,0
86.572,-8.661e-05,0
86.572,9.2317e-06,0
86.573,0.000118,0
86.573,0.00021032,0
86.574,0.00025631,0
86.574,0.00023818,0
86.575,0.00018144,0
86.576,0.00013126,0
86.576,9.2485e-05,0
86.577,5.0523e-05,0
86.577,2.031e-05,0
86.578,2.0478e-05,0
86.578,4.4648e-05,0
86.579,6.479e-05,0
86.579,7.3014e-05,0
86.58,8.7785e-05,0
86.58,0.00011749,0
86.581,0.00013596,0
86.581,0.00011263,0
86.582,5.9586e-05,0
86.582,6.2104e-06,0
86.583,-5.0019e-05,0
86.583,-0.00011699,0
86.584,-0.00017473,0
86.584,-0.0002088,0
86.585,-0.00022559,0
86.585,-0.00021837,0
86.586,-0.00019689,0
86.586,-0.00018144,0
86.587,-0.0001791,0
86.587,-0.00018715,0
86.588,-0.00019286,0
86.588,-0.00017826,0
86.589,-0.00013696,0
86.59,-8.0232e-05,0
86.59,-3.3738e-05,0
86.591,-2.0645e-05,0
86.591,-3.6088e-05,0
86.592,-4.5655e-05,0
86.592,-3.7766e-05,0
86.593,-2.7527e-05,0
86.593,-2.8367e-05,0
86.594,-4.3137e-05,0
86.594,-4.448e-05,0
86.595,-1.4603e-05,0
86.595,2.9877e-05,0
86.596,5.9419e-05,0
86.596,5.8579e-05,0
86.597,4.1123e-05,0
86.597,2.9374e-05,0
86.598,3.4073e-05,0
86.598,5.7572e-05,0
86.599,0.00010054,0
86.599,0.00015895,0
86.6,0.00022744,0
86.6,0.00028618,0
86.601,0.000308,0
86.601,0.00026973,0
86.602,0.00019454,0
86.603,0.00013545,0
86.603,0.00011296,0
86.604,0.00011128,0
86.604,0.00011699,0
86.605,0.00012001,0
86.605,0.00012538,0
86.606,0.00013545,0
86.606,0.00014418,0
86.607,0.0001472,0
86.607,0.00014536,0
86.608,0.00013797,0
86.608,0.00011984,0
86.609,8.9799e-05,0
86.609,5.5222e-05,0
86.61,2.1653e-05,0
86.61,-1.4603e-05,0
86.611,-5.8579e-05,0
86.611,-9.8527e-05,0
86.612,-0.0001185,0
86.612,-0.00011699,0
86.613,-0.00010138,0
86.613,-7.8386e-05,0
86.614,-5.5222e-05,0
86.614,-3.9109e-05,0
86.615,-2.5849e-05,0
86.615,-1.2589e-05,0
86.616,-5.539e-06,0
86.617,-5.0355e-07,0
86.617,1.7288e-05,0
86.618,4.0116e-05,0
86.618,4.6159e-05,0
86.619,2.3835e-05,0
86.619,-1.3092e-05,0
86.62,-4.1291e-05,0
86.62,-6.2943e-05,0
86.621,-9.1646e-05,0
86.621,-0.00011196,0
86.622,-0.00010407,0
86.622,-6.9993e-05,0
86.623,-2.2995e-05,0
86.623,1.3596e-05,0
86.624,3.1388e-05,0
86.624,4.918e-05,0
86.625,8.2414e-05,0
86.625,0.00012169,0
86.626,0.00015492,0
86.626,0.00017675,0
86.627,0.0001791,0
86.627,0.0001655,0
86.628,0.00014284,0
86.628,0.00011196,0
86.629,7.1672e-05,0
86.629,3.3738e-05,0
86.63,3.5248e-06,0
86.631,-1.8296e-05,0
86.631,-2.8031e-05,0
86.632,-3.0213e-05,0
86.632,-2.5513e-05,0
86.633,-1.7792e-05,0
86.633,-1.2253e-05,0
86.634,-6.5461e-06,0
86.634,-1.6785e-07,0
86.635,7.3854e-06,0
86.635,1.9806e-05,0
86.636,2.8031e-05,0
86.636,1.7121e-05,0
86.637,-1.8967e-05,0
86.637,-6.2608e-05,0
86.638,-9.5842e-05,0
86.638,-0.00011095,0
86.639,-9.8863e-05,0
86.639,-6.3279e-05,0
86.64,-1.5946e-05,0
86.64,2.266e-05,0
86.641,3.6759e-05,0
86.641,4.448e-05,0
86.642,7.2343e-05,0
86.642,0.00011246,0
86.643,0.00013176,0
86.644,0.00010726,0
86.644,4.6494e-05,0
86.645,-2.4002e-05,0
86.645,-7.4693e-05,0
86.646,-9.3492e-05,0
86.646,-9.9199e-05,0
86.647,-0.00010843,0
86.647,-0.00012203,0
86.648,-0.00012454,0
86.648,-8.2078e-05,0
86.649,-4.5319e-06,0
86.649,5.7404e-05,0
86.65,6.1433e-05,0
86.65,1.0239e-05,0
86.651,-4.1794e-05,0
86.651,-4.1123e-05,0
86.652,5.539e-06,0
86.652,4.683e-05,0
86.653,5.623e-05,0
86.653,4.683e-05,0
86.654,3.2898e-05,0
86.654,2.0645e-05,0
86.655,1.3596e-05,0
86.655,1.5106e-06,0
86.656,-9.0639e-06,0
86.656,5.8747e-06,0
86.657,6.1601e-05,0
86.658,0.00012992,0
86.658,0.00016281,0
86.659,0.00014418,0
86.659,9.8527e-05,0
86.66,6.3447e-05,0
86.66,5.388e-05,0
86.661,6.1936e-05,0
86.661,8.4092e-05,0
86.662,0.00012522,0
86.662,0.00017238,0
86.663,0.00019252,0
86.663,0.00017842,0
86.664,0.00015023,0
86.664,0.00011263,0
86.665,4.6159e-05,0
86.665,-4.918e-05,0
86.666,-0.00014653,0
86.666,-0.00020444,0
86.667,-0.00020729,0
86.667,-0.0001707,0
86.668,-0.00011598,0
86.668,-5.7237e-05,0
86.669,-3.6927e-06,0
86.669,3.6423e-05,0
86.67,6.5293e-05,0
86.671,9.2485e-05,0
86.671,0.00012203,0
86.672,0.00015056,0
86.672,0.00016953,0
86.673,0.00017171,0
86.673,0.00015358,0
86.674,0.00010826,0
86.674,3.9445e-05,0
86.675,-3.8102e-05,0
86.675,-9.3324e-05,0
86.676,-9.6513e-05,0
86.676,-6.6972e-05,0
86.677,-4.4144e-05,0
86.677,-4.3137e-05,0
86.678,-4.5991e-05,0
86.678,-1.9806e-05,0
86.679,5.304e-05,0
86.679,0.00014737,0
86.68,0.00022341,0
86.68,0.00026738,0
86.681,0.00028568,0
86.681,0.00027443,0
86.682,0.00022844,0
86.682,0.00016533,0
86.683,0.00010776,0
86.683,4.5151e-05,0
86.684,-5.6565e-05,0
86.685,-0.00019152,0
86.685,-0.00030767,0
86.686,-0.00037682,0
86.686,-0.00041979,0
86.687,-0.00045151,0
86.687,-0.00045252,0
86.688,-0.00040552,0
86.688,-0.00031623,0
86.689,-0.00021183,0
86.689,-0.00010961,0
86.69,-7.5532e-06,0
86.69,0.00011682,0
86.691,0.00027108,0
86.691,0.00041912,0
86.692,0.00050204,0
86.692,0.00047921,0
86.693,0.00035702,0
86.693,0.00021317,0
86.694,0.00013176,0
86.694,0.00011397,0
86.695,0.00011212,0
86.695,0.00011414,0
86.696,0.00012773,0
86.696,0.00015509,0
86.697,0.000189,0
86.698,0.00021468,0
86.698,0.00023398,0
86.699,0.00026755,0
86.699,0.00029038,0
86.7,0.00026503,0
86.7,0.00018631,0
86.701,7.9728e-05,0
86.701,-2.5177e-06,0
86.702,-4.8508e-05,0
86.702,-8.4428e-05,0
86.703,-0.00013814,0
86.703,-0.0002036,0
86.704,-0.00022593,0
86.704,-0.00017977,0
86.705,-0.00011179,0
86.705,-9.8527e-05,0
86.706,-0.00017624,0
86.706,-0.00029474,0
86.707,-0.00036591,0
86.707,-0.00036255,0
86.708,-0.0003117,0
86.708,-0.00025547,0
86.709,-0.00021804,0
86.709,-0.00019034,0
86.71,-0.00015224,0
86.71,-0.00010474,0
86.711,-5.1698e-05,0
86.712,9.0639e-06,0
86.712,7.5029e-05,0
86.713,0.00011934,0
86.713,0.00010893,0
86.714,4.0452e-05,0
86.714,-5.5222e-05,0
86.715,-0.00012807,0
86.715,-0.0001472,0
86.716,-0.00011397,0
86.716,-4.8005e-05,0
86.717,2.6688e-05,0
86.717,9.1142e-05,0
86.718,0.00014687,0
86.718,0.00019319,0
86.719,0.00022811,0
86.719,0.00024221,0
86.72,0.00021686,0
86.72,0.00015174,0
86.721,7.1839e-05,0
86.721,-5.0355e-07,0
86.722,-5.1026e-05,0
86.722,-6.4622e-05,0
86.723,-4.3809e-05,0
86.723,-1.796e-05,0
86.724,-7.5532e-06,0
86.725,1.1749e-06,0
86.725,2.3667e-05,0
86.726,6.009e-05,0
86.726,0.00010809,0
86.727,0.00015442,0
86.727,0.00018379,0
86.728,0.00018984,0
86.728,0.00016802,0
86.729,0.0001279,0
86.729,9.2653e-05,0
86.73,7.2679e-05,0
86.73,7.1e-05,0
86.731,8.8121e-05,0
86.731,0.00010574,0
86.732,0.00010071,0
86.732,7.0832e-05,0
86.733,3.3066e-05,0
86.733,3.1891e-06,0
86.734,-1.2253e-05,0
86.734,-2.2995e-05,0
86.735,-4.6494e-05,0
86.735,-7.4693e-05,0
86.736,-9.6178e-05,0
86.736,-0.00011901,0
86.737,-0.00014704,0
86.737,-0.00017876,0
86.738,-0.00020662,0
86.739,-0.00022223,0
86.739,-0.00021669,0
86.74,-0.0001796,0
86.74,-0.00010927,0
86.741,-2.1653e-05,0
86.741,6.5461e-05,0
86.742,0.00014469,0
86.742,0.00020427,0
86.743,0.00022911,0
86.743,0.00023062,0
86.744,0.00023583,0
86.744,0.00024959,0
86.745,0.00025127,0
86.745,0.0002177,0
86.746,0.00013948,0
86.746,3.1052e-05,0
86.747,-3.508e-05,0
86.747,-1.2924e-05,0
86.748,5.8579e-05,0
86.748,0.00010625,0
86.749,0.00010675,0
86.749,0.00010726,0
86.75,0.00014972,0
86.75,0.00020159,0
86.751,0.00021703,0
86.752,0.00019168,0
86.752,0.00014217,0
86.753,8.275e-05,0
86.753,1.796e-05,0
86.754,-3.4409e-05,0
86.754,-6.9993e-05,0
86.755,-8.1743e-05,0
86.755,-6.1601e-05,0
86.756,-2.3667e-05,0
86.756,2.1317e-05,0
86.757,4.8676e-05,0
86.757,3.0381e-05,0
86.758,-9.7353e-06,0
86.758,-2.7695e-05,0
86.759,-2.2995e-05,0
86.759,-1.2924e-05,0
86.76,2.182e-06,0
86.76,1.1917e-05,0
86.761,3.1891e-06,0
86.761,-2.1149e-05,0
86.762,-3.7934e-05,0
86.762,-3.1891e-05,0
86.763,-1.9974e-05,0
86.763,-1.5274e-05,0
86.764,6.714e-06,0
86.764,6.8315e-05,0
86.765,0.00014032,0
86.766,0.00017087,0
86.766,0.00014351,0
86.767,7.8553e-05,0
86.767,3.5248e-06,0
86.768,-5.388e-05,0
86.768,-7.5868e-05,0
86.769,-7.7882e-05,0
86.769,-8.6778e-05,0
86.77,-0.00011162,0
86.77,-0.00014284,0
86.771,-0.00017137,0
86.771,-0.00018682,0
86.772,-0.00017641,0
86.772,-0.00014351,0
86.773,-0.00010356,0
86.773,-6.7308e-05,0
86.774,-3.5248e-05,0
86.774,-1.4099e-05,0
86.775,-8.5603e-06,0
86.775,-1.2253e-05,0
86.776,-2.1317e-05,0
86.776,-2.652e-05,0
86.777,-1.3931e-05,0
86.777,4.0284e-06,0
86.778,1.1749e-06,0
86.779,-1.6953e-05,0
86.779,-2.1653e-05,0
86.78,-9.9031e-06,0
86.78,-1.0575e-05,0
86.781,-3.1556e-05,0
86.781,-4.8508e-05,0
86.782,-5.153e-05,0
86.782,-5.5558e-05,0
86.783,-7.5364e-05,0
86.783,-0.00011867,0
86.784,-0.00018698,0
86.784,-0.00023381,0
86.785,-0.00020948,0
86.785,-0.0001284,0
86.786,-3.7095e-05,0
86.786,5.153e-05,0
86.787,0.00015677,0
86.787,0.00027242,0
86.788,0.0003555,0
86.788,0.0003743,0
86.789,0.00034057,0
86.789,0.00029357,0
86.79,0.00026017,0
86.79,0.00024254,0
86.791,0.00021988,0
86.791,0.00015962,0
86.792,6.4118e-05,0
86.793,-2.1653e-05,0
86.793,-6.0929e-05,0
86.794,-6.3615e-05,0
86.794,-5.5222e-05,0
86.795,-3.8773e-05,0
86.795,-8.7282e-06,0
86.796,4.1794e-05,0
86.796,0.00010037,0
86.797,0.00014334,0
86.797,0.00017171,0
86.798,0.00019655,0
86.798,0.00021132,0
86.799,0.00021267,0
86.799,0.00020914,0
86.8,0.0002177,0
86.8,0.00023314,0
86.801,0.00022676,0
86.801,0.00017708,0
86.802,0.00010121,0
86.802,4.2634e-05,0
86.803,1.7624e-05,0
86.803,-1.1078e-05,0
86.804,-5.5222e-05,0
86.804,-7.9057e-05,0
86.805,-7.7714e-05,0
86.806,-6.8147e-05,0
86.806,-7.0329e-05,0
86.807,-9.5506e-05,0
86.807,-0.0001232,0
86.808,-0.00013713,0
86.808,-0.00015644,0
86.809,-0.00018984,0
86.809,-0.00021032,0
86.81,-0.00019907,0
86.81,-0.00016634,0
86.811,-0.00014049,0
86.811,-0.00013982,0
86.812,-0.00014788,0
86.812,-0.0001378,0
86.813,-0.00010994,0
86.813,-7.335e-05,0
86.814,-1.9303e-05,0
86.814,4.7837e-05,0
86.815,9.9199e-05,0
86.815,0.00010826,0
86.816,7.6707e-05,0
86.816,2.5681e-05,0
86.817,-3.2731e-05,0
86.817,-9.1142e-05,0
86.818,-0.00013411,0
86.819,-0.0001514,0
86.819,-0.00015375,0
86.82,-0.00013713,0
86.82,-8.9967e-05,0
86.821,-2.5681e-05,0
86.821,4.0116e-05,0
86.822,9.6178e-05,0
86.822,0.00013008,0
86.823,0.00014133,0
86.823,0.00015023,0
86.824,0.00017423,0
86.824,0.00019756,0
86.825,0.00018648,0
86.825,0.00015392,0
86.826,0.00013495,0
86.826,0.00014586,0
86.827,0.00017641,0
86.827,0.00020696,0
86.828,0.00022072,0
86.828,0.00021334,0
86.829,0.00019185,0
86.829,0.00016365,0
86.83,0.00013814,0
86.83,0.000118,0
86.831,0.00010356,0
86.831,0.00010256,0
86.832,0.00011531,0
86.833,0.00012605,0
86.833,0.00012924,0
86.834,0.00012454,0
86.834,0.0001086,0
86.835,7.8889e-05,0
86.835,3.0213e-05,0
86.836,-2.6856e-05,0
86.836,-7.7211e-05,0
86.837,-0.00010944,0
86.837,-0.00011028,0
86.838,-8.8792e-05,0
86.838,-7.8218e-05,0
86.839,-9.3828e-05,0
86.839,-0.00011447,0
86.84,-0.00010172,0
86.84,-5.6397e-05,0
86.841,-1.561e-05,0
86.841,-1.1749e-06,0
86.842,-1.1078e-05,0
86.842,-3.1891e-05,0
86.843,-5.4215e-05,0
86.843,-6.9322e-05,0
86.844,-7.6371e-05,0
86.844,-8.661e-05,0
86.845,-0.00011095,0
86.846,-0.00014519,0
86.846,-0.00016533,0
86.847,-0.0001608,0
86.847,-0.00014687,0
86.848,-0.0001373,0
86.848,-0.00012505,0
86.849,-0.0001039,0
86.849,-8.3421e-05,0
86.85,-7.2175e-05,0
86.85,-6.4286e-05,0
86.851,-4.5151e-05,0
86.851,-7.2175e-06,0
86.852,4.0452e-05,0
86.852,9.6513e-05,0
86.853,0.00013713,0
86.853,0.00013411,0
86.854,0.00011431,0
86.854,0.00011263,0
86.855,0.00011867,0
86.855,0.00010323,0
86.856,7.5029e-05,0
86.856,6.1097e-05,0
86.857,7.4022e-05,0
86.857,0.0001086,0
86.858,0.00013462,0
86.858,0.00013193,0
86.859,0.00011263,0
86.86,9.9199e-05,0
86.86,0.00010256,0
86.861,0.00013075,0
86.861,0.00018782,0
86.862,0.00025496,0
86.862,0.00029978,0
86.863,0.00029659,0
86.863,0.00023079,0
86.864,0.00012236,0
86.864,4.3641e-06,0
86.865,-9.7017e-05,0
86.865,-0.00015946,0
86.866,-0.0001707,0
86.866,-0.00015677,0
86.867,-0.00013898,0
86.867,-0.00011229,0
86.868,-8.8289e-05,0
86.868,-9.366e-05,0
86.869,-0.00011431,0
86.869,-0.00013227,0
86.87,-0.00015677,0
86.87,-0.00018245,0
86.871,-0.00018312,0
86.871,-0.00015996,0
86.872,-0.00012857,0
86.873,-9.1478e-05,0
86.873,-4.062e-05,0
86.874,2.3667e-05,0
86.874,8.8121e-05,0
86.875,0.00013227,0
86.875,0.00014401,0
86.876,0.00017171,0
86.876,0.00026537,0
86.877,0.00037699,0
86.877,0.00042751,0
86.878,0.0003973,0
86.878,0.00031875,0
86.879,0.00023784,0
86.879,0.00017507,0
86.88,0.00012287,0
86.88,8.3085e-05,0
86.881,4.8173e-05,0
86.881,-9.0639e-06,0
86.882,-9.4163e-05,0
86.882,-0.00016466,0
86.883,-0.00019655,0
86.883,-0.00021166,0
86.884,-0.00023482,0
86.884,-0.00024892,0
86.885,-0.0002219,0
86.885,-0.00016835,0
86.886,-0.00013982,0
86.887,-0.00014636,0
86.887,-0.00015694,0
86.888,-0.00015895,0
86.888,-0.0001613,0
86.889,-0.00016768,0
86.889,-0.00016701,0
86.89,-0.00014821,0
86.89,-0.0001274,0
86.891,-0.00011548,0
86.891,-9.0471e-05,0
86.892,-2.9877e-05,0
86.892,5.8747e-05,0
86.893,0.0001519,0
86.893,0.00022811,0
86.894,0.00026705,0
86.894,0.00026806,0
86.895,0.00026084,0
86.895,0.00027041,0
86.896,0.00028971,0
86.896,0.00030448,0
86.897,0.00031254,0
86.897,0.00031237,0
86.898,0.0003033,0
86.898,0.00028115,0
86.899,0.0002407,0
86.9,0.00018967,0
86.9,0.00014855,0
86.901,0.00012186,0
86.901,9.0135e-05,0
86.902,4.8508e-05,0
86.902,-4.3641e-06,0
86.903,-6.8818e-05,0
86.903,-0.0001331,0
86.904,-0.00018111,0
86.904,-0.00020629,0
86.905,-0.00020528,0
86.905,-0.00017859,0
86.906,-0.00014871,0
86.906,-0.0001279,0
86.907,-9.9535e-05,0
86.907,-5.6062e-05,0
86.908,-1.4939e-05,0
86.908,2.5177e-06,0
86.909,-8.3925e-07,0
86.909,2.5177e-06,0
86.91,2.9038e-05,0
86.91,5.5894e-05,0
86.911,6.3615e-05,0
86.911,5.4887e-05,0
86.912,3.508e-05,0
86.912,6.5461e-06,0
86.913,-2.2156e-05,0
86.914,-4.6326e-05,0
86.914,-6.6133e-05,0
86.915,-7.9393e-05,0
86.915,-8.04e-05,0
86.916,-6.7475e-05,0
86.916,-4.5823e-05,0
86.917,-2.266e-05,0
86.917,-4.1962e-06,0
86.918,4.3641e-06,0
86.918,7.8889e-06,0
86.919,1.4267e-05,0
86.919,2.2324e-05,0
86.92,3.122e-05,0
86.92,3.4409e-05,0
86.921,2.9374e-05,0
86.921,2.0645e-05,0
86.922,1.1917e-05,0
86.922,4.6998e-06,0
86.923,1.6785e-06,0
86.923,1.6785e-07,0
86.924,1.5106e-06,0
86.924,1.091e-05,0
86.925,2.7024e-05,0
86.925,3.9277e-05,0
86.926,4.3473e-05,0
86.927,4.1459e-05,0
86.927,3.508e-05,0
86.928,3.0045e-05,0
86.928,3.0381e-05,0
86.929,3.3066e-05,0
86.929,3.5248e-05,0
86.93,3.4241e-05,0
86.93,2.7024e-05,0
86.931,8.896e-06,0
86.931,-1.3596e-05,0
86.932,-2.6017e-05,0
86.932,-2.1988e-05,0
86.933,-3.357e-07,0
86.933,2.652e-05,0
86.934,3.2731e-05,0
86.934,1.6281e-05,0
86.935,0,0
86.935,-6.5461e-06,0
86.936,-8.5603e-06,0
86.936,-1.2253e-05,0
86.937,-1.7288e-05,0
86.937,-2.031e-05,0
86.938,-1.4267e-05,0
86.938,-2.8534e-06,0
86.939,7.3854e-06,0
86.939,1.0575e-05,0
86.94,7.3854e-06,0
86.941,7.0497e-06,0
86.941,2.0645e-05,0
86.942,4.9516e-05,0
86.942,7.6539e-05,0
86.943,9.0471e-05,0
86.943,9.0135e-05,0
86.944,7.4357e-05,0
86.944,5.7572e-05,0
86.945,7.3014e-05,0
86.945,0.00013109,0
86.946,0.00021334,0
86.946,0.00026906,0
86.947,0.00026889,0
86.947,0.0002318,0
86.948,0.00017893,0
86.948,0.00011531,0
86.949,4.2802e-05,0
86.949,-2.5849e-05,0
86.95,-6.9657e-05,0
86.95,-7.7882e-05,0
86.951,-7.3686e-05,0
86.951,-7.5364e-05,0
86.952,-7.2343e-05,0
86.952,-7.2007e-05,0
86.953,-8.275e-05,0
86.954,-9.6345e-05,0
86.954,-0.00010642,0
86.955,-0.00010272,0
86.955,-8.2078e-05,0
86.956,-5.8915e-05,0
86.956,-4.3809e-05,0
86.957,-2.887e-05,0
86.957,3.8605e-06,0
86.958,5.6565e-05,0
86.958,0.0001133,0
86.959,0.00017104,0
86.959,0.00022643,0
86.96,0.00026168,0
86.96,0.00027242,0
86.961,0.00026436,0
86.961,0.00022676,0
86.962,0.00015912,0
86.962,9.9702e-05,0
86.963,7.4189e-05,0
86.963,6.0258e-05,0
86.964,1.6617e-05,0
86.964,-5.9251e-05,0
86.965,-0.00011682,0
86.965,-0.00011968,0
86.966,-7.9225e-05,0
86.966,-2.9374e-05,0
86.967,1.1078e-05,0
86.968,3.4745e-05,0
86.968,4.2466e-05,0
86.969,3.978e-05,0
86.969,2.6017e-05,0
86.97,1.8463e-06,0
86.97,-1.2421e-05,0
86.971,-2.2492e-05,0
86.971,-4.6326e-05,0
86.972,-7.8889e-05,0
86.972,-0.00010088,0
86.973,-0.00010608,0
86.973,-9.5338e-05,0
86.974,-5.2873e-05,0
86.974,9.5674e-06,0
86.975,5.774e-05,0
86.975,8.4932e-05,0
86.976,0.00010323,0
86.976,0.00010054,0
86.977,7.7043e-05,0
86.977,5.3544e-05,0
86.978,2.2828e-05,0
86.978,-3.1556e-05,0
86.979,-0.00011044,0
86.979,-0.00018732,0
86.98,-0.00023214,0
86.981,-0.00023482,0
86.981,-0.00020897,0
86.982,-0.00017507,0
86.982,-0.00015593,0
86.983,-0.00015392,0
86.983,-0.00013327,0
86.984,-6.5461e-05,0
86.984,2.4506e-05,0
86.985,8.3421e-05,0
86.985,8.5267e-05,0
86.986,3.0381e-05,0
86.986,-5.2537e-05,0
86.987,-0.00012589,0
86.987,-0.00016197,0
86.988,-0.00014922,0
86.988,-9.2317e-05,0
86.989,-1.1917e-05,0
86.989,5.4719e-05,0
86.99,7.2343e-05,0
86.99,7.1672e-05,0
86.991,0.00010658,0
86.991,0.00017171,0
86.992,0.00022509,0
86.992,0.00026235,0
86.993,0.00030666,0
86.993,0.00034963,0
86.994,0.00035702,0
86.995,0.00031791,0
86.995,0.00025261,0
86.996,0.00018849,0
86.996,0.00013462,0
86.997,9.7353e-05,0
86.997,8.8121e-05,0
86.998,9.4835e-05,0
86.998,9.1142e-05,0
86.999,6.7643e-05,0
86.999,2.6688e-05,0
87,-2.9038e-05,0
87,-7.2175e-05,0
87.001,-7.3518e-05,0
87.001,-4.6159e-05,0
87.002,-2.9206e-05,0
87.002,-3.6088e-05,0
87.003,-4.8844e-05,0
87.003,-5.069e-05,0
87.004,-4.5487e-05,0
87.004,-4.6326e-05,0
87.005,-6.5126e-05,0
87.005,-0.00010591,0
87.006,-0.00015023,0
87.006,-0.00019722,0
87.007,-0.00025748,0
87.007,-0.00031858,0
87.008,-0.00035064,0
87.009,-0.0003357,0
87.009,-0.00027108,0
87.01,-0.0001707,0
87.01,-6.0258e-05,0
87.011,3.5416e-05,0
87.011,0.00011128,0
87.012,0.00018027,0
87.012,0.00024623,0
87.013,0.00030918,0
87.013,0.0003691,0
87.014,0.00041878,0
87.014,0.00044077,0
87.015,0.00041677,0
87.015,0.00034459,0
87.016,0.00025077,0
87.016,0.00017356,0
87.017,0.0001326,0
87.017,0.0001232,0
87.018,0.00012941,0
87.018,0.0001284,0
87.019,0.00011061,0
87.019,8.4428e-05,0
87.02,6.0426e-05,0
87.02,3.9277e-05,0
87.021,1.9974e-05,0
87.022,-2.5177e-06,0
87.022,-3.0549e-05,0
87.023,-6.1769e-05,0
87.023,-8.896e-05,0
87.024,-0.00010306,0
87.024,-0.00010457,0
87.025,-0.00010306,0
87.025,-0.00010155,0
87.026,-9.5003e-05,0
87.026,-7.9393e-05,0
87.027,-6.4622e-05,0
87.027,-7.4693e-05,0
87.028,-0.00011431,0
87.028,-0.00015207,0
87.029,-0.00015526,0
87.029,-0.00013814,0
87.03,-0.00012068,0
87.03,-0.0001044,0
87.031,-8.6275e-05,0
87.031,-7.1e-05,0
87.032,-5.774e-05,0
87.032,-3.0213e-05,0
87.033,2.5345e-05,0
87.033,9.987e-05,0
87.034,0.00016953,0
87.034,0.00021602,0
87.035,0.0002271,0
87.036,0.00021166,0
87.036,0.00017641,0
87.037,0.00012874,0
87.037,8.51e-05,0
87.038,4.8676e-05,0
87.038,1.2421e-05,0
87.039,-2.8702e-05,0
87.039,-6.8986e-05,0
87.04,-8.9799e-05,0
87.04,-8.4764e-05,0
87.041,-6.9657e-05,0
87.041,-5.6062e-05,0
87.042,-3.0549e-05,0
87.042,1.3596e-05,0
87.043,5.6733e-05,0
87.043,8.5771e-05,0
87.044,0.00010625,0
87.044,0.00011917,0
87.045,0.00011582,0
87.045,8.1407e-05,0
87.046,1.796e-05,0
87.046,-2.9541e-05,0
87.047,-2.6688e-05,0
87.047,-3.6927e-06,0
87.048,-8.3925e-07,0
87.049,-3.3738e-05,0
87.049,-8.0064e-05,0
87.05,-0.00011917,0
87.05,-0.00015157,0
87.051,-0.0001942,0
87.051,-0.00024137,0
87.052,-0.00024691,0
87.052,-0.00017809,0
87.053,-6.5461e-05,0
87.053,3.3738e-05,0
87.054,9.5842e-05,0
87.054,0.00012605,0
87.055,0.00012236,0
87.055,9.3828e-05,0
87.056,8.2918e-05,0
87.056,0.00012068,0
87.057,0.00017473,0
87.057,0.00019118,0
87.058,0.00014452,0
87.058,2.7359e-05,0
87.059,-0.00012673,0
87.059,-0.0002647,0
87.06,-0.00034778,0
87.06,-0.00034325,0
87.061,-0.00024724,0
87.061,-9.9199e-05,0
87.062,4.5151e-05,0
87.063,0.00014871,0
87.063,0.00021267,0
87.064,0.00026604,0
87.064,0.00034191,0
87.065,0.00044295,0
87.065,0.0005247,0
87.066,0.00054568,0
87.066,0.00050741,0
87.067,0.0004354,0
87.067,0.00035802,0
87.068,0.00029659,0
87.068,0.00026436,0
87.069,0.00024489,0
87.069,0.00018849,0
87.07,4.7669e-05,0
87.07,-0.0001556,0
87.071,-0.000307,0
87.071,-0.00034308,0
87.072,-0.0003033,0
87.072,-0.00025866,0
87.073,-0.0002365,0
87.073,-0.00021451,0
87.074,-0.00016751,0
87.074,-9.1814e-05,0
87.075,-1.3931e-05,0
87.076,4.8508e-05,0
87.076,8.9799e-05,0
87.077,9.6513e-05,0
87.077,5.9251e-05,0
87.078,-4.5319e-06,0
87.078,-6.2104e-05,0
87.079,-9.0639e-05,0
87.079,-9.3492e-05,0
87.08,-8.896e-05,0
87.08,-8.4932e-05,0
87.081,-7.57e-05,0
87.081,-5.8915e-05,0
87.082,-4.0452e-05,0
87.082,-2.7863e-05,0
87.083,-2.3499e-05,0
87.083,-1.6617e-05,0
87.084,-1.091e-05,0
87.084,-3.3402e-05,0
87.085,-6.2943e-05,0
87.085,-5.4383e-05,0
87.086,-1.0407e-05,0
87.086,2.9038e-05,0
87.087,4.2298e-05,0
87.087,5.2537e-05,0
87.088,9.5842e-05,0
87.088,0.00016164,0
87.089,0.00020092,0
87.09,0.00018598,0
87.09,0.00014284,0
87.091,9.7017e-05,0
87.091,4.4816e-05,0
87.092,-2.182e-05,0
87.092,-0.00010356,0
87.093,-0.00020075,0
87.093,-0.00029374,0
87.094,-0.00034493,0
87.094,-0.00034694,0
87.095,-0.00032294,0
87.095,-0.00028551,0
87.096,-0.00023297,0
87.096,-0.00016315,0
87.097,-7.8386e-05,0
87.097,6.2104e-06,0
87.098,8.0064e-05,0
87.098,0.00015996,0
87.099,0.00026168,0
87.099,0.00036574,0
87.1,0.00042567,0
87.1,0.0004119,0
87.101,0.00033654,0
87.101,0.00023667,0
87.102,0.00015023,0
87.103,9.6849e-05,0
87.103,7.0832e-05,0
87.104,4.9851e-05,0
87.104,2.2324e-05,0
87.105,-8.2246e-06,0
87.105,-2.9038e-05,0
87.106,-2.7695e-05,0
87.106,-1.1917e-05,0
87.107,1.3428e-06,0
87.107,1.4603e-05,0
87.108,3.7095e-05,0
87.108,6.3615e-05,0
87.109,8.1743e-05,0
87.109,8.1743e-05,0
87.11,5.9419e-05,0
87.11,2.9877e-05,0
87.111,1.4939e-05,0
87.111,1.7288e-05,0
87.112,2.266e-05,0
87.112,2.4338e-05,0
87.113,2.7024e-05,0
87.113,3.0549e-05,0
87.114,2.6352e-05,0
87.114,1.8967e-05,0
87.115,2.266e-05,0
87.115,3.8437e-05,0
87.116,5.3376e-05,0
87.117,5.3544e-05,0
87.117,5.0523e-05,0
87.118,5.7237e-05,0
87.118,6.6133e-05,0
87.119,6.5126e-05,0
87.119,5.6062e-05,0
87.12,4.7501e-05,0
87.12,4.8173e-05,0
87.121,6.244e-05,0
87.121,8.661e-05,0
87.122,0.00011196,0
87.122,0.0001274,0
87.123,0.00012538,0
87.123,0.00010256,0
87.124,6.3783e-05,0
87.124,1.3596e-05,0
87.125,-4.7166e-05,0
87.125,-0.00011397,0
87.126,-0.00017591,0
87.126,-0.0002318,0
87.127,-0.00026806,0
87.127,-0.00026151,0
87.128,-0.00021418,0
87.128,-0.00015325,0
87.129,-0.00010306,0
87.13,-7.0497e-05,0
87.13,-4.3641e-05,0
87.131,-5.7069e-06,0
87.131,4.4648e-05,0
87.132,0.00010021,0
87.132,0.00015291,0
87.133,0.00019991,0
87.133,0.00022408,0
87.134,0.00020964,0
87.134,0.00016768,0
87.135,0.00012303,0
87.135,8.3085e-05,0
87.136,4.3809e-05,0
87.136,5.2033e-06,0
87.137,-2.0981e-05,0
87.137,-2.9877e-05,0
87.138,-3.1052e-05,0
87.138,-2.7527e-05,0
87.139,-1.561e-05,0
87.139,-3.1891e-06,0
87.14,2.182e-06,0
87.14,5.8747e-06,0
87.141,1.0239e-05,0
87.141,-2.8534e-06,0
87.142,-4.1123e-05,0
87.142,-9.0806e-05,0
87.143,-0.0001237,0
87.144,-0.00012538,0
87.144,-0.00012958,0
87.145,-0.00014536,0
87.145,-0.00012505,0
87.146,-5.1362e-05,0
87.146,3.357e-05,0
87.147,8.8792e-05,0
87.147,0.00012169,0
87.148,0.00015795,0
87.148,0.00019185,0
87.149,0.00018614,0
87.149,0.00012807,0
87.15,5.388e-05,0
87.15,3.1891e-06,0
87.151,-1.8967e-05,0
87.151,-2.4506e-05,0
87.152,-1.1582e-05,0
87.152,2.3667e-05,0
87.153,6.3615e-05,0
87.153,9.1142e-05,0
87.154,0.00010809,0
87.154,0.00012236,0
87.155,0.000142,0
87.155,0.00016063,0
87.156,0.00016181,0
87.157,0.00013948,0
87.157,0.00010121,0
87.158,5.9754e-05,0
87.158,2.031e-05,0
87.159,-1.0239e-05,0
87.159,-2.4674e-05,0
87.16,-2.1317e-05,0
87.16,-6.5461e-06,0
87.161,9.2317e-06,0
87.161,1.796e-05,0
87.162,1.7624e-05,0
87.162,9.5674e-06,0
87.163,1.1749e-06,0
87.163,-6.0426e-06,0
87.164,-2.031e-05,0
87.164,-3.5584e-05,0
87.165,-3.7934e-05,0
87.165,-2.501e-05,0
87.166,-1.796e-05,0
87.166,-4.9516e-05,0
87.167,-0.00012773,0
87.167,-0.00021015,0
87.168,-0.00026201,0
87.168,-0.0002882,0
87.169,-0.00028484,0
87.169,-0.00024707,0
87.17,-0.00017977,0
87.171,-0.00010423,0
87.171,-3.592e-05,0
87.172,3.6088e-05,0
87.172,0.00012807,0
87.173,0.00023549,0
87.173,0.00033889,0
87.174,0.0004161,0
87.174,0.00044564,0
87.175,0.00043389,0
87.175,0.0003884,0
87.176,0.00030028,0
87.176,0.00018144,0
87.177,8.3925e-05,0
87.177,5.2537e-05,0
87.178,6.1265e-05,0
87.178,5.3376e-05,0
87.179,1.8967e-05,0
87.179,-1.091e-05,0
87.18,-2.9206e-05,0
87.18,-6.2608e-05,0
87.181,-0.0001284,0
87.181,-0.00021065,0
87.182,-0.00025798,0
87.182,-0.0002323,0
87.183,-0.00015996,0
87.184,-9.4163e-05,0
87.184,-6.4118e-05,0
87.185,-5.2705e-05,0
87.185,-1.7288e-05,0
87.186,5.4887e-05,0
87.186,0.00012605,0
87.187,0.00016181,0
87.187,0.00016584,0
87.188,0.00014754,0
87.188,0.00010289,0
87.189,3.5416e-05,0
87.189,-3.6088e-05,0
87.19,-9.6345e-05,0
87.19,-0.00013562,0
87.191,-0.00014922,0
87.191,-0.00014116,0
87.192,-0.00012773,0
87.192,-0.00012421,0
87.193,-0.00011917,0
87.193,-9.2821e-05,0
87.194,-4.7837e-05,0
87.194,-1.6785e-07,0
87.195,4.3305e-05,0
87.195,8.9967e-05,0
87.196,0.00013445,0
87.197,0.00015627,0
87.197,0.00014871,0
87.198,0.00012874,0
87.198,0.00012001,0
87.199,0.00012236,0
87.199,0.0001237,0
87.2,0.00011749,0
87.2,0.00010373,0
87.201,8.4428e-05,0
87.201,6.3111e-05,0
87.202,4.8173e-05,0
87.202,4.213e-05,0
87.203,3.9109e-05,0
87.203,3.8773e-05,0
87.204,4.0116e-05,0
87.204,3.5752e-05,0
87.205,1.7288e-05,0
87.205,3.8605e-06,0
87.206,1.5106e-05,0
87.206,3.6088e-05,0
87.207,4.3809e-05,0
87.207,4.1794e-05,0
87.208,4.0116e-05,0
87.208,3.4745e-05,0
87.209,1.1749e-05,0
87.209,-3.2395e-05,0
87.21,-7.2343e-05,0
87.211,-8.04e-05,0
87.211,-6.1936e-05,0
87.212,-5.0355e-05,0
87.212,-5.9922e-05,0
87.213,-6.7979e-05,0
87.213,-6.0258e-05,0
87.214,-5.2033e-05,0
87.214,-7.5868e-05,0
87.215,-0.00013898,0
87.215,-0.00018883,0
87.216,-0.00017624,0
87.216,-0.00012404,0
87.217,-7.57e-05,0
87.217,-3.9948e-05,0
87.218,-8.0568e-06,0
87.218,3.1556e-05,0
87.219,8.0735e-05,0
87.219,0.00013411,0
87.22,0.00019588,0
87.22,0.00026084,0
87.221,0.00030666,0
87.221,0.0003127,0
87.222,0.00028383,0
87.222,0.00023415,0
87.223,0.00017842,0
87.224,0.0001274,0
87.224,7.4693e-05,0
87.225,1.8631e-05,0
87.225,-2.4674e-05,0
87.226,-4.213e-05,0
87.226,-4.0452e-05,0
87.227,-3.7766e-05,0
87.227,-5.3208e-05,0
87.228,-0.00010088,0
87.228,-0.00015258,0
87.229,-0.00016902,0
87.229,-0.00014989,0
87.23,-0.00011749,0
87.23,-8.1407e-05,0
87.231,-4.7669e-05,0
87.231,-1.3596e-05,0
87.232,2.9374e-05,0
87.232,8.8792e-05,0
87.233,0.00015291,0
87.233,0.00020998,0
87.234,0.00025765,0
87.234,0.00029223,0
87.235,0.00029793,0
87.235,0.00026755,0
87.236,0.00020629,0
87.236,0.00012236,0
87.237,1.1582e-05,0
87.238,-0.00011833,0
87.238,-0.00022324,0
87.239,-0.00027141,0
87.239,-0.00026554,0
87.24,-0.00022626,0
87.24,-0.00017507,0
87.241,-0.00011095,0
87.241,-4.7501e-05,0
87.242,-1.6785e-05,0
87.242,-8.7282e-06,0
87.243,3.1724e-05,0
87.243,0.00012874,0
87.244,0.00024137,0
87.244,0.00030784,0
87.245,0.00030498,0
87.245,0.00025211,0
87.246,0.00018312,0
87.246,0.00013327,0
87.247,0.00010994,0
87.247,9.5171e-05,0
87.248,7.8218e-05,0
87.248,6.3447e-05,0
87.249,4.9516e-05,0
87.249,3.0213e-05,0
87.25,-6.0426e-06,0
87.251,-5.5558e-05,0
87.251,-9.6178e-05,0
87.252,-0.00011582,0
87.252,-0.00012001,0
87.253,-0.00013545,0
87.253,-0.00017977,0
87.254,-0.00022274,0
87.254,-0.0002454,0
87.255,-0.0002464,0
87.255,-0.0002224,0
87.256,-0.00017574,0
87.256,-0.00010944,0
87.257,-3.0045e-05,0
87.257,4.8005e-05,0
87.258,0.00011397,0
87.258,0.00017758,0
87.259,0.00024775,0
87.259,0.0002929,0
87.26,0.00027359,0
87.26,0.00019924,0
87.261,0.0001034,0
87.261,6.2104e-06,0
87.262,-7.4693e-05,0
87.262,-0.00011246,0
87.263,-0.00010088,0
87.263,-6.4454e-05,0
87.264,-2.501e-05,0
87.265,3.8605e-06,0
87.265,2.7359e-05,0
87.266,5.1362e-05,0
87.266,6.3951e-05,0
87.267,4.6326e-05,0
87.267,1.3931e-05,0
87.268,2.0142e-06,0
87.268,1.8463e-05,0
87.269,4.0955e-05,0
87.269,5.2201e-05,0
87.27,5.4215e-05,0
87.27,5.1194e-05,0
87.271,4.8676e-05,0
87.271,5.4719e-05,0
87.272,6.2272e-05,0
87.272,5.6062e-05,0
87.273,3.2059e-05,0
87.273,-7.7211e-06,0
87.274,-7.7211e-05,0
87.274,-0.00017255,0
87.275,-0.00025446,0
87.275,-0.0002892,0
87.276,-0.00028283,0
87.276,-0.00025715,0
87.277,-0.00023331,0
87.278,-0.00022643,0
87.278,-0.00021602,0
87.279,-0.00017053,0
87.279,-8.4764e-05,0
87.28,3.3738e-05,0
87.28,0.00016902,0
87.281,0.00029055,0
87.281,0.00036457,0
87.282,0.00037313,0
87.282,0.00032949,0
87.283,0.00026537,0
87.283,0.00021166,0
87.284,0.00017473,0
87.284,0.00014653,0
87.285,0.00011598,0
87.285,8.6778e-05,0
87.286,7.1e-05,0
87.286,5.8244e-05,0
87.287,4.3305e-05,0
87.287,3.7095e-05,0
87.288,4.1627e-05,0
87.288,5.9251e-05,0
87.289,9.0303e-05,0
87.289,0.00012421,0
87.29,0.00014838,0
87.29,0.00016768,0
87.291,0.00018849,0
87.292,0.00019924,0
87.292,0.00017104,0
87.293,0.00010541,0
87.293,3.3402e-05,0
87.294,-2.9541e-05,0
87.294,-8.3085e-05,0
87.295,-0.00011632,0
87.295,-0.00012136,0
87.296,-0.00010742,0
87.296,-8.6107e-05,0
87.297,-5.7237e-05,0
87.297,-2.1653e-05,0
87.298,1.7456e-05,0
87.298,5.4047e-05,0
87.299,7.8721e-05,0
87.299,8.5435e-05,0
87.3,7.4357e-05,0
87.3,5.623e-05,0
87.301,4.8173e-05,0
87.301,4.8005e-05,0
87.302,3.7766e-05,0
87.302,1.4603e-05,0
87.303,-6.8818e-06,0
87.303,-2.1653e-05,0
87.304,-3.1388e-05,0
87.305,-3.9445e-05,0
87.305,-5.539e-05,0
87.306,-7.3014e-05,0
87.306,-6.6468e-05,0
87.307,-3.6759e-05,0
87.307,-4.5319e-06,0
87.308,1.2924e-05,0
87.308,1.3931e-05,0
87.309,1.326e-05,0
87.309,1.9638e-05,0
87.31,2.4002e-05,0
87.31,2.3163e-05,0
87.311,1.9806e-05,0
87.311,4.6998e-06,0
87.312,-1.3931e-05,0
87.312,-1.9974e-05,0
87.313,-1.8463e-05,0
87.313,-1.8967e-05,0
87.314,-1.6449e-05,0
87.314,-2.182e-06,0
87.315,1.4939e-05,0
87.315,1.4267e-05,0
87.316,-1.0239e-05,0
87.316,-3.1052e-05,0
87.317,-2.2324e-05,0
87.317,-8.5603e-06,0
87.318,-4.8844e-05,0
87.319,-0.00016416,0
87.319,-0.00028434,0
87.32,-0.00032731,0
87.32,-0.00027494,0
87.321,-0.00017137,0
87.321,-8.896e-05,0
87.322,-5.388e-05,0
87.322,-3.3738e-05,0
87.323,6.2104e-06,0
87.323,6.3615e-05,0
87.324,0.00012505,0
87.324,0.00018984,0
87.325,0.00025362,0
87.325,0.00029592,0
87.326,0.00029793,0
87.326,0.00026033,0
87.327,0.00020092,0
87.327,0.00013747,0
87.328,8.4428e-05,0
87.328,4.4144e-05,0
87.329,2.2324e-05,0
87.329,2.1317e-05,0
87.33,3.743e-05,0
87.33,6.2608e-05,0
87.331,8.7114e-05,0
87.332,9.1478e-05,0
87.332,6.6468e-05,0
87.333,2.6017e-05,0
87.333,-1.4939e-05,0
87.334,-5.1194e-05,0
87.334,-7.8889e-05,0
87.335,-9.5171e-05,0
87.335,-0.00010323,0
87.336,-0.00011246,0
87.336,-0.00011112,0
87.337,-7.57e-05,0
87.337,-1.8296e-05,0
87.338,2.1988e-05,0
87.338,2.8031e-05,0
87.339,1.5946e-05,0
87.339,1.4267e-05,0
87.34,1.4603e-05,0
87.34,-1.3596e-05,0
87.341,-6.4118e-05,0
87.341,-9.9702e-05,0
87.342,-9.7688e-05,0
87.342,-5.623e-05,0
87.343,6.5461e-06,0
87.343,6.4118e-05,0
87.344,0.00010574,0
87.344,0.00014737,0
87.345,0.00020327,0
87.346,0.00026067,0
87.346,0.00030263,0
87.347,0.00032412,0
87.347,0.00032479,0
87.348,0.00030045,0
87.348,0.00024321,0
87.349,0.00016986,0
87.349,0.00010457,0
87.35,5.5558e-05,0
87.35,2.3667e-05,0
87.351,3.8605e-06,0
87.351,-1.1414e-05,0
87.352,-2.3667e-05,0
87.352,-3.743e-05,0
87.353,-4.8844e-05,0
87.353,-5.5222e-05,0
87.354,-5.6565e-05,0
87.354,-5.8747e-05,0
87.355,-6.3951e-05,0
87.355,-6.6133e-05,0
87.356,-7.4022e-05,0
87.356,-9.0806e-05,0
87.357,-0.00010155,0
87.357,-9.8192e-05,0
87.358,-8.6442e-05,0
87.359,-7.1e-05,0
87.359,-5.388e-05,0
87.36,-3.7766e-05,0
87.36,-2.5849e-05,0
87.361,-1.4939e-05,0
87.361,-3.357e-07,0
87.362,1.326e-05,0
87.362,2.6688e-05,0
87.363,3.978e-05,0
87.363,3.9445e-05,0
87.364,2.5177e-05,0
87.364,1.0071e-05,0
87.365,5.0355e-06,0
87.365,3.357e-06,0
87.366,-4.1962e-06,0
87.366,-1.8463e-05,0
87.367,-3.592e-05,0
87.367,-4.918e-05,0
87.368,-5.2033e-05,0
87.368,-4.7333e-05,0
87.369,-3.8773e-05,0
87.369,-2.7024e-05,0
87.37,-1.326e-05,0
87.37,3.1891e-06,0
87.371,2.1317e-05,0
87.371,3.2059e-05,0
87.372,4.0116e-05,0
87.373,5.8244e-05,0
87.373,7.805e-05,0
87.374,7.7714e-05,0
87.374,6.1601e-05,0
87.375,5.2537e-05,0
87.375,5.7237e-05,0
87.376,6.3279e-05,0
87.376,5.3544e-05,0
87.377,1.8631e-05,0
87.377,-1.561e-05,0
87.378,-2.2995e-05,0
87.378,-9.9031e-06,0
87.379,4.1962e-06,0
87.379,5.2033e-06,0
87.38,-1.6617e-05,0
87.38,-6.1601e-05,0
87.381,-0.0001039,0
87.381,-0.00012169,0
87.382,-0.00010994,0
87.382,-7.5868e-05,0
87.383,-3.4409e-05,0
87.383,-5.2033e-06,0
87.384,1.3764e-05,0
87.384,3.6927e-05,0
87.385,6.4286e-05,0
87.385,0.00010021,0
87.386,0.00014687,0
87.387,0.00018883,0
87.387,0.00021099,0
87.388,0.00021199,0
87.388,0.00019991,0
87.389,0.00017708,0
87.389,0.00014183,0
87.39,0.00010188,0
87.39,6.9657e-05,0
87.391,5.3544e-05,0
87.391,5.5558e-05,0
87.392,6.4286e-05,0
87.392,6.7811e-05,0
87.393,6.2608e-05,0
87.393,6.1265e-05,0
87.394,6.7475e-05,0
87.394,6.0929e-05,0
87.395,2.9038e-05,0
87.395,-1.1582e-05,0
87.396,-3.743e-05,0
87.396,-5.1865e-05,0
87.397,-6.7811e-05,0
87.397,-8.3085e-05,0
87.398,-8.7617e-05,0
87.398,-7.3182e-05,0
87.399,-5.9419e-05,0
87.4,-6.8986e-05,0
87.4,-8.9799e-05,0
87.401,-9.0806e-05,0
87.401,-7.3014e-05,0
87.402,-6.9154e-05,0
87.402,-9.601e-05,0
87.403,-0.00011514,0
87.403,-8.426e-05,0
87.404,-2.1317e-05,0
87.404,3.9109e-05,0
87.405,8.8457e-05,0
87.405,0.00014418,0
87.406,0.00021434,0
87.406,0.00027376,0
87.407,0.00030364,0
87.407,0.00030582,0
87.408,0.00027645,0
87.408,0.00020763,0
87.409,0.00010574,0
87.409,-1.0239e-05,0
87.41,-0.0001237,0
87.41,-0.00020041,0
87.411,-0.00022274,0
87.411,-0.00021317,0
87.412,-0.00019655,0
87.412,-0.00017406,0
87.413,-0.00013008,0
87.414,-5.5055e-05,0
87.414,2.8031e-05,0
87.415,8.5435e-05,0
87.415,0.00010289,0
87.416,8.8457e-05,0
87.416,4.918e-05,0
87.417,-1.796e-05,0
87.417,-0.00010658,0
87.418,-0.00018346,0
87.418,-0.0002135,0
87.419,-0.00019051,0
87.419,-0.00012085,0
87.42,-3.2395e-05,0
87.42,4.2466e-05,0
87.421,0.00010037,0
87.421,0.00014989,0
87.422,0.00019756,0
87.422,0.00025194,0
87.423,0.00031992,0
87.423,0.00038186,0
87.424,0.00039998,0
87.424,0.00035836,0
87.425,0.00027964,0
87.425,0.00018715,0
87.426,9.5674e-05,0
87.427,2.887e-05,0
87.427,-5.539e-06,0
87.428,-2.3331e-05,0
87.428,-4.3809e-05,0
87.429,-6.1097e-05,0
87.429,-6.5461e-05,0
87.43,-6.2943e-05,0
87.43,-8.1071e-05,0
87.431,-0.00011565,0
87.431,-0.00011666,0
87.432,-6.5293e-05,0
87.432,-7.2175e-06,0
87.433,1.2589e-05,0
87.433,-3.0213e-06,0
87.434,-2.266e-05,0
87.434,-2.2995e-05,0
87.435,-1.1246e-05,0
87.435,-6.8818e-06,0
87.436,-1.3764e-05,0
87.436,-2.7024e-05,0
87.437,-4.7501e-05,0
87.437,-7.6036e-05,0
87.438,-0.0001086,0
87.438,-0.00013713,0
87.439,-0.00015157,0
87.439,-0.00015744,0
87.44,-0.00016315,0
87.441,-0.000166,0
87.441,-0.00016718,0
87.442,-0.00016718,0
87.442,-0.00015459,0
87.443,-0.00012001,0
87.443,-6.3279e-05,0
87.444,3.8605e-06,0
87.444,6.7308e-05,0
87.445,0.0001284,0
87.445,0.00019084,0
87.446,0.00022945,0
87.446,0.00021703,0
87.447,0.00017943,0
87.447,0.00017221,0
87.448,0.00019655,0
87.448,0.00020964,0
87.449,0.00018917,0
87.449,0.00014183,0
87.45,9.2988e-05,0
87.45,7.1336e-05,0
87.451,8.0903e-05,0
87.451,9.7688e-05,0
87.452,0.00010843,0
87.452,0.00011766,0
87.453,0.00011766,0
87.454,0.00010054,0
87.454,8.1743e-05,0
87.455,6.865e-05,0
87.455,4.2466e-05,0
87.456,3.8605e-06,0
87.456,-3.0045e-05,0
87.457,-4.8005e-05,0
87.457,-4.9683e-05,0
87.458,-4.2466e-05,0
87.458,-3.4241e-05,0
87.459,-2.8367e-05,0
87.459,-2.1149e-05,0
87.46,-1.0239e-05,0
87.46,-3.8605e-06,0
87.461,-3.5248e-06,0
87.461,6.5461e-06,0
87.462,2.6352e-05,0
87.462,2.8367e-05,0
87.463,5.8747e-06,0
87.463,-1.6281e-05,0
87.464,-1.6953e-05,0
87.464,-1.0071e-06,0
87.465,1.9806e-05,0
87.465,4.1459e-05,0
87.466,6.5797e-05,0
87.466,8.275e-05,0
87.467,7.8721e-05,0
87.468,5.4551e-05,0
87.468,2.0478e-05,0
87.469,-1.9806e-05,0
87.469,-5.4719e-05,0
87.47,-7.335e-05,0
87.47,-8.9464e-05,0
87.471,-0.00012673,0
87.471,-0.00017423,0
87.472,-0.00020159,0
87.472,-0.00020864,0
87.473,-0.00019873,0
87.473,-0.00015543,0
87.474,-7.5364e-05,0
87.474,1.6281e-05,0
87.475,8.7114e-05,0
87.475,0.00011934,0
87.476,0.00013478,0
87.476,0.00016231,0
87.477,0.00018631,0
87.477,0.0001796,0
87.478,0.00014704,0
87.478,0.00010591,0
87.479,7.7211e-05,0
87.479,6.7643e-05,0
87.48,6.3615e-05,0
87.481,4.7837e-05,0
87.481,2.2156e-05,0
87.482,1.3428e-06,0
87.482,-1.3092e-05,0
87.483,-1.8296e-05,0
87.483,-7.0497e-06,0
87.484,8.7282e-06,0
87.484,5.0355e-07,0
87.485,-4.8844e-05,0
87.485,-0.00010793,0
87.486,-0.00012454,0
87.486,-9.6178e-05,0
87.487,-5.5558e-05,0
87.487,-1.7624e-05,0
87.488,1.4435e-05,0
87.488,3.2731e-05,0
87.489,4.1962e-05,0
87.489,5.0523e-05,0
87.49,6.63e-05,0
87.49,9.6178e-05,0
87.491,0.00014368,0
87.491,0.00020125,0
87.492,0.00024825,0
87.492,0.00028148,0
87.493,0.00030163,0
87.493,0.00029357,0
87.494,0.00022341,0
87.495,9.752e-05,0
87.495,-1.561e-05,0
87.496,-6.5461e-05,0
87.496,-6.6804e-05,0
87.497,-5.2537e-05,0
87.497,-3.3066e-05,0
87.498,-1.561e-05,0
87.498,5.7069e-06,0
87.499,3.1891e-05,0
87.499,4.8844e-05,0
87.5,5.4215e-05,0
87.5,5.2201e-05,0
87.501,2.2995e-05,0
87.501,-4.2634e-05,0
87.502,-0.00010709,0
87.502,-0.0001378,0
87.503,-0.00015509,0
87.503,-0.00020226,0
87.504,-0.00027309,0
87.504,-0.00031371,0
87.505,-0.00030163,0
87.505,-0.00027813,0
87.506,-0.00027041,0
87.506,-0.0002506,0
87.507,-0.00019437,0
87.508,-9.8527e-05,0
87.508,2.1317e-05,0
87.509,0.00013713,0
87.509,0.00025446,0
87.51,0.00039461,0
87.51,0.00051077,0
87.511,0.00052688,0
87.511,0.00044631,0
87.512,0.00033083,0
87.512,0.00021703,0
87.513,0.00011733,0
87.513,4.5487e-05,0
87.514,1.4603e-05,0
87.514,1.4267e-05,0
87.515,2.2995e-05,0
87.515,2.7024e-05,0
87.516,1.1917e-05,0
87.516,-1.3931e-05,0
87.517,-4.2466e-05,0
87.517,-8.9632e-05,0
87.518,-0.00014821,0
87.518,-0.00018917,0
87.519,-0.00018598,0
87.519,-0.00014032,0
87.52,-8.5603e-05,0
87.52,-4.918e-05,0
87.521,-3.7766e-05,0
87.522,-3.7766e-05,0
87.522,-3.5752e-05,0
87.523,-3.1556e-05,0
87.523,-1.9638e-05,0
87.524,4.3641e-06,0
87.524,2.4674e-05,0
87.525,1.9303e-05,0
87.525,4.1962e-06,0
87.526,2.6184e-05,0
87.526,8.4428e-05,0
87.527,0.00014586,0
87.527,0.00019152,0
87.528,0.00021065,0
87.528,0.00020394,0
87.529,0.00017171,0
87.529,0.00011078,0
87.53,3.9109e-05,0
87.53,8.7282e-06,0
87.531,4.0452e-05,0
87.531,8.3253e-05,0
87.532,9.1142e-05,0
87.532,8.2078e-05,0
87.533,8.3925e-05,0
87.533,9.7856e-05,0
87.534,0.0001086,0
87.535,0.00011531,0
87.535,0.00012673,0
87.536,0.00012723,0
87.536,0.00010289,0
87.537,6.244e-05,0
87.537,3.122e-05,0
87.538,3.2395e-05,0
87.538,5.1865e-05,0
87.539,5.5894e-05,0
87.539,2.266e-05,0
87.54,-2.3667e-05,0
87.54,-3.6927e-05,0
87.541,-1.9303e-05,0
87.541,-5.8747e-06,0
87.542,-5.539e-06,0
87.542,-6.5461e-06,0
87.543,-1.3596e-05,0
87.543,-3.4241e-05,0
87.544,-7.2175e-05,0
87.544,-0.00012941,0
87.545,-0.00019269,0
87.545,-0.00023952,0
87.546,-0.00028199,0
87.546,-0.00032244,0
87.547,-0.00033771,0
87.547,-0.00031002,0
87.548,-0.00025396,0
87.549,-0.00020243,0
87.549,-0.00015912,0
87.55,-0.00010944,0
87.55,-5.6397e-05,0
87.551,-2.8702e-05,0
87.551,-3.2898e-05,0
87.552,-4.2466e-05,0
87.552,-4.0955e-05,0
87.553,-2.3835e-05,0
87.553,1.6785e-07,0
87.554,1.9303e-05,0
87.554,4.3473e-05,0
87.555,8.3757e-05,0
87.555,0.00012941,0
87.556,0.00017708,0
87.556,0.00020914,0
87.557,0.00021065,0
87.557,0.00020528,0
87.558,0.00021837,0
87.558,0.00024221,0
87.559,0.00024959,0
87.559,0.00022106,0
87.56,0.00016902,0
87.56,0.00012505,0
87.561,9.3492e-05,0
87.562,5.4047e-05,0
87.562,-1.1749e-06,0
87.563,-4.3809e-05,0
87.563,-4.8508e-05,0
87.564,-2.9374e-05,0
87.564,-1.3596e-05,0
87.565,-1.0239e-05,0
87.565,-9.5674e-06,0
87.566,-3.1891e-06,0
87.566,1.091e-05,0
87.567,1.4435e-05,0
87.567,-2.1653e-05,0
87.568,-7.8889e-05,0
87.568,-0.00012538,0
87.569,-0.00016483,0
87.569,-0.00019789,0
87.57,-0.00019991,0
87.57,-0.0001603,0
87.571,-8.5435e-05,0
87.571,1.5442e-05,0
87.572,0.00011766,0
87.572,0.00019252,0
87.573,0.00022139,0
87.573,0.00020729,0
87.574,0.0001744,0
87.575,0.00015056,0
87.575,0.00015123,0
87.576,0.00016466,0
87.576,0.00016533,0
87.577,0.00014351,0
87.577,0.00010692,0
87.578,7.0161e-05,0
87.578,4.7166e-05,0
87.579,3.592e-05,0
87.579,2.8367e-05,0
87.58,2.4506e-05,0
87.58,3.0716e-05,0
87.581,5.0858e-05,0
87.581,8.2078e-05,0
87.582,0.0001133,0
87.582,0.00014083,0
87.583,0.00015291,0
87.583,0.00013075,0
87.584,8.5267e-05,0
87.584,4.2802e-05,0
87.585,3.122e-05,0
87.585,4.2802e-05,0
87.586,5.623e-05,0
87.586,6.4958e-05,0
87.587,6.9322e-05,0
87.587,6.3783e-05,0
87.588,4.918e-05,0
87.589,3.8437e-05,0
87.589,4.1459e-05,0
87.59,5.0355e-05,0
87.59,5.2201e-05,0
87.591,4.5991e-05,0
87.591,4.062e-05,0
87.592,1.6617e-05,0
87.592,-5.0858e-05,0
87.593,-0.00013294,0
87.593,-0.0001749,0
87.594,-0.00015744,0
87.594,-0.00011296,0
87.595,-7.5532e-05,0
87.595,-5.2873e-05,0
87.596,-3.6759e-05,0
87.596,-3.3402e-05,0
87.597,-2.1653e-05,0
87.597,2.501e-05,0
87.598,8.51e-05,0
87.598,0.00012337,0
87.599,0.00013478,0
87.599,0.00013445,0
87.6,0.00013462,0
87.6,0.00014049,0
87.601,0.00014754,0
87.602,0.00014032,0
87.602,0.00010944,0
87.603,5.7404e-05,0
87.603,-2.3835e-05,0
87.604,-0.0001237,0
87.604,-0.00020629,0
87.605,-0.00025429,0
87.605,-0.00027662,0
87.606,-0.00028585,0
87.606,-0.00028518,0
87.607,-0.00026252,0
87.607,-0.00021904,0
87.608,-0.00016936,0
87.608,-0.00011498,0
87.609,-5.388e-05,0
87.609,6.8818e-06,0
87.61,5.6565e-05,0
87.61,8.1575e-05,0
87.611,9.5842e-05,0
87.611,0.0001284,0
87.612,0.00019319,0
87.612,0.00025698,0
87.613,0.00027108,0
87.613,0.00023113,0
87.614,0.0001707,0
87.614,0.00011716,0
87.615,7.8889e-05,0
87.616,5.7404e-05,0
87.616,4.3305e-05,0
87.617,3.1388e-05,0
87.617,1.5946e-05,0
87.618,-6.2104e-06,0
87.618,-3.7766e-05,0
87.619,-6.8315e-05,0
87.619,-8.5771e-05,0
87.62,-8.5603e-05,0
87.62,-7.2679e-05,0
87.621,-5.5222e-05,0
87.621,-4.1627e-05,0
87.622,-2.5345e-05,0
87.622,-1.6785e-06,0
87.623,2.4002e-05,0
87.623,4.9683e-05,0
87.624,7.2343e-05,0
87.624,8.8121e-05,0
87.625,9.5171e-05,0
87.625,9.2149e-05,0
87.626,8.1239e-05,0
87.626,6.3951e-05,0
87.627,4.0955e-05,0
87.627,1.1749e-05,0
87.628,-2.2995e-05,0
87.629,-6.8818e-05,0
87.629,-0.00013646,0
87.63,-0.00020024,0
87.63,-0.00023079,0
87.631,-0.00022206,0
87.631,-0.00018682,0
87.632,-0.0001425,0
87.632,-9.2821e-05,0
87.633,-3.2395e-05,0
87.633,4.0452e-05,0
87.634,0.00012874,0
87.634,0.00022794,0
87.635,0.00030901,0
87.635,0.00035567,0
87.636,0.00036054,0
87.636,0.00032479,0
87.637,0.00027645,0
87.637,0.00024623,0
87.638,0.00022542,0
87.638,0.00018816,0
87.639,0.00013411,0
87.639,8.3085e-05,0
87.64,4.3473e-05,0
87.64,1.2589e-05,0
87.641,-1.1414e-05,0
87.641,-2.5681e-05,0
87.642,-3.2898e-05,0
87.643,-4.3809e-05,0
87.643,-6.3951e-05,0
87.644,-8.51e-05,0
87.644,-9.9535e-05,0
87.645,-0.00010289,0
87.645,-9.9031e-05,0
87.646,-9.3156e-05,0
87.646,-8.2582e-05,0
87.647,-6.1433e-05,0
87.647,-3.5752e-05,0
87.648,-1.0239e-05,0
87.648,1.0575e-05,0
87.649,2.4674e-05,0
87.649,3.3066e-05,0
87.65,3.8773e-05,0
87.65,3.7766e-05,0
87.651,2.4338e-05,0
87.651,4.8676e-06,0
87.652,-4.1962e-06,0
87.652,5.0355e-07,0
87.653,6.714e-07,0
87.653,-1.3596e-05,0
87.654,-2.6017e-05,0
87.654,-2.501e-05,0
87.655,-2.4338e-05,0
87.656,-3.3066e-05,0
87.656,-3.6423e-05,0
87.657,-1.7624e-05,0
87.657,1.8296e-05,0
87.658,5.4887e-05,0
87.658,9.0135e-05,0
87.659,0.00012136,0
87.659,0.00013764,0
87.66,0.00012035,0
87.66,6.63e-05,0
87.661,2.031e-05,0
87.661,1.0575e-05,0
87.662,-6.714e-07,0
87.662,-4.8844e-05,0
87.663,-0.00010541,0
87.663,-0.00012572,0
87.664,-0.00011028,0
87.664,-9.1646e-05,0
87.665,-8.9128e-05,0
87.665,-8.7282e-05,0
87.666,-6.4286e-05,0
87.666,-3.4409e-05,0
87.667,-8.5603e-06,0
87.667,2.2995e-05,0
87.668,6.0594e-05,0
87.668,8.6946e-05,0
87.669,8.5603e-05,0
87.67,5.9922e-05,0
87.67,2.501e-05,0
87.671,-1.561e-05,0
87.671,-5.2537e-05,0
87.672,-6.9993e-05,0
87.672,-7.0497e-05,0
87.673,-6.6468e-05,0
87.673,-7.0832e-05,0
87.674,-7.3854e-05,0
87.674,-3.9109e-05,0
87.675,3.7766e-05,0
87.675,0.00011128,0
87.676,0.00015744,0
87.676,0.00018849,0
87.677,0.00020847,0
87.677,0.00021032,0
87.678,0.00019571,0
87.678,0.00017708,0
87.679,0.00017238,0
87.679,0.00017876,0
87.68,0.00018346,0
87.68,0.00017171,0
87.681,0.00013143,0
87.681,7.6707e-05,0
87.682,2.6352e-05,0
87.683,-1.0071e-05,0
87.683,-3.3402e-05,0
87.684,-5.0858e-05,0
87.684,-6.4958e-05,0
87.685,-7.3182e-05,0
87.685,-7.5868e-05,0
87.686,-7.2679e-05,0
87.686,-6.3447e-05,0
87.687,-5.5726e-05,0
87.687,-5.2201e-05,0
87.688,-4.6662e-05,0
87.688,-3.5584e-05,0
87.689,-1.4603e-05,0
87.689,1.9303e-05,0
87.69,5.4215e-05,0
87.69,6.5797e-05,0
87.691,4.2802e-05,0
87.691,-6.3783e-06,0
87.692,-6.7643e-05,0
87.692,-0.00011632,0
87.693,-0.00013344,0
87.693,-0.00012018,0
87.694,-9.8695e-05,0
87.694,-8.2078e-05,0
87.695,-6.6133e-05,0
87.695,-4.8844e-05,0
87.696,-2.3163e-05,0
87.697,9.7353e-06,0
87.697,2.7024e-05,0
87.698,2.7695e-05,0
87.698,5.5558e-05,0
87.699,0.00012018,0
87.699,0.0001843,0
87.7,0.00021921,0
87.7,0.00022542,0
87.701,0.00021401,0
87.701,0.00020528,0
87.702,0.00020612,0
87.702,0.00020729,0
87.703,0.00020327,0
87.703,0.00019538,0
87.704,0.00017171,0
87.704,0.00012874,0
87.705,8.8457e-05,0
87.705,6.7308e-05,0
87.706,6.0594e-05,0
87.706,5.5726e-05,0
87.707,4.2802e-05,0
87.707,2.1988e-05,0
87.708,1.8463e-06,0
87.708,-1.2421e-05,0
87.709,-1.9303e-05,0
87.71,-2.2995e-05,0
87.71,-3.4913e-05,0
87.711,-5.6062e-05,0
87.711,-8.4932e-05,0
87.712,-0.00011531,0
87.712,-0.00013159,0
87.713,-0.00012522,0
87.713,-0.00011112,0
87.714,-0.00011162,0
87.714,-0.00013294,0
87.715,-0.00016902,0
87.715,-0.00018212,0
87.716,-0.00014318,0
87.716,-7.805e-05,0
87.717,-2.9709e-05,0
87.717,-1.2589e-05,0
87.718,-2.8534e-06,0
87.718,1.796e-05,0
87.719,4.5151e-05,0
87.719,6.8315e-05,0
87.72,8.2414e-05,0
87.72,8.9799e-05,0
87.721,9.752e-05,0
87.721,0.00010105,0
87.722,9.2988e-05,0
87.722,7.2679e-05,0
87.723,4.6662e-05,0
87.724,1.9638e-05,0
87.724,-5.2033e-06,0
87.725,-1.8463e-05,0
87.725,-1.2253e-05,0
87.726,4.3641e-06,0
87.726,1.8463e-05,0
87.727,3.0716e-05,0
87.727,4.5823e-05,0
87.728,5.1026e-05,0
87.728,3.9612e-05,0
87.729,2.1317e-05,0
87.729,6.8818e-06,0
87.73,-3.6927e-06,0
87.73,-1.2589e-05,0
87.731,-1.2589e-05,0
87.731,-2.182e-06,0
87.732,1.1246e-05,0
87.732,1.7456e-05,0
87.733,8.2246e-06,0
87.733,-1.6449e-05,0
87.734,-3.9109e-05,0
87.734,-4.8508e-05,0
87.735,-4.7166e-05,0
87.735,-9.7353e-06,0
87.736,7.0329e-05,0
87.737,0.0001472,0
87.737,0.00017171,0
87.738,0.00015291,0
87.738,0.00015123,0
87.739,0.00018514,0
87.739,0.0002083,0
87.74,0.00017742,0
87.74,0.00010188,0
87.741,1.5106e-05,0
87.741,-6.7643e-05,0
87.742,-0.00013931,0
87.742,-0.00018799,0
87.743,-0.0002078,0
87.743,-0.00021535,0
87.744,-0.0002182,0
87.744,-0.00020847,0
87.745,-0.00018581,0
87.745,-0.00016046,0
87.746,-0.00012471,0
87.746,-5.7908e-05,0
87.747,3.1556e-05,0
87.747,0.00011514,0
87.748,0.00018077,0
87.748,0.00023079,0
87.749,0.00026134,0
87.749,0.00027074,0
87.75,0.00026033,0
87.751,0.00023549,0
87.751,0.00020041,0
87.752,0.00015862,0
87.752,0.00011531,0
87.753,7.2847e-05,0
87.753,1.326e-05,0
87.754,-5.5222e-05,0
87.754,-9.2988e-05,0
87.755,-8.9128e-05,0
87.755,-6.7811e-05,0
87.756,-5.2369e-05,0
87.756,-4.6326e-05,0
87.757,-4.2634e-05,0
87.757,-3.4745e-05,0
87.758,-2.6688e-05,0
87.758,-1.796e-05,0
87.759,-7.5532e-06,0
87.759,7.5532e-06,0
87.76,2.6688e-05,0
87.76,4.6494e-05,0
87.761,6.3783e-05,0
87.761,7.335e-05,0
87.762,6.2943e-05,0
87.762,3.6759e-05,0
87.763,1.7288e-05,0
87.763,1.3931e-05,0
87.764,1.4939e-05,0
87.765,2.182e-06,0
87.765,-3.5416e-05,0
87.766,-8.9128e-05,0
87.766,-0.00011363,0
87.767,-8.1071e-05,0
87.767,-1.8463e-05,0
87.768,3.6591e-05,0
87.768,7.805e-05,0
87.769,0.00011061,0
87.769,0.0001321,0
87.77,0.0001462,0
87.77,0.00015543,0
87.771,0.00015526,0
87.771,0.00014855,0
87.772,0.0001331,0
87.772,0.00010658,0
87.773,7.8553e-05,0
87.773,6.1265e-05,0
87.774,4.5319e-05,0
87.774,1.091e-05,0
87.775,-3.7598e-05,0
87.775,-6.8315e-05,0
87.776,-5.7908e-05,0
87.776,-1.6617e-05,0
87.777,1.6449e-05,0
87.778,1.8967e-05,0
87.778,7.8889e-06,0
87.779,2.8534e-06,0
87.779,1.1749e-06,0
87.78,-3.357e-07,0
87.78,-3.5248e-06,0
87.781,-9.9031e-06,0
87.781,-1.7456e-05,0
87.782,-2.7863e-05,0
87.782,-4.3137e-05,0
87.783,-5.3544e-05,0
87.783,-5.0523e-05,0
87.784,-3.3234e-05,0
87.784,-4.1962e-06,0
87.785,1.9974e-05,0
87.785,2.4338e-05,0
87.786,1.1414e-05,0
87.786,-6.2104e-06,0
87.787,-9.9031e-06,0
87.787,3.5248e-06,0
87.788,1.7288e-05,0
87.788,2.3667e-05,0
87.789,2.8702e-05,0
87.789,3.827e-05,0
87.79,5.3376e-05,0
87.79,6.1601e-05,0
87.791,5.2201e-05,0
87.792,3.0884e-05,0
87.792,7.5532e-06,0
87.793,-7.0497e-06,0
87.793,-1.2589e-05,0
87.794,-1.3931e-05,0
87.794,-1.4267e-05,0
87.795,-1.5946e-05,0
87.795,-2.2156e-05,0
87.796,-3.1724e-05,0
87.796,-5.0858e-05,0
87.797,-8.8792e-05,0
87.797,-0.00012555,0
87.798,-0.00013495,0
87.798,-0.00011514,0
87.799,-7.6539e-05,0
87.799,-3.5752e-05,0
87.8,-5.539e-06,0
87.8,2.3667e-05,0
87.801,6.6804e-05,0
87.801,0.00011699,0
87.802,0.00015694,0
87.802,0.00017507,0
87.803,0.00016164,0
87.803,0.00012102,0
87.804,6.7979e-05,0
87.805,2.0645e-05,0
87.805,-1.3931e-05,0
87.806,-4.0452e-05,0
87.806,-7.5029e-05,0
87.807,-0.00012136,0
87.807,-0.00017205,0
87.808,-0.00019252,0
87.808,-0.0001613,0
87.809,-9.4163e-05,0
87.809,-2.266e-05,0
87.81,4.8844e-05,0
87.81,0.00013075,0
87.811,0.00021032,0
87.811,0.00025194,0
87.812,0.00024086,0
87.812,0.00022374,0
87.813,0.00027041,0
87.813,0.00036205,0
87.814,0.0004161,0
87.814,0.00039864,0
87.815,0.00031539,0
87.815,0.00018312,0
87.816,4.0787e-05,0
87.816,-5.4719e-05,0
87.817,-8.2918e-05,0
87.817,-8.6442e-05,0
87.818,-0.00010642,0
87.819,-0.00012975,0
87.819,-0.00012035,0
87.82,-6.6468e-05,0
87.82,2.5177e-06,0
87.821,4.4144e-05,0
87.821,4.213e-05,0
87.822,1.796e-05,0
87.822,5.0355e-06,0
87.823,2.1317e-05,0
87.823,4.683e-05,0
87.824,6.0761e-05,0
87.824,6.3615e-05,0
87.825,6.2776e-05,0
87.825,4.448e-05,0
87.826,-2.182e-05,0
87.826,-0.00013075,0
87.827,-0.00022324,0
87.827,-0.00026806,0
87.828,-0.00028685,0
87.828,-0.00030515,0
87.829,-0.0003174,0
87.829,-0.00029726,0
87.83,-0.00024305,0
87.83,-0.00018531,0
87.831,-0.00013394,0
87.832,-4.9851e-05,0
87.832,8.1407e-05,0
87.833,0.0002088,0
87.833,0.00028518,0
87.834,0.00031942,0
87.834,0.00031539,0
87.835,0.00027108,0
87.835,0.00020427,0
87.836,0.00014116,0
87.836,0.00010172,0
87.837,9.0806e-05,0
87.837,8.8289e-05,0
87.838,7.5029e-05,0
87.838,5.6901e-05,0
87.839,4.6998e-05,0
87.839,4.2466e-05,0
87.84,3.9445e-05,0
87.84,3.5416e-05,0
87.841,3.5416e-05,0
87.841,5.3376e-05,0
87.842,8.3085e-05,0
87.842,0.00010709,0
87.843,0.0001086,0
87.843,8.5435e-05,0
87.844,5.1865e-05,0
87.844,2.6184e-05,0
87.845,1.7456e-05,0
87.846,2.4674e-05,0
87.846,3.8605e-05,0
87.847,5.1362e-05,0
87.847,6.3615e-05,0
87.848,6.9657e-05,0
87.848,6.2272e-05,0
87.849,3.9948e-05,0
87.849,7.5532e-06,0
87.85,-2.2995e-05,0
87.85,-3.8437e-05,0
87.851,-3.9109e-05,0
87.851,-3.2898e-05,0
87.852,-3.2731e-05,0
87.852,-4.3641e-05,0
87.853,-5.9754e-05,0
87.853,-7.6707e-05,0
87.854,-9.4835e-05,0
87.854,-0.00011212,0
87.855,-0.00011968,0
87.855,-0.00011548,0
87.856,-0.00010642,0
87.856,-0.00010121,0
87.857,-9.7185e-05,0
87.857,-8.9799e-05,0
87.858,-8.0064e-05,0
87.859,-6.4622e-05,0
87.859,-3.8941e-05,0
87.86,-6.8818e-06,0
87.86,1.9303e-05,0
87.861,4.1962e-05,0
87.861,5.8244e-05,0
87.862,6.3279e-05,0
87.862,6.0594e-05,0
87.863,5.7069e-05,0
87.863,5.4887e-05,0
87.864,5.304e-05,0
87.864,4.7166e-05,0
87.865,4.2802e-05,0
87.865,4.0787e-05,0
87.866,3.8773e-05,0
87.866,3.6423e-05,0
87.867,3.5248e-05,0
87.867,3.357e-05,0
87.868,3.1388e-05,0
87.868,3.0716e-05,0
87.869,3.0716e-05,0
87.869,2.9877e-05,0
87.87,2.9709e-05,0
87.87,3.0381e-05,0
87.871,3.1724e-05,0
87.871,3.0716e-05,0
87.872,2.9374e-05,0
87.873,2.8534e-05,0
87.873,2.6688e-05,0
87.874,2.5681e-05,0
87.874,2.9541e-05,0
87.875,3.3906e-05,0
87.875,3.2731e-05,0
87.876,2.9877e-05,0
87.876,2.6184e-05,0
87.877,2.031e-05,0
87.877,6.8818e-06,0
87.878,-1.4435e-05,0
87.878,-2.6688e-05,0
87.879,-1.5274e-05,0
87.879,1.0575e-05,0
87.88,3.1891e-05,0
87.88,3.743e-05,0
87.881,3.0716e-05,0
87.881,1.8967e-05,0
87.882,8.5603e-06,0
87.882,2.182e-06,0
87.883,0,0
87.883,-1.3428e-06,0
87.884,-4.1962e-06,0
87.884,-6.5461e-06,0
87.885,-1.1582e-05,0
87.886,-2.9038e-05,0
87.886,-5.2705e-05,0
87.887,-5.9922e-05,0
87.887,-3.5416e-05,0
87.888,1.4603e-05,0
87.888,6.4286e-05,0
87.889,9.6345e-05,0
87.889,0.00010893,0
87.89,9.9199e-05,0
87.89,6.2943e-05,0
87.891,4.0452e-05,0
87.891,8.0735e-05,0
87.892,0.00016332,0
87.892,0.00021334,0
87.893,0.00019957,0
87.893,0.00017372,0
87.894,0.00019907,0
87.894,0.00027041,0
87.895,0.00033083,0
87.895,0.00033754,0
87.896,0.00029323,0
87.896,0.00022106,0
87.897,0.00013881,0
87.897,5.9586e-05,0
87.898,-1.2757e-05,0
87.898,-8.2414e-05,0
87.899,-0.00013931,0
87.9,-0.0001801,0
87.9,-0.00022844,0
87.901,-0.00027141,0
87.901,-0.00026487,0
87.902,-0.00021619,0
87.902,-0.00016399,0
87.903,-0.00012639,0
87.903,-9.836e-05,0
87.904,-7.6204e-05,0
87.904,-6.009e-05,0
87.905,-5.4047e-05,0
87.905,-4.8005e-05,0
87.906,-2.1317e-05,0
87.906,3.2395e-05,0
87.907,8.2246e-05,0
87.907,9.7856e-05,0
87.908,8.1071e-05,0
87.908,4.8005e-05,0
87.909,1.8296e-05,0
87.909,8.3925e-07,0
87.91,-1.5106e-05,0
87.91,-3.3402e-05,0
87.911,-4.2298e-05,0
87.911,-3.6088e-05,0
87.912,-2.501e-05,0
87.913,-1.6449e-05,0
87.913,-1.1917e-05,0
87.914,-1.2589e-05,0
87.914,-1.4603e-05,0
87.915,-1.2421e-05,0
87.915,-8.5603e-06,0
87.916,-1.2421e-05,0
87.916,-2.6688e-05,0
87.917,-3.9445e-05,0
87.917,-3.508e-05,0
87.918,-3.3234e-05,0
87.918,-6.1936e-05,0
87.919,-8.3757e-05,0
87.919,-5.8579e-05,0
87.92,-9.9031e-06,0
87.92,3.4409e-05,0
87.921,7.0832e-05,0
87.921,0.00010658,0
87.922,0.0001566,0
87.922,0.00022408,0
87.923,0.0002751,0
87.923,0.00026571,0
87.924,0.00019823,0
87.924,0.0001133,0
87.925,3.8437e-05,0
87.925,-1.9135e-05,0
87.926,-5.0355e-05,0
87.927,-5.4887e-05,0
87.927,-4.2969e-05,0
87.928,-2.3163e-05,0
87.928,1.1749e-06,0
87.929,2.3163e-05,0
87.929,3.1891e-05,0
87.93,2.5345e-05,0
87.93,1.8463e-06,0
87.931,-3.1891e-05,0
87.931,-5.8747e-05,0
87.932,-7.4022e-05,0
87.932,-6.6636e-05,0
87.933,-3.1724e-05,0
87.933,1.2589e-05,0
87.934,4.0452e-05,0
87.934,3.5416e-05,0
87.935,-2.5849e-05,0
87.935,-0.00013075,0
87.936,-0.00022844,0
87.936,-0.00029139,0
87.937,-0.00031371,0
87.937,-0.00027561,0
87.938,-0.00017641,0
87.938,-6.5293e-05,0
87.939,1.4267e-05,0
87.94,7.4022e-05,0
87.94,0.00016902,0
87.941,0.00032076,0
87.941,0.0004871,0
87.942,0.00062289,0
87.942,0.00070715,0
87.943,0.00072041,0
87.943,0.00064538,0
87.944,0.00048727,0
87.944,0.00029122,0
87.945,0.00011632,0
87.945,-1.0575e-05,0
87.946,-8.0064e-05,0
87.946,-9.9535e-05,0
87.947,-9.0974e-05,0
87.947,-7.9896e-05,0
87.948,-8.4764e-05,0
87.948,-0.00011162,0
87.949,-0.00013814,0
87.949,-0.00014284,0
87.95,-0.00011749,0
87.95,-6.7643e-05,0
87.951,-2.8534e-05,0
87.951,-2.6017e-05,0
87.952,-5.1194e-05,0
87.953,-7.2679e-05,0
87.953,-8.0735e-05,0
87.954,-9.2317e-05,0
87.954,-0.00010205,0
87.955,-8.8289e-05,0
87.955,-5.5222e-05,0
87.956,-2.1149e-05,0
87.956,1.0071e-06,0
87.957,8.5603e-06,0
87.957,8.896e-06,0
87.958,6.0426e-06,0
87.958,-9.0639e-06,0
87.959,-3.7934e-05,0
87.959,-5.9586e-05,0
87.96,-6.0258e-05,0
87.96,-5.1026e-05,0
87.961,-4.4984e-05,0
87.961,-4.918e-05,0
87.962,-6.0258e-05,0
87.962,-5.5055e-05,0
87.963,-1.3764e-05,0
87.963,4.4816e-05,0
87.964,8.9296e-05,0
87.964,0.00010826,0
87.965,0.00010457,0
87.965,8.5771e-05,0
87.966,6.3951e-05,0
87.967,4.6662e-05,0
87.967,2.9709e-05,0
87.968,4.6998e-06,0
87.968,-2.6017e-05,0
87.969,-5.7237e-05,0
87.969,-8.9632e-05,0
87.97,-0.00011951,0
87.97,-0.00013982,0
87.971,-0.00014334,0
87.971,-0.00011984,0
87.972,-8.0735e-05,0
87.972,-5.623e-05,0
87.973,-6.2943e-05,0
87.973,-7.6204e-05,0
87.974,-6.6972e-05,0
87.974,-4.1123e-05,0
87.975,-1.7792e-05,0
87.975,1.6785e-06,0
87.976,2.501e-05,0
87.976,5.4719e-05,0
87.977,8.0232e-05,0
87.977,8.7114e-05,0
87.978,8.1239e-05,0
87.978,8.3757e-05,0
87.979,0.00010323,0
87.98,0.00012438,0
87.98,0.00012874,0
87.981,0.00011934,0
87.981,9.7185e-05,0
87.982,7.0329e-05,0
87.982,6.0761e-05,0
87.983,7.8218e-05,0
87.983,0.00011179,0
87.984,0.00014653,0
87.984,0.000165,0
87.985,0.00015879,0
87.985,0.00014217,0
87.986,0.00012572,0
87.986,0.00010994,0
87.987,9.6178e-05,0
87.987,8.1743e-05,0
87.988,5.7908e-05,0
87.988,2.2324e-05,0
87.989,-1.1246e-05,0
87.989,-2.4674e-05,0
87.99,-1.9974e-05,0
87.99,-1.326e-05,0
87.991,-1.3931e-05,0
87.991,-1.8967e-05,0
87.992,-2.1653e-05,0
87.992,-1.8463e-05,0
87.993,-1.6449e-05,0
87.994,-1.6953e-05,0
87.994,-1.6617e-05,0
87.995,-1.5946e-05,0
87.995,-1.4435e-05,0
87.996,-1.091e-05,0
87.996,-5.2033e-06,0
87.997,3.8605e-06,0
87.997,1.4939e-05,0
87.998,2.8031e-05,0
87.998,5.1865e-05,0
87.999,8.7617e-05,0
87.999,0.0001138,0
88,0.00011498,0
88,0.00010121,0
88.001,8.6442e-05,0
88.001,7.805e-05,0
88.002,8.3085e-05,0
88.002,9.3324e-05,0
88.003,8.5771e-05,0
88.003,5.153e-05,0
88.004,3.6927e-06,0
88.004,-4.6662e-05,0
88.005,-0.0001086,0
88.005,-0.00017557,0
88.006,-0.00021971,0
88.007,-0.00022676,0
88.007,-0.00020293,0
88.008,-0.00016164,0
88.008,-0.00013445,0
88.009,-0.00012589,0
88.009,-9.2485e-05,0
88.01,-1.3596e-05,0
88.01,7.9728e-05,0
88.011,0.00015291,0
88.011,0.00020209,0
88.012,0.00024892,0
88.012,0.00029525,0
88.013,0.00029659,0
88.013,0.00022744,0
88.014,0.00012773,0
88.014,4.3473e-05,0
88.015,-2.2156e-05,0
88.015,-7.4693e-05,0
88.016,-0.00010826,0
88.016,-0.00011951,0
88.017,-0.00010877,0
88.017,-7.9393e-05,0
88.018,-4.213e-05,0
88.018,7.0497e-06,0
88.019,7.3686e-05,0
88.019,0.00014553,0
88.02,0.00019554,0
88.021,0.00019655,0
88.021,0.00015224,0
88.022,9.5171e-05,0
88.022,4.7333e-05,0
88.023,9.9031e-06,0
88.023,-2.3667e-05,0
88.024,-5.539e-05,0
88.024,-9.4163e-05,0
88.025,-0.00013109,0
88.025,-0.00014754,0
88.026,-0.00014368,0
88.026,-0.00011431,0
88.027,-5.623e-05,0
88.027,1.1917e-05,0
88.028,6.3447e-05,0
88.028,8.5771e-05,0
88.029,7.9561e-05,0
88.029,5.2537e-05,0
88.03,2.9374e-05,0
88.03,1.9974e-05,0
88.031,3.0213e-06,0
88.031,-2.8534e-05,0
88.032,-5.7908e-05,0
88.032,-6.714e-05,0
88.033,-5.3376e-05,0
88.034,-2.7695e-05,0
88.034,-2.182e-06,0
88.035,2.4002e-05,0
88.035,5.069e-05,0
88.036,7.1672e-05,0
88.036,7.6707e-05,0
88.037,4.6159e-05,0
88.037,-1.3596e-05,0
88.038,-6.5797e-05,0
88.038,-9.5171e-05,0
88.039,-0.00011968,0
88.039,-0.00013747,0
88.04,-0.00012689,0
88.04,-8.04e-05,0
88.041,-1.9135e-05,0
88.041,2.8031e-05,0
88.042,4.918e-05,0
88.042,6.1936e-05,0
88.043,8.5435e-05,0
88.043,0.0001138,0
88.044,0.00014418,0
88.044,0.00018363,0
88.045,0.00022005,0
88.045,0.00023919,0
88.046,0.00024086,0
88.046,0.00022005,0
88.047,0.00017758,0
88.048,0.0001326,0
88.048,0.00010239,0
88.049,8.0064e-05,0
88.049,4.2466e-05,0
88.05,1.5106e-06,0
88.05,-1.6114e-05,0
88.051,-7.8889e-06,0
88.051,5.8747e-06,0
88.052,8.0568e-06,0
88.052,-1.8463e-06,0
88.053,-8.896e-06,0
88.053,-1.8463e-06,0
88.054,2.0813e-05,0
88.054,4.5991e-05,0
88.055,6.009e-05,0
88.055,5.7908e-05,0
88.056,4.3809e-05,0
88.056,3.6088e-05,0
88.057,4.3809e-05,0
88.057,5.9586e-05,0
88.058,6.7643e-05,0
88.058,5.7908e-05,0
88.059,3.2395e-05,0
88.059,-2.8534e-06,0
88.06,-3.8773e-05,0
88.061,-7.1672e-05,0
88.061,-0.00010457,0
88.062,-0.00013344,0
88.062,-0.00015879,0
88.063,-0.00018178,0
88.063,-0.0001989,0
88.064,-0.00020931,0
88.064,-0.00020998,0
88.065,-0.00019118,0
88.065,-0.00015526,0
88.066,-0.00011531,0
88.066,-7.3854e-05,0
88.067,-3.2395e-05,0
88.067,1.3931e-05,0
88.068,6.9657e-05,0
88.068,0.00012605,0
88.069,0.00017154,0
88.069,0.00019236,0
88.07,0.00018228,0
88.07,0.00015694,0
88.071,0.00013881,0
88.071,0.00012605,0
88.072,0.00010944,0
88.072,9.3996e-05,0
88.073,8.2414e-05,0
88.073,6.7979e-05,0
88.074,4.3473e-05,0
88.075,7.0497e-06,0
88.075,-3.6255e-05,0
88.076,-8.275e-05,0
88.076,-0.00012001,0
88.077,-0.00012639,0
88.077,-0.00010289,0
88.078,-6.5461e-05,0
88.078,-2.8367e-05,0
88.079,-6.714e-07,0
88.079,1.2253e-05,0
88.08,2.0813e-05,0
88.08,3.1556e-05,0
88.081,4.7501e-05,0
88.081,7.5029e-05,0
88.082,0.00010188,0
88.082,0.00010323,0
88.083,8.1071e-05,0
88.083,5.5222e-05,0
88.084,3.9445e-05,0
88.084,4.2634e-05,0
88.085,6.0929e-05,0
88.085,8.8121e-05,0
88.086,0.00012068,0
88.086,0.00015023,0
88.087,0.00016466,0
88.088,0.00015492,0
88.088,0.0001321,0
88.089,0.00011582,0
88.089,0.00010793,0
88.09,9.3492e-05,0
88.09,6.244e-05,0
88.091,2.7359e-05,0
88.091,5.8747e-06,0
88.092,-8.3925e-07,0
88.092,-1.0071e-06,0
88.093,-2.182e-06,0
88.093,-3.6927e-06,0
88.094,1.0071e-06,0
88.094,1.4267e-05,0
88.095,3.1388e-05,0
88.095,4.6494e-05,0
88.096,6.2943e-05,0
88.096,7.8721e-05,0
88.097,6.949e-05,0
88.097,1.5274e-05,0
88.098,-4.9683e-05,0
88.098,-7.8386e-05,0
88.099,-7.1e-05,0
88.099,-5.3544e-05,0
88.1,-4.2466e-05,0
88.1,-3.8437e-05,0
88.101,-4.7166e-05,0
88.102,-7.4693e-05,0
88.102,-0.0001133,0
88.103,-0.00014469,0
88.103,-0.00015492,0
88.104,-0.00014469,0
88.104,-0.00012992,0
88.105,-0.0001138,0
88.105,-8.5771e-05,0
88.106,-4.4816e-05,0
88.106,5.0355e-06,0
88.107,5.0858e-05,0
88.107,8.6442e-05,0
88.108,0.00011196,0
88.108,0.00012488,0
88.109,0.00013579,0
88.109,0.00015509,0
88.11,0.00017977,0
88.11,0.00019991,0
88.111,0.00020092,0
88.111,0.00017977,0
88.112,0.00014687,0
88.112,0.0001039,0
88.113,5.9754e-05,0
88.113,3.508e-05,0
88.114,3.2395e-05,0
88.115,3.8605e-05,0
88.115,3.827e-05,0
88.116,2.3331e-05,0
88.116,8.3925e-07,0
88.117,-1.561e-05,0
88.117,-3.7766e-05,0
88.118,-7.6036e-05,0
88.118,-0.00010222,0
88.119,-8.7953e-05,0
88.119,-4.9851e-05,0
88.12,-1.796e-05,0
88.12,-5.7069e-06,0
88.121,-5.539e-06,0
88.121,-7.7211e-06,0
88.122,-8.2246e-06,0
88.122,-5.0355e-07,0
88.123,1.6953e-05,0
88.123,3.6088e-05,0
88.124,3.3066e-05,0
88.124,8.3925e-07,0
88.125,-3.8941e-05,0
88.125,-6.7308e-05,0
88.126,-7.8553e-05,0
88.126,-7.4189e-05,0
88.127,-6.2776e-05,0
88.127,-5.5055e-05,0
88.128,-5.3544e-05,0
88.129,-5.6733e-05,0
88.129,-5.2537e-05,0
88.13,-2.9374e-05,0
88.13,1.0071e-06,0
88.131,2.4002e-05,0
88.131,2.266e-05,0
88.132,1.0071e-06,0
88.132,-1.1246e-05,0
88.133,-6.2104e-06,0
88.133,3.1891e-06,0
88.134,3.8605e-06,0
88.134,-2.182e-06,0
88.135,1.4435e-05,0
88.135,5.623e-05,0
88.136,9.836e-05,0
88.136,0.0001274,0
88.137,0.00014217,0
88.137,0.00014032,0
88.138,0.00011699,0
88.138,7.805e-05,0
88.139,4.1459e-05,0
88.139,2.1149e-05,0
88.14,1.5946e-05,0
88.14,1.3931e-05,0
88.141,1.0575e-05,0
88.141,6.0426e-06,0
88.142,-3.357e-07,0
88.143,-5.0355e-07,0
88.143,1.326e-05,0
88.144,3.1052e-05,0
88.144,3.9277e-05,0
88.145,3.6927e-05,0
88.145,3.592e-05,0
88.146,4.3473e-05,0
88.146,5.1865e-05,0
88.147,5.3208e-05,0
88.147,5.153e-05,0
88.148,5.6901e-05,0
88.148,7.2007e-05,0
88.149,9.3156e-05,0
88.149,0.00011498,0
88.15,0.00013512,0
88.15,0.00014301,0
88.151,0.00013008,0
88.151,0.00010541,0
88.152,8.5603e-05,0
88.152,7.6707e-05,0
88.153,7.4525e-05,0
88.153,7.6371e-05,0
88.154,6.8147e-05,0
88.154,3.5416e-05,0
88.155,-3.357e-06,0
88.156,-3.0884e-05,0
88.156,-5.0187e-05,0
88.157,-5.5726e-05,0
88.157,-3.978e-05,0
88.158,-1.8631e-05,0
88.158,-1.3931e-05,0
88.159,-1.6617e-05,0
88.159,-1.7624e-05,0
88.16,-2.4674e-05,0
88.16,-3.1388e-05,0
88.161,-2.1317e-05,0
88.161,-3.6927e-06,0
88.162,6.5461e-06,0
88.162,1.561e-05,0
88.163,2.8702e-05,0
88.163,2.6688e-05,0
88.164,-7.3854e-06,0
88.164,-4.448e-05,0
88.165,-5.3376e-05,0
88.165,-4.7166e-05,0
88.166,-4.918e-05,0
88.166,-5.7404e-05,0
88.167,-5.9586e-05,0
88.167,-5.5894e-05,0
88.168,-5.1865e-05,0
88.168,-4.7837e-05,0
88.169,-4.0787e-05,0
88.17,-2.5345e-05,0
88.17,-3.6927e-06,0
88.171,1.4267e-05,0
88.171,2.5345e-05,0
88.172,2.6017e-05,0
88.172,1.7288e-05,0
88.173,1.796e-05,0
88.173,3.3738e-05,0
88.174,5.7237e-05,0
88.174,7.6707e-05,0
88.175,9.5842e-05,0
88.175,0.00012068,0
88.176,0.00014586,0
88.176,0.00016265,0
88.177,0.00015828,0
88.177,0.00012824,0
88.178,9.6513e-05,0
88.178,7.6371e-05,0
88.179,5.8915e-05,0
88.179,4.0955e-05,0
88.18,2.3667e-05,0
88.18,2.5177e-06,0
88.181,-2.1149e-05,0
88.181,-3.9277e-05,0
88.182,-5.3208e-05,0
88.183,-6.3951e-05,0
88.183,-8.1071e-05,0
88.184,-0.0001086,0
88.184,-0.00012757,0
88.185,-0.00011666,0
88.185,-8.7114e-05,0
88.186,-5.6565e-05,0
88.186,-2.5513e-05,0
88.187,4.8676e-06,0
88.187,2.1317e-05,0
88.188,2.1317e-05,0
88.188,1.4771e-05,0
88.189,8.0568e-06,0
88.189,-1.5106e-06,0
88.19,-1.2924e-05,0
88.19,-2.2995e-05,0
88.191,-4.6326e-05,0
88.191,-8.1071e-05,0
88.192,-9.1478e-05,0
88.192,-5.6733e-05,0
88.193,-3.8605e-06,0
88.193,2.9206e-05,0
88.194,3.2059e-05,0
88.194,3.1388e-05,0
88.195,5.1362e-05,0
88.195,8.5435e-05,0
88.196,0.00012052,0
88.197,0.0001514,0
88.197,0.00017288,0
88.198,0.00017339,0
88.198,0.00014737,0
88.199,0.00010658,0
88.199,7.4861e-05,0
88.2,6.4286e-05,0
88.2,7.2007e-05,0
88.201,9.1142e-05,0
88.201,0.00011095,0
88.202,0.00011783,0
88.202,0.00011246,0
88.203,9.9199e-05,0
88.203,7.805e-05,0
88.204,4.8508e-05,0
88.204,1.1246e-05,0
88.205,-1.9974e-05,0
88.205,-2.4842e-05,0
88.206,-1.091e-05,0
88.206,-2.182e-06,0
88.207,0,0
88.207,4.5319e-06,0
88.208,1.5106e-05,0
88.208,2.6352e-05,0
88.209,3.4241e-05,0
88.21,4.3641e-05,0
88.21,6.1433e-05,0
88.211,8.0064e-05,0
88.211,8.3085e-05,0
88.212,6.5629e-05,0
88.212,3.4073e-05,0
88.213,-1.4771e-05,0
88.213,-8.3253e-05,0
88.214,-0.00015509,0
88.214,-0.00021804,0
88.215,-0.00026772,0
88.215,-0.00028719,0
88.216,-0.00026873,0
88.216,-0.00022727,0
88.217,-0.00018027,0
88.217,-0.00013294,0
88.218,-7.7379e-05,0
88.218,-1.2924e-05,0
88.219,5.7404e-05,0
88.219,0.00013092,0
88.22,0.0001984,0
88.22,0.0002506,0
88.221,0.00028383,0
88.221,0.0002976,0
88.222,0.00029256,0
88.222,0.00027276,0
88.223,0.00023885,0
88.224,0.0001942,0
88.224,0.00014586,0
88.225,0.00010793,0
88.225,8.8289e-05,0
88.226,7.9393e-05,0
88.226,7.2679e-05,0
88.227,5.5222e-05,0
88.227,1.4267e-05,0
88.228,-3.8437e-05,0
88.228,-6.6972e-05,0
88.229,-6.3279e-05,0
88.229,-4.8676e-05,0
88.23,-4.2466e-05,0
88.23,-5.3208e-05,0
88.231,-6.949e-05,0
88.231,-7.7043e-05,0
88.232,-7.1839e-05,0
88.232,-6.0258e-05,0
88.233,-5.1194e-05,0
88.233,-5.4383e-05,0
88.234,-7.2343e-05,0
88.234,-9.3492e-05,0
88.235,-0.00010272,0
88.235,-8.9967e-05,0
88.236,-5.4551e-05,0
88.237,-5.8747e-06,0
88.237,4.683e-05,0
88.238,9.752e-05,0
88.238,0.00014737,0
88.239,0.00019789,0
88.239,0.00023566,0
88.24,0.0002501,0
88.24,0.00024053,0
88.241,0.00020713,0
88.241,0.00015341,0
88.242,9.1142e-05,0
88.242,3.508e-05,0
88.243,-1.3931e-05,0
88.243,-5.9586e-05,0
88.244,-9.3828e-05,0
88.244,-0.00010524,0
88.245,-9.5003e-05,0
88.245,-7.6875e-05,0
88.246,-7.0832e-05,0
88.246,-8.0064e-05,0
88.247,-9.3996e-05,0
88.247,-9.9535e-05,0
88.248,-9.0471e-05,0
88.248,-6.7979e-05,0
88.249,-4.1627e-05,0
88.249,-1.561e-05,0
88.25,5.7069e-06,0
88.251,1.8799e-05,0
88.251,1.9638e-05,0
88.252,1.7624e-05,0
88.252,3.0381e-05,0
88.253,5.1698e-05,0
88.253,6.4286e-05,0
88.254,6.244e-05,0
88.254,5.4887e-05,0
88.255,5.0187e-05,0
88.255,5.0523e-05,0
88.256,5.0858e-05,0
88.256,4.7501e-05,0
88.257,4.3641e-05,0
88.257,3.8773e-05,0
88.258,3.0716e-05,0
88.258,1.9974e-05,0
88.259,5.0355e-06,0
88.259,-1.5442e-05,0
88.26,-3.6591e-05,0
88.26,-3.8773e-05,0
88.261,-1.6617e-05,0
88.261,1.3931e-05,0
88.262,3.7263e-05,0
88.262,5.2201e-05,0
88.263,6.1936e-05,0
88.264,6.7308e-05,0
88.264,7.335e-05,0
88.265,7.3518e-05,0
88.265,5.8579e-05,0
88.266,3.8773e-05,0
88.266,2.4002e-05,0
88.267,1.5778e-05,0
88.267,1.2589e-05,0
88.268,4.8676e-06,0
88.268,-1.796e-05,0
88.269,-5.8747e-05,0
88.269,-9.4499e-05,0
88.27,-0.00010239,0
88.27,-8.0903e-05,0
88.271,-4.6494e-05,0
88.271,-2.0645e-05,0
88.272,-1.1582e-05,0
88.272,-1.4267e-05,0
88.273,-1.9974e-05,0
88.273,-2.501e-05,0
88.274,-2.3331e-05,0
88.274,-1.2421e-05,0
88.275,8.3925e-07,0
88.275,2.3499e-06,0
88.276,-1.3931e-05,0
88.276,-2.8367e-05,0
88.277,-1.1078e-05,0
88.278,3.508e-05,0
88.278,8.1239e-05,0
88.279,0.00010591,0
88.279,0.00011649,0
88.28,0.0001284,0
88.28,0.0001368,0
88.281,0.00011733,0
88.281,6.8315e-05,0
88.282,3.1891e-06,0
88.282,-6.6972e-05,0
88.283,-0.00012975,0
88.283,-0.00016936,0
88.284,-0.00016835,0
88.284,-0.00012572,0
88.285,-5.6062e-05,0
88.285,2.1988e-05,0
88.286,9.2821e-05,0
88.286,0.0001467,0
88.287,0.00018061,0
88.287,0.00019789,0
88.288,0.00019789,0
88.288,0.00017406,0
88.289,0.00012656,0
88.289,6.5629e-05,0
88.29,1.1749e-05,0
88.291,-2.3835e-05,0
88.291,-4.1794e-05,0
88.292,-4.1794e-05,0
88.292,-3.1388e-05,0
88.293,-2.031e-05,0
88.293,-1.2924e-05,0
88.294,-5.539e-06,0
88.294,5.2033e-06,0
88.295,1.8128e-05,0
88.295,3.4745e-05,0
88.296,5.4551e-05,0
88.296,6.2272e-05,0
88.297,4.9012e-05,0
88.297,2.5345e-05,0
88.298,-1.6785e-06,0
88.298,-2.2324e-05,0
88.299,-2.8534e-05,0
88.299,-6.2104e-06,0
88.3,4.4984e-05,0
88.3,0.00010188,0
88.301,0.00014452,0
88.301,0.00018547,0
88.302,0.00022777,0
88.302,0.00026369,0
88.303,0.00029659,0
88.303,0.00031774,0
88.304,0.00031405,0
88.305,0.00028048,0
88.305,0.00022676,0
88.306,0.00015929,0
88.306,7.4861e-05,0
88.307,-1.6617e-05,0
88.307,-9.6345e-05,0
88.308,-0.00015056,0
88.308,-0.00018027,0
88.309,-0.00020125,0
88.309,-0.00023146,0
88.31,-0.00027494,0
88.31,-0.00030985,0
88.311,-0.00031958,0
88.311,-0.00030246,0
88.312,-0.00025765,0
88.312,-0.0001942,0
88.313,-0.0001279,0
88.313,-6.5629e-05,0
88.314,-2.0142e-06,0
88.314,5.8244e-05,0
88.315,0.00010323,0
88.315,0.00013075,0
88.316,0.00014871,0
88.316,0.00015761,0
88.317,0.00015224,0
88.318,0.00013411,0
88.318,0.00010809,0
88.319,7.7379e-05,0
88.319,4.8173e-05,0
88.32,2.5345e-05,0
88.32,2.8534e-06,0
88.321,-2.6352e-05,0
88.321,-5.4047e-05,0
88.322,-7.4022e-05,0
88.322,-9.3828e-05,0
88.323,-0.00011028,0
88.323,-0.00010927,0
88.324,-0.00010088,0
88.324,-9.7688e-05,0
88.325,-8.4764e-05,0
88.325,-4.7166e-05,0
88.326,1.3428e-05,0
88.326,8.04e-05,0
88.327,0.00013126,0
88.327,0.0001566,0
88.328,0.00016667,0
88.328,0.00017607,0
88.329,0.00018061,0
88.329,0.00016718,0
88.33,0.0001331,0
88.331,8.4764e-05,0
88.331,1.2924e-05,0
88.332,-9.1814e-05,0
88.332,-0.00019353,0
88.333,-0.00024405,0
88.333,-0.00023264,0
88.334,-0.00018631,0
88.334,-0.00013193,0
88.335,-7.9561e-05,0
88.335,-2.7024e-05,0
88.336,2.7024e-05,0
88.336,8.4428e-05,0
88.337,0.00014955,0
88.337,0.00023264,0
88.338,0.00031791,0
88.338,0.00036507,0
88.339,0.00034543,0
88.339,0.00027376,0
88.34,0.00018363,0
88.34,9.0806e-05,0
88.341,7.3854e-06,0
88.341,-4.3809e-05,0
88.342,-5.3376e-05,0
88.342,-4.0452e-05,0
88.343,-2.9038e-05,0
88.343,-2.6184e-05,0
88.344,-1.4939e-05,0
88.345,2.266e-05,0
88.345,7.805e-05,0
88.346,0.00011968,0
88.346,0.00013512,0
88.347,0.00013545,0
88.347,0.00012723,0
88.348,0.0001091,0
88.348,8.3757e-05,0
88.349,5.5726e-05,0
88.349,3.508e-05,0
88.35,2.9206e-05,0
88.35,3.1388e-05,0
88.351,2.9038e-05,0
88.351,2.1653e-05,0
88.352,9.5674e-06,0
88.352,-8.7282e-06,0
88.353,-2.9206e-05,0
88.353,-4.683e-05,0
88.354,-5.9922e-05,0
88.354,-6.6468e-05,0
88.355,-6.8818e-05,0
88.355,-7.0329e-05,0
88.356,-7.2847e-05,0
88.356,-7.4189e-05,0
88.357,-7.1e-05,0
88.358,-6.3615e-05,0
88.358,-5.304e-05,0
88.359,-4.1123e-05,0
88.359,-2.9709e-05,0
88.36,-2.0645e-05,0
88.36,-1.9974e-05,0
88.361,-3.1388e-05,0
88.361,-3.9277e-05,0
88.362,-3.1556e-05,0
88.362,-9.0639e-06,0
88.363,2.7359e-05,0
88.363,7.3686e-05,0
88.364,0.00011263,0
88.364,0.00013277,0
88.365,0.00012773,0
88.365,9.6178e-05,0
88.366,5.0858e-05,0
88.366,3.1891e-06,0
88.367,-4.1123e-05,0
88.367,-7.1672e-05,0
88.368,-7.4525e-05,0
88.368,-4.4648e-05,0
88.369,-5.2033e-06,0
88.369,8.7282e-06,0
88.37,-9.7353e-06,0
88.37,-3.6759e-05,0
88.371,-5.0187e-05,0
88.372,-5.4887e-05,0
88.372,-6.1601e-05,0
88.373,-6.6636e-05,0
88.373,-6.2608e-05,0
88.374,-4.918e-05,0
88.374,-3.1052e-05,0
88.375,-1.3596e-05,0
88.375,0,0
88.376,8.896e-06,0
88.376,1.3092e-05,0
88.377,1.561e-05,0
88.377,1.9135e-05,0
88.378,2.9374e-05,0
88.378,5.8579e-05,0
88.379,9.3156e-05,0
88.379,0.00011363,0
88.38,0.000118,0
88.38,0.00011431,0
88.381,0.00010726,0
88.381,9.4331e-05,0
88.382,8.9799e-05,0
88.382,0.0001039,0
88.383,0.00012438,0
88.383,0.00012941,0
88.384,0.00012052,0
88.385,0.0001133,0
88.385,0.00010591,0
88.386,8.3757e-05,0
88.386,4.0787e-05,0
88.387,-1.5778e-05,0
88.387,-6.8147e-05,0
88.388,-0.00010172,0
88.388,-0.00010726,0
88.389,-8.8457e-05,0
88.389,-6.0594e-05,0
88.39,-3.122e-05,0
88.39,-6.0426e-06,0
88.391,7.8889e-06,0
88.391,1.1246e-05,0
88.392,5.0355e-07,0
88.392,-3.1724e-05,0
88.393,-8.1575e-05,0
88.393,-0.00012723,0
88.394,-0.00015795,0
88.394,-0.00017389,0
88.395,-0.00017322,0
88.395,-0.00015526,0
88.396,-0.00012303,0
88.396,-7.7043e-05,0
88.397,-1.5946e-05,0
88.397,4.1627e-05,0
88.398,7.6371e-05,0
88.399,0.00010222,0
88.399,0.00013814,0
88.4,0.00017104,0
88.4,0.00017809,0
88.401,0.00015224,0
88.401,0.00010356,0
88.402,5.5558e-05,0
88.402,2.7024e-05,0
88.403,2.0645e-05,0
88.403,3.3066e-05,0
88.404,5.8915e-05,0
88.404,8.8457e-05,0
88.405,0.0001227,0
88.405,0.00015929,0
88.406,0.00018245,0
88.406,0.00018883,0
88.407,0.00019286,0
88.407,0.00020478,0
88.408,0.00021048,0
88.408,0.00019252,0
88.409,0.00015258,0
88.409,0.00010692,0
88.41,7.4022e-05,0
88.41,6.1265e-05,0
88.411,5.7069e-05,0
88.412,4.1459e-05,0
88.412,1.8463e-06,0
88.413,-5.069e-05,0
88.413,-8.6107e-05,0
88.414,-9.2317e-05,0
88.414,-8.0903e-05,0
88.415,-6.7811e-05,0
88.415,-6.0258e-05,0
88.416,-5.2873e-05,0
88.416,-3.1891e-05,0
88.417,2.8534e-06,0
88.417,3.3906e-05,0
88.418,4.7166e-05,0
88.418,5.0858e-05,0
88.419,5.1362e-05,0
88.419,3.4745e-05,0
88.42,1.0071e-06,0
88.42,-2.5681e-05,0
88.421,-3.592e-05,0
88.421,-4.0452e-05,0
88.422,-4.5151e-05,0
88.422,-5.069e-05,0
88.423,-6.9993e-05,0
88.423,-8.7449e-05,0
88.424,-7.7882e-05,0
88.424,-5.8412e-05,0
88.425,-6.8482e-05,0
88.426,-0.00010675,0
88.426,-0.00011884,0
88.427,-6.4286e-05,0
88.427,2.6688e-05,0
88.428,9.4163e-05,0
88.428,0.00010457,0
88.429,8.0064e-05,0
88.429,5.623e-05,0
88.43,3.4745e-05,0
88.43,3.6927e-06,0
88.431,-2.7024e-05,0
88.431,-3.9948e-05,0
88.432,-3.4409e-05,0
88.432,-2.8702e-05,0
88.433,-2.887e-05,0
88.433,-1.3596e-05,0
88.434,1.8799e-05,0
88.434,2.8031e-05,0
88.435,-8.3925e-07,0
88.435,-2.6688e-05,0
88.436,-3.3738e-05,0
88.436,-4.3473e-05,0
88.437,-5.9754e-05,0
88.437,-6.8482e-05,0
88.438,-5.5222e-05,0
88.439,-6.5461e-06,0
88.439,6.9657e-05,0
88.44,0.00014687,0
88.44,0.00019135,0
88.441,0.00018984,0
88.441,0.00015627,0
88.442,0.00011061,0
88.442,7.8889e-05,0
88.443,7.0329e-05,0
88.443,7.5364e-05,0
88.444,8.6946e-05,0
88.444,0.0001044,0
88.445,0.0001232,0
88.445,0.00014049,0
88.446,0.00015895,0
88.446,0.00017809,0
88.447,0.00018766,0
88.447,0.00017171,0
88.448,0.00012975,0
88.448,8.6275e-05,0
88.449,6.7308e-05,0
88.449,6.6804e-05,0
88.45,6.6804e-05,0
88.45,7.1e-05,0
88.451,8.3589e-05,0
88.451,8.7114e-05,0
88.452,6.7308e-05,0
88.453,2.9206e-05,0
88.453,-8.896e-06,0
88.454,-3.9109e-05,0
88.454,-5.9419e-05,0
88.455,-7.0665e-05,0
88.455,-8.04e-05,0
88.456,-9.2317e-05,0
88.456,-0.00010574,0
88.457,-0.00011666,0
88.457,-0.00012136,0
88.458,-0.00011901,0
88.458,-0.00011565,0
88.459,-0.00011279,0
88.459,-0.00011044,0
88.46,-0.00010843,0
88.46,-0.00010658,0
88.461,-9.987e-05,0
88.461,-8.6107e-05,0
88.462,-6.8315e-05,0
88.462,-4.9851e-05,0
88.463,-3.2563e-05,0
88.463,-1.9974e-05,0
88.464,-1.0239e-05,0
88.464,-2.5177e-06,0
88.465,6.714e-07,0
88.466,1.8463e-06,0
88.466,5.0355e-06,0
88.467,1.4939e-05,0
88.467,2.6688e-05,0
88.468,3.2563e-05,0
88.468,3.4745e-05,0
88.469,3.5752e-05,0
88.469,3.4745e-05,0
88.47,3.1724e-05,0
88.47,2.9709e-05,0
88.471,2.8367e-05,0
88.471,2.8534e-05,0
88.472,2.6017e-05,0
88.472,2.031e-05,0
88.473,1.6617e-05,0
88.473,1.9303e-05,0
88.474,2.2828e-05,0
88.474,2.4338e-05,0
88.475,2.4674e-05,0
88.475,2.6184e-05,0
88.476,2.7024e-05,0
88.476,2.6352e-05,0
88.477,2.5177e-05,0
88.477,2.5177e-05,0
88.478,2.7192e-05,0
88.478,2.8031e-05,0
88.479,3.0045e-05,0
88.48,3.357e-05,0
88.48,3.7095e-05,0
88.481,4.8341e-05,0
88.481,6.6636e-05,0
88.482,8.0903e-05,0
88.482,8.5435e-05,0
88.483,8.3757e-05,0
88.483,7.805e-05,0
88.484,6.9657e-05,0
88.484,6.2943e-05,0
88.485,6.009e-05,0
88.485,5.2537e-05,0
88.486,4.0116e-05,0
88.486,2.6688e-05,0
88.487,1.4603e-05,0
88.487,-1.1749e-06,0
88.488,-2.5681e-05,0
88.488,-4.9851e-05,0
88.489,-7.0665e-05,0
88.489,-9.752e-05,0
88.49,-0.00013445,0
88.49,-0.00016835,0
88.491,-0.00018161,0
88.491,-0.00017473,0
88.492,-0.00015744,0
88.493,-0.00013243,0
88.493,-0.00010407,0
88.494,-7.3182e-05,0
88.494,-2.887e-05,0
88.495,4.2802e-05,0
88.495,0.0001462,0
88.496,0.00026705,0
88.496,0.00037447,0
88.497,0.00042869,0
88.497,0.00041341,0
88.498,0.00035399,0
88.498,0.00028417,0
88.499,0.00020612,0
88.499,0.00010373,0
88.5,-1.1917e-05,0
88.5,-0.00011431,0
88.501,-0.00020729,0
88.501,-0.00028635,0
88.502,-0.00030381,0
88.502,-0.00022492,0
88.503,-9.5674e-05,0
88.503,1.4771e-05,0
88.504,9.4835e-05,0
88.504,0.00016768,0
88.505,0.00024691,0
88.505,0.00032546,0
88.506,0.00039159,0
88.507,0.00042953,0
88.507,0.00042416,0
88.508,0.00037263,0
88.508,0.00029021,0
88.509,0.00018984,0
88.509,8.191e-05,0
88.51,-2.2995e-05,0
88.51,-0.00010625,0
88.511,-0.00014083,0
88.511,-0.00012052,0
88.512,-8.6107e-05,0
88.512,-8.9799e-05,0
88.513,-0.00013092,0
88.513,-0.00015895,0
88.514,-0.00015241,0
88.514,-0.0001415,0
88.515,-0.00015476,0
88.515,-0.00017607,0
88.516,-0.0001702,0
88.516,-0.00013495,0
88.517,-8.8792e-05,0
88.517,-4.5823e-05,0
88.518,-9.3996e-06,0
88.518,2.2828e-05,0
88.519,4.1123e-05,0
88.519,3.2059e-05,0
88.52,4.5319e-06,0
88.521,-1.9303e-05,0
88.521,-2.9877e-05,0
88.522,-3.1724e-05,0
88.522,-2.182e-05,0
88.523,-1.3092e-05,0
88.523,-1.6449e-05,0
88.524,-3.2898e-05,0
88.524,-5.3208e-05,0
88.525,-5.7572e-05,0
88.525,-4.2466e-05,0
88.526,-2.5345e-05,0
88.526,-1.8128e-05,0
88.527,-1.9135e-05,0
88.527,-2.3331e-05,0
88.528,-2.7359e-05,0
88.528,-1.4771e-05,0
88.529,2.0813e-05,0
88.529,6.6972e-05,0
88.53,0.00011078,0
88.53,0.00013948,0
88.531,0.00014083,0
88.531,0.00012203,0
88.532,0.00010188,0
88.532,9.0303e-05,0
88.533,8.2246e-05,0
