1.7804,5.5894e-05,0
1.781,5.5726e-05,0
1.7815,4.9683e-05,0
1.782,4.3641e-05,0
1.7825,4.2298e-05,0
1.783,4.6159e-05,0
1.7836,4.8173e-05,0
1.7841,4.5151e-05,0
1.7846,4.8173e-05,0
1.7851,6.3615e-05,0
1.7856,7.1168e-05,0
1.7862,5.0187e-05,0
1.7867,1.4771e-05,0
1.7872,6.714e-07,0
1.7877,7.5532e-06,0
1.7882,9.2317e-06,0
1.7888,-3.0213e-06,0
1.7893,-1.6281e-05,0
1.7898,-1.6281e-05,0
1.7903,-1.4267e-05,0
1.7908,-2.1317e-05,0
1.7913,-2.501e-05,0
1.7919,-1.6617e-05,0
1.7924,-8.3925e-06,0
1.7929,-9.0639e-06,0
1.7934,-8.2246e-06,0
1.7939,-5.0355e-06,0
1.7945,-5.3712e-06,0
1.795,-8.2246e-06,0
1.7955,-1.091e-05,0
1.796,-1.2253e-05,0
1.7965,-8.2246e-06,0
1.7971,5.7069e-06,0
1.7976,1.6617e-05,0
1.7981,1.5946e-05,0
1.7986,1.561e-05,0
1.7991,1.561e-05,0
1.7997,8.2246e-06,0
1.8002,-6.8818e-06,0
1.8007,-2.4002e-05,0
1.8012,-2.1653e-05,0
1.8017,1.6617e-05,0
1.8022,6.5629e-05,0
1.8028,8.6275e-05,0
1.8033,6.5629e-05,0
1.8038,2.3163e-05,0
1.8043,-1.2085e-05,0
1.8048,-1.9135e-05,0
1.8054,-1.3596e-05,0
1.8059,-1.1414e-05,0
1.8064,-1.0071e-06,0
1.8069,2.3163e-05,0
1.8074,5.4551e-05,0
1.808,7.5029e-05,0
1.8085,6.479e-05,0
1.809,3.0884e-05,0
1.8095,-5.539e-06,0
1.81,-2.0478e-05,0
1.8106,-6.714e-07,0
1.8111,2.7024e-05,0
1.8116,2.9877e-05,0
1.8121,6.714e-06,0
1.8126,-2.1317e-05,0
1.8132,-3.1388e-05,0
1.8137,-1.7288e-05,0
1.8142,-1.8631e-05,0
1.8147,-3.978e-05,0
1.8152,-4.0452e-05,0
1.8157,-2.7192e-05,0
1.8163,-1.8631e-05,0
1.8168,4.1962e-06,0
1.8173,3.6423e-05,0
1.8178,4.6494e-05,0
1.8183,3.8941e-05,0
1.8189,4.1291e-05,0
1.8194,5.8747e-05,0
1.8199,7.6036e-05,0
1.8204,7.2679e-05,0
1.8209,5.623e-05,0
1.8215,5.8747e-05,0
1.822,7.8386e-05,0
1.8225,7.9728e-05,0
1.823,5.153e-05,0
1.8235,3.0045e-05,0
1.8241,3.8941e-05,0
1.8246,5.6733e-05,0
1.8251,6.1936e-05,0
1.8256,6.1097e-05,0
1.8261,6.1265e-05,0
1.8267,6.1265e-05,0
1.8272,5.9419e-05,0
1.8277,5.2873e-05,0
1.8282,4.1962e-05,0
1.8287,3.2563e-05,0
1.8293,3.0716e-05,0
1.8298,3.2059e-05,0
1.8303,2.8702e-05,0
1.8308,2.4002e-05,0
1.8313,2.2324e-05,0
1.8318,2.2492e-05,0
1.8324,2.0645e-05,0
1.8329,1.3596e-05,0
1.8334,1.2421e-05,0
1.8339,1.8296e-05,0
1.8344,2.6017e-05,0
1.835,4.0955e-05,0
1.8355,5.4887e-05,0
1.836,5.9419e-05,0
1.8365,5.8412e-05,0
1.837,5.8244e-05,0
1.8376,5.8915e-05,0
1.8381,5.6901e-05,0
1.8386,5.0187e-05,0
1.8391,4.3473e-05,0
1.8396,3.5752e-05,0
1.8402,2.417e-05,0
1.8407,1.2924e-05,0
1.8412,-5.8747e-06,0
1.8417,-2.9038e-05,0
1.8422,-3.7263e-05,0
1.8428,-2.8534e-05,0
1.8433,-1.5274e-05,0
1.8438,-9.2317e-06,0
1.8443,-1.0239e-05,0
1.8448,-9.5674e-06,0
1.8453,-4.1962e-06,0
1.8459,-2.6856e-06,0
1.8464,-4.1962e-06,0
1.8469,2.182e-06,0
1.8474,1.2589e-05,0
1.8479,1.7121e-05,0
1.8485,1.9303e-05,0
1.849,2.1149e-05,0
1.8495,2.031e-05,0
1.85,1.8967e-05,0
1.8505,1.8967e-05,0
1.8511,1.9135e-05,0
1.8516,1.9974e-05,0
1.8521,2.266e-05,0
1.8526,2.7359e-05,0
1.8531,3.1724e-05,0
1.8537,3.4745e-05,0
1.8542,3.9109e-05,0
1.8547,3.9948e-05,0
1.8552,3.5248e-05,0
1.8557,3.1388e-05,0
1.8562,2.9038e-05,0
1.8568,2.4002e-05,0
1.8573,1.326e-05,0
1.8578,2.8534e-06,0
1.8583,1.5106e-06,0
1.8588,6.2104e-06,0
1.8594,6.0426e-06,0
1.8599,4.5319e-06,0
1.8604,4.5319e-06,0
1.8609,3.1891e-06,0
1.8614,1.8463e-06,0
1.862,3.8605e-06,0
1.8625,4.1962e-06,0
1.863,5.539e-06,0
1.8635,6.5461e-06,0
1.864,7.0497e-06,0
1.8646,1.326e-05,0
1.8651,2.2324e-05,0
1.8656,2.8702e-05,0
1.8661,3.6088e-05,0
1.8666,4.6159e-05,0
1.8672,5.1865e-05,0
1.8677,4.5655e-05,0
1.8682,3.2731e-05,0
1.8687,2.2828e-05,0
1.8692,2.1149e-05,0
1.8698,1.796e-05,0
1.8703,1.5106e-06,0
1.8708,-1.2085e-05,0
1.8713,-9.5674e-06,0
1.8718,4.1962e-06,0
1.8723,2.031e-05,0
1.8729,2.3331e-05,0
1.8734,1.4603e-05,0
1.8739,1.0575e-05,0
1.8744,1.4939e-05,0
1.8749,2.2324e-05,0
1.8755,3.1891e-05,0
1.876,4.0452e-05,0
1.8765,4.1794e-05,0
1.877,3.743e-05,0
1.8775,3.0381e-05,0
1.8781,2.6017e-05,0
1.8786,2.7359e-05,0
1.8791,3.2059e-05,0
1.8796,3.9445e-05,0
1.8801,4.0955e-05,0
1.8807,3.7095e-05,0
1.8812,3.4745e-05,0
1.8817,3.2731e-05,0
1.8822,2.6688e-05,0
1.8827,1.4939e-05,0
1.8833,-1.1078e-05,0
1.8838,-3.1891e-05,0
1.8843,-2.5681e-05,0
1.8848,1.5106e-06,0
1.8853,3.0884e-05,0
1.8858,3.8437e-05,0
1.8864,1.6785e-05,0
1.8869,-1.0575e-05,0
1.8874,-2.7192e-05,0
1.8879,-2.7024e-05,0
1.8884,-1.561e-05,0
1.889,-4.1962e-06,0
1.8895,3.5248e-06,0
1.89,1.2589e-05,0
1.8905,3.0716e-05,0
1.891,4.8005e-05,0
1.8916,4.9516e-05,0
1.8921,3.7095e-05,0
1.8926,2.0645e-05,0
1.8931,6.5461e-06,0
1.8936,4.8676e-06,0
1.8942,1.6617e-05,0
1.8947,1.7121e-05,0
1.8952,-2.182e-06,0
1.8957,-1.7624e-05,0
1.8962,-5.539e-06,0
1.8967,2.8031e-05,0
1.8973,5.8915e-05,0
1.8978,7.5532e-05,0
1.8983,8.4092e-05,0
1.8988,8.6946e-05,0
1.8993,8.3085e-05,0
1.8999,8.4932e-05,0
1.9004,8.6778e-05,0
1.9009,7.9896e-05,0
1.9014,6.2943e-05,0
1.9019,4.7501e-05,0
1.9025,4.0787e-05,0
1.903,3.8773e-05,0
1.9035,3.743e-05,0
1.904,3.3066e-05,0
1.9045,1.5778e-05,0
1.9051,-1.7624e-05,0
1.9056,-4.7669e-05,0
1.9061,-5.9251e-05,0
1.9066,-6.1265e-05,0
1.9071,-6.9322e-05,0
1.9077,-7.7882e-05,0
1.9082,-7.3182e-05,0
1.9087,-5.7237e-05,0
1.9092,-3.5584e-05,0
1.9097,-1.091e-05,0
1.9103,5.7069e-06,0
1.9108,1.2253e-05,0
1.9113,1.7624e-05,0
1.9118,2.4338e-05,0
1.9123,2.7359e-05,0
1.9128,2.6688e-05,0
1.9134,2.4338e-05,0
1.9139,2.2156e-05,0
1.9144,2.2995e-05,0
1.9149,2.5681e-05,0
1.9154,3.2059e-05,0
1.916,3.827e-05,0
1.9165,4.1123e-05,0
1.917,3.8102e-05,0
1.9175,3.3234e-05,0
1.918,3.4073e-05,0
1.9186,3.8102e-05,0
1.9191,3.4577e-05,0
1.9196,2.6352e-05,0
1.9201,2.0645e-05,0
1.9206,1.5946e-05,0
1.9212,1.5946e-05,0
1.9217,2.501e-05,0
1.9222,3.2731e-05,0
1.9227,2.9709e-05,0
1.9232,1.4939e-05,0
1.9238,-1.5106e-06,0
1.9243,-1.3596e-05,0
1.9248,-3.357e-07,0
1.9253,3.6423e-05,0
1.9258,5.8579e-05,0
1.9263,5.2705e-05,0
1.9269,4.0787e-05,0
1.9274,3.6088e-05,0
1.9279,3.3738e-05,0
1.9284,2.6017e-05,0
1.9289,9.5674e-06,0
1.9295,0,0
1.93,6.8818e-06,0
1.9305,1.7624e-05,0
1.931,2.1988e-05,0
1.9315,2.0142e-05,0
1.9321,1.5106e-05,0
1.9326,1.091e-05,0
1.9331,1.1582e-05,0
1.9336,1.5946e-05,0
1.9341,1.8967e-05,0
1.9347,2.0645e-05,0
1.9352,2.266e-05,0
1.9357,2.4338e-05,0
1.9362,2.3331e-05,0
1.9367,2.031e-05,0
1.9372,2.1988e-05,0
1.9378,3.0045e-05,0
1.9383,3.592e-05,0
1.9388,3.508e-05,0
1.9393,3.0716e-05,0
1.9398,2.9374e-05,0
1.9404,3.3738e-05,0
1.9409,3.4745e-05,0
1.9414,3.357e-05,0
1.9419,3.5416e-05,0
1.9424,3.0716e-05,0
1.943,1.4603e-05,0
1.9435,2.182e-06,0
1.944,5.8747e-06,0
1.9445,1.3931e-05,0
1.945,9.3996e-06,0
1.9456,-4.8676e-06,0
1.9461,-1.6281e-05,0
1.9466,-2.266e-05,0
1.9471,-2.4338e-05,0
1.9476,-1.7624e-05,0
1.9482,-6.5461e-06,0
1.9487,6.5461e-06,0
1.9492,1.5778e-05,0
1.9497,1.8128e-05,0
1.9502,1.9471e-05,0
1.9507,2.3667e-05,0
1.9513,2.5177e-05,0
1.9518,1.8128e-05,0
1.9523,9.2317e-06,0
1.9528,2.5177e-06,0
1.9533,-1.8463e-06,0
1.9539,-2.8534e-06,0
1.9544,-8.3925e-07,0
1.9549,6.2104e-06,0
1.9554,1.9638e-05,0
1.9559,3.0045e-05,0
1.9565,3.4409e-05,0
1.957,4.683e-05,0
1.9575,6.8482e-05,0
1.958,8.2414e-05,0
1.9585,8.426e-05,0
1.9591,8.51e-05,0
1.9596,7.8889e-05,0
1.9601,6.5797e-05,0
1.9606,6.4286e-05,0
1.9611,7.7546e-05,0
1.9617,8.3421e-05,0
1.9622,7.0665e-05,0
1.9627,4.7333e-05,0
1.9632,2.7527e-05,0
1.9637,9.2317e-06,0
1.9643,-1.7288e-05,0
1.9648,-4.4312e-05,0
1.9653,-4.6998e-05,0
1.9658,-3.2395e-05,0
1.9663,-9.9031e-06,0
1.9668,2.1653e-05,0
1.9674,4.7333e-05,0
1.9679,6.0594e-05,0
1.9684,6.8986e-05,0
1.9689,7.6707e-05,0
1.9694,8.1071e-05,0
1.97,7.8386e-05,0
1.9705,7.6371e-05,0
1.971,8.5771e-05,0
1.9715,9.8695e-05,0
1.972,8.7114e-05,0
1.9726,5.7908e-05,0
1.9731,3.743e-05,0
1.9736,1.6617e-05,0
1.9741,-2.9206e-05,0
1.9746,-9.4499e-05,0
1.9752,-0.00013361,0
1.9757,-0.0001321,0
1.9762,-0.00010759,0
1.9767,-6.9993e-05,0
1.9772,-3.978e-05,0
1.9777,-3.6088e-05,0
1.9783,-4.5319e-05,0
1.9788,-4.2969e-05,0
1.9793,-2.7192e-05,0
1.9798,-1.0239e-05,0
1.9803,-6.0426e-06,0
1.9809,-8.896e-06,0
1.9814,-1.1749e-06,0
1.9819,1.5274e-05,0
1.9824,2.7695e-05,0
1.9829,3.1052e-05,0
1.9835,3.3402e-05,0
1.984,4.0452e-05,0
1.9845,5.304e-05,0
1.985,6.5965e-05,0
1.9855,7.4022e-05,0
1.9861,7.9561e-05,0
1.9866,8.1743e-05,0
1.9871,8.04e-05,0
1.9876,8.1071e-05,0
1.9881,8.6946e-05,0
1.9887,9.6849e-05,0
1.9892,0.00010188,0
1.9897,9.5003e-05,0
1.9902,7.805e-05,0
1.9907,6.0594e-05,0
1.9912,4.3809e-05,0
1.9918,2.9038e-05,0
1.9923,1.3931e-05,0
1.9928,-2.182e-06,0
1.9933,-1.6785e-05,0
1.9938,-2.031e-05,0
1.9944,-9.5674e-06,0
1.9949,5.2033e-06,0
1.9954,9.2317e-06,0
1.9959,-3.357e-07,0
1.9964,-2.1317e-05,0
1.997,-4.1123e-05,0
1.9975,-4.1123e-05,0
1.998,-2.3499e-05,0
1.9985,-6.5461e-06,0
1.999,1.1749e-06,0
1.9996,4.5319e-06,0
2.0001,6.5461e-06,0
2.0006,1.0239e-05,0
2.0011,1.561e-05,0
2.0016,2.2324e-05,0
2.0022,3.592e-05,0
2.0027,5.2873e-05,0
2.0032,5.3208e-05,0
2.0037,3.122e-05,0
2.0042,1.0071e-06,0
2.0048,-2.2156e-05,0
2.0053,-3.8102e-05,0
2.0058,-5.5894e-05,0
2.0063,-6.3615e-05,0
2.0068,-5.1865e-05,0
2.0073,-4.1291e-05,0
2.0079,-4.9348e-05,0
2.0084,-5.6397e-05,0
2.0089,-4.3137e-05,0
2.0094,-1.3596e-05,0
2.0099,1.4603e-05,0
2.0105,3.2059e-05,0
2.011,4.0116e-05,0
2.0115,4.3641e-05,0
2.012,4.3809e-05,0
2.0125,3.6927e-05,0
2.0131,3.0213e-05,0
2.0136,2.8367e-05,0
2.0141,3.1388e-05,0
2.0146,4.2298e-05,0
2.0151,5.8579e-05,0
2.0157,7.1672e-05,0
2.0162,7.0665e-05,0
2.0167,5.4383e-05,0
2.0172,4.448e-05,0
2.0177,5.304e-05,0
2.0183,7.4022e-05,0
2.0188,8.8121e-05,0
2.0193,7.5868e-05,0
2.0198,4.448e-05,0
2.0203,1.9638e-05,0
2.0208,1.1749e-05,0
2.0214,1.9135e-05,0
2.0219,4.3305e-05,0
2.0224,7.3014e-05,0
2.0229,8.5267e-05,0
2.0234,7.7211e-05,0
2.024,6.2272e-05,0
2.0245,4.9516e-05,0
2.025,3.8102e-05,0
2.0255,2.7863e-05,0
2.026,1.9471e-05,0
2.0266,1.3931e-05,0
2.0271,3.6927e-06,0
2.0276,-9.5674e-06,0
2.0281,-1.7288e-05,0
2.0286,-1.9471e-05,0
2.0292,-1.3931e-05,0
2.0297,1.6785e-07,0
2.0302,1.4435e-05,0
2.0307,2.1317e-05,0
2.0312,2.3667e-05,0
2.0318,1.5946e-05,0
2.0323,5.8747e-06,0
2.0328,3.1891e-06,0
2.0333,3.1891e-06,0
2.0338,7.2175e-06,0
2.0343,1.6617e-05,0
2.0349,2.4338e-05,0
2.0354,2.1317e-05,0
2.0359,1.1582e-05,0
2.0364,9.2317e-06,0
2.0369,1.6617e-05,0
2.0375,2.2492e-05,0
2.038,1.3596e-05,0
2.0385,2.182e-06,0
2.039,1.6449e-05,0
2.0395,5.6901e-05,0
2.0401,9.1814e-05,0
2.0406,9.836e-05,0
2.0411,8.3421e-05,0
2.0416,6.8315e-05,0
2.0421,6.0761e-05,0
2.0427,5.3376e-05,0
2.0432,3.6423e-05,0
2.0437,2.2828e-05,0
2.0442,1.7624e-05,0
2.0447,4.1962e-06,0
2.0452,-1.7288e-05,0
2.0458,-2.7024e-05,0
2.0463,-1.9135e-05,0
2.0468,-6.714e-06,0
2.0473,6.714e-07,0
2.0478,-6.2104e-06,0
2.0484,-2.4842e-05,0
2.0489,-3.9277e-05,0
2.0494,-3.1388e-05,0
2.0499,-1.2589e-05,0
2.0504,-6.5461e-06,0
2.051,-8.2246e-06,0
2.0515,-1.5106e-06,0
2.052,1.0071e-05,0
2.0525,1.5946e-05,0
2.053,1.6281e-05,0
2.0536,1.5442e-05,0
2.0541,1.6617e-05,0
2.0546,2.0645e-05,0
2.0551,2.4338e-05,0
2.0556,2.7359e-05,0
2.0562,3.2395e-05,0
2.0567,4.0116e-05,0
2.0572,4.6159e-05,0
2.0577,5.153e-05,0
2.0582,6.1936e-05,0
2.0587,7.5364e-05,0
2.0593,9.1142e-05,0
2.0598,0.00010658,0
2.0603,0.0001138,0
2.0608,0.00011263,0
2.0613,0.00011128,0
2.0619,0.00011431,0
2.0624,0.00011733,0
2.0629,0.00011431,0
2.0634,0.00010323,0
2.0639,8.3757e-05,0
2.0645,5.7404e-05,0
2.065,2.6352e-05,0
2.0655,-1.2253e-05,0
2.066,-5.1865e-05,0
2.0665,-8.51e-05,0
2.0671,-0.00011431,0
2.0676,-0.0001415,0
2.0681,-0.00015795,0
2.0686,-0.00016399,0
2.0691,-0.00016046,0
2.0697,-0.00013999,0
2.0702,-0.00010491,0
2.0707,-6.7979e-05,0
2.0712,-4.3137e-05,0
2.0717,-3.3906e-05,0
2.0722,-2.9374e-05,0
2.0728,-2.4842e-05,0
2.0733,-2.2324e-05,0
2.0738,-1.4099e-05,0
2.0743,-5.0355e-07,0
2.0748,9.2317e-06,0
2.0754,1.1414e-05,0
2.0759,1.4603e-05,0
2.0764,1.8631e-05,0
2.0769,2.0645e-05,0
2.0774,2.4002e-05,0
2.078,3.0549e-05,0
2.0785,4.4816e-05,0
2.079,6.6636e-05,0
2.0795,8.3085e-05,0
2.08,8.3421e-05,0
2.0806,7.805e-05,0
2.0811,7.9057e-05,0
2.0816,8.3757e-05,0
2.0821,8.9128e-05,0
2.0826,8.9799e-05,0
2.0832,7.805e-05,0
2.0837,5.2537e-05,0
2.0842,2.6184e-05,0
2.0847,2.182e-06,0
2.0852,-4.1962e-06,0
2.0857,2.5513e-05,0
2.0863,6.9657e-05,0
2.0868,8.191e-05,0
2.0873,5.4887e-05,0
2.0878,2.9374e-05,0
2.0883,3.1891e-05,0
2.0889,4.5823e-05,0
2.0894,5.4215e-05,0
2.0899,5.7237e-05,0
2.0904,5.9586e-05,0
2.0909,5.4887e-05,0
2.0915,3.7263e-05,0
2.092,2.0981e-05,0
2.0925,1.796e-05,0
2.093,1.4603e-05,0
2.0935,1.6785e-07,0
2.0941,-1.8296e-05,0
2.0946,-3.2898e-05,0
2.0951,-3.1556e-05,0
2.0956,-1.1749e-05,0
2.0961,9.9031e-06,0
2.0967,2.266e-05,0
2.0972,2.6352e-05,0
2.0977,2.6688e-05,0
2.0982,2.8031e-05,0
2.0987,3.4073e-05,0
2.0993,3.9109e-05,0
2.0998,4.2802e-05,0
2.1003,5.0355e-05,0
2.1008,5.8244e-05,0
2.1013,6.3783e-05,0
2.1018,6.6636e-05,0
2.1024,6.7475e-05,0
2.1029,7.3014e-05,0
2.1034,7.9393e-05,0
2.1039,7.8889e-05,0
2.1044,7.2679e-05,0
2.105,6.3951e-05,0
2.1055,4.6159e-05,0
2.106,5.7069e-06,0
2.1065,-3.6088e-05,0
2.107,-5.5558e-05,0
2.1076,-5.2873e-05,0
2.1081,-3.6759e-05,0
2.1086,-1.5442e-05,0
2.1091,0,0
2.1096,-1.5106e-06,0
2.1102,-1.0575e-05,0
2.1107,-1.3596e-05,0
2.1112,-1.3092e-05,0
2.1117,-1.7121e-05,0
2.1122,-2.3331e-05,0
2.1128,-2.4338e-05,0
2.1133,-2.0142e-05,0
2.1138,-1.4939e-05,0
2.1143,-1.0407e-05,0
2.1148,-7.5532e-06,0
2.1153,-5.0355e-06,0
2.1159,-2.0142e-06,0
2.1164,2.182e-06,0
2.1169,7.0497e-06,0
2.1174,1.2589e-05,0
2.1179,1.7288e-05,0
2.1185,2.2156e-05,0
2.119,2.6688e-05,0
2.1195,3.0381e-05,0
2.12,3.4409e-05,0
2.1205,3.8102e-05,0
2.1211,4.3305e-05,0
2.1216,4.7166e-05,0
2.1221,4.4984e-05,0
2.1226,4.3305e-05,0
2.1231,4.6494e-05,0
2.1237,5.0523e-05,0
2.1242,5.4887e-05,0
2.1247,5.2369e-05,0
2.1252,4.2634e-05,0
2.1257,3.6759e-05,0
2.1263,3.1388e-05,0
2.1268,2.0478e-05,0
2.1273,1.6953e-05,0
2.1278,3.1724e-05,0
2.1283,5.2873e-05,0
2.1288,6.4286e-05,0
2.1294,6.6972e-05,0
2.1299,6.7979e-05,0
2.1304,6.9993e-05,0
2.1309,6.8986e-05,0
2.1314,6.2943e-05,0
2.132,5.8915e-05,0
2.1325,5.4383e-05,0
2.133,4.8173e-05,0
2.1335,3.592e-05,0
2.134,3.5248e-06,0
2.1346,-4.213e-05,0
2.1351,-6.6972e-05,0
2.1356,-6.5126e-05,0
2.1361,-5.9251e-05,0
2.1366,-5.8579e-05,0
2.1372,-5.8747e-05,0
2.1377,-5.9586e-05,0
2.1382,-6.0761e-05,0
2.1387,-6.0426e-05,0
2.1392,-5.9586e-05,0
2.1397,-5.7069e-05,0
2.1403,-3.7263e-05,0
2.1408,-4.8676e-06,0
2.1413,1.8631e-05,0
2.1418,1.9974e-05,0
2.1423,1.2253e-05,0
2.1429,1.4603e-05,0
2.1434,2.9877e-05,0
2.1439,4.7333e-05,0
2.1444,5.3544e-05,0
2.1449,5.4215e-05,0
2.1455,6.1601e-05,0
2.146,7.8721e-05,0
2.1465,8.9799e-05,0
2.147,8.1575e-05,0
2.1475,6.0929e-05,0
2.1481,4.8005e-05,0
2.1486,3.978e-05,0
2.1491,2.6688e-05,0
2.1496,2.266e-05,0
2.1501,3.4745e-05,0
2.1507,6.0929e-05,0
2.1512,8.7114e-05,0
2.1517,9.2821e-05,0
2.1522,7.9225e-05,0
2.1527,5.7572e-05,0
2.1532,3.6759e-05,0
2.1538,3.4073e-05,0
2.1543,3.6255e-05,0
2.1548,9.7353e-06,0
2.1553,-4.1123e-05,0
2.1558,-8.4764e-05,0
2.1564,-8.1743e-05,0
2.1569,-3.8102e-05,0
2.1574,-2.1317e-05,0
2.1579,-5.0019e-05,0
2.1584,-6.3951e-05,0
2.159,-3.7095e-05,0
2.1595,1.5106e-06,0
2.16,2.9038e-05,0
2.1605,4.1794e-05,0
2.161,4.4816e-05,0
2.1616,4.448e-05,0
2.1621,4.0787e-05,0
2.1626,3.743e-05,0
2.1631,3.827e-05,0
2.1636,4.2802e-05,0
2.1642,4.7837e-05,0
2.1647,5.153e-05,0
2.1652,5.3544e-05,0
2.1657,5.4215e-05,0
2.1662,5.388e-05,0
2.1667,5.153e-05,0
2.1673,4.6159e-05,0
2.1678,4.0787e-05,0
2.1683,3.6591e-05,0
2.1688,3.4745e-05,0
2.1693,3.7766e-05,0
2.1699,3.8437e-05,0
2.1704,2.8702e-05,0
2.1709,2.1317e-05,0
2.1714,3.2059e-05,0
2.1719,4.448e-05,0
2.1725,4.1794e-05,0
2.173,3.6423e-05,0
2.1735,4.2634e-05,0
2.174,4.683e-05,0
2.1745,3.6088e-05,0
2.1751,1.7624e-05,0
2.1756,-3.1891e-06,0
2.1761,-1.2253e-05,0
2.1766,-7.7211e-06,0
2.1771,-4.5319e-06,0
2.1777,-5.2033e-06,0
2.1782,-3.6927e-06,0
2.1787,-5.7069e-06,0
2.1792,-1.1246e-05,0
2.1797,-1.6281e-05,0
2.1803,-2.4674e-05,0
2.1808,-3.5248e-05,0
2.1813,-4.1459e-05,0
2.1818,-3.8437e-05,0
2.1823,-2.7695e-05,0
2.1828,-1.4939e-05,0
2.1834,-6.2104e-06,0
2.1839,-6.714e-07,0
2.1844,4.3641e-06,0
2.1849,8.896e-06,0
2.1854,1.2757e-05,0
2.186,1.6617e-05,0
2.1865,1.9303e-05,0
2.187,2.1317e-05,0
2.1875,2.2995e-05,0
2.188,2.8031e-05,0
2.1886,3.2731e-05,0
2.1891,3.3906e-05,0
2.1896,3.6423e-05,0
2.1901,4.3809e-05,0
2.1906,4.5151e-05,0
2.1912,3.8437e-05,0
2.1917,3.3738e-05,0
2.1922,3.3066e-05,0
2.1927,3.3738e-05,0
2.1932,3.5416e-05,0
2.1938,3.2898e-05,0
2.1943,2.8031e-05,0
2.1948,2.652e-05,0
2.1953,3.0381e-05,0
2.1958,3.9277e-05,0
2.1963,4.2802e-05,0
2.1969,3.8437e-05,0
2.1974,3.3066e-05,0
2.1979,3.2059e-05,0
2.1984,3.0716e-05,0
2.1989,2.7192e-05,0
2.1995,1.5946e-05,0
2.2,1.8463e-06,0
2.2005,4.5319e-06,0
2.201,2.1317e-05,0
2.2015,2.9709e-05,0
2.2021,2.5513e-05,0
2.2026,1.8631e-05,0
2.2031,1.9806e-05,0
2.2036,2.5345e-05,0
2.2041,2.8702e-05,0
2.2047,2.9038e-05,0
2.2052,2.9709e-05,0
2.2057,2.7359e-05,0
2.2062,2.4842e-05,0
2.2067,2.2995e-05,0
2.2073,2.0142e-05,0
2.2078,2.0645e-05,0
2.2083,2.8702e-05,0
2.2088,4.7669e-05,0
2.2093,7.1839e-05,0
2.2098,7.8889e-05,0
2.2104,5.6733e-05,0
2.2109,1.7624e-05,0
2.2114,-1.2421e-05,0
2.2119,-9.0639e-06,0
2.2124,2.8031e-05,0
2.213,6.5293e-05,0
2.2135,6.8818e-05,0
2.214,5.069e-05,0
2.2145,4.0116e-05,0
2.215,4.2634e-05,0
2.2156,5.2705e-05,0
2.2161,6.5126e-05,0
2.2166,6.2943e-05,0
2.2171,2.8702e-05,0
2.2176,-2.7024e-05,0
2.2182,-5.9586e-05,0
2.2187,-5.7908e-05,0
2.2192,-6.0594e-05,0
2.2197,-6.7475e-05,0
2.2202,-5.623e-05,0
2.2207,-3.9612e-05,0
2.2213,-3.4241e-05,0
2.2218,-3.0045e-05,0
2.2223,-1.5778e-05,0
2.2228,3.1891e-06,0
2.2233,1.5778e-05,0
2.2239,1.561e-05,0
2.2244,1.1246e-05,0
2.2249,1.2253e-05,0
2.2254,1.3931e-05,0
2.2259,7.8889e-06,0
2.2265,7.2175e-06,0
2.227,2.1317e-05,0
2.2275,3.1388e-05,0
2.228,2.9374e-05,0
2.2285,3.743e-05,0
2.2291,6.6468e-05,0
2.2296,9.2149e-05,0
2.2301,9.3492e-05,0
2.2306,7.7714e-05,0
2.2311,7.8721e-05,0
2.2317,0.00010507,0
2.2322,0.00013008,0
2.2327,0.00013277,0
2.2332,0.00011179,0
2.2337,8.4428e-05,0
2.2342,5.8915e-05,0
2.2348,2.6688e-05,0
2.2353,-1.6617e-05,0
2.2358,-5.8915e-05,0
2.2363,-8.04e-05,0
2.2368,-8.5771e-05,0
2.2374,-9.4835e-05,0
2.2379,-0.00010071,0
2.2384,-8.8792e-05,0
2.2389,-6.6468e-05,0
2.2394,-4.8508e-05,0
2.24,-3.7934e-05,0
2.2405,-3.122e-05,0
2.241,-2.9374e-05,0
2.2415,-3.0716e-05,0
2.242,-2.9206e-05,0
2.2426,-2.2324e-05,0
2.2431,-1.4099e-05,0
2.2436,-6.2104e-06,0
2.2441,-3.357e-07,0
2.2446,6.8818e-06,0
2.2452,1.5274e-05,0
2.2457,2.2156e-05,0
2.2462,2.9709e-05,0
2.2467,3.5584e-05,0
2.2472,3.9948e-05,0
2.2477,4.6159e-05,0
2.2483,5.5894e-05,0
2.2488,6.5629e-05,0
2.2493,6.9657e-05,0
2.2498,6.7979e-05,0
2.2503,6.9154e-05,0
2.2509,7.7379e-05,0
2.2514,8.3757e-05,0
2.2519,7.7714e-05,0
2.2524,6.5629e-05,0
2.2529,5.8747e-05,0
2.2535,6.1265e-05,0
2.254,7.5029e-05,0
2.2545,8.9464e-05,0
2.255,9.1814e-05,0
2.2555,7.9393e-05,0
2.2561,6.1601e-05,0
2.2566,5.0019e-05,0
2.2571,3.5416e-05,0
2.2576,7.2175e-06,0
2.2581,-1.3931e-05,0
2.2587,-1.1246e-05,0
2.2592,5.539e-06,0
2.2597,8.5603e-06,0
2.2602,-3.357e-06,0
2.2607,-1.6281e-05,0
2.2612,-2.7024e-05,0
2.2618,-3.4241e-05,0
2.2623,-3.2395e-05,0
2.2628,-2.031e-05,0
2.2633,-5.8747e-06,0
2.2638,3.357e-07,0
2.2644,1.1749e-06,0
2.2649,5.539e-06,0
2.2654,1.2589e-05,0
2.2659,1.4939e-05,0
2.2664,1.4939e-05,0
2.267,1.7624e-05,0
2.2675,2.3331e-05,0
2.268,2.501e-05,0
2.2685,2.266e-05,0
2.269,2.4002e-05,0
2.2696,2.9374e-05,0
2.2701,2.8367e-05,0
2.2706,2.2828e-05,0
2.2711,2.8367e-05,0
2.2716,4.3809e-05,0
2.2722,6.0929e-05,0
2.2727,7.4022e-05,0
2.2732,8.191e-05,0
2.2737,8.5771e-05,0
2.2742,8.9296e-05,0
2.2748,8.9799e-05,0
2.2753,9.0471e-05,0
2.2758,8.8457e-05,0
2.2763,7.3686e-05,0
2.2768,3.9109e-05,0
2.2773,1.6785e-06,0
2.2779,-4.1962e-06,0
2.2784,6.5461e-06,0
2.2789,1.8463e-06,0
2.2794,-1.7288e-05,0
2.2799,-3.6423e-05,0
2.2805,-4.4144e-05,0
2.281,-4.4648e-05,0
2.2815,-4.7837e-05,0
2.282,-5.3376e-05,0
2.2825,-5.8915e-05,0
2.2831,-5.7404e-05,0
2.2836,-4.7333e-05,0
2.2841,-2.9877e-05,0
2.2846,-7.0497e-06,0
2.2851,1.2085e-05,0
2.2857,2.182e-05,0
2.2862,2.2324e-05,0
2.2867,8.5603e-06,0
2.2872,-1.3931e-05,0
2.2877,-1.5946e-05,0
2.2883,1.2589e-05,0
2.2888,4.4816e-05,0
2.2893,5.5558e-05,0
2.2898,5.8076e-05,0
2.2903,6.6133e-05,0
2.2908,7.2343e-05,0
2.2914,7.2343e-05,0
2.2919,7.4022e-05,0
2.2924,7.335e-05,0
2.2929,5.9586e-05,0
2.2934,4.3977e-05,0
2.294,3.9445e-05,0
2.2945,4.0955e-05,0
2.295,3.4745e-05,0
2.2955,1.0407e-05,0
2.296,-1.7288e-05,0
2.2966,-2.4338e-05,0
2.2971,-1.9303e-05,0
2.2976,-1.6281e-05,0
2.2981,-1.6953e-05,0
2.2986,-1.7792e-05,0
2.2992,-1.1246e-05,0
2.2997,6.2104e-06,0
2.3002,2.1988e-05,0
2.3007,2.4002e-05,0
2.3012,1.2085e-05,0
2.3018,-3.8605e-06,0
2.3023,-9.5674e-06,0
2.3028,-2.182e-06,0
2.3033,1.2253e-05,0
2.3038,2.266e-05,0
2.3043,2.5681e-05,0
2.3049,2.2995e-05,0
2.3054,1.9974e-05,0
2.3059,1.9638e-05,0
2.3064,1.8631e-05,0
2.3069,9.2317e-06,0
2.3075,-5.0355e-07,0
2.308,4.8676e-06,0
2.3085,1.9974e-05,0
2.309,2.8031e-05,0
2.3095,2.501e-05,0
2.3101,2.266e-05,0
2.3106,2.8367e-05,0
2.3111,3.4073e-05,0
2.3116,3.5584e-05,0
2.3121,3.4241e-05,0
2.3127,3.122e-05,0
2.3132,2.8031e-05,0
2.3137,2.4674e-05,0
2.3142,2.6688e-05,0
2.3147,3.3402e-05,0
2.3152,4.0116e-05,0
2.3158,4.2634e-05,0
2.3163,4.5319e-05,0
2.3168,5.0523e-05,0
2.3173,5.388e-05,0
2.3178,5.5894e-05,0
2.3184,6.4622e-05,0
2.3189,7.5029e-05,0
2.3194,8.3085e-05,0
2.3199,9.0303e-05,0
2.3204,9.3324e-05,0
2.321,9.1142e-05,0
2.3215,8.3757e-05,0
2.322,6.63e-05,0
2.3225,3.6759e-05,0
2.323,7.8889e-06,0
2.3236,-6.0426e-06,0
2.3241,-1.7624e-05,0
2.3246,-3.6591e-05,0
2.3251,-5.1194e-05,0
2.3256,-5.153e-05,0
2.3262,-3.6927e-05,0
2.3267,-1.561e-05,0
2.3272,-6.3783e-06,0
2.3277,-5.539e-06,0
2.3282,-2.3499e-06,0
2.3287,0,0
2.3293,-3.6927e-06,0
2.3298,-1.1749e-05,0
2.3303,-1.6281e-05,0
2.3308,-1.3596e-05,0
2.3313,-1.1917e-05,0
2.3319,-1.1582e-05,0
2.3324,-2.1653e-05,0
2.3329,-3.1052e-05,0
2.3334,-2.2995e-05,0
2.3339,-1.091e-05,0
2.3345,-1.4939e-05,0
2.335,-2.2324e-05,0
2.3355,-9.3996e-06,0
2.336,1.7288e-05,0
2.3365,4.2298e-05,0
2.3371,5.7572e-05,0
2.3376,5.1698e-05,0
2.3381,2.7695e-05,0
2.3386,1.3596e-05,0
2.3391,2.6352e-05,0
2.3397,5.0355e-05,0
2.3402,6.5629e-05,0
2.3407,6.9154e-05,0
2.3412,6.9993e-05,0
2.3417,7.2343e-05,0
2.3422,7.4357e-05,0
2.3428,7.9393e-05,0
2.3433,8.04e-05,0
2.3438,7.3014e-05,0
2.3443,5.8747e-05,0
2.3448,3.9948e-05,0
2.3454,2.1988e-05,0
2.3459,2.0645e-05,0
2.3464,4.5487e-05,0
2.3469,6.5965e-05,0
2.3474,5.9922e-05,0
2.348,4.7837e-05,0
2.3485,4.1123e-05,0
2.349,3.1052e-05,0
2.3495,1.2085e-05,0
2.35,-1.6281e-05,0
2.3506,-4.3809e-05,0
2.3511,-5.7572e-05,0
2.3516,-5.3544e-05,0
2.3521,-3.8773e-05,0
2.3526,-2.6017e-05,0
2.3532,-2.0645e-05,0
2.3537,-1.4939e-05,0
2.3542,-7.2175e-06,0
2.3547,1.6785e-06,0
2.3552,1.2757e-05,0
2.3558,2.1149e-05,0
2.3563,2.4338e-05,0
2.3568,1.8631e-05,0
2.3573,8.2246e-06,0
2.3578,-1.1749e-06,0
2.3583,-1.091e-05,0
2.3589,-1.8128e-05,0
2.3594,-2.5513e-05,0
2.3599,-2.5177e-05,0
2.3604,-5.0355e-07,0
2.3609,3.8773e-05,0
2.3615,7.4693e-05,0
2.362,9.4835e-05,0
2.3625,0.00010474,0
2.363,0.00011431,0
2.3635,0.00012035,0
2.3641,0.0001274,0
2.3646,0.0001237,0
2.3651,8.7114e-05,0
2.3656,4.7837e-05,0
2.3661,4.3809e-05,0
2.3667,5.2201e-05,0
2.3672,3.4745e-05,0
2.3677,-6.714e-07,0
2.3682,-2.9374e-05,0
2.3687,-4.6662e-05,0
2.3693,-5.9251e-05,0
2.3698,-7.4189e-05,0
2.3703,-9.1478e-05,0
2.3708,-9.8863e-05,0
2.3713,-9.3156e-05,0
2.3718,-8.4428e-05,0
2.3724,-7.4022e-05,0
2.3729,-5.4551e-05,0
2.3734,-2.9038e-05,0
2.3739,-7.5532e-06,0
2.3744,5.2033e-06,0
2.375,9.9031e-06,0
2.3755,9.7353e-06,0
2.376,3.8605e-06,0
2.3765,1.1749e-06,0
2.377,1.561e-05,0
2.3776,3.5416e-05,0
2.3781,3.9445e-05,0
2.3786,3.1052e-05,0
2.3791,3.3234e-05,0
2.3796,4.5151e-05,0
2.3802,5.1194e-05,0
2.3807,5.0019e-05,0
2.3812,4.5319e-05,0
2.3817,4.213e-05,0
2.3822,4.5487e-05,0
2.3828,5.0355e-05,0
2.3833,4.9851e-05,0
2.3838,4.6159e-05,0
2.3843,4.7333e-05,0
2.3848,5.2537e-05,0
2.3853,5.774e-05,0
2.3859,5.774e-05,0
2.3864,5.153e-05,0
2.3869,4.683e-05,0
2.3874,4.5151e-05,0
2.3879,4.2802e-05,0
2.3885,3.978e-05,0
2.389,3.7263e-05,0
2.3895,4.2634e-05,0
2.39,5.9419e-05,0
2.3905,7.5029e-05,0
2.3911,7.5029e-05,0
2.3916,5.4215e-05,0
2.3921,2.8199e-05,0
2.3926,1.4603e-05,0
2.3931,1.3092e-05,0
2.3937,1.5274e-05,0
2.3942,1.5442e-05,0
2.3947,1.1582e-05,0
2.3952,2.182e-06,0
2.3957,-1.1749e-06,0
2.3963,5.2033e-06,0
2.3968,1.3596e-05,0
2.3973,1.4267e-05,0
2.3978,1.5106e-06,0
2.3983,-7.5532e-06,0
2.3988,-3.357e-07,0
2.3994,1.6617e-05,0
2.3999,3.0381e-05,0
2.4004,3.827e-05,0
2.4009,4.0116e-05,0
2.4014,3.4073e-05,0
2.402,2.4338e-05,0
2.4025,2.0645e-05,0
2.403,3.1388e-05,0
2.4035,4.7333e-05,0
2.404,4.7501e-05,0
2.4046,2.4506e-05,0
2.4051,-7.5532e-06,0
2.4056,-1.7624e-05,0
2.4061,5.0355e-07,0
2.4066,1.3764e-05,0
2.4072,5.8747e-06,0
2.4077,-1.326e-05,0
2.4082,-2.3835e-05,0
2.4087,-1.3931e-05,0
2.4092,-3.8605e-06,0
2.4097,-7.5532e-06,0
2.4103,-1.0071e-06,0
2.4108,3.6591e-05,0
2.4113,8.4764e-05,0
2.4118,0.00011061,0
2.4123,0.00010961,0
2.4129,9.8192e-05,0
2.4134,9.4499e-05,0
2.4139,9.6849e-05,0
2.4144,8.2078e-05,0
2.4149,4.3473e-05,0
2.4155,5.8747e-06,0
2.416,-1.091e-05,0
2.4165,-1.0742e-05,0
2.417,-2.3331e-05,0
2.4175,-4.5319e-05,0
2.4181,-4.3137e-05,0
2.4186,-2.4506e-05,0
2.4191,-1.7624e-05,0
2.4196,-2.9374e-05,0
2.4201,-4.7501e-05,0
2.4207,-6.0929e-05,0
2.4212,-6.0594e-05,0
2.4217,-4.5151e-05,0
2.4222,-2.4506e-05,0
2.4227,-1.0575e-05,0
2.4232,-4.5319e-06,0
2.4238,1.3428e-06,0
2.4243,1.1246e-05,0
2.4248,3.0213e-05,0
2.4253,5.2537e-05,0
2.4258,6.2608e-05,0
2.4264,6.4958e-05,0
2.4269,7.2679e-05,0
2.4274,8.0064e-05,0
2.4279,7.1e-05,0
2.4284,5.2873e-05,0
2.429,4.0787e-05,0
2.4295,3.357e-05,0
2.43,2.5345e-05,0
2.4305,1.4603e-05,0
2.431,6.5461e-06,0
2.4316,1.091e-05,0
2.4321,1.9638e-05,0
2.4326,1.8631e-05,0
2.4331,1.326e-05,0
2.4336,9.5674e-06,0
2.4342,1.1582e-05,0
2.4347,1.8128e-05,0
2.4352,2.2324e-05,0
2.4357,1.5946e-05,0
2.4362,6.5461e-06,0
2.4367,4.0284e-06,0
2.4373,3.357e-06,0
2.4378,3.357e-07,0
2.4383,3.357e-06,0
2.4388,1.1917e-05,0
2.4393,1.796e-05,0
2.4399,1.7456e-05,0
2.4404,1.6953e-05,0
2.4409,2.1317e-05,0
2.4414,3.3066e-05,0
2.4419,5.0858e-05,0
2.4425,6.63e-05,0
2.443,7.2007e-05,0
2.4435,7.1672e-05,0
2.444,6.3111e-05,0
2.4445,4.8844e-05,0
2.4451,4.1794e-05,0
2.4456,3.2563e-05,0
2.4461,9.9031e-06,0
2.4466,-2.182e-05,0
2.4471,-4.8005e-05,0
2.4477,-4.8844e-05,0
2.4482,-3.4577e-05,0
2.4487,-2.7024e-05,0
2.4492,-2.8031e-05,0
2.4497,-2.4674e-05,0
2.4503,-1.091e-05,0
2.4508,6.5461e-06,0
2.4513,1.9638e-05,0
2.4518,3.0045e-05,0
2.4523,2.9374e-05,0
2.4528,2.0981e-05,0
2.4534,1.5946e-05,0
2.4539,1.6449e-05,0
2.4544,2.031e-05,0
2.4549,1.5946e-05,0
2.4554,-2.8534e-06,0
2.456,-2.2324e-05,0
2.4565,-2.2492e-05,0
2.457,-2.0142e-06,0
2.4575,2.8367e-05,0
2.458,4.8173e-05,0
2.4586,5.0858e-05,0
2.4591,4.8676e-05,0
2.4596,5.0858e-05,0
2.4601,5.2201e-05,0
2.4606,4.0116e-05,0
2.4612,1.9303e-05,0
2.4617,1.0575e-05,0
2.4622,2.2995e-05,0
2.4627,3.4913e-05,0
2.4632,2.6352e-05,0
2.4638,1.9974e-05,0
2.4643,3.357e-05,0
2.4648,4.5151e-05,0
2.4653,3.4745e-05,0
2.4658,1.9303e-05,0
2.4663,1.3596e-05,0
2.4669,8.5603e-06,0
2.4674,-6.2104e-06,0
2.4679,-2.1653e-05,0
2.4684,-2.501e-05,0
2.4689,-2.1149e-05,0
2.4695,-2.887e-05,0
2.47,-4.7669e-05,0
2.4705,-5.0523e-05,0
2.471,-2.9374e-05,0
2.4715,3.1891e-06,0
2.4721,3.1724e-05,0
2.4726,4.448e-05,0
2.4731,5.0187e-05,0
2.4736,6.1265e-05,0
2.4741,7.6204e-05,0
2.4747,8.7282e-05,0
2.4752,8.7114e-05,0
2.4757,6.6468e-05,0
2.4762,2.9374e-05,0
2.4767,2.0142e-06,0
2.4773,6.0426e-06,0
2.4778,2.8031e-05,0
2.4783,2.8702e-05,0
2.4788,1.1246e-05,0
2.4793,8.5603e-06,0
2.4798,2.4506e-05,0
2.4804,3.743e-05,0
2.4809,3.7263e-05,0
2.4814,2.9206e-05,0
2.4819,2.4002e-05,0
2.4824,1.8631e-05,0
2.483,1.4939e-05,0
2.4835,2.8702e-05,0
2.484,5.0523e-05,0
2.4845,5.4047e-05,0
2.485,4.1123e-05,0
2.4856,3.5416e-05,0
2.4861,4.3473e-05,0
2.4866,5.5894e-05,0
2.4871,6.1601e-05,0
2.4876,6.2272e-05,0
2.4882,6.1265e-05,0
2.4887,5.7572e-05,0
2.4892,5.0858e-05,0
2.4897,4.2634e-05,0
2.4902,3.743e-05,0
2.4907,3.4241e-05,0
2.4913,1.9638e-05,0
2.4918,-7.5532e-06,0
2.4923,-2.1988e-05,0
2.4928,-9.7353e-06,0
2.4933,1.0071e-05,0
2.4939,1.6281e-05,0
2.4944,1.0071e-05,0
2.4949,1.8463e-06,0
2.4954,5.0355e-07,0
2.4959,5.8747e-06,0
2.4965,9.2317e-06,0
2.497,1.2253e-05,0
2.4975,2.2995e-05,0
2.498,3.3234e-05,0
2.4985,3.5248e-05,0
2.4991,3.5248e-05,0
2.4996,3.1388e-05,0
2.5001,2.4002e-05,0
2.5006,1.9303e-05,0
2.5011,1.6617e-05,0
2.5017,5.2033e-06,0
2.5022,-3.5248e-06,0
2.5027,4.3641e-06,0
2.5032,1.8296e-05,0
2.5037,2.4674e-05,0
2.5042,2.4338e-05,0
2.5048,2.3331e-05,0
2.5053,2.266e-05,0
2.5058,2.031e-05,0
2.5063,2.2156e-05,0
2.5068,2.9374e-05,0
2.5074,3.4073e-05,0
2.5079,3.4745e-05,0
2.5084,3.6088e-05,0
2.5089,3.7095e-05,0
2.5094,3.8605e-05,0
2.51,4.448e-05,0
2.5105,5.4551e-05,0
2.511,5.7908e-05,0
2.5115,5.0858e-05,0
2.512,4.2634e-05,0
2.5126,3.1556e-05,0
2.5131,1.796e-05,0
2.5136,7.5532e-06,0
2.5141,5.2033e-06,0
2.5146,5.539e-06,0
2.5152,5.0355e-07,0
2.5157,-1.091e-05,0
2.5162,-2.501e-05,0
2.5167,-3.7095e-05,0
2.5172,-3.9445e-05,0
2.5177,-4.0452e-05,0
2.5183,-4.5151e-05,0
2.5188,-4.3473e-05,0
2.5193,-3.4577e-05,0
2.5198,-2.3331e-05,0
2.5203,-7.5532e-06,0
2.5209,9.0639e-06,0
2.5214,1.9806e-05,0
2.5219,2.2156e-05,0
2.5224,2.266e-05,0
2.5229,2.3331e-05,0
2.5235,2.3331e-05,0
2.524,1.7792e-05,0
2.5245,1.8463e-06,0
2.525,-1.091e-05,0
2.5255,-3.1891e-06,0
2.5261,1.7288e-05,0
2.5266,2.9206e-05,0
2.5271,3.0716e-05,0
2.5276,3.0716e-05,0
2.5281,3.0381e-05,0
2.5287,2.8702e-05,0
2.5292,2.9374e-05,0
2.5297,3.743e-05,0
2.5302,5.2537e-05,0
2.5307,6.4958e-05,0
2.5312,6.6468e-05,0
2.5318,6.3951e-05,0
2.5323,6.6133e-05,0
2.5328,7.4357e-05,0
2.5333,9.0974e-05,0
2.5338,9.9702e-05,0
2.5344,7.3686e-05,0
2.5349,2.6184e-05,0
2.5354,-9.5674e-06,0
2.5359,-2.1485e-05,0
2.5364,-1.4939e-05,0
2.537,-4.3641e-06,0
2.5375,-3.5248e-06,0
2.538,-1.6617e-05,0
2.5385,-2.8367e-05,0
2.539,-2.266e-05,0
2.5396,-1.0239e-05,0
2.5401,-7.0497e-06,0
2.5406,-7.5532e-06,0
2.5411,0,0
2.5416,1.3931e-05,0
2.5422,2.5345e-05,0
2.5427,3.2059e-05,0
2.5432,3.6255e-05,0
2.5437,4.0116e-05,0
2.5442,4.1459e-05,0
2.5448,3.8773e-05,0
2.5453,3.8773e-05,0
2.5458,4.3473e-05,0
2.5463,4.4312e-05,0
2.5468,3.743e-05,0
2.5473,2.8367e-05,0
2.5479,1.8967e-05,0
2.5484,9.3996e-06,0
2.5489,9.0639e-06,0
2.5494,1.7288e-05,0
2.5499,2.4338e-05,0
2.5505,2.9877e-05,0
2.551,2.9877e-05,0
2.5515,2.8702e-05,0
2.552,3.8437e-05,0
2.5525,5.4215e-05,0
2.5531,6.4958e-05,0
2.5536,6.8315e-05,0
2.5541,6.5965e-05,0
2.5546,5.7404e-05,0
2.5551,3.1052e-05,0
2.5557,-3.8605e-06,0
2.5562,-2.3667e-05,0
2.5567,-2.887e-05,0
2.5572,-3.6423e-05,0
2.5577,-4.7669e-05,0
2.5583,-4.3137e-05,0
2.5588,-1.6281e-05,0
2.5593,8.896e-06,0
2.5598,1.7792e-05,0
2.5603,8.896e-06,0
2.5608,-1.4267e-05,0
2.5614,-2.4002e-05,0
2.5619,-6.3783e-06,0
2.5624,1.8296e-05,0
2.5629,3.592e-05,0
2.5634,4.4144e-05,0
2.564,3.743e-05,0
2.5645,1.796e-05,0
2.565,5.8747e-06,0
2.5655,1.4435e-05,0
2.566,2.3331e-05,0
2.5666,1.0575e-05,0
2.5671,-4.1962e-06,0
2.5676,2.5177e-06,0
2.5681,1.1414e-05,0
2.5686,2.5177e-06,0
2.5692,-1.1749e-06,0
2.5697,1.9303e-05,0
2.5702,4.6662e-05,0
2.5707,6.6133e-05,0
2.5712,7.0665e-05,0
2.5718,6.3615e-05,0
2.5723,5.7404e-05,0
2.5728,5.6733e-05,0
2.5733,6.0594e-05,0
2.5738,6.1601e-05,0
2.5743,5.7237e-05,0
2.5749,6.0594e-05,0
2.5754,6.865e-05,0
2.5759,6.2104e-05,0
2.5764,4.3473e-05,0
2.5769,2.7527e-05,0
2.5775,1.5946e-05,0
2.578,1.1749e-06,0
2.5785,-2.7695e-05,0
2.579,-4.8005e-05,0
2.5795,-4.1794e-05,0
2.5801,-3.2059e-05,0
2.5806,-3.6423e-05,0
2.5811,-4.3809e-05,0
2.5816,-4.6494e-05,0
2.5821,-5.388e-05,0
2.5827,-6.2776e-05,0
2.5832,-4.9851e-05,0
2.5837,-1.9638e-05,0
2.5842,5.2033e-06,0
2.5847,1.8967e-05,0
2.5852,2.4002e-05,0
2.5858,2.6184e-05,0
2.5863,2.9709e-05,0
2.5868,3.508e-05,0
2.5873,3.8773e-05,0
2.5878,3.8437e-05,0
2.5884,3.6088e-05,0
2.5889,3.1052e-05,0
2.5894,2.5345e-05,0
2.5899,2.501e-05,0
2.5904,3.3402e-05,0
2.591,3.4409e-05,0
2.5915,1.8631e-05,0
2.592,1.0071e-06,0
2.5925,1.6785e-06,0
2.593,1.4939e-05,0
2.5936,2.9038e-05,0
2.5941,4.448e-05,0
2.5946,5.5894e-05,0
2.5951,5.6901e-05,0
2.5956,5.0523e-05,0
2.5962,3.7095e-05,0
2.5967,2.1653e-05,0
2.5972,2.3331e-05,0
2.5977,3.9109e-05,0
2.5982,4.7837e-05,0
2.5987,3.6088e-05,0
2.5993,1.0575e-05,0
2.5998,-1.2589e-05,0
2.6003,-2.2324e-05,0
2.6008,-1.9638e-05,0
2.6013,-8.5603e-06,0
2.6019,1.1246e-05,0
2.6024,3.0213e-05,0
2.6029,3.9612e-05,0
2.6034,3.9277e-05,0
2.6039,3.4409e-05,0
2.6045,3.5248e-05,0
2.605,3.743e-05,0
2.6055,3.6759e-05,0
2.606,3.6759e-05,0
2.6065,4.0116e-05,0
2.6071,4.3473e-05,0
2.6076,4.3473e-05,0
2.6081,4.7166e-05,0
2.6086,5.7237e-05,0
2.6091,6.0594e-05,0
2.6097,4.1794e-05,0
2.6102,4.8676e-06,0
2.6107,-2.1317e-05,0
2.6112,-1.3931e-05,0
2.6117,1.4267e-05,0
2.6122,3.8102e-05,0
2.6128,4.8844e-05,0
2.6133,4.918e-05,0
2.6138,5.7237e-05,0
2.6143,6.6804e-05,0
2.6148,6.1097e-05,0
2.6154,6.1936e-05,0
2.6159,7.7043e-05,0
2.6164,8.1743e-05,0
2.6169,6.5293e-05,0
2.6174,2.9374e-05,0
2.618,-1.1078e-05,0
2.6185,-2.5849e-05,0
2.619,-5.539e-06,0
2.6195,1.9974e-05,0
2.62,2.7024e-05,0
2.6206,1.8296e-05,0
2.6211,-3.0213e-06,0
2.6216,-2.031e-05,0
2.6221,-1.561e-05,0
2.6226,-8.2246e-06,0
2.6232,-1.0742e-05,0
2.6237,-1.091e-05,0
2.6242,-7.7211e-06,0
2.6247,-7.8889e-06,0
2.6252,-9.2317e-06,0
2.6258,-4.5319e-06,0
2.6263,3.0213e-06,0
2.6268,7.8889e-06,0
2.6273,1.1582e-05,0
2.6278,1.5274e-05,0
2.6283,1.8631e-05,0
2.6289,2.031e-05,0
2.6294,1.9974e-05,0
2.6299,2.1988e-05,0
2.6304,2.6688e-05,0
2.6309,3.3066e-05,0
2.6315,3.9109e-05,0
2.632,4.2802e-05,0
2.6325,4.9348e-05,0
2.633,5.4719e-05,0
2.6335,5.0355e-05,0
2.6341,3.8773e-05,0
2.6346,3.0381e-05,0
2.6351,2.9709e-05,0
2.6356,3.5752e-05,0
2.6361,4.1459e-05,0
2.6367,4.0116e-05,0
2.6372,3.5584e-05,0
2.6377,2.8199e-05,0
2.6382,1.5946e-05,0
2.6387,9.7353e-06,0
2.6393,7.7211e-06,0
2.6398,6.5461e-06,0
2.6403,8.7282e-06,0
2.6408,9.9031e-06,0
2.6413,1.3092e-05,0
2.6418,2.7024e-05,0
2.6424,4.6662e-05,0
2.6429,6.1601e-05,0
2.6434,6.1601e-05,0
2.6439,3.978e-05,0
2.6444,-2.8534e-06,0
2.645,-3.9612e-05,0
2.6455,-4.6159e-05,0
2.646,-3.508e-05,0
2.6465,-3.7095e-05,0
2.647,-5.6565e-05,0
2.6476,-7.6875e-05,0
2.6481,-8.3085e-05,0
2.6486,-6.63e-05,0
2.6491,-3.5248e-05,0
2.6496,-1.2924e-05,0
2.6502,-2.8534e-06,0
2.6507,5.2033e-06,0
2.6512,1.0407e-05,0
2.6517,4.1962e-06,0
2.6522,-1.5274e-05,0
2.6528,-2.6856e-05,0
2.6533,-1.0239e-05,0
2.6538,1.7792e-05,0
2.6543,3.3906e-05,0
2.6548,3.6759e-05,0
2.6553,3.3402e-05,0
2.6559,2.5681e-05,0
2.6564,1.9303e-05,0
2.6569,2.3499e-05,0
2.6574,3.743e-05,0
2.6579,5.388e-05,0
2.6585,6.7643e-05,0
2.659,8.4092e-05,0
2.6595,0.00010356,0
2.66,0.00011531,0
2.6605,0.00012068,0
2.6611,0.00013277,0
2.6616,0.00014469,0
2.6621,0.0001368,0
2.6626,0.00011481,0
2.6631,8.6275e-05,0
2.6637,5.1698e-05,0
2.6642,1.6281e-05,0
2.6647,-2.182e-06,0
2.6652,-8.2246e-06,0
2.6657,-1.8967e-05,0
2.6662,-2.9038e-05,0
2.6668,-1.4603e-05,0
2.6673,6.3783e-06,0
2.6678,4.0284e-06,0
2.6683,-1.6281e-05,0
2.6688,-3.3066e-05,0
2.6694,-3.9445e-05,0
2.6699,-4.3137e-05,0
2.6704,-5.0019e-05,0
2.6709,-5.4887e-05,0
2.6714,-4.4984e-05,0
2.672,-2.6688e-05,0
2.6725,-1.8799e-05,0
2.673,-2.3163e-05,0
2.6735,-1.9974e-05,0
2.674,-7.0497e-06,0
2.6746,7.8889e-06,0
2.6751,2.5345e-05,0
2.6756,4.0452e-05,0
2.6761,4.7166e-05,0
2.6766,4.1962e-05,0
2.6772,2.7192e-05,0
2.6777,9.9031e-06,0
2.6782,-3.1891e-06,0
2.6787,2.3499e-06,0
2.6792,3.0213e-05,0
2.6797,6.2943e-05,0
2.6803,8.0064e-05,0
2.6808,7.7043e-05,0
2.6813,6.7811e-05,0
2.6818,6.3111e-05,0
2.6823,5.4047e-05,0
2.6829,3.2731e-05,0
2.6834,1.6449e-05,0
2.6839,2.6017e-05,0
2.6844,4.5487e-05,0
2.6849,5.0019e-05,0
2.6855,3.6423e-05,0
2.686,2.1317e-05,0
2.6865,1.5946e-05,0
2.687,2.1988e-05,0
2.6875,3.6759e-05,0
2.6881,4.918e-05,0
2.6886,4.6494e-05,0
2.6891,3.2731e-05,0
2.6896,1.8463e-05,0
2.6901,2.0142e-06,0
2.6907,-1.2924e-05,0
2.6912,-1.5106e-05,0
2.6917,-6.8818e-06,0
2.6922,5.0355e-07,0
2.6927,3.1891e-06,0
2.6932,1.8463e-06,0
2.6938,-3.357e-07,0
2.6943,-6.714e-07,0
2.6948,2.5177e-06,0
2.6953,6.5461e-06,0
2.6958,9.2317e-06,0
2.6964,1.796e-05,0
2.6969,3.3066e-05,0
2.6974,4.1794e-05,0
2.6979,4.4648e-05,0
2.6984,4.6159e-05,0
2.699,4.6494e-05,0
2.6995,4.1123e-05,0
2.7,2.5177e-05,0
2.7005,6.0426e-06,0
2.701,3.1891e-06,0
2.7016,1.6449e-05,0
2.7021,1.8967e-05,0
2.7026,1.1414e-05,0
2.7031,1.3931e-05,0
2.7036,2.3331e-05,0
2.7042,2.7359e-05,0
2.7047,2.652e-05,0
2.7052,2.8031e-05,0
2.7057,3.2059e-05,0
2.7062,3.2563e-05,0
2.7067,3.0716e-05,0
2.7073,3.1388e-05,0
2.7078,3.3402e-05,0
2.7083,3.6088e-05,0
2.7088,4.0116e-05,0
2.7093,4.5487e-05,0
2.7099,4.3977e-05,0
2.7104,3.7934e-05,0
2.7109,4.3305e-05,0
2.7114,5.3544e-05,0
2.7119,5.3376e-05,0
2.7125,4.5319e-05,0
2.713,3.978e-05,0
2.7135,3.8102e-05,0
2.714,3.4745e-05,0
2.7145,2.9038e-05,0
2.7151,2.182e-05,0
2.7156,7.8889e-06,0
2.7161,-4.0284e-06,0
2.7166,-5.2033e-06,0
2.7171,4.8676e-06,0
2.7177,1.9471e-05,0
2.7182,2.4002e-05,0
2.7187,1.0407e-05,0
2.7192,-1.326e-05,0
2.7197,-3.8941e-05,0
2.7203,-5.623e-05,0
2.7208,-5.623e-05,0
2.7213,-4.8508e-05,0
2.7218,-4.1794e-05,0
2.7223,-3.0045e-05,0
2.7228,-9.3996e-06,0
2.7234,1.1414e-05,0
2.7239,2.3331e-05,0
2.7244,3.0213e-05,0
2.7249,3.6591e-05,0
2.7254,4.1459e-05,0
2.726,4.1627e-05,0
2.7265,4.0452e-05,0
2.727,3.8941e-05,0
2.7275,3.6759e-05,0
2.728,3.2395e-05,0
2.7286,3.3906e-05,0
2.7291,4.1794e-05,0
2.7296,4.9516e-05,0
2.7301,5.4887e-05,0
2.7306,5.5558e-05,0
2.7312,5.1194e-05,0
2.7317,4.9683e-05,0
2.7322,4.6998e-05,0
2.7327,4.3473e-05,0
2.7332,4.3305e-05,0
2.7338,4.4816e-05,0
2.7343,4.7501e-05,0
2.7348,4.9851e-05,0
2.7353,4.8005e-05,0
2.7358,4.4144e-05,0
2.7363,3.9445e-05,0
2.7369,3.3402e-05,0
2.7374,2.1149e-05,0
2.7379,-9.5674e-06,0
2.7384,-4.5319e-05,0
2.7389,-5.7404e-05,0
2.7395,-6.2776e-05,0
2.74,-7.6036e-05,0
2.7405,-7.7379e-05,0
2.741,-6.6133e-05,0
2.7415,-5.8244e-05,0
2.7421,-5.6062e-05,0
2.7426,-4.7501e-05,0
2.7431,-2.7359e-05,0
2.7436,-6.5461e-06,0
2.7441,5.539e-06,0
2.7447,6.714e-06,0
2.7452,4.5319e-06,0
2.7457,3.8605e-06,0
2.7462,9.7353e-06,0
2.7467,1.2924e-05,0
2.7473,2.8534e-06,0
2.7478,2.5177e-06,0
2.7483,3.0716e-05,0
2.7488,6.0258e-05,0
2.7493,6.7979e-05,0
2.7498,6.3615e-05,0
2.7504,6.7979e-05,0
2.7509,8.3925e-05,0
2.7514,0.00010037,0
2.7519,9.987e-05,0
2.7524,8.8121e-05,0
2.753,8.7785e-05,0
2.7535,0.00010155,0
2.754,0.00011397,0
2.7545,0.00011632,0
2.755,9.9199e-05,0
2.7556,5.9586e-05,0
2.7561,1.5946e-05,0
2.7566,-9.0639e-06,0
2.7571,-2.9877e-05,0
2.7576,-5.4047e-05,0
2.7582,-5.8076e-05,0
2.7587,-3.6759e-05,0
2.7592,-6.5461e-06,0
2.7597,7.5532e-06,0
2.7602,-3.6927e-06,0
2.7607,-2.5345e-05,0
2.7613,-3.508e-05,0
2.7618,-3.743e-05,0
2.7623,-4.2466e-05,0
2.7628,-3.4409e-05,0
2.7633,-1.4603e-05,0
2.7639,-4.8676e-06,0
2.7644,8.3925e-07,0
2.7649,1.6281e-05,0
2.7654,3.2563e-05,0
2.7659,3.0716e-05,0
2.7665,1.5946e-05,0
2.767,1.091e-05,0
2.7675,1.7624e-05,0
2.768,2.7024e-05,0
2.7685,3.6088e-05,0
2.7691,4.1962e-05,0
2.7696,4.1794e-05,0
2.7701,3.6759e-05,0
2.7706,3.6088e-05,0
2.7711,4.1459e-05,0
2.7717,3.978e-05,0
2.7722,3.0716e-05,0
2.7727,2.8534e-05,0
2.7732,2.5849e-05,0
2.7737,1.7624e-05,0
2.7742,1.5946e-05,0
2.7748,2.3667e-05,0
2.7753,3.1052e-05,0
2.7758,2.8367e-05,0
2.7763,2.266e-05,0
2.7768,2.6017e-05,0
2.7774,3.0884e-05,0
2.7779,3.357e-05,0
2.7784,3.6423e-05,0
2.7789,3.8437e-05,0
2.7794,3.7766e-05,0
2.78,4.4816e-05,0
2.7805,5.4719e-05,0
2.781,5.623e-05,0
2.7815,5.0355e-05,0
2.782,4.1459e-05,0
2.7826,3.2731e-05,0
2.7831,2.7695e-05,0
2.7836,3.2563e-05,0
2.7841,4.2802e-05,0
2.7846,4.2802e-05,0
2.7852,3.0213e-05,0
2.7857,1.5946e-05,0
2.7862,8.3925e-06,0
2.7867,7.2175e-06,0
2.7872,6.0426e-06,0
2.7877,3.1891e-06,0
2.7883,-4.5319e-06,0
2.7888,-1.2253e-05,0
2.7893,-3.8605e-06,0
2.7898,1.4267e-05,0
2.7903,2.5681e-05,0
2.7909,2.7192e-05,0
2.7914,2.7359e-05,0
2.7919,3.1891e-05,0
2.7924,3.8102e-05,0
2.7929,3.8773e-05,0
2.7935,3.8773e-05,0
2.794,4.1794e-05,0
2.7945,4.5151e-05,0
2.795,4.4816e-05,0
2.7955,3.8773e-05,0
2.7961,3.2563e-05,0
2.7966,3.0045e-05,0
2.7971,3.0716e-05,0
2.7976,3.2059e-05,0
2.7981,2.9374e-05,0
2.7987,2.7527e-05,0
2.7992,3.5248e-05,0
2.7997,4.8173e-05,0
2.8002,5.6901e-05,0
2.8007,5.7237e-05,0
2.8013,5.153e-05,0
2.8018,4.4144e-05,0
2.8023,3.743e-05,0
2.8028,2.7359e-05,0
2.8033,1.1246e-05,0
2.8038,-1.326e-05,0
2.8044,-4.2802e-05,0
2.8049,-6.6468e-05,0
2.8054,-8.3085e-05,0
2.8059,-9.3828e-05,0
2.8064,-0.00010541,0
2.807,-0.00010155,0
2.8075,-6.7979e-05,0
2.808,-2.9709e-05,0
2.8085,-1.4267e-05,0
2.809,-1.8296e-05,0
2.8096,-1.6785e-05,0
2.8101,-2.0142e-06,0
2.8106,1.4099e-05,0
2.8111,2.5849e-05,0
2.8116,3.4073e-05,0
2.8122,3.6423e-05,0
2.8127,3.6759e-05,0
2.8132,3.5416e-05,0
2.8137,3.4241e-05,0
2.8142,3.8102e-05,0
2.8148,4.213e-05,0
2.8153,4.1794e-05,0
2.8158,3.9445e-05,0
2.8163,3.5248e-05,0
2.8168,2.8031e-05,0
2.8173,2.0645e-05,0
2.8179,1.9974e-05,0
2.8184,2.0645e-05,0
2.8189,2.031e-05,0
2.8194,2.1653e-05,0
2.8199,2.3667e-05,0
2.8205,2.7359e-05,0
2.821,3.3066e-05,0
2.8215,3.7766e-05,0
2.822,3.8773e-05,0
2.8225,3.9109e-05,0
2.8231,4.1794e-05,0
2.8236,5.2705e-05,0
2.8241,6.5293e-05,0
2.8246,6.6972e-05,0
2.8251,5.9251e-05,0
2.8257,5.2201e-05,0
2.8262,5.0187e-05,0
2.8267,5.1194e-05,0
2.8272,5.9754e-05,0
2.8277,6.8818e-05,0
2.8283,7.3014e-05,0
2.8288,7.2007e-05,0
2.8293,7.6371e-05,0
2.8298,8.0735e-05,0
2.8303,6.7475e-05,0
2.8308,3.8773e-05,0
2.8314,1.4603e-05,0
2.8319,5.0355e-07,0
2.8324,-1.9471e-05,0
2.8329,-5.9922e-05,0
2.8334,-0.00010491,0
2.834,-0.00012169,0
2.8345,-8.7785e-05,0
2.835,-2.8367e-05,0
2.8355,2.5681e-05,0
2.836,5.623e-05,0
2.8366,5.7572e-05,0
2.8371,4.4144e-05,0
2.8376,3.4577e-05,0
2.8381,3.7263e-05,0
2.8386,4.5319e-05,0
2.8392,4.9851e-05,0
2.8397,4.683e-05,0
2.8402,2.9374e-05,0
2.8407,1.2253e-05,0
2.8412,1.7288e-05,0
2.8418,3.8102e-05,0
2.8423,4.8508e-05,0
2.8428,3.9445e-05,0
2.8433,2.1149e-05,0
2.8438,5.539e-06,0
2.8443,-7.8889e-06,0
2.8449,-1.7121e-05,0
2.8454,-2.2492e-05,0
2.8459,-2.3163e-05,0
2.8464,-1.9638e-05,0
2.8469,-1.8967e-05,0
2.8475,-1.6953e-05,0
2.848,-8.2246e-06,0
2.8485,3.5248e-06,0
2.849,1.1246e-05,0
2.8495,8.5603e-06,0
2.8501,5.2033e-06,0
2.8506,8.3925e-06,0
2.8511,1.1582e-05,0
2.8516,9.9031e-06,0
2.8521,8.896e-06,0
2.8527,1.4603e-05,0
2.8532,2.9038e-05,0
2.8537,4.1459e-05,0
2.8542,4.9851e-05,0
2.8547,5.6733e-05,0
2.8552,6.2608e-05,0
2.8558,6.0594e-05,0
2.8563,4.918e-05,0
2.8568,4.0116e-05,0
2.8573,4.213e-05,0
2.8578,4.1123e-05,0
2.8584,3.122e-05,0
2.8589,2.5849e-05,0
2.8594,2.6184e-05,0
2.8599,1.9303e-05,0
2.8604,5.2033e-06,0
2.861,-8.2246e-06,0
2.8615,-1.8967e-05,0
2.862,-2.4338e-05,0
2.8625,-2.0645e-05,0
2.863,-1.1078e-05,0
2.8636,-1.3428e-06,0
2.8641,1.5106e-06,0
2.8646,7.3854e-06,0
2.8651,2.0645e-05,0
2.8656,2.9206e-05,0
2.8662,2.652e-05,0
2.8667,2.3835e-05,0
2.8672,3.2059e-05,0
2.8677,5.0355e-05,0
2.8682,7.3686e-05,0
2.8687,9.0135e-05,0
2.8693,9.8527e-05,0
2.8698,9.7856e-05,0
2.8703,7.8721e-05,0
2.8708,4.8844e-05,0
2.8713,2.7359e-05,0
2.8719,1.7121e-05,0
2.8724,7.3854e-06,0
2.8729,-7.8889e-06,0
2.8734,-8.5603e-06,0
2.8739,1.1246e-05,0
2.8745,1.8128e-05,0
2.875,1.0071e-06,0
2.8755,-1.4267e-05,0
2.876,-1.5946e-05,0
2.8765,-1.3596e-05,0
2.8771,-2.8031e-05,0
2.8776,-5.8747e-05,0
2.8781,-6.8147e-05,0
2.8786,-4.2802e-05,0
2.8791,-1.4603e-05,0
2.8797,-6.5461e-06,0
2.8802,-8.896e-06,0
2.8807,-1.3764e-05,0
2.8812,-1.7624e-05,0
2.8817,-1.8296e-05,0
2.8822,-1.7624e-05,0
2.8828,-1.6953e-05,0
2.8833,-1.7121e-05,0
2.8838,-1.2253e-05,0
2.8843,8.3925e-06,0
2.8848,3.3234e-05,0
2.8854,4.683e-05,0
2.8859,4.8173e-05,0
2.8864,4.3473e-05,0
2.8869,4.5151e-05,0
2.8874,5.4551e-05,0
2.888,5.7908e-05,0
2.8885,4.2802e-05,0
2.889,2.8534e-05,0
2.8895,3.3906e-05,0
2.89,3.978e-05,0
2.8906,2.4506e-05,0
2.8911,1.0575e-05,0
2.8916,2.9374e-05,0
2.8921,6.3951e-05,0
2.8926,7.9057e-05,0
2.8932,7.2679e-05,0
2.8937,7.1336e-05,0
2.8942,7.1672e-05,0
2.8947,6.3279e-05,0
2.8952,5.9251e-05,0
2.8958,5.7404e-05,0
2.8963,4.6159e-05,0
2.8968,3.2395e-05,0
2.8973,2.266e-05,0
2.8978,1.9135e-05,0
2.8983,2.2324e-05,0
2.8989,2.4338e-05,0
2.8994,2.4002e-05,0
2.8999,2.1653e-05,0
2.9004,1.561e-05,0
2.9009,7.5532e-06,0
2.9015,3.1891e-06,0
2.902,9.0639e-06,0
2.9025,1.5274e-05,0
2.903,1.0239e-05,0
2.9035,5.2033e-06,0
2.9041,9.0639e-06,0
2.9046,1.326e-05,0
2.9051,1.3092e-05,0
2.9056,1.4939e-05,0
2.9061,1.6617e-05,0
2.9067,1.5946e-05,0
2.9072,1.9303e-05,0
2.9077,2.8031e-05,0
2.9082,3.4073e-05,0
2.9087,3.4241e-05,0
2.9093,3.3402e-05,0
2.9098,3.5752e-05,0
2.9103,3.4745e-05,0
2.9108,2.4338e-05,0
2.9113,1.5106e-05,0
2.9118,1.9638e-05,0
2.9124,2.8702e-05,0
2.9129,3.3066e-05,0
2.9134,3.0884e-05,0
2.9139,2.5681e-05,0
2.9144,1.9974e-05,0
2.915,1.7624e-05,0
2.9155,1.796e-05,0
2.916,1.5274e-05,0
2.9165,1.3092e-05,0
2.917,9.5674e-06,0
2.9176,4.5319e-06,0
2.9181,-2.0142e-06,0
2.9186,-8.5603e-06,0
2.9191,-8.2246e-06,0
2.9196,-3.1891e-06,0
2.9202,-5.0355e-07,0
2.9207,3.8605e-06,0
2.9212,1.4939e-05,0
2.9217,2.8702e-05,0
2.9222,3.6591e-05,0
2.9228,3.9109e-05,0
2.9233,4.3473e-05,0
2.9238,4.683e-05,0
2.9243,4.448e-05,0
2.9248,4.1291e-05,0
2.9253,4.0452e-05,0
2.9259,3.8437e-05,0
2.9264,3.0213e-05,0
2.9269,2.266e-05,0
2.9274,2.2324e-05,0
2.9279,1.7121e-05,0
2.9285,4.5319e-06,0
2.929,-4.5319e-06,0
2.9295,-5.0355e-06,0
2.93,-5.0355e-06,0
2.9305,-8.3925e-06,0
2.9311,-1.091e-05,0
2.9316,-8.2246e-06,0
2.9321,-4.3641e-06,0
2.9326,-3.357e-06,0
2.9331,-3.8605e-06,0
2.9337,1.8463e-06,0
2.9342,1.5106e-05,0
2.9347,2.4002e-05,0
2.9352,2.3331e-05,0
2.9357,2.0813e-05,0
2.9362,2.1653e-05,0
2.9368,2.6688e-05,0
2.9373,3.0549e-05,0
2.9378,3.1724e-05,0
2.9383,3.6759e-05,0
2.9388,4.5151e-05,0
2.9394,5.0858e-05,0
2.9399,4.4816e-05,0
2.9404,3.0045e-05,0
2.9409,2.0645e-05,0
2.9414,2.1317e-05,0
2.942,2.4674e-05,0
2.9425,2.182e-05,0
2.943,1.1917e-05,0
2.9435,2.3499e-06,0
2.944,-4.1962e-06,0
2.9446,-4.5319e-06,0
2.9451,-8.3925e-07,0
2.9456,4.3641e-06,0
2.9461,7.0497e-06,0
2.9466,-8.3925e-07,0
2.9472,-5.2033e-06,0
2.9477,1.5106e-06,0
2.9482,6.5461e-06,0
2.9487,1.5106e-06,0
2.9492,2.3499e-06,0
2.9497,2.0645e-05,0
2.9503,3.8605e-05,0
2.9508,4.3809e-05,0
2.9513,4.448e-05,0
2.9518,4.5823e-05,0
2.9523,4.5319e-05,0
2.9529,4.2802e-05,0
2.9534,4.448e-05,0
2.9539,5.0187e-05,0
2.9544,4.6662e-05,0
2.9549,3.1388e-05,0
2.9555,7.8889e-06,0
2.956,-1.6785e-06,0
2.9565,1.4603e-05,0
2.957,3.6759e-05,0
2.9575,4.213e-05,0
2.9581,3.6255e-05,0
2.9586,3.2059e-05,0
2.9591,3.3402e-05,0
2.9596,3.3402e-05,0
2.9601,3.1052e-05,0
2.9607,3.3066e-05,0
2.9612,3.7263e-05,0
2.9617,3.508e-05,0
2.9622,2.3667e-05,0
2.9627,5.539e-06,0
2.9632,-6.8818e-06,0
2.9638,2.3499e-06,0
2.9643,2.8031e-05,0
2.9648,5.7572e-05,0
2.9653,7.3014e-05,0
2.9658,6.0594e-05,0
2.9664,3.8941e-05,0
2.9669,3.2059e-05,0
2.9674,3.8102e-05,0
2.9679,3.0045e-05,0
2.9684,1.8463e-06,0
2.969,-2.1653e-05,0
2.9695,-3.0716e-05,0
2.97,-3.4241e-05,0
2.9705,-2.4506e-05,0
2.971,1.6785e-07,0
2.9716,2.3163e-05,0
2.9721,2.7527e-05,0
2.9726,1.796e-05,0
2.9731,8.5603e-06,0
2.9736,1.2085e-05,0
2.9742,2.2995e-05,0
2.9747,2.031e-05,0
2.9752,-6.714e-07,0
2.9757,-1.6785e-05,0
2.9762,-1.1246e-05,0
2.9768,-3.1891e-06,0
2.9773,-6.8818e-06,0
2.9778,-5.7069e-06,0
2.9783,6.8818e-06,0
2.9788,1.7624e-05,0
2.9793,2.2156e-05,0
2.9799,2.4338e-05,0
2.9804,2.7863e-05,0
2.9809,3.2563e-05,0
2.9814,3.2563e-05,0
2.9819,4.1123e-05,0
2.9825,5.7404e-05,0
2.983,5.8579e-05,0
2.9835,4.1794e-05,0
2.984,2.1149e-05,0
2.9845,1.0239e-05,0
2.9851,8.2246e-06,0
2.9856,2.8534e-06,0
2.9861,-1.091e-05,0
2.9866,-2.266e-05,0
2.9871,-2.7359e-05,0
2.9877,-2.5345e-05,0
2.9882,-1.6953e-05,0
2.9887,-6.3783e-06,0
2.9892,5.8747e-06,0
2.9897,1.3931e-05,0
2.9903,1.3092e-05,0
2.9908,9.0639e-06,0
2.9913,9.3996e-06,0
2.9918,1.6785e-05,0
2.9923,2.7863e-05,0
2.9928,3.4409e-05,0
2.9934,3.0716e-05,0
2.9939,2.2492e-05,0
2.9944,1.6953e-05,0
2.9949,1.6449e-05,0
2.9954,1.3596e-05,0
2.996,1.0071e-05,0
2.9965,1.2924e-05,0
2.997,2.5345e-05,0
2.9975,4.3137e-05,0
2.998,5.4887e-05,0
2.9986,5.5222e-05,0
2.9991,5.1865e-05,0
2.9996,5.388e-05,0
3.0001,6.0929e-05,0
3.0006,6.1936e-05,0
3.0012,5.539e-05,0
3.0017,5.1362e-05,0
3.0022,4.9348e-05,0
3.0027,4.7166e-05,0
3.0032,4.7501e-05,0
3.0038,4.5319e-05,0
3.0043,3.5752e-05,0
3.0048,1.9303e-05,0
3.0053,-2.5177e-06,0
3.0058,-2.1485e-05,0
3.0063,-2.9374e-05,0
3.0069,-2.2492e-05,0
3.0074,-8.2246e-06,0
3.0079,2.182e-06,0
3.0084,7.7211e-06,0
3.0089,1.2421e-05,0
3.0095,1.9471e-05,0
3.01,2.3667e-05,0
3.0105,2.3163e-05,0
3.011,1.9974e-05,0
3.0115,1.3092e-05,0
3.0121,5.8747e-06,0
3.0126,1.2589e-05,0
3.0131,2.3331e-05,0
3.0136,1.9806e-05,0
3.0141,4.1962e-06,0
3.0147,5.0355e-07,0
3.0152,1.5442e-05,0
3.0157,3.0045e-05,0
3.0162,3.122e-05,0
3.0167,2.7192e-05,0
3.0173,2.501e-05,0
3.0178,2.9374e-05,0
3.0183,3.6591e-05,0
3.0188,4.1123e-05,0
3.0193,4.4648e-05,0
3.0198,4.4144e-05,0
3.0204,3.1891e-05,0
3.0209,1.7288e-05,0
3.0214,1.2589e-05,0
3.0219,1.8296e-05,0
3.0224,2.266e-05,0
3.023,1.7288e-05,0
3.0235,3.8605e-06,0
3.024,-5.8747e-06,0
3.0245,0,0
3.025,1.1917e-05,0
3.0256,1.6953e-05,0
3.0261,1.5106e-05,0
3.0266,1.8631e-05,0
3.0271,2.2492e-05,0
3.0276,1.9974e-05,0
3.0282,2.0813e-05,0
3.0287,3.1724e-05,0
3.0292,4.6159e-05,0
3.0297,5.3208e-05,0
3.0302,5.4215e-05,0
3.0307,5.4887e-05,0
3.0313,6.3111e-05,0
3.0318,7.2847e-05,0
3.0323,6.5629e-05,0
3.0328,5.2873e-05,0
3.0333,5.8076e-05,0
3.0339,5.9586e-05,0
3.0344,2.9877e-05,0
3.0349,-1.796e-05,0
3.0354,-4.6494e-05,0
3.0359,-3.3906e-05,0
3.0365,1.6785e-07,0
3.037,1.8463e-05,0
3.0375,1.5778e-05,0
3.038,1.6449e-05,0
3.0385,2.7695e-05,0
3.0391,3.1891e-05,0
3.0396,2.5345e-05,0
3.0401,1.8799e-05,0
3.0406,1.6449e-05,0
3.0411,6.3783e-06,0
3.0417,-1.3764e-05,0
3.0422,-1.5442e-05,0
3.0427,1.6785e-07,0
3.0432,2.0142e-06,0
3.0437,-4.8676e-06,0
3.0442,1.2757e-05,0
3.0448,4.1123e-05,0
3.0453,6.0426e-05,0
3.0458,7.7379e-05,0
3.0463,8.7114e-05,0
3.0468,7.6371e-05,0
3.0474,4.4816e-05,0
3.0479,1.1582e-05,0
3.0484,-3.357e-06,0
3.0489,3.6927e-06,0
3.0494,1.8296e-05,0
3.05,2.5681e-05,0
3.0505,2.8702e-05,0
3.051,2.652e-05,0
3.0515,1.1078e-05,0
3.052,-1.091e-05,0
3.0526,-2.3331e-05,0
3.0531,-2.4506e-05,0
3.0536,-2.2156e-05,0
3.0541,-1.8967e-05,0
3.0546,-1.2589e-05,0
3.0552,-4.1962e-06,0
3.0557,-8.3925e-07,0
3.0562,-1.0575e-05,0
3.0567,-2.6352e-05,0
3.0572,-3.2395e-05,0
3.0577,-2.6688e-05,0
3.0583,-1.2421e-05,0
3.0588,6.5461e-06,0
3.0593,2.1317e-05,0
3.0598,3.5752e-05,0
3.0603,4.7837e-05,0
3.0609,5.774e-05,0
3.0614,6.2943e-05,0
3.0619,5.2873e-05,0
3.0624,3.0716e-05,0
3.0629,1.6449e-05,0
3.0635,1.4435e-05,0
3.064,1.9974e-05,0
3.0645,2.6017e-05,0
3.065,2.4002e-05,0
3.0655,1.0239e-05,0
3.0661,-2.5177e-06,0
3.0666,-9.2317e-06,0
3.0671,-2.6017e-05,0
3.0676,-5.069e-05,0
3.0681,-6.949e-05,0
3.0687,-7.6371e-05,0
3.0692,-7.1672e-05,0
3.0697,-5.6397e-05,0
3.0702,-2.9038e-05,0
3.0707,2.5177e-06,0
3.0713,2.4506e-05,0
3.0718,4.0116e-05,0
3.0723,5.2537e-05,0
3.0728,5.9586e-05,0
3.0733,5.1362e-05,0
3.0738,2.6688e-05,0
3.0744,1.4939e-05,0
3.0749,3.508e-05,0
3.0754,7.2847e-05,0
3.0759,0.00011263,0
3.0764,0.00014183,0
3.077,0.00014217,0
3.0775,0.00012253,0
3.078,0.00010994,0
3.0785,9.4163e-05,0
3.079,7.0497e-05,0
3.0796,5.3544e-05,0
3.0801,3.6423e-05,0
3.0806,1.2253e-05,0
3.0811,-9.7353e-06,0
3.0816,-2.7024e-05,0
3.0822,-3.1724e-05,0
3.0827,-1.7288e-05,0
3.0832,-5.7069e-06,0
3.0837,-9.7353e-06,0
3.0842,-1.796e-05,0
3.0848,-2.887e-05,0
3.0853,-2.9709e-05,0
3.0858,8.3925e-07,0
3.0863,5.3544e-05,0
3.0868,9.0135e-05,0
3.0873,9.1814e-05,0
3.0879,7.5029e-05,0
3.0884,5.6565e-05,0
3.0889,4.6159e-05,0
3.0894,4.5823e-05,0
3.0899,4.1794e-05,0
3.0905,2.9374e-05,0
3.091,2.501e-05,0
3.0915,2.1317e-05,0
3.092,6.5461e-06,0
3.0925,-4.1962e-06,0
3.0931,-5.0355e-07,0
3.0936,1.326e-05,0
3.0941,3.2059e-05,0
3.0946,2.5513e-05,0
3.0951,-4.8676e-06,0
3.0957,7.2175e-06,0
3.0962,6.1936e-05,0
3.0967,7.9728e-05,0
3.0972,4.2298e-05,0
3.0977,1.5106e-06,0
3.0983,-1.2589e-05,0
3.0988,-1.1414e-05,0
3.0993,-2.5177e-06,0
3.0998,2.6688e-05,0
3.1003,6.865e-05,0
3.1008,8.5771e-05,0
3.1014,7.0832e-05,0
3.1019,5.0019e-05,0
3.1024,3.8773e-05,0
3.1029,2.6352e-05,0
3.1034,-8.3925e-06,0
3.104,-6.949e-05,0
3.1045,-9.9535e-05,0
3.105,-6.0258e-05,0
3.1055,-3.357e-07,0
3.106,1.6953e-05,0
3.1066,-4.1962e-06,0
3.1071,-3.1388e-05,0
3.1076,-4.6159e-05,0
3.1081,-4.5823e-05,0
3.1086,-3.7263e-05,0
3.1092,-3.0716e-05,0
3.1097,-3.3402e-05,0
3.1102,-4.4144e-05,0
3.1107,-4.4144e-05,0
3.1112,-2.2492e-05,0
3.1117,6.3783e-06,0
3.1123,2.7192e-05,0
3.1128,3.1388e-05,0
3.1133,2.0981e-05,0
3.1138,1.796e-05,0
3.1143,2.501e-05,0
3.1149,4.0452e-05,0
3.1154,7.4357e-05,0
3.1159,0.00010289,0
3.1164,0.00010457,0
3.1169,0.00010289,0
3.1175,0.00010457,0
3.118,9.0639e-05,0
3.1185,6.3951e-05,0
3.119,4.4816e-05,0
3.1195,4.2802e-05,0
3.1201,4.2802e-05,0
3.1206,3.357e-05,0
3.1211,3.1388e-05,0
3.1216,4.2634e-05,0
3.1221,5.2033e-05,0
3.1227,5.3544e-05,0
3.1232,5.0187e-05,0
3.1237,4.918e-05,0
3.1242,4.5319e-05,0
3.1247,2.652e-05,0
3.1252,-7.3854e-06,0
3.1258,-4.0787e-05,0
3.1263,-5.9251e-05,0
3.1268,-5.8579e-05,0
3.1273,-4.1123e-05,0
3.1278,-2.1149e-05,0
3.1284,-1.0071e-05,0
3.1289,-7.7211e-06,0
3.1294,-4.1962e-06,0
3.1299,5.2033e-06,0
3.1304,1.6617e-05,0
3.131,2.266e-05,0
3.1315,2.501e-05,0
3.132,2.9374e-05,0
3.1325,3.592e-05,0
3.133,4.4144e-05,0
3.1336,5.1194e-05,0
3.1341,4.3473e-05,0
3.1346,3.1388e-05,0
3.1351,3.6591e-05,0
3.1356,5.388e-05,0
3.1362,6.1601e-05,0
3.1367,5.7237e-05,0
3.1372,5.0019e-05,0
3.1377,4.4816e-05,0
3.1382,4.2466e-05,0
3.1387,3.3402e-05,0
3.1393,1.6449e-05,0
3.1398,1.1078e-05,0
3.1403,1.5946e-05,0
3.1408,1.3764e-05,0
3.1413,6.714e-07,0
3.1419,-1.2253e-05,0
3.1424,-1.5946e-05,0
3.1429,-2.6352e-05,0
3.1434,-5.3208e-05,0
3.1439,-6.8315e-05,0
3.1445,-6.2104e-05,0
3.145,-4.2969e-05,0
3.1455,-1.091e-05,0
3.146,2.1317e-05,0
3.1465,3.3906e-05,0
3.1471,3.2395e-05,0
3.1476,3.2059e-05,0
3.1481,3.7934e-05,0
3.1486,5.153e-05,0
3.1491,6.8315e-05,0
3.1497,8.5771e-05,0
3.1502,9.6849e-05,0
3.1507,9.2317e-05,0
3.1512,7.9728e-05,0
3.1517,6.6972e-05,0
3.1522,5.4887e-05,0
3.1528,4.5487e-05,0
3.1533,4.918e-05,0
3.1538,7.1672e-05,0
3.1543,8.9296e-05,0
3.1548,7.805e-05,0
3.1554,5.2537e-05,0
3.1559,2.9709e-05,0
3.1564,4.3641e-06,0
3.1569,-2.031e-05,0
3.1574,-4.6662e-05,0
3.158,-8.0064e-05,0
3.1585,-8.7114e-05,0
3.159,-5.8412e-05,0
3.1595,-3.0381e-05,0
3.16,-2.1653e-05,0
3.1606,-1.8967e-05,0
3.1611,-1.4267e-05,0
3.1616,-1.0575e-05,0
3.1621,-1.326e-05,0
3.1626,-2.4674e-05,0
3.1632,-3.4073e-05,0
3.1637,-3.3066e-05,0
3.1642,-2.6688e-05,0
3.1647,-8.2246e-06,0
3.1652,2.1653e-05,0
3.1658,3.978e-05,0
3.1663,4.2802e-05,0
3.1668,4.9516e-05,0
3.1673,5.5558e-05,0
3.1678,5.153e-05,0
3.1683,3.7766e-05,0
3.1689,2.0645e-05,0
3.1694,5.2033e-06,0
3.1699,-5.8747e-06,0
3.1704,-1.1582e-05,0
3.1709,-6.8818e-06,0
3.1715,2.5177e-06,0
3.172,1.3596e-05,0
3.1725,2.501e-05,0
3.173,3.6088e-05,0
3.1735,4.5151e-05,0
3.1741,4.8844e-05,0
3.1746,4.3809e-05,0
3.1751,3.2898e-05,0
3.1756,1.9638e-05,0
3.1761,8.7282e-06,0
3.1767,1.091e-05,0
3.1772,2.9374e-05,0
3.1777,5.0355e-05,0
3.1782,5.9586e-05,0
3.1787,5.7908e-05,0
3.1793,5.2201e-05,0
3.1798,4.6494e-05,0
3.1803,4.3809e-05,0
3.1808,4.0116e-05,0
3.1813,3.0549e-05,0
3.1818,2.1317e-05,0
3.1824,2.6184e-05,0
3.1829,4.1291e-05,0
3.1834,4.2802e-05,0
3.1839,3.0549e-05,0
3.1844,2.1317e-05,0
3.185,2.6352e-05,0
3.1855,3.7934e-05,0
3.186,4.213e-05,0
3.1865,3.3402e-05,0
3.187,2.1317e-05,0
3.1876,1.7288e-05,0
3.1881,2.1149e-05,0
3.1886,2.652e-05,0
3.1891,3.4073e-05,0
3.1896,4.1123e-05,0
3.1902,4.213e-05,0
3.1907,3.6088e-05,0
3.1912,3.3066e-05,0
3.1917,4.0787e-05,0
3.1922,5.3544e-05,0
3.1928,6.479e-05,0
3.1933,7.0161e-05,0
3.1938,6.8315e-05,0
3.1943,5.7908e-05,0
3.1948,4.1291e-05,0
3.1953,2.3331e-05,0
3.1959,2.8534e-06,0
3.1964,-1.8967e-05,0
3.1969,-3.827e-05,0
3.1974,-4.683e-05,0
3.1979,-3.5248e-05,0
3.1985,-1.0239e-05,0
3.199,6.8818e-06,0
3.1995,8.2246e-06,0
3.2,1.5106e-06,0
3.2005,-7.7211e-06,0
3.2011,-3.5248e-06,0
3.2016,1.5274e-05,0
3.2021,1.9303e-05,0
3.2026,1.4099e-05,0
3.2031,2.0981e-05,0
3.2037,3.4073e-05,0
3.2042,4.1459e-05,0
3.2047,3.8437e-05,0
3.2052,2.6352e-05,0
3.2057,7.5532e-06,0
3.2062,-1.3092e-05,0
3.2068,-2.4506e-05,0
3.2073,-1.2421e-05,0
3.2078,1.4603e-05,0
3.2083,2.3331e-05,0
3.2088,1.0575e-05,0
3.2094,5.2033e-06,0
3.2099,1.2253e-05,0
3.2104,1.9974e-05,0
3.2109,2.6017e-05,0
3.2114,3.3402e-05,0
3.212,3.6591e-05,0
3.2125,3.2898e-05,0
3.213,2.9206e-05,0
3.2135,2.5345e-05,0
3.214,1.6785e-05,0
3.2146,9.5674e-06,0
3.2151,5.7069e-06,0
3.2156,-1.0071e-06,0
3.2161,2.3499e-06,0
3.2166,1.9303e-05,0
3.2172,3.5416e-05,0
3.2177,4.1794e-05,0
3.2182,3.9445e-05,0
3.2187,4.2802e-05,0
3.2192,5.2537e-05,0
3.2197,5.9251e-05,0
3.2203,5.0355e-05,0
3.2208,3.8102e-05,0
3.2213,4.5991e-05,0
3.2218,6.479e-05,0
3.2223,6.2272e-05,0
3.2229,4.1459e-05,0
3.2234,3.0716e-05,0
3.2239,3.9445e-05,0
3.2244,5.7908e-05,0
3.2249,6.3951e-05,0
3.2255,3.1388e-05,0
3.226,-2.1317e-05,0
3.2265,-5.8076e-05,0
3.227,-7.7043e-05,0
3.2275,-7.2343e-05,0
3.2281,-4.7669e-05,0
3.2286,-3.1556e-05,0
3.2291,-3.2731e-05,0
3.2296,-4.213e-05,0
3.2301,-4.9012e-05,0
3.2307,-4.0452e-05,0
3.2312,-1.9806e-05,0
3.2317,-8.3925e-07,0
3.2322,1.0407e-05,0
3.2327,1.2589e-05,0
3.2332,7.8889e-06,0
3.2338,7.7211e-06,0
3.2343,1.1917e-05,0
3.2348,9.0639e-06,0
3.2353,3.357e-06,0
3.2358,6.8818e-06,0
3.2364,1.6281e-05,0
3.2369,1.6617e-05,0
3.2374,1.2421e-05,0
3.2379,2.3835e-05,0
3.2384,3.8941e-05,0
3.239,4.6159e-05,0
3.2395,4.918e-05,0
3.24,4.3809e-05,0
3.2405,3.5416e-05,0
3.241,4.0116e-05,0
3.2416,5.2705e-05,0
3.2421,5.9419e-05,0
3.2426,6.1265e-05,0
3.2431,6.949e-05,0
3.2436,8.7785e-05,0
3.2442,9.9702e-05,0
3.2447,9.2317e-05,0
3.2452,7.7714e-05,0
3.2457,8.04e-05,0
3.2462,9.5842e-05,0
3.2468,8.8792e-05,0
3.2473,5.8076e-05,0
3.2478,3.2731e-05,0
3.2483,2.9709e-05,0
3.2488,3.8102e-05,0
3.2493,3.2563e-05,0
3.2499,1.2924e-05,0
3.2504,-8.896e-06,0
3.2509,-2.9038e-05,0
3.2514,-4.6326e-05,0
3.2519,-5.9586e-05,0
3.2525,-6.1601e-05,0
3.253,-5.5222e-05,0
3.2535,-5.388e-05,0
3.254,-5.2201e-05,0
3.2545,-2.8702e-05,0
3.2551,8.7282e-06,0
3.2556,3.3906e-05,0
3.2561,3.3402e-05,0
3.2566,1.8463e-05,0
3.2571,-3.357e-07,0
3.2577,-1.3931e-05,0
3.2582,-1.6281e-05,0
3.2587,-2.6017e-05,0
3.2592,-5.3208e-05,0
3.2597,-6.9322e-05,0
3.2603,-5.2369e-05,0
3.2608,-1.7121e-05,0
3.2613,8.3925e-06,0
3.2618,1.0239e-05,0
3.2623,2.182e-06,0
3.2628,3.6927e-06,0
3.2634,1.3931e-05,0
3.2639,2.182e-05,0
3.2644,2.4002e-05,0
3.2649,2.8031e-05,0
3.2654,4.1962e-05,0
3.266,5.4719e-05,0
3.2665,5.5894e-05,0
3.267,6.2776e-05,0
3.2675,7.9393e-05,0
3.268,8.896e-05,0
3.2686,9.0471e-05,0
3.2691,8.8289e-05,0
3.2696,8.4764e-05,0
3.2701,8.2246e-05,0
3.2706,8.1239e-05,0
3.2712,7.9057e-05,0
3.2717,7.0161e-05,0
3.2722,4.6998e-05,0
3.2727,1.6449e-05,0
3.2732,-3.5248e-06,0
3.2738,-1.2924e-05,0
3.2743,-2.3667e-05,0
3.2748,-3.0045e-05,0
3.2753,-2.1988e-05,0
3.2758,-6.2104e-06,0
3.2763,9.5674e-06,0
3.2769,1.5778e-05,0
3.2774,1.091e-05,0
3.2779,8.3925e-06,0
3.2784,1.4435e-05,0
3.2789,2.2492e-05,0
3.2795,2.7359e-05,0
3.28,2.501e-05,0
3.2805,1.6785e-05,0
3.281,1.2757e-05,0
3.2815,2.0478e-05,0
3.2821,3.3402e-05,0
3.2826,3.3402e-05,0
3.2831,1.796e-05,0
3.2836,7.7211e-06,0
3.2841,1.1749e-05,0
3.2847,2.501e-05,0
3.2852,3.3738e-05,0
3.2857,2.8367e-05,0
3.2862,1.7624e-05,0
3.2867,1.1582e-05,0
3.2872,1.1246e-05,0
3.2878,1.5946e-05,0
3.2883,1.8967e-05,0
3.2888,5.2033e-06,0
3.2893,-9.2317e-06,0
3.2898,3.8605e-06,0
3.2904,3.3738e-05,0
3.2909,5.623e-05,0
3.2914,6.4622e-05,0
3.2919,5.8579e-05,0
3.2924,4.2298e-05,0
3.293,1.9806e-05,0
3.2935,1.4603e-05,0
3.294,4.0955e-05,0
3.2945,6.2272e-05,0
3.295,5.0355e-05,0
3.2956,2.9374e-05,0
3.2961,1.6281e-05,0
3.2966,6.5461e-06,0
3.2971,-1.5106e-06,0
3.2976,-7.0497e-06,0
3.2982,-1.1414e-05,0
3.2987,-2.1653e-05,0
3.2992,-3.122e-05,0
3.2997,-1.8967e-05,0
3.3002,1.5946e-05,0
3.3007,4.3809e-05,0
3.3013,4.683e-05,0
3.3018,3.5416e-05,0
3.3023,2.501e-05,0
3.3028,2.182e-05,0
3.3033,2.5177e-05,0
3.3039,3.1891e-05,0
3.3044,4.0787e-05,0
3.3049,5.1865e-05,0
3.3054,6.4286e-05,0
3.3059,7.0665e-05,0
3.3065,6.1601e-05,0
3.307,4.918e-05,0
3.3075,6.1601e-05,0
3.308,9.0974e-05,0
3.3085,0.00010054,0
3.3091,7.4525e-05,0
3.3096,2.7024e-05,0
3.3101,-4.8676e-06,0
3.3106,-2.3499e-06,0
3.3111,1.2924e-05,0
3.3117,1.6281e-05,0
3.3122,1.2253e-05,0
3.3127,1.3596e-05,0
3.3132,1.9974e-05,0
3.3137,1.9135e-05,0
3.3142,-1.8463e-06,0
3.3148,-3.0549e-05,0
3.3153,-3.6927e-05,0
3.3158,-2.031e-05,0
3.3163,-4.1962e-06,0
3.3168,2.8534e-06,0
3.3174,3.1891e-06,0
3.3179,-2.5177e-06,0
3.3184,-1.1078e-05,0
3.3189,-1.6449e-05,0
3.3194,-2.1317e-05,0
3.32,-2.6856e-05,0
3.3205,-2.652e-05,0
3.321,-1.7624e-05,0
3.3215,-5.539e-06,0
3.322,6.8818e-06,0
3.3226,1.7288e-05,0
3.3231,1.8967e-05,0
3.3236,7.8889e-06,0
3.3241,1.6785e-06,0
3.3246,9.9031e-06,0
3.3252,2.5177e-05,0
3.3257,3.5752e-05,0
3.3262,2.7359e-05,0
3.3267,1.2924e-05,0
3.3272,1.1078e-05,0
3.3277,1.5946e-05,0
3.3283,1.5106e-05,0
3.3288,7.2175e-06,0
3.3293,-3.5248e-06,0
3.3298,-1.4603e-05,0
3.3303,-1.5946e-05,0
3.3309,-2.5177e-06,0
3.3314,2.3163e-05,0
3.3319,5.0019e-05,0
3.3324,6.9657e-05,0
3.3329,8.1071e-05,0
3.3335,8.2582e-05,0
3.334,7.3014e-05,0
3.3345,6.3951e-05,0
3.335,6.1601e-05,0
3.3355,5.3208e-05,0
3.3361,3.5752e-05,0
3.3366,1.5274e-05,0
3.3371,5.2033e-06,0
3.3376,8.896e-06,0
3.3381,1.3092e-05,0
3.3387,1.1582e-05,0
3.3392,3.357e-07,0
3.3397,-1.1917e-05,0
3.3402,-2.0813e-05,0
3.3407,-3.1052e-05,0
3.3413,-3.1891e-05,0
3.3418,-1.9806e-05,0
3.3423,-8.5603e-06,0
3.3428,-5.7069e-06,0
3.3433,-5.3712e-06,0
3.3438,-8.3925e-07,0
3.3444,9.7353e-06,0
3.3449,1.8967e-05,0
3.3454,2.2828e-05,0
3.3459,2.5177e-05,0
3.3464,3.1724e-05,0
3.347,4.0787e-05,0
3.3475,4.4648e-05,0
3.348,4.1794e-05,0
3.3485,3.8773e-05,0
3.349,3.4745e-05,0
3.3496,2.5345e-05,0
3.3501,1.1749e-05,0
3.3506,8.5603e-06,0
3.3511,2.8702e-05,0
3.3516,5.7572e-05,0
3.3522,7.0665e-05,0
3.3527,6.009e-05,0
3.3532,3.8437e-05,0
3.3537,2.6017e-05,0
3.3542,2.9374e-05,0
3.3548,3.2059e-05,0
3.3553,1.796e-05,0
3.3558,-5.539e-06,0
3.3563,-1.8967e-05,0
3.3568,-1.1917e-05,0
3.3573,5.2033e-06,0
3.3579,1.8631e-05,0
3.3584,2.9877e-05,0
3.3589,4.3641e-05,0
3.3594,4.8173e-05,0
3.3599,3.4241e-05,0
3.3605,1.6281e-05,0
3.361,1.2253e-05,0
3.3615,1.796e-05,0
3.362,2.5177e-05,0
3.3625,2.7695e-05,0
3.3631,2.266e-05,0
3.3636,5.2033e-06,0
3.3641,-7.0497e-06,0
3.3646,5.8747e-06,0
3.3651,2.8702e-05,0
3.3657,3.6591e-05,0
3.3662,3.2395e-05,0
3.3667,2.8031e-05,0
3.3672,2.8031e-05,0
3.3677,3.0884e-05,0
3.3683,3.1556e-05,0
3.3688,3.2059e-05,0
3.3693,3.3738e-05,0
3.3698,3.1388e-05,0
3.3703,3.1388e-05,0
3.3708,4.7166e-05,0
3.3714,7.2343e-05,0
3.3719,8.9464e-05,0
3.3724,9.0303e-05,0
3.3729,8.2582e-05,0
3.3734,7.4357e-05,0
3.374,6.5629e-05,0
3.3745,4.7166e-05,0
3.375,1.3596e-05,0
3.3755,-2.4002e-05,0
3.376,-4.6159e-05,0
3.3766,-3.8941e-05,0
3.3771,-3.1052e-05,0
3.3776,-5.4047e-05,0
3.3781,-7.3854e-05,0
3.3786,-5.1194e-05,0
3.3792,-8.7282e-06,0
3.3797,1.326e-05,0
3.3802,1.0239e-05,0
3.3807,5.539e-06,0
3.3812,7.2175e-06,0
3.3817,1.5946e-05,0
3.3823,2.9374e-05,0
3.3828,3.9948e-05,0
3.3833,4.6326e-05,0
3.3838,4.7501e-05,0
3.3843,4.2802e-05,0
3.3849,2.5345e-05,0
3.3854,2.5177e-06,0
3.3859,-1.1749e-06,0
3.3864,2.031e-05,0
3.3869,4.5151e-05,0
3.3875,5.5726e-05,0
3.388,5.8076e-05,0
3.3885,5.8915e-05,0
3.389,5.0858e-05,0
3.3895,3.3402e-05,0
3.3901,2.7359e-05,0
3.3906,3.592e-05,0
3.3911,4.2802e-05,0
3.3916,4.0452e-05,0
3.3921,2.9038e-05,0
3.3927,2.0645e-05,0
3.3932,1.6449e-05,0
3.3937,6.2104e-06,0
3.3942,-6.2104e-06,0
3.3947,-1.6281e-05,0
3.3952,-2.8534e-05,0
3.3958,-3.6088e-05,0
3.3963,-3.2059e-05,0
3.3968,-2.0645e-05,0
3.3973,-5.8747e-06,0
3.3978,5.0355e-06,0
3.3984,2.0142e-06,0
3.3989,-2.0813e-05,0
3.3994,-4.3137e-05,0
3.3999,-3.6255e-05,0
3.4004,-7.2175e-06,0
3.401,1.8296e-05,0
3.4015,3.2395e-05,0
3.402,4.2634e-05,0
3.4025,5.0187e-05,0
3.403,5.2033e-05,0
3.4036,4.7669e-05,0
3.4041,3.3906e-05,0
3.4046,1.8967e-05,0
3.4051,1.561e-05,0
3.4056,1.9303e-05,0
3.4062,1.9806e-05,0
3.4067,1.9806e-05,0
3.4072,2.5849e-05,0
3.4077,3.0549e-05,0
3.4082,3.4745e-05,0
3.4087,4.1459e-05,0
3.4093,4.4144e-05,0
3.4098,4.2634e-05,0
3.4103,4.2466e-05,0
3.4108,3.8773e-05,0
3.4113,3.5416e-05,0
3.4119,4.0787e-05,0
3.4124,4.6662e-05,0
3.4129,4.4984e-05,0
3.4134,4.062e-05,0
3.4139,3.4409e-05,0
3.4145,2.6017e-05,0
3.415,2.1149e-05,0
3.4155,2.9374e-05,0
3.416,4.1459e-05,0
3.4165,4.3305e-05,0
3.4171,4.448e-05,0
3.4176,4.5487e-05,0
3.4181,4.2298e-05,0
3.4186,3.6759e-05,0
3.4191,3.2898e-05,0
3.4197,2.4674e-05,0
3.4202,5.0355e-07,0
3.4207,-3.7263e-05,0
3.4212,-6.479e-05,0
3.4217,-5.8579e-05,0
3.4223,-2.7695e-05,0
3.4228,4.5319e-06,0
3.4233,2.1988e-05,0
3.4238,2.4506e-05,0
3.4243,1.6953e-05,0
3.4248,6.8818e-06,0
3.4254,1.6785e-07,0
3.4259,2.8534e-06,0
3.4264,1.8463e-06,0
3.4269,-1.0071e-05,0
3.4274,-1.5778e-05,0
3.428,-6.0426e-06,0
3.4285,9.9031e-06,0
3.429,2.1653e-05,0
3.4295,2.6017e-05,0
3.43,2.7863e-05,0
3.4306,3.0381e-05,0
3.4311,3.2059e-05,0
3.4316,3.508e-05,0
3.4321,3.6759e-05,0
3.4326,3.0213e-05,0
3.4332,1.4603e-05,0
3.4337,4.8676e-06,0
3.4342,1.5274e-05,0
3.4347,3.4073e-05,0
3.4352,4.5487e-05,0
3.4358,4.7837e-05,0
3.4363,4.1794e-05,0
3.4368,2.9374e-05,0
3.4373,1.8296e-05,0
3.4378,1.9638e-05,0
3.4383,3.5752e-05,0
3.4389,5.0019e-05,0
3.4394,5.3544e-05,0
3.4399,5.2537e-05,0
3.4404,5.069e-05,0
3.4409,4.5319e-05,0
3.4415,3.4577e-05,0
3.442,1.8631e-05,0
3.4425,6.2104e-06,0
3.443,3.1891e-06,0
3.4435,5.2033e-06,0
3.4441,3.1891e-06,0
3.4446,-3.8605e-06,0
3.4451,-9.3996e-06,0
3.4456,-1.2253e-05,0
3.4461,-7.0497e-06,0
3.4467,8.896e-06,0
3.4472,2.3667e-05,0
3.4477,2.3835e-05,0
3.4482,1.1917e-05,0
3.4487,1.0071e-05,0
3.4493,2.417e-05,0
3.4498,3.8773e-05,0
3.4503,4.2802e-05,0
3.4508,4.1123e-05,0
3.4513,3.9277e-05,0
3.4518,3.2898e-05,0
3.4524,1.9974e-05,0
3.4529,1.4267e-05,0
3.4534,2.8367e-05,0
3.4539,4.4816e-05,0
3.4544,4.4648e-05,0
3.455,2.5345e-05,0
3.4555,0,0
3.456,-1.7624e-05,0
3.4565,-1.9471e-05,0
3.457,-7.7211e-06,0
3.4576,7.2175e-06,0
3.4581,1.4267e-05,0
3.4586,1.7288e-05,0
3.4591,2.501e-05,0
3.4596,3.5584e-05,0
3.4602,4.1459e-05,0
3.4607,4.3641e-05,0
3.4612,4.2298e-05,0
3.4617,3.9445e-05,0
3.4622,3.9277e-05,0
3.4628,4.1123e-05,0
3.4633,4.5319e-05,0
3.4638,4.8173e-05,0
3.4643,4.6998e-05,0
3.4648,4.0955e-05,0
3.4653,2.9374e-05,0
3.4659,2.031e-05,0
3.4664,1.796e-05,0
3.4669,1.6449e-05,0
3.4674,1.6449e-05,0
3.4679,1.9974e-05,0
3.4685,2.2995e-05,0
3.469,2.3667e-05,0
3.4695,1.8296e-05,0
3.47,6.714e-06,0
3.4705,-6.8818e-06,0
3.4711,-1.8631e-05,0
3.4716,-2.1653e-05,0
3.4721,-2.2492e-05,0
3.4726,-3.3738e-05,0
3.4731,-5.0523e-05,0
3.4737,-5.7572e-05,0
3.4742,-5.6565e-05,0
3.4747,-5.8747e-05,0
3.4752,-6.3615e-05,0
3.4757,-6.0761e-05,0
3.4762,-4.8844e-05,0
3.4768,-3.6088e-05,0
3.4773,-2.3667e-05,0
3.4778,-1.2757e-05,0
3.4783,0,0
3.4788,2.0981e-05,0
3.4794,4.1123e-05,0
3.4799,4.8676e-05,0
3.4804,4.8844e-05,0
3.4809,5.0858e-05,0
3.4814,4.8844e-05,0
3.482,3.6088e-05,0
3.4825,2.5345e-05,0
3.483,2.8031e-05,0
3.4835,3.7766e-05,0
3.484,5.4719e-05,0
3.4846,6.5797e-05,0
3.4851,5.539e-05,0
3.4856,4.5319e-05,0
3.4861,4.7837e-05,0
3.4866,5.9586e-05,0
3.4872,7.2343e-05,0
3.4877,7.6875e-05,0
3.4882,7.3014e-05,0
3.4887,6.5629e-05,0
3.4892,5.9754e-05,0
3.4897,5.3208e-05,0
3.4903,4.5319e-05,0
3.4908,3.6759e-05,0
3.4913,2.5345e-05,0
3.4918,1.9806e-05,0
3.4923,2.6184e-05,0
3.4929,3.3906e-05,0
3.4934,3.5584e-05,0
3.4939,3.8605e-05,0
3.4944,4.6326e-05,0
3.4949,5.153e-05,0
3.4955,5.1194e-05,0
3.496,4.6662e-05,0
3.4965,4.3137e-05,0
3.497,4.3473e-05,0
3.4975,4.3137e-05,0
3.4981,3.6591e-05,0
3.4986,1.9806e-05,0
3.4991,9.3996e-06,0
3.4996,1.8967e-05,0
3.5001,3.2563e-05,0
3.5007,3.743e-05,0
3.5012,3.8773e-05,0
3.5017,3.1556e-05,0
3.5022,1.3092e-05,0
3.5027,8.3925e-07,0
3.5032,3.8605e-06,0
3.5038,1.2924e-05,0
3.5043,1.326e-05,0
3.5048,-5.539e-06,0
3.5053,-2.9038e-05,0
3.5058,-3.3738e-05,0
3.5064,-2.6184e-05,0
3.5069,-1.8296e-05,0
3.5074,-7.2175e-06,0
3.5079,2.3499e-06,0
3.5084,2.5177e-06,0
3.509,2.8534e-06,0
3.5095,1.4939e-05,0
3.51,3.2731e-05,0
3.5105,4.6159e-05,0
3.511,5.4215e-05,0
3.5116,5.8915e-05,0
3.5121,5.388e-05,0
3.5126,4.2298e-05,0
3.5131,3.0716e-05,0
3.5136,1.7792e-05,0
3.5142,8.896e-06,0
3.5147,1.0071e-05,0
3.5152,1.4099e-05,0
3.5157,1.796e-05,0
3.5162,2.031e-05,0
3.5168,2.2156e-05,0
3.5173,2.5681e-05,0
3.5178,3.4745e-05,0
3.5183,4.2634e-05,0
3.5188,4.2634e-05,0
3.5193,3.3906e-05,0
3.5199,2.4002e-05,0
3.5204,2.0142e-05,0
3.5209,2.2492e-05,0
3.5214,2.9374e-05,0
3.5219,3.4745e-05,0
3.5225,3.4073e-05,0
3.523,2.4002e-05,0
3.5235,8.3925e-06,0
3.524,-1.6785e-06,0
3.5245,-1.1414e-05,0
3.5251,-3.1556e-05,0
3.5256,-5.0858e-05,0
3.5261,-5.2705e-05,0
3.5266,-3.8941e-05,0
3.5271,-2.0981e-05,0
3.5277,-7.3854e-06,0
3.5282,-3.357e-07,0
3.5287,-3.1891e-06,0
3.5292,-1.2253e-05,0
3.5297,-1.6953e-05,0
3.5303,-1.3931e-05,0
3.5308,-8.2246e-06,0
3.5313,-4.8676e-06,0
3.5318,-8.3925e-07,0
3.5323,1.1749e-05,0
3.5328,2.7695e-05,0
3.5334,3.4241e-05,0
3.5339,3.4409e-05,0
3.5344,3.0045e-05,0
3.5349,2.7359e-05,0
3.5354,3.6088e-05,0
3.536,4.6159e-05,0
3.5365,4.5991e-05,0
3.537,4.213e-05,0
3.5375,3.743e-05,0
3.538,2.7695e-05,0
3.5386,1.3931e-05,0
3.5391,4.5319e-06,0
3.5396,5.2033e-06,0
3.5401,1.0575e-05,0
3.5406,1.2085e-05,0
3.5412,1.3931e-05,0
3.5417,2.0142e-05,0
3.5422,1.9974e-05,0
3.5427,6.2104e-06,0
3.5432,-5.2033e-06,0
3.5438,-5.2033e-06,0
3.5443,5.2033e-06,0
3.5448,2.7192e-05,0
3.5453,5.4215e-05,0
3.5458,7.4357e-05,0
3.5463,7.4189e-05,0
3.5469,5.6397e-05,0
3.5474,4.0116e-05,0
3.5479,3.6591e-05,0
3.5484,4.2298e-05,0
3.5489,4.4144e-05,0
3.5495,4.0452e-05,0
3.55,3.0549e-05,0
3.5505,1.6617e-05,0
3.551,1.4435e-05,0
3.5515,2.5177e-05,0
3.5521,2.5681e-05,0
3.5526,1.1246e-05,0
3.5531,9.5674e-06,0
3.5536,2.7695e-05,0
3.5541,4.4816e-05,0
3.5547,4.2802e-05,0
3.5552,1.8296e-05,0
3.5557,-9.7353e-06,0
3.5562,-1.4603e-05,0
3.5567,9.0639e-06,0
3.5572,2.6688e-05,0
3.5578,1.3931e-05,0
3.5583,-9.7353e-06,0
3.5588,-1.2757e-05,0
3.5593,5.2033e-06,0
3.5598,2.7695e-05,0
3.5604,4.448e-05,0
3.5609,4.8508e-05,0
3.5614,4.7166e-05,0
3.5619,5.1194e-05,0
3.5624,5.623e-05,0
3.563,6.009e-05,0
3.5635,6.009e-05,0
3.564,5.6062e-05,0
3.5645,5.9922e-05,0
3.565,6.9657e-05,0
3.5656,7.0329e-05,0
3.5661,3.4073e-05,0
3.5666,-2.7863e-05,0
3.5671,-5.5558e-05,0
3.5676,-3.1388e-05,0
3.5682,8.2246e-06,0
3.5687,2.9374e-05,0
3.5692,1.9471e-05,0
3.5697,2.182e-06,0
3.5702,1.1749e-06,0
3.5707,1.6449e-05,0
3.5713,4.0116e-05,0
3.5718,5.8076e-05,0
3.5723,6.1601e-05,0
3.5728,5.8915e-05,0
3.5733,4.918e-05,0
3.5739,3.1052e-05,0
3.5744,1.5106e-05,0
3.5749,7.5532e-06,0
3.5754,1.5106e-06,0
3.5759,-8.896e-06,0
3.5765,-1.2253e-05,0
3.577,-9.3996e-06,0
3.5775,-1.561e-05,0
3.578,-2.7024e-05,0
3.5785,-2.7359e-05,0
3.5791,-1.6281e-05,0
3.5796,-6.8818e-06,0
3.5801,8.3925e-07,0
3.5806,1.326e-05,0
3.5811,3.0549e-05,0
3.5817,4.6326e-05,0
3.5822,5.3544e-05,0
3.5827,4.9516e-05,0
3.5832,3.6927e-05,0
3.5837,2.4338e-05,0
3.5842,1.9974e-05,0
3.5848,1.8463e-05,0
3.5853,1.0407e-05,0
3.5858,-5.8747e-06,0
3.5863,-1.7288e-05,0
3.5868,-1.0239e-05,0
3.5874,8.7282e-06,0
3.5879,2.6688e-05,0
3.5884,4.0116e-05,0
3.5889,4.6159e-05,0
3.5894,4.6494e-05,0
3.59,4.5823e-05,0
3.5905,4.3641e-05,0
3.591,4.7669e-05,0
3.5915,6.009e-05,0
3.592,6.8147e-05,0
3.5926,6.3615e-05,0
3.5931,4.7837e-05,0
3.5936,3.1724e-05,0
3.5941,2.1988e-05,0
3.5946,1.6953e-05,0
3.5952,1.2924e-05,0
3.5957,2.5177e-06,0
3.5962,-1.4603e-05,0
3.5967,-2.4002e-05,0
3.5972,-2.031e-05,0
3.5978,-1.8631e-05,0
3.5983,-2.5345e-05,0
3.5988,-3.357e-05,0
3.5993,-4.062e-05,0
3.5998,-4.3809e-05,0
3.6003,-4.2802e-05,0
3.6009,-3.7766e-05,0
3.6014,-2.8199e-05,0
3.6019,-1.4939e-05,0
3.6024,-4.8676e-06,0
3.6029,8.3925e-07,0
3.6035,9.2317e-06,0
3.604,1.9806e-05,0
3.6045,2.8031e-05,0
3.605,3.0213e-05,0
3.6055,2.8702e-05,0
3.6061,2.9374e-05,0
3.6066,3.2059e-05,0
3.6071,3.3402e-05,0
3.6076,3.3234e-05,0
3.6081,3.4073e-05,0
3.6087,3.5752e-05,0
3.6092,3.7766e-05,0
3.6097,4.0116e-05,0
3.6102,4.448e-05,0
3.6107,4.5487e-05,0
3.6113,3.8773e-05,0
3.6118,2.9374e-05,0
3.6123,2.4002e-05,0
3.6128,2.2492e-05,0
3.6133,2.3331e-05,0
3.6138,2.7024e-05,0
3.6144,3.357e-05,0
3.6149,3.743e-05,0
3.6154,3.1891e-05,0
3.6159,2.652e-05,0
3.6164,3.0716e-05,0
3.617,4.3977e-05,0
3.6175,5.4551e-05,0
3.618,4.683e-05,0
3.6185,3.4073e-05,0
3.619,3.8437e-05,0
3.6196,5.0355e-05,0
3.6201,4.8005e-05,0
3.6206,3.4409e-05,0
3.6211,2.2324e-05,0
3.6216,5.7069e-06,0
3.6222,-1.1582e-05,0
3.6227,-1.3931e-05,0
3.6232,6.714e-07,0
3.6237,2.3331e-05,0
3.6242,4.4312e-05,0
3.6248,5.8244e-05,0
3.6253,5.7572e-05,0
3.6258,4.6159e-05,0
3.6263,4.1459e-05,0
3.6268,5.2537e-05,0
3.6273,5.8915e-05,0
3.6279,4.062e-05,0
3.6284,1.1749e-05,0
3.6289,-1.0071e-06,0
3.6294,5.0355e-07,0
3.6299,7.5532e-06,0
3.6305,1.8967e-05,0
3.631,3.9445e-05,0
3.6315,5.9419e-05,0
3.632,5.6062e-05,0
3.6325,3.8773e-05,0
3.6331,4.213e-05,0
3.6336,5.3376e-05,0
3.6341,4.3809e-05,0
3.6346,2.9038e-05,0
3.6351,3.1388e-05,0
3.6357,1.7792e-05,0
3.6362,-2.7863e-05,0
3.6367,-6.0594e-05,0
3.6372,-5.7572e-05,0
3.6377,-5.153e-05,0
3.6383,-6.3615e-05,0
3.6388,-7.7714e-05,0
3.6393,-6.4958e-05,0
3.6398,-3.3066e-05,0
3.6403,-7.5532e-06,0
3.6408,6.3783e-06,0
3.6414,1.3092e-05,0
3.6419,1.5274e-05,0
3.6424,1.7792e-05,0
3.6429,2.2324e-05,0
3.6434,2.4674e-05,0
3.644,2.4002e-05,0
3.6445,2.4338e-05,0
3.645,2.2828e-05,0
3.6455,2.1317e-05,0
3.646,2.6017e-05,0
3.6466,3.6088e-05,0
3.6471,4.2802e-05,0
3.6476,4.2634e-05,0
3.6481,4.1291e-05,0
3.6486,4.213e-05,0
3.6492,4.4816e-05,0
3.6497,4.8173e-05,0
3.6502,5.069e-05,0
3.6507,5.0858e-05,0
3.6512,4.9851e-05,0
3.6517,5.1194e-05,0
3.6523,5.6062e-05,0
3.6528,6.1265e-05,0
3.6533,6.5461e-05,0
3.6538,6.8315e-05,0
3.6543,6.7643e-05,0
3.6549,5.8915e-05,0
3.6554,4.3305e-05,0
3.6559,3.2395e-05,0
3.6564,2.8199e-05,0
3.6569,1.5778e-05,0
3.6575,1.1749e-06,0
3.658,1.0575e-05,0
3.6585,2.9038e-05,0
3.659,2.4338e-05,0
3.6595,-1.6785e-07,0
3.6601,-2.9038e-05,0
3.6606,-6.4958e-05,0
3.6611,-8.8792e-05,0
3.6616,-7.2847e-05,0
3.6621,-2.9374e-05,0
3.6627,1.326e-05,0
3.6632,3.2059e-05,0
3.6637,2.2995e-05,0
3.6642,9.7353e-06,0
3.6647,1.0239e-05,0
3.6652,1.7624e-05,0
3.6658,2.4002e-05,0
3.6663,2.5177e-05,0
3.6668,2.4506e-05,0
3.6673,2.0142e-05,0
3.6678,8.896e-06,0
3.6684,1.0575e-05,0
3.6689,3.1724e-05,0
3.6694,4.683e-05,0
3.6699,4.4816e-05,0
3.6704,3.6591e-05,0
3.671,3.0884e-05,0
3.6715,2.9038e-05,0
3.672,2.4338e-05,0
3.6725,1.2421e-05,0
3.673,-9.2317e-06,0
3.6736,-2.9206e-05,0
3.6741,-3.9109e-05,0
3.6746,-4.1962e-05,0
3.6751,-3.8437e-05,0
3.6756,-2.7695e-05,0
3.6762,-1.2924e-05,0
3.6767,5.0355e-06,0
3.6772,1.9471e-05,0
3.6777,2.6688e-05,0
3.6782,3.3402e-05,0
3.6787,4.3809e-05,0
3.6793,5.4551e-05,0
3.6798,5.8412e-05,0
3.6803,5.2705e-05,0
3.6808,4.1794e-05,0
3.6813,3.1388e-05,0
3.6819,1.2924e-05,0
3.6824,-3.5248e-06,0
3.6829,-2.5177e-06,0
3.6834,1.3092e-05,0
3.6839,3.0213e-05,0
3.6845,3.4745e-05,0
3.685,3.3402e-05,0
3.6855,4.6494e-05,0
3.686,6.2104e-05,0
3.6865,6.479e-05,0
3.6871,6.3951e-05,0
3.6876,6.2272e-05,0
3.6881,5.5558e-05,0
3.6886,4.3977e-05,0
3.6891,3.3234e-05,0
3.6897,2.652e-05,0
3.6902,2.3667e-05,0
3.6907,2.6017e-05,0
3.6912,3.0884e-05,0
3.6917,3.7095e-05,0
3.6923,4.4816e-05,0
3.6928,4.7501e-05,0
3.6933,3.5416e-05,0
3.6938,1.1917e-05,0
3.6943,3.1891e-06,0
3.6948,5.8747e-06,0
3.6954,8.2246e-06,0
3.6959,2.0645e-05,0
3.6964,3.743e-05,0
3.6969,3.1052e-05,0
3.6974,7.8889e-06,0
3.698,-4.1962e-06,0
3.6985,2.8534e-06,0
3.699,1.4939e-05,0
3.6995,9.2317e-06,0
3.7,-1.7624e-05,0
3.7006,-3.743e-05,0
3.7011,-2.4506e-05,0
3.7016,7.3854e-06,0
3.7021,2.887e-05,0
3.7026,3.2059e-05,0
3.7032,2.9038e-05,0
3.7037,2.8367e-05,0
3.7042,2.6688e-05,0
3.7047,2.4842e-05,0
3.7052,2.652e-05,0
3.7058,2.9374e-05,0
3.7063,2.9038e-05,0
3.7068,2.7024e-05,0
3.7073,2.6352e-05,0
3.7078,2.6688e-05,0
3.7083,2.9038e-05,0
3.7089,3.1891e-05,0
3.7094,3.1724e-05,0
3.7099,2.9206e-05,0
3.7104,2.8031e-05,0
3.7109,2.7192e-05,0
3.7115,2.266e-05,0
3.712,1.7288e-05,0
3.7125,1.9638e-05,0
3.713,2.6017e-05,0
3.7135,2.8031e-05,0
3.7141,2.7695e-05,0
3.7146,2.4506e-05,0
3.7151,1.9974e-05,0
3.7156,1.8967e-05,0
3.7161,1.6617e-05,0
3.7167,1.2924e-05,0
3.7172,1.2924e-05,0
3.7177,1.1246e-05,0
3.7182,6.5461e-06,0
3.7187,6.5461e-06,0
3.7193,1.2757e-05,0
3.7198,2.0645e-05,0
3.7203,2.0645e-05,0
3.7208,8.5603e-06,0
3.7213,-8.2246e-06,0
3.7218,-1.9471e-05,0
3.7224,-2.1149e-05,0
3.7229,-1.4435e-05,0
3.7234,-6.0426e-06,0
3.7239,1.1749e-06,0
3.7244,1.5946e-05,0
3.725,3.0045e-05,0
3.7255,3.4745e-05,0
3.726,3.4577e-05,0
3.7265,3.8437e-05,0
3.727,4.0787e-05,0
3.7276,3.7263e-05,0
3.7281,2.8702e-05,0
3.7286,2.9038e-05,0
3.7291,4.683e-05,0
3.7296,6.5293e-05,0
3.7302,6.9657e-05,0
3.7307,5.8915e-05,0
3.7312,4.3977e-05,0
3.7317,3.6423e-05,0
3.7322,2.8031e-05,0
3.7327,1.4267e-05,0
3.7333,-2.8534e-06,0
3.7338,-1.6449e-05,0
3.7343,-2.4674e-05,0
3.7348,-2.8031e-05,0
3.7353,-2.7024e-05,0
3.7359,-2.8031e-05,0
3.7364,-3.508e-05,0
3.7369,-3.5752e-05,0
3.7374,-2.6352e-05,0
3.7379,-9.5674e-06,0
3.7385,1.0407e-05,0
3.739,2.7695e-05,0
3.7395,3.8102e-05,0
3.74,4.918e-05,0
3.7405,6.2608e-05,0
3.7411,6.8818e-05,0
3.7416,5.7572e-05,0
3.7421,4.0116e-05,0
3.7426,3.6927e-05,0
3.7431,4.5487e-05,0
3.7437,4.1123e-05,0
3.7442,-1.1749e-06,0
3.7447,-4.7166e-05,0
3.7452,-3.9445e-05,0
3.7457,5.8747e-06,0
3.7462,3.9277e-05,0
3.7468,4.8173e-05,0
3.7473,4.3473e-05,0
3.7478,4.1291e-05,0
3.7483,4.2802e-05,0
3.7488,3.8102e-05,0
3.7494,2.4002e-05,0
3.7499,1.4939e-05,0
3.7504,1.6617e-05,0
3.7509,2.0981e-05,0
3.7514,1.8296e-05,0
3.752,6.714e-07,0
3.7525,-1.9471e-05,0
3.753,-1.5106e-05,0
3.7535,3.1891e-06,0
3.754,1.5946e-05,0
3.7546,1.7456e-05,0
3.7551,1.4939e-05,0
3.7556,1.9974e-05,0
3.7561,3.0045e-05,0
3.7566,3.743e-05,0
3.7572,4.2634e-05,0
3.7577,4.2802e-05,0
3.7582,4.0116e-05,0
3.7587,3.9277e-05,0
3.7592,3.5752e-05,0
3.7597,2.7863e-05,0
3.7603,2.0981e-05,0
3.7608,1.8631e-05,0
3.7613,1.5274e-05,0
3.7618,6.5461e-06,0
3.7623,4.1962e-06,0
3.7629,1.7624e-05,0
3.7634,3.7095e-05,0
3.7639,5.1362e-05,0
3.7644,5.9586e-05,0
3.7649,6.3447e-05,0
3.7655,6.2608e-05,0
3.766,5.4551e-05,0
3.7665,4.2802e-05,0
3.767,2.4674e-05,0
3.7675,-1.6281e-05,0
3.7681,-5.9251e-05,0
3.7686,-6.1936e-05,0
3.7691,-1.7121e-05,0
3.7696,2.7024e-05,0
3.7701,3.2059e-05,0
3.7707,1.8296e-05,0
3.7712,9.2317e-06,0
3.7717,1.0071e-06,0
3.7722,5.2033e-06,0
3.7727,2.4002e-05,0
3.7732,3.3402e-05,0
3.7738,2.6688e-05,0
3.7743,1.4771e-05,0
3.7748,7.8889e-06,0
3.7753,7.2175e-06,0
3.7758,8.2246e-06,0
3.7764,8.3925e-06,0
3.7769,9.3996e-06,0
3.7774,9.2317e-06,0
3.7779,1.0071e-05,0
3.7784,1.4603e-05,0
3.779,2.1317e-05,0
3.7795,2.9541e-05,0
3.78,3.508e-05,0
3.7805,3.8605e-05,0
3.781,4.0452e-05,0
3.7816,3.8773e-05,0
3.7821,3.5416e-05,0
3.7826,3.5416e-05,0
3.7831,3.8773e-05,0
3.7836,3.6759e-05,0
3.7842,2.8367e-05,0
3.7847,2.652e-05,0
3.7852,3.743e-05,0
3.7857,4.9851e-05,0
3.7862,5.153e-05,0
3.7868,4.6494e-05,0
3.7873,4.4816e-05,0
3.7878,5.2201e-05,0
3.7883,6.2272e-05,0
3.7888,6.3951e-05,0
3.7893,5.9586e-05,0
3.7899,5.2537e-05,0
3.7904,3.9109e-05,0
3.7909,2.1317e-05,0
3.7914,9.3996e-06,0
3.7919,-1.6785e-06,0
3.7925,-1.6281e-05,0
3.793,-2.0645e-05,0
3.7935,-6.8818e-06,0
3.794,2.8534e-06,0
3.7945,-3.6927e-06,0
3.7951,-2.3163e-05,0
3.7956,-4.7837e-05,0
3.7961,-5.7069e-05,0
3.7966,-5.2705e-05,0
3.7971,-4.7333e-05,0
3.7977,-4.4816e-05,0
3.7982,-3.7766e-05,0
3.7987,-1.7288e-05,0
3.7992,7.2175e-06,0
3.7997,1.8799e-05,0
3.8003,1.8967e-05,0
3.8008,1.9974e-05,0
3.8013,2.5345e-05,0
3.8018,3.1388e-05,0
3.8023,3.9109e-05,0
3.8028,4.6159e-05,0
3.8034,4.9348e-05,0
3.8039,5.1194e-05,0
3.8044,5.4215e-05,0
3.8049,5.8579e-05,0
3.8054,6.1601e-05,0
3.806,6.2272e-05,0
3.8065,5.8244e-05,0
3.807,5.0858e-05,0
3.8075,4.1962e-05,0
3.808,3.6927e-05,0
3.8086,3.0716e-05,0
3.8091,1.9135e-05,0
3.8096,5.2033e-06,0
3.8101,-4.8676e-06,0
3.8106,-8.5603e-06,0
3.8112,-1.0575e-05,0
3.8117,-1.1582e-05,0
3.8122,-1.1917e-05,0
3.8127,-1.091e-05,0
3.8132,-9.0639e-06,0
3.8138,-8.896e-06,0
3.8143,-3.357e-06,0
3.8148,5.8747e-06,0
3.8153,1.1414e-05,0
3.8158,1.2757e-05,0
3.8163,1.3764e-05,0
3.8169,8.5603e-06,0
3.8174,-1.6785e-07,0
3.8179,-4.1962e-06,0
3.8184,5.539e-06,0
3.8189,2.3331e-05,0
3.8195,3.2898e-05,0
3.82,3.2059e-05,0
3.8205,3.6088e-05,0
3.821,5.0523e-05,0
3.8215,6.1265e-05,0
3.8221,5.8747e-05,0
3.8226,4.3305e-05,0
3.8231,2.266e-05,0
3.8236,1.4435e-05,0
3.8241,2.0981e-05,0
3.8247,3.122e-05,0
3.8252,3.8437e-05,0
3.8257,3.8773e-05,0
3.8262,3.508e-05,0
3.8267,2.9709e-05,0
3.8272,2.3667e-05,0
3.8278,2.1653e-05,0
3.8283,2.5177e-05,0
3.8288,3.0884e-05,0
3.8293,3.743e-05,0
3.8298,3.9948e-05,0
3.8304,3.6759e-05,0
3.8309,3.5752e-05,0
3.8314,3.9445e-05,0
3.8319,4.683e-05,0
3.8324,5.3208e-05,0
3.833,6.0258e-05,0
3.8335,6.9657e-05,0
3.834,6.9993e-05,0
3.8345,5.7572e-05,0
3.835,4.918e-05,0
3.8356,4.7501e-05,0
3.8361,3.5416e-05,0
3.8366,1.3596e-05,0
3.8371,-1.5106e-06,0
3.8376,-9.0639e-06,0
3.8382,-1.2253e-05,0
3.8387,-9.5674e-06,0
3.8392,-7.7211e-06,0
3.8397,-1.2253e-05,0
3.8402,-1.4435e-05,0
3.8407,-1.5106e-05,0
3.8413,-1.091e-05,0
3.8418,1.3428e-06,0
3.8423,1.3092e-05,0
3.8428,1.6449e-05,0
3.8433,8.896e-06,0
3.8439,-2.6856e-06,0
3.8444,-5.539e-06,0
3.8449,-4.8676e-06,0
3.8454,-9.2317e-06,0
3.8459,-1.0071e-05,0
3.8465,-3.1891e-06,0
3.847,6.8818e-06,0
3.8475,1.9303e-05,0
3.848,2.8534e-05,0
3.8485,2.6352e-05,0
3.8491,1.9303e-05,0
3.8496,1.326e-05,0
3.8501,1.4267e-05,0
3.8506,1.4267e-05,0
3.8511,1.1414e-05,0
3.8517,1.6953e-05,0
3.8522,3.122e-05,0
3.8527,4.0787e-05,0
3.8532,3.9948e-05,0
3.8537,3.9948e-05,0
3.8542,4.1794e-05,0
3.8548,4.2466e-05,0
3.8553,4.2802e-05,0
3.8558,4.5991e-05,0
3.8563,4.6326e-05,0
3.8568,3.827e-05,0
3.8574,2.6352e-05,0
3.8579,1.9638e-05,0
3.8584,2.2324e-05,0
3.8589,3.3402e-05,0
3.8594,3.978e-05,0
3.86,2.8199e-05,0
3.8605,5.8747e-06,0
3.861,-5.539e-06,0
3.8615,-1.1749e-06,0
3.862,1.326e-05,0
3.8626,2.4002e-05,0
3.8631,1.4267e-05,0
3.8636,-1.0071e-06,0
3.8641,-1.1749e-06,0
3.8646,1.1917e-05,0
3.8652,1.7121e-05,0
3.8657,5.2033e-06,0
3.8662,-8.7282e-06,0
3.8667,-8.5603e-06,0
3.8672,1.1749e-06,0
3.8678,7.7211e-06,0
3.8683,9.0639e-06,0
3.8688,9.0639e-06,0
3.8693,6.8818e-06,0
3.8698,4.6998e-06,0
3.8703,3.5248e-06,0
3.8709,4.6998e-06,0
3.8714,8.3925e-06,0
3.8719,1.1749e-05,0
3.8724,1.091e-05,0
3.8729,8.2246e-06,0
3.8735,1.2589e-05,0
3.874,2.182e-05,0
3.8745,2.8031e-05,0
3.875,2.8367e-05,0
3.8755,2.5345e-05,0
3.8761,2.266e-05,0
3.8766,2.1988e-05,0
3.8771,2.2492e-05,0
3.8776,2.9374e-05,0
3.8781,4.448e-05,0
3.8787,5.7404e-05,0
3.8792,5.7908e-05,0
3.8797,4.9851e-05,0
3.8802,5.304e-05,0
3.8807,7.2343e-05,0
3.8813,8.9799e-05,0
3.8818,9.0806e-05,0
3.8823,6.9993e-05,0
3.8828,5.8076e-05,0
3.8833,7.8218e-05,0
3.8838,9.7688e-05,0
3.8844,8.275e-05,0
3.8849,5.4047e-05,0
3.8854,3.7095e-05,0
3.8859,2.2156e-05,0
3.8864,1.8463e-06,0
3.887,-2.0142e-05,0
3.8875,-3.6088e-05,0
3.888,-4.8676e-05,0
3.8885,-6.5461e-05,0
3.889,-8.1407e-05,0
3.8896,-8.6778e-05,0
3.8901,-8.426e-05,0
3.8906,-8.5603e-05,0
3.8911,-8.275e-05,0
3.8916,-6.4118e-05,0
3.8922,-4.062e-05,0
3.8927,-2.6688e-05,0
3.8932,-1.9303e-05,0
3.8937,-9.0639e-06,0
3.8942,2.5177e-06,0
3.8948,1.0407e-05,0
3.8953,1.2924e-05,0
3.8958,1.9135e-05,0
3.8963,3.6423e-05,0
3.8968,5.2873e-05,0
3.8973,5.9586e-05,0
3.8979,6.3279e-05,0
3.8984,7.335e-05,0
3.8989,8.2582e-05,0
3.8994,8.9799e-05,0
3.8999,9.6345e-05,0
3.9005,9.9031e-05,0
3.901,9.6849e-05,0
3.9015,8.8289e-05,0
3.902,6.9322e-05,0
3.9025,3.7934e-05,0
3.9031,6.714e-07,0
3.9036,-2.6352e-05,0
3.9041,-3.2731e-05,0
3.9046,-2.6017e-05,0
3.9051,-1.2253e-05,0
3.9057,6.0426e-06,0
3.9062,2.1317e-05,0
3.9067,2.4002e-05,0
3.9072,2.031e-05,0
3.9077,2.0981e-05,0
3.9082,2.7192e-05,0
3.9088,3.4409e-05,0
3.9093,3.8102e-05,0
3.9098,3.7934e-05,0
3.9103,3.6759e-05,0
3.9108,4.1794e-05,0
3.9114,4.8173e-05,0
3.9119,5.0858e-05,0
3.9124,4.2802e-05,0
3.9129,2.5177e-05,0
3.9134,1.1582e-05,0
3.914,1.2589e-05,0
3.9145,2.031e-05,0
3.915,2.1317e-05,0
3.9155,1.2589e-05,0
3.916,5.2033e-06,0
3.9166,1.326e-05,0
3.9171,2.6017e-05,0
3.9176,2.9374e-05,0
3.9181,2.9374e-05,0
3.9186,3.0716e-05,0
3.9192,2.8031e-05,0
3.9197,2.3331e-05,0
3.9202,1.8967e-05,0
3.9207,1.3596e-05,0
3.9212,1.0071e-05,0
3.9217,4.5319e-06,0
3.9223,-6.8818e-06,0
3.9228,-1.8631e-05,0
3.9233,-1.9974e-05,0
3.9238,-1.0071e-05,0
3.9243,5.0355e-07,0
3.9249,5.8747e-06,0
3.9254,9.2317e-06,0
3.9259,1.6617e-05,0
3.9264,2.9206e-05,0
3.9269,4.0116e-05,0
3.9275,4.3809e-05,0
3.928,3.743e-05,0
3.9285,2.8702e-05,0
3.929,3.1388e-05,0
3.9295,4.1291e-05,0
3.9301,5.069e-05,0
3.9306,4.6662e-05,0
3.9311,2.501e-05,0
3.9316,7.0497e-06,0
3.9321,1.5442e-05,0
3.9327,3.9445e-05,0
3.9332,5.4047e-05,0
3.9337,5.069e-05,0
3.9342,3.6759e-05,0
3.9347,1.9303e-05,0
3.9352,3.0213e-06,0
3.9358,-9.2317e-06,0
3.9363,-1.7288e-05,0
3.9368,-2.4338e-05,0
3.9373,-2.8367e-05,0
3.9378,-2.7192e-05,0
3.9384,-1.8463e-05,0
3.9389,-6.3783e-06,0
3.9394,1.8463e-06,0
3.9399,6.5461e-06,0
3.9404,1.0407e-05,0
3.941,1.4435e-05,0
3.9415,1.6953e-05,0
3.942,2.1317e-05,0
3.9425,2.8702e-05,0
3.943,3.1891e-05,0
3.9436,3.1724e-05,0
3.9441,3.5416e-05,0
3.9446,4.2802e-05,0
3.9451,4.9012e-05,0
3.9456,5.0019e-05,0
3.9462,4.9516e-05,0
3.9467,5.1865e-05,0
3.9472,5.3544e-05,0
3.9477,4.9348e-05,0
3.9482,4.0116e-05,0
3.9487,2.501e-05,0
3.9493,-8.3925e-07,0
3.9498,-1.8128e-05,0
3.9503,-1.4939e-05,0
3.9508,-2.3499e-06,0
3.9513,-1.091e-05,0
3.9519,-2.8367e-05,0
3.9524,-2.1653e-05,0
3.9529,-1.8463e-06,0
3.9534,1.0239e-05,0
3.9539,1.2924e-05,0
3.9545,1.8463e-05,0
3.955,2.5177e-05,0
3.9555,2.5849e-05,0
3.956,2.266e-05,0
3.9565,2.1988e-05,0
3.9571,2.3835e-05,0
3.9576,2.2995e-05,0
3.9581,2.4002e-05,0
3.9586,2.9374e-05,0
3.9591,3.3066e-05,0
3.9597,3.5584e-05,0
3.9602,4.1123e-05,0
3.9607,4.5487e-05,0
3.9612,4.8173e-05,0
3.9617,5.3376e-05,0
3.9623,5.9922e-05,0
3.9628,6.4286e-05,0
3.9633,6.479e-05,0
3.9638,6.7811e-05,0
3.9643,7.2343e-05,0
3.9648,7.3182e-05,0
3.9654,7.2007e-05,0
3.9659,7.0161e-05,0
3.9664,6.1936e-05,0
3.9669,4.4144e-05,0
3.9674,1.8463e-05,0
3.968,-2.182e-06,0
3.9685,-7.2175e-06,0
3.969,-6.3783e-06,0
3.9695,-1.6281e-05,0
3.97,-3.7766e-05,0
3.9706,-5.4887e-05,0
3.9711,-6.2104e-05,0
3.9716,-5.8579e-05,0
3.9721,-5.388e-05,0
3.9726,-5.2873e-05,0
3.9732,-4.8173e-05,0
3.9737,-2.8367e-05,0
3.9742,-4.3641e-06,0
3.9747,8.2246e-06,0
3.9752,1.1246e-05,0
3.9758,1.1414e-05,0
3.9763,1.6785e-05,0
3.9768,2.2995e-05,0
3.9773,2.1317e-05,0
3.9778,1.4603e-05,0
3.9783,1.4939e-05,0
3.9789,2.417e-05,0
3.9794,3.4241e-05,0
3.9799,3.7263e-05,0
3.9804,3.5752e-05,0
3.9809,3.4745e-05,0
3.9815,3.7263e-05,0
3.982,4.0787e-05,0
3.9825,4.3977e-05,0
3.983,4.7166e-05,0
3.9835,4.9348e-05,0
3.9841,4.9851e-05,0
3.9846,4.7501e-05,0
3.9851,4.7837e-05,0
3.9856,5.0187e-05,0
3.9861,5.153e-05,0
3.9867,5.1362e-05,0
3.9872,5.0858e-05,0
3.9877,4.4144e-05,0
3.9882,2.887e-05,0
3.9887,1.4435e-05,0
3.9893,1.1246e-05,0
3.9898,1.5274e-05,0
3.9903,1.9303e-05,0
3.9908,2.0645e-05,0
3.9913,2.5513e-05,0
3.9918,2.8702e-05,0
3.9924,1.0407e-05,0
3.9929,-1.5274e-05,0
3.9934,-1.1414e-05,0
3.9939,1.9638e-05,0
3.9944,3.6088e-05,0
3.995,1.0407e-05,0
3.9955,-3.5752e-05,0
3.996,-4.7501e-05,0
3.9965,-1.561e-05,0
3.997,1.7288e-05,0
3.9976,2.6352e-05,0
3.9981,2.0981e-05,0
3.9986,1.6281e-05,0
3.9991,2.0981e-05,0
3.9996,3.1724e-05,0
4.0002,3.4745e-05,0
4.0007,3.0381e-05,0
4.0012,2.5345e-05,0
4.0017,2.5345e-05,0
4.0022,2.9374e-05,0
4.0027,2.9206e-05,0
4.0033,2.9206e-05,0
4.0038,3.2898e-05,0
4.0043,3.4577e-05,0
4.0048,3.1724e-05,0
4.0053,2.9038e-05,0
4.0059,3.0381e-05,0
4.0064,3.2059e-05,0
4.0069,3.2059e-05,0
4.0074,3.3066e-05,0
4.0079,3.5416e-05,0
4.0085,3.9277e-05,0
4.009,4.3977e-05,0
4.0095,4.9516e-05,0
4.01,5.4887e-05,0
4.0105,5.8244e-05,0
4.0111,5.7908e-05,0
4.0116,4.9516e-05,0
4.0121,3.6423e-05,0
4.0126,2.3331e-05,0
4.0131,-4.1962e-06,0
4.0137,-4.5487e-05,0
4.0142,-5.7237e-05,0
4.0147,-3.743e-05,0
4.0152,-2.417e-05,0
4.0157,-2.887e-05,0
4.0163,-3.0716e-05,0
4.0168,-1.3931e-05,0
4.0173,5.3712e-06,0
4.0178,1.0071e-05,0
4.0183,5.2033e-06,0
4.0188,2.182e-06,0
4.0194,6.8818e-06,0
4.0199,1.8463e-05,0
4.0204,2.6352e-05,0
4.0209,1.8296e-05,0
4.0214,-1.5106e-06,0
4.022,-8.2246e-06,0
4.0225,3.5248e-06,0
4.023,1.3596e-05,0
4.0235,1.8296e-05,0
4.024,2.501e-05,0
4.0246,3.5248e-05,0
4.0251,4.1459e-05,0
4.0256,4.1123e-05,0
4.0261,3.5416e-05,0
4.0266,2.8031e-05,0
4.0272,2.1317e-05,0
4.0277,1.796e-05,0
4.0282,1.6449e-05,0
4.0287,1.8463e-05,0
4.0292,2.6352e-05,0
4.0297,3.5248e-05,0
4.0303,4.0787e-05,0
4.0308,4.1459e-05,0
4.0313,4.1794e-05,0
4.0318,4.5487e-05,0
4.0323,5.3376e-05,0
4.0329,6.2104e-05,0
4.0334,6.7979e-05,0
4.0339,6.9657e-05,0
4.0344,6.3951e-05,0
4.0349,4.7166e-05,0
4.0355,2.5681e-05,0
4.036,4.0284e-06,0
4.0365,-1.1582e-05,0
4.037,-9.3996e-06,0
4.0375,6.0426e-06,0
4.0381,1.4267e-05,0
4.0386,1.1749e-06,0
4.0391,-2.031e-05,0
4.0396,-2.5849e-05,0
4.0401,-1.7456e-05,0
4.0407,-1.2924e-05,0
4.0412,-2.4338e-05,0
4.0417,-4.4816e-05,0
4.0422,-4.683e-05,0
4.0427,-2.1653e-05,0
4.0432,1.8463e-06,0
4.0438,6.5461e-06,0
4.0443,3.8605e-06,0
4.0448,4.5319e-06,0
4.0453,8.5603e-06,0
4.0458,1.1749e-05,0
4.0464,1.6449e-05,0
4.0469,2.5345e-05,0
4.0474,3.1556e-05,0
4.0479,3.0381e-05,0
4.0484,2.7192e-05,0
4.049,2.8031e-05,0
4.0495,3.2731e-05,0
4.05,3.978e-05,0
4.0505,4.6159e-05,0
4.051,4.6494e-05,0
4.0516,4.6662e-05,0
4.0521,4.6662e-05,0
4.0526,4.3809e-05,0
4.0531,4.1291e-05,0
4.0536,4.448e-05,0
4.0542,5.5055e-05,0
4.0547,6.2104e-05,0
4.0552,5.4047e-05,0
4.0557,4.213e-05,0
4.0562,4.2802e-05,0
4.0568,4.6998e-05,0
4.0573,3.508e-05,0
4.0578,1.0407e-05,0
4.0583,-1.5946e-05,0
4.0588,-3.1724e-05,0
4.0593,-2.5681e-05,0
4.0599,-7.3854e-06,0
4.0604,9.0639e-06,0
4.0609,1.8296e-05,0
4.0614,2.4842e-05,0
4.0619,3.0381e-05,0
4.0625,3.9445e-05,0
4.063,4.7501e-05,0
4.0635,4.5151e-05,0
4.064,3.4073e-05,0
4.0645,2.7695e-05,0
4.0651,2.7359e-05,0
4.0656,2.4002e-05,0
4.0661,1.6785e-05,0
4.0666,1.3764e-05,0
4.0671,1.2757e-05,0
4.0677,7.8889e-06,0
4.0682,5.7069e-06,0
4.0687,9.2317e-06,0
4.0692,1.7624e-05,0
4.0697,3.4073e-05,0
4.0702,5.5558e-05,0
4.0708,6.9657e-05,0
4.0713,7.5364e-05,0
4.0718,7.7043e-05,0
4.0723,6.6972e-05,0
4.0728,4.3137e-05,0
4.0734,2.2492e-05,0
4.0739,1.4939e-05,0
4.0744,1.3596e-05,0
4.0749,1.5274e-05,0
4.0754,1.9135e-05,0
4.076,3.8605e-06,0
4.0765,-4.0116e-05,0
4.077,-7.1504e-05,0
4.0775,-6.4622e-05,0
4.078,-4.3641e-05,0
4.0786,-2.4506e-05,0
4.0791,-1.3428e-06,0
4.0796,2.8367e-05,0
4.0801,4.918e-05,0
4.0806,5.1698e-05,0
4.0812,4.2466e-05,0
4.0817,3.6423e-05,0
4.0822,3.743e-05,0
4.0827,4.0787e-05,0
4.0832,4.4144e-05,0
4.0838,4.3809e-05,0
4.0843,3.8941e-05,0
4.0848,3.3234e-05,0
4.0853,3.0381e-05,0
4.0858,2.8702e-05,0
4.0863,2.4842e-05,0
4.0869,1.796e-05,0
4.0874,1.561e-05,0
4.0879,2.4002e-05,0
4.0884,3.6088e-05,0
4.0889,4.5487e-05,0
4.0895,4.9348e-05,0
4.09,5.0523e-05,0
4.0905,4.8844e-05,0
4.091,4.0955e-05,0
4.0915,2.6017e-05,0
4.0921,1.1246e-05,0
4.0926,0,0
4.0931,-1.3092e-05,0
4.0936,-2.8702e-05,0
4.0941,-4.1627e-05,0
4.0947,-4.1459e-05,0
4.0952,-3.1052e-05,0
4.0957,-2.1317e-05,0
4.0962,-1.4939e-05,0
4.0967,-4.5319e-06,0
4.0972,1.1078e-05,0
4.0978,2.4002e-05,0
4.0983,1.9638e-05,0
4.0988,-2.0142e-06,0
4.0993,-1.6449e-05,0
4.0998,-1.0575e-05,0
4.1004,-2.182e-06,0
4.1009,-5.8747e-06,0
4.1014,-1.8631e-05,0
4.1019,-3.2059e-05,0
4.1024,-3.9948e-05,0
4.103,-4.1459e-05,0
4.1035,-3.4409e-05,0
4.104,-1.4267e-05,0
4.1045,9.0639e-06,0
4.105,1.8631e-05,0
4.1056,1.7792e-05,0
4.1061,1.8296e-05,0
4.1066,2.652e-05,0
4.1071,3.3402e-05,0
4.1076,2.9374e-05,0
4.1082,2.2324e-05,0
4.1087,2.7024e-05,0
4.1092,4.4816e-05,0
4.1097,6.0761e-05,0
4.1102,6.3447e-05,0
4.1108,6.0594e-05,0
4.1113,5.8747e-05,0
4.1118,5.4887e-05,0
4.1123,5.0187e-05,0
4.1128,4.8173e-05,0
4.1133,5.1362e-05,0
4.1139,5.7908e-05,0
4.1144,6.2776e-05,0
4.1149,6.2272e-05,0
4.1154,5.9251e-05,0
4.1159,6.0594e-05,0
4.1165,6.4622e-05,0
4.117,6.2608e-05,0
4.1175,5.539e-05,0
4.118,5.153e-05,0
4.1185,4.6662e-05,0
4.1191,3.508e-05,0
4.1196,2.5345e-05,0
4.1201,2.6688e-05,0
4.1206,3.0716e-05,0
4.1211,2.4842e-05,0
4.1217,1.4267e-05,0
4.1222,1.3931e-05,0
4.1227,2.3163e-05,0
4.1232,3.1052e-05,0
4.1237,3.2059e-05,0
4.1242,3.0381e-05,0
4.1248,3.3402e-05,0
4.1253,3.508e-05,0
4.1258,2.6017e-05,0
4.1263,2.0981e-05,0
4.1268,2.5681e-05,0
4.1274,2.417e-05,0
4.1279,5.2033e-06,0
4.1284,-2.2995e-05,0
4.1289,-3.357e-05,0
4.1294,-1.6953e-05,0
4.13,5.539e-06,0
4.1305,1.5946e-05,0
4.131,1.4939e-05,0
4.1315,8.7282e-06,0
4.132,3.1891e-06,0
4.1326,1.6785e-06,0
4.1331,5.2033e-06,0
4.1336,1.5442e-05,0
4.1341,2.1317e-05,0
4.1346,1.9303e-05,0
4.1352,9.2317e-06,0
4.1357,-1.5106e-06,0
4.1362,8.896e-06,0
4.1367,3.6759e-05,0
4.1372,5.6901e-05,0
4.1377,6.0594e-05,0
4.1383,6.1433e-05,0
4.1388,6.6972e-05,0
4.1393,7.1336e-05,0
4.1398,6.6636e-05,0
4.1403,5.8244e-05,0
4.1409,5.0187e-05,0
4.1414,2.887e-05,0
4.1419,-5.0355e-07,0
4.1424,-1.3092e-05,0
4.1429,-1.4771e-05,0
4.1435,-1.9806e-05,0
4.144,-3.3234e-05,0
4.1445,-4.5823e-05,0
4.145,-3.827e-05,0
4.1455,-1.7288e-05,0
4.1461,-2.5177e-06,0
4.1466,8.3925e-07,0
4.1471,-2.8534e-06,0
4.1476,-7.5532e-06,0
4.1481,-1.4603e-05,0
4.1487,-2.2156e-05,0
4.1492,-2.6352e-05,0
4.1497,-2.501e-05,0
4.1502,-1.5946e-05,0
4.1507,-8.3925e-07,0
4.1513,8.5603e-06,0
4.1518,1.2253e-05,0
4.1523,2.0813e-05,0
4.1528,3.2059e-05,0
4.1533,3.8102e-05,0
4.1538,4.0787e-05,0
4.1544,4.7166e-05,0
4.1549,5.7572e-05,0
4.1554,6.8147e-05,0
4.1559,7.5364e-05,0
4.1564,8.0064e-05,0
4.157,7.8721e-05,0
4.1575,7.1672e-05,0
4.158,6.3615e-05,0
4.1585,5.6397e-05,0
4.159,5.3376e-05,0
4.1596,5.4887e-05,0
4.1601,4.9516e-05,0
4.1606,3.7766e-05,0
4.1611,2.887e-05,0
4.1616,2.031e-05,0
4.1622,5.7069e-06,0
4.1627,-1.6617e-05,0
4.1632,-3.9445e-05,0
4.1637,-4.3473e-05,0
4.1642,-3.0381e-05,0
4.1647,-2.2324e-05,0
4.1653,-2.3331e-05,0
4.1658,-2.7024e-05,0
4.1663,-2.6688e-05,0
4.1668,-2.0981e-05,0
4.1673,-1.4603e-05,0
4.1679,-1.091e-05,0
4.1684,-1.0239e-05,0
4.1689,-1.1414e-05,0
4.1694,-1.0742e-05,0
4.1699,-6.2104e-06,0
4.1705,5.0355e-07,0
4.171,4.8676e-06,0
4.1715,7.2175e-06,0
4.172,1.8296e-05,0
4.1725,2.7192e-05,0
4.1731,2.2995e-05,0
4.1736,2.266e-05,0
4.1741,3.9612e-05,0
4.1746,5.6901e-05,0
4.1751,5.5726e-05,0
4.1757,4.3809e-05,0
4.1762,3.4409e-05,0
4.1767,3.0381e-05,0
4.1772,3.8102e-05,0
4.1777,4.6159e-05,0
4.1783,4.2802e-05,0
4.1788,3.6088e-05,0
4.1793,3.5752e-05,0
4.1798,4.1794e-05,0
4.1803,4.8005e-05,0
4.1808,4.8844e-05,0
4.1814,4.4816e-05,0
4.1819,3.9948e-05,0
4.1824,3.4073e-05,0
4.1829,3.0381e-05,0
4.1834,2.9038e-05,0
4.184,2.7024e-05,0
4.1845,2.2492e-05,0
4.185,1.8631e-05,0
4.1855,1.796e-05,0
4.186,1.5946e-05,0
4.1866,1.7121e-05,0
4.1871,2.1988e-05,0
4.1876,2.7863e-05,0
4.1881,3.3066e-05,0
4.1886,3.3234e-05,0
4.1892,2.501e-05,0
4.1897,1.8967e-05,0
4.1902,2.4842e-05,0
4.1907,3.4745e-05,0
4.1912,3.9277e-05,0
4.1917,4.2466e-05,0
4.1923,4.5823e-05,0
4.1928,4.1627e-05,0
4.1933,3.3402e-05,0
4.1938,2.8702e-05,0
4.1943,2.8702e-05,0
4.1949,2.3835e-05,0
4.1954,1.1582e-05,0
4.1959,-1.0071e-06,0
4.1964,-8.5603e-06,0
4.1969,-6.2104e-06,0
4.1975,2.8534e-06,0
4.198,7.0497e-06,0
4.1985,1.5106e-06,0
4.199,-5.539e-06,0
4.1995,-4.5319e-06,0
4.2001,1.8463e-06,0
4.2006,7.8889e-06,0
4.2011,1.1246e-05,0
4.2016,1.4939e-05,0
4.2021,1.6617e-05,0
4.2027,1.7624e-05,0
4.2032,2.1317e-05,0
4.2037,2.3667e-05,0
4.2042,2.1317e-05,0
4.2047,1.5274e-05,0
4.2053,1.3092e-05,0
4.2058,1.8631e-05,0
4.2063,2.5177e-05,0
4.2068,2.3499e-05,0
4.2073,2.501e-05,0
4.2078,3.508e-05,0
4.2084,4.8173e-05,0
4.2089,6.0594e-05,0
4.2094,6.8818e-05,0
4.2099,6.7475e-05,0
4.2104,5.9251e-05,0
4.211,5.0858e-05,0
4.2115,3.4409e-05,0
4.212,1.1749e-05,0
4.2125,3.8605e-06,0
4.213,1.1749e-06,0
4.2136,-1.7121e-05,0
4.2141,-4.4144e-05,0
4.2146,-4.5823e-05,0
4.2151,-7.0497e-06,0
4.2156,3.5416e-05,0
4.2162,4.9851e-05,0
4.2167,4.683e-05,0
4.2172,4.0116e-05,0
4.2177,3.8605e-05,0
4.2182,4.2802e-05,0
4.2188,4.4144e-05,0
4.2193,3.6423e-05,0
4.2198,2.6688e-05,0
4.2203,2.2324e-05,0
4.2208,2.0645e-05,0
4.2213,1.6281e-05,0
4.2219,5.7069e-06,0
4.2224,-2.182e-06,0
4.2229,-8.3925e-06,0
4.2234,-1.8967e-05,0
4.2239,-2.9877e-05,0
4.2245,-3.3738e-05,0
4.225,-2.4338e-05,0
4.2255,-2.8534e-06,0
4.226,1.2253e-05,0
4.2265,7.3854e-06,0
4.2271,-4.3641e-06,0
4.2276,-1.8463e-06,0
4.2281,1.5778e-05,0
4.2286,3.4577e-05,0
4.2291,4.213e-05,0
4.2297,3.4073e-05,0
4.2302,1.4435e-05,0
4.2307,-4.0284e-06,0
4.2312,-9.5674e-06,0
4.2317,-9.9031e-06,0
4.2322,-2.031e-05,0
4.2328,-2.4338e-05,0
4.2333,-1.1582e-05,0
4.2338,4.5319e-06,0
4.2343,1.7121e-05,0
4.2348,2.6184e-05,0
4.2354,2.887e-05,0
4.2359,2.8367e-05,0
4.2364,2.9206e-05,0
4.2369,3.1388e-05,0
4.2374,3.2059e-05,0
4.238,3.2059e-05,0
4.2385,3.4073e-05,0
4.239,3.6423e-05,0
4.2395,4.0116e-05,0
4.24,4.3977e-05,0
4.2406,4.5151e-05,0
4.2411,4.5151e-05,0
4.2416,4.9516e-05,0
4.2421,5.8412e-05,0
4.2426,6.5629e-05,0
4.2432,6.9322e-05,0
4.2437,7.0665e-05,0
4.2442,6.9154e-05,0
4.2447,6.7643e-05,0
4.2452,6.7643e-05,0
4.2458,6.8986e-05,0
4.2463,6.7979e-05,0
4.2468,6.0258e-05,0
4.2473,4.6159e-05,0
4.2478,3.1052e-05,0
4.2483,1.6785e-05,0
4.2489,5.2033e-06,0
4.2494,-5.0355e-06,0
4.2499,-1.6617e-05,0
4.2504,-2.7527e-05,0
4.2509,-3.4745e-05,0
4.2515,-3.6759e-05,0
4.252,-3.4241e-05,0
4.2525,-2.7024e-05,0
4.253,-1.5946e-05,0
4.2535,-7.7211e-06,0
4.2541,-4.8676e-06,0
4.2546,-3.0213e-06,0
4.2551,3.357e-06,0
4.2556,1.0239e-05,0
4.2561,1.2253e-05,0
4.2567,9.2317e-06,0
4.2572,5.2033e-06,0
4.2577,3.8605e-06,0
4.2582,7.5532e-06,0
4.2587,1.6953e-05,0
4.2592,2.8031e-05,0
4.2598,3.6927e-05,0
4.2603,4.2802e-05,0
4.2608,4.213e-05,0
4.2613,3.2563e-05,0
4.2618,2.501e-05,0
4.2624,2.7695e-05,0
4.2629,3.4409e-05,0
4.2634,3.9445e-05,0
4.2639,3.9948e-05,0
4.2644,3.6423e-05,0
4.265,3.5584e-05,0
4.2655,3.7263e-05,0
4.266,3.4409e-05,0
4.2665,1.7288e-05,0
4.267,-1.091e-05,0
4.2676,-2.0645e-05,0
4.2681,1.1749e-06,0
4.2686,2.4338e-05,0
4.2691,2.9038e-05,0
4.2696,2.4842e-05,0
4.2702,2.4506e-05,0
4.2707,2.7863e-05,0
4.2712,3.0716e-05,0
4.2717,2.8702e-05,0
4.2722,1.8967e-05,0
4.2728,7.8889e-06,0
4.2733,1.1749e-06,0
4.2738,-1.3764e-05,0
4.2743,-2.7359e-05,0
4.2748,-1.3931e-05,0
4.2753,1.5946e-05,0
4.2759,3.2563e-05,0
4.2764,2.9541e-05,0
4.2769,2.4674e-05,0
4.2774,2.8031e-05,0
4.2779,3.3066e-05,0
4.2785,3.4577e-05,0
4.279,3.4073e-05,0
4.2795,3.4745e-05,0
4.28,3.8773e-05,0
4.2805,4.448e-05,0
4.2811,5.0858e-05,0
4.2816,5.1194e-05,0
4.2821,4.8173e-05,0
4.2826,4.8173e-05,0
4.2831,5.069e-05,0
4.2837,5.6733e-05,0
4.2842,6.6468e-05,0
4.2847,7.335e-05,0
4.2852,7.57e-05,0
4.2857,7.6875e-05,0
4.2862,8.0232e-05,0
4.2868,8.3589e-05,0
4.2873,7.3518e-05,0
4.2878,4.2802e-05,0
4.2883,-3.0213e-06,0
4.2888,-5.0187e-05,0
4.2894,-7.2679e-05,0
4.2899,-5.7572e-05,0
4.2904,-4.1459e-05,0
4.2909,-5.6565e-05,0
4.2914,-6.3279e-05,0
4.292,-4.0787e-05,0
4.2925,-2.7695e-05,0
4.293,-4.3305e-05,0
4.2935,-6.009e-05,0
4.294,-5.3544e-05,0
4.2946,-4.1123e-05,0
4.2951,-3.4409e-05,0
4.2956,-9.9031e-06,0
4.2961,2.2156e-05,0
4.2966,2.887e-05,0
4.2972,1.5778e-05,0
4.2977,9.2317e-06,0
4.2982,1.7121e-05,0
4.2987,3.0716e-05,0
4.2992,3.9109e-05,0
4.2998,3.7263e-05,0
4.3003,2.9877e-05,0
4.3008,2.6688e-05,0
4.3013,2.8702e-05,0
4.3018,2.6017e-05,0
4.3023,1.9974e-05,0
4.3029,1.2253e-05,0
4.3034,4.6998e-06,0
4.3039,1.1078e-05,0
4.3044,2.6017e-05,0
4.3049,2.6688e-05,0
4.3055,2.0645e-05,0
4.306,3.0716e-05,0
4.3065,5.7237e-05,0
4.307,8.2078e-05,0
4.3075,8.7449e-05,0
4.3081,6.63e-05,0
4.3086,2.8367e-05,0
4.3091,4.0284e-06,0
4.3096,4.1962e-06,0
4.3101,1.1582e-05,0
4.3107,9.9031e-06,0
4.3112,4.8676e-06,0
4.3117,5.7069e-06,0
4.3122,1.1917e-05,0
4.3127,2.4338e-05,0
4.3133,4.0787e-05,0
4.3138,4.9012e-05,0
4.3143,4.3809e-05,0
4.3148,4.5823e-05,0
4.3153,5.8076e-05,0
4.3158,6.3951e-05,0
4.3164,6.2104e-05,0
4.3169,5.7572e-05,0
4.3174,4.8173e-05,0
4.3179,3.4577e-05,0
4.3184,2.3331e-05,0
4.319,1.4939e-05,0
4.3195,6.5461e-06,0
4.32,-2.6856e-06,0
4.3205,-1.5946e-05,0
4.321,-2.8367e-05,0
4.3216,-2.1988e-05,0
4.3221,8.3925e-07,0
4.3226,1.6281e-05,0
4.3231,1.5946e-05,0
4.3236,1.0071e-05,0
4.3242,5.539e-06,0
4.3247,-2.182e-06,0
4.3252,-1.2421e-05,0
4.3257,-1.2924e-05,0
4.3262,3.5248e-06,0
4.3267,3.2059e-05,0
4.3273,6.7979e-05,0
4.3278,9.3156e-05,0
4.3283,9.9199e-05,0
4.3288,9.3828e-05,0
4.3293,8.8289e-05,0
4.3299,8.8121e-05,0
4.3304,8.4932e-05,0
4.3309,6.5461e-05,0
4.3314,2.8534e-05,0
4.3319,-6.2104e-06,0
4.3325,-1.326e-05,0
4.333,1.6785e-07,0
4.3335,1.0575e-05,0
4.334,4.3641e-06,0
4.3345,-1.561e-05,0
4.3351,-3.0716e-05,0
4.3356,-3.508e-05,0
4.3361,-3.2563e-05,0
4.3366,-1.8967e-05,0
4.3371,2.5177e-06,0
4.3377,1.6953e-05,0
4.3382,9.0639e-06,0
4.3387,-2.031e-05,0
4.3392,-3.8941e-05,0
4.3397,-3.2563e-05,0
4.3403,-2.2324e-05,0
4.3408,-1.4435e-05,0
4.3413,-8.3925e-07,0
4.3418,8.3925e-06,0
4.3423,5.539e-06,0
4.3428,3.6927e-06,0
4.3434,1.8463e-06,0
4.3439,-6.2104e-06,0
4.3444,-1.0407e-05,0
4.3449,-3.0213e-06,0
4.3454,6.0426e-06,0
4.346,1.2757e-05,0
4.3465,1.9974e-05,0
4.347,2.5681e-05,0
4.3475,2.8031e-05,0
4.348,2.9374e-05,0
4.3486,3.1388e-05,0
4.3491,3.7095e-05,0
4.3496,4.6494e-05,0
4.3501,5.0858e-05,0
4.3506,4.8508e-05,0
4.3512,4.4648e-05,0
4.3517,4.5151e-05,0
4.3522,4.7166e-05,0
4.3527,4.7166e-05,0
4.3532,4.5823e-05,0
4.3537,4.7669e-05,0
4.3543,5.1865e-05,0
4.3548,5.0019e-05,0
4.3553,4.213e-05,0
4.3558,3.8605e-05,0
4.3563,4.2634e-05,0
4.3569,4.5487e-05,0
4.3574,4.2802e-05,0
4.3579,3.8773e-05,0
4.3584,4.0116e-05,0
4.3589,4.8173e-05,0
4.3595,5.774e-05,0
4.36,6.1601e-05,0
4.3605,5.3544e-05,0
4.361,4.3473e-05,0
4.3615,4.1459e-05,0
4.3621,3.9612e-05,0
4.3626,2.7024e-05,0
4.3631,4.5319e-06,0
4.3636,-1.4267e-05,0
4.3641,-1.326e-05,0
4.3647,9.5674e-06,0
4.3652,4.8508e-05,0
4.3657,6.7308e-05,0
4.3662,4.7166e-05,0
4.3667,1.4603e-05,0
4.3673,-4.5319e-06,0
4.3678,-8.896e-06,0
4.3683,-1.3764e-05,0
4.3688,-2.5177e-05,0
4.3693,-3.1724e-05,0
4.3698,-2.652e-05,0
4.3704,-1.4939e-05,0
4.3709,-2.182e-06,0
4.3714,9.0639e-06,0
4.3719,1.4603e-05,0
4.3724,1.5106e-05,0
4.373,8.896e-06,0
4.3735,-5.0355e-07,0
4.374,-8.3925e-07,0
4.3745,5.539e-06,0
4.375,7.0497e-06,0
4.3756,7.8889e-06,0
4.3761,1.0239e-05,0
4.3766,1.0575e-05,0
4.3771,1.1917e-05,0
4.3776,1.5274e-05,0
4.3782,2.1653e-05,0
4.3787,3.0549e-05,0
4.3792,3.2059e-05,0
4.3797,3.0045e-05,0
4.3802,3.7934e-05,0
4.3807,4.9516e-05,0
4.3813,5.4551e-05,0
4.3818,5.623e-05,0
4.3823,5.6565e-05,0
4.3828,5.9922e-05,0
4.3833,6.2608e-05,0
4.3839,5.2537e-05,0
4.3844,2.652e-05,0
4.3849,8.2246e-06,0
4.3854,1.091e-05,0
4.3859,2.2995e-05,0
4.3865,3.1388e-05,0
4.387,3.4745e-05,0
4.3875,2.4002e-05,0
4.388,-8.5603e-06,0
4.3885,-5.5558e-05,0
4.3891,-8.1071e-05,0
4.3896,-6.6972e-05,0
4.3901,-3.6591e-05,0
4.3906,-1.5946e-05,0
4.3911,-1.0575e-05,0
4.3917,-1.091e-05,0
4.3922,-1.0575e-05,0
4.3927,-2.182e-06,0
4.3932,1.3092e-05,0
4.3937,2.2492e-05,0
4.3943,2.1317e-05,0
4.3948,1.5946e-05,0
4.3953,1.4939e-05,0
4.3958,2.0478e-05,0
4.3963,2.3667e-05,0
4.3968,2.4842e-05,0
4.3974,2.7359e-05,0
4.3979,2.8534e-05,0
4.3984,2.8367e-05,0
4.3989,3.1724e-05,0
4.3994,3.743e-05,0
4.4,4.3473e-05,0
4.4005,4.8341e-05,0
4.401,5.153e-05,0
4.4015,5.153e-05,0
4.402,5.153e-05,0
4.4026,5.4887e-05,0
4.4031,4.9516e-05,0
4.4036,2.8031e-05,0
4.4041,1.4435e-05,0
4.4046,2.0981e-05,0
4.4052,3.8605e-05,0
4.4057,6.0258e-05,0
4.4062,6.9322e-05,0
4.4067,4.8844e-05,0
4.4072,1.2589e-05,0
4.4078,-7.3854e-06,0
4.4083,-1.091e-05,0
4.4088,-1.1582e-05,0
4.4093,-5.539e-06,0
4.4098,9.5674e-06,0
4.4103,2.1317e-05,0
4.4109,2.5681e-05,0
4.4114,2.6352e-05,0
4.4119,2.2995e-05,0
4.4124,1.8128e-05,0
4.4129,1.6617e-05,0
4.4135,1.1917e-05,0
4.414,-2.182e-06,0
4.4145,-4.8676e-06,0
4.415,1.4099e-05,0
4.4155,3.2059e-05,0
4.4161,3.743e-05,0
4.4166,3.6759e-05,0
4.4171,3.7934e-05,0
4.4176,4.1794e-05,0
4.4181,4.2634e-05,0
4.4187,4.0116e-05,0
4.4192,3.7766e-05,0
4.4197,3.5416e-05,0
4.4202,3.4745e-05,0
4.4207,3.5752e-05,0
4.4212,3.5752e-05,0
4.4218,3.122e-05,0
4.4223,2.3835e-05,0
4.4228,2.3163e-05,0
4.4233,2.9206e-05,0
4.4238,3.3738e-05,0
4.4244,3.9445e-05,0
4.4249,4.918e-05,0
4.4254,6.3783e-05,0
4.4259,7.6707e-05,0
4.4264,8.2078e-05,0
4.427,7.6371e-05,0
4.4275,6.4286e-05,0
4.428,4.5487e-05,0
4.4285,2.2995e-05,0
4.429,-7.2175e-06,0
4.4296,-3.4241e-05,0
4.4301,-5.0523e-05,0
4.4306,-7.5364e-05,0
4.4311,-0.00010742,0
4.4316,-0.00011363,0
4.4322,-8.3085e-05,0
4.4327,-4.9516e-05,0
4.4332,-3.8437e-05,0
4.4337,-3.5584e-05,0
4.4342,-1.5946e-05,0
4.4348,8.5603e-06,0
4.4353,1.4939e-05,0
4.4358,1.4603e-05,0
4.4363,2.0645e-05,0
4.4368,2.6688e-05,0
4.4373,2.501e-05,0
4.4379,1.9303e-05,0
4.4384,1.3931e-05,0
4.4389,1.2421e-05,0
4.4394,1.5106e-05,0
4.4399,1.9974e-05,0
4.4405,2.4674e-05,0
4.441,2.6352e-05,0
4.4415,3.0045e-05,0
4.442,3.7095e-05,0
4.4425,3.978e-05,0
4.4431,3.9277e-05,0
4.4436,3.827e-05,0
4.4441,3.8773e-05,0
4.4446,4.1123e-05,0
4.4451,4.4816e-05,0
4.4457,4.5823e-05,0
4.4462,4.6494e-05,0
4.4467,4.8844e-05,0
4.4472,5.3208e-05,0
4.4477,5.6901e-05,0
4.4482,5.7404e-05,0
4.4488,5.6901e-05,0
4.4493,5.4383e-05,0
4.4498,5.153e-05,0
4.4503,4.6494e-05,0
4.4508,4.0787e-05,0
4.4514,4.3137e-05,0
4.4519,5.4719e-05,0
4.4524,5.6901e-05,0
4.4529,4.2466e-05,0
4.4534,2.6017e-05,0
4.454,1.0575e-05,0
4.4545,-8.3925e-07,0
4.455,1.8463e-06,0
4.4555,1.0239e-05,0
4.456,1.1246e-05,0
4.4566,1.2589e-05,0
4.4571,1.2924e-05,0
4.4576,6.5461e-06,0
4.4581,5.0355e-07,0
4.4586,-6.2104e-06,0
4.4592,-1.3931e-05,0
4.4597,-1.2924e-05,0
4.4602,-4.6998e-06,0
4.4607,3.357e-07,0
4.4612,2.182e-06,0
4.4618,2.3499e-06,0
4.4623,1.8463e-06,0
4.4628,5.2033e-06,0
4.4633,1.0575e-05,0
4.4638,1.0407e-05,0
4.4643,2.182e-06,0
4.4649,-1.3764e-05,0
4.4654,-2.8031e-05,0
4.4659,-2.3499e-05,0
4.4664,-2.0142e-06,0
4.4669,1.8631e-05,0
4.4675,2.6017e-05,0
4.468,2.9038e-05,0
4.4685,3.9445e-05,0
4.469,5.539e-05,0
4.4695,6.4286e-05,0
4.4701,5.388e-05,0
4.4706,3.5248e-05,0
4.4711,2.1317e-05,0
4.4716,5.3712e-06,0
4.4721,-1.3596e-05,0
4.4727,-1.6785e-05,0
4.4732,-1.4267e-05,0
4.4737,-2.8031e-05,0
4.4742,-2.3835e-05,0
4.4747,1.3596e-05,0
4.4752,4.3809e-05,0
4.4758,4.5487e-05,0
4.4763,3.3738e-05,0
4.4768,2.8199e-05,0
4.4773,3.1724e-05,0
4.4778,3.7766e-05,0
4.4784,4.5823e-05,0
4.4789,5.4719e-05,0
4.4794,5.7908e-05,0
4.4799,5.4383e-05,0
4.4804,5.153e-05,0
4.481,4.9516e-05,0
4.4815,4.9516e-05,0
4.482,4.7501e-05,0
4.4825,4.1123e-05,0
4.483,3.6255e-05,0
4.4836,4.0116e-05,0
4.4841,4.2802e-05,0
4.4846,4.062e-05,0
4.4851,4.1794e-05,0
4.4856,4.1962e-05,0
4.4862,4.0116e-05,0
4.4867,3.978e-05,0
4.4872,3.4745e-05,0
4.4877,1.9638e-05,0
4.4882,3.5248e-06,0
4.4887,-7.5532e-06,0
4.4893,-5.0355e-06,0
4.4898,1.0407e-05,0
4.4903,1.9974e-05,0
4.4908,9.9031e-06,0
4.4913,-1.1749e-06,0
4.4919,5.2033e-06,0
4.4924,1.4771e-05,0
4.4929,1.4267e-05,0
4.4934,7.3854e-06,0
4.4939,-1.6785e-06,0
4.4945,-1.3596e-05,0
4.495,-2.8031e-05,0
4.4955,-4.4144e-05,0
4.496,-5.8076e-05,0
4.4965,-4.7669e-05,0
4.4971,0,0
4.4976,4.5487e-05,0
4.4981,5.153e-05,0
4.4986,3.1724e-05,0
4.4991,1.8631e-05,0
4.4997,1.9303e-05,0
4.5002,2.2324e-05,0
4.5007,2.5513e-05,0
4.5012,2.9709e-05,0
4.5017,3.2059e-05,0
4.5023,3.1556e-05,0
4.5028,2.5681e-05,0
4.5033,2.031e-05,0
4.5038,2.2828e-05,0
4.5043,3.1724e-05,0
4.5048,4.0116e-05,0
4.5054,4.3809e-05,0
4.5059,4.3641e-05,0
4.5064,4.5151e-05,0
4.5069,4.8173e-05,0
4.5074,4.918e-05,0
4.508,4.8844e-05,0
4.5085,4.6326e-05,0
4.509,4.448e-05,0
4.5095,4.2466e-05,0
4.51,3.743e-05,0
4.5106,3.0045e-05,0
4.5111,1.6617e-05,0
4.5116,-1.1749e-06,0
4.5121,-1.2421e-05,0
4.5126,-2.0478e-05,0
4.5132,-4.1459e-05,0
4.5137,-6.714e-05,0
4.5142,-7.4525e-05,0
4.5147,-5.3208e-05,0
4.5152,-2.1149e-05,0
4.5157,-3.1891e-06,0
4.5163,-5.0355e-07,0
4.5168,1.8463e-06,0
4.5173,5.539e-06,0
4.5178,8.5603e-06,0
4.5183,1.8967e-05,0
4.5189,3.5584e-05,0
4.5194,4.8676e-05,0
4.5199,5.4887e-05,0
4.5204,5.4047e-05,0
4.5209,4.9012e-05,0
4.5215,4.4648e-05,0
4.522,3.5752e-05,0
4.5225,2.5345e-05,0
4.523,3.0045e-05,0
4.5235,4.5991e-05,0
4.5241,5.388e-05,0
4.5246,4.4144e-05,0
4.5251,3.0381e-05,0
4.5256,2.501e-05,0
4.5261,1.9303e-05,0
4.5267,1.2924e-05,0
4.5272,1.3092e-05,0
4.5277,1.8967e-05,0
4.5282,2.5681e-05,0
4.5287,2.7695e-05,0
4.5293,2.4338e-05,0
4.5298,1.6617e-05,0
4.5303,9.5674e-06,0
4.5308,7.0497e-06,0
4.5313,7.0497e-06,0
4.5318,9.9031e-06,0
4.5324,1.4939e-05,0
4.5329,1.1246e-05,0
4.5334,-1.8463e-06,0
4.5339,-6.2104e-06,0
4.5344,5.7069e-06,0
4.535,2.0981e-05,0
4.5355,2.9206e-05,0
4.536,2.6688e-05,0
4.5365,2.0478e-05,0
4.537,2.0478e-05,0
4.5376,2.8367e-05,0
4.5381,4.062e-05,0
4.5386,5.1698e-05,0
4.5391,5.153e-05,0
4.5396,3.743e-05,0
4.5402,1.9806e-05,0
4.5407,2.0142e-06,0
4.5412,-6.2104e-06,0
4.5417,6.2104e-06,0
4.5422,2.8031e-05,0
4.5427,3.9445e-05,0
4.5433,3.9277e-05,0
4.5438,3.8773e-05,0
4.5443,4.2466e-05,0
4.5448,5.5558e-05,0
4.5453,7.2679e-05,0
4.5459,7.6371e-05,0
4.5464,7.1672e-05,0
4.5469,6.9993e-05,0
4.5474,7.0329e-05,0
4.5479,6.3783e-05,0
4.5485,5.0187e-05,0
4.549,3.2059e-05,0
4.5495,1.6617e-05,0
4.55,5.539e-06,0
4.5505,-2.8534e-06,0
4.5511,-3.1891e-06,0
4.5516,-1.6785e-06,0
4.5521,-6.8818e-06,0
4.5526,-1.5778e-05,0
4.5531,-2.1988e-05,0
4.5537,-2.6856e-05,0
4.5542,-3.3738e-05,0
4.5547,-3.8102e-05,0
4.5552,-2.9206e-05,0
4.5557,-1.0239e-05,0
4.5563,2.3499e-06,0
4.5568,4.1962e-06,0
4.5573,5.539e-06,0
4.5578,4.8676e-06,0
4.5583,-7.2175e-06,0
4.5588,-1.6449e-05,0
4.5594,-5.2033e-06,0
4.5599,1.091e-05,0
4.5604,1.1582e-05,0
4.5609,6.8818e-06,0
4.5614,3.8605e-06,0
4.562,6.3783e-06,0
4.5625,1.9303e-05,0
4.563,3.3738e-05,0
4.5635,4.0452e-05,0
4.564,3.508e-05,0
4.5646,2.8534e-05,0
4.5651,2.4002e-05,0
4.5656,2.1988e-05,0
4.5661,2.4338e-05,0
4.5666,3.0045e-05,0
4.5672,3.5416e-05,0
4.5677,3.743e-05,0
4.5682,3.5752e-05,0
4.5687,3.0716e-05,0
4.5692,2.5681e-05,0
4.5697,2.266e-05,0
4.5703,2.1988e-05,0
4.5708,2.7359e-05,0
4.5713,3.4745e-05,0
4.5718,3.8102e-05,0
4.5723,3.9612e-05,0
4.5729,4.1291e-05,0
4.5734,4.1291e-05,0
4.5739,4.1794e-05,0
4.5744,4.0116e-05,0
4.5749,3.5248e-05,0
4.5755,3.3402e-05,0
4.576,3.4745e-05,0
4.5765,3.6423e-05,0
4.577,3.9277e-05,0
4.5775,3.9109e-05,0
4.5781,3.4241e-05,0
4.5786,2.182e-05,0
4.5791,1.4267e-05,0
4.5796,2.1317e-05,0
4.5801,2.8534e-05,0
4.5807,2.4674e-05,0
4.5812,4.1962e-06,0
4.5817,-1.9974e-05,0
4.5822,-3.3066e-05,0
4.5827,-3.2227e-05,0
4.5832,-1.326e-05,0
4.5838,9.2317e-06,0
4.5843,2.266e-05,0
4.5848,2.9038e-05,0
4.5853,3.2563e-05,0
4.5858,2.9877e-05,0
4.5864,2.4338e-05,0
4.5869,2.3667e-05,0
4.5874,2.2324e-05,0
4.5879,1.9471e-05,0
4.5884,1.8967e-05,0
4.589,1.5778e-05,0
4.5895,8.2246e-06,0
4.59,7.0497e-06,0
4.5905,9.9031e-06,0
4.591,4.1962e-06,0
4.5916,1.6785e-07,0
4.5921,9.9031e-06,0
4.5926,2.6688e-05,0
4.5931,3.6088e-05,0
4.5936,2.7527e-05,0
4.5942,1.5442e-05,0
4.5947,1.7288e-05,0
4.5952,2.4842e-05,0
4.5957,2.7863e-05,0
4.5962,2.9374e-05,0
4.5968,2.9709e-05,0
4.5973,2.501e-05,0
4.5978,1.5778e-05,0
4.5983,1.3596e-05,0
4.5988,2.1317e-05,0
4.5993,2.4674e-05,0
4.5999,2.3499e-05,0
4.6004,2.7359e-05,0
4.6009,3.1052e-05,0
4.6014,3.1724e-05,0
4.6019,3.743e-05,0
4.6025,4.683e-05,0
4.603,4.4144e-05,0
4.6035,3.4745e-05,0
4.604,2.5345e-05,0
4.6045,1.3092e-05,0
4.6051,7.7211e-06,0
4.6056,8.3925e-06,0
4.6061,1.2589e-05,0
4.6066,2.2492e-05,0
4.6071,2.8702e-05,0
4.6077,2.4842e-05,0
4.6082,2.031e-05,0
4.6087,1.8128e-05,0
4.6092,1.9638e-05,0
4.6097,1.7792e-05,0
4.6102,1.2589e-05,0
4.6108,1.1414e-05,0
4.6113,1.1246e-05,0
4.6118,1.0407e-05,0
4.6123,1.8631e-05,0
4.6128,3.1724e-05,0
4.6134,3.4745e-05,0
4.6139,2.887e-05,0
4.6144,1.9806e-05,0
4.6149,1.3931e-05,0
4.6154,1.3931e-05,0
4.616,1.9806e-05,0
4.6165,2.5345e-05,0
4.617,2.6352e-05,0
4.6175,2.4842e-05,0
4.618,2.4338e-05,0
4.6186,2.7359e-05,0
4.6191,3.0716e-05,0
4.6196,3.6591e-05,0
4.6201,4.0116e-05,0
4.6206,3.7934e-05,0
4.6212,3.9445e-05,0
4.6217,4.7501e-05,0
4.6222,4.9516e-05,0
4.6227,4.448e-05,0
4.6232,3.743e-05,0
4.6238,2.6688e-05,0
4.6243,8.2246e-06,0
4.6248,-1.1582e-05,0
4.6253,-2.6017e-05,0
4.6258,-3.1388e-05,0
4.6263,-2.3163e-05,0
4.6269,-1.5946e-05,0
4.6274,-2.6017e-05,0
4.6279,-3.9445e-05,0
4.6284,-4.2634e-05,0
4.6289,-3.4073e-05,0
4.6295,-1.6281e-05,0
4.63,1.1749e-06,0
4.6305,9.0639e-06,0
4.631,9.2317e-06,0
4.6315,9.9031e-06,0
4.6321,1.5274e-05,0
4.6326,1.6617e-05,0
4.6331,1.1917e-05,0
4.6336,2.0142e-06,0
4.6341,-6.3783e-06,0
4.6347,-6.714e-07,0
4.6352,1.4603e-05,0
4.6357,2.182e-05,0
4.6362,1.8128e-05,0
4.6367,1.7792e-05,0
4.6372,2.4674e-05,0
4.6378,3.4241e-05,0
4.6383,4.2802e-05,0
4.6388,4.8844e-05,0
4.6393,5.0858e-05,0
4.6398,4.7501e-05,0
4.6404,4.1459e-05,0
4.6409,3.7095e-05,0
4.6414,4.0787e-05,0
4.6419,5.2201e-05,0
4.6424,5.7404e-05,0
4.643,4.7501e-05,0
4.6435,3.5248e-05,0
4.644,2.501e-05,0
4.6445,1.5946e-05,0
4.645,1.1246e-05,0
4.6456,1.2924e-05,0
4.6461,1.326e-05,0
4.6466,1.091e-05,0
4.6471,1.8631e-05,0
4.6476,3.4409e-05,0
4.6482,4.3641e-05,0
4.6487,4.5151e-05,0
4.6492,4.2802e-05,0
4.6497,3.4745e-05,0
4.6502,2.7863e-05,0
4.6508,3.5752e-05,0
4.6513,5.3544e-05,0
4.6518,5.7572e-05,0
4.6523,4.5991e-05,0
4.6528,3.2059e-05,0
4.6533,2.5513e-05,0
4.6539,2.5681e-05,0
4.6544,2.3667e-05,0
4.6549,2.1653e-05,0
4.6554,2.1317e-05,0
4.6559,2.031e-05,0
4.6565,2.1317e-05,0
4.657,2.6688e-05,0
4.6575,3.2059e-05,0
4.658,3.1891e-05,0
4.6585,2.5849e-05,0
4.6591,2.0645e-05,0
4.6596,1.7288e-05,0
4.6601,1.326e-05,0
4.6606,1.091e-05,0
4.6611,1.2589e-05,0
4.6617,1.8631e-05,0
4.6622,2.5177e-05,0
4.6627,2.5849e-05,0
4.6632,2.1317e-05,0
4.6637,1.5946e-05,0
4.6643,1.2924e-05,0
4.6648,8.5603e-06,0
4.6653,2.5177e-06,0
4.6658,-5.539e-06,0
4.6663,-9.9031e-06,0
4.6668,-9.2317e-06,0
4.6674,-6.5461e-06,0
4.6679,-3.1891e-06,0
4.6684,-5.0355e-07,0
4.6689,-1.8463e-06,0
4.6694,-1.1917e-05,0
4.67,-2.4002e-05,0
4.6705,-2.1653e-05,0
4.671,-7.0497e-06,0
4.6715,4.1962e-06,0
4.672,9.2317e-06,0
4.6726,1.0575e-05,0
4.6731,1.0575e-05,0
4.6736,1.796e-05,0
4.6741,3.4745e-05,0
4.6746,5.0187e-05,0
4.6752,5.623e-05,0
4.6757,5.5558e-05,0
4.6762,4.6494e-05,0
4.6767,2.9374e-05,0
4.6772,1.6281e-05,0
4.6777,2.0981e-05,0
4.6783,3.3402e-05,0
4.6788,3.7766e-05,0
4.6793,3.2059e-05,0
4.6798,2.1317e-05,0
4.6803,1.1917e-05,0
4.6809,1.091e-05,0
4.6814,1.2924e-05,0
4.6819,7.0497e-06,0
4.6824,-5.2033e-06,0
4.6829,-6.2104e-06,0
4.6835,4.3641e-06,0
4.684,1.0575e-05,0
4.6845,9.7353e-06,0
4.685,9.9031e-06,0
4.6855,1.5778e-05,0
4.6861,2.0981e-05,0
4.6866,1.6617e-05,0
4.6871,7.8889e-06,0
4.6876,6.8818e-06,0
4.6881,1.3596e-05,0
4.6887,2.3331e-05,0
4.6892,3.5752e-05,0
4.6897,4.4816e-05,0
4.6902,4.9516e-05,0
4.6907,5.1362e-05,0
4.6913,5.0523e-05,0
4.6918,4.6494e-05,0
4.6923,4.1291e-05,0
4.6928,3.9948e-05,0
4.6933,4.3305e-05,0
4.6938,4.7501e-05,0
4.6944,4.918e-05,0
4.6949,4.7837e-05,0
4.6954,4.213e-05,0
4.6959,3.2059e-05,0
4.6964,1.8463e-05,0
4.697,2.5177e-06,0
4.6975,-1.6785e-07,0
4.698,9.7353e-06,0
4.6985,1.796e-05,0
4.699,1.7792e-05,0
4.6996,1.9974e-05,0
4.7001,2.4674e-05,0
4.7006,2.652e-05,0
4.7011,3.2059e-05,0
4.7016,4.448e-05,0
4.7022,5.2201e-05,0
4.7027,4.683e-05,0
4.7032,3.1891e-05,0
4.7037,1.2589e-05,0
4.7042,-1.326e-05,0
4.7047,-3.3402e-05,0
4.7053,-3.1724e-05,0
4.7058,-1.8296e-05,0
4.7063,-1.1582e-05,0
4.7068,-1.3931e-05,0
4.7073,-1.7624e-05,0
4.7079,-1.4939e-05,0
4.7084,-8.2246e-06,0
4.7089,2.182e-06,0
4.7094,1.5946e-05,0
4.7099,2.9206e-05,0
4.7105,3.592e-05,0
4.711,3.6088e-05,0
4.7115,3.0381e-05,0
4.712,1.8967e-05,0
4.7125,1.2924e-05,0
4.7131,1.796e-05,0
4.7136,2.4674e-05,0
4.7141,2.2995e-05,0
4.7146,1.326e-05,0
4.7151,9.9031e-06,0
4.7157,2.1653e-05,0
4.7162,3.4409e-05,0
4.7167,3.7766e-05,0
4.7172,3.9109e-05,0
4.7177,4.1123e-05,0
4.7183,3.7934e-05,0
4.7188,3.2395e-05,0
4.7193,2.8702e-05,0
4.7198,2.1317e-05,0
4.7203,1.2589e-05,0
4.7208,9.2317e-06,0
4.7214,6.3783e-06,0
4.7219,1.1749e-06,0
4.7224,0,0
4.7229,6.3783e-06,0
4.7234,8.896e-06,0
4.724,1.3092e-05,0
4.7245,2.2156e-05,0
4.725,3.0045e-05,0
4.7255,3.508e-05,0
4.726,3.0716e-05,0
4.7266,2.2324e-05,0
4.7271,2.5345e-05,0
4.7276,2.8702e-05,0
4.7281,2.0645e-05,0
4.7286,1.2253e-05,0
4.7292,1.6617e-05,0
4.7297,2.8367e-05,0
4.7302,3.4409e-05,0
4.7307,3.4409e-05,0
4.7312,3.1388e-05,0
4.7317,2.7024e-05,0
4.7323,2.5681e-05,0
4.7328,2.6688e-05,0
4.7333,2.6688e-05,0
4.7338,2.5681e-05,0
4.7343,2.4002e-05,0
4.7349,2.1988e-05,0
4.7354,1.8296e-05,0
4.7359,1.3092e-05,0
4.7364,1.1917e-05,0
4.7369,1.4267e-05,0
4.7375,1.6281e-05,0
4.738,1.5946e-05,0
4.7385,1.6953e-05,0
4.739,1.9806e-05,0
4.7395,2.1317e-05,0
4.7401,2.2995e-05,0
4.7406,2.4674e-05,0
4.7411,2.8199e-05,0
4.7416,3.2059e-05,0
4.7421,3.4073e-05,0
4.7427,3.3906e-05,0
4.7432,3.4745e-05,0
4.7437,3.7095e-05,0
4.7442,3.8605e-05,0
4.7447,4.1291e-05,0
4.7453,4.6159e-05,0
4.7458,4.9348e-05,0
4.7463,4.4144e-05,0
4.7468,3.6759e-05,0
4.7473,3.357e-05,0
4.7478,2.6856e-05,0
4.7484,9.2317e-06,0
4.7489,-1.3596e-05,0
4.7494,-3.6423e-05,0
4.7499,-4.8508e-05,0
4.7504,-3.8773e-05,0
4.751,-1.6281e-05,0
4.7515,-1.5106e-06,0
4.752,-6.2104e-06,0
4.7525,-1.2253e-05,0
4.753,-8.3925e-07,0
4.7536,1.4435e-05,0
4.7541,2.1317e-05,0
4.7546,2.6017e-05,0
4.7551,2.8367e-05,0
4.7556,3.0716e-05,0
4.7562,3.4409e-05,0
4.7567,3.6423e-05,0
4.7572,3.2059e-05,0
4.7577,2.4674e-05,0
4.7582,1.8631e-05,0
4.7588,1.0239e-05,0
4.7593,8.3925e-07,0
4.7598,-1.1749e-06,0
4.7603,3.8605e-06,0
4.7608,1.1414e-05,0
4.7613,1.796e-05,0
4.7619,1.9974e-05,0
4.7624,1.9974e-05,0
4.7629,1.9638e-05,0
4.7634,2.1988e-05,0
4.7639,2.7695e-05,0
4.7645,3.4745e-05,0
4.765,3.8605e-05,0
4.7655,3.8773e-05,0
4.766,3.9948e-05,0
4.7665,4.1459e-05,0
4.7671,4.4816e-05,0
4.7676,4.9851e-05,0
4.7681,5.3376e-05,0
4.7686,5.539e-05,0
4.7691,5.5894e-05,0
4.7697,5.5558e-05,0
4.7702,5.3544e-05,0
4.7707,4.6494e-05,0
4.7712,3.8437e-05,0
4.7717,2.7863e-05,0
4.7722,6.8818e-06,0
4.7728,-7.2175e-06,0
4.7733,-6.8818e-06,0
4.7738,-6.0426e-06,0
4.7743,-1.091e-05,0
4.7748,-1.9135e-05,0
4.7754,-1.561e-05,0
4.7759,4.3641e-06,0
4.7764,1.9638e-05,0
4.7769,1.6281e-05,0
4.7774,2.5177e-06,0
4.778,-5.8747e-06,0
4.7785,-2.8534e-06,0
4.779,1.6785e-06,0
4.7795,1.8463e-06,0
4.78,-2.3499e-06,0
4.7806,-5.539e-06,0
4.7811,-7.5532e-06,0
4.7816,-6.0426e-06,0
4.7821,-8.3925e-07,0
4.7826,6.5461e-06,0
4.7832,1.9638e-05,0
4.7837,3.3402e-05,0
4.7842,3.5248e-05,0
4.7847,2.6352e-05,0
4.7852,2.0981e-05,0
4.7858,2.1988e-05,0
4.7863,2.3331e-05,0
4.7868,2.3499e-05,0
4.7873,2.501e-05,0
4.7878,2.9038e-05,0
4.7883,3.122e-05,0
4.7889,2.9374e-05,0
4.7894,3.0045e-05,0
4.7899,3.4409e-05,0
4.7904,3.7263e-05,0
4.7909,3.2731e-05,0
4.7915,2.8367e-05,0
4.792,3.0549e-05,0
4.7925,3.2563e-05,0
4.793,2.9709e-05,0
4.7935,2.4002e-05,0
4.7941,1.8631e-05,0
4.7946,7.5532e-06,0
4.7951,1.1749e-06,0
4.7956,1.1582e-05,0
4.7961,2.9038e-05,0
4.7967,3.743e-05,0
4.7972,3.3402e-05,0
4.7977,2.7192e-05,0
4.7982,2.2995e-05,0
4.7987,1.2924e-05,0
4.7992,6.5461e-06,0
4.7998,1.4603e-05,0
4.8003,3.1388e-05,0
4.8008,4.2298e-05,0
4.8013,4.5487e-05,0
4.8018,4.7837e-05,0
4.8024,4.9851e-05,0
4.8029,4.9516e-05,0
4.8034,4.6326e-05,0
4.8039,4.1627e-05,0
4.8044,3.9948e-05,0
4.805,3.6088e-05,0
4.8055,2.2324e-05,0
4.806,-5.8747e-06,0
4.8065,-1.4267e-05,0
4.807,9.5674e-06,0
4.8076,3.3066e-05,0
4.8081,3.5752e-05,0
4.8086,2.5681e-05,0
4.8091,1.4939e-05,0
4.8096,6.2104e-06,0
4.8102,-3.357e-06,0
4.8107,-1.3596e-05,0
4.8112,-2.0981e-05,0
4.8117,-1.6449e-05,0
4.8122,-9.5674e-06,0
4.8128,-1.091e-05,0
4.8133,-1.5442e-05,0
4.8138,-1.3931e-05,0
4.8143,-1.3596e-05,0
4.8148,-1.7288e-05,0
4.8153,-1.1749e-05,0
4.8159,-8.3925e-07,0
4.8164,1.3931e-05,0
4.8169,3.3738e-05,0
4.8174,4.7501e-05,0
4.8179,4.3473e-05,0
4.8185,2.4506e-05,0
4.819,5.2033e-06,0
4.8195,6.5461e-06,0
4.82,2.6017e-05,0
4.8205,3.978e-05,0
4.8211,3.9445e-05,0
4.8216,3.357e-05,0
4.8221,2.8534e-05,0
4.8226,2.5345e-05,0
4.8231,1.9638e-05,0
4.8237,1.1414e-05,0
4.8242,1.2085e-05,0
4.8247,2.0981e-05,0
4.8252,3.0716e-05,0
4.8257,3.6759e-05,0
4.8262,3.7934e-05,0
4.8268,3.743e-05,0
4.8273,3.8437e-05,0
4.8278,3.978e-05,0
4.8283,4.0955e-05,0
4.8288,4.0452e-05,0
4.8294,3.743e-05,0
4.8299,3.743e-05,0
4.8304,4.1794e-05,0
4.8309,4.4144e-05,0
4.8314,4.3137e-05,0
4.832,4.2802e-05,0
4.8325,4.683e-05,0
4.833,4.8173e-05,0
4.8335,4.7166e-05,0
4.834,4.6662e-05,0
4.8346,4.6159e-05,0
4.8351,4.7837e-05,0
4.8356,5.2873e-05,0
4.8361,5.7572e-05,0
4.8366,5.5726e-05,0
4.8372,4.9516e-05,0
4.8377,4.5487e-05,0
4.8382,4.1123e-05,0
4.8387,3.0884e-05,0
4.8392,1.5274e-05,0
4.8398,2.5177e-06,0
4.8403,-1.0071e-06,0
4.8408,-8.3925e-07,0
4.8413,-1.6785e-07,0
4.8418,1.1749e-06,0
4.8423,-4.1962e-06,0
4.8429,-1.7624e-05,0
4.8434,-3.2059e-05,0
4.8439,-4.1291e-05,0
4.8444,-4.6159e-05,0
4.8449,-5.4887e-05,0
4.8455,-6.4286e-05,0
4.846,-6.5965e-05,0
4.8465,-5.6565e-05,0
4.847,-3.9445e-05,0
4.8475,-2.031e-05,0
4.8481,-3.6927e-06,0
4.8486,8.3925e-06,0
4.8491,1.3931e-05,0
4.8496,1.5946e-05,0
4.8501,1.7624e-05,0
4.8507,1.9974e-05,0
4.8512,2.5681e-05,0
4.8517,3.1891e-05,0
4.8522,3.3906e-05,0
4.8527,3.4073e-05,0
4.8533,3.7766e-05,0
4.8538,4.448e-05,0
4.8543,4.7837e-05,0
4.8548,4.7166e-05,0
4.8553,4.5823e-05,0
4.8558,4.5823e-05,0
4.8564,4.6159e-05,0
4.8569,4.9851e-05,0
4.8574,5.5558e-05,0
4.8579,5.9586e-05,0
4.8584,5.8915e-05,0
4.859,5.8579e-05,0
4.8595,5.7572e-05,0
4.86,5.8412e-05,0
4.8605,5.8915e-05,0
4.861,5.3376e-05,0
4.8616,3.8773e-05,0
4.8621,1.3931e-05,0
4.8626,-1.1749e-06,0
4.8631,4.1962e-06,0
4.8636,1.5946e-05,0
4.8642,2.1988e-05,0
4.8647,2.6352e-05,0
4.8652,2.8702e-05,0
4.8657,2.3499e-05,0
4.8662,1.2253e-05,0
4.8667,5.539e-06,0
4.8673,-4.3641e-06,0
4.8678,-3.9445e-05,0
4.8683,-7.0161e-05,0
4.8688,-6.1265e-05,0
4.8693,-2.031e-05,0
4.8699,1.4267e-05,0
4.8704,2.1653e-05,0
4.8709,2.2324e-05,0
4.8714,2.9709e-05,0
4.8719,3.5416e-05,0
4.8725,3.2563e-05,0
4.873,2.6352e-05,0
4.8735,2.4338e-05,0
4.874,2.4674e-05,0
4.8745,2.182e-05,0
4.8751,1.9638e-05,0
4.8756,1.9135e-05,0
4.8761,1.6449e-05,0
4.8766,1.091e-05,0
4.8771,1.0575e-05,0
4.8777,1.9638e-05,0
4.8782,2.6017e-05,0
4.8787,2.501e-05,0
4.8792,2.5177e-05,0
4.8797,2.9374e-05,0
4.8803,3.5248e-05,0
4.8808,4.1291e-05,0
4.8813,4.4144e-05,0
4.8818,4.062e-05,0
4.8823,3.978e-05,0
4.8828,5.6062e-05,0
4.8834,7.5029e-05,0
4.8839,7.7714e-05,0
4.8844,6.6972e-05,0
4.8849,5.1194e-05,0
4.8854,2.8702e-05,0
4.886,7.2175e-06,0
4.8865,2.8534e-06,0
4.887,1.0575e-05,0
4.8875,7.7211e-06,0
4.888,-7.8889e-06,0
4.8886,-1.2589e-05,0
4.8891,-2.182e-06,0
4.8896,1.1078e-05,0
4.8901,1.3596e-05,0
4.8906,-2.182e-06,0
4.8912,-3.8437e-05,0
4.8917,-6.7308e-05,0
4.8922,-5.774e-05,0
4.8927,-1.9974e-05,0
4.8932,6.714e-06,0
4.8937,1.3092e-05,0
