53.45,-4.1962e-05,0
53.451,-2.0645e-05,0
53.451,-2.1149e-05,0
53.452,-3.8102e-05,0
53.452,-7.1672e-05,0
53.453,-0.0001227,0
53.453,-0.00017053,0
53.454,-0.00018631,0
53.454,-0.00016634,0
53.455,-0.00013747,0
53.455,-0.00011968,0
53.456,-9.987e-05,0
53.456,-6.5126e-05,0
53.457,-2.8367e-05,0
53.457,-5.539e-06,0
53.458,6.2104e-06,0
53.458,1.796e-05,0
53.459,3.1891e-05,0
53.459,3.6255e-05,0
53.46,2.5177e-05,0
53.461,2.182e-06,0
53.461,-2.3163e-05,0
53.462,-4.7837e-05,0
53.462,-7.4189e-05,0
53.463,-0.00010457,0
53.463,-0.00013143,0
53.464,-0.00014284,0
53.464,-0.0001368,0
53.465,-0.00011716,0
53.465,-8.5771e-05,0
53.466,-5.9922e-05,0
53.466,-4.5487e-05,0
53.467,-1.7624e-05,0
53.467,4.213e-05,0
53.468,0.000118,0
53.468,0.00017356,0
53.469,0.0001801,0
53.469,0.00014301,0
53.47,9.0974e-05,0
53.47,5.3544e-05,0
53.471,4.2802e-05,0
53.471,5.4551e-05,0
53.472,7.3686e-05,0
53.472,7.8386e-05,0
53.473,6.6972e-05,0
53.474,5.7908e-05,0
53.474,5.5558e-05,0
53.475,4.7837e-05,0
53.475,4.7333e-05,0
53.476,7.3182e-05,0
53.476,0.00011061,0
53.477,0.00013294,0
53.477,0.00013193,0
53.478,0.00011263,0
53.478,8.2078e-05,0
53.479,4.3473e-05,0
53.479,6.5461e-06,0
53.48,-5.8747e-06,0
53.48,1.6953e-05,0
53.481,4.3473e-05,0
53.481,3.9948e-05,0
53.482,4.1962e-06,0
53.482,-4.0452e-05,0
53.483,-6.4622e-05,0
53.483,-5.0858e-05,0
53.484,-9.7353e-06,0
53.484,2.3331e-05,0
53.485,3.0884e-05,0
53.485,1.9303e-05,0
53.486,5.7069e-06,0
53.486,-3.357e-07,0
53.487,8.3925e-06,0
53.488,4.213e-05,0
53.488,9.5842e-05,0
53.489,0.00013982,0
53.489,0.00015207,0
53.49,0.00013042,0
53.49,9.752e-05,0
53.491,7.9057e-05,0
53.491,7.805e-05,0
53.492,6.8986e-05,0
53.492,3.7095e-05,0
53.493,3.8605e-06,0
53.493,-1.1917e-05,0
53.494,-1.8631e-05,0
53.494,-3.0716e-05,0
53.495,-3.9445e-05,0
53.495,-3.1388e-05,0
53.496,-2.0981e-05,0
53.496,-3.6759e-05,0
53.497,-6.3447e-05,0
53.497,-5.6565e-05,0
53.498,-1.5946e-05,0
53.498,2.5177e-06,0
53.499,-2.7024e-05,0
53.499,-5.2873e-05,0
53.5,-1.3931e-05,0
53.501,6.1601e-05,0
53.501,0.00010944,0
53.502,0.00011666,0
53.502,9.836e-05,0
53.503,5.2537e-05,0
53.503,-1.3764e-05,0
53.504,-6.244e-05,0
53.504,-5.3376e-05,0
53.505,2.1988e-05,0
53.505,0.0001039,0
53.506,0.00012924,0
53.506,0.00010776,0
53.507,9.2653e-05,0
53.507,0.00010625,0
53.508,0.0001368,0
53.508,0.00017087,0
53.509,0.00019504,0
53.509,0.00018346,0
53.51,0.0001227,0
53.51,2.7024e-05,0
53.511,-7.4022e-05,0
53.511,-0.00013378,0
53.512,-0.00012136,0
53.512,-6.1601e-05,0
53.513,-1.3931e-05,0
53.513,-3.8605e-06,0
53.514,-2.1653e-05,0
53.515,-5.7908e-05,0
53.515,-6.7979e-05,0
53.516,-2.4002e-05,0
53.516,2.9374e-05,0
53.517,4.5319e-05,0
53.517,2.6688e-05,0
53.518,-1.0071e-05,0
53.518,-6.0929e-05,0
53.519,-0.00010172,0
53.519,-0.00010541,0
53.52,-7.6036e-05,0
53.52,-3.7263e-05,0
53.521,-8.5603e-06,0
53.521,2.3499e-06,0
53.522,3.8605e-06,0
53.522,1.5106e-06,0
53.523,-2.0981e-05,0
53.523,-8.2918e-05,0
53.524,-0.00015996,0
53.524,-0.00021602,0
53.525,-0.00023851,0
53.525,-0.00023633,0
53.526,-0.00022744,0
53.526,-0.00020931,0
53.527,-0.00016097,0
53.528,-7.6707e-05,0
53.528,1.4603e-05,0
53.529,8.9464e-05,0
53.529,0.00014821,0
53.53,0.00019387,0
53.53,0.00023415,0
53.531,0.00026369,0
53.531,0.00026705,0
53.532,0.00024523,0
53.532,0.00021468,0
53.533,0.00019974,0
53.533,0.00020763,0
53.534,0.00021871,0
53.534,0.00020662,0
53.535,0.00016701,0
53.535,0.000118,0
53.536,7.3686e-05,0
53.536,3.4073e-05,0
53.537,-1.4267e-05,0
53.537,-7.1839e-05,0
53.538,-0.00011162,0
53.538,-0.00011061,0
53.539,-7.5532e-05,0
53.539,-2.9541e-05,0
53.54,4.5319e-06,0
53.54,1.4939e-05,0
53.541,1.5106e-06,0
53.542,-1.4939e-05,0
53.542,-1.0407e-05,0
53.543,-1.8463e-06,0
53.543,-2.182e-05,0
53.544,-5.0858e-05,0
53.544,-5.3208e-05,0
53.545,-3.6423e-05,0
53.545,-2.4338e-05,0
53.546,-2.2324e-05,0
53.546,-1.326e-05,0
53.547,2.4002e-05,0
53.547,7.0329e-05,0
53.548,9.7353e-05,0
53.548,0.00011128,0
53.549,0.00013478,0
53.549,0.00016013,0
53.55,0.00015694,0
53.55,0.00011766,0
53.551,6.1265e-05,0
53.551,6.8818e-06,0
53.552,-2.6017e-05,0
53.552,-2.8031e-05,0
53.553,-4.5319e-06,0
53.553,4.3641e-05,0
53.554,9.5338e-05,0
53.554,0.00011246,0
53.555,8.3085e-05,0
53.556,3.1891e-05,0
53.556,-6.8818e-06,0
53.557,-1.9974e-05,0
53.557,-1.6785e-05,0
53.558,-1.0239e-05,0
53.558,-9.2317e-06,0
53.559,-8.3925e-06,0
53.559,-4.1962e-06,0
53.56,5.2033e-06,0
53.56,2.1149e-05,0
53.561,1.5778e-05,0
53.561,-3.4241e-05,0
53.562,-9.601e-05,0
53.562,-0.0001274,0
53.563,-0.00012471,0
53.563,-0.00010994,0
53.564,-0.00010172,0
53.564,-0.00012102,0
53.565,-0.00015895,0
53.565,-0.0001754,0
53.566,-0.00017053,0
53.566,-0.00017003,0
53.567,-0.00016936,0
53.567,-0.00014015,0
53.568,-6.7308e-05,0
53.569,4.3305e-05,0
53.569,0.00016466,0
53.57,0.00027091,0
53.57,0.00034594,0
53.571,0.00036809,0
53.571,0.0003221,0
53.572,0.00023549,0
53.572,0.00016634,0
53.573,0.00015862,0
53.573,0.00018296,0
53.574,0.00016701,0
53.574,8.8792e-05,0
53.575,-4.3641e-06,0
53.575,-6.1936e-05,0
53.576,-6.4958e-05,0
53.576,-3.0045e-05,0
53.577,8.7282e-06,0
53.577,3.8605e-05,0
53.578,6.1936e-05,0
53.578,7.3686e-05,0
53.579,7.2007e-05,0
53.579,7.3686e-05,0
53.58,8.1743e-05,0
53.58,8.8457e-05,0
53.581,9.0471e-05,0
53.581,8.9799e-05,0
53.582,8.0232e-05,0
53.583,6.2272e-05,0
53.583,4.7669e-05,0
53.584,3.6591e-05,0
53.584,2.5681e-05,0
53.585,1.7624e-05,0
53.585,1.2924e-05,0
53.586,-1.1749e-06,0
53.586,-3.2395e-05,0
53.587,-6.8986e-05,0
53.587,-0.00010256,0
53.588,-0.00013478,0
53.588,-0.00017037,0
53.589,-0.00020075,0
53.589,-0.0001994,0
53.59,-0.00015912,0
53.59,-0.00010759,0
53.591,-5.6565e-05,0
53.591,-1.1246e-05,0
53.592,1.7121e-05,0
53.592,2.5345e-05,0
53.593,4.2298e-05,0
53.593,9.1981e-05,0
53.594,0.00015123,0
53.594,0.00018245,0
53.595,0.00017423,0
53.596,0.00012706,0
53.596,5.9419e-05,0
53.597,1.1917e-05,0
53.597,1.0575e-05,0
53.598,3.8605e-05,0
53.598,5.7404e-05,0
53.599,5.623e-05,0
53.599,5.2537e-05,0
53.6,7.4357e-05,0
53.6,0.0001227,0
53.601,0.0001509,0
53.601,0.00013629,0
53.602,0.0001133,0
53.602,9.3828e-05,0
53.603,4.2466e-05,0
53.603,-4.3137e-05,0
53.604,-0.00011498,0
53.604,-0.00013579,0
53.605,-0.00011028,0
53.605,-7.6707e-05,0
53.606,-6.1936e-05,0
53.606,-5.4215e-05,0
53.607,-4.2466e-05,0
53.607,-4.8341e-05,0
53.608,-7.0161e-05,0
53.608,-9.0806e-05,0
53.609,-8.8624e-05,0
53.61,-4.4816e-05,0
53.61,1.8631e-05,0
53.611,5.623e-05,0
53.611,5.9419e-05,0
53.612,6.1433e-05,0
53.612,8.04e-05,0
53.613,0.00010256,0
53.613,0.00011565,0
53.614,0.0001237,0
53.614,0.00013277,0
53.615,0.00013529,0
53.615,0.00011229,0
53.616,5.3544e-05,0
53.616,-4.5487e-05,0
53.617,-0.00016315,0
53.617,-0.00025328,0
53.618,-0.00027813,0
53.618,-0.00024775,0
53.619,-0.00021468,0
53.619,-0.00020444,0
53.62,-0.00020075,0
53.62,-0.00016768,0
53.621,-9.3324e-05,0
53.621,5.539e-06,0
53.622,0.00010155,0
53.623,0.00017557,0
53.623,0.0002219,0
53.624,0.00023482,0
53.624,0.00021468,0
53.625,0.0001848,0
53.625,0.00016483,0
53.626,0.00015727,0
53.626,0.0001462,0
53.627,0.00010121,0
53.627,2.6352e-05,0
53.628,-3.9109e-05,0
53.628,-7.7379e-05,0
53.629,-9.0471e-05,0
53.629,-8.4092e-05,0
53.63,-6.865e-05,0
53.63,-4.6494e-05,0
53.631,-1.3931e-05,0
53.631,2.8199e-05,0
53.632,6.3111e-05,0
53.632,7.6371e-05,0
53.633,7.7546e-05,0
53.633,7.2679e-05,0
53.634,6.3279e-05,0
53.634,5.6565e-05,0
53.635,5.8915e-05,0
53.636,6.3279e-05,0
53.636,6.8147e-05,0
53.637,7.7043e-05,0
53.637,8.9799e-05,0
53.638,0.00010977,0
53.638,0.00013243,0
53.639,0.00015325,0
53.639,0.00016902,0
53.64,0.00017137,0
53.64,0.00014888,0
53.641,0.00010188,0
53.641,4.2802e-05,0
53.642,-1.5778e-05,0
53.642,-6.1769e-05,0
53.643,-7.5029e-05,0
53.643,-5.9922e-05,0
53.644,-4.5151e-05,0
53.644,-4.4144e-05,0
53.645,-5.539e-05,0
53.645,-7.0832e-05,0
53.646,-9.0303e-05,0
53.646,-9.9367e-05,0
53.647,-9.4499e-05,0
53.647,-9.6849e-05,0
53.648,-0.00011833,0
53.648,-0.00016214,0
53.649,-0.00021048,0
53.65,-0.00021585,0
53.65,-0.00014586,0
53.651,-2.2828e-05,0
53.651,0.00010105,0
53.652,0.00019303,0
53.652,0.0002454,0
53.653,0.00027343,0
53.653,0.0002929,0
53.654,0.0002986,0
53.654,0.00028988,0
53.655,0.00027443,0
53.655,0.00023751,0
53.656,0.00015895,0
53.656,6.7979e-05,0
53.657,6.8818e-06,0
53.657,-1.8631e-05,0
53.658,-2.501e-05,0
53.658,-2.8702e-05,0
53.659,-4.3473e-05,0
53.659,-5.2369e-05,0
53.66,-2.9374e-05,0
53.66,1.0407e-05,0
53.661,3.2731e-05,0
53.661,2.9709e-05,0
53.662,2.3163e-05,0
53.663,3.3906e-05,0
53.663,5.2201e-05,0
53.664,5.8244e-05,0
53.664,5.0523e-05,0
53.665,3.2059e-05,0
53.665,1.1749e-06,0
53.666,-4.0787e-05,0
53.666,-7.4189e-05,0
53.667,-8.51e-05,0
53.667,-8.04e-05,0
53.668,-7.1672e-05,0
53.668,-6.949e-05,0
53.669,-7.9728e-05,0
53.669,-9.4163e-05,0
53.67,-0.00010256,0
53.67,-9.5842e-05,0
53.671,-6.6636e-05,0
53.671,-1.9974e-05,0
53.672,2.5849e-05,0
53.672,5.388e-05,0
53.673,5.8579e-05,0
53.673,4.0116e-05,0
53.674,1.561e-05,0
53.674,1.0575e-05,0
53.675,3.1388e-05,0
53.675,5.3544e-05,0
53.676,4.2802e-05,0
53.677,1.5946e-05,0
53.677,1.6617e-05,0
53.678,4.3473e-05,0
53.678,6.5629e-05,0
53.679,6.8315e-05,0
53.679,5.9754e-05,0
53.68,5.3208e-05,0
53.68,4.8844e-05,0
53.681,2.8031e-05,0
53.681,-8.896e-06,0
53.682,-3.5416e-05,0
53.682,-3.7934e-05,0
53.683,-2.5177e-05,0
53.683,-6.2104e-06,0
53.684,8.3925e-06,0
53.684,2.652e-05,0
53.685,5.3544e-05,0
53.685,6.4118e-05,0
53.686,3.2731e-05,0
53.686,-1.4939e-05,0
53.687,-3.4745e-05,0
53.687,-2.182e-05,0
53.688,-3.6927e-06,0
53.688,1.3092e-05,0
53.689,3.357e-05,0
53.69,5.8915e-05,0
53.69,7.4022e-05,0
53.691,5.8915e-05,0
53.691,1.0407e-05,0
53.692,-3.978e-05,0
53.692,-5.2873e-05,0
53.693,-4.5823e-05,0
53.693,-5.0523e-05,0
53.694,-7.4189e-05,0
53.694,-0.00010625,0
53.695,-0.00012874,0
53.695,-0.00011699,0
53.696,-7.0497e-05,0
53.696,-1.1917e-05,0
53.697,2.8702e-05,0
53.697,5.3544e-05,0
53.698,6.6468e-05,0
53.698,4.9348e-05,0
53.699,1.9974e-05,0
53.699,2.8534e-05,0
53.7,6.63e-05,0
53.7,8.9799e-05,0
53.701,8.1407e-05,0
53.701,5.7237e-05,0
53.702,3.7263e-05,0
53.702,2.9374e-05,0
53.703,2.8367e-05,0
53.704,2.6017e-05,0
53.704,2.266e-05,0
53.705,2.0645e-05,0
53.705,1.0239e-05,0
53.706,-1.3931e-05,0
53.706,-4.3977e-05,0
53.707,-5.0355e-05,0
53.707,-7.8889e-06,0
53.708,6.4958e-05,0
53.708,0.0001279,0
53.709,0.00015912,0
53.709,0.0001378,0
53.71,6.9993e-05,0
53.71,7.2175e-06,0
53.711,-1.2253e-05,0
53.711,-2.6856e-06,0
53.712,7.3854e-06,0
53.712,2.4002e-05,0
53.713,6.0929e-05,0
53.713,0.00011061,0
53.714,0.00015023,0
53.714,0.0001749,0
53.715,0.00017305,0
53.715,0.00012941,0
53.716,7.6707e-05,0
53.717,5.1194e-05,0
53.717,4.3473e-05,0
53.718,2.5177e-05,0
53.718,-9.2317e-06,0
53.719,-4.3473e-05,0
53.719,-6.4118e-05,0
53.72,-7.3182e-05,0
53.72,-6.6133e-05,0
53.721,-2.7024e-05,0
53.721,4.0116e-05,0
53.722,0.00011028,0
53.722,0.00016432,0
53.723,0.00018816,0
53.723,0.0001801,0
53.724,0.00015258,0
53.724,0.00011867,0
53.725,9.2821e-05,0
53.725,7.7379e-05,0
53.726,7.0329e-05,0
53.726,6.6468e-05,0
53.727,5.0355e-05,0
53.727,1.4939e-05,0
53.728,-2.652e-05,0
53.728,-6.479e-05,0
53.729,-9.2821e-05,0
53.729,-9.7185e-05,0
53.73,-7.57e-05,0
53.731,-4.6998e-05,0
53.731,-3.1052e-05,0
53.732,-4.0955e-05,0
53.732,-7.2679e-05,0
53.733,-9.4499e-05,0
53.733,-9.9199e-05,0
53.734,-8.9296e-05,0
53.734,-5.8747e-05,0
53.735,-1.9974e-05,0
53.735,-2.3499e-06,0
53.736,-1.0239e-05,0
53.736,-2.266e-05,0
53.737,-9.7353e-06,0
53.737,3.3906e-05,0
53.738,8.0064e-05,0
53.738,0.00011263,0
53.739,0.00012471,0
53.739,0.00011296,0
53.74,8.1071e-05,0
53.74,3.0549e-05,0
53.741,-3.3906e-05,0
53.741,-8.0064e-05,0
53.742,-9.3324e-05,0
53.742,-9.5506e-05,0
53.743,-0.00011313,0
53.743,-0.00014519,0
53.744,-0.00016164,0
53.745,-0.00013495,0
53.745,-7.9057e-05,0
53.746,-3.5248e-05,0
53.746,-1.2253e-05,0
53.747,4.1962e-06,0
53.747,2.3499e-05,0
53.748,5.2033e-05,0
53.748,9.5171e-05,0
53.749,0.00013814,0
53.749,0.00016735,0
53.75,0.00019051,0
53.75,0.00021283,0
53.751,0.00021669,0
53.751,0.00018816,0
53.752,0.00014821,0
53.752,0.00012337,0
53.753,0.00011582,0
53.753,0.00011649,0
53.754,0.00013948,0
53.754,0.00018245,0
53.755,0.00021468,0
53.755,0.00021166,0
53.756,0.00016869,0
53.756,0.00010726,0
53.757,5.9586e-05,0
53.758,2.7527e-05,0
53.758,-2.0645e-05,0
53.759,-0.00011229,0
53.759,-0.00021653,0
53.76,-0.00027242,0
53.76,-0.00026705,0
53.761,-0.00024204,0
53.761,-0.00022895,0
53.762,-0.00021955,0
53.762,-0.00018379,0
53.763,-0.00011498,0
53.763,-4.2634e-05,0
53.764,5.0355e-07,0
53.764,7.3854e-06,0
53.765,-7.2175e-06,0
53.765,-2.2828e-05,0
53.766,-3.0045e-05,0
53.766,-2.2324e-05,0
53.767,1.6785e-06,0
53.767,1.5106e-05,0
53.768,1.0071e-06,0
53.768,-2.9709e-05,0
53.769,-7.2679e-05,0
53.769,-0.00012639,0
53.77,-0.00016399,0
53.77,-0.00016097,0
53.771,-0.00012522,0
53.772,-7.6036e-05,0
53.772,-1.5442e-05,0
53.773,6.1601e-05,0
53.773,0.00014083,0
53.774,0.00019286,0
53.774,0.00021468,0
53.775,0.0002271,0
53.775,0.00023868,0
53.776,0.0002464,0
53.776,0.000236,0
53.777,0.00020293,0
53.777,0.00016097,0
53.778,0.0001284,0
53.778,0.00011363,0
53.779,0.00010977,0
53.779,0.00010323,0
53.78,9.2317e-05,0
53.78,7.7043e-05,0
53.781,5.539e-05,0
53.781,3.4745e-05,0
53.782,2.2324e-05,0
53.782,5.8747e-06,0
53.783,-2.1653e-05,0
53.783,-5.153e-05,0
53.784,-7.9393e-05,0
53.785,-0.00010037,0
53.785,-0.00010658,0
53.786,-0.00010205,0
53.786,-9.6513e-05,0
53.787,-9.2485e-05,0
53.787,-8.3421e-05,0
53.788,-6.4286e-05,0
53.788,-3.9445e-05,0
53.789,-2.1988e-05,0
53.789,-8.2246e-06,0
53.79,2.4002e-05,0
53.79,7.6707e-05,0
53.791,0.0001321,0
53.791,0.00015946,0
53.792,0.00014888,0
53.792,0.00012136,0
53.793,9.4163e-05,0
53.793,6.9993e-05,0
53.794,5.0523e-05,0
53.794,3.9445e-05,0
53.795,3.6423e-05,0
53.795,3.357e-05,0
53.796,2.6352e-05,0
53.796,1.1917e-05,0
53.797,-7.5532e-06,0
53.797,-3.0045e-05,0
53.798,-5.3544e-05,0
53.799,-7.7714e-05,0
53.799,-9.9535e-05,0
53.8,-0.00011162,0
53.8,-0.00011565,0
53.801,-0.00011464,0
53.801,-9.8527e-05,0
53.802,-6.0258e-05,0
53.802,-6.3783e-06,0
53.803,5.2873e-05,0
53.803,0.0001138,0
53.804,0.00017339,0
53.804,0.00022005,0
53.805,0.00023146,0
53.805,0.00019991,0
53.806,0.00015241,0
53.806,0.00012656,0
53.807,0.00011733,0
53.807,9.1142e-05,0
53.808,4.8676e-05,0
53.808,2.9709e-05,0
53.809,5.9419e-05,0
53.809,0.00010776,0
53.81,0.00014485,0
53.81,0.00016332,0
53.811,0.00015778,0
53.812,0.00012522,0
53.812,7.0665e-05,0
53.813,3.0213e-06,0
53.813,-5.3208e-05,0
53.814,-6.8818e-05,0
53.814,-4.8173e-05,0
53.815,-2.2995e-05,0
53.815,-1.326e-05,0
53.816,-2.4002e-05,0
53.816,-6.0594e-05,0
53.817,-9.9535e-05,0
53.817,-0.00010356,0
53.818,-6.4958e-05,0
53.818,-1.561e-05,0
53.819,1.2589e-05,0
53.819,4.6998e-06,0
53.82,-2.031e-05,0
53.82,-2.7863e-05,0
53.821,-2.5177e-06,0
53.821,3.6591e-05,0
53.822,7.4022e-05,0
53.822,9.1142e-05,0
53.823,7.6036e-05,0
53.823,6.1265e-05,0
53.824,7.5029e-05,0
53.825,0.00010457,0
53.825,0.00011263,0
53.826,7.8386e-05,0
53.826,2.2492e-05,0
53.827,-1.7121e-05,0
53.827,-3.5416e-05,0
53.828,-6.479e-05,0
53.828,-0.00011666,0
53.829,-0.00016735,0
53.829,-0.00020327,0
53.83,-0.00022643,0
53.83,-0.00023717,0
53.831,-0.00023331,0
53.831,-0.00020713,0
53.832,-0.00015862,0
53.832,-0.00010944,0
53.833,-7.1336e-05,0
53.833,-4.1627e-05,0
53.834,-1.2085e-05,0
53.834,1.7792e-05,0
53.835,4.8508e-05,0
53.835,7.6707e-05,0
53.836,9.3156e-05,0
53.836,9.6513e-05,0
53.837,8.9799e-05,0
53.837,7.4022e-05,0
53.838,5.0523e-05,0
53.839,2.8031e-05,0
53.839,1.5946e-05,0
53.84,6.8818e-06,0
53.84,-8.2246e-06,0
53.841,-2.501e-05,0
53.841,-3.0045e-05,0
53.842,-1.6617e-05,0
53.842,4.3641e-06,0
53.843,2.8534e-06,0
53.843,-3.3066e-05,0
53.844,-7.0665e-05,0
53.844,-7.5868e-05,0
53.845,-4.9851e-05,0
53.845,-3.8605e-06,0
53.846,5.5726e-05,0
53.846,0.00011934,0
53.847,0.00017473,0
53.847,0.00021703,0
53.848,0.0002459,0
53.848,0.00026873,0
53.849,0.00027242,0
53.849,0.00023482,0
53.85,0.00015174,0
53.85,3.7095e-05,0
53.851,-7.1672e-05,0
53.852,-0.00013495,0
53.852,-0.00013075,0
53.853,-7.1672e-05,0
53.853,6.8818e-06,0
53.854,7.8721e-05,0
53.854,0.00013378,0
53.855,0.00018212,0
53.855,0.00024288,0
53.856,0.00032076,0
53.856,0.0003879,0
53.857,0.00041543,0
53.857,0.00039931,0
53.858,0.00033687,0
53.858,0.00023549,0
53.859,0.0001237,0
53.859,1.8631e-05,0
53.86,-6.3279e-05,0
53.86,-0.00011128,0
53.861,-0.00012975,0
53.861,-0.00012572,0
53.862,-0.00012656,0
53.862,-0.00015526,0
53.863,-0.00018346,0
53.863,-0.00018682,0
53.864,-0.00017372,0
53.864,-0.00015526,0
53.865,-0.00012706,0
53.866,-9.0974e-05,0
53.866,-6.0761e-05,0
53.867,-4.3809e-05,0
53.867,-4.2466e-05,0
53.868,-5.5726e-05,0
53.868,-7.1336e-05,0
53.869,-7.4357e-05,0
53.869,-7.0329e-05,0
53.87,-7.4022e-05,0
53.87,-8.04e-05,0
53.871,-7.9728e-05,0
53.871,-7.4861e-05,0
53.872,-7.2679e-05,0
53.872,-6.7643e-05,0
53.873,-5.9586e-05,0
53.873,-4.9851e-05,0
53.874,-3.508e-05,0
53.874,-1.796e-05,0
53.875,2.182e-06,0
53.875,2.7527e-05,0
53.876,5.2201e-05,0
53.876,7.0329e-05,0
53.877,7.9728e-05,0
53.877,7.8386e-05,0
53.878,6.6133e-05,0
53.879,5.9419e-05,0
53.879,6.2272e-05,0
53.88,5.7069e-05,0
53.88,3.3402e-05,0
53.881,-4.5319e-06,0
53.881,-4.1794e-05,0
53.882,-5.2705e-05,0
53.882,-1.796e-05,0
53.883,4.7501e-05,0
53.883,0.00010054,0
53.884,0.00012001,0
53.884,0.00011766,0
53.885,0.00012454,0
53.885,0.00015023,0
53.886,0.00016802,0
53.886,0.00015627,0
53.887,0.00012471,0
53.887,8.7785e-05,0
53.888,5.0187e-05,0
53.888,1.4939e-05,0
53.889,-4.8676e-06,0
53.889,-4.5319e-06,0
53.89,3.8605e-06,0
53.89,7.2175e-06,0
53.891,-4.1962e-06,0
53.891,-2.3163e-05,0
53.892,-3.508e-05,0
53.893,-3.9445e-05,0
53.893,-3.7263e-05,0
53.894,-2.1653e-05,0
53.894,-2.182e-06,0
53.895,-5.8747e-06,0
53.895,-3.2563e-05,0
53.896,-4.5151e-05,0
53.896,-2.3835e-05,0
53.897,1.1078e-05,0
53.897,2.1317e-05,0
53.898,5.8747e-06,0
53.898,-1.1917e-05,0
53.899,-1.2253e-05,0
53.899,4.1962e-06,0
53.9,2.9374e-05,0
53.9,7.0329e-05,0
53.901,0.00012924,0
53.901,0.00018782,0
53.902,0.00022492,0
53.902,0.0002365,0
53.903,0.00022777,0
53.903,0.00020259,0
53.904,0.00017272,0
53.904,0.00013512,0
53.905,8.1407e-05,0
53.906,4.213e-05,0
53.906,3.8437e-05,0
53.907,4.7333e-05,0
53.907,3.2731e-05,0
53.908,1.6785e-07,0
53.908,-9.2317e-06,0
53.909,1.3596e-05,0
53.909,3.1556e-05,0
53.91,1.3931e-05,0
53.91,-2.8534e-05,0
53.911,-6.5126e-05,0
53.911,-8.4092e-05,0
53.912,-0.00010222,0
53.912,-0.00012253,0
53.913,-0.00012773,0
53.913,-0.00012102,0
53.914,-0.00013109,0
53.914,-0.00016567,0
53.915,-0.00020159,0
53.915,-0.00020041,0
53.916,-0.00014888,0
53.916,-7.3686e-05,0
53.917,-1.1917e-05,0
53.917,7.3854e-06,0
53.918,-1.2924e-05,0
53.918,-2.8702e-05,0
53.919,-7.5532e-06,0
53.92,3.357e-05,0
53.92,5.6901e-05,0
53.921,4.5487e-05,0
53.921,3.1891e-05,0
53.922,3.6088e-05,0
53.922,2.9374e-05,0
53.923,-9.0639e-06,0
53.923,-5.0523e-05,0
53.924,-5.539e-05,0
53.924,-8.896e-06,0
53.925,6.3111e-05,0
53.925,0.00012874,0
53.926,0.00017641,0
53.926,0.00019773,0
53.927,0.00018178,0
53.927,0.00014183,0
53.928,8.5435e-05,0
53.928,1.9471e-05,0
53.929,-2.7359e-05,0
53.929,-3.1891e-05,0
53.93,-7.7211e-06,0
53.93,1.6617e-05,0
53.931,2.9877e-05,0
53.931,3.4073e-05,0
53.932,3.9277e-05,0
53.932,4.5487e-05,0
53.933,5.3208e-05,0
53.934,5.9251e-05,0
53.934,3.9277e-05,0
53.935,-1.7121e-05,0
53.935,-7.9728e-05,0
53.936,-0.00012219,0
53.936,-0.00013462,0
53.937,-0.00011128,0
53.937,-5.9251e-05,0
53.938,-6.8818e-06,0
53.938,3.827e-05,0
53.939,8.9128e-05,0
53.939,0.00015157,0
53.94,0.00021938,0
53.94,0.00026973,0
53.941,0.00027041,0
53.941,0.00021585,0
53.942,0.00013915,0
53.942,7.0832e-05,0
53.943,1.6617e-05,0
53.943,-2.9038e-05,0
53.944,-5.5222e-05,0
53.944,-4.7501e-05,0
53.945,-1.3596e-05,0
53.945,6.714e-07,0
53.946,-2.5849e-05,0
53.947,-4.6159e-05,0
53.947,-2.9038e-05,0
53.948,-1.3428e-06,0
53.948,-4.1962e-06,0
53.949,-3.4577e-05,0
53.949,-6.63e-05,0
53.95,-9.6849e-05,0
53.95,-0.00012119,0
53.951,-0.00011363,0
53.951,-6.9993e-05,0
53.952,-1.6953e-05,0
53.952,2.031e-05,0
53.953,3.592e-05,0
53.953,2.8367e-05,0
53.954,1.0407e-05,0
53.954,2.7359e-05,0
53.955,8.2078e-05,0
53.955,0.00014183,0
53.956,0.00019252,0
53.956,0.00022274,0
53.957,0.00023314,0
53.957,0.00023986,0
53.958,0.00024892,0
53.958,0.00024791,0
53.959,0.00022408,0
53.959,0.00019101,0
53.96,0.0001519,0
53.961,8.2918e-05,0
53.961,-1.4267e-05,0
53.962,-0.00011179,0
53.962,-0.00017221,0
53.963,-0.00017708,0
53.963,-0.00015358,0
53.964,-0.00012186,0
53.964,-7.3014e-05,0
53.965,-2.1988e-05,0
53.965,1.6785e-06,0
53.966,-2.5177e-06,0
53.966,-9.7353e-06,0
53.967,-8.2246e-06,0
53.967,-7.0497e-06,0
53.968,-1.4939e-05,0
53.968,-3.9612e-05,0
53.969,-7.335e-05,0
53.969,-0.0001039,0
53.97,-0.00013629,0
53.97,-0.00016886,0
53.971,-0.00018396,0
53.971,-0.00017121,0
53.972,-0.00014234,0
53.972,-0.00010826,0
53.973,-8.3421e-05,0
53.974,-8.3421e-05,0
53.974,-9.5506e-05,0
53.975,-0.00010188,0
53.975,-0.00011431,0
53.976,-0.00013394,0
53.976,-0.00013747,0
53.977,-0.00011498,0
53.977,-9.0471e-05,0
53.978,-8.0735e-05,0
53.978,-5.6901e-05,0
53.979,1.0239e-05,0
53.979,9.987e-05,0
53.98,0.00019319,0
53.98,0.00028132,0
53.981,0.00035097,0
53.981,0.00039159,0
53.982,0.00039898,0
53.982,0.00038488,0
53.983,0.0003644,0
53.983,0.00033486,0
53.984,0.00028988,0
53.984,0.00023566,0
53.985,0.0001754,0
53.985,0.00010558,0
53.986,3.2059e-05,0
53.986,-2.9877e-05,0
53.987,-6.7308e-05,0
53.988,-7.3518e-05,0
53.988,-6.1936e-05,0
53.989,-5.4047e-05,0
53.989,-5.4047e-05,0
53.99,-6.4118e-05,0
53.99,-8.2414e-05,0
53.991,-0.00010205,0
53.991,-0.00011968,0
53.992,-0.00013495,0
53.992,-0.00014737,0
53.993,-0.00016147,0
53.993,-0.00019689,0
53.994,-0.00025631,0
53.994,-0.00030985,0
53.995,-0.00031505,0
53.995,-0.00025949,0
53.996,-0.00016533,0
53.996,-5.0858e-05,0
53.997,6.244e-05,0
53.997,0.00015224,0
53.998,0.00021401,0
53.998,0.00027091,0
53.999,0.00034359,0
53.999,0.00042919,0
54,0.00049784,0
54.001,0.00050808,0
54.001,0.000449,0
54.002,0.00034762,0
54.002,0.00023935,0
54.003,0.00014485,0
54.003,6.63e-05,0
54.004,1.5946e-05,0
54.004,7.8889e-06,0
54.005,2.0478e-05,0
54.005,1.9303e-05,0
54.006,2.3499e-06,0
54.006,-1.091e-05,0
54.007,-1.1246e-05,0
54.007,-9.3996e-06,0
54.008,-1.2589e-05,0
54.008,-1.7792e-05,0
54.009,-1.8631e-05,0
54.009,-1.2253e-05,0
54.01,-1.1749e-05,0
54.01,-3.978e-05,0
54.011,-9.0135e-05,0
54.011,-0.0001284,0
54.012,-0.00014049,0
54.012,-0.00013243,0
54.013,-0.00011112,0
54.014,-7.8553e-05,0
54.014,-4.1794e-05,0
54.015,-1.5106e-05,0
54.015,-2.182e-06,0
54.016,1.0407e-05,0
54.016,2.5345e-05,0
54.017,1.4603e-05,0
54.017,-3.4409e-05,0
54.018,-0.00010524,0
54.018,-0.00017339,0
54.019,-0.00021619,0
54.019,-0.00021871,0
54.02,-0.00018547,0
54.02,-0.00012673,0
54.021,-6.009e-05,0
54.021,2.8534e-06,0
54.022,5.2033e-05,0
54.022,7.805e-05,0
54.023,8.275e-05,0
54.023,8.04e-05,0
54.024,8.5771e-05,0
54.024,9.4499e-05,0
54.025,9.2988e-05,0
54.025,6.7979e-05,0
54.026,2.3667e-05,0
54.026,-1.1917e-05,0
54.027,-1.3428e-05,0
54.028,1.5946e-05,0
54.028,4.1962e-05,0
54.029,4.2802e-05,0
54.029,2.9206e-05,0
54.03,1.561e-05,0
54.03,1.5106e-06,0
54.031,-3.3402e-05,0
54.031,-7.5029e-05,0
54.032,-8.2246e-05,0
54.032,-5.304e-05,0
54.033,-2.8031e-05,0
54.033,-2.1149e-05,0
54.034,-8.5603e-06,0
54.034,2.3331e-05,0
54.035,7.5029e-05,0
54.035,0.00014318,0
54.036,0.00021065,0
54.036,0.00025664,0
54.037,0.00026537,0
54.037,0.00023264,0
54.038,0.00017842,0
54.038,0.00012874,0
54.039,8.5603e-05,0
54.039,3.9948e-05,0
54.04,3.5248e-06,0
54.041,-4.1962e-06,0
54.041,1.2085e-05,0
54.042,2.652e-05,0
54.042,2.2492e-05,0
54.043,4.0284e-06,0
54.043,-2.266e-05,0
54.044,-5.4383e-05,0
54.044,-7.5196e-05,0
54.045,-8.4428e-05,0
54.045,-9.836e-05,0
54.046,-0.00011531,0
54.046,-0.00011917,0
54.047,-0.00011884,0
54.047,-0.0001227,0
54.048,-0.00011699,0
54.048,-9.3156e-05,0
54.049,-5.153e-05,0
54.049,-5.539e-06,0
54.05,1.8631e-05,0
54.05,1.9135e-05,0
54.051,9.7353e-06,0
54.051,1.3092e-05,0
54.052,5.623e-05,0
54.052,0.00014083,0
54.053,0.00023583,0
54.053,0.00029726,0
54.054,0.00030599,0
54.055,0.00028417,0
54.055,0.00026638,0
54.056,0.00026705,0
54.056,0.00026503,0
54.057,0.00024221,0
54.057,0.00018715,0
54.058,0.00010054,0
54.058,2.182e-06,0
54.059,-7.2007e-05,0
54.059,-0.00010524,0
54.06,-0.00010591,0
54.06,-9.752e-05,0
54.061,-8.6275e-05,0
54.061,-6.4622e-05,0
54.062,-3.4073e-05,0
54.062,-2.7863e-05,0
54.063,-6.7979e-05,0
54.063,-0.00011716,0
54.064,-0.00012001,0
54.064,-6.9993e-05,0
54.065,-7.2175e-06,0
54.065,2.031e-05,0
54.066,1.9135e-05,0
54.066,3.2731e-05,0
54.067,6.8147e-05,0
54.068,9.0471e-05,0
54.068,7.1504e-05,0
54.069,2.1988e-05,0
54.069,-1.561e-05,0
54.07,-3.7766e-05,0
54.07,-5.5558e-05,0
54.071,-5.9586e-05,0
54.071,-4.0452e-05,0
54.072,-1.4939e-05,0
54.072,-8.3925e-06,0
54.073,-1.4267e-05,0
54.073,-1.4435e-05,0
54.074,-1.8967e-05,0
54.074,-4.0284e-05,0
54.075,-6.3615e-05,0
54.075,-6.9993e-05,0
54.076,-6.0258e-05,0
54.076,-4.8676e-05,0
54.077,-3.8773e-05,0
54.077,-2.9374e-05,0
54.078,-1.8967e-05,0
54.078,-7.0497e-06,0
54.079,1.4603e-05,0
54.079,4.7837e-05,0
54.08,8.1071e-05,0
54.08,0.00010088,0
54.081,9.8527e-05,0
54.082,7.2343e-05,0
54.082,3.122e-05,0
54.083,-6.2104e-06,0
54.083,-1.7288e-05,0
54.084,7.2175e-06,0
54.084,4.683e-05,0
54.085,6.8986e-05,0
54.085,6.0929e-05,0
54.086,3.4745e-05,0
54.086,9.5674e-06,0
54.087,-7.5532e-06,0
54.087,-1.6281e-05,0
54.088,-1.6617e-05,0
54.088,-7.2175e-06,0
54.089,-1.8463e-06,0
54.089,-6.0426e-06,0
54.09,-5.7069e-06,0
54.09,6.3783e-06,0
54.091,1.5946e-05,0
54.091,9.0639e-06,0
54.092,-1.0575e-05,0
54.092,-2.031e-05,0
54.093,-3.6927e-06,0
54.093,1.2589e-05,0
54.094,-5.539e-06,0
54.094,-4.1123e-05,0
54.095,-5.3376e-05,0
54.096,-5.1194e-05,0
54.096,-8.0903e-05,0
54.097,-0.00012136,0
54.097,-9.0806e-05,0
54.098,2.2324e-05,0
54.098,0.00014452,0
54.099,0.0002271,0
54.099,0.00028215,0
54.1,0.00032781,0
54.1,0.00034057,0
54.101,0.00029256,0
54.101,0.00019454,0
54.102,0.00010155,0
54.102,5.0858e-05,0
54.103,1.6617e-05,0
54.103,-3.6423e-05,0
54.104,-0.0001091,0
54.104,-0.00016197,0
54.105,-0.0001608,0
54.105,-0.00012773,0
54.106,-0.00011128,0
54.106,-0.00011917,0
54.107,-0.00010843,0
54.107,-5.2537e-05,0
54.108,3.0884e-05,0
54.109,0.00010054,0
54.109,0.00013445,0
54.11,0.00012908,0
54.11,9.9031e-05,0
54.111,6.244e-05,0
54.111,4.2298e-05,0
54.112,5.7069e-05,0
54.112,9.3492e-05,0
54.113,0.00011901,0
54.113,0.00012236,0
54.114,0.00010826,0
54.114,7.4357e-05,0
54.115,2.1988e-05,0
54.115,-4.3305e-05,0
54.116,-0.00010289,0
54.116,-0.00012605,0
54.117,-0.00012136,0
54.117,-0.00011431,0
54.118,-0.00011044,0
54.118,-9.8192e-05,0
54.119,-6.8315e-05,0
54.119,-2.5345e-05,0
54.12,2.2995e-05,0
54.12,8.3757e-05,0
54.121,0.00015962,0
54.121,0.00019789,0
54.122,0.00016835,0
54.123,0.00010574,0
54.123,4.8676e-05,0
54.124,1.1749e-05,0
54.124,-7.7211e-06,0
54.125,-1.8296e-05,0
54.125,-2.7695e-05,0
54.126,-3.2731e-05,0
54.126,-2.266e-05,0
54.127,9.7353e-06,0
54.127,6.5461e-05,0
54.128,0.00012706,0
54.128,0.00016466,0
54.129,0.00015123,0
54.129,9.836e-05,0
54.13,4.7837e-05,0
54.13,2.7863e-05,0
54.131,3.4409e-05,0
54.131,4.9851e-05,0
54.132,6.009e-05,0
54.132,5.539e-05,0
54.133,3.6759e-05,0
54.133,1.3428e-05,0
54.134,-1.1582e-05,0
54.134,-3.122e-05,0
54.135,-3.4745e-05,0
54.136,-2.5849e-05,0
54.136,-3.8773e-05,0
54.137,-9.6513e-05,0
54.137,-0.00015811,0
54.138,-0.00017557,0
54.138,-0.00013982,0
54.139,-7.1504e-05,0
54.139,3.1891e-06,0
54.14,5.8915e-05,0
54.14,8.6107e-05,0
54.141,0.00010239,0
54.141,0.00012337,0
54.142,0.0001556,0
54.142,0.00019571,0
54.143,0.00020259,0
54.143,0.0001462,0
54.144,3.5416e-05,0
54.144,-8.2414e-05,0
54.145,-0.00014922,0
54.145,-0.00016449,0
54.146,-0.00017977,0
54.146,-0.00020008,0
54.147,-0.00017154,0
54.147,-7.5532e-05,0
54.148,4.1123e-05,0
54.148,0.00012555,0
54.149,0.00016667,0
54.15,0.00019454,0
54.15,0.00022123,0
54.151,0.0002083,0
54.151,0.00014166,0
54.152,6.6972e-05,0
54.152,2.501e-05,0
54.153,6.3783e-06,0
54.153,-1.7624e-05,0
54.154,-4.1291e-05,0
54.154,-3.6591e-05,0
54.155,-8.7282e-06,0
54.155,1.3596e-05,0
54.156,1.7121e-05,0
54.156,1.5274e-05,0
54.157,1.0575e-05,0
54.157,-1.3764e-05,0
54.158,-5.0187e-05,0
54.158,-6.9657e-05,0
54.159,-5.6062e-05,0
54.159,-2.7695e-05,0
54.16,-1.6953e-05,0
54.16,-4.0787e-05,0
54.161,-9.2821e-05,0
54.161,-0.00014485,0
54.162,-0.00015912,0
54.163,-0.0001331,0
54.163,-8.8624e-05,0
54.164,-3.8773e-05,0
54.164,1.8296e-05,0
54.165,8.1071e-05,0
54.165,0.00013143,0
54.166,0.00015123,0
54.166,0.00014586,0
54.167,0.00013243,0
54.167,0.0001227,0
54.168,0.00011867,0
54.168,0.00011196,0
54.169,9.1646e-05,0
54.169,5.774e-05,0
54.17,1.9471e-05,0
54.17,-5.0355e-06,0
54.171,-1.091e-05,0
54.171,-1.4267e-05,0
54.172,-2.8367e-05,0
54.172,-4.9851e-05,0
54.173,-6.1936e-05,0
54.173,-5.9083e-05,0
54.174,-5.2537e-05,0
54.174,-6.5629e-05,0
54.175,-9.7353e-05,0
54.175,-0.00010306,0
54.176,-5.5055e-05,0
54.177,2.0981e-05,0
54.177,8.7785e-05,0
54.178,0.00014049,0
54.178,0.00020293,0
54.179,0.0002751,0
54.179,0.0003268,0
54.18,0.00034459,0
54.18,0.00033016,0
54.181,0.00027846,0
54.181,0.00019387,0
54.182,9.9702e-05,0
54.182,2.9709e-05,0
54.183,-1.1749e-06,0
54.183,-8.2246e-06,0
54.184,-6.714e-06,0
54.184,1.4603e-05,0
54.185,4.9348e-05,0
54.185,6.7979e-05,0
54.186,5.623e-05,0
54.186,2.7863e-05,0
54.187,-6.714e-07,0
54.187,-2.652e-05,0
54.188,-6.1433e-05,0
54.188,-0.00010726,0
54.189,-0.00013696,0
54.19,-0.00012085,0
54.19,-7.3518e-05,0
54.191,-4.7501e-05,0
54.191,-4.9683e-05,0
54.192,-5.1865e-05,0
54.192,-4.7837e-05,0
54.193,-3.8437e-05,0
54.193,-2.3835e-05,0
54.194,-7.2175e-06,0
54.194,1.0742e-05,0
54.195,1.4267e-05,0
54.195,-8.896e-06,0
54.196,-4.1794e-05,0
54.196,-5.5894e-05,0
54.197,-4.918e-05,0
54.197,-3.8437e-05,0
54.198,-3.2395e-05,0
54.198,-4.448e-05,0
54.199,-9.1814e-05,0
54.199,-0.00015526,0
54.2,-0.00016432,0
54.2,-9.0135e-05,0
54.201,1.4267e-05,0
54.201,6.7643e-05,0
54.202,5.4047e-05,0
54.203,3.5584e-05,0
54.203,6.3279e-05,0
54.204,0.0001133,0
54.204,0.00013814,0
54.205,0.00013109,0
54.205,0.00010726,0
54.206,7.1336e-05,0
54.206,3.2731e-05,0
54.207,-4.1962e-06,0
54.207,-3.6088e-05,0
54.208,-5.7237e-05,0
54.208,-6.2104e-05,0
54.209,-4.8508e-05,0
54.209,-3.0045e-05,0
54.21,-2.3667e-05,0
54.21,-3.5752e-05,0
54.211,-6.3447e-05,0
54.211,-0.00010272,0
54.212,-0.00013646,0
54.212,-0.00013982,0
54.213,-0.00011095,0
54.213,-7.1504e-05,0
54.214,-3.6423e-05,0
54.214,-8.2246e-06,0
54.215,2.2324e-05,0
54.215,6.8147e-05,0
54.216,0.00012404,0
54.217,0.00017641,0
54.217,0.00020897,0
54.218,0.00021367,0
54.218,0.00018732,0
54.219,0.00013143,0
54.219,5.7572e-05,0
54.22,-1.8463e-06,0
54.22,-2.7359e-05,0
54.221,-3.1891e-05,0
54.221,-3.4577e-05,0
54.222,-2.9709e-05,0
54.222,-3.1891e-05,0
54.223,-4.6662e-05,0
54.223,-3.6088e-05,0
54.224,2.5345e-05,0
54.224,0.00011531,0
54.225,0.00019857,0
54.225,0.00026151,0
54.226,0.00031136,0
54.226,0.00034359,0
54.227,0.00034443,0
54.227,0.00030767,0
54.228,0.00024691,0
54.228,0.00019588,0
54.229,0.00017171,0
54.23,0.00016265,0
54.23,0.00014418,0
54.231,0.00010423,0
54.231,5.539e-05,0
54.232,2.1988e-05,0
54.232,8.5603e-06,0
54.233,-4.1962e-06,0
54.233,-3.0045e-05,0
54.234,-6.3783e-05,0
54.234,-9.366e-05,0
54.235,-0.00011447,0
54.235,-0.00013411,0
54.236,-0.0001754,0
54.236,-0.00022542,0
54.237,-0.00024858,0
54.237,-0.00023079,0
54.238,-0.00019051,0
54.238,-0.00014754,0
54.239,-0.00011246,0
54.239,-7.9896e-05,0
54.24,-4.1627e-05,0
54.24,-3.5248e-06,0
54.241,2.7359e-05,0
54.241,5.623e-05,0
54.242,8.8457e-05,0
54.242,0.00012035,0
54.243,0.00014318,0
54.244,0.00015459,0
54.244,0.0001613,0
54.245,0.00016197,0
54.245,0.00014267,0
54.246,0.00010121,0
54.246,4.8005e-05,0
54.247,-3.357e-07,0
54.247,-2.8031e-05,0
54.248,-3.508e-05,0
54.248,-3.2395e-05,0
54.249,-3.0045e-05,0
54.249,-3.5752e-05,0
54.25,-4.3137e-05,0
54.25,-4.3137e-05,0
54.251,-3.5752e-05,0
54.251,-2.266e-05,0
54.252,-6.0426e-06,0
54.252,1.2924e-05,0
54.253,2.9206e-05,0
54.253,3.6423e-05,0
54.254,3.4409e-05,0
54.254,2.0645e-05,0
54.255,1.3596e-05,0
54.255,2.7527e-05,0
54.256,4.6159e-05,0
54.257,4.5319e-05,0
54.257,1.4939e-05,0
54.258,-3.3738e-05,0
54.258,-7.4861e-05,0
54.259,-9.0974e-05,0
54.259,-8.5267e-05,0
54.26,-7.0665e-05,0
54.26,-5.7572e-05,0
54.261,-4.8508e-05,0
54.261,-4.7501e-05,0
54.262,-6.1936e-05,0
54.262,-0.0001044,0
54.263,-0.00014368,0
54.263,-0.00013848,0
54.264,-8.8457e-05,0
54.264,-2.3163e-05,0
54.265,2.9038e-05,0
54.265,6.1936e-05,0
54.266,8.6275e-05,0
54.266,0.00010306,0
54.267,0.00010591,0
54.267,9.3828e-05,0
54.268,7.1672e-05,0
54.268,4.4144e-05,0
54.269,-3.1891e-06,0
54.269,-7.1e-05,0
54.27,-0.00012421,0
54.271,-0.00014586,0
54.271,-0.00013478,0
54.272,-0.00010256,0
54.272,-6.7979e-05,0
54.273,-2.4002e-05,0
54.273,4.0284e-05,0
54.274,0.00011196,0
54.274,0.00018044,0
54.275,0.00024875,0
54.275,0.00030129,0
54.276,0.00031035,0
54.276,0.00026973,0
54.277,0.00019857,0
54.277,0.00011867,0
54.278,5.0187e-05,0
54.278,7.3854e-06,0
54.279,-6.8818e-06,0
54.279,-4.3641e-06,0
54.28,-4.1962e-06,0
54.28,-1.561e-05,0
54.281,-4.2466e-05,0
54.281,-7.6036e-05,0
54.282,-9.2821e-05,0
54.282,-8.7785e-05,0
54.283,-7.4525e-05,0
54.283,-6.0594e-05,0
54.284,-4.8005e-05,0
54.285,-2.652e-05,0
54.285,1.5274e-05,0
54.286,6.4286e-05,0
54.286,0.00010037,0
54.287,0.0001237,0
54.287,0.00014334,0
54.288,0.00016063,0
54.288,0.00016768,0
54.289,0.00015593,0
54.289,0.00012706,0
54.29,9.3828e-05,0
54.29,8.2078e-05,0
54.291,8.7449e-05,0
54.291,7.9728e-05,0
54.292,5.7908e-05,0
54.292,3.4745e-05,0
54.293,9.2317e-06,0
54.293,-2.2995e-05,0
54.294,-6.5293e-05,0
54.294,-0.00011934,0
54.295,-0.00016751,0
54.295,-0.00018799,0
54.296,-0.00017188,0
54.296,-0.00012152,0
54.297,-4.2802e-05,0
54.298,4.1962e-05,0
54.298,0.00011531,0
54.299,0.00018346,0
54.299,0.0002553,0
54.3,0.00032076,0
54.3,0.00035433,0
54.301,0.00033553,0
54.301,0.00027225,0
54.302,0.00019252,0
54.302,0.00012773,0
54.303,8.5603e-05,0
54.303,4.5823e-05,0
54.304,-2.3499e-06,0
54.304,-5.1194e-05,0
54.305,-8.6442e-05,0
54.305,-9.4499e-05,0
54.306,-8.7953e-05,0
54.306,-7.805e-05,0
54.307,-7.6204e-05,0
54.307,-8.1407e-05,0
54.308,-7.8218e-05,0
54.308,-6.2272e-05,0
54.309,-4.8508e-05,0
54.309,-5.1865e-05,0
54.31,-8.0232e-05,0
54.31,-0.00012136,0
54.311,-0.00013898,0
54.312,-0.00011078,0
54.312,-6.0258e-05,0
54.313,-2.7024e-05,0
54.313,-2.9877e-05,0
54.314,-5.8076e-05,0
54.314,-8.426e-05,0
54.315,-9.1478e-05,0
54.315,-8.1071e-05,0
54.316,-5.5222e-05,0
54.316,-2.7695e-05,0
54.317,-1.5274e-05,0
54.317,-1.5274e-05,0
54.318,-8.896e-06,0
54.318,8.896e-06,0
54.319,3.3066e-05,0
54.319,6.2943e-05,0
54.32,9.7185e-05,0
54.32,0.00012387,0
54.321,0.00013277,0
54.321,0.00013008,0
54.322,0.00012807,0
54.322,0.000118,0
54.323,9.2988e-05,0
54.323,5.8244e-05,0
54.324,2.4002e-05,0
54.325,0,0
54.325,-1.2253e-05,0
54.326,-1.6281e-05,0
54.326,-2.1317e-05,0
54.327,-4.7333e-05,0
54.327,-9.4667e-05,0
54.328,-0.00011968,0
54.328,-0.00010222,0
54.329,-7.4022e-05,0
54.329,-6.3951e-05,0
54.33,-6.865e-05,0
54.33,-6.8986e-05,0
54.331,-5.4887e-05,0
54.331,-3.0045e-05,0
54.332,-1.5106e-06,0
54.332,2.2156e-05,0
54.333,4.1459e-05,0
54.333,5.8244e-05,0
54.334,6.9657e-05,0
54.334,5.7404e-05,0
54.335,3.508e-05,0
54.335,4.2802e-05,0
54.336,8.7114e-05,0
54.336,0.00013411,0
54.337,0.00014083,0
54.337,0.00010843,0
54.338,6.9657e-05,0
54.339,3.4409e-05,0
54.339,-1.3764e-05,0
54.34,-7.3686e-05,0
54.34,-0.00011128,0
54.341,-9.9031e-05,0
54.341,-4.6494e-05,0
54.342,8.896e-06,0
54.342,4.4144e-05,0
54.343,7.6036e-05,0
54.343,0.00011833,0
54.344,0.00015459,0
54.344,0.00017876,0
54.345,0.00019907,0
54.345,0.00020645,0
54.346,0.0001937,0
54.346,0.00016399,0
54.347,0.0001232,0
54.347,8.2078e-05,0
54.348,5.6901e-05,0
54.348,5.0858e-05,0
54.349,5.6565e-05,0
54.349,6.63e-05,0
54.35,7.6875e-05,0
54.35,8.0903e-05,0
54.351,7.1e-05,0
54.352,4.5487e-05,0
54.352,4.5319e-06,0
54.353,-4.062e-05,0
54.353,-8.1071e-05,0
54.354,-0.0001133,0
54.354,-0.00013008,0
54.355,-0.0001138,0
54.355,-6.3279e-05,0
54.356,-8.2246e-06,0
54.356,1.6281e-05,0
54.357,1.5778e-05,0
54.357,1.6449e-05,0
54.358,3.2731e-05,0
54.358,4.6494e-05,0
54.359,3.508e-05,0
54.359,-2.182e-06,0
54.36,-4.6494e-05,0
54.36,-7.3182e-05,0
54.361,-8.3589e-05,0
54.361,-0.00010239,0
54.362,-0.00012605,0
54.362,-0.00013126,0
54.363,-0.00011112,0
54.363,-7.9896e-05,0
54.364,-4.9516e-05,0
54.364,-1.9303e-05,0
54.365,2.1317e-05,0
54.366,7.8386e-05,0
54.366,0.00013764,0
54.367,0.00017171,0
54.367,0.0001744,0
54.368,0.00016533,0
54.368,0.0001556,0
54.369,0.00013411,0
54.369,9.5842e-05,0
54.37,5.2705e-05,0
54.37,1.9638e-05,0
54.371,-4.1962e-06,0
54.371,-1.9974e-05,0
54.372,-2.501e-05,0
54.372,-2.4338e-05,0
54.373,-2.887e-05,0
54.373,-3.8437e-05,0
54.374,-4.1794e-05,0
54.374,-2.6352e-05,0
54.375,3.357e-07,0
54.375,1.8631e-05,0
54.376,2.7192e-05,0
54.376,3.2395e-05,0
54.377,4.7501e-05,0
54.377,8.1743e-05,0
54.378,0.00012203,0
54.379,0.00015459,0
54.379,0.00017037,0
54.38,0.0001509,0
54.38,0.00010709,0
54.381,6.8986e-05,0
54.381,4.9012e-05,0
54.382,4.0116e-05,0
54.382,2.8367e-05,0
54.383,-8.3925e-07,0
54.383,-4.0116e-05,0
54.384,-6.9993e-05,0
54.384,-9.0806e-05,0
54.385,-0.00010692,0
54.385,-0.00010759,0
54.386,-9.5338e-05,0
54.386,-7.6707e-05,0
54.387,-7.1168e-05,0
54.387,-8.5435e-05,0
54.388,-9.6849e-05,0
54.388,-7.7546e-05,0
54.389,-2.4002e-05,0
54.389,3.8773e-05,0
54.39,8.4092e-05,0
54.39,9.8527e-05,0
54.391,8.4428e-05,0
54.392,7.7379e-05,0
54.392,0.00010658,0
54.393,0.00015274,0
54.393,0.00017876,0
54.394,0.00015929,0
54.394,8.9799e-05,0
54.395,-1.8463e-06,0
54.395,-7.5029e-05,0
54.396,-0.00011867,0
54.396,-0.00014452,0
54.397,-0.00015459,0
54.397,-0.00013193,0
54.398,-7.4861e-05,0
54.398,3.5248e-06,0
54.399,8.0064e-05,0
54.399,0.00012001,0
54.4,0.00011968,0
54.4,0.00010994,0
54.401,9.9702e-05,0
54.401,8.1407e-05,0
54.402,6.63e-05,0
54.402,6.0258e-05,0
54.403,5.153e-05,0
54.403,3.4745e-05,0
54.404,1.1917e-05,0
54.404,-1.561e-05,0
54.405,-4.1123e-05,0
54.406,-5.6062e-05,0
54.406,-6.1265e-05,0
54.407,-6.5629e-05,0
54.407,-7.1336e-05,0
54.408,-7.4022e-05,0
54.408,-6.949e-05,0
54.409,-4.6326e-05,0
54.409,-5.8747e-06,0
54.41,3.1052e-05,0
54.41,4.8173e-05,0
54.411,3.8773e-05,0
54.411,1.7624e-05,0
54.412,7.2175e-06,0
54.412,1.3596e-05,0
54.413,1.9806e-05,0
54.413,2.0645e-05,0
54.414,3.2059e-05,0
54.414,5.8579e-05,0
54.415,8.9632e-05,0
54.415,0.00010726,0
54.416,0.00010172,0
54.416,8.1743e-05,0
54.417,5.0858e-05,0
54.417,1.1414e-05,0
54.418,-1.9135e-05,0
54.419,-2.8534e-05,0
54.419,-2.4002e-05,0
54.42,-2.3331e-05,0
54.42,-2.6352e-05,0
54.421,-1.3596e-05,0
54.421,2.266e-05,0
54.422,6.3951e-05,0
54.422,9.2821e-05,0
54.423,0.00011078,0
54.423,0.00011733,0
54.424,0.00010793,0
54.424,8.8289e-05,0
54.425,6.8315e-05,0
54.425,5.3376e-05,0
54.426,3.6927e-05,0
54.426,1.4603e-05,0
54.427,-4.8676e-06,0
54.427,-1.2421e-05,0
54.428,-1.1582e-05,0
54.428,-6.5461e-06,0
54.429,6.2104e-06,0
54.429,1.7792e-05,0
54.43,1.6953e-05,0
54.43,1.0071e-05,0
54.431,9.9031e-06,0
54.431,1.3931e-05,0
54.432,1.2253e-05,0
54.433,6.5461e-06,0
54.433,4.5319e-06,0
54.434,9.7353e-06,0
54.434,1.9303e-05,0
54.435,2.3667e-05,0
54.435,1.3931e-05,0
54.436,-8.3925e-07,0
54.436,-4.5319e-06,0
54.437,-3.357e-07,0
54.437,-2.8534e-06,0
54.438,0,0
54.438,1.8631e-05,0
54.439,5.2537e-05,0
54.439,7.5029e-05,0
54.44,6.7475e-05,0
54.44,4.8173e-05,0
54.441,4.6159e-05,0
54.441,4.8508e-05,0
54.442,4.0116e-05,0
54.442,4.4816e-05,0
54.443,7.4357e-05,0
54.443,0.00010726,0
54.444,0.00012068,0
54.444,0.00011095,0
54.445,8.8792e-05,0
54.446,6.7643e-05,0
54.446,4.7501e-05,0
54.447,1.6281e-05,0
54.447,-2.2324e-05,0
54.448,-6.1265e-05,0
54.448,-9.9031e-05,0
54.449,-0.0001284,0
54.449,-0.00014351,0
54.45,-0.00014754,0
54.45,-0.00014049,0
54.451,-0.00011766,0
54.451,-8.2078e-05,0
54.452,-4.213e-05,0
54.452,-3.6927e-06,0
54.453,2.7527e-05,0
54.453,5.6397e-05,0
54.454,8.1575e-05,0
54.454,9.0303e-05,0
54.455,8.51e-05,0
54.455,7.805e-05,0
54.456,7.1672e-05,0
54.456,5.5222e-05,0
54.457,1.9303e-05,0
54.457,-3.6088e-05,0
54.458,-8.7785e-05,0
54.458,-0.00010054,0
54.459,-7.0329e-05,0
54.46,-1.9638e-05,0
54.46,3.2059e-05,0
54.461,7.7379e-05,0
54.461,0.00011464,0
54.462,0.00013814,0
54.462,0.00014385,0
54.463,0.00014284,0
54.463,0.00015006,0
54.464,0.00015962,0
54.464,0.0001462,0
54.465,9.6513e-05,0
54.465,3.3906e-05,0
54.466,-1.3596e-05,0
54.466,-4.2466e-05,0
54.467,-5.8244e-05,0
54.467,-6.6636e-05,0
54.468,-6.8147e-05,0
54.468,-6.3279e-05,0
54.469,-6.0426e-05,0
54.469,-6.4958e-05,0
54.47,-6.479e-05,0
54.47,-4.8676e-05,0
54.471,-2.266e-05,0
54.471,2.182e-06,0
54.472,2.2492e-05,0
54.472,4.448e-05,0
54.473,5.9754e-05,0
54.474,5.3208e-05,0
54.474,2.8031e-05,0
54.475,7.3854e-06,0
54.475,1.9303e-05,0
54.476,6.7308e-05,0
54.476,0.00012337,0
54.477,0.00015509,0
54.477,0.00014838,0
54.478,0.00011884,0
54.478,9.2821e-05,0
54.479,8.1071e-05,0
54.479,7.9057e-05,0
54.48,8.0232e-05,0
54.48,6.8315e-05,0
54.481,3.827e-05,0
54.481,9.2317e-06,0
54.482,-5.2033e-06,0
54.482,-8.7282e-06,0
54.483,-1.4939e-05,0
54.483,-2.4842e-05,0
54.484,-2.6184e-05,0
54.484,-1.9638e-05,0
54.485,-1.3092e-05,0
54.485,-9.5674e-06,0
54.486,-7.2175e-06,0
54.487,-2.5177e-06,0
54.487,5.539e-06,0
54.488,1.1917e-05,0
54.488,1.4603e-05,0
54.489,1.3764e-05,0
54.489,7.2175e-06,0
54.49,-7.7211e-06,0
54.49,-3.0045e-05,0
54.491,-5.9586e-05,0
54.491,-8.4932e-05,0
54.492,-9.6345e-05,0
54.492,-0.00010054,0
54.493,-0.00010222,0
54.493,-9.6849e-05,0
54.494,-8.1575e-05,0
54.494,-6.1936e-05,0
54.495,-3.4577e-05,0
54.495,1.0407e-05,0
54.496,6.2104e-05,0
54.496,9.5171e-05,0
54.497,0.00010423,0
54.497,0.00010625,0
54.498,0.00011263,0
54.498,0.00012438,0
54.499,0.00013579,0
54.499,0.00013411,0
54.5,0.00011833,0
54.501,0.00010323,0
54.501,9.3492e-05,0
54.502,8.9632e-05,0
54.502,9.1142e-05,0
54.503,9.2317e-05,0
54.503,8.9464e-05,0
54.504,8.6107e-05,0
54.504,8.3925e-05,0
54.505,7.8386e-05,0
54.505,7.1e-05,0
54.506,6.6636e-05,0
54.506,6.4286e-05,0
54.507,6.0258e-05,0
54.507,4.4816e-05,0
54.508,1.6785e-05,0
54.508,-8.3925e-06,0
54.509,-1.5442e-05,0
54.509,-1.2589e-05,0
54.51,-1.796e-05,0
54.51,-3.592e-05,0
54.511,-6.4958e-05,0
54.511,-9.8192e-05,0
54.512,-0.00012203,0
54.512,-0.00012605,0
54.513,-0.00010893,0
54.514,-7.6707e-05,0
54.514,-5.9251e-05,0
54.515,-7.6707e-05,0
54.515,-0.00011229,0
54.516,-0.00013025,0
54.516,-0.00011598,0
54.517,-8.51e-05,0
54.517,-5.8244e-05,0
54.518,-4.3809e-05,0
54.518,-3.1388e-05,0
54.519,-1.0575e-05,0
54.519,5.2033e-06,0
54.52,-7.7211e-06,0
54.52,-4.9516e-05,0
54.521,-8.8457e-05,0
54.521,-0.00010491,0
54.522,-0.00010507,0
54.522,-9.7185e-05,0
54.523,-7.4189e-05,0
54.523,-3.2395e-05,0
54.524,1.5442e-05,0
54.524,6.2104e-05,0
54.525,0.00011733,0
54.525,0.00018598,0
54.526,0.00024959,0
54.526,0.00029256,0
54.527,0.00030028,0
54.528,0.00027041,0
54.528,0.00021804,0
54.529,0.00014871,0
54.529,5.8579e-05,0
54.53,-2.8534e-05,0
54.53,-6.8986e-05,0
54.531,-5.5558e-05,0
54.531,-2.0645e-05,0
54.532,3.5248e-06,0
54.532,1.2253e-05,0
54.533,1.6953e-05,0
54.533,3.0716e-05,0
54.534,5.3544e-05,0
54.534,9.2149e-05,0
54.535,0.00014452,0
54.535,0.00018782,0
54.536,0.0001984,0
54.536,0.00018312,0
54.537,0.00015744,0
54.537,0.00011867,0
54.538,6.9993e-05,0
54.538,2.9374e-05,0
54.539,4.8676e-06,0
54.539,-9.5674e-06,0
54.54,-1.1246e-05,0
54.541,5.539e-06,0
54.541,7.5532e-06,0
54.542,-1.9974e-05,0
54.542,-3.3738e-05,0
54.543,-6.2104e-06,0
54.543,4.4144e-05,0
54.544,9.0135e-05,0
54.544,0.00011414,0
54.545,0.00011565,0
54.545,0.00010021,0
54.546,7.7043e-05,0
54.546,5.4215e-05,0
54.547,3.1724e-05,0
54.547,5.0355e-06,0
54.548,-3.9109e-05,0
54.548,-0.00010574,0
54.549,-0.00018044,0
54.549,-0.0002454,0
54.55,-0.00029071,0
54.55,-0.00030834,0
54.551,-0.00030431,0
54.551,-0.00028719,0
54.552,-0.00026638,0
54.552,-0.00025026,0
54.553,-0.00022828,0
54.553,-0.00017708,0
54.554,-8.1407e-05,0
54.555,4.4144e-05,0
54.555,0.00015492,0
54.556,0.00022576,0
54.556,0.00026101,0
54.557,0.00027645,0
54.557,0.00028383,0
54.558,0.00028115,0
54.558,0.00026151,0
54.559,0.00022441,0
54.559,0.0001744,0
54.56,0.00012186,0
54.56,8.0903e-05,0
54.561,5.8076e-05,0
54.561,4.683e-05,0
54.562,4.3977e-05,0
54.562,4.9516e-05,0
54.563,5.7069e-05,0
54.563,5.7237e-05,0
54.564,4.683e-05,0
54.564,3.1388e-05,0
54.565,9.5674e-06,0
54.565,-2.3835e-05,0
54.566,-6.1265e-05,0
54.566,-8.2582e-05,0
54.567,-8.426e-05,0
54.568,-7.0497e-05,0
54.568,-3.8773e-05,0
54.569,2.182e-06,0
54.569,3.8102e-05,0
54.57,6.7308e-05,0
54.57,8.3085e-05,0
54.571,8.275e-05,0
54.571,8.5435e-05,0
54.572,0.00010356,0
54.572,0.00011431,0
54.573,9.8192e-05,0
54.573,7.0329e-05,0
54.574,5.4047e-05,0
54.574,5.7572e-05,0
54.575,7.0329e-05,0
54.575,7.2847e-05,0
54.576,4.8173e-05,0
54.576,-8.3925e-06,0
54.577,-8.51e-05,0
54.577,-0.00014888,0
54.578,-0.00017977,0
54.578,-0.00019303,0
54.579,-0.00021267,0
54.579,-0.00023818,0
54.58,-0.00025866,0
54.581,-0.00026386,0
54.581,-0.00024506,0
54.582,-0.00020343,0
54.582,-0.00015106,0
54.583,-9.2821e-05,0
54.583,-2.887e-05,0
54.584,4.0116e-05,0
54.584,0.00011431,0
54.585,0.00019387,0
54.585,0.00026973,0
54.586,0.0003216,0
54.586,0.00033754,0
54.587,0.00031942,0
54.587,0.00027544,0
54.588,0.00020897,0
54.588,0.00013008,0
54.589,6.5629e-05,0
54.589,3.6927e-05,0
54.59,3.7095e-05,0
54.59,4.3473e-05,0
54.591,4.2634e-05,0
54.591,3.978e-05,0
54.592,4.5319e-05,0
54.592,6.479e-05,0
54.593,8.6442e-05,0
54.593,9.601e-05,0
54.594,0.00010021,0
54.595,0.00010591,0
54.595,0.00010524,0
54.596,8.2414e-05,0
54.596,4.4816e-05,0
54.597,6.8818e-06,0
54.597,-2.4674e-05,0
54.598,-5.6397e-05,0
54.598,-9.5171e-05,0
54.599,-0.0001373,0
54.599,-0.00015879,0
54.6,-0.00014871,0
54.6,-0.00012689,0
54.601,-0.00010172,0
54.601,-6.7979e-05,0
54.602,-2.5177e-05,0
54.602,1.5274e-05,0
54.603,3.6088e-05,0
54.603,3.8605e-05,0
54.604,3.8102e-05,0
54.604,4.8173e-05,0
54.605,6.1601e-05,0
54.605,6.0929e-05,0
54.606,4.0955e-05,0
54.606,5.2033e-06,0
54.607,-2.5681e-05,0
54.608,-3.6927e-05,0
54.608,-3.8437e-05,0
54.609,-4.6494e-05,0
54.609,-5.6062e-05,0
54.61,-4.8508e-05,0
54.61,-2.7024e-05,0
54.611,-1.1917e-05,0
54.611,-9.5674e-06,0
54.612,-1.8967e-05,0
54.612,-3.7766e-05,0
54.613,-4.2802e-05,0
54.613,-1.796e-05,0
54.614,3.4073e-05,0
54.614,0.00010037,0
54.615,0.00016231,0
54.615,0.00020461,0
54.616,0.00022391,0
54.616,0.00022945,0
54.617,0.00023079,0
54.617,0.00021988,0
54.618,0.00018212,0
54.618,0.00010994,0
54.619,1.3596e-05,0
54.619,-8.3085e-05,0
54.62,-0.00015207,0
54.62,-0.00018564,0
54.621,-0.00020175,0
54.622,-0.00020494,0
54.622,-0.00016902,0
54.623,-8.9296e-05,0
54.623,3.357e-07,0
54.624,6.3447e-05,0
54.624,8.9632e-05,0
54.625,9.7017e-05,0
54.625,0.00010054,0
54.626,0.00010054,0
54.626,8.9632e-05,0
54.627,5.774e-05,0
54.627,1.0575e-05,0
54.628,-3.0381e-05,0
54.628,-4.9348e-05,0
54.629,-3.9445e-05,0
54.629,-4.6998e-06,0
54.63,3.1388e-05,0
54.63,4.1627e-05,0
54.631,2.2995e-05,0
54.631,-1.2589e-05,0
54.632,-5.4551e-05,0
54.632,-8.4428e-05,0
54.633,-9.1646e-05,0
54.633,-8.0903e-05,0
54.634,-6.5126e-05,0
54.635,-6.1936e-05,0
54.635,-7.2007e-05,0
54.636,-6.6636e-05,0
54.636,-2.7024e-05,0
54.637,2.3331e-05,0
54.637,5.623e-05,0
54.638,7.335e-05,0
54.638,7.8386e-05,0
54.639,8.0064e-05,0
54.639,8.5435e-05,0
54.64,8.9128e-05,0
54.64,9.3828e-05,0
54.641,0.00010491,0
54.641,0.0001274,0
54.642,0.00015425,0
54.642,0.00017171,0
54.643,0.0001707,0
54.643,0.0001514,0
54.644,0.00013277,0
54.644,0.00012706,0
54.645,0.00012941,0
54.645,0.00012958,0
54.646,0.00011598,0
54.646,8.7449e-05,0
54.647,5.1698e-05,0
54.647,1.2924e-05,0
54.648,-2.0645e-05,0
54.649,-4.0787e-05,0
54.649,-4.7669e-05,0
54.65,-4.7166e-05,0
54.65,-4.5319e-05,0
54.651,-4.2634e-05,0
54.651,-4.3137e-05,0
54.652,-4.4648e-05,0
54.652,-4.3473e-05,0
54.653,-3.8773e-05,0
54.653,-2.7695e-05,0
54.654,-1.9303e-05,0
54.654,-2.8199e-05,0
54.655,-4.6998e-05,0
54.655,-5.4719e-05,0
54.656,-4.8508e-05,0
54.656,-3.9445e-05,0
54.657,-3.2395e-05,0
54.657,-2.4002e-05,0
54.658,-1.1078e-05,0
54.658,4.1962e-06,0
54.659,1.4939e-05,0
54.659,2.3499e-05,0
54.66,2.8534e-05,0
54.66,1.9303e-05,0
54.661,6.714e-07,0
54.661,-1.0239e-05,0
54.662,-4.1962e-06,0
54.663,1.2757e-05,0
54.663,1.7624e-05,0
54.664,2.5177e-06,0
54.664,-5.3712e-06,0
54.665,2.4002e-05,0
54.665,8.0735e-05,0
54.666,0.00011212,0
54.666,0.00010692,0
54.667,0.00010054,0
54.667,0.00010927,0
54.668,0.00010826,0
54.668,8.3085e-05,0
54.669,4.2634e-05,0
54.669,1.0407e-05,0
54.67,-8.3925e-07,0
54.67,-9.5674e-06,0
54.671,-2.6184e-05,0
54.671,-3.8102e-05,0
54.672,-3.5752e-05,0
54.672,-2.266e-05,0
54.673,2.182e-06,0
54.673,4.4144e-05,0
54.674,0.00010004,0
54.674,0.0001462,0
54.675,0.00015375,0
54.676,0.00011934,0
54.676,7.335e-05,0
54.677,3.9948e-05,0
54.677,1.2589e-05,0
54.678,-1.9806e-05,0
54.678,-5.4047e-05,0
54.679,-8.3421e-05,0
54.679,-0.00010491,0
54.68,-0.00011833,0
54.68,-0.00012404,0
54.681,-0.00011934,0
54.681,-9.7688e-05,0
54.682,-5.5222e-05,0
54.682,-9.9031e-06,0
54.683,2.501e-05,0
54.683,7.2343e-05,0
54.684,0.00014284,0
54.684,0.00021904,0
54.685,0.00026772,0
54.685,0.00026571,0
54.686,0.00022777,0
54.686,0.00017977,0
54.687,0.00012874,0
54.687,7.6036e-05,0
54.688,2.8702e-05,0
54.688,-3.6927e-06,0
54.689,-2.8367e-05,0
54.69,-5.388e-05,0
54.69,-8.3085e-05,0
54.691,-0.00011028,0
54.691,-0.00012689,0
54.692,-0.00012773,0
54.692,-0.00011632,0
54.693,-9.8192e-05,0
54.693,-7.8721e-05,0
54.694,-6.0761e-05,0
54.694,-5.3376e-05,0
54.695,-6.3279e-05,0
54.695,-7.57e-05,0
54.696,-6.8315e-05,0
54.696,-3.4745e-05,0
54.697,1.2589e-05,0
54.697,5.1362e-05,0
54.698,6.9322e-05,0
54.698,7.1e-05,0
54.699,6.4622e-05,0
54.699,5.5558e-05,0
54.7,4.683e-05,0
54.7,4.6326e-05,0
54.701,5.0523e-05,0
54.701,5.2033e-05,0
54.702,4.0955e-05,0
54.703,1.8631e-05,0
54.703,-6.2104e-06,0
54.704,-2.7024e-05,0
54.704,-4.448e-05,0
54.705,-6.1936e-05,0
54.705,-8.0735e-05,0
54.706,-9.3156e-05,0
54.706,-8.9799e-05,0
54.707,-7.7714e-05,0
54.707,-5.9754e-05,0
54.708,-3.5416e-05,0
54.708,-5.539e-06,0
54.709,2.6688e-05,0
54.709,5.6901e-05,0
54.71,8.0735e-05,0
54.71,0.00010037,0
54.711,0.00012001,0
54.711,0.00013512,0
54.712,0.00014401,0
54.712,0.0001472,0
54.713,0.00014133,0
54.713,0.00012572,0
54.714,0.00010239,0
54.714,7.6875e-05,0
54.715,6.1936e-05,0
54.715,5.6901e-05,0
54.716,5.0187e-05,0
54.717,3.8437e-05,0
54.717,2.1317e-05,0
54.718,-5.3712e-06,0
54.718,-2.5513e-05,0
54.719,-2.0813e-05,0
54.719,8.896e-06,0
54.72,5.2873e-05,0
54.72,9.0974e-05,0
54.721,0.00010658,0
54.721,0.00010239,0
54.722,9.2317e-05,0
54.722,9.0806e-05,0
54.723,9.2149e-05,0
54.723,8.3421e-05,0
54.724,6.0258e-05,0
54.724,2.9709e-05,0
54.725,4.1962e-06,0
54.725,-1.4267e-05,0
54.726,-3.7934e-05,0
54.726,-6.7308e-05,0
54.727,-0.00011867,0
54.727,-0.00022173,0
54.728,-0.0003122,0
54.728,-0.0003023,0
54.729,-0.00021401,0
54.73,-0.00014334,0
54.73,-0.0001274,0
54.731,-0.00012505,0
54.731,-8.4932e-05,0
54.732,1.326e-05,0
54.732,0.00013411,0
54.733,0.00022609,0
54.733,0.00027276,0
54.734,0.00027259,0
54.734,0.00023281,0
54.735,0.00018228,0
54.735,0.00016818,0
54.736,0.00021434,0
54.736,0.00027678,0
54.737,0.00029441,0
54.737,0.00025866,0
54.738,0.00019319,0
54.738,0.00012538,0
54.739,8.0903e-05,0
54.739,6.6133e-05,0
54.74,6.3279e-05,0
54.74,5.2873e-05,0
54.741,3.4073e-05,0
54.741,1.2589e-05,0
54.742,-2.0142e-06,0
54.742,-6.5461e-06,0
54.743,-1.4435e-05,0
54.744,-3.2059e-05,0
54.744,-5.2033e-05,0
54.745,-6.4958e-05,0
54.745,-7.0161e-05,0
54.746,-7.4525e-05,0
54.746,-8.2078e-05,0
54.747,-8.661e-05,0
54.747,-8.6778e-05,0
54.748,-9.1814e-05,0
54.748,-0.0001044,0
54.749,-0.00011431,0
54.749,-0.0001138,0
54.75,-0.00010692,0
54.75,-9.7688e-05,0
54.751,-8.4764e-05,0
54.751,-6.865e-05,0
54.752,-5.1865e-05,0
54.752,-3.8773e-05,0
54.753,-2.8702e-05,0
54.753,-1.8296e-05,0
54.754,-1.091e-05,0
54.754,-5.7069e-06,0
54.755,3.8605e-06,0
54.755,1.5778e-05,0
54.756,1.5274e-05,0
54.757,-5.8747e-06,0
54.757,-2.8367e-05,0
54.758,-2.6688e-05,0
54.758,-1.5274e-05,0
54.759,-1.5274e-05,0
54.759,-2.8031e-05,0
54.76,-4.5319e-05,0
54.76,-6.4622e-05,0
54.761,-8.0735e-05,0
54.761,-8.1743e-05,0
54.762,-5.3544e-05,0
54.762,0,0
54.763,5.9922e-05,0
54.763,0.0001039,0
54.764,0.00012706,0
54.764,0.00013193,0
54.765,0.0001232,0
54.765,0.00011498,0
54.766,0.00010776,0
54.766,9.5171e-05,0
54.767,7.5532e-05,0
54.767,5.0858e-05,0
54.768,2.5849e-05,0
54.768,2.0142e-06,0
54.769,-2.4674e-05,0
54.77,-4.7837e-05,0
54.77,-5.4215e-05,0
54.771,-3.8437e-05,0
54.771,-9.9031e-06,0
54.772,1.8631e-05,0
54.772,4.2802e-05,0
54.773,5.8579e-05,0
54.773,7.3014e-05,0
54.774,0.00011565,0
54.774,0.00020427,0
54.775,0.00030666,0
54.775,0.00036944,0
54.776,0.00036507,0
54.776,0.00030666,0
54.777,0.00022039,0
54.777,0.00012505,0
54.778,3.3234e-05,0
54.778,-2.9541e-05,0
54.779,-4.5655e-05,0
54.779,-3.7095e-05,0
54.78,-4.1123e-05,0
54.78,-7.6036e-05,0
54.781,-0.00012723,0
54.781,-0.00016466,0
54.782,-0.00016802,0
54.782,-0.00014334,0
54.783,-0.00010289,0
54.784,-6.2104e-05,0
54.784,-4.2466e-05,0
54.785,-5.3544e-05,0
54.785,-7.0329e-05,0
54.786,-6.3279e-05,0
54.786,-4.0452e-05,0
54.787,-2.5177e-05,0
54.787,-2.9709e-05,0
54.788,-4.3977e-05,0
54.788,-5.4887e-05,0
54.789,-6.1265e-05,0
54.789,-6.2943e-05,0
54.79,-6.2272e-05,0
54.79,-5.539e-05,0
54.791,-3.3738e-05,0
54.791,1.6785e-06,0
54.792,4.5151e-05,0
54.792,9.1142e-05,0
54.793,0.00013143,0
54.793,0.00015677,0
54.794,0.00017104,0
54.794,0.00018698,0
54.795,0.00020058,0
54.795,0.00020595,0
54.796,0.00019588,0
54.797,0.00015543,0
54.797,8.7114e-05,0
54.798,1.9974e-05,0
54.798,-2.4842e-05,0
54.799,-4.7669e-05,0
54.799,-5.5222e-05,0
54.8,-4.6494e-05,0
54.8,-2.1653e-05,0
54.801,9.2317e-06,0
54.801,3.3738e-05,0
54.802,5.3544e-05,0
54.802,8.04e-05,0
54.803,0.00011028,0
54.803,0.0001326,0
54.804,0.0001378,0
54.804,0.00012505,0
54.805,9.836e-05,0
54.805,6.7643e-05,0
54.806,4.1291e-05,0
54.806,2.3835e-05,0
54.807,1.2253e-05,0
54.807,-1.1749e-06,0
54.808,-2.1317e-05,0
54.808,-4.5991e-05,0
54.809,-7.335e-05,0
54.809,-9.0639e-05,0
54.81,-8.9464e-05,0
54.811,-7.6707e-05,0
54.811,-5.8915e-05,0
54.812,-4.448e-05,0
54.812,-3.508e-05,0
54.813,-2.6184e-05,0
54.813,-8.2246e-06,0
54.814,1.1246e-05,0
54.814,1.3596e-05,0
54.815,-3.8605e-06,0
54.815,-1.8128e-05,0
54.816,-1.5778e-05,0
54.816,-1.1749e-05,0
54.817,-1.4267e-05,0
54.817,-1.796e-05,0
54.818,-1.4603e-05,0
54.818,-6.3783e-06,0
54.819,-1.8463e-06,0
54.819,-4.1962e-06,0
54.82,-1.3596e-05,0
54.82,-2.7527e-05,0
54.821,-4.0284e-05,0
54.821,-4.8173e-05,0
54.822,-5.0523e-05,0
54.822,-4.448e-05,0
54.823,-2.9709e-05,0
54.824,-1.0407e-05,0
54.824,9.0639e-06,0
54.825,2.652e-05,0
54.825,4.1962e-05,0
54.826,5.7908e-05,0
54.826,7.8386e-05,0
54.827,9.4667e-05,0
54.827,8.3085e-05,0
54.828,4.0116e-05,0
54.828,3.8605e-06,0
54.829,1.1749e-06,0
54.829,1.0575e-05,0
54.83,-7.0497e-06,0
54.83,-6.4958e-05,0
54.831,-0.0001321,0
54.831,-0.00015761,0
54.832,-0.00011884,0
54.832,-4.2466e-05,0
54.833,2.6688e-05,0
54.833,7.335e-05,0
54.834,0.00010994,0
54.834,0.0001472,0
54.835,0.00017842,0
54.835,0.00018933,0
54.836,0.00017792,0
54.836,0.0001556,0
54.837,0.00013747,0
54.838,0.00012068,0
54.838,9.9199e-05,0
54.839,6.7308e-05,0
54.839,3.4073e-05,0
54.84,2.7527e-05,0
54.84,5.5222e-05,0
54.841,9.4163e-05,0
54.841,0.00012068,0
54.842,0.00012992,0
54.842,0.00012203,0
54.843,9.1981e-05,0
54.843,3.7934e-05,0
54.844,-1.2924e-05,0
54.844,-3.743e-05,0
54.845,-4.8508e-05,0
54.845,-8.04e-05,0
54.846,-0.00014519,0
54.846,-0.00020008,0
54.847,-0.00021384,0
54.847,-0.00020008,0
54.848,-0.0001603,0
54.848,-9.131e-05,0
54.849,-9.2317e-06,0
54.849,7.0329e-05,0
54.85,0.00013848,0
54.85,0.00019655,0
54.851,0.0002459,0
54.852,0.00028685,0
54.852,0.00031337,0
54.853,0.000308,0
54.853,0.00026503,0
54.854,0.00019269,0
54.854,9.9199e-05,0
54.855,5.0355e-06,0
54.855,-5.539e-05,0
54.856,-8.0735e-05,0
54.856,-9.2653e-05,0
54.857,-9.7353e-05,0
54.857,-8.9632e-05,0
54.858,-8.04e-05,0
54.858,-6.8986e-05,0
54.859,-4.8508e-05,0
54.859,-2.8031e-05,0
54.86,-1.561e-05,0
54.86,-7.8889e-06,0
54.861,-3.357e-07,0
54.861,5.2033e-06,0
54.862,3.1891e-06,0
54.862,-3.5248e-06,0
54.863,-5.2033e-06,0
54.863,4.6998e-06,0
54.864,1.8296e-05,0
54.865,2.0813e-05,0
54.865,1.3428e-05,0
54.866,-3.0213e-06,0
54.866,-2.7863e-05,0
54.867,-5.4887e-05,0
54.867,-8.6275e-05,0
54.868,-0.00012236,0
54.868,-0.00014368,0
54.869,-0.00013864,0
54.869,-0.00012068,0
54.87,-0.0001133,0
54.87,-0.00011531,0
54.871,-0.00010994,0
54.871,-9.0135e-05,0
54.872,-5.7572e-05,0
54.872,-1.8967e-05,0
54.873,2.1149e-05,0
54.873,6.2608e-05,0
54.874,0.00010088,0
54.874,0.00013747,0
54.875,0.00017641,0
54.875,0.00020192,0
54.876,0.00019554,0
54.876,0.00016802,0
54.877,0.00013747,0
54.877,0.00010457,0
54.878,6.8315e-05,0
54.879,3.4745e-05,0
54.879,1.1917e-05,0
54.88,2.6856e-06,0
54.88,1.3931e-05,0
54.881,4.1627e-05,0
54.881,6.7643e-05,0
54.882,8.51e-05,0
54.882,9.5506e-05,0
54.883,8.7114e-05,0
54.883,6.0929e-05,0
54.884,3.9612e-05,0
54.884,2.7359e-05,0
54.885,1.9974e-05,0
54.885,1.7624e-05,0
54.886,1.7624e-05,0
54.886,1.796e-05,0
54.887,1.796e-05,0
54.887,1.9806e-05,0
54.888,1.326e-05,0
54.888,-9.0639e-06,0
54.889,-3.8773e-05,0
54.889,-6.2272e-05,0
54.89,-7.1672e-05,0
54.89,-5.9586e-05,0
54.891,-3.6423e-05,0
54.892,-2.2156e-05,0
54.892,-2.0645e-05,0
54.893,-1.091e-05,0
54.893,1.9135e-05,0
54.894,5.0523e-05,0
54.894,5.7908e-05,0
54.895,4.2802e-05,0
54.895,2.266e-05,0
54.896,9.9031e-06,0
54.896,1.091e-05,0
54.897,2.0142e-05,0
54.897,1.9135e-05,0
54.898,-3.357e-07,0
54.898,-2.9877e-05,0
54.899,-6.0594e-05,0
54.899,-7.5196e-05,0
54.9,-5.2873e-05,0
54.9,1.0071e-06,0
54.901,6.0929e-05,0
54.901,0.00010457,0
54.902,0.00012538,0
54.902,0.00013277,0
54.903,0.00013663,0
54.903,0.00013075,0
54.904,0.00013176,0
54.904,0.00016097,0
54.905,0.00018447,0
54.906,0.0001655,0
54.906,0.00011246,0
54.907,4.9516e-05,0
54.907,-2.3499e-06,0
54.908,-4.7333e-05,0
54.908,-8.2414e-05,0
54.909,-8.51e-05,0
54.909,-4.918e-05,0
54.91,2.5177e-06,0
54.91,2.7359e-05,0
54.911,1.1917e-05,0
54.911,-1.1749e-05,0
54.912,-1.2589e-05,0
54.912,9.0639e-06,0
54.913,2.7359e-05,0
54.913,2.0645e-05,0
54.914,-1.091e-05,0
54.914,-4.6326e-05,0
54.915,-7.1504e-05,0
54.915,-9.1478e-05,0
54.916,-0.00011917,0
54.916,-0.00014888,0
54.917,-0.00017238,0
54.917,-0.00019756,0
54.918,-0.00021736,0
54.919,-0.00021636,0
54.919,-0.00018682,0
54.92,-0.00012941,0
54.92,-5.623e-05,0
54.921,2.9038e-05,0
54.921,0.00012572,0
54.922,0.0002224,0
54.922,0.00029625,0
54.923,0.00033687,0
54.923,0.00035366,0
54.924,0.00033721,0
54.924,0.00027745,0
54.925,0.00019152,0
54.925,0.000118,0
54.926,8.0568e-05,0
54.926,6.9993e-05,0
54.927,6.7643e-05,0
54.927,6.6133e-05,0
54.928,6.6636e-05,0
54.928,7.1504e-05,0
54.929,7.5029e-05,0
54.929,6.9322e-05,0
54.93,5.5558e-05,0
54.93,3.4409e-05,0
54.931,3.357e-07,0
54.931,-4.1794e-05,0
54.932,-7.8553e-05,0
54.933,-0.00010088,0
54.933,-0.00011246,0
54.934,-0.00012119,0
54.934,-0.00012941,0
54.935,-0.00013529,0
54.935,-0.00013982,0
54.936,-0.00014049,0
54.936,-0.00013227,0
54.937,-0.00011817,0
54.937,-0.00010373,0
54.938,-0.00010088,0
54.938,-9.7688e-05,0
54.939,-7.0161e-05,0
54.939,-1.326e-05,0
54.94,5.3544e-05,0
54.94,0.00010323,0
54.941,0.00012723,0
54.941,0.00014083,0
54.942,0.00015056,0
54.942,0.0001509,0
54.943,0.00013999,0
54.943,0.00013109,0
54.944,0.00014351,0
54.944,0.00014284,0
54.945,0.00010021,0
54.946,4.8508e-05,0
54.946,2.6688e-05,0
54.947,3.3402e-05,0
54.947,4.3809e-05,0
54.948,4.7837e-05,0
54.948,4.2634e-05,0
54.949,3.0045e-05,0
54.949,1.7121e-05,0
54.95,7.8889e-06,0
54.95,-5.8747e-06,0
54.951,-2.3667e-05,0
54.951,-3.1388e-05,0
54.952,-2.6352e-05,0
54.952,-2.4338e-05,0
54.953,-3.3906e-05,0
54.953,-4.6159e-05,0
54.954,-5.0858e-05,0
54.954,-4.7501e-05,0
54.955,-3.3234e-05,0
54.955,-8.896e-06,0
54.956,1.561e-05,0
54.956,3.2059e-05,0
54.957,4.3809e-05,0
54.957,4.683e-05,0
54.958,4.1627e-05,0
54.959,3.1388e-05,0
54.959,1.5274e-05,0
54.96,-6.8818e-06,0
54.96,-3.8102e-05,0
54.961,-7.1e-05,0
54.961,-7.8218e-05,0
54.962,-4.9012e-05,0
54.962,-2.8534e-06,0
54.963,2.5513e-05,0
54.963,2.4338e-05,0
54.964,1.3596e-05,0
54.964,2.5681e-05,0
54.965,6.2272e-05,0
54.965,0.00010105,0
54.966,0.000118,0
54.966,0.00011028,0
54.967,8.7114e-05,0
54.967,6.6133e-05,0
54.968,7.2847e-05,0
54.968,0.00010323,0
54.969,0.0001227,0
54.969,0.00010709,0
54.97,5.8244e-05,0
54.97,5.8747e-06,0
54.971,-1.5442e-05,0
54.971,-7.5532e-06,0
54.972,2.0142e-06,0
54.973,1.6785e-07,0
54.973,-1.091e-05,0
54.974,-2.4674e-05,0
54.974,-3.4409e-05,0
54.975,-3.8102e-05,0
54.975,-3.8605e-05,0
54.976,-3.5416e-05,0
54.976,-2.7024e-05,0
54.977,-1.4771e-05,0
54.977,-7.3854e-06,0
54.978,-8.896e-06,0
54.978,-8.5603e-06,0
54.979,7.0497e-06,0
54.979,3.0549e-05,0
54.98,4.8676e-05,0
54.98,6.3279e-05,0
54.981,8.04e-05,0
54.981,0.00010037,0
54.982,0.00011296,0
54.982,0.00010961,0
54.983,9.5171e-05,0
54.983,8.0064e-05,0
54.984,7.0161e-05,0
54.984,6.479e-05,0
54.985,6.1433e-05,0
54.986,5.9922e-05,0
54.986,6.2272e-05,0
54.987,6.4118e-05,0
54.987,6.1265e-05,0
54.988,4.1794e-05,0
54.988,-2.8534e-06,0
54.989,-4.3809e-05,0
54.989,-4.8508e-05,0
54.99,-2.2492e-05,0
54.99,1.6785e-06,0
54.991,7.5532e-06,0
54.991,2.5177e-06,0
54.992,5.2033e-06,0
54.992,1.9974e-05,0
54.993,3.2395e-05,0
54.993,2.7527e-05,0
54.994,8.2246e-06,0
54.994,-1.2589e-05,0
54.995,-3.5584e-05,0
54.995,-6.3279e-05,0
54.996,-8.5771e-05,0
54.996,-9.5506e-05,0
54.997,-9.9199e-05,0
54.997,-0.00010004,0
54.998,-9.6849e-05,0
54.998,-8.9464e-05,0
54.999,-7.2679e-05,0
55,-5.388e-05,0
55,-4.7501e-05,0
55.001,-4.5823e-05,0
55.001,-2.9206e-05,0
55.002,8.5603e-06,0
55.002,5.3544e-05,0
55.003,9.752e-05,0
55.003,0.00011733,0
55.004,0.00010306,0
55.004,9.5506e-05,0
55.005,0.00013126,0
55.005,0.00019957,0
55.006,0.0002647,0
55.006,0.00029827,0
55.007,0.00026839,0
55.007,0.00016684,0
55.008,3.4241e-05,0
55.008,-7.4861e-05,0
55.009,-0.00013227,0
55.009,-0.00014049,0
55.01,-0.00012219,0
55.01,-0.00010105,0
55.011,-8.661e-05,0
55.011,-8.3421e-05,0
55.012,-9.7688e-05,0
55.013,-0.0001227,0
55.013,-0.00013613,0
55.014,-0.00012303,0
55.014,-8.3421e-05,0
55.015,-3.4241e-05,0
55.015,6.8818e-06,0
55.016,3.2395e-05,0
55.016,4.3305e-05,0
55.017,3.6759e-05,0
55.017,3.1891e-06,0
55.018,-3.6088e-05,0
55.018,-4.3809e-05,0
55.019,-1.2589e-05,0
55.019,2.8702e-05,0
55.02,4.4144e-05,0
55.02,3.3234e-05,0
55.021,1.9471e-05,0
55.021,2.2324e-05,0
55.022,3.8773e-05,0
55.022,6.3279e-05,0
55.023,9.2485e-05,0
55.023,0.00011984,0
55.024,0.00013143,0
55.024,0.00012706,0
55.025,0.00012471,0
55.025,0.00014318,0
55.026,0.00018111,0
55.027,0.000213,0
55.027,0.00021032,0
55.028,0.0001697,0
55.028,0.00011061,0
55.029,5.1698e-05,0
55.029,2.182e-06,0
55.03,-3.7766e-05,0
55.03,-7.2847e-05,0
55.031,-0.00010961,0
55.031,-0.00012454,0
55.032,-0.00010222,0
55.032,-6.6636e-05,0
55.033,-3.3906e-05,0
55.033,-5.0355e-06,0
55.034,5.539e-06,0
55.034,-1.2253e-05,0
55.035,-4.3809e-05,0
55.035,-6.5629e-05,0
55.036,-7.1672e-05,0
55.036,-6.2943e-05,0
55.037,-4.8844e-05,0
55.037,-4.3137e-05,0
55.038,-4.2466e-05,0
55.038,-3.3738e-05,0
55.039,-1.1414e-05,0
55.039,2.6017e-05,0
55.04,7.2343e-05,0
55.041,0.00010961,0
55.041,0.00012505,0
55.042,0.00012757,0
55.042,0.00013411,0
55.043,0.00015023,0
55.043,0.00017809,0
55.044,0.00020981,0
55.044,0.00022777,0
55.045,0.00021871,0
55.045,0.00018077,0
55.046,0.00013462,0
55.046,0.00010591,0
55.047,7.9393e-05,0
55.047,2.9038e-05,0
55.048,-2.9709e-05,0
55.048,-7.3014e-05,0
55.049,-0.00010172,0
55.049,-0.00012656,0
55.05,-0.00013898,0
55.05,-0.00011363,0
55.051,-4.5151e-05,0
55.051,3.357e-05,0
55.052,8.0064e-05,0
55.052,9.1478e-05,0
55.053,9.1814e-05,0
55.054,9.0471e-05,0
55.054,7.2007e-05,0
55.055,3.0549e-05,0
55.055,-1.0239e-05,0
55.056,-2.9206e-05,0
55.056,-4.2466e-05,0
55.057,-5.9586e-05,0
55.057,-6.9657e-05,0
55.058,-6.5293e-05,0
55.058,-4.9851e-05,0
55.059,-3.6423e-05,0
55.059,-3.2395e-05,0
55.06,-2.7695e-05,0
55.06,-9.2317e-06,0
55.061,2.1988e-05,0
55.061,4.5991e-05,0
55.062,5.3544e-05,0
55.062,5.5726e-05,0
55.063,4.9348e-05,0
55.063,3.1891e-05,0
55.064,1.796e-05,0
55.064,8.2246e-06,0
55.065,-5.539e-06,0
55.065,-3.0549e-05,0
55.066,-6.8315e-05,0
55.066,-0.00010037,0
55.067,-0.00010004,0
55.068,-6.9154e-05,0
55.068,-2.6856e-05,0
55.069,1.4099e-05,0
55.069,5.0858e-05,0
55.07,6.9993e-05,0
55.07,6.9322e-05,0
55.071,6.8315e-05,0
55.071,8.6442e-05,0
55.072,0.00011934,0
55.072,0.00014939,0
55.073,0.00014955,0
55.073,0.00010726,0
55.074,4.4984e-05,0
55.074,-1.5946e-05,0
55.075,-5.7908e-05,0
55.075,-7.5196e-05,0
55.076,-7.7714e-05,0
55.076,-7.805e-05,0
55.077,-8.1407e-05,0
55.077,-8.2078e-05,0
55.078,-7.0665e-05,0
55.078,-5.2705e-05,0
55.079,-3.6927e-05,0
55.079,-2.8367e-05,0
55.08,-3.2563e-05,0
55.081,-5.153e-05,0
55.081,-7.3014e-05,0
55.082,-7.7379e-05,0
55.082,-5.8579e-05,0
55.083,-2.7024e-05,0
55.083,4.8676e-06,0
55.084,3.9612e-05,0
55.084,8.191e-05,0
55.085,0.00011867,0
55.085,0.00014318,0
55.086,0.0001561,0
55.086,0.00016466,0
55.087,0.00018749,0
55.087,0.00022324,0
55.088,0.00025026,0
55.088,0.00024456,0
55.089,0.00019471,0
55.089,0.00012337,0
55.09,6.949e-05,0
55.09,4.213e-05,0
55.091,2.0645e-05,0
55.091,-1.1749e-05,0
55.092,-5.0858e-05,0
55.092,-8.1407e-05,0
55.093,-9.1814e-05,0
55.093,-9.0471e-05,0
55.094,-8.7785e-05,0
55.095,-8.275e-05,0
55.095,-7.8553e-05,0
55.096,-8.4764e-05,0
55.096,-9.9702e-05,0
55.097,-0.00012186,0
55.097,-0.000142,0
55.098,-0.00014133,0
55.098,-0.00011498,0
55.099,-8.0735e-05,0
55.099,-5.1865e-05,0
55.1,-3.0213e-05,0
55.1,-1.1246e-05,0
55.101,1.8463e-06,0
55.101,1.091e-05,0
55.102,3.508e-05,0
55.102,8.6778e-05,0
55.103,0.00015056,0
55.103,0.00018984,0
55.104,0.00019236,0
55.104,0.00018245,0
55.105,0.00017372,0
55.105,0.00014855,0
55.106,0.00011531,0
55.106,0.00010306,0
55.107,0.00011901,0
55.108,0.00013814,0
55.108,0.00012303,0
55.109,7.1e-05,0
55.109,2.3499e-05,0
55.11,1.091e-05,0
55.11,1.9974e-05,0
55.111,1.9638e-05,0
55.111,-3.5248e-06,0
55.112,-2.9374e-05,0
55.112,-5.0523e-05,0
55.113,-7.4022e-05,0
55.113,-8.5435e-05,0
55.114,-5.7908e-05,0
55.114,-1.2253e-05,0
55.115,1.9806e-05,0
55.115,5.2705e-05,0
55.116,0.00010893,0
55.116,0.00017272,0
55.117,0.00021267,0
55.117,0.00020914,0
55.118,0.0001702,0
55.118,0.00011598,0
55.119,6.4622e-05,0
55.119,2.7359e-05,0
55.12,-3.357e-07,0
55.12,-2.5345e-05,0
55.121,-4.3137e-05,0
55.122,-6.3447e-05,0
55.122,-0.00010491,0
55.123,-0.00016483,0
55.123,-0.00021871,0
55.124,-0.00023684,0
55.124,-0.00021468,0
55.125,-0.0001749,0
55.125,-0.00013646,0
55.126,-0.00011061,0
55.126,-9.5506e-05,0
55.127,-7.6707e-05,0
55.127,-4.5319e-05,0
55.128,-2.8534e-06,0
55.128,4.9516e-05,0
55.129,0.00010457,0
55.129,0.00014838,0
55.13,0.00017171,0
55.13,0.00017574,0
55.131,0.00016634,0
55.131,0.00014217,0
55.132,0.00010726,0
55.132,7.2511e-05,0
55.133,4.4816e-05,0
55.133,2.9709e-05,0
55.134,2.4842e-05,0
55.135,2.266e-05,0
55.135,1.2757e-05,0
55.136,-1.0575e-05,0
55.136,-4.1794e-05,0
55.137,-6.9657e-05,0
55.137,-9.3492e-05,0
55.138,-0.00010793,0
55.138,-0.00010356,0
55.139,-8.7785e-05,0
55.139,-7.2007e-05,0
55.14,-5.6901e-05,0
55.14,-4.1291e-05,0
55.141,-1.6281e-05,0
55.141,2.1988e-05,0
55.142,6.4286e-05,0
55.142,9.2485e-05,0
55.143,0.00010172,0
55.143,9.7856e-05,0
55.144,8.0064e-05,0
55.144,5.7572e-05,0
55.145,5.1865e-05,0
55.145,6.949e-05,0
55.146,8.0735e-05,0
55.146,5.0523e-05,0
55.147,-1.8463e-06,0
55.148,-3.0045e-05,0
55.148,-1.9806e-05,0
55.149,7.5532e-06,0
55.149,4.062e-05,0
55.15,8.5771e-05,0
55.15,0.00013227,0
55.151,0.00015727,0
55.151,0.00014116,0
55.152,9.5171e-05,0
55.152,4.4144e-05,0
55.153,9.9031e-06,0
55.153,-2.182e-06,0
55.154,1.5106e-06,0
55.154,2.8031e-05,0
55.155,7.1336e-05,0
55.155,9.7856e-05,0
55.156,9.2485e-05,0
55.156,7.5532e-05,0
55.157,6.9657e-05,0
55.157,7.5029e-05,0
55.158,7.6539e-05,0
55.158,6.479e-05,0
55.159,4.6159e-05,0
55.159,2.8367e-05,0
55.16,1.3596e-05,0
55.16,1.6785e-07,0
55.161,-1.9638e-05,0
55.162,-3.5248e-05,0
55.162,-2.6352e-05,0
55.163,-6.5461e-06,0
55.163,-6.5461e-06,0
55.164,-3.3738e-05,0
55.164,-5.623e-05,0
55.165,-4.6998e-05,0
55.165,-1.091e-05,0
55.166,2.5849e-05,0
55.166,4.3473e-05,0
55.167,4.5151e-05,0
55.167,3.9948e-05,0
55.168,2.3331e-05,0
55.168,5.0355e-07,0
55.169,-1.8463e-05,0
55.169,-2.6688e-05,0
55.17,-3.3402e-05,0
55.17,-4.9851e-05,0
55.171,-7.57e-05,0
55.171,-0.00010726,0
55.172,-0.00012001,0
55.172,-9.0303e-05,0
55.173,-2.7695e-05,0
55.173,3.8941e-05,0
55.174,8.8457e-05,0
55.175,0.00011934,0
55.175,0.00014284,0
55.176,0.00017104,0
55.176,0.00019789,0
55.177,0.00020494,0
55.177,0.00017926,0
55.178,0.0001237,0
55.178,5.0858e-05,0
55.179,-3.3066e-05,0
55.179,-0.00011716,0
55.18,-0.0001655,0
55.18,-0.00015341,0
55.181,-0.00010491,0
55.181,-6.949e-05,0
55.182,-6.8818e-05,0
55.182,-7.4693e-05,0
55.183,-6.1265e-05,0
55.183,-3.4577e-05,0
55.184,-1.0742e-05,0
55.184,1.0071e-05,0
55.185,3.743e-05,0
55.185,7.1336e-05,0
55.186,9.9535e-05,0
55.186,0.00011095,0
55.187,0.00010105,0
55.187,8.1239e-05,0
55.188,7.2007e-05,0
55.189,8.1407e-05,0
55.189,9.8527e-05,0
55.19,9.8527e-05,0
55.19,7.5029e-05,0
55.191,4.3305e-05,0
55.191,1.2757e-05,0
55.192,-1.9806e-05,0
55.192,-5.4719e-05,0
55.193,-7.9728e-05,0
55.193,-9.1814e-05,0
55.194,-0.00010105,0
55.194,-0.00011951,0
55.195,-0.00014569,0
55.195,-0.00015811,0
55.196,-0.00014116,0
55.196,-0.00010574,0
55.197,-7.3854e-05,0
55.197,-4.7166e-05,0
55.198,-8.7282e-06,0
55.198,4.7837e-05,0
55.199,0.00011061,0
55.199,0.00016231,0
55.2,0.00019554,0
55.2,0.00022106,0
55.201,0.00024254,0
55.202,0.00024691,0
55.202,0.00022525,0
55.203,0.0001895,0
55.203,0.00015258,0
55.204,0.0001133,0
55.204,7.5532e-05,0
55.205,3.3738e-05,0
55.205,-1.9638e-05,0
55.206,-7.4693e-05,0
55.206,-0.00010692,0
55.207,-0.00010188,0
55.207,-6.714e-05,0
55.208,-2.7863e-05,0
55.208,-3.1891e-06,0
55.209,1.2085e-05,0
55.209,2.7359e-05,0
55.21,5.6733e-05,0
55.21,0.00010658,0
55.211,0.00016365,0
55.211,0.00019303,0
55.212,0.0001702,0
55.212,0.00010893,0
55.213,3.8437e-05,0
55.213,-2.0813e-05,0
55.214,-5.8915e-05,0
55.214,-7.7379e-05,0
55.215,-7.4693e-05,0
55.216,-6.0258e-05,0
55.216,-4.8173e-05,0
55.217,-4.7501e-05,0
55.217,-5.3208e-05,0
55.218,-5.2033e-05,0
55.218,-4.6662e-05,0
55.219,-5.0019e-05,0
55.219,-6.7308e-05,0
55.22,-9.2317e-05,0
55.22,-0.00010961,0
55.221,-0.00010658,0
55.221,-8.4428e-05,0
55.222,-4.5823e-05,0
55.222,9.2317e-06,0
55.223,6.4118e-05,0
55.223,0.00010373,0
55.224,0.00011934,0
55.224,0.00011934,0
55.225,0.00012874,0
55.225,0.00015425,0
55.226,0.00017574,0
55.226,0.00017003,0
55.227,0.0001321,0
55.227,7.9057e-05,0
55.228,2.6352e-05,0
55.228,-9.7353e-06,0
55.229,-1.561e-05,0
55.23,3.5248e-06,0
55.23,2.7527e-05,0
55.231,3.743e-05,0
55.231,2.8367e-05,0
55.232,4.5319e-06,0
55.232,-1.5106e-05,0
55.233,-1.8296e-05,0
55.233,-2.0981e-05,0
55.234,-3.4409e-05,0
55.234,-4.5487e-05,0
55.235,-5.5894e-05,0
55.235,-6.1601e-05,0
55.236,-5.4719e-05,0
55.236,-3.7766e-05,0
55.237,-7.2175e-06,0
55.237,3.3066e-05,0
55.238,6.8315e-05,0
55.238,9.1814e-05,0
55.239,0.00010423,0
55.239,0.00010658,0
55.24,8.9799e-05,0
55.24,5.5558e-05,0
55.241,1.9806e-05,0
55.241,-9.7353e-06,0
55.242,-3.743e-05,0
55.243,-6.4286e-05,0
55.243,-7.6539e-05,0
55.244,-6.8315e-05,0
55.244,-5.153e-05,0
55.245,-3.8605e-05,0
55.245,-3.0381e-05,0
55.246,-1.9806e-05,0
55.246,-7.8889e-06,0
55.247,3.8605e-06,0
55.247,1.9303e-05,0
55.248,2.6352e-05,0
55.248,-6.2104e-06,0
55.249,-6.8147e-05,0
55.249,-0.0001091,0
55.25,-0.00010793,0
55.25,-7.9057e-05,0
55.251,-4.3641e-05,0
55.251,-1.2757e-05,0
55.252,-8.3925e-07,0
55.252,-5.539e-06,0
55.253,-8.3925e-06,0
55.253,0,0
55.254,2.5177e-05,0
55.254,7.1e-05,0
55.255,0.00012018,0
55.255,0.00014267,0
55.256,0.00013344,0
55.257,0.00011464,0
55.257,0.00011128,0
55.258,0.00013143,0
55.258,0.00015627,0
55.259,0.00017255,0
55.259,0.00017675,0
55.26,0.00016735,0
55.26,0.00014603,0
55.261,0.00011934,0
55.261,8.9967e-05,0
55.262,4.9851e-05,0
55.262,5.8747e-06,0
55.263,-2.1653e-05,0
55.263,-3.8605e-05,0
55.264,-6.63e-05,0
55.264,-9.7353e-05,0
55.265,-0.00011112,0
55.265,-0.00010591,0
55.266,-9.3156e-05,0
55.266,-7.3014e-05,0
55.267,-4.213e-05,0
55.267,-8.3925e-06,0
55.268,2.6017e-05,0
55.268,4.3977e-05,0
55.269,3.4913e-05,0
55.27,2.2995e-05,0
55.27,2.4002e-05,0
55.271,2.031e-05,0
55.271,1.1246e-05,0
55.272,1.1917e-05,0
55.272,1.8631e-05,0
55.273,2.2492e-05,0
55.273,3.1891e-05,0
55.274,6.1601e-05,0
55.274,0.0001086,0
55.275,0.00015291,0
55.275,0.00017943,0
55.276,0.00017842,0
55.276,0.00015224,0
55.277,0.00011431,0
55.277,7.1672e-05,0
55.278,3.1052e-05,0
55.278,9.2317e-06,0
55.279,1.9974e-05,0
55.279,4.5487e-05,0
55.28,5.3208e-05,0
55.28,3.8773e-05,0
55.281,1.796e-05,0
55.281,2.8534e-06,0
55.282,-1.0742e-05,0
55.282,-3.8437e-05,0
55.283,-8.4092e-05,0
55.284,-0.00012471,0
55.284,-0.00015392,0
55.285,-0.00016919,0
55.285,-0.00015325,0
55.286,-0.00010843,0
55.286,-5.8244e-05,0
55.287,-3.122e-05,0
55.287,-4.213e-05,0
55.288,-6.1097e-05,0
55.288,-4.7837e-05,0
55.289,-1.5778e-05,0
55.289,-6.5461e-06,0
55.29,-2.3331e-05,0
55.29,-3.1388e-05,0
55.291,-2.1317e-05,0
55.291,-1.1246e-05,0
55.292,1.5106e-06,0
55.292,2.5177e-05,0
55.293,5.8915e-05,0
55.293,0.00010222,0
55.294,0.00014116,0
55.294,0.000165,0
55.295,0.00017305,0
55.295,0.00017288,0
55.296,0.00017003,0
55.297,0.00016365,0
55.297,0.00015727,0
55.298,0.00013948,0
55.298,9.5674e-05,0
55.299,4.4144e-05,0
55.299,5.8747e-06,0
55.3,-1.6785e-05,0
55.3,-2.501e-05,0
55.301,-2.4338e-05,0
55.301,-1.561e-05,0
55.302,-1.2253e-05,0
55.302,-2.031e-05,0
55.303,-2.0645e-05,0
55.303,-8.2246e-06,0
55.304,5.0355e-06,0
55.304,1.3596e-05,0
55.305,1.9135e-05,0
55.305,1.9974e-05,0
55.306,1.9135e-05,0
55.306,1.1078e-05,0
55.307,-2.2828e-05,0
55.307,-7.0665e-05,0
55.308,-9.987e-05,0
55.308,-9.6513e-05,0
55.309,-7.2175e-05,0
55.309,-5.0355e-05,0
55.31,-3.743e-05,0
55.311,-1.9471e-05,0
55.311,1.7288e-05,0
55.312,6.3951e-05,0
55.312,9.6513e-05,0
55.313,9.5842e-05,0
55.313,7.3518e-05,0
55.314,5.4047e-05,0
55.314,3.9109e-05,0
55.315,1.326e-05,0
55.315,-1.5274e-05,0
55.316,-2.182e-05,0
55.316,-5.3712e-06,0
55.317,1.5946e-05,0
55.317,3.1388e-05,0
55.318,4.448e-05,0
55.318,6.244e-05,0
55.319,7.9728e-05,0
55.319,8.2078e-05,0
55.32,6.5629e-05,0
55.32,4.3305e-05,0
55.321,2.5849e-05,0
55.321,7.0497e-06,0
55.322,-3.122e-05,0
55.322,-7.9728e-05,0
55.323,-0.00010625,0
55.324,-9.4499e-05,0
55.324,-5.9754e-05,0
55.325,-3.2563e-05,0
55.325,-1.4603e-05,0
55.326,1.2253e-05,0
55.326,4.4816e-05,0
55.327,6.8818e-05,0
55.327,7.4693e-05,0
55.328,5.8747e-05,0
55.328,3.2731e-05,0
55.329,2.4002e-05,0
55.329,4.448e-05,0
55.33,7.9561e-05,0
55.33,0.000118,0
55.331,0.00015476,0
55.331,0.00016986,0
55.332,0.00015123,0
55.332,0.00011598,0
55.333,8.4092e-05,0
55.333,6.0929e-05,0
55.334,4.6494e-05,0
55.334,3.9612e-05,0
55.335,3.4409e-05,0
55.335,1.9974e-05,0
55.336,-1.2924e-05,0
55.337,-5.9419e-05,0
55.337,-9.9535e-05,0
55.338,-0.00011128,0
55.338,-9.3324e-05,0
55.339,-6.9322e-05,0
55.339,-5.0523e-05,0
55.34,-2.8199e-05,0
55.34,4.5319e-06,0
55.341,4.2802e-05,0
55.341,7.7714e-05,0
55.342,0.0001091,0
55.342,0.00013814,0
55.343,0.00014469,0
55.343,0.00011934,0
55.344,7.3686e-05,0
55.344,1.561e-05,0
55.345,-7.0161e-05,0
55.345,-0.00018077,0
55.346,-0.00025798,0
55.346,-0.00025211,0
55.347,-0.00018866,0
55.347,-0.00012908,0
55.348,-9.2821e-05,0
55.348,-5.7237e-05,0
55.349,-9.2317e-06,0
55.349,4.8844e-05,0
55.35,0.00010927,0
55.351,0.00017037,0
55.351,0.00022777,0
55.352,0.00024926,0
55.352,0.00021317,0
55.353,0.00015291,0
55.353,0.00011263,0
55.354,0.0001086,0
55.354,0.00011716,0
55.355,0.0001086,0
55.355,8.3421e-05,0
55.356,6.009e-05,0
55.356,4.8676e-05,0
55.357,4.5319e-05,0
55.357,4.0116e-05,0
55.358,3.1891e-05,0
55.358,1.5778e-05,0
55.359,-1.796e-05,0
55.359,-5.5222e-05,0
55.36,-6.8315e-05,0
55.36,-4.9851e-05,0
55.361,-2.2324e-05,0
55.361,-1.2924e-05,0
55.362,-2.6184e-05,0
55.362,-4.1794e-05,0
55.363,-4.5823e-05,0
55.364,-4.7837e-05,0
55.364,-5.4719e-05,0
55.365,-6.4286e-05,0
55.365,-7.1336e-05,0
55.366,-6.5461e-05,0
55.366,-3.7095e-05,0
55.367,1.1246e-05,0
55.367,6.5965e-05,0
55.368,0.00010625,0
55.368,0.00011296,0
55.369,9.0806e-05,0
55.369,7.1e-05,0
55.37,5.4215e-05,0
55.37,2.7527e-05,0
55.371,8.5603e-06,0
55.371,1.0575e-05,0
55.372,2.5681e-05,0
55.372,3.7095e-05,0
55.373,3.8102e-05,0
55.373,3.9277e-05,0
55.374,4.3977e-05,0
55.374,3.6088e-05,0
55.375,1.796e-05,0
55.375,1.4267e-05,0
55.376,2.7527e-05,0
55.376,3.2898e-05,0
55.377,1.1749e-05,0
55.378,-2.1988e-05,0
55.378,-4.1794e-05,0
55.379,-3.2898e-05,0
55.379,6.8818e-06,0
55.38,5.4887e-05,0
55.38,7.6707e-05,0
55.381,6.5293e-05,0
55.381,3.3234e-05,0
55.382,-9.0639e-06,0
55.382,-4.5151e-05,0
55.383,-6.3279e-05,0
55.383,-7.335e-05,0
55.384,-8.4932e-05,0
55.384,-9.7017e-05,0
55.385,-9.9031e-05,0
55.385,-8.2078e-05,0
55.386,-4.7166e-05,0
55.386,-8.896e-06,0
55.387,1.1917e-05,0
55.387,1.3931e-05,0
55.388,7.0497e-06,0
55.388,2.3499e-06,0
55.389,9.2317e-06,0
55.389,1.8128e-05,0
55.39,1.0407e-05,0
55.391,-8.5603e-06,0
55.391,-1.5442e-05,0
55.392,6.714e-07,0
55.392,3.3906e-05,0
55.393,7.7043e-05,0
55.393,0.00012874,0
55.394,0.00017607,0
55.394,0.00020243,0
55.395,0.00020108,0
55.395,0.00017607,0
55.396,0.00015258,0
55.396,0.00014855,0
55.397,0.00014788,0
55.397,0.0001321,0
55.398,0.00010709,0
55.398,7.8386e-05,0
55.399,4.9012e-05,0
55.399,2.2995e-05,0
55.4,2.3499e-06,0
55.4,-8.5603e-06,0
55.401,-1.3596e-05,0
55.401,-2.6688e-05,0
55.402,-5.4215e-05,0
55.402,-8.5435e-05,0
55.403,-0.00011095,0
55.403,-0.00012522,0
55.404,-0.00012773,0
55.405,-0.00011615,0
55.405,-9.3828e-05,0
55.406,-7.3686e-05,0
55.406,-5.2537e-05,0
55.407,-1.8967e-05,0
55.407,2.7695e-05,0
55.408,7.6204e-05,0
55.408,0.00011397,0
55.409,0.00014183,0
55.409,0.0001603,0
55.41,0.00016718,0
55.41,0.00016231,0
55.411,0.00014586,0
55.411,0.00012639,0
55.412,0.00011128,0
55.412,9.7688e-05,0
55.413,7.5532e-05,0
55.413,4.4144e-05,0
55.414,5.8747e-06,0
55.414,-3.8605e-05,0
55.415,-7.4022e-05,0
55.415,-7.2679e-05,0
55.416,-3.1724e-05,0
55.416,2.6017e-05,0
55.417,7.2343e-05,0
55.417,8.9632e-05,0
55.418,8.8792e-05,0
55.419,9.1981e-05,0
55.419,9.7017e-05,0
55.42,8.1743e-05,0
55.42,4.2298e-05,0
55.421,-4.1962e-06,0
55.421,-4.6494e-05,0
55.422,-9.0471e-05,0
55.422,-0.00013462,0
55.423,-0.00015895,0
55.423,-0.00015727,0
55.424,-0.00014301,0
55.424,-0.00012673,0
55.425,-0.00010541,0
55.425,-7.9393e-05,0
55.426,-5.7908e-05,0
55.426,-5.0187e-05,0
55.427,-4.9851e-05,0
55.427,-3.7934e-05,0
55.428,-1.796e-05,0
55.428,-1.5106e-06,0
55.429,2.6856e-06,0
55.429,-1.1246e-05,0
55.43,-2.1149e-05,0
55.43,-5.8747e-06,0
55.431,3.0884e-05,0
55.432,7.1672e-05,0
55.432,0.00010323,0
55.433,0.00012068,0
55.433,0.00012337,0
55.434,0.00012035,0
55.434,0.00011598,0
55.435,0.00010726,0
55.435,9.1142e-05,0
55.436,7.0832e-05,0
55.436,5.069e-05,0
55.437,3.4409e-05,0
55.437,7.8889e-06,0
55.438,-3.2059e-05,0
55.438,-6.5629e-05,0
55.439,-7.3014e-05,0
55.439,-6.0258e-05,0
55.44,-4.6662e-05,0
55.44,-3.5248e-05,0
55.441,-2.5177e-05,0
55.441,-2.5849e-05,0
55.442,-4.4816e-05,0
55.442,-6.7308e-05,0
55.443,-7.0665e-05,0
55.443,-5.9922e-05,0
55.444,-4.7166e-05,0
55.444,-3.0045e-05,0
55.445,-4.1962e-06,0
55.446,2.8367e-05,0
55.446,5.7572e-05,0
55.447,8.0064e-05,0
55.447,9.752e-05,0
55.448,0.00010709,0
55.448,0.00011464,0
55.449,0.00012102,0
55.449,0.00011431,0
55.45,9.1142e-05,0
55.45,5.3544e-05,0
55.451,-1.8463e-06,0
55.451,-6.2608e-05,0
55.452,-9.8192e-05,0
55.452,-0.00010188,0
55.453,-8.51e-05,0
55.453,-4.683e-05,0
55.454,2.0645e-05,0
55.454,9.3828e-05,0
55.455,0.00013075,0
55.455,0.00011431,0
55.456,7.9728e-05,0
55.456,6.6133e-05,0
55.457,7.7546e-05,0
55.457,8.5771e-05,0
55.458,8.1239e-05,0
55.459,8.2414e-05,0
55.459,9.3156e-05,0
55.46,0.00010423,0
55.46,0.00012387,0
55.461,0.0001566,0
55.461,0.00018883,0
55.462,0.0002083,0
55.462,0.00020444,0
55.463,0.00017305,0
55.463,0.00013344,0
55.464,0.00010457,0
55.464,8.2078e-05,0
55.465,6.0929e-05,0
55.465,4.5151e-05,0
55.466,3.0716e-05,0
55.466,1.4939e-05,0
55.467,3.6927e-06,0
55.467,1.6785e-06,0
55.468,4.3641e-06,0
55.468,8.5603e-06,0
55.469,2.8534e-06,0
55.469,-2.9374e-05,0
55.47,-6.865e-05,0
55.47,-8.6107e-05,0
55.471,-8.4092e-05,0
55.471,-8.2414e-05,0
55.472,-8.5603e-05,0
55.473,-8.5435e-05,0
55.473,-7.1168e-05,0
55.474,-4.0116e-05,0
55.474,-5.3712e-06,0
55.475,7.5532e-06,0
55.475,1.0071e-06,0
55.476,-9.2317e-06,0
55.476,-1.6953e-05,0
55.477,-1.8296e-05,0
55.477,-1.5106e-06,0
55.478,2.6688e-05,0
55.478,4.3809e-05,0
55.479,4.213e-05,0
55.479,2.9541e-05,0
55.48,8.896e-06,0
55.48,-9.9031e-06,0
55.481,-1.4435e-05,0
55.481,-3.357e-06,0
55.482,1.5274e-05,0
55.482,3.2059e-05,0
55.483,4.1794e-05,0
55.483,4.5487e-05,0
55.484,4.2802e-05,0
55.484,2.6688e-05,0
55.485,6.5461e-06,0
55.486,-6.5461e-06,0
55.486,-2.266e-05,0
55.487,-4.9851e-05,0
55.487,-8.04e-05,0
55.488,-0.00010121,0
55.488,-0.00010608,0
55.489,-9.9535e-05,0
55.489,-8.3757e-05,0
55.49,-5.4887e-05,0
55.49,-1.6281e-05,0
55.491,2.2995e-05,0
55.491,5.153e-05,0
55.492,7.5029e-05,0
55.492,0.00010021,0
55.493,0.00011699,0
55.493,0.00011565,0
55.494,9.1814e-05,0
55.494,5.3208e-05,0
55.495,1.7624e-05,0
55.495,-6.5461e-06,0
55.496,-1.9135e-05,0
55.496,-2.0981e-05,0
55.497,-1.7288e-05,0
55.497,-1.2589e-05,0
55.498,-8.0568e-06,0
55.498,-3.1891e-06,0
55.499,1.5106e-06,0
55.5,4.6998e-06,0
55.5,5.2033e-06,0
55.501,7.0497e-06,0
55.501,1.796e-05,0
55.502,3.5752e-05,0
55.502,4.8844e-05,0
55.503,5.2873e-05,0
55.503,4.5487e-05,0
55.504,3.3066e-05,0
55.504,2.6017e-05,0
55.505,2.6688e-05,0
55.505,2.9877e-05,0
55.506,3.3066e-05,0
55.506,3.9445e-05,0
55.507,4.4984e-05,0
55.507,3.9445e-05,0
55.508,1.9303e-05,0
55.508,-3.357e-07,0
55.509,-7.7211e-06,0
55.509,-1.6785e-07,0
55.51,1.4267e-05,0
55.51,2.7695e-05,0
55.511,4.4144e-05,0
55.511,6.1433e-05,0
55.512,7.6707e-05,0
55.513,8.7617e-05,0
55.513,9.1646e-05,0
55.514,8.275e-05,0
55.514,5.7237e-05,0
55.515,1.8631e-05,0
55.515,-1.8631e-05,0
55.516,-3.592e-05,0
55.516,-3.1891e-05,0
55.517,-2.3499e-05,0
55.517,-2.4674e-05,0
55.518,-3.7095e-05,0
55.518,-5.4887e-05,0
55.519,-6.6636e-05,0
55.519,-6.6972e-05,0
55.52,-5.7908e-05,0
55.52,-4.2802e-05,0
55.521,-2.3331e-05,0
55.521,-6.2104e-06,0
55.522,1.1749e-06,0
55.522,-8.3925e-07,0
55.523,-2.8534e-06,0
55.523,1.6785e-06,0
55.524,-5.0355e-07,0
55.524,-1.1246e-05,0
55.525,-8.2246e-06,0
55.526,1.8631e-05,0
55.526,5.4215e-05,0
55.527,7.9057e-05,0
55.527,8.6442e-05,0
55.528,8.4428e-05,0
55.528,8.9464e-05,0
55.529,0.00010071,0
55.529,0.00010256,0
55.53,9.1142e-05,0
55.53,7.5364e-05,0
55.531,6.3783e-05,0
55.531,5.2537e-05,0
55.532,2.4002e-05,0
55.532,-2.1317e-05,0
55.533,-6.2104e-05,0
55.533,-7.805e-05,0
55.534,-7.1672e-05,0
55.534,-5.8579e-05,0
55.535,-6.4958e-05,0
55.535,-0.00011179,0
55.536,-0.00017003,0
55.536,-0.00018581,0
55.537,-0.00014687,0
55.537,-7.0832e-05,0
55.538,2.7695e-05,0
55.538,0.00012975,0
55.539,0.00021183,0
55.54,0.00024959,0
55.54,0.00023986,0
55.541,0.0002083,0
55.541,0.00019571,0
55.542,0.0002177,0
55.542,0.00023935,0
55.543,0.00023398,0
55.543,0.00022945,0
55.544,0.00024002,0
55.544,0.00022509,0
55.545,0.00016365,0
55.545,9.8192e-05,0
55.546,7.0329e-05,0
55.546,6.2943e-05,0
55.547,4.7501e-05,0
55.547,3.122e-05,0
55.548,3.4409e-05,0
55.548,5.069e-05,0
55.549,5.4215e-05,0
55.549,3.4073e-05,0
55.55,-7.5532e-06,0
55.55,-5.9251e-05,0
55.551,-0.00010558,0
55.551,-0.00013579,0
55.552,-0.00014888,0
55.553,-0.00014653,0
55.553,-0.00013394,0
55.554,-0.00011699,0
55.554,-0.00010021,0
55.555,-8.51e-05,0
55.555,-7.0665e-05,0
55.556,-5.5894e-05,0
55.556,-3.6759e-05,0
55.557,-2.0645e-05,0
55.557,-1.6281e-05,0
55.558,-1.1078e-05,0
55.558,6.2104e-06,0
55.559,2.4002e-05,0
55.559,2.5177e-05,0
55.56,1.1917e-05,0
55.56,6.2104e-06,0
55.561,1.6953e-05,0
55.561,3.4577e-05,0
55.562,4.5151e-05,0
55.562,4.7333e-05,0
55.563,5.0858e-05,0
55.563,5.623e-05,0
55.564,5.3544e-05,0
55.564,3.9612e-05,0
55.565,1.4267e-05,0
55.565,-2.501e-05,0
55.566,-7.2343e-05,0
55.567,-0.00011783,0
55.567,-0.00015526,0
55.568,-0.00017758,0
55.568,-0.00017943,0
55.569,-0.0001566,0
55.569,-0.0001091,0
55.57,-4.8676e-05,0
55.57,9.7353e-06,0
55.571,7.2007e-05,0
55.571,0.00013915,0
55.572,0.00017137,0
55.572,0.00016802,0
55.573,0.00016147,0
55.573,0.00015425,0
55.574,0.00012505,0
55.574,6.9322e-05,0
55.575,-5.0355e-07,0
55.575,-5.8244e-05,0
55.576,-7.5364e-05,0
55.576,-4.7166e-05,0
55.577,7.7211e-06,0
55.577,7.3686e-05,0
55.578,0.00013545,0
55.578,0.00016768,0
55.579,0.00014284,0
55.58,7.335e-05,0
55.58,2.031e-05,0
55.581,1.8631e-05,0
55.581,4.6494e-05,0
55.582,6.6636e-05,0
55.582,6.5797e-05,0
55.583,3.0381e-05,0
55.583,-2.9038e-05,0
55.584,-8.0735e-05,0
55.584,-9.5171e-05,0
55.585,-5.6565e-05,0
55.585,1.8631e-05,0
55.586,8.9799e-05,0
55.586,0.00012773,0
55.587,0.00014435,0
55.587,0.00016667,0
55.588,0.00019705,0
55.588,0.00020293,0
55.589,0.00016634,0
55.589,9.9535e-05,0
55.59,2.8702e-05,0
55.59,-2.4002e-05,0
55.591,-5.153e-05,0
55.591,-4.8173e-05,0
55.592,-3.0549e-05,0
55.592,-1.8967e-05,0
55.593,-6.714e-06,0
55.594,1.1078e-05,0
55.594,2.6352e-05,0
55.595,3.6088e-05,0
55.595,4.6494e-05,0
55.596,5.774e-05,0
55.596,6.3615e-05,0
55.597,5.8244e-05,0
55.597,4.3473e-05,0
55.598,2.3667e-05,0
55.598,-2.0142e-06,0
55.599,-3.6423e-05,0
55.599,-7.0497e-05,0
55.6,-9.0303e-05,0
55.6,-9.9031e-05,0
55.601,-0.00010961,0
55.601,-0.00012924,0
55.602,-0.00014855,0
55.602,-0.00015744,0
55.603,-0.00014922,0
55.603,-0.0001284,0
55.604,-0.00011363,0
55.604,-0.00011246,0
55.605,-0.00011498,0
55.605,-0.00011044,0
55.606,-9.752e-05,0
55.606,-8.2414e-05,0
55.607,-6.0761e-05,0
55.608,-2.9709e-05,0
55.608,-3.1891e-06,0
55.609,1.3596e-05,0
55.609,3.2563e-05,0
55.61,6.2608e-05,0
55.61,9.0806e-05,0
55.611,9.752e-05,0
55.611,9.0471e-05,0
55.612,8.8121e-05,0
55.612,8.5435e-05,0
55.613,7.1672e-05,0
55.613,5.8915e-05,0
55.614,5.8915e-05,0
55.614,7.3686e-05,0
55.615,0.00010105,0
55.615,0.00012874,0
55.616,0.00014385,0
55.616,0.00013445,0
55.617,0.0001034,0
55.617,6.6636e-05,0
55.618,3.8437e-05,0
55.618,1.5946e-05,0
55.619,6.714e-07,0
55.619,-2.8534e-06,0
55.62,8.2246e-06,0
55.621,2.3331e-05,0
55.621,3.2395e-05,0
55.622,3.1724e-05,0
55.622,2.417e-05,0
55.623,2.3331e-05,0
55.623,2.9374e-05,0
55.624,2.8702e-05,0
55.624,2.1317e-05,0
55.625,1.9638e-05,0
55.625,1.8631e-05,0
55.626,-6.8818e-06,0
55.626,-6.0929e-05,0
55.627,-0.00011481,0
55.627,-0.00014385,0
55.628,-0.00014183,0
55.628,-0.00012102,0
55.629,-9.0135e-05,0
55.629,-3.8102e-05,0
55.63,3.2731e-05,0
55.63,0.00010088,0
55.631,0.00016281,0
55.631,0.00023079,0
55.632,0.0003033,0
55.632,0.00035299,0
55.633,0.00035164,0
55.633,0.00030599,0
55.634,0.00024187,0
55.635,0.00017775,0
55.635,0.00012169,0
55.636,6.8315e-05,0
55.636,1.1582e-05,0
55.637,-3.7095e-05,0
55.637,-4.8844e-05,0
55.638,-2.5849e-05,0
55.638,9.9031e-06,0
55.639,4.1962e-05,0
55.639,5.7404e-05,0
55.64,5.8915e-05,0
55.64,5.3544e-05,0
55.641,4.5487e-05,0
55.641,3.3906e-05,0
55.642,1.9806e-05,0
55.642,4.5319e-06,0
55.643,-9.0639e-06,0
55.643,-1.8967e-05,0
55.644,-2.7359e-05,0
55.644,-3.8773e-05,0
55.645,-5.4215e-05,0
55.645,-6.6636e-05,0
55.646,-6.7308e-05,0
55.646,-6.3279e-05,0
55.647,-6.714e-05,0
55.648,-7.7714e-05,0
55.648,-8.5435e-05,0
55.649,-9.8863e-05,0
55.649,-0.00011044,0
55.65,-9.7017e-05,0
55.65,-5.7908e-05,0
55.651,-9.3996e-06,0
55.651,2.9206e-05,0
55.652,4.8508e-05,0
55.652,6.4286e-05,0
55.653,8.1743e-05,0
55.653,7.1672e-05,0
55.654,2.3667e-05,0
55.654,-2.9374e-05,0
55.655,-4.5991e-05,0
55.655,-2.7863e-05,0
55.656,-2.0142e-06,0
55.656,1.326e-05,0
55.657,2.1149e-05,0
55.657,3.6255e-05,0
55.658,6.0258e-05,0
55.658,8.3925e-05,0
55.659,9.8863e-05,0
55.659,0.00010726,0
55.66,9.7185e-05,0
55.66,5.5726e-05,0
55.661,7.8889e-06,0
55.662,-2.3499e-05,0
55.662,-4.5487e-05,0
55.663,-5.9754e-05,0
55.663,-5.2369e-05,0
55.664,-2.7024e-05,0
55.664,-1.5106e-06,0
55.665,1.2924e-05,0
55.665,1.796e-05,0
55.666,1.2924e-05,0
55.666,4.5319e-06,0
55.667,-2.182e-06,0
55.667,-1.4267e-05,0
55.668,-3.3402e-05,0
55.668,-4.6998e-05,0
55.669,-4.0787e-05,0
55.669,-2.4338e-05,0
55.67,-1.326e-05,0
55.67,-1.6617e-05,0
55.671,-2.8031e-05,0
55.671,-3.0045e-05,0
55.672,-1.796e-05,0
55.672,-5.2033e-06,0
55.673,1.0071e-06,0
55.673,3.0213e-06,0
55.674,-8.0568e-06,0
55.675,-2.4002e-05,0
55.675,-2.2324e-05,0
55.676,-1.1749e-06,0
55.676,1.7792e-05,0
55.677,1.9974e-05,0
55.677,6.5461e-06,0
55.678,-1.1582e-05,0
55.678,-2.4002e-05,0
55.679,-3.4745e-05,0
55.679,-4.9516e-05,0
55.68,-6.5629e-05,0
55.68,-7.5868e-05,0
55.681,-7.7043e-05,0
55.681,-6.1936e-05,0
55.682,-2.2828e-05,0
55.682,3.5752e-05,0
55.683,0.00010541,0
55.683,0.00016936,0
55.684,0.00020897,0
55.684,0.0002271,0
55.685,0.00023734,0
55.685,0.00023734,0
55.686,0.00021619,0
55.686,0.00018044,0
55.687,0.00014737,0
55.688,0.00012471,0
55.688,0.00011061,0
55.689,0.0001039,0
55.689,0.00010893,0
55.69,0.00012706,0
55.69,0.00014368,0
55.691,0.00013915,0
55.691,0.00011061,0
55.692,7.2007e-05,0
55.692,3.8773e-05,0
55.693,1.7624e-05,0
55.693,-3.357e-07,0
55.694,-2.2324e-05,0
55.694,-3.508e-05,0
55.695,-2.5513e-05,0
55.695,-1.0407e-05,0
55.696,-6.5461e-06,0
55.696,-1.7624e-05,0
55.697,-1.8296e-05,0
55.697,9.0639e-06,0
55.698,4.4648e-05,0
55.698,6.1265e-05,0
55.699,5.8915e-05,0
55.699,4.5991e-05,0
55.7,2.4674e-05,0
55.7,-4.3641e-06,0
55.701,-3.4577e-05,0
55.702,-5.2705e-05,0
55.702,-5.4383e-05,0
55.703,-4.6326e-05,0
55.703,-3.8102e-05,0
55.704,-3.1052e-05,0
55.704,-2.4674e-05,0
55.705,-2.7695e-05,0
55.705,-4.5151e-05,0
55.706,-7.0665e-05,0
55.706,-9.3828e-05,0
55.707,-0.00010272,0
55.707,-9.0135e-05,0
55.708,-5.9419e-05,0
55.708,-2.8702e-05,0
55.709,-1.1917e-05,0
55.709,-7.0497e-06,0
55.71,-7.2175e-06,0
55.71,-9.9031e-06,0
55.711,-1.796e-05,0
55.711,-2.9709e-05,0
55.712,-3.592e-05,0
55.712,-2.5681e-05,0
55.713,-6.714e-07,0
55.713,2.266e-05,0
55.714,3.2059e-05,0
55.715,2.9877e-05,0
55.715,1.5946e-05,0
55.716,-6.2104e-06,0
55.716,-2.0645e-05,0
55.717,-1.9806e-05,0
55.717,-1.1749e-05,0
55.718,1.5106e-06,0
55.718,2.3331e-05,0
55.719,4.7669e-05,0
55.719,6.2776e-05,0
55.72,6.3279e-05,0
55.72,5.6565e-05,0
55.721,5.2033e-05,0
55.721,4.7333e-05,0
55.722,3.508e-05,0
55.722,2.7359e-05,0
55.723,4.1459e-05,0
55.723,6.5629e-05,0
55.724,7.5532e-05,0
55.724,6.5797e-05,0
55.725,5.2369e-05,0
55.725,4.2802e-05,0
55.726,3.2395e-05,0
55.726,1.4267e-05,0
55.727,-8.2246e-06,0
55.727,-2.501e-05,0
55.728,-2.9206e-05,0
55.729,-2.2995e-05,0
55.729,-1.2924e-05,0
55.73,2.0142e-06,0
55.73,2.266e-05,0
55.731,5.0019e-05,0
55.731,8.04e-05,0
55.732,0.00010054,0
55.732,9.5171e-05,0
55.733,6.865e-05,0
55.733,4.2466e-05,0
55.734,3.1724e-05,0
55.734,3.0381e-05,0
55.735,3.2731e-05,0
55.735,4.1962e-05,0
55.736,4.0116e-05,0
55.736,1.5946e-05,0
55.737,-1.8967e-05,0
55.737,-4.8005e-05,0
55.738,-6.4286e-05,0
55.738,-6.8818e-05,0
55.739,-6.1601e-05,0
55.739,-4.7333e-05,0
55.74,-3.4241e-05,0
55.74,-1.9806e-05,0
55.741,5.539e-06,0
55.742,4.1459e-05,0
55.742,8.2582e-05,0
55.743,0.000118,0
55.743,0.0001378,0
55.744,0.00013747,0
55.744,0.00012203,0
55.745,9.5171e-05,0
55.745,5.9586e-05,0
55.746,1.9806e-05,0
55.746,-1.2253e-05,0
55.747,-3.4073e-05,0
55.747,-7.1168e-05,0
55.748,-0.00013613,0
55.748,-0.00018279,0
55.749,-0.00017037,0
55.749,-0.00011464,0
55.75,-4.4816e-05,0
55.75,1.9303e-05,0
55.751,7.2679e-05,0
55.751,0.00012068,0
55.752,0.00016886,0
55.752,0.00020897,0
55.753,0.00023616,0
55.753,0.00025631,0
55.754,0.00024959,0
55.754,0.00019857,0
55.755,0.00013075,0
55.756,8.0232e-05,0
55.756,4.6494e-05,0
55.757,1.4435e-05,0
55.757,-1.4099e-05,0
55.758,-2.4338e-05,0
55.758,-1.7288e-05,0
55.759,-5.539e-06,0
55.759,5.2033e-06,0
55.76,1.4267e-05,0
55.76,1.7456e-05,0
55.761,1.4435e-05,0
55.761,9.2317e-06,0
55.762,4.8676e-06,0
55.762,1.6785e-07,0
55.763,-5.2033e-06,0
55.763,-1.2253e-05,0
55.764,-2.2156e-05,0
55.764,-2.9206e-05,0
55.765,-3.2395e-05,0
55.765,-3.1052e-05,0
55.766,-2.2156e-05,0
55.766,3.8605e-06,0
55.767,4.2802e-05,0
55.767,7.5364e-05,0
55.768,9.1814e-05,0
55.769,9.1142e-05,0
55.769,7.3686e-05,0
55.77,4.7669e-05,0
55.77,2.3667e-05,0
55.771,3.5248e-06,0
55.771,-6.2104e-06,0
55.772,-9.9031e-06,0
55.772,-2.6352e-05,0
55.773,-4.4816e-05,0
55.773,-5.7908e-05,0
55.774,-6.1936e-05,0
55.774,-5.6062e-05,0
55.775,-4.8173e-05,0
55.775,-3.6255e-05,0
55.776,-7.8889e-06,0
55.776,3.3906e-05,0
55.777,7.0161e-05,0
55.777,8.7114e-05,0
55.778,8.8457e-05,0
55.778,6.5461e-05,0
55.779,1.6281e-05,0
55.779,-2.7024e-05,0
55.78,-3.978e-05,0
55.78,-4.213e-05,0
55.781,-5.8579e-05,0
55.781,-8.4428e-05,0
55.782,-0.00010037,0
55.783,-0.00010121,0
55.783,-8.7449e-05,0
55.784,-6.3951e-05,0
55.784,-3.6088e-05,0
55.785,-1.0239e-05,0
55.785,5.2033e-06,0
55.786,9.2317e-06,0
55.786,9.2317e-06,0
55.787,9.7353e-06,0
55.787,1.2253e-05,0
55.788,1.6617e-05,0
55.788,1.9638e-05,0
55.789,1.8128e-05,0
55.789,1.0071e-05,0
55.79,-2.5177e-06,0
55.79,-1.4939e-05,0
55.791,-2.9038e-05,0
55.791,-3.122e-05,0
55.792,-9.9031e-06,0
55.792,2.4338e-05,0
55.793,5.4215e-05,0
55.793,7.4022e-05,0
55.794,8.7617e-05,0
55.794,0.00010088,0
55.795,0.00011766,0
55.795,0.00013243,0
55.796,0.00013344,0
55.797,0.00011733,0
55.797,9.1142e-05,0
55.798,6.009e-05,0
55.798,2.9038e-05,0
55.799,5.0355e-07,0
55.799,-1.5946e-05,0
55.8,-1.5778e-05,0
55.8,-1.3931e-05,0
55.801,-1.7288e-05,0
55.801,-1.1078e-05,0
55.802,9.5674e-06,0
55.802,3.4745e-05,0
55.803,5.4215e-05,0
55.803,6.0929e-05,0
55.804,5.623e-05,0
55.804,4.8005e-05,0
55.805,4.1459e-05,0
55.805,3.6591e-05,0
55.806,3.1556e-05,0
55.806,2.9038e-05,0
55.807,2.501e-05,0
55.807,2.1317e-05,0
55.808,2.0981e-05,0
55.808,2.182e-05,0
55.809,2.2492e-05,0
55.81,1.9303e-05,0
55.81,8.5603e-06,0
55.811,-6.714e-06,0
55.811,-1.5946e-05,0
55.812,-1.561e-05,0
55.812,-1.0407e-05,0
55.813,-8.3925e-07,0
55.813,1.1582e-05,0
55.814,2.2156e-05,0
55.814,3.2563e-05,0
55.815,4.1794e-05,0
55.815,4.6159e-05,0
55.816,5.2201e-05,0
55.816,6.2104e-05,0
55.817,6.6972e-05,0
55.817,6.1601e-05,0
55.818,5.1362e-05,0
55.818,3.6759e-05,0
55.819,1.326e-05,0
55.819,-2.0645e-05,0
55.82,-5.3208e-05,0
55.82,-6.8986e-05,0
55.821,-6.9993e-05,0
55.821,-6.7308e-05,0
55.822,-6.7475e-05,0
55.822,-6.7811e-05,0
55.823,-5.9754e-05,0
55.824,-3.5584e-05,0
55.824,1.1749e-06,0
55.825,3.7766e-05,0
55.825,6.9657e-05,0
55.826,9.6513e-05,0
55.826,0.00010843,0
55.827,0.00010188,0
55.827,9.6178e-05,0
55.828,0.00010054,0
55.828,0.00010457,0
55.829,8.8289e-05,0
55.829,4.8005e-05,0
55.83,3.8605e-06,0
55.83,-2.5345e-05,0
55.831,-4.0452e-05,0
55.831,-4.1123e-05,0
55.832,-2.3331e-05,0
55.832,2.182e-06,0
55.833,1.6785e-05,0
55.833,1.9638e-05,0
55.834,2.4002e-05,0
55.834,4.1459e-05,0
55.835,6.7643e-05,0
55.835,8.3421e-05,0
55.836,8.3757e-05,0
55.837,7.4861e-05,0
55.837,6.1936e-05,0
55.838,5.5222e-05,0
55.838,6.5629e-05,0
55.839,7.57e-05,0
55.839,5.8747e-05,0
55.84,4.213e-05,0
55.84,5.2537e-05,0
55.841,7.3686e-05,0
55.841,9.8024e-05,0
55.842,0.00014049,0
55.842,0.00018833,0
55.843,0.00020125,0
55.843,0.000165,0
55.844,0.00010423,0
55.844,6.1601e-05,0
55.845,5.0019e-05,0
55.845,4.4816e-05,0
55.846,2.0813e-05,0
55.846,-1.6281e-05,0
55.847,-3.4745e-05,0
55.847,-3.4073e-05,0
55.848,-4.918e-05,0
55.848,-8.4596e-05,0
55.849,-0.00011514,0
55.849,-0.00013378,0
55.85,-0.00015039,0
55.851,-0.00015711,0
55.851,-0.00013999,0
55.852,-0.00010927,0
55.852,-7.9393e-05,0
55.853,-5.7237e-05,0
55.853,-4.448e-05,0
55.854,-3.4745e-05,0
55.854,-2.182e-05,0
55.855,-5.2033e-06,0
55.855,1.2253e-05,0
55.856,2.8367e-05,0
55.856,4.683e-05,0
55.857,6.6804e-05,0
55.857,7.8386e-05,0
55.858,7.7043e-05,0
55.858,6.7979e-05,0
55.859,5.3544e-05,0
55.859,3.8773e-05,0
55.86,2.7695e-05,0
55.86,1.3931e-05,0
55.861,-8.5603e-06,0
55.861,-4.1962e-05,0
55.862,-6.8986e-05,0
55.862,-6.1936e-05,0
55.863,-2.1653e-05,0
55.864,3.2059e-05,0
55.864,8.04e-05,0
55.865,0.00010994,0
55.865,0.00010826,0
55.866,7.1336e-05,0
55.866,2.2324e-05,0
55.867,0,0
55.867,1.6953e-05,0
55.868,4.6159e-05,0
55.868,5.7069e-05,0
55.869,5.2033e-05,0
55.869,4.3641e-05,0
55.87,3.4745e-05,0
55.87,1.8128e-05,0
55.871,-1.5442e-05,0
55.871,-5.4551e-05,0
55.872,-8.0735e-05,0
55.872,-0.00010289,0
55.873,-0.0001373,0
55.873,-0.00016835,0
55.874,-0.00017121,0
55.874,-0.00014435,0
55.875,-9.7017e-05,0
55.875,-4.1459e-05,0
55.876,1.3764e-05,0
55.877,6.4286e-05,0
55.877,0.0001039,0
55.878,0.00012169,0
55.878,0.00011447,0
55.879,9.7856e-05,0
55.879,8.9799e-05,0
55.88,0.00010021,0
55.88,0.00012387,0
55.881,0.00014116,0
55.881,0.00012874,0
55.882,8.4764e-05,0
55.882,2.8367e-05,0
55.883,-1.9974e-05,0
55.883,-5.1362e-05,0
55.884,-6.4118e-05,0
55.884,-5.8076e-05,0
55.885,-4.0787e-05,0
55.885,-2.5177e-05,0
55.886,-1.4099e-05,0
55.886,-3.8605e-06,0
55.887,1.1078e-05,0
55.887,3.0381e-05,0
55.888,3.6927e-05,0
55.888,2.3835e-05,0
55.889,8.896e-06,0
55.889,8.5603e-06,0
55.89,1.7121e-05,0
55.891,1.9135e-05,0
55.891,1.4435e-05,0
55.892,1.561e-05,0
55.892,3.3066e-05,0
55.893,6.6133e-05,0
55.893,0.00010222,0
55.894,0.00012605,0
55.894,0.00013378,0
55.895,0.00012337,0
55.895,9.9199e-05,0
55.896,7.0329e-05,0
55.896,3.5416e-05,0
55.897,-3.6927e-06,0
55.897,-3.1052e-05,0
55.898,-3.0045e-05,0
55.898,-5.0355e-06,0
55.899,3.4745e-05,0
55.899,8.6778e-05,0
55.9,0.00013915,0
55.9,0.0001702,0
55.901,0.00017305,0
55.901,0.00016231,0
55.902,0.00015727,0
55.902,0.00015996,0
55.903,0.00015106,0
55.904,0.00010994,0
55.904,4.5487e-05,0
55.905,-1.8463e-05,0
55.905,-6.4622e-05,0
55.906,-9.4667e-05,0
55.906,-0.00011246,0
55.907,-0.00011968,0
55.907,-0.00012102,0
55.908,-0.00010927,0
55.908,-7.0832e-05,0
55.909,-1.796e-05,0
55.909,2.2995e-05,0
55.91,4.3809e-05,0
55.91,5.153e-05,0
55.911,4.8508e-05,0
55.911,3.8605e-05,0
55.912,3.122e-05,0
55.912,2.8031e-05,0
55.913,1.1414e-05,0
55.913,-1.5106e-05,0
55.914,-3.508e-05,0
55.914,-4.8005e-05,0
55.915,-5.9251e-05,0
55.915,-6.3783e-05,0
55.916,-5.9083e-05,0
55.916,-4.9012e-05,0
55.917,-3.6423e-05,0
55.918,-2.5177e-05,0
55.918,-2.0981e-05,0
55.919,-1.9303e-05,0
55.919,-1.1078e-05,0
55.92,4.1962e-06,0
55.92,1.326e-05,0
55.921,1.1246e-05,0
55.921,1.2421e-05,0
55.922,1.8296e-05,0
55.922,1.8296e-05,0
55.923,1.1246e-05,0
55.923,5.0355e-07,0
55.924,-5.8747e-06,0
55.924,-3.5248e-06,0
55.925,3.8605e-06,0
55.925,9.5674e-06,0
55.926,1.0575e-05,0
55.926,1.1078e-05,0
55.927,1.4603e-05,0
55.927,1.9974e-05,0
55.928,3.3402e-05,0
55.928,6.0761e-05,0
55.929,8.9128e-05,0
55.929,0.00010121,0
55.93,9.1646e-05,0
55.931,7.1e-05,0
55.931,4.5319e-05,0
55.932,1.9303e-05,0
55.932,3.357e-07,0
55.933,-6.2104e-06,0
55.933,-2.182e-06,0
55.934,4.1962e-06,0
55.934,7.2175e-06,0
55.935,7.8889e-06,0
55.935,6.2104e-06,0
55.936,4.3641e-06,0
55.936,9.9031e-06,0
55.937,3.0884e-05,0
55.937,7.0161e-05,0
55.938,0.00011313,0
55.938,0.0001368,0
55.939,0.00014083,0
55.939,0.00013059,0
55.94,9.6513e-05,0
55.94,5.3544e-05,0
55.941,3.1052e-05,0
55.941,3.3402e-05,0
55.942,3.508e-05,0
55.942,2.4674e-05,0
55.943,1.2589e-05,0
55.943,8.896e-06,0
55.944,1.8631e-05,0
55.945,3.4745e-05,0
55.945,4.448e-05,0
55.946,5.0523e-05,0
55.946,6.0761e-05,0
55.947,7.0161e-05,0
55.947,6.2104e-05,0
55.948,3.4745e-05,0
55.948,5.8747e-06,0
55.949,-1.8967e-05,0
55.949,-4.3473e-05,0
55.95,-6.714e-05,0
55.95,-8.7282e-05,0
55.951,-0.00010323,0
55.951,-0.00010877,0
55.952,-0.00010625,0
55.952,-0.00010709,0
55.953,-0.00011095,0
55.953,-0.00010021,0
55.954,-6.4286e-05,0
55.954,-7.2175e-06,0
55.955,4.7669e-05,0
55.955,6.6972e-05,0
55.956,4.5991e-05,0
55.956,1.1246e-05,0
55.957,-1.2924e-05,0
55.958,-1.796e-05,0
55.958,-1.0575e-05,0
55.959,-2.5177e-06,0
55.959,4.6998e-06,0
55.96,9.0639e-06,0
55.96,1.3596e-05,0
55.961,2.2324e-05,0
55.961,3.7934e-05,0
55.962,6.2104e-05,0
55.962,8.6778e-05,0
55.963,9.9702e-05,0
55.963,9.9702e-05,0
55.964,0.00010054,0
55.964,0.00011531,0
55.965,0.00013663,0
55.965,0.00014553,0
55.966,0.00013613,0
55.966,0.00011666,0
55.967,0.00010323,0
55.967,0.00010574,0
55.968,0.00011179,0
55.968,9.987e-05,0
55.969,6.9657e-05,0
55.969,4.062e-05,0
55.97,2.8702e-05,0
55.97,1.9135e-05,0
55.971,-1.3931e-05,0
55.972,-5.388e-05,0
55.972,-6.7979e-05,0
55.973,-6.7811e-05,0
55.973,-7.9057e-05,0
55.974,-0.00010088,0
55.974,-0.00010977,0
55.975,-9.2149e-05,0
55.975,-7.3518e-05,0
55.976,-7.6204e-05,0
55.976,-8.275e-05,0
55.977,-7.0665e-05,0
55.977,-3.9445e-05,0
55.978,6.8818e-06,0
55.978,6.4958e-05,0
55.979,0.000118,0
55.979,0.00014452,0
55.98,0.00013646,0
55.98,0.00011112,0
55.981,9.9199e-05,0
55.981,0.00011447,0
55.982,0.00013814,0
55.982,0.00014485,0
55.983,0.00012874,0
55.983,9.8527e-05,0
55.984,7.1336e-05,0
55.984,4.5487e-05,0
55.985,3.0549e-05,0
55.986,3.6088e-05,0
55.986,4.8844e-05,0
55.987,4.8173e-05,0
55.987,1.5946e-05,0
55.988,-4.1962e-05,0
55.988,-9.1478e-05,0
55.989,-0.00011481,0
55.989,-0.00010205,0
55.99,-6.5461e-05,0
55.99,-3.4745e-05,0
55.991,-2.266e-05,0
55.991,-2.031e-05,0
55.992,-1.4435e-05,0
55.992,-1.0071e-06,0
55.993,7.2175e-06,0
55.993,-5.0355e-06,0
55.994,-2.9038e-05,0
55.994,-4.7166e-05,0
55.995,-6.1936e-05,0
55.995,-7.5364e-05,0
55.996,-8.0232e-05,0
55.996,-7.4357e-05,0
55.997,-6.7308e-05,0
55.997,-6.63e-05,0
55.998,-6.63e-05,0
55.999,-6.1265e-05,0
55.999,-5.4047e-05,0
56,-4.2298e-05,0
56,-2.4842e-05,0
56.001,-7.8889e-06,0
56.001,1.6785e-07,0
56.002,9.0639e-06,0
56.002,2.5345e-05,0
56.003,3.592e-05,0
56.003,2.7695e-05,0
56.004,8.5603e-06,0
56.004,-5.539e-06,0
56.005,-7.8889e-06,0
56.005,-7.5532e-06,0
56.006,-1.6281e-05,0
56.006,-1.0239e-05,0
56.007,3.5752e-05,0
56.007,9.9199e-05,0
56.008,0.00014485,0
56.008,0.00016332,0
56.009,0.00016802,0
56.009,0.00017708,0
56.01,0.00019135,0
56.01,0.00020226,0
56.011,0.00020125,0
56.011,0.00018195,0
56.012,0.00014435,0
56.013,0.00010155,0
56.013,6.4286e-05,0
56.014,2.9709e-05,0
56.014,3.357e-07,0
56.015,-1.561e-05,0
56.015,-1.6281e-05,0
56.016,-6.5461e-06,0
56.016,1.8463e-06,0
56.017,6.2104e-06,0
56.017,7.2175e-06,0
56.018,3.1891e-06,0
56.018,-1.2253e-05,0
56.019,-3.9612e-05,0
56.019,-7.0329e-05,0
56.02,-8.661e-05,0
56.02,-8.6107e-05,0
56.021,-7.8721e-05,0
56.021,-7.4861e-05,0
56.022,-7.2175e-05,0
56.022,-6.1601e-05,0
56.023,-4.0452e-05,0
56.023,-2.0478e-05,0
56.024,3.357e-06,0
56.024,5.1362e-05,0
56.025,0.00010591,0
56.026,0.00013747,0
56.026,0.00014452,0
56.027,0.0001378,0
56.027,0.00012287,0
56.028,0.0001044,0
56.028,8.1407e-05,0
56.029,5.5055e-05,0
56.029,2.6352e-05,0
56.03,-4.1962e-06,0
56.03,-2.6688e-05,0
56.031,-3.6927e-05,0
56.031,-4.8173e-05,0
56.032,-7.1e-05,0
56.032,-9.6849e-05,0
56.033,-0.00011061,0
56.033,-0.00010692,0
56.034,-8.3085e-05,0
56.034,-4.1291e-05,0
56.035,9.5674e-06,0
56.035,5.8915e-05,0
56.036,0.00010121,0
56.036,0.00013411,0
56.037,0.00016332,0
56.037,0.00019655,0
56.038,0.00023113,0
56.038,0.00024154,0
56.039,0.00020897,0
56.04,0.00014737,0
56.04,8.4092e-05,0
56.041,3.8773e-05,0
56.041,2.7695e-05,0
56.042,3.3402e-05,0
56.042,3.4073e-05,0
56.043,3.6759e-05,0
56.043,5.1362e-05,0
56.044,7.5532e-05,0
56.044,0.0001086,0
56.045,0.00013445,0
56.045,0.00012622,0
56.046,9.3492e-05,0
56.046,6.4286e-05,0
56.047,3.743e-05,0
56.047,-1.3764e-05,0
56.048,-0.00010826,0
56.048,-0.00020545,0
56.049,-0.0002318,0
56.049,-0.00017641,0
56.05,-9.2821e-05,0
56.05,-3.6759e-05,0
56.051,-2.6017e-05,0
56.051,-3.6423e-05,0
56.052,-3.7766e-05,0
56.053,-3.3402e-05,0
56.053,-3.5248e-05,0
56.054,-4.8005e-05,0
56.054,-5.7572e-05,0
56.055,-5.5222e-05,0
56.055,-6.6804e-05,0
56.056,-0.00011061,0
56.056,-0.00015845,0
56.057,-0.00017624,0
56.057,-0.00015996,0
56.058,-0.00012656,0
56.058,-9.3492e-05,0
56.059,-5.7572e-05,0
56.059,-6.5461e-06,0
56.06,6.0258e-05,0
56.06,0.00012102,0
56.061,0.00015258,0
56.061,0.0001519,0
56.062,0.00013881,0
56.062,0.00012303,0
56.063,0.00010491,0
56.063,9.2988e-05,0
56.064,9.1478e-05,0
56.064,9.4499e-05,0
56.065,9.987e-05,0
56.066,0.00010491,0
56.066,0.00010054,0
56.067,8.5771e-05,0
56.067,6.0929e-05,0
56.068,2.8031e-05,0
56.068,-5.0355e-07,0
56.069,-1.2924e-05,0
56.069,-8.2246e-06,0
56.07,-2.5177e-06,0
56.07,-1.0239e-05,0
56.071,-2.4674e-05,0
56.071,-3.7934e-05,0
56.072,-5.2537e-05,0
56.072,-6.6636e-05,0
56.073,-6.7979e-05,0
56.073,-5.6062e-05,0
56.074,-4.0787e-05,0
56.074,-2.5681e-05,0
56.075,-9.2317e-06,0
56.075,6.3783e-06,0
56.076,1.8967e-05,0
56.076,2.9038e-05,0
56.077,3.6759e-05,0
56.077,4.3809e-05,0
56.078,4.8676e-05,0
56.078,5.0523e-05,0
56.079,4.8844e-05,0
56.08,4.2802e-05,0
56.08,3.743e-05,0
56.081,3.508e-05,0
56.081,3.1052e-05,0
56.082,2.0645e-05,0
56.082,7.2175e-06,0
56.083,-3.5248e-06,0
56.083,-8.2246e-06,0
56.084,-8.2246e-06,0
56.084,-7.3854e-06,0
56.085,-9.7353e-06,0
56.085,-1.8463e-05,0
56.086,-2.417e-05,0
56.086,-1.3596e-05,0
56.087,7.8889e-06,0
56.087,3.3402e-05,0
56.088,6.3951e-05,0
56.088,9.2485e-05,0
56.089,0.00011095,0
56.089,0.00011397,0
56.09,0.00011095,0
56.09,0.00011464,0
56.091,0.00012505,0
56.091,0.0001321,0
56.092,0.00012773,0
56.093,0.00011699,0
56.093,0.00010776,0
56.094,9.4835e-05,0
56.094,6.8482e-05,0
56.095,3.1052e-05,0
56.095,-7.2175e-06,0
56.096,-3.122e-05,0
56.096,-3.508e-05,0
56.097,-3.0045e-05,0
56.097,-2.9038e-05,0
56.098,-2.1988e-05,0
56.098,-1.1582e-05,0
56.099,-2.6352e-05,0
56.099,-5.8076e-05,0
56.1,-6.63e-05,0
56.1,-3.7598e-05,0
56.101,9.9031e-06,0
56.101,5.4719e-05,0
56.102,8.5771e-05,0
56.102,0.00010155,0
56.103,0.00010457,0
56.103,0.00010306,0
56.104,9.9535e-05,0
56.104,9.1646e-05,0
56.105,7.4022e-05,0
56.105,5.623e-05,0
56.106,4.4144e-05,0
56.107,2.5681e-05,0
56.107,-1.4099e-05,0
56.108,-6.9993e-05,0
56.108,-0.00010172,0
56.109,-7.5868e-05,0
56.109,-1.8631e-05,0
56.11,3.0716e-05,0
56.11,5.3208e-05,0
56.111,5.3544e-05,0
56.111,5.2873e-05,0
56.112,5.9586e-05,0
56.112,6.6133e-05,0
56.113,7.0832e-05,0
56.113,7.2175e-05,0
56.114,6.9993e-05,0
56.114,6.5293e-05,0
56.115,6.5629e-05,0
56.115,7.7714e-05,0
56.116,9.0303e-05,0
56.116,8.5771e-05,0
56.117,6.9657e-05,0
56.117,4.683e-05,0
56.118,1.8967e-05,0
56.118,-6.8818e-06,0
56.119,-2.3163e-05,0
56.12,-3.8437e-05,0
56.12,-5.9419e-05,0
56.121,-8.7449e-05,0
56.121,-0.00011565,0
56.122,-0.00012773,0
56.122,-0.00011699,0
56.123,-9.4331e-05,0
56.123,-7.6875e-05,0
56.124,-7.0832e-05,0
56.124,-6.4622e-05,0
56.125,-4.1291e-05,0
56.125,-1.2085e-05,0
56.126,-1.326e-05,0
56.126,-2.8367e-05,0
56.127,5.539e-06,0
56.127,9.4835e-05,0
56.128,0.00017624,0
56.128,0.00019957,0
56.129,0.00017842,0
56.129,0.00014737,0
56.13,0.00011867,0
56.13,8.1407e-05,0
56.131,2.7359e-05,0
56.131,-2.501e-05,0
56.132,-5.623e-05,0
56.132,-7.7211e-05,0
56.133,-0.00011078,0
56.134,-0.00016046,0
56.134,-0.0001994,0
56.135,-0.00020662,0
56.135,-0.00019974,0
56.136,-0.00018413,0
56.136,-0.00013898,0
56.137,-6.4286e-05,0
56.137,1.561e-05,0
56.138,7.3686e-05,0
56.138,0.00010507,0
56.139,0.00011128,0
56.139,9.8863e-05,0
56.14,8.0735e-05,0
56.14,6.3615e-05,0
56.141,5.3544e-05,0
56.141,4.3809e-05,0
56.142,1.7792e-05,0
56.142,-2.5681e-05,0
56.143,-8.896e-05,0
56.143,-0.00016735,0
56.144,-0.00023784,0
56.144,-0.00027091,0
56.145,-0.00025345,0
56.145,-0.0001895,0
56.146,-8.896e-05,0
56.147,2.3331e-05,0
56.147,0.00012706,0
56.148,0.00022324,0
56.148,0.00031992,0
56.149,0.0004255,0
56.149,0.00053426,0
56.15,0.00060006,0
56.15,0.00058395,0
56.151,0.00047971,0
56.151,0.00031002,0
56.152,0.00012169,0
56.152,-1.6449e-05,0
56.153,-7.8218e-05,0
56.153,-8.7449e-05,0
56.154,-7.7043e-05,0
56.154,-6.865e-05,0
56.155,-6.3783e-05,0
56.155,-5.7908e-05,0
56.156,-4.918e-05,0
56.156,-3.7095e-05,0
56.157,-2.1988e-05,0
56.157,-6.8818e-06,0
56.158,8.3925e-07,0
56.158,1.8463e-06,0
56.159,6.2104e-06,0
56.159,1.796e-05,0
56.16,3.1724e-05,0
56.161,4.5151e-05,0
56.161,5.6062e-05,0
56.162,5.8579e-05,0
56.162,4.4144e-05,0
56.163,1.9135e-05,0
56.163,-9.5674e-06,0
56.164,-2.9038e-05,0
56.164,-3.4241e-05,0
56.165,-3.1724e-05,0
56.165,-2.8199e-05,0
56.166,-2.1653e-05,0
56.166,-1.1078e-05,0
56.167,5.8747e-06,0
56.167,2.501e-05,0
56.168,3.592e-05,0
56.168,3.6088e-05,0
56.169,2.9038e-05,0
56.169,1.2757e-05,0
56.17,-1.7792e-05,0
56.17,-4.8508e-05,0
56.171,-6.0929e-05,0
56.171,-5.9251e-05,0
56.172,-5.0858e-05,0
56.172,-4.0452e-05,0
56.173,-3.7095e-05,0
56.173,-3.6423e-05,0
56.174,-3.2059e-05,0
56.175,-2.1988e-05,0
56.175,-8.2246e-06,0
56.176,5.7069e-06,0
56.176,1.7288e-05,0
56.177,2.6352e-05,0
56.177,3.4241e-05,0
56.178,3.0045e-05,0
56.178,2.182e-06,0
56.179,-2.1653e-05,0
56.179,-4.8676e-06,0
56.18,4.0116e-05,0
56.18,7.1336e-05,0
56.181,7.2343e-05,0
56.181,5.0523e-05,0
56.182,2.6017e-05,0
56.182,1.4939e-05,0
56.183,1.5442e-05,0
56.183,1.2589e-05,0
56.184,-1.6785e-07,0
56.184,-1.6281e-05,0
56.185,-2.7359e-05,0
56.185,-2.9709e-05,0
56.186,-2.5345e-05,0
56.186,-1.8296e-05,0
56.187,-1.2589e-05,0
56.188,-9.9031e-06,0
56.188,-1.326e-05,0
56.189,-1.796e-05,0
56.189,-1.7288e-05,0
56.19,-1.2253e-05,0
56.19,-1.3596e-05,0
56.191,-2.0981e-05,0
56.191,-3.9445e-05,0
56.192,-7.3686e-05,0
56.192,-9.2149e-05,0
56.193,-5.9586e-05,0
56.193,1.1414e-05,0
56.194,7.1504e-05,0
56.194,9.5506e-05,0
56.195,0.00010558,0
56.195,0.0001274,0
56.196,0.00016281,0
56.196,0.00019857,0
56.197,0.00022274,0
56.197,0.00022458,0
56.198,0.00019303,0
56.198,0.00012303,0
56.199,2.9038e-05,0
56.199,-4.7166e-05,0
56.2,-8.1407e-05,0
56.2,-9.0135e-05,0
56.201,-9.1142e-05,0
56.202,-0.0001039,0
56.202,-0.00013193,0
56.203,-0.00014519,0
56.203,-0.00012119,0
56.204,-7.7379e-05,0
56.204,-3.8773e-05,0
56.205,-5.3712e-06,0
56.205,3.2059e-05,0
56.206,7.9728e-05,0
56.206,0.00014049,0
56.207,0.00020662,0
56.207,0.00025429,0
56.208,0.00025026,0
56.208,0.00019471,0
56.209,0.00012454,0
56.209,6.865e-05,0
56.21,3.2059e-05,0
56.21,1.4267e-05,0
56.211,1.8296e-05,0
56.211,3.2731e-05,0
56.212,4.5487e-05,0
56.212,5.623e-05,0
56.213,6.6972e-05,0
56.213,7.2679e-05,0
56.214,5.8244e-05,0
56.215,1.3428e-06,0
56.215,-8.8792e-05,0
56.216,-0.00016533,0
56.216,-0.00020545,0
56.217,-0.0002172,0
56.217,-0.00021267,0
56.218,-0.00019387,0
56.218,-0.0001613,0
56.219,-0.00011514,0
56.219,-5.8244e-05,0
56.22,6.714e-06,0
56.22,7.5029e-05,0
56.221,0.00012404,0
56.221,0.00014116,0
56.222,0.00014183,0
56.222,0.00014385,0
56.223,0.00013948,0
56.223,0.00011766,0
56.224,8.7785e-05,0
56.224,6.5461e-05,0
56.225,5.9586e-05,0
56.225,7.6036e-05,0
56.226,0.00010558,0
56.226,0.00012874,0
56.227,0.00013008,0
56.227,0.00010524,0
56.228,6.9322e-05,0
56.229,4.6159e-05,0
56.229,4.062e-05,0
56.23,3.122e-05,0
56.23,1.1414e-05,0
56.231,-5.539e-06,0
56.231,-1.2421e-05,0
56.232,-1.4939e-05,0
56.232,-1.4939e-05,0
56.233,-9.3996e-06,0
56.233,1.6785e-06,0
56.234,1.2421e-05,0
56.234,2.1317e-05,0
56.235,3.508e-05,0
56.235,6.2104e-05,0
56.236,9.4499e-05,0
56.236,0.00011296,0
56.237,0.00010994,0
56.237,8.3421e-05,0
56.238,3.3738e-05,0
56.238,-2.4002e-05,0
56.239,-7.2007e-05,0
56.239,-0.00010356,0
56.24,-0.00012136,0
56.24,-0.00012891,0
56.241,-0.00013143,0
56.242,-0.00014284,0
56.242,-0.00016365,0
56.243,-0.00016886,0
56.243,-0.00014318,0
56.244,-9.4667e-05,0
56.244,-4.1794e-05,0
56.245,-1.5106e-06,0
56.245,2.4506e-05,0
56.246,5.0355e-05,0
56.246,8.5771e-05,0
56.247,0.00012303,0
56.247,0.00014821,0
56.248,0.00016684,0
56.248,0.00017607,0
56.249,0.00016231,0
56.249,0.00012924,0
56.25,9.2485e-05,0
56.25,6.6468e-05,0
56.251,6.1601e-05,0
56.251,7.3686e-05,0
56.252,7.5364e-05,0
56.252,5.1865e-05,0
56.253,1.6617e-05,0
56.253,-1.326e-05,0
56.254,-2.417e-05,0
56.255,-1.091e-05,0
56.255,2.182e-05,0
56.256,5.6062e-05,0
56.256,7.1336e-05,0
56.257,5.8915e-05,0
56.257,2.4002e-05,0
56.258,-1.6281e-05,0
56.258,-3.9109e-05,0
56.259,-4.0787e-05,0
56.259,-3.9109e-05,0
56.26,-4.0452e-05,0
56.26,-3.6088e-05,0
56.261,-2.031e-05,0
56.261,-6.714e-06,0
56.262,-9.3996e-06,0
56.262,-1.9974e-05,0
56.263,-2.4002e-05,0
56.263,-1.6281e-05,0
56.264,-1.4603e-05,0
56.264,-3.3738e-05,0
56.265,-5.1026e-05,0
56.265,-4.4144e-05,0
56.266,-2.266e-05,0
56.266,-5.0355e-07,0
56.267,2.5345e-05,0
56.267,5.4887e-05,0
56.268,8.2078e-05,0
56.269,9.987e-05,0
56.269,0.00011229,0
56.27,0.00012538,0
56.27,0.0001378,0
56.271,0.00014804,0
56.271,0.00014888,0
56.272,0.00013848,0
56.272,0.00013327,0
56.273,0.00013143,0
56.273,0.00011296,0
56.274,7.7379e-05,0
56.274,3.978e-05,0
56.275,2.5177e-06,0
56.275,-3.3402e-05,0
56.276,-5.9419e-05,0
56.276,-7.1504e-05,0
56.277,-7.2007e-05,0
56.277,-6.2608e-05,0
56.278,-5.2033e-05,0
56.278,-5.2201e-05,0
56.279,-6.0761e-05,0
56.279,-6.5126e-05,0
56.28,-6.0929e-05,0
56.28,-5.3208e-05,0
56.281,-4.8005e-05,0
56.282,-4.9851e-05,0
56.282,-5.6062e-05,0
56.283,-5.3544e-05,0
56.283,-2.9038e-05,0
56.284,6.5461e-06,0
56.284,3.7095e-05,0
56.285,5.2537e-05,0
56.285,5.623e-05,0
56.286,4.8508e-05,0
56.286,3.3066e-05,0
56.287,2.2995e-05,0
56.287,2.4338e-05,0
56.288,3.0549e-05,0
56.288,3.1556e-05,0
56.289,2.031e-05,0
56.289,3.357e-06,0
56.29,3.1891e-06,0
56.29,2.6184e-05,0
56.291,4.5487e-05,0
56.291,4.6494e-05,0
56.292,3.6759e-05,0
56.292,1.9806e-05,0
56.293,3.1891e-06,0
56.293,-2.3499e-06,0
56.294,6.5461e-06,0
56.294,1.8631e-05,0
56.295,1.796e-05,0
56.296,4.5319e-06,0
56.296,-7.8889e-06,0
56.297,-7.8889e-06,0
56.297,1.5106e-06,0
56.298,6.5461e-06,0
56.298,5.7069e-06,0
56.299,9.7353e-06,0
56.299,1.5946e-05,0
56.3,1.326e-05,0
56.3,5.8747e-06,0
56.301,5.539e-06,0
56.301,2.4506e-05,0
56.302,5.9419e-05,0
56.302,8.3085e-05,0
56.303,7.8386e-05,0
56.303,5.7069e-05,0
56.304,2.7192e-05,0
56.304,-2.031e-05,0
56.305,-8.1071e-05,0
56.305,-0.00012454,0
56.306,-0.0001237,0
56.306,-8.9967e-05,0
56.307,-4.7837e-05,0
56.307,-7.0497e-06,0
56.308,2.5849e-05,0
56.309,4.3473e-05,0
56.309,4.0452e-05,0
56.31,2.9374e-05,0
56.31,2.8031e-05,0
56.311,4.1459e-05,0
56.311,6.479e-05,0
56.312,9.4835e-05,0
56.312,0.00010994,0
56.313,9.7856e-05,0
56.313,9.6178e-05,0
56.314,0.00012287,0
56.314,0.00015425,0
56.315,0.00018883,0
56.315,0.00024456,0
56.316,0.00030565,0
56.316,0.0003216,0
56.317,0.00027242,0
56.317,0.00018379,0
56.318,9.752e-05,0
56.318,4.1123e-05,0
56.319,1.6281e-05,0
56.319,5.8747e-06,0
56.32,-1.796e-05,0
56.32,-5.5894e-05,0
56.321,-9.3828e-05,0
56.321,-0.00012572,0
56.322,-0.00015425,0
56.323,-0.00017272,0
56.323,-0.00016265,0
56.324,-0.00011984,0
56.324,-6.9322e-05,0
56.325,-2.652e-05,0
56.325,5.0355e-06,0
56.326,2.1317e-05,0
56.326,1.8967e-05,0
56.327,5.0355e-07,0
56.327,-1.4603e-05,0
56.328,-1.1749e-05,0
56.328,1.6785e-07,0
56.329,-6.714e-07,0
56.329,-2.501e-05,0
56.33,-5.9251e-05,0
56.33,-7.1168e-05,0
56.331,-5.153e-05,0
56.331,-1.7288e-05,0
56.332,1.0575e-05,0
56.332,2.501e-05,0
56.333,2.9038e-05,0
56.333,2.7695e-05,0
56.334,1.7288e-05,0
56.334,-5.0355e-07,0
56.335,-1.1582e-05,0
56.336,-6.5461e-06,0
56.336,3.8605e-06,0
56.337,7.8889e-06,0
56.337,6.2104e-06,0
56.338,1.1749e-06,0
56.338,3.357e-07,0
56.339,1.0575e-05,0
56.339,2.7695e-05,0
56.34,4.3809e-05,0
56.34,5.3376e-05,0
56.341,6.5629e-05,0
56.341,8.6275e-05,0
56.342,0.00010507,0
56.342,0.00011363,0
56.343,0.00010893,0
56.343,9.0471e-05,0
56.344,5.2201e-05,0
56.344,-5.7069e-06,0
56.345,-6.1936e-05,0
56.345,-9.2485e-05,0
56.346,-9.4163e-05,0
56.346,-7.805e-05,0
56.347,-5.4215e-05,0
56.347,-2.8702e-05,0
56.348,-4.1962e-06,0
56.348,1.8631e-05,0
56.349,4.5991e-05,0
56.35,7.335e-05,0
56.35,8.9128e-05,0
56.351,9.4163e-05,0
56.351,9.3828e-05,0
56.352,8.4764e-05,0
56.352,6.479e-05,0
56.353,4.1291e-05,0
56.353,2.5849e-05,0
56.354,2.1149e-05,0
56.354,1.7624e-05,0
56.355,9.9031e-06,0
56.355,-9.3996e-06,0
56.356,-5.0355e-05,0
56.356,-8.4764e-05,0
56.357,-6.6972e-05,0
56.357,-3.357e-07,0
56.358,7.2175e-05,0
56.358,0.00012136,0
56.359,0.0001274,0
56.359,8.8792e-05,0
56.36,3.8605e-05,0
56.36,8.5603e-06,0
56.361,-1.1749e-06,0
56.361,-5.8747e-06,0
56.362,-7.0497e-06,0
56.362,-8.2246e-06,0
56.363,-1.8967e-05,0
56.364,-4.3137e-05,0
56.364,-6.7475e-05,0
56.365,-7.4357e-05,0
56.365,-5.7572e-05,0
56.366,-2.2995e-05,0
56.366,1.1749e-05,0
56.367,3.5584e-05,0
56.367,4.7501e-05,0
56.368,3.9445e-05,0
56.368,1.5778e-05,0
56.369,1.5106e-06,0
56.369,1.1749e-05,0
56.37,3.7095e-05,0
56.37,5.7237e-05,0
56.371,6.0761e-05,0
56.371,5.388e-05,0
56.372,5.1698e-05,0
56.372,5.8915e-05,0
56.373,7.2343e-05,0
56.373,8.5771e-05,0
56.374,9.1981e-05,0
56.374,8.5435e-05,0
56.375,5.8244e-05,0
56.375,1.4939e-05,0
56.376,-2.6184e-05,0
56.377,-5.3208e-05,0
56.377,-5.9251e-05,0
56.378,-4.062e-05,0
56.378,-2.8534e-06,0
56.379,4.8508e-05,0
56.379,0.00010994,0
56.38,0.0001707,0
56.38,0.00021199,0
56.381,0.0002276,0
56.381,0.00023264,0
56.382,0.00023415,0
56.382,0.00022072,0
56.383,0.00019001,0
56.383,0.00015241,0
56.384,0.00010994,0
56.384,5.9251e-05,0
56.385,1.091e-05,0
56.385,-2.5345e-05,0
56.386,-6.3279e-05,0
56.386,-9.2988e-05,0
56.387,-9.7353e-05,0
56.387,-8.0903e-05,0
56.388,-6.3447e-05,0
56.388,-5.8244e-05,0
56.389,-6.5461e-05,0
56.389,-8.3085e-05,0
56.39,-0.00011044,0
56.391,-0.00013713,0
56.391,-0.00013529,0
56.392,-9.6849e-05,0
56.392,-5.3208e-05,0
56.393,-4.3809e-05,0
56.393,-6.7308e-05,0
56.394,-9.5506e-05,0
56.394,-0.00011951,0
56.395,-0.00013797,0
56.395,-0.00013277,0
56.396,-0.0001044,0
56.396,-6.4118e-05,0
56.397,-2.4506e-05,0
56.397,5.539e-06,0
56.398,2.9877e-05,0
56.398,5.3376e-05,0
56.399,7.6707e-05,0
56.399,9.6513e-05,0
56.4,0.00010994,0
56.4,0.00011917,0
56.401,0.00011901,0
56.401,9.6513e-05,0
56.402,5.1865e-05,0
56.402,-4.1962e-06,0
56.403,-5.0019e-05,0
56.404,-6.6636e-05,0
56.404,-5.1865e-05,0
56.405,-2.2324e-05,0
56.405,-4.5319e-06,0
56.406,-9.3996e-06,0
56.406,-6.8818e-06,0
56.407,2.6184e-05,0
56.407,6.0426e-05,0
56.408,7.3182e-05,0
56.408,8.2078e-05,0
56.409,9.4499e-05,0
56.409,9.3492e-05,0
56.41,6.8818e-05,0
56.41,3.2731e-05,0
56.411,9.2317e-06,0
56.411,4.1962e-06,0
56.412,7.2175e-06,0
56.412,7.5532e-06,0
56.413,9.2317e-06,0
56.413,2.031e-05,0
56.414,3.4577e-05,0
56.414,3.9948e-05,0
56.415,3.0045e-05,0
56.415,1.3596e-05,0
56.416,-2.8534e-06,0
56.416,-1.5946e-05,0
56.417,-2.266e-05,0
56.418,-2.501e-05,0
56.418,-2.6352e-05,0
56.419,-2.7695e-05,0
56.419,-2.8702e-05,0
56.42,-2.9038e-05,0
56.42,-2.3835e-05,0
56.421,-8.2246e-06,0
56.421,1.6785e-05,0
56.422,4.6998e-05,0
56.422,7.8218e-05,0
56.423,0.00010558,0
56.423,0.00012555,0
56.424,0.00013344,0
56.424,0.00012941,0
56.425,0.00011666,0
56.425,0.00010054,0
56.426,8.2246e-05,0
56.426,6.3279e-05,0
56.427,4.8173e-05,0
56.427,4.0116e-05,0
56.428,2.6688e-05,0
56.428,-3.5248e-06,0
56.429,-3.8773e-05,0
56.429,-5.6901e-05,0
56.43,-5.6565e-05,0
56.431,-5.7237e-05,0
56.431,-6.949e-05,0
56.432,-7.8386e-05,0
56.432,-6.8818e-05,0
56.433,-3.7766e-05,0
56.433,0,0
56.434,3.4745e-05,0
56.434,7.3686e-05,0
56.435,0.00011498,0
56.435,0.00014519,0
56.436,0.00015509,0
56.436,0.00014821,0
56.437,0.00013663,0
56.437,0.00012639,0
56.438,0.00011766,0
56.438,0.00010658,0
56.439,8.9799e-05,0
56.439,6.8986e-05,0
56.44,4.7837e-05,0
56.44,3.3738e-05,0
56.441,2.8702e-05,0
56.441,2.6352e-05,0
56.442,1.8296e-05,0
56.442,7.8889e-06,0
56.443,1.8463e-06,0
56.444,-8.3925e-07,0
56.444,5.0355e-07,0
56.445,1.7792e-05,0
56.445,5.623e-05,0
56.446,0.00010927,0
56.446,0.00015325,0
56.447,0.00015862,0
56.447,0.00012203,0
56.448,7.6036e-05,0
56.448,5.623e-05,0
56.449,7.6036e-05,0
56.449,0.00010054,0
56.45,8.1239e-05,0
56.45,2.501e-05,0
56.451,-2.7024e-05,0
56.451,-5.8244e-05,0
56.452,-8.0735e-05,0
56.452,-0.00010356,0
56.453,-0.00011901,0
56.453,-0.00011833,0
56.454,-0.00011028,0
56.454,-0.00010491,0
56.455,-0.00010524,0
56.455,-0.00010843,0
56.456,-0.00010994,0
56.456,-0.00011363,0
56.457,-0.0001284,0
56.458,-0.00014519,0
56.458,-0.00013982,0
56.459,-0.00011565,0
56.459,-9.601e-05,0
56.46,-7.57e-05,0
56.46,-4.1962e-05,0
56.461,1.3428e-06,0
56.461,4.1291e-05,0
56.462,7.8721e-05,0
56.462,0.00011061,0
56.463,0.00012958,0
56.463,0.00014049,0
56.464,0.00014754,0
56.464,0.00014318,0
56.465,0.00012287,0
56.465,9.1142e-05,0
56.466,6.1097e-05,0
56.466,4.0787e-05,0
56.467,3.0213e-05,0
56.467,2.4506e-05,0
56.468,1.7624e-05,0
56.468,4.0284e-06,0
56.469,-1.0239e-05,0
56.469,-1.8296e-05,0
56.47,-2.3835e-05,0
56.471,-2.8367e-05,0
56.471,-2.7024e-05,0
56.472,-2.031e-05,0
56.472,-1.3764e-05,0
56.473,-1.0239e-05,0
56.473,-6.2104e-06,0
56.474,8.3925e-07,0
56.474,9.2317e-06,0
56.475,1.6785e-05,0
56.475,2.2492e-05,0
56.476,2.9374e-05,0
56.476,3.592e-05,0
56.477,3.5752e-05,0
56.477,2.6017e-05,0
56.478,1.6617e-05,0
56.478,7.8889e-06,0
56.479,-5.539e-06,0
56.479,-2.266e-05,0
56.48,-3.5416e-05,0
56.48,-3.2731e-05,0
56.481,-2.266e-05,0
56.481,-6.0426e-06,0
56.482,2.0813e-05,0
56.482,4.7166e-05,0
56.483,6.2943e-05,0
56.483,7.0665e-05,0
56.484,7.7714e-05,0
56.485,8.0735e-05,0
56.485,7.6875e-05,0
56.486,7.4022e-05,0
56.486,7.0832e-05,0
56.487,5.9251e-05,0
56.487,4.1123e-05,0
56.488,2.501e-05,0
56.488,1.561e-05,0
56.489,4.5319e-06,0
56.489,-1.5106e-05,0
56.49,-4.213e-05,0
56.49,-6.5293e-05,0
56.491,-6.6133e-05,0
56.491,-4.4984e-05,0
56.492,-1.4939e-05,0
56.492,1.3931e-05,0
56.493,3.5416e-05,0
56.493,4.448e-05,0
56.494,4.7166e-05,0
56.494,5.4215e-05,0
56.495,6.1601e-05,0
56.495,4.4144e-05,0
56.496,1.1917e-05,0
56.496,8.3925e-07,0
56.497,1.8967e-05,0
56.498,4.0116e-05,0
56.498,3.0381e-05,0
56.499,-4.0284e-06,0
56.499,-1.5946e-05,0
56.5,1.3931e-05,0
56.5,5.774e-05,0
56.501,7.9057e-05,0
56.501,7.6707e-05,0
56.502,6.2943e-05,0
56.502,5.153e-05,0
56.503,5.5558e-05,0
56.503,6.8986e-05,0
56.504,7.9561e-05,0
56.504,9.3828e-05,0
56.505,0.00010977,0
56.505,0.00010591,0
56.506,7.7714e-05,0
56.506,5.0187e-05,0
56.507,4.8005e-05,0
56.507,6.865e-05,0
56.508,8.8792e-05,0
56.508,8.8457e-05,0
56.509,6.2776e-05,0
56.509,2.5849e-05,0
56.51,-4.5319e-06,0
56.51,-2.0478e-05,0
56.511,-2.182e-05,0
56.512,-1.2757e-05,0
56.512,-2.182e-06,0
56.513,5.2033e-06,0
56.513,8.5603e-06,0
56.514,9.7353e-06,0
56.514,8.0568e-06,0
56.515,1.5442e-05,0
56.515,3.743e-05,0
56.516,4.683e-05,0
56.516,2.5177e-05,0
56.517,-1.1414e-05,0
56.517,-3.978e-05,0
56.518,-5.069e-05,0
56.518,-6.1265e-05,0
56.519,-7.4861e-05,0
56.519,-7.3686e-05,0
56.52,-5.623e-05,0
56.52,-4.1291e-05,0
56.521,-3.4745e-05,0
56.521,-2.9038e-05,0
56.522,-1.9135e-05,0
56.522,-1.2421e-05,0
56.523,-6.2104e-06,0
56.523,7.8889e-06,0
56.524,2.8031e-05,0
56.525,5.0858e-05,0
56.525,7.6371e-05,0
56.526,0.00010658,0
56.526,0.00014385,0
56.527,0.00018245,0
56.527,0.00019722,0
56.528,0.00017641,0
56.528,0.00013613,0
56.529,9.1814e-05,0
56.529,3.1388e-05,0
56.53,-3.5584e-05,0
56.53,-7.8889e-05,0
56.531,-9.4331e-05,0
56.531,-8.7617e-05,0
56.532,-6.6468e-05,0
56.532,-4.3305e-05,0
56.533,-2.0813e-05,0
56.533,5.0355e-06,0
