1.0665,-0.00014871,0
1.067,-0.0001321,0
1.0675,-0.00010188,0
1.0681,-2.501e-05,0
1.0686,8.6442e-05,0
1.0691,0.00019084,0
1.0696,0.0002553,0
1.0701,0.00026822,0
1.0707,0.00025295,0
1.0712,0.00023818,0
1.0717,0.00021669,0
1.0722,0.00015879,0
1.0727,8.3757e-05,0
1.0733,4.1291e-05,0
1.0738,2.501e-05,0
1.0743,8.5603e-06,0
1.0748,-1.5778e-05,0
1.0753,-4.7837e-05,0
1.0758,-8.8121e-05,0
1.0764,-0.00012807,0
1.0769,-0.0001566,0
1.0774,-0.00017591,0
1.0779,-0.00019521,0
1.0784,-0.00021099,0
1.079,-0.0002135,0
1.0795,-0.00019219,0
1.08,-0.00014334,0
1.0805,-8.5771e-05,0
1.081,-3.592e-05,0
1.0816,1.8967e-05,0
1.0821,0.00011968,0
1.0826,0.00026,0
1.0831,0.00034543,0
1.0836,0.00031572,0
1.0842,0.00021921,0
1.0847,0.0001227,0
1.0852,3.7934e-05,0
1.0857,-4.3473e-05,0
1.0862,-9.5842e-05,0
1.0868,-8.896e-05,0
1.0873,-4.5151e-05,0
1.0878,-1.5442e-05,0
1.0883,-7.0497e-06,0
1.0888,6.5461e-06,0
1.0893,5.7908e-05,0
1.0899,0.00015492,0
1.0904,0.00025698,0
1.0909,0.00029793,0
1.0914,0.00026671,0
1.0919,0.00019924,0
1.0925,0.00013545,0
1.093,8.8289e-05,0
1.0935,6.0929e-05,0
1.094,5.388e-05,0
1.0945,4.4984e-05,0
1.0951,2.266e-05,0
1.0956,-3.8605e-06,0
1.0961,-1.6449e-05,0
1.0966,-1.3931e-05,0
1.0971,-1.2924e-05,0
1.0977,-3.6088e-05,0
1.0982,-7.8721e-05,0
1.0987,-0.00010793,0
1.0992,-0.00010054,0
1.0997,-7.0329e-05,0
1.1002,-2.6352e-05,0
1.1008,3.2731e-05,0
1.1013,8.0064e-05,0
1.1018,0.00010457,0
1.1023,0.00012203,0
1.1028,0.0001556,0
1.1034,0.00018447,0
1.1039,0.00016667,0
1.1044,9.8863e-05,0
1.1049,1.1582e-05,0
1.1054,-6.4622e-05,0
1.106,-0.00011162,0
1.1065,-0.00013982,0
1.107,-0.00017104,0
1.1075,-0.0001791,0
1.108,-0.00012874,0
1.1086,-5.153e-05,0
1.1091,1.2924e-05,0
1.1096,5.0019e-05,0
1.1101,5.1194e-05,0
1.1106,-5.2033e-06,0
1.1112,-0.00011296,0
1.1117,-0.00020847,0
1.1122,-0.00023331,0
1.1127,-0.00018128,0
1.1132,-0.00010121,0
1.1138,-4.213e-05,0
1.1143,1.6785e-06,0
1.1148,5.7572e-05,0
1.1153,0.00013848,0
1.1158,0.00021535,0
1.1163,0.00027091,0
1.1169,0.0002882,0
1.1174,0.00023952,0
1.1179,0.00015358,0
1.1184,8.9464e-05,0
1.1189,5.5222e-05,0
1.1195,8.3925e-06,0
1.12,-5.2537e-05,0
1.1205,-0.00010021,0
1.121,-0.00011263,0
1.1215,-8.661e-05,0
1.1221,-4.5823e-05,0
1.1226,-1.6617e-05,0
1.1231,3.1891e-06,0
1.1236,3.2395e-05,0
1.1241,8.275e-05,0
1.1247,0.00013948,0
1.1252,0.00015828,0
1.1257,0.00011733,0
1.1262,4.4816e-05,0
1.1267,-2.1653e-05,0
1.1273,-5.3544e-05,0
1.1278,-4.7333e-05,0
1.1283,-3.3402e-05,0
1.1288,-2.8534e-05,0
1.1293,-1.3596e-05,0
1.1298,2.2324e-05,0
1.1304,6.2272e-05,0
1.1309,8.9799e-05,0
1.1314,9.4835e-05,0
1.1319,7.0329e-05,0
1.1324,2.266e-05,0
1.133,-1.2589e-05,0
1.1335,-5.8747e-06,0
1.134,2.501e-05,0
1.1345,4.8844e-05,0
1.135,4.8173e-05,0
1.1356,2.3835e-05,0
1.1361,-1.0575e-05,0
1.1366,-4.3809e-05,0
1.1371,-6.8986e-05,0
1.1376,-7.3854e-05,0
1.1382,-5.4215e-05,0
1.1387,-2.3499e-05,0
1.1392,8.3925e-06,0
1.1397,2.5177e-05,0
1.1402,1.561e-05,0
1.1407,-1.5106e-06,0
1.1413,2.3499e-06,0
1.1418,2.501e-05,0
1.1423,3.8437e-05,0
1.1428,2.501e-05,0
1.1433,7.5532e-06,0
1.1439,1.5106e-05,0
1.1444,4.4816e-05,0
1.1449,6.4286e-05,0
1.1454,5.2873e-05,0
1.1459,3.1052e-05,0
1.1465,2.0981e-05,0
1.147,2.3667e-05,0
1.1475,3.3402e-05,0
1.148,4.5823e-05,0
1.1485,2.7359e-05,0
1.1491,-5.9251e-05,0
1.1496,-0.0001843,0
1.1501,-0.00026621,0
1.1506,-0.00025631,0
1.1511,-0.00016634,0
1.1517,-6.1936e-05,0
1.1522,1.6785e-07,0
1.1527,5.8915e-05,0
1.1532,0.00015543,0
1.1537,0.00023214,0
1.1542,0.00023549,0
1.1548,0.00017641,0
1.1553,8.0903e-05,0
1.1558,-2.3331e-05,0
1.1563,-9.6681e-05,0
1.1568,-0.00011565,0
1.1574,-0.00010507,0
1.1579,-6.1936e-05,0
1.1584,2.5849e-05,0
1.1589,0.00014217,0
1.1594,0.00025228,0
1.16,0.00032143,0
1.1605,0.00034627,0
1.161,0.00034325,0
1.1615,0.00033016,0
1.162,0.00030649,0
1.1626,0.00025547,0
1.1631,0.00017037,0
1.1636,7.2007e-05,0
1.1641,-1.6114e-05,0
1.1646,-6.2943e-05,0
1.1652,-4.8341e-05,0
1.1657,-1.2589e-05,0
1.1662,1.6785e-07,0
1.1667,-1.7792e-05,0
1.1672,-4.7166e-05,0
1.1678,-5.2201e-05,0
1.1683,-4.062e-05,0
1.1688,-4.1794e-05,0
1.1693,-5.623e-05,0
1.1698,-6.2608e-05,0
1.1703,-4.8508e-05,0
1.1709,-4.8676e-06,0
1.1714,4.8844e-05,0
1.1719,7.57e-05,0
1.1724,6.3279e-05,0
1.1729,3.6759e-05,0
1.1735,2.7192e-05,0
1.174,2.4338e-05,0
1.1745,-9.9031e-06,0
1.175,-8.6275e-05,0
1.1755,-0.000166,0
1.1761,-0.00019924,0
1.1766,-0.00017926,0
1.1771,-0.0001425,0
1.1776,-0.00011498,0
1.1781,-9.1478e-05,0
1.1787,-6.5126e-05,0
1.1792,-4.4648e-05,0
1.1797,-3.7934e-05,0
1.1802,-4.2802e-05,0
1.1807,-5.153e-05,0
1.1812,-5.5222e-05,0
1.1818,-6.244e-05,0
1.1823,-7.4357e-05,0
1.1828,-7.4861e-05,0
1.1833,-6.0761e-05,0
1.1838,-3.8437e-05,0
1.1844,-2.1988e-05,0
1.1849,-1.4435e-05,0
1.1854,3.1891e-06,0
1.1859,4.3641e-05,0
1.1864,9.0806e-05,0
1.187,0.00012052,0
1.1875,0.00011263,0
1.188,7.4357e-05,0
1.1885,4.4144e-05,0
1.189,4.1459e-05,0
1.1896,5.3544e-05,0
1.1901,7.1e-05,0
1.1906,9.0471e-05,0
1.1911,0.00010121,0
1.1916,9.9199e-05,0
1.1922,9.6178e-05,0
1.1927,9.1142e-05,0
1.1932,7.8386e-05,0
1.1937,6.1265e-05,0
1.1942,4.1794e-05,0
1.1947,2.9877e-05,0
1.1953,3.1052e-05,0
1.1958,3.6759e-05,0
1.1963,3.6088e-05,0
1.1968,2.4338e-05,0
1.1973,7.0497e-06,0
1.1979,-1.5274e-05,0
1.1984,-6.0594e-05,0
1.1989,-0.0001237,0
1.1994,-0.00017288,0
1.1999,-0.00018866,0
1.2005,-0.00018094,0
1.201,-0.00016013,0
1.2015,-0.00012136,0
1.202,-7.1672e-05,0
1.2025,-2.4338e-05,0
1.2031,8.2246e-06,0
1.2036,2.6688e-05,0
1.2041,7.5364e-05,0
1.2046,0.00017977,0
1.2051,0.00030129,0
1.2057,0.0003738,0
1.2062,0.00037145,0
1.2067,0.00032042,0
1.2072,0.00025026,0
1.2077,0.00017305,0
1.2083,9.2149e-05,0
1.2088,1.0575e-05,0
1.2093,-6.6972e-05,0
1.2098,-0.00012186,0
1.2103,-0.00013646,0
1.2108,-8.9632e-05,0
1.2114,2.0981e-05,0
1.2119,0.00014351,0
1.2124,0.00021837,0
1.2129,0.00023851,0
1.2134,0.00022878,0
1.214,0.00021837,0
1.2145,0.00021468,0
1.215,0.00019084,0
1.2155,0.00013545,0
1.216,6.5629e-05,0
1.2166,1.5106e-06,0
1.2171,-4.1459e-05,0
1.2176,-5.9922e-05,0
1.2181,-6.3951e-05,0
1.2186,-5.7237e-05,0
1.2192,-3.508e-05,0
1.2197,-6.714e-06,0
1.2202,1.4603e-05,0
1.2207,1.8128e-05,0
1.2212,-4.5319e-06,0
1.2217,-5.0355e-05,0
1.2223,-9.836e-05,0
1.2228,-0.00013042,0
1.2233,-0.00013562,0
1.2238,-0.00011749,0
1.2243,-9.8192e-05,0
1.2249,-9.2149e-05,0
1.2254,-0.00010692,0
1.2259,-0.00014318,0
1.2264,-0.00016281,0
1.2269,-0.00011565,0
1.2275,1.1749e-06,0
1.228,0.00012404,0
1.2285,0.00019487,0
1.229,0.00019051,0
1.2295,0.00012975,0
1.2301,6.8315e-05,0
1.2306,5.153e-05,0
1.2311,7.335e-05,0
1.2316,0.00010021,0
1.2321,8.5771e-05,0
1.2327,3.6927e-06,0
1.2332,-0.00013713,0
1.2337,-0.00025798,0
1.2342,-0.00028165,0
1.2347,-0.00021334,0
1.2352,-0.00010927,0
1.2358,-2.9877e-05,0
1.2363,4.1962e-06,0
1.2368,2.3667e-05,0
1.2373,6.0929e-05,0
1.2378,0.00011363,0
1.2384,0.00013663,0
1.2389,9.5171e-05,0
1.2394,4.0787e-05,0
1.2399,4.0787e-05,0
1.2404,7.9225e-05,0
1.241,9.3828e-05,0
1.2415,6.4958e-05,0
1.242,1.8631e-05,0
1.2425,-9.9031e-06,0
1.243,-8.7282e-06,0
1.2436,6.8818e-06,0
1.2441,2.6017e-05,0
1.2446,4.2298e-05,0
1.2451,4.2802e-05,0
1.2456,3.6591e-05,0
1.2462,4.9851e-05,0
1.2467,6.6972e-05,0
1.2472,6.3615e-05,0
1.2477,5.539e-05,0
1.2482,5.6565e-05,0
1.2488,5.7572e-05,0
1.2493,5.2873e-05,0
1.2498,4.3977e-05,0
1.2503,3.3738e-05,0
1.2508,2.3667e-05,0
1.2513,9.5674e-06,0
1.2519,-1.1582e-05,0
1.2524,-3.6759e-05,0
1.2529,-5.6901e-05,0
1.2534,-6.9154e-05,0
1.2539,-9.2149e-05,0
1.2545,-0.00013243,0
1.255,-0.00016315,0
1.2555,-0.0001707,0
1.256,-0.0001655,0
1.2565,-0.0001467,0
1.2571,-9.0806e-05,0
1.2576,9.9031e-06,0
1.2581,0.00012572,0
1.2586,0.00022593,0
1.2591,0.00029357,0
1.2597,0.00032261,0
1.2602,0.00030935,0
1.2607,0.00025412,0
1.2612,0.00017876,0
1.2617,0.00010692,0
1.2623,6.3951e-05,0
1.2628,5.4551e-05,0
1.2633,4.918e-05,0
1.2638,2.2828e-05,0
1.2643,-7.7211e-06,0
1.2648,-2.0645e-05,0
1.2654,-2.4338e-05,0
1.2659,-3.0381e-05,0
1.2664,-3.2563e-05,0
1.2669,-2.7359e-05,0
1.2674,-2.8031e-05,0
1.268,-3.9445e-05,0
1.2685,-5.3208e-05,0
1.269,-5.3544e-05,0
1.2695,-3.3738e-05,0
1.27,-4.5319e-06,0
1.2706,1.3596e-05,0
1.2711,1.5274e-05,0
1.2716,1.4771e-05,0
1.2721,1.1582e-05,0
1.2726,-1.0071e-06,0
1.2732,-1.796e-05,0
1.2737,-3.8437e-05,0
1.2742,-5.6062e-05,0
1.2747,-4.9516e-05,0
1.2752,-1.9135e-05,0
1.2757,1.4435e-05,0
1.2763,3.1388e-05,0
1.2768,2.5513e-05,0
1.2773,9.9031e-06,0
1.2778,-2.5681e-05,0
1.2783,-9.1478e-05,0
1.2789,-0.00014989,0
1.2794,-0.00017826,0
1.2799,-0.00016936,0
1.2804,-0.00011397,0
1.2809,6.714e-07,0
1.2815,0.00016214,0
1.282,0.00031371,0
1.2825,0.00040368,0
1.283,0.00041878,0
1.2835,0.00036205,0
1.2841,0.00025731,0
1.2846,0.00016097,0
1.2851,9.8192e-05,0
1.2856,6.7308e-05,0
1.2861,7.3014e-05,0
1.2867,8.8121e-05,0
1.2872,8.6946e-05,0
1.2877,6.7308e-05,0
1.2882,4.2802e-05,0
1.2887,1.796e-05,0
1.2893,-9.7353e-06,0
1.2898,-5.0523e-05,0
1.2903,-0.00012454,0
1.2908,-0.00020662,0
1.2913,-0.00025127,0
1.2918,-0.00026688,0
1.2924,-0.00026,0
1.2929,-0.00023482,0
1.2934,-0.00020797,0
1.2939,-0.00018396,0
1.2944,-0.00015459,0
1.295,-9.5003e-05,0
1.2955,-9.5674e-06,0
1.296,6.8482e-05,0
1.2965,0.00010994,0
1.297,0.00010054,0
1.2976,6.2608e-05,0
1.2981,3.2731e-05,0
1.2986,2.8702e-05,0
1.2991,5.4215e-05,0
1.2996,0.00011498,0
1.3002,0.00019907,0
1.3007,0.00026184,0
1.3012,0.00027544,0
1.3017,0.00024002,0
1.3022,0.00017339,0
1.3028,9.1142e-05,0
1.3033,1.2589e-05,0
1.3038,-3.508e-05,0
1.3043,-5.153e-05,0
1.3048,-5.2537e-05,0
1.3053,-5.1026e-05,0
1.3059,-4.4816e-05,0
1.3064,-1.3596e-05,0
1.3069,4.5823e-05,0
1.3074,0.00010558,0
1.3079,0.0001425,0
1.3085,0.00016063,0
1.309,0.00015795,0
1.3095,0.00013378,0
1.31,0.00010709,0
1.3105,8.4092e-05,0
1.3111,5.9419e-05,0
1.3116,4.062e-05,0
1.3121,2.4506e-05,0
1.3126,-8.896e-06,0
1.3131,-5.3376e-05,0
1.3137,-7.9561e-05,0
1.3142,-7.8386e-05,0
1.3147,-6.9993e-05,0
1.3152,-7.1839e-05,0
1.3157,-8.0735e-05,0
1.3162,-7.3518e-05,0
1.3168,-3.5416e-05,0
1.3173,1.6617e-05,0
1.3178,4.6159e-05,0
1.3183,4.3473e-05,0
1.3188,2.9038e-05,0
1.3194,2.1988e-05,0
1.3199,2.2492e-05,0
1.3204,4.8676e-06,0
1.3209,-3.0045e-05,0
1.3214,-6.0258e-05,0
1.322,-7.1672e-05,0
1.3225,-6.4286e-05,0
1.323,-4.7669e-05,0
1.3235,-3.2059e-05,0
1.324,-1.7121e-05,0
1.3246,6.714e-07,0
1.3251,2.1653e-05,0
1.3256,3.9445e-05,0
1.3261,3.8437e-05,0
1.3266,1.561e-05,0
1.3272,-1.8463e-05,0
1.3277,-4.2298e-05,0
1.3282,-3.6423e-05,0
1.3287,-1.5274e-05,0
1.3292,-6.8818e-06,0
1.3297,-1.091e-05,0
1.3303,-1.3764e-05,0
1.3308,8.3925e-07,0
1.3313,3.2731e-05,0
1.3318,6.5461e-05,0
1.3323,8.04e-05,0
1.3329,7.4861e-05,0
1.3334,5.6901e-05,0
1.3339,3.4073e-05,0
1.3344,8.896e-06,0
1.3349,-2.031e-05,0
1.3355,-5.388e-05,0
1.336,-7.3686e-05,0
1.3365,-5.6062e-05,0
1.337,-6.8818e-06,0
1.3375,4.8173e-05,0
1.3381,9.0806e-05,0
1.3386,0.00011128,0
1.3391,0.00011196,0
1.3396,9.1814e-05,0
1.3401,6.5126e-05,0
1.3407,4.6998e-05,0
1.3412,3.0716e-05,0
1.3417,1.4435e-05,0
1.3422,7.8889e-06,0
1.3427,-9.9031e-06,0
1.3433,-4.213e-05,0
1.3438,-6.2776e-05,0
1.3443,-6.5293e-05,0
1.3448,-4.6159e-05,0
1.3453,-1.6281e-05,0
1.3458,5.2033e-06,0
1.3464,1.8296e-05,0
1.3469,4.918e-05,0
1.3474,0.00013092,0
1.3479,0.00023784,0
1.3484,0.00030448,0
1.349,0.00030834,0
1.3495,0.0002788,0
1.35,0.00022139,0
1.3505,0.00012136,0
1.351,1.0239e-05,0
1.3516,-6.0761e-05,0
1.3521,-6.6804e-05,0
1.3526,-2.7527e-05,0
1.3531,9.2317e-06,0
1.3536,2.2995e-05,0
1.3542,1.2757e-05,0
1.3547,-2.8702e-05,0
1.3552,-8.3421e-05,0
1.3557,-0.00011162,0
1.3562,-0.00011984,0
1.3567,-0.0001279,0
1.3573,-0.00011766,0
1.3578,-8.7617e-05,0
1.3583,-6.1265e-05,0
1.3588,-5.1362e-05,0
1.3593,-4.4816e-05,0
1.3599,-1.6449e-05,0
1.3604,2.5681e-05,0
1.3609,4.8173e-05,0
1.3614,4.1794e-05,0
1.3619,7.8889e-06,0
1.3625,-5.1865e-05,0
1.363,-0.00011145,0
1.3635,-0.00013696,0
1.364,-0.0001472,0
1.3645,-0.00016936,0
1.3651,-0.00017658,0
1.3656,-0.00011783,0
1.3661,1.796e-05,0
1.3666,0.00017557,0
1.3671,0.0002986,0
1.3677,0.00037095,0
1.3682,0.0003738,0
1.3687,0.00031337,0
1.3692,0.00024103,0
1.3697,0.00018447,0
1.3702,0.00013747,0
1.3708,0.00010457,0
1.3713,0.00010188,0
1.3718,0.00013747,0
1.3723,0.00017641,0
1.3728,0.00017775,0
1.3734,0.0001415,0
1.3739,8.9632e-05,0
1.3744,2.266e-05,0
1.3749,-6.0594e-05,0
1.3754,-0.0001509,0
1.376,-0.00021736,0
1.3765,-0.00023449,0
1.377,-0.00020847,0
1.3775,-0.00015929,0
1.378,-0.00010625,0
1.3786,-5.388e-05,0
1.3791,-2.8534e-06,0
1.3796,3.0549e-05,0
1.3801,3.2059e-05,0
1.3806,2.2492e-05,0
1.3812,1.4939e-05,0
1.3817,-2.8534e-06,0
1.3822,-2.4338e-05,0
1.3827,-3.3066e-05,0
1.3832,-3.1891e-05,0
1.3838,-2.7359e-05,0
1.3843,-2.0813e-05,0
1.3848,-6.3783e-06,0
1.3853,1.3931e-05,0
1.3858,9.7353e-06,0
1.3863,-4.3641e-05,0
1.3869,-0.00010994,0
1.3874,-0.0001321,0
1.3879,-0.00010222,0
1.3884,-5.1865e-05,0
1.3889,-8.3925e-07,0
1.3895,2.7527e-05,0
1.39,5.0858e-05,0
1.3905,0.00012337,0
1.391,0.00023398,0
1.3915,0.00031203,0
1.3921,0.00030398,0
1.3926,0.00022744,0
1.3931,0.00014485,0
1.3936,9.4163e-05,0
1.3941,6.5293e-05,0
1.3947,3.3738e-05,0
1.3952,5.0355e-07,0
1.3957,-1.6617e-05,0
1.3962,-2.1149e-05,0
1.3967,-1.7624e-05,0
1.3973,-1.2085e-05,0
1.3978,-1.5274e-05,0
1.3983,-1.3596e-05,0
1.3988,1.4267e-05,0
1.3993,4.7166e-05,0
1.3998,4.7837e-05,0
1.4004,2.1317e-05,0
1.4009,-1.0239e-05,0
1.4014,-3.3402e-05,0
1.4019,-2.9038e-05,0
1.4024,-6.714e-06,0
1.403,1.0575e-05,0
1.4035,1.1414e-05,0
1.404,5.539e-06,0
1.4045,1.6785e-06,0
1.405,-8.2246e-06,0
1.4056,-1.8631e-05,0
1.4061,-1.4435e-05,0
1.4066,0,0
1.4071,1.5106e-06,0
1.4076,-1.1749e-05,0
1.4082,-2.4002e-05,0
1.4087,-2.652e-05,0
1.4092,-1.8296e-05,0
1.4097,-1.1246e-05,0
1.4102,-2.1653e-05,0
1.4107,-4.5151e-05,0
1.4113,-5.9922e-05,0
1.4118,-5.9754e-05,0
1.4123,-6.1601e-05,0
1.4128,-8.9464e-05,0
1.4133,-0.0001378,0
1.4139,-0.00017205,0
1.4144,-0.00016701,0
1.4149,-0.00011833,0
1.4154,-4.0452e-05,0
1.4159,1.4099e-05,0
1.4165,1.3764e-05,0
1.417,-5.8747e-06,0
1.4175,-1.5106e-06,0
1.418,3.2059e-05,0
1.4185,8.5771e-05,0
1.4191,0.00016567,0
1.4196,0.00025866,0
1.4201,0.00029693,0
1.4206,0.0002407,0
1.4211,0.00013848,0
1.4217,5.153e-05,0
1.4222,-1.091e-05,0
1.4227,-4.4984e-05,0
1.4232,-2.887e-05,0
1.4237,4.213e-05,0
1.4243,0.00014166,0
1.4248,0.00022593,0
1.4253,0.00025899,0
1.4258,0.00023549,0
1.4263,0.00017775,0
1.4268,0.00011514,0
1.4274,6.5461e-05,0
1.4279,3.6927e-05,0
1.4284,2.4674e-05,0
1.4289,1.8967e-05,0
1.4294,1.326e-05,0
1.43,-2.8534e-06,0
1.4305,-3.0381e-05,0
1.431,-4.9012e-05,0
1.4315,-4.8844e-05,0
1.432,-3.7766e-05,0
1.4326,-2.9206e-05,0
1.4331,-3.0213e-05,0
1.4336,-3.2395e-05,0
1.4341,-3.8437e-05,0
1.4346,-5.388e-05,0
1.4352,-7.0665e-05,0
1.4357,-8.7953e-05,0
1.4362,-8.7449e-05,0
1.4367,-4.5151e-05,0
1.4372,3.1891e-06,0
1.4378,2.1317e-05,0
1.4383,1.2757e-05,0
1.4388,-7.7211e-06,0
1.4393,-2.4338e-05,0
1.4398,-1.9638e-05,0
1.4403,-1.6785e-05,0
1.4409,-5.388e-05,0
1.4414,-8.896e-05,0
1.4419,-5.5558e-05,0
1.4424,4.1627e-05,0
1.4429,0.00014687,0
1.4435,0.00021871,0
1.444,0.00024019,0
1.4445,0.00022374,0
1.445,0.0002083,0
1.4455,0.00019252,0
1.4461,0.0001462,0
1.4466,6.949e-05,0
1.4471,2.182e-06,0
1.4476,-2.3331e-05,0
1.4481,-2.0142e-05,0
1.4487,-1.8128e-05,0
1.4492,-3.4241e-05,0
1.4497,-5.8579e-05,0
1.4502,-7.4861e-05,0
1.4507,-8.3925e-05,0
1.4512,-8.3421e-05,0
1.4518,-6.6804e-05,0
1.4523,-4.1627e-05,0
1.4528,-1.8463e-05,0
1.4533,1.1749e-06,0
1.4538,1.6281e-05,0
1.4544,2.6017e-05,0
1.4549,2.8031e-05,0
1.4554,2.266e-05,0
1.4559,6.5461e-06,0
1.4564,-1.0239e-05,0
1.457,-2.2156e-05,0
1.4575,-5.2537e-05,0
1.458,-0.00010373,0
1.4585,-0.0001608,0
1.459,-0.00020562,0
1.4596,-0.00021854,0
1.4601,-0.00017305,0
1.4606,-8.9632e-05,0
1.4611,-6.8818e-06,0
1.4616,6.1601e-05,0
1.4622,0.0001509,0
1.4627,0.00027578,0
1.4632,0.00038521,0
1.4637,0.00039663,0
1.4642,0.00029592,0
1.4647,0.00015795,0
1.4653,6.6972e-05,0
1.4658,4.1627e-05,0
1.4663,4.7837e-05,0
1.4668,5.5894e-05,0
1.4673,5.6565e-05,0
1.4679,5.9419e-05,0
1.4684,6.7643e-05,0
1.4689,6.1265e-05,0
1.4694,4.4816e-05,0
1.4699,3.5752e-05,0
1.4705,1.6449e-05,0
1.471,-1.7624e-05,0
1.4715,-4.0116e-05,0
1.472,-4.3473e-05,0
1.4725,-4.1627e-05,0
1.4731,-3.978e-05,0
1.4736,-2.9038e-05,0
1.4741,-1.796e-05,0
1.4746,-2.1317e-05,0
1.4751,-3.4409e-05,0
1.4757,-4.213e-05,0
1.4762,-4.4816e-05,0
1.4767,-5.8915e-05,0
1.4772,-7.8721e-05,0
1.4777,-7.7211e-05,0
1.4783,-5.2705e-05,0
1.4788,-1.2924e-05,0
1.4793,3.2059e-05,0
1.4798,7.3686e-05,0
1.4803,8.2918e-05,0
1.4808,2.5849e-05,0
1.4814,-6.7475e-05,0
1.4819,-0.00013478,0
1.4824,-0.00014586,0
1.4829,-0.00011246,0
1.4834,-6.009e-05,0
1.484,-9.2317e-06,0
1.4845,2.031e-05,0
1.485,2.8031e-05,0
1.4855,4.5151e-05,0
1.486,8.9128e-05,0
1.4866,0.00013344,0
1.4871,0.00014485,0
1.4876,0.00013512,0
1.4881,0.00012522,0
1.4886,0.00010726,0
1.4892,7.9057e-05,0
1.4897,5.2201e-05,0
1.4902,3.8941e-05,0
1.4907,3.3402e-05,0
1.4912,2.5849e-05,0
1.4917,1.8967e-05,0
1.4923,1.7456e-05,0
1.4928,2.501e-05,0
1.4933,4.4144e-05,0
1.4938,5.6565e-05,0
1.4943,4.7501e-05,0
1.4949,2.8199e-05,0
1.4954,2.266e-05,0
1.4959,2.7695e-05,0
1.4964,3.357e-05,0
1.4969,4.0452e-05,0
1.4975,4.918e-05,0
1.498,5.8244e-05,0
1.4985,5.8076e-05,0
1.499,3.9445e-05,0
1.4995,8.5603e-06,0
1.5001,-2.8534e-05,0
1.5006,-6.0594e-05,0
1.5011,-6.6804e-05,0
1.5016,-6.4622e-05,0
1.5021,-8.4092e-05,0
1.5027,-0.00011514,0
1.5032,-0.00012152,0
1.5037,-0.00010944,0
1.5042,-0.00011431,0
1.5047,-0.00013042,0
1.5052,-0.00011431,0
1.5058,-4.3305e-05,0
1.5063,5.3208e-05,0
1.5068,0.00013948,0
1.5073,0.00019924,0
1.5078,0.00021535,0
1.5084,0.00019437,0
1.5089,0.00016667,0
1.5094,0.00015358,0
1.5099,0.00014704,0
1.5104,0.0001368,0
1.511,0.00012589,0
1.5115,0.00011431,0
1.512,9.2485e-05,0
1.5125,6.1433e-05,0
1.513,3.9277e-05,0
1.5136,3.5752e-05,0
1.5141,3.8773e-05,0
1.5146,4.0452e-05,0
1.5151,3.4745e-05,0
1.5156,1.9471e-05,0
1.5162,1.8463e-06,0
1.5167,-7.2175e-06,0
1.5172,-6.2104e-06,0
1.5177,-3.6927e-06,0
1.5182,-5.0355e-06,0
1.5188,-8.2246e-06,0
1.5193,-2.6688e-05,0
1.5198,-5.9251e-05,0
1.5203,-7.6707e-05,0
1.5208,-5.9922e-05,0
1.5213,-2.5681e-05,0
1.5219,-4.1962e-06,0
1.5224,-5.539e-06,0
1.5229,-2.266e-05,0
1.5234,-3.1556e-05,0
1.5239,-2.8031e-05,0
1.5245,-3.8773e-05,0
1.525,-5.5222e-05,0
1.5255,-4.6494e-05,0
1.526,-3.0381e-05,0
1.5265,-3.4913e-05,0
1.5271,-4.2466e-05,0
1.5276,-2.0981e-05,0
1.5281,2.5513e-05,0
1.5286,4.8173e-05,0
1.5291,3.3066e-05,0
1.5297,-5.0355e-07,0
1.5302,-2.2492e-05,0
1.5307,-1.6953e-05,0
1.5312,7.8889e-06,0
1.5317,3.743e-05,0
1.5322,6.2104e-05,0
1.5328,9.8863e-05,0
1.5333,0.00015341,0
1.5338,0.00019034,0
1.5343,0.00017943,0
1.5348,0.00014385,0
1.5354,9.7856e-05,0
1.5359,4.6494e-05,0
1.5364,2.5177e-06,0
1.5369,-1.5106e-05,0
1.5374,-1.1582e-05,0
1.538,5.2033e-06,0
1.5385,3.3738e-05,0
1.539,4.8844e-05,0
1.5395,3.8773e-05,0
1.54,1.6785e-05,0
1.5406,4.0284e-06,0
1.5411,1.7121e-05,0
1.5416,4.1123e-05,0
1.5421,3.7095e-05,0
1.5426,-1.0239e-05,0
1.5432,-8.3421e-05,0
1.5437,-0.00016751,0
1.5442,-0.00022206,0
1.5447,-0.00022106,0
1.5452,-0.00018044,0
1.5457,-0.00011766,0
1.5463,-4.3641e-05,0
1.5468,2.1988e-05,0
1.5473,7.805e-05,0
1.5478,0.00013529,0
1.5483,0.00019017,0
1.5489,0.00022609,0
1.5494,0.00022542,0
1.5499,0.00018379,0
1.5504,0.00012337,0
1.5509,7.5364e-05,0
1.5515,5.2537e-05,0
1.552,4.4648e-05,0
1.5525,4.2802e-05,0
1.553,4.7166e-05,0
1.5535,5.7572e-05,0
1.5541,5.623e-05,0
1.5546,2.9709e-05,0
1.5551,-9.0639e-06,0
1.5556,-3.4745e-05,0
1.5561,-3.592e-05,0
1.5567,-2.8367e-05,0
1.5572,-3.2731e-05,0
1.5577,-5.5558e-05,0
1.5582,-9.5171e-05,0
1.5587,-0.00014217,0
1.5593,-0.00016382,0
1.5598,-0.0001331,0
1.5603,-6.5965e-05,0
1.5608,8.3925e-07,0
1.5613,3.9948e-05,0
1.5618,5.1362e-05,0
1.5624,5.7237e-05,0
1.5629,6.7308e-05,0
1.5634,7.5364e-05,0
1.5639,7.0665e-05,0
1.5644,4.8844e-05,0
1.565,2.6688e-05,0
1.5655,1.5778e-05,0
1.566,1.7624e-05,0
1.5665,4.918e-05,0
1.567,0.0001133,0
1.5676,0.0001749,0
1.5681,0.00018396,0
1.5686,0.00014083,0
1.5691,7.7714e-05,0
1.5696,2.6017e-05,0
1.5702,-1.8463e-06,0
1.5707,-1.1582e-05,0
1.5712,-5.8747e-06,0
1.5717,8.2246e-06,0
1.5722,9.3996e-06,0
1.5728,-1.9638e-05,0
1.5733,-6.8482e-05,0
1.5738,-0.00011833,0
1.5743,-0.00015258,0
1.5748,-0.0001613,0
1.5753,-0.000142,0
1.5759,-9.6178e-05,0
1.5764,-3.122e-05,0
1.5769,3.8605e-05,0
1.5774,9.8863e-05,0
1.5779,0.00013008,0
1.5785,0.00013881,0
1.579,0.00013747,0
1.5795,0.00012219,0
1.58,9.1981e-05,0
1.5805,6.2272e-05,0
1.5811,6.1601e-05,0
1.5816,9.3828e-05,0
1.5821,0.00012857,0
1.5826,0.00013143,0
1.5831,0.0001039,0
1.5837,7.4693e-05,0
1.5842,5.4215e-05,0
1.5847,2.9709e-05,0
1.5852,1.8463e-06,0
1.5857,-2.8031e-05,0
1.5862,-5.6062e-05,0
1.5868,-7.6371e-05,0
1.5873,-8.0735e-05,0
1.5878,-7.4022e-05,0
1.5883,-6.5965e-05,0
1.5888,-5.9419e-05,0
1.5894,-6.5965e-05,0
1.5899,-8.2582e-05,0
1.5904,-8.0735e-05,0
1.5909,-5.1362e-05,0
1.5914,-4.1962e-06,0
1.592,6.0594e-05,0
1.5925,0.00012538,0
1.593,0.00015627,0
1.5935,0.0001274,0
1.594,5.5894e-05,0
1.5946,-2.3163e-05,0
1.5951,-7.9896e-05,0
1.5956,-8.8289e-05,0
1.5961,-5.9922e-05,0
1.5966,-1.5442e-05,0
1.5972,5.4887e-05,0
1.5977,0.00012001,0
1.5982,0.00014821,0
1.5987,0.00015929,0
1.5992,0.00016349,0
1.5998,0.00015157,0
1.6003,0.00012052,0
1.6008,8.3421e-05,0
1.6013,5.3376e-05,0
1.6018,3.4073e-05,0
1.6023,1.4099e-05,0
1.6029,-2.182e-06,0
1.6034,-4.1962e-06,0
1.6039,4.1962e-06,0
1.6044,5.8747e-06,0
1.6049,-4.5319e-06,0
1.6055,-1.1246e-05,0
1.606,3.8605e-06,0
1.6065,2.3835e-05,0
1.607,2.0142e-05,0
1.6075,-6.8818e-06,0
1.6081,-3.508e-05,0
1.6086,-4.7837e-05,0
1.6091,-4.0787e-05,0
1.6096,-3.1388e-05,0
1.6101,-3.508e-05,0
1.6107,-4.8844e-05,0
1.6112,-6.2608e-05,0
1.6117,-5.388e-05,0
1.6122,-1.4939e-05,0
1.6127,2.6017e-05,0
1.6133,3.4745e-05,0
1.6138,8.2246e-06,0
1.6143,-1.8631e-05,0
1.6148,-5.0355e-06,0
1.6153,5.8244e-05,0
1.6158,0.00012605,0
1.6164,0.00014821,0
1.6169,0.00012673,0
1.6174,9.6513e-05,0
1.6179,8.9464e-05,0
1.6184,9.7353e-05,0
1.619,8.6778e-05,0
1.6195,4.918e-05,0
1.62,-1.2253e-05,0
1.6205,-6.9322e-05,0
1.621,-9.0303e-05,0
1.6216,-8.4932e-05,0
1.6221,-7.6875e-05,0
1.6226,-7.6036e-05,0
1.6231,-7.6539e-05,0
1.6236,-6.3951e-05,0
1.6242,-2.9877e-05,0
1.6247,9.0639e-06,0
1.6252,4.448e-05,0
1.6257,7.9393e-05,0
1.6262,0.00010524,0
1.6267,0.00011363,0
1.6273,0.00010105,0
1.6278,7.1504e-05,0
1.6283,3.0716e-05,0
1.6288,-5.2033e-06,0
1.6293,-2.4674e-05,0
1.6299,-2.8367e-05,0
1.6304,-1.5946e-05,0
1.6309,9.5674e-06,0
1.6314,3.8773e-05,0
1.6319,5.7404e-05,0
1.6325,7.1504e-05,0
1.633,9.1142e-05,0
1.6335,0.00010256,0
1.634,7.9057e-05,0
1.6345,1.3764e-05,0
1.6351,-7.2175e-05,0
1.6356,-0.00014183,0
1.6361,-0.00017675,0
1.6366,-0.0001801,0
1.6371,-0.00014821,0
1.6377,-8.5603e-05,0
1.6382,-2.6688e-05,0
1.6387,2.6352e-05,0
1.6392,7.9728e-05,0
1.6397,9.0806e-05,0
1.6402,5.0187e-05,0
1.6408,9.7353e-06,0
1.6413,-4.0284e-06,0
1.6418,-8.896e-06,0
1.6423,-2.9038e-05,0
1.6428,-5.8076e-05,0
1.6434,-6.6804e-05,0
1.6439,-2.4002e-05,0
1.6444,6.3279e-05,0
1.6449,0.00012874,0
1.6454,0.00012001,0
1.646,5.2369e-05,0
1.6465,8.0568e-06,0
1.647,3.3402e-05,0
1.6475,0.00010088,0
1.648,0.00015811,0
1.6486,0.00018631,0
1.6491,0.00018732,0
1.6496,0.0001655,0
1.6501,0.00013327,0
1.6506,0.00010658,0
1.6512,9.2988e-05,0
1.6517,9.1478e-05,0
1.6522,0.00010121,0
1.6527,0.0001138,0
1.6532,0.00010709,0
1.6538,8.0232e-05,0
1.6543,4.7333e-05,0
1.6548,7.8889e-06,0
1.6553,-4.2802e-05,0
1.6558,-9.9535e-05,0
1.6563,-0.00013495,0
1.6569,-0.00013159,0
1.6574,-0.00010105,0
1.6579,-6.9322e-05,0
1.6584,-4.7837e-05,0
1.6589,-3.2898e-05,0
1.6595,-1.9974e-05,0
1.66,-1.0742e-05,0
1.6605,-5.539e-06,0
1.661,-1.1582e-05,0
1.6615,-2.5681e-05,0
1.6621,-2.4674e-05,0
1.6626,4.8676e-06,0
1.6631,5.153e-05,0
1.6636,0.00010188,0
1.6641,0.00014653,0
1.6647,0.00017322,0
1.6652,0.00017372,0
1.6657,0.00015224,0
1.6662,0.0001232,0
1.6667,8.8457e-05,0
1.6672,4.8173e-05,0
1.6678,6.3783e-06,0
1.6683,-2.501e-05,0
1.6688,-2.8534e-05,0
1.6693,-1.2421e-05,0
1.6698,-5.539e-06,0
1.6704,-9.5674e-06,0
1.6709,-4.6998e-06,0
1.6714,1.3596e-05,0
1.6719,3.2059e-05,0
1.6724,3.9109e-05,0
1.673,3.4577e-05,0
1.6735,1.5106e-05,0
1.674,-1.4099e-05,0
1.6745,-3.5752e-05,0
1.675,-4.1123e-05,0
1.6756,-3.9277e-05,0
1.6761,-4.3137e-05,0
1.6766,-5.0355e-05,0
1.6771,-5.0858e-05,0
1.6776,-4.0452e-05,0
1.6782,-3.2395e-05,0
1.6787,-3.8437e-05,0
1.6792,-4.3305e-05,0
1.6797,-3.6088e-05,0
1.6802,-2.4842e-05,0
1.6807,-1.5274e-05,0
1.6813,-1.4099e-05,0
1.6818,-2.9374e-05,0
1.6823,-6.3279e-05,0
1.6828,-0.00011666,0
1.6833,-0.00016886,0
1.6839,-0.00019236,0
1.6844,-0.00016466,0
1.6849,-9.0639e-05,0
1.6854,-1.1749e-06,0
1.6859,7.4189e-05,0
1.6865,0.00015073,0
1.687,0.00024758,0
1.6875,0.00032445,0
1.688,0.00033419,0
1.6885,0.00028753,0
1.6891,0.00022542,0
1.6896,0.00016097,0
1.6901,9.8527e-05,0
1.6906,2.8031e-05,0
1.6911,-4.1962e-05,0
1.6917,-6.6636e-05,0
1.6922,-5.4047e-05,0
1.6927,-4.8508e-05,0
1.6932,-6.009e-05,0
1.6937,-6.7475e-05,0
1.6943,-6.0594e-05,0
1.6948,-5.3544e-05,0
1.6953,-5.3544e-05,0
1.6958,-5.0523e-05,0
1.6963,-3.1724e-05,0
1.6968,1.1749e-06,0
1.6974,3.7095e-05,0
1.6979,6.714e-05,0
1.6984,8.4764e-05,0
1.6989,7.9393e-05,0
1.6994,6.1769e-05,0
1.7,5.9754e-05,0
1.7005,6.7643e-05,0
1.701,5.9251e-05,0
1.7015,3.3234e-05,0
1.702,8.7282e-06,0
1.7026,5.539e-06,0
1.7031,3.0716e-05,0
1.7036,6.0761e-05,0
1.7041,6.3783e-05,0
1.7046,4.8173e-05,0
1.7052,3.2059e-05,0
1.7057,1.1246e-05,0
1.7062,-1.5442e-05,0
1.7067,-5.3208e-05,0
1.7072,-0.00010692,0
1.7078,-0.00014871,0
1.7083,-0.00014855,0
1.7088,-0.00010893,0
1.7093,-8.2246e-05,0
1.7098,-9.987e-05,0
1.7103,-8.8457e-05,0
1.7109,3.8605e-06,0
1.7114,0.00012656,0
1.7119,0.00021971,0
1.7124,0.00027074,0
1.7129,0.00029223,0
1.7135,0.00028081,0
1.714,0.0002219,0
1.7145,0.00013378,0
1.715,6.7308e-05,0
1.7155,4.9516e-05,0
1.7161,4.1123e-05,0
1.7166,1.2085e-05,0
1.7171,-4.3641e-06,0
1.7176,1.796e-05,0
1.7181,5.388e-05,0
1.7187,6.5629e-05,0
1.7192,4.7837e-05,0
1.7197,2.4842e-05,0
1.7202,1.1917e-05,0
1.7207,1.5106e-06,0
1.7212,-1.1749e-05,0
1.7218,-2.4338e-05,0
1.7223,-3.2059e-05,0
1.7228,-3.0716e-05,0
1.7233,-2.3331e-05,0
1.7238,-1.2085e-05,0
1.7244,1.6785e-06,0
1.7249,1.5274e-05,0
1.7254,2.5681e-05,0
1.7259,2.1988e-05,0
1.7264,-2.3499e-06,0
1.727,-3.1052e-05,0
1.7275,-4.2634e-05,0
1.728,-3.9445e-05,0
1.7285,-4.0787e-05,0
1.729,-5.5222e-05,0
1.7296,-7.0665e-05,0
1.7301,-7.1336e-05,0
1.7306,-5.3544e-05,0
1.7311,-2.8031e-05,0
1.7316,1.8463e-06,0
1.7322,2.8367e-05,0
1.7327,3.3738e-05,0
1.7332,1.7288e-05,0
1.7337,-1.4099e-05,0
1.7342,-5.1026e-05,0
1.7348,-7.2679e-05,0
1.7353,-7.5364e-05,0
1.7358,-7.9057e-05,0
1.7363,-8.3421e-05,0
1.7368,-6.6468e-05,0
1.7373,-1.9638e-05,0
1.7379,3.6591e-05,0
1.7384,7.5532e-05,0
1.7389,9.9199e-05,0
1.7394,0.00010977,0
1.7399,0.00011229,0
1.7405,0.00011884,0
1.741,0.00013545,0
1.7415,0.00014066,0
1.742,0.00010675,0
1.7425,5.2369e-05,0
1.7431,0,0
1.7436,-4.3137e-05,0
1.7441,-6.3447e-05,0
1.7446,-6.949e-05,0
1.7451,-7.0329e-05,0
1.7457,-4.2802e-05,0
1.7462,2.0645e-05,0
1.7467,0.00010574,0
1.7472,0.00018648,0
1.7477,0.00021065,0
1.7483,0.00017641,0
1.7488,0.00014083,0
1.7493,0.00014032,0
1.7498,0.00014955,0
1.7503,0.00012152,0
1.7508,5.4047e-05,0
1.7514,-2.4674e-05,0
1.7519,-7.805e-05,0
1.7524,-9.1814e-05,0
1.7529,-8.3421e-05,0
1.7534,-6.1265e-05,0
1.754,-3.9445e-05,0
1.7545,-4.6159e-05,0
1.755,-0.00010625,0
1.7555,-0.00018396,0
1.756,-0.00020696,0
1.7566,-0.0001608,0
1.7571,-8.9464e-05,0
1.7576,-2.6688e-05,0
1.7581,2.6688e-05,0
1.7586,8.9464e-05,0
1.7592,0.00017137,0
1.7597,0.00024691,0
1.7602,0.00026436,0
1.7607,0.00021971,0
1.7612,0.00015879,0
1.7617,0.00011431,0
1.7623,8.7617e-05,0
1.7628,6.7308e-05,0
1.7633,4.683e-05,0
1.7638,2.7359e-05,0
1.7643,5.2033e-06,0
1.7649,-1.4603e-05,0
1.7654,-2.2156e-05,0
1.7659,-4.6662e-05,0
1.7664,-0.00012589,0
1.7669,-0.00023952,0
1.7675,-0.00033587,0
1.768,-0.0003837,0
1.7685,-0.00036625,0
1.769,-0.0002798,0
1.7695,-0.00013344,0
1.7701,3.1724e-05,0
1.7706,0.00017372,0
1.7711,0.00027108,0
1.7716,0.00031254,0
1.7721,0.00030599,0
1.7727,0.00027863,0
1.7732,0.00023784,0
1.7737,0.00017742,0
1.7742,0.00012438,0
1.7747,9.9199e-05,0
1.7752,0.00010423,0
1.7758,0.00010961,0
1.7763,8.1743e-05,0
1.7768,4.1123e-05,0
1.7773,2.4506e-05,0
1.7778,4.0116e-05,0
1.7784,7.2847e-05,0
1.7789,9.8527e-05,0
1.7794,0.00010423,0
1.7799,8.8624e-05,0
1.7804,6.4286e-05,0
1.781,2.1149e-05,0
1.7815,-4.6494e-05,0
1.782,-0.00010541,0
1.7825,-0.00012706,0
1.783,-0.00010037,0
1.7836,-4.4816e-05,0
1.7841,-7.0497e-06,0
1.7846,-9.7353e-06,0
1.7851,-3.2395e-05,0
1.7856,-4.6494e-05,0
1.7862,-4.683e-05,0
1.7867,-5.8915e-05,0
1.7872,-8.3757e-05,0
1.7877,-9.4163e-05,0
1.7882,-8.6946e-05,0
1.7888,-5.304e-05,0
1.7893,5.2033e-06,0
1.7898,4.9851e-05,0
1.7903,8.5435e-05,0
1.7908,0.00013075,0
1.7913,0.00017272,0
1.7919,0.0001942,0
1.7924,0.00020729,0
1.7929,0.00020847,0
1.7934,0.00016667,0
1.7939,9.9535e-05,0
1.7945,6.6133e-05,0
1.795,7.6204e-05,0
1.7955,7.9728e-05,0
1.796,3.357e-05,0
1.7965,-6.2104e-05,0
1.7971,-0.00015358,0
1.7976,-0.00019622,0
1.7981,-0.00018111,0
1.7986,-0.00013965,0
1.7991,-0.00010356,0
1.7997,-8.9464e-05,0
1.8002,-9.4331e-05,0
1.8007,-8.7953e-05,0
1.8012,-6.3447e-05,0
1.8017,-5.1194e-05,0
1.8022,-4.8173e-05,0
1.8028,-2.8031e-05,0
1.8033,9.2317e-06,0
1.8038,4.5487e-05,0
1.8043,6.8986e-05,0
1.8048,7.8553e-05,0
1.8054,8.5267e-05,0
1.8059,8.6778e-05,0
1.8064,6.479e-05,0
1.8069,2.652e-05,0
1.8074,-5.2033e-06,0
1.808,-2.1653e-05,0
1.8085,-1.8631e-05,0
1.809,-3.357e-07,0
1.8095,1.3764e-05,0
1.81,1.3092e-05,0
1.8106,3.8605e-06,0
1.8111,-6.714e-07,0
1.8116,4.8676e-06,0
1.8121,1.9303e-05,0
1.8126,4.1794e-05,0
1.8132,5.9586e-05,0
1.8137,7.6371e-05,0
1.8142,9.8863e-05,0
1.8147,0.00011682,0
1.8152,0.00012253,0
1.8157,0.00010709,0
1.8163,6.6972e-05,0
1.8168,3.3738e-05,0
1.8173,3.8605e-05,0
1.8178,4.9012e-05,0
1.8183,2.1149e-05,0
1.8189,-1.8799e-05,0
1.8194,-1.9806e-05,0
1.8199,3.3738e-05,0
1.8204,0.00012538,0
1.8209,0.00020125,0
1.8215,0.0002083,0
1.822,0.00015123,0
1.8225,7.4022e-05,0
1.823,6.2104e-06,0
1.8235,-2.9709e-05,0
1.8241,-2.9877e-05,0
1.8246,-1.9638e-05,0
1.8251,-1.326e-05,0
1.8256,-1.326e-05,0
1.8261,-2.0981e-05,0
1.8267,-3.743e-05,0
1.8272,-6.1265e-05,0
1.8277,-7.7211e-05,0
1.8282,-7.2679e-05,0
1.8287,-5.3376e-05,0
1.8293,-2.1485e-05,0
1.8298,1.9974e-05,0
1.8303,5.9922e-05,0
1.8308,9.2317e-05,0
1.8313,9.7688e-05,0
1.8318,6.4286e-05,0
1.8324,2.3331e-05,0
1.8329,7.3854e-06,0
1.8334,-2.5177e-06,0
1.8339,-5.069e-05,0
1.8344,-0.00011833,0
1.835,-0.0001472,0
1.8355,-0.00011783,0
1.836,-5.5726e-05,0
1.8365,1.2421e-05,0
1.837,8.1239e-05,0
1.8376,0.00014083,0
1.8381,0.00018715,0
1.8386,0.0002125,0
1.8391,0.00019319,0
1.8396,0.00013059,0
1.8402,4.6998e-05,0
1.8407,-1.7121e-05,0
1.8412,-2.8031e-05,0
1.8417,-1.0071e-05,0
1.8422,-1.0239e-05,0
1.8428,-4.5151e-05,0
1.8433,-8.896e-05,0
1.8438,-0.00011968,0
1.8443,-0.00014267,0
1.8448,-0.00014838,0
1.8453,-0.0001185,0
1.8459,-5.4551e-05,0
1.8464,-1.6785e-07,0
1.8469,1.4099e-05,0
1.8474,8.896e-06,0
1.8479,1.8296e-05,0
1.8485,5.7572e-05,0
1.849,0.00010004,0
1.8495,0.00011363,0
1.85,9.9199e-05,0
1.8505,8.0064e-05,0
1.8511,7.0665e-05,0
1.8516,5.9586e-05,0
1.8521,2.5345e-05,0
1.8526,-2.7192e-05,0
1.8531,-6.865e-05,0
1.8537,-6.63e-05,0
1.8542,-3.1891e-05,0
1.8547,1.8463e-06,0
1.8552,2.9374e-05,0
1.8557,5.6565e-05,0
1.8562,8.3085e-05,0
1.8568,0.00010927,0
1.8573,0.00012303,0
1.8578,0.00011867,0
1.8583,0.00011044,0
1.8588,9.1142e-05,0
1.8594,4.9348e-05,0
1.8599,3.8605e-06,0
1.8604,-2.1653e-05,0
1.8609,-2.6017e-05,0
1.8614,-2.1988e-05,0
1.862,-1.5274e-05,0
1.8625,-3.1891e-06,0
1.863,1.6953e-05,0
1.8635,4.1123e-05,0
1.864,5.1362e-05,0
1.8646,3.2059e-05,0
1.8651,5.2033e-06,0
1.8656,-3.1891e-06,0
1.8661,1.0071e-06,0
1.8666,5.2033e-06,0
1.8672,1.9806e-05,0
1.8677,4.213e-05,0
1.8682,5.4887e-05,0
1.8687,5.0355e-05,0
1.8692,3.4913e-05,0
1.8698,1.4603e-05,0
1.8703,-1.4435e-05,0
1.8708,-6.0594e-05,0
1.8713,-0.00010944,0
1.8718,-0.0001415,0
1.8723,-0.00015375,0
1.8729,-0.00015039,0
1.8734,-0.00013327,0
1.8739,-9.5506e-05,0
1.8744,-4.3473e-05,0
1.8749,3.1891e-06,0
1.8755,4.4648e-05,0
1.876,8.3421e-05,0
1.8765,0.00011749,0
1.877,0.00013562,0
1.8775,0.00013814,0
1.8781,0.00013109,0
1.8786,0.00012454,0
1.8791,0.00011531,0
1.8796,7.8889e-05,0
1.8801,3.1891e-05,0
1.8807,1.4603e-05,0
1.8812,4.3809e-05,0
1.8817,0.00011162,0
1.8822,0.00018782,0
1.8827,0.00021921,0
1.8833,0.00018514,0
1.8838,0.00012203,0
1.8843,7.0665e-05,0
1.8848,2.5849e-05,0
1.8853,-2.7024e-05,0
1.8858,-7.8889e-05,0
1.8864,-9.1814e-05,0
1.8869,-5.4047e-05,0
1.8874,-7.0497e-06,0
1.8879,1.5778e-05,0
1.8884,1.4603e-05,0
1.889,2.1653e-05,0
1.8895,5.623e-05,0
1.89,8.9128e-05,0
1.8905,8.2078e-05,0
1.891,4.7837e-05,0
1.8916,3.2395e-05,0
1.8921,4.0787e-05,0
1.8926,3.4409e-05,0
1.8931,-1.8463e-06,0
1.8936,-3.4745e-05,0
1.8942,-3.7766e-05,0
1.8947,-1.8799e-05,0
1.8952,1.091e-05,0
1.8957,3.3066e-05,0
1.8962,2.6352e-05,0
1.8967,5.0355e-07,0
1.8973,-1.1749e-05,0
1.8978,3.357e-06,0
1.8983,2.652e-05,0
1.8988,4.5151e-05,0
1.8993,5.7908e-05,0
1.8999,5.4383e-05,0
1.9004,2.4002e-05,0
1.9009,-2.4002e-05,0
1.9014,-6.63e-05,0
1.9019,-6.2104e-05,0
1.9025,-2.501e-05,0
1.903,-6.5461e-06,0
1.9035,-5.539e-06,0
1.904,3.5248e-06,0
1.9045,6.0426e-06,0
1.9051,-1.3596e-05,0
1.9056,-5.2537e-05,0
1.9061,-9.1814e-05,0
1.9066,-0.00011179,0
1.9071,-9.8863e-05,0
1.9077,-5.7069e-05,0
1.9082,-1.796e-05,0
1.9087,-1.1749e-06,0
1.9092,-1.6785e-07,0
1.9097,4.0284e-06,0
1.9103,3.8102e-05,0
1.9108,9.2485e-05,0
1.9113,0.00010541,0
1.9118,5.6733e-05,0
1.9123,1.1078e-05,0
1.9128,1.8463e-05,0
1.9134,6.2943e-05,0
1.9139,0.00010088,0
1.9144,9.7856e-05,0
1.9149,5.2201e-05,0
1.9154,5.0355e-07,0
1.916,-8.896e-06,0
1.9165,2.4002e-05,0
1.917,6.479e-05,0
1.9175,9.1981e-05,0
1.918,0.00010944,0
1.9186,0.00011666,0
1.9191,0.00010323,0
1.9196,7.0329e-05,0
1.9201,2.0981e-05,0
1.9206,-2.8702e-05,0
1.9212,-5.9251e-05,0
1.9217,-6.9657e-05,0
1.9222,-6.6804e-05,0
1.9227,-6.0929e-05,0
1.9232,-5.8747e-05,0
1.9238,-4.9012e-05,0
1.9243,-2.5513e-05,0
1.9248,3.5248e-06,0
1.9253,3.1724e-05,0
1.9258,4.9851e-05,0
1.9263,5.7237e-05,0
1.9269,5.6901e-05,0
1.9274,5.3544e-05,0
1.9279,5.0523e-05,0
1.9284,5.2201e-05,0
1.9289,5.8244e-05,0
1.9295,6.1936e-05,0
1.93,6.3447e-05,0
1.9305,7.0329e-05,0
1.931,7.1672e-05,0
1.9315,5.4047e-05,0
1.9321,2.8031e-05,0
1.9326,8.7282e-06,0
1.9331,-6.2104e-06,0
1.9336,-3.1388e-05,0
1.9341,-5.623e-05,0
1.9347,-6.2104e-05,0
1.9352,-5.9419e-05,0
1.9357,-6.0426e-05,0
1.9362,-6.8315e-05,0
1.9367,-8.4428e-05,0
1.9372,-8.8121e-05,0
1.9378,-5.7237e-05,0
1.9383,8.3925e-07,0
1.9388,5.153e-05,0
1.9393,8.2918e-05,0
1.9398,0.00010692,0
1.9404,0.0001274,0
1.9409,0.00013646,0
1.9414,0.0001368,0
1.9419,0.00013394,0
1.9424,0.00011481,0
1.943,8.0735e-05,0
1.9435,4.1123e-05,0
1.944,1.1749e-06,0
1.9445,-2.0813e-05,0
1.945,-1.9303e-05,0
1.9456,-1.8296e-05,0
1.9461,-3.2898e-05,0
1.9466,-5.0019e-05,0
1.9471,-6.4958e-05,0
1.9476,-7.2343e-05,0
1.9482,-6.4622e-05,0
1.9487,-3.0381e-05,0
1.9492,3.2731e-05,0
1.9497,8.5771e-05,0
1.9502,9.1142e-05,0
1.9507,7.3686e-05,0
1.9513,8.5771e-05,0
1.9518,0.00012001,0
1.9523,0.00012404,0
1.9528,8.4932e-05,0
1.9533,2.1317e-05,0
1.9539,-5.8244e-05,0
1.9544,-0.00011296,0
1.9549,-9.9535e-05,0
1.9554,-3.4073e-05,0
1.9559,3.4073e-05,0
1.9565,7.2175e-05,0
1.957,0.00010927,0
1.9575,0.00017272,0
1.958,0.00022274,0
1.9585,0.00020394,0
1.9591,0.00014536,0
1.9596,0.00011296,0
1.9601,0.00011061,0
1.9606,0.00011028,0
1.9611,9.3492e-05,0
1.9617,5.3544e-05,0
1.9622,-1.1749e-06,0
1.9627,-4.5487e-05,0
1.9632,-5.9586e-05,0
1.9637,-6.5461e-05,0
1.9643,-7.335e-05,0
1.9648,-8.4764e-05,0
1.9653,-9.7017e-05,0
1.9658,-9.6178e-05,0
1.9663,-9.1478e-05,0
1.9668,-0.00011833,0
1.9674,-0.00020293,0
1.9679,-0.00029038,0
1.9684,-0.00030935,0
1.9689,-0.00025731,0
1.9694,-0.00017641,0
1.97,-9.3492e-05,0
1.9705,-8.2246e-06,0
1.971,8.4092e-05,0
1.9715,0.00017926,0
1.972,0.00025463,0
1.9726,0.00027175,0
1.9731,0.00023247,0
1.9736,0.00017372,0
1.9741,0.00010524,0
1.9746,3.6591e-05,0
1.9752,-2.3499e-06,0
1.9757,4.5319e-06,0
1.9762,3.9445e-05,0
1.9767,7.2175e-05,0
1.9772,7.7714e-05,0
1.9777,5.7237e-05,0
1.9783,2.7695e-05,0
1.9788,1.8128e-05,0
1.9793,2.7863e-05,0
1.9798,2.8367e-05,0
1.9803,1.2757e-05,0
1.9809,1.7288e-05,0
1.9814,4.918e-05,0
1.9819,7.8721e-05,0
1.9824,8.9296e-05,0
1.9829,7.0161e-05,0
1.9835,2.266e-05,0
1.984,-1.4939e-05,0
1.9845,-1.6617e-05,0
1.985,8.0568e-06,0
1.9855,3.3402e-05,0
1.9861,4.213e-05,0
1.9866,3.9948e-05,0
1.9871,4.6998e-05,0
1.9876,6.865e-05,0
1.9881,8.6107e-05,0
1.9887,7.6204e-05,0
1.9892,3.4409e-05,0
1.9897,-2.182e-05,0
1.9902,-6.2776e-05,0
1.9907,-7.805e-05,0
1.9912,-8.2078e-05,0
1.9918,-8.8624e-05,0
1.9923,-0.00010256,0
1.9928,-0.00011615,0
1.9933,-0.00011867,0
1.9938,-9.8695e-05,0
1.9944,-5.6565e-05,0
1.9949,-3.0213e-06,0
1.9954,4.4648e-05,0
1.9959,8.275e-05,0
1.9964,0.00012186,0
1.997,0.00014318,0
1.9975,0.0001467,0
1.998,0.00014687,0
1.9985,0.00014754,0
1.999,0.0001368,0
1.9996,9.5171e-05,0
2.0001,3.3738e-05,0
2.0006,0,0
2.0011,8.5603e-06,0
2.0016,2.7695e-05,0
2.0022,3.0381e-05,0
2.0027,1.9303e-05,0
2.0032,5.8747e-06,0
2.0037,-1.5946e-05,0
2.0042,-6.4118e-05,0
2.0048,-0.00012203,0
2.0053,-0.00014653,0
2.0058,-0.00011414,0
2.0063,-4.1794e-05,0
2.0068,2.4338e-05,0
2.0073,5.9251e-05,0
2.0079,8.896e-05,0
2.0084,0.00014821,0
2.0089,0.0002088,0
2.0094,0.00022139,0
2.0099,0.00018178,0
2.0105,0.0001227,0
2.011,7.3014e-05,0
2.0115,3.9948e-05,0
2.012,1.6953e-05,0
2.0125,4.5319e-06,0
2.0131,-1.8463e-06,0
2.0136,-1.0239e-05,0
2.0141,-1.8128e-05,0
2.0146,-2.3835e-05,0
2.0151,-2.501e-05,0
2.0157,-2.7359e-05,0
2.0162,-5.0355e-05,0
2.0167,-9.1814e-05,0
2.0172,-0.00011867,0
2.0177,-0.00011666,0
2.0183,-0.00010961,0
2.0188,-0.00011884,0
2.0193,-0.00012186,0
2.0198,-0.00010004,0
2.0203,-5.4551e-05,0
2.0208,3.1891e-06,0
2.0214,4.6494e-05,0
2.0219,5.1362e-05,0
2.0224,2.887e-05,0
2.0229,-1.1749e-05,0
2.0234,-4.9516e-05,0
2.024,-5.4215e-05,0
2.0245,-3.0884e-05,0
2.025,9.9031e-06,0
2.0255,5.3544e-05,0
2.026,8.7449e-05,0
2.0266,0.00012522,0
2.0271,0.00019521,0
2.0276,0.00026839,0
2.0281,0.0002845,0
2.0286,0.00023012,0
2.0292,0.00015123,0
2.0297,8.9128e-05,0
2.0302,6.2943e-05,0
2.0307,6.0929e-05,0
2.0312,5.1194e-05,0
2.0318,3.1556e-05,0
2.0323,2.031e-05,0
2.0328,1.7288e-05,0
2.0333,1.3764e-05,0
2.0338,6.8818e-06,0
2.0343,-5.539e-06,0
2.0349,-2.2492e-05,0
2.0354,-3.8437e-05,0
2.0359,-5.153e-05,0
2.0364,-5.6733e-05,0
2.0369,-4.8508e-05,0
2.0375,-3.7095e-05,0
2.038,-4.3137e-05,0
2.0385,-6.8986e-05,0
2.039,-9.0806e-05,0
2.0395,-9.4163e-05,0
2.0401,-7.9561e-05,0
2.0406,-4.6494e-05,0
2.0411,1.0071e-06,0
2.0416,3.4073e-05,0
2.0421,4.7501e-05,0
2.0427,7.2343e-05,0
2.0432,0.00010726,0
2.0437,0.0001279,0
2.0442,0.00013948,0
2.0447,0.00014049,0
2.0452,0.00011968,0
2.0458,8.2582e-05,0
2.0463,4.8173e-05,0
2.0468,1.7624e-05,0
2.0473,-5.539e-06,0
2.0478,-2.031e-05,0
2.0484,-4.9516e-05,0
2.0489,-9.6345e-05,0
2.0494,-0.0001284,0
2.0499,-0.00011766,0
2.0504,-6.4958e-05,0
2.051,8.896e-06,0
2.0515,6.6636e-05,0
2.052,7.9393e-05,0
2.0525,4.5823e-05,0
2.053,-1.2421e-05,0
2.0536,-6.8147e-05,0
2.0541,-9.6345e-05,0
2.0546,-9.2821e-05,0
2.0551,-8.0735e-05,0
2.0556,-6.0426e-05,0
2.0562,-1.2757e-05,0
2.0567,7.0665e-05,0
2.0572,0.00017977,0
2.0577,0.00027611,0
2.0582,0.00031035,0
2.0587,0.0002751,0
2.0593,0.00021065,0
2.0598,0.00016684,0
2.0603,0.00014888,0
2.0608,0.00012119,0
2.0613,6.4286e-05,0
2.0619,-2.182e-06,0
2.0624,-5.1865e-05,0
2.0629,-7.7379e-05,0
2.0634,-9.3492e-05,0
2.0639,-0.00012203,0
2.0645,-0.00015358,0
2.065,-0.0001613,0
2.0655,-0.00014368,0
2.066,-0.00011531,0
2.0665,-8.275e-05,0
2.0671,-4.0787e-05,0
2.0676,5.7069e-06,0
2.0681,4.1459e-05,0
2.0686,5.4551e-05,0
2.0691,6.1097e-05,0
2.0697,8.7617e-05,0
2.0702,0.00012538,0
2.0707,0.00014553,0
2.0712,0.00013361,0
2.0717,9.9702e-05,0
2.0722,6.7643e-05,0
2.0728,3.8773e-05,0
2.0733,-6.5461e-06,0
2.0738,-6.0929e-05,0
2.0743,-9.836e-05,0
2.0748,-0.00011028,0
2.0754,-0.00010961,0
2.0759,-0.00010037,0
2.0764,-8.1071e-05,0
2.0769,-5.7572e-05,0
2.0774,-3.0381e-05,0
2.078,4.5319e-06,0
2.0785,4.6326e-05,0
2.079,8.6778e-05,0
2.0795,0.00011783,0
2.08,0.00013545,0
2.0806,0.00013764,0
2.0811,0.00012605,0
2.0816,0.00010323,0
2.0821,7.6371e-05,0
2.0826,5.1698e-05,0
2.0832,1.8631e-05,0
2.0837,-1.1582e-05,0
2.0842,-2.9541e-05,0
2.0847,-3.508e-05,0
2.0852,-2.9374e-05,0
2.0857,-1.4267e-05,0
2.0863,2.8534e-06,0
2.0868,1.2253e-05,0
2.0873,2.4674e-05,0
2.0878,5.5894e-05,0
2.0883,8.2582e-05,0
2.0889,7.335e-05,0
2.0894,3.6088e-05,0
2.0899,-5.0355e-07,0
2.0904,-1.4099e-05,0
2.0909,-6.714e-06,0
2.0915,-7.2175e-06,0
2.092,-2.1988e-05,0
2.0925,-2.2156e-05,0
2.093,1.8799e-05,0
2.0935,8.04e-05,0
2.0941,0.00011951,0
2.0946,0.00012723,0
2.0951,0.00011498,0
2.0956,8.8792e-05,0
2.0961,6.0594e-05,0
2.0967,4.5487e-05,0
2.0972,4.0116e-05,0
2.0977,3.0716e-05,0
2.0982,1.8631e-05,0
2.0987,3.8605e-06,0
2.0993,-1.2924e-05,0
2.0998,-2.5177e-05,0
2.1003,-3.3738e-05,0
2.1008,-4.0452e-05,0
2.1013,-4.1627e-05,0
2.1018,-3.6423e-05,0
2.1024,-2.7359e-05,0
2.1029,-2.3499e-05,0
2.1034,-3.122e-05,0
2.1039,-4.8844e-05,0
2.1044,-6.5293e-05,0
2.105,-6.8986e-05,0
2.1055,-6.63e-05,0
2.106,-6.0594e-05,0
2.1065,-4.8508e-05,0
2.107,-2.9709e-05,0
2.1076,-1.4939e-05,0
2.1081,-4.5319e-06,0
2.1086,7.2175e-06,0
2.1091,6.8818e-06,0
2.1096,-1.3596e-05,0
2.1102,-4.4144e-05,0
2.1107,-7.1e-05,0
2.1112,-7.9728e-05,0
2.1117,-7.6539e-05,0
2.1122,-8.9464e-05,0
2.1128,-0.00010591,0
2.1133,-8.0735e-05,0
2.1138,-2.3499e-06,0
2.1143,9.2485e-05,0
2.1148,0.0001655,0
2.1153,0.00021888,0
2.1159,0.00026403,0
2.1164,0.0003023,0
2.1169,0.00032747,0
2.1174,0.00031304,0
2.1179,0.00024254,0
2.1185,0.00014569,0
2.119,7.0497e-05,0
2.1195,3.5248e-05,0
2.12,2.4338e-05,0
2.1205,3.0381e-05,0
2.1211,4.2634e-05,0
2.1216,5.4887e-05,0
2.1221,7.4525e-05,0
2.1226,6.4286e-05,0
2.1231,4.3641e-06,0
2.1237,-7.3686e-05,0
2.1242,-0.00012656,0
2.1247,-0.00012505,0
2.1252,-6.6804e-05,0
2.1257,5.0355e-06,0
2.1263,4.5487e-05,0
2.1268,4.8005e-05,0
2.1273,3.2563e-05,0
2.1278,3.357e-06,0
2.1283,-2.9709e-05,0
2.1288,-3.978e-05,0
2.1294,-1.6281e-05,0
2.1299,2.2995e-05,0
2.1304,5.1194e-05,0
2.1309,5.069e-05,0
2.1314,3.2731e-05,0
2.132,2.7695e-05,0
2.1325,5.0187e-05,0
2.133,7.6371e-05,0
2.1335,8.04e-05,0
2.134,6.2104e-05,0
2.1346,3.4913e-05,0
2.1351,1.4435e-05,0
2.1356,1.5106e-06,0
2.1361,-2.9206e-05,0
2.1366,-7.7714e-05,0
2.1372,-9.6849e-05,0
2.1377,-6.6636e-05,0
2.1382,-1.4267e-05,0
2.1387,2.1988e-05,0
2.1392,2.2156e-05,0
2.1397,-1.1749e-05,0
2.1403,-5.3208e-05,0
2.1408,-6.3111e-05,0
2.1413,-1.8631e-05,0
2.1418,4.4648e-05,0
2.1423,7.7714e-05,0
2.1429,7.9896e-05,0
2.1434,7.9896e-05,0
2.1439,8.4428e-05,0
2.1444,7.3014e-05,0
2.1449,4.4816e-05,0
2.1455,2.3331e-05,0
2.146,1.0575e-05,0
2.1465,2.182e-06,0
2.147,8.3925e-07,0
2.1475,0,0
2.1481,-1.6953e-05,0
2.1486,-5.0187e-05,0
2.1491,-7.4693e-05,0
2.1496,-7.7379e-05,0
2.1501,-5.6565e-05,0
2.1507,-2.501e-05,0
2.1512,-3.6927e-06,0
2.1517,-1.8463e-06,0
2.1522,-1.0071e-05,0
2.1527,-1.561e-05,0
2.1532,-7.8889e-06,0
2.1538,1.326e-05,0
2.1543,3.0716e-05,0
2.1548,3.5752e-05,0
2.1553,2.4674e-05,0
2.1558,-9.9031e-06,0
2.1564,-4.6159e-05,0
2.1569,-4.8676e-05,0
2.1574,-1.6953e-05,0
2.1579,2.0645e-05,0
2.1584,5.0187e-05,0
2.159,7.0329e-05,0
2.1595,8.3085e-05,0
2.16,8.6778e-05,0
2.1605,8.2414e-05,0
2.161,7.6707e-05,0
2.1616,7.3014e-05,0
2.1621,6.7643e-05,0
2.1626,5.0523e-05,0
2.1631,2.652e-05,0
2.1636,9.2317e-06,0
2.1642,-3.357e-07,0
2.1647,-2.0645e-05,0
2.1652,-5.4887e-05,0
2.1657,-7.6707e-05,0
2.1662,-6.5293e-05,0
2.1667,-3.2731e-05,0
2.1673,-4.8676e-06,0
2.1678,1.0239e-05,0
2.1683,2.6688e-05,0
2.1688,5.9251e-05,0
2.1693,0.00010843,0
2.1699,0.00013378,0
2.1704,9.6513e-05,0
2.1709,2.3667e-05,0
2.1714,-2.182e-05,0
2.1719,-1.9806e-05,0
2.1725,5.0355e-07,0
2.173,1.2253e-05,0
2.1735,7.8889e-06,0
2.174,-5.539e-06,0
2.1745,4.6998e-06,0
2.1751,5.3544e-05,0
2.1756,0.00011196,0
2.1761,0.00015123,0
2.1766,0.00015996,0
2.1771,0.00015425,0
2.1777,0.00014586,0
2.1782,0.00011666,0
2.1787,6.3951e-05,0
2.1792,5.0355e-07,0
2.1797,-4.3137e-05,0
2.1803,-4.7669e-05,0
2.1808,-4.7333e-05,0
2.1813,-7.6036e-05,0
2.1818,-0.00011363,0
2.1823,-0.00012773,0
2.1828,-9.9702e-05,0
2.1834,-3.4073e-05,0
2.1839,3.5416e-05,0
2.1844,8.1071e-05,0
2.1849,0.00011498,0
2.1854,0.00015106,0
2.186,0.00017675,0
2.1865,0.00016802,0
2.187,0.00011363,0
2.1875,4.0452e-05,0
2.188,-4.8676e-06,0
2.1886,-8.2246e-06,0
2.1891,-5.8747e-06,0
2.1896,-2.3163e-05,0
2.1901,-4.6326e-05,0
2.1906,-5.388e-05,0
2.1912,-4.1123e-05,0
2.1917,-1.7624e-05,0
2.1922,1.0407e-05,0
2.1927,5.0523e-05,0
2.1932,0.00012471,0
2.1938,0.00021669,0
2.1943,0.00026,0
2.1948,0.0002219,0
2.1953,0.00011347,0
2.1958,-1.1749e-06,0
2.1963,-5.6397e-05,0
2.1969,-6.7811e-05,0
2.1974,-8.7449e-05,0
2.1979,-0.00011363,0
2.1984,-0.00011632,0
2.1989,-9.2317e-05,0
2.1995,-5.0858e-05,0
2.2,-8.896e-06,0
2.2005,-1.561e-05,0
2.201,-7.9561e-05,0
2.2015,-0.00014133,0
2.2021,-0.00015023,0
2.2026,-0.00010692,0
2.2031,-4.3137e-05,0
2.2036,1.1246e-05,0
2.2041,4.2802e-05,0
2.2047,5.4047e-05,0
2.2052,5.8579e-05,0
2.2057,6.7979e-05,0
2.2062,7.7714e-05,0
2.2067,7.6707e-05,0
2.2073,6.2608e-05,0
2.2078,3.3066e-05,0
2.2083,-3.357e-07,0
2.2088,-1.6281e-05,0
2.2093,-1.4939e-05,0
2.2098,-7.0497e-06,0
2.2104,0,0
2.2109,3.357e-07,0
2.2114,-4.5319e-06,0
2.2119,-3.1891e-06,0
2.2124,1.0071e-06,0
2.213,3.8605e-06,0
2.2135,1.1246e-05,0
2.214,2.1653e-05,0
2.2145,2.9374e-05,0
2.215,3.0045e-05,0
2.2156,1.2589e-05,0
2.2161,-1.1078e-05,0
2.2166,-2.1149e-05,0
2.2171,-2.3667e-05,0
2.2176,-2.2492e-05,0
2.2182,-1.3596e-05,0
2.2187,1.5106e-06,0
2.2192,1.7288e-05,0
2.2197,2.6184e-05,0
2.2202,2.3667e-05,0
2.2207,9.7353e-06,0
2.2213,-6.714e-07,0
2.2218,-5.0355e-07,0
2.2223,-2.182e-06,0
2.2228,-3.0213e-06,0
2.2233,8.0568e-06,0
2.2239,4.683e-05,0
2.2244,0.00010927,0
2.2249,0.0001519,0
2.2254,0.00014737,0
2.2259,0.00011464,0
2.2265,8.5435e-05,0
2.227,6.5461e-05,0
2.2275,5.069e-05,0
2.228,4.1459e-05,0
2.2285,4.5991e-05,0
2.2291,6.6972e-05,0
2.2296,9.5171e-05,0
2.2301,0.00012219,0
2.2306,0.00012941,0
2.2311,0.00011498,0
2.2317,8.8457e-05,0
2.2322,5.2033e-05,0
2.2327,3.8605e-06,0
2.2332,-5.4047e-05,0
2.2337,-0.00011649,0
2.2342,-0.00015811,0
2.2348,-0.00016365,0
2.2353,-0.00015039,0
2.2358,-0.00012807,0
2.2363,-0.00010054,0
2.2368,-6.5461e-05,0
2.2374,-1.8631e-05,0
2.2379,4.0116e-05,0
2.2384,9.0974e-05,0
2.2389,0.00012136,0
2.2394,0.00013344,0
2.24,0.00012253,0
2.2405,8.8457e-05,0
2.241,4.8676e-05,0
2.2415,1.0071e-05,0
2.242,-2.4338e-05,0
2.2426,-4.918e-05,0
2.2431,-5.6733e-05,0
2.2436,-4.2466e-05,0
2.2441,-1.8967e-05,0
2.2446,-2.0142e-06,0
2.2452,1.6785e-07,0
2.2457,-1.5106e-06,0
2.2462,1.5946e-05,0
2.2467,5.623e-05,0
2.2472,9.8863e-05,0
2.2477,0.00012169,0
2.2483,0.00010591,0
2.2488,7.3014e-05,0
2.2493,8.1071e-05,0
2.2498,0.00013529,0
2.2503,0.00016416,0
2.2509,0.00013411,0
2.2514,9.836e-05,0
2.2519,0.00010558,0
2.2524,0.00014485,0
2.2529,0.00017708,0
2.2535,0.00016349,0
2.254,9.987e-05,0
2.2545,1.091e-05,0
2.255,-5.8747e-05,0
2.2555,-7.805e-05,0
2.2561,-6.1433e-05,0
2.2566,-5.2033e-05,0
2.2571,-6.7979e-05,0
2.2576,-9.6178e-05,0
2.2581,-0.00010138,0
2.2587,-6.9322e-05,0
2.2592,-2.5849e-05,0
2.2597,2.5177e-06,0
2.2602,1.6617e-05,0
2.2607,3.8102e-05,0
2.2612,7.8889e-05,0
2.2618,0.00011934,0
2.2623,0.00013747,0
2.2628,0.00012337,0
2.2633,7.3686e-05,0
2.2638,1.1414e-05,0
2.2644,-3.7934e-05,0
2.2649,-7.7546e-05,0
2.2654,-0.00011817,0
2.2659,-0.00013613,0
2.2664,-0.00011162,0
2.267,-6.0929e-05,0
2.2675,-2.031e-05,0
2.268,-3.0213e-06,0
2.2685,1.0575e-05,0
2.269,3.4745e-05,0
2.2696,4.6159e-05,0
2.2701,2.4842e-05,0
2.2706,-4.5319e-06,0
2.2711,-2.0478e-05,0
2.2716,-1.9974e-05,0
2.2722,-8.5603e-06,0
2.2727,-1.6785e-07,0
2.2732,4.5319e-06,0
2.2737,2.1317e-05,0
2.2742,4.1794e-05,0
2.2748,4.213e-05,0
2.2753,2.6688e-05,0
2.2758,1.8128e-05,0
2.2763,2.6352e-05,0
2.2768,4.3641e-05,0
2.2773,5.2873e-05,0
2.2779,5.0187e-05,0
2.2784,3.4745e-05,0
2.2789,1.2421e-05,0
2.2794,-2.0142e-06,0
2.2799,-5.2033e-06,0
2.2805,3.8605e-06,0
2.281,1.6617e-05,0
2.2815,1.9806e-05,0
2.282,8.3925e-06,0
2.2825,5.0355e-07,0
2.2831,1.1749e-06,0
2.2836,3.357e-07,0
2.2841,1.1749e-06,0
2.2846,1.1749e-06,0
2.2851,-1.5106e-06,0
2.2857,-2.182e-06,0
2.2862,-1.8463e-06,0
2.2867,-4.5319e-06,0
2.2872,-7.2175e-06,0
2.2877,-9.2317e-06,0
2.2883,-1.0239e-05,0
2.2888,-5.7069e-06,0
2.2893,-1.6785e-07,0
2.2898,-9.9031e-06,0
2.2903,-3.4409e-05,0
2.2908,-5.4887e-05,0
2.2914,-5.7908e-05,0
2.2919,-4.4144e-05,0
2.2924,-1.7792e-05,0
2.2929,2.031e-05,0
2.2934,6.7643e-05,0
2.294,0.00012203,0
2.2945,0.00017288,0
2.295,0.00019588,0
2.2955,0.00017171,0
2.296,0.00011464,0
2.2966,5.5222e-05,0
2.2971,6.8818e-06,0
2.2976,-2.031e-05,0
2.2981,-2.6352e-05,0
2.2986,-2.4506e-05,0
2.2992,-1.8296e-05,0
2.2997,-5.0355e-07,0
2.3002,4.0116e-05,0
2.3007,9.1981e-05,0
2.3012,0.00011766,0
2.3018,9.9031e-05,0
2.3023,5.1698e-05,0
2.3028,6.714e-06,0
2.3033,-1.2253e-05,0
2.3038,-9.7353e-06,0
2.3043,-1.9471e-05,0
2.3049,-6.5629e-05,0
2.3054,-0.00011514,0
2.3059,-0.00012052,0
2.3064,-8.9464e-05,0
2.3069,-5.9419e-05,0
2.3075,-4.8844e-05,0
2.308,-4.3977e-05,0
2.3085,-1.326e-05,0
2.309,4.9851e-05,0
2.3095,0.00011464,0
2.3101,0.00013881,0
2.3106,0.00011867,0
2.3111,8.2918e-05,0
2.3116,5.623e-05,0
2.3121,4.0452e-05,0
2.3127,2.0981e-05,0
2.3132,-1.3764e-05,0
2.3137,-4.9516e-05,0
2.3142,-5.8579e-05,0
2.3147,-4.1794e-05,0
2.3152,-3.4241e-05,0
2.3158,-2.9038e-05,0
2.3163,2.417e-05,0
2.3168,0.00012337,0
2.3173,0.00022441,0
2.3178,0.00028618,0
2.3184,0.00028786,0
2.3189,0.00023751,0
2.3194,0.000166,0
2.3199,0.0001138,0
2.3204,9.0303e-05,0
2.321,6.9154e-05,0
2.3215,1.7456e-05,0
2.322,-5.153e-05,0
2.3225,-0.00010172,0
2.323,-0.00012085,0
2.3236,-0.00011565,0
2.3241,-9.1478e-05,0
2.3246,-5.9251e-05,0
2.3251,-3.592e-05,0
2.3256,-9.5674e-06,0
2.3262,3.9612e-05,0
2.3267,8.3757e-05,0
2.3272,8.8121e-05,0
2.3277,6.4286e-05,0
2.3282,3.2395e-05,0
2.3287,1.0239e-05,0
2.3293,6.714e-06,0
2.3298,2.031e-05,0
2.3303,4.1459e-05,0
2.3308,5.8747e-05,0
2.3313,5.304e-05,0
2.3319,2.4674e-05,0
2.3324,4.8676e-06,0
2.3329,1.4603e-05,0
2.3334,4.7501e-05,0
2.3339,7.4189e-05,0
2.3345,7.335e-05,0
2.335,4.2802e-05,0
2.3355,1.1749e-06,0
2.336,-2.501e-05,0
2.3365,-2.3667e-05,0
2.3371,-4.1962e-06,0
2.3376,1.8296e-05,0
2.3381,2.2492e-05,0
2.3386,-1.6785e-07,0
2.3391,-2.5345e-05,0
2.3397,-3.1724e-05,0
2.3402,-3.2563e-05,0
2.3407,-4.2969e-05,0
2.3412,-5.8244e-05,0
2.3417,-7.0665e-05,0
2.3422,-6.7643e-05,0
2.3428,-4.7166e-05,0
2.3433,-2.6352e-05,0
2.3438,-1.7456e-05,0
2.3443,-1.3596e-05,0
2.3448,-2.5177e-06,0
2.3454,2.2324e-05,0
2.3459,5.2033e-05,0
2.3464,6.4958e-05,0
2.3469,5.4887e-05,0
2.3474,3.1724e-05,0
2.348,8.3925e-07,0
2.3485,-4.3809e-05,0
2.349,-8.7785e-05,0
2.3495,-9.987e-05,0
2.35,-7.2847e-05,0
2.3506,-2.5681e-05,0
2.3511,2.3499e-05,0
2.3516,6.0258e-05,0
2.3521,8.3085e-05,0
2.3526,9.0974e-05,0
2.3532,7.805e-05,0
2.3537,2.4002e-05,0
2.3542,-4.5151e-05,0
2.3547,-6.6972e-05,0
2.3552,-3.6927e-05,0
2.3558,9.0639e-06,0
2.3563,5.0019e-05,0
2.3568,9.0806e-05,0
2.3573,0.0001415,0
2.3578,0.00017607,0
2.3583,0.00017406,0
2.3589,0.00014452,0
2.3594,9.1814e-05,0
2.3599,2.2324e-05,0
2.3604,-4.6998e-05,0
2.3609,-9.6849e-05,0
2.3615,-0.0001232,0
2.362,-0.00012908,0
2.3625,-0.00011229,0
2.363,-8.6275e-05,0
2.3635,-6.7643e-05,0
2.3641,-5.1698e-05,0
2.3646,-2.652e-05,0
2.3651,1.3092e-05,0
2.3656,5.9922e-05,0
2.3661,9.8192e-05,0
2.3667,0.00011598,0
2.3672,0.00011044,0
2.3677,9.1142e-05,0
2.3682,7.2679e-05,0
2.3687,5.388e-05,0
2.3693,3.122e-05,0
2.3698,1.0239e-05,0
2.3703,8.3925e-07,0
2.3708,6.0426e-06,0
2.3713,1.5106e-05,0
2.3718,1.091e-05,0
2.3724,-8.5603e-06,0
2.3729,-3.1388e-05,0
2.3734,-3.9948e-05,0
2.3739,-2.1653e-05,0
2.3744,7.5532e-06,0
2.375,2.4002e-05,0
2.3755,2.8199e-05,0
2.376,2.7695e-05,0
2.3765,3.3402e-05,0
2.377,5.5894e-05,0
2.3776,8.4764e-05,0
2.3781,9.9535e-05,0
2.3786,8.896e-05,0
2.3791,6.5293e-05,0
2.3796,6.5965e-05,0
2.3802,0.00010507,0
2.3807,0.00014804,0
2.3812,0.00015392,0
2.3817,0.00012186,0
2.3822,8.6778e-05,0
2.3828,7.4022e-05,0
2.3833,8.04e-05,0
2.3838,9.3492e-05,0
2.3843,0.0001039,0
2.3848,9.6513e-05,0
2.3853,7.2511e-05,0
2.3859,4.0955e-05,0
2.3864,1.0071e-05,0
2.3869,-1.4435e-05,0
2.3874,-2.8367e-05,0
2.3879,-3.7095e-05,0
2.3885,-4.1291e-05,0
2.389,-4.0452e-05,0
2.3895,-4.2298e-05,0
2.39,-5.153e-05,0
2.3905,-6.3111e-05,0
2.3911,-8.0568e-05,0
2.3916,-0.00010021,0
2.3921,-0.00011263,0
2.3926,-0.00010692,0
2.3931,-7.9728e-05,0
2.3937,-4.2298e-05,0
2.3942,-1.5106e-05,0
2.3947,-7.5532e-06,0
2.3952,-4.8676e-06,0
2.3957,5.2033e-06,0
2.3963,2.7024e-05,0
2.3968,6.1936e-05,0
2.3973,0.00010323,0
2.3978,0.00012572,0
2.3983,0.00011464,0
2.3988,9.5338e-05,0
2.3994,9.1814e-05,0
2.3999,9.4667e-05,0
2.4004,8.7449e-05,0
2.4009,6.9657e-05,0
2.4014,5.1194e-05,0
2.402,3.9277e-05,0
2.4025,2.9877e-05,0
2.403,1.8631e-05,0
2.4035,-6.714e-07,0
2.404,-2.0981e-05,0
2.4046,-3.5752e-05,0
2.4051,-4.3305e-05,0
2.4056,-4.1459e-05,0
2.4061,-3.6759e-05,0
2.4066,-3.1388e-05,0
2.4072,-1.8296e-05,0
2.4077,4.8676e-06,0
2.4082,3.3738e-05,0
2.4087,5.4887e-05,0
2.4092,5.1194e-05,0
2.4097,2.5849e-05,0
2.4103,5.0355e-07,0
2.4108,-1.2253e-05,0
2.4113,-1.7288e-05,0
2.4118,-1.7288e-05,0
2.4123,-1.1749e-05,0
2.4129,-3.1891e-06,0
2.4134,9.9031e-06,0
2.4139,1.9638e-05,0
2.4144,2.6352e-05,0
2.4149,3.0045e-05,0
2.4155,2.5177e-05,0
2.416,1.2924e-05,0
2.4165,-1.1749e-06,0
2.417,-1.3764e-05,0
2.4175,-2.4506e-05,0
2.4181,-3.2059e-05,0
2.4186,-3.5752e-05,0
2.4191,-3.6423e-05,0
2.4196,-3.3906e-05,0
2.4201,-2.3835e-05,0
2.4207,-1.2421e-05,0
2.4212,-7.3854e-06,0
2.4217,-4.3641e-06,0
2.4222,3.8605e-06,0
2.4227,9.5674e-06,0
2.4232,4.5319e-06,0
2.4238,1.6785e-06,0
2.4243,1.6281e-05,0
2.4248,4.2802e-05,0
2.4253,7.2343e-05,0
2.4258,9.987e-05,0
2.4264,0.00012303,0
2.4269,0.00013327,0
2.4274,0.00012505,0
2.4279,9.987e-05,0
2.4284,6.9993e-05,0
2.429,5.2537e-05,0
2.4295,4.7166e-05,0
2.43,4.0452e-05,0
2.4305,3.0549e-05,0
2.431,3.0884e-05,0
2.4316,3.4241e-05,0
2.4321,1.6281e-05,0
2.4326,-3.3402e-05,0
2.4331,-9.3492e-05,0
2.4336,-0.00012572,0
2.4342,-0.00012186,0
2.4347,-0.00010491,0
2.4352,-8.8457e-05,0
2.4357,-6.63e-05,0
2.4362,-2.3331e-05,0
2.4367,4.213e-05,0
2.4373,0.00010021,0
2.4378,0.00012723,0
2.4383,0.00011934,0
2.4388,7.7546e-05,0
2.4393,2.9877e-05,0
2.4399,3.6927e-06,0
2.4404,0,0
2.4409,3.357e-07,0
2.4414,-1.8463e-06,0
2.4419,-4.1962e-06,0
2.4425,-3.2731e-05,0
2.443,-9.4331e-05,0
2.4435,-0.00015224,0
2.444,-0.00016466,0
2.4445,-0.00012169,0
2.4451,-4.062e-05,0
2.4456,6.865e-05,0
2.4461,0.00019454,0
2.4466,0.00029458,0
2.4471,0.00034057,0
2.4477,0.00035097,0
2.4482,0.00034157,0
2.4487,0.00029558,0
2.4492,0.00020931,0
2.4497,0.00010524,0
2.4503,2.6688e-05,0
2.4508,-4.3641e-06,0
2.4513,-2.8534e-06,0
2.4518,2.0813e-05,0
2.4523,3.7934e-05,0
2.4528,2.5345e-05,0
2.4534,-1.3931e-05,0
2.4539,-6.5629e-05,0
2.4544,-9.6345e-05,0
2.4549,-9.131e-05,0
2.4554,-5.9586e-05,0
2.456,-1.8296e-05,0
2.4565,0,0
2.457,-3.1891e-06,0
2.4575,2.5177e-06,0
2.458,3.3738e-05,0
2.4586,7.0665e-05,0
2.4591,7.9057e-05,0
2.4596,5.8915e-05,0
2.4601,2.2995e-05,0
2.4606,-9.2317e-06,0
2.4612,-2.4002e-05,0
2.4617,-3.6255e-05,0
2.4622,-4.3977e-05,0
2.4627,-5.2201e-05,0
2.4632,-7.2679e-05,0
2.4638,-8.7785e-05,0
2.4643,-7.3854e-05,0
2.4648,-3.6255e-05,0
2.4653,3.6927e-06,0
2.4658,3.5248e-05,0
2.4663,6.4622e-05,0
2.4669,8.6442e-05,0
2.4674,7.8553e-05,0
2.4679,4.1123e-05,0
2.4684,-2.8534e-06,0
2.4689,-4.3977e-05,0
2.4695,-8.1743e-05,0
2.47,-0.0001039,0
2.4705,-9.9535e-05,0
2.471,-6.6636e-05,0
2.4715,-2.9038e-05,0
2.4721,-2.4842e-05,0
2.4726,-5.3544e-05,0
2.4731,-7.1672e-05,0
2.4736,-5.8915e-05,0
2.4741,-3.4745e-05,0
2.4747,-1.8296e-05,0
2.4752,-3.8605e-06,0
2.4757,2.6688e-05,0
2.4762,7.5029e-05,0
2.4767,0.00012555,0
2.4773,0.0001754,0
2.4778,0.00021569,0
2.4783,0.00021468,0
2.4788,0.0001697,0
2.4793,0.00011246,0
2.4798,6.8315e-05,0
2.4804,3.8605e-05,0
2.4809,6.8818e-06,0
2.4814,-3.122e-05,0
2.4819,-5.8076e-05,0
2.4824,-6.3951e-05,0
2.483,-4.9348e-05,0
2.4835,-2.4002e-05,0
2.484,-6.714e-07,0
2.4845,1.4603e-05,0
2.485,2.0813e-05,0
2.4856,2.5681e-05,0
2.4861,4.2802e-05,0
2.4866,8.4428e-05,0
2.4871,0.00012773,0
2.4876,0.00013075,0
2.4882,9.7017e-05,0
2.4887,5.6901e-05,0
2.4892,3.2059e-05,0
2.4897,2.652e-05,0
2.4902,2.5345e-05,0
2.4907,1.9303e-05,0
2.4913,1.4435e-05,0
2.4918,9.2317e-06,0
2.4923,-4.8676e-06,0
2.4928,-3.3738e-05,0
2.4933,-6.4118e-05,0
2.4939,-8.8289e-05,0
2.4944,-0.00011498,0
2.4949,-0.00016936,0
2.4954,-0.00023616,0
2.4959,-0.00027729,0
2.4965,-0.00027813,0
2.497,-0.00024875,0
2.4975,-0.00019638,0
2.498,-0.00012337,0
2.4985,-2.5849e-05,0
2.4991,9.9199e-05,0
2.4996,0.00024758,0
2.5001,0.00038991,0
2.5006,0.00045403,0
2.5011,0.00040737,0
2.5017,0.00030062,0
2.5022,0.00020024,0
2.5027,0.0001321,0
2.5032,8.2246e-05,0
2.5037,5.2201e-05,0
2.5042,5.6565e-05,0
2.5048,7.2679e-05,0
2.5053,6.009e-05,0
2.5058,3.3234e-05,0
2.5063,3.978e-05,0
2.5068,7.2007e-05,0
2.5074,9.6513e-05,0
2.5079,0.0001044,0
2.5084,8.3421e-05,0
2.5089,4.4144e-05,0
2.5094,1.0575e-05,0
2.51,-5.2033e-06,0
2.5105,-4.5319e-06,0
2.511,-8.0568e-06,0
2.5115,-2.8367e-05,0
2.512,-4.918e-05,0
2.5126,-6.3279e-05,0
2.5131,-8.0064e-05,0
2.5136,-9.7688e-05,0
2.5141,-0.00010994,0
2.5146,-0.00011464,0
2.5152,-0.00010642,0
2.5157,-8.0735e-05,0
2.5162,-4.3473e-05,0
2.5167,-1.7624e-05,0
2.5172,-5.8747e-06,0
2.5177,7.0497e-06,0
2.5183,8.2246e-06,0
2.5188,-1.3764e-05,0
2.5193,-2.7359e-05,0
2.5198,-1.7456e-05,0
2.5203,-6.2104e-06,0
2.5209,4.3641e-06,0
2.5214,2.652e-05,0
2.5219,3.0213e-05,0
2.5224,-2.7695e-05,0
2.5229,-0.00014737,0
2.5235,-0.00024472,0
2.524,-0.00025245,0
2.5245,-0.00016785,0
2.525,-3.1388e-05,0
2.5255,0.00010994,0
2.5261,0.00023583,0
2.5266,0.0003409,0
2.5271,0.00041341,0
2.5276,0.00042113,0
2.5281,0.0003602,0
2.5287,0.00027007,0
2.5292,0.0001942,0
2.5297,0.00014217,0
2.5302,0.00010356,0
2.5307,6.0929e-05,0
2.5312,1.5442e-05,0
2.5318,-2.2995e-05,0
2.5323,-7.6036e-05,0
2.5328,-0.00015727,0
2.5333,-0.00022072,0
2.5338,-0.00021518,0
2.5344,-0.00014972,0
2.5349,-7.6036e-05,0
2.5354,-1.6953e-05,0
2.5359,2.887e-05,0
2.5364,6.0594e-05,0
2.537,7.4022e-05,0
2.5375,7.4022e-05,0
2.538,5.2201e-05,0
2.5385,7.3854e-06,0
2.539,-2.4674e-05,0
2.5396,-1.7792e-05,0
2.5401,1.7624e-05,0
2.5406,5.6733e-05,0
2.5411,8.661e-05,0
2.5416,0.00011296,0
2.5422,0.00013277,0
2.5427,0.00012706,0
2.5432,9.3324e-05,0
2.5437,5.0858e-05,0
2.5442,1.5778e-05,0
2.5448,-6.2104e-06,0
2.5453,-1.3596e-05,0
2.5458,-1.3596e-05,0
2.5463,-1.6617e-05,0
2.5468,-2.0981e-05,0
2.5473,-1.8967e-05,0
2.5479,-1.5274e-05,0
2.5484,-1.5778e-05,0
2.5489,-2.1653e-05,0
2.5494,-2.5345e-05,0
2.5499,-2.4338e-05,0
2.5505,-2.1653e-05,0
2.551,-2.1653e-05,0
2.5515,-2.2995e-05,0
2.552,-2.4674e-05,0
2.5525,-2.1988e-05,0
2.5531,-1.5946e-05,0
2.5536,-1.091e-05,0
2.5541,-3.6927e-06,0
2.5546,-2.8534e-06,0
2.5551,-4.1962e-06,0
2.5557,-4.1962e-06,0
2.5562,-8.896e-06,0
2.5567,-1.2757e-05,0
2.5572,-1.091e-05,0
2.5577,-8.2246e-06,0
2.5583,-1.0239e-05,0
2.5588,-1.6953e-05,0
2.5593,-2.8367e-05,0
2.5598,-3.7263e-05,0
2.5603,-2.7024e-05,0
2.5608,2.182e-06,0
2.5614,2.8031e-05,0
2.5619,3.7263e-05,0
2.5624,3.4409e-05,0
2.5629,3.122e-05,0
2.5634,3.4073e-05,0
2.564,4.0452e-05,0
2.5645,4.2802e-05,0
2.565,3.7766e-05,0
2.5655,2.9709e-05,0
2.566,2.5345e-05,0
2.5666,2.6184e-05,0
2.5671,2.7359e-05,0
2.5676,2.6688e-05,0
2.5681,2.6017e-05,0
2.5686,2.7359e-05,0
2.5692,2.9709e-05,0
2.5697,2.3163e-05,0
2.5702,1.2924e-05,0
2.5707,9.2317e-06,0
2.5712,9.5674e-06,0
2.5718,1.2253e-05,0
2.5723,1.3764e-05,0
2.5728,1.2924e-05,0
2.5733,1.6953e-05,0
2.5738,2.8534e-05,0
2.5743,3.5248e-05,0
2.5749,2.5849e-05,0
2.5754,9.7353e-06,0
2.5759,-2.182e-06,0
2.5764,-6.0426e-06,0
2.5769,1.5106e-06,0
2.5775,1.3596e-05,0
2.578,2.0142e-05,0
2.5785,1.7288e-05,0
2.579,4.5319e-06,0
2.5795,-1.3428e-06,0
2.5801,1.3931e-05,0
2.5806,4.1123e-05,0
2.5811,6.4286e-05,0
2.5816,7.1e-05,0
2.5821,6.63e-05,0
2.5827,6.7979e-05,0
2.5832,7.1e-05,0
2.5837,7.1839e-05,0
2.5842,7.1e-05,0
2.5847,6.2943e-05,0
2.5852,5.623e-05,0
2.5858,5.7908e-05,0
2.5863,5.9754e-05,0
2.5868,5.3544e-05,0
2.5873,3.2898e-05,0
2.5878,5.8747e-06,0
2.5884,-2.1653e-05,0
2.5889,-4.7166e-05,0
2.5894,-6.1265e-05,0
2.5899,-5.9251e-05,0
2.5904,-3.4409e-05,0
2.591,1.2421e-05,0
2.5915,6.5629e-05,0
2.592,0.00011531,0
2.5925,0.00014855,0
2.593,0.00015241,0
2.5936,0.00013277,0
2.5941,0.00011363,0
2.5946,9.8863e-05,0
2.5951,7.9057e-05,0
2.5956,5.8915e-05,0
2.5962,4.5319e-05,0
2.5967,3.3066e-05,0
2.5972,2.6352e-05,0
2.5977,2.2324e-05,0
2.5982,9.5674e-06,0
2.5987,-4.5319e-06,0
2.5993,-1.3596e-05,0
2.5998,-1.7288e-05,0
2.6003,-1.6617e-05,0
2.6008,-1.4435e-05,0
2.6013,-1.0407e-05,0
2.6019,-5.8747e-06,0
2.6024,-7.3854e-06,0
2.6029,-1.4603e-05,0
2.6034,-1.9974e-05,0
2.6039,-1.9638e-05,0
2.6045,-9.9031e-06,0
2.605,5.2033e-06,0
2.6055,1.2589e-05,0
2.606,6.2104e-06,0
2.6065,-8.896e-06,0
2.6071,-2.9709e-05,0
2.6076,-4.6494e-05,0
2.6081,-5.5222e-05,0
2.6086,-6.2272e-05,0
2.6091,-6.7475e-05,0
2.6097,-6.949e-05,0
2.6102,-7.9225e-05,0
2.6107,-9.6849e-05,0
2.6112,-9.8527e-05,0
2.6117,-8.0064e-05,0
2.6122,-4.4816e-05,0
2.6128,4.8676e-06,0
2.6133,6.1097e-05,0
2.6138,0.00011632,0
2.6143,0.00016567,0
2.6148,0.00020226,0
2.6154,0.00021653,0
2.6159,0.00019622,0
2.6164,0.00012992,0
2.6169,4.2802e-05,0
2.6174,-1.5778e-05,0
2.618,-3.1052e-05,0
2.6185,-3.0716e-05,0
2.619,-2.4338e-05,0
2.6195,-1.5106e-06,0
2.62,3.4073e-05,0
2.6206,7.335e-05,0
2.6211,0.00011397,0
2.6216,0.00014754,0
2.6221,0.00014418,0
2.6226,9.2485e-05,0
2.6232,2.8031e-05,0
2.6237,-1.8296e-05,0
2.6242,-3.508e-05,0
2.6247,-2.9038e-05,0
2.6252,-1.4603e-05,0
2.6258,-6.714e-07,0
2.6263,1.6785e-07,0
2.6268,-2.0813e-05,0
2.6273,-4.2802e-05,0
2.6278,-3.9445e-05,0
2.6283,-3.5248e-06,0
2.6289,5.5558e-05,0
2.6294,0.00010658,0
2.6299,0.00012438,0
2.6304,0.00010793,0
2.6309,7.4189e-05,0
2.6315,4.2298e-05,0
2.632,2.1149e-05,0
2.6325,8.3925e-07,0
2.633,-2.031e-05,0
2.6335,-3.3066e-05,0
2.6341,-2.9877e-05,0
2.6346,-2.2995e-05,0
2.6351,-2.1149e-05,0
2.6356,-3.2395e-05,0
2.6361,-5.2537e-05,0
2.6367,-7.1336e-05,0
2.6372,-8.9967e-05,0
2.6377,-0.00011196,0
2.6382,-0.00013042,0
2.6387,-0.00013445,0
2.6393,-0.00010356,0
2.6398,-3.6255e-05,0
2.6403,3.6759e-05,0
2.6408,8.0735e-05,0
2.6413,8.6778e-05,0
2.6418,7.1672e-05,0
2.6424,5.8747e-05,0
2.6429,6.1936e-05,0
2.6434,7.4022e-05,0
2.6439,7.2343e-05,0
2.6444,5.2033e-05,0
2.645,1.1917e-05,0
2.6455,-3.8605e-05,0
2.646,-5.623e-05,0
2.6465,-2.5681e-05,0
2.647,1.8463e-05,0
2.6476,3.827e-05,0
2.6481,2.266e-05,0
2.6486,-1.5106e-06,0
2.6491,-1.5274e-05,0
2.6496,-1.9303e-05,0
2.6502,-3.122e-05,0
2.6507,-6.4622e-05,0
2.6512,-8.896e-05,0
2.6517,-6.2104e-05,0
2.6522,1.9303e-05,0
2.6528,0.0001237,0
2.6533,0.00020629,0
2.6538,0.00025093,0
2.6543,0.00026537,0
2.6548,0.00025597,0
2.6553,0.00022542,0
2.6559,0.00018245,0
2.6564,0.0001425,0
2.6569,0.00011162,0
2.6574,7.4525e-05,0
2.6579,2.8031e-05,0
2.6585,-3.0213e-06,0
2.659,-6.8818e-06,0
2.6595,2.5177e-06,0
2.66,1.1582e-05,0
2.6605,8.2246e-06,0
2.6611,-2.4002e-05,0
2.6616,-7.5532e-05,0
2.6621,-0.00010893,0
2.6626,-0.00010843,0
2.6631,-9.3828e-05,0
2.6637,-8.0064e-05,0
2.6642,-6.6804e-05,0
2.6647,-4.4144e-05,0
2.6652,-1.3428e-06,0
2.6657,6.2608e-05,0
2.6662,0.00012924,0
2.6668,0.0001655,0
2.6673,0.00014838,0
2.6678,9.6513e-05,0
2.6683,4.2802e-05,0
2.6688,5.539e-06,0
2.6694,-1.2253e-05,0
2.6699,-2.031e-05,0
2.6704,-3.2395e-05,0
2.6709,-5.0858e-05,0
2.6714,-6.9322e-05,0
2.672,-7.8721e-05,0
2.6725,-6.6468e-05,0
2.673,-3.2059e-05,0
2.6735,5.0355e-07,0
2.674,1.4267e-05,0
2.6746,1.6953e-05,0
2.6751,1.7121e-05,0
2.6756,2.2324e-05,0
2.6761,3.2731e-05,0
2.6766,3.8437e-05,0
2.6772,3.0716e-05,0
2.6777,4.1962e-06,0
2.6782,-2.7695e-05,0
2.6787,-4.4144e-05,0
2.6792,-4.6662e-05,0
2.6797,-4.8005e-05,0
2.6803,-5.1698e-05,0
2.6808,-4.9516e-05,0
2.6813,-2.9709e-05,0
2.6818,-1.8463e-06,0
2.6823,1.6617e-05,0
2.6829,2.5849e-05,0
2.6834,4.062e-05,0
2.6839,6.7475e-05,0
2.6844,9.4499e-05,0
2.6849,0.00010977,0
2.6855,0.00011263,0
2.686,0.00010121,0
2.6865,7.7211e-05,0
2.687,5.2201e-05,0
2.6875,3.6088e-05,0
2.6881,2.4674e-05,0
2.6886,1.4099e-05,0
2.6891,4.5319e-06,0
2.6896,-6.2104e-06,0
2.6901,-1.6449e-05,0
2.6907,-1.9806e-05,0
2.6912,-2.1149e-05,0
2.6917,-2.9374e-05,0
2.6922,-4.2466e-05,0
2.6927,-4.7166e-05,0
2.6932,-3.4745e-05,0
2.6938,-1.326e-05,0
2.6943,-1.1749e-06,0
2.6948,-2.6856e-06,0
2.6953,-1.6785e-07,0
2.6958,2.3331e-05,0
2.6964,6.0258e-05,0
2.6969,8.9464e-05,0
2.6974,0.00010256,0
2.6979,0.00010692,0
2.6984,0.00010373,0
2.699,9.3156e-05,0
2.6995,7.7379e-05,0
2.7,5.6565e-05,0
2.7005,3.357e-05,0
2.701,1.8296e-05,0
2.7016,1.0575e-05,0
2.7021,-4.1962e-06,0
2.7026,-3.2731e-05,0
2.7031,-6.6468e-05,0
2.7036,-8.9464e-05,0
2.7042,-0.00010507,0
2.7047,-0.00012035,0
2.7052,-0.00012908,0
2.7057,-0.00012337,0
2.7062,-0.00010071,0
2.7067,-5.7069e-05,0
2.7073,8.896e-06,0
2.7078,8.4932e-05,0
2.7083,0.00015291,0
2.7088,0.00020041,0
2.7093,0.00021938,0
2.7099,0.00021451,0
2.7104,0.00018732,0
2.7109,0.00014553,0
2.7114,0.00010457,0
2.7119,6.63e-05,0
2.7125,2.7359e-05,0
2.713,-1.0239e-05,0
2.7135,-5.2537e-05,0
2.714,-0.00011246,0
2.7145,-0.00019051,0
2.7151,-0.00026436,0
2.7156,-0.00029407,0
2.7161,-0.00025563,0
2.7166,-0.00017255,0
2.7171,-7.6371e-05,0
2.7177,3.6759e-05,0
2.7182,0.00017037,0
2.7187,0.00029726,0
2.7192,0.00038068,0
2.7197,0.00040334,0
2.7203,0.00036407,0
2.7208,0.00029021,0
2.7213,0.00022039,0
2.7218,0.00015023,0
2.7223,6.9154e-05,0
2.7228,2.5177e-06,0
2.7234,-3.0716e-05,0
2.7239,-3.4745e-05,0
2.7244,-4.1962e-06,0
2.7249,4.0116e-05,0
2.7254,5.0019e-05,0
2.726,2.501e-05,0
2.7265,6.2104e-06,0
2.727,-9.9031e-06,0
2.7275,-2.8031e-05,0
2.728,-1.3596e-05,0
2.7286,2.6017e-05,0
2.7291,4.9348e-05,0
2.7296,3.2059e-05,0
2.7301,-1.091e-05,0
2.7306,-4.1123e-05,0
2.7312,-3.508e-05,0
2.7317,-1.561e-05,0
2.7322,-1.4939e-05,0
2.7327,-3.5416e-05,0
2.7332,-5.7908e-05,0
2.7338,-6.9322e-05,0
2.7343,-6.8147e-05,0
2.7348,-6.4286e-05,0
2.7353,-6.7308e-05,0
2.7358,-6.5629e-05,0
2.7363,-4.8676e-05,0
2.7369,-2.2156e-05,0
2.7374,-3.5248e-06,0
2.7379,-1.1246e-05,0
2.7384,-3.4073e-05,0
2.7389,-3.5752e-05,0
2.7395,-6.2104e-06,0
2.74,2.7024e-05,0
2.7405,3.743e-05,0
2.741,2.8702e-05,0
2.7415,2.2324e-05,0
2.7421,3.5416e-05,0
2.7426,6.1265e-05,0
2.7431,8.8121e-05,0
2.7436,0.00010373,0
2.7441,8.9799e-05,0
2.7447,3.5416e-05,0
2.7452,-3.3738e-05,0
2.7457,-7.0832e-05,0
2.7462,-5.8412e-05,0
2.7467,-2.1653e-05,0
2.7473,1.5442e-05,0
2.7478,3.743e-05,0
2.7483,5.0187e-05,0
2.7488,7.0329e-05,0
2.7493,0.00010188,0
2.7498,0.0001321,0
2.7504,0.00013898,0
2.7509,0.00012001,0
2.7514,8.7449e-05,0
2.7519,5.4551e-05,0
2.7524,3.7095e-05,0
2.753,3.1556e-05,0
2.7535,2.6688e-05,0
2.754,1.6281e-05,0
2.7545,-5.0355e-07,0
2.755,-1.5946e-05,0
2.7556,-2.6688e-05,0
2.7561,-3.1052e-05,0
2.7566,-2.887e-05,0
2.7571,-2.7695e-05,0
2.7576,-2.9877e-05,0
2.7582,-3.1724e-05,0
2.7587,-3.6088e-05,0
2.7592,-4.0787e-05,0
2.7597,-3.9445e-05,0
2.7602,-3.6927e-05,0
2.7607,-3.122e-05,0
2.7613,-1.7288e-05,0
2.7618,1.6785e-07,0
2.7623,1.7121e-05,0
2.7628,3.2395e-05,0
2.7633,4.2802e-05,0
2.7639,4.6159e-05,0
2.7644,4.062e-05,0
2.7649,2.7359e-05,0
2.7654,1.5274e-05,0
2.7659,1.1246e-05,0
2.7665,1.1246e-05,0
2.767,5.539e-06,0
2.7675,-4.3641e-06,0
2.768,-1.9303e-05,0
2.7685,-4.062e-05,0
2.7691,-6.865e-05,0
2.7696,-0.00010021,0
2.7701,-0.00012303,0
2.7706,-0.00012723,0
2.7711,-0.00010675,0
2.7717,-6.5461e-05,0
2.7722,-8.2246e-06,0
2.7727,6.5797e-05,0
2.7732,0.00014351,0
2.7737,0.00019454,0
2.7742,0.00021199,0
2.7748,0.00020058,0
2.7753,0.00016432,0
2.7758,0.00012471,0
2.7763,9.601e-05,0
2.7768,6.1601e-05,0
2.7774,1.561e-05,0
2.7779,-2.182e-05,0
2.7784,-4.4816e-05,0
2.7789,-5.4047e-05,0
2.7794,-4.7501e-05,0
2.78,-3.0045e-05,0
2.7805,-1.4267e-05,0
2.781,-2.182e-06,0
2.7815,1.8128e-05,0
2.782,3.8437e-05,0
2.7826,2.4338e-05,0
2.7831,-4.3473e-05,0
2.7836,-0.00012706,0
2.7841,-0.00017339,0
2.7846,-0.00013747,0
2.7852,-1.9303e-05,0
2.7857,0.00011531,0
2.7862,0.00021334,0
2.7867,0.00027292,0
2.7872,0.00029877,0
2.7877,0.00029995,0
2.7883,0.00028988,0
2.7888,0.00027745,0
2.7893,0.00024607,0
2.7898,0.00017775,0
2.7903,7.9057e-05,0
2.7909,-1.9806e-05,0
2.7914,-8.2918e-05,0
2.7919,-8.9128e-05,0
2.7924,-5.1865e-05,0
2.7929,-1.2589e-05,0
2.7935,1.561e-05,0
2.794,4.0787e-05,0
2.7945,5.4719e-05,0
2.795,5.8747e-05,0
2.7955,6.0594e-05,0
2.7961,5.0019e-05,0
2.7966,2.2156e-05,0
2.7971,1.5106e-06,0
2.7976,-3.357e-06,0
2.7981,-1.8463e-06,0
2.7987,2.8534e-06,0
2.7992,3.1891e-06,0
2.7997,-2.3499e-06,0
2.8002,-7.8889e-06,0
2.8007,-2.031e-05,0
2.8013,-3.4577e-05,0
2.8018,-3.508e-05,0
2.8023,-2.4674e-05,0
2.8028,-2.4338e-05,0
2.8033,-3.7263e-05,0
2.8038,-4.4984e-05,0
2.8044,-4.2802e-05,0
2.8049,-4.2466e-05,0
2.8054,-4.683e-05,0
2.8059,-4.8005e-05,0
2.8064,-4.3137e-05,0
2.807,-3.3234e-05,0
2.8075,-1.326e-05,0
2.808,1.6617e-05,0
2.8085,3.7766e-05,0
2.809,4.0452e-05,0
2.8096,4.0116e-05,0
2.8101,4.5823e-05,0
2.8106,4.683e-05,0
2.8111,1.5946e-05,0
2.8116,-3.6759e-05,0
2.8122,-8.6778e-05,0
2.8127,-0.00013529,0
2.8132,-0.00017507,0
2.8137,-0.00018497,0
2.8142,-0.00016718,0
2.8148,-0.00013445,0
2.8153,-8.4764e-05,0
2.8158,-8.3925e-06,0
2.8163,7.3686e-05,0
2.8168,0.00012404,0
2.8173,0.00014754,0
2.8179,0.00015341,0
2.8184,0.00014284,0
2.8189,0.00012572,0
2.8194,9.3828e-05,0
2.8199,3.1052e-05,0
2.8205,-4.5487e-05,0
2.821,-0.00010289,0
2.8215,-0.00012908,0
2.822,-0.00012555,0
2.8225,-0.00010172,0
2.8231,-6.009e-05,0
2.8236,-1.3596e-05,0
2.8241,2.266e-05,0
2.8246,3.4745e-05,0
2.8251,2.417e-05,0
2.8257,2.3163e-05,0
2.8262,4.8173e-05,0
2.8267,8.7449e-05,0
2.8272,0.00012975,0
2.8277,0.00017255,0
2.8283,0.00020645,0
2.8288,0.0002036,0
2.8293,0.00016533,0
2.8298,0.00010826,0
2.8303,4.3473e-05,0
2.8308,-1.2757e-05,0
2.8314,-4.2634e-05,0
2.8319,-3.7263e-05,0
2.8324,-6.8818e-06,0
2.8329,2.3835e-05,0
2.8334,4.683e-05,0
2.834,7.3686e-05,0
2.8345,0.00010373,0
2.835,0.0001227,0
2.8355,0.00012673,0
2.836,0.00011901,0
2.8366,9.8695e-05,0
2.8371,7.9225e-05,0
2.8376,5.1362e-05,0
2.8381,-2.2995e-05,0
2.8386,-0.00015727,0
2.8392,-0.00029004,0
2.8397,-0.0003649,0
2.8402,-0.00039025,0
2.8407,-0.00041291,0
2.8412,-0.00044833,0
2.8418,-0.0004265,0
2.8423,-0.00026923,0
2.8428,-2.8534e-06,0
2.8433,0.00026487,0
2.8438,0.00044295,0
2.8443,0.00052419,0
2.8449,0.00055239,0
2.8454,0.00057455,0
2.8459,0.00058965,0
2.8464,0.00057287,0
2.8469,0.00051882,0
2.8475,0.00042785,0
2.848,0.00030398,0
2.8485,0.00017842,0
2.849,8.3085e-05,0
2.8495,3.1052e-05,0
2.8501,6.2104e-06,0
2.8506,-1.8631e-05,0
2.8511,-4.8844e-05,0
2.8516,-8.5435e-05,0
2.8521,-0.00012136,0
2.8527,-0.00014553,0
2.8532,-0.00016802,0
2.8537,-0.00017758,0
2.8542,-0.0001702,0
2.8547,-0.00015543,0
2.8552,-0.00012773,0
2.8558,-9.5842e-05,0
2.8563,-7.7043e-05,0
2.8568,-7.2175e-05,0
2.8573,-6.5965e-05,0
2.8578,-6.1601e-05,0
2.8584,-7.4357e-05,0
2.8589,-8.6107e-05,0
2.8594,-8.8289e-05,0
2.8599,-0.00010323,0
2.8604,-0.00013361,0
2.861,-0.00015811,0
2.8615,-0.00015392,0
2.862,-9.8192e-05,0
2.8625,9.0639e-06,0
2.863,0.00011582,0
2.8636,0.00016097,0
2.8641,0.00012538,0
2.8646,3.5416e-05,0
2.8651,-0.00010927,0
2.8656,-0.00029155,0
2.8662,-0.00043624,0
2.8667,-0.00048525,0
2.8672,-0.00043574,0
2.8677,-0.00032143,0
2.8682,-0.00018329,0
2.8687,-1.2253e-05,0
2.8693,0.0002031,0
2.8698,0.00042684,0
2.8703,0.00060409,0
2.8708,0.00064974,0
2.8713,0.00053678,0
2.8719,0.000355,0
2.8724,0.00020259,0
2.8729,0.00010188,0
2.8734,3.2563e-05,0
2.8739,-2.501e-05,0
2.8745,-6.1601e-05,0
2.875,-5.9083e-05,0
2.8755,-1.6785e-05,0
2.876,4.7166e-05,0
2.8765,7.5029e-05,0
2.8771,3.5416e-05,0
2.8776,-3.1891e-05,0
2.8781,-8.7114e-05,0
2.8786,-0.00012589,0
2.8791,-0.00013277,0
2.8797,-8.4932e-05,0
2.8802,-6.714e-07,0
2.8807,7.5364e-05,0
2.8812,0.00010726,0
2.8817,9.8192e-05,0
2.8822,7.805e-05,0
2.8828,8.1407e-05,0
2.8833,0.00012505,0
2.8838,0.00018296,0
2.8843,0.00021166,0
2.8848,0.00020125,0
2.8854,0.00013898,0
2.8859,2.6184e-05,0
2.8864,-6.8315e-05,0
2.8869,-9.1646e-05,0
2.8874,-5.5558e-05,0
2.888,-1.8463e-06,0
2.8885,3.1556e-05,0
2.889,3.9109e-05,0
2.8895,4.683e-05,0
2.89,8.0064e-05,0
2.8906,0.00011212,0
2.8911,0.00010776,0
2.8916,3.6423e-05,0
2.8921,-0.00010155,0
2.8926,-0.00022425,0
2.8932,-0.00024858,0
2.8937,-0.00018178,0
2.8942,-8.5267e-05,0
2.8947,-2.3835e-05,0
2.8952,-3.0716e-05,0
2.8958,-6.9154e-05,0
2.8963,-8.51e-05,0
2.8968,-8.7953e-05,0
2.8973,-9.0303e-05,0
2.8978,-7.2007e-05,0
2.8983,-4.683e-05,0
2.8989,-2.9877e-05,0
2.8994,-1.6785e-07,0
2.8999,6.3447e-05,0
2.9004,0.00014586,0
2.9009,0.00021736,0
2.9015,0.0002647,0
2.902,0.00027276,0
2.9025,0.00023197,0
2.903,0.00016802,0
2.9035,0.00012136,0
2.9041,9.4835e-05,0
2.9046,8.0735e-05,0
2.9051,6.9993e-05,0
2.9056,4.8173e-05,0
2.9061,2.5177e-06,0
2.9067,-7.6707e-05,0
2.9072,-0.00019118,0
2.9077,-0.00028719,0
2.9082,-0.00029273,0
2.9087,-0.0001994,0
2.9093,-6.0594e-05,0
2.9098,5.1865e-05,0
2.9103,0.00011867,0
2.9108,0.0001749,0
2.9113,0.00023314,0
2.9118,0.00025496,0
2.9124,0.00022341,0
2.9129,0.0001749,0
2.9134,0.0001415,0
2.9139,0.00012874,0
2.9144,0.00013864,0
2.915,0.00016432,0
2.9155,0.00018312,0
2.916,0.00017624,0
2.9165,0.00013764,0
2.917,6.3951e-05,0
2.9176,-3.0716e-05,0
2.9181,-0.00010373,0
2.9186,-0.0001232,0
2.9191,-0.00010188,0
2.9196,-6.6972e-05,0
2.9202,-4.2802e-05,0
2.9207,-4.0787e-05,0
2.9212,-5.9586e-05,0
2.9217,-8.3925e-05,0
2.9222,-0.0001133,0
2.9228,-0.00014989,0
2.9233,-0.00017775,0
2.9238,-0.00018044,0
2.9243,-0.000165,0
2.9248,-0.00013411,0
2.9253,-8.5771e-05,0
2.9259,-2.2324e-05,0
2.9264,3.4913e-05,0
2.9269,6.1433e-05,0
2.9274,5.5894e-05,0
2.9279,4.1962e-05,0
2.9285,3.8941e-05,0
2.929,3.8102e-05,0
2.9295,1.9135e-05,0
2.93,-1.5106e-05,0
2.9305,-3.9109e-05,0
2.9311,-4.2802e-05,0
2.9316,-3.9445e-05,0
2.9321,-4.0116e-05,0
2.9326,-4.6998e-05,0
2.9331,-4.8005e-05,0
2.9337,-3.6591e-05,0
2.9342,-1.5106e-05,0
2.9347,7.0497e-06,0
2.9352,1.9638e-05,0
2.9357,6.2104e-06,0
2.9362,-2.031e-05,0
2.9368,-2.652e-05,0
2.9373,3.8605e-06,0
2.9378,5.4719e-05,0
2.9383,9.0303e-05,0
2.9388,0.00010541,0
2.9394,0.00012119,0
2.9399,0.0001368,0
2.9404,0.00013008,0
2.9409,0.00010155,0
2.9414,7.7714e-05,0
2.942,7.3518e-05,0
2.9425,7.6371e-05,0
2.943,8.9799e-05,0
2.9435,0.00011162,0
2.944,0.00011263,0
2.9446,9.4835e-05,0
2.9451,7.9561e-05,0
2.9456,6.865e-05,0
2.9461,4.0116e-05,0
2.9466,-8.2246e-06,0
2.9472,-4.6662e-05,0
2.9477,-6.009e-05,0
2.9482,-4.6159e-05,0
2.9487,-2.031e-05,0
2.9492,2.8534e-06,0
2.9497,1.6281e-05,0
2.9503,1.3428e-05,0
2.9508,1.6785e-07,0
2.9513,2.5177e-06,0
2.9518,2.5345e-05,0
2.9523,4.5487e-05,0
2.9529,5.6733e-05,0
2.9534,6.2943e-05,0
2.9539,5.7572e-05,0
2.9544,4.3809e-05,0
2.9549,3.827e-05,0
2.9555,4.3977e-05,0
2.956,5.8915e-05,0
2.9565,8.3085e-05,0
2.957,0.00010105,0
2.9575,8.6778e-05,0
2.9581,4.1459e-05,0
2.9586,-1.0575e-05,0
2.9591,-4.3809e-05,0
2.9596,-4.9683e-05,0
2.9601,-3.3402e-05,0
2.9607,-8.896e-06,0
2.9612,8.5603e-06,0
2.9617,2.0142e-05,0
2.9622,3.7598e-05,0
2.9627,6.1265e-05,0
2.9632,8.5435e-05,0
2.9638,9.6513e-05,0
2.9643,8.1743e-05,0
2.9648,5.5222e-05,0
2.9653,3.4409e-05,0
2.9658,1.5946e-05,0
2.9664,-9.5674e-06,0
2.9669,-5.6733e-05,0
2.9674,-0.00013495,0
2.9679,-0.00021602,0
2.9684,-0.00024573,0
2.969,-0.00019722,0
2.9695,-8.7953e-05,0
2.97,3.2731e-05,0
2.9705,0.00012572,0
2.971,0.00018094,0
2.9716,0.00020192,0
2.9721,0.00018648,0
2.9726,0.00015023,0
2.9731,0.00010591,0
2.9736,5.3544e-05,0
2.9742,-2.8534e-06,0
2.9747,-4.1962e-05,0
2.9752,-5.1194e-05,0
2.9757,-3.9445e-05,0
2.9762,-2.7359e-05,0
2.9768,-2.0645e-05,0
2.9773,-2.1653e-05,0
2.9778,-3.3738e-05,0
2.9783,-5.539e-05,0
2.9788,-8.4764e-05,0
2.9793,-0.00010356,0
2.9799,-9.0806e-05,0
2.9804,-4.2634e-05,0
2.9809,1.6617e-05,0
2.9814,5.8244e-05,0
2.9819,9.1814e-05,0
2.9825,0.00012236,0
2.983,0.00012874,0
2.9835,9.9702e-05,0
2.984,5.2537e-05,0
2.9845,2.9374e-05,0
2.9851,2.652e-05,0
2.9856,2.1653e-05,0
2.9861,2.3499e-05,0
2.9866,3.4745e-05,0
2.9871,5.6565e-05,0
2.9877,6.2608e-05,0
2.9882,3.0213e-05,0
2.9887,-1.6953e-05,0
2.9892,-6.0594e-05,0
2.9897,-9.6849e-05,0
2.9903,-0.00011028,0
2.9908,-9.3324e-05,0
2.9913,-5.069e-05,0
2.9918,9.5674e-06,0
2.9923,7.335e-05,0
2.9928,0.00011968,0
2.9934,0.00013277,0
2.9939,0.00014083,0
2.9944,0.00015895,0
2.9949,0.00016164,0
2.9954,0.00012102,0
2.996,4.3809e-05,0
2.9965,-2.8367e-05,0
2.997,-5.2873e-05,0
2.9975,-2.3331e-05,0
2.998,3.2395e-05,0
2.9986,8.1071e-05,0
2.9991,0.00011196,0
2.9996,0.00013462,0
3.0001,0.00014989,0
3.0006,0.00015895,0
3.0012,0.0001509,0
3.0017,0.0001086,0
3.0022,4.8844e-05,0
3.0027,-5.2033e-06,0
3.0032,-3.9948e-05,0
3.0038,-4.1459e-05,0
3.0043,-2.8534e-06,0
3.0048,3.9445e-05,0
3.0053,4.0116e-05,0
3.0058,1.1078e-05,0
3.0063,-1.4435e-05,0
3.0069,-2.031e-05,0
3.0074,-1.5106e-05,0
3.0079,-1.2589e-05,0
3.0084,-1.6785e-05,0
3.0089,-2.6352e-05,0
3.0095,-3.4745e-05,0
3.01,-3.1052e-05,0
3.0105,-1.3596e-05,0
3.011,3.5248e-06,0
3.0115,9.5674e-06,0
3.0121,2.182e-06,0
3.0126,-1.2757e-05,0
3.0131,-2.7695e-05,0
3.0136,-4.7166e-05,0
3.0141,-6.6972e-05,0
3.0147,-7.3686e-05,0
3.0152,-7.3518e-05,0
3.0157,-7.3686e-05,0
3.0162,-6.3279e-05,0
3.0167,-2.7024e-05,0
3.0173,3.4745e-05,0
3.0178,9.2821e-05,0
3.0183,0.00011867,0
3.0188,0.00011481,0
3.0193,9.1142e-05,0
3.0198,6.3279e-05,0
3.0204,4.6326e-05,0
3.0209,4.4312e-05,0
3.0214,4.5487e-05,0
3.0219,3.8941e-05,0
3.0224,2.7359e-05,0
3.023,1.2421e-05,0
3.0235,-1.6785e-06,0
3.024,-6.5461e-06,0
3.0245,1.1749e-06,0
3.025,3.5248e-06,0
3.0256,-2.0645e-05,0
3.0261,-6.6133e-05,0
3.0266,-0.00011867,0
3.0271,-0.00015795,0
3.0276,-0.00016416,0
3.0282,-0.00013394,0
3.0287,-8.8457e-05,0
3.0292,-4.1459e-05,0
3.0297,1.4603e-05,0
3.0302,8.4428e-05,0
3.0307,0.00015761,0
3.0313,0.00019991,0
3.0318,0.00019269,0
3.0323,0.00016835,0
3.0328,0.0001472,0
3.0333,0.00011632,0
3.0339,6.4286e-05,0
3.0344,2.8534e-06,0
3.0349,-3.3066e-05,0
3.0354,-2.8031e-05,0
3.0359,-1.6785e-06,0
3.0365,1.6617e-05,0
3.037,1.4603e-05,0
3.0375,9.2317e-06,0
3.038,5.2033e-06,0
3.0385,-3.357e-06,0
3.0391,-1.0071e-05,0
3.0396,-6.5461e-06,0
3.0401,4.3641e-06,0
3.0406,5.7069e-06,0
3.0411,9.2317e-06,0
3.0417,3.4073e-05,0
3.0422,5.8915e-05,0
3.0427,5.6062e-05,0
3.0432,2.501e-05,0
3.0437,-1.0239e-05,0
3.0442,-2.9877e-05,0
3.0448,-4.1794e-05,0
3.0453,-8.0903e-05,0
3.0458,-0.00015895,0
3.0463,-0.00024472,0
3.0468,-0.00029105,0
3.0474,-0.00026436,0
3.0479,-0.00019152,0
3.0484,-0.00013176,0
3.0489,-0.00010742,0
3.0494,-7.8721e-05,0
3.05,5.0355e-06,0
3.0505,0.00012706,0
3.051,0.0002318,0
3.0515,0.00028954,0
3.052,0.00031069,0
3.0526,0.00032412,0
3.0531,0.00035567,0
3.0536,0.00039965,0
3.0541,0.00040938,0
3.0546,0.0003597,0
3.0552,0.0002976,0
3.0557,0.00025698,0
3.0562,0.00022106,0
3.0567,0.000165,0
3.0572,8.7785e-05,0
3.0577,1.8799e-05,0
3.0583,-1.2924e-05,0
3.0588,-2.4002e-05,0
3.0593,-4.2466e-05,0
3.0598,-6.6133e-05,0
3.0603,-8.7449e-05,0
3.0609,-0.00010289,0
3.0614,-0.00011061,0
3.0619,-0.00010927,0
3.0624,-9.7017e-05,0
3.0629,-7.2007e-05,0
3.0635,-3.8102e-05,0
3.064,-1.4771e-05,0
3.0645,-1.4939e-05,0
3.065,-2.1988e-05,0
3.0655,-2.1653e-05,0
3.0661,-2.0813e-05,0
3.0666,-2.7359e-05,0
3.0671,-4.4816e-05,0
3.0676,-6.5629e-05,0
3.0681,-7.2343e-05,0
3.0687,-5.388e-05,0
3.0692,-1.4267e-05,0
3.0697,2.1317e-05,0
3.0702,2.9038e-05,0
3.0707,4.6998e-06,0
3.0713,-2.9374e-05,0
3.0718,-4.3977e-05,0
3.0723,-4.5319e-05,0
3.0728,-5.1362e-05,0
3.0733,-6.3447e-05,0
3.0738,-7.9057e-05,0
3.0744,-8.9632e-05,0
3.0749,-6.63e-05,0
3.0754,-3.5248e-06,0
3.0759,6.7643e-05,0
3.0764,0.00010591,0
3.077,0.00011112,0
3.0775,0.00010121,0
3.078,8.6778e-05,0
3.0785,7.335e-05,0
3.079,6.5797e-05,0
3.0796,6.8315e-05,0
3.0801,7.2343e-05,0
3.0806,6.5293e-05,0
3.0811,4.3473e-05,0
3.0816,2.031e-05,0
3.0822,7.8889e-06,0
3.0827,-5.0355e-07,0
3.0832,-7.5532e-06,0
3.0837,-2.1653e-05,0
3.0842,-4.6494e-05,0
3.0848,-6.3111e-05,0
3.0853,-4.6159e-05,0
3.0858,-4.1962e-06,0
3.0863,3.1556e-05,0
3.0868,4.2802e-05,0
3.0873,3.6423e-05,0
3.0879,2.9709e-05,0
3.0884,2.8031e-05,0
3.0889,2.2492e-05,0
3.0894,9.2317e-06,0
3.0899,2.8534e-06,0
3.0905,0,0
3.091,-6.2104e-06,0
3.0915,-2.3499e-06,0
3.092,1.5274e-05,0
3.0925,3.2395e-05,0
3.0931,3.743e-05,0
3.0936,3.3234e-05,0
3.0941,3.1724e-05,0
3.0946,3.0381e-05,0
3.0951,2.3331e-05,0
3.0957,1.5946e-05,0
3.0962,1.4771e-05,0
3.0967,1.9974e-05,0
3.0972,2.6352e-05,0
3.0977,2.5681e-05,0
3.0983,1.8631e-05,0
3.0988,1.3764e-05,0
3.0993,1.5778e-05,0
3.0998,2.4002e-05,0
3.1003,3.6759e-05,0
3.1008,5.0858e-05,0
3.1014,5.7237e-05,0
3.1019,5.0187e-05,0
3.1024,3.2731e-05,0
3.1029,1.3931e-05,0
3.1034,2.3499e-06,0
3.104,-3.8605e-06,0
3.1045,-1.8631e-05,0
3.105,-4.7333e-05,0
3.1055,-7.8721e-05,0
3.106,-0.0001039,0
3.1066,-0.00010944,0
3.1071,-8.4092e-05,0
3.1076,-3.4745e-05,0
3.1081,8.7282e-06,0
3.1086,2.7359e-05,0
3.1092,2.3163e-05,0
3.1097,-8.3925e-06,0
3.1102,-3.9612e-05,0
3.1107,-3.9277e-05,0
3.1112,-1.8967e-05,0
3.1117,-1.5106e-06,0
3.1123,1.9974e-05,0
3.1128,5.5222e-05,0
3.1133,0.00010088,0
3.1138,0.00016365,0
3.1143,0.00024271,0
3.1149,0.00030716,0
3.1154,0.00032143,0
3.1159,0.00028299,0
3.1164,0.00021199,0
3.1169,0.00011968,0
3.1175,1.8463e-06,0
3.118,-0.0001086,0
3.1185,-0.00016214,0
3.119,-0.0001509,0
3.1195,-0.00010474,0
3.1201,-5.388e-05,0
3.1206,-3.5248e-06,0
3.1211,6.4958e-05,0
3.1216,0.0001603,0
3.1221,0.00024825,0
3.1227,0.00027578,0
3.1232,0.00022626,0
3.1237,0.00013613,0
3.1242,5.7572e-05,0
3.1247,1.2421e-05,0
3.1252,-3.5248e-06,0
3.1258,-5.0355e-06,0
3.1263,-7.2175e-06,0
3.1268,-1.5778e-05,0
3.1273,-2.9038e-05,0
3.1278,-4.2466e-05,0
3.1284,-4.5487e-05,0
3.1289,-3.7766e-05,0
3.1294,-2.5345e-05,0
3.1299,-1.7624e-05,0
3.1304,-1.7456e-05,0
3.131,-1.796e-05,0
3.1315,-1.2924e-05,0
3.132,2.0142e-06,0
3.1325,2.266e-05,0
3.133,3.7934e-05,0
3.1336,4.1627e-05,0
3.1341,3.4073e-05,0
3.1346,1.6281e-05,0
3.1351,-1.1582e-05,0
3.1356,-3.978e-05,0
3.1362,-6.1936e-05,0
3.1367,-8.0735e-05,0
3.1372,-9.5506e-05,0
3.1377,-9.9199e-05,0
3.1382,-9.5506e-05,0
3.1387,-8.8457e-05,0
3.1393,-7.6707e-05,0
3.1398,-5.7908e-05,0
3.1403,-2.3835e-05,0
3.1408,2.3667e-05,0
3.1413,6.5965e-05,0
3.1419,8.51e-05,0
3.1424,7.3854e-05,0
3.1429,4.0955e-05,0
3.1434,7.8889e-06,0
3.1439,-7.0497e-06,0
3.1445,-8.3925e-07,0
3.145,1.326e-05,0
3.1455,2.5513e-05,0
3.146,3.2059e-05,0
3.1465,2.6688e-05,0
3.1471,1.2924e-05,0
3.1476,1.3596e-05,0
3.1481,3.4073e-05,0
3.1486,4.7166e-05,0
3.1491,4.1794e-05,0
3.1497,2.8702e-05,0
3.1502,1.3931e-05,0
3.1507,-8.3925e-07,0
3.1512,-6.5461e-06,0
3.1517,-5.0355e-06,0
3.1522,-2.0142e-06,0
3.1528,4.5319e-06,0
3.1533,1.3596e-05,0
3.1538,2.3331e-05,0
3.1543,3.2059e-05,0
3.1548,4.6159e-05,0
3.1554,6.9993e-05,0
3.1559,9.0974e-05,0
3.1564,0.00010256,0
3.1569,0.00010994,0
3.1574,0.00011179,0
3.158,0.00010256,0
3.1585,7.7546e-05,0
3.159,4.8173e-05,0
3.1595,2.8367e-05,0
3.16,1.5442e-05,0
3.1606,4.5319e-06,0
3.1611,-1.0742e-05,0
3.1616,-2.266e-05,0
3.1621,-2.9374e-05,0
3.1626,-3.5584e-05,0
3.1632,-4.5655e-05,0
3.1637,-5.3544e-05,0
3.1642,-4.5319e-05,0
3.1647,-2.9541e-05,0
3.1652,-3.1891e-05,0
3.1658,-4.1794e-05,0
3.1663,-4.6326e-05,0
3.1668,-5.388e-05,0
3.1673,-4.8844e-05,0
3.1678,-1.9806e-05,0
3.1683,6.8818e-06,0
3.1689,5.0355e-06,0
3.1694,-1.1246e-05,0
3.1699,7.8889e-06,0
3.1704,7.4693e-05,0
3.1709,0.00014838,0
3.1715,0.00018782,0
3.172,0.00017641,0
3.1725,0.0001368,0
3.173,0.00011044,0
3.1735,0.00011514,0
3.1741,0.0001232,0
3.1746,0.00010172,0
3.1751,6.6972e-05,0
3.1756,4.918e-05,0
3.1761,4.3473e-05,0
3.1767,3.2563e-05,0
3.1772,7.2175e-06,0
3.1777,-2.3835e-05,0
3.1782,-4.7669e-05,0
3.1787,-7.805e-05,0
3.1793,-0.00012018,0
3.1798,-0.00017356,0
3.1803,-0.00024573,0
3.1808,-0.00031858,0
3.1813,-0.00035567,0
3.1818,-0.00032764,0
3.1824,-0.00023029,0
3.1829,-8.6778e-05,0
3.1834,7.6204e-05,0
3.1839,0.00023398,0
3.1844,0.00035366,0
3.185,0.00040703,0
3.1855,0.00039864,0
3.186,0.00035265,0
3.1865,0.00027309,0
3.187,0.00015962,0
3.1876,4.8508e-05,0
3.1881,-1.7624e-05,0
3.1886,-3.2395e-05,0
3.1891,-1.8296e-05,0
3.1896,5.2033e-06,0
3.1902,1.5946e-05,0
3.1907,1.8967e-05,0
3.1912,4.6494e-05,0
3.1917,9.6513e-05,0
3.1922,0.00013143,0
3.1928,0.00013478,0
3.1933,0.0001185,0
3.1938,8.7114e-05,0
3.1943,5.8244e-05,0
3.1948,5.0858e-05,0
3.1953,5.5558e-05,0
3.1959,4.7333e-05,0
3.1964,2.4002e-05,0
3.1969,-5.0355e-07,0
3.1974,-1.9303e-05,0
3.1979,-3.122e-05,0
3.1985,-3.7934e-05,0
3.199,-3.9445e-05,0
3.1995,-3.8102e-05,0
3.2,-3.6255e-05,0
3.2005,-3.5752e-05,0
3.2011,-3.978e-05,0
3.2016,-4.5823e-05,0
3.2021,-4.7333e-05,0
3.2026,-5.2873e-05,0
3.2031,-6.4454e-05,0
3.2037,-7.7379e-05,0
3.2042,-8.6946e-05,0
3.2047,-8.5435e-05,0
3.2052,-6.5126e-05,0
3.2057,-4.3809e-05,0
3.2062,-4.8676e-05,0
3.2068,-7.2007e-05,0
3.2073,-8.7953e-05,0
3.2078,-8.661e-05,0
3.2083,-7.0161e-05,0
3.2088,-4.2466e-05,0
3.2094,-9.2317e-06,0
3.2099,2.4002e-05,0
3.2104,5.774e-05,0
3.2109,9.6513e-05,0
3.2114,0.00012807,0
3.212,0.0001274,0
3.2125,0.00010155,0
3.213,6.2608e-05,0
3.2135,2.1988e-05,0
3.214,9.2317e-06,0
3.2146,2.1988e-05,0
3.2151,1.7288e-05,0
3.2156,-2.6017e-05,0
3.2161,-8.04e-05,0
3.2166,-0.00011867,0
3.2172,-0.00012505,0
3.2177,-0.0001034,0
3.2182,-5.8915e-05,0
3.2187,5.539e-06,0
3.2192,7.5029e-05,0
3.2197,0.00013344,0
3.2203,0.00017171,0
3.2208,0.00019185,0
3.2213,0.00020662,0
3.2218,0.00020763,0
3.2223,0.0001744,0
3.2229,0.00011582,0
3.2234,6.1601e-05,0
3.2239,3.978e-05,0
3.2244,5.6901e-05,0
3.2249,8.9464e-05,0
3.2255,0.00010625,0
3.226,9.7017e-05,0
3.2265,7.1168e-05,0
3.227,4.1123e-05,0
3.2275,2.0478e-05,0
3.2281,6.3783e-06,0
3.2286,-1.4939e-05,0
3.2291,-4.5319e-05,0
3.2296,-8.0735e-05,0
3.2301,-0.0001044,0
3.2307,-9.5674e-05,0
3.2312,-6.6636e-05,0
3.2317,-3.7095e-05,0
3.2322,-1.5946e-05,0
3.2327,-1.561e-05,0
3.2332,-4.2802e-05,0
3.2338,-8.0568e-05,0
3.2343,-0.00010423,0
3.2348,-0.00010188,0
3.2353,-9.1478e-05,0
3.2358,-7.805e-05,0
3.2364,-4.5823e-05,0
3.2369,2.6856e-06,0
3.2374,6.4622e-05,0
3.2379,0.00014032,0
3.2384,0.00020847,0
3.239,0.00023046,0
3.2395,0.00018497,0
3.24,0.00010121,0
3.2405,4.5319e-05,0
3.241,5.6397e-05,0
3.2416,0.00010323,0
3.2421,0.00013411,0
3.2426,0.0001321,0
3.2431,0.00010188,0
3.2436,6.3951e-05,0
3.2442,3.8941e-05,0
3.2447,2.2828e-05,0
3.2452,3.5248e-06,0
3.2457,-1.2589e-05,0
3.2462,-1.3931e-05,0
3.2468,2.182e-06,0
3.2473,1.2253e-05,0
3.2478,-1.1917e-05,0
3.2483,-5.1194e-05,0
3.2488,-6.7643e-05,0
3.2493,-5.7572e-05,0
3.2499,-4.8005e-05,0
3.2504,-5.5894e-05,0
3.2509,-6.9322e-05,0
3.2514,-7.8218e-05,0
3.2519,-6.7308e-05,0
3.2525,-3.9445e-05,0
3.253,-1.4939e-05,0
3.2535,-7.5532e-06,0
3.254,-7.7211e-06,0
3.2545,5.7069e-06,0
3.2551,4.0116e-05,0
3.2556,9.5171e-05,0
3.2561,0.00014368,0
3.2566,0.00014217,0
3.2571,0.00010021,0
3.2577,6.6972e-05,0
3.2582,5.2033e-05,0
3.2587,3.7095e-05,0
3.2592,1.3596e-05,0
3.2597,-1.8463e-05,0
3.2603,-4.4144e-05,0
3.2608,-4.1123e-05,0
3.2613,-8.896e-06,0
3.2618,3.2059e-05,0
3.2623,6.9154e-05,0
3.2628,9.0135e-05,0
3.2634,9.0806e-05,0
3.2639,8.5771e-05,0
3.2644,8.8792e-05,0
3.2649,9.836e-05,0
3.2654,0.00010423,0
3.266,9.1981e-05,0
3.2665,6.4286e-05,0
3.267,4.0116e-05,0
3.2675,2.8031e-05,0
3.268,2.3331e-05,0
3.2686,1.6617e-05,0
3.2691,6.5461e-06,0
3.2696,-5.0355e-07,0
3.2701,-7.0497e-06,0
3.2706,-9.2317e-06,0
3.2712,-4.5319e-06,0
3.2717,-3.357e-06,0
3.2722,-1.5442e-05,0
3.2727,-3.9948e-05,0
3.2732,-6.8986e-05,0
3.2738,-9.2821e-05,0
3.2743,-0.00010491,0
3.2748,-0.00011128,0
3.2753,-0.00011296,0
3.2758,-0.00010541,0
3.2763,-8.51e-05,0
3.2769,-4.0955e-05,0
3.2774,2.2324e-05,0
3.2779,6.8986e-05,0
3.2784,7.6371e-05,0
3.2789,5.6062e-05,0
3.2795,3.3738e-05,0
3.28,2.7024e-05,0
3.2805,3.0213e-05,0
3.281,3.5584e-05,0
3.2815,4.8508e-05,0
3.2821,6.1601e-05,0
3.2826,5.7572e-05,0
3.2831,2.9709e-05,0
3.2836,-1.2253e-05,0
3.2841,-4.8173e-05,0
3.2847,-5.8076e-05,0
3.2852,-4.2298e-05,0
3.2857,-2.3499e-05,0
3.2862,-2.9206e-05,0
3.2867,-4.3137e-05,0
3.2872,-1.6114e-05,0
3.2878,5.7572e-05,0
3.2883,0.00010625,0
3.2888,7.805e-05,0
3.2893,2.0645e-05,0
3.2898,-3.5248e-06,0
3.2904,6.2104e-06,0
3.2909,2.7024e-05,0
3.2914,3.7934e-05,0
3.2919,3.8773e-05,0
3.2924,5.069e-05,0
3.293,8.3421e-05,0
3.2935,0.0001227,0
3.294,0.00014838,0
3.2945,0.00014888,0
3.295,0.00013243,0
3.2956,0.0001138,0
3.2961,9.836e-05,0
3.2966,8.2414e-05,0
3.2971,6.4286e-05,0
3.2976,5.153e-05,0
3.2982,4.5487e-05,0
3.2987,3.7263e-05,0
3.2992,2.9374e-05,0
3.2997,2.9038e-05,0
3.3002,2.4674e-05,0
3.3007,1.1749e-05,0
3.3013,5.0355e-07,0
3.3018,-4.8676e-06,0
3.3023,-5.2033e-06,0
3.3028,-5.0355e-06,0
3.3033,-1.1246e-05,0
3.3039,-1.8631e-05,0
3.3044,-2.031e-05,0
3.3049,-2.0645e-05,0
3.3054,-2.7863e-05,0
3.3059,-3.592e-05,0
3.3065,-3.978e-05,0
3.307,-4.1794e-05,0
3.3075,-4.8844e-05,0
3.308,-5.9083e-05,0
3.3085,-6.7643e-05,0
3.3091,-7.1336e-05,0
3.3096,-6.6804e-05,0
3.3101,-4.918e-05,0
3.3106,-2.9038e-05,0
3.3111,-1.1582e-05,0
3.3117,1.091e-05,0
3.3122,4.3473e-05,0
3.3127,7.9393e-05,0
3.3132,0.00010793,0
3.3137,0.00011632,0
3.3142,0.00010088,0
3.3148,7.3014e-05,0
3.3153,4.4648e-05,0
3.3158,1.326e-05,0
3.3163,-2.3835e-05,0
3.3168,-5.4719e-05,0
3.3174,-7.1504e-05,0
3.3179,-7.0665e-05,0
3.3184,-5.4551e-05,0
3.3189,-3.6423e-05,0
3.3194,-1.7624e-05,0
3.32,1.7288e-05,0
3.3205,6.2943e-05,0
3.321,9.1646e-05,0
3.3215,8.51e-05,0
3.322,5.5558e-05,0
3.3226,2.8367e-05,0
3.3231,1.7121e-05,0
3.3236,1.9303e-05,0
3.3241,1.3764e-05,0
3.3246,9.0639e-06,0
3.3252,2.2324e-05,0
3.3257,4.683e-05,0
3.3262,6.2272e-05,0
3.3267,6.8986e-05,0
3.3272,7.4861e-05,0
3.3277,7.8721e-05,0
3.3283,7.9057e-05,0
3.3288,8.4092e-05,0
3.3293,0.00010088,0
3.3298,0.00012807,0
3.3303,0.00015258,0
3.3309,0.00016231,0
3.3314,0.00015123,0
3.3319,0.00012068,0
3.3324,8.4428e-05,0
3.3329,5.3544e-05,0
3.3335,2.9709e-05,0
3.334,1.2924e-05,0
3.3345,-7.8889e-06,0
3.335,-3.9445e-05,0
3.3355,-6.0258e-05,0
3.3361,-5.9251e-05,0
3.3366,-5.1194e-05,0
3.3371,-6.2608e-05,0
3.3376,-9.0806e-05,0
3.3381,-0.00011582,0
3.3387,-0.00012572,0
3.3392,-0.00011649,0
3.3397,-9.5506e-05,0
3.3402,-6.2943e-05,0
3.3407,-2.6352e-05,0
3.3413,6.0426e-06,0
3.3418,3.5416e-05,0
3.3423,6.1097e-05,0
3.3428,7.8553e-05,0
3.3433,7.7714e-05,0
3.3438,4.7501e-05,0
3.3444,7.5532e-06,0
3.3449,-1.4603e-05,0
3.3454,-1.5274e-05,0
3.3459,-9.5674e-06,0
3.3464,-1.5106e-05,0
3.347,-2.3835e-05,0
3.3475,-1.6953e-05,0
3.348,7.5532e-06,0
3.3485,2.0478e-05,0
3.349,4.1962e-06,0
3.3496,-2.4674e-05,0
3.3501,-2.7192e-05,0
3.3506,1.561e-05,0
3.3511,7.5029e-05,0
3.3516,0.00012102,0
3.3522,0.00014788,0
3.3527,0.00015023,0
3.3532,0.00013411,0
3.3537,0.0001133,0
3.3542,9.1142e-05,0
3.3548,7.4357e-05,0
3.3553,7.5868e-05,0
3.3558,8.1407e-05,0
3.3563,6.3279e-05,0
3.3568,2.8031e-05,0
3.3573,3.5248e-06,0
3.3579,-4.6998e-06,0
3.3584,-4.1962e-06,0
3.3589,-5.539e-06,0
3.3594,-1.4435e-05,0
3.3599,-2.9374e-05,0
3.3605,-4.2802e-05,0
3.361,-4.8508e-05,0
3.3615,-4.6494e-05,0
3.362,-4.2802e-05,0
3.3625,-4.0452e-05,0
3.3631,-4.5487e-05,0
3.3636,-4.9851e-05,0
3.3641,-4.5151e-05,0
3.3646,-3.6591e-05,0
3.3651,-1.3764e-05,0
3.3657,2.6017e-05,0
3.3662,6.4958e-05,0
3.3667,8.5603e-05,0
3.3672,8.0903e-05,0
3.3677,6.0594e-05,0
3.3683,4.7166e-05,0
3.3688,4.9683e-05,0
3.3693,5.6901e-05,0
3.3698,5.304e-05,0
3.3703,3.3906e-05,0
3.3708,1.3764e-05,0
3.3714,2.182e-06,0
3.3719,-2.5177e-06,0
3.3724,-8.5603e-06,0
3.3729,-2.0478e-05,0
3.3734,-4.0787e-05,0
3.374,-6.63e-05,0
3.3745,-8.7449e-05,0
3.375,-9.2317e-05,0
3.3755,-7.2679e-05,0
3.376,-3.6423e-05,0
3.3766,-8.2246e-06,0
3.3771,9.3996e-06,0
3.3776,3.357e-05,0
3.3781,7.0329e-05,0
3.3786,0.00011565,0
3.3792,0.0001462,0
3.3797,0.00014653,0
3.3802,0.00012874,0
3.3807,0.00010961,0
3.3812,8.7114e-05,0
3.3817,6.3615e-05,0
3.3823,4.683e-05,0
3.3828,3.508e-05,0
3.3833,1.2589e-05,0
3.3838,-2.8367e-05,0
3.3843,-7.8218e-05,0
3.3849,-0.0001284,0
3.3854,-0.00016869,0
3.3859,-0.00018111,0
3.3864,-0.000166,0
3.3869,-0.00012337,0
3.3875,-4.2969e-05,0
3.388,5.7908e-05,0
3.3885,0.0001509,0
3.389,0.00020763,0
3.3895,0.00021199,0
3.3901,0.00019554,0
3.3906,0.0001984,0
3.3911,0.00021971,0
3.3916,0.00020696,0
3.3921,0.00014183,0
3.3927,6.4958e-05,0
3.3932,1.0407e-05,0
3.3937,-2.6017e-05,0
3.3942,-6.7811e-05,0
3.3947,-0.00010491,0
3.3952,-0.0001044,0
3.3958,-5.8244e-05,0
3.3963,4.5319e-06,0
3.3968,4.683e-05,0
3.3973,5.6901e-05,0
3.3978,4.5151e-05,0
3.3984,3.8437e-05,0
3.3989,4.918e-05,0
3.3994,4.918e-05,0
3.3999,2.2995e-05,0
3.4004,-1.3428e-06,0
3.401,-2.182e-06,0
3.4015,1.0071e-06,0
3.402,-3.6927e-06,0
3.4025,-1.0239e-05,0
3.403,-9.2317e-06,0
3.4036,7.5532e-06,0
3.4041,2.887e-05,0
3.4046,4.1123e-05,0
3.4051,4.683e-05,0
3.4056,5.3544e-05,0
3.4062,5.9251e-05,0
3.4067,5.3544e-05,0
3.4072,4.0116e-05,0
3.4077,3.0716e-05,0
3.4082,3.2059e-05,0
3.4087,3.3402e-05,0
3.4093,2.2492e-05,0
3.4098,1.0575e-05,0
3.4103,1.3931e-05,0
3.4108,1.7288e-05,0
3.4113,-1.0071e-05,0
3.4119,-6.865e-05,0
3.4124,-0.00012622,0
3.4129,-0.00014653,0
3.4134,-0.00012404,0
3.4139,-8.4932e-05,0
3.4145,-4.4816e-05,0
3.415,1.0071e-06,0
3.4155,4.9516e-05,0
3.416,9.3156e-05,0
3.4165,0.00013243,0
3.4171,0.00015694,0
3.4176,0.0001373,0
3.4181,6.0426e-05,0
3.4186,-3.6759e-05,0
3.4191,-9.9702e-05,0
3.4197,-0.00012471,0
3.4202,-0.0001519,0
3.4207,-0.00019135,0
3.4212,-0.00022307,0
3.4217,-0.00021753,0
3.4223,-0.00014989,0
3.4228,-3.978e-05,0
3.4233,5.8915e-05,0
3.4238,0.00012001,0
3.4243,0.0001462,0
3.4248,0.00017087,0
3.4254,0.00022257,0
3.4259,0.00027108,0
3.4264,0.00026839,0
3.4269,0.00022139,0
3.4274,0.00018816,0
3.428,0.00019638,0
3.4285,0.00022408,0
3.429,0.00023449,0
3.4295,0.00019924,0
3.43,0.00013042,0
3.4306,6.5126e-05,0
3.4311,2.1988e-05,0
3.4316,-1.1582e-05,0
3.4321,-4.9348e-05,0
3.4326,-8.426e-05,0
3.4332,-0.00010289,0
3.4337,-0.00010256,0
3.4342,-8.4764e-05,0
3.4347,-5.3208e-05,0
3.4352,-1.091e-05,0
3.4358,3.9948e-05,0
3.4363,8.1239e-05,0
3.4368,9.0806e-05,0
3.4373,6.8986e-05,0
3.4378,3.743e-05,0
3.4383,5.539e-06,0
3.4389,-2.9038e-05,0
3.4394,-6.3279e-05,0
3.4399,-9.4163e-05,0
3.4404,-0.00011196,0
3.4409,-0.00012639,0
3.4415,-0.00014653,0
3.442,-0.00016147,0
3.4425,-0.00016567,0
3.443,-0.00015409,0
3.4435,-0.00011682,0
3.4441,-6.244e-05,0
3.4446,-7.5532e-06,0
3.4451,3.4241e-05,0
3.4456,5.3544e-05,0
3.4461,6.6972e-05,0
3.4467,9.8527e-05,0
3.4472,0.00014083,0
3.4477,0.000166,0
3.4482,0.00016063,0
3.4487,0.00013243,0
3.4493,0.0001086,0
3.4498,9.7856e-05,0
3.4503,8.2414e-05,0
3.4508,5.6901e-05,0
3.4513,2.7863e-05,0
3.4518,-1.1749e-06,0
3.4524,-1.8967e-05,0
3.4529,-2.2156e-05,0
3.4534,-2.266e-05,0
3.4539,-2.9374e-05,0
3.4544,-3.6423e-05,0
3.455,-2.8367e-05,0
3.4555,-9.9031e-06,0
3.456,5.0355e-06,0
3.4565,1.1078e-05,0
3.457,1.3596e-05,0
3.4576,1.8967e-05,0
3.4581,3.0716e-05,0
3.4586,4.5487e-05,0
3.4591,5.0858e-05,0
3.4596,4.4648e-05,0
3.4602,3.7095e-05,0
3.4607,3.0381e-05,0
3.4612,1.796e-05,0
3.4617,1.6785e-07,0
3.4622,-1.8296e-05,0
3.4628,-3.6759e-05,0
3.4633,-5.0858e-05,0
3.4638,-5.7069e-05,0
3.4643,-5.1865e-05,0
3.4648,-3.6088e-05,0
3.4653,-2.3835e-05,0
3.4659,-2.7192e-05,0
3.4664,-3.5416e-05,0
3.4669,-3.2731e-05,0
3.4674,-1.2757e-05,0
3.4679,2.0645e-05,0
3.4685,5.2873e-05,0
3.469,6.3279e-05,0
3.4695,4.4648e-05,0
3.47,1.1917e-05,0
3.4705,7.2175e-06,0
3.4711,4.5823e-05,0
3.4716,9.7185e-05,0
3.4721,0.00012673,0
3.4726,0.00011867,0
3.4731,9.5171e-05,0
3.4737,8.3085e-05,0
3.4742,7.4693e-05,0
3.4747,5.6062e-05,0
3.4752,2.7359e-05,0
3.4757,-2.7192e-05,0
3.4762,-0.0001086,0
3.4768,-0.00017288,0
3.4773,-0.00019001,0
3.4778,-0.00018564,0
3.4783,-0.00016886,0
3.4788,-8.896e-05,0
3.4794,6.1433e-05,0
3.4799,0.00020159,0
3.4804,0.00029021,0
3.4809,0.00035433,0
3.4814,0.0003973,0
3.482,0.00038656,0
3.4825,0.00031942,0
3.483,0.00023684,0
3.4835,0.00017372,0
3.484,0.00013529,0
3.4846,8.9799e-05,0
3.4851,1.4603e-05,0
3.4856,-6.3951e-05,0
3.4861,-0.00012085,0
3.4866,-0.00015929,0
3.4872,-0.0001801,0
3.4877,-0.00019017,0
3.4882,-0.00019588,0
3.4887,-0.00017742,0
3.4892,-0.00011229,0
3.4897,-1.796e-05,0
3.4903,6.2608e-05,0
3.4908,0.00011028,0
3.4913,0.00013512,0
3.4918,0.00013915,0
3.4923,0.00011229,0
3.4929,6.8315e-05,0
3.4934,2.6017e-05,0
3.4939,-1.5946e-05,0
3.4944,-5.2369e-05,0
3.4949,-7.8386e-05,0
3.4955,-0.00010356,0
3.496,-0.00013075,0
3.4965,-0.00014704,0
3.497,-0.00013646,0
3.4975,-9.4499e-05,0
3.4981,-3.6759e-05,0
3.4986,1.5946e-05,0
3.4991,5.0187e-05,0
3.4996,6.4286e-05,0
3.5001,7.6204e-05,0
3.5007,9.4499e-05,0
3.5012,0.00011733,0
3.5017,0.0001472,0
3.5022,0.0001749,0
3.5027,0.0001744,0
3.5032,0.00013747,0
3.5038,9.0135e-05,0
3.5043,6.2776e-05,0
3.5048,4.8173e-05,0
3.5053,3.1891e-05,0
3.5058,1.7624e-05,0
3.5064,4.1962e-06,0
3.5069,-1.3092e-05,0
3.5074,-3.508e-05,0
3.5079,-5.1865e-05,0
3.5084,-5.6565e-05,0
3.509,-5.1026e-05,0
3.5095,-3.9109e-05,0
3.51,-1.9471e-05,0
3.5105,5.8747e-06,0
3.511,1.4939e-05,0
3.5116,2.182e-06,0
3.5121,-1.4267e-05,0
3.5126,-2.0981e-05,0
3.5131,-2.5849e-05,0
3.5136,-3.7766e-05,0
3.5142,-4.5823e-05,0
3.5147,-4.3305e-05,0
3.5152,-3.2898e-05,0
3.5157,-2.1317e-05,0
3.5162,-1.8296e-05,0
3.5168,-1.5946e-05,0
3.5173,-5.8747e-06,0
3.5178,-8.5603e-06,0
3.5183,-6.63e-05,0
3.5188,-0.00017675,0
3.5193,-0.00027427,0
3.5199,-0.00029726,0
3.5204,-0.00024388,0
3.5209,-0.00014066,0
3.5214,-7.0497e-06,0
3.5219,0.0001472,0
3.5225,0.00030666,0
3.523,0.00045504,0
3.5235,0.00056213,0
3.524,0.00056347,0
3.5245,0.00044094,0
3.5251,0.00026503,0
3.5256,0.00010994,0
3.5261,4.3641e-06,0
3.5266,-5.4215e-05,0
3.5271,-8.1743e-05,0
3.5277,-8.7114e-05,0
3.5282,-7.4022e-05,0
3.5287,-4.5487e-05,0
3.5292,-1.2757e-05,0
3.5297,4.5319e-06,0
3.5303,4.3641e-06,0
3.5308,2.0142e-06,0
3.5313,-1.0071e-06,0
3.5318,-1.2253e-05,0
3.5323,-2.2492e-05,0
3.5328,-1.8128e-05,0
3.5334,-6.8818e-06,0
3.5339,-2.182e-06,0
3.5344,-5.2033e-06,0
3.5349,-1.326e-05,0
3.5354,-1.7624e-05,0
3.536,-1.0071e-05,0
3.5365,-1.1749e-06,0
3.537,2.8534e-06,0
3.5375,7.8889e-06,0
3.538,1.9974e-05,0
3.5386,3.2563e-05,0
3.5391,3.1052e-05,0
3.5396,1.9303e-05,0
3.5401,-4.1962e-06,0
3.5406,-3.2731e-05,0
3.5412,-5.5558e-05,0
3.5417,-7.1672e-05,0
3.5422,-8.3085e-05,0
3.5427,-7.8721e-05,0
3.5432,-5.623e-05,0
3.5438,-1.0239e-05,0
3.5443,4.3473e-05,0
3.5448,7.0665e-05,0
3.5453,6.6972e-05,0
3.5458,4.8508e-05,0
3.5463,2.8367e-05,0
3.5469,2.7024e-05,0
3.5474,4.0452e-05,0
3.5479,4.6159e-05,0
3.5484,4.5151e-05,0
3.5489,4.8173e-05,0
3.5495,5.5055e-05,0
3.55,4.213e-05,0
3.5505,8.896e-06,0
3.551,-1.326e-05,0
3.5515,-9.2317e-06,0
3.5521,2.0142e-06,0
3.5526,-3.1891e-06,0
3.5531,-2.2828e-05,0
3.5536,-3.122e-05,0
3.5541,-7.3854e-06,0
3.5547,3.0045e-05,0
3.5552,3.4073e-05,0
3.5557,9.5674e-06,0
3.5562,-8.5603e-06,0
3.5567,-8.2246e-06,0
3.5572,7.5532e-06,0
3.5578,9.2317e-06,0
3.5583,-2.417e-05,0
3.5588,-4.1123e-05,0
3.5593,1.0407e-05,0
3.5598,0.0001227,0
3.5604,0.00022878,0
3.5609,0.00026302,0
3.5614,0.00022878,0
3.5619,0.00017356,0
3.5624,0.00014318,0
3.563,0.00014452,0
3.5635,0.00014888,0
3.564,0.0001284,0
3.5645,9.0806e-05,0
3.565,6.009e-05,0
3.5656,3.508e-05,0
3.5661,1.1414e-05,0
3.5666,-1.8463e-06,0
3.5671,-7.7211e-06,0
3.5676,-1.5274e-05,0
3.5682,-2.1485e-05,0
3.5687,-2.3331e-05,0
3.5692,-1.8296e-05,0
3.5697,-1.0575e-05,0
3.5702,-1.2924e-05,0
3.5707,-2.1317e-05,0
3.5713,-2.7695e-05,0
3.5718,-3.6591e-05,0
3.5723,-4.683e-05,0
3.5728,-5.3208e-05,0
3.5733,-5.7908e-05,0
3.5739,-6.7308e-05,0
3.5744,-7.6204e-05,0
3.5749,-7.1168e-05,0
3.5754,-5.0355e-05,0
3.5759,-2.4338e-05,0
3.5765,4.1962e-06,0
3.577,3.1724e-05,0
3.5775,5.0523e-05,0
3.578,5.4887e-05,0
3.5785,5.069e-05,0
3.5791,4.7333e-05,0
3.5796,3.9109e-05,0
3.5801,2.2995e-05,0
3.5806,7.7211e-06,0
3.5811,4.8676e-06,0
3.5817,9.3996e-06,0
3.5822,6.3783e-06,0
3.5827,1.5106e-06,0
3.5832,4.5319e-06,0
3.5837,9.9031e-06,0
3.5842,1.7121e-05,0
3.5848,2.3163e-05,0
3.5853,1.4939e-05,0
3.5858,-1.1078e-05,0
3.5863,-4.2634e-05,0
3.5868,-6.9993e-05,0
3.5874,-8.9632e-05,0
3.5879,-0.00010289,0
3.5884,-0.00010155,0
3.5889,-8.51e-05,0
3.5894,-6.2104e-05,0
3.59,-3.0549e-05,0
3.5905,1.4267e-05,0
3.591,6.0258e-05,0
3.5915,9.6345e-05,0
3.592,0.00011934,0
3.5926,0.00011783,0
3.5931,8.4596e-05,0
3.5936,3.0381e-05,0
3.5941,-2.6017e-05,0
3.5946,-6.0594e-05,0
3.5952,-5.388e-05,0
3.5957,-1.796e-05,0
3.5962,1.1246e-05,0
3.5967,2.7192e-05,0
3.5972,4.1123e-05,0
3.5978,5.5558e-05,0
3.5983,6.63e-05,0
3.5988,6.0258e-05,0
3.5993,4.1291e-05,0
3.5998,3.8773e-05,0
3.6003,5.4047e-05,0
3.6009,7.1839e-05,0
3.6014,8.6946e-05,0
3.6019,9.6178e-05,0
3.6024,9.0135e-05,0
3.6029,7.0665e-05,0
3.6035,5.0187e-05,0
3.604,4.213e-05,0
3.6045,5.2537e-05,0
3.605,6.8818e-05,0
3.6055,6.6636e-05,0
3.6061,4.7166e-05,0
3.6066,3.1052e-05,0
3.6071,2.1317e-05,0
3.6076,-1.1917e-05,0
3.6081,-6.1601e-05,0
3.6087,-8.2582e-05,0
3.6092,-6.8315e-05,0
3.6097,-5.2537e-05,0
3.6102,-4.5151e-05,0
3.6107,-3.592e-05,0
3.6113,-2.8199e-05,0
3.6118,-2.4506e-05,0
3.6123,-2.5177e-06,0
3.6128,4.213e-05,0
3.6133,8.51e-05,0
3.6138,0.00012438,0
3.6144,0.00016432,0
3.6149,0.0001801,0
3.6154,0.0001603,0
3.6159,0.00012438,0
3.6164,9.2485e-05,0
3.617,7.2679e-05,0
3.6175,6.1936e-05,0
3.618,5.1865e-05,0
3.6185,2.8702e-05,0
3.619,-1.5106e-06,0
3.6196,-1.8967e-05,0
3.6201,-1.326e-05,0
3.6206,2.5177e-06,0
3.6211,7.8889e-06,0
3.6216,3.1891e-06,0
3.6222,2.0142e-06,0
3.6227,4.8676e-06,0
3.6232,7.2175e-06,0
3.6237,1.1917e-05,0
3.6242,1.6617e-05,0
3.6248,1.0071e-05,0
3.6253,-7.2175e-06,0
3.6258,-2.1485e-05,0
3.6263,-2.0813e-05,0
3.6268,-9.5674e-06,0
3.6273,2.182e-06,0
3.6279,1.8463e-06,0
3.6284,-1.1582e-05,0
3.6289,-2.9709e-05,0
3.6294,-2.5849e-05,0
3.6299,-1.1246e-05,0
3.6305,-2.6688e-05,0
3.631,-7.5532e-05,0
3.6315,-0.00013176,0
3.632,-0.00016567,0
3.6325,-0.00016181,0
3.6331,-0.00012186,0
3.6336,-5.7572e-05,0
3.6341,1.5106e-05,0
3.6346,8.1071e-05,0
3.6351,0.00013545,0
3.6357,0.00016634,0
3.6362,0.00016097,0
3.6367,0.00013814,0
3.6372,0.00011531,0
3.6377,8.9464e-05,0
3.6383,6.4958e-05,0
3.6388,5.2873e-05,0
3.6393,4.7333e-05,0
3.6398,3.6759e-05,0
3.6403,2.501e-05,0
3.6408,1.6953e-05,0
3.6414,1.4267e-05,0
3.6419,1.4603e-05,0
3.6424,9.9031e-06,0
3.6429,-3.8605e-06,0
3.6434,-2.5513e-05,0
3.644,-4.1123e-05,0
3.6445,-3.3066e-05,0
3.645,5.8747e-06,0
3.6455,6.2608e-05,0
3.646,0.00010021,0
3.6466,9.6178e-05,0
3.6471,6.865e-05,0
3.6476,4.3809e-05,0
3.6481,2.7192e-05,0
3.6486,1.1917e-05,0
3.6492,-8.3925e-07,0
3.6497,-1.6785e-07,0
3.6502,1.6617e-05,0
3.6507,3.9445e-05,0
3.6512,5.1698e-05,0
3.6517,6.0594e-05,0
3.6523,8.275e-05,0
3.6528,0.0001086,0
3.6533,0.00011028,0
3.6538,7.9728e-05,0
3.6543,3.508e-05,0
3.6549,-4.5319e-06,0
3.6554,-2.7192e-05,0
3.6559,-3.7095e-05,0
3.6564,-4.8676e-05,0
3.6569,-6.2272e-05,0
3.6575,-7.2175e-05,0
3.658,-8.6107e-05,0
3.6585,-0.00010608,0
3.659,-0.00011347,0
3.6595,-0.00010138,0
3.6601,-7.8386e-05,0
3.6606,-4.8173e-05,0
3.6611,3.0213e-06,0
3.6616,7.3686e-05,0
3.6621,0.00014485,0
3.6627,0.00019487,0
3.6632,0.00019991,0
3.6637,0.00015526,0
3.6642,9.3492e-05,0
3.6647,4.6159e-05,0
3.6652,2.2156e-05,0
3.6658,5.2033e-06,0
3.6663,-1.6617e-05,0
3.6668,-3.6423e-05,0
3.6673,-5.0019e-05,0
3.6678,-5.9586e-05,0
3.6684,-5.9251e-05,0
3.6689,-3.9948e-05,0
3.6694,-6.2104e-06,0
3.6699,3.1388e-05,0
3.6704,6.0594e-05,0
3.671,7.1672e-05,0
3.6715,6.1601e-05,0
3.672,4.1123e-05,0
3.6725,2.417e-05,0
3.673,1.0575e-05,0
3.6736,-1.2924e-05,0
3.6741,-2.501e-05,0
3.6746,-1.1414e-05,0
3.6751,-2.182e-06,0
3.6756,-2.3499e-06,0
3.6762,1.6785e-05,0
3.6767,6.1601e-05,0
3.6772,0.00011464,0
3.6777,0.00014217,0
3.6782,0.00012589,0
3.6787,8.191e-05,0
3.6793,3.6423e-05,0
3.6798,5.539e-06,0
3.6803,-2.0478e-05,0
3.6808,-4.4816e-05,0
3.6813,-4.8005e-05,0
3.6819,-2.1653e-05,0
3.6824,2.2492e-05,0
3.6829,6.6636e-05,0
3.6834,0.00010306,0
3.6839,0.00012639,0
3.6845,0.0001279,0
3.685,0.00010541,0
3.6855,6.1601e-05,0
3.686,2.8534e-06,0
3.6865,-4.683e-05,0
3.6871,-6.3615e-05,0
3.6876,-4.8676e-05,0
3.6881,-1.7624e-05,0
3.6886,4.1962e-06,0
3.6891,8.896e-06,0
3.6897,3.357e-06,0
3.6902,-1.091e-05,0
3.6907,-2.8199e-05,0
3.6912,-3.978e-05,0
3.6917,-4.448e-05,0
3.6923,-3.8437e-05,0
3.6928,-2.1149e-05,0
3.6933,-7.0497e-06,0
3.6938,-4.0284e-06,0
3.6943,-1.5106e-06,0
3.6948,8.2246e-06,0
3.6954,2.5177e-05,0
3.6959,4.1627e-05,0
3.6964,4.213e-05,0
3.6969,2.1988e-05,0
3.6974,-8.5603e-06,0
3.698,-3.8773e-05,0
3.6985,-6.63e-05,0
3.699,-7.9393e-05,0
3.6995,-6.6468e-05,0
3.7,-2.7024e-05,0
3.7006,2.2995e-05,0
3.7011,7.2343e-05,0
3.7016,0.00011699,0
3.7021,0.00013797,0
3.7026,0.00013445,0
3.7032,0.00012555,0
3.7037,0.00011179,0
3.7042,7.9057e-05,0
3.7047,3.5248e-05,0
3.7052,-2.8534e-06,0
3.7058,-2.4338e-05,0
3.7063,-2.7863e-05,0
3.7068,-2.4338e-05,0
3.7073,-1.9303e-05,0
3.7078,-1.6785e-05,0
3.7083,-1.4099e-05,0
3.7089,5.0355e-07,0
3.7094,3.0045e-05,0
3.7099,5.4887e-05,0
3.7104,5.6565e-05,0
3.7109,4.918e-05,0
3.7115,5.4887e-05,0
3.712,6.1601e-05,0
3.7125,5.1698e-05,0
3.713,3.4241e-05,0
3.7135,2.1317e-05,0
3.7141,1.0575e-05,0
3.7146,6.3783e-06,0
3.7151,1.6785e-07,0
3.7156,-1.8463e-05,0
3.7161,-3.827e-05,0
3.7167,-4.0955e-05,0
3.7172,-3.6088e-05,0
3.7177,-4.0787e-05,0
3.7182,-5.3208e-05,0
3.7187,-6.949e-05,0
3.7193,-8.6442e-05,0
3.7198,-0.0001039,0
3.7203,-0.000118,0
3.7208,-0.00012203,0
3.7213,-0.00011279,0
3.7218,-9.5506e-05,0
3.7224,-5.2537e-05,0
3.7229,3.5584e-05,0
3.7234,0.00013948,0
3.7239,0.00020108,0
3.7244,0.00020696,0
3.725,0.00019269,0
3.7255,0.00018833,0
3.726,0.00019454,0
3.7265,0.00019823,0
3.727,0.00019017,0
3.7276,0.00016869,0
3.7281,0.00013613,0
3.7286,0.00011196,0
3.7291,0.00010826,0
3.7296,0.00011028,0
3.7302,0.00011531,0
3.7307,0.00011615,0
3.7312,0.00010642,0
3.7317,9.1478e-05,0
3.7322,7.6875e-05,0
3.7327,6.1601e-05,0
3.7333,4.4984e-05,0
3.7338,2.6688e-05,0
3.7343,4.5319e-06,0
3.7348,-1.9471e-05,0
3.7353,-3.6423e-05,0
3.7359,-4.2802e-05,0
3.7364,-4.213e-05,0
3.7369,-3.9277e-05,0
3.7374,-3.743e-05,0
3.7379,-3.7095e-05,0
3.7385,-3.7095e-05,0
3.739,-3.8773e-05,0
3.7395,-3.978e-05,0
3.74,-4.2634e-05,0
3.7405,-4.8508e-05,0
3.7411,-5.1865e-05,0
3.7416,-5.1194e-05,0
3.7421,-4.7166e-05,0
3.7426,-4.3137e-05,0
3.7431,-3.7263e-05,0
3.7437,-3.122e-05,0
3.7442,-2.9709e-05,0
3.7447,-3.122e-05,0
3.7452,-3.1052e-05,0
3.7457,-3.9109e-05,0
3.7462,-5.3544e-05,0
3.7468,-7.2679e-05,0
3.7473,-9.5506e-05,0
3.7478,-0.00011095,0
3.7483,-0.00011481,0
3.7488,-0.00011447,0
3.7494,-0.00010155,0
3.7499,-5.6565e-05,0
3.7504,1.2421e-05,0
3.7509,8.1239e-05,0
3.7514,0.00013831,0
3.752,0.00019185,0
3.7525,0.00023331,0
3.753,0.00022509,0
3.7535,0.00015341,0
3.754,5.304e-05,0
3.7546,-2.266e-05,0
3.7551,-4.5991e-05,0
3.7556,-3.357e-05,0
3.7561,-3.2227e-05,0
3.7566,-4.5991e-05,0
3.7572,-4.0452e-05,0
3.7577,-7.3854e-06,0
3.7582,4.3977e-05,0
3.7587,9.6345e-05,0
3.7592,0.00011229,0
3.7597,8.0232e-05,0
3.7603,1.9303e-05,0
3.7608,-3.5416e-05,0
3.7613,-7.4022e-05,0
3.7618,-9.7856e-05,0
3.7623,-9.752e-05,0
3.7629,-7.0665e-05,0
3.7634,-2.2156e-05,0
3.7639,3.9277e-05,0
3.7644,0.00010558,0
3.7649,0.00016634,0
3.7655,0.00018447,0
3.766,0.00013898,0
3.7665,8.4092e-05,0
3.767,6.5126e-05,0
3.7675,7.4022e-05,0
3.7681,7.8721e-05,0
3.7686,7.5029e-05,0
3.7691,7.7714e-05,0
3.7696,7.335e-05,0
3.7701,4.8173e-05,0
3.7707,-8.3925e-07,0
3.7712,-8.3757e-05,0
3.7717,-0.00015627,0
3.7722,-0.00017826,0
3.7727,-0.00016735,0
3.7732,-0.00014183,0
3.7738,-0.00010793,0
3.7743,-7.335e-05,0
3.7748,-2.9038e-05,0
3.7753,3.0381e-05,0
3.7758,7.8386e-05,0
3.7764,9.0471e-05,0
3.7769,7.8721e-05,0
3.7774,6.3783e-05,0
3.7779,4.8005e-05,0
3.7784,2.4842e-05,0
3.779,5.2033e-06,0
3.7795,1.2085e-05,0
3.78,3.4241e-05,0
3.7805,4.6494e-05,0
3.781,5.8244e-05,0
3.7816,8.04e-05,0
3.7821,0.00011397,0
3.7826,0.00014821,0
3.7831,0.00015627,0
3.7836,0.00013193,0
3.7842,9.9199e-05,0
3.7847,8.2918e-05,0
3.7852,8.5435e-05,0
3.7857,9.4331e-05,0
3.7862,8.8121e-05,0
3.7868,6.2943e-05,0
3.7873,3.2898e-05,0
3.7878,1.5106e-05,0
3.7883,1.3931e-05,0
3.7888,1.8128e-05,0
3.7893,2.3667e-05,0
3.7899,3.743e-05,0
3.7904,5.4215e-05,0
3.7909,5.6901e-05,0
3.7914,3.6759e-05,0
3.7919,8.3925e-07,0
3.7925,-2.9877e-05,0
3.793,-4.3473e-05,0
3.7935,-4.9012e-05,0
3.794,-5.623e-05,0
3.7945,-6.0594e-05,0
3.7951,-5.8076e-05,0
3.7956,-4.5487e-05,0
3.7961,-2.0478e-05,0
3.7966,4.5319e-06,0
3.7971,2.1149e-05,0
3.7977,2.8702e-05,0
3.7982,2.7863e-05,0
3.7987,3.0045e-05,0
3.7992,4.4144e-05,0
3.7997,6.3279e-05,0
3.8003,7.6371e-05,0
3.8008,7.9393e-05,0
3.8013,7.2679e-05,0
3.8018,6.1601e-05,0
3.8023,4.918e-05,0
3.8028,3.4073e-05,0
3.8034,1.2421e-05,0
3.8039,-1.561e-05,0
3.8044,-5.5894e-05,0
3.8049,-9.987e-05,0
3.8054,-0.00012857,0
3.806,-0.00013931,0
3.8065,-0.00013898,0
3.807,-0.0001279,0
3.8075,-9.6849e-05,0
3.808,-4.3809e-05,0
3.8086,2.2324e-05,0
3.8091,8.3085e-05,0
3.8096,0.00012018,0
3.8101,0.00012169,0
3.8106,9.9031e-05,0
3.8112,8.0735e-05,0
3.8117,7.4693e-05,0
3.8122,7.2175e-05,0
3.8127,7.0665e-05,0
3.8132,7.1672e-05,0
3.8138,7.7714e-05,0
3.8143,8.0735e-05,0
3.8148,6.4622e-05,0
3.8153,3.4913e-05,0
3.8158,4.8676e-06,0
3.8163,-1.9135e-05,0
3.8169,-3.2731e-05,0
3.8174,-3.6759e-05,0
3.8179,-4.062e-05,0
3.8184,-5.0858e-05,0
3.8189,-6.2608e-05,0
3.8195,-5.6062e-05,0
3.82,-1.3764e-05,0
3.8205,4.8173e-05,0
3.821,9.366e-05,0
3.8215,0.0001034,0
3.8221,8.6778e-05,0
3.8226,6.1936e-05,0
3.8231,4.1123e-05,0
3.8236,2.3331e-05,0
3.8241,1.0239e-05,0
3.8247,7.0497e-06,0
3.8252,1.5778e-05,0
3.8257,2.9374e-05,0
3.8262,4.5487e-05,0
3.8267,5.9251e-05,0
3.8272,6.3615e-05,0
3.8278,5.9586e-05,0
3.8283,5.7572e-05,0
3.8288,5.2705e-05,0
3.8293,3.743e-05,0
3.8298,1.2253e-05,0
3.8304,-1.1582e-05,0
3.8309,-2.3667e-05,0
3.8314,-2.6184e-05,0
3.8319,-2.4338e-05,0
3.8324,-1.796e-05,0
3.833,-9.7353e-06,0
3.8335,-6.8818e-06,0
3.834,-9.9031e-06,0
3.8345,-1.0407e-05,0
3.835,-1.6785e-06,0
3.8356,1.4099e-05,0
3.8361,3.3066e-05,0
3.8366,4.6662e-05,0
3.8371,4.2802e-05,0
3.8376,2.2828e-05,0
3.8382,3.6927e-06,0
3.8387,-1.3596e-05,0
3.8392,-2.7359e-05,0
3.8397,-3.2395e-05,0
3.8402,-3.5752e-05,0
3.8407,-4.5151e-05,0
3.8413,-5.5726e-05,0
3.8418,-5.4887e-05,0
3.8423,-3.7766e-05,0
3.8428,-7.7211e-06,0
3.8433,2.0813e-05,0
3.8439,4.2466e-05,0
3.8444,8.0735e-05,0
3.8449,0.00014351,0
3.8454,0.00019084,0
3.8459,0.0001791,0
3.8465,0.00012673,0
3.847,8.3757e-05,0
3.8475,6.7643e-05,0
3.848,6.479e-05,0
3.8485,6.0929e-05,0
3.8491,4.918e-05,0
3.8496,3.0716e-05,0
3.8501,9.5674e-06,0
3.8506,-2.2492e-05,0
3.8511,-6.1265e-05,0
3.8517,-8.3757e-05,0
3.8522,-7.1e-05,0
3.8527,-4.0787e-05,0
3.8532,-3.7766e-05,0
3.8537,-6.8315e-05,0
3.8542,-8.4428e-05,0
3.8548,-6.479e-05,0
3.8553,-2.8702e-05,0
3.8558,9.2317e-06,0
3.8563,4.0955e-05,0
3.8568,6.949e-05,0
3.8574,9.7856e-05,0
3.8579,9.6849e-05,0
3.8584,5.539e-05,0
3.8589,8.5603e-06,0
3.8594,-1.8296e-05,0
3.86,-1.9974e-05,0
3.8605,-6.5461e-06,0
3.861,1.2085e-05,0
3.8615,4.2466e-05,0
3.862,6.1936e-05,0
3.8626,4.9516e-05,0
3.8631,2.1988e-05,0
3.8636,5.539e-06,0
3.8641,2.3499e-06,0
3.8646,6.3783e-06,0
3.8652,1.1246e-05,0
3.8657,1.2589e-05,0
3.8662,1.796e-05,0
3.8667,3.6759e-05,0
3.8672,5.7237e-05,0
3.8678,8.0064e-05,0
3.8683,0.00010558,0
3.8688,0.00011431,0
3.8693,9.2149e-05,0
3.8698,4.4648e-05,0
3.8703,-4.1962e-06,0
3.8709,-3.9612e-05,0
3.8714,-5.539e-05,0
3.8719,-4.8676e-05,0
3.8724,-2.4506e-05,0
3.8729,8.2246e-06,0
3.8735,4.3809e-05,0
3.874,7.5364e-05,0
3.8745,9.6513e-05,0
3.875,0.00010591,0
3.8755,0.00010121,0
3.8761,7.9393e-05,0
3.8766,4.9012e-05,0
3.8771,2.1988e-05,0
3.8776,-6.0426e-06,0
3.8781,-2.6017e-05,0
3.8787,-2.3667e-05,0
3.8792,-1.0742e-05,0
3.8797,2.182e-06,0
3.8802,1.3764e-05,0
3.8807,2.1317e-05,0
3.8813,2.8031e-05,0
3.8818,3.6759e-05,0
3.8823,4.1962e-05,0
3.8828,3.8102e-05,0
3.8833,2.7359e-05,0
3.8838,2.1149e-05,0
3.8844,2.3331e-05,0
3.8849,2.4002e-05,0
3.8854,1.561e-05,0
3.8859,-7.2175e-06,0
3.8864,-4.0452e-05,0
3.887,-7.1839e-05,0
3.8875,-9.0135e-05,0
3.888,-8.9464e-05,0
3.8885,-7.6539e-05,0
3.889,-6.3111e-05,0
3.8896,-5.0523e-05,0
3.8901,-3.0381e-05,0
3.8906,6.714e-06,0
3.8911,4.7669e-05,0
3.8916,7.4022e-05,0
3.8922,9.2988e-05,0
3.8927,0.00011196,0
3.8932,0.00012807,0
3.8937,0.00013663,0
3.8942,0.00013008,0
3.8948,0.00010491,0
3.8953,7.57e-05,0
3.8958,5.8579e-05,0
3.8963,5.2705e-05,0
3.8968,4.448e-05,0
3.8973,2.5345e-05,0
3.8979,1.0071e-06,0
3.8984,-1.0742e-05,0
3.8989,-1.1078e-05,0
3.8994,-1.0742e-05,0
3.8999,-1.3092e-05,0
3.9005,-1.6281e-05,0
3.901,-1.6617e-05,0
3.9015,-3.8605e-06,0
3.902,2.0981e-05,0
3.9025,3.9445e-05,0
3.9031,4.0452e-05,0
3.9036,2.9877e-05,0
3.9041,2.0813e-05,0
3.9046,6.8818e-06,0
3.9051,-1.2421e-05,0
3.9057,-2.1653e-05,0
3.9062,-2.3163e-05,0
3.9067,-2.5681e-05,0
3.9072,-2.8534e-05,0
3.9077,-2.4506e-05,0
3.9082,-6.3783e-06,0
3.9088,2.8367e-05,0
3.9093,6.3615e-05,0
3.9098,7.3182e-05,0
3.9103,5.0858e-05,0
3.9108,1.7121e-05,0
3.9114,-7.2175e-06,0
3.9119,-2.031e-05,0
3.9124,-2.7695e-05,0
3.9129,-2.417e-05,0
3.9134,-1.3428e-05,0
3.914,-1.3931e-05,0
3.9145,-3.4241e-05,0
3.915,-6.9322e-05,0
3.9155,-9.987e-05,0
3.916,-0.00010843,0
3.9166,-0.00010423,0
3.9171,-9.0303e-05,0
3.9176,-5.8412e-05,0
3.9181,-1.3092e-05,0
3.9186,4.0787e-05,0
3.9192,9.3828e-05,0
3.9197,0.00013529,0
3.9202,0.00015207,0
3.9207,0.00013277,0
3.9212,8.51e-05,0
3.9217,3.6088e-05,0
3.9223,1.7288e-05,0
3.9228,4.0116e-05,0
3.9233,7.6539e-05,0
3.9238,9.3324e-05,0
3.9243,8.8457e-05,0
3.9249,9.0806e-05,0
3.9254,0.00012136,0
3.9259,0.00015912,0
3.9264,0.00016869,0
3.9269,0.00013814,0
3.9275,8.3085e-05,0
3.928,3.4409e-05,0
3.9285,-9.2317e-06,0
3.929,-5.623e-05,0
3.9295,-8.1575e-05,0
3.9301,-7.6707e-05,0
3.9306,-6.1433e-05,0
3.9311,-5.3208e-05,0
3.9316,-5.1865e-05,0
3.9321,-3.3066e-05,0
3.9327,1.3931e-05,0
3.9332,7.0665e-05,0
3.9337,0.00012102,0
3.9342,0.00015258,0
3.9347,0.00015862,0
3.9352,0.00015341,0
3.9358,0.00013646,0
3.9363,9.1814e-05,0
3.9368,2.7695e-05,0
3.9373,-3.1724e-05,0
3.9378,-7.4357e-05,0
3.9384,-8.7953e-05,0
3.9389,-7.6707e-05,0
3.9394,-5.623e-05,0
3.9399,-3.7766e-05,0
3.9404,-2.4002e-05,0
3.941,-1.091e-05,0
3.9415,1.6785e-07,0
3.942,-1.5106e-06,0
3.9425,-1.8128e-05,0
3.943,-3.6927e-05,0
3.9436,-5.8076e-05,0
3.9441,-7.8721e-05,0
3.9446,-9.0135e-05,0
3.9451,-8.6778e-05,0
3.9456,-5.304e-05,0
3.9462,6.8818e-06,0
3.9467,5.9586e-05,0
3.9472,8.3421e-05,0
3.9477,9.1142e-05,0
3.9482,0.00010088,0
3.9487,0.00010927,0
3.9493,0.00010306,0
3.9498,7.57e-05,0
3.9503,3.508e-05,0
3.9508,7.0497e-06,0
3.9513,8.3925e-07,0
3.9519,2.6856e-06,0
3.9524,4.5319e-06,0
3.9529,6.2104e-06,0
3.9534,1.8463e-06,0
3.9539,-9.7353e-06,0
3.9545,-2.8031e-05,0
3.955,-5.388e-05,0
3.9555,-7.6875e-05,0
3.956,-8.7282e-05,0
3.9565,-8.7449e-05,0
3.9571,-7.9057e-05,0
3.9576,-5.7069e-05,0
3.9581,-2.3667e-05,0
3.9586,8.2246e-06,0
3.9591,4.4144e-05,0
3.9597,8.3421e-05,0
3.9602,0.00010961,0
3.9607,0.00011733,0
3.9612,0.00011531,0
3.9617,0.00011263,0
3.9623,0.00011028,0
3.9628,0.00011061,0
3.9633,0.00010726,0
3.9638,9.2485e-05,0
3.9643,6.2272e-05,0
3.9648,1.8296e-05,0
3.9654,-2.9038e-05,0
3.9659,-6.3615e-05,0
3.9664,-7.3518e-05,0
3.9669,-7.1504e-05,0
3.9674,-7.805e-05,0
3.968,-9.0303e-05,0
3.9685,-8.51e-05,0
3.969,-4.4816e-05,0
3.9695,1.1246e-05,0
3.97,5.1362e-05,0
3.9706,6.3111e-05,0
3.9711,5.8244e-05,0
3.9716,5.3544e-05,0
3.9721,4.4144e-05,0
3.9726,2.4002e-05,0
3.9732,1.796e-05,0
3.9737,2.1653e-05,0
3.9742,2.1317e-05,0
3.9747,2.3667e-05,0
3.9752,2.7695e-05,0
3.9758,3.2731e-05,0
3.9763,5.2537e-05,0
3.9768,0.0001091,0
3.9773,0.00020058,0
3.9778,0.00028417,0
3.9783,0.00031875,0
3.9789,0.00029055,0
3.9794,0.00021233,0
3.9799,0.0001274,0
3.9804,5.2873e-05,0
3.9809,-2.0981e-05,0
3.9815,-8.3421e-05,0
3.982,-0.00013797,0
3.9825,-0.00019152,0
3.983,-0.00022928,0
3.9835,-0.00022962,0
3.9841,-0.00018296,0
3.9846,-8.7449e-05,0
3.9851,2.887e-05,0
3.9856,0.00010726,0
3.9861,0.00010625,0
3.9867,5.388e-05,0
3.9872,1.5274e-05,0
3.9877,1.0575e-05,0
3.9882,1.1582e-05,0
3.9887,8.2246e-06,0
3.9893,2.3835e-05,0
3.9898,5.9586e-05,0
3.9903,9.0806e-05,0
3.9908,0.00012975,0
3.9913,0.00017826,0
3.9918,0.00019857,0
3.9924,0.00016802,0
3.9929,0.00010323,0
3.9934,3.2059e-05,0
3.9939,-3.0381e-05,0
3.9944,-7.3518e-05,0
3.995,-7.3182e-05,0
3.9955,-2.887e-05,0
3.996,9.0639e-06,0
3.9965,1.0071e-06,0
3.997,-3.8437e-05,0
3.9976,-6.63e-05,0
3.9981,-5.9754e-05,0
3.9986,-3.7934e-05,0
3.9991,-2.3667e-05,0
3.9996,-1.9135e-05,0
4.0002,-1.8296e-05,0
4.0007,-1.6953e-05,0
4.0012,-4.1962e-06,0
4.0017,2.1149e-05,0
4.0022,4.0452e-05,0
4.0027,5.0858e-05,0
4.0033,5.4551e-05,0
4.0038,4.8508e-05,0
4.0043,3.1724e-05,0
4.0048,1.5274e-05,0
4.0053,6.0426e-06,0
4.0059,-2.3499e-06,0
4.0064,-1.4939e-05,0
4.0069,-2.3667e-05,0
4.0074,-2.7024e-05,0
4.0079,-2.4338e-05,0
4.0085,-1.9638e-05,0
4.009,-1.326e-05,0
4.0095,-5.539e-06,0
4.01,-4.5319e-06,0
4.0105,-1.2253e-05,0
4.0111,-2.7192e-05,0
4.0116,-4.6494e-05,0
4.0121,-6.6804e-05,0
4.0126,-8.1239e-05,0
4.0131,-7.7379e-05,0
4.0137,-4.918e-05,0
4.0142,-1.4939e-05,0
4.0147,7.8889e-06,0
4.0152,2.2324e-05,0
4.0157,3.6423e-05,0
4.0163,4.9516e-05,0
4.0168,6.009e-05,0
4.0173,6.4958e-05,0
4.0178,5.8915e-05,0
4.0183,4.2802e-05,0
4.0188,2.0981e-05,0
4.0194,-4.5319e-06,0
4.0199,-3.0381e-05,0
4.0204,-4.9851e-05,0
4.0209,-6.2943e-05,0
4.0214,-8.5771e-05,0
4.022,-0.00013092,0
4.0225,-0.00017742,0
4.023,-0.00018749,0
4.0235,-0.00013848,0
4.024,-4.3137e-05,0
4.0246,7.1168e-05,0
4.0251,0.00018312,0
4.0256,0.00026806,0
4.0261,0.00030666,0
4.0266,0.00031572,0
4.0272,0.00030498,0
4.0277,0.00025765,0
4.0282,0.00017607,0
4.0287,8.7449e-05,0
4.0292,1.2757e-05,0
4.0297,-3.4577e-05,0
4.0303,-6.1265e-05,0
4.0308,-9.7688e-05,0
4.0313,-0.00013982,0
4.0318,-0.00014888,0
4.0323,-9.4163e-05,0
4.0329,6.2104e-06,0
4.0334,0.00011531,0
4.0339,0.00020259,0
4.0344,0.00026621,0
4.0349,0.00031337,0
4.0355,0.00032982,0
4.036,0.0002892,0
4.0365,0.00020024,0
4.037,0.0001091,0
4.0375,4.4648e-05,0
4.0381,8.5603e-06,0
4.0386,-9.9031e-06,0
4.0391,-1.7288e-05,0
4.0396,-2.3163e-05,0
4.0401,-3.0549e-05,0
4.0407,-2.8702e-05,0
4.0412,-1.5274e-05,0
4.0417,-2.8534e-06,0
4.0422,-2.6856e-06,0
4.0427,-1.2421e-05,0
4.0432,-2.1485e-05,0
4.0438,-2.7863e-05,0
4.0443,-4.1962e-05,0
4.0448,-6.2776e-05,0
4.0453,-8.2078e-05,0
4.0458,-0.00010222,0
4.0464,-0.00011968,0
4.0469,-0.00011531,0
4.0474,-8.5435e-05,0
4.0479,-5.0523e-05,0
4.0484,-2.3499e-05,0
4.049,3.5248e-06,0
4.0495,3.743e-05,0
4.05,7.1672e-05,0
4.0505,9.6178e-05,0
4.051,0.00010524,0
4.0516,9.5171e-05,0
4.0521,6.1601e-05,0
4.0526,2.5513e-05,0
4.0531,6.3783e-06,0
4.0536,1.2085e-05,0
4.0542,3.4577e-05,0
4.0547,4.918e-05,0
4.0552,3.7263e-05,0
4.0557,7.5532e-06,0
4.0562,-1.9638e-05,0
4.0568,-4.5487e-05,0
4.0573,-7.5364e-05,0
4.0578,-8.9296e-05,0
4.0583,-7.1504e-05,0
4.0588,-3.8102e-05,0
4.0593,-2.1988e-05,0
4.0599,-3.2059e-05,0
4.0604,-4.0955e-05,0
4.0609,-1.8296e-05,0
4.0614,3.122e-05,0
4.0619,6.2943e-05,0
4.0625,5.6565e-05,0
4.063,2.8031e-05,0
4.0635,-5.7069e-06,0
4.064,-3.2898e-05,0
4.0645,-3.7766e-05,0
4.0651,-1.8799e-05,0
4.0656,5.7069e-06,0
4.0661,2.6688e-05,0
4.0666,4.3473e-05,0
4.0671,5.069e-05,0
4.0677,5.0858e-05,0
4.0682,5.0858e-05,0
4.0687,5.7069e-05,0
4.0692,6.0594e-05,0
4.0697,4.4984e-05,0
4.0702,1.5778e-05,0
4.0708,-1.561e-05,0
4.0713,-4.2634e-05,0
4.0718,-5.623e-05,0
4.0723,-5.4215e-05,0
4.0728,-4.4144e-05,0
4.0734,-2.7863e-05,0
4.0739,-7.5532e-06,0
4.0744,8.2246e-06,0
4.0749,1.7792e-05,0
4.0754,2.8031e-05,0
4.076,3.9277e-05,0
4.0765,5.3544e-05,0
4.077,7.335e-05,0
4.0775,7.8553e-05,0
4.078,5.4047e-05,0
4.0786,1.2589e-05,0
4.0791,-1.9303e-05,0
4.0796,-2.7863e-05,0
4.0801,-1.9638e-05,0
4.0806,-2.5177e-06,0
4.0812,1.5274e-05,0
4.0817,2.5849e-05,0
4.0822,4.1962e-05,0
4.0827,7.3686e-05,0
4.0832,0.00010423,0
4.0838,0.00011733,0
4.0843,0.00011565,0
4.0848,9.2821e-05,0
4.0853,4.3977e-05,0
4.0858,-1.4267e-05,0
4.0863,-5.0187e-05,0
4.0869,-4.7669e-05,0
4.0874,-2.4506e-05,0
4.0879,-9.7353e-06,0
4.0884,-1.1582e-05,0
4.0889,-1.6281e-05,0
4.0895,-1.091e-05,0
4.09,1.1917e-05,0
4.0905,4.6662e-05,0
4.091,7.3014e-05,0
4.0915,7.6875e-05,0
4.0921,6.6636e-05,0
4.0926,6.5629e-05,0
4.0931,7.6371e-05,0
4.0936,8.9799e-05,0
4.0941,0.00010155,0
4.0947,0.00010155,0
4.0952,7.8889e-05,0
4.0957,4.4144e-05,0
4.0962,3.2059e-05,0
4.0967,4.8844e-05,0
4.0972,7.1336e-05,0
4.0978,9.2653e-05,0
4.0983,0.00010625,0
4.0988,9.366e-05,0
4.0993,5.623e-05,0
4.0998,1.326e-05,0
4.1004,-5.0355e-06,0
4.1009,6.8818e-06,0
4.1014,1.5274e-05,0
4.1019,-6.8818e-06,0
4.1024,-3.6927e-05,0
4.103,-4.1794e-05,0
4.1035,-1.9638e-05,0
4.104,1.091e-05,0
4.1045,3.4073e-05,0
4.105,4.1962e-05,0
4.1056,3.5248e-05,0
4.1061,2.8031e-05,0
4.1066,2.5345e-05,0
4.1071,1.4939e-05,0
4.1076,7.0497e-06,0
4.1082,1.6617e-05,0
4.1087,3.6423e-05,0
4.1092,5.3208e-05,0
4.1097,6.2776e-05,0
4.1102,5.7908e-05,0
4.1108,3.978e-05,0
4.1113,1.9303e-05,0
4.1118,2.5177e-06,0
4.1123,-8.3925e-06,0
4.1128,-1.3931e-05,0
4.1133,-1.6785e-05,0
4.1139,-1.7792e-05,0
4.1144,-1.9974e-05,0
4.1149,-2.6184e-05,0
4.1154,-3.0549e-05,0
4.1159,-2.887e-05,0
4.1165,-1.9638e-05,0
4.117,-8.5603e-06,0
4.1175,-1.8463e-06,0
4.118,1.8463e-06,0
4.1185,5.2033e-06,0
4.1191,6.5461e-06,0
4.1196,4.5319e-06,0
4.1201,2.5177e-06,0
4.1206,1.3428e-06,0
4.1211,-2.8534e-06,0
4.1217,-8.5603e-06,0
4.1222,-1.6281e-05,0
4.1227,-1.9471e-05,0
4.1232,-1.5442e-05,0
4.1237,-1.2757e-05,0
4.1242,-1.4939e-05,0
4.1248,-1.3931e-05,0
4.1253,-1.0239e-05,0
4.1258,-5.3712e-06,0
4.1263,2.3499e-06,0
4.1268,1.1246e-05,0
4.1274,1.5274e-05,0
4.1279,1.0239e-05,0
4.1284,3.1891e-06,0
4.1289,2.182e-06,0
4.1294,8.896e-06,0
4.13,2.0645e-05,0
4.1305,2.9374e-05,0
4.131,3.2395e-05,0
4.1315,3.4577e-05,0
4.132,4.1459e-05,0
4.1326,4.9516e-05,0
4.1331,5.0019e-05,0
4.1336,4.2802e-05,0
4.1341,3.122e-05,0
4.1346,2.0142e-05,0
4.1352,1.326e-05,0
4.1357,5.539e-06,0
4.1362,-2.0142e-06,0
4.1367,-3.5248e-06,0
4.1372,-1.5106e-06,0
4.1377,1.0071e-06,0
4.1383,-2.8534e-06,0
4.1388,-1.2253e-05,0
4.1393,-2.8031e-05,0
4.1398,-4.6326e-05,0
4.1403,-5.9586e-05,0
4.1409,-6.0258e-05,0
4.1414,-4.5487e-05,0
4.1419,-1.4099e-05,0
4.1424,2.9374e-05,0
4.1429,7.7714e-05,0
4.1435,0.00011699,0
4.144,0.00013411,0
4.1445,0.00014519,0
4.145,0.00016181,0
4.1455,0.00016013,0
4.1461,0.00012471,0
4.1466,8.275e-05,0
4.1471,6.0761e-05,0
4.1476,5.1865e-05,0
4.1481,4.5151e-05,0
4.1487,3.827e-05,0
4.1492,3.3234e-05,0
