50.39,5.623e-05,0
50.391,4.3809e-05,0
50.391,3.122e-05,0
50.392,2.5345e-05,0
50.392,2.3163e-05,0
50.393,2.1149e-05,0
50.393,1.9471e-05,0
50.394,1.7624e-05,0
50.394,1.5778e-05,0
50.395,2.5849e-05,0
50.395,5.153e-05,0
50.396,6.8818e-05,0
50.397,6.0761e-05,0
50.397,5.6733e-05,0
50.398,7.5029e-05,0
50.398,9.6513e-05,0
50.399,0.00010927,0
50.399,0.00010893,0
50.4,8.2078e-05,0
50.4,3.8773e-05,0
50.401,1.4435e-05,0
50.401,2.182e-05,0
50.402,2.2995e-05,0
50.402,-3.0213e-06,0
50.403,-1.5274e-05,0
50.403,6.5461e-06,0
50.404,3.0045e-05,0
50.404,3.5416e-05,0
50.405,3.508e-05,0
50.405,3.2059e-05,0
50.406,2.501e-05,0
50.406,1.2253e-05,0
50.407,-1.0575e-05,0
50.407,-1.4267e-05,0
50.408,2.1317e-05,0
50.408,6.4286e-05,0
50.409,7.6036e-05,0
50.41,5.2537e-05,0
50.41,1.7792e-05,0
50.411,-7.2175e-06,0
50.411,-1.3092e-05,0
50.412,-5.539e-06,0
50.412,2.8534e-06,0
50.413,4.1962e-06,0
50.413,-4.6998e-06,0
50.414,-7.7211e-06,0
50.414,1.7288e-05,0
50.415,5.8579e-05,0
50.415,7.5364e-05,0
50.416,5.6565e-05,0
50.416,2.1317e-05,0
50.417,1.0071e-06,0
50.417,2.1149e-05,0
50.418,6.0426e-05,0
50.418,8.2078e-05,0
50.419,8.2246e-05,0
50.419,7.3518e-05,0
50.42,6.4958e-05,0
50.42,6.4286e-05,0
50.421,5.4047e-05,0
50.421,1.4939e-05,0
50.422,-3.9445e-05,0
50.422,-6.949e-05,0
50.423,-6.7643e-05,0
50.424,-5.8579e-05,0
50.424,-4.9516e-05,0
50.425,-3.827e-05,0
50.425,-3.8773e-05,0
50.426,-5.4551e-05,0
50.426,-6.4622e-05,0
50.427,-5.6565e-05,0
50.427,-3.9277e-05,0
50.428,-2.2995e-05,0
50.428,-6.5461e-06,0
50.429,1.3092e-05,0
50.429,2.652e-05,0
50.43,2.8367e-05,0
50.43,2.266e-05,0
50.431,1.9303e-05,0
50.431,1.6617e-05,0
50.432,1.1917e-05,0
50.432,3.8605e-06,0
50.433,-3.8605e-06,0
50.433,-8.5603e-06,0
50.434,-1.3764e-05,0
50.434,-2.2324e-05,0
50.435,-2.9374e-05,0
50.435,-2.8367e-05,0
50.436,-1.9638e-05,0
50.437,-5.8747e-06,0
50.437,1.0239e-05,0
50.438,2.7695e-05,0
50.438,4.4984e-05,0
50.439,6.3447e-05,0
50.439,8.51e-05,0
50.44,0.00011112,0
50.44,0.00013042,0
50.441,0.00013008,0
50.441,0.00011162,0
50.442,8.8457e-05,0
50.442,7.4189e-05,0
50.443,6.6133e-05,0
50.443,5.4551e-05,0
50.444,4.0955e-05,0
50.444,2.501e-05,0
50.445,4.8676e-06,0
50.445,-1.2589e-05,0
50.446,-2.9709e-05,0
50.446,-5.0858e-05,0
50.447,-6.7475e-05,0
50.447,-7.805e-05,0
50.448,-8.2918e-05,0
50.448,-7.4189e-05,0
50.449,-4.8844e-05,0
50.45,-2.182e-05,0
50.45,-6.3783e-06,0
50.451,5.0355e-07,0
50.451,1.1246e-05,0
50.452,2.266e-05,0
50.452,2.0645e-05,0
50.453,1.5946e-05,0
50.453,2.3331e-05,0
50.454,3.122e-05,0
50.454,2.9541e-05,0
50.455,2.7024e-05,0
50.455,3.2563e-05,0
50.456,4.0452e-05,0
50.456,4.5151e-05,0
50.457,5.2033e-05,0
50.457,6.8147e-05,0
50.458,8.661e-05,0
50.458,9.752e-05,0
50.459,9.8192e-05,0
50.459,9.2821e-05,0
50.46,8.8289e-05,0
50.46,8.8457e-05,0
50.461,8.7785e-05,0
50.461,6.6972e-05,0
50.462,1.7624e-05,0
50.462,-1.6281e-05,0
50.463,-1.6785e-07,0
50.464,3.8773e-05,0
50.464,7.1672e-05,0
50.465,7.7546e-05,0
50.465,5.153e-05,0
50.466,2.9038e-05,0
50.466,1.9974e-05,0
50.467,8.5603e-06,0
50.467,-1.0071e-06,0
50.468,-1.6785e-07,0
50.468,-2.0142e-06,0
50.469,-8.896e-06,0
50.469,3.357e-07,0
50.47,2.266e-05,0
50.47,3.8605e-05,0
50.471,4.0452e-05,0
50.471,3.6423e-05,0
50.472,3.2059e-05,0
50.472,2.7359e-05,0
50.473,2.4002e-05,0
50.473,2.5681e-05,0
50.474,2.266e-05,0
50.474,7.2175e-06,0
50.475,-4.1962e-06,0
50.475,6.8818e-06,0
50.476,2.5681e-05,0
50.477,3.6423e-05,0
50.477,4.3809e-05,0
50.478,5.2705e-05,0
50.478,6.2943e-05,0
50.479,6.4958e-05,0
50.479,4.2802e-05,0
50.48,1.561e-05,0
50.48,2.4674e-05,0
50.481,5.5558e-05,0
50.481,5.1865e-05,0
50.482,6.3783e-06,0
50.482,-1.8967e-05,0
50.483,5.0355e-06,0
50.483,3.9277e-05,0
50.484,6.0594e-05,0
50.484,7.6371e-05,0
50.485,8.04e-05,0
50.485,5.9922e-05,0
50.486,2.2324e-05,0
50.486,-2.6017e-05,0
50.487,-7.3182e-05,0
50.487,-9.3156e-05,0
50.488,-7.4189e-05,0
50.488,-4.5823e-05,0
50.489,-3.508e-05,0
50.489,-3.1724e-05,0
50.49,-2.031e-05,0
50.491,-8.3925e-06,0
50.491,-3.8605e-06,0
50.492,-3.1891e-06,0
50.492,-1.1749e-06,0
50.493,3.357e-06,0
50.493,8.5603e-06,0
50.494,1.3596e-05,0
50.494,1.796e-05,0
50.495,1.8631e-05,0
50.495,1.4603e-05,0
50.496,9.7353e-06,0
50.496,1.1749e-05,0
50.497,2.0645e-05,0
50.497,2.9374e-05,0
50.498,3.4745e-05,0
50.498,4.0955e-05,0
50.499,4.683e-05,0
50.499,5.1698e-05,0
50.5,5.1698e-05,0
50.5,4.5319e-05,0
50.501,3.4745e-05,0
50.501,2.6017e-05,0
50.502,1.9974e-05,0
50.502,1.4771e-05,0
50.503,1.5274e-05,0
50.504,2.266e-05,0
50.504,2.3331e-05,0
50.505,1.0407e-05,0
50.505,-2.182e-06,0
50.506,-7.3854e-06,0
50.506,-9.7353e-06,0
50.507,-1.2589e-05,0
50.507,-2.1149e-05,0
50.508,-3.1388e-05,0
50.508,-3.6255e-05,0
50.509,-3.3738e-05,0
50.509,-2.1988e-05,0
50.51,-3.1891e-06,0
50.51,1.8296e-05,0
50.511,3.6088e-05,0
50.511,4.2802e-05,0
50.512,4.2802e-05,0
50.512,4.3137e-05,0
50.513,3.9948e-05,0
50.513,2.5681e-05,0
50.514,1.4267e-05,0
50.514,1.8799e-05,0
50.515,2.9374e-05,0
50.515,3.6759e-05,0
50.516,3.9445e-05,0
50.516,3.4409e-05,0
50.517,3.2059e-05,0
50.518,4.6159e-05,0
50.518,6.2776e-05,0
50.519,6.5629e-05,0
50.519,5.3544e-05,0
50.52,3.743e-05,0
50.52,3.0716e-05,0
50.521,3.4073e-05,0
50.521,3.6088e-05,0
50.522,3.1388e-05,0
50.522,2.4002e-05,0
50.523,2.501e-05,0
50.523,3.5416e-05,0
50.524,4.7669e-05,0
50.524,5.3376e-05,0
50.525,4.6998e-05,0
50.525,3.2059e-05,0
50.526,2.1317e-05,0
50.526,1.326e-05,0
50.527,-7.5532e-06,0
50.527,-3.1388e-05,0
50.528,-3.8773e-05,0
50.528,-3.978e-05,0
50.529,-3.743e-05,0
50.529,-1.1078e-05,0
50.53,3.0381e-05,0
50.531,5.4887e-05,0
50.531,5.0187e-05,0
50.532,3.5752e-05,0
50.532,2.9709e-05,0
50.533,2.8702e-05,0
50.533,1.5274e-05,0
50.534,-9.2317e-06,0
50.534,-9.5674e-06,0
50.535,2.1988e-05,0
50.535,5.8244e-05,0
50.536,7.0497e-05,0
50.536,5.7572e-05,0
50.537,3.2563e-05,0
50.537,8.5603e-06,0
50.538,5.8747e-06,0
50.538,1.9638e-05,0
50.539,3.5584e-05,0
50.539,4.3473e-05,0
50.54,3.743e-05,0
50.54,3.1052e-05,0
50.541,3.3906e-05,0
50.541,3.9445e-05,0
50.542,4.9516e-05,0
50.542,6.4958e-05,0
50.543,8.7449e-05,0
50.543,0.00011263,0
50.544,0.00013109,0
50.545,0.00013545,0
50.545,0.00012807,0
50.546,0.00011078,0
50.546,8.896e-05,0
50.547,6.7643e-05,0
50.547,4.1123e-05,0
50.548,3.8605e-06,0
50.548,-2.887e-05,0
50.549,-4.4312e-05,0
50.549,-4.9851e-05,0
50.55,-6.0761e-05,0
50.55,-8.4428e-05,0
50.551,-0.00011061,0
50.551,-0.00012471,0
50.552,-0.00011733,0
50.552,-9.3828e-05,0
50.553,-7.0665e-05,0
50.553,-6.3951e-05,0
50.554,-7.4693e-05,0
50.554,-8.7114e-05,0
50.555,-8.3589e-05,0
50.555,-6.9657e-05,0
50.556,-5.3208e-05,0
50.556,-3.8102e-05,0
50.557,-3.0381e-05,0
50.557,-2.501e-05,0
50.558,-1.7624e-05,0
50.559,-7.2175e-06,0
50.559,4.5319e-06,0
50.56,1.0575e-05,0
50.56,1.326e-05,0
50.561,1.8967e-05,0
50.561,3.0716e-05,0
50.562,4.2802e-05,0
50.562,5.1698e-05,0
50.563,5.539e-05,0
50.563,5.5222e-05,0
50.564,5.6901e-05,0
50.564,6.0594e-05,0
50.565,6.2608e-05,0
50.565,6.479e-05,0
50.566,6.8315e-05,0
50.566,6.865e-05,0
50.567,6.3447e-05,0
50.567,5.6901e-05,0
50.568,5.7572e-05,0
50.568,6.0258e-05,0
50.569,6.2272e-05,0
50.569,6.5629e-05,0
50.57,6.8986e-05,0
50.57,6.9993e-05,0
50.571,6.6972e-05,0
50.572,6.0594e-05,0
50.572,5.304e-05,0
50.573,4.7837e-05,0
50.573,4.5655e-05,0
50.574,4.9516e-05,0
50.574,5.7404e-05,0
50.575,5.7237e-05,0
50.575,5.0187e-05,0
50.576,5.1698e-05,0
50.576,6.0594e-05,0
50.577,5.8915e-05,0
50.577,3.6591e-05,0
50.578,1.4939e-05,0
50.578,5.8747e-06,0
50.579,1.6785e-07,0
50.579,-7.7211e-06,0
50.58,-1.3596e-05,0
50.58,-1.1582e-05,0
50.581,-8.0568e-06,0
50.581,-8.5603e-06,0
50.582,-1.2924e-05,0
50.582,-1.2253e-05,0
50.583,-5.2033e-06,0
50.583,-1.5106e-06,0
50.584,1.1749e-06,0
50.584,5.8747e-06,0
50.585,1.0575e-05,0
50.586,1.326e-05,0
50.586,1.6449e-05,0
50.587,2.5177e-05,0
50.587,3.743e-05,0
50.588,4.5823e-05,0
50.588,5.1362e-05,0
50.589,6.0929e-05,0
50.589,7.1e-05,0
50.59,7.6707e-05,0
50.59,8.8457e-05,0
50.591,9.6178e-05,0
50.591,9.5506e-05,0
50.592,0.00010121,0
50.592,0.00010323,0
50.593,7.7714e-05,0
50.593,2.5177e-05,0
50.594,-2.3499e-05,0
50.594,-4.5151e-05,0
50.595,-5.2369e-05,0
50.595,-6.5797e-05,0
50.596,-7.2007e-05,0
50.596,-6.7308e-05,0
50.597,-6.6636e-05,0
50.597,-6.9322e-05,0
50.598,-6.1433e-05,0
50.599,-3.8605e-05,0
50.599,-1.0239e-05,0
50.6,9.5674e-06,0
50.6,1.6953e-05,0
50.601,1.9471e-05,0
50.601,2.4674e-05,0
50.602,3.2731e-05,0
50.602,4.062e-05,0
50.603,4.1291e-05,0
50.603,3.4577e-05,0
50.604,3.1052e-05,0
50.604,3.4577e-05,0
50.605,3.5416e-05,0
50.605,3.9445e-05,0
50.606,5.2201e-05,0
50.606,6.63e-05,0
50.607,7.6036e-05,0
50.607,8.0903e-05,0
50.608,7.8889e-05,0
50.608,7.0161e-05,0
50.609,6.2272e-05,0
50.609,5.8244e-05,0
50.61,5.5726e-05,0
50.61,5.0187e-05,0
50.611,4.1962e-05,0
50.611,4.0452e-05,0
50.612,5.0187e-05,0
50.613,6.2272e-05,0
50.613,6.5629e-05,0
50.614,5.623e-05,0
50.614,3.7095e-05,0
50.615,1.1917e-05,0
50.615,-1.326e-05,0
50.616,-3.9109e-05,0
50.616,-7.0665e-05,0
50.617,-8.9464e-05,0
50.617,-6.8147e-05,0
50.618,-2.7695e-05,0
50.618,-1.0575e-05,0
50.619,-3.7766e-05,0
50.619,-9.0806e-05,0
50.62,-0.00012085,0
50.62,-9.7856e-05,0
50.621,-4.3809e-05,0
50.621,-8.2246e-06,0
50.622,-2.182e-06,0
50.622,-5.0355e-07,0
50.623,4.8676e-06,0
50.623,5.0355e-06,0
50.624,0,0
50.624,-5.7069e-06,0
50.625,-7.8889e-06,0
50.626,-6.8818e-06,0
50.626,-7.5532e-06,0
50.627,-5.539e-06,0
50.627,4.1962e-06,0
50.628,1.7792e-05,0
50.628,2.9374e-05,0
50.629,3.7095e-05,0
50.629,4.1123e-05,0
50.63,4.4816e-05,0
50.63,4.9516e-05,0
50.631,5.8412e-05,0
50.631,7.1e-05,0
50.632,7.8889e-05,0
50.632,7.805e-05,0
50.633,7.0665e-05,0
50.633,6.1769e-05,0
50.634,5.8244e-05,0
50.634,7.1e-05,0
50.635,8.3085e-05,0
50.635,7.805e-05,0
50.636,7.2679e-05,0
50.636,8.2246e-05,0
50.637,0.00010323,0
50.637,0.00012605,0
50.638,0.0001415,0
50.639,0.00015023,0
50.639,0.00015895,0
50.64,0.00016281,0
50.64,0.00014133,0
50.641,9.4667e-05,0
50.641,3.8773e-05,0
50.642,-2.0981e-05,0
50.642,-8.2246e-05,0
50.643,-0.00012035,0
50.643,-0.00012941,0
50.644,-0.00013814,0
50.644,-0.00014553,0
50.645,-0.0001378,0
50.645,-0.00012068,0
50.646,-9.6849e-05,0
50.646,-6.4958e-05,0
50.647,-2.7359e-05,0
50.647,7.8889e-06,0
50.648,3.122e-05,0
50.648,3.8773e-05,0
50.649,3.7263e-05,0
50.649,3.7095e-05,0
50.65,3.6591e-05,0
50.65,2.3499e-05,0
50.651,3.8605e-06,0
50.651,2.182e-06,0
50.652,2.8031e-05,0
50.653,5.9922e-05,0
50.653,7.2175e-05,0
50.654,6.9657e-05,0
50.654,6.6972e-05,0
50.655,6.4286e-05,0
50.655,5.5222e-05,0
50.656,4.0787e-05,0
50.656,3.0716e-05,0
50.657,2.9374e-05,0
50.657,2.6352e-05,0
50.658,2.3667e-05,0
50.658,3.0716e-05,0
50.659,3.6088e-05,0
50.659,4.2298e-05,0
50.66,5.8579e-05,0
50.66,8.191e-05,0
50.661,9.7017e-05,0
50.661,9.6513e-05,0
50.662,8.2582e-05,0
50.662,6.1601e-05,0
50.663,5.4551e-05,0
50.663,6.1601e-05,0
50.664,6.4622e-05,0
50.664,5.2537e-05,0
50.665,2.3331e-05,0
50.666,1.1749e-06,0
50.666,9.2317e-06,0
50.667,1.0071e-05,0
50.667,-2.8367e-05,0
50.668,-7.4022e-05,0
50.668,-0.00010826,0
50.669,-0.00014922,0
50.669,-0.00019319,0
50.67,-0.00020192,0
50.67,-0.00016651,0
50.671,-0.0001237,0
50.671,-9.2821e-05,0
50.672,-6.5629e-05,0
50.672,-4.2634e-05,0
50.673,-2.501e-05,0
50.673,-7.5532e-06,0
50.674,7.5532e-06,0
50.674,1.5106e-05,0
50.675,1.796e-05,0
50.675,1.9806e-05,0
50.676,1.8631e-05,0
50.676,1.5274e-05,0
50.677,1.9303e-05,0
50.677,2.9038e-05,0
50.678,4.0787e-05,0
50.678,5.6565e-05,0
50.679,7.1672e-05,0
50.68,8.2078e-05,0
50.68,9.0471e-05,0
50.681,9.2988e-05,0
50.681,8.9128e-05,0
50.682,8.8457e-05,0
50.682,9.4163e-05,0
50.683,0.00010088,0
50.683,0.00010591,0
50.684,0.00010457,0
50.684,9.752e-05,0
50.685,9.5171e-05,0
50.685,9.3996e-05,0
50.686,8.426e-05,0
50.686,7.0329e-05,0
50.687,7.0161e-05,0
50.687,7.8386e-05,0
50.688,7.6707e-05,0
50.688,7.2175e-05,0
50.689,7.0329e-05,0
50.689,5.388e-05,0
50.69,3.0045e-05,0
50.69,1.6953e-05,0
50.691,1.6449e-05,0
50.691,9.9031e-06,0
50.692,-1.5106e-05,0
50.693,-4.3809e-05,0
50.693,-5.9419e-05,0
50.694,-6.6636e-05,0
50.694,-6.4622e-05,0
50.695,-3.5752e-05,0
50.695,4.1962e-06,0
50.696,9.5674e-06,0
50.696,-1.3428e-05,0
50.697,-7.3854e-06,0
50.697,3.743e-05,0
50.698,7.2007e-05,0
50.698,6.7475e-05,0
50.699,5.0019e-05,0
50.699,3.4745e-05,0
50.7,1.4603e-05,0
50.7,-3.357e-07,0
50.701,-2.8534e-06,0
50.701,-1.5106e-06,0
50.702,-2.5177e-06,0
50.702,2.5177e-06,0
50.703,1.4939e-05,0
50.703,2.6017e-05,0
50.704,2.9374e-05,0
50.704,2.4674e-05,0
50.705,1.326e-05,0
50.705,-2.182e-06,0
50.706,-1.5106e-06,0
50.707,2.182e-05,0
50.707,4.2802e-05,0
50.708,4.5823e-05,0
50.708,4.1459e-05,0
50.709,4.2802e-05,0
50.709,4.4816e-05,0
50.71,4.2634e-05,0
50.71,3.3234e-05,0
50.711,2.031e-05,0
50.711,1.6281e-05,0
50.712,2.8702e-05,0
50.712,4.8005e-05,0
50.713,6.1769e-05,0
50.713,7.1672e-05,0
50.714,8.2582e-05,0
50.714,8.9128e-05,0
50.715,8.9128e-05,0
50.715,8.04e-05,0
50.716,6.2776e-05,0
50.716,4.1123e-05,0
50.717,2.2324e-05,0
50.717,3.5248e-06,0
50.718,-2.031e-05,0
50.718,-5.2873e-05,0
50.719,-7.8553e-05,0
50.719,-7.1504e-05,0
50.72,-4.4816e-05,0
50.721,-3.1052e-05,0
50.721,-2.9374e-05,0
50.722,-2.9206e-05,0
50.722,-2.7695e-05,0
50.723,-2.4674e-05,0
50.723,-3.1724e-05,0
50.724,-4.683e-05,0
50.724,-4.3305e-05,0
50.725,-1.091e-05,0
50.725,2.3163e-05,0
50.726,3.5416e-05,0
50.726,3.3738e-05,0
50.727,4.0955e-05,0
50.727,6.6804e-05,0
50.728,0.00010021,0
50.728,0.00012337,0
50.729,0.00013848,0
50.729,0.00014871,0
50.73,0.00015492,0
50.73,0.00015811,0
50.731,0.00014553,0
50.731,0.00011833,0
50.732,9.6513e-05,0
50.732,8.7282e-05,0
50.733,7.335e-05,0
50.734,3.8773e-05,0
50.734,-2.8534e-06,0
50.735,-3.9109e-05,0
50.735,-7.7043e-05,0
50.736,-0.00012219,0
50.736,-0.00016986,0
50.737,-0.00020125,0
50.737,-0.00019219,0
50.738,-0.00015241,0
50.738,-0.00012773,0
50.739,-0.00012824,0
50.739,-0.00011565,0
50.74,-7.7714e-05,0
50.74,-3.7095e-05,0
50.741,-9.5674e-06,0
50.741,-4.1962e-06,0
50.742,-1.3596e-05,0
50.742,-2.9038e-05,0
50.743,-6.1265e-05,0
50.743,-8.3757e-05,0
50.744,-5.8076e-05,0
50.744,1.3428e-06,0
50.745,4.7837e-05,0
50.745,6.2272e-05,0
50.746,6.2608e-05,0
50.746,5.623e-05,0
50.747,4.2802e-05,0
50.748,3.6759e-05,0
50.748,4.6159e-05,0
50.749,6.2776e-05,0
50.749,7.8386e-05,0
50.75,8.6778e-05,0
50.75,8.7282e-05,0
50.751,8.3085e-05,0
50.751,7.9728e-05,0
50.752,8.0735e-05,0
50.752,8.3589e-05,0
50.753,8.6442e-05,0
50.753,8.9799e-05,0
50.754,9.0471e-05,0
50.754,8.5267e-05,0
50.755,7.6707e-05,0
50.755,7.0497e-05,0
50.756,7.3518e-05,0
50.756,7.9728e-05,0
50.757,7.5364e-05,0
50.757,6.5965e-05,0
50.758,6.4958e-05,0
50.758,8.2078e-05,0
50.759,0.00011229,0
50.759,0.00013613,0
50.76,0.00014217,0
50.761,0.00012673,0
50.761,9.1981e-05,0
50.762,5.9922e-05,0
50.762,4.5487e-05,0
50.763,2.2995e-05,0
50.763,-3.2059e-05,0
50.764,-9.1814e-05,0
50.764,-0.00010423,0
50.765,-8.2078e-05,0
50.765,-6.6133e-05,0
50.766,-5.1865e-05,0
50.766,-1.561e-05,0
50.767,3.1388e-05,0
50.767,5.5222e-05,0
50.768,5.5726e-05,0
50.768,5.4887e-05,0
50.769,5.4887e-05,0
50.769,4.7501e-05,0
50.77,3.5584e-05,0
50.77,2.7359e-05,0
50.771,1.5106e-05,0
50.771,-3.357e-06,0
50.772,-2.4338e-05,0
50.772,-3.5248e-05,0
50.773,-1.6953e-05,0
50.773,1.1917e-05,0
50.774,1.5778e-05,0
50.775,2.0142e-06,0
50.775,-8.2246e-06,0
50.776,-2.2324e-05,0
50.776,-3.9948e-05,0
50.777,-4.6494e-05,0
50.777,-3.8605e-05,0
50.778,-2.9709e-05,0
50.778,-2.9038e-05,0
50.779,-2.4002e-05,0
50.779,-2.8534e-06,0
50.78,2.3163e-05,0
50.78,4.0116e-05,0
50.781,4.448e-05,0
50.781,3.8605e-05,0
50.782,3.0381e-05,0
50.782,3.0549e-05,0
50.783,3.8941e-05,0
50.783,4.5487e-05,0
50.784,4.0787e-05,0
50.784,2.9374e-05,0
50.785,1.3931e-05,0
50.785,3.357e-07,0
50.786,-2.8534e-06,0
50.786,4.8676e-06,0
50.787,1.5946e-05,0
50.788,1.9806e-05,0
50.788,1.5946e-05,0
50.789,1.9974e-05,0
50.789,2.8031e-05,0
50.79,2.6184e-05,0
50.79,1.3092e-05,0
50.791,2.3499e-06,0
50.791,-1.1749e-06,0
50.792,-1.6785e-07,0
50.792,6.8818e-06,0
50.793,1.5442e-05,0
50.793,1.9974e-05,0
50.794,2.182e-05,0
50.794,2.9374e-05,0
50.795,3.8102e-05,0
50.795,4.2802e-05,0
50.796,5.3208e-05,0
50.796,6.949e-05,0
50.797,8.4596e-05,0
50.797,9.7856e-05,0
50.798,0.00011162,0
50.798,0.00012303,0
50.799,0.00013227,0
50.799,0.00013663,0
50.8,0.00013109,0
50.8,0.00011598,0
50.801,8.5267e-05,0
50.802,4.062e-05,0
50.802,5.539e-06,0
50.803,-7.8889e-06,0
50.803,-2.1653e-05,0
50.804,-4.7333e-05,0
50.804,-7.1168e-05,0
50.805,-8.51e-05,0
50.805,-8.6107e-05,0
50.806,-6.9993e-05,0
50.806,-4.4984e-05,0
50.807,-2.2492e-05,0
50.807,-2.1149e-05,0
50.808,-4.3137e-05,0
50.808,-7.6707e-05,0
50.809,-0.00010675,0
50.809,-0.00011179,0
50.81,-9.5338e-05,0
50.81,-7.0665e-05,0
50.811,-4.4816e-05,0
50.811,-2.3331e-05,0
50.812,-7.7211e-06,0
50.812,-2.182e-06,0
50.813,3.357e-07,0
50.813,5.8747e-06,0
50.814,2.0142e-05,0
50.815,4.2802e-05,0
50.815,5.8244e-05,0
50.816,5.5222e-05,0
50.816,4.8173e-05,0
50.817,5.2537e-05,0
50.817,5.2201e-05,0
50.818,3.0716e-05,0
50.818,8.3925e-06,0
50.819,8.896e-06,0
50.819,2.6184e-05,0
50.82,3.9277e-05,0
50.82,4.918e-05,0
50.821,6.0929e-05,0
50.821,6.6636e-05,0
50.822,6.4286e-05,0
50.822,6.7308e-05,0
50.823,8.661e-05,0
50.823,9.9702e-05,0
50.824,8.2078e-05,0
50.824,5.0858e-05,0
50.825,3.4745e-05,0
50.825,4.4144e-05,0
50.826,6.8482e-05,0
50.826,8.0232e-05,0
50.827,5.7908e-05,0
50.828,2.4338e-05,0
50.828,1.9303e-05,0
50.829,2.9709e-05,0
50.829,2.7192e-05,0
50.83,1.7792e-05,0
50.83,1.8967e-05,0
50.831,2.2324e-05,0
50.831,8.2246e-06,0
50.832,-1.6953e-05,0
50.832,-3.1724e-05,0
50.833,-3.0213e-05,0
50.833,-1.5274e-05,0
50.834,1.2757e-05,0
50.834,3.9445e-05,0
50.835,4.918e-05,0
50.835,4.3977e-05,0
50.836,4.062e-05,0
50.836,4.448e-05,0
50.837,3.9277e-05,0
50.837,2.8031e-05,0
50.838,2.3667e-05,0
50.838,2.7192e-05,0
50.839,3.743e-05,0
50.839,4.8844e-05,0
50.84,4.9851e-05,0
50.84,3.0716e-05,0
50.841,-3.357e-07,0
50.842,-2.031e-05,0
50.842,-1.7288e-05,0
50.843,-8.3925e-07,0
50.843,8.5603e-06,0
50.844,6.3783e-06,0
50.844,9.0639e-06,0
50.845,1.6617e-05,0
50.845,1.8463e-05,0
50.846,1.4603e-05,0
50.846,1.4267e-05,0
50.847,1.8128e-05,0
50.847,1.5946e-05,0
50.848,3.357e-06,0
50.848,-5.539e-06,0
50.849,-3.357e-07,0
50.849,1.0575e-05,0
50.85,1.4939e-05,0
50.85,1.4099e-05,0
50.851,2.0645e-05,0
50.851,3.2059e-05,0
50.852,3.9948e-05,0
50.852,3.7095e-05,0
50.853,2.4674e-05,0
50.853,9.9031e-06,0
50.854,3.357e-06,0
50.855,1.0239e-05,0
50.855,1.5274e-05,0
50.856,1.326e-05,0
50.856,1.7456e-05,0
50.857,1.8296e-05,0
50.857,1.0407e-05,0
50.858,1.2589e-05,0
50.858,3.3402e-05,0
50.859,5.539e-05,0
50.859,5.8579e-05,0
50.86,4.3977e-05,0
50.86,3.6423e-05,0
50.861,5.1865e-05,0
50.861,7.6875e-05,0
50.862,9.6513e-05,0
50.862,9.4835e-05,0
50.863,5.9586e-05,0
50.863,1.4435e-05,0
50.864,-4.5319e-06,0
50.864,3.8605e-06,0
50.865,1.4939e-05,0
50.865,1.7624e-05,0
50.866,2.031e-05,0
50.866,2.6017e-05,0
50.867,3.0045e-05,0
50.867,3.0884e-05,0
50.868,2.8031e-05,0
50.869,2.3163e-05,0
50.869,2.8702e-05,0
50.87,3.6423e-05,0
50.87,1.7624e-05,0
50.871,-2.0478e-05,0
50.871,-2.8367e-05,0
50.872,-1.0742e-05,0
50.872,-2.1317e-05,0
50.873,-5.388e-05,0
50.873,-6.9993e-05,0
50.874,-6.5965e-05,0
50.874,-5.5222e-05,0
50.875,-4.0452e-05,0
50.875,-3.508e-05,0
50.876,-3.9948e-05,0
50.876,-4.0787e-05,0
50.877,-2.9038e-05,0
50.877,-2.8534e-06,0
50.878,1.8967e-05,0
50.878,2.1317e-05,0
50.879,2.1317e-05,0
50.879,4.0284e-05,0
50.88,7.0329e-05,0
50.88,8.6778e-05,0
50.881,9.0135e-05,0
50.882,8.8457e-05,0
50.882,8.04e-05,0
50.883,6.5965e-05,0
50.883,5.2705e-05,0
50.884,3.6088e-05,0
50.884,1.8463e-06,0
50.885,-2.9709e-05,0
50.885,-2.887e-05,0
50.886,-1.2589e-05,0
50.886,-4.3641e-06,0
50.887,-3.0213e-06,0
50.887,1.1749e-06,0
50.888,9.0639e-06,0
50.888,1.5274e-05,0
50.889,1.8631e-05,0
50.889,2.0981e-05,0
50.89,2.8702e-05,0
50.89,4.2802e-05,0
50.891,5.153e-05,0
50.891,5.069e-05,0
50.892,4.4144e-05,0
50.892,4.1627e-05,0
50.893,4.6494e-05,0
50.893,5.1865e-05,0
50.894,4.7837e-05,0
50.894,3.4409e-05,0
50.895,1.9806e-05,0
50.896,1.4939e-05,0
50.896,2.1317e-05,0
50.897,3.6423e-05,0
50.897,5.1698e-05,0
50.898,5.6062e-05,0
50.898,4.7501e-05,0
50.899,3.1891e-05,0
50.899,2.501e-05,0
50.9,3.1388e-05,0
50.9,4.1459e-05,0
50.901,5.0355e-05,0
50.901,5.5222e-05,0
50.902,5.5222e-05,0
50.902,5.7572e-05,0
50.903,6.5629e-05,0
50.903,7.6707e-05,0
50.904,7.6371e-05,0
50.904,6.3615e-05,0
50.905,4.4312e-05,0
50.905,2.887e-05,0
50.906,2.5345e-05,0
50.906,2.9709e-05,0
50.907,3.1388e-05,0
50.907,2.2995e-05,0
50.908,4.5319e-06,0
50.908,-1.0575e-05,0
50.909,-1.6281e-05,0
50.91,-2.5681e-05,0
50.91,-4.683e-05,0
50.911,-6.5461e-05,0
50.911,-6.4286e-05,0
50.912,-4.0787e-05,0
50.912,-1.1078e-05,0
50.913,5.0355e-07,0
50.913,-5.7069e-06,0
50.914,-1.1078e-05,0
50.914,-5.7069e-06,0
50.915,3.5248e-06,0
50.915,6.5461e-06,0
50.916,9.2317e-06,0
50.916,1.561e-05,0
50.917,2.501e-05,0
50.917,4.0116e-05,0
50.918,5.2201e-05,0
50.918,4.918e-05,0
50.919,3.4577e-05,0
50.919,2.4674e-05,0
50.92,1.7624e-05,0
50.92,2.5177e-06,0
50.921,-1.1917e-05,0
50.921,-2.1988e-05,0
50.922,-3.6591e-05,0
50.923,-5.0858e-05,0
50.923,-5.3544e-05,0
50.924,-4.9683e-05,0
50.924,-4.5487e-05,0
50.925,-3.1556e-05,0
50.925,-6.3783e-06,0
50.926,1.7456e-05,0
50.926,3.6759e-05,0
50.927,6.4958e-05,0
50.927,9.6849e-05,0
50.928,0.00011162,0
50.928,0.00010222,0
50.929,8.1407e-05,0
50.929,6.2272e-05,0
50.93,5.0187e-05,0
50.93,3.5752e-05,0
50.931,3.1891e-06,0
50.931,-3.3738e-05,0
50.932,-5.2537e-05,0
50.932,-4.3977e-05,0
50.933,-2.3667e-05,0
50.933,-4.1962e-06,0
50.934,1.3931e-05,0
50.934,3.1388e-05,0
50.935,4.6662e-05,0
50.935,6.0929e-05,0
50.936,7.5532e-05,0
50.937,9.5171e-05,0
50.937,0.0001091,0
50.938,9.5842e-05,0
50.938,6.0258e-05,0
50.939,3.0213e-05,0
50.939,1.6281e-05,0
50.94,1.9638e-05,0
50.94,3.9109e-05,0
50.941,5.7069e-05,0
50.941,4.7501e-05,0
50.942,2.0981e-05,0
50.942,8.7282e-06,0
50.943,1.6617e-05,0
50.943,1.796e-05,0
50.944,-7.2175e-06,0
50.944,-4.8676e-05,0
50.945,-8.2582e-05,0
50.945,-8.9799e-05,0
50.946,-7.7043e-05,0
50.946,-5.7572e-05,0
50.947,-3.2395e-05,0
50.947,-1.4267e-05,0
50.948,-1.0239e-05,0
50.948,-1.0071e-06,0
50.949,3.0716e-05,0
50.95,6.5293e-05,0
50.95,7.0832e-05,0
50.951,5.1194e-05,0
50.951,3.3402e-05,0
50.952,3.1724e-05,0
50.952,3.743e-05,0
50.953,4.1794e-05,0
50.953,4.4312e-05,0
50.954,4.9516e-05,0
50.954,5.9922e-05,0
50.955,7.7546e-05,0
50.955,0.00010256,0
50.956,0.0001227,0
50.956,0.00012169,0
50.957,0.00010541,0
50.957,8.8792e-05,0
50.958,7.2175e-05,0
50.958,4.918e-05,0
50.959,1.2757e-05,0
50.959,-2.9206e-05,0
50.96,-5.7572e-05,0
50.96,-6.2776e-05,0
50.961,-4.2298e-05,0
50.961,5.0355e-07,0
50.962,4.918e-05,0
50.962,7.6204e-05,0
50.963,6.9657e-05,0
50.964,4.2802e-05,0
50.964,1.4435e-05,0
50.965,-1.6785e-06,0
50.965,-2.5177e-06,0
50.966,2.5177e-06,0
50.966,4.3641e-06,0
50.967,1.6785e-07,0
50.967,-3.0213e-06,0
50.968,3.357e-07,0
50.968,-6.0426e-06,0
50.969,-2.7024e-05,0
50.969,-4.3473e-05,0
50.97,-4.3809e-05,0
50.97,-2.8702e-05,0
50.971,-1.1582e-05,0
50.971,-3.8605e-06,0
50.972,2.5177e-06,0
50.972,2.1653e-05,0
50.973,4.6662e-05,0
50.973,5.7908e-05,0
50.974,5.4887e-05,0
50.974,5.0858e-05,0
50.975,5.0858e-05,0
50.975,5.8076e-05,0
50.976,6.865e-05,0
50.977,7.5029e-05,0
50.977,7.5364e-05,0
50.978,7.1672e-05,0
50.978,6.3447e-05,0
50.979,5.8244e-05,0
50.979,6.2776e-05,0
50.98,7.0161e-05,0
50.98,7.3686e-05,0
50.981,7.6371e-05,0
50.981,7.9057e-05,0
50.982,7.5364e-05,0
50.982,6.2943e-05,0
50.983,4.4144e-05,0
50.983,2.4842e-05,0
50.984,5.0355e-06,0
50.984,-2.182e-05,0
50.985,-5.5558e-05,0
50.985,-8.2918e-05,0
50.986,-9.752e-05,0
50.986,-0.00010558,0
50.987,-0.00011347,0
50.987,-0.00012152,0
50.988,-0.00012303,0
50.988,-0.00011598,0
50.989,-0.00010356,0
50.989,-8.6107e-05,0
50.99,-6.7979e-05,0
50.991,-4.6998e-05,0
50.991,-1.7456e-05,0
50.992,8.5603e-06,0
50.992,2.5513e-05,0
50.993,3.7095e-05,0
50.993,4.918e-05,0
50.994,6.2272e-05,0
50.994,7.2175e-05,0
50.995,7.8553e-05,0
50.995,8.1407e-05,0
50.996,8.51e-05,0
50.996,8.4428e-05,0
50.997,6.9993e-05,0
50.997,4.2466e-05,0
50.998,2.031e-05,0
50.998,1.8799e-05,0
50.999,3.6591e-05,0
50.999,5.5558e-05,0
51,5.8579e-05,0
51,4.6159e-05,0
51.001,4.2802e-05,0
51.001,6.3615e-05,0
51.002,9.1814e-05,0
51.002,9.6345e-05,0
51.003,6.3615e-05,0
51.004,2.6184e-05,0
51.004,1.8631e-05,0
51.005,3.9109e-05,0
51.005,4.3305e-05,0
51.006,-8.5603e-06,0
51.006,-6.8315e-05,0
51.007,-7.0665e-05,0
51.007,-3.8437e-05,0
51.008,-1.796e-05,0
51.008,-9.9031e-06,0
51.009,1.6785e-06,0
51.009,1.091e-05,0
51.01,1.0407e-05,0
51.01,6.8818e-06,0
51.011,7.3854e-06,0
51.011,1.326e-05,0
51.012,4.1123e-05,0
51.012,7.9561e-05,0
51.013,8.7617e-05,0
51.013,7.335e-05,0
51.014,6.63e-05,0
51.014,6.1601e-05,0
51.015,5.2201e-05,0
51.015,4.6662e-05,0
51.016,4.5487e-05,0
51.017,4.5151e-05,0
51.017,5.069e-05,0
51.018,5.623e-05,0
51.018,4.9516e-05,0
51.019,3.4073e-05,0
51.019,1.2085e-05,0
51.02,-1.6953e-05,0
51.02,-4.8844e-05,0
51.021,-5.1362e-05,0
51.021,-7.0497e-06,0
51.022,4.0452e-05,0
51.022,5.4551e-05,0
51.023,4.7837e-05,0
51.023,4.2802e-05,0
51.024,4.2298e-05,0
51.024,3.6591e-05,0
51.025,2.7695e-05,0
51.025,2.2324e-05,0
51.026,1.3931e-05,0
51.026,2.8534e-06,0
51.027,-3.357e-07,0
51.027,1.1582e-05,0
51.028,2.5849e-05,0
51.028,3.3066e-05,0
51.029,4.0284e-05,0
51.029,5.0523e-05,0
51.03,5.7069e-05,0
51.031,5.8915e-05,0
51.031,5.7237e-05,0
51.032,4.9348e-05,0
51.032,3.5416e-05,0
51.033,1.7288e-05,0
51.033,-8.3925e-07,0
51.034,-8.896e-06,0
51.034,2.5177e-06,0
51.035,2.8031e-05,0
51.035,3.978e-05,0
51.036,3.6088e-05,0
51.036,3.2059e-05,0
51.037,3.0549e-05,0
51.037,3.122e-05,0
51.038,3.1052e-05,0
51.038,2.2995e-05,0
51.039,6.8818e-06,0
51.039,-4.1962e-06,0
51.04,-1.6785e-06,0
51.04,3.5248e-06,0
51.041,1.1749e-06,0
51.041,-3.5248e-06,0
51.042,-1.0071e-06,0
51.042,8.5603e-06,0
51.043,1.5946e-05,0
51.044,1.091e-05,0
51.044,-5.2033e-06,0
51.045,-2.3667e-05,0
51.045,-3.8102e-05,0
51.046,-4.0284e-05,0
51.046,-2.3667e-05,0
51.047,-5.0355e-06,0
51.047,-7.0497e-06,0
51.048,-2.3835e-05,0
51.048,-3.1891e-05,0
51.049,-2.5681e-05,0
51.049,-1.7624e-05,0
51.05,-1.1917e-05,0
51.05,-3.5248e-06,0
51.051,6.2104e-06,0
51.051,2.1317e-05,0
51.052,4.3305e-05,0
51.052,6.0929e-05,0
51.053,7.2175e-05,0
51.053,7.9728e-05,0
51.054,8.6107e-05,0
51.054,9.3492e-05,0
51.055,9.8527e-05,0
51.055,9.7017e-05,0
51.056,8.275e-05,0
51.056,6.009e-05,0
51.057,3.8102e-05,0
51.058,1.796e-05,0
51.058,-2.8534e-06,0
51.059,-1.1246e-05,0
51.059,3.357e-07,0
51.06,2.1317e-05,0
51.06,4.9683e-05,0
51.061,8.0232e-05,0
51.061,9.4667e-05,0
51.062,7.0832e-05,0
51.062,2.8702e-05,0
51.063,1.2924e-05,0
51.063,2.0813e-05,0
51.064,1.9638e-05,0
51.064,-2.031e-05,0
51.065,-0.00011296,0
51.065,-0.00020461,0
51.066,-0.0002219,0
51.066,-0.00016869,0
51.067,-9.3324e-05,0
51.067,-5.1194e-05,0
51.068,-4.0452e-05,0
51.068,-2.0478e-05,0
51.069,9.0639e-06,0
51.069,2.9374e-05,0
51.07,3.3234e-05,0
51.071,2.3667e-05,0
51.071,1.5106e-05,0
51.072,1.5946e-05,0
51.072,2.2828e-05,0
51.073,2.652e-05,0
51.073,2.9374e-05,0
51.074,3.4073e-05,0
51.074,3.8102e-05,0
51.075,4.1459e-05,0
51.075,4.6662e-05,0
51.076,5.3544e-05,0
51.076,6.1936e-05,0
51.077,6.9657e-05,0
51.077,7.4861e-05,0
51.078,7.5029e-05,0
51.078,6.8315e-05,0
51.079,5.7908e-05,0
51.079,5.4215e-05,0
51.08,6.009e-05,0
51.08,6.4622e-05,0
51.081,5.8244e-05,0
51.081,5.1194e-05,0
51.082,5.623e-05,0
51.082,6.8147e-05,0
51.083,7.1336e-05,0
51.083,6.1601e-05,0
51.084,4.9516e-05,0
51.085,4.448e-05,0
51.085,4.1794e-05,0
51.086,3.6759e-05,0
51.086,3.0716e-05,0
51.087,2.5177e-05,0
51.087,2.4842e-05,0
51.088,3.0549e-05,0
51.088,3.2059e-05,0
51.089,2.652e-05,0
51.089,2.0645e-05,0
51.09,2.501e-05,0
51.09,3.6759e-05,0
51.091,4.0955e-05,0
51.091,3.0549e-05,0
51.092,7.8889e-06,0
51.092,-1.0575e-05,0
51.093,-2.182e-06,0
51.093,2.266e-05,0
51.094,4.1459e-05,0
51.094,4.6326e-05,0
51.095,4.1459e-05,0
51.095,3.357e-05,0
51.096,2.6184e-05,0
51.096,2.0478e-05,0
51.097,1.7624e-05,0
51.097,1.5778e-05,0
51.098,1.3092e-05,0
51.099,8.3925e-06,0
51.099,6.8818e-06,0
51.1,1.561e-05,0
51.1,3.1724e-05,0
51.101,4.2634e-05,0
51.101,4.2802e-05,0
51.102,3.4577e-05,0
51.102,2.417e-05,0
51.103,1.8631e-05,0
51.103,1.9303e-05,0
51.104,2.1988e-05,0
51.104,2.1317e-05,0
51.105,1.5274e-05,0
51.105,7.8889e-06,0
51.106,9.0639e-06,0
51.106,2.6017e-05,0
51.107,4.8508e-05,0
51.107,6.5629e-05,0
51.108,8.191e-05,0
51.108,9.5171e-05,0
51.109,9.9702e-05,0
51.109,9.9199e-05,0
51.11,9.2317e-05,0
51.11,7.3686e-05,0
51.111,5.5222e-05,0
51.112,4.1459e-05,0
51.112,2.6184e-05,0
51.113,6.5461e-06,0
51.113,-1.4267e-05,0
51.114,-4.3137e-05,0
51.114,-8.8457e-05,0
51.115,-0.00013462,0
51.115,-0.00016013,0
51.116,-0.0001655,0
51.116,-0.00016432,0
51.117,-0.00015425,0
51.117,-0.00012689,0
51.118,-8.8457e-05,0
51.118,-5.7908e-05,0
51.119,-4.3137e-05,0
51.119,-3.508e-05,0
51.12,-2.1988e-05,0
51.12,-4.3641e-06,0
51.121,1.2924e-05,0
51.121,2.6688e-05,0
51.122,3.5752e-05,0
51.122,4.683e-05,0
51.123,6.0929e-05,0
51.123,6.6636e-05,0
51.124,6.7979e-05,0
51.124,7.3686e-05,0
51.125,7.4022e-05,0
51.126,6.7979e-05,0
51.126,6.8818e-05,0
51.127,7.2175e-05,0
51.127,7.3686e-05,0
51.128,8.3085e-05,0
51.128,9.8527e-05,0
51.129,9.752e-05,0
51.129,6.5965e-05,0
51.13,2.652e-05,0
51.13,2.2492e-05,0
51.131,4.6159e-05,0
51.131,6.3279e-05,0
51.132,5.4383e-05,0
51.132,2.4674e-05,0
51.133,-1.3764e-05,0
51.133,-4.4816e-05,0
51.134,-4.7333e-05,0
51.134,-2.5513e-05,0
51.135,6.0426e-06,0
51.135,3.5416e-05,0
51.136,5.3544e-05,0
51.136,5.3544e-05,0
51.137,3.8102e-05,0
51.137,2.7527e-05,0
51.138,3.508e-05,0
51.139,4.5823e-05,0
51.139,4.1291e-05,0
51.14,3.0716e-05,0
51.14,3.7934e-05,0
51.141,6.1936e-05,0
51.141,7.8386e-05,0
51.142,6.5293e-05,0
51.142,3.0716e-05,0
51.143,1.091e-05,0
51.143,9.0639e-06,0
51.144,1.0239e-05,0
51.144,1.7624e-05,0
51.145,2.5345e-05,0
51.145,1.8631e-05,0
51.146,5.0355e-06,0
51.146,6.5461e-06,0
51.147,1.8631e-05,0
51.147,1.0239e-05,0
51.148,-2.5849e-05,0
51.148,-6.1097e-05,0
51.149,-6.5965e-05,0
51.149,-5.9251e-05,0
51.15,-5.1194e-05,0
51.15,-2.031e-05,0
51.151,1.7288e-05,0
51.151,2.2324e-05,0
51.152,6.3783e-06,0
51.153,6.3783e-06,0
51.153,2.3163e-05,0
51.154,3.6088e-05,0
51.154,3.6591e-05,0
51.155,2.8031e-05,0
51.155,2.1988e-05,0
51.156,2.266e-05,0
51.156,2.8367e-05,0
51.157,3.2898e-05,0
51.157,3.3402e-05,0
51.158,3.3402e-05,0
51.158,3.7766e-05,0
51.159,4.8844e-05,0
51.159,5.5558e-05,0
51.16,4.9348e-05,0
51.16,3.6088e-05,0
51.161,3.1556e-05,0
51.161,3.827e-05,0
51.162,5.0355e-05,0
51.162,5.8915e-05,0
51.163,5.6901e-05,0
51.163,4.5487e-05,0
51.164,3.9445e-05,0
51.164,4.448e-05,0
51.165,5.4047e-05,0
51.166,6.0761e-05,0
51.166,6.0594e-05,0
51.167,5.6565e-05,0
51.167,5.0523e-05,0
51.168,4.9516e-05,0
51.168,5.623e-05,0
51.169,5.8579e-05,0
51.169,4.683e-05,0
51.17,4.3137e-05,0
51.17,6.3951e-05,0
51.171,9.5506e-05,0
51.171,0.000118,0
51.172,0.00012136,0
51.172,0.00010658,0
51.173,7.8721e-05,0
51.173,5.0187e-05,0
51.174,3.3738e-05,0
51.174,2.7359e-05,0
51.175,1.6953e-05,0
51.175,-9.2317e-06,0
51.176,-5.5558e-05,0
51.176,-0.00010474,0
51.177,-0.0001373,0
51.177,-0.00016046,0
51.178,-0.0001801,0
51.178,-0.00018749,0
51.179,-0.00018547,0
51.18,-0.0001791,0
51.18,-0.00016063,0
51.181,-0.00012538,0
51.181,-7.805e-05,0
51.182,-3.3402e-05,0
51.182,-1.3428e-06,0
51.183,1.7288e-05,0
51.183,2.9374e-05,0
51.184,3.8941e-05,0
51.184,4.4816e-05,0
51.185,4.9516e-05,0
51.185,5.5894e-05,0
51.186,6.4958e-05,0
51.186,7.5364e-05,0
51.187,8.7449e-05,0
51.187,0.00010054,0
51.188,0.00010893,0
51.188,0.00010927,0
51.189,0.00010021,0
51.189,8.191e-05,0
51.19,6.5629e-05,0
51.19,5.623e-05,0
51.191,4.7837e-05,0
51.191,3.8102e-05,0
51.192,3.2059e-05,0
51.193,2.652e-05,0
51.193,1.8631e-05,0
51.194,7.8889e-06,0
51.194,-6.8818e-06,0
51.195,-1.7288e-05,0
51.195,-1.326e-05,0
51.196,-5.7069e-06,0
51.196,-7.5532e-06,0
51.197,-8.3925e-07,0
51.197,2.5681e-05,0
51.198,5.304e-05,0
51.198,6.1265e-05,0
51.199,5.3544e-05,0
51.199,4.4816e-05,0
51.2,4.1459e-05,0
51.2,4.3305e-05,0
51.201,4.8005e-05,0
51.201,4.5487e-05,0
51.202,4.1459e-05,0
51.202,4.4816e-05,0
51.203,4.8173e-05,0
51.203,5.2705e-05,0
51.204,6.5461e-05,0
51.204,7.0665e-05,0
51.205,6.0929e-05,0
51.206,4.2802e-05,0
51.206,3.508e-05,0
51.207,5.5894e-05,0
51.207,9.0639e-05,0
51.208,9.7185e-05,0
51.208,6.9657e-05,0
51.209,4.6494e-05,0
51.209,3.1724e-05,0
51.21,-1.2253e-05,0
51.21,-6.8818e-05,0
51.211,-8.2078e-05,0
51.211,-4.7501e-05,0
51.212,-9.3996e-06,0
51.212,-7.2175e-06,0
51.213,-3.4577e-05,0
51.213,-4.0787e-05,0
51.214,-3.1891e-06,0
51.214,3.3402e-05,0
51.215,3.3906e-05,0
51.215,1.1246e-05,0
51.216,-4.8676e-06,0
51.216,7.5532e-06,0
51.217,3.9277e-05,0
51.217,6.4286e-05,0
51.218,7.2343e-05,0
51.218,6.1601e-05,0
51.219,3.827e-05,0
51.22,1.091e-05,0
51.22,-1.1917e-05,0
51.221,-1.7121e-05,0
51.221,8.3925e-07,0
51.222,2.4002e-05,0
51.222,2.8199e-05,0
51.223,9.2317e-06,0
51.223,-2.4338e-05,0
51.224,-3.2731e-05,0
51.224,1.1749e-06,0
51.225,3.5584e-05,0
51.225,4.7166e-05,0
51.226,5.2873e-05,0
51.226,5.6565e-05,0
51.227,5.1026e-05,0
51.227,3.7095e-05,0
51.228,2.1317e-05,0
51.228,1.326e-05,0
51.229,1.9638e-05,0
51.229,3.5416e-05,0
51.23,4.6494e-05,0
51.23,4.2298e-05,0
51.231,2.8367e-05,0
51.231,2.4674e-05,0
51.232,3.2059e-05,0
51.233,3.4745e-05,0
51.233,2.9374e-05,0
51.234,1.6449e-05,0
51.234,-6.0426e-06,0
51.235,-2.0813e-05,0
51.235,-1.4435e-05,0
51.236,-5.2033e-06,0
51.236,-1.1078e-05,0
51.237,-2.2156e-05,0
51.237,-2.501e-05,0
51.238,-2.4674e-05,0
51.238,-2.6184e-05,0
51.239,-3.9109e-05,0
51.239,-5.5222e-05,0
51.24,-4.9348e-05,0
51.24,-2.7024e-05,0
51.241,-1.7792e-05,0
51.241,-2.4842e-05,0
51.242,-2.7359e-05,0
51.242,-1.5274e-05,0
51.243,5.0355e-07,0
51.243,1.4099e-05,0
51.244,2.4002e-05,0
51.244,2.9374e-05,0
51.245,3.0549e-05,0
51.245,3.3402e-05,0
51.246,4.5823e-05,0
51.247,6.0929e-05,0
51.247,6.9322e-05,0
51.248,6.7308e-05,0
51.248,5.7237e-05,0
51.249,4.7669e-05,0
51.249,4.5319e-05,0
51.25,4.7837e-05,0
51.25,5.8244e-05,0
51.251,6.8147e-05,0
51.251,6.1433e-05,0
51.252,4.8005e-05,0
51.252,4.7837e-05,0
51.253,5.4215e-05,0
51.253,4.7669e-05,0
51.254,3.122e-05,0
51.254,2.7359e-05,0
51.255,4.1794e-05,0
51.255,5.6901e-05,0
51.256,4.8844e-05,0
51.256,1.9135e-05,0
51.257,6.3783e-06,0
51.257,2.8702e-05,0
51.258,5.6565e-05,0
51.258,6.2943e-05,0
51.259,4.1962e-05,0
51.26,6.714e-06,0
51.26,-2.1988e-05,0
51.261,-4.1794e-05,0
51.261,-4.7837e-05,0
51.262,-3.3234e-05,0
51.262,-8.3925e-06,0
51.263,4.1962e-06,0
51.263,-1.1749e-06,0
51.264,-3.8605e-06,0
51.264,7.2175e-06,0
51.265,2.5345e-05,0
51.265,3.7095e-05,0
51.266,3.3738e-05,0
51.266,1.9806e-05,0
51.267,9.9031e-06,0
51.267,1.6449e-05,0
51.268,3.0381e-05,0
51.268,3.4073e-05,0
51.269,1.9638e-05,0
51.269,-3.1891e-06,0
51.27,-1.1414e-05,0
51.27,2.3499e-06,0
51.271,1.796e-05,0
51.271,2.9206e-05,0
51.272,4.2802e-05,0
51.272,5.2201e-05,0
51.273,5.5558e-05,0
51.274,6.1601e-05,0
51.274,6.8986e-05,0
51.275,6.009e-05,0
51.275,4.213e-05,0
51.276,3.8437e-05,0
51.276,4.9683e-05,0
51.277,6.4622e-05,0
51.277,8.1407e-05,0
51.278,0.00010188,0
51.278,0.00011716,0
51.279,0.00011464,0
51.279,9.4163e-05,0
51.28,6.5293e-05,0
51.28,3.9109e-05,0
51.281,2.5513e-05,0
51.281,2.266e-05,0
51.282,1.0575e-05,0
51.282,-1.2924e-05,0
51.283,-3.4409e-05,0
51.283,-4.7837e-05,0
51.284,-5.2873e-05,0
51.284,-4.8341e-05,0
51.285,-3.7095e-05,0
51.285,-2.4338e-05,0
51.286,-1.5778e-05,0
51.286,-2.0981e-05,0
51.287,-3.9109e-05,0
51.288,-5.4215e-05,0
51.288,-5.4551e-05,0
51.289,-4.4144e-05,0
51.289,-3.122e-05,0
51.29,-2.5849e-05,0
51.29,-2.8367e-05,0
51.291,-2.1988e-05,0
51.291,-5.0355e-07,0
51.292,2.266e-05,0
51.292,4.0787e-05,0
51.293,4.8508e-05,0
51.293,5.069e-05,0
51.294,6.3279e-05,0
51.294,8.0903e-05,0
51.295,8.1743e-05,0
51.295,5.9922e-05,0
51.296,2.7359e-05,0
51.296,9.3996e-06,0
51.297,1.3596e-05,0
51.297,1.3764e-05,0
51.298,7.5532e-06,0
51.298,9.0639e-06,0
51.299,1.6953e-05,0
51.299,1.5946e-05,0
51.3,8.3925e-07,0
51.301,-9.0639e-06,0
51.301,-1.561e-05,0
51.302,-2.9541e-05,0
51.302,-4.9516e-05,0
51.303,-6.7308e-05,0
51.303,-7.5029e-05,0
51.304,-7.2007e-05,0
51.304,-5.5558e-05,0
51.305,-2.7024e-05,0
51.305,2.6856e-06,0
51.306,2.1317e-05,0
51.306,3.0716e-05,0
51.307,3.508e-05,0
51.307,4.1962e-05,0
51.308,5.153e-05,0
51.308,5.0187e-05,0
51.309,3.1388e-05,0
51.309,1.4939e-05,0
51.31,2.7024e-05,0
51.31,5.6901e-05,0
51.311,7.57e-05,0
51.311,7.5029e-05,0
51.312,7.2343e-05,0
51.312,7.2847e-05,0
51.313,7.3014e-05,0
51.313,7.6036e-05,0
51.314,8.1407e-05,0
51.315,8.661e-05,0
51.315,9.6345e-05,0
51.316,0.00010692,0
51.316,0.00011196,0
51.317,0.0001133,0
51.317,0.00010457,0
51.318,7.4693e-05,0
51.318,3.4745e-05,0
51.319,5.8747e-06,0
51.319,-1.5106e-06,0
51.32,5.539e-06,0
51.32,1.1917e-05,0
51.321,4.5319e-06,0
51.321,-8.5603e-06,0
51.322,-6.2104e-06,0
51.322,-9.5674e-06,0
51.323,-3.3234e-05,0
51.323,-4.7501e-05,0
51.324,-3.0716e-05,0
51.324,-1.6785e-07,0
51.325,1.9974e-05,0
51.325,2.6688e-05,0
51.326,2.3163e-05,0
51.326,1.326e-05,0
51.327,1.5106e-06,0
51.328,-1.1078e-05,0
51.328,-2.501e-05,0
51.329,-3.4409e-05,0
51.329,-3.4409e-05,0
51.33,-1.8631e-05,0
51.33,3.357e-06,0
51.331,1.5946e-05,0
51.331,1.9638e-05,0
51.332,1.7624e-05,0
51.332,1.6785e-05,0
51.333,2.501e-05,0
51.333,3.9109e-05,0
51.334,4.448e-05,0
51.334,4.1794e-05,0
51.335,3.9948e-05,0
51.335,4.683e-05,0
51.336,5.8915e-05,0
51.336,7.1e-05,0
51.337,8.04e-05,0
51.337,8.3757e-05,0
51.338,6.9993e-05,0
51.338,4.3641e-05,0
51.339,2.7359e-05,0
51.339,2.3163e-05,0
51.34,1.7792e-05,0
51.34,2.8534e-06,0
51.341,-1.0239e-05,0
51.342,-1.1749e-06,0
51.342,2.6688e-05,0
51.343,4.7501e-05,0
51.343,5.153e-05,0
51.344,4.3305e-05,0
51.344,3.0884e-05,0
51.345,1.8296e-05,0
51.345,4.3641e-06,0
51.346,-1.5106e-05,0
51.346,-4.1794e-05,0
51.347,-5.7908e-05,0
51.347,-5.388e-05,0
51.348,-4.8676e-05,0
51.348,-4.3137e-05,0
51.349,-2.4002e-05,0
51.349,-2.182e-06,0
51.35,1.326e-05,0
51.35,2.4002e-05,0
51.351,3.2395e-05,0
51.351,3.4409e-05,0
51.352,2.4842e-05,0
51.352,7.2175e-06,0
51.353,-8.2246e-06,0
51.353,-1.6785e-05,0
51.354,-1.091e-05,0
51.355,2.4002e-05,0
51.355,6.7308e-05,0
51.356,8.7449e-05,0
51.356,8.1407e-05,0
51.357,6.4622e-05,0
51.357,5.7572e-05,0
51.358,6.8315e-05,0
51.358,9.3828e-05,0
51.359,9.7856e-05,0
51.359,6.6636e-05,0
51.36,4.0116e-05,0
51.36,3.7263e-05,0
51.361,4.1291e-05,0
51.361,4.2466e-05,0
51.362,4.1291e-05,0
51.362,3.1724e-05,0
51.363,1.3931e-05,0
51.363,-8.2246e-06,0
51.364,-2.5681e-05,0
51.364,-2.2995e-05,0
51.365,-7.8889e-06,0
51.365,-6.2104e-06,0
51.366,-2.5681e-05,0
51.366,-4.2298e-05,0
51.367,-3.508e-05,0
51.367,-1.8967e-05,0
51.368,-1.1582e-05,0
51.369,-1.4267e-05,0
51.369,-2.8367e-05,0
51.37,-4.0452e-05,0
51.37,-3.0381e-05,0
51.371,-4.1962e-06,0
51.371,1.6785e-05,0
51.372,2.3163e-05,0
51.372,3.2059e-05,0
51.373,5.1865e-05,0
51.373,6.7475e-05,0
51.374,7.3518e-05,0
51.374,7.4357e-05,0
51.375,7.6707e-05,0
51.375,8.2246e-05,0
51.376,8.8121e-05,0
51.376,9.0471e-05,0
51.377,8.4932e-05,0
51.377,6.9993e-05,0
51.378,5.0187e-05,0
51.378,2.4002e-05,0
51.379,-8.896e-06,0
51.379,-3.5416e-05,0
51.38,-4.448e-05,0
51.38,-4.1123e-05,0
51.381,-3.7095e-05,0
51.382,-4.213e-05,0
51.382,-6.0761e-05,0
51.383,-7.6036e-05,0
51.383,-5.4215e-05,0
51.384,-6.5461e-06,0
51.384,1.4939e-05,0
51.385,-5.8747e-06,0
51.385,-1.3764e-05,0
51.386,1.1749e-05,0
51.386,3.0381e-05,0
51.387,1.9638e-05,0
51.387,7.2175e-06,0
51.388,2.3331e-05,0
51.388,4.7501e-05,0
51.389,4.6326e-05,0
51.389,3.4073e-05,0
51.39,2.8199e-05,0
51.39,2.182e-05,0
51.391,1.1246e-05,0
51.391,9.2317e-06,0
51.392,1.8631e-05,0
51.392,2.8702e-05,0
51.393,4.0284e-05,0
51.393,5.4551e-05,0
51.394,6.8986e-05,0
51.395,7.6707e-05,0
51.395,7.335e-05,0
51.396,6.5293e-05,0
51.396,5.7404e-05,0
51.397,4.683e-05,0
51.397,2.9038e-05,0
51.398,4.8676e-06,0
51.398,-1.5778e-05,0
51.399,-2.0981e-05,0
51.399,-2.8534e-06,0
51.4,2.266e-05,0
51.4,1.5442e-05,0
51.401,-3.5752e-05,0
51.401,-7.0497e-05,0
51.402,-4.1627e-05,0
51.402,2.0981e-05,0
51.403,6.3951e-05,0
51.403,7.2679e-05,0
51.404,5.623e-05,0
51.404,3.2059e-05,0
51.405,2.1149e-05,0
51.405,2.4674e-05,0
51.406,2.501e-05,0
51.406,1.1078e-05,0
51.407,8.3925e-07,0
51.407,1.5442e-05,0
51.408,4.7837e-05,0
51.409,6.6636e-05,0
51.409,5.6901e-05,0
51.41,4.3137e-05,0
51.41,4.4816e-05,0
51.411,5.2201e-05,0
51.411,4.8676e-05,0
51.412,3.8102e-05,0
51.412,3.5416e-05,0
51.413,4.1794e-05,0
51.413,4.5823e-05,0
51.414,4.2802e-05,0
51.414,3.2731e-05,0
51.415,1.8463e-05,0
51.415,1.1078e-05,0
51.416,1.1246e-05,0
51.416,1.5946e-05,0
51.417,2.6688e-05,0
51.417,3.7934e-05,0
51.418,3.827e-05,0
51.418,3.2395e-05,0
51.419,2.6688e-05,0
51.419,2.2492e-05,0
51.42,2.4674e-05,0
51.42,3.2059e-05,0
51.421,3.978e-05,0
51.422,4.5151e-05,0
51.422,5.0019e-05,0
51.423,5.153e-05,0
51.423,5.0858e-05,0
51.424,4.9348e-05,0
51.424,4.6326e-05,0
51.425,4.1459e-05,0
51.425,3.4409e-05,0
51.426,2.5681e-05,0
51.426,1.6617e-05,0
51.427,4.8676e-06,0
51.427,-8.2246e-06,0
51.428,-1.7792e-05,0
51.428,-2.4338e-05,0
51.429,-2.7192e-05,0
51.429,-2.3331e-05,0
51.43,-1.6449e-05,0
51.43,-9.5674e-06,0
51.431,-1.8463e-06,0
51.431,6.714e-06,0
51.432,1.1582e-05,0
51.432,1.4603e-05,0
51.433,2.0645e-05,0
51.433,2.7359e-05,0
51.434,3.1724e-05,0
51.434,3.2395e-05,0
51.435,2.9206e-05,0
51.436,3.1891e-05,0
51.436,4.3809e-05,0
51.437,5.3544e-05,0
51.437,4.8173e-05,0
51.438,3.2059e-05,0
51.438,1.1078e-05,0
51.439,-1.3764e-05,0
51.439,-3.4913e-05,0
51.44,-5.388e-05,0
51.44,-8.1575e-05,0
51.441,-0.00010021,0
51.441,-8.7114e-05,0
51.442,-5.3376e-05,0
51.442,-2.9709e-05,0
51.443,-2.8367e-05,0
51.443,-3.1724e-05,0
51.444,-2.0478e-05,0
51.444,-2.182e-06,0
51.445,1.0239e-05,0
51.445,1.561e-05,0
51.446,1.9974e-05,0
51.446,2.3163e-05,0
51.447,2.4002e-05,0
51.447,2.2492e-05,0
51.448,1.796e-05,0
51.449,1.8463e-05,0
51.449,3.1891e-05,0
51.45,5.2537e-05,0
51.45,6.6636e-05,0
51.451,7.1e-05,0
51.451,7.4357e-05,0
51.452,7.805e-05,0
51.452,7.9393e-05,0
51.453,7.4022e-05,0
51.453,6.0929e-05,0
51.454,4.683e-05,0
51.454,3.6927e-05,0
51.455,2.887e-05,0
51.455,2.5513e-05,0
51.456,3.3738e-05,0
51.456,4.3473e-05,0
51.457,4.5487e-05,0
51.457,4.8508e-05,0
51.458,6.4286e-05,0
51.458,8.6946e-05,0
51.459,9.0974e-05,0
51.459,6.2272e-05,0
51.46,1.796e-05,0
51.46,-9.9031e-06,0
51.461,-1.3596e-05,0
51.461,-2.9709e-05,0
51.462,-5.8412e-05,0
51.463,-5.4047e-05,0
51.463,-1.7456e-05,0
51.464,2.031e-05,0
51.464,4.213e-05,0
51.465,4.918e-05,0
51.465,4.7837e-05,0
51.466,3.8102e-05,0
51.466,2.1317e-05,0
51.467,1.326e-05,0
51.467,1.1414e-05,0
51.468,1.3931e-05,0
51.468,3.0381e-05,0
51.469,4.918e-05,0
51.469,5.153e-05,0
51.47,3.6088e-05,0
51.47,1.9638e-05,0
51.471,9.9031e-06,0
51.471,8.2246e-06,0
51.472,8.3925e-06,0
51.472,7.8889e-06,0
51.473,7.2175e-06,0
51.473,1.1582e-05,0
51.474,1.8967e-05,0
51.474,2.1149e-05,0
51.475,1.1917e-05,0
51.475,-9.7353e-06,0
51.476,-2.9374e-05,0
51.477,-4.0452e-05,0
51.477,-3.1724e-05,0
51.478,3.357e-07,0
51.478,3.8437e-05,0
51.479,6.0929e-05,0
51.479,6.1601e-05,0
51.48,5.153e-05,0
51.48,4.1794e-05,0
51.481,3.1388e-05,0
51.481,2.0645e-05,0
51.482,1.9135e-05,0
51.482,3.4577e-05,0
51.483,5.4887e-05,0
51.483,6.6972e-05,0
51.484,7.6036e-05,0
51.484,8.3253e-05,0
51.485,8.2414e-05,0
51.485,7.2679e-05,0
51.486,6.1097e-05,0
51.486,5.6062e-05,0
51.487,4.9516e-05,0
51.487,4.2634e-05,0
51.488,4.2466e-05,0
51.488,4.3809e-05,0
51.489,3.7934e-05,0
51.49,2.4506e-05,0
51.49,1.5778e-05,0
51.491,2.0645e-05,0
51.491,3.122e-05,0
51.492,3.2059e-05,0
51.492,1.9974e-05,0
51.493,7.0497e-06,0
51.493,5.7069e-06,0
51.494,1.0239e-05,0
51.494,1.1749e-06,0
51.495,-2.2492e-05,0
51.495,-4.7333e-05,0
51.496,-7.1504e-05,0
51.496,-9.0806e-05,0
51.497,-9.5506e-05,0
51.497,-7.57e-05,0
51.498,-4.9851e-05,0
51.498,-4.1794e-05,0
51.499,-4.7166e-05,0
51.499,-4.683e-05,0
51.5,-3.3738e-05,0
51.5,-9.5674e-06,0
51.501,1.6617e-05,0
51.501,3.1388e-05,0
51.502,3.2059e-05,0
51.502,2.5177e-05,0
51.503,2.0645e-05,0
51.504,2.2492e-05,0
51.504,2.6352e-05,0
51.505,2.5345e-05,0
51.505,1.6449e-05,0
51.506,3.8605e-06,0
51.506,-8.2246e-06,0
51.507,-1.6281e-05,0
51.507,-1.4267e-05,0
51.508,-8.2246e-06,0
51.508,-6.8818e-06,0
51.509,-8.5603e-06,0
51.509,-6.2104e-06,0
51.51,1.1749e-06,0
51.51,1.1917e-05,0
51.511,2.6352e-05,0
51.511,4.3473e-05,0
51.512,5.7572e-05,0
51.512,5.9922e-05,0
51.513,5.3376e-05,0
51.513,4.8173e-05,0
51.514,5.069e-05,0
51.514,5.623e-05,0
51.515,6.0594e-05,0
51.515,6.0761e-05,0
51.516,5.1194e-05,0
51.517,3.7095e-05,0
51.517,3.3066e-05,0
51.518,3.8102e-05,0
51.518,4.5823e-05,0
51.519,5.1865e-05,0
51.519,5.0858e-05,0
51.52,4.4816e-05,0
51.52,3.743e-05,0
51.521,3.4745e-05,0
51.521,3.4073e-05,0
51.522,2.7192e-05,0
51.522,1.5106e-05,0
51.523,1.1917e-05,0
51.523,1.6449e-05,0
51.524,1.6785e-05,0
51.524,1.0071e-05,0
51.525,1.091e-05,0
51.525,2.2156e-05,0
51.526,3.7095e-05,0
51.526,4.7837e-05,0
51.527,4.8173e-05,0
51.527,4.5151e-05,0
51.528,4.6159e-05,0
51.528,5.153e-05,0
51.529,6.0258e-05,0
51.529,7.0329e-05,0
51.53,6.9322e-05,0
51.531,5.0019e-05,0
51.531,3.0716e-05,0
51.532,2.9038e-05,0
51.532,5.1362e-05,0
51.533,8.4932e-05,0
51.533,9.3492e-05,0
51.534,7.0329e-05,0
51.534,4.3305e-05,0
51.535,3.1724e-05,0
51.535,3.3234e-05,0
51.536,3.1891e-05,0
51.536,1.1917e-05,0
51.537,-1.8128e-05,0
51.537,-3.6759e-05,0
51.538,-3.7766e-05,0
51.538,-3.1724e-05,0
51.539,-2.7024e-05,0
51.539,-2.9709e-05,0
51.54,-3.1388e-05,0
51.54,-2.4338e-05,0
51.541,-1.1078e-05,0
51.541,2.182e-06,0
51.542,1.4267e-05,0
51.542,1.5106e-05,0
51.543,-6.714e-07,0
51.544,-1.2757e-05,0
51.544,-2.1988e-05,0
51.545,-3.5584e-05,0
51.545,-2.9709e-05,0
51.546,5.539e-06,0
51.546,3.7766e-05,0
51.547,4.2802e-05,0
51.547,3.3738e-05,0
51.548,2.6017e-05,0
51.548,1.3596e-05,0
51.549,-4.6998e-06,0
51.549,-1.1078e-05,0
51.55,-3.8605e-06,0
51.55,1.2757e-05,0
51.551,3.3402e-05,0
51.551,4.8676e-05,0
51.552,5.3544e-05,0
51.552,4.7166e-05,0
51.553,4.6662e-05,0
51.553,5.5894e-05,0
51.554,5.9419e-05,0
51.554,5.0355e-05,0
51.555,3.9612e-05,0
51.555,3.0381e-05,0
51.556,2.4002e-05,0
51.556,2.1317e-05,0
51.557,1.6281e-05,0
51.558,4.5319e-06,0
51.558,-2.8534e-06,0
51.559,6.2104e-06,0
51.559,2.8367e-05,0
51.56,5.153e-05,0
51.56,6.7643e-05,0
51.561,7.0329e-05,0
51.561,6.0258e-05,0
51.562,5.0355e-05,0
51.562,4.9348e-05,0
51.563,5.2873e-05,0
51.563,5.2537e-05,0
51.564,4.8844e-05,0
51.564,4.5151e-05,0
51.565,4.683e-05,0
51.565,5.4551e-05,0
51.566,5.6062e-05,0
51.566,3.8102e-05,0
51.567,7.0497e-06,0
51.567,-1.6281e-05,0
51.568,-1.9806e-05,0
51.568,-1.3596e-05,0
51.569,-1.4939e-05,0
51.569,-3.5416e-05,0
51.57,-6.244e-05,0
51.571,-7.57e-05,0
51.571,-7.9057e-05,0
51.572,-8.8792e-05,0
51.572,-0.00011162,0
51.573,-0.00012824,0
51.573,-0.0001232,0
51.574,-0.00010726,0
51.574,-8.7617e-05,0
51.575,-6.6636e-05,0
51.575,-4.2802e-05,0
51.576,-1.4267e-05,0
51.576,1.6953e-05,0
51.577,4.3977e-05,0
51.577,6.0426e-05,0
51.578,6.2943e-05,0
51.578,5.7404e-05,0
51.579,6.1265e-05,0
51.579,8.5771e-05,0
51.58,0.00010692,0
51.58,9.6513e-05,0
51.581,6.6133e-05,0
51.581,4.7837e-05,0
51.582,6.949e-05,0
51.582,0.00012404,0
51.583,0.00016231,0
51.584,0.00015492,0
51.584,0.00012136,0
51.585,8.5771e-05,0
51.585,4.683e-05,0
51.586,9.5674e-06,0
51.586,-9.5674e-06,0
51.587,-1.3596e-05,0
51.587,-1.6281e-05,0
51.588,-1.2924e-05,0
51.588,-2.8534e-06,0
51.589,4.5319e-06,0
51.589,2.5177e-06,0
51.59,-1.1078e-05,0
51.59,-2.7695e-05,0
51.591,-2.9038e-05,0
51.591,-1.2085e-05,0
51.592,1.1078e-05,0
51.592,2.7863e-05,0
51.593,3.3234e-05,0
51.593,3.4073e-05,0
51.594,3.508e-05,0
51.594,3.8773e-05,0
51.595,4.4648e-05,0
51.595,4.6494e-05,0
51.596,4.6159e-05,0
51.596,4.7333e-05,0
51.597,5.0019e-05,0
51.598,5.153e-05,0
51.598,4.7501e-05,0
51.599,4.2802e-05,0
51.599,4.1123e-05,0
51.6,4.1291e-05,0
51.6,4.3809e-05,0
51.601,4.9516e-05,0
51.601,5.4215e-05,0
51.602,5.2201e-05,0
51.602,4.918e-05,0
51.603,5.1194e-05,0
51.603,5.4383e-05,0
51.604,5.2705e-05,0
51.604,4.3473e-05,0
51.605,3.2731e-05,0
51.605,3.0716e-05,0
51.606,3.8605e-05,0
51.606,4.9348e-05,0
51.607,5.0858e-05,0
51.607,3.1724e-05,0
51.608,-3.0213e-06,0
51.608,-2.266e-05,0
51.609,-1.7121e-05,0
51.609,-2.1149e-05,0
51.61,-5.7908e-05,0
51.611,-8.275e-05,0
51.611,-6.4286e-05,0
51.612,-3.4241e-05,0
51.612,-2.0478e-05,0
51.613,-1.8463e-05,0
51.613,-1.0407e-05,0
51.614,3.8605e-06,0
51.614,1.4267e-05,0
51.615,1.8799e-05,0
51.615,2.4842e-05,0
51.616,3.1388e-05,0
51.616,3.743e-05,0
51.617,4.3473e-05,0
51.617,4.9516e-05,0
51.618,5.5894e-05,0
51.618,6.0258e-05,0
51.619,5.9251e-05,0
51.619,5.9922e-05,0
51.62,6.63e-05,0
51.62,6.9154e-05,0
51.621,6.4286e-05,0
51.621,5.3208e-05,0
51.622,4.3977e-05,0
51.622,3.7095e-05,0
51.623,2.3163e-05,0
51.623,-3.357e-07,0
51.624,-2.4842e-05,0
51.625,-4.4984e-05,0
51.625,-5.9251e-05,0
51.626,-6.3615e-05,0
51.626,-6.2776e-05,0
51.627,-6.3279e-05,0
51.627,-6.3111e-05,0
51.628,-5.9251e-05,0
51.628,-4.7669e-05,0
51.629,-2.8031e-05,0
51.629,-7.7211e-06,0
51.63,8.5603e-06,0
51.63,2.1317e-05,0
51.631,2.9374e-05,0
51.631,3.5752e-05,0
51.632,4.1962e-05,0
51.632,5.0523e-05,0
51.633,6.0594e-05,0
51.633,6.3951e-05,0
51.634,6.3279e-05,0
51.634,6.5126e-05,0
51.635,6.4286e-05,0
51.635,5.388e-05,0
51.636,4.1459e-05,0
51.636,3.6088e-05,0
51.637,3.743e-05,0
51.638,3.8605e-05,0
51.638,4.0116e-05,0
51.639,4.213e-05,0
51.639,3.8102e-05,0
51.64,2.2156e-05,0
51.64,3.357e-07,0
51.641,-1.6785e-05,0
51.641,-3.2395e-05,0
51.642,-3.7766e-05,0
51.642,-1.4771e-05,0
51.643,1.6785e-05,0
51.643,1.9974e-05,0
51.644,4.8676e-06,0
51.644,-2.5177e-06,0
51.645,1.5106e-06,0
51.645,9.9031e-06,0
51.646,1.8296e-05,0
51.646,2.6184e-05,0
51.647,3.1556e-05,0
51.647,3.8941e-05,0
51.648,5.0355e-05,0
51.648,5.5894e-05,0
51.649,5.304e-05,0
51.649,5.5894e-05,0
51.65,6.7643e-05,0
51.65,7.7546e-05,0
51.651,8.1407e-05,0
51.652,7.8218e-05,0
51.652,6.7643e-05,0
51.653,5.3544e-05,0
51.653,3.3402e-05,0
51.654,8.5603e-06,0
51.654,-6.2104e-06,0
51.655,-3.5248e-06,0
51.655,8.7282e-06,0
51.656,2.4338e-05,0
51.656,2.9038e-05,0
51.657,1.7288e-05,0
51.657,1.091e-05,0
51.658,1.4603e-05,0
51.658,1.7624e-05,0
51.659,2.3499e-05,0
51.659,3.1052e-05,0
51.66,1.561e-05,0
51.66,-2.4338e-05,0
51.661,-6.0426e-05,0
51.661,-6.7643e-05,0
51.662,-4.2802e-05,0
51.662,-5.8747e-06,0
51.663,1.7792e-05,0
51.663,3.0716e-05,0
51.664,4.2466e-05,0
51.664,5.069e-05,0
51.665,4.9516e-05,0
51.666,4.3137e-05,0
51.666,3.9277e-05,0
51.667,3.508e-05,0
51.667,3.2059e-05,0
51.668,2.8367e-05,0
51.668,1.5946e-05,0
51.669,8.3925e-07,0
51.669,1.0071e-06,0
51.67,1.8631e-05,0
51.67,3.827e-05,0
51.671,4.4648e-05,0
51.671,4.6159e-05,0
51.672,4.5487e-05,0
51.672,3.9109e-05,0
51.673,2.6184e-05,0
51.673,1.2589e-05,0
51.674,7.2175e-06,0
51.674,6.2104e-06,0
51.675,-4.1962e-06,0
51.675,-2.5681e-05,0
51.676,-3.6088e-05,0
51.676,-2.4842e-05,0
51.677,-1.091e-05,0
51.677,-5.0355e-07,0
51.678,1.6281e-05,0
51.679,2.5513e-05,0
51.679,1.7288e-05,0
51.68,5.8747e-06,0
51.68,-3.6927e-06,0
51.681,-1.2924e-05,0
51.681,-2.8702e-05,0
51.682,-4.3137e-05,0
51.682,-3.7766e-05,0
51.683,-1.5274e-05,0
51.683,1.6785e-07,0
51.684,-1.5106e-06,0
51.684,-9.2317e-06,0
51.685,-1.6449e-05,0
51.685,-2.2828e-05,0
51.686,-2.2995e-05,0
51.686,-1.4267e-05,0
51.687,3.1891e-06,0
51.687,2.4338e-05,0
51.688,4.1459e-05,0
51.688,4.8844e-05,0
51.689,4.8173e-05,0
51.689,5.2201e-05,0
51.69,6.2608e-05,0
51.69,5.7572e-05,0
51.691,4.4144e-05,0
51.691,5.0858e-05,0
51.692,7.3518e-05,0
51.693,9.7856e-05,0
51.693,0.00011733,0
51.694,0.00012656,0
51.694,0.00012555,0
51.695,0.00012001,0
51.695,0.00011481,0
51.696,0.00010843,0
51.696,9.9199e-05,0
51.697,8.3421e-05,0
51.697,5.9586e-05,0
51.698,3.0716e-05,0
51.698,1.5106e-06,0
51.699,-3.0716e-05,0
51.699,-6.6468e-05,0
51.7,-8.8624e-05,0
51.7,-8.0735e-05,0
51.701,-5.8915e-05,0
51.701,-4.062e-05,0
51.702,-2.6017e-05,0
51.702,-8.896e-06,0
51.703,6.714e-06,0
51.703,1.561e-05,0
51.704,1.6617e-05,0
51.704,1.0407e-05,0
51.705,8.3925e-06,0
51.706,1.9135e-05,0
51.706,3.2731e-05,0
51.707,3.6759e-05,0
51.707,3.7766e-05,0
51.708,4.6159e-05,0
51.708,5.774e-05,0
51.709,6.3951e-05,0
51.709,6.0929e-05,0
51.71,4.9516e-05,0
51.71,3.8773e-05,0
51.711,2.9877e-05,0
51.711,1.561e-05,0
51.712,1.5106e-06,0
51.712,8.896e-06,0
51.713,3.7934e-05,0
51.713,5.9586e-05,0
51.714,5.2537e-05,0
51.714,2.9374e-05,0
51.715,8.2246e-06,0
51.715,-6.5461e-06,0
51.716,-1.0239e-05,0
51.716,-1.4939e-05,0
51.717,-3.2395e-05,0
51.717,-5.1026e-05,0
51.718,-5.4887e-05,0
51.718,-4.1962e-05,0
51.719,-1.9303e-05,0
51.72,1.5106e-06,0
51.72,1.4099e-05,0
51.721,1.9303e-05,0
51.721,1.9806e-05,0
51.722,1.9974e-05,0
51.722,2.4338e-05,0
51.723,3.0549e-05,0
51.723,3.5416e-05,0
51.724,4.0787e-05,0
51.724,4.9851e-05,0
51.725,5.8915e-05,0
51.725,5.9754e-05,0
51.726,5.0858e-05,0
51.726,3.6759e-05,0
51.727,1.7121e-05,0
51.727,2.5177e-06,0
51.728,6.5461e-06,0
51.728,1.6617e-05,0
51.729,2.5345e-05,0
51.729,3.7934e-05,0
51.73,4.8173e-05,0
51.73,4.7837e-05,0
51.731,3.978e-05,0
51.731,2.8031e-05,0
51.732,1.7288e-05,0
51.733,1.6449e-05,0
51.733,2.4002e-05,0
51.734,3.3234e-05,0
51.734,3.9612e-05,0
51.735,4.1459e-05,0
51.735,3.592e-05,0
51.736,2.2492e-05,0
51.736,6.5461e-06,0
51.737,-9.7353e-06,0
51.737,-2.1317e-05,0
51.738,-1.7121e-05,0
51.738,2.5177e-06,0
51.739,2.3331e-05,0
51.739,2.4002e-05,0
51.74,5.0355e-07,0
51.74,-1.8463e-05,0
51.741,-1.2757e-05,0
51.741,9.0639e-06,0
51.742,2.8031e-05,0
51.742,3.4745e-05,0
51.743,3.0381e-05,0
51.743,2.1317e-05,0
51.744,1.3092e-05,0
51.744,3.357e-06,0
51.745,-7.2175e-06,0
51.745,-1.3092e-05,0
51.746,-1.1246e-05,0
51.747,-6.714e-07,0
51.747,1.0575e-05,0
51.748,8.3925e-06,0
51.748,0,0
51.749,-8.3925e-07,0
51.749,8.5603e-06,0
51.75,1.8128e-05,0
51.75,2.1988e-05,0
51.751,2.6017e-05,0
51.751,3.8102e-05,0
51.752,5.1698e-05,0
51.752,6.1265e-05,0
51.753,6.7308e-05,0
51.753,6.6972e-05,0
51.754,6.0258e-05,0
51.754,4.918e-05,0
51.755,4.1459e-05,0
51.755,4.6159e-05,0
51.756,6.0258e-05,0
51.756,6.5126e-05,0
51.757,5.1865e-05,0
51.757,3.4745e-05,0
51.758,3.3066e-05,0
51.758,3.8102e-05,0
51.759,3.0381e-05,0
51.76,1.6114e-05,0
51.76,1.9303e-05,0
51.761,3.4409e-05,0
51.761,4.062e-05,0
51.762,3.3906e-05,0
51.762,2.0981e-05,0
51.763,9.5674e-06,0
51.763,1.2924e-05,0
51.764,2.9206e-05,0
51.764,3.5752e-05,0
51.765,2.5345e-05,0
51.765,1.6281e-05,0
51.766,2.3667e-05,0
51.766,4.3305e-05,0
51.767,6.1601e-05,0
51.767,7.1672e-05,0
51.768,7.1e-05,0
51.768,5.8915e-05,0
51.769,3.9948e-05,0
51.769,2.9709e-05,0
51.77,3.4073e-05,0
51.77,4.062e-05,0
51.771,3.0884e-05,0
51.771,1.3931e-05,0
51.772,5.8747e-06,0
51.773,-1.2253e-05,0
51.773,-5.069e-05,0
51.774,-8.9128e-05,0
51.774,-8.896e-05,0
51.775,-4.918e-05,0
51.775,-1.4267e-05,0
51.776,-1.9638e-05,0
51.776,-5.1362e-05,0
51.777,-7.1504e-05,0
51.777,-6.9993e-05,0
51.778,-7.2679e-05,0
51.778,-8.5939e-05,0
51.779,-8.8457e-05,0
51.779,-8.04e-05,0
51.78,-6.865e-05,0
51.78,-5.0187e-05,0
51.781,-2.2492e-05,0
51.781,2.182e-06,0
51.782,1.561e-05,0
51.782,2.7359e-05,0
51.783,3.6423e-05,0
51.783,4.0787e-05,0
51.784,5.9586e-05,0
51.784,8.9464e-05,0
51.785,0.00010961,0
51.785,0.00011263,0
51.786,0.00010457,0
51.787,9.7185e-05,0
51.787,9.9199e-05,0
51.788,0.00010121,0
51.788,8.6275e-05,0
51.789,6.4958e-05,0
51.789,5.5222e-05,0
51.79,5.3208e-05,0
51.79,5.2369e-05,0
51.791,4.683e-05,0
51.791,2.8031e-05,0
51.792,4.0284e-06,0
51.792,-1.1917e-05,0
51.793,-1.1582e-05,0
51.793,-1.0575e-05,0
51.794,-1.5274e-05,0
51.794,-1.8463e-06,0
51.795,2.6688e-05,0
51.795,4.448e-05,0
51.796,4.8173e-05,0
51.796,4.3977e-05,0
51.797,3.0045e-05,0
51.797,1.326e-05,0
51.798,1.6785e-05,0
51.798,4.3305e-05,0
51.799,6.1936e-05,0
51.8,4.7501e-05,0
51.8,1.4267e-05,0
51.801,-5.0355e-07,0
51.801,7.0497e-06,0
51.802,1.3764e-05,0
51.802,8.5603e-06,0
51.803,-6.714e-07,0
51.803,-1.3092e-05,0
51.804,-2.501e-05,0
51.804,-2.3499e-05,0
51.805,-8.896e-06,0
51.805,1.2253e-05,0
51.806,3.3738e-05,0
51.806,4.7669e-05,0
51.807,5.2033e-05,0
51.807,5.153e-05,0
51.808,5.5894e-05,0
51.808,6.2776e-05,0
51.809,5.7237e-05,0
51.809,3.3906e-05,0
51.81,1.0407e-05,0
51.81,6.714e-06,0
51.811,2.2492e-05,0
51.811,3.4745e-05,0
51.812,3.2059e-05,0
51.812,2.9541e-05,0
51.813,3.8773e-05,0
51.814,5.8915e-05,0
51.814,6.9322e-05,0
51.815,6.479e-05,0
51.815,5.9922e-05,0
51.816,4.7166e-05,0
51.816,1.9303e-05,0
51.817,-1.3596e-05,0
51.817,-3.978e-05,0
51.818,-5.3712e-05,0
51.818,-4.6662e-05,0
51.819,-2.6017e-05,0
51.819,-7.3854e-06,0
51.82,5.0355e-07,0
51.82,-1.5106e-06,0
51.821,-7.5532e-06,0
51.821,-8.2246e-06,0
51.822,7.2175e-06,0
51.822,2.8702e-05,0
51.823,4.3305e-05,0
51.823,4.7501e-05,0
51.824,4.5655e-05,0
51.824,4.213e-05,0
51.825,3.8773e-05,0
51.825,4.0116e-05,0
51.826,4.9516e-05,0
51.827,6.5293e-05,0
51.827,8.1743e-05,0
51.828,0.00010105,0
51.828,0.00012639,0
51.829,0.00014754,0
51.829,0.00015224,0
51.83,0.00013797,0
51.83,0.00011078,0
51.831,8.51e-05,0
51.831,6.6804e-05,0
51.832,4.683e-05,0
51.832,7.0497e-06,0
51.833,-4.7837e-05,0
51.833,-7.335e-05,0
51.834,-5.9419e-05,0
51.834,-4.3977e-05,0
51.835,-4.5151e-05,0
51.835,-5.9586e-05,0
51.836,-9.2485e-05,0
51.836,-0.00014653,0
51.837,-0.00018833,0
51.837,-0.00019336,0
51.838,-0.00017305,0
51.838,-0.00014032,0
51.839,-0.00010222,0
51.839,-6.5629e-05,0
51.84,-3.3066e-05,0
51.841,-8.3925e-06,0
51.841,6.5461e-06,0
51.842,1.326e-05,0
51.842,1.0575e-05,0
51.843,7.3854e-06,0
51.843,1.8799e-05,0
51.844,4.4816e-05,0
51.844,7.2679e-05,0
51.845,8.9799e-05,0
51.845,9.6513e-05,0
51.846,0.00010457,0
51.846,0.00011867,0
51.847,0.00012992,0
51.847,0.00013445,0
51.848,0.00013109,0
51.848,0.00011833,0
51.849,0.00010491,0
51.849,8.7449e-05,0
51.85,6.1936e-05,0
51.85,3.1724e-05,0
51.851,-7.8889e-06,0
51.851,-4.9012e-05,0
51.852,-7.4022e-05,0
51.852,-7.2847e-05,0
51.853,-5.8915e-05,0
51.853,-5.5222e-05,0
51.854,-4.3809e-05,0
51.855,2.182e-06,0
51.855,6.4286e-05,0
51.856,0.00010004,0
51.856,9.8192e-05,0
51.857,7.7714e-05,0
51.857,5.8244e-05,0
51.858,5.304e-05,0
51.858,5.6733e-05,0
51.859,5.5222e-05,0
51.859,4.9683e-05,0
51.86,4.8005e-05,0
51.86,5.2537e-05,0
51.861,5.1698e-05,0
51.861,3.5248e-05,0
51.862,1.4099e-05,0
51.862,7.5532e-06,0
51.863,1.4099e-05,0
51.863,2.1485e-05,0
51.864,2.4674e-05,0
51.864,1.9638e-05,0
51.865,1.0575e-05,0
51.865,6.8818e-06,0
51.866,5.539e-06,0
51.866,8.3925e-07,0
51.867,-7.3854e-06,0
51.868,-1.3596e-05,0
51.868,-1.7456e-05,0
51.869,-2.2324e-05,0
51.869,-1.9638e-05,0
51.87,-5.0355e-06,0
51.87,1.2757e-05,0
51.871,1.1917e-05,0
51.871,-4.8676e-06,0
51.872,-1.2924e-05,0
51.872,-1.5106e-06,0
51.873,1.1582e-05,0
51.873,1.5778e-05,0
51.874,1.7121e-05,0
51.874,2.3835e-05,0
51.875,3.743e-05,0
51.875,4.4144e-05,0
51.876,4.2298e-05,0
51.876,4.918e-05,0
51.877,6.7643e-05,0
51.877,6.9993e-05,0
51.878,4.2802e-05,0
51.878,9.0639e-06,0
51.879,-1.3931e-05,0
51.879,-1.6617e-05,0
51.88,-3.8605e-06,0
51.88,1.4267e-05,0
51.881,2.6017e-05,0
51.882,2.652e-05,0
51.882,2.2492e-05,0
51.883,2.3835e-05,0
51.883,4.4816e-05,0
51.884,8.04e-05,0
51.884,0.0001086,0
51.885,0.00012068,0
51.885,0.00011766,0
51.886,0.00010474,0
51.886,8.6778e-05,0
51.887,6.4958e-05,0
51.887,3.8773e-05,0
51.888,1.3764e-05,0
51.888,4.0284e-06,0
51.889,6.2104e-06,0
51.889,2.182e-06,0
51.89,-1.1078e-05,0
51.89,-2.501e-05,0
51.891,-3.4241e-05,0
51.891,-4.448e-05,0
51.892,-6.2943e-05,0
51.892,-7.805e-05,0
51.893,-8.2918e-05,0
51.893,-8.0232e-05,0
51.894,-7.0329e-05,0
51.895,-5.7908e-05,0
51.895,-5.2537e-05,0
51.896,-5.2369e-05,0
51.896,-5.4887e-05,0
51.897,-4.683e-05,0
51.897,-1.6281e-05,0
51.898,1.796e-05,0
51.898,3.5584e-05,0
51.899,3.8773e-05,0
51.899,3.508e-05,0
51.9,2.6688e-05,0
51.9,1.8967e-05,0
51.901,1.1246e-05,0
51.901,1.1246e-05,0
51.902,2.1317e-05,0
51.902,3.5416e-05,0
51.903,5.0523e-05,0
51.903,6.2272e-05,0
51.904,6.5629e-05,0
51.904,6.2272e-05,0
51.905,5.9083e-05,0
51.905,6.2272e-05,0
51.906,6.3951e-05,0
51.906,5.8915e-05,0
51.907,4.7166e-05,0
51.907,3.3402e-05,0
51.908,2.6688e-05,0
51.909,3.0381e-05,0
51.909,3.978e-05,0
51.91,4.918e-05,0
51.91,5.2033e-05,0
51.911,5.3376e-05,0
51.911,5.6062e-05,0
51.912,5.8915e-05,0
51.912,5.9754e-05,0
51.913,5.4551e-05,0
51.913,5.0858e-05,0
51.914,5.5894e-05,0
51.914,6.6636e-05,0
51.915,7.805e-05,0
51.915,7.9561e-05,0
51.916,6.7308e-05,0
51.916,5.2873e-05,0
51.917,5.0858e-05,0
51.917,6.1601e-05,0
51.918,6.63e-05,0
51.918,5.1362e-05,0
51.919,2.9709e-05,0
51.919,3.3402e-05,0
51.92,5.8915e-05,0
51.92,7.1e-05,0
51.921,5.7404e-05,0
51.922,3.6088e-05,0
51.922,9.2317e-06,0
51.923,-3.4409e-05,0
51.923,-8.0735e-05,0
51.924,-0.00010692,0
51.924,-0.00010625,0
51.925,-8.5435e-05,0
51.925,-5.7237e-05,0
51.926,-2.501e-05,0
51.926,1.6785e-07,0
51.927,-2.5177e-06,0
51.927,-1.7288e-05,0
51.928,-1.0407e-05,0
51.928,1.6953e-05,0
51.929,3.3906e-05,0
51.929,3.1724e-05,0
51.93,2.6184e-05,0
51.93,2.7192e-05,0
51.931,3.0549e-05,0
51.931,2.8534e-05,0
51.932,2.5177e-05,0
51.932,3.1388e-05,0
51.933,3.8773e-05,0
51.933,4.2802e-05,0
51.934,4.2634e-05,0
51.934,3.2059e-05,0
51.935,1.091e-05,0
51.936,-1.0239e-05,0
51.936,-1.4267e-05,0
51.937,-2.8534e-06,0
51.937,7.8889e-06,0
51.938,6.5461e-06,0
51.938,-7.8889e-06,0
51.939,-1.561e-05,0
51.939,1.0071e-06,0
51.94,2.8702e-05,0
51.94,5.0523e-05,0
51.941,6.0258e-05,0
51.941,6.0929e-05,0
51.942,6.1601e-05,0
51.942,6.7979e-05,0
51.943,7.4525e-05,0
51.943,7.7379e-05,0
51.944,7.9225e-05,0
51.944,7.8386e-05,0
51.945,7.1e-05,0
51.945,5.9251e-05,0
51.946,5.069e-05,0
51.946,4.2802e-05,0
51.947,2.4338e-05,0
51.947,5.0355e-07,0
51.948,-1.2757e-05,0
51.949,-1.9135e-05,0
51.949,-2.9038e-05,0
51.95,-4.2466e-05,0
51.95,-4.918e-05,0
51.951,-4.448e-05,0
51.951,-3.2731e-05,0
51.952,-1.5946e-05,0
51.952,1.1749e-06,0
51.953,1.4267e-05,0
51.953,1.5946e-05,0
51.954,1.4603e-05,0
51.954,2.6017e-05,0
51.955,5.0858e-05,0
51.955,7.9561e-05,0
51.956,9.6513e-05,0
51.956,9.2485e-05,0
51.957,7.2679e-05,0
51.957,4.683e-05,0
51.958,1.8967e-05,0
51.958,-1.796e-05,0
51.959,-5.6901e-05,0
51.959,-8.6107e-05,0
51.96,-0.00010323,0
51.96,-0.00011229,0
51.961,-0.00011716,0
51.962,-0.00011028,0
51.962,-8.1239e-05,0
51.963,-4.5823e-05,0
51.963,-2.3331e-05,0
51.964,-1.4267e-05,0
51.964,-7.5532e-06,0
51.965,1.8463e-06,0
51.965,1.5946e-05,0
51.966,3.0549e-05,0
51.966,3.8773e-05,0
51.967,4.5151e-05,0
51.967,4.9851e-05,0
51.968,5.0858e-05,0
51.968,4.8844e-05,0
51.969,4.8676e-05,0
51.969,5.0523e-05,0
51.97,5.3544e-05,0
51.97,5.0858e-05,0
51.971,3.8102e-05,0
51.971,3.0381e-05,0
51.972,3.9445e-05,0
51.972,5.6397e-05,0
51.973,6.6133e-05,0
51.973,6.8315e-05,0
51.974,6.9322e-05,0
51.974,6.865e-05,0
51.975,6.6972e-05,0
51.976,6.7643e-05,0
51.976,6.9657e-05,0
51.977,7.1839e-05,0
51.977,6.7979e-05,0
51.978,6.0929e-05,0
51.978,5.2873e-05,0
51.979,3.8437e-05,0
51.979,2.4842e-05,0
51.98,1.9135e-05,0
51.98,2.1988e-05,0
51.981,2.9877e-05,0
51.981,3.6088e-05,0
51.982,3.508e-05,0
51.982,2.7527e-05,0
51.983,2.9206e-05,0
51.983,4.7333e-05,0
51.984,6.0929e-05,0
51.984,5.5222e-05,0
51.985,2.8534e-05,0
51.985,-5.7069e-06,0
51.986,-1.326e-05,0
51.986,8.0568e-06,0
51.987,2.9206e-05,0
51.987,3.0716e-05,0
51.988,2.1988e-05,0
51.989,1.8128e-05,0
51.989,1.7456e-05,0
51.99,1.0407e-05,0
51.99,1.6785e-07,0
51.991,-7.5532e-06,0
51.991,-1.2924e-05,0
51.992,-1.091e-05,0
51.992,-1.1749e-06,0
51.993,8.896e-06,0
51.993,1.1246e-05,0
51.994,5.539e-06,0
51.994,3.1891e-06,0
51.995,8.7282e-06,0
51.995,8.5603e-06,0
51.996,-1.1749e-06,0
51.996,-1.7456e-05,0
51.997,-4.062e-05,0
51.997,-5.9419e-05,0
51.998,-5.4383e-05,0
51.998,-2.6184e-05,0
51.999,7.8889e-06,0
51.999,3.1724e-05,0
52,4.8508e-05,0
52,6.5965e-05,0
52.001,7.3014e-05,0
52.001,6.8315e-05,0
52.002,6.3615e-05,0
52.003,6.4118e-05,0
52.003,6.2272e-05,0
52.004,5.7572e-05,0
52.004,5.4887e-05,0
52.005,5.388e-05,0
52.005,4.4984e-05,0
52.006,1.7121e-05,0
52.006,-1.3931e-05,0
52.007,-1.8463e-05,0
52.007,4.5319e-06,0
52.008,3.8102e-05,0
52.008,6.3783e-05,0
52.009,7.8218e-05,0
52.009,8.9296e-05,0
52.01,9.5171e-05,0
52.01,8.5435e-05,0
52.011,4.9516e-05,0
52.011,3.1891e-06,0
52.012,-3.2563e-05,0
52.012,-5.0858e-05,0
52.013,-4.683e-05,0
52.013,-4.1459e-05,0
52.014,-5.388e-05,0
52.014,-7.2679e-05,0
52.015,-7.9393e-05,0
52.016,-6.9322e-05,0
52.016,-4.4144e-05,0
52.017,-1.5106e-05,0
52.017,3.8605e-06,0
52.018,1.5274e-05,0
52.018,3.0381e-05,0
52.019,5.069e-05,0
52.019,6.6133e-05,0
52.02,6.6804e-05,0
52.02,4.2466e-05,0
52.021,6.0426e-06,0
52.021,-3.8605e-06,0
52.022,9.2317e-06,0
52.022,7.5532e-06,0
52.023,-1.2924e-05,0
52.023,-2.9374e-05,0
52.024,-3.7598e-05,0
52.024,-3.8605e-05,0
52.025,-2.7359e-05,0
52.025,-1.1246e-05,0
52.026,-7.3854e-06,0
52.026,-1.4267e-05,0
52.027,-8.7282e-06,0
52.027,1.6953e-05,0
52.028,4.1962e-05,0
52.028,4.9516e-05,0
52.029,4.3137e-05,0
52.03,3.5752e-05,0
52.03,3.6759e-05,0
52.031,4.4984e-05,0
52.031,4.9012e-05,0
52.032,3.9948e-05,0
52.032,2.8534e-05,0
52.033,3.2059e-05,0
52.033,4.4144e-05,0
52.034,5.2201e-05,0
52.034,5.8244e-05,0
52.035,6.6972e-05,0
52.035,7.2175e-05,0
52.036,6.9657e-05,0
52.036,7.2343e-05,0
52.037,8.0232e-05,0
52.037,7.6371e-05,0
52.038,6.0594e-05,0
52.038,4.5823e-05,0
52.039,4.0955e-05,0
52.039,4.5487e-05,0
52.04,4.8005e-05,0
52.04,3.978e-05,0
52.041,1.9974e-05,0
52.041,3.357e-06,0
52.042,4.5319e-06,0
52.042,1.7121e-05,0
52.043,2.417e-05,0
52.044,2.3331e-05,0
52.044,2.3667e-05,0
52.045,2.6017e-05,0
52.045,2.5345e-05,0
52.046,2.7192e-05,0
52.046,3.3402e-05,0
52.047,3.9109e-05,0
52.047,3.5752e-05,0
52.048,2.501e-05,0
52.048,1.6449e-05,0
52.049,1.4435e-05,0
52.049,2.1317e-05,0
52.05,3.4745e-05,0
52.05,4.213e-05,0
52.051,3.8605e-05,0
52.051,3.592e-05,0
52.052,3.9109e-05,0
52.052,4.2466e-05,0
52.053,3.8102e-05,0
52.053,2.501e-05,0
52.054,7.7211e-06,0
52.054,-6.2104e-06,0
52.055,-1.4939e-05,0
52.055,-1.5946e-05,0
52.056,-7.8889e-06,0
52.057,-9.2317e-06,0
52.057,-3.3234e-05,0
52.058,-5.0858e-05,0
52.058,-2.9541e-05,0
52.059,1.8296e-05,0
52.059,5.1698e-05,0
52.06,5.6901e-05,0
52.06,4.8005e-05,0
52.061,3.6759e-05,0
52.061,2.4506e-05,0
52.062,1.1582e-05,0
52.062,9.5674e-06,0
52.063,2.4338e-05,0
52.063,5.0187e-05,0
52.064,7.8721e-05,0
52.064,0.00010272,0
52.065,0.00011095,0
52.065,8.9632e-05,0
52.066,5.0187e-05,0
52.066,4.0787e-05,0
52.067,8.0735e-05,0
52.067,0.00012068,0
52.068,0.00011128,0
52.068,6.3279e-05,0
52.069,3.1891e-06,0
52.069,-5.6901e-05,0
52.07,-0.00011464,0
52.071,-0.00016432,0
52.071,-0.00019437,0
52.072,-0.00019017,0
52.072,-0.00015492,0
52.073,-0.0001185,0
52.073,-8.7617e-05,0
52.074,-5.9419e-05,0
52.074,-3.8102e-05,0
52.075,-2.6352e-05,0
52.075,-1.8631e-05,0
52.076,-8.896e-06,0
52.076,-1.8463e-06,0
52.077,4.1962e-06,0
52.077,1.2253e-05,0
52.078,1.5946e-05,0
52.078,1.6449e-05,0
52.079,2.1317e-05,0
52.079,3.5752e-05,0
52.08,5.1026e-05,0
52.08,5.623e-05,0
52.081,5.5558e-05,0
52.081,5.5558e-05,0
52.082,6.3447e-05,0
52.082,7.805e-05,0
52.083,8.6442e-05,0
52.084,8.1071e-05,0
52.084,6.8315e-05,0
52.085,6.1097e-05,0
52.085,6.1601e-05,0
52.086,6.3447e-05,0
52.086,6.2608e-05,0
52.087,5.8244e-05,0
52.087,5.8076e-05,0
52.088,6.8147e-05,0
52.088,7.5364e-05,0
52.089,6.8986e-05,0
52.089,5.4719e-05,0
52.09,4.448e-05,0
52.09,4.3137e-05,0
52.091,5.6901e-05,0
52.091,7.6371e-05,0
52.092,7.8218e-05,0
52.092,5.6565e-05,0
52.093,3.3066e-05,0
52.093,3.0884e-05,0
52.094,3.6759e-05,0
52.094,2.1149e-05,0
52.095,-1.6617e-05,0
52.095,-5.7908e-05,0
52.096,-6.9993e-05,0
52.096,-4.7166e-05,0
52.097,-2.1988e-05,0
52.098,-1.7288e-05,0
52.098,-2.8367e-05,0
52.099,-3.8773e-05,0
52.099,-3.4073e-05,0
52.1,-1.561e-05,0
52.1,6.714e-07,0
52.101,6.5461e-06,0
52.101,6.2104e-06,0
52.102,7.0497e-06,0
52.102,1.3596e-05,0
52.103,1.5274e-05,0
52.103,8.896e-06,0
52.104,5.2033e-06,0
52.104,8.5603e-06,0
52.105,1.5946e-05,0
52.105,2.4002e-05,0
52.106,3.0381e-05,0
52.106,3.6423e-05,0
52.107,4.1627e-05,0
52.107,4.213e-05,0
52.108,3.3402e-05,0
52.108,2.3499e-05,0
52.109,3.1052e-05,0
52.109,5.5558e-05,0
52.11,8.3421e-05,0
52.111,0.00010088,0
52.111,0.00010323,0
52.112,0.00010272,0
52.112,0.00011196,0
52.113,0.00012203,0
52.113,0.00011699,0
52.114,8.3757e-05,0
52.114,2.6688e-05,0
52.115,-1.9638e-05,0
52.115,-2.8031e-05,0
52.116,-1.6617e-05,0
52.116,-2.5681e-05,0
52.117,-5.3376e-05,0
52.117,-6.9154e-05,0
52.118,-6.1097e-05,0
52.118,-2.7024e-05,0
52.119,1.2589e-05,0
52.119,2.5177e-05,0
52.12,9.3996e-06,0
52.12,-1.3764e-05,0
52.121,-3.2227e-05,0
52.121,-3.9109e-05,0
52.122,-2.652e-05,0
52.122,5.0355e-07,0
52.123,2.8702e-05,0
52.123,4.4144e-05,0
52.124,4.1123e-05,0
52.125,3.1724e-05,0
52.125,3.0716e-05,0
52.126,3.5248e-05,0
52.126,3.8773e-05,0
52.127,4.0787e-05,0
52.127,3.8437e-05,0
52.128,3.2731e-05,0
52.128,2.8702e-05,0
52.129,2.6688e-05,0
52.129,2.4674e-05,0
52.13,2.7024e-05,0
52.13,3.4577e-05,0
52.131,3.508e-05,0
52.131,2.6184e-05,0
52.132,1.8631e-05,0
52.132,1.9806e-05,0
52.133,2.0645e-05,0
52.133,1.561e-05,0
52.134,8.0568e-06,0
52.134,-6.3783e-06,0
52.135,-2.1653e-05,0
52.135,-2.0981e-05,0
52.136,2.3499e-06,0
52.136,2.8702e-05,0
52.137,3.8605e-05,0
52.138,3.7095e-05,0
52.138,3.8437e-05,0
52.139,4.9516e-05,0
52.139,6.4286e-05,0
52.14,7.5364e-05,0
52.14,8.0735e-05,0
52.141,8.04e-05,0
52.141,7.9896e-05,0
52.142,8.4092e-05,0
52.142,8.8289e-05,0
52.143,8.5603e-05,0
52.143,7.3014e-05,0
52.144,5.623e-05,0
52.144,3.4913e-05,0
52.145,6.5461e-06,0
52.145,-1.4939e-05,0
52.146,-1.9303e-05,0
52.146,-2.2324e-05,0
52.147,-3.3906e-05,0
52.147,-3.9612e-05,0
52.148,-3.2059e-05,0
52.148,-1.7288e-05,0
52.149,-5.539e-06,0
52.149,-4.1962e-06,0
52.15,-1.4099e-05,0
52.151,-3.122e-05,0
52.151,-4.5487e-05,0
52.152,-4.9516e-05,0
52.152,-5.4215e-05,0
52.153,-5.8244e-05,0
52.153,-4.1459e-05,0
52.154,-6.714e-06,0
52.154,2.031e-05,0
52.155,2.4674e-05,0
52.155,2.417e-05,0
52.156,3.2731e-05,0
52.156,3.9445e-05,0
52.157,3.3066e-05,0
52.157,2.6017e-05,0
52.158,3.2563e-05,0
52.158,5.1362e-05,0
52.159,5.9922e-05,0
52.159,4.0787e-05,0
52.16,7.2175e-06,0
52.16,-1.2589e-05,0
52.161,-1.2757e-05,0
52.161,-3.8605e-06,0
52.162,8.3925e-07,0
52.162,-1.6785e-06,0
52.163,-7.3854e-06,0
52.163,-8.5603e-06,0
52.164,-1.8463e-06,0
52.165,1.1582e-05,0
52.165,1.9974e-05,0
52.166,1.6617e-05,0
52.166,-2.8534e-06,0
52.167,-3.122e-05,0
52.167,-4.3977e-05,0
52.168,-3.0549e-05,0
52.168,-6.3783e-06,0
52.169,4.5319e-06,0
52.169,3.1891e-06,0
52.17,8.896e-06,0
52.17,2.5177e-05,0
52.171,4.3305e-05,0
52.171,6.3951e-05,0
52.172,7.7546e-05,0
52.172,7.9057e-05,0
52.173,7.6707e-05,0
52.173,7.6371e-05,0
52.174,6.7643e-05,0
52.174,4.9851e-05,0
52.175,3.978e-05,0
52.175,3.9445e-05,0
52.176,3.0213e-05,0
52.176,9.3996e-06,0
52.177,0,0
52.178,1.2924e-05,0
52.178,3.6423e-05,0
52.179,4.6326e-05,0
52.179,4.3809e-05,0
52.18,5.3208e-05,0
52.18,8.5435e-05,0
52.181,0.00012404,0
52.181,0.00014485,0
52.182,0.00013478,0
52.182,0.00010927,0
52.183,9.0806e-05,0
52.183,7.5029e-05,0
52.184,4.683e-05,0
52.184,3.6927e-06,0
52.185,-3.8605e-05,0
52.185,-5.4719e-05,0
52.186,-3.7766e-05,0
52.186,-8.3925e-06,0
52.187,8.3925e-06,0
52.187,8.7282e-06,0
52.188,9.2317e-06,0
52.188,1.8296e-05,0
52.189,3.3066e-05,0
52.189,4.5991e-05,0
52.19,4.7166e-05,0
52.19,3.2898e-05,0
52.191,9.2317e-06,0
52.192,-2.0645e-05,0
52.192,-4.5823e-05,0
52.193,-4.6159e-05,0
52.193,-2.2324e-05,0
52.194,2.182e-06,0
52.194,1.1246e-05,0
52.195,3.6927e-06,0
52.195,-6.2104e-06,0
52.196,-7.2175e-06,0
52.196,3.357e-07,0
52.197,1.0575e-05,0
52.197,1.7288e-05,0
52.198,1.7121e-05,0
52.198,8.7282e-06,0
52.199,9.5674e-06,0
52.199,2.8031e-05,0
52.2,4.5487e-05,0
52.2,4.4648e-05,0
52.201,3.2563e-05,0
52.201,2.9374e-05,0
52.202,3.743e-05,0
52.202,4.3977e-05,0
52.203,4.2466e-05,0
52.203,3.8437e-05,0
52.204,3.6088e-05,0
52.205,3.6759e-05,0
52.205,3.5752e-05,0
52.206,2.652e-05,0
52.206,1.561e-05,0
52.207,1.1917e-05,0
52.207,1.091e-05,0
52.208,1.0071e-06,0
52.208,-1.3764e-05,0
52.209,-1.4099e-05,0
52.209,-1.0239e-05,0
52.21,-2.6688e-05,0
52.21,-5.7404e-05,0
52.211,-7.7546e-05,0
52.211,-7.0665e-05,0
52.212,-4.1459e-05,0
52.212,-9.9031e-06,0
52.213,9.3996e-06,0
52.213,1.1246e-05,0
52.214,6.5461e-06,0
52.214,1.4939e-05,0
52.215,3.6423e-05,0
52.215,5.8244e-05,0
52.216,7.2007e-05,0
52.216,8.0064e-05,0
52.217,8.04e-05,0
52.217,7.1504e-05,0
52.218,6.1936e-05,0
52.219,5.6733e-05,0
52.219,5.0858e-05,0
52.22,4.2466e-05,0
52.22,2.6688e-05,0
52.221,9.9031e-06,0
52.221,-2.8534e-06,0
52.222,-1.1246e-05,0
52.222,-1.3931e-05,0
52.223,-9.7353e-06,0
52.223,-1.5106e-06,0
52.224,1.7792e-05,0
52.224,4.5487e-05,0
52.225,6.7643e-05,0
52.225,7.6371e-05,0
52.226,6.1936e-05,0
52.226,2.9877e-05,0
52.227,2.5177e-06,0
52.227,-1.6953e-05,0
52.228,-2.7024e-05,0
52.228,-1.4267e-05,0
52.229,2.5177e-06,0
52.229,0,0
52.23,-2.5177e-06,0
52.23,1.4435e-05,0
52.231,3.7934e-05,0
52.231,4.7837e-05,0
52.232,4.3977e-05,0
52.233,3.6255e-05,0
52.233,2.8702e-05,0
52.234,2.5849e-05,0
52.234,2.8031e-05,0
52.235,2.6688e-05,0
52.235,1.9135e-05,0
52.236,1.0407e-05,0
52.236,1.2421e-05,0
52.237,2.8702e-05,0
52.237,4.5823e-05,0
52.238,5.4047e-05,0
52.238,5.1194e-05,0
52.239,4.5487e-05,0
52.239,4.6494e-05,0
52.24,4.9516e-05,0
52.24,4.7166e-05,0
52.241,4.2466e-05,0
52.241,3.4745e-05,0
52.242,2.7024e-05,0
52.242,2.9374e-05,0
52.243,4.5319e-05,0
52.243,6.7475e-05,0
52.244,8.1743e-05,0
52.244,8.2414e-05,0
52.245,7.3518e-05,0
52.246,6.5629e-05,0
52.246,5.3712e-05,0
52.247,3.743e-05,0
52.247,1.9638e-05,0
52.248,1.8463e-06,0
52.248,-1.5946e-05,0
52.249,-3.1556e-05,0
52.249,-3.9277e-05,0
52.25,-3.6255e-05,0
52.25,-3.1052e-05,0
52.251,-3.3738e-05,0
52.251,-4.6494e-05,0
52.252,-5.2201e-05,0
52.252,-4.1459e-05,0
52.253,-3.0045e-05,0
52.253,-2.4002e-05,0
52.254,-9.5674e-06,0
52.254,1.2924e-05,0
52.255,1.9303e-05,0
52.255,9.2317e-06,0
52.256,4.5319e-06,0
52.256,7.7211e-06,0
52.257,1.0575e-05,0
52.257,1.091e-05,0
52.258,7.8889e-06,0
52.258,5.539e-06,0
52.259,7.2175e-06,0
52.26,1.1917e-05,0
52.26,1.7121e-05,0
52.261,2.0478e-05,0
52.261,2.3667e-05,0
52.262,2.9038e-05,0
52.262,3.743e-05,0
52.263,4.683e-05,0
52.263,5.4047e-05,0
52.264,5.4383e-05,0
52.264,5.2201e-05,0
52.265,5.2537e-05,0
52.265,5.153e-05,0
52.266,4.918e-05,0
52.266,4.4144e-05,0
52.267,3.7263e-05,0
52.267,3.3738e-05,0
52.268,3.4577e-05,0
52.268,3.6759e-05,0
52.269,3.6759e-05,0
52.269,3.6759e-05,0
52.27,3.6088e-05,0
52.27,2.9877e-05,0
52.271,1.5274e-05,0
52.271,2.0142e-06,0
52.272,-2.182e-06,0
52.273,-5.539e-06,0
52.273,-1.3092e-05,0
52.274,-1.5274e-05,0
52.274,-6.3783e-06,0
52.275,5.539e-06,0
52.275,8.896e-06,0
52.276,-1.6785e-07,0
52.276,1.8463e-06,0
52.277,2.7192e-05,0
52.277,5.5726e-05,0
52.278,7.2007e-05,0
52.278,7.2007e-05,0
52.279,5.5894e-05,0
52.279,3.3402e-05,0
52.28,1.6953e-05,0
52.28,9.3996e-06,0
52.281,1.6785e-06,0
52.281,5.0355e-07,0
52.282,1.1582e-05,0
52.282,1.2253e-05,0
52.283,-2.8534e-06,0
52.283,-8.2246e-06,0
52.284,2.3499e-06,0
52.284,1.1582e-05,0
52.285,1.1246e-05,0
52.285,8.7282e-06,0
52.286,4.8676e-06,0
52.287,-4.8676e-06,0
52.287,-1.1917e-05,0
52.288,-7.0497e-06,0
52.288,-1.1749e-06,0
52.289,-3.6927e-06,0
52.289,-3.357e-07,0
52.29,1.6281e-05,0
52.29,3.743e-05,0
52.291,5.5894e-05,0
52.291,6.5965e-05,0
52.292,5.9754e-05,0
52.292,4.6494e-05,0
52.293,4.2298e-05,0
52.293,3.9948e-05,0
52.294,2.6184e-05,0
52.294,-3.5248e-06,0
52.295,-2.7695e-05,0
52.295,-3.5416e-05,0
52.296,-4.0452e-05,0
52.296,-4.0955e-05,0
52.297,-1.7792e-05,0
52.297,1.1917e-05,0
52.298,2.4338e-05,0
52.298,2.9374e-05,0
52.299,3.9277e-05,0
52.3,4.5151e-05,0
52.3,4.683e-05,0
52.301,4.2802e-05,0
52.301,2.0645e-05,0
52.302,-7.5532e-06,0
52.302,-1.8967e-05,0
52.303,-1.561e-05,0
52.303,3.357e-06,0
52.304,3.9445e-05,0
52.304,5.8915e-05,0
52.305,4.683e-05,0
52.305,3.2059e-05,0
52.306,3.2059e-05,0
52.306,3.3906e-05,0
52.307,3.1556e-05,0
52.307,3.5416e-05,0
52.308,4.7166e-05,0
52.308,5.6565e-05,0
52.309,5.6901e-05,0
52.309,4.7501e-05,0
52.31,4.2802e-05,0
52.31,4.683e-05,0
52.311,4.9851e-05,0
52.311,5.4887e-05,0
52.312,6.2776e-05,0
52.312,6.1265e-05,0
52.313,4.6998e-05,0
52.314,2.5177e-05,0
52.314,2.182e-06,0
52.315,-1.1246e-05,0
52.315,-9.0639e-06,0
52.316,3.357e-07,0
52.316,2.8534e-06,0
52.317,-1.8463e-06,0
52.317,-5.8747e-06,0
52.318,-7.8889e-06,0
52.318,1.6785e-06,0
52.319,2.4002e-05,0
52.319,4.3473e-05,0
52.32,5.2873e-05,0
52.32,5.9754e-05,0
52.321,6.9657e-05,0
52.321,7.1672e-05,0
52.322,5.1194e-05,0
52.322,1.561e-05,0
52.323,-6.2104e-06,0
52.323,-3.8605e-06,0
52.324,8.896e-06,0
52.324,1.7121e-05,0
52.325,1.3931e-05,0
52.325,1.0239e-05,0
52.326,1.5106e-05,0
52.327,2.2324e-05,0
52.327,2.9038e-05,0
52.328,3.9948e-05,0
52.328,4.7837e-05,0
52.329,3.8102e-05,0
52.329,1.7792e-05,0
52.33,1.2253e-05,0
52.33,3.4913e-05,0
52.331,6.479e-05,0
52.331,7.6036e-05,0
52.332,7.1336e-05,0
52.332,5.5894e-05,0
52.333,3.7766e-05,0
52.333,3.0381e-05,0
52.334,3.0716e-05,0
52.334,2.5177e-05,0
52.335,1.4603e-05,0
52.335,0,0
52.336,-1.9974e-05,0
52.336,-3.8605e-05,0
52.337,-4.6326e-05,0
52.337,-4.5655e-05,0
52.338,-5.4215e-05,0
52.338,-6.7308e-05,0
52.339,-6.9657e-05,0
52.34,-5.9754e-05,0
52.34,-4.5991e-05,0
52.341,-2.8702e-05,0
52.341,-1.2589e-05,0
52.342,-8.2246e-06,0
52.342,-1.7624e-05,0
52.343,-3.2059e-05,0
52.343,-4.0116e-05,0
52.344,-3.1388e-05,0
52.344,-6.8818e-06,0
52.345,1.7288e-05,0
52.345,2.6688e-05,0
52.346,2.3163e-05,0
52.346,2.6184e-05,0
52.347,5.2201e-05,0
52.347,9.3156e-05,0
52.348,0.00011934,0
52.348,0.000118,0
52.349,9.9199e-05,0
52.349,7.7379e-05,0
52.35,6.4118e-05,0
52.35,6.0258e-05,0
52.351,5.623e-05,0
52.351,5.3544e-05,0
52.352,5.0019e-05,0
52.352,4.0116e-05,0
52.353,2.9709e-05,0
52.354,2.2324e-05,0
52.354,1.8631e-05,0
52.355,1.6785e-05,0
52.355,7.8889e-06,0
52.356,-3.8605e-06,0
52.356,-9.9031e-06,0
52.357,-1.3931e-05,0
52.357,-3.3738e-05,0
52.358,-5.7572e-05,0
52.358,-5.8747e-05,0
52.359,-4.213e-05,0
52.359,-2.6017e-05,0
52.36,-1.1582e-05,0
52.36,4.6998e-06,0
52.361,2.0478e-05,0
52.361,3.3906e-05,0
52.362,4.1123e-05,0
52.362,4.2802e-05,0
52.363,4.8173e-05,0
52.363,5.4719e-05,0
52.364,5.6901e-05,0
52.364,5.5222e-05,0
52.365,5.8915e-05,0
52.365,7.335e-05,0
52.366,9.2821e-05,0
52.367,0.00010306,0
52.367,9.5674e-05,0
52.368,7.6371e-05,0
52.368,6.7308e-05,0
52.369,7.4693e-05,0
52.369,8.5771e-05,0
52.37,8.5603e-05,0
52.37,6.9322e-05,0
52.371,4.448e-05,0
52.371,1.4435e-05,0
52.372,-2.4338e-05,0
52.372,-6.0929e-05,0
52.373,-8.3421e-05,0
52.373,-9.6345e-05,0
52.374,-0.00010222,0
52.374,-9.3492e-05,0
52.375,-6.9657e-05,0
52.375,-4.918e-05,0
52.376,-3.6591e-05,0
52.376,-2.6352e-05,0
52.377,-1.3931e-05,0
52.377,1.6785e-07,0
52.378,1.326e-05,0
52.378,2.3331e-05,0
52.379,2.1317e-05,0
52.379,1.1246e-05,0
52.38,8.896e-06,0
52.381,1.9638e-05,0
52.381,3.4241e-05,0
52.382,4.6494e-05,0
52.382,4.6159e-05,0
52.383,3.0716e-05,0
52.383,2.1317e-05,0
52.384,2.9374e-05,0
52.384,4.2634e-05,0
52.385,5.0858e-05,0
52.385,5.1865e-05,0
52.386,4.7501e-05,0
52.386,4.5823e-05,0
52.387,4.3305e-05,0
52.387,3.9445e-05,0
52.388,4.213e-05,0
52.388,5.1698e-05,0
52.389,5.5726e-05,0
52.389,4.5823e-05,0
52.39,2.7695e-05,0
52.39,8.2246e-06,0
52.391,-6.8818e-06,0
52.391,-1.8463e-06,0
52.392,1.9974e-05,0
52.392,3.8102e-05,0
52.393,3.3402e-05,0
52.394,1.326e-05,0
52.394,6.5461e-06,0
52.395,2.1317e-05,0
52.395,3.8605e-05,0
52.396,4.5991e-05,0
52.396,4.6662e-05,0
52.397,5.2201e-05,0
52.397,6.6972e-05,0
52.398,8.7114e-05,0
52.398,0.00010726,0
52.399,0.00011565,0
52.399,0.00011128,0
52.4,0.00010256,0
52.4,0.00010256,0
52.401,0.00010558,0
52.401,9.1142e-05,0
52.402,5.4047e-05,0
52.402,1.2589e-05,0
52.403,-8.5603e-06,0
52.403,-1.1749e-06,0
52.404,4.3641e-06,0
52.404,-2.1653e-05,0
52.405,-6.5293e-05,0
52.405,-8.4092e-05,0
52.406,-6.4622e-05,0
52.406,-4.5151e-05,0
52.407,-4.8341e-05,0
52.408,-4.9012e-05,0
52.408,-3.3066e-05,0
52.409,-8.2246e-06,0
52.409,9.0639e-06,0
52.41,8.5603e-06,0
52.41,-6.5461e-06,0
52.411,-2.501e-05,0
52.411,-3.9277e-05,0
52.412,-4.8173e-05,0
52.412,-4.8508e-05,0
52.413,-3.8102e-05,0
52.413,-2.182e-05,0
52.414,-3.8605e-06,0
52.414,1.3931e-05,0
52.415,2.7192e-05,0
52.415,3.2395e-05,0
52.416,2.3667e-05,0
52.416,7.3854e-06,0
52.417,-1.3428e-06,0
52.417,6.0426e-06,0
52.418,3.4073e-05,0
52.418,6.9993e-05,0
52.419,8.4932e-05,0
52.419,8.0903e-05,0
52.42,8.1407e-05,0
52.42,9.1142e-05,0
52.421,9.9535e-05,0
52.422,9.3828e-05,0
52.422,6.9657e-05,0
52.423,4.1459e-05,0
52.423,2.8702e-05,0
52.424,3.2059e-05,0
52.424,2.6352e-05,0
52.425,-1.1078e-05,0
52.425,-6.6972e-05,0
52.426,-0.00011447,0
52.426,-0.00012706,0
52.427,-0.00010121,0
52.427,-6.5293e-05,0
52.428,-4.2634e-05,0
52.428,-2.2156e-05,0
52.429,8.5603e-06,0
52.429,3.1388e-05,0
52.43,3.5416e-05,0
52.43,3.2059e-05,0
52.431,3.3234e-05,0
52.431,3.7263e-05,0
52.432,3.978e-05,0
52.432,4.2298e-05,0
52.433,5.3208e-05,0
52.433,7.4861e-05,0
52.434,9.5674e-05,0
52.435,0.00010793,0
52.435,0.00011162,0
52.436,0.00010692,0
52.436,9.6513e-05,0
52.437,8.4092e-05,0
52.437,7.3014e-05,0
52.438,6.3447e-05,0
52.438,5.2873e-05,0
52.439,5.3208e-05,0
52.439,6.3111e-05,0
52.44,7.1839e-05,0
52.44,7.5868e-05,0
52.441,7.8386e-05,0
52.441,6.63e-05,0
52.442,2.1988e-05,0
52.442,-2.8031e-05,0
52.443,-4.3809e-05,0
52.443,-3.122e-05,0
52.444,-2.182e-05,0
52.444,-2.4338e-05,0
52.445,-2.7024e-05,0
52.445,-2.1317e-05,0
52.446,-1.9638e-05,0
52.446,-3.6423e-05,0
52.447,-6.5965e-05,0
52.447,-8.6107e-05,0
52.448,-7.805e-05,0
52.449,-5.0187e-05,0
52.449,-2.6017e-05,0
52.45,-1.5274e-05,0
52.45,-9.0639e-06,0
52.451,-1.1749e-06,0
52.451,-1.1749e-06,0
52.452,-9.5674e-06,0
52.452,-1.4603e-05,0
52.453,-1.2589e-05,0
52.453,-4.6998e-06,0
52.454,-1.6785e-06,0
52.454,-1.091e-05,0
52.455,-1.326e-05,0
52.455,1.0742e-05,0
52.456,3.592e-05,0
52.456,3.7766e-05,0
52.457,3.2059e-05,0
52.457,4.3137e-05,0
52.458,6.3615e-05,0
52.458,7.7714e-05,0
52.459,8.1743e-05,0
52.459,7.8386e-05,0
52.46,7.1336e-05,0
52.46,6.5293e-05,0
52.461,5.9586e-05,0
52.462,5.2705e-05,0
52.462,4.4144e-05,0
52.463,3.4745e-05,0
52.463,2.5513e-05,0
52.464,2.1317e-05,0
52.464,1.9471e-05,0
52.465,1.6281e-05,0
52.465,1.8296e-05,0
52.466,3.1052e-05,0
52.466,4.7837e-05,0
52.467,5.8244e-05,0
52.467,5.7572e-05,0
52.468,5.2201e-05,0
52.468,4.8005e-05,0
52.469,4.3473e-05,0
52.469,3.5416e-05,0
52.47,2.0645e-05,0
52.47,-3.6927e-06,0
52.471,-1.8631e-05,0
52.471,-1.3596e-05,0
52.472,6.714e-07,0
52.472,1.7121e-05,0
52.473,3.2395e-05,0
52.473,3.3402e-05,0
52.474,2.2995e-05,0
52.474,2.1988e-05,0
52.475,3.4073e-05,0
52.476,3.743e-05,0
52.476,2.7863e-05,0
52.477,2.0478e-05,0
52.477,2.8367e-05,0
52.478,4.2634e-05,0
52.478,4.6494e-05,0
52.479,3.8773e-05,0
52.479,2.8534e-05,0
52.48,9.2317e-06,0
52.48,-1.0071e-05,0
52.481,-6.3783e-06,0
52.481,1.1917e-05,0
52.482,2.501e-05,0
52.482,2.7695e-05,0
52.483,2.5681e-05,0
52.483,2.7695e-05,0
52.484,3.0884e-05,0
52.484,2.501e-05,0
52.485,1.4435e-05,0
52.485,5.7069e-06,0
52.486,8.3925e-07,0
52.486,6.3783e-06,0
52.487,1.8967e-05,0
52.487,1.9974e-05,0
52.488,6.714e-06,0
52.489,-7.3854e-06,0
52.489,-1.2924e-05,0
52.49,-1.1582e-05,0
52.49,-1.4603e-05,0
52.491,-1.2589e-05,0
52.491,-4.8676e-06,0
52.492,-2.8534e-06,0
52.492,4.3641e-06,0
52.493,2.5681e-05,0
52.493,4.5991e-05,0
52.494,5.2201e-05,0
52.494,5.2201e-05,0
52.495,5.2369e-05,0
52.495,4.4648e-05,0
52.496,2.2492e-05,0
52.496,3.8605e-06,0
52.497,1.3596e-05,0
52.497,3.508e-05,0
52.498,4.213e-05,0
52.498,4.5151e-05,0
52.499,6.244e-05,0
52.499,8.5771e-05,0
52.5,0.00010793,0
52.5,0.00012538,0
52.501,0.00012958,0
52.502,0.00012287,0
52.502,0.00010977,0
52.503,8.6946e-05,0
52.503,5.9251e-05,0
52.504,3.5416e-05,0
52.504,2.4002e-05,0
52.505,1.3931e-05,0
52.505,-1.7121e-05,0
52.506,-4.448e-05,0
52.506,-4.9012e-05,0
52.507,-5.6062e-05,0
52.507,-8.8792e-05,0
52.508,-0.00012908,0
52.508,-0.00013848,0
52.509,-0.0001091,0
52.509,-7.8721e-05,0
52.51,-7.4022e-05,0
52.51,-8.0232e-05,0
52.511,-7.4357e-05,0
52.511,-5.8076e-05,0
52.512,-4.3473e-05,0
52.512,-3.3738e-05,0
52.513,-2.0645e-05,0
52.513,-2.182e-06,0
52.514,1.3931e-05,0
52.514,2.9374e-05,0
52.515,4.1459e-05,0
52.516,4.8173e-05,0
52.516,5.4215e-05,0
52.517,5.8244e-05,0
52.517,5.5894e-05,0
52.518,5.3376e-05,0
52.518,5.3544e-05,0
52.519,5.3208e-05,0
52.519,5.3544e-05,0
52.52,5.3544e-05,0
52.52,5.0019e-05,0
52.521,4.2802e-05,0
52.521,3.4409e-05,0
52.522,2.5849e-05,0
52.522,1.9974e-05,0
52.523,2.2492e-05,0
52.523,2.9709e-05,0
52.524,3.4409e-05,0
52.524,3.2395e-05,0
52.525,2.8367e-05,0
52.525,2.4338e-05,0
52.526,2.266e-05,0
52.526,2.8031e-05,0
52.527,3.6088e-05,0
52.527,4.062e-05,0
52.528,4.0452e-05,0
52.529,3.9109e-05,0
52.529,3.9277e-05,0
52.53,3.9109e-05,0
52.53,4.3473e-05,0
52.531,4.5151e-05,0
52.531,3.6088e-05,0
52.532,3.3906e-05,0
52.532,4.2466e-05,0
52.533,3.8605e-05,0
52.533,2.7695e-05,0
52.534,3.2059e-05,0
52.534,4.6326e-05,0
52.535,5.2033e-05,0
52.535,3.743e-05,0
52.536,1.2589e-05,0
52.536,-2.5177e-06,0
52.537,3.357e-07,0
52.537,1.2924e-05,0
52.538,1.4435e-05,0
52.538,1.1749e-06,0
52.539,-4.6998e-06,0
52.539,1.8463e-06,0
52.54,1.4939e-05,0
52.54,3.4241e-05,0
52.541,5.4215e-05,0
52.541,6.1265e-05,0
52.542,5.0187e-05,0
52.543,3.2563e-05,0
52.543,1.6617e-05,0
52.544,1.1917e-05,0
52.544,2.9374e-05,0
52.545,5.5558e-05,0
52.545,6.9154e-05,0
52.546,7.0329e-05,0
52.546,6.4622e-05,0
52.547,5.2369e-05,0
52.547,3.0213e-05,0
52.548,5.3712e-06,0
52.548,-9.5674e-06,0
52.549,-1.8631e-05,0
52.549,-1.8296e-05,0
52.55,-8.2246e-06,0
52.55,-4.3641e-06,0
52.551,-8.896e-06,0
52.551,-2.5345e-05,0
52.552,-5.388e-05,0
52.552,-6.4958e-05,0
52.553,-4.8173e-05,0
52.553,-3.5248e-05,0
52.554,-4.2634e-05,0
52.554,-3.6591e-05,0
52.555,-1.5274e-05,0
52.556,-4.5319e-06,0
52.556,4.5319e-06,0
52.557,2.6017e-05,0
52.557,4.7333e-05,0
52.558,5.7237e-05,0
52.558,5.8747e-05,0
52.559,5.8076e-05,0
52.559,5.623e-05,0
52.56,5.0187e-05,0
52.56,3.6591e-05,0
52.561,2.6688e-05,0
52.561,2.3163e-05,0
52.562,1.5946e-05,0
52.562,-1.3428e-06,0
52.563,-2.4002e-05,0
52.563,-3.7766e-05,0
52.564,-2.501e-05,0
52.564,9.2317e-06,0
52.565,4.4816e-05,0
52.565,6.6636e-05,0
52.566,7.2679e-05,0
52.566,6.9657e-05,0
52.567,6.7979e-05,0
52.567,6.9322e-05,0
52.568,6.7643e-05,0
52.568,6.0929e-05,0
52.569,5.2201e-05,0
52.57,3.9948e-05,0
52.57,2.2492e-05,0
52.571,1.3596e-05,0
52.571,1.6953e-05,0
52.572,1.5778e-05,0
52.572,2.182e-06,0
52.573,-6.0426e-06,0
52.573,5.2033e-06,0
52.574,2.2995e-05,0
52.574,2.7695e-05,0
52.575,2.3835e-05,0
52.575,2.1988e-05,0
52.576,2.9206e-05,0
52.576,4.5151e-05,0
52.577,5.774e-05,0
52.577,6.2776e-05,0
52.578,6.5629e-05,0
52.578,6.9657e-05,0
52.579,7.1839e-05,0
52.579,6.1265e-05,0
52.58,3.4577e-05,0
52.58,7.8889e-06,0
52.581,-5.8747e-06,0
52.581,-1.1246e-05,0
52.582,-1.5946e-05,0
52.583,-2.1653e-05,0
52.583,-2.6688e-05,0
52.584,-2.3331e-05,0
52.584,-1.1749e-05,0
52.585,-9.5674e-06,0
52.585,-1.5946e-05,0
52.586,-1.4435e-05,0
52.586,-2.8534e-06,0
52.587,9.9031e-06,0
52.587,1.9974e-05,0
52.588,2.7024e-05,0
52.588,3.1388e-05,0
52.589,3.4745e-05,0
52.589,3.5416e-05,0
52.59,3.4745e-05,0
52.59,3.0716e-05,0
52.591,1.4603e-05,0
52.591,1.8463e-06,0
52.592,7.7211e-06,0
52.592,2.9877e-05,0
52.593,5.8244e-05,0
52.593,7.6036e-05,0
52.594,8.3589e-05,0
52.594,8.3085e-05,0
52.595,7.6707e-05,0
52.595,6.9657e-05,0
52.596,5.7908e-05,0
52.597,4.1291e-05,0
52.597,2.266e-05,0
52.598,1.6785e-07,0
52.598,-2.4506e-05,0
52.599,-4.1794e-05,0
52.599,-5.6901e-05,0
52.6,-7.805e-05,0
52.6,-9.7856e-05,0
52.601,-9.6849e-05,0
52.601,-7.0665e-05,0
52.602,-3.7263e-05,0
52.602,-1.0407e-05,0
52.603,5.8747e-06,0
52.603,1.2924e-05,0
52.604,1.8128e-05,0
52.604,2.7695e-05,0
52.605,3.6759e-05,0
52.605,3.592e-05,0
52.606,2.6352e-05,0
52.606,1.796e-05,0
52.607,1.9974e-05,0
52.607,2.3331e-05,0
52.608,1.6617e-05,0
52.608,6.5461e-06,0
52.609,9.9031e-06,0
52.609,3.0213e-05,0
52.61,5.8579e-05,0
52.611,8.0064e-05,0
52.611,8.6107e-05,0
52.612,7.57e-05,0
52.612,5.8747e-05,0
52.613,4.5487e-05,0
52.613,2.5681e-05,0
52.614,-9.3996e-06,0
52.614,-3.4409e-05,0
52.615,-2.8367e-05,0
52.615,8.2246e-06,0
52.616,6.2272e-05,0
52.616,0.00010793,0
52.617,0.00012773,0
52.617,0.00011699,0
52.618,9.3828e-05,0
52.618,7.5532e-05,0
52.619,4.8844e-05,0
52.619,1.5946e-05,0
52.62,-9.0639e-06,0
52.62,-3.1388e-05,0
52.621,-6.6972e-05,0
52.621,-0.00010088,0
52.622,-9.3324e-05,0
52.622,-4.6662e-05,0
52.623,-5.2033e-06,0
52.624,2.3499e-06,0
52.624,-1.3596e-05,0
52.625,-2.3667e-05,0
52.625,-1.1414e-05,0
52.626,1.3092e-05,0
52.626,3.2059e-05,0
52.627,4.2802e-05,0
52.627,4.683e-05,0
52.628,4.6159e-05,0
52.628,4.5487e-05,0
52.629,4.9851e-05,0
52.629,5.4887e-05,0
52.63,5.1865e-05,0
52.63,4.6662e-05,0
52.631,3.7598e-05,0
52.631,1.796e-05,0
52.632,1.0575e-05,0
52.632,4.3473e-05,0
52.633,9.2485e-05,0
52.633,0.00011884,0
52.634,0.00012001,0
52.634,0.00011397,0
52.635,0.00010793,0
52.635,9.752e-05,0
52.636,7.7714e-05,0
52.636,6.1433e-05,0
52.637,5.2369e-05,0
52.638,1.4099e-05,0
52.638,-6.3951e-05,0
52.639,-0.00012505,0
52.639,-0.00013747,0
52.64,-0.00013545,0
52.64,-0.00014536,0
52.641,-0.0001415,0
52.641,-0.0001086,0
52.642,-6.8315e-05,0
52.642,-3.3738e-05,0
52.643,-5.8747e-06,0
52.643,1.3931e-05,0
52.644,2.5681e-05,0
52.644,3.3402e-05,0
52.645,4.5151e-05,0
52.645,5.9251e-05,0
52.646,6.7979e-05,0
52.646,6.9993e-05,0
52.647,7.0665e-05,0
52.647,6.7979e-05,0
52.648,5.9754e-05,0
52.648,5.2201e-05,0
52.649,5.2537e-05,0
52.649,5.8915e-05,0
52.65,6.3783e-05,0
52.651,5.9251e-05,0
52.651,4.0116e-05,0
52.652,2.0645e-05,0
52.652,7.0497e-06,0
52.653,-5.7069e-06,0
52.653,-1.5106e-05,0
52.654,-1.2589e-05,0
52.654,-2.8534e-06,0
52.655,3.6927e-06,0
52.655,3.6927e-06,0
52.656,3.8605e-06,0
52.656,1.0575e-05,0
52.657,2.9709e-05,0
52.657,6.2608e-05,0
52.658,0.00010172,0
52.658,0.0001331,0
52.659,0.00015224,0
52.659,0.00015627,0
52.66,0.00014284,0
52.66,0.00012052,0
52.661,9.1142e-05,0
52.661,5.7572e-05,0
52.662,3.0045e-05,0
52.662,6.5461e-06,0
52.663,-2.6352e-05,0
52.663,-6.1433e-05,0
52.664,-7.7882e-05,0
52.665,-7.1672e-05,0
52.665,-6.1097e-05,0
52.666,-5.4383e-05,0
52.666,-4.2802e-05,0
52.667,-2.4338e-05,0
52.667,-9.0639e-06,0
52.668,-2.8534e-06,0
52.668,2.5177e-06,0
52.669,1.3931e-05,0
52.669,2.5849e-05,0
52.67,3.3066e-05,0
52.67,3.5416e-05,0
52.671,3.3066e-05,0
52.671,3.0045e-05,0
52.672,2.5345e-05,0
52.672,2.3331e-05,0
52.673,2.652e-05,0
52.673,3.0045e-05,0
52.674,3.1388e-05,0
52.674,2.8702e-05,0
52.675,2.1317e-05,0
52.675,1.5274e-05,0
52.676,1.2757e-05,0
52.676,6.2104e-06,0
52.677,-5.539e-06,0
52.678,-8.2246e-06,0
52.678,-5.0355e-07,0
52.679,6.5461e-06,0
52.679,1.9974e-05,0
52.68,4.2802e-05,0
52.68,6.5965e-05,0
52.681,9.0974e-05,0
52.681,0.00012068,0
52.682,0.00014955,0
52.682,0.00017238,0
52.683,0.00018178,0
52.683,0.00017876,0
52.684,0.00016936,0
52.684,0.00014888,0
52.685,0.00011263,0
52.685,5.5222e-05,0
52.686,-2.4506e-05,0
52.686,-0.000118,0
52.687,-0.00020461,0
52.687,-0.00024573,0
52.688,-0.00023348,0
52.688,-0.00020192,0
52.689,-0.00016684,0
52.689,-0.00011884,0
52.69,-7.0329e-05,0
52.691,-4.5991e-05,0
52.691,-4.9851e-05,0
52.692,-6.009e-05,0
52.692,-5.5726e-05,0
52.693,-3.5584e-05,0
52.693,-1.1917e-05,0
52.694,3.5248e-06,0
52.694,9.9031e-06,0
52.695,1.4771e-05,0
52.695,2.2995e-05,0
52.696,3.3066e-05,0
52.696,3.9948e-05,0
52.697,4.2634e-05,0
52.697,4.4312e-05,0
52.698,5.2201e-05,0
52.698,6.0929e-05,0
52.699,6.4622e-05,0
52.699,6.63e-05,0
52.7,6.8986e-05,0
52.7,6.8986e-05,0
52.701,6.4286e-05,0
52.701,6.0929e-05,0
52.702,5.6565e-05,0
52.702,5.5558e-05,0
52.703,6.244e-05,0
52.703,7.4022e-05,0
52.704,8.5771e-05,0
52.705,9.6849e-05,0
52.705,0.00010457,0
52.706,0.00010927,0
52.706,0.00010121,0
52.707,8.04e-05,0
52.707,5.8412e-05,0
52.708,4.3977e-05,0
52.708,3.2563e-05,0
52.709,1.1246e-05,0
52.709,-2.1317e-05,0
52.71,-5.2705e-05,0
52.71,-7.2847e-05,0
52.711,-7.1336e-05,0
52.711,-3.3738e-05,0
52.712,2.9206e-05,0
52.712,6.7643e-05,0
52.713,5.5894e-05,0
52.713,1.6953e-05,0
52.714,-6.3783e-06,0
52.714,-3.1891e-06,0
52.715,1.326e-05,0
52.715,2.7359e-05,0
52.716,2.8031e-05,0
52.716,1.7456e-05,0
52.717,1.8463e-06,0
52.718,-8.5603e-06,0
52.718,-1.0575e-05,0
52.719,-5.539e-06,0
52.719,3.5248e-06,0
52.72,8.2246e-06,0
52.72,8.5603e-06,0
52.721,1.091e-05,0
52.721,1.7624e-05,0
52.722,2.5849e-05,0
52.722,3.7095e-05,0
52.723,4.8508e-05,0
52.723,5.623e-05,0
52.724,5.9251e-05,0
52.724,5.5726e-05,0
52.725,4.918e-05,0
52.725,4.2802e-05,0
52.726,3.9445e-05,0
52.726,3.2731e-05,0
52.727,2.1149e-05,0
52.727,1.6785e-05,0
52.728,2.2492e-05,0
52.728,2.8702e-05,0
52.729,2.7695e-05,0
52.729,2.5681e-05,0
52.73,3.3402e-05,0
52.73,4.7501e-05,0
52.731,5.5726e-05,0
52.732,5.7908e-05,0
52.732,6.1265e-05,0
52.733,6.2943e-05,0
52.733,5.3544e-05,0
52.734,4.0787e-05,0
52.734,4.0787e-05,0
52.735,5.0187e-05,0
52.735,5.1698e-05,0
52.736,4.3809e-05,0
52.736,3.4241e-05,0
52.737,2.5345e-05,0
52.737,1.2589e-05,0
52.738,-8.896e-06,0
52.738,-4.4816e-05,0
52.739,-8.3589e-05,0
52.739,-0.00010776,0
52.74,-0.00011128,0
52.74,-9.3324e-05,0
52.741,-6.5293e-05,0
52.741,-3.7934e-05,0
52.742,-1.3931e-05,0
52.742,2.5177e-06,0
52.743,1.0239e-05,0
52.743,1.7121e-05,0
52.744,2.7359e-05,0
52.745,4.1459e-05,0
52.745,5.153e-05,0
52.746,5.069e-05,0
52.746,4.683e-05,0
52.747,5.0187e-05,0
52.747,5.2033e-05,0
52.748,4.8173e-05,0
52.748,4.6159e-05,0
52.749,4.2802e-05,0
52.749,3.9612e-05,0
52.75,3.7934e-05,0
52.75,3.6927e-05,0
52.751,4.0116e-05,0
52.751,4.4984e-05,0
52.752,4.2298e-05,0
52.752,3.3906e-05,0
52.753,2.9709e-05,0
52.753,3.5416e-05,0
52.754,4.5487e-05,0
52.754,4.0116e-05,0
52.755,1.7121e-05,0
52.755,-9.7353e-06,0
52.756,-4.0787e-05,0
52.756,-7.6707e-05,0
52.757,-8.7617e-05,0
52.757,-4.4816e-05,0
52.758,4.8676e-06,0
52.759,5.8747e-06,0
52.759,-2.8031e-05,0
52.76,-4.1291e-05,0
52.76,-1.8296e-05,0
52.761,1.0575e-05,0
52.761,2.266e-05,0
52.762,1.9303e-05,0
52.762,1.5946e-05,0
52.763,1.9806e-05,0
52.763,2.4674e-05,0
52.764,3.3066e-05,0
52.764,4.7669e-05,0
52.765,5.8915e-05,0
52.765,5.8579e-05,0
52.766,5.2201e-05,0
52.766,4.8676e-05,0
52.767,5.3544e-05,0
52.767,6.7475e-05,0
52.768,8.0064e-05,0
52.768,8.275e-05,0
52.769,7.7714e-05,0
52.769,6.8986e-05,0
52.77,6.4958e-05,0
52.77,7.5029e-05,0
52.771,8.4428e-05,0
52.772,6.5461e-05,0
52.772,2.501e-05,0
52.773,-9.9031e-06,0
52.773,-5.539e-06,0
52.774,3.4745e-05,0
52.774,6.9657e-05,0
52.775,6.8147e-05,0
52.775,3.2731e-05,0
52.776,-3.0213e-06,0
52.776,-8.5603e-06,0
52.777,1.0575e-05,0
52.777,2.4338e-05,0
52.778,1.3596e-05,0
52.778,-1.3428e-05,0
52.779,-2.9374e-05,0
52.779,-2.1653e-05,0
52.78,2.182e-06,0
52.78,2.7024e-05,0
52.781,4.213e-05,0
52.781,3.7095e-05,0
52.782,1.2589e-05,0
52.782,-1.0742e-05,0
52.783,-2.266e-05,0
52.783,-3.4577e-05,0
52.784,-5.4719e-05,0
52.784,-6.2608e-05,0
52.785,-4.7333e-05,0
52.786,-2.266e-05,0
52.786,-2.0142e-06,0
52.787,1.9806e-05,0
52.787,3.3066e-05,0
52.788,2.4338e-05,0
52.788,-1.1749e-05,0
52.789,-5.2873e-05,0
52.789,-5.7572e-05,0
52.79,-2.1653e-05,0
52.79,2.1653e-05,0
52.791,5.2705e-05,0
52.791,6.63e-05,0
52.792,5.8915e-05,0
52.792,4.7333e-05,0
52.793,5.2873e-05,0
52.793,6.5629e-05,0
52.794,6.4286e-05,0
52.794,5.3544e-05,0
52.795,4.2802e-05,0
52.795,3.3402e-05,0
52.796,3.2059e-05,0
52.796,3.6423e-05,0
52.797,4.0116e-05,0
52.797,5.3208e-05,0
52.798,7.5364e-05,0
52.798,8.9464e-05,0
52.799,7.7714e-05,0
52.8,4.3977e-05,0
52.8,1.561e-05,0
52.801,1.6785e-06,0
52.801,-8.896e-06,0
52.802,-1.6953e-05,0
52.802,-2.3163e-05,0
52.803,-3.5752e-05,0
52.803,-5.2705e-05,0
52.804,-5.9586e-05,0
52.804,-4.3473e-05,0
52.805,-1.4435e-05,0
52.805,3.5248e-06,0
52.806,1.5106e-06,0
52.806,-4.1962e-06,0
52.807,2.182e-06,0
52.807,1.796e-05,0
52.808,2.9709e-05,0
52.808,3.4745e-05,0
52.809,3.5248e-05,0
52.809,3.743e-05,0
52.81,4.0452e-05,0
52.81,4.213e-05,0
52.811,3.743e-05,0
52.811,2.3331e-05,0
52.812,1.0407e-05,0
52.813,4.8676e-06,0
52.813,2.8534e-06,0
52.814,1.6785e-07,0
52.814,3.357e-06,0
52.815,2.031e-05,0
52.815,3.3066e-05,0
52.816,2.8199e-05,0
52.816,2.1317e-05,0
52.817,2.2995e-05,0
52.817,2.8534e-05,0
52.818,3.7095e-05,0
52.818,4.9516e-05,0
52.819,6.2608e-05,0
52.819,6.865e-05,0
52.82,6.63e-05,0
52.82,5.6733e-05,0
52.821,4.683e-05,0
52.821,3.6255e-05,0
52.822,7.7211e-06,0
52.822,-3.2731e-05,0
52.823,-5.069e-05,0
52.823,-4.0284e-05,0
52.824,-2.501e-05,0
52.824,-2.6352e-05,0
52.825,-3.0213e-05,0
52.825,-1.9974e-05,0
52.826,-1.561e-05,0
52.827,-1.8128e-05,0
52.827,3.6927e-06,0
52.828,3.3906e-05,0
52.828,3.3738e-05,0
52.829,8.896e-06,0
52.829,-1.8463e-06,0
52.83,2.182e-06,0
52.83,-2.8534e-06,0
52.831,-6.0426e-06,0
52.831,1.8967e-05,0
52.832,5.6565e-05,0
52.832,7.1e-05,0
52.833,5.7908e-05,0
52.833,3.2059e-05,0
52.834,9.2317e-06,0
52.834,-1.1749e-06,0
52.835,4.5319e-06,0
52.835,2.4674e-05,0
52.836,4.7501e-05,0
52.836,5.7237e-05,0
52.837,5.1194e-05,0
52.837,4.5823e-05,0
52.838,6.0594e-05,0
52.838,8.6778e-05,0
52.839,9.7353e-05,0
52.84,8.7785e-05,0
52.84,6.0258e-05,0
52.841,3.4073e-05,0
52.841,2.9877e-05,0
52.842,4.9516e-05,0
52.842,7.0329e-05,0
52.843,7.2679e-05,0
52.843,5.9586e-05,0
52.844,5.153e-05,0
52.844,5.8747e-05,0
52.845,6.2943e-05,0
52.845,5.3544e-05,0
52.846,4.2466e-05,0
52.846,2.7863e-05,0
52.847,1.091e-05,0
52.847,4.1962e-06,0
52.848,7.5532e-06,0
52.848,1.2924e-05,0
52.849,2.1317e-05,0
52.849,2.6017e-05,0
52.85,1.0575e-05,0
52.85,-1.5946e-05,0
52.851,-2.0813e-05,0
52.851,7.7211e-06,0
52.852,3.743e-05,0
52.852,3.2898e-05,0
52.853,5.8747e-06,0
52.854,-9.9031e-06,0
52.854,-1.6785e-07,0
52.855,1.326e-05,0
52.855,1.7288e-05,0
52.856,2.4002e-05,0
52.856,3.4073e-05,0
52.857,4.0116e-05,0
52.857,3.7263e-05,0
52.858,1.8967e-05,0
52.858,8.3925e-07,0
52.859,1.091e-05,0
52.859,3.743e-05,0
52.86,3.7095e-05,0
52.86,9.7353e-06,0
52.861,-1.6785e-07,0
52.861,9.5674e-06,0
52.862,1.1917e-05,0
52.862,6.3783e-06,0
52.863,1.561e-05,0
52.863,3.9445e-05,0
52.864,5.2201e-05,0
52.864,4.4648e-05,0
52.865,2.5345e-05,0
52.865,-1.5106e-06,0
52.866,-2.4338e-05,0
52.867,-1.8296e-05,0
52.867,1.0575e-05,0
52.868,2.2995e-05,0
52.868,2.031e-05,0
52.869,3.3738e-05,0
52.869,6.8147e-05,0
52.87,0.00010222,0
52.87,0.00011531,0
52.871,0.0001039,0
52.871,6.63e-05,0
52.872,1.8463e-05,0
52.872,-7.8889e-06,0
52.873,-9.2317e-06,0
52.873,-5.2033e-06,0
52.874,-2.1149e-05,0
52.874,-5.4215e-05,0
52.875,-7.9225e-05,0
52.875,-8.4932e-05,0
52.876,-6.714e-05,0
52.876,-3.6927e-05,0
52.877,-1.2589e-05,0
52.877,7.5532e-06,0
52.878,2.4338e-05,0
52.878,2.6352e-05,0
52.879,2.182e-06,0
52.88,-3.5416e-05,0
52.88,-5.9419e-05,0
52.881,-7.1336e-05,0
52.881,-8.7114e-05,0
52.882,-9.8024e-05,0
52.882,-8.5603e-05,0
52.883,-5.2537e-05,0
52.883,-1.6617e-05,0
52.884,4.6998e-06,0
52.884,1.6953e-05,0
52.885,3.827e-05,0
52.885,6.6636e-05,0
52.886,8.51e-05,0
52.886,8.5267e-05,0
52.887,7.9393e-05,0
52.887,7.6707e-05,0
52.888,7.335e-05,0
52.888,6.5965e-05,0
52.889,5.7237e-05,0
52.889,5.3376e-05,0
52.89,5.2201e-05,0
52.89,3.978e-05,0
52.891,2.031e-05,0
52.891,7.8889e-06,0
52.892,-7.0497e-06,0
52.892,-2.8534e-05,0
52.893,-4.5151e-05,0
52.894,-4.5487e-05,0
52.894,-2.8534e-05,0
52.895,6.714e-07,0
52.895,2.887e-05,0
52.896,4.4984e-05,0
52.896,4.7501e-05,0
52.897,5.2537e-05,0
52.897,6.4118e-05,0
52.898,6.7979e-05,0
52.898,6.0594e-05,0
52.899,5.388e-05,0
52.899,5.0858e-05,0
52.9,4.4816e-05,0
52.9,3.6423e-05,0
52.901,2.266e-05,0
52.901,1.7792e-05,0
52.902,3.743e-05,0
52.902,6.4118e-05,0
52.903,7.8386e-05,0
52.903,7.5532e-05,0
52.904,6.2608e-05,0
52.904,4.9516e-05,0
52.905,4.2298e-05,0
52.905,3.4409e-05,0
52.906,2.0981e-05,0
52.907,6.5461e-06,0
52.907,-3.8605e-06,0
52.908,-8.2246e-06,0
52.908,-2.8534e-06,0
52.909,8.3925e-07,0
52.909,-8.3925e-06,0
52.91,-1.1078e-05,0
52.91,2.5177e-06,0
52.911,2.2324e-05,0
52.911,3.4745e-05,0
52.912,3.6759e-05,0
52.912,3.5248e-05,0
52.913,3.743e-05,0
52.913,4.0787e-05,0
52.914,3.6591e-05,0
52.914,1.9303e-05,0
52.915,-7.2175e-06,0
52.915,-2.0478e-05,0
52.916,-4.5319e-06,0
52.916,1.5778e-05,0
52.917,2.1317e-05,0
52.917,2.7863e-05,0
52.918,4.5487e-05,0
52.918,5.7572e-05,0
52.919,5.5726e-05,0
52.919,5.2033e-05,0
52.92,5.7237e-05,0
52.921,7.3686e-05,0
52.921,8.6442e-05,0
52.922,8.8289e-05,0
52.922,8.426e-05,0
52.923,8.2414e-05,0
52.923,7.7714e-05,0
52.924,6.0258e-05,0
52.924,2.8031e-05,0
52.925,-4.3641e-06,0
52.925,-1.9303e-05,0
52.926,-2.4338e-05,0
52.926,-4.1123e-05,0
52.927,-5.388e-05,0
52.927,-2.2324e-05,0
52.928,3.2395e-05,0
52.928,5.539e-05,0
52.929,4.5487e-05,0
52.929,3.2898e-05,0
52.93,3.508e-05,0
52.93,5.2537e-05,0
52.931,6.8147e-05,0
52.931,6.9657e-05,0
52.932,5.5222e-05,0
52.932,4.1627e-05,0
52.933,4.2634e-05,0
52.934,4.0116e-05,0
52.934,1.1749e-05,0
52.935,-1.8296e-05,0
52.935,-6.5461e-06,0
52.936,3.0381e-05,0
52.936,4.9516e-05,0
52.937,4.1962e-05,0
52.937,7.8889e-06,0
52.938,-5.1362e-05,0
52.938,-0.00010105,0
52.939,-0.0001044,0
52.939,-7.4022e-05,0
52.94,-4.1794e-05,0
52.94,-2.3835e-05,0
52.941,-1.1582e-05,0
52.941,0,0
52.942,-1.5106e-06,0
52.942,-1.091e-05,0
52.943,-1.9974e-05,0
52.943,-2.5681e-05,0
52.944,-2.3835e-05,0
52.944,-1.3092e-05,0
52.945,4.8676e-06,0
52.945,2.4338e-05,0
52.946,3.5416e-05,0
52.946,3.2563e-05,0
52.947,2.4002e-05,0
52.948,2.1988e-05,0
52.948,2.0478e-05,0
52.949,9.0639e-06,0
52.949,-8.896e-06,0
52.95,-1.8631e-05,0
52.95,-1.0239e-05,0
52.951,1.0575e-05,0
52.951,3.3738e-05,0
52.952,3.743e-05,0
52.952,2.8702e-05,0
52.953,4.3809e-05,0
52.953,7.7211e-05,0
52.954,8.275e-05,0
52.954,4.1794e-05,0
52.955,-1.7624e-05,0
52.955,-6.1769e-05,0
52.956,-6.7308e-05,0
52.956,-4.3809e-05,0
52.957,-2.0645e-05,0
52.957,-1.2924e-05,0
52.958,-2.0478e-05,0
52.958,-2.5177e-05,0
52.959,-5.8747e-06,0
52.959,3.3066e-05,0
52.96,6.5293e-05,0
52.961,7.9393e-05,0
52.961,9.2149e-05,0
52.962,0.00010591,0
52.962,0.00010054,0
52.963,7.57e-05,0
52.963,5.0858e-05,0
52.964,4.2802e-05,0
52.964,4.2466e-05,0
52.965,3.978e-05,0
52.965,3.3234e-05,0
52.966,2.6688e-05,0
52.966,2.2324e-05,0
52.967,1.561e-05,0
52.967,1.326e-05,0
52.968,1.3596e-05,0
52.968,1.0575e-05,0
52.969,9.2317e-06,0
52.969,1.9974e-05,0
52.97,4.1123e-05,0
52.97,5.0858e-05,0
52.971,4.1459e-05,0
52.971,2.4506e-05,0
52.972,1.0575e-05,0
52.972,2.182e-06,0
52.973,-5.539e-06,0
52.973,-1.3596e-05,0
52.974,-9.7353e-06,0
52.975,2.3499e-06,0
52.975,9.7353e-06,0
52.976,1.2253e-05,0
52.976,1.0575e-05,0
52.977,1.4267e-05,0
52.977,3.0549e-05,0
52.978,4.4816e-05,0
52.978,4.8173e-05,0
52.979,4.6326e-05,0
52.979,4.448e-05,0
52.98,4.448e-05,0
52.98,4.4816e-05,0
52.981,4.9516e-05,0
52.981,4.8844e-05,0
52.982,3.978e-05,0
52.982,3.7934e-05,0
52.983,4.683e-05,0
52.983,5.623e-05,0
52.984,5.6062e-05,0
52.984,4.5487e-05,0
52.985,3.2731e-05,0
52.985,2.266e-05,0
52.986,1.4267e-05,0
52.986,-1.5106e-06,0
52.987,-2.1653e-05,0
52.987,-2.9038e-05,0
52.988,-1.9806e-05,0
52.989,-4.6998e-06,0
52.989,1.561e-05,0
52.99,3.2059e-05,0
52.99,3.8437e-05,0
52.991,3.8773e-05,0
52.991,3.9612e-05,0
52.992,4.1123e-05,0
52.992,3.8773e-05,0
52.993,3.2563e-05,0
52.993,3.1052e-05,0
52.994,3.3738e-05,0
52.994,3.7095e-05,0
52.995,3.8437e-05,0
52.995,3.1388e-05,0
52.996,1.796e-05,0
52.996,6.2104e-06,0
52.997,-3.0213e-06,0
52.997,-1.3764e-05,0
52.998,-3.0381e-05,0
52.998,-4.5151e-05,0
52.999,-4.448e-05,0
52.999,-2.7192e-05,0
53,-8.3925e-06,0
53,5.2033e-06,0
53.001,2.266e-05,0
53.002,4.3809e-05,0
53.002,5.6062e-05,0
53.003,5.7237e-05,0
53.003,5.5558e-05,0
53.004,5.4047e-05,0
53.004,3.8437e-05,0
53.005,4.5319e-06,0
53.005,-1.9638e-05,0
53.006,-3.5248e-06,0
53.006,3.8773e-05,0
53.007,6.5629e-05,0
53.007,6.1265e-05,0
53.008,4.213e-05,0
53.008,2.4842e-05,0
53.009,1.8296e-05,0
53.009,2.8031e-05,0
53.01,4.4816e-05,0
53.01,4.7837e-05,0
53.011,3.2059e-05,0
53.011,2.0142e-05,0
53.012,2.182e-05,0
53.012,3.1052e-05,0
53.013,4.2802e-05,0
53.013,5.304e-05,0
53.014,6.0258e-05,0
53.014,6.1936e-05,0
53.015,6.6972e-05,0
53.016,7.7714e-05,0
53.016,6.4958e-05,0
53.017,1.5106e-05,0
53.017,-3.6423e-05,0
53.018,-4.5823e-05,0
53.018,-1.326e-05,0
53.019,7.8889e-06,0
53.019,-2.1653e-05,0
53.02,-6.3951e-05,0
53.02,-7.6036e-05,0
53.021,-6.865e-05,0
53.021,-7.3854e-05,0
53.022,-8.0064e-05,0
53.022,-6.1936e-05,0
53.023,-2.2156e-05,0
53.023,1.561e-05,0
53.024,2.031e-05,0
53.024,-3.5248e-06,0
53.025,-1.6953e-05,0
53.025,-1.3931e-05,0
53.026,-1.5274e-05,0
53.026,-1.2589e-05,0
53.027,1.3092e-05,0
53.027,2.9709e-05,0
53.028,1.7288e-05,0
53.029,1.3596e-05,0
53.029,4.0116e-05,0
53.03,6.8986e-05,0
53.03,7.2511e-05,0
53.031,5.9586e-05,0
53.031,4.5487e-05,0
53.032,2.9709e-05,0
53.032,2.266e-05,0
53.033,3.2059e-05,0
53.033,4.2298e-05,0
53.034,4.918e-05,0
53.034,6.6972e-05,0
53.035,8.5771e-05,0
53.035,8.275e-05,0
53.036,6.8315e-05,0
53.036,6.2272e-05,0
53.037,6.5965e-05,0
53.037,7.0161e-05,0
53.038,7.2007e-05,0
53.038,7.3014e-05,0
53.039,7.0161e-05,0
53.039,6.0929e-05,0
53.04,4.5823e-05,0
53.04,2.5849e-05,0
53.041,5.539e-06,0
53.041,-1.0575e-05,0
53.042,-2.8031e-05,0
53.043,-4.5151e-05,0
53.043,-4.918e-05,0
53.044,-4.6159e-05,0
53.044,-4.3305e-05,0
53.045,-2.7024e-05,0
53.045,-1.091e-05,0
53.046,-2.031e-05,0
53.046,-3.4577e-05,0
53.047,-2.8702e-05,0
53.047,-1.1078e-05,0
53.048,1.1582e-05,0
53.048,3.9445e-05,0
53.049,6.1097e-05,0
53.049,6.6804e-05,0
53.05,6.009e-05,0
53.05,5.3376e-05,0
53.051,5.1865e-05,0
53.051,4.4816e-05,0
53.052,3.2395e-05,0
53.052,2.1149e-05,0
53.053,2.0142e-05,0
53.053,2.9877e-05,0
53.054,4.4816e-05,0
53.054,5.4887e-05,0
53.055,4.9348e-05,0
53.056,3.743e-05,0
53.056,3.2731e-05,0
53.057,3.827e-05,0
53.057,4.3305e-05,0
53.058,4.1962e-05,0
53.058,4.5487e-05,0
53.059,5.0187e-05,0
53.059,5.0858e-05,0
53.06,5.3208e-05,0
53.06,5.1865e-05,0
53.061,4.8173e-05,0
53.061,5.4719e-05,0
53.062,6.7308e-05,0
53.062,7.5532e-05,0
53.063,7.3014e-05,0
53.063,4.7669e-05,0
53.064,8.896e-06,0
53.064,-1.796e-05,0
53.065,-3.7766e-05,0
53.065,-6.6468e-05,0
53.066,-8.1575e-05,0
53.066,-5.5222e-05,0
53.067,-6.5461e-06,0
53.067,5.2033e-06,0
53.068,-2.7695e-05,0
53.069,-5.2033e-05,0
53.069,-5.5894e-05,0
53.07,-7.2007e-05,0
53.07,-9.3324e-05,0
53.071,-0.00010491,0
53.071,-0.00010692,0
53.072,-0.00010037,0
53.072,-7.4357e-05,0
53.073,-3.4577e-05,0
53.073,-1.0071e-06,0
53.074,1.1749e-06,0
53.074,-2.1653e-05,0
53.075,-4.1459e-05,0
53.075,-3.5752e-05,0
53.076,-6.8818e-06,0
53.076,3.9445e-05,0
53.077,9.1142e-05,0
53.077,0.00013915,0
53.078,0.00017977,0
53.078,0.00019437,0
53.079,0.00017272,0
53.079,0.00013075,0
53.08,0.00010457,0
53.08,0.00010507,0
53.081,0.00010155,0
53.081,7.3014e-05,0
53.082,4.213e-05,0
53.083,2.3499e-05,0
53.083,5.7069e-06,0
53.084,-9.9031e-06,0
53.084,-2.0478e-05,0
53.085,-2.7695e-05,0
53.085,-2.4338e-05,0
53.086,-8.896e-06,0
53.086,5.8747e-06,0
53.087,1.2421e-05,0
53.087,1.8967e-05,0
53.088,3.122e-05,0
53.088,4.2466e-05,0
53.089,4.0452e-05,0
53.089,2.9038e-05,0
53.09,1.2757e-05,0
53.09,-9.5674e-06,0
53.091,-2.3499e-06,0
53.091,4.1291e-05,0
53.092,7.2175e-05,0
53.092,5.3544e-05,0
53.093,5.2033e-06,0
53.093,-2.6017e-05,0
53.094,-1.091e-05,0
53.094,3.4745e-05,0
53.095,6.7475e-05,0
53.096,5.6565e-05,0
53.096,1.9974e-05,0
53.097,-8.7282e-06,0
53.097,-1.7624e-05,0
53.098,-1.6281e-05,0
53.098,-1.3931e-05,0
53.099,-1.3931e-05,0
53.099,-1.5946e-05,0
53.1,-1.2589e-05,0
53.1,8.3925e-07,0
53.101,2.1317e-05,0
53.101,3.3234e-05,0
53.102,3.2731e-05,0
53.102,3.4745e-05,0
53.103,5.8076e-05,0
53.103,9.9199e-05,0
53.104,0.00012992,0
53.104,0.00013596,0
53.105,0.00013075,0
53.105,0.00013545,0
53.106,0.00014989,0
53.106,0.00014922,0
53.107,0.00010944,0
53.107,4.0116e-05,0
53.108,-2.4002e-05,0
53.108,-4.5151e-05,0
53.109,-2.9877e-05,0
53.11,-1.3764e-05,0
53.11,-1.2924e-05,0
53.111,-2.1653e-05,0
53.111,-3.122e-05,0
53.112,-3.0884e-05,0
53.112,-2.1988e-05,0
53.113,-2.4002e-05,0
53.113,-4.1794e-05,0
53.114,-5.2369e-05,0
53.114,-5.1194e-05,0
53.115,-5.2537e-05,0
53.115,-4.8844e-05,0
53.116,-3.2059e-05,0
53.116,-1.9974e-05,0
53.117,-1.7624e-05,0
53.117,5.0355e-07,0
53.118,3.5752e-05,0
53.118,6.479e-05,0
53.119,7.7043e-05,0
53.119,7.4357e-05,0
53.12,6.3615e-05,0
53.12,4.8508e-05,0
53.121,2.9374e-05,0
53.121,2.6017e-05,0
53.122,4.0787e-05,0
53.123,4.683e-05,0
53.123,2.5513e-05,0
53.124,-4.5319e-06,0
53.124,-1.8463e-05,0
53.125,-7.5532e-06,0
53.125,2.182e-05,0
53.126,3.9445e-05,0
53.126,2.417e-05,0
53.127,-8.3925e-07,0
53.127,-8.2246e-06,0
53.128,-3.8605e-06,0
53.128,1.6785e-07,0
53.129,-4.0284e-06,0
53.129,-1.2589e-05,0
53.13,-1.2757e-05,0
53.13,5.2033e-06,0
53.131,1.8128e-05,0
53.131,5.0355e-07,0
53.132,-1.4939e-05,0
53.132,9.5674e-06,0
53.133,4.1459e-05,0
53.133,4.3305e-05,0
53.134,1.4771e-05,0
53.134,-8.2246e-06,0
53.135,-1.0071e-06,0
53.135,1.0575e-05,0
53.136,1.326e-05,0
53.137,1.7456e-05,0
53.137,3.3402e-05,0
53.138,6.2943e-05,0
53.138,8.9128e-05,0
53.139,9.2485e-05,0
53.139,5.9754e-05,0
53.14,4.1962e-06,0
53.14,-4.1962e-05,0
53.141,-5.3208e-05,0
53.141,-3.8605e-05,0
53.142,-2.9038e-05,0
53.142,-4.6494e-05,0
53.143,-6.8986e-05,0
53.143,-5.6901e-05,0
53.144,-8.3925e-06,0
53.144,4.0452e-05,0
53.145,5.9251e-05,0
53.145,5.7404e-05,0
53.146,5.7572e-05,0
53.146,6.8482e-05,0
53.147,8.3421e-05,0
53.147,8.7114e-05,0
53.148,7.7714e-05,0
53.148,6.8315e-05,0
53.149,6.2943e-05,0
53.15,5.9419e-05,0
53.15,5.8244e-05,0
53.151,6.3279e-05,0
53.151,7.4022e-05,0
53.152,7.8553e-05,0
53.152,7.7714e-05,0
53.153,7.3686e-05,0
53.153,6.5629e-05,0
53.154,5.5726e-05,0
53.154,4.683e-05,0
53.155,3.2563e-05,0
53.155,1.326e-05,0
53.156,-1.5106e-06,0
53.156,-1.326e-05,0
53.157,-2.2828e-05,0
53.157,-1.9974e-05,0
53.158,-1.2757e-05,0
53.158,-1.5442e-05,0
53.159,-1.3596e-05,0
53.159,5.2033e-06,0
53.16,1.561e-05,0
53.16,1.0071e-06,0
53.161,-9.2317e-06,0
53.161,1.2589e-05,0
53.162,4.8173e-05,0
53.162,5.9586e-05,0
53.163,4.5487e-05,0
53.164,2.8031e-05,0
53.164,1.6449e-05,0
53.165,8.5603e-06,0
53.165,7.8889e-06,0
53.166,2.0478e-05,0
53.166,3.3234e-05,0
53.167,3.1724e-05,0
53.167,1.5274e-05,0
53.168,-5.0355e-06,0
53.168,-1.3596e-05,0
53.169,-5.8747e-06,0
53.169,8.3925e-07,0
53.17,1.1749e-06,0
53.17,7.2175e-06,0
53.171,2.1988e-05,0
53.171,3.592e-05,0
53.172,4.2802e-05,0
53.172,4.2802e-05,0
53.173,4.0787e-05,0
53.173,3.8773e-05,0
53.174,3.743e-05,0
53.174,3.3738e-05,0
53.175,2.9709e-05,0
53.175,3.0716e-05,0
53.176,4.0116e-05,0
53.176,5.069e-05,0
53.177,5.623e-05,0
53.178,5.5558e-05,0
53.178,4.918e-05,0
53.179,3.8102e-05,0
53.179,2.7695e-05,0
53.18,1.9806e-05,0
53.18,7.7211e-06,0
53.181,-4.0284e-06,0
53.181,-6.8818e-06,0
53.182,-7.8889e-06,0
53.182,-1.1917e-05,0
53.183,-1.9638e-05,0
53.183,-2.4002e-05,0
53.184,-1.6617e-05,0
53.184,-6.2104e-06,0
53.185,6.0426e-06,0
53.185,2.5849e-05,0
53.186,4.1459e-05,0
53.186,4.7669e-05,0
53.187,4.8173e-05,0
53.187,4.1962e-05,0
53.188,1.4267e-05,0
53.188,-3.4745e-05,0
53.189,-5.9586e-05,0
53.189,-2.7024e-05,0
53.19,2.0478e-05,0
53.191,3.3234e-05,0
53.191,1.4099e-05,0
53.192,-8.896e-06,0
53.192,-1.9638e-05,0
53.193,-1.9135e-05,0
53.193,-1.5274e-05,0
53.194,-6.5461e-06,0
53.194,1.6785e-06,0
53.195,-8.3925e-06,0
53.195,-2.652e-05,0
53.196,-1.8296e-05,0
53.196,6.5461e-06,0
53.197,1.1582e-05,0
53.197,6.2104e-06,0
53.198,1.0239e-05,0
53.198,2.031e-05,0
53.199,2.4002e-05,0
53.199,2.031e-05,0
53.2,1.9974e-05,0
53.2,3.6255e-05,0
53.201,5.7404e-05,0
53.201,6.8986e-05,0
53.202,8.1575e-05,0
53.202,9.7856e-05,0
53.203,9.8863e-05,0
53.203,7.8721e-05,0
53.204,6.1097e-05,0
53.205,5.2201e-05,0
53.205,2.9541e-05,0
53.206,-4.8676e-06,0
53.206,-2.5681e-05,0
53.207,-2.887e-05,0
53.207,-2.7192e-05,0
53.208,-1.6281e-05,0
53.208,7.3854e-06,0
53.209,1.2085e-05,0
53.209,-1.6785e-07,0
53.21,1.3596e-05,0
53.21,5.1362e-05,0
53.211,7.6371e-05,0
53.211,7.2007e-05,0
53.212,5.5222e-05,0
53.212,4.918e-05,0
53.213,5.4551e-05,0
53.213,6.2272e-05,0
53.214,6.7643e-05,0
53.214,6.8315e-05,0
53.215,6.6804e-05,0
53.215,6.3951e-05,0
53.216,5.4887e-05,0
53.216,4.0787e-05,0
53.217,2.501e-05,0
53.218,2.3499e-06,0
53.218,-3.5752e-05,0
53.219,-7.7714e-05,0
53.219,-9.3492e-05,0
53.22,-7.7043e-05,0
53.22,-5.7069e-05,0
53.221,-6.1601e-05,0
53.221,-6.865e-05,0
53.222,-4.9348e-05,0
53.222,-2.1653e-05,0
53.223,-6.5461e-06,0
53.223,5.7069e-06,0
53.224,2.8534e-05,0
53.224,5.623e-05,0
53.225,7.4357e-05,0
53.225,7.3686e-05,0
53.226,5.8747e-05,0
53.226,4.2802e-05,0
53.227,3.2059e-05,0
53.227,2.3163e-05,0
53.228,2.3331e-05,0
53.228,3.3738e-05,0
53.229,4.1291e-05,0
53.229,3.592e-05,0
53.23,2.6352e-05,0
53.23,2.5345e-05,0
53.231,3.0716e-05,0
53.232,3.592e-05,0
53.232,4.0787e-05,0
53.233,4.5823e-05,0
53.233,5.1362e-05,0
53.234,5.6565e-05,0
53.234,6.2104e-05,0
53.235,6.7643e-05,0
53.235,7.1168e-05,0
53.236,7.0329e-05,0
53.236,6.3615e-05,0
53.237,5.8915e-05,0
53.237,5.5726e-05,0
53.238,4.9516e-05,0
53.238,4.0452e-05,0
53.239,3.1891e-05,0
53.239,2.3667e-05,0
53.24,1.4267e-05,0
53.24,2.182e-06,0
53.241,-1.3764e-05,0
53.241,-2.3499e-05,0
53.242,-2.417e-05,0
53.242,-1.8799e-05,0
53.243,-1.1246e-05,0
53.243,-5.539e-06,0
53.244,-1.1078e-05,0
53.245,-2.3667e-05,0
53.245,-2.7024e-05,0
53.246,-2.0813e-05,0
53.246,-1.3092e-05,0
53.247,-8.7282e-06,0
53.247,-9.5674e-06,0
53.248,-1.1749e-05,0
53.248,-1.1917e-05,0
53.249,-1.2924e-05,0
53.249,-1.091e-05,0
53.25,-1.1749e-06,0
53.25,1.4267e-05,0
53.251,3.0381e-05,0
53.251,4.7333e-05,0
53.252,6.4286e-05,0
53.252,7.57e-05,0
53.253,7.8721e-05,0
53.253,8.04e-05,0
53.254,8.426e-05,0
53.254,8.4764e-05,0
53.255,8.3757e-05,0
53.255,8.275e-05,0
53.256,7.57e-05,0
53.256,6.1936e-05,0
53.257,4.1962e-05,0
53.258,2.1317e-05,0
53.258,9.0639e-06,0
53.259,1.5106e-06,0
53.259,-1.1078e-05,0
53.26,-2.9038e-05,0
53.26,-3.508e-05,0
53.261,-2.2995e-05,0
53.261,-4.3641e-06,0
53.262,8.5603e-06,0
53.262,1.0239e-05,0
53.263,-1.6785e-07,0
53.263,-1.5442e-05,0
53.264,-2.7527e-05,0
53.264,-4.3137e-05,0
53.265,-6.0594e-05,0
53.265,-6.6133e-05,0
53.266,-5.7908e-05,0
53.266,-3.8605e-05,0
53.267,-3.1891e-06,0
53.267,3.9109e-05,0
53.268,6.2104e-05,0
53.268,5.8076e-05,0
53.269,4.213e-05,0
53.269,3.0381e-05,0
53.27,2.7359e-05,0
53.27,2.8367e-05,0
53.271,2.9374e-05,0
53.272,3.8102e-05,0
53.272,5.0187e-05,0
53.273,5.3544e-05,0
53.273,5.1026e-05,0
53.274,5.539e-05,0
53.274,6.7475e-05,0
53.275,7.1672e-05,0
53.275,6.63e-05,0
53.276,6.1601e-05,0
53.276,5.4887e-05,0
53.277,4.6494e-05,0
53.277,4.1459e-05,0
53.278,3.8605e-05,0
53.278,2.9374e-05,0
53.279,2.1317e-05,0
53.279,2.5345e-05,0
53.28,3.122e-05,0
53.28,1.8631e-05,0
53.281,-4.1962e-06,0
53.281,-1.561e-05,0
53.282,-1.796e-05,0
53.282,-1.0407e-05,0
53.283,1.1078e-05,0
53.283,3.3402e-05,0
53.284,4.6326e-05,0
53.285,4.4144e-05,0
53.285,1.1917e-05,0
53.286,-4.918e-05,0
53.286,-8.896e-05,0
53.287,-7.0329e-05,0
53.287,-2.8367e-05,0
53.288,-5.7069e-06,0
53.288,-6.5461e-06,0
53.289,-1.091e-05,0
53.289,-2.8534e-06,0
53.29,1.6953e-05,0
53.29,4.1459e-05,0
53.291,6.1433e-05,0
53.291,6.8986e-05,0
53.292,6.6804e-05,0
53.292,6.3111e-05,0
53.293,5.5558e-05,0
53.293,4.1459e-05,0
53.294,3.3738e-05,0
53.294,4.0955e-05,0
53.295,5.3376e-05,0
53.295,5.388e-05,0
53.296,4.0452e-05,0
53.296,3.3402e-05,0
53.297,4.4648e-05,0
53.297,6.4958e-05,0
53.298,7.6875e-05,0
53.299,6.7308e-05,0
53.299,3.3402e-05,0
53.3,-1.6281e-05,0
53.3,-5.5726e-05,0
53.301,-6.5965e-05,0
53.301,-4.3641e-05,0
53.302,-1.8631e-05,0
53.302,-2.1653e-05,0
53.303,-5.0523e-05,0
53.303,-7.5868e-05,0
53.304,-6.9993e-05,0
53.304,-2.5681e-05,0
53.305,3.3066e-05,0
53.305,7.4357e-05,0
53.306,8.5435e-05,0
53.306,7.3518e-05,0
53.307,5.3544e-05,0
53.307,4.0116e-05,0
53.308,3.2563e-05,0
53.308,3.0045e-05,0
53.309,2.9374e-05,0
53.309,2.4338e-05,0
53.31,1.8296e-05,0
53.31,3.0213e-05,0
53.311,6.0594e-05,0
53.312,8.5771e-05,0
53.312,9.0135e-05,0
53.313,7.5029e-05,0
53.313,5.6901e-05,0
53.314,5.6565e-05,0
53.314,6.949e-05,0
53.315,6.9154e-05,0
53.315,5.9754e-05,0
53.316,5.7572e-05,0
53.316,6.2943e-05,0
53.317,5.1865e-05,0
53.317,1.2085e-05,0
53.318,-1.3931e-05,0
53.318,7.8889e-06,0
53.319,4.2634e-05,0
53.319,3.0381e-05,0
53.32,-3.827e-05,0
53.32,-0.00011481,0
53.321,-0.0001514,0
53.321,-0.00014469,0
53.322,-0.00011514,0
53.322,-8.04e-05,0
53.323,-5.2537e-05,0
53.323,-3.8773e-05,0
53.324,-3.122e-05,0
53.324,-2.2324e-05,0
53.325,-1.2589e-05,0
53.326,5.0355e-07,0
53.326,9.7353e-06,0
53.327,9.2317e-06,0
53.327,7.0497e-06,0
53.328,5.539e-06,0
53.328,-3.1891e-06,0
53.329,-1.0575e-05,0
53.329,-4.1962e-06,0
53.33,1.4435e-05,0
53.33,3.5416e-05,0
53.331,5.3376e-05,0
53.331,6.6133e-05,0
53.332,6.6804e-05,0
53.332,6.0594e-05,0
53.333,6.0594e-05,0
53.333,7.335e-05,0
53.334,8.4428e-05,0
53.334,7.9057e-05,0
53.335,6.3111e-05,0
53.335,3.6759e-05,0
53.336,1.3428e-05,0
53.336,1.3596e-05,0
53.337,2.7863e-05,0
53.337,2.5849e-05,0
53.338,1.9135e-05,0
53.339,3.6088e-05,0
53.339,6.6636e-05,0
53.34,8.4764e-05,0
53.34,8.51e-05,0
53.341,7.5029e-05,0
53.341,6.6972e-05,0
53.342,6.4286e-05,0
53.342,5.539e-05,0
53.343,3.6423e-05,0
53.343,2.0142e-05,0
53.344,8.5603e-06,0
53.344,1.3092e-05,0
53.345,3.6759e-05,0
53.345,4.2466e-05,0
53.346,2.8031e-05,0
53.346,2.8031e-05,0
53.347,4.0787e-05,0
53.347,4.2634e-05,0
53.348,3.2731e-05,0
53.348,1.7624e-05,0
53.349,1.1749e-05,0
53.349,1.9303e-05,0
53.35,2.4674e-05,0
53.35,2.0813e-05,0
53.351,1.2421e-05,0
53.351,-3.357e-07,0
53.352,-1.5274e-05,0
53.353,-1.9135e-05,0
53.353,-8.5603e-06,0
53.354,4.5319e-06,0
53.354,1.1246e-05,0
53.355,2.031e-05,0
53.355,3.4409e-05,0
53.356,4.2802e-05,0
53.356,4.0787e-05,0
53.357,3.6088e-05,0
53.357,3.2563e-05,0
53.358,3.4241e-05,0
53.358,3.9445e-05,0
53.359,4.4984e-05,0
53.359,4.7501e-05,0
53.36,4.2634e-05,0
53.36,4.0452e-05,0
53.361,4.8173e-05,0
53.361,5.1865e-05,0
53.362,4.1459e-05,0
53.362,2.3667e-05,0
53.363,5.2033e-06,0
53.363,0,0
53.364,1.3596e-05,0
53.364,3.3402e-05,0
53.365,4.8676e-05,0
53.365,5.4887e-05,0
53.366,3.9445e-05,0
53.367,1.0407e-05,0
53.367,5.0355e-07,0
53.368,1.8463e-05,0
53.368,3.592e-05,0
53.369,2.4506e-05,0
53.369,4.5319e-06,0
53.37,4.6998e-06,0
53.37,1.4267e-05,0
53.371,1.561e-05,0
53.371,1.326e-05,0
53.372,8.2246e-06,0
53.372,-8.0568e-06,0
53.373,-2.887e-05,0
53.373,-3.9948e-05,0
53.374,-3.6759e-05,0
53.374,-2.182e-05,0
53.375,-7.0497e-06,0
53.375,-9.2317e-06,0
53.376,-2.5177e-05,0
53.376,-3.508e-05,0
53.377,-2.5345e-05,0
53.377,-6.714e-07,0
53.378,2.4002e-05,0
53.378,3.8102e-05,0
53.379,4.5319e-05,0
53.38,5.2201e-05,0
53.38,5.8579e-05,0
53.381,5.8244e-05,0
53.381,4.1962e-05,0
53.382,2.0142e-05,0
53.382,8.3925e-06,0
53.383,9.2317e-06,0
53.383,1.3596e-05,0
53.384,1.2924e-05,0
53.384,8.5603e-06,0
53.385,4.3641e-06,0
53.385,5.0355e-07,0
53.386,-8.2246e-06,0
53.386,-2.3331e-05,0
53.387,-4.4648e-05,0
53.387,-6.8147e-05,0
53.388,-8.0903e-05,0
53.388,-6.7308e-05,0
53.389,-2.7695e-05,0
53.389,8.896e-06,0
53.39,2.7024e-05,0
53.39,3.2059e-05,0
53.391,3.0884e-05,0
53.391,1.8631e-05,0
53.392,4.5319e-06,0
53.392,6.8818e-06,0
53.393,3.0045e-05,0
53.394,5.9251e-05,0
53.394,6.5293e-05,0
53.395,4.2466e-05,0
53.395,3.0716e-05,0
53.396,4.7501e-05,0
53.396,7.2679e-05,0
53.397,8.9799e-05,0
53.397,8.3757e-05,0
53.398,5.623e-05,0
53.398,2.5177e-05,0
53.399,5.2033e-06,0
53.399,-1.6785e-06,0
53.4,6.714e-07,0
53.4,5.3712e-06,0
53.401,1.561e-05,0
53.401,4.1123e-05,0
53.402,7.5364e-05,0
53.402,0.00010188,0
53.403,0.00011582,0
53.403,0.000118,0
53.404,9.6513e-05,0
53.404,6.5461e-05,0
53.405,6.8315e-05,0
53.405,9.7185e-05,0
53.406,0.00011514,0
53.407,0.00011162,0
53.407,8.7785e-05,0
53.408,4.0116e-05,0
53.408,-1.091e-05,0
53.409,-3.7095e-05,0
53.409,-3.8437e-05,0
53.41,-4.5823e-05,0
53.41,-6.4958e-05,0
53.411,-7.5364e-05,0
53.411,-7.4357e-05,0
53.412,-6.6636e-05,0
53.412,-6.1265e-05,0
53.413,-7.4189e-05,0
53.413,-9.8527e-05,0
53.414,-0.00010826,0
53.414,-8.6442e-05,0
53.415,-4.9683e-05,0
53.415,-2.7192e-05,0
53.416,-2.1149e-05,0
53.416,-1.6281e-05,0
53.417,-1.1582e-05,0
53.417,-8.2246e-06,0
53.418,-7.5532e-06,0
53.418,-9.2317e-06,0
53.419,5.0355e-07,0
53.419,2.4002e-05,0
53.42,4.4144e-05,0
53.421,5.0019e-05,0
53.421,4.213e-05,0
53.422,2.5681e-05,0
53.422,8.5603e-06,0
53.423,1.4603e-05,0
53.423,4.5319e-05,0
53.424,8.04e-05,0
53.424,0.00010726,0
53.425,0.00011917,0
53.425,0.00011112,0
53.426,9.1814e-05,0
53.426,7.805e-05,0
53.427,6.9993e-05,0
53.427,6.4286e-05,0
53.428,6.63e-05,0
53.428,6.6636e-05,0
53.429,6.0258e-05,0
53.429,5.5222e-05,0
53.43,5.5055e-05,0
53.43,5.2369e-05,0
53.431,4.0452e-05,0
53.431,2.4338e-05,0
53.432,1.2253e-05,0
53.432,9.2317e-06,0
53.433,1.0575e-05,0
53.434,1.326e-05,0
53.434,1.3428e-05,0
53.435,7.2175e-06,0
53.435,2.0142e-06,0
53.436,4.5319e-06,0
53.436,1.4267e-05,0
53.437,2.3499e-05,0
53.437,2.8534e-05,0
53.438,3.122e-05,0
53.438,3.5584e-05,0
53.439,3.8437e-05,0
53.439,3.2731e-05,0
53.44,2.0981e-05,0
53.44,1.5778e-05,0
53.441,1.561e-05,0
53.441,1.561e-05,0
53.442,9.5674e-06,0
53.442,5.0355e-07,0
53.443,1.0407e-05,0
53.443,3.8102e-05,0
53.444,5.5558e-05,0
53.444,5.2201e-05,0
53.445,4.213e-05,0
53.445,3.1891e-05,0
53.446,2.3331e-05,0
53.447,2.6688e-05,0
53.447,4.0284e-05,0
53.448,5.2033e-05,0
53.448,5.9419e-05,0
53.449,5.8915e-05,0
53.449,4.2634e-05,0
53.45,2.0478e-05,0
53.45,6.8818e-06,0
53.451,7.5532e-06,0
53.451,1.4771e-05,0
53.452,2.3331e-05,0
53.452,3.2395e-05,0
53.453,3.9109e-05,0
53.453,4.1794e-05,0
53.454,4.5319e-05,0
53.454,5.1865e-05,0
53.455,5.1865e-05,0
53.455,3.827e-05,0
53.456,1.1917e-05,0
53.456,-1.9303e-05,0
53.457,-3.6759e-05,0
53.457,-5.1362e-05,0
53.458,-8.04e-05,0
53.458,-0.00010071,0
53.459,-8.4092e-05,0
53.459,-3.7766e-05,0
53.46,8.2246e-06,0
53.461,3.978e-05,0
53.461,5.2537e-05,0
53.462,4.8844e-05,0
53.462,3.9109e-05,0
53.463,3.0045e-05,0
53.463,1.6617e-05,0
53.464,2.5177e-06,0
53.464,2.182e-06,0
53.465,1.1078e-05,0
53.465,9.9031e-06,0
53.466,-3.357e-07,0
53.466,-8.896e-06,0
53.467,-9.3996e-06,0
53.467,-6.714e-06,0
53.468,3.1891e-06,0
53.468,2.2324e-05,0
53.469,4.2802e-05,0
53.469,5.2873e-05,0
53.47,4.7837e-05,0
53.47,3.9948e-05,0
53.471,4.0116e-05,0
53.471,4.0787e-05,0
53.472,3.4073e-05,0
53.472,2.4506e-05,0
53.473,1.1246e-05,0
53.474,-1.8463e-06,0
53.474,3.357e-06,0
53.475,2.4338e-05,0
53.475,4.1291e-05,0
53.476,3.978e-05,0
53.476,2.031e-05,0
53.477,1.5106e-06,0
53.477,1.1749e-06,0
53.478,4.3641e-06,0
53.478,-6.2104e-06,0
53.479,-7.5532e-06,0
53.479,2.182e-06,0
53.48,3.8605e-06,0
53.48,3.5248e-06,0
53.481,9.5674e-06,0
53.481,7.2175e-06,0
53.482,-1.6785e-07,0
53.482,7.5532e-06,0
53.483,1.9135e-05,0
53.483,2.4674e-05,0
53.484,2.8031e-05,0
53.484,3.5416e-05,0
53.485,4.3641e-05,0
53.485,5.5894e-05,0
53.486,7.2679e-05,0
53.486,9.1814e-05,0
53.487,0.00010877,0
53.488,0.0001086,0
53.488,8.1407e-05,0
53.489,4.2802e-05,0
53.489,1.3092e-05,0
53.49,-5.539e-06,0
53.49,-1.5946e-05,0
53.491,-2.1988e-05,0
53.491,-1.4939e-05,0
53.492,1.0575e-05,0
53.492,3.7766e-05,0
53.493,4.8173e-05,0
53.493,4.0787e-05,0
53.494,2.1653e-05,0
53.494,-4.5319e-06,0
53.495,-3.2395e-05,0
53.495,-5.4887e-05,0
53.496,-6.0426e-05,0
53.496,-4.7166e-05,0
53.497,-3.9948e-05,0
53.497,-4.918e-05,0
53.498,-5.6397e-05,0
53.498,-3.6423e-05,0
53.499,3.1891e-06,0
