58.955,0.00014418,0
58.956,0.00014049,0
58.956,0.00020125,0
58.957,0.00019924,0
58.957,4.8005e-05,0
58.958,-0.00018212,0
58.958,-0.00035064,0
58.959,-0.00030515,0
58.959,-8.04e-05,0
58.96,0.00013176,0
58.96,0.0002224,0
58.961,0.00020108,0
58.961,0.00012186,0
58.962,2.4338e-05,0
58.962,-0.00010188,0
58.963,-0.00019236,0
58.963,-0.00025933,0
58.964,-0.00033402,0
58.964,-0.00032932,0
58.965,-0.00023549,0
58.965,-0.0001472,0
58.966,-0.00010642,0
58.966,-8.4932e-05,0
58.967,-5.5222e-05,0
58.967,6.3783e-06,0
58.968,8.7617e-05,0
58.969,0.00014217,0
58.969,0.00013948,0
58.97,9.3828e-05,0
58.97,6.244e-05,0
58.971,8.7449e-05,0
58.971,0.00013562,0
58.972,0.00016735,0
58.972,0.00018077,0
58.973,0.00019387,0
58.973,0.00017288,0
58.974,4.5487e-05,0
58.974,-0.00011766,0
58.975,-0.00017272,0
58.975,-9.7856e-05,0
58.976,1.8463e-06,0
58.976,1.2421e-05,0
58.977,-4.2298e-05,0
58.977,-3.7766e-05,0
58.978,3.4745e-05,0
58.978,9.1142e-05,0
58.979,9.8863e-05,0
58.979,8.0064e-05,0
58.98,7.0329e-05,0
58.98,9.9199e-05,0
58.981,0.00016533,0
58.981,0.00023784,0
58.982,0.0002647,0
58.983,0.00021535,0
58.983,0.00013243,0
58.984,0.00011766,0
58.984,0.00019857,0
58.985,0.00026973,0
58.985,0.00027108,0
58.986,0.00022257,0
58.986,0.00014603,0
58.987,5.2873e-05,0
58.987,-4.7669e-05,0
58.988,-0.00017943,0
58.988,-0.00030666,0
58.989,-0.00030146,0
58.989,-0.0001796,0
58.99,-9.0974e-05,0
58.99,-8.0735e-05,0
58.991,-7.6371e-05,0
58.991,-2.031e-05,0
58.992,5.1194e-05,0
58.992,5.4047e-05,0
58.993,1.3931e-05,0
58.993,-3.1052e-05,0
58.994,-0.00011397,0
58.994,-0.00016399,0
58.995,-0.00019202,0
58.996,-0.00027208,0
58.996,-0.00030095,0
58.997,-0.00018749,0
58.997,-4.4144e-05,0
58.998,5.069e-05,0
58.998,0.00010256,0
58.999,0.00010994,0
58.999,0.00010574,0
59,0.00012505,0
59,0.00015409,0
59.001,0.00017607,0
59.001,0.00014821,0
59.002,9.9031e-05,0
59.002,0.00016516,0
59.003,0.00033738,0
59.003,0.00045504,0
59.004,0.00039663,0
59.004,0.00015073,0
59.005,-6.2104e-05,0
59.005,-0.00011565,0
59.006,-8.9632e-05,0
59.006,-2.5681e-05,0
59.007,1.326e-05,0
59.007,6.3783e-06,0
59.008,-2.3667e-05,0
59.008,-0.00011078,0
59.009,-0.00022576,0
59.01,-0.00027578,0
59.01,-0.00024086,0
59.011,-0.00021199,0
59.011,-0.00024388,0
59.012,-0.00026806,0
59.012,-0.00022391,0
59.013,-0.00010994,0
59.013,9.2317e-06,0
59.014,6.9322e-05,0
59.014,8.4764e-05,0
59.015,9.3828e-05,0
59.015,0.00011095,0
59.016,0.00012035,0
59.016,0.00012723,0
59.017,0.00015895,0
59.017,0.00020159,0
59.018,0.0002031,0
59.018,0.00013176,0
59.019,5.8747e-06,0
59.019,-8.3421e-05,0
59.02,-5.7908e-05,0
59.02,2.5681e-05,0
59.021,8.8457e-05,0
59.021,0.0001368,0
59.022,0.00016046,0
59.023,0.00012975,0
59.023,8.3757e-05,0
59.024,6.8315e-05,0
59.024,4.3641e-05,0
59.025,-4.8508e-05,0
59.025,-0.00014888,0
59.026,-0.00012119,0
59.026,7.3854e-06,0
59.027,9.8695e-05,0
59.027,0.00011498,0
59.028,0.00010256,0
59.028,9.2988e-05,0
59.029,0.00010155,0
59.029,0.0001284,0
59.03,0.00013562,0
59.03,0.000118,0
59.031,0.00010021,0
59.031,8.9799e-05,0
59.032,7.2175e-05,0
59.032,4.5487e-05,0
59.033,5.8747e-06,0
59.033,-1.7624e-05,0
59.034,3.7263e-05,0
59.034,0.00012471,0
59.035,0.00015023,0
59.035,8.7449e-05,0
59.036,-2.031e-05,0
59.037,-8.8121e-05,0
59.037,-0.00011078,0
59.038,-0.00014989,0
59.038,-0.0001937,0
59.039,-0.00017171,0
59.039,-0.00010105,0
59.04,-3.4913e-05,0
59.04,1.1078e-05,0
59.041,6.0258e-05,0
59.041,0.0001274,0
59.042,0.00018849,0
59.042,0.00021048,0
59.043,0.00019487,0
59.043,0.00018614,0
59.044,0.00020662,0
59.044,0.00021267,0
59.045,0.00011598,0
59.045,-8.6946e-05,0
59.046,-0.0002459,0
59.046,-0.00021233,0
59.047,-6.8818e-05,0
59.047,2.7192e-05,0
59.048,-1.5106e-06,0
59.048,-0.00017792,0
59.049,-0.00029776,0
59.05,-0.00020293,0
59.05,-3.0549e-05,0
59.051,5.5222e-05,0
59.051,6.4286e-05,0
59.052,5.5558e-05,0
59.052,2.6184e-05,0
59.053,-3.7263e-05,0
59.053,-5.0858e-05,0
59.054,3.1388e-05,0
59.054,0.00012505,0
59.055,0.00018363,0
59.055,0.00020226,0
59.056,0.00017876,0
59.056,0.00011968,0
59.057,6.4286e-05,0
59.057,1.2253e-05,0
59.058,-0.00010709,0
59.058,-0.00019319,0
59.059,-8.5603e-05,0
59.059,0.00012404,0
59.06,0.00025194,0
59.06,0.00022055,0
59.061,8.275e-05,0
59.061,-3.508e-05,0
59.062,-0.00010188,0
59.062,-0.00022173,0
59.063,-0.00045286,0
59.064,-0.0005816,0
59.064,-0.00046394,0
59.065,-0.00026235,0
59.065,-0.00012723,0
59.066,-6.5629e-05,0
59.066,-2.7359e-05,0
59.067,2.266e-05,0
59.067,7.4357e-05,0
59.068,0.00010524,0
59.068,0.00012001,0
59.069,0.00013042,0
59.069,0.00014116,0
59.07,0.00015593,0
59.07,0.00016432,0
59.071,0.00014569,0
59.071,7.57e-05,0
59.072,-8.896e-06,0
59.072,-2.2156e-05,0
59.073,3.508e-05,0
59.073,8.04e-05,0
59.074,6.3279e-05,0
59.074,2.6352e-05,0
59.075,3.3066e-05,0
59.075,7.5868e-05,0
59.076,0.00011565,0
59.077,0.0001331,0
59.077,0.00013042,0
59.078,0.00011666,0
59.078,0.00011716,0
59.079,0.0001091,0
59.079,3.7263e-05,0
59.08,-6.8986e-05,0
59.08,-0.00010759,0
59.081,-4.9348e-05,0
59.081,1.8799e-05,0
59.082,1.9974e-05,0
59.082,-4.213e-05,0
59.083,-0.00011229,0
59.083,-0.00012119,0
59.084,-4.918e-05,0
59.084,5.8747e-05,0
59.085,0.00013898,0
59.085,0.00017171,0
59.086,0.0001603,0
59.086,0.00012874,0
59.087,0.00012404,0
59.087,0.0001321,0
59.088,7.4357e-05,0
59.088,-2.0981e-05,0
59.089,-7.4189e-05,0
59.09,-8.7282e-05,0
59.09,-5.8076e-05,0
59.091,0,0
59.091,6.0594e-05,0
59.092,0.00012605,0
59.092,0.00019857,0
59.093,0.00023365,0
59.093,0.00019319,0
59.094,0.00013411,0
59.094,0.00015476,0
59.095,0.00017406,0
59.095,9.0135e-05,0
59.096,3.4577e-05,0
59.096,4.062e-05,0
59.097,1.6953e-05,0
59.097,-3.2059e-05,0
59.098,-9.4835e-05,0
59.098,-0.00019689,0
59.099,-0.00028115,0
59.099,-0.00025933,0
59.1,-0.00015123,0
59.1,-4.3809e-05,0
59.101,1.5442e-05,0
59.101,3.1891e-05,0
59.102,3.2395e-05,0
59.102,4.0116e-05,0
59.103,2.3499e-05,0
59.104,-4.9516e-05,0
59.104,-9.0135e-05,0
59.105,-3.2059e-05,0
59.105,6.244e-05,0
59.106,0.0001237,0
59.106,0.00013881,0
59.107,9.9702e-05,0
59.107,-2.4002e-05,0
59.108,-0.00018967,0
59.108,-0.00022358,0
59.109,-8.5435e-05,0
59.109,5.8915e-05,0
59.11,0.00011263,0
59.11,0.00015006,0
59.111,0.00021132,0
59.111,0.0002558,0
59.112,0.00027544,0
59.112,0.00028182,0
59.113,0.00027712,0
59.113,0.00024959,0
59.114,0.00019084,0
59.114,8.4428e-05,0
59.115,-2.7024e-05,0
59.115,-8.9296e-05,0
59.116,-8.3085e-05,0
59.117,3.357e-07,0
59.117,8.0735e-05,0
59.118,7.0497e-06,0
59.118,-0.00024288,0
59.119,-0.00048122,0
59.119,-0.0005398,0
59.12,-0.00045772,0
59.12,-0.00030784,0
59.121,-0.00017473,0
59.121,-9.7856e-05,0
59.122,-4.3473e-05,0
59.122,2.0981e-05,0
59.123,7.9393e-05,0
59.123,0.0001086,0
59.124,0.00011766,0
59.124,0.00010574,0
59.125,5.5558e-05,0
59.125,8.5603e-06,0
59.126,1.8296e-05,0
59.126,5.2705e-05,0
59.127,7.57e-05,0
59.127,9.6178e-05,0
59.128,0.0001086,0
59.128,0.00012874,0
59.129,0.00018497,0
59.129,0.00025698,0
59.13,0.00030901,0
59.131,0.00029642,0
59.131,0.00015358,0
59.132,-7.9393e-05,0
59.132,-0.00019387,0
59.133,-0.00012992,0
59.133,-1.5946e-05,0
59.134,4.2466e-05,0
59.134,3.8773e-05,0
59.135,2.266e-05,0
59.135,4.8173e-05,0
59.136,0.0001425,0
59.136,0.00025228,0
59.137,0.00030733,0
59.137,0.00032848,0
59.138,0.00033956,0
59.138,0.00032412,0
59.139,0.00026369,0
59.139,0.00015073,0
59.14,-3.8773e-05,0
59.14,-0.00024909,0
59.141,-0.00033889,0
59.141,-0.00028853,0
59.142,-0.00021888,0
59.142,-0.00019638,0
59.143,-0.0001791,0
59.144,-0.00013713,0
59.144,-0.00010256,0
59.145,-9.9535e-05,0
59.145,-0.00010944,0
59.146,-0.00010323,0
59.146,-7.57e-05,0
59.147,-4.0787e-05,0
59.147,-4.8676e-06,0
59.148,3.0381e-05,0
59.148,5.6565e-05,0
59.149,7.6036e-05,0
59.149,0.00010256,0
59.15,0.00013948,0
59.15,0.00019454,0
59.151,0.00026184,0
59.151,0.00031304,0
59.152,0.0003221,0
59.152,0.00027309,0
59.153,0.00016164,0
59.153,-3.357e-07,0
59.154,-0.00017104,0
59.154,-0.00023281,0
59.155,-0.00017137,0
59.155,-8.5771e-05,0
59.156,-3.3402e-05,0
59.156,-1.9806e-05,0
59.157,-1.6617e-05,0
59.158,6.714e-07,0
59.158,2.4674e-05,0
59.159,3.6927e-05,0
59.159,2.9206e-05,0
59.16,9.9031e-06,0
59.16,-9.3996e-06,0
59.161,-1.4939e-05,0
59.161,-7.7211e-06,0
59.162,4.0284e-06,0
59.162,2.2995e-05,0
59.163,5.1362e-05,0
59.163,8.4092e-05,0
59.164,0.00010843,0
59.164,0.00010893,0
59.165,9.1646e-05,0
59.165,8.5771e-05,0
59.166,9.4667e-05,0
59.166,8.7114e-05,0
59.167,4.448e-05,0
59.167,-1.9638e-05,0
59.168,-8.0735e-05,0
59.168,-0.00010625,0
59.169,-8.6107e-05,0
59.169,-4.7837e-05,0
59.17,-1.6953e-05,0
59.17,2.9374e-05,0
59.171,0.00011263,0
59.172,0.00022106,0
59.172,0.00032747,0
59.173,0.00039193,0
59.173,0.00041241,0
59.174,0.0003644,0
59.174,0.00021233,0
59.175,2.1988e-05,0
59.175,-0.00019823,0
59.176,-0.00047082,0
59.176,-0.00062843,0
59.177,-0.00048928,0
59.177,-0.00018665,0
59.178,1.9974e-05,0
59.178,4.7166e-05,0
59.179,-9.2317e-06,0
59.179,-3.7263e-05,0
59.18,-3.9277e-05,0
59.18,-4.8508e-05,0
59.181,-5.9586e-05,0
59.181,-5.5894e-05,0
59.182,-3.3402e-05,0
59.182,-2.3499e-06,0
59.183,1.1078e-05,0
59.183,-3.3066e-05,0
59.184,-0.0001378,0
59.185,-0.00019387,0
59.185,-0.00015123,0
59.186,-9.5003e-05,0
59.186,-5.8915e-05,0
59.187,-1.0575e-05,0
59.187,4.9516e-05,0
59.188,0.0001039,0
59.188,0.00014351,0
59.189,0.00017423,0
59.189,0.00021267,0
59.19,0.00025631,0
59.19,0.00025396,0
59.191,0.00017691,0
59.191,7.6707e-05,0
59.192,-9.2317e-06,0
59.192,-6.2608e-05,0
59.193,-8.04e-05,0
59.193,-0.00012068,0
59.194,-0.00018128,0
59.194,-0.00017003,0
59.195,-9.1478e-05,0
59.195,-1.8296e-05,0
59.196,3.122e-05,0
59.196,7.1336e-05,0
59.197,0.00010877,0
59.197,0.00015543,0
59.198,0.00020024,0
59.199,0.00023046,0
59.199,0.00028031,0
59.2,0.00034627,0
59.2,0.00036776,0
59.201,0.00031875,0
59.201,0.0002459,0
59.202,0.00018077,0
59.202,9.2317e-06,0
59.203,-0.00024372,0
59.203,-0.00036591,0
59.204,-0.00035467,0
59.204,-0.00027141,0
59.205,-0.00015996,0
59.205,-7.4022e-05,0
59.206,-2.7863e-05,0
59.206,-3.5248e-06,0
59.207,1.9638e-05,0
59.207,5.2705e-05,0
59.208,8.7617e-05,0
59.208,9.4163e-05,0
59.209,7.8386e-05,0
59.209,7.7043e-05,0
59.21,0.00010256,0
59.21,0.00012572,0
59.211,0.0001326,0
59.212,0.00010944,0
59.212,1.796e-05,0
59.213,-0.00013495,0
59.213,-0.00019034,0
59.214,-9.7185e-05,0
59.214,-2.501e-05,0
59.215,-4.1459e-05,0
59.215,-6.5629e-05,0
59.216,-4.6998e-05,0
59.216,-1.5106e-06,0
59.217,2.7863e-05,0
59.217,0,0
59.218,-7.7714e-05,0
59.218,-0.00015778,0
59.219,-0.0001801,0
59.219,-0.00012908,0
59.22,-4.2634e-05,0
59.22,5.2873e-05,0
59.221,0.00013948,0
59.221,0.00018917,0
59.222,0.00020478,0
59.222,0.00021636,0
59.223,0.00022676,0
59.223,0.00017708,0
59.224,4.1794e-05,0
59.224,-7.0832e-05,0
59.225,-0.00010323,0
59.226,-0.00011279,0
59.226,-0.00013646,0
59.227,-0.00012673,0
59.227,-6.9993e-05,0
59.228,-1.2924e-05,0
59.228,1.8631e-05,0
59.229,3.4409e-05,0
59.229,4.918e-05,0
59.23,7.6707e-05,0
59.23,9.5003e-05,0
59.231,8.3253e-05,0
59.231,5.9922e-05,0
59.232,3.743e-05,0
59.232,1.9806e-05,0
59.233,1.0575e-05,0
59.233,1.8463e-05,0
59.234,3.3066e-05,0
59.234,3.8773e-05,0
59.235,3.3234e-05,0
59.235,4.2634e-05,0
59.236,8.7114e-05,0
59.236,0.00013277,0
59.237,0.00014888,0
59.237,0.00012136,0
59.238,4.6159e-05,0
59.239,-3.357e-06,0
59.239,2.6856e-06,0
59.24,-1.5106e-06,0
59.24,-3.9612e-05,0
59.241,-4.1794e-05,0
59.241,6.3783e-06,0
59.242,4.2802e-05,0
59.242,3.2563e-05,0
59.243,1.5946e-05,0
59.243,3.508e-05,0
59.244,7.1504e-05,0
59.244,0.00010088,0
59.245,0.00012471,0
59.245,0.00014049,0
59.246,0.00013042,0
59.246,6.5293e-05,0
59.247,-4.9348e-05,0
59.247,-0.00011666,0
59.248,-7.3854e-05,0
59.248,1.2421e-05,0
59.249,6.0929e-05,0
59.249,6.4286e-05,0
59.25,4.918e-05,0
59.25,4.4144e-05,0
59.251,7.2679e-05,0
59.252,0.00012572,0
59.252,0.00015778,0
59.253,0.00017154,0
59.253,0.00019756,0
59.254,0.00022811,0
59.254,0.00022676,0
59.255,0.00013814,0
59.255,-1.2253e-05,0
59.256,-9.9199e-05,0
59.256,-0.00010574,0
59.257,-0.00010759,0
59.257,-0.00016869,0
59.258,-0.00025597,0
59.258,-0.00026889,0
59.259,-0.00019957,0
59.259,-9.8695e-05,0
59.26,-1.4099e-05,0
59.26,4.4144e-05,0
59.261,8.1743e-05,0
59.261,6.2608e-05,0
59.262,-2.0478e-05,0
59.262,-0.00011179,0
59.263,-0.00016802,0
59.263,-0.00014804,0
59.264,-8.3085e-05,0
59.264,-3.9109e-05,0
59.265,-2.266e-05,0
59.266,-6.8818e-06,0
59.266,9.9031e-06,0
59.267,3.0045e-05,0
59.267,6.7643e-05,0
59.268,0.00010591,0
59.268,0.00012219,0
59.269,0.0001138,0
59.269,8.1743e-05,0
59.27,4.213e-05,0
59.27,3.1052e-05,0
59.271,5.5222e-05,0
59.271,7.2343e-05,0
59.272,4.8676e-05,0
59.272,3.8605e-06,0
59.273,-1.4267e-05,0
59.273,1.091e-05,0
59.274,3.508e-05,0
59.274,1.8296e-05,0
59.275,2.182e-06,0
59.275,2.3331e-05,0
59.276,5.069e-05,0
59.276,5.1026e-05,0
59.277,5.8579e-05,0
59.277,0.00011162,0
59.278,0.00016936,0
59.279,0.00019823,0
59.279,0.00020528,0
59.28,0.00020058,0
59.28,0.00017372,0
59.281,6.7811e-05,0
59.281,-0.00012992,0
59.282,-0.00026436,0
59.282,-0.00023851,0
59.283,-0.00014603,0
59.283,-9.1142e-05,0
59.284,-8.3253e-05,0
59.284,-8.1071e-05,0
59.285,-6.5629e-05,0
59.285,-2.6184e-05,0
59.286,3.4745e-05,0
59.286,9.6849e-05,0
59.287,0.00014553,0
59.287,0.00015694,0
59.288,0.00013613,0
59.288,0.00012152,0
59.289,8.1743e-05,0
59.289,-2.1988e-05,0
59.29,-6.9322e-05,0
59.29,1.3596e-05,0
59.291,9.9702e-05,0
59.291,5.8915e-05,0
59.292,-7.8889e-06,0
59.293,3.3906e-05,0
59.293,7.7379e-05,0
59.294,4.8173e-05,0
59.294,-1.1749e-06,0
59.295,-2.9374e-05,0
59.295,-1.8799e-05,0
59.296,5.8747e-06,0
59.296,2.9374e-05,0
59.297,6.4622e-05,0
59.297,0.00010239,0
59.298,0.00011128,0
59.298,0.00011128,0
59.299,0.00011901,0
59.299,7.6371e-05,0
59.3,-3.4577e-05,0
59.3,-0.00012438,0
59.301,-0.00017389,0
59.301,-0.00022173,0
59.302,-0.0002219,0
59.302,-0.00014452,0
59.303,-4.8844e-05,0
59.303,1.2421e-05,0
59.304,7.2847e-05,0
59.304,0.00013931,0
59.305,0.000166,0
59.306,0.00015341,0
59.306,9.7185e-05,0
59.307,2.8702e-05,0
59.307,8.4428e-05,0
59.308,0.00024523,0
59.308,0.00030733,0
59.309,0.00025631,0
59.309,0.00024691,0
59.31,0.00027913,0
59.31,0.00023885,0
59.311,3.2898e-05,0
59.311,-0.00029827,0
59.312,-0.00053359,0
59.312,-0.00057186,0
59.313,-0.00051563,0
59.313,-0.0004354,0
59.314,-0.0003174,0
59.314,-0.00019252,0
59.315,-0.00011246,0
59.315,-7.6539e-05,0
59.316,-4.8676e-05,0
59.316,-1.2924e-05,0
59.317,2.1317e-05,0
59.317,4.5991e-05,0
59.318,6.2272e-05,0
59.318,7.2007e-05,0
59.319,7.2175e-05,0
59.32,6.9154e-05,0
59.32,7.5868e-05,0
59.321,9.2317e-05,0
59.321,0.00010994,0
59.322,0.00012119,0
59.322,0.00013075,0
59.323,0.00014855,0
59.323,0.00016634,0
59.324,0.00016416,0
59.324,0.0001467,0
59.325,0.00011632,0
59.325,8.7785e-05,0
59.326,9.8527e-05,0
59.326,0.00014469,0
59.327,0.00018178,0
59.327,0.00015694,0
59.328,6.1601e-05,0
59.328,-3.2395e-05,0
59.329,-5.8579e-05,0
59.329,-1.5946e-05,0
59.33,4.3473e-05,0
59.33,6.5965e-05,0
59.331,2.6688e-05,0
59.331,-2.7359e-05,0
59.332,-2.1653e-05,0
59.333,2.4002e-05,0
59.333,6.2104e-05,0
59.334,7.7714e-05,0
59.334,7.2343e-05,0
59.335,5.2705e-05,0
59.335,3.2395e-05,0
59.336,1.2589e-05,0
59.336,2.5177e-06,0
59.337,2.9374e-05,0
59.337,7.9393e-05,0
59.338,0.0001274,0
59.338,0.00017708,0
59.339,0.00024355,0
59.339,0.00026101,0
59.34,0.00014401,0
59.34,6.5629e-05,0
59.341,0.00014435,0
59.341,0.00023432,0
59.342,0.00019252,0
59.342,8.2414e-05,0
59.343,-3.3234e-05,0
59.343,-0.000142,0
59.344,-0.00013999,0
59.344,-0.00010172,0
59.345,-0.00016802,0
59.345,-0.00028383,0
59.346,-0.0002845,0
59.347,-0.00012253,0
59.347,4.5487e-05,0
59.348,8.2078e-05,0
59.348,2.652e-05,0
59.349,-2.031e-05,0
59.349,-5.0523e-05,0
59.35,-5.0187e-05,0
59.35,-7.8889e-06,0
59.351,-2.1653e-05,0
59.351,-0.00012354,0
59.352,-0.00020243,0
59.352,-0.00019353,0
59.353,-0.00011531,0
59.353,-2.266e-05,0
59.354,5.153e-05,0
59.354,0.00011968,0
59.355,0.00020562,0
59.355,0.00031908,0
59.356,0.00039461,0
59.356,0.00037581,0
59.357,0.00028249,0
59.357,0.00019924,0
59.358,0.00012824,0
59.358,3.3738e-05,0
59.359,-0.0001185,0
59.359,-0.00032294,0
59.36,-0.00041778,0
59.361,-0.00032193,0
59.361,-0.00017842,0
59.362,-0.00010105,0
59.362,-7.0329e-05,0
59.363,-4.3809e-05,0
59.363,-2.8367e-05,0
59.364,-4.7669e-05,0
59.364,-0.00011917,0
59.365,-0.00021082,0
59.365,-0.0001994,0
59.366,-7.5532e-05,0
59.366,4.7333e-05,0
59.367,0.00010927,0
59.367,0.00014418,0
59.368,0.00019353,0
59.368,0.00023348,0
59.369,0.00019857,0
59.369,0.00016298,0
59.37,0.00021804,0
59.37,0.00026302,0
59.371,0.00017876,0
59.371,-4.4816e-05,0
59.372,-0.0002459,0
59.372,-0.00025731,0
59.373,-0.00013646,0
59.374,-2.6688e-05,0
59.374,-3.5584e-05,0
59.375,-8.9128e-05,0
59.375,-2.5681e-05,0
59.376,0.00011766,0
59.376,0.00020024,0
59.377,0.00018917,0
59.377,0.00016097,0
59.378,0.00013445,0
59.378,6.8315e-05,0
59.379,3.5248e-06,0
59.379,3.3906e-05,0
59.38,0.00014553,0
59.38,0.00023079,0
59.381,0.00021971,0
59.381,0.00011179,0
59.382,-4.5151e-05,0
59.382,-0.00016835,0
59.383,-0.00018564,0
59.383,-0.00011397,0
59.384,-3.3066e-05,0
59.384,7.5532e-06,0
59.385,1.3931e-05,0
59.385,4.1962e-06,0
59.386,-5.3712e-06,0
59.386,-1.8463e-06,0
59.387,-6.3783e-06,0
59.388,-2.5681e-05,0
59.388,-3.1388e-05,0
59.389,-1.3092e-05,0
59.389,1.9303e-05,0
59.39,4.6159e-05,0
59.39,5.7908e-05,0
59.391,6.2943e-05,0
59.391,7.335e-05,0
59.392,9.4331e-05,0
59.392,0.00012203,0
59.393,0.00014485,0
59.393,0.00016332,0
59.394,0.00016667,0
59.394,0.00012035,0
59.395,4.3305e-05,0
59.395,8.896e-06,0
59.396,3.122e-05,0
59.396,5.1698e-05,0
59.397,3.592e-05,0
59.397,-2.7527e-05,0
59.398,-9.9367e-05,0
59.398,-8.2582e-05,0
59.399,8.896e-06,0
59.399,6.9322e-05,0
59.4,5.5055e-05,0
59.401,2.3331e-05,0
59.401,5.5222e-05,0
59.402,0.00013613,0
59.402,0.00017708,0
59.403,0.00011867,0
59.403,4.6326e-05,0
59.404,5.9586e-05,0
59.404,8.426e-05,0
59.405,-9.9031e-06,0
59.405,-0.00017742,0
59.406,-0.00024607,0
59.406,-0.00018262,0
59.407,-0.0001415,0
59.407,-0.00022794,0
59.408,-0.00031102,0
59.408,-0.00021955,0
59.409,-3.6759e-05,0
59.409,5.2201e-05,0
59.41,7.8889e-06,0
59.41,-3.8773e-05,0
59.411,-4.3641e-06,0
59.411,3.4073e-05,0
59.412,-1.0575e-05,0
59.412,-7.4357e-05,0
59.413,-2.8031e-05,0
59.413,0.00012303,0
59.414,0.0002506,0
59.415,0.00029155,0
59.415,0.00027376,0
59.416,0.00020058,0
59.416,4.9516e-05,0
59.417,-0.00014099,0
59.417,-0.00029793,0
59.418,-0.00035349,0
59.418,-0.00025815,0
59.419,-9.5338e-05,0
59.419,1.8967e-05,0
59.42,6.714e-05,0
59.42,8.4596e-05,0
59.421,8.3085e-05,0
59.421,5.8412e-05,0
59.422,4.8173e-05,0
59.422,6.7643e-05,0
59.423,5.5055e-05,0
59.423,-1.091e-05,0
59.424,-4.448e-05,0
59.424,-5.0355e-06,0
59.425,4.6494e-05,0
59.425,7.6707e-05,0
59.426,0.00012068,0
59.426,0.00021669,0
59.427,0.00033788,0
59.428,0.00040603,0
59.428,0.00034594,0
59.429,0.00013579,0
59.429,-6.5965e-05,0
59.43,-0.00012975,0
59.43,-0.00013428,0
59.431,-9.8527e-05,0
59.431,-8.9128e-05,0
59.432,-0.00018631,0
59.432,-0.00027041,0
59.433,-0.00021686,0
59.433,-8.7617e-05,0
59.434,2.182e-06,0
59.434,2.3667e-05,0
59.435,1.8967e-05,0
59.435,3.3234e-05,0
59.436,6.8986e-05,0
59.436,9.5506e-05,0
59.437,9.6178e-05,0
59.437,7.9057e-05,0
59.438,3.9445e-05,0
59.438,-6.8818e-06,0
59.439,-2.9374e-05,0
59.439,-1.5106e-06,0
59.44,6.8482e-05,0
59.441,0.00011968,0
59.441,0.00012471,0
59.442,0.00011363,0
59.442,0.0001039,0
59.443,0.00010323,0
59.443,8.4428e-05,0
59.444,1.1246e-05,0
59.444,-4.3137e-05,0
59.445,-8.3925e-07,0
59.445,8.5435e-05,0
59.446,0.00014166,0
59.446,0.00016164,0
59.447,0.00015862,0
59.447,0.00012941,0
59.448,2.3667e-05,0
59.448,-9.0806e-05,0
59.449,-0.00010289,0
59.449,-3.8773e-05,0
59.45,-1.8296e-05,0
59.45,-9.3492e-05,0
59.451,-0.00019924,0
59.451,-0.00022609,0
59.452,-0.00011984,0
59.452,1.6281e-05,0
59.453,7.3014e-05,0
59.453,7.6371e-05,0
59.454,5.5894e-05,0
59.455,5.0355e-06,0
59.455,-3.8102e-05,0
59.456,-2.501e-05,0
59.456,2.0142e-05,0
59.457,5.8915e-05,0
59.457,8.0232e-05,0
59.458,9.1142e-05,0
59.458,0.000118,0
59.459,0.00015358,0
59.459,0.00016432,0
59.46,0.00014888,0
59.46,0.00011128,0
59.461,2.9038e-05,0
59.461,-4.2634e-05,0
59.462,5.539e-06,0
59.462,0.0001331,0
59.463,0.00021871,0
59.463,0.0002313,0
59.464,0.00020763,0
59.464,0.0001566,0
59.465,7.3686e-05,0
59.465,-4.3473e-05,0
59.466,-0.00020578,0
59.466,-0.00034392,0
59.467,-0.00034443,0
59.468,-0.00021653,0
59.468,-6.1601e-05,0
59.469,3.6759e-05,0
59.469,7.0665e-05,0
59.47,6.0258e-05,0
59.47,3.2395e-05,0
59.471,2.9877e-05,0
59.471,5.0187e-05,0
59.472,5.539e-05,0
59.472,4.0116e-05,0
59.473,3.3402e-05,0
59.473,2.9709e-05,0
59.474,1.2589e-05,0
59.474,1.796e-05,0
59.475,6.4286e-05,0
59.475,0.00011095,0
59.476,0.0001368,0
59.476,0.00014603,0
59.477,0.00011951,0
59.477,8.2246e-06,0
59.478,-0.00015543,0
59.478,-0.00023046,0
59.479,-0.000213,0
59.479,-0.00017658,0
59.48,-0.00011481,0
59.48,-4.1794e-05,0
59.481,-7.8889e-06,0
59.482,-6.8818e-06,0
59.482,-6.714e-07,0
59.483,1.8967e-05,0
59.483,3.978e-05,0
59.484,5.3208e-05,0
59.484,5.0858e-05,0
59.485,3.3066e-05,0
59.485,2.5681e-05,0
59.486,6.1769e-05,0
59.486,0.00013143,0
59.487,0.00019001,0
59.487,0.00020981,0
59.488,0.0001791,0
59.488,9.5842e-05,0
59.489,8.5603e-06,0
59.489,-5.8412e-05,0
59.49,-3.0716e-05,0
59.49,0.0001321,0
59.491,0.00029659,0
59.491,0.00033016,0
59.492,0.00026268,0
59.492,0.0002266,0
59.493,0.00025681,0
59.493,0.00026571,0
59.494,0.00014452,0
59.495,-0.00013613,0
59.495,-0.00044128,0
59.496,-0.00053645,0
59.496,-0.00041727,0
59.497,-0.00033251,0
59.497,-0.0002882,0
59.498,-0.00016902,0
59.498,-2.9709e-05,0
59.499,3.9948e-05,0
59.499,-7.2175e-06,0
59.5,-0.00014368,0
59.5,-0.00022106,0
59.501,-0.00015492,0
59.501,-3.122e-05,0
59.502,5.069e-05,0
59.502,8.9464e-05,0
59.503,0.0001133,0
59.503,0.00011363,0
59.504,0.00014116,0
59.504,0.00024154,0
59.505,0.00030129,0
59.505,0.00021602,0
59.506,8.2414e-05,0
59.506,8.7282e-06,0
59.507,-3.6591e-05,0
59.507,-0.00010625,0
59.508,-0.00013159,0
59.509,-8.1071e-05,0
59.509,-2.2995e-05,0
59.51,1.1917e-05,0
59.51,3.1388e-05,0
59.511,6.4958e-05,0
59.511,0.00012186,0
59.512,0.0001519,0
59.512,0.00012068,0
59.513,6.1601e-05,0
59.513,8.0568e-06,0
59.514,-2.1149e-05,0
59.514,-3.6423e-05,0
59.515,-3.4409e-05,0
59.515,7.2175e-06,0
59.516,5.3376e-05,0
59.516,6.4958e-05,0
59.517,8.3757e-05,0
59.517,0.00014284,0
59.518,0.00021048,0
59.518,0.00025949,0
59.519,0.00030129,0
59.519,0.00033452,0
59.52,0.00031102,0
59.52,0.00019202,0
59.521,-7.0497e-06,0
59.522,-0.00019118,0
59.522,-0.00030398,0
59.523,-0.00040317,0
59.523,-0.00044833,0
59.524,-0.0003743,0
59.524,-0.00021569,0
59.525,-5.9251e-05,0
59.525,2.2995e-05,0
59.526,4.2466e-05,0
59.526,5.2873e-05,0
59.527,7.1672e-05,0
59.527,5.4215e-05,0
59.528,-2.4842e-05,0
59.528,-6.3615e-05,0
59.529,-1.326e-05,0
59.529,4.9348e-05,0
59.53,7.6036e-05,0
59.53,8.8792e-05,0
59.531,0.00011162,0
59.531,0.00013747,0
59.532,0.00015895,0
59.532,0.00017607,0
59.533,0.00017758,0
59.533,0.0001368,0
59.534,8.04e-05,0
59.534,4.8508e-05,0
59.535,-2.5177e-06,0
59.536,-4.3977e-05,0
59.536,2.9877e-05,0
59.537,0.00015895,0
59.537,0.00022542,0
59.538,0.00022106,0
59.538,0.00019756,0
59.539,0.00015828,0
59.539,2.4506e-05,0
59.54,-0.0001326,0
59.54,-0.00015358,0
59.541,-5.2705e-05,0
59.541,3.8102e-05,0
59.542,8.8289e-05,0
59.542,0.0001425,0
59.543,0.00018447,0
59.543,0.00018178,0
59.544,0.00018027,0
59.544,0.00019588,0
59.545,0.00016214,0
59.545,4.918e-05,0
59.546,-9.1814e-05,0
59.546,-0.00019873,0
59.547,-0.00025882,0
59.547,-0.00025966,0
59.548,-0.00022811,0
59.548,-0.00022005,0
59.549,-0.00021082,0
59.55,-0.0001462,0
59.55,-5.9586e-05,0
59.551,-7.2175e-06,0
59.551,-1.8631e-05,0
59.552,-7.8721e-05,0
59.552,-8.2414e-05,0
59.553,6.8818e-06,0
59.553,0.00012958,0
59.554,0.00021569,0
59.554,0.00020444,0
59.555,9.0135e-05,0
59.555,-4.5151e-05,0
59.556,-6.1265e-05,0
59.556,4.5487e-05,0
59.557,0.00012605,0
59.557,9.3828e-05,0
59.558,-5.153e-05,0
59.558,-0.00026755,0
59.559,-0.00036339,0
59.559,-0.00026705,0
59.56,-0.00013243,0
59.56,-6.0761e-05,0
59.561,-3.8102e-05,0
59.561,-3.2395e-05,0
59.562,-1.9303e-05,0
59.563,8.7282e-06,0
59.563,3.743e-05,0
59.564,6.0594e-05,0
59.564,8.2246e-05,0
59.565,9.5842e-05,0
59.565,0.00010457,0
59.566,0.00011901,0
59.566,0.0001321,0
59.567,0.00015291,0
59.567,0.00017758,0
59.568,0.00018648,0
59.568,0.0001744,0
59.569,0.00013462,0
59.569,3.508e-05,0
59.57,-8.3421e-05,0
59.57,-0.00011179,0
59.571,-2.1317e-05,0
59.571,7.8553e-05,0
59.572,7.6371e-05,0
59.572,-4.3641e-06,0
59.573,-3.4409e-05,0
59.573,5.8747e-06,0
59.574,4.7166e-05,0
59.574,5.1194e-05,0
59.575,2.4002e-05,0
59.575,6.0426e-06,0
59.576,1.0071e-05,0
59.577,1.2253e-05,0
59.577,1.8799e-05,0
59.578,3.8437e-05,0
59.578,5.5222e-05,0
59.579,5.623e-05,0
59.579,4.9851e-05,0
59.58,5.5894e-05,0
59.58,7.2847e-05,0
59.581,8.2414e-05,0
59.581,8.1071e-05,0
59.582,8.0735e-05,0
59.582,9.2821e-05,0
59.583,0.00011598,0
59.583,0.00013747,0
59.584,0.00014855,0
59.584,0.00015912,0
59.585,0.00017171,0
59.585,0.00017137,0
59.586,0.00015744,0
59.586,0.00016231,0
59.587,0.00019521,0
59.587,0.00020243,0
59.588,0.00014015,0
59.588,3.5248e-06,0
59.589,-0.00016147,0
59.59,-0.0002793,0
59.59,-0.00035131,0
59.591,-0.00041157,0
59.591,-0.00039915,0
59.592,-0.00029189,0
59.592,-0.00017591,0
59.593,-0.00010759,0
59.593,-6.63e-05,0
59.594,-2.501e-05,0
59.594,1.9471e-05,0
59.595,5.539e-05,0
59.595,8.1743e-05,0
59.596,0.00011632,0
59.596,0.000165,0
59.597,0.00020629,0
59.597,0.00017272,0
59.598,9.9199e-05,0
59.598,8.2078e-05,0
59.599,6.4118e-05,0
59.599,3.0213e-06,0
59.6,-4.1459e-05,0
59.6,-3.508e-05,0
59.601,-2.4338e-05,0
59.601,-5.7908e-05,0
59.602,-8.1575e-05,0
59.602,-4.0955e-05,0
59.603,3.1891e-05,0
59.604,0.00010356,0
59.604,0.00017826,0
59.605,0.00025765,0
59.605,0.00031791,0
59.606,0.00035064,0
59.606,0.00036071,0
59.607,0.00034292,0
59.607,0.00029055,0
59.608,0.00013545,0
59.608,-0.00016248,0
59.609,-0.0004349,0
59.609,-0.00054685,0
59.61,-0.00047669,0
59.61,-0.00026184,0
59.611,-3.9612e-05,0
59.611,4.683e-05,0
59.612,-1.8967e-05,0
59.612,-0.00013294,0
59.613,-0.00015962,0
59.613,-8.5771e-05,0
59.614,-4.8676e-06,0
59.614,2.7695e-05,0
59.615,2.7359e-05,0
59.615,5.8747e-06,0
59.616,-4.8005e-05,0
59.617,-7.57e-05,0
59.617,-3.1724e-05,0
59.618,6.5461e-06,0
59.618,-1.561e-05,0
59.619,-2.1653e-05,0
59.619,4.7166e-05,0
59.62,0.00012874,0
59.62,0.00013227,0
59.621,5.8915e-05,0
59.621,-1.1917e-05,0
59.622,-1.6785e-07,0
59.622,5.9922e-05,0
59.623,7.57e-05,0
59.623,1.1749e-06,0
59.624,-8.1743e-05,0
59.624,-5.069e-05,0
59.625,4.4984e-05,0
59.625,8.0735e-05,0
59.626,3.508e-05,0
59.626,-1.091e-05,0
59.627,-6.3783e-06,0
59.627,2.9877e-05,0
59.628,7.4357e-05,0
59.628,0.00012706,0
59.629,0.000166,0
59.63,0.00014133,0
59.63,0.00010491,0
59.631,0.00014066,0
59.631,0.00021367,0
59.632,0.00024691,0
59.632,0.00022341,0
59.633,0.00013277,0
59.633,-6.2104e-06,0
59.634,-0.00010272,0
59.634,-0.00017977,0
59.635,-0.00025614,0
59.635,-0.00023046,0
59.636,-9.9031e-05,0
59.636,1.7288e-05,0
59.637,4.1291e-05,0
59.637,1.6953e-05,0
59.638,3.1052e-05,0
59.638,8.0232e-05,0
59.639,0.00013277,0
59.639,0.00018111,0
59.64,0.00021736,0
59.64,0.00022609,0
59.641,0.00018631,0
59.641,0.00012303,0
59.642,0.00012068,0
59.642,0.00019454,0
59.643,0.00027913,0
59.644,0.00028937,0
59.644,0.00016802,0
59.645,-8.9464e-05,0
59.645,-0.00032613,0
59.646,-0.00037447,0
59.646,-0.00026671,0
59.647,-0.00020427,0
59.647,-0.00025328,0
59.648,-0.00026638,0
59.648,-0.00016802,0
59.649,-4.1291e-05,0
59.649,2.9374e-05,0
59.65,3.592e-05,0
59.65,1.9135e-05,0
59.651,1.1917e-05,0
59.651,1.8296e-05,0
59.652,2.6017e-05,0
59.652,3.3066e-05,0
59.653,4.7669e-05,0
59.653,6.2104e-05,0
59.654,6.3615e-05,0
59.654,7.5364e-05,0
59.655,0.0001227,0
59.655,0.00016936,0
59.656,0.00019319,0
59.657,0.00019185,0
59.657,0.00015862,0
59.658,0.00012068,0
59.658,9.9199e-05,0
59.659,9.0135e-05,0
59.659,8.8457e-05,0
59.66,0.00010927,0
59.66,0.0001331,0
59.661,0.00014855,0
59.661,0.00014401,0
59.662,6.2776e-05,0
59.662,-0.00010843,0
59.663,-0.00029693,0
59.663,-0.00039763,0
59.664,-0.00036893,0
59.664,-0.00023566,0
59.665,-9.0303e-05,0
59.665,-1.1917e-05,0
59.666,-1.1246e-05,0
59.666,-4.0452e-05,0
59.667,-4.4312e-05,0
59.667,-8.7282e-06,0
59.668,3.2731e-05,0
59.668,5.4719e-05,0
59.669,5.2537e-05,0
59.669,2.2324e-05,0
59.67,-2.9374e-05,0
59.671,-5.5222e-05,0
59.671,-2.8702e-05,0
59.672,-2.3835e-05,0
59.672,-7.7043e-05,0
59.673,-0.00010155,0
59.673,-5.2873e-05,0
59.674,1.2085e-05,0
59.674,4.7669e-05,0
59.675,5.9754e-05,0
59.675,6.949e-05,0
59.676,7.8889e-05,0
59.676,9.1142e-05,0
59.677,0.00010961,0
59.677,0.00012471,0
59.678,0.00012941,0
59.678,0.00013042,0
59.679,0.0001368,0
59.679,0.00013613,0
59.68,0.00010155,0
59.68,4.2802e-05,0
59.681,8.896e-06,0
59.681,9.9031e-06,0
59.682,1.3596e-05,0
59.682,-1.7792e-05,0
59.683,-5.388e-05,0
59.684,-3.978e-05,0
59.684,3.0884e-05,0
59.685,0.00012018,0
59.685,0.00018547,0
59.686,0.00021099,0
59.686,0.00017574,0
59.687,7.6371e-05,0
59.687,-3.357e-07,0
59.688,-4.6998e-05,0
59.688,-6.5797e-05,0
59.689,-8.896e-06,0
59.689,7.5029e-05,0
59.69,0.00011196,0
59.69,8.3757e-05,0
59.691,1.8296e-05,0
59.691,-3.2395e-05,0
59.692,-2.3499e-05,0
59.692,3.5752e-05,0
59.693,8.7953e-05,0
59.693,5.6565e-05,0
59.694,-2.9038e-05,0
59.694,-6.2272e-05,0
59.695,-6.4622e-05,0
59.695,-0.0001034,0
59.696,-0.00010524,0
59.696,-1.2253e-05,0
59.697,8.0735e-05,0
59.698,7.6036e-05,0
59.698,8.5603e-06,0
59.699,-4.3305e-05,0
59.699,-4.1794e-05,0
59.7,2.0478e-05,0
59.7,8.0064e-05,0
59.701,6.5293e-05,0
59.701,-3.2395e-05,0
59.702,-0.0001086,0
59.702,-7.3014e-05,0
59.703,2.266e-05,0
59.703,0.00010037,0
59.704,0.00014116,0
59.704,0.00015828,0
59.705,0.0001556,0
59.705,0.00014049,0
59.706,0.00013008,0
59.706,0.00012337,0
59.707,7.9057e-05,0
59.707,-5.2033e-05,0
59.708,-0.00019554,0
59.708,-0.00021653,0
59.709,-0.00011699,0
59.709,-2.266e-05,0
59.71,-6.5461e-06,0
59.711,-7.7211e-06,0
59.711,2.7695e-05,0
59.712,6.6636e-05,0
59.712,7.7714e-05,0
59.713,6.7979e-05,0
59.713,3.743e-05,0
59.714,-1.9974e-05,0
59.714,-6.9657e-05,0
59.715,-6.7811e-05,0
59.715,-1.5442e-05,0
59.716,4.1962e-05,0
59.716,7.3686e-05,0
59.717,8.4596e-05,0
59.717,9.1814e-05,0
59.718,5.7572e-05,0
59.718,-4.7501e-05,0
59.719,-0.00011263,0
59.719,-9.1814e-05,0
59.72,-5.6397e-05,0
59.72,-3.7095e-05,0
59.721,-1.8631e-05,0
59.721,9.2317e-06,0
59.722,2.8031e-05,0
59.722,3.2395e-05,0
59.723,5.0523e-05,0
59.723,8.9464e-05,0
59.724,0.00012236,0
59.725,0.00012857,0
59.725,0.00013613,0
59.726,0.00018144,0
59.726,0.00024086,0
59.727,0.00024892,0
59.727,0.00013411,0
59.728,3.5248e-06,0
59.728,-3.7095e-05,0
59.729,-9.2317e-05,0
59.729,-0.00015358,0
59.73,-0.00012924,0
59.73,-7.0329e-05,0
59.731,-6.1265e-05,0
59.731,-5.2873e-05,0
59.732,5.7069e-06,0
59.732,3.9445e-05,0
59.733,-1.6785e-06,0
59.733,-5.388e-05,0
59.734,-5.153e-05,0
59.734,-4.6998e-06,0
59.735,5.7908e-05,0
59.735,0.00012068,0
59.736,0.00016584,0
59.736,0.00020259,0
59.737,0.00025328,0
59.737,0.00031069,0
59.738,0.00026151,0
59.739,6.5629e-05,0
59.739,-0.00016886,0
59.74,-0.00034644,0
59.74,-0.00039159,0
59.741,-0.00026806,0
59.741,-4.5823e-05,0
59.742,0.00012975,0
59.742,0.00018312,0
59.743,0.0001415,0
59.743,7.6036e-05,0
59.744,-1.796e-05,0
59.744,-0.00019571,0
59.745,-0.00033687,0
59.745,-0.0002981,0
59.746,-0.00013613,0
59.746,5.7069e-06,0
59.747,8.3085e-05,0
59.747,0.00013478,0
59.748,0.00017691,0
59.748,0.00019655,0
59.749,0.0001744,0
59.749,7.1504e-05,0
59.75,-7.4693e-05,0
59.75,-9.3324e-05,0
59.751,2.7359e-05,0
59.752,0.00013797,0
59.752,0.00016399,0
59.753,0.00013126,0
59.753,4.3641e-05,0
59.754,-6.8315e-05,0
59.754,-0.00010742,0
59.755,-4.4144e-05,0
59.755,5.069e-05,0
59.756,0.00010323,0
59.756,8.3925e-05,0
59.757,5.3544e-05,0
59.757,5.3544e-05,0
59.758,4.6662e-05,0
59.758,2.182e-06,0
59.759,-5.3208e-05,0
59.759,-5.388e-05,0
59.76,-1.1749e-06,0
59.76,5.5558e-05,0
59.761,0.00012337,0
59.761,0.0002177,0
59.762,0.0002835,0
59.762,0.00022542,0
59.763,8.2078e-05,0
59.763,-1.6785e-06,0
59.764,-3.6423e-05,0
59.764,-0.00014066,0
59.765,-0.0002276,0
59.766,-0.00013143,0
59.766,9.9031e-06,0
59.767,-1.9638e-05,0
59.767,-0.00010474,0
59.768,-8.4428e-05,0
59.768,-8.2246e-06,0
59.769,1.9806e-05,0
59.769,-9.9031e-06,0
59.77,-5.4551e-05,0
59.77,-0.00010256,0
59.771,-0.00013176,0
59.771,-8.275e-05,0
59.772,4.5823e-05,0
59.772,0.00017305,0
59.773,0.00023751,0
59.773,0.00024086,0
59.774,0.0001697,0
59.774,7.6371e-05,0
59.775,6.0258e-05,0
59.775,0.00013747,0
59.776,0.00021669,0
59.776,0.00021183,0
59.777,9.8192e-05,0
59.777,-9.0639e-05,0
59.778,-0.00027745,0
59.779,-0.00037212,0
59.779,-0.00038152,0
59.78,-0.00036524,0
59.78,-0.00031035,0
59.781,-0.00019135,0
59.781,-8.3421e-05,0
59.782,-5.2201e-05,0
59.782,-5.069e-05,0
59.783,-4.0116e-05,0
59.783,-5.153e-05,0
59.784,-6.7643e-05,0
59.784,-2.9709e-05,0
59.785,4.5151e-05,0
59.785,0.00011044,0
59.786,0.00014049,0
59.786,0.00013126,0
59.787,0.00010709,0
59.787,0.00011162,0
59.788,0.00012656,0
59.788,0.000118,0
59.789,0.00010188,0
59.789,9.2149e-05,0
59.79,8.3421e-05,0
59.79,0.00010793,0
59.791,0.00017708,0
59.791,0.00024691,0
59.792,0.00028518,0
59.793,0.00027913,0
59.793,0.00021065,0
59.794,0.00011263,0
59.794,6.3615e-05,0
59.795,8.4428e-05,0
59.795,0.00011901,0
59.796,0.00010692,0
59.796,7.2679e-05,0
59.797,8.6442e-05,0
59.797,0.00017238,0
59.798,0.00027745,0
59.798,0.00036172,0
59.799,0.00037179,0
59.799,0.00026604,0
59.8,3.9948e-05,0
59.8,-0.00025261,0
59.801,-0.0004678,0
59.801,-0.00049079,0
59.802,-0.00034325,0
59.802,-0.00019823,0
59.803,-0.00018917,0
59.803,-0.0002506,0
59.804,-0.00022039,0
59.804,-0.00010826,0
59.805,-2.2828e-05,0
59.806,3.5248e-06,0
59.806,-1.3931e-05,0
59.807,-7.1336e-05,0
59.807,-0.00012169,0
59.808,-0.00011112,0
59.808,-5.8579e-05,0
59.809,-3.6927e-06,0
59.809,5.5726e-05,0
59.81,0.00010877,0
59.81,0.0001274,0
59.811,0.00011632,0
59.811,9.5003e-05,0
59.812,7.4357e-05,0
59.812,7.2679e-05,0
59.813,8.51e-05,0
59.813,6.244e-05,0
59.814,4.8676e-06,0
59.814,-1.0239e-05,0
59.815,3.9277e-05,0
59.815,7.6036e-05,0
59.816,6.9657e-05,0
59.816,8.7449e-05,0
59.817,0.00015744,0
59.817,0.00023952,0
59.818,0.00026705,0
59.819,0.00022475,0
59.819,0.00014452,0
59.82,3.0045e-05,0
59.82,-0.0001086,0
59.821,-0.00020998,0
59.821,-0.00021569,0
59.822,-0.00012136,0
59.822,3.357e-06,0
59.823,6.6133e-05,0
59.823,3.6088e-05,0
59.824,-3.978e-05,0
59.824,-5.5726e-05,0
59.825,3.3234e-05,0
59.825,0.00015358,0
59.826,0.00022123,0
59.826,0.00020041,0
59.827,0.00011061,0
59.827,4.5823e-05,0
59.828,6.2943e-05,0
59.828,7.8218e-05,0
59.829,2.5177e-06,0
59.829,-9.2317e-05,0
59.83,-0.00011968,0
59.83,-0.0001274,0
59.831,-0.00013176,0
59.831,-0.00010239,0
59.832,-7.1672e-05,0
59.833,-7.1672e-05,0
59.833,-7.4189e-05,0
59.834,-4.4144e-05,0
59.834,3.2563e-05,0
59.835,0.00014083,0
59.835,0.00021535,0
59.836,0.00017003,0
59.836,0.0001133,0
59.837,0.00016164,0
59.837,0.00026621,0
59.838,0.00031589,0
59.838,0.00027326,0
59.839,0.00011397,0
59.839,-0.00012001,0
59.84,-0.00033922,0
59.84,-0.0004631,0
59.841,-0.00039126,0
59.841,-0.000213,0
59.842,-0.00011531,0
59.842,-0.00012908,0
59.843,-0.00015341,0
59.843,-0.00013092,0
59.844,-9.5171e-05,0
59.844,-8.2246e-05,0
59.845,-5.7572e-05,0
59.846,1.9974e-05,0
59.846,0.00011699,0
59.847,0.00018614,0
59.847,0.00021552,0
59.848,0.00022106,0
59.848,0.00017977,0
59.849,7.2343e-05,0
59.849,-2.9038e-05,0
59.85,-0.00013059,0
59.85,-0.00019504,0
59.851,-9.5506e-05,0
59.851,8.661e-05,0
59.852,0.00016265,0
59.852,0.00012857,0
59.853,0.00010155,0
59.853,0.00011699,0
59.854,0.0001185,0
59.854,4.0787e-05,0
59.855,-0.00011229,0
59.855,-0.00018816,0
59.856,-8.6442e-05,0
59.856,6.6636e-05,0
59.857,0.00013411,0
59.857,0.0001425,0
59.858,0.00016298,0
59.858,0.00020058,0
59.859,0.00022441,0
59.86,0.00022341,0
59.86,0.0002125,0
59.861,0.00018614,0
59.861,0.00015828,0
59.862,0.0001697,0
59.862,0.00019672,0
59.863,0.00013478,0
59.863,-6.5965e-05,0
59.864,-0.00022458,0
59.864,-0.00019403,0
59.865,-8.4092e-05,0
59.865,-5.4047e-05,0
59.866,-8.896e-05,0
59.866,-0.00010323,0
59.867,-9.7688e-05,0
59.867,-6.0929e-05,0
59.868,3.6423e-05,0
59.868,0.00014116,0
59.869,0.00018883,0
59.869,0.00018094,0
59.87,0.00014754,0
59.87,0.00010793,0
59.871,1.1582e-05,0
59.871,-0.00018531,0
59.872,-0.00041408,0
59.873,-0.00048609,0
59.873,-0.00032462,0
59.874,-8.8457e-05,0
59.874,7.1336e-05,0
59.875,0.00013848,0
59.875,0.00015023,0
59.876,0.0001331,0
59.876,8.6778e-05,0
59.877,5.2033e-06,0
59.877,-5.8915e-05,0
59.878,-4.7501e-05,0
59.878,-4.3641e-06,0
59.879,2.3331e-05,0
59.879,6.2272e-05,0
59.88,0.00012337,0
59.88,0.00018715,0
59.881,0.00023549,0
59.881,0.00024875,0
59.882,0.00020259,0
59.882,7.5029e-05,0
59.883,-6.1936e-05,0
59.883,-0.0001091,0
59.884,-7.2847e-05,0
59.884,-1.8296e-05,0
59.885,-9.5674e-06,0
59.885,-4.3641e-06,0
59.886,9.2485e-05,0
59.887,0.0002506,0
59.887,0.00038303,0
59.888,0.00043691,0
59.888,0.00038521,0
59.889,0.00025496,0
59.889,0.00013008,0
59.89,-4.8173e-05,0
59.89,-0.00035886,0
59.891,-0.00063548,0
59.891,-0.00064756,0
59.892,-0.00046259,0
59.892,-0.00027326,0
59.893,-0.00014519,0
59.893,-8.3421e-05,0
59.894,-8.0735e-05,0
59.894,-8.6778e-05,0
59.895,-5.2537e-05,0
59.895,3.0213e-06,0
59.896,5.3544e-05,0
59.896,9.2485e-05,0
59.897,0.0001091,0
59.897,0.00010289,0
59.898,9.4499e-05,0
59.898,8.9464e-05,0
59.899,6.4118e-05,0
59.9,3.0045e-05,0
59.9,3.3738e-05,0
59.901,5.8412e-05,0
59.901,5.5055e-05,0
59.902,3.7766e-05,0
59.902,4.6494e-05,0
59.903,8.7785e-05,0
59.903,0.0001415,0
59.904,0.00018984,0
59.904,0.00021334,0
59.905,0.00022374,0
59.905,0.00024053,0
59.906,0.00023449,0
59.906,0.00018581,0
59.907,0.00012673,0
59.907,8.1407e-05,0
59.908,6.3783e-05,0
59.908,5.1194e-05,0
59.909,3.1891e-06,0
59.909,-5.5055e-05,0
59.91,-8.6778e-05,0
59.91,-8.2414e-05,0
59.911,-4.0452e-05,0
59.911,1.5946e-05,0
59.912,4.4144e-05,0
59.912,2.7695e-05,0
59.913,-2.8534e-06,0
59.914,5.0355e-07,0
59.914,3.508e-05,0
59.915,6.4958e-05,0
59.915,9.7688e-05,0
59.916,0.00012052,0
59.916,6.0258e-05,0
59.917,-6.9154e-05,0
59.917,-0.00016886,0
59.918,-0.00025765,0
59.918,-0.00033872,0
59.919,-0.00029911,0
59.919,-0.00015392,0
59.92,-2.7695e-05,0
59.92,1.796e-05,0
59.921,1.9638e-05,0
59.921,1.4099e-05,0
59.922,1.561e-05,0
59.922,6.2608e-05,0
59.923,0.00015996,0
59.923,0.00024472,0
59.924,0.00027175,0
59.924,0.00027376,0
59.925,0.00030297,0
59.925,0.00035752,0
59.926,0.00034896,0
59.926,0.00022475,0
59.927,3.0549e-05,0
59.928,-0.00018564,0
59.928,-0.00034946,0
59.929,-0.00039646,0
59.929,-0.00034611,0
59.93,-0.00022542,0
59.93,-2.9038e-05,0
59.931,0.00016902,0
59.931,0.00026638,0
59.932,0.0002845,0
59.932,0.00034879,0
59.933,0.00046108,0
59.933,0.00043557,0
59.934,0.00016432,0
59.934,-0.00017977,0
59.935,-0.00037615,0
59.935,-0.00041392,0
59.936,-0.00045286,0
59.936,-0.00052016,0
59.937,-0.00047333,0
59.937,-0.0003033,0
59.938,-0.00016399,0
59.938,-0.00014116,0
59.939,-0.00012908,0
59.939,-4.8844e-05,0
59.94,3.6759e-05,0
59.941,5.4047e-05,0
59.941,-1.8463e-06,0
59.942,-9.6345e-05,0
59.942,-0.00017859,0
59.943,-0.00018312,0
59.943,-7.57e-05,0
59.944,7.6707e-05,0
59.944,0.00018581,0
59.945,0.00023616,0
59.945,0.00023952,0
59.946,0.00021871,0
59.946,0.0002036,0
59.947,0.00019286,0
59.947,0.00015694,0
59.948,8.275e-05,0
59.948,-1.2253e-05,0
59.949,-7.8721e-05,0
59.949,-4.1459e-05,0
59.95,8.9632e-05,0
59.95,0.00019924,0
59.951,0.00023029,0
59.951,0.00022408,0
59.952,0.00022676,0
59.952,0.00022744,0
59.953,0.00017507,0
59.953,5.623e-05,0
59.954,-3.8102e-05,0
59.955,-6.0426e-05,0
59.955,-4.1962e-05,0
59.956,-1.091e-05,0
59.956,1.1246e-05,0
59.957,2.7024e-05,0
59.957,5.5558e-05,0
59.958,8.0735e-05,0
59.958,8.0735e-05,0
59.959,7.7379e-05,0
59.959,0.0001039,0
59.96,0.0001556,0
59.96,0.00020461,0
59.961,0.00021955,0
59.961,0.00020729,0
59.962,0.00022005,0
59.962,0.00024154,0
59.963,0.00019991,0
59.963,6.4286e-05,0
59.964,-9.9367e-05,0
59.964,-0.00016919,0
59.965,-0.00017876,0
59.965,-0.00023432,0
59.966,-0.00033285,0
59.966,-0.00036524,0
59.967,-0.00027477,0
59.968,-0.00012354,0
59.968,6.714e-06,0
59.969,8.6442e-05,0
59.969,0.00013109,0
59.97,0.0001603,0
59.97,0.00016231,0
59.971,0.00010306,0
59.971,-1.6785e-07,0
59.972,-7.4693e-05,0
59.972,-6.2104e-05,0
59.973,4.5487e-05,0
59.973,0.00016197,0
59.974,0.00014553,0
59.974,3.6088e-05,0
59.975,-8.5603e-06,0
59.975,3.1724e-05,0
59.976,7.4022e-05,0
59.976,4.4648e-05,0
59.977,-0.00010373,0
59.977,-0.00029575,0
59.978,-0.00031019,0
59.978,-0.00014301,0
59.979,4.7333e-05,0
59.979,0.00020293,0
59.98,0.00036407,0
59.98,0.00051328,0
59.981,0.00059133,0
59.982,0.00056767,0
59.982,0.0004542,0
59.983,0.00031908,0
59.983,0.00021334,0
59.984,-7.7211e-06,0
59.984,-0.00037967,0
59.985,-0.00060711,0
59.985,-0.00055575,0
59.986,-0.00045588,0
59.986,-0.00040821,0
59.987,-0.00031824,0
59.987,-0.00020192,0
59.988,-0.00013008,0
59.988,-9.2988e-05,0
59.989,-7.1336e-05,0
59.989,-6.8818e-05,0
59.99,-6.1601e-05,0
59.99,-1.9806e-05,0
59.991,8.191e-05,0
59.991,0.00015073,0
59.992,0.00010558,0
59.992,3.4241e-05,0
59.993,4.4648e-05,0
59.993,9.9031e-05,0
59.994,7.4693e-05,0
59.995,-4.9012e-05,0
59.995,-0.00020175,0
59.996,-0.00035836,0
59.996,-0.00040536,0
59.997,-0.00027343,0
59.997,-9.4835e-05,0
59.998,-6.8818e-06,0
59.998,1.1246e-05,0
59.999,3.4409e-05,0
59.999,6.6972e-05,0
60,7.9057e-05,0
60,7.2679e-05,0
60.001,8.275e-05,0
60.001,0.00011649,0
60.002,0.00014318,0
60.002,0.0001509,0
60.003,0.00014687,0
60.003,0.00013864,0
60.004,0.00013243,0
60.004,0.00013008,0
60.005,0.00012807,0
60.005,0.0001232,0
60.006,0.000118,0
60.006,0.00011296,0
60.007,0.00010977,0
60.008,0.00011733,0
60.008,0.00014217,0
60.009,0.00017221,0
60.009,0.00019722,0
60.01,0.0002083,0
60.01,0.0002031,0
60.011,0.00019017,0
60.011,0.00017003,0
60.012,0.00013848,0
60.012,0.00010407,0
60.013,0.00010608,0
60.013,0.00020175,0
60.014,0.00033318,0
60.014,0.00037313,0
60.015,0.0003268,0
60.015,0.00031539,0
60.016,0.00032345,0
60.016,0.00020461,0
60.017,-3.5584e-05,0
60.017,-0.00026957,0
60.018,-0.00046091,0
60.018,-0.00062473,0
60.019,-0.00065327,0
60.019,-0.00048576,0
60.02,-0.00026033,0
60.02,-0.00011699,0
60.021,-5.304e-05,0
60.022,-9.2317e-06,0
60.022,2.266e-05,0
60.023,2.8534e-05,0
60.023,2.0981e-05,0
60.024,2.0813e-05,0
60.024,3.3234e-05,0
60.025,6.009e-05,0
60.025,8.2414e-05,0
60.026,5.1194e-05,0
60.026,1.2589e-05,0
60.027,3.0549e-05,0
60.027,7.4357e-05,0
60.028,0.00011061,0
60.028,0.00016416,0
60.029,0.00024456,0
60.029,0.0002934,0
60.03,0.00022039,0
60.03,7.9728e-05,0
60.031,6.3783e-05,0
60.031,0.00016835,0
60.032,0.00019286,0
60.032,6.63e-05,0
60.033,-9.3156e-05,0
60.033,-0.00020478,0
60.034,-0.00028148,0
60.035,-0.00029693,0
60.035,-0.00023868,0
60.036,-0.00015744,0
60.036,-0.00010239,0
60.037,-0.00011011,0
60.037,-0.0001514,0
60.038,-0.00014653,0
60.038,-7.2343e-05,0
60.039,-2.3499e-06,0
60.039,-2.031e-05,0
60.04,-0.00011011,0
60.04,-0.0001519,0
60.041,-0.00013579,0
60.041,-0.00012169,0
60.042,-9.601e-05,0
60.042,-3.1052e-05,0
60.043,8.2414e-05,0
60.043,0.00017624,0
60.044,0.00018279,0
60.044,0.00015996,0
60.045,0.00016466,0
60.045,0.00016634,0
60.046,0.00012538,0
60.046,3.8941e-05,0
60.047,-3.9612e-05,0
60.047,1.796e-05,0
60.048,0.00022072,0
60.049,0.00040703,0
60.049,0.00046813,0
60.05,0.00042097,0
60.05,0.00030666,0
60.051,8.4092e-05,0
60.051,-0.00019924,0
60.052,-0.0003832,0
60.052,-0.00038907,0
60.053,-0.00028685,0
60.053,-0.0001744,0
60.054,-8.5603e-05,0
60.054,-1.5274e-05,0
60.055,3.122e-05,0
60.055,4.213e-05,0
60.056,2.8702e-05,0
60.056,1.2421e-05,0
60.057,9.5674e-06,0
60.057,4.0116e-05,0
60.058,8.4932e-05,0
60.058,0.00010625,0
60.059,9.1478e-05,0
60.059,6.865e-05,0
60.06,5.2201e-05,0
60.06,6.2104e-06,0
60.061,-7.5868e-05,0
60.062,-0.00011917,0
60.062,-7.8386e-05,0
60.063,-1.3596e-05,0
60.063,1.4267e-05,0
60.064,1.0575e-05,0
60.064,1.0575e-05,0
60.065,2.2324e-05,0
60.065,3.9445e-05,0
60.066,5.8915e-05,0
60.066,7.57e-05,0
60.067,8.4932e-05,0
60.067,8.9128e-05,0
60.068,9.1142e-05,0
60.068,9.5506e-05,0
60.069,0.00010658,0
60.069,0.0001133,0
60.07,9.7017e-05,0
60.07,5.2537e-05,0
60.071,1.1917e-05,0
60.071,1.9303e-05,0
60.072,5.7572e-05,0
60.072,8.2918e-05,0
60.073,8.9464e-05,0
60.073,0.00010239,0
60.074,0.00015526,0
60.074,0.00024691,0
60.075,0.00033654,0
60.076,0.00036776,0
60.076,0.00031203,0
60.077,0.0002276,0
60.077,0.00017305,0
60.078,0.00019521,0
60.078,0.00019991,0
60.079,4.7333e-05,0
60.079,-0.00017473,0
60.08,-0.0002845,0
60.08,-0.00034275,0
60.081,-0.0003503,0
60.081,-0.00021485,0
60.082,-1.9135e-05,0
60.082,8.2078e-05,0
60.083,3.1388e-05,0
60.083,-0.00017691,0
60.084,-0.0004114,0
60.084,-0.00041324,0
60.085,-0.00020327,0
60.085,-2.8199e-05,0
60.086,1.7456e-05,0
60.086,1.3092e-05,0
60.087,1.4939e-05,0
60.087,2.4506e-05,0
60.088,7.2511e-05,0
60.089,0.00012874,0
60.089,0.00010054,0
60.09,3.8605e-06,0
60.09,-5.9251e-05,0
60.091,-4.1459e-05,0
60.091,4.5319e-06,0
60.092,-1.1749e-06,0
60.092,-4.9012e-05,0
60.093,-4.2802e-05,0
60.093,1.2757e-05,0
60.094,4.9012e-05,0
60.094,8.4428e-05,0
60.095,0.0001462,0
60.095,0.00017087,0
60.096,8.8457e-05,0
60.096,-4.2466e-05,0
60.097,-0.00013411,0
60.097,-0.00012958,0
60.098,-5.4719e-05,0
60.098,3.5248e-06,0
60.099,3.1724e-05,0
60.099,6.5461e-05,0
60.1,0.00011179,0
60.1,0.0001556,0
60.101,0.0001984,0
60.101,0.00024439,0
60.102,0.00025698,0
60.103,0.00015325,0
60.103,-4.5319e-06,0
60.104,-3.7766e-05,0
60.104,2.887e-05,0
60.105,3.6927e-05,0
60.105,-5.2033e-05,0
60.106,-0.00014737,0
60.106,-0.0001519,0
60.107,-6.5293e-05,0
60.107,2.9877e-05,0
60.108,8.1743e-05,0
60.108,7.1336e-05,0
60.109,2.7024e-05,0
60.109,9.5674e-06,0
60.11,1.9135e-05,0
60.11,4.6326e-05,0
60.111,9.6513e-05,0
60.111,0.00016349,0
60.112,0.00021636,0
60.112,0.00022945,0
60.113,0.00021518,0
60.113,0.00017171,0
60.114,8.8457e-05,0
60.114,-5.623e-05,0
60.115,-0.00024758,0
60.115,-0.00040754,0
60.116,-0.00048576,0
60.117,-0.00044094,0
60.117,-0.00031136,0
60.118,-0.00017691,0
60.118,-6.7811e-05,0
60.119,1.8296e-05,0
60.119,0.00011397,0
60.12,0.00023046,0
60.12,0.00030062,0
60.121,0.00026101,0
60.121,0.0001984,0
60.122,0.00017842,0
60.122,0.00011833,0
60.123,3.2731e-05,0
60.123,-2.6688e-05,0
60.124,-0.00013512,0
60.124,-0.00028115,0
60.125,-0.00037665,0
60.125,-0.00040049,0
60.126,-0.00032613,0
60.126,-0.00016667,0
60.127,-2.8702e-05,0
60.127,2.6688e-05,0
60.128,4.1291e-05,0
60.128,7.2343e-05,0
60.129,0.00011363,0
60.13,0.0001284,0
60.13,0.00016802,0
60.131,0.00025631,0
60.131,0.00032143,0
60.132,0.00034829,0
60.132,0.00033889,0
60.133,0.00019857,0
60.133,-0.00011112,0
60.134,-0.00034325,0
60.134,-0.00032764,0
60.135,-0.00019504,0
60.135,-8.6275e-05,0
60.136,-2.9709e-05,0
60.136,-2.3499e-06,0
60.137,3.2059e-05,0
60.137,7.8553e-05,0
60.138,0.00011749,0
60.138,0.00013948,0
60.139,0.00015224,0
60.139,0.00015157,0
60.14,0.00013075,0
60.14,6.8986e-05,0
60.141,-1.2085e-05,0
60.141,-2.266e-05,0
60.142,2.0813e-05,0
60.142,3.1724e-05,0
60.143,2.3163e-05,0
60.144,7.0665e-05,0
60.144,0.00019319,0
60.145,0.00032882,0
60.145,0.0004161,0
60.146,0.00044295,0
60.146,0.0004213,0
60.147,0.00035265,0
60.147,0.00019185,0
60.148,-4.062e-05,0
60.148,-0.0002506,0
60.149,-0.00037833,0
60.149,-0.00038219,0
60.15,-0.00029776,0
60.15,-0.00022358,0
60.151,-0.00021267,0
60.151,-0.00022139,0
60.152,-0.00019353,0
60.152,-0.00012706,0
60.153,-5.304e-05,0
60.153,-7.8889e-06,0
60.154,2.7024e-05,0
60.154,8.6946e-05,0
60.155,0.00015476,0
60.155,0.00019554,0
60.156,0.00020595,0
60.157,0.00019974,0
60.157,0.00017675,0
60.158,0.00011263,0
60.158,-2.5681e-05,0
60.159,-0.00015358,0
60.159,-0.00019118,0
60.16,-0.00015425,0
60.16,-9.3996e-05,0
60.161,-3.8773e-05,0
60.161,2.182e-06,0
60.162,1.6281e-05,0
60.162,4.3641e-06,0
60.163,-6.0426e-06,0
60.163,3.1891e-06,0
60.164,2.6017e-05,0
60.164,5.0019e-05,0
60.165,6.4958e-05,0
60.165,7.1e-05,0
60.166,6.1601e-05,0
60.166,3.0045e-05,0
60.167,5.539e-06,0
60.167,3.6759e-05,0
60.168,0.00010356,0
60.168,0.0001519,0
60.169,0.00016701,0
60.169,0.00016852,0
60.17,0.00018648,0
60.171,0.00021065,0
60.171,0.00017574,0
60.172,6.3783e-05,0
60.172,-4.2634e-05,0
60.173,-0.00010893,0
60.173,-0.00012857,0
60.174,-6.4118e-05,0
60.174,5.5894e-05,0
60.175,0.00014401,0
60.175,0.00017272,0
60.176,0.00018782,0
60.176,0.00022542,0
60.177,0.00022509,0
60.177,0.00014653,0
60.178,8.5771e-05,0
60.178,9.1142e-05,0
60.179,8.275e-05,0
60.179,2.9709e-05,0
60.18,-4.5655e-05,0
60.18,-0.00017708,0
60.181,-0.00034342,0
60.181,-0.00039512,0
60.182,-0.00029961,0
60.182,-0.00019152,0
60.183,-0.00015727,0
60.184,-0.00015341,0
60.184,-0.00010138,0
60.185,-1.5106e-06,0
60.185,8.1743e-05,0
60.186,0.00011061,0
60.186,0.00010457,0
60.187,0.00011531,0
60.187,0.00015828,0
60.188,0.00020108,0
60.188,0.00021065,0
60.189,0.00017238,0
60.189,8.3085e-05,0
60.19,-1.0239e-05,0
60.19,-9.2317e-05,0
60.191,-0.00018782,0
60.191,-0.00026755,0
60.192,-0.00026369,0
60.192,-0.00017725,0
60.193,-7.4861e-05,0
60.193,-1.6785e-07,0
60.194,5.2705e-05,0
60.194,0.00012387,0
60.195,0.00023734,0
60.195,0.00032277,0
60.196,0.00032546,0
60.197,0.00025026,0
60.197,0.00012572,0
60.198,2.5177e-06,0
60.198,-5.5558e-05,0
60.199,-9.7017e-05,0
60.199,-0.00015811,0
60.2,-0.00012773,0
60.2,1.2757e-05,0
60.201,0.00015795,0
60.201,0.00022274,0
60.202,0.00019571,0
60.202,0.0001744,0
60.203,0.00014318,0
60.203,-4.9516e-05,0
60.204,-0.00027259,0
60.204,-0.00027628,0
60.205,-0.00018967,0
60.205,-0.00024002,0
60.206,-0.00027779,0
60.206,-0.00016114,0
60.207,-8.3925e-07,0
60.207,6.0258e-05,0
60.208,8.7282e-06,0
60.208,-1.8967e-05,0
60.209,4.8508e-05,0
60.209,0.00013277,0
60.21,0.00015946,0
60.211,0.000118,0
60.211,3.7934e-05,0
60.212,-2.5177e-06,0
60.212,4.0284e-05,0
60.213,0.00010793,0
60.213,9.8863e-05,0
60.214,-1.7288e-05,0
60.214,-0.00011313,0
60.215,-6.5965e-05,0
60.215,7.1e-05,0
60.216,0.00017775,0
60.216,0.00021065,0
60.217,0.00018883,0
60.217,0.00013478,0
60.218,7.9057e-05,0
60.218,5.5894e-05,0
60.219,2.2492e-05,0
60.219,-8.9799e-05,0
60.22,-0.00020662,0
60.22,-0.0001848,0
60.221,-4.2634e-05,0
60.221,0.00010591,0
60.222,0.00020511,0
60.222,0.00026839,0
60.223,0.00032613,0
60.224,0.00035937,0
60.224,0.00030918,0
60.225,0.00013327,0
60.225,-8.5603e-05,0
60.226,-0.0001801,0
60.226,-0.00017977,0
60.227,-0.0002031,0
60.227,-0.00023113,0
60.228,-0.00018866,0
60.228,-7.57e-05,0
60.229,2.7192e-05,0
60.229,6.3951e-05,0
60.23,5.5222e-05,0
60.23,3.978e-05,0
60.231,2.5681e-05,0
60.231,1.3931e-05,0
60.232,9.7353e-06,0
60.232,1.6785e-05,0
60.233,2.7024e-05,0
60.233,3.2059e-05,0
60.234,5.2537e-05,0
60.234,8.7114e-05,0
60.235,0.00011246,0
60.235,0.00012555,0
60.236,0.00013931,0
60.236,0.00012673,0
60.237,6.1265e-05,0
60.238,3.357e-07,0
60.238,3.8605e-06,0
60.239,4.918e-05,0
60.239,8.51e-05,0
60.24,8.896e-05,0
60.24,5.3544e-05,0
60.241,-7.0497e-06,0
60.241,-5.8579e-05,0
60.242,-5.5894e-05,0
60.242,-1.4435e-05,0
60.243,1.5274e-05,0
60.243,2.3331e-05,0
60.244,1.7288e-05,0
60.244,1.1582e-05,0
60.245,3.7095e-05,0
60.245,6.1936e-05,0
60.246,3.4745e-05,0
60.246,3.0213e-06,0
60.247,2.7359e-05,0
60.247,7.5364e-05,0
60.248,6.3279e-05,0
60.248,-3.2898e-05,0
60.249,-0.00012505,0
60.249,-0.00013075,0
60.25,-7.8889e-05,0
60.251,-1.6281e-05,0
60.251,3.1891e-05,0
60.252,4.3473e-05,0
60.252,2.6688e-05,0
60.253,1.091e-05,0
60.253,8.3925e-06,0
60.254,6.3783e-06,0
60.254,-9.7353e-06,0
60.255,-4.1794e-05,0
60.255,-6.4958e-05,0
60.256,-1.561e-05,0
60.256,0.00011666,0
60.257,0.00022408,0
60.257,0.00025026,0
60.258,0.00020058,0
60.258,0.00012068,0
60.259,0.00013008,0
60.259,0.00022156,0
60.26,0.0002177,0
60.26,-6.2104e-06,0
60.261,-0.00028132,0
60.261,-0.00035416,0
60.262,-0.00025949,0
60.262,-0.0001848,0
60.263,-0.000213,0
60.263,-0.00024691,0
60.264,-0.00016919,0
60.265,-2.4674e-05,0
60.265,8.661e-05,0
60.266,0.00015409,0
60.266,0.00019588,0
60.267,0.00023516,0
60.267,0.00026973,0
60.268,0.0002459,0
60.268,0.00014888,0
60.269,-1.0575e-05,0
60.269,-0.00015392,0
60.27,-0.00015912,0
60.27,-3.6759e-05,0
60.271,7.6707e-05,0
60.271,4.2802e-05,0
60.272,-0.00013747,0
60.272,-0.0001984,0
60.273,1.2253e-05,0
60.273,0.00028316,0
60.274,0.00040401,0
60.274,0.00032731,0
60.275,0.00013143,0
60.275,-0.00012136,0
60.276,-0.00036054,0
60.276,-0.00042281,0
60.277,-0.00036054,0
60.278,-0.00031791,0
60.278,-0.0002939,0
60.279,-0.00021384,0
60.279,-0.00011313,0
60.28,-7.9057e-05,0
60.28,-9.2149e-05,0
60.281,-7.5364e-05,0
60.281,-1.6281e-05,0
60.282,3.743e-05,0
60.282,8.275e-05,0
60.283,0.00012807,0
60.283,0.00014519,0
60.284,0.0001284,0
60.284,0.00012303,0
60.285,0.0001519,0
60.285,0.00017171,0
60.286,0.00015425,0
60.286,0.00011934,0
60.287,8.8792e-05,0
60.287,6.2608e-05,0
60.288,5.5558e-05,0
60.288,7.4189e-05,0
60.289,9.2149e-05,0
60.289,8.9799e-05,0
60.29,7.2343e-05,0
60.29,6.0594e-05,0
60.291,6.479e-05,0
60.292,8.2246e-05,0
60.292,0.00011598,0
60.293,0.00016466,0
60.293,0.0002036,0
60.294,0.00020914,0
60.294,0.00019084,0
60.295,0.00015979,0
60.295,0.00010591,0
60.296,5.2537e-05,0
60.296,1.6281e-05,0
60.297,-2.3331e-05,0
60.297,-8.9632e-05,0
60.298,-0.00015224,0
60.298,-0.00015795,0
60.299,-0.00011414,0
60.299,-6.8315e-05,0
60.3,-4.9012e-05,0
60.3,-4.9516e-05,0
60.301,-4.8173e-05,0
60.301,-3.5752e-05,0
60.302,-1.7624e-05,0
60.302,4.5319e-06,0
60.303,3.508e-05,0
60.303,7.4189e-05,0
60.304,0.00011666,0
60.304,0.00014955,0
60.305,0.00016097,0
60.306,0.00015375,0
60.306,9.836e-05,0
60.307,1.0575e-05,0
60.307,1.6785e-05,0
60.308,0.00012438,0
60.308,0.00019319,0
60.309,0.00015694,0
60.309,9.601e-05,0
60.31,6.7643e-05,0
60.31,4.8173e-05,0
60.311,7.5532e-06,0
60.311,-8.0735e-05,0
60.312,-0.00016365,0
60.312,-0.00014704,0
60.313,-0.00010088,0
60.313,-0.00012102,0
60.314,-0.00014183,0
60.314,-9.2149e-05,0
60.315,-2.3331e-05,0
60.315,4.5319e-06,0
60.316,-1.0239e-05,0
60.316,-1.9638e-05,0
60.317,2.182e-05,0
60.317,9.4499e-05,0
60.318,0.00017137,0
60.319,0.00020981,0
60.319,0.00019722,0
60.32,0.00012992,0
60.32,1.1749e-06,0
60.321,-0.00011196,0
60.321,-0.00015056,0
60.322,-0.00013008,0
60.322,-5.8412e-05,0
60.323,5.0858e-05,0
60.323,0.00014166,0
60.324,0.00015543,0
60.324,0.00015325,0
60.325,0.00019286,0
60.325,0.00010793,0
60.326,-0.00012454,0
60.326,-0.00024707,0
60.327,-0.00021501,0
60.327,-0.00014234,0
60.328,-9.0135e-05,0
60.328,-8.5771e-05,0
60.329,-6.5965e-05,0
60.329,6.8818e-06,0
60.33,7.4357e-05,0
60.33,0.00011934,0
60.331,0.00019068,0
60.331,0.00028954,0
60.332,0.00034829,0
60.333,0.00030767,0
60.333,0.00017977,0
60.334,7.3014e-05,0
60.334,-5.0355e-05,0
60.335,-0.00025849,0
60.335,-0.0004114,0
60.336,-0.00041392,0
60.336,-0.00030263,0
60.337,-0.00020024,0
60.337,-0.00021569,0
60.338,-0.00029223,0
60.338,-0.00025933,0
60.339,-0.00010541,0
60.339,3.6423e-05,0
60.34,8.9464e-05,0
60.34,8.1575e-05,0
60.341,5.7572e-05,0
60.341,4.9516e-05,0
60.342,8.2582e-05,0
60.342,0.00011783,0
60.343,0.00011917,0
60.343,0.00010759,0
60.344,9.9199e-05,0
60.344,7.5029e-05,0
60.345,2.0645e-05,0
60.346,-3.2731e-05,0
60.346,-6.2943e-05,0
60.347,-4.918e-05,0
60.347,3.0213e-05,0
60.348,0.00012538,0
60.348,0.00018178,0
60.349,0.00020847,0
60.349,0.00024489,0
60.35,0.00029155,0
60.35,0.00030515,0
60.351,0.00023247,0
60.351,7.4861e-05,0
60.352,-7.5532e-05,0
60.352,-0.00013512,0
60.353,-0.00010256,0
60.353,-2.1988e-05,0
60.354,5.6901e-05,0
60.354,0.00011481,0
60.355,0.00014116,0
60.355,0.00011666,0
60.356,7.0832e-05,0
60.356,7.8386e-05,0
60.357,0.0001133,0
60.357,0.00010155,0
60.358,5.7908e-05,0
60.358,3.743e-05,0
60.359,2.9374e-05,0
60.36,5.2033e-06,0
60.36,-1.3764e-05,0
60.361,-2.3835e-05,0
60.361,-1.561e-05,0
60.362,3.6255e-05,0
60.362,0.00010759,0
60.363,0.00014553,0
60.363,9.3828e-05,0
60.364,-2.9038e-05,0
60.364,-0.00011145,0
60.365,-9.2988e-05,0
60.365,-1.9806e-05,0
60.366,1.9974e-05,0
60.366,4.8676e-05,0
60.367,0.00012572,0
60.367,0.0002172,0
60.368,0.00024154,0
60.368,0.00020662,0
60.369,0.00015593,0
60.369,5.1194e-05,0
60.37,-4.7837e-05,0
60.37,-0.00010692,0
60.371,-0.00019084,0
60.371,-0.00030297,0
60.372,-0.00038723,0
60.373,-0.00041375,0
60.373,-0.00033184,0
60.374,-0.00018614,0
60.374,-0.00010323,0
60.375,-0.00011531,0
60.375,-0.00012035,0
60.376,-5.0523e-05,0
60.376,2.9374e-05,0
60.377,6.0929e-05,0
60.377,7.8721e-05,0
60.378,0.00011431,0
60.378,0.0001462,0
60.379,0.00018312,0
60.379,0.00022374,0
60.38,0.00021703,0
60.38,0.00017708,0
60.381,0.00013059,0
60.381,-1.4267e-05,0
60.382,-0.00023902,0
60.382,-0.00031405,0
60.383,-0.00020125,0
60.383,-9.9199e-05,0
60.384,-7.6707e-05,0
60.384,-3.4409e-05,0
60.385,3.1724e-05,0
60.386,2.7192e-05,0
60.386,-4.4984e-05,0
60.387,-7.0665e-05,0
60.387,-2.8534e-06,0
60.388,8.7114e-05,0
60.388,0.00013982,0
60.389,0.00014217,0
60.389,7.6371e-05,0
60.39,-4.0452e-05,0
60.39,-9.4499e-05,0
60.391,-5.8915e-05,0
60.391,-1.3428e-06,0
60.392,4.7501e-05,0
60.392,0.00010121,0
60.393,0.00016768,0
60.393,0.0002266,0
60.394,0.00026134,0
60.394,0.00028182,0
60.395,0.00028518,0
60.395,0.00027359,0
60.396,0.00026302,0
60.396,0.00022676,0
60.397,0.00020494,0
60.397,0.00028685,0
60.398,0.00043926,0
60.398,0.00051647,0
60.399,0.00043624,0
60.4,0.00025899,0
60.4,0.0001039,0
60.401,-1.8463e-05,0
60.401,-0.00021468,0
60.402,-0.00052537,0
60.402,-0.00079107,0
60.403,-0.00079493,0
60.403,-0.00056934,0
60.404,-0.00035332,0
60.404,-0.00023415,0
60.405,-0.00015828,0
60.405,-9.0135e-05,0
60.406,-2.1149e-05,0
60.406,3.0549e-05,0
60.407,5.153e-05,0
60.407,6.2943e-05,0
60.408,0.00010054,0
60.408,0.00015157,0
60.409,0.00019135,0
60.409,0.00021334,0
60.41,0.00018782,0
60.41,0.00010222,0
60.411,-8.896e-06,0
60.411,-8.2582e-05,0
60.412,-3.4577e-05,0
60.413,0.00010759,0
60.413,0.00020998,0
60.414,0.00016634,0
60.414,2.8367e-05,0
60.415,-1.7624e-05,0
60.415,4.0116e-05,0
60.416,6.3279e-05,0
60.416,4.8508e-05,0
60.417,2.8702e-05,0
60.417,1.326e-05,0
60.418,9.1142e-05,0
60.418,0.0002835,0
60.419,0.00041778,0
60.419,0.00035702,0
60.42,0.0001791,0
60.42,-3.1891e-06,0
60.421,-0.00020629,0
60.421,-0.00036306,0
60.422,-0.00036759,0
60.422,-0.00031539,0
60.423,-0.00025698,0
60.423,-0.0001994,0
60.424,-0.00020612,0
60.424,-0.0001707,0
60.425,-1.0575e-05,0
60.425,0.00012236,0
60.426,9.8527e-05,0
60.427,6.2104e-06,0
60.427,-4.4648e-05,0
60.428,-8.2918e-05,0
60.428,-0.0001697,0
60.429,-0.00024187,0
60.429,-0.00019705,0
60.43,-6.7475e-05,0
60.43,5.6565e-05,0
60.431,0.00014838,0
60.431,0.00021384,0
60.432,0.00025614,0
60.432,0.00027326,0
60.433,0.00025866,0
60.433,0.00020662,0
60.434,0.00013394,0
60.434,5.1194e-05,0
60.435,-4.4984e-05,0
60.435,-9.5171e-05,0
60.436,-5.2705e-05,0
60.436,4.4144e-05,0
60.437,0.00014586,0
60.437,0.00022005,0
60.438,0.00026973,0
60.438,0.00031572,0
60.439,0.00035735,0
60.44,0.00036977,0
60.44,0.00035215,0
60.441,0.00029911,0
60.441,0.00016986,0
60.442,8.6275e-05,0
60.442,0.00018614,0
60.443,0.00032949,0
60.443,0.00025765,0
60.444,-5.9083e-05,0
60.444,-0.00034006,0
60.445,-0.00044262,0
60.445,-0.00042785,0
60.446,-0.00035987,0
60.446,-0.00029676,0
60.447,-0.00027141,0
60.447,-0.00024103,0
60.448,-0.00019252,0
60.448,-0.00016416,0
60.449,-0.0001425,0
60.449,-0.0001133,0
60.45,-8.0232e-05,0
60.45,-7.57e-05,0
60.451,-0.00014133,0
60.451,-0.00017053,0
60.452,-8.7449e-05,0
60.452,1.1917e-05,0
60.453,5.0019e-05,0
60.454,5.9586e-05,0
60.454,8.275e-05,0
60.455,0.00011397,0
60.455,0.0001378,0
60.456,0.00014955,0
60.456,0.00016365,0
60.457,0.00018514,0
60.457,0.00018732,0
60.458,0.00016466,0
60.458,0.0001373,0
60.459,0.0001321,0
60.459,0.00014871,0
60.46,0.00016466,0
60.46,0.00017742,0
60.461,0.00017037,0
60.461,0.00015157,0
60.462,0.00012941,0
60.462,7.7379e-05,0
60.463,-2.2156e-05,0
60.463,-0.00012941,0
60.464,-0.00015627,0
60.464,-9.2149e-05,0
60.465,-3.743e-05,0
60.465,-8.3925e-05,0
60.466,-0.00018312,0
60.467,-0.00019303,0
60.467,-7.6371e-05,0
60.468,8.9296e-05,0
60.468,0.000213,0
60.469,0.00026235,0
60.469,0.00027611,0
60.47,0.00026403,0
60.47,0.00017305,0
60.471,6.714e-06,0
60.471,-0.00017876,0
60.472,-0.00026336,0
60.472,-0.00018514,0
60.473,-4.4144e-05,0
60.473,2.9374e-05,0
60.474,2.2492e-05,0
60.474,-1.5274e-05,0
60.475,-7.7714e-05,0
60.475,-8.6275e-05,0
60.476,3.7934e-05,0
60.476,0.00023717,0
60.477,0.00039025,0
60.477,0.00043893,0
60.478,0.00040267,0
60.478,0.0002788,0
60.479,0.00015593,0
60.479,9.4835e-05,0
60.48,-8.2246e-06,0
60.481,-0.00017037,0
60.481,-0.00026873,0
60.482,-0.00026554,0
60.482,-0.00020125,0
60.483,-0.00019991,0
60.483,-0.00029122,0
60.484,-0.00029659,0
60.484,-0.00019051,0
60.485,-0.00012236,0
60.485,-7.0832e-05,0
60.486,4.0452e-05,0
60.486,0.00015207,0
60.487,0.00018547,0
60.487,0.00015492,0
60.488,0.00012068,0
60.488,5.153e-05,0
60.489,-6.9993e-05,0
60.489,-0.00015593,0
60.49,-0.00022123,0
60.49,-0.000307,0
60.491,-0.00034678,0
60.491,-0.00027645,0
60.492,-0.00013713,0
60.492,-2.9038e-05,0
60.493,8.896e-06,0
60.493,9.0639e-06,0
60.494,3.8605e-06,0
60.495,7.5532e-06,0
60.495,3.0549e-05,0
60.496,7.3686e-05,0
60.496,0.00013059,0
60.497,0.00019185,0
60.497,0.00023314,0
60.498,0.00025194,0
60.498,0.00028299,0
60.499,0.00030867,0
60.499,0.00025228,0
60.5,0.00013327,0
60.5,3.1724e-05,0
60.501,-2.887e-05,0
60.501,-8.0064e-05,0
60.502,-7.8386e-05,0
60.502,3.9445e-05,0
60.503,0.00018917,0
60.503,0.00026806,0
60.504,0.00024372,0
60.504,0.00012253,0
60.505,-3.2898e-05,0
60.505,-0.00011296,0
60.506,-0.00012454,0
60.506,-0.00011565,0
60.507,-8.9464e-05,0
60.508,-3.9109e-05,0
60.508,1.1246e-05,0
60.509,3.9445e-05,0
60.509,5.1865e-05,0
60.51,6.865e-05,0
60.51,9.0135e-05,0
60.511,0.00010558,0
60.511,0.00011699,0
60.512,0.00013545,0
60.512,0.00018178,0
60.513,0.00025496,0
60.513,0.00031002,0
60.514,0.00031925,0
60.514,0.0002845,0
60.515,0.00024019,0
60.515,0.00020797,0
60.516,0.00016483,0
60.516,3.3906e-05,0
60.517,-0.0001989,0
60.517,-0.00039831,0
60.518,-0.00041157,0
60.518,-0.00028367,0
60.519,-0.00014015,0
60.519,-2.0981e-05,0
60.52,7.1e-05,0
60.52,0.0001368,0
60.521,0.00017305,0
60.522,0.00014099,0
60.522,1.0071e-05,0
60.523,-0.00019051,0
60.523,-0.00034224,0
60.524,-0.0003263,0
60.524,-0.00018917,0
60.525,-7.6371e-05,0
60.525,-4.1962e-05,0
60.526,-3.4073e-05,0
60.526,-1.561e-05,0
60.527,-5.539e-06,0
60.527,-1.5442e-05,0
60.528,-1.4435e-05,0
60.528,1.2421e-05,0
60.529,4.4648e-05,0
60.529,5.5222e-05,0
60.53,5.0187e-05,0
60.53,8.6946e-05,0
60.531,0.00019689,0
60.531,0.00031472,0
60.532,0.00038907,0
60.532,0.00042348,0
60.533,0.00043825,0
60.533,0.0004349,0
60.534,0.00035148,0
60.535,0.00012438,0
60.535,-0.00010927,0
60.536,-0.00011968,0
60.536,1.5442e-05,0
60.537,6.5965e-05,0
60.537,4.3641e-06,0
60.538,-0.00010121,0
60.538,-0.00014301,0
60.539,-0.00012186,0
60.539,-0.00017943,0
60.54,-0.00031455,0
60.54,-0.0003926,0
60.541,-0.00035702,0
60.541,-0.00021585,0
60.542,-8.3925e-06,0
60.542,0.00014788,0
60.543,0.00016214,0
60.543,5.623e-05,0
60.544,-0.00010809,0
60.544,-0.00026067,0
60.545,-0.00031875,0
60.545,-0.00030196,0
60.546,-0.00024791,0
60.546,-0.00018044,0
60.547,-0.00014804,0
60.547,-0.0001279,0
60.548,-8.275e-05,0
60.549,-5.1194e-05,0
60.549,-5.9586e-05,0
60.55,-6.1601e-05,0
60.55,-3.592e-05,0
60.551,-8.5603e-06,0
60.551,2.4002e-05,0
60.552,8.51e-05,0
60.552,0.00012807,0
60.553,9.7856e-05,0
60.553,3.5416e-05,0
60.554,-1.0071e-06,0
60.554,3.3066e-05,0
60.555,0.00010625,0
60.555,0.00015727,0
60.556,0.00017339,0
60.556,0.00017675,0
60.557,0.0001895,0
60.557,0.00020696,0
60.558,0.00023281,0
60.558,0.00027913,0
60.559,0.00031673,0
60.559,0.00036709,0
60.56,0.00052755,0
60.56,0.00073971,0
60.561,0.00084982,0
60.562,0.00080215,0
60.562,0.00057455,0
60.563,0.00022475,0
60.563,-2.7192e-05,0
60.564,-0.0001415,0
60.564,-0.00031925,0
60.565,-0.00060996,0
60.565,-0.00084814,0
60.566,-0.00081759,0
60.566,-0.00054215,0
60.567,-0.00027779,0
60.567,-0.00020192,0
60.568,-0.00023734,0
60.568,-0.0002412,0
60.569,-0.00017708,0
60.569,-9.1814e-05,0
60.57,-3.827e-05,0
60.57,-2.501e-05,0
60.571,-2.0813e-05,0
60.571,-7.2175e-06,0
60.572,2.182e-06,0
60.572,-2.9374e-05,0
60.573,-0.00011296,0
60.573,-0.00017221,0
60.574,-0.00012186,0
60.575,8.896e-06,0
60.575,0.00016399,0
60.576,0.0002835,0
60.576,0.00032798,0
60.577,0.00032781,0
60.577,0.00031438,0
60.578,0.00025597,0
60.578,9.2821e-05,0
60.579,-0.00012186,0
60.579,-0.00020209,0
60.58,-7.2679e-05,0
60.58,0.00011649,0
60.581,0.00020645,0
60.581,0.00017775,0
60.582,9.4835e-05,0
60.582,3.3066e-05,0
60.583,4.4816e-05,0
60.583,9.8192e-05,0
60.584,8.2918e-05,0
60.584,-1.091e-05,0
60.585,-8.0064e-05,0
60.585,-9.6513e-05,0
60.586,-3.9948e-05,0
60.586,4.3473e-05,0
60.587,7.8386e-05,0
60.587,6.3447e-05,0
60.588,6.3951e-05,0
60.589,0.00011464,0
60.589,0.00018682,0
60.59,0.00023499,0
60.59,0.00026302,0
60.591,0.00029122,0
60.591,0.00027578,0
60.592,0.0002177,0
60.592,0.0001843,0
60.593,0.00018195,0
60.593,0.00016835,0
60.594,0.0001086,0
60.594,2.1988e-05,0
60.595,-0.00010507,0
60.595,-0.00029122,0
60.596,-0.00037414,0
60.596,-0.00032529,0
60.597,-0.00029172,0
60.597,-0.00030011,0
60.598,-0.00031505,0
60.598,-0.00028635,0
60.599,-0.00019487,0
60.599,-0.00011061,0
60.6,-0.00010021,0
60.6,-0.00014166,0
60.601,-0.00014855,0
60.602,-0.00011447,0
60.602,-1.7792e-05,0
60.603,0.00010709,0
60.603,0.00012337,0
60.604,4.683e-05,0
60.604,3.8773e-05,0
60.605,0.0001133,0
60.605,0.0001697,0
60.606,0.00018212,0
60.606,0.00018413,0
60.607,0.00020729,0
60.607,0.00022727,0
60.608,0.00018296,0
60.608,2.5849e-05,0
60.609,-0.00024791,0
60.609,-0.00041375,0
60.61,-0.00033184,0
60.61,-0.00018547,0
60.611,-0.00012538,0
60.611,-9.4163e-05,0
60.612,-1.6953e-05,0
60.612,8.4764e-05,0
60.613,0.00015409,0
60.613,0.00018782,0
60.614,0.00020343,0
60.614,0.00021804,0
60.615,0.00024154,0
60.616,0.00024691,0
60.616,0.00017372,0
60.617,-2.0645e-05,0
60.617,-0.00024237,0
60.618,-0.00031321,0
60.618,-0.00020092,0
60.619,-4.8005e-05,0
60.619,8.9632e-05,0
60.62,0.00025882,0
60.62,0.00043624,0
60.621,0.00055373,0
60.621,0.00054971,0
60.622,0.00043859,0
60.622,0.00026537,0
60.623,7.7714e-05,0
60.623,-2.5849e-05,0
60.624,-3.6591e-05,0
60.624,-6.9657e-05,0
60.625,-0.00017876,0
60.625,-0.00023348,0
60.626,-0.00014687,0
60.626,-3.3906e-05,0
60.627,-6.4622e-05,0
60.627,-0.00024926,0
60.628,-0.00038622,0
60.629,-0.00032563,0
60.629,-0.00015258,0
60.63,-2.4338e-05,0
60.63,2.1149e-05,0
60.631,4.3473e-05,0
60.631,8.1407e-05,0
60.632,0.00012689,0
60.632,0.0001744,0
60.633,0.00022307,0
60.633,0.00023969,0
60.634,0.00019756,0
60.634,0.00011212,0
60.635,4.8005e-05,0
60.635,1.4603e-05,0
60.636,-2.2492e-05,0
60.636,-3.122e-05,0
60.637,-2.0142e-06,0
60.637,1.3596e-05,0
60.638,-9.0639e-06,0
60.638,-2.501e-05,0
60.639,1.0239e-05,0
60.639,6.0929e-05,0
60.64,8.9464e-05,0
60.64,0.00011128,0
60.641,0.00013394,0
60.641,0.00013075,0
60.642,0.00011313,0
60.643,0.00012404,0
60.643,0.00015341,0
60.644,0.00017842,0
60.644,0.00019303,0
60.645,0.00017826,0
60.645,0.00012454,0
60.646,6.2104e-05,0
60.646,7.0497e-06,0
60.647,-3.0213e-05,0
60.647,-4.7501e-05,0
60.648,-6.8147e-05,0
60.648,-9.6513e-05,0
60.649,-0.00011263,0
60.649,-4.8676e-05,0
60.65,4.9516e-05,0
60.65,8.0735e-05,0
60.651,8.8457e-05,0
60.651,5.7572e-05,0
60.652,-3.7766e-05,0
60.652,-6.0594e-05,0
60.653,-4.7837e-05,0
60.653,-0.00013243,0
60.654,-0.00023919,0
60.654,-0.00022626,0
60.655,-0.00011833,0
60.656,-4.4144e-05,0
60.656,-3.1052e-05,0
60.657,-1.8967e-05,0
60.657,3.0716e-05,0
60.658,0.00010306,0
60.658,0.00016634,0
60.659,0.00019454,0
60.659,0.00022374,0
60.66,0.00028853,0
60.66,0.0003127,0
60.661,0.00023801,0
60.661,9.4667e-05,0
60.662,-7.57e-05,0
60.662,-0.0002845,0
60.663,-0.00048727,0
60.663,-0.0006103,0
60.664,-0.00061567,0
60.664,-0.00046981,0
60.665,-0.00024657,0
60.665,-8.8624e-05,0
60.666,-3.5584e-05,0
60.666,-3.0716e-05,0
60.667,-1.0071e-05,0
60.667,3.9948e-05,0
60.668,7.5029e-05,0
60.668,8.3085e-05,0
60.669,0.00011128,0
60.67,0.00016063,0
60.67,0.00016852,0
60.671,0.00012169,0
60.671,9.7856e-05,0
60.672,0.00015258,0
60.672,0.00023482,0
60.673,0.00026772,0
60.673,0.00021938,0
60.674,0.00016365,0
60.674,0.00013898,0
60.675,0.00012068,0
60.675,9.2149e-05,0
60.676,2.9038e-05,0
60.676,-1.326e-05,0
60.677,-8.2246e-06,0
60.677,-2.2324e-05,0
60.678,-0.00010944,0
60.678,-0.00012522,0
60.679,3.1724e-05,0
60.679,0.00020864,0
60.68,0.00026638,0
60.68,0.00022979,0
60.681,0.00018195,0
60.681,0.00011162,0
60.682,-6.6468e-05,0
60.682,-0.00035567,0
60.683,-0.00050724,0
60.684,-0.00036893,0
60.684,-0.00012992,0
60.685,-2.0645e-05,0
60.685,-8.4932e-05,0
60.686,-0.00019353,0
60.686,-0.00021837,0
60.687,-0.00015811,0
60.687,-8.7282e-05,0
60.688,-5.539e-05,0
60.688,-4.8508e-05,0
60.689,-3.1388e-05,0
60.689,1.1749e-06,0
60.69,3.0716e-05,0
60.69,5.3544e-05,0
60.691,6.7643e-05,0
60.691,7.7043e-05,0
60.692,8.6442e-05,0
60.692,9.4163e-05,0
60.693,0.00010642,0
60.693,0.00012857,0
60.694,0.00015828,0
60.694,0.00018111,0
60.695,0.00018447,0
60.695,0.00018195,0
60.696,0.00022274,0
60.697,0.00030565,0
60.697,0.00035265,0
60.698,0.00029256,0
60.698,0.0001603,0
60.699,6.1601e-05,0
60.699,-1.7288e-05,0
60.7,-0.00015778,0
60.7,-0.0002652,0
60.701,-0.0002088,0
60.701,-7.5196e-05,0
60.702,-3.0549e-05,0
60.702,-5.5222e-05,0
60.703,-5.3376e-05,0
60.703,-1.6953e-05,0
60.704,2.3667e-05,0
60.704,6.7643e-05,0
60.705,0.00012337,0
60.705,0.00017809,0
60.706,0.00017775,0
60.706,6.9657e-05,0
60.707,-6.9154e-05,0
60.707,-7.57e-05,0
60.708,4.5319e-06,0
60.708,5.7069e-06,0
60.709,-3.978e-05,0
60.709,-2.8534e-06,0
60.71,9.4163e-05,0
60.711,0.0001754,0
60.711,0.00022005,0
60.712,0.00019705,0
60.712,0.00014519,0
60.713,0.00015291,0
60.713,0.00022777,0
60.714,0.0002798,0
60.714,0.0002036,0
60.715,4.5487e-05,0
60.715,-2.5177e-05,0
60.716,5.5726e-05,0
60.716,0.00017037,0
60.717,0.00019219,0
60.717,8.8457e-05,0
60.718,-4.5151e-05,0
60.718,-0.00012538,0
60.719,-0.00018027,0
60.719,-0.00022727,0
60.72,-0.00030901,0
60.72,-0.00042634,0
60.721,-0.0005351,0
60.721,-0.00053947,0
60.722,-0.00038991,0
60.722,-0.0001994,0
60.723,-9.5171e-05,0
60.724,-8.9464e-05,0
60.724,-0.00010558,0
60.725,-8.4764e-05,0
60.725,-2.9541e-05,0
60.726,3.0045e-05,0
60.726,7.7043e-05,0
60.727,0.00011263,0
60.727,0.00012992,0
60.728,0.00011263,0
60.728,7.1e-05,0
60.729,5.0858e-05,0
60.729,7.4861e-05,0
60.73,0.00011078,0
60.73,0.0001368,0
60.731,0.00015375,0
60.731,0.00016869,0
60.732,0.00018245,0
60.732,0.00018044,0
60.733,0.00017356,0
60.733,0.0001697,0
60.734,0.0001509,0
60.734,0.00013193,0
60.735,0.00014385,0
60.735,0.00014217,0
60.736,6.865e-05,0
60.736,2.2492e-05,0
60.737,0.00010658,0
60.738,0.00023751,0
60.738,0.00029592,0
60.739,0.00028048,0
60.739,0.00023516,0
60.74,0.00015526,0
60.74,8.3085e-05,0
60.741,4.7166e-05,0
60.741,-1.6785e-06,0
60.742,-3.6591e-05,0
60.742,-6.2776e-05,0
60.743,-0.00013462,0
60.743,-0.00021082,0
60.744,-0.00021904,0
60.744,-0.00019437,0
60.745,-0.00019084,0
60.745,-0.00019118,0
60.746,-0.00016214,0
60.746,-0.00010625,0
60.747,-5.4551e-05,0
60.747,-2.0981e-05,0
60.748,1.3092e-05,0
60.748,6.9322e-05,0
60.749,0.00014116,0
60.749,0.0002172,0
60.75,0.00028988,0
60.751,0.00036172,0
60.751,0.00042013,0
60.752,0.00041039,0
60.752,0.00036843,0
60.753,0.00038051,0
60.753,0.00037581,0
60.754,0.00022206,0
60.754,-4.3473e-05,0
60.755,-0.00020427,0
60.755,-0.000165,0
60.756,-8.8792e-05,0
60.756,-0.00011061,0
60.757,-0.00015207,0
60.757,-0.0001608,0
60.758,-0.00012639,0
60.758,-6.4958e-05,0
60.759,-3.5416e-05,0
60.759,-8.4764e-05,0
60.76,-0.00021317,0
60.76,-0.00030582,0
60.761,-0.0002939,0
60.761,-0.00024691,0
60.762,-0.0002793,0
60.762,-0.00034392,0
60.763,-0.00031472,0
60.764,-0.00024086,0
60.764,-0.00024523,0
60.765,-0.00025765,0
60.765,-0.0001843,0
60.766,-8.0232e-05,0
60.766,-1.9303e-05,0
60.767,-1.0071e-06,0
60.767,1.091e-05,0
60.768,3.2731e-05,0
60.768,5.4047e-05,0
60.769,5.9586e-05,0
60.769,4.4144e-05,0
60.77,9.5674e-06,0
60.77,-8.5603e-06,0
60.771,1.8631e-05,0
60.771,6.9993e-05,0
60.772,0.00011498,0
60.772,0.00014032,0
60.773,0.00015425,0
60.773,0.00017171,0
60.774,0.00019236,0
60.774,0.00020746,0
60.775,0.00021518,0
60.775,0.00020394,0
60.776,0.00019001,0
60.776,0.00019571,0
60.777,0.00021132,0
60.778,0.00019118,0
60.778,5.9586e-05,0
60.779,-9.8192e-05,0
60.779,-8.9799e-05,0
60.78,3.2731e-05,0
60.78,0.00010323,0
60.781,0.00011397,0
60.781,0.00012337,0
60.782,0.0001425,0
60.782,0.00015828,0
60.783,0.00016332,0
60.783,0.00013445,0
60.784,6.4286e-05,0
60.784,-8.3925e-07,0
60.785,-8.0568e-06,0
60.785,1.7624e-05,0
60.786,1.7624e-05,0
60.786,-2.8367e-05,0
60.787,-6.949e-05,0
60.787,-4.9683e-05,0
60.788,1.5946e-05,0
60.788,8.9128e-05,0
60.789,0.00019655,0
60.789,0.00036507,0
60.79,0.00053695,0
60.791,0.00062524,0
60.791,0.00056783,0
60.792,0.00040267,0
60.792,0.00020394,0
60.793,-2.6017e-05,0
60.793,-0.00031035,0
60.794,-0.00067324,0
60.794,-0.00090236,0
60.795,-0.00081675,0
60.795,-0.00051244,0
60.796,-0.0002454,0
60.796,-0.00013848,0
60.797,-0.00012303,0
60.797,-0.00013243,0
60.798,-0.00014603,0
60.798,-0.00012354,0
60.799,-6.3951e-05,0
60.799,-1.2924e-05,0
60.8,5.8747e-06,0
60.8,7.8889e-06,0
60.801,1.4099e-05,0
60.801,2.9541e-05,0
60.802,4.8508e-05,0
60.802,6.7811e-05,0
60.803,9.2317e-05,0
60.803,0.00013143,0
60.804,0.00019588,0
60.805,0.00027208,0
60.805,0.00033234,0
60.806,0.00038119,0
60.806,0.00043087,0
60.807,0.000426,0
60.807,0.00027611,0
60.808,-2.1653e-05,0
60.808,-0.00029525,0
60.809,-0.00037212,0
60.809,-0.00026101,0
60.81,-0.00010457,0
60.81,-1.561e-05,0
60.811,1.091e-05,0
60.811,3.0884e-05,0
60.812,5.5894e-05,0
60.812,5.7237e-05,0
60.813,1.4267e-05,0
60.813,-6.5629e-05,0
60.814,-0.00012454,0
60.814,-9.8527e-05,0
60.815,-1.7121e-05,0
60.815,4.9348e-05,0
60.816,7.4022e-05,0
60.816,7.2175e-05,0
60.817,6.6133e-05,0
60.818,5.8076e-05,0
60.818,4.2634e-05,0
60.819,3.743e-05,0
60.819,5.8244e-05,0
60.82,9.9031e-05,0
60.82,0.00013881,0
60.821,0.00016466,0
60.821,0.00017171,0
60.822,0.00016466,0
60.822,0.00014318,0
60.823,0.00011128,0
60.823,4.8676e-05,0
60.824,-8.5771e-05,0
60.824,-0.0001801,0
60.825,-0.00015492,0
60.825,-0.00011196,0
60.826,-0.00010071,0
60.826,-6.949e-05,0
60.827,-7.7211e-06,0
60.827,4.3473e-05,0
60.828,6.1769e-05,0
60.828,6.4286e-05,0
60.829,6.9657e-05,0
60.829,8.04e-05,0
60.83,9.6178e-05,0
60.83,0.00011733,0
60.831,0.00012773,0
60.832,0.00012001,0
60.832,0.00010759,0
60.833,0.00010054,0
60.833,7.7714e-05,0
60.834,2.6688e-05,0
60.834,-3.7095e-05,0
60.835,-0.00011901,0
60.835,-0.00019756,0
60.836,-0.00020562,0
60.836,-0.0001425,0
60.837,-7.805e-05,0
60.837,-3.2395e-05,0
60.838,1.5106e-05,0
60.838,7.0329e-05,0
60.839,0.00012136,0
60.839,0.00014788,0
60.84,0.0001232,0
60.84,3.8773e-05,0
60.841,-8.1071e-05,0
60.841,-0.00014166,0
60.842,-6.0258e-05,0
60.842,8.2078e-05,0
60.843,0.00019319,0
60.843,0.00031052,0
60.844,0.00042348,0
60.844,0.0004631,0
60.845,0.00041291,0
60.846,0.00022139,0
60.846,-0.00023146,0
60.847,-0.00074911,0
60.847,-0.00080786,0
60.848,-0.0004255,0
60.848,-0.00011984,0
60.849,-6.7475e-05,0
60.849,-6.2608e-05,0
60.85,-1.1749e-06,0
60.85,2.7527e-05,0
60.851,-3.9948e-05,0
60.851,-0.00012404,0
60.852,-0.00011431,0
60.852,-5.539e-06,0
60.853,0.00010625,0
60.853,0.00014821,0
60.854,0.00011666,0
60.854,9.5674e-06,0
60.855,-9.6849e-05,0
60.855,-5.4551e-05,0
60.856,0.00011128,0
60.856,0.00025631,0
60.857,0.00030129,0
60.857,0.00027208,0
60.858,0.00023281,0
60.859,0.00023079,0
60.859,0.00021636,0
60.86,0.00011464,0
60.86,-2.5345e-05,0
60.861,-0.00010037,0
60.861,-0.00014569,0
60.862,-0.00024439,0
60.862,-0.00031002,0
60.863,-0.00026184,0
60.863,-0.00015106,0
60.864,-4.8676e-05,0
60.864,5.1194e-05,0
60.865,0.00014754,0
60.865,0.00018447,0
60.866,0.00014553,0
60.866,5.6565e-05,0
60.867,-8.3253e-05,0
60.867,-0.00023297,0
60.868,-0.00023952,0
60.868,-0.00011196,0
60.869,-2.031e-05,0
60.869,-1.4267e-05,0
60.87,-1.6281e-05,0
60.87,1.0239e-05,0
60.871,3.7934e-05,0
60.871,4.9348e-05,0
60.872,5.5894e-05,0
60.873,6.8818e-05,0
60.873,9.0974e-05,0
60.874,0.00012572,0
60.874,0.00017087,0
60.875,0.00021904,0
60.875,0.00025899,0
60.876,0.00028115,0
60.876,0.00027913,0
60.877,0.00025312,0
60.877,0.00021166,0
60.878,0.00016164,0
60.878,0.00012538,0
60.879,0.00015694,0
60.879,0.00025966,0
60.88,0.00034359,0
60.88,0.00035433,0
60.881,0.00031572,0
60.881,0.00020931,0
60.882,3.743e-05,0
60.882,-8.1071e-05,0
60.883,-0.00010138,0
60.883,-0.00016466,0
60.884,-0.00036104,0
60.884,-0.00055105,0
60.885,-0.000544,0
60.886,-0.00035567,0
60.886,-0.00020142,0
60.887,-0.00023835,0
60.887,-0.00033671,0
60.888,-0.00029458,0
60.888,-0.00015744,0
60.889,-4.4144e-05,0
60.889,4.1794e-05,0
60.89,0.00011598,0
60.89,0.00016936,0
60.891,0.00021317,0
60.891,0.0002746,0
60.892,0.00032193,0
60.892,0.00027578,0
60.893,0.00017859,0
60.893,0.0001368,0
60.894,0.00017037,0
60.894,0.00021703,0
60.895,0.00016835,0
60.895,-9.2317e-06,0
60.896,-0.00021736,0
60.896,-0.00026134,0
60.897,-0.00014015,0
60.897,-3.8102e-05,0
60.898,-5.8747e-05,0
60.898,-0.00017003,0
60.899,-0.00024623,0
60.9,-0.00016986,0
60.9,1.0071e-05,0
60.901,0.00018967,0
60.901,0.00029625,0
60.902,0.00031337,0
60.902,0.00029256,0
60.903,0.00019823,0
60.903,-3.9612e-05,0
60.904,-0.00029055,0
60.904,-0.00042399,0
60.905,-0.00040687,0
60.905,-0.00022072,0
60.906,2.7024e-05,0
60.906,0.00016399,0
60.907,0.00015543,0
60.907,8.7449e-05,0
60.908,3.7263e-05,0
60.908,3.5416e-05,0
60.909,6.949e-05,0
60.909,8.4764e-05,0
60.91,2.7359e-05,0
60.91,-8.7617e-05,0
60.911,-0.00018682,0
60.911,-0.00019823,0
60.912,-0.00013277,0
60.913,-7.0161e-05,0
60.913,-3.8437e-05,0
60.914,7.2175e-06,0
60.914,8.2078e-05,0
60.915,0.00014015,0
60.915,0.00017356,0
60.916,0.00020998,0
60.916,0.00026839,0
60.917,0.0003033,0
60.917,0.00024154,0
60.918,9.5171e-05,0
60.918,-2.8702e-05,0
60.919,-6.9825e-05,0
60.919,-3.6423e-05,0
60.92,3.9277e-05,0
60.92,0.00012639,0
60.921,0.00014083,0
60.921,3.743e-05,0
60.922,-0.0001039,0
60.922,-0.00016147,0
60.923,-0.00015694,0
60.923,-0.00019353,0
60.924,-0.00023079,0
60.924,-0.00019924,0
60.925,-0.00011934,0
60.925,-3.978e-05,0
60.926,2.4674e-05,0
60.927,8.3421e-05,0
60.927,0.00013462,0
60.928,0.00016365,0
60.928,0.00017104,0
60.929,0.00017876,0
60.929,0.00013747,0
60.93,6.865e-05,0
60.93,8.6442e-05,0
60.931,0.00019252,0
60.931,0.00028887,0
60.932,0.00026688,0
60.932,8.1407e-05,0
60.933,-0.00021971,0
60.933,-0.00043188,0
60.934,-0.00039059,0
60.934,-0.0001321,0
60.935,0.00015828,0
60.935,0.00031572,0
60.936,0.0003362,0
60.936,0.00028971,0
60.937,0.00022911,0
60.937,0.00019689,0
60.938,0.00017154,0
60.938,0.00010692,0
60.939,2.8031e-05,0
60.94,-3.2395e-05,0
60.94,-9.6681e-05,0
60.941,-8.6107e-05,0
60.941,4.7837e-05,0
60.942,0.00018749,0
60.942,0.0001566,0
60.943,-2.652e-05,0
60.943,-0.00023465,0
60.944,-0.00038689,0
60.944,-0.00039495,0
60.945,-0.00028383,0
60.945,-0.00016063,0
60.946,-7.2175e-05,0
60.946,-1.6953e-05,0
60.947,3.8102e-05,0
60.947,0.00010843,0
60.948,0.00015895,0
60.948,0.00017557,0
60.949,0.00017675,0
60.949,0.00017473,0
60.95,0.00015023,0
60.95,7.8218e-05,0
60.951,-3.8941e-05,0
60.951,-0.00011464,0
60.952,-6.6804e-05,0
60.953,7.4525e-05,0
60.953,0.00020629,0
60.954,0.0002741,0
60.954,0.00032714,0
60.955,0.0004025,0
60.955,0.00042348,0
60.956,0.00027108,0
60.956,8.3085e-05,0
60.957,8.191e-05,0
60.957,0.00014636,0
60.958,0.00015157,0
60.958,0.00017272,0
60.959,0.00022475,0
60.959,0.00024607,0
60.96,8.1071e-05,0
60.96,-0.00023381,0
60.961,-0.00040888,0
60.961,-0.00038924,0
60.962,-0.00041039,0
60.962,-0.00054148,0
60.963,-0.00055843,0
60.963,-0.00036205,0
60.964,-0.00012203,0
60.964,7.0497e-06,0
60.965,4.7166e-05,0
60.965,6.0258e-05,0
60.966,2.8031e-05,0
60.967,-6.9657e-05,0
60.967,-0.00019152,0
60.968,-0.00025194,0
60.968,-0.00015207,0
60.969,8.8457e-05,0
60.969,0.00035299,0
60.97,0.00055558,0
60.97,0.00068063,0
60.971,0.00072393,0
60.971,0.00066082,0
60.972,0.00042684,0
60.972,1.3596e-05,0
60.973,-0.00030028,0
60.973,-0.00031052,0
60.974,-0.00027611,0
60.974,-0.00037598,0
60.975,-0.00046427,0
60.975,-0.00047602,0
60.976,-0.00040737,0
60.976,-0.00023885,0
60.977,-6.5293e-05,0
60.977,-2.6017e-05,0
60.978,-0.0001321,0
60.978,-0.00021065,0
60.979,-0.00012924,0
60.98,-2.1317e-05,0
60.98,3.0213e-06,0
60.981,5.8747e-06,0
60.981,3.5248e-06,0
60.982,2.6184e-05,0
60.982,9.4835e-05,0
60.983,0.00015157,0
60.983,0.00014687,0
60.984,5.8915e-05,0
60.984,-4.5823e-05,0
60.985,-5.388e-05,0
60.985,2.1317e-05,0
60.986,7.9561e-05,0
60.986,9.1142e-05,0
60.987,7.9561e-05,0
60.987,9.7017e-05,0
60.988,0.00018917,0
60.988,0.00031673,0
60.989,0.00038622,0
60.989,0.00035282,0
60.99,0.00029491,0
60.99,0.00026806,0
60.991,0.00019101,0
60.991,-5.0187e-05,0
60.992,-0.00034476,0
60.992,-0.00042516,0
60.993,-0.00027074,0
60.994,-6.479e-05,0
60.994,5.9586e-05,0
60.995,0.00010726,0
60.995,0.00011044,0
60.996,5.8915e-05,0
60.996,-5.8747e-06,0
60.997,-4.918e-05,0
60.997,-4.2802e-05,0
60.998,3.8773e-05,0
60.998,0.00012605,0
60.999,0.00013176,0
60.999,4.8844e-05,0
61,-3.1556e-05,0
61,-3.0716e-05,0
61.001,2.5177e-06,0
61.001,2.0142e-05,0
61.002,1.0239e-05,0
61.002,-1.8967e-05,0
61.003,-2.6017e-05,0
61.003,6.2104e-06,0
61.004,4.6494e-05,0
61.004,5.6901e-05,0
61.005,4.3473e-05,0
61.005,4.918e-05,0
61.006,7.805e-05,0
61.007,0.00011044,0
61.007,0.00016231,0
61.008,0.00023079,0
61.008,0.0002939,0
61.009,0.00035349,0
61.009,0.00040317,0
61.01,0.00042214,0
61.01,0.00038924,0
61.011,0.00031942,0
61.011,0.00024187,0
61.012,5.3544e-05,0
61.012,-0.0002699,0
61.013,-0.00053275,0
61.013,-0.00054501,0
61.014,-0.00032831,0
61.014,-0.00010256,0
61.015,-5.0355e-06,0
61.015,2.4002e-05,0
61.016,5.4887e-05,0
61.016,8.51e-05,0
61.017,0.00010994,0
61.017,0.00011766,0
61.018,9.0471e-05,0
61.018,7.57e-05,0
61.019,7.3686e-05,0
61.019,6.9657e-05,0
61.02,0.00011196,0
61.021,0.00024086,0
61.021,0.00036373,0
61.022,0.00033654,0
61.022,0.00012068,0
61.023,-0.00014855,0
61.023,-0.00025496,0
61.024,-0.00019135,0
61.024,-3.9109e-05,0
61.025,0.00015727,0
61.025,0.00025362,0
61.026,0.00015409,0
61.026,-6.0258e-05,0
61.027,-0.000379,0
61.027,-0.00069557,0
61.028,-0.00074827,0
61.028,-0.00055021,0
61.029,-0.00037397,0
61.029,-0.00029978,0
61.03,-0.00025295,0
61.03,-0.00019236,0
61.031,-0.00011615,0
61.031,-5.0858e-05,0
61.032,-8.2246e-06,0
61.032,4.0787e-05,0
61.033,0.00010977,0
61.033,0.00019571,0
61.034,0.0002845,0
61.035,0.00034862,0
61.035,0.00036306,0
61.036,0.00032613,0
61.036,0.00026302,0
61.037,0.00019521,0
61.037,0.00016902,0
61.038,0.00016667,0
61.038,4.2802e-05,0
61.039,-0.00021048,0
61.039,-0.00037766,0
61.04,-0.00032294,0
61.04,-0.00013864,0
61.041,-2.0981e-05,0
61.041,-1.9974e-05,0
61.042,-1.091e-05,0
61.042,9.6849e-05,0
61.043,0.00025093,0
61.043,0.00034728,0
61.044,0.00033721,0
61.044,0.00027041,0
61.045,0.00019722,0
61.045,0.00012068,0
61.046,1.8463e-06,0
61.046,-0.00014771,0
61.047,-0.00031824,0
61.048,-0.00047938,0
61.048,-0.00050204,0
61.049,-0.00032999,0
61.049,-0.00010222,0
61.05,7.8889e-06,0
61.05,7.8889e-06,0
61.051,-6.714e-07,0
61.051,2.7024e-05,0
61.052,6.3279e-05,0
61.052,3.8102e-05,0
61.053,-6.9322e-05,0
61.053,-0.00012941,0
61.054,-5.9754e-05,0
61.054,5.2537e-05,0
61.055,0.00012203,0
61.055,0.00013646,0
61.056,0.0001039,0
61.056,1.3764e-05,0
61.057,-7.0329e-05,0
61.057,-5.7908e-05,0
61.058,1.326e-05,0
61.058,6.5965e-05,0
61.059,8.4092e-05,0
61.059,8.7785e-05,0
61.06,9.3828e-05,0
61.06,0.00010591,0
61.061,0.00011766,0
61.062,0.00012488,0
61.062,0.00012605,0
61.063,0.00012404,0
61.063,0.00012471,0
61.064,0.00012773,0
61.064,0.00012471,0
61.065,0.00011582,0
61.065,0.00011162,0
61.066,0.000118,0
61.066,0.00013143,0
61.067,0.0001368,0
61.067,0.00012287,0
61.068,0.00010927,0
61.068,0.00011531,0
61.069,0.00012807,0
61.069,0.00012303,0
61.07,0.00012068,0
61.07,0.00015476,0
61.071,0.00020964,0
61.071,0.00026772,0
61.072,0.00030968,0
61.072,0.00029928,0
61.073,0.00015879,0
61.073,-7.3014e-05,0
61.074,-0.00020075,0
61.075,-0.00018883,0
61.075,-0.00014519,0
61.076,-0.00015962,0
61.076,-0.00018413,0
61.077,-0.00014435,0
61.077,-8.8121e-05,0
61.078,-8.0232e-05,0
61.078,-0.00010088,0
61.079,-0.00010541,0
61.079,-8.1575e-05,0
61.08,-4.3809e-05,0
61.08,-8.896e-06,0
61.081,2.6688e-05,0
61.081,5.8244e-05,0
61.082,6.8315e-05,0
61.082,6.8315e-05,0
61.083,8.2414e-05,0
61.083,0.00010088,0
61.084,0.00010272,0
61.084,7.6371e-05,0
61.085,3.6255e-05,0
61.085,4.8173e-05,0
61.086,0.00012303,0
61.086,0.00022005,0
61.087,0.0002751,0
61.087,0.00028702,0
61.088,0.00027175,0
61.089,0.00021468,0
61.089,0.00020293,0
61.09,0.00021871,0
61.09,9.8192e-05,0
61.091,-0.00020998,0
61.091,-0.00047921,0
61.092,-0.00049062,0
61.092,-0.00036356,0
61.093,-0.00033519,0
61.093,-0.00036675,0
61.094,-0.00026957,0
61.094,-7.1e-05,0
61.095,6.5293e-05,0
61.095,6.8315e-05,0
61.096,-9.2317e-06,0
61.096,-6.1601e-05,0
61.097,-5.1194e-05,0
61.097,-3.508e-05,0
61.098,-3.4241e-05,0
61.098,-4.0452e-05,0
61.099,-7.5029e-05,0
61.099,-0.00013176,0
61.1,-0.00013059,0
61.1,-5.3544e-05,0
61.101,3.9948e-05,0
61.102,0.00010726,0
61.102,0.00013545,0
61.103,0.00014636,0
61.103,0.00019387,0
61.104,0.00028115,0
61.104,0.00033553,0
61.105,0.00027208,0
61.105,0.00015073,0
61.106,0.00013411,0
61.106,0.00020629,0
61.107,0.00019001,0
61.107,-1.8631e-05,0
61.108,-0.00023079,0
61.108,-0.00020797,0
61.109,-6.1097e-05,0
61.109,-3.6423e-05,0
61.11,-9.1478e-05,0
61.11,-5.0355e-05,0
61.111,7.5532e-05,0
61.111,0.0001791,0
61.112,0.00022139,0
61.112,0.00022542,0
61.113,0.00021099,0
61.113,0.00020864,0
61.114,0.00019051,0
61.114,5.7908e-05,0
61.115,-0.00022441,0
61.116,-0.00046981,0
61.116,-0.00043322,0
61.117,-0.00021267,0
61.117,-7.57e-05,0
61.118,-8.426e-05,0
61.118,-0.00011431,0
61.119,-9.5003e-05,0
61.119,-5.6565e-05,0
61.12,-3.0549e-05,0
61.12,-1.326e-05,0
61.121,7.8889e-06,0
61.121,3.7766e-05,0
61.122,6.1936e-05,0
61.122,7.4861e-05,0
61.123,8.1071e-05,0
61.123,8.9632e-05,0
61.124,9.7353e-05,0
61.124,0.00010726,0
61.125,0.00011733,0
61.125,0.00012454,0
61.126,0.00014066,0
61.126,0.00015627,0
61.127,0.00015694,0
61.127,0.00014049,0
61.128,0.00011196,0
61.129,6.9993e-05,0
61.129,3.6927e-06,0
61.13,-7.7379e-05,0
61.13,-8.5771e-05,0
61.131,2.6017e-05,0
61.131,0.00016214,0
61.132,0.00021468,0
61.132,0.00019789,0
61.133,0.00018447,0
61.133,0.00018245,0
61.134,0.00013109,0
61.134,1.6953e-05,0
61.135,-6.865e-05,0
61.135,-0.00010272,0
61.136,-0.00010809,0
61.136,-8.2414e-05,0
61.137,-6.0594e-05,0
61.137,-0.00014452,0
61.138,-0.00032412,0
61.138,-0.0003738,0
61.139,-0.00021938,0
61.139,-4.1794e-05,0
61.14,1.6617e-05,0
61.14,-1.6449e-05,0
61.141,-5.5726e-05,0
61.142,-6.2608e-05,0
61.142,-7.2679e-05,0
61.143,-0.00011884,0
61.143,-0.00014351,0
61.144,-0.00010323,0
61.144,-3.0381e-05,0
61.145,3.0716e-05,0
61.145,6.2272e-05,0
61.146,7.0329e-05,0
61.146,6.9657e-05,0
61.147,7.8386e-05,0
61.147,0.00010121,0
61.148,0.00013176,0
61.148,0.00018312,0
61.149,0.00023616,0
61.149,0.00026839,0
61.15,0.00031136,0
61.15,0.00035869,0
61.151,0.00037649,0
61.151,0.00034342,0
61.152,0.00025144,0
61.152,8.7617e-05,0
61.153,-0.00011699,0
61.153,-0.00017473,0
61.154,-0.00011649,0
61.154,-0.00016567,0
61.155,-0.00033906,0
61.156,-0.00045051,0
61.156,-0.00036037,0
61.157,-0.00015862,0
61.157,-1.6281e-05,0
61.158,1.796e-05,0
61.158,2.5177e-06,0
61.159,-6.2104e-06,0
61.159,8.7282e-06,0
61.16,5.2201e-05,0
61.16,0.00010222,0
61.161,0.00013227,0
61.161,0.00014318,0
61.162,0.00014754,0
61.162,0.00015828,0
61.163,0.00017137,0
61.163,0.00016399,0
61.164,0.00014049,0
61.164,0.00016466,0
61.165,0.00029323,0
61.165,0.00043859,0
61.166,0.00043691,0
61.166,0.00031086,0
61.167,0.00020578,0
61.167,9.3492e-05,0
61.168,-6.5629e-05,0
61.169,-0.00014989,0
61.169,-0.00013378,0
61.17,-0.0001566,0
61.17,-0.00020998,0
61.171,-0.00021636,0
61.171,-0.00025194,0
61.172,-0.00034661,0
61.172,-0.00039193,0
61.173,-0.00031136,0
61.173,-0.00016667,0
61.174,-4.7669e-05,0
61.174,1.3764e-05,0
61.175,1.3092e-05,0
61.175,-1.9135e-05,0
61.176,-4.5655e-05,0
61.176,-5.1362e-05,0
61.177,-5.8915e-05,0
61.177,-6.949e-05,0
61.178,-5.7908e-05,0
61.178,-4.0452e-05,0
61.179,1.796e-05,0
61.179,0.00012337,0
61.18,0.00018698,0
61.18,8.1407e-05,0
61.181,-7.9896e-05,0
61.181,-8.5435e-05,0
61.182,6.63e-05,0
61.183,0.00026688,0
61.183,0.00038505,0
61.184,0.00033721,0
61.184,0.00017641,0
61.185,6.1601e-05,0
61.185,1.7792e-05,0
61.186,-5.0858e-05,0
61.186,-0.00013025,0
61.187,-0.00012639,0
61.187,-7.7714e-05,0
61.188,-7.8386e-05,0
61.188,-4.6159e-05,0
61.189,8.275e-05,0
61.189,0.00019487,0
61.19,0.00021082,0
61.19,0.00015023,0
61.191,3.7934e-05,0
61.191,-0.00012908,0
61.192,-0.00029239,0
61.192,-0.00032378,0
61.193,-0.00018598,0
61.193,-4.9012e-05,0
61.194,-2.6688e-05,0
61.194,-5.9419e-05,0
61.195,-6.9657e-05,0
61.196,-4.0116e-05,0
61.196,6.0426e-06,0
61.197,4.6326e-05,0
61.197,6.63e-05,0
61.198,7.2343e-05,0
61.198,9.1646e-05,0
61.199,0.00013462,0
61.199,0.00018715,0
61.2,0.00022441,0
61.2,0.00024254,0
61.201,0.00025882,0
61.201,0.00027594,0
61.202,0.00025631,0
61.202,0.00020024,0
61.203,0.00018849,0
61.203,0.00022777,0
61.204,0.00023851,0
61.204,0.00015291,0
61.205,-3.6423e-05,0
61.205,-0.00017742,0
61.206,-0.00015023,0
61.206,-2.5345e-05,0
61.207,5.5558e-05,0
61.207,4.8173e-05,0
61.208,-1.6953e-05,0
61.208,-9.8695e-05,0
61.209,-0.00010742,0
61.21,1.5106e-06,0
61.21,0.000118,0
61.211,0.00015023,0
61.211,0.00010155,0
61.212,3.2731e-05,0
61.212,6.5461e-06,0
61.213,-6.2776e-05,0
61.213,-0.00022341,0
61.214,-0.00035064,0
61.214,-0.00033251,0
61.215,-0.00020545,0
61.215,-7.7546e-05,0
61.216,-1.2253e-05,0
61.216,-1.1749e-06,0
61.217,-5.539e-06,0
61.217,4.1962e-06,0
61.218,2.6352e-05,0
61.218,4.7501e-05,0
61.219,8.0735e-05,0
61.219,0.0001331,0
61.22,0.00018111,0
61.22,0.00021804,0
61.221,0.00023465,0
61.221,0.00023381,0
61.222,0.00024875,0
61.222,0.0002845,0
61.223,0.00030062,0
61.224,0.00028719,0
61.224,0.00024154,0
61.225,8.3757e-05,0
61.225,-0.00013999,0
61.226,-0.00024086,0
61.226,-0.00019084,0
61.227,-9.5338e-05,0
61.227,-3.2731e-05,0
61.228,3.5416e-05,0
61.228,0.00015593,0
61.229,0.00029256,0
61.229,0.00034963,0
61.23,0.00025765,0
61.23,6.6972e-05,0
61.231,-0.00016483,0
61.231,-0.00039797,0
61.232,-0.00046914,0
61.232,-0.00024993,0
61.233,0.00010121,0
61.233,0.00028685,0
61.234,0.00019588,0
61.234,-1.4099e-05,0
61.235,-0.0001801,0
61.235,-0.00030582,0
61.236,-0.00036977,0
61.237,-0.00027997,0
61.237,-7.9393e-05,0
61.238,8.8457e-05,0
61.238,0.00018027,0
61.239,0.00020662,0
61.239,0.0001707,0
61.24,7.4357e-05,0
61.24,-6.9993e-05,0
61.241,-0.00020427,0
61.241,-0.00023751,0
61.242,-0.00016667,0
61.242,-8.1071e-05,0
61.243,-2.2995e-05,0
61.243,7.4861e-05,0
61.244,0.00017591,0
61.244,0.00012572,0
61.245,-9.2988e-05,0
61.245,-0.00020528,0
61.246,-0.00013143,0
61.246,5.0355e-07,0
61.247,0.00016432,0
61.247,0.00035634,0
61.248,0.00045571,0
61.248,0.00038958,0
61.249,0.00022811,0
61.249,-2.4506e-05,0
61.25,-0.00033704,0
61.251,-0.00057774,0
61.251,-0.0006808,0
61.252,-0.0006014,0
61.252,-0.00036944,0
61.253,-0.00013394,0
61.253,-7.7379e-05,0
61.254,-0.00016667,0
61.254,-0.0001613,0
61.255,-1.1582e-05,0
61.255,0.00012219,0
61.256,0.00012505,0
61.256,5.623e-05,0
61.257,3.3066e-05,0
61.257,5.3208e-05,0
61.258,4.9516e-05,0
61.258,1.7624e-05,0
61.259,3.3402e-05,0
61.259,0.00013075,0
61.26,0.00023113,0
61.26,0.00027141,0
61.261,0.00025765,0
61.261,0.00021636,0
61.262,0.00015459,0
61.262,3.1724e-05,0
61.263,-9.5171e-05,0
61.264,-8.0735e-05,0
61.264,5.8579e-05,0
61.265,0.00018245,0
61.265,0.00022374,0
61.266,0.00022005,0
61.266,0.00021653,0
61.267,0.00021854,0
61.267,0.00020662,0
61.268,0.00014217,0
61.268,3.4745e-05,0
61.269,-4.3137e-05,0
61.269,-4.0116e-05,0
61.27,4.062e-05,0
61.27,0.00013495,0
61.271,0.00019554,0
61.271,0.00021736,0
61.272,0.00020243,0
61.272,0.00013931,0
61.273,6.3951e-05,0
61.273,2.6688e-05,0
61.274,2.3667e-05,0
61.274,3.7263e-05,0
61.275,6.8147e-05,0
61.275,9.3156e-05,0
61.276,0.00012941,0
61.276,0.00019403,0
61.277,0.00024489,0
61.278,0.00026638,0
61.278,0.00024154,0
61.279,0.00014318,0
61.279,-7.3014e-05,0
61.28,-0.00031724,0
61.28,-0.00041089,0
61.281,-0.0003545,0
61.281,-0.00030431,0
61.282,-0.00033788,0
61.282,-0.00034829,0
61.283,-0.00024372,0
61.283,-9.2653e-05,0
61.284,6.5461e-06,0
61.284,3.7263e-05,0
61.285,3.2731e-05,0
61.285,2.2828e-05,0
61.286,3.122e-05,0
61.286,7.4525e-05,0
61.287,0.00014066,0
61.287,0.00019588,0
61.288,0.00022274,0
61.288,0.00026235,0
61.289,0.00035534,0
61.289,0.0004537,0
61.29,0.00049868,0
61.291,0.0004725,0
61.291,0.00044665,0
61.292,0.00043423,0
61.292,0.00025949,0
61.293,-0.00013982,0
61.293,-0.00044094,0
61.294,-0.00044094,0
61.294,-0.0002939,0
61.295,-0.00010323,0
61.295,4.7501e-05,0
61.296,2.5177e-06,0
61.296,-9.8024e-05,0
61.297,-7.5532e-06,0
61.297,0.0002313,0
61.298,0.00042953,0
61.298,0.00048038,0
61.299,0.00035416,0
61.299,0.0001556,0
61.3,1.5106e-05,0
61.3,-9.6345e-05,0
61.301,-0.00023734,0
61.301,-0.00039512,0
61.302,-0.00057018,0
61.302,-0.00078117,0
61.303,-0.00098763,0
61.303,-0.0010413,0
61.304,-0.00080786,0
61.305,-0.0004443,0
61.305,-0.00020511,0
61.306,-0.00012656,0
61.306,-9.1981e-05,0
61.307,-4.683e-05,0
61.307,-1.2253e-05,0
61.308,9.2317e-06,0
61.308,3.357e-05,0
61.309,5.4551e-05,0
61.309,6.4286e-05,0
61.31,8.6275e-05,0
61.31,0.00015325,0
61.311,0.00025563,0
61.311,0.00034292,0
61.312,0.00038387,0
61.312,0.00036692,0
61.313,0.00029525,0
61.313,0.00022123,0
61.314,0.00016567,0
61.314,8.6778e-05,0
61.315,-1.8631e-05,0
61.315,-7.6707e-05,0
61.316,-4.4144e-05,0
61.316,2.4002e-05,0
61.317,5.2201e-05,0
61.318,3.3402e-05,0
61.318,1.9135e-05,0
61.319,1.9974e-05,0
61.319,3.4745e-05,0
61.32,7.4693e-05,0
61.32,0.00013579,0
61.321,0.0001994,0
61.321,0.00019924,0
61.322,0.00011682,0
61.322,6.0594e-05,0
61.323,6.3279e-05,0
61.323,0.00010121,0
61.324,0.00020226,0
61.324,0.00034527,0
61.325,0.00046679,0
61.325,0.00052755,0
61.326,0.0004688,0
61.326,0.00020327,0
61.327,-0.00013512,0
61.327,-0.00023532,0
61.328,-0.00011028,0
61.328,-2.3499e-06,0
61.329,1.8463e-05,0
61.329,4.1123e-05,0
61.33,4.2802e-05,0
61.331,-8.4092e-05,0
61.331,-0.00025563,0
61.332,-0.00029844,0
61.332,-0.00022794,0
61.333,-0.00019353,0
61.333,-0.00016533,0
61.334,-7.5029e-05,0
61.334,4.6998e-06,0
61.335,8.7449e-05,0
61.335,0.00020696,0
61.336,0.00031505,0
61.336,0.00035836,0
61.337,0.00027158,0
61.337,6.6636e-05,0
61.338,-5.6565e-05,0
61.338,-3.0381e-05,0
61.339,1.796e-05,0
61.339,7.3686e-05,0
61.34,0.00014284,0
61.34,0.0001378,0
61.341,-1.8463e-06,0
61.341,-0.00023516,0
61.342,-0.00045084,0
61.342,-0.00051446,0
61.343,-0.00036994,0
61.343,-0.00014049,0
61.344,1.3596e-05,0
61.345,7.6371e-05,0
61.345,0.00012303,0
61.346,0.00016634,0
61.346,0.00014888,0
61.347,8.7449e-05,0
61.347,7.0161e-05,0
61.348,0.00017675,0
61.348,0.00033083,0
61.349,0.00034258,0
61.349,0.00019957,0
61.35,2.7024e-05,0
61.35,-0.00014385,0
61.351,-0.00032345,0
61.351,-0.00042818,0
61.352,-0.00037565,0
61.352,-0.00025698,0
61.353,-0.0001415,0
61.353,-1.8631e-05,0
61.354,6.865e-05,0
61.354,8.4428e-05,0
61.355,5.0019e-05,0
61.355,1.6953e-05,0
61.356,8.2246e-06,0
61.356,-2.182e-06,0
61.357,2.6688e-05,0
61.358,0.00014066,0
61.358,0.00028081,0
61.359,0.00032378,0
61.359,0.00023113,0
61.36,0.00014871,0
61.36,0.00017842,0
61.361,0.00022307,0
61.361,0.00016214,0
61.362,5.1362e-05,0
61.362,-2.8534e-06,0
61.363,3.9445e-05,0
61.363,0.00016365,0
61.364,0.00031371,0
61.364,0.00041039,0
61.365,0.00030666,0
61.365,4.6998e-06,0
61.366,-0.00018514,0
61.366,-7.5532e-05,0
61.367,7.8386e-05,0
61.367,1.4603e-05,0
61.368,-0.00019638,0
61.368,-0.00030414,0
61.369,-0.00026184,0
61.369,-0.00023482,0
61.37,-0.00031287,0
61.37,-0.000402,0
61.371,-0.00039881,0
61.372,-0.00030079,0
61.372,-0.00019722,0
61.373,-0.00016902,0
61.373,-0.00024103,0
61.374,-0.00033385,0
61.374,-0.00030398,0
61.375,-0.00013931,0
61.375,4.2466e-05,0
61.376,0.00014435,0
61.376,0.00017658,0
61.377,0.0001895,0
61.377,0.00019773,0
61.378,0.00018917,0
61.378,0.00013327,0
61.379,1.1414e-05,0
61.379,-0.00010323,0
61.38,-9.8527e-05,0
61.38,2.7695e-05,0
61.381,0.00014955,0
61.381,0.00017322,0
61.382,0.00015207,0
61.382,0.00017372,0
61.383,0.00022072,0
61.383,0.00022509,0
61.384,0.0001509,0
61.385,7.8889e-06,0
61.385,-0.00010826,0
61.386,-0.00011934,0
61.386,-3.508e-05,0
61.387,9.2821e-05,0
61.387,0.0002083,0
61.388,0.00028904,0
61.388,0.00035601,0
61.389,0.0004208,0
61.389,0.00048659,0
61.39,0.00052721,0
61.39,0.00047921,0
61.391,0.00039445,0
61.391,0.00034745,0
61.392,0.00022828,0
61.392,-9.7688e-05,0
61.393,-0.00049398,0
61.393,-0.00062876,0
61.394,-0.00048928,0
61.394,-0.00036944,0
61.395,-0.00034258,0
61.395,-0.00028417,0
61.396,-0.0001697,0
61.396,-7.2847e-05,0
61.397,-2.7695e-05,0
61.397,-1.3931e-05,0
61.398,-9.5674e-06,0
61.399,-5.7069e-06,0
61.399,-8.3925e-07,0
61.4,1.3764e-05,0
61.4,4.3473e-05,0
61.401,7.9393e-05,0
61.401,0.00010692,0
61.402,0.00013545,0
61.402,0.00019017,0
61.403,0.00028635,0
61.403,0.00039696,0
61.404,0.00049935,0
61.404,0.00054199,0
61.405,0.00048122,0
61.405,0.00034896,0
61.406,0.00019638,0
61.406,-2.3331e-05,0
61.407,-0.00031724,0
61.407,-0.00054282,0
61.408,-0.0006333,0
61.408,-0.00057807,0
61.409,-0.00041425,0
61.409,-0.00022458,0
61.41,-8.426e-05,0
61.41,-1.4939e-05,0
61.411,1.0575e-05,0
61.411,2.4674e-05,0
61.412,3.6759e-05,0
61.413,4.2298e-05,0
61.413,3.8437e-05,0
61.414,3.0045e-05,0
61.414,2.8367e-05,0
61.415,3.592e-05,0
61.415,5.8747e-05,0
61.416,9.2821e-05,0
61.416,0.00012337,0
61.417,0.00014368,0
61.417,0.00015946,0
61.418,0.00018228,0
61.418,0.00020159,0
61.419,0.00015929,0
61.419,-9.5674e-06,0
61.42,-0.00023096,0
61.42,-0.00028249,0
61.421,-0.00014653,0
61.421,0,0
61.422,7.2679e-05,0
61.422,0.00011095,0
61.423,0.00016399,0
61.423,0.00021804,0
61.424,0.00023684,0
61.424,0.00021787,0
61.425,0.00017876,0
61.426,0.00010021,0
61.426,-2.3667e-05,0
61.427,-0.00011632,0
61.427,-0.00019655,0
61.428,-0.0002172,0
61.428,-9.6849e-05,0
61.429,6.5629e-05,0
61.429,0.00015023,0
61.43,0.0001514,0
61.43,0.00010256,0
61.431,4.8676e-06,0
61.431,-0.0001185,0
61.432,-0.00017406,0
61.432,-0.00013193,0
61.433,-7.4022e-05,0
61.433,-8.7953e-05,0
61.434,-0.00014267,0
61.434,-0.00017775,0
61.435,-0.00017288,0
61.435,-0.00011414,0
61.436,-2.6856e-05,0
61.436,2.7359e-05,0
61.437,3.5248e-05,0
61.437,5.9419e-05,0
61.438,0.00010256,0
61.438,0.00011078,0
61.439,5.5558e-05,0
61.44,-1.8296e-05,0
61.44,-2.266e-05,0
61.441,4.4648e-05,0
61.441,9.9535e-05,0
61.442,0.00010356,0
61.442,7.6707e-05,0
61.443,6.3279e-05,0
61.443,6.4286e-05,0
61.444,5.0019e-05,0
61.444,2.9374e-05,0
61.445,5.2033e-06,0
61.445,-3.8605e-05,0
61.446,-5.3544e-05,0
61.446,3.0213e-06,0
61.447,6.3783e-05,0
61.447,7.5364e-05,0
61.448,8.8121e-05,0
61.448,0.00014687,0
61.449,0.00023432,0
61.449,0.00031673,0
61.45,0.00036373,0
61.45,0.00035164,0
61.451,0.00022374,0
61.451,-6.5965e-05,0
61.452,-0.00032697,0
61.453,-0.00029071,0
61.453,-3.978e-05,0
61.454,0.00010088,0
61.454,-7.7211e-06,0
61.455,-0.0002135,0
61.455,-0.00032613,0
61.456,-0.00030146,0
61.456,-0.00019387,0
61.457,-8.2414e-05,0
61.457,-4.2634e-05,0
61.458,-6.9993e-05,0
61.458,-9.4331e-05,0
61.459,-8.5267e-05,0
61.459,-5.7908e-05,0
61.46,-3.0213e-05,0
61.46,-1.2589e-05,0
61.461,-2.3499e-06,0
61.461,1.796e-05,0
61.462,5.069e-05,0
61.462,7.9561e-05,0
61.463,8.9799e-05,0
61.463,8.7449e-05,0
61.464,7.5532e-05,0
61.464,5.2201e-05,0
61.465,4.6662e-05,0
61.465,8.4764e-05,0
61.466,0.00012857,0
61.467,0.00014318,0
61.467,0.0001415,0
61.468,0.00014754,0
61.468,0.00014855,0
61.469,0.00012773,0
61.469,7.8721e-05,0
61.47,3.4073e-05,0
61.47,3.1388e-05,0
61.471,5.1362e-05,0
61.471,5.6565e-05,0
61.472,4.3809e-05,0
61.472,4.2466e-05,0
61.473,6.0929e-05,0
61.473,7.7379e-05,0
61.474,7.9057e-05,0
61.474,6.8315e-05,0
61.475,6.5293e-05,0
61.475,8.1743e-05,0
61.476,8.661e-05,0
61.476,6.5629e-05,0
61.477,5.1026e-05,0
61.477,5.9586e-05,0
61.478,6.5293e-05,0
61.478,3.0045e-05,0
61.479,-6.0761e-05,0
61.48,-0.0001279,0
61.48,-0.00010373,0
61.481,-4.1291e-05,0
61.481,-2.8534e-06,0
61.482,3.2395e-05,0
61.482,8.9464e-05,0
61.483,0.0001462,0
61.483,0.00019638,0
61.484,0.00023952,0
61.484,0.00026117,0
61.485,0.00026101,0
61.485,0.00022072,0
61.486,9.3156e-05,0
61.486,-9.6849e-05,0
61.487,-0.00021233,0
61.487,-0.00024288,0
61.488,-0.00028904,0
61.488,-0.00028383,0
61.489,-0.00019084,0
61.489,-9.987e-05,0
61.49,-5.1194e-05,0
61.49,-1.0239e-05,0
61.491,3.592e-05,0
61.491,5.6565e-05,0
61.492,2.031e-05,0
61.492,-5.4551e-05,0
61.493,-0.00012119,0
61.494,-0.00013042,0
61.494,-7.6036e-05,0
61.495,-1.0239e-05,0
61.495,2.3163e-05,0
61.496,2.887e-05,0
61.496,2.887e-05,0
61.497,3.3234e-05,0
61.497,3.5416e-05,0
61.498,2.5345e-05,0
61.498,4.8676e-06,0
61.499,-1.3428e-05,0
61.499,-1.7456e-05,0
61.5,-6.2104e-06,0
61.5,1.2253e-05,0
61.501,3.6423e-05,0
61.501,6.0258e-05,0
61.502,8.04e-05,0
61.502,0.00010121,0
61.503,0.00012572,0
61.503,0.00014452,0
61.504,0.00014804,0
61.504,0.00013747,0
61.505,0.00010524,0
61.505,5.2873e-05,0
61.506,1.2253e-05,0
61.507,2.5345e-05,0
61.507,6.2272e-05,0
61.508,4.5823e-05,0
61.508,-1.8631e-05,0
61.509,-5.9419e-05,0
61.509,-4.2298e-05,0
61.51,7.5532e-06,0
61.51,2.7527e-05,0
61.511,-2.0142e-05,0
61.511,-6.3951e-05,0
61.512,-3.3066e-05,0
61.512,1.8967e-05,0
61.513,1.3596e-05,0
61.513,-1.1582e-05,0
61.514,-2.8534e-06,0
61.514,2.3667e-05,0
61.515,3.8102e-05,0
61.515,3.8773e-05,0
61.516,2.6352e-05,0
61.516,2.0142e-05,0
61.517,3.8437e-05,0
61.517,5.7908e-05,0
61.518,5.7908e-05,0
61.518,4.5151e-05,0
61.519,3.9948e-05,0
61.52,4.7669e-05,0
61.52,6.8986e-05,0
61.521,9.752e-05,0
61.521,0.00012673,0
61.522,0.00017171,0
61.522,0.00023381,0
61.523,0.00028585,0
61.523,0.00031136,0
61.524,0.00028685,0
61.524,0.00014418,0
61.525,-7.4189e-05,0
61.525,-0.00016886,0
61.526,-7.8218e-05,0
61.526,3.8437e-05,0
61.527,9.0303e-05,0
61.527,6.5629e-05,0
61.528,-0.0001138,0
61.528,-0.00028232,0
61.529,-0.00018447,0
61.529,8.51e-05,0
61.53,0.00027074,0
61.53,0.00028652,0
61.531,0.00020696,0
61.531,0.00010642,0
61.532,-4.9851e-05,0
61.532,-0.00026957,0
61.533,-0.00044765,0
61.534,-0.00054853,0
61.534,-0.00053426,0
61.535,-0.00040468,0
61.535,-0.00025429,0
61.536,-0.00012975,0
61.536,-3.5248e-05,0
61.537,2.1317e-05,0
61.537,4.2802e-05,0
61.538,5.5894e-05,0
61.538,7.3686e-05,0
61.539,8.426e-05,0
61.539,7.4357e-05,0
61.54,6.8147e-05,0
61.54,8.7449e-05,0
61.541,0.00010642,0
61.541,9.7185e-05,0
61.542,6.1936e-05,0
61.542,6.714e-06,0
61.543,-3.5752e-05,0
61.543,-5.2033e-06,0
61.544,7.6707e-05,0
61.544,0.00013378,0
61.545,0.00014452,0
61.545,0.00013579,0
61.546,0.00011498,0
61.547,5.7237e-05,0
61.547,-3.8437e-05,0
61.548,-7.9896e-05,0
61.548,-9.5674e-06,0
61.549,0.00011229,0
61.549,0.00020578,0
61.55,0.00025093,0
61.55,0.00022324,0
61.551,8.9128e-05,0
61.551,-7.8386e-05,0
61.552,-0.00011498,0
61.552,-9.2317e-06,0
61.553,9.4163e-05,0
61.553,0.0001086,0
61.554,7.2343e-05,0
61.554,7.5029e-05,0
61.555,0.00010692,0
61.555,0.00010591,0
61.556,9.9702e-05,0
61.556,9.987e-05,0
61.557,6.3951e-05,0
61.557,1.7288e-05,0
61.558,-2.5177e-06,0
61.558,-2.6352e-05,0
61.559,-0.00011363,0
61.559,-0.00025631,0
61.56,-0.0003592,0
61.561,-0.00029256,0
61.561,-8.0064e-05,0
61.562,0.00011632,0
61.562,0.00017305,0
61.563,0.00013109,0
61.563,0.00011347,0
61.564,0.00010289,0
61.564,8.9296e-05,0
61.565,0.0001378,0
61.565,0.00018849,0
61.566,0.00016231,0
61.566,8.2414e-05,0
61.567,-1.8463e-05,0
61.567,-0.00014083,0
61.568,-0.00022106,0
61.568,-0.0001744,0
61.569,-4.5487e-05,0
61.569,5.9922e-05,0
61.57,8.9128e-05,0
61.57,1.0239e-05,0
61.571,-0.0001707,0
61.571,-0.00034258,0
61.572,-0.00035668,0
61.572,-0.00024808,0
61.573,-0.00013545,0
61.574,-2.6856e-05,0
61.574,7.6707e-05,0
61.575,0.0001415,0
61.575,0.0001566,0
61.576,0.00012975,0
61.576,0.00010658,0
61.577,0.0001039,0
61.577,8.9128e-05,0
61.578,3.2059e-05,0
61.578,-2.3499e-05,0
61.579,2.0645e-05,0
61.579,0.00014553,0
61.58,0.00025328,0
61.58,0.00032412,0
61.581,0.00035097,0
61.581,0.00027091,0
61.582,0.00013747,0
61.582,9.3324e-05,0
61.583,9.7185e-05,0
61.583,2.9877e-05,0
61.584,-4.8508e-05,0
61.584,-6.5797e-05,0
61.585,-3.508e-05,0
61.585,2.5177e-06,0
61.586,-3.1891e-06,0
61.586,-1.7121e-05,0
61.587,1.2085e-05,0
61.588,4.683e-05,0
61.588,8.04e-05,0
61.589,0.00012807,0
61.589,0.00010977,0
61.59,-8.2246e-06,0
61.59,-0.0001274,0
61.591,-0.00016416,0
61.591,-0.00016365,0
61.592,-0.00014452,0
61.592,-7.6539e-05,0
61.593,4.0284e-06,0
61.593,5.7908e-05,0
61.594,6.7308e-05,0
61.594,-1.6617e-05,0
61.595,-0.00017842,0
61.595,-0.00024103,0
61.596,-0.00015895,0
61.596,-7.2007e-05,0
61.597,-4.213e-05,0
61.597,-3.2227e-05,0
61.598,-5.0355e-06,0
61.598,6.63e-05,0
61.599,0.00014334,0
61.599,0.0001556,0
61.6,0.00010037,0
61.6,5.0355e-05,0
61.601,5.9754e-05,0
61.602,0.0001091,0
61.602,0.0001232,0
61.603,7.1e-05,0
61.603,-6.2104e-06,0
61.604,-3.7095e-05,0
61.604,-1.1749e-06,0
61.605,4.3137e-05,0
61.605,6.3951e-05,0
61.606,7.8553e-05,0
61.606,9.5506e-05,0
61.607,0.00010205,0
61.607,9.8192e-05,0
61.608,0.00010524,0
61.608,0.0001378,0
61.609,0.00019588,0
61.609,0.0002694,0
61.61,0.0003315,0
61.61,0.00037044,0
61.611,0.00035668,0
61.611,0.00024489,0
61.612,9.3828e-05,0
61.612,-3.6759e-05,0
61.613,-0.00011867,0
61.613,-0.00018161,0
61.614,-0.00021569,0
61.615,-0.0001796,0
61.615,-0.0001373,0
61.616,-7.7211e-05,0
61.616,3.5248e-06,0
61.617,2.3331e-05,0
61.617,-2.0142e-05,0
61.618,-4.6494e-05,0
61.618,-4.1962e-05,0
61.619,-8.04e-05,0
61.619,-0.00017221,0
61.62,-0.00023432,0
61.62,-0.00020763,0
61.621,-0.00013478,0
61.621,-8.3421e-05,0
61.622,-6.5293e-05,0
61.622,-4.9012e-05,0
61.623,-1.4939e-05,0
61.623,2.1653e-05,0
61.624,4.6494e-05,0
61.624,6.4118e-05,0
61.625,8.275e-05,0
61.625,0.00010692,0
61.626,0.00014217,0
61.626,0.00019454,0
61.627,0.00025563,0
61.627,0.00030935,0
61.628,0.00034594,0
61.629,0.00035618,0
61.629,0.00030767,0
61.63,0.00020377,0
61.63,8.5603e-05,0
61.631,-2.8367e-05,0
61.631,-9.4163e-05,0
61.632,-0.00010658,0
61.632,-7.2343e-05,0
61.633,-1.091e-05,0
61.633,3.743e-05,0
61.634,7.7379e-05,0
61.634,9.2988e-05,0
61.635,6.8147e-05,0
61.635,3.1891e-06,0
61.636,-0.00011867,0
61.636,-0.00033469,0
61.637,-0.00055525,0
61.637,-0.00068952,0
61.638,-0.000686,0
61.638,-0.00052016,0
61.639,-0.00029223,0
61.639,-0.00013428,0
61.64,-7.5364e-05,0
61.64,-5.5222e-05,0
61.641,-3.0045e-05,0
61.642,-4.6998e-06,0
61.642,1.326e-05,0
61.643,3.122e-05,0
61.643,5.153e-05,0
61.644,8.4764e-05,0
61.644,0.00013831,0
61.645,0.00020998,0
61.645,0.00027779,0
61.646,0.00032747,0
61.646,0.00036172,0
61.647,0.00037179,0
61.647,0.00030532,0
61.648,0.00015358,0
61.648,7.8889e-06,0
61.649,-7.6539e-05,0
61.649,-0.00014452,0
61.65,-0.00015492,0
61.65,-8.51e-05,0
61.651,-2.8534e-06,0
61.651,3.508e-05,0
61.652,3.5584e-05,0
61.652,2.1988e-05,0
61.653,-4.5319e-06,0
61.653,-2.5345e-05,0
61.654,-1.2924e-05,0
61.654,2.1317e-05,0
61.655,4.0116e-05,0
61.656,4.5487e-05,0
61.656,6.3447e-05,0
61.657,8.9296e-05,0
61.657,0.00010893,0
61.658,0.00013663,0
61.658,0.00017087,0
61.659,0.00018648,0
61.659,0.00018245,0
61.66,0.00017792,0
61.66,0.00016684,0
61.661,0.00013478,0
61.661,7.4357e-05,0
61.662,-3.6927e-06,0
61.662,-8.7785e-05,0
61.663,-0.00014888,0
61.663,-0.00012068,0
61.664,-3.508e-05,0
61.664,2.6017e-05,0
61.665,4.2802e-05,0
61.665,4.2802e-05,0
61.666,4.5319e-05,0
61.666,5.5726e-05,0
61.667,7.3182e-05,0
61.667,8.8457e-05,0
61.668,9.4331e-05,0
61.669,9.3996e-05,0
61.669,9.5003e-05,0
61.67,9.8863e-05,0
61.67,9.5506e-05,0
61.671,7.8889e-05,0
61.671,4.5151e-05,0
61.672,6.8818e-06,0
61.672,9.5674e-06,0
61.673,3.7263e-05,0
61.673,3.0716e-05,0
61.674,2.4002e-05,0
61.674,5.4047e-05,0
61.675,9.3156e-05,0
61.675,8.2078e-05,0
61.676,-9.5674e-06,0
61.676,-8.1071e-05,0
61.677,-7.805e-05,0
61.677,-5.1865e-05,0
61.678,-3.7095e-05,0
61.678,-5.8579e-05,0
61.679,-9.4163e-05,0
61.679,-9.752e-05,0
61.68,-6.6804e-05,0
61.68,-4.1459e-05,0
61.681,-6.7475e-05,0
61.681,-0.00010927,0
61.682,-0.00010642,0
61.683,-5.9754e-05,0
61.683,-6.714e-06,0
61.684,3.6088e-05,0
61.684,8.191e-05,0
61.685,0.00011984,0
61.685,0.00013948,0
61.686,0.00015241,0
61.686,0.00016651,0
61.687,0.00017708,0
61.687,0.00016315,0
61.688,8.6946e-05,0
61.688,-5.5055e-05,0
61.689,-0.00019101,0
61.689,-0.00024724,0
61.69,-0.00020226,0
61.69,-9.8192e-05,0
61.691,-3.6927e-06,0
61.691,4.8173e-05,0
61.692,6.7643e-05,0
61.692,7.7043e-05,0
61.693,6.2104e-05,0
61.693,2.1653e-05,0
61.694,3.0213e-06,0
61.694,2.1149e-05,0
61.695,5.7069e-05,0
61.696,8.4092e-05,0
61.696,9.8024e-05,0
61.697,0.00012438,0
61.697,0.00018379,0
61.698,0.00024993,0
61.698,0.0002845,0
61.699,0.00030733,0
61.699,0.00038152,0
61.7,0.00047384,0
61.7,0.00042617,0
61.701,0.00022509,0
61.701,1.1917e-05,0
61.702,-0.00016114,0
61.702,-0.00032143,0
61.703,-0.00041828,0
61.703,-0.00050271,0
61.704,-0.00058546,0
61.704,-0.00053947,0
61.705,-0.00038723,0
61.705,-0.00023348,0
61.706,-0.00012622,0
61.706,-6.8986e-05,0
61.707,-4.5823e-05,0
61.707,-4.448e-05,0
61.708,-5.1698e-05,0
61.709,-5.4047e-05,0
61.709,-5.1194e-05,0
61.71,-3.3738e-05,0
61.71,3.5248e-06,0
61.711,4.5991e-05,0
61.711,7.5029e-05,0
61.712,8.8457e-05,0
61.712,0.0001044,0
61.713,0.00012387,0
61.713,0.00013378,0
61.714,0.00014083,0
61.714,0.00016046,0
61.715,0.00019303,0
61.715,0.00020595,0
61.716,0.00017775,0
61.716,0.00016265,0
61.717,0.00023717,0
61.717,0.00031975,0
61.718,0.00032042,0
61.718,0.00029105,0
61.719,0.000237,0
61.719,9.5842e-05,0
61.72,-0.00010558,0
61.72,-0.00027024,0
61.721,-0.00033519,0
61.721,-0.00027427,0
61.722,-0.00012136,0
61.723,1.9303e-05,0
61.723,7.8218e-05,0
61.724,7.0329e-05,0
61.724,5.8244e-05,0
61.725,1.9638e-05,0
61.725,-0.00013059,0
61.726,-0.00024724,0
61.726,-0.00016365,0
61.727,2.6017e-05,0
61.727,0.00016097,0
61.728,0.00020763,0
61.728,0.00021736,0
61.729,0.00022274,0
61.729,0.00016886,0
61.73,1.5778e-05,0
61.73,-0.00010591,0
61.731,-9.5842e-05,0
61.731,-4.5151e-05,0
61.732,-3.2395e-05,0
61.732,-4.8844e-05,0
61.733,-7.7043e-05,0
61.733,-7.9393e-05,0
61.734,-3.8773e-05,0
61.734,8.3925e-07,0
61.735,-1.5106e-06,0
61.736,-1.6617e-05,0
61.736,-1.9638e-05,0
61.737,-2.3667e-05,0
61.737,-3.2059e-05,0
61.738,-1.6953e-05,0
61.738,3.3402e-05,0
61.739,7.8721e-05,0
61.739,8.9799e-05,0
61.74,6.244e-05,0
61.74,-2.2156e-05,0
61.741,-9.0135e-05,0
61.741,-5.8076e-05,0
61.742,2.4842e-05,0
61.742,7.335e-05,0
61.743,6.0929e-05,0
61.743,1.3931e-05,0
61.744,-3.8605e-06,0
61.744,4.6998e-06,0
61.745,1.7456e-05,0
61.745,2.5513e-05,0
61.746,1.091e-05,0
61.746,4.1962e-06,0
61.747,3.6255e-05,0
61.747,7.8386e-05,0
61.748,9.3492e-05,0
61.748,8.1407e-05,0
61.749,6.4958e-05,0
61.75,5.153e-05,0
61.75,4.2466e-05,0
61.751,4.2466e-05,0
61.751,5.9754e-05,0
61.752,9.2988e-05,0
61.752,0.00012068,0
61.753,0.00013008,0
61.753,0.00011766,0
61.754,9.6513e-05,0
61.754,8.5771e-05,0
61.755,7.4693e-05,0
61.755,8.3925e-07,0
61.756,-0.00013176,0
61.756,-0.00020427,0
61.757,-0.00015912,0
61.757,-7.2007e-05,0
61.758,-1.8296e-05,0
61.758,-3.357e-06,0
61.759,1.6785e-06,0
61.759,1.5106e-05,0
61.76,1.9806e-05,0
61.76,4.1962e-06,0
61.761,-1.3092e-05,0
61.761,-1.7456e-05,0
61.762,6.714e-07,0
61.763,3.6759e-05,0
61.763,4.9516e-05,0
61.764,1.7288e-05,0
61.764,-3.3066e-05,0
61.765,-6.949e-05,0
61.765,-8.1743e-05,0
61.766,-6.4622e-05,0
61.766,-3.0045e-05,0
61.767,-2.8534e-06,0
61.767,6.8818e-06,0
61.768,1.3596e-05,0
61.768,4.6494e-05,0
61.769,0.00015006,0
61.769,0.00030196,0
61.77,0.00042013,0
61.77,0.00047485,0
61.771,0.00048492,0
61.771,0.00045823,0
61.772,0.00034963,0
61.772,9.601e-05,0
61.773,-0.00022072,0
61.773,-0.00040703,0
61.774,-0.00040468,0
61.774,-0.00025966,0
61.775,-4.6494e-05,0
61.775,0.00014788,0
61.776,0.00022744,0
61.777,0.00014536,0
61.777,-9.5674e-06,0
61.778,-0.00010356,0
61.778,-0.00019521,0
61.779,-0.00035953,0
61.779,-0.00053309,0
61.78,-0.00050741,0
61.78,-0.00028585,0
61.781,-8.1743e-05,0
61.781,-4.3641e-06,0
61.782,4.3641e-06,0
61.782,2.6017e-05,0
61.783,6.6972e-05,0
61.783,0.0001039,0
61.784,0.0001284,0
61.784,0.00012874,0
61.785,0.00010709,0
61.785,8.7114e-05,0
61.786,3.4913e-05,0
61.786,-6.7979e-05,0
61.787,-0.00011028,0
61.787,-2.8702e-05,0
61.788,9.2821e-05,0
61.788,0.00017154,0
61.789,0.0002031,0
61.789,0.00023616,0
61.79,0.00028719,0
61.791,0.00030314,0
61.791,0.00021703,0
61.792,4.0452e-05,0
61.792,-8.0232e-05,0
61.793,-0.00011464,0
61.793,-9.7353e-05,0
61.794,-3.7263e-05,0
61.794,1.6281e-05,0
61.795,5.5894e-05,0
61.795,8.1743e-05,0
61.796,7.5029e-05,0
61.796,2.2995e-05,0
61.797,-3.8102e-05,0
61.797,-5.2201e-05,0
61.798,-7.8889e-06,0
61.798,5.6901e-05,0
61.799,4.6159e-05,0
61.799,-1.6281e-05,0
61.8,-3.8605e-06,0
61.8,7.6875e-05,0
61.801,0.00011783,0
61.801,0.00013478,0
61.802,0.00019857,0
61.802,0.00026638,0
61.803,0.00026537,0
61.804,0.00018514,0
61.804,1.9135e-05,0
61.805,-0.00016231,0
61.805,-0.00026738,0
61.806,-0.0002788,0
61.806,-0.00021518,0
61.807,-0.00013915,0
61.807,-9.3828e-05,0
61.808,-6.949e-05,0
61.808,-5.7069e-05,0
61.809,-4.0787e-05,0
61.809,-1.8631e-05,0
61.81,-1.3931e-05,0
61.81,-1.3764e-05,0
61.811,0,0
61.811,1.2421e-05,0
61.812,1.5274e-05,0
61.812,1.9806e-05,0
61.813,2.4338e-05,0
61.813,2.7695e-05,0
61.814,3.7934e-05,0
61.814,5.1362e-05,0
61.815,5.7069e-05,0
61.815,6.1433e-05,0
61.816,7.5029e-05,0
61.816,8.9632e-05,0
61.817,9.3828e-05,0
61.818,9.0135e-05,0
61.818,8.1575e-05,0
61.819,7.0329e-05,0
61.819,5.0187e-05,0
61.82,2.0813e-05,0
61.82,-1.0575e-05,0
61.821,-1.4099e-05,0
61.821,1.796e-05,0
61.822,5.7237e-05,0
61.822,7.9057e-05,0
61.823,8.1743e-05,0
61.823,7.2679e-05,0
61.824,5.7404e-05,0
61.824,4.4648e-05,0
61.825,4.3137e-05,0
61.825,5.1698e-05,0
61.826,5.9251e-05,0
61.826,4.7333e-05,0
61.827,1.9303e-05,0
61.827,8.5603e-06,0
61.828,3.0381e-05,0
61.828,6.1601e-05,0
61.829,7.9561e-05,0
61.829,8.0064e-05,0
61.83,7.5364e-05,0
61.831,8.0232e-05,0
61.831,8.7617e-05,0
61.832,6.7308e-05,0
61.832,-1.1078e-05,0
61.833,-0.00011347,0
61.833,-0.00014939,0
61.834,-0.00010004,0
61.834,-3.6759e-05,0
61.835,-6.3783e-06,0
61.835,2.6856e-06,0
61.836,1.3596e-05,0
61.836,4.1459e-05,0
61.837,8.6778e-05,0
61.837,0.00012001,0
61.838,0.000118,0
61.838,0.00010961,0
61.839,0.00013764,0
61.839,0.00016869,0
61.84,0.00013646,0
61.84,1.7792e-05,0
61.841,-0.00010306,0
61.841,-0.00011733,0
61.842,-6.949e-05,0
61.842,-7.9728e-05,0
61.843,-0.0001415,0
61.843,-0.00011666,0
61.844,1.5274e-05,0
61.845,0.00013747,0
61.845,0.00017775,0
61.846,0.00015392,0
61.846,0.00012068,0
61.847,9.8863e-05,0
61.847,2.6352e-05,0
61.848,-0.00012303,0
61.848,-0.00021501,0
61.849,-0.00015912,0
61.849,-4.1794e-05,0
61.85,2.1149e-05,0
61.85,3.1052e-05,0
61.851,4.2298e-05,0
61.851,5.6062e-05,0
61.852,5.9754e-05,0
61.852,6.3447e-05,0
61.853,7.6371e-05,0
61.853,0.00013008,0
61.854,0.00022542,0
61.854,0.00024154,0
61.855,9.2485e-05,0
61.855,-0.00012253,0
61.856,-0.00028904,0
61.856,-0.00038152,0
61.857,-0.00042785,0
61.858,-0.00039663,0
61.858,-0.00026571,0
61.859,-0.00015106,0
61.859,-0.00010256,0
61.86,-6.3951e-05,0
61.86,-2.9038e-05,0
61.861,-2.2324e-05,0
61.861,-4.5823e-05,0
61.862,-7.0665e-05,0
61.862,-5.7237e-05,0
61.863,6.714e-07,0
61.863,7.9057e-05,0
61.864,0.0001509,0
61.864,0.00020998,0
61.865,0.00026436,0
61.865,0.00031472,0
61.866,0.00034879,0
61.866,0.00035416,0
61.867,0.00024993,0
61.867,-5.9251e-05,0
61.868,-0.00035769,0
61.868,-0.00035819,0
61.869,-0.00015962,0
61.869,2.182e-06,0
61.87,0.0001034,0
61.87,0.00019185,0
61.871,0.00026101,0
61.872,0.00029055,0
61.872,0.00029323,0
61.873,0.0002788,0
61.873,0.00022274,0
61.874,5.8579e-05,0
61.874,-0.00011296,0
61.875,-0.00015056,0
61.875,-0.00014788,0
61.876,-0.00017356,0
61.876,-0.00015996,0
61.877,-0.00010558,0
61.877,-7.2343e-05,0
61.878,-5.4551e-05,0
61.878,-9.5674e-06,0
61.879,4.8173e-05,0
61.879,8.4596e-05,0
61.88,0.00010021,0
61.88,0.00010574,0
61.881,0.00011061,0
61.881,0.00011565,0
61.882,0.00011196,0
61.882,9.8695e-05,0
61.883,8.2078e-05,0
61.883,6.9322e-05,0
61.884,5.7572e-05,0
61.885,3.978e-05,0
61.885,2.3499e-05,0
61.886,2.652e-05,0
61.886,4.7501e-05,0
61.887,6.4622e-05,0
61.887,6.6133e-05,0
61.888,6.0929e-05,0
61.888,5.623e-05,0
61.889,5.2873e-05,0
61.889,5.5222e-05,0
61.89,6.4286e-05,0
61.89,7.0329e-05,0
61.891,6.8315e-05,0
61.891,6.1601e-05,0
61.892,5.069e-05,0
61.892,3.0716e-05,0
61.893,3.357e-07,0
61.893,-1.7288e-05,0
61.894,-1.0239e-05,0
61.894,-4.1962e-06,0
61.895,-1.1749e-05,0
61.895,-1.4939e-05,0
61.896,1.8463e-06,0
61.896,2.7695e-05,0
61.897,4.1794e-05,0
61.898,4.6159e-05,0
61.898,5.7572e-05,0
61.899,6.9322e-05,0
61.899,7.0665e-05,0
61.9,7.4357e-05,0
61.9,8.8457e-05,0
61.901,9.6513e-05,0
61.901,8.4764e-05,0
61.902,2.1317e-05,0
61.902,-0.00010491,0
61.903,-0.00021837,0
61.903,-0.0002276,0
61.904,-0.00014939,0
61.904,-7.5029e-05,0
61.905,-4.8341e-05,0
61.905,-4.5151e-05,0
61.906,-3.978e-05,0
61.906,-3.0716e-05,0
61.907,-2.266e-05,0
61.907,-1.7624e-05,0
61.908,-1.8296e-05,0
61.908,-1.8631e-05,0
61.909,-1.4939e-05,0
61.909,-8.0568e-06,0
61.91,-1.5106e-06,0
61.91,2.5177e-06,0
61.911,3.5248e-06,0
61.912,1.5106e-06,0
61.912,2.3499e-06,0
61.913,1.6785e-05,0
61.913,4.918e-05,0
61.914,8.6946e-05,0
61.914,0.000118,0
61.915,0.00013948,0
61.915,0.00014972,0
61.916,0.00015224,0
61.916,0.00014015,0
61.917,7.9057e-05,0
61.917,-3.1556e-05,0
61.918,-0.00011649,0
61.918,-9.8695e-05,0
61.919,1.1749e-06,0
61.919,8.1239e-05,0
61.92,6.2272e-05,0
61.92,-2.1988e-05,0
61.921,-4.3305e-05,0
61.921,5.6901e-05,0
61.922,0.00016634,0
61.922,0.00018077,0
61.923,0.00017624,0
61.923,0.00022123,0
61.924,0.00021199,0
61.925,1.3596e-05,0
61.925,-0.00025396,0
61.926,-0.00034795,0
61.926,-0.00026654,0
61.927,-0.00014183,0
61.927,-4.4144e-05,0
61.928,8.3925e-07,0
61.928,1.091e-05,0
61.929,9.9031e-06,0
61.929,-1.6785e-05,0
61.93,-8.0903e-05,0
61.93,-0.00016164,0
61.931,-0.00017675,0
61.931,-7.9561e-05,0
61.932,4.5151e-05,0
61.932,0.0001237,0
61.933,0.00016735,0
61.933,0.0001848,0
61.934,0.00015795,0
61.934,0.00012572,0
61.935,0.00013545,0
61.935,0.00015023,0
61.936,0.00010961,0
61.936,3.5248e-05,0
61.937,-1.6785e-05,0
61.937,-5.0523e-05,0
61.938,-9.1814e-05,0
61.939,-0.00015358,0
61.939,-0.00012471,0
61.94,6.3615e-05,0
61.94,0.0002741,0
61.941,0.00038119,0
61.941,0.00037716,0
61.942,0.00026906,0
61.942,9.3492e-05,0
61.943,-8.1575e-05,0
61.943,-0.00021065,0
61.944,-0.000308,0
61.944,-0.00032059,0
61.945,-0.00024019,0
61.945,-0.00013982,0
61.946,-7.9896e-05,0
61.946,-6.8315e-05,0
61.947,-6.3615e-05,0
61.947,-4.448e-05,0
61.948,-4.3137e-05,0
61.948,-8.5603e-05,0
61.949,-0.0001237,0
61.949,-9.3828e-05,0
61.95,-1.326e-05,0
61.95,6.0258e-05,0
61.951,9.2485e-05,0
61.952,9.0974e-05,0
61.952,8.4428e-05,0
61.953,8.4092e-05,0
61.953,8.1575e-05,0
61.954,7.5364e-05,0
61.954,7.4693e-05,0
61.955,8.2414e-05,0
61.955,9.2821e-05,0
61.956,0.00010239,0
61.956,0.00010658,0
61.957,0.00011112,0
61.957,0.00012404,0
61.958,0.00013059,0
61.958,0.00012102,0
61.959,0.00010793,0
61.959,9.6513e-05,0
61.96,7.2175e-05,0
61.96,2.6017e-05,0
61.961,-1.0575e-05,0
61.961,-1.6114e-05,0
61.962,-2.8534e-06,0
61.962,8.2246e-06,0
61.963,1.5946e-05,0
61.963,2.0813e-05,0
61.964,1.6617e-05,0
61.964,1.9638e-05,0
61.965,7.7379e-05,0
61.966,0.00018766,0
61.966,0.00028115,0
61.967,0.0003211,0
61.967,0.00032042,0
61.968,0.00031875,0
61.968,0.00034191,0
61.969,0.00032999,0
61.969,0.00018816,0
61.97,-0.00011263,0
61.97,-0.00038874,0
61.971,-0.00041056,0
61.971,-0.00028753,0
61.972,-0.00024724,0
61.972,-0.00024573,0
61.973,-0.00014452,0
61.973,9.2317e-06,0
61.974,0.00011447,0
61.974,0.0001561,0
61.975,0.0001744,0
61.975,0.00019252,0
61.976,0.00019756,0
61.976,0.0001472,0
61.977,-4.0284e-06,0
61.977,-0.00021837,0
61.978,-0.00031203,0
61.978,-0.00021267,0
61.979,-7.8721e-05,0
61.98,-6.0426e-06,0
61.98,3.8605e-05,0
61.981,8.4092e-05,0
61.981,8.6275e-05,0
61.982,-1.1749e-06,0
61.982,-6.8147e-05,0
61.983,-2.3163e-05,0
61.983,4.7837e-05,0
61.984,7.8386e-05,0
61.984,6.1936e-05,0
61.985,-4.3641e-06,0
61.985,-9.4163e-05,0
61.986,-0.0001566,0
61.986,-0.00015627,0
61.987,-9.7017e-05,0
61.987,-3.7766e-05,0
61.988,-1.6281e-05,0
61.988,-6.8818e-06,0
61.989,9.2317e-06,0
61.989,5.0355e-07,0
61.99,-3.9277e-05,0
61.99,-7.2343e-05,0
61.991,-6.6804e-05,0
61.991,-7.5532e-06,0
61.992,9.4163e-05,0
61.993,0.00018497,0
61.993,0.00022458,0
61.994,0.00022626,0
61.994,0.0002266,0
61.995,0.00023079,0
61.995,0.00015962,0
61.996,-6.3279e-05,0
61.996,-0.00032143,0
61.997,-0.00042248,0
61.997,-0.00030213,0
61.998,-0.00011028,0
61.998,-1.0071e-05,0
61.999,-5.3544e-05,0
61.999,-0.00016147,0
62,-0.00016634,0
62,-6.8986e-05,0
62.001,2.1988e-05,0
62.001,6.63e-05,0
62.002,7.9728e-05,0
62.002,8.6107e-05,0
62.003,0.00011095,0
62.003,0.00016902,0
62.004,0.00023247,0
62.004,0.00027024,0
62.005,0.00026839,0
62.005,0.00023079,0
62.006,0.00015492,0
62.007,4.9348e-05,0
62.007,9.2317e-06,0
62.008,7.8721e-05,0
62.008,0.00019857,0
62.009,0.0002892,0
62.009,0.00030532,0
62.01,0.00025362,0
62.01,0.00013109,0
62.011,-3.4409e-05,0
62.011,-0.00013411,0
62.012,-0.00016902,0
62.012,-0.00020108,0
62.013,-0.00023012,0
62.013,-0.00021334,0
62.014,-0.00013092,0
62.014,-3.1388e-05,0
62.015,3.1724e-05,0
62.015,4.5991e-05,0
62.016,3.3906e-05,0
62.016,1.6617e-05,0
62.017,2.1988e-05,0
62.017,7.6036e-05,0
62.018,0.00014083,0
62.018,0.00017339,0
62.019,0.000165,0
62.02,0.00013478,0
62.02,0.00012471,0
62.021,0.00013411,0
62.021,5.4215e-05,0
62.022,-0.00018111,0
62.022,-0.00040905,0
62.023,-0.00039243,0
62.023,-0.00017708,0
62.024,5.0355e-07,0
62.024,2.6184e-05,0
62.025,-1.1078e-05,0
62.025,7.2175e-06,0
62.026,6.479e-05,0
62.026,9.2149e-05,0
62.027,6.7643e-05,0
62.027,9.2317e-06,0
62.028,-3.7095e-05,0
62.028,-3.0716e-05,0
62.029,-1.8463e-06,0
62.029,-6.5461e-06,0
62.03,-9.5674e-06,0
62.03,2.6688e-05,0
62.031,6.4958e-05,0
62.031,7.2175e-05,0
62.032,6.3447e-05,0
62.032,5.7069e-05,0
62.033,5.7237e-05,0
62.034,6.7308e-05,0
62.034,8.5435e-05,0
62.035,9.4499e-05,0
62.035,8.5435e-05,0
62.036,7.1839e-05,0
62.036,6.3951e-05,0
62.037,6.0929e-05,0
62.037,6.8147e-05,0
62.038,8.5771e-05,0
62.038,0.0001044,0
62.039,0.00013193,0
62.039,0.00018178,0
62.04,0.00023516,0
62.04,0.00023684,0
62.041,0.00019991,0
62.041,0.00024187,0
62.042,0.00033251,0
62.042,0.00033201,0
62.043,0.00020058,0
62.043,2.7863e-05,0
62.044,-4.8508e-05,0
62.044,-0.00012941,0
