57.687,-0.00012555,0
57.688,-0.00013982,0
57.688,-0.00015492,0
57.689,-0.00017272,0
57.689,-0.00018027,0
57.69,-0.00016332,0
57.69,-0.00012219,0
57.691,-7.1e-05,0
57.691,-3.0045e-05,0
57.692,-1.1582e-05,0
57.692,-4.3641e-06,0
57.693,7.2175e-06,0
57.693,3.1556e-05,0
57.694,5.6565e-05,0
57.694,7.3518e-05,0
57.695,8.3589e-05,0
57.695,9.1142e-05,0
57.696,9.9535e-05,0
57.696,0.00010491,0
57.697,0.00010558,0
57.697,0.00010491,0
57.698,0.00010625,0
57.698,0.00010591,0
57.699,9.3492e-05,0
57.7,6.4118e-05,0
57.7,3.6759e-05,0
57.701,2.9038e-05,0
57.701,3.2395e-05,0
57.702,2.8367e-05,0
57.702,1.0239e-05,0
57.703,-1.5106e-05,0
57.703,-4.0452e-05,0
57.704,-5.4551e-05,0
57.704,-4.6494e-05,0
57.705,-1.6281e-05,0
57.705,1.561e-05,0
57.706,3.3402e-05,0
57.706,3.9109e-05,0
57.707,3.6591e-05,0
57.707,3.2563e-05,0
57.708,3.4073e-05,0
57.708,4.5487e-05,0
57.709,6.8986e-05,0
57.709,9.3828e-05,0
57.71,0.00010591,0
57.71,0.00010239,0
57.711,8.6778e-05,0
57.711,6.4286e-05,0
57.712,5.4719e-05,0
57.712,7.1672e-05,0
57.713,9.3156e-05,0
57.714,8.7114e-05,0
57.714,5.3544e-05,0
57.715,2.0981e-05,0
57.715,8.5603e-06,0
57.716,1.4939e-05,0
57.716,3.0381e-05,0
57.717,4.448e-05,0
57.717,4.6494e-05,0
57.718,3.9445e-05,0
57.718,3.0549e-05,0
57.719,2.7359e-05,0
57.719,3.8773e-05,0
57.72,6.3447e-05,0
57.72,8.2414e-05,0
57.721,9.2149e-05,0
57.721,9.0974e-05,0
57.722,6.3783e-05,0
57.722,1.5274e-05,0
57.723,-3.9109e-05,0
57.723,-8.1743e-05,0
57.724,-0.00010155,0
57.724,-0.00010071,0
57.725,-9.0806e-05,0
57.725,-7.9393e-05,0
57.726,-6.7979e-05,0
57.727,-6.5293e-05,0
57.727,-7.6036e-05,0
57.728,-8.4428e-05,0
57.728,-7.9393e-05,0
57.729,-5.8076e-05,0
57.729,-2.7695e-05,0
57.73,-1.8463e-06,0
57.73,1.0407e-05,0
57.731,2.6352e-05,0
57.731,6.3951e-05,0
57.732,0.00010574,0
57.732,0.00012203,0
57.733,0.00010608,0
57.733,7.0329e-05,0
57.734,2.6688e-05,0
57.734,-1.2253e-05,0
57.735,-3.508e-05,0
57.735,-2.4674e-05,0
57.736,1.4603e-05,0
57.736,4.9516e-05,0
57.737,5.8076e-05,0
57.737,4.213e-05,0
57.738,2.8702e-05,0
57.738,4.8676e-05,0
57.739,0.00010256,0
57.739,0.00015593,0
57.74,0.00017641,0
57.741,0.00017121,0
57.741,0.00014888,0
57.742,0.00011162,0
57.742,6.9993e-05,0
57.743,2.7695e-05,0
57.743,-1.5274e-05,0
57.744,-5.0187e-05,0
57.744,-7.4022e-05,0
57.745,-8.9128e-05,0
57.745,-9.8024e-05,0
57.746,-0.00010675,0
57.746,-0.00012757,0
57.747,-0.00015224,0
57.747,-0.00015459,0
57.748,-0.00012975,0
57.748,-8.8121e-05,0
57.749,-4.2802e-05,0
57.749,-7.8889e-06,0
57.75,1.0575e-05,0
57.75,2.1149e-05,0
57.751,3.2059e-05,0
57.751,4.5487e-05,0
57.752,5.0019e-05,0
57.752,3.1724e-05,0
57.753,1.1749e-06,0
57.754,-2.266e-05,0
57.754,-2.9038e-05,0
57.755,-1.7121e-05,0
57.755,1.0071e-06,0
57.756,1.6785e-05,0
57.756,3.1388e-05,0
57.757,4.6494e-05,0
57.757,6.1601e-05,0
57.758,7.8218e-05,0
57.758,9.6513e-05,0
57.759,0.00011263,0
57.759,0.00012001,0
57.76,0.00011766,0
57.76,0.00010994,0
57.761,0.0001044,0
57.761,0.00010356,0
57.762,0.00011699,0
57.762,0.00014049,0
57.763,0.00014704,0
57.763,0.00012303,0
57.764,8.2414e-05,0
57.764,4.2802e-05,0
57.765,1.0071e-05,0
57.765,-1.2924e-05,0
57.766,-2.182e-05,0
57.767,-1.8967e-05,0
57.767,-1.3931e-05,0
57.768,-1.8967e-05,0
57.768,-3.4745e-05,0
57.769,-4.3977e-05,0
57.769,-4.3137e-05,0
57.77,-4.8676e-05,0
57.77,-5.9922e-05,0
57.771,-6.0929e-05,0
57.771,-5.1194e-05,0
57.772,-4.448e-05,0
57.772,-3.7934e-05,0
57.773,-2.2324e-05,0
57.773,-6.0426e-06,0
57.774,5.539e-06,0
57.774,2.3331e-05,0
57.775,4.3809e-05,0
57.775,5.388e-05,0
57.776,4.683e-05,0
57.776,2.7024e-05,0
57.777,2.5177e-06,0
57.777,-2.9206e-05,0
57.778,-5.623e-05,0
57.778,-5.2873e-05,0
57.779,-1.9638e-05,0
57.779,1.8463e-05,0
57.78,4.3305e-05,0
57.781,6.0258e-05,0
57.781,9.0303e-05,0
57.782,0.00013545,0
57.782,0.00018782,0
57.783,0.00023952,0
57.783,0.00027477,0
57.784,0.00028031,0
57.784,0.0002454,0
57.785,0.00017624,0
57.785,9.6178e-05,0
57.786,2.0645e-05,0
57.786,-4.448e-05,0
57.787,-8.5435e-05,0
57.787,-9.3492e-05,0
57.788,-9.0135e-05,0
57.788,-9.5338e-05,0
57.789,-0.00010423,0
57.789,-0.00012253,0
57.79,-0.00015392,0
57.79,-0.00017003,0
57.791,-0.00015341,0
57.791,-0.00012169,0
57.792,-8.9799e-05,0
57.792,-5.2033e-05,0
57.793,-7.8889e-06,0
57.794,2.7863e-05,0
57.794,4.5151e-05,0
57.795,4.062e-05,0
57.795,2.1988e-05,0
57.796,9.2317e-06,0
57.796,-5.0355e-07,0
57.797,-1.8967e-05,0
57.797,-3.8605e-05,0
57.798,-4.3137e-05,0
57.798,-2.6856e-05,0
57.799,-5.0355e-07,0
57.799,2.3331e-05,0
57.8,4.3137e-05,0
57.8,6.5293e-05,0
57.801,8.7617e-05,0
57.801,9.9535e-05,0
57.802,9.6513e-05,0
57.802,8.0064e-05,0
57.803,5.9922e-05,0
57.803,4.5991e-05,0
57.804,4.1794e-05,0
57.804,4.7333e-05,0
57.805,6.7811e-05,0
57.805,9.9702e-05,0
57.806,0.00012102,0
57.806,0.00012874,0
57.807,0.00014133,0
57.808,0.00016483,0
57.808,0.00018413,0
57.809,0.00017876,0
57.809,0.00014754,0
57.81,0.00010239,0
57.81,4.2802e-05,0
57.811,-3.0213e-05,0
57.811,-9.7688e-05,0
57.812,-0.00013361,0
57.812,-0.0001373,0
57.813,-0.0001331,0
57.813,-0.0001321,0
57.814,-0.00012001,0
57.814,-9.3828e-05,0
57.815,-6.9993e-05,0
57.815,-5.7908e-05,0
57.816,-4.8844e-05,0
57.816,-3.8605e-05,0
57.817,-2.8031e-05,0
57.817,-1.4939e-05,0
57.818,-1.3428e-06,0
57.818,1.1246e-05,0
57.819,2.3163e-05,0
57.819,3.9109e-05,0
57.82,5.8915e-05,0
57.821,7.6707e-05,0
57.821,8.3757e-05,0
57.822,7.5029e-05,0
57.822,6.2776e-05,0
57.823,5.4047e-05,0
57.823,4.5487e-05,0
57.824,3.5416e-05,0
57.824,2.501e-05,0
57.825,1.1246e-05,0
57.825,1.6785e-07,0
57.826,-1.0071e-06,0
57.826,-1.5106e-06,0
57.827,-1.326e-05,0
57.827,-2.2324e-05,0
57.828,-1.4603e-05,0
57.828,1.5106e-06,0
57.829,8.2246e-06,0
57.829,1.6785e-06,0
57.83,-2.8534e-06,0
57.83,9.5674e-06,0
57.831,2.6688e-05,0
57.831,3.5752e-05,0
57.832,3.8102e-05,0
57.832,4.0955e-05,0
57.833,4.213e-05,0
57.833,3.4073e-05,0
57.834,1.9135e-05,0
57.835,4.1962e-06,0
57.835,-1.8463e-06,0
57.836,1.5274e-05,0
57.836,4.1794e-05,0
57.837,5.2537e-05,0
57.837,4.8173e-05,0
57.838,4.8676e-05,0
57.838,5.4887e-05,0
57.839,6.4622e-05,0
57.839,8.1743e-05,0
57.84,9.5842e-05,0
57.84,9.0471e-05,0
57.841,6.009e-05,0
57.841,3.3738e-05,0
57.842,3.8773e-05,0
57.842,6.1097e-05,0
57.843,7.5532e-05,0
57.843,6.9657e-05,0
57.844,4.1794e-05,0
57.844,6.8818e-06,0
57.845,-1.5946e-05,0
57.845,-2.3331e-05,0
57.846,-2.1317e-05,0
57.846,-1.5106e-06,0
57.847,2.9374e-05,0
57.847,4.1459e-05,0
57.848,2.2995e-05,0
57.849,-1.4939e-05,0
57.849,-4.9851e-05,0
57.85,-6.7811e-05,0
57.85,-7.4022e-05,0
57.851,-8.2078e-05,0
57.851,-8.3421e-05,0
57.852,-6.4622e-05,0
57.852,-3.7095e-05,0
57.853,-1.6281e-05,0
57.853,-4.6998e-06,0
57.854,1.6785e-06,0
57.854,6.5461e-06,0
57.855,9.3996e-06,0
57.855,2.031e-05,0
57.856,5.0187e-05,0
57.856,9.1478e-05,0
57.857,0.0001274,0
57.857,0.00014469,0
57.858,0.0001472,0
57.858,0.00014015,0
57.859,0.00012505,0
57.859,0.0001086,0
57.86,9.2485e-05,0
57.86,6.5629e-05,0
57.861,2.7695e-05,0
57.862,-6.8818e-06,0
57.862,-3.978e-05,0
57.863,-5.9251e-05,0
57.863,-4.9348e-05,0
57.864,-2.3331e-05,0
57.864,-1.3764e-05,0
57.865,-3.0381e-05,0
57.865,-5.1865e-05,0
57.866,-5.8747e-05,0
57.866,-6.7979e-05,0
57.867,-8.1407e-05,0
57.867,-7.1672e-05,0
57.868,-3.3738e-05,0
57.868,1.0575e-05,0
57.869,3.5248e-05,0
57.869,3.7095e-05,0
57.87,3.1724e-05,0
57.87,2.182e-05,0
57.871,5.2033e-06,0
57.871,-1.2589e-05,0
57.872,-2.6017e-05,0
57.872,-3.3738e-05,0
57.873,-3.4913e-05,0
57.873,-3.2059e-05,0
57.874,-1.9135e-05,0
57.874,1.1582e-05,0
57.875,5.4887e-05,0
57.876,9.5674e-05,0
57.876,0.00012538,0
57.877,0.00013075,0
57.877,0.00011162,0
57.878,8.5603e-05,0
57.878,7.3182e-05,0
57.879,7.1504e-05,0
57.879,6.3447e-05,0
57.88,4.4144e-05,0
57.88,1.5946e-05,0
57.881,-1.3931e-05,0
57.881,-2.5681e-05,0
57.882,-6.8818e-06,0
57.882,3.1388e-05,0
57.883,6.6133e-05,0
57.883,9.5003e-05,0
57.884,0.00010658,0
57.884,8.7449e-05,0
57.885,5.2201e-05,0
57.885,3.2059e-05,0
57.886,4.7837e-05,0
57.886,0.00010457,0
57.887,0.00018296,0
57.887,0.00025547,0
57.888,0.00029575,0
57.889,0.00026571,0
57.889,0.00015946,0
57.89,2.501e-05,0
57.89,-8.426e-05,0
57.891,-0.00016063,0
57.891,-0.00021501,0
57.892,-0.00023465,0
57.892,-0.00021804,0
57.893,-0.00019353,0
57.893,-0.00017775,0
57.894,-0.0001566,0
57.894,-0.00012605,0
57.895,-0.00010105,0
57.895,-8.6107e-05,0
57.896,-7.9057e-05,0
57.896,-7.9728e-05,0
57.897,-7.2007e-05,0
57.897,-4.8508e-05,0
57.898,-2.5345e-05,0
57.898,-2.2995e-05,0
57.899,-3.0884e-05,0
57.899,-1.9638e-05,0
57.9,1.4435e-05,0
57.9,5.3376e-05,0
57.901,8.0232e-05,0
57.901,8.5771e-05,0
57.902,7.6371e-05,0
57.903,6.5629e-05,0
57.903,6.0929e-05,0
57.904,5.2201e-05,0
57.904,3.1388e-05,0
57.905,6.5461e-06,0
57.905,-1.6449e-05,0
57.906,-3.0716e-05,0
57.906,-2.2995e-05,0
57.907,8.7282e-06,0
57.907,4.4816e-05,0
57.908,6.8315e-05,0
57.908,8.3085e-05,0
57.909,9.0135e-05,0
57.909,8.1743e-05,0
57.91,5.8579e-05,0
57.91,3.3402e-05,0
57.911,1.3596e-05,0
57.911,1.6785e-07,0
57.912,-1.5106e-06,0
57.912,1.1414e-05,0
57.913,3.1388e-05,0
57.913,5.4719e-05,0
57.914,7.9393e-05,0
57.914,9.5338e-05,0
57.915,9.8695e-05,0
57.916,9.6513e-05,0
57.916,9.4835e-05,0
57.917,9.0303e-05,0
57.917,8.0735e-05,0
57.918,7.1336e-05,0
57.918,6.5293e-05,0
57.919,6.63e-05,0
57.919,7.805e-05,0
57.92,9.4499e-05,0
57.92,0.00010826,0
57.921,0.00011716,0
57.921,0.00011984,0
57.922,0.00011263,0
57.922,9.601e-05,0
57.923,7.7379e-05,0
57.923,6.4286e-05,0
57.924,6.0929e-05,0
57.924,6.5629e-05,0
57.925,6.865e-05,0
57.925,6.63e-05,0
57.926,5.9083e-05,0
57.926,4.5151e-05,0
57.927,2.4338e-05,0
57.927,0,0
57.928,-2.9709e-05,0
57.928,-6.63e-05,0
57.929,-0.00010423,0
57.93,-0.00013411,0
57.93,-0.00015744,0
57.931,-0.00017742,0
57.931,-0.00017809,0
57.932,-0.00014989,0
57.932,-0.00010256,0
57.933,-5.8579e-05,0
57.933,-2.2828e-05,0
57.934,1.5442e-05,0
57.934,5.1865e-05,0
57.935,6.8315e-05,0
57.935,6.2608e-05,0
57.936,6.5965e-05,0
57.936,9.987e-05,0
57.937,0.0001462,0
57.937,0.00016667,0
57.938,0.00015425,0
57.938,0.00013143,0
57.939,0.00010457,0
57.939,6.8315e-05,0
57.94,2.5681e-05,0
57.94,-8.896e-06,0
57.941,-1.326e-05,0
57.941,1.796e-05,0
57.942,5.3544e-05,0
57.943,5.6901e-05,0
57.943,2.4674e-05,0
57.944,-1.4939e-05,0
57.944,-4.1123e-05,0
57.945,-4.5823e-05,0
57.945,-2.501e-05,0
57.946,5.539e-06,0
57.946,2.501e-05,0
57.947,2.9709e-05,0
57.947,1.0575e-05,0
57.948,-2.5345e-05,0
57.948,-4.7669e-05,0
57.949,-6.0761e-05,0
57.949,-8.3421e-05,0
57.95,-0.00011582,0
57.95,-0.00015123,0
57.951,-0.00018077,0
57.951,-0.00018346,0
57.952,-0.00016483,0
57.952,-0.00014754,0
57.953,-0.00013663,0
57.953,-0.00012253,0
57.954,-9.4163e-05,0
57.954,-5.4047e-05,0
57.955,-1.3596e-05,0
57.956,1.5946e-05,0
57.956,2.8702e-05,0
57.957,2.9206e-05,0
57.957,3.5248e-05,0
57.958,5.8747e-05,0
57.958,8.1743e-05,0
57.959,9.1981e-05,0
57.959,9.2317e-05,0
57.96,8.2414e-05,0
57.96,6.7643e-05,0
57.961,5.6901e-05,0
57.961,5.4047e-05,0
57.962,5.8579e-05,0
57.962,7.1336e-05,0
57.963,8.6275e-05,0
57.963,9.6513e-05,0
57.964,0.00010054,0
57.964,9.9199e-05,0
57.965,9.6345e-05,0
57.965,9.9702e-05,0
57.966,0.00011296,0
57.966,0.00012471,0
57.967,0.00013176,0
57.967,0.00013747,0
57.968,0.00013848,0
57.968,0.00013478,0
57.969,0.0001326,0
57.97,0.00013143,0
57.97,0.00013042,0
57.971,0.00013008,0
57.971,0.0001368,0
57.972,0.00015358,0
57.972,0.00015996,0
57.973,0.00014284,0
57.973,0.00010222,0
57.974,5.4551e-05,0
57.974,2.4674e-05,0
57.975,2.0478e-05,0
57.975,2.031e-05,0
57.976,1.6785e-07,0
57.976,-4.5823e-05,0
57.977,-0.00011498,0
57.977,-0.00018547,0
57.978,-0.00022257,0
57.978,-0.00021569,0
57.979,-0.00018984,0
57.979,-0.0001707,0
57.98,-0.00015576,0
57.98,-0.00013143,0
57.981,-8.8457e-05,0
57.981,-3.592e-05,0
57.982,7.3854e-06,0
57.983,3.4073e-05,0
57.983,5.3208e-05,0
57.984,7.1e-05,0
57.984,9.5171e-05,0
57.985,0.00014083,0
57.985,0.00019001,0
57.986,0.00020427,0
57.986,0.00016768,0
57.987,9.8192e-05,0
57.987,3.8437e-05,0
57.988,1.9806e-05,0
57.988,1.9303e-05,0
57.989,-9.3996e-06,0
57.989,-7.1672e-05,0
57.99,-0.00011766,0
57.99,-0.00011095,0
57.991,-6.0258e-05,0
57.991,1.1749e-06,0
57.992,4.213e-05,0
57.992,5.4887e-05,0
57.993,5.4215e-05,0
57.993,5.0019e-05,0
57.994,4.1962e-05,0
57.994,3.9445e-05,0
57.995,4.6662e-05,0
57.995,4.2466e-05,0
57.996,6.3783e-06,0
57.997,-5.3376e-05,0
57.997,-0.00011464,0
57.998,-0.0001514,0
57.998,-0.00015711,0
57.999,-0.00015274,0
57.999,-0.00015073,0
58,-0.00014553,0
58,-0.00012941,0
58.001,-0.00010491,0
58.001,-7.4861e-05,0
58.002,-4.0452e-05,0
58.002,-9.3996e-06,0
58.003,5.8747e-06,0
58.003,8.2246e-06,0
58.004,1.6617e-05,0
58.004,3.8941e-05,0
58.005,6.7308e-05,0
58.005,8.9799e-05,0
58.006,0.00010658,0
58.006,0.00012253,0
58.007,0.00013109,0
58.007,0.00012773,0
58.008,0.00011363,0
58.008,9.4835e-05,0
58.009,8.4428e-05,0
58.01,8.4932e-05,0
58.01,8.1071e-05,0
58.011,7.5532e-05,0
58.011,8.51e-05,0
58.012,0.00010054,0
58.012,0.00010709,0
58.013,0.00010491,0
58.013,0.00012639,0
58.014,0.00019185,0
58.014,0.00024623,0
58.015,0.00023986,0
58.015,0.00017977,0
58.016,0.00010088,0
58.016,3.6255e-05,0
58.017,-1.0071e-06,0
58.017,-1.4435e-05,0
58.018,-1.3931e-05,0
58.018,-8.0568e-06,0
58.019,-5.0355e-06,0
58.019,-9.5674e-06,0
58.02,-2.3667e-05,0
58.02,-5.069e-05,0
58.021,-9.0471e-05,0
58.021,-0.00013713,0
58.022,-0.00016181,0
58.022,-0.00013243,0
58.023,-7.6036e-05,0
58.024,-2.7695e-05,0
58.024,7.0497e-06,0
58.025,2.5345e-05,0
58.025,2.0645e-05,0
58.026,1.1749e-06,0
58.026,-1.4435e-05,0
58.027,-2.0478e-05,0
58.027,-2.1149e-05,0
58.028,-1.8967e-05,0
58.028,-1.326e-05,0
58.029,-5.0355e-06,0
58.029,-5.8747e-06,0
58.03,-1.5946e-05,0
58.03,-2.0142e-05,0
58.031,-1.2757e-05,0
58.031,-4.8676e-06,0
58.032,3.8605e-06,0
58.032,2.2995e-05,0
58.033,4.2466e-05,0
58.033,4.683e-05,0
58.034,4.5823e-05,0
58.034,4.8173e-05,0
58.035,4.6159e-05,0
58.035,4.1459e-05,0
58.036,4.0787e-05,0
58.036,3.6759e-05,0
58.037,2.5345e-05,0
58.038,1.3428e-05,0
58.038,1.1917e-05,0
58.039,2.8702e-05,0
58.039,6.2776e-05,0
58.04,9.6513e-05,0
58.04,0.00011179,0
58.041,0.00010625,0
58.041,8.9464e-05,0
58.042,6.6972e-05,0
58.042,4.8844e-05,0
58.043,4.8005e-05,0
58.043,6.244e-05,0
58.044,7.8386e-05,0
58.044,8.9464e-05,0
58.045,9.5003e-05,0
58.045,9.9199e-05,0
58.046,0.00010222,0
58.046,9.6513e-05,0
58.047,8.0064e-05,0
58.047,5.3544e-05,0
58.048,1.1246e-05,0
58.048,-3.8773e-05,0
58.049,-7.4525e-05,0
58.049,-8.3589e-05,0
58.05,-7.2679e-05,0
58.051,-5.8915e-05,0
58.051,-4.7501e-05,0
58.052,-3.0884e-05,0
58.052,-5.539e-06,0
58.053,2.1988e-05,0
58.053,4.1794e-05,0
58.054,5.1194e-05,0
58.054,5.7572e-05,0
58.055,7.1504e-05,0
58.055,0.00010088,0
58.056,0.00013478,0
58.056,0.00015828,0
58.057,0.00016197,0
58.057,0.00014351,0
58.058,0.00012068,0
58.058,9.9199e-05,0
58.059,6.8315e-05,0
58.059,2.8367e-05,0
58.06,-1.091e-05,0
58.06,-5.6733e-05,0
58.061,-0.00012253,0
58.061,-0.00017943,0
58.062,-0.00020075,0
58.062,-0.00019689,0
58.063,-0.00017607,0
58.063,-0.0001462,0
58.064,-0.00012303,0
58.065,-0.00011749,0
58.065,-0.00011749,0
58.066,-0.00010927,0
58.066,-8.9296e-05,0
58.067,-5.5222e-05,0
58.067,-1.5946e-05,0
58.068,6.3783e-06,0
58.068,3.1891e-06,0
58.069,-1.091e-05,0
58.069,-1.6953e-05,0
58.07,-1.2253e-05,0
58.07,-1.0071e-06,0
58.071,1.5274e-05,0
58.071,2.7024e-05,0
58.072,2.6017e-05,0
58.072,1.8296e-05,0
58.073,1.5274e-05,0
58.073,2.2995e-05,0
58.074,3.5248e-05,0
58.074,4.3977e-05,0
58.075,4.918e-05,0
58.075,4.9851e-05,0
58.076,4.4144e-05,0
58.076,3.8941e-05,0
58.077,5.8915e-05,0
58.078,0.0001227,0
58.078,0.00020847,0
58.079,0.00026906,0
58.079,0.00027376,0
58.08,0.00023398,0
58.08,0.0001754,0
58.081,0.00011061,0
58.081,5.388e-05,0
58.082,1.3764e-05,0
58.082,-2.1317e-05,0
58.083,-6.8986e-05,0
58.083,-0.00012471,0
58.084,-0.00016936,0
58.084,-0.00018732,0
58.085,-0.00016936,0
58.085,-0.00012471,0
58.086,-7.2679e-05,0
58.086,-2.5849e-05,0
58.087,1.6281e-05,0
58.087,4.8844e-05,0
58.088,6.8315e-05,0
58.088,8.04e-05,0
58.089,8.896e-05,0
58.089,8.9799e-05,0
58.09,7.8721e-05,0
58.09,5.9754e-05,0
58.091,4.3137e-05,0
58.092,3.508e-05,0
58.092,2.8199e-05,0
58.093,1.8967e-05,0
58.093,1.0575e-05,0
58.094,5.7069e-06,0
58.094,5.0355e-07,0
58.095,-5.539e-06,0
58.095,-2.6856e-06,0
58.096,1.0071e-05,0
58.096,2.4674e-05,0
58.097,3.0045e-05,0
58.097,2.652e-05,0
58.098,2.8031e-05,0
58.098,3.8773e-05,0
58.099,4.3977e-05,0
58.099,4.3809e-05,0
58.1,5.2873e-05,0
58.1,7.5029e-05,0
58.101,9.8527e-05,0
58.101,0.00011263,0
58.102,0.00011531,0
58.102,0.00010793,0
58.103,9.5506e-05,0
58.103,7.3686e-05,0
58.104,4.0787e-05,0
58.105,7.2175e-06,0
58.105,-2.2324e-05,0
58.106,-4.3137e-05,0
58.106,-5.2873e-05,0
58.107,-5.1362e-05,0
58.107,-2.8702e-05,0
58.108,1.2253e-05,0
58.108,6.009e-05,0
58.109,0.00010457,0
58.109,0.00013445,0
58.11,0.0001472,0
58.11,0.00014821,0
58.111,0.0001373,0
58.111,0.00011095,0
58.112,7.1336e-05,0
58.112,3.122e-05,0
58.113,0,0
58.113,-2.0645e-05,0
58.114,-3.7095e-05,0
58.114,-6.3279e-05,0
58.115,-0.00010625,0
58.115,-0.00015761,0
58.116,-0.00020394,0
58.116,-0.0002219,0
58.117,-0.00020092,0
58.117,-0.00015543,0
58.118,-9.4163e-05,0
58.119,-2.8534e-05,0
58.119,1.2253e-05,0
58.12,1.3596e-05,0
58.12,5.0355e-06,0
58.121,2.1653e-05,0
58.121,6.63e-05,0
58.122,0.00011061,0
58.122,0.00012757,0
58.123,0.00011263,0
58.123,7.6371e-05,0
58.124,2.9038e-05,0
58.124,-1.0575e-05,0
58.125,-2.5681e-05,0
58.125,-1.8296e-05,0
58.126,-7.7211e-06,0
58.126,-1.1582e-05,0
58.127,-1.9638e-05,0
58.127,-5.7069e-06,0
58.128,2.6017e-05,0
58.128,5.623e-05,0
58.129,9.7856e-05,0
58.129,0.00017809,0
58.13,0.00026285,0
58.13,0.00028266,0
58.131,0.00022257,0
58.132,0.00011565,0
58.132,7.2175e-06,0
58.133,-7.3686e-05,0
58.133,-0.00012438,0
58.134,-0.00016281,0
58.134,-0.00019084,0
58.135,-0.00016147,0
58.135,-6.5293e-05,0
58.136,3.1891e-05,0
58.136,6.63e-05,0
58.137,4.4984e-05,0
58.137,1.4435e-05,0
58.138,4.5319e-06,0
58.138,1.1917e-05,0
58.139,1.5106e-05,0
58.139,1.3764e-05,0
58.14,2.9374e-05,0
58.14,4.9516e-05,0
58.141,4.8005e-05,0
58.141,3.0213e-05,0
58.142,1.1749e-05,0
58.142,0,0
58.143,-3.8605e-06,0
58.143,-2.0142e-06,0
58.144,-7.3854e-06,0
58.145,-2.4338e-05,0
58.145,-4.0452e-05,0
58.146,-5.5222e-05,0
58.146,-7.3182e-05,0
58.147,-8.1071e-05,0
58.147,-6.5126e-05,0
58.148,-3.4577e-05,0
58.148,-5.0355e-06,0
58.149,1.5946e-05,0
58.149,2.8367e-05,0
58.15,3.6255e-05,0
58.15,3.9109e-05,0
58.151,4.0787e-05,0
58.151,4.8508e-05,0
58.152,6.009e-05,0
58.152,7.0161e-05,0
58.153,7.9057e-05,0
58.153,9.1142e-05,0
58.154,0.00011565,0
58.154,0.00014855,0
58.155,0.00017305,0
58.155,0.00017574,0
58.156,0.00015526,0
58.156,0.00011498,0
58.157,7.7714e-05,0
58.157,7.3686e-05,0
58.158,9.1814e-05,0
58.159,9.3996e-05,0
58.159,5.7572e-05,0
58.16,6.0426e-06,0
58.16,-2.0813e-05,0
58.161,-2.4002e-05,0
58.161,-2.5513e-05,0
58.162,-3.0213e-05,0
58.162,-4.0452e-05,0
58.163,-5.8412e-05,0
58.163,-7.4189e-05,0
58.164,-7.5364e-05,0
58.164,-6.2943e-05,0
58.165,-4.7166e-05,0
58.165,-3.3066e-05,0
58.166,-2.4002e-05,0
58.166,-1.2589e-05,0
58.167,6.8818e-06,0
58.167,4.062e-05,0
58.168,8.5771e-05,0
58.168,0.00013042,0
58.169,0.0001566,0
58.169,0.00015476,0
58.17,0.00011867,0
58.17,7.2343e-05,0
58.171,4.0116e-05,0
58.172,1.1917e-05,0
58.172,-2.9038e-05,0
58.173,-6.6468e-05,0
58.173,-9.0471e-05,0
58.174,-0.00010591,0
58.174,-0.0001044,0
58.175,-9.0806e-05,0
58.175,-8.0735e-05,0
58.176,-7.5029e-05,0
58.176,-6.6804e-05,0
58.177,-5.6565e-05,0
58.177,-4.3137e-05,0
58.178,-2.0981e-05,0
58.178,1.0239e-05,0
58.179,4.5823e-05,0
58.179,8.04e-05,0
58.18,0.00010558,0
58.18,0.00011431,0
58.181,0.00011498,0
58.181,0.00012337,0
58.182,0.0001415,0
58.182,0.0001514,0
58.183,0.0001321,0
58.183,8.3757e-05,0
58.184,2.9709e-05,0
58.184,-6.8818e-06,0
58.185,-2.1653e-05,0
58.186,-2.031e-05,0
58.186,-1.3596e-05,0
58.187,-1.1582e-05,0
58.187,-1.091e-05,0
58.188,3.1891e-06,0
58.188,2.4674e-05,0
58.189,3.2563e-05,0
58.189,2.0645e-05,0
58.19,-4.1962e-06,0
58.19,-4.1291e-05,0
58.191,-8.51e-05,0
58.191,-0.00011833,0
58.192,-0.00012454,0
58.192,-0.00010877,0
58.193,-8.2582e-05,0
58.193,-5.9251e-05,0
58.194,-4.3641e-05,0
58.194,-2.9374e-05,0
58.195,-1.1246e-05,0
58.195,8.7282e-06,0
58.196,2.5177e-05,0
58.196,3.3402e-05,0
58.197,3.8773e-05,0
58.197,5.3376e-05,0
58.198,8.2078e-05,0
58.199,0.00010927,0
58.199,0.00012001,0
58.2,0.00011917,0
58.2,0.00012219,0
58.201,0.00013411,0
58.201,0.00015526,0
58.202,0.00017809,0
58.202,0.00018447,0
58.203,0.00016164,0
58.203,0.00012203,0
58.204,7.8386e-05,0
58.204,2.8702e-05,0
58.205,-2.4842e-05,0
58.205,-7.1336e-05,0
58.206,-9.836e-05,0
58.206,-0.00011279,0
58.207,-0.00012908,0
58.207,-0.00014318,0
58.208,-0.0001331,0
58.208,-0.00010054,0
58.209,-6.6468e-05,0
58.209,-4.0787e-05,0
58.21,-2.3331e-05,0
58.21,-1.091e-05,0
58.211,3.8605e-06,0
58.211,1.9303e-05,0
58.212,3.0716e-05,0
58.213,3.6591e-05,0
58.213,4.1123e-05,0
58.214,4.683e-05,0
58.214,5.2537e-05,0
58.215,5.7572e-05,0
58.215,5.6901e-05,0
58.216,5.2201e-05,0
58.216,5.153e-05,0
58.217,5.5558e-05,0
58.217,6.2272e-05,0
58.218,7.0665e-05,0
58.218,7.8386e-05,0
58.219,8.3085e-05,0
58.219,8.1743e-05,0
58.22,7.6036e-05,0
58.22,6.6972e-05,0
58.221,5.7908e-05,0
58.221,5.2033e-05,0
58.222,4.3809e-05,0
58.222,3.0381e-05,0
58.223,1.6114e-05,0
58.223,8.3925e-07,0
58.224,-8.0568e-06,0
58.224,-3.357e-06,0
58.225,1.5946e-05,0
58.225,4.8844e-05,0
58.226,9.2821e-05,0
58.227,0.00014015,0
58.227,0.00017557,0
58.228,0.0001937,0
58.228,0.00019554,0
58.229,0.00017641,0
58.229,0.0001368,0
58.23,7.7714e-05,0
58.23,1.1917e-05,0
58.231,-3.4745e-05,0
58.231,-5.304e-05,0
58.232,-5.0858e-05,0
58.232,-4.3137e-05,0
58.233,-4.2466e-05,0
58.233,-4.3137e-05,0
58.234,-3.4913e-05,0
58.234,-1.326e-05,0
58.235,1.2589e-05,0
58.235,1.796e-05,0
58.236,-8.3925e-07,0
58.236,-3.0045e-05,0
58.237,-5.7404e-05,0
58.237,-7.6036e-05,0
58.238,-7.7379e-05,0
58.238,-6.0929e-05,0
58.239,-3.7095e-05,0
58.24,-2.6017e-05,0
58.24,-4.8844e-05,0
58.241,-9.0806e-05,0
58.241,-0.00011011,0
58.242,-8.8457e-05,0
58.242,-4.3809e-05,0
58.243,-1.0407e-05,0
58.243,-1.1917e-05,0
58.244,-2.8702e-05,0
58.244,-2.8199e-05,0
58.245,-1.2085e-05,0
58.245,1.1749e-06,0
58.246,1.2589e-05,0
58.246,1.7792e-05,0
58.247,1.2253e-05,0
58.247,-6.0426e-06,0
58.248,-2.5177e-05,0
58.248,-2.1317e-05,0
58.249,6.714e-07,0
58.249,1.5106e-05,0
58.25,2.182e-06,0
58.25,-2.9877e-05,0
58.251,-4.8676e-05,0
58.251,-4.213e-05,0
58.252,-2.4674e-05,0
58.252,-8.2246e-06,0
58.253,7.8889e-06,0
58.254,2.4674e-05,0
58.254,2.9709e-05,0
58.255,1.9974e-05,0
58.255,6.8818e-06,0
58.256,-2.8534e-06,0
58.256,-1.3931e-05,0
58.257,-2.2995e-05,0
58.257,-1.6617e-05,0
58.258,2.182e-06,0
58.258,1.9303e-05,0
58.259,3.122e-05,0
58.259,4.0452e-05,0
58.26,4.7333e-05,0
58.26,5.2705e-05,0
58.261,6.0258e-05,0
58.261,7.0329e-05,0
58.262,7.9057e-05,0
58.262,8.3421e-05,0
58.263,8.2414e-05,0
58.263,7.9057e-05,0
58.264,7.6204e-05,0
58.264,7.1e-05,0
58.265,6.5461e-05,0
58.265,6.9993e-05,0
58.266,8.5603e-05,0
58.267,0.00010155,0
58.267,0.00010877,0
58.268,0.00010692,0
58.268,0.00010323,0
58.269,0.00010088,0
58.269,9.6513e-05,0
58.27,8.7617e-05,0
58.27,7.4693e-05,0
58.271,6.1265e-05,0
58.271,5.2201e-05,0
58.272,5.3544e-05,0
58.272,6.63e-05,0
58.273,8.4092e-05,0
58.273,9.8527e-05,0
58.274,0.00010642,0
58.274,0.00010726,0
58.275,9.8024e-05,0
58.275,8.0064e-05,0
58.276,6.0594e-05,0
58.276,4.2298e-05,0
58.277,2.1317e-05,0
58.277,-8.7282e-06,0
58.278,-4.683e-05,0
58.278,-8.2246e-05,0
58.279,-0.00010726,0
58.279,-0.00011699,0
58.28,-0.00010642,0
58.281,-7.4189e-05,0
58.281,-3.7766e-05,0
58.282,-1.5274e-05,0
58.282,-1.1917e-05,0
58.283,-1.8463e-05,0
58.283,-2.2156e-05,0
58.284,-1.7456e-05,0
58.284,-6.8818e-06,0
58.285,1.3428e-06,0
58.285,1.6785e-06,0
58.286,-8.896e-06,0
58.286,-2.4506e-05,0
58.287,-3.5248e-05,0
58.287,-3.5752e-05,0
58.288,-2.4506e-05,0
58.288,-9.9031e-06,0
58.289,-5.7069e-06,0
58.289,-1.6953e-05,0
58.29,-3.0381e-05,0
58.29,-3.0213e-05,0
58.291,-1.7121e-05,0
58.291,-3.8605e-06,0
58.292,6.8818e-06,0
58.292,2.1317e-05,0
58.293,4.5823e-05,0
58.294,7.5029e-05,0
58.294,9.5171e-05,0
58.295,0.00010306,0
58.295,0.00011531,0
58.296,0.00013881,0
58.296,0.00016265,0
58.297,0.00017305,0
58.297,0.00016231,0
58.298,0.00013143,0
58.298,8.5435e-05,0
58.299,3.3738e-05,0
58.299,-2.8534e-06,0
58.3,-1.6114e-05,0
58.3,-1.9471e-05,0
58.301,-2.0645e-05,0
58.301,-2.1653e-05,0
58.302,-2.1653e-05,0
58.302,-2.266e-05,0
58.303,-2.501e-05,0
58.303,-2.3331e-05,0
58.304,-1.091e-05,0
58.304,8.0568e-06,0
58.305,9.0639e-06,0
58.305,-7.8889e-06,0
58.306,-2.9709e-05,0
58.306,-4.7501e-05,0
58.307,-5.4551e-05,0
58.308,-4.8508e-05,0
58.308,-2.417e-05,0
58.309,5.539e-06,0
58.309,2.3667e-05,0
58.31,1.6953e-05,0
58.31,-1.9471e-05,0
58.311,-6.4118e-05,0
58.311,-9.0806e-05,0
58.312,-9.0471e-05,0
58.312,-7.4861e-05,0
58.313,-6.7308e-05,0
58.313,-6.865e-05,0
58.314,-6.4958e-05,0
58.314,-5.2873e-05,0
58.315,-3.3066e-05,0
58.315,-8.896e-06,0
58.316,1.0575e-05,0
58.316,1.9638e-05,0
58.317,1.9974e-05,0
58.317,2.8031e-05,0
58.318,5.3376e-05,0
58.318,7.8721e-05,0
58.319,8.1071e-05,0
58.319,6.8482e-05,0
58.32,7.3686e-05,0
58.321,9.6513e-05,0
58.321,0.00011464,0
58.322,0.00011565,0
58.322,9.8527e-05,0
58.323,7.1504e-05,0
58.323,4.8844e-05,0
58.324,3.6088e-05,0
58.324,2.8367e-05,0
58.325,2.4002e-05,0
58.325,2.7695e-05,0
58.326,3.7095e-05,0
58.326,5.2705e-05,0
58.327,8.3085e-05,0
58.327,0.00011548,0
58.328,0.00013042,0
58.328,0.00012572,0
58.329,0.00010809,0
58.329,8.4764e-05,0
58.33,6.2104e-05,0
58.33,4.1291e-05,0
58.331,1.7624e-05,0
58.331,-1.1414e-05,0
58.332,-3.9109e-05,0
58.332,-5.2369e-05,0
58.333,-4.3809e-05,0
58.334,-2.1653e-05,0
58.334,-9.2317e-06,0
58.335,-1.2253e-05,0
58.335,-1.5946e-05,0
58.336,-1.7624e-05,0
58.336,-2.5849e-05,0
58.337,-3.7095e-05,0
58.337,-4.3137e-05,0
58.338,-4.6494e-05,0
58.338,-5.388e-05,0
58.339,-4.4816e-05,0
58.339,-3.357e-06,0
58.34,3.6759e-05,0
58.34,5.0187e-05,0
58.341,4.062e-05,0
58.341,1.6617e-05,0
58.342,-4.1962e-06,0
58.342,1.6785e-06,0
58.343,4.2802e-05,0
58.343,9.4163e-05,0
58.344,0.0001274,0
58.344,0.00013848,0
58.345,0.00013378,0
58.345,0.00011666,0
58.346,8.8121e-05,0
58.346,5.1698e-05,0
58.347,1.5274e-05,0
58.348,-1.2421e-05,0
58.348,-3.4409e-05,0
58.349,-5.7404e-05,0
58.349,-7.6204e-05,0
58.35,-7.9728e-05,0
58.35,-6.3447e-05,0
58.351,-3.9109e-05,0
58.351,-1.7624e-05,0
58.352,1.1749e-06,0
58.352,2.1988e-05,0
58.353,3.5248e-05,0
58.353,3.5752e-05,0
58.354,3.2059e-05,0
58.354,3.5752e-05,0
58.355,4.7669e-05,0
58.355,6.7475e-05,0
58.356,9.836e-05,0
58.356,0.000118,0
58.357,0.00010726,0
58.357,8.8792e-05,0
58.358,9.1478e-05,0
58.358,9.7856e-05,0
58.359,8.4764e-05,0
58.359,5.388e-05,0
58.36,1.7792e-05,0
58.361,-1.4099e-05,0
58.361,-4.4984e-05,0
58.362,-8.1239e-05,0
58.362,-0.00010709,0
58.363,-0.00010927,0
58.363,-9.0471e-05,0
58.364,-6.0594e-05,0
58.364,-3.122e-05,0
58.365,-1.8967e-05,0
58.365,-3.4913e-05,0
58.366,-7.0161e-05,0
58.366,-9.4331e-05,0
58.367,-8.3925e-05,0
58.367,-4.4816e-05,0
58.368,1.1749e-06,0
58.368,4.5487e-05,0
58.369,8.3085e-05,0
58.369,0.00010658,0
58.37,0.00011498,0
58.37,0.00010507,0
58.371,8.4428e-05,0
58.371,7.9728e-05,0
58.372,0.00012723,0
58.372,0.00021401,0
58.373,0.00028837,0
58.373,0.0003164,0
58.374,0.00028551,0
58.375,0.00020293,0
58.375,9.2317e-05,0
58.376,-1.1917e-05,0
58.376,-8.7785e-05,0
58.377,-0.00013881,0
58.377,-0.00018715,0
58.378,-0.00023935,0
58.378,-0.00028249,0
58.379,-0.0002976,0
58.379,-0.00027611,0
58.38,-0.00022324,0
58.38,-0.00015862,0
58.381,-0.00010675,0
58.381,-7.57e-05,0
58.382,-4.6998e-05,0
58.382,-1.0575e-05,0
58.383,2.7527e-05,0
58.383,5.6733e-05,0
58.384,7.3182e-05,0
58.384,7.9057e-05,0
58.385,7.8721e-05,0
58.385,7.7043e-05,0
58.386,7.5029e-05,0
58.386,7.1839e-05,0
58.387,6.8986e-05,0
58.388,6.6972e-05,0
58.388,6.2608e-05,0
58.389,5.7404e-05,0
58.389,5.8076e-05,0
58.39,6.6972e-05,0
58.39,7.9561e-05,0
58.391,8.5603e-05,0
58.391,8.51e-05,0
58.392,8.3757e-05,0
58.392,8.04e-05,0
58.393,6.9322e-05,0
58.393,5.4215e-05,0
58.394,4.7166e-05,0
58.394,5.0523e-05,0
58.395,5.9419e-05,0
58.395,7.2343e-05,0
58.396,8.6107e-05,0
58.396,0.00010658,0
58.397,0.00013948,0
58.397,0.00016936,0
58.398,0.00016869,0
58.398,0.0001326,0
58.399,8.1071e-05,0
58.399,3.2898e-05,0
58.4,-1.0239e-05,0
58.4,-4.5319e-05,0
58.401,-7.4189e-05,0
58.402,-0.00010071,0
58.402,-0.00011514,0
58.403,-0.00010574,0
58.403,-7.7714e-05,0
58.404,-4.8844e-05,0
58.404,-2.8702e-05,0
58.405,-1.561e-05,0
58.405,-9.9031e-06,0
58.406,-7.5532e-06,0
58.406,-1.5106e-06,0
58.407,8.2246e-06,0
58.407,1.9974e-05,0
58.408,3.1052e-05,0
58.408,4.1123e-05,0
58.409,4.683e-05,0
58.409,4.8173e-05,0
58.41,5.2033e-05,0
58.41,5.4383e-05,0
58.411,4.683e-05,0
58.411,3.4409e-05,0
58.412,2.5849e-05,0
58.412,2.6017e-05,0
58.413,3.6423e-05,0
58.413,4.8676e-05,0
58.414,5.1865e-05,0
58.414,4.213e-05,0
58.415,2.5345e-05,0
58.416,1.2421e-05,0
58.416,1.0239e-05,0
58.417,2.887e-05,0
58.417,6.5629e-05,0
58.418,0.00010037,0
58.418,0.0001039,0
58.419,6.714e-05,0
58.419,1.5442e-05,0
58.42,-3.1052e-05,0
58.42,-6.3447e-05,0
58.421,-7.4022e-05,0
58.421,-6.6133e-05,0
58.422,-5.0523e-05,0
58.422,-3.5752e-05,0
58.423,-3.1052e-05,0
58.423,-3.3234e-05,0
58.424,-2.1149e-05,0
58.424,2.2828e-05,0
58.425,7.5364e-05,0
58.425,0.00010088,0
58.426,8.2918e-05,0
58.426,3.2059e-05,0
58.427,-2.1653e-05,0
58.427,-4.918e-05,0
58.428,-4.1794e-05,0
58.429,-1.3931e-05,0
58.429,1.326e-05,0
58.43,2.9709e-05,0
58.43,3.3402e-05,0
58.431,2.3499e-05,0
58.431,1.1917e-05,0
58.432,7.8889e-06,0
58.432,3.8605e-06,0
58.433,-9.7353e-06,0
58.433,-3.0213e-05,0
58.434,-5.1865e-05,0
58.434,-7.335e-05,0
58.435,-8.661e-05,0
58.435,-8.3421e-05,0
58.436,-6.3279e-05,0
58.436,-3.6423e-05,0
58.437,-1.1246e-05,0
58.437,1.0407e-05,0
58.438,2.7359e-05,0
58.438,3.6591e-05,0
58.439,4.0116e-05,0
58.439,3.8437e-05,0
58.44,2.8367e-05,0
58.44,2.0645e-05,0
58.441,2.6352e-05,0
58.441,4.1627e-05,0
58.442,5.623e-05,0
58.443,6.6636e-05,0
58.443,7.6036e-05,0
58.444,8.3757e-05,0
58.444,8.9799e-05,0
58.445,9.0974e-05,0
58.445,9.2485e-05,0
58.446,0.00010709,0
58.446,0.00013042,0
58.447,0.00014267,0
58.447,0.00013243,0
58.448,0.00010188,0
58.448,6.5293e-05,0
58.449,4.4648e-05,0
58.449,4.5487e-05,0
58.45,5.4551e-05,0
58.45,5.5894e-05,0
58.451,5.069e-05,0
58.451,5.0019e-05,0
58.452,5.3376e-05,0
58.452,5.0523e-05,0
58.453,3.0549e-05,0
58.453,7.8889e-06,0
58.454,8.3925e-07,0
58.454,1.8463e-06,0
58.455,-3.6927e-06,0
58.456,-2.6688e-05,0
58.456,-5.6062e-05,0
58.457,-7.5029e-05,0
58.457,-7.7043e-05,0
58.458,-6.6636e-05,0
58.458,-5.6397e-05,0
58.459,-5.7237e-05,0
58.459,-6.7811e-05,0
58.46,-7.2679e-05,0
58.46,-6.009e-05,0
58.461,-3.6088e-05,0
58.461,-1.2421e-05,0
58.462,7.8889e-06,0
58.462,2.501e-05,0
58.463,4.1794e-05,0
58.463,5.9586e-05,0
58.464,8.4428e-05,0
58.464,0.00010121,0
58.465,8.5771e-05,0
58.465,3.8437e-05,0
58.466,-7.2175e-06,0
58.466,-3.0716e-05,0
58.467,-3.6088e-05,0
58.467,-3.743e-05,0
58.468,-3.9948e-05,0
58.468,-4.213e-05,0
58.469,-4.3473e-05,0
58.47,-3.6759e-05,0
58.47,-2.3835e-05,0
58.471,-5.539e-06,0
58.471,1.5274e-05,0
58.472,3.2731e-05,0
58.472,4.7166e-05,0
58.473,5.2201e-05,0
58.473,4.448e-05,0
58.474,3.4073e-05,0
58.474,2.2324e-05,0
58.475,1.0239e-05,0
58.475,0,0
58.476,-8.3925e-07,0
58.476,1.326e-05,0
58.477,3.6088e-05,0
58.477,5.7908e-05,0
58.478,7.4357e-05,0
58.478,8.4596e-05,0
58.479,9.5506e-05,0
58.479,0.00011112,0
58.48,0.00011598,0
58.48,0.00010306,0
58.481,9.0806e-05,0
58.481,9.3156e-05,0
58.482,9.0135e-05,0
58.483,7.335e-05,0
58.483,7.3014e-05,0
58.484,0.00010188,0
58.484,0.00013881,0
58.485,0.00015828,0
58.485,0.00014217,0
58.486,9.4163e-05,0
58.486,3.6759e-05,0
58.487,-2.4674e-05,0
58.487,-8.6107e-05,0
58.488,-0.0001279,0
58.488,-0.00013982,0
58.489,-0.00012941,0
58.489,-0.00010944,0
58.49,-8.9128e-05,0
58.49,-8.5267e-05,0
58.491,-0.00010658,0
58.491,-0.00013042,0
58.492,-0.00012102,0
58.492,-8.1071e-05,0
58.493,-4.1291e-05,0
58.493,-1.7624e-05,0
58.494,4.1962e-06,0
58.494,2.6017e-05,0
58.495,3.6423e-05,0
58.495,2.8367e-05,0
58.496,1.7288e-05,0
58.497,1.5946e-05,0
58.497,1.796e-05,0
58.498,1.0575e-05,0
58.498,-7.5532e-06,0
58.499,-3.4745e-05,0
58.499,-5.6565e-05,0
58.5,-5.4047e-05,0
58.5,-2.5345e-05,0
58.501,1.1246e-05,0
58.501,4.2802e-05,0
58.502,7.1672e-05,0
58.502,9.4499e-05,0
58.503,0.00010658,0
58.503,0.00011666,0
58.504,0.00013814,0
58.504,0.00016634,0
58.505,0.00017708,0
58.505,0.00015761,0
58.506,0.00011447,0
58.506,7.0665e-05,0
58.507,4.4816e-05,0
58.507,3.3066e-05,0
58.508,1.8296e-05,0
58.508,-5.2033e-06,0
58.509,-2.8367e-05,0
58.51,-4.062e-05,0
58.51,-4.0787e-05,0
58.511,-3.5416e-05,0
58.511,-3.1724e-05,0
58.512,-3.0716e-05,0
58.512,-3.2395e-05,0
58.513,-3.6759e-05,0
58.513,-3.508e-05,0
58.514,-3.2059e-05,0
58.514,-3.2563e-05,0
58.515,-3.6591e-05,0
58.515,-3.8437e-05,0
58.516,-3.2395e-05,0
58.516,-1.6449e-05,0
58.517,6.5461e-06,0
58.517,3.0045e-05,0
58.518,4.9516e-05,0
58.518,6.3951e-05,0
58.519,7.3854e-05,0
58.519,8.1407e-05,0
58.52,9.0303e-05,0
58.52,9.8863e-05,0
58.521,0.00010289,0
58.521,9.4163e-05,0
58.522,7.7714e-05,0
58.523,6.865e-05,0
58.523,8.1743e-05,0
58.524,0.0001086,0
58.524,0.00012605,0
58.525,0.00012337,0
58.525,0.00010138,0
58.526,6.9322e-05,0
58.526,4.4144e-05,0
58.527,3.2731e-05,0
58.527,3.0045e-05,0
58.528,2.7695e-05,0
58.528,2.4338e-05,0
58.529,1.1582e-05,0
58.529,-8.896e-06,0
58.53,-1.9974e-05,0
58.53,-1.5274e-05,0
58.531,-2.182e-06,0
58.531,1.0239e-05,0
58.532,1.3596e-05,0
58.532,6.3783e-06,0
58.533,-9.0639e-06,0
58.533,-1.8967e-05,0
58.534,-1.9471e-05,0
58.534,-1.3596e-05,0
58.535,0,0
58.535,2.5345e-05,0
58.536,4.9683e-05,0
58.537,5.6565e-05,0
58.537,4.4144e-05,0
58.538,2.4338e-05,0
58.538,3.1891e-06,0
58.539,-1.9638e-05,0
58.539,-3.5752e-05,0
58.54,-3.6927e-05,0
58.54,-3.4913e-05,0
58.541,-4.1794e-05,0
58.541,-5.539e-05,0
58.542,-6.8986e-05,0
58.542,-8.1575e-05,0
58.543,-8.3589e-05,0
58.543,-6.8986e-05,0
58.544,-4.1459e-05,0
58.544,-1.3931e-05,0
58.545,3.5248e-06,0
58.545,1.0407e-05,0
58.546,2.1149e-05,0
58.546,4.3809e-05,0
58.547,6.9657e-05,0
58.547,8.8121e-05,0
58.548,9.9199e-05,0
58.548,9.9199e-05,0
58.549,8.6778e-05,0
58.55,7.1672e-05,0
58.55,5.5558e-05,0
58.551,3.1724e-05,0
58.551,8.5603e-06,0
58.552,-1.3092e-05,0
58.552,-4.5823e-05,0
58.553,-7.2343e-05,0
58.553,-7.0161e-05,0
58.554,-5.2537e-05,0
58.554,-4.0452e-05,0
58.555,-4.3809e-05,0
58.555,-5.7908e-05,0
58.556,-6.9657e-05,0
58.556,-5.8915e-05,0
58.557,-2.8534e-05,0
58.557,9.0639e-06,0
58.558,4.5487e-05,0
58.558,7.0665e-05,0
58.559,8.0735e-05,0
58.559,8.896e-05,0
58.56,0.00010054,0
58.56,0.00010625,0
58.561,0.00010524,0
58.561,0.00010457,0
58.562,0.00010021,0
58.562,8.0735e-05,0
58.563,4.2466e-05,0
58.564,-8.3925e-07,0
58.564,-3.1891e-05,0
58.565,-4.1962e-05,0
58.565,-4.6159e-05,0
58.566,-6.1936e-05,0
58.566,-7.4189e-05,0
58.567,-6.4622e-05,0
58.567,-3.7263e-05,0
58.568,-7.2175e-06,0
58.568,1.9638e-05,0
58.569,4.3305e-05,0
58.569,6.2943e-05,0
58.57,7.3686e-05,0
58.57,7.805e-05,0
58.571,8.1239e-05,0
58.571,8.275e-05,0
58.572,8.5771e-05,0
58.572,9.7353e-05,0
58.573,0.00011934,0
58.573,0.0001425,0
58.574,0.0001561,0
58.574,0.0001603,0
58.575,0.00016567,0
58.575,0.00016063,0
58.576,0.00013075,0
58.577,8.1407e-05,0
58.577,2.2492e-05,0
58.578,-3.8102e-05,0
58.578,-8.9464e-05,0
58.579,-0.00012421,0
58.579,-0.00013999,0
58.58,-0.0001274,0
58.58,-8.5435e-05,0
58.581,-3.7263e-05,0
58.581,-5.2033e-06,0
58.582,8.0568e-06,0
58.582,1.1414e-05,0
58.583,1.0575e-05,0
58.583,1.2757e-05,0
58.584,1.1917e-05,0
58.584,4.5319e-06,0
58.585,-3.8605e-06,0
58.585,-1.5274e-05,0
58.586,-3.2731e-05,0
58.586,-4.2802e-05,0
58.587,-3.1052e-05,0
58.587,-5.7069e-06,0
58.588,1.8463e-05,0
58.588,3.827e-05,0
58.589,5.623e-05,0
58.589,6.3447e-05,0
58.59,5.2873e-05,0
58.591,3.743e-05,0
58.591,2.7863e-05,0
58.592,2.6017e-05,0
58.592,4.1459e-05,0
58.593,7.3686e-05,0
58.593,0.00010172,0
58.594,0.00011363,0
58.594,0.00010692,0
58.595,8.51e-05,0
58.595,5.6733e-05,0
58.596,3.4409e-05,0
58.596,2.501e-05,0
58.597,2.6017e-05,0
58.597,2.7695e-05,0
58.598,2.8702e-05,0
58.598,2.7024e-05,0
58.599,2.7695e-05,0
58.599,3.8773e-05,0
58.6,5.5894e-05,0
58.6,6.1601e-05,0
58.601,5.2705e-05,0
58.601,4.2634e-05,0
58.602,3.5584e-05,0
58.602,2.8702e-05,0
58.603,1.6281e-05,0
58.603,0,0
58.604,-1.7121e-05,0
58.605,-3.2395e-05,0
58.605,-3.6423e-05,0
58.606,-1.796e-05,0
58.606,1.6785e-05,0
58.607,4.3473e-05,0
58.607,4.0787e-05,0
58.608,1.0575e-05,0
58.608,-2.887e-05,0
58.609,-6.009e-05,0
58.609,-8.2414e-05,0
58.61,-8.8121e-05,0
58.61,-8.3421e-05,0
58.611,-8.8457e-05,0
58.611,-0.0001086,0
58.612,-0.00012807,0
58.612,-0.00012169,0
58.613,-8.896e-05,0
58.613,-3.8102e-05,0
58.614,1.6449e-05,0
58.614,4.2634e-05,0
58.615,2.8702e-05,0
58.615,-1.091e-05,0
58.616,-5.3544e-05,0
58.616,-7.7714e-05,0
58.617,-6.8315e-05,0
58.618,-4.1123e-05,0
58.618,-2.3163e-05,0
58.619,-2.3331e-05,0
58.619,-2.266e-05,0
58.62,-5.539e-06,0
58.62,2.266e-05,0
58.621,5.2369e-05,0
58.621,7.4693e-05,0
58.622,8.0735e-05,0
58.622,6.7308e-05,0
58.623,4.5991e-05,0
58.623,3.9277e-05,0
58.624,4.8173e-05,0
58.624,6.0594e-05,0
58.625,6.9657e-05,0
58.625,7.4357e-05,0
58.626,7.5029e-05,0
58.626,6.7475e-05,0
58.627,5.153e-05,0
58.627,3.8102e-05,0
58.628,4.2802e-05,0
58.628,6.4958e-05,0
58.629,8.5771e-05,0
58.629,9.2485e-05,0
58.63,8.5435e-05,0
58.63,7.3014e-05,0
58.631,6.5629e-05,0
58.632,6.8818e-05,0
58.632,7.7714e-05,0
58.633,8.5771e-05,0
58.633,8.51e-05,0
58.634,6.9657e-05,0
58.634,5.3208e-05,0
58.635,5.4887e-05,0
58.635,7.9728e-05,0
58.636,0.00010977,0
58.636,0.0001237,0
58.637,0.00010927,0
58.637,6.9657e-05,0
58.638,2.7024e-05,0
58.638,-2.182e-06,0
58.639,-1.8463e-05,0
58.639,-2.5681e-05,0
58.64,-2.4674e-05,0
58.64,-2.9709e-05,0
58.641,-4.7837e-05,0
58.641,-6.4118e-05,0
58.642,-6.2104e-05,0
58.642,-3.7263e-05,0
58.643,2.0142e-06,0
58.643,4.9516e-05,0
58.644,9.9535e-05,0
58.645,0.00013579,0
58.645,0.00014485,0
58.646,0.00012639,0
58.646,9.7688e-05,0
58.647,7.335e-05,0
58.647,5.9586e-05,0
58.648,5.7572e-05,0
58.648,6.5293e-05,0
58.649,6.1097e-05,0
58.649,1.326e-05,0
58.65,-6.9322e-05,0
58.65,-0.00012337,0
58.651,-8.7449e-05,0
58.651,3.7263e-05,0
58.652,0.00017473,0
58.652,0.00025228,0
58.653,0.00024489,0
58.653,0.000165,0
58.654,4.8173e-05,0
58.654,-6.1769e-05,0
58.655,-0.00014301,0
58.655,-0.0001942,0
58.656,-0.00023012,0
58.656,-0.00025765,0
58.657,-0.00027108,0
58.657,-0.00026487,0
58.658,-0.00024976,0
58.659,-0.00022593,0
58.659,-0.00018279,0
58.66,-0.0001326,0
58.66,-9.2821e-05,0
58.661,-6.479e-05,0
58.661,-3.6759e-05,0
58.662,1.326e-05,0
58.662,9.5506e-05,0
58.663,0.00017842,0
58.663,0.00021166,0
58.664,0.00019118,0
58.664,0.00014485,0
58.665,9.8527e-05,0
58.665,6.8315e-05,0
58.666,5.5894e-05,0
58.666,5.1026e-05,0
58.667,3.5416e-05,0
58.667,1.0575e-05,0
58.668,-2.8534e-06,0
58.668,1.8463e-06,0
58.669,1.4771e-05,0
58.669,2.8031e-05,0
58.67,4.6662e-05,0
58.67,6.865e-05,0
58.671,7.8553e-05,0
58.672,8.4764e-05,0
58.672,9.6513e-05,0
58.673,9.7688e-05,0
58.673,7.8721e-05,0
58.674,5.4215e-05,0
58.674,3.8437e-05,0
58.675,2.3667e-05,0
58.675,-6.714e-07,0
58.676,-3.1724e-05,0
58.676,-5.3544e-05,0
58.677,-5.4551e-05,0
58.677,-3.8437e-05,0
58.678,-6.2104e-06,0
58.678,3.6088e-05,0
58.679,8.0903e-05,0
58.679,0.00012421,0
58.68,0.00014553,0
58.68,0.00014217,0
58.681,0.00014334,0
58.681,0.00015325,0
58.682,0.00016097,0
58.682,0.00015694,0
58.683,0.00013378,0
58.683,9.7353e-05,0
58.684,5.5894e-05,0
58.684,7.8889e-06,0
58.685,-3.6423e-05,0
58.686,-6.6804e-05,0
58.686,-9.4835e-05,0
58.687,-0.00012639,0
58.687,-0.00014519,0
58.688,-0.00013999,0
58.688,-0.00012119,0
58.689,-0.00010105,0
58.689,-7.6204e-05,0
58.69,-4.8508e-05,0
58.69,-3.122e-05,0
58.691,-2.5849e-05,0
58.691,-2.0981e-05,0
58.692,-3.1891e-06,0
58.692,3.4745e-05,0
58.693,8.2414e-05,0
58.693,0.00012656,0
58.694,0.00015157,0
58.694,0.00014015,0
58.695,9.3828e-05,0
58.695,3.0549e-05,0
58.696,-2.266e-05,0
58.696,-5.0523e-05,0
58.697,-6.3783e-05,0
58.697,-6.9993e-05,0
58.698,-6.4622e-05,0
58.699,-4.3809e-05,0
58.699,-2.887e-05,0
58.7,-2.2324e-05,0
58.7,-4.5319e-06,0
58.701,2.887e-05,0
58.701,5.8412e-05,0
58.702,6.949e-05,0
58.702,6.3951e-05,0
58.703,4.7501e-05,0
58.703,2.8702e-05,0
58.704,2.4002e-05,0
58.704,4.1123e-05,0
58.705,6.9657e-05,0
58.705,7.805e-05,0
58.706,4.8508e-05,0
58.706,1.326e-05,0
58.707,-6.2104e-06,0
58.707,-1.8631e-05,0
58.708,-2.7359e-05,0
58.708,-2.8367e-05,0
58.709,-2.9709e-05,0
58.709,-3.8437e-05,0
58.71,-4.0116e-05,0
58.71,-1.8631e-05,0
58.711,1.1246e-05,0
58.712,2.6184e-05,0
58.712,2.6688e-05,0
58.713,2.0478e-05,0
58.713,1.5274e-05,0
58.714,1.6617e-05,0
58.714,2.4674e-05,0
58.715,3.2731e-05,0
58.715,3.6759e-05,0
58.716,3.4073e-05,0
58.716,2.5177e-05,0
58.717,1.5274e-05,0
58.717,1.0575e-05,0
58.718,9.3996e-06,0
58.718,1.0239e-05,0
58.719,1.5442e-05,0
58.719,2.7024e-05,0
58.72,3.9277e-05,0
58.72,4.7837e-05,0
58.721,5.2201e-05,0
58.721,5.5558e-05,0
58.722,5.8244e-05,0
58.722,5.9586e-05,0
58.723,5.9754e-05,0
58.723,5.7572e-05,0
58.724,5.2873e-05,0
58.724,4.5151e-05,0
58.725,3.5752e-05,0
58.726,2.5681e-05,0
58.726,1.7288e-05,0
58.727,1.9303e-05,0
58.727,2.887e-05,0
58.728,3.5248e-05,0
58.728,4.5151e-05,0
58.729,7.4357e-05,0
58.729,0.00011061,0
58.73,0.00013075,0
58.73,0.00012253,0
58.731,9.1142e-05,0
58.731,5.8579e-05,0
58.732,4.1962e-05,0
58.732,3.8102e-05,0
58.733,3.0716e-05,0
58.733,1.4939e-05,0
58.734,-3.357e-07,0
58.734,-1.7121e-05,0
58.735,-3.5752e-05,0
58.735,-4.6494e-05,0
58.736,-4.3809e-05,0
58.736,-3.4913e-05,0
58.737,-2.4002e-05,0
58.737,-4.8676e-06,0
58.738,2.1988e-05,0
58.739,4.1794e-05,0
58.739,4.8173e-05,0
58.74,4.9348e-05,0
58.74,5.0523e-05,0
58.741,4.7166e-05,0
58.741,3.4073e-05,0
58.742,1.561e-05,0
58.742,2.5177e-06,0
58.743,-1.1749e-06,0
58.743,6.2104e-06,0
58.744,2.2324e-05,0
58.744,3.2395e-05,0
58.745,3.1724e-05,0
58.745,3.0213e-05,0
58.746,3.2395e-05,0
58.746,3.6088e-05,0
58.747,3.2731e-05,0
58.747,1.4267e-05,0
58.748,-1.1582e-05,0
58.748,-3.3738e-05,0
58.749,-4.9683e-05,0
58.749,-5.9922e-05,0
58.75,-5.6565e-05,0
58.75,-4.3809e-05,0
58.751,-3.1724e-05,0
58.751,-1.7456e-05,0
58.752,6.3783e-06,0
58.753,3.8437e-05,0
58.753,8.3925e-05,0
58.754,0.00013344,0
58.754,0.00015727,0
58.755,0.00014737,0
58.755,0.0001133,0
58.756,6.2776e-05,0
58.756,1.6281e-05,0
58.757,-2.0142e-06,0
58.757,-1.7624e-05,0
58.758,-5.4887e-05,0
58.758,-9.1814e-05,0
58.759,-0.00010809,0
58.759,-0.00010155,0
58.76,-7.0161e-05,0
58.76,-2.652e-05,0
58.761,5.0355e-07,0
58.761,3.6927e-06,0
58.762,-1.8463e-06,0
58.762,-1.2253e-05,0
58.763,-3.743e-05,0
58.763,-6.9657e-05,0
58.764,-7.6036e-05,0
58.764,-3.508e-05,0
58.765,3.0716e-05,0
58.766,7.9728e-05,0
58.766,9.9199e-05,0
58.767,0.00010491,0
58.767,0.00010054,0
58.768,8.5771e-05,0
58.768,7.3014e-05,0
58.769,5.9586e-05,0
58.769,4.0955e-05,0
58.77,1.8296e-05,0
58.77,-7.8889e-06,0
58.771,-3.4409e-05,0
58.771,-5.5055e-05,0
58.772,-6.2943e-05,0
58.772,-6.2608e-05,0
58.773,-6.5293e-05,0
58.773,-7.1e-05,0
58.774,-7.3686e-05,0
58.774,-6.5965e-05,0
58.775,-4.6662e-05,0
58.775,-2.0645e-05,0
58.776,7.5532e-06,0
58.776,2.9038e-05,0
58.777,3.5416e-05,0
58.777,3.0549e-05,0
58.778,2.2828e-05,0
58.778,1.4435e-05,0
58.779,8.896e-06,0
58.78,1.2421e-05,0
58.78,2.2995e-05,0
58.781,3.122e-05,0
58.781,3.508e-05,0
58.782,4.1794e-05,0
58.782,4.5487e-05,0
58.783,3.6088e-05,0
58.783,2.5849e-05,0
58.784,3.2563e-05,0
58.784,5.2705e-05,0
58.785,6.8986e-05,0
58.785,7.7714e-05,0
58.786,9.366e-05,0
58.786,0.00012673,0
58.787,0.00016617,0
58.787,0.00018715,0
58.788,0.00018044,0
58.788,0.0001613,0
58.789,0.00014318,0
58.789,0.00012119,0
58.79,8.5771e-05,0
58.79,4.7837e-05,0
58.791,1.8967e-05,0
58.791,-2.182e-06,0
58.792,-2.1317e-05,0
58.792,-3.7095e-05,0
58.793,-3.8605e-05,0
58.794,-2.7192e-05,0
58.794,-1.8296e-05,0
58.795,-2.3499e-05,0
58.795,-3.8437e-05,0
58.796,-5.2537e-05,0
58.796,-5.8915e-05,0
58.797,-5.4719e-05,0
58.797,-4.3977e-05,0
58.798,-2.9038e-05,0
58.798,-1.6617e-05,0
58.799,-1.561e-05,0
58.799,-1.6953e-05,0
58.8,-8.2246e-06,0
58.8,8.5603e-06,0
58.801,2.5681e-05,0
58.801,4.1123e-05,0
58.802,5.2033e-05,0
58.802,5.8579e-05,0
58.803,6.1097e-05,0
58.803,6.009e-05,0
58.804,5.9922e-05,0
58.804,6.5461e-05,0
58.805,7.4525e-05,0
58.805,8.6275e-05,0
58.806,0.00010726,0
58.807,0.00013512,0
58.807,0.00015291,0
58.808,0.00015862,0
58.808,0.00016802,0
58.809,0.0001744,0
58.809,0.00015795,0
58.81,0.00011733,0
58.81,5.5894e-05,0
58.811,-1.4603e-05,0
58.811,-6.9993e-05,0
58.812,-9.0135e-05,0
58.812,-9.6849e-05,0
58.813,-0.00011179,0
58.813,-0.00013176,0
58.814,-0.00015157,0
58.814,-0.00017104,0
58.815,-0.0001749,0
58.815,-0.00014804,0
58.816,-0.00010491,0
58.816,-7.335e-05,0
58.817,-6.4286e-05,0
58.817,-6.1936e-05,0
58.818,-5.7572e-05,0
58.818,-5.623e-05,0
58.819,-6.0258e-05,0
58.819,-6.3951e-05,0
58.82,-6.2943e-05,0
58.821,-5.5558e-05,0
58.821,-4.213e-05,0
58.822,-2.1988e-05,0
58.822,-3.5248e-06,0
58.823,8.896e-06,0
58.823,1.8128e-05,0
58.824,3.8773e-05,0
58.824,7.9057e-05,0
58.825,0.0001227,0
58.825,0.00014888,0
58.826,0.00015006,0
58.826,0.00013143,0
58.827,0.00010272,0
58.827,6.7979e-05,0
58.828,4.5823e-05,0
58.828,4.8508e-05,0
58.829,5.7908e-05,0
58.829,5.2873e-05,0
58.83,3.3066e-05,0
58.83,3.0716e-05,0
58.831,7.2175e-05,0
58.831,0.00012136,0
58.832,0.0001331,0
58.832,0.00010726,0
58.833,5.7572e-05,0
58.834,-6.2104e-06,0
58.834,-6.2104e-05,0
58.835,-8.4092e-05,0
58.835,-7.5364e-05,0
58.836,-5.6901e-05,0
58.836,-4.0955e-05,0
58.837,-2.4338e-05,0
58.837,-9.2317e-06,0
58.838,2.182e-06,0
58.838,1.2589e-05,0
58.839,2.501e-05,0
58.839,4.5487e-05,0
58.84,6.9993e-05,0
58.84,8.2078e-05,0
58.841,8.3589e-05,0
58.841,9.1814e-05,0
58.842,0.0001086,0
58.842,0.00012505,0
58.843,0.0001467,0
58.843,0.00016869,0
58.844,0.00016802,0
58.844,0.0001415,0
58.845,0.00010088,0
58.845,5.6901e-05,0
58.846,1.4267e-05,0
58.846,-2.3163e-05,0
58.847,-5.0019e-05,0
58.848,-6.5629e-05,0
58.848,-7.0665e-05,0
58.849,-6.8818e-05,0
58.849,-6.9993e-05,0
58.85,-7.335e-05,0
58.85,-6.6133e-05,0
58.851,-3.978e-05,0
58.851,-4.0284e-06,0
58.852,2.3331e-05,0
58.852,3.3738e-05,0
58.853,3.0381e-05,0
58.853,2.1317e-05,0
58.854,1.4267e-05,0
58.854,1.0575e-05,0
58.855,5.2033e-06,0
58.855,4.5319e-06,0
58.856,1.9974e-05,0
58.856,3.9445e-05,0
58.857,4.448e-05,0
58.857,2.652e-05,0
58.858,-1.0239e-05,0
58.858,-4.448e-05,0
58.859,-6.009e-05,0
58.859,-5.6565e-05,0
58.86,-4.1123e-05,0
58.861,-2.4674e-05,0
58.861,-1.8128e-05,0
58.862,-1.6617e-05,0
58.862,-4.1962e-06,0
58.863,2.1317e-05,0
58.863,5.0858e-05,0
58.864,7.6707e-05,0
58.864,0.00010188,0
58.865,0.00014653,0
58.865,0.0001848,0
58.866,0.00017691,0
58.866,0.00013411,0
58.867,8.7785e-05,0
58.867,5.0858e-05,0
58.868,2.7192e-05,0
58.868,1.2085e-05,0
58.869,-6.2104e-06,0
58.869,-3.2731e-05,0
58.87,-5.6397e-05,0
58.87,-6.8986e-05,0
58.871,-8.1407e-05,0
58.871,-0.00010591,0
58.872,-0.00013613,0
58.872,-0.00014989,0
58.873,-0.00013999,0
58.873,-0.00011481,0
58.874,-8.4932e-05,0
58.875,-5.774e-05,0
58.875,-3.1052e-05,0
58.876,-3.1891e-06,0
58.876,2.4338e-05,0
58.877,3.9109e-05,0
58.877,4.0116e-05,0
58.878,4.2466e-05,0
58.878,5.3208e-05,0
58.879,6.6636e-05,0
58.879,7.4022e-05,0
58.88,7.57e-05,0
58.88,6.9322e-05,0
58.881,5.623e-05,0
58.881,4.2802e-05,0
58.882,3.7263e-05,0
58.882,4.8844e-05,0
58.883,7.5532e-05,0
58.883,0.00010591,0
58.884,0.00012605,0
58.884,0.00011984,0
58.885,9.1142e-05,0
58.885,5.9419e-05,0
58.886,3.5752e-05,0
58.886,2.2324e-05,0
58.887,2.6352e-05,0
58.888,5.5558e-05,0
58.888,8.8121e-05,0
58.889,9.3996e-05,0
58.889,6.6468e-05,0
58.89,2.8367e-05,0
58.89,7.3854e-06,0
58.891,9.5674e-06,0
58.891,2.9709e-05,0
58.892,5.8747e-05,0
58.892,8.2918e-05,0
58.893,8.51e-05,0
58.893,7.1e-05,0
58.894,5.8915e-05,0
58.894,4.8173e-05,0
58.895,3.3738e-05,0
58.895,1.1246e-05,0
58.896,-1.5946e-05,0
58.896,-4.1123e-05,0
58.897,-6.0761e-05,0
58.897,-7.1504e-05,0
58.898,-7.5364e-05,0
58.898,-7.2679e-05,0
58.899,-6.9154e-05,0
58.899,-7.2847e-05,0
58.9,-7.6036e-05,0
58.901,-6.7308e-05,0
58.901,-5.1865e-05,0
58.902,-3.9445e-05,0
58.902,-2.6017e-05,0
58.903,-4.1962e-06,0
58.903,2.4506e-05,0
58.904,5.5894e-05,0
58.904,7.3686e-05,0
58.905,6.479e-05,0
58.905,4.062e-05,0
58.906,2.6688e-05,0
58.906,4.213e-05,0
58.907,8.8457e-05,0
58.907,0.00014804,0
58.908,0.00018514,0
58.908,0.00017842,0
58.909,0.00014485,0
58.909,0.00010927,0
58.91,7.6707e-05,0
58.91,4.213e-05,0
58.911,5.539e-06,0
58.911,-3.2898e-05,0
58.912,-6.2943e-05,0
58.912,-7.8889e-05,0
58.913,-9.752e-05,0
58.913,-0.00012824,0
58.914,-0.0001514,0
58.915,-0.00015039,0
58.915,-0.00012522,0
58.916,-8.6442e-05,0
58.916,-5.069e-05,0
58.917,-3.0381e-05,0
58.917,-2.3835e-05,0
58.918,-1.9974e-05,0
58.918,-1.561e-05,0
58.919,-1.7288e-05,0
58.919,-1.8967e-05,0
58.92,-1.1246e-05,0
58.92,4.5319e-06,0
58.921,2.5681e-05,0
58.921,5.2705e-05,0
58.922,7.6371e-05,0
58.922,8.5435e-05,0
58.923,8.2414e-05,0
58.923,8.0735e-05,0
58.924,8.2078e-05,0
58.924,8.5267e-05,0
58.925,8.7449e-05,0
58.925,8.4092e-05,0
58.926,7.7714e-05,0
58.926,6.5629e-05,0
58.927,4.4144e-05,0
58.928,1.561e-05,0
58.928,-5.0355e-06,0
58.929,-5.539e-06,0
58.929,1.1917e-05,0
58.93,3.4073e-05,0
58.93,5.0523e-05,0
58.931,6.1433e-05,0
58.931,6.7643e-05,0
58.932,7.3014e-05,0
58.932,7.0832e-05,0
58.933,5.2873e-05,0
58.933,2.6688e-05,0
58.934,3.357e-06,0
58.934,-9.5674e-06,0
58.935,-1.2589e-05,0
58.935,-1.1414e-05,0
58.936,-2.8534e-06,0
58.936,1.7792e-05,0
58.937,3.8773e-05,0
58.937,5.2201e-05,0
58.938,5.6062e-05,0
58.938,5.2705e-05,0
58.939,4.5823e-05,0
58.939,3.5248e-05,0
58.94,2.4674e-05,0
58.94,1.6281e-05,0
58.941,1.1246e-05,0
58.942,1.2589e-05,0
58.942,1.6449e-05,0
58.943,1.5106e-05,0
58.943,9.9031e-06,0
58.944,6.3783e-06,0
58.944,9.2317e-06,0
58.945,1.8631e-05,0
58.945,3.1556e-05,0
58.946,3.9948e-05,0
58.946,3.8605e-05,0
58.947,3.743e-05,0
58.947,4.5319e-05,0
58.948,5.5894e-05,0
58.948,6.0258e-05,0
58.949,5.8244e-05,0
58.949,5.4215e-05,0
58.95,5.0858e-05,0
58.95,4.1459e-05,0
58.951,2.1317e-05,0
58.951,3.5248e-06,0
58.952,-2.8534e-06,0
58.952,-1.5106e-06,0
58.953,-8.3925e-07,0
58.953,2.5177e-06,0
58.954,3.2731e-05,0
58.955,0.00010423,0
58.955,0.00020763,0
58.956,0.00032882,0
58.956,0.00043557,0
58.957,0.00046847,0
58.957,0.00040166,0
58.958,0.00025849,0
58.958,8.4932e-05,0
58.959,-7.2679e-05,0
58.959,-0.00018514,0
58.96,-0.00025177,0
58.96,-0.00029407,0
58.961,-0.00033352,0
58.961,-0.00034627,0
58.962,-0.00031237,0
58.962,-0.00025228,0
58.963,-0.00019622,0
58.963,-0.00015862,0
58.964,-0.00013126,0
58.964,-0.00011632,0
58.965,-0.00011565,0
58.965,-0.00011833,0
58.966,-0.00010289,0
58.966,-6.2272e-05,0
58.967,-1.6281e-05,0
58.967,1.2421e-05,0
58.968,1.9303e-05,0
58.969,1.561e-05,0
58.969,1.4267e-05,0
58.97,1.796e-05,0
58.97,2.2828e-05,0
58.971,2.9709e-05,0
58.971,4.1123e-05,0
58.972,4.9516e-05,0
58.972,4.2634e-05,0
58.973,2.8367e-05,0
58.973,1.9638e-05,0
58.974,1.9638e-05,0
58.974,3.2059e-05,0
58.975,5.069e-05,0
58.975,6.3951e-05,0
58.976,7.3518e-05,0
58.976,9.5171e-05,0
58.977,0.00012438,0
58.977,0.00013948,0
58.978,0.00014217,0
58.978,0.00015157,0
58.979,0.000165,0
58.979,0.00015946,0
58.98,0.00013864,0
58.98,0.0001237,0
58.981,0.00011867,0
58.981,0.00010961,0
58.982,8.9464e-05,0
58.983,6.3279e-05,0
58.983,2.4842e-05,0
58.984,-3.5248e-05,0
58.984,-0.00010373,0
58.985,-0.0001514,0
58.985,-0.00016667,0
58.986,-0.00016097,0
58.986,-0.0001378,0
58.987,-9.752e-05,0
58.987,-4.918e-05,0
58.988,6.714e-07,0
58.988,5.4215e-05,0
58.989,0.00011263,0
58.989,0.00017842,0
58.99,0.00022341,0
58.99,0.00022492,0
58.991,0.00019622,0
58.991,0.00015526,0
58.992,0.00010591,0
58.992,5.6901e-05,0
58.993,1.091e-05,0
58.993,-3.6423e-05,0
58.994,-9.1142e-05,0
58.994,-0.00015375,0
58.995,-0.00020293,0
58.996,-0.00021736,0
58.996,-0.00020293,0
58.997,-0.0001843,0
58.997,-0.00017188,0
58.998,-0.0001556,0
58.998,-0.0001284,0
58.999,-9.8695e-05,0
58.999,-7.1672e-05,0
59,-4.448e-05,0
59,-1.3596e-05,0
59.001,1.561e-05,0
59.001,3.5584e-05,0
59.002,5.2201e-05,0
59.002,7.0161e-05,0
59.003,8.8792e-05,0
59.003,0.00010054,0
59.004,0.00010155,0
59.004,9.9199e-05,0
59.005,0.00011078,0
59.005,0.00014015,0
59.006,0.000165,0
59.006,0.00017238,0
59.007,0.00017272,0
59.007,0.0001749,0
59.008,0.00017087,0
59.008,0.00015946,0
59.009,0.00014586,0
59.01,0.00013109,0
59.01,0.00011397,0
59.011,0.00010356,0
59.011,0.00010188,0
59.012,9.6513e-05,0
59.012,8.4764e-05,0
59.013,8.2414e-05,0
59.013,8.3757e-05,0
59.014,6.1769e-05,0
59.014,9.7353e-06,0
59.015,-4.5991e-05,0
59.015,-8.1575e-05,0
59.016,-9.6849e-05,0
59.016,-9.9199e-05,0
59.017,-9.8527e-05,0
59.017,-0.00010205,0
59.018,-0.00010793,0
59.018,-9.987e-05,0
59.019,-7.2175e-05,0
59.019,-3.7766e-05,0
59.02,-5.3712e-06,0
59.02,1.7792e-05,0
59.021,1.796e-05,0
59.021,-4.0284e-06,0
59.022,-2.652e-05,0
59.023,-3.4073e-05,0
59.023,-3.2898e-05,0
59.024,-3.1052e-05,0
59.024,-2.4338e-05,0
59.025,-6.5461e-06,0
59.025,1.4603e-05,0
59.026,3.0213e-05,0
59.026,3.9612e-05,0
59.027,5.5055e-05,0
59.027,8.2414e-05,0
59.028,0.0001039,0
59.028,0.00010541,0
59.029,9.5003e-05,0
59.029,8.7785e-05,0
59.03,9.8192e-05,0
59.03,0.00012152,0
59.031,0.00014083,0
59.031,0.0001514,0
59.032,0.00014939,0
59.032,0.00012639,0
59.033,9.1646e-05,0
59.033,5.6565e-05,0
59.034,1.5106e-05,0
59.034,-2.4002e-05,0
59.035,-3.7766e-05,0
59.035,-3.6423e-05,0
59.036,-5.539e-05,0
59.037,-9.3828e-05,0
59.037,-0.00011431,0
59.038,-0.00010272,0
59.038,-8.191e-05,0
59.039,-7.2175e-05,0
59.039,-5.1865e-05,0
59.04,-4.5319e-06,0
59.04,3.7934e-05,0
59.041,5.0187e-05,0
59.041,3.9109e-05,0
59.042,1.9974e-05,0
59.042,6.5461e-06,0
59.043,1.5274e-05,0
59.043,4.0116e-05,0
59.044,6.5126e-05,0
59.044,7.4022e-05,0
59.045,5.7404e-05,0
59.045,2.3331e-05,0
59.046,-9.5674e-06,0
59.046,-3.0213e-05,0
59.047,-4.3305e-05,0
59.047,-4.8508e-05,0
59.048,-4.3137e-05,0
59.048,-3.5584e-05,0
59.049,-3.1052e-05,0
59.05,-1.0575e-05,0
59.05,2.417e-05,0
59.051,3.9109e-05,0
59.051,2.8031e-05,0
59.052,6.3783e-06,0
59.052,-1.5106e-05,0
59.053,-3.1052e-05,0
59.053,-4.4312e-05,0
59.054,-5.4215e-05,0
59.054,-4.8005e-05,0
59.055,-3.0045e-05,0
59.055,-1.9974e-05,0
59.056,-2.6017e-05,0
59.056,-4.0787e-05,0
59.057,-5.153e-05,0
59.057,-4.5823e-05,0
59.058,-1.3428e-05,0
59.058,2.9374e-05,0
59.059,5.8076e-05,0
59.059,6.9825e-05,0
59.06,7.335e-05,0
59.06,7.57e-05,0
59.061,7.8721e-05,0
59.061,8.0232e-05,0
59.062,8.1743e-05,0
59.062,8.0064e-05,0
59.063,7.2007e-05,0
59.064,5.8076e-05,0
59.064,4.2802e-05,0
59.065,3.2731e-05,0
59.065,2.9877e-05,0
59.066,3.1556e-05,0
59.066,3.8605e-05,0
59.067,4.8844e-05,0
59.067,6.3447e-05,0
59.068,8.8121e-05,0
59.068,0.00011229,0
59.069,0.00012303,0
59.069,0.00011666,0
59.07,9.7856e-05,0
59.07,7.805e-05,0
59.071,6.714e-05,0
59.071,5.8244e-05,0
59.072,3.8102e-05,0
59.072,1.2421e-05,0
59.073,-5.539e-06,0
59.073,-1.1246e-05,0
59.074,-1.4603e-05,0
59.074,-2.4002e-05,0
59.075,-2.5345e-05,0
59.075,-7.2175e-06,0
59.076,7.3854e-06,0
59.077,-5.7069e-06,0
59.077,-2.8534e-05,0
59.078,-3.3234e-05,0
59.078,-2.0645e-05,0
59.079,-5.539e-06,0
59.079,-3.357e-07,0
59.08,-3.357e-06,0
59.08,-6.5461e-06,0
59.081,-8.7282e-06,0
59.081,-1.3596e-05,0
59.082,-1.2589e-05,0
59.082,-3.357e-06,0
59.083,6.3783e-06,0
59.083,1.1749e-05,0
59.084,1.8128e-05,0
59.084,2.8031e-05,0
59.085,3.8437e-05,0
59.085,5.0019e-05,0
59.086,6.4958e-05,0
59.086,7.9057e-05,0
59.087,8.3757e-05,0
59.087,7.7379e-05,0
59.088,5.9586e-05,0
59.088,4.0452e-05,0
59.089,2.8031e-05,0
59.09,2.1988e-05,0
59.09,1.6281e-05,0
59.091,9.5674e-06,0
59.091,4.8676e-06,0
59.092,1.6281e-05,0
59.092,5.4047e-05,0
59.093,0.00010356,0
59.093,0.00014519,0
59.094,0.00016214,0
59.094,0.00015492,0
59.095,0.00013109,0
59.095,9.8863e-05,0
59.096,7.1e-05,0
59.096,4.8676e-05,0
59.097,2.6017e-05,0
59.097,-2.5177e-06,0
59.098,-4.213e-05,0
59.098,-8.9799e-05,0
59.099,-0.00013378,0
59.099,-0.00015862,0
59.1,-0.00015358,0
59.1,-0.0001232,0
59.101,-7.3854e-05,0
59.101,-2.031e-05,0
59.102,3.2059e-05,0
59.102,6.7811e-05,0
59.103,6.3279e-05,0
59.104,2.8702e-05,0
59.104,-3.1891e-06,0
59.105,-1.796e-05,0
59.105,-2.3163e-05,0
59.106,-2.2156e-05,0
59.106,-1.0575e-05,0
59.107,3.1891e-06,0
59.107,2.8534e-06,0
59.108,-9.5674e-06,0
59.108,-1.1582e-05,0
59.109,3.0213e-06,0
59.109,9.0639e-06,0
59.11,-1.2589e-05,0
59.11,-4.1627e-05,0
59.111,-5.5222e-05,0
59.111,-6.2608e-05,0
59.112,-7.335e-05,0
59.112,-7.7211e-05,0
59.113,-7.0665e-05,0
59.113,-6.7308e-05,0
59.114,-6.7979e-05,0
59.114,-6.2776e-05,0
59.115,-5.7908e-05,0
59.115,-4.9851e-05,0
59.116,-2.6184e-05,0
59.117,7.8889e-06,0
59.117,4.5487e-05,0
59.118,8.8457e-05,0
59.118,0.00013008,0
59.119,0.00015392,0
59.119,0.0001556,0
59.12,0.00014586,0
59.12,0.00014435,0
59.121,0.0001566,0
59.121,0.00016835,0
59.122,0.000165,0
59.122,0.00014452,0
59.123,0.00011498,0
59.123,8.8121e-05,0
59.124,6.3111e-05,0
59.124,3.6088e-05,0
59.125,1.0575e-05,0
59.125,-1.1917e-05,0
59.126,-3.8773e-05,0
59.126,-6.7308e-05,0
59.127,-8.8289e-05,0
59.127,-9.0639e-05,0
59.128,-6.7643e-05,0
59.128,-1.7288e-05,0
59.129,5.1362e-05,0
59.129,0.00011162,0
59.13,0.00014049,0
59.131,0.00014066,0
59.131,0.00011682,0
59.132,7.2847e-05,0
59.132,2.9038e-05,0
59.133,-8.5603e-06,0
59.133,-4.1794e-05,0
59.134,-6.3615e-05,0
59.134,-6.9993e-05,0
59.135,-7.3014e-05,0
59.135,-7.8889e-05,0
59.136,-6.9993e-05,0
59.136,-3.7766e-05,0
59.137,-1.5106e-06,0
59.137,2.266e-05,0
59.138,4.7166e-05,0
59.138,7.335e-05,0
59.139,8.3757e-05,0
59.139,6.9657e-05,0
59.14,4.0787e-05,0
59.14,1.1749e-05,0
59.141,-1.0239e-05,0
59.141,-3.4577e-05,0
59.142,-6.4454e-05,0
59.142,-8.4092e-05,0
59.143,-7.1336e-05,0
59.144,-3.5752e-05,0
59.144,-1.2253e-05,0
59.145,-1.0407e-05,0
59.145,-1.1917e-05,0
59.146,2.3499e-06,0
59.146,2.7359e-05,0
59.147,4.8508e-05,0
59.147,6.1601e-05,0
59.148,6.8986e-05,0
59.148,6.865e-05,0
59.149,6.6972e-05,0
59.149,7.1672e-05,0
59.15,8.9799e-05,0
59.15,0.0001237,0
59.151,0.00015392,0
59.151,0.0001566,0
59.152,0.00013814,0
59.152,0.00011984,0
59.153,0.00010138,0
59.153,7.4022e-05,0
59.154,3.9445e-05,0
59.154,-2.182e-06,0
59.155,-4.448e-05,0
59.155,-7.3014e-05,0
59.156,-7.6036e-05,0
59.156,-6.1936e-05,0
59.157,-5.0858e-05,0
59.158,-4.7501e-05,0
59.158,-4.3473e-05,0
59.159,-3.5416e-05,0
59.159,-2.1653e-05,0
59.16,5.8747e-06,0
59.16,4.9516e-05,0
59.161,9.5171e-05,0
59.161,0.00011934,0
59.162,0.00011766,0
59.162,9.7856e-05,0
59.163,6.7979e-05,0
59.163,4.3809e-05,0
59.164,5.0019e-05,0
59.164,7.9561e-05,0
59.165,0.00010054,0
59.165,0.00010021,0
59.166,8.6275e-05,0
59.166,6.63e-05,0
59.167,4.2634e-05,0
59.167,1.7792e-05,0
59.168,-1.561e-05,0
59.168,-7.4189e-05,0
59.169,-0.00014838,0
59.169,-0.00020327,0
59.17,-0.00022542,0
59.17,-0.00022358,0
59.171,-0.00019974,0
59.172,-0.0001566,0
59.172,-0.00010726,0
59.173,-6.9154e-05,0
59.173,-4.2466e-05,0
59.174,-1.9638e-05,0
59.174,1.8463e-06,0
59.175,2.9877e-05,0
59.175,7.2175e-05,0
59.176,0.00011263,0
59.176,0.00012958,0
59.177,0.00013579,0
59.177,0.00016399,0
59.178,0.0002083,0
59.178,0.00023012,0
59.179,0.00020629,0
59.179,0.0001509,0
59.18,9.0806e-05,0
59.18,4.4816e-05,0
59.181,1.0575e-05,0
59.181,-2.5177e-05,0
59.182,-6.2608e-05,0
59.182,-9.0471e-05,0
59.183,-8.9464e-05,0
59.183,-5.4215e-05,0
59.184,-1.1078e-05,0
59.185,8.5603e-06,0
59.185,1.9638e-05,0
59.186,5.1194e-05,0
59.186,8.6778e-05,0
59.187,9.987e-05,0
59.187,7.5364e-05,0
59.188,3.357e-05,0
59.188,2.5177e-06,0
59.189,-1.5778e-05,0
59.189,-2.8367e-05,0
59.19,-4.2802e-05,0
59.19,-5.623e-05,0
59.191,-6.0594e-05,0
59.191,-3.743e-05,0
59.192,4.6998e-06,0
59.192,3.0716e-05,0
59.193,3.4409e-05,0
59.193,2.7359e-05,0
59.194,2.652e-05,0
59.194,4.1123e-05,0
59.195,6.5126e-05,0
59.195,7.4022e-05,0
59.196,6.2272e-05,0
59.196,4.8173e-05,0
59.197,3.3402e-05,0
59.197,1.0071e-05,0
59.198,-6.3783e-06,0
59.199,-6.3783e-06,0
59.199,-3.1891e-06,0
59.2,-8.2246e-06,0
59.2,-2.1149e-05,0
59.201,-4.0116e-05,0
59.201,-6.5797e-05,0
59.202,-8.9464e-05,0
59.202,-0.00010037,0
59.203,-9.8527e-05,0
59.203,-8.5603e-05,0
59.204,-6.4622e-05,0
59.204,-4.3977e-05,0
59.205,-2.9206e-05,0
59.205,-1.9471e-05,0
59.206,-8.2246e-06,0
59.206,4.8676e-06,0
59.207,2.0478e-05,0
59.207,4.0452e-05,0
59.208,6.009e-05,0
59.208,7.5029e-05,0
59.209,8.51e-05,0
59.209,9.2317e-05,0
59.21,0.00010726,0
59.21,0.0001331,0
59.211,0.00015543,0
59.212,0.00016432,0
59.212,0.00016265,0
59.213,0.00015023,0
59.213,0.00013411,0
59.214,0.0001237,0
59.214,0.00011397,0
59.215,9.9535e-05,0
59.215,7.8386e-05,0
59.216,4.9683e-05,0
59.216,2.266e-05,0
59.217,6.5461e-06,0
59.217,-1.8463e-06,0
59.218,-1.1749e-06,0
59.218,1.7288e-05,0
59.219,5.6062e-05,0
59.219,9.987e-05,0
59.22,0.00012404,0
59.22,0.00011196,0
59.221,7.0329e-05,0
59.221,1.9638e-05,0
59.222,-3.1052e-05,0
59.222,-7.5364e-05,0
59.223,-9.5506e-05,0
59.223,-8.6107e-05,0
59.224,-6.5126e-05,0
59.224,-5.153e-05,0
59.225,-4.8173e-05,0
59.226,-3.7766e-05,0
59.226,-1.1749e-05,0
59.227,1.561e-05,0
59.227,2.2995e-05,0
59.228,6.5461e-06,0
59.228,-1.5274e-05,0
59.229,-2.3163e-05,0
59.229,-8.2246e-06,0
59.23,1.2421e-05,0
59.23,2.1653e-05,0
59.231,3.4409e-05,0
59.231,5.9922e-05,0
59.232,7.9057e-05,0
59.232,8.6442e-05,0
59.233,9.6178e-05,0
59.233,0.00010407,0
59.234,0.00010021,0
59.234,9.3828e-05,0
59.235,8.7449e-05,0
59.235,8.4092e-05,0
59.236,0.00010121,0
59.236,0.00011112,0
59.237,7.7714e-05,0
59.237,8.0568e-06,0
59.238,-6.6636e-05,0
59.239,-0.0001227,0
59.239,-0.00016097,0
59.24,-0.00018547,0
59.24,-0.00019319,0
59.241,-0.00018497,0
59.241,-0.00016046,0
59.242,-0.00013596,0
59.242,-0.00012354,0
59.243,-9.6178e-05,0
59.243,-2.652e-05,0
59.244,6.7643e-05,0
59.244,0.00012605,0
59.245,0.00011699,0
59.245,6.1433e-05,0
59.246,7.7211e-06,0
59.246,-3.2395e-05,0
59.247,-6.1936e-05,0
59.247,-7.0665e-05,0
59.248,-5.9419e-05,0
59.248,-3.7095e-05,0
59.249,-9.0639e-06,0
59.249,2.1149e-05,0
59.25,4.5487e-05,0
59.25,6.6804e-05,0
59.251,8.9464e-05,0
59.252,9.4163e-05,0
59.252,7.9561e-05,0
59.253,7.5364e-05,0
59.253,9.1142e-05,0
59.254,0.00010726,0
59.254,0.00011867,0
59.255,0.00013478,0
59.255,0.00018329,0
59.256,0.00024741,0
59.256,0.00027779,0
59.257,0.00026235,0
59.257,0.00021334,0
59.258,0.00014217,0
59.258,8.51e-05,0
59.259,7.0665e-05,0
59.259,7.7546e-05,0
59.26,5.3376e-05,0
59.26,-1.2253e-05,0
59.261,-7.4189e-05,0
59.261,-0.00011028,0
59.262,-0.00014049,0
59.262,-0.00016114,0
59.263,-0.00016399,0
59.263,-0.00016835,0
59.264,-0.00019017,0
59.264,-0.00020562,0
59.265,-0.0001895,0
59.266,-0.00014401,0
59.266,-9.2317e-05,0
59.267,-5.0187e-05,0
59.267,-2.1317e-05,0
59.268,-1.5946e-05,0
59.268,-3.5416e-05,0
59.269,-5.6901e-05,0
59.269,-6.3951e-05,0
59.27,-6.6636e-05,0
59.27,-8.2246e-05,0
59.271,-9.9535e-05,0
59.271,-9.7185e-05,0
59.272,-6.63e-05,0
59.272,-1.7288e-05,0
59.273,3.3066e-05,0
59.273,7.4357e-05,0
59.274,0.00010289,0
59.274,0.00012639,0
59.275,0.00014821,0
59.275,0.0001603,0
59.276,0.00016164,0
59.276,0.0001566,0
59.277,0.00014653,0
59.277,0.00013864,0
59.278,0.0001368,0
59.279,0.00012941,0
59.279,0.00010306,0
59.28,6.9657e-05,0
59.28,5.4719e-05,0
59.281,6.9657e-05,0
59.281,0.0001086,0
59.282,0.0001373,0
59.282,0.00014385,0
59.283,0.0001321,0
59.283,9.8863e-05,0
59.284,4.9516e-05,0
59.284,7.7211e-06,0
59.285,-1.3596e-05,0
59.285,-2.5177e-05,0
59.286,-3.0716e-05,0
59.286,-3.0381e-05,0
59.287,-2.9374e-05,0
59.287,-3.4241e-05,0
59.288,-4.4648e-05,0
59.288,-4.9851e-05,0
59.289,-4.1794e-05,0
59.289,-2.3667e-05,0
59.29,-7.2175e-06,0
59.29,1.8463e-06,0
59.291,4.8676e-06,0
59.291,5.0355e-06,0
59.292,4.5319e-06,0
59.293,4.6998e-06,0
59.293,3.8605e-06,0
59.294,5.539e-06,0
59.294,1.1582e-05,0
59.295,2.6688e-05,0
59.295,4.683e-05,0
59.296,6.1265e-05,0
59.296,7.8889e-05,0
59.297,0.00010692,0
59.297,0.0001274,0
59.298,0.00012538,0
59.298,0.00010088,0
59.299,6.6972e-05,0
59.299,4.1123e-05,0
59.3,2.7024e-05,0
59.3,1.9638e-05,0
59.301,7.2175e-06,0
59.301,-8.2246e-06,0
59.302,-6.2104e-06,0
59.302,3.5416e-05,0
59.303,0.00010642,0
59.303,0.00016298,0
59.304,0.00016768,0
59.304,0.00012555,0
59.305,6.6972e-05,0
59.306,2.3331e-05,0
59.306,1.4603e-05,0
59.307,3.3906e-05,0
59.307,7.2679e-05,0
59.308,9.7017e-05,0
59.308,7.7043e-05,0
59.309,3.4073e-05,0
59.309,4.1962e-06,0
59.31,-1.1582e-05,0
59.31,-3.2731e-05,0
59.311,-6.2776e-05,0
59.311,-9.6849e-05,0
59.312,-0.00013915,0
59.312,-0.00017842,0
59.313,-0.00019454,0
59.313,-0.00018027,0
59.314,-0.00016013,0
59.314,-0.00015761,0
59.315,-0.00016298,0
59.315,-0.00014553,0
59.316,-7.8721e-05,0
59.316,3.508e-05,0
59.317,0.00013378,0
59.317,0.00016449,0
59.318,0.00012253,0
59.318,4.1123e-05,0
59.319,-3.5416e-05,0
59.32,-8.6442e-05,0
59.32,-0.00010625,0
59.321,-9.8192e-05,0
59.321,-8.5267e-05,0
59.322,-7.8721e-05,0
59.322,-6.8986e-05,0
59.323,-5.4215e-05,0
59.323,-4.3809e-05,0
59.324,-3.8941e-05,0
59.324,-2.5849e-05,0
59.325,5.0355e-07,0
59.325,3.2731e-05,0
59.326,5.8244e-05,0
59.326,7.3686e-05,0
59.327,7.9896e-05,0
59.327,8.2246e-05,0
59.328,8.6442e-05,0
59.328,9.1142e-05,0
59.329,9.3156e-05,0
59.329,8.8121e-05,0
59.33,7.6707e-05,0
59.33,6.3447e-05,0
59.331,4.6494e-05,0
59.331,3.1388e-05,0
59.332,3.2563e-05,0
59.333,4.3977e-05,0
59.333,4.9516e-05,0
59.334,4.8844e-05,0
59.334,5.623e-05,0
59.335,6.9657e-05,0
59.335,7.3014e-05,0
59.336,6.2104e-05,0
59.336,4.5151e-05,0
59.337,2.9038e-05,0
59.337,1.9974e-05,0
59.338,2.1653e-05,0
59.338,2.2995e-05,0
59.339,1.3931e-05,0
59.339,2.8534e-06,0
59.34,6.0426e-06,0
59.34,2.6688e-05,0
59.341,5.2705e-05,0
59.341,6.9657e-05,0
59.342,7.7043e-05,0
59.342,8.3757e-05,0
59.343,9.6345e-05,0
59.343,0.00011263,0
59.344,0.00011498,0
59.344,0.00010256,0
59.345,9.9535e-05,0
59.345,0.00011196,0
59.346,0.00012404,0
59.347,0.00013143,0
59.347,0.00013243,0
59.348,0.00012605,0
59.348,0.00011582,0
59.349,9.4499e-05,0
59.349,6.6972e-05,0
59.35,4.2802e-05,0
59.35,1.4267e-05,0
59.351,-2.1653e-05,0
59.351,-5.0019e-05,0
59.352,-7.1672e-05,0
59.352,-9.5674e-05,0
59.353,-0.00011028,0
59.353,-8.8289e-05,0
59.354,-3.7263e-05,0
59.354,1.1749e-06,0
59.355,2.0142e-06,0
59.355,-3.6088e-05,0
59.356,-7.4693e-05,0
59.356,-5.2873e-05,0
59.357,3.6759e-05,0
59.357,0.00013982,0
59.358,0.00019152,0
59.358,0.00017574,0
59.359,0.00011212,0
59.359,1.8631e-05,0
59.36,-7.7379e-05,0
59.361,-0.00015258,0
59.361,-0.00019739,0
59.362,-0.00021183,0
59.362,-0.00019773,0
59.363,-0.00016097,0
59.363,-0.00012102,0
59.364,-9.4667e-05,0
59.364,-8.0735e-05,0
59.365,-6.4958e-05,0
59.365,-4.0452e-05,0
59.366,-2.5681e-05,0
59.366,-2.8702e-05,0
59.367,-4.0116e-05,0
59.367,-4.8508e-05,0
59.368,-4.4984e-05,0
59.368,-3.0045e-05,0
59.369,-4.5319e-06,0
59.369,3.1556e-05,0
59.37,6.3111e-05,0
59.37,7.7714e-05,0
59.371,7.4357e-05,0
59.371,6.4958e-05,0
59.372,6.0929e-05,0
59.372,6.3783e-05,0
59.373,7.0832e-05,0
59.374,7.4861e-05,0
59.374,8.0064e-05,0
59.375,9.5003e-05,0
59.375,0.0001091,0
59.376,0.00011582,0
59.376,0.00012857,0
59.377,0.00015157,0
59.377,0.00017859,0
59.378,0.00019957,0
59.378,0.00020998,0
59.379,0.00019387,0
59.379,0.00013848,0
59.38,7.2343e-05,0
59.38,2.6688e-05,0
59.381,8.5603e-06,0
59.381,-4.5319e-06,0
59.382,-3.3402e-05,0
59.382,-7.9057e-05,0
59.383,-0.00012186,0
59.383,-0.00014318,0
59.384,-0.00014066,0
59.384,-0.00012253,0
59.385,-8.9632e-05,0
59.385,-4.5823e-05,0
59.386,-6.8818e-06,0
59.386,1.796e-05,0
59.387,2.8367e-05,0
59.388,3.0884e-05,0
59.388,4.2466e-05,0
59.389,7.6371e-05,0
59.389,0.0001133,0
59.39,0.0001321,0
59.39,0.00013831,0
59.391,0.00014955,0
59.391,0.00015291,0
59.392,0.00012706,0
59.392,7.4357e-05,0
59.393,1.3931e-05,0
59.393,-3.2395e-05,0
59.394,-5.1362e-05,0
59.394,-5.4551e-05,0
59.395,-6.0761e-05,0
59.395,-6.9322e-05,0
59.396,-7.7043e-05,0
59.396,-8.4932e-05,0
59.397,-9.6513e-05,0
59.397,-0.00010474,0
59.398,-0.00010138,0
59.398,-8.8289e-05,0
59.399,-6.7308e-05,0
59.399,-4.3137e-05,0
59.4,-1.5442e-05,0
59.401,1.9135e-05,0
59.401,4.2466e-05,0
59.402,3.9445e-05,0
59.402,2.3331e-05,0
59.403,5.7069e-06,0
59.403,-1.9471e-05,0
59.404,-4.8173e-05,0
59.404,-6.63e-05,0
59.405,-7.2847e-05,0
59.405,-6.3615e-05,0
59.406,-2.7863e-05,0
59.406,2.8702e-05,0
59.407,7.4861e-05,0
59.407,9.1142e-05,0
59.408,8.7785e-05,0
59.408,7.4861e-05,0
59.409,6.5629e-05,0
59.409,6.9657e-05,0
59.41,7.9057e-05,0
59.41,8.275e-05,0
59.411,8.2918e-05,0
59.411,8.7114e-05,0
59.412,9.9535e-05,0
59.412,0.00011766,0
59.413,0.00013042,0
59.413,0.0001237,0
59.414,9.6178e-05,0
59.415,6.8315e-05,0
59.415,5.0187e-05,0
59.416,3.0549e-05,0
59.416,4.3641e-06,0
59.417,-1.9471e-05,0
59.417,-2.7024e-05,0
59.418,-2.3331e-05,0
59.418,-2.0813e-05,0
59.419,-1.796e-05,0
59.419,-1.091e-05,0
59.42,-2.6856e-06,0
59.42,5.2033e-06,0
59.421,1.4939e-05,0
59.421,2.9709e-05,0
59.422,4.9348e-05,0
59.422,7.0329e-05,0
59.423,8.6107e-05,0
59.423,9.3156e-05,0
59.424,9.1142e-05,0
59.424,7.6707e-05,0
59.425,5.7237e-05,0
59.425,4.7501e-05,0
59.426,4.1291e-05,0
59.426,2.4674e-05,0
59.427,-2.0142e-06,0
59.428,-2.4338e-05,0
59.428,-3.0381e-05,0
59.429,-1.8631e-05,0
59.429,6.3783e-06,0
59.43,3.743e-05,0
59.43,7.6036e-05,0
59.431,0.00012169,0
59.431,0.0001566,0
59.432,0.00016147,0
59.432,0.0001378,0
59.433,0.00010507,0
59.433,7.1336e-05,0
59.434,3.0716e-05,0
59.434,-1.4267e-05,0
59.435,-5.5055e-05,0
59.435,-8.2414e-05,0
59.436,-0.0001044,0
59.436,-0.00012219,0
59.437,-0.00012354,0
59.437,-0.00011363,0
59.438,-0.00010491,0
59.438,-0.00010222,0
59.439,-9.7688e-05,0
59.439,-7.8218e-05,0
59.44,-4.7166e-05,0
59.441,-1.6617e-05,0
59.441,1.3596e-05,0
59.442,5.2201e-05,0
59.442,9.836e-05,0
59.443,0.00013344,0
59.443,0.000165,0
59.444,0.00020327,0
59.444,0.00022206,0
59.445,0.00019017,0
59.445,0.00011296,0
59.446,3.2395e-05,0
59.446,2.4002e-05,0
59.447,8.5771e-05,0
59.447,0.00013613,0
59.448,0.00012572,0
59.448,7.8721e-05,0
59.449,5.6901e-05,0
59.449,7.3686e-05,0
59.45,8.7114e-05,0
59.45,4.8676e-05,0
59.451,-3.7598e-05,0
59.451,-0.00012236,0
59.452,-0.00016835,0
59.452,-0.00018782,0
59.453,-0.00020226,0
59.453,-0.00022307,0
59.454,-0.00025161,0
59.455,-0.00027208,0
59.455,-0.00026302,0
59.456,-0.00021971,0
59.456,-0.00014855,0
59.457,-6.0594e-05,0
59.457,2.0645e-05,0
59.458,8.2078e-05,0
59.458,0.00013243,0
59.459,0.00018782,0
59.459,0.0002459,0
59.46,0.00027376,0
59.46,0.00024657,0
59.461,0.00017842,0
59.461,0.00010491,0
59.462,5.1865e-05,0
59.462,3.0884e-05,0
59.463,5.0523e-05,0
59.463,0.00011196,0
59.464,0.00015879,0
59.464,0.00013411,0
59.465,3.3234e-05,0
59.465,-0.00011397,0
59.466,-0.00026369,0
59.466,-0.00037229,0
59.467,-0.00041224,0
59.468,-0.00037934,0
59.468,-0.00028618,0
59.469,-0.00016265,0
59.469,-4.3305e-05,0
59.47,2.8534e-05,0
59.47,3.8437e-05,0
59.471,2.2828e-05,0
59.471,2.9374e-05,0
59.472,8.1407e-05,0
59.472,0.00014351,0
59.473,0.00015375,0
59.473,9.8863e-05,0
59.474,2.1149e-05,0
59.474,-4.0787e-05,0
59.475,-7.9393e-05,0
59.475,-9.7353e-05,0
59.476,-0.00010105,0
59.476,-8.9464e-05,0
59.477,-6.8315e-05,0
59.477,-3.4745e-05,0
59.478,8.7282e-06,0
59.478,4.8844e-05,0
59.479,8.04e-05,0
59.479,0.00010826,0
59.48,0.00013344,0
59.48,0.00015543,0
59.481,0.00017607,0
59.482,0.00018715,0
59.482,0.00018363,0
59.483,0.0001702,0
59.483,0.00015694,0
59.484,0.00015509,0
59.484,0.00017977,0
59.485,0.00021988,0
59.485,0.00023381,0
59.486,0.00019387,0
59.486,0.00012572,0
59.487,7.57e-05,0
59.487,8.1575e-05,0
59.488,0.0001274,0
59.488,0.00015291,0
59.489,0.00014217,0
59.489,0.0001284,0
59.49,0.00011162,0
59.49,9.1142e-05,0
59.491,9.0806e-05,0
59.491,9.2317e-05,0
59.492,0.00010558,0
59.492,0.00014955,0
59.493,0.00017977,0
59.493,0.00016802,0
59.494,0.00012404,0
59.495,7.335e-05,0
59.495,3.2731e-05,0
59.496,0,0
59.496,-1.8463e-05,0
59.497,-1.4939e-05,0
59.497,4.8676e-06,0
59.498,1.5274e-05,0
59.498,2.9541e-05,0
59.499,0.00010423,0
59.499,0.0001937,0
59.5,0.00020797,0
59.5,0.000118,0
59.501,-4.1459e-05,0
59.501,-0.0002083,0
59.502,-0.00033385,0
59.502,-0.00040049,0
59.503,-0.00039176,0
59.503,-0.000307,0
59.504,-0.00020461,0
59.504,-0.00013931,0
59.505,-9.2821e-05,0
59.505,-4.5487e-05,0
59.506,-3.2059e-05,0
59.506,-5.0187e-05,0
59.507,-6.4958e-05,0
59.507,-5.388e-05,0
59.508,4.1962e-06,0
59.509,0.00010289,0
59.509,0.00014687,0
59.51,9.7856e-05,0
59.51,-2.3499e-06,0
59.511,-0.00011212,0
59.511,-0.00020394,0
59.512,-0.00024892,0
59.512,-0.00021669,0
59.513,-0.0001321,0
59.513,-6.8818e-05,0
59.514,-6.7308e-05,0
59.514,-9.5506e-05,0
59.515,-0.00010793,0
59.515,-8.5771e-05,0
59.516,-4.4816e-05,0
59.516,-2.4002e-05,0
59.517,-3.0045e-05,0
59.517,-1.7624e-05,0
59.518,3.1388e-05,0
59.518,9.8527e-05,0
59.519,0.00013545,0
59.519,0.00013948,0
59.52,0.00012706,0
59.52,9.3492e-05,0
59.521,6.1601e-05,0
59.522,4.8173e-05,0
59.522,3.7095e-05,0
59.523,2.7527e-05,0
59.523,3.9109e-05,0
59.524,6.009e-05,0
59.524,4.7669e-05,0
59.525,-1.5442e-05,0
59.525,-0.00010222,0
59.526,-0.00013831,0
59.526,-8.426e-05,0
59.527,1.1078e-05,0
59.527,0.00010105,0
59.528,0.00016349,0
59.528,0.00019185,0
59.529,0.00018631,0
59.529,0.00014553,0
59.53,8.661e-05,0
59.53,3.592e-05,0
59.531,5.8747e-06,0
59.531,-1.091e-05,0
59.532,-3.3066e-05,0
59.532,-5.388e-05,0
59.533,-5.1194e-05,0
59.533,-2.4674e-05,0
59.534,1.2253e-05,0
59.534,3.7934e-05,0
59.535,5.4551e-05,0
59.536,8.8792e-05,0
59.536,0.00015123,0
59.537,0.0002313,0
59.537,0.00031304,0
59.538,0.0003597,0
59.538,0.00035618,0
59.539,0.00032915,0
59.539,0.00030045,0
59.54,0.00025563,0
59.54,0.00018648,0
59.541,0.00010826,0
59.541,3.6088e-05,0
59.542,-2.8031e-05,0
59.542,-8.5267e-05,0
59.543,-0.0001472,0
59.543,-0.00021418,0
59.544,-0.00026856,0
59.544,-0.00029071,0
59.545,-0.00027779,0
59.545,-0.00024254,0
59.546,-0.00019655,0
59.546,-0.00013948,0
59.547,-5.9754e-05,0
59.547,4.3641e-05,0
59.548,0.0001368,0
59.548,0.00018077,0
59.549,0.00018447,0
59.55,0.00016197,0
59.55,0.00011363,0
59.551,4.8173e-05,0
59.551,-1.326e-05,0
59.552,-5.388e-05,0
59.552,-6.3951e-05,0
59.553,-5.9586e-05,0
59.553,-5.5222e-05,0
59.554,-4.7501e-05,0
59.554,-3.3066e-05,0
59.555,-2.2995e-05,0
59.555,-1.8967e-05,0
59.556,-9.9031e-06,0
59.556,4.8676e-06,0
59.557,1.8296e-05,0
59.557,3.0716e-05,0
59.558,4.2466e-05,0
59.558,5.3376e-05,0
59.559,6.4958e-05,0
59.559,7.805e-05,0
59.56,9.0471e-05,0
59.56,9.7856e-05,0
59.561,0.00010524,0
59.561,0.00011968,0
59.562,0.00014989,0
59.563,0.00019857,0
59.563,0.00024758,0
59.564,0.00026302,0
59.564,0.00022324,0
59.565,0.0001378,0
59.565,3.8605e-05,0
59.566,-3.0045e-05,0
59.566,-6.0761e-05,0
59.567,-9.0639e-05,0
59.567,-0.00010776,0
59.568,-7.6371e-05,0
59.568,-3.4241e-05,0
59.569,-5.153e-05,0
59.569,-0.0001185,0
59.57,-0.00016114,0
59.57,-0.00013294,0
59.571,-5.9586e-05,0
59.571,4.5319e-06,0
59.572,3.2395e-05,0
59.572,2.031e-05,0
59.573,-7.5532e-06,0
59.573,-2.6352e-05,0
59.574,-3.7766e-05,0
59.574,-4.8173e-05,0
59.575,-5.1865e-05,0
59.575,-4.5151e-05,0
59.576,-3.592e-05,0
59.577,-3.0213e-05,0
59.577,-3.1891e-05,0
59.578,-2.8367e-05,0
59.578,1.796e-05,0
59.579,9.5506e-05,0
59.579,0.00016046,0
59.58,0.00019387,0
59.58,0.00019857,0
59.581,0.00018379,0
59.581,0.00015291,0
59.582,0.00012555,0
59.582,0.00011867,0
59.583,0.0001321,0
59.583,0.00015929,0
59.584,0.00016735,0
59.584,0.00012807,0
59.585,6.9657e-05,0
59.585,3.3066e-05,0
59.586,3.1891e-06,0
59.586,-4.5991e-05,0
59.587,-0.00011431,0
59.587,-0.00018077,0
59.588,-0.00019722,0
59.588,-0.00015526,0
59.589,-0.00010608,0
59.59,-9.1142e-05,0
59.59,-0.00011229,0
59.591,-0.00013948,0
59.591,-0.00012438,0
59.592,-7.6539e-05,0
59.592,-4.6159e-05,0
59.593,-5.3208e-05,0
59.593,-8.4428e-05,0
59.594,-0.00012001,0
59.594,-0.00012908,0
59.595,-0.00010289,0
59.595,-5.4551e-05,0
59.596,-1.5106e-06,0
59.596,2.8367e-05,0
59.597,1.5274e-05,0
59.597,-2.4674e-05,0
59.598,-6.009e-05,0
59.598,-7.4525e-05,0
59.599,-7.2343e-05,0
59.599,-5.4383e-05,0
59.6,-1.4267e-05,0
59.6,3.4913e-05,0
59.601,6.7643e-05,0
59.601,6.9657e-05,0
59.602,6.0594e-05,0
59.602,8.3085e-05,0
59.603,0.00016063,0
59.604,0.00024489,0
59.604,0.00027611,0
59.605,0.00025362,0
59.605,0.00020394,0
59.606,0.00014267,0
59.606,7.3686e-05,0
59.607,2.0142e-06,0
59.607,-5.0187e-05,0
59.608,-6.0929e-05,0
59.608,-3.9277e-05,0
59.609,-1.1246e-05,0
59.609,1.4435e-05,0
59.61,3.8437e-05,0
59.61,5.4383e-05,0
59.611,5.2537e-05,0
59.611,3.2563e-05,0
59.612,5.0355e-06,0
59.612,5.0355e-06,0
59.613,6.1601e-05,0
59.613,0.00013512,0
59.614,0.00017977,0
59.614,0.0001989,0
59.615,0.00019756,0
59.615,0.00016449,0
59.616,9.7353e-05,0
59.617,2.1317e-05,0
59.617,-4.062e-05,0
59.618,-8.3925e-05,0
59.618,-0.0001138,0
59.619,-0.0001321,0
59.619,-0.00012589,0
59.62,-8.2078e-05,0
59.62,-2.9038e-05,0
59.621,-1.4267e-05,0
59.621,-4.3473e-05,0
59.622,-9.2821e-05,0
59.622,-0.00012303,0
59.623,-0.00011229,0
59.623,-8.6107e-05,0
59.624,-6.7308e-05,0
59.624,-5.4551e-05,0
59.625,-3.9277e-05,0
59.625,-2.3331e-05,0
59.626,-1.1917e-05,0
59.626,4.1962e-06,0
59.627,2.5849e-05,0
59.627,4.683e-05,0
59.628,6.4286e-05,0
59.628,8.0735e-05,0
59.629,8.9128e-05,0
59.63,8.4092e-05,0
59.63,7.335e-05,0
59.631,6.1265e-05,0
59.631,5.0019e-05,0
59.632,4.6998e-05,0
59.632,4.8173e-05,0
59.633,4.9516e-05,0
59.633,6.5965e-05,0
59.634,0.00011128,0
59.634,0.0001744,0
59.635,0.00022441,0
59.635,0.00026151,0
59.636,0.00028316,0
59.636,0.00026839,0
59.637,0.00021334,0
59.637,0.00013629,0
59.638,5.8244e-05,0
59.638,-6.8818e-06,0
59.639,-6.479e-05,0
59.639,-0.00011917,0
59.64,-0.00015677,0
59.64,-0.00017003,0
59.641,-0.00016197,0
59.641,-0.00013445,0
59.642,-8.5267e-05,0
59.642,-8.896e-06,0
59.643,5.3544e-05,0
59.644,7.0832e-05,0
59.644,6.8986e-05,0
59.645,6.4622e-05,0
59.645,5.4215e-05,0
59.646,3.8941e-05,0
59.646,2.8031e-05,0
59.647,2.7192e-05,0
59.647,5.0858e-05,0
59.648,7.9896e-05,0
59.648,8.3925e-05,0
59.649,5.4887e-05,0
59.649,-3.357e-07,0
59.65,-6.7643e-05,0
59.65,-0.00012908,0
59.651,-0.00015258,0
59.651,-0.00012136,0
59.652,-5.8579e-05,0
59.652,-3.5248e-06,0
59.653,2.5345e-05,0
59.653,3.743e-05,0
59.654,3.0716e-05,0
59.654,8.3925e-07,0
59.655,-4.213e-05,0
59.655,-6.865e-05,0
59.656,-6.2943e-05,0
59.657,-2.8702e-05,0
59.657,1.8296e-05,0
59.658,4.7837e-05,0
59.658,3.6088e-05,0
59.659,4.5319e-06,0
59.659,-1.9135e-05,0
59.66,-4.2634e-05,0
59.66,-5.6901e-05,0
59.661,-4.5487e-05,0
59.661,-2.4338e-05,0
59.662,-1.6617e-05,0
59.662,-2.1653e-05,0
59.663,-1.561e-05,0
59.663,1.4939e-05,0
59.664,6.009e-05,0
59.664,8.7785e-05,0
59.665,7.1e-05,0
59.665,4.0116e-05,0
59.666,4.0116e-05,0
59.666,6.2943e-05,0
59.667,8.1743e-05,0
59.667,9.836e-05,0
59.668,0.000118,0
59.668,0.00014217,0
59.669,0.00016634,0
59.669,0.00016869,0
59.67,0.00015358,0
59.671,0.0001425,0
59.671,0.00012136,0
59.672,7.4022e-05,0
59.672,3.8605e-06,0
59.673,-6.5293e-05,0
59.673,-0.00011783,0
59.674,-0.0001472,0
59.674,-0.00014435,0
59.675,-0.0001227,0
59.675,-0.00010591,0
59.676,-9.2653e-05,0
59.676,-7.4861e-05,0
59.677,-6.0594e-05,0
59.677,-5.7908e-05,0
59.678,-5.4215e-05,0
59.678,-3.7766e-05,0
59.679,-7.8889e-06,0
59.679,3.3906e-05,0
59.68,9.7856e-05,0
59.68,0.00017943,0
59.681,0.00026168,0
59.681,0.00031102,0
59.682,0.00029693,0
59.682,0.00023012,0
59.683,0.00014418,0
59.684,6.2104e-05,0
59.684,3.6927e-06,0
59.685,-1.326e-05,0
59.685,-5.539e-06,0
59.686,-7.8889e-06,0
59.686,-4.0787e-05,0
59.687,-8.1743e-05,0
59.687,-0.00010927,0
59.688,-0.00011296,0
59.688,-9.752e-05,0
59.689,-8.0232e-05,0
59.689,-7.57e-05,0
59.69,-7.4693e-05,0
59.69,-6.1601e-05,0
59.691,-3.9612e-05,0
59.691,-1.8967e-05,0
59.692,-5.0355e-06,0
59.692,8.3925e-06,0
59.693,1.8463e-05,0
59.693,3.1556e-05,0
59.694,5.1194e-05,0
59.694,6.9993e-05,0
59.695,8.1743e-05,0
59.695,7.9393e-05,0
59.696,5.8915e-05,0
59.696,3.1891e-05,0
59.697,1.6617e-05,0
59.698,2.8031e-05,0
59.698,6.7979e-05,0
59.699,0.0001321,0
59.699,0.00020629,0
59.7,0.00025631,0
59.7,0.00026436,0
59.701,0.00024355,0
59.701,0.00021032,0
59.702,0.00017708,0
59.702,0.00014687,0
59.703,9.9031e-05,0
59.703,2.9038e-05,0
59.704,-3.827e-05,0
59.704,-8.4764e-05,0
59.705,-0.00012387,0
59.705,-0.00017121,0
59.706,-0.00020444,0
59.706,-0.00020964,0
59.707,-0.00021082,0
59.707,-0.00022173,0
59.708,-0.00023365,0
59.708,-0.00023868,0
59.709,-0.00022441,0
59.709,-0.00018631,0
59.71,-0.00013294,0
59.711,-6.8482e-05,0
59.711,-5.2033e-06,0
59.712,3.4577e-05,0
59.712,5.6733e-05,0
59.713,0.00010843,0
59.713,0.00019034,0
59.714,0.00025882,0
59.714,0.00028618,0
59.715,0.00027276,0
59.715,0.00024137,0
59.716,0.00022324,0
59.716,0.00022106,0
59.717,0.00020377,0
59.717,0.00017137,0
59.718,0.00014116,0
59.718,0.00010658,0
59.719,6.4286e-05,0
59.719,2.3331e-05,0
59.72,-4.3137e-05,0
59.72,-0.00013109,0
59.721,-0.0001942,0
59.721,-0.00021015,0
59.722,-0.00019118,0
59.722,-0.0001707,0
59.723,-0.00016869,0
59.723,-0.00017272,0
59.724,-0.00016902,0
59.725,-0.00016231,0
59.725,-0.00015509,0
59.726,-0.00013394,0
59.726,-9.6513e-05,0
59.727,-6.7979e-05,0
59.727,-5.2537e-05,0
59.728,-3.6088e-05,0
59.728,-9.5674e-06,0
59.729,3.122e-05,0
59.729,8.04e-05,0
59.73,0.00011481,0
59.73,0.0001284,0
59.731,0.00013227,0
59.731,0.00013394,0
59.732,0.0001331,0
59.732,0.0001232,0
59.733,0.00010088,0
59.733,7.2847e-05,0
59.734,5.0523e-05,0
59.734,3.4073e-05,0
59.735,1.2253e-05,0
59.735,-3.5248e-06,0
59.736,1.6785e-06,0
59.736,2.6688e-05,0
59.737,5.4215e-05,0
59.737,9.5003e-05,0
59.738,0.00016584,0
59.739,0.00023314,0
59.739,0.0002694,0
59.74,0.00025882,0
59.74,0.0002031,0
59.741,0.00014267,0
59.741,9.8863e-05,0
59.742,6.2272e-05,0
59.742,2.7192e-05,0
59.743,-5.0355e-07,0
59.743,-2.182e-06,0
59.744,1.8296e-05,0
59.744,2.7695e-05,0
59.745,1.1749e-05,0
59.745,-2.3163e-05,0
59.746,-6.1936e-05,0
59.746,-8.2918e-05,0
59.747,-7.7211e-05,0
59.747,-6.4622e-05,0
59.748,-5.9251e-05,0
59.748,-4.8508e-05,0
59.749,-2.2324e-05,0
59.749,8.5603e-06,0
59.75,2.5345e-05,0
59.75,1.4939e-05,0
59.751,-1.5106e-05,0
59.752,-4.6159e-05,0
59.752,-7.0161e-05,0
59.753,-8.5435e-05,0
59.753,-9.4499e-05,0
59.754,-9.2485e-05,0
59.754,-6.5293e-05,0
59.755,-1.6617e-05,0
59.755,2.1149e-05,0
59.756,1.4939e-05,0
59.756,-1.561e-05,0
59.757,-2.2828e-05,0
59.757,1.326e-05,0
59.758,6.8986e-05,0
59.758,0.00010961,0
59.759,0.00011968,0
59.759,0.00010709,0
59.76,8.5771e-05,0
59.76,6.1936e-05,0
59.761,3.7766e-05,0
59.761,1.326e-05,0
59.762,-4.5319e-06,0
59.762,1.7288e-05,0
59.763,7.4357e-05,0
59.763,0.00011968,0
59.764,0.00015224,0
59.764,0.0001744,0
59.765,0.000166,0
59.766,0.00012706,0
59.766,7.6707e-05,0
59.767,2.266e-05,0
59.767,-2.031e-05,0
59.768,-4.8508e-05,0
59.768,-8.1407e-05,0
59.769,-0.00012018,0
59.769,-0.00014435,0
59.77,-0.00015425,0
59.77,-0.00015778,0
59.771,-0.00015073,0
59.771,-0.00010826,0
59.772,-2.2324e-05,0
59.772,7.8889e-05,0
59.773,0.00017641,0
59.773,0.00025127,0
59.774,0.0002741,0
59.774,0.00025396,0
59.775,0.00021149,0
59.775,0.00014183,0
59.776,5.4887e-05,0
59.776,-1.9638e-05,0
59.777,-8.04e-05,0
59.777,-0.00014049,0
59.778,-0.00018648,0
59.779,-0.00019705,0
59.779,-0.00018514,0
59.78,-0.00019101,0
59.78,-0.00022123,0
59.781,-0.00023247,0
59.781,-0.00019739,0
59.782,-0.00013596,0
59.782,-9.2149e-05,0
59.783,-8.4764e-05,0
59.783,-9.0806e-05,0
59.784,-7.8386e-05,0
59.784,-3.978e-05,0
59.785,1.2589e-05,0
59.785,6.5629e-05,0
59.786,0.00011498,0
59.786,0.00015425,0
59.787,0.00017758,0
59.787,0.00019387,0
59.788,0.00020629,0
59.788,0.00020125,0
59.789,0.000165,0
59.789,0.00010826,0
59.79,6.4958e-05,0
59.79,4.683e-05,0
59.791,3.743e-05,0
59.791,2.8031e-05,0
59.792,2.4002e-05,0
59.793,2.2324e-05,0
59.793,1.8128e-05,0
59.794,1.5274e-05,0
59.794,2.501e-05,0
59.795,4.5487e-05,0
59.795,6.4622e-05,0
59.796,7.2007e-05,0
59.796,7.0329e-05,0
59.797,6.8482e-05,0
59.797,7.335e-05,0
59.798,8.4932e-05,0
59.798,9.0806e-05,0
59.799,8.3757e-05,0
59.799,7.0832e-05,0
59.8,6.2272e-05,0
59.8,5.8076e-05,0
59.801,5.3376e-05,0
59.801,5.0019e-05,0
59.802,5.6901e-05,0
59.802,7.8889e-05,0
59.803,0.00010558,0
59.803,0.00012404,0
59.804,0.00012387,0
59.804,0.0001039,0
59.805,7.4357e-05,0
59.806,5.0187e-05,0
59.806,3.0716e-05,0
59.807,1.0575e-05,0
59.807,-9.0639e-06,0
59.808,-2.7527e-05,0
59.808,-5.388e-05,0
59.809,-8.3757e-05,0
59.809,-9.601e-05,0
59.81,-7.8889e-05,0
59.81,-3.743e-05,0
59.811,1.6281e-05,0
59.811,6.4286e-05,0
59.812,9.1814e-05,0
59.812,9.3828e-05,0
59.813,8.51e-05,0
59.813,8.1743e-05,0
59.814,0.00011128,0
59.814,0.0001942,0
59.815,0.00030129,0
59.815,0.00036507,0
59.816,0.00036155,0
59.816,0.00031337,0
59.817,0.00021871,0
59.817,8.1239e-05,0
59.818,-6.4118e-05,0
59.819,-0.00019303,0
59.819,-0.00030448,0
59.82,-0.00038555,0
59.82,-0.00042432,0
59.821,-0.00044128,0
59.821,-0.00042936,0
59.822,-0.0003409,0
59.822,-0.00018816,0
59.823,-2.9038e-05,0
59.823,7.6707e-05,0
59.824,0.00013831,0
59.824,0.00017171,0
59.825,0.000166,0
59.825,0.00012035,0
59.826,3.8941e-05,0
59.826,-5.7572e-05,0
59.827,-0.00014452,0
59.827,-0.00019907,0
59.828,-0.00020729,0
59.828,-0.00020243,0
59.829,-0.00020763,0
59.829,-0.00020645,0
59.83,-0.0001984,0
59.83,-0.0001848,0
59.831,-0.00015929,0
59.831,-0.00012253,0
59.832,-7.7546e-05,0
59.833,-4.1291e-05,0
59.833,-2.9038e-05,0
59.834,-3.1724e-05,0
59.834,-2.2324e-05,0
59.835,2.3499e-05,0
59.835,8.1743e-05,0
59.836,0.00011699,0
59.836,0.00013042,0
59.837,0.00013545,0
59.837,0.00014855,0
59.838,0.00017339,0
59.838,0.00017792,0
59.839,0.0001472,0
59.839,0.00010558,0
59.84,6.8315e-05,0
59.84,3.3906e-05,0
59.841,1.1917e-05,0
59.841,7.8889e-06,0
59.842,1.7121e-05,0
59.842,3.0549e-05,0
59.843,4.5487e-05,0
59.843,5.1865e-05,0
59.844,4.5487e-05,0
59.844,4.0452e-05,0
59.845,4.7837e-05,0
59.846,6.4958e-05,0
59.846,8.3253e-05,0
59.847,9.8024e-05,0
59.847,0.00010524,0
59.848,0.00010121,0
59.848,8.7785e-05,0
59.849,7.2343e-05,0
59.849,6.63e-05,0
59.85,7.0329e-05,0
59.85,7.7379e-05,0
59.851,8.2078e-05,0
59.851,8.51e-05,0
59.852,8.8457e-05,0
59.852,0.00010289,0
59.853,0.0001279,0
59.853,0.00014687,0
59.854,0.00015291,0
59.854,0.00015274,0
59.855,0.00014569,0
59.855,0.00013126,0
59.856,0.00011229,0
59.856,8.5267e-05,0
59.857,5.4719e-05,0
59.857,3.2395e-05,0
59.858,2.501e-05,0
59.858,2.5849e-05,0
59.859,2.6688e-05,0
59.86,3.6088e-05,0
59.86,7.3014e-05,0
59.861,0.00013613,0
59.861,0.00019286,0
59.862,0.00021938,0
59.862,0.00020998,0
59.863,0.00016533,0
59.863,0.00010356,0
59.864,3.9109e-05,0
59.864,-2.2324e-05,0
59.865,-3.4241e-05,0
59.865,2.7695e-05,0
59.866,0.00011296,0
59.866,0.00014754,0
59.867,0.00011833,0
59.867,9.3156e-05,0
59.868,0.00011934,0
59.868,0.00015761,0
59.869,0.00014737,0
59.869,6.6636e-05,0
59.87,-3.4745e-05,0
59.87,-0.00010709,0
59.871,-0.00014284,0
59.871,-0.00018044,0
59.872,-0.00024489,0
59.873,-0.00028937,0
59.873,-0.00028249,0
59.874,-0.0002553,0
59.874,-0.00025429,0
59.875,-0.00028031,0
59.875,-0.00026134,0
59.876,-0.00018749,0
59.876,-0.00013042,0
59.877,-0.00013243,0
59.877,-0.00017574,0
59.878,-0.00022408,0
59.878,-0.00024187,0
59.879,-0.00020645,0
59.879,-0.0001274,0
59.88,-6.9322e-05,0
59.88,-5.2033e-05,0
59.881,-2.5177e-05,0
59.881,1.9638e-05,0
59.882,4.1459e-05,0
59.882,2.3331e-05,0
59.883,-6.8818e-06,0
59.883,-2.7863e-05,0
59.884,-4.1291e-05,0
59.884,-4.5319e-05,0
59.885,-4.7837e-05,0
59.885,-5.2705e-05,0
59.886,-4.4144e-05,0
59.887,-1.9974e-05,0
59.887,1.4771e-05,0
59.888,6.1601e-05,0
59.888,0.00011162,0
59.889,0.00014871,0
59.889,0.00017171,0
59.89,0.00020343,0
59.89,0.00023398,0
59.891,0.00026084,0
59.891,0.00031002,0
59.892,0.00036474,0
59.892,0.00036239,0
59.893,0.00027158,0
59.893,0.00013411,0
59.894,1.5946e-05,0
59.894,-5.0523e-05,0
59.895,-7.1336e-05,0
59.895,-7.3182e-05,0
59.896,-7.2007e-05,0
59.896,-6.2776e-05,0
59.897,-4.448e-05,0
59.897,-3.8773e-05,0
59.898,-5.3376e-05,0
59.898,-6.0594e-05,0
59.899,-4.448e-05,0
59.9,-1.7288e-05,0
59.9,7.8889e-06,0
59.901,3.0213e-05,0
59.901,5.2873e-05,0
59.902,8.275e-05,0
59.902,0.00013109,0
59.903,0.00023247,0
59.903,0.00039797,0
59.904,0.00058999,0
59.904,0.0007283,0
59.905,0.000733,0
59.905,0.00059385,0
59.906,0.00036474,0
59.906,0.0001039,0
59.907,-0.0001321,0
59.907,-0.00030381,0
59.908,-0.0004166,0
59.908,-0.0004829,0
59.909,-0.00052117,0
59.909,-0.00053527,0
59.91,-0.00050489,0
59.91,-0.00043305,0
59.911,-0.00036323,0
59.911,-0.00031019,0
59.912,-0.0002506,0
59.912,-0.00017624,0
59.913,-0.00010927,0
59.914,-5.8244e-05,0
59.914,-1.8631e-05,0
59.915,8.2246e-06,0
59.915,1.9471e-05,0
59.916,2.0645e-05,0
59.916,2.2995e-05,0
59.917,3.9277e-05,0
59.917,6.8482e-05,0
59.918,0.00011263,0
59.918,0.00016835,0
59.919,0.00020444,0
59.919,0.00020478,0
59.92,0.00017053,0
59.92,0.0001138,0
59.921,6.3447e-05,0
59.921,3.5248e-05,0
59.922,1.9303e-05,0
59.922,8.2246e-06,0
59.923,3.357e-07,0
59.923,-1.3428e-06,0
59.924,3.0213e-06,0
59.924,1.1917e-05,0
59.925,2.6184e-05,0
59.925,4.5319e-05,0
59.926,6.5965e-05,0
59.926,8.5435e-05,0
59.927,9.987e-05,0
59.928,0.00010759,0
59.928,0.00011464,0
59.929,0.00012572,0
59.929,0.00013277,0
59.93,0.00012387,0
59.93,0.0001039,0
59.931,8.1239e-05,0
59.931,5.8076e-05,0
59.932,4.0452e-05,0
59.932,3.508e-05,0
59.933,5.0019e-05,0
59.933,8.0903e-05,0
59.934,0.00010625,0
59.934,0.00011397,0
59.935,0.00011397,0
59.935,0.00010961,0
59.936,0.00010105,0
59.936,9.2485e-05,0
59.937,0.00010105,0
59.937,0.0001472,0
59.938,0.00019991,0
59.938,0.00023818,0
59.939,0.00025765,0
59.939,0.00022744,0
59.94,0.00013495,0
59.941,1.1582e-05,0
59.941,-9.5171e-05,0
59.942,-0.00014821,0
59.942,-0.00017288,0
59.943,-0.00020964,0
59.943,-0.00025748,0
59.944,-0.0002741,0
59.944,-0.00023415,0
59.945,-0.00017574,0
59.945,-0.00013764,0
59.946,-0.00011296,0
59.946,-8.8457e-05,0
59.947,-6.4622e-05,0
59.947,-4.1962e-05,0
59.948,-2.2995e-05,0
59.948,-1.9638e-05,0
59.949,-4.2802e-05,0
59.949,-7.0329e-05,0
59.95,-5.4551e-05,0
59.95,3.743e-05,0
59.951,0.00015023,0
59.951,0.00020897,0
59.952,0.00020192,0
59.952,0.00016701,0
59.953,0.00012152,0
59.953,6.2943e-05,0
59.954,-5.2033e-06,0
59.955,-6.7643e-05,0
59.955,-9.5003e-05,0
59.956,-7.0161e-05,0
59.956,-1.1749e-06,0
59.957,0.00010457,0
59.957,0.00020562,0
59.958,0.00025866,0
59.958,0.00025295,0
59.959,0.0001989,0
59.959,0.0001133,0
59.96,3.4073e-05,0
59.96,-1.4435e-05,0
59.961,-4.7501e-05,0
59.961,-7.3014e-05,0
59.962,-9.4163e-05,0
59.962,-9.601e-05,0
59.963,-7.1168e-05,0
59.963,-6.4622e-05,0
59.964,-8.8457e-05,0
59.964,-0.00011145,0
59.965,-0.00012807,0
59.965,-0.00015795,0
59.966,-0.00020175,0
59.966,-0.00024842,0
59.967,-0.00026856,0
59.968,-0.00022441,0
59.968,-0.00013764,0
59.969,-5.388e-05,0
59.969,1.0575e-05,0
59.97,5.9586e-05,0
59.97,9.3492e-05,0
59.971,0.00010726,0
59.971,9.2485e-05,0
59.972,4.4312e-05,0
59.972,-1.9135e-05,0
59.973,-6.0761e-05,0
59.973,-6.1265e-05,0
59.974,-3.5752e-05,0
59.974,-9.0639e-06,0
59.975,4.5319e-06,0
59.975,1.2421e-05,0
59.976,3.2563e-05,0
59.976,6.3447e-05,0
59.977,9.5506e-05,0
59.977,0.00012186,0
59.978,0.00013512,0
59.978,0.00012522,0
59.979,9.9199e-05,0
59.979,7.4693e-05,0
59.98,6.8315e-05,0
59.98,7.9728e-05,0
59.981,9.1646e-05,0
59.982,9.6513e-05,0
59.982,9.2485e-05,0
59.983,8.6442e-05,0
59.983,9.2485e-05,0
59.984,9.987e-05,0
59.984,9.1478e-05,0
59.985,6.9993e-05,0
59.985,4.9516e-05,0
59.986,3.8102e-05,0
59.986,3.7766e-05,0
59.987,6.7475e-05,0
59.987,0.00012169,0
59.988,0.00016349,0
59.988,0.00016701,0
59.989,0.00014066,0
59.989,9.9702e-05,0
59.99,5.2537e-05,0
59.99,9.2317e-06,0
59.991,5.7069e-06,0
59.991,4.2802e-05,0
59.992,6.5629e-05,0
59.992,4.5151e-05,0
59.993,9.5674e-06,0
59.993,-1.5274e-05,0
59.994,-1.2924e-05,0
59.995,3.2731e-05,0
59.995,0.00010524,0
59.996,0.00015459,0
59.996,0.00015392,0
59.997,9.8863e-05,0
59.997,8.2246e-06,0
59.998,-8.4764e-05,0
59.998,-0.00015845,0
59.999,-0.00020427,0
59.999,-0.00022223,0
60,-0.00019705,0
60,-0.00011246,0
60.001,-8.3925e-07,0
60.001,8.7785e-05,0
60.002,0.00010222,0
60.002,5.0858e-05,0
60.003,-8.7282e-06,0
60.003,-4.918e-05,0
60.004,-7.4022e-05,0
60.004,-9.3156e-05,0
60.005,-0.00010726,0
60.005,-9.6849e-05,0
60.006,-5.7069e-05,0
60.006,-4.8676e-06,0
60.007,3.3402e-05,0
60.008,5.0858e-05,0
60.008,6.479e-05,0
60.009,7.9728e-05,0
60.009,0.00010491,0
60.01,0.00013713,0
60.01,0.0001697,0
60.011,0.00019319,0
60.011,0.00018614,0
60.012,0.00014855,0
60.012,9.3828e-05,0
60.013,4.4816e-05,0
60.013,1.9303e-05,0
60.014,3.8605e-06,0
60.014,-2.9038e-05,0
60.015,-7.1336e-05,0
60.015,-0.00010222,0
60.016,-0.0001331,0
60.016,-0.00016802,0
60.017,-0.00019403,0
60.017,-0.00020125,0
60.018,-0.00017775,0
60.018,-0.00011565,0
60.019,-3.8773e-05,0
60.019,1.7456e-05,0
60.02,4.0787e-05,0
60.02,5.2537e-05,0
60.021,6.63e-05,0
60.022,8.8289e-05,0
60.022,0.00012975,0
60.023,0.0001791,0
60.023,0.00021267,0
60.024,0.00022525,0
60.024,0.00021065,0
60.025,0.0001848,0
60.025,0.00017742,0
60.026,0.00016735,0
60.026,0.00011934,0
60.027,3.9277e-05,0
60.027,-4.1123e-05,0
60.028,-9.836e-05,0
60.028,-0.0001331,0
60.029,-0.00015341,0
60.029,-0.0001514,0
60.03,-0.00012555,0
60.03,-0.00011112,0
60.031,-0.00012908,0
60.031,-0.00014502,0
60.032,-0.00012773,0
60.032,-8.04e-05,0
60.033,-3.2731e-05,0
60.033,-2.8534e-06,0
60.034,1.8967e-05,0
60.035,5.1865e-05,0
60.035,0.00010776,0
60.036,0.00017272,0
60.036,0.00020629,0
60.037,0.00019521,0
60.037,0.00016063,0
60.038,0.00012941,0
60.038,0.00011565,0
60.039,0.00011296,0
60.039,9.7856e-05,0
60.04,7.8721e-05,0
60.04,6.4622e-05,0
60.041,3.8773e-05,0
60.041,4.8676e-06,0
60.042,-1.6785e-05,0
60.042,-1.2924e-05,0
60.043,2.182e-06,0
60.043,1.4267e-05,0
60.044,3.0549e-05,0
60.044,5.5222e-05,0
60.045,6.3783e-05,0
60.045,3.6255e-05,0
60.046,1.0071e-06,0
60.046,-1.0575e-05,0
60.047,3.8605e-06,0
60.047,3.9445e-05,0
60.048,7.5868e-05,0
60.049,9.752e-05,0
60.049,8.9799e-05,0
60.05,5.0858e-05,0
60.05,2.182e-06,0
60.051,-3.1724e-05,0
60.051,-5.6901e-05,0
60.052,-8.3925e-05,0
60.052,-0.00010373,0
60.053,-0.00011766,0
60.053,-0.0001467,0
60.054,-0.00017272,0
60.054,-0.00015778,0
60.055,-0.00010289,0
60.055,-5.0523e-05,0
60.056,-3.1891e-05,0
60.056,-4.1123e-05,0
60.057,-4.8844e-05,0
60.057,-3.9445e-05,0
60.058,-2.2995e-05,0
60.058,-9.2317e-06,0
60.059,1.5106e-06,0
60.059,1.3092e-05,0
60.06,2.2828e-05,0
60.06,3.1724e-05,0
60.061,4.3977e-05,0
60.062,5.8579e-05,0
60.062,7.4861e-05,0
60.063,9.2485e-05,0
60.063,0.00010457,0
60.064,0.00011179,0
60.064,0.00012975,0
60.065,0.00015979,0
60.065,0.00016902,0
60.066,0.00013915,0
60.066,8.5771e-05,0
60.067,3.1891e-05,0
60.067,1.0071e-06,0
60.068,-1.1749e-06,0
60.068,1.3764e-05,0
60.069,3.6088e-05,0
60.069,6.3447e-05,0
60.07,9.0974e-05,0
60.07,0.00010121,0
60.071,9.1814e-05,0
60.071,8.6442e-05,0
60.072,0.00010658,0
60.072,0.00015677,0
60.073,0.00019017,0
60.073,0.00016634,0
60.074,9.5674e-05,0
60.074,4.0284e-06,0
60.075,-8.51e-05,0
60.076,-0.00014704,0
60.076,-0.00016735,0
60.077,-0.0001608,0
60.077,-0.0001608,0
60.078,-0.00016516,0
60.078,-0.00015677,0
60.079,-0.0001373,0
60.079,-0.00011498,0
60.08,-9.2149e-05,0
60.08,-6.4622e-05,0
60.081,-3.2059e-05,0
60.081,2.0142e-06,0
60.082,3.1724e-05,0
60.082,5.153e-05,0
60.083,6.0258e-05,0
60.083,6.5629e-05,0
60.084,8.4092e-05,0
60.084,0.00011481,0
60.085,0.00014418,0
60.085,0.00015694,0
60.086,0.00014855,0
60.086,0.00012572,0
60.087,0.00010541,0
60.087,9.5171e-05,0
60.088,8.1071e-05,0
60.089,5.0187e-05,0
60.089,1.3931e-05,0
60.09,-2.0981e-05,0
60.09,-5.6397e-05,0
60.091,-7.8721e-05,0
60.091,-6.7308e-05,0
60.092,-1.3931e-05,0
60.092,5.2201e-05,0
60.093,9.1646e-05,0
60.093,9.0471e-05,0
60.094,5.9754e-05,0
60.094,2.2995e-05,0
60.095,-2.0142e-06,0
60.095,-1.561e-05,0
60.096,-2.1653e-05,0
60.096,-1.6281e-05,0
60.097,-1.5106e-06,0
60.097,-1.3428e-06,0
60.098,1.4099e-05,0
60.098,8.1743e-05,0
60.099,0.00018447,0
60.099,0.0002845,0
60.1,0.00033066,0
60.1,0.00029558,0
60.101,0.00021451,0
60.101,0.00012303,0
60.102,2.2492e-05,0
60.103,-6.7475e-05,0
60.103,-0.0001237,0
60.104,-0.00015996,0
60.104,-0.0002078,0
60.105,-0.00026,0
60.105,-0.00027813,0
60.106,-0.00025715,0
60.106,-0.00021921,0
60.107,-0.00018732,0
60.107,-0.00017003,0
60.108,-0.00015526,0
60.108,-0.00012992,0
60.109,-9.5338e-05,0
60.109,-6.009e-05,0
60.11,-2.6184e-05,0
60.11,4.3641e-06,0
60.111,2.5345e-05,0
60.111,3.4409e-05,0
60.112,4.2298e-05,0
60.112,5.6901e-05,0
60.113,7.9057e-05,0
60.113,0.00010524,0
60.114,0.00013411,0
60.114,0.00015459,0
60.115,0.00014754,0
60.115,0.00011968,0
60.116,0.00010373,0
60.117,0.00011598,0
60.117,0.00012773,0
60.118,0.00011833,0
60.118,9.987e-05,0
60.119,8.3085e-05,0
60.119,6.5965e-05,0
60.12,4.6326e-05,0
60.12,2.6352e-05,0
60.121,5.8747e-06,0
60.121,-1.8296e-05,0
60.122,-3.7598e-05,0
60.122,-4.3137e-05,0
60.123,-3.9109e-05,0
60.123,-3.2563e-05,0
60.124,-2.0981e-05,0
60.124,0,0
60.125,1.9135e-05,0
60.125,2.7024e-05,0
60.126,2.9709e-05,0
60.126,3.0045e-05,0
60.127,2.4674e-05,0
60.127,1.8296e-05,0
60.128,1.5442e-05,0
60.128,1.561e-05,0
60.129,2.3667e-05,0
60.13,4.3137e-05,0
60.13,6.0594e-05,0
60.131,6.7643e-05,0
60.131,6.5461e-05,0
60.132,5.304e-05,0
60.132,3.4409e-05,0
60.133,2.1653e-05,0
60.133,2.6017e-05,0
60.134,3.8941e-05,0
60.134,5.4215e-05,0
60.135,6.2943e-05,0
60.135,5.4887e-05,0
60.136,3.5416e-05,0
60.136,2.2324e-05,0
60.137,3.1052e-05,0
60.137,5.0187e-05,0
60.138,5.5894e-05,0
60.138,4.5319e-05,0
60.139,3.6759e-05,0
60.139,3.8605e-05,0
60.14,4.3473e-05,0
60.14,4.6159e-05,0
60.141,4.5319e-05,0
60.141,4.4144e-05,0
60.142,3.8102e-05,0
60.142,2.2828e-05,0
60.143,1.2253e-05,0
60.144,1.4267e-05,0
60.144,1.9974e-05,0
60.145,1.8967e-05,0
60.145,5.8747e-06,0
60.146,-1.6281e-05,0
60.146,-2.501e-05,0
60.147,1.8296e-05,0
60.147,9.5842e-05,0
60.148,0.00016197,0
60.148,0.00019991,0
60.149,0.00019118,0
60.149,0.00013176,0
60.15,5.1865e-05,0
60.15,-5.539e-06,0
60.151,-1.5274e-05,0
60.151,9.2317e-06,0
60.152,2.887e-05,0
60.152,2.3667e-05,0
60.153,3.357e-07,0
60.153,-3.1724e-05,0
60.154,-5.9586e-05,0
60.154,-7.8553e-05,0
60.155,-8.9799e-05,0
60.155,-9.7856e-05,0
60.156,-0.00010054,0
60.157,-0.00010642,0
60.157,-0.00012908,0
60.158,-0.00015543,0
60.158,-0.00016432,0
60.159,-0.00016399,0
60.159,-0.00015879,0
60.16,-0.00013193,0
60.16,-7.4693e-05,0
60.161,-8.3925e-07,0
60.161,7.2343e-05,0
60.162,0.00013042,0
60.162,0.00015425,0
60.163,0.00014435,0
60.163,0.00012522,0
60.164,0.00011951,0
60.164,0.00013948,0
60.165,0.00016097,0
60.165,0.00014519,0
60.166,7.7714e-05,0
60.166,-1.561e-05,0
60.167,-9.4163e-05,0
60.167,-0.00013227,0
60.168,-0.00012287,0
60.168,-8.5603e-05,0
60.169,-4.1459e-05,0
60.169,4.8676e-06,0
60.17,6.3111e-05,0
60.171,0.00012572,0
60.171,0.00016466,0
60.172,0.00016231,0
60.172,0.00013411,0
60.173,7.9728e-05,0
60.173,1.8463e-06,0
60.174,-7.5364e-05,0
60.174,-0.00013327,0
60.175,-0.00015442,0
60.175,-0.00012035,0
60.176,-5.7404e-05,0
60.176,-2.5513e-05,0
60.177,-3.6423e-05,0
60.177,-4.5991e-05,0
60.178,-2.8031e-05,0
60.178,-6.714e-07,0
60.179,2.0645e-05,0
60.179,3.3402e-05,0
60.18,4.1794e-05,0
60.18,4.3305e-05,0
60.181,3.4409e-05,0
60.181,2.1317e-05,0
60.182,7.8889e-06,0
60.182,-9.9031e-06,0
60.183,-2.7192e-05,0
60.184,-2.501e-05,0
60.184,7.2175e-06,0
60.185,4.7333e-05,0
60.185,6.2272e-05,0
60.186,5.9922e-05,0
60.186,7.1672e-05,0
60.187,0.00010625,0
60.187,0.00014401,0
60.188,0.00016097,0
60.188,0.00014955,0
60.189,0.00012387,0
60.189,9.5842e-05,0
60.19,6.4286e-05,0
60.19,4.3473e-05,0
60.191,5.3544e-05,0
60.191,7.7714e-05,0
60.192,8.51e-05,0
60.192,7.1e-05,0
60.193,4.683e-05,0
60.193,2.4338e-05,0
60.194,1.326e-05,0
60.194,2.3499e-05,0
60.195,4.7166e-05,0
60.195,5.6062e-05,0
60.196,3.1388e-05,0
60.197,-2.4338e-05,0
60.197,-7.7043e-05,0
60.198,-9.9367e-05,0
60.198,-0.00010172,0
60.199,-9.2653e-05,0
60.199,-5.8412e-05,0
60.2,-8.2246e-06,0
60.2,3.2059e-05,0
60.201,5.7069e-05,0
60.201,7.4693e-05,0
60.202,9.1814e-05,0
60.202,9.987e-05,0
60.203,9.1142e-05,0
60.203,8.2414e-05,0
60.204,9.2485e-05,0
60.204,0.00014855,0
60.205,0.00022693,0
60.205,0.00025664,0
60.206,0.00021099,0
60.206,0.00011531,0
60.207,1.0575e-05,0
60.207,-6.8986e-05,0
60.208,-0.00010222,0
60.208,-0.00010961,0
60.209,-0.00013075,0
60.209,-0.00015778,0
60.21,-0.00018195,0
60.211,-0.00019622,0
60.211,-0.00018262,0
60.212,-0.00013478,0
60.212,-6.7308e-05,0
60.213,2.182e-06,0
60.213,5.4887e-05,0
60.214,6.5126e-05,0
60.214,3.2563e-05,0
60.215,5.539e-06,0
60.215,6.2104e-06,0
60.216,-9.5674e-06,0
60.216,-3.9612e-05,0
60.217,-2.501e-05,0
60.217,3.8773e-05,0
60.218,0.00011968,0
60.218,0.0002318,0
60.219,0.00037179,0
60.219,0.00046981,0
60.22,0.00046175,0
60.22,0.0003409,0
60.221,0.00015912,0
60.221,-2.7359e-05,0
60.222,-0.00019588,0
60.222,-0.00033318,0
60.223,-0.00040922,0
60.224,-0.00041559,0
60.224,-0.00038672,0
60.225,-0.00035467,0
60.225,-0.00031841,0
60.226,-0.00026017,0
60.226,-0.00017893,0
60.227,-9.601e-05,0
60.227,-3.1724e-05,0
60.228,1.1414e-05,0
60.228,5.0355e-05,0
60.229,0.00011078,0
60.229,0.0001791,0
60.23,0.00021804,0
60.23,0.00020595,0
60.231,0.00015123,0
60.231,8.8792e-05,0
60.232,4.5823e-05,0
60.232,1.4771e-05,0
60.233,-1.1582e-05,0
60.233,-1.1917e-05,0
60.234,1.2924e-05,0
60.234,5.1865e-05,0
60.235,0.00010675,0
60.235,0.00016097,0
60.236,0.00019319,0
60.236,0.00020125,0
60.237,0.00020226,0
60.238,0.00020024,0
60.238,0.0001697,0
60.239,0.00010658,0
60.239,3.5416e-05,0
60.24,-2.0813e-05,0
60.24,-4.3809e-05,0
60.241,-3.3906e-05,0
60.241,5.2033e-06,0
60.242,0.00011598,0
60.242,0.00026839,0
60.243,0.00039394,0
60.243,0.0004396,0
60.244,0.00038354,0
60.244,0.00025161,0
60.245,0.00010054,0
60.245,-3.122e-05,0
60.246,-0.00013327,0
60.246,-0.00020108,0
60.247,-0.00024707,0
60.247,-0.00027846,0
60.248,-0.00026537,0
60.248,-0.00018933,0
60.249,-0.00010356,0
60.249,-6.865e-05,0
60.25,-8.5939e-05,0
60.251,-9.366e-05,0
60.251,-6.0258e-05,0
60.252,-2.8367e-05,0
60.252,-2.6352e-05,0
60.253,-5.4887e-05,0
60.253,-9.2653e-05,0
60.254,-0.00010474,0
60.254,-9.2988e-05,0
60.255,-7.0832e-05,0
60.255,-4.8844e-05,0
60.256,-3.7766e-05,0
60.256,-3.6423e-05,0
60.257,-4.3641e-05,0
60.257,-5.153e-05,0
60.258,-2.031e-05,0
60.258,6.5126e-05,0
60.259,0.00014099,0
60.259,0.00017809,0
60.26,0.00020578,0
60.26,0.00023851,0
60.261,0.00023885,0
60.261,0.0001791,0
60.262,9.8863e-05,0
60.262,3.0549e-05,0
60.263,-2.8534e-05,0
60.263,-0.00010021,0
60.264,-0.00018396,0
60.265,-0.00023264,0
60.265,-0.00024355,0
60.266,-0.00025849,0
60.266,-0.00028283,0
60.267,-0.0002845,0
60.267,-0.00024254,0
60.268,-0.00017507,0
60.268,-0.00011296,0
60.269,-6.9993e-05,0
60.269,-3.8437e-05,0
60.27,-1.0239e-05,0
60.27,1.8463e-05,0
60.271,4.918e-05,0
60.271,7.4357e-05,0
60.272,8.5771e-05,0
60.272,0.00010256,0
60.273,0.00013478,0
60.273,0.00016466,0
60.274,0.00018312,0
60.274,0.00018749,0
60.275,0.00017288,0
60.275,0.0001509,0
60.276,0.00013848,0
60.276,0.00013999,0
60.277,0.00015073,0
60.278,0.00016617,0
60.278,0.00017104,0
60.279,0.00015644,0
60.279,0.00013478,0
60.28,0.00011917,0
60.28,0.00011112,0
60.281,0.00010591,0
60.281,0.00010105,0
60.282,9.6345e-05,0
60.282,8.8457e-05,0
60.283,7.4189e-05,0
60.283,6.244e-05,0
60.284,6.0258e-05,0
60.284,6.1265e-05,0
60.285,5.8915e-05,0
60.285,5.388e-05,0
60.286,5.5894e-05,0
60.286,6.4286e-05,0
60.287,7.1672e-05,0
60.287,8.04e-05,0
60.288,9.3492e-05,0
60.288,9.6849e-05,0
60.289,9.3156e-05,0
60.289,9.0806e-05,0
60.29,8.0735e-05,0
60.29,5.7237e-05,0
60.291,2.2995e-05,0
60.292,-1.1749e-05,0
60.292,-3.7934e-05,0
60.293,-5.3376e-05,0
60.293,-5.539e-05,0
60.294,-2.8367e-05,0
60.294,6.0594e-05,0
60.295,0.00016684,0
60.295,0.0002125,0
60.296,0.00019857,0
60.296,0.00015543,0
60.297,8.6442e-05,0
60.297,1.5106e-06,0
60.298,-7.4861e-05,0
60.298,-0.00013999,0
60.299,-0.00020108,0
60.299,-0.0002412,0
60.3,-0.0002407,0
60.3,-0.00020595,0
60.301,-0.00015912,0
60.301,-0.00011867,0
60.302,-8.7449e-05,0
60.302,-6.4622e-05,0
60.303,-5.1194e-05,0
60.303,-4.2802e-05,0
60.304,-3.592e-05,0
60.304,-2.9038e-05,0
60.305,-2.4338e-05,0
60.306,-1.796e-05,0
60.306,-3.8605e-06,0
60.307,8.7282e-06,0
60.307,1.5442e-05,0
60.308,1.1246e-05,0
60.308,-3.5248e-06,0
60.309,-1.561e-05,0
60.309,-9.7353e-06,0
60.31,1.2253e-05,0
60.31,5.1194e-05,0
60.311,0.00010088,0
60.311,0.0001378,0
60.312,0.00015157,0
60.312,0.00014133,0
60.313,0.00011263,0
60.313,7.5029e-05,0
60.314,4.448e-05,0
60.314,3.743e-05,0
60.315,5.2033e-05,0
60.315,6.1601e-05,0
60.316,4.0452e-05,0
60.316,1.2085e-05,0
60.317,8.5603e-06,0
60.317,2.9038e-05,0
60.318,5.5558e-05,0
60.319,5.7069e-05,0
60.319,3.2059e-05,0
60.32,1.4267e-05,0
60.32,5.0187e-05,0
60.321,0.00013915,0
60.321,0.00019655,0
60.322,0.00016432,0
60.322,6.5965e-05,0
60.323,-5.2705e-05,0
60.323,-0.00015895,0
60.324,-0.00023532,0
60.324,-0.00027678,0
60.325,-0.00027427,0
60.325,-0.00022693,0
60.326,-0.00016063,0
60.326,-0.00011582,0
60.327,-0.00010541,0
60.327,-0.00011061,0
60.328,-9.6849e-05,0
60.328,-5.4047e-05,0
60.329,-3.357e-06,0
60.329,3.508e-05,0
60.33,5.5894e-05,0
60.33,6.4622e-05,0
60.331,6.479e-05,0
60.331,5.8747e-05,0
60.332,5.539e-05,0
60.333,6.0258e-05,0
60.333,7.8218e-05,0
60.334,0.00012136,0
60.334,0.0001796,0
60.335,0.00023079,0
60.335,0.00025731,0
60.336,0.00026571,0
60.336,0.00029155,0
60.337,0.00034023,0
60.337,0.00036507,0
60.338,0.00033117,0
60.338,0.00022878,0
60.339,9.1142e-05,0
60.339,-2.9877e-05,0
60.34,-9.4835e-05,0
60.34,-0.00011464,0
60.341,-0.00010105,0
60.341,-6.7308e-05,0
60.342,-4.5151e-05,0
60.342,-4.9516e-05,0
60.343,-7.8386e-05,0
60.343,-0.0001373,0
60.344,-0.00021501,0
60.344,-0.00026369,0
60.345,-0.00023818,0
60.346,-0.00013797,0
60.346,-3.3906e-05,0
60.347,1.7624e-05,0
60.347,1.7624e-05,0
60.348,-1.9471e-05,0
60.348,-6.7308e-05,0
60.349,-9.5506e-05,0
60.349,-8.8792e-05,0
60.35,-5.8076e-05,0
60.35,-2.501e-05,0
60.351,-3.8605e-06,0
60.351,4.6998e-06,0
60.352,2.031e-05,0
60.352,4.6494e-05,0
60.353,7.3686e-05,0
60.353,9.7856e-05,0
60.354,0.00011112,0
60.354,9.9031e-05,0
60.355,4.8676e-05,0
60.355,-2.2324e-05,0
60.356,-6.5965e-05,0
60.356,-6.7643e-05,0
60.357,-6.5797e-05,0
60.357,-8.1407e-05,0
60.358,-9.4163e-05,0
60.358,-8.6275e-05,0
60.359,-5.7908e-05,0
60.36,-1.7121e-05,0
60.36,2.8199e-05,0
60.361,7.9896e-05,0
60.361,0.00014015,0
60.362,0.00018161,0
60.362,0.00018917,0
60.363,0.0001791,0
60.363,0.00016046,0
60.364,0.00012589,0
60.364,8.426e-05,0
60.365,4.7501e-05,0
60.365,1.6449e-05,0
60.366,-8.3925e-06,0
60.366,-2.8367e-05,0
60.367,-3.9612e-05,0
60.367,-3.5752e-05,0
60.368,-1.9974e-05,0
60.368,4.6998e-06,0
60.369,2.9038e-05,0
60.369,4.2634e-05,0
60.37,5.2201e-05,0
60.37,6.5461e-05,0
60.371,8.04e-05,0
60.371,0.00010138,0
60.372,0.00012656,0
60.373,0.00014553,0
60.373,0.00015358,0
60.374,0.00014888,0
60.374,0.0001321,0
60.375,0.00010927,0
60.375,8.8457e-05,0
60.376,7.4861e-05,0
60.376,6.6636e-05,0
60.377,5.0858e-05,0
60.377,2.8702e-05,0
60.378,1.6281e-05,0
60.378,1.2924e-05,0
60.379,1.5274e-05,0
60.379,3.1556e-05,0
60.38,5.5894e-05,0
60.38,6.2776e-05,0
60.381,3.8102e-05,0
60.381,-1.091e-05,0
60.382,-5.8915e-05,0
60.382,-9.0974e-05,0
60.383,-0.00010927,0
60.383,-0.00011095,0
60.384,-9.3828e-05,0
60.384,-7.3014e-05,0
60.385,-5.0355e-05,0
60.386,-3.1891e-06,0
60.386,6.1601e-05,0
60.387,9.8863e-05,0
60.387,9.0471e-05,0
60.388,5.8915e-05,0
60.388,4.3809e-05,0
60.389,4.448e-05,0
60.389,2.9374e-05,0
60.39,-3.1891e-06,0
60.39,-3.6423e-05,0
60.391,-6.0929e-05,0
60.391,-8.3421e-05,0
60.392,-0.00010491,0
60.392,-0.00011498,0
60.393,-0.0001044,0
60.393,-7.8553e-05,0
60.394,-5.3544e-05,0
60.394,-2.9709e-05,0
60.395,7.8889e-06,0
60.395,5.0858e-05,0
60.396,8.51e-05,0
60.396,0.00010071,0
60.397,9.0974e-05,0
60.397,6.7643e-05,0
60.398,4.8005e-05,0
60.398,2.6352e-05,0
60.399,-8.896e-06,0
60.4,-3.8941e-05,0
60.4,-3.7095e-05,0
60.401,-1.326e-05,0
60.401,8.896e-06,0
60.402,2.4338e-05,0
60.402,3.8773e-05,0
60.403,5.8915e-05,0
60.403,9.9199e-05,0
60.404,0.00017691,0
60.404,0.00026033,0
60.405,0.00031673,0
60.405,0.00034258,0
60.406,0.00032445,0
60.406,0.00023297,0
60.407,0.00010591,0
60.407,1.5106e-06,0
60.408,-7.4693e-05,0
60.408,-0.00012908,0
60.409,-0.00015694,0
60.409,-0.00012471,0
60.41,-3.0381e-05,0
60.41,4.5319e-05,0
60.411,4.9516e-05,0
60.411,-5.539e-06,0
60.412,-8.9128e-05,0
60.413,-0.00016466,0
60.413,-0.00021418,0
60.414,-0.00024305,0
60.414,-0.00025664,0
60.415,-0.00024204,0
60.415,-0.00019168,0
60.416,-0.00012572,0
60.416,-8.0064e-05,0
60.417,-5.7572e-05,0
60.417,-4.3641e-05,0
60.418,-2.7863e-05,0
60.418,-1.2253e-05,0
60.419,6.0426e-06,0
60.419,2.887e-05,0
60.42,5.8915e-05,0
60.42,8.3421e-05,0
60.421,8.3757e-05,0
60.421,6.479e-05,0
60.422,4.9516e-05,0
60.422,6.9657e-05,0
60.423,0.00012119,0
60.423,0.00014821,0
60.424,0.00011867,0
60.424,5.9586e-05,0
60.425,1.7288e-05,0
60.425,1.4603e-05,0
60.426,4.3473e-05,0
60.427,7.3686e-05,0
60.427,8.9128e-05,0
60.428,0.0001086,0
60.428,0.00014871,0
60.429,0.00018413,0
60.429,0.00017406,0
60.43,0.00011598,0
60.43,3.4073e-05,0
60.431,-5.0187e-05,0
60.431,-0.00012186,0
60.432,-0.00017893,0
60.432,-0.00021501,0
60.433,-0.00021636,0
60.433,-0.00019638,0
60.434,-0.00016684,0
60.434,-0.00012958,0
60.435,-8.6946e-05,0
60.435,-3.743e-05,0
60.436,1.3596e-05,0
60.436,4.7166e-05,0
60.437,7.0329e-05,0
60.437,9.3156e-05,0
60.438,9.9031e-05,0
60.438,9.0303e-05,0
60.439,8.7785e-05,0
60.44,9.987e-05,0
60.44,0.00011531,0
60.441,0.00013411,0
60.441,0.00016818,0
60.442,0.0002031,0
60.442,0.00021468,0
60.443,0.00018749,0
60.443,0.00013814,0
60.444,0.00010323,0
60.444,8.8792e-05,0
60.445,7.3686e-05,0
60.445,4.4816e-05,0
60.446,3.357e-06,0
60.446,-3.8773e-05,0
60.447,-6.4622e-05,0
60.447,-7.1336e-05,0
60.448,-6.7475e-05,0
60.448,-5.0019e-05,0
60.449,-1.6785e-05,0
60.449,9.5674e-06,0
60.45,1.8631e-05,0
60.45,1.6281e-05,0
60.451,1.2253e-05,0
60.451,1.0575e-05,0
60.452,1.1078e-05,0
60.452,1.326e-05,0
60.453,2.2324e-05,0
60.454,3.6927e-05,0
60.454,4.3809e-05,0
60.455,4.0116e-05,0
60.455,4.0116e-05,0
60.456,5.5894e-05,0
60.456,7.335e-05,0
60.457,7.335e-05,0
60.457,6.2943e-05,0
60.458,5.153e-05,0
60.458,4.6159e-05,0
60.459,5.0019e-05,0
60.459,6.2272e-05,0
60.46,7.8889e-05,0
60.46,0.00010138,0
60.461,0.00011666,0
60.461,0.00010776,0
60.462,8.5771e-05,0
60.462,6.6636e-05,0
60.463,4.3137e-05,0
60.463,1.0071e-05,0
60.464,-2.6688e-05,0
60.464,-5.5558e-05,0
60.465,-5.8915e-05,0
60.465,-1.796e-05,0
60.466,4.1962e-05,0
60.467,6.4622e-05,0
60.467,4.5487e-05,0
60.468,2.8367e-05,0
60.468,4.1962e-05,0
60.469,5.8747e-05,0
60.469,6.1433e-05,0
60.47,9.3156e-05,0
60.47,0.00016835,0
60.471,0.00022005,0
60.471,0.00019236,0
60.472,7.5029e-05,0
60.472,-8.6107e-05,0
60.473,-0.00020897,0
60.473,-0.00024288,0
60.474,-0.00018312,0
60.474,-6.865e-05,0
60.475,6.3951e-05,0
60.475,0.0001556,0
60.476,0.00016516,0
60.476,0.00011162,0
60.477,3.8102e-05,0
60.477,-9.7353e-06,0
60.478,-3.6088e-05,0
60.478,-6.5965e-05,0
60.479,-8.7282e-05,0
60.479,-7.2679e-05,0
60.48,-5.153e-05,0
60.481,-6.2943e-05,0
60.481,-9.0303e-05,0
60.482,-0.00010994,0
60.482,-0.00012136,0
60.483,-0.00013478,0
60.483,-0.00016919,0
60.484,-0.00022307,0
60.484,-0.00027074,0
60.485,-0.00028417,0
60.485,-0.0002459,0
60.486,-0.00018195,0
60.486,-0.00013545,0
60.487,-0.00010675,0
60.487,-6.7308e-05,0
60.488,-1.6785e-06,0
60.488,0.00012605,0
60.489,0.00028518,0
60.489,0.00039243,0
60.49,0.00041476,0
60.49,0.00036004,0
60.491,0.00025228,0
60.491,0.00010726,0
60.492,-5.6397e-05,0
60.492,-0.00018514,0
60.493,-0.00023247,0
60.493,-0.00022072,0
60.494,-0.00018413,0
60.495,-0.00011917,0
60.495,-4.5487e-05,0
60.496,1.3428e-06,0
60.496,3.2563e-05,0
60.497,6.6972e-05,0
60.497,9.2988e-05,0
60.498,0.00010457,0
60.498,0.0001039,0
60.499,0.00010591,0
60.499,0.00010642,0
60.5,9.2988e-05,0
60.5,5.7572e-05,0
60.501,1.0239e-05,0
60.501,-3.6423e-05,0
60.502,-4.6662e-05,0
60.502,1.5946e-05,0
60.503,0.00011934,0
60.503,0.00017288,0
60.504,0.00012874,0
60.504,2.501e-05,0
60.505,-5.0858e-05,0
60.505,-5.1865e-05,0
60.506,-2.4002e-05,0
60.506,-9.7353e-06,0
60.507,-1.1582e-05,0
60.508,-3.4073e-05,0
60.508,-6.009e-05,0
60.509,-6.1265e-05,0
60.509,-3.0884e-05,0
60.51,3.0381e-05,0
60.51,0.00010826,0
60.511,0.00018581,0
60.511,0.00024103,0
60.512,0.00025597,0
60.512,0.00022744,0
60.513,0.00015811,0
60.513,7.1e-05,0
60.514,9.7353e-06,0
60.514,0,0
60.515,8.2246e-06,0
60.515,-2.5177e-06,0
60.516,-2.4674e-05,0
60.516,-3.2395e-05,0
60.517,-7.5532e-06,0
60.517,5.2033e-05,0
60.518,0.00014687,0
60.518,0.00026386,0
60.519,0.00036776,0
60.519,0.00040888,0
60.52,0.00035265,0
60.52,0.00021736,0
60.521,6.5293e-05,0
60.522,-5.4047e-05,0
60.522,-0.00012908,0
60.523,-0.00017758,0
60.523,-0.00020864,0
60.524,-0.00021149,0
60.524,-0.00019521,0
60.525,-0.00018766,0
60.525,-0.00017372,0
60.526,-0.00012119,0
60.526,-3.6759e-05,0
60.527,3.9445e-05,0
60.527,0.00013495,0
60.528,0.00026503,0
60.528,0.00034141,0
60.529,0.00031002,0
60.529,0.00021199,0
60.53,0.00010289,0
60.53,4.3641e-06,0
60.531,-6.7308e-05,0
60.531,-0.00011615,0
60.532,-0.00015727,0
60.532,-0.00017372,0
60.533,-0.00016365,0
60.533,-0.00016265,0
60.534,-0.00020528,0
60.535,-0.00026201,0
60.535,-0.0002652,0
60.536,-0.00019857,0
60.536,-8.9632e-05,0
60.537,2.7863e-05,0
60.537,0.00010726,0
60.538,0.00013008,0
60.538,0.00011196,0
60.539,7.7714e-05,0
60.539,4.6494e-05,0
60.54,8.896e-06,0
60.54,-4.1962e-05,0
60.541,-8.4764e-05,0
60.541,-9.2988e-05,0
60.542,-6.2272e-05,0
60.542,-1.0239e-05,0
60.543,3.1891e-05,0
60.543,4.6998e-05,0
60.544,4.1962e-05,0
60.544,3.2059e-05,0
60.545,2.2995e-05,0
60.545,1.7121e-05,0
60.546,2.1988e-05,0
60.546,4.2466e-05,0
60.547,6.7643e-05,0
60.547,9.2485e-05,0
60.548,0.00012505,0
60.549,0.00016634,0
60.549,0.00020293,0
60.55,0.00021904,0
60.55,0.00022005,0
60.551,0.00020629,0
60.551,0.00017842,0
60.552,0.00014855,0
60.552,0.00013361,0
60.553,0.00012404,0
60.553,8.6442e-05,0
60.554,1.3092e-05,0
60.554,-7.2007e-05,0
60.555,-0.00013411,0
60.555,-0.00015828,0
60.556,-0.00015828,0
60.556,-0.00013982,0
60.557,-0.00010021,0
60.557,-5.2537e-05,0
60.558,-2.7359e-05,0
60.558,-3.4745e-05,0
60.559,-4.7501e-05,0
60.559,-4.5991e-05,0
60.56,-2.7527e-05,0
60.56,4.3641e-06,0
60.561,3.0045e-05,0
60.562,5.3208e-05,0
60.562,0.00010793,0
60.563,0.00017372,0
60.563,0.00019991,0
60.564,0.00017977,0
60.564,0.00014653,0
60.565,0.00011447,0
60.565,7.4693e-05,0
60.566,2.1317e-05,0
60.566,-3.3906e-05,0
60.567,-7.8553e-05,0
60.567,-9.0471e-05,0
60.568,-4.8676e-05,0
60.568,2.8702e-05,0
60.569,0.00010491,0
60.569,0.00016063,0
60.57,0.00017742,0
60.57,0.00013545,0
60.571,6.1601e-05,0
60.571,1.1246e-05,0
60.572,1.6953e-05,0
60.572,6.2272e-05,0
60.573,0.00010692,0
60.573,0.00012941,0
60.574,0.00011766,0
60.575,4.4312e-05,0
60.575,-0.00010004,0
60.576,-0.00025161,0
60.576,-0.00031841,0
60.577,-0.00028971,0
60.577,-0.00023851,0
60.578,-0.00020528,0
60.578,-0.00017792,0
60.579,-0.0001472,0
60.579,-0.0001279,0
60.58,-0.00011666,0
60.58,-0.00010121,0
60.581,-8.4428e-05,0
60.581,-6.8315e-05,0
60.582,-4.683e-05,0
60.582,-3.0716e-05,0
60.583,-3.978e-05,0
60.583,-6.9993e-05,0
60.584,-9.2485e-05,0
60.584,-8.7449e-05,0
60.585,-5.8747e-05,0
60.585,-1.6617e-05,0
60.586,2.0981e-05,0
60.586,4.3977e-05,0
60.587,6.0258e-05,0
60.587,8.0735e-05,0
60.588,9.3828e-05,0
60.589,8.9799e-05,0
60.589,8.5603e-05,0
60.59,9.8527e-05,0
60.59,0.00012203,0
60.591,0.00013378,0
60.591,0.00012874,0
60.592,0.00012169,0
60.592,0.000118,0
60.593,0.00011061,0
60.593,9.9199e-05,0
60.594,9.2485e-05,0
60.594,8.9632e-05,0
60.595,8.9632e-05,0
60.595,9.7856e-05,0
60.596,0.00011934,0
60.596,0.0001509,0
60.597,0.00019017,0
60.597,0.00021988,0
60.598,0.0002177,0
60.598,0.00018514,0
60.599,0.00014217,0
60.599,0.00011196,0
60.6,9.4835e-05,0
60.6,8.0232e-05,0
60.601,6.244e-05,0
60.602,3.5752e-05,0
60.602,-7.5532e-06,0
60.603,-5.7572e-05,0
60.603,-9.4667e-05,0
60.604,-0.00010289,0
60.604,-8.1743e-05,0
60.605,-5.8579e-05,0
60.605,-4.8508e-05,0
60.606,-3.743e-05,0
60.606,-2.1149e-05,0
60.607,-4.1962e-06,0
60.607,1.4603e-05,0
60.608,3.8605e-05,0
60.608,6.63e-05,0
60.609,0.00010826,0
60.609,0.0001378,0
60.61,0.00013613,0
60.61,0.00012337,0
60.611,0.00010423,0
60.611,7.3014e-05,0
60.612,2.6688e-05,0
60.612,-2.9709e-05,0
60.613,-6.5797e-05,0
60.613,-4.3473e-05,0
60.614,7.5532e-06,0
60.614,3.592e-05,0
60.615,2.3163e-05,0
60.616,-1.7121e-05,0
60.616,-6.4118e-05,0
60.617,-0.00010323,0
60.617,-0.00012404,0
60.618,-0.00012908,0
60.618,-0.00012941,0
60.619,-0.00012689,0
60.619,-0.00010843,0
60.62,-5.2873e-05,0
60.62,5.3544e-05,0
60.621,0.00017557,0
60.621,0.0002652,0
60.622,0.00029223,0
60.622,0.00026638,0
60.623,0.00022408,0
60.623,0.00017943,0
60.624,0.00014687,0
60.624,0.00013948,0
60.625,0.00013042,0
60.625,7.1336e-05,0
60.626,-5.1194e-05,0
60.626,-0.0001801,0
60.627,-0.00024019,0
60.627,-0.00020528,0
60.628,-0.00012555,0
60.629,-5.5558e-05,0
60.629,-1.0239e-05,0
60.63,-2.8534e-06,0
60.63,-2.6017e-05,0
60.631,-6.2943e-05,0
60.631,-0.00010809,0
60.632,-0.00014905,0
60.632,-0.00015409,0
60.633,-0.00010323,0
60.633,-3.1556e-05,0
60.634,8.2246e-06,0
60.634,-8.5603e-06,0
60.635,-6.9993e-05,0
60.635,-0.00013898,0
60.636,-0.00018883,0
60.636,-0.00020729,0
60.637,-0.00019823,0
60.637,-0.00017926,0
60.638,-0.00015476,0
60.638,-0.00012757,0
60.639,-9.9199e-05,0
60.639,-6.9825e-05,0
60.64,-3.508e-05,0
60.64,6.5461e-06,0
60.641,5.069e-05,0
60.641,9.4331e-05,0
60.642,0.00013344,0
60.643,0.00016701,0
60.643,0.00019051,0
60.644,0.00018816,0
60.644,0.00016197,0
60.645,0.00013243,0
60.645,0.00011666,0
60.646,0.00012454,0
60.646,0.00015962,0
60.647,0.00020394,0
60.647,0.00021938,0
60.648,0.00018178,0
60.648,0.00011749,0
60.649,6.7643e-05,0
60.649,4.683e-05,0
60.65,4.7501e-05,0
60.65,4.9516e-05,0
60.651,4.3809e-05,0
60.651,4.3809e-05,0
60.652,3.508e-05,0
60.652,-7.0497e-06,0
60.653,-5.539e-05,0
60.653,-5.9922e-05,0
60.654,-1.6281e-05,0
60.654,3.6591e-05,0
60.655,7.0665e-05,0
60.656,8.6442e-05,0
60.656,8.9128e-05,0
60.657,9.5674e-05,0
60.657,0.0001227,0
60.658,0.00015023,0
60.658,0.00015425,0
60.659,0.00012639,0
60.659,8.2078e-05,0
60.66,7.0497e-05,0
60.66,0.0001039,0
60.661,0.00013361,0
60.661,0.00011263,0
60.662,3.4577e-05,0
60.662,-7.335e-05,0
60.663,-0.00015912,0
60.663,-0.00018296,0
60.664,-0.00013579,0
60.664,-5.2201e-05,0
60.665,1.7456e-05,0
60.665,5.1865e-05,0
60.666,7.5868e-05,0
60.666,9.4835e-05,0
60.667,9.2821e-05,0
60.667,7.7714e-05,0
60.668,7.0832e-05,0
60.668,7.0497e-05,0
60.669,8.7114e-05,0
60.67,9.5842e-05,0
60.67,5.4215e-05,0
60.671,-2.8031e-05,0
60.671,-0.00011498,0
60.672,-0.00019034,0
60.672,-0.00023549,0
60.673,-0.00024456,0
60.673,-0.0002365,0
60.674,-0.00021636,0
60.674,-0.00018413,0
60.675,-0.00015123,0
60.675,-0.00012505,0
60.676,-9.2821e-05,0
60.676,-5.1194e-05,0
60.677,-1.1749e-05,0
60.677,1.4603e-05,0
60.678,2.6688e-05,0
60.678,3.4745e-05,0
60.679,4.683e-05,0
60.679,5.8244e-05,0
60.68,6.1601e-05,0
60.68,5.069e-05,0
60.681,3.6759e-05,0
60.681,4.1459e-05,0
60.682,6.2272e-05,0
60.682,8.1407e-05,0
60.683,9.2485e-05,0
60.684,9.4835e-05,0
60.684,9.3828e-05,0
60.685,9.1981e-05,0
60.685,8.8457e-05,0
60.686,8.7449e-05,0
60.686,0.00010692,0
60.687,0.00012404,0
60.687,0.000118,0
60.688,0.00012505,0
60.688,0.00014754,0
60.689,0.00014754,0
60.689,0.00011263,0
60.69,6.4958e-05,0
60.69,4.1962e-05,0
60.691,7.4189e-05,0
60.691,0.00018044,0
60.692,0.00031069,0
60.692,0.00037363,0
60.693,0.00034661,0
60.693,0.00027007,0
60.694,0.00016617,0
60.694,5.7572e-05,0
60.695,-1.9974e-05,0
60.695,-6.3447e-05,0
60.696,-7.1e-05,0
60.697,-2.4338e-05,0
60.697,3.508e-05,0
60.698,2.8031e-05,0
60.698,-6.3111e-05,0
60.699,-0.00016886,0
60.699,-0.00021183,0
60.7,-0.00019907,0
60.7,-0.00019168,0
60.701,-0.00021334,0
60.701,-0.00024623,0
60.702,-0.00026134,0
60.702,-0.00024691,0
60.703,-0.00021804,0
60.703,-0.00019655,0
60.704,-0.00018497,0
60.704,-0.00017272,0
60.705,-0.00014905,0
60.705,-0.00011246,0
60.706,-7.2007e-05,0
60.706,-3.7095e-05,0
60.707,-1.1582e-05,0
60.707,6.714e-07,0
60.708,8.896e-06,0
60.708,3.743e-05,0
60.709,9.2821e-05,0
60.709,0.00013545,0
60.71,0.00014015,0
60.711,0.0001138,0
60.711,7.5029e-05,0
60.712,4.062e-05,0
60.712,1.8296e-05,0
60.713,1.1078e-05,0
60.713,9.3996e-06,0
60.714,6.3783e-06,0
60.714,1.5946e-05,0
60.715,4.1459e-05,0
60.715,6.8315e-05,0
60.716,8.275e-05,0
60.716,8.5435e-05,0
60.717,8.9799e-05,0
60.717,0.00011229,0
60.718,0.00014217,0
60.718,0.00015828,0
60.719,0.00015694,0
60.719,0.00015492,0
60.72,0.00015425,0
60.72,0.00014519,0
60.721,0.00012605,0
60.721,0.00010105,0
60.722,7.4022e-05,0
60.722,5.0523e-05,0
60.723,3.0716e-05,0
60.724,1.7121e-05,0
60.724,3.5248e-06,0
60.725,-1.326e-05,0
60.725,-2.3331e-05,0
60.726,-1.1917e-05,0
60.726,2.6352e-05,0
60.727,6.6468e-05,0
60.727,8.9967e-05,0
60.728,9.2485e-05,0
60.728,7.7211e-05,0
60.729,5.6901e-05,0
60.729,3.9109e-05,0
60.73,1.561e-05,0
60.73,-1.5946e-05,0
60.731,-4.5151e-05,0
60.731,-6.009e-05,0
60.732,-5.5894e-05,0
60.732,-3.5752e-05,0
60.733,9.5674e-06,0
60.733,8.1743e-05,0
60.734,0.00017708,0
60.734,0.00026268,0
60.735,0.00028383,0
60.735,0.00023281,0
60.736,0.00015241,0
60.736,8.2414e-05,0
60.737,2.9374e-05,0
60.738,-1.2924e-05,0
60.738,-4.7166e-05,0
60.739,-8.1575e-05,0
60.739,-0.00013411,0
60.74,-0.00020024,0
60.74,-0.00024154,0
60.741,-0.00022945,0
60.741,-0.00019387,0
60.742,-0.00016365,0
60.742,-0.00013378,0
60.743,-7.2343e-05,0
60.743,3.7095e-05,0
60.744,0.00013982,0
60.744,0.00017641,0
60.745,0.00013747,0
60.745,5.2705e-05,0
60.746,-3.7766e-05,0
60.746,-0.00010457,0
60.747,-0.00014083,0
60.747,-0.00014485,0
60.748,-0.0001284,0
60.748,-0.00011749,0
60.749,-0.00011296,0
60.749,-8.7114e-05,0
60.75,-4.0284e-05,0
60.751,-2.0142e-06,0
60.751,1.4435e-05,0
60.752,1.9974e-05,0
60.752,2.8702e-05,0
60.753,3.9612e-05,0
60.753,4.8844e-05,0
60.754,6.1936e-05,0
60.754,8.0735e-05,0
60.755,9.601e-05,0
60.755,0.00010423,0
60.756,0.00010726,0
60.756,0.00010591,0
60.757,9.9199e-05,0
60.757,8.8792e-05,0
60.758,7.7379e-05,0
60.758,7.1504e-05,0
60.759,7.1336e-05,0
60.759,6.9993e-05,0
60.76,6.63e-05,0
60.76,6.5629e-05,0
60.761,7.0832e-05,0
60.761,7.5364e-05,0
60.762,8.2414e-05,0
60.762,9.5842e-05,0
60.763,0.00010692,0
60.764,0.00010054,0
60.764,7.7714e-05,0
60.765,5.7572e-05,0
60.765,4.8508e-05,0
60.766,3.7766e-05,0
60.766,1.6785e-05,0
60.767,-8.2246e-06,0
60.767,-2.7695e-05,0
60.768,-3.6088e-05,0
60.768,-3.508e-05,0
60.769,-2.652e-05,0
60.769,1.2589e-05,0
60.77,0.00010423,0
60.77,0.0002036,0
60.771,0.00024959,0
60.771,0.00023046,0
60.772,0.00016634,0
60.772,8.5435e-05,0
60.773,1.0575e-05,0
60.773,-5.4551e-05,0
60.774,-0.00010843,0
60.774,-0.0001472,0
60.775,-0.00016617,0
60.775,-0.00015627,0
60.776,-0.00011397,0
60.776,-7.4861e-05,0
60.777,-6.7308e-05,0
60.778,-7.7211e-05,0
60.778,-8.3757e-05,0
60.779,-9.0135e-05,0
