36.887,-9.6849e-05,0
36.888,-0.00010188,0
36.888,-9.987e-05,0
36.889,-8.9632e-05,0
36.889,-6.9322e-05,0
36.89,-4.3977e-05,0
36.89,-2.0981e-05,0
36.891,-6.5461e-06,0
36.891,-1.1582e-05,0
36.892,-3.6088e-05,0
36.892,-5.8244e-05,0
36.893,-6.6972e-05,0
36.893,-7.0665e-05,0
36.894,-8.0735e-05,0
36.894,-9.9535e-05,0
36.895,-0.00011565,0
36.895,-0.00010692,0
36.896,-7.1504e-05,0
36.897,-3.2563e-05,0
36.897,-4.8676e-06,0
36.898,1.8631e-05,0
36.898,4.5823e-05,0
36.899,7.1672e-05,0
36.899,8.4428e-05,0
36.9,8.191e-05,0
36.9,7.1336e-05,0
36.901,5.7404e-05,0
36.901,4.1123e-05,0
36.902,2.5345e-05,0
36.902,1.4099e-05,0
36.903,6.3783e-06,0
36.903,-2.182e-06,0
36.904,-7.3854e-06,0
36.904,8.3925e-07,0
36.905,1.7624e-05,0
36.905,2.8534e-05,0
36.906,3.978e-05,0
36.906,6.1936e-05,0
36.907,0.00010256,0
36.907,0.00016214,0
36.908,0.0002135,0
36.908,0.00023214,0
36.909,0.00021468,0
36.91,0.00017775,0
36.91,0.00014485,0
36.911,0.00012085,0
36.911,9.7856e-05,0
36.912,9.3828e-05,0
36.912,9.9199e-05,0
36.913,6.3615e-05,0
36.913,-1.1246e-05,0
36.914,-7.6707e-05,0
36.914,-0.00012706,0
36.915,-0.00017087,0
36.915,-0.00019286,0
36.916,-0.00018849,0
36.916,-0.00017137,0
36.917,-0.00014922,0
36.917,-0.00012723,0
36.918,-9.6513e-05,0
36.918,-4.9348e-05,0
36.919,-3.1891e-06,0
36.919,2.0981e-05,0
36.92,2.5345e-05,0
36.92,2.7695e-05,0
36.921,3.5416e-05,0
36.921,4.2298e-05,0
36.922,4.7501e-05,0
36.922,5.153e-05,0
36.923,5.5558e-05,0
36.924,5.623e-05,0
36.924,5.0187e-05,0
36.925,4.0452e-05,0
36.925,2.9374e-05,0
36.926,1.5274e-05,0
36.926,-5.7069e-06,0
36.927,-2.2995e-05,0
36.927,-2.5681e-05,0
36.928,-1.2085e-05,0
36.928,-3.5248e-06,0
36.929,-2.1988e-05,0
36.929,-4.3473e-05,0
36.93,-3.122e-05,0
36.93,6.5461e-06,0
36.931,3.9612e-05,0
36.931,5.2873e-05,0
36.932,5.0187e-05,0
36.932,4.4984e-05,0
36.933,5.069e-05,0
36.933,6.6133e-05,0
36.934,8.1743e-05,0
36.934,0.00010071,0
36.935,0.00011901,0
36.935,0.0001237,0
36.936,0.00012555,0
36.937,0.00015023,0
36.937,0.0001848,0
36.938,0.00018614,0
36.938,0.00014519,0
36.939,8.5771e-05,0
36.939,3.6759e-05,0
36.94,2.8534e-06,0
36.94,-1.4771e-05,0
36.941,-2.2492e-05,0
36.941,-2.6017e-05,0
36.942,-2.3835e-05,0
36.942,-1.0575e-05,0
36.943,4.5319e-06,0
36.943,1.5106e-06,0
36.944,-1.5946e-05,0
36.944,-4.4312e-05,0
36.945,-7.57e-05,0
36.945,-8.8792e-05,0
36.946,-7.5868e-05,0
36.946,-5.9419e-05,0
36.947,-5.6062e-05,0
36.947,-4.7669e-05,0
36.948,-2.3667e-05,0
36.948,1.8463e-06,0
36.949,1.4267e-05,0
36.95,2.1653e-05,0
36.95,2.9374e-05,0
36.951,2.4002e-05,0
36.951,8.3925e-07,0
36.952,-1.091e-05,0
36.952,6.5461e-06,0
36.953,4.0116e-05,0
36.953,7.6371e-05,0
36.954,0.00010423,0
36.954,0.00012068,0
36.955,0.00013025,0
36.955,0.0001284,0
36.956,0.00010457,0
36.956,5.6062e-05,0
36.957,-7.8889e-06,0
36.957,-5.8747e-05,0
36.958,-8.1071e-05,0
36.958,-6.9993e-05,0
36.959,-1.6953e-05,0
36.959,4.683e-05,0
36.96,7.6875e-05,0
36.96,6.9993e-05,0
36.961,4.1459e-05,0
36.961,3.5248e-06,0
36.962,-3.592e-05,0
36.962,-7.805e-05,0
36.963,-0.00012169,0
36.964,-0.00015425,0
36.964,-0.00015627,0
36.965,-0.00012605,0
36.965,-8.9296e-05,0
36.966,-6.3447e-05,0
36.966,-3.8437e-05,0
36.967,-7.7211e-06,0
36.967,2.4002e-05,0
36.968,5.0187e-05,0
36.968,6.7811e-05,0
36.969,7.7043e-05,0
36.969,7.9393e-05,0
36.97,7.4357e-05,0
36.97,6.6972e-05,0
36.971,5.9586e-05,0
36.971,5.5222e-05,0
36.972,7.1672e-05,0
36.972,0.00011162,0
36.973,0.0001462,0
36.973,0.00014922,0
36.974,0.00012203,0
36.974,8.6275e-05,0
36.975,5.8076e-05,0
36.975,3.3738e-05,0
36.976,7.2175e-06,0
36.977,-1.3596e-05,0
36.977,-1.8967e-05,0
36.978,-1.1917e-05,0
36.978,-1.3428e-06,0
36.979,6.5461e-06,0
36.979,9.9031e-06,0
36.98,1.4267e-05,0
36.98,2.8702e-05,0
36.981,5.2201e-05,0
36.981,7.1672e-05,0
36.982,7.1e-05,0
36.982,4.683e-05,0
36.983,1.091e-05,0
36.983,-1.8967e-05,0
36.984,-2.7863e-05,0
36.984,-1.1582e-05,0
36.985,1.8967e-05,0
36.985,4.9348e-05,0
36.986,6.7308e-05,0
36.986,6.8986e-05,0
36.987,6.1265e-05,0
36.987,5.9922e-05,0
36.988,7.9728e-05,0
36.988,0.0001185,0
36.989,0.00015425,0
36.989,0.000165,0
36.99,0.00015123,0
36.991,0.00012723,0
36.991,8.5771e-05,0
36.992,2.5849e-05,0
36.992,-3.1724e-05,0
36.993,-5.9586e-05,0
36.993,-4.3137e-05,0
36.994,-3.0213e-06,0
36.994,3.2731e-05,0
36.995,5.153e-05,0
36.995,4.1291e-05,0
36.996,-1.6785e-07,0
36.996,-5.0523e-05,0
36.997,-8.2582e-05,0
36.997,-9.2149e-05,0
36.998,-9.4331e-05,0
36.998,-0.00011565,0
36.999,-0.00016466,0
36.999,-0.00020981,0
37,-0.00021048,0
37,-0.00016986,0
37.001,-0.00011867,0
37.001,-7.6707e-05,0
37.002,-4.7333e-05,0
37.002,-2.6688e-05,0
37.003,-9.0639e-06,0
37.004,8.2246e-06,0
37.004,2.5681e-05,0
37.005,4.213e-05,0
37.005,4.4144e-05,0
37.006,2.8702e-05,0
37.006,1.7121e-05,0
37.007,1.8631e-05,0
37.007,3.827e-05,0
37.008,8.2078e-05,0
37.008,0.00013411,0
37.009,0.00018312,0
37.009,0.00020763,0
37.01,0.00019487,0
37.01,0.0001603,0
37.011,0.00011934,0
37.011,7.3518e-05,0
37.012,3.1724e-05,0
37.012,1.1917e-05,0
37.013,7.8889e-06,0
37.013,-1.3596e-05,0
37.014,-3.6255e-05,0
37.014,-1.9135e-05,0
37.015,2.8199e-05,0
37.015,6.2608e-05,0
37.016,6.5293e-05,0
37.016,4.8005e-05,0
37.017,2.2995e-05,0
37.018,3.357e-07,0
37.018,-1.6449e-05,0
37.019,-4.448e-05,0
37.019,-8.4596e-05,0
37.02,-0.00011044,0
37.02,-9.4667e-05,0
37.021,-4.8173e-05,0
37.021,-1.0071e-06,0
37.022,2.8031e-05,0
37.022,3.4241e-05,0
37.023,2.6184e-05,0
37.023,1.796e-05,0
37.024,1.8631e-05,0
37.024,2.6184e-05,0
37.025,3.5752e-05,0
37.025,4.213e-05,0
37.026,4.3305e-05,0
37.026,4.5823e-05,0
37.027,6.1265e-05,0
37.027,0.00010289,0
37.028,0.00016533,0
37.028,0.00021367,0
37.029,0.00022005,0
37.029,0.00017943,0
37.03,0.00012471,0
37.031,9.1142e-05,0
37.031,6.6636e-05,0
37.032,3.4745e-05,0
37.032,1.5106e-06,0
37.033,-3.3738e-05,0
37.033,-7.6707e-05,0
37.034,-0.00011011,0
37.034,-0.00010961,0
37.035,-7.7211e-05,0
37.035,-3.1052e-05,0
37.036,4.6998e-06,0
37.036,6.0426e-06,0
37.037,-2.4842e-05,0
37.037,-5.9251e-05,0
37.038,-7.1e-05,0
37.038,-5.9419e-05,0
37.039,-4.5487e-05,0
37.039,-4.4312e-05,0
37.04,-4.7501e-05,0
37.04,-4.1291e-05,0
37.041,-2.8031e-05,0
37.041,-1.796e-05,0
37.042,-8.7282e-06,0
37.042,7.8889e-06,0
37.043,3.0716e-05,0
37.043,5.2705e-05,0
37.044,6.1601e-05,0
37.045,5.5222e-05,0
37.045,4.0116e-05,0
37.046,2.8031e-05,0
37.046,1.7624e-05,0
37.047,8.0568e-06,0
37.047,-1.0071e-06,0
37.048,-1.5442e-05,0
37.048,-3.122e-05,0
37.049,-3.2731e-05,0
37.049,-1.561e-05,0
37.05,7.8889e-06,0
37.05,2.3331e-05,0
37.051,2.9206e-05,0
37.051,3.1388e-05,0
37.052,3.2059e-05,0
37.052,3.0716e-05,0
37.053,2.9709e-05,0
37.053,3.0716e-05,0
37.054,2.9877e-05,0
37.054,2.0478e-05,0
37.055,6.5461e-06,0
37.055,3.357e-07,0
37.056,4.8676e-06,0
37.056,1.326e-05,0
37.057,2.7359e-05,0
37.057,5.9419e-05,0
37.058,0.00010121,0
37.059,0.00012908,0
37.059,0.00013411,0
37.06,0.00012052,0
37.06,9.601e-05,0
37.061,6.3279e-05,0
37.061,2.9038e-05,0
37.062,1.091e-05,0
37.062,1.8631e-05,0
37.063,3.978e-05,0
37.063,5.5055e-05,0
37.064,6.0929e-05,0
37.064,5.9754e-05,0
37.065,5.2201e-05,0
37.065,4.2802e-05,0
37.066,3.3738e-05,0
37.066,2.031e-05,0
37.067,1.8463e-06,0
37.067,-1.7121e-05,0
37.068,-3.2059e-05,0
37.068,-3.9109e-05,0
37.069,-3.4577e-05,0
37.069,-2.3331e-05,0
37.07,-4.3641e-06,0
37.07,2.501e-05,0
37.071,5.6901e-05,0
37.072,8.1575e-05,0
37.072,9.9031e-05,0
37.073,0.00011464,0
37.073,0.00012337,0
37.074,0.00011867,0
37.074,9.5171e-05,0
37.075,5.5222e-05,0
37.075,1.4603e-05,0
37.076,-1.6953e-05,0
37.076,-4.6494e-05,0
37.077,-6.3615e-05,0
37.077,-5.7069e-05,0
37.078,-2.6017e-05,0
37.078,9.2317e-06,0
37.079,1.3931e-05,0
37.079,-3.5248e-06,0
37.08,-5.7069e-06,0
37.08,1.5106e-05,0
37.081,4.2802e-05,0
37.081,6.949e-05,0
37.082,7.4861e-05,0
37.082,4.8173e-05,0
37.083,5.2033e-06,0
37.083,-3.743e-05,0
37.084,-7.5868e-05,0
37.084,-9.8527e-05,0
37.085,-0.00010256,0
37.086,-9.2821e-05,0
37.086,-6.949e-05,0
37.087,-3.4241e-05,0
37.087,1.9135e-05,0
37.088,7.335e-05,0
37.088,0.00010121,0
37.089,8.9296e-05,0
37.089,5.3544e-05,0
37.09,2.0478e-05,0
37.09,8.3925e-07,0
37.091,-1.1917e-05,0
37.091,-2.4338e-05,0
37.092,-4.1123e-05,0
37.092,-5.9922e-05,0
37.093,-6.5629e-05,0
37.093,-5.1865e-05,0
37.094,-2.8702e-05,0
37.094,-3.8605e-06,0
37.095,1.7456e-05,0
37.095,3.3402e-05,0
37.096,4.3305e-05,0
37.096,5.0187e-05,0
37.097,5.5558e-05,0
37.097,6.2943e-05,0
37.098,8.1407e-05,0
37.099,9.6849e-05,0
37.099,8.9128e-05,0
37.1,5.5894e-05,0
37.1,2.1317e-05,0
37.101,8.5603e-06,0
37.101,1.1246e-05,0
37.102,1.6617e-05,0
37.102,2.0645e-05,0
37.103,1.7624e-05,0
37.103,4.5319e-06,0
37.104,-1.4435e-05,0
37.104,-2.8367e-05,0
37.105,-3.3066e-05,0
37.105,-2.8367e-05,0
37.106,-1.561e-05,0
37.106,2.5177e-06,0
37.107,1.9974e-05,0
37.107,2.9206e-05,0
37.108,2.5345e-05,0
37.108,1.2421e-05,0
37.109,1.0407e-05,0
37.109,2.0981e-05,0
37.11,2.6184e-05,0
37.11,2.1988e-05,0
37.111,1.2757e-05,0
37.111,4.5319e-06,0
37.112,-5.3712e-06,0
37.113,-1.5946e-05,0
37.113,-1.5946e-05,0
37.114,-1.1749e-06,0
37.114,1.6617e-05,0
37.115,2.6184e-05,0
37.115,2.6688e-05,0
37.116,2.2324e-05,0
37.116,1.9974e-05,0
37.117,2.4002e-05,0
37.117,2.7359e-05,0
37.118,3.1052e-05,0
37.118,3.9948e-05,0
37.119,5.388e-05,0
37.119,7.1672e-05,0
37.12,9.3156e-05,0
37.12,0.00010994,0
37.121,0.00010675,0
37.121,8.3085e-05,0
37.122,5.2873e-05,0
37.122,3.4409e-05,0
37.123,3.5752e-05,0
37.123,4.4144e-05,0
37.124,4.3473e-05,0
37.124,2.6688e-05,0
37.125,7.5532e-06,0
37.126,4.1962e-06,0
37.126,1.4603e-05,0
37.127,2.6352e-05,0
37.127,2.9709e-05,0
37.128,2.0142e-05,0
37.128,4.8676e-06,0
37.129,0,0
37.129,1.7121e-05,0
37.13,5.1194e-05,0
37.13,7.5029e-05,0
37.131,6.9657e-05,0
37.131,6.0258e-05,0
37.132,8.5267e-05,0
37.132,0.00013881,0
37.133,0.00017238,0
37.133,0.00015627,0
37.134,9.7856e-05,0
37.134,2.501e-05,0
37.135,-4.3305e-05,0
37.135,-0.0001086,0
37.136,-0.0001514,0
37.136,-0.0001519,0
37.137,-0.00010692,0
37.137,-2.1149e-05,0
37.138,7.7043e-05,0
37.139,0.0001472,0
37.139,0.00015996,0
37.14,0.00012605,0
37.14,7.7546e-05,0
37.141,3.2395e-05,0
37.141,-6.2104e-06,0
37.142,-5.0858e-05,0
37.142,-0.00010256,0
37.143,-0.00014015,0
37.143,-0.00014469,0
37.144,-0.00011028,0
37.144,-7.1336e-05,0
37.145,-6.4622e-05,0
37.145,-9.2988e-05,0
37.146,-0.00013176,0
37.146,-0.00014871,0
37.147,-0.00013445,0
37.147,-9.6513e-05,0
37.148,-5.2201e-05,0
37.148,-1.1414e-05,0
37.149,1.9303e-05,0
37.149,3.743e-05,0
37.15,4.6326e-05,0
37.15,5.388e-05,0
37.151,7.4693e-05,0
37.151,0.00010172,0
37.152,0.00010994,0
37.153,9.1981e-05,0
37.153,6.0929e-05,0
37.154,2.4002e-05,0
37.154,-1.0407e-05,0
37.155,-2.6184e-05,0
37.155,-1.1917e-05,0
37.156,2.2828e-05,0
37.156,5.4551e-05,0
37.157,7.2007e-05,0
37.157,8.661e-05,0
37.158,9.6513e-05,0
37.158,8.7449e-05,0
37.159,6.9657e-05,0
37.159,5.9586e-05,0
37.16,5.4215e-05,0
37.16,4.213e-05,0
37.161,2.3499e-05,0
37.161,9.9031e-06,0
37.162,7.5532e-06,0
37.162,1.6785e-05,0
37.163,3.1556e-05,0
37.163,4.4648e-05,0
37.164,5.0523e-05,0
37.164,4.5487e-05,0
37.165,3.4073e-05,0
37.166,2.5681e-05,0
37.166,2.1988e-05,0
37.167,2.5177e-05,0
37.167,3.6591e-05,0
37.168,5.2201e-05,0
37.168,6.1265e-05,0
37.169,5.7572e-05,0
37.169,4.9516e-05,0
37.17,4.5487e-05,0
37.17,4.9516e-05,0
37.171,5.8244e-05,0
37.171,6.009e-05,0
37.172,5.2201e-05,0
37.172,4.5991e-05,0
37.173,4.9516e-05,0
37.173,5.4887e-05,0
37.174,4.918e-05,0
37.174,3.1891e-05,0
37.175,2.031e-05,0
37.175,2.9374e-05,0
37.176,5.0523e-05,0
37.176,6.0929e-05,0
37.177,5.4551e-05,0
37.177,4.683e-05,0
37.178,4.4984e-05,0
37.178,3.508e-05,0
37.179,8.2246e-06,0
37.18,-2.1317e-05,0
37.18,-2.7695e-05,0
37.181,-7.0497e-06,0
37.181,2.0813e-05,0
37.182,3.6759e-05,0
37.182,3.1052e-05,0
37.183,9.9031e-06,0
37.183,-1.561e-05,0
37.184,-3.8437e-05,0
37.184,-4.6494e-05,0
37.185,-4.3305e-05,0
37.185,-4.6494e-05,0
37.186,-5.8579e-05,0
37.186,-6.4622e-05,0
37.187,-5.5558e-05,0
37.187,-3.8437e-05,0
37.188,-3.122e-05,0
37.188,-3.7095e-05,0
37.189,-3.827e-05,0
37.189,-2.9374e-05,0
37.19,-1.3596e-05,0
37.19,2.5177e-06,0
37.191,1.5442e-05,0
37.191,3.6423e-05,0
37.192,6.0594e-05,0
37.193,6.8147e-05,0
37.193,5.3376e-05,0
37.194,2.7192e-05,0
37.194,5.2033e-06,0
37.195,-4.1962e-06,0
37.195,-6.2104e-06,0
37.196,-6.0426e-06,0
37.196,6.714e-06,0
37.197,3.4745e-05,0
37.197,6.8315e-05,0
37.198,9.6513e-05,0
37.198,0.00010692,0
37.199,9.4163e-05,0
37.199,6.9657e-05,0
37.2,4.0284e-05,0
37.2,1.5946e-05,0
37.201,1.3596e-05,0
37.201,3.9109e-05,0
37.202,6.949e-05,0
37.202,8.2078e-05,0
37.203,7.9393e-05,0
37.203,6.4286e-05,0
37.204,4.3809e-05,0
37.204,2.7695e-05,0
37.205,1.6114e-05,0
37.205,2.6688e-05,0
37.206,5.4887e-05,0
37.207,6.8147e-05,0
37.207,5.4887e-05,0
37.208,2.7527e-05,0
37.208,-4.8676e-06,0
37.209,-3.3402e-05,0
37.209,-5.3544e-05,0
37.21,-7.2847e-05,0
37.21,-0.00010037,0
37.211,-0.00012203,0
37.211,-0.00012186,0
37.212,-0.00010423,0
37.212,-8.7282e-05,0
37.213,-7.8721e-05,0
37.213,-7.2007e-05,0
37.214,-5.9251e-05,0
37.214,-4.3305e-05,0
37.215,-2.182e-05,0
37.215,3.8605e-06,0
37.216,2.7024e-05,0
37.216,4.0452e-05,0
37.217,4.2634e-05,0
37.217,4.3977e-05,0
37.218,5.623e-05,0
37.218,8.04e-05,0
37.219,0.00011179,0
37.219,0.00013646,0
37.22,0.00014855,0
37.221,0.00013999,0
37.221,9.752e-05,0
37.222,5.0858e-05,0
37.222,4.1962e-05,0
37.223,5.8244e-05,0
37.223,6.1265e-05,0
37.224,3.8773e-05,0
37.224,1.561e-05,0
37.225,5.7069e-06,0
37.225,-3.8605e-06,0
37.226,3.357e-07,0
37.226,3.3906e-05,0
37.227,6.3783e-05,0
37.227,6.2272e-05,0
37.228,3.0213e-05,0
37.228,-1.1078e-05,0
37.229,-2.2995e-05,0
37.229,-2.0142e-06,0
37.23,1.7288e-05,0
37.23,2.652e-05,0
37.231,3.1891e-05,0
37.231,3.2731e-05,0
37.232,3.9612e-05,0
37.232,6.2943e-05,0
37.233,8.4428e-05,0
37.234,8.275e-05,0
37.234,5.1362e-05,0
37.235,1.8463e-06,0
37.235,-4.3977e-05,0
37.236,-6.6636e-05,0
37.236,-7.4693e-05,0
37.237,-8.7449e-05,0
37.237,-9.4163e-05,0
37.238,-8.0232e-05,0
37.238,-5.6062e-05,0
37.239,-3.7263e-05,0
37.239,-2.1317e-05,0
37.24,-2.8534e-06,0
37.24,1.4939e-05,0
37.241,2.8031e-05,0
37.241,5.0858e-05,0
37.242,9.0471e-05,0
37.242,0.00013109,0
37.243,0.00018212,0
37.243,0.00024254,0
37.244,0.0002788,0
37.244,0.00026101,0
37.245,0.00019756,0
37.245,0.00010927,0
37.246,1.7288e-05,0
37.246,-5.539e-05,0
37.247,-0.00011095,0
37.248,-0.00016533,0
37.248,-0.0002229,0
37.249,-0.00026369,0
37.249,-0.00026235,0
37.25,-0.00022492,0
37.25,-0.00017205,0
37.251,-0.00010944,0
37.251,-4.1123e-05,0
37.252,1.6953e-05,0
37.252,4.6662e-05,0
37.253,4.8508e-05,0
37.253,3.6088e-05,0
37.254,2.0645e-05,0
37.254,9.5674e-06,0
37.255,3.1891e-06,0
37.255,1.5106e-06,0
37.256,6.714e-06,0
37.256,1.8296e-05,0
37.257,3.4409e-05,0
37.257,5.3544e-05,0
37.258,6.7643e-05,0
37.258,7.4357e-05,0
37.259,7.6875e-05,0
37.259,8.9128e-05,0
37.26,0.00011196,0
37.261,0.00012605,0
37.261,0.00011968,0
37.262,9.752e-05,0
37.262,7.335e-05,0
37.263,5.5726e-05,0
37.263,4.4984e-05,0
37.264,3.3906e-05,0
37.264,2.4506e-05,0
37.265,2.7359e-05,0
37.265,4.2466e-05,0
37.266,5.3544e-05,0
37.266,5.623e-05,0
37.267,6.1936e-05,0
37.267,8.5435e-05,0
37.268,0.00011296,0
37.268,0.00011934,0
37.269,9.4163e-05,0
37.269,5.4551e-05,0
37.27,2.4002e-05,0
37.27,5.0355e-06,0
37.271,-1.091e-05,0
37.271,-2.1317e-05,0
37.272,-1.9806e-05,0
37.272,-8.5603e-06,0
37.273,-2.5177e-06,0
37.273,-8.7282e-06,0
37.274,-1.796e-05,0
37.275,-1.7624e-05,0
37.275,-1.1246e-05,0
37.276,-9.3996e-06,0
37.276,-1.5442e-05,0
37.277,-2.9709e-05,0
37.277,-4.1794e-05,0
37.278,-3.3066e-05,0
37.278,1.0071e-06,0
37.279,4.5151e-05,0
37.279,8.9296e-05,0
37.28,0.00012169,0
37.28,0.00012975,0
37.281,0.000118,0
37.281,9.836e-05,0
37.282,8.5771e-05,0
37.282,8.3085e-05,0
37.283,7.4189e-05,0
37.283,4.2802e-05,0
37.284,1.8463e-06,0
37.284,-1.7288e-05,0
37.285,-1.5442e-05,0
37.285,-2.0645e-05,0
37.286,-4.3305e-05,0
37.286,-6.8315e-05,0
37.287,-7.4693e-05,0
37.288,-5.5222e-05,0
37.288,-2.4002e-05,0
37.289,1.6785e-06,0
37.289,1.561e-05,0
37.29,1.796e-05,0
37.29,1.4603e-05,0
37.291,1.326e-05,0
37.291,1.8631e-05,0
37.292,2.7192e-05,0
37.292,2.3667e-05,0
37.293,9.9031e-06,0
37.293,-5.3712e-06,0
37.294,-1.6617e-05,0
37.294,-1.6785e-05,0
37.295,-7.5532e-06,0
37.295,-6.5461e-06,0
37.296,-1.8967e-05,0
37.296,-2.8031e-05,0
37.297,-1.091e-05,0
37.297,3.4409e-05,0
37.298,8.5771e-05,0
37.298,0.00011968,0
37.299,0.00011196,0
37.299,5.9754e-05,0
37.3,-7.2175e-06,0
37.3,-5.0187e-05,0
37.301,-5.6901e-05,0
37.302,-3.2563e-05,0
37.302,9.0639e-06,0
37.303,3.4745e-05,0
37.303,2.9374e-05,0
37.304,1.9638e-05,0
37.304,5.2033e-05,0
37.305,0.0001227,0
37.305,0.00018329,0
37.306,0.00019101,0
37.306,0.00013747,0
37.307,4.9012e-05,0
37.307,-3.6423e-05,0
37.308,-9.2821e-05,0
37.308,-0.00011078,0
37.309,-0.00010927,0
37.309,-0.00010809,0
37.31,-0.00010608,0
37.31,-0.00010088,0
37.311,-0.00010809,0
37.311,-0.00012236,0
37.312,-0.00011682,0
37.312,-8.51e-05,0
37.313,-4.6326e-05,0
37.313,-1.7792e-05,0
37.314,-5.3712e-06,0
37.315,1.5106e-06,0
37.315,8.2246e-06,0
37.316,1.796e-05,0
37.316,3.1556e-05,0
37.317,5.0355e-05,0
37.317,6.7643e-05,0
37.318,6.7979e-05,0
37.318,5.3544e-05,0
37.319,4.4816e-05,0
37.319,4.5319e-05,0
37.32,4.6159e-05,0
37.32,4.3305e-05,0
37.321,3.6423e-05,0
37.321,2.4002e-05,0
37.322,1.4099e-05,0
37.322,1.7288e-05,0
37.323,3.1891e-05,0
37.323,4.8005e-05,0
37.324,6.0258e-05,0
37.324,6.6636e-05,0
37.325,6.8315e-05,0
37.325,6.9657e-05,0
37.326,6.9657e-05,0
37.326,5.8915e-05,0
37.327,4.2802e-05,0
37.328,3.2059e-05,0
37.328,3.0549e-05,0
37.329,3.3402e-05,0
37.329,3.9109e-05,0
37.33,4.7837e-05,0
37.33,5.7572e-05,0
37.331,6.6636e-05,0
37.331,7.9057e-05,0
37.332,9.0974e-05,0
37.332,8.8457e-05,0
37.333,6.9657e-05,0
37.333,5.0019e-05,0
37.334,3.9109e-05,0
37.334,3.2059e-05,0
37.335,2.652e-05,0
37.335,2.2995e-05,0
37.336,2.266e-05,0
37.336,2.266e-05,0
37.337,2.6352e-05,0
37.337,2.9877e-05,0
37.338,3.0549e-05,0
37.338,3.1388e-05,0
37.339,3.6591e-05,0
37.339,4.5487e-05,0
37.34,5.1194e-05,0
37.34,5.069e-05,0
37.341,4.683e-05,0
37.342,4.9516e-05,0
37.342,5.9251e-05,0
37.343,6.0258e-05,0
37.343,4.7166e-05,0
37.344,2.9374e-05,0
37.344,1.1749e-05,0
37.345,-6.8818e-06,0
37.345,-2.2995e-05,0
37.346,-3.0213e-05,0
37.346,-2.9374e-05,0
37.347,-2.8031e-05,0
37.347,-2.7024e-05,0
37.348,-1.8967e-05,0
37.348,7.5532e-06,0
37.349,5.2537e-05,0
37.349,9.7856e-05,0
37.35,0.00012538,0
37.35,0.00012136,0
37.351,8.896e-05,0
37.351,5.2201e-05,0
37.352,2.4338e-05,0
37.352,-1.5106e-06,0
37.353,-1.9303e-05,0
37.353,-7.8889e-06,0
37.354,4.1123e-05,0
37.355,9.5506e-05,0
37.355,0.00010591,0
37.356,6.9657e-05,0
37.356,3.6088e-05,0
37.357,2.4674e-05,0
37.357,7.0497e-06,0
37.358,-3.1052e-05,0
37.358,-6.7811e-05,0
37.359,-7.57e-05,0
37.359,-7.8721e-05,0
37.36,-0.00010642,0
37.36,-0.00013596,0
37.361,-0.00014888,0
37.361,-0.00015459,0
37.362,-0.00015157,0
37.362,-0.00014687,0
37.363,-0.00014586,0
37.363,-0.00014099,0
37.364,-0.00011632,0
37.364,-5.8579e-05,0
37.365,2.6184e-05,0
37.365,0.00010994,0
37.366,0.00016902,0
37.366,0.00018883,0
37.367,0.00016298,0
37.367,0.00010927,0
37.368,6.0258e-05,0
37.369,2.4506e-05,0
37.369,-3.5248e-06,0
37.37,-2.3667e-05,0
37.37,-4.7166e-05,0
37.371,-9.1478e-05,0
37.371,-0.00014452,0
37.372,-0.0001801,0
37.372,-0.00019068,0
37.373,-0.00018195,0
37.373,-0.00015627,0
37.374,-0.00011817,0
37.374,-7.3686e-05,0
37.375,-2.8199e-05,0
37.375,1.561e-05,0
37.376,5.388e-05,0
37.376,8.1071e-05,0
37.377,0.00010272,0
37.377,0.00011934,0
37.378,0.00012639,0
37.378,0.0001279,0
37.379,0.00012605,0
37.379,0.00012303,0
37.38,0.00012068,0
37.38,0.00011968,0
37.381,0.00011766,0
37.382,0.00011632,0
37.382,0.00011565,0
37.383,0.00010927,0
37.383,9.7856e-05,0
37.384,8.7114e-05,0
37.384,8.0064e-05,0
37.385,7.5364e-05,0
37.385,6.5797e-05,0
37.386,4.7501e-05,0
37.386,2.8534e-05,0
37.387,1.4267e-05,0
37.387,1.0407e-05,0
37.388,2.1653e-05,0
37.388,3.9109e-05,0
37.389,5.2033e-05,0
37.389,5.4215e-05,0
37.39,4.6159e-05,0
37.39,3.7766e-05,0
37.391,3.6423e-05,0
37.391,4.1291e-05,0
37.392,4.6159e-05,0
37.392,4.9516e-05,0
37.393,5.3544e-05,0
37.393,5.7572e-05,0
37.394,6.0258e-05,0
37.394,6.1601e-05,0
37.395,6.3615e-05,0
37.396,6.63e-05,0
37.396,6.63e-05,0
37.397,6.0258e-05,0
37.397,5.0187e-05,0
37.398,3.743e-05,0
37.398,2.1149e-05,0
37.399,1.0071e-05,0
37.399,1.796e-05,0
37.4,3.4745e-05,0
37.4,3.6088e-05,0
37.401,1.4099e-05,0
37.401,-1.3596e-05,0
37.402,-2.6856e-05,0
37.402,-2.4002e-05,0
37.403,-1.091e-05,0
37.403,1.561e-05,0
37.404,5.623e-05,0
37.404,0.00010692,0
37.405,0.00014939,0
37.405,0.00016432,0
37.406,0.00015023,0
37.406,0.0001138,0
37.407,6.3279e-05,0
37.407,2.0813e-05,0
37.408,-4.3641e-06,0
37.408,-3.1388e-05,0
37.409,-7.805e-05,0
37.41,-0.00013663,0
37.41,-0.00017574,0
37.411,-0.00017288,0
37.411,-0.00014015,0
37.412,-9.4163e-05,0
37.412,-1.3092e-05,0
37.413,0.00013008,0
37.413,0.00029575,0
37.414,0.00037816,0
37.414,0.00032596,0
37.415,0.00019319,0
37.415,6.0929e-05,0
37.416,-4.062e-05,0
37.416,-0.00011162,0
37.417,-0.00017171,0
37.417,-0.00023633,0
37.418,-0.00029374,0
37.418,-0.00032613,0
37.419,-0.00032663,0
37.419,-0.00027611,0
37.42,-0.00016869,0
37.42,-3.6088e-05,0
37.421,7.1e-05,0
37.421,0.00012438,0
37.422,0.00014083,0
37.423,0.00013747,0
37.423,0.00011464,0
37.424,7.7043e-05,0
37.424,2.501e-05,0
37.425,-3.2731e-05,0
37.425,-7.9728e-05,0
37.426,-0.00012505,0
37.426,-0.00017205,0
37.427,-0.00018682,0
37.427,-0.00015056,0
37.428,-9.9535e-05,0
37.428,-7.2679e-05,0
37.429,-6.4622e-05,0
37.429,-4.8508e-05,0
37.43,-1.0239e-05,0
37.43,3.8605e-05,0
37.431,8.1743e-05,0
37.431,0.00011498,0
37.432,0.00013512,0
37.432,0.00014435,0
37.433,0.00015828,0
37.433,0.00017641,0
37.434,0.00018648,0
37.434,0.00018346,0
37.435,0.00017423,0
37.435,0.00015576,0
37.436,0.00012404,0
37.437,8.9632e-05,0
37.437,4.918e-05,0
37.438,-2.6856e-06,0
37.438,-3.4073e-05,0
37.439,-2.3667e-05,0
37.439,2.3331e-05,0
37.44,9.2821e-05,0
37.44,0.0001509,0
37.441,0.00015274,0
37.441,0.00010726,0
37.442,6.2943e-05,0
37.442,4.0116e-05,0
37.443,3.6088e-05,0
37.443,6.0258e-05,0
37.444,8.3253e-05,0
37.444,8.0064e-05,0
37.445,8.04e-05,0
37.445,0.00010625,0
37.446,0.0001274,0
37.446,0.00010826,0
37.447,3.9277e-05,0
37.447,-6.2608e-05,0
37.448,-0.00011598,0
37.448,-7.7043e-05,0
37.449,-1.0239e-05,0
37.45,2.1149e-05,0
37.45,9.2317e-06,0
37.451,-4.3305e-05,0
37.451,-0.00011666,0
37.452,-0.00016147,0
37.452,-0.00016449,0
37.453,-0.00015174,0
37.453,-0.00014368,0
37.454,-0.00012874,0
37.454,-9.2485e-05,0
37.455,-4.8173e-05,0
37.455,1.0407e-05,0
37.456,9.4499e-05,0
37.456,0.00015677,0
37.457,0.0001556,0
37.457,0.00011968,0
37.458,8.8121e-05,0
37.458,5.9922e-05,0
37.459,2.3835e-05,0
37.459,-1.3428e-05,0
37.46,-4.5151e-05,0
37.46,-7.4022e-05,0
37.461,-9.1478e-05,0
37.461,-7.5868e-05,0
37.462,-9.2317e-06,0
37.462,7.57e-05,0
37.463,0.00012689,0
37.464,0.00011766,0
37.464,5.1362e-05,0
37.465,-2.266e-05,0
37.465,-4.7837e-05,0
37.466,-3.5752e-05,0
37.466,-3.9445e-05,0
37.467,-6.1936e-05,0
37.467,-6.949e-05,0
37.468,-4.8508e-05,0
37.468,1.4603e-05,0
37.469,9.8192e-05,0
37.469,0.00015073,0
37.47,0.00016953,0
37.47,0.0001895,0
37.471,0.00021971,0
37.471,0.00023432,0
37.472,0.00021032,0
37.472,0.00014788,0
37.473,6.4286e-05,0
37.473,-1.8296e-05,0
37.474,-9.8863e-05,0
37.474,-0.00014653,0
37.475,-0.00010591,0
37.475,-2.8534e-06,0
37.476,6.5293e-05,0
37.477,6.2608e-05,0
37.477,4.2634e-05,0
37.478,4.448e-05,0
37.478,4.4144e-05,0
37.479,2.1653e-05,0
37.479,-2.0981e-05,0
37.48,-7.6036e-05,0
37.48,-0.00011951,0
37.481,-0.0001326,0
37.481,-0.00012505,0
37.482,-9.7017e-05,0
37.482,-6.5126e-05,0
37.483,-4.7166e-05,0
37.483,-1.0575e-05,0
37.484,4.7166e-05,0
37.484,7.335e-05,0
37.485,3.9445e-05,0
37.485,-2.1317e-05,0
37.486,-5.6901e-05,0
37.486,-4.7501e-05,0
37.487,-2.3331e-05,0
37.487,-1.2589e-05,0
37.488,-6.5461e-06,0
37.488,9.5674e-06,0
37.489,3.122e-05,0
37.489,4.448e-05,0
37.49,7.2847e-05,0
37.491,0.0001425,0
37.491,0.00020998,0
37.492,0.00022072,0
37.492,0.00017775,0
37.493,9.7856e-05,0
37.493,6.8818e-06,0
37.494,-6.6636e-05,0
37.494,-0.00011061,0
37.495,-0.00012203,0
37.495,-0.00010356,0
37.496,-6.1433e-05,0
37.496,-1.6617e-05,0
37.497,2.1988e-05,0
37.497,4.6662e-05,0
37.498,4.683e-05,0
37.498,3.5416e-05,0
37.499,2.4674e-05,0
37.499,2.501e-05,0
37.5,3.6759e-05,0
37.5,3.6759e-05,0
37.501,1.7456e-05,0
37.501,-2.6856e-06,0
37.502,-8.5603e-06,0
37.502,5.539e-06,0
37.503,3.2395e-05,0
37.504,5.7069e-05,0
37.504,0.00010457,0
37.505,0.00019319,0
37.505,0.00027846,0
37.506,0.00032781,0
37.506,0.0003258,0
37.507,0.00026151,0
37.507,0.00015929,0
37.508,5.6565e-05,0
37.508,-3.0381e-05,0
37.509,-9.5842e-05,0
37.509,-0.0001326,0
37.51,-0.00014788,0
37.51,-0.00016265,0
37.511,-0.00018648,0
37.511,-0.0001937,0
37.512,-0.00014888,0
37.512,-6.9993e-05,0
37.513,-6.5461e-06,0
37.513,1.3092e-05,0
37.514,-6.2104e-06,0
37.514,-3.2395e-05,0
37.515,-5.0187e-05,0
37.515,-4.8173e-05,0
37.516,2.8534e-05,0
37.517,0.00016835,0
37.517,0.00025882,0
37.518,0.00024388,0
37.518,0.0001702,0
37.519,9.1142e-05,0
37.519,2.4002e-05,0
37.52,-3.7263e-05,0
37.52,-9.2988e-05,0
37.521,-0.0001185,0
37.521,-0.00011514,0
37.522,-9.3492e-05,0
37.522,-6.6972e-05,0
37.523,-5.2033e-05,0
37.523,-5.5222e-05,0
37.524,-5.6565e-05,0
37.524,-4.2802e-05,0
37.525,-1.0239e-05,0
37.525,2.182e-05,0
37.526,2.7695e-05,0
37.526,1.1749e-05,0
37.527,-3.1891e-06,0
37.527,-7.2175e-06,0
37.528,-1.1749e-06,0
37.528,1.326e-05,0
37.529,3.3066e-05,0
37.529,4.5991e-05,0
37.53,3.4073e-05,0
37.531,2.182e-06,0
37.531,-2.7024e-05,0
37.532,-3.3234e-05,0
37.532,-1.4267e-05,0
37.533,1.4939e-05,0
37.533,3.7934e-05,0
37.534,5.3544e-05,0
37.534,6.3615e-05,0
37.535,7.2007e-05,0
37.535,8.2414e-05,0
37.536,9.1478e-05,0
37.536,9.2988e-05,0
37.537,8.9967e-05,0
37.537,8.5435e-05,0
37.538,7.7379e-05,0
37.538,6.9322e-05,0
37.539,6.2943e-05,0
37.539,5.7908e-05,0
37.54,5.0187e-05,0
37.54,4.0955e-05,0
37.541,3.8102e-05,0
37.541,5.2033e-05,0
37.542,6.8986e-05,0
37.542,7.9393e-05,0
37.543,8.5435e-05,0
37.544,9.0303e-05,0
37.544,9.2485e-05,0
37.545,9.7185e-05,0
37.545,0.00010793,0
37.546,0.00011666,0
37.546,0.000118,0
37.547,0.00011531,0
37.547,0.00010021,0
37.548,6.2608e-05,0
37.548,6.0426e-06,0
37.549,-5.3544e-05,0
37.549,-9.9702e-05,0
37.55,-0.00011666,0
37.55,-9.0135e-05,0
37.551,-1.9303e-05,0
37.551,3.6088e-05,0
37.552,3.3402e-05,0
37.552,8.7282e-06,0
37.553,-7.5532e-06,0
37.553,-2.501e-05,0
37.554,-5.539e-05,0
37.554,-0.00010155,0
37.555,-0.00014099,0
37.555,-0.00014485,0
37.556,-0.00012203,0
37.556,-0.00010289,0
37.557,-9.8527e-05,0
37.558,-8.8792e-05,0
37.558,-4.5319e-05,0
37.559,2.6688e-05,0
37.559,7.7546e-05,0
37.56,8.1407e-05,0
37.56,5.1865e-05,0
37.561,2.5177e-05,0
37.561,2.3667e-05,0
37.562,4.2634e-05,0
37.562,5.8915e-05,0
37.563,4.6662e-05,0
37.563,5.0355e-07,0
37.564,-3.7934e-05,0
37.564,-3.7095e-05,0
37.565,3.1891e-06,0
37.565,6.2608e-05,0
37.566,0.00012203,0
37.566,0.00017255,0
37.567,0.00020092,0
37.567,0.00017809,0
37.568,0.00010994,0
37.568,3.8941e-05,0
37.569,-1.1414e-05,0
37.569,-3.7095e-05,0
37.57,-1.9638e-05,0
37.571,2.9709e-05,0
37.571,5.8076e-05,0
37.572,2.652e-05,0
37.572,-3.7766e-05,0
37.573,-7.6707e-05,0
37.573,-8.6107e-05,0
37.574,-8.8624e-05,0
37.574,-7.805e-05,0
37.575,-5.304e-05,0
37.575,-2.9877e-05,0
37.576,-1.9806e-05,0
37.576,-1.8631e-05,0
37.577,-1.4603e-05,0
37.577,-8.7282e-06,0
37.578,-9.7353e-06,0
37.578,-1.091e-05,0
37.579,-8.7282e-06,0
37.579,-7.5532e-06,0
37.58,-7.5532e-06,0
37.58,-7.5532e-06,0
37.581,-1.3428e-05,0
37.581,-2.5681e-05,0
37.582,-3.0716e-05,0
37.582,-2.3331e-05,0
37.583,-6.714e-06,0
37.583,1.7792e-05,0
37.584,4.1459e-05,0
37.585,5.7237e-05,0
37.585,6.2608e-05,0
37.586,6.7643e-05,0
37.586,7.335e-05,0
37.587,6.6972e-05,0
37.587,3.9109e-05,0
37.588,2.8534e-06,0
37.588,-1.8967e-05,0
37.589,-2.0478e-05,0
37.589,-1.5274e-05,0
37.59,-9.9031e-06,0
37.59,2.3499e-06,0
37.591,2.4674e-05,0
37.591,4.9851e-05,0
37.592,6.7979e-05,0
37.592,7.5532e-05,0
37.593,7.6371e-05,0
37.593,8.3085e-05,0
37.594,9.752e-05,0
37.594,0.00010323,0
37.595,9.5338e-05,0
37.595,7.9728e-05,0
37.596,6.1433e-05,0
37.596,3.4241e-05,0
37.597,5.539e-06,0
37.597,-6.8818e-06,0
37.598,-4.0284e-06,0
37.599,1.6785e-06,0
37.599,1.0575e-05,0
37.6,3.7766e-05,0
37.6,8.7785e-05,0
37.601,0.0001462,0
37.601,0.00020041,0
37.602,0.00022676,0
37.602,0.00019907,0
37.603,0.00013445,0
37.603,7.2343e-05,0
37.604,2.8031e-05,0
37.604,-3.357e-06,0
37.605,-2.7695e-05,0
37.605,-4.8508e-05,0
37.606,-7.3518e-05,0
37.606,-0.00010188,0
37.607,-0.0001039,0
37.607,-5.8244e-05,0
37.608,3.5248e-06,0
37.608,3.1388e-05,0
37.609,2.7527e-05,0
37.609,3.2731e-05,0
37.61,8.3085e-05,0
37.61,0.00015425,0
37.611,0.00019655,0
37.612,0.00018447,0
37.612,0.00012605,0
37.613,5.153e-05,0
37.613,-1.4435e-05,0
37.614,-7.0497e-05,0
37.614,-0.00011548,0
37.615,-0.00013831,0
37.615,-0.00014183,0
37.616,-0.00014989,0
37.616,-0.00016667,0
37.617,-0.00015744,0
37.617,-0.00010709,0
37.618,-3.8437e-05,0
37.618,3.5752e-05,0
37.619,0.00011464,0
37.619,0.00016953,0
37.62,0.00016701,0
37.62,0.00010843,0
37.621,3.4409e-05,0
37.621,-1.7288e-05,0
37.622,-4.1123e-05,0
37.622,-3.8773e-05,0
37.623,6.2104e-06,0
37.623,8.5771e-05,0
37.624,0.00017104,0
37.624,0.00020662,0
37.625,0.00016936,0
37.626,9.4163e-05,0
37.626,1.7288e-05,0
37.627,-5.2033e-05,0
37.627,-0.0001044,0
37.628,-0.00014066,0
37.628,-0.00017742,0
37.629,-0.00020897,0
37.629,-0.00022089,0
37.63,-0.00020864,0
37.63,-0.00018715,0
37.631,-0.00016315,0
37.631,-0.00012706,0
37.632,-8.9464e-05,0
37.632,-5.9251e-05,0
37.633,-1.1582e-05,0
37.633,8.0903e-05,0
37.634,0.000165,0
37.634,0.0001848,0
37.635,0.00015358,0
37.635,0.00010977,0
37.636,7.7043e-05,0
37.636,6.244e-05,0
37.637,5.304e-05,0
37.637,3.6759e-05,0
37.638,2.501e-05,0
37.639,2.1317e-05,0
37.639,1.3428e-05,0
37.64,8.3925e-07,0
37.64,-3.6927e-06,0
37.641,8.5603e-06,0
37.641,3.4409e-05,0
37.642,5.8915e-05,0
37.642,6.1769e-05,0
37.643,4.6159e-05,0
37.643,3.7095e-05,0
37.644,4.6494e-05,0
37.644,6.5293e-05,0
37.645,7.0665e-05,0
37.645,4.5823e-05,0
37.646,1.1414e-05,0
37.646,-1.5106e-06,0
37.647,7.0497e-06,0
37.647,2.1988e-05,0
37.648,3.2059e-05,0
37.648,3.8773e-05,0
37.649,4.2634e-05,0
37.649,4.1123e-05,0
37.65,4.9516e-05,0
37.65,7.9393e-05,0
37.651,0.00012706,0
37.651,0.00018077,0
37.652,0.00022206,0
37.653,0.00024808,0
37.653,0.00026403,0
37.654,0.00026403,0
37.654,0.00023616,0
37.655,0.00018648,0
37.655,0.0001232,0
37.656,4.1123e-05,0
37.656,-5.5894e-05,0
37.657,-0.00012706,0
37.657,-0.0001378,0
37.658,-0.00010927,0
37.658,-8.2582e-05,0
37.659,-7.4357e-05,0
37.659,-8.3253e-05,0
37.66,-0.00010088,0
37.66,-0.00011498,0
37.661,-0.0001232,0
37.661,-0.00012538,0
37.662,-0.00011968,0
37.662,-0.00010692,0
37.663,-9.3156e-05,0
37.663,-8.2246e-05,0
37.664,-7.7379e-05,0
37.664,-6.9993e-05,0
37.665,-5.304e-05,0
37.666,-3.8605e-05,0
37.666,-3.3402e-05,0
37.667,-2.7024e-05,0
37.667,-1.091e-05,0
37.668,1.1246e-05,0
37.668,3.0549e-05,0
37.669,4.4816e-05,0
37.669,6.0594e-05,0
37.67,8.3421e-05,0
37.67,0.00010726,0
37.671,0.0001284,0
37.671,0.00017423,0
37.672,0.00024892,0
37.672,0.00030246,0
37.673,0.00030163,0
37.673,0.00024691,0
37.674,0.00016416,0
37.674,7.9728e-05,0
37.675,1.5274e-05,0
37.675,-2.0981e-05,0
37.676,-3.8437e-05,0
37.676,-6.2776e-05,0
37.677,-0.00010742,0
37.677,-0.00015291,0
37.678,-0.00016768,0
37.678,-0.00014351,0
37.679,-0.00011162,0
37.68,-9.5506e-05,0
37.68,-7.2679e-05,0
37.681,-2.6017e-05,0
37.681,1.9471e-05,0
37.682,3.508e-05,0
37.682,1.8128e-05,0
37.683,-1.6617e-05,0
37.683,-4.1459e-05,0
37.684,-3.9277e-05,0
37.684,-1.1582e-05,0
37.685,2.4674e-05,0
37.685,5.2705e-05,0
37.686,6.3951e-05,0
37.686,5.4887e-05,0
37.687,3.3402e-05,0
37.687,4.8676e-06,0
37.688,-2.031e-05,0
37.688,-3.5416e-05,0
37.689,-3.3066e-05,0
37.689,-1.2421e-05,0
37.69,1.1582e-05,0
37.69,2.7024e-05,0
37.691,3.7598e-05,0
37.691,7.335e-05,0
37.692,0.00014133,0
37.693,0.00018849,0
37.693,0.00017137,0
37.694,9.8192e-05,0
37.694,1.8631e-05,0
37.695,-2.3163e-05,0
37.695,-3.1891e-05,0
37.696,-3.4745e-05,0
37.696,-4.2466e-05,0
37.697,-3.6423e-05,0
37.697,-1.2757e-05,0
37.698,8.3925e-06,0
37.698,6.5461e-06,0
37.699,-4.8676e-06,0
37.699,-2.5177e-06,0
37.7,9.9031e-06,0
37.7,2.3163e-05,0
37.701,4.3137e-05,0
37.701,7.4022e-05,0
37.702,0.00010054,0
37.702,0.00010893,0
37.703,0.00011128,0
37.703,0.00013848,0
37.704,0.00016432,0
37.704,0.00013277,0
37.705,5.2537e-05,0
37.706,-3.122e-05,0
37.706,-6.8986e-05,0
37.707,-4.6494e-05,0
37.707,-5.0355e-06,0
37.708,1.2421e-05,0
37.708,-1.1749e-06,0
37.709,-3.4241e-05,0
37.709,-6.63e-05,0
37.71,-8.4092e-05,0
37.71,-8.896e-05,0
37.711,-8.4428e-05,0
37.711,-6.9993e-05,0
37.712,-4.9516e-05,0
37.712,-3.3066e-05,0
37.713,-2.8702e-05,0
37.713,-2.3331e-05,0
37.714,-6.3783e-06,0
37.714,1.326e-05,0
37.715,3.3234e-05,0
37.715,5.0858e-05,0
37.716,6.2272e-05,0
37.716,7.7043e-05,0
37.717,9.2485e-05,0
37.717,9.9535e-05,0
37.718,9.2485e-05,0
37.718,7.5029e-05,0
37.719,6.3279e-05,0
37.72,6.3111e-05,0
37.72,6.2943e-05,0
37.721,4.6494e-05,0
37.721,1.8967e-05,0
37.722,-4.8676e-06,0
37.722,-2.0813e-05,0
37.723,-3.2395e-05,0
37.723,-3.7095e-05,0
37.724,-3.7598e-05,0
37.724,-4.7837e-05,0
37.725,-5.6901e-05,0
37.725,-3.7263e-05,0
37.726,1.091e-05,0
37.726,5.7404e-05,0
37.727,7.6371e-05,0
37.727,7.0832e-05,0
37.728,6.2272e-05,0
37.728,6.6804e-05,0
37.729,9.0471e-05,0
37.729,0.00012169,0
37.73,0.00013948,0
37.73,0.00013814,0
37.731,0.00012068,0
37.731,9.4499e-05,0
37.732,6.2608e-05,0
37.733,2.5681e-05,0
37.733,-9.9031e-06,0
37.734,-2.7024e-05,0
37.734,-2.3331e-05,0
37.735,-2.3331e-05,0
37.735,-3.7766e-05,0
37.736,-5.1698e-05,0
37.736,-6.1433e-05,0
37.737,-7.2679e-05,0
37.737,-7.9225e-05,0
37.738,-7.2007e-05,0
37.738,-5.7404e-05,0
37.739,-4.0452e-05,0
37.739,-1.9638e-05,0
37.74,5.0355e-06,0
37.74,3.122e-05,0
37.741,6.5629e-05,0
37.741,0.00010809,0
37.742,0.00014217,0
37.742,0.00015056,0
37.743,0.00013948,0
37.743,0.0001237,0
37.744,0.00010491,0
37.744,8.04e-05,0
37.745,5.7572e-05,0
37.745,3.9109e-05,0
37.746,2.1317e-05,0
37.747,-7.8889e-06,0
37.747,-4.4984e-05,0
37.748,-6.8482e-05,0
37.748,-8.2582e-05,0
37.749,-9.3156e-05,0
37.749,-9.6513e-05,0
37.75,-9.8192e-05,0
37.75,-0.00010306,0
37.751,-9.8695e-05,0
37.751,-8.1071e-05,0
37.752,-6.1097e-05,0
37.752,-4.5991e-05,0
37.753,-3.1724e-05,0
37.753,-1.7624e-05,0
37.754,-3.5248e-06,0
37.754,1.5274e-05,0
37.755,3.4745e-05,0
37.755,4.6494e-05,0
37.756,5.8579e-05,0
37.756,8.5603e-05,0
37.757,0.00011246,0
37.757,0.00011833,0
37.758,0.00010558,0
37.758,8.3757e-05,0
37.759,6.4622e-05,0
37.76,4.9851e-05,0
37.76,3.1724e-05,0
37.761,1.2253e-05,0
37.761,6.5461e-06,0
37.762,2.0645e-05,0
37.762,3.743e-05,0
37.763,4.3305e-05,0
37.763,4.0787e-05,0
37.764,3.8605e-05,0
37.764,3.3402e-05,0
37.765,2.7024e-05,0
37.765,2.5345e-05,0
37.766,3.0381e-05,0
37.766,4.0452e-05,0
37.767,4.8173e-05,0
37.767,4.6159e-05,0
37.768,3.5752e-05,0
37.768,3.0716e-05,0
37.769,3.5752e-05,0
37.769,4.4816e-05,0
37.77,4.8844e-05,0
37.77,4.6494e-05,0
37.771,4.3473e-05,0
37.771,4.448e-05,0
37.772,4.918e-05,0
37.772,4.7166e-05,0
37.773,3.7766e-05,0
37.774,2.5345e-05,0
37.774,9.7353e-06,0
37.775,-6.3783e-06,0
37.775,-2.2324e-05,0
37.776,-3.5584e-05,0
37.776,-3.9445e-05,0
37.777,-2.6184e-05,0
37.777,-1.5106e-06,0
37.778,2.4842e-05,0
37.778,5.8244e-05,0
37.779,9.4163e-05,0
37.779,0.00010776,0
37.78,8.7785e-05,0
37.78,4.918e-05,0
37.781,1.5946e-05,0
37.781,-5.0355e-07,0
37.782,-1.0239e-05,0
37.782,-2.417e-05,0
37.783,-3.7934e-05,0
37.783,-4.2298e-05,0
37.784,-4.3641e-05,0
37.784,-4.6159e-05,0
37.785,-4.9851e-05,0
37.785,-5.539e-05,0
37.786,-5.6565e-05,0
37.786,-4.5991e-05,0
37.787,-3.2898e-05,0
37.788,-2.5177e-05,0
37.788,-1.3596e-05,0
37.789,2.3499e-06,0
37.789,7.8889e-06,0
37.79,1.7792e-05,0
37.79,4.8844e-05,0
37.791,8.3757e-05,0
37.791,0.00010172,0
37.792,9.9199e-05,0
37.792,8.7785e-05,0
37.793,7.3686e-05,0
37.793,5.7237e-05,0
37.794,4.3305e-05,0
37.794,3.743e-05,0
37.795,3.8605e-05,0
37.795,3.2395e-05,0
37.796,3.1891e-06,0
37.796,-3.1052e-05,0
37.797,-4.2466e-05,0
37.797,-3.1388e-05,0
37.798,-1.2253e-05,0
37.798,1.2421e-05,0
37.799,5.153e-05,0
37.799,0.00010054,0
37.8,0.00014485,0
37.801,0.00018614,0
37.801,0.00022458,0
37.802,0.00023314,0
37.802,0.00019286,0
37.803,0.00011531,0
37.803,2.652e-05,0
37.804,-5.4047e-05,0
37.804,-0.00012656,0
37.805,-0.00017775,0
37.805,-0.00019152,0
37.806,-0.00019185,0
37.806,-0.00021099,0
37.807,-0.000237,0
37.807,-0.0002229,0
37.808,-0.00015644,0
37.808,-7.5364e-05,0
37.809,-1.7456e-05,0
37.809,1.5274e-05,0
37.81,3.3738e-05,0
37.81,5.0355e-05,0
37.811,6.1936e-05,0
37.811,6.2272e-05,0
37.812,5.5222e-05,0
37.812,3.9948e-05,0
37.813,2.6017e-05,0
37.813,3.0716e-05,0
37.814,4.3641e-05,0
37.815,4.683e-05,0
37.815,3.5752e-05,0
37.816,2.182e-05,0
37.816,1.0239e-05,0
37.817,6.2104e-06,0
37.817,1.9135e-05,0
37.818,5.6733e-05,0
37.818,0.00011229,0
37.819,0.00015409,0
37.819,0.0001566,0
37.82,0.00012522,0
37.82,8.6946e-05,0
37.821,5.8244e-05,0
37.821,3.6759e-05,0
37.822,1.8631e-05,0
37.822,6.2104e-06,0
37.823,2.3499e-06,0
37.823,9.7353e-06,0
37.824,1.6953e-05,0
37.824,7.5532e-06,0
37.825,-1.6449e-05,0
37.825,-4.3137e-05,0
37.826,-5.8747e-05,0
37.826,-5.4551e-05,0
37.827,-3.3738e-05,0
37.828,-5.2033e-06,0
37.828,2.3667e-05,0
37.829,4.6159e-05,0
37.829,5.5558e-05,0
37.83,5.3208e-05,0
37.83,4.8005e-05,0
37.831,4.3137e-05,0
37.831,4.1794e-05,0
37.832,4.4816e-05,0
37.832,4.4816e-05,0
37.833,2.6184e-05,0
37.833,-2.3499e-06,0
37.834,-1.3764e-05,0
37.834,-3.6927e-06,0
37.835,1.1078e-05,0
37.835,1.8631e-05,0
37.836,2.4506e-05,0
37.836,4.7166e-05,0
37.837,9.0471e-05,0
37.837,0.00012186,0
37.838,0.00011649,0
37.838,8.3085e-05,0
37.839,4.6494e-05,0
37.839,2.0478e-05,0
37.84,7.2175e-06,0
37.84,1.6785e-07,0
37.841,-6.2104e-06,0
37.842,-6.5461e-06,0
37.842,3.1891e-06,0
37.843,2.0645e-05,0
37.843,4.0116e-05,0
37.844,5.7237e-05,0
37.844,6.9993e-05,0
37.845,7.7043e-05,0
37.845,7.7379e-05,0
37.846,8.0735e-05,0
37.846,9.8863e-05,0
37.847,0.00012186,0
37.847,0.00013999,0
37.848,0.0001415,0
37.848,0.00012723,0
37.849,0.00010407,0
37.849,7.1e-05,0
37.85,2.8367e-05,0
37.85,-1.3092e-05,0
37.851,-4.6494e-05,0
37.851,-6.7308e-05,0
37.852,-7.8721e-05,0
37.852,-9.1142e-05,0
37.853,-0.00010759,0
37.853,-0.00012001,0
37.854,-0.00012706,0
37.855,-0.00013696,0
37.855,-0.00015442,0
37.856,-0.00016684,0
37.856,-0.00015073,0
37.857,-0.00010256,0
37.857,-3.9948e-05,0
37.858,2.6688e-05,0
37.858,0.00010323,0
37.859,0.00016768,0
37.859,0.00018447,0
37.86,0.00015073,0
37.86,0.00010188,0
37.861,6.7979e-05,0
37.861,3.6423e-05,0
37.862,-1.2589e-05,0
37.862,-6.009e-05,0
37.863,-8.2414e-05,0
37.863,-8.3925e-05,0
37.864,-7.335e-05,0
37.864,-5.2873e-05,0
37.865,-1.3596e-05,0
37.865,4.0787e-05,0
37.866,8.5435e-05,0
37.866,9.8527e-05,0
37.867,8.2246e-05,0
37.867,5.4887e-05,0
37.868,3.5752e-05,0
37.869,2.9374e-05,0
37.869,2.3835e-05,0
37.87,1.0742e-05,0
37.87,-1.0071e-06,0
37.871,-6.3783e-06,0
37.871,-1.6281e-05,0
37.872,-4.448e-05,0
37.872,-7.1e-05,0
37.873,-6.865e-05,0
37.873,-3.9445e-05,0
37.874,-8.3925e-07,0
37.874,3.4409e-05,0
37.875,6.0929e-05,0
37.875,8.1575e-05,0
37.876,9.2821e-05,0
37.876,8.9464e-05,0
37.877,7.1336e-05,0
37.877,4.1459e-05,0
37.878,1.4939e-05,0
37.878,8.3925e-07,0
37.879,-1.091e-05,0
37.879,-2.501e-05,0
37.88,-3.1556e-05,0
37.88,-3.3234e-05,0
37.881,-4.3137e-05,0
37.882,-5.0187e-05,0
37.882,-3.2731e-05,0
37.883,1.1749e-06,0
37.883,2.887e-05,0
37.884,4.6998e-05,0
37.884,5.4719e-05,0
37.885,5.2201e-05,0
37.885,4.683e-05,0
37.886,4.6662e-05,0
37.886,5.5222e-05,0
37.887,6.7308e-05,0
37.887,7.7714e-05,0
37.888,8.6442e-05,0
37.888,9.0471e-05,0
37.889,8.7785e-05,0
37.889,8.1743e-05,0
37.89,7.9057e-05,0
37.89,9.2317e-05,0
37.891,0.00011582,0
37.891,0.00012471,0
37.892,0.00010893,0
37.892,8.3085e-05,0
37.893,6.7475e-05,0
37.893,6.6133e-05,0
37.894,6.6972e-05,0
37.895,5.7404e-05,0
37.895,3.3738e-05,0
37.896,5.0355e-07,0
37.896,-3.6088e-05,0
37.897,-6.865e-05,0
37.897,-8.8121e-05,0
37.898,-7.4693e-05,0
37.898,-2.5513e-05,0
37.899,2.031e-05,0
37.899,2.7695e-05,0
37.9,1.6617e-05,0
37.9,3.4073e-05,0
37.901,8.2582e-05,0
37.901,0.00012471,0
37.902,0.00013629,0
37.902,0.00011263,0
37.903,6.1936e-05,0
37.903,7.2175e-06,0
37.904,-2.8199e-05,0
37.904,-4.7166e-05,0
37.905,-7.4861e-05,0
37.905,-0.00011431,0
37.906,-0.00012773,0
37.906,-0.00010222,0
37.907,-7.5364e-05,0
37.907,-6.2776e-05,0
37.908,-3.6088e-05,0
37.909,1.4603e-05,0
37.909,6.3447e-05,0
37.91,9.0471e-05,0
37.91,0.00011128,0
37.911,0.00014183,0
37.911,0.00015174,0
37.912,0.00011984,0
37.912,6.0258e-05,0
37.913,-3.1891e-06,0
37.913,-5.7404e-05,0
37.914,-0.00010507,0
37.914,-0.00013478,0
37.915,-0.00013361,0
37.915,-0.00011196,0
37.916,-8.6442e-05,0
37.916,-7.1e-05,0
37.917,-6.9993e-05,0
37.917,-7.7546e-05,0
37.918,-8.1407e-05,0
37.918,-7.2343e-05,0
37.919,-5.3208e-05,0
37.919,-2.4842e-05,0
37.92,2.1988e-05,0
37.92,8.2582e-05,0
37.921,0.00012689,0
37.922,0.00013243,0
37.922,0.0001091,0
37.923,7.7546e-05,0
37.923,4.9012e-05,0
37.924,2.031e-05,0
37.924,-7.3854e-06,0
37.925,-3.6423e-05,0
37.925,-6.3951e-05,0
37.926,-6.0594e-05,0
37.926,-2.4842e-05,0
37.927,1.4099e-05,0
37.927,4.1291e-05,0
37.928,5.623e-05,0
37.928,6.2272e-05,0
37.929,6.479e-05,0
37.929,7.0329e-05,0
37.93,7.805e-05,0
37.93,7.6875e-05,0
37.931,6.5461e-05,0
37.931,4.6159e-05,0
37.932,3.2059e-05,0
37.932,3.978e-05,0
37.933,5.0858e-05,0
37.933,4.6326e-05,0
37.934,4.0955e-05,0
37.934,4.6159e-05,0
37.935,4.8173e-05,0
37.936,3.8102e-05,0
37.936,2.7359e-05,0
37.937,2.2492e-05,0
37.937,2.3331e-05,0
37.938,2.7359e-05,0
37.938,2.8367e-05,0
37.939,2.4842e-05,0
37.939,7.7211e-06,0
37.94,-2.1988e-05,0
37.94,-3.1724e-05,0
37.941,7.5532e-06,0
37.941,6.949e-05,0
37.942,0.00010726,0
37.942,0.00010222,0
37.943,7.2679e-05,0
37.943,5.8412e-05,0
37.944,8.2414e-05,0
37.944,0.0001284,0
37.945,0.00015895,0
37.945,0.00015291,0
37.946,0.00012052,0
37.946,9.9199e-05,0
37.947,0.00011934,0
37.947,0.00015358,0
37.948,0.00015492,0
37.949,0.00011514,0
37.949,4.0787e-05,0
37.95,-5.1194e-05,0
37.95,-0.00012404,0
37.951,-0.00015795,0
37.951,-0.0001655,0
37.952,-0.00015644,0
37.952,-0.00013109,0
37.953,-0.00010306,0
37.953,-8.426e-05,0
37.954,-7.4861e-05,0
37.954,-6.63e-05,0
37.955,-5.2033e-05,0
37.955,-3.978e-05,0
37.956,-4.062e-05,0
37.956,-4.8844e-05,0
37.957,-4.4984e-05,0
37.957,-2.1988e-05,0
37.958,1.2253e-05,0
37.958,3.9445e-05,0
37.959,5.2705e-05,0
37.959,6.8315e-05,0
37.96,9.2821e-05,0
37.96,0.0001086,0
37.961,0.00010759,0
37.961,9.5003e-05,0
37.962,7.805e-05,0
37.963,8.6275e-05,0
37.963,0.00011598,0
37.964,0.00014318,0
37.964,0.00013948,0
37.965,8.2918e-05,0
37.965,-1.1414e-05,0
37.966,-8.7617e-05,0
37.966,-9.3492e-05,0
37.967,-5.5222e-05,0
37.967,-3.0716e-05,0
37.968,-3.4577e-05,0
37.968,-4.0452e-05,0
37.969,-2.031e-05,0
37.969,1.0071e-05,0
37.97,1.7288e-05,0
37.97,8.3925e-07,0
37.971,-2.5681e-05,0
37.971,-4.9683e-05,0
37.972,-5.539e-05,0
37.972,-4.5151e-05,0
37.973,-3.3738e-05,0
37.973,-1.3931e-05,0
37.974,3.8605e-06,0
37.974,-5.7069e-06,0
37.975,-3.8102e-05,0
37.975,-6.7643e-05,0
37.976,-8.1575e-05,0
37.977,-6.6636e-05,0
37.977,-1.8967e-05,0
37.978,4.448e-05,0
37.978,0.00010491,0
37.979,0.00015207,0
37.979,0.00017708,0
37.98,0.00017826,0
37.98,0.00017826,0
37.981,0.00019504,0
37.981,0.00023146,0
37.982,0.00026571,0
37.982,0.00026101,0
37.983,0.00020797,0
37.983,0.00017255,0
37.984,0.00020494,0
37.984,0.00022777,0
37.985,0.00017003,0
37.985,4.8173e-05,0
37.986,-9.0806e-05,0
37.986,-0.00020092,0
37.987,-0.00026537,0
37.987,-0.00031757,0
37.988,-0.00038303,0
37.988,-0.00041778,0
37.989,-0.00038152,0
37.99,-0.00029558,0
37.99,-0.00021099,0
37.991,-0.00015677,0
37.991,-0.00011833,0
37.992,-7.4693e-05,0
37.992,-4.1291e-05,0
37.993,-3.4073e-05,0
37.993,-3.1556e-05,0
37.994,-1.1582e-05,0
37.994,1.1078e-05,0
37.995,9.2317e-06,0
37.995,-2.8534e-06,0
37.996,5.8747e-06,0
37.996,3.4745e-05,0
37.997,6.3111e-05,0
37.997,8.3757e-05,0
37.998,9.8527e-05,0
37.998,0.00010944,0
37.999,0.00012538,0
37.999,0.00014519,0
38,0.00015795,0
38,0.00016701,0
38.001,0.00018715,0
38.001,0.00021804,0
38.002,0.00024271,0
38.002,0.00023818,0
38.003,0.00020494,0
38.004,0.00017154,0
38.004,0.00013915,0
38.005,9.7856e-05,0
38.005,5.2201e-05,0
38.006,1.091e-05,0
38.006,-1.091e-05,0
38.007,-2.8534e-06,0
38.007,1.3764e-05,0
38.008,-3.0213e-06,0
38.008,-4.9012e-05,0
38.009,-7.9057e-05,0
38.009,-8.5771e-05,0
38.01,-8.6778e-05,0
38.01,-8.4764e-05,0
38.011,-9.2653e-05,0
38.011,-0.00010692,0
38.012,-9.2485e-05,0
38.012,-4.5487e-05,0
38.013,8.2246e-06,0
38.013,6.8986e-05,0
38.014,0.0001462,0
38.014,0.0002224,0
38.015,0.00028383,0
38.015,0.00032613,0
38.016,0.00033721,0
38.017,0.00033352,0
38.017,0.00030733,0
38.018,0.00022005,0
38.018,8.1071e-05,0
38.019,-5.8915e-05,0
38.019,-0.00016432,0
38.02,-0.00022039,0
38.02,-0.00023012,0
38.021,-0.00020494,0
38.021,-0.00016533,0
38.022,-0.00013713,0
38.022,-8.8792e-05,0
38.023,5.2033e-06,0
38.023,7.9728e-05,0
38.024,7.6371e-05,0
38.024,1.1917e-05,0
38.025,-7.0329e-05,0
38.025,-0.00013545,0
38.026,-0.00016936,0
38.026,-0.00018077,0
38.027,-0.00018128,0
38.027,-0.00017473,0
38.028,-0.00015174,0
38.028,-0.00011313,0
38.029,-6.9825e-05,0
38.029,-3.0381e-05,0
38.03,2.3499e-06,0
38.031,2.266e-05,0
38.031,2.7359e-05,0
38.032,2.7024e-05,0
38.032,3.5416e-05,0
38.033,5.0187e-05,0
38.033,7.5532e-05,0
38.034,0.00012337,0
38.034,0.00016802,0
38.035,0.00017691,0
38.035,0.00015023,0
38.036,0.0001086,0
38.036,7.3686e-05,0
38.037,4.8173e-05,0
38.037,2.3667e-05,0
38.038,0,0
38.038,-8.896e-06,0
38.039,-3.5248e-06,0
38.039,5.0355e-07,0
38.04,2.182e-06,0
38.04,3.0213e-06,0
38.041,4.5319e-06,0
38.041,1.1749e-05,0
38.042,2.1317e-05,0
38.042,3.1724e-05,0
38.043,4.2802e-05,0
38.044,5.388e-05,0
38.044,6.5629e-05,0
38.045,7.8386e-05,0
38.045,9.9031e-05,0
38.046,0.00012186,0
38.046,0.00013579,0
38.047,0.00014015,0
38.047,0.00013411,0
38.048,0.00011548,0
38.048,9.3828e-05,0
38.049,7.8386e-05,0
38.049,7.1839e-05,0
38.05,6.6133e-05,0
38.05,5.0858e-05,0
38.051,2.2324e-05,0
38.051,-1.1749e-05,0
38.052,-3.9948e-05,0
38.052,-5.2201e-05,0
38.053,-5.4887e-05,0
38.053,-5.0523e-05,0
38.054,-3.6927e-05,0
38.054,-2.4506e-05,0
38.055,-2.8702e-05,0
38.055,-4.7166e-05,0
38.056,-6.1769e-05,0
38.056,-6.1769e-05,0
38.057,-4.7166e-05,0
38.058,-2.266e-05,0
38.058,3.357e-07,0
38.059,1.326e-05,0
38.059,1.8631e-05,0
38.06,2.1988e-05,0
38.06,2.3835e-05,0
38.061,2.8199e-05,0
38.061,3.5416e-05,0
38.062,3.978e-05,0
38.062,3.8102e-05,0
38.063,4.5991e-05,0
38.063,7.7043e-05,0
38.064,0.00012303,0
38.064,0.00016634,0
38.065,0.00019487,0
38.065,0.00019504,0
38.066,0.000166,0
38.066,0.00012673,0
38.067,9.0806e-05,0
38.067,5.7908e-05,0
38.068,2.652e-05,0
38.068,-1.0071e-05,0
38.069,-6.1936e-05,0
38.069,-0.00012303,0
38.07,-0.00016735,0
38.071,-0.00017826,0
38.071,-0.0001613,0
38.072,-0.00012589,0
38.072,-7.3854e-05,0
38.073,-1.4267e-05,0
38.073,4.0452e-05,0
38.074,6.865e-05,0
38.074,5.9419e-05,0
38.075,3.2059e-05,0
38.075,5.2033e-06,0
38.076,-7.8889e-06,0
38.076,2.0142e-06,0
38.077,1.5946e-05,0
38.077,1.1246e-05,0
38.078,-1.1246e-05,0
38.078,-3.6423e-05,0
38.079,-5.388e-05,0
38.079,-6.1601e-05,0
38.08,-6.4958e-05,0
38.08,-7.9393e-05,0
38.081,-9.0806e-05,0
38.081,-8.7953e-05,0
38.082,-7.6875e-05,0
38.082,-4.6159e-05,0
38.083,5.2033e-06,0
38.084,5.8412e-05,0
38.084,0.00010188,0
38.085,0.00012488,0
38.085,0.00012119,0
38.086,0.00010323,0
38.086,8.9464e-05,0
38.087,8.4932e-05,0
38.087,7.805e-05,0
38.088,6.3615e-05,0
38.088,4.5151e-05,0
38.089,3.4241e-05,0
38.089,2.9374e-05,0
38.09,1.6617e-05,0
38.09,2.3499e-06,0
38.091,-3.0213e-06,0
38.091,-1.5106e-06,0
38.092,8.896e-06,0
38.092,3.4577e-05,0
38.093,5.8747e-05,0
38.093,5.2873e-05,0
38.094,1.1582e-05,0
38.094,-3.5752e-05,0
38.095,-5.9251e-05,0
38.095,-5.0523e-05,0
38.096,-2.6017e-05,0
38.096,-5.3712e-06,0
38.097,-3.357e-07,0
38.098,-2.182e-06,0
38.098,9.9031e-06,0
38.099,3.1891e-05,0
38.099,4.1794e-05,0
38.1,3.8437e-05,0
38.1,3.2059e-05,0
38.101,2.9374e-05,0
38.101,3.3906e-05,0
38.102,4.1459e-05,0
38.102,5.8579e-05,0
38.103,9.3492e-05,0
38.103,0.00013394,0
38.104,0.0001608,0
38.104,0.00015895,0
38.105,0.00013059,0
38.105,8.9128e-05,0
38.106,4.8508e-05,0
38.106,1.6953e-05,0
38.107,4.8676e-06,0
38.107,5.0355e-06,0
38.108,-4.3641e-06,0
38.108,-2.9709e-05,0
38.109,-5.6062e-05,0
38.109,-6.1433e-05,0
38.11,-5.1194e-05,0
38.111,-4.1794e-05,0
38.111,-2.7695e-05,0
38.112,-6.2104e-06,0
38.112,7.8889e-06,0
38.113,-1.3428e-06,0
38.113,-2.4338e-05,0
38.114,-4.2802e-05,0
38.114,-4.683e-05,0
38.115,-2.8702e-05,0
38.115,2.7695e-05,0
38.116,9.5171e-05,0
38.116,0.00011984,0
38.117,8.8121e-05,0
38.117,2.8031e-05,0
38.118,-1.8296e-05,0
38.118,-2.9038e-05,0
38.119,-2.6184e-05,0
38.119,-3.5248e-05,0
38.12,-1.3764e-05,0
38.12,6.4454e-05,0
38.121,0.0001368,0
38.121,0.00017372,0
38.122,0.00020914,0
38.122,0.00023264,0
38.123,0.00021065,0
38.123,0.0001373,0
38.124,3.8102e-05,0
38.125,-4.4816e-05,0
38.125,-8.0735e-05,0
38.126,-8.0064e-05,0
38.126,-7.7211e-05,0
38.127,-8.6778e-05,0
38.127,-0.00010239,0
38.128,-0.00011582,0
38.128,-0.00011565,0
38.129,-0.00010423,0
38.129,-9.0135e-05,0
38.13,-7.2175e-05,0
38.13,-5.5558e-05,0
38.131,-4.448e-05,0
38.131,-3.6759e-05,0
38.132,-3.0381e-05,0
38.132,-2.5681e-05,0
38.133,-1.8463e-05,0
38.133,-3.6927e-06,0
38.134,2.0478e-05,0
38.134,5.0523e-05,0
38.135,7.5868e-05,0
38.135,8.896e-05,0
38.136,8.9799e-05,0
38.136,7.5029e-05,0
38.137,5.6733e-05,0
38.138,5.0523e-05,0
38.138,5.7237e-05,0
38.139,6.1265e-05,0
38.139,5.4887e-05,0
38.14,4.2298e-05,0
38.14,3.2563e-05,0
38.141,3.5416e-05,0
38.141,5.2201e-05,0
38.142,8.1071e-05,0
38.142,0.00010893,0
38.143,0.00011632,0
38.143,9.5171e-05,0
38.144,6.5629e-05,0
38.144,5.9251e-05,0
38.145,7.4022e-05,0
38.145,9.3492e-05,0
38.146,0.00010625,0
38.146,9.6513e-05,0
38.147,5.6565e-05,0
38.147,-3.5248e-06,0
38.148,-5.388e-05,0
38.148,-7.1168e-05,0
38.149,-6.7308e-05,0
38.149,-6.3615e-05,0
38.15,-6.6636e-05,0
38.15,-6.7643e-05,0
38.151,-6.0929e-05,0
38.152,-4.7501e-05,0
38.152,-3.8437e-05,0
38.153,-3.9277e-05,0
38.153,-3.978e-05,0
38.154,-3.2059e-05,0
38.154,-2.4674e-05,0
38.155,-2.031e-05,0
38.155,-1.5946e-05,0
38.156,-1.1582e-05,0
38.156,-7.2175e-06,0
38.157,-5.0355e-07,0
38.157,8.896e-06,0
38.158,1.326e-05,0
38.158,7.2175e-06,0
38.159,4.6998e-06,0
38.159,1.6617e-05,0
38.16,3.3402e-05,0
38.16,4.8844e-05,0
38.161,6.2104e-05,0
38.161,7.3014e-05,0
38.162,7.9728e-05,0
38.162,8.3085e-05,0
38.163,8.8624e-05,0
38.163,9.9199e-05,0
38.164,0.00011632,0
38.164,0.00012773,0
38.165,0.00012035,0
38.166,0.00010222,0
38.166,8.5771e-05,0
38.167,7.8386e-05,0
38.167,8.4596e-05,0
38.168,9.6513e-05,0
38.168,9.8192e-05,0
38.169,8.1239e-05,0
38.169,5.1865e-05,0
38.17,1.8631e-05,0
38.17,-3.6927e-06,0
38.171,4.1962e-06,0
38.171,2.8031e-05,0
38.172,3.1388e-05,0
38.172,1.7121e-05,0
38.173,1.8296e-05,0
38.173,3.8941e-05,0
38.174,5.3376e-05,0
38.174,4.3473e-05,0
38.175,2.5849e-05,0
38.175,1.3931e-05,0
38.176,-1.8463e-06,0
38.176,-1.6281e-05,0
38.177,-1.6617e-05,0
38.177,-1.6617e-05,0
38.178,-4.7837e-05,0
38.179,-0.00010759,0
38.179,-0.00015224,0
38.18,-0.00016617,0
38.18,-0.00016265,0
38.181,-0.00015795,0
38.181,-0.00014553,0
38.182,-0.00011279,0
38.182,-6.9993e-05,0
38.183,-3.1891e-05,0
38.183,9.0639e-06,0
38.184,4.7166e-05,0
38.184,6.8147e-05,0
38.185,6.8986e-05,0
38.185,5.0858e-05,0
38.186,2.266e-05,0
38.186,5.0355e-07,0
38.187,6.714e-07,0
38.187,2.0981e-05,0
38.188,4.213e-05,0
38.188,5.0523e-05,0
38.189,5.3208e-05,0
38.189,5.7572e-05,0
38.19,6.2272e-05,0
38.19,7.7043e-05,0
38.191,9.366e-05,0
38.191,9.2485e-05,0
38.192,7.6539e-05,0
38.193,5.7572e-05,0
38.193,3.4409e-05,0
38.194,1.0239e-05,0
38.194,-1.5106e-06,0
38.195,1.2757e-05,0
38.195,4.213e-05,0
38.196,5.7572e-05,0
38.196,6.1265e-05,0
38.197,7.9561e-05,0
38.197,0.00010776,0
38.198,0.00012068,0
38.198,0.00011666,0
38.199,9.9535e-05,0
38.199,7.1e-05,0
38.2,4.1291e-05,0
38.2,1.7121e-05,0
38.201,-4.1962e-06,0
38.201,-2.4674e-05,0
38.202,-3.2395e-05,0
38.202,-3.743e-05,0
38.203,-2.8367e-05,0
38.203,9.9031e-06,0
38.204,3.7598e-05,0
38.204,2.501e-05,0
38.205,-1.0407e-05,0
38.206,-4.0116e-05,0
38.206,-5.1194e-05,0
38.207,-4.5319e-05,0
38.207,-3.9109e-05,0
38.208,-4.4144e-05,0
38.208,-5.7908e-05,0
38.209,-7.6707e-05,0
38.209,-0.00010188,0
38.21,-0.00011766,0
38.21,-0.00010759,0
38.211,-7.4357e-05,0
38.211,-3.5752e-05,0
38.212,-2.182e-06,0
38.212,2.6688e-05,0
38.213,5.1865e-05,0
38.213,6.9657e-05,0
38.214,7.6204e-05,0
38.214,7.4861e-05,0
38.215,7.3182e-05,0
38.215,7.5532e-05,0
38.216,8.0735e-05,0
38.216,7.9728e-05,0
38.217,7.2007e-05,0
38.217,7.3014e-05,0
38.218,8.9799e-05,0
38.218,0.00011028,0
38.219,0.00011464,0
38.22,0.00011128,0
38.22,0.00012387,0
38.221,0.00016365,0
38.221,0.00020696,0
38.222,0.00021837,0
38.222,0.000189,0
38.223,0.00013613,0
38.223,7.5029e-05,0
38.224,2.3499e-06,0
38.224,-7.6204e-05,0
38.225,-0.00014083,0
38.225,-0.00017842,0
38.226,-0.00018833,0
38.226,-0.00018027,0
38.227,-0.00016835,0
38.227,-0.0001561,0
38.228,-0.0001232,0
38.228,-7.2511e-05,0
38.229,-2.4002e-05,0
38.229,2.2995e-05,0
38.23,6.7643e-05,0
38.23,9.1478e-05,0
38.231,8.51e-05,0
38.231,5.8579e-05,0
38.232,2.5177e-05,0
38.233,5.0355e-07,0
38.233,-8.2246e-06,0
38.234,-5.0355e-06,0
38.234,-3.1891e-06,0
38.235,-1.7624e-05,0
38.235,-3.8605e-05,0
38.236,-3.0381e-05,0
38.236,8.5603e-06,0
38.237,5.3376e-05,0
38.237,8.3925e-05,0
38.238,8.8792e-05,0
38.238,7.2679e-05,0
38.239,6.2608e-05,0
38.239,8.4428e-05,0
38.24,0.00012236,0
38.24,0.00015979,0
38.241,0.00017943,0
38.241,0.00016936,0
38.242,0.00012874,0
38.242,6.949e-05,0
38.243,1.796e-05,0
38.243,-9.7353e-06,0
38.244,-2.4338e-05,0
38.244,-4.7166e-05,0
38.245,-6.949e-05,0
38.245,-6.5293e-05,0
38.246,-3.6423e-05,0
38.247,-8.2246e-06,0
38.247,-8.5603e-06,0
38.248,-4.0955e-05,0
38.248,-8.0064e-05,0
38.249,-0.00010323,0
38.249,-0.00010625,0
38.25,-0.00010188,0
38.25,-9.2485e-05,0
38.251,-7.3014e-05,0
38.251,-5.388e-05,0
38.252,-3.743e-05,0
38.252,-1.4771e-05,0
38.253,1.4435e-05,0
38.253,3.978e-05,0
38.254,5.539e-05,0
38.254,6.9825e-05,0
38.255,8.896e-05,0
38.255,0.00011296,0
38.256,0.00014821,0
38.256,0.00019521,0
38.257,0.00022509,0
38.257,0.00020763,0
38.258,0.00015224,0
38.258,9.1142e-05,0
38.259,4.0787e-05,0
38.26,-3.5248e-06,0
38.26,-5.0019e-05,0
38.261,-9.4331e-05,0
38.261,-0.0001237,0
38.262,-0.00013327,0
38.262,-0.00013059,0
38.263,-0.00011565,0
38.263,-7.9728e-05,0
38.264,-2.6688e-05,0
38.264,2.6688e-05,0
38.265,8.2246e-05,0
38.265,0.00016013,0
38.266,0.00023616,0
38.266,0.00026705,0
38.267,0.00024053,0
38.267,0.00018077,0
38.268,0.00010843,0
38.268,3.4745e-05,0
38.269,-3.1891e-05,0
38.269,-8.426e-05,0
38.27,-0.0001044,0
38.27,-9.2988e-05,0
38.271,-6.865e-05,0
38.271,-6.009e-05,0
38.272,-7.5364e-05,0
38.273,-8.7114e-05,0
38.273,-6.4286e-05,0
38.274,-8.3925e-06,0
38.274,4.1291e-05,0
38.275,4.8844e-05,0
38.275,2.031e-05,0
38.276,-1.3596e-05,0
38.276,-3.3402e-05,0
38.277,-3.743e-05,0
38.277,-2.7527e-05,0
38.278,-1.6281e-05,0
38.278,-1.8799e-05,0
38.279,-3.0549e-05,0
38.279,-3.978e-05,0
38.28,-4.5151e-05,0
38.28,-4.3809e-05,0
38.281,-3.4913e-05,0
38.281,-2.2324e-05,0
38.282,-8.2246e-06,0
38.282,9.5674e-06,0
38.283,2.5345e-05,0
38.283,3.1052e-05,0
38.284,3.6759e-05,0
38.284,5.1362e-05,0
38.285,6.7979e-05,0
38.285,7.9728e-05,0
38.286,8.7114e-05,0
38.287,9.0471e-05,0
38.287,9.0303e-05,0
38.288,8.8792e-05,0
38.288,8.5435e-05,0
38.289,7.9225e-05,0
38.289,7.9561e-05,0
38.29,9.2149e-05,0
38.29,9.366e-05,0
38.291,7.0497e-05,0
38.291,6.0594e-05,0
38.292,9.1814e-05,0
38.292,0.0001227,0
38.293,0.00012689,0
38.293,0.00011867,0
38.294,9.9031e-05,0
38.294,7.7714e-05,0
38.295,7.2007e-05,0
38.295,6.1097e-05,0
38.296,1.9806e-05,0
38.296,-3.8102e-05,0
38.297,-7.3854e-05,0
38.297,-8.1239e-05,0
38.298,-8.2918e-05,0
38.298,-9.0806e-05,0
38.299,-9.6513e-05,0
38.3,-9.2317e-05,0
38.3,-7.7714e-05,0
38.301,-5.9083e-05,0
38.301,-4.3137e-05,0
38.302,-3.4409e-05,0
38.302,-2.8367e-05,0
38.303,-1.5442e-05,0
38.303,5.2033e-06,0
38.304,2.6688e-05,0
38.304,4.6494e-05,0
38.305,6.009e-05,0
38.305,6.4118e-05,0
38.306,6.3279e-05,0
38.306,6.6636e-05,0
38.307,7.6204e-05,0
38.307,7.57e-05,0
38.308,5.623e-05,0
38.308,4.0955e-05,0
38.309,5.9251e-05,0
38.309,0.00012203,0
38.31,0.00018682,0
38.31,0.00020108,0
38.311,0.00017104,0
38.311,0.0001274,0
38.312,8.2414e-05,0
38.312,5.153e-05,0
38.313,3.8437e-05,0
38.314,2.2492e-05,0
38.314,-1.5106e-06,0
38.315,-1.9806e-05,0
38.315,-1.9974e-05,0
38.316,-1.4267e-05,0
38.316,-2.0645e-05,0
38.317,-3.0716e-05,0
38.317,-5.8747e-06,0
38.318,3.7766e-05,0
38.318,4.6998e-05,0
38.319,1.3931e-05,0
38.319,-5.0858e-05,0
38.32,-0.00013378,0
38.32,-0.00021082,0
38.321,-0.00025228,0
38.321,-0.00024707,0
38.322,-0.00021434,0
38.322,-0.00017574,0
38.323,-0.00014015,0
38.323,-0.00011498,0
38.324,-9.9535e-05,0
38.324,-8.6275e-05,0
38.325,-6.8986e-05,0
38.325,-4.8173e-05,0
38.326,-2.7695e-05,0
38.327,-1.1078e-05,0
38.327,-1.3428e-06,0
38.328,5.2033e-06,0
38.328,1.796e-05,0
38.329,3.5416e-05,0
38.329,4.9348e-05,0
38.33,6.009e-05,0
38.33,7.3014e-05,0
38.331,8.9799e-05,0
38.331,0.00011061,0
38.332,0.00013042,0
38.332,0.00014183,0
38.333,0.00014401,0
38.333,0.00013814,0
38.334,0.00013075,0
38.334,0.0001284,0
38.335,0.00012807,0
38.335,0.00012706,0
38.336,0.00012673,0
38.336,0.00011179,0
38.337,7.7379e-05,0
38.337,4.5151e-05,0
38.338,3.0045e-05,0
38.338,2.182e-05,0
38.339,1.8296e-05,0
38.339,2.0478e-05,0
38.34,2.3331e-05,0
38.341,2.6017e-05,0
38.341,2.8367e-05,0
38.342,2.8702e-05,0
38.342,4.4816e-05,0
38.343,9.6178e-05,0
38.343,0.00014955,0
38.344,0.00016869,0
38.344,0.00014318,0
38.345,8.6946e-05,0
38.345,2.8031e-05,0
38.346,-9.0639e-06,0
38.346,-1.3931e-05,0
38.347,-8.5603e-06,0
38.347,-1.4939e-05,0
38.348,-3.2563e-05,0
38.348,-4.918e-05,0
38.349,-5.9251e-05,0
38.349,-6.2943e-05,0
38.35,-5.539e-05,0
38.35,-3.827e-05,0
38.351,-1.9303e-05,0
38.351,-2.5177e-06,0
38.352,1.0407e-05,0
38.352,2.1317e-05,0
38.353,2.8031e-05,0
38.353,2.5681e-05,0
38.354,2.0813e-05,0
38.355,2.0142e-05,0
38.355,2.7359e-05,0
38.356,5.7069e-05,0
38.356,0.00010893,0
38.357,0.00015023,0
38.357,0.00016298,0
38.358,0.00015409,0
38.358,0.00012068,0
38.359,6.4958e-05,0
38.359,-3.357e-07,0
38.36,-6.2776e-05,0
38.36,-0.00010491,0
38.361,-0.00011733,0
38.361,-0.0001227,0
38.362,-0.00013562,0
38.362,-0.00014015,0
38.363,-0.00012438,0
38.363,-0.00010121,0
38.364,-8.6946e-05,0
38.364,-8.1071e-05,0
38.365,-7.3518e-05,0
38.365,-5.8412e-05,0
38.366,-3.8773e-05,0
38.366,-2.4674e-05,0
38.367,-1.2421e-05,0
38.368,1.5946e-05,0
38.368,6.4958e-05,0
38.369,0.00011481,0
38.369,0.00013462,0
38.37,0.00011061,0
38.37,6.6636e-05,0
38.371,3.8102e-05,0
38.371,3.0716e-05,0
38.372,2.9206e-05,0
38.372,2.182e-05,0
38.373,1.4603e-05,0
38.373,1.6617e-05,0
38.374,2.4674e-05,0
38.374,3.7095e-05,0
38.375,5.0187e-05,0
38.375,5.5222e-05,0
38.376,5.153e-05,0
38.376,4.7669e-05,0
38.377,4.6326e-05,0
38.377,5.2873e-05,0
38.378,7.4693e-05,0
38.378,9.6513e-05,0
38.379,0.00010625,0
38.379,0.00010658,0
38.38,9.1814e-05,0
38.38,6.5965e-05,0
38.381,3.6759e-05,0
38.382,-3.5248e-06,0
38.382,-4.9851e-05,0
38.383,-6.865e-05,0
38.383,-5.2537e-05,0
38.384,-3.0213e-05,0
38.384,-1.6617e-05,0
38.385,-5.7069e-06,0
38.385,4.1962e-06,0
38.386,-1.1749e-06,0
38.386,-1.1749e-05,0
38.387,-1.1749e-05,0
38.387,-1.8463e-06,0
38.388,1.0575e-05,0
38.388,2.6017e-05,0
38.389,4.213e-05,0
38.389,5.2873e-05,0
38.39,5.8579e-05,0
38.39,6.0258e-05,0
38.391,5.6901e-05,0
38.391,4.3977e-05,0
38.392,2.8031e-05,0
38.392,1.9974e-05,0
38.393,2.3499e-05,0
38.393,3.4073e-05,0
38.394,5.4215e-05,0
38.395,8.4092e-05,0
38.395,0.00011196,0
38.396,0.00012639,0
38.396,0.00013042,0
38.397,0.0001227,0
38.397,0.00010256,0
38.398,9.8527e-05,0
38.398,0.00012236,0
38.399,0.00013646,0
38.399,0.00011347,0
38.4,6.009e-05,0
38.4,-3.1891e-06,0
38.401,-5.9419e-05,0
38.401,-8.6442e-05,0
38.402,-5.8244e-05,0
38.402,9.7353e-06,0
38.403,7.1e-05,0
38.403,9.1478e-05,0
38.404,5.5558e-05,0
38.404,-2.1653e-05,0
38.405,-0.00010155,0
38.405,-0.00015325,0
38.406,-0.00017507,0
38.406,-0.00018816,0
38.407,-0.00019185,0
38.407,-0.00018094,0
38.408,-0.00016886,0
38.409,-0.00015744,0
38.409,-0.00013646,0
38.41,-0.00010021,0
38.41,-5.8579e-05,0
38.411,-2.7024e-05,0
38.411,-8.896e-06,0
38.412,-2.182e-06,0
38.412,1.6785e-06,0
38.413,1.2253e-05,0
38.413,2.9038e-05,0
38.414,4.6494e-05,0
38.414,5.5558e-05,0
38.415,5.2537e-05,0
38.415,4.0116e-05,0
38.416,2.3835e-05,0
38.416,1.0239e-05,0
38.417,9.5674e-06,0
38.417,2.501e-05,0
38.418,4.8508e-05,0
38.418,6.6804e-05,0
38.419,8.0735e-05,0
38.419,9.3156e-05,0
38.42,9.6178e-05,0
38.42,8.1239e-05,0
38.421,5.3544e-05,0
38.422,3.0045e-05,0
38.422,2.7359e-05,0
38.423,3.9277e-05,0
38.423,4.8844e-05,0
38.424,4.9516e-05,0
38.424,4.6494e-05,0
38.425,4.3305e-05,0
38.425,4.4816e-05,0
38.426,5.5558e-05,0
38.426,7.7379e-05,0
38.427,0.00010591,0
38.427,0.00012169,0
38.428,0.00011447,0
38.428,9.1142e-05,0
38.429,6.5293e-05,0
38.429,4.5487e-05,0
38.43,3.3066e-05,0
38.43,2.4506e-05,0
38.431,1.4603e-05,0
38.431,9.9031e-06,0
38.432,1.5106e-05,0
38.432,1.8296e-05,0
38.433,8.896e-06,0
38.433,-8.3925e-07,0
38.434,-6.5461e-06,0
38.434,-1.8967e-05,0
38.435,-3.7766e-05,0
38.436,-4.3137e-05,0
38.436,-2.3667e-05,0
38.437,9.5674e-06,0
38.437,4.448e-05,0
38.438,7.1e-05,0
38.438,7.7043e-05,0
38.439,6.0594e-05,0
38.439,3.743e-05,0
38.44,2.6352e-05,0
38.44,2.9877e-05,0
38.441,3.4745e-05,0
38.441,4.062e-05,0
38.442,5.3376e-05,0
38.442,7.7379e-05,0
38.443,0.000118,0
38.443,0.00017154,0
38.444,0.00020528,0
38.444,0.00018447,0
38.445,0.00011901,0
38.445,5.0355e-05,0
38.446,1.2924e-05,0
38.446,1.9638e-05,0
38.447,6.1601e-05,0
38.447,0.00010004,0
38.448,0.00010155,0
38.449,6.9657e-05,0
38.449,1.2924e-05,0
38.45,-5.4551e-05,0
38.45,-9.3324e-05,0
38.451,-7.4189e-05,0
38.451,-5.2873e-05,0
38.452,-9.1814e-05,0
38.452,-0.00015845,0
38.453,-0.00018933,0
38.453,-0.00017473,0
38.454,-0.00014989,0
38.454,-0.00014368,0
38.455,-0.00015828,0
38.455,-0.00017121,0
38.456,-0.00015929,0
38.456,-0.00012589,0
38.457,-9.3996e-05,0
38.457,-6.3447e-05,0
38.458,-2.5681e-05,0
38.458,1.5106e-05,0
38.459,5.0523e-05,0
38.459,8.3421e-05,0
38.46,0.00010121,0
38.46,9.8863e-05,0
38.461,0.00011565,0
38.462,0.00015711,0
38.462,0.00017943,0
38.463,0.00015761,0
38.463,0.00010188,0
38.464,3.6423e-05,0
38.464,-1.5274e-05,0
38.465,-4.7166e-05,0
38.465,-6.5461e-05,0
38.466,-6.5629e-05,0
38.466,-4.5823e-05,0
38.467,-2.6017e-05,0
38.467,-2.9206e-05,0
38.468,-4.918e-05,0
38.468,-5.6062e-05,0
38.469,-4.2802e-05,0
38.469,-2.2492e-05,0
38.47,-3.8605e-06,0
38.47,1.1246e-05,0
38.471,2.1317e-05,0
38.471,3.1891e-05,0
38.472,4.5991e-05,0
38.472,6.1601e-05,0
38.473,7.3686e-05,0
38.473,7.5029e-05,0
38.474,6.9322e-05,0
38.474,6.9154e-05,0
38.475,7.5364e-05,0
38.476,8.1575e-05,0
38.476,8.8121e-05,0
38.477,9.9535e-05,0
38.477,0.00012152,0
38.478,0.0001467,0
38.478,0.00016147,0
38.479,0.00017137,0
38.479,0.00017272,0
38.48,0.00015123,0
38.48,0.00010893,0
38.481,6.244e-05,0
38.481,2.1988e-05,0
38.482,-1.8799e-05,0
38.482,-5.7404e-05,0
38.483,-8.6107e-05,0
38.483,-0.00010491,0
38.484,-0.00011145,0
38.484,-9.9199e-05,0
38.485,-6.949e-05,0
38.485,-3.592e-05,0
38.486,-5.8747e-06,0
38.486,2.1317e-05,0
38.487,4.7166e-05,0
38.487,6.5629e-05,0
38.488,7.2175e-05,0
38.489,6.63e-05,0
38.489,5.4047e-05,0
38.49,4.4816e-05,0
38.49,4.0787e-05,0
38.491,3.0381e-05,0
38.491,1.2253e-05,0
38.492,-1.8463e-06,0
38.492,-9.2317e-06,0
38.493,-1.7121e-05,0
38.493,-2.2324e-05,0
38.494,0,0
38.494,5.5558e-05,0
38.495,0.00010994,0
38.495,0.00013713,0
38.496,0.00012824,0
38.496,9.2485e-05,0
38.497,4.7166e-05,0
38.497,4.5319e-06,0
38.498,-3.2563e-05,0
38.498,-6.2608e-05,0
38.499,-7.5364e-05,0
38.499,-6.0929e-05,0
38.5,-2.4338e-05,0
38.5,1.3596e-05,0
38.501,3.2731e-05,0
38.501,3.4073e-05,0
38.502,3.743e-05,0
38.503,5.8747e-05,0
38.503,8.3757e-05,0
38.504,8.9799e-05,0
38.504,7.6371e-05,0
38.505,5.774e-05,0
38.505,3.2731e-05,0
38.506,-4.0284e-06,0
38.506,-4.5991e-05,0
38.507,-8.4596e-05,0
38.507,-0.00011582,0
38.508,-0.0001378,0
38.508,-0.0001425,0
38.509,-0.00012471,0
38.509,-9.9031e-05,0
38.51,-8.1743e-05,0
38.51,-5.5726e-05,0
38.511,-7.0497e-06,0
38.511,4.3473e-05,0
38.512,7.4022e-05,0
38.512,8.3757e-05,0
38.513,8.3085e-05,0
38.513,7.9393e-05,0
38.514,7.0161e-05,0
38.514,5.6901e-05,0
38.515,4.7501e-05,0
38.516,4.1627e-05,0
38.516,2.8702e-05,0
38.517,2.8534e-06,0
38.517,-1.1749e-05,0
38.518,-4.6998e-06,0
38.518,6.5461e-06,0
38.519,2.3499e-05,0
38.519,5.5222e-05,0
38.52,8.4764e-05,0
38.52,0.00010356,0
38.521,0.00012589,0
38.521,0.00014636,0
38.522,0.00014788,0
38.522,0.00011666,0
38.523,6.0258e-05,0
38.523,-3.0213e-06,0
38.524,-4.3977e-05,0
38.524,-4.4816e-05,0
38.525,-2.4674e-05,0
38.525,-1.1246e-05,0
38.526,-1.796e-05,0
38.526,-3.3402e-05,0
38.527,-4.6159e-05,0
38.527,-5.2537e-05,0
38.528,-4.8005e-05,0
38.528,-3.2731e-05,0
38.529,-1.5274e-05,0
38.53,-6.2104e-06,0
38.53,-9.0639e-06,0
38.531,-1.9303e-05,0
38.531,-2.7695e-05,0
38.532,-2.5177e-05,0
38.532,-1.2253e-05,0
38.533,3.5248e-06,0
38.533,1.4939e-05,0
38.534,2.3667e-05,0
38.534,4.0116e-05,0
38.535,6.1936e-05,0
38.535,7.7211e-05,0
38.536,8.3085e-05,0
38.536,8.4428e-05,0
38.537,9.1142e-05,0
38.537,0.00010591,0
38.538,0.00011901,0
38.538,0.0001133,0
38.539,8.5603e-05,0
38.539,4.6159e-05,0
38.54,7.0497e-06,0
38.54,-1.8296e-05,0
38.541,-2.4674e-05,0
38.541,-2.2492e-05,0
38.542,-2.1653e-05,0
38.542,-2.1988e-05,0
38.543,-1.7792e-05,0
38.544,-1.0239e-05,0
38.544,-1.5106e-06,0
38.545,1.1078e-05,0
38.545,3.3402e-05,0
38.546,6.4286e-05,0
38.546,9.9702e-05,0
38.547,0.00012824,0
38.547,0.00013529,0
38.548,0.00011531,0
38.548,7.3686e-05,0
38.549,1.8296e-05,0
38.549,-3.4073e-05,0
38.55,-6.8315e-05,0
38.55,-8.51e-05,0
38.551,-8.6442e-05,0
38.551,-7.2679e-05,0
38.552,-4.8005e-05,0
38.552,-1.4435e-05,0
38.553,2.4674e-05,0
38.553,5.6397e-05,0
38.554,6.7308e-05,0
38.554,5.7237e-05,0
38.555,3.5416e-05,0
38.555,1.2421e-05,0
38.556,5.0355e-07,0
38.557,3.8605e-06,0
38.557,1.7792e-05,0
38.558,3.6759e-05,0
38.558,4.9516e-05,0
38.559,5.2201e-05,0
38.559,5.5222e-05,0
38.56,6.244e-05,0
38.56,6.4286e-05,0
38.561,5.9251e-05,0
38.561,4.6494e-05,0
38.562,2.0645e-05,0
38.562,-1.5778e-05,0
38.563,-3.2563e-05,0
38.563,-2.0645e-05,0
38.564,-4.6998e-06,0
38.564,3.8605e-06,0
38.565,4.8676e-06,0
38.565,-2.5177e-06,0
38.566,-1.2085e-05,0
38.566,-1.9638e-05,0
38.567,-2.5681e-05,0
38.567,-2.7359e-05,0
38.568,-2.6856e-05,0
38.568,-2.6352e-05,0
38.569,-2.1149e-05,0
38.569,-1.5442e-05,0
38.57,-1.4267e-05,0
38.571,-1.2924e-05,0
38.571,-4.6998e-06,0
38.572,1.2085e-05,0
38.572,3.3906e-05,0
38.573,5.6901e-05,0
38.573,7.9057e-05,0
38.574,8.9464e-05,0
38.574,8.1071e-05,0
38.575,5.623e-05,0
38.575,2.652e-05,0
38.576,7.5532e-06,0
38.576,1.0071e-06,0
38.577,2.182e-06,0
38.577,1.1246e-05,0
38.578,2.4674e-05,0
38.578,2.2492e-05,0
38.579,6.2104e-06,0
38.579,3.8605e-06,0
38.58,1.6281e-05,0
38.58,2.1988e-05,0
38.581,1.5274e-05,0
38.581,7.5532e-06,0
38.582,1.3931e-05,0
38.582,3.8102e-05,0
38.583,6.2104e-05,0
38.584,6.6636e-05,0
38.584,5.8244e-05,0
38.585,4.4144e-05,0
38.585,2.0981e-05,0
38.586,3.357e-07,0
38.586,-3.357e-06,0
38.587,3.6927e-06,0
38.587,3.0213e-06,0
38.588,-2.5177e-06,0
38.588,3.357e-07,0
38.589,7.2175e-06,0
38.589,9.9031e-06,0
38.59,1.1749e-05,0
38.59,1.2924e-05,0
38.591,1.5274e-05,0
38.591,2.1988e-05,0
38.592,3.1052e-05,0
38.592,3.6088e-05,0
38.593,3.6423e-05,0
38.593,3.6088e-05,0
38.594,3.3234e-05,0
38.594,2.5681e-05,0
38.595,2.1653e-05,0
38.595,2.1988e-05,0
38.596,1.6281e-05,0
38.596,5.8747e-06,0
38.597,1.6785e-07,0
38.598,1.3428e-06,0
38.598,1.1749e-05,0
38.599,3.0549e-05,0
38.599,5.0355e-05,0
38.6,5.9754e-05,0
38.6,5.7237e-05,0
38.601,4.5487e-05,0
38.601,3.0045e-05,0
38.602,1.2757e-05,0
38.602,-8.3925e-06,0
38.603,-2.4674e-05,0
38.603,-2.7527e-05,0
38.604,-1.7121e-05,0
38.604,3.357e-06,0
38.605,2.7527e-05,0
38.605,4.1291e-05,0
38.606,3.8773e-05,0
38.606,2.9206e-05,0
38.607,2.3667e-05,0
38.607,2.9709e-05,0
38.608,4.9516e-05,0
38.608,9.2821e-05,0
38.609,0.00015828,0
38.609,0.00020763,0
38.61,0.00021065,0
38.611,0.00018245,0
38.611,0.00014788,0
38.612,0.00010826,0
38.612,5.6565e-05,0
38.613,-2.8534e-06,0
38.613,-5.9419e-05,0
38.614,-0.00010574,0
38.614,-0.0001415,0
38.615,-0.00016466,0
38.615,-0.00014804,0
38.616,-8.4428e-05,0
38.616,0,0
38.617,6.9154e-05,0
38.617,0.00010172,0
38.618,0.0001034,0
38.618,9.9199e-05,0
38.619,0.00011061,0
38.619,0.00013579,0
38.62,0.00015224,0
38.62,0.00012035,0
38.621,1.8967e-05,0
38.621,-0.00011347,0
38.622,-0.00021267,0
38.622,-0.00024858,0
38.623,-0.00023952,0
38.623,-0.00021199,0
38.624,-0.00017775,0
38.625,-0.00015207,0
38.625,-0.00013948,0
38.626,-0.00013092,0
38.626,-0.00010726,0
38.627,-6.2776e-05,0
38.627,-1.7624e-05,0
38.628,4.6998e-06,0
38.628,7.2175e-06,0
38.629,1.0575e-05,0
38.629,2.266e-05,0
38.63,3.5248e-05,0
38.63,4.1459e-05,0
38.631,4.7501e-05,0
38.631,6.009e-05,0
38.632,7.2007e-05,0
38.632,7.8386e-05,0
38.633,8.4764e-05,0
38.633,8.04e-05,0
38.634,5.7908e-05,0
38.634,3.3738e-05,0
38.635,2.8534e-05,0
38.635,4.3305e-05,0
38.636,6.1265e-05,0
38.636,6.8147e-05,0
38.637,6.7308e-05,0
38.638,5.8915e-05,0
38.638,4.683e-05,0
38.639,4.3305e-05,0
38.639,5.5726e-05,0
38.64,7.2679e-05,0
38.64,7.9057e-05,0
38.641,7.5029e-05,0
38.641,6.244e-05,0
38.642,4.1123e-05,0
38.642,2.3499e-05,0
38.643,1.9974e-05,0
38.643,2.9709e-05,0
38.644,4.9851e-05,0
38.644,7.1672e-05,0
38.645,7.9728e-05,0
38.645,6.63e-05,0
38.646,4.1794e-05,0
38.646,2.0981e-05,0
38.647,9.0639e-06,0
38.647,5.0355e-06,0
38.648,4.3641e-06,0
38.648,1.1749e-06,0
38.649,-5.0355e-07,0
38.649,1.0071e-06,0
38.65,7.5532e-06,0
38.651,1.796e-05,0
38.651,2.7695e-05,0
38.652,3.6759e-05,0
38.652,4.6662e-05,0
38.653,5.3376e-05,0
38.653,5.3544e-05,0
38.654,4.7837e-05,0
38.654,3.9445e-05,0
38.655,3.4241e-05,0
38.655,3.2395e-05,0
38.656,3.0716e-05,0
38.656,2.8702e-05,0
38.657,2.8031e-05,0
38.657,2.8702e-05,0
38.658,2.7695e-05,0
38.658,2.5681e-05,0
38.659,2.652e-05,0
38.659,2.9206e-05,0
38.66,2.9709e-05,0
38.66,2.6352e-05,0
38.661,2.2324e-05,0
38.661,2.0813e-05,0
38.662,2.2156e-05,0
38.662,2.3667e-05,0
38.663,2.5345e-05,0
38.663,2.6017e-05,0
38.664,2.4842e-05,0
38.665,2.5345e-05,0
38.665,2.5345e-05,0
38.666,2.7527e-05,0
38.666,3.5416e-05,0
38.667,4.2802e-05,0
38.667,4.2802e-05,0
38.668,3.4745e-05,0
38.668,2.266e-05,0
38.669,1.0239e-05,0
38.669,2.5177e-06,0
38.67,4.1962e-06,0
38.67,1.8128e-05,0
38.671,4.918e-05,0
38.671,9.366e-05,0
38.672,0.00012303,0
38.672,0.00012203,0
38.673,0.00010591,0
38.673,8.4764e-05,0
38.674,5.4215e-05,0
38.674,1.796e-05,0
38.675,-1.3596e-05,0
38.675,-2.8367e-05,0
38.676,-2.9206e-05,0
38.676,-2.8031e-05,0
38.677,-2.6017e-05,0
38.678,-1.796e-05,0
38.678,-3.6927e-06,0
38.679,8.2246e-06,0
38.679,1.5946e-05,0
38.68,1.9135e-05,0
38.68,1.561e-05,0
38.681,9.0639e-06,0
38.681,3.0045e-05,0
38.682,8.7114e-05,0
38.682,0.00012068,0
38.683,8.9464e-05,0
38.683,1.7624e-05,0
38.684,-4.7166e-05,0
38.684,-7.335e-05,0
38.685,-6.6636e-05,0
38.685,-4.7333e-05,0
38.686,-3.6423e-05,0
38.686,-2.9374e-05,0
38.687,-2.4338e-05,0
38.687,-2.182e-05,0
38.688,-3.1052e-05,0
38.688,-5.3208e-05,0
38.689,-7.7882e-05,0
38.689,-0.00010172,0
38.69,-0.00011296,0
38.69,-8.5771e-05,0
38.691,-1.1582e-05,0
38.692,5.9922e-05,0
38.692,8.3085e-05,0
38.693,5.3544e-05,0
38.693,-5.8747e-06,0
38.694,-6.7475e-05,0
38.694,-0.00010692,0
38.695,-0.00011632,0
38.695,-0.00010977,0
38.696,-0.00010507,0
38.696,-0.00010037,0
38.697,-9.0806e-05,0
38.697,-7.4861e-05,0
38.698,-5.2705e-05,0
38.698,-2.8031e-05,0
38.699,-2.3499e-06,0
38.699,1.9303e-05,0
38.7,3.4073e-05,0
38.7,4.4312e-05,0
38.701,5.0858e-05,0
38.701,5.8747e-05,0
38.702,7.0497e-05,0
38.702,8.5435e-05,0
38.703,9.4163e-05,0
38.703,8.4092e-05,0
38.704,6.865e-05,0
38.705,6.7308e-05,0
38.705,7.6875e-05,0
38.706,8.7617e-05,0
38.706,9.8863e-05,0
38.707,0.00011028,0
38.707,0.00012102,0
38.708,0.00013176,0
38.708,0.000142,0
38.709,0.0001462,0
38.709,0.0001425,0
38.71,0.00013344,0
38.71,0.00012052,0
38.711,0.00010256,0
38.711,8.1743e-05,0
38.712,6.8315e-05,0
38.712,6.5293e-05,0
38.713,5.7404e-05,0
38.713,4.1794e-05,0
38.714,2.7192e-05,0
38.714,1.3931e-05,0
38.715,-4.1962e-06,0
38.715,-2.6017e-05,0
38.716,-4.683e-05,0
38.716,-5.9251e-05,0
38.717,-5.9251e-05,0
38.717,-4.918e-05,0
38.718,-4.0955e-05,0
38.719,-3.9948e-05,0
38.719,-4.1123e-05,0
38.72,-3.592e-05,0
38.72,-1.3596e-05,0
38.721,2.1988e-05,0
38.721,4.8173e-05,0
38.722,5.3544e-05,0
38.722,4.1794e-05,0
38.723,2.6688e-05,0
38.723,2.6017e-05,0
38.724,4.2802e-05,0
38.724,5.8244e-05,0
38.725,5.7237e-05,0
38.725,4.4144e-05,0
38.726,3.0045e-05,0
38.726,2.1653e-05,0
38.727,2.3667e-05,0
38.727,4.0787e-05,0
38.728,7.2679e-05,0
38.728,0.00011196,0
38.729,0.00014284,0
38.729,0.00015358,0
38.73,0.00014704,0
38.73,0.00012337,0
38.731,8.7617e-05,0
38.731,4.3473e-05,0
38.732,-1.2924e-05,0
38.733,-7.7211e-05,0
38.733,-0.00012706,0
38.734,-0.00014586,0
38.734,-0.00013613,0
38.735,-0.00011666,0
38.735,-0.00010423,0
38.736,-0.00010172,0
38.736,-9.6178e-05,0
38.737,-7.1336e-05,0
38.737,-3.508e-05,0
38.738,-8.2246e-06,0
38.738,4.5319e-06,0
38.739,1.326e-05,0
38.739,1.7288e-05,0
38.74,1.2253e-05,0
38.74,6.5461e-06,0
38.741,8.896e-06,0
38.741,1.9974e-05,0
38.742,4.213e-05,0
38.742,7.1e-05,0
38.743,9.3828e-05,0
38.743,0.00010256,0
38.744,0.00010188,0
38.744,9.4331e-05,0
38.745,7.4357e-05,0
38.746,4.8844e-05,0
38.746,2.9877e-05,0
38.747,1.7792e-05,0
38.747,1.1917e-05,0
38.748,2.5345e-05,0
38.748,6.6972e-05,0
38.749,0.00010625,0
38.749,0.00011229,0
38.75,9.2821e-05,0
38.75,6.0258e-05,0
38.751,1.5946e-05,0
38.751,-3.4409e-05,0
38.752,-8.1743e-05,0
38.752,-0.00011666,0
38.753,-0.00013143,0
38.753,-0.00012773,0
38.754,-0.00011145,0
38.754,-8.5435e-05,0
38.755,-5.6901e-05,0
38.755,-3.4577e-05,0
38.756,-2.2828e-05,0
38.756,-1.4603e-05,0
38.757,2.5177e-06,0
38.757,2.5345e-05,0
38.758,4.0452e-05,0
38.758,4.3977e-05,0
38.759,3.8102e-05,0
38.76,3.0045e-05,0
38.76,2.7024e-05,0
38.761,3.3066e-05,0
38.761,4.5151e-05,0
38.762,5.5222e-05,0
38.762,5.7237e-05,0
38.763,5.7237e-05,0
38.763,6.6133e-05,0
38.764,8.3589e-05,0
38.764,9.7185e-05,0
38.765,0.00010558,0
38.765,0.00010977,0
38.766,9.6178e-05,0
38.766,5.5726e-05,0
38.767,1.326e-05,0
38.767,3.1891e-06,0
38.768,2.1653e-05,0
38.768,4.8844e-05,0
38.769,8.5771e-05,0
38.769,0.00011246,0
38.77,0.00011884,0
38.77,0.00012169,0
38.771,0.0001133,0
38.771,7.6371e-05,0
38.772,2.2324e-05,0
38.773,-2.3667e-05,0
38.773,-5.1362e-05,0
38.774,-7.0497e-05,0
38.774,-9.3828e-05,0
38.775,-0.00010994,0
38.775,-9.8695e-05,0
38.776,-5.9419e-05,0
38.776,-1.4267e-05,0
38.777,1.8128e-05,0
38.777,2.5681e-05,0
38.778,7.0497e-06,0
38.778,-1.4939e-05,0
38.779,-3.1052e-05,0
38.779,-4.5823e-05,0
38.78,-4.6662e-05,0
38.78,-2.0981e-05,0
38.781,1.5946e-05,0
38.781,3.7598e-05,0
38.782,4.4144e-05,0
38.782,4.3809e-05,0
38.783,2.7527e-05,0
38.783,3.357e-07,0
38.784,-2.1988e-05,0
38.784,-3.9445e-05,0
38.785,-5.388e-05,0
38.785,-5.9754e-05,0
38.786,-5.2369e-05,0
38.787,-2.9709e-05,0
38.787,-1.3428e-06,0
38.788,2.0478e-05,0
38.788,3.5752e-05,0
38.789,5.4551e-05,0
38.789,8.0064e-05,0
38.79,9.8192e-05,0
38.79,9.6513e-05,0
38.791,9.2317e-05,0
38.791,9.9031e-05,0
38.792,0.00010188,0
38.792,9.3156e-05,0
38.793,7.8386e-05,0
38.793,6.5965e-05,0
38.794,5.5222e-05,0
38.794,4.4144e-05,0
38.795,3.3066e-05,0
38.795,3.0716e-05,0
38.796,3.9109e-05,0
38.796,4.9851e-05,0
38.797,4.5823e-05,0
38.797,1.2253e-05,0
38.798,-3.0213e-05,0
38.798,-4.6326e-05,0
38.799,-3.1724e-05,0
38.8,-1.7624e-05,0
38.8,-2.1653e-05,0
38.801,-3.0716e-05,0
38.801,-3.1556e-05,0
38.802,-2.501e-05,0
38.802,-2.1149e-05,0
38.803,-2.1988e-05,0
38.803,-2.3499e-05,0
38.804,-2.0645e-05,0
38.804,-1.0575e-05,0
38.805,3.6927e-06,0
38.805,1.6953e-05,0
38.806,2.7192e-05,0
38.806,3.0716e-05,0
38.807,2.9374e-05,0
38.807,2.7695e-05,0
38.808,2.9709e-05,0
38.808,3.5416e-05,0
38.809,4.0787e-05,0
38.809,5.0019e-05,0
38.81,6.3615e-05,0
38.81,7.2847e-05,0
38.811,8.1743e-05,0
38.811,9.5506e-05,0
38.812,0.00010054,0
38.812,8.0903e-05,0
38.813,4.1962e-05,0
38.814,9.2317e-06,0
38.814,-7.5532e-06,0
38.815,-1.3092e-05,0
38.815,-5.3712e-06,0
38.816,2.0813e-05,0
38.816,5.539e-05,0
38.817,7.2007e-05,0
38.817,6.0929e-05,0
38.818,3.9445e-05,0
38.818,1.9135e-05,0
38.819,3.5248e-06,0
38.819,-7.0497e-06,0
38.82,-1.326e-05,0
38.82,-1.6281e-05,0
38.821,-1.2589e-05,0
38.821,-3.357e-07,0
38.822,1.7288e-05,0
38.822,3.508e-05,0
38.823,4.1123e-05,0
38.823,3.0045e-05,0
38.824,1.2924e-05,0
38.824,2.3499e-06,0
38.825,1.1749e-06,0
38.825,1.6785e-06,0
38.826,-1.5106e-06,0
38.827,-5.2033e-06,0
38.827,-6.0426e-06,0
38.828,-1.5106e-06,0
38.828,1.1917e-05,0
38.829,2.9709e-05,0
38.829,5.5055e-05,0
38.83,9.5338e-05,0
38.83,0.00012874,0
38.831,0.00013579,0
38.831,0.00012236,0
38.832,0.00010239,0
38.832,8.191e-05,0
38.833,6.7308e-05,0
38.833,5.0187e-05,0
38.834,1.7288e-05,0
38.834,-2.7695e-05,0
38.835,-6.4622e-05,0
38.835,-7.805e-05,0
38.836,-7.7043e-05,0
38.836,-7.9393e-05,0
38.837,-8.7449e-05,0
38.837,-9.4835e-05,0
38.838,-9.6513e-05,0
38.838,-9.0471e-05,0
38.839,-7.7043e-05,0
38.84,-5.8412e-05,0
38.84,-2.9374e-05,0
38.841,8.3925e-06,0
38.841,5.0355e-05,0
38.842,8.2582e-05,0
38.842,8.8457e-05,0
38.843,8.9128e-05,0
38.843,0.00010524,0
38.844,0.00012471,0
38.844,0.00013478,0
38.845,0.00013008,0
38.845,0.0001039,0
38.846,6.4958e-05,0
38.846,3.3234e-05,0
38.847,1.5946e-05,0
38.847,2.1988e-05,0
38.848,5.4719e-05,0
38.848,8.1407e-05,0
38.849,7.0832e-05,0
38.849,2.4506e-05,0
38.85,-2.9709e-05,0
38.85,-6.8315e-05,0
38.851,-8.4596e-05,0
38.851,-8.9799e-05,0
38.852,-9.8863e-05,0
38.852,-0.00011833,0
38.853,-0.00013814,0
38.854,-0.00014217,0
38.854,-0.00012723,0
38.855,-9.5171e-05,0
38.855,-5.2705e-05,0
38.856,-1.1917e-05,0
38.856,1.8967e-05,0
38.857,4.213e-05,0
38.857,5.623e-05,0
38.858,5.6901e-05,0
38.858,5.2873e-05,0
38.859,5.2369e-05,0
38.859,5.3544e-05,0
38.86,5.539e-05,0
38.86,5.5726e-05,0
38.861,5.4887e-05,0
38.861,4.9348e-05,0
38.862,3.6759e-05,0
38.862,2.266e-05,0
38.863,2.0981e-05,0
38.863,2.9374e-05,0
38.864,3.0716e-05,0
38.864,2.1317e-05,0
38.865,9.2317e-06,0
38.865,6.5461e-06,0
38.866,1.6281e-05,0
38.867,2.8702e-05,0
38.867,3.2059e-05,0
38.868,3.0716e-05,0
38.868,3.1052e-05,0
38.869,3.4745e-05,0
38.869,3.827e-05,0
38.87,3.743e-05,0
38.87,3.8102e-05,0
38.871,4.0787e-05,0
38.871,4.3473e-05,0
38.872,4.8173e-05,0
38.872,6.63e-05,0
38.873,0.00010541,0
38.873,0.0001378,0
38.874,0.00013713,0
38.874,0.00010843,0
38.875,7.2175e-05,0
38.875,4.2802e-05,0
38.876,2.266e-05,0
38.876,4.5319e-06,0
38.877,-1.326e-05,0
38.877,-2.1485e-05,0
38.878,-1.7624e-05,0
38.878,-1.6785e-05,0
38.879,-1.7288e-05,0
38.879,-8.5603e-06,0
38.88,6.3783e-06,0
38.881,1.7121e-05,0
38.881,1.9303e-05,0
38.882,1.2589e-05,0
38.882,-6.714e-07,0
38.883,-7.7211e-06,0
38.883,6.714e-07,0
38.884,2.0142e-05,0
38.884,4.0452e-05,0
38.885,4.8508e-05,0
38.885,4.0116e-05,0
38.886,2.6688e-05,0
38.886,1.4603e-05,0
38.887,6.8818e-06,0
38.887,6.0426e-06,0
38.888,1.2589e-05,0
38.888,2.4506e-05,0
38.889,4.683e-05,0
38.889,7.4357e-05,0
38.89,8.426e-05,0
38.89,7.7546e-05,0
38.891,7.1168e-05,0
38.891,6.7308e-05,0
38.892,5.6397e-05,0
38.892,3.6927e-05,0
38.893,1.5106e-05,0
38.894,5.8747e-06,0
38.894,2.5177e-05,0
38.895,5.9419e-05,0
38.895,7.8386e-05,0
38.896,7.2343e-05,0
38.896,4.7166e-05,0
38.897,3.357e-06,0
38.897,-4.5319e-05,0
38.898,-7.7379e-05,0
38.898,-9.3156e-05,0
38.899,-0.00010088,0
38.899,-9.7185e-05,0
38.9,-8.7785e-05,0
38.9,-7.0665e-05,0
38.901,-5.0019e-05,0
38.901,-3.6759e-05,0
38.902,-3.2395e-05,0
38.902,-3.0045e-05,0
38.903,-2.266e-05,0
38.903,-7.0497e-06,0
38.904,1.2421e-05,0
38.904,2.8534e-05,0
38.905,4.213e-05,0
38.905,5.5726e-05,0
38.906,6.4118e-05,0
38.906,6.5965e-05,0
38.907,6.63e-05,0
38.908,6.9657e-05,0
38.908,8.5267e-05,0
38.909,0.0001091,0
38.909,0.00012203,0
38.91,0.00010726,0
38.91,8.3589e-05,0
38.911,6.0929e-05,0
38.911,2.9038e-05,0
38.912,-9.2317e-06,0
38.912,-4.1627e-05,0
38.913,-6.3111e-05,0
38.913,-7.8553e-05,0
38.914,-8.2078e-05,0
38.914,-6.8315e-05,0
38.915,-4.3473e-05,0
38.915,-2.4338e-05,0
38.916,-1.796e-05,0
38.916,-1.5946e-05,0
38.917,-5.539e-06,0
38.917,9.5674e-06,0
38.918,1.9638e-05,0
38.918,2.7024e-05,0
38.919,4.2298e-05,0
38.919,6.1097e-05,0
38.92,7.0832e-05,0
38.92,6.6972e-05,0
38.921,6.3615e-05,0
38.922,6.6972e-05,0
38.922,7.4022e-05,0
38.923,8.1575e-05,0
38.923,8.8289e-05,0
38.924,8.5771e-05,0
38.924,7.1672e-05,0
38.925,5.2033e-05,0
38.925,3.1052e-05,0
38.926,1.1749e-05,0
38.926,-6.0426e-06,0
38.927,-2.5681e-05,0
38.927,-3.9109e-05,0
38.928,-3.7598e-05,0
38.928,-3.4745e-05,0
38.929,-3.7598e-05,0
38.929,-3.1556e-05,0
38.93,-8.7282e-06,0
38.93,2.6688e-05,0
38.931,5.4887e-05,0
38.931,5.8747e-05,0
38.932,4.4816e-05,0
38.932,2.5681e-05,0
38.933,1.1749e-05,0
38.933,9.0639e-06,0
38.934,1.7121e-05,0
38.935,2.6017e-05,0
38.935,2.8199e-05,0
38.936,2.6184e-05,0
38.936,2.3835e-05,0
38.937,2.2324e-05,0
38.937,2.501e-05,0
38.938,2.9374e-05,0
38.938,3.2059e-05,0
38.939,4.9851e-05,0
38.939,8.1071e-05,0
38.94,9.8695e-05,0
38.94,9.0135e-05,0
38.941,6.3279e-05,0
38.941,3.2563e-05,0
38.942,5.8747e-06,0
38.942,-1.6953e-05,0
38.943,-4.2466e-05,0
38.943,-6.5797e-05,0
38.944,-7.3686e-05,0
38.944,-6.1433e-05,0
38.945,-2.501e-05,0
38.945,2.2492e-05,0
38.946,5.2201e-05,0
38.946,5.9586e-05,0
38.947,5.623e-05,0
38.947,4.3473e-05,0
38.948,1.9303e-05,0
38.949,-5.7069e-06,0
38.949,-2.6688e-05,0
38.95,-4.9516e-05,0
38.95,-6.6972e-05,0
38.951,-7.0329e-05,0
38.951,-5.5558e-05,0
38.952,-2.2995e-05,0
38.952,2.6688e-05,0
38.953,7.1672e-05,0
38.953,8.5267e-05,0
38.954,7.2007e-05,0
38.954,5.539e-05,0
38.955,4.7333e-05,0
38.955,4.918e-05,0
38.956,4.683e-05,0
38.956,3.4745e-05,0
38.957,2.1988e-05,0
38.957,1.5946e-05,0
38.958,1.2085e-05,0
38.958,1.0742e-05,0
38.959,1.9974e-05,0
38.959,3.4241e-05,0
38.96,3.8941e-05,0
38.96,3.2731e-05,0
38.961,2.9374e-05,0
38.962,3.4745e-05,0
38.962,4.0787e-05,0
38.963,3.8773e-05,0
38.963,2.0981e-05,0
38.964,-1.0575e-05,0
38.964,-4.4648e-05,0
38.965,-6.7308e-05,0
38.965,-6.9657e-05,0
38.966,-5.4383e-05,0
38.966,-2.5177e-05,0
38.967,6.2104e-06,0
38.967,2.5345e-05,0
38.968,2.9877e-05,0
38.968,2.4674e-05,0
38.969,1.8296e-05,0
38.969,1.7288e-05,0
38.97,2.0478e-05,0
38.97,2.501e-05,0
38.971,2.7695e-05,0
38.971,2.652e-05,0
38.972,2.4002e-05,0
38.972,2.6688e-05,0
38.973,3.7766e-05,0
38.973,5.153e-05,0
38.974,6.1601e-05,0
38.974,6.7643e-05,0
38.975,6.8986e-05,0
38.976,6.1433e-05,0
38.976,4.4144e-05,0
38.977,2.4506e-05,0
38.977,8.5603e-06,0
38.978,-2.5177e-06,0
38.978,-5.2033e-06,0
38.979,-5.0355e-07,0
38.979,6.5461e-06,0
38.98,1.1246e-05,0
38.98,9.5674e-06,0
38.981,5.0355e-06,0
38.981,5.8747e-06,0
38.982,1.4267e-05,0
38.982,2.5177e-05,0
38.983,3.0549e-05,0
38.983,2.9709e-05,0
38.984,2.9038e-05,0
38.984,3.0716e-05,0
38.985,3.0213e-05,0
38.985,2.6688e-05,0
38.986,2.5681e-05,0
38.986,2.8367e-05,0
38.987,3.3738e-05,0
38.987,3.8773e-05,0
38.988,4.2802e-05,0
38.989,4.6998e-05,0
38.989,4.6159e-05,0
38.99,3.978e-05,0
38.99,3.4073e-05,0
38.991,3.2563e-05,0
38.991,3.4745e-05,0
38.992,3.7766e-05,0
38.992,3.9445e-05,0
38.993,4.062e-05,0
38.993,3.8773e-05,0
38.994,3.4745e-05,0
38.994,3.1052e-05,0
38.995,3.3402e-05,0
38.995,4.2802e-05,0
38.996,5.7237e-05,0
38.996,7.6204e-05,0
38.997,0.00010524,0
38.997,0.00013478,0
38.998,0.00014855,0
38.998,0.00013478,0
38.999,9.5171e-05,0
38.999,4.3641e-05,0
39,-5.8747e-06,0
39,-4.6326e-05,0
39.001,-7.2847e-05,0
39.002,-8.9632e-05,0
39.002,-0.00010306,0
39.003,-0.00010994,0
39.003,-0.00010491,0
39.004,-8.3085e-05,0
39.004,-4.7166e-05,0
39.005,-1.0742e-05,0
39.005,7.8889e-06,0
39.006,3.6927e-06,0
39.006,-1.4603e-05,0
39.007,-2.9709e-05,0
39.007,-3.0549e-05,0
39.008,-1.8128e-05,0
39.008,-3.0213e-06,0
39.009,4.1962e-06,0
39.009,-2.182e-06,0
39.01,-1.4603e-05,0
39.01,-2.0142e-05,0
39.011,-1.7624e-05,0
39.011,-1.1749e-05,0
39.012,-1.0575e-05,0
39.012,-1.6281e-05,0
39.013,-1.6785e-05,0
39.013,0,0
39.014,2.0478e-05,0
39.014,3.2563e-05,0
39.015,4.2802e-05,0
39.016,5.9586e-05,0
39.016,8.6778e-05,0
39.017,0.00012538,0
39.017,0.0001509,0
39.018,0.00014099,0
39.018,0.00010709,0
39.019,6.9993e-05,0
39.019,3.6591e-05,0
39.02,4.3641e-06,0
39.02,-2.4338e-05,0
39.021,-4.918e-05,0
39.021,-6.9322e-05,0
39.022,-7.4693e-05,0
39.022,-6.3279e-05,0
39.023,-4.5151e-05,0
39.023,-1.8967e-05,0
39.024,3.1724e-05,0
39.024,9.3828e-05,0
39.025,0.00013512,0
39.025,0.00014418,0
39.026,0.00011598,0
39.026,5.7572e-05,0
39.027,3.8605e-06,0
39.027,-1.326e-05,0
39.028,-3.357e-06,0
39.029,-1.0071e-06,0
39.029,-1.5946e-05,0
39.03,-3.357e-05,0
39.03,-3.8605e-05,0
39.031,-4.3809e-05,0
39.031,-5.9419e-05,0
39.032,-6.8986e-05,0
39.032,-5.6565e-05,0
39.033,-3.3234e-05,0
39.033,-4.1962e-06,0
39.034,5.1865e-05,0
39.034,0.00012605,0
39.035,0.0001754,0
39.035,0.00017943,0
39.036,0.00014821,0
39.036,9.8695e-05,0
39.037,5.153e-05,0
39.037,2.266e-05,0
39.038,1.2924e-05,0
39.038,2.8534e-06,0
39.039,-1.3931e-05,0
39.039,-2.9206e-05,0
39.04,-3.978e-05,0
39.04,-4.7166e-05,0
39.041,-5.4215e-05,0
39.041,-5.6565e-05,0
39.042,-5.5726e-05,0
39.043,-6.4958e-05,0
39.043,-7.8218e-05,0
39.044,-6.0929e-05,0
39.044,-1.4267e-05,0
39.045,2.8702e-05,0
39.045,5.1194e-05,0
39.046,5.8244e-05,0
39.046,5.4719e-05,0
39.047,4.0452e-05,0
39.047,2.5849e-05,0
39.048,1.7624e-05,0
39.048,1.326e-05,0
39.049,2.6856e-06,0
39.049,-1.6953e-05,0
39.05,-3.0716e-05,0
39.05,-2.8367e-05,0
39.051,-1.2421e-05,0
39.051,1.0575e-05,0
39.052,3.2395e-05,0
39.052,4.6494e-05,0
39.053,5.4383e-05,0
39.053,6.0258e-05,0
39.054,6.3447e-05,0
39.054,6.009e-05,0
39.055,5.1865e-05,0
39.056,4.2466e-05,0
39.056,3.4409e-05,0
39.057,3.4409e-05,0
39.057,4.7501e-05,0
39.058,6.0258e-05,0
39.058,6.1601e-05,0
39.059,5.5894e-05,0
39.059,5.2537e-05,0
39.06,5.6062e-05,0
39.06,6.3615e-05,0
39.061,7.5029e-05,0
39.061,9.2653e-05,0
39.062,0.00011363,0
39.062,0.00012203,0
39.063,0.00010558,0
39.063,6.6468e-05,0
39.064,2.4002e-05,0
39.064,-8.5603e-06,0
39.065,-3.4745e-05,0
39.065,-5.1698e-05,0
39.066,-4.7837e-05,0
39.066,-2.7359e-05,0
39.067,-1.3596e-05,0
39.067,-1.8799e-05,0
39.068,-3.1891e-05,0
39.068,-3.6927e-05,0
39.069,-2.9877e-05,0
39.07,-1.6617e-05,0
39.07,-4.3641e-06,0
39.071,6.0426e-06,0
39.071,1.0575e-05,0
39.072,5.2033e-06,0
39.072,2.5177e-06,0
39.073,2.1988e-05,0
39.073,7.2679e-05,0
39.074,0.0001368,0
39.074,0.00018782,0
39.075,0.00019857,0
39.075,0.00016231,0
39.076,0.00010289,0
39.076,4.3137e-05,0
39.077,-1.2757e-05,0
39.077,-6.9993e-05,0
39.078,-0.00012001,0
39.078,-0.00014133,0
39.079,-0.00014166,0
39.079,-0.00014083,0
39.08,-0.0001284,0
39.08,-9.5506e-05,0
39.081,-5.5222e-05,0
39.081,-2.3667e-05,0
39.082,2.182e-06,0
39.083,2.9877e-05,0
39.083,5.4719e-05,0
39.084,7.0329e-05,0
39.084,8.275e-05,0
39.085,0.00010306,0
39.085,0.00012337,0
39.086,0.00012522,0
39.086,9.8527e-05,0
39.087,4.9348e-05,0
39.087,-1.8463e-06,0
39.088,-3.2563e-05,0
39.088,-4.1962e-05,0
39.089,-4.3473e-05,0
39.089,-4.448e-05,0
39.09,-3.7095e-05,0
39.09,-1.6281e-05,0
39.091,7.3854e-06,0
39.091,2.6688e-05,0
39.092,4.1794e-05,0
39.092,5.4215e-05,0
39.093,6.1265e-05,0
39.093,5.9586e-05,0
39.094,5.8915e-05,0
39.094,5.9251e-05,0
39.095,5.153e-05,0
39.095,3.9445e-05,0
39.096,2.8534e-05,0
39.097,1.8631e-05,0
39.097,1.1749e-05,0
39.098,1.1414e-05,0
39.098,1.326e-05,0
39.099,1.3092e-05,0
39.099,8.5603e-06,0
39.1,1.0071e-06,0
39.1,-2.8534e-06,0
39.101,-5.0355e-07,0
39.101,1.5106e-06,0
39.102,3.8605e-06,0
39.102,1.0575e-05,0
39.103,1.9974e-05,0
39.103,2.7695e-05,0
39.104,3.3066e-05,0
39.104,3.9948e-05,0
39.105,4.8005e-05,0
39.105,5.5558e-05,0
39.106,6.1433e-05,0
39.106,6.4118e-05,0
39.107,6.1601e-05,0
39.107,5.6565e-05,0
39.108,5.1194e-05,0
39.108,4.6326e-05,0
39.109,3.9277e-05,0
39.109,2.5177e-05,0
39.11,6.2104e-06,0
39.111,-7.3854e-06,0
39.111,-1.1917e-05,0
39.112,-1.2421e-05,0
39.112,-9.2317e-06,0
39.113,-2.6856e-06,0
39.113,3.8605e-06,0
39.114,7.2175e-06,0
39.114,1.0407e-05,0
39.115,1.6281e-05,0
39.115,2.4674e-05,0
39.116,2.7695e-05,0
39.116,1.796e-05,0
39.117,1.2421e-05,0
39.117,2.7359e-05,0
39.118,5.3544e-05,0
39.118,7.2679e-05,0
39.119,8.2078e-05,0
39.119,0.0001039,0
39.12,0.00014821,0
39.12,0.00018447,0
39.121,0.00017943,0
39.121,0.00013915,0
39.122,9.0974e-05,0
39.122,4.683e-05,0
39.123,3.8605e-06,0
39.124,-5.0523e-05,0
39.124,-0.00010423,0
39.125,-0.00013361,0
39.125,-0.00014653,0
39.126,-0.00016298,0
39.126,-0.00017205,0
39.127,-0.00015492,0
39.127,-0.00011783,0
39.128,-8.3589e-05,0
39.128,-6.4622e-05,0
39.129,-5.1865e-05,0
39.129,-3.3738e-05,0
39.13,-1.1246e-05,0
39.13,1.3596e-05,0
39.131,4.3641e-05,0
39.131,7.3686e-05,0
39.132,9.8192e-05,0
39.132,0.00011162,0
39.133,0.00010256,0
39.133,6.8818e-05,0
39.134,2.266e-05,0
39.134,-1.5778e-05,0
39.135,-3.8437e-05,0
39.135,-4.9516e-05,0
39.136,-4.9012e-05,0
39.136,-4.3641e-05,0
39.137,-2.652e-05,0
39.138,1.2589e-05,0
39.138,6.1601e-05,0
39.139,0.00010356,0
39.139,0.00013713,0
39.14,0.00015425,0
39.14,0.00014687,0
39.141,0.00012337,0
39.141,9.5506e-05,0
39.142,6.5965e-05,0
39.142,4.3473e-05,0
39.143,4.3305e-05,0
39.143,7.3686e-05,0
39.144,0.00010558,0
39.144,9.8527e-05,0
39.145,5.3544e-05,0
39.145,-7.8889e-06,0
39.146,-7.5364e-05,0
39.146,-0.00013176,0
39.147,-0.0001655,0
39.147,-0.00017775,0
39.148,-0.00017507,0
39.148,-0.000165,0
39.149,-0.00016332,0
39.149,-0.00016382,0
39.15,-0.00013982,0
39.151,-8.7617e-05,0
39.151,-3.1388e-05,0
39.152,9.2317e-06,0
39.152,3.3066e-05,0
39.153,4.4144e-05,0
39.153,4.8173e-05,0
39.154,4.8508e-05,0
39.154,4.7166e-05,0
39.155,4.9348e-05,0
39.155,5.7572e-05,0
39.156,7.2007e-05,0
39.156,8.6442e-05,0
39.157,9.4499e-05,0
39.157,9.2988e-05,0
39.158,8.8289e-05,0
39.158,8.5435e-05,0
39.159,8.2078e-05,0
39.159,7.2679e-05,0
39.16,5.9419e-05,0
39.16,5.0858e-05,0
39.161,4.5823e-05,0
39.161,4.0116e-05,0
39.162,3.6423e-05,0
39.162,3.9277e-05,0
39.163,5.1362e-05,0
39.163,7.7546e-05,0
39.164,0.00011699,0
39.165,0.00015694,0
39.165,0.00017641,0
39.166,0.00016365,0
39.166,0.0001227,0
39.167,7.3686e-05,0
39.167,3.6423e-05,0
39.168,9.2317e-06,0
39.168,-1.7624e-05,0
39.169,-3.6759e-05,0
39.169,-4.3641e-05,0
39.17,-4.6494e-05,0
39.17,-5.0858e-05,0
39.171,-4.8676e-05,0
39.171,-3.0884e-05,0
39.172,-3.5248e-06,0
39.172,2.0981e-05,0
39.173,3.4745e-05,0
39.173,4.3473e-05,0
39.174,5.0858e-05,0
39.174,5.304e-05,0
39.175,4.7837e-05,0
39.175,3.8437e-05,0
39.176,2.9374e-05,0
39.176,2.031e-05,0
39.177,1.4939e-05,0
39.178,2.1317e-05,0
39.178,3.8102e-05,0
39.179,5.7404e-05,0
39.179,7.6371e-05,0
39.18,9.2149e-05,0
39.18,9.6513e-05,0
39.181,8.5603e-05,0
39.181,6.6972e-05,0
39.182,4.3809e-05,0
39.182,1.7624e-05,0
39.183,-6.8818e-06,0
39.183,-2.3667e-05,0
39.184,-3.827e-05,0
39.184,-5.5222e-05,0
39.185,-7.1e-05,0
39.185,-7.6707e-05,0
39.186,-6.5293e-05,0
39.186,-3.6759e-05,0
39.187,5.0355e-07,0
39.187,3.4409e-05,0
39.188,6.1097e-05,0
39.188,7.4693e-05,0
39.189,7.335e-05,0
39.189,6.7979e-05,0
39.19,6.6133e-05,0
39.191,6.7308e-05,0
39.191,6.1936e-05,0
39.192,4.3809e-05,0
39.192,1.7624e-05,0
39.193,-8.2246e-06,0
39.193,-3.0381e-05,0
39.194,-3.7934e-05,0
39.194,-2.4338e-05,0
39.195,-1.4771e-05,0
39.195,-2.4338e-05,0
39.196,-4.1459e-05,0
39.196,-5.4383e-05,0
39.197,-6.0594e-05,0
39.197,-5.8915e-05,0
39.198,-4.8844e-05,0
39.198,-3.6759e-05,0
39.199,-3.6088e-05,0
39.199,-4.3137e-05,0
39.2,-4.7837e-05,0
39.2,-4.3137e-05,0
39.201,-3.4073e-05,0
39.201,-3.0381e-05,0
39.202,-2.4338e-05,0
39.202,-9.7353e-06,0
39.203,5.2033e-06,0
39.203,1.6281e-05,0
39.204,2.9374e-05,0
39.205,4.9516e-05,0
39.205,7.9057e-05,0
39.206,0.0001039,0
39.206,0.0001086,0
39.207,9.3156e-05,0
39.207,6.865e-05,0
39.208,4.7837e-05,0
39.208,3.4745e-05,0
39.209,2.4674e-05,0
39.209,1.8296e-05,0
39.21,2.3331e-05,0
39.21,3.3738e-05,0
39.211,4.0787e-05,0
39.211,4.448e-05,0
39.212,4.5823e-05,0
39.212,4.3809e-05,0
39.213,3.6088e-05,0
39.213,2.4674e-05,0
39.214,1.5274e-05,0
39.214,9.0639e-06,0
39.215,6.8818e-06,0
39.215,4.1962e-06,0
39.216,1.8463e-06,0
39.216,-1.6785e-07,0
39.217,-1.6785e-07,0
39.218,1.1749e-06,0
39.218,4.6998e-06,0
39.219,2.1988e-05,0
39.219,7.2511e-05,0
39.22,0.00013545,0
39.22,0.00016802,0
39.221,0.00014804,0
39.221,9.4499e-05,0
39.222,4.2298e-05,0
39.222,8.5603e-06,0
39.223,-1.561e-05,0
39.223,-4.6159e-05,0
39.224,-8.0232e-05,0
39.224,-9.6681e-05,0
39.225,-9.3156e-05,0
39.225,-8.2078e-05,0
39.226,-6.63e-05,0
39.226,-4.8005e-05,0
39.227,-3.7263e-05,0
39.227,-3.1556e-05,0
39.228,-1.796e-05,0
39.228,1.8463e-06,0
39.229,1.8631e-05,0
39.229,2.6352e-05,0
39.23,2.6184e-05,0
39.23,2.9206e-05,0
39.231,3.7766e-05,0
39.232,4.918e-05,0
39.232,5.8915e-05,0
39.233,6.3447e-05,0
39.233,6.0258e-05,0
39.234,4.5319e-05,0
39.234,1.9303e-05,0
39.235,-5.0355e-07,0
39.235,1.6785e-07,0
39.236,9.5674e-06,0
39.236,1.1917e-05,0
39.237,1.2924e-05,0
39.237,2.6184e-05,0
39.238,5.7237e-05,0
39.238,9.2149e-05,0
39.239,0.00011296,0
39.239,0.00011296,0
39.24,9.8863e-05,0
39.24,8.1071e-05,0
39.241,6.6804e-05,0
39.241,5.9251e-05,0
39.242,5.0858e-05,0
39.242,3.1891e-05,0
39.243,-3.5248e-06,0
39.243,-4.0787e-05,0
39.244,-5.2705e-05,0
39.245,-3.5752e-05,0
39.245,-1.0407e-05,0
39.246,4.1962e-06,0
39.246,7.2175e-06,0
39.247,1.1749e-05,0
39.247,3.5416e-05,0
39.248,7.7714e-05,0
39.248,0.00012001,0
39.249,0.00015425,0
39.249,0.00016667,0
39.25,0.00014217,0
39.25,9.4835e-05,0
39.251,5.0523e-05,0
39.251,1.8296e-05,0
39.252,-1.4099e-05,0
39.252,-5.5726e-05,0
39.253,-8.8121e-05,0
39.253,-0.00010188,0
39.254,-0.00010994,0
39.254,-0.00011582,0
39.255,-0.00010021,0
39.255,-6.4958e-05,0
39.256,-3.4745e-05,0
39.256,-2.8367e-05,0
39.257,-4.3809e-05,0
39.257,-6.8315e-05,0
39.258,-8.3757e-05,0
39.259,-8.3757e-05,0
39.259,-6.1265e-05,0
39.26,-1.5442e-05,0
39.26,3.3738e-05,0
39.261,6.7643e-05,0
39.261,9.2149e-05,0
39.262,0.00011246,0
39.262,0.00011968,0
39.263,0.0001044,0
39.263,7.0832e-05,0
39.264,3.4745e-05,0
39.264,7.0497e-06,0
39.265,-1.091e-05,0
39.265,-1.796e-05,0
39.266,-1.7288e-05,0
39.266,-1.091e-05,0
39.267,1.1749e-06,0
39.267,1.3092e-05,0
39.268,2.266e-05,0
39.268,3.2731e-05,0
39.269,4.8844e-05,0
39.269,7.2007e-05,0
39.27,9.4163e-05,0
39.27,0.00010961,0
39.271,0.00011531,0
39.272,0.00010423,0
39.272,7.6371e-05,0
39.273,5.2033e-05,0
39.273,4.0116e-05,0
39.274,2.7863e-05,0
39.274,9.2317e-06,0
39.275,-1.0407e-05,0
39.275,-2.7863e-05,0
39.276,-4.0116e-05,0
39.276,-4.213e-05,0
39.277,-2.8367e-05,0
39.277,1.8463e-06,0
39.278,3.4073e-05,0
39.278,5.2201e-05,0
39.279,5.2705e-05,0
39.279,4.9516e-05,0
39.28,7.7043e-05,0
39.28,0.00013075,0
39.281,0.00016701,0
39.281,0.00015929,0
39.282,0.00011397,0
39.282,4.8844e-05,0
39.283,-1.2924e-05,0
39.283,-6.0761e-05,0
39.284,-9.4331e-05,0
39.284,-0.00011447,0
39.285,-0.00012186,0
39.286,-0.00010927,0
39.286,-7.2679e-05,0
39.287,-1.5946e-05,0
39.287,3.4073e-05,0
39.288,5.2201e-05,0
39.288,3.9445e-05,0
39.289,8.896e-06,0
39.289,-1.8463e-05,0
39.29,-3.357e-05,0
39.29,-3.9445e-05,0
39.291,-4.1123e-05,0
39.291,-3.1556e-05,0
39.292,-4.0284e-06,0
39.292,3.1724e-05,0
39.293,5.8412e-05,0
39.293,7.0665e-05,0
39.294,7.8553e-05,0
39.294,8.661e-05,0
39.295,8.9464e-05,0
39.295,9.3828e-05,0
39.296,0.00010558,0
39.296,0.00010994,0
39.297,9.5506e-05,0
39.297,6.8315e-05,0
39.298,3.7095e-05,0
39.298,7.8889e-06,0
39.299,-2.1653e-05,0
39.3,-5.2201e-05,0
39.3,-7.6707e-05,0
39.301,-9.0135e-05,0
39.301,-8.426e-05,0
39.302,-5.3208e-05,0
39.302,-1.9974e-05,0
39.303,-1.9638e-05,0
39.303,-4.2466e-05,0
39.304,-5.4383e-05,0
39.304,-4.8341e-05,0
39.305,-3.8773e-05,0
39.305,-3.8773e-05,0
39.306,-3.8437e-05,0
39.306,-2.182e-05,0
39.307,8.5603e-06,0
39.307,3.0381e-05,0
39.308,3.7095e-05,0
39.308,4.3809e-05,0
39.309,6.0929e-05,0
39.309,7.8386e-05,0
39.31,8.7785e-05,0
39.31,8.9296e-05,0
39.311,8.4428e-05,0
39.311,7.4022e-05,0
39.312,5.9419e-05,0
39.313,4.5487e-05,0
39.313,3.743e-05,0
39.314,3.4073e-05,0
39.314,3.0716e-05,0
39.315,1.8967e-05,0
39.315,8.3925e-07,0
39.316,-8.896e-06,0
39.316,3.5248e-06,0
39.317,4.062e-05,0
39.317,8.0735e-05,0
39.318,9.8192e-05,0
39.318,8.6275e-05,0
39.319,6.7308e-05,0
39.319,6.2608e-05,0
39.32,6.865e-05,0
39.32,7.3014e-05,0
39.321,7.0832e-05,0
39.321,5.9419e-05,0
39.322,3.743e-05,0
39.322,6.2104e-06,0
39.323,-1.8296e-05,0
39.323,-2.3163e-05,0
39.324,-1.0407e-05,0
39.324,8.2246e-06,0
39.325,1.6281e-05,0
39.325,4.6998e-06,0
39.326,-1.7624e-05,0
39.327,-3.4745e-05,0
39.327,-3.6088e-05,0
39.328,-2.652e-05,0
39.328,-2.0813e-05,0
39.329,-1.8967e-05,0
39.329,-6.3783e-06,0
39.33,1.6953e-05,0
39.33,3.592e-05,0
39.331,5.6901e-05,0
39.331,8.3757e-05,0
39.332,0.00010121,0
39.332,0.00010272,0
39.333,7.7043e-05,0
39.333,2.9709e-05,0
39.334,-1.2589e-05,0
39.334,-2.887e-05,0
39.335,-2.4338e-05,0
39.335,-1.8128e-05,0
39.336,-1.5946e-05,0
39.336,-7.7211e-06,0
39.337,1.0239e-05,0
39.337,2.7024e-05,0
39.338,3.3402e-05,0
39.338,3.1891e-05,0
39.339,3.3738e-05,0
39.34,4.0116e-05,0
39.34,4.5991e-05,0
39.341,4.7333e-05,0
39.341,4.062e-05,0
39.342,2.9374e-05,0
39.342,2.0813e-05,0
39.343,1.5106e-05,0
39.343,4.5319e-06,0
39.344,-1.1749e-05,0
39.344,-3.0045e-05,0
39.345,-4.4144e-05,0
39.345,-4.8508e-05,0
39.346,-4.2466e-05,0
39.346,-3.2395e-05,0
39.347,-2.4002e-05,0
39.347,-2.031e-05,0
39.348,-1.561e-05,0
39.348,-5.2033e-06,0
39.349,1.1917e-05,0
39.349,3.2395e-05,0
39.35,5.3376e-05,0
39.35,7.2343e-05,0
39.351,8.8121e-05,0
39.351,9.8863e-05,0
39.352,0.00010138,0
39.352,0.00010021,0
39.353,9.6849e-05,0
39.354,9.5674e-05,0
39.354,9.2821e-05,0
39.355,7.7546e-05,0
39.355,4.9516e-05,0
39.356,1.8296e-05,0
39.356,-5.539e-06,0
39.357,-1.7624e-05,0
39.357,-1.8967e-05,0
39.358,-6.8818e-06,0
39.358,1.4267e-05,0
39.359,1.9303e-05,0
39.359,-4.8676e-06,0
39.36,-3.8773e-05,0
39.36,-5.7572e-05,0
39.361,-5.8076e-05,0
39.361,-5.4551e-05,0
39.362,-5.5894e-05,0
39.362,-6.0258e-05,0
39.363,-5.9251e-05,0
39.363,-4.683e-05,0
39.364,-1.6953e-05,0
39.364,2.2324e-05,0
39.365,5.2201e-05,0
39.365,6.63e-05,0
39.366,6.7308e-05,0
39.367,6.5965e-05,0
39.367,6.6133e-05,0
39.368,6.8818e-05,0
39.368,7.5029e-05,0
39.369,7.805e-05,0
39.369,7.4189e-05,0
39.37,6.1936e-05,0
39.37,3.6759e-05,0
39.371,5.0355e-06,0
39.371,-1.6449e-05,0
39.372,-2.266e-05,0
39.372,-1.9974e-05,0
39.373,-1.2253e-05,0
39.373,-2.8534e-06,0
39.374,1.8463e-06,0
39.374,-1.8463e-06,0
39.375,-4.1962e-06,0
39.375,5.0355e-06,0
39.376,3.0716e-05,0
39.376,5.4719e-05,0
39.377,6.5293e-05,0
39.377,5.9586e-05,0
39.378,4.1291e-05,0
39.378,2.0142e-05,0
39.379,-1.8463e-06,0
39.38,-2.5681e-05,0
39.38,-4.1123e-05,0
39.381,-4.0787e-05,0
39.381,-3.2059e-05,0
39.382,-2.9374e-05,0
39.382,-2.9374e-05,0
39.383,-2.182e-05,0
39.383,-1.2589e-05,0
39.384,-8.896e-06,0
39.384,-8.2246e-06,0
39.385,-4.1962e-06,0
39.385,4.1962e-06,0
39.386,8.0568e-06,0
39.386,4.8676e-06,0
39.387,4.5319e-06,0
39.387,1.4603e-05,0
39.388,3.1052e-05,0
39.388,4.6326e-05,0
39.389,5.5558e-05,0
39.389,6.1601e-05,0
39.39,6.4622e-05,0
39.39,6.1601e-05,0
39.391,5.3208e-05,0
39.391,5.0523e-05,0
39.392,6.0258e-05,0
39.392,7.3182e-05,0
39.393,7.6371e-05,0
39.394,7.3686e-05,0
39.394,7.7043e-05,0
39.395,8.6442e-05,0
39.395,9.0471e-05,0
39.396,8.6275e-05,0
39.396,7.7379e-05,0
39.397,6.5629e-05,0
39.397,4.4816e-05,0
39.398,1.4603e-05,0
39.398,-1.2589e-05,0
39.399,-2.6352e-05,0
39.399,-2.7863e-05,0
39.4,-2.3667e-05,0
39.4,-1.9806e-05,0
39.401,-1.8631e-05,0
39.401,-1.7121e-05,0
39.402,-1.2589e-05,0
39.402,-8.5603e-06,0
39.403,-1.326e-05,0
39.403,-1.7792e-05,0
39.404,-1.6281e-05,0
39.404,-1.4435e-05,0
39.405,-1.8296e-05,0
39.405,-2.4002e-05,0
39.406,-2.0645e-05,0
39.407,-8.7282e-06,0
39.407,5.2033e-06,0
39.408,1.9471e-05,0
39.408,3.357e-05,0
39.409,3.9948e-05,0
39.409,3.9277e-05,0
39.41,4.8005e-05,0
39.41,6.9322e-05,0
39.411,8.7449e-05,0
39.411,8.5435e-05,0
39.412,6.2608e-05,0
39.412,3.4241e-05,0
39.413,1.8967e-05,0
39.413,1.7624e-05,0
39.414,1.7792e-05,0
39.414,1.3092e-05,0
39.415,8.3925e-06,0
39.415,1.5106e-06,0
39.416,-7.3854e-06,0
39.416,-1.1582e-05,0
39.417,-5.8747e-06,0
39.417,5.539e-06,0
39.418,1.9303e-05,0
39.418,3.2395e-05,0
39.419,4.1123e-05,0
39.419,4.1794e-05,0
39.42,3.7095e-05,0
39.421,3.4745e-05,0
39.421,4.213e-05,0
39.422,5.1698e-05,0
39.422,5.3208e-05,0
39.423,4.8508e-05,0
39.423,3.9612e-05,0
39.424,2.6688e-05,0
39.424,1.2589e-05,0
39.425,5.0355e-07,0
39.425,-6.2104e-06,0
39.426,-3.5248e-06,0
39.426,7.0497e-06,0
39.427,1.4603e-05,0
39.427,8.7282e-06,0
39.428,-4.8676e-06,0
39.428,-1.7624e-05,0
39.429,-2.2995e-05,0
39.429,-1.8631e-05,0
39.43,-9.0639e-06,0
39.43,5.0355e-07,0
39.431,8.3925e-06,0
39.431,8.896e-06,0
39.432,9.5674e-06,0
39.432,1.326e-05,0
39.433,2.1317e-05,0
39.434,3.7263e-05,0
39.434,5.5894e-05,0
39.435,6.9322e-05,0
39.435,7.8553e-05,0
39.436,9.0303e-05,0
39.436,0.00010793,0
39.437,0.00012253,0
39.437,0.00012253,0
39.438,0.00010474,0
39.438,7.9057e-05,0
39.439,5.9251e-05,0
39.439,4.213e-05,0
39.44,1.6953e-05,0
39.44,-1.8967e-05,0
39.441,-5.4719e-05,0
39.441,-7.9225e-05,0
39.442,-9.0135e-05,0
39.442,-9.4331e-05,0
39.443,-9.0806e-05,0
39.443,-7.4357e-05,0
39.444,-4.2466e-05,0
39.444,-4.8676e-06,0
39.445,2.6017e-05,0
39.445,6.7979e-05,0
39.446,0.00012555,0
39.446,0.00016349,0
39.447,0.00016147,0
39.448,0.00012488,0
39.448,7.6204e-05,0
39.449,3.2395e-05,0
39.449,-1.561e-05,0
39.45,-6.949e-05,0
39.45,-0.00011867,0
39.451,-0.00015207,0
39.451,-0.00016164,0
39.452,-0.00015761,0
39.452,-0.0001561,0
39.453,-0.00014653,0
39.453,-0.00012119,0
39.454,-9.3156e-05,0
39.454,-6.865e-05,0
39.455,-4.3137e-05,0
39.455,-2.182e-05,0
39.456,-9.2317e-06,0
39.456,-1.5106e-06,0
39.457,5.2033e-06,0
39.457,1.3931e-05,0
39.458,2.8534e-05,0
39.458,4.7837e-05,0
39.459,6.5629e-05,0
39.459,7.3518e-05,0
39.46,7.3686e-05,0
39.461,7.2847e-05,0
39.461,7.4189e-05,0
39.462,7.4693e-05,0
39.462,7.0329e-05,0
39.463,6.4118e-05,0
39.463,6.1936e-05,0
39.464,6.2272e-05,0
39.464,6.0761e-05,0
39.465,5.8244e-05,0
39.465,5.7572e-05,0
39.466,5.9586e-05,0
39.466,6.0594e-05,0
39.467,5.539e-05,0
39.467,4.9851e-05,0
39.468,5.4887e-05,0
39.468,7.1672e-05,0
39.469,8.7617e-05,0
39.469,9.2485e-05,0
39.47,8.4764e-05,0
39.47,6.9322e-05,0
39.471,5.2369e-05,0
39.471,4.0116e-05,0
39.472,3.2059e-05,0
39.472,2.5513e-05,0
39.473,1.796e-05,0
39.473,5.539e-06,0
39.474,-3.1891e-06,0
39.475,-1.5106e-06,0
39.475,9.3996e-06,0
39.476,2.4506e-05,0
39.476,3.6759e-05,0
39.477,4.1459e-05,0
39.477,4.0787e-05,0
39.478,4.1459e-05,0
39.478,4.0787e-05,0
39.479,2.8702e-05,0
39.479,1.0239e-05,0
39.48,5.2033e-06,0
39.48,1.5442e-05,0
39.481,2.6688e-05,0
39.481,3.2059e-05,0
39.482,3.4241e-05,0
39.482,3.8605e-05,0
39.483,3.9277e-05,0
39.483,3.743e-05,0
39.484,5.2537e-05,0
39.484,8.2414e-05,0
39.485,9.2149e-05,0
39.485,7.2847e-05,0
39.486,4.3809e-05,0
39.486,2.1988e-05,0
39.487,8.5603e-06,0
39.487,-3.1891e-06,0
39.488,-2.0981e-05,0
39.489,-3.5584e-05,0
39.489,-2.7359e-05,0
39.49,1.2924e-05,0
39.49,8.1071e-05,0
39.491,0.00014788,0
39.491,0.00017842,0
39.492,0.00015828,0
39.492,9.5506e-05,0
39.493,1.9303e-05,0
39.493,-4.213e-05,0
39.494,-8.1071e-05,0
39.494,-0.00010172,0
39.495,-0.00011901,0
39.495,-0.0001514,0
39.496,-0.00019504,0
39.496,-0.00021334,0
39.497,-0.0001796,0
39.497,-0.00011682,0
39.498,-6.1265e-05,0
39.498,-2.9038e-05,0
39.499,-1.2924e-05,0
39.499,-1.1749e-06,0
39.5,9.2317e-06,0
39.5,2.0142e-05,0
39.501,3.9109e-05,0
39.502,6.2608e-05,0
39.502,7.6036e-05,0
39.503,7.4861e-05,0
39.503,5.8412e-05,0
39.504,3.0381e-05,0
39.504,4.3641e-06,0
39.505,-6.0426e-06,0
39.505,-2.8534e-06,0
39.506,5.8747e-06,0
39.506,1.5946e-05,0
39.507,2.1653e-05,0
39.507,2.4842e-05,0
39.508,3.2898e-05,0
39.508,4.213e-05,0
39.509,5.2201e-05,0
39.509,6.3447e-05,0
39.51,7.3686e-05,0
39.51,7.6036e-05,0
39.511,6.8986e-05,0
39.511,5.4887e-05,0
39.512,4.1123e-05,0
39.512,3.5416e-05,0
39.513,3.357e-05,0
39.513,2.9038e-05,0
39.514,3.4073e-05,0
39.514,5.7572e-05,0
39.515,7.4861e-05,0
39.516,6.7811e-05,0
39.516,4.8844e-05,0
39.517,2.9709e-05,0
39.517,1.0071e-05,0
39.518,-9.9031e-06,0
39.518,-2.4842e-05,0
39.519,-3.4073e-05,0
39.519,-3.9277e-05,0
39.52,-3.8773e-05,0
39.52,-3.2395e-05,0
39.521,-1.7288e-05,0
39.521,8.896e-06,0
39.522,4.213e-05,0
39.522,9.3156e-05,0
39.523,0.00015291,0
39.523,0.00018228,0
39.524,0.00016533,0
39.524,0.00011917,0
39.525,6.5965e-05,0
39.525,1.4939e-05,0
39.526,-3.0213e-05,0
39.526,-6.1601e-05,0
39.527,-8.0903e-05,0
39.527,-0.00010021,0
39.528,-0.00011716,0
39.529,-0.00011414,0
39.529,-8.8792e-05,0
39.53,-5.388e-05,0
39.53,-2.031e-05,0
39.531,6.0426e-06,0
39.531,2.7863e-05,0
39.532,4.4816e-05,0
39.532,5.623e-05,0
39.533,6.2943e-05,0
39.533,6.2943e-05,0
39.534,5.388e-05,0
39.534,3.8102e-05,0
39.535,2.4002e-05,0
39.535,1.9471e-05,0
39.536,2.887e-05,0
39.536,3.978e-05,0
39.537,4.1962e-05,0
39.537,4.4144e-05,0
39.538,5.304e-05,0
39.538,6.3615e-05,0
39.539,6.865e-05,0
39.539,6.8315e-05,0
39.54,6.0258e-05,0
39.54,4.6326e-05,0
39.541,2.887e-05,0
39.541,9.0639e-06,0
39.542,-6.2104e-06,0
39.543,-9.0639e-06,0
39.543,1.8463e-06,0
39.544,2.8031e-05,0
39.544,6.7643e-05,0
39.545,0.00010256,0
39.545,0.00012538,0
39.546,0.00014083,0
39.546,0.0001603,0
39.547,0.00017926,0
39.547,0.00016902,0
39.548,0.00011968,0
39.548,5.1865e-05,0
39.549,-1.8631e-05,0
39.549,-7.8386e-05,0
39.55,-0.00011061,0
39.55,-0.00010793,0
39.551,-9.0639e-05,0
39.551,-7.7043e-05,0
39.552,-5.7908e-05,0
39.552,-3.1556e-05,0
39.553,-7.0497e-06,0
39.553,3.5248e-06,0
39.554,-1.4267e-05,0
39.554,-5.5222e-05,0
39.555,-8.8457e-05,0
39.556,-9.3828e-05,0
39.556,-8.4932e-05,0
39.557,-8.0568e-05,0
39.557,-7.6036e-05,0
39.558,-5.2201e-05,0
39.558,-1.091e-05,0
39.559,2.0478e-05,0
39.559,2.7359e-05,0
39.56,1.796e-05,0
39.56,2.8534e-06,0
39.561,-1.5778e-05,0
39.561,-3.1052e-05,0
39.562,-3.3738e-05,0
39.562,-2.501e-05,0
39.563,-1.5442e-05,0
39.563,-1.1582e-05,0
39.564,-1.0071e-05,0
39.564,-5.7069e-06,0
39.565,2.5177e-06,0
39.565,1.3931e-05,0
39.566,2.9374e-05,0
39.566,4.918e-05,0
39.567,6.8986e-05,0
39.567,8.1743e-05,0
39.568,8.6442e-05,0
39.569,9.0471e-05,0
39.569,9.752e-05,0
39.57,9.7017e-05,0
39.57,8.1743e-05,0
39.571,6.6468e-05,0
39.571,6.1936e-05,0
39.572,6.0929e-05,0
39.572,5.8244e-05,0
39.573,5.2201e-05,0
39.573,4.1459e-05,0
39.574,3.3066e-05,0
39.574,3.592e-05,0
39.575,4.6998e-05,0
39.575,5.5894e-05,0
39.576,5.4887e-05,0
39.576,4.448e-05,0
39.577,2.6688e-05,0
39.577,9.7353e-06,0
39.578,3.0213e-06,0
39.578,5.8747e-06,0
39.579,1.1917e-05,0
39.579,1.7624e-05,0
39.58,2.031e-05,0
39.58,1.6953e-05,0
39.581,9.7353e-06,0
39.581,4.5319e-06,0
39.582,7.2175e-06,0
39.583,1.5946e-05,0
39.583,2.3667e-05,0
39.584,3.0716e-05,0
39.584,3.8437e-05,0
39.585,4.3977e-05,0
39.585,5.153e-05,0
39.586,7.6707e-05,0
39.586,0.00011632,0
39.587,0.00014183,0
39.587,0.00014536,0
39.588,0.0001321,0
39.588,0.0001039,0
39.589,6.5629e-05,0
39.589,1.9638e-05,0
39.59,-2.266e-05,0
39.59,-4.5319e-05,0
39.591,-5.2537e-05,0
39.591,-4.8676e-05,0
39.592,-3.4577e-05,0
39.592,-1.4435e-05,0
39.593,7.5532e-06,0
39.593,2.3667e-05,0
39.594,3.0381e-05,0
39.594,2.7192e-05,0
39.595,1.7624e-05,0
39.596,-6.5461e-06,0
39.596,-5.0019e-05,0
39.597,-8.6107e-05,0
39.597,-9.3324e-05,0
39.598,-7.8721e-05,0
39.598,-5.3208e-05,0
39.599,-2.4002e-05,0
39.599,-6.5461e-06,0
39.6,-9.5674e-06,0
39.6,-1.9806e-05,0
39.601,-2.4338e-05,0
39.601,-2.6017e-05,0
39.602,-3.0213e-05,0
39.602,-3.4073e-05,0
39.603,-3.2731e-05,0
39.603,-3.0381e-05,0
39.604,-2.6688e-05,0
39.604,-2.0478e-05,0
39.605,-1.2924e-05,0
39.605,-2.0142e-06,0
39.606,1.8296e-05,0
39.606,3.8437e-05,0
39.607,4.7501e-05,0
39.607,5.0187e-05,0
39.608,5.623e-05,0
39.608,6.8315e-05,0
39.609,7.9728e-05,0
39.61,8.3757e-05,0
39.61,8.04e-05,0
39.611,7.1e-05,0
39.611,5.623e-05,0
39.612,3.9948e-05,0
39.612,9.5674e-06,0
39.613,-3.0045e-05,0
39.613,-4.8173e-05,0
39.614,-2.266e-05,0
39.614,2.1988e-05,0
39.615,4.5487e-05,0
39.615,4.683e-05,0
39.616,5.2033e-05,0
39.616,6.6636e-05,0
39.617,8.0064e-05,0
39.617,8.2582e-05,0
39.618,7.2343e-05,0
39.618,5.388e-05,0
39.619,3.6423e-05,0
39.619,2.6688e-05,0
39.62,2.3163e-05,0
39.62,2.1988e-05,0
39.621,2.0645e-05,0
39.621,1.9974e-05,0
39.622,1.7792e-05,0
39.623,1.0407e-05,0
39.623,1.3764e-05,0
39.624,3.4745e-05,0
39.624,5.8915e-05,0
39.625,6.6972e-05,0
39.625,6.0258e-05,0
39.626,5.0523e-05,0
39.626,4.0116e-05,0
39.627,1.9974e-05,0
39.627,-5.2033e-06,0
39.628,-1.7288e-05,0
39.628,-5.539e-06,0
39.629,1.6281e-05,0
39.629,2.7192e-05,0
39.63,1.9471e-05,0
39.63,4.3641e-06,0
39.631,-3.1891e-06,0
39.631,1.1749e-06,0
39.632,1.0575e-05,0
39.632,9.5674e-06,0
39.633,-1.2589e-05,0
39.633,-3.6591e-05,0
39.634,-4.0452e-05,0
39.634,-2.7024e-05,0
39.635,-8.0568e-06,0
39.635,9.0639e-06,0
39.636,1.2085e-05,0
39.637,-1.0239e-05,0
39.637,-4.0787e-05,0
39.638,-5.539e-05,0
39.638,-5.3208e-05,0
39.639,-4.2634e-05,0
39.639,-2.8031e-05,0
39.64,-9.9031e-06,0
39.64,9.2317e-06,0
39.641,2.7359e-05,0
39.641,4.1794e-05,0
39.642,4.6159e-05,0
39.642,3.978e-05,0
39.643,2.9206e-05,0
39.643,1.9974e-05,0
39.644,1.2589e-05,0
39.644,9.9031e-06,0
39.645,1.9806e-05,0
39.645,3.7766e-05,0
39.646,5.1362e-05,0
39.646,5.5558e-05,0
39.647,5.388e-05,0
39.647,5.4887e-05,0
39.648,6.2776e-05,0
39.648,8.1407e-05,0
39.649,0.00011498,0
39.65,0.00014687,0
39.65,0.00015157,0
39.651,0.0001326,0
39.651,0.00010591,0
39.652,7.9057e-05,0
39.652,5.4887e-05,0
39.653,2.9709e-05,0
39.653,5.7069e-06,0
39.654,-1.1414e-05,0
39.654,-2.266e-05,0
39.655,-2.2995e-05,0
39.655,-7.5532e-06,0
39.656,5.0355e-06,0
39.656,-2.5177e-06,0
39.657,-1.7121e-05,0
39.657,-2.2324e-05,0
39.658,-1.7456e-05,0
39.658,-4.1962e-06,0
39.659,2.1317e-05,0
39.659,4.8676e-05,0
39.66,6.2943e-05,0
39.66,5.4887e-05,0
39.661,2.3667e-05,0
39.661,-1.4939e-05,0
39.662,-3.8941e-05,0
39.662,-4.6662e-05,0
39.663,-4.9683e-05,0
39.664,-5.2201e-05,0
39.664,-5.153e-05,0
39.665,-4.5823e-05,0
39.665,-3.3906e-05,0
39.666,-1.561e-05,0
39.666,5.8747e-06,0
39.667,3.1891e-05,0
39.667,6.4286e-05,0
39.668,9.1142e-05,0
39.668,9.8863e-05,0
39.669,8.6442e-05,0
39.669,6.6636e-05,0
39.67,4.6494e-05,0
39.67,2.2828e-05,0
39.671,2.3499e-06,0
39.671,-2.182e-06,0
39.672,4.8676e-06,0
39.672,2.8534e-06,0
39.673,-1.1749e-05,0
39.673,-1.7288e-05,0
39.674,-2.0142e-06,0
39.674,2.4842e-05,0
39.675,4.7333e-05,0
39.675,5.8244e-05,0
39.676,6.0929e-05,0
39.676,5.4719e-05,0
39.677,4.1291e-05,0
39.678,2.4842e-05,0
39.678,7.7211e-06,0
39.679,-7.3854e-06,0
39.679,-2.0645e-05,0
39.68,-3.0716e-05,0
39.68,-3.4409e-05,0
39.681,-2.9709e-05,0
39.681,-2.3667e-05,0
39.682,-2.2995e-05,0
39.682,-2.2995e-05,0
39.683,-1.8631e-05,0
39.683,-9.5674e-06,0
39.684,3.6927e-06,0
39.684,1.9135e-05,0
39.685,2.9374e-05,0
39.685,2.8031e-05,0
39.686,2.266e-05,0
39.686,2.4506e-05,0
39.687,3.4073e-05,0
39.687,4.683e-05,0
39.688,5.8747e-05,0
39.688,6.8482e-05,0
39.689,7.5532e-05,0
39.689,9.2485e-05,0
39.69,0.00012203,0
39.691,0.00014603,0
39.691,0.00014687,0
39.692,0.00012538,0
39.692,9.6513e-05,0
39.693,7.1e-05,0
39.693,5.1865e-05,0
39.694,4.8173e-05,0
39.694,5.623e-05,0
39.695,5.8915e-05,0
39.695,5.5558e-05,0
39.696,5.8747e-05,0
39.696,6.3279e-05,0
39.697,4.8173e-05,0
39.697,8.7282e-06,0
39.698,-3.5752e-05,0
39.698,-7.3518e-05,0
39.699,-0.00010423,0
39.699,-0.00012605,0
39.7,-0.00013848,0
39.7,-0.00014385,0
39.701,-0.00014099,0
39.701,-0.00013428,0
39.702,-0.00012505,0
39.702,-0.00011699,0
39.703,-0.00011162,0
39.703,-9.5506e-05,0
39.704,-5.0523e-05,0
39.705,1.1078e-05,0
39.705,5.8915e-05,0
39.706,8.4092e-05,0
39.706,8.7114e-05,0
39.707,6.7475e-05,0
39.707,3.3234e-05,0
39.708,6.714e-07,0
39.708,-1.1749e-05,0
39.709,-4.5319e-06,0
39.709,1.7288e-05,0
39.71,5.0858e-05,0
39.71,8.3589e-05,0
39.711,0.00011112,0
39.711,0.00013075,0
39.712,0.00012874,0
39.712,0.00011162,0
39.713,0.00010155,0
39.713,0.00010323,0
39.714,0.00010239,0
39.714,9.0806e-05,0
39.715,7.4525e-05,0
39.715,6.2104e-05,0
39.716,4.8173e-05,0
39.716,2.5345e-05,0
39.717,-1.0407e-05,0
39.718,-4.8508e-05,0
39.718,-6.479e-05,0
39.719,-5.7069e-05,0
39.719,-5.0523e-05,0
39.72,-5.8579e-05,0
39.72,-7.1e-05,0
39.721,-7.5029e-05,0
39.721,-6.8315e-05,0
39.722,-5.5894e-05,0
39.722,-4.2802e-05,0
39.723,-3.1052e-05,0
39.723,-1.8296e-05,0
39.724,-1.5106e-06,0
39.724,1.9974e-05,0
39.725,4.0452e-05,0
39.725,5.6062e-05,0
39.726,6.3447e-05,0
39.726,6.5965e-05,0
39.727,6.7308e-05,0
39.727,6.8482e-05,0
39.728,6.8986e-05,0
39.728,7.1672e-05,0
39.729,8.04e-05,0
39.729,8.5435e-05,0
39.73,8.0064e-05,0
39.73,8.2414e-05,0
39.731,9.8863e-05,0
39.732,0.00010457,0
39.732,8.51e-05,0
39.733,4.9516e-05,0
39.733,9.5674e-06,0
39.734,-2.4338e-05,0
39.734,-4.3809e-05,0
39.735,-5.5558e-05,0
39.735,-6.0594e-05,0
39.736,-5.4551e-05,0
39.736,-3.6591e-05,0
39.737,-1.8967e-05,0
39.737,-7.2175e-06,0
39.738,-6.714e-07,0
39.738,8.2246e-06,0
39.739,3.4073e-05,0
39.739,7.3014e-05,0
39.74,0.00010793,0
39.74,0.0001237,0
39.741,0.00010776,0
39.741,7.2343e-05,0
39.742,4.3305e-05,0
39.742,2.9374e-05,0
39.743,2.182e-05,0
39.743,1.4939e-05,0
39.744,8.5603e-06,0
39.745,5.0355e-07,0
39.745,-7.2175e-06,0
39.746,-4.0284e-06,0
39.746,1.0239e-05,0
39.747,1.9806e-05,0
39.747,1.0575e-05,0
39.748,-1.1414e-05,0
39.748,-1.9638e-05,0
39.749,-1.1917e-05,0
39.749,-1.0239e-05,0
39.75,-1.9471e-05,0
39.75,-3.1052e-05,0
39.751,-3.8437e-05,0
39.751,-3.7934e-05,0
39.752,-3.2563e-05,0
39.752,-2.1988e-05,0
39.753,1.8463e-06,0
39.753,3.743e-05,0
39.754,6.2104e-05,0
39.754,5.3544e-05,0
39.755,2.1988e-05,0
39.755,-3.357e-07,0
39.756,2.0142e-06,0
39.756,1.9974e-05,0
39.757,3.6759e-05,0
39.758,4.3473e-05,0
39.758,4.1123e-05,0
39.759,4.4144e-05,0
39.759,6.0929e-05,0
39.76,8.2078e-05,0
39.76,9.4499e-05,0
39.761,9.366e-05,0
39.761,8.6442e-05,0
39.762,8.3085e-05,0
39.762,8.5603e-05,0
39.763,8.3757e-05,0
39.763,5.9251e-05,0
39.764,1.326e-05,0
39.764,-1.9806e-05,0
39.765,-1.9135e-05,0
39.765,2.0142e-06,0
39.766,1.7624e-05,0
39.766,1.2589e-05,0
39.767,-1.5106e-06,0
39.767,-1.8463e-06,0
39.768,1.1246e-05,0
39.768,2.5177e-05,0
39.769,3.5248e-05,0
39.769,4.0452e-05,0
39.77,3.8605e-05,0
39.77,2.6856e-05,0
39.771,7.8889e-06,0
39.772,-1.6281e-05,0
39.772,-3.4073e-05,0
39.773,-3.7934e-05,0
39.773,-3.2395e-05,0
39.774,-2.3835e-05,0
39.774,-1.0239e-05,0
39.775,2.0142e-05,0
39.775,6.6804e-05,0
39.776,0.00012572,0
39.776,0.00017272,0
39.777,0.00017238,0
39.777,0.00012236,0
39.778,5.4215e-05,0
39.778,-1.0575e-05,0
39.779,-6.9993e-05,0
39.779,-0.000118,0
39.78,-0.00013545,0
39.78,-0.00013075,0
39.781,-0.00012354,0
39.781,-0.00012068,0
39.782,-0.00011968,0
39.782,-0.0001086,0
39.783,-8.8792e-05,0
39.783,-7.1672e-05,0
39.784,-5.9251e-05,0
39.785,-4.7166e-05,0
39.785,-3.1891e-05,0
39.786,-1.561e-05,0
39.786,-4.5319e-06,0
39.787,1.0575e-05,0
39.787,4.1459e-05,0
39.788,7.8721e-05,0
39.788,0.000118,0
39.789,0.00015358,0
39.789,0.00017087,0
39.79,0.000165,0
39.79,0.00014351,0
39.791,0.00012236,0
39.791,0.00010776,0
39.792,8.5771e-05,0
39.792,5.1362e-05,0
39.793,1.7792e-05,0
39.793,-2.8534e-06,0
39.794,-1.2085e-05,0
39.794,-1.796e-05,0
39.795,-2.652e-05,0
39.795,-3.6088e-05,0
39.796,-4.1794e-05,0
39.796,-4.2466e-05,0
39.797,-3.9948e-05,0
39.797,-2.7359e-05,0
39.798,-2.6856e-06,0
39.799,1.9806e-05,0
39.799,2.2492e-05,0
39.8,1.7288e-05,0
39.8,2.031e-05,0
39.801,3.2059e-05,0
39.801,4.4648e-05,0
39.802,5.1698e-05,0
39.802,5.1362e-05,0
39.803,5.0019e-05,0
39.803,4.9851e-05,0
39.804,5.3544e-05,0
39.804,5.6565e-05,0
39.805,5.1865e-05,0
39.805,4.062e-05,0
39.806,2.4002e-05,0
39.806,1.1749e-06,0
39.807,-1.561e-05,0
39.807,-1.8967e-05,0
39.808,-1.2589e-05,0
39.808,-5.2033e-06,0
39.809,8.3925e-07,0
39.809,6.5461e-06,0
39.81,1.5106e-05,0
39.81,2.9374e-05,0
39.811,4.5487e-05,0
39.812,5.7572e-05,0
39.812,6.0426e-05,0
39.813,5.8244e-05,0
39.813,5.8915e-05,0
39.814,6.4286e-05,0
39.814,6.6468e-05,0
39.815,6.0258e-05,0
39.815,4.8844e-05,0
39.816,3.6088e-05,0
39.816,2.6352e-05,0
39.817,2.031e-05,0
39.817,1.7456e-05,0
39.818,1.9974e-05,0
39.818,2.1317e-05,0
39.819,2.031e-05,0
39.819,2.3331e-05,0
39.82,3.1388e-05,0
39.82,3.9277e-05,0
39.821,4.2634e-05,0
39.821,4.3473e-05,0
39.822,4.4312e-05,0
39.822,4.4648e-05,0
39.823,4.8005e-05,0
39.823,5.4719e-05,0
39.824,5.3544e-05,0
39.824,3.6423e-05,0
39.825,9.2317e-06,0
39.826,-1.7624e-05,0
39.826,-4.0452e-05,0
39.827,-5.153e-05,0
39.827,-4.7501e-05,0
39.828,-3.1724e-05,0
39.828,-1.2924e-05,0
39.829,2.5177e-06,0
39.829,1.1749e-05,0
39.83,1.4939e-05,0
39.83,1.7792e-05,0
39.831,2.2492e-05,0
39.831,2.8534e-05,0
39.832,3.827e-05,0
39.832,5.153e-05,0
39.833,7.2847e-05,0
39.833,0.00010222,0
39.834,0.00011699,0
39.834,0.00010256,0
39.835,6.8315e-05,0
39.835,3.5416e-05,0
39.836,1.2421e-05,0
39.836,-6.8818e-06,0
39.837,-2.417e-05,0
39.837,-4.1962e-05,0
39.838,-6.3279e-05,0
39.839,-8.1743e-05,0
39.839,-9.7017e-05,0
39.84,-9.8527e-05,0
39.84,-7.3014e-05,0
39.841,-3.0716e-05,0
39.841,1.2757e-05,0
39.842,4.7837e-05,0
39.842,6.63e-05,0
39.843,6.8147e-05,0
39.843,6.1601e-05,0
39.844,5.4887e-05,0
39.844,4.2802e-05,0
39.845,1.6281e-05,0
39.845,-2.0478e-05,0
39.846,-5.2537e-05,0
39.846,-7.4357e-05,0
39.847,-8.4092e-05,0
39.847,-7.4189e-05,0
39.848,-4.9851e-05,0
39.848,-2.8199e-05,0
39.849,-1.4435e-05,0
39.849,5.8747e-06,0
39.85,4.7837e-05,0
39.85,0.00011833,0
39.851,0.00018984,0
39.851,0.00022089,0
39.852,0.00019756,0
39.853,0.00013545,0
39.853,5.9586e-05,0
39.854,-5.539e-06,0
39.854,-4.918e-05,0
39.855,-7.8721e-05,0
39.855,-0.00010591,0
39.856,-0.00013075,0
39.856,-0.00013344,0
39.857,-0.00010625,0
39.857,-6.7979e-05,0
39.858,-3.8102e-05,0
39.858,-1.8296e-05,0
39.859,-1.0239e-05,0
39.859,-1.091e-05,0
39.86,-5.539e-06,0
39.86,8.5603e-06,0
39.861,2.2324e-05,0
39.861,2.9374e-05,0
39.862,2.7359e-05,0
39.862,1.9974e-05,0
39.863,1.796e-05,0
39.863,3.2059e-05,0
39.864,6.479e-05,0
39.864,9.4835e-05,0
39.865,0.00010121,0
39.865,8.5267e-05,0
39.866,5.9419e-05,0
39.867,3.7934e-05,0
39.867,2.501e-05,0
39.868,1.5106e-05,0
39.868,6.2104e-06,0
39.869,6.8818e-06,0
39.869,1.9638e-05,0
39.87,3.0045e-05,0
39.87,3.0716e-05,0
39.871,3.3402e-05,0
39.871,4.5487e-05,0
39.872,5.7237e-05,0
39.872,5.623e-05,0
39.873,4.7669e-05,0
39.873,4.213e-05,0
39.874,4.8844e-05,0
39.874,7.1e-05,0
39.875,9.2485e-05,0
39.875,9.601e-05,0
39.876,8.1743e-05,0
39.876,5.4551e-05,0
39.877,2.3331e-05,0
39.877,1.0071e-06,0
39.878,-6.5461e-06,0
39.878,-6.3783e-06,0
39.879,-7.2175e-06,0
39.88,-3.5248e-06,0
39.88,5.0355e-06,0
39.881,1.8296e-05,0
39.881,4.6326e-05,0
39.882,8.7449e-05,0
39.882,0.00011716,0
39.883,0.00012102,0
39.883,9.8695e-05,0
39.884,5.6397e-05,0
39.884,9.9031e-06,0
39.885,-2.5177e-05,0
39.885,-4.448e-05,0
39.886,-5.4383e-05,0
39.886,-5.3208e-05,0
39.887,-3.3402e-05,0
39.887,-8.3925e-07,0
39.888,2.9541e-05,0
39.888,4.8173e-05,0
39.889,5.4887e-05,0
39.889,5.1194e-05,0
39.89,3.8605e-05,0
39.89,2.1317e-05,0
39.891,1.3428e-06,0
39.891,-1.6281e-05,0
39.892,-2.0478e-05,0
39.892,-5.8747e-06,0
39.893,1.2924e-05,0
39.894,2.9374e-05,0
39.894,4.4816e-05,0
39.895,5.3544e-05,0
39.895,5.153e-05,0
39.896,4.3137e-05,0
39.896,3.2731e-05,0
39.897,2.0478e-05,0
39.897,8.3925e-06,0
39.898,5.0355e-07,0
39.898,1.5106e-06,0
39.899,6.8818e-06,0
39.899,1.2589e-05,0
39.9,2.0645e-05,0
39.9,2.4002e-05,0
39.901,2.5345e-05,0
39.901,2.8031e-05,0
39.902,2.3667e-05,0
39.902,7.2175e-06,0
39.903,-6.8818e-06,0
39.903,-7.8889e-06,0
39.904,-4.1962e-06,0
39.904,-1.3596e-05,0
39.905,-3.3066e-05,0
39.905,-4.5151e-05,0
39.906,-4.8173e-05,0
39.907,-5.1865e-05,0
39.907,-5.2537e-05,0
39.908,-4.213e-05,0
39.908,-1.7624e-05,0
39.909,1.4603e-05,0
39.909,4.4816e-05,0
39.91,7.1504e-05,0
39.91,8.51e-05,0
39.911,6.4118e-05,0
39.911,1.3596e-05,0
39.912,-3.2731e-05,0
39.912,-5.8579e-05,0
39.913,-7.0497e-05,0
39.913,-7.335e-05,0
39.914,-6.6636e-05,0
39.914,-5.3208e-05,0
39.915,-3.0716e-05,0
39.915,1.0071e-05,0
39.916,6.5629e-05,0
39.916,0.0001039,0
39.917,0.00010423,0
39.917,7.9057e-05,0
39.918,6.0929e-05,0
39.918,5.8915e-05,0
39.919,5.9419e-05,0
39.919,5.153e-05,0
39.92,2.8367e-05,0
39.921,6.2104e-06,0
39.921,6.5461e-06,0
39.922,1.9303e-05,0
39.922,2.7024e-05,0
39.923,2.4674e-05,0
39.923,1.7792e-05,0
39.924,1.6449e-05,0
39.924,2.1653e-05,0
39.925,2.031e-05,0
39.925,3.6927e-06,0
39.926,-2.1653e-05,0
39.926,-3.6591e-05,0
39.927,-3.4745e-05,0
39.927,-2.7527e-05,0
39.928,-2.2156e-05,0
39.928,-1.5274e-05,0
39.929,-6.0426e-06,0
39.929,3.6927e-06,0
39.93,1.8967e-05,0
39.93,4.6159e-05,0
39.931,8.4428e-05,0
39.931,0.00011582,0
39.932,0.00012068,0
39.932,0.00010188,0
39.933,7.7714e-05,0
39.934,6.2104e-05,0
39.934,5.7908e-05,0
39.935,6.1097e-05,0
39.935,6.5797e-05,0
39.936,6.7308e-05,0
39.936,6.5629e-05,0
39.937,5.8579e-05,0
39.937,4.213e-05,0
39.938,1.8631e-05,0
39.938,-2.3499e-06,0
39.939,-2.031e-05,0
39.939,-3.3234e-05,0
39.94,-3.1388e-05,0
39.94,-1.8967e-05,0
39.941,-8.896e-06,0
39.941,-4.6998e-06,0
39.942,-5.0355e-06,0
39.942,-4.5319e-06,0
39.943,2.3499e-06,0
39.943,8.896e-06,0
39.944,8.7282e-06,0
39.944,5.539e-06,0
39.945,6.8818e-06,0
39.945,1.2589e-05,0
39.946,2.0645e-05,0
39.947,3.5752e-05,0
39.947,5.8579e-05,0
39.948,6.9657e-05,0
39.948,6.0929e-05,0
39.949,4.7501e-05,0
39.949,4.5991e-05,0
39.95,5.7908e-05,0
39.95,7.2343e-05,0
39.951,8.6442e-05,0
39.951,0.00011229,0
39.952,0.00016063,0
39.952,0.00020293,0
39.953,0.00019605,0
39.953,0.00013864,0
39.954,6.4286e-05,0
39.954,3.8605e-06,0
39.955,-3.0213e-05,0
39.955,-5.2705e-05,0
39.956,-7.5532e-05,0
39.956,-8.661e-05,0
39.957,-8.426e-05,0
39.957,-8.2414e-05,0
39.958,-8.4092e-05,0
39.958,-7.6204e-05,0
39.959,-5.0019e-05,0
39.959,-2.5849e-05,0
39.96,-2.8031e-05,0
39.961,-4.0116e-05,0
39.961,-3.1388e-05,0
39.962,-5.539e-06,0
39.962,1.3092e-05,0
39.963,1.091e-05,0
39.963,-1.091e-05,0
39.964,-4.0955e-05,0
39.964,-6.3783e-05,0
39.965,-6.8315e-05,0
39.965,-5.4719e-05,0
39.966,-3.3066e-05,0
39.966,-1.4435e-05,0
39.967,1.1749e-06,0
39.967,1.8296e-05,0
39.968,3.3738e-05,0
39.968,3.8102e-05,0
39.969,3.8605e-05,0
39.969,4.3809e-05,0
39.97,4.4144e-05,0
39.97,3.4409e-05,0
39.971,2.417e-05,0
39.971,2.5681e-05,0
39.972,3.0381e-05,0
39.972,2.5513e-05,0
39.973,1.7288e-05,0
39.974,2.0142e-05,0
39.974,3.2731e-05,0
39.975,4.6998e-05,0
39.975,6.7308e-05,0
39.976,0.00010373,0
39.976,0.0001519,0
39.977,0.00019487,0
39.977,0.00022072,0
39.978,0.00021535,0
39.978,0.00017473,0
39.979,0.00011347,0
39.979,5.0523e-05,0
39.98,-6.2104e-06,0
39.98,-5.304e-05,0
39.981,-7.7714e-05,0
39.981,-8.2246e-05,0
39.982,-8.7449e-05,0
