104.2,-2.7192e-05,0
104.2,-1.8296e-05,0
104.2,-5.539e-06,0
104.2,1.1917e-05,0
104.2,2.7527e-05,0
104.2,3.3402e-05,0
104.2,2.3163e-05,0
104.2,4.1962e-06,0
104.2,-6.5461e-06,0
104.2,-6.0426e-06,0
104.2,4.1962e-06,0
104.2,2.2324e-05,0
104.2,3.743e-05,0
104.2,3.9445e-05,0
104.21,2.8702e-05,0
104.21,1.3596e-05,0
104.21,3.6927e-06,0
104.21,4.1962e-06,0
104.21,1.4267e-05,0
104.21,2.9374e-05,0
104.21,4.4984e-05,0
104.21,5.623e-05,0
104.21,5.9419e-05,0
104.21,6.0761e-05,0
104.21,6.8315e-05,0
104.21,7.57e-05,0
104.21,6.5965e-05,0
104.21,4.2802e-05,0
104.21,2.0478e-05,0
104.21,8.3925e-06,0
104.21,8.5603e-06,0
104.21,1.1582e-05,0
104.21,1.2085e-05,0
104.22,1.0575e-05,0
104.22,1.1414e-05,0
104.22,1.8296e-05,0
104.22,2.4674e-05,0
104.22,2.5513e-05,0
104.22,2.6017e-05,0
104.22,3.5752e-05,0
104.22,5.6733e-05,0
104.22,7.6371e-05,0
104.22,8.4932e-05,0
104.22,8.3085e-05,0
104.22,7.6707e-05,0
104.22,7.3014e-05,0
104.22,7.6707e-05,0
104.22,8.1071e-05,0
104.22,7.4861e-05,0
104.22,5.623e-05,0
104.22,3.978e-05,0
104.22,3.0045e-05,0
104.23,1.6114e-05,0
104.23,-3.5248e-06,0
104.23,-1.7288e-05,0
104.23,-1.7792e-05,0
104.23,-1.2924e-05,0
104.23,-1.3596e-05,0
104.23,-1.9471e-05,0
104.23,-9.2317e-06,0
104.23,1.7121e-05,0
104.23,3.7095e-05,0
104.23,3.508e-05,0
104.23,1.2924e-05,0
104.23,-1.6785e-05,0
104.23,-4.0116e-05,0
104.23,-5.0187e-05,0
104.23,-4.7837e-05,0
104.23,-3.2731e-05,0
104.23,-1.1582e-05,0
104.23,4.3641e-06,0
104.24,1.326e-05,0
104.24,2.8031e-05,0
104.24,5.5894e-05,0
104.24,8.1743e-05,0
104.24,9.1142e-05,0
104.24,8.426e-05,0
104.24,6.6972e-05,0
104.24,5.539e-05,0
104.24,5.3208e-05,0
104.24,4.4648e-05,0
104.24,1.5946e-05,0
104.24,-2.7695e-05,0
104.24,-7.0832e-05,0
104.24,-0.00010658,0
104.24,-0.00013445,0
104.24,-0.00015023,0
104.24,-0.00015274,0
104.24,-0.0001467,0
104.24,-0.00012454,0
104.24,-8.6275e-05,0
104.25,-4.3473e-05,0
104.25,-7.5532e-06,0
104.25,1.561e-05,0
104.25,2.6017e-05,0
104.25,3.2059e-05,0
104.25,4.8508e-05,0
104.25,8.3757e-05,0
104.25,0.0001237,0
104.25,0.00014133,0
104.25,0.00012505,0
104.25,9.3156e-05,0
104.25,6.0929e-05,0
104.25,3.4745e-05,0
104.25,2.0142e-05,0
104.25,1.4939e-05,0
104.25,1.3931e-05,0
104.25,2.3835e-05,0
104.25,4.2802e-05,0
104.25,5.9251e-05,0
104.26,6.4958e-05,0
104.26,6.6636e-05,0
104.26,6.8315e-05,0
104.26,6.479e-05,0
104.26,5.3544e-05,0
104.26,4.1123e-05,0
104.26,2.9709e-05,0
104.26,1.7624e-05,0
104.26,8.7282e-06,0
104.26,9.5674e-06,0
104.26,1.8967e-05,0
104.26,3.3066e-05,0
104.26,4.8173e-05,0
104.26,5.8747e-05,0
104.26,5.2033e-05,0
104.26,2.9038e-05,0
104.26,7.8889e-06,0
104.26,0,0
104.26,5.7069e-06,0
104.27,1.5778e-05,0
104.27,1.5946e-05,0
104.27,9.7353e-06,0
104.27,6.8818e-06,0
104.27,1.1078e-05,0
104.27,1.8296e-05,0
104.27,2.6688e-05,0
104.27,4.2802e-05,0
104.27,6.1265e-05,0
104.27,6.8147e-05,0
104.27,5.9922e-05,0
104.27,4.4144e-05,0
104.27,2.6688e-05,0
104.27,1.2924e-05,0
104.27,2.8534e-06,0
104.27,-6.3783e-06,0
104.27,-1.7288e-05,0
104.27,-3.0381e-05,0
104.27,-3.7095e-05,0
104.28,-2.8367e-05,0
104.28,-7.2175e-06,0
104.28,1.6617e-05,0
104.28,3.9612e-05,0
104.28,4.8173e-05,0
104.28,3.3906e-05,0
104.28,7.8889e-06,0
104.28,-1.0239e-05,0
104.28,-1.1749e-05,0
104.28,-4.8676e-06,0
104.28,-3.5248e-06,0
104.28,-1.3092e-05,0
104.28,-2.4842e-05,0
104.28,-3.0716e-05,0
104.28,-3.0381e-05,0
104.28,-1.8967e-05,0
104.28,1.1749e-06,0
104.28,1.9806e-05,0
104.28,3.1052e-05,0
104.28,3.5752e-05,0
104.29,3.9109e-05,0
104.29,4.1459e-05,0
104.29,3.743e-05,0
104.29,2.8534e-05,0
104.29,2.2324e-05,0
104.29,2.0645e-05,0
104.29,2.266e-05,0
104.29,2.1317e-05,0
104.29,1.4435e-05,0
104.29,7.5532e-06,0
104.29,8.3925e-06,0
104.29,1.3596e-05,0
104.29,1.9638e-05,0
104.29,2.5513e-05,0
104.29,3.0884e-05,0
104.29,3.7095e-05,0
104.29,4.7837e-05,0
104.29,7.1e-05,0
104.29,0.00010054,0
104.3,0.00011531,0
104.3,0.00010927,0
104.3,9.3492e-05,0
104.3,7.1504e-05,0
104.3,4.1962e-05,0
104.3,1.6617e-05,0
104.3,7.0497e-06,0
104.3,1.2924e-05,0
104.3,2.7359e-05,0
104.3,3.4913e-05,0
104.3,3.2059e-05,0
104.3,2.6017e-05,0
104.3,1.6281e-05,0
104.3,6.8818e-06,0
104.3,1.0575e-05,0
104.3,3.0213e-05,0
104.3,4.7501e-05,0
104.3,4.4312e-05,0
104.3,2.652e-05,0
104.31,8.7282e-06,0
104.31,2.182e-06,0
104.31,3.8605e-06,0
104.31,5.8747e-06,0
104.31,2.5177e-06,0
104.31,-9.5674e-06,0
104.31,-3.2059e-05,0
104.31,-5.9419e-05,0
104.31,-7.6707e-05,0
104.31,-7.7379e-05,0
104.31,-6.1265e-05,0
104.31,-3.122e-05,0
104.31,6.8818e-06,0
104.31,4.6159e-05,0
104.31,9.5506e-05,0
104.31,0.000142,0
104.31,0.00015929,0
104.31,0.00014418,0
104.31,0.00010692,0
104.31,5.5558e-05,0
104.32,6.8818e-06,0
104.32,-2.4338e-05,0
104.32,-3.3402e-05,0
104.32,-2.8367e-05,0
104.32,-2.6352e-05,0
104.32,-3.0381e-05,0
104.32,-2.5345e-05,0
104.32,-1.0239e-05,0
104.32,1.0071e-06,0
104.32,0,0
104.32,-6.8818e-06,0
104.32,-4.1962e-06,0
104.32,9.9031e-06,0
104.32,2.2828e-05,0
104.32,2.9374e-05,0
104.32,3.743e-05,0
104.32,4.2634e-05,0
104.32,3.2731e-05,0
104.32,3.8605e-06,0
104.33,-3.8773e-05,0
104.33,-8.4764e-05,0
104.33,-0.00011363,0
104.33,-0.00011565,0
104.33,-0.00010323,0
104.33,-9.6345e-05,0
104.33,-9.0974e-05,0
104.33,-7.1e-05,0
104.33,-3.7766e-05,0
104.33,-1.2757e-05,0
104.33,-5.0355e-07,0
104.33,1.3596e-05,0
104.33,4.213e-05,0
104.33,8.0232e-05,0
104.33,0.00011397,0
104.33,0.00013092,0
104.33,0.00012874,0
104.33,0.00012102,0
104.33,0.00011934,0
104.34,0.00012958,0
104.34,0.00013411,0
104.34,0.00011531,0
104.34,8.5603e-05,0
104.34,6.5629e-05,0
104.34,5.5222e-05,0
104.34,5.0523e-05,0
104.34,5.6565e-05,0
104.34,6.949e-05,0
104.34,7.1e-05,0
104.34,4.6494e-05,0
104.34,3.8605e-06,0
104.34,-3.978e-05,0
104.34,-6.8315e-05,0
104.34,-7.2679e-05,0
104.34,-5.8412e-05,0
104.34,-5.153e-05,0
104.34,-6.6133e-05,0
104.34,-8.0568e-05,0
104.35,-7.2679e-05,0
104.35,-4.7333e-05,0
104.35,-1.8296e-05,0
104.35,6.2104e-06,0
104.35,2.652e-05,0
104.35,4.0116e-05,0
104.35,4.3641e-05,0
104.35,4.3809e-05,0
104.35,4.3473e-05,0
104.35,4.3809e-05,0
104.35,4.2634e-05,0
104.35,3.4409e-05,0
104.35,1.6617e-05,0
104.35,5.2033e-06,0
104.35,8.5603e-06,0
104.35,2.4002e-05,0
104.35,4.0787e-05,0
104.35,5.4887e-05,0
104.35,7.0497e-05,0
104.36,9.1814e-05,0
104.36,0.00011733,0
104.36,0.00013545,0
104.36,0.00013948,0
104.36,0.00014083,0
104.36,0.00015744,0
104.36,0.00017507,0
104.36,0.00016768,0
104.36,0.00013193,0
104.36,8.5267e-05,0
104.36,3.8773e-05,0
104.36,-6.5461e-06,0
104.36,-4.9516e-05,0
104.36,-8.04e-05,0
104.36,-8.7449e-05,0
104.36,-7.6204e-05,0
104.36,-5.2537e-05,0
104.36,-2.4002e-05,0
104.36,-7.7211e-06,0
104.36,-1.1917e-05,0
104.37,-2.4674e-05,0
104.37,-3.0381e-05,0
104.37,-3.1724e-05,0
104.37,-3.592e-05,0
104.37,-3.8605e-05,0
104.37,-3.8773e-05,0
104.37,-4.0787e-05,0
104.37,-4.3977e-05,0
104.37,-3.9277e-05,0
104.37,-2.6352e-05,0
104.37,-9.7353e-06,0
104.37,7.0497e-06,0
104.37,2.1317e-05,0
104.37,2.3835e-05,0
104.37,1.7792e-05,0
104.37,3.122e-05,0
104.37,6.9154e-05,0
104.37,9.9199e-05,0
104.37,0.00010994,0
104.38,0.00010356,0
104.38,8.1071e-05,0
104.38,4.9851e-05,0
104.38,1.4939e-05,0
104.38,-2.4338e-05,0
104.38,-6.4118e-05,0
104.38,-9.2821e-05,0
104.38,-9.3492e-05,0
104.38,-6.1265e-05,0
104.38,-2.0645e-05,0
104.38,1.1749e-06,0
104.38,1.4099e-05,0
104.38,2.5177e-05,0
104.38,2.4506e-05,0
104.38,8.5603e-06,0
104.38,-1.0407e-05,0
104.38,-2.2156e-05,0
104.38,-2.5345e-05,0
104.38,-2.031e-05,0
104.39,-1.1414e-05,0
104.39,-5.0355e-07,0
104.39,9.9031e-06,0
104.39,2.1149e-05,0
104.39,4.0116e-05,0
104.39,6.8315e-05,0
104.39,9.366e-05,0
104.39,9.8192e-05,0
104.39,8.4428e-05,0
104.39,7.1504e-05,0
104.39,6.8482e-05,0
104.39,6.6636e-05,0
104.39,6.0258e-05,0
104.39,5.0858e-05,0
104.39,4.0452e-05,0
104.39,2.9877e-05,0
104.39,3.2059e-05,0
104.39,4.9851e-05,0
104.39,6.6636e-05,0
104.39,6.9993e-05,0
104.4,6.1097e-05,0
104.4,5.7237e-05,0
104.4,7.0832e-05,0
104.4,9.4835e-05,0
104.4,0.0001138,0
104.4,0.00012404,0
104.4,0.00012152,0
104.4,9.5842e-05,0
104.4,3.6759e-05,0
104.4,-4.2466e-05,0
104.4,-0.00011028,0
104.4,-0.00015224,0
104.4,-0.00017372,0
104.4,-0.00017725,0
104.4,-0.00015879,0
104.4,-0.0001274,0
104.4,-8.896e-05,0
104.4,-5.1362e-05,0
104.4,-2.1149e-05,0
104.41,6.2104e-06,0
104.41,3.6591e-05,0
104.41,6.0929e-05,0
104.41,6.8818e-05,0
104.41,5.7572e-05,0
104.41,3.743e-05,0
104.41,2.3667e-05,0
104.41,2.1653e-05,0
104.41,2.7024e-05,0
104.41,2.9709e-05,0
104.41,2.3835e-05,0
104.41,7.8889e-06,0
104.41,-8.3925e-06,0
104.41,-1.3596e-05,0
104.41,-3.6927e-06,0
104.41,1.326e-05,0
104.41,2.9374e-05,0
104.41,4.4144e-05,0
104.41,5.4719e-05,0
104.42,5.8244e-05,0
104.42,5.4887e-05,0
104.42,5.069e-05,0
104.42,5.1362e-05,0
104.42,5.3544e-05,0
104.42,5.8412e-05,0
104.42,6.4622e-05,0
104.42,6.7811e-05,0
104.42,6.2943e-05,0
104.42,5.5222e-05,0
104.42,4.7837e-05,0
104.42,4.1123e-05,0
104.42,3.743e-05,0
104.42,3.7095e-05,0
104.42,4.213e-05,0
104.42,5.6062e-05,0
104.42,8.6442e-05,0
104.42,0.00012874,0
104.42,0.00015929,0
104.43,0.00016533,0
104.43,0.0001556,0
104.43,0.00014015,0
104.43,0.00011061,0
104.43,6.2272e-05,0
104.43,6.2104e-06,0
104.43,-4.3641e-05,0
104.43,-8.275e-05,0
104.43,-0.00011128,0
104.43,-0.00013109,0
104.43,-0.00014401,0
104.43,-0.00015258,0
104.43,-0.00015023,0
104.43,-0.00012589,0
104.43,-8.3757e-05,0
104.43,-4.0116e-05,0
104.43,-4.8676e-06,0
104.43,2.031e-05,0
104.43,2.7695e-05,0
104.44,2.2492e-05,0
104.44,1.9135e-05,0
104.44,2.3835e-05,0
104.44,3.0213e-05,0
104.44,3.7766e-05,0
104.44,4.4144e-05,0
104.44,4.4816e-05,0
104.44,4.213e-05,0
104.44,4.1459e-05,0
104.44,4.062e-05,0
104.44,4.1291e-05,0
104.44,5.0187e-05,0
104.44,6.5461e-05,0
104.44,7.335e-05,0
104.44,6.9657e-05,0
104.44,6.7643e-05,0
104.44,8.0735e-05,0
104.44,9.752e-05,0
104.44,0.00010608,0
104.44,0.00010457,0
104.45,9.4835e-05,0
104.45,7.8889e-05,0
104.45,5.6565e-05,0
104.45,4.448e-05,0
104.45,5.153e-05,0
104.45,5.6565e-05,0
104.45,4.1291e-05,0
104.45,8.896e-06,0
104.45,-3.0381e-05,0
104.45,-7.2175e-05,0
104.45,-0.00010121,0
104.45,-0.00011649,0
104.45,-0.00012874,0
104.45,-0.00012824,0
104.45,-0.00011263,0
104.45,-8.896e-05,0
104.45,-5.8412e-05,0
104.45,-2.7695e-05,0
104.45,-5.0355e-06,0
104.46,5.7069e-06,0
104.46,3.8605e-06,0
104.46,-4.8676e-06,0
104.46,-3.8605e-06,0
104.46,1.5274e-05,0
104.46,4.0787e-05,0
104.46,5.7237e-05,0
104.46,5.8915e-05,0
104.46,5.5894e-05,0
104.46,5.2873e-05,0
104.46,4.3809e-05,0
104.46,2.9374e-05,0
104.46,1.326e-05,0
104.46,2.8534e-06,0
104.46,-1.1749e-06,0
104.46,-2.182e-06,0
104.46,-3.8605e-06,0
104.46,1.6785e-07,0
104.46,1.3596e-05,0
104.47,3.3402e-05,0
104.47,4.683e-05,0
104.47,4.1627e-05,0
104.47,2.501e-05,0
104.47,1.0071e-05,0
104.47,3.1891e-06,0
104.47,4.8676e-06,0
104.47,1.1582e-05,0
104.47,1.7288e-05,0
104.47,1.9806e-05,0
104.47,2.4674e-05,0
104.47,3.122e-05,0
104.47,3.2395e-05,0
104.47,4.0452e-05,0
104.47,6.3279e-05,0
104.47,8.8457e-05,0
104.47,9.836e-05,0
104.47,8.426e-05,0
104.47,5.2537e-05,0
104.47,1.4435e-05,0
104.48,-1.9303e-05,0
104.48,-3.9109e-05,0
104.48,-3.9612e-05,0
104.48,-3.1388e-05,0
104.48,-2.5681e-05,0
104.48,-2.3499e-05,0
104.48,-2.2492e-05,0
104.48,-2.1317e-05,0
104.48,-1.4939e-05,0
104.48,-7.2175e-06,0
104.48,-8.5603e-06,0
104.48,-1.2421e-05,0
104.48,-7.5532e-06,0
104.48,7.7211e-06,0
104.48,2.8031e-05,0
104.48,4.7501e-05,0
104.48,5.8076e-05,0
104.48,6.6636e-05,0
104.48,9.1814e-05,0
104.49,0.00013999,0
104.49,0.00018245,0
104.49,0.00019118,0
104.49,0.00016634,0
104.49,0.00012522,0
104.49,7.805e-05,0
104.49,3.1388e-05,0
104.49,-7.5532e-06,0
104.49,-3.4745e-05,0
104.49,-4.5487e-05,0
104.49,-4.2466e-05,0
104.49,-4.0787e-05,0
104.49,-4.3137e-05,0
104.49,-4.0452e-05,0
104.49,-2.5681e-05,0
104.49,-5.539e-06,0
104.49,7.7211e-06,0
104.49,1.4267e-05,0
104.49,1.9135e-05,0
104.5,2.1317e-05,0
104.5,1.6953e-05,0
104.5,4.6998e-06,0
104.5,-7.0497e-06,0
104.5,-8.0568e-06,0
104.5,4.0284e-06,0
104.5,2.0645e-05,0
104.5,3.0381e-05,0
104.5,3.4409e-05,0
104.5,3.827e-05,0
104.5,4.2802e-05,0
104.5,3.8941e-05,0
104.5,2.5345e-05,0
104.5,1.3931e-05,0
104.5,1.1749e-05,0
104.5,1.1917e-05,0
104.5,1.2924e-05,0
104.5,1.5274e-05,0
104.5,1.7624e-05,0
104.51,2.3163e-05,0
104.51,3.1724e-05,0
104.51,3.8773e-05,0
104.51,4.3473e-05,0
104.51,5.0187e-05,0
104.51,5.9922e-05,0
104.51,6.9657e-05,0
104.51,7.7379e-05,0
104.51,8.1743e-05,0
104.51,8.5771e-05,0
104.51,9.987e-05,0
104.51,0.00011783,0
104.51,0.00012303,0
104.51,0.00010692,0
104.51,7.6371e-05,0
104.51,4.2466e-05,0
104.51,1.6953e-05,0
104.51,-3.357e-07,0
104.51,-2.0645e-05,0
104.51,-4.448e-05,0
104.52,-4.8844e-05,0
104.52,-1.4939e-05,0
104.52,4.4144e-05,0
104.52,9.4835e-05,0
104.52,0.00012303,0
104.52,0.00013378,0
104.52,0.00011498,0
104.52,6.1265e-05,0
104.52,-2.6856e-06,0
104.52,-5.6901e-05,0
104.52,-0.00010172,0
104.52,-0.00013445,0
104.52,-0.00014603,0
104.52,-0.00014452,0
104.52,-0.00014821,0
104.52,-0.00015241,0
104.52,-0.00013663,0
104.52,-0.00010692,0
104.52,-8.2582e-05,0
104.53,-6.7979e-05,0
104.53,-5.388e-05,0
104.53,-3.1052e-05,0
104.53,-5.2033e-06,0
104.53,1.091e-05,0
104.53,1.8967e-05,0
104.53,2.4002e-05,0
104.53,1.9806e-05,0
104.53,5.539e-06,0
104.53,-2.8534e-06,0
104.53,7.2175e-06,0
104.53,2.4506e-05,0
104.53,2.9374e-05,0
104.53,1.9471e-05,0
104.53,1.4771e-05,0
104.53,2.8702e-05,0
104.53,5.5558e-05,0
104.53,7.6204e-05,0
104.53,7.9393e-05,0
104.54,6.7308e-05,0
104.54,4.8005e-05,0
104.54,3.2563e-05,0
104.54,2.7024e-05,0
104.54,2.9877e-05,0
104.54,3.6759e-05,0
104.54,4.1291e-05,0
104.54,3.5752e-05,0
104.54,2.1653e-05,0
104.54,1.0575e-05,0
104.54,1.2589e-05,0
104.54,2.266e-05,0
104.54,3.8102e-05,0
104.54,4.918e-05,0
104.54,4.9516e-05,0
104.54,4.8005e-05,0
104.54,4.5991e-05,0
104.54,3.9109e-05,0
104.54,2.8702e-05,0
104.55,2.2156e-05,0
104.55,2.1149e-05,0
104.55,2.501e-05,0
104.55,3.1724e-05,0
104.55,3.2563e-05,0
104.55,2.3835e-05,0
104.55,1.7288e-05,0
104.55,2.0478e-05,0
104.55,3.2898e-05,0
104.55,5.2873e-05,0
104.55,7.1672e-05,0
104.55,8.1407e-05,0
104.55,8.0903e-05,0
104.55,7.1672e-05,0
104.55,5.7908e-05,0
104.55,4.3305e-05,0
104.55,3.0381e-05,0
104.55,1.5946e-05,0
104.55,2.8534e-06,0
104.55,-2.0142e-06,0
104.56,-1.1749e-06,0
104.56,-2.8534e-06,0
104.56,-9.2317e-06,0
104.56,-1.091e-05,0
104.56,5.0355e-07,0
104.56,2.2995e-05,0
104.56,5.1362e-05,0
104.56,7.4861e-05,0
104.56,8.2414e-05,0
104.56,7.2007e-05,0
104.56,5.069e-05,0
104.56,2.7024e-05,0
104.56,9.0639e-06,0
104.56,-8.3925e-07,0
104.56,-7.8889e-06,0
104.56,-1.1749e-05,0
104.56,-8.3925e-07,0
104.56,2.652e-05,0
104.56,5.2201e-05,0
104.57,6.1097e-05,0
104.57,5.9251e-05,0
104.57,5.9251e-05,0
104.57,7.0329e-05,0
104.57,9.0639e-05,0
104.57,0.00011128,0
104.57,0.000118,0
104.57,9.2821e-05,0
104.57,4.3305e-05,0
104.57,1.1246e-05,0
104.57,1.4603e-05,0
104.57,2.7359e-05,0
104.57,3.2059e-05,0
104.57,3.0716e-05,0
104.57,2.2492e-05,0
104.57,0,0
104.57,-3.3906e-05,0
104.57,-7.1839e-05,0
104.57,-0.00010272,0
104.58,-0.00011498,0
104.58,-0.0001086,0
104.58,-9.5003e-05,0
104.58,-9.3492e-05,0
104.58,-0.00010961,0
104.58,-0.00012287,0
104.58,-0.00010977,0
104.58,-6.865e-05,0
104.58,-2.1485e-05,0
104.58,1.4603e-05,0
104.58,3.743e-05,0
104.58,4.7501e-05,0
104.58,4.8173e-05,0
104.58,6.0929e-05,0
104.58,9.2485e-05,0
104.58,0.00011766,0
104.58,0.00011632,0
104.58,9.4163e-05,0
104.58,6.4286e-05,0
104.58,3.5416e-05,0
104.59,7.5532e-06,0
104.59,-1.8967e-05,0
104.59,-3.6423e-05,0
104.59,-4.2634e-05,0
104.59,-4.5151e-05,0
104.59,-4.213e-05,0
104.59,-2.8534e-05,0
104.59,-1.561e-05,0
104.59,-1.5946e-05,0
104.59,-2.3667e-05,0
104.59,-2.4506e-05,0
104.59,-5.539e-06,0
104.59,2.4674e-05,0
104.59,4.4816e-05,0
104.59,6.2104e-05,0
104.59,8.9464e-05,0
104.59,0.00011296,0
104.59,0.00012001,0
104.59,0.00011431,0
104.6,0.00010021,0
104.6,8.2414e-05,0
104.6,6.4286e-05,0
104.6,4.1459e-05,0
104.6,1.3931e-05,0
104.6,-9.9031e-06,0
104.6,-2.5681e-05,0
104.6,-2.9038e-05,0
104.6,-1.6114e-05,0
104.6,1.1749e-05,0
104.6,3.978e-05,0
104.6,5.4887e-05,0
104.6,6.0258e-05,0
104.6,5.5558e-05,0
104.6,3.5752e-05,0
104.6,6.5461e-06,0
104.6,-1.6281e-05,0
104.6,-2.2492e-05,0
104.6,-2.1317e-05,0
104.61,-2.0813e-05,0
104.61,-1.4603e-05,0
104.61,-3.5248e-06,0
104.61,-6.5461e-06,0
104.61,-3.0716e-05,0
104.61,-5.5222e-05,0
104.61,-5.539e-05,0
104.61,-3.5416e-05,0
104.61,-1.3931e-05,0
104.61,1.3428e-06,0
104.61,1.3428e-05,0
104.61,2.652e-05,0
104.61,4.2802e-05,0
104.61,5.1194e-05,0
104.61,4.2298e-05,0
104.61,2.8031e-05,0
104.61,2.8031e-05,0
104.61,4.0787e-05,0
104.61,5.4383e-05,0
104.62,6.3447e-05,0
104.62,6.5629e-05,0
104.62,6.2608e-05,0
104.62,5.4551e-05,0
104.62,4.1794e-05,0
104.62,2.887e-05,0
104.62,3.1052e-05,0
104.62,5.2201e-05,0
104.62,7.8721e-05,0
104.62,9.0135e-05,0
104.62,8.4428e-05,0
104.62,6.9322e-05,0
104.62,4.9851e-05,0
104.62,3.0045e-05,0
104.62,1.091e-05,0
104.62,3.8605e-06,0
104.62,8.5603e-06,0
104.62,1.1078e-05,0
104.62,6.8818e-06,0
104.62,5.2033e-06,0
104.63,3.1891e-06,0
104.63,-5.8747e-06,0
104.63,-9.0639e-06,0
104.63,7.8889e-06,0
104.63,4.8173e-05,0
104.63,9.6849e-05,0
104.63,0.00012908,0
104.63,0.00013411,0
104.63,0.00012068,0
104.63,9.6513e-05,0
104.63,6.7979e-05,0
104.63,4.6494e-05,0
104.63,5.0523e-05,0
104.63,7.335e-05,0
104.63,9.3828e-05,0
104.63,9.0806e-05,0
104.63,5.7572e-05,0
104.63,1.1917e-05,0
104.63,-2.9709e-05,0
104.64,-4.3305e-05,0
104.64,-2.5345e-05,0
104.64,1.6785e-07,0
104.64,1.1078e-05,0
104.64,1.6785e-07,0
104.64,-2.3331e-05,0
104.64,-3.9612e-05,0
104.64,-4.1794e-05,0
104.64,-3.3066e-05,0
104.64,-1.4603e-05,0
104.64,5.0355e-07,0
104.64,-5.2033e-06,0
104.64,-2.4338e-05,0
104.64,-4.3977e-05,0
104.64,-6.7979e-05,0
104.64,-0.00010155,0
104.64,-0.00012572,0
104.64,-0.00011867,0
104.64,-9.8024e-05,0
104.65,-8.8792e-05,0
104.65,-8.5771e-05,0
104.65,-6.9322e-05,0
104.65,-3.6088e-05,0
104.65,-6.2104e-06,0
104.65,1.326e-05,0
104.65,3.2059e-05,0
104.65,5.0858e-05,0
104.65,6.0761e-05,0
104.65,5.7572e-05,0
104.65,5.153e-05,0
104.65,5.2537e-05,0
104.65,6.3279e-05,0
104.65,7.9057e-05,0
104.65,8.7449e-05,0
104.65,8.1071e-05,0
104.65,5.8076e-05,0
104.65,2.1317e-05,0
104.65,-8.3925e-06,0
104.66,-9.5674e-06,0
104.66,1.2253e-05,0
104.66,2.9877e-05,0
104.66,2.6017e-05,0
104.66,8.2246e-06,0
104.66,-4.1962e-06,0
104.66,-8.3925e-06,0
104.66,-1.2589e-05,0
104.66,-1.9638e-05,0
104.66,-1.8631e-05,0
104.66,1.1749e-06,0
104.66,2.8534e-05,0
104.66,4.6159e-05,0
104.66,4.2634e-05,0
104.66,2.4338e-05,0
104.66,1.0071e-05,0
104.66,1.0239e-05,0
104.66,1.5778e-05,0
104.66,1.6953e-05,0
104.67,2.0142e-05,0
104.67,3.4409e-05,0
104.67,4.4816e-05,0
104.67,4.2466e-05,0
104.67,3.4073e-05,0
104.67,3.0884e-05,0
104.67,3.2731e-05,0
104.67,3.0045e-05,0
104.67,2.0645e-05,0
104.67,1.6617e-05,0
104.67,2.5681e-05,0
104.67,3.9109e-05,0
104.67,4.7333e-05,0
104.67,5.0187e-05,0
104.67,5.3544e-05,0
104.67,5.8915e-05,0
104.67,5.8244e-05,0
104.67,5.623e-05,0
104.67,5.8076e-05,0
104.67,6.1601e-05,0
104.68,6.3951e-05,0
104.68,6.4286e-05,0
104.68,6.2943e-05,0
104.68,7.0329e-05,0
104.68,9.601e-05,0
104.68,0.0001373,0
104.68,0.0001702,0
104.68,0.00017557,0
104.68,0.00015694,0
104.68,0.00012253,0
104.68,7.6707e-05,0
104.68,3.3402e-05,0
104.68,4.5319e-06,0
104.68,-1.1917e-05,0
104.68,-2.031e-05,0
104.68,-2.7359e-05,0
104.68,-3.8773e-05,0
104.68,-5.1194e-05,0
104.68,-6.0594e-05,0
104.69,-6.3447e-05,0
104.69,-5.388e-05,0
104.69,-3.743e-05,0
104.69,-2.5681e-05,0
104.69,-2.3331e-05,0
104.69,-2.4002e-05,0
104.69,-2.0813e-05,0
104.69,-1.4603e-05,0
104.69,-1.1246e-05,0
104.69,-8.896e-06,0
104.69,-8.896e-06,0
104.69,-1.2924e-05,0
104.69,-1.3596e-05,0
104.69,-5.0355e-06,0
104.69,8.5603e-06,0
104.69,1.4435e-05,0
104.69,5.2033e-06,0
104.69,-1.4939e-05,0
104.69,-2.6688e-05,0
104.7,-1.7792e-05,0
104.7,5.539e-06,0
104.7,3.8773e-05,0
104.7,8.2918e-05,0
104.7,0.00013008,0
104.7,0.00016902,0
104.7,0.00018296,0
104.7,0.0001603,0
104.7,0.00010625,0
104.7,4.0116e-05,0
104.7,-2.0478e-05,0
104.7,-6.949e-05,0
104.7,-0.00010407,0
104.7,-0.00012807,0
104.7,-0.00014636,0
104.7,-0.00015811,0
104.7,-0.00015862,0
104.7,-0.00014804,0
104.7,-0.00012522,0
104.7,-8.0064e-05,0
104.71,-1.3092e-05,0
104.71,4.8173e-05,0
104.71,7.9896e-05,0
104.71,8.4428e-05,0
104.71,8.275e-05,0
104.71,8.9967e-05,0
104.71,0.00011196,0
104.71,0.00013445,0
104.71,0.00014485,0
104.71,0.0001415,0
104.71,0.00012471,0
104.71,9.4835e-05,0
104.71,5.6565e-05,0
104.71,1.2589e-05,0
104.71,-2.0645e-05,0
104.71,-3.1388e-05,0
104.71,-3.4577e-05,0
104.71,-5.0019e-05,0
104.71,-7.7379e-05,0
104.72,-9.9031e-05,0
104.72,-9.9199e-05,0
104.72,-7.7714e-05,0
104.72,-4.1459e-05,0
104.72,1.1749e-06,0
104.72,4.3473e-05,0
104.72,7.3686e-05,0
104.72,8.4092e-05,0
104.72,7.2175e-05,0
104.72,5.388e-05,0
104.72,5.3544e-05,0
104.72,6.2608e-05,0
104.72,4.9516e-05,0
104.72,2.3499e-05,0
104.72,8.3925e-06,0
104.72,-6.714e-07,0
104.72,-1.5106e-05,0
104.72,-2.652e-05,0
104.72,-1.9974e-05,0
104.73,2.6856e-06,0
104.73,2.3331e-05,0
104.73,2.887e-05,0
104.73,2.6688e-05,0
104.73,3.5248e-05,0
104.73,5.4551e-05,0
104.73,7.335e-05,0
104.73,8.8121e-05,0
104.73,9.5506e-05,0
104.73,9.4163e-05,0
104.73,8.8792e-05,0
104.73,8.3757e-05,0
104.73,8.6442e-05,0
104.73,0.00010423,0
104.73,0.0001185,0
104.73,0.00010088,0
104.73,5.4887e-05,0
104.73,9.0639e-06,0
104.73,-2.0981e-05,0
104.74,-3.8605e-05,0
104.74,-4.5319e-05,0
104.74,-4.8173e-05,0
104.74,-5.5222e-05,0
104.74,-5.5222e-05,0
104.74,-2.5681e-05,0
104.74,2.0142e-05,0
104.74,4.5151e-05,0
104.74,4.7501e-05,0
104.74,5.4215e-05,0
104.74,5.9586e-05,0
104.74,4.213e-05,0
104.74,7.7211e-06,0
104.74,-1.6953e-05,0
104.74,-1.8463e-05,0
104.74,-1.3931e-05,0
104.74,-1.7288e-05,0
104.74,-3.3234e-05,0
104.74,-5.8747e-05,0
104.74,-8.7785e-05,0
104.75,-0.00010491,0
104.75,-9.4499e-05,0
104.75,-6.3615e-05,0
104.75,-3.5248e-05,0
104.75,-2.0478e-05,0
104.75,-1.0575e-05,0
104.75,1.5106e-06,0
104.75,1.1582e-05,0
104.75,1.5946e-05,0
104.75,1.7792e-05,0
104.75,2.1988e-05,0
104.75,3.0381e-05,0
104.75,3.9948e-05,0
104.75,5.0523e-05,0
104.75,5.9251e-05,0
104.75,6.1433e-05,0
104.75,6.0258e-05,0
104.75,6.0258e-05,0
104.75,6.6972e-05,0
104.76,8.3085e-05,0
104.76,0.00010037,0
104.76,0.00010574,0
104.76,0.00010054,0
104.76,9.2149e-05,0
104.76,8.2078e-05,0
104.76,7.0665e-05,0
104.76,6.0594e-05,0
104.76,5.388e-05,0
104.76,5.1362e-05,0
104.76,5.7572e-05,0
104.76,7.9728e-05,0
104.76,0.00010457,0
104.76,0.00011884,0
104.76,0.00011766,0
104.76,0.00010121,0
104.76,6.9657e-05,0
104.76,3.2395e-05,0
104.76,-6.714e-07,0
104.77,-2.9374e-05,0
104.77,-5.4215e-05,0
104.77,-7.4022e-05,0
104.77,-8.2246e-05,0
104.77,-7.8386e-05,0
104.77,-7.1336e-05,0
104.77,-6.1601e-05,0
104.77,-4.3137e-05,0
104.77,-1.8463e-05,0
104.77,-1.8463e-06,0
104.77,-1.0071e-06,0
104.77,-9.9031e-06,0
104.77,-1.2253e-05,0
104.77,3.357e-07,0
104.77,1.5946e-05,0
104.77,2.1988e-05,0
104.77,2.266e-05,0
104.77,2.266e-05,0
104.77,1.8631e-05,0
104.78,1.2421e-05,0
104.78,1.0575e-05,0
104.78,1.6281e-05,0
104.78,2.6688e-05,0
104.78,4.5487e-05,0
104.78,7.5029e-05,0
104.78,9.9199e-05,0
104.78,0.00010054,0
104.78,8.2414e-05,0
104.78,5.9586e-05,0
104.78,4.0116e-05,0
104.78,1.9303e-05,0
104.78,-5.0355e-07,0
104.78,-1.1414e-05,0
104.78,-8.2246e-06,0
104.78,1.8967e-05,0
104.78,6.0258e-05,0
104.78,9.0806e-05,0
104.78,9.1814e-05,0
104.78,7.6371e-05,0
104.79,6.479e-05,0
104.79,5.6733e-05,0
104.79,4.9516e-05,0
104.79,3.508e-05,0
104.79,6.3783e-06,0
104.79,-3.1052e-05,0
104.79,-7.0497e-05,0
104.79,-0.00010759,0
104.79,-0.00013327,0
104.79,-0.00013864,0
104.79,-0.00012572,0
104.79,-0.00010809,0
104.79,-9.4499e-05,0
104.79,-8.8121e-05,0
104.79,-8.8457e-05,0
104.79,-8.3085e-05,0
104.79,-6.5629e-05,0
104.79,-4.1459e-05,0
104.79,-1.4939e-05,0
104.8,1.0239e-05,0
104.8,2.9206e-05,0
104.8,3.978e-05,0
104.8,4.7837e-05,0
104.8,6.5629e-05,0
104.8,9.6345e-05,0
104.8,0.00013277,0
104.8,0.00017339,0
104.8,0.00020729,0
104.8,0.00021166,0
104.8,0.00018648,0
104.8,0.00014989,0
104.8,0.00010524,0
104.8,5.3544e-05,0
104.8,3.5248e-06,0
104.8,-3.6423e-05,0
104.8,-6.2608e-05,0
104.8,-7.6539e-05,0
104.8,-7.3686e-05,0
104.81,-5.4887e-05,0
104.81,-4.6494e-05,0
104.81,-5.4551e-05,0
104.81,-6.009e-05,0
104.81,-4.5487e-05,0
104.81,-1.8799e-05,0
104.81,2.5177e-06,0
104.81,1.9303e-05,0
104.81,3.8437e-05,0
104.81,5.5222e-05,0
104.81,5.5894e-05,0
104.81,4.0787e-05,0
104.81,2.2324e-05,0
104.81,6.5461e-06,0
104.81,-2.5177e-06,0
104.81,-8.2246e-06,0
104.81,-1.2253e-05,0
104.81,-1.091e-05,0
104.81,-4.6998e-06,0
104.81,5.7069e-06,0
104.82,1.5778e-05,0
104.82,2.0142e-05,0
104.82,2.0478e-05,0
104.82,1.9974e-05,0
104.82,2.3667e-05,0
104.82,3.0045e-05,0
104.82,3.4409e-05,0
104.82,4.0116e-05,0
104.82,4.9012e-05,0
104.82,6.2104e-05,0
104.82,7.7714e-05,0
104.82,8.9799e-05,0
104.82,9.1478e-05,0
104.82,8.6778e-05,0
104.82,8.2414e-05,0
104.82,7.6371e-05,0
104.82,6.9154e-05,0
104.82,6.6133e-05,0
104.82,6.2272e-05,0
104.83,5.623e-05,0
104.83,4.5991e-05,0
104.83,2.5681e-05,0
104.83,9.9031e-06,0
104.83,2.9709e-05,0
104.83,8.4428e-05,0
104.83,0.00013109,0
104.83,0.00013948,0
104.83,0.00012001,0
104.83,9.0639e-05,0
104.83,5.6565e-05,0
104.83,1.6953e-05,0
104.83,-2.5513e-05,0
104.83,-6.5965e-05,0
104.83,-9.9535e-05,0
104.83,-0.00012236,0
104.83,-0.0001321,0
104.83,-0.00012572,0
104.83,-0.00010709,0
104.84,-8.661e-05,0
104.84,-7.0329e-05,0
104.84,-5.7908e-05,0
104.84,-4.5991e-05,0
104.84,-3.592e-05,0
104.84,-2.501e-05,0
104.84,-1.091e-05,0
104.84,5.7069e-06,0
104.84,2.4674e-05,0
104.84,4.2802e-05,0
104.84,5.388e-05,0
104.84,5.5726e-05,0
104.84,5.2201e-05,0
104.84,4.8844e-05,0
104.84,4.9516e-05,0
104.84,5.1362e-05,0
104.84,5.153e-05,0
104.84,5.4215e-05,0
104.84,6.4622e-05,0
104.85,7.9728e-05,0
104.85,9.1646e-05,0
104.85,0.00010155,0
104.85,0.00011598,0
104.85,0.00014334,0
104.85,0.0001707,0
104.85,0.00017372,0
104.85,0.00014603,0
104.85,0.00010457,0
104.85,7.0161e-05,0
104.85,4.0955e-05,0
104.85,8.5603e-06,0
104.85,-2.6688e-05,0
104.85,-6.479e-05,0
104.85,-0.00010675,0
104.85,-0.00014301,0
104.85,-0.00015593,0
104.85,-0.00014234,0
104.85,-0.00011699,0
104.86,-8.9799e-05,0
104.86,-6.8482e-05,0
104.86,-5.4047e-05,0
104.86,-3.6927e-05,0
104.86,-1.1246e-05,0
104.86,1.091e-05,0
104.86,2.6017e-05,0
104.86,4.3137e-05,0
104.86,5.4887e-05,0
104.86,5.0187e-05,0
104.86,3.6088e-05,0
104.86,2.3499e-05,0
104.86,1.1917e-05,0
104.86,2.5177e-06,0
104.86,5.0355e-07,0
104.86,7.8889e-06,0
104.86,1.9303e-05,0
104.86,3.1052e-05,0
104.86,4.683e-05,0
104.86,6.0258e-05,0
104.87,6.1601e-05,0
104.87,5.1362e-05,0
104.87,4.1459e-05,0
104.87,3.2731e-05,0
104.87,1.5274e-05,0
104.87,-8.3925e-06,0
104.87,-2.4506e-05,0
104.87,-2.7359e-05,0
104.87,-2.0981e-05,0
104.87,-1.7624e-05,0
104.87,-2.0813e-05,0
104.87,-1.6953e-05,0
104.87,2.5177e-06,0
104.87,2.266e-05,0
104.87,3.1891e-05,0
104.87,3.9277e-05,0
104.87,4.7837e-05,0
104.87,5.1194e-05,0
104.87,4.4816e-05,0
104.88,3.3234e-05,0
104.88,2.6688e-05,0
104.88,1.9974e-05,0
104.88,3.8605e-06,0
104.88,-5.7069e-06,0
104.88,3.8605e-06,0
104.88,1.9471e-05,0
104.88,2.8031e-05,0
104.88,3.2731e-05,0
104.88,4.1459e-05,0
104.88,5.539e-05,0
104.88,6.4286e-05,0
104.88,6.4286e-05,0
104.88,6.1265e-05,0
104.88,6.5293e-05,0
104.88,7.7043e-05,0
104.88,8.3085e-05,0
104.88,7.6707e-05,0
104.88,6.4622e-05,0
104.89,5.3208e-05,0
104.89,3.9948e-05,0
104.89,2.3331e-05,0
104.89,1.1582e-05,0
104.89,1.326e-05,0
104.89,2.2492e-05,0
104.89,3.6088e-05,0
104.89,4.5151e-05,0
104.89,3.9109e-05,0
104.89,2.6688e-05,0
104.89,2.4674e-05,0
104.89,4.2802e-05,0
104.89,9.366e-05,0
104.89,0.00015392,0
104.89,0.00018379,0
104.89,0.000165,0
104.89,0.00011229,0
104.89,5.0858e-05,0
104.89,-4.0284e-06,0
104.89,-4.3305e-05,0
104.9,-6.7308e-05,0
104.9,-7.4357e-05,0
104.9,-6.7308e-05,0
104.9,-5.4047e-05,0
104.9,-4.0116e-05,0
104.9,-2.4674e-05,0
104.9,-1.4267e-05,0
104.9,-1.0407e-05,0
104.9,-9.5674e-06,0
104.9,-1.4267e-05,0
104.9,-3.3234e-05,0
104.9,-6.5126e-05,0
104.9,-9.8863e-05,0
104.9,-0.00012102,0
104.9,-0.00012639,0
104.9,-0.00011431,0
104.9,-7.7546e-05,0
104.9,-2.3331e-05,0
104.9,2.0645e-05,0
104.91,4.2802e-05,0
104.91,4.9516e-05,0
104.91,4.7501e-05,0
104.91,4.0787e-05,0
104.91,2.8702e-05,0
104.91,1.4099e-05,0
104.91,-6.714e-07,0
104.91,-1.6449e-05,0
104.91,-2.4674e-05,0
104.91,-1.2589e-05,0
104.91,1.7288e-05,0
104.91,4.5823e-05,0
104.91,5.7572e-05,0
104.91,5.9083e-05,0
104.91,6.2272e-05,0
104.91,6.63e-05,0
104.91,5.8915e-05,0
104.91,3.8773e-05,0
104.91,2.031e-05,0
104.92,2.0813e-05,0
104.92,4.1962e-05,0
104.92,6.4622e-05,0
104.92,7.5029e-05,0
104.92,7.57e-05,0
104.92,7.0665e-05,0
104.92,5.9922e-05,0
104.92,4.5151e-05,0
104.92,3.7766e-05,0
104.92,3.9445e-05,0
104.92,4.2298e-05,0
104.92,4.213e-05,0
104.92,3.6423e-05,0
104.92,1.7288e-05,0
104.92,-1.3764e-05,0
104.92,-4.1291e-05,0
104.92,-5.3208e-05,0
104.92,-5.2537e-05,0
104.92,-4.3137e-05,0
104.93,-2.7024e-05,0
104.93,-3.5248e-06,0
104.93,2.1317e-05,0
104.93,3.4745e-05,0
104.93,3.8437e-05,0
104.93,3.8102e-05,0
104.93,4.1459e-05,0
104.93,5.153e-05,0
104.93,6.1601e-05,0
104.93,6.4958e-05,0
104.93,6.3951e-05,0
104.93,6.4286e-05,0
104.93,6.4286e-05,0
104.93,5.8076e-05,0
104.93,4.683e-05,0
104.93,3.5752e-05,0
104.93,2.4506e-05,0
104.93,1.9638e-05,0
104.93,2.1653e-05,0
104.94,2.0478e-05,0
104.94,9.9031e-06,0
104.94,-2.182e-06,0
104.94,-4.8676e-06,0
104.94,5.7069e-06,0
104.94,2.3331e-05,0
104.94,4.3809e-05,0
104.94,6.3951e-05,0
104.94,7.8386e-05,0
104.94,8.4092e-05,0
104.94,8.4932e-05,0
104.94,7.9057e-05,0
104.94,6.1936e-05,0
104.94,3.8773e-05,0
104.94,2.5681e-05,0
104.94,2.0645e-05,0
104.94,1.8296e-05,0
104.94,2.9709e-05,0
104.94,5.5558e-05,0
104.94,7.7546e-05,0
104.95,7.7379e-05,0
104.95,5.4215e-05,0
104.95,2.031e-05,0
104.95,-1.4435e-05,0
104.95,-3.9445e-05,0
104.95,-5.5894e-05,0
104.95,-6.7979e-05,0
104.95,-7.57e-05,0
104.95,-8.1743e-05,0
104.95,-9.2988e-05,0
104.95,-0.00010591,0
104.95,-0.00010961,0
104.95,-0.00010021,0
104.95,-8.2246e-05,0
104.95,-6.1601e-05,0
104.95,-3.6423e-05,0
104.95,-1.0239e-05,0
104.95,1.2924e-05,0
104.95,3.0716e-05,0
104.96,4.0452e-05,0
104.96,4.2802e-05,0
104.96,4.3977e-05,0
104.96,4.448e-05,0
104.96,4.3137e-05,0
104.96,3.978e-05,0
104.96,3.4409e-05,0
104.96,2.3331e-05,0
104.96,1.1078e-05,0
104.96,7.8889e-06,0
104.96,1.2589e-05,0
104.96,2.1317e-05,0
104.96,3.3402e-05,0
104.96,4.5487e-05,0
104.96,5.5222e-05,0
104.96,6.0594e-05,0
104.96,6.2608e-05,0
104.96,6.4118e-05,0
104.96,6.3279e-05,0
104.97,5.9251e-05,0
104.97,5.4383e-05,0
104.97,4.8173e-05,0
104.97,4.1794e-05,0
104.97,3.4073e-05,0
104.97,3.0213e-05,0
104.97,4.2802e-05,0
104.97,6.5293e-05,0
104.97,8.0903e-05,0
104.97,7.9057e-05,0
104.97,6.2272e-05,0
104.97,4.683e-05,0
104.97,4.3473e-05,0
104.97,6.6636e-05,0
104.97,0.00011128,0
104.97,0.00014519,0
104.97,0.00015425,0
104.97,0.0001472,0
104.97,0.00012505,0
104.97,8.9799e-05,0
104.98,4.6662e-05,0
104.98,-2.3499e-06,0
104.98,-5.7237e-05,0
104.98,-9.8192e-05,0
104.98,-0.00010658,0
104.98,-9.9199e-05,0
104.98,-0.00010272,0
104.98,-0.00013109,0
104.98,-0.00016265,0
104.98,-0.00017104,0
104.98,-0.0001556,0
104.98,-0.00012924,0
104.98,-0.00010222,0
104.98,-7.6371e-05,0
104.98,-5.3208e-05,0
104.98,-3.4409e-05,0
104.98,-1.6785e-05,0
104.98,-7.3854e-06,0
104.98,-3.0213e-06,0
104.99,2.3499e-06,0
104.99,8.896e-06,0
104.99,1.3931e-05,0
104.99,1.5946e-05,0
104.99,2.266e-05,0
104.99,4.213e-05,0
104.99,7.2007e-05,0
104.99,0.00010423,0
104.99,0.00013042,0
104.99,0.00015459,0
104.99,0.00017238,0
104.99,0.00016802,0
104.99,0.00013881,0
104.99,9.836e-05,0
104.99,6.8315e-05,0
104.99,5.6062e-05,0
104.99,5.3544e-05,0
104.99,5.0523e-05,0
104.99,4.1291e-05,0
105,2.6017e-05,0
105,9.9031e-06,0
105,4.5319e-06,0
105,1.1917e-05,0
105,2.3499e-05,0
105,4.5487e-05,0
105,7.7714e-05,0
105,9.752e-05,0
105,9.0135e-05,0
105,5.7908e-05,0
105,2.3331e-05,0
105,4.5319e-06,0
105,-7.0497e-06,0
105,-3.1052e-05,0
105,-6.5965e-05,0
105,-0.00010172,0
105,-0.00013378,0
105,-0.00015996,0
105,-0.00017003,0
105.01,-0.00015425,0
105.01,-0.00011229,0
105.01,-6.2608e-05,0
105.01,-2.2828e-05,0
105.01,-8.3925e-07,0
105.01,7.8889e-06,0
105.01,1.8463e-05,0
105.01,3.6423e-05,0
105.01,5.388e-05,0
105.01,6.1265e-05,0
105.01,5.4047e-05,0
105.01,3.7598e-05,0
105.01,2.0478e-05,0
105.01,6.3783e-06,0
105.01,1.6785e-07,0
105.01,8.896e-06,0
105.01,3.6423e-05,0
105.01,7.0329e-05,0
105.01,9.0303e-05,0
105.01,9.366e-05,0
105.02,8.6946e-05,0
105.02,7.4022e-05,0
105.02,5.7237e-05,0
105.02,4.062e-05,0
105.02,3.0045e-05,0
105.02,2.887e-05,0
105.02,3.5416e-05,0
105.02,4.1794e-05,0
105.02,4.1962e-05,0
105.02,4.1123e-05,0
105.02,4.8173e-05,0
105.02,6.6133e-05,0
105.02,9.9702e-05,0
105.02,0.00014838,0
105.02,0.00019319,0
105.02,0.00020931,0
105.02,0.00018766,0
105.02,0.0001321,0
105.02,6.0258e-05,0
105.03,-6.2104e-06,0
105.03,-5.5222e-05,0
105.03,-8.5771e-05,0
105.03,-9.8024e-05,0
105.03,-9.9535e-05,0
105.03,-9.4835e-05,0
105.03,-7.8889e-05,0
105.03,-5.0523e-05,0
105.03,-1.6617e-05,0
105.03,1.8296e-05,0
105.03,4.3305e-05,0
105.03,5.388e-05,0
105.03,5.4887e-05,0
105.03,5.4551e-05,0
105.03,5.0858e-05,0
105.03,4.3977e-05,0
105.03,3.592e-05,0
105.03,2.8031e-05,0
105.03,2.0645e-05,0
105.04,9.9031e-06,0
105.04,-6.714e-06,0
105.04,-1.8967e-05,0
105.04,-1.9303e-05,0
105.04,-1.5106e-05,0
105.04,-1.0575e-05,0
105.04,-6.0426e-06,0
105.04,-8.3925e-07,0
105.04,5.7069e-06,0
105.04,1.3092e-05,0
105.04,1.8631e-05,0
105.04,2.6352e-05,0
105.04,4.1123e-05,0
105.04,5.2201e-05,0
105.04,4.8508e-05,0
105.04,3.5752e-05,0
105.04,2.3667e-05,0
105.04,1.326e-05,0
105.04,1.6785e-06,0
105.05,-9.5674e-06,0
105.05,-1.8463e-05,0
105.05,-2.2492e-05,0
105.05,-1.8799e-05,0
105.05,-5.8747e-06,0
105.05,7.8889e-06,0
105.05,1.8296e-05,0
105.05,2.652e-05,0
105.05,3.2059e-05,0
105.05,3.9445e-05,0
105.05,4.7333e-05,0
105.05,5.5055e-05,0
105.05,6.1936e-05,0
105.05,6.6972e-05,0
105.05,6.4286e-05,0
105.05,4.9012e-05,0
105.05,2.8031e-05,0
105.05,1.7792e-05,0
105.05,2.8031e-05,0
105.05,5.0187e-05,0
105.06,6.8147e-05,0
105.06,7.0497e-05,0
105.06,5.623e-05,0
105.06,3.1891e-05,0
105.06,4.8676e-06,0
105.06,-4.5319e-06,0
105.06,1.8463e-05,0
105.06,5.2873e-05,0
105.06,6.8818e-05,0
105.06,6.5965e-05,0
105.06,6.3111e-05,0
105.06,5.0187e-05,0
105.06,1.9974e-05,0
105.06,-8.896e-06,0
105.06,-2.5681e-05,0
105.06,-4.3137e-05,0
105.06,-7.3854e-05,0
105.06,-0.00010524,0
105.06,-0.00012152,0
105.07,-0.0001237,0
105.07,-0.00011598,0
105.07,-9.7856e-05,0
105.07,-7.335e-05,0
105.07,-5.0187e-05,0
105.07,-2.3163e-05,0
105.07,1.4603e-05,0
105.07,5.4383e-05,0
105.07,8.8457e-05,0
105.07,0.00011934,0
105.07,0.00014687,0
105.07,0.0001603,0
105.07,0.00015291,0
105.07,0.00012992,0
105.07,0.00010054,0
105.07,8.3421e-05,0
105.07,9.3492e-05,0
105.07,0.00010759,0
105.07,8.8792e-05,0
105.08,3.508e-05,0
105.08,-2.7527e-05,0
105.08,-7.2511e-05,0
105.08,-9.6849e-05,0
105.08,-0.00011632,0
105.08,-0.00013378,0
105.08,-0.00013982,0
105.08,-0.00013814,0
105.08,-0.00013579,0
105.08,-0.00012337,0
105.08,-9.601e-05,0
105.08,-5.9083e-05,0
105.08,-1.6449e-05,0
105.08,2.2828e-05,0
105.08,4.3473e-05,0
105.08,4.4144e-05,0
105.08,4.1291e-05,0
105.08,4.5151e-05,0
105.08,4.8005e-05,0
105.08,4.1459e-05,0
105.09,2.9206e-05,0
105.09,2.2995e-05,0
105.09,2.8031e-05,0
105.09,3.5248e-05,0
105.09,4.1123e-05,0
105.09,5.0187e-05,0
105.09,6.0761e-05,0
105.09,6.5797e-05,0
105.09,6.4118e-05,0
105.09,6.1936e-05,0
105.09,5.9419e-05,0
105.09,5.2369e-05,0
105.09,4.062e-05,0
105.09,2.7695e-05,0
105.09,2.3163e-05,0
105.09,2.8702e-05,0
105.09,3.508e-05,0
105.09,4.0116e-05,0
105.09,4.9851e-05,0
105.1,6.0258e-05,0
105.1,6.8147e-05,0
105.1,7.2343e-05,0
105.1,7.1336e-05,0
105.1,6.4286e-05,0
105.1,5.3544e-05,0
105.1,3.9445e-05,0
105.1,2.6184e-05,0
105.1,1.9638e-05,0
105.1,2.0645e-05,0
105.1,2.6017e-05,0
105.1,3.5248e-05,0
105.1,4.3977e-05,0
105.1,4.683e-05,0
105.1,4.5319e-05,0
105.1,4.4144e-05,0
105.1,4.6494e-05,0
105.1,5.0187e-05,0
105.1,4.918e-05,0
105.11,4.0116e-05,0
105.11,2.5681e-05,0
105.11,1.2253e-05,0
105.11,5.8747e-06,0
105.11,5.2033e-06,0
105.11,1.2589e-05,0
105.11,2.4674e-05,0
105.11,3.5752e-05,0
105.11,4.3473e-05,0
105.11,5.2705e-05,0
105.11,7.1839e-05,0
105.11,0.00010155,0
105.11,0.00012773,0
105.11,0.00012992,0
105.11,0.00010457,0
105.11,6.6636e-05,0
105.11,2.6688e-05,0
105.11,-1.1414e-05,0
105.11,-4.0284e-05,0
105.12,-5.5222e-05,0
105.12,-5.6733e-05,0
105.12,-5.0858e-05,0
105.12,-4.2466e-05,0
105.12,-3.4913e-05,0
105.12,-2.182e-05,0
105.12,0,0
105.12,2.4842e-05,0
105.12,4.5487e-05,0
105.12,6.1601e-05,0
105.12,7.0329e-05,0
105.12,6.0929e-05,0
105.12,3.2059e-05,0
105.12,3.357e-06,0
105.12,-1.0239e-05,0
105.12,-1.8631e-05,0
105.12,-3.3738e-05,0
105.12,-4.9516e-05,0
105.12,-5.4215e-05,0
105.12,-4.8173e-05,0
105.13,-3.9109e-05,0
105.13,-3.8102e-05,0
105.13,-5.1865e-05,0
105.13,-7.335e-05,0
105.13,-8.6946e-05,0
105.13,-8.5435e-05,0
105.13,-7.4693e-05,0
105.13,-6.0594e-05,0
105.13,-4.1794e-05,0
105.13,-1.2589e-05,0
105.13,4.3473e-05,0
105.13,0.00011917,0
105.13,0.00017641,0
105.13,0.00019588,0
105.13,0.00018782,0
105.13,0.00016667,0
105.13,0.00014788,0
105.13,0.00013545,0
105.13,0.00012975,0
105.14,0.00013059,0
105.14,0.00011632,0
105.14,6.6972e-05,0
105.14,-1.1078e-05,0
105.14,-9.5003e-05,0
105.14,-0.00016197,0
105.14,-0.00019722,0
105.14,-0.00020595,0
105.14,-0.00020024,0
105.14,-0.00018296,0
105.14,-0.00015425,0
105.14,-0.00012203,0
105.14,-8.8289e-05,0
105.14,-5.6397e-05,0
105.14,-2.9877e-05,0
105.14,-1.2253e-05,0
105.14,4.8676e-06,0
105.14,2.8702e-05,0
105.14,5.9922e-05,0
105.15,9.3492e-05,0
105.15,0.00011582,0
105.15,0.00012068,0
105.15,0.00012068,0
105.15,0.0001227,0
105.15,0.00011598,0
105.15,8.9632e-05,0
105.15,5.3208e-05,0
105.15,2.1653e-05,0
105.15,-3.6927e-06,0
105.15,-2.1149e-05,0
105.15,-2.7192e-05,0
105.15,-2.4506e-05,0
105.15,-2.1653e-05,0
105.15,-2.0142e-05,0
105.15,-1.6449e-05,0
105.15,-1.0071e-05,0
105.15,2.5177e-06,0
105.15,1.8631e-05,0
105.16,3.5248e-05,0
105.16,4.918e-05,0
105.16,5.4551e-05,0
105.16,5.3544e-05,0
105.16,5.2705e-05,0
105.16,5.6565e-05,0
105.16,6.2608e-05,0
105.16,6.8986e-05,0
105.16,8.0232e-05,0
105.16,9.752e-05,0
105.16,0.00010658,0
105.16,0.00010323,0
105.16,9.7185e-05,0
105.16,9.366e-05,0
105.16,9.0135e-05,0
105.16,8.275e-05,0
105.16,6.4958e-05,0
105.16,4.1123e-05,0
105.16,2.6017e-05,0
105.17,2.4674e-05,0
105.17,2.0478e-05,0
105.17,1.8463e-06,0
105.17,-2.501e-05,0
105.17,-4.448e-05,0
105.17,-4.918e-05,0
105.17,-4.918e-05,0
105.17,-4.6159e-05,0
105.17,-3.6759e-05,0
105.17,-2.1317e-05,0
105.17,5.7069e-06,0
105.17,4.0116e-05,0
105.17,6.7979e-05,0
105.17,7.9393e-05,0
105.17,7.4357e-05,0
105.17,6.4286e-05,0
105.17,5.3544e-05,0
105.17,4.5487e-05,0
105.17,4.2802e-05,0
105.17,4.4816e-05,0
105.18,4.3473e-05,0
105.18,3.9109e-05,0
105.18,3.6423e-05,0
105.18,3.6759e-05,0
105.18,3.2059e-05,0
105.18,2.0981e-05,0
105.18,1.1582e-05,0
105.18,2.3499e-06,0
105.18,-1.4435e-05,0
105.18,-3.8437e-05,0
105.18,-6.3447e-05,0
105.18,-8.51e-05,0
105.18,-0.00010172,0
105.18,-0.00010021,0
105.18,-7.8386e-05,0
105.18,-5.623e-05,0
105.18,-4.4648e-05,0
105.18,-2.9038e-05,0
105.18,1.5106e-06,0
105.19,3.5752e-05,0
105.19,5.9586e-05,0
105.19,6.7643e-05,0
105.19,6.865e-05,0
105.19,7.4693e-05,0
105.19,8.5771e-05,0
105.19,9.1142e-05,0
105.19,8.5267e-05,0
105.19,8.0568e-05,0
105.19,8.3085e-05,0
105.19,8.7953e-05,0
105.19,8.3925e-05,0
105.19,5.2201e-05,0
105.19,2.5177e-06,0
105.19,-3.2059e-05,0
105.19,-4.5991e-05,0
105.19,-5.388e-05,0
105.19,-6.0426e-05,0
105.19,-5.3208e-05,0
105.2,-3.0213e-05,0
105.2,-9.5674e-06,0
105.2,3.357e-07,0
105.2,3.5248e-06,0
105.2,-8.3925e-07,0
105.2,-1.2253e-05,0
105.2,-2.5345e-05,0
105.2,-3.5248e-05,0
105.2,-4.0452e-05,0
105.2,-4.1794e-05,0
105.2,-3.3066e-05,0
105.2,-8.3925e-06,0
105.2,2.266e-05,0
105.2,4.9516e-05,0
105.2,7.1504e-05,0
105.2,8.5267e-05,0
105.2,9.0974e-05,0
105.2,9.0639e-05,0
105.2,8.7114e-05,0
105.2,7.805e-05,0
105.21,6.5965e-05,0
105.21,5.7237e-05,0
105.21,5.0187e-05,0
105.21,4.683e-05,0
105.21,4.7669e-05,0
105.21,4.4648e-05,0
105.21,3.6255e-05,0
105.21,2.8534e-05,0
105.21,2.4674e-05,0
105.21,3.2898e-05,0
105.21,5.5558e-05,0
105.21,8.3757e-05,0
105.21,0.00010524,0
105.21,0.00010457,0
105.21,8.4764e-05,0
105.21,6.0426e-05,0
105.21,4.3473e-05,0
105.21,3.9277e-05,0
105.21,5.2201e-05,0
105.22,7.2175e-05,0
105.22,8.2078e-05,0
105.22,8.2078e-05,0
105.22,8.1071e-05,0
105.22,8.2246e-05,0
105.22,7.1e-05,0
105.22,3.4241e-05,0
105.22,-1.1582e-05,0
105.22,-4.3137e-05,0
105.22,-5.6062e-05,0
105.22,-5.8412e-05,0
105.22,-6.9657e-05,0
105.22,-0.00010004,0
105.22,-0.00013059,0
105.22,-0.00013277,0
105.22,-0.00011296,0
105.22,-9.3156e-05,0
105.22,-8.3589e-05,0
105.22,-7.9561e-05,0
105.23,-7.1672e-05,0
105.23,-5.5894e-05,0
105.23,-2.9709e-05,0
105.23,1.8463e-06,0
105.23,2.182e-05,0
105.23,3.4241e-05,0
105.23,4.8844e-05,0
105.23,5.7908e-05,0
105.23,5.3544e-05,0
105.23,4.6159e-05,0
105.23,5.0858e-05,0
105.23,6.3783e-05,0
105.23,6.8315e-05,0
105.23,6.5965e-05,0
105.23,8.0903e-05,0
105.23,0.00011263,0
105.23,0.00012454,0
105.23,9.7856e-05,0
105.23,5.9251e-05,0
105.24,3.2059e-05,0
105.24,6.5461e-06,0
105.24,-3.122e-05,0
105.24,-7.335e-05,0
105.24,-0.00010927,0
105.24,-0.00010893,0
105.24,-4.4984e-05,0
105.24,5.0523e-05,0
105.24,0.00012018,0
105.24,0.00014284,0
105.24,0.00012992,0
105.24,0.00011733,0
105.24,0.00012186,0
105.24,0.00012337,0
105.24,0.00010658,0
105.24,7.57e-05,0
105.24,4.6662e-05,0
105.24,3.1556e-05,0
105.24,2.9038e-05,0
105.25,1.9638e-05,0
105.25,-7.8889e-06,0
105.25,-3.3402e-05,0
105.25,-4.4648e-05,0
105.25,-4.9516e-05,0
105.25,-5.7908e-05,0
105.25,-7.9728e-05,0
105.25,-0.00010944,0
105.25,-0.00012438,0
105.25,-0.00010961,0
105.25,-7.805e-05,0
105.25,-6.0929e-05,0
105.25,-6.8147e-05,0
105.25,-8.3253e-05,0
105.25,-9.4163e-05,0
105.25,-9.7353e-05,0
105.25,-8.7617e-05,0
105.25,-6.4286e-05,0
105.25,-3.6759e-05,0
105.25,-1.5946e-05,0
105.26,6.0426e-06,0
105.26,4.1794e-05,0
105.26,8.426e-05,0
105.26,0.00011934,0
105.26,0.00014385,0
105.26,0.00016701,0
105.26,0.00018111,0
105.26,0.00017406,0
105.26,0.0001519,0
105.26,0.00012941,0
105.26,0.0001133,0
105.26,0.00010256,0
105.26,9.1142e-05,0
105.26,7.2007e-05,0
105.26,3.6423e-05,0
105.26,-1.091e-05,0
105.26,-5.2201e-05,0
105.26,-7.4861e-05,0
105.26,-8.1407e-05,0
105.27,-7.7379e-05,0
105.27,-6.5965e-05,0
105.27,-4.6326e-05,0
105.27,-2.182e-05,0
105.27,3.5248e-06,0
105.27,2.4674e-05,0
105.27,3.5584e-05,0
105.27,3.6759e-05,0
105.27,3.2731e-05,0
105.27,3.4073e-05,0
105.27,4.2634e-05,0
105.27,5.1865e-05,0
105.27,5.8244e-05,0
105.27,6.0258e-05,0
105.27,6.2104e-05,0
105.27,6.9657e-05,0
105.27,7.9057e-05,0
105.27,8.2918e-05,0
105.27,7.8889e-05,0
105.28,6.7475e-05,0
105.28,5.6565e-05,0
105.28,5.0187e-05,0
105.28,4.5487e-05,0
105.28,4.0116e-05,0
105.28,3.2395e-05,0
105.28,2.7359e-05,0
105.28,2.8031e-05,0
105.28,3.6927e-05,0
105.28,5.8244e-05,0
105.28,8.51e-05,0
105.28,0.00010222,0
105.28,0.00010877,0
105.28,0.00010726,0
105.28,9.2988e-05,0
105.28,6.7811e-05,0
105.28,3.5416e-05,0
105.28,-2.182e-06,0
105.28,-3.9109e-05,0
105.28,-7.1672e-05,0
105.29,-9.4331e-05,0
105.29,-0.00010004,0
105.29,-9.5003e-05,0
105.29,-8.9632e-05,0
105.29,-8.1743e-05,0
105.29,-6.3279e-05,0
105.29,-4.0955e-05,0
105.29,-2.3667e-05,0
105.29,-1.326e-05,0
105.29,-3.8605e-06,0
105.29,8.2246e-06,0
105.29,2.2156e-05,0
105.29,3.592e-05,0
105.29,4.7501e-05,0
105.29,5.4887e-05,0
105.29,5.7908e-05,0
105.29,6.0929e-05,0
105.29,6.8818e-05,0
105.29,7.7379e-05,0
105.3,8.2246e-05,0
105.3,8.04e-05,0
105.3,7.4357e-05,0
105.3,6.479e-05,0
105.3,5.0187e-05,0
105.3,2.7695e-05,0
105.3,-4.1962e-06,0
105.3,-3.3402e-05,0
105.3,-4.3305e-05,0
105.3,-2.5681e-05,0
105.3,3.1891e-06,0
105.3,2.5681e-05,0
105.3,6.1265e-05,0
105.3,0.00012605,0
105.3,0.00018245,0
105.3,0.00019017,0
105.3,0.00015123,0
105.3,9.2149e-05,0
105.3,3.0549e-05,0
105.31,-2.4002e-05,0
105.31,-6.6636e-05,0
105.31,-9.5338e-05,0
105.31,-0.00010675,0
105.31,-0.00011162,0
105.31,-0.00012387,0
105.31,-0.00013378,0
105.31,-0.00012505,0
105.31,-8.9128e-05,0
105.31,-3.3738e-05,0
105.31,1.4603e-05,0
105.31,4.2466e-05,0
105.31,5.0858e-05,0
105.31,4.448e-05,0
105.31,3.2731e-05,0
105.31,1.8631e-05,0
105.31,4.3641e-06,0
105.31,-7.8889e-06,0
105.31,-1.1749e-05,0
105.32,-3.5248e-06,0
105.32,7.5532e-06,0
105.32,1.2589e-05,0
105.32,1.1414e-05,0
105.32,1.7288e-05,0
105.32,2.6352e-05,0
105.32,1.796e-05,0
105.32,-3.5248e-06,0
105.32,-1.4939e-05,0
105.32,-1.1917e-05,0
105.32,-5.3712e-06,0
105.32,1.8463e-06,0
105.32,1.6114e-05,0
105.32,2.7695e-05,0
105.32,3.4241e-05,0
105.32,4.4816e-05,0
105.32,5.6062e-05,0
105.32,5.153e-05,0
105.32,3.6759e-05,0
105.32,4.0116e-05,0
105.33,6.5629e-05,0
105.33,8.8121e-05,0
105.33,8.4764e-05,0
105.33,5.4047e-05,0
105.33,1.326e-05,0
105.33,-1.796e-05,0
105.33,-3.3906e-05,0
105.33,-4.448e-05,0
105.33,-5.069e-05,0
105.33,-4.9348e-05,0
105.33,-3.978e-05,0
105.33,-2.9206e-05,0
105.33,-2.5345e-05,0
105.33,-2.182e-05,0
105.33,-2.0142e-06,0
105.33,3.4073e-05,0
105.33,5.9419e-05,0
105.33,6.5629e-05,0
105.33,7.5532e-05,0
105.34,0.0001039,0
105.34,0.00012807,0
105.34,0.00012824,0
105.34,0.00011615,0
105.34,0.00010222,0
105.34,8.1071e-05,0
105.34,5.304e-05,0
105.34,3.0045e-05,0
105.34,1.3596e-05,0
105.34,-5.539e-06,0
105.34,-2.5513e-05,0
105.34,-3.0381e-05,0
105.34,-2.3499e-05,0
105.34,-1.5442e-05,0
105.34,-2.8534e-06,0
105.34,1.7456e-05,0
105.34,4.7501e-05,0
105.34,9.7185e-05,0
105.34,0.00015023,0
105.35,0.00017339,0
105.35,0.00016013,0
105.35,0.0001227,0
105.35,7.1e-05,0
105.35,1.6281e-05,0
105.35,-3.1052e-05,0
105.35,-6.3615e-05,0
105.35,-7.6371e-05,0
105.35,-7.4693e-05,0
105.35,-6.9154e-05,0
105.35,-6.8818e-05,0
105.35,-7.4693e-05,0
105.35,-8.6107e-05,0
105.35,-9.4499e-05,0
105.35,-8.6107e-05,0
105.35,-5.9251e-05,0
105.35,-3.3402e-05,0
105.35,-2.0478e-05,0
105.35,-1.7121e-05,0
105.36,-1.796e-05,0
105.36,-1.091e-05,0
105.36,6.5461e-06,0
105.36,2.6688e-05,0
105.36,4.683e-05,0
105.36,6.3783e-05,0
105.36,7.3686e-05,0
105.36,7.2679e-05,0
105.36,5.9251e-05,0
105.36,3.978e-05,0
105.36,3.5584e-05,0
105.36,5.0523e-05,0
105.36,6.7811e-05,0
105.36,7.8218e-05,0
105.36,7.3854e-05,0
105.36,5.4383e-05,0
105.36,3.1724e-05,0
105.36,1.2589e-05,0
105.36,-8.3925e-07,0
105.36,-9.2317e-06,0
105.37,-9.7353e-06,0
105.37,-5.0355e-07,0
105.37,1.8631e-05,0
105.37,3.7934e-05,0
105.37,4.2802e-05,0
105.37,4.3473e-05,0
105.37,5.4887e-05,0
105.37,7.1336e-05,0
105.37,8.2414e-05,0
105.37,9.1646e-05,0
105.37,9.1814e-05,0
105.37,7.4693e-05,0
105.37,4.6998e-05,0
105.37,1.7121e-05,0
105.37,-8.2246e-06,0
105.37,-2.4002e-05,0
105.37,-2.9374e-05,0
105.37,-3.3738e-05,0
105.37,-4.3977e-05,0
105.38,-5.388e-05,0
105.38,-4.8508e-05,0
105.38,-2.8199e-05,0
105.38,-8.2246e-06,0
105.38,5.2033e-06,0
105.38,1.5274e-05,0
105.38,2.6688e-05,0
105.38,3.8437e-05,0
105.38,5.2201e-05,0
105.38,7.7714e-05,0
105.38,0.00010625,0
105.38,0.00011716,0
105.38,0.00010826,0
105.38,9.3828e-05,0
105.38,9.2485e-05,0
105.38,0.00010037,0
105.38,0.00010155,0
105.38,8.2918e-05,0
105.38,4.6159e-05,0
105.39,7.8889e-06,0
105.39,-1.7792e-05,0
105.39,-3.3402e-05,0
105.39,-5.1194e-05,0
105.39,-6.3951e-05,0
105.39,-5.774e-05,0
105.39,-3.3066e-05,0
105.39,5.7069e-06,0
105.39,3.6927e-05,0
105.39,4.2802e-05,0
105.39,4.7333e-05,0
105.39,6.3615e-05,0
105.39,7.8386e-05,0
105.39,7.2007e-05,0
105.39,3.9445e-05,0
105.39,-7.0497e-06,0
105.39,-5.2201e-05,0
105.39,-8.7114e-05,0
105.39,-0.00011447,0
105.39,-0.00013042,0
105.4,-0.0001237,0
105.4,-9.4835e-05,0
105.4,-5.3712e-05,0
105.4,-6.5461e-06,0
105.4,4.1459e-05,0
105.4,8.2246e-05,0
105.4,0.00011095,0
105.4,0.0001227,0
105.4,0.0001086,0
105.4,7.6875e-05,0
105.4,3.743e-05,0
105.4,-1.6785e-06,0
105.4,-3.0716e-05,0
105.4,-3.9445e-05,0
105.4,-2.7359e-05,0
105.4,-9.5674e-06,0
105.4,-6.8818e-06,0
105.4,-2.4674e-05,0
105.4,-4.3977e-05,0
105.41,-4.6494e-05,0
105.41,-3.8605e-05,0
105.41,-4.448e-05,0
105.41,-6.3951e-05,0
105.41,-6.8986e-05,0
105.41,-3.9612e-05,0
105.41,7.5532e-06,0
105.41,4.1291e-05,0
105.41,5.388e-05,0
105.41,5.4215e-05,0
105.41,5.153e-05,0
105.41,5.1362e-05,0
105.41,5.3544e-05,0
105.41,5.7908e-05,0
105.41,6.1265e-05,0
105.41,6.0594e-05,0
105.41,5.5558e-05,0
105.41,3.8102e-05,0
105.41,1.4939e-05,0
105.42,5.8747e-06,0
105.42,1.4603e-05,0
105.42,2.6688e-05,0
105.42,3.2563e-05,0
105.42,2.887e-05,0
105.42,1.5946e-05,0
105.42,1.6617e-05,0
105.42,4.4984e-05,0
105.42,7.7546e-05,0
105.42,9.7856e-05,0
105.42,0.00010658,0
105.42,0.00010188,0
105.42,8.9799e-05,0
105.42,8.4764e-05,0
105.42,8.1407e-05,0
105.42,6.3615e-05,0
105.42,3.6927e-05,0
105.42,1.0575e-05,0
105.42,-1.1246e-05,0
105.43,-2.6017e-05,0
105.43,-3.6759e-05,0
105.43,-4.5487e-05,0
105.43,-5.0858e-05,0
105.43,-5.4215e-05,0
105.43,-5.3544e-05,0
105.43,-4.1459e-05,0
105.43,-2.1653e-05,0
105.43,-8.2246e-06,0
105.43,6.5461e-06,0
105.43,4.1459e-05,0
105.43,8.6442e-05,0
105.43,0.00011464,0
105.43,0.00011615,0
105.43,9.752e-05,0
105.43,7.6204e-05,0
105.43,6.2608e-05,0
105.43,5.8244e-05,0
105.43,6.63e-05,0
105.44,7.6036e-05,0
105.44,7.2343e-05,0
105.44,5.5222e-05,0
105.44,3.8102e-05,0
105.44,2.6352e-05,0
105.44,1.3092e-05,0
105.44,-5.0355e-06,0
105.44,-2.182e-05,0
105.44,-3.122e-05,0
105.44,-3.0381e-05,0
105.44,-1.5778e-05,0
105.44,2.8534e-06,0
105.44,1.7792e-05,0
105.44,2.652e-05,0
105.44,2.7192e-05,0
105.44,2.0981e-05,0
105.44,1.3931e-05,0
105.44,1.2589e-05,0
105.44,1.5274e-05,0
105.44,1.6617e-05,0
105.45,1.4939e-05,0
105.45,2.1988e-05,0
105.45,4.5151e-05,0
105.45,6.5965e-05,0
105.45,7.4693e-05,0
105.45,8.0903e-05,0
105.45,9.9199e-05,0
105.45,0.00011733,0
105.45,0.0001133,0
105.45,8.5603e-05,0
105.45,4.5823e-05,0
105.45,5.8747e-06,0
105.45,-3.3738e-05,0
105.45,-6.9993e-05,0
105.45,-9.6681e-05,0
105.45,-0.00011044,0
105.45,-0.00011682,0
105.45,-0.00011867,0
105.45,-0.00011397,0
105.46,-9.9031e-05,0
105.46,-7.0665e-05,0
105.46,-3.1724e-05,0
105.46,6.2104e-06,0
105.46,2.8031e-05,0
105.46,3.6088e-05,0
105.46,5.0858e-05,0
105.46,8.0064e-05,0
105.46,0.00011531,0
105.46,0.00014485,0
105.46,0.00016365,0
105.46,0.00016365,0
105.46,0.0001326,0
105.46,8.1743e-05,0
105.46,2.6017e-05,0
105.46,-2.7359e-05,0
105.46,-7.4022e-05,0
105.46,-0.00010776,0
105.46,-0.0001227,0
105.47,-0.00012102,0
105.47,-0.00011699,0
105.47,-0.00012874,0
105.47,-0.00014318,0
105.47,-0.00013025,0
105.47,-9.0639e-05,0
105.47,-5.2537e-05,0
105.47,-2.8534e-05,0
105.47,-1.091e-05,0
105.47,8.896e-06,0
105.47,3.0045e-05,0
105.47,4.7669e-05,0
105.47,6.3615e-05,0
105.47,8.275e-05,0
105.47,0.00010793,0
105.47,0.0001331,0
105.47,0.00014821,0
105.47,0.00014653,0
105.47,0.00012622,0
105.47,9.836e-05,0
105.48,7.7043e-05,0
105.48,6.9657e-05,0
105.48,8.1743e-05,0
105.48,0.00010625,0
105.48,0.00012454,0
105.48,0.00012454,0
105.48,0.0001091,0
105.48,7.805e-05,0
105.48,3.743e-05,0
105.48,1.0575e-05,0
105.48,9.5674e-06,0
105.48,1.9974e-05,0
105.48,2.266e-05,0
105.48,1.9974e-05,0
105.48,1.5442e-05,0
105.48,4.5319e-06,0
105.48,-1.3428e-05,0
105.48,-2.031e-05,0
105.48,-2.182e-06,0
105.49,2.7359e-05,0
105.49,4.1291e-05,0
105.49,2.501e-05,0
105.49,-1.6617e-05,0
105.49,-5.6733e-05,0
105.49,-8.04e-05,0
105.49,-9.4163e-05,0
105.49,-0.00010373,0
105.49,-0.00010558,0
105.49,-9.7856e-05,0
105.49,-8.8289e-05,0
105.49,-7.3014e-05,0
105.49,-4.5487e-05,0
105.49,-2.0478e-05,0
105.49,-1.0407e-05,0
105.49,-1.2924e-05,0
105.49,-1.6617e-05,0
105.49,-1.6785e-05,0
105.49,-1.5274e-05,0
105.5,-1.3596e-05,0
105.5,-1.2924e-05,0
105.5,-9.0639e-06,0
105.5,0,0
105.5,1.2589e-05,0
105.5,2.7863e-05,0
105.5,4.3809e-05,0
105.5,5.7237e-05,0
105.5,6.6972e-05,0
105.5,7.3014e-05,0
105.5,8.5771e-05,0
105.5,0.00011397,0
105.5,0.00014284,0
105.5,0.00015543,0
105.5,0.00015023,0
105.5,0.0001321,0
105.5,0.00010457,0
105.5,7.9057e-05,0
105.5,6.4286e-05,0
105.51,5.5558e-05,0
105.51,4.3137e-05,0
105.51,2.4674e-05,0
105.51,1.1749e-05,0
105.51,9.5674e-06,0
105.51,7.3854e-06,0
105.51,0,0
105.51,-5.2033e-06,0
105.51,-6.2104e-06,0
105.51,-5.8747e-06,0
105.51,-1.4267e-05,0
105.51,-3.4073e-05,0
105.51,-5.069e-05,0
105.51,-4.7837e-05,0
105.51,-2.9709e-05,0
105.51,-1.0239e-05,0
105.51,8.2246e-06,0
105.51,4.2802e-05,0
105.51,9.9702e-05,0
105.52,0.00015224,0
105.52,0.00018111,0
105.52,0.00018782,0
105.52,0.00017607,0
105.52,0.00014922,0
105.52,0.0001133,0
105.52,7.4189e-05,0
105.52,3.6759e-05,0
105.52,-3.5248e-06,0
105.52,-4.5487e-05,0
105.52,-7.8721e-05,0
105.52,-9.3156e-05,0
105.52,-9.8192e-05,0
105.52,-0.00010658,0
105.52,-0.0001133,0
105.52,-0.00010893,0
105.52,-9.2317e-05,0
105.52,-6.7979e-05,0
105.52,-3.7766e-05,0
105.52,-6.3783e-06,0
105.53,1.796e-05,0
105.53,2.5345e-05,0
105.53,8.2246e-06,0
105.53,-2.4506e-05,0
105.53,-4.3473e-05,0
105.53,-3.8102e-05,0
105.53,-2.1988e-05,0
105.53,-6.8818e-06,0
105.53,6.2104e-06,0
105.53,1.8967e-05,0
105.53,3.0549e-05,0
105.53,4.0452e-05,0
105.53,5.4887e-05,0
105.53,7.2007e-05,0
105.53,7.9057e-05,0
105.53,7.7043e-05,0
105.53,7.57e-05,0
105.53,6.9993e-05,0
105.53,5.2873e-05,0
105.54,3.3402e-05,0
105.54,2.7359e-05,0
105.54,3.8773e-05,0
105.54,6.244e-05,0
105.54,8.6778e-05,0
105.54,0.00010172,0
105.54,0.00010323,0
105.54,9.1142e-05,0
105.54,6.865e-05,0
105.54,4.4816e-05,0
105.54,2.7863e-05,0
105.54,2.0645e-05,0
105.54,2.9206e-05,0
105.54,4.3473e-05,0
105.54,5.0187e-05,0
105.54,4.9851e-05,0
105.54,5.4887e-05,0
105.54,6.2272e-05,0
105.54,6.5965e-05,0
105.55,6.6636e-05,0
105.55,6.2104e-05,0
105.55,4.2298e-05,0
105.55,9.9031e-06,0
105.55,-2.5849e-05,0
105.55,-6.2104e-05,0
105.55,-8.9464e-05,0
105.55,-9.2485e-05,0
105.55,-6.479e-05,0
105.55,-2.9038e-05,0
105.55,-8.0568e-06,0
105.55,1.0071e-05,0
105.55,3.0381e-05,0
105.55,3.6927e-05,0
105.55,1.9135e-05,0
105.55,-1.2589e-05,0
105.55,-4.0116e-05,0
105.55,-5.8412e-05,0
105.55,-7.3182e-05,0
105.55,-8.6778e-05,0
105.56,-9.2988e-05,0
105.56,-9.0806e-05,0
105.56,-8.1239e-05,0
105.56,-6.4118e-05,0
105.56,-4.5991e-05,0
105.56,-3.2731e-05,0
105.56,-2.3667e-05,0
105.56,-1.3764e-05,0
105.56,1.6785e-06,0
105.56,2.1988e-05,0
105.56,5.4383e-05,0
105.56,0.00010591,0
105.56,0.00015962,0
105.56,0.00019017,0
105.56,0.00019017,0
105.56,0.00017406,0
105.56,0.0001613,0
105.56,0.00014804,0
105.56,0.00012337,0
105.57,8.51e-05,0
105.57,4.7166e-05,0
105.57,2.9374e-05,0
105.57,3.2898e-05,0
105.57,3.6591e-05,0
105.57,1.4099e-05,0
105.57,-3.3234e-05,0
105.57,-7.9393e-05,0
105.57,-0.00010877,0
105.57,-0.00012001,0
105.57,-0.00010608,0
105.57,-7.7043e-05,0
105.57,-5.0858e-05,0
105.57,-3.6759e-05,0
105.57,-2.6017e-05,0
105.57,-1.326e-05,0
105.57,4.1962e-06,0
105.57,1.9135e-05,0
105.57,2.7192e-05,0
105.58,3.4745e-05,0
105.58,5.539e-05,0
105.58,9.3828e-05,0
105.58,0.00013143,0
105.58,0.00014754,0
105.58,0.00013814,0
105.58,0.00011078,0
105.58,6.6972e-05,0
105.58,1.1414e-05,0
105.58,-4.0452e-05,0
105.58,-7.5029e-05,0
105.58,-8.6778e-05,0
105.58,-7.8386e-05,0
105.58,-6.8986e-05,0
105.58,-7.0832e-05,0
105.58,-7.0161e-05,0
105.58,-5.5558e-05,0
105.58,-2.652e-05,0
105.58,1.9974e-05,0
105.59,7.6707e-05,0
105.59,0.00011565,0
105.59,0.00012052,0
105.59,0.00010054,0
105.59,7.4525e-05,0
105.59,5.3544e-05,0
105.59,4.2634e-05,0
105.59,3.7934e-05,0
105.59,3.7095e-05,0
105.59,4.7501e-05,0
105.59,7.7714e-05,0
105.59,0.00011464,0
105.59,0.00013361,0
105.59,0.00013545,0
105.59,0.00013948,0
105.59,0.00014318,0
105.59,0.00012471,0
105.59,8.3757e-05,0
105.59,4.1627e-05,0
105.59,1.3092e-05,0
105.6,-1.4099e-05,0
105.6,-4.6159e-05,0
105.6,-7.3854e-05,0
105.6,-9.1814e-05,0
105.6,-9.4331e-05,0
105.6,-6.63e-05,0
105.6,-1.1246e-05,0
105.6,3.1724e-05,0
105.6,3.7263e-05,0
105.6,1.1917e-05,0
105.6,-2.9877e-05,0
105.6,-7.6707e-05,0
105.6,-0.00011901,0
105.6,-0.00014502,0
105.6,-0.00014385,0
105.6,-0.0001274,0
105.6,-0.00011615,0
105.6,-0.00010927,0
105.6,-8.8289e-05,0
105.61,-3.7766e-05,0
105.61,3.2059e-05,0
105.61,9.1646e-05,0
105.61,0.00013562,0
105.61,0.00018312,0
105.61,0.00023214,0
105.61,0.00025463,0
105.61,0.00023616,0
105.61,0.0001895,0
105.61,0.00013378,0
105.61,7.5532e-05,0
105.61,1.5106e-05,0
105.61,-4.7501e-05,0
105.61,-0.00010692,0
105.61,-0.00014066,0
105.61,-0.00013713,0
105.61,-0.00010826,0
105.61,-7.4693e-05,0
105.61,-6.0929e-05,0
105.62,-6.8147e-05,0
105.62,-6.8818e-05,0
105.62,-4.4984e-05,0
105.62,-5.2033e-06,0
105.62,3.9948e-05,0
105.62,7.9728e-05,0
105.62,0.00010625,0
105.62,0.00011783,0
105.62,0.00012538,0
105.62,0.00013411,0
105.62,0.00013378,0
105.62,0.00011095,0
105.62,7.7043e-05,0
105.62,5.3544e-05,0
105.62,4.683e-05,0
105.62,4.2466e-05,0
105.62,2.9206e-05,0
105.62,9.9031e-06,0
105.62,-6.5461e-06,0
105.62,-1.9638e-05,0
105.63,-2.9877e-05,0
105.63,-3.7766e-05,0
105.63,-4.5487e-05,0
105.63,-5.7572e-05,0
105.63,-7.0161e-05,0
105.63,-6.6636e-05,0
105.63,-4.2466e-05,0
105.63,-1.3596e-05,0
105.63,7.0497e-06,0
105.63,1.8128e-05,0
105.63,2.7192e-05,0
105.63,4.5991e-05,0
105.63,7.5029e-05,0
105.63,9.3828e-05,0
105.63,8.9799e-05,0
105.63,6.8315e-05,0
105.63,4.1962e-05,0
105.63,2.031e-05,0
105.63,3.1891e-06,0
105.64,-9.0639e-06,0
105.64,-1.1078e-05,0
105.64,-7.7211e-06,0
105.64,-7.3854e-06,0
105.64,-8.5603e-06,0
105.64,-5.539e-06,0
105.64,2.5177e-06,0
105.64,1.1582e-05,0
105.64,1.796e-05,0
105.64,1.6617e-05,0
105.64,1.2421e-05,0
105.64,1.8631e-05,0
105.64,4.3137e-05,0
105.64,7.9393e-05,0
105.64,0.00010356,0
105.64,0.0001039,0
105.64,8.7449e-05,0
105.64,6.5629e-05,0
105.64,4.8508e-05,0
105.65,4.1627e-05,0
105.65,4.3809e-05,0
105.65,4.8173e-05,0
105.65,5.153e-05,0
105.65,5.0523e-05,0
105.65,4.4816e-05,0
105.65,3.508e-05,0
105.65,1.9471e-05,0
105.65,1.0071e-06,0
105.65,-1.3931e-05,0
105.65,-1.8128e-05,0
105.65,-7.5532e-06,0
105.65,2.3667e-05,0
105.65,6.3951e-05,0
105.65,8.9296e-05,0
105.65,8.9464e-05,0
105.65,7.1e-05,0
105.65,4.213e-05,0
105.65,1.0575e-05,0
105.66,-8.896e-06,0
105.66,-1.561e-05,0
105.66,-1.6281e-05,0
105.66,-1.7624e-05,0
105.66,-1.8296e-05,0
105.66,-1.1917e-05,0
105.66,-2.8534e-06,0
105.66,-1.5106e-06,0
105.66,-7.7211e-06,0
105.66,-1.4267e-05,0
105.66,-1.9638e-05,0
105.66,-2.6184e-05,0
105.66,-3.6927e-05,0
105.66,-4.6998e-05,0
105.66,-4.8844e-05,0
105.66,-4.0452e-05,0
105.66,-2.5681e-05,0
105.66,-7.8889e-06,0
105.66,8.5603e-06,0
105.67,2.5849e-05,0
105.67,4.2298e-05,0
105.67,5.3544e-05,0
105.67,6.1936e-05,0
105.67,7.1e-05,0
105.67,7.805e-05,0
105.67,8.04e-05,0
105.67,8.5603e-05,0
105.67,0.00011481,0
105.67,0.00015593,0
105.67,0.00017557,0
105.67,0.00017305,0
105.67,0.0001707,0
105.67,0.00017742,0
105.67,0.0001801,0
105.67,0.0001613,0
105.67,0.00011901,0
105.67,6.6804e-05,0
105.67,1.796e-05,0
105.67,-2.3667e-05,0
105.68,-6.4622e-05,0
105.68,-0.00011212,0
105.68,-0.00015946,0
105.68,-0.00018262,0
105.68,-0.00017339,0
105.68,-0.00015258,0
105.68,-0.0001425,0
105.68,-0.00014318,0
105.68,-0.0001378,0
105.68,-0.00012522,0
105.68,-0.00011565,0
105.68,-0.00010558,0
105.68,-8.8457e-05,0
105.68,-7.1336e-05,0
105.68,-6.0594e-05,0
105.68,-4.7837e-05,0
105.68,-2.9206e-05,0
105.68,-1.4939e-05,0
105.68,-1.1414e-05,0
105.69,-8.896e-06,0
105.69,1.6785e-07,0
105.69,9.9031e-06,0
105.69,1.6953e-05,0
105.69,1.9303e-05,0
105.69,2.1317e-05,0
105.69,3.2563e-05,0
105.69,4.2466e-05,0
105.69,3.3402e-05,0
105.69,1.9638e-05,0
105.69,2.1317e-05,0
105.69,3.743e-05,0
105.69,5.2201e-05,0
105.69,5.7908e-05,0
105.69,6.244e-05,0
105.69,7.1e-05,0
105.69,7.5029e-05,0
105.69,6.865e-05,0
105.69,5.9251e-05,0
105.7,6.6636e-05,0
105.7,9.1981e-05,0
105.7,0.00011498,0
105.7,0.00012136,0
105.7,0.00011531,0
105.7,0.00011296,0
105.7,0.00012605,0
105.7,0.00015895,0
105.7,0.00020444,0
105.7,0.00023214,0
105.7,0.00022005,0
105.7,0.00017272,0
105.7,0.00010356,0
105.7,3.1052e-05,0
105.7,-2.7863e-05,0
105.7,-6.5293e-05,0
105.7,-8.275e-05,0
105.7,-8.3421e-05,0
105.7,-7.7546e-05,0
105.7,-7.5868e-05,0
105.71,-8.7114e-05,0
105.71,-0.00010927,0
105.71,-0.00012303,0
105.71,-0.00011296,0
105.71,-8.7449e-05,0
105.71,-5.8579e-05,0
105.71,-3.3738e-05,0
105.71,-1.8967e-05,0
105.71,-1.2924e-05,0
105.71,-5.7069e-06,0
105.71,8.2246e-06,0
105.71,2.1988e-05,0
105.71,3.0045e-05,0
105.71,3.743e-05,0
105.71,4.8173e-05,0
105.71,6.0929e-05,0
105.71,7.3686e-05,0
105.71,7.7546e-05,0
105.71,6.8147e-05,0
105.72,5.0858e-05,0
105.72,3.743e-05,0
105.72,3.6759e-05,0
105.72,4.1459e-05,0
105.72,3.4913e-05,0
105.72,2.3667e-05,0
105.72,2.1317e-05,0
105.72,2.9374e-05,0
105.72,3.9445e-05,0
105.72,4.4816e-05,0
105.72,4.4816e-05,0
105.72,5.0019e-05,0
105.72,7.0832e-05,0
105.72,0.00010172,0
105.72,0.00012908,0
105.72,0.00014166,0
105.72,0.00013042,0
105.72,0.00010188,0
105.72,7.2007e-05,0
105.73,5.9586e-05,0
105.73,7.1e-05,0
105.73,8.6442e-05,0
105.73,8.896e-05,0
105.73,8.1407e-05,0
105.73,7.1504e-05,0
105.73,5.5558e-05,0
105.73,2.2828e-05,0
105.73,-2.0645e-05,0
105.73,-5.9922e-05,0
105.73,-9.1142e-05,0
105.73,-0.00012035,0
105.73,-0.00015056,0
105.73,-0.00017423,0
105.73,-0.00017607,0
105.73,-0.00015492,0
105.73,-0.00012924,0
105.73,-0.00011632,0
105.73,-0.00011313,0
105.74,-0.00010574,0
105.74,-8.661e-05,0
105.74,-5.8244e-05,0
105.74,-2.6017e-05,0
105.74,3.8605e-06,0
105.74,3.1891e-05,0
105.74,5.6901e-05,0
105.74,7.57e-05,0
105.74,8.5771e-05,0
105.74,9.0135e-05,0
105.74,8.8792e-05,0
105.74,8.275e-05,0
105.74,7.4357e-05,0
105.74,6.6972e-05,0
105.74,5.8915e-05,0
105.74,5.0187e-05,0
105.74,4.3809e-05,0
105.74,3.743e-05,0
105.74,2.7695e-05,0
105.75,1.9303e-05,0
105.75,1.5442e-05,0
105.75,1.561e-05,0
105.75,2.7359e-05,0
105.75,6.0929e-05,0
105.75,0.00010793,0
105.75,0.00014569,0
105.75,0.00016013,0
105.75,0.00015425,0
105.75,0.00013596,0
105.75,0.00011128,0
105.75,7.9728e-05,0
105.75,4.0787e-05,0
105.75,6.5461e-06,0
105.75,-1.3428e-05,0
105.75,-2.1653e-05,0
105.75,-2.6184e-05,0
105.75,-2.3835e-05,0
105.75,-2.8534e-06,0
105.75,3.7766e-05,0
105.76,8.9296e-05,0
105.76,0.00013411,0
105.76,0.00015392,0
105.76,0.00013596,0
105.76,8.8121e-05,0
105.76,3.6255e-05,0
105.76,-1.5106e-06,0
105.76,-1.8967e-05,0
105.76,-2.3163e-05,0
105.76,-3.508e-05,0
105.76,-6.0594e-05,0
105.76,-9.5506e-05,0
105.76,-0.0001373,0
105.76,-0.00017691,0
105.76,-0.00019202,0
105.76,-0.00018245,0
105.76,-0.00016902,0
105.76,-0.00015912,0
105.76,-0.00013596,0
105.77,-9.9535e-05,0
105.77,-7.2007e-05,0
105.77,-5.8579e-05,0
105.77,-4.8005e-05,0
105.77,-3.2563e-05,0
105.77,-1.6281e-05,0
105.77,-5.8747e-06,0
105.77,-1.5106e-06,0
105.77,5.2033e-06,0
105.77,2.3331e-05,0
105.77,4.683e-05,0
105.77,6.5965e-05,0
105.77,7.5029e-05,0
105.77,7.9393e-05,0
105.77,8.1743e-05,0
105.77,8.1071e-05,0
105.77,8.1743e-05,0
105.77,8.5435e-05,0
105.77,8.9799e-05,0
105.78,9.8695e-05,0
105.78,0.00011464,0
105.78,0.00013579,0
105.78,0.0001749,0
105.78,0.00022777,0
105.78,0.00026268,0
105.78,0.00025832,0
105.78,0.00022274,0
105.78,0.00017305,0
105.78,0.00012219,0
105.78,7.6204e-05,0
105.78,4.2466e-05,0
105.78,1.9974e-05,0
105.78,1.8463e-06,0
105.78,-1.7288e-05,0
105.78,-3.6255e-05,0
105.78,-6.2272e-05,0
105.78,-9.9702e-05,0
105.78,-0.00013025,0
105.78,-0.00013915,0
105.79,-0.00012908,0
105.79,-0.00011279,0
105.79,-9.836e-05,0
105.79,-8.3589e-05,0
105.79,-6.3279e-05,0
105.79,-3.978e-05,0
105.79,-1.0239e-05,0
105.79,2.652e-05,0
105.79,5.8747e-05,0
105.79,7.6371e-05,0
105.79,7.9728e-05,0
105.79,7.7211e-05,0
105.79,6.9657e-05,0
105.79,5.623e-05,0
105.79,4.5487e-05,0
105.79,4.8005e-05,0
105.79,5.4551e-05,0
105.79,5.2537e-05,0
105.79,4.3809e-05,0
105.8,3.6423e-05,0
105.8,2.8534e-05,0
105.8,1.5946e-05,0
105.8,-3.357e-07,0
105.8,-1.3596e-05,0
105.8,-2.0645e-05,0
105.8,-1.7288e-05,0
105.8,-9.5674e-06,0
105.8,-6.3783e-06,0
105.8,-6.8818e-06,0
105.8,-5.2033e-06,0
105.8,-1.3428e-06,0
105.8,2.5177e-06,0
105.8,3.6927e-06,0
105.8,1.5106e-06,0
105.8,-8.3925e-07,0
105.8,-1.0071e-06,0
105.8,5.0355e-07,0
105.8,8.896e-06,0
105.81,3.508e-05,0
105.81,8.1071e-05,0
105.81,0.00012605,0
105.81,0.00015157,0
105.81,0.00015358,0
105.81,0.00013143,0
105.81,9.3324e-05,0
105.81,5.4719e-05,0
105.81,2.3331e-05,0
105.81,-3.0213e-06,0
105.81,-2.8702e-05,0
105.81,-5.1865e-05,0
105.81,-6.9657e-05,0
105.81,-8.4092e-05,0
105.81,-0.00010121,0
105.81,-0.00011313,0
105.81,-0.00011028,0
105.81,-9.0806e-05,0
105.81,-6.63e-05,0
105.82,-4.7333e-05,0
105.82,-3.3738e-05,0
105.82,-1.7288e-05,0
105.82,5.539e-06,0
105.82,2.8534e-05,0
105.82,4.5151e-05,0
105.82,6.2608e-05,0
105.82,8.9799e-05,0
105.82,0.000118,0
105.82,0.00013411,0
105.82,0.00013747,0
105.82,0.00012589,0
105.82,0.00010172,0
105.82,6.8818e-05,0
105.82,3.743e-05,0
105.82,2.4002e-05,0
105.82,2.4506e-05,0
105.82,2.3667e-05,0
105.82,1.3092e-05,0
105.82,-2.3499e-06,0
105.83,-1.7624e-05,0
105.83,-2.9374e-05,0
105.83,-3.4409e-05,0
105.83,-3.0381e-05,0
105.83,-2.4338e-05,0
105.83,-1.9303e-05,0
105.83,-9.5674e-06,0
105.83,1.2253e-05,0
105.83,3.6423e-05,0
105.83,5.0187e-05,0
105.83,5.4887e-05,0
105.83,5.7572e-05,0
105.83,5.9922e-05,0
105.83,5.7572e-05,0
105.83,4.918e-05,0
105.83,3.5752e-05,0
105.83,2.3331e-05,0
105.83,1.8967e-05,0
105.83,2.3667e-05,0
105.84,2.8702e-05,0
105.84,2.5345e-05,0
105.84,1.8967e-05,0
105.84,1.6281e-05,0
105.84,1.8296e-05,0
105.84,2.501e-05,0
105.84,4.2802e-05,0
105.84,6.3615e-05,0
105.84,7.4357e-05,0
105.84,7.6371e-05,0
105.84,6.7979e-05,0
105.84,4.4144e-05,0
105.84,1.796e-05,0
105.84,7.7211e-06,0
105.84,2.4842e-05,0
105.84,5.4215e-05,0
105.84,7.1e-05,0
105.84,6.5461e-05,0
105.84,5.7404e-05,0
105.85,5.0858e-05,0
105.85,3.357e-05,0
105.85,3.6927e-06,0
105.85,-3.0045e-05,0
105.85,-5.388e-05,0
105.85,-4.4648e-05,0
105.85,-4.8676e-06,0
105.85,3.3066e-05,0
105.85,5.388e-05,0
105.85,6.4286e-05,0
105.85,7.6371e-05,0
105.85,8.2078e-05,0
105.85,6.8986e-05,0
105.85,4.0787e-05,0
105.85,1.3764e-05,0
105.85,3.0213e-06,0
105.85,1.091e-05,0
105.85,1.3931e-05,0
105.85,-1.326e-05,0
105.86,-6.1097e-05,0
105.86,-0.00010037,0
105.86,-0.00011716,0
105.86,-0.00012522,0
105.86,-0.00013193,0
105.86,-0.00013864,0
105.86,-0.00014804,0
105.86,-0.00015761,0
105.86,-0.00014788,0
105.86,-0.00010591,0
105.86,-4.918e-05,0
105.86,4.1962e-06,0
105.86,4.5487e-05,0
105.86,6.865e-05,0
105.86,7.3518e-05,0
105.86,6.7643e-05,0
105.86,5.6901e-05,0
105.86,4.2298e-05,0
105.86,3.3066e-05,0
105.86,4.0452e-05,0
105.87,6.3615e-05,0
105.87,8.9632e-05,0
105.87,9.987e-05,0
105.87,9.2485e-05,0
105.87,8.3421e-05,0
105.87,8.426e-05,0
105.87,8.2078e-05,0
105.87,7.0329e-05,0
105.87,5.9586e-05,0
105.87,4.8844e-05,0
105.87,3.0884e-05,0
105.87,-1.5106e-06,0
105.87,-4.1962e-05,0
105.87,-7.7043e-05,0
105.87,-9.6178e-05,0
105.87,-9.7185e-05,0
105.87,-7.8386e-05,0
105.87,-4.5991e-05,0
105.87,-9.0639e-06,0
105.88,2.4338e-05,0
105.88,4.5823e-05,0
105.88,5.0187e-05,0
105.88,4.3977e-05,0
105.88,3.9445e-05,0
105.88,4.213e-05,0
105.88,5.2537e-05,0
105.88,6.0258e-05,0
105.88,6.0929e-05,0
105.88,5.8076e-05,0
105.88,6.8147e-05,0
105.88,9.2485e-05,0
105.88,0.00010944,0
105.88,0.00010675,0
105.88,8.9632e-05,0
105.88,6.3951e-05,0
105.88,3.4409e-05,0
105.88,6.2104e-06,0
105.88,-1.5274e-05,0
105.89,-2.8367e-05,0
105.89,-3.1052e-05,0
105.89,-2.1988e-05,0
105.89,-2.3499e-06,0
105.89,2.5177e-05,0
105.89,5.8244e-05,0
105.89,0.00010726,0
105.89,0.00017104,0
105.89,0.00022072,0
105.89,0.00023868,0
105.89,0.00022811,0
105.89,0.00019319,0
105.89,0.00013797,0
105.89,7.2175e-05,0
105.89,1.1582e-05,0
105.89,-3.1724e-05,0
105.89,-6.0929e-05,0
105.89,-8.7785e-05,0
105.89,-0.00011464,0
105.89,-0.00012975,0
105.9,-0.00012924,0
105.9,-0.00011867,0
105.9,-0.00010121,0
105.9,-8.3757e-05,0
105.9,-7.3182e-05,0
105.9,-7.335e-05,0
105.9,-7.805e-05,0
105.9,-7.9225e-05,0
105.9,-7.3686e-05,0
105.9,-6.0426e-05,0
105.9,-3.8437e-05,0
105.9,-8.896e-06,0
105.9,1.9638e-05,0
105.9,4.5319e-05,0
105.9,7.9561e-05,0
105.9,0.00012387,0
105.9,0.00015929,0
105.9,0.00018212,0
105.9,0.00019789,0
105.91,0.0001942,0
105.91,0.00016567,0
105.91,0.00012354,0
105.91,7.9896e-05,0
105.91,3.827e-05,0
105.91,3.5248e-06,0
105.91,-2.1988e-05,0
105.91,-3.7263e-05,0
105.91,-4.2634e-05,0
105.91,-4.3137e-05,0
105.91,-4.9012e-05,0
105.91,-6.6972e-05,0
105.91,-8.5603e-05,0
105.91,-8.9128e-05,0
105.91,-6.714e-05,0
105.91,-3.0213e-05,0
105.91,-2.8534e-06,0
105.91,8.5603e-06,0
105.91,1.3428e-05,0
105.92,1.5274e-05,0
105.92,1.2421e-05,0
105.92,4.8676e-06,0
105.92,-4.8676e-06,0
105.92,-4.1962e-06,0
105.92,9.0639e-06,0
105.92,2.266e-05,0
105.92,2.6688e-05,0
105.92,2.6184e-05,0
105.92,2.9038e-05,0
105.92,3.0381e-05,0
105.92,2.4674e-05,0
105.92,1.6785e-05,0
105.92,1.5106e-05,0
105.92,2.3667e-05,0
105.92,3.743e-05,0
105.92,6.0594e-05,0
105.92,9.6513e-05,0
105.92,0.00012152,0
105.93,0.00011783,0
105.93,9.6345e-05,0
105.93,7.0161e-05,0
105.93,4.6494e-05,0
105.93,3.0045e-05,0
105.93,2.5345e-05,0
105.93,2.9038e-05,0
105.93,3.6088e-05,0
105.93,4.7837e-05,0
105.93,6.5629e-05,0
105.93,8.1743e-05,0
105.93,8.2414e-05,0
105.93,7.1336e-05,0
105.93,6.3615e-05,0
105.93,6.7643e-05,0
105.93,7.805e-05,0
105.93,9.0974e-05,0
105.93,0.0001237,0
105.93,0.00019907,0
105.94,0.00028182,0
105.94,0.00032143,0
105.94,0.00029609,0
105.94,0.00021787,0
105.94,0.00010843,0
105.94,-1.1246e-05,0
105.94,-0.0001227,0
105.94,-0.00021166,0
105.94,-0.00027594,0
105.94,-0.00032177,0
105.94,-0.0003357,0
105.94,-0.00031472,0
105.94,-0.00028518,0
105.94,-0.00026352,0
105.94,-0.00024154,0
105.94,-0.00020914,0
105.94,-0.00016432,0
105.94,-0.00012136,0
105.94,-9.5338e-05,0
105.94,-8.6107e-05,0
105.95,-8.3421e-05,0
105.95,-7.7043e-05,0
105.95,-6.6804e-05,0
105.95,-6.2608e-05,0
105.95,-6.0761e-05,0
105.95,-5.3376e-05,0
105.95,-4.1794e-05,0
105.95,-1.5946e-05,0
105.95,2.9374e-05,0
105.95,8.8457e-05,0
105.95,0.00014653,0
105.95,0.00018631,0
105.95,0.00019722,0
105.95,0.00018296,0
105.95,0.00015459,0
105.95,0.00012119,0
105.95,8.9464e-05,0
105.95,6.7811e-05,0
105.95,5.5222e-05,0
105.96,4.2802e-05,0
105.96,3.3066e-05,0
105.96,3.0884e-05,0
105.96,3.2059e-05,0
105.96,4.3809e-05,0
105.96,7.1168e-05,0
105.96,9.987e-05,0
105.96,0.00010994,0
105.96,9.9535e-05,0
105.96,7.9561e-05,0
105.96,5.9251e-05,0
105.96,4.4144e-05,0
105.96,4.1459e-05,0
105.96,5.623e-05,0
105.96,7.5868e-05,0
105.96,8.3421e-05,0
105.96,7.57e-05,0
105.96,5.7069e-05,0
105.96,3.6591e-05,0
105.97,1.8631e-05,0
105.97,2.8534e-06,0
105.97,-7.8889e-06,0
105.97,-1.1582e-05,0
105.97,-1.3092e-05,0
105.97,-1.6953e-05,0
105.97,-2.182e-05,0
105.97,-2.4338e-05,0
105.97,-1.9303e-05,0
105.97,-3.8605e-06,0
105.97,1.5778e-05,0
105.97,3.2563e-05,0
105.97,4.2466e-05,0
105.97,4.5823e-05,0
105.97,4.4816e-05,0
105.97,4.448e-05,0
105.97,4.7166e-05,0
105.97,5.0355e-05,0
105.97,5.153e-05,0
105.97,4.918e-05,0
105.98,4.8173e-05,0
105.98,5.0523e-05,0
105.98,5.3376e-05,0
105.98,5.7572e-05,0
105.98,7.3686e-05,0
105.98,0.0001133,0
105.98,0.00016533,0
105.98,0.00020578,0
105.98,0.00021938,0
105.98,0.00021032,0
105.98,0.00019387,0
105.98,0.00017607,0
105.98,0.00015023,0
105.98,0.0001227,0
105.98,0.00010356,0
105.98,8.4932e-05,0
105.98,5.7908e-05,0
105.98,2.8367e-05,0
105.98,-1.0575e-05,0
105.99,-6.5965e-05,0
105.99,-0.00011548,0
105.99,-0.00012253,0
105.99,-9.2988e-05,0
105.99,-6.949e-05,0
105.99,-7.805e-05,0
105.99,-0.00010994,0
105.99,-0.00014385,0
105.99,-0.00016399,0
105.99,-0.00016902,0
105.99,-0.00016097,0
105.99,-0.00014955,0
105.99,-0.00015123,0
105.99,-0.0001613,0
105.99,-0.00016097,0
105.99,-0.00015241,0
105.99,-0.0001326,0
105.99,-9.6513e-05,0
105.99,-5.7572e-05,0
106,-2.7192e-05,0
106,-7.7211e-06,0
106,-4.3641e-06,0
106,-1.6617e-05,0
106,-2.652e-05,0
106,-2.4338e-05,0
106,-1.3092e-05,0
106,1.8463e-06,0
106,1.9303e-05,0
106,3.8773e-05,0
106,6.0258e-05,0
106,8.1743e-05,0
106,9.987e-05,0
106,0.00010994,0
106,0.0001086,0
106,0.00010793,0
106,0.00013344,0
106,0.00017171,0
106,0.00019454,0
106.01,0.00019319,0
106.01,0.0001744,0
106.01,0.00013143,0
106.01,6.865e-05,0
106.01,9.9031e-06,0
106.01,-2.031e-05,0
106.01,-2.8702e-05,0
106.01,-3.8437e-05,0
106.01,-4.1123e-05,0
106.01,-1.4939e-05,0
106.01,3.4745e-05,0
106.01,7.2343e-05,0
106.01,7.1672e-05,0
106.01,4.4648e-05,0
106.01,1.7121e-05,0
106.01,-1.8463e-06,0
106.01,-1.0239e-05,0
106.01,-9.2317e-06,0
106.01,-7.2175e-06,0
106.02,-9.9031e-06,0
106.02,-1.326e-05,0
106.02,5.8747e-06,0
106.02,6.8986e-05,0
106.02,0.00015946,0
106.02,0.00024154,0
106.02,0.00030146,0
106.02,0.00033016,0
106.02,0.00031203,0
106.02,0.00024204,0
106.02,0.00013915,0
106.02,3.2395e-05,0
106.02,-6.5797e-05,0
106.02,-0.0001561,0
106.02,-0.00023566,0
106.02,-0.00029424,0
106.02,-0.00032361,0
106.02,-0.00032848,0
106.02,-0.00030935,0
106.02,-0.00026403,0
106.03,-0.00020058,0
106.03,-0.00013075,0
106.03,-6.0258e-05,0
106.03,-3.1891e-06,0
106.03,2.6688e-05,0
106.03,2.887e-05,0
106.03,1.7288e-05,0
106.03,1.5106e-06,0
106.03,-1.4939e-05,0
106.03,-2.4842e-05,0
106.03,-2.3163e-05,0
106.03,-1.4267e-05,0
106.03,-3.357e-07,0
106.03,1.5946e-05,0
106.03,3.4073e-05,0
106.03,5.4887e-05,0
106.03,7.9393e-05,0
106.03,0.00010105,0
106.03,0.00011531,0
106.04,0.00012068,0
106.04,0.000118,0
106.04,0.00010994,0
106.04,0.00010256,0
106.04,0.00010088,0
106.04,9.987e-05,0
106.04,9.6513e-05,0
106.04,9.0303e-05,0
106.04,8.426e-05,0
106.04,7.8386e-05,0
106.04,7.0497e-05,0
106.04,6.3615e-05,0
106.04,6.4958e-05,0
106.04,7.0329e-05,0
106.04,7.335e-05,0
106.04,6.5965e-05,0
106.04,5.0187e-05,0
106.04,3.508e-05,0
106.04,2.6017e-05,0
106.05,2.266e-05,0
106.05,2.031e-05,0
106.05,1.7288e-05,0
106.05,1.5274e-05,0
106.05,1.4435e-05,0
106.05,1.2924e-05,0
106.05,1.4435e-05,0
106.05,1.796e-05,0
106.05,1.8967e-05,0
106.05,1.8631e-05,0
106.05,2.1317e-05,0
106.05,2.652e-05,0
106.05,3.0549e-05,0
106.05,3.3234e-05,0
106.05,4.0116e-05,0
106.05,5.1865e-05,0
106.05,6.5293e-05,0
106.05,8.4764e-05,0
106.05,0.00010054,0
106.06,9.5842e-05,0
106.06,7.4189e-05,0
106.06,4.6159e-05,0
106.06,1.9638e-05,0
106.06,5.0355e-06,0
106.06,6.2104e-06,0
106.06,3.0716e-05,0
106.06,8.5771e-05,0
106.06,0.00016768,0
106.06,0.00025614,0
106.06,0.00031472,0
106.06,0.00031589,0
106.06,0.00025144,0
106.06,0.00014485,0
106.06,2.8031e-05,0
106.06,-8.1239e-05,0
106.06,-0.00017943,0
106.06,-0.00025614,0
106.06,-0.00030129,0
106.06,-0.00031975,0
106.07,-0.00032932,0
106.07,-0.00034241,0
106.07,-0.00035265,0
106.07,-0.00033721,0
106.07,-0.00028266,0
106.07,-0.00020259,0
106.07,-0.00012387,0
106.07,-6.3951e-05,0
106.07,-1.9974e-05,0
106.07,1.1582e-05,0
106.07,3.1724e-05,0
106.07,4.3137e-05,0
106.07,5.3544e-05,0
106.07,6.5293e-05,0
106.07,6.9657e-05,0
106.07,7.1e-05,0
106.07,8.0735e-05,0
106.07,9.3492e-05,0
106.07,0.00010188,0
106.08,0.00010188,0
106.08,9.3828e-05,0
106.08,8.0064e-05,0
106.08,6.8315e-05,0
106.08,6.2943e-05,0
106.08,6.2272e-05,0
106.08,6.2943e-05,0
106.08,7.2343e-05,0
106.08,9.752e-05,0
106.08,0.00012438,0
106.08,0.00013696,0
106.08,0.00012908,0
106.08,0.00011061,0
106.08,9.1142e-05,0
106.08,7.2343e-05,0
106.08,5.8915e-05,0
106.08,5.1194e-05,0
106.08,4.3137e-05,0
106.08,2.5681e-05,0
106.09,-3.0213e-06,0
106.09,-2.5681e-05,0
106.09,-2.0645e-05,0
106.09,5.2033e-06,0
106.09,3.3906e-05,0
106.09,5.3208e-05,0
106.09,5.388e-05,0
106.09,3.2059e-05,0
106.09,-1.6785e-06,0
106.09,-2.501e-05,0
106.09,-1.8128e-05,0
106.09,2.7359e-05,0
106.09,7.8386e-05,0
106.09,0.00010272,0
106.09,9.2485e-05,0
106.09,5.8915e-05,0
106.09,2.6352e-05,0
106.09,1.2253e-05,0
106.09,1.0575e-05,0
106.09,8.896e-06,0
106.1,1.8463e-06,0
106.1,-9.9031e-06,0
106.1,-2.182e-05,0
106.1,-3.827e-05,0
106.1,-5.8244e-05,0
106.1,-6.5629e-05,0
106.1,-4.9851e-05,0
106.1,-2.2995e-05,0
106.1,-5.0355e-07,0
106.1,1.9303e-05,0
106.1,4.8173e-05,0
106.1,7.5029e-05,0
106.1,8.2078e-05,0
106.1,6.6468e-05,0
106.1,3.9445e-05,0
106.1,1.4603e-05,0
106.1,-7.0497e-06,0
106.1,-2.5681e-05,0
106.1,-3.5752e-05,0
106.11,-3.978e-05,0
106.11,-3.6759e-05,0
106.11,-2.1653e-05,0
106.11,2.182e-06,0
106.11,1.9974e-05,0
106.11,2.3835e-05,0
106.11,2.2995e-05,0
106.11,2.5345e-05,0
106.11,3.2731e-05,0
106.11,4.2802e-05,0
106.11,5.388e-05,0
106.11,7.3686e-05,0
106.11,9.9031e-05,0
106.11,0.00011666,0
106.11,0.00012387,0
106.11,0.00012958,0
106.11,0.0001368,0
106.11,0.0001368,0
106.11,0.00012673,0
106.12,0.0001086,0
106.12,8.2078e-05,0
106.12,5.069e-05,0
106.12,1.5442e-05,0
106.12,-2.2324e-05,0
106.12,-6.0929e-05,0
106.12,-9.3324e-05,0
106.12,-0.00011078,0
106.12,-0.00011498,0
106.12,-0.00010658,0
106.12,-9.5171e-05,0
106.12,-9.6849e-05,0
106.12,-0.00011061,0
106.12,-0.00012018,0
106.12,-0.0001133,0
106.12,-9.3828e-05,0
106.12,-7.8218e-05,0
106.12,-7.1336e-05,0
106.12,-6.1265e-05,0
106.13,-4.3305e-05,0
106.13,-1.6281e-05,0
106.13,1.6617e-05,0
106.13,4.8173e-05,0
106.13,7.805e-05,0
106.13,0.00010088,0
106.13,0.00010591,0
106.13,8.8457e-05,0
106.13,5.6062e-05,0
106.13,2.2995e-05,0
106.13,2.182e-06,0
106.13,-5.7069e-06,0
106.13,-1.1246e-05,0
106.13,-9.0639e-06,0
106.13,6.0426e-06,0
106.13,2.4002e-05,0
106.13,3.8437e-05,0
106.13,4.9348e-05,0
106.13,6.009e-05,0
106.13,6.8986e-05,0
106.14,7.6371e-05,0
106.14,7.6204e-05,0
106.14,6.4118e-05,0
106.14,5.1865e-05,0
106.14,5.4887e-05,0
106.14,6.5629e-05,0
106.14,6.8818e-05,0
106.14,5.8915e-05,0
106.14,4.8173e-05,0
106.14,5.8244e-05,0
106.14,9.2485e-05,0
106.14,0.00013646,0
106.14,0.0001697,0
106.14,0.00019823,0
106.14,0.00022811,0
106.14,0.00023146,0
106.14,0.00020713,0
106.14,0.00017775,0
106.14,0.00014653,0
106.15,9.7185e-05,0
106.15,2.652e-05,0
106.15,-5.0187e-05,0
106.15,-0.00011363,0
106.15,-0.000165,0
106.15,-0.00020562,0
106.15,-0.00022576,0
106.15,-0.00022106,0
106.15,-0.00019907,0
106.15,-0.00016818,0
106.15,-0.00013109,0
106.15,-9.3324e-05,0
106.15,-6.5126e-05,0
106.15,-3.9109e-05,0
106.15,-8.5603e-06,0
106.15,1.8463e-05,0
106.15,2.8702e-05,0
106.15,2.1988e-05,0
106.15,2.8534e-06,0
106.16,-1.5274e-05,0
106.16,-2.0981e-05,0
106.16,-1.6114e-05,0
106.16,-4.8676e-06,0
106.16,1.1246e-05,0
106.16,2.1988e-05,0
106.16,1.9638e-05,0
106.16,6.8818e-06,0
106.16,-3.1891e-06,0
106.16,-1.5106e-06,0
106.16,1.091e-05,0
106.16,3.2059e-05,0
106.16,5.6901e-05,0
106.16,7.1e-05,0
106.16,6.5629e-05,0
106.16,4.8005e-05,0
106.16,3.592e-05,0
106.16,3.3738e-05,0
106.16,3.4745e-05,0
106.17,3.978e-05,0
106.17,5.5222e-05,0
106.17,8.5771e-05,0
106.17,0.00012001,0
106.17,0.00013344,0
106.17,0.00011867,0
106.17,9.0135e-05,0
106.17,6.0258e-05,0
106.17,4.2466e-05,0
106.17,4.0787e-05,0
106.17,3.9109e-05,0
106.17,2.6688e-05,0
106.17,1.5778e-05,0
106.17,1.8631e-05,0
106.17,3.2395e-05,0
106.17,3.357e-05,0
106.17,1.1582e-05,0
106.17,-1.8296e-05,0
106.17,-3.4241e-05,0
106.17,-3.1388e-05,0
106.18,-1.8967e-05,0
106.18,2.8534e-06,0
106.18,3.6423e-05,0
106.18,6.8147e-05,0
106.18,8.1071e-05,0
106.18,7.4861e-05,0
106.18,5.9586e-05,0
106.18,4.213e-05,0
106.18,2.6688e-05,0
106.18,1.3931e-05,0
106.18,0,0
106.18,-9.0639e-06,0
106.18,-9.9031e-06,0
106.18,-5.539e-06,0
106.18,2.5177e-06,0
106.18,8.896e-06,0
106.18,8.896e-06,0
106.18,7.8889e-06,0
106.18,1.3931e-05,0
106.19,3.2731e-05,0
106.19,5.6565e-05,0
106.19,6.7475e-05,0
106.19,5.8915e-05,0
106.19,3.8941e-05,0
106.19,2.4842e-05,0
106.19,3.6423e-05,0
106.19,8.6778e-05,0
106.19,0.00014519,0
106.19,0.00016986,0
106.19,0.00015744,0
106.19,0.00012622,0
106.19,8.4764e-05,0
106.19,3.827e-05,0
106.19,-1.0239e-05,0
106.19,-5.8915e-05,0
106.19,-9.9535e-05,0
106.19,-0.0001227,0
106.19,-0.00012941,0
106.2,-0.00013042,0
106.2,-0.00013529,0
106.2,-0.00013764,0
106.2,-0.00012505,0
106.2,-8.8289e-05,0
106.2,-3.743e-05,0
106.2,6.2104e-06,0
106.2,2.9709e-05,0
106.2,3.4745e-05,0
106.2,2.8702e-05,0
106.2,1.5106e-05,0
106.2,-1.5106e-06,0
106.2,-1.3596e-05,0
106.2,-1.9471e-05,0
106.2,-2.5345e-05,0
106.2,-2.652e-05,0
106.2,-1.9974e-05,0
106.2,-1.1917e-05,0
106.2,-1.8463e-06,0
106.2,1.3596e-05,0
106.21,2.9374e-05,0
106.21,4.0787e-05,0
106.21,4.6494e-05,0
106.21,5.0523e-05,0
106.21,5.5222e-05,0
106.21,6.009e-05,0
106.21,6.7643e-05,0
106.21,8.2918e-05,0
106.21,0.00011095,0
106.21,0.00014586,0
106.21,0.00017272,0
106.21,0.00017977,0
106.21,0.00016835,0
106.21,0.00015291,0
106.21,0.00014788,0
106.21,0.00014385,0
106.21,0.00012438,0
106.21,9.0135e-05,0
106.21,5.0187e-05,0
106.22,9.5674e-06,0
106.22,-3.0045e-05,0
106.22,-6.0594e-05,0
106.22,-6.8818e-05,0
106.22,-5.8076e-05,0
106.22,-4.6159e-05,0
106.22,-4.0452e-05,0
106.22,-3.8941e-05,0
106.22,-4.3809e-05,0
106.22,-5.388e-05,0
106.22,-6.6636e-05,0
106.22,-8.1239e-05,0
106.22,-9.1646e-05,0
106.22,-9.0135e-05,0
106.22,-7.5868e-05,0
106.22,-6.6468e-05,0
106.22,-7.3518e-05,0
106.22,-8.3253e-05,0
106.22,-6.6636e-05,0
106.23,-2.2492e-05,0
106.23,2.266e-05,0
106.23,6.2104e-05,0
106.23,0.00010457,0
106.23,0.0001415,0
106.23,0.00016197,0
106.23,0.00016466,0
106.23,0.00015056,0
106.23,0.00011263,0
106.23,5.7069e-05,0
106.23,1.5106e-06,0
106.23,-2.6017e-05,0
106.23,-2.5177e-06,0
106.23,3.743e-05,0
106.23,5.6565e-05,0
106.23,5.388e-05,0
106.23,3.2731e-05,0
106.23,-8.0568e-06,0
106.23,-5.3208e-05,0
106.24,-8.0064e-05,0
106.24,-8.4764e-05,0
106.24,-8.4428e-05,0
106.24,-7.8553e-05,0
106.24,-5.2705e-05,0
106.24,-1.796e-05,0
106.24,-1.1749e-06,0
106.24,-3.8605e-06,0
106.24,-6.3783e-06,0
106.24,3.1891e-06,0
106.24,2.1317e-05,0
106.24,3.6088e-05,0
106.24,4.213e-05,0
106.24,4.4816e-05,0
106.24,5.3544e-05,0
106.24,7.6371e-05,0
106.24,0.00010222,0
106.24,0.00011397,0
106.24,0.00010625,0
106.25,8.7449e-05,0
106.25,6.7308e-05,0
106.25,4.7501e-05,0
106.25,3.4745e-05,0
106.25,5.2201e-05,0
106.25,9.3828e-05,0
106.25,0.0001274,0
106.25,0.00013445,0
106.25,0.00011128,0
106.25,6.4286e-05,0
106.25,1.3931e-05,0
106.25,-2.417e-05,0
106.25,-4.6662e-05,0
106.25,-6.0258e-05,0
106.25,-6.9154e-05,0
106.25,-7.1e-05,0
106.25,-7.2343e-05,0
106.25,-8.3925e-05,0
106.25,-9.5506e-05,0
106.25,-8.6107e-05,0
106.26,-4.6494e-05,0
106.26,1.1749e-06,0
106.26,3.7766e-05,0
106.26,6.5629e-05,0
106.26,9.2485e-05,0
106.26,0.0001039,0
106.26,9.1646e-05,0
106.26,6.9154e-05,0
106.26,4.7501e-05,0
106.26,2.2995e-05,0
106.26,-1.1246e-05,0
106.26,-3.7095e-05,0
106.26,-3.4577e-05,0
106.26,-8.7282e-06,0
106.26,2.0645e-05,0
106.26,4.1123e-05,0
106.26,5.1026e-05,0
106.26,5.0858e-05,0
106.26,4.0787e-05,0
106.27,3.2731e-05,0
106.27,3.3906e-05,0
106.27,3.9445e-05,0
106.27,4.0955e-05,0
106.27,4.1962e-05,0
106.27,4.7166e-05,0
106.27,6.0258e-05,0
106.27,6.9657e-05,0
106.27,5.7908e-05,0
106.27,2.6688e-05,0
106.27,-2.182e-06,0
106.27,-2.2156e-05,0
106.27,-4.4144e-05,0
106.27,-6.8818e-05,0
106.27,-8.3421e-05,0
106.27,-7.7714e-05,0
106.27,-5.6901e-05,0
106.27,-3.5248e-05,0
106.27,-1.1246e-05,0
106.28,2.8031e-05,0
106.28,6.1601e-05,0
106.28,6.0929e-05,0
106.28,3.9109e-05,0
106.28,2.8031e-05,0
106.28,2.9709e-05,0
106.28,2.9206e-05,0
106.28,1.9806e-05,0
106.28,4.1962e-06,0
106.28,-1.4099e-05,0
106.28,-3.3738e-05,0
106.28,-5.6062e-05,0
106.28,-7.4525e-05,0
106.28,-7.8386e-05,0
106.28,-6.7308e-05,0
106.28,-4.6494e-05,0
106.28,-2.4674e-05,0
106.28,-3.5248e-06,0
106.28,1.0239e-05,0
106.28,1.3596e-05,0
106.29,2.266e-05,0
106.29,4.2466e-05,0
106.29,6.2104e-05,0
106.29,6.9322e-05,0
106.29,6.5629e-05,0
106.29,6.2608e-05,0
106.29,6.5965e-05,0
106.29,7.3686e-05,0
106.29,7.7043e-05,0
106.29,7.2847e-05,0
106.29,7.1839e-05,0
106.29,7.57e-05,0
106.29,8.0735e-05,0
106.29,8.8121e-05,0
106.29,9.752e-05,0
106.29,0.00010188,0
106.29,0.00010591,0
106.29,0.00011783,0
106.29,0.00013378,0
106.3,0.00013982,0
106.3,0.00012857,0
106.3,9.987e-05,0
106.3,5.8579e-05,0
106.3,1.8296e-05,0
106.3,-1.2924e-05,0
106.3,-3.6255e-05,0
106.3,-5.4551e-05,0
106.3,-6.244e-05,0
106.3,-4.8508e-05,0
106.3,-8.5603e-06,0
106.3,2.9877e-05,0
106.3,4.0787e-05,0
106.3,2.5345e-05,0
106.3,-3.8605e-06,0
106.3,-3.7766e-05,0
106.3,-6.8147e-05,0
106.3,-8.5771e-05,0
106.3,-8.6946e-05,0
106.31,-7.9728e-05,0
106.31,-6.9657e-05,0
106.31,-5.8076e-05,0
106.31,-4.6494e-05,0
106.31,-3.8437e-05,0
106.31,-2.8702e-05,0
106.31,-1.3764e-05,0
106.31,2.3499e-06,0
106.31,1.561e-05,0
106.31,2.501e-05,0
106.31,3.3234e-05,0
106.31,5.069e-05,0
106.31,8.2414e-05,0
106.31,0.00011431,0
106.31,0.00012941,0
106.31,0.00012572,0
106.31,0.00011112,0
106.31,8.9632e-05,0
106.31,6.4118e-05,0
106.32,4.448e-05,0
106.32,3.5248e-05,0
106.32,2.9709e-05,0
106.32,2.0813e-05,0
106.32,7.2175e-06,0
106.32,-1.3764e-05,0
106.32,-3.6759e-05,0
106.32,-5.1026e-05,0
106.32,-5.539e-05,0
106.32,-4.7333e-05,0
106.32,-3.3066e-05,0
106.32,-1.9303e-05,0
106.32,-3.5248e-06,0
106.32,1.5274e-05,0
106.32,4.3473e-05,0
106.32,8.4428e-05,0
106.32,0.00012119,0
106.32,0.0001415,0
106.32,0.00014922,0
106.33,0.00014871,0
106.33,0.00014318,0
106.33,0.00013143,0
106.33,0.00010994,0
106.33,7.7714e-05,0
106.33,4.4144e-05,0
106.33,1.8799e-05,0
106.33,4.8676e-06,0
106.33,-6.0426e-06,0
106.33,-2.3163e-05,0
106.33,-5.1194e-05,0
106.33,-8.661e-05,0
106.33,-0.00011363,0
106.33,-0.00011498,0
106.33,-8.3589e-05,0
106.33,-3.827e-05,0
106.33,-5.7069e-06,0
106.33,3.8605e-06,0
106.33,-1.3428e-06,0
106.33,-1.5442e-05,0
106.34,-3.6088e-05,0
106.34,-5.153e-05,0
106.34,-4.8844e-05,0
106.34,-2.7863e-05,0
106.34,-1.5106e-06,0
106.34,1.4939e-05,0
106.34,1.1582e-05,0
106.34,-2.3499e-06,0
106.34,-1.5274e-05,0
106.34,-2.1653e-05,0
106.34,-2.182e-05,0
106.34,-1.3931e-05,0
106.34,-1.0071e-06,0
106.34,1.1078e-05,0
106.34,2.8702e-05,0
106.34,5.4887e-05,0
106.34,8.2246e-05,0
106.34,9.9199e-05,0
106.34,9.8527e-05,0
106.35,7.7714e-05,0
106.35,4.683e-05,0
106.35,1.7288e-05,0
106.35,-7.7211e-06,0
106.35,-2.4506e-05,0
106.35,-2.9206e-05,0
106.35,-2.7024e-05,0
106.35,-2.1653e-05,0
106.35,-2.1653e-05,0
106.35,-2.0645e-05,0
106.35,2.2156e-05,0
106.35,0.00011632,0
106.35,0.00020729,0
106.35,0.00025899,0
106.35,0.0002798,0
106.35,0.00027712,0
106.35,0.00024204,0
106.35,0.00017574,0
106.35,9.7185e-05,0
106.36,2.5681e-05,0
106.36,-3.0716e-05,0
106.36,-7.1336e-05,0
106.36,-9.7017e-05,0
106.36,-0.00011867,0
106.36,-0.00014519,0
106.36,-0.00017037,0
106.36,-0.00018413,0
106.36,-0.00017876,0
106.36,-0.00015711,0
106.36,-0.00013143,0
106.36,-0.00010994,0
106.36,-8.7617e-05,0
106.36,-6.6636e-05,0
106.36,-5.4215e-05,0
106.36,-4.7837e-05,0
106.36,-3.3066e-05,0
106.36,-4.1962e-06,0
106.36,3.0045e-05,0
106.36,5.8412e-05,0
106.37,7.1e-05,0
106.37,6.6133e-05,0
106.37,5.6901e-05,0
106.37,5.539e-05,0
106.37,5.8915e-05,0
106.37,5.9251e-05,0
106.37,5.8076e-05,0
106.37,5.9586e-05,0
106.37,6.479e-05,0
106.37,6.8818e-05,0
106.37,6.3279e-05,0
106.37,4.5991e-05,0
106.37,2.6352e-05,0
106.37,1.5442e-05,0
106.37,1.1917e-05,0
106.37,1.2589e-05,0
106.37,1.5442e-05,0
106.37,2.0981e-05,0
106.37,2.8031e-05,0
106.38,3.5248e-05,0
106.38,3.9948e-05,0
106.38,4.0955e-05,0
106.38,4.3473e-05,0
106.38,5.0858e-05,0
106.38,6.3783e-05,0
106.38,8.5267e-05,0
106.38,0.00012773,0
106.38,0.00019051,0
106.38,0.00024204,0
106.38,0.00024959,0
106.38,0.00020897,0
106.38,0.00013747,0
106.38,5.9922e-05,0
106.38,-4.5319e-06,0
106.38,-5.069e-05,0
106.38,-8.1407e-05,0
106.38,-9.3492e-05,0
106.38,-8.2918e-05,0
106.39,-5.6733e-05,0
106.39,-3.3402e-05,0
106.39,-2.8534e-05,0
106.39,-3.6255e-05,0
106.39,-3.8941e-05,0
106.39,-2.7024e-05,0
106.39,-3.5248e-06,0
106.39,1.4435e-05,0
106.39,1.6617e-05,0
106.39,1.561e-05,0
106.39,1.7288e-05,0
106.39,1.3931e-05,0
106.39,-7.5532e-06,0
106.39,-4.1459e-05,0
106.39,-6.4622e-05,0
106.39,-6.9993e-05,0
106.39,-6.7643e-05,0
106.39,-6.4286e-05,0
106.39,-5.539e-05,0
106.4,-3.8773e-05,0
106.4,-1.6617e-05,0
106.4,6.2104e-06,0
106.4,2.1317e-05,0
106.4,3.2731e-05,0
106.4,4.3473e-05,0
106.4,5.0858e-05,0
106.4,5.3544e-05,0
106.4,5.6733e-05,0
106.4,5.8579e-05,0
106.4,5.5558e-05,0
106.4,5.2201e-05,0
106.4,5.2873e-05,0
106.4,5.8579e-05,0
106.4,7.57e-05,0
106.4,9.987e-05,0
106.4,0.00010675,0
106.4,8.2246e-05,0
106.4,4.3305e-05,0
106.4,1.8631e-05,0
106.41,1.8631e-05,0
106.41,3.0716e-05,0
106.41,3.5416e-05,0
106.41,3.0716e-05,0
106.41,2.1317e-05,0
106.41,7.8889e-06,0
106.41,-9.2317e-06,0
106.41,-2.0981e-05,0
106.41,-1.8128e-05,0
106.41,-9.5674e-06,0
106.41,-1.1246e-05,0
106.41,-2.031e-05,0
106.41,-2.9038e-05,0
106.41,-3.9109e-05,0
106.41,-5.2033e-05,0
106.41,-5.9419e-05,0
106.41,-5.3544e-05,0
106.41,-4.0787e-05,0
106.41,-2.7024e-05,0
106.42,-1.1582e-05,0
106.42,5.0355e-06,0
106.42,1.326e-05,0
106.42,1.4603e-05,0
106.42,1.8296e-05,0
106.42,2.6017e-05,0
106.42,3.3402e-05,0
106.42,4.0116e-05,0
106.42,4.7501e-05,0
106.42,5.4551e-05,0
106.42,6.2272e-05,0
106.42,7.1672e-05,0
106.42,8.0064e-05,0
106.42,8.51e-05,0
106.42,8.8457e-05,0
106.42,0.00010658,0
106.42,0.00015258,0
106.42,0.00021334,0
106.42,0.00025295,0
106.43,0.00025194,0
106.43,0.00021401,0
106.43,0.00015157,0
106.43,7.8889e-05,0
106.43,1.1917e-05,0
106.43,-4.1627e-05,0
106.43,-8.2918e-05,0
106.43,-0.00011414,0
106.43,-0.0001331,0
106.43,-0.00014788,0
106.43,-0.00016231,0
106.43,-0.00016667,0
106.43,-0.00015207,0
106.43,-0.00012555,0
106.43,-0.00010037,0
106.43,-7.7882e-05,0
106.43,-5.069e-05,0
106.43,-2.0645e-05,0
106.43,5.2033e-06,0
106.44,2.7695e-05,0
106.44,4.7333e-05,0
106.44,5.8076e-05,0
106.44,5.9754e-05,0
106.44,5.623e-05,0
106.44,5.0858e-05,0
106.44,4.4648e-05,0
106.44,3.4073e-05,0
106.44,1.7456e-05,0
106.44,6.2104e-06,0
106.44,1.8631e-05,0
106.44,5.6565e-05,0
106.44,8.7785e-05,0
106.44,8.6107e-05,0
106.44,6.2776e-05,0
106.44,3.7766e-05,0
106.44,1.9638e-05,0
106.44,4.8676e-06,0
106.44,-4.3641e-06,0
106.44,-4.5319e-06,0
106.45,-1.1749e-06,0
106.45,-3.8605e-06,0
106.45,-1.7288e-05,0
106.45,-3.3906e-05,0
106.45,-3.4745e-05,0
106.45,-1.8463e-05,0
106.45,2.8534e-06,0
106.45,2.1317e-05,0
106.45,3.2059e-05,0
106.45,3.4577e-05,0
106.45,2.887e-05,0
106.45,1.5946e-05,0
106.45,7.2175e-06,0
106.45,1.1917e-05,0
106.45,3.0884e-05,0
106.45,5.6062e-05,0
106.45,7.5868e-05,0
106.45,8.9799e-05,0
106.45,0.00010239,0
106.46,0.00010558,0
106.46,9.8192e-05,0
106.46,9.4163e-05,0
106.46,0.00011582,0
106.46,0.00015593,0
106.46,0.00017205,0
106.46,0.00013982,0
106.46,7.5364e-05,0
106.46,3.357e-06,0
106.46,-5.9922e-05,0
106.46,-0.00010541,0
106.46,-0.00012924,0
106.46,-0.00013361,0
106.46,-0.00012639,0
106.46,-0.00011431,0
106.46,-0.00010373,0
106.46,-9.987e-05,0
106.46,-9.0135e-05,0
106.46,-5.4551e-05,0
106.47,-5.0355e-07,0
106.47,4.3977e-05,0
106.47,6.7475e-05,0
106.47,7.4189e-05,0
106.47,6.9657e-05,0
106.47,6.2943e-05,0
106.47,6.6972e-05,0
106.47,7.6371e-05,0
106.47,7.1e-05,0
106.47,4.7166e-05,0
106.47,1.561e-05,0
106.47,-1.6449e-05,0
106.47,-4.6326e-05,0
106.47,-6.3615e-05,0
106.47,-5.5726e-05,0
106.47,-1.9638e-05,0
106.47,3.6759e-05,0
106.47,9.2821e-05,0
106.47,0.00014133,0
106.47,0.00017037,0
106.48,0.00016751,0
106.48,0.00013864,0
106.48,0.00010088,0
106.48,6.2943e-05,0
106.48,2.3667e-05,0
106.48,-1.7288e-05,0
106.48,-5.5222e-05,0
106.48,-8.51e-05,0
106.48,-0.00010658,0
106.48,-0.00011833,0
106.48,-0.00012186,0
106.48,-0.00010927,0
106.48,-7.335e-05,0
106.48,-2.9206e-05,0
106.48,1.6785e-06,0
106.48,1.326e-05,0
106.48,9.9031e-06,0
106.48,1.6785e-07,0
106.48,-4.8676e-06,0
106.49,-3.5248e-06,0
106.49,1.2924e-05,0
106.49,5.3376e-05,0
106.49,9.7185e-05,0
106.49,0.0001227,0
106.49,0.0001284,0
106.49,0.00012085,0
106.49,0.00011061,0
106.49,0.00011061,0
106.49,0.00012303,0
106.49,0.00013545,0
106.49,0.00013915,0
106.49,0.00013512,0
106.49,0.00011884,0
106.49,8.7114e-05,0
106.49,4.1627e-05,0
106.49,-5.8747e-06,0
106.49,-4.1459e-05,0
106.49,-6.5797e-05,0
106.5,-9.0135e-05,0
106.5,-0.00011078,0
106.5,-0.00011246,0
106.5,-9.7688e-05,0
106.5,-8.2918e-05,0
106.5,-7.4525e-05,0
106.5,-7.0665e-05,0
106.5,-6.8315e-05,0
106.5,-5.9419e-05,0
106.5,-4.3641e-05,0
106.5,-2.7695e-05,0
106.5,-1.4267e-05,0
106.5,-2.8534e-06,0
106.5,7.2175e-06,0
106.5,1.6617e-05,0
106.5,2.1317e-05,0
106.5,2.1317e-05,0
106.5,2.3331e-05,0
106.5,2.8367e-05,0
106.51,3.743e-05,0
106.51,4.918e-05,0
106.51,6.4958e-05,0
106.51,9.2821e-05,0
106.51,0.0001279,0
106.51,0.00015023,0
106.51,0.00015157,0
106.51,0.00013294,0
106.51,0.00010726,0
106.51,8.04e-05,0
106.51,5.3544e-05,0
106.51,3.2395e-05,0
106.51,1.8631e-05,0
106.51,1.1582e-05,0
106.51,5.2033e-06,0
106.51,-8.896e-06,0
106.51,-2.1988e-05,0
106.51,-2.266e-05,0
106.51,-7.2175e-06,0
106.52,1.8631e-05,0
106.52,4.6494e-05,0
106.52,6.8315e-05,0
106.52,7.5868e-05,0
106.52,6.7979e-05,0
106.52,5.5222e-05,0
106.52,5.3544e-05,0
106.52,6.4286e-05,0
106.52,6.7475e-05,0
106.52,5.4551e-05,0
106.52,3.2059e-05,0
106.52,7.8889e-06,0
106.52,-1.2757e-05,0
106.52,-3.0045e-05,0
106.52,-4.8844e-05,0
106.52,-6.6468e-05,0
106.52,-7.4693e-05,0
106.52,-6.6804e-05,0
106.52,-4.3305e-05,0
106.52,-2.2995e-05,0
106.53,-1.3764e-05,0
106.53,-3.0213e-06,0
106.53,2.5681e-05,0
106.53,6.8315e-05,0
106.53,0.00010423,0
106.53,0.00011531,0
106.53,0.00010507,0
106.53,8.8289e-05,0
106.53,7.0329e-05,0
106.53,4.5487e-05,0
106.53,1.0575e-05,0
106.53,-2.4674e-05,0
106.53,-4.3473e-05,0
106.53,-3.9948e-05,0
106.53,-2.3331e-05,0
106.53,-6.8818e-06,0
106.53,-3.5248e-06,0
106.53,-1.3596e-05,0
106.53,-3.0716e-05,0
106.54,-5.4215e-05,0
106.54,-7.3518e-05,0
106.54,-7.7211e-05,0
106.54,-6.009e-05,0
106.54,-3.2731e-05,0
106.54,-1.1246e-05,0
106.54,-3.6927e-06,0
106.54,-7.3854e-06,0
106.54,-9.5674e-06,0
106.54,-2.8534e-06,0
106.54,1.1078e-05,0
106.54,2.7359e-05,0
106.54,4.2466e-05,0
106.54,5.6901e-05,0
106.54,7.2007e-05,0
106.54,8.5771e-05,0
106.54,9.3156e-05,0
106.54,9.5171e-05,0
106.54,9.366e-05,0
106.55,8.6778e-05,0
106.55,8.04e-05,0
106.55,8.661e-05,0
106.55,9.7185e-05,0
106.55,9.7856e-05,0
106.55,9.2485e-05,0
106.55,8.0735e-05,0
106.55,6.2608e-05,0
106.55,4.3977e-05,0
106.55,2.6017e-05,0
106.55,3.8605e-06,0
106.55,-1.4099e-05,0
106.55,-1.4939e-05,0
106.55,-5.539e-06,0
106.55,-7.2175e-06,0
106.55,-2.7024e-05,0
106.55,-4.8508e-05,0
106.55,-5.2873e-05,0
106.55,-2.4338e-05,0
106.56,1.6617e-05,0
106.56,4.7166e-05,0
106.56,6.9993e-05,0
106.56,8.9464e-05,0
106.56,8.5771e-05,0
106.56,4.3473e-05,0
106.56,-2.1149e-05,0
106.56,-7.6707e-05,0
106.56,-0.0001039,0
106.56,-0.00010877,0
106.56,-0.00010423,0
106.56,-9.5506e-05,0
106.56,-8.3589e-05,0
106.56,-7.3014e-05,0
106.56,-6.5965e-05,0
106.56,-6.8315e-05,0
106.56,-7.3014e-05,0
106.56,-6.2104e-05,0
106.56,-2.6184e-05,0
106.56,2.5681e-05,0
106.57,7.4189e-05,0
106.57,0.00010658,0
106.57,0.00011833,0
106.57,0.00011061,0
106.57,9.2821e-05,0
106.57,7.9393e-05,0
106.57,7.1504e-05,0
106.57,6.5293e-05,0
106.57,6.1097e-05,0
106.57,5.8915e-05,0
106.57,4.7837e-05,0
106.57,2.7359e-05,0
106.57,7.2175e-06,0
106.57,-2.3499e-06,0
106.57,1.8463e-06,0
106.57,2.1988e-05,0
106.57,5.9586e-05,0
106.57,0.00010121,0
106.57,0.00012354,0
106.58,0.00011951,0
106.58,0.00010037,0
106.58,7.9057e-05,0
106.58,6.5629e-05,0
106.58,5.539e-05,0
106.58,3.3066e-05,0
106.58,-5.0355e-07,0
106.58,-2.4506e-05,0
106.58,-3.0549e-05,0
106.58,-3.1388e-05,0
106.58,-3.357e-05,0
106.58,-2.8702e-05,0
106.58,-7.2175e-06,0
106.58,2.2156e-05,0
106.58,4.0452e-05,0
106.58,5.2201e-05,0
106.58,6.1601e-05,0
106.58,6.5965e-05,0
106.58,6.949e-05,0
106.59,8.0064e-05,0
106.59,8.4932e-05,0
106.59,7.1e-05,0
106.59,3.5416e-05,0
106.59,-1.3931e-05,0
106.59,-6.0594e-05,0
106.59,-9.4835e-05,0
106.59,-0.000118,0
106.59,-0.00012941,0
106.59,-0.00012253,0
106.59,-9.987e-05,0
106.59,-7.2007e-05,0
106.59,-4.6159e-05,0
106.59,-2.6017e-05,0
106.59,-5.8747e-06,0
106.59,2.031e-05,0
106.59,4.6662e-05,0
106.59,6.2943e-05,0
106.59,7.1336e-05,0
106.59,7.6707e-05,0
106.6,7.8889e-05,0
106.6,7.7546e-05,0
106.6,7.6036e-05,0
106.6,7.4189e-05,0
106.6,6.9322e-05,0
106.6,5.7908e-05,0
106.6,4.3473e-05,0
106.6,3.1724e-05,0
106.6,2.417e-05,0
106.6,1.7624e-05,0
106.6,1.0071e-05,0
106.6,6.8818e-06,0
106.6,1.2757e-05,0
106.6,1.7792e-05,0
106.6,1.6449e-05,0
106.6,1.4603e-05,0
106.6,1.1582e-05,0
106.6,6.5461e-06,0
106.6,4.8676e-06,0
106.61,1.3596e-05,0
106.61,2.8367e-05,0
106.61,4.0787e-05,0
106.61,4.4816e-05,0
106.61,4.5151e-05,0
106.61,5.4551e-05,0
106.61,8.51e-05,0
106.61,0.00012992,0
106.61,0.00016634,0
106.61,0.00017607,0
106.61,0.000166,0
106.61,0.0001702,0
106.61,0.00019084,0
106.61,0.00019655,0
106.61,0.00016416,0
106.61,0.0001086,0
106.61,6.63e-05,0
106.61,3.7766e-05,0
106.61,-8.896e-06,0
106.62,-7.9393e-05,0
106.62,-0.00014418,0
106.62,-0.00017591,0
106.62,-0.00016667,0
106.62,-0.00014049,0
106.62,-0.00013344,0
106.62,-0.00014284,0
106.62,-0.00014116,0
106.62,-0.00011917,0
106.62,-8.2246e-05,0
106.62,-2.7192e-05,0
106.62,3.743e-05,0
106.62,7.9728e-05,0
106.62,7.9728e-05,0
106.62,3.9109e-05,0
106.62,-2.8367e-05,0
106.62,-9.3492e-05,0
106.62,-0.00013143,0
106.62,-0.00014015,0
106.63,-0.00013025,0
106.63,-0.00011196,0
106.63,-8.7617e-05,0
106.63,-6.009e-05,0
106.63,-3.9612e-05,0
106.63,-3.1052e-05,0
106.63,-2.7359e-05,0
106.63,-2.0478e-05,0
106.63,-3.8605e-06,0
106.63,2.5345e-05,0
106.63,5.7237e-05,0
106.63,7.9057e-05,0
106.63,8.6442e-05,0
106.63,8.5771e-05,0
106.63,8.4428e-05,0
106.63,9.1478e-05,0
106.63,0.00010289,0
106.63,0.00010356,0
106.63,8.7785e-05,0
106.63,6.1097e-05,0
106.64,3.3738e-05,0
106.64,1.8631e-05,0
106.64,1.7121e-05,0
106.64,1.7288e-05,0
106.64,1.5274e-05,0
106.64,2.1317e-05,0
106.64,3.508e-05,0
106.64,4.7166e-05,0
106.64,5.4551e-05,0
106.64,6.5293e-05,0
106.64,8.04e-05,0
106.64,9.4163e-05,0
106.64,9.9199e-05,0
106.64,8.9632e-05,0
106.64,6.3783e-05,0
106.64,3.6088e-05,0
106.64,2.3667e-05,0
106.64,2.7863e-05,0
106.64,3.6759e-05,0
106.65,3.508e-05,0
106.65,2.1317e-05,0
106.65,6.8818e-06,0
106.65,-2.8534e-06,0
106.65,-1.1246e-05,0
106.65,-1.8128e-05,0
106.65,-2.2324e-05,0
106.65,-1.6953e-05,0
106.65,-2.0142e-06,0
106.65,1.6281e-05,0
106.65,3.5752e-05,0
106.65,5.3376e-05,0
106.65,6.8315e-05,0
106.65,8.3085e-05,0
106.65,9.3828e-05,0
106.65,9.8863e-05,0
106.65,9.4499e-05,0
106.65,8.2414e-05,0
106.65,6.8818e-05,0
106.66,6.0594e-05,0
106.66,5.6901e-05,0
106.66,5.623e-05,0
106.66,5.8244e-05,0
106.66,4.9516e-05,0
106.66,2.8031e-05,0
106.66,7.7211e-06,0
106.66,-6.8818e-06,0
106.66,-1.8631e-05,0
106.66,-2.8702e-05,0
106.66,-3.7766e-05,0
106.66,-4.5823e-05,0
106.66,-5.1698e-05,0
106.66,-5.5558e-05,0
106.66,-6.1097e-05,0
106.66,-6.1265e-05,0
106.66,-4.6326e-05,0
106.66,-1.9135e-05,0
106.66,1.2924e-05,0
106.67,4.0955e-05,0
106.67,5.4383e-05,0
106.67,5.2873e-05,0
106.67,4.1123e-05,0
106.67,3.1724e-05,0
106.67,3.0213e-05,0
106.67,3.2731e-05,0
106.67,3.9277e-05,0
106.67,5.2873e-05,0
106.67,7.2343e-05,0
106.67,8.8457e-05,0
106.67,8.6778e-05,0
106.67,6.949e-05,0
106.67,4.5487e-05,0
106.67,1.8463e-05,0
106.67,-6.2104e-06,0
106.67,-2.5177e-05,0
106.67,-4.1123e-05,0
106.67,-6.1097e-05,0
106.67,-8.6778e-05,0
106.68,-9.9367e-05,0
106.68,-8.51e-05,0
106.68,-5.6062e-05,0
106.68,-3.0381e-05,0
106.68,-7.5532e-06,0
106.68,2.266e-05,0
106.68,6.3615e-05,0
106.68,0.00010726,0
106.68,0.00013613,0
106.68,0.00014267,0
106.68,0.00012807,0
106.68,9.2485e-05,0
106.68,4.1459e-05,0
106.68,-6.714e-06,0
106.68,-3.6759e-05,0
106.68,-4.4648e-05,0
106.68,-3.7095e-05,0
106.68,-2.8031e-05,0
106.68,-2.1988e-05,0
106.69,-1.796e-05,0
106.69,-2.2156e-05,0
106.69,-4.0452e-05,0
106.69,-6.4958e-05,0
106.69,-7.7043e-05,0
106.69,-6.714e-05,0
106.69,-4.2466e-05,0
106.69,-2.1653e-05,0
106.69,-1.1414e-05,0
106.69,-1.6785e-06,0
106.69,1.6617e-05,0
106.69,4.062e-05,0
106.69,6.4958e-05,0
106.69,8.8121e-05,0
106.69,0.00010188,0
106.69,0.00010088,0
106.69,8.5771e-05,0
106.69,6.4622e-05,0
106.69,4.6494e-05,0
106.7,3.5416e-05,0
106.7,3.5248e-05,0
106.7,5.2201e-05,0
106.7,7.2343e-05,0
106.7,7.3686e-05,0
106.7,7.1504e-05,0
106.7,9.836e-05,0
106.7,0.00014351,0
106.7,0.00017238,0
106.7,0.00017272,0
106.7,0.0001519,0
106.7,0.00011649,0
106.7,7.3014e-05,0
106.7,3.2059e-05,0
106.7,-3.8605e-06,0
106.7,-3.9948e-05,0
106.7,-8.1743e-05,0
106.7,-0.00012454,0
106.7,-0.00015761,0
106.7,-0.00017859,0
106.71,-0.00017775,0
106.71,-0.00014704,0
106.71,-9.2988e-05,0
106.71,-4.1794e-05,0
106.71,-1.4267e-05,0
106.71,-6.5461e-06,0
106.71,-1.6785e-07,0
106.71,1.5106e-05,0
106.71,3.9612e-05,0
106.71,5.7404e-05,0
106.71,5.9419e-05,0
106.71,5.4215e-05,0
106.71,4.7837e-05,0
106.71,3.3738e-05,0
106.71,2.2156e-05,0
106.71,2.0981e-05,0
106.71,1.4603e-05,0
106.71,2.182e-06,0
106.71,7.5532e-06,0
106.72,3.4745e-05,0
106.72,6.9657e-05,0
106.72,9.836e-05,0
106.72,0.00011263,0
106.72,0.00010961,0
106.72,9.2485e-05,0
106.72,6.8818e-05,0
106.72,3.9948e-05,0
106.72,1.1749e-05,0
106.72,-3.5248e-06,0
106.72,-8.5603e-06,0
106.72,-1.4603e-05,0
106.72,-2.266e-05,0
106.72,-2.0981e-05,0
106.72,-1.1749e-06,0
106.72,4.2802e-05,0
106.72,0.0001086,0
106.72,0.00016416,0
106.72,0.00018816,0
106.73,0.00017675,0
106.73,0.0001425,0
106.73,0.00010138,0
106.73,5.2873e-05,0
106.73,-1.5106e-06,0
106.73,-4.8844e-05,0
106.73,-8.661e-05,0
106.73,-0.00011884,0
106.73,-0.00013327,0
106.73,-0.00012438,0
106.73,-0.00010826,0
106.73,-0.00010491,0
106.73,-0.00010961,0
106.73,-9.4163e-05,0
106.73,-6.0258e-05,0
106.73,-3.0381e-05,0
106.73,-1.3764e-05,0
106.73,-7.5532e-06,0
106.73,-1.2924e-05,0
106.74,-2.6352e-05,0
106.74,-4.0787e-05,0
106.74,-4.7501e-05,0
106.74,-4.4984e-05,0
106.74,-3.7598e-05,0
106.74,-3.1891e-05,0
106.74,-3.2395e-05,0
106.74,-2.9709e-05,0
106.74,-1.3596e-05,0
106.74,1.1414e-05,0
106.74,3.3738e-05,0
106.74,4.7501e-05,0
106.74,5.8412e-05,0
106.74,6.9322e-05,0
106.74,7.5029e-05,0
106.74,7.1e-05,0
106.74,6.0929e-05,0
106.74,5.0523e-05,0
106.74,4.7333e-05,0
106.75,5.7908e-05,0
106.75,7.5029e-05,0
106.75,8.7785e-05,0
106.75,9.7185e-05,0
106.75,0.00010373,0
106.75,0.00010188,0
106.75,9.2149e-05,0
106.75,7.5868e-05,0
106.75,5.7572e-05,0
106.75,4.4648e-05,0
106.75,4.213e-05,0
106.75,4.5151e-05,0
106.75,4.5823e-05,0
106.75,4.6159e-05,0
106.75,4.9516e-05,0
106.75,5.3544e-05,0
106.75,5.8076e-05,0
106.75,6.9322e-05,0
106.75,8.3925e-05,0
106.75,0.00010457,0
106.76,0.0001331,0
106.76,0.0001608,0
106.76,0.00018228,0
106.76,0.00020175,0
106.76,0.00021199,0
106.76,0.00019823,0
106.76,0.00015996,0
106.76,0.00011061,0
106.76,7.0329e-05,0
106.76,4.4816e-05,0
106.76,1.5946e-05,0
106.76,-2.9541e-05,0
106.76,-8.4428e-05,0
106.76,-0.00013428,0
106.76,-0.00017624,0
106.76,-0.00020293,0
106.76,-0.00020679,0
106.76,-0.00019353,0
106.76,-0.00017473,0
106.77,-0.00015694,0
106.77,-0.00013764,0
106.77,-0.00011481,0
106.77,-9.131e-05,0
106.77,-6.9322e-05,0
106.77,-4.6159e-05,0
106.77,-2.2324e-05,0
106.77,-1.0071e-06,0
106.77,1.1582e-05,0
106.77,1.9135e-05,0
106.77,2.8367e-05,0
106.77,3.7263e-05,0
106.77,3.5416e-05,0
106.77,2.4002e-05,0
106.77,1.6953e-05,0
106.77,2.3331e-05,0
106.77,3.9109e-05,0
106.77,5.7237e-05,0
106.77,7.0665e-05,0
106.78,7.57e-05,0
106.78,7.4525e-05,0
106.78,6.865e-05,0
106.78,5.8412e-05,0
106.78,4.4312e-05,0
106.78,2.9877e-05,0
106.78,2.1988e-05,0
106.78,1.9806e-05,0
106.78,1.9135e-05,0
106.78,1.8967e-05,0
106.78,1.796e-05,0
106.78,1.8463e-05,0
106.78,2.0142e-05,0
106.78,2.3163e-05,0
106.78,3.2898e-05,0
106.78,3.9445e-05,0
106.78,3.5416e-05,0
106.78,2.1317e-05,0
106.78,5.539e-06,0
106.78,-6.3783e-06,0
106.79,-8.7282e-06,0
106.79,2.3499e-06,0
106.79,1.1582e-05,0
106.79,1.6785e-07,0
106.79,-2.3667e-05,0
106.79,-3.5416e-05,0
106.79,-2.0981e-05,0
106.79,2.0981e-05,0
106.79,7.3014e-05,0
106.79,0.00011196,0
106.79,0.0001321,0
106.79,0.00014737,0
106.79,0.0001707,0
106.79,0.00018631,0
106.79,0.00017238,0
106.79,0.00013075,0
106.79,7.8721e-05,0
106.79,3.7934e-05,0
106.79,1.2253e-05,0
106.8,-7.5532e-06,0
106.8,-2.031e-05,0
106.8,-3.0716e-05,0
106.8,-4.5487e-05,0
106.8,-6.4958e-05,0
106.8,-8.3421e-05,0
106.8,-9.0303e-05,0
106.8,-8.0735e-05,0
106.8,-6.5965e-05,0
106.8,-6.1265e-05,0
106.8,-6.7811e-05,0
106.8,-7.5029e-05,0
106.8,-7.6707e-05,0
106.8,-7.0329e-05,0
106.8,-6.7979e-05,0
106.8,-7.805e-05,0
106.8,-8.0735e-05,0
106.8,-5.5894e-05,0
106.8,-1.326e-05,0
106.81,2.5849e-05,0
106.81,4.7837e-05,0
106.81,5.6733e-05,0
106.81,6.1097e-05,0
106.81,6.4286e-05,0
106.81,6.4286e-05,0
106.81,5.8579e-05,0
106.81,5.2537e-05,0
106.81,6.244e-05,0
106.81,0.00010222,0
106.81,0.0001462,0
106.81,0.00016231,0
106.81,0.0001425,0
106.81,0.00010289,0
106.81,5.7572e-05,0
106.81,1.561e-05,0
106.81,-1.4939e-05,0
106.81,-3.3402e-05,0
106.81,-4.8676e-05,0
106.82,-6.3279e-05,0
106.82,-6.3111e-05,0
106.82,-4.5823e-05,0
106.82,-2.3163e-05,0
106.82,7.8889e-06,0
106.82,4.448e-05,0
106.82,7.1e-05,0
106.82,8.04e-05,0
106.82,8.6946e-05,0
106.82,9.987e-05,0
106.82,0.00010524,0
106.82,9.6513e-05,0
106.82,8.4764e-05,0
106.82,7.8553e-05,0
106.82,8.04e-05,0
106.82,8.9128e-05,0
106.82,9.6849e-05,0
106.82,8.8121e-05,0
106.82,6.479e-05,0
106.83,4.1291e-05,0
106.83,2.5177e-05,0
106.83,1.4267e-05,0
106.83,1.6785e-07,0
106.83,-2.1317e-05,0
106.83,-4.062e-05,0
106.83,-4.1123e-05,0
106.83,-2.8702e-05,0
106.83,-3.0045e-05,0
106.83,-5.623e-05,0
106.83,-8.0232e-05,0
106.83,-6.8315e-05,0
106.83,-2.8199e-05,0
106.83,6.8818e-06,0
106.83,1.7792e-05,0
106.83,1.3092e-05,0
106.83,8.0568e-06,0
106.83,1.091e-05,0
106.83,2.2492e-05,0
106.83,3.4409e-05,0
106.84,3.9445e-05,0
106.84,3.5752e-05,0
106.84,2.3331e-05,0
106.84,6.5461e-06,0
106.84,-6.3783e-06,0
106.84,-1.3596e-05,0
106.84,-1.561e-05,0
106.84,-1.2924e-05,0
106.84,-8.0568e-06,0
106.84,-5.539e-06,0
106.84,-9.9031e-06,0
106.84,-1.6617e-05,0
106.84,-1.8631e-05,0
106.84,-1.561e-05,0
106.84,-1.0407e-05,0
106.84,-6.5461e-06,0
106.84,5.0355e-07,0
106.84,2.4674e-05,0
106.84,6.5126e-05,0
106.85,0.00010373,0
106.85,0.00012874,0
106.85,0.00013411,0
106.85,0.00012337,0
106.85,0.00012068,0
106.85,0.00012975,0
106.85,0.00012488,0
106.85,9.7185e-05,0
106.85,5.7404e-05,0
106.85,1.6449e-05,0
106.85,-1.9471e-05,0
106.85,-5.0858e-05,0
106.85,-7.9896e-05,0
106.85,-9.6513e-05,0
106.85,-9.4499e-05,0
106.85,-7.8386e-05,0
106.85,-5.1194e-05,0
106.85,-2.4338e-05,0
106.85,-1.5778e-05,0
106.86,-2.4002e-05,0
106.86,-2.9709e-05,0
106.86,-2.1653e-05,0
106.86,-7.2175e-06,0
106.86,1.1749e-06,0
106.86,4.8676e-06,0
106.86,1.8463e-05,0
106.86,5.6901e-05,0
106.86,0.00011246,0
106.86,0.00016567,0
106.86,0.00019387,0
106.86,0.00018732,0
106.86,0.00015862,0
106.86,0.00012639,0
106.86,9.8527e-05,0
106.86,7.4357e-05,0
106.86,5.1698e-05,0
106.86,3.3234e-05,0
106.86,1.6617e-05,0
106.86,3.8605e-06,0
106.87,4.1962e-06,0
106.87,7.2175e-06,0
106.87,-6.714e-07,0
106.87,-2.2156e-05,0
106.87,-5.6062e-05,0
106.87,-9.6849e-05,0
106.87,-0.00013864,0
106.87,-0.00017053,0
106.87,-0.00018363,0
106.87,-0.00017087,0
106.87,-0.0001326,0
106.87,-8.191e-05,0
106.87,-3.6088e-05,0
106.87,-1.3596e-05,0
106.87,-1.3596e-05,0
106.87,-1.4939e-05,0
106.87,5.8747e-06,0
106.87,4.3473e-05,0
106.87,7.3518e-05,0
106.88,8.191e-05,0
106.88,7.3182e-05,0
106.88,5.2369e-05,0
106.88,3.1052e-05,0
106.88,1.5442e-05,0
106.88,-3.8605e-06,0
106.88,-2.6352e-05,0
106.88,-4.3137e-05,0
106.88,-4.5991e-05,0
106.88,-3.1891e-05,0
106.88,-2.3499e-06,0
106.88,3.9277e-05,0
106.88,0.00010356,0
106.88,0.00017708,0
106.88,0.00022408,0
106.88,0.00023146,0
106.88,0.00021065,0
106.88,0.00017037,0
106.88,0.00011901,0
106.89,7.4357e-05,0
106.89,4.0787e-05,0
106.89,1.3596e-05,0
106.89,-1.2924e-05,0
106.89,-3.6927e-05,0
106.89,-5.4215e-05,0
106.89,-7.2007e-05,0
106.89,-9.8527e-05,0
106.89,-0.00012186,0
106.89,-0.00011531,0
106.89,-7.8721e-05,0
106.89,-4.1794e-05,0
106.89,-2.182e-05,0
106.89,-1.4603e-05,0
106.89,-1.091e-05,0
106.89,0,0
106.89,2.3331e-05,0
106.89,5.0187e-05,0
106.89,6.7475e-05,0
106.9,7.5364e-05,0
106.9,7.7714e-05,0
106.9,7.3686e-05,0
106.9,6.4958e-05,0
106.9,5.6733e-05,0
106.9,5.3544e-05,0
106.9,5.6733e-05,0
106.9,6.2272e-05,0
106.9,6.3279e-05,0
106.9,5.6062e-05,0
106.9,4.6494e-05,0
106.9,4.1123e-05,0
106.9,3.7766e-05,0
106.9,3.5416e-05,0
106.9,3.6927e-05,0
106.9,4.0116e-05,0
106.9,3.8102e-05,0
106.9,3.3738e-05,0
106.9,3.4073e-05,0
106.9,3.6591e-05,0
106.91,4.0284e-05,0
106.91,4.8173e-05,0
106.91,5.8915e-05,0
106.91,6.3951e-05,0
106.91,6.1601e-05,0
106.91,5.539e-05,0
106.91,4.9516e-05,0
106.91,4.4984e-05,0
106.91,3.8437e-05,0
106.91,2.6688e-05,0
106.91,1.2589e-05,0
106.91,2.3499e-06,0
106.91,0,0
106.91,2.8534e-06,0
106.91,1.2924e-05,0
106.91,5.539e-05,0
106.91,0.00012807,0
106.91,0.00018715,0
106.91,0.00020528,0
106.92,0.00019353,0
106.92,0.00017104,0
106.92,0.0001368,0
106.92,9.5506e-05,0
106.92,5.3544e-05,0
106.92,1.0742e-05,0
106.92,-1.8631e-05,0
106.92,-2.0645e-05,0
106.92,-1.7624e-05,0
106.92,-3.122e-05,0
106.92,-6.2608e-05,0
106.92,-9.0303e-05,0
106.92,-0.00010155,0
106.92,-0.00011431,0
106.92,-0.00014418,0
106.92,-0.00018614,0
106.92,-0.00022173,0
106.92,-0.00023532,0
106.92,-0.00022542,0
106.93,-0.00020645,0
106.93,-0.00018648,0
106.93,-0.00016818,0
106.93,-0.00015761,0
106.93,-0.0001509,0
106.93,-0.00013462,0
106.93,-9.7185e-05,0
106.93,-4.5823e-05,0
106.93,4.8676e-06,0
106.93,4.683e-05,0
106.93,8.4764e-05,0
106.93,0.00012119,0
106.93,0.00015761,0
106.93,0.00018547,0
106.93,0.00018682,0
106.93,0.00016013,0
106.93,0.0001237,0
106.93,9.1814e-05,0
106.93,6.63e-05,0
106.94,4.2466e-05,0
106.94,1.9135e-05,0
106.94,1.6785e-07,0
106.94,-1.091e-05,0
106.94,-1.1246e-05,0
106.94,-3.8605e-06,0
106.94,4.1962e-06,0
106.94,6.8818e-06,0
106.94,1.0239e-05,0
106.94,1.7792e-05,0
106.94,3.2731e-05,0
106.94,7.4693e-05,0
106.94,0.00015224,0
106.94,0.00023062,0
106.94,0.00027225,0
106.94,0.00026621,0
106.94,0.00022441,0
106.94,0.00016063,0
106.94,8.7449e-05,0
106.94,2.1317e-05,0
106.95,-2.5513e-05,0
106.95,-5.8244e-05,0
106.95,-8.6946e-05,0
106.95,-0.00011246,0
106.95,-0.00012287,0
106.95,-0.00011699,0
106.95,-0.00010155,0
106.95,-8.3421e-05,0
106.95,-6.9322e-05,0
106.95,-5.9083e-05,0
106.95,-4.7837e-05,0
106.95,-3.4073e-05,0
106.95,-1.4435e-05,0
106.95,5.8747e-06,0
106.95,1.8296e-05,0
106.95,2.5345e-05,0
106.95,4.1794e-05,0
106.95,6.7308e-05,0
106.95,8.8457e-05,0
106.96,0.00010121,0
106.96,0.00011028,0
106.96,0.00012589,0
106.96,0.00014586,0
106.96,0.00016667,0
106.96,0.00018329,0
106.96,0.00018715,0
106.96,0.00016835,0
106.96,0.0001274,0
106.96,7.1672e-05,0
106.96,1.326e-05,0
106.96,-3.4073e-05,0
106.96,-6.2776e-05,0
106.96,-7.3686e-05,0
106.96,-7.6875e-05,0
106.96,-8.426e-05,0
106.96,-9.9535e-05,0
106.96,-0.00011565,0
106.96,-0.00012001,0
106.97,-0.00010222,0
106.97,-6.8986e-05,0
106.97,-3.5752e-05,0
106.97,-1.2924e-05,0
106.97,4.8676e-06,0
106.97,3.3402e-05,0
106.97,7.4022e-05,0
106.97,0.00011196,0
106.97,0.00014351,0
106.97,0.00017406,0
106.97,0.0001989,0
106.97,0.00019957,0
106.97,0.00017272,0
106.97,0.00013109,0
106.97,8.8457e-05,0
106.97,4.9851e-05,0
106.97,7.5532e-06,0
106.97,-5.153e-05,0
106.97,-0.00011649,0
106.97,-0.00014804,0
106.98,-0.00013428,0
106.98,-0.00010205,0
106.98,-8.1743e-05,0
106.98,-8.0735e-05,0
106.98,-8.4428e-05,0
106.98,-7.7379e-05,0
106.98,-4.8173e-05,0
106.98,-1.1078e-05,0
106.98,1.5106e-05,0
106.98,2.4506e-05,0
106.98,2.1149e-05,0
106.98,1.9471e-05,0
106.98,2.9038e-05,0
106.98,3.3738e-05,0
106.98,2.266e-05,0
106.98,2.182e-06,0
106.98,-1.3764e-05,0
106.98,-1.9303e-05,0
106.98,-1.6281e-05,0
106.99,-1.0239e-05,0
106.99,3.357e-07,0
106.99,1.9974e-05,0
106.99,4.5151e-05,0
106.99,7.4022e-05,0
106.99,0.00010826,0
106.99,0.00013243,0
106.99,0.00014066,0
106.99,0.00013411,0
106.99,0.00011649,0
106.99,9.1981e-05,0
106.99,6.1601e-05,0
106.99,2.4842e-05,0
106.99,-9.0639e-06,0
106.99,-2.6688e-05,0
106.99,-2.9877e-05,0
106.99,-3.2395e-05,0
106.99,-4.4312e-05,0
106.99,-5.7572e-05,0
107,-5.2369e-05,0
107,-2.501e-05,0
107,2.5177e-06,0
107,1.2589e-05,0
107,1.0407e-05,0
107,9.9031e-06,0
107,2.0645e-05,0
107,4.1794e-05,0
107,6.8315e-05,0
107,9.1142e-05,0
107,9.3828e-05,0
107,7.8218e-05,0
107,6.1097e-05,0
107,5.0187e-05,0
107,4.4312e-05,0
107,3.7934e-05,0
107,2.6352e-05,0
107,6.3783e-06,0
107,-5.0355e-06,0
107.01,1.2589e-05,0
107.01,7.7714e-05,0
107.01,0.00015727,0
107.01,0.00020427,0
107.01,0.00020259,0
107.01,0.00017003,0
107.01,0.00012387,0
107.01,6.1936e-05,0
107.01,-5.539e-06,0
107.01,-5.5894e-05,0
107.01,-5.2873e-05,0
107.01,4.3641e-06,0
107.01,4.5823e-05,0
107.01,3.0213e-05,0
107.01,-2.1149e-05,0
107.01,-8.1407e-05,0
107.01,-0.0001368,0
107.01,-0.00017708,0
107.01,-0.00019638,0
107.02,-0.00019655,0
107.02,-0.00018732,0
107.02,-0.00016617,0
107.02,-0.00013008,0
107.02,-9.4163e-05,0
107.02,-6.4118e-05,0
107.02,-3.4577e-05,0
107.02,-4.5319e-06,0
107.02,2.6688e-05,0
107.02,5.6901e-05,0
107.02,6.6804e-05,0
107.02,4.7501e-05,0
107.02,1.6617e-05,0
107.02,-5.539e-06,0
107.02,-1.4603e-05,0
107.02,-1.6617e-05,0
107.02,-1.2085e-05,0
107.02,1.5106e-06,0
107.02,2.3331e-05,0
107.02,4.9516e-05,0
107.03,6.8147e-05,0
107.03,7.57e-05,0
107.03,7.57e-05,0
107.03,7.1504e-05,0
107.03,6.2272e-05,0
107.03,5.0858e-05,0
107.03,4.6494e-05,0
107.03,5.3208e-05,0
107.03,6.7979e-05,0
107.03,8.1239e-05,0
107.03,8.8121e-05,0
107.03,9.1478e-05,0
107.03,9.752e-05,0
107.03,0.00010457,0
107.03,0.00010054,0
107.03,8.3925e-05,0
107.03,6.5629e-05,0
107.03,5.5894e-05,0
107.03,5.7069e-05,0
107.04,7.1e-05,0
107.04,8.4428e-05,0
107.04,7.4693e-05,0
107.04,3.4073e-05,0
107.04,-1.1246e-05,0
107.04,-4.5487e-05,0
107.04,-6.9322e-05,0
107.04,-8.4932e-05,0
107.04,-9.3996e-05,0
107.04,-9.8527e-05,0
107.04,-9.7856e-05,0
107.04,-9.1478e-05,0
107.04,-8.04e-05,0
107.04,-6.4958e-05,0
107.04,-4.1794e-05,0
107.04,-1.2421e-05,0
107.04,1.4603e-05,0
107.04,3.6088e-05,0
107.04,5.1362e-05,0
107.05,6.2104e-05,0
107.05,7.5029e-05,0
107.05,9.366e-05,0
107.05,0.00011196,0
107.05,0.00012673,0
107.05,0.00013545,0
107.05,0.00013445,0
107.05,0.0001227,0
107.05,0.00010306,0
107.05,8.04e-05,0
107.05,5.7908e-05,0
107.05,3.6088e-05,0
107.05,1.4603e-05,0
107.05,-5.539e-06,0
107.05,-1.5106e-05,0
107.05,-1.1917e-05,0
107.05,-2.5177e-06,0
107.05,1.0407e-05,0
107.05,2.8534e-05,0
107.06,4.7333e-05,0
107.06,6.1769e-05,0
107.06,7.2343e-05,0
107.06,8.6442e-05,0
107.06,0.00011011,0
107.06,0.00013545,0
107.06,0.00014536,0
107.06,0.00012908,0
107.06,9.0806e-05,0
107.06,4.5487e-05,0
107.06,1.2085e-05,0
107.06,-8.7282e-06,0
107.06,-2.1149e-05,0
107.06,-2.4002e-05,0
107.06,-2.4002e-05,0
107.06,-3.4745e-05,0
107.06,-6.3615e-05,0
107.06,-9.836e-05,0
107.06,-0.00012387,0
107.06,-0.00014015,0
107.07,-0.00014939,0
107.07,-0.00014771,0
107.07,-0.00013227,0
107.07,-0.00010306,0
107.07,-6.8818e-05,0
107.07,-4.062e-05,0
107.07,-2.031e-05,0
107.07,-5.7069e-06,0
107.07,5.2033e-06,0
107.07,1.091e-05,0
107.07,1.9638e-05,0
107.07,4.683e-05,0
107.07,9.0471e-05,0
107.07,0.00012303,0
107.07,0.00013008,0
107.07,0.00012035,0
107.07,0.00010306,0
107.07,8.0903e-05,0
107.07,6.009e-05,0
107.08,4.5487e-05,0
107.08,3.3066e-05,0
107.08,1.7288e-05,0
107.08,2.3499e-06,0
107.08,-7.8889e-06,0
107.08,-1.2253e-05,0
107.08,-8.2246e-06,0
107.08,1.1749e-06,0
107.08,1.0239e-05,0
107.08,3.2059e-05,0
107.08,9.7185e-05,0
107.08,0.00018379,0
107.08,0.00023532,0
107.08,0.000236,0
107.08,0.00020226,0
107.08,0.00014972,0
107.08,8.5771e-05,0
107.08,2.1317e-05,0
107.08,-2.8702e-05,0
107.09,-6.5126e-05,0
107.09,-9.5171e-05,0
107.09,-0.00012572,0
107.09,-0.0001566,0
107.09,-0.00018698,0
107.09,-0.0002078,0
107.09,-0.0002031,0
107.09,-0.00016735,0
107.09,-0.00011431,0
107.09,-6.63e-05,0
107.09,-3.4073e-05,0
107.09,-1.7792e-05,0
107.09,-1.1246e-05,0
107.09,-6.0426e-06,0
107.09,3.8605e-06,0
107.09,2.7863e-05,0
107.09,6.3615e-05,0
107.09,9.3828e-05,0
107.09,0.00010793,0
107.09,0.00010541,0
107.1,8.8289e-05,0
107.1,6.9993e-05,0
107.1,6.1601e-05,0
107.1,5.8579e-05,0
107.1,5.5222e-05,0
107.1,5.2033e-05,0
107.1,5.2201e-05,0
107.1,5.2201e-05,0
107.1,4.8508e-05,0
107.1,4.5823e-05,0
107.1,5.6565e-05,0
107.1,7.6036e-05,0
107.1,9.0471e-05,0
107.1,9.752e-05,0
107.1,0.00010088,0
107.1,9.987e-05,0
107.1,8.7617e-05,0
107.1,6.5293e-05,0
107.1,4.8508e-05,0
107.11,4.8844e-05,0
107.11,6.0929e-05,0
107.11,6.8818e-05,0
107.11,6.1601e-05,0
107.11,3.6088e-05,0
107.11,-6.5461e-06,0
107.11,-5.0187e-05,0
107.11,-8.0735e-05,0
107.11,-9.3156e-05,0
107.11,-8.9296e-05,0
107.11,-8.2078e-05,0
107.11,-7.8386e-05,0
107.11,-7.6371e-05,0
107.11,-7.4693e-05,0
107.11,-7.0161e-05,0
107.11,-5.5726e-05,0
107.11,-3.1052e-05,0
107.11,-4.1962e-06,0
107.11,1.1078e-05,0
107.12,7.8889e-06,0
107.12,-2.182e-06,0
107.12,-7.2175e-06,0
107.12,-2.5177e-06,0
107.12,8.5603e-06,0
107.12,2.1317e-05,0
107.12,3.1052e-05,0
107.12,4.2802e-05,0
107.12,6.0761e-05,0
107.12,8.51e-05,0
107.12,0.00011196,0
107.12,0.0001284,0
107.12,0.00012874,0
107.12,0.00012874,0
107.12,0.00013176,0
107.12,0.00012186,0
107.12,9.4835e-05,0
107.12,6.4286e-05,0
107.12,4.0955e-05,0
107.13,2.4002e-05,0
107.13,7.0497e-06,0
107.13,4.3641e-06,0
107.13,3.6759e-05,0
107.13,7.8553e-05,0
107.13,0.00010373,0
107.13,0.00010927,0
107.13,9.601e-05,0
107.13,5.8244e-05,0
107.13,0,0
107.13,-4.9851e-05,0
107.13,-7.57e-05,0
107.13,-8.9632e-05,0
107.13,-0.00010054,0
107.13,-0.00010021,0
107.13,-7.6036e-05,0
107.13,-2.5345e-05,0
107.13,4.6494e-05,0
107.13,0.00011766,0
107.14,0.00014989,0
107.14,0.00013143,0
107.14,8.2918e-05,0
107.14,2.9374e-05,0
107.14,-1.8799e-05,0
107.14,-6.2272e-05,0
107.14,-0.00010558,0
107.14,-0.00014284,0
107.14,-0.00016399,0
107.14,-0.00016902,0
107.14,-0.00015157,0
107.14,-0.00011229,0
107.14,-6.9322e-05,0
107.14,-2.7359e-05,0
107.14,1.2924e-05,0
107.14,4.1459e-05,0
107.14,4.4984e-05,0
107.14,2.7695e-05,0
107.14,6.5461e-06,0
107.14,-7.2175e-06,0
107.15,-1.7456e-05,0
107.15,-3.0381e-05,0
107.15,-4.3137e-05,0
107.15,-4.5487e-05,0
107.15,-3.9109e-05,0
107.15,-2.2492e-05,0
107.15,3.8605e-06,0
107.15,2.8031e-05,0
107.15,4.2802e-05,0
107.15,5.1865e-05,0
107.15,6.3615e-05,0
107.15,8.4092e-05,0
107.15,0.00012186,0
107.15,0.00016802,0
107.15,0.00019051,0
107.15,0.00018329,0
107.15,0.00015996,0
107.15,0.00012874,0
107.15,9.4667e-05,0
107.16,6.009e-05,0
107.16,3.1052e-05,0
107.16,2.1988e-05,0
107.16,3.592e-05,0
107.16,6.009e-05,0
107.16,7.7043e-05,0
107.16,7.8218e-05,0
107.16,6.8315e-05,0
107.16,5.8915e-05,0
107.16,4.6998e-05,0
107.16,2.8534e-05,0
107.16,1.1749e-05,0
107.16,1.1749e-06,0
107.16,-6.0426e-06,0
107.16,-7.0497e-06,0
107.16,-5.539e-06,0
107.16,-7.7211e-06,0
107.16,-1.5442e-05,0
107.16,-2.7024e-05,0
107.17,-3.4745e-05,0
107.17,-3.0381e-05,0
107.17,-1.6281e-05,0
107.17,-1.5106e-06,0
107.17,8.896e-06,0
107.17,1.4939e-05,0
107.17,1.796e-05,0
107.17,1.9974e-05,0
107.17,2.0645e-05,0
107.17,2.6352e-05,0
107.17,4.1962e-05,0
107.17,6.5629e-05,0
107.17,8.9632e-05,0
107.17,0.00010373,0
107.17,0.00010457,0
107.17,9.8695e-05,0
107.17,9.2149e-05,0
107.17,7.9225e-05,0
107.17,5.1865e-05,0
107.17,1.6953e-05,0
107.18,-1.4435e-05,0
107.18,-3.4577e-05,0
107.18,-4.213e-05,0
107.18,-3.9445e-05,0
107.18,-3.1052e-05,0
107.18,-2.2324e-05,0
107.18,-2.2995e-05,0
107.18,-3.6088e-05,0
107.18,-4.9683e-05,0
107.18,-4.8508e-05,0
107.18,-3.1724e-05,0
107.18,-1.2924e-05,0
107.18,-2.182e-06,0
107.18,-1.5106e-06,0
107.18,-3.1891e-06,0
107.18,1.2085e-05,0
107.18,4.7501e-05,0
107.18,8.2246e-05,0
107.18,9.752e-05,0
107.19,9.4667e-05,0
107.19,8.9464e-05,0
107.19,8.6442e-05,0
107.19,7.6707e-05,0
107.19,5.388e-05,0
107.19,2.4506e-05,0
107.19,3.0213e-06,0
107.19,-1.5106e-06,0
107.19,1.2589e-05,0
107.19,5.7237e-05,0
107.19,0.00011666,0
107.19,0.00015023,0
107.19,0.00013864,0
107.19,9.2485e-05,0
107.19,3.6088e-05,0
107.19,3.0213e-06,0
107.19,-1.6785e-06,0
107.19,1.1749e-06,0
107.19,-7.0497e-06,0
107.2,-3.6088e-05,0
107.2,-8.0232e-05,0
107.2,-0.00011565,0
107.2,-0.00011968,0
107.2,-0.00010021,0
107.2,-6.7643e-05,0
107.2,-1.7288e-05,0
107.2,4.6494e-05,0
107.2,0.00011363,0
107.2,0.00016432,0
107.2,0.00018883,0
107.2,0.00019638,0
107.2,0.00018547,0
107.2,0.00014754,0
107.2,7.8889e-05,0
107.2,1.1749e-06,0
107.2,-6.1936e-05,0
107.2,-0.00010961,0
107.2,-0.00015358,0
107.21,-0.0001984,0
107.21,-0.00024053,0
107.21,-0.00027813,0
107.21,-0.00030565,0
107.21,-0.00031388,0
107.21,-0.00029105,0
107.21,-0.00023482,0
107.21,-0.0001566,0
107.21,-7.4693e-05,0
107.21,-8.896e-06,0
107.21,3.5248e-05,0
107.21,6.4958e-05,0
107.21,8.4428e-05,0
107.21,9.5506e-05,0
107.21,0.00010121,0
107.21,0.00011733,0
107.21,0.00016013,0
107.21,0.00018917,0
107.21,0.000165,0
107.21,0.00010491,0
107.22,4.683e-05,0
107.22,3.5248e-06,0
107.22,-2.5681e-05,0
107.22,-3.3066e-05,0
107.22,-1.1582e-05,0
107.22,3.0045e-05,0
107.22,8.7953e-05,0
107.22,0.00014888,0
107.22,0.00018564,0
107.22,0.00018312,0
107.22,0.00015492,0
107.22,0.00012035,0
107.22,8.1071e-05,0
107.22,3.4241e-05,0
107.22,-1.1246e-05,0
107.22,-4.5823e-05,0
107.22,-6.5797e-05,0
107.22,-6.9993e-05,0
107.22,-5.8579e-05,0
107.23,-4.213e-05,0
107.23,-2.7024e-05,0
107.23,-9.2317e-06,0
107.23,1.561e-05,0
107.23,3.5752e-05,0
107.23,4.4816e-05,0
107.23,4.4144e-05,0
107.23,3.6423e-05,0
107.23,3.0884e-05,0
107.23,3.4745e-05,0
107.23,4.6326e-05,0
107.23,6.0929e-05,0
107.23,7.335e-05,0
107.23,7.9057e-05,0
107.23,8.0568e-05,0
107.23,8.1407e-05,0
107.23,8.1071e-05,0
107.23,7.8386e-05,0
107.23,7.4693e-05,0
107.24,7.0329e-05,0
107.24,6.63e-05,0
107.24,6.2776e-05,0
107.24,7.0329e-05,0
107.24,8.4764e-05,0
107.24,8.9128e-05,0
107.24,7.9057e-05,0
107.24,5.9419e-05,0
107.24,3.9948e-05,0
107.24,2.4002e-05,0
107.24,1.0575e-05,0
107.24,-1.5106e-06,0
107.24,-9.7353e-06,0
107.24,-9.2317e-06,0
107.24,6.5461e-06,0
107.24,3.2731e-05,0
107.24,5.7237e-05,0
107.24,7.2175e-05,0
107.24,7.8889e-05,0
107.25,7.805e-05,0
107.25,7.2007e-05,0
107.25,5.9922e-05,0
107.25,4.2634e-05,0
107.25,2.3835e-05,0
107.25,3.1891e-06,0
107.25,-1.9471e-05,0
107.25,-3.743e-05,0
107.25,-4.1123e-05,0
107.25,-3.1052e-05,0
107.25,-2.1988e-05,0
107.25,-2.0645e-05,0
107.25,-2.266e-05,0
107.25,-2.6352e-05,0
107.25,-2.9374e-05,0
107.25,-2.501e-05,0
107.25,-5.539e-06,0
107.25,3.2059e-05,0
107.25,7.6539e-05,0
107.25,0.00012001,0
107.26,0.00014871,0
107.26,0.00014821,0
107.26,0.00012068,0
107.26,7.4693e-05,0
107.26,2.5345e-05,0
107.26,-9.5674e-06,0
107.26,-2.8367e-05,0
107.26,-4.3641e-05,0
107.26,-5.7404e-05,0
107.26,-6.7643e-05,0
107.26,-7.2679e-05,0
107.26,-7.2679e-05,0
107.26,-6.865e-05,0
107.26,-5.1362e-05,0
107.26,3.5248e-06,0
107.26,8.7617e-05,0
107.26,0.00014385,0
107.26,0.00014083,0
107.26,0.00010138,0
107.27,5.153e-05,0
107.27,-5.539e-06,0
107.27,-6.7811e-05,0
107.27,-0.0001237,0
107.27,-0.00015828,0
107.27,-0.00016416,0
107.27,-0.00013915,0
107.27,-9.752e-05,0
107.27,-5.539e-05,0
107.27,-1.4435e-05,0
107.27,1.5778e-05,0
107.27,2.1653e-05,0
107.27,1.1582e-05,0
107.27,6.5461e-06,0
107.27,6.8818e-06,0
107.27,-2.8534e-06,0
107.27,-2.2995e-05,0
107.27,-4.1459e-05,0
107.27,-4.6326e-05,0
107.28,-3.1388e-05,0
107.28,-1.6785e-07,0
107.28,2.266e-05,0
107.28,1.9303e-05,0
107.28,1.8463e-06,0
107.28,-1.091e-05,0
107.28,-1.6281e-05,0
107.28,-1.7624e-05,0
107.28,-1.3596e-05,0
107.28,-4.1962e-06,0
107.28,1.8463e-05,0
107.28,4.9516e-05,0
107.28,6.5629e-05,0
107.28,6.1433e-05,0
107.28,4.9012e-05,0
107.28,3.6423e-05,0
107.28,4.0452e-05,0
107.28,0.00010088,0
107.28,0.00022206,0
107.28,0.00035433,0
107.29,0.00044564,0
107.29,0.0004829,0
107.29,0.00046276,0
107.29,0.00038186,0
107.29,0.00025698,0
107.29,0.0001227,0
107.29,9.9031e-06,0
107.29,-7.6036e-05,0
107.29,-0.00015459,0
107.29,-0.00022744,0
107.29,-0.00029575,0
107.29,-0.00035634,0
107.29,-0.00038354,0
107.29,-0.00036188,0
107.29,-0.0003216,0
107.29,-0.00028954,0
107.29,-0.00026336,0
107.29,-0.00022475,0
107.29,-0.00017238,0
107.3,-0.00013176,0
107.3,-0.00011246,0
107.3,-0.00010692,0
