76.836,-0.00010423,0
76.837,-8.5603e-05,0
76.837,-7.1336e-05,0
76.838,-5.2537e-05,0
76.838,-3.122e-05,0
76.839,-5.2033e-06,0
76.839,3.0381e-05,0
76.84,6.4958e-05,0
76.84,8.04e-05,0
76.841,7.1e-05,0
76.841,4.9851e-05,0
76.842,3.2395e-05,0
76.843,1.7121e-05,0
76.843,-1.8463e-06,0
76.844,-1.8463e-05,0
76.844,-2.0645e-05,0
76.845,8.3925e-06,0
76.845,8.4428e-05,0
76.846,0.0001608,0
76.846,0.00018514,0
76.847,0.00015644,0
76.847,9.9702e-05,0
76.848,4.0787e-05,0
76.848,2.5177e-06,0
76.849,-4.0284e-06,0
76.849,2.5177e-06,0
76.85,-6.714e-07,0
76.85,-6.3783e-06,0
76.851,1.6785e-05,0
76.851,8.6275e-05,0
76.852,0.00019152,0
76.852,0.00029776,0
76.853,0.00036172,0
76.853,0.00036608,0
76.854,0.00031203,0
76.854,0.00021988,0
76.855,0.00012001,0
76.856,2.2492e-05,0
76.856,-7.0497e-05,0
76.857,-0.00016902,0
76.857,-0.00027276,0
76.858,-0.00035181,0
76.858,-0.00038706,0
76.859,-0.00038572,0
76.859,-0.00036037,0
76.86,-0.00031438,0
76.86,-0.00024976,0
76.861,-0.00018346,0
76.861,-0.00013159,0
76.862,-9.0135e-05,0
76.862,-5.5894e-05,0
76.863,-3.0381e-05,0
76.863,-1.1078e-05,0
76.864,3.0213e-06,0
76.864,1.8296e-05,0
76.865,4.1459e-05,0
76.865,7.0665e-05,0
76.866,9.6513e-05,0
76.866,0.00011531,0
76.867,0.00012706,0
76.867,0.00013462,0
76.868,0.00013529,0
76.868,0.00012975,0
76.869,0.0001237,0
76.87,0.00011531,0
76.87,0.00010726,0
76.871,9.5842e-05,0
76.871,7.3014e-05,0
76.872,4.7669e-05,0
76.872,3.6591e-05,0
76.873,4.9012e-05,0
76.873,8.1743e-05,0
76.874,0.00011733,0
76.874,0.00013747,0
76.875,0.00013948,0
76.875,0.00013864,0
76.876,0.00013613,0
76.876,0.00011464,0
76.877,8.3589e-05,0
76.877,6.6636e-05,0
76.878,5.3544e-05,0
76.878,2.5345e-05,0
76.879,-7.3854e-06,0
76.879,-2.1988e-05,0
76.88,-2.2492e-05,0
76.88,-2.5681e-05,0
76.881,-3.1724e-05,0
76.881,-3.357e-05,0
76.882,-2.7359e-05,0
76.882,-1.9638e-05,0
76.883,-1.4603e-05,0
76.884,-8.5603e-06,0
76.884,2.5177e-06,0
76.885,1.5778e-05,0
76.885,2.1988e-05,0
76.886,2.4002e-05,0
76.886,3.508e-05,0
76.887,5.2201e-05,0
76.887,5.8244e-05,0
76.888,4.9516e-05,0
76.888,3.743e-05,0
76.889,3.122e-05,0
76.889,3.5584e-05,0
76.89,5.4551e-05,0
76.89,9.4499e-05,0
76.891,0.00013579,0
76.891,0.00014687,0
76.892,0.00012303,0
76.892,8.8792e-05,0
76.893,5.7908e-05,0
76.893,2.1988e-05,0
76.894,-1.1582e-05,0
76.894,-1.6449e-05,0
76.895,1.0239e-05,0
76.895,4.1962e-05,0
76.896,6.3615e-05,0
76.897,6.2943e-05,0
76.897,4.0787e-05,0
76.898,3.1724e-05,0
76.898,4.2298e-05,0
76.899,4.1123e-05,0
76.899,1.1582e-05,0
76.9,-3.978e-05,0
76.9,-0.00010021,0
76.901,-0.00015492,0
76.901,-0.00018631,0
76.902,-0.00018698,0
76.902,-0.00016751,0
76.903,-0.00013663,0
76.903,-0.00010423,0
76.904,-8.3757e-05,0
76.904,-6.479e-05,0
76.905,-3.7766e-05,0
76.905,-1.4939e-05,0
76.906,-8.2246e-06,0
76.906,-1.2924e-05,0
76.907,-1.5274e-05,0
76.907,-1.1582e-05,0
76.908,-8.896e-06,0
76.908,-8.3925e-07,0
76.909,1.6953e-05,0
76.909,3.2395e-05,0
76.91,5.2537e-05,0
76.911,7.7043e-05,0
76.911,9.0806e-05,0
76.912,8.7617e-05,0
76.912,7.7714e-05,0
76.913,6.7475e-05,0
76.913,5.2201e-05,0
76.914,3.1052e-05,0
76.914,9.5674e-06,0
76.915,-1.0071e-06,0
76.915,3.8605e-06,0
76.916,2.266e-05,0
76.916,4.1962e-05,0
76.917,5.5222e-05,0
76.917,6.4286e-05,0
76.918,6.1601e-05,0
76.918,3.8773e-05,0
76.919,6.0426e-06,0
76.919,-1.6281e-05,0
76.92,-2.0813e-05,0
76.92,-1.0407e-05,0
76.921,1.2589e-05,0
76.921,7.0329e-05,0
76.922,0.00018766,0
76.922,0.00029441,0
76.923,0.00031908,0
76.924,0.00026604,0
76.924,0.00017574,0
76.925,7.9393e-05,0
76.925,4.0284e-06,0
76.926,-1.7624e-05,0
76.926,-2.6856e-06,0
76.927,2.2828e-05,0
76.927,5.9251e-05,0
76.928,6.2104e-05,0
76.928,-1.6785e-06,0
76.929,-6.8986e-05,0
76.929,-0.00010105,0
76.93,-0.0001138,0
76.93,-0.00010944,0
76.931,-6.6636e-05,0
76.931,8.5603e-06,0
76.932,6.0929e-05,0
76.932,5.153e-05,0
76.933,1.1749e-06,0
76.933,-5.1865e-05,0
76.934,-8.5771e-05,0
76.934,-0.00010692,0
76.935,-0.00012673,0
76.935,-0.00015291,0
76.936,-0.00018329,0
76.936,-0.00020293,0
76.937,-0.00018883,0
76.938,-0.00015895,0
76.938,-0.00013143,0
76.939,-9.6178e-05,0
76.939,-5.4047e-05,0
76.94,-2.1653e-05,0
76.94,6.714e-07,0
76.941,3.1052e-05,0
76.941,7.1672e-05,0
76.942,0.00011296,0
76.942,0.00015023,0
76.943,0.0001744,0
76.943,0.00017574,0
76.944,0.00016097,0
76.944,0.0001331,0
76.945,9.6513e-05,0
76.945,6.4286e-05,0
76.946,4.5823e-05,0
76.946,3.4745e-05,0
76.947,3.0213e-05,0
76.947,3.8437e-05,0
76.948,4.8844e-05,0
76.948,5.153e-05,0
76.949,5.2201e-05,0
76.949,5.4719e-05,0
76.95,5.8579e-05,0
76.951,6.0258e-05,0
76.951,6.1265e-05,0
76.952,7.0832e-05,0
76.952,9.0974e-05,0
76.953,0.00010356,0
76.953,0.00010524,0
76.954,0.00010222,0
76.954,8.5771e-05,0
76.955,5.5558e-05,0
76.955,2.7192e-05,0
76.956,1.2253e-05,0
76.956,4.0284e-06,0
76.957,-6.3783e-06,0
76.957,-1.8631e-05,0
76.958,-2.5681e-05,0
76.958,-2.0813e-05,0
76.959,3.0213e-06,0
76.959,3.5416e-05,0
76.96,5.5558e-05,0
76.96,5.5222e-05,0
76.961,4.3473e-05,0
76.961,3.743e-05,0
76.962,4.4816e-05,0
76.962,5.7572e-05,0
76.963,6.5293e-05,0
76.963,6.479e-05,0
76.964,5.8412e-05,0
76.965,4.8173e-05,0
76.965,3.6255e-05,0
76.966,2.5849e-05,0
76.966,2.266e-05,0
76.967,3.2059e-05,0
76.967,6.6972e-05,0
76.968,0.00013344,0
76.968,0.00020797,0
76.969,0.00026235,0
76.969,0.00029172,0
76.97,0.00028316,0
76.97,0.00022072,0
76.971,0.00011229,0
76.971,-1.0407e-05,0
76.972,-0.00010037,0
76.972,-0.00012387,0
76.973,-7.57e-05,0
76.973,-3.978e-05,0
76.974,-8.4764e-05,0
76.974,-0.00014536,0
76.975,-0.00017339,0
76.975,-0.00020645,0
76.976,-0.00025866,0
76.976,-0.00030834,0
76.977,-0.00033738,0
76.978,-0.00034728,0
76.978,-0.00032663,0
76.979,-0.00026722,0
76.979,-0.00019387,0
76.98,-0.00014116,0
76.98,-0.00011061,0
76.981,-8.0903e-05,0
76.981,-4.213e-05,0
76.982,-1.0071e-06,0
76.982,3.4409e-05,0
76.983,6.0426e-05,0
76.983,8.3421e-05,0
76.984,0.00010776,0
76.984,0.00012471,0
76.985,0.00012706,0
76.985,0.00011397,0
76.986,9.2485e-05,0
76.986,7.5029e-05,0
76.987,6.2776e-05,0
76.987,4.2466e-05,0
76.988,1.6953e-05,0
76.988,2.5177e-06,0
76.989,6.5461e-06,0
76.989,2.182e-05,0
76.99,4.2802e-05,0
76.99,7.1672e-05,0
76.991,9.8527e-05,0
76.992,0.00010927,0
76.992,0.0001034,0
76.993,9.752e-05,0
76.993,0.00010037,0
76.994,0.00011196,0
76.994,0.00013931,0
76.995,0.00016735,0
76.995,0.00017104,0
76.996,0.00015543,0
76.996,0.00013982,0
76.997,0.00012874,0
76.997,0.00012169,0
76.998,0.00012136,0
76.998,0.00012908,0
76.999,0.00014284,0
76.999,0.00014183,0
77,0.00011296,0
77,6.6972e-05,0
77.001,1.6281e-05,0
77.001,-3.0213e-05,0
77.002,-5.8915e-05,0
77.002,-7.0665e-05,0
77.003,-7.9225e-05,0
77.003,-9.131e-05,0
77.004,-9.6849e-05,0
77.005,-8.6107e-05,0
77.005,-6.4622e-05,0
77.006,-3.7934e-05,0
77.006,-6.8818e-06,0
77.007,2.6352e-05,0
77.007,5.2873e-05,0
77.008,6.4622e-05,0
77.008,6.4286e-05,0
77.009,5.623e-05,0
77.009,4.448e-05,0
77.01,3.2059e-05,0
77.01,1.8463e-05,0
77.011,1.5106e-06,0
77.011,-1.9303e-05,0
77.012,-3.743e-05,0
77.012,-4.9348e-05,0
77.013,-6.0929e-05,0
77.013,-6.9993e-05,0
77.014,-5.9251e-05,0
77.014,-2.2828e-05,0
77.015,1.9638e-05,0
77.015,4.5991e-05,0
77.016,5.2873e-05,0
77.016,4.8508e-05,0
77.017,3.9445e-05,0
77.017,3.1388e-05,0
77.018,3.508e-05,0
77.019,4.9851e-05,0
77.019,8.04e-05,0
77.02,0.00014015,0
77.02,0.00021535,0
77.021,0.00028585,0
77.021,0.00031572,0
77.022,0.00027376,0
77.022,0.0001744,0
77.023,6.2943e-05,0
77.023,-1.091e-05,0
77.024,-4.8508e-05,0
77.024,-8.275e-05,0
77.025,-0.00011901,0
77.025,-0.00014955,0
77.026,-0.00016785,0
77.026,-0.00016936,0
77.027,-0.0001613,0
77.027,-0.00014116,0
77.028,-0.00010591,0
77.028,-7.1336e-05,0
77.029,-5.5558e-05,0
77.029,-6.0929e-05,0
77.03,-7.4022e-05,0
77.03,-8.4596e-05,0
77.031,-8.896e-05,0
77.032,-8.2918e-05,0
77.032,-6.2776e-05,0
77.033,-3.5584e-05,0
77.033,-6.2104e-06,0
77.034,1.4435e-05,0
77.034,1.796e-05,0
77.035,1.6617e-05,0
77.035,2.7024e-05,0
77.036,5.4887e-05,0
77.036,8.9296e-05,0
77.037,0.00011212,0
77.037,0.00011112,0
77.038,9.1142e-05,0
77.038,6.7979e-05,0
77.039,5.0019e-05,0
77.039,3.7095e-05,0
77.04,2.4674e-05,0
77.04,1.1582e-05,0
77.041,-1.6785e-07,0
77.041,-1.3764e-05,0
77.042,-2.8367e-05,0
77.042,-3.592e-05,0
77.043,-2.9038e-05,0
77.043,-8.2246e-06,0
77.044,2.2156e-05,0
77.044,5.2537e-05,0
77.045,7.5029e-05,0
77.046,8.2414e-05,0
77.046,7.805e-05,0
77.047,8.2414e-05,0
77.047,9.5674e-05,0
77.048,0.00010658,0
77.048,0.00014217,0
77.049,0.00019756,0
77.049,0.00021032,0
77.05,0.00016365,0
77.05,9.5842e-05,0
77.051,3.0045e-05,0
77.051,-3.4073e-05,0
77.052,-9.6849e-05,0
77.052,-0.00015375,0
77.053,-0.00018816,0
77.053,-0.00018279,0
77.054,-0.00013982,0
77.054,-9.2317e-05,0
77.055,-7.2679e-05,0
77.055,-7.2679e-05,0
77.056,-5.388e-05,0
77.056,-7.2175e-06,0
77.057,4.4144e-05,0
77.057,8.7114e-05,0
77.058,0.00011397,0
77.059,0.00012035,0
77.059,0.00010692,0
77.06,7.9728e-05,0
77.06,4.8844e-05,0
77.061,2.5681e-05,0
77.061,1.4603e-05,0
77.062,1.2589e-05,0
77.062,6.2104e-06,0
77.063,-8.3925e-06,0
77.063,-1.8967e-05,0
77.064,-1.1749e-05,0
77.064,1.7456e-05,0
77.065,6.5629e-05,0
77.065,0.00015006,0
77.066,0.00024825,0
77.066,0.00029961,0
77.067,0.00029374,0
77.067,0.00024623,0
77.068,0.00017037,0
77.068,7.2007e-05,0
77.069,-2.7192e-05,0
77.069,-0.00010726,0
77.07,-0.00015325,0
77.07,-0.00016802,0
77.071,-0.00016533,0
77.072,-0.00015694,0
77.072,-0.00014989,0
77.073,-0.0001472,0
77.073,-0.00014871,0
77.074,-0.00014318,0
77.074,-0.00012488,0
77.075,-9.3828e-05,0
77.075,-5.7908e-05,0
77.076,-2.9206e-05,0
77.076,-1.0575e-05,0
77.077,2.5177e-06,0
77.077,1.3764e-05,0
77.078,2.6184e-05,0
77.078,4.2466e-05,0
77.079,5.623e-05,0
77.079,6.4286e-05,0
77.08,6.8986e-05,0
77.08,7.3518e-05,0
77.081,7.8721e-05,0
77.081,8.2414e-05,0
77.082,8.1071e-05,0
77.082,7.7546e-05,0
77.083,7.5029e-05,0
77.083,7.3854e-05,0
77.084,7.335e-05,0
77.084,7.6204e-05,0
77.085,9.1478e-05,0
77.086,0.00012689,0
77.086,0.00018144,0
77.087,0.00023952,0
77.087,0.00026571,0
77.088,0.00024204,0
77.088,0.00018245,0
77.089,0.00011246,0
77.089,4.6326e-05,0
77.09,-4.5319e-06,0
77.09,-4.1123e-05,0
77.091,-7.9561e-05,0
77.091,-0.00010961,0
77.092,-9.6513e-05,0
77.092,-2.6352e-05,0
77.093,4.5487e-05,0
77.093,6.5965e-05,0
77.094,3.6759e-05,0
77.094,-1.8463e-05,0
77.095,-8.3589e-05,0
77.095,-0.00013646,0
77.096,-0.00015895,0
77.096,-0.00014737,0
77.097,-0.00010692,0
77.097,-6.6468e-05,0
77.098,-4.2969e-05,0
77.099,-2.6017e-05,0
77.099,-1.1414e-05,0
77.1,2.0142e-06,0
77.1,1.8631e-05,0
77.101,3.0716e-05,0
77.101,2.1317e-05,0
77.102,-8.3925e-07,0
77.102,-1.5946e-05,0
77.103,-2.5177e-05,0
77.103,-4.0452e-05,0
77.104,-5.4719e-05,0
77.104,-4.6662e-05,0
77.105,-2.2324e-05,0
77.105,-4.8676e-06,0
77.106,6.5461e-06,0
77.106,2.8031e-05,0
77.107,6.3615e-05,0
77.107,9.752e-05,0
77.108,0.00011632,0
77.108,0.00013008,0
77.109,0.00015358,0
77.109,0.00017003,0
77.11,0.00016298,0
77.11,0.0001368,0
77.111,9.7688e-05,0
77.111,5.0858e-05,0
77.112,1.0407e-05,0
77.113,-1.326e-05,0
77.113,-2.031e-05,0
77.114,-9.3996e-06,0
77.114,2.4506e-05,0
77.115,6.4622e-05,0
77.115,9.6345e-05,0
77.116,0.0001086,0
77.116,9.5842e-05,0
77.117,6.2272e-05,0
77.117,6.5461e-06,0
77.118,-5.7237e-05,0
77.118,-0.0001034,0
77.119,-0.00012253,0
77.119,-0.0001237,0
77.12,-0.00011431,0
77.12,-8.4092e-05,0
77.121,-2.9709e-05,0
77.121,2.4002e-05,0
77.122,5.5894e-05,0
77.122,7.1336e-05,0
77.123,7.3686e-05,0
77.123,6.1936e-05,0
77.124,4.0787e-05,0
77.124,1.8967e-05,0
77.125,-5.0355e-06,0
77.126,-2.6856e-05,0
77.126,-2.9877e-05,0
77.127,-1.0575e-05,0
77.127,3.4073e-05,0
77.128,0.00011179,0
77.128,0.00017557,0
77.129,0.00017742,0
77.129,0.00013075,0
77.13,7.2679e-05,0
77.13,3.0716e-05,0
77.131,3.1891e-06,0
77.131,-1.4603e-05,0
77.132,-2.1317e-05,0
77.132,-1.5274e-05,0
77.133,-1.5106e-06,0
77.133,4.1962e-06,0
77.134,-1.8128e-05,0
77.134,-5.6565e-05,0
77.135,-7.7211e-05,0
77.135,-7.1e-05,0
77.136,-5.0858e-05,0
77.136,-4.7669e-05,0
77.137,-6.9993e-05,0
77.137,-0.00010037,0
77.138,-0.00010507,0
77.138,-7.5532e-05,0
77.139,-3.3402e-05,0
77.14,-8.3925e-07,0
77.14,1.9974e-05,0
77.141,4.1291e-05,0
77.141,7.0329e-05,0
77.142,0.00010239,0
77.142,0.00013143,0
77.143,0.00014687,0
77.143,0.000142,0
77.144,0.00012488,0
77.144,9.8527e-05,0
77.145,6.8315e-05,0
77.145,4.7333e-05,0
77.146,3.6759e-05,0
77.146,3.3906e-05,0
77.147,4.2802e-05,0
77.147,5.7404e-05,0
77.148,6.2776e-05,0
77.148,4.8173e-05,0
77.149,1.6617e-05,0
77.149,-1.4267e-05,0
77.15,-3.8437e-05,0
77.15,-5.2873e-05,0
77.151,-6.1601e-05,0
77.151,-5.1865e-05,0
77.152,-2.2492e-05,0
77.153,-8.3925e-07,0
77.153,-7.5532e-06,0
77.154,-4.0452e-05,0
77.154,-7.7714e-05,0
77.155,-9.8695e-05,0
77.155,-9.4163e-05,0
77.156,-7.2007e-05,0
77.156,-4.2634e-05,0
77.157,-3.5248e-06,0
77.157,6.3447e-05,0
77.158,0.00013243,0
77.158,0.00015895,0
77.159,0.0001425,0
77.159,0.00011968,0
77.16,0.00011414,0
77.16,0.00011951,0
77.161,0.00011464,0
77.161,8.5435e-05,0
77.162,4.0116e-05,0
77.162,-4.3641e-06,0
77.163,-3.7095e-05,0
77.163,-5.8244e-05,0
77.164,-7.1168e-05,0
77.164,-7.3518e-05,0
77.165,-6.0594e-05,0
77.165,-3.4745e-05,0
77.166,-1.7792e-05,0
77.167,-2.6184e-05,0
77.167,-3.6927e-05,0
77.168,-3.2395e-05,0
77.168,-2.1988e-05,0
77.169,-3.5248e-06,0
77.169,1.5946e-05,0
77.17,2.2995e-05,0
77.17,2.3667e-05,0
77.171,3.6088e-05,0
77.171,6.9322e-05,0
77.172,0.00011095,0
77.172,0.00013411,0
77.173,0.0001284,0
77.173,0.00011514,0
77.174,0.00011934,0
77.174,0.00013277,0
77.175,0.00013629,0
77.175,0.00011598,0
77.176,7.335e-05,0
77.176,1.7121e-05,0
77.177,-3.1052e-05,0
77.177,-5.153e-05,0
77.178,-5.388e-05,0
77.178,-5.1194e-05,0
77.179,-4.8844e-05,0
77.18,-5.0858e-05,0
77.18,-5.4719e-05,0
77.181,-5.7404e-05,0
77.181,-5.0187e-05,0
77.182,-3.3066e-05,0
77.182,-1.2589e-05,0
77.183,5.2033e-06,0
77.183,2.887e-05,0
77.184,5.5222e-05,0
77.184,7.1336e-05,0
77.185,8.1071e-05,0
77.185,9.1142e-05,0
77.186,9.4667e-05,0
77.186,8.3085e-05,0
77.187,6.0761e-05,0
77.187,3.6255e-05,0
77.188,1.6281e-05,0
77.188,2.5177e-06,0
77.189,-4.8676e-06,0
77.189,-9.7353e-06,0
77.19,-1.8967e-05,0
77.19,-2.7024e-05,0
77.191,-2.1653e-05,0
77.191,-4.0284e-06,0
77.192,1.4939e-05,0
77.192,2.6017e-05,0
77.193,3.1556e-05,0
77.194,4.4144e-05,0
77.194,7.335e-05,0
77.195,0.00010222,0
77.195,0.00010961,0
77.196,9.5842e-05,0
77.196,7.2175e-05,0
77.197,5.4551e-05,0
77.197,4.9516e-05,0
77.198,5.153e-05,0
77.198,5.2201e-05,0
77.199,5.2873e-05,0
77.199,6.1433e-05,0
77.2,7.6371e-05,0
77.2,8.6275e-05,0
77.201,9.1142e-05,0
77.201,9.4499e-05,0
77.202,8.3421e-05,0
77.202,4.9516e-05,0
77.203,2.8534e-06,0
77.203,-3.122e-05,0
77.204,-4.4984e-05,0
77.204,-4.1459e-05,0
77.205,-1.7288e-05,0
77.205,1.7121e-05,0
77.206,6.7308e-05,0
77.207,0.00011296,0
77.207,0.00011246,0
77.208,5.4719e-05,0
77.208,-4.3137e-05,0
77.209,-0.0001472,0
77.209,-0.00021065,0
77.21,-0.00021501,0
77.21,-0.00019353,0
77.211,-0.00018178,0
77.211,-0.00017087,0
77.212,-0.00013008,0
77.212,-7.4022e-05,0
77.213,-3.7263e-05,0
77.213,-2.6352e-05,0
77.214,-2.031e-05,0
77.214,-7.2175e-06,0
77.215,4.1962e-06,0
77.215,2.8534e-06,0
77.216,-1.1414e-05,0
77.216,-2.9038e-05,0
77.217,-4.062e-05,0
77.217,-4.7837e-05,0
77.218,-5.3712e-05,0
77.218,-4.9516e-05,0
77.219,-2.9206e-05,0
77.219,-2.0142e-06,0
77.22,1.6281e-05,0
77.221,1.9135e-05,0
77.221,1.8463e-05,0
77.222,3.2395e-05,0
77.222,6.3783e-05,0
77.223,9.7185e-05,0
77.223,0.0001284,0
77.224,0.00016365,0
77.224,0.00019051,0
77.225,0.00019135,0
77.225,0.00016466,0
77.226,0.00011431,0
77.226,5.7237e-05,0
77.227,1.9974e-05,0
77.227,1.4267e-05,0
77.228,2.6688e-05,0
77.228,4.0452e-05,0
77.229,4.5151e-05,0
77.229,3.5416e-05,0
77.23,9.5674e-06,0
77.23,-2.2324e-05,0
77.231,-4.2298e-05,0
77.231,-3.2731e-05,0
77.232,-3.5248e-06,0
77.232,2.031e-05,0
77.233,3.743e-05,0
77.234,6.0929e-05,0
77.234,8.4428e-05,0
77.235,8.661e-05,0
77.235,7.4022e-05,0
77.236,7.9393e-05,0
77.236,9.7688e-05,0
77.237,0.00010524,0
77.237,9.5842e-05,0
77.238,7.7211e-05,0
77.238,6.0929e-05,0
77.239,5.5222e-05,0
77.239,5.623e-05,0
77.24,6.1097e-05,0
77.24,7.2847e-05,0
77.241,8.1407e-05,0
77.241,7.0329e-05,0
77.242,3.5752e-05,0
77.242,6.5461e-06,0
77.243,1.7792e-05,0
77.243,6.4958e-05,0
77.244,0.00010558,0
77.244,0.0001133,0
77.245,8.7449e-05,0
77.245,3.9445e-05,0
77.246,-1.9806e-05,0
77.246,-7.2343e-05,0
77.247,-9.6178e-05,0
77.248,-9.1814e-05,0
77.248,-7.6371e-05,0
77.249,-5.9083e-05,0
77.249,-5.5055e-05,0
77.25,-6.9825e-05,0
77.25,-8.0903e-05,0
77.251,-7.1e-05,0
77.251,-4.3809e-05,0
77.252,3.8605e-06,0
77.252,7.1e-05,0
77.253,0.00011531,0
77.253,9.987e-05,0
77.254,4.918e-05,0
77.254,1.2589e-05,0
77.255,4.3641e-06,0
77.255,8.896e-06,0
77.256,1.1246e-05,0
77.256,4.5319e-06,0
77.257,-4.6998e-06,0
77.257,-6.0426e-06,0
77.258,-6.714e-07,0
77.258,1.7792e-05,0
77.259,5.153e-05,0
77.259,6.8986e-05,0
77.26,4.4144e-05,0
77.26,-1.091e-05,0
77.261,-6.479e-05,0
77.262,-0.00010121,0
77.262,-0.00011666,0
77.263,-0.00010239,0
77.263,-6.0929e-05,0
77.264,-1.2924e-05,0
77.264,2.4674e-05,0
77.265,7.1839e-05,0
77.265,0.00014989,0
77.266,0.00021938,0
77.266,0.000236,0
77.267,0.00019806,0
77.267,0.00013075,0
77.268,6.244e-05,0
77.268,7.8889e-06,0
77.269,-3.508e-05,0
77.269,-6.3279e-05,0
77.27,-4.4648e-05,0
77.27,2.031e-05,0
77.271,7.6875e-05,0
77.271,9.3492e-05,0
77.272,6.3951e-05,0
77.272,-1.6785e-07,0
77.273,-7.6036e-05,0
77.273,-0.00013764,0
77.274,-0.00016265,0
77.275,-0.00016164,0
77.275,-0.0001556,0
77.276,-0.0001514,0
77.276,-0.00014989,0
77.277,-0.00014301,0
77.277,-0.00012085,0
77.278,-8.3421e-05,0
77.278,-4.448e-05,0
77.279,-1.4099e-05,0
77.279,6.8818e-06,0
77.28,2.501e-05,0
77.28,4.2802e-05,0
77.281,5.7572e-05,0
77.281,6.1601e-05,0
77.282,5.6565e-05,0
77.282,5.1865e-05,0
77.283,4.9516e-05,0
77.283,4.9516e-05,0
77.284,5.388e-05,0
77.284,6.9993e-05,0
77.285,0.00010524,0
77.285,0.00013512,0
77.286,0.00013948,0
77.286,0.00014485,0
77.287,0.00016936,0
77.287,0.00019588,0
77.288,0.00019504,0
77.289,0.00015979,0
77.289,0.00010457,0
77.29,5.388e-05,0
77.29,2.031e-05,0
77.291,-2.8534e-06,0
77.291,-1.8463e-05,0
77.292,-2.0478e-05,0
77.292,-1.5106e-05,0
77.293,-1.6953e-05,0
77.293,-2.4338e-05,0
77.294,-2.3163e-05,0
77.294,-7.8889e-06,0
77.295,1.326e-05,0
77.295,3.0213e-05,0
77.296,3.9109e-05,0
77.296,4.3137e-05,0
77.297,5.0858e-05,0
77.297,5.2201e-05,0
77.298,3.6088e-05,0
77.298,1.4939e-05,0
77.299,4.8676e-06,0
77.299,-3.5248e-06,0
77.3,-1.6281e-05,0
77.3,-1.5274e-05,0
77.301,-8.3925e-07,0
77.302,6.0426e-06,0
77.302,1.0239e-05,0
77.303,4.2802e-05,0
77.303,8.9128e-05,0
77.304,0.00011229,0
77.304,0.00010105,0
77.305,5.9586e-05,0
77.305,5.539e-06,0
77.306,-3.5416e-05,0
77.306,-5.7069e-05,0
77.307,-7.1672e-05,0
77.307,-7.5364e-05,0
77.308,-5.2033e-05,0
77.308,-1.2253e-05,0
77.309,7.8889e-06,0
77.309,-5.0355e-07,0
77.31,-1.3428e-05,0
77.31,-1.326e-05,0
77.311,-2.0142e-06,0
77.311,1.3931e-05,0
77.312,2.3667e-05,0
77.312,2.1149e-05,0
77.313,1.3764e-05,0
77.313,3.1891e-06,0
77.314,-5.7069e-06,0
77.314,-6.2104e-06,0
77.315,-2.0142e-06,0
77.316,-1.6785e-06,0
77.316,-2.3499e-06,0
77.317,9.7353e-06,0
77.317,3.4745e-05,0
77.318,5.9586e-05,0
77.318,7.5029e-05,0
77.319,8.0064e-05,0
77.319,8.2582e-05,0
77.32,8.5771e-05,0
77.32,8.7785e-05,0
77.321,9.8695e-05,0
77.321,0.00011128,0
77.322,0.00011162,0
77.322,9.7185e-05,0
77.323,6.8315e-05,0
77.323,3.6088e-05,0
77.324,1.0575e-05,0
77.324,-1.8463e-06,0
77.325,-1.6785e-07,0
77.325,5.8747e-06,0
77.326,1.1246e-05,0
77.326,2.501e-05,0
77.327,4.6326e-05,0
77.327,5.9251e-05,0
77.328,4.6494e-05,0
77.329,7.8889e-06,0
77.329,-3.4745e-05,0
77.33,-6.2104e-05,0
77.33,-7.2343e-05,0
77.331,-8.1407e-05,0
77.331,-9.4499e-05,0
77.332,-9.3156e-05,0
77.332,-7.5364e-05,0
77.333,-6.0594e-05,0
77.333,-5.3544e-05,0
77.334,-5.3544e-05,0
77.334,-6.2272e-05,0
77.335,-5.9586e-05,0
77.335,-3.743e-05,0
77.336,-1.326e-05,0
77.336,-3.0213e-06,0
77.337,-4.1962e-06,0
77.337,-2.182e-06,0
77.338,1.1246e-05,0
77.338,2.7359e-05,0
77.339,3.8437e-05,0
77.339,4.1627e-05,0
77.34,3.743e-05,0
77.34,2.7695e-05,0
77.341,1.7288e-05,0
77.341,1.3596e-05,0
77.342,2.1988e-05,0
77.343,3.6088e-05,0
77.343,5.9586e-05,0
77.344,8.51e-05,0
77.344,9.4331e-05,0
77.345,8.9799e-05,0
77.345,9.2485e-05,0
77.346,0.00012992,0
77.346,0.00017943,0
77.347,0.00019319,0
77.347,0.00015962,0
77.348,0.00010188,0
77.348,3.8437e-05,0
77.349,-2.3163e-05,0
77.349,-4.3641e-05,0
77.35,-1.5778e-05,0
77.35,1.4939e-05,0
77.351,1.9303e-05,0
77.351,1.0071e-05,0
77.352,9.2317e-06,0
77.352,3.6088e-05,0
77.353,0.00011179,0
77.353,0.00020024,0
77.354,0.00023062,0
77.354,0.00018413,0
77.355,9.4835e-05,0
77.356,-8.2246e-06,0
77.356,-9.6681e-05,0
77.357,-0.00015442,0
77.357,-0.00018984,0
77.358,-0.00021149,0
77.358,-0.00021451,0
77.359,-0.00019319,0
77.359,-0.00015056,0
77.36,-0.00010356,0
77.36,-5.9922e-05,0
77.361,-1.7792e-05,0
77.361,1.0407e-05,0
77.362,2.501e-05,0
77.362,4.3809e-05,0
77.363,6.7308e-05,0
77.363,7.9896e-05,0
77.364,7.2175e-05,0
77.364,4.2466e-05,0
77.365,1.1078e-05,0
77.365,-7.5532e-06,0
77.366,-1.7624e-05,0
77.366,-3.4241e-05,0
77.367,-6.6636e-05,0
77.367,-9.1478e-05,0
77.368,-8.4932e-05,0
77.368,-5.5726e-05,0
77.369,-1.8463e-05,0
77.37,1.4603e-05,0
77.37,3.3738e-05,0
77.371,3.827e-05,0
77.371,3.6759e-05,0
77.372,3.6927e-05,0
77.372,4.4816e-05,0
77.373,7.0665e-05,0
77.373,0.00010222,0
77.374,0.0001227,0
77.374,0.00013613,0
77.375,0.00014687,0
77.375,0.00015023,0
77.376,0.00014469,0
77.376,0.00014083,0
77.377,0.00015023,0
77.377,0.00015828,0
77.378,0.00014687,0
77.378,0.00010793,0
77.379,4.683e-05,0
77.379,-1.7288e-05,0
77.38,-5.4551e-05,0
77.38,-6.009e-05,0
77.381,-5.5055e-05,0
77.381,-5.9586e-05,0
77.382,-7.1839e-05,0
77.383,-7.5532e-05,0
77.383,-5.4551e-05,0
77.384,-1.7288e-05,0
77.384,1.3596e-05,0
77.385,4.1459e-05,0
77.385,7.3854e-05,0
77.386,9.752e-05,0
77.386,0.00010574,0
77.387,0.00010088,0
77.387,8.2582e-05,0
77.388,5.4383e-05,0
77.388,1.9974e-05,0
77.389,-1.6114e-05,0
77.389,-4.4144e-05,0
77.39,-5.0858e-05,0
77.39,-3.7263e-05,0
77.391,-1.8631e-05,0
77.391,-3.1891e-06,0
77.392,1.2924e-05,0
77.392,2.6688e-05,0
77.393,3.1388e-05,0
77.393,2.5345e-05,0
77.394,1.5946e-05,0
77.394,8.3925e-06,0
77.395,-1.8463e-06,0
77.395,-1.3931e-05,0
77.396,-1.9303e-05,0
77.397,-8.2246e-06,0
77.397,2.6352e-05,0
77.398,6.949e-05,0
77.398,0.0001138,0
77.399,0.00016332,0
77.399,0.00021082,0
77.4,0.00023415,0
77.4,0.00021468,0
77.401,0.00015526,0
77.401,8.2246e-05,0
77.402,1.796e-05,0
77.402,-3.122e-05,0
77.403,-6.9657e-05,0
77.403,-0.00010759,0
77.404,-0.00014385,0
77.404,-0.00017607,0
77.405,-0.00019101,0
77.405,-0.00017473,0
77.406,-0.00013747,0
77.406,-0.00010004,0
77.407,-6.7811e-05,0
77.407,-3.592e-05,0
77.408,-9.0639e-06,0
77.408,5.2033e-06,0
77.409,1.1246e-05,0
77.41,1.4939e-05,0
77.41,2.3331e-05,0
77.411,3.3738e-05,0
77.411,3.9612e-05,0
77.412,4.1291e-05,0
77.412,4.2466e-05,0
77.413,5.0187e-05,0
77.413,6.6972e-05,0
77.414,8.8289e-05,0
77.414,0.00011347,0
77.415,0.00012656,0
77.415,0.00011431,0
77.416,8.7953e-05,0
77.416,6.5965e-05,0
77.417,5.7572e-05,0
77.417,5.9586e-05,0
77.418,5.388e-05,0
77.418,3.9612e-05,0
77.419,2.5849e-05,0
77.419,1.6617e-05,0
77.42,1.0575e-05,0
77.42,-9.9031e-06,0
77.421,-4.7837e-05,0
77.421,-7.6204e-05,0
77.422,-8.191e-05,0
77.422,-7.3518e-05,0
77.423,-6.1265e-05,0
77.424,-3.9948e-05,0
77.424,-2.6856e-06,0
77.425,4.2802e-05,0
77.425,8.4764e-05,0
77.426,0.00011447,0
77.426,0.0001227,0
77.427,0.00011246,0
77.427,9.9535e-05,0
77.428,8.9799e-05,0
77.428,7.0665e-05,0
77.429,3.9277e-05,0
77.429,1.6281e-05,0
77.43,1.8128e-05,0
77.43,3.2395e-05,0
77.431,3.2898e-05,0
77.431,1.9303e-05,0
77.432,-5.0355e-07,0
77.432,-1.9135e-05,0
77.433,-3.9445e-05,0
77.433,-6.4622e-05,0
77.434,-7.8721e-05,0
77.434,-5.6062e-05,0
77.435,-9.9031e-06,0
77.435,2.5681e-05,0
77.436,3.8102e-05,0
77.437,3.8773e-05,0
77.437,3.3066e-05,0
77.438,2.1317e-05,0
77.438,1.091e-05,0
77.439,5.2033e-06,0
77.439,-8.3925e-06,0
77.44,-2.4842e-05,0
77.44,-2.7863e-05,0
77.441,-2.6017e-05,0
77.441,-6.8818e-06,0
77.442,6.8986e-05,0
77.442,0.00016416,0
77.443,0.00020897,0
77.443,0.00018648,0
77.444,0.0001133,0
77.444,2.6017e-05,0
77.445,-3.0045e-05,0
77.445,-4.8005e-05,0
77.446,-6.0258e-05,0
77.446,-8.5267e-05,0
77.447,-0.00010105,0
77.447,-9.6849e-05,0
77.448,-9.0471e-05,0
77.448,-9.1478e-05,0
77.449,-8.9464e-05,0
77.45,-7.5364e-05,0
77.45,-5.153e-05,0
77.451,-3.2395e-05,0
77.451,-2.6352e-05,0
77.452,-2.3667e-05,0
77.452,-1.3931e-05,0
77.453,-3.8605e-06,0
77.453,-1.3428e-06,0
77.454,5.2033e-06,0
77.454,2.7527e-05,0
77.455,5.5558e-05,0
77.455,7.1504e-05,0
77.456,6.8986e-05,0
77.456,6.0929e-05,0
77.457,5.4047e-05,0
77.457,4.5487e-05,0
77.458,4.0452e-05,0
77.458,4.3305e-05,0
77.459,4.8173e-05,0
77.459,5.3376e-05,0
77.46,5.5558e-05,0
77.46,5.9586e-05,0
77.461,7.2343e-05,0
77.461,9.6178e-05,0
77.462,0.00012203,0
77.462,0.00014015,0
77.463,0.000142,0
77.464,0.00012874,0
77.464,0.00011934,0
77.465,0.00011464,0
77.465,0.00010625,0
77.466,8.8457e-05,0
77.466,5.7237e-05,0
77.467,1.9638e-05,0
77.467,-2.0478e-05,0
77.468,-6.5965e-05,0
77.468,-0.00010088,0
77.469,-0.00010356,0
77.469,-8.275e-05,0
77.47,-6.4622e-05,0
77.47,-5.0187e-05,0
77.471,-2.0813e-05,0
77.471,1.4267e-05,0
77.472,3.0716e-05,0
77.472,2.8367e-05,0
77.473,1.4099e-05,0
77.473,-4.6998e-06,0
77.474,-1.9974e-05,0
77.474,-2.4338e-05,0
77.475,-1.9638e-05,0
77.475,-1.561e-05,0
77.476,-1.3764e-05,0
77.477,-6.5461e-06,0
77.477,9.9031e-06,0
77.478,2.8031e-05,0
77.478,3.8102e-05,0
77.479,3.7263e-05,0
77.479,3.0045e-05,0
77.48,2.5177e-05,0
77.48,2.6688e-05,0
77.481,2.8367e-05,0
77.481,2.3667e-05,0
77.482,1.9806e-05,0
77.482,2.4674e-05,0
77.483,2.5849e-05,0
77.483,1.3764e-05,0
77.484,2.5177e-06,0
77.484,5.0355e-06,0
77.485,2.7024e-05,0
77.485,6.5629e-05,0
77.486,0.00010239,0
77.486,0.00011447,0
77.487,0.00010726,0
77.487,9.5003e-05,0
77.488,7.6371e-05,0
77.488,5.153e-05,0
77.489,2.3835e-05,0
77.489,5.0355e-07,0
77.49,-4.6998e-06,0
77.491,2.5681e-05,0
77.491,7.335e-05,0
77.492,0.00011028,0
77.492,0.0001331,0
77.493,0.00013915,0
77.493,0.00012119,0
77.494,8.0064e-05,0
77.494,3.6088e-05,0
77.495,-2.8534e-06,0
77.495,-4.0452e-05,0
77.496,-5.7237e-05,0
77.496,-3.5248e-05,0
77.497,4.1962e-06,0
77.497,2.2995e-05,0
77.498,1.9974e-05,0
77.498,1.2757e-05,0
77.499,6.714e-06,0
77.499,1.5106e-06,0
77.5,-8.2246e-06,0
77.5,-2.0645e-05,0
77.501,-3.978e-05,0
77.501,-7.57e-05,0
77.502,-0.00012555,0
77.502,-0.000165,0
77.503,-0.00018094,0
77.504,-0.00016902,0
77.504,-0.00012992,0
77.505,-7.7211e-05,0
77.505,-2.9038e-05,0
77.506,-2.5177e-06,0
77.506,1.0239e-05,0
77.507,1.6281e-05,0
77.507,2.5177e-05,0
77.508,5.2033e-05,0
77.508,7.805e-05,0
77.509,7.3686e-05,0
77.509,4.1627e-05,0
77.51,2.1988e-05,0
77.51,4.2466e-05,0
77.511,7.2343e-05,0
77.511,7.7714e-05,0
77.512,5.8076e-05,0
77.512,3.1724e-05,0
77.513,1.3596e-05,0
77.513,8.3925e-07,0
77.514,-1.3764e-05,0
77.514,-2.4002e-05,0
77.515,-2.4002e-05,0
77.515,-8.896e-06,0
77.516,1.6617e-05,0
77.516,3.592e-05,0
77.517,4.7501e-05,0
77.518,5.5558e-05,0
77.518,6.1433e-05,0
77.519,5.8412e-05,0
77.519,4.7166e-05,0
77.52,4.0787e-05,0
77.52,4.3473e-05,0
77.521,5.1865e-05,0
77.521,6.4286e-05,0
77.522,8.2414e-05,0
77.522,0.00010457,0
77.523,0.0001227,0
77.523,0.0001227,0
77.524,9.7185e-05,0
77.524,5.2201e-05,0
77.525,5.539e-06,0
77.525,-2.8031e-05,0
77.526,-4.5151e-05,0
77.526,-5.304e-05,0
77.527,-5.6733e-05,0
77.527,-5.4887e-05,0
77.528,-5.069e-05,0
77.528,-4.2969e-05,0
77.529,-2.2492e-05,0
77.529,9.2317e-06,0
77.53,3.8437e-05,0
77.531,5.3544e-05,0
77.531,5.8076e-05,0
77.532,5.623e-05,0
77.532,5.1865e-05,0
77.533,5.2705e-05,0
77.533,6.7475e-05,0
77.534,8.6442e-05,0
77.534,9.3492e-05,0
77.535,8.7785e-05,0
77.535,7.335e-05,0
77.536,5.0187e-05,0
77.536,2.182e-05,0
77.537,-2.0142e-06,0
77.537,-7.8889e-06,0
77.538,2.5177e-06,0
77.538,1.5946e-05,0
77.539,3.2563e-05,0
77.539,8.275e-05,0
77.54,0.00015492,0
77.54,0.00019823,0
77.541,0.00018715,0
77.541,0.00013881,0
77.542,8.9799e-05,0
77.542,4.9516e-05,0
77.543,9.3996e-06,0
77.543,-2.9877e-05,0
77.544,-6.3951e-05,0
77.545,-8.3925e-05,0
77.545,-9.2149e-05,0
77.546,-9.6849e-05,0
77.546,-0.00010491,0
77.547,-0.00011498,0
77.547,-0.00011011,0
77.548,-8.4932e-05,0
77.548,-5.0019e-05,0
77.549,-1.2589e-05,0
77.549,1.7792e-05,0
77.55,3.4409e-05,0
77.55,3.0716e-05,0
77.551,2.0981e-05,0
77.551,2.7863e-05,0
77.552,4.3809e-05,0
77.552,5.2873e-05,0
77.553,4.683e-05,0
77.553,3.4577e-05,0
77.554,2.7359e-05,0
77.554,2.501e-05,0
77.555,2.2828e-05,0
77.555,1.796e-05,0
77.556,8.7282e-06,0
77.556,-2.5177e-06,0
77.557,-8.3925e-06,0
77.558,-6.0426e-06,0
77.558,6.714e-07,0
77.559,4.1962e-06,0
77.559,-3.357e-06,0
77.56,-1.4939e-05,0
77.56,-1.4099e-05,0
77.561,5.0355e-07,0
77.561,1.9974e-05,0
77.562,4.0787e-05,0
77.562,5.7237e-05,0
77.563,6.5461e-05,0
77.563,6.9154e-05,0
77.564,6.5965e-05,0
77.564,5.6901e-05,0
77.565,5.1865e-05,0
77.565,5.7908e-05,0
77.566,8.3757e-05,0
77.566,0.00011984,0
77.567,0.00014553,0
77.567,0.00014519,0
77.568,0.00012303,0
77.568,8.8457e-05,0
77.569,4.5823e-05,0
77.569,3.8605e-06,0
77.57,-3.2395e-05,0
77.57,-6.865e-05,0
77.571,-0.00010256,0
77.572,-0.00011884,0
77.572,-0.00011884,0
77.573,-0.00011548,0
77.573,-0.00011598,0
77.574,-0.00011817,0
77.574,-0.00011699,0
77.575,-0.00010961,0
77.575,-9.9702e-05,0
77.576,-8.8121e-05,0
77.576,-6.7308e-05,0
77.577,-2.8367e-05,0
77.577,6.3615e-05,0
77.578,0.000213,0
77.578,0.00033889,0
77.579,0.00036574,0
77.579,0.00029357,0
77.58,0.00017137,0
77.58,4.5319e-05,0
77.581,-5.6062e-05,0
77.581,-0.00011162,0
77.582,-0.0001321,0
77.582,-0.0001368,0
77.583,-0.00012941,0
77.583,-0.0001237,0
77.584,-0.00012908,0
77.585,-0.00013344,0
77.585,-0.0001227,0
77.586,-9.8192e-05,0
77.586,-6.9657e-05,0
77.587,-4.062e-05,0
77.587,-1.8967e-05,0
77.588,-9.5674e-06,0
77.588,5.0355e-06,0
77.589,4.2466e-05,0
77.589,0.00010407,0
77.59,0.00016634,0
77.59,0.00020343,0
77.591,0.00020327,0
77.591,0.00017104,0
77.592,0.00012253,0
77.592,8.1407e-05,0
77.593,6.0929e-05,0
77.593,5.0187e-05,0
77.594,3.743e-05,0
77.594,1.9638e-05,0
77.595,4.5319e-06,0
77.595,-2.5177e-06,0
77.596,-3.5248e-06,0
77.596,1.6785e-07,0
77.597,2.8534e-06,0
77.597,-8.5603e-06,0
77.598,-3.6423e-05,0
77.599,-6.7979e-05,0
77.599,-8.51e-05,0
77.6,-7.4861e-05,0
77.6,-4.1123e-05,0
77.601,1.1749e-06,0
77.601,3.5752e-05,0
77.602,5.4215e-05,0
77.602,5.9754e-05,0
77.603,5.7572e-05,0
77.603,5.5558e-05,0
77.604,5.9251e-05,0
77.604,7.0832e-05,0
77.605,9.0303e-05,0
77.605,0.00010726,0
77.606,0.00010793,0
77.606,9.8192e-05,0
77.607,9.1814e-05,0
77.607,8.8289e-05,0
77.608,8.275e-05,0
77.608,7.6707e-05,0
77.609,7.3686e-05,0
77.609,7.6875e-05,0
77.61,8.1407e-05,0
77.61,7.8721e-05,0
77.611,7.805e-05,0
77.612,8.04e-05,0
77.612,7.4693e-05,0
77.613,5.388e-05,0
77.613,2.6017e-05,0
77.614,3.8605e-06,0
77.614,-1.1582e-05,0
77.615,-2.9374e-05,0
77.615,-3.9109e-05,0
77.616,-3.0716e-05,0
77.616,-1.7624e-05,0
77.617,-1.1246e-05,0
77.617,-1.4939e-05,0
77.618,-2.9038e-05,0
77.618,-4.5487e-05,0
77.619,-5.7404e-05,0
77.619,-5.9922e-05,0
77.62,-5.5222e-05,0
77.62,-5.153e-05,0
77.621,-4.9012e-05,0
77.621,-4.2466e-05,0
77.622,-3.508e-05,0
77.622,-2.9038e-05,0
77.623,-1.9974e-05,0
77.623,-3.8605e-06,0
77.624,1.796e-05,0
77.624,5.0523e-05,0
77.625,9.5842e-05,0
77.626,0.00014301,0
77.626,0.00017104,0
77.627,0.00018849,0
77.627,0.00021904,0
77.628,0.00024422,0
77.628,0.00023214,0
77.629,0.00018296,0
77.629,0.00011598,0
77.63,4.7166e-05,0
77.63,-2.501e-05,0
77.631,-0.00010256,0
77.631,-0.00015895,0
77.632,-0.00015073,0
77.632,-8.9464e-05,0
77.633,-4.0787e-05,0
77.633,-4.0955e-05,0
77.634,-6.8482e-05,0
77.634,-9.6849e-05,0
77.635,-0.00010961,0
77.635,-0.00010658,0
77.636,-9.752e-05,0
77.636,-9.1814e-05,0
77.637,-9.0471e-05,0
77.637,-8.7114e-05,0
77.638,-6.63e-05,0
77.638,-2.7024e-05,0
77.639,1.0575e-05,0
77.64,3.6088e-05,0
77.64,4.2298e-05,0
77.641,4.062e-05,0
77.641,4.9851e-05,0
77.642,7.3014e-05,0
77.642,9.3828e-05,0
77.643,0.00010188,0
77.643,0.00010944,0
77.644,0.00012538,0
77.644,0.00014754,0
77.645,0.00015879,0
77.645,0.00013545,0
77.646,8.6275e-05,0
77.646,3.978e-05,0
77.647,-1.5106e-06,0
77.647,-4.6494e-05,0
77.648,-8.9799e-05,0
77.648,-0.0001091,0
77.649,-0.00010222,0
77.649,-8.8289e-05,0
77.65,-8.1407e-05,0
77.65,-7.6875e-05,0
77.651,-5.8579e-05,0
77.651,-2.4842e-05,0
77.652,1.3428e-06,0
77.653,3.6927e-06,0
77.653,-1.5106e-05,0
77.654,-3.3066e-05,0
77.654,-3.5752e-05,0
77.655,-2.7024e-05,0
77.655,-1.4603e-05,0
77.656,3.5248e-06,0
77.656,2.7024e-05,0
77.657,4.5823e-05,0
77.657,4.9012e-05,0
77.658,3.827e-05,0
77.658,2.652e-05,0
77.659,2.4002e-05,0
77.659,3.6591e-05,0
77.66,6.1433e-05,0
77.66,8.6442e-05,0
77.661,0.00010071,0
77.661,9.987e-05,0
77.662,9.0806e-05,0
77.662,7.9728e-05,0
77.663,6.9657e-05,0
77.663,6.0761e-05,0
77.664,4.6326e-05,0
77.664,3.4577e-05,0
77.665,3.4577e-05,0
77.665,4.0787e-05,0
77.666,3.9109e-05,0
77.667,2.7359e-05,0
77.667,2.031e-05,0
77.668,1.9303e-05,0
77.668,2.0645e-05,0
77.669,2.4674e-05,0
77.669,3.0045e-05,0
77.67,3.1891e-05,0
77.67,3.1891e-05,0
77.671,2.3667e-05,0
77.671,1.0071e-05,0
77.672,4.5319e-06,0
77.672,2.1317e-05,0
77.673,5.5894e-05,0
77.673,8.1743e-05,0
77.674,9.8024e-05,0
77.674,0.00014603,0
77.675,0.0002083,0
77.675,0.00022206,0
77.676,0.00018111,0
77.676,0.00012505,0
77.677,7.2007e-05,0
77.677,2.0981e-05,0
77.678,-2.652e-05,0
77.678,-7.0665e-05,0
77.679,-0.0001133,0
77.68,-0.00013495,0
77.68,-0.00010793,0
77.681,-5.153e-05,0
77.681,-8.896e-06,0
77.682,3.1891e-06,0
77.682,3.357e-06,0
77.683,6.714e-06,0
77.683,-1.6785e-07,0
77.684,-2.4506e-05,0
77.684,-4.448e-05,0
77.685,-3.4409e-05,0
77.685,3.1891e-06,0
77.686,3.743e-05,0
77.686,3.8437e-05,0
77.687,6.2104e-06,0
77.687,-3.6591e-05,0
77.688,-6.7979e-05,0
77.688,-8.0064e-05,0
77.689,-7.2007e-05,0
77.689,-5.3208e-05,0
77.69,-3.6759e-05,0
77.69,-2.887e-05,0
77.691,-2.8031e-05,0
77.691,-1.8631e-05,0
77.692,1.1917e-05,0
77.692,5.2201e-05,0
77.693,8.6442e-05,0
77.694,0.00010054,0
77.694,9.4835e-05,0
77.695,8.6275e-05,0
77.695,7.9057e-05,0
77.696,6.9322e-05,0
77.696,5.5222e-05,0
77.697,4.062e-05,0
77.697,3.7095e-05,0
77.698,4.4648e-05,0
77.698,5.4047e-05,0
77.699,6.5965e-05,0
77.699,7.9057e-05,0
77.7,7.9057e-05,0
77.7,6.7643e-05,0
77.701,4.683e-05,0
77.701,1.796e-05,0
77.702,-8.3925e-07,0
77.702,-4.6998e-06,0
77.703,-6.3783e-06,0
77.703,-1.2421e-05,0
77.704,-2.2324e-05,0
77.704,-3.743e-05,0
77.705,-5.1698e-05,0
77.705,-4.7166e-05,0
77.706,-2.7024e-05,0
77.707,-6.8818e-06,0
77.707,8.5603e-06,0
77.708,2.182e-05,0
77.708,3.743e-05,0
77.709,5.8244e-05,0
77.709,6.4286e-05,0
77.71,4.4144e-05,0
77.71,1.7288e-05,0
77.711,9.2317e-06,0
77.711,1.8799e-05,0
77.712,2.3667e-05,0
77.712,6.8818e-06,0
77.713,-2.4338e-05,0
77.713,-4.448e-05,0
77.714,-4.1291e-05,0
77.714,-2.6017e-05,0
77.715,-1.5946e-05,0
77.715,-1.326e-05,0
77.716,-1.1749e-06,0
77.716,3.5416e-05,0
77.717,7.9728e-05,0
77.717,0.00010356,0
77.718,0.00010021,0
77.718,7.9728e-05,0
77.719,5.5558e-05,0
77.719,4.1291e-05,0
77.72,4.3137e-05,0
77.721,5.0187e-05,0
77.721,4.9348e-05,0
77.722,3.978e-05,0
77.722,2.3667e-05,0
77.723,1.1749e-06,0
77.723,-6.2104e-06,0
77.724,1.5946e-05,0
77.724,3.6591e-05,0
77.725,3.6591e-05,0
77.725,3.122e-05,0
77.726,3.3738e-05,0
77.726,3.6423e-05,0
77.727,3.5416e-05,0
77.727,3.3402e-05,0
77.728,3.2395e-05,0
77.728,2.1653e-05,0
77.729,-7.2175e-06,0
77.729,-4.7837e-05,0
77.73,-8.9464e-05,0
77.73,-0.00012068,0
77.731,-0.00013277,0
77.731,-0.00013243,0
77.732,-0.00012454,0
77.732,-0.00010373,0
77.733,-6.5965e-05,0
77.734,-1.9638e-05,0
77.734,2.2995e-05,0
77.735,5.623e-05,0
77.735,8.1071e-05,0
77.736,9.8527e-05,0
77.736,0.00012018,0
77.737,0.00014838,0
77.737,0.00016063,0
77.738,0.00014351,0
77.738,0.00010239,0
77.739,6.7643e-05,0
77.739,8.426e-05,0
77.74,0.00013109,0
77.74,0.00015291,0
77.741,0.00013545,0
77.741,0.00010188,0
77.742,6.1433e-05,0
77.742,1.7288e-05,0
77.743,-1.7456e-05,0
77.743,-3.6591e-05,0
77.744,-5.2705e-05,0
77.744,-8.51e-05,0
77.745,-0.00013143,0
77.745,-0.00016432,0
77.746,-0.0001561,0
77.746,-0.00011061,0
77.747,-6.5629e-05,0
77.748,-4.918e-05,0
77.748,-3.7766e-05,0
77.749,1.5106e-06,0
77.749,4.8173e-05,0
77.75,7.6036e-05,0
77.75,9.8527e-05,0
77.751,0.00013126,0
77.751,0.00014888,0
77.752,0.00012538,0
77.752,7.335e-05,0
77.753,2.3667e-05,0
77.753,-7.8889e-06,0
77.754,-2.7192e-05,0
77.754,-4.7166e-05,0
77.755,-6.7811e-05,0
77.755,-8.3421e-05,0
77.756,-9.2821e-05,0
77.756,-9.3996e-05,0
77.757,-8.4932e-05,0
77.757,-6.0929e-05,0
77.758,-2.5177e-05,0
77.758,1.0071e-05,0
77.759,3.6927e-05,0
77.759,5.4215e-05,0
77.76,6.2608e-05,0
77.761,6.8315e-05,0
77.761,8.3253e-05,0
77.762,0.00010491,0
77.762,0.00011196,0
77.763,9.7185e-05,0
77.763,8.04e-05,0
77.764,7.3014e-05,0
77.764,6.865e-05,0
77.765,6.0761e-05,0
77.765,5.1194e-05,0
77.766,4.2298e-05,0
77.766,3.8102e-05,0
77.767,3.8773e-05,0
77.767,3.743e-05,0
77.768,2.7192e-05,0
77.768,2.031e-05,0
77.769,2.9877e-05,0
77.769,4.9012e-05,0
77.77,6.6636e-05,0
77.77,7.0665e-05,0
77.771,6.2272e-05,0
77.771,5.2873e-05,0
77.772,4.8005e-05,0
77.772,4.8173e-05,0
77.773,4.9348e-05,0
77.773,4.7333e-05,0
77.774,4.2802e-05,0
77.775,4.0116e-05,0
77.775,3.0381e-05,0
77.776,6.5461e-06,0
77.776,-1.9135e-05,0
77.777,-3.3234e-05,0
77.777,-2.5513e-05,0
77.778,-8.5603e-06,0
77.778,1.6785e-07,0
77.779,-3.357e-06,0
77.779,-1.4939e-05,0
77.78,-2.9709e-05,0
77.78,-3.8605e-05,0
77.781,-3.1724e-05,0
77.781,-6.2104e-06,0
77.782,2.4002e-05,0
77.782,4.1962e-05,0
77.783,4.3641e-05,0
77.783,2.9038e-05,0
77.784,3.1891e-06,0
77.784,-2.0813e-05,0
77.785,-3.3738e-05,0
77.785,-3.508e-05,0
77.786,-3.2395e-05,0
77.786,-2.5345e-05,0
77.787,-5.539e-06,0
77.788,4.0116e-05,0
77.788,0.00010054,0
77.789,0.00014385,0
77.789,0.00016785,0
77.79,0.00019051,0
77.79,0.00019152,0
77.791,0.00015409,0
77.791,9.6178e-05,0
77.792,4.683e-05,0
77.792,1.3764e-05,0
77.793,-8.2246e-06,0
77.793,-1.6281e-05,0
77.794,1.8463e-06,0
77.794,3.7263e-05,0
77.795,8.0903e-05,0
77.795,0.00012404,0
77.796,0.00013462,0
77.796,0.00010222,0
77.797,4.8173e-05,0
77.797,-1.2924e-05,0
77.798,-7.9057e-05,0
77.798,-0.00013915,0
77.799,-0.00017675,0
77.799,-0.0001843,0
77.8,-0.0001702,0
77.8,-0.00014133,0
77.801,-0.00010642,0
77.802,-8.3925e-05,0
77.802,-6.5293e-05,0
77.803,-3.9948e-05,0
77.803,-1.0407e-05,0
77.804,6.714e-06,0
77.804,-4.6998e-06,0
77.805,-4.2802e-05,0
77.805,-8.0735e-05,0
77.806,-9.6513e-05,0
77.806,-8.6946e-05,0
77.807,-6.4286e-05,0
77.807,-4.1794e-05,0
77.808,-2.5345e-05,0
77.808,-1.4939e-05,0
77.809,-4.3641e-06,0
77.809,1.1917e-05,0
77.81,4.1962e-05,0
77.81,9.4835e-05,0
77.811,0.00014804,0
77.811,0.00017842,0
77.812,0.00018111,0
77.812,0.00016097,0
77.813,0.0001274,0
77.813,0.00010524,0
77.814,0.00012874,0
77.815,0.00017607,0
77.815,0.00019303,0
77.816,0.00016097,0
77.816,9.4163e-05,0
77.817,2.1988e-05,0
77.817,-3.7934e-05,0
77.818,-8.51e-05,0
77.818,-0.00011901,0
77.819,-0.00012639,0
77.819,-9.9535e-05,0
77.82,-5.9586e-05,0
77.82,-2.9877e-05,0
77.821,-3.357e-07,0
77.821,3.7766e-05,0
77.822,6.63e-05,0
77.822,7.2175e-05,0
77.823,6.0761e-05,0
77.823,3.9109e-05,0
77.824,1.3764e-05,0
77.824,5.0355e-06,0
77.825,1.4939e-05,0
77.825,1.8296e-05,0
77.826,1.4435e-05,0
77.826,3.0045e-05,0
77.827,5.0858e-05,0
77.828,4.8173e-05,0
77.828,2.182e-05,0
77.829,-8.896e-06,0
77.829,-3.2395e-05,0
77.83,-4.3473e-05,0
77.83,-4.1962e-05,0
77.831,-3.2395e-05,0
77.831,-2.1653e-05,0
77.832,-1.4435e-05,0
77.832,-9.5674e-06,0
77.833,-2.6856e-06,0
77.833,1.7288e-05,0
77.834,5.153e-05,0
77.834,8.2918e-05,0
77.835,9.5842e-05,0
77.835,9.0806e-05,0
77.836,7.2511e-05,0
77.836,5.4551e-05,0
77.837,4.3809e-05,0
77.837,4.1123e-05,0
77.838,4.3305e-05,0
77.838,4.6159e-05,0
77.839,4.8844e-05,0
77.839,5.4215e-05,0
77.84,5.8244e-05,0
77.84,5.304e-05,0
77.841,4.3809e-05,0
77.842,3.8605e-05,0
77.842,3.4073e-05,0
77.843,2.1317e-05,0
77.843,1.1749e-06,0
77.844,-1.8296e-05,0
77.844,-2.5681e-05,0
77.845,-1.4267e-05,0
77.845,9.9031e-06,0
77.846,3.0381e-05,0
77.846,3.8773e-05,0
77.847,3.743e-05,0
77.847,2.5681e-05,0
77.848,1.2253e-05,0
77.848,1.4435e-05,0
77.849,3.6423e-05,0
77.849,6.8986e-05,0
77.85,0.00010054,0
77.85,0.00011749,0
77.851,0.00010793,0
77.851,6.7979e-05,0
77.852,2.0645e-05,0
77.852,-9.7353e-06,0
77.853,-1.8967e-05,0
77.853,-1.5778e-05,0
77.854,-1.1582e-05,0
77.855,3.357e-06,0
77.855,3.3234e-05,0
77.856,7.6204e-05,0
77.856,0.000118,0
77.857,0.0001368,0
77.857,0.00011833,0
77.858,7.0665e-05,0
77.858,1.8631e-05,0
77.859,-2.9709e-05,0
77.859,-7.1e-05,0
77.86,-0.00010323,0
77.86,-0.00012924,0
77.861,-0.00014855,0
77.861,-0.00015459,0
77.862,-0.00014771,0
77.862,-0.00013327,0
77.863,-0.00011984,0
77.863,-0.00010759,0
77.864,-8.5771e-05,0
77.864,-4.683e-05,0
77.865,9.2317e-06,0
77.865,5.7908e-05,0
77.866,7.1e-05,0
77.866,5.8579e-05,0
77.867,4.6494e-05,0
77.867,4.0116e-05,0
77.868,3.122e-05,0
77.869,2.0645e-05,0
77.869,1.4603e-05,0
77.87,1.5274e-05,0
77.87,1.9974e-05,0
77.871,2.501e-05,0
77.871,2.3667e-05,0
77.872,1.9638e-05,0
77.872,1.796e-05,0
77.873,1.8967e-05,0
77.873,3.5584e-05,0
77.874,7.2847e-05,0
77.874,0.00010121,0
77.875,9.3828e-05,0
77.875,6.3951e-05,0
77.876,4.8844e-05,0
77.876,5.7908e-05,0
77.877,8.0735e-05,0
77.877,0.00010188,0
77.878,0.00010558,0
77.878,9.2821e-05,0
77.879,7.8721e-05,0
77.879,6.8818e-05,0
77.88,5.4551e-05,0
77.88,3.4577e-05,0
77.881,1.5946e-05,0
77.882,-1.5106e-06,0
77.882,-2.3667e-05,0
77.883,-4.7837e-05,0
77.883,-6.0594e-05,0
77.884,-6.1601e-05,0
77.884,-6.6133e-05,0
77.885,-7.4861e-05,0
77.885,-7.4022e-05,0
77.886,-6.1265e-05,0
77.886,-4.3641e-05,0
77.887,-2.2995e-05,0
77.887,-3.1891e-06,0
77.888,1.4435e-05,0
77.888,3.2059e-05,0
77.889,5.3376e-05,0
77.889,8.04e-05,0
77.89,0.00010994,0
77.89,0.00013478,0
77.891,0.00014418,0
77.891,0.00013109,0
77.892,0.00010054,0
77.892,6.1936e-05,0
77.893,3.2395e-05,0
77.893,2.2156e-05,0
77.894,2.0813e-05,0
77.894,9.5674e-06,0
77.895,-1.561e-05,0
77.896,-3.5416e-05,0
77.896,-1.6281e-05,0
77.897,3.3402e-05,0
77.897,8.3421e-05,0
77.898,0.00012471,0
77.898,0.00014687,0
77.899,0.00013478,0
77.899,8.5771e-05,0
77.9,2.0478e-05,0
77.9,-2.7024e-05,0
77.901,-4.8676e-05,0
77.901,-5.7908e-05,0
77.902,-6.1601e-05,0
77.902,-6.8818e-05,0
77.903,-8.51e-05,0
77.903,-9.9702e-05,0
77.904,-9.836e-05,0
77.904,-7.9728e-05,0
77.905,-5.5726e-05,0
77.905,-2.9038e-05,0
77.906,-2.0142e-06,0
77.906,1.2589e-05,0
77.907,5.8747e-06,0
77.907,-9.2317e-06,0
77.908,-7.2175e-06,0
77.909,1.6281e-05,0
77.909,4.1794e-05,0
77.91,6.0258e-05,0
77.91,8.0735e-05,0
77.911,9.8024e-05,0
77.911,0.00010726,0
77.912,0.00010826,0
77.912,9.752e-05,0
77.913,7.9561e-05,0
77.913,5.7908e-05,0
77.914,3.122e-05,0
77.914,1.0071e-06,0
77.915,-1.8296e-05,0
77.915,-4.1962e-06,0
77.916,3.3738e-05,0
77.916,6.4958e-05,0
77.917,7.9057e-05,0
77.917,6.3951e-05,0
77.918,2.182e-05,0
77.918,-2.7695e-05,0
77.919,-6.3279e-05,0
77.919,-6.2943e-05,0
77.92,-9.5674e-06,0
77.92,8.5603e-05,0
77.921,0.00015727,0
77.921,0.00015895,0
77.922,0.0001227,0
77.923,9.366e-05,0
77.923,6.8986e-05,0
77.924,3.9948e-05,0
77.924,1.2924e-05,0
77.925,-2.8534e-05,0
77.925,-8.7953e-05,0
77.926,-0.00012639,0
77.926,-0.00012387,0
77.927,-0.00010491,0
77.927,-9.7017e-05,0
77.928,-9.4835e-05,0
77.928,-8.6946e-05,0
77.929,-7.9225e-05,0
77.929,-6.7979e-05,0
77.93,-3.9445e-05,0
77.93,5.2033e-06,0
77.931,5.3208e-05,0
77.931,8.275e-05,0
77.932,8.7449e-05,0
77.932,7.57e-05,0
77.933,5.8579e-05,0
77.933,3.9277e-05,0
77.934,1.2253e-05,0
77.934,-1.9303e-05,0
77.935,-3.2395e-05,0
77.936,-1.4939e-05,0
77.936,2.1988e-05,0
77.937,5.0858e-05,0
77.937,5.7908e-05,0
77.938,5.1865e-05,0
77.938,4.0787e-05,0
77.939,2.6688e-05,0
77.939,1.5106e-05,0
77.94,7.2175e-06,0
77.94,4.3641e-06,0
77.941,5.2033e-06,0
77.941,6.8818e-06,0
77.942,8.896e-06,0
77.942,1.5946e-05,0
77.943,3.4073e-05,0
77.943,5.4887e-05,0
77.944,6.63e-05,0
77.944,7.0665e-05,0
77.945,7.335e-05,0
77.945,7.3518e-05,0
77.946,7.0329e-05,0
77.946,6.9657e-05,0
77.947,7.3014e-05,0
77.947,7.4189e-05,0
77.948,6.8986e-05,0
77.948,6.4958e-05,0
77.949,5.9251e-05,0
77.95,4.8844e-05,0
77.95,5.0858e-05,0
77.951,6.7643e-05,0
77.951,7.6707e-05,0
77.952,6.2272e-05,0
77.952,2.8702e-05,0
77.953,-1.8463e-06,0
77.953,-1.3596e-05,0
77.954,2.182e-06,0
77.954,4.1794e-05,0
77.955,7.2175e-05,0
77.955,6.6972e-05,0
77.956,2.9374e-05,0
77.956,-2.3499e-05,0
77.957,-6.479e-05,0
77.957,-7.6204e-05,0
77.958,-6.9322e-05,0
77.958,-6.1601e-05,0
77.959,-5.8747e-05,0
77.959,-5.5894e-05,0
77.96,-5.1865e-05,0
77.96,-4.5319e-05,0
77.961,-1.3092e-05,0
77.961,3.978e-05,0
77.962,8.2918e-05,0
77.963,0.00011196,0
77.963,0.00013529,0
77.964,0.00014905,0
77.964,0.00015157,0
77.965,0.00014385,0
77.965,0.00012337,0
77.966,9.1142e-05,0
77.966,5.539e-05,0
77.967,1.6449e-05,0
77.967,-3.4745e-05,0
77.968,-8.7617e-05,0
77.968,-0.00011699,0
77.969,-0.00012001,0
77.969,-0.00011179,0
77.97,-9.3492e-05,0
77.97,-6.5629e-05,0
77.971,-4.1123e-05,0
77.971,-2.6352e-05,0
77.972,-2.4002e-05,0
77.972,-2.417e-05,0
77.973,-1.0071e-05,0
77.973,2.1317e-05,0
77.974,5.7237e-05,0
77.974,7.4525e-05,0
77.975,6.1936e-05,0
77.975,3.3738e-05,0
77.976,9.2317e-06,0
77.977,-8.896e-06,0
77.977,-2.3667e-05,0
77.978,-2.9038e-05,0
77.978,-2.1653e-05,0
77.979,-1.1246e-05,0
77.979,1.1749e-06,0
77.98,2.2156e-05,0
77.98,4.5487e-05,0
77.981,5.9251e-05,0
77.981,5.8579e-05,0
77.982,5.3376e-05,0
77.982,5.9251e-05,0
77.983,7.2679e-05,0
77.983,7.8386e-05,0
77.984,7.1168e-05,0
77.984,5.0523e-05,0
77.985,2.1653e-05,0
77.985,0,0
77.986,1.1749e-06,0
77.986,1.9638e-05,0
77.987,3.7095e-05,0
77.987,4.0955e-05,0
77.988,4.4648e-05,0
77.988,6.479e-05,0
77.989,8.3421e-05,0
77.99,7.57e-05,0
77.99,5.1194e-05,0
77.991,3.1891e-05,0
77.991,1.9974e-05,0
77.992,6.0426e-06,0
77.992,-1.1246e-05,0
77.993,-2.6688e-05,0
77.993,-3.3738e-05,0
77.994,-3.122e-05,0
77.994,-2.3331e-05,0
77.995,-1.8296e-05,0
77.995,-2.3667e-05,0
77.996,-3.4409e-05,0
77.996,-4.0452e-05,0
77.997,-5.4383e-05,0
77.997,-7.0329e-05,0
77.998,-6.3783e-05,0
77.998,-3.743e-05,0
77.999,-1.3596e-05,0
77.999,1.6785e-06,0
78,1.561e-05,0
78,3.0884e-05,0
78.001,4.0452e-05,0
78.001,3.7766e-05,0
78.002,3.0045e-05,0
78.002,3.0716e-05,0
78.003,4.1794e-05,0
78.004,5.0858e-05,0
78.004,5.2537e-05,0
78.005,5.4215e-05,0
78.005,5.9586e-05,0
78.006,6.2776e-05,0
78.006,6.2608e-05,0
78.007,7.2175e-05,0
78.007,9.6513e-05,0
78.008,0.00012203,0
78.008,0.00012807,0
78.009,0.00011514,0
78.009,9.7185e-05,0
78.01,8.5267e-05,0
78.01,7.2343e-05,0
78.011,4.9516e-05,0
78.011,2.8702e-05,0
78.012,2.5177e-05,0
78.012,3.3402e-05,0
78.013,2.8031e-05,0
78.013,9.2317e-06,0
78.014,-2.8534e-06,0
78.014,-5.8747e-06,0
78.015,-1.0575e-05,0
78.015,-9.3996e-06,0
78.016,2.1317e-05,0
78.016,6.6804e-05,0
78.017,8.6275e-05,0
78.018,7.8386e-05,0
78.018,6.009e-05,0
78.019,3.2731e-05,0
78.019,6.5461e-06,0
78.02,-1.4603e-05,0
78.02,-1.8967e-05,0
78.021,-7.3854e-06,0
78.021,-8.7282e-06,0
78.022,-3.4073e-05,0
78.022,-6.714e-05,0
78.023,-0.00010088,0
78.023,-0.0001227,0
78.024,-0.00012035,0
78.024,-9.7353e-05,0
78.025,-7.5364e-05,0
78.025,-7.4022e-05,0
78.026,-7.9057e-05,0
78.026,-7.2847e-05,0
78.027,-5.9922e-05,0
78.027,-4.5151e-05,0
78.028,-2.266e-05,0
78.028,1.3596e-05,0
78.029,5.5222e-05,0
78.029,8.4092e-05,0
78.03,9.6178e-05,0
78.031,0.00010188,0
78.031,0.00011095,0
78.032,0.00013277,0
78.032,0.0001603,0
78.033,0.0001702,0
78.033,0.00015006,0
78.034,0.00010491,0
78.034,5.1865e-05,0
78.035,0.00013512,0
78.035,0.00055206,0
78.036,0.0009559,0
78.036,0.0010835,0
78.037,0.0010311,0
78.037,0.00094852,0
78.038,0.00087063,0
78.038,0.00077597,0
78.039,0.00066653,0
78.039,0.00056918,0
78.04,0.00050002,0
78.04,0.00044363,0
78.041,0.00037649,0
78.041,0.0003033,0
78.042,0.00023113,0
78.042,0.00015392,0
78.043,8.2078e-05,0
78.043,2.6688e-05,0
78.044,-1.4939e-05,0
78.045,-5.4215e-05,0
78.045,-9.3996e-05,0
78.046,-0.00012975,0
78.046,-0.00015879,0
78.047,-0.00018564,0
78.047,-0.00020729,0
78.048,-0.00021099,0
78.048,-0.00020159,0
78.049,-0.00020159,0
78.049,-0.0002229,0
78.05,-0.00026033,0
78.05,-0.00029592,0
78.051,-0.00031908,0
78.051,-0.00032848,0
78.052,-0.00032949,0
78.052,-0.0003315,0
78.053,-0.00033906,0
78.053,-0.00035047,0
78.054,-0.00035802,0
78.054,-0.00034292,0
78.055,-0.00030951,0
78.055,-0.00028534,0
78.056,-0.00028215,0
78.056,-0.0002929,0
78.057,-0.00030683,0
78.058,-0.00031522,0
78.058,-0.00032143,0
78.059,-0.00032412,0
78.059,-0.00032227,0
78.06,-0.00031774,0
78.06,-0.00031052,0
78.061,-0.00030733,0
78.061,-0.00031673,0
78.062,-0.000331,0
78.062,-0.00032915,0
78.063,-0.00030465,0
78.063,-0.00027141,0
78.064,-0.00024842,0
78.064,-0.00024305,0
78.065,-0.00024338,0
78.065,-0.00024187,0
78.066,-0.00024187,0
78.066,-0.0002407,0
78.067,-0.00023062,0
78.067,-0.00019991,0
78.068,-0.00013831,0
78.068,-6.6972e-05,0
78.069,-1.4267e-05,0
78.069,2.5681e-05,0
78.07,5.4719e-05,0
78.07,6.4118e-05,0
78.071,5.2033e-05,0
78.072,2.5849e-05,0
78.072,-2.3499e-06,0
78.073,-3.4073e-05,0
78.073,-7.8553e-05,0
78.074,-0.00013193,0
78.074,-0.000189,0
78.075,-0.00022811,0
78.075,-0.00022878,0
78.076,-0.00020511,0
78.076,-0.00017171,0
78.077,-0.00013545,0
78.077,-9.8863e-05,0
78.078,-5.9922e-05,0
78.078,-2.2828e-05,0
78.079,2.5177e-06,0
78.079,1.7792e-05,0
78.08,3.2059e-05,0
78.08,4.8173e-05,0
78.081,6.6636e-05,0
78.081,8.3085e-05,0
78.082,9.3828e-05,0
78.082,0.00010021,0
78.083,0.00010927,0
78.083,0.00012673,0
78.084,0.0001519,0
78.085,0.0001848,0
78.085,0.00021334,0
78.086,0.00021837,0
78.086,0.00019689,0
78.087,0.00016835,0
78.087,0.00014955,0
78.088,0.0001378,0
78.088,0.00012001,0
78.089,9.9199e-05,0
78.089,9.3492e-05,0
78.09,9.2485e-05,0
78.09,8.4092e-05,0
78.091,8.04e-05,0
78.091,8.2414e-05,0
78.092,7.0497e-05,0
78.092,5.1865e-05,0
78.093,3.4745e-05,0
78.093,2.501e-05,0
78.094,2.8367e-05,0
78.094,4.6326e-05,0
78.095,7.5029e-05,0
78.095,0.00010524,0
78.096,0.00012505,0
78.096,0.0001274,0
78.097,0.00012035,0
78.097,0.00011263,0
78.098,0.00010574,0
78.099,0.00010105,0
78.099,9.4835e-05,0
78.1,7.335e-05,0
78.1,4.0452e-05,0
78.101,1.6281e-05,0
78.101,2.0142e-06,0
78.102,-1.0071e-05,0
78.102,-1.2253e-05,0
78.103,-3.5248e-06,0
78.103,7.3854e-06,0
78.104,1.0575e-05,0
78.104,1.0407e-05,0
78.105,3.6088e-05,0
78.105,9.601e-05,0
78.106,0.00014267,0
78.106,0.00014855,0
78.107,0.00012656,0
78.107,9.8863e-05,0
78.108,8.275e-05,0
78.108,8.5771e-05,0
78.109,9.2149e-05,0
78.109,7.8721e-05,0
78.11,3.592e-05,0
78.11,-1.8631e-05,0
78.111,-5.4551e-05,0
78.112,-6.2272e-05,0
78.112,-3.7766e-05,0
78.113,7.8889e-06,0
78.113,4.4648e-05,0
78.114,5.7404e-05,0
78.114,6.1433e-05,0
78.115,7.0329e-05,0
78.115,8.2582e-05,0
78.116,9.1142e-05,0
78.116,9.0135e-05,0
78.117,7.5029e-05,0
78.117,4.7669e-05,0
78.118,2.2995e-05,0
78.118,2.887e-05,0
78.119,6.479e-05,0
78.119,0.00010155,0
78.12,0.00012136,0
78.12,0.00012874,0
78.121,0.00012337,0
78.121,0.00010222,0
78.122,7.7714e-05,0
78.122,5.8244e-05,0
78.123,4.3137e-05,0
78.123,3.0381e-05,0
78.124,1.9638e-05,0
78.124,1.0575e-05,0
78.125,3.357e-06,0
78.126,3.1891e-06,0
78.126,1.7792e-05,0
78.127,4.5151e-05,0
78.127,8.1575e-05,0
78.128,0.000118,0
78.128,0.0001368,0
78.129,0.00013243,0
78.129,0.00011128,0
78.13,8.6946e-05,0
78.13,8.3421e-05,0
78.131,9.8192e-05,0
78.131,0.00010524,0
78.132,8.5771e-05,0
78.132,3.7263e-05,0
78.133,-2.5849e-05,0
78.133,-8.2414e-05,0
78.134,-0.00011917,0
78.134,-0.00011766,0
78.135,-8.0064e-05,0
78.135,-3.7263e-05,0
78.136,-1.6281e-05,0
78.136,-2.031e-05,0
78.137,-2.6017e-05,0
78.137,-1.3596e-05,0
78.138,9.7353e-06,0
78.139,3.2059e-05,0
78.139,5.7572e-05,0
78.14,9.8695e-05,0
78.14,0.00014888,0
78.141,0.00018245,0
78.141,0.00017943,0
78.142,0.00015341,0
78.142,0.00013344,0
78.143,0.00012522,0
78.143,0.00011951,0
78.144,0.00010709,0
78.144,7.9057e-05,0
78.145,4.0452e-05,0
78.145,1.4603e-05,0
78.146,1.9974e-05,0
78.146,2.4674e-05,0
78.147,-1.1749e-06,0
78.147,8.51e-05,0
78.148,0.00034057,0
78.148,0.00048911,0
78.149,0.00043053,0
78.149,0.00028585,0
78.15,0.00018312,0
78.15,0.00015291,0
78.151,0.00015996,0
78.151,0.00015795,0
78.152,0.00013411,0
78.153,0.00010323,0
78.153,6.3951e-05,0
78.154,1.4267e-05,0
78.154,-2.9206e-05,0
78.155,-5.388e-05,0
78.155,-4.7501e-05,0
78.156,-1.9135e-05,0
78.156,-1.0071e-06,0
78.157,-8.2246e-06,0
78.157,-4.3809e-05,0
78.158,-9.7856e-05,0
78.158,-0.00013864,0
78.159,-0.0001509,0
78.159,-0.00013965,0
78.16,-0.00010726,0
78.16,-6.7979e-05,0
78.161,-4.3137e-05,0
78.161,-4.0787e-05,0
78.162,-5.7572e-05,0
78.162,-8.2582e-05,0
78.163,-0.00010642,0
78.163,-0.00011044,0
78.164,-8.0232e-05,0
78.164,-4.5991e-05,0
78.165,-5.7237e-05,0
78.166,-0.00011632,0
78.166,-0.00017758,0
78.167,-0.00021048,0
78.167,-0.00021669,0
78.168,-0.00020645,0
78.168,-0.00018816,0
78.169,-0.00016466,0
78.169,-0.00013999,0
78.17,-0.0001185,0
78.17,-9.987e-05,0
78.171,-7.9393e-05,0
78.171,-6.0258e-05,0
78.172,-5.0187e-05,0
78.172,-5.0187e-05,0
78.173,-4.8676e-05,0
78.173,-3.5584e-05,0
78.174,-1.561e-05,0
78.174,2.3499e-06,0
78.175,1.4267e-05,0
78.175,2.1988e-05,0
78.176,2.4506e-05,0
78.176,1.7792e-05,0
78.177,6.2104e-06,0
78.177,-1.5106e-06,0
78.178,-2.182e-06,0
78.178,-2.182e-06,0
78.179,-5.0355e-06,0
78.18,-7.3854e-06,0
78.18,-3.5248e-06,0
78.181,1.9135e-05,0
78.181,4.9516e-05,0
78.182,6.6972e-05,0
78.182,6.2776e-05,0
78.183,3.9109e-05,0
78.183,1.4939e-05,0
78.184,6.8818e-06,0
78.184,1.9974e-05,0
78.185,5.9922e-05,0
78.185,0.00011296,0
78.186,0.00014754,0
78.186,0.00015358,0
78.187,0.00014536,0
78.187,0.0001326,0
78.188,0.00012152,0
78.188,0.00011514,0
78.189,0.00010977,0
78.189,9.2821e-05,0
78.19,6.5797e-05,0
78.19,4.2802e-05,0
78.191,2.8031e-05,0
78.191,1.7121e-05,0
78.192,1.2421e-05,0
78.193,1.9135e-05,0
78.193,3.9277e-05,0
78.194,7.1e-05,0
78.194,9.5674e-05,0
78.195,9.0974e-05,0
78.195,5.4887e-05,0
78.196,1.1749e-06,0
78.196,-5.2873e-05,0
78.197,-9.9535e-05,0
78.197,-0.00014015,0
78.198,-0.00016013,0
78.198,-0.0001509,0
78.199,-0.00012605,0
78.199,-0.00010155,0
78.2,-8.2078e-05,0
78.2,-6.4958e-05,0
78.201,-4.5991e-05,0
78.201,-2.5681e-05,0
78.202,-5.2033e-06,0
78.202,1.561e-05,0
78.203,4.2802e-05,0
78.203,7.2007e-05,0
78.204,8.7617e-05,0
78.204,8.426e-05,0
78.205,6.8818e-05,0
78.206,5.1362e-05,0
78.206,3.978e-05,0
78.207,4.1459e-05,0
78.207,5.0523e-05,0
78.208,5.153e-05,0
78.208,4.062e-05,0
78.209,2.9709e-05,0
78.209,2.1317e-05,0
78.21,9.9031e-06,0
78.21,6.714e-06,0
78.211,2.2828e-05,0
78.211,4.1459e-05,0
78.212,4.2802e-05,0
78.212,2.7863e-05,0
78.213,6.3783e-06,0
78.213,-1.4939e-05,0
78.214,-1.9471e-05,0
78.214,-3.6927e-06,0
78.215,1.3596e-05,0
78.215,2.182e-05,0
78.216,2.9541e-05,0
78.216,4.5319e-05,0
78.217,7.2343e-05,0
78.217,0.00010323,0
78.218,0.0001279,0
78.218,0.0001415,0
78.219,0.00014217,0
78.22,0.00012656,0
78.22,9.3156e-05,0
78.221,4.9012e-05,0
78.221,7.7211e-06,0
78.222,-1.4939e-05,0
78.222,-2.0142e-05,0
78.223,-2.501e-05,0
78.223,-4.0787e-05,0
78.224,-6.2104e-05,0
78.224,-6.1265e-05,0
78.225,-2.0813e-05,0
78.225,3.2059e-05,0
78.226,7.0665e-05,0
78.226,8.4092e-05,0
78.227,7.6371e-05,0
78.227,5.7908e-05,0
78.228,4.918e-05,0
78.228,8.9799e-05,0
78.229,0.00016097,0
78.229,0.00020427,0
78.23,0.00020276,0
78.23,0.00018346,0
78.231,0.00016869,0
78.231,0.00016432,0
78.232,0.00016533,0
78.233,0.00016466,0
78.233,0.00015879,0
78.234,0.00014989,0
78.234,0.00014083,0
78.235,0.00012773,0
78.235,0.00011061,0
78.236,9.0639e-05,0
78.236,7.2007e-05,0
78.237,6.0929e-05,0
78.237,6.7643e-05,0
78.238,9.8527e-05,0
78.238,0.00012522,0
78.239,0.00011666,0
78.239,7.8218e-05,0
78.24,2.9206e-05,0
78.24,1.1749e-06,0
78.241,2.4338e-05,0
78.241,8.8289e-05,0
78.242,0.00015106,0
78.242,0.00015895,0
78.243,0.00010658,0
78.243,3.2563e-05,0
78.244,-4.5151e-05,0
78.244,-0.00012656,0
78.245,-0.0001937,0
78.245,-0.00023029,0
78.246,-0.00024388,0
78.247,-0.00024137,0
78.247,-0.00022324,0
78.248,-0.00019219,0
78.248,-0.0001519,0
78.249,-9.987e-05,0
78.249,-3.1388e-05,0
78.25,5.069e-05,0
78.25,0.0001284,0
78.251,0.0001801,0
78.251,0.00020327,0
78.252,0.00021183,0
78.252,0.00021468,0
78.253,0.00021115,0
78.253,0.00020259,0
78.254,0.0001942,0
78.254,0.00018447,0
78.255,0.00017104,0
78.255,0.0001514,0
78.256,0.00012169,0
78.256,9.2988e-05,0
78.257,8.7114e-05,0
78.257,0.0001044,0
78.258,0.00012404,0
78.258,0.00012605,0
78.259,0.00011128,0
78.26,9.1814e-05,0
78.26,6.7643e-05,0
78.261,2.9877e-05,0
78.261,-1.2421e-05,0
78.262,-4.2634e-05,0
78.262,-6.0761e-05,0
78.263,-9.1478e-05,0
78.263,-0.00014401,0
78.264,-0.00018849,0
78.264,-0.00019219,0
78.265,-0.00016332,0
78.265,-0.00012454,0
78.266,-7.2511e-05,0
78.266,5.8747e-06,0
78.267,6.9657e-05,0
78.267,8.6442e-05,0
78.268,6.8315e-05,0
78.268,3.3234e-05,0
78.269,-1.561e-05,0
78.269,-6.6972e-05,0
78.27,-0.00011397,0
78.27,-0.00016197,0
78.271,-0.00020662,0
78.271,-0.00022559,0
78.272,-0.00021267,0
78.272,-0.00020427,0
78.273,-0.00020797,0
78.274,-0.00020914,0
78.274,-0.00020427,0
78.275,-0.00020444,0
78.275,-0.00020259,0
78.276,-0.0001895,0
78.276,-0.00017037,0
78.277,-0.00015224,0
78.277,-0.00013948,0
78.278,-0.00012975,0
78.278,-0.00011699,0
78.279,-9.3492e-05,0
78.279,-6.8482e-05,0
78.28,-6.5965e-05,0
78.28,-8.1743e-05,0
78.281,-8.5435e-05,0
78.281,-5.8579e-05,0
78.282,-2.9709e-05,0
78.282,-3.2731e-05,0
78.283,-5.623e-05,0
78.283,-6.9322e-05,0
78.284,-6.865e-05,0
78.284,-7.0832e-05,0
78.285,-7.0329e-05,0
78.285,-5.5726e-05,0
78.286,-4.0787e-05,0
78.287,-3.7095e-05,0
78.287,-4.2466e-05,0
78.288,-5.2873e-05,0
78.288,-6.3279e-05,0
78.289,-6.0426e-05,0
78.289,-4.2634e-05,0
78.29,-2.8367e-05,0
78.29,-3.7095e-05,0
78.291,-5.2537e-05,0
78.291,-5.5558e-05,0
78.292,-4.8508e-05,0
78.292,-3.6088e-05,0
78.293,-1.8463e-05,0
78.293,7.8889e-06,0
78.294,3.4409e-05,0
78.294,5.2033e-05,0
78.295,6.2943e-05,0
78.295,7.3014e-05,0
78.296,8.1743e-05,0
78.296,8.7114e-05,0
78.297,9.0135e-05,0
78.297,8.9799e-05,0
78.298,8.426e-05,0
78.298,7.4022e-05,0
78.299,6.4958e-05,0
78.299,6.3447e-05,0
78.3,6.5629e-05,0
78.301,6.6804e-05,0
78.301,6.4622e-05,0
78.302,6.3783e-05,0
78.302,6.8986e-05,0
78.303,8.04e-05,0
78.303,9.2149e-05,0
78.304,0.00010037,0
78.304,0.00010222,0
78.305,9.4331e-05,0
78.305,8.1743e-05,0
78.306,8.1575e-05,0
78.306,0.00011464,0
78.307,0.00016063,0
78.307,0.00018715,0
78.308,0.00019857,0
78.308,0.00020998,0
78.309,0.00020713,0
78.309,0.0001754,0
78.31,0.00012337,0
78.31,7.2343e-05,0
78.311,3.4073e-05,0
78.311,7.2175e-06,0
78.312,-1.4099e-05,0
78.312,-3.4745e-05,0
78.313,-5.2873e-05,0
78.314,-5.2537e-05,0
78.314,-2.8534e-05,0
78.315,-7.2175e-06,0
78.315,-8.896e-06,0
78.316,-2.2324e-05,0
78.316,-3.0045e-05,0
78.317,-3.2731e-05,0
78.317,-3.4409e-05,0
78.318,-3.6423e-05,0
78.318,-3.9948e-05,0
78.319,-4.1459e-05,0
78.319,-3.6591e-05,0
78.32,-3.5752e-05,0
78.32,-3.8605e-05,0
78.321,-2.5177e-05,0
78.321,8.7282e-06,0
78.322,4.2298e-05,0
78.322,6.1601e-05,0
78.323,6.2943e-05,0
78.323,5.4215e-05,0
78.324,4.5319e-05,0
78.324,5.1362e-05,0
78.325,7.9057e-05,0
78.325,0.00011699,0
78.326,0.00013948,0
78.326,0.00013445,0
78.327,0.0001133,0
78.328,0.00010138,0
78.328,0.00011179,0
78.329,0.00012605,0
78.329,0.00012807,0
78.33,0.00013445,0
78.33,0.00016332,0
78.331,0.00019638,0
78.331,0.00021535,0
78.332,0.00022626,0
78.332,0.00023381,0
78.333,0.00022794,0
78.333,0.00019756,0
78.334,0.00014284,0
78.334,7.2343e-05,0
78.335,-3.8605e-06,0
78.335,-7.0832e-05,0
78.336,-0.00012052,0
78.336,-0.00015207,0
78.337,-0.00014318,0
78.337,-0.00010155,0
78.338,-6.6972e-05,0
78.338,-6.244e-05,0
78.339,-8.04e-05,0
78.339,-0.00010256,0
78.34,-0.00011666,0
78.341,-0.00011162,0
78.341,-9.5003e-05,0
78.342,-8.1575e-05,0
78.342,-7.1839e-05,0
78.343,-6.0761e-05,0
78.343,-4.918e-05,0
78.344,-3.4577e-05,0
78.344,-1.5274e-05,0
78.345,-5.0355e-07,0
78.345,5.539e-06,0
78.346,1.4939e-05,0
78.346,4.1962e-05,0
78.347,7.4693e-05,0
78.347,9.8695e-05,0
78.348,0.0001086,0
78.348,0.00010558,0
78.349,9.6513e-05,0
78.349,8.6442e-05,0
78.35,7.4189e-05,0
78.35,6.0258e-05,0
78.351,4.6494e-05,0
78.351,3.6088e-05,0
78.352,3.2059e-05,0
78.352,4.3473e-05,0
78.353,7.6707e-05,0
78.353,0.00011632,0
78.354,0.00013512,0
78.355,0.00012404,0
78.355,9.2821e-05,0
78.356,5.9251e-05,0
78.356,3.5248e-05,0
78.357,1.5274e-05,0
78.357,-8.896e-06,0
78.358,-3.0549e-05,0
78.358,-4.0116e-05,0
78.359,-4.448e-05,0
78.359,-4.8508e-05,0
78.36,-4.7501e-05,0
78.36,-3.6088e-05,0
78.361,-1.6449e-05,0
78.361,6.8818e-06,0
78.362,3.4745e-05,0
78.362,6.5293e-05,0
78.363,8.9464e-05,0
78.363,0.00010054,0
78.364,0.00010222,0
78.364,9.752e-05,0
78.365,8.7114e-05,0
78.365,7.3182e-05,0
78.366,6.009e-05,0
78.366,5.0858e-05,0
78.367,5.5558e-05,0
78.368,8.0064e-05,0
78.368,0.00010222,0
78.369,0.00010726,0
78.369,9.6345e-05,0
78.37,7.4525e-05,0
78.37,5.2873e-05,0
78.371,3.2059e-05,0
78.371,9.7353e-06,0
78.372,-7.0497e-06,0
78.372,-1.8631e-05,0
78.373,-3.9445e-05,0
78.373,-5.9586e-05,0
78.374,-5.4047e-05,0
78.374,-2.4338e-05,0
78.375,6.3783e-06,0
78.375,2.182e-05,0
78.376,2.9206e-05,0
78.376,3.6759e-05,0
78.377,5.6901e-05,0
78.377,0.00010289,0
78.378,0.00014871,0
78.378,0.00015023,0
78.379,0.00010188,0
78.379,3.0549e-05,0
78.38,-3.8102e-05,0
78.38,-9.0135e-05,0
78.381,-0.00011498,0
78.382,-0.00010893,0
78.382,-9.0303e-05,0
78.383,-6.8986e-05,0
78.383,-4.7837e-05,0
78.384,-2.9541e-05,0
78.384,-1.3931e-05,0
78.385,1.5106e-06,0
78.385,1.9974e-05,0
78.386,3.3738e-05,0
78.386,4.448e-05,0
78.387,5.8915e-05,0
78.387,7.6371e-05,0
78.388,8.6442e-05,0
78.388,7.8218e-05,0
78.389,6.009e-05,0
78.389,4.1794e-05,0
78.39,1.4939e-05,0
78.39,-1.2589e-05,0
78.391,-2.2995e-05,0
78.391,-1.6953e-05,0
78.392,3.357e-06,0
78.392,4.1962e-05,0
78.393,8.5435e-05,0
78.393,0.00010709,0
78.394,0.00010256,0
78.394,9.1142e-05,0
78.395,8.661e-05,0
78.396,7.7379e-05,0
78.396,4.9516e-05,0
78.397,8.3925e-06,0
78.397,-3.5752e-05,0
78.398,-7.0329e-05,0
78.398,-9.0974e-05,0
78.399,-9.2485e-05,0
78.399,-7.2175e-05,0
78.4,-3.8437e-05,0
78.4,-2.6856e-06,0
78.401,1.9303e-05,0
78.401,2.8367e-05,0
78.402,4.1459e-05,0
78.402,5.8244e-05,0
78.403,6.0258e-05,0
78.403,5.3544e-05,0
78.404,5.623e-05,0
78.404,6.6636e-05,0
78.405,7.1e-05,0
78.405,7.1336e-05,0
78.406,7.7379e-05,0
78.406,8.1071e-05,0
78.407,6.8315e-05,0
78.407,4.3473e-05,0
78.408,1.4939e-05,0
78.409,-1.2757e-05,0
78.409,-3.4577e-05,0
78.41,-4.5823e-05,0
78.41,-4.2802e-05,0
78.411,-2.6017e-05,0
78.411,1.6785e-06,0
78.412,3.6423e-05,0
78.412,7.0832e-05,0
78.413,9.1142e-05,0
78.413,8.9128e-05,0
78.414,6.4622e-05,0
78.414,3.1052e-05,0
78.415,4.5319e-06,0
78.415,-1.091e-05,0
78.416,-2.266e-05,0
78.416,-3.4745e-05,0
78.417,-3.6759e-05,0
78.417,-3.1052e-05,0
78.418,-3.122e-05,0
78.418,-2.7359e-05,0
78.419,9.5674e-06,0
78.419,7.3518e-05,0
78.42,0.00014099,0
78.42,0.00018581,0
78.421,0.00018312,0
78.421,0.00013713,0
78.422,6.7308e-05,0
78.423,-2.0142e-06,0
78.423,-5.6733e-05,0
78.424,-9.7856e-05,0
78.424,-9.8695e-05,0
78.425,-3.827e-05,0
78.425,2.9038e-05,0
78.426,5.1362e-05,0
78.426,2.9038e-05,0
78.427,-1.1582e-05,0
78.427,-4.3137e-05,0
78.428,-5.6397e-05,0
78.428,-5.9251e-05,0
78.429,-6.1936e-05,0
78.429,-5.9586e-05,0
78.43,-4.6662e-05,0
78.43,-2.4338e-05,0
78.431,-1.4267e-05,0
78.431,-2.6688e-05,0
78.432,-3.9948e-05,0
78.432,-2.7359e-05,0
78.433,1.326e-05,0
78.433,7.2007e-05,0
78.434,0.00012471,0
78.434,0.00014788,0
78.435,0.00013613,0
78.436,9.987e-05,0
78.436,5.4887e-05,0
78.437,1.6114e-05,0
78.437,-1.1917e-05,0
78.438,-3.508e-05,0
78.438,-5.0523e-05,0
78.439,-4.3473e-05,0
78.439,-1.6785e-05,0
78.44,1.6785e-05,0
78.44,5.4719e-05,0
78.441,8.8121e-05,0
78.441,0.00010306,0
78.442,9.2149e-05,0
78.442,6.0426e-05,0
78.443,1.5946e-05,0
78.443,-3.4745e-05,0
78.444,-7.9225e-05,0
78.444,-0.00010961,0
78.445,-0.00013965,0
78.445,-0.00016667,0
78.446,-0.00017691,0
78.446,-0.00017574,0
78.447,-0.00017255,0
78.447,-0.00016197,0
78.448,-0.00013378,0
78.448,-9.2988e-05,0
78.449,-5.4047e-05,0
78.45,-2.4002e-05,0
78.45,-1.3092e-05,0
78.451,-1.7288e-05,0
78.451,-2.1653e-05,0
78.452,-9.9031e-06,0
78.452,1.0239e-05,0
78.453,1.796e-05,0
78.453,1.0239e-05,0
78.454,-5.2033e-06,0
78.454,-2.3499e-05,0
78.455,-4.2802e-05,0
78.455,-5.0858e-05,0
78.456,-3.9948e-05,0
78.456,-2.1988e-05,0
78.457,-6.8818e-06,0
78.457,1.091e-05,0
78.458,3.743e-05,0
78.458,7.1336e-05,0
78.459,9.836e-05,0
78.459,0.00011263,0
78.46,0.00012018,0
78.46,0.00012136,0
78.461,0.00011313,0
78.461,9.4835e-05,0
78.462,7.57e-05,0
78.463,6.6972e-05,0
78.463,6.7308e-05,0
78.464,6.2776e-05,0
78.464,4.683e-05,0
78.465,3.6759e-05,0
78.465,4.213e-05,0
78.466,5.1362e-05,0
78.466,5.8579e-05,0
78.467,6.1433e-05,0
78.467,5.4215e-05,0
78.468,3.8102e-05,0
78.468,2.0478e-05,0
78.469,7.5532e-06,0
78.469,3.5248e-06,0
78.47,7.5532e-06,0
78.47,1.4267e-05,0
78.471,2.2156e-05,0
78.471,2.9374e-05,0
78.472,3.743e-05,0
78.472,4.448e-05,0
78.473,5.0523e-05,0
78.473,5.3544e-05,0
78.474,5.1865e-05,0
78.474,4.5487e-05,0
78.475,4.2634e-05,0
78.475,4.2466e-05,0
78.476,3.9277e-05,0
78.477,3.8102e-05,0
78.477,4.0787e-05,0
78.478,4.8844e-05,0
78.478,6.244e-05,0
78.479,7.6036e-05,0
78.479,8.1239e-05,0
78.48,7.4357e-05,0
78.48,6.0594e-05,0
78.481,4.7166e-05,0
78.481,3.8102e-05,0
78.482,3.5248e-05,0
78.482,3.8102e-05,0
78.483,4.0787e-05,0
78.483,3.5416e-05,0
78.484,3.0045e-05,0
78.484,4.0116e-05,0
78.485,5.8412e-05,0
78.485,6.6636e-05,0
78.486,6.0929e-05,0
78.486,4.2802e-05,0
78.487,1.3931e-05,0
78.487,-2.031e-05,0
78.488,-4.5487e-05,0
78.488,-5.2537e-05,0
78.489,-4.5151e-05,0
78.49,-3.6423e-05,0
78.49,-3.743e-05,0
78.491,-4.0116e-05,0
78.491,-2.9709e-05,0
78.492,-8.896e-06,0
78.492,6.2104e-06,0
78.493,6.5461e-06,0
78.493,-1.1749e-06,0
78.494,-5.539e-06,0
78.494,-4.1962e-06,0
78.495,4.8676e-06,0
78.495,2.6352e-05,0
78.496,5.623e-05,0
78.496,7.9728e-05,0
78.497,8.8289e-05,0
78.497,9.1478e-05,0
78.498,9.7856e-05,0
78.498,0.00010155,0
78.499,8.9799e-05,0
78.499,6.0929e-05,0
78.5,3.8437e-05,0
78.5,3.743e-05,0
78.501,4.2802e-05,0
78.501,4.2466e-05,0
78.502,3.1052e-05,0
78.502,1.2589e-05,0
78.503,-1.0071e-05,0
78.504,-4.4984e-05,0
78.504,-8.1407e-05,0
78.505,-0.00010155,0
78.505,-0.00010021,0
78.506,-8.5603e-05,0
78.506,-7.1e-05,0
78.507,-4.9348e-05,0
78.507,-8.896e-06,0
78.508,3.0716e-05,0
78.508,4.5151e-05,0
78.509,3.8773e-05,0
78.509,2.6688e-05,0
78.51,1.9471e-05,0
78.51,2.0645e-05,0
78.511,2.6017e-05,0
78.511,2.5177e-05,0
78.512,1.326e-05,0
78.512,-4.0284e-06,0
78.513,-1.4771e-05,0
78.513,-1.5946e-05,0
78.514,-1.2757e-05,0
78.514,-2.8534e-06,0
78.515,2.1149e-05,0
78.515,5.623e-05,0
78.516,9.1142e-05,0
78.517,0.00012035,0
78.517,0.0001566,0
78.518,0.00019722,0
78.518,0.00020763,0
78.519,0.00017607,0
78.519,0.00012068,0
78.52,6.4286e-05,0
78.52,1.3596e-05,0
78.521,-3.8437e-05,0
78.521,-8.5435e-05,0
78.522,-0.00011632,0
78.522,-0.00013596,0
78.523,-0.00014586,0
78.523,-0.00013529,0
78.524,-9.2317e-05,0
78.524,-2.8367e-05,0
78.525,2.3835e-05,0
78.525,3.9445e-05,0
78.526,3.2731e-05,0
78.526,2.7359e-05,0
78.527,2.3331e-05,0
78.527,1.1917e-05,0
78.528,-2.0142e-06,0
78.528,-1.6785e-05,0
78.529,-3.978e-05,0
78.529,-6.0929e-05,0
78.53,-6.4622e-05,0
78.531,-4.5991e-05,0
78.531,-2.2324e-05,0
78.532,-1.8631e-05,0
78.532,-1.3931e-05,0
78.533,1.9303e-05,0
78.533,7.5364e-05,0
78.534,0.00012605,0
78.534,0.0001467,0
78.535,0.00013277,0
78.535,9.987e-05,0
78.536,6.63e-05,0
78.536,4.0955e-05,0
78.537,2.7192e-05,0
78.537,3.8437e-05,0
78.538,8.2414e-05,0
78.538,0.00014032,0
78.539,0.00019521,0
78.539,0.00022005,0
78.54,0.0002083,0
78.54,0.00017893,0
78.541,0.00013646,0
78.541,7.8386e-05,0
78.542,1.5274e-05,0
78.542,-3.5752e-05,0
78.543,-7.1336e-05,0
78.544,-0.00010155,0
78.544,-0.0001237,0
78.545,-0.00012807,0
78.545,-0.00012505,0
78.546,-0.00011716,0
78.546,-0.00010088,0
78.547,-8.275e-05,0
78.547,-7.4861e-05,0
78.548,-6.7643e-05,0
78.548,-5.1194e-05,0
78.549,-3.357e-05,0
78.549,-1.6449e-05,0
78.55,5.7069e-06,0
78.55,3.1724e-05,0
78.551,6.2943e-05,0
78.551,0.00010558,0
78.552,0.00014049,0
78.552,0.00014687,0
78.553,0.00012673,0
78.553,9.7185e-05,0
78.554,7.4357e-05,0
78.554,5.6062e-05,0
78.555,4.7333e-05,0
78.555,6.7643e-05,0
78.556,0.00010927,0
78.556,0.00013881,0
78.557,0.00012908,0
78.558,8.4092e-05,0
78.558,2.7024e-05,0
78.559,-2.6184e-05,0
78.559,-6.949e-05,0
78.56,-9.8192e-05,0
78.56,-0.00010021,0
78.561,-7.3014e-05,0
78.561,-3.5752e-05,0
78.562,-3.1891e-06,0
78.562,1.9135e-05,0
78.563,3.3402e-05,0
78.563,4.4144e-05,0
78.564,5.2201e-05,0
78.564,5.9419e-05,0
78.565,6.6468e-05,0
78.565,6.1433e-05,0
78.566,4.1123e-05,0
78.566,1.6281e-05,0
78.567,-5.0355e-07,0
78.567,-1.3764e-05,0
78.568,-3.4409e-05,0
78.568,-6.2104e-05,0
78.569,-8.6946e-05,0
78.569,-9.7185e-05,0
78.57,-8.9128e-05,0
78.571,-7.1e-05,0
78.571,-4.8844e-05,0
78.572,-2.7695e-05,0
78.572,-1.2757e-05,0
78.573,6.2104e-06,0
78.573,3.3066e-05,0
78.574,5.6901e-05,0
78.574,7.0832e-05,0
78.575,7.5532e-05,0
78.575,7.1e-05,0
78.576,6.1601e-05,0
78.576,5.3208e-05,0
78.577,4.4816e-05,0
78.577,4.4144e-05,0
78.578,5.9251e-05,0
78.578,8.5603e-05,0
78.579,0.00011498,0
78.579,0.00013176,0
78.58,0.00012505,0
78.58,9.7856e-05,0
78.581,6.4958e-05,0
78.581,3.9445e-05,0
78.582,2.8031e-05,0
78.582,2.8702e-05,0
78.583,2.5681e-05,0
78.584,1.6114e-05,0
78.584,1.2589e-05,0
78.585,1.4435e-05,0
78.585,1.2924e-05,0
78.586,1.561e-05,0
78.586,3.0549e-05,0
78.587,5.2201e-05,0
78.587,7.8553e-05,0
78.588,9.5842e-05,0
78.588,9.0974e-05,0
78.589,7.3686e-05,0
78.589,5.8244e-05,0
78.59,4.0787e-05,0
78.59,9.5674e-06,0
78.591,-3.0381e-05,0
78.591,-5.7908e-05,0
78.592,-6.0594e-05,0
78.592,-4.7166e-05,0
78.593,-3.0045e-05,0
78.593,-1.5946e-05,0
78.594,-5.0355e-06,0
78.594,3.1891e-06,0
78.595,7.5532e-06,0
78.595,4.5319e-06,0
78.596,-7.8889e-06,0
78.596,-2.7024e-05,0
78.597,-4.9516e-05,0
78.598,-7.6707e-05,0
78.598,-9.4667e-05,0
78.599,-8.3925e-05,0
78.599,-4.7166e-05,0
78.6,-1.8463e-06,0
78.6,3.4241e-05,0
78.601,5.2201e-05,0
78.601,5.4551e-05,0
78.602,5.8579e-05,0
78.602,6.3615e-05,0
78.603,5.8747e-05,0
78.603,4.2802e-05,0
78.604,2.3667e-05,0
78.604,1.1917e-05,0
78.605,1.4771e-05,0
78.605,5.7237e-05,0
78.606,0.00012572,0
78.606,0.00016936,0
78.607,0.00016231,0
78.607,0.00011934,0
78.608,6.4958e-05,0
78.608,1.2924e-05,0
78.609,-3.9445e-05,0
78.609,-8.6442e-05,0
78.61,-0.00011078,0
78.611,-0.00010809,0
78.611,-9.0806e-05,0
78.612,-6.5629e-05,0
78.612,-3.6927e-05,0
78.613,-1.5778e-05,0
78.613,-1.1414e-05,0
78.614,-1.1414e-05,0
78.614,-5.8747e-06,0
78.615,-4.1962e-06,0
78.615,-1.4603e-05,0
78.616,-3.0045e-05,0
78.616,-3.508e-05,0
78.617,-1.6449e-05,0
78.617,2.3835e-05,0
78.618,6.1936e-05,0
78.618,8.0735e-05,0
78.619,8.3925e-05,0
78.619,8.2246e-05,0
78.62,7.4525e-05,0
78.62,5.6565e-05,0
78.621,3.978e-05,0
78.621,3.0381e-05,0
78.622,2.1653e-05,0
78.622,5.0355e-07,0
78.623,-3.3234e-05,0
78.623,-4.3305e-05,0
78.624,-1.2253e-05,0
78.625,2.7527e-05,0
78.625,3.743e-05,0
78.626,1.8967e-05,0
78.626,4.0284e-06,0
78.627,7.0497e-06,0
78.627,1.3764e-05,0
78.628,1.7288e-05,0
78.628,2.1317e-05,0
78.629,2.6352e-05,0
78.629,2.9206e-05,0
78.63,2.9877e-05,0
78.63,2.5849e-05,0
78.631,1.7288e-05,0
78.631,1.3596e-05,0
78.632,2.266e-05,0
78.632,3.592e-05,0
78.633,4.4816e-05,0
78.633,4.2802e-05,0
78.634,3.8102e-05,0
78.634,4.1962e-05,0
78.635,5.8244e-05,0
78.635,7.9057e-05,0
78.636,9.8527e-05,0
78.636,0.00012001,0
78.637,0.00013243,0
78.638,0.00012001,0
78.638,8.3085e-05,0
78.639,3.6423e-05,0
78.639,-6.8818e-06,0
78.64,-3.0045e-05,0
78.64,-3.3738e-05,0
78.641,-3.9948e-05,0
78.641,-5.6565e-05,0
78.642,-6.479e-05,0
78.642,-5.9586e-05,0
78.643,-5.2705e-05,0
78.643,-4.8508e-05,0
78.644,-4.3809e-05,0
78.644,-3.4745e-05,0
78.645,-1.8463e-05,0
78.645,-3.8605e-06,0
78.646,-2.3499e-06,0
78.646,-6.0426e-06,0
78.647,-8.3925e-07,0
78.647,1.2757e-05,0
78.648,3.1052e-05,0
78.648,5.4047e-05,0
78.649,7.6204e-05,0
78.649,8.896e-05,0
78.65,9.0471e-05,0
78.65,8.2414e-05,0
78.651,6.6972e-05,0
78.652,6.0761e-05,0
78.652,7.805e-05,0
78.653,0.00010457,0
78.653,0.00012169,0
78.654,0.00010994,0
78.654,6.6804e-05,0
78.655,2.0981e-05,0
78.655,-1.091e-05,0
78.656,-3.0045e-05,0
78.656,-4.0284e-05,0
78.657,-4.213e-05,0
78.657,-3.5584e-05,0
78.658,-2.8199e-05,0
78.658,-2.7024e-05,0
78.659,-2.3667e-05,0
78.659,-1.5946e-05,0
78.66,-1.091e-05,0
78.66,-7.2175e-06,0
78.661,-3.357e-07,0
78.661,2.2324e-05,0
78.662,6.5629e-05,0
78.662,0.00011363,0
78.663,0.00014804,0
78.663,0.00016097,0
78.664,0.0001566,0
78.665,0.00013613,0
78.665,9.9199e-05,0
78.666,5.3544e-05,0
78.666,1.1749e-05,0
78.667,-1.9638e-05,0
78.667,-4.1962e-05,0
78.668,-6.1601e-05,0
78.668,-8.5267e-05,0
78.669,-0.00010658,0
78.669,-9.9031e-05,0
78.67,-4.7166e-05,0
78.67,2.4506e-05,0
78.671,7.7714e-05,0
78.671,9.2821e-05,0
78.672,7.4357e-05,0
78.672,4.2634e-05,0
78.673,1.7792e-05,0
78.673,3.0213e-06,0
78.674,-1.1078e-05,0
78.674,-2.6352e-05,0
78.675,-3.4241e-05,0
78.675,-3.0716e-05,0
78.676,-2.3835e-05,0
78.676,-2.0981e-05,0
78.677,-1.9303e-05,0
78.677,-1.6953e-05,0
78.678,-1.4267e-05,0
78.679,-1.561e-05,0
78.679,-2.3331e-05,0
78.68,-3.2395e-05,0
78.68,-2.7192e-05,0
78.681,-8.3925e-07,0
78.681,3.0045e-05,0
78.682,4.3473e-05,0
78.682,2.887e-05,0
78.683,7.2175e-06,0
78.683,5.8747e-06,0
78.684,9.5674e-06,0
78.684,-4.1962e-06,0
78.685,-3.1891e-05,0
78.685,-5.7237e-05,0
78.686,-7.0161e-05,0
78.686,-7.0665e-05,0
78.687,-6.865e-05,0
78.687,-6.7979e-05,0
78.688,-5.2033e-05,0
78.688,-1.4435e-05,0
78.689,3.9445e-05,0
78.689,9.5842e-05,0
78.69,0.00011783,0
78.69,0.00010172,0
78.691,9.0471e-05,0
78.692,0.00010625,0
78.692,0.00012505,0
78.693,0.00012505,0
78.693,0.00012035,0
78.694,0.00013462,0
78.694,0.0001556,0
78.695,0.00015509,0
78.695,0.00012505,0
78.696,6.8986e-05,0
78.696,6.714e-06,0
78.697,-3.8102e-05,0
78.697,-6.4622e-05,0
78.698,-8.0735e-05,0
78.698,-8.8792e-05,0
78.699,-8.9799e-05,0
78.699,-9.1142e-05,0
78.7,-9.4835e-05,0
78.7,-9.1814e-05,0
78.701,-7.9225e-05,0
78.701,-6.0594e-05,0
78.702,-4.062e-05,0
78.702,-2.1317e-05,0
78.703,-1.6785e-07,0
78.703,2.2492e-05,0
78.704,6.1433e-05,0
78.704,0.00011632,0
78.705,0.00017842,0
78.706,0.00024489,0
78.706,0.00027192,0
78.707,0.00023986,0
78.707,0.00017423,0
78.708,0.00010457,0
78.708,4.448e-05,0
78.709,1.6785e-07,0
78.709,-1.1246e-05,0
78.71,3.8605e-06,0
78.71,5.8747e-06,0
78.711,-1.4771e-05,0
78.711,-4.1123e-05,0
78.712,-6.7308e-05,0
78.712,-9.1646e-05,0
78.713,-0.00010239,0
78.713,-9.3156e-05,0
78.714,-6.7308e-05,0
78.714,-3.5752e-05,0
78.715,-1.091e-05,0
78.715,6.0426e-06,0
78.716,1.8463e-05,0
78.716,2.7527e-05,0
78.717,3.3402e-05,0
78.717,3.4073e-05,0
78.718,2.4002e-05,0
78.719,5.7069e-06,0
78.719,-7.2175e-06,0
78.72,-1.8463e-06,0
78.72,1.9974e-05,0
78.721,4.5151e-05,0
78.721,6.7308e-05,0
78.722,9.5506e-05,0
78.722,0.00012572,0
78.723,0.0001368,0
78.723,0.00011733,0
78.724,7.5364e-05,0
78.724,2.7024e-05,0
78.725,-1.2421e-05,0
78.725,-3.9109e-05,0
78.726,-5.7908e-05,0
78.726,-6.244e-05,0
78.727,-3.3402e-05,0
78.727,1.7792e-05,0
78.728,5.4383e-05,0
78.728,6.009e-05,0
78.729,4.0116e-05,0
78.729,8.3925e-06,0
78.73,-2.4842e-05,0
78.73,-5.6062e-05,0
78.731,-7.805e-05,0
78.731,-8.9464e-05,0
78.732,-9.0135e-05,0
78.733,-7.2679e-05,0
78.733,-4.2802e-05,0
78.734,-1.2253e-05,0
78.734,4.3641e-06,0
78.735,9.5674e-06,0
78.735,1.5946e-05,0
78.736,2.5849e-05,0
78.736,3.5416e-05,0
78.737,4.2298e-05,0
78.737,5.0523e-05,0
78.738,5.9251e-05,0
78.738,6.2272e-05,0
78.739,5.7069e-05,0
78.739,4.683e-05,0
78.74,3.508e-05,0
78.74,2.9374e-05,0
78.741,3.1724e-05,0
78.741,3.592e-05,0
78.742,3.9445e-05,0
78.742,5.0858e-05,0
78.743,6.9322e-05,0
78.743,8.0735e-05,0
78.744,8.6107e-05,0
78.744,9.9199e-05,0
78.745,0.00011884,0
78.746,0.00013008,0
78.746,0.0001284,0
78.747,0.0001227,0
78.747,0.00010793,0
78.748,8.5771e-05,0
78.748,7.2175e-05,0
78.749,7.2679e-05,0
78.749,8.2078e-05,0
78.75,9.9199e-05,0
78.75,0.0001133,0
78.751,0.00010558,0
78.751,6.865e-05,0
78.752,1.091e-05,0
78.752,-4.6159e-05,0
78.753,-7.8553e-05,0
78.753,-8.2414e-05,0
78.754,-8.2582e-05,0
78.754,-9.0806e-05,0
78.755,-0.00010088,0
78.755,-0.00010893,0
78.756,-0.00011901,0
78.756,-0.00013462,0
78.757,-0.00015123,0
78.757,-0.0001519,0
78.758,-0.0001274,0
78.758,-8.6107e-05,0
78.759,-5.0523e-05,0
78.76,-2.9709e-05,0
78.76,-1.2421e-05,0
78.761,5.2033e-06,0
78.761,1.561e-05,0
78.762,1.9638e-05,0
78.762,2.501e-05,0
78.763,3.5248e-05,0
78.763,4.683e-05,0
78.764,5.3376e-05,0
78.764,6.2776e-05,0
78.765,9.7017e-05,0
78.765,0.00014267,0
78.766,0.00016735,0
78.766,0.00015895,0
78.767,0.00012555,0
78.767,8.3925e-05,0
78.768,4.5823e-05,0
78.768,2.0813e-05,0
78.769,1.4939e-05,0
78.769,2.1317e-05,0
78.77,3.0716e-05,0
78.77,3.5752e-05,0
78.771,3.0716e-05,0
78.771,3.0716e-05,0
78.772,5.2201e-05,0
78.772,8.4764e-05,0
78.773,0.00012605,0
78.774,0.00017255,0
78.774,0.00019655,0
78.775,0.0001754,0
78.775,0.00011514,0
78.776,4.0787e-05,0
78.776,-2.7024e-05,0
78.777,-7.5364e-05,0
78.777,-9.6849e-05,0
78.778,-0.00010625,0
78.778,-0.00013176,0
78.779,-0.0001697,0
78.779,-0.00018212,0
78.78,-0.00015157,0
78.78,-0.00010675,0
78.781,-8.1407e-05,0
78.781,-6.949e-05,0
78.782,-4.7837e-05,0
78.782,-1.8296e-05,0
78.783,-1.6785e-07,0
78.783,7.0497e-06,0
78.784,1.8296e-05,0
78.784,3.4241e-05,0
78.785,4.4312e-05,0
78.785,4.4984e-05,0
78.786,4.2802e-05,0
78.787,4.4816e-05,0
78.787,5.2201e-05,0
78.788,5.8579e-05,0
78.788,5.8076e-05,0
78.789,5.2873e-05,0
78.789,4.8173e-05,0
78.79,4.7669e-05,0
78.79,4.9348e-05,0
78.791,5.1194e-05,0
78.791,5.3544e-05,0
78.792,5.4887e-05,0
78.792,5.2705e-05,0
78.793,4.9851e-05,0
78.793,5.0187e-05,0
78.794,5.5894e-05,0
78.794,6.2776e-05,0
78.795,7.3014e-05,0
78.795,0.00010054,0
78.796,0.00014536,0
78.796,0.00019638,0
78.797,0.00024355,0
78.797,0.00026101,0
78.798,0.00023214,0
78.798,0.00016902,0
78.799,9.3324e-05,0
78.799,2.1317e-05,0
78.8,-3.4073e-05,0
78.801,-6.4622e-05,0
78.801,-8.275e-05,0
78.802,-9.752e-05,0
78.802,-0.00010524,0
78.803,-0.00011565,0
78.803,-0.00013344,0
78.804,-0.00013898,0
78.804,-0.00012824,0
78.805,-0.00011565,0
78.805,-0.00010826,0
78.806,-0.0001086,0
78.806,-0.00012337,0
78.807,-0.0001472,0
78.807,-0.0001509,0
78.808,-0.00013008,0
78.808,-0.00010826,0
78.809,-9.0639e-05,0
78.809,-7.0665e-05,0
78.81,-4.8508e-05,0
78.81,-2.9038e-05,0
78.811,-8.2246e-06,0
78.811,1.3931e-05,0
78.812,3.0549e-05,0
78.812,4.0787e-05,0
78.813,5.2201e-05,0
78.814,6.7308e-05,0
78.814,8.3421e-05,0
78.815,9.752e-05,0
78.815,0.00010558,0
78.816,0.00010457,0
78.816,9.6178e-05,0
78.817,8.51e-05,0
78.817,7.3686e-05,0
78.818,5.8915e-05,0
78.818,4.2634e-05,0
78.819,3.2731e-05,0
78.819,3.1388e-05,0
78.82,2.9374e-05,0
78.82,3.1052e-05,0
78.821,4.4144e-05,0
78.821,6.6972e-05,0
78.822,9.8527e-05,0
78.822,0.00012992,0
78.823,0.00014217,0
78.823,0.00012908,0
78.824,0.00010323,0
78.824,7.9561e-05,0
78.825,4.8508e-05,0
78.825,8.3925e-06,0
78.826,-2.501e-05,0
78.826,-4.1627e-05,0
78.827,-4.683e-05,0
78.828,-4.7166e-05,0
78.828,-3.3402e-05,0
78.829,-5.539e-06,0
78.829,1.9135e-05,0
78.83,2.8702e-05,0
78.83,3.5752e-05,0
78.831,4.7501e-05,0
78.831,6.0258e-05,0
78.832,6.9322e-05,0
78.832,7.2679e-05,0
78.833,7.0832e-05,0
78.833,6.8986e-05,0
78.834,7.2007e-05,0
78.834,8.7785e-05,0
78.835,0.00011263,0
78.835,0.00013143,0
78.836,0.00013747,0
78.836,0.00012438,0
78.837,9.3828e-05,0
78.837,5.388e-05,0
78.838,1.5442e-05,0
78.838,-1.4267e-05,0
78.839,-4.5823e-05,0
78.839,-8.275e-05,0
78.84,-0.00011128,0
78.841,-0.00011431,0
78.841,-9.9535e-05,0
78.842,-8.8121e-05,0
78.842,-8.5435e-05,0
78.843,-8.3421e-05,0
78.843,-7.7043e-05,0
78.844,-6.009e-05,0
78.844,-2.6184e-05,0
78.845,1.6617e-05,0
78.845,4.7501e-05,0
78.846,6.244e-05,0
78.846,6.8147e-05,0
78.847,7.3686e-05,0
78.847,8.5771e-05,0
78.848,0.00010188,0
78.848,0.00012068,0
78.849,0.00012068,0
78.849,8.0568e-05,0
78.85,1.6617e-05,0
78.85,-3.7095e-05,0
78.851,-6.865e-05,0
78.851,-8.426e-05,0
78.852,-8.8624e-05,0
78.852,-7.7714e-05,0
78.853,-6.1601e-05,0
78.853,-4.2298e-05,0
78.854,-6.5461e-06,0
78.855,3.6423e-05,0
78.855,5.8747e-05,0
78.856,4.6494e-05,0
78.856,1.6953e-05,0
78.857,-1.4939e-05,0
78.857,-4.1794e-05,0
78.858,-5.2537e-05,0
78.858,-4.4648e-05,0
78.859,-2.3835e-05,0
78.859,-5.0355e-07,0
78.86,1.1582e-05,0
78.86,4.5319e-06,0
78.861,-1.3931e-05,0
78.861,-2.8702e-05,0
78.862,-1.4603e-05,0
78.862,3.743e-05,0
78.863,9.3828e-05,0
78.863,0.000118,0
78.864,0.00010021,0
78.864,5.5894e-05,0
78.865,1.3931e-05,0
78.865,-8.896e-06,0
78.866,-1.8631e-05,0
78.866,-2.9709e-05,0
78.867,-4.6662e-05,0
78.868,-5.8579e-05,0
78.868,-5.5558e-05,0
78.869,-4.3809e-05,0
78.869,-2.501e-05,0
78.87,3.6927e-06,0
78.87,4.0116e-05,0
78.871,7.2343e-05,0
78.871,9.2149e-05,0
78.872,0.0001039,0
78.872,0.00011128,0
78.873,0.0001138,0
78.873,0.00010994,0
78.874,0.00010021,0
78.874,8.1071e-05,0
78.875,5.9586e-05,0
78.875,4.683e-05,0
78.876,4.0116e-05,0
78.876,2.7695e-05,0
78.877,1.0239e-05,0
78.877,0,0
78.878,-8.3925e-07,0
78.878,3.357e-07,0
78.879,1.0071e-06,0
78.879,3.8605e-06,0
78.88,1.6281e-05,0
78.88,3.3234e-05,0
78.881,4.2802e-05,0
78.882,4.3641e-05,0
78.882,4.1459e-05,0
78.883,3.8102e-05,0
78.883,3.6423e-05,0
78.884,3.5584e-05,0
78.884,3.508e-05,0
78.885,3.8102e-05,0
78.885,4.2802e-05,0
78.886,4.2802e-05,0
78.886,3.8102e-05,0
78.887,3.8605e-05,0
78.887,4.6159e-05,0
78.888,5.3208e-05,0
78.888,5.5558e-05,0
78.889,6.2104e-05,0
78.889,8.2582e-05,0
78.89,0.00010306,0
78.89,0.00010826,0
78.891,9.8527e-05,0
78.891,7.8889e-05,0
78.892,5.5558e-05,0
78.892,3.3402e-05,0
78.893,1.3931e-05,0
78.893,6.5461e-06,0
78.894,8.5603e-06,0
78.895,-5.7069e-06,0
78.895,-3.0549e-05,0
78.896,-4.2802e-05,0
78.896,-4.1794e-05,0
78.897,-3.6423e-05,0
78.897,-2.8199e-05,0
78.898,-1.9303e-05,0
78.898,-8.896e-06,0
78.899,3.0213e-06,0
78.899,7.8889e-06,0
78.9,2.3499e-06,0
78.9,-3.357e-07,0
78.901,7.5532e-06,0
78.901,1.4771e-05,0
78.902,1.2253e-05,0
78.902,9.2317e-06,0
78.903,2.1988e-05,0
78.903,5.5558e-05,0
78.904,9.1814e-05,0
78.904,0.00010692,0
78.905,0.00010188,0
78.905,9.6513e-05,0
78.906,0.00010373,0
78.906,0.00012253,0
78.907,0.00013529,0
78.907,0.00013243,0
78.908,0.00011682,0
78.909,8.3085e-05,0
78.909,3.6759e-05,0
78.91,-1.326e-05,0
78.91,-6.3447e-05,0
78.911,-0.00010826,0
78.911,-0.00013797,0
78.912,-0.00015123,0
78.912,-0.00015929,0
78.913,-0.00015727,0
78.913,-0.00013109,0
78.914,-8.9296e-05,0
78.914,-4.8508e-05,0
78.915,-1.091e-05,0
78.915,2.2995e-05,0
78.916,4.683e-05,0
78.916,6.0258e-05,0
78.917,6.63e-05,0
78.917,6.6468e-05,0
78.918,6.1097e-05,0
78.918,4.9851e-05,0
78.919,3.7934e-05,0
78.919,2.7359e-05,0
78.92,1.7624e-05,0
78.92,9.0639e-06,0
78.921,-1.5106e-06,0
78.922,-1.9303e-05,0
78.922,-4.1459e-05,0
78.923,-5.9419e-05,0
78.923,-6.7643e-05,0
78.924,-6.1936e-05,0
78.924,-4.3641e-05,0
78.925,-2.3667e-05,0
78.925,-7.2175e-06,0
78.926,3.5248e-06,0
78.926,4.5319e-06,0
78.927,-5.0355e-07,0
78.927,-3.357e-06,0
78.928,-3.6927e-06,0
78.928,-8.3925e-06,0
78.929,-1.9806e-05,0
78.929,-3.2227e-05,0
78.93,-3.4409e-05,0
78.93,-1.4267e-05,0
78.931,2.3835e-05,0
78.931,5.9922e-05,0
78.932,8.0903e-05,0
78.932,8.1743e-05,0
78.933,7.3854e-05,0
78.933,6.8315e-05,0
78.934,6.0258e-05,0
78.934,5.6733e-05,0
78.935,7.7379e-05,0
78.936,0.00011128,0
78.936,0.00012773,0
78.937,0.00012404,0
78.937,0.00011615,0
78.938,0.00010491,0
78.938,8.4428e-05,0
78.939,5.2201e-05,0
78.939,1.2589e-05,0
78.94,-1.7792e-05,0
78.94,-2.7359e-05,0
78.941,-2.7359e-05,0
78.941,-3.6759e-05,0
78.942,-5.8412e-05,0
78.942,-7.6036e-05,0
78.943,-7.9393e-05,0
78.943,-7.2679e-05,0
78.944,-6.0761e-05,0
78.944,-4.5151e-05,0
78.945,-2.9206e-05,0
78.945,-1.1749e-05,0
78.946,3.8605e-06,0
78.946,1.7792e-05,0
78.947,3.2059e-05,0
78.947,4.683e-05,0
78.948,5.8915e-05,0
78.949,6.5629e-05,0
78.949,6.6636e-05,0
78.95,6.3447e-05,0
78.95,5.9251e-05,0
78.951,5.3208e-05,0
78.951,4.3473e-05,0
78.952,3.592e-05,0
78.952,3.1052e-05,0
78.953,1.8463e-05,0
78.953,-4.5319e-06,0
78.954,-1.9638e-05,0
78.954,-1.2924e-05,0
78.955,6.3783e-06,0
78.955,2.4674e-05,0
78.956,3.9612e-05,0
78.956,5.3376e-05,0
78.957,6.4286e-05,0
78.957,7.3686e-05,0
78.958,8.8457e-05,0
78.958,9.9199e-05,0
78.959,9.2485e-05,0
78.959,7.6036e-05,0
78.96,5.8747e-05,0
78.96,4.683e-05,0
78.961,5.5558e-05,0
78.962,8.2918e-05,0
78.962,0.00011263,0
78.963,0.00011666,0
78.963,8.275e-05,0
78.964,3.0045e-05,0
78.964,-2.2324e-05,0
78.965,-6.6972e-05,0
78.965,-9.7185e-05,0
78.966,-0.00010994,0
78.966,-0.00010289,0
78.967,-8.8121e-05,0
78.967,-7.8218e-05,0
78.968,-6.949e-05,0
78.968,-6.1936e-05,0
78.969,-4.9516e-05,0
78.969,-1.2589e-05,0
78.97,3.4073e-05,0
78.97,5.8915e-05,0
78.971,5.5726e-05,0
78.971,4.213e-05,0
78.972,4.1123e-05,0
78.972,5.623e-05,0
78.973,7.9393e-05,0
78.973,0.00010457,0
78.974,0.00011901,0
78.974,0.00011397,0
78.975,9.8863e-05,0
78.976,8.3085e-05,0
78.976,6.3447e-05,0
78.977,3.8437e-05,0
78.977,1.6617e-05,0
78.978,4.0284e-06,0
78.978,-1.0071e-05,0
78.979,-3.6088e-05,0
78.979,-6.4958e-05,0
78.98,-8.7953e-05,0
78.98,-0.00010373,0
78.981,-0.00010289,0
78.981,-8.1743e-05,0
78.982,-5.069e-05,0
78.982,-2.0645e-05,0
78.983,4.1962e-06,0
78.983,1.6785e-05,0
78.984,1.8799e-05,0
78.984,1.561e-05,0
78.985,7.2175e-06,0
78.985,4.1962e-06,0
78.986,3.0716e-05,0
78.986,7.0665e-05,0
78.987,8.5603e-05,0
78.987,7.2343e-05,0
78.988,5.9922e-05,0
78.989,6.865e-05,0
78.989,8.0735e-05,0
78.99,7.2175e-05,0
78.99,3.8773e-05,0
78.991,-4.6998e-06,0
78.991,-3.3738e-05,0
78.992,-4.2634e-05,0
78.992,-3.7598e-05,0
78.993,-3.1724e-05,0
78.993,-2.9709e-05,0
78.994,-2.501e-05,0
78.994,-1.7624e-05,0
78.995,-9.9031e-06,0
78.995,-5.0355e-06,0
78.996,-7.0497e-06,0
78.996,-1.2085e-05,0
78.997,-1.3596e-05,0
78.997,-8.896e-06,0
78.998,4.5319e-06,0
78.998,2.8031e-05,0
78.999,5.9922e-05,0
78.999,9.3492e-05,0
79,0.00013545,0
79,0.00018212,0
79.001,0.00020494,0
79.001,0.00018749,0
79.002,0.00012975,0
79.003,4.9348e-05,0
79.003,-2.6856e-05,0
79.004,-8.5267e-05,0
79.004,-0.00011934,0
79.005,-0.00012505,0
79.005,-0.0001086,0
79.006,-7.2847e-05,0
79.006,-2.8031e-05,0
79.007,1.1246e-05,0
79.007,3.743e-05,0
79.008,5.304e-05,0
79.008,6.865e-05,0
79.009,8.7785e-05,0
79.009,0.00010088,0
79.01,0.00010289,0
79.01,9.4499e-05,0
79.011,8.2414e-05,0
79.011,6.9657e-05,0
79.012,6.0761e-05,0
79.012,6.0258e-05,0
79.013,6.1265e-05,0
79.013,5.2537e-05,0
79.014,3.2059e-05,0
79.014,6.5461e-06,0
79.015,-1.2924e-05,0
79.016,-2.3163e-05,0
79.016,-2.8702e-05,0
79.017,-2.1653e-05,0
79.017,-3.5248e-06,0
79.018,7.8889e-06,0
79.018,1.0071e-05,0
79.019,1.326e-05,0
79.019,1.9303e-05,0
79.02,2.2828e-05,0
79.02,1.9638e-05,0
79.021,1.7288e-05,0
79.021,2.3667e-05,0
79.022,3.6088e-05,0
79.022,4.2802e-05,0
79.023,4.2802e-05,0
79.023,4.0116e-05,0
79.024,3.508e-05,0
79.024,2.887e-05,0
79.025,2.4338e-05,0
79.025,2.0478e-05,0
79.026,1.7624e-05,0
79.026,1.6449e-05,0
79.027,1.561e-05,0
79.027,1.8967e-05,0
79.028,2.8367e-05,0
79.028,3.6423e-05,0
79.029,3.6423e-05,0
79.03,3.8437e-05,0
79.03,5.2873e-05,0
79.031,7.0497e-05,0
79.031,8.3589e-05,0
79.032,9.8527e-05,0
79.032,0.00012052,0
79.033,0.00013411,0
79.033,0.00012102,0
79.034,7.5532e-05,0
79.034,1.9303e-05,0
79.035,-1.6617e-05,0
79.035,-2.9709e-05,0
79.036,-3.6255e-05,0
79.036,-3.9445e-05,0
79.037,-4.062e-05,0
79.037,-5.6062e-05,0
79.038,-9.0135e-05,0
79.038,-0.00011884,0
79.039,-0.00011666,0
79.039,-8.7449e-05,0
79.04,-5.3712e-05,0
79.04,-4.0787e-05,0
79.041,-5.6062e-05,0
79.041,-8.0735e-05,0
79.042,-8.9128e-05,0
79.043,-7.2007e-05,0
79.043,-4.0787e-05,0
79.044,-3.5248e-06,0
79.044,3.0716e-05,0
79.045,6.1265e-05,0
79.045,8.2246e-05,0
79.046,8.0232e-05,0
79.046,5.7237e-05,0
79.047,2.9374e-05,0
79.047,9.7353e-06,0
79.048,3.0213e-06,0
79.048,9.5674e-06,0
79.049,3.1891e-05,0
79.049,7.0329e-05,0
79.05,0.00011531,0
79.05,0.00014569,0
79.051,0.00014284,0
79.051,0.00011028,0
79.052,7.3182e-05,0
79.052,4.3473e-05,0
79.053,1.4267e-05,0
79.053,-2.1653e-05,0
79.054,-4.683e-05,0
79.054,-5.0355e-05,0
79.055,-5.4383e-05,0
79.055,-7.1672e-05,0
79.056,-0.00010272,0
79.057,-0.00014653,0
79.057,-0.00018262,0
79.058,-0.00018883,0
79.058,-0.00016835,0
79.059,-0.00013411,0
79.059,-9.3324e-05,0
79.06,-4.7501e-05,0
79.06,-2.182e-06,0
79.061,4.683e-05,0
79.061,0.00010793,0
79.062,0.00016432,0
79.062,0.00019185,0
79.063,0.00018312,0
79.063,0.00014536,0
79.064,9.9031e-05,0
79.064,4.9516e-05,0
79.065,1.1749e-06,0
79.065,-2.182e-05,0
79.066,-1.8799e-05,0
79.066,-4.5319e-06,0
79.067,4.1962e-06,0
79.067,-3.1891e-06,0
79.068,-9.9031e-06,0
79.068,-1.1749e-06,0
79.069,1.9638e-05,0
79.07,4.2802e-05,0
79.07,5.8579e-05,0
79.071,6.4286e-05,0
79.071,6.4286e-05,0
79.072,6.1433e-05,0
79.072,5.6901e-05,0
79.073,4.8844e-05,0
79.073,4.1459e-05,0
79.074,4.1459e-05,0
79.074,4.7333e-05,0
79.075,5.6733e-05,0
79.075,7.6875e-05,0
79.076,0.00010054,0
79.076,0.00011246,0
79.077,0.00010457,0
79.077,8.0903e-05,0
79.078,4.8005e-05,0
79.078,8.896e-06,0
79.079,-2.266e-05,0
79.079,-2.9709e-05,0
79.08,-1.9638e-05,0
79.08,-1.1917e-05,0
79.081,-1.0407e-05,0
79.081,-6.8818e-06,0
79.082,-5.0355e-07,0
79.082,4.8676e-06,0
79.083,7.8889e-06,0
79.084,9.5674e-06,0
79.084,5.8747e-06,0
79.085,2.0142e-06,0
79.085,5.2033e-06,0
79.086,1.6114e-05,0
79.086,2.8702e-05,0
79.087,3.6759e-05,0
79.087,3.8773e-05,0
79.088,4.2298e-05,0
79.088,5.1865e-05,0
79.089,6.1433e-05,0
79.089,7.0832e-05,0
79.09,7.8218e-05,0
79.09,8.1071e-05,0
79.091,7.9057e-05,0
79.091,7.2847e-05,0
79.092,6.2272e-05,0
79.092,4.9851e-05,0
79.093,3.7598e-05,0
79.093,3.0381e-05,0
79.094,2.8199e-05,0
79.094,2.6017e-05,0
79.095,2.4338e-05,0
79.095,2.6688e-05,0
79.096,3.4073e-05,0
79.097,4.1123e-05,0
79.097,4.3809e-05,0
79.098,4.1794e-05,0
79.098,3.743e-05,0
79.099,3.3066e-05,0
79.099,2.9206e-05,0
79.1,2.3499e-05,0
79.1,1.9638e-05,0
79.101,1.9638e-05,0
79.101,1.9974e-05,0
79.102,1.6617e-05,0
79.102,1.4435e-05,0
79.103,2.6017e-05,0
79.103,5.8076e-05,0
79.104,8.2078e-05,0
79.104,7.1168e-05,0
79.105,3.4073e-05,0
79.105,-9.9031e-06,0
79.106,-4.1123e-05,0
79.106,-4.9516e-05,0
79.107,-4.3305e-05,0
79.107,-3.3738e-05,0
79.108,-2.1485e-05,0
79.108,-5.539e-06,0
79.109,1.5106e-06,0
79.109,-8.5603e-06,0
79.11,-2.5681e-05,0
79.111,-3.0381e-05,0
79.111,-1.6617e-05,0
79.112,1.8463e-06,0
79.112,1.326e-05,0
79.113,2.182e-05,0
79.113,2.9374e-05,0
79.114,2.9038e-05,0
79.114,1.796e-05,0
79.115,1.1917e-05,0
79.115,2.4506e-05,0
79.116,5.2033e-05,0
79.116,6.8315e-05,0
79.117,5.7572e-05,0
79.117,2.0813e-05,0
79.118,-2.6017e-05,0
79.118,-6.2776e-05,0
79.119,-7.9393e-05,0
79.119,-7.8721e-05,0
79.12,-7.3014e-05,0
79.12,-6.3447e-05,0
79.121,-3.4073e-05,0
79.121,1.2924e-05,0
79.122,5.2873e-05,0
79.122,6.2608e-05,0
79.123,4.1123e-05,0
79.124,1.3596e-05,0
79.124,1.8463e-06,0
79.125,1.1749e-06,0
79.125,2.182e-06,0
79.126,2.5177e-06,0
79.126,1.0239e-05,0
79.127,1.3764e-05,0
79.127,1.6785e-07,0
79.128,-4.3641e-06,0
79.128,1.8967e-05,0
79.129,6.0258e-05,0
79.129,9.6513e-05,0
79.13,0.00011061,0
79.13,0.00011112,0
79.131,0.0001185,0
79.131,0.00013143,0
79.132,0.00013344,0
79.132,0.00011901,0
79.133,9.5171e-05,0
79.133,7.4022e-05,0
79.134,5.7908e-05,0
79.134,3.9445e-05,0
79.135,1.2589e-05,0
79.135,-1.7624e-05,0
79.136,-4.0452e-05,0
79.136,-4.9851e-05,0
79.137,-5.2705e-05,0
79.138,-5.0355e-05,0
79.138,-4.3137e-05,0
79.139,-3.1724e-05,0
79.139,-1.6617e-05,0
79.14,-5.539e-06,0
79.14,-6.8818e-06,0
79.141,-1.0575e-05,0
79.141,-5.539e-06,0
79.142,7.0497e-06,0
79.142,1.8631e-05,0
79.143,2.2324e-05,0
79.143,1.7624e-05,0
79.144,7.0497e-06,0
79.144,-3.5248e-06,0
79.145,-1.4267e-05,0
79.145,-2.2324e-05,0
79.146,-2.0981e-05,0
79.146,-1.0239e-05,0
79.147,1.5106e-06,0
79.147,7.8889e-06,0
79.148,1.2589e-05,0
79.148,1.7288e-05,0
79.149,2.501e-05,0
79.149,3.743e-05,0
79.15,5.2873e-05,0
79.15,6.4286e-05,0
79.151,6.6972e-05,0
79.152,6.6972e-05,0
79.152,6.949e-05,0
79.153,6.865e-05,0
79.153,5.9419e-05,0
79.154,4.4144e-05,0
79.154,3.2563e-05,0
79.155,3.0045e-05,0
79.155,4.4144e-05,0
79.156,6.4286e-05,0
79.156,7.4357e-05,0
79.157,6.6636e-05,0
79.157,4.1291e-05,0
79.158,6.0426e-06,0
79.158,-2.4674e-05,0
79.159,-3.9948e-05,0
79.159,-4.3473e-05,0
79.16,-4.3809e-05,0
79.16,-4.2802e-05,0
79.161,-3.9948e-05,0
79.161,-3.0381e-05,0
79.162,-6.2104e-06,0
79.162,3.0549e-05,0
79.163,6.1601e-05,0
79.163,7.2679e-05,0
79.164,6.1265e-05,0
79.165,3.592e-05,0
79.165,1.3764e-05,0
79.166,2.182e-06,0
79.166,1.1749e-06,0
79.167,5.2033e-06,0
79.167,8.5603e-06,0
79.168,3.357e-06,0
79.168,-1.091e-05,0
79.169,-2.266e-05,0
79.169,-1.9303e-05,0
79.17,0,0
79.17,2.5177e-05,0
79.171,4.1123e-05,0
79.171,3.743e-05,0
79.172,1.6281e-05,0
79.172,-4.5319e-06,0
79.173,-9.5674e-06,0
79.173,1.1749e-06,0
79.174,3.2731e-05,0
79.174,7.7043e-05,0
79.175,0.00011078,0
79.175,0.000118,0
79.176,9.752e-05,0
79.176,6.1433e-05,0
79.177,2.501e-05,0
79.177,-5.2033e-06,0
79.178,-1.8631e-05,0
79.179,-4.1962e-06,0
79.179,2.2492e-05,0
79.18,3.743e-05,0
79.18,3.0716e-05,0
79.181,1.1749e-05,0
79.181,-1.8463e-06,0
79.182,-6.2104e-06,0
79.182,-1.5106e-06,0
79.183,1.1078e-05,0
79.183,3.7095e-05,0
79.184,6.4118e-05,0
79.184,7.4861e-05,0
79.185,6.479e-05,0
79.185,4.213e-05,0
79.186,1.7288e-05,0
79.186,-6.3783e-06,0
79.187,-2.5345e-05,0
79.187,-3.4073e-05,0
79.188,-3.6759e-05,0
79.188,-3.7263e-05,0
79.189,-3.4745e-05,0
79.189,-3.4241e-05,0
79.19,-3.2563e-05,0
79.19,-1.8128e-05,0
79.191,1.2253e-05,0
79.192,5.4551e-05,0
79.192,9.5506e-05,0
79.193,0.00011733,0
79.193,0.00011296,0
79.194,8.4428e-05,0
79.194,4.8508e-05,0
79.195,2.4506e-05,0
79.195,1.8631e-05,0
79.196,3.2731e-05,0
79.196,5.8244e-05,0
79.197,7.1672e-05,0
79.197,5.0523e-05,0
79.198,-2.182e-06,0
79.198,-5.9251e-05,0
79.199,-9.2821e-05,0
79.199,-9.752e-05,0
79.2,-8.6946e-05,0
79.2,-7.9225e-05,0
79.201,-7.8553e-05,0
79.201,-7.2007e-05,0
79.202,-5.3376e-05,0
79.202,-3.2059e-05,0
79.203,-1.326e-05,0
79.203,2.8534e-06,0
79.204,1.6953e-05,0
79.204,3.1388e-05,0
79.205,4.5487e-05,0
79.206,6.2272e-05,0
79.206,7.8889e-05,0
79.207,9.0806e-05,0
79.207,9.8192e-05,0
79.208,0.00010121,0
79.208,0.00010239,0
79.209,0.00010709,0
79.209,0.00011397,0
79.21,0.00011598,0
79.21,0.00010826,0
79.211,8.6275e-05,0
79.211,5.4719e-05,0
79.212,2.8199e-05,0
79.212,1.4435e-05,0
79.213,6.8818e-06,0
79.213,-5.3712e-06,0
79.214,-2.9877e-05,0
79.214,-6.1433e-05,0
79.215,-7.7379e-05,0
79.215,-6.0594e-05,0
79.216,-2.2324e-05,0
79.216,2.182e-05,0
79.217,5.0523e-05,0
79.217,5.2873e-05,0
79.218,4.448e-05,0
79.219,4.0116e-05,0
79.219,3.4241e-05,0
79.22,1.5442e-05,0
79.22,-1.5106e-06,0
79.221,-2.8534e-06,0
79.221,5.0355e-06,0
79.222,2.3667e-05,0
79.222,3.8773e-05,0
79.223,2.3667e-05,0
79.223,-1.4099e-05,0
79.224,-4.2802e-05,0
79.224,-5.0019e-05,0
79.225,-4.3977e-05,0
79.225,-3.3906e-05,0
79.226,-1.6114e-05,0
79.226,1.8631e-05,0
79.227,6.5965e-05,0
79.227,0.00011128,0
79.228,0.00014536,0
79.228,0.00014989,0
79.229,0.0001133,0
79.229,5.2201e-05,0
79.23,-5.0355e-07,0
79.23,-3.1052e-05,0
79.231,-4.9851e-05,0
79.231,-7.0329e-05,0
79.232,-9.2653e-05,0
79.233,-0.00010021,0
79.233,-8.7785e-05,0
79.234,-6.3951e-05,0
79.234,-3.8102e-05,0
79.235,-1.2757e-05,0
79.235,9.9031e-06,0
79.236,2.1149e-05,0
79.236,2.2492e-05,0
79.237,2.1317e-05,0
79.237,1.9303e-05,0
79.238,2.2995e-05,0
79.238,3.4241e-05,0
79.239,4.2634e-05,0
79.239,3.9612e-05,0
79.24,3.4409e-05,0
79.24,4.0787e-05,0
79.241,5.4887e-05,0
79.241,7.0665e-05,0
79.242,8.2078e-05,0
79.242,7.805e-05,0
79.243,6.0929e-05,0
79.243,3.1388e-05,0
79.244,-4.5319e-06,0
79.244,-3.2395e-05,0
79.245,-4.5487e-05,0
79.246,-4.1291e-05,0
79.246,-2.0645e-05,0
79.247,2.0142e-06,0
79.247,1.7792e-05,0
79.248,2.7192e-05,0
79.248,3.7766e-05,0
79.249,5.6901e-05,0
79.249,7.3014e-05,0
79.25,8.0064e-05,0
79.25,8.1743e-05,0
79.251,7.8386e-05,0
79.251,7.1336e-05,0
79.252,6.2272e-05,0
79.252,5.5222e-05,0
79.253,5.2201e-05,0
79.253,5.4551e-05,0
79.254,6.6468e-05,0
79.254,8.7449e-05,0
79.255,0.00011078,0
79.255,0.00012169,0
79.256,0.00011934,0
79.256,0.00011884,0
79.257,0.00012488,0
79.257,0.00013378,0
79.258,0.00013982,0
79.258,0.00013512,0
79.259,0.00011246,0
79.26,7.5364e-05,0
79.26,3.3738e-05,0
79.261,-4.5319e-06,0
79.261,-4.2969e-05,0
79.262,-8.7617e-05,0
79.262,-0.00012908,0
79.263,-0.00015291,0
79.263,-0.00016466,0
79.264,-0.00017691,0
79.264,-0.00018128,0
79.265,-0.00015845,0
79.265,-0.00010323,0
79.266,-3.2731e-05,0
79.266,2.3331e-05,0
79.267,4.8173e-05,0
79.267,4.6159e-05,0
79.268,4.6662e-05,0
79.268,6.5461e-05,0
79.269,8.5771e-05,0
79.269,8.8792e-05,0
79.27,7.2679e-05,0
79.27,3.9277e-05,0
79.271,1.8463e-06,0
79.271,-2.5513e-05,0
79.272,-4.5319e-05,0
79.273,-5.9586e-05,0
79.273,-6.3615e-05,0
79.274,-5.9419e-05,0
79.274,-4.7837e-05,0
79.275,-2.2995e-05,0
79.275,5.2033e-06,0
79.276,2.6017e-05,0
79.276,3.4409e-05,0
79.277,3.3402e-05,0
79.277,3.0381e-05,0
79.278,2.7695e-05,0
79.278,2.0142e-05,0
79.279,1.1414e-05,0
79.279,1.1414e-05,0
79.28,2.1317e-05,0
79.28,3.5752e-05,0
79.281,5.7908e-05,0
79.281,8.7114e-05,0
79.282,0.0001044,0
79.282,9.4835e-05,0
79.283,7.4022e-05,0
79.283,5.8244e-05,0
79.284,4.2802e-05,0
79.284,2.1317e-05,0
79.285,3.1891e-06,0
79.285,-4.8676e-06,0
79.286,-5.0355e-06,0
79.287,-7.7211e-06,0
79.287,-1.796e-05,0
79.288,-2.0478e-05,0
79.288,-1.5106e-06,0
79.289,1.9303e-05,0
79.289,2.0478e-05,0
79.29,1.7624e-05,0
79.29,3.0381e-05,0
79.291,4.918e-05,0
79.291,6.3951e-05,0
79.292,6.9657e-05,0
79.292,6.6636e-05,0
79.293,6.3951e-05,0
79.293,7.6707e-05,0
79.294,9.4331e-05,0
79.294,9.0806e-05,0
79.295,5.8579e-05,0
79.295,1.9471e-05,0
79.296,-1.4435e-05,0
79.296,-3.9612e-05,0
79.297,-4.8005e-05,0
79.297,-4.2634e-05,0
79.298,-3.4073e-05,0
79.298,-3.0381e-05,0
79.299,-3.2059e-05,0
79.3,-3.4409e-05,0
79.3,-2.5513e-05,0
79.301,-3.6927e-06,0
79.301,1.7288e-05,0
79.302,2.8702e-05,0
79.302,2.4506e-05,0
79.303,1.0575e-05,0
79.303,-4.8676e-06,0
79.304,-2.3667e-05,0
79.304,-4.0787e-05,0
79.305,-4.2298e-05,0
79.305,-2.2324e-05,0
79.306,8.5603e-06,0
79.306,3.2898e-05,0
79.307,4.2802e-05,0
79.307,4.2802e-05,0
79.308,4.2802e-05,0
79.308,5.3544e-05,0
79.309,7.2343e-05,0
79.309,8.4764e-05,0
79.31,8.7114e-05,0
79.31,8.1743e-05,0
79.311,7.1672e-05,0
79.311,6.2272e-05,0
79.312,5.6901e-05,0
79.312,4.4816e-05,0
79.313,1.8631e-05,0
79.314,3.1891e-06,0
79.314,1.5106e-05,0
79.315,3.2731e-05,0
79.315,3.2731e-05,0
79.316,1.561e-05,0
79.316,-3.5248e-06,0
79.317,-1.091e-05,0
79.317,-1.0575e-05,0
79.318,-4.1962e-06,0
79.318,5.2033e-06,0
79.319,1.091e-05,0
79.319,1.0575e-05,0
79.32,1.4603e-05,0
79.32,3.3738e-05,0
79.321,6.1265e-05,0
79.321,7.1839e-05,0
79.322,6.0761e-05,0
79.322,4.6662e-05,0
79.323,3.4073e-05,0
79.323,1.2757e-05,0
79.324,-1.9638e-05,0
79.324,-4.9683e-05,0
79.325,-6.4622e-05,0
79.325,-6.9993e-05,0
79.326,-7.8218e-05,0
79.327,-8.7617e-05,0
79.327,-8.1743e-05,0
79.328,-5.3208e-05,0
79.328,-1.8967e-05,0
79.329,7.5532e-06,0
79.329,1.8631e-05,0
79.33,1.0239e-05,0
79.33,-8.7282e-06,0
79.331,-2.9038e-05,0
79.331,-3.9277e-05,0
79.332,-3.0549e-05,0
79.332,1.9806e-05,0
79.333,9.2149e-05,0
79.333,0.00013327,0
79.334,0.00012337,0
79.334,8.275e-05,0
79.335,3.9948e-05,0
79.335,1.2924e-05,0
79.336,-3.357e-06,0
79.336,-1.7121e-05,0
79.337,-2.7863e-05,0
79.337,-3.0716e-05,0
79.338,-1.8967e-05,0
79.338,-6.714e-07,0
79.339,1.0407e-05,0
79.34,1.2924e-05,0
79.34,1.2253e-05,0
79.341,1.2924e-05,0
79.341,9.2317e-06,0
79.342,2.5177e-06,0
79.342,4.8676e-06,0
79.343,3.1388e-05,0
79.343,8.275e-05,0
79.344,0.00013462,0
79.344,0.00016097,0
79.345,0.00016533,0
79.345,0.00016164,0
79.346,0.00014955,0
79.346,0.00012807,0
79.347,0.00010457,0
79.347,8.191e-05,0
79.348,5.4887e-05,0
79.348,2.2828e-05,0
79.349,-1.2924e-05,0
79.349,-4.4816e-05,0
79.35,-5.9083e-05,0
79.35,-5.4383e-05,0
79.351,-4.7669e-05,0
79.351,-4.5991e-05,0
79.352,-3.3066e-05,0
79.352,-5.539e-06,0
79.353,2.8199e-05,0
79.354,6.0929e-05,0
79.354,7.6371e-05,0
79.355,6.8315e-05,0
79.355,4.8173e-05,0
79.356,2.3835e-05,0
79.356,-5.539e-06,0
79.357,-3.4745e-05,0
79.357,-5.0858e-05,0
79.358,-4.062e-05,0
79.358,-1.5106e-06,0
79.359,4.0452e-05,0
79.359,6.3447e-05,0
79.36,6.4286e-05,0
79.36,4.3977e-05,0
79.361,1.6617e-05,0
79.361,-3.357e-06,0
79.362,-1.6281e-05,0
79.362,-2.4002e-05,0
79.363,-2.9038e-05,0
79.363,-3.4241e-05,0
79.364,-3.5416e-05,0
79.364,-3.0213e-05,0
79.365,-1.9638e-05,0
79.365,-8.5603e-06,0
79.366,1.0071e-06,0
79.367,7.7211e-06,0
79.367,9.7353e-06,0
79.368,3.8605e-06,0
79.368,-1.0239e-05,0
79.369,-2.031e-05,0
79.369,-2.0142e-05,0
79.37,-1.4603e-05,0
79.37,-3.5248e-06,0
79.371,1.4099e-05,0
79.371,3.4745e-05,0
79.372,4.9851e-05,0
79.372,5.2537e-05,0
79.373,4.7501e-05,0
79.373,4.9516e-05,0
79.374,7.0329e-05,0
79.374,0.00011263,0
79.375,0.00015727,0
79.375,0.00018144,0
79.376,0.00017826,0
79.376,0.00015291,0
79.377,0.0001133,0
79.377,6.5126e-05,0
79.378,1.9638e-05,0
79.378,-1.5106e-05,0
79.379,-4.2298e-05,0
79.379,-5.6565e-05,0
79.38,-6.0258e-05,0
79.381,-6.479e-05,0
79.381,-6.4622e-05,0
79.382,-3.9612e-05,0
79.382,-5.0355e-06,0
79.383,1.3931e-05,0
79.383,9.9031e-06,0
79.384,-9.3996e-06,0
79.384,-3.0381e-05,0
79.385,-4.6326e-05,0
79.385,-5.1865e-05,0
79.386,-4.5823e-05,0
79.386,-2.8367e-05,0
79.387,1.6785e-06,0
79.387,4.683e-05,0
79.388,9.6513e-05,0
79.388,0.00012253,0
79.389,0.00012035,0
79.389,0.00010591,0
79.39,9.4499e-05,0
79.39,8.9464e-05,0
79.391,8.0735e-05,0
79.391,6.2608e-05,0
79.392,4.062e-05,0
79.392,1.8631e-05,0
79.393,-8.896e-06,0
79.394,-3.592e-05,0
79.394,-4.7333e-05,0
79.395,-3.7263e-05,0
79.395,-2.266e-05,0
79.396,-1.8967e-05,0
79.396,-2.8534e-05,0
79.397,-4.6662e-05,0
79.397,-5.5558e-05,0
79.398,-4.4144e-05,0
79.398,-1.6281e-05,0
79.399,1.5274e-05,0
79.399,4.1123e-05,0
79.4,6.9993e-05,0
79.4,0.00011632,0
79.401,0.00016332,0
79.401,0.0001744,0
79.402,0.00014351,0
79.402,9.5171e-05,0
79.403,4.7837e-05,0
79.403,9.9031e-06,0
79.404,-2.1149e-05,0
79.404,-5.7237e-05,0
79.405,-9.1646e-05,0
79.405,-0.00010289,0
79.406,-9.4499e-05,0
79.406,-9.3156e-05,0
79.407,-0.00010121,0
79.408,-0.00010155,0
79.408,-9.0806e-05,0
79.409,-7.1504e-05,0
79.409,-4.4312e-05,0
79.41,-1.5106e-05,0
79.41,1.326e-05,0
79.411,3.6591e-05,0
79.411,4.2802e-05,0
79.412,3.0045e-05,0
79.412,1.4435e-05,0
79.413,1.4435e-05,0
79.413,2.8702e-05,0
79.414,4.2802e-05,0
79.414,4.683e-05,0
79.415,4.5151e-05,0
79.415,5.0187e-05,0
79.416,6.3951e-05,0
79.416,8.9967e-05,0
79.417,0.00011867,0
79.417,0.00013008,0
79.418,0.0001227,0
79.418,0.00010071,0
79.419,7.3686e-05,0
79.419,5.7404e-05,0
79.42,5.2537e-05,0
79.421,5.0523e-05,0
79.421,4.4144e-05,0
79.422,3.6927e-05,0
79.422,3.3738e-05,0
79.423,3.4577e-05,0
79.423,3.3066e-05,0
79.424,2.6688e-05,0
79.424,1.4099e-05,0
79.425,-8.2246e-06,0
79.425,-3.5752e-05,0
79.426,-5.6901e-05,0
79.426,-6.4286e-05,0
79.427,-6.1265e-05,0
79.427,-5.2201e-05,0
79.428,-3.2395e-05,0
79.428,1.3596e-05,0
79.429,9.4499e-05,0
79.429,0.00016701,0
79.43,0.0001937,0
79.43,0.00017238,0
79.431,0.00011363,0
79.431,5.0187e-05,0
79.432,1.7121e-05,0
79.432,-1.5106e-06,0
79.433,-4.3809e-05,0
79.433,-0.00010121,0
79.434,-0.00013529,0
79.435,-0.00013394,0
79.435,-0.000118,0
79.436,-9.8527e-05,0
79.436,-7.5029e-05,0
79.437,-4.9851e-05,0
79.437,-2.4338e-05,0
79.438,1.0071e-06,0
79.438,2.4002e-05,0
79.439,3.6759e-05,0
79.439,3.9277e-05,0
79.44,4.213e-05,0
79.44,6.3615e-05,0
79.441,0.00011263,0
79.441,0.00016466,0
79.442,0.00019252,0
79.442,0.00019655,0
79.443,0.00017826,0
79.443,0.00013881,0
79.444,9.0303e-05,0
79.444,4.0116e-05,0
79.445,-6.3783e-06,0
79.445,-4.7166e-05,0
79.446,-8.0064e-05,0
79.446,-9.4835e-05,0
79.447,-9.2317e-05,0
79.448,-8.3085e-05,0
79.448,-7.2175e-05,0
79.449,-6.1601e-05,0
79.449,-4.8676e-05,0
79.45,-3.5248e-05,0
79.45,-2.2492e-05,0
79.451,-1.1246e-05,0
79.451,-1.1749e-06,0
79.452,-1.5106e-06,0
79.452,-8.2246e-06,0
79.453,1.1749e-06,0
79.453,3.4745e-05,0
79.454,7.3014e-05,0
79.454,9.7017e-05,0
79.455,9.987e-05,0
79.455,8.4092e-05,0
79.456,6.3615e-05,0
79.456,4.8173e-05,0
79.457,4.3137e-05,0
79.457,5.0523e-05,0
79.458,6.1265e-05,0
79.458,7.7546e-05,0
79.459,0.00010927,0
79.459,0.00015895,0
79.46,0.00019269,0
79.46,0.00018161,0
79.461,0.00013378,0
79.462,7.4693e-05,0
79.462,2.8031e-05,0
79.463,4.8676e-06,0
79.463,-5.0355e-06,0
79.464,-2.6017e-05,0
79.464,-5.5558e-05,0
79.465,-5.9754e-05,0
79.465,-1.6617e-05,0
79.466,3.978e-05,0
79.466,7.1e-05,0
79.467,7.5029e-05,0
79.467,6.009e-05,0
79.468,2.7024e-05,0
79.468,-1.1582e-05,0
79.469,-5.0187e-05,0
79.469,-9.0639e-05,0
79.47,-0.00012454,0
79.47,-0.00014536,0
79.471,-0.00015895,0
79.471,-0.00017557,0
79.472,-0.00019034,0
79.472,-0.00018564,0
79.473,-0.00015224,0
79.473,-0.00010004,0
79.474,-5.1698e-05,0
79.475,-2.501e-05,0
79.475,-1.6114e-05,0
79.476,-1.091e-05,0
79.476,-1.6785e-07,0
79.477,1.4435e-05,0
79.477,3.0045e-05,0
79.478,4.6159e-05,0
79.478,6.2608e-05,0
79.479,7.1e-05,0
79.479,6.8818e-05,0
79.48,6.4286e-05,0
79.48,6.6468e-05,0
79.481,7.5029e-05,0
79.481,8.5603e-05,0
79.482,9.5003e-05,0
79.482,0.00010793,0
79.483,0.00012421,0
79.483,0.00012874,0
79.484,0.00012169,0
79.484,0.00011363,0
79.485,0.00010457,0
79.485,8.8121e-05,0
79.486,6.9154e-05,0
79.486,5.304e-05,0
79.487,4.1291e-05,0
79.487,3.978e-05,0
79.488,4.7333e-05,0
79.489,5.3544e-05,0
79.489,5.2201e-05,0
79.49,4.213e-05,0
79.49,2.8534e-05,0
79.491,2.1149e-05,0
79.491,2.7863e-05,0
79.492,6.2272e-05,0
79.492,9.8192e-05,0
79.493,9.7185e-05,0
79.493,6.3783e-05,0
79.494,2.5345e-05,0
79.494,-9.9031e-06,0
79.495,-4.3305e-05,0
79.495,-6.6468e-05,0
79.496,-7.2511e-05,0
79.496,-6.4622e-05,0
79.497,-5.6565e-05,0
79.497,-5.069e-05,0
79.498,-4.448e-05,0
79.498,-3.5416e-05,0
79.499,-1.0239e-05,0
79.499,2.7192e-05,0
79.5,5.1698e-05,0
79.5,5.2201e-05,0
79.501,4.1459e-05,0
79.501,3.6088e-05,0
79.502,3.978e-05,0
79.503,4.1291e-05,0
79.503,3.1724e-05,0
79.504,1.326e-05,0
79.504,5.8747e-06,0
79.505,1.7288e-05,0
79.505,3.0716e-05,0
79.506,4.2802e-05,0
79.506,5.2873e-05,0
79.507,5.5894e-05,0
79.507,5.8244e-05,0
79.508,5.7237e-05,0
79.508,4.6159e-05,0
79.509,2.0645e-05,0
79.509,-1.7456e-05,0
79.51,-4.8508e-05,0
79.51,-5.4719e-05,0
79.511,-3.7766e-05,0
79.511,-1.0575e-05,0
79.512,1.9638e-05,0
79.512,4.0787e-05,0
79.513,4.6159e-05,0
79.513,4.0116e-05,0
79.514,4.1459e-05,0
79.514,5.1865e-05,0
79.515,6.3447e-05,0
79.516,7.8553e-05,0
79.516,8.5771e-05,0
79.517,6.63e-05,0
79.517,1.5778e-05,0
79.518,-3.8102e-05,0
79.518,-4.4144e-05,0
79.519,9.5674e-06,0
79.519,6.0929e-05,0
79.52,7.7714e-05,0
79.52,6.6804e-05,0
79.521,3.3066e-05,0
79.521,-3.0045e-05,0
79.522,-0.00010306,0
79.522,-0.00014754,0
79.523,-0.0001613,0
79.523,-0.00015795,0
79.524,-0.00013008,0
79.524,-9.0303e-05,0
79.525,-7.8721e-05,0
79.525,-9.7353e-05,0
79.526,-0.0001039,0
79.526,-7.6204e-05,0
79.527,-3.5248e-05,0
79.527,-4.6998e-06,0
79.528,1.561e-05,0
79.528,3.5752e-05,0
79.529,6.2608e-05,0
79.53,9.5506e-05,0
79.53,0.00013529,0
79.531,0.00021267,0
79.531,0.0003221,0
79.532,0.00039193,0
79.532,0.00037514,0
79.533,0.00028518,0
79.533,0.00015962,0
79.534,3.4745e-05,0
79.534,-5.6397e-05,0
79.535,-0.00010826,0
79.535,-0.00014032,0
79.536,-0.00016315,0
79.536,-0.00017137,0
79.537,-0.0001613,0
79.537,-0.00014284,0
79.538,-0.00012908,0
79.538,-0.00011901,0
79.539,-0.00010759,0
79.539,-7.8386e-05,0
79.54,-2.7024e-05,0
79.54,2.9038e-05,0
79.541,6.2104e-05,0
79.541,6.5965e-05,0
79.542,5.4887e-05,0
79.543,4.5487e-05,0
79.543,3.7095e-05,0
79.544,2.5345e-05,0
79.544,1.4603e-05,0
79.545,1.1917e-05,0
79.545,1.4603e-05,0
79.546,2.0813e-05,0
79.546,3.3738e-05,0
79.547,6.5629e-05,0
79.547,0.00011363,0
79.548,0.00014972,0
79.548,0.00015291,0
79.549,0.00012337,0
79.549,7.3686e-05,0
79.55,2.1317e-05,0
79.55,-1.8967e-05,0
79.551,-4.1459e-05,0
79.551,-4.1123e-05,0
79.552,-2.0142e-05,0
79.552,9.5674e-06,0
79.553,2.7024e-05,0
79.553,3.0381e-05,0
79.554,2.5177e-05,0
79.554,1.9638e-05,0
79.555,2.652e-05,0
79.555,4.3809e-05,0
79.556,5.9419e-05,0
79.557,6.6133e-05,0
79.557,6.4118e-05,0
79.558,6.2272e-05,0
79.558,6.7643e-05,0
79.559,7.5868e-05,0
79.559,8.9128e-05,0
79.56,0.00010256,0
79.56,9.8192e-05,0
79.561,7.5029e-05,0
79.561,4.4144e-05,0
79.562,2.0645e-05,0
79.562,9.2317e-06,0
79.563,1.8463e-06,0
79.563,-5.7069e-06,0
79.564,-9.2317e-06,0
79.564,-4.6998e-06,0
79.565,5.0355e-06,0
79.565,1.561e-05,0
79.566,1.9638e-05,0
79.566,1.1246e-05,0
79.567,-7.0497e-06,0
79.567,-2.2995e-05,0
79.568,-2.5177e-05,0
79.568,-1.5778e-05,0
79.569,-5.539e-06,0
79.57,-4.5319e-06,0
79.57,-1.2589e-05,0
79.571,-1.4603e-05,0
79.571,-5.539e-06,0
79.572,8.0568e-06,0
79.572,2.2995e-05,0
79.573,3.592e-05,0
79.573,3.978e-05,0
79.574,3.5248e-05,0
79.574,3.0716e-05,0
79.575,2.9877e-05,0
79.575,3.0716e-05,0
79.576,3.5752e-05,0
79.576,4.683e-05,0
79.577,6.0594e-05,0
79.577,7.5532e-05,0
79.578,9.0471e-05,0
79.578,9.752e-05,0
79.579,9.8695e-05,0
79.579,9.6178e-05,0
79.58,8.4428e-05,0
79.58,7.6875e-05,0
79.581,8.9464e-05,0
79.581,0.00010793,0
79.582,0.00011112,0
79.582,9.2317e-05,0
79.583,6.2608e-05,0
79.584,2.3331e-05,0
79.584,-2.8702e-05,0
79.585,-7.57e-05,0
79.585,-8.7953e-05,0
79.586,-9.0303e-05,0
79.586,-0.00013092,0
79.587,-0.00018413,0
79.587,-0.00018849,0
79.588,-0.00013126,0
79.588,-5.623e-05,0
79.589,-1.1582e-05,0
79.589,3.5248e-06,0
79.59,9.3996e-06,0
79.59,7.5532e-06,0
79.591,-8.896e-06,0
79.591,-3.4073e-05,0
79.592,-4.8173e-05,0
79.592,-3.2059e-05,0
79.593,-1.1749e-06,0
79.593,1.9974e-05,0
79.594,3.2731e-05,0
79.594,3.7934e-05,0
79.595,4.3641e-05,0
79.595,5.7908e-05,0
79.596,6.3615e-05,0
79.597,4.8844e-05,0
79.597,2.4674e-05,0
79.598,1.6953e-05,0
79.598,4.6998e-05,0
79.599,0.00012035,0
79.599,0.00023214,0
79.6,0.00033738,0
79.6,0.0003926,0
79.601,0.0003597,0
79.601,0.00023684,0
79.602,7.7546e-05,0
79.602,-4.3977e-05,0
79.603,-9.8192e-05,0
79.603,-0.0001044,0
79.604,-8.7785e-05,0
79.604,-6.7643e-05,0
79.605,-6.949e-05,0
79.605,-0.00010356,0
79.606,-0.00014334,0
79.606,-0.00016432,0
79.607,-0.00017859,0
79.607,-0.00020209,0
79.608,-0.00022089,0
79.608,-0.00022206,0
79.609,-0.0002088,0
79.609,-0.00018379,0
79.61,-0.00014922,0
79.611,-0.00011196,0
79.611,-7.6036e-05,0
79.612,-4.3809e-05,0
79.612,-9.5674e-06,0
79.613,2.7527e-05,0
79.613,5.9586e-05,0
79.614,8.2582e-05,0
79.614,9.7185e-05,0
79.615,0.00010474,0
79.615,0.00010625,0
79.616,9.8863e-05,0
79.616,7.8889e-05,0
79.617,5.2705e-05,0
79.617,3.4745e-05,0
79.618,2.501e-05,0
79.618,1.7624e-05,0
79.619,1.3092e-05,0
79.619,1.2421e-05,0
79.62,1.7792e-05,0
79.62,2.9709e-05,0
79.621,5.1698e-05,0
79.621,9.7185e-05,0
79.622,0.00014972,0
79.622,0.00018228,0
79.623,0.00018833,0
79.624,0.0001707,0
79.624,0.00013646,0
79.625,9.7688e-05,0
79.625,6.6972e-05,0
79.626,4.4144e-05,0
79.626,2.4506e-05,0
79.627,1.9806e-05,0
79.627,3.1724e-05,0
79.628,3.8102e-05,0
79.628,2.8031e-05,0
79.629,9.0639e-06,0
79.629,-4.1962e-06,0
79.63,-3.8605e-06,0
79.63,2.6856e-06,0
79.631,9.5674e-06,0
79.631,2.2995e-05,0
79.632,4.5151e-05,0
79.632,5.9586e-05,0
79.633,5.7404e-05,0
79.633,4.7837e-05,0
79.634,4.3305e-05,0
79.634,4.6159e-05,0
79.635,5.3208e-05,0
79.635,5.8412e-05,0
79.636,5.9251e-05,0
79.636,5.5222e-05,0
79.637,4.6494e-05,0
79.638,3.4745e-05,0
79.638,2.5345e-05,0
79.639,2.4338e-05,0
79.639,2.9206e-05,0
79.64,3.1556e-05,0
79.64,2.8367e-05,0
79.641,2.3835e-05,0
79.641,1.9638e-05,0
79.642,2.2995e-05,0
79.642,4.5487e-05,0
79.643,0.00010222,0
79.643,0.00016902,0
79.644,0.00020394,0
79.644,0.00020293,0
79.645,0.00018245,0
79.645,0.0001462,0
79.646,9.0806e-05,0
79.646,1.9638e-05,0
79.647,-4.6494e-05,0
79.647,-9.2821e-05,0
79.648,-0.0001274,0
79.648,-0.00015291,0
79.649,-0.00016751,0
79.649,-0.00017205,0
79.65,-0.00016936,0
79.651,-0.00017121,0
79.651,-0.00017675,0
79.652,-0.00016735,0
79.652,-0.0001237,0
79.653,-6.3111e-05,0
79.653,-6.0426e-06,0
79.654,4.683e-05,0
79.654,8.1071e-05,0
79.655,8.0735e-05,0
79.655,5.2201e-05,0
79.656,1.8631e-05,0
79.656,0,0
79.657,1.6785e-07,0
79.657,2.0981e-05,0
79.658,6.6468e-05,0
79.658,0.00011733,0
79.659,0.00013948,0
79.659,0.0001232,0
79.66,0.00010289,0
79.66,0.00011615,0
79.661,0.00016735,0
79.661,0.00025328,0
79.662,0.0003164,0
79.662,0.0003033,0
79.663,0.00021669,0
79.663,0.00010407,0
79.664,5.8747e-06,0
79.665,-6.4958e-05,0
79.665,-0.00011498,0
79.666,-0.00016617,0
79.666,-0.00022072,0
79.667,-0.00025933,0
79.667,-0.00026386,0
79.668,-0.00024204,0
79.668,-0.00022089,0
79.669,-0.00020243,0
79.669,-0.00017288,0
79.67,-0.00012908,0
79.67,-8.5435e-05,0
79.671,-5.4719e-05,0
79.671,-3.3738e-05,0
79.672,-8.5603e-06,0
79.672,4.9348e-05,0
79.673,0.00013663,0
79.673,0.00018816,0
79.674,0.00018027,0
79.674,0.00013814,0
79.675,8.0903e-05,0
79.675,2.4506e-05,0
79.676,-1.4771e-05,0
79.676,-3.0716e-05,0
79.677,-2.7024e-05,0
79.678,3.357e-07,0
79.678,7.3014e-05,0
79.679,0.00016164,0
79.679,0.00022005,0
79.68,0.00024288,0
79.68,0.00022341,0
79.681,0.00015895,0
79.681,6.7811e-05,0
79.682,-1.6953e-05,0
79.682,-6.6804e-05,0
79.683,-9.2149e-05,0
79.683,-0.00010793,0
79.684,-0.0001284,0
79.684,-0.00015392,0
79.685,-0.00016466,0
79.685,-0.00015258,0
79.686,-0.0001373,0
79.686,-0.00011481,0
79.687,-7.5532e-05,0
79.687,-3.3402e-05,0
79.688,-3.0213e-06,0
79.688,1.7121e-05,0
79.689,3.1724e-05,0
79.689,3.8437e-05,0
79.69,4.213e-05,0
79.691,5.2705e-05,0
79.691,9.6178e-05,0
79.692,0.00017809,0
79.692,0.00023751,0
79.693,0.00023079,0
79.693,0.00017104,0
79.694,9.1646e-05,0
79.694,2.6688e-05,0
79.695,-9.2317e-06,0
79.695,-2.2995e-05,0
79.696,-2.4338e-05,0
79.696,-1.4099e-05,0
79.697,7.8889e-06,0
79.697,3.0716e-05,0
79.698,4.3305e-05,0
79.698,4.213e-05,0
79.699,3.2395e-05,0
79.699,2.3667e-05,0
79.7,2.5345e-05,0
79.7,3.7095e-05,0
79.701,4.2802e-05,0
79.701,3.508e-05,0
79.702,2.266e-05,0
79.702,2.0981e-05,0
79.703,3.0716e-05,0
79.703,3.8773e-05,0
79.704,3.2898e-05,0
79.705,1.7288e-05,0
79.705,7.5532e-06,0
79.706,1.1917e-05,0
79.706,2.1988e-05,0
79.707,2.6352e-05,0
79.707,2.8702e-05,0
79.708,3.7766e-05,0
79.708,5.0187e-05,0
79.709,5.8915e-05,0
79.709,6.0761e-05,0
79.71,5.8579e-05,0
79.71,5.5222e-05,0
79.711,5.2201e-05,0
79.711,5.0523e-05,0
79.712,5.1194e-05,0
79.712,5.1362e-05,0
79.713,4.7837e-05,0
79.713,4.3473e-05,0
79.714,4.0116e-05,0
79.714,3.8773e-05,0
79.715,3.8437e-05,0
79.715,4.0116e-05,0
79.716,4.5487e-05,0
79.716,5.0019e-05,0
79.717,4.7837e-05,0
79.718,4.9516e-05,0
79.718,6.4286e-05,0
79.719,8.4932e-05,0
79.719,0.0001044,0
79.72,0.0001133,0
79.72,0.00010961,0
79.721,9.7688e-05,0
79.721,8.1743e-05,0
79.722,7.0832e-05,0
79.722,6.7643e-05,0
79.723,5.8412e-05,0
79.723,3.8773e-05,0
79.724,1.6449e-05,0
79.724,-8.2246e-06,0
79.725,-4.4312e-05,0
79.725,-9.0135e-05,0
79.726,-0.00012152,0
79.726,-0.00012102,0
79.727,-9.9702e-05,0
79.727,-8.6107e-05,0
79.728,-8.6442e-05,0
79.728,-7.7379e-05,0
79.729,-3.7095e-05,0
79.729,9.0639e-06,0
79.73,2.2324e-05,0
79.73,3.6927e-06,0
79.731,-2.3835e-05,0
79.732,-3.978e-05,0
79.732,-2.2324e-05,0
79.733,2.2492e-05,0
79.733,5.8579e-05,0
79.734,6.8986e-05,0
79.734,6.3111e-05,0
79.735,5.7404e-05,0
79.735,5.3544e-05,0
79.736,4.3473e-05,0
79.736,2.1317e-05,0
79.737,-1.1414e-05,0
79.737,-4.8173e-05,0
79.738,-7.7379e-05,0
79.738,-9.9367e-05,0
79.739,-0.00010608,0
79.739,-8.6778e-05,0
79.74,-6.0258e-05,0
79.74,-3.5584e-05,0
79.741,-9.3996e-06,0
79.741,1.6617e-05,0
79.742,4.5991e-05,0
79.742,8.1743e-05,0
79.743,0.00010793,0
79.743,0.0001138,0
79.744,0.00012186,0
79.745,0.00011884,0
79.745,7.7714e-05,0
79.746,-5.7069e-06,0
79.746,-9.836e-05,0
79.747,-0.00016483,0
79.747,-0.00020394,0
79.748,-0.00022223,0
79.748,-0.00022156,0
79.749,-0.00019924,0
79.749,-0.00015157,0
79.75,-9.2317e-05,0
79.75,-3.9445e-05,0
79.751,-3.5248e-06,0
79.751,1.6785e-05,0
79.752,3.1388e-05,0
79.752,4.4144e-05,0
79.753,5.6901e-05,0
79.753,6.1433e-05,0
79.754,5.2873e-05,0
79.754,3.8773e-05,0
79.755,2.7192e-05,0
79.755,2.2324e-05,0
79.756,3.4577e-05,0
79.756,6.865e-05,0
79.757,0.00010054,0
79.757,0.00010843,0
79.758,9.9702e-05,0
79.759,9.1142e-05,0
79.759,8.7617e-05,0
79.76,8.0232e-05,0
79.76,6.7979e-05,0
79.761,6.3951e-05,0
79.761,6.9322e-05,0
79.762,7.9057e-05,0
79.762,9.1814e-05,0
79.763,0.00010054,0
79.763,9.3156e-05,0
79.764,7.6707e-05,0
79.764,6.8818e-05,0
79.765,7.4693e-05,0
79.765,8.4428e-05,0
79.766,8.1575e-05,0
79.766,6.8315e-05,0
79.767,8.6275e-05,0
79.767,0.00014939,0
79.768,0.00021199,0
79.768,0.00023616,0
79.769,0.00021535,0
79.769,0.00015879,0
79.77,8.6946e-05,0
79.77,2.3331e-05,0
79.771,-2.3499e-05,0
79.772,-6.6972e-05,0
79.772,-0.00011112,0
79.773,-0.00013462,0
79.773,-0.00012572,0
79.774,-0.00011095,0
79.774,-0.00011548,0
79.775,-0.0001321,0
79.775,-0.00013999,0
79.776,-0.00012757,0
79.776,-9.9031e-05,0
79.777,-6.4958e-05,0
79.777,-3.1388e-05,0
79.778,-1.5106e-06,0
79.778,3.9445e-05,0
79.779,0.00012068,0
79.779,0.00021703,0
79.78,0.00027041,0
79.78,0.00026168,0
79.781,0.00021451,0
79.781,0.00015962,0
79.782,0.00011951,0
79.782,0.00010188,0
79.783,9.1814e-05,0
79.783,7.0161e-05,0
79.784,3.592e-05,0
79.784,-5.8747e-06,0
79.785,-5.6901e-05,0
79.786,-0.00011196,0
79.786,-0.00015073,0
79.787,-0.0001556,0
79.787,-0.00012773,0
79.788,-7.6707e-05,0
79.788,-1.8967e-05,0
79.789,1.8967e-05,0
79.789,2.6688e-05,0
79.79,2.2828e-05,0
79.79,1.9638e-05,0
79.791,1.6617e-05,0
79.791,1.1414e-05,0
79.792,5.0355e-07,0
79.792,-1.1917e-05,0
79.793,-2.5177e-05,0
79.793,-3.8437e-05,0
79.794,-4.8173e-05,0
79.794,-5.8579e-05,0
79.795,-6.7643e-05,0
79.795,-6.8147e-05,0
79.796,-5.5558e-05,0
79.796,-3.5248e-05,0
79.797,-1.2924e-05,0
79.797,2.3331e-05,0
79.798,8.7449e-05,0
79.799,0.00014183,0
79.799,0.0001519,0
79.8,0.0001284,0
79.8,9.1814e-05,0
79.801,5.2201e-05,0
79.801,1.5106e-05,0
79.802,-1.4771e-05,0
79.802,-3.1891e-05,0
79.803,-3.7263e-05,0
79.803,-2.8031e-05,0
79.804,-1.0407e-05,0
79.804,6.2104e-06,0
79.805,1.796e-05,0
79.805,2.887e-05,0
79.806,5.388e-05,0
79.806,8.4932e-05,0
79.807,9.7688e-05,0
79.807,8.5771e-05,0
79.808,6.1265e-05,0
79.808,4.3473e-05,0
79.809,4.6998e-05,0
79.809,5.6565e-05,0
79.81,5.7237e-05,0
79.81,6.1936e-05,0
79.811,7.3854e-05,0
79.811,7.6036e-05,0
79.812,6.3615e-05,0
79.813,4.2802e-05,0
79.813,1.6785e-05,0
79.814,-3.357e-06,0
79.814,-7.2175e-06,0
79.815,1.1749e-06,0
79.815,2.182e-06,0
79.816,-8.2246e-06,0
79.816,-2.4338e-05,0
79.817,-3.592e-05,0
79.817,-3.2395e-05,0
79.818,-1.7288e-05,0
79.818,-5.2033e-06,0
79.819,3.1891e-06,0
79.819,1.8296e-05,0
79.82,3.592e-05,0
79.82,4.3473e-05,0
79.821,3.9948e-05,0
79.821,3.122e-05,0
79.822,1.7456e-05,0
79.822,1.6785e-06,0
79.823,-4.5319e-06,0
79.823,1.6785e-07,0
79.824,1.1246e-05,0
79.824,2.5345e-05,0
79.825,3.3402e-05,0
79.826,3.743e-05,0
79.826,4.8005e-05,0
79.827,6.9657e-05,0
79.827,9.1142e-05,0
79.828,9.752e-05,0
79.828,8.9799e-05,0
79.829,7.3182e-05,0
79.829,4.1291e-05,0
79.83,-2.182e-06,0
79.83,-3.3738e-05,0
79.831,-4.0787e-05,0
79.831,-2.7695e-05,0
79.832,-9.2317e-06,0
79.832,-8.7282e-06,0
79.833,-3.6591e-05,0
79.833,-6.8482e-05,0
79.834,-7.2511e-05,0
79.834,-4.9012e-05,0
79.835,1.1749e-05,0
79.835,8.6442e-05,0
79.836,0.00012035,0
79.836,9.7856e-05,0
79.837,5.2201e-05,0
79.837,1.4939e-05,0
79.838,7.3854e-06,0
79.838,3.2395e-05,0
79.839,6.4286e-05,0
79.84,6.7308e-05,0
79.84,3.6255e-05,0
79.841,1.1917e-05,0
79.841,3.9612e-05,0
79.842,7.4189e-05,0
79.842,5.7069e-05,0
79.843,3.5248e-06,0
79.843,-4.1794e-05,0
79.844,-6.3279e-05,0
79.844,-7.1672e-05,0
79.845,-7.0665e-05,0
79.845,-5.2873e-05,0
79.846,-2.4002e-05,0
79.846,7.8889e-06,0
79.847,3.3234e-05,0
79.847,3.8437e-05,0
79.848,2.1317e-05,0
79.848,-1.0071e-06,0
79.849,-1.9638e-05,0
79.849,-4.3809e-05,0
79.85,-7.1672e-05,0
79.85,-8.9632e-05,0
79.851,-9.6849e-05,0
79.851,-0.00010088,0
79.852,-9.4499e-05,0
79.853,-7.4693e-05,0
79.853,-5.1194e-05,0
79.854,-2.9709e-05,0
79.854,-6.8818e-06,0
79.855,1.8967e-05,0
79.855,3.8102e-05,0
79.856,4.4816e-05,0
79.856,5.1362e-05,0
79.857,5.7572e-05,0
79.857,5.3376e-05,0
79.858,4.448e-05,0
79.858,4.8005e-05,0
79.859,6.2943e-05,0
79.859,7.5364e-05,0
79.86,7.3014e-05,0
79.86,5.5222e-05,0
79.861,4.0787e-05,0
79.861,4.1962e-05,0
79.862,5.6565e-05,0
79.862,8.51e-05,0
79.863,0.00011514,0
79.863,0.00012337,0
79.864,0.00010054,0
79.864,6.0929e-05,0
79.865,2.6688e-05,0
79.865,1.0239e-05,0
79.866,6.8818e-06,0
79.867,8.2246e-06,0
79.867,1.1582e-05,0
79.868,1.6617e-05,0
79.868,2.3499e-05,0
79.869,2.6184e-05,0
79.869,2.3163e-05,0
79.87,1.5946e-05,0
79.87,3.6927e-06,0
79.871,-7.2175e-06,0
79.871,-1.1246e-05,0
79.872,-1.5946e-05,0
79.872,-2.1317e-05,0
79.873,-2.3667e-05,0
79.873,-1.4099e-05,0
79.874,9.7353e-06,0
79.874,4.1459e-05,0
79.875,6.63e-05,0
79.875,6.8986e-05,0
79.876,5.7572e-05,0
79.876,5.0355e-05,0
79.877,4.9516e-05,0
79.877,6.0594e-05,0
79.878,9.0806e-05,0
79.878,0.00012068,0
79.879,0.00013747,0
79.879,0.00013848,0
79.88,0.0001284,0
79.881,0.0001185,0
79.881,0.00010356,0
79.882,7.1672e-05,0
79.882,2.652e-05,0
79.883,-1.4267e-05,0
79.883,-3.3738e-05,0
79.884,-3.3066e-05,0
79.884,-3.0045e-05,0
79.885,-3.0716e-05,0
79.885,-3.3234e-05,0
79.886,-2.9038e-05,0
79.886,-2.3163e-05,0
79.887,-3.3066e-05,0
79.887,-5.0355e-05,0
79.888,-5.0523e-05,0
79.888,-2.6688e-05,0
79.889,1.4939e-05,0
79.889,5.7572e-05,0
79.89,8.4764e-05,0
79.89,8.8457e-05,0
79.891,7.3686e-05,0
79.891,5.153e-05,0
79.892,2.9709e-05,0
79.892,1.091e-05,0
79.893,-8.3925e-07,0
79.894,6.2104e-06,0
79.894,2.1317e-05,0
79.895,2.266e-05,0
79.895,8.896e-06,0
79.896,-1.1917e-05,0
79.896,-3.1724e-05,0
79.897,-4.3305e-05,0
79.897,-4.2466e-05,0
79.898,-3.0716e-05,0
79.898,-5.7069e-06,0
79.899,1.9974e-05,0
79.899,2.8702e-05,0
79.9,1.7288e-05,0
79.9,-1.0071e-06,0
79.901,-1.3596e-05,0
79.901,-2.1317e-05,0
79.902,-2.3331e-05,0
79.902,-1.8631e-05,0
79.903,-8.5603e-06,0
79.903,4.8676e-06,0
79.904,1.8631e-05,0
79.904,2.6688e-05,0
79.905,4.2802e-05,0
79.905,7.4189e-05,0
79.906,0.00010625,0
79.906,0.00014318,0
79.907,0.00020478,0
79.908,0.00026638,0
79.908,0.00026705,0
79.909,0.00019152,0
79.909,7.6875e-05,0
79.91,-2.8031e-05,0
79.91,-9.9702e-05,0
79.911,-0.00014519,0
79.911,-0.00017708,0
79.912,-0.00020629,0
79.912,-0.00022643,0
79.913,-0.00022089,0
79.913,-0.00019336,0
79.914,-0.00015996,0
79.914,-0.00012454,0
79.915,-8.426e-05,0
79.915,-3.4073e-05,0
79.916,1.796e-05,0
79.916,5.7237e-05,0
79.917,7.4357e-05,0
79.917,7.2007e-05,0
79.918,6.0929e-05,0
79.918,4.7333e-05,0
79.919,2.7024e-05,0
79.919,1.0071e-05,0
79.92,2.8702e-05,0
79.921,8.3757e-05,0
79.921,0.00013075,0
79.922,0.00014083,0
79.922,0.00011901,0
79.923,8.8457e-05,0
79.923,6.5797e-05,0
79.924,5.8915e-05,0
79.924,7.1336e-05,0
79.925,9.6345e-05,0
79.925,0.00012236,0
79.926,0.0001425,0
79.926,0.00017305,0
79.927,0.00021267,0
79.927,0.00021199,0
79.928,0.00015224,0
79.928,0.0001039,0
79.929,9.0303e-05,0
