1.8495,0.00010927,0
1.85,0.00011028,0
1.8505,0.0001133,0
1.8511,0.00011196,0
1.8516,0.00010591,0
1.8521,9.5842e-05,0
1.8526,8.4428e-05,0
1.8531,7.805e-05,0
1.8537,7.7043e-05,0
1.8542,7.2343e-05,0
1.8547,5.6062e-05,0
1.8552,3.9109e-05,0
1.8557,3.3738e-05,0
1.8562,4.4816e-05,0
1.8568,6.8986e-05,0
1.8573,8.3925e-05,0
1.8578,7.6371e-05,0
1.8583,5.2873e-05,0
1.8588,2.6688e-05,0
1.8594,6.2104e-06,0
1.8599,-8.896e-06,0
1.8604,-2.182e-05,0
1.8609,-3.3906e-05,0
1.8614,-4.5487e-05,0
1.862,-5.4215e-05,0
1.8625,-5.2537e-05,0
1.863,-3.3402e-05,0
1.8635,-7.0497e-06,0
1.864,6.5461e-06,0
1.8646,7.5532e-06,0
1.8651,5.7069e-06,0
1.8656,-2.5177e-06,0
1.8661,-1.8967e-05,0
1.8666,-3.0213e-05,0
1.8672,-2.2828e-05,0
1.8677,-8.896e-06,0
1.8682,1.6785e-07,0
1.8687,1.2589e-05,0
1.8692,2.7024e-05,0
1.8698,3.2395e-05,0
1.8703,3.1388e-05,0
1.8708,3.1052e-05,0
1.8713,2.887e-05,0
1.8718,2.5345e-05,0
1.8723,2.6017e-05,0
1.8729,2.4338e-05,0
1.8734,1.3931e-05,0
1.8739,-2.182e-06,0
1.8744,-2.3331e-05,0
1.8749,-4.062e-05,0
1.8755,-3.9109e-05,0
1.876,-2.0981e-05,0
1.8765,-6.8818e-06,0
1.877,-6.0426e-06,0
1.8775,-7.3854e-06,0
1.8781,-8.3925e-07,0
1.8786,1.091e-05,0
1.8791,1.8631e-05,0
1.8796,2.1317e-05,0
1.8801,2.6352e-05,0
1.8807,3.508e-05,0
1.8812,4.8844e-05,0
1.8817,6.7811e-05,0
1.8822,8.896e-05,0
1.8827,9.836e-05,0
1.8833,8.5435e-05,0
1.8838,5.8915e-05,0
1.8843,3.0045e-05,0
1.8848,-1.3428e-06,0
1.8853,-3.3234e-05,0
1.8858,-5.6565e-05,0
1.8864,-6.1097e-05,0
1.8869,-4.5487e-05,0
1.8874,-2.0981e-05,0
1.8879,5.0355e-07,0
1.8884,1.7624e-05,0
1.889,2.6352e-05,0
1.8895,2.3835e-05,0
1.89,3.1556e-05,0
1.8905,6.7308e-05,0
1.891,9.987e-05,0
1.8916,0.00010373,0
1.8921,8.8457e-05,0
1.8926,6.1097e-05,0
1.8931,2.3499e-05,0
1.8936,-1.3931e-05,0
1.8942,-3.7934e-05,0
1.8947,-4.3641e-05,0
1.8952,-2.9038e-05,0
1.8957,-8.3925e-06,0
1.8962,-6.8818e-06,0
1.8967,-2.8367e-05,0
1.8973,-4.8173e-05,0
1.8978,-4.6326e-05,0
1.8983,-2.5681e-05,0
1.8988,-3.0213e-06,0
1.8993,1.2924e-05,0
1.8999,1.7121e-05,0
1.9004,1.5946e-05,0
1.9009,2.1317e-05,0
1.9014,4.4816e-05,0
1.9019,8.1575e-05,0
1.9025,0.00010927,0
1.903,0.00011498,0
1.9035,0.00010692,0
1.904,7.9057e-05,0
1.9045,3.3402e-05,0
1.9051,5.2033e-06,0
1.9056,2.8534e-06,0
1.9061,6.0426e-06,0
1.9066,-2.0142e-06,0
1.9071,-2.7024e-05,0
1.9077,-5.8244e-05,0
1.9082,-7.57e-05,0
1.9087,-6.3951e-05,0
1.9092,-3.7934e-05,0
1.9097,-2.0981e-05,0
1.9103,-2.417e-05,0
1.9108,-4.2634e-05,0
1.9113,-5.7069e-05,0
1.9118,-5.774e-05,0
1.9123,-4.2466e-05,0
1.9128,-1.5778e-05,0
1.9134,7.2175e-06,0
1.9139,2.501e-05,0
1.9144,4.8173e-05,0
1.9149,8.3085e-05,0
1.9154,0.000118,0
1.916,0.00013378,0
1.9165,0.00011733,0
1.917,8.3589e-05,0
1.9175,5.4383e-05,0
1.918,3.6088e-05,0
1.9186,2.4002e-05,0
1.9191,8.5603e-06,0
1.9196,-1.2253e-05,0
1.9201,-2.4338e-05,0
1.9206,-1.2757e-05,0
1.9212,2.7024e-05,0
1.9217,7.8386e-05,0
1.9222,0.00011246,0
1.9227,0.00011716,0
1.9232,9.5842e-05,0
1.9238,6.7979e-05,0
1.9243,4.5151e-05,0
1.9248,2.5681e-05,0
1.9253,4.5319e-06,0
1.9258,-1.3428e-05,0
1.9263,-1.8463e-05,0
1.9269,-1.0575e-05,0
1.9274,2.5177e-06,0
1.9279,5.8747e-06,0
1.9284,-5.8747e-06,0
1.9289,-1.3764e-05,0
1.9295,-2.182e-06,0
1.93,1.9471e-05,0
1.9305,3.3402e-05,0
1.931,3.3402e-05,0
1.9315,2.4674e-05,0
1.9321,1.7288e-05,0
1.9326,2.1988e-05,0
1.9331,3.2059e-05,0
1.9336,2.9877e-05,0
1.9341,2.4002e-05,0
1.9347,3.0045e-05,0
1.9352,4.3809e-05,0
1.9357,5.4551e-05,0
1.9362,5.0858e-05,0
1.9367,4.5151e-05,0
1.9372,6.3783e-05,0
1.9378,9.4835e-05,0
1.9383,9.987e-05,0
1.9388,5.9586e-05,0
1.9393,-4.6998e-06,0
1.9398,-4.7837e-05,0
1.9404,-5.623e-05,0
1.9409,-4.4816e-05,0
1.9414,-3.3738e-05,0
1.9419,-3.4409e-05,0
1.9424,-3.7766e-05,0
1.943,-2.9709e-05,0
1.9435,-9.2317e-06,0
1.944,2.1149e-05,0
1.9445,5.0019e-05,0
1.945,6.5629e-05,0
1.9456,6.4118e-05,0
1.9461,4.8508e-05,0
1.9466,2.7863e-05,0
1.9471,1.2924e-05,0
1.9476,7.2175e-06,0
1.9482,1.1749e-06,0
1.9487,-5.0355e-07,0
1.9492,2.1988e-05,0
1.9497,5.4887e-05,0
1.9502,6.1936e-05,0
1.9507,4.062e-05,0
1.9513,1.3931e-05,0
1.9518,7.0497e-06,0
1.9523,2.2492e-05,0
1.9528,4.8508e-05,0
1.9533,6.949e-05,0
1.9539,7.7714e-05,0
1.9544,6.9657e-05,0
1.9549,5.1865e-05,0
1.9554,3.4745e-05,0
1.9559,1.9638e-05,0
1.9565,-2.182e-06,0
1.957,-3.0716e-05,0
1.9575,-5.1194e-05,0
1.958,-4.8508e-05,0
1.9585,-3.0045e-05,0
1.9591,-1.4939e-05,0
1.9596,-8.2246e-06,0
1.9601,1.1749e-06,0
1.9606,2.7863e-05,0
1.9611,7.1e-05,0
1.9617,9.7856e-05,0
1.9622,8.3757e-05,0
1.9627,4.1794e-05,0
1.9632,-5.539e-06,0
1.9637,-4.6494e-05,0
1.9643,-7.7714e-05,0
1.9648,-9.2821e-05,0
1.9653,-8.9799e-05,0
1.9658,-7.1336e-05,0
1.9663,-4.4648e-05,0
1.9668,-1.9974e-05,0
1.9674,-4.8676e-06,0
1.9679,1.1749e-06,0
1.9684,1.1078e-05,0
1.9689,3.2059e-05,0
1.9694,5.4383e-05,0
1.97,6.4286e-05,0
1.9705,6.009e-05,0
1.971,4.3641e-05,0
1.9715,3.0381e-05,0
1.972,3.5248e-05,0
1.9726,4.9516e-05,0
1.9731,5.4383e-05,0
1.9736,4.683e-05,0
1.9741,4.1794e-05,0
1.9746,4.9683e-05,0
1.9752,5.7908e-05,0
1.9757,4.683e-05,0
1.9762,2.3331e-05,0
1.9767,9.5674e-06,0
1.9772,1.6281e-05,0
1.9777,3.0045e-05,0
1.9783,3.743e-05,0
1.9788,3.743e-05,0
1.9793,2.8534e-05,0
1.9798,1.2253e-05,0
1.9803,-9.0639e-06,0
1.9809,-2.1149e-05,0
1.9814,-1.2253e-05,0
1.9819,-5.0355e-07,0
1.9824,1.6785e-06,0
1.9829,-8.3925e-07,0
1.9835,-5.539e-06,0
1.984,-9.5674e-06,0
1.9845,-5.0355e-07,0
1.985,2.5849e-05,0
1.9855,6.0929e-05,0
1.9861,8.7785e-05,0
1.9866,9.1814e-05,0
1.9871,7.9728e-05,0
1.9876,7.1504e-05,0
1.9881,6.8315e-05,0
1.9887,5.7908e-05,0
1.9892,4.0116e-05,0
1.9897,2.1317e-05,0
1.9902,3.8605e-06,0
1.9907,-1.1917e-05,0
1.9912,-2.2492e-05,0
1.9918,-2.9038e-05,0
1.9923,-3.592e-05,0
1.9928,-4.3809e-05,0
1.9933,-4.3809e-05,0
1.9938,-3.2059e-05,0
1.9944,-1.2253e-05,0
1.9949,8.7282e-06,0
1.9954,2.4338e-05,0
1.9959,3.827e-05,0
1.9964,5.1194e-05,0
1.997,5.6901e-05,0
1.9975,5.5558e-05,0
1.998,5.153e-05,0
1.9985,4.7837e-05,0
1.999,4.8508e-05,0
1.9996,5.0858e-05,0
2.0001,4.8676e-05,0
2.0006,4.918e-05,0
2.0011,5.8579e-05,0
2.0016,6.8986e-05,0
2.0022,7.1e-05,0
2.0027,5.5726e-05,0
2.0032,2.8702e-05,0
2.0037,1.1749e-05,0
2.0042,2.7527e-05,0
2.0048,7.5029e-05,0
2.0053,0.00011095,0
2.0058,9.7856e-05,0
2.0063,4.2802e-05,0
2.0068,-1.6617e-05,0
2.0073,-5.5726e-05,0
2.0079,-7.7379e-05,0
2.0084,-8.7617e-05,0
2.0089,-9.0974e-05,0
2.0094,-9.5506e-05,0
2.0099,-9.6178e-05,0
2.0105,-8.0735e-05,0
2.011,-5.3208e-05,0
2.0115,-2.7359e-05,0
2.012,1.6785e-07,0
2.0125,4.1459e-05,0
2.0131,8.7114e-05,0
2.0136,0.00011028,0
2.0141,0.00010457,0
2.0146,8.6442e-05,0
2.0151,6.7308e-05,0
2.0157,5.0019e-05,0
2.0162,4.8844e-05,0
2.0167,7.3686e-05,0
2.0172,0.00010759,0
2.0177,0.00011649,0
2.0183,9.1814e-05,0
2.0188,4.683e-05,0
2.0193,-3.6927e-06,0
2.0198,-5.0858e-05,0
2.0203,-8.0568e-05,0
2.0208,-8.4932e-05,0
2.0214,-8.1743e-05,0
2.0219,-9.0974e-05,0
2.0224,-0.00011347,0
2.0229,-0.00012169,0
2.0234,-9.8863e-05,0
2.024,-6.2272e-05,0
2.0245,-2.9374e-05,0
2.025,-2.182e-06,0
2.0255,2.1317e-05,0
2.026,3.7263e-05,0
2.0266,4.448e-05,0
2.0271,3.978e-05,0
2.0276,2.0478e-05,0
2.0281,5.0355e-07,0
2.0286,2.0142e-06,0
2.0292,2.4674e-05,0
2.0297,4.683e-05,0
2.0302,5.5894e-05,0
2.0307,5.388e-05,0
2.0312,4.5487e-05,0
2.0318,4.1962e-05,0
2.0323,5.5726e-05,0
2.0328,7.8218e-05,0
2.0333,9.6513e-05,0
2.0338,0.00011968,0
2.0343,0.00015056,0
2.0349,0.00017339,0
2.0354,0.00017272,0
2.0359,0.00015023,0
2.0364,0.00012001,0
2.0369,8.3085e-05,0
2.0375,3.2395e-05,0
2.038,-2.3331e-05,0
2.0385,-5.4719e-05,0
2.039,-6.009e-05,0
2.0395,-7.0161e-05,0
2.0401,-9.9702e-05,0
2.0406,-0.00012303,0
2.0411,-0.00011598,0
2.0416,-9.1478e-05,0
2.0421,-7.3014e-05,0
2.0427,-6.5629e-05,0
2.0432,-5.3544e-05,0
2.0437,-2.6688e-05,0
2.0442,-1.0071e-06,0
2.0447,5.8747e-06,0
2.0452,4.5319e-06,0
2.0458,5.0355e-06,0
2.0463,1.0239e-05,0
2.0468,1.7288e-05,0
2.0473,2.2324e-05,0
2.0478,2.5345e-05,0
2.0484,3.0716e-05,0
2.0489,3.827e-05,0
2.0494,4.4816e-05,0
2.0499,4.9851e-05,0
2.0504,5.304e-05,0
2.051,5.2369e-05,0
2.0515,4.8173e-05,0
2.052,4.6159e-05,0
2.0525,5.4551e-05,0
2.053,7.6875e-05,0
2.0536,0.00010054,0
2.0541,0.0001086,0
2.0546,9.601e-05,0
2.0551,7.4861e-05,0
2.0556,5.6901e-05,0
2.0562,4.5823e-05,0
2.0567,4.8005e-05,0
2.0572,6.3783e-05,0
2.0577,7.4693e-05,0
2.0582,7.3182e-05,0
2.0587,6.7979e-05,0
2.0593,6.2608e-05,0
2.0598,5.3544e-05,0
2.0603,4.213e-05,0
2.0608,3.3402e-05,0
2.0613,2.3667e-05,0
2.0619,8.3925e-06,0
2.0624,-3.5248e-06,0
2.0629,-1.091e-05,0
2.0634,-2.1988e-05,0
2.0639,-2.1988e-05,0
2.0645,-8.896e-06,0
2.065,7.0497e-06,0
2.0655,2.3331e-05,0
2.066,4.2466e-05,0
2.0665,5.2201e-05,0
2.0671,4.0116e-05,0
2.0676,1.3931e-05,0
2.0681,-1.0239e-05,0
2.0686,-2.417e-05,0
2.0691,-3.0884e-05,0
2.0697,-4.1962e-05,0
2.0702,-5.7069e-05,0
2.0707,-5.9251e-05,0
2.0712,-4.7166e-05,0
2.0717,-3.6423e-05,0
2.0722,-3.1052e-05,0
2.0728,-2.3667e-05,0
2.0733,-1.091e-05,0
2.0738,2.5177e-06,0
2.0743,1.326e-05,0
2.0748,2.1317e-05,0
2.0754,2.4842e-05,0
2.0759,2.266e-05,0
2.0764,1.8631e-05,0
2.0769,1.5106e-05,0
2.0774,1.4603e-05,0
2.078,1.8967e-05,0
2.0785,2.3835e-05,0
2.079,2.4842e-05,0
2.0795,2.6688e-05,0
2.08,3.0213e-05,0
2.0806,3.2059e-05,0
2.0811,3.0716e-05,0
2.0816,3.4745e-05,0
2.0821,5.1194e-05,0
2.0826,6.8986e-05,0
2.0832,7.3686e-05,0
2.0837,6.7475e-05,0
2.0842,5.7404e-05,0
2.0847,4.1459e-05,0
2.0852,2.5681e-05,0
2.0857,2.0981e-05,0
2.0863,2.5345e-05,0
2.0868,2.4674e-05,0
2.0873,1.1078e-05,0
2.0878,0,0
2.0883,5.3712e-06,0
2.0889,2.0645e-05,0
2.0894,3.1891e-05,0
2.0899,2.8367e-05,0
2.0904,1.796e-05,0
2.0909,1.4099e-05,0
2.0915,1.3764e-05,0
2.092,1.8631e-05,0
2.0925,2.7359e-05,0
2.093,3.6759e-05,0
2.0935,4.9851e-05,0
2.0941,5.6062e-05,0
2.0946,4.6494e-05,0
2.0951,2.501e-05,0
2.0956,5.539e-06,0
2.0961,3.5248e-06,0
2.0967,1.9135e-05,0
2.0972,3.0716e-05,0
2.0977,2.266e-05,0
2.0982,4.6998e-06,0
2.0987,-8.896e-06,0
2.0993,-5.539e-06,0
2.0998,1.2421e-05,0
2.1003,2.1317e-05,0
2.1008,1.7288e-05,0
2.1013,1.5946e-05,0
2.1018,4.213e-05,0
2.1024,9.6178e-05,0
2.1029,0.00013075,0
2.1034,0.00010826,0
2.1039,4.5487e-05,0
2.1044,-2.6352e-05,0
2.105,-7.335e-05,0
2.1055,-7.6875e-05,0
2.106,-6.1601e-05,0
2.1065,-5.8579e-05,0
2.107,-7.9393e-05,0
2.1076,-0.00010188,0
2.1081,-9.8527e-05,0
2.1086,-6.5965e-05,0
2.1091,-2.1653e-05,0
2.1096,1.7288e-05,0
2.1102,3.8773e-05,0
2.1107,4.0116e-05,0
2.1112,3.0549e-05,0
2.1117,1.5946e-05,0
2.1122,2.5177e-06,0
2.1128,-6.2104e-06,0
2.1133,-1.5946e-05,0
2.1138,-3.1891e-05,0
2.1143,-5.2705e-05,0
2.1148,-6.0761e-05,0
2.1153,-3.508e-05,0
2.1159,1.5778e-05,0
2.1164,6.8818e-05,0
2.1169,0.00010726,0
2.1174,0.00012001,0
2.1179,0.00010524,0
2.1185,7.2847e-05,0
2.119,4.0284e-05,0
2.1195,1.9638e-05,0
2.12,1.0575e-05,0
2.1205,1.9471e-05,0
2.1211,4.2802e-05,0
2.1216,6.2608e-05,0
2.1221,6.4118e-05,0
2.1226,4.6494e-05,0
2.1231,1.7288e-05,0
2.1237,-8.2246e-06,0
2.1242,-1.5946e-05,0
2.1247,-1.5274e-05,0
2.1252,-1.9638e-05,0
2.1257,-2.0142e-05,0
2.1263,-1.5274e-05,0
2.1268,-1.4939e-05,0
2.1273,-1.9135e-05,0
2.1278,-1.3596e-05,0
2.1283,2.5177e-06,0
2.1288,1.0239e-05,0
2.1294,8.7282e-06,0
2.1299,1.8967e-05,0
2.1304,4.5151e-05,0
2.1309,6.4286e-05,0
2.1314,6.4622e-05,0
2.132,5.623e-05,0
2.1325,5.8915e-05,0
2.133,8.6107e-05,0
2.1335,0.00011548,0
2.134,0.00011565,0
2.1346,8.8792e-05,0
2.1351,4.7333e-05,0
2.1356,1.1246e-05,0
2.1361,-1.1078e-05,0
2.1366,-2.501e-05,0
2.1372,-3.0716e-05,0
2.1377,-3.2395e-05,0
2.1382,-2.9374e-05,0
2.1387,-1.7288e-05,0
2.1392,1.0071e-06,0
2.1397,2.3163e-05,0
2.1403,4.7166e-05,0
2.1408,6.2272e-05,0
2.1413,7.57e-05,0
2.1418,0.00011263,0
2.1423,0.00018346,0
2.1429,0.00025614,0
2.1434,0.00028417,0
2.1439,0.00025362,0
2.1444,0.00018917,0
2.1449,0.00010457,0
2.1455,3.1891e-06,0
2.146,-9.0303e-05,0
2.1465,-0.00015727,0
2.147,-0.00019219,0
2.1475,-0.00017809,0
2.1481,-0.00012824,0
2.1486,-7.7714e-05,0
2.1491,-3.827e-05,0
2.1496,-1.0407e-05,0
2.1501,4.5319e-06,0
2.1507,1.1749e-06,0
2.1512,-1.8296e-05,0
2.1517,-4.3137e-05,0
2.1522,-5.5558e-05,0
2.1527,-4.8844e-05,0
2.1532,-4.1459e-05,0
2.1538,-2.7527e-05,0
2.1543,3.1891e-06,0
2.1548,2.5681e-05,0
2.1553,2.1988e-05,0
2.1558,9.9031e-06,0
2.1564,-3.8605e-06,0
2.1569,-2.4674e-05,0
2.1574,-5.4047e-05,0
2.1579,-8.5771e-05,0
2.1584,-0.0001086,0
2.159,-9.5842e-05,0
2.1595,-5.6565e-05,0
2.16,-2.8031e-05,0
2.1605,-1.8967e-05,0
2.161,-1.6281e-05,0
2.1616,-9.0639e-06,0
2.1621,2.0142e-06,0
2.1626,1.2085e-05,0
2.1631,6.3783e-06,0
2.1636,-1.8296e-05,0
2.1642,-3.7263e-05,0
2.1647,-2.7695e-05,0
2.1652,2.182e-06,0
2.1657,3.1556e-05,0
2.1662,5.539e-05,0
2.1667,7.4357e-05,0
2.1673,9.3156e-05,0
2.1678,0.00011028,0
2.1683,0.00011934,0
2.1688,0.00012001,0
2.1693,0.00011598,0
2.1699,0.00011061,0
2.1704,9.836e-05,0
2.1709,7.8386e-05,0
2.1714,5.3544e-05,0
2.1719,3.6759e-05,0
2.1725,3.4073e-05,0
2.173,4.213e-05,0
2.1735,5.5222e-05,0
2.174,6.3615e-05,0
2.1745,5.8076e-05,0
2.1751,4.5151e-05,0
2.1756,3.6927e-05,0
2.1761,3.9445e-05,0
2.1766,4.8508e-05,0
2.1771,5.6901e-05,0
2.1777,5.8915e-05,0
2.1782,5.9251e-05,0
2.1787,6.4286e-05,0
2.1792,7.1e-05,0
2.1797,7.3014e-05,0
2.1803,6.8986e-05,0
2.1808,5.7404e-05,0
2.1813,4.3473e-05,0
2.1818,3.357e-05,0
2.1823,2.8031e-05,0
2.1828,1.9974e-05,0
2.1834,1.0407e-05,0
2.1839,1.6281e-05,0
2.1844,4.2802e-05,0
2.1849,7.2343e-05,0
2.1854,8.7449e-05,0
2.186,7.9561e-05,0
2.1865,6.3279e-05,0
2.187,4.9516e-05,0
2.1875,3.4745e-05,0
2.188,2.031e-05,0
2.1886,1.1582e-05,0
2.1891,1.0071e-05,0
2.1896,7.2175e-06,0
2.1901,6.8818e-06,0
2.1906,1.8631e-05,0
2.1912,4.2298e-05,0
2.1917,6.8315e-05,0
2.1922,7.7714e-05,0
2.1927,6.4622e-05,0
2.1932,3.3402e-05,0
2.1938,-1.0575e-05,0
2.1943,-5.3544e-05,0
2.1948,-6.7308e-05,0
2.1953,-4.7837e-05,0
2.1958,-2.4506e-05,0
2.1963,-1.4939e-05,0
2.1969,-1.1582e-05,0
2.1974,-5.8747e-06,0
2.1979,-1.8463e-06,0
2.1984,-5.2033e-06,0
2.1989,-1.8296e-05,0
2.1995,-4.3809e-05,0
2.2,-7.0832e-05,0
2.2005,-8.191e-05,0
2.201,-7.8721e-05,0
2.2015,-7.9728e-05,0
2.2021,-8.7449e-05,0
2.2026,-9.0639e-05,0
2.2031,-8.7449e-05,0
2.2036,-7.8553e-05,0
2.2041,-5.6062e-05,0
2.2047,-2.0981e-05,0
2.2052,1.1749e-05,0
2.2057,3.592e-05,0
2.2062,5.4887e-05,0
2.2067,6.4958e-05,0
2.2073,6.2272e-05,0
2.2078,5.4887e-05,0
2.2083,4.5487e-05,0
2.2088,3.4241e-05,0
2.2093,2.182e-05,0
2.2098,9.9031e-06,0
2.2104,6.714e-07,0
2.2109,2.8534e-06,0
2.2114,2.7863e-05,0
2.2119,5.8076e-05,0
2.2124,7.6204e-05,0
2.213,7.6371e-05,0
2.2135,5.9251e-05,0
2.214,3.4409e-05,0
2.2145,1.7624e-05,0
2.215,1.1246e-05,0
2.2156,3.357e-06,0
2.2161,-1.3428e-06,0
2.2166,7.2175e-06,0
2.2171,2.8031e-05,0
2.2176,5.6733e-05,0
2.2182,8.4428e-05,0
2.2187,0.00010726,0
2.2192,0.0001227,0
2.2197,0.00011598,0
2.2202,7.1839e-05,0
2.2207,1.3596e-05,0
2.2213,-2.6352e-05,0
2.2218,-4.1794e-05,0
2.2223,-4.5487e-05,0
2.2228,-3.9109e-05,0
2.2233,-2.4002e-05,0
2.2239,-1.3764e-05,0
2.2244,-1.5778e-05,0
2.2249,-2.182e-05,0
2.2254,-2.2828e-05,0
2.2259,-6.8818e-06,0
2.2265,1.9974e-05,0
2.227,4.0116e-05,0
2.2275,4.5487e-05,0
2.228,4.213e-05,0
2.2285,4.7333e-05,0
2.2291,7.3014e-05,0
2.2296,0.00010021,0
2.2301,8.8457e-05,0
2.2306,4.5487e-05,0
2.2311,9.2317e-06,0
2.2317,-9.5674e-06,0
2.2322,-2.1653e-05,0
2.2327,-2.501e-05,0
2.2332,-1.796e-05,0
2.2337,-1.5274e-05,0
2.2342,-1.9303e-05,0
2.2348,-2.266e-05,0
2.2353,-1.9638e-05,0
2.2358,-1.561e-05,0
2.2363,-1.1917e-05,0
2.2368,-3.0213e-06,0
2.2374,1.4435e-05,0
2.2379,3.2731e-05,0
2.2384,4.9851e-05,0
2.2389,6.6468e-05,0
2.2394,7.4525e-05,0
2.24,7.7714e-05,0
2.2405,9.0806e-05,0
2.241,0.0001227,0
2.2415,0.00015006,0
2.242,0.0001519,0
2.2426,0.00013629,0
2.2431,0.00011263,0
2.2436,7.6036e-05,0
2.2441,2.4338e-05,0
2.2446,-2.2156e-05,0
2.2452,-4.8508e-05,0
2.2457,-6.949e-05,0
2.2462,-9.9702e-05,0
2.2467,-0.00012119,0
2.2472,-0.00010961,0
2.2477,-5.9419e-05,0
2.2483,2.5177e-06,0
2.2488,4.3473e-05,0
2.2493,6.0594e-05,0
2.2498,9.3828e-05,0
2.2503,0.00016701,0
2.2509,0.00023146,0
2.2514,0.00022374,0
2.2519,0.00014116,0
2.2524,3.0716e-05,0
2.2529,-5.388e-05,0
2.2535,-9.0806e-05,0
2.254,-0.0001086,0
2.2545,-0.00013378,0
2.255,-0.00015644,0
2.2555,-0.00016852,0
2.2561,-0.0001707,0
2.2566,-0.00015509,0
2.2571,-0.00010625,0
2.2576,-2.9541e-05,0
2.2581,3.5416e-05,0
2.2587,5.3208e-05,0
2.2592,2.8702e-05,0
2.2597,-3.8605e-06,0
2.2602,-1.8296e-05,0
2.2607,-5.8747e-06,0
2.2612,1.7288e-05,0
2.2618,3.0716e-05,0
2.2623,3.3066e-05,0
2.2628,3.3906e-05,0
2.2633,3.5248e-05,0
2.2638,3.6591e-05,0
2.2644,4.7501e-05,0
2.2649,6.0426e-05,0
2.2654,5.1026e-05,0
2.2659,3.0381e-05,0
2.2664,2.6688e-05,0
2.267,3.743e-05,0
2.2675,4.683e-05,0
2.268,5.4719e-05,0
2.2685,6.2272e-05,0
2.269,6.5629e-05,0
2.2696,6.2943e-05,0
2.2701,4.1794e-05,0
2.2706,6.3783e-06,0
2.2711,-1.2589e-05,0
2.2716,-2.5177e-06,0
2.2722,1.326e-05,0
2.2727,2.4002e-05,0
2.2732,3.3738e-05,0
2.2737,4.2634e-05,0
2.2742,3.6759e-05,0
2.2748,1.4939e-05,0
2.2753,-6.8818e-06,0
2.2758,-1.8631e-05,0
2.2763,-1.5274e-05,0
2.2768,2.5177e-06,0
2.2773,2.8702e-05,0
2.2779,5.2873e-05,0
2.2784,6.4286e-05,0
2.2789,5.8915e-05,0
2.2794,3.9445e-05,0
2.2799,1.9974e-05,0
2.2805,1.3092e-05,0
2.281,1.326e-05,0
2.2815,9.9031e-06,0
2.282,7.0497e-06,0
2.2825,3.8605e-06,0
2.2831,-7.8889e-06,0
2.2836,-2.4338e-05,0
2.2841,-2.9038e-05,0
2.2846,-1.5778e-05,0
2.2851,7.7211e-06,0
2.2857,3.6088e-05,0
2.2862,7.3854e-05,0
2.2867,0.00011028,0
2.2872,0.00012337,0
2.2877,0.0001133,0
2.2883,0.0001086,0
2.2888,0.00012605,0
2.2893,0.00017037,0
2.2898,0.0002177,0
2.2903,0.0002224,0
2.2908,0.00016869,0
2.2914,8.3757e-05,0
2.2919,6.3783e-06,0
2.2924,-4.8005e-05,0
2.2929,-9.2821e-05,0
2.2934,-0.00013982,0
2.294,-0.00017272,0
2.2945,-0.00016986,0
2.295,-0.00014435,0
2.2955,-0.00011901,0
2.296,-9.6849e-05,0
2.2966,-7.3686e-05,0
2.2971,-5.0019e-05,0
2.2976,-2.8534e-05,0
2.2981,-1.1582e-05,0
2.2986,3.8605e-06,0
2.2992,1.9471e-05,0
2.2997,3.4745e-05,0
2.3002,5.2201e-05,0
2.3007,6.8147e-05,0
2.3012,7.4022e-05,0
2.3018,6.8315e-05,0
2.3023,5.3376e-05,0
2.3028,3.743e-05,0
2.3033,3.0716e-05,0
2.3038,4.3137e-05,0
2.3043,7.0497e-05,0
2.3049,9.5842e-05,0
2.3054,9.9199e-05,0
2.3059,7.7714e-05,0
2.3064,5.2537e-05,0
2.3069,4.4816e-05,0
2.3075,5.2201e-05,0
2.308,6.1433e-05,0
2.3085,6.9322e-05,0
2.309,6.8986e-05,0
2.3095,4.9516e-05,0
2.3101,3.2898e-05,0
2.3106,5.4551e-05,0
2.3111,0.00010356,0
2.3116,0.00014788,0
2.3121,0.0001519,0
2.3127,0.0001039,0
2.3132,2.4506e-05,0
2.3137,-6.7308e-05,0
2.3142,-0.00014536,0
2.3147,-0.00017188,0
2.3152,-0.0001509,0
2.3158,-0.00013361,0
2.3163,-0.00014838,0
2.3168,-0.00015425,0
2.3173,-0.00011514,0
2.3178,-6.1097e-05,0
2.3184,-2.3499e-05,0
2.3189,-1.1078e-05,0
2.3194,-1.2421e-05,0
2.3199,-1.3931e-05,0
2.3204,-9.5674e-06,0
2.321,-7.2175e-06,0
2.3215,-9.3996e-06,0
2.322,-1.0071e-05,0
2.3225,-6.8818e-06,0
2.323,-2.3499e-06,0
2.3236,0,0
2.3241,4.8676e-06,0
2.3246,2.0645e-05,0
2.3251,4.7333e-05,0
2.3256,7.4693e-05,0
2.3262,9.3492e-05,0
2.3267,0.00010272,0
2.3272,0.00010574,0
2.3277,0.00010306,0
2.3282,9.7353e-05,0
2.3287,0.00010004,0
2.3293,0.0001044,0
2.3298,0.00010188,0
2.3303,0.0001039,0
2.3308,0.00011531,0
2.3313,0.00011447,0
2.3319,8.5771e-05,0
2.3324,4.9012e-05,0
2.3329,2.8534e-05,0
2.3334,2.1317e-05,0
2.3339,5.2033e-06,0
2.3345,-1.9135e-05,0
2.335,-3.7766e-05,0
2.3355,-4.9851e-05,0
2.336,-5.5558e-05,0
2.3365,-4.8508e-05,0
2.3371,-4.0116e-05,0
2.3376,-3.508e-05,0
2.3381,-2.9877e-05,0
2.3386,-2.5681e-05,0
2.3391,-2.501e-05,0
2.3397,-2.3163e-05,0
2.3402,-2.1149e-05,0
2.3407,-2.1149e-05,0
2.3412,-2.1653e-05,0
2.3417,-1.8296e-05,0
2.3422,-3.5248e-06,0
2.3428,1.7121e-05,0
2.3433,3.4409e-05,0
2.3438,4.2466e-05,0
2.3443,3.8437e-05,0
2.3448,2.8534e-05,0
2.3454,2.4338e-05,0
2.3459,2.8367e-05,0
2.3464,3.3402e-05,0
2.3469,3.743e-05,0
2.3474,3.9445e-05,0
2.348,3.6423e-05,0
2.3485,3.2059e-05,0
2.349,3.1891e-05,0
2.3495,3.4577e-05,0
2.35,3.7095e-05,0
2.3506,3.6088e-05,0
2.3511,3.1891e-05,0
2.3516,2.7359e-05,0
2.3521,3.5416e-05,0
2.3526,6.4958e-05,0
2.3532,9.4331e-05,0
2.3537,0.00011128,0
2.3542,0.0001185,0
2.3547,0.00011162,0
2.3552,0.00010457,0
2.3558,0.00011783,0
2.3563,0.00012656,0
2.3568,0.00010524,0
2.3573,5.8244e-05,0
2.3578,2.0813e-05,0
2.3583,1.9135e-05,0
2.3589,2.9374e-05,0
2.3594,1.7288e-05,0
2.3599,-2.1149e-05,0
2.3604,-5.6565e-05,0
2.3609,-6.5965e-05,0
2.3615,-5.4719e-05,0
2.362,-2.4338e-05,0
2.3625,2.0645e-05,0
2.363,5.2201e-05,0
2.3635,5.0858e-05,0
2.3641,2.3499e-05,0
2.3646,-1.0239e-05,0
2.3651,-4.0787e-05,0
2.3656,-7.2847e-05,0
2.3661,-0.00011649,0
2.3667,-0.00016164,0
2.3672,-0.00018195,0
2.3677,-0.00015274,0
2.3682,-9.0639e-05,0
2.3687,-3.508e-05,0
2.3693,7.8889e-06,0
2.3698,3.4577e-05,0
2.3703,3.3402e-05,0
2.3708,2.4338e-05,0
2.3713,2.6017e-05,0
2.3718,4.1123e-05,0
2.3724,7.4189e-05,0
2.3729,0.00012337,0
2.3734,0.00016936,0
2.3739,0.00019051,0
2.3744,0.00018379,0
2.375,0.00015727,0
2.3755,0.000118,0
2.376,6.8315e-05,0
2.3765,9.2317e-06,0
2.377,-3.4073e-05,0
2.3776,-3.4073e-05,0
2.3781,-1.4267e-05,0
2.3786,-2.6017e-05,0
2.3791,-6.9154e-05,0
2.3796,-0.00011296,0
2.3802,-0.00013562,0
2.3807,-0.00013109,0
2.3812,-0.00011263,0
2.3817,-9.601e-05,0
2.3822,-7.6036e-05,0
2.3828,-4.1291e-05,0
2.3833,-4.1962e-06,0
2.3838,1.3596e-05,0
2.3843,1.326e-05,0
2.3848,7.2175e-06,0
2.3853,-1.5106e-06,0
2.3859,-1.7624e-05,0
2.3864,-2.5849e-05,0
2.3869,-5.7069e-06,0
2.3874,3.2731e-05,0
2.3879,6.7308e-05,0
2.3885,8.6442e-05,0
2.389,9.2485e-05,0
2.3895,0.00010004,0
2.39,0.000118,0
2.3905,0.00013613,0
2.3911,0.00013982,0
2.3916,0.00012706,0
2.3921,0.00010491,0
2.3926,7.6707e-05,0
2.3931,4.6494e-05,0
2.3937,2.031e-05,0
2.3942,2.5177e-06,0
2.3947,-6.8818e-06,0
2.3952,-1.5946e-05,0
2.3957,-2.266e-05,0
2.3963,-1.7792e-05,0
2.3968,-5.7069e-06,0
2.3973,2.182e-06,0
2.3978,5.8747e-06,0
2.3983,1.0407e-05,0
2.3988,1.5778e-05,0
2.3994,1.2253e-05,0
2.3999,5.0355e-07,0
2.4004,-2.5177e-06,0
2.4009,1.1917e-05,0
2.4014,4.213e-05,0
2.402,8.426e-05,0
2.4025,0.00013042,0
2.403,0.00015291,0
2.4035,0.00014351,0
2.404,0.00011531,0
2.4046,8.2414e-05,0
2.4051,4.9851e-05,0
2.4056,1.796e-05,0
2.4061,-1.5274e-05,0
2.4066,-4.1123e-05,0
2.4072,-4.683e-05,0
2.4077,-3.8605e-05,0
2.4082,-3.4073e-05,0
2.4087,-4.3473e-05,0
2.4092,-4.683e-05,0
2.4097,-2.7359e-05,0
2.4103,-2.0142e-06,0
2.4108,1.3428e-05,0
2.4113,2.2324e-05,0
2.4118,2.8367e-05,0
2.4123,3.6088e-05,0
2.4129,4.5319e-05,0
2.4134,5.1865e-05,0
2.4139,4.7333e-05,0
2.4144,3.0381e-05,0
2.4149,1.2924e-05,0
2.4155,4.8676e-06,0
2.416,9.9031e-06,0
2.4165,3.0045e-05,0
2.417,5.3208e-05,0
2.4175,6.1936e-05,0
2.4181,6.4118e-05,0
2.4186,8.1407e-05,0
2.4191,0.00010826,0
2.4196,0.00012303,0
2.4201,0.00012102,0
2.4207,0.00010893,0
2.4212,9.0639e-05,0
2.4217,6.5629e-05,0
2.4222,3.0716e-05,0
2.4227,-1.3764e-05,0
2.4232,-5.6062e-05,0
2.4238,-9.3156e-05,0
2.4243,-0.00012287,0
2.4248,-0.00013445,0
2.4253,-0.00012488,0
2.4258,-0.00010793,0
2.4264,-9.366e-05,0
2.4269,-8.0735e-05,0
2.4274,-5.1865e-05,0
2.4279,3.6927e-06,0
2.4284,7.5364e-05,0
2.429,0.00013596,0
2.4295,0.00016617,0
2.43,0.00016634,0
2.4305,0.00013747,0
2.431,8.9632e-05,0
2.4316,3.3402e-05,0
2.4321,-2.5177e-05,0
2.4326,-8.426e-05,0
2.4331,-0.00013445,0
2.4336,-0.00015929,0
2.4342,-0.0001514,0
2.4347,-0.00012287,0
2.4352,-9.366e-05,0
2.4357,-6.4958e-05,0
2.4362,-3.2563e-05,0
2.4367,-1.3428e-06,0
2.4373,2.5345e-05,0
2.4378,3.743e-05,0
2.4383,2.5681e-05,0
2.4388,6.2104e-06,0
2.4393,1.1749e-05,0
2.4399,4.3137e-05,0
2.4404,7.5532e-05,0
2.4409,8.9464e-05,0
2.4414,8.51e-05,0
2.4419,7.1336e-05,0
2.4425,5.2201e-05,0
2.443,4.1459e-05,0
2.4435,4.8173e-05,0
2.444,6.1265e-05,0
2.4445,7.0329e-05,0
2.4451,7.2007e-05,0
2.4456,5.4887e-05,0
2.4461,2.9038e-05,0
2.4466,2.1317e-05,0
2.4471,4.0787e-05,0
2.4477,6.009e-05,0
2.4482,5.0858e-05,0
2.4487,1.6281e-05,0
2.4492,-1.2421e-05,0
2.4497,-1.7624e-05,0
2.4503,-1.326e-05,0
2.4508,-1.6617e-05,0
2.4513,-1.561e-05,0
2.4518,2.8534e-06,0
2.4523,2.266e-05,0
2.4528,3.0716e-05,0
2.4534,3.2898e-05,0
2.4539,3.5584e-05,0
2.4544,3.7766e-05,0
2.4549,3.7263e-05,0
2.4554,3.7095e-05,0
2.456,3.6423e-05,0
2.4565,3.2059e-05,0
2.457,2.4674e-05,0
2.4575,1.796e-05,0
2.458,2.266e-05,0
2.4586,4.213e-05,0
2.4591,5.5222e-05,0
2.4596,4.8844e-05,0
2.4601,3.743e-05,0
2.4606,3.3402e-05,0
2.4612,3.6423e-05,0
2.4617,3.978e-05,0
2.4622,4.3305e-05,0
2.4627,4.1459e-05,0
2.4632,2.5513e-05,0
2.4638,1.5106e-06,0
2.4643,-8.896e-06,0
2.4648,7.7211e-06,0
2.4653,3.1052e-05,0
2.4658,4.0452e-05,0
2.4663,3.8773e-05,0
2.4669,2.8367e-05,0
2.4674,9.3996e-06,0
2.4679,-1.0239e-05,0
2.4684,-2.1317e-05,0
2.4689,-2.8367e-05,0
2.4695,-3.7934e-05,0
2.47,-4.5823e-05,0
2.4705,-4.4312e-05,0
2.471,-3.3066e-05,0
2.4715,-1.6281e-05,0
2.4721,3.1891e-06,0
2.4726,3.7766e-05,0
2.4731,8.5771e-05,0
2.4736,0.00012337,0
2.4741,0.00014418,0
2.4747,0.00014905,0
2.4752,0.00013143,0
2.4757,9.0974e-05,0
2.4762,3.8102e-05,0
2.4767,0,0
2.4773,-4.0284e-06,0
2.4778,1.2589e-05,0
2.4783,2.0645e-05,0
2.4788,5.8747e-06,0
2.4793,-2.501e-05,0
2.4798,-5.2201e-05,0
2.4804,-6.3111e-05,0
2.4809,-6.2272e-05,0
2.4814,-5.5726e-05,0
2.4819,-4.7837e-05,0
2.4824,-3.3738e-05,0
2.483,-1.4603e-05,0
2.4835,1.0071e-06,0
2.484,8.5603e-06,0
2.4845,1.1917e-05,0
2.485,1.2924e-05,0
2.4856,8.5603e-06,0
2.4861,6.8818e-06,0
2.4866,1.1414e-05,0
2.4871,2.1317e-05,0
2.4876,3.4577e-05,0
2.4882,4.683e-05,0
2.4887,6.2104e-05,0
2.4892,7.9057e-05,0
2.4897,8.3085e-05,0
2.4902,6.5965e-05,0
2.4907,5.2033e-05,0
2.4913,5.8076e-05,0
2.4918,6.7811e-05,0
2.4923,6.1769e-05,0
2.4928,3.2731e-05,0
2.4933,-1.8463e-06,0
2.4939,-2.4338e-05,0
2.4944,-2.7695e-05,0
2.4949,-4.6998e-06,0
2.4954,3.508e-05,0
2.4959,6.0929e-05,0
2.4965,5.3544e-05,0
2.497,3.2059e-05,0
2.4975,3.3066e-05,0
2.498,5.2537e-05,0
2.4985,6.2104e-05,0
2.4991,5.0355e-05,0
2.4996,1.9974e-05,0
2.5001,-9.5674e-06,0
2.5006,-1.9135e-05,0
2.5011,-1.2253e-05,0
2.5017,-6.714e-06,0
2.5022,-1.6617e-05,0
2.5027,-4.3809e-05,0
2.5032,-7.5364e-05,0
2.5037,-9.5506e-05,0
2.5042,-9.6513e-05,0
2.5048,-8.2078e-05,0
2.5053,-5.9922e-05,0
2.5058,-3.9445e-05,0
2.5063,-2.6352e-05,0
2.5068,-1.8967e-05,0
2.5074,-9.7353e-06,0
2.5079,5.0355e-07,0
2.5084,1.0575e-05,0
2.5089,2.1988e-05,0
2.5094,3.8102e-05,0
2.51,7.0665e-05,0
2.5105,0.000118,0
2.511,0.0001556,0
2.5115,0.00016567,0
2.512,0.00015409,0
2.5126,0.00013176,0
2.5131,0.00010457,0
2.5136,8.04e-05,0
2.5141,6.244e-05,0
2.5146,3.4073e-05,0
2.5152,-1.0575e-05,0
2.5157,-3.9109e-05,0
2.5162,-2.5345e-05,0
2.5167,1.1917e-05,0
2.5172,4.5151e-05,0
2.5177,5.7908e-05,0
2.5183,4.4984e-05,0
2.5188,1.5106e-05,0
2.5193,-1.1917e-05,0
2.5198,-2.2828e-05,0
2.5203,-2.4674e-05,0
2.5209,-3.0381e-05,0
2.5214,-3.978e-05,0
2.5219,-4.8508e-05,0
2.5224,-4.7669e-05,0
2.5229,-3.7766e-05,0
2.5235,-2.4674e-05,0
2.524,-1.2253e-05,0
2.5245,-8.5603e-06,0
2.525,-1.3092e-05,0
2.5255,-1.561e-05,0
2.5261,-1.8967e-05,0
2.5266,-2.5345e-05,0
2.5271,-2.182e-05,0
2.5276,-4.0284e-06,0
2.5281,1.6281e-05,0
2.5287,2.0645e-05,0
2.5292,1.2589e-05,0
2.5297,1.326e-05,0
2.5302,1.6785e-05,0
2.5307,1.7456e-05,0
2.5312,2.5513e-05,0
2.5318,3.743e-05,0
2.5323,4.6159e-05,0
2.5328,5.0019e-05,0
2.5333,5.8747e-05,0
2.5338,7.6036e-05,0
2.5344,9.1814e-05,0
2.5349,9.6513e-05,0
2.5354,9.0806e-05,0
2.5359,7.4189e-05,0
2.5364,5.3544e-05,0
2.537,5.3544e-05,0
2.5375,8.3085e-05,0
2.538,0.00011867,0
2.5385,0.00013848,0
2.539,0.00013596,0
2.5396,0.00011548,0
2.5401,8.0903e-05,0
2.5406,4.0787e-05,0
2.5411,1.1749e-06,0
2.5416,-3.7766e-05,0
2.5422,-5.7572e-05,0
2.5427,-4.6662e-05,0
2.5432,-2.5681e-05,0
2.5437,-1.5274e-05,0
2.5442,-1.8631e-05,0
2.5448,-3.8437e-05,0
2.5453,-7.6875e-05,0
2.5458,-0.00011531,0
2.5463,-0.00013428,0
2.5468,-0.00012924,0
2.5473,-0.00010356,0
2.5479,-6.6804e-05,0
2.5484,-2.9709e-05,0
2.5489,-3.0213e-06,0
2.5494,1.2421e-05,0
2.5499,2.2995e-05,0
2.5505,3.0381e-05,0
2.551,3.6591e-05,0
2.5515,4.3809e-05,0
2.552,5.2705e-05,0
2.5525,5.9922e-05,0
2.5531,6.2272e-05,0
2.5536,6.1936e-05,0
2.5541,5.8579e-05,0
2.5546,5.3544e-05,0
2.5551,5.0187e-05,0
2.5557,4.8173e-05,0
2.5562,4.5151e-05,0
2.5567,3.743e-05,0
2.5572,2.6688e-05,0
2.5577,2.1317e-05,0
2.5583,2.8367e-05,0
2.5588,4.4984e-05,0
2.5593,5.2873e-05,0
2.5598,5.0019e-05,0
2.5603,5.3544e-05,0
2.5608,6.63e-05,0
2.5614,8.2414e-05,0
2.5619,0.0001044,0
2.5624,0.00013109,0
2.5629,0.00014788,0
2.5634,0.00013075,0
2.564,8.3421e-05,0
2.5645,4.6998e-05,0
2.565,3.7095e-05,0
2.5655,2.4002e-05,0
2.566,-5.2033e-06,0
2.5666,-3.1891e-05,0
2.5671,-2.7695e-05,0
2.5676,-3.357e-07,0
2.5681,2.6688e-05,0
2.5686,4.5151e-05,0
2.5692,4.683e-05,0
2.5697,3.1724e-05,0
2.5702,1.2589e-05,0
2.5707,-1.5106e-06,0
2.5712,-1.9638e-05,0
2.5718,-4.8508e-05,0
2.5723,-8.7449e-05,0
2.5728,-0.00012102,0
2.5733,-0.00013562,0
2.5738,-0.00013277,0
2.5743,-0.00012354,0
2.5749,-0.00010927,0
2.5754,-8.7785e-05,0
2.5759,-6.3111e-05,0
2.5764,-3.8102e-05,0
2.5769,-1.5442e-05,0
2.5775,3.1891e-06,0
2.578,1.9303e-05,0
2.5785,3.2563e-05,0
2.579,3.9948e-05,0
2.5795,4.213e-05,0
2.5801,4.3137e-05,0
2.5806,4.5487e-05,0
2.5811,4.7166e-05,0
2.5816,4.6494e-05,0
2.5821,4.7501e-05,0
2.5827,6.1936e-05,0
2.5832,9.7856e-05,0
2.5837,0.0001425,0
2.5842,0.00018279,0
2.5847,0.00020528,0
2.5852,0.00020108,0
2.5858,0.0001697,0
2.5863,0.00011867,0
2.5868,5.8915e-05,0
2.5873,-3.6927e-06,0
2.5878,-5.539e-05,0
2.5884,-8.3085e-05,0
2.5889,-8.8792e-05,0
2.5894,-7.805e-05,0
2.5899,-6.0594e-05,0
2.5904,-4.1962e-05,0
2.591,-7.0497e-06,0
2.5915,3.3738e-05,0
2.592,5.7908e-05,0
2.5925,6.1601e-05,0
2.593,4.448e-05,0
2.5936,1.3931e-05,0
2.5941,-9.7353e-06,0
2.5946,-1.6953e-05,0
2.5951,-1.5946e-05,0
2.5956,-3.1891e-06,0
2.5962,7.2175e-06,0
2.5967,-1.2253e-05,0
2.5972,-4.8005e-05,0
2.5977,-5.8579e-05,0
2.5982,-4.0787e-05,0
2.5987,-2.3667e-05,0
2.5993,-1.7624e-05,0
2.5998,-1.8967e-05,0
2.6003,-2.7695e-05,0
2.6008,-3.0213e-05,0
2.6013,-4.8676e-06,0
2.6019,5.1194e-05,0
2.6024,0.00010457,0
2.6029,0.00012169,0
2.6034,0.00011447,0
2.6039,0.00011833,0
2.6045,0.00013646,0
2.605,0.0001462,0
2.6055,0.00012673,0
2.606,7.9057e-05,0
2.6065,1.5274e-05,0
2.6071,-4.6998e-05,0
2.6076,-0.00010138,0
2.6081,-0.00013831,0
2.6086,-0.00015593,0
2.6091,-0.00016365,0
2.6097,-0.00016399,0
2.6102,-0.00014687,0
2.6107,-0.00010961,0
2.6112,-6.0594e-05,0
2.6117,-1.3428e-05,0
2.6122,2.5681e-05,0
2.6128,4.5151e-05,0
2.6133,4.5319e-05,0
2.6138,4.4984e-05,0
2.6143,5.4215e-05,0
2.6148,6.4118e-05,0
2.6154,7.0665e-05,0
2.6159,7.3686e-05,0
2.6164,7.4357e-05,0
2.6169,6.8818e-05,0
2.6174,5.4551e-05,0
2.618,4.0787e-05,0
2.6185,3.7263e-05,0
2.619,4.1627e-05,0
2.6195,4.5487e-05,0
2.62,4.7837e-05,0
2.6206,5.2873e-05,0
2.6211,5.8412e-05,0
2.6216,6.1433e-05,0
2.6221,6.2943e-05,0
2.6226,6.2776e-05,0
2.6232,6.2272e-05,0
2.6237,6.1433e-05,0
2.6242,5.9251e-05,0
2.6247,5.4887e-05,0
2.6252,4.8173e-05,0
2.6258,4.0116e-05,0
2.6263,3.4073e-05,0
2.6268,3.1724e-05,0
2.6273,3.4409e-05,0
2.6278,4.4816e-05,0
2.6283,6.0761e-05,0
2.6289,6.8986e-05,0
2.6294,6.4958e-05,0
2.6299,5.539e-05,0
2.6304,4.4984e-05,0
2.6309,3.592e-05,0
2.6315,2.8367e-05,0
2.632,1.5946e-05,0
2.6325,2.6856e-06,0
2.633,4.5319e-06,0
2.6335,1.6281e-05,0
2.6341,2.3331e-05,0
2.6346,1.8128e-05,0
2.6351,7.2175e-06,0
2.6356,3.357e-07,0
2.6361,1.8463e-06,0
2.6367,8.896e-06,0
2.6372,1.7792e-05,0
2.6377,2.4506e-05,0
2.6382,2.5345e-05,0
2.6387,2.4506e-05,0
2.6393,2.501e-05,0
2.6398,2.9374e-05,0
2.6403,3.9277e-05,0
2.6408,5.069e-05,0
2.6413,5.4551e-05,0
2.6418,4.8173e-05,0
2.6424,3.6591e-05,0
2.6429,2.031e-05,0
2.6434,1.8463e-06,0
2.6439,-1.7288e-05,0
2.6444,-2.6688e-05,0
2.645,-1.561e-05,0
2.6455,5.8747e-06,0
2.646,1.7121e-05,0
2.6465,8.2246e-06,0
2.647,-1.1078e-05,0
2.6476,-2.2828e-05,0
2.6481,-2.0813e-05,0
2.6486,-1.4939e-05,0
2.6491,-6.2104e-06,0
2.6496,0,0
2.6502,-4.8676e-06,0
2.6507,-2.0478e-05,0
2.6512,-2.887e-05,0
2.6517,-1.4435e-05,0
2.6522,1.0407e-05,0
2.6528,2.4338e-05,0
2.6533,2.6184e-05,0
2.6538,2.8031e-05,0
2.6543,3.5584e-05,0
2.6548,4.0116e-05,0
2.6553,3.6423e-05,0
2.6559,2.887e-05,0
2.6564,2.6352e-05,0
2.6569,3.6255e-05,0
2.6574,6.2608e-05,0
2.6579,9.5171e-05,0
2.6585,0.00010658,0
2.659,8.51e-05,0
2.6595,5.5222e-05,0
2.66,4.2802e-05,0
2.6605,4.6494e-05,0
2.6611,6.0258e-05,0
2.6616,7.6875e-05,0
2.6621,9.8527e-05,0
2.6626,0.00011766,0
2.6631,0.00011212,0
2.6637,8.275e-05,0
2.6642,4.8173e-05,0
2.6647,1.326e-05,0
2.6652,-3.0381e-05,0
2.6657,-7.6204e-05,0
2.6662,-0.00011263,0
2.6668,-0.00013629,0
2.6673,-0.00013713,0
2.6678,-0.00011867,0
2.6683,-0.00010155,0
2.6688,-9.0471e-05,0
2.6694,-7.4022e-05,0
2.6699,-5.4383e-05,0
2.6704,-4.0116e-05,0
2.6709,-4.6326e-05,0
2.6714,-7.4861e-05,0
2.672,-8.7449e-05,0
2.6725,-5.8244e-05,0
2.673,-2.8534e-06,0
2.6735,5.4215e-05,0
2.674,8.3757e-05,0
2.6746,7.9057e-05,0
2.6751,5.4719e-05,0
2.6756,2.9374e-05,0
2.6761,2.5849e-05,0
2.6766,3.5248e-05,0
2.6772,3.743e-05,0
2.6777,2.4002e-05,0
2.6782,-5.0355e-07,0
2.6787,-1.6953e-05,0
2.6792,-1.2085e-05,0
2.6797,3.1891e-06,0
2.6803,4.5319e-06,0
2.6808,-1.3092e-05,0
2.6813,-1.7288e-05,0
2.6818,1.8631e-05,0
2.6823,7.4022e-05,0
2.6829,0.00011397,0
2.6834,0.00012236,0
2.6839,0.00010054,0
2.6844,6.8818e-05,0
2.6849,4.9348e-05,0
2.6855,4.3137e-05,0
2.686,5.0187e-05,0
2.6865,6.4286e-05,0
2.687,6.3447e-05,0
2.6875,4.8005e-05,0
2.6881,3.508e-05,0
2.6886,2.5345e-05,0
2.6891,1.8463e-05,0
2.6896,1.2924e-05,0
2.6901,1.1749e-06,0
2.6907,-2.3667e-05,0
2.6912,-5.0523e-05,0
2.6917,-5.7572e-05,0
2.6922,-2.7359e-05,0
2.6927,4.6159e-05,0
2.6932,0.00013008,0
2.6938,0.00018228,0
2.6943,0.00018144,0
2.6948,0.00013579,0
2.6953,7.0329e-05,0
2.6958,1.4435e-05,0
2.6964,-3.2898e-05,0
2.6969,-9.4163e-05,0
2.6974,-0.00016399,0
2.6979,-0.00020075,0
2.6984,-0.00018312,0
2.699,-0.0001331,0
2.6995,-7.6371e-05,0
2.7,-3.5416e-05,0
2.7005,-1.9638e-05,0
2.701,-1.091e-05,0
2.7016,6.8818e-06,0
2.7021,2.3163e-05,0
2.7026,2.9374e-05,0
2.7031,3.0549e-05,0
2.7036,3.978e-05,0
2.7042,7.0497e-05,0
2.7047,0.00011901,0
2.7052,0.00017087,0
2.7057,0.00022072,0
2.7062,0.00025228,0
2.7067,0.00024875,0
2.7073,0.000213,0
2.7078,0.00015627,0
2.7083,9.3828e-05,0
2.7088,3.7766e-05,0
2.7093,-1.0407e-05,0
2.7099,-6.009e-05,0
2.7104,-0.00010608,0
2.7109,-0.00012807,0
2.7114,-0.00011934,0
2.7119,-8.9967e-05,0
2.7125,-4.5823e-05,0
2.713,9.5674e-06,0
2.7135,5.4551e-05,0
2.714,5.9922e-05,0
2.7145,3.1388e-05,0
2.7151,5.8747e-06,0
2.7156,-4.6998e-06,0
2.7161,-1.7624e-05,0
2.7166,-4.3641e-05,0
2.7171,-6.9657e-05,0
2.7177,-7.6539e-05,0
2.7182,-5.8915e-05,0
2.7187,-3.2395e-05,0
2.7192,-1.7288e-05,0
2.7197,-1.6785e-05,0
2.7203,-1.4939e-05,0
2.7208,-5.539e-06,0
2.7213,5.0355e-06,0
2.7218,1.2589e-05,0
2.7223,1.9135e-05,0
2.7228,2.7192e-05,0
2.7234,3.827e-05,0
2.7239,5.3208e-05,0
2.7244,6.5126e-05,0
2.7249,7.2007e-05,0
2.7254,7.7379e-05,0
2.726,8.4764e-05,0
2.7265,8.426e-05,0
2.727,7.7546e-05,0
2.7275,7.3518e-05,0
2.728,7.57e-05,0
2.7286,8.9799e-05,0
2.7291,0.00011783,0
2.7296,0.00013814,0
2.7301,0.00013143,0
2.7306,9.7185e-05,0
2.7312,6.0929e-05,0
2.7317,4.4144e-05,0
2.7322,4.5487e-05,0
2.7327,5.0523e-05,0
2.7332,4.7837e-05,0
2.7338,3.743e-05,0
2.7343,1.7624e-05,0
2.7348,-5.2033e-06,0
2.7353,-1.9806e-05,0
2.7358,-2.7024e-05,0
2.7363,-3.6759e-05,0
2.7369,-5.304e-05,0
2.7374,-7.5029e-05,0
2.7379,-9.5003e-05,0
2.7384,-9.5506e-05,0
2.7389,-6.8818e-05,0
2.7395,-3.7766e-05,0
2.74,-2.266e-05,0
2.7405,-1.7288e-05,0
2.741,-7.7211e-06,0
2.7415,6.8818e-06,0
2.7421,2.031e-05,0
2.7426,2.6017e-05,0
2.7431,2.2492e-05,0
2.7436,1.2589e-05,0
2.7441,1.8463e-06,0
2.7447,-2.5177e-06,0
2.7452,4.8676e-06,0
2.7457,2.7192e-05,0
2.7462,5.0858e-05,0
2.7467,6.0594e-05,0
2.7473,5.8747e-05,0
2.7478,5.069e-05,0
2.7483,3.1724e-05,0
2.7488,9.9031e-06,0
2.7493,-3.1891e-06,0
2.7498,-8.0568e-06,0
2.7504,-9.0639e-06,0
2.7509,-8.7282e-06,0
2.7514,-1.2421e-05,0
2.7519,-1.5946e-05,0
2.7524,-1.2085e-05,0
2.753,-3.357e-07,0
2.7535,9.2317e-06,0
2.754,1.4099e-05,0
2.7545,2.7192e-05,0
2.755,6.63e-05,0
2.7556,0.00011783,0
2.7561,0.00014418,0
2.7566,0.00013277,0
2.7571,0.00011179,0
2.7576,0.00010591,0
2.7582,0.00010558,0
2.7587,8.8792e-05,0
2.7592,4.4312e-05,0
2.7597,-5.2033e-06,0
2.7602,-3.0381e-05,0
2.7607,-3.4745e-05,0
2.7613,-3.7598e-05,0
2.7618,-4.6494e-05,0
2.7623,-4.7166e-05,0
2.7628,-1.4099e-05,0
2.7633,4.0116e-05,0
2.7639,8.04e-05,0
2.7644,9.5338e-05,0
2.7649,8.5771e-05,0
2.7654,6.1936e-05,0
2.7659,5.1194e-05,0
2.7665,5.3544e-05,0
2.767,6.1601e-05,0
2.7675,8.9464e-05,0
2.768,0.00013008,0
2.7685,0.00014116,0
2.7691,0.00010776,0
2.7696,4.7669e-05,0
2.7701,-2.652e-05,0
2.7706,-9.2821e-05,0
2.7711,-0.00013445,0
2.7717,-0.00015459,0
2.7722,-0.00015224,0
2.7727,-0.00013243,0
2.7732,-9.5003e-05,0
2.7737,-5.5222e-05,0
2.7742,-3.7934e-05,0
2.7748,-3.508e-05,0
2.7753,-2.2324e-05,0
2.7758,-9.5674e-06,0
2.7763,-2.4002e-05,0
2.7768,-6.0594e-05,0
2.7774,-8.8121e-05,0
2.7779,-9.4331e-05,0
2.7784,-8.4092e-05,0
2.7789,-5.8076e-05,0
2.7794,-2.2324e-05,0
2.78,5.2033e-06,0
2.7805,1.4771e-05,0
2.781,8.2246e-06,0
2.7815,-2.8534e-06,0
2.782,-1.091e-05,0
2.7826,-1.2757e-05,0
2.7831,-6.2104e-06,0
2.7836,6.3783e-06,0
2.7841,1.9135e-05,0
2.7846,2.8199e-05,0
2.7852,3.5752e-05,0
2.7857,4.448e-05,0
2.7862,5.4551e-05,0
2.7867,6.3783e-05,0
2.7872,7.335e-05,0
2.7877,8.4764e-05,0
2.7883,9.2821e-05,0
2.7888,9.9031e-05,0
2.7893,0.00010289,0
2.7898,0.00010826,0
2.7903,0.00012001,0
2.7909,0.00013143,0
2.7914,0.00012605,0
2.7919,0.00010457,0
2.7924,8.1071e-05,0
2.7929,6.479e-05,0
2.7935,4.8508e-05,0
2.794,2.4002e-05,0
2.7945,9.5674e-06,0
2.795,1.4099e-05,0
2.7955,2.1317e-05,0
2.7961,2.2324e-05,0
2.7966,2.4002e-05,0
2.7971,2.9877e-05,0
2.7976,3.0045e-05,0
2.7981,2.3331e-05,0
2.7987,1.7456e-05,0
2.7992,1.8631e-05,0
2.7997,2.0478e-05,0
2.8002,1.4939e-05,0
2.8007,7.3854e-06,0
2.8013,1.1917e-05,0
2.8018,3.3738e-05,0
2.8023,6.4958e-05,0
2.8028,8.2918e-05,0
2.8033,7.5029e-05,0
2.8038,5.2201e-05,0
2.8044,2.9038e-05,0
2.8049,2.6017e-05,0
2.8054,6.6133e-05,0
2.8059,0.00011833,0
2.8064,0.00013344,0
2.807,0.00011649,0
2.8075,9.7185e-05,0
2.808,8.3085e-05,0
2.8085,6.4286e-05,0
2.809,3.2059e-05,0
2.8096,-8.896e-06,0
2.8101,-4.6159e-05,0
2.8106,-7.5364e-05,0
2.8111,-9.6681e-05,0
2.8116,-0.00012119,0
2.8122,-0.00015744,0
2.8127,-0.00017372,0
2.8132,-0.00014955,0
2.8137,-0.00012052,0
2.8142,-0.00010457,0
2.8148,-8.426e-05,0
2.8153,-6.1265e-05,0
2.8158,-5.4719e-05,0
2.8163,-6.0258e-05,0
2.8168,-4.8844e-05,0
2.8173,-1.7624e-05,0
2.8179,1.6449e-05,0
2.8184,4.8005e-05,0
2.8189,8.8457e-05,0
2.8194,0.00015392,0
2.8199,0.00023885,0
2.8205,0.000308,0
2.821,0.00033687,0
2.8215,0.00032999,0
2.822,0.00028014,0
2.8225,0.00018833,0
2.8231,7.9896e-05,0
2.8236,-2.501e-05,0
2.8241,-0.00010793,0
2.8246,-0.00016449,0
2.8251,-0.00021032,0
2.8257,-0.00024254,0
2.8262,-0.00023415,0
2.8267,-0.00019118,0
2.8272,-0.00014586,0
2.8277,-0.00010826,0
2.8283,-7.805e-05,0
2.8288,-5.7069e-05,0
2.8293,-4.3305e-05,0
2.8298,-3.6759e-05,0
2.8303,-3.5752e-05,0
2.8308,-3.1724e-05,0
2.8314,-1.8296e-05,0
2.8319,5.2033e-06,0
2.8324,2.9374e-05,0
2.8329,4.5319e-05,0
2.8334,5.3208e-05,0
2.834,5.7404e-05,0
2.8345,5.5222e-05,0
2.835,4.448e-05,0
2.8355,3.5416e-05,0
2.836,3.6423e-05,0
2.8366,4.4144e-05,0
2.8371,5.0858e-05,0
2.8376,5.774e-05,0
2.8381,6.6972e-05,0
2.8386,7.335e-05,0
2.8392,7.2007e-05,0
2.8397,6.5965e-05,0
2.8402,5.539e-05,0
2.8407,4.6494e-05,0
2.8412,5.4551e-05,0
2.8418,8.04e-05,0
2.8423,0.00010088,0
2.8428,9.3324e-05,0
2.8433,6.5629e-05,0
2.8438,4.3809e-05,0
2.8443,3.6088e-05,0
2.8449,3.0716e-05,0
2.8454,1.7792e-05,0
2.8459,1.3428e-06,0
2.8464,-3.0213e-06,0
2.8469,1.2589e-05,0
2.8475,3.9948e-05,0
2.848,6.6468e-05,0
2.8485,8.51e-05,0
2.849,9.2149e-05,0
2.8495,8.4932e-05,0
2.8501,6.9993e-05,0
2.8506,5.3544e-05,0
2.8511,3.6088e-05,0
2.8516,6.5461e-06,0
2.8521,-3.2563e-05,0
2.8527,-6.1601e-05,0
2.8532,-6.4622e-05,0
2.8537,-4.3305e-05,0
2.8542,-1.6281e-05,0
2.8547,6.5461e-06,0
2.8552,3.3738e-05,0
2.8558,6.7979e-05,0
2.8563,9.8527e-05,0
2.8568,0.00012689,0
2.8573,0.00015157,0
2.8578,0.00015224,0
2.8584,0.00012052,0
2.8589,6.9993e-05,0
2.8594,1.4435e-05,0
2.8599,-3.3906e-05,0
2.8604,-7.0161e-05,0
2.861,-7.8721e-05,0
2.8615,-4.6494e-05,0
2.862,-1.6785e-07,0
2.8625,2.6352e-05,0
2.863,1.9303e-05,0
2.8636,-7.5532e-06,0
2.8641,-2.6352e-05,0
2.8646,-3.1891e-05,0
2.8651,-2.6017e-05,0
2.8656,1.1917e-05,0
2.8662,7.4693e-05,0
2.8667,0.00011514,0
2.8672,0.0001044,0
2.8677,5.7237e-05,0
2.8682,2.6856e-06,0
2.8687,-4.1794e-05,0
2.8693,-7.1504e-05,0
2.8698,-8.661e-05,0
2.8703,-9.8527e-05,0
2.8708,-0.00010541,0
2.8713,-9.3492e-05,0
2.8719,-6.7643e-05,0
2.8724,-5.0523e-05,0
2.8729,-4.448e-05,0
2.8734,-3.6088e-05,0
2.8739,-9.2317e-06,0
2.8745,3.4073e-05,0
2.875,6.6636e-05,0
2.8755,7.9057e-05,0
2.876,7.7714e-05,0
2.8765,6.4286e-05,0
2.8771,3.5752e-05,0
2.8776,-5.539e-06,0
2.8781,-4.3137e-05,0
2.8786,-6.3279e-05,0
2.8791,-6.3615e-05,0
2.8797,-5.0523e-05,0
2.8802,-3.3738e-05,0
2.8807,-1.8631e-05,0
2.8812,9.5674e-06,0
2.8817,6.1265e-05,0
2.8822,0.00011498,0
2.8828,0.00013848,0
2.8833,0.00011531,0
2.8838,5.9251e-05,0
2.8843,7.2175e-06,0
2.8848,-1.1414e-05,0
2.8854,-1.1749e-06,0
2.8859,1.6281e-05,0
2.8864,2.7695e-05,0
2.8869,4.2802e-05,0
2.8874,7.6371e-05,0
2.888,0.00011464,0
2.8885,0.00014066,0
2.889,0.00014553,0
2.8895,0.00013613,0
2.89,0.0001086,0
2.8906,5.3544e-05,0
2.8911,-5.8747e-06,0
2.8916,-3.6423e-05,0
2.8921,-3.7766e-05,0
2.8926,-3.508e-05,0
2.8932,-4.2802e-05,0
2.8937,-5.8244e-05,0
2.8942,-7.6036e-05,0
2.8947,-8.9296e-05,0
2.8952,-8.0735e-05,0
2.8958,-4.3305e-05,0
2.8963,2.8534e-06,0
2.8968,3.2731e-05,0
2.8973,4.9516e-05,0
2.8978,5.388e-05,0
2.8983,4.3305e-05,0
2.8989,3.6088e-05,0
2.8994,4.1123e-05,0
2.8999,4.2802e-05,0
2.9004,3.4745e-05,0
2.9009,2.4002e-05,0
2.9015,1.4099e-05,0
2.902,1.4435e-05,0
2.9025,3.3906e-05,0
2.903,5.7069e-05,0
2.9035,5.6901e-05,0
2.9041,3.3402e-05,0
2.9046,7.5532e-06,0
2.9051,-7.7211e-06,0
2.9056,-1.091e-05,0
2.9061,-4.8676e-06,0
2.9067,1.0071e-06,0
2.9072,1.1749e-06,0
2.9077,-6.714e-07,0
2.9082,1.5106e-05,0
2.9087,5.5894e-05,0
2.9093,9.2149e-05,0
2.9098,9.1478e-05,0
2.9103,5.7908e-05,0
2.9108,1.9303e-05,0
2.9113,-1.6785e-07,0
2.9118,6.714e-07,0
2.9124,1.8631e-05,0
2.9129,6.4286e-05,0
2.9134,0.00013529,0
2.9139,0.00018833,0
2.9144,0.00018782,0
2.915,0.00014318,0
2.9155,8.5771e-05,0
2.916,2.9374e-05,0
2.9165,-2.3499e-05,0
2.917,-6.7475e-05,0
2.9176,-0.00010491,0
2.9181,-0.00013361,0
2.9186,-0.00013663,0
2.9191,-0.00010826,0
2.9196,-7.2343e-05,0
2.9202,-5.388e-05,0
2.9207,-4.8005e-05,0
2.9212,-4.1123e-05,0
2.9217,-3.5416e-05,0
2.9222,-3.2731e-05,0
2.9228,-2.7695e-05,0
2.9233,-1.5946e-05,0
2.9238,1.1749e-06,0
2.9243,2.0142e-05,0
2.9248,3.8102e-05,0
2.9253,5.1865e-05,0
2.9259,5.774e-05,0
2.9264,5.6565e-05,0
2.9269,4.918e-05,0
2.9274,4.0116e-05,0
2.9279,3.8773e-05,0
2.9285,4.7837e-05,0
2.929,5.8244e-05,0
2.9295,6.1433e-05,0
2.93,5.3544e-05,0
2.9305,3.6591e-05,0
2.9311,1.8631e-05,0
2.9316,1.0239e-05,0
2.9321,1.2589e-05,0
2.9326,1.4939e-05,0
2.9331,1.1917e-05,0
2.9337,1.2421e-05,0
2.9342,2.4002e-05,0
2.9347,3.8773e-05,0
2.9352,4.4816e-05,0
2.9357,4.4312e-05,0
2.9362,4.5319e-05,0
2.9368,5.0187e-05,0
2.9373,6.0594e-05,0
2.9378,6.63e-05,0
2.9383,6.6972e-05,0
2.9388,7.0665e-05,0
2.9394,6.7811e-05,0
2.9399,6.3615e-05,0
2.9404,7.8721e-05,0
2.9409,0.00010088,0
2.9414,0.00010356,0
2.942,7.5364e-05,0
2.9425,3.3402e-05,0
2.943,1.8463e-06,0
2.9435,-1.2924e-05,0
2.944,-2.6184e-05,0
2.9446,-4.9348e-05,0
2.9451,-7.2343e-05,0
2.9456,-7.7546e-05,0
2.9461,-6.9993e-05,0
2.9466,-5.9922e-05,0
2.9472,-4.8173e-05,0
2.9477,-3.2395e-05,0
2.9482,-1.8128e-05,0
2.9487,-7.5532e-06,0
2.9492,9.7353e-06,0
2.9497,3.7934e-05,0
2.9503,6.1601e-05,0
2.9508,6.63e-05,0
2.9513,5.4719e-05,0
2.9518,4.2802e-05,0
2.9523,3.8102e-05,0
2.9529,3.0045e-05,0
2.9534,2.2995e-05,0
2.9539,2.6688e-05,0
2.9544,3.0716e-05,0
2.9549,1.4939e-05,0
2.9555,-8.3925e-06,0
2.956,-1.6281e-05,0
2.9565,-7.8889e-06,0
2.957,5.0355e-07,0
2.9575,2.5177e-06,0
2.9581,1.2589e-05,0
2.9586,3.9948e-05,0
2.9591,7.2175e-05,0
2.9596,8.896e-05,0
2.9601,8.9128e-05,0
2.9607,6.5965e-05,0
2.9612,1.7288e-05,0
2.9617,-3.508e-05,0
2.9622,-6.9993e-05,0
2.9627,-8.3421e-05,0
2.9632,-8.2078e-05,0
2.9638,-6.8482e-05,0
2.9643,-3.8605e-05,0
2.9648,1.0239e-05,0
2.9653,7.5364e-05,0
2.9658,0.00014687,0
2.9664,0.00020847,0
2.9669,0.00023197,0
2.9674,0.00019638,0
2.9679,0.00011632,0
2.9684,2.9709e-05,0
2.969,-3.508e-05,0
2.9695,-7.0329e-05,0
2.97,-8.9967e-05,0
2.9705,-0.00011615,0
2.971,-0.00014536,0
2.9716,-0.00015492,0
2.9721,-0.00013797,0
2.9726,-0.00010138,0
2.9731,-5.7572e-05,0
2.9736,-1.4939e-05,0
2.9742,1.7288e-05,0
2.9747,3.2731e-05,0
2.9752,3.4073e-05,0
2.9757,2.5681e-05,0
2.9762,1.1917e-05,0
2.9768,5.0355e-06,0
2.9773,1.7121e-05,0
2.9778,5.6733e-05,0
2.9783,0.00011582,0
2.9788,0.00015627,0
2.9793,0.00015241,0
2.9799,0.00011095,0
2.9804,5.4215e-05,0
2.9809,7.5532e-06,0
2.9814,-2.1653e-05,0
2.9819,-4.0452e-05,0
2.9825,-5.5558e-05,0
2.983,-6.5629e-05,0
2.9835,-5.3544e-05,0
2.984,-2.031e-05,0
2.9845,6.3783e-06,0
2.9851,1.6617e-05,0
2.9856,3.3234e-05,0
2.9861,6.4286e-05,0
2.9866,8.5771e-05,0
2.9871,8.8457e-05,0
2.9877,7.1839e-05,0
2.9882,3.8102e-05,0
2.9887,7.8889e-06,0
2.9892,-1.091e-05,0
2.9897,-2.8367e-05,0
2.9903,-4.3473e-05,0
2.9908,-4.3977e-05,0
2.9913,-3.2059e-05,0
2.9918,-1.8631e-05,0
2.9923,-8.7282e-06,0
2.9928,-1.6785e-06,0
2.9934,9.2317e-06,0
2.9939,1.7624e-05,0
2.9944,1.6953e-05,0
2.9949,1.2757e-05,0
2.9954,1.6785e-05,0
2.996,3.0381e-05,0
2.9965,4.5151e-05,0
2.997,5.6062e-05,0
2.9975,6.4286e-05,0
2.998,6.9993e-05,0
2.9986,7.1672e-05,0
2.9991,6.8315e-05,0
2.9996,6.2943e-05,0
3.0001,6.0761e-05,0
3.0006,6.0929e-05,0
3.0012,5.3544e-05,0
3.0017,3.592e-05,0
3.0022,2.7359e-05,0
3.0027,3.6591e-05,0
3.0032,4.3809e-05,0
3.0038,3.978e-05,0
3.0043,3.2898e-05,0
3.0048,3.1388e-05,0
3.0053,3.5416e-05,0
3.0058,3.743e-05,0
3.0063,2.7695e-05,0
3.0069,9.0639e-06,0
3.0074,3.1891e-06,0
3.0079,1.4603e-05,0
3.0084,2.4002e-05,0
3.0089,2.417e-05,0
3.0095,1.796e-05,0
3.01,1.1246e-05,0
3.0105,1.1582e-05,0
3.011,2.0645e-05,0
3.0115,3.1891e-05,0
3.0121,3.9948e-05,0
3.0126,4.6159e-05,0
3.0131,6.3783e-05,0
3.0136,0.00010323,0
3.0141,0.0001368,0
3.0147,0.00013764,0
3.0152,0.00010826,0
3.0157,6.1936e-05,0
3.0162,1.3931e-05,0
3.0167,-2.5681e-05,0
3.0173,-5.1362e-05,0
3.0178,-6.6636e-05,0
3.0183,-7.4861e-05,0
3.0188,-7.4189e-05,0
3.0193,-5.9251e-05,0
3.0198,-3.4577e-05,0
3.0204,-5.2033e-06,0
3.0209,2.5849e-05,0
3.0214,4.683e-05,0
3.0219,5.0858e-05,0
3.0224,4.2802e-05,0
3.023,2.1988e-05,0
3.0235,-8.2246e-06,0
3.024,-2.6352e-05,0
3.0245,-2.0981e-05,0
3.025,-2.5177e-06,0
3.0256,1.6617e-05,0
3.0261,3.5416e-05,0
3.0266,5.8412e-05,0
3.0271,7.9561e-05,0
3.0276,9.6849e-05,0
3.0282,0.00010994,0
3.0287,0.00011598,0
3.0292,0.00010524,0
3.0297,8.8121e-05,0
3.0302,8.9967e-05,0
3.0307,0.00010491,0
3.0313,0.00011095,0
3.0318,0.00010323,0
3.0323,7.5029e-05,0
3.0328,2.3499e-05,0
3.0333,-2.9374e-05,0
3.0339,-5.6733e-05,0
3.0344,-7.4022e-05,0
3.0349,-0.00011766,0
3.0354,-0.00018749,0
3.0359,-0.00024086,0
3.0365,-0.00023952,0
3.037,-0.00018447,0
3.0375,-0.00011749,0
3.038,-7.2175e-05,0
3.0385,-4.683e-05,0
3.0391,-3.3066e-05,0
3.0396,-2.8534e-05,0
3.0401,-3.8102e-05,0
3.0406,-5.9586e-05,0
3.0411,-7.6036e-05,0
3.0417,-8.2246e-05,0
3.0422,-8.4932e-05,0
3.0427,-7.6036e-05,0
3.0432,-5.2033e-05,0
3.0437,-2.4002e-05,0
3.0442,8.2246e-06,0
3.0448,5.0187e-05,0
3.0453,8.9464e-05,0
3.0458,0.00011296,0
3.0463,0.000118,0
3.0468,0.00010994,0
3.0474,9.9702e-05,0
3.0479,9.2485e-05,0
3.0484,7.3014e-05,0
3.0489,3.6759e-05,0
3.0494,1.3596e-05,0
3.05,2.266e-05,0
3.0505,4.0787e-05,0
3.051,4.448e-05,0
3.0515,4.1459e-05,0
3.052,4.2466e-05,0
3.0526,4.3473e-05,0
3.0531,4.9348e-05,0
3.0536,8.4428e-05,0
3.0541,0.00015106,0
3.0546,0.00021468,0
3.0552,0.00023348,0
3.0557,0.00019924,0
3.0562,0.00013495,0
3.0567,7.5029e-05,0
3.0572,3.2059e-05,0
3.0577,3.1891e-06,0
3.0583,-1.3092e-05,0
3.0588,-3.0549e-05,0
3.0593,-5.4047e-05,0
3.0598,-6.4622e-05,0
3.0603,-4.7837e-05,0
3.0609,-1.9638e-05,0
3.0614,3.357e-07,0
3.0619,5.8747e-06,0
3.0624,5.8747e-06,0
3.0629,5.8747e-06,0
3.0635,7.8889e-06,0
3.064,1.1917e-05,0
3.0645,1.3764e-05,0
3.065,9.7353e-06,0
3.0655,3.0213e-06,0
3.0661,-5.0355e-07,0
3.0666,3.5248e-06,0
3.0671,1.9471e-05,0
3.0676,4.8844e-05,0
3.0681,8.3925e-05,0
3.0687,0.00010323,0
3.0692,9.3828e-05,0
3.0697,6.4958e-05,0
3.0702,3.592e-05,0
3.0707,2.1317e-05,0
3.0713,1.5778e-05,0
3.0718,1.5106e-05,0
3.0723,1.6617e-05,0
3.0728,1.6785e-05,0
3.0733,2.3331e-05,0
3.0738,3.9445e-05,0
3.0744,5.6062e-05,0
3.0749,6.3111e-05,0
3.0754,5.3376e-05,0
3.0759,3.1388e-05,0
3.0764,1.3764e-05,0
3.077,8.3925e-06,0
3.0775,5.539e-06,0
3.078,3.5248e-06,0
3.0785,2.8534e-06,0
3.079,-4.8676e-06,0
3.0796,-1.3596e-05,0
3.0801,-1.1749e-05,0
3.0806,-1.5106e-06,0
3.0811,5.8747e-06,0
3.0816,-3.5248e-06,0
3.0822,-2.652e-05,0
3.0827,-3.8773e-05,0
3.0832,-2.501e-05,0
3.0837,1.5106e-06,0
3.0842,1.7121e-05,0
3.0848,1.8631e-05,0
3.0853,1.5946e-05,0
3.0858,3.7263e-05,0
3.0863,9.3492e-05,0
3.0868,0.00014083,0
3.0873,0.00014401,0
3.0879,0.00010927,0
3.0884,5.7572e-05,0
3.0889,7.0497e-06,0
3.0894,-3.0716e-05,0
3.0899,-6.4286e-05,0
3.0905,-9.7856e-05,0
3.091,-0.00010927,0
3.0915,-8.9967e-05,0
3.092,-6.4286e-05,0
3.0925,-3.592e-05,0
3.0931,-5.2033e-06,0
3.0936,5.2033e-06,0
3.0941,-7.2175e-06,0
3.0946,-2.6352e-05,0
3.0951,-3.357e-05,0
3.0957,-2.7024e-05,0
3.0962,-8.0568e-06,0
3.0967,2.5345e-05,0
3.0972,5.9251e-05,0
3.0977,7.4693e-05,0
3.0983,6.865e-05,0
3.0988,5.3544e-05,0
3.0993,3.743e-05,0
3.0998,1.7288e-05,0
3.1003,-1.0575e-05,0
3.1008,-4.0116e-05,0
3.1014,-6.1433e-05,0
3.1019,-6.3279e-05,0
3.1024,-4.3809e-05,0
3.1029,-1.5274e-05,0
3.1034,9.7353e-06,0
3.104,2.9877e-05,0
3.1045,4.9516e-05,0
3.105,6.63e-05,0
3.1055,7.0832e-05,0
3.106,6.4958e-05,0
3.1066,6.0258e-05,0
3.1071,6.0594e-05,0
3.1076,6.6133e-05,0
3.1081,8.2414e-05,0
3.1086,9.9199e-05,0
3.1092,0.00010155,0
3.1097,9.1142e-05,0
3.1102,7.9728e-05,0
3.1107,7.0329e-05,0
3.1112,6.3783e-05,0
3.1117,6.4286e-05,0
3.1123,6.949e-05,0
3.1128,5.9586e-05,0
3.1133,3.0884e-05,0
3.1138,0,0
3.1143,-2.1485e-05,0
3.1149,-3.1052e-05,0
3.1154,-3.0716e-05,0
3.1159,-2.9709e-05,0
3.1164,-3.8437e-05,0
3.1169,-5.5726e-05,0
3.1175,-8.1743e-05,0
3.118,-0.00010524,0
3.1185,-0.00011296,0
3.119,-9.3492e-05,0
3.1195,-4.9516e-05,0
3.1201,-7.7211e-06,0
3.1206,9.0639e-06,0
3.1211,1.1749e-06,0
3.1216,-1.0575e-05,0
3.1221,-8.2246e-06,0
3.1227,1.1917e-05,0
3.1232,3.6759e-05,0
3.1237,5.3544e-05,0
3.1242,5.9419e-05,0
3.1247,5.6901e-05,0
3.1252,5.8915e-05,0
3.1258,6.8986e-05,0
3.1263,7.335e-05,0
3.1268,6.1936e-05,0
3.1273,3.9612e-05,0
3.1278,2.031e-05,0
3.1284,1.796e-05,0
3.1289,3.2059e-05,0
3.1294,5.388e-05,0
3.1299,7.9393e-05,0
3.1304,9.2149e-05,0
3.131,7.9728e-05,0
3.1315,5.7572e-05,0
3.132,4.1459e-05,0
3.1325,4.7837e-05,0
3.133,9.6345e-05,0
3.1336,0.00015946,0
3.1341,0.00018849,0
3.1346,0.00017171,0
3.1351,0.00013176,0
3.1356,8.4092e-05,0
3.1362,3.3738e-05,0
3.1367,-7.5532e-06,0
3.1372,-2.501e-05,0
3.1377,-3.2898e-05,0
3.1382,-6.0426e-05,0
3.1387,-8.4932e-05,0
3.1393,-7.7379e-05,0
3.1398,-5.2705e-05,0
3.1403,-3.8605e-05,0
3.1408,-3.9445e-05,0
3.1413,-4.1962e-05,0
3.1419,-4.3137e-05,0
3.1424,-6.009e-05,0
3.1429,-9.3324e-05,0
3.1434,-0.00011246,0
3.1439,-9.7353e-05,0
3.1445,-5.9586e-05,0
3.145,-1.7792e-05,0
3.1455,2.3835e-05,0
3.146,7.1e-05,0
3.1465,0.00011263,0
3.1471,0.00012203,0
3.1476,9.3828e-05,0
3.1481,4.8173e-05,0
3.1486,9.0639e-06,0
3.1491,-1.8463e-05,0
3.1497,-3.9948e-05,0
3.1502,-5.388e-05,0
3.1507,-5.4215e-05,0
3.1512,-4.1794e-05,0
3.1517,-2.3499e-05,0
3.1522,-2.182e-06,0
3.1528,1.7288e-05,0
3.1533,2.9374e-05,0
3.1538,2.6352e-05,0
3.1543,5.539e-06,0
3.1548,-1.8631e-05,0
3.1554,-2.2995e-05,0
3.1559,-4.0284e-06,0
3.1564,3.2731e-05,0
3.1569,7.8386e-05,0
3.1574,0.0001086,0
3.158,0.0001086,0
3.1585,8.7785e-05,0
3.159,5.7572e-05,0
3.1595,2.8702e-05,0
3.16,5.8747e-06,0
3.1606,-1.3596e-05,0
3.1611,-2.9877e-05,0
3.1616,-3.5752e-05,0
3.1621,-2.6352e-05,0
3.1626,-1.6785e-06,0
3.1632,3.0045e-05,0
3.1637,6.2608e-05,0
3.1642,0.00010105,0
3.1647,0.00013764,0
3.1652,0.00015929,0
3.1658,0.00016466,0
3.1663,0.0001509,0
3.1668,0.00011733,0
3.1673,7.5029e-05,0
3.1678,3.0045e-05,0
3.1683,-1.9303e-05,0
3.1689,-5.2537e-05,0
3.1694,-5.1194e-05,0
3.1699,-2.652e-05,0
3.1704,6.5461e-06,0
3.1709,3.1052e-05,0
3.1715,3.6591e-05,0
3.172,2.9374e-05,0
3.1725,1.1582e-05,0
3.173,-7.5532e-06,0
3.1735,-1.7288e-05,0
3.1741,-2.4674e-05,0
3.1746,-3.6927e-05,0
3.1751,-4.3809e-05,0
3.1756,-3.7095e-05,0
3.1761,-1.8296e-05,0
3.1767,2.0142e-06,0
3.1772,1.6617e-05,0
3.1777,2.8534e-05,0
3.1782,3.3402e-05,0
3.1787,3.4073e-05,0
3.1793,3.5416e-05,0
3.1798,3.1052e-05,0
3.1803,1.8967e-05,0
3.1808,7.0497e-06,0
3.1813,-3.357e-06,0
3.1818,-1.0239e-05,0
3.1824,-9.9031e-06,0
3.1829,-5.2033e-06,0
3.1834,-2.3499e-06,0
3.1839,-6.714e-07,0
3.1844,2.182e-06,0
3.185,3.5248e-06,0
3.1855,4.8676e-06,0
3.186,1.2085e-05,0
3.1865,2.4338e-05,0
3.187,3.3906e-05,0
3.1876,3.9109e-05,0
3.1881,4.6159e-05,0
3.1886,5.4719e-05,0
3.1891,5.5558e-05,0
3.1896,4.3809e-05,0
3.1902,3.4073e-05,0
3.1907,3.6591e-05,0
3.1912,4.0452e-05,0
3.1917,3.5584e-05,0
3.1922,2.5681e-05,0
3.1928,2.0645e-05,0
3.1933,2.501e-05,0
3.1938,2.887e-05,0
3.1943,3.3402e-05,0
3.1948,4.1459e-05,0
3.1953,4.7333e-05,0
3.1959,4.2634e-05,0
3.1964,3.5752e-05,0
3.1969,4.1794e-05,0
3.1974,5.3376e-05,0
3.1979,5.2873e-05,0
3.1985,3.8437e-05,0
3.199,1.6953e-05,0
3.1995,-3.6927e-06,0
3.2,-1.5106e-05,0
3.2005,-1.4435e-05,0
3.2011,-6.3783e-06,0
3.2016,-5.0355e-07,0
3.2021,-3.5248e-06,0
3.2026,-8.5603e-06,0
3.2031,-7.2175e-06,0
3.2037,-8.3925e-07,0
3.2042,1.0575e-05,0
3.2047,3.0381e-05,0
3.2052,4.8173e-05,0
3.2057,6.7979e-05,0
3.2062,0.00010961,0
3.2068,0.00015207,0
3.2073,0.00015795,0
3.2078,0.00011968,0
3.2083,5.6062e-05,0
3.2088,-8.896e-06,0
3.2094,-5.8747e-05,0
3.2099,-9.2988e-05,0
3.2104,-0.00011296,0
3.2109,-0.00010658,0
3.2114,-6.3951e-05,0
3.212,-6.3783e-06,0
3.2125,3.1388e-05,0
3.213,3.6423e-05,0
3.2135,2.4338e-05,0
3.214,1.5106e-05,0
3.2146,2.4842e-05,0
3.2151,4.7166e-05,0
3.2156,6.0258e-05,0
3.2161,7.3518e-05,0
3.2166,0.00011196,0
3.2172,0.00014687,0
3.2177,0.00014485,0
3.2182,0.00010239,0
3.2187,3.7766e-05,0
3.2192,-2.4842e-05,0
3.2197,-7.1672e-05,0
3.2203,-0.00010356,0
3.2208,-0.00011095,0
3.2213,-9.0135e-05,0
3.2218,-5.6565e-05,0
3.2223,-3.0716e-05,0
3.2229,-2.4002e-05,0
3.2234,-3.7766e-05,0
3.2239,-6.5293e-05,0
3.2244,-8.8121e-05,0
3.2249,-9.2821e-05,0
3.2255,-7.7211e-05,0
3.226,-4.8508e-05,0
3.2265,-1.6281e-05,0
3.227,8.5603e-06,0
3.2275,1.9638e-05,0
3.2281,2.8702e-05,0
3.2286,4.8508e-05,0
3.2291,6.8986e-05,0
3.2296,7.4693e-05,0
3.2301,7.0665e-05,0
3.2307,6.8818e-05,0
3.2312,7.1336e-05,0
3.2317,7.57e-05,0
3.2322,8.1743e-05,0
3.2327,8.4092e-05,0
3.2332,7.4693e-05,0
3.2338,4.8005e-05,0
3.2343,1.1917e-05,0
3.2348,-1.8296e-05,0
3.2353,-3.1891e-05,0
3.2358,-3.7766e-05,0
3.2364,-4.918e-05,0
3.2369,-4.683e-05,0
3.2374,-1.2421e-05,0
3.2379,2.7359e-05,0
3.2384,5.0187e-05,0
3.239,6.4286e-05,0
3.2395,7.7882e-05,0
3.24,8.4764e-05,0
3.2405,8.275e-05,0
3.241,7.2175e-05,0
3.2416,5.5894e-05,0
3.2421,4.7669e-05,0
3.2426,4.8844e-05,0
3.2431,4.1459e-05,0
3.2436,1.796e-05,0
3.2442,-9.2317e-06,0
3.2447,-2.266e-05,0
3.2452,-1.8967e-05,0
3.2457,-8.896e-06,0
3.2462,-5.539e-06,0
3.2468,-6.3783e-06,0
3.2473,-6.3783e-06,0
3.2478,-2.8534e-06,0
3.2483,7.3854e-06,0
3.2488,1.2589e-05,0
3.2493,5.2033e-06,0
3.2499,6.5461e-06,0
3.2504,2.9877e-05,0
3.2509,5.4719e-05,0
3.2514,5.8244e-05,0
3.2519,3.9948e-05,0
3.2525,2.031e-05,0
3.253,6.5461e-06,0
3.2535,-5.0355e-06,0
3.254,-1.7288e-05,0
3.2545,-2.6017e-05,0
3.2551,-2.7024e-05,0
3.2556,-1.9471e-05,0
3.2561,-4.5319e-06,0
3.2566,2.1653e-05,0
3.2571,6.5126e-05,0
3.2577,0.00010675,0
3.2582,0.0001284,0
3.2587,0.00014553,0
3.2592,0.00018648,0
3.2597,0.00023549,0
3.2603,0.00023919,0
3.2608,0.00017624,0
3.2613,7.7211e-05,0
3.2618,-1.8967e-05,0
3.2623,-9.6178e-05,0
3.2628,-0.00014586,0
3.2634,-0.00016718,0
3.2639,-0.00018128,0
3.2644,-0.000189,0
3.2649,-0.00015962,0
3.2654,-8.1743e-05,0
3.266,6.3783e-06,0
3.2665,5.7908e-05,0
3.267,6.7308e-05,0
3.2675,5.0858e-05,0
3.268,2.6017e-05,0
3.2686,8.2246e-06,0
3.2691,-4.5319e-06,0
3.2696,-1.1917e-05,0
3.2701,6.5461e-06,0
3.2706,4.683e-05,0
3.2712,6.7979e-05,0
3.2717,5.6733e-05,0
3.2722,3.4577e-05,0
3.2727,2.9709e-05,0
3.2732,4.1794e-05,0
3.2738,4.918e-05,0
3.2743,4.4816e-05,0
3.2748,3.8773e-05,0
3.2753,3.3234e-05,0
3.2758,3.1052e-05,0
3.2763,3.3738e-05,0
3.2769,3.1891e-05,0
3.2774,2.7024e-05,0
3.2779,2.3331e-05,0
3.2784,1.8631e-05,0
3.2789,1.2253e-05,0
3.2795,6.3783e-06,0
3.28,-1.6785e-07,0
3.2805,-1.0407e-05,0
3.281,-2.6352e-05,0
3.2815,-3.7766e-05,0
3.2821,-2.8702e-05,0
3.2826,-4.8676e-06,0
3.2831,1.326e-05,0
3.2836,2.1317e-05,0
3.2841,2.266e-05,0
3.2847,1.8128e-05,0
3.2852,8.896e-06,0
3.2857,4.5319e-06,0
3.2862,1.1917e-05,0
3.2867,2.7359e-05,0
3.2872,4.5823e-05,0
3.2878,5.8244e-05,0
3.2883,5.8244e-05,0
3.2888,4.6159e-05,0
3.2893,2.6688e-05,0
3.2898,8.5603e-06,0
3.2904,4.5319e-06,0
3.2909,1.1078e-05,0
3.2914,1.5778e-05,0
3.2919,1.2253e-05,0
3.2924,-1.0071e-06,0
3.293,-1.6617e-05,0
3.2935,-1.9974e-05,0
3.294,-1.1582e-05,0
3.2945,-3.357e-06,0
3.295,4.5319e-06,0
3.2956,9.7353e-06,0
3.2961,1.4435e-05,0
3.2966,2.8702e-05,0
3.2971,4.7333e-05,0
3.2976,6.009e-05,0
3.2982,6.3615e-05,0
3.2987,6.6133e-05,0
3.2992,7.0832e-05,0
3.2997,6.63e-05,0
3.3002,5.4887e-05,0
3.3007,4.9516e-05,0
3.3013,4.8173e-05,0
3.3018,4.6494e-05,0
3.3023,4.5487e-05,0
3.3028,4.918e-05,0
3.3033,5.5222e-05,0
3.3039,6.3783e-05,0
3.3044,8.2078e-05,0
3.3049,0.00010927,0
3.3054,0.00012337,0
3.3059,0.00010558,0
3.3065,5.4719e-05,0
3.307,-8.2246e-06,0
3.3075,-5.9586e-05,0
3.308,-8.9799e-05,0
3.3085,-0.00010793,0
3.3091,-0.00012203,0
3.3096,-0.00012253,0
3.3101,-9.987e-05,0
3.3106,-6.0426e-05,0
3.3111,-2.3331e-05,0
3.3117,-8.3925e-07,0
3.3122,1.5106e-06,0
3.3127,-1.1246e-05,0
3.3132,-1.4771e-05,0
3.3137,5.8747e-06,0
3.3142,3.3234e-05,0
3.3148,4.5823e-05,0
3.3153,4.0955e-05,0
3.3158,3.0716e-05,0
3.3163,2.7359e-05,0
3.3168,2.8702e-05,0
3.3174,2.266e-05,0
3.3179,1.3596e-05,0
3.3184,9.2317e-06,0
3.3189,5.8747e-06,0
3.3194,4.1962e-06,0
3.32,6.5461e-06,0
3.3205,7.5532e-06,0
3.321,1.3596e-05,0
3.3215,4.5487e-05,0
3.322,8.3421e-05,0
3.3226,9.9702e-05,0
3.3231,9.5842e-05,0
3.3236,8.7785e-05,0
3.3241,9.5506e-05,0
3.3246,0.00010977,0
3.3252,9.8527e-05,0
3.3257,5.2873e-05,0
3.3262,-3.357e-07,0
3.3267,-3.7766e-05,0
3.3272,-5.2537e-05,0
3.3277,-5.0858e-05,0
3.3283,-3.9277e-05,0
3.3288,-1.9974e-05,0
3.3293,1.0239e-05,0
3.3298,4.7837e-05,0
3.3303,7.4357e-05,0
3.3309,7.805e-05,0
3.3314,7.6371e-05,0
3.3319,7.7043e-05,0
3.3324,6.5629e-05,0
3.3329,4.0116e-05,0
3.3335,1.1582e-05,0
3.334,-1.0575e-05,0
3.3345,-3.0381e-05,0
3.335,-5.5558e-05,0
3.3355,-7.6204e-05,0
3.3361,-7.4357e-05,0
3.3366,-5.9419e-05,0
3.3371,-4.7501e-05,0
3.3376,-4.1962e-05,0
3.3381,-3.4241e-05,0
3.3387,-1.9303e-05,0
3.3392,-4.5319e-06,0
3.3397,4.0284e-06,0
3.3402,9.2317e-06,0
3.3407,1.5946e-05,0
3.3413,2.4002e-05,0
3.3418,3.3738e-05,0
3.3423,5.0858e-05,0
3.3428,7.8218e-05,0
3.3433,0.00010121,0
3.3438,0.00010524,0
3.3444,9.0806e-05,0
3.3449,6.8986e-05,0
3.3454,4.8508e-05,0
3.3459,3.0045e-05,0
3.3464,4.0284e-06,0
3.347,-3.2731e-05,0
3.3475,-6.3279e-05,0
3.348,-6.8818e-05,0
3.3485,-5.5726e-05,0
3.349,-3.7095e-05,0
3.3496,-1.8967e-05,0
3.3501,0,0
3.3506,1.7456e-05,0
3.3511,3.743e-05,0
3.3516,6.3615e-05,0
3.3522,8.04e-05,0
3.3527,7.7714e-05,0
3.3532,6.5293e-05,0
3.3537,5.6733e-05,0
3.3542,5.9922e-05,0
3.3548,6.479e-05,0
3.3553,6.1601e-05,0
3.3558,4.8676e-05,0
3.3563,3.3066e-05,0
3.3568,2.2492e-05,0
3.3573,1.7624e-05,0
3.3579,1.9471e-05,0
3.3584,2.6352e-05,0
3.3589,2.7863e-05,0
3.3594,1.9806e-05,0
3.3599,9.0639e-06,0
3.3605,1.2085e-05,0
3.361,4.7166e-05,0
3.3615,9.6513e-05,0
3.362,0.00011632,0
3.3625,9.0806e-05,0
3.3631,4.3305e-05,0
3.3636,1.8463e-06,0
3.3641,-2.7024e-05,0
3.3646,-4.7669e-05,0
3.3651,-6.5293e-05,0
3.3657,-7.805e-05,0
3.3662,-8.4428e-05,0
3.3667,-8.51e-05,0
3.3672,-7.2007e-05,0
3.3677,-4.3809e-05,0
3.3683,-1.4267e-05,0
3.3688,1.0575e-05,0
3.3693,3.1724e-05,0
3.3698,4.1459e-05,0
3.3703,3.7095e-05,0
3.3708,3.0716e-05,0
3.3714,3.3402e-05,0
3.3719,4.0116e-05,0
3.3724,4.5655e-05,0
3.3729,5.0858e-05,0
3.3734,5.7572e-05,0
3.374,6.6636e-05,0
3.3745,7.1839e-05,0
3.375,6.4958e-05,0
3.3755,5.2201e-05,0
3.376,4.062e-05,0
3.3766,3.6423e-05,0
3.3771,4.4144e-05,0
3.3776,6.1601e-05,0
3.3781,7.8218e-05,0
3.3786,7.4357e-05,0
3.3792,4.9851e-05,0
3.3797,2.2492e-05,0
3.3802,5.539e-06,0
3.3807,3.357e-06,0
3.3812,7.8889e-06,0
3.3817,1.1078e-05,0
3.3823,1.8463e-05,0
3.3828,4.0452e-05,0
3.3833,5.8244e-05,0
3.3838,4.9516e-05,0
3.3843,1.5946e-05,0
3.3849,-2.1149e-05,0
3.3854,-4.0452e-05,0
3.3859,-3.8605e-05,0
3.3864,-3.743e-05,0
3.3869,-5.0858e-05,0
3.3875,-7.0497e-05,0
3.388,-7.9393e-05,0
3.3885,-7.9057e-05,0
3.389,-7.9728e-05,0
3.3895,-8.3253e-05,0
3.3901,-7.1336e-05,0
3.3906,-3.2563e-05,0
3.3911,2.0645e-05,0
3.3916,6.4118e-05,0
3.3921,9.0303e-05,0
3.3927,0.00012975,0
3.3932,0.00019756,0
3.3937,0.00025295,0
3.3942,0.00025429,0
3.3947,0.0001942,0
3.3952,9.5171e-05,0
3.3958,-2.0142e-06,0
3.3963,-6.3951e-05,0
3.3968,-9.1478e-05,0
3.3973,-0.00010289,0
3.3978,-0.00011766,0
3.3984,-0.00014351,0
3.3989,-0.00015644,0
3.3994,-0.00013327,0
3.3999,-8.9464e-05,0
3.4004,-6.1265e-05,0
3.401,-6.1265e-05,0
3.4015,-7.0665e-05,0
3.402,-6.6468e-05,0
3.4025,-4.5151e-05,0
3.403,-2.0478e-05,0
3.4036,-5.0355e-07,0
3.4041,1.5946e-05,0
3.4046,2.9206e-05,0
3.4051,4.2298e-05,0
3.4056,6.1433e-05,0
3.4062,8.2078e-05,0
3.4067,9.4835e-05,0
3.4072,0.00010356,0
3.4077,0.00011229,0
3.4082,0.00011212,0
3.4087,0.00010021,0
3.4093,8.6275e-05,0
3.4098,7.3686e-05,0
3.4103,6.2272e-05,0
3.4108,4.9012e-05,0
3.4113,3.743e-05,0
3.4119,4.2466e-05,0
3.4124,5.9754e-05,0
3.4129,7.2343e-05,0
3.4134,7.1672e-05,0
3.4139,6.4958e-05,0
3.4145,6.4118e-05,0
3.415,6.3951e-05,0
3.4155,5.0858e-05,0
3.416,2.5345e-05,0
3.4165,-1.8463e-06,0
3.4171,-1.4603e-05,0
3.4176,-1.091e-05,0
3.4181,2.8534e-06,0
3.4186,2.1653e-05,0
3.4191,4.6159e-05,0
3.4197,6.6636e-05,0
3.4202,7.4189e-05,0
3.4207,7.3686e-05,0
3.4212,6.0761e-05,0
3.4217,3.1388e-05,0
3.4223,8.3925e-06,0
3.4228,3.5248e-06,0
3.4233,-9.5674e-06,0
3.4238,-4.0452e-05,0
3.4243,-5.7237e-05,0
3.4248,-4.3641e-05,0
3.4254,-1.9135e-05,0
3.4259,-3.1891e-06,0
3.4264,2.6856e-06,0
3.4269,1.2589e-05,0
3.4274,3.508e-05,0
3.428,5.5222e-05,0
3.4285,5.8747e-05,0
3.429,4.9683e-05,0
3.4295,3.3402e-05,0
3.43,1.7792e-05,0
3.4306,4.8676e-06,0
3.4311,-5.539e-06,0
3.4316,-5.2033e-06,0
3.4321,1.8463e-06,0
3.4326,6.8818e-06,0
3.4332,7.5532e-06,0
3.4337,9.0639e-06,0
3.4342,2.8031e-05,0
3.4347,7.2679e-05,0
3.4352,0.00011716,0
3.4358,0.00014687,0
3.4363,0.00018178,0
3.4368,0.00022878,0
3.4373,0.00025765,0
3.4378,0.00023684,0
3.4383,0.00016869,0
3.4389,7.6539e-05,0
3.4394,-1.5274e-05,0
3.4399,-8.0735e-05,0
3.4404,-0.00011044,0
3.4409,-0.00013948,0
3.4415,-0.00019353,0
3.442,-0.00023046,0
3.4425,-0.00020293,0
3.443,-0.00012807,0
3.4435,-5.388e-05,0
3.4441,-1.0239e-05,0
3.4446,-2.8534e-06,0
3.4451,-1.5946e-05,0
3.4456,-3.0045e-05,0
3.4461,-3.743e-05,0
3.4467,-4.3305e-05,0
3.4472,-4.8341e-05,0
3.4477,-4.8844e-05,0
3.4482,-5.1362e-05,0
3.4487,-5.7237e-05,0
3.4493,-5.6062e-05,0
3.4498,-3.8773e-05,0
3.4503,-1.4267e-05,0
3.4508,5.8747e-06,0
3.4513,2.3163e-05,0
3.4518,3.4745e-05,0
3.4524,3.8437e-05,0
3.4529,4.5487e-05,0
3.4534,6.4286e-05,0
3.4539,8.5771e-05,0
3.4544,0.00010004,0
3.455,0.00010121,0
3.4555,8.7114e-05,0
3.456,5.5894e-05,0
3.4565,1.7121e-05,0
3.457,-7.7211e-06,0
3.4576,-1.2253e-05,0
3.4581,-1.6617e-05,0
3.4586,-3.8102e-05,0
3.4591,-5.539e-05,0
3.4596,-4.2466e-05,0
3.4602,-3.6927e-06,0
3.4607,3.4073e-05,0
3.4612,5.3376e-05,0
3.4617,5.9922e-05,0
3.4622,6.8147e-05,0
3.4628,7.7714e-05,0
3.4633,7.7714e-05,0
3.4638,6.7308e-05,0
3.4643,5.153e-05,0
3.4648,2.9374e-05,0
3.4653,-1.6785e-07,0
3.4659,-2.2995e-05,0
3.4664,-2.7359e-05,0
3.4669,-1.7121e-05,0
3.4674,-1.8463e-06,0
3.4679,1.796e-05,0
3.4685,4.3977e-05,0
3.469,6.1936e-05,0
3.4695,6.4286e-05,0
3.47,5.9754e-05,0
3.4705,5.8747e-05,0
3.4711,5.623e-05,0
3.4716,5.0019e-05,0
3.4721,3.8437e-05,0
3.4726,1.6617e-05,0
3.4731,-8.3925e-07,0
3.4737,-8.3925e-07,0
3.4742,1.8296e-05,0
3.4747,4.0955e-05,0
3.4752,4.7669e-05,0
3.4757,3.7934e-05,0
3.4762,3.3906e-05,0
3.4768,4.9516e-05,0
3.4773,7.2847e-05,0
3.4778,8.9799e-05,0
3.4783,9.5842e-05,0
3.4788,0.00010356,0
3.4794,0.00011666,0
3.4799,0.00012404,0
3.4804,0.00011699,0
3.4809,8.9464e-05,0
3.4814,5.2537e-05,0
3.482,3.2059e-05,0
3.4825,2.3499e-05,0
3.483,4.6998e-06,0
3.4835,-3.3738e-05,0
3.484,-8.1239e-05,0
3.4846,-0.00011028,0
3.4851,-0.00010944,0
3.4856,-9.4499e-05,0
3.4861,-7.0832e-05,0
3.4866,-3.592e-05,0
3.4872,5.2033e-06,0
3.4877,5.2873e-05,0
3.4882,0.00011078,0
3.4887,0.00014888,0
3.4892,0.00014553,0
3.4897,0.00010323,0
3.4903,4.2634e-05,0
3.4908,-1.3931e-05,0
3.4913,-5.6565e-05,0
3.4918,-8.7114e-05,0
3.4923,-0.00010323,0
3.4929,-9.5842e-05,0
3.4934,-6.9993e-05,0
3.4939,-3.7095e-05,0
3.4944,-4.8676e-06,0
3.4949,2.4674e-05,0
3.4955,5.3544e-05,0
3.496,7.6371e-05,0
3.4965,8.9128e-05,0
3.497,9.8863e-05,0
3.4975,0.00010977,0
3.4981,0.00011196,0
3.4986,9.2485e-05,0
3.4991,4.5151e-05,0
3.4996,-2.0645e-05,0
3.5001,-5.8579e-05,0
3.5007,-4.0116e-05,0
3.5012,-4.8676e-06,0
3.5017,-5.2033e-06,0
3.5022,-3.7766e-05,0
3.5027,-6.0258e-05,0
3.5032,-4.5823e-05,0
3.5038,9.2317e-06,0
3.5043,8.0735e-05,0
3.5048,0.00015023,0
3.5053,0.0001942,0
3.5058,0.00017977,0
3.5064,0.00011179,0
3.5069,3.508e-05,0
3.5074,1.5106e-06,0
3.5079,2.1988e-05,0
3.5084,5.9586e-05,0
3.509,7.0665e-05,0
3.5095,4.1459e-05,0
3.51,-1.6281e-05,0
3.5105,-7.3518e-05,0
3.511,-9.8863e-05,0
3.5116,-0.00010054,0
3.5121,-0.00012639,0
3.5126,-0.00018346,0
3.5131,-0.00021233,0
3.5136,-0.00017104,0
3.5142,-9.0806e-05,0
3.5147,-3.508e-05,0
3.5152,-1.7121e-05,0
3.5157,-1.7456e-05,0
3.5162,-2.4674e-05,0
3.5168,-3.3402e-05,0
3.5173,-4.1123e-05,0
3.5178,-3.5248e-05,0
3.5183,-1.2421e-05,0
3.5188,-2.8534e-06,0
3.5193,-8.896e-06,0
3.5199,-1.4603e-05,0
3.5204,-1.4603e-05,0
3.5209,-1.326e-05,0
3.5214,-7.2175e-06,0
3.5219,-8.3925e-07,0
3.5225,4.6998e-06,0
3.523,2.5513e-05,0
3.5235,6.5965e-05,0
3.524,0.00010188,0
3.5245,0.00010759,0
3.5251,9.3828e-05,0
3.5256,8.0903e-05,0
3.5261,7.7379e-05,0
3.5266,7.3518e-05,0
3.5271,6.5293e-05,0
3.5277,8.3253e-05,0
3.5282,0.00012874,0
3.5287,0.0001613,0
3.5292,0.00015962,0
3.5297,0.00013646,0
3.5303,9.8863e-05,0
3.5308,4.9851e-05,0
3.5313,-2.8534e-06,0
3.5318,-3.7766e-05,0
3.5323,-4.3305e-05,0
3.5328,-3.7766e-05,0
3.5334,-2.7359e-05,0
3.5339,3.0213e-06,0
3.5344,5.153e-05,0
3.5349,8.275e-05,0
3.5354,6.2608e-05,0
3.536,7.3854e-06,0
3.5365,-4.2298e-05,0
3.537,-6.9154e-05,0
3.5375,-7.5029e-05,0
3.538,-6.5629e-05,0
3.5386,-4.9851e-05,0
3.5391,-4.0116e-05,0
3.5396,-2.9206e-05,0
3.5401,-8.7282e-06,0
3.5406,1.6953e-05,0
3.5412,3.7934e-05,0
3.5417,4.8005e-05,0
3.5422,4.9516e-05,0
3.5427,4.7501e-05,0
3.5432,4.6159e-05,0
3.5438,4.6159e-05,0
3.5443,5.0019e-05,0
3.5448,5.623e-05,0
3.5453,6.0258e-05,0
3.5458,6.1936e-05,0
3.5463,6.0594e-05,0
3.5469,5.8244e-05,0
3.5474,5.8244e-05,0
3.5479,6.3615e-05,0
3.5484,6.8818e-05,0
3.5489,6.479e-05,0
3.5495,5.7908e-05,0
3.55,5.1865e-05,0
3.5505,4.4144e-05,0
3.551,3.3234e-05,0
3.5515,2.6688e-05,0
3.5521,3.0045e-05,0
3.5526,3.508e-05,0
3.5531,3.0716e-05,0
3.5536,1.8128e-05,0
3.5541,1.3931e-05,0
3.5547,2.501e-05,0
3.5552,3.8102e-05,0
3.5557,4.3809e-05,0
3.5562,4.8173e-05,0
3.5567,7.0665e-05,0
3.5572,0.00010893,0
3.5578,0.0001321,0
3.5583,0.000118,0
3.5588,7.4525e-05,0
3.5593,3.4073e-05,0
3.5598,1.4603e-05,0
3.5604,0,0
3.5609,-2.4338e-05,0
3.5614,-5.2873e-05,0
3.5619,-7.3182e-05,0
3.5624,-6.6133e-05,0
3.563,-2.9877e-05,0
3.5635,9.9031e-06,0
3.564,3.1052e-05,0
3.5645,3.0381e-05,0
3.565,1.9135e-05,0
3.5656,7.8889e-06,0
3.5661,5.0355e-07,0
3.5666,-3.8605e-06,0
3.5671,-5.539e-06,0
3.5676,-1.8463e-06,0
3.5682,2.3499e-06,0
3.5687,2.5177e-06,0
3.5692,-1.5106e-06,0
3.5697,-8.3925e-07,0
3.5702,1.3092e-05,0
3.5707,2.8534e-05,0
3.5713,2.9374e-05,0
3.5718,1.2253e-05,0
3.5723,-7.8889e-06,0
3.5728,-1.3596e-05,0
3.5733,7.3854e-06,0
3.5739,4.1962e-05,0
3.5744,6.2608e-05,0
3.5749,5.304e-05,0
3.5754,3.0549e-05,0
3.5759,2.4002e-05,0
3.5765,2.652e-05,0
3.577,8.0568e-06,0
3.5775,-3.9612e-05,0
3.578,-9.5506e-05,0
3.5785,-0.00012488,0
3.5791,-0.00010793,0
3.5796,-7.2679e-05,0
3.5801,-6.5629e-05,0
3.5806,-7.4357e-05,0
3.5811,-5.6565e-05,0
3.5817,-1.2085e-05,0
3.5822,3.4409e-05,0
3.5827,7.4357e-05,0
3.5832,0.00010658,0
3.5837,0.00012186,0
3.5842,0.00010591,0
3.5848,6.3783e-05,0
3.5853,1.561e-05,0
3.5858,-1.6449e-05,0
3.5863,-3.1724e-05,0
3.5868,-4.3977e-05,0
3.5874,-4.9348e-05,0
3.5879,-3.9109e-05,0
3.5884,-1.9303e-05,0
3.5889,-3.357e-07,0
3.5894,1.9135e-05,0
3.59,4.5823e-05,0
3.5905,7.2343e-05,0
3.591,8.0064e-05,0
3.5915,6.9322e-05,0
3.592,4.8173e-05,0
3.5926,2.4002e-05,0
3.5931,1.2421e-05,0
3.5936,1.7121e-05,0
3.5941,2.5177e-05,0
3.5946,2.5681e-05,0
3.5952,2.0981e-05,0
3.5957,1.9303e-05,0
3.5962,2.7192e-05,0
3.5967,3.8102e-05,0
3.5972,4.8508e-05,0
3.5978,6.2272e-05,0
3.5983,7.2007e-05,0
3.5988,6.8482e-05,0
3.5993,5.4215e-05,0
3.5998,3.122e-05,0
3.6003,1.8463e-06,0
3.6009,-2.3331e-05,0
3.6014,-3.6759e-05,0
3.6019,-4.4144e-05,0
3.6024,-4.5823e-05,0
3.6029,-3.1891e-05,0
3.6035,-7.0497e-06,0
3.604,1.4603e-05,0
3.6045,2.7695e-05,0
3.605,3.8605e-05,0
3.6055,4.6494e-05,0
3.6061,5.0858e-05,0
3.6066,5.9419e-05,0
3.6071,8.51e-05,0
3.6076,0.00012337,0
3.6081,0.00015459,0
3.6087,0.00017708,0
3.6092,0.00019924,0
3.6097,0.00020931,0
3.6102,0.00020159,0
3.6107,0.00018648,0
3.6113,0.00014318,0
3.6118,5.623e-05,0
3.6123,-4.448e-05,0
3.6128,-0.00013059,0
3.6133,-0.00018967,0
3.6138,-0.00020713,0
3.6144,-0.00018447,0
3.6149,-0.00014586,0
3.6154,-0.00011196,0
3.6159,-6.8986e-05,0
3.6164,-1.0239e-05,0
3.617,3.508e-05,0
3.6175,4.5487e-05,0
3.618,3.4745e-05,0
3.6185,3.3402e-05,0
3.619,4.5823e-05,0
3.6196,5.4887e-05,0
3.6201,5.0187e-05,0
3.6206,5.0523e-05,0
3.6211,7.4357e-05,0
3.6216,0.00010021,0
3.6222,0.00011212,0
3.6227,0.00010759,0
3.6232,7.9225e-05,0
3.6237,3.6088e-05,0
3.6242,-3.6927e-06,0
3.6248,-3.2059e-05,0
3.6253,-4.8508e-05,0
3.6258,-5.4887e-05,0
3.6263,-6.1936e-05,0
3.6268,-6.9657e-05,0
3.6273,-6.9322e-05,0
3.6279,-6.3447e-05,0
3.6284,-6.0594e-05,0
3.6289,-6.6636e-05,0
3.6294,-6.0761e-05,0
3.6299,-2.3331e-05,0
3.6305,3.0045e-05,0
3.631,7.3686e-05,0
3.6315,9.2988e-05,0
3.632,8.7282e-05,0
3.6325,6.7643e-05,0
3.6331,4.2802e-05,0
3.6336,1.5946e-05,0
3.6341,-2.8534e-06,0
3.6346,-1.091e-05,0
3.6351,-1.6785e-05,0
3.6357,-2.3499e-05,0
3.6362,-3.2059e-05,0
3.6367,-3.5248e-05,0
3.6372,-2.1988e-05,0
3.6377,3.1891e-06,0
3.6383,2.1317e-05,0
3.6388,2.501e-05,0
3.6393,2.4674e-05,0
3.6398,3.0716e-05,0
3.6403,3.8102e-05,0
3.6408,4.3809e-05,0
3.6414,4.8173e-05,0
3.6419,4.6326e-05,0
3.6424,3.7095e-05,0
3.6429,3.2731e-05,0
3.6434,4.1459e-05,0
3.644,5.3544e-05,0
3.6445,6.3279e-05,0
3.645,7.3182e-05,0
3.6455,7.9057e-05,0
3.646,7.3014e-05,0
3.6466,5.8915e-05,0
3.6471,5.2033e-05,0
3.6476,5.4215e-05,0
3.6481,5.539e-05,0
3.6486,4.8173e-05,0
3.6492,3.122e-05,0
3.6497,1.2421e-05,0
3.6502,4.3641e-06,0
3.6507,1.1246e-05,0
3.6512,1.9638e-05,0
3.6517,2.5177e-05,0
3.6523,2.9709e-05,0
3.6528,3.0716e-05,0
3.6533,3.5416e-05,0
3.6538,6.7979e-05,0
3.6543,0.00012975,0
3.6549,0.00018161,0
3.6554,0.0001791,0
3.6559,0.00012471,0
3.6564,4.6494e-05,0
3.6569,-3.2395e-05,0
3.6575,-8.8121e-05,0
3.658,-0.00010222,0
3.6585,-7.8553e-05,0
3.659,-4.1459e-05,0
3.6595,-1.091e-05,0
3.6601,6.3783e-06,0
3.6606,1.2589e-05,0
3.6611,7.2175e-06,0
3.6616,0,0
3.6621,-5.539e-06,0
3.6627,-1.2253e-05,0
3.6632,-5.7069e-06,0
3.6637,2.7359e-05,0
3.6642,7.1504e-05,0
3.6647,0.00010155,0
3.6652,9.8863e-05,0
3.6658,5.9922e-05,0
3.6663,-1.1749e-06,0
3.6668,-6.4286e-05,0
3.6673,-0.00011196,0
3.6678,-0.00015358,0
3.6684,-0.00018312,0
3.6689,-0.00017574,0
3.6694,-0.00013445,0
3.6699,-8.7953e-05,0
3.6704,-4.7669e-05,0
3.671,-1.0407e-05,0
3.6715,9.9031e-06,0
3.672,1.5106e-06,0
3.6725,-1.4267e-05,0
3.673,-1.6617e-05,0
3.6736,-1.2589e-05,0
3.6741,-1.091e-05,0
3.6746,-8.3925e-07,0
3.6751,2.7359e-05,0
3.6756,5.9251e-05,0
3.6762,8.4932e-05,0
3.6767,0.00010491,0
3.6772,0.00011666,0
3.6777,0.00011179,0
3.6782,8.5771e-05,0
3.6787,5.0187e-05,0
3.6793,1.7624e-05,0
3.6798,-6.5461e-06,0
3.6803,-1.7288e-05,0
3.6808,-1.2924e-05,0
3.6813,-1.1749e-06,0
3.6819,1.0575e-05,0
3.6824,2.3163e-05,0
3.6829,3.6423e-05,0
3.6834,5.3544e-05,0
3.6839,7.3182e-05,0
3.6845,8.2918e-05,0
3.685,8.0064e-05,0
3.6855,6.8986e-05,0
3.686,5.4215e-05,0
3.6865,4.2802e-05,0
3.6871,3.6255e-05,0
3.6876,2.9206e-05,0
3.6881,1.9135e-05,0
3.6886,9.7353e-06,0
3.6891,4.5319e-06,0
3.6897,3.8605e-06,0
3.6902,8.5603e-06,0
3.6907,1.5946e-05,0
3.6912,1.9974e-05,0
3.6917,2.5345e-05,0
3.6923,3.3906e-05,0
3.6928,4.6159e-05,0
3.6933,6.7475e-05,0
3.6938,8.7114e-05,0
3.6943,8.5267e-05,0
3.6948,6.1601e-05,0
3.6954,4.062e-05,0
3.6959,3.3402e-05,0
3.6964,4.3137e-05,0
3.6969,7.1e-05,0
3.6974,9.3828e-05,0
3.698,9.5506e-05,0
3.6985,7.6371e-05,0
3.699,4.2466e-05,0
3.6995,5.539e-06,0
3.7,-1.7456e-05,0
3.7006,-1.7288e-05,0
3.7011,-5.0355e-07,0
3.7016,3.3066e-05,0
3.7021,8.8624e-05,0
3.7026,0.0001373,0
3.7032,0.00015358,0
3.7037,0.0001472,0
3.7042,0.00011934,0
3.7047,6.4286e-05,0
3.7052,-3.8605e-06,0
3.7058,-6.1936e-05,0
3.7063,-0.00010188,0
3.7068,-0.00011968,0
3.7073,-0.00011565,0
3.7078,-8.3925e-05,0
3.7083,-2.4002e-05,0
3.7089,2.0645e-05,0
3.7094,2.5177e-06,0
3.7099,-4.6494e-05,0
3.7104,-6.0258e-05,0
3.7109,-1.8296e-05,0
3.7115,4.2298e-05,0
3.712,7.0329e-05,0
3.7125,8.3925e-05,0
3.713,0.00010558,0
3.7135,0.00011128,0
3.7141,7.8386e-05,0
3.7146,7.2175e-06,0
3.7151,-8.0064e-05,0
3.7156,-0.00016919,0
3.7161,-0.00023197,0
3.7167,-0.00024086,0
3.7172,-0.00021199,0
3.7177,-0.00017003,0
3.7182,-0.00013042,0
3.7187,-9.0135e-05,0
3.7193,-5.6733e-05,0
3.7198,-3.3066e-05,0
3.7203,-4.8676e-06,0
3.7208,2.6017e-05,0
3.7213,4.4144e-05,0
3.7218,5.2873e-05,0
3.7224,6.1601e-05,0
3.7229,6.5461e-05,0
3.7234,5.5055e-05,0
3.7239,3.7766e-05,0
3.7244,2.8534e-05,0
3.725,2.7863e-05,0
3.7255,2.3331e-05,0
3.726,1.7288e-05,0
3.7265,2.4674e-05,0
3.727,4.3977e-05,0
3.7276,5.8244e-05,0
3.7281,6.2943e-05,0
3.7286,6.5629e-05,0
3.7291,6.8315e-05,0
3.7296,6.5629e-05,0
3.7302,5.7237e-05,0
3.7307,5.2201e-05,0
3.7312,5.4383e-05,0
3.7317,6.1601e-05,0
3.7322,6.865e-05,0
3.7327,7.2679e-05,0
3.7333,7.3182e-05,0
3.7338,7.1336e-05,0
3.7343,7.0832e-05,0
3.7348,6.7643e-05,0
3.7353,5.7572e-05,0
3.7359,4.2802e-05,0
3.7364,2.7359e-05,0
3.7369,1.9974e-05,0
3.7374,2.3331e-05,0
3.7379,3.1724e-05,0
3.7385,4.1123e-05,0
3.739,5.2201e-05,0
3.7395,6.1936e-05,0
3.74,6.2608e-05,0
3.7405,5.4887e-05,0
3.7411,4.6159e-05,0
3.7416,4.2802e-05,0
3.7421,4.5487e-05,0
3.7426,4.9516e-05,0
3.7431,5.4215e-05,0
3.7437,5.8579e-05,0
3.7442,5.9251e-05,0
3.7447,5.1698e-05,0
3.7452,3.9277e-05,0
3.7457,2.9541e-05,0
3.7462,4.0116e-05,0
3.7468,8.6778e-05,0
3.7473,0.00013747,0
3.7478,0.00014771,0
3.7483,0.00011699,0
3.7488,7.0329e-05,0
3.7494,3.4241e-05,0
3.7499,2.266e-05,0
3.7504,3.8605e-05,0
3.7509,6.4286e-05,0
3.7514,6.2943e-05,0
3.752,2.4674e-05,0
3.7525,-7.5532e-06,0
3.753,-1.1246e-05,0
3.7535,-1.5778e-05,0
3.754,-4.3473e-05,0
3.7546,-7.7714e-05,0
3.7551,-9.9199e-05,0
3.7556,-0.00010961,0
3.7561,-0.00010742,0
3.7566,-9.6849e-05,0
3.7572,-9.0135e-05,0
3.7577,-8.9128e-05,0
3.7582,-8.0903e-05,0
3.7587,-4.0955e-05,0
3.7592,1.5274e-05,0
3.7597,4.8173e-05,0
3.7603,4.2634e-05,0
3.7608,1.3931e-05,0
3.7613,-7.0497e-06,0
3.7618,-1.091e-05,0
3.7623,-2.3499e-06,0
3.7629,5.539e-06,0
3.7634,-9.0639e-06,0
3.7639,-4.7166e-05,0
3.7644,-8.3925e-05,0
3.7649,-0.00010256,0
3.7655,-9.5171e-05,0
3.766,-5.388e-05,0
3.7665,-4.8676e-06,0
3.767,8.0568e-06,0
3.7675,-1.3931e-05,0
3.7681,-2.9541e-05,0
3.7686,-1.9303e-05,0
3.7691,2.5177e-06,0
3.7696,1.8631e-05,0
3.7701,2.5513e-05,0
3.7707,2.8702e-05,0
3.7712,3.0549e-05,0
3.7717,3.122e-05,0
3.7722,3.2731e-05,0
3.7727,3.6255e-05,0
3.7732,3.7095e-05,0
3.7738,3.2059e-05,0
3.7743,2.7359e-05,0
3.7748,3.0884e-05,0
3.7753,3.743e-05,0
3.7758,3.6759e-05,0
3.7764,3.4409e-05,0
3.7769,3.9445e-05,0
3.7774,5.0858e-05,0
3.7779,6.0929e-05,0
3.7784,6.5461e-05,0
3.779,6.3615e-05,0
3.7795,5.8244e-05,0
3.78,5.2033e-05,0
3.7805,4.9851e-05,0
3.781,5.3544e-05,0
3.7816,5.6565e-05,0
3.7821,5.3208e-05,0
3.7826,4.6494e-05,0
3.7831,4.2802e-05,0
3.7836,4.1123e-05,0
3.7842,3.8941e-05,0
3.7847,4.1459e-05,0
3.7852,5.0187e-05,0
3.7857,6.1097e-05,0
3.7862,6.949e-05,0
3.7868,7.1672e-05,0
3.7873,6.5293e-05,0
3.7878,5.2873e-05,0
3.7883,4.1291e-05,0
3.7888,4.1459e-05,0
3.7893,5.153e-05,0
3.7899,5.8244e-05,0
3.7904,5.4551e-05,0
3.7909,4.8173e-05,0
3.7914,5.7069e-05,0
3.7919,8.6778e-05,0
3.7925,0.00011229,0
3.793,0.00011229,0
3.7935,8.5603e-05,0
3.794,4.6159e-05,0
3.7945,1.796e-05,0
3.7951,1.1582e-05,0
3.7956,1.091e-05,0
3.7961,1.5106e-06,0
3.7966,-5.2033e-06,0
3.7971,6.714e-07,0
3.7977,1.7121e-05,0
3.7982,2.3331e-05,0
3.7987,7.7211e-06,0
3.7992,-2.0645e-05,0
3.7997,-4.5823e-05,0
3.8003,-5.2033e-05,0
3.8008,-3.508e-05,0
3.8013,-1.4267e-05,0
3.8018,-1.091e-05,0
3.8023,-2.8702e-05,0
3.8028,-4.8173e-05,0
3.8034,-5.069e-05,0
3.8039,-3.5416e-05,0
3.8044,-1.5946e-05,0
3.8049,-8.896e-06,0
3.8054,-1.2589e-05,0
3.806,-1.6617e-05,0
3.8065,-1.8463e-05,0
3.807,-2.0645e-05,0
3.8075,-2.0981e-05,0
3.808,-7.3854e-06,0
3.8086,2.6688e-05,0
3.8091,6.8147e-05,0
3.8096,0.00011833,0
3.8101,0.00017037,0
3.8106,0.00019991,0
3.8112,0.00019806,0
3.8117,0.0001702,0
3.8122,0.00012152,0
3.8127,5.9419e-05,0
3.8132,4.3641e-06,0
3.8138,-4.3809e-05,0
3.8143,-9.0135e-05,0
3.8148,-0.00012001,0
3.8153,-0.00013109,0
3.8158,-0.00013394,0
3.8163,-0.00014032,0
3.8169,-0.00013797,0
3.8174,-0.00012035,0
3.8179,-9.9702e-05,0
3.8184,-8.7785e-05,0
3.8189,-9.1814e-05,0
3.8195,-9.8192e-05,0
3.82,-8.9799e-05,0
3.8205,-7.2847e-05,0
3.821,-6.4622e-05,0
3.8215,-5.8412e-05,0
3.8221,-3.8102e-05,0
3.8226,-8.7282e-06,0
3.8231,2.0478e-05,0
3.8236,4.3473e-05,0
3.8241,6.009e-05,0
3.8247,7.1672e-05,0
3.8252,8.04e-05,0
3.8257,8.5267e-05,0
3.8262,8.5267e-05,0
3.8267,8.7785e-05,0
3.8272,8.8457e-05,0
3.8278,8.4092e-05,0
3.8283,8.04e-05,0
3.8288,7.57e-05,0
3.8293,6.4958e-05,0
3.8298,5.9586e-05,0
3.8304,6.3615e-05,0
3.8309,6.8315e-05,0
3.8314,7.4525e-05,0
3.8319,8.7953e-05,0
3.8324,0.00010188,0
3.833,0.00010323,0
3.8335,8.51e-05,0
3.834,5.5558e-05,0
3.8345,2.7863e-05,0
3.835,1.2253e-05,0
3.8356,4.3641e-06,0
3.8361,-6.0426e-06,0
3.8366,-1.1749e-05,0
3.8371,6.714e-07,0
3.8376,2.0478e-05,0
3.8382,3.1388e-05,0
3.8387,3.9612e-05,0
3.8392,5.4719e-05,0
3.8397,7.8218e-05,0
3.8402,0.0001086,0
3.8407,0.00013344,0
3.8413,0.00013864,0
3.8418,0.00012639,0
3.8423,9.6178e-05,0
3.8428,5.7572e-05,0
3.8433,2.266e-05,0
3.8439,-1.3596e-05,0
3.8444,-4.7166e-05,0
3.8449,-5.8915e-05,0
3.8454,-4.448e-05,0
3.8459,-2.3667e-05,0
3.8465,-1.796e-05,0
3.847,-2.7695e-05,0
3.8475,-4.1291e-05,0
3.848,-5.3376e-05,0
3.8485,-6.4622e-05,0
3.8491,-6.9993e-05,0
3.8496,-6.0426e-05,0
3.8501,-4.3473e-05,0
3.8506,-2.2995e-05,0
3.8511,-2.182e-06,0
3.8517,8.2246e-06,0
3.8522,7.8889e-06,0
3.8527,8.5603e-06,0
3.8532,1.3428e-05,0
3.8537,1.1917e-05,0
3.8542,1.326e-05,0
3.8548,2.6352e-05,0
3.8553,4.0787e-05,0
3.8558,4.8844e-05,0
3.8563,4.7501e-05,0
3.8568,3.8773e-05,0
3.8574,3.0716e-05,0
3.8579,2.7527e-05,0
3.8584,3.0381e-05,0
3.8589,4.3473e-05,0
3.8594,6.8986e-05,0
3.86,9.1142e-05,0
3.8605,9.2485e-05,0
3.861,7.335e-05,0
3.8615,4.5151e-05,0
3.862,1.4435e-05,0
3.8626,-9.3996e-06,0
3.8631,-1.7121e-05,0
3.8636,-1.4771e-05,0
3.8641,-4.8676e-06,0
3.8646,1.9135e-05,0
3.8652,5.0187e-05,0
3.8657,6.9322e-05,0
3.8662,7.4525e-05,0
3.8667,7.7379e-05,0
3.8672,7.3686e-05,0
3.8678,5.5894e-05,0
3.8683,3.8941e-05,0
3.8688,4.0787e-05,0
3.8693,5.0523e-05,0
3.8698,5.2537e-05,0
3.8703,4.6998e-05,0
3.8709,4.1123e-05,0
3.8714,2.9374e-05,0
3.8719,5.7069e-06,0
3.8724,-2.1149e-05,0
3.8729,-4.4648e-05,0
3.8735,-6.479e-05,0
3.874,-8.2246e-05,0
3.8745,-9.366e-05,0
3.875,-8.5267e-05,0
3.8755,-6.1265e-05,0
3.8761,-3.9948e-05,0
3.8766,-2.7192e-05,0
3.8771,-1.9303e-05,0
3.8776,-1.561e-05,0
3.8781,-1.1749e-05,0
3.8787,5.2033e-06,0
3.8792,3.6423e-05,0
3.8797,6.0761e-05,0
3.8802,7.8218e-05,0
3.8807,0.00010088,0
3.8813,0.00011179,0
3.8818,9.2485e-05,0
3.8823,5.1194e-05,0
3.8828,1.6281e-05,0
3.8833,2.1317e-05,0
3.8838,6.0594e-05,0
3.8844,8.9632e-05,0
3.8849,8.6275e-05,0
3.8854,6.0258e-05,0
3.8859,3.1388e-05,0
3.8864,-8.3925e-07,0
3.887,-3.9948e-05,0
3.8875,-7.0665e-05,0
3.888,-9.5171e-05,0
3.8885,-0.00011901,0
3.889,-0.00011934,0
3.8896,-8.0232e-05,0
3.8901,-6.5461e-06,0
3.8906,6.6804e-05,0
3.8911,0.00010323,0
3.8916,0.00010188,0
3.8922,8.5771e-05,0
3.8927,6.2608e-05,0
3.8932,3.1388e-05,0
3.8937,-1.1749e-06,0
3.8942,-2.2995e-05,0
3.8948,-3.7766e-05,0
3.8953,-6.1601e-05,0
3.8958,-8.3589e-05,0
3.8963,-7.1672e-05,0
3.8968,-3.9445e-05,0
3.8973,-2.4338e-05,0
3.8979,-2.5849e-05,0
3.8984,-8.2246e-06,0
3.8989,4.2802e-05,0
3.8994,8.7785e-05,0
3.8999,9.1478e-05,0
3.9005,5.9586e-05,0
3.901,1.8296e-05,0
3.9015,-9.3996e-06,0
3.902,-2.1317e-05,0
3.9025,-2.5513e-05,0
3.9031,-2.9038e-05,0
3.9036,-3.508e-05,0
3.9041,-3.7598e-05,0
3.9046,-2.8031e-05,0
3.9051,-6.5461e-06,0
3.9057,1.8631e-05,0
3.9062,3.827e-05,0
3.9067,4.8508e-05,0
3.9072,5.8915e-05,0
3.9077,7.7546e-05,0
3.9082,9.7856e-05,0
3.9088,0.0001086,0
3.9093,0.00010658,0
3.9098,9.3828e-05,0
3.9103,7.4357e-05,0
3.9108,5.7572e-05,0
3.9114,4.6662e-05,0
3.9119,3.9948e-05,0
3.9124,3.6591e-05,0
3.9129,3.8437e-05,0
3.9134,3.6088e-05,0
3.914,2.3667e-05,0
3.9145,1.3596e-05,0
3.915,1.9638e-05,0
3.9155,3.5416e-05,0
3.916,4.5655e-05,0
3.9166,4.448e-05,0
3.9171,4.2802e-05,0
3.9176,5.0523e-05,0
3.9181,6.3615e-05,0
3.9186,7.8386e-05,0
3.9192,9.7185e-05,0
3.9197,0.00011464,0
3.9202,0.00012723,0
3.9207,0.00012992,0
3.9212,0.00012035,0
3.9217,0.00010491,0
3.9223,8.7785e-05,0
3.9228,5.7908e-05,0
3.9233,6.3783e-06,0
3.9238,-5.5222e-05,0
3.9243,-0.00010524,0
3.9249,-0.00012656,0
3.9254,-0.00010524,0
3.9259,-5.7908e-05,0
3.9264,-2.031e-05,0
3.9269,-5.539e-06,0
3.9275,-6.5461e-06,0
3.928,-4.6998e-06,0
3.9285,4.1962e-06,0
3.929,1.3931e-05,0
3.9295,2.9038e-05,0
3.9301,6.3447e-05,0
3.9306,9.7353e-05,0
3.9311,9.7017e-05,0
3.9316,6.7811e-05,0
3.9321,3.3402e-05,0
3.9327,-1.1749e-06,0
3.9332,-2.3163e-05,0
3.9337,-1.2589e-05,0
3.9342,1.6281e-05,0
3.9347,3.0381e-05,0
3.9352,2.4674e-05,0
3.9358,2.4002e-05,0
3.9363,2.4002e-05,0
3.9368,5.0355e-07,0
3.9373,-4.0955e-05,0
3.9378,-7.9393e-05,0
3.9384,-9.9199e-05,0
3.9389,-9.3156e-05,0
3.9394,-6.5965e-05,0
3.9399,-3.7095e-05,0
3.9404,-1.2253e-05,0
3.941,1.6617e-05,0
3.9415,4.448e-05,0
3.942,5.7237e-05,0
3.9425,5.3544e-05,0
3.943,4.5151e-05,0
3.9436,3.5752e-05,0
3.9441,3.7095e-05,0
3.9446,4.0787e-05,0
3.9451,2.3331e-05,0
3.9456,-8.896e-06,0
3.9462,-2.1988e-05,0
3.9467,-2.5177e-06,0
3.9472,3.1724e-05,0
3.9477,5.4551e-05,0
3.9482,6.2104e-05,0
3.9487,5.7404e-05,0
3.9493,3.8437e-05,0
3.9498,1.5106e-05,0
3.9503,7.2175e-06,0
3.9508,1.326e-05,0
3.9513,1.1749e-06,0
3.9519,-3.2395e-05,0
3.9524,-4.918e-05,0
3.9529,-4.5151e-05,0
3.9534,-3.9109e-05,0
3.9539,-3.7934e-05,0
3.9545,-5.1194e-05,0
3.955,-7.3182e-05,0
3.9555,-8.661e-05,0
3.956,-8.6946e-05,0
3.9565,-8.04e-05,0
3.9571,-6.9322e-05,0
3.9576,-5.8915e-05,0
3.9581,-4.683e-05,0
3.9586,-3.2059e-05,0
3.9591,-1.796e-05,0
3.9597,-2.8534e-06,0
3.9602,1.6281e-05,0
3.9607,3.978e-05,0
3.9612,6.5965e-05,0
3.9617,8.9464e-05,0
3.9623,0.00011028,0
3.9628,0.00011783,0
3.9633,0.00011296,0
3.9638,0.00011968,0
3.9643,0.00014519,0
3.9648,0.00016097,0
3.9654,0.00015258,0
3.9659,0.0001331,0
3.9664,0.00011263,0
3.9669,9.836e-05,0
3.9674,8.3757e-05,0
3.968,6.5126e-05,0
3.9685,5.2873e-05,0
3.969,4.0116e-05,0
3.9695,1.9638e-05,0
3.97,1.1749e-06,0
3.9706,-9.0639e-06,0
3.9711,3.8605e-06,0
3.9716,4.1627e-05,0
3.9721,8.4092e-05,0
3.9726,0.00011531,0
3.9732,0.00012723,0
3.9737,0.00011934,0
3.9742,9.9702e-05,0
3.9747,7.0832e-05,0
3.9752,2.4506e-05,0
3.9758,-4.3305e-05,0
3.9763,-0.00011078,0
3.9768,-0.00013579,0
3.9773,-0.00012152,0
3.9778,-0.00010121,0
3.9783,-8.8289e-05,0
3.9789,-6.8315e-05,0
3.9794,-3.9948e-05,0
3.9799,-1.5946e-05,0
3.9804,5.0355e-06,0
3.9809,2.1317e-05,0
3.9815,2.8702e-05,0
3.982,2.6017e-05,0
3.9825,1.326e-05,0
3.983,-6.5461e-06,0
3.9835,-3.0213e-05,0
3.9841,-5.0858e-05,0
3.9846,-6.0761e-05,0
3.9851,-5.623e-05,0
3.9856,-3.6927e-05,0
3.9861,-1.2253e-05,0
3.9867,1.6953e-05,0
3.9872,4.6159e-05,0
3.9877,6.009e-05,0
3.9882,5.2537e-05,0
3.9887,3.1052e-05,0
3.9893,1.4603e-05,0
3.9898,1.326e-05,0
3.9903,2.3331e-05,0
3.9908,4.1794e-05,0
3.9913,6.2608e-05,0
3.9918,8.275e-05,0
3.9924,9.9199e-05,0
3.9929,0.00010658,0
3.9934,0.00010155,0
3.9939,9.0135e-05,0
3.9944,7.6371e-05,0
3.995,5.9754e-05,0
3.9955,4.4648e-05,0
3.996,3.1052e-05,0
3.9965,1.2924e-05,0
3.997,-5.539e-06,0
3.9976,-1.0239e-05,0
3.9981,1.6785e-07,0
3.9986,8.896e-06,0
3.9991,5.539e-06,0
3.9996,-1.5106e-06,0
4.0002,2.182e-06,0
4.0007,2.2492e-05,0
4.0012,4.3977e-05,0
4.0017,5.0355e-05,0
4.0022,4.9516e-05,0
4.0027,5.4551e-05,0
4.0033,5.153e-05,0
4.0038,3.0884e-05,0
4.0043,1.7792e-05,0
4.0048,1.9806e-05,0
4.0053,2.7695e-05,0
4.0059,4.2466e-05,0
4.0064,5.2873e-05,0
4.0069,5.0355e-05,0
4.0074,3.6423e-05,0
4.0079,1.6785e-05,0
4.0085,4.1962e-06,0
4.009,8.3925e-07,0
4.0095,6.3783e-06,0
4.01,1.1582e-05,0
4.0105,1.1582e-05,0
4.0111,2.1317e-05,0
4.0116,5.8915e-05,0
4.0121,0.00010155,0
4.0126,0.00011531,0
4.0131,9.7185e-05,0
4.0137,6.8986e-05,0
4.0142,4.683e-05,0
4.0147,2.8702e-05,0
4.0152,1.1246e-05,0
4.0157,-1.8463e-05,0
4.0163,-6.865e-05,0
4.0168,-0.0001368,0
4.0173,-0.00020008,0
4.0178,-0.00021753,0
4.0183,-0.00017171,0
4.0188,-9.5171e-05,0
4.0194,-3.4409e-05,0
4.0199,3.1891e-06,0
4.0204,3.3066e-05,0
4.0209,4.683e-05,0
4.0214,3.6591e-05,0
4.022,3.122e-05,0
4.0225,5.1026e-05,0
4.023,6.63e-05,0
4.0235,4.8005e-05,0
4.024,2.266e-05,0
4.0246,2.266e-05,0
4.0251,4.1627e-05,0
4.0256,5.1865e-05,0
4.0261,4.4144e-05,0
4.0266,3.1891e-05,0
4.0272,3.3066e-05,0
4.0277,4.1459e-05,0
4.0282,3.743e-05,0
4.0287,3.3066e-05,0
4.0292,5.7908e-05,0
4.0297,0.00010457,0
4.0303,0.00013915,0
4.0308,0.00015023,0
4.0313,0.0001509,0
4.0318,0.0001321,0
4.0323,9.1142e-05,0
4.0329,4.8508e-05,0
4.0334,5.7069e-06,0
4.0339,-4.5151e-05,0
4.0344,-8.3421e-05,0
4.0349,-9.5842e-05,0
4.0355,-9.3996e-05,0
4.036,-9.2821e-05,0
4.0365,-8.4092e-05,0
4.037,-5.4047e-05,0
4.0375,-3.5248e-06,0
4.0381,5.1865e-05,0
4.0386,8.7114e-05,0
4.0391,7.9057e-05,0
4.0396,3.508e-05,0
4.0401,-2.5513e-05,0
4.0407,-9.752e-05,0
4.0412,-0.00016281,0
4.0417,-0.0001895,0
4.0422,-0.00016516,0
4.0427,-0.00010558,0
4.0432,-4.9516e-05,0
4.0438,-2.2995e-05,0
4.0443,9.9031e-06,0
4.0448,5.7404e-05,0
4.0453,9.3492e-05,0
4.0458,0.00011447,0
4.0464,0.00012119,0
4.0469,0.00011313,0
4.0474,9.7856e-05,0
4.0479,7.9393e-05,0
4.0484,4.8173e-05,0
4.049,1.9638e-05,0
4.0495,1.1582e-05,0
4.05,2.031e-05,0
4.0505,4.2466e-05,0
4.051,5.4551e-05,0
4.0516,3.8605e-05,0
4.0521,2.1149e-05,0
4.0526,2.2828e-05,0
4.0531,3.4073e-05,0
4.0536,4.5319e-05,0
4.0542,5.0858e-05,0
4.0547,5.3544e-05,0
4.0552,6.1097e-05,0
4.0557,6.4118e-05,0
4.0562,6.0929e-05,0
4.0568,6.0594e-05,0
4.0573,5.4383e-05,0
4.0578,2.8031e-05,0
4.0583,-5.539e-06,0
4.0588,-2.9709e-05,0
4.0593,-4.1962e-05,0
4.0599,-4.9851e-05,0
4.0604,-5.0187e-05,0
4.0609,-3.0716e-05,0
4.0614,9.5674e-06,0
4.0619,4.5823e-05,0
4.0625,5.3544e-05,0
4.063,3.7095e-05,0
4.0635,1.5946e-05,0
4.064,3.5248e-06,0
4.0645,1.0407e-05,0
4.0651,2.4338e-05,0
4.0656,2.6352e-05,0
4.0661,1.5274e-05,0
4.0666,1.7288e-05,0
4.0671,5.7572e-05,0
4.0677,0.00010356,0
4.0682,0.00011196,0
4.0687,8.04e-05,0
4.0692,3.2395e-05,0
4.0697,-1.2085e-05,0
4.0702,-4.448e-05,0
4.0708,-5.8915e-05,0
4.0713,-5.6733e-05,0
4.0718,-4.4816e-05,0
4.0723,-2.7863e-05,0
4.0728,8.3925e-07,0
4.0734,3.9612e-05,0
4.0739,6.7308e-05,0
4.0744,7.4693e-05,0
4.0749,7.1839e-05,0
4.0754,6.5629e-05,0
4.076,6.1265e-05,0
4.0765,6.6133e-05,0
4.077,7.5029e-05,0
4.0775,8.04e-05,0
4.078,7.7379e-05,0
4.0786,6.6804e-05,0
4.0791,4.918e-05,0
4.0796,2.6017e-05,0
4.0801,2.5177e-06,0
4.0806,-1.8967e-05,0
4.0812,-1.8967e-05,0
4.0817,3.6759e-05,0
4.0822,0.00011833,0
4.0827,0.00015593,0
4.0832,0.0001326,0
4.0838,7.6036e-05,0
4.0843,1.4939e-05,0
4.0848,-3.6591e-05,0
4.0853,-8.275e-05,0
4.0858,-0.00012488,0
4.0863,-0.00015358,0
4.0869,-0.0001561,0
4.0874,-0.00013579,0
4.0879,-0.00010558,0
4.0884,-7.5196e-05,0
4.0889,-4.3473e-05,0
4.0895,-1.9974e-05,0
4.09,-1.3596e-05,0
4.0905,-1.4603e-05,0
4.091,-8.896e-06,0
4.0915,2.182e-06,0
4.0921,1.3931e-05,0
4.0926,2.2828e-05,0
4.0931,3.1891e-05,0
4.0936,4.1627e-05,0
4.0941,5.2537e-05,0
4.0947,6.1265e-05,0
4.0952,6.5126e-05,0
4.0957,6.4622e-05,0
4.0962,6.0594e-05,0
4.0967,5.3208e-05,0
4.0972,4.9516e-05,0
4.0978,5.304e-05,0
4.0983,5.7572e-05,0
4.0988,5.2537e-05,0
4.0993,4.3809e-05,0
4.0998,4.4144e-05,0
4.1004,5.0523e-05,0
4.1009,5.2705e-05,0
4.1014,4.9516e-05,0
4.1019,4.683e-05,0
4.1024,4.1794e-05,0
4.103,3.2731e-05,0
4.1035,2.5177e-05,0
4.104,2.1653e-05,0
4.1045,2.0981e-05,0
4.105,2.1317e-05,0
4.1056,2.0981e-05,0
4.1061,1.7288e-05,0
4.1066,1.6114e-05,0
4.1071,3.4409e-05,0
4.1076,6.8147e-05,0
4.1082,8.7449e-05,0
4.1087,7.3686e-05,0
4.1092,4.5319e-05,0
4.1097,3.2059e-05,0
4.1102,3.6759e-05,0
4.1108,4.5487e-05,0
4.1113,4.4816e-05,0
4.1118,3.1052e-05,0
4.1123,1.0071e-05,0
4.1128,-8.896e-06,0
4.1133,-1.2589e-05,0
4.1139,1.1749e-06,0
4.1144,1.796e-05,0
4.1149,2.0813e-05,0
4.1154,1.8631e-05,0
4.1159,2.3667e-05,0
4.1165,3.3066e-05,0
4.117,3.3402e-05,0
4.1175,2.1149e-05,0
4.118,4.1962e-06,0
4.1185,-1.091e-05,0
4.1191,-2.1653e-05,0
4.1196,-2.6352e-05,0
4.1201,-2.3835e-05,0
4.1206,-1.3764e-05,0
4.1211,3.0213e-06,0
4.1217,1.561e-05,0
4.1222,8.2246e-06,0
4.1227,-1.5442e-05,0
4.1232,-2.9038e-05,0
4.1237,-1.561e-05,0
4.1242,2.1317e-05,0
4.1248,6.865e-05,0
4.1253,0.00011263,0
4.1258,0.0001368,0
4.1263,0.00013864,0
4.1268,0.00013193,0
4.1274,0.00013478,0
4.1279,0.00013613,0
4.1284,0.00010927,0
4.1289,6.0761e-05,0
4.1294,2.031e-05,0
4.13,-1.561e-05,0
4.1305,-5.3208e-05,0
4.131,-5.9586e-05,0
4.1315,-2.5513e-05,0
4.132,-6.2104e-06,0
4.1326,-3.743e-05,0
4.1331,-8.6275e-05,0
4.1336,-0.00011716,0
4.1341,-0.00011968,0
4.1346,-9.987e-05,0
4.1352,-7.2847e-05,0
4.1357,-4.8844e-05,0
4.1362,-3.3066e-05,0
4.1367,-3.2563e-05,0
4.1372,-4.9516e-05,0
4.1377,-6.7308e-05,0
4.1383,-6.4958e-05,0
4.1388,-4.7166e-05,0
4.1393,-2.2995e-05,0
4.1398,5.8747e-06,0
4.1403,2.5849e-05,0
4.1409,2.9877e-05,0
4.1414,2.5849e-05,0
4.1419,2.1988e-05,0
4.1424,2.0813e-05,0
4.1429,2.8031e-05,0
4.1435,3.9445e-05,0
4.144,4.7166e-05,0
4.1445,4.8508e-05,0
4.145,4.7669e-05,0
4.1455,6.4286e-05,0
4.1461,0.00010054,0
4.1466,0.00013445,0
4.1471,0.00014653,0
4.1476,0.00013042,0
4.1481,9.5506e-05,0
4.1487,6.0258e-05,0
4.1492,3.9109e-05,0
4.1497,2.417e-05,0
4.1502,8.896e-06,0
4.1507,-3.8605e-06,0
4.1513,-6.0426e-06,0
4.1518,7.7211e-06,0
4.1523,1.3931e-05,0
4.1528,2.0142e-06,0
4.1533,-1.2085e-05,0
4.1538,-2.3667e-05,0
4.1544,-4.1794e-05,0
4.1549,-5.5894e-05,0
4.1554,-4.8173e-05,0
4.1559,-2.3835e-05,0
4.1564,8.3925e-07,0
4.157,1.7121e-05,0
4.1575,2.8367e-05,0
4.158,3.6255e-05,0
4.1585,2.8031e-05,0
4.159,1.5106e-06,0
4.1596,-2.0478e-05,0
4.1601,-2.2995e-05,0
4.1606,-1.3092e-05,0
4.1611,-5.2033e-06,0
4.1616,1.5106e-06,0
4.1622,1.4603e-05,0
4.1627,3.5752e-05,0
4.1632,6.0594e-05,0
4.1637,8.4092e-05,0
4.1642,8.51e-05,0
4.1647,5.0858e-05,0
4.1653,5.539e-06,0
4.1658,-1.9303e-05,0
4.1663,-2.3835e-05,0
4.1668,-2.6017e-05,0
4.1673,-2.7695e-05,0
4.1679,-1.6281e-05,0
4.1684,-2.182e-06,0
4.1689,2.182e-06,0
4.1694,7.8889e-06,0
4.1699,2.4002e-05,0
4.1705,4.2802e-05,0
4.171,5.6565e-05,0
4.1715,6.2943e-05,0
4.172,6.244e-05,0
4.1725,5.5055e-05,0
4.1731,4.8173e-05,0
4.1736,6.0258e-05,0
4.1741,9.0974e-05,0
4.1746,0.00012203,0
4.1751,0.00014804,0
4.1757,0.00017507,0
4.1762,0.00019924,0
4.1767,0.00019638,0
4.1772,0.00014955,0
4.1777,7.2007e-05,0
4.1783,-1.3596e-05,0
4.1788,-7.2847e-05,0
4.1793,-8.6778e-05,0
4.1798,-8.3085e-05,0
4.1803,-9.6178e-05,0
4.1808,-0.00010977,0
4.1814,-9.6849e-05,0
4.1819,-5.9754e-05,0
4.1824,-1.6449e-05,0
4.1829,8.2246e-06,0
4.1834,1.2589e-05,0
4.184,6.2104e-06,0
4.1845,-2.182e-06,0
4.185,-5.0355e-06,0
4.1855,3.357e-06,0
4.186,2.0981e-05,0
4.1866,3.5416e-05,0
4.1871,3.6088e-05,0
4.1876,3.3402e-05,0
4.1881,3.5416e-05,0
4.1886,3.1052e-05,0
4.1892,1.5946e-05,0
4.1897,-2.8534e-06,0
4.1902,-1.9974e-05,0
4.1907,-3.9948e-05,0
4.1912,-6.0258e-05,0
4.1917,-7.7546e-05,0
4.1923,-8.426e-05,0
4.1928,-7.0665e-05,0
4.1933,-3.978e-05,0
4.1938,-7.5532e-06,0
4.1943,1.6281e-05,0
4.1949,3.1556e-05,0
4.1954,4.5487e-05,0
4.1959,6.9657e-05,0
4.1964,9.987e-05,0
4.1969,0.00011666,0
4.1975,0.00012018,0
4.198,0.00012102,0
4.1985,0.00012337,0
4.199,0.00012572,0
4.1995,0.0001227,0
4.2001,0.00010961,0
4.2006,8.9799e-05,0
4.2011,7.4189e-05,0
4.2016,6.3279e-05,0
4.2021,4.0116e-05,0
4.2027,6.3783e-06,0
4.2032,-2.7863e-05,0
4.2037,-5.0523e-05,0
4.2042,-4.2802e-05,0
4.2047,-1.2589e-05,0
4.2053,2.1149e-05,0
4.2058,4.062e-05,0
4.2063,3.1052e-05,0
4.2068,4.5319e-06,0
4.2073,-7.0497e-06,0
4.2078,-3.357e-06,0
4.2084,-8.2246e-06,0
4.2089,-7.0497e-06,0
4.2094,2.4842e-05,0
4.2099,6.0761e-05,0
4.2104,7.0329e-05,0
4.211,5.7908e-05,0
4.2115,3.4409e-05,0
4.212,-2.5177e-06,0
4.2125,-4.8005e-05,0
4.213,-8.2918e-05,0
4.2136,-9.5338e-05,0
4.2141,-9.8024e-05,0
4.2146,-9.4499e-05,0
4.2151,-8.04e-05,0
4.2156,-6.0594e-05,0
4.2162,-3.7766e-05,0
4.2167,-1.1582e-05,0
4.2172,1.326e-05,0
4.2177,1.9974e-05,0
4.2182,-3.357e-07,0
4.2188,-2.5849e-05,0
4.2193,-3.4073e-05,0
4.2198,-2.417e-05,0
4.2203,-1.5946e-05,0
4.2208,-3.1724e-05,0
4.2213,-4.8005e-05,0
4.2219,-3.122e-05,0
4.2224,1.0239e-05,0
4.2229,4.683e-05,0
4.2234,6.7643e-05,0
4.2239,7.6707e-05,0
4.2245,8.9799e-05,0
4.225,0.00010423,0
4.2255,0.0001039,0
4.226,8.8289e-05,0
4.2265,7.7043e-05,0
4.2271,9.366e-05,0
4.2276,0.00011867,0
4.2281,0.00012035,0
4.2286,9.2821e-05,0
4.2291,6.6133e-05,0
4.2297,6.4286e-05,0
4.2302,6.949e-05,0
4.2307,5.4215e-05,0
4.2312,1.1749e-05,0
4.2317,-3.0884e-05,0
4.2322,-4.2466e-05,0
4.2328,-3.2731e-05,0
4.2333,-2.6688e-05,0
4.2338,-2.7359e-05,0
4.2343,-2.4002e-05,0
4.2348,-1.8296e-05,0
4.2354,-1.5106e-05,0
4.2359,-1.2253e-05,0
4.2364,-7.3854e-06,0
4.2369,1.6785e-07,0
4.2374,9.9031e-06,0
4.238,2.7024e-05,0
4.2385,5.1865e-05,0
4.239,7.2343e-05,0
4.2395,7.3182e-05,0
4.24,5.4719e-05,0
4.2406,3.1052e-05,0
4.2411,1.9974e-05,0
4.2416,3.4745e-05,0
4.2421,5.4551e-05,0
4.2426,5.1865e-05,0
4.2432,2.9709e-05,0
4.2437,1.8631e-05,0
4.2442,2.9374e-05,0
4.2447,3.4073e-05,0
4.2452,2.1149e-05,0
4.2458,7.2175e-06,0
4.2463,-3.357e-07,0
4.2468,5.539e-06,0
4.2473,3.5752e-05,0
4.2478,6.8315e-05,0
4.2483,7.4189e-05,0
4.2489,5.0523e-05,0
4.2494,1.7288e-05,0
4.2499,3.357e-07,0
4.2504,7.2175e-06,0
4.2509,2.1653e-05,0
4.2515,3.743e-05,0
4.252,6.7979e-05,0
4.2525,8.8792e-05,0
4.253,7.2679e-05,0
4.2535,3.2563e-05,0
4.2541,-9.2317e-06,0
4.2546,-3.9445e-05,0
4.2551,-5.2537e-05,0
4.2556,-4.448e-05,0
4.2561,-2.0645e-05,0
4.2567,1.8631e-05,0
4.2572,6.1601e-05,0
4.2577,8.5771e-05,0
4.2582,7.7714e-05,0
4.2587,4.2298e-05,0
4.2592,2.0142e-06,0
4.2598,-3.6927e-05,0
4.2603,-8.0232e-05,0
4.2608,-0.00011061,0
4.2613,-0.00010977,0
4.2618,-8.3757e-05,0
4.2624,-4.8173e-05,0
4.2629,-1.4603e-05,0
4.2634,9.9031e-06,0
4.2639,2.3331e-05,0
4.2644,3.0716e-05,0
4.265,3.8437e-05,0
4.2655,5.0187e-05,0
4.266,6.4622e-05,0
4.2665,7.4861e-05,0
4.267,7.4693e-05,0
4.2676,7.6707e-05,0
4.2681,8.5771e-05,0
4.2686,9.0471e-05,0
4.2691,8.1575e-05,0
4.2696,5.5558e-05,0
4.2702,2.3835e-05,0
4.2707,5.0355e-07,0
4.2712,-1.9806e-05,0
4.2717,-3.6759e-05,0
4.2722,-3.0045e-05,0
4.2728,-5.8747e-06,0
4.2733,1.0239e-05,0
4.2738,5.0355e-06,0
4.2743,-8.896e-06,0
4.2748,-1.6281e-05,0
4.2753,-8.2246e-06,0
4.2759,8.5603e-06,0
4.2764,2.2995e-05,0
4.2769,3.8773e-05,0
4.2774,5.8579e-05,0
4.2779,6.6972e-05,0
4.2785,4.8005e-05,0
4.279,8.5603e-06,0
4.2795,-2.5849e-05,0
4.28,-3.5752e-05,0
4.2805,-2.6017e-05,0
4.2811,-1.4939e-05,0
4.2816,-4.8676e-06,0
4.2821,9.5674e-06,0
4.2826,2.2324e-05,0
4.2831,1.7624e-05,0
4.2837,3.8605e-06,0
4.2842,-5.0355e-07,0
4.2847,3.5248e-06,0
4.2852,2.3499e-06,0
4.2857,-9.5674e-06,0
4.2862,-2.1317e-05,0
4.2868,-2.3835e-05,0
4.2873,-1.4267e-05,0
4.2878,7.0497e-06,0
4.2883,4.6159e-05,0
4.2888,9.2821e-05,0
4.2894,0.00012337,0
4.2899,0.00012924,0
4.2904,0.00011498,0
4.2909,8.3757e-05,0
4.2914,5.1362e-05,0
4.292,3.5248e-05,0
4.2925,2.8702e-05,0
4.293,7.2175e-06,0
4.2935,-2.6184e-05,0
4.294,-4.1962e-05,0
4.2946,-3.8437e-05,0
4.2951,-2.9038e-05,0
4.2956,-1.9806e-05,0
4.2961,-1.7121e-05,0
4.2966,-1.8967e-05,0
4.2972,-1.8967e-05,0
4.2977,-1.2757e-05,0
4.2982,5.0355e-07,0
4.2987,1.4603e-05,0
4.2992,2.9709e-05,0
4.2998,4.9851e-05,0
4.3003,6.6972e-05,0
4.3008,7.2679e-05,0
4.3013,7.2007e-05,0
4.3018,6.9993e-05,0
4.3023,6.0594e-05,0
4.3029,3.978e-05,0
4.3034,9.2317e-06,0
4.3039,-1.1246e-05,0
4.3044,-4.8676e-06,0
4.3049,1.7121e-05,0
4.3055,3.0716e-05,0
4.306,3.1388e-05,0
4.3065,3.2731e-05,0
4.307,3.6088e-05,0
4.3075,3.4409e-05,0
4.3081,3.0716e-05,0
4.3086,3.2059e-05,0
4.3091,4.448e-05,0
4.3096,6.0929e-05,0
4.3101,6.7643e-05,0
4.3107,5.7237e-05,0
4.3112,3.6591e-05,0
4.3117,1.5274e-05,0
4.3122,-3.0213e-06,0
4.3127,-6.3783e-06,0
4.3133,1.5106e-05,0
4.3138,5.0355e-05,0
4.3143,8.9128e-05,0
4.3148,0.00012689,0
4.3153,0.0001425,0
4.3158,0.00012723,0
4.3164,9.9702e-05,0
4.3169,6.8818e-05,0
4.3174,3.2563e-05,0
4.3179,-1.9135e-05,0
4.3184,-8.7282e-05,0
4.319,-0.00013982,0
4.3195,-0.00014888,0
4.32,-0.00012706,0
4.3205,-9.987e-05,0
4.321,-7.4525e-05,0
4.3216,-4.7166e-05,0
4.3221,-2.2995e-05,0
4.3226,-5.0355e-06,0
4.3231,9.5674e-06,0
4.3236,1.8631e-05,0
4.3242,1.561e-05,0
4.3247,1.5106e-06,0
4.3252,-7.2175e-06,0
4.3257,0,0
4.3262,2.4002e-05,0
4.3267,5.8244e-05,0
4.3273,8.1071e-05,0
4.3278,7.805e-05,0
4.3283,5.5558e-05,0
4.3288,2.9709e-05,0
4.3293,1.6449e-05,0
4.3299,2.0981e-05,0
4.3304,3.1891e-05,0
4.3309,3.1052e-05,0
4.3314,7.8889e-06,0
4.3319,-2.9709e-05,0
4.3325,-5.388e-05,0
4.333,-5.2033e-05,0
4.3335,-3.743e-05,0
4.334,-2.6688e-05,0
4.3345,-2.1317e-05,0
4.3351,-1.7456e-05,0
4.3356,-1.3596e-05,0
4.3361,-1.6785e-06,0
4.3366,1.561e-05,0
4.3371,3.7766e-05,0
4.3377,6.2608e-05,0
4.3382,7.7546e-05,0
4.3387,7.8553e-05,0
4.3392,7.335e-05,0
4.3397,6.8315e-05,0
4.3403,5.7237e-05,0
4.3408,3.4913e-05,0
4.3413,1.1582e-05,0
4.3418,-6.714e-07,0
4.3423,8.3925e-07,0
4.3428,9.7353e-06,0
4.3434,1.9303e-05,0
4.3439,2.4506e-05,0
4.3444,3.8605e-05,0
4.3449,8.1575e-05,0
4.3454,0.00013545,0
4.346,0.00016667,0
4.3465,0.0001556,0
4.347,0.00011498,0
4.3475,7.2847e-05,0
4.348,3.9445e-05,0
4.3486,9.5674e-06,0
4.3491,-2.0813e-05,0
4.3496,-4.213e-05,0
4.3501,-4.8844e-05,0
4.3506,-4.6998e-05,0
4.3512,-5.7237e-05,0
4.3517,-7.5868e-05,0
4.3522,-7.57e-05,0
4.3527,-5.5558e-05,0
4.3532,-3.2059e-05,0
4.3537,-1.5274e-05,0
4.3543,5.0355e-06,0
4.3548,3.2059e-05,0
4.3553,5.4047e-05,0
4.3558,6.6133e-05,0
4.3563,6.9154e-05,0
4.3569,6.0594e-05,0
4.3574,3.7766e-05,0
4.3579,7.2175e-06,0
4.3584,-1.6281e-05,0
4.3589,-3.0381e-05,0
4.3595,-4.0452e-05,0
4.36,-4.6494e-05,0
4.3605,-4.1962e-05,0
4.361,-2.9038e-05,0
4.3615,-1.9471e-05,0
4.3621,-1.5106e-05,0
4.3626,-3.1891e-06,0
4.3631,1.8967e-05,0
4.3636,5.1026e-05,0
4.3641,8.4428e-05,0
4.3647,0.00010675,0
4.3652,0.00011246,0
4.3657,9.836e-05,0
4.3662,7.3014e-05,0
4.3667,4.9516e-05,0
4.3673,3.2059e-05,0
4.3678,2.6184e-05,0
4.3683,3.6423e-05,0
4.3688,5.623e-05,0
4.3693,6.7308e-05,0
4.3698,5.2537e-05,0
4.3704,1.8296e-05,0
4.3709,-1.3764e-05,0
4.3714,-3.4409e-05,0
4.3719,-4.6494e-05,0
4.3724,-4.7837e-05,0
4.373,-3.4409e-05,0
4.3735,-1.3596e-05,0
4.374,1.5106e-06,0
4.3745,1.796e-05,0
4.375,4.2802e-05,0
4.3756,6.5293e-05,0
4.3761,7.4357e-05,0
4.3766,6.8147e-05,0
4.3771,4.683e-05,0
4.3776,2.1149e-05,0
4.3782,1.8463e-06,0
4.3787,-5.8747e-06,0
4.3792,-4.8676e-06,0
4.3797,-6.0426e-06,0
4.3802,-1.7121e-05,0
4.3807,-2.6017e-05,0
4.3813,-1.7624e-05,0
4.3818,2.1317e-05,0
4.3823,7.8386e-05,0
4.3828,0.000118,0
4.3833,0.00012723,0
4.3839,0.00012001,0
4.3844,0.00011514,0
4.3849,0.00010944,0
4.3854,8.6107e-05,0
4.3859,4.2466e-05,0
4.3865,-2.8534e-06,0
4.387,-1.7792e-05,0
4.3875,-4.5319e-06,0
4.388,9.5674e-06,0
4.3885,6.2104e-06,0
4.3891,-1.326e-05,0
4.3896,-3.9612e-05,0
4.3901,-6.0594e-05,0
4.3906,-7.0832e-05,0
4.3911,-7.9393e-05,0
4.3917,-8.275e-05,0
4.3922,-6.7979e-05,0
4.3927,-3.2563e-05,0
4.3932,1.4939e-05,0
4.3937,4.9851e-05,0
4.3943,5.6565e-05,0
4.3948,4.1291e-05,0
4.3953,1.7288e-05,0
4.3958,-4.0284e-06,0
4.3963,-1.3764e-05,0
4.3968,-1.3931e-05,0
4.3974,-1.4435e-05,0
4.3979,-1.6281e-05,0
4.3984,-1.8296e-05,0
4.3989,-2.5849e-05,0
4.3994,-3.0716e-05,0
4.4,-2.1653e-05,0
4.4005,-1.5106e-06,0
4.401,1.1917e-05,0
4.4015,1.1414e-05,0
4.402,4.3641e-06,0
4.4026,3.1891e-06,0
4.4031,1.7624e-05,0
4.4036,4.6159e-05,0
4.4041,7.0329e-05,0
4.4046,7.7043e-05,0
4.4052,7.4022e-05,0
4.4057,7.1168e-05,0
4.4062,6.8315e-05,0
4.4067,5.8915e-05,0
4.4072,4.3305e-05,0
4.4078,2.9038e-05,0
4.4083,2.0645e-05,0
4.4088,1.4939e-05,0
4.4093,1.326e-05,0
4.4098,2.6017e-05,0
4.4103,4.4144e-05,0
4.4109,4.7669e-05,0
4.4114,3.4409e-05,0
4.4119,2.5177e-05,0
4.4124,2.7695e-05,0
4.4129,3.0716e-05,0
4.4135,4.1291e-05,0
4.414,6.6972e-05,0
4.4145,9.0471e-05,0
4.415,0.00010289,0
4.4155,0.00010977,0
4.4161,0.00010591,0
4.4166,8.3421e-05,0
4.4171,4.8173e-05,0
4.4176,2.0478e-05,0
4.4181,6.5461e-06,0
4.4187,-4.1962e-06,0
4.4192,-2.0813e-05,0
4.4197,-4.1123e-05,0
4.4202,-5.9251e-05,0
4.4207,-6.9993e-05,0
4.4212,-7.4189e-05,0
4.4218,-7.8386e-05,0
4.4223,-8.3421e-05,0
4.4228,-7.8386e-05,0
4.4233,-6.865e-05,0
4.4238,-6.5797e-05,0
4.4244,-6.5629e-05,0
4.4249,-5.3376e-05,0
4.4254,-1.7624e-05,0
4.4259,3.0045e-05,0
4.4264,6.9322e-05,0
4.427,9.8024e-05,0
4.4275,0.00012605,0
4.428,0.00015157,0
4.4285,0.00016718,0
4.429,0.00016399,0
4.4296,0.00012975,0
4.4301,6.8315e-05,0
4.4306,8.3925e-07,0
4.4311,-5.3376e-05,0
4.4316,-9.0974e-05,0
4.4322,-9.8527e-05,0
4.4327,-6.4622e-05,0
4.4332,-1.3596e-05,0
4.4337,3.1388e-05,0
4.4342,6.4286e-05,0
4.4348,7.7379e-05,0
4.4353,6.6804e-05,0
4.4358,6.9322e-05,0
4.4363,0.00010507,0
4.4368,0.0001462,0
4.4373,0.00017339,0
4.4379,0.00018044,0
4.4384,0.00016231,0
4.4389,0.00010289,0
4.4394,1.2924e-05,0
4.4399,-7.0665e-05,0
4.4405,-0.00012706,0
4.441,-0.00015224,0
4.4415,-0.00015409,0
4.442,-0.00014804,0
4.4425,-0.00013109,0
4.4431,-0.00010524,0
4.4436,-8.8792e-05,0
4.4441,-9.2317e-05,0
4.4446,-9.9535e-05,0
4.4451,-9.0303e-05,0
4.4457,-6.4958e-05,0
4.4462,-3.3066e-05,0
4.4467,-3.357e-07,0
4.4472,2.9877e-05,0
4.4477,5.6901e-05,0
4.4482,7.7379e-05,0
4.4488,9.1814e-05,0
4.4493,0.00010591,0
4.4498,0.00011447,0
4.4503,0.00011095,0
4.4508,9.5171e-05,0
4.4514,7.7043e-05,0
4.4519,7.7211e-05,0
4.4524,0.00011095,0
4.4529,0.00015123,0
4.4534,0.00015123,0
4.454,0.00010373,0
4.4545,3.8102e-05,0
4.455,-1.3931e-05,0
4.4555,-3.5416e-05,0
4.456,-4.2466e-05,0
4.4566,-5.9251e-05,0
4.4571,-8.3421e-05,0
4.4576,-9.0303e-05,0
4.4581,-7.805e-05,0
4.4586,-5.3712e-05,0
4.4592,-2.3499e-05,0
4.4597,4.1962e-06,0
4.4602,2.5849e-05,0
4.4607,4.3473e-05,0
4.4612,5.3544e-05,0
4.4618,5.1362e-05,0
4.4623,4.3137e-05,0
4.4628,4.1291e-05,0
4.4633,4.3473e-05,0
4.4638,3.8773e-05,0
4.4643,2.4002e-05,0
4.4649,1.0071e-05,0
4.4654,5.539e-06,0
4.4659,8.5603e-06,0
4.4664,1.3092e-05,0
4.4669,1.796e-05,0
4.4675,2.1317e-05,0
4.468,2.1653e-05,0
4.4685,1.8463e-05,0
4.469,1.6281e-05,0
4.4695,1.6281e-05,0
4.4701,2.266e-05,0
4.4706,3.6759e-05,0
4.4711,5.2705e-05,0
4.4716,5.9922e-05,0
4.4721,5.7908e-05,0
4.4727,5.8244e-05,0
4.4732,6.63e-05,0
4.4737,7.1839e-05,0
4.4742,6.8986e-05,0
4.4747,6.6972e-05,0
4.4752,7.5364e-05,0
4.4758,8.0903e-05,0
4.4763,7.1672e-05,0
4.4768,5.6901e-05,0
4.4773,4.6159e-05,0
4.4778,3.8102e-05,0
4.4784,2.501e-05,0
4.4789,7.5532e-06,0
4.4794,5.0355e-06,0
4.4799,2.3331e-05,0
4.4804,4.5823e-05,0
4.481,5.8076e-05,0
4.4815,5.0523e-05,0
4.482,3.978e-05,0
4.4825,3.4073e-05,0
4.483,1.0239e-05,0
4.4836,-2.3331e-05,0
4.4841,-3.9277e-05,0
4.4846,-3.0381e-05,0
4.4851,1.4435e-05,0
4.4856,7.4357e-05,0
4.4862,0.00010759,0
4.4867,9.9199e-05,0
4.4872,6.9322e-05,0
4.4877,4.8844e-05,0
4.4882,3.8102e-05,0
4.4887,7.8889e-06,0
4.4893,-5.4719e-05,0
4.4898,-0.0001227,0
4.4903,-0.00015979,0
4.4908,-0.00015358,0
4.4913,-0.00010423,0
4.4919,-4.1123e-05,0
4.4924,-4.5319e-06,0
4.4929,4.8676e-06,0
4.4934,1.8128e-05,0
4.4939,5.4383e-05,0
4.4945,9.4499e-05,0
4.495,0.00010994,0
4.4955,9.0806e-05,0
4.496,4.2802e-05,0
4.4965,-1.4939e-05,0
4.4971,-4.918e-05,0
4.4976,-3.978e-05,0
4.4981,-8.5603e-06,0
4.4986,1.6785e-06,0
4.4991,-8.5603e-06,0
4.4997,-1.4267e-05,0
4.5002,-1.1246e-05,0
4.5007,-1.4939e-05,0
4.5012,-2.6184e-05,0
4.5017,-4.0452e-05,0
4.5023,-6.479e-05,0
4.5028,-9.1142e-05,0
4.5033,-8.3757e-05,0
4.5038,-3.2563e-05,0
4.5043,2.5513e-05,0
4.5048,5.8747e-05,0
4.5054,5.9922e-05,0
4.5059,3.5416e-05,0
4.5064,7.8889e-06,0
4.5069,-1.1749e-05,0
4.5074,-3.9109e-05,0
4.508,-6.7811e-05,0
4.5085,-8.4764e-05,0
4.509,-9.2485e-05,0
4.5095,-8.8289e-05,0
4.51,-7.1168e-05,0
4.5106,-4.7166e-05,0
4.5111,-2.1317e-05,0
4.5116,5.0355e-07,0
4.5121,1.9974e-05,0
4.5126,4.2466e-05,0
4.5132,6.4622e-05,0
4.5137,8.1743e-05,0
4.5142,9.2988e-05,0
4.5147,0.00010121,0
4.5152,0.00010188,0
4.5157,9.7185e-05,0
4.5163,9.7856e-05,0
4.5168,0.00010558,0
4.5173,0.00011263,0
4.5178,0.00010893,0
4.5183,9.8192e-05,0
4.5189,8.8792e-05,0
4.5194,7.9896e-05,0
4.5199,7.0329e-05,0
4.5204,5.9083e-05,0
4.5209,4.8173e-05,0
4.5215,3.743e-05,0
4.522,2.6688e-05,0
4.5225,2.031e-05,0
4.523,1.9303e-05,0
4.5235,2.0142e-05,0
4.5241,2.3667e-05,0
4.5246,2.9709e-05,0
4.5251,3.8941e-05,0
4.5256,4.4816e-05,0
4.5261,4.3809e-05,0
4.5267,3.978e-05,0
4.5272,3.6423e-05,0
4.5277,4.2802e-05,0
4.5282,6.7475e-05,0
4.5287,9.1142e-05,0
4.5293,9.1814e-05,0
4.5298,7.2511e-05,0
4.5303,4.7333e-05,0
4.5308,2.3667e-05,0
4.5313,9.5674e-06,0
4.5318,6.2104e-06,0
4.5324,9.5674e-06,0
4.5329,1.7624e-05,0
4.5334,2.9541e-05,0
4.5339,4.1291e-05,0
4.5344,4.4144e-05,0
4.535,3.4241e-05,0
4.5355,1.561e-05,0
4.536,-3.8605e-06,0
4.5365,-1.9303e-05,0
4.537,-2.5513e-05,0
4.5376,-2.2995e-05,0
4.5381,-1.4771e-05,0
4.5386,-3.357e-07,0
4.5391,1.8631e-05,0
4.5396,3.5248e-05,0
4.5402,4.2466e-05,0
4.5407,3.8102e-05,0
4.5412,2.6352e-05,0
4.5417,9.0639e-06,0
4.5422,-3.5248e-06,0
4.5427,2.3499e-06,0
4.5433,2.3667e-05,0
4.5438,5.7572e-05,0
4.5443,0.00010927,0
4.5448,0.00016835,0
4.5453,0.00020528,0
4.5459,0.00019588,0
4.5464,0.00014955,0
4.5469,8.6275e-05,0
4.5474,1.326e-05,0
4.5479,-3.8605e-05,0
4.5485,-6.63e-05,0
4.549,-9.0135e-05,0
4.5495,-0.00010272,0
4.55,-9.9031e-05,0
4.5505,-8.8792e-05,0
4.5511,-7.2847e-05,0
4.5516,-4.6662e-05,0
4.5521,-4.8676e-06,0
4.5526,4.1627e-05,0
4.5531,6.6636e-05,0
4.5537,4.8844e-05,0
4.5542,1.8463e-06,0
4.5547,-3.9948e-05,0
4.5552,-5.7404e-05,0
4.5557,-7.1336e-05,0
4.5563,-9.2821e-05,0
4.5568,-0.00011632,0
4.5573,-0.00013378,0
4.5578,-0.00013814,0
4.5583,-0.00012908,0
4.5588,-0.00010826,0
4.5594,-7.6707e-05,0
4.5599,-2.4002e-05,0
4.5604,4.8844e-05,0
4.5609,0.00010239,0
4.5614,0.00010977,0
4.562,7.335e-05,0
4.5625,1.8799e-05,0
4.563,-2.0981e-05,0
4.5635,-4.3977e-05,0
4.564,-5.4551e-05,0
4.5646,-4.2466e-05,0
4.5651,-1.2253e-05,0
4.5656,2.0813e-05,0
4.5661,5.4887e-05,0
4.5666,8.6778e-05,0
4.5672,9.4835e-05,0
4.5677,7.9057e-05,0
4.5682,5.8915e-05,0
4.5687,4.7837e-05,0
4.5692,4.0116e-05,0
4.5697,2.5681e-05,0
4.5703,1.8128e-05,0
4.5708,3.0549e-05,0
4.5713,4.7333e-05,0
4.5718,4.2466e-05,0
4.5723,1.7121e-05,0
4.5729,-1.8463e-06,0
4.5734,8.2246e-06,0
4.5739,3.1388e-05,0
4.5744,3.4745e-05,0
4.5749,1.6281e-05,0
4.5755,3.8605e-06,0
4.576,9.0639e-06,0
4.5765,1.8967e-05,0
4.577,3.2059e-05,0
4.5775,5.8915e-05,0
4.5781,9.3156e-05,0
4.5786,0.00010843,0
4.5791,7.8553e-05,0
4.5796,1.8128e-05,0
4.5801,-2.7863e-05,0
4.5807,-3.6088e-05,0
4.5812,-8.2246e-06,0
4.5817,3.5248e-05,0
4.5822,6.3951e-05,0
4.5827,7.7043e-05,0
4.5832,8.5603e-05,0
4.5838,8.7785e-05,0
4.5843,7.6371e-05,0
4.5848,4.8844e-05,0
4.5853,5.7069e-06,0
4.5858,-3.5752e-05,0
4.5864,-6.3615e-05,0
4.5869,-8.7114e-05,0
4.5874,-0.00010272,0
4.5879,-8.9632e-05,0
4.5884,-4.448e-05,0
4.589,1.8463e-05,0
4.5895,7.8889e-05,0
4.59,0.00011666,0
4.5905,0.00013411,0
4.591,0.0001378,0
4.5916,0.00012471,0
4.5921,0.00010071,0
4.5926,7.7714e-05,0
4.5931,5.4383e-05,0
4.5936,1.7288e-05,0
4.5942,-3.1724e-05,0
4.5947,-7.0497e-05,0
4.5952,-8.1239e-05,0
4.5957,-6.1097e-05,0
4.5962,-2.7192e-05,0
4.5968,-1.5106e-06,0
4.5973,1.1749e-05,0
4.5978,1.8631e-05,0
4.5983,2.652e-05,0
4.5988,3.8605e-05,0
4.5993,4.9851e-05,0
4.5999,5.2033e-05,0
4.6004,4.3473e-05,0
4.6009,3.508e-05,0
4.6014,3.2395e-05,0
4.6019,2.9038e-05,0
4.6025,2.1653e-05,0
4.603,1.7121e-05,0
4.6035,1.8631e-05,0
4.604,3.2731e-05,0
4.6045,5.7572e-05,0
4.6051,9.3324e-05,0
4.6056,0.00012807,0
4.6061,0.00013915,0
4.6066,0.00012236,0
4.6071,8.6778e-05,0
4.6077,4.683e-05,0
4.6082,1.2924e-05,0
4.6087,-1.1917e-05,0
4.6092,-3.1052e-05,0
4.6097,-4.3473e-05,0
4.6102,-4.0116e-05,0
4.6108,-2.4338e-05,0
4.6113,-1.0742e-05,0
4.6118,-6.0426e-06,0
4.6123,-7.5532e-06,0
4.6128,-1.2589e-05,0
4.6134,-1.5442e-05,0
4.6139,-1.4939e-05,0
4.6144,1.6785e-07,0
4.6149,3.7766e-05,0
4.6154,7.7379e-05,0
4.616,9.4499e-05,0
4.6165,8.275e-05,0
4.617,5.4551e-05,0
4.6175,2.8534e-05,0
4.618,1.5274e-05,0
4.6186,1.4603e-05,0
4.6191,1.326e-05,0
4.6196,1.1749e-05,0
4.6201,2.5681e-05,0
4.6206,5.6733e-05,0
4.6212,7.57e-05,0
4.6217,6.3615e-05,0
4.6222,3.0716e-05,0
4.6227,-4.6998e-06,0
4.6232,-3.5752e-05,0
4.6238,-6.0258e-05,0
4.6243,-7.1168e-05,0
4.6248,-7.57e-05,0
4.6253,-7.4022e-05,0
4.6258,-6.1936e-05,0
4.6263,-4.4648e-05,0
4.6269,-1.8631e-05,0
4.6274,2.417e-05,0
4.6279,8.7617e-05,0
4.6284,0.00015694,0
4.6289,0.00020394,0
4.6295,0.00020729,0
4.63,0.00016533,0
4.6305,8.9128e-05,0
4.631,-1.326e-05,0
4.6315,-9.4331e-05,0
4.6321,-0.00011632,0
4.6326,-0.00011229,0
4.6331,-0.0001086,0
4.6336,-8.7785e-05,0
4.6341,-5.3712e-05,0
4.6347,-2.182e-05,0
4.6352,-8.3925e-07,0
4.6357,2.3499e-06,0
4.6362,-2.182e-06,0
4.6367,1.5106e-06,0
4.6372,-2.182e-06,0
4.6378,-2.6017e-05,0
4.6383,-5.388e-05,0
4.6388,-5.9251e-05,0
4.6393,-3.7263e-05,0
4.6398,-4.6998e-06,0
4.6404,1.7121e-05,0
4.6409,2.182e-05,0
4.6414,1.7121e-05,0
4.6419,9.2317e-06,0
4.6424,-5.8747e-06,0
4.643,-9.9031e-06,0
4.6435,2.8367e-05,0
4.644,9.2485e-05,0
4.6445,0.00014217,0
4.645,0.00015476,0
4.6456,0.00012505,0
4.6461,7.6204e-05,0
4.6466,4.3641e-05,0
4.6471,5.3544e-05,0
4.6476,7.9057e-05,0
4.6482,7.7211e-05,0
4.6487,5.0187e-05,0
4.6492,2.7192e-05,0
4.6497,1.2421e-05,0
4.6502,-1.561e-05,0
4.6508,-6.479e-05,0
4.6513,-0.00011061,0
4.6518,-0.00013378,0
4.6523,-0.00013747,0
4.6528,-0.00013008,0
4.6533,-0.00010591,0
4.6539,-5.388e-05,0
4.6544,1.4435e-05,0
4.6549,7.5532e-05,0
4.6554,0.00011783,0
4.6559,0.00013545,0
4.6565,0.00012287,0
4.657,8.8121e-05,0
4.6575,4.683e-05,0
4.658,1.2421e-05,0
4.6585,-6.3783e-06,0
4.6591,-2.6352e-05,0
4.6596,-5.3376e-05,0
4.6601,-6.4622e-05,0
4.6606,-4.7837e-05,0
4.6611,-2.0645e-05,0
4.6617,-2.8534e-06,0
4.6622,1.5106e-06,0
4.6627,-1.1749e-06,0
4.6632,-5.8747e-06,0
4.6637,-4.1962e-06,0
4.6643,9.7353e-06,0
4.6648,3.743e-05,0
4.6653,6.2608e-05,0
4.6658,6.8818e-05,0
4.6663,6.7643e-05,0
4.6668,7.8386e-05,0
4.6674,8.9128e-05,0
4.6679,8.3421e-05,0
4.6684,6.7643e-05,0
4.6689,5.2201e-05,0
4.6694,3.7934e-05,0
4.67,2.6017e-05,0
4.6705,2.1653e-05,0
4.671,1.9974e-05,0
4.6715,1.1749e-05,0
4.672,3.8605e-06,0
4.6726,9.0639e-06,0
4.6731,2.2492e-05,0
4.6736,3.122e-05,0
4.6741,3.3234e-05,0
4.6746,3.2059e-05,0
4.6752,3.3066e-05,0
4.6757,3.827e-05,0
4.6762,4.8508e-05,0
4.6767,6.9657e-05,0
4.6772,0.00010776,0
4.6777,0.0001556,0
4.6783,0.00018967,0
4.6788,0.00019454,0
4.6793,0.00017305,0
4.6798,0.0001368,0
4.6803,9.836e-05,0
4.6809,6.5126e-05,0
4.6814,3.4241e-05,0
4.6819,-8.7282e-06,0
4.6824,-5.8915e-05,0
4.6829,-0.00010071,0
4.6835,-0.00013008,0
4.684,-0.0001425,0
4.6845,-0.00012824,0
4.685,-9.366e-05,0
4.6855,-5.6901e-05,0
4.6861,-2.4338e-05,0
4.6866,2.182e-06,0
4.6871,1.8631e-05,0
4.6876,2.8031e-05,0
4.6881,3.9277e-05,0
4.6887,5.2201e-05,0
4.6892,5.4215e-05,0
4.6897,4.3809e-05,0
4.6902,2.8199e-05,0
4.6907,1.1414e-05,0
4.6913,0,0
4.6918,1.6785e-06,0
4.6923,1.5106e-05,0
4.6928,3.2059e-05,0
4.6933,4.8844e-05,0
4.6938,5.7069e-05,0
4.6944,6.2272e-05,0
4.6949,7.1672e-05,0
4.6954,8.4092e-05,0
4.6959,0.00010524,0
4.6964,0.00011934,0
4.697,0.00010524,0
4.6975,6.1265e-05,0
4.698,1.0407e-05,0
4.6985,-2.4842e-05,0
4.699,-3.7766e-05,0
4.6996,-3.4745e-05,0
4.7001,-2.8031e-05,0
4.7006,-2.4338e-05,0
4.7011,-1.4267e-05,0
4.7016,1.7288e-05,0
4.7022,6.3615e-05,0
4.7027,0.00010071,0
4.7032,0.00011582,0
4.7037,0.00010188,0
4.7042,6.3615e-05,0
4.7047,1.5274e-05,0
4.7053,-3.6088e-05,0
4.7058,-8.8289e-05,0
4.7063,-0.00013126,0
4.7068,-0.00014838,0
4.7073,-0.00013797,0
4.7079,-0.00012001,0
4.7084,-0.0001039,0
4.7089,-8.6442e-05,0
4.7094,-7.0329e-05,0
4.7099,-4.9851e-05,0
4.7105,-2.1988e-05,0
4.711,3.1891e-06,0
4.7115,1.4939e-05,0
4.712,1.6281e-05,0
4.7125,1.8128e-05,0
4.7131,1.5946e-05,0
4.7136,7.8889e-06,0
4.7141,-1.8463e-06,0
4.7146,-7.2175e-06,0
4.7151,-1.6785e-07,0
4.7157,1.6449e-05,0
4.7162,2.8534e-05,0
4.7167,2.7863e-05,0
4.7172,2.4338e-05,0
4.7177,2.652e-05,0
4.7183,3.4745e-05,0
4.7188,4.5151e-05,0
4.7193,5.3544e-05,0
4.7198,5.8244e-05,0
4.7203,5.5055e-05,0
4.7208,4.9516e-05,0
4.7214,5.5055e-05,0
4.7219,7.1839e-05,0
4.7224,8.0064e-05,0
4.7229,7.2679e-05,0
4.7234,5.7572e-05,0
4.724,4.3473e-05,0
4.7245,3.6927e-05,0
4.725,3.0381e-05,0
4.7255,1.7288e-05,0
4.726,3.357e-07,0
4.7266,-9.5674e-06,0
4.7271,1.8463e-06,0
4.7276,3.8773e-05,0
4.7281,9.0303e-05,0
4.7286,0.00013848,0
4.7292,0.00016231,0
4.7297,0.00015526,0
4.7302,0.00013008,0
4.7307,9.4835e-05,0
4.7312,5.4887e-05,0
4.7317,1.4435e-05,0
4.7323,-2.6688e-05,0
4.7328,-6.0258e-05,0
4.7333,-6.7979e-05,0
4.7338,-4.8173e-05,0
4.7343,-1.9638e-05,0
4.7349,-5.7069e-06,0
4.7354,-2.1149e-05,0
4.7359,-4.5319e-05,0
4.7364,-5.4047e-05,0
4.7369,-5.0187e-05,0
4.7375,-4.5823e-05,0
4.738,-4.2634e-05,0
4.7385,-3.508e-05,0
4.739,-2.4674e-05,0
4.7395,-1.9638e-05,0
4.7401,-1.5946e-05,0
4.7406,5.539e-06,0
4.7411,5.7237e-05,0
4.7416,0.00012992,0
4.7421,0.00019487,0
4.7427,0.0002219,0
4.7432,0.00020226,0
4.7437,0.0001509,0
4.7442,9.4835e-05,0
4.7447,5.0858e-05,0
4.7453,2.266e-05,0
4.7458,-1.6785e-06,0
4.7463,-2.6017e-05,0
4.7468,-5.4719e-05,0
4.7473,-8.2078e-05,0
4.7478,-9.7017e-05,0
4.7484,-9.8192e-05,0
4.7489,-9.752e-05,0
4.7494,-0.00010222,0
4.7499,-9.9535e-05,0
4.7504,-7.5532e-05,0
4.751,-3.6088e-05,0
4.7515,8.3925e-07,0
4.752,3.508e-05,0
4.7525,6.6636e-05,0
4.753,9.2821e-05,0
4.7536,0.00011884,0
4.7541,0.00015492,0
4.7546,0.00019252,0
4.7551,0.00020243,0
4.7556,0.00016701,0
4.7562,9.9031e-05,0
4.7567,2.5681e-05,0
4.7572,-3.9109e-05,0
4.7577,-9.1814e-05,0
4.7582,-0.00012471,0
4.7588,-0.00013713,0
4.7593,-0.00013075,0
4.7598,-0.0001034,0
4.7603,-6.949e-05,0
4.7608,-4.8173e-05,0
4.7613,-3.7095e-05,0
4.7619,-2.1317e-05,0
4.7624,2.5177e-06,0
4.7629,1.9303e-05,0
4.7634,1.2253e-05,0
4.7639,-3.357e-07,0
4.7645,2.1317e-05,0
4.765,8.5771e-05,0
4.7655,0.00015291,0
4.766,0.00018178,0
4.7665,0.00016735,0
4.7671,0.00012941,0
4.7676,9.3828e-05,0
4.7681,7.3686e-05,0
4.7686,5.8244e-05,0
4.7691,2.7359e-05,0
4.7697,-7.0497e-06,0
4.7702,-1.7121e-05,0
4.7707,-1.9638e-05,0
4.7712,-3.8941e-05,0
4.7717,-6.6804e-05,0
4.7722,-8.5435e-05,0
4.7728,-8.9632e-05,0
4.7733,-8.7617e-05,0
4.7738,-9.1478e-05,0
4.7743,-9.8527e-05,0
4.7748,-9.0639e-05,0
4.7754,-6.6636e-05,0
4.7759,-5.9083e-05,0
4.7764,-7.1168e-05,0
4.7769,-6.3111e-05,0
4.7774,-2.031e-05,0
4.778,3.7263e-05,0
4.7785,8.3925e-05,0
4.779,0.00010558,0
4.7795,0.00010709,0
4.78,9.6513e-05,0
4.7806,8.3421e-05,0
4.7811,7.3686e-05,0
4.7816,6.5293e-05,0
4.7821,4.8173e-05,0
4.7826,2.7024e-05,0
4.7832,1.6281e-05,0
4.7837,2.9038e-05,0
4.7842,6.4958e-05,0
4.7847,0.00010004,0
4.7852,0.00011196,0
4.7858,9.9031e-05,0
4.7863,7.4525e-05,0
4.7868,4.6494e-05,0
4.7873,2.5345e-05,0
4.7878,1.4603e-05,0
4.7883,1.3092e-05,0
4.7889,2.7359e-05,0
4.7894,5.2201e-05,0
4.7899,7.57e-05,0
4.7904,8.8457e-05,0
4.7909,8.6442e-05,0
4.7915,6.9322e-05,0
4.792,4.2298e-05,0
4.7925,1.7121e-05,0
4.793,-6.8818e-06,0
4.7935,-3.4913e-05,0
4.7941,-5.5222e-05,0
4.7946,-5.4551e-05,0
4.7951,-3.6591e-05,0
4.7956,-1.4267e-05,0
4.7961,4.3641e-06,0
4.7967,1.6617e-05,0
4.7972,2.2492e-05,0
4.7977,2.6352e-05,0
4.7982,3.2059e-05,0
4.7987,4.8676e-05,0
4.7992,7.1504e-05,0
4.7998,8.4596e-05,0
4.8003,7.9057e-05,0
4.8008,5.9922e-05,0
4.8013,4.8005e-05,0
4.8018,4.7333e-05,0
4.8024,4.2802e-05,0
4.8029,2.9206e-05,0
4.8034,1.3764e-05,0
4.8039,1.1917e-05,0
4.8044,3.5752e-05,0
4.805,6.5629e-05,0
4.8055,7.6539e-05,0
4.806,6.0929e-05,0
4.8065,2.6017e-05,0
4.807,-1.0407e-05,0
4.8076,-3.2395e-05,0
4.8081,-4.4144e-05,0
4.8086,-4.5823e-05,0
4.8091,-3.4073e-05,0
4.8096,-1.4603e-05,0
4.8102,1.3428e-06,0
4.8107,1.9303e-05,0
4.8112,4.3473e-05,0
4.8117,7.0665e-05,0
4.8122,9.752e-05,0
4.8128,0.00012001,0
4.8133,0.0001138,0
4.8138,7.4022e-05,0
4.8143,3.7934e-05,0
4.8148,1.7288e-05,0
4.8153,-1.9806e-05,0
4.8159,-8.8121e-05,0
4.8164,-0.00014955,0
4.8169,-0.00017171,0
4.8174,-0.00016265,0
4.8179,-0.00014116,0
4.8185,-0.00011464,0
4.819,-8.7449e-05,0
4.8195,-6.2272e-05,0
4.82,-3.4073e-05,0
4.8205,-1.0071e-06,0
4.8211,2.4002e-05,0
4.8216,3.4073e-05,0
4.8221,3.2395e-05,0
4.8226,3.1388e-05,0
4.8231,3.5752e-05,0
4.8237,4.0452e-05,0
4.8242,4.0452e-05,0
4.8247,3.9948e-05,0
4.8252,4.213e-05,0
4.8257,4.9851e-05,0
4.8262,6.2943e-05,0
4.8268,7.5364e-05,0
4.8273,8.661e-05,0
4.8278,9.7353e-05,0
4.8283,0.00010927,0
4.8288,0.00012454,0
4.8294,0.00013176,0
4.8299,0.00011749,0
4.8304,8.2246e-05,0
4.8309,3.7598e-05,0
4.8314,5.539e-06,0
4.832,-4.3641e-06,0
4.8325,-1.2589e-05,0
4.833,-1.2589e-05,0
4.8335,7.8889e-06,0
4.834,1.9638e-05,0
4.8346,1.2253e-05,0
4.8351,2.5177e-06,0
4.8356,7.2175e-06,0
4.8361,2.1988e-05,0
4.8366,3.0213e-05,0
4.8372,3.0549e-05,0
4.8377,3.2563e-05,0
4.8382,2.4674e-05,0
4.8387,-6.714e-06,0
4.8392,-5.2873e-05,0
4.8398,-8.2918e-05,0
4.8403,-8.7114e-05,0
4.8408,-7.6036e-05,0
4.8413,-6.7811e-05,0
4.8418,-5.6565e-05,0
4.8423,-3.0045e-05,0
4.8429,-7.8889e-06,0
4.8434,-7.8889e-06,0
4.8439,-1.8967e-05,0
4.8444,-2.5681e-05,0
4.8449,-2.6352e-05,0
4.8455,-2.0981e-05,0
4.846,-6.8818e-06,0
4.8465,1.0239e-05,0
4.847,2.1317e-05,0
4.8475,2.1653e-05,0
4.8481,1.9974e-05,0
4.8486,2.2995e-05,0
4.8491,2.6352e-05,0
4.8496,2.3163e-05,0
4.8501,2.4674e-05,0
4.8507,5.2873e-05,0
4.8512,9.5674e-05,0
4.8517,0.00012035,0
4.8522,0.00011749,0
4.8527,9.4835e-05,0
4.8533,6.7475e-05,0
4.8538,4.7333e-05,0
4.8543,3.2898e-05,0
4.8548,1.4267e-05,0
4.8553,1.6785e-07,0
4.8558,6.2104e-06,0
4.8564,3.0549e-05,0
4.8569,5.7237e-05,0
4.8574,7.7043e-05,0
4.8579,8.8624e-05,0
4.8584,8.8457e-05,0
4.859,8.5771e-05,0
4.8595,9.0471e-05,0
4.86,9.601e-05,0
4.8605,9.0471e-05,0
4.861,6.7811e-05,0
4.8616,3.7934e-05,0
4.8621,1.561e-05,0
4.8626,4.8676e-06,0
4.8631,-8.3925e-07,0
4.8636,-8.3925e-06,0
4.8642,-1.7288e-05,0
4.8647,-2.1149e-05,0
4.8652,-2.3667e-05,0
4.8657,-3.3738e-05,0
4.8662,-4.4648e-05,0
4.8667,-4.8173e-05,0
4.8673,-4.0787e-05,0
4.8678,-2.6352e-05,0
4.8683,-1.9303e-05,0
4.8688,-1.6617e-05,0
4.8693,4.5319e-06,0
4.8699,5.2705e-05,0
4.8704,0.00012186,0
4.8709,0.00019319,0
4.8714,0.00023146,0
4.8719,0.00022005,0
4.8725,0.0001749,0
4.873,0.0001138,0
4.8735,5.8244e-05,0
4.874,1.7792e-05,0
4.8745,-1.6281e-05,0
4.8751,-5.6733e-05,0
4.8756,-9.8024e-05,0
4.8761,-0.00012236,0
4.8766,-0.00012975,0
4.8771,-0.00013243,0
4.8777,-0.00012438,0
4.8782,-8.275e-05,0
4.8787,-1.2924e-05,0
4.8792,4.7501e-05,0
4.8797,7.5029e-05,0
4.8803,7.1839e-05,0
4.8808,5.0858e-05,0
4.8813,2.5849e-05,0
4.8818,3.357e-06,0
4.8823,-2.0813e-05,0
4.8828,-4.8844e-05,0
4.8834,-7.8218e-05,0
4.8839,-0.0001034,0
4.8844,-0.0001086,0
4.8849,-8.3757e-05,0
4.8854,-4.1123e-05,0
4.886,-8.3925e-07,0
4.8865,2.7527e-05,0
4.887,4.5487e-05,0
4.8875,5.8412e-05,0
4.888,6.1601e-05,0
4.8886,4.2802e-05,0
4.8891,8.896e-06,0
4.8896,-5.3712e-06,0
4.8901,6.2104e-06,0
4.8906,1.1917e-05,0
4.8912,7.0497e-06,0
4.8917,7.2175e-06,0
4.8922,1.6953e-05,0
4.8927,4.213e-05,0
4.8932,8.3757e-05,0
4.8937,0.00012337,0
4.8943,0.00013864,0
4.8948,0.00012807,0
4.8953,9.6849e-05,0
4.8958,5.4719e-05,0
4.8963,1.8296e-05,0
4.8969,0,0
4.8974,-9.7353e-06,0
4.8979,-2.4338e-05,0
4.8984,-4.062e-05,0
4.8989,-5.6397e-05,0
4.8995,-7.0497e-05,0
4.9,-7.0665e-05,0
4.9005,-4.3473e-05,0
4.901,6.5461e-06,0
4.9015,6.2608e-05,0
4.9021,0.00010541,0
4.9026,0.00012589,0
4.9031,0.00012387,0
4.9036,0.00010188,0
4.9041,7.9728e-05,0
4.9047,6.3615e-05,0
4.9052,4.5151e-05,0
4.9057,1.8631e-05,0
4.9062,-1.0239e-05,0
4.9067,-2.9877e-05,0
4.9073,-3.743e-05,0
4.9078,-3.5416e-05,0
4.9083,-3.0381e-05,0
4.9088,-1.561e-05,0
4.9093,6.5461e-06,0
4.9098,2.7024e-05,0
4.9104,3.9445e-05,0
4.9109,3.8605e-05,0
4.9114,3.4745e-05,0
4.9119,4.1794e-05,0
4.9124,5.4047e-05,0
4.913,6.5965e-05,0
4.9135,0.00010105,0
4.914,0.00014888,0
4.9145,0.0001744,0
4.915,0.00015962,0
4.9156,0.00010843,0
4.9161,4.4312e-05,0
4.9166,-9.3996e-06,0
4.9171,-3.9445e-05,0
4.9176,-4.3473e-05,0
4.9182,-3.9277e-05,0
4.9187,-4.8341e-05,0
4.9192,-6.479e-05,0
4.9197,-7.1336e-05,0
4.9202,-6.9993e-05,0
4.9207,-6.3279e-05,0
4.9213,-4.6494e-05,0
4.9218,-1.3596e-05,0
4.9223,3.5248e-05,0
4.9228,7.2343e-05,0
4.9233,7.0832e-05,0
4.9239,4.4648e-05,0
4.9244,2.652e-05,0
4.9249,1.5106e-05,0
4.9254,1.5106e-06,0
4.9259,0,0
4.9265,1.6953e-05,0
4.927,3.0716e-05,0
4.9275,1.1917e-05,0
4.928,-4.1794e-05,0
4.9285,-8.7953e-05,0
4.9291,-7.9393e-05,0
4.9296,-2.6184e-05,0
4.9301,2.2995e-05,0
4.9306,4.1459e-05,0
4.9311,4.4144e-05,0
4.9317,4.3809e-05,0
4.9322,3.8773e-05,0
4.9327,3.2227e-05,0
4.9332,2.0645e-05,0
4.9337,-2.3499e-06,0
4.9342,-2.417e-05,0
4.9348,-3.122e-05,0
4.9353,-3.1388e-05,0
4.9358,-3.5416e-05,0
4.9363,-4.3641e-05,0
4.9368,-4.6159e-05,0
4.9374,-3.5416e-05,0
4.9379,-1.8967e-05,0
4.9384,-1.0071e-05,0
4.9389,3.0213e-06,0
4.9394,3.6088e-05,0
4.94,7.5532e-05,0
4.9405,9.8863e-05,0
4.941,9.9031e-05,0
4.9415,8.3253e-05,0
4.942,5.8412e-05,0
4.9426,3.4745e-05,0
4.9431,2.4002e-05,0
4.9436,2.7192e-05,0
4.9441,3.4409e-05,0
4.9446,4.683e-05,0
4.9452,5.6733e-05,0
4.9457,5.4383e-05,0
4.9462,4.3473e-05,0
