0,0,0
0.0005,0,0
0.001,0,0
0.0015,0,0
0.002,0,0
0.0025,0,0
0.003,0,0
0.0035,0,0
0.004,0,0
0.0045,0,0
0.005,0,0
0.0055,0,0
0.006,0,0
0.0065,0,0
0.007,0,0
0.0075,0,0
0.008,0,0
0.0085,0,0
0.009,0,0
0.0095,0,0
0.01,0,0
0.0105,0,0
0.011,0,0
0.0115,0,0
0.012,0,0
0.0125,0,0
0.013,8.7282e-06,0
0.0135,-3.1891e-06,0
0.014,-4.1962e-06,0
0.0145,-3.357e-07,0
0.015,2.5177e-06,0
0.0155,2.8534e-06,0
0.016,3.8605e-06,0
0.0165,1.0239e-05,0
0.017,2.0142e-05,0
0.0175,2.652e-05,0
0.018,2.3331e-05,0
0.0185,1.561e-05,0
0.019,1.1414e-05,0
0.0195,9.9031e-06,0
0.02,7.7211e-06,0
0.0205,6.3783e-06,0
0.021,6.714e-06,0
0.0215,9.5674e-06,0
0.022,1.5274e-05,0
0.0225,1.9974e-05,0
0.023,2.0478e-05,0
0.0235,1.8463e-05,0
0.024,1.6281e-05,0
0.0245,1.4099e-05,0
0.025,1.1414e-05,0
0.0255,1.2757e-05,0
0.026,1.9806e-05,0
0.0265,2.5513e-05,0
0.027,2.4674e-05,0
0.0275,1.9974e-05,0
0.028,1.4267e-05,0
0.0285,9.7353e-06,0
0.029,5.539e-06,0
0.0295,4.6998e-06,0
0.03,7.5532e-06,0
0.0305,9.7353e-06,0
0.031,9.9031e-06,0
0.0315,1.1917e-05,0
0.032,1.2924e-05,0
0.0325,8.0568e-06,0
0.033,5.035e-07,0
0.0335,-2.8534e-06,0
0.034,1.1749e-06,0
0.0345,1.0239e-05,0
0.035,1.5946e-05,0
0.0355,1.2253e-05,0
0.036,3.0213e-06,0
0.0365,-1.6785e-06,0
0.037,2.8534e-06,0
0.0375,1.1582e-05,0
0.038,1.8631e-05,0
0.0385,2.5681e-05,0
0.039,3.508e-05,0
0.0395,4.4144e-05,0
0.04,5.0858e-05,0
0.0405,5.2537e-05,0
0.041,4.8844e-05,0
0.0415,4.3305e-05,0
0.042,3.8773e-05,0
0.0425,3.5584e-05,0
0.043,3.3066e-05,0
0.0435,3.0716e-05,0
0.044,2.7359e-05,0
0.0445,2.3331e-05,0
0.045,2.0478e-05,0
0.0455,2.1988e-05,0
0.046,2.7863e-05,0
0.0465,3.4409e-05,0
0.047,3.8102e-05,0
0.0475,3.8437e-05,0
0.048,3.8102e-05,0
0.0485,3.6759e-05,0
0.049,2.9709e-05,0
0.0495,2.0478e-05,0
0.05,1.3764e-05,0
0.0505,1.0575e-05,0
0.051,6.2104e-06,0
0.0515,-1.1749e-06,0
0.052,-5.8747e-06,0
0.0525,-5.7069e-06,0
0.053,-8.392e-07,0
0.0535,4.5319e-06,0
0.054,7.8889e-06,0
0.0545,9.5674e-06,0
0.055,1.1917e-05,0
0.0555,1.6617e-05,0
0.056,2.7192e-05,0
0.0565,3.8773e-05,0
0.057,3.7934e-05,0
0.0575,2.266e-05,0
0.058,5.7069e-06,0
0.0585,1.1749e-06,0
0.059,7.5532e-06,0
0.0595,1.1582e-05,0
0.06,1.0239e-05,0
0.0605,6.8818e-06,0
0.061,4.5319e-06,0
0.0615,3.1891e-06,0
0.062,4.1962e-06,0
0.0625,7.3854e-06,0
0.063,9.9031e-06,0
0.0635,1.1917e-05,0
0.064,1.2253e-05,0
0.0645,1.1749e-05,0
0.065,1.7121e-05,0
0.0655,2.9877e-05,0
0.066,4.3305e-05,0
0.0665,5.2033e-05,0
0.067,5.9419e-05,0
0.0675,6.9657e-05,0
0.068,7.805e-05,0
0.0685,7.2511e-05,0
0.069,5.6062e-05,0
0.0695,3.9948e-05,0
0.07,3.0716e-05,0
0.0705,2.5177e-05,0
0.071,1.9303e-05,0
0.0715,1.2589e-05,0
0.072,7.8889e-06,0
0.0725,4.8676e-06,0
0.073,4.3641e-06,0
0.0735,6.2104e-06,0
0.074,8.3925e-06,0
0.0745,1.2589e-05,0
0.075,1.7792e-05,0
0.0755,1.8631e-05,0
0.076,1.4267e-05,0
0.0765,1.1246e-05,0
0.077,1.0407e-05,0
0.0775,1.1414e-05,0
0.078,1.0575e-05,0
0.0785,1.0575e-05,0
0.079,1.5274e-05,0
0.0795,2.0478e-05,0
0.08,1.7624e-05,0
0.0805,9.0639e-06,0
0.081,4.5319e-06,0
0.0815,1.1582e-05,0
0.082,2.2995e-05,0
0.0825,2.652e-05,0
0.083,2.0981e-05,0
0.0835,1.5946e-05,0
0.084,1.3596e-05,0
0.0845,1.2924e-05,0
0.085,1.2924e-05,0
0.0855,1.2421e-05,0
0.086,1.2924e-05,0
0.0865,1.4267e-05,0
0.087,1.561e-05,0
0.0875,1.3596e-05,0
0.088,6.5461e-06,0
0.0885,-1.3428e-06,0
0.089,-6.714e-06,0
0.0895,-7.3854e-06,0
0.09,-5.035e-07,0
0.0905,1.1246e-05,0
0.091,2.1988e-05,0
0.0915,2.9038e-05,0
0.092,3.1891e-05,0
0.0925,3.6423e-05,0
0.093,3.9948e-05,0
0.0935,3.8437e-05,0
0.094,3.1724e-05,0
0.0945,1.9974e-05,0
0.095,7.3854e-06,0
0.0955,-2.182e-06,0
0.096,-8.3925e-06,0
0.0965,-1.2757e-05,0
0.097,-1.4603e-05,0
0.0975,-1.3596e-05,0
0.098,-1.2253e-05,0
0.0985,-1.0071e-05,0
0.099,-2.182e-06,0
0.0995,9.7353e-06,0
0.1,1.8128e-05,0
0.1005,2.0646e-05,0
0.101,2.4674e-05,0
0.1015,3.6591e-05,0
0.102,4.6662e-05,0
0.1025,4.5319e-05,0
0.103,3.6759e-05,0
0.1035,2.9709e-05,0
0.104,2.5849e-05,0
0.1045,2.5009e-05,0
0.105,2.7359e-05,0
0.1055,3.4409e-05,0
0.106,4.3977e-05,0
0.1065,5.2033e-05,0
0.107,5.3544e-05,0
0.1075,5.0523e-05,0
0.108,4.7669e-05,0
0.1085,4.5991e-05,0
0.109,4.213e-05,0
0.1095,3.5752e-05,0
0.11,2.8367e-05,0
0.1105,2.3667e-05,0
0.111,2.3163e-05,0
0.1115,2.4674e-05,0
0.112,2.1317e-05,0
0.1125,1.1582e-05,0
0.113,6.714e-07,0
0.1135,-7.2175e-06,0
0.114,-9.5674e-06,0
0.1145,-8.896e-06,0
0.115,-8.2246e-06,0
0.1155,-7.3854e-06,0
0.116,-4.8676e-06,0
0.1165,-1.0071e-06,0
0.117,4.5319e-06,0
0.1175,9.5674e-06,0
0.118,1.3764e-05,0
0.1185,1.796e-05,0
0.119,1.9974e-05,0
0.1195,1.9638e-05,0
0.12,1.6785e-05,0
0.1205,1.326e-05,0
0.121,7.8889e-06,0
0.1215,2.182e-06,0
0.122,3.6927e-06,0
0.1225,1.3092e-05,0
0.123,2.5345e-05,0
0.1235,3.4073e-05,0
0.124,3.8102e-05,0
0.1245,4.0955e-05,0
0.125,4.6494e-05,0
0.1255,4.8676e-05,0
0.126,4.2634e-05,0
0.1265,3.3402e-05,0
0.127,2.5009e-05,0
0.1275,1.8631e-05,0
0.128,1.3596e-05,0
0.1285,1.326e-05,0
0.129,1.9638e-05,0
0.1295,2.7359e-05,0
0.13,3.3906e-05,0
0.1305,4.4816e-05,0
0.131,5.4551e-05,0
0.1315,5.5558e-05,0
0.132,4.8005e-05,0
0.1325,3.6759e-05,0
0.133,2.3667e-05,0
0.1335,1.2253e-05,0
0.134,8.3925e-06,0
0.1345,1.0575e-05,0
0.135,1.2589e-05,0
0.1355,9.0639e-06,0
0.136,3.357e-06,0
0.1365,1.8463e-06,0
0.137,4.1962e-06,0
0.1375,4.3641e-06,0
0.138,2.5177e-06,0
0.1385,2.8534e-06,0
0.139,7.2175e-06,0
0.1395,1.0575e-05,0
0.14,1.1749e-05,0
0.1405,1.4099e-05,0
0.141,1.6617e-05,0
0.1415,1.9135e-05,0
0.142,1.796e-05,0
0.1425,1.3596e-05,0
0.143,1.326e-05,0
0.1435,1.8631e-05,0
0.144,2.4506e-05,0
0.1445,2.6017e-05,0
0.145,2.5345e-05,0
0.1455,2.7359e-05,0
0.146,3.3066e-05,0
0.1465,3.6591e-05,0
0.147,3.743e-05,0
0.1475,3.5416e-05,0
0.148,3.4409e-05,0
0.1485,3.2059e-05,0
0.149,2.1988e-05,0
0.1495,7.0497e-06,0
0.15,-3.5248e-06,0
0.1505,-1.0575e-05,0
0.151,-1.1582e-05,0
0.1515,-5.539e-06,0
0.152,3.357e-06,0
0.1525,7.8889e-06,0
0.153,3.8605e-06,0
0.1535,-7.5532e-06,0
0.154,-1.7456e-05,0
0.1545,-1.4435e-05,0
0.155,-2.182e-06,0
0.1555,8.2246e-06,0
0.156,1.3932e-05,0
0.1565,1.7121e-05,0
0.157,2.1317e-05,0
0.1575,2.4842e-05,0
0.158,3.0549e-05,0
0.1585,3.8437e-05,0
0.159,4.448e-05,0
0.1595,4.6662e-05,0
0.16,4.6494e-05,0
0.1605,4.4816e-05,0
0.161,4.448e-05,0
0.1615,4.8173e-05,0
0.162,5.1865e-05,0
0.1625,4.9515e-05,0
0.163,3.8605e-05,0
0.1635,2.5009e-05,0
0.164,1.6617e-05,0
0.1645,1.326e-05,0
0.165,1.2253e-05,0
0.1655,1.4267e-05,0
0.166,1.5274e-05,0
0.1665,1.2421e-05,0
0.167,8.2246e-06,0
0.1675,7.8889e-06,0
0.168,1.1414e-05,0
0.1685,1.561e-05,0
0.169,1.4099e-05,0
0.1695,1.0575e-05,0
0.17,9.2317e-06,0
0.1705,1.0575e-05,0
0.171,1.0575e-05,0
0.1715,8.5603e-06,0
0.172,6.0426e-06,0
0.1725,8.0568e-06,0
0.173,1.6953e-05,0
0.1735,2.266e-05,0
0.174,2.0981e-05,0
0.1745,2.1988e-05,0
0.175,2.9709e-05,0
0.1755,4.0787e-05,0
0.176,4.7669e-05,0
0.1765,4.6494e-05,0
0.177,3.9612e-05,0
0.1775,3.1388e-05,0
0.178,2.4338e-05,0
0.1785,1.9638e-05,0
0.179,1.7792e-05,0
0.1795,1.796e-05,0
0.18,1.796e-05,0
0.1805,1.4939e-05,0
0.181,1.1246e-05,0
0.1815,9.7353e-06,0
0.182,9.2317e-06,0
0.1825,1.0239e-05,0
0.183,7.7211e-06,0
0.1835,-1.8463e-06,0
0.184,-1.3092e-05,0
0.1845,-1.7121e-05,0
0.185,-1.1078e-05,0
0.1855,2.0142e-06,0
0.186,1.6281e-05,0
0.1865,2.6688e-05,0
0.187,3.1724e-05,0
0.1875,3.2059e-05,0
0.188,3.1724e-05,0
0.1885,3.0381e-05,0
0.189,2.8031e-05,0
0.1895,3.0045e-05,0
0.19,3.4409e-05,0
0.1905,3.4745e-05,0
0.191,3.2059e-05,0
0.1915,3.0549e-05,0
0.192,2.6352e-05,0
0.1925,2.1653e-05,0
0.193,2.1317e-05,0
0.1935,2.5009e-05,0
0.194,2.7527e-05,0
0.1945,2.8702e-05,0
0.195,2.8031e-05,0
0.1955,2.6017e-05,0
0.196,2.1988e-05,0
0.1965,1.9303e-05,0
0.197,1.9303e-05,0
0.1975,2.031e-05,0
0.198,1.8967e-05,0
0.1985,1.4267e-05,0
0.199,1.0575e-05,0
0.1995,8.896e-06,0
0.2,8.3925e-06,0
0.2005,1.1917e-05,0
0.201,1.8296e-05,0
0.2015,2.1988e-05,0
0.202,2.182e-05,0
0.2025,1.9974e-05,0
0.203,1.4603e-05,0
0.2035,7.5532e-06,0
0.204,3.8605e-06,0
0.2045,1.0239e-05,0
0.205,1.8296e-05,0
0.2055,2.0478e-05,0
0.206,2.0646e-05,0
0.2065,2.3331e-05,0
0.207,2.4674e-05,0
0.2075,2.266e-05,0
0.208,1.9303e-05,0
0.2085,1.6281e-05,0
0.209,1.4603e-05,0
0.2095,1.3932e-05,0
0.21,1.561e-05,0
0.2105,1.8967e-05,0
0.211,1.9303e-05,0
0.2115,1.8463e-05,0
0.212,1.5274e-05,0
0.2125,9.5674e-06,0
0.213,2.5177e-06,0
0.2135,-3.1891e-06,0
0.214,-5.539e-06,0
0.2145,-5.0355e-06,0
0.215,-3.8605e-06,0
0.2155,-4.8676e-06,0
0.216,-3.8605e-06,0
0.2165,3.8605e-06,0
0.217,1.561e-05,0
0.2175,2.5345e-05,0
0.218,3.1052e-05,0
0.2185,3.1891e-05,0
0.219,3.1052e-05,0
0.2195,3.1388e-05,0
0.22,3.1388e-05,0
0.2205,3.0716e-05,0
0.221,2.8031e-05,0
0.2215,2.5345e-05,0
0.222,2.5681e-05,0
0.2225,2.7192e-05,0
0.223,2.5345e-05,0
0.2235,2.0646e-05,0
0.224,1.8631e-05,0
0.2245,1.9974e-05,0
0.225,2.1653e-05,0
0.2255,2.3667e-05,0
0.226,2.4338e-05,0
0.2265,1.9974e-05,0
0.227,1.7288e-05,0
0.2275,1.8631e-05,0
0.228,1.5778e-05,0
0.2285,9.0639e-06,0
0.229,3.6927e-06,0
0.2295,-3.357e-07,0
0.23,-1.678e-07,0
0.2305,8.896e-06,0
0.231,2.4674e-05,0
0.2315,3.3906e-05,0
0.232,3.2563e-05,0
0.2325,2.8031e-05,0
0.233,2.4842e-05,0
0.2335,2.3499e-05,0
0.234,2.4002e-05,0
0.2345,2.6688e-05,0
0.235,3.3234e-05,0
0.2355,3.9612e-05,0
0.236,3.978e-05,0
0.2365,3.508e-05,0
0.237,2.9374e-05,0
0.2375,2.7192e-05,0
0.238,2.652e-05,0
0.2385,2.5681e-05,0
0.239,2.2995e-05,0
0.2395,1.7288e-05,0
0.24,1.1582e-05,0
0.2405,8.5603e-06,0
0.241,8.5603e-06,0
0.2415,7.8889e-06,0
0.242,4.5319e-06,0
0.2425,4.1962e-06,0
0.243,9.9031e-06,0
0.2435,1.8631e-05,0
0.244,2.266e-05,0
0.2445,2.0478e-05,0
0.245,1.8463e-05,0
0.2455,2.1317e-05,0
0.246,2.6688e-05,0
0.2465,2.8534e-05,0
0.247,2.5009e-05,0
0.2475,1.8463e-05,0
0.248,1.2421e-05,0
0.2485,9.9031e-06,0
0.249,1.1246e-05,0
0.2495,1.1246e-05,0
0.25,9.2317e-06,0
0.2505,7.2175e-06,0
0.251,8.7282e-06,0
0.2515,1.796e-05,0
0.252,2.8702e-05,0
0.2525,2.9709e-05,0
0.253,1.7624e-05,0
0.2535,5.2033e-06,0
0.254,1.1749e-06,0
0.2545,1.8463e-06,0
0.255,3.5248e-06,0
0.2555,3.6927e-06,0
0.256,5.2033e-06,0
0.2565,9.9031e-06,0
0.257,1.4939e-05,0
0.2575,1.8631e-05,0
0.258,2.1149e-05,0
0.2585,2.3331e-05,0
0.259,2.8367e-05,0
0.2595,3.8605e-05,0
0.26,4.5991e-05,0
0.2605,4.5487e-05,0
0.261,4.1962e-05,0
0.2615,4.1291e-05,0
0.262,4.1123e-05,0
0.2625,4.1123e-05,0
0.263,4.2298e-05,0
0.2635,4.3473e-05,0
0.264,4.213e-05,0
0.2645,3.7095e-05,0
0.265,2.9206e-05,0
0.2655,2.1653e-05,0
0.266,1.7792e-05,0
0.2665,1.9638e-05,0
0.267,2.3835e-05,0
0.2675,2.5177e-05,0
0.268,2.3331e-05,0
0.2685,2.1653e-05,0
0.269,2.266e-05,0
0.2695,2.5681e-05,0
0.27,2.9206e-05,0
0.2705,3.0381e-05,0
0.271,2.7024e-05,0
0.2715,2.0813e-05,0
0.272,1.3596e-05,0
0.2725,9.0639e-06,0
0.273,4.8676e-06,0
0.2735,1.1749e-06,0
0.274,-4.0284e-06,0
0.2745,-8.5603e-06,0
0.275,-9.5674e-06,0
0.2755,-1.3932e-05,0
0.276,-2.4674e-05,0
0.2765,-3.2059e-05,0
0.277,-3.2395e-05,0
0.2775,-2.8031e-05,0
0.278,-2.1317e-05,0
0.2785,-8.3925e-06,0
0.279,5.8747e-06,0
0.2795,1.7624e-05,0
0.28,3.122e-05,0
0.2805,4.9515e-05,0
0.281,6.7308e-05,0
0.2815,7.6707e-05,0
0.282,6.9993e-05,0
0.2825,5.3544e-05,0
0.283,4.2802e-05,0
0.2835,4.5487e-05,0
0.284,4.8676e-05,0
0.2845,4.2466e-05,0
0.285,3.4073e-05,0
0.2855,3.1052e-05,0
0.286,2.9709e-05,0
0.2865,2.7527e-05,0
0.287,2.4674e-05,0
0.2875,2.1653e-05,0
0.288,1.6785e-05,0
0.2885,1.3428e-05,0
0.289,1.1749e-05,0
0.2895,8.896e-06,0
0.29,5.3712e-06,0
0.2905,2.8534e-06,0
0.291,2.5177e-06,0
0.2915,6.5461e-06,0
0.292,9.0639e-06,0
0.2925,8.896e-06,0
0.293,6.8818e-06,0
0.2935,5.8747e-06,0
0.294,5.0355e-06,0
0.2945,4.8676e-06,0
0.295,7.2175e-06,0
0.2955,1.0239e-05,0
0.296,1.1414e-05,0
0.2965,8.5603e-06,0
0.297,3.1891e-06,0
0.2975,3.1891e-06,0
0.298,8.2246e-06,0
0.2985,1.1917e-05,0
0.299,9.7353e-06,0
0.2995,3.357e-06,0
0.3,-1.0071e-06,0
0.3005,2.0142e-06,0
0.301,1.1246e-05,0
0.3015,2.3667e-05,0
0.302,3.4073e-05,0
0.3025,4.1291e-05,0
0.303,4.6159e-05,0
0.3035,4.9515e-05,0
0.304,5.0187e-05,0
0.3045,4.6159e-05,0
0.305,4.2802e-05,0
0.3055,4.4648e-05,0
0.306,4.6159e-05,0
0.3065,4.2466e-05,0
0.307,3.5416e-05,0
0.3075,2.887e-05,0
0.308,2.6688e-05,0
0.3085,2.8031e-05,0
0.309,2.8367e-05,0
0.3095,2.7359e-05,0
0.31,2.5681e-05,0
0.3105,2.3331e-05,0
0.311,2.0981e-05,0
0.3115,1.6449e-05,0
0.312,1.2589e-05,0
0.3125,9.5674e-06,0
0.313,4.1962e-06,0
0.3135,-4.5319e-06,0
0.314,-1.1078e-05,0
0.3145,-1.3092e-05,0
0.315,-1.4435e-05,0
0.3155,-1.7624e-05,0
0.316,-1.7288e-05,0
0.3165,-1.1414e-05,0
0.317,-5.8747e-06,0
0.3175,-1.6785e-06,0
0.318,1.1749e-06,0
0.3185,5.2033e-06,0
0.319,1.3932e-05,0
0.3195,2.8367e-05,0
0.32,4.3305e-05,0
0.3205,5.1362e-05,0
0.321,5.0858e-05,0
0.3215,4.4816e-05,0
0.322,4.5823e-05,0
0.3225,5.1698e-05,0
0.323,5.2872e-05,0
0.3235,4.8844e-05,0
0.324,4.1795e-05,0
0.3245,3.3234e-05,0
0.325,2.6688e-05,0
0.3255,2.5345e-05,0
0.326,2.4842e-05,0
0.3265,2.4002e-05,0
0.327,2.0981e-05,0
0.3275,1.4939e-05,0
0.328,9.3996e-06,0
0.3285,7.5532e-06,0
0.329,8.5603e-06,0
0.3295,8.3925e-06,0
0.33,7.7211e-06,0
0.3305,6.5461e-06,0
0.331,7.2175e-06,0
0.3315,1.326e-05,0
0.332,2.2995e-05,0
0.3325,3.122e-05,0
0.333,3.1388e-05,0
0.3335,2.266e-05,0
0.334,1.5106e-05,0
0.3345,1.4603e-05,0
0.335,1.796e-05,0
0.3355,1.7792e-05,0
0.336,1.2085e-05,0
0.3365,6.8818e-06,0
0.337,8.896e-06,0
0.3375,1.5442e-05,0
0.338,1.8296e-05,0
0.3385,1.5946e-05,0
0.339,1.0239e-05,0
0.3395,6.2104e-06,0
0.34,1.1246e-05,0
0.3405,2.5513e-05,0
0.341,3.4577e-05,0
0.3415,3.122e-05,0
0.342,2.0646e-05,0
0.3425,9.5674e-06,0
0.343,-6.714e-07,0
0.3435,-6.5461e-06,0
0.344,-5.2033e-06,0
0.3445,2.5177e-06,0
0.345,1.0071e-05,0
0.3455,1.8296e-05,0
0.346,2.8702e-05,0
0.3465,3.4409e-05,0
0.347,3.2731e-05,0
0.3475,2.5009e-05,0
0.348,2.0646e-05,0
0.3485,2.2324e-05,0
0.349,2.1317e-05,0
0.3495,1.5778e-05,0
0.35,9.5674e-06,0
0.3505,6.5461e-06,0
0.351,8.2246e-06,0
0.3515,1.1414e-05,0
0.352,1.4603e-05,0
0.3525,1.6617e-05,0
0.353,2.1317e-05,0
0.3535,2.8702e-05,0
0.354,3.1724e-05,0
0.3545,2.9374e-05,0
0.355,2.887e-05,0
0.3555,3.1052e-05,0
0.356,3.0045e-05,0
0.3565,2.3667e-05,0
0.357,1.2924e-05,0
0.3575,-1.1749e-06,0
0.358,-1.2924e-05,0
0.3585,-1.5946e-05,0
0.359,-1.2589e-05,0
0.3595,-9.5674e-06,0
0.36,-1.8463e-06,0
0.3605,1.1917e-05,0
0.361,2.5345e-05,0
0.3615,3.357e-05,0
0.362,3.7262e-05,0
0.3625,3.9948e-05,0
0.363,4.2802e-05,0
0.3635,4.8173e-05,0
0.364,5.4215e-05,0
0.3645,5.4887e-05,0
0.365,4.6494e-05,0
0.3655,3.8102e-05,0
0.366,3.2731e-05,0
0.3665,2.7024e-05,0
0.367,2.266e-05,0
0.3675,2.1149e-05,0
0.368,2.1149e-05,0
0.3685,2.1149e-05,0
0.369,2.266e-05,0
0.3695,2.7024e-05,0
0.37,2.5345e-05,0
0.3705,1.5946e-05,0
0.371,8.5603e-06,0
0.3715,4.5319e-06,0
0.372,2.5177e-06,0
0.3725,1.8463e-06,0
0.373,2.5177e-06,0
0.3735,4.1962e-06,0
0.374,6.2104e-06,0
0.3745,1.0239e-05,0
0.375,1.7288e-05,0
0.3755,2.3163e-05,0
0.376,2.2995e-05,0
0.3765,1.7288e-05,0
0.377,1.1246e-05,0
0.3775,8.5603e-06,0
0.378,7.7211e-06,0
0.3785,5.8747e-06,0
0.379,6.2104e-06,0
0.3795,1.2924e-05,0
0.38,2.182e-05,0
0.3805,2.6352e-05,0
0.381,2.2324e-05,0
0.3815,1.2589e-05,0
0.382,4.3641e-06,0
0.3825,6.5461e-06,0
0.383,1.5946e-05,0
0.3835,2.4002e-05,0
0.384,2.5513e-05,0
0.3845,2.2156e-05,0
0.385,1.9806e-05,0
0.3855,2.1988e-05,0
0.386,2.4674e-05,0
0.3865,2.1653e-05,0
0.387,1.5274e-05,0
0.3875,1.2924e-05,0
0.388,1.4435e-05,0
0.3885,1.5274e-05,0
0.389,1.6617e-05,0
0.3895,1.9806e-05,0
0.39,2.1149e-05,0
0.3905,2.1317e-05,0
0.391,2.1653e-05,0
0.3915,2.4674e-05,0
0.392,2.9374e-05,0
0.3925,3.2731e-05,0
0.393,3.2059e-05,0
0.3935,2.9374e-05,0
0.394,2.5849e-05,0
0.3945,2.2995e-05,0
0.395,2.182e-05,0
0.3955,2.3163e-05,0
0.396,2.4002e-05,0
0.3965,2.1988e-05,0
0.397,1.561e-05,0
0.3975,9.9031e-06,0
0.398,7.7211e-06,0
0.3985,9.9031e-06,0
0.399,1.4099e-05,0
0.3995,1.796e-05,0
0.4,1.9303e-05,0
0.4005,2.031e-05,0
0.401,2.2492e-05,0
0.4015,2.182e-05,0
0.402,2.0478e-05,0
0.4025,2.031e-05,0
0.403,1.8631e-05,0
0.4035,1.6953e-05,0
0.404,1.4771e-05,0
0.4045,1.0407e-05,0
0.405,8.7282e-06,0
0.4055,7.8889e-06,0
0.406,5.0355e-06,0
0.4065,5.2033e-06,0
0.407,1.326e-05,0
0.4075,2.5513e-05,0
0.408,3.6088e-05,0
0.4085,4.0787e-05,0
0.409,3.9277e-05,0
0.4095,3.4745e-05,0
0.41,2.8031e-05,0
0.4105,2.1317e-05,0
0.411,1.8463e-05,0
0.4115,1.5442e-05,0
0.412,1.0407e-05,0
0.4125,4.8676e-06,0
0.413,-5.035e-07,0
0.4135,-2.3499e-06,0
0.414,-6.714e-07,0
0.4145,2.5177e-06,0
0.415,9.9031e-06,0
0.4155,1.9303e-05,0
0.416,2.5681e-05,0
0.4165,3.4745e-05,0
0.417,4.8341e-05,0
0.4175,5.7908e-05,0
0.418,5.4048e-05,0
0.4185,4.0116e-05,0
0.419,2.5009e-05,0
0.4195,1.5946e-05,0
0.42,1.561e-05,0
0.4205,1.947e-05,0
0.421,2.1317e-05,0
0.4215,1.796e-05,0
0.422,9.2317e-06,0
0.4225,1.1749e-06,0
0.423,1.5106e-06,0
0.4235,7.3854e-06,0
0.424,1.4603e-05,0
0.4245,2.4002e-05,0
0.425,3.1891e-05,0
0.4255,3.0045e-05,0
0.426,2.1317e-05,0
0.4265,1.7288e-05,0
0.427,1.9638e-05,0
0.4275,2.4842e-05,0
0.428,2.8031e-05,0
0.4285,2.7192e-05,0
0.429,1.8463e-05,0
0.4295,6.714e-06,0
0.43,1.8463e-06,0
0.4305,4.5319e-06,0
0.431,7.2175e-06,0
0.4315,1.1917e-05,0
0.432,1.8463e-05,0
0.4325,2.5009e-05,0
0.433,3.0381e-05,0
0.4335,2.9374e-05,0
0.434,2.3667e-05,0
0.4345,2.0981e-05,0
0.435,2.5681e-05,0
0.4355,3.4745e-05,0
0.436,4.2802e-05,0
0.4365,4.4984e-05,0
0.437,3.978e-05,0
0.4375,3.2731e-05,0
0.438,3.0045e-05,0
0.4385,3.1891e-05,0
0.439,3.508e-05,0
0.4395,3.7766e-05,0
0.44,3.743e-05,0
0.4405,3.1388e-05,0
0.441,2.1317e-05,0
0.4415,1.1917e-05,0
0.442,5.8747e-06,0
0.4425,4.8676e-06,0
0.443,3.8605e-06,0
0.4435,3.8605e-06,0
0.444,7.0497e-06,0
0.4445,1.1414e-05,0
0.445,1.1749e-05,0
0.4455,8.2246e-06,0
0.446,5.8747e-06,0
0.4465,7.3854e-06,0
0.447,8.7282e-06,0
0.4475,6.3783e-06,0
0.448,2.8534e-06,0
0.4485,5.539e-06,0
0.449,1.2421e-05,0
0.4495,1.6953e-05,0
0.45,1.796e-05,0
0.4505,1.7624e-05,0
0.451,1.8631e-05,0
0.4515,1.947e-05,0
0.452,1.6449e-05,0
0.4525,1.5106e-05,0
0.453,1.8631e-05,0
0.4535,2.2492e-05,0
0.454,2.4674e-05,0
0.4545,2.5009e-05,0
0.455,2.3331e-05,0
0.4555,2.1988e-05,0
0.456,1.9974e-05,0
0.4565,1.9303e-05,0
0.457,1.8463e-05,0
0.4575,1.8631e-05,0
0.458,2.2995e-05,0
0.4585,2.7192e-05,0
0.459,2.9038e-05,0
0.4595,2.7695e-05,0
0.46,2.7695e-05,0
0.4605,2.6017e-05,0
0.461,1.8296e-05,0
0.4615,6.8818e-06,0
0.462,0,0
0.4625,2.3499e-06,0
0.463,1.0575e-05,0
0.4635,1.4771e-05,0
0.464,1.4435e-05,0
0.4645,1.5274e-05,0
0.465,1.7624e-05,0
0.4655,1.5946e-05,0
0.466,1.1582e-05,0
0.4665,7.5532e-06,0
0.467,2.5177e-06,0
0.4675,-4.1962e-06,0
0.468,-6.8818e-06,0
0.4685,-1.5106e-06,0
0.469,7.5532e-06,0
0.4695,1.1414e-05,0
0.47,8.5603e-06,0
0.4705,8.3925e-06,0
0.471,1.0575e-05,0
0.4715,9.9031e-06,0
0.472,6.5461e-06,0
0.4725,7.8889e-06,0
0.473,1.5778e-05,0
0.4735,2.652e-05,0
0.474,3.5752e-05,0
0.4745,4.1795e-05,0
0.475,4.4816e-05,0
0.4755,4.683e-05,0
0.476,4.8676e-05,0
0.4765,4.918e-05,0
0.477,4.6159e-05,0
0.4775,3.9445e-05,0
0.478,3.122e-05,0
0.4785,2.6352e-05,0
0.479,2.7024e-05,0
0.4795,2.9206e-05,0
0.48,2.7359e-05,0
0.4805,2.4002e-05,0
0.481,2.0142e-05,0
0.4815,1.7792e-05,0
0.482,1.6617e-05,0
0.4825,1.5442e-05,0
0.483,1.3428e-05,0
0.4835,1.2757e-05,0
0.484,1.2421e-05,0
0.4845,8.0568e-06,0
0.485,3.5248e-06,0
0.4855,3.357e-06,0
0.486,6.0426e-06,0
0.4865,1.0407e-05,0
0.487,1.8631e-05,0
0.4875,2.9206e-05,0
0.488,3.9948e-05,0
0.4885,4.8508e-05,0
0.489,5.0858e-05,0
0.4895,5.1194e-05,0
0.49,4.7837e-05,0
0.4905,3.7934e-05,0
0.491,2.5009e-05,0
0.4915,1.7288e-05,0
0.492,1.6617e-05,0
0.4925,1.9303e-05,0
0.493,1.6953e-05,0
0.4935,6.5461e-06,0
0.494,-6.3783e-06,0
0.4945,-1.1749e-05,0
0.495,-8.2246e-06,0
0.4955,-4.8676e-06,0
0.496,-2.8534e-06,0
0.4965,5.035e-07,0
0.497,5.7069e-06,0
0.4975,1.1749e-05,0
0.498,1.4939e-05,0
0.4985,1.4603e-05,0
0.499,1.326e-05,0
0.4995,1.9303e-05,0
0.5,3.0549e-05,0
0.5005,3.8605e-05,0
0.501,4.1795e-05,0
0.5015,4.4144e-05,0
0.502,4.448e-05,0
0.5025,4.1459e-05,0
0.503,3.5752e-05,0
0.5035,2.6352e-05,0
0.504,1.5778e-05,0
0.5045,4.8676e-06,0
0.505,-3.8605e-06,0
0.5055,-9.5674e-06,0
0.506,-1.2253e-05,0
0.5065,-9.9031e-06,0
0.507,1.1749e-06,0
0.5075,1.561e-05,0
0.508,2.5681e-05,0
0.5085,2.5345e-05,0
0.509,1.3092e-05,0
0.5095,1.1749e-06,0
0.51,4.1962e-06,0
0.5105,2.266e-05,0
0.511,4.0452e-05,0
0.5115,4.3809e-05,0
0.512,3.4409e-05,0
0.5125,2.4674e-05,0
0.513,1.9303e-05,0
0.5135,1.3932e-05,0
0.514,7.0497e-06,0
0.5145,-1.5106e-06,0
0.515,-7.0497e-06,0
0.5155,-8.0568e-06,0
0.516,-3.5248e-06,0
0.5165,0,0
0.517,-5.035e-07,0
0.5175,0,0
0.518,6.2104e-06,0
0.5185,1.5946e-05,0
0.519,2.7527e-05,0
0.5195,3.508e-05,0
0.52,3.6927e-05,0
0.5205,3.7934e-05,0
0.521,3.6423e-05,0
0.5215,3.357e-05,0
0.522,3.0045e-05,0
0.5225,3.0045e-05,0
0.523,3.2059e-05,0
0.5235,3.0716e-05,0
0.524,2.6352e-05,0
0.5245,2.4002e-05,0
0.525,2.5345e-05,0
0.5255,3.0716e-05,0
0.526,3.6088e-05,0
0.5265,4.0787e-05,0
0.527,4.3305e-05,0
0.5275,3.9277e-05,0
0.528,2.3331e-05,0
0.5285,1.5106e-06,0
0.529,-9.2317e-06,0
0.5295,-4.0284e-06,0
0.53,5.539e-06,0
0.5305,1.1078e-05,0
0.531,1.6114e-05,0
0.5315,2.2156e-05,0
0.532,2.8031e-05,0
0.5325,3.2395e-05,0
0.533,3.2059e-05,0
0.5335,2.9374e-05,0
0.534,2.5681e-05,0
0.5345,2.4002e-05,0
0.535,2.7359e-05,0
0.5355,3.4241e-05,0
0.536,3.8102e-05,0
0.5365,3.3066e-05,0
0.537,2.2995e-05,0
0.5375,1.5106e-05,0
0.538,1.1078e-05,0
0.5385,9.0639e-06,0
0.539,6.5461e-06,0
0.5395,7.5532e-06,0
0.54,1.0575e-05,0
0.5405,1.3596e-05,0
0.541,1.5946e-05,0
0.5415,1.7121e-05,0
0.542,1.5274e-05,0
0.5425,1.3932e-05,0
0.543,1.561e-05,0
0.5435,2.3331e-05,0
0.544,3.5416e-05,0
0.5445,4.0452e-05,0
0.545,3.3402e-05,0
0.5455,2.2156e-05,0
0.546,1.6617e-05,0
0.5465,1.4435e-05,0
0.547,1.1917e-05,0
0.5475,1.3596e-05,0
0.548,2.2324e-05,0
0.5485,2.887e-05,0
0.549,2.5177e-05,0
0.5495,1.5106e-05,0
0.55,8.3925e-06,0
0.5505,6.2104e-06,0
0.551,7.2175e-06,0
0.5515,1.2421e-05,0
0.552,1.9638e-05,0
0.5525,2.4338e-05,0
0.553,2.4002e-05,0
0.5535,2.2324e-05,0
0.554,2.3835e-05,0
0.5545,2.2995e-05,0
0.555,1.947e-05,0
0.5555,1.3932e-05,0
0.556,8.2246e-06,0
0.5565,6.8818e-06,0
0.557,1.0407e-05,0
0.5575,1.1917e-05,0
0.558,6.8818e-06,0
0.5585,2.5177e-06,0
0.559,1.1749e-06,0
0.5595,1.1749e-06,0
0.56,4.3641e-06,0
0.5605,1.1582e-05,0
0.561,1.8631e-05,0
0.5615,2.1149e-05,0
0.562,1.9974e-05,0
0.5625,2.2492e-05,0
0.563,2.6352e-05,0
0.5635,2.6688e-05,0
0.564,2.8031e-05,0
0.5645,3.2395e-05,0
0.565,3.3234e-05,0
0.5655,3.0045e-05,0
0.566,2.6017e-05,0
0.5665,2.3331e-05,0
0.567,2.6688e-05,0
0.5675,3.3066e-05,0
0.568,2.9374e-05,0
0.5685,1.947e-05,0
0.569,1.5946e-05,0
0.5695,1.8631e-05,0
0.57,1.8296e-05,0
0.5705,1.5778e-05,0
0.571,1.4603e-05,0
0.5715,1.3764e-05,0
0.572,1.326e-05,0
0.5725,1.3932e-05,0
0.573,1.1582e-05,0
0.5735,6.8818e-06,0
0.574,3.1891e-06,0
0.5745,2.5177e-06,0
0.575,3.5248e-06,0
0.5755,4.5319e-06,0
0.576,8.2246e-06,0
0.5765,1.5274e-05,0
0.577,2.4002e-05,0
0.5775,2.7527e-05,0
0.578,2.4674e-05,0
0.5785,2.0981e-05,0
0.579,2.3163e-05,0
0.5795,2.8702e-05,0
0.58,3.3402e-05,0
0.5805,3.5248e-05,0
0.581,3.2731e-05,0
0.5815,2.2995e-05,0
0.582,9.0639e-06,0
0.5825,-2.182e-06,0
0.583,-6.2104e-06,0
0.5835,-5.2033e-06,0
0.584,-2.8534e-06,0
0.5845,-4.3641e-06,0
0.585,-9.9031e-06,0
0.5855,-1.1246e-05,0
0.586,-5.0355e-06,0
0.5865,3.1891e-06,0
0.587,9.2317e-06,0
0.5875,1.3596e-05,0
0.588,1.6953e-05,0
0.5885,2.4338e-05,0
0.589,3.4745e-05,0
0.5895,4.3473e-05,0
0.59,4.6159e-05,0
0.5905,4.683e-05,0
0.591,5.2201e-05,0
0.5915,6.1936e-05,0
0.592,6.5965e-05,0
0.5925,5.5726e-05,0
0.593,4.1123e-05,0
0.5935,3.508e-05,0
0.594,3.3402e-05,0
0.5945,3.2395e-05,0
0.595,3.2395e-05,0
0.5955,3.3402e-05,0
0.596,3.122e-05,0
0.5965,2.7359e-05,0
0.597,2.3667e-05,0
0.5975,1.9974e-05,0
0.598,1.6449e-05,0
0.5985,1.7624e-05,0
0.599,2.4002e-05,0
0.5995,3.1388e-05,0
0.6,3.8773e-05,0
0.6005,3.7262e-05,0
0.601,2.6688e-05,0
0.6015,1.8296e-05,0
0.602,1.7624e-05,0
0.6025,2.182e-05,0
0.603,2.4506e-05,0
0.6035,2.2995e-05,0
0.604,1.6617e-05,0
0.6045,1.3092e-05,0
0.605,1.4099e-05,0
0.6055,1.4939e-05,0
0.606,1.326e-05,0
0.6065,8.0568e-06,0
0.607,2.5177e-06,0
0.6075,3.5248e-06,0
0.608,9.2317e-06,0
0.6085,1.1582e-05,0
0.609,9.2317e-06,0
0.6095,2.5177e-06,0
0.61,-6.0426e-06,0
0.6105,-1.0239e-05,0
0.611,-5.539e-06,0
0.6115,5.7069e-06,0
0.612,1.6449e-05,0
0.6125,2.2995e-05,0
0.613,2.266e-05,0
0.6135,2.1988e-05,0
0.614,2.3667e-05,0
0.6145,2.2828e-05,0
0.615,1.8296e-05,0
0.6155,1.1414e-05,0
0.616,6.5461e-06,0
0.6165,4.3641e-06,0
0.617,4.5319e-06,0
0.6175,4.5319e-06,0
0.618,1.5106e-06,0
0.6185,-3.0213e-06,0
0.619,-5.539e-06,0
0.6195,3.357e-07,0
0.62,1.3092e-05,0
0.6205,2.6352e-05,0
0.621,3.743e-05,0
0.6215,4.683e-05,0
0.622,4.8844e-05,0
0.6225,4.448e-05,0
0.623,4.0787e-05,0
0.6235,3.5584e-05,0
0.624,2.5681e-05,0
0.6245,1.8296e-05,0
0.625,1.8967e-05,0
0.6255,2.1317e-05,0
0.626,2.0981e-05,0
0.6265,2.0813e-05,0
0.627,1.9974e-05,0
0.6275,1.9806e-05,0
0.628,2.0478e-05,0
0.6285,2.0813e-05,0
0.629,1.947e-05,0
0.6295,1.796e-05,0
0.63,1.6785e-05,0
0.6305,1.7624e-05,0
0.631,2.0478e-05,0
0.6315,2.3331e-05,0
0.632,2.266e-05,0
0.6325,1.8967e-05,0
0.633,1.4099e-05,0
0.6335,9.9031e-06,0
0.634,7.7211e-06,0
0.6345,7.7211e-06,0
0.635,9.7353e-06,0
0.6355,9.0639e-06,0
0.636,4.1962e-06,0
0.6365,8.392e-07,0
0.637,5.035e-07,0
0.6375,3.6927e-06,0
0.638,9.9031e-06,0
0.6385,1.4099e-05,0
0.639,1.2253e-05,0
0.6395,1.1917e-05,0
0.64,1.4939e-05,0
0.6405,1.7624e-05,0
0.641,1.9974e-05,0
0.6415,2.2995e-05,0
0.642,2.6688e-05,0
0.6425,2.7863e-05,0
0.643,1.9638e-05,0
0.6435,5.539e-06,0
0.644,-4.5319e-06,0
0.6445,-4.8676e-06,0
0.645,2.8534e-06,0
0.6455,1.4603e-05,0
0.646,2.8702e-05,0
0.6465,4.0116e-05,0
0.647,4.1459e-05,0
0.6475,3.1891e-05,0
0.648,1.9303e-05,0
0.6485,1.6617e-05,0
0.649,2.652e-05,0
0.6495,4.0787e-05,0
0.65,5.153e-05,0
0.6505,5.539e-05,0
0.651,5.0523e-05,0
0.6515,4.1459e-05,0
0.652,3.1556e-05,0
0.6525,2.5345e-05,0
0.653,2.4002e-05,0
0.6535,2.7695e-05,0
0.654,3.0381e-05,0
0.6545,2.9374e-05,0
0.655,2.5345e-05,0
0.6555,2.1149e-05,0
0.656,1.8799e-05,0
0.6565,2.182e-05,0
0.657,2.7192e-05,0
0.6575,2.9374e-05,0
0.658,2.8031e-05,0
0.6585,2.3163e-05,0
0.659,1.6281e-05,0
0.6595,1.4939e-05,0
0.66,1.5274e-05,0
0.6605,1.2589e-05,0
0.661,7.8889e-06,0
0.6615,1.1749e-06,0
0.662,-6.8818e-06,0
0.6625,-1.326e-05,0
0.663,-1.6281e-05,0
0.6635,-1.326e-05,0
0.664,-3.1891e-06,0
0.6645,5.0355e-06,0
0.665,7.3854e-06,0
0.6655,7.8889e-06,0
0.666,6.8818e-06,0
0.6665,1.1246e-05,0
0.667,2.6352e-05,0
0.6675,4.1795e-05,0
0.668,5.0523e-05,0
0.6685,5.7404e-05,0
0.669,5.6565e-05,0
0.6695,4.5151e-05,0
0.67,3.0045e-05,0
0.6705,1.561e-05,0
0.671,8.0568e-06,0
0.6715,9.9031e-06,0
0.672,1.326e-05,0
0.6725,1.7792e-05,0
0.673,2.0813e-05,0
0.6735,2.3331e-05,0
0.674,2.6688e-05,0
0.6745,2.6352e-05,0
0.675,2.8367e-05,0
0.6755,3.743e-05,0
0.676,4.8173e-05,0
0.6765,5.3544e-05,0
0.677,5.0019e-05,0
0.6775,3.6759e-05,0
0.678,2.1149e-05,0
0.6785,1.0239e-05,0
0.679,5.0355e-06,0
0.6795,4.8676e-06,0
0.68,6.8818e-06,0
0.6805,7.7211e-06,0
0.681,5.539e-06,0
0.6815,3.8605e-06,0
0.682,5.2033e-06,0
0.6825,8.896e-06,0
0.683,1.3092e-05,0
0.6835,1.7288e-05,0
0.684,1.8631e-05,0
0.6845,1.7288e-05,0
0.685,1.5106e-05,0
0.6855,1.2924e-05,0
0.686,1.3596e-05,0
0.6865,1.796e-05,0
0.687,2.1149e-05,0
0.6875,1.6449e-05,0
0.688,6.5461e-06,0
0.6885,8.392e-07,0
0.689,0,0
0.6895,2.8534e-06,0
0.69,9.2317e-06,0
0.6905,1.326e-05,0
0.691,1.2589e-05,0
0.6915,1.326e-05,0
0.692,1.7288e-05,0
0.6925,2.0646e-05,0
0.693,1.9135e-05,0
0.6935,1.3932e-05,0
0.694,1.091e-05,0
0.6945,9.7353e-06,0
0.695,9.5674e-06,0
0.6955,9.5674e-06,0
0.696,1.091e-05,0
0.6965,1.3092e-05,0
0.697,1.4603e-05,0
0.6975,1.3428e-05,0
0.698,6.5461e-06,0
0.6985,-2.3499e-06,0
0.699,-5.0355e-06,0
0.6995,-5.035e-07,0
0.7,7.7211e-06,0
0.7005,1.6785e-05,0
0.701,2.5177e-05,0
0.7015,3.4073e-05,0
0.702,4.213e-05,0
0.7025,4.6159e-05,0
0.703,5.1865e-05,0
0.7035,5.8915e-05,0
0.704,5.8244e-05,0
0.7045,5.2872e-05,0
0.705,5.2201e-05,0
0.7055,5.4383e-05,0
0.706,5.0523e-05,0
0.7065,4.0787e-05,0
0.707,2.9374e-05,0
0.7075,2.1317e-05,0
0.708,1.6617e-05,0
0.7085,1.2757e-05,0
0.709,8.896e-06,0
0.7095,6.5461e-06,0
0.71,7.5532e-06,0
0.7105,1.1078e-05,0
0.711,1.3932e-05,0
0.7115,1.3932e-05,0
0.712,1.2589e-05,0
0.7125,1.1917e-05,0
0.713,1.2757e-05,0
0.7135,1.2253e-05,0
0.714,1.0575e-05,0
0.7145,1.2924e-05,0
0.715,1.8128e-05,0
0.7155,2.1149e-05,0
0.716,1.796e-05,0
0.7165,9.9031e-06,0
0.717,-1.8463e-06,0
0.7175,-6.8818e-06,0
0.718,-1.8463e-06,0
0.7185,7.0497e-06,0
0.719,1.1246e-05,0
0.7195,1.3932e-05,0
0.72,1.8967e-05,0
0.7205,2.4674e-05,0
0.721,2.4674e-05,0
0.7215,2.031e-05,0
0.722,1.8463e-05,0
0.7225,2.1317e-05,0
0.723,2.4002e-05,0
0.7235,2.6688e-05,0
0.724,3.1052e-05,0
0.7245,3.2731e-05,0
0.725,3.2059e-05,0
0.7255,3.1556e-05,0
0.726,2.8702e-05,0
0.7265,2.6184e-05,0
0.727,2.4506e-05,0
0.7275,2.4338e-05,0
0.728,2.7359e-05,0
0.7285,3.2059e-05,0
0.729,3.3402e-05,0
0.7295,3.0716e-05,0
0.73,2.9038e-05,0
0.7305,2.9709e-05,0
0.731,2.8367e-05,0
0.7315,2.266e-05,0
0.732,1.8631e-05,0
0.7325,1.8967e-05,0
0.733,1.8296e-05,0
0.7335,1.561e-05,0
0.734,1.0407e-05,0
0.7345,5.539e-06,0
0.735,-1.0071e-06,0
0.7355,-9.5674e-06,0
0.736,-1.5106e-05,0
0.7365,-1.4099e-05,0
0.737,-6.2104e-06,0
0.7375,6.714e-07,0
0.738,3.1891e-06,0
0.7385,5.539e-06,0
0.739,8.2246e-06,0
0.7395,1.1246e-05,0
0.74,1.2924e-05,0
0.7405,1.326e-05,0
0.741,1.7624e-05,0
0.7415,2.266e-05,0
0.742,2.4506e-05,0
0.7425,2.7024e-05,0
0.743,3.4241e-05,0
0.7435,4.4816e-05,0
0.744,5.4215e-05,0
0.7445,5.6901e-05,0
0.745,4.9515e-05,0
0.7455,3.8102e-05,0
0.746,3.0716e-05,0
0.7465,3.1052e-05,0
0.747,3.4241e-05,0
0.7475,3.4745e-05,0
0.748,3.3738e-05,0
0.7485,2.9374e-05,0
0.749,2.3667e-05,0
0.7495,1.9974e-05,0
0.75,2.1988e-05,0
0.7505,2.3331e-05,0
0.751,2.1317e-05,0
0.7515,2.2324e-05,0
0.752,2.4338e-05,0
0.7525,2.1653e-05,0
0.753,1.6449e-05,0
0.7535,1.1414e-05,0
0.754,5.8747e-06,0
0.7545,2.0142e-06,0
0.755,-5.035e-07,0
0.7555,-1.0071e-06,0
0.756,-3.357e-07,0
0.7565,-5.035e-07,0
0.757,-2.5177e-06,0
0.7575,-4.5319e-06,0
0.758,-5.2033e-06,0
0.7585,-2.182e-06,0
0.759,5.539e-06,0
0.7595,1.561e-05,0
0.76,2.1988e-05,0
0.7605,2.0142e-05,0
0.761,1.4435e-05,0
0.7615,8.2246e-06,0
0.762,4.1962e-06,0
0.7625,5.2033e-06,0
0.763,1.091e-05,0
0.7635,1.8128e-05,0
0.764,2.031e-05,0
0.7645,1.7792e-05,0
0.765,1.4939e-05,0
0.7655,1.5778e-05,0
0.766,1.9974e-05,0
0.7665,2.5681e-05,0
0.767,3.3402e-05,0
0.7675,4.2802e-05,0
0.768,5.0858e-05,0
0.7685,5.3544e-05,0
0.769,4.9851e-05,0
0.7695,4.2466e-05,0
0.77,3.2059e-05,0
0.7705,2.2156e-05,0
0.771,1.6617e-05,0
0.7715,1.3932e-05,0
0.772,1.2085e-05,0
0.7725,1.2421e-05,0
0.773,1.4435e-05,0
0.7735,1.5778e-05,0
0.774,1.9303e-05,0
0.7745,2.4002e-05,0
0.775,2.4338e-05,0
0.7755,2.3667e-05,0
0.776,2.7695e-05,0
0.7765,3.7934e-05,0
0.777,4.7837e-05,0
0.7775,4.5151e-05,0
0.778,2.9374e-05,0
0.7785,1.1582e-05,0
0.779,-2.5177e-06,0
0.7795,-9.7353e-06,0
0.78,-1.1246e-05,0
0.7805,-1.0239e-05,0
0.781,-4.3641e-06,0
0.7815,7.0497e-06,0
0.782,1.6617e-05,0
0.7825,2.6184e-05,0
0.783,3.7262e-05,0
0.7835,4.4648e-05,0
0.784,4.8173e-05,0
0.7845,4.7501e-05,0
0.785,4.0619e-05,0
0.7855,3.1724e-05,0
0.786,2.3499e-05,0
0.7865,1.796e-05,0
0.787,1.4267e-05,0
0.7875,1.1582e-05,0
0.788,1.0575e-05,0
0.7885,9.3996e-06,0
0.789,7.8889e-06,0
0.7895,9.5674e-06,0
0.79,1.2924e-05,0
0.7905,1.091e-05,0
0.791,4.3641e-06,0
0.7915,1.8463e-06,0
0.792,4.1962e-06,0
0.7925,4.8676e-06,0
0.793,4.6998e-06,0
0.7935,6.2104e-06,0
0.794,7.8889e-06,0
0.7945,8.3925e-06,0
0.795,1.1917e-05,0
0.7955,1.6617e-05,0
0.796,1.7121e-05,0
0.7965,1.6114e-05,0
0.797,1.5946e-05,0
0.7975,1.8296e-05,0
0.798,2.0646e-05,0
0.7985,1.9806e-05,0
0.799,1.5274e-05,0
0.7995,1.0239e-05,0
0.8,8.5603e-06,0
0.8005,8.2246e-06,0
0.801,7.8889e-06,0
0.8015,1.1749e-05,0
0.802,1.9303e-05,0
0.8025,2.6688e-05,0
0.803,2.9877e-05,0
0.8035,3.0549e-05,0
0.804,3.508e-05,0
0.8045,4.0452e-05,0
0.805,3.5584e-05,0
0.8055,2.1149e-05,0
0.806,9.2317e-06,0
0.8065,2.6856e-06,0
0.807,-1.0071e-06,0
0.8075,-5.539e-06,0
0.808,-9.5674e-06,0
0.8085,-6.2104e-06,0
0.809,2.0142e-06,0
0.8095,1.3932e-05,0
0.81,2.7024e-05,0
0.8105,3.3234e-05,0
0.811,3.5752e-05,0
0.8115,3.8437e-05,0
0.812,4.1459e-05,0
0.8125,4.4648e-05,0
0.813,4.3977e-05,0
0.8135,4.213e-05,0
0.814,4.3473e-05,0
0.8145,4.7501e-05,0
0.815,4.7166e-05,0
0.8155,4.0452e-05,0
0.816,2.9038e-05,0
0.8165,1.8631e-05,0
0.817,1.3596e-05,0
0.8175,1.4435e-05,0
0.818,1.8128e-05,0
0.8185,2.0646e-05,0
0.819,2.0981e-05,0
0.8195,1.9638e-05,0
0.82,1.6617e-05,0
0.8205,1.4603e-05,0
0.821,1.1917e-05,0
0.8215,7.3854e-06,0
0.822,5.035e-07,0
0.8225,-3.5248e-06,0
0.823,-3.1891e-06,0
0.8235,-6.714e-07,0
0.824,4.6998e-06,0
0.8245,1.1917e-05,0
0.825,1.8967e-05,0
0.8255,2.4506e-05,0
0.826,2.6352e-05,0
0.8265,2.6017e-05,0
0.827,2.4674e-05,0
0.8275,2.0813e-05,0
0.828,1.4603e-05,0
0.8285,9.2317e-06,0
0.829,1.2757e-05,0
0.8295,2.0646e-05,0
0.83,2.3499e-05,0
0.8305,2.3331e-05,0
0.831,2.1149e-05,0
0.8315,2.1317e-05,0
0.832,2.8199e-05,0
0.8325,3.6759e-05,0
0.833,3.5248e-05,0
0.8335,2.5009e-05,0
0.834,1.796e-05,0
0.8345,1.8631e-05,0
0.835,1.9806e-05,0
0.8355,1.8967e-05,0
0.836,1.8631e-05,0
0.8365,1.8631e-05,0
0.837,1.7288e-05,0
0.8375,1.7121e-05,0
0.838,1.7624e-05,0
0.8385,1.796e-05,0
0.839,1.9303e-05,0
0.8395,2.1149e-05,0
0.84,2.1988e-05,0
0.8405,2.0981e-05,0
0.841,1.8463e-05,0
0.8415,1.6617e-05,0
0.842,1.561e-05,0
0.8425,1.6617e-05,0
0.843,1.8631e-05,0
0.8435,2.0478e-05,0
0.844,2.5345e-05,0
0.8445,3.0884e-05,0
0.845,3.2731e-05,0
0.8455,3.3066e-05,0
0.846,3.3402e-05,0
0.8465,3.1724e-05,0
0.847,2.8534e-05,0
0.8475,2.7192e-05,0
0.848,2.5345e-05,0
0.8485,1.9638e-05,0
0.849,1.2924e-05,0
0.8495,8.896e-06,0
0.85,9.5674e-06,0
0.8505,1.1917e-05,0
0.851,7.5532e-06,0
0.8515,-6.2104e-06,0
0.852,-1.8463e-05,0
0.8525,-1.8967e-05,0
0.853,-1.0575e-05,0
0.8535,-5.035e-07,0
0.854,8.896e-06,0
0.8545,1.6953e-05,0
0.855,2.2324e-05,0
0.8555,2.266e-05,0
0.856,2.1988e-05,0
0.8565,2.7359e-05,0
0.857,3.5584e-05,0
0.8575,3.8102e-05,0
0.858,3.3402e-05,0
0.8585,2.5681e-05,0
0.859,1.9135e-05,0
0.8595,1.5274e-05,0
0.86,1.6114e-05,0
0.8605,2.031e-05,0
0.861,2.5849e-05,0
0.8615,3.1052e-05,0
0.862,3.2898e-05,0
0.8625,3.122e-05,0
0.863,2.9374e-05,0
0.8635,3.0045e-05,0
0.864,2.9374e-05,0
0.8645,2.5009e-05,0
0.865,2.182e-05,0
0.8655,2.1149e-05,0
0.866,1.8631e-05,0
0.8665,1.4603e-05,0
0.867,1.2421e-05,0
0.8675,1.1582e-05,0
0.868,1.0239e-05,0
0.8685,8.896e-06,0
0.869,1.0239e-05,0
0.8695,1.0407e-05,0
0.87,9.2317e-06,0
0.8705,9.3996e-06,0
0.871,1.0575e-05,0
0.8715,1.1582e-05,0
0.872,1.326e-05,0
0.8725,1.3092e-05,0
0.873,1.0575e-05,0
0.8735,1.0575e-05,0
0.874,1.4099e-05,0
0.8745,1.6617e-05,0
0.875,1.7624e-05,0
0.8755,1.8967e-05,0
0.876,2.2324e-05,0
0.8765,2.4674e-05,0
0.877,2.5849e-05,0
0.8775,2.652e-05,0
0.878,2.4506e-05,0
0.8785,2.0478e-05,0
0.879,1.6785e-05,0
0.8795,1.6281e-05,0
0.88,1.8631e-05,0
0.8805,2.1317e-05,0
0.881,2.4002e-05,0
0.8815,2.3667e-05,0
0.882,2.1317e-05,0
0.8825,2.1317e-05,0
0.883,2.4674e-05,0
0.8835,2.8367e-05,0
0.884,2.4674e-05,0
0.8845,1.3932e-05,0
0.885,6.0426e-06,0
0.8855,6.0426e-06,0
0.886,7.8889e-06,0
0.8865,8.5603e-06,0
0.887,1.0239e-05,0
0.8875,1.3092e-05,0
0.888,1.9135e-05,0
0.8885,2.4674e-05,0
0.889,2.652e-05,0
0.8895,2.5513e-05,0
0.89,2.6688e-05,0
0.8905,3.0381e-05,0
0.891,3.3906e-05,0
0.8915,3.5752e-05,0
0.892,3.5416e-05,0
0.8925,3.3402e-05,0
0.893,3.2395e-05,0
0.8935,3.3066e-05,0
0.894,3.3066e-05,0
0.8945,3.3066e-05,0
0.895,3.2059e-05,0
0.8955,2.8031e-05,0
0.896,2.4506e-05,0
0.8965,2.3667e-05,0
0.897,2.3667e-05,0
0.8975,2.266e-05,0
0.898,1.6785e-05,0
0.8985,4.5319e-06,0
0.899,-8.0568e-06,0
0.8995,-1.3932e-05,0
0.9,-1.4603e-05,0
0.9005,-1.2757e-05,0
0.901,-1.2421e-05,0
0.9015,-1.1078e-05,0
0.902,-5.2033e-06,0
0.9025,3.357e-07,0
0.903,1.1749e-06,0
0.9035,8.392e-07,0
0.904,4.3641e-06,0
0.9045,1.326e-05,0
0.905,2.6688e-05,0
0.9055,4.0116e-05,0
0.906,4.918e-05,0
0.9065,5.4048e-05,0
0.907,4.8508e-05,0
0.9075,2.8534e-05,0
0.908,4.8676e-06,0
0.9085,-5.0355e-06,0
0.909,3.1891e-06,0
0.9095,1.6281e-05,0
0.91,2.1317e-05,0
0.9105,2.031e-05,0
0.911,2.1317e-05,0
0.9115,2.5009e-05,0
0.912,2.9374e-05,0
0.9125,3.7095e-05,0
0.913,4.1459e-05,0
0.9135,3.3906e-05,0
0.914,1.8631e-05,0
0.9145,1.1749e-05,0
0.915,1.796e-05,0
0.9155,2.887e-05,0
0.916,3.1052e-05,0
0.9165,2.1317e-05,0
0.917,9.2317e-06,0
0.9175,4.3641e-06,0
0.918,1.0575e-05,0
0.9185,2.1149e-05,0
0.919,2.8702e-05,0
0.9195,3.0045e-05,0
0.92,2.652e-05,0
0.9205,2.3163e-05,0
0.921,2.4674e-05,0
0.9215,2.9374e-05,0
0.922,3.2059e-05,0
0.9225,3.0716e-05,0
0.923,2.7024e-05,0
0.9235,2.1149e-05,0
0.924,1.5946e-05,0
0.9245,1.4603e-05,0
0.925,1.4435e-05,0
0.9255,1.326e-05,0
0.926,1.5946e-05,0
0.9265,2.4338e-05,0
0.927,3.3402e-05,0
0.9275,3.5248e-05,0
0.928,3.2059e-05,0
0.9285,3.0549e-05,0
0.929,2.9206e-05,0
0.9295,2.5009e-05,0
0.93,1.796e-05,0
0.9305,1.2085e-05,0
0.931,8.896e-06,0
0.9315,3.8605e-06,0
0.932,-3.0213e-06,0
0.9325,-7.8889e-06,0
0.933,-7.2175e-06,0
0.9335,-2.8534e-06,0
0.934,2.0142e-06,0
0.9345,8.2246e-06,0
0.935,1.5946e-05,0
0.9355,2.0478e-05,0
0.936,2.4842e-05,0
0.9365,3.0381e-05,0
0.937,3.3402e-05,0
0.9375,3.6088e-05,0
0.938,3.6423e-05,0
0.9385,3.2731e-05,0
0.939,2.7695e-05,0
0.9395,2.6352e-05,0
0.94,2.6688e-05,0
0.9405,2.5177e-05,0
0.941,1.9974e-05,0
0.9415,1.6785e-05,0
0.942,1.6785e-05,0
0.9425,1.7288e-05,0
0.943,1.8463e-05,0
0.9435,1.5946e-05,0
0.944,1.091e-05,0
0.9445,9.0639e-06,0
0.945,1.2421e-05,0
0.9455,1.6617e-05,0
0.946,1.6449e-05,0
0.9465,1.4267e-05,0
0.947,1.2589e-05,0
0.9475,1.3764e-05,0
0.948,1.6953e-05,0
0.9485,1.8631e-05,0
0.949,1.6953e-05,0
0.9495,1.326e-05,0
0.95,9.9031e-06,0
0.9505,5.7069e-06,0
0.951,1.1749e-06,0
0.9515,1.678e-07,0
0.952,3.357e-06,0
0.9525,6.5461e-06,0
0.953,7.8889e-06,0
0.9535,1.0575e-05,0
0.954,1.6617e-05,0
0.9545,2.2492e-05,0
0.955,2.4674e-05,0
0.9555,2.7024e-05,0
0.956,3.0716e-05,0
0.9565,2.9877e-05,0
0.957,2.3499e-05,0
0.9575,1.6953e-05,0
0.958,1.4603e-05,0
0.9585,1.796e-05,0
0.959,2.2324e-05,0
0.9595,2.2995e-05,0
0.96,2.0142e-05,0
0.9605,1.8967e-05,0
0.961,2.1988e-05,0
0.9615,2.4338e-05,0
0.962,2.8367e-05,0
0.9625,3.1724e-05,0
0.963,3.357e-05,0
0.9635,3.4745e-05,0
0.964,3.6759e-05,0
0.9645,4.0116e-05,0
0.965,3.8437e-05,0
0.9655,2.9206e-05,0
0.966,1.8296e-05,0
0.9665,1.3932e-05,0
0.967,1.9638e-05,0
0.9675,2.9374e-05,0
0.968,3.3906e-05,0
0.9685,3.2059e-05,0
0.969,2.5849e-05,0
0.9695,1.6281e-05,0
0.97,8.2246e-06,0
0.9705,4.1962e-06,0
0.971,3.6927e-06,0
0.9715,7.5532e-06,0
0.972,1.1246e-05,0
0.9725,5.539e-06,0
0.973,-2.5177e-06,0
0.9735,-5.035e-07,0
0.974,1.0575e-05,0
0.9745,2.031e-05,0
0.975,2.8367e-05,0
0.9755,3.4073e-05,0
0.976,3.4577e-05,0
0.9765,2.9038e-05,0
0.977,2.1653e-05,0
0.9775,1.3092e-05,0
0.978,3.8605e-06,0
0.9785,-3.0213e-06,0
0.979,-5.539e-06,0
0.9795,-1.5106e-06,0
0.98,5.2033e-06,0
0.9805,8.5603e-06,0
0.981,4.8676e-06,0
0.9815,6.2104e-06,0
0.982,1.5274e-05,0
0.9825,2.4002e-05,0
0.983,2.7695e-05,0
0.9835,2.7359e-05,0
0.984,2.4002e-05,0
0.9845,2.2156e-05,0
0.985,2.4338e-05,0
0.9855,2.4674e-05,0
0.986,2.266e-05,0
0.9865,2.3331e-05,0
0.987,2.7192e-05,0
0.9875,2.9038e-05,0
0.988,2.7527e-05,0
0.9885,2.2995e-05,0
0.989,1.8128e-05,0
0.9895,1.326e-05,0
0.99,8.5603e-06,0
0.9905,7.2175e-06,0
0.991,7.3854e-06,0
0.9915,7.0497e-06,0
0.992,7.2175e-06,0
0.9925,8.0568e-06,0
0.993,8.5603e-06,0
0.9935,8.2246e-06,0
0.994,7.2175e-06,0
0.9945,9.9031e-06,0
0.995,1.7121e-05,0
0.9955,2.2995e-05,0
0.996,2.7024e-05,0
0.9965,3.1724e-05,0
0.997,3.7934e-05,0
0.9975,4.7166e-05,0
0.998,5.9251e-05,0
0.9985,6.714e-05,0
0.999,6.6972e-05,0
0.9995,6.6972e-05,0
1,6.6636e-05,0
1.0005,6.2104e-05,0
1.001,5.0523e-05,0
1.0015,3.2731e-05,0
1.002,1.4435e-05,0
1.0025,6.3783e-06,0
1.003,5.8747e-06,0
1.0035,5.8747e-06,0
1.004,3.1891e-06,0
1.0045,-1.0071e-06,0
1.005,-1.1749e-06,0
1.0055,5.8747e-06,0
1.006,1.9638e-05,0
1.0065,3.1556e-05,0
1.007,3.3402e-05,0
1.0075,2.6352e-05,0
1.008,1.6785e-05,0
1.0085,9.5674e-06,0
1.009,8.5603e-06,0
1.0095,1.1749e-05,0
1.01,1.5274e-05,0
1.0105,2.1317e-05,0
1.011,2.3163e-05,0
1.0115,1.9806e-05,0
1.012,1.5946e-05,0
1.0125,9.9031e-06,0
1.013,3.357e-06,0
1.0135,0,0
1.014,-1.0071e-06,0
1.0145,0,0
1.015,3.5248e-06,0
1.0155,5.2033e-06,0
1.016,5.0355e-06,0
1.0165,7.2175e-06,0
1.017,9.0639e-06,0
1.0175,4.6998e-06,0
1.018,-5.035e-07,0
1.0185,-2.8534e-06,0
1.019,-8.392e-07,0
1.0195,5.2033e-06,0
1.02,1.4267e-05,0
1.0205,2.3499e-05,0
1.021,3.2059e-05,0
1.0215,3.7766e-05,0
1.022,3.5752e-05,0
1.0225,3.0716e-05,0
1.023,3.1891e-05,0
1.0235,3.8102e-05,0
1.024,4.4144e-05,0
1.0245,4.8508e-05,0
1.025,4.8676e-05,0
1.0255,4.0787e-05,0
1.026,2.2995e-05,0
1.0265,1.6785e-06,0
1.027,-1.4267e-05,0
1.0275,-2.3331e-05,0
1.028,-2.2324e-05,0
1.0285,-1.1749e-05,0
1.029,2.0142e-06,0
1.0295,1.4939e-05,0
1.03,2.1653e-05,0
1.0305,2.2995e-05,0
1.031,2.182e-05,0
1.0315,2.3163e-05,0
1.032,2.5345e-05,0
1.0325,2.4842e-05,0
1.033,2.3331e-05,0
1.0335,2.1317e-05,0
1.034,2.1149e-05,0
1.0345,2.2324e-05,0
1.035,2.266e-05,0
1.0355,2.1317e-05,0
1.036,2.182e-05,0
1.0365,2.1988e-05,0
1.037,2.4506e-05,0
1.0375,3.0716e-05,0
1.038,4.1123e-05,0
1.0385,4.8005e-05,0
1.039,4.4144e-05,0
1.0395,3.2563e-05,0
1.04,2.6688e-05,0
1.0405,3.1891e-05,0
1.041,3.4745e-05,0
1.0415,2.7359e-05,0
1.042,1.6617e-05,0
1.0425,1.1749e-05,0
1.043,8.2246e-06,0
1.0435,4.8676e-06,0
1.044,3.357e-06,0
1.0445,4.3641e-06,0
1.045,5.8747e-06,0
1.0455,5.2033e-06,0
1.046,2.3499e-06,0
1.0465,1.1749e-06,0
1.047,6.3783e-06,0
1.0475,1.4939e-05,0
1.048,1.8967e-05,0
1.0485,1.6617e-05,0
1.049,1.1246e-05,0
1.0495,1.0575e-05,0
1.05,1.6281e-05,0
1.0505,2.0981e-05,0
1.051,1.7792e-05,0
1.0515,1.0575e-05,0
1.052,7.5532e-06,0
1.0525,1.1582e-05,0
1.053,1.8631e-05,0
1.0535,2.6352e-05,0
1.054,3.4745e-05,0
1.0545,3.7934e-05,0
1.055,3.3906e-05,0
1.0555,2.7192e-05,0
1.056,2.3835e-05,0
1.0565,2.6017e-05,0
1.057,3.1556e-05,0
1.0575,3.5752e-05,0
1.058,3.6088e-05,0
1.0585,2.9709e-05,0
1.059,1.8967e-05,0
1.0595,9.9031e-06,0
1.06,8.2246e-06,0
1.0605,1.3932e-05,0
1.061,2.0142e-05,0
1.0615,2.3499e-05,0
1.062,2.5345e-05,0
1.0625,2.8031e-05,0
1.063,3.1724e-05,0
1.0635,3.4577e-05,0
1.064,3.3234e-05,0
1.0645,2.9542e-05,0
1.065,2.7359e-05,0
1.0655,2.6352e-05,0
1.066,2.4674e-05,0
1.0665,2.031e-05,0
1.067,1.561e-05,0
1.0675,1.3932e-05,0
1.068,1.326e-05,0
1.0685,1.4435e-05,0
1.069,1.4435e-05,0
1.0695,1.3932e-05,0
1.07,1.6281e-05,0
1.0705,2.266e-05,0
1.071,2.9374e-05,0
1.0715,2.6352e-05,0
1.072,1.4603e-05,0
1.0725,7.3854e-06,0
1.073,7.7211e-06,0
1.0735,8.896e-06,0
1.074,1.091e-05,0
1.0745,1.4603e-05,0
1.075,1.6953e-05,0
1.0755,1.2589e-05,0
1.076,7.2175e-06,0
1.0765,5.2033e-06,0
1.077,2.182e-06,0
1.0775,0,0
1.078,0,0
1.0785,1.678e-07,0
1.079,-1.678e-07,0
1.0795,3.357e-07,0
1.08,5.2033e-06,0
1.0805,1.2421e-05,0
1.081,1.4435e-05,0
1.0815,1.3596e-05,0
1.082,1.1582e-05,0
1.0825,1.2253e-05,0
1.083,1.6617e-05,0
1.0835,2.0478e-05,0
1.084,2.1317e-05,0
1.0845,2.4674e-05,0
1.085,3.1388e-05,0
1.0855,3.5248e-05,0
1.086,3.1724e-05,0
1.0865,2.182e-05,0
1.087,1.1917e-05,0
1.0875,5.7069e-06,0
1.088,5.8747e-06,0
1.0885,1.3764e-05,0
1.089,2.1317e-05,0
1.0895,1.8967e-05,0
1.09,1.5946e-05,0
1.0905,2.2324e-05,0
1.091,3.0716e-05,0
1.0915,3.6927e-05,0
1.092,3.7262e-05,0
1.0925,3.3066e-05,0
1.093,2.5177e-05,0
1.0935,2.0813e-05,0
1.094,1.796e-05,0
1.0945,1.3596e-05,0
1.095,1.2924e-05,0
1.0955,2.1317e-05,0
1.096,3.1891e-05,0
1.0965,3.6088e-05,0
1.097,3.3234e-05,0
1.0975,2.9374e-05,0
1.098,2.5345e-05,0
1.0985,2.2492e-05,0
1.099,2.2492e-05,0
1.0995,2.2156e-05,0
1.1,2.266e-05,0
1.1005,2.5177e-05,0
1.101,2.7359e-05,0
1.1015,2.6688e-05,0
1.102,2.5345e-05,0
1.1025,2.3667e-05,0
1.103,2.4002e-05,0
1.1035,2.7024e-05,0
1.104,3.0549e-05,0
1.1045,2.8367e-05,0
1.105,2.0646e-05,0
1.1055,1.4435e-05,0
1.106,1.1414e-05,0
1.1065,9.0639e-06,0
1.107,7.7211e-06,0
1.1075,8.5603e-06,0
1.108,8.896e-06,0
1.1085,3.1891e-06,0
1.109,-5.3712e-06,0
1.1095,-1.0742e-05,0
1.11,-7.2175e-06,0
1.1105,3.1891e-06,0
1.111,1.091e-05,0
1.1115,1.3596e-05,0
1.112,1.1917e-05,0
1.1125,1.1414e-05,0
1.113,1.4603e-05,0
1.1135,1.9974e-05,0
1.114,2.652e-05,0
1.1145,3.2898e-05,0
1.115,3.7598e-05,0
1.1155,3.8773e-05,0
1.116,3.5416e-05,0
1.1165,3.357e-05,0
1.117,3.827e-05,0
1.1175,4.8005e-05,0
1.118,5.2537e-05,0
1.1185,4.7837e-05,0
1.119,4.0452e-05,0
1.1195,3.4745e-05,0
1.12,3.0045e-05,0
1.1205,2.7024e-05,0
1.121,2.4842e-05,0
1.1215,2.2324e-05,0
1.122,2.0142e-05,0
1.1225,1.7624e-05,0
1.123,1.2421e-05,0
1.1235,7.8889e-06,0
1.124,9.2317e-06,0
1.1245,1.0239e-05,0
1.125,1.0575e-05,0
1.1255,1.2589e-05,0
1.126,1.4603e-05,0
1.1265,1.8296e-05,0
1.127,2.1988e-05,0
1.1275,2.4002e-05,0
1.128,2.5177e-05,0
1.1285,2.4338e-05,0
1.129,1.8799e-05,0
1.1295,1.1414e-05,0
1.13,6.8818e-06,0
1.1305,7.8889e-06,0
1.131,1.1749e-05,0
1.1315,1.3764e-05,0
1.132,1.1582e-05,0
1.1325,7.7211e-06,0
1.133,6.2104e-06,0
1.1335,9.0639e-06,0
1.134,9.5674e-06,0
1.1345,4.5319e-06,0
1.135,-1.8463e-06,0
1.1355,-5.539e-06,0
1.136,-2.5177e-06,0
1.1365,4.5319e-06,0
1.137,1.1414e-05,0
1.1375,1.326e-05,0
1.138,1.7624e-05,0
1.1385,2.7024e-05,0
1.139,3.1891e-05,0
1.1395,2.9206e-05,0
1.14,3.1556e-05,0
1.1405,4.6159e-05,0
1.141,5.8579e-05,0
1.1415,5.153e-05,0
1.142,3.2395e-05,0
1.1425,1.6953e-05,0
1.143,9.9031e-06,0
1.1435,6.5461e-06,0
1.144,6.2104e-06,0
1.1445,8.896e-06,0
1.145,1.091e-05,0
1.1455,1.091e-05,0
1.146,9.2317e-06,0
1.1465,9.9031e-06,0
1.147,1.326e-05,0
1.1475,1.7624e-05,0
1.148,1.8296e-05,0
1.1485,1.4939e-05,0
1.149,1.3932e-05,0
1.1495,1.8967e-05,0
1.15,2.5345e-05,0
1.1505,2.9206e-05,0
1.151,2.9542e-05,0
1.1515,2.9038e-05,0
1.152,2.6184e-05,0
1.1525,1.9303e-05,0
1.153,1.2253e-05,0
1.1535,9.7353e-06,0
1.154,8.2246e-06,0
1.1545,7.3854e-06,0
1.155,8.2246e-06,0
1.1555,4.6998e-06,0
1.156,-6.2104e-06,0
1.1565,-1.7121e-05,0
1.157,-2.1317e-05,0
1.1575,-1.5442e-05,0
1.158,-3.1891e-06,0
1.1585,8.7282e-06,0
1.159,1.8296e-05,0
1.1595,2.7863e-05,0
1.16,3.6423e-05,0
1.1605,4.2298e-05,0
1.161,5.304e-05,0
1.1615,6.7811e-05,0
1.162,7.5364e-05,0
1.1625,7.2343e-05,0
1.163,6.1601e-05,0
1.1635,5.1194e-05,0
1.164,4.8173e-05,0
1.1645,4.683e-05,0
1.165,3.743e-05,0
1.1655,2.4338e-05,0
1.166,1.3932e-05,0
1.1665,8.5603e-06,0
1.167,7.8889e-06,0
1.1675,9.0639e-06,0
1.168,1.4267e-05,0
1.1685,2.3835e-05,0
1.169,3.2731e-05,0
1.1695,3.5752e-05,0
1.17,3.3066e-05,0
1.1705,3.1052e-05,0
1.171,3.0045e-05,0
1.1715,2.5681e-05,0
1.172,2.1317e-05,0
1.1725,2.1317e-05,0
1.173,1.9303e-05,0
1.1735,9.9031e-06,0
1.174,-1.6785e-06,0
1.1745,-1.0575e-05,0
1.175,-1.5442e-05,0
1.1755,-1.8296e-05,0
1.176,-2.3331e-05,0
1.1765,-2.7024e-05,0
1.177,-2.5345e-05,0
1.1775,-1.8967e-05,0
1.178,-1.4267e-05,0
1.1785,-1.1414e-05,0
1.179,-4.6998e-06,0
1.1795,3.8605e-06,0
1.18,1.1917e-05,0
1.1805,1.7121e-05,0
1.181,1.6953e-05,0
1.1815,1.8631e-05,0
1.182,2.5681e-05,0
1.1825,3.4073e-05,0
1.183,4.2466e-05,0
1.1835,4.9012e-05,0
1.184,4.9683e-05,0
1.1845,4.7669e-05,0
1.185,4.8508e-05,0
1.1855,5.4551e-05,0
1.186,6.0761e-05,0
1.1865,5.8076e-05,0
1.187,4.3809e-05,0
1.1875,2.4506e-05,0
1.188,1.2085e-05,0
1.1885,7.8889e-06,0
1.189,6.2104e-06,0
1.1895,3.1891e-06,0
1.19,3.357e-06,0
1.1905,9.0639e-06,0
1.191,1.5946e-05,0
1.1915,2.5513e-05,0
1.192,3.2898e-05,0
1.1925,3.2731e-05,0
1.193,2.7527e-05,0
1.1935,2.1317e-05,0
1.194,1.6449e-05,0
1.1945,1.3764e-05,0
1.195,9.9031e-06,0
1.1955,6.8818e-06,0
1.196,7.2175e-06,0
1.1965,1.0575e-05,0
1.197,1.3596e-05,0
1.1975,1.4435e-05,0
1.198,1.326e-05,0
1.1985,1.2421e-05,0
1.199,1.1582e-05,0
1.1995,1.3596e-05,0
1.2,1.8296e-05,0
1.2005,1.8463e-05,0
1.201,1.4603e-05,0
1.2015,1.2757e-05,0
1.202,1.326e-05,0
1.2025,1.4267e-05,0
1.203,1.2589e-05,0
1.2035,9.5674e-06,0
1.204,8.5603e-06,0
1.2045,9.3996e-06,0
1.205,9.9031e-06,0
1.2055,1.0575e-05,0
1.206,1.2757e-05,0
1.2065,1.3764e-05,0
1.207,1.4603e-05,0
1.2075,1.6617e-05,0
1.208,1.9806e-05,0
1.2085,1.6953e-05,0
1.209,6.3783e-06,0
1.2095,-3.8605e-06,0
1.21,-6.3783e-06,0
1.2105,1.0071e-06,0
1.211,1.4267e-05,0
1.2115,2.7192e-05,0
1.212,3.2059e-05,0
1.2125,2.9709e-05,0
1.213,2.8702e-05,0
1.2135,2.9374e-05,0
1.214,3.0716e-05,0
1.2145,3.6088e-05,0
1.215,4.5487e-05,0
1.2155,5.0523e-05,0
1.216,4.683e-05,0
1.2165,3.6591e-05,0
1.217,2.6184e-05,0
1.2175,1.796e-05,0
1.218,1.0071e-05,0
1.2185,8.392e-07,0
1.219,-4.8676e-06,0
1.2195,-3.0213e-06,0
1.22,1.6785e-06,0
1.2205,8.5603e-06,0
1.221,1.7288e-05,0
1.2215,2.652e-05,0
1.222,3.4745e-05,0
1.2225,4.4816e-05,0
1.223,5.623e-05,0
1.2235,6.2272e-05,0
1.224,6.2944e-05,0
1.2245,6.2776e-05,0
1.225,6.1265e-05,0
1.2255,5.6565e-05,0
1.226,4.683e-05,0
1.2265,3.5248e-05,0
1.227,2.6184e-05,0
1.2275,1.5106e-05,0
1.228,-3.357e-06,0
1.2285,-2.7192e-05,0
1.229,-3.9445e-05,0
1.2295,-2.9374e-05,0
1.23,-8.3925e-06,0
1.2305,9.7353e-06,0
1.231,2.1149e-05,0
1.2315,2.1988e-05,0
1.232,1.3596e-05,0
1.2325,2.182e-06,0
1.233,1.678e-07,0
1.2335,7.8889e-06,0
1.234,1.5442e-05,0
1.2345,1.5946e-05,0
1.235,1.1582e-05,0
1.2355,1.0239e-05,0
1.236,9.9031e-06,0
1.2365,1.0575e-05,0
1.237,1.4099e-05,0
1.2375,1.9806e-05,0
1.238,2.4674e-05,0
1.2385,2.6352e-05,0
1.239,2.2492e-05,0
1.2395,1.9974e-05,0
1.24,1.8967e-05,0
1.2405,1.4603e-05,0
1.241,7.8889e-06,0
1.2415,3.8605e-06,0
1.242,4.8676e-06,0
1.2425,5.2033e-06,0
1.243,3.5248e-06,0
1.2435,4.5319e-06,0
1.244,9.7353e-06,0
1.2445,1.8631e-05,0
1.245,2.8199e-05,0
1.2455,3.7095e-05,0
1.246,4.3977e-05,0
1.2465,4.5991e-05,0
1.247,4.4144e-05,0
1.2475,4.2802e-05,0
1.248,4.1795e-05,0
1.2485,3.8773e-05,0
1.249,3.2563e-05,0
1.2495,2.4674e-05,0
1.25,1.6617e-05,0
1.2505,1.0575e-05,0
1.251,7.5532e-06,0
1.2515,6.8818e-06,0
1.252,9.0639e-06,0
1.2525,1.0239e-05,0
1.253,9.7353e-06,0
1.2535,9.2317e-06,0
1.254,1.0071e-05,0
1.2545,1.2589e-05,0
1.255,1.6281e-05,0
1.2555,1.6953e-05,0
1.256,1.6953e-05,0
1.2565,1.9135e-05,0
1.257,2.1149e-05,0
1.2575,2.1317e-05,0
1.258,2.1317e-05,0
1.2585,1.6617e-05,0
1.259,5.2033e-06,0
1.2595,-4.5319e-06,0
1.26,-3.357e-06,0
1.2605,7.3854e-06,0
1.261,1.8128e-05,0
1.2615,2.182e-05,0
1.262,2.2492e-05,0
1.2625,2.8031e-05,0
1.263,3.7262e-05,0
1.2635,5.0187e-05,0
1.264,5.9419e-05,0
1.2645,5.9251e-05,0
1.265,5.4048e-05,0
1.2655,5.2201e-05,0
1.266,5.2872e-05,0
1.2665,4.8173e-05,0
1.267,3.2898e-05,0
1.2675,1.5274e-05,0
1.268,4.8676e-06,0
1.2685,3.0213e-06,0
1.269,6.2104e-06,0
1.2695,1.2924e-05,0
1.27,1.9974e-05,0
1.2705,2.4002e-05,0
1.271,2.5681e-05,0
1.2715,2.6017e-05,0
1.272,2.4002e-05,0
1.2725,1.796e-05,0
1.273,1.2589e-05,0
1.2735,1.1414e-05,0
1.274,1.1246e-05,0
1.2745,1.091e-05,0
1.275,1.0071e-05,0
1.2755,8.5603e-06,0
1.276,6.8818e-06,0
1.2765,7.5532e-06,0
1.277,9.9031e-06,0
1.2775,1.2924e-05,0
1.278,1.7121e-05,0
1.2785,1.9135e-05,0
1.279,1.7792e-05,0
1.2795,1.7792e-05,0
1.28,1.8463e-05,0
1.2805,1.5274e-05,0
1.281,5.539e-06,0
1.2815,-5.539e-06,0
1.282,-1.091e-05,0
1.2825,-9.2317e-06,0
1.283,-2.8534e-06,0
1.2835,2.182e-06,0
1.284,-2.3499e-06,0
1.2845,-6.8818e-06,0
1.285,1.8463e-06,0
1.2855,2.2995e-05,0
1.286,4.2802e-05,0
1.2865,5.5894e-05,0
1.287,6.63e-05,0
1.2875,7.4693e-05,0
1.288,7.7043e-05,0
1.2885,6.8315e-05,0
1.289,5.5558e-05,0
1.2895,4.5151e-05,0
1.29,3.3906e-05,0
1.2905,1.6953e-05,0
1.291,1.0071e-06,0
1.2915,-1.0071e-06,0
1.292,8.896e-06,0
1.2925,1.5946e-05,0
1.293,1.4267e-05,0
1.2935,1.0071e-05,0
1.294,6.2104e-06,0
1.2945,-5.035e-07,0
1.295,-1.0407e-05,0
1.2955,-1.8128e-05,0
1.296,-1.9974e-05,0
1.2965,-1.7792e-05,0
1.297,-1.4267e-05,0
1.2975,-1.1917e-05,0
1.298,-1.3596e-05,0
1.2985,-1.4099e-05,0
1.299,-8.2246e-06,0
1.2995,3.0213e-06,0
1.3,1.2589e-05,0
1.3005,1.9974e-05,0
1.301,2.652e-05,0
1.3015,3.0045e-05,0
1.302,2.9038e-05,0
1.3025,2.6017e-05,0
1.303,2.5345e-05,0
1.3035,2.5681e-05,0
1.304,2.652e-05,0
1.3045,3.1388e-05,0
1.305,4.1459e-05,0
1.3055,4.9851e-05,0
1.306,4.9515e-05,0
1.3065,4.3977e-05,0
1.307,3.9109e-05,0
1.3075,3.7095e-05,0
1.308,3.5416e-05,0
1.3085,3.122e-05,0
1.309,2.5345e-05,0
1.3095,1.9303e-05,0
1.31,1.561e-05,0
1.3105,1.326e-05,0
1.311,1.1917e-05,0
1.3115,1.1917e-05,0
1.312,1.1582e-05,0
1.3125,1.1582e-05,0
1.313,1.091e-05,0
1.3135,1.1246e-05,0
1.314,1.4099e-05,0
1.3145,1.6281e-05,0
1.315,1.4435e-05,0
1.3155,1.1917e-05,0
1.316,1.1078e-05,0
1.3165,9.9031e-06,0
1.317,5.8747e-06,0
1.3175,2.5177e-06,0
1.318,2.0142e-06,0
1.3185,3.5248e-06,0
1.319,5.8747e-06,0
1.3195,6.3783e-06,0
1.32,8.5603e-06,0
1.3205,1.4939e-05,0
1.321,2.2995e-05,0
1.3215,2.7359e-05,0
1.322,2.6688e-05,0
1.3225,2.4674e-05,0
1.323,2.4506e-05,0
1.3235,2.7527e-05,0
1.324,3.122e-05,0
1.3245,3.3234e-05,0
1.325,3.0549e-05,0
1.3255,2.4338e-05,0
1.326,2.1317e-05,0
1.3265,2.3667e-05,0
1.327,2.8031e-05,0
1.3275,3.2563e-05,0
1.328,3.743e-05,0
1.3285,3.8773e-05,0
1.329,3.592e-05,0
1.3295,3.3402e-05,0
1.33,3.1388e-05,0
1.3305,2.8534e-05,0
1.331,2.3163e-05,0
1.3315,1.5946e-05,0
1.332,7.8889e-06,0
1.3325,-1.5106e-06,0
1.333,-1.0575e-05,0
1.3335,-1.6617e-05,0
1.334,-1.7624e-05,0
1.3345,-1.3596e-05,0
1.335,-7.2175e-06,0
1.3355,-1.5106e-06,0
1.336,5.035e-07,0
1.3365,1.678e-07,0
1.337,7.5532e-06,0
1.3375,2.7695e-05,0
1.338,4.9515e-05,0
1.3385,5.7572e-05,0
1.339,4.9515e-05,0
1.3395,3.6759e-05,0
1.34,2.9709e-05,0
1.3405,3.2731e-05,0
1.341,3.8605e-05,0
1.3415,3.9612e-05,0
1.342,4.0452e-05,0
1.3425,4.5487e-05,0
1.343,5.5558e-05,0
1.3435,6.0929e-05,0
1.344,5.5558e-05,0
1.3445,4.5151e-05,0
1.345,3.6088e-05,0
1.3455,2.9877e-05,0
1.346,2.4842e-05,0
1.3465,2.0981e-05,0
1.347,1.8631e-05,0
1.3475,1.8631e-05,0
1.348,1.8799e-05,0
1.3485,1.6785e-05,0
1.349,1.2589e-05,0
1.3495,1.4435e-05,0
1.35,1.9974e-05,0
1.3505,2.7359e-05,0
1.351,3.4241e-05,0
1.3515,3.7095e-05,0
1.352,3.1724e-05,0
1.3525,2.2995e-05,0
1.353,1.3932e-05,0
1.3535,0,0
1.354,-1.8631e-05,0
1.3545,-3.4409e-05,0
1.355,-4.4144e-05,0
1.3555,-4.918e-05,0
1.356,-4.5655e-05,0
1.3565,-3.8102e-05,0
1.357,-3.0045e-05,0
1.3575,-1.796e-05,0
1.358,-3.8605e-06,0
1.3585,1.2253e-05,0
1.359,2.8367e-05,0
1.3595,4.2634e-05,0
1.36,5.5894e-05,0
1.3605,6.8818e-05,0
1.361,7.4357e-05,0
1.3615,6.949e-05,0
1.362,5.8076e-05,0
1.3625,4.6998e-05,0
1.363,4.1962e-05,0
1.3635,3.8102e-05,0
1.364,3.1388e-05,0
1.3645,2.4674e-05,0
1.365,2.1317e-05,0
1.3655,1.8967e-05,0
1.366,1.8296e-05,0
1.3665,1.8631e-05,0
1.367,1.7288e-05,0
1.3675,1.5274e-05,0
1.368,1.4939e-05,0
1.3685,1.4267e-05,0
1.369,1.4939e-05,0
1.3695,1.5778e-05,0
1.37,1.4435e-05,0
1.3705,1.326e-05,0
1.371,1.4435e-05,0
1.3715,1.561e-05,0
1.372,1.6617e-05,0
1.3725,1.6953e-05,0
1.373,1.5442e-05,0
1.3735,1.4435e-05,0
1.374,1.4603e-05,0
1.3745,1.326e-05,0
1.375,1.0071e-05,0
1.3755,7.0497e-06,0
1.376,7.0497e-06,0
1.3765,1.1246e-05,0
1.377,1.3764e-05,0
1.3775,9.5674e-06,0
1.378,3.0213e-06,0
1.3785,1.3428e-06,0
1.379,6.5461e-06,0
1.3795,1.3932e-05,0
1.38,1.7792e-05,0
1.3805,1.6617e-05,0
1.381,1.3764e-05,0
1.3815,1.1749e-05,0
1.382,1.1582e-05,0
1.3825,1.2253e-05,0
1.383,1.6617e-05,0
1.3835,2.182e-05,0
1.384,1.9638e-05,0
1.3845,1.2589e-05,0
1.385,1.3596e-05,0
1.3855,2.1317e-05,0
1.386,2.5345e-05,0
1.3865,2.2156e-05,0
1.387,1.8967e-05,0
1.3875,2.0981e-05,0
1.388,2.9206e-05,0
1.3885,3.9109e-05,0
1.389,4.4144e-05,0
1.3895,4.3641e-05,0
1.39,3.9109e-05,0
1.3905,3.2731e-05,0
1.391,2.0646e-05,0
1.3915,5.0355e-06,0
1.392,-3.0213e-06,0
1.3925,1.678e-07,0
1.393,9.9031e-06,0
1.3935,1.8296e-05,0
1.394,1.8967e-05,0
1.3945,1.561e-05,0
1.395,1.3932e-05,0
1.3955,1.2757e-05,0
1.396,1.1078e-05,0
1.3965,9.7353e-06,0
1.397,8.896e-06,0
1.3975,8.7282e-06,0
1.398,4.6998e-06,0
1.3985,-2.8534e-06,0
1.399,-6.3783e-06,0
1.3995,-9.5674e-06,0
1.4,-1.6617e-05,0
1.4005,-2.2995e-05,0
1.401,-2.3499e-05,0
1.4015,-1.7624e-05,0
1.402,-8.2246e-06,0
1.4025,2.0142e-06,0
1.403,1.3932e-05,0
1.4035,2.9206e-05,0
1.404,4.4816e-05,0
1.4045,5.5055e-05,0
1.405,6.2608e-05,0
1.4055,7.335e-05,0
1.406,8.5771e-05,0
1.4065,9.4835e-05,0
1.407,9.3156e-05,0
1.4075,8.1407e-05,0
1.408,6.9322e-05,0
1.4085,6.2272e-05,0
1.409,5.623e-05,0
1.4095,4.5823e-05,0
1.41,3.2395e-05,0
1.4105,2.2156e-05,0
1.411,1.2421e-05,0
1.4115,5.2033e-06,0
1.412,6.8818e-06,0
1.4125,1.1078e-05,0
1.413,1.2085e-05,0
1.4135,1.0239e-05,0
1.414,6.8818e-06,0
1.4145,2.6856e-06,0
1.415,-6.714e-07,0
1.4155,-6.0426e-06,0
1.416,-1.1582e-05,0
1.4165,-1.2421e-05,0
1.417,-9.2317e-06,0
1.4175,-3.8605e-06,0
1.418,-5.035e-07,0
1.4185,1.1749e-06,0
1.419,2.5177e-06,0
1.4195,2.3499e-06,0
1.42,-4.1962e-06,0
1.4205,-1.4939e-05,0
1.421,-2.4506e-05,0
1.4215,-2.7024e-05,0
1.422,-1.7456e-05,0
1.4225,5.539e-06,0
1.423,3.6088e-05,0
1.4235,6.0761e-05,0
1.424,7.2007e-05,0
1.4245,6.8986e-05,0
1.425,6.0594e-05,0
1.4255,5.5222e-05,0
1.426,6.009e-05,0
1.4265,7.57e-05,0
1.427,8.8457e-05,0
1.4275,8.5771e-05,0
1.428,7.4357e-05,0
1.4285,6.3615e-05,0
1.429,5.388e-05,0
1.4295,4.4144e-05,0
1.43,3.357e-05,0
1.4305,2.4002e-05,0
1.431,2.0142e-05,0
1.4315,1.6785e-05,0
1.432,1.3092e-05,0
1.4325,1.2421e-05,0
1.433,7.7211e-06,0
1.4335,-5.539e-06,0
1.434,-1.8296e-05,0
1.4345,-2.1653e-05,0
1.435,-1.8463e-05,0
1.4355,-1.4435e-05,0
1.436,-1.0742e-05,0
1.4365,-6.5461e-06,0
1.437,-3.0213e-06,0
1.4375,-2.182e-06,0
1.438,-1.1749e-06,0
1.4385,6.5461e-06,0
1.439,1.9974e-05,0
1.4395,3.0213e-05,0
1.44,3.0045e-05,0
1.4405,2.2324e-05,0
1.441,1.4603e-05,0
1.4415,1.091e-05,0
1.442,8.5603e-06,0
1.4425,5.8747e-06,0
1.443,4.5319e-06,0
1.4435,5.0355e-06,0
1.444,5.8747e-06,0
1.4445,4.8676e-06,0
1.445,1.678e-07,0
1.4455,-3.1891e-06,0
1.446,-3.1891e-06,0
1.4465,-3.1891e-06,0
1.447,-4.3641e-06,0
1.4475,-2.8534e-06,0
1.448,1.678e-07,0
1.4485,1.6785e-06,0
1.449,8.392e-07,0
1.4495,1.1749e-06,0
1.45,2.5177e-06,0
1.4505,4.6998e-06,0
1.451,1.2757e-05,0
1.4515,2.2995e-05,0
1.452,3.1388e-05,0
1.4525,3.743e-05,0
1.453,3.7766e-05,0
1.4535,3.3066e-05,0
1.454,2.9374e-05,0
1.4545,2.9374e-05,0
1.455,2.7527e-05,0
1.4555,2.3163e-05,0
1.456,2.1317e-05,0
1.4565,2.266e-05,0
1.457,2.0646e-05,0
1.4575,1.9974e-05,0
1.458,2.1317e-05,0
1.4585,2.3331e-05,0
1.459,2.6184e-05,0
1.4595,3.0045e-05,0
1.46,3.4409e-05,0
1.4605,3.9445e-05,0
1.461,4.5151e-05,0
1.4615,4.8508e-05,0
1.462,4.5151e-05,0
1.4625,3.592e-05,0
1.463,2.4674e-05,0
1.4635,1.4771e-05,0
1.464,1.0239e-05,0
1.4645,1.1582e-05,0
1.465,1.7288e-05,0
1.4655,2.0981e-05,0
1.466,1.7288e-05,0
1.4665,1.326e-05,0
1.467,1.3932e-05,0
1.4675,1.9974e-05,0
1.468,2.0646e-05,0
1.4685,1.6953e-05,0
1.469,1.5778e-05,0
1.4695,1.6617e-05,0
1.47,1.7456e-05,0
1.4705,1.5946e-05,0
1.471,1.3764e-05,0
1.4715,1.3092e-05,0
1.472,1.0575e-05,0
1.4725,5.8747e-06,0
1.473,3.8605e-06,0
1.4735,1.0575e-05,0
1.474,2.6017e-05,0
1.4745,4.1627e-05,0
1.475,5.2369e-05,0
1.4755,5.7572e-05,0
1.476,5.8579e-05,0
1.4765,5.4719e-05,0
1.477,4.8844e-05,0
1.4775,4.2802e-05,0
1.478,3.6088e-05,0
1.4785,3.0045e-05,0
1.479,2.7359e-05,0
1.4795,3.0381e-05,0
1.48,3.2731e-05,0
1.4805,2.8031e-05,0
1.481,1.9135e-05,0
1.4815,1.326e-05,0
1.482,9.2317e-06,0
1.4825,7.3854e-06,0
1.483,9.2317e-06,0
1.4835,1.1749e-05,0
1.484,7.7211e-06,0
1.4845,-1.0071e-06,0
1.485,-5.0355e-06,0
1.4855,-4.8676e-06,0
1.486,-2.182e-06,0
1.4865,2.5177e-06,0
1.487,5.8747e-06,0
1.4875,5.539e-06,0
1.488,1.1749e-06,0
1.4885,-1.8463e-06,0
1.489,1.1749e-06,0
1.4895,6.5461e-06,0
1.49,7.8889e-06,0
1.4905,7.2175e-06,0
1.491,6.5461e-06,0
1.4915,7.5532e-06,0
1.492,7.8889e-06,0
1.4925,7.2175e-06,0
1.493,8.3925e-06,0
1.4935,1.091e-05,0
1.494,1.326e-05,0
1.4945,1.6281e-05,0
1.495,1.8967e-05,0
1.4955,1.8631e-05,0
1.496,1.6785e-05,0
1.4965,1.796e-05,0
1.497,2.1988e-05,0
1.4975,2.8031e-05,0
1.498,3.2731e-05,0
1.4985,3.3402e-05,0
1.499,3.0381e-05,0
1.4995,2.5849e-05,0
1.5,2.0981e-05,0
1.5005,1.8128e-05,0
1.501,1.796e-05,0
1.5015,1.8296e-05,0
1.502,1.7624e-05,0
1.5025,2.0646e-05,0
1.503,2.5849e-05,0
1.5035,2.5513e-05,0
1.504,2.1149e-05,0
1.5045,2.0646e-05,0
1.505,2.1317e-05,0
1.5055,2.2324e-05,0
1.506,2.3163e-05,0
1.5065,2.2492e-05,0
1.507,1.9806e-05,0
1.5075,1.6617e-05,0
1.508,1.4603e-05,0
1.5085,1.4435e-05,0
1.509,1.2421e-05,0
1.5095,7.3854e-06,0
1.51,3.8605e-06,0
1.5105,8.0568e-06,0
1.511,2.0646e-05,0
1.5115,3.1724e-05,0
1.512,3.4073e-05,0
1.5125,3.0381e-05,0
1.513,2.5681e-05,0
1.5135,2.4338e-05,0
1.514,2.5177e-05,0
1.5145,2.0981e-05,0
1.515,1.3596e-05,0
1.5155,9.7353e-06,0
1.516,7.2175e-06,0
1.5165,4.3641e-06,0
1.517,7.0497e-06,0
1.5175,1.2924e-05,0
1.518,1.7288e-05,0
1.5185,1.9974e-05,0
1.519,2.1149e-05,0
1.5195,2.266e-05,0
1.52,2.4002e-05,0
1.5205,2.5849e-05,0
1.521,2.9374e-05,0
1.5215,3.1724e-05,0
1.522,2.9374e-05,0
1.5225,2.4002e-05,0
1.523,1.9303e-05,0
1.5235,1.6281e-05,0
1.524,1.7624e-05,0
1.5245,2.3667e-05,0
1.525,3.1388e-05,0
1.5255,4.0787e-05,0
1.526,5.3544e-05,0
1.5265,6.0594e-05,0
1.527,4.5823e-05,0
1.5275,1.5778e-05,0
1.528,-7.2175e-06,0
1.5285,-1.4603e-05,0
1.529,-9.2317e-06,0
1.5295,6.5461e-06,0
1.53,2.4506e-05,0
1.5305,3.4745e-05,0
1.531,3.1891e-05,0
1.5315,1.7121e-05,0
1.532,-2.8534e-06,0
1.5325,-1.6953e-05,0
1.533,-1.8967e-05,0
1.5335,-1.4603e-05,0
1.534,-7.8889e-06,0
1.5345,2.5177e-06,0
1.535,1.6785e-05,0
1.5355,3.0045e-05,0
1.536,3.6423e-05,0
1.5365,3.5752e-05,0
1.537,3.3066e-05,0
1.5375,3.4241e-05,0
1.538,4.1795e-05,0
1.5385,5.0187e-05,0
1.539,5.6062e-05,0
1.5395,6.0594e-05,0
1.54,5.8915e-05,0
1.5405,4.7837e-05,0
1.541,3.1388e-05,0
1.5415,1.9974e-05,0
1.542,1.5946e-05,0
1.5425,1.4771e-05,0
1.543,1.1582e-05,0
1.5435,8.896e-06,0
1.544,8.5603e-06,0
1.5445,9.2317e-06,0
1.545,1.0239e-05,0
1.5455,9.5674e-06,0
1.546,8.5603e-06,0
1.5465,9.5674e-06,0
1.547,1.2253e-05,0
1.5475,1.2757e-05,0
1.548,9.9031e-06,0
1.5485,4.8676e-06,0
1.549,-8.392e-07,0
1.5495,-2.3499e-06,0
1.55,-2.182e-06,0
1.5505,-4.1962e-06,0
1.551,-5.2033e-06,0
1.5515,-2.182e-06,0
1.552,1.6785e-06,0
1.5525,7.0497e-06,0
1.553,1.326e-05,0
1.5535,1.9974e-05,0
1.554,2.5681e-05,0
1.5545,2.9709e-05,0
1.555,3.4073e-05,0
1.5555,3.7934e-05,0
1.556,3.7766e-05,0
1.5565,3.4745e-05,0
1.557,2.8031e-05,0
1.5575,2.031e-05,0
1.558,1.9806e-05,0
1.5585,2.2492e-05,0
1.559,2.1988e-05,0
1.5595,1.796e-05,0
1.56,1.561e-05,0
1.5605,1.9135e-05,0
1.561,2.5345e-05,0
1.5615,2.7695e-05,0
1.562,2.4674e-05,0
1.5625,1.9638e-05,0
1.563,1.3764e-05,0
1.5635,9.2317e-06,0
1.564,1.1749e-05,0
1.5645,1.6617e-05,0
1.565,2.0646e-05,0
1.5655,2.4674e-05,0
1.566,2.5345e-05,0
1.5665,2.2324e-05,0
1.567,2.0142e-05,0
1.5675,1.8967e-05,0
1.568,1.7624e-05,0
1.5685,1.8967e-05,0
1.569,2.5849e-05,0
1.5695,3.2059e-05,0
1.57,3.0716e-05,0
1.5705,2.5849e-05,0
1.571,2.3331e-05,0
1.5715,2.0478e-05,0
1.572,1.6281e-05,0
1.5725,1.4435e-05,0
1.573,1.561e-05,0
1.5735,1.7456e-05,0
1.574,2.0478e-05,0
1.5745,2.5177e-05,0
1.575,2.9709e-05,0
1.5755,2.9038e-05,0
1.576,2.5009e-05,0
1.5765,1.9638e-05,0
1.577,1.561e-05,0
1.5775,1.4603e-05,0
1.578,1.2253e-05,0
1.5785,9.9031e-06,0
1.579,1.2253e-05,0
1.5795,1.8799e-05,0
1.58,2.4674e-05,0
1.5805,2.8031e-05,0
1.581,2.7192e-05,0
1.5815,2.1149e-05,0
1.582,1.5946e-05,0
1.5825,1.5946e-05,0
1.583,2.1653e-05,0
1.5835,2.5345e-05,0
1.584,2.1317e-05,0
1.5845,8.5603e-06,0
1.585,-5.539e-06,0
1.5855,-1.2421e-05,0
1.586,-1.4771e-05,0
1.5865,-1.7456e-05,0
1.587,-1.9974e-05,0
1.5875,-1.8631e-05,0
1.588,-1.091e-05,0
1.5885,3.1891e-06,0
1.589,1.5778e-05,0
1.5895,2.6352e-05,0
1.59,3.6423e-05,0
1.5905,4.0116e-05,0
1.591,3.508e-05,0
1.5915,2.4002e-05,0
1.592,1.5946e-05,0
1.5925,1.9974e-05,0
1.593,3.3066e-05,0
1.5935,4.0955e-05,0
1.594,3.8437e-05,0
1.5945,3.4577e-05,0
1.595,3.4241e-05,0
1.5955,3.7095e-05,0
1.596,3.8605e-05,0
1.5965,3.978e-05,0
1.597,4.3977e-05,0
1.5975,5.0858e-05,0
1.598,5.623e-05,0
1.5985,5.4215e-05,0
1.599,4.6494e-05,0
1.5995,3.5248e-05,0
1.6,2.4002e-05,0
1.6005,1.5274e-05,0
1.601,9.9031e-06,0
1.6015,7.8889e-06,0
1.602,6.2104e-06,0
1.6025,5.2033e-06,0
1.603,5.8747e-06,0
1.6035,8.3925e-06,0
1.604,1.2085e-05,0
1.6045,1.5778e-05,0
1.605,1.8296e-05,0
1.6055,1.6617e-05,0
1.606,1.1582e-05,0
1.6065,9.5674e-06,0
1.607,1.1749e-05,0
1.6075,1.2924e-05,0
1.608,1.326e-05,0
1.6085,1.1917e-05,0
1.609,5.7069e-06,0
1.6095,8.392e-07,0
1.61,5.2033e-06,0
1.6105,2.1317e-05,0
1.611,3.6759e-05,0
1.6115,4.0787e-05,0
1.612,3.508e-05,0
1.6125,3.0213e-05,0
1.613,3.122e-05,0
1.6135,3.3066e-05,0
1.614,3.1388e-05,0
1.6145,2.9709e-05,0
1.615,2.6017e-05,0
1.6155,1.9806e-05,0
1.616,1.6617e-05,0
1.6165,1.7288e-05,0
1.617,1.9638e-05,0
1.6175,2.0478e-05,0
1.618,1.7792e-05,0
1.6185,1.4435e-05,0
1.619,7.8889e-06,0
1.6195,-1.6785e-06,0
1.62,-5.539e-06,0
1.6205,-5.2033e-06,0
1.621,-5.539e-06,0
1.6215,-2.5177e-06,0
1.622,1.1749e-06,0
1.6225,4.8676e-06,0
1.623,1.4267e-05,0
1.6235,2.8534e-05,0
1.624,3.1891e-05,0
1.6245,1.8967e-05,0
1.625,7.7211e-06,0
1.6255,1.0575e-05,0
1.626,1.6449e-05,0
1.6265,1.9638e-05,0
1.627,1.8296e-05,0
1.6275,1.3092e-05,0
1.628,9.9031e-06,0
1.6285,1.3596e-05,0
1.629,1.947e-05,0
1.6295,2.0142e-05,0
1.63,1.6617e-05,0
1.6305,1.5106e-05,0
1.631,1.1246e-05,0
1.6315,2.3499e-06,0
1.632,-3.6927e-06,0
1.6325,-3.8605e-06,0
1.633,-8.2246e-06,0
1.6335,-1.6281e-05,0
1.634,-1.796e-05,0
1.6345,-9.7353e-06,0
1.635,3.357e-06,0
1.6355,1.6114e-05,0
1.636,3.0381e-05,0
1.6365,4.5991e-05,0
1.637,5.8579e-05,0
1.6375,6.5629e-05,0
1.638,7.0664e-05,0
1.6385,7.0832e-05,0
1.639,6.8315e-05,0
1.6395,7.1e-05,0
1.64,7.2343e-05,0
1.6405,6.1433e-05,0
1.641,3.9109e-05,0
1.6415,1.7121e-05,0
1.642,4.8676e-06,0
1.6425,-6.714e-07,0
1.643,-2.182e-06,0
1.6435,-1.0071e-06,0
1.644,1.3428e-06,0
1.6445,5.8747e-06,0
1.645,1.3764e-05,0
1.6455,2.3163e-05,0
1.646,2.7863e-05,0
1.6465,2.6017e-05,0
1.647,1.9303e-05,0
1.6475,1.2589e-05,0
1.648,9.2317e-06,0
1.6485,1.0407e-05,0
1.649,1.326e-05,0
1.6495,1.3596e-05,0
1.65,1.4267e-05,0
1.6505,2.2995e-05,0
1.651,3.4745e-05,0
1.6515,4.3473e-05,0
1.652,4.5991e-05,0
1.6525,3.978e-05,0
1.653,3.3402e-05,0
1.6535,3.6927e-05,0
1.654,4.5319e-05,0
1.6545,4.918e-05,0
1.655,4.6326e-05,0
1.6555,3.8773e-05,0
1.656,3.4073e-05,0
1.6565,3.6591e-05,0
1.657,3.743e-05,0
1.6575,3.1052e-05,0
1.658,1.8631e-05,0
1.6585,4.1962e-06,0
1.659,-1.5946e-05,0
1.6595,-3.9277e-05,0
1.66,-5.9754e-05,0
1.6605,-7.3014e-05,0
1.661,-7.4693e-05,0
1.6615,-6.9154e-05,0
1.662,-6.0426e-05,0
1.6625,-5.2705e-05,0
1.663,-4.6326e-05,0
1.6635,-3.7934e-05,0
1.664,-2.1149e-05,0
1.6645,7.2175e-06,0
1.665,4.4984e-05,0
1.6655,8.1575e-05,0
1.666,0.00010272,0
1.6665,0.00010188,0
1.667,8.4764e-05,0
1.6675,6.9154e-05,0
1.668,6.6133e-05,0
1.6685,6.7643e-05,0
1.669,5.9754e-05,0
1.6695,4.2802e-05,0
1.67,2.9374e-05,0
1.6705,2.1149e-05,0
1.671,9.5674e-06,0
1.6715,-6.8818e-06,0
1.672,-2.9877e-05,0
1.6725,-5.1194e-05,0
1.673,-6.2272e-05,0
1.6735,-6.5629e-05,0
1.674,-6.4958e-05,0
1.6745,-5.3208e-05,0
1.675,-3.0213e-05,0
1.6755,-1.8463e-06,0
1.676,2.5345e-05,0
1.6765,4.3809e-05,0
1.677,5.539e-05,0
1.6775,6.3951e-05,0
1.678,7.0664e-05,0
1.6785,7.5364e-05,0
1.679,8.3085e-05,0
1.6795,9.1981e-05,0
1.68,9.7856e-05,0
1.6805,9.7017e-05,0
1.681,8.4764e-05,0
1.6815,6.3279e-05,0
1.682,4.5151e-05,0
1.6825,4.4816e-05,0
1.683,5.7237e-05,0
1.6835,6.3615e-05,0
1.684,5.9587e-05,0
1.6845,6.0761e-05,0
1.685,7.335e-05,0
1.6855,8.9464e-05,0
1.686,9.7688e-05,0
1.6865,8.7114e-05,0
1.687,6.2104e-05,0
1.6875,4.0787e-05,0
1.688,2.4674e-05,0
1.6885,5.8747e-06,0
1.689,-1.2253e-05,0
1.6895,-2.0646e-05,0
1.69,-2.1653e-05,0
1.6905,-2.5177e-05,0
1.691,-3.3906e-05,0
1.6915,-4.2802e-05,0
1.692,-4.7837e-05,0
1.6925,-4.0619e-05,0
1.693,-2.4674e-05,0
1.6935,-9.5674e-06,0
1.694,6.714e-07,0
1.6945,3.5248e-06,0
1.695,-2.8534e-06,0
1.6955,-1.3596e-05,0
1.696,-1.8967e-05,0
1.6965,-1.3596e-05,0
1.697,-3.1891e-06,0
1.6975,8.392e-07,0
1.698,-8.5603e-06,0
1.6985,-2.5345e-05,0
1.699,-3.827e-05,0
1.6995,-4.0619e-05,0
1.7,-3.3402e-05,0
1.7005,-3.0884e-05,0
1.701,-3.3066e-05,0
1.7015,-3.1388e-05,0
1.702,-2.3163e-05,0
1.7025,-1.3764e-05,0
1.703,-5.539e-06,0
1.7035,3.0213e-06,0
1.704,1.3764e-05,0
1.7045,2.4002e-05,0
1.705,3.5248e-05,0
1.7055,5.5055e-05,0
1.706,6.9657e-05,0
1.7065,6.865e-05,0
1.707,6.1936e-05,0
1.7075,6.1433e-05,0
1.708,6.9657e-05,0
1.7085,7.3014e-05,0
1.709,5.8915e-05,0
1.7095,3.7934e-05,0
1.71,2.5009e-05,0
1.7105,2.3331e-05,0
1.711,3.1052e-05,0
1.7115,4.2802e-05,0
1.712,5.0858e-05,0
1.7125,5.2033e-05,0
1.713,4.3473e-05,0
1.7135,2.8031e-05,0
1.714,1.9638e-05,0
1.7145,1.9806e-05,0
1.715,1.9303e-05,0
1.7155,6.714e-06,0
1.716,-1.6953e-05,0
1.7165,-3.6423e-05,0
1.717,-4.2969e-05,0
1.7175,-3.6591e-05,0
1.718,-2.3331e-05,0
1.7185,-1.4435e-05,0
1.719,-1.6785e-05,0
1.7195,-2.1988e-05,0
1.72,-1.7288e-05,0
1.7205,1.1749e-06,0
1.721,2.7695e-05,0
1.7215,5.0355e-05,0
1.722,6.3615e-05,0
1.7225,7.4189e-05,0
1.723,9.1814e-05,0
1.7235,0.00011363,0
1.724,0.00012421,0
1.7245,0.00010709,0
1.725,6.7979e-05,0
1.7255,2.7695e-05,0
1.726,-2.0142e-06,0
1.7265,-1.6281e-05,0
1.727,-6.714e-06,0
1.7275,2.3499e-05,0
1.728,5.5558e-05,0
1.7285,7.1672e-05,0
1.729,6.5461e-05,0
1.7295,4.5151e-05,0
1.73,2.7359e-05,0
1.7305,1.8296e-05,0
1.731,1.2757e-05,0
1.7315,7.8889e-06,0
1.732,6.0426e-06,0
1.7325,7.3854e-06,0
1.733,1.4267e-05,0
1.7335,1.9806e-05,0
1.734,1.8631e-05,0
1.7345,1.7288e-05,0
1.735,1.6617e-05,0
1.7355,1.3764e-05,0
1.736,1.1749e-05,0
1.7365,1.2589e-05,0
1.737,2.3835e-05,0
1.7375,4.4984e-05,0
1.738,5.8915e-05,0
1.7385,5.3376e-05,0
1.739,3.4409e-05,0
1.7395,1.7792e-05,0
1.74,1.1246e-05,0
1.7405,3.1891e-06,0
1.741,-2.1317e-05,0
1.7415,-5.3544e-05,0
1.742,-7.5364e-05,0
1.7425,-7.8721e-05,0
1.743,-7.0161e-05,0
1.7435,-5.8579e-05,0
1.744,-4.4648e-05,0
1.7445,-2.417e-05,0
1.745,-6.714e-07,0
1.7455,2.0646e-05,0
1.746,2.9374e-05,0
1.7465,2.5681e-05,0
1.747,2.4506e-05,0
1.7475,2.5849e-05,0
1.748,1.6953e-05,0
1.7485,-1.5106e-06,0
1.749,-2.5177e-05,0
1.7495,-4.8508e-05,0
1.75,-5.1698e-05,0
1.7505,-2.6017e-05,0
1.751,9.0639e-06,0
1.7515,3.8773e-05,0
1.752,6.4118e-05,0
1.7525,8.9464e-05,0
1.753,0.00010994,0
1.7535,0.00012068,0
1.754,0.00012203,0
1.7545,0.000118,0
1.755,0.00011464,0
1.7555,0.00011934,0
1.756,0.00012706,0
1.7565,0.00012538,0
1.757,0.00010658,0
1.7575,7.4189e-05,0
1.758,4.4816e-05,0
1.7585,2.9038e-05,0
1.759,2.1653e-05,0
1.7595,1.1078e-05,0
1.76,-8.5603e-06,0
1.7605,-2.7695e-05,0
1.761,-3.9445e-05,0
1.7615,-4.4984e-05,0
1.762,-4.8508e-05,0
1.7625,-4.6494e-05,0
1.763,-3.6255e-05,0
1.7635,-1.8967e-05,0
1.764,-2.182e-06,0
1.7645,1.0407e-05,0
1.765,1.6617e-05,0
1.7655,1.3596e-05,0
1.766,4.6998e-06,0
1.7665,-1.6785e-06,0
1.767,-8.392e-07,0
1.7675,-1.3428e-06,0
1.768,-1.0575e-05,0
1.7685,-2.4338e-05,0
1.769,-3.4409e-05,0
1.7695,-2.9038e-05,0
1.77,-1.1917e-05,0
1.7705,1.5106e-06,0
1.771,4.6998e-06,0
1.7715,3.5248e-06,0
1.772,3.0213e-06,0
1.7725,-2.182e-06,0
1.773,-8.5603e-06,0
1.7735,-1.0575e-05,0
1.774,-9.7353e-06,0
1.7745,-9.5674e-06,0
1.775,-7.2175e-06,0
1.7755,-2.182e-06,0
1.776,2.0142e-06,0
1.7765,8.392e-07,0
1.777,5.035e-07,0
1.7775,3.1891e-06,0
1.778,-5.035e-07,0
1.7785,-8.7282e-06,0
1.779,-4.1962e-06,0
1.7795,1.4267e-05,0
1.78,3.2898e-05,0
1.7805,3.6591e-05,0
1.781,3.4409e-05,0
1.7815,4.4144e-05,0
1.782,6.2776e-05,0
1.7825,7.7714e-05,0
1.783,8.5435e-05,0
1.7835,8.4596e-05,0
1.784,8.4093e-05,0
1.7845,9.3156e-05,0
1.785,0.00011246,0
1.7855,0.00012874,0
1.786,0.00012773,0
1.7865,0.00010356,0
1.787,7.7714e-05,0
1.7875,6.7475e-05,0
1.788,6.3279e-05,0
1.7885,5.3544e-05,0
1.789,3.3066e-05,0
1.7895,1.1749e-06,0
1.79,-2.9877e-05,0
1.7905,-4.8676e-05,0
1.791,-7.4357e-05,0
1.7915,-0.00011246,0
1.792,-0.0001331,0
1.7925,-0.0001232,0
1.793,-9.752e-05,0
1.7935,-7.1336e-05,0
1.794,-4.4816e-05,0
1.7945,-1.091e-05,0
1.795,3.1891e-05,0
1.7955,7.1672e-05,0
1.796,9.3828e-05,0
1.7965,0.00010793,0
1.797,0.00013008,0
1.7975,0.00015962,0
1.798,0.00017574,0
1.7985,0.00016768,0
1.799,0.00013864,0
1.7995,9.9031e-05,0
1.8,5.6901e-05,0
1.8005,2.6688e-05,0
1.801,1.5946e-05,0
1.8015,1.3932e-05,0
1.802,5.539e-06,0
1.8025,-1.326e-05,0
1.803,-3.508e-05,0
1.8035,-4.213e-05,0
1.804,-2.3667e-05,0
1.8045,-5.2033e-06,0
1.805,-1.6281e-05,0
1.8055,-3.8437e-05,0
1.806,-3.1891e-05,0
1.8065,-8.7282e-06,0
1.807,2.182e-06,0
1.8075,5.2033e-06,0
1.808,3.8605e-06,0
1.8085,-1.4939e-05,0
1.809,-4.6494e-05,0
1.8095,-7.6371e-05,0
1.81,-8.9464e-05,0
1.8105,-8.2078e-05,0
1.811,-6.4622e-05,0
1.8115,-4.5991e-05,0
1.812,-2.9038e-05,0
1.8125,-1.2924e-05,0
1.813,-3.357e-07,0
1.8135,1.7624e-05,0
1.814,5.1362e-05,0
1.8145,9.1142e-05,0
1.815,0.00011598,0
1.8155,0.00012001,0
1.816,0.00012102,0
1.8165,0.00012337,0
1.817,0.00011212,0
1.8175,8.7785e-05,0
1.818,6.5629e-05,0
1.8185,4.8173e-05,0
1.819,3.0381e-05,0
1.8195,1.9303e-05,0
1.82,2.1317e-05,0
1.8205,2.7192e-05,0
1.821,2.5681e-05,0
1.8215,1.6953e-05,0
1.822,8.2246e-06,0
1.8225,4.3641e-06,0
1.823,5.2033e-06,0
1.8235,4.8676e-06,0
1.824,1.1749e-06,0
1.8245,-4.8676e-06,0
1.825,-7.0497e-06,0
1.8255,-1.0071e-06,0
1.826,1.091e-05,0
1.8265,2.6017e-05,0
1.827,3.5416e-05,0
1.8275,3.0884e-05,0
1.828,1.0239e-05,0
1.8285,-2.1988e-05,0
1.829,-5.2872e-05,0
1.8295,-7.3014e-05,0
1.83,-7.3518e-05,0
1.8305,-6.244e-05,0
1.831,-5.153e-05,0
1.8315,-4.3137e-05,0
1.832,-3.1724e-05,0
1.8325,-1.091e-05,0
1.833,1.9974e-05,0
1.8335,5.2872e-05,0
1.834,8.51e-05,0
1.8345,0.00012136,0
1.835,0.00015123,0
1.8355,0.00015761,0
1.836,0.0001425,0
1.8365,0.00011464,0
1.837,8.04e-05,0
1.8375,4.683e-05,0
1.838,1.9135e-05,0
1.8385,-6.8818e-06,0
1.839,-4.7501e-05,0
1.8395,-0.00010843,0
1.84,-0.00015325,0
1.8405,-0.00015123,0
1.841,-0.00012068,0
1.8415,-8.9464e-05,0
1.842,-5.8076e-05,0
1.8425,-1.5778e-05,0
1.843,4.1795e-05,0
1.8435,9.8863e-05,0
1.844,0.00012874,0
1.8445,0.0001237,0
1.845,9.836e-05,0
1.8455,8.4428e-05,0
1.846,9.7185e-05,0
1.8465,0.000118,0
1.847,0.00011531,0
1.8475,6.8315e-05,0
1.848,1.5106e-06,0
1.8485,-3.9277e-05,0
1.849,-4.1627e-05,0
1.8495,-2.4506e-05,0
1.85,-4.5319e-06,0
1.8505,1.6953e-05,0
1.851,3.6088e-05,0
1.8515,3.592e-05,0
1.852,1.7121e-05,0
1.8525,-2.182e-06,0
1.853,-1.091e-05,0
1.8535,-4.0284e-06,0
1.854,2.652e-05,0
1.8545,7.1839e-05,0
1.855,0.00010625,0
1.8555,0.00012773,0
1.856,0.00013931,0
1.8565,0.00013243,0
1.857,0.0001133,0
1.8575,8.8121e-05,0
1.858,5.539e-05,0
1.8585,2.9877e-05,0
1.859,1.8631e-05,0
1.8595,1.3596e-05,0
1.86,7.8889e-06,0
1.8605,2.5177e-06,0
1.861,2.5177e-06,0
1.8615,1.0071e-06,0
1.862,-9.2317e-06,0
1.8625,-3.2731e-05,0
1.863,-6.5965e-05,0
1.8635,-0.00010205,0
1.864,-0.00012757,0
1.8645,-0.00013176,0
1.865,-0.00012052,0
1.8655,-9.987e-05,0
1.866,-7.4525e-05,0
1.8665,-4.6494e-05,0
1.867,-1.2421e-05,0
1.8675,3.2563e-05,0
1.868,7.6707e-05,0
1.8685,9.7353e-05,0
1.869,9.6513e-05,0
1.8695,9.752e-05,0
1.87,9.6513e-05,0
1.8705,6.0929e-05,0
1.871,-5.8747e-06,0
1.8715,-6.3951e-05,0
1.872,-9.1142e-05,0
1.8725,-8.9128e-05,0
1.873,-6.6133e-05,0
1.8735,-3.1724e-05,0
1.874,5.8747e-06,0
1.8745,4.1123e-05,0
1.875,7.6875e-05,0
1.8755,0.00011632,0
1.876,0.00015543,0
1.8765,0.00018598,0
1.877,0.00019957,0
1.8775,0.00019655,0
1.878,0.00017658,0
1.8785,0.00013713,0
1.879,7.6707e-05,0
1.8795,2.5177e-06,0
1.88,-5.8076e-05,0
1.8805,-8.7953e-05,0
1.881,-9.6849e-05,0
1.8815,-0.00010507,0
1.882,-0.00013008,0
1.8825,-0.00015543,0
1.883,-0.00015325,0
1.8835,-0.00012068,0
1.884,-6.7308e-05,0
1.8845,-3.8605e-06,0
1.885,5.153e-05,0
1.8855,8.2078e-05,0
1.886,9.0639e-05,0
1.8865,9.8695e-05,0
1.887,0.00011699,0
1.8875,0.00013747,0
1.888,0.0001467,0
1.8885,0.00013495,0
1.889,0.0001039,0
1.8895,5.8579e-05,0
1.89,1.3596e-05,0
1.8905,-1.2589e-05,0
1.891,-2.031e-05,0
1.8915,-1.8463e-05,0
1.892,-1.4603e-05,0
1.8925,-6.8818e-06,0
1.893,1.561e-05,0
1.8935,5.0523e-05,0
1.894,7.956e-05,0
1.8945,8.6778e-05,0
1.895,7.5029e-05,0
1.8955,5.5558e-05,0
1.896,3.8102e-05,0
1.8965,3.1052e-05,0
1.897,2.9877e-05,0
1.8975,2.6352e-05,0
1.898,1.1917e-05,0
1.8985,-5.8747e-06,0
1.899,-1.9806e-05,0
1.8995,-3.4745e-05,0
1.9,-5.3544e-05,0
1.9005,-6.9657e-05,0
1.901,-7.4021e-05,0
1.9015,-6.9993e-05,0
1.902,-8.191e-05,0
1.9025,-0.00011498,0
1.903,-0.00014334,0
1.9035,-0.0001472,0
1.904,-0.00011464,0
1.9045,-6.4622e-05,0
1.905,-2.2324e-05,0
1.9055,7.7211e-06,0
1.906,4.0452e-05,0
1.9065,7.7714e-05,0
1.907,0.00010457,0
1.9075,0.00012605,0
1.908,0.00015476,0
1.9085,0.00017473,0
1.909,0.00016902,0
1.9095,0.00015123,0
1.91,0.00013931,0
1.9105,0.0001227,0
1.911,9.2485e-05,0
1.9115,5.5222e-05,0
1.912,2.4338e-05,0
1.9125,8.7282e-06,0
1.913,5.2033e-06,0
1.9135,1.3932e-05,0
1.914,2.6688e-05,0
1.9145,2.2324e-05,0
1.915,2.0142e-06,0
1.9155,-1.3932e-05,0
1.916,-1.5946e-05,0
1.9165,-1.9974e-05,0
1.917,-3.1724e-05,0
1.9175,-3.592e-05,0
1.918,-3.6088e-05,0
1.9185,-4.8005e-05,0
1.919,-5.5222e-05,0
1.9195,-3.592e-05,0
1.92,1.3428e-06,0
1.9205,4.6159e-05,0
1.921,9.2653e-05,0
1.9215,0.00011162,0
1.922,8.5267e-05,0
1.9225,4.5487e-05,0
1.923,3.5416e-05,0
1.9235,5.2872e-05,0
1.924,7.8721e-05,0
1.9245,0.00010021,0
1.925,0.00010457,0
1.9255,9.0471e-05,0
1.926,6.8315e-05,0
1.9265,3.8773e-05,0
1.927,-6.5461e-06,0
1.9275,-4.5655e-05,0
1.928,-5.4048e-05,0
1.9285,-5.4719e-05,0
1.929,-8.2078e-05,0
1.9295,-0.00012287,0
1.93,-0.00013579,0
1.9305,-0.00010776,0
1.931,-6.4622e-05,0
1.9315,-2.9709e-05,0
1.932,-3.1891e-06,0
1.9325,2.1988e-05,0
1.933,4.8676e-05,0
1.9335,7.4357e-05,0
1.934,0.00010155,0
1.9345,0.0001227,0
1.935,0.00012639,0
1.9355,0.00012471,0
1.936,0.00011968,0
1.9365,9.5171e-05,0
1.937,5.0523e-05,0
1.9375,1.7288e-05,0
1.938,1.3596e-05,0
1.9385,2.1653e-05,0
1.939,3.2898e-05,0
1.9395,4.8173e-05,0
1.94,5.1698e-05,0
1.9405,3.3066e-05,0
1.941,1.1749e-06,0
1.9415,-2.7024e-05,0
1.942,-4.1795e-05,0
1.9425,-4.2466e-05,0
1.943,-2.7192e-05,0
1.9435,1.5106e-06,0
1.944,2.1317e-05,0
1.9445,5.0355e-06,0
1.945,-4.5151e-05,0
1.9455,-8.745e-05,0
1.946,-8.9128e-05,0
1.9465,-6.8986e-05,0
1.947,-5.4048e-05,0
1.9475,-3.8605e-05,0
1.948,-1.561e-05,0
1.9485,5.539e-06,0
1.949,2.0981e-05,0
1.9495,2.5513e-05,0
1.95,8.896e-06,0
1.9505,-9.5674e-06,0
1.951,-1.0239e-05,0
1.9515,-4.8676e-06,0
1.952,-6.5461e-06,0
1.9525,-4.3641e-06,0
1.953,6.8818e-06,0
1.9535,1.6281e-05,0
1.954,9.2317e-06,0
1.9545,-2.8534e-06,0
1.955,9.2317e-06,0
1.9555,5.4719e-05,0
1.956,0.00011363,0
1.9565,0.00016013,0
1.957,0.00018413,0
1.9575,0.00018111,0
1.958,0.00016265,0
1.9585,0.00014922,0
1.959,0.00014485,0
1.9595,0.00013747,0
1.96,0.00012068,0
1.9605,0.00010558,0
1.961,9.5506e-05,0
1.9615,8.5435e-05,0
1.962,6.5965e-05,0
1.9625,2.8702e-05,0
1.963,-2.0646e-05,0
1.9635,-6.1265e-05,0
1.964,-7.4357e-05,0
1.9645,-6.7979e-05,0
1.965,-7.6204e-05,0
1.9655,-0.00010893,0
1.966,-0.00016533,0
1.9665,-0.00021686,0
1.967,-0.00022475,0
1.9675,-0.00018346,0
1.968,-0.00011363,0
1.9685,-4.3137e-05,0
1.969,1.6953e-05,0
1.9695,7.6036e-05,0
1.97,0.00013378,0
1.9705,0.00017272,0
1.971,0.00017406,0
1.9715,0.00015157,0
1.972,0.00014922,0
1.9725,0.0001744,0
1.973,0.00018447,0
1.9735,0.00015492,0
1.974,0.00011044,0
1.9745,8.0735e-05,0
1.975,6.9657e-05,0
1.9755,6.6972e-05,0
1.976,6.8315e-05,0
1.9765,7.2343e-05,0
1.977,7.2679e-05,0
1.9775,6.2776e-05,0
1.978,4.0452e-05,0
1.9785,1.2924e-05,0
1.979,-1.9135e-05,0
1.9795,-5.7237e-05,0
1.98,-9.7856e-05,0
1.9805,-0.00013545,0
1.981,-0.00015912,0
1.9815,-0.0001566,0
1.982,-0.0001331,0
1.9825,-9.987e-05,0
1.983,-5.9251e-05,0
1.9835,-2.4338e-05,0
1.984,-2.3499e-06,0
1.9845,1.6785e-05,0
1.985,2.8702e-05,0
1.9855,1.091e-05,0
1.986,-2.4338e-05,0
1.9865,-4.2802e-05,0
1.987,-2.8534e-05,0
1.9875,4.6998e-06,0
1.988,3.4745e-05,0
1.9885,3.7262e-05,0
1.989,6.8818e-06,0
1.9895,-2.0142e-05,0
1.99,-1.8296e-05,0
1.9905,0,0
1.991,2.5513e-05,0
1.9915,6.009e-05,0
1.992,7.7378e-05,0
1.9925,6.1097e-05,0
1.993,4.4816e-05,0
1.9935,4.8173e-05,0
1.994,5.7572e-05,0
1.9945,6.4958e-05,0
1.995,7.1672e-05,0
1.9955,7.2679e-05,0
1.996,5.4215e-05,0
1.9965,2.5177e-05,0
1.997,2.2995e-05,0
1.9975,4.2466e-05,0
1.998,5.0858e-05,0
1.9985,4.213e-05,0
1.999,2.8534e-05,0
1.9995,2.5009e-05,0
2,3.3402e-05,0
2.0005,3.743e-05,0
2.001,2.7527e-05,0
2.0015,1.0575e-05,0
2.002,5.2033e-06,0
2.0025,2.2995e-05,0
2.003,4.2466e-05,0
2.0035,3.2731e-05,0
2.004,-2.182e-06,0
2.0045,-2.1149e-05,0
2.005,-8.3925e-06,0
2.0055,1.6281e-05,0
2.006,3.6088e-05,0
2.0065,3.743e-05,0
2.007,2.7695e-05,0
2.0075,2.4338e-05,0
2.008,2.1149e-05,0
2.0085,1.4771e-05,0
2.009,1.2924e-05,0
2.0095,2.031e-05,0
2.01,2.9542e-05,0
2.0105,2.1317e-05,0
2.011,-1.091e-05,0
2.0115,-4.4816e-05,0
2.012,-5.2033e-05,0
2.0125,-3.4409e-05,0
2.013,-1.2589e-05,0
2.0135,2.182e-06,0
2.014,2.6856e-06,0
2.0145,-8.896e-06,0
2.015,-2.8534e-06,0
2.0155,4.1291e-05,0
2.016,9.3156e-05,0
2.0165,0.00013075,0
2.017,0.0001556,0
2.0175,0.00016634,0
2.018,0.00015123,0
2.0185,0.00011196,0
2.019,6.63e-05,0
2.0195,1.4267e-05,0
2.02,-3.8437e-05,0
2.0205,-7.3518e-05,0
2.021,-8.51e-05,0
2.0215,-7.57e-05,0
2.022,-5.6565e-05,0
2.0225,-3.4409e-05,0
2.023,-1.6617e-05,0
2.0235,-6.0426e-06,0
2.024,9.5674e-06,0
2.0245,3.978e-05,0
2.025,7.2343e-05,0
2.0255,9.0974e-05,0
2.026,9.3324e-05,0
2.0265,9.1142e-05,0
2.027,8.6442e-05,0
2.0275,7.0664e-05,0
2.028,4.2466e-05,0
2.0285,8.2246e-06,0
2.029,-1.4267e-05,0
2.0295,-2.031e-05,0
2.03,-1.9638e-05,0
2.0305,-1.8967e-05,0
2.031,-2.0478e-05,0
2.0315,-2.1988e-05,0
2.032,-2.031e-05,0
2.0325,-2.1149e-05,0
2.033,-3.122e-05,0
2.0335,-4.1459e-05,0
2.034,-4.213e-05,0
2.0345,-3.7095e-05,0
2.035,-4.3137e-05,0
2.0355,-5.9251e-05,0
2.036,-6.009e-05,0
2.0365,-4.6159e-05,0
2.037,-6.5461e-05,0
2.0375,-0.00012522,0
2.038,-0.00018027,0
2.0385,-0.00019387,0
2.039,-0.00016399,0
2.0395,-0.00011447,0
2.04,-5.7908e-05,0
2.0405,-6.714e-07,0
2.041,4.918e-05,0
2.0415,9.5171e-05,0
2.042,0.00014888,0
2.0425,0.00021132,0
2.043,0.00027276,0
2.0435,0.00031875,0
2.044,0.00032613,0
2.0445,0.00027779,0
2.045,0.00019773,0
2.0455,0.00013109,0
2.046,8.2918e-05,0
2.0465,2.8199e-05,0
2.047,-2.7024e-05,0
2.0475,-6.2608e-05,0
2.048,-8.3085e-05,0
2.0485,-8.9128e-05,0
2.049,-7.6036e-05,0
2.0495,-4.8173e-05,0
2.05,-1.5274e-05,0
2.0505,1.6953e-05,0
2.051,4.8676e-05,0
2.0515,7.7043e-05,0
2.052,9.2149e-05,0
2.0525,0.00010558,0
2.053,0.00011128,0
2.0535,8.7114e-05,0
2.054,5.304e-05,0
2.0545,2.0646e-05,0
2.055,-3.1724e-05,0
2.0555,-8.1071e-05,0
2.056,-0.00010155,0
2.0565,-9.1478e-05,0
2.057,-5.6733e-05,0
2.0575,-6.0426e-06,0
2.058,5.4719e-05,0
2.0585,0.00010776,0
2.059,0.00013075,0
2.0595,0.00012387,0
2.06,9.9199e-05,0
2.0605,6.8315e-05,0
2.061,3.6759e-05,0
2.0615,1.091e-05,0
2.062,-5.8747e-06,0
2.0625,-1.8463e-05,0
2.063,-3.8773e-05,0
2.0635,-7.7546e-05,0
2.064,-0.00012538,0
2.0645,-0.00016097,0
2.065,-0.00016533,0
2.0655,-0.00013143,0
2.066,-7.5364e-05,0
2.0665,-1.4435e-05,0
2.067,4.6159e-05,0
2.0675,9.2485e-05,0
2.068,0.00011229,0
2.0685,0.00011783,0
2.069,0.0001368,0
2.0695,0.0001754,0
2.07,0.00021166,0
2.0705,0.00022525,0
2.071,0.00020964,0
2.0715,0.00017238,0
2.072,0.00012404,0
2.0725,7.805e-05,0
2.073,4.1123e-05,0
2.0735,2.5177e-06,0
2.074,-4.9851e-05,0
2.0745,-8.7785e-05,0
2.075,-8.9967e-05,0
2.0755,-7.3182e-05,0
2.076,-4.9851e-05,0
2.0765,-2.5681e-05,0
2.077,-1.1078e-05,0
2.0775,-5.539e-06,0
2.078,-4.5319e-06,0
2.0785,-2.8534e-06,0
2.079,1.6617e-05,0
2.0795,6.3951e-05,0
2.08,0.00010323,0
2.0805,9.4331e-05,0
2.081,3.5416e-05,0
2.0815,-3.9109e-05,0
2.082,-6.6636e-05,0
2.0825,-3.4409e-05,0
2.083,8.3925e-06,0
2.0835,2.031e-05,0
2.084,9.9031e-06,0
2.0845,9.5674e-06,0
2.085,3.2898e-05,0
2.0855,6.6972e-05,0
2.086,8.1743e-05,0
2.0865,6.1601e-05,0
2.087,2.4338e-05,0
2.0875,-8.5603e-06,0
2.088,-3.4577e-05,0
2.0885,-5.4551e-05,0
2.089,-6.5293e-05,0
2.0895,-5.7069e-05,0
2.09,-4.1291e-05,0
2.0905,-4.8005e-05,0
2.091,-7.4189e-05,0
2.0915,-9.8192e-05,0
2.092,-0.00010121,0
2.0925,-7.2511e-05,0
2.093,-2.4338e-05,0
2.0935,-1.8463e-06,0
2.094,-5.1698e-05,0
2.0945,-0.00014553,0
2.095,-0.00020931,0
2.0955,-0.00019588,0
2.096,-0.0001138,0
2.0965,-1.2924e-05,0
2.097,7.6036e-05,0
2.0975,0.00014586,0
2.098,0.00019739,0
2.0985,0.00023952,0
2.099,0.00029088,0
2.0995,0.00033285,0
2.1,0.00033553,0
2.1005,0.00030246,0
2.101,0.00024758,0
2.1015,0.00018782,0
2.102,0.00013613,0
2.1025,0.00010457,0
2.103,8.7785e-05,0
2.1035,6.8986e-05,0
2.104,4.5823e-05,0
2.1045,2.5345e-05,0
2.105,9.9031e-06,0
2.1055,-5.0355e-06,0
2.106,-2.3667e-05,0
2.1065,-4.4648e-05,0
2.107,-7.4021e-05,0
2.1075,-0.00011733,0
2.108,-0.00015509,0
2.1085,-0.00016651,0
2.109,-0.00015509,0
2.1095,-0.0001321,0
2.11,-0.00011397,0
2.1105,-0.00012068,0
2.111,-0.0001425,0
2.1115,-0.0001514,0
2.112,-0.0001237,0
2.1125,-6.1936e-05,0
2.113,-3.8605e-06,0
2.1135,1.796e-05,0
2.114,8.5603e-06,0
2.1145,-6.8818e-06,0
2.115,-3.357e-07,0
2.1155,4.4816e-05,0
2.116,0.00011867,0
2.1165,0.00018228,0
2.117,0.00019521,0
2.1175,0.00014922,0
2.118,8.51e-05,0
2.1185,5.9922e-05,0
2.119,8.4764e-05,0
2.1195,0.00010927,0
2.12,8.7114e-05,0
2.1205,4.0452e-05,0
2.121,2.4674e-05,0
2.1215,4.4144e-05,0
2.122,5.9587e-05,0
2.1225,5.0187e-05,0
2.123,4.5823e-05,0
2.1235,6.6636e-05,0
2.124,8.0232e-05,0
2.1245,5.4048e-05,0
2.125,3.1891e-06,0
2.1255,-3.2395e-05,0
2.126,-5.5894e-05,0
2.1265,-8.2582e-05,0
2.127,-0.00010574,0
2.1275,-0.00011296,0
2.128,-0.0001039,0
2.1285,-9.0303e-05,0
2.129,-8.275e-05,0
2.1295,-8.1071e-05,0
2.13,-7.8889e-05,0
2.1305,-6.5293e-05,0
2.131,-2.7527e-05,0
2.1315,2.3667e-05,0
2.132,6.3783e-05,0
2.1325,8.4764e-05,0
2.133,8.7953e-05,0
2.1335,6.0929e-05,0
2.134,-7.7211e-06,0
2.1345,-8.5435e-05,0
2.135,-0.00010591,0
2.1355,-5.2201e-05,0
2.136,3.5752e-05,0
2.1365,0.00010961,0
2.137,0.00014653,0
2.1375,0.00015828,0
2.138,0.00015409,0
2.1385,0.00015224,0
2.139,0.00018111,0
2.1395,0.00024086,0
2.14,0.00030196,0
2.1405,0.00032747,0
2.141,0.00029256,0
2.1415,0.00021367,0
2.142,0.00013327,0
2.1425,7.4693e-05,0
2.143,3.6927e-05,0
2.1435,1.326e-05,0
2.144,-2.5177e-06,0
2.1445,-2.2995e-05,0
2.145,-5.7237e-05,0
2.1455,-9.6178e-05,0
2.146,-0.00012068,0
2.1465,-0.00012236,0
2.147,-0.00011347,0
2.1475,-0.00010591,0
2.148,-9.2821e-05,0
2.1485,-6.6972e-05,0
2.149,-3.5752e-05,0
2.1495,-2.1653e-05,0
2.15,-3.2898e-05,0
2.1505,-4.4648e-05,0
2.151,-4.5823e-05,0
2.1515,-3.8773e-05,0
2.152,-2.5009e-05,0
2.1525,-1.0575e-05,0
2.153,-1.947e-05,0
2.1535,-8.8457e-05,0
2.154,-0.00020327,0
2.1545,-0.00027359,0
2.155,-0.00024724,0
2.1555,-0.00015006,0
2.156,-3.8941e-05,0
2.1565,4.8005e-05,0
2.157,0.00010356,0
2.1575,0.00014133,0
2.158,0.00018228,0
2.1585,0.00022274,0
2.159,0.00024472,0
2.1595,0.00025765,0
2.16,0.00025312,0
2.1605,0.00020125,0
2.161,0.0001237,0
2.1615,7.3014e-05,0
2.162,5.7237e-05,0
2.1625,4.1795e-05,0
2.163,1.1582e-05,0
2.1635,-4.8676e-06,0
2.164,1.2253e-05,0
2.1645,4.3641e-05,0
2.165,6.1936e-05,0
2.1655,5.2705e-05,0
2.166,1.2589e-05,0
2.1665,-4.1459e-05,0
2.167,-8.6442e-05,0
2.1675,-0.00010591,0
2.168,-0.00010826,0
2.1685,-0.00010692,0
2.169,-9.7185e-05,0
2.1695,-6.1601e-05,0
2.17,-6.8818e-06,0
2.1705,4.448e-05,0
2.171,8.9128e-05,0
2.1715,0.00013512,0
2.172,0.00017003,0
2.1725,0.00017288,0
2.173,0.00013915,0
2.1735,8.5771e-05,0
2.174,2.9206e-05,0
2.1745,-2.4002e-05,0
2.175,-7.4021e-05,0
2.1755,-0.00012438,0
2.176,-0.0001655,0
2.1765,-0.0001801,0
2.177,-0.00016231,0
2.1775,-0.00012303,0
2.178,-7.7546e-05,0
2.1785,-3.1052e-05,0
2.179,1.0575e-05,0
2.1795,3.4073e-05,0
2.18,5.0187e-05,0
2.1805,7.5532e-05,0
2.181,0.00010893,0
2.1815,0.0001368,0
2.182,0.00013646,0
2.1825,8.6778e-05,0
2.183,1.7624e-05,0
2.1835,-2.3163e-05,0
2.184,-2.2995e-05,0
2.1845,1.326e-05,0
2.185,7.8218e-05,0
2.1855,0.00013613,0
2.186,0.00015962,0
2.1865,0.00013948,0
2.187,9.2485e-05,0
2.1875,5.0858e-05,0
2.188,3.6759e-05,0
2.1885,4.6494e-05,0
2.189,5.623e-05,0
2.1895,3.7934e-05,0
2.19,-4.8676e-06,0
2.1905,-4.0452e-05,0
2.191,-6.6972e-05,0
2.1915,-8.1407e-05,0
2.192,-7.805e-05,0
2.1925,-6.1601e-05,0
2.193,-4.2969e-05,0
2.1935,-2.6017e-05,0
2.194,-1.3596e-05,0
2.1945,-7.3854e-06,0
2.195,-1.1246e-05,0
2.1955,-2.6352e-05,0
2.196,-3.8437e-05,0
2.1965,-3.0381e-05,0
2.197,-3.5248e-06,0
2.1975,2.1317e-05,0
2.198,1.5946e-05,0
2.1985,-2.5849e-05,0
2.199,-7.3686e-05,0
2.1995,-0.00011968,0
2.2,-0.00016147,0
2.2005,-0.00016617,0
2.201,-0.00012857,0
2.2015,-7.7211e-05,0
2.202,-2.6184e-05,0
2.2025,2.5345e-05,0
2.203,7.2679e-05,0
2.2035,0.00011649,0
2.204,0.00015106,0
2.2045,0.00017372,0
2.205,0.00018379,0
2.2055,0.00019319,0
2.206,0.00021199,0
2.2065,0.00022089,0
2.207,0.00019521,0
2.2075,0.0001519,0
2.208,0.000118,0
2.2085,9.987e-05,0
2.209,8.7114e-05,0
2.2095,7.0664e-05,0
2.21,4.6998e-05,0
2.2105,1.2924e-05,0
2.211,-1.8296e-05,0
2.2115,-1.8967e-05,0
2.212,9.5674e-06,0
2.2125,3.827e-05,0
2.213,5.1865e-05,0
2.2135,5.1194e-05,0
2.214,3.4745e-05,0
2.2145,8.392e-07,0
2.215,-3.3402e-05,0
2.2155,-3.8437e-05,0
2.216,3.5248e-06,0
2.2165,7.4693e-05,0
2.217,0.00012538,0
2.2175,0.00012656,0
2.218,9.8192e-05,0
2.2185,7.8889e-05,0
2.219,7.57e-05,0
2.2195,7.335e-05,0
2.22,7.0664e-05,0
2.2205,6.8986e-05,0
2.221,5.6901e-05,0
2.2215,2.9709e-05,0
2.222,-7.5532e-06,0
2.2225,-4.7333e-05,0
2.223,-7.8553e-05,0
2.2235,-0.00011598,0
2.224,-0.00017205,0
2.2245,-0.00020746,0
2.225,-0.0001994,0
2.2255,-0.00016332,0
2.226,-0.00013344,0
2.2265,-0.00012773,0
2.227,-0.00014267,0
2.2275,-0.00017205,0
2.228,-0.00021082,0
2.2285,-0.00022626,0
2.229,-0.00018799,0
2.2295,-0.00013008,0
2.23,-8.8792e-05,0
2.2305,-5.8579e-05,0
2.231,-3.3066e-05,0
2.2315,2.9877e-05,0
2.232,0.00017104,0
2.2325,0.00032798,0
2.233,0.00040468,0
2.2335,0.00039915,0
2.234,0.00035702,0
2.2345,0.00031069,0
2.235,0.00026604,0
2.2355,0.00022878,0
2.236,0.00021602,0
2.2365,0.00022274,0
2.237,0.00022123,0
2.2375,0.0001895,0
2.238,0.00013713,0
2.2385,8.9799e-05,0
2.239,7.0329e-05,0
2.2395,7.0161e-05,0
2.24,6.0258e-05,0
2.2405,3.4745e-05,0
2.241,4.6998e-06,0
2.2415,-2.4002e-05,0
2.242,-5.3544e-05,0
2.2425,-8.3421e-05,0
2.243,-0.00010994,0
2.2435,-0.00012706,0
2.244,-0.00014234,0
2.2445,-0.000165,0
2.245,-0.0001749,0
2.2455,-0.000166,0
2.246,-0.0001566,0
2.2465,-0.00014905,0
2.247,-0.00013613,0
2.2475,-0.00013848,0
2.248,-0.00015056,0
2.2485,-0.00013747,0
2.249,-8.9464e-05,0
2.2495,-3.8773e-05,0
2.25,-8.7282e-06,0
2.2505,3.0213e-06,0
2.251,1.1246e-05,0
2.2515,3.3402e-05,0
2.252,7.0664e-05,0
2.2525,0.00011263,0
2.253,0.0001373,0
2.2535,0.00015023,0
2.254,0.00015492,0
2.2545,0.00014049,0
2.255,0.0001133,0
2.2555,8.04e-05,0
2.256,4.5319e-05,0
2.2565,3.4073e-05,0
2.257,5.9251e-05,0
2.2575,8.426e-05,0
2.258,7.4189e-05,0
2.2585,3.8437e-05,0
2.259,-2.5177e-06,0
2.2595,-3.9612e-05,0
2.26,-0.00010658,0
2.2605,-0.00022676,0
2.261,-0.00034157,0
2.2615,-0.00038941,0
2.262,-0.00036356,0
2.2625,-0.00029474,0
2.263,-0.00021787,0
2.2635,-0.0001415,0
2.264,-5.1865e-05,0
2.2645,6.1936e-05,0
2.265,0.00019001,0
2.2655,0.00030733,0
2.266,0.00039294,0
2.2665,0.00042046,0
2.267,0.00037514,0
2.2675,0.00029357,0
2.268,0.00022408,0
2.2685,0.00018463,0
2.269,0.00017221,0
2.2695,0.00017037,0
2.27,0.00015795,0
2.2705,0.00013277,0
2.271,0.0001039,0
2.2715,6.9657e-05,0
2.272,1.7121e-05,0
2.2725,-5.388e-05,0
2.273,-0.00010893,0
2.2735,-0.00011884,0
2.274,-9.6513e-05,0
2.2745,-7.2007e-05,0
2.275,-6.2608e-05,0
2.2755,-6.7475e-05,0
2.276,-0.00010373,0
2.2765,-0.00013478,0
2.277,-8.0735e-05,0
2.2775,3.3066e-05,0
2.278,9.9031e-05,0
2.2785,9.0303e-05,0
2.279,5.9251e-05,0
2.2795,4.5319e-05,0
2.28,5.3376e-05,0
2.2805,9.1981e-05,0
2.281,0.00016365,0
2.2815,0.0002318,0
2.282,0.00025496,0
2.2825,0.00023046,0
2.283,0.00019487,0
2.2835,0.00017842,0
2.284,0.00016634,0
2.2845,0.00013948,0
2.285,0.00011078,0
2.2855,8.6442e-05,0
2.286,5.623e-05,0
2.2865,1.1749e-06,0
2.287,-8.9632e-05,0
2.2875,-0.00017977,0
2.288,-0.00021569,0
2.2885,-0.00019789,0
2.289,-0.00015811,0
2.2895,-0.00012471,0
2.29,-0.00010155,0
2.2905,-6.8986e-05,0
2.291,-2.0478e-05,0
2.2915,3.0716e-05,0
2.292,6.2776e-05,0
2.2925,7.4189e-05,0
2.293,7.0329e-05,0
2.2935,4.6662e-05,0
2.294,5.539e-06,0
2.2945,-3.3402e-05,0
2.295,-7.4357e-05,0
2.2955,-0.00012908,0
2.296,-0.00018312,0
2.2965,-0.00020461,0
2.297,-0.00018917,0
2.2975,-0.00015241,0
2.298,-0.00010105,0
2.2985,-2.9038e-05,0
2.299,5.2872e-05,0
2.2995,0.00012169,0
2.3,0.00016265,0
2.3005,0.00017926,0
2.301,0.00017607,0
2.3015,0.00014821,0
2.302,9.4499e-05,0
2.3025,2.6352e-05,0
2.303,-5.0019e-05,0
2.3035,-0.00014636,0
2.304,-0.0002313,0
2.3045,-0.00025396,0
2.305,-0.0002276,0
2.3055,-0.00017221,0
2.306,-9.3492e-05,0
2.3065,-1.5274e-05,0
2.307,4.4648e-05,0
2.3075,9.752e-05,0
2.308,0.00015744,0
2.3085,0.0002088,0
2.309,0.00020964,0
2.3095,0.00015274,0
2.31,8.3085e-05,0
2.3105,4.5991e-05,0
2.311,4.4816e-05,0
2.3115,5.6901e-05,0
2.312,7.335e-05,0
2.3125,6.865e-05,0
2.313,4.5823e-05,0
2.3135,5.3208e-05,0
2.314,0.00010457,0
2.3145,0.0001603,0
2.315,0.00017708,0
2.3155,0.00016063,0
2.316,0.0001425,0
2.3165,0.00012203,0
2.317,9.5003e-05,0
2.3175,5.7908e-05,0
2.318,3.5248e-06,0
2.3185,-6.3951e-05,0
2.319,-0.00016751,0
2.3195,-0.00028803,0
2.32,-0.00033956,0
2.3205,-0.00030062,0
2.321,-0.00023583,0
2.3215,-0.00021166,0
2.322,-0.00021132,0
2.3225,-0.00018144,0
2.323,-0.00011044,0
2.3235,-3.508e-05,0
2.324,4.3473e-05,0
2.3245,0.00012807,0
2.325,0.0002078,0
2.3255,0.00029441,0
2.326,0.00038521,0
2.3265,0.00045974,0
2.327,0.00049969,0
2.3275,0.0004876,0
2.328,0.00041677,0
2.3285,0.0003127,0
2.329,0.00022307,0
2.3295,0.00017171,0
2.33,0.00014267,0
2.3305,0.00010994,0
2.331,6.7643e-05,0
2.3315,3.1052e-05,0
2.332,5.539e-06,0
2.3325,-1.947e-05,0
2.333,-5.0858e-05,0
2.3335,-7.7882e-05,0
2.334,-9.6681e-05,0
2.3345,-0.00011498,0
2.335,-0.00013848,0
2.3355,-0.00015946,0
2.336,-0.00015862,0
2.3365,-0.00013579,0
2.337,-0.00011363,0
2.3375,-0.00010188,0
2.338,-9.836e-05,0
2.3385,-9.2149e-05,0
2.339,-5.7069e-05,0
2.3395,-1.091e-05,0
2.34,-1.0407e-05,0
2.3405,-6.865e-05,0
2.341,-0.00016567,0
2.3415,-0.00028014,0
2.342,-0.00036809,0
2.3425,-0.00039864,0
2.343,-0.00039713,0
2.3435,-0.00036541,0
2.344,-0.00027897,0
2.3445,-0.0001425,0
2.345,1.326e-05,0
2.3455,0.00016902,0
2.346,0.0003127,0
2.3465,0.00043977,0
2.347,0.00053259,0
2.3475,0.00055575,0
2.348,0.0004871,0
2.3485,0.00034359,0
2.349,0.00016432,0
2.3495,4.8676e-06,0
2.35,-7.2679e-05,0
2.3505,-7.2847e-05,0
2.351,-5.0019e-05,0
2.3515,-4.2466e-05,0
2.352,-4.0116e-05,0
2.3525,-2.1653e-05,0
2.353,1.8296e-05,0
2.3535,7.1672e-05,0
2.354,0.000118,0
2.3545,0.00014351,0
2.355,0.00014989,0
2.3555,0.00014553,0
2.356,0.0001321,0
2.3565,0.00010054,0
2.357,5.3376e-05,0
2.3575,1.0575e-05,0
2.358,-1.2589e-05,0
2.3585,-2.5009e-05,0
2.359,-5.5222e-05,0
2.3595,-0.00013277,0
2.36,-0.00022609,0
2.3605,-0.00026084,0
2.361,-0.00020629,0
2.3615,-0.00011212,0
2.362,-3.9445e-05,0
2.3625,1.1246e-05,0
2.363,6.4958e-05,0
2.3635,0.00011716,0
2.364,0.00015811,0
2.3645,0.00019252,0
2.365,0.00021703,0
2.3655,0.0002271,0
2.366,0.00021804,0
2.3665,0.00016349,0
2.367,7.1e-05,0
2.3675,-5.539e-06,0
2.368,-3.508e-05,0
2.3685,-3.8773e-05,0
2.369,-3.6088e-05,0
2.3695,-2.9709e-05,0
2.37,-2.3667e-05,0
2.3705,-2.652e-05,0
2.371,-5.069e-05,0
2.3715,-8.6275e-05,0
2.372,-9.6849e-05,0
2.3725,-6.6133e-05,0
2.373,-1.3764e-05,0
2.3735,3.8102e-05,0
2.374,7.0664e-05,0
2.3745,7.7043e-05,0
2.375,6.479e-05,0
2.3755,5.0187e-05,0
2.376,4.6159e-05,0
2.3765,4.9515e-05,0
2.377,3.2898e-05,0
2.3775,-3.5584e-05,0
2.378,-0.00014536,0
2.3785,-0.00024288,0
2.379,-0.00029172,0
2.3795,-0.00028148,0
2.38,-0.00022408,0
2.3805,-0.0001556,0
2.381,-0.00010675,0
2.3815,-6.5797e-05,0
2.382,-2.3499e-06,0
2.3825,9.4667e-05,0
2.383,0.00020058,0
2.3835,0.00028585,0
2.384,0.00032345,0
2.3845,0.0002845,0
2.385,0.00017473,0
2.3855,5.0019e-05,0
2.386,-2.7695e-05,0
2.3865,-4.8508e-05,0
2.387,-3.9109e-05,0
2.3875,-3.1388e-05,0
2.388,-2.5177e-05,0
2.3885,-8.896e-06,0
2.389,2.182e-05,0
2.3895,7.1839e-05,0
2.39,0.00013075,0
2.3905,0.00018346,0
2.391,0.00021703,0
2.3915,0.00021199,0
2.392,0,0
2.3925,0,0
2.393,0,0
2.3935,0,0
2.394,0,0
2.3945,0,0
2.395,0,0
2.3955,0,0
2.396,0,0
2.3965,0,0
2.397,0,0
2.3975,0,0
2.398,0,0
2.3985,0,0
2.399,0,0
2.3995,0,0
2.4,0,0
2.4005,0,0
2.401,0,0
2.4015,0,0
2.402,0,0
2.4025,0,0
2.403,0,0
2.4035,0,0
2.404,0,0
2.4045,0,0
2.405,-0.00016265,0
2.4055,-8.5267e-05,0
2.406,-1.6281e-05,0
2.4065,3.1724e-05,0
2.407,6.3279e-05,0
2.4075,9.5506e-05,0
2.408,0.00013378,0
2.4085,0.00016164,0
2.409,0.00015123,0
2.4095,0.00011061,0
2.41,6.8986e-05,0
2.4105,4.0787e-05,0
2.411,2.5009e-05,0
2.4115,1.7121e-05,0
2.412,2.3331e-05,0
2.4125,3.8102e-05,0
2.413,2.9038e-05,0
2.4135,8.7282e-06,0
2.414,4.3641e-06,0
2.4145,2.8534e-06,0
2.415,-1.326e-05,0
2.4155,-4.6662e-05,0
2.416,-0.00010793,0
2.4165,-0.00017523,0
2.417,-0.00020276,0
2.4175,-0.00016533,0
2.418,-8.275e-05,0
2.4185,-3.357e-07,0
2.419,4.3473e-05,0
2.4195,4.4144e-05,0
2.42,2.9877e-05,0
2.4205,2.6352e-05,0
2.421,3.0045e-05,0
2.4215,2.9542e-05,0
2.422,2.6352e-05,0
2.4225,2.8367e-05,0
2.423,5.0019e-05,0
2.4235,8.3421e-05,0
2.424,0.00010323,0
2.4245,0.00011447,0
2.425,0.00013008,0
2.4255,0.00014469,0
2.426,0.0001415,0
2.4265,0.00010323,0
2.427,4.4144e-05,0
2.4275,3.357e-07,0
2.428,-2.0478e-05,0
2.4285,-4.2969e-05,0
2.429,-7.7378e-05,0
2.4295,-0.00011212,0
2.43,-0.00012337,0
2.4305,-9.3492e-05,0
2.431,-2.8199e-05,0
2.4315,4.2802e-05,0
2.432,8.3757e-05,0
2.4325,9.366e-05,0
2.433,9.7856e-05,0
2.4335,0.00011347,0
2.434,0.00014804,0
2.4345,0.00019319,0
2.435,0.00019857,0
2.4355,9.6178e-05,0
2.436,-7.3182e-05,0
2.4365,-0.0001994,0
2.437,-0.00021401,0
2.4375,-0.00014133,0
2.438,-5.2705e-05,0
2.4385,5.0355e-06,0
2.439,3.5752e-05,0
2.4395,5.5558e-05,0
2.44,6.3951e-05,0
2.4405,7.7714e-05,0
2.441,0.00012941,0
2.4415,0.00017305,0
2.442,0.00015459,0
2.4425,9.4835e-05,0
2.443,4.8676e-05,0
2.4435,4.9012e-05,0
2.444,8.8121e-05,0
2.4445,0.00013713,0
2.445,0.00016902,0
2.4455,0.00016533,0
2.446,0.00013411,0
2.4465,9.8527e-05,0
2.447,6.2272e-05,0
2.4475,2.1317e-05,0
2.448,-1.326e-05,0
2.4485,-3.6591e-05,0
2.449,-5.9251e-05,0
2.4495,-8.0735e-05,0
2.45,-8.7617e-05,0
2.4505,-7.1336e-05,0
2.451,-4.1795e-05,0
2.4515,-1.4267e-05,0
2.452,3.0213e-06,0
2.4525,9.2317e-06,0
2.453,5.539e-06,0
2.4535,1.678e-07,0
2.454,1.8463e-06,0
2.4545,1.1749e-06,0
2.455,-9.2317e-06,0
2.4555,-2.6688e-05,0
2.456,-4.8173e-05,0
2.4565,-6.6133e-05,0
2.457,-8.3589e-05,0
2.4575,-0.00010927,0
2.458,-0.00013713,0
2.4585,-0.00014855,0
2.459,-0.0001237,0
2.4595,-0.00010188,0
2.46,-0.00012807,0
2.4605,-0.00016818,0
2.461,-0.00017205,0
2.4615,-0.00012857,0
2.462,-5.539e-05,0
2.4625,2.182e-05,0
2.463,4.4816e-05,0
2.4635,1.9638e-05,0
2.464,3.5752e-05,0
2.4645,0.00012857,0
2.465,0.00024422,0
2.4655,0.00030767,0
2.466,0.00029206,0
2.4665,0.00022811,0
2.467,0.00016466,0
2.4675,0.0001321,0
2.468,0.00013445,0
2.4685,0.00014217,0
2.469,0.00012102,0
2.4695,6.2608e-05,0
2.47,-1.9806e-05,0
2.4705,-0.00010423,0
2.471,-0.00014636,0
2.4715,-0.0001284,0
2.472,-8.3589e-05,0
2.4725,-4.4816e-05,0
2.473,-2.1317e-05,0
2.4735,-1.561e-05,0
2.474,-2.4842e-05,0
2.4745,-3.8437e-05,0
2.475,-3.4913e-05,0
2.4755,-7.8889e-06,0
2.476,1.7288e-05,0
2.4765,2.7527e-05,0
2.477,4.1795e-05,0
2.4775,6.4286e-05,0
2.478,8.8457e-05,0
2.4785,0.00013512,0
2.479,0.00021199,0
2.4795,0.00028148,0
2.48,0.00029071,0
2.4805,0.0002365,0
2.481,0.00014989,0
2.4815,6.5629e-05,0
2.482,1.6953e-05,0
2.4825,-8.392e-07,0
2.483,-1.6281e-05,0
2.4835,-3.0045e-05,0
2.484,-3.3234e-05,0
2.4845,-2.7024e-05,0
2.485,-1.3764e-05,0
2.4855,1.5106e-06,0
2.486,1.9974e-05,0
2.4865,4.213e-05,0
2.487,5.5558e-05,0
2.4875,5.1194e-05,0
2.488,3.4745e-05,0
2.4885,1.4603e-05,0
2.489,-8.896e-06,0
2.4895,-3.4073e-05,0
2.49,-5.539e-05,0
2.4905,-7.5364e-05,0
2.491,-9.7185e-05,0
2.4915,-0.00011901,0
2.492,-0.00013277,0
2.4925,-0.0001321,0
2.493,-0.00011934,0
2.4935,-9.8192e-05,0
2.494,-6.2608e-05,0
2.4945,-6.3783e-06,0
2.495,5.1194e-05,0
2.4955,8.0903e-05,0
2.496,7.4525e-05,0
2.4965,4.4984e-05,0
2.497,4.5319e-06,0
2.4975,-3.6759e-05,0
2.498,-6.8986e-05,0
2.4985,-8.9464e-05,0
2.499,-9.6513e-05,0
2.4995,-8.6275e-05,0
2.5,-5.4887e-05,0
2.5005,-2.2324e-05,0
2.501,-1.9638e-05,0
2.5015,-2.8534e-05,0
2.502,-4.2466e-05,0
2.5025,-6.0594e-05,0
2.503,-5.4719e-05,0
2.5035,-1.1582e-05,0
2.504,4.3809e-05,0
2.5045,7.57e-05,0
2.505,8.5435e-05,0
2.5055,0.00011749,0
2.506,0.00019118,0
2.5065,0.0002741,0
2.507,0.00031606,0
2.5075,0.00030465,0
2.508,0.00026906,0
2.5085,0.00023046,0
2.509,0.00018715,0
2.5095,0.0001326,0
2.51,7.57e-05,0
2.5105,4.6159e-05,0
2.511,5.2872e-05,0
2.5115,6.6636e-05,0
2.512,6.5965e-05,0
2.5125,5.2872e-05,0
2.513,4.1962e-05,0
2.5135,3.8102e-05,0
2.514,3.1556e-05,0
2.5145,2.1317e-05,0
2.515,7.5532e-06,0
2.5155,-1.4099e-05,0
2.516,-3.7095e-05,0
2.5165,-4.9851e-05,0
2.517,-5.7404e-05,0
2.5175,-8.4764e-05,0
2.518,-0.00014099,0
2.5185,-0.00020108,0
2.519,-0.00023902,0
2.5195,-0.0002365,0
2.52,-0.00020142,0
2.5205,-0.00016147,0
2.521,-0.00013025,0
2.5215,-8.4093e-05,0
2.522,-2.8367e-05,0
2.5225,-1.091e-05,0
2.523,-3.3234e-05,0
2.5235,-4.3473e-05,0
2.524,-1.796e-05,0
2.5245,3.2059e-05,0
2.525,8.5771e-05,0
2.5255,0.00013294,0
2.526,0.00014821,0
2.5265,0.00010826,0
2.527,5.3208e-05,0
2.5275,3.8773e-05,0
2.528,4.9515e-05,0
2.5285,4.1962e-05,0
2.529,2.0646e-05,0
2.5295,1.5274e-05,0
2.53,3.3906e-05,0
2.5305,7.0664e-05,0
2.531,0.0001237,0
2.5315,0.00019655,0
2.532,0.00026537,0
2.5325,0.00028383,0
2.533,0.00025127,0
2.5335,0.0002031,0
2.534,0.00015895,0
2.5345,0.00011313,0
2.535,6.7308e-05,0
2.5355,3.3066e-05,0
2.536,1.2757e-05,0
2.5365,-4.8676e-06,0
2.537,-3.4409e-05,0
2.5375,-6.6468e-05,0
2.538,-8.8289e-05,0
2.5385,-0.00010188,0
2.539,-0.00010138,0
2.5395,-8.6442e-05,0
2.54,-6.6972e-05,0
2.5405,-4.7166e-05,0
2.541,-2.266e-05,0
2.5415,9.5674e-06,0
2.542,4.2802e-05,0
2.5425,6.2104e-05,0
2.543,6.0929e-05,0
2.5435,3.7934e-05,0
2.544,-1.8631e-05,0
2.5445,-8.0735e-05,0
2.545,-0.00010893,0
2.5455,-9.7688e-05,0
2.546,-6.3279e-05,0
2.5465,-2.652e-05,0
2.547,2.182e-06,0
2.5475,2.3835e-05,0
2.548,3.6591e-05,0
2.5485,3.743e-05,0
2.549,4.4144e-05,0
2.5495,6.0761e-05,0
2.55,5.6062e-05,0
2.5505,1.6449e-05,0
2.551,-3.2731e-05,0
2.5515,-6.6636e-05,0
2.552,-8.9799e-05,0
2.5525,-9.1646e-05,0
2.553,-6.4622e-05,0
2.5535,-2.652e-05,0
2.554,1.0575e-05,0
2.5545,3.978e-05,0
2.555,5.2201e-05,0
2.5555,5.2537e-05,0
2.556,4.5487e-05,0
2.5565,3.2395e-05,0
2.557,1.5274e-05,0
2.5575,6.2104e-06,0
2.558,2.8534e-06,0
2.5585,9.5674e-06,0
2.559,2.5177e-05,0
2.5595,-6.2104e-06,0
2.56,-0.00010172,0
2.5605,-0.00017037,0
2.561,-0.00015543,0
2.5615,-8.6107e-05,0
2.562,-1.8463e-06,0
2.5625,8.5771e-05,0
2.563,0.0001655,0
2.5635,0.000213,0
2.564,0.00022408,0
2.5645,0.0002318,0
2.565,0.00024086,0
2.5655,0.00022525,0
2.566,0.00017507,0
2.5665,0.00011397,0
2.567,6.6468e-05,0
2.5675,2.7695e-05,0
2.568,-2.1988e-05,0
2.5685,-8.7785e-05,0
2.569,-0.00015207,0
2.5695,-0.00018782,0
2.57,-0.00018883,0
2.5705,-0.00016617,0
2.571,-0.00014435,0
2.5715,-0.00014351,0
2.572,-0.00013176,0
2.5725,-5.5894e-05,0
2.573,7.2847e-05,0
2.5735,0.00019487,0
2.574,0.00025295,0
2.5745,0.00024959,0
2.575,0.00024422,0
2.5755,0.00025278,0
2.576,0.00025211,0
2.5765,0.00024154,0
2.577,0.00022609,0
2.5775,0.00018715,0
2.578,0.00011229,0
2.5785,1.6785e-05,0
2.579,-7.2679e-05,0
2.5795,-0.00013999,0
2.58,-0.00017775,0
2.5805,-0.00018279,0
2.581,-0.00016365,0
2.5815,-0.00014351,0
2.582,-0.00012941,0
2.5825,-0.00011229,0
2.583,-8.1239e-05,0
2.5835,-2.9374e-05,0
2.584,4.5151e-05,0
2.5845,0.00012471,0
2.585,0.00016718,0
2.5855,0.00013814,0
2.586,7.4021e-05,0
2.5865,4.3809e-05,0
2.587,5.4887e-05,0
2.5875,7.1e-05,0
2.588,7.57e-05,0
2.5885,6.7643e-05,0
2.589,4.9012e-05,0
2.5895,2.7024e-05,0
2.59,2.8534e-06,0
2.5905,-1.8296e-05,0
2.591,-2.8367e-05,0
2.5915,-1.8296e-05,0
2.592,1.3092e-05,0
2.5925,4.918e-05,0
2.593,7.0161e-05,0
2.5935,6.7308e-05,0
2.594,4.7501e-05,0
2.5945,3.122e-05,0
2.595,3.0549e-05,0
2.5955,3.508e-05,0
2.596,3.2395e-05,0
2.5965,2.031e-05,0
2.597,2.3499e-06,0
2.5975,-1.2589e-05,0
2.598,-1.2757e-05,0
2.5985,-6.0426e-06,0
2.599,-2.8534e-06,0
2.5995,1.678e-07,0
2.6,-1.8463e-06,0
2.6005,-1.4939e-05,0
2.601,-3.1891e-05,0
2.6015,-4.9851e-05,0
2.602,-7.6539e-05,0
2.6025,-0.00012236,0
2.603,-0.00018061,0
2.6035,-0.00023297,0
2.604,-0.00027175,0
2.6045,-0.00027594,0
2.605,-0.00022777,0
2.6055,-0.00014922,0
2.606,-7.9057e-05,0
2.6065,-2.0142e-06,0
2.607,0.0001133,0
2.6075,0.00024942,0
2.608,0.00035131,0
2.6085,0.00038169,0
2.609,0.00034896,0
2.6095,0.0002751,0
2.61,0.00019185,0
2.6105,0.00014015,0
2.611,0.0001331,0
2.6115,0.00013613,0
2.612,0.00011296,0
2.6125,6.9657e-05,0
2.613,3.6088e-05,0
2.6135,2.4506e-05,0
2.614,2.9374e-05,0
2.6145,3.6759e-05,0
2.615,3.5584e-05,0
2.6155,2.5681e-05,0
2.616,1.7792e-05,0
2.6165,2.1317e-05,0
2.617,3.1724e-05,0
2.6175,2.652e-05,0
2.618,-2.3499e-06,0
2.6185,-3.5248e-05,0
2.619,-6.4958e-05,0
2.6195,-9.987e-05,0
2.62,-0.00014015,0
2.6205,-0.0001702,0
2.621,-0.00016869,0
2.6215,-0.00012673,0
2.622,-5.0858e-05,0
2.6225,1.8463e-05,0
2.623,3.5752e-05,0
2.6235,8.3925e-06,0
2.624,3.357e-07,0
2.6245,2.417e-05,0
2.625,3.2731e-05,0
2.6255,1.4267e-05,0
2.626,-2.4842e-05,0
2.6265,-6.3279e-05,0
2.627,-6.3951e-05,0
2.6275,-1.1414e-05,0
2.628,6.5965e-05,0
2.6285,0.00013143,0
2.629,0.00016684,0
2.6295,0.00018111,0
2.63,0.00017876,0
2.6305,0.00014754,0
2.631,9.3828e-05,0
2.6315,3.2731e-05,0
2.632,-1.1582e-05,0
2.6325,-2.1653e-05,0
2.633,-2.182e-06,0
2.6335,2.0981e-05,0
2.634,3.0381e-05,0
2.6345,3.2563e-05,0
2.635,3.6759e-05,0
2.6355,3.6759e-05,0
2.636,3.4745e-05,0
2.6365,4.1291e-05,0
2.637,3.1556e-05,0
2.6375,-2.0478e-05,0
2.638,-8.5603e-05,0
2.6385,-0.00011699,0
2.639,-0.00010759,0
2.6395,-8.5771e-05,0
2.64,-7.2679e-05,0
2.6405,-6.4958e-05,0
2.641,-5.4551e-05,0
2.6415,-4.3473e-05,0
2.642,-3.0045e-05,0
2.6425,-1.2085e-05,0
2.643,9.2317e-06,0
2.6435,2.6184e-05,0
2.644,2.1317e-05,0
2.6445,2.5177e-06,0
2.645,1.678e-07,0
2.6455,2.266e-05,0
2.646,5.6062e-05,0
2.6465,7.4357e-05,0
2.647,7.1e-05,0
2.6475,8.5771e-05,0
2.648,0.00013579,0
2.6485,0.00017775,0
2.649,0.00018111,0
2.6495,0.00017221,0
2.65,0.0001697,0
2.6505,0.00016567,0
2.651,0.00015341,0
2.6515,0.0001279,0
2.652,9.0135e-05,0
2.6525,5.0187e-05,0
2.653,2.8367e-05,0
2.6535,3.2563e-05,0
2.654,3.743e-05,0
2.6545,2.3667e-05,0
2.655,3.1891e-06,0
2.6555,-1.6449e-05,0
2.656,-3.8437e-05,0
2.6565,-6.4622e-05,0
2.657,-8.2414e-05,0
2.6575,-9.0471e-05,0
2.658,-9.7353e-05,0
2.6585,-9.8527e-05,0
2.659,-8.745e-05,0
2.6595,-6.3615e-05,0
2.66,-4.3305e-05,0
2.6605,-4.6326e-05,0
2.661,-6.63e-05,0
2.6615,-8.51e-05,0
2.662,-8.1071e-05,0
2.6625,-4.0452e-05,0
2.663,9.3996e-06,0
2.6635,3.0381e-05,0
2.664,2.9206e-05,0
2.6645,3.2059e-05,0
2.665,5.3544e-05,0
2.6655,9.1142e-05,0
2.666,0.00012706,0
2.6665,0.00012488,0
2.667,7.9896e-05,0
2.6675,1.561e-05,0
2.668,-5.2201e-05,0
2.6685,-0.00012169,0
2.669,-0.00019789,0
2.6695,-0.00024775,0
2.67,-0.00024808,0
2.6705,-0.00021317,0
2.671,-0.00014519,0
2.6715,-5.8076e-05,0
2.672,3.122e-05,0
2.6725,0.00011397,0
2.673,0.00018766,0
2.6735,0.00025026,0
2.674,0.00028988,0
2.6745,0.00029659,0
2.675,0.00028316,0
2.6755,0.00026705,0
2.676,0.00024724,0
2.6765,0.00022005,0
2.677,0.00019017,0
2.6775,0.00014955,0
2.678,0.00010088,0
2.6785,5.4215e-05,0
2.679,8.2246e-06,0
2.6795,-3.8102e-05,0
2.68,-7.6707e-05,0
2.6805,-9.5674e-05,0
2.681,-9.5171e-05,0
2.6815,-9.2821e-05,0
2.682,-0.00010625,0
2.6825,-0.00010658,0
2.683,-8.3925e-05,0
2.6835,-6.5965e-05,0
2.684,-5.1194e-05,0
2.6845,-3.0381e-05,0
2.685,-1.2253e-05,0
2.6855,-3.1891e-06,0
2.686,1.2589e-05,0
2.6865,5.0187e-05,0
2.687,0.00010356,0
2.6875,0.00013848,0
2.688,0.00013713,0
2.6885,0.00011313,0
2.689,7.6707e-05,0
2.6895,3.3402e-05,0
2.69,-1.8463e-06,0
2.6905,-1.6281e-05,0
2.691,-1.1582e-05,0
2.6915,3.5248e-06,0
2.692,2.6352e-05,0
2.6925,5.6901e-05,0
2.693,7.956e-05,0
2.6935,8.5435e-05,0
2.694,8.5435e-05,0
2.6945,9.6513e-05,0
2.695,0.00011078,0
2.6955,0.00010256,0
2.696,7.0664e-05,0
2.6965,3.0549e-05,0
2.697,-6.2104e-06,0
2.6975,-2.9709e-05,0
2.698,-3.592e-05,0
2.6985,-2.9038e-05,0
2.699,-2.2492e-05,0
2.6995,-2.1653e-05,0
2.7,-2.3331e-05,0
2.7005,-2.8367e-05,0
2.701,-3.2395e-05,0
2.7015,-3.7934e-05,0
2.702,-5.4215e-05,0
2.7025,-7.7546e-05,0
2.703,-9.2821e-05,0
2.7035,-9.4331e-05,0
2.704,-9.1646e-05,0
2.7045,-8.4093e-05,0
2.705,-6.4622e-05,0
2.7055,-4.3809e-05,0
2.706,-2.1653e-05,0
2.7065,1.4939e-05,0
2.707,5.4048e-05,0
2.7075,7.0664e-05,0
2.708,6.2944e-05,0
2.7085,4.3473e-05,0
2.709,2.8702e-05,0
2.7095,3.5416e-05,0
2.71,5.4887e-05,0
2.7105,6.5629e-05,0
2.711,5.8915e-05,0
2.7115,3.7766e-05,0
2.712,1.9638e-05,0
2.7125,2.1988e-05,0
2.713,3.5752e-05,0
2.7135,3.8437e-05,0
2.714,3.2731e-05,0
2.7145,3.827e-05,0
2.715,4.1795e-05,0
2.7155,7.8889e-06,0
2.716,-4.213e-05,0
2.7165,-5.4215e-05,0
2.717,-2.5009e-05,0
2.7175,1.678e-07,0
2.718,-1.2589e-05,0
2.7185,-5.6901e-05,0
2.719,-8.745e-05,0
2.7195,-7.3014e-05,0
2.72,-2.4002e-05,0
2.7205,3.3066e-05,0
2.721,7.3014e-05,0
2.7215,6.8986e-05,0
2.722,2.2324e-05,0
2.7225,-1.4939e-05,0
2.723,-1.8463e-06,0
2.7235,3.8605e-05,0
2.724,5.623e-05,0
2.7245,4.3137e-05,0
2.725,2.887e-05,0
2.7255,4.2802e-05,0
2.726,8.4428e-05,0
2.7265,0.0001368,0
2.727,0.00017809,0
2.7275,0.00019185,0
2.728,0.00018648,0
2.7285,0.00015123,0
2.729,7.2343e-05,0
2.7295,-9.2317e-06,0
2.73,-5.5558e-05,0
2.7305,-6.2272e-05,0
2.731,-5.0187e-05,0
2.7315,-3.4577e-05,0
2.732,-1.1582e-05,0
2.7325,6.8818e-06,0
2.733,-1.091e-05,0
2.7335,-5.1194e-05,0
2.734,-6.8818e-05,0
2.7345,-4.4648e-05,0
2.735,-3.6927e-06,0
2.7355,2.6688e-05,0
2.736,4.0116e-05,0
2.7365,4.5487e-05,0
2.737,5.6901e-05,0
2.7375,8.275e-05,0
2.738,0.00012186,0
2.7385,0.00015123,0
2.739,0.0001472,0
2.7395,0.0001185,0
2.74,9.7017e-05,0
2.7405,8.5771e-05,0
2.741,6.3783e-05,0
2.7415,2.8031e-05,0
2.742,-4.1962e-06,0
2.7425,-2.1653e-05,0
2.743,-2.4338e-05,0
2.7435,-3.1556e-05,0
2.744,-4.9515e-05,0
2.7445,-6.8482e-05,0
2.745,-8.4093e-05,0
2.7455,-9.366e-05,0
2.746,-9.0135e-05,0
2.7465,-8.2582e-05,0
2.747,-8.8121e-05,0
2.7475,-0.00010373,0
2.748,-0.00011498,0
2.7485,-0.00010222,0
2.749,-4.7837e-05,0
2.7495,3.6088e-05,0
2.75,0.00011934,0
2.7505,0.00018379,0
2.751,0.00021166,0
2.7515,0.00019319,0
2.752,0.00015358,0
2.7525,0.00013713,0
2.753,0.00015492,0
2.7535,0.00016735,0
2.754,0.0001415,0
2.7545,8.6442e-05,0
2.755,3.2395e-05,0
2.7555,-1.5946e-05,0
2.756,-6.5461e-05,0
2.7565,-9.9199e-05,0
2.757,-9.5003e-05,0
2.7575,-6.5126e-05,0
2.758,-4.213e-05,0
2.7585,-3.3738e-05,0
2.759,-2.0981e-05,0
2.7595,-2.5177e-06,0
2.76,1.7288e-05,0
2.7605,3.978e-05,0
2.761,4.8676e-05,0
2.7615,3.2395e-05,0
2.762,-1.6617e-05,0
2.7625,-8.745e-05,0
2.763,-0.00015106,0
2.7635,-0.00017473,0
2.764,-0.0001425,0
2.7645,-7.6539e-05,0
2.765,-1.796e-05,0
2.7655,1.4939e-05,0
2.766,2.9206e-05,0
2.7665,4.6494e-05,0
2.767,7.6371e-05,0
2.7675,0.00011095,0
2.768,0.00013948,0
2.7685,0.00014452,0
2.769,0.00011531,0
2.7695,6.9657e-05,0
2.77,3.8437e-05,0
2.7705,2.5345e-05,0
2.771,2.7863e-05,0
2.7715,4.7501e-05,0
2.772,6.5461e-05,0
2.7725,6.3951e-05,0
2.773,5.5222e-05,0
2.7735,5.388e-05,0
2.774,6.1433e-05,0
2.7745,7.5029e-05,0
2.775,8.7785e-05,0
2.7755,9.2317e-05,0
2.776,8.5771e-05,0
2.7765,7.0329e-05,0
2.777,6.2608e-05,0
2.7775,7.0832e-05,0
2.778,6.7979e-05,0
2.7785,3.8437e-05,0
2.779,1.5106e-06,0
2.7795,-2.5849e-05,0
2.78,-4.1291e-05,0
2.7805,-4.5151e-05,0
2.781,-5.1698e-05,0
2.7815,-7.6036e-05,0
2.782,-0.00011984,0
2.7825,-0.00018279,0
2.783,-0.00023784,0
2.7835,-0.00025077,0
2.784,-0.00021653,0
2.7845,-0.00016013,0
2.785,-0.0001133,0
2.7855,-9.4667e-05,0
2.786,-0.00010558,0
2.7865,-0.000118,0
2.787,-7.2679e-05,0
2.7875,4.3809e-05,0
2.788,0.00016147,0
2.7885,0.00022408,0
2.789,0.00023751,0
2.7895,0.00022962,0
2.79,0.00022576,0
2.7905,0.00024657,0
2.791,0.00028753,0
2.7915,0.00029978,0
2.792,0.00025933,0
2.7925,0.0001937,0
2.793,0.00013898,0
2.7935,0.00010054,0
2.794,7.0161e-05,0
2.7945,4.2802e-05,0
2.795,2.031e-05,0
2.7955,4.6998e-06,0
2.796,-3.0213e-06,0
2.7965,-1.678e-07,0
2.797,2.5177e-06,0
2.7975,-8.2246e-06,0
2.798,-3.4745e-05,0
2.7985,-8.1575e-05,0
2.799,-0.00015123,0
2.7995,-0.00021602,0
2.8,-0.0002365,0
2.8005,-0.00019454,0
2.801,-0.00013243,0
2.8015,-0.00012522,0
2.802,-0.00019319,0
2.8025,-0.00026386,0
2.803,-0.00025496,0
2.8035,-0.00017523,0
2.804,-7.3014e-05,0
2.8045,9.0639e-06,0
2.805,4.7837e-05,0
2.8055,7.4861e-05,0
2.806,0.00012958,0
2.8065,0.00021501,0
2.807,0.000307,0
2.8075,0.00037111,0
2.808,0.00036776,0
2.8085,0.00030649,0
2.809,0.00022811,0
2.8095,0.00017607,0
2.81,0.00015526,0
2.8105,0.00015023,0
2.811,0.00014318,0
2.8115,0.00012337,0
2.812,0.00010071,0
2.8125,9.4667e-05,0
2.813,9.752e-05,0
2.8135,8.5771e-05,0
2.814,5.4048e-05,0
2.8145,1.5274e-05,0
2.815,-1.3932e-05,0
2.8155,-2.652e-05,0
2.816,-2.6017e-05,0
2.8165,-2.182e-05,0
2.817,-2.5513e-05,0
2.8175,-4.6494e-05,0
2.818,-8.1407e-05,0
2.8185,-0.00012236,0
2.819,-0.00016399,0
2.8195,-0.00021367,0
2.82,-0.00028685,0
2.8205,-0.00035584,0
2.821,-0.00037951,0
2.8215,-0.00034661,0
2.822,-0.00028803,0
2.8225,-0.00021367,0
2.823,-0.00011565,0
2.8235,-3.0213e-06,0
2.824,0.00011363,0
2.8245,0.00024355,0
2.825,0.00036239,0
2.8255,0.00040536,0
2.826,0.00036239,0
2.8265,0.00031304,0
2.827,0.00030179,0
2.8275,0.00029021,0
2.828,0.00023851,0
2.8285,0.0001556,0
2.829,7.5029e-05,0
2.8295,2.4506e-05,0
2.83,9.2317e-06,0
2.8305,2.8702e-05,0
2.831,6.6804e-05,0
2.8315,8.275e-05,0
2.832,5.5558e-05,0
2.8325,1.2757e-05,0
2.833,-6.8818e-06,0
2.8335,-5.2033e-06,0
2.834,-8.2246e-06,0
2.8345,-3.2059e-05,0
2.835,-8.0064e-05,0
2.8355,-0.00013831,0
2.836,-0.0001613,0
2.8365,-0.00013747,0
2.837,-0.00010407,0
2.8375,-7.7043e-05,0
2.838,-5.4887e-05,0
2.8385,-4.2802e-05,0
2.839,-3.4745e-05,0
2.8395,-3.6423e-05,0
2.84,-7.3686e-05,0
2.8405,-0.00012102,0
2.841,-0.00014133,0
2.8415,-0.00013613,0
2.842,-0.00010927,0
2.8425,-6.8986e-05,0
2.843,-2.9877e-05,0
2.8435,6.2104e-06,0
2.844,5.8579e-05,0
2.8445,0.00014318,0
2.845,0.000236,0
2.8455,0.00027343,0
2.846,0.00022576,0
2.8465,0.00014788,0
2.847,0.00010054,0
2.8475,9.0806e-05,0
2.848,8.04e-05,0
2.8485,4.918e-05,0
2.849,1.1749e-05,0
2.8495,-1.4939e-05,0
2.85,-3.0549e-05,0
2.8505,-4.2634e-05,0
2.851,-5.4215e-05,0
2.8515,-6.3279e-05,0
2.852,-6.3111e-05,0
2.8525,-4.6494e-05,0
2.853,-1.2757e-05,0
2.8535,3.0716e-05,0
2.854,6.0594e-05,0
2.8545,5.5558e-05,0
2.855,2.5345e-05,0
2.8555,-4.8676e-06,0
2.856,-2.1988e-05,0
2.8565,-2.6688e-05,0
2.857,-2.7192e-05,0
2.8575,-2.7024e-05,0
2.858,-2.6352e-05,0
2.8585,-2.7359e-05,0
2.859,-2.8702e-05,0
2.8595,-2.4674e-05,0
2.86,-1.9135e-05,0
2.8605,-2.7359e-05,0
2.861,-4.3977e-05,0
2.8615,-5.1026e-05,0
2.862,-4.2802e-05,0
2.8625,-2.0981e-05,0
2.863,6.714e-07,0
2.8635,1.2253e-05,0
2.864,3.0381e-05,0
2.8645,7.3686e-05,0
2.865,0.00012605,0
2.8655,0.00016768,0
2.866,0.00020075,0
2.8665,0.00023281,0
2.867,0.00024758,0
2.8675,0.00023214,0
2.868,0.00020226,0
2.8685,0.00016802,0
2.869,0.00012656,0
2.8695,8.1071e-05,0
2.87,3.7095e-05,0
2.8705,-1.3428e-05,0
2.871,-7.0664e-05,0
2.8715,-0.00011246,0
2.872,-0.00012807,0
2.8725,-0.00014099,0
2.873,-0.00018161,0
2.8735,-0.00022391,0
2.874,-0.00020981,0
2.8745,-0.00013361,0
2.875,-3.4577e-05,0
2.8755,5.8579e-05,0
2.876,0.00012958,0
2.8765,0.0001749,0
2.877,0.00020058,0
2.8775,0.00022911,0
2.878,0.00028014,0
2.8785,0.00030062,0
2.879,0.00022844,0
2.8795,0.00010138,0
2.88,1.678e-07,0
2.8805,-5.0187e-05,0
2.881,-6.5965e-05,0
2.8815,-6.6804e-05,0
2.882,-6.6636e-05,0
2.8825,-7.8386e-05,0
2.883,-9.9367e-05,0
2.8835,-0.00011179,0
2.884,-0.00010457,0
2.8845,-7.9225e-05,0
2.885,-4.7166e-05,0
2.8855,-1.7121e-05,0
2.886,9.7353e-06,0
2.8865,5.2537e-05,0
2.887,9.6513e-05,0
2.8875,0.00010021,0
2.888,7.0329e-05,0
2.8885,4.3305e-05,0
2.889,3.7262e-05,0
2.8895,4.5319e-05,0
2.89,5.0523e-05,0
2.8905,3.5416e-05,0
2.891,2.5177e-06,0
2.8915,-2.031e-05,0
2.892,-1.2924e-05,0
2.8925,2.9877e-05,0
2.893,9.4331e-05,0
2.8935,0.0001415,0
2.894,0.0001321,0
2.8945,6.8986e-05,0
2.895,7.0497e-06,0
2.8955,-2.2324e-05,0
2.896,-2.1988e-05,0
2.8965,-7.2175e-06,0
2.897,1.2757e-05,0
2.8975,2.7024e-05,0
2.898,3.9612e-05,0
2.8985,5.3544e-05,0
2.899,6.0929e-05,0
2.8995,5.623e-05,0
2.9,4.8005e-05,0
2.9005,3.7095e-05,0
2.901,1.6953e-05,0
2.9015,-1.1246e-05,0
2.902,-4.5151e-05,0
2.9025,-7.8721e-05,0
2.903,-0.00010121,0
2.9035,-0.00010658,0
2.904,-9.4499e-05,0
2.9045,-7.7043e-05,0
2.905,-7.335e-05,0
2.9055,-7.805e-05,0
2.906,-6.1936e-05,0
2.9065,-2.031e-05,0
2.907,1.3092e-05,0
2.9075,1.561e-05,0
2.908,6.5461e-06,0
2.9085,9.7353e-06,0
2.909,2.1317e-05,0
2.9095,2.7695e-05,0
2.91,2.7192e-05,0
2.9105,2.3331e-05,0
2.911,2.4002e-05,0
2.9115,3.2395e-05,0
2.912,4.2802e-05,0
2.9125,5.5222e-05,0
2.913,7.57e-05,0
2.9135,9.7856e-05,0
2.914,0.00011078,0
2.9145,0.00010675,0
2.915,8.4428e-05,0
2.9155,5.304e-05,0
2.916,2.9206e-05,0
2.9165,2.5177e-06,0
2.917,-5.6901e-05,0
2.9175,-0.00012924,0
2.918,-0.00016634,0
2.9185,-0.00016634,0
2.919,-0.00015258,0
2.9195,-0.00013042,0
2.92,-9.1646e-05,0
2.9205,-4.6494e-05,0
2.921,-1.8463e-06,0
2.9215,7.6707e-05,0
2.922,0.0001848,0
2.9225,0.00025093,0
2.923,0.00024321,0
2.9235,0.00020931,0
2.924,0.00019655,0
2.9245,0.00019588,0
2.925,0.00017104,0
2.9255,0.00011733,0
2.926,5.7572e-05,0
2.9265,8.5603e-06,0
2.927,-1.8463e-05,0
2.9275,-2.031e-05,0
2.928,5.035e-07,0
2.9285,2.9709e-05,0
2.929,5.153e-05,0
2.9295,5.623e-05,0
2.93,4.5487e-05,0
2.9305,3.4745e-05,0
2.931,3.6423e-05,0
2.9315,4.7166e-05,0
2.932,5.623e-05,0
2.9325,6.2104e-05,0
2.933,6.479e-05,0
2.9335,5.7908e-05,0
2.934,4.0787e-05,0
2.9345,2.5681e-05,0
2.935,2.0981e-05,0
2.9355,1.6953e-05,0
2.936,1.678e-07,0
2.9365,-3.3234e-05,0
2.937,-8.4764e-05,0
2.9375,-0.00013143,0
2.938,-0.00014855,0
2.9385,-0.00014536,0
2.939,-0.0001373,0
2.9395,-0.00012454,0
2.94,-9.4835e-05,0
2.9405,-5.388e-05,0
2.941,-1.2924e-05,0
2.9415,3.7262e-05,0
2.942,8.8121e-05,0
2.9425,0.00010826,0
2.943,8.8289e-05,0
2.9435,5.2705e-05,0
2.944,3.1052e-05,0
2.9445,2.7695e-05,0
2.945,2.5177e-05,0
2.9455,1.6281e-05,0
2.946,1.1246e-05,0
2.9465,1.5946e-05,0
2.947,2.8367e-05,0
2.9475,4.2802e-05,0
2.948,3.7262e-05,0
2.9485,4.8676e-06,0
2.949,-2.7527e-05,0
2.9495,-4.4984e-05,0
2.95,-6.1936e-05,0
2.9505,-8.0064e-05,0
2.951,-8.0735e-05,0
2.9515,-5.8747e-05,0
2.952,-3.2395e-05,0
2.9525,-1.0239e-05,0
2.953,9.5674e-06,0
2.9535,3.1388e-05,0
2.954,5.8915e-05,0
2.9545,0.00010054,0
2.955,0.00015694,0
2.9555,0.00020125,0
2.956,0.00020461,0
2.9565,0.0001556,0
2.957,7.3686e-05,0
2.9575,2.5177e-06,0
2.958,-3.6423e-05,0
2.9585,-5.7908e-05,0
2.959,-8.2918e-05,0
2.9595,-0.0001044,0
2.96,-0.00011833,0
2.9605,-0.00012505,0
2.961,-0.000118,0
2.9615,-8.3421e-05,0
2.962,-2.5345e-05,0
2.9625,3.3738e-05,0
2.963,7.8889e-05,0
2.9635,0.00011968,0
2.964,0.00017842,0
2.9645,0.00024791,0
2.965,0.00028635,0
2.9655,0.00026352,0
2.966,0.0001984,0
2.9665,0.00013344,0
2.967,9.1814e-05,0
2.9675,7.4021e-05,0
2.968,6.5629e-05,0
2.9685,5.7572e-05,0
2.969,5.9419e-05,0
2.9695,7.2343e-05,0
2.97,7.0329e-05,0
2.9705,3.8437e-05,0
2.971,-2.0142e-06,0
2.9715,-3.6088e-05,0
2.972,-6.4286e-05,0
2.9725,-8.0735e-05,0
2.973,-8.426e-05,0
2.9735,-8.6107e-05,0
2.974,-9.366e-05,0
2.9745,-9.6178e-05,0
2.975,-7.9393e-05,0
2.9755,-4.8508e-05,0
2.976,-1.6785e-06,0
2.9765,4.7669e-05,0
2.977,6.7643e-05,0
2.9775,5.623e-05,0
2.978,4.8508e-05,0
2.9785,6.1097e-05,0
2.979,6.8986e-05,0
2.9795,4.8173e-05,0
2.98,1.8967e-05,0
2.9805,-2.8534e-06,0
2.981,-2.5177e-05,0
2.9815,-5.2537e-05,0
2.982,-7.6036e-05,0
2.9825,-8.6946e-05,0
2.983,-7.7378e-05,0
2.9835,-4.2802e-05,0
2.984,-4.8676e-06,0
2.9845,4.5319e-06,0
2.985,-2.2324e-05,0
2.9855,-6.4286e-05,0
2.986,-9.6513e-05,0
2.9865,-0.00012136,0
2.987,-0.00014066,0
2.9875,-0.00014939,0
2.988,-0.00014519,0
2.9885,-0.00012488,0
2.989,-7.9728e-05,0
2.9895,-5.539e-06,0
2.99,8.6107e-05,0
2.9905,0.0001655,0
2.991,0.00020729,0
2.9915,0.00020931,0
2.992,0.00018447,0
2.9925,0.00014183,0
2.993,8.8121e-05,0
2.9935,2.9038e-05,0
2.994,-3.6591e-05,0
2.9945,-0.00011162,0
2.995,-0.00015929,0
2.9955,-0.00013814,0
2.996,-5.9083e-05,0
2.9965,2.7695e-05,0
2.997,7.8386e-05,0
2.9975,8.9464e-05,0
2.998,9.4499e-05,0
2.9985,0.0001274,0
2.999,0.00019319,0
2.9995,0.00027259,0
3,0.0003221,0
3.0005,0.00029525,0
3.001,0.00020293,0
3.0015,0.00012068,0
3.002,9.8192e-05,0
3.0025,0.00010726,0
3.003,9.6345e-05,0
3.0035,5.8915e-05,0
3.004,1.326e-05,0
3.0045,-3.3066e-05,0
3.005,-6.8315e-05,0
3.0055,-8.5603e-05,0
3.006,-8.8121e-05,0
3.0065,-7.8386e-05,0
3.007,-5.3544e-05,0
3.0075,-1.4939e-05,0
3.008,2.5009e-05,0
3.0085,5.5894e-05,0
3.009,9.0471e-05,0
3.0095,0.00013445,0
3.01,0.0001707,0
3.0105,0.00018077,0
3.011,0.00015593,0
3.0115,9.9535e-05,0
3.012,2.266e-05,0
3.0125,-5.7404e-05,0
3.013,-0.00012505,0
3.0135,-0.00017003,0
3.014,-0.00019403,0
3.0145,-0.00020276,0
3.015,-0.00019152,0
3.0155,-0.00015476,0
3.016,-9.6849e-05,0
3.0165,-2.5009e-05,0
3.017,4.8844e-05,0
3.0175,0.00010994,0
3.018,0.00015962,0
3.0185,0.00019319,0
3.019,0.00018766,0
3.0195,0.00013008,0
3.02,5.304e-05,0
3.0205,-3.6927e-06,0
3.021,-3.508e-05,0
3.0215,-4.6998e-05,0
3.022,-4.5151e-05,0
3.0225,-3.0549e-05,0
3.023,-7.7211e-06,0
3.0235,1.3932e-05,0
3.024,2.9374e-05,0
3.0245,3.2059e-05,0
3.025,1.4939e-05,0
3.0255,-1.1582e-05,0
3.026,-3.0045e-05,0
3.0265,-3.4745e-05,0
3.027,-3.0381e-05,0
3.0275,-2.266e-05,0
3.028,-1.2924e-05,0
3.0285,-4.5319e-06,0
3.029,-5.539e-06,0
3.0295,-1.947e-05,0
3.03,-2.9038e-05,0
3.0305,-2.8031e-05,0
3.031,-2.5345e-05,0
3.0315,-2.4506e-05,0
3.032,-2.4002e-05,0
3.0325,-2.3331e-05,0
3.033,-1.8631e-05,0
3.0335,-9.9031e-06,0
3.034,-1.8463e-06,0
3.0345,8.5603e-06,0
3.035,2.031e-05,0
3.0355,2.6352e-05,0
3.036,1.2253e-05,0
3.0365,-2.031e-05,0
3.037,-5.539e-05,0
3.0375,-7.9896e-05,0
3.038,-8.5603e-05,0
3.0385,-6.1936e-05,0
3.039,-1.091e-05,0
3.0395,4.3809e-05,0
3.04,7.6036e-05,0
3.0405,9.1478e-05,0
3.041,0.00011531,0
3.0415,0.00016365,0
3.042,0.00022676,0
3.0425,0.00026537,0
3.043,0.0002407,0
3.0435,0.00016634,0
3.044,8.4932e-05,0
3.0445,3.592e-05,0
3.045,2.6017e-05,0
3.0455,2.7863e-05,0
3.046,1.3932e-05,0
3.0465,-1.7792e-05,0
3.047,-4.7166e-05,0
3.0475,-5.7572e-05,0
3.048,-5.7572e-05,0
3.0485,-5.7404e-05,0
3.049,-5.8579e-05,0
3.0495,-6.4958e-05,0
3.05,-8.5435e-05,0
3.0505,-0.00011313,0
3.051,-0.00012387,0
3.0515,-0.0001138,0
3.052,-9.601e-05,0
3.0525,-7.8889e-05,0
3.053,-5.304e-05,0
3.0535,1.678e-07,0
3.054,6.63e-05,0
3.0545,0.0001326,0
3.055,0.00019655,0
3.0555,0.00024204,0
3.056,0.00024791,0
3.0565,0.00021132,0
3.057,0.00015962,0
3.0575,0.00012287,0
3.058,0.00010105,0
3.0585,8.275e-05,0
3.059,5.9922e-05,0
3.0595,3.8437e-05,0
3.06,3.6759e-05,0
3.0605,5.1194e-05,0
3.061,5.4215e-05,0
3.0615,3.4745e-05,0
3.062,5.539e-06,0
3.0625,-1.3092e-05,0
3.063,-1.7288e-05,0
3.0635,-2.3835e-05,0
3.064,-3.6088e-05,0
3.0645,-4.0116e-05,0
3.065,-3.7766e-05,0
3.0655,-3.5584e-05,0
3.066,-3.508e-05,0
3.0665,-4.1795e-05,0
3.067,-5.5055e-05,0
3.0675,-6.8315e-05,0
3.068,-6.9322e-05,0
3.0685,-5.1362e-05,0
3.069,-2.5009e-05,0
3.0695,2.0142e-06,0
3.07,2.1988e-05,0
3.0705,4.3137e-05,0
3.071,7.1e-05,0
3.0715,9.1646e-05,0
3.072,8.9799e-05,0
3.0725,6.7811e-05,0
3.073,3.0045e-05,0
3.0735,-1.3932e-05,0
3.074,-5.4383e-05,0
3.0745,-8.661e-05,0
3.075,-0.00010256,0
3.0755,-9.6178e-05,0
3.076,-7.6036e-05,0
3.0765,-3.743e-05,0
3.077,1.6281e-05,0
3.0775,5.0858e-05,0
3.078,5.2201e-05,0
