0,0,0
0.0005,0,0
0.001,0,0
0.0015,0,0
0.002,0,0
0.0025,0,0
0.003,0,0
0.0035,0,0
0.004,0,0
0.0045,0,0
0.005,0,0
0.0055,0,0
0.006,0,0
0.0065,0,0
0.007,0,0
0.0075,0,0
0.008,0,0
0.0085,0,0
0.009,0,0
0.0095,0,0
0.01,0,0
0.0105,0,0
0.011,0,0
0.0115,0,0
0.012,0,0
0.0125,0,0
0.013,0,0
0.0135,0,0
0.014,0,0
0.0145,0,0
0.015,0,0
0.0155,0,0
0.016,0,0
0.0165,0,0
0.017,0,0
0.0175,0,0
0.018,0,0
0.0185,0,0
0.019,0,0
0.0195,0,0
0.02,0,0
0.0205,0,0
0.021,0,0
0.0215,0,0
0.022,0,0
0.0225,0,0
0.023,0,0
0.0235,0,0
0.024,0,0
0.0245,0,0
0.025,0,0
0.0255,0,0
0.026,2.6017e-05,0
0.0265,2.5681e-05,0
0.027,2.7527e-05,0
0.0275,3.1052e-05,0
0.028,3.4745e-05,0
0.0285,3.6088e-05,0
0.029,3.2059e-05,0
0.0295,2.8367e-05,0
0.03,2.7359e-05,0
0.0305,2.6352e-05,0
0.031,2.6017e-05,0
0.0315,2.6017e-05,0
0.032,2.6688e-05,0
0.0325,2.4506e-05,0
0.033,2.2324e-05,0
0.0335,2.0142e-05,0
0.034,2.1988e-05,0
0.0345,2.3331e-05,0
0.035,1.9303e-05,0
0.0355,1.326e-05,0
0.036,7.0497e-06,0
0.0365,5.7069e-06,0
0.037,1.091e-05,0
0.0375,1.7288e-05,0
0.038,1.8631e-05,0
0.0385,1.8128e-05,0
0.039,1.5946e-05,0
0.0395,1.4267e-05,0
0.04,1.4603e-05,0
0.0405,1.4267e-05,0
0.041,1.0407e-05,0
0.0415,7.2175e-06,0
0.042,4.3641e-06,0
0.0425,1.1749e-06,0
0.043,3.5248e-06,0
0.0435,6.3783e-06,0
0.044,9.5674e-06,0
0.0445,1.4603e-05,0
0.045,1.4099e-05,0
0.0455,1.2085e-05,0
0.046,1.326e-05,0
0.0465,1.7288e-05,0
0.047,1.9135e-05,0
0.0475,1.5946e-05,0
0.048,1.4603e-05,0
0.0485,1.5946e-05,0
0.049,1.6281e-05,0
0.0495,1.6281e-05,0
0.05,1.6449e-05,0
0.0505,1.7288e-05,0
0.051,1.5946e-05,0
0.0515,1.3596e-05,0
0.052,1.4267e-05,0
0.0525,1.5106e-05,0
0.053,1.5274e-05,0
0.0535,1.6617e-05,0
0.054,1.7288e-05,0
0.0545,2.1988e-05,0
0.055,2.3331e-05,0
0.0555,2.0646e-05,0
0.056,1.9974e-05,0
0.0565,1.7624e-05,0
0.057,1.4603e-05,0
0.0575,1.9638e-05,0
0.058,2.417e-05,0
0.0585,2.2995e-05,0
0.059,2.5345e-05,0
0.0595,2.9374e-05,0
0.06,2.9374e-05,0
0.0605,2.5009e-05,0
0.061,2.2492e-05,0
0.0615,2.4674e-05,0
0.062,2.887e-05,0
0.0625,2.9709e-05,0
0.063,2.9709e-05,0
0.0635,3.0381e-05,0
0.064,2.7527e-05,0
0.0645,2.4002e-05,0
0.065,2.2492e-05,0
0.0655,1.9638e-05,0
0.066,1.6953e-05,0
0.0665,1.5274e-05,0
0.067,1.3932e-05,0
0.0675,1.561e-05,0
0.068,1.5946e-05,0
0.0685,1.3092e-05,0
0.069,1.3932e-05,0
0.0695,1.5778e-05,0
0.07,1.4099e-05,0
0.0705,1.4603e-05,0
0.071,1.4267e-05,0
0.0715,1.1582e-05,0
0.072,9.7353e-06,0
0.0725,1.0575e-05,0
0.073,1.4267e-05,0
0.0735,1.4939e-05,0
0.074,1.3932e-05,0
0.0745,1.4603e-05,0
0.075,1.5274e-05,0
0.0755,1.561e-05,0
0.076,1.5946e-05,0
0.0765,1.796e-05,0
0.077,2.266e-05,0
0.0775,2.5849e-05,0
0.078,2.417e-05,0
0.0785,1.9303e-05,0
0.079,1.7288e-05,0
0.0795,1.8296e-05,0
0.08,1.9638e-05,0
0.0805,2.4002e-05,0
0.081,2.3667e-05,0
0.0815,1.796e-05,0
0.082,1.8631e-05,0
0.0825,2.3163e-05,0
0.083,2.4002e-05,0
0.0835,2.4674e-05,0
0.084,2.5345e-05,0
0.0845,2.6017e-05,0
0.085,2.9206e-05,0
0.0855,3.0716e-05,0
0.086,2.9038e-05,0
0.0865,2.9374e-05,0
0.087,2.8031e-05,0
0.0875,2.4674e-05,0
0.088,2.3667e-05,0
0.0885,2.2156e-05,0
0.089,2.1988e-05,0
0.0895,2.0813e-05,0
0.09,1.796e-05,0
0.0905,1.7288e-05,0
0.091,1.796e-05,0
0.0915,1.8631e-05,0
0.092,2.0981e-05,0
0.0925,2.1317e-05,0
0.093,1.8631e-05,0
0.0935,2.1317e-05,0
0.094,2.2156e-05,0
0.0945,2.0981e-05,0
0.095,1.8967e-05,0
0.0955,1.6617e-05,0
0.096,1.7624e-05,0
0.0965,2.0981e-05,0
0.097,2.0981e-05,0
0.0975,1.8631e-05,0
0.098,1.8463e-05,0
0.0985,1.6617e-05,0
0.099,1.5778e-05,0
0.0995,1.6953e-05,0
0.1,1.6617e-05,0
0.1005,1.1917e-05,0
0.101,1.0239e-05,0
0.1015,1.326e-05,0
0.102,1.5946e-05,0
0.1025,1.6449e-05,0
0.103,1.5946e-05,0
0.1035,1.4771e-05,0
0.104,1.4435e-05,0
0.1045,1.8128e-05,0
0.105,2.031e-05,0
0.1055,1.7288e-05,0
0.106,1.091e-05,0
0.1065,9.9031e-06,0
0.107,1.1246e-05,0
0.1075,1.091e-05,0
0.108,1.1917e-05,0
0.1085,9.7353e-06,0
0.109,7.0497e-06,0
0.1095,1.1582e-05,0
0.11,1.5778e-05,0
0.1105,1.6617e-05,0
0.111,1.9303e-05,0
0.1115,1.9974e-05,0
0.112,2.1317e-05,0
0.1125,2.5345e-05,0
0.113,2.6017e-05,0
0.1135,2.417e-05,0
0.114,2.0646e-05,0
0.1145,1.8463e-05,0
0.115,1.8128e-05,0
0.1155,1.8631e-05,0
0.116,1.7624e-05,0
0.1165,1.7624e-05,0
0.117,1.947e-05,0
0.1175,1.8463e-05,0
0.118,1.4267e-05,0
0.1185,1.326e-05,0
0.119,1.6281e-05,0
0.1195,2.0646e-05,0
0.12,2.1988e-05,0
0.1205,2.0478e-05,0
0.121,2.2492e-05,0
0.1215,2.266e-05,0
0.122,1.9135e-05,0
0.1225,1.9974e-05,0
0.123,1.9974e-05,0
0.1235,1.8631e-05,0
0.124,1.9974e-05,0
0.1245,2.2324e-05,0
0.125,2.2995e-05,0
0.1255,2.1317e-05,0
0.126,1.9638e-05,0
0.1265,1.6617e-05,0
0.127,1.6617e-05,0
0.1275,1.8128e-05,0
0.128,2.1317e-05,0
0.1285,2.4674e-05,0
0.129,2.2324e-05,0
0.1295,1.7624e-05,0
0.13,1.8967e-05,0
0.1305,2.5345e-05,0
0.131,3.0381e-05,0
0.1315,2.7695e-05,0
0.132,2.0646e-05,0
0.1325,1.8128e-05,0
0.133,1.9638e-05,0
0.1335,2.2995e-05,0
0.134,2.8031e-05,0
0.1345,2.7695e-05,0
0.135,2.1149e-05,0
0.1355,2.0981e-05,0
0.136,2.4674e-05,0
0.1365,2.3667e-05,0
0.137,2.182e-05,0
0.1375,2.4002e-05,0
0.138,2.6352e-05,0
0.1385,2.6017e-05,0
0.139,2.2156e-05,0
0.1395,1.9974e-05,0
0.14,2.182e-05,0
0.1405,2.1317e-05,0
0.141,1.7288e-05,0
0.1415,1.7624e-05,0
0.142,1.947e-05,0
0.1425,2.0142e-05,0
0.143,1.9135e-05,0
0.1435,1.5274e-05,0
0.144,1.5946e-05,0
0.1445,1.6953e-05,0
0.145,1.4603e-05,0
0.1455,1.4771e-05,0
0.146,1.4267e-05,0
0.1465,1.2924e-05,0
0.147,1.4939e-05,0
0.1475,1.6281e-05,0
0.148,1.6281e-05,0
0.1485,1.8128e-05,0
0.149,1.796e-05,0
0.1495,1.5946e-05,0
0.15,1.326e-05,0
0.1505,1.4939e-05,0
0.151,1.9135e-05,0
0.1515,2.4674e-05,0
0.152,2.6352e-05,0
0.1525,2.4842e-05,0
0.153,2.3835e-05,0
0.1535,2.4506e-05,0
0.154,2.266e-05,0
0.1545,1.6953e-05,0
0.155,1.4435e-05,0
0.1555,1.4939e-05,0
0.156,1.8967e-05,0
0.1565,2.2156e-05,0
0.157,2.0981e-05,0
0.1575,1.326e-05,0
0.158,7.7211e-06,0
0.1585,1.1414e-05,0
0.159,1.6281e-05,0
0.1595,1.5946e-05,0
0.16,1.6617e-05,0
0.1605,1.7288e-05,0
0.161,1.8967e-05,0
0.1615,2.4842e-05,0
0.162,2.5345e-05,0
0.1625,1.9974e-05,0
0.163,1.8296e-05,0
0.1635,2.0142e-05,0
0.164,2.1988e-05,0
0.1645,2.2156e-05,0
0.165,1.9135e-05,0
0.1655,1.561e-05,0
0.166,1.4939e-05,0
0.1665,1.6953e-05,0
0.167,1.7288e-05,0
0.1675,1.6449e-05,0
0.168,1.8128e-05,0
0.1685,1.796e-05,0
0.169,1.5442e-05,0
0.1695,1.4267e-05,0
0.17,1.5274e-05,0
0.1705,1.3596e-05,0
0.171,5.539e-06,0
0.1715,3.8605e-06,0
0.172,5.539e-06,0
0.1725,3.1891e-06,0
0.173,6.3783e-06,0
0.1735,1.1582e-05,0
0.174,1.2421e-05,0
0.1745,1.4771e-05,0
0.175,1.6281e-05,0
0.1755,1.796e-05,0
0.176,2.3331e-05,0
0.1765,2.8199e-05,0
0.177,2.8702e-05,0
0.1775,2.7695e-05,0
0.178,2.5009e-05,0
0.1785,2.0646e-05,0
0.179,1.9806e-05,0
0.1795,2.2324e-05,0
0.18,2.3331e-05,0
0.1805,2.1317e-05,0
0.181,1.9135e-05,0
0.1815,1.6953e-05,0
0.182,1.6617e-05,0
0.1825,1.7624e-05,0
0.183,1.5946e-05,0
0.1835,1.326e-05,0
0.184,1.326e-05,0
0.1845,1.8967e-05,0
0.185,2.1988e-05,0
0.1855,1.6617e-05,0
0.186,1.6617e-05,0
0.1865,1.9974e-05,0
0.187,2.031e-05,0
0.1875,2.1988e-05,0
0.188,2.3835e-05,0
0.1885,2.4338e-05,0
0.189,2.4506e-05,0
0.1895,2.1317e-05,0
0.19,2.1317e-05,0
0.1905,2.3331e-05,0
0.191,2.2324e-05,0
0.1915,2.182e-05,0
0.192,2.3331e-05,0
0.1925,2.4002e-05,0
0.193,2.3331e-05,0
0.1935,2.2324e-05,0
0.194,2.0981e-05,0
0.1945,2.0981e-05,0
0.195,1.9303e-05,0
0.1955,1.5778e-05,0
0.196,1.2253e-05,0
0.1965,9.7353e-06,0
0.197,9.0639e-06,0
0.1975,1.5274e-05,0
0.198,1.8967e-05,0
0.1985,1.6617e-05,0
0.199,1.6617e-05,0
0.1995,1.7288e-05,0
0.2,2.031e-05,0
0.2005,2.1317e-05,0
0.201,1.8799e-05,0
0.2015,1.796e-05,0
0.202,2.3835e-05,0
0.2025,2.652e-05,0
0.203,2.1317e-05,0
0.2035,1.7288e-05,0
0.204,1.8799e-05,0
0.2045,2.2324e-05,0
0.205,2.4674e-05,0
0.2055,2.4002e-05,0
0.206,2.0813e-05,0
0.2065,1.7792e-05,0
0.207,1.6953e-05,0
0.2075,1.8631e-05,0
0.208,2.1149e-05,0
0.2085,2.0981e-05,0
0.209,1.9303e-05,0
0.2095,1.6449e-05,0
0.21,1.326e-05,0
0.2105,1.6449e-05,0
0.211,1.947e-05,0
0.2115,2.0981e-05,0
0.212,2.4338e-05,0
0.2125,2.6017e-05,0
0.213,2.4506e-05,0
0.2135,2.182e-05,0
0.214,1.796e-05,0
0.2145,1.7792e-05,0
0.215,1.8631e-05,0
0.2155,1.8296e-05,0
0.216,1.7288e-05,0
0.2165,1.8463e-05,0
0.217,1.9974e-05,0
0.2175,2.2324e-05,0
0.218,2.3667e-05,0
0.2185,2.3667e-05,0
0.219,2.1149e-05,0
0.2195,1.796e-05,0
0.22,1.5946e-05,0
0.2205,1.4603e-05,0
0.221,1.7456e-05,0
0.2215,1.9303e-05,0
0.222,1.7121e-05,0
0.2225,1.3596e-05,0
0.223,1.326e-05,0
0.2235,1.796e-05,0
0.224,2.0981e-05,0
0.2245,1.9974e-05,0
0.225,2.3667e-05,0
0.2255,2.6688e-05,0
0.226,2.4338e-05,0
0.2265,2.1988e-05,0
0.227,2.182e-05,0
0.2275,1.9638e-05,0
0.228,1.9303e-05,0
0.2285,2.0478e-05,0
0.229,2.1149e-05,0
0.2295,1.9974e-05,0
0.23,1.7288e-05,0
0.2305,1.4603e-05,0
0.231,1.5274e-05,0
0.2315,1.4771e-05,0
0.232,1.3932e-05,0
0.2325,1.5106e-05,0
0.233,1.6617e-05,0
0.2335,2.1317e-05,0
0.234,2.5177e-05,0
0.2345,2.3331e-05,0
0.235,2.0646e-05,0
0.2355,1.9638e-05,0
0.236,1.9303e-05,0
0.2365,1.796e-05,0
0.237,1.5946e-05,0
0.2375,1.7288e-05,0
0.238,2.1317e-05,0
0.2385,2.2324e-05,0
0.239,1.947e-05,0
0.2395,1.6953e-05,0
0.24,1.4939e-05,0
0.2405,1.326e-05,0
0.241,1.5946e-05,0
0.2415,2.031e-05,0
0.242,2.2156e-05,0
0.2425,2.1988e-05,0
0.243,2.4002e-05,0
0.2435,2.9038e-05,0
0.244,3.1388e-05,0
0.2445,3.0716e-05,0
0.245,2.8031e-05,0
0.2455,2.5009e-05,0
0.246,2.3835e-05,0
0.2465,2.2156e-05,0
0.247,1.8631e-05,0
0.2475,1.8296e-05,0
0.248,2.266e-05,0
0.2485,2.4002e-05,0
0.249,2.2156e-05,0
0.2495,2.1988e-05,0
0.25,1.8631e-05,0
0.2505,1.2924e-05,0
0.251,1.3092e-05,0
0.2515,1.0071e-05,0
0.252,6.8818e-06,0
0.2525,9.7353e-06,0
0.253,8.896e-06,0
0.2535,3.6927e-06,0
0.254,6.3783e-06,0
0.2545,1.2924e-05,0
0.255,1.5778e-05,0
0.2555,1.947e-05,0
0.256,2.3667e-05,0
0.2565,2.3331e-05,0
0.257,2.3835e-05,0
0.2575,2.4002e-05,0
0.258,2.1317e-05,0
0.2585,1.9303e-05,0
0.259,2.1317e-05,0
0.2595,2.2324e-05,0
0.26,1.5946e-05,0
0.2605,1.0071e-05,0
0.261,1.2253e-05,0
0.2615,1.4603e-05,0
0.262,1.561e-05,0
0.2625,2.2492e-05,0
0.263,2.8534e-05,0
0.2635,2.7359e-05,0
0.264,2.4674e-05,0
0.2645,1.9974e-05,0
0.265,1.3932e-05,0
0.2655,1.4435e-05,0
0.266,1.3932e-05,0
0.2665,1.1917e-05,0
0.267,1.6281e-05,0
0.2675,2.2492e-05,0
0.268,1.9974e-05,0
0.2685,1.4939e-05,0
0.269,1.561e-05,0
0.2695,2.2156e-05,0
0.27,2.5513e-05,0
0.2705,2.266e-05,0
0.271,1.9974e-05,0
0.2715,2.1988e-05,0
0.272,2.5009e-05,0
0.2725,2.3835e-05,0
0.273,2.1317e-05,0
0.2735,1.8631e-05,0
0.274,1.6281e-05,0
0.2745,1.5778e-05,0
0.275,1.3932e-05,0
0.2755,1.3764e-05,0
0.276,1.326e-05,0
0.2765,1.1246e-05,0
0.277,1.1582e-05,0
0.2775,1.5274e-05,0
0.278,1.6953e-05,0
0.2785,1.5946e-05,0
0.279,8.5603e-06,0
0.2795,2.3499e-06,0
0.28,6.2104e-06,0
0.2805,1.5274e-05,0
0.281,2.2492e-05,0
0.2815,2.6017e-05,0
0.282,2.6017e-05,0
0.2825,2.182e-05,0
0.283,1.8631e-05,0
0.2835,1.8631e-05,0
0.284,1.8463e-05,0
0.2845,2.031e-05,0
0.285,2.1653e-05,0
0.2855,2.0646e-05,0
0.286,1.6617e-05,0
0.2865,1.3932e-05,0
0.287,1.326e-05,0
0.2875,1.4267e-05,0
0.288,1.7121e-05,0
0.2885,2.0981e-05,0
0.289,2.1988e-05,0
0.2895,2.2156e-05,0
0.29,2.7359e-05,0
0.2905,2.9542e-05,0
0.291,2.5345e-05,0
0.2915,2.3835e-05,0
0.292,2.5681e-05,0
0.2925,2.3499e-05,0
0.293,2.2324e-05,0
0.2935,2.4002e-05,0
0.294,2.2995e-05,0
0.2945,1.8967e-05,0
0.295,1.7624e-05,0
0.2955,2.266e-05,0
0.296,2.7359e-05,0
0.2965,2.9374e-05,0
0.297,2.9206e-05,0
0.2975,2.6017e-05,0
0.298,2.1317e-05,0
0.2985,1.9806e-05,0
0.299,1.9638e-05,0
0.2995,1.6281e-05,0
0.3,1.4603e-05,0
0.3005,1.4939e-05,0
0.301,1.1582e-05,0
0.3015,1.0575e-05,0
0.302,1.091e-05,0
0.3025,1.2924e-05,0
0.303,1.796e-05,0
0.3035,1.9638e-05,0
0.304,1.6617e-05,0
0.3045,1.2421e-05,0
0.305,8.7282e-06,0
0.3055,9.2317e-06,0
0.306,1.3932e-05,0
0.3065,1.8967e-05,0
0.307,1.8967e-05,0
0.3075,1.8296e-05,0
0.308,1.7288e-05,0
0.3085,1.6281e-05,0
0.309,1.5946e-05,0
0.3095,1.796e-05,0
0.31,1.9303e-05,0
0.3105,1.8967e-05,0
0.311,1.6281e-05,0
0.3115,1.5274e-05,0
0.312,1.5274e-05,0
0.3125,1.5274e-05,0
0.313,1.5274e-05,0
0.3135,1.2253e-05,0
0.314,8.5603e-06,0
0.3145,1.0575e-05,0
0.315,1.4603e-05,0
0.3155,1.561e-05,0
0.316,1.796e-05,0
0.3165,2.0813e-05,0
0.317,2.3331e-05,0
0.3175,2.6017e-05,0
0.318,2.3835e-05,0
0.3185,1.6785e-05,0
0.319,1.4939e-05,0
0.3195,1.7624e-05,0
0.32,1.947e-05,0
0.3205,1.947e-05,0
0.321,1.9806e-05,0
0.3215,2.0813e-05,0
0.322,2.266e-05,0
0.3225,2.2995e-05,0
0.323,2.031e-05,0
0.3235,1.7792e-05,0
0.324,1.8631e-05,0
0.3245,2.1317e-05,0
0.325,2.3331e-05,0
0.3255,2.182e-05,0
0.326,2.2156e-05,0
0.3265,2.266e-05,0
0.327,1.8631e-05,0
0.3275,1.8463e-05,0
0.328,2.0478e-05,0
0.3285,2.1988e-05,0
0.329,2.4338e-05,0
0.3295,2.2995e-05,0
0.33,2.1317e-05,0
0.3305,2.266e-05,0
0.331,2.1317e-05,0
0.3315,1.8967e-05,0
0.332,2.266e-05,0
0.3325,2.7192e-05,0
0.333,2.5681e-05,0
0.3335,2.2324e-05,0
0.334,1.9135e-05,0
0.3345,1.6617e-05,0
0.335,1.7121e-05,0
0.3355,1.8463e-05,0
0.336,1.8631e-05,0
0.3365,1.796e-05,0
0.337,1.6617e-05,0
0.3375,1.6617e-05,0
0.338,1.7288e-05,0
0.3385,1.6617e-05,0
0.339,1.6617e-05,0
0.3395,1.561e-05,0
0.34,1.3932e-05,0
0.3405,1.796e-05,0
0.341,1.8967e-05,0
0.3415,1.5946e-05,0
0.342,1.6953e-05,0
0.3425,1.6953e-05,0
0.343,1.4099e-05,0
0.3435,1.4267e-05,0
0.344,1.4603e-05,0
0.3445,1.1246e-05,0
0.345,1.4939e-05,0
0.3455,1.9303e-05,0
0.346,1.9806e-05,0
0.3465,2.4002e-05,0
0.347,2.9038e-05,0
0.3475,2.9038e-05,0
0.348,2.6184e-05,0
0.3485,2.3331e-05,0
0.349,2.3667e-05,0
0.3495,2.3499e-05,0
0.35,2.031e-05,0
0.3505,1.561e-05,0
0.351,1.1917e-05,0
0.3515,1.2589e-05,0
0.352,1.5946e-05,0
0.3525,1.8296e-05,0
0.353,1.6617e-05,0
0.3535,1.6617e-05,0
0.354,1.5946e-05,0
0.3545,1.326e-05,0
0.355,1.5106e-05,0
0.3555,1.9135e-05,0
0.356,2.0813e-05,0
0.3565,1.8296e-05,0
0.357,1.1917e-05,0
0.3575,1.3092e-05,0
0.358,1.9638e-05,0
0.3585,2.1317e-05,0
0.359,1.9974e-05,0
0.3595,2.031e-05,0
0.36,2.0142e-05,0
0.3605,1.8296e-05,0
0.361,1.7792e-05,0
0.3615,1.9303e-05,0
0.362,1.8128e-05,0
0.3625,1.7624e-05,0
0.363,1.5778e-05,0
0.3635,1.1749e-05,0
0.364,9.9031e-06,0
0.3645,9.9031e-06,0
0.365,1.326e-05,0
0.3655,1.4603e-05,0
0.366,1.2253e-05,0
0.3665,1.4099e-05,0
0.367,1.6617e-05,0
0.3675,1.7624e-05,0
0.368,1.8967e-05,0
0.3685,1.8463e-05,0
0.369,1.6953e-05,0
0.3695,1.7288e-05,0
0.37,1.5946e-05,0
0.3705,1.7792e-05,0
0.371,2.3331e-05,0
0.3715,2.3667e-05,0
0.372,2.1317e-05,0
0.3725,1.9806e-05,0
0.373,2.266e-05,0
0.3735,2.6017e-05,0
0.374,2.7359e-05,0
0.3745,2.6688e-05,0
0.375,2.7359e-05,0
0.3755,2.8534e-05,0
0.376,2.7192e-05,0
0.3765,2.5681e-05,0
0.377,2.3835e-05,0
0.3775,2.1988e-05,0
0.378,2.4506e-05,0
0.3785,2.6017e-05,0
0.379,2.4338e-05,0
0.3795,2.6017e-05,0
0.38,2.4674e-05,0
0.3805,2.1317e-05,0
0.381,2.3331e-05,0
0.3815,2.3331e-05,0
0.382,1.9974e-05,0
0.3825,2.1149e-05,0
0.383,2.0981e-05,0
0.3835,1.9638e-05,0
0.384,2.1317e-05,0
0.3845,2.266e-05,0
0.385,2.1317e-05,0
0.3855,2.0646e-05,0
0.386,2.1988e-05,0
0.3865,2.2492e-05,0
0.387,2.0813e-05,0
0.3875,1.9638e-05,0
0.388,1.9974e-05,0
0.3885,1.9974e-05,0
0.389,2.031e-05,0
0.3895,2.1653e-05,0
0.39,2.3331e-05,0
0.3905,2.3163e-05,0
0.391,2.1988e-05,0
0.3915,1.8967e-05,0
0.392,1.561e-05,0
0.3925,1.5778e-05,0
0.393,1.4267e-05,0
0.3935,1.1414e-05,0
0.394,1.5946e-05,0
0.3945,1.9303e-05,0
0.395,1.8296e-05,0
0.3955,1.6617e-05,0
0.396,1.3932e-05,0
0.3965,1.3596e-05,0
0.397,1.4939e-05,0
0.3975,1.6281e-05,0
0.398,1.7288e-05,0
0.3985,1.6617e-05,0
0.399,1.7624e-05,0
0.3995,1.7121e-05,0
0.4,1.6281e-05,0
0.4005,1.8967e-05,0
0.401,2.1988e-05,0
0.4015,2.1317e-05,0
0.402,1.9638e-05,0
0.4025,2.031e-05,0
0.403,2.0646e-05,0
0.4035,1.8967e-05,0
0.404,1.7456e-05,0
0.4045,1.4771e-05,0
0.405,1.1917e-05,0
0.4055,1.0239e-05,0
0.406,1.0575e-05,0
0.4065,1.3596e-05,0
0.407,1.6953e-05,0
0.4075,1.561e-05,0
0.408,1.2924e-05,0
0.4085,1.6953e-05,0
0.409,1.9303e-05,0
0.4095,1.796e-05,0
0.41,1.7121e-05,0
0.4105,1.8463e-05,0
0.411,2.1149e-05,0
0.4115,2.182e-05,0
0.412,2.0646e-05,0
0.4125,2.1988e-05,0
0.413,2.3667e-05,0
0.4135,2.3331e-05,0
0.414,2.1653e-05,0
0.4145,2.1317e-05,0
0.415,2.1988e-05,0
0.4155,2.1317e-05,0
0.416,2.1988e-05,0
0.4165,2.0478e-05,0
0.417,1.9303e-05,0
0.4175,1.947e-05,0
0.418,1.6114e-05,0
0.4185,1.2253e-05,0
0.419,1.1749e-05,0
0.4195,1.1917e-05,0
0.42,1.6281e-05,0
0.4205,1.8631e-05,0
0.421,1.8631e-05,0
0.4215,2.0981e-05,0
0.422,1.8463e-05,0
0.4225,1.6617e-05,0
0.423,2.031e-05,0
0.4235,2.4338e-05,0
0.424,2.4842e-05,0
0.4245,2.3331e-05,0
0.425,2.3331e-05,0
0.4255,2.3331e-05,0
0.426,1.8967e-05,0
0.4265,1.3596e-05,0
0.427,1.3764e-05,0
0.4275,1.6281e-05,0
0.428,1.6785e-05,0
0.4285,1.7288e-05,0
0.429,2.1317e-05,0
0.4295,2.5009e-05,0
0.43,2.4002e-05,0
0.4305,1.9638e-05,0
0.431,1.4435e-05,0
0.4315,1.4603e-05,0
0.432,1.4603e-05,0
0.4325,1.1582e-05,0
0.433,1.4435e-05,0
0.4335,1.9303e-05,0
0.434,2.1317e-05,0
0.4345,2.3331e-05,0
0.435,2.4674e-05,0
0.4355,2.3331e-05,0
0.436,1.9638e-05,0
0.4365,1.9638e-05,0
0.437,2.3163e-05,0
0.4375,2.5345e-05,0
0.438,2.4338e-05,0
0.4385,2.266e-05,0
0.439,2.2156e-05,0
0.4395,2.3331e-05,0
0.44,2.3163e-05,0
0.4405,2.0813e-05,0
0.441,1.8631e-05,0
0.4415,1.8631e-05,0
0.442,1.796e-05,0
0.4425,1.4939e-05,0
0.443,1.2253e-05,0
0.4435,1.1582e-05,0
0.444,9.2317e-06,0
0.4445,7.2175e-06,0
0.445,4.5319e-06,0
0.4455,5.2033e-06,0
0.446,1.2757e-05,0
0.4465,1.4435e-05,0
0.447,1.2253e-05,0
0.4475,1.4099e-05,0
0.448,1.326e-05,0
0.4485,1.0575e-05,0
0.449,1.5778e-05,0
0.4495,1.9974e-05,0
0.45,2.031e-05,0
0.4505,1.6281e-05,0
0.451,1.3596e-05,0
0.4515,1.5106e-05,0
0.452,1.6953e-05,0
0.4525,2.0646e-05,0
0.453,2.0142e-05,0
0.4535,1.7288e-05,0
0.454,1.6281e-05,0
0.4545,1.9806e-05,0
0.455,2.5177e-05,0
0.4555,2.6017e-05,0
0.456,2.1317e-05,0
0.4565,1.6449e-05,0
0.457,1.561e-05,0
0.4575,1.9974e-05,0
0.458,2.182e-05,0
0.4585,2.0981e-05,0
0.459,2.4674e-05,0
0.4595,2.887e-05,0
0.46,2.6688e-05,0
0.4605,2.0981e-05,0
0.461,1.7624e-05,0
0.4615,1.9303e-05,0
0.462,2.1988e-05,0
0.4625,2.182e-05,0
0.463,2.1149e-05,0
0.4635,2.1317e-05,0
0.464,2.0813e-05,0
0.4645,1.8631e-05,0
0.465,1.8296e-05,0
0.4655,2.182e-05,0
0.466,2.5009e-05,0
0.4665,2.5513e-05,0
0.467,2.6184e-05,0
0.4675,2.5513e-05,0
0.468,1.8967e-05,0
0.4685,1.3092e-05,0
0.469,1.561e-05,0
0.4695,1.8631e-05,0
0.47,1.9135e-05,0
0.4705,1.9638e-05,0
0.471,2.0981e-05,0
0.4715,2.0478e-05,0
0.472,2.3163e-05,0
0.4725,2.6352e-05,0
0.473,2.2324e-05,0
0.4735,1.8967e-05,0
0.474,2.031e-05,0
0.4745,2.0813e-05,0
0.475,2.1317e-05,0
0.4755,2.0981e-05,0
0.476,1.7288e-05,0
0.4765,1.4267e-05,0
0.477,1.561e-05,0
0.4775,2.031e-05,0
0.478,2.2492e-05,0
0.4785,2.2828e-05,0
0.479,2.2828e-05,0
0.4795,2.2492e-05,0
0.48,2.1149e-05,0
0.4805,2.2828e-05,0
0.481,2.4842e-05,0
0.4815,2.6017e-05,0
0.482,2.7359e-05,0
0.4825,2.3163e-05,0
0.483,1.561e-05,0
0.4835,1.6449e-05,0
0.484,2.031e-05,0
0.4845,1.9303e-05,0
0.485,2.1317e-05,0
0.4855,2.031e-05,0
0.486,1.4603e-05,0
0.4865,1.0071e-05,0
0.487,7.8889e-06,0
0.4875,7.5532e-06,0
0.488,1.0575e-05,0
0.4885,1.3932e-05,0
0.489,1.5274e-05,0
0.4895,1.8296e-05,0
0.49,2.0142e-05,0
0.4905,1.796e-05,0
0.491,1.7121e-05,0
0.4915,1.9303e-05,0
0.492,2.2492e-05,0
0.4925,2.3667e-05,0
0.493,1.9974e-05,0
0.4935,1.3932e-05,0
0.494,1.326e-05,0
0.4945,1.561e-05,0
0.495,1.3932e-05,0
0.4955,8.2246e-06,0
0.496,5.539e-06,0
0.4965,1.2924e-05,0
0.497,1.8967e-05,0
0.4975,1.4099e-05,0
0.498,1.326e-05,0
0.4985,1.6953e-05,0
0.499,2.0646e-05,0
0.4995,2.1988e-05,0
0.5,1.9638e-05,0
0.5005,1.9806e-05,0
0.501,2.5849e-05,0
0.5015,3.0045e-05,0
0.502,2.652e-05,0
0.5025,2.182e-05,0
0.503,2.4002e-05,0
0.5035,2.7359e-05,0
0.504,2.6688e-05,0
0.5045,2.4002e-05,0
0.505,2.266e-05,0
0.5055,2.2492e-05,0
0.506,2.1988e-05,0
0.5065,2.1317e-05,0
0.507,2.0981e-05,0
0.5075,2.1317e-05,0
0.508,2.0981e-05,0
0.5085,1.5106e-05,0
0.509,9.2317e-06,0
0.5095,1.1917e-05,0
0.51,1.4603e-05,0
0.5105,1.3932e-05,0
0.511,1.5946e-05,0
0.5115,1.5442e-05,0
0.512,1.2253e-05,0
0.5125,1.4435e-05,0
0.513,1.6617e-05,0
0.5135,1.5946e-05,0
0.514,1.6281e-05,0
0.5145,1.796e-05,0
0.515,1.6114e-05,0
0.5155,1.0575e-05,0
0.516,8.3925e-06,0
0.5165,1.0407e-05,0
0.517,1.4435e-05,0
0.5175,1.9974e-05,0
0.518,2.417e-05,0
0.5185,2.5345e-05,0
0.519,2.3499e-05,0
0.5195,1.9638e-05,0
0.52,1.7624e-05,0
0.5205,1.9303e-05,0
0.521,2.266e-05,0
0.5215,2.4002e-05,0
0.522,1.9638e-05,0
0.5225,1.8631e-05,0
0.523,2.2995e-05,0
0.5235,2.6017e-05,0
0.524,2.5681e-05,0
0.5245,2.0981e-05,0
0.525,1.6953e-05,0
0.5255,1.6449e-05,0
0.526,1.5274e-05,0
0.5265,1.5946e-05,0
0.527,1.9806e-05,0
0.5275,1.947e-05,0
0.528,1.5106e-05,0
0.5285,1.4603e-05,0
0.529,1.6617e-05,0
0.5295,1.7624e-05,0
0.53,1.7792e-05,0
0.5305,1.796e-05,0
0.531,1.8463e-05,0
0.5315,2.1317e-05,0
0.532,2.4506e-05,0
0.5325,2.5345e-05,0
0.533,2.266e-05,0
0.5335,2.0142e-05,0
0.534,1.8631e-05,0
0.5345,1.796e-05,0
0.535,1.5106e-05,0
0.5355,1.6617e-05,0
0.536,1.9974e-05,0
0.5365,1.9638e-05,0
0.537,2.0646e-05,0
0.5375,1.9303e-05,0
0.538,1.561e-05,0
0.5385,1.5946e-05,0
0.539,1.7792e-05,0
0.5395,1.7792e-05,0
0.54,1.7792e-05,0
0.5405,2.1317e-05,0
0.541,2.4002e-05,0
0.5415,2.266e-05,0
0.542,1.9974e-05,0
0.5425,1.9974e-05,0
0.543,1.9303e-05,0
0.5435,2.0646e-05,0
0.544,2.4674e-05,0
0.5445,2.6184e-05,0
0.545,2.3331e-05,0
0.5455,1.9974e-05,0
0.546,2.0478e-05,0
0.5465,2.2995e-05,0
0.547,2.5009e-05,0
0.5475,2.1988e-05,0
0.548,1.6617e-05,0
0.5485,1.7792e-05,0
0.549,1.6617e-05,0
0.5495,1.1749e-05,0
0.55,1.2085e-05,0
0.5505,1.326e-05,0
0.551,1.3092e-05,0
0.5515,1.5946e-05,0
0.552,1.7792e-05,0
0.5525,1.7792e-05,0
0.553,2.1149e-05,0
0.5535,2.5849e-05,0
0.554,2.5009e-05,0
0.5545,1.9974e-05,0
0.555,1.4771e-05,0
0.5555,1.1582e-05,0
0.556,1.4603e-05,0
0.5565,1.8967e-05,0
0.557,2.266e-05,0
0.5575,2.182e-05,0
0.558,1.6785e-05,0
0.5585,1.3764e-05,0
0.559,1.4267e-05,0
0.5595,1.5106e-05,0
0.56,1.7288e-05,0
0.5605,2.4002e-05,0
0.561,2.5177e-05,0
0.5615,2.4002e-05,0
0.562,2.0813e-05,0
0.5625,1.7121e-05,0
0.563,1.7288e-05,0
0.5635,1.8128e-05,0
0.564,1.796e-05,0
0.5645,1.8967e-05,0
0.565,2.0646e-05,0
0.5655,2.3163e-05,0
0.566,2.4506e-05,0
0.5665,2.266e-05,0
0.567,1.9638e-05,0
0.5675,1.8799e-05,0
0.568,1.9303e-05,0
0.5685,1.8296e-05,0
0.569,1.9638e-05,0
0.5695,2.4674e-05,0
0.57,2.6017e-05,0
0.5705,2.4002e-05,0
0.571,2.1149e-05,0
0.5715,1.9135e-05,0
0.572,1.796e-05,0
0.5725,1.6281e-05,0
0.573,1.7288e-05,0
0.5735,1.9638e-05,0
0.574,1.9974e-05,0
0.5745,1.9303e-05,0
0.575,1.5106e-05,0
0.5755,1.4435e-05,0
0.576,2.1653e-05,0
0.5765,2.3499e-05,0
0.577,1.8967e-05,0
0.5775,1.6617e-05,0
0.578,1.6281e-05,0
0.5785,1.6617e-05,0
0.579,1.7121e-05,0
0.5795,1.7792e-05,0
0.58,2.0478e-05,0
0.5805,2.417e-05,0
0.581,2.4506e-05,0
0.5815,2.3667e-05,0
0.582,2.182e-05,0
0.5825,1.9303e-05,0
0.583,1.9303e-05,0
0.5835,2.1317e-05,0
0.584,2.3331e-05,0
0.5845,2.4506e-05,0
0.585,2.2995e-05,0
0.5855,1.8967e-05,0
0.586,1.7792e-05,0
0.5865,1.9974e-05,0
0.587,1.7288e-05,0
0.5875,1.6617e-05,0
0.588,1.8128e-05,0
0.5885,1.7288e-05,0
0.589,1.8296e-05,0
0.5895,1.796e-05,0
0.59,1.5778e-05,0
0.5905,1.7624e-05,0
0.591,1.9303e-05,0
0.5915,1.7288e-05,0
0.592,1.8631e-05,0
0.5925,1.9806e-05,0
0.593,1.7792e-05,0
0.5935,1.5946e-05,0
0.594,1.561e-05,0
0.5945,1.8631e-05,0
0.595,1.9638e-05,0
0.5955,1.9303e-05,0
0.596,2.1317e-05,0
0.5965,2.1317e-05,0
0.597,1.9135e-05,0
0.5975,1.7624e-05,0
0.598,1.6617e-05,0
0.5985,1.6953e-05,0
0.599,2.1988e-05,0
0.5995,2.2156e-05,0
0.6,1.5946e-05,0
0.6005,1.4435e-05,0
0.601,1.1917e-05,0
0.6015,7.8889e-06,0
0.602,1.0239e-05,0
0.6025,9.9031e-06,0
0.603,6.3783e-06,0
0.6035,1.0575e-05,0
0.604,1.2253e-05,0
0.6045,6.8818e-06,0
0.605,5.7069e-06,0
0.6055,1.0407e-05,0
0.606,1.3764e-05,0
0.6065,1.3932e-05,0
0.607,1.561e-05,0
0.6075,1.7624e-05,0
0.608,1.6785e-05,0
0.6085,1.3596e-05,0
0.609,1.4603e-05,0
0.6095,1.6785e-05,0
0.61,1.7456e-05,0
0.6105,1.796e-05,0
0.611,1.8296e-05,0
0.6115,2.031e-05,0
0.612,2.031e-05,0
0.6125,1.6617e-05,0
0.613,1.1246e-05,0
0.6135,1.1246e-05,0
0.614,1.1582e-05,0
0.6145,9.9031e-06,0
0.615,1.3596e-05,0
0.6155,1.7792e-05,0
0.616,1.7624e-05,0
0.6165,1.9303e-05,0
0.617,2.1149e-05,0
0.6175,1.9638e-05,0
0.618,2.1317e-05,0
0.6185,2.6688e-05,0
0.619,2.8031e-05,0
0.6195,2.5681e-05,0
0.62,2.3667e-05,0
0.6205,2.3163e-05,0
0.621,2.652e-05,0
0.6215,2.6688e-05,0
0.622,2.5009e-05,0
0.6225,2.6017e-05,0
0.623,2.5009e-05,0
0.6235,2.2828e-05,0
0.624,2.4002e-05,0
0.6245,2.4338e-05,0
0.625,2.182e-05,0
0.6255,2.2324e-05,0
0.626,2.0646e-05,0
0.6265,2.031e-05,0
0.627,2.3331e-05,0
0.6275,2.3331e-05,0
0.628,2.3331e-05,0
0.6285,2.2995e-05,0
0.629,2.1317e-05,0
0.6295,2.1317e-05,0
0.63,1.9806e-05,0
0.6305,1.9303e-05,0
0.631,2.3163e-05,0
0.6315,2.5345e-05,0
0.632,2.5177e-05,0
0.6325,2.0813e-05,0
0.633,1.8296e-05,0
0.6335,1.9638e-05,0
0.634,1.9974e-05,0
0.6345,1.9638e-05,0
0.635,2.266e-05,0
0.6355,2.4002e-05,0
0.636,2.0478e-05,0
0.6365,1.9974e-05,0
0.637,2.1317e-05,0
0.6375,2.1988e-05,0
0.638,2.2995e-05,0
0.6385,2.4002e-05,0
0.639,2.1317e-05,0
0.6395,2.266e-05,0
0.64,2.266e-05,0
0.6405,1.7288e-05,0
0.641,1.7792e-05,0
0.6415,2.0646e-05,0
0.642,1.9806e-05,0
0.6425,1.9974e-05,0
0.643,1.9303e-05,0
0.6435,1.8296e-05,0
0.644,1.9135e-05,0
0.6445,1.7792e-05,0
0.645,1.7624e-05,0
0.6455,2.4002e-05,0
0.646,2.652e-05,0
0.6465,2.2492e-05,0
0.647,1.9303e-05,0
0.6475,1.9638e-05,0
0.648,1.9974e-05,0
0.6485,1.796e-05,0
0.649,1.5778e-05,0
0.6495,1.3596e-05,0
0.65,1.2589e-05,0
0.6505,1.3932e-05,0
0.651,1.326e-05,0
0.6515,1.091e-05,0
0.652,9.0639e-06,0
0.6525,1.2757e-05,0
0.653,1.5106e-05,0
0.6535,1.326e-05,0
0.654,1.3596e-05,0
0.6545,1.6617e-05,0
0.655,1.796e-05,0
0.6555,1.9303e-05,0
0.656,1.6617e-05,0
0.6565,1.4435e-05,0
0.657,1.8128e-05,0
0.6575,2.1317e-05,0
0.658,1.796e-05,0
0.6585,1.796e-05,0
0.659,2.0981e-05,0
0.6595,2.3331e-05,0
0.66,2.3667e-05,0
0.6605,2.5345e-05,0
0.661,2.9374e-05,0
0.6615,2.7359e-05,0
0.662,1.9806e-05,0
0.6625,1.5946e-05,0
0.663,1.6281e-05,0
0.6635,1.4603e-05,0
0.664,1.0407e-05,0
0.6645,4.8676e-06,0
0.665,1.5106e-06,0
0.6655,8.2246e-06,0
0.666,1.4435e-05,0
0.6665,1.6449e-05,0
0.667,1.796e-05,0
0.6675,1.8296e-05,0
0.668,1.9638e-05,0
0.6685,2.3163e-05,0
0.669,2.0646e-05,0
0.6695,9.2317e-06,0
0.67,6.0426e-06,0
0.6705,1.4267e-05,0
0.671,1.9638e-05,0
0.6715,1.9638e-05,0
0.672,1.8967e-05,0
0.6725,1.9638e-05,0
0.673,2.266e-05,0
0.6735,2.5009e-05,0
0.674,2.0646e-05,0
0.6745,1.326e-05,0
0.675,1.4603e-05,0
0.6755,1.8967e-05,0
0.676,1.6281e-05,0
0.6765,1.1917e-05,0
0.677,1.3596e-05,0
0.6775,1.6953e-05,0
0.678,1.9135e-05,0
0.6785,2.3835e-05,0
0.679,2.7024e-05,0
0.6795,2.6352e-05,0
0.68,2.6688e-05,0
0.6805,2.7527e-05,0
0.681,2.652e-05,0
0.6815,2.4674e-05,0
0.682,2.0981e-05,0
0.6825,1.6785e-05,0
0.683,1.5778e-05,0
0.6835,1.8631e-05,0
0.684,2.031e-05,0
0.6845,1.8296e-05,0
0.685,1.8296e-05,0
0.6855,1.7792e-05,0
0.686,1.3596e-05,0
0.6865,1.2924e-05,0
0.687,1.9638e-05,0
0.6875,2.4002e-05,0
0.688,1.8296e-05,0
0.6885,9.5674e-06,0
0.689,7.2175e-06,0
0.6895,9.2317e-06,0
0.69,1.4267e-05,0
0.6905,1.8631e-05,0
0.691,1.7624e-05,0
0.6915,1.8296e-05,0
0.692,1.9638e-05,0
0.6925,1.9303e-05,0
0.693,2.0981e-05,0
0.6935,2.1317e-05,0
0.694,2.0478e-05,0
0.6945,2.1317e-05,0
0.695,2.0646e-05,0
0.6955,2.182e-05,0
0.696,2.6017e-05,0
0.6965,2.8031e-05,0
0.697,2.6017e-05,0
0.6975,2.266e-05,0
0.698,2.0478e-05,0
0.6985,2.0813e-05,0
0.699,2.1149e-05,0
0.6995,2.0813e-05,0
0.7,1.9303e-05,0
0.7005,1.4771e-05,0
0.701,1.3764e-05,0
0.7015,1.6617e-05,0
0.702,2.0478e-05,0
0.7025,2.3163e-05,0
0.703,2.3499e-05,0
0.7035,2.266e-05,0
0.704,1.796e-05,0
0.7045,1.8631e-05,0
0.705,2.4002e-05,0
0.7055,2.6352e-05,0
0.706,2.6017e-05,0
0.7065,2.3163e-05,0
0.707,2.182e-05,0
0.7075,2.4002e-05,0
0.708,2.7695e-05,0
0.7085,2.9542e-05,0
0.709,2.9374e-05,0
0.7095,2.5009e-05,0
0.71,1.8296e-05,0
0.7105,1.7792e-05,0
0.711,1.9303e-05,0
0.7115,1.9806e-05,0
0.712,1.7288e-05,0
0.7125,1.6114e-05,0
0.713,1.8967e-05,0
0.7135,2.0478e-05,0
0.714,1.796e-05,0
0.7145,1.5946e-05,0
0.715,1.4939e-05,0
0.7155,1.4939e-05,0
0.716,1.8631e-05,0
0.7165,2.1653e-05,0
0.717,1.8296e-05,0
0.7175,1.6281e-05,0
0.718,1.5946e-05,0
0.7185,1.9806e-05,0
0.719,2.4002e-05,0
0.7195,1.9135e-05,0
0.72,1.1246e-05,0
0.7205,1.2589e-05,0
0.721,1.3092e-05,0
0.7215,1.1917e-05,0
0.722,1.4603e-05,0
0.7225,1.326e-05,0
0.723,9.5674e-06,0
0.7235,9.5674e-06,0
0.724,1.4603e-05,0
0.7245,2.1988e-05,0
0.725,2.4674e-05,0
0.7255,2.1317e-05,0
0.726,1.8631e-05,0
0.7265,1.9638e-05,0
0.727,1.9638e-05,0
0.7275,1.9974e-05,0
0.728,2.1317e-05,0
0.7285,2.2995e-05,0
0.729,2.2828e-05,0
0.7295,1.9974e-05,0
0.73,1.7288e-05,0
0.7305,1.9974e-05,0
0.731,2.1149e-05,0
0.7315,2.0646e-05,0
0.732,2.5009e-05,0
0.7325,2.5513e-05,0
0.733,2.4002e-05,0
0.7335,2.4506e-05,0
0.734,2.0981e-05,0
0.7345,1.8296e-05,0
0.735,2.0981e-05,0
0.7355,1.9806e-05,0
0.736,1.5778e-05,0
0.7365,1.3764e-05,0
0.737,1.4603e-05,0
0.7375,1.8128e-05,0
0.738,2.0646e-05,0
0.7385,1.9638e-05,0
0.739,1.6617e-05,0
0.7395,1.4603e-05,0
0.74,1.4435e-05,0
0.7405,1.5946e-05,0
0.741,1.8463e-05,0
0.7415,1.947e-05,0
0.742,1.7121e-05,0
0.7425,1.2589e-05,0
0.743,9.2317e-06,0
0.7435,1.1917e-05,0
0.744,1.5274e-05,0
0.7445,1.561e-05,0
0.745,1.5946e-05,0
0.7455,1.326e-05,0
0.746,1.0575e-05,0
0.7465,1.7288e-05,0
0.747,2.3331e-05,0
0.7475,2.3331e-05,0
0.748,2.1149e-05,0
0.7485,2.2156e-05,0
0.749,2.1988e-05,0
0.7495,2.1317e-05,0
0.75,2.266e-05,0
0.7505,2.1988e-05,0
0.751,2.0478e-05,0
0.7515,2.2995e-05,0
0.752,2.4002e-05,0
0.7525,2.2492e-05,0
0.753,2.4338e-05,0
0.7535,2.5345e-05,0
0.754,2.6017e-05,0
0.7545,2.652e-05,0
0.755,2.4002e-05,0
0.7555,2.0646e-05,0
0.756,1.8128e-05,0
0.7565,2.031e-05,0
0.757,2.3331e-05,0
0.7575,2.5681e-05,0
0.758,3.0716e-05,0
0.7585,3.0716e-05,0
0.759,2.6688e-05,0
0.7595,2.5345e-05,0
0.76,2.4674e-05,0
0.7605,2.5177e-05,0
0.761,2.8031e-05,0
0.7615,3.2059e-05,0
0.762,2.9877e-05,0
0.7625,2.6017e-05,0
0.763,2.3835e-05,0
0.7635,2.266e-05,0
0.764,2.0478e-05,0
0.7645,1.7792e-05,0
0.765,1.6617e-05,0
0.7655,1.7288e-05,0
0.766,1.6953e-05,0
0.7665,1.326e-05,0
0.767,1.1749e-05,0
0.7675,1.3932e-05,0
0.768,1.561e-05,0
0.7685,1.4603e-05,0
0.769,1.1582e-05,0
0.7695,1.1582e-05,0
0.77,1.4939e-05,0
0.7705,1.5442e-05,0
0.771,1.5946e-05,0
0.7715,1.7121e-05,0
0.772,1.4603e-05,0
0.7725,1.1917e-05,0
0.773,9.9031e-06,0
0.7735,1.2085e-05,0
0.774,1.7792e-05,0
0.7745,2.0646e-05,0
0.775,1.7792e-05,0
0.7755,1.2757e-05,0
0.776,1.0239e-05,0
0.7765,9.9031e-06,0
0.777,1.2253e-05,0
0.7775,1.7121e-05,0
0.778,2.031e-05,0
0.7785,1.5946e-05,0
0.779,1.0239e-05,0
0.7795,9.2317e-06,0
0.78,1.1917e-05,0
0.7805,1.5778e-05,0
0.781,1.947e-05,0
0.7815,1.8631e-05,0
0.782,1.2253e-05,0
0.7825,9.0639e-06,0
0.783,8.5603e-06,0
0.7835,1.0575e-05,0
0.784,1.6114e-05,0
0.7845,1.7456e-05,0
0.785,1.5946e-05,0
0.7855,1.947e-05,0
0.786,2.4002e-05,0
0.7865,2.1317e-05,0
0.787,1.8967e-05,0
0.7875,2.2324e-05,0
0.788,2.6688e-05,0
0.7885,2.7695e-05,0
0.789,2.7024e-05,0
0.7895,2.7359e-05,0
0.79,2.5849e-05,0
0.7905,2.1988e-05,0
0.791,1.8463e-05,0
0.7915,2.2324e-05,0
0.792,2.8534e-05,0
0.7925,2.7527e-05,0
0.793,2.266e-05,0
0.7935,1.8967e-05,0
0.794,1.9135e-05,0
0.7945,1.9974e-05,0
0.795,1.9638e-05,0
0.7955,1.9303e-05,0
0.796,1.6953e-05,0
0.7965,1.2924e-05,0
0.797,1.4603e-05,0
0.7975,1.796e-05,0
0.798,2.031e-05,0
0.7985,2.3835e-05,0
0.799,2.4506e-05,0
0.7995,2.1317e-05,0
0.8,1.7121e-05,0
0.8005,1.5946e-05,0
0.801,1.326e-05,0
0.8015,1.1917e-05,0
0.802,1.1917e-05,0
0.8025,1.2253e-05,0
0.803,1.326e-05,0
0.8035,1.4771e-05,0
0.804,1.4267e-05,0
0.8045,1.3764e-05,0
0.805,1.5946e-05,0
0.8055,1.6953e-05,0
0.806,1.9638e-05,0
0.8065,2.1317e-05,0
0.807,1.7624e-05,0
0.8075,1.2589e-05,0
0.808,1.1246e-05,0
0.8085,1.6953e-05,0
0.809,1.9974e-05,0
0.8095,1.8967e-05,0
0.81,1.9303e-05,0
0.8105,1.8799e-05,0
0.811,1.9303e-05,0
0.8115,2.2324e-05,0
0.812,2.0981e-05,0
0.8125,1.5946e-05,0
0.813,1.326e-05,0
0.8135,1.4603e-05,0
0.814,1.9974e-05,0
0.8145,2.2324e-05,0
0.815,1.8631e-05,0
0.8155,1.7792e-05,0
0.816,1.9303e-05,0
0.8165,2.031e-05,0
0.817,1.9638e-05,0
0.8175,2.0478e-05,0
0.818,2.1317e-05,0
0.8185,1.8128e-05,0
0.819,1.3932e-05,0
0.8195,1.0239e-05,0
0.82,9.2317e-06,0
0.8205,1.1246e-05,0
0.821,1.1917e-05,0
0.8215,1.4267e-05,0
0.822,1.3932e-05,0
0.8225,1.1078e-05,0
0.823,1.2253e-05,0
0.8235,1.4603e-05,0
0.824,1.5442e-05,0
0.8245,1.4939e-05,0
0.825,1.3932e-05,0
0.8255,1.561e-05,0
0.826,2.0478e-05,0
0.8265,2.2492e-05,0
0.827,2.1988e-05,0
0.8275,2.182e-05,0
0.828,2.7192e-05,0
0.8285,3.0716e-05,0
0.829,2.9206e-05,0
0.8295,2.6184e-05,0
0.83,2.6017e-05,0
0.8305,2.6688e-05,0
0.831,2.5681e-05,0
0.8315,2.3331e-05,0
0.832,2.1317e-05,0
0.8325,2.2156e-05,0
0.833,2.5681e-05,0
0.8335,2.4674e-05,0
0.834,1.6449e-05,0
0.8345,1.0407e-05,0
0.835,1.0407e-05,0
0.8355,1.3596e-05,0
0.836,1.7288e-05,0
0.8365,1.4267e-05,0
0.837,1.0575e-05,0
0.8375,1.4099e-05,0
0.838,1.8296e-05,0
0.8385,1.8631e-05,0
0.839,1.8631e-05,0
0.8395,1.7624e-05,0
0.84,1.4939e-05,0
0.8405,1.3764e-05,0
0.841,1.4939e-05,0
0.8415,1.6785e-05,0
0.842,1.5274e-05,0
0.8425,1.3932e-05,0
0.843,1.4603e-05,0
0.8435,1.561e-05,0
0.844,1.6617e-05,0
0.8445,2.0981e-05,0
0.845,2.182e-05,0
0.8455,2.0813e-05,0
0.846,2.0478e-05,0
0.8465,1.9974e-05,0
0.847,1.8967e-05,0
0.8475,2.1988e-05,0
0.848,2.3331e-05,0
0.8485,2.1317e-05,0
0.849,2.2492e-05,0
0.8495,2.1149e-05,0
0.85,1.8631e-05,0
0.8505,2.0646e-05,0
0.851,2.0646e-05,0
0.8515,1.6617e-05,0
0.852,2.0646e-05,0
0.8525,2.5681e-05,0
0.853,2.5009e-05,0
0.8535,2.3331e-05,0
0.854,2.3667e-05,0
0.8545,2.3667e-05,0
0.855,2.3835e-05,0
0.8555,2.3835e-05,0
0.856,2.4674e-05,0
0.8565,2.5345e-05,0
0.857,2.5177e-05,0
0.8575,2.4674e-05,0
0.858,2.1988e-05,0
0.8585,1.8296e-05,0
0.859,1.8463e-05,0
0.8595,1.796e-05,0
0.86,1.7792e-05,0
0.8605,2.266e-05,0
0.861,2.3667e-05,0
0.8615,1.9974e-05,0
0.862,1.7792e-05,0
0.8625,1.8296e-05,0
0.863,2.1485e-05,0
0.8635,2.4506e-05,0
0.864,2.1317e-05,0
0.8645,1.4435e-05,0
0.865,1.0575e-05,0
0.8655,9.0639e-06,0
0.866,9.0639e-06,0
0.8665,1.1246e-05,0
0.867,1.5946e-05,0
0.8675,1.8631e-05,0
0.868,2.0981e-05,0
0.8685,2.031e-05,0
0.869,1.8463e-05,0
0.8695,2.1317e-05,0
0.87,2.3331e-05,0
0.8705,2.0813e-05,0
0.871,1.9135e-05,0
0.8715,1.8631e-05,0
0.872,1.7288e-05,0
0.8725,1.5274e-05,0
0.873,1.1917e-05,0
0.8735,1.326e-05,0
0.874,1.4099e-05,0
0.8745,1.0575e-05,0
0.875,1.2421e-05,0
0.8755,1.6281e-05,0
0.876,1.7121e-05,0
0.8765,1.6953e-05,0
0.877,1.5274e-05,0
0.8775,1.326e-05,0
0.878,1.561e-05,0
0.8785,2.031e-05,0
0.879,2.182e-05,0
0.8795,1.9303e-05,0
0.88,2.031e-05,0
0.8805,2.4002e-05,0
0.881,2.4674e-05,0
0.8815,2.0646e-05,0
0.882,1.947e-05,0
0.8825,2.0646e-05,0
0.883,1.6617e-05,0
0.8835,1.1246e-05,0
0.884,1.2253e-05,0
0.8845,1.6281e-05,0
0.885,1.7624e-05,0
0.8855,1.6953e-05,0
0.886,1.2589e-05,0
0.8865,1.2924e-05,0
0.887,1.4267e-05,0
0.8875,1.5274e-05,0
0.888,1.8631e-05,0
0.8885,2.0142e-05,0
0.889,1.8631e-05,0
0.8895,2.0981e-05,0
0.89,2.1317e-05,0
0.8905,1.9303e-05,0
0.891,2.266e-05,0
0.8915,2.9038e-05,0
0.892,3.4409e-05,0
0.8925,3.4745e-05,0
0.893,3.3402e-05,0
0.8935,3.2731e-05,0
0.894,3.2059e-05,0
0.8945,3.1891e-05,0
0.895,2.9374e-05,0
0.8955,2.7024e-05,0
0.896,2.7024e-05,0
0.8965,2.7024e-05,0
0.897,2.7359e-05,0
0.8975,2.9374e-05,0
0.898,2.8534e-05,0
0.8985,2.4506e-05,0
0.899,1.8631e-05,0
0.8995,1.7288e-05,0
0.9,1.5946e-05,0
0.9005,1.0575e-05,0
0.901,1.0575e-05,0
0.9015,1.326e-05,0
0.902,1.326e-05,0
0.9025,1.6785e-05,0
0.903,2.031e-05,0
0.9035,1.796e-05,0
0.904,1.2253e-05,0
0.9045,9.2317e-06,0
0.905,1.0575e-05,0
0.9055,1.4099e-05,0
0.906,1.5946e-05,0
0.9065,1.796e-05,0
0.907,1.9303e-05,0
0.9075,2.0813e-05,0
0.908,1.9638e-05,0
0.9085,1.8296e-05,0
0.909,1.8631e-05,0
0.9095,1.6281e-05,0
0.91,1.1246e-05,0
0.9105,8.5603e-06,0
0.911,1.091e-05,0
0.9115,1.2589e-05,0
0.912,9.5674e-06,0
0.9125,1.0239e-05,0
0.913,1.2253e-05,0
0.9135,1.3764e-05,0
0.914,1.796e-05,0
0.9145,1.6617e-05,0
0.915,1.1917e-05,0
0.9155,9.0639e-06,0
0.916,9.5674e-06,0
0.9165,1.1414e-05,0
0.917,1.4099e-05,0
0.9175,1.561e-05,0
0.918,1.6281e-05,0
0.9185,1.7288e-05,0
0.919,1.8967e-05,0
0.9195,2.0646e-05,0
0.92,2.0646e-05,0
0.9205,2.1149e-05,0
0.921,2.1149e-05,0
0.9215,1.5946e-05,0
0.922,1.091e-05,0
0.9225,1.1078e-05,0
0.923,1.4939e-05,0
0.9235,1.7288e-05,0
0.924,1.561e-05,0
0.9245,1.4603e-05,0
0.925,1.326e-05,0
0.9255,1.4435e-05,0
0.926,1.5946e-05,0
0.9265,1.5946e-05,0
0.927,1.796e-05,0
0.9275,1.8631e-05,0
0.928,1.796e-05,0
0.9285,2.3331e-05,0
0.929,2.5513e-05,0
0.9295,2.3163e-05,0
0.93,2.4338e-05,0
0.9305,2.7527e-05,0
0.931,2.8702e-05,0
0.9315,2.7863e-05,0
0.932,2.8367e-05,0
0.9325,3.1388e-05,0
0.933,3.0716e-05,0
0.9335,2.6017e-05,0
0.934,2.5345e-05,0
0.9345,2.7359e-05,0
0.935,2.7863e-05,0
0.9355,2.7024e-05,0
0.936,2.5345e-05,0
0.9365,2.0142e-05,0
0.937,1.6617e-05,0
0.9375,1.6449e-05,0
0.938,1.6953e-05,0
0.9385,1.7121e-05,0
0.939,1.561e-05,0
0.9395,1.6449e-05,0
0.94,1.8967e-05,0
0.9405,2.1317e-05,0
0.941,2.266e-05,0
0.9415,2.266e-05,0
0.942,2.0981e-05,0
0.9425,1.9974e-05,0
0.943,2.2324e-05,0
0.9435,2.3163e-05,0
0.944,2.1653e-05,0
0.9445,2.0646e-05,0
0.945,1.6953e-05,0
0.9455,1.1917e-05,0
0.946,1.1078e-05,0
0.9465,1.561e-05,0
0.947,2.2156e-05,0
0.9475,2.7024e-05,0
0.948,2.8031e-05,0
0.9485,2.5009e-05,0
0.949,2.1317e-05,0
0.9495,1.9974e-05,0
0.95,2.1317e-05,0
0.9505,2.2492e-05,0
0.951,1.9638e-05,0
0.9515,1.8631e-05,0
0.952,1.5778e-05,0
0.9525,1.2757e-05,0
0.953,1.561e-05,0
0.9535,1.8296e-05,0
0.954,1.7456e-05,0
0.9545,1.7624e-05,0
0.955,1.5946e-05,0
0.9555,1.4771e-05,0
0.956,1.6449e-05,0
0.9565,1.7792e-05,0
0.957,1.7792e-05,0
0.9575,1.5946e-05,0
0.958,1.4771e-05,0
0.9585,1.4603e-05,0
0.959,1.326e-05,0
0.9595,1.326e-05,0
0.96,1.4267e-05,0
0.9605,1.4939e-05,0
0.961,1.5946e-05,0
0.9615,1.6617e-05,0
0.962,1.5106e-05,0
0.9625,1.561e-05,0
0.963,1.9303e-05,0
0.9635,2.0981e-05,0
0.964,1.8631e-05,0
0.9645,1.9974e-05,0
0.965,2.182e-05,0
0.9655,2.0646e-05,0
0.966,1.8967e-05,0
0.9665,1.6617e-05,0
0.967,1.6281e-05,0
0.9675,1.9974e-05,0
0.968,2.266e-05,0
0.9685,2.2324e-05,0
0.969,2.0813e-05,0
0.9695,1.9135e-05,0
0.97,1.7624e-05,0
0.9705,1.9135e-05,0
0.971,2.266e-05,0
0.9715,2.1317e-05,0
0.972,1.8128e-05,0
0.9725,1.6617e-05,0
0.973,1.5946e-05,0
0.9735,1.796e-05,0
0.974,1.9303e-05,0
0.9745,1.7792e-05,0
0.975,1.561e-05,0
0.9755,1.5274e-05,0
0.976,1.6617e-05,0
0.9765,1.7288e-05,0
0.977,1.6617e-05,0
0.9775,1.6785e-05,0
0.978,1.5946e-05,0
0.9785,1.8967e-05,0
0.979,2.3667e-05,0
0.9795,2.0142e-05,0
0.98,1.561e-05,0
0.9805,1.7624e-05,0
0.981,1.9974e-05,0
0.9815,1.8799e-05,0
0.982,1.5946e-05,0
0.9825,1.6449e-05,0
0.983,2.031e-05,0
0.9835,2.3331e-05,0
0.984,2.1317e-05,0
0.9845,1.6953e-05,0
0.985,1.326e-05,0
0.9855,1.3428e-05,0
0.986,1.4603e-05,0
0.9865,1.6617e-05,0
0.987,1.8799e-05,0
0.9875,1.947e-05,0
0.988,1.7624e-05,0
0.9885,1.561e-05,0
0.989,1.4603e-05,0
0.9895,1.2757e-05,0
0.99,1.2924e-05,0
0.9905,1.7288e-05,0
0.991,2.0981e-05,0
0.9915,2.0981e-05,0
0.992,2.1317e-05,0
0.9925,2.2492e-05,0
0.993,2.0646e-05,0
0.9935,1.9974e-05,0
0.994,1.9974e-05,0
0.9945,2.0981e-05,0
0.995,2.4674e-05,0
0.9955,2.7359e-05,0
0.996,2.7359e-05,0
0.9965,2.4002e-05,0
0.997,2.1317e-05,0
0.9975,2.0813e-05,0
0.998,2.1317e-05,0
0.9985,2.031e-05,0
0.999,2.1317e-05,0
0.9995,2.5009e-05,0
1,2.3667e-05,0
1.0005,2.2828e-05,0
1.001,2.4674e-05,0
1.0015,2.5345e-05,0
1.002,2.5177e-05,0
1.0025,2.4674e-05,0
1.003,2.1988e-05,0
1.0035,2.4002e-05,0
1.004,2.4506e-05,0
1.0045,2.1988e-05,0
1.005,2.266e-05,0
1.0055,2.2324e-05,0
1.006,1.7624e-05,0
1.0065,1.4939e-05,0
1.007,1.1749e-05,0
1.0075,8.5603e-06,0
1.008,1.1749e-05,0
1.0085,1.7624e-05,0
1.009,2.1988e-05,0
1.0095,2.2156e-05,0
1.01,2.2995e-05,0
1.0105,2.3163e-05,0
1.011,2.0813e-05,0
1.0115,1.7624e-05,0
1.012,1.7288e-05,0
1.0125,1.947e-05,0
1.013,1.8296e-05,0
1.0135,1.3596e-05,0
1.014,1.1917e-05,0
1.0145,1.2253e-05,0
1.015,1.3932e-05,0
1.0155,1.2421e-05,0
1.016,1.0575e-05,0
1.0165,1.2924e-05,0
1.017,1.326e-05,0
1.0175,1.2253e-05,0
1.018,1.6281e-05,0
1.0185,1.9303e-05,0
1.019,1.8799e-05,0
1.0195,2.266e-05,0
1.02,2.4338e-05,0
1.0205,2.1317e-05,0
1.021,2.2492e-05,0
1.0215,2.4002e-05,0
1.022,2.2324e-05,0
1.0225,1.9303e-05,0
1.023,1.8631e-05,0
1.0235,2.1653e-05,0
1.024,2.1317e-05,0
1.0245,1.6281e-05,0
1.025,1.4435e-05,0
1.0255,2.1317e-05,0
1.026,2.9038e-05,0
1.0265,3.0381e-05,0
1.027,2.7359e-05,0
1.0275,2.1317e-05,0
1.028,1.7624e-05,0
1.0285,1.5442e-05,0
1.029,1.0575e-05,0
1.0295,1.2253e-05,0
1.03,1.7288e-05,0
1.0305,2.0478e-05,0
1.031,2.2324e-05,0
1.0315,2.2156e-05,0
1.032,1.9806e-05,0
1.0325,2.0478e-05,0
1.033,1.8631e-05,0
1.0335,1.5274e-05,0
1.034,1.5274e-05,0
1.0345,1.9303e-05,0
1.035,2.2324e-05,0
1.0355,1.9974e-05,0
1.036,1.5274e-05,0
1.0365,1.3092e-05,0
1.037,1.2924e-05,0
1.0375,1.1749e-05,0
1.038,1.4267e-05,0
1.0385,1.4939e-05,0
1.039,1.1917e-05,0
1.0395,1.4939e-05,0
1.04,2.1317e-05,0
1.0405,2.2995e-05,0
1.041,2.1317e-05,0
1.0415,1.6785e-05,0
1.042,1.4099e-05,0
1.0425,1.8631e-05,0
1.043,2.182e-05,0
1.0435,2.1317e-05,0
1.044,2.0981e-05,0
1.0445,1.796e-05,0
1.045,1.4939e-05,0
1.0455,1.7792e-05,0
1.046,1.9135e-05,0
1.0465,1.6281e-05,0
1.047,1.561e-05,0
1.0475,1.6953e-05,0
1.048,1.8967e-05,0
1.0485,1.9638e-05,0
1.049,1.6281e-05,0
1.0495,1.1246e-05,0
1.05,1.1246e-05,0
1.0505,1.561e-05,0
1.051,2.0142e-05,0
1.0515,2.2156e-05,0
1.052,2.1988e-05,0
1.0525,2.3331e-05,0
1.053,2.5345e-05,0
1.0535,2.5345e-05,0
1.054,2.2492e-05,0
1.0545,1.7288e-05,0
1.055,1.3596e-05,0
1.0555,1.7792e-05,0
1.056,2.031e-05,0
1.0565,2.1317e-05,0
1.057,2.266e-05,0
1.0575,2.031e-05,0
1.058,1.9638e-05,0
1.0585,2.1988e-05,0
1.059,2.0981e-05,0
1.0595,1.6617e-05,0
1.06,1.5778e-05,0
1.0605,2.2324e-05,0
1.061,2.6688e-05,0
1.0615,2.2492e-05,0
1.062,1.7624e-05,0
1.0625,2.0478e-05,0
1.063,2.1988e-05,0
1.0635,1.8631e-05,0
1.064,1.796e-05,0
1.0645,1.9303e-05,0
1.065,1.9135e-05,0
1.0655,1.9806e-05,0
1.066,1.9638e-05,0
1.0665,1.6785e-05,0
1.067,1.5274e-05,0
1.0675,1.8631e-05,0
1.068,1.9135e-05,0
1.0685,1.7288e-05,0
1.069,1.5778e-05,0
1.0695,1.4939e-05,0
1.07,1.6281e-05,0
1.0705,1.561e-05,0
1.071,1.2253e-05,0
1.0715,1.326e-05,0
1.072,1.4603e-05,0
1.0725,1.2589e-05,0
1.073,1.2757e-05,0
1.0735,2.1988e-05,0
1.074,3.0045e-05,0
1.0745,2.6017e-05,0
1.075,1.9638e-05,0
1.0755,1.9638e-05,0
1.076,2.4002e-05,0
1.0765,2.3835e-05,0
1.077,1.7624e-05,0
1.0775,1.1246e-05,0
1.078,1.1749e-05,0
1.0785,1.4939e-05,0
1.079,1.561e-05,0
1.0795,1.7288e-05,0
1.08,1.947e-05,0
1.0805,1.7624e-05,0
1.081,1.4603e-05,0
1.0815,1.7288e-05,0
1.082,1.9638e-05,0
1.0825,1.9974e-05,0
1.083,2.3331e-05,0
1.0835,2.3835e-05,0
1.084,2.1653e-05,0
1.0845,2.4674e-05,0
1.085,2.4338e-05,0
1.0855,2.0646e-05,0
1.086,2.2156e-05,0
1.0865,2.3499e-05,0
1.087,2.1149e-05,0
1.0875,1.8463e-05,0
1.088,2.031e-05,0
1.0885,2.0981e-05,0
1.089,1.796e-05,0
1.0895,1.6953e-05,0
1.09,1.7121e-05,0
1.0905,1.9806e-05,0
1.091,2.1988e-05,0
1.0915,2.1317e-05,0
1.092,2.0142e-05,0
1.0925,1.796e-05,0
1.093,1.7288e-05,0
1.0935,1.9638e-05,0
1.094,2.0478e-05,0
1.0945,2.1149e-05,0
1.095,2.2324e-05,0
1.0955,2.1653e-05,0
1.096,2.2492e-05,0
1.0965,1.9974e-05,0
1.097,1.4603e-05,0
1.0975,1.7288e-05,0
1.098,1.6617e-05,0
1.0985,1.2421e-05,0
1.099,1.1414e-05,0
1.0995,1.2421e-05,0
1.1,1.3932e-05,0
1.1005,1.4603e-05,0
1.101,1.6281e-05,0
1.1015,2.4002e-05,0
1.102,2.6184e-05,0
1.1025,1.9974e-05,0
1.103,1.3932e-05,0
1.1035,1.7121e-05,0
1.104,2.031e-05,0
1.1045,1.8967e-05,0
1.105,1.4267e-05,0
1.1055,1.0407e-05,0
1.106,1.091e-05,0
1.1065,9.3996e-06,0
1.107,1.1246e-05,0
1.1075,1.8967e-05,0
1.108,2.0813e-05,0
1.1085,1.6785e-05,0
1.109,1.6785e-05,0
1.1095,1.9806e-05,0
1.11,2.2324e-05,0
1.1105,2.3163e-05,0
1.111,2.4002e-05,0
1.1115,2.3835e-05,0
1.112,2.5345e-05,0
1.1125,2.7527e-05,0
1.113,2.7359e-05,0
1.1135,2.5345e-05,0
1.114,2.3331e-05,0
1.1145,2.2492e-05,0
1.115,2.1653e-05,0
1.1155,2.0646e-05,0
1.116,2.1149e-05,0
1.1165,1.9806e-05,0
1.117,1.8463e-05,0
1.1175,1.8463e-05,0
1.118,1.796e-05,0
1.1185,1.6449e-05,0
1.119,1.7121e-05,0
1.1195,1.7288e-05,0
1.12,1.4939e-05,0
1.1205,1.5778e-05,0
1.121,1.8967e-05,0
1.1215,2.2995e-05,0
1.122,3.0381e-05,0
1.1225,3.2731e-05,0
1.123,2.8199e-05,0
1.1235,2.5009e-05,0
1.124,2.1317e-05,0
1.1245,1.7456e-05,0
1.125,1.7288e-05,0
1.1255,2.0478e-05,0
1.126,2.4338e-05,0
1.1265,2.4842e-05,0
1.127,2.031e-05,0
1.1275,1.8967e-05,0
1.128,2.0981e-05,0
1.1285,2.2828e-05,0
1.129,2.266e-05,0
1.1295,1.8296e-05,0
1.13,1.3596e-05,0
1.1305,1.1582e-05,0
1.131,1.2421e-05,0
1.1315,1.2589e-05,0
1.132,1.1582e-05,0
1.1325,1.1917e-05,0
1.133,9.5674e-06,0
1.1335,1.1414e-05,0
1.134,1.1078e-05,0
1.1345,8.5603e-06,0
1.135,1.3092e-05,0
1.1355,1.796e-05,0
1.136,1.3932e-05,0
1.1365,9.9031e-06,0
1.137,1.326e-05,0
1.1375,1.6617e-05,0
1.138,2.0646e-05,0
1.1385,2.6688e-05,0
1.139,2.9877e-05,0
1.1395,3.0716e-05,0
1.14,2.5009e-05,0
1.1405,1.5946e-05,0
1.141,1.5106e-05,0
1.1415,2.0981e-05,0
1.142,2.3667e-05,0
1.1425,2.266e-05,0
1.143,2.1988e-05,0
1.1435,2.266e-05,0
1.144,2.3331e-05,0
1.1445,2.3331e-05,0
1.145,2.1317e-05,0
1.1455,1.4603e-05,0
1.146,9.9031e-06,0
1.1465,1.1582e-05,0
1.147,1.3092e-05,0
1.1475,1.2589e-05,0
1.148,1.5442e-05,0
1.1485,1.6953e-05,0
1.149,1.4603e-05,0
1.1495,1.326e-05,0
1.15,1.3092e-05,0
1.1505,1.561e-05,0
1.151,2.266e-05,0
1.1515,2.6688e-05,0
1.152,2.2995e-05,0
1.1525,1.8631e-05,0
1.153,1.4939e-05,0
1.1535,1.1246e-05,0
1.154,1.0575e-05,0
1.1545,1.4771e-05,0
1.155,2.0981e-05,0
1.1555,2.2324e-05,0
1.156,1.8631e-05,0
1.1565,1.7288e-05,0
1.157,1.9303e-05,0
1.1575,2.0646e-05,0
1.158,1.8296e-05,0
1.1585,1.4267e-05,0
1.159,1.2253e-05,0
1.1595,1.7121e-05,0
1.16,1.9974e-05,0
1.1605,2.0142e-05,0
1.161,2.2324e-05,0
1.1615,2.3667e-05,0
1.162,2.1317e-05,0
1.1625,1.8631e-05,0
1.163,1.4267e-05,0
1.1635,1.4435e-05,0
1.164,2.1317e-05,0
1.1645,2.3331e-05,0
1.165,1.796e-05,0
1.1655,1.3932e-05,0
1.166,1.4435e-05,0
1.1665,1.5274e-05,0
1.167,1.7288e-05,0
1.1675,1.7456e-05,0
1.168,1.7121e-05,0
1.1685,1.9303e-05,0
1.169,1.9974e-05,0
1.1695,2.0478e-05,0
1.17,2.3331e-05,0
1.1705,2.6688e-05,0
1.171,2.6688e-05,0
1.1715,2.1988e-05,0
1.172,1.561e-05,0
1.1725,1.7288e-05,0
1.173,1.8631e-05,0
1.1735,1.8296e-05,0
1.174,2.5009e-05,0
1.1745,3.0716e-05,0
1.175,2.6688e-05,0
1.1755,2.3331e-05,0
1.176,2.182e-05,0
1.1765,1.7288e-05,0
1.177,1.7288e-05,0
1.1775,1.8631e-05,0
1.178,1.8631e-05,0
1.1785,1.6953e-05,0
1.179,1.5106e-05,0
1.1795,1.4939e-05,0
1.18,1.6449e-05,0
1.1805,1.8631e-05,0
1.181,2.031e-05,0
1.1815,2.4002e-05,0
1.182,2.6017e-05,0
1.1825,2.417e-05,0
1.183,1.9974e-05,0
1.1835,1.561e-05,0
1.184,1.6785e-05,0
1.1845,1.796e-05,0
1.185,1.5946e-05,0
1.1855,1.6281e-05,0
1.186,1.7121e-05,0
1.1865,1.4267e-05,0
1.187,1.4267e-05,0
1.1875,1.5946e-05,0
1.188,1.6281e-05,0
1.1885,1.7456e-05,0
1.189,1.3932e-05,0
1.1895,1.0575e-05,0
1.19,1.4267e-05,0
1.1905,2.0478e-05,0
1.191,2.4002e-05,0
1.1915,2.266e-05,0
1.192,2.0478e-05,0
1.1925,2.0813e-05,0
1.193,2.4506e-05,0
1.1935,2.6688e-05,0
1.194,2.4002e-05,0
1.1945,2.2995e-05,0
1.195,2.4842e-05,0
1.1955,2.3667e-05,0
1.196,1.6953e-05,0
1.1965,1.1246e-05,0
1.197,1.2757e-05,0
1.1975,1.9638e-05,0
1.198,2.266e-05,0
1.1985,2.4002e-05,0
1.199,2.2995e-05,0
1.1995,2.0478e-05,0
1.2,2.0478e-05,0
1.2005,2.1149e-05,0
1.201,1.8967e-05,0
1.2015,1.6785e-05,0
1.202,1.7288e-05,0
1.2025,1.8631e-05,0
1.203,1.9303e-05,0
1.2035,1.6953e-05,0
1.204,1.561e-05,0
1.2045,1.5946e-05,0
1.205,1.6953e-05,0
1.2055,1.5274e-05,0
1.206,1.4435e-05,0
1.2065,1.8128e-05,0
1.207,2.1149e-05,0
1.2075,1.9303e-05,0
1.208,1.4435e-05,0
1.2085,1.3932e-05,0
1.209,1.6617e-05,0
1.2095,1.5442e-05,0
1.21,1.2253e-05,0
1.2105,9.9031e-06,0
1.211,1.0407e-05,0
1.2115,1.4435e-05,0
1.212,1.796e-05,0
1.2125,1.5946e-05,0
1.213,1.3932e-05,0
1.2135,1.326e-05,0
1.214,1.5274e-05,0
1.2145,1.9303e-05,0
1.215,1.8296e-05,0
1.2155,1.4603e-05,0
1.216,1.0742e-05,0
1.2165,1.0407e-05,0
1.217,1.326e-05,0
1.2175,1.5106e-05,0
1.218,1.6281e-05,0
1.2185,2.1653e-05,0
1.219,2.6017e-05,0
1.2195,2.4506e-05,0
1.22,2.2492e-05,0
1.2205,2.3667e-05,0
1.221,2.7024e-05,0
1.2215,2.6688e-05,0
1.222,2.5513e-05,0
1.2225,2.4002e-05,0
1.223,1.8967e-05,0
1.2235,1.6785e-05,0
1.224,1.9303e-05,0
1.2245,2.417e-05,0
1.225,2.4506e-05,0
1.2255,2.4002e-05,0
1.226,2.6352e-05,0
1.2265,2.3331e-05,0
1.227,1.8967e-05,0
1.2275,1.796e-05,0
1.228,1.8631e-05,0
1.2285,2.0646e-05,0
1.229,2.5345e-05,0
1.2295,2.8702e-05,0
1.23,2.5681e-05,0
1.2305,2.182e-05,0
1.231,2.0646e-05,0
1.2315,1.8967e-05,0
1.232,1.8967e-05,0
1.2325,2.1317e-05,0
1.233,2.4338e-05,0
1.2335,2.4338e-05,0
1.234,2.031e-05,0
1.2345,1.5946e-05,0
1.235,1.5106e-05,0
1.2355,1.6281e-05,0
1.236,1.5106e-05,0
1.2365,8.896e-06,0
1.237,5.3712e-06,0
1.2375,1.0071e-05,0
1.238,1.4939e-05,0
1.2385,1.7121e-05,0
1.239,1.8967e-05,0
1.2395,1.7121e-05,0
1.24,1.4435e-05,0
1.2405,1.8296e-05,0
1.241,1.9135e-05,0
1.2415,1.9638e-05,0
1.242,2.182e-05,0
1.2425,2.1988e-05,0
1.243,2.1988e-05,0
1.2435,2.266e-05,0
1.244,2.1317e-05,0
1.2445,2.3667e-05,0
1.245,2.6688e-05,0
1.2455,2.5849e-05,0
1.246,2.2492e-05,0
1.2465,2.031e-05,0
1.247,2.031e-05,0
1.2475,2.1317e-05,0
1.248,2.3667e-05,0
1.2485,2.1988e-05,0
1.249,1.6953e-05,0
1.2495,1.4603e-05,0
1.25,1.326e-05,0
1.2505,1.6617e-05,0
1.251,1.7456e-05,0
1.2515,1.7121e-05,0
1.252,2.031e-05,0
1.2525,2.0142e-05,0
1.253,1.7288e-05,0
1.2535,1.561e-05,0
1.254,1.3764e-05,0
1.2545,1.0575e-05,0
1.255,1.561e-05,0
1.2555,2.2492e-05,0
1.256,2.3835e-05,0
1.2565,2.1653e-05,0
1.257,1.9974e-05,0
1.2575,1.9806e-05,0
1.258,1.8296e-05,0
1.2585,1.2924e-05,0
1.259,1.0407e-05,0
1.2595,1.1749e-05,0
1.26,1.4603e-05,0
1.2605,1.4939e-05,0
1.261,1.4939e-05,0
1.2615,1.6617e-05,0
1.262,1.796e-05,0
1.2625,1.5778e-05,0
1.263,1.0407e-05,0
1.2635,1.1414e-05,0
1.264,1.561e-05,0
1.2645,1.796e-05,0
1.265,1.7288e-05,0
1.2655,1.326e-05,0
1.266,9.5674e-06,0
1.2665,1.0575e-05,0
1.267,1.1078e-05,0
1.2675,1.6281e-05,0
1.268,2.5849e-05,0
1.2685,3.1052e-05,0
1.269,2.8367e-05,0
1.2695,2.2995e-05,0
1.27,2.1317e-05,0
1.2705,2.1317e-05,0
1.271,2.182e-05,0
1.2715,2.3331e-05,0
1.272,2.2492e-05,0
1.2725,1.9638e-05,0
1.273,1.7121e-05,0
1.2735,1.7288e-05,0
1.274,2.0646e-05,0
1.2745,2.6688e-05,0
1.275,3.1388e-05,0
1.2755,2.887e-05,0
1.276,2.1653e-05,0
1.2765,2.0981e-05,0
1.277,2.4674e-05,0
1.2775,2.7024e-05,0
1.278,2.9206e-05,0
1.2785,2.8031e-05,0
1.279,2.1317e-05,0
1.2795,1.8128e-05,0
1.28,1.5106e-05,0
1.2805,1.1582e-05,0
1.281,1.1582e-05,0
1.2815,1.4939e-05,0
1.282,1.7792e-05,0
1.2825,1.796e-05,0
1.283,1.6953e-05,0
1.2835,1.8463e-05,0
1.284,1.7288e-05,0
1.2845,1.2589e-05,0
1.285,1.091e-05,0
1.2855,1.4435e-05,0
1.286,1.8967e-05,0
1.2865,2.0981e-05,0
1.287,2.266e-05,0
1.2875,2.6352e-05,0
1.288,2.652e-05,0
1.2885,2.0981e-05,0
1.289,1.6617e-05,0
1.2895,1.796e-05,0
1.29,1.8631e-05,0
1.2905,1.5946e-05,0
1.291,1.5274e-05,0
1.2915,1.8128e-05,0
1.292,1.9638e-05,0
1.2925,1.9974e-05,0
1.293,1.8631e-05,0
1.2935,1.3932e-05,0
1.294,1.1246e-05,0
1.2945,1.1582e-05,0
1.295,1.3596e-05,0
1.2955,1.7624e-05,0
1.296,1.8799e-05,0
1.2965,2.0646e-05,0
1.297,2.4002e-05,0
1.2975,2.6017e-05,0
1.298,2.4002e-05,0
1.2985,1.8296e-05,0
1.299,1.3932e-05,0
1.2995,1.7288e-05,0
1.3,2.3667e-05,0
1.3005,2.652e-05,0
1.301,2.7359e-05,0
1.3015,2.8702e-05,0
1.302,2.5345e-05,0
1.3025,2.1653e-05,0
1.303,1.9303e-05,0
1.3035,1.7288e-05,0
1.304,1.796e-05,0
1.3045,1.8296e-05,0
1.305,1.5946e-05,0
1.3055,1.6281e-05,0
1.306,1.7624e-05,0
1.3065,1.4939e-05,0
1.307,1.326e-05,0
1.3075,1.561e-05,0
1.308,1.4939e-05,0
1.3085,1.4603e-05,0
1.309,1.5274e-05,0
1.3095,1.8967e-05,0
1.31,1.9806e-05,0
1.3105,1.561e-05,0
1.311,1.2924e-05,0
1.3115,1.2253e-05,0
1.312,1.3596e-05,0
1.3125,1.2253e-05,0
1.313,1.2589e-05,0
1.3135,1.4939e-05,0
1.314,1.6449e-05,0
1.3145,1.5778e-05,0
1.315,1.3092e-05,0
1.3155,1.326e-05,0
1.316,9.5674e-06,0
1.3165,6.2104e-06,0
1.317,1.1078e-05,0
1.3175,1.4603e-05,0
1.318,1.4435e-05,0
1.3185,1.4771e-05,0
1.319,1.3092e-05,0
1.3195,1.1917e-05,0
1.32,1.6617e-05,0
1.3205,2.266e-05,0
1.321,2.5681e-05,0
1.3215,2.6688e-05,0
1.322,2.8199e-05,0
1.3225,2.5345e-05,0
1.323,1.9974e-05,0
1.3235,1.9806e-05,0
1.324,2.4338e-05,0
1.3245,2.7527e-05,0
1.325,2.7359e-05,0
1.3255,2.8702e-05,0
1.326,2.9038e-05,0
1.3265,2.6352e-05,0
1.327,2.4674e-05,0
1.3275,2.4002e-05,0
1.328,2.2995e-05,0
1.3285,2.4674e-05,0
1.329,2.1149e-05,0
1.3295,1.5946e-05,0
1.33,1.9638e-05,0
1.3305,2.1317e-05,0
1.331,1.8631e-05,0
1.3315,2.1317e-05,0
1.332,2.266e-05,0
1.3325,1.8631e-05,0
1.333,1.561e-05,0
1.3335,1.6953e-05,0
1.334,1.947e-05,0
1.3345,1.9974e-05,0
1.335,1.6281e-05,0
1.3355,1.4435e-05,0
1.336,1.9135e-05,0
1.3365,2.4002e-05,0
1.337,2.4674e-05,0
1.3375,2.5681e-05,0
1.338,2.4506e-05,0
1.3385,2.182e-05,0
1.339,1.9135e-05,0
1.3395,1.5946e-05,0
1.34,1.5274e-05,0
1.3405,1.7288e-05,0
1.341,1.5106e-05,0
1.3415,1.561e-05,0
1.342,1.7288e-05,0
1.3425,1.7624e-05,0
1.343,1.9974e-05,0
1.3435,1.9135e-05,0
1.344,1.7121e-05,0
1.3445,1.7288e-05,0
1.345,1.4771e-05,0
1.3455,1.1749e-05,0
1.346,1.4603e-05,0
1.3465,1.9974e-05,0
1.347,2.1317e-05,0
1.3475,2.2995e-05,0
1.348,2.266e-05,0
1.3485,1.9303e-05,0
1.349,1.8463e-05,0
1.3495,2.0478e-05,0
1.35,2.2324e-05,0
1.3505,2.1653e-05,0
1.351,1.7792e-05,0
1.3515,1.3932e-05,0
1.352,1.4603e-05,0
1.3525,2.1317e-05,0
1.353,2.3667e-05,0
1.3535,2.031e-05,0
1.354,1.6617e-05,0
1.3545,1.5274e-05,0
1.355,1.5274e-05,0
1.3555,1.4603e-05,0
1.356,1.6281e-05,0
1.3565,1.796e-05,0
1.357,1.7121e-05,0
1.3575,1.8631e-05,0
1.358,1.8631e-05,0
1.3585,1.2924e-05,0
1.359,1.0575e-05,0
1.3595,1.6953e-05,0
1.36,2.0646e-05,0
1.3605,1.5274e-05,0
1.361,1.1749e-05,0
1.3615,1.4603e-05,0
1.362,1.6617e-05,0
1.3625,2.1317e-05,0
1.363,2.9709e-05,0
1.3635,3.2731e-05,0
1.364,2.8367e-05,0
1.3645,2.4002e-05,0
1.365,2.266e-05,0
1.3655,1.947e-05,0
1.366,1.6785e-05,0
1.3665,1.7288e-05,0
1.367,1.7288e-05,0
1.3675,1.7624e-05,0
1.368,1.7121e-05,0
1.3685,1.5274e-05,0
1.369,1.796e-05,0
1.3695,2.0981e-05,0
1.37,2.2995e-05,0
1.3705,2.4842e-05,0
1.371,2.2995e-05,0
1.3715,1.9303e-05,0
1.372,1.8128e-05,0
1.3725,1.9303e-05,0
1.373,1.7792e-05,0
1.3735,1.6617e-05,0
1.374,2.0981e-05,0
1.3745,2.2995e-05,0
1.375,2.0981e-05,0
1.3755,1.8631e-05,0
1.376,1.7624e-05,0
1.3765,1.8296e-05,0
1.377,2.0646e-05,0
1.3775,2.2156e-05,0
1.378,1.9638e-05,0
1.3785,1.5946e-05,0
1.379,1.6953e-05,0
1.3795,1.4939e-05,0
1.38,9.9031e-06,0
1.3805,1.326e-05,0
1.381,1.5778e-05,0
1.3815,1.3596e-05,0
1.382,1.3932e-05,0
1.3825,1.3764e-05,0
1.383,1.326e-05,0
1.3835,1.561e-05,0
1.384,1.796e-05,0
1.3845,2.0981e-05,0
1.385,2.5849e-05,0
1.3855,2.4338e-05,0
1.386,2.1317e-05,0
1.3865,2.3331e-05,0
1.387,2.7863e-05,0
1.3875,2.9374e-05,0
1.388,2.7024e-05,0
1.3885,2.1653e-05,0
1.389,1.6617e-05,0
1.3895,1.3932e-05,0
1.39,1.2589e-05,0
1.3905,1.326e-05,0
1.391,1.5946e-05,0
1.3915,1.7288e-05,0
1.392,1.5106e-05,0
1.3925,1.1917e-05,0
1.393,8.3925e-06,0
1.3935,8.3925e-06,0
1.394,8.896e-06,0
1.3945,1.0239e-05,0
1.395,1.3932e-05,0
1.3955,1.5778e-05,0
1.396,1.6114e-05,0
1.3965,1.8463e-05,0
1.397,1.9638e-05,0
1.3975,2.1149e-05,0
1.398,2.5009e-05,0
1.3985,2.7695e-05,0
1.399,2.5681e-05,0
1.3995,2.3667e-05,0
1.4,2.4002e-05,0
1.4005,2.5177e-05,0
1.401,2.3331e-05,0
1.4015,2.2492e-05,0
1.402,2.4002e-05,0
1.4025,2.2324e-05,0
1.403,1.9638e-05,0
1.4035,2.031e-05,0
1.404,2.266e-05,0
1.4045,2.0478e-05,0
1.405,1.4771e-05,0
1.4055,1.1414e-05,0
1.406,1.326e-05,0
1.4065,2.031e-05,0
1.407,2.4338e-05,0
1.4075,1.9303e-05,0
1.408,1.326e-05,0
1.4085,1.3596e-05,0
1.409,1.8296e-05,0
1.4095,2.3667e-05,0
1.41,1.9303e-05,0
1.4105,1.1582e-05,0
1.411,1.3428e-05,0
1.4115,2.1317e-05,0
1.412,2.417e-05,0
1.4125,2.417e-05,0
1.413,2.4002e-05,0
1.4135,2.2995e-05,0
1.414,2.4338e-05,0
1.4145,2.6352e-05,0
1.415,2.4674e-05,0
1.4155,2.2995e-05,0
1.416,2.2995e-05,0
1.4165,2.1653e-05,0
1.417,2.2492e-05,0
1.4175,2.4002e-05,0
1.418,2.1317e-05,0
1.4185,1.6785e-05,0
1.419,1.9303e-05,0
1.4195,2.5849e-05,0
1.42,2.5849e-05,0
1.4205,2.0981e-05,0
1.421,2.0646e-05,0
1.4215,1.9974e-05,0
1.422,1.7624e-05,0
1.4225,2.182e-05,0
1.423,2.4674e-05,0
1.4235,2.1988e-05,0
1.424,1.8967e-05,0
1.4245,2.0981e-05,0
1.425,2.5681e-05,0
1.4255,2.7024e-05,0
1.426,2.3331e-05,0
1.4265,1.7624e-05,0
1.427,1.5946e-05,0
1.4275,1.7288e-05,0
1.428,1.9974e-05,0
1.4285,1.8631e-05,0
1.429,1.7456e-05,0
1.4295,1.9974e-05,0
1.43,2.1317e-05,0
1.4305,2.1149e-05,0
1.431,1.9974e-05,0
1.4315,2.0646e-05,0
1.432,2.0646e-05,0
1.4325,2.031e-05,0
1.433,1.8296e-05,0
1.4335,1.796e-05,0
1.434,1.9806e-05,0
1.4345,1.7624e-05,0
1.435,1.4603e-05,0
1.4355,1.6953e-05,0
1.436,1.8463e-05,0
1.4365,1.8463e-05,0
1.437,1.6953e-05,0
1.4375,1.5946e-05,0
1.438,1.5778e-05,0
1.4385,1.4267e-05,0
1.439,1.0575e-05,0
1.4395,1.4267e-05,0
1.44,1.8967e-05,0
1.4405,1.8631e-05,0
1.441,1.5946e-05,0
1.4415,1.5946e-05,0
1.442,1.5946e-05,0
1.4425,1.326e-05,0
1.443,1.1414e-05,0
1.4435,1.2924e-05,0
1.444,1.7121e-05,0
1.4445,2.182e-05,0
1.445,2.0646e-05,0
1.4455,1.7288e-05,0
1.446,1.5946e-05,0
1.4465,1.796e-05,0
1.447,1.9974e-05,0
1.4475,1.9303e-05,0
1.448,1.6617e-05,0
1.4485,1.8631e-05,0
1.449,1.9303e-05,0
1.4495,1.5442e-05,0
1.45,1.326e-05,0
1.4505,1.4603e-05,0
1.451,1.6281e-05,0
1.4515,1.9806e-05,0
1.452,2.1317e-05,0
1.4525,2.2156e-05,0
1.453,2.1149e-05,0
1.4535,1.8631e-05,0
1.454,1.6617e-05,0
1.4545,1.6617e-05,0
1.455,1.5946e-05,0
1.4555,1.326e-05,0
1.456,1.4603e-05,0
1.4565,1.5442e-05,0
1.457,1.3932e-05,0
1.4575,1.2253e-05,0
1.458,1.0575e-05,0
1.4585,1.2253e-05,0
1.459,1.3596e-05,0
1.4595,1.326e-05,0
1.46,1.6281e-05,0
1.4605,1.4603e-05,0
1.461,1.2924e-05,0
1.4615,1.6953e-05,0
1.462,1.9806e-05,0
1.4625,1.8967e-05,0
1.463,2.0646e-05,0
1.4635,2.2828e-05,0
1.464,2.1653e-05,0
1.4645,1.9303e-05,0
1.465,1.9974e-05,0
1.4655,2.266e-05,0
1.466,2.2156e-05,0
1.4665,1.8631e-05,0
1.467,1.8631e-05,0
1.4675,1.9806e-05,0
1.468,2.3331e-05,0
1.4685,2.5345e-05,0
1.469,2.1653e-05,0
1.4695,1.6281e-05,0
1.47,1.5274e-05,0
1.4705,1.7792e-05,0
1.471,1.7624e-05,0
1.4715,2.1317e-05,0
1.472,2.2324e-05,0
1.4725,1.9303e-05,0
1.473,1.9974e-05,0
1.4735,1.9303e-05,0
1.474,1.6281e-05,0
1.4745,1.5778e-05,0
1.475,1.7624e-05,0
1.4755,1.947e-05,0
1.476,2.031e-05,0
1.4765,1.9974e-05,0
1.477,1.9974e-05,0
1.4775,1.947e-05,0
1.478,2.0646e-05,0
1.4785,2.0813e-05,0
1.479,1.8631e-05,0
1.4795,1.8296e-05,0
1.48,1.6785e-05,0
1.4805,1.4603e-05,0
1.481,1.6281e-05,0
1.4815,1.8967e-05,0
1.482,1.6953e-05,0
1.4825,1.0407e-05,0
1.483,6.3783e-06,0
1.4835,7.5532e-06,0
1.484,8.896e-06,0
1.4845,1.3092e-05,0
1.485,1.8631e-05,0
1.4855,1.8631e-05,0
1.486,1.9303e-05,0
1.4865,2.1317e-05,0
1.487,2.3331e-05,0
1.4875,2.6352e-05,0
1.488,2.3331e-05,0
1.4885,1.6281e-05,0
1.489,1.5442e-05,0
1.4895,2.0646e-05,0
1.49,2.5849e-05,0
1.4905,2.5009e-05,0
1.491,1.8967e-05,0
1.4915,1.8296e-05,0
1.492,2.3667e-05,0
1.4925,2.8031e-05,0
1.493,2.5681e-05,0
1.4935,2.0478e-05,0
1.494,1.9974e-05,0
1.4945,2.5345e-05,0
1.495,2.5681e-05,0
1.4955,2.0813e-05,0
1.496,1.6953e-05,0
1.4965,1.561e-05,0
1.497,1.5274e-05,0
1.4975,1.9974e-05,0
1.498,2.4002e-05,0
1.4985,2.4002e-05,0
1.499,2.5849e-05,0
1.4995,2.8367e-05,0
1.5,2.9709e-05,0
1.5005,2.9709e-05,0
1.501,2.7527e-05,0
1.5015,2.6017e-05,0
1.502,2.6017e-05,0
1.5025,2.4674e-05,0
1.503,2.0646e-05,0
1.5035,1.796e-05,0
1.504,2.031e-05,0
1.5045,2.3331e-05,0
1.505,2.2324e-05,0
1.5055,1.9974e-05,0
1.506,1.7288e-05,0
1.5065,1.796e-05,0
1.507,1.9638e-05,0
1.5075,1.9303e-05,0
1.508,1.9974e-05,0
1.5085,2.4842e-05,0
1.509,2.3163e-05,0
1.5095,1.4939e-05,0
1.51,1.3092e-05,0
1.5105,1.8128e-05,0
1.511,2.0142e-05,0
1.5115,1.5946e-05,0
1.512,1.2085e-05,0
1.5125,9.5674e-06,0
1.513,7.8889e-06,0
1.5135,9.7353e-06,0
1.514,1.4099e-05,0
1.5145,1.561e-05,0
1.515,1.5946e-05,0
1.5155,1.6617e-05,0
1.516,1.7121e-05,0
1.5165,1.561e-05,0
1.517,1.4435e-05,0
1.5175,1.5274e-05,0
1.518,1.8296e-05,0
1.5185,2.031e-05,0
1.519,1.8631e-05,0
1.5195,1.5274e-05,0
1.52,1.3764e-05,0
1.5205,1.2757e-05,0
1.521,1.5946e-05,0
1.5215,2.1317e-05,0
1.522,2.4674e-05,0
1.5225,2.2324e-05,0
1.523,1.7288e-05,0
1.5235,1.6785e-05,0
1.524,1.796e-05,0
1.5245,1.8296e-05,0
1.525,1.796e-05,0
1.5255,1.796e-05,0
1.526,2.266e-05,0
1.5265,2.9374e-05,0
1.527,3.0716e-05,0
1.5275,2.5177e-05,0
1.528,2.1317e-05,0
1.5285,2.4338e-05,0
1.529,2.8031e-05,0
1.5295,2.6017e-05,0
1.53,2.1317e-05,0
1.5305,1.9974e-05,0
1.531,1.7792e-05,0
1.5315,1.4267e-05,0
1.532,1.3932e-05,0
1.5325,1.4603e-05,0
1.533,1.4435e-05,0
1.5335,1.2589e-05,0
1.534,1.3932e-05,0
1.5345,1.5274e-05,0
1.535,1.7456e-05,0
1.5355,1.7288e-05,0
1.536,1.6617e-05,0
1.5365,1.9638e-05,0
1.537,2.1317e-05,0
1.5375,2.0981e-05,0
1.538,2.0646e-05,0
1.5385,1.9303e-05,0
1.539,1.561e-05,0
1.5395,1.5106e-05,0
1.54,1.6953e-05,0
1.5405,1.4603e-05,0
1.541,1.4267e-05,0
1.5415,1.6281e-05,0
1.542,1.8631e-05,0
1.5425,2.3331e-05,0
1.543,2.7863e-05,0
1.5435,2.6688e-05,0
1.544,2.4002e-05,0
1.5445,2.2995e-05,0
1.545,2.2995e-05,0
1.5455,2.4506e-05,0
1.546,2.4674e-05,0
1.5465,2.2995e-05,0
1.547,1.8967e-05,0
1.5475,1.4099e-05,0
1.548,1.1582e-05,0
1.5485,9.9031e-06,0
1.549,7.5532e-06,0
1.5495,9.9031e-06,0
1.55,1.5274e-05,0
1.5505,1.7288e-05,0
1.551,1.6953e-05,0
1.5515,1.2924e-05,0
1.552,1.0071e-05,0
1.5525,1.1917e-05,0
1.553,9.5674e-06,0
1.5535,8.5603e-06,0
1.554,1.1582e-05,0
1.5545,1.3092e-05,0
1.555,1.2924e-05,0
1.5555,1.1749e-05,0
1.556,1.1749e-05,0
1.5565,1.2924e-05,0
1.557,1.7288e-05,0
1.5575,2.0813e-05,0
1.558,2.1317e-05,0
1.5585,1.8799e-05,0
1.559,1.7288e-05,0
1.5595,1.9303e-05,0
1.56,1.9974e-05,0
1.5605,1.9303e-05,0
1.561,1.9303e-05,0
1.5615,1.796e-05,0
1.562,1.3596e-05,0
1.5625,1.7288e-05,0
1.563,2.6017e-05,0
1.5635,3.0213e-05,0
1.564,2.9038e-05,0
1.5645,2.1988e-05,0
1.565,1.8631e-05,0
1.5655,2.1317e-05,0
1.566,2.6184e-05,0
1.5665,2.6184e-05,0
1.567,2.4506e-05,0
1.5675,2.5009e-05,0
1.568,2.4674e-05,0
1.5685,2.266e-05,0
1.569,2.2156e-05,0
1.5695,1.9638e-05,0
1.57,1.5274e-05,0
1.5705,1.7792e-05,0
1.571,2.3331e-05,0
1.5715,2.5345e-05,0
1.572,2.3667e-05,0
1.5725,2.0981e-05,0
1.573,1.9806e-05,0
1.5735,1.9135e-05,0
1.574,1.8631e-05,0
1.5745,1.9974e-05,0
1.575,2.0478e-05,0
1.5755,2.1317e-05,0
1.576,2.1149e-05,0
1.5765,1.9303e-05,0
1.577,2.1988e-05,0
1.5775,2.182e-05,0
1.578,1.9638e-05,0
1.5785,2.2324e-05,0
1.579,2.3835e-05,0
1.5795,2.1317e-05,0
1.58,2.1149e-05,0
1.5805,2.1653e-05,0
1.581,2.2324e-05,0
1.5815,2.4338e-05,0
1.582,2.6352e-05,0
1.5825,2.8031e-05,0
1.583,2.8702e-05,0
1.5835,2.7695e-05,0
1.584,2.5345e-05,0
1.5845,2.4002e-05,0
1.585,2.3331e-05,0
1.5855,2.1317e-05,0
1.586,1.9974e-05,0
1.5865,1.8631e-05,0
1.587,2.0142e-05,0
1.5875,2.1317e-05,0
1.588,1.9806e-05,0
1.5885,1.9974e-05,0
1.589,1.8631e-05,0
1.5895,1.4603e-05,0
1.59,1.561e-05,0
1.5905,1.796e-05,0
1.591,1.8967e-05,0
1.5915,2.1317e-05,0
1.592,1.9638e-05,0
1.5925,1.6953e-05,0
1.593,1.6953e-05,0
1.5935,1.9638e-05,0
1.594,1.7288e-05,0
1.5945,1.2253e-05,0
1.595,1.1917e-05,0
1.5955,1.8296e-05,0
1.596,2.3499e-05,0
1.5965,2.5681e-05,0
1.597,2.4674e-05,0
1.5975,1.9135e-05,0
1.598,1.1917e-05,0
1.5985,8.5603e-06,0
1.599,9.9031e-06,0
1.5995,8.7282e-06,0
1.6,8.3925e-06,0
1.6005,7.8889e-06,0
1.601,5.8747e-06,0
1.6015,7.2175e-06,0
1.602,1.0071e-05,0
1.6025,1.1582e-05,0
1.603,1.5946e-05,0
1.6035,1.8631e-05,0
1.604,1.6449e-05,0
1.6045,1.796e-05,0
1.605,2.031e-05,0
1.6055,2.266e-05,0
1.606,2.6688e-05,0
1.6065,3.0716e-05,0
1.607,2.7863e-05,0
1.6075,2.0646e-05,0
1.608,1.796e-05,0
1.6085,2.0646e-05,0
1.609,2.3331e-05,0
1.6095,2.266e-05,0
1.61,2.3499e-05,0
1.6105,2.6688e-05,0
1.611,2.6017e-05,0
1.6115,2.2828e-05,0
1.612,1.9974e-05,0
1.6125,2.0646e-05,0
1.613,2.4002e-05,0
1.6135,2.3499e-05,0
1.614,1.9638e-05,0
1.6145,2.0478e-05,0
1.615,2.266e-05,0
1.6155,2.4002e-05,0
1.616,2.3499e-05,0
1.6165,2.0646e-05,0
1.617,1.9303e-05,0
1.6175,2.0478e-05,0
1.618,1.8799e-05,0
1.6185,1.6449e-05,0
1.619,1.5946e-05,0
1.6195,1.6953e-05,0
1.62,1.7121e-05,0
1.6205,1.796e-05,0
1.621,1.796e-05,0
1.6215,1.8463e-05,0
1.622,1.9135e-05,0
1.6225,1.7288e-05,0
1.623,1.326e-05,0
1.6235,1.1078e-05,0
1.624,1.2085e-05,0
1.6245,1.326e-05,0
1.625,1.3596e-05,0
1.6255,1.5274e-05,0
1.626,1.7288e-05,0
1.6265,1.5946e-05,0
1.627,1.326e-05,0
1.6275,1.5442e-05,0
1.628,1.5442e-05,0
1.6285,1.2589e-05,0
1.629,1.326e-05,0
1.6295,1.3932e-05,0
1.63,1.3932e-05,0
1.6305,1.6953e-05,0
1.631,1.796e-05,0
1.6315,1.3932e-05,0
1.632,1.3932e-05,0
1.6325,1.8463e-05,0
1.633,1.9974e-05,0
1.6335,2.0478e-05,0
1.634,2.6688e-05,0
1.6345,3.2731e-05,0
1.635,3.0381e-05,0
1.6355,2.4674e-05,0
1.636,2.1149e-05,0
1.6365,1.7288e-05,0
1.637,1.4771e-05,0
1.6375,1.7121e-05,0
1.638,2.1317e-05,0
1.6385,1.8799e-05,0
1.639,1.3596e-05,0
1.6395,1.2253e-05,0
1.64,1.2924e-05,0
1.6405,1.3596e-05,0
1.641,1.3764e-05,0
1.6415,1.6449e-05,0
1.642,1.9135e-05,0
1.6425,1.6953e-05,0
1.643,1.6281e-05,0
1.6435,1.9974e-05,0
1.644,2.031e-05,0
1.6445,1.6785e-05,0
1.645,1.5442e-05,0
1.6455,1.5946e-05,0
1.646,1.7288e-05,0
1.6465,1.796e-05,0
1.647,1.9135e-05,0
1.6475,2.1317e-05,0
1.648,2.2995e-05,0
1.6485,2.1317e-05,0
1.649,1.8967e-05,0
1.6495,1.8631e-05,0
1.65,1.9135e-05,0
1.6505,1.9135e-05,0
1.651,2.031e-05,0
1.6515,2.1149e-05,0
1.652,2.2156e-05,0
1.6525,2.182e-05,0
1.653,1.796e-05,0
1.6535,2.0142e-05,0
1.654,2.3163e-05,0
1.6545,2.1988e-05,0
1.655,2.4002e-05,0
1.6555,2.1988e-05,0
1.656,1.4435e-05,0
1.6565,1.2924e-05,0
1.657,1.7121e-05,0
1.6575,1.9638e-05,0
1.658,2.2324e-05,0
1.6585,2.2492e-05,0
1.659,2.266e-05,0
1.6595,2.5849e-05,0
1.66,2.3499e-05,0
1.6605,1.5106e-05,0
1.661,1.091e-05,0
1.6615,1.3596e-05,0
1.662,1.561e-05,0
1.6625,1.7624e-05,0
1.663,1.9974e-05,0
1.6635,2.2324e-05,0
1.664,2.3331e-05,0
1.6645,2.0981e-05,0
1.665,1.7624e-05,0
1.6655,1.5274e-05,0
1.666,1.3932e-05,0
1.6665,1.5778e-05,0
1.667,1.8463e-05,0
1.6675,1.8296e-05,0
1.668,1.9806e-05,0
1.6685,1.6785e-05,0
1.669,1.2924e-05,0
1.6695,1.6953e-05,0
1.67,1.796e-05,0
1.6705,1.6281e-05,0
1.671,2.0478e-05,0
1.6715,2.6017e-05,0
1.672,2.8367e-05,0
1.6725,2.5681e-05,0
1.673,2.1317e-05,0
1.6735,1.796e-05,0
1.674,1.5946e-05,0
1.6745,1.9638e-05,0
1.675,2.5009e-05,0
1.6755,2.6352e-05,0
1.676,2.6688e-05,0
1.6765,2.6184e-05,0
1.677,2.0981e-05,0
1.6775,1.3764e-05,0
1.678,1.1078e-05,0
1.6785,1.1246e-05,0
1.679,9.7353e-06,0
1.6795,1.2589e-05,0
1.68,1.4939e-05,0
1.6805,1.4603e-05,0
1.681,1.5778e-05,0
1.6815,1.6281e-05,0
1.682,1.4435e-05,0
1.6825,1.2085e-05,0
1.683,1.1078e-05,0
1.6835,1.4939e-05,0
1.684,2.031e-05,0
1.6845,2.266e-05,0
1.685,2.6688e-05,0
1.6855,2.887e-05,0
1.686,2.8199e-05,0
1.6865,2.8031e-05,0
1.687,2.7024e-05,0
1.6875,2.4338e-05,0
1.688,2.2156e-05,0
1.6885,1.9303e-05,0
1.689,1.796e-05,0
1.6895,1.7288e-05,0
1.69,1.796e-05,0
1.6905,1.9303e-05,0
1.691,2.2156e-05,0
1.6915,2.2324e-05,0
1.692,1.8631e-05,0
1.6925,1.6785e-05,0
1.693,1.5946e-05,0
1.6935,1.7288e-05,0
1.694,2.031e-05,0
1.6945,1.9135e-05,0
1.695,1.7624e-05,0
1.6955,2.031e-05,0
1.696,1.8128e-05,0
1.6965,1.6281e-05,0
1.697,1.8967e-05,0
1.6975,2.031e-05,0
1.698,1.947e-05,0
1.6985,2.1988e-05,0
1.699,2.4338e-05,0
1.6995,2.3667e-05,0
1.7,2.3331e-05,0
1.7005,2.1988e-05,0
1.701,1.9974e-05,0
1.7015,1.7624e-05,0
1.702,1.6617e-05,0
1.7025,1.7288e-05,0
1.703,2.0142e-05,0
1.7035,2.031e-05,0
1.704,1.8967e-05,0
1.7045,1.8631e-05,0
1.705,1.7792e-05,0
1.7055,1.9303e-05,0
1.706,2.0646e-05,0
1.7065,1.8631e-05,0
1.707,1.6617e-05,0
1.7075,1.8128e-05,0
1.708,1.8967e-05,0
1.7085,1.9974e-05,0
1.709,2.182e-05,0
1.7095,2.1988e-05,0
1.71,2.4002e-05,0
1.7105,2.3331e-05,0
1.711,2.2828e-05,0
1.7115,2.5345e-05,0
1.712,2.3835e-05,0
1.7125,1.8967e-05,0
1.713,1.4939e-05,0
1.7135,1.6281e-05,0
1.714,2.0813e-05,0
1.7145,2.4674e-05,0
1.715,2.5345e-05,0
1.7155,2.3667e-05,0
1.716,2.3835e-05,0
1.7165,2.1149e-05,0
1.717,1.7121e-05,0
1.7175,1.3596e-05,0
1.718,1.1414e-05,0
1.7185,1.7624e-05,0
1.719,2.266e-05,0
1.7195,1.8296e-05,0
1.72,1.6953e-05,0
1.7205,1.9303e-05,0
1.721,1.5442e-05,0
1.7215,1.3932e-05,0
1.722,1.5946e-05,0
1.7225,1.6114e-05,0
1.723,1.5946e-05,0
1.7235,1.6114e-05,0
1.724,2.0813e-05,0
1.7245,2.5681e-05,0
1.725,2.2828e-05,0
1.7255,1.7456e-05,0
1.726,1.561e-05,0
1.7265,1.7288e-05,0
1.727,1.8463e-05,0
1.7275,1.6785e-05,0
1.728,1.5106e-05,0
1.7285,1.4603e-05,0
1.729,1.2421e-05,0
1.7295,1.0575e-05,0
1.73,1.5946e-05,0
1.7305,1.9806e-05,0
1.731,1.5946e-05,0
1.7315,1.561e-05,0
1.732,1.8296e-05,0
1.7325,1.8128e-05,0
1.733,1.8128e-05,0
1.7335,1.561e-05,0
1.734,1.326e-05,0
1.7345,1.4939e-05,0
1.735,1.326e-05,0
1.7355,1.1582e-05,0
1.736,1.5274e-05,0
1.7365,2.0646e-05,0
1.737,2.1988e-05,0
1.7375,1.8631e-05,0
1.738,1.8463e-05,0
1.7385,2.1317e-05,0
1.739,2.266e-05,0
1.7395,1.7624e-05,0
1.74,1.0742e-05,0
1.7405,1.2253e-05,0
1.741,1.8463e-05,0
1.7415,2.1988e-05,0
1.742,2.1653e-05,0
1.7425,1.8799e-05,0
1.743,1.7288e-05,0
1.7435,1.8631e-05,0
1.744,1.8631e-05,0
1.7445,1.8967e-05,0
1.745,1.5778e-05,0
1.7455,9.9031e-06,0
1.746,6.8818e-06,0
1.7465,6.8818e-06,0
1.747,1.4435e-05,0
1.7475,2.1317e-05,0
1.748,1.9135e-05,0
1.7485,1.561e-05,0
1.749,1.7624e-05,0
1.7495,2.266e-05,0
1.75,2.6688e-05,0
1.7505,2.5177e-05,0
1.751,2.2156e-05,0
1.7515,2.1988e-05,0
1.752,2.1149e-05,0
1.7525,2.0646e-05,0
1.753,2.3331e-05,0
1.7535,2.6688e-05,0
1.754,2.7359e-05,0
1.7545,2.3667e-05,0
1.755,2.2492e-05,0
1.7555,2.0646e-05,0
1.756,1.5274e-05,0
1.7565,1.4099e-05,0
1.757,1.6785e-05,0
1.7575,2.2324e-05,0
1.758,2.3667e-05,0
1.7585,1.8631e-05,0
1.759,1.7624e-05,0
1.7595,1.8296e-05,0
1.76,1.9303e-05,0
1.7605,2.4338e-05,0
1.761,2.7695e-05,0
1.7615,2.8367e-05,0
1.762,3.0381e-05,0
1.7625,3.2059e-05,0
1.763,2.9206e-05,0
1.7635,2.4842e-05,0
1.764,2.2492e-05,0
1.7645,2.4002e-05,0
1.765,2.5513e-05,0
1.7655,2.6017e-05,0
1.766,2.182e-05,0
1.7665,1.6953e-05,0
1.767,1.561e-05,0
1.7675,1.4267e-05,0
1.768,1.326e-05,0
1.7685,1.4939e-05,0
1.769,1.8463e-05,0
1.7695,2.1149e-05,0
1.77,1.947e-05,0
1.7705,1.6617e-05,0
1.771,1.4939e-05,0
1.7715,1.5946e-05,0
1.772,2.1317e-05,0
1.7725,2.0142e-05,0
1.773,1.7792e-05,0
1.7735,1.9806e-05,0
1.774,1.8967e-05,0
1.7745,1.8631e-05,0
1.775,2.2492e-05,0
1.7755,2.4842e-05,0
1.776,2.4338e-05,0
1.7765,2.5177e-05,0
1.777,2.7695e-05,0
1.7775,2.7359e-05,0
1.778,2.3835e-05,0
1.7785,1.9638e-05,0
1.779,1.5946e-05,0
1.7795,1.4267e-05,0
1.78,1.2421e-05,0
1.7805,1.0239e-05,0
1.781,1.0575e-05,0
1.7815,9.7353e-06,0
1.782,8.7282e-06,0
1.7825,9.9031e-06,0
1.783,1.2253e-05,0
1.7835,1.7456e-05,0
1.784,1.947e-05,0
1.7845,1.796e-05,0
1.785,1.8463e-05,0
1.7855,1.9303e-05,0
1.786,1.9638e-05,0
1.7865,1.796e-05,0
1.787,1.2924e-05,0
1.7875,8.7282e-06,0
1.788,1.1078e-05,0
1.7885,1.6281e-05,0
1.789,1.5274e-05,0
1.7895,1.1917e-05,0
1.79,1.0239e-05,0
1.7905,1.326e-05,0
1.791,1.8631e-05,0
1.7915,2.2995e-05,0
1.792,2.2995e-05,0
1.7925,1.9638e-05,0
1.793,1.6617e-05,0
1.7935,1.2924e-05,0
1.794,1.1078e-05,0
1.7945,9.5674e-06,0
1.795,7.2175e-06,0
1.7955,7.7211e-06,0
1.796,1.4939e-05,0
1.7965,2.3331e-05,0
1.797,2.1149e-05,0
1.7975,1.4267e-05,0
1.798,1.4267e-05,0
1.7985,1.7288e-05,0
1.799,1.9303e-05,0
1.7995,2.0646e-05,0
1.8,1.796e-05,0
1.8005,1.6449e-05,0
1.801,1.9638e-05,0
1.8015,2.4002e-05,0
1.802,2.4506e-05,0
1.8025,2.3163e-05,0
1.803,2.3331e-05,0
1.8035,2.4338e-05,0
1.804,2.5681e-05,0
1.8045,2.5345e-05,0
1.805,2.3331e-05,0
1.8055,2.2995e-05,0
1.806,2.266e-05,0
1.8065,2.4002e-05,0
1.807,2.7527e-05,0
1.8075,2.8367e-05,0
1.808,2.7024e-05,0
1.8085,2.4002e-05,0
1.809,2.0813e-05,0
1.8095,2.3331e-05,0
1.81,2.1317e-05,0
1.8105,1.7288e-05,0
1.811,2.1988e-05,0
1.8115,2.6688e-05,0
1.812,2.4002e-05,0
1.8125,1.9638e-05,0
1.813,1.4435e-05,0
1.8135,1.5106e-05,0
1.814,2.2156e-05,0
1.8145,2.5345e-05,0
1.815,2.3499e-05,0
1.8155,1.8631e-05,0
1.816,1.2253e-05,0
1.8165,1.0407e-05,0
1.817,1.3428e-05,0
1.8175,1.6953e-05,0
1.818,1.9974e-05,0
1.8185,2.0981e-05,0
1.819,2.0478e-05,0
1.8195,2.1149e-05,0
1.82,2.4338e-05,0
1.8205,2.5513e-05,0
1.821,2.3835e-05,0
1.8215,2.266e-05,0
1.822,2.1988e-05,0
1.8225,1.796e-05,0
1.823,1.4435e-05,0
1.8235,1.561e-05,0
1.824,2.1988e-05,0
1.8245,2.5849e-05,0
1.825,2.3499e-05,0
1.8255,2.3667e-05,0
1.826,2.266e-05,0
1.8265,2.0646e-05,0
1.827,2.2828e-05,0
1.8275,2.4002e-05,0
1.828,2.0981e-05,0
1.8285,1.6617e-05,0
1.829,1.4099e-05,0
1.8295,1.5946e-05,0
1.83,1.796e-05,0
1.8305,1.5946e-05,0
1.831,1.2924e-05,0
1.8315,1.3596e-05,0
1.832,1.5946e-05,0
1.8325,1.8799e-05,0
1.833,2.031e-05,0
1.8335,1.7624e-05,0
1.834,1.5946e-05,0
1.8345,1.8296e-05,0
1.835,2.1149e-05,0
1.8355,2.5681e-05,0
1.836,2.652e-05,0
1.8365,2.4674e-05,0
1.837,2.4674e-05,0
1.8375,2.2324e-05,0
1.838,1.8128e-05,0
1.8385,2.1317e-05,0
1.839,2.5345e-05,0
1.8395,2.8031e-05,0
1.84,3.3234e-05,0
1.8405,3.4409e-05,0
1.841,3.2059e-05,0
1.8415,3.0549e-05,0
1.842,2.5009e-05,0
1.8425,1.796e-05,0
1.843,1.9135e-05,0
1.8435,2.1149e-05,0
1.844,1.7288e-05,0
1.8445,1.6449e-05,0
1.845,1.7624e-05,0
1.8455,1.6617e-05,0
1.846,1.2589e-05,0
1.8465,7.5532e-06,0
1.847,-1.5106e-06,0
1.8475,-1.3764e-05,0
1.848,-1.9303e-05,0
1.8485,-9.5674e-06,0
1.849,6.0426e-06,0
1.8495,1.5442e-05,0
1.85,2.3331e-05,0
1.8505,2.5345e-05,0
1.851,1.7121e-05,0
1.8515,1.1582e-05,0
1.852,1.1917e-05,0
1.8525,9.9031e-06,0
1.853,1.091e-05,0
1.8535,1.6281e-05,0
1.854,1.6785e-05,0
1.8545,1.2589e-05,0
1.855,1.3596e-05,0
1.8555,1.7624e-05,0
1.856,1.9638e-05,0
1.8565,2.0646e-05,0
1.857,2.1317e-05,0
1.8575,2.1317e-05,0
1.858,2.031e-05,0
1.8585,1.8296e-05,0
1.859,1.8296e-05,0
1.8595,2.0142e-05,0
1.86,2.2324e-05,0
1.8605,2.4002e-05,0
1.861,2.5849e-05,0
1.8615,3.0045e-05,0
1.862,2.9374e-05,0
1.8625,2.5345e-05,0
1.863,2.3331e-05,0
1.8635,1.796e-05,0
1.864,1.4771e-05,0
1.8645,1.9806e-05,0
1.865,2.3163e-05,0
1.8655,2.266e-05,0
1.866,2.3667e-05,0
1.8665,2.8702e-05,0
1.867,3.0549e-05,0
1.8675,2.8031e-05,0
1.868,2.4002e-05,0
1.8685,2.031e-05,0
1.869,2.031e-05,0
1.8695,2.0981e-05,0
1.87,2.1653e-05,0
1.8705,2.1149e-05,0
1.871,2.031e-05,0
1.8715,2.2324e-05,0
1.872,2.5345e-05,0
1.8725,2.4002e-05,0
1.873,2.0813e-05,0
1.8735,1.9303e-05,0
1.874,1.561e-05,0
1.8745,1.1917e-05,0
1.875,9.9031e-06,0
1.8755,1.091e-05,0
1.876,1.561e-05,0
1.8765,1.9303e-05,0
1.877,2.0478e-05,0
1.8775,2.0981e-05,0
1.878,1.8296e-05,0
1.8785,1.6449e-05,0
1.879,2.1988e-05,0
1.8795,2.4338e-05,0
1.88,1.9135e-05,0
1.8805,1.7792e-05,0
1.881,2.3667e-05,0
1.8815,2.8534e-05,0
1.882,3.0381e-05,0
1.8825,2.9374e-05,0
1.883,2.6688e-05,0
1.8835,2.4002e-05,0
1.884,2.2324e-05,0
1.8845,2.0646e-05,0
1.885,1.561e-05,0
1.8855,6.3783e-06,0
1.886,6.714e-07,0
1.8865,1.5106e-06,0
1.887,3.8605e-06,0
1.8875,8.2246e-06,0
1.888,8.5603e-06,0
1.8885,5.8747e-06,0
1.889,7.8889e-06,0
1.8895,9.2317e-06,0
1.89,1.0239e-05,0
1.8905,1.1749e-05,0
1.891,1.1078e-05,0
1.8915,1.2924e-05,0
1.892,1.9135e-05,0
1.8925,2.6017e-05,0
1.893,2.7359e-05,0
1.8935,1.9638e-05,0
1.894,1.2757e-05,0
1.8945,1.2085e-05,0
1.895,1.3092e-05,0
1.8955,1.1582e-05,0
1.896,1.2589e-05,0
1.8965,1.8631e-05,0
1.897,2.4002e-05,0
1.8975,2.6017e-05,0
1.898,2.4338e-05,0
1.8985,2.1317e-05,0
1.899,2.1988e-05,0
1.8995,2.1317e-05,0
1.9,1.5946e-05,0
1.9005,1.5946e-05,0
1.901,1.8128e-05,0
1.9015,1.8967e-05,0
1.902,1.7792e-05,0
1.9025,1.326e-05,0
1.903,9.5674e-06,0
1.9035,1.0575e-05,0
1.904,1.4603e-05,0
1.9045,1.6617e-05,0
1.905,1.6617e-05,0
1.9055,1.5778e-05,0
1.906,1.6953e-05,0
1.9065,1.9638e-05,0
1.907,2.1317e-05,0
1.9075,2.2492e-05,0
1.908,2.4002e-05,0
1.9085,2.5009e-05,0
1.909,2.2492e-05,0
1.9095,1.8967e-05,0
1.91,1.5946e-05,0
1.9105,1.5106e-05,0
1.911,1.6617e-05,0
1.9115,1.3932e-05,0
1.912,8.896e-06,0
1.9125,7.2175e-06,0
1.913,1.0239e-05,0
1.9135,1.9974e-05,0
1.914,2.7359e-05,0
1.9145,2.6688e-05,0
1.915,2.5009e-05,0
1.9155,2.3499e-05,0
1.916,2.266e-05,0
1.9165,2.4842e-05,0
1.917,2.4338e-05,0
1.9175,2.4338e-05,0
1.918,2.4338e-05,0
1.9185,2.3331e-05,0
1.919,2.1317e-05,0
1.9195,2.3667e-05,0
1.92,2.8702e-05,0
1.9205,2.9709e-05,0
1.921,2.887e-05,0
1.9215,2.9709e-05,0
1.922,2.8031e-05,0
1.9225,2.5009e-05,0
1.923,2.3667e-05,0
1.9235,2.4002e-05,0
1.924,2.4002e-05,0
1.9245,2.2995e-05,0
1.925,2.3331e-05,0
1.9255,2.2492e-05,0
1.926,1.8967e-05,0
1.9265,2.2995e-05,0
1.927,2.7695e-05,0
1.9275,2.4002e-05,0
1.928,2.0981e-05,0
1.9285,2.266e-05,0
1.929,2.182e-05,0
1.9295,1.8296e-05,0
1.93,1.7288e-05,0
1.9305,1.947e-05,0
1.931,2.266e-05,0
1.9315,2.1988e-05,0
1.932,2.652e-05,0
1.9325,3.6423e-05,0
1.933,4.3473e-05,0
1.9335,4.1795e-05,0
1.934,3.4073e-05,0
1.9345,3.0045e-05,0
1.935,3.0716e-05,0
1.9355,2.9709e-05,0
1.936,2.6688e-05,0
1.9365,2.0981e-05,0
1.937,1.5274e-05,0
1.9375,1.3596e-05,0
1.938,1.6785e-05,0
1.9385,1.5946e-05,0
1.939,8.5603e-06,0
1.9395,3.0213e-06,0
1.94,-1.0071e-06,0
1.9405,-7.0497e-06,0
1.941,-1.1246e-05,0
1.9415,-1.4267e-05,0
1.942,-1.3764e-05,0
1.9425,-3.1891e-06,0
1.943,7.8889e-06,0
1.9435,1.326e-05,0
1.944,1.7121e-05,0
1.9445,1.5946e-05,0
1.945,1.7121e-05,0
1.9455,2.3667e-05,0
1.946,3.2059e-05,0
1.9465,3.5248e-05,0
1.947,3.2059e-05,0
1.9475,2.7695e-05,0
1.948,2.3331e-05,0
1.9485,2.0646e-05,0
1.949,1.947e-05,0
1.9495,1.8631e-05,0
1.95,2.3163e-05,0
1.9505,3.4745e-05,0
1.951,4.2466e-05,0
1.9515,4.0787e-05,0
1.952,3.4745e-05,0
1.9525,3.0549e-05,0
1.953,2.2324e-05,0
1.9535,9.9031e-06,0
1.954,5.539e-06,0
1.9545,9.9031e-06,0
1.955,1.6281e-05,0
1.9555,2.1988e-05,0
1.956,1.796e-05,0
1.9565,9.2317e-06,0
1.957,8.2246e-06,0
1.9575,1.3596e-05,0
1.958,1.9806e-05,0
1.9585,2.4338e-05,0
1.959,2.7024e-05,0
1.9595,2.6017e-05,0
1.96,2.2995e-05,0
1.9605,1.9638e-05,0
1.961,1.4603e-05,0
1.9615,1.4603e-05,0
1.962,1.7121e-05,0
1.9625,2.1317e-05,0
1.963,2.5345e-05,0
1.9635,2.887e-05,0
1.964,2.6184e-05,0
1.9645,1.5274e-05,0
1.965,3.8605e-06,0
1.9655,3.357e-06,0
1.966,1.0239e-05,0
1.9665,1.8967e-05,0
1.967,2.5009e-05,0
1.9675,1.9303e-05,0
1.968,9.2317e-06,0
1.9685,7.8889e-06,0
1.969,1.0575e-05,0
1.9695,1.2757e-05,0
1.97,1.091e-05,0
1.9705,5.0355e-06,0
1.971,-4.1962e-06,0
1.9715,-8.896e-06,0
1.972,-8.392e-07,0
1.9725,1.2421e-05,0
1.973,1.9638e-05,0
1.9735,2.4002e-05,0
1.974,2.887e-05,0
1.9745,3.3402e-05,0
1.975,3.5584e-05,0
1.9755,3.4745e-05,0
1.976,3.4745e-05,0
1.9765,3.2059e-05,0
1.977,2.9877e-05,0
1.9775,3.0045e-05,0
1.978,2.7192e-05,0
1.9785,2.5177e-05,0
1.979,2.266e-05,0
1.9795,2.182e-05,0
1.98,2.6017e-05,0
1.9805,2.7695e-05,0
1.981,2.4506e-05,0
1.9815,2.3163e-05,0
1.982,2.1317e-05,0
1.9825,2.0478e-05,0
1.983,2.4674e-05,0
1.9835,2.6184e-05,0
1.984,2.6017e-05,0
1.9845,2.7359e-05,0
1.985,2.5849e-05,0
1.9855,1.8967e-05,0
1.986,8.896e-06,0
1.9865,4.5319e-06,0
1.987,4.8676e-06,0
1.9875,4.8676e-06,0
1.988,3.357e-06,0
1.9885,5.8747e-06,0
1.989,9.2317e-06,0
1.9895,1.1078e-05,0
1.99,1.4603e-05,0
1.9905,1.5274e-05,0
1.991,1.2589e-05,0
1.9915,1.4099e-05,0
1.992,1.6281e-05,0
1.9925,1.5946e-05,0
1.993,1.5946e-05,0
1.9935,1.5106e-05,0
1.994,1.3764e-05,0
1.9945,1.5946e-05,0
1.995,2.1149e-05,0
1.9955,2.6688e-05,0
1.996,3.1891e-05,0
1.9965,3.2059e-05,0
1.997,2.8367e-05,0
1.9975,3.0716e-05,0
1.998,3.7766e-05,0
1.9985,4.0116e-05,0
1.999,3.6423e-05,0
1.9995,2.9374e-05,0
2,2.8534e-05,0
2.0005,2.9038e-05,0
2.001,2.6352e-05,0
2.0015,1.6449e-05,0
2.002,1.5106e-06,0
2.0025,-1.4099e-05,0
2.003,-2.2324e-05,0
2.0035,-2.5345e-05,0
2.004,-2.8031e-05,0
2.0045,-2.3667e-05,0
2.005,-1.8967e-05,0
2.0055,-1.2924e-05,0
2.006,2.5177e-06,0
2.0065,1.7624e-05,0
2.007,2.4002e-05,0
2.0075,2.5009e-05,0
2.008,1.9303e-05,0
2.0085,1.5106e-05,0
2.009,2.2492e-05,0
2.0095,3.0045e-05,0
2.01,2.5345e-05,0
2.0105,1.2085e-05,0
2.011,6.8818e-06,0
2.0115,1.5106e-05,0
2.012,2.3499e-05,0
2.0125,2.2324e-05,0
2.013,1.0575e-05,0
2.0135,-4.5319e-06,0
2.014,-1.0575e-05,0
2.0145,-1.5106e-06,0
2.015,9.0639e-06,0
2.0155,1.3932e-05,0
2.016,1.8463e-05,0
2.0165,2.6017e-05,0
2.017,3.2059e-05,0
2.0175,3.8605e-05,0
2.018,4.4144e-05,0
2.0185,5.1362e-05,0
2.019,6.479e-05,0
2.0195,7.6707e-05,0
2.02,7.8721e-05,0
2.0205,7.7211e-05,0
2.021,6.8147e-05,0
2.0215,5.388e-05,0
2.022,4.5823e-05,0
2.0225,3.9109e-05,0
2.023,2.6688e-05,0
2.0235,1.2253e-05,0
2.024,8.2246e-06,0
2.0245,6.3783e-06,0
2.025,-5.035e-07,0
2.0255,-7.5532e-06,0
2.026,-1.2253e-05,0
2.0265,-1.5274e-05,0
2.027,-1.4099e-05,0
2.0275,-3.1891e-06,0
2.028,1.1917e-05,0
2.0285,2.3835e-05,0
2.029,3.5416e-05,0
2.0295,4.5823e-05,0
2.03,5.1362e-05,0
2.0305,6.0929e-05,0
2.031,6.8315e-05,0
2.0315,6.8986e-05,0
2.032,6.5629e-05,0
2.0325,5.8244e-05,0
2.033,5.2201e-05,0
2.0335,5.0187e-05,0
2.034,4.2466e-05,0
2.0345,3.0381e-05,0
2.035,2.4002e-05,0
2.0355,2.4506e-05,0
2.036,2.5345e-05,0
2.0365,1.9974e-05,0
2.037,1.2253e-05,0
2.0375,5.2033e-06,0
2.038,-8.3925e-06,0
2.0385,-3.0716e-05,0
2.039,-4.3473e-05,0
2.0395,-3.978e-05,0
2.04,-2.4506e-05,0
2.0405,-7.3854e-06,0
2.041,2.182e-06,0
2.0415,3.8605e-06,0
2.042,2.182e-06,0
2.0425,-2.8534e-06,0
2.043,-9.5674e-06,0
2.0435,-8.3925e-06,0
2.044,-4.1962e-06,0
2.0445,-4.1962e-06,0
2.045,-3.5248e-06,0
2.0455,-3.8605e-06,0
2.046,-4.8676e-06,0
2.0465,-6.3783e-06,0
2.047,-8.5603e-06,0
2.0475,-9.3996e-06,0
2.048,-3.1891e-06,0
2.0485,9.0639e-06,0
2.049,2.0646e-05,0
2.0495,2.9374e-05,0
2.05,3.827e-05,0
2.0505,4.2802e-05,0
2.051,4.5151e-05,0
2.0515,4.7501e-05,0
2.052,4.3473e-05,0
2.0525,3.6759e-05,0
2.053,3.3234e-05,0
2.0535,3.3402e-05,0
2.054,3.6088e-05,0
2.0545,3.6423e-05,0
2.055,3.0716e-05,0
2.0555,1.6617e-05,0
2.056,0,0
2.0565,-9.5674e-06,0
2.057,-1.6953e-05,0
2.0575,-2.6856e-05,0
2.058,-3.5584e-05,0
2.0585,-4.7166e-05,0
2.059,-5.3544e-05,0
2.0595,-4.6494e-05,0
2.06,-3.1388e-05,0
2.0605,-1.6449e-05,0
2.061,-5.539e-06,0
2.0615,1.678e-07,0
2.062,3.1891e-06,0
2.0625,7.2175e-06,0
2.063,8.7282e-06,0
2.0635,1.1917e-05,0
2.064,1.7288e-05,0
2.0645,2.6352e-05,0
2.065,3.5248e-05,0
2.0655,3.9109e-05,0
2.066,4.1459e-05,0
2.0665,4.2298e-05,0
2.067,3.3234e-05,0
2.0675,1.8631e-05,0
2.068,1.0071e-05,0
2.0685,9.2317e-06,0
2.069,1.2421e-05,0
2.0695,1.8967e-05,0
2.07,2.0646e-05,0
2.0705,1.7288e-05,0
2.071,1.0239e-05,0
2.0715,1.8463e-06,0
2.072,3.0213e-06,0
2.0725,1.8631e-05,0
2.073,2.8702e-05,0
2.0735,2.5849e-05,0
2.074,2.4002e-05,0
2.0745,2.7863e-05,0
2.075,3.4577e-05,0
2.0755,4.0955e-05,0
2.076,4.6159e-05,0
2.0765,4.8173e-05,0
2.077,4.683e-05,0
2.0775,4.5823e-05,0
2.078,4.683e-05,0
2.0785,5.4887e-05,0
2.079,6.3615e-05,0
2.0795,6.6636e-05,0
2.08,6.6636e-05,0
2.0805,6.8986e-05,0
2.081,7.3518e-05,0
2.0815,7.2847e-05,0
2.082,6.5629e-05,0
2.0825,6.3447e-05,0
2.083,6.2608e-05,0
2.0835,5.6062e-05,0
2.084,5.2201e-05,0
2.0845,5.5558e-05,0
2.085,6.1601e-05,0
2.0855,6.3447e-05,0
2.086,5.4551e-05,0
2.0865,4.8844e-05,0
2.087,4.9012e-05,0
2.0875,4.3809e-05,0
2.088,3.6759e-05,0
2.0885,3.8437e-05,0
2.089,4.4816e-05,0
2.0895,4.7166e-05,0
2.09,4.5151e-05,0
2.0905,4.2802e-05,0
2.091,4.1459e-05,0
2.0915,3.4409e-05,0
2.092,1.9974e-05,0
2.0925,1.5106e-06,0
2.093,-1.3596e-05,0
2.0935,-2.3163e-05,0
2.094,-2.7695e-05,0
2.0945,-3.508e-05,0
2.095,-5.2537e-05,0
2.0955,-6.1936e-05,0
2.096,-5.8579e-05,0
2.0965,-5.4719e-05,0
2.097,-5.6901e-05,0
2.0975,-7.1672e-05,0
2.098,-8.5435e-05,0
2.0985,-7.335e-05,0
2.099,-4.6998e-05,0
2.0995,-1.3596e-05,0
2.1,2.4002e-05,0
2.1005,5.0523e-05,0
2.101,6.3615e-05,0
2.1015,7.1e-05,0
2.102,7.1672e-05,0
2.1025,6.7308e-05,0
2.103,6.1601e-05,0
2.1035,5.3208e-05,0
2.104,4.8173e-05,0
2.1045,5.1865e-05,0
2.105,5.7572e-05,0
2.1055,5.9419e-05,0
2.106,5.9587e-05,0
2.1065,5.7237e-05,0
2.107,4.5319e-05,0
2.1075,2.6017e-05,0
2.108,1.1078e-05,0
2.1085,6.5461e-06,0
2.109,0,0
2.1095,-5.8747e-06,0
2.11,-8.392e-07,0
2.1105,4.5319e-06,0
2.111,4.1962e-06,0
2.1115,8.3925e-06,0
2.112,1.8296e-05,0
2.1125,2.4674e-05,0
2.113,1.7792e-05,0
2.1135,-6.714e-07,0
2.114,-1.2253e-05,0
2.1145,-8.896e-06,0
2.115,2.0142e-06,0
2.1155,1.0407e-05,0
2.116,1.3596e-05,0
2.1165,1.1917e-05,0
2.117,1.1246e-05,0
2.1175,1.6953e-05,0
2.118,2.266e-05,0
2.1185,2.4842e-05,0
2.119,2.8367e-05,0
2.1195,3.1052e-05,0
2.12,3.2059e-05,0
2.1205,3.0549e-05,0
2.121,2.6856e-05,0
2.1215,1.9638e-05,0
2.122,4.5319e-06,0
2.1225,-1.3932e-05,0
2.123,-2.0981e-05,0
2.1235,-6.5461e-06,0
2.124,2.0646e-05,0
2.1245,4.213e-05,0
2.125,4.2466e-05,0
2.1255,2.5681e-05,0
2.126,1.0407e-05,0
2.1265,2.8534e-06,0
2.127,-6.2104e-06,0
2.1275,-1.6785e-05,0
2.128,-2.4002e-05,0
2.1285,-2.6017e-05,0
2.129,-2.5009e-05,0
2.1295,-2.5009e-05,0
2.13,-2.031e-05,0
2.1305,-6.8818e-06,0
2.131,4.5319e-06,0
2.1315,7.5532e-06,0
2.132,1.0575e-05,0
2.1325,1.6785e-05,0
2.133,1.7288e-05,0
2.1335,6.2104e-06,0
2.134,5.035e-07,0
2.1345,1.5946e-05,0
2.135,3.6423e-05,0
2.1355,4.5487e-05,0
2.136,4.7669e-05,0
2.1365,4.0787e-05,0
2.137,3.4073e-05,0
2.1375,4.0116e-05,0
2.138,4.6159e-05,0
2.1385,3.3066e-05,0
2.139,1.6785e-05,0
2.1395,1.2085e-05,0
2.14,1.7121e-05,0
2.1405,3.2731e-05,0
2.141,5.1362e-05,0
2.1415,6.0594e-05,0
2.142,6.479e-05,0
2.1425,6.6804e-05,0
2.143,6.2608e-05,0
2.1435,5.2537e-05,0
2.144,4.0619e-05,0
2.1445,3.7934e-05,0
2.145,4.4144e-05,0
2.1455,4.5487e-05,0
2.146,3.6591e-05,0
2.1465,2.1317e-05,0
2.147,2.8534e-06,0
2.1475,-5.539e-06,0
2.148,-2.182e-06,0
2.1485,-1.1749e-06,0
2.149,-1.1246e-05,0
2.1495,-2.1485e-05,0
2.15,-2.031e-05,0
2.1505,-9.7353e-06,0
2.151,-3.5248e-06,0
2.1515,-5.0355e-06,0
2.152,-5.539e-06,0
2.1525,8.392e-07,0
2.153,1.1582e-05,0
2.1535,1.9638e-05,0
2.154,2.7024e-05,0
2.1545,3.508e-05,0
2.155,4.2802e-05,0
2.1555,5.1362e-05,0
2.156,5.4719e-05,0
2.1565,5.153e-05,0
2.157,4.5151e-05,0
2.1575,4.1123e-05,0
2.158,4.0452e-05,0
2.1585,3.5752e-05,0
2.159,2.9038e-05,0
2.1595,2.0646e-05,0
2.16,1.2253e-05,0
2.1605,6.714e-06,0
2.161,1.6785e-06,0
2.1615,-7.0497e-06,0
2.162,-1.5778e-05,0
2.1625,-2.3163e-05,0
2.163,-2.9038e-05,0
2.1635,-2.4338e-05,0
2.164,-6.5461e-06,0
2.1645,2.1317e-05,0
2.165,5.5894e-05,0
2.1655,7.7378e-05,0
2.166,8.1071e-05,0
2.1665,7.7211e-05,0
2.167,7.3014e-05,0
2.1675,6.5629e-05,0
2.168,5.388e-05,0
2.1685,4.3137e-05,0
2.169,3.3738e-05,0
2.1695,1.8296e-05,0
2.17,-3.1891e-06,0
2.1705,-1.091e-05,0
2.171,-3.357e-06,0
2.1715,-4.8676e-06,0
2.172,-2.652e-05,0
2.1725,-5.4719e-05,0
2.173,-6.9993e-05,0
2.1735,-5.7572e-05,0
2.174,-2.8702e-05,0
2.1745,-3.357e-07,0
2.175,2.0981e-05,0
2.1755,3.0549e-05,0
2.176,3.0716e-05,0
2.1765,3.0045e-05,0
2.177,2.8199e-05,0
2.1775,2.7359e-05,0
2.178,2.8702e-05,0
2.1785,2.3331e-05,0
2.179,1.5946e-05,0
2.1795,1.4603e-05,0
2.18,1.9974e-05,0
2.1805,2.6352e-05,0
2.181,2.8702e-05,0
2.1815,2.9206e-05,0
2.182,3.5752e-05,0
2.1825,5.0187e-05,0
2.183,6.2944e-05,0
2.1835,6.5965e-05,0
2.184,6.2608e-05,0
2.1845,6.0761e-05,0
2.185,6.1936e-05,0
2.1855,5.9754e-05,0
2.186,5.3544e-05,0
2.1865,5.7237e-05,0
2.187,7.0329e-05,0
2.1875,7.6204e-05,0
2.188,6.8315e-05,0
2.1885,4.8676e-05,0
2.189,3.2059e-05,0
2.1895,2.031e-05,0
2.19,1.678e-07,0
2.1905,-1.6617e-05,0
2.191,-1.1246e-05,0
2.1915,5.2033e-06,0
2.192,1.6617e-05,0
2.1925,2.9374e-05,0
2.193,4.918e-05,0
2.1935,5.4551e-05,0
2.194,2.9877e-05,0
2.1945,-2.5177e-06,0
2.195,-2.6856e-05,0
2.1955,-4.3809e-05,0
2.196,-4.5823e-05,0
2.1965,-3.0716e-05,0
2.197,-6.0426e-06,0
2.1975,1.3932e-05,0
2.198,1.6617e-05,0
2.1985,2.8534e-06,0
2.199,-2.266e-05,0
2.1995,-5.0019e-05,0
2.2,-7.2679e-05,0
2.2005,-7.3182e-05,0
2.201,-4.3137e-05,0
2.2015,-8.7282e-06,0
2.202,9.7353e-06,0
2.2025,1.5946e-05,0
2.203,9.7353e-06,0
2.2035,3.357e-06,0
2.204,1.1246e-05,0
2.2045,2.4842e-05,0
2.205,4.6159e-05,0
2.2055,7.5029e-05,0
2.206,8.896e-05,0
2.2065,7.5868e-05,0
2.207,5.0858e-05,0
2.2075,2.8702e-05,0
2.208,1.6617e-05,0
2.2085,1.1917e-05,0
2.209,9.5674e-06,0
2.2095,5.7069e-06,0
2.21,-1.5106e-06,0
2.2105,-1.3596e-05,0
2.211,-2.5849e-05,0
2.2115,-3.3066e-05,0
2.212,-2.3667e-05,0
2.2125,6.8818e-06,0
2.213,3.5416e-05,0
2.2135,4.4816e-05,0
2.214,4.5151e-05,0
2.2145,4.9851e-05,0
2.215,5.7404e-05,0
2.2155,6.1433e-05,0
2.216,5.8076e-05,0
2.2165,5.153e-05,0
2.217,4.918e-05,0
2.2175,5.1865e-05,0
2.218,5.0187e-05,0
2.2185,4.2466e-05,0
2.219,3.3402e-05,0
2.2195,3.0381e-05,0
2.22,4.2466e-05,0
2.2205,5.623e-05,0
2.221,5.0523e-05,0
2.2215,2.8367e-05,0
2.222,2.2324e-05,0
2.2225,3.4745e-05,0
2.223,4.213e-05,0
2.2235,3.0716e-05,0
2.224,0,0
2.2245,-3.357e-05,0
2.225,-6.0761e-05,0
2.2255,-8.1407e-05,0
2.226,-8.1407e-05,0
2.2265,-6.0258e-05,0
2.227,-4.2802e-05,0
2.2275,-3.8437e-05,0
2.228,-3.0213e-05,0
2.2285,-7.5532e-06,0
2.229,1.1246e-05,0
2.2295,1.6617e-05,0
2.23,1.2253e-05,0
2.2305,2.3499e-06,0
2.231,-1.6785e-06,0
2.2315,8.2246e-06,0
2.232,2.4002e-05,0
2.2325,3.592e-05,0
2.233,4.213e-05,0
2.2335,4.683e-05,0
2.234,4.6662e-05,0
2.2345,3.9445e-05,0
2.235,3.1388e-05,0
2.2355,2.9206e-05,0
2.236,3.978e-05,0
2.2365,5.4048e-05,0
2.237,5.8244e-05,0
2.2375,5.2201e-05,0
2.238,4.6494e-05,0
2.2385,5.1362e-05,0
2.239,6.1601e-05,0
2.2395,6.9657e-05,0
2.24,7.5364e-05,0
2.2405,7.2007e-05,0
2.241,5.7572e-05,0
2.2415,4.6494e-05,0
2.242,5.0523e-05,0
2.2425,7.335e-05,0
2.243,9.8863e-05,0
2.2435,0.0001034,0
2.244,9.4163e-05,0
2.2445,8.51e-05,0
2.245,7.9057e-05,0
2.2455,6.3783e-05,0
2.246,3.0549e-05,0
2.2465,-1.0239e-05,0
2.247,-3.4409e-05,0
2.2475,-3.5752e-05,0
2.248,-3.2059e-05,0
2.2485,-4.6326e-05,0
2.249,-8.4093e-05,0
2.2495,-0.00011951,0
2.25,-0.00012908,0
2.2505,-0.00011128,0
2.251,-8.4932e-05,0
2.2515,-5.3544e-05,0
2.252,-2.4002e-05,0
2.2525,-4.3641e-06,0
2.253,9.9031e-06,0
2.2535,1.7624e-05,0
2.254,2.2995e-05,0
2.2545,2.9709e-05,0
2.255,2.8367e-05,0
2.2555,2.1988e-05,0
2.256,1.8631e-05,0
2.2565,1.3092e-05,0
2.257,2.5177e-06,0
2.2575,-8.5603e-06,0
2.258,-7.8889e-06,0
2.2585,9.3996e-06,0
2.259,3.2059e-05,0
2.2595,4.0787e-05,0
2.26,3.2563e-05,0
2.2605,2.0646e-05,0
2.261,2.2995e-05,0
2.2615,4.1123e-05,0
2.262,6.2272e-05,0
2.2625,7.4357e-05,0
2.263,8.3589e-05,0
2.2635,9.2989e-05,0
2.264,0.00010021,0
2.2645,0.00011397,0
2.265,0.0001326,0
2.2655,0.00014821,0
2.266,0.00016097,0
2.2665,0.000165,0
2.267,0.00015358,0
2.2675,0.00014284,0
2.268,0.0001378,0
2.2685,0.00012454,0
2.269,8.8457e-05,0
2.2695,2.4338e-05,0
2.27,-5.1362e-05,0
2.2705,-0.00010021,0
2.271,-0.00011028,0
2.2715,-0.0001039,0
2.272,-8.6107e-05,0
2.2725,-5.304e-05,0
2.273,-2.5513e-05,0
2.2735,-2.4338e-05,0
2.274,-5.1865e-05,0
2.2745,-9.5506e-05,0
2.275,-0.00013193,0
2.2755,-0.00014888,0
2.276,-0.00015207,0
2.2765,-0.00014418,0
2.277,-0.00012824,0
2.2775,-0.00010356,0
2.278,-6.7308e-05,0
2.2785,-2.1317e-05,0
2.279,2.4338e-05,0
2.2795,4.9348e-05,0
2.28,5.0858e-05,0
2.2805,4.4816e-05,0
2.281,4.1459e-05,0
2.2815,4.0116e-05,0
2.282,4.1123e-05,0
2.2825,3.6759e-05,0
2.283,3.0381e-05,0
2.2835,2.3331e-05,0
2.284,5.2033e-06,0
2.2845,-1.8296e-05,0
2.285,-2.3331e-05,0
2.2855,2.182e-06,0
2.286,4.8005e-05,0
2.2865,9.0639e-05,0
2.287,0.00011313,0
2.2875,0.00010961,0
2.288,9.1814e-05,0
2.2885,7.2343e-05,0
2.289,4.5319e-05,0
2.2895,1.326e-05,0
2.29,-6.8818e-06,0
2.2905,-8.896e-06,0
2.291,-3.5248e-06,0
2.2915,-1.091e-05,0
2.292,-3.5416e-05,0
2.2925,-5.1194e-05,0
2.293,-3.5416e-05,0
2.2935,3.5248e-06,0
2.294,4.1123e-05,0
2.2945,7.1e-05,0
2.295,9.601e-05,0
2.2955,0.00011078,0
2.296,0.00011498,0
2.2965,0.00011498,0
2.297,0.00010994,0
2.2975,0.00010222,0
2.298,8.8457e-05,0
2.2985,6.6972e-05,0
2.299,4.8676e-05,0
2.2995,4.0284e-05,0
2.3,3.6759e-05,0
2.3005,3.743e-05,0
2.301,3.9277e-05,0
2.3015,2.7863e-05,0
2.302,4.5319e-06,0
2.3025,-2.266e-05,0
2.303,-4.8173e-05,0
2.3035,-6.0761e-05,0
2.304,-5.5894e-05,0
2.3045,-4.2298e-05,0
2.305,-3.3402e-05,0
2.3055,-4.0787e-05,0
2.306,-5.6733e-05,0
2.3065,-6.949e-05,0
2.307,-7.1672e-05,0
2.3075,-6.1433e-05,0
2.308,-3.6423e-05,0
2.3085,6.714e-07,0
2.309,3.6759e-05,0
2.3095,5.069e-05,0
2.31,4.4984e-05,0
2.3105,4.2634e-05,0
2.311,5.0858e-05,0
2.3115,5.4383e-05,0
2.312,4.4144e-05,0
2.3125,2.266e-05,0
2.313,5.035e-07,0
2.3135,-1.326e-05,0
2.314,-7.5532e-06,0
2.3145,2.1317e-05,0
2.315,5.4887e-05,0
2.3155,7.1e-05,0
2.316,6.8315e-05,0
2.3165,6.4622e-05,0
2.317,6.4286e-05,0
2.3175,6.5461e-05,0
2.318,6.6972e-05,0
2.3185,6.7475e-05,0
2.319,7.6036e-05,0
2.3195,9.7856e-05,0
2.32,0.000118,0
2.3205,0.00012673,0
2.321,0.00012975,0
2.3215,0.00012874,0
2.322,0.00011565,0
2.3225,8.1071e-05,0
2.323,3.2898e-05,0
2.3235,-8.2246e-06,0
2.324,-3.1724e-05,0
2.3245,-3.978e-05,0
2.325,-3.1052e-05,0
2.3255,-1.8631e-05,0
2.326,-1.7792e-05,0
2.3265,-2.3331e-05,0
2.327,-2.031e-05,0
2.3275,-2.1988e-05,0
2.328,-4.3137e-05,0
2.3285,-8.2078e-05,0
2.329,-0.0001044,0
2.3295,-7.5364e-05,0
2.33,-2.031e-05,0
2.3305,9.7353e-06,0
2.331,1.561e-05,0
2.3315,1.5274e-05,0
2.332,1.2924e-05,0
2.3325,6.5461e-06,0
2.333,-5.8747e-06,0
2.3335,-1.0575e-05,0
2.334,-3.1891e-06,0
2.3345,7.7211e-06,0
2.335,2.1988e-05,0
2.3355,3.9948e-05,0
2.336,4.4648e-05,0
2.3365,3.743e-05,0
2.337,4.7333e-05,0
2.3375,7.9057e-05,0
2.338,0.00011246,0
2.3385,0.00013411,0
2.339,0.00013848,0
2.3395,0.00012404,0
2.34,9.0806e-05,0
2.3405,4.4984e-05,0
2.341,-7.2175e-06,0
2.3415,-4.1795e-05,0
2.342,-4.1459e-05,0
2.3425,-1.3428e-05,0
2.343,2.2828e-05,0
2.3435,5.0187e-05,0
2.344,6.3615e-05,0
2.3445,6.0426e-05,0
2.345,3.6591e-05,0
2.3455,1.1749e-06,0
2.346,-3.7934e-05,0
2.3465,-6.8818e-05,0
2.347,-7.2847e-05,0
2.3475,-5.1194e-05,0
2.348,-2.0142e-05,0
2.3485,1.0575e-05,0
2.349,3.0716e-05,0
2.3495,4.1459e-05,0
2.35,4.3809e-05,0
2.3505,3.5416e-05,0
2.351,2.7024e-05,0
2.3515,3.5416e-05,0
2.352,6.3279e-05,0
2.3525,9.0974e-05,0
2.353,9.3156e-05,0
2.3535,6.1433e-05,0
2.354,1.1246e-05,0
2.3545,-3.5584e-05,0
2.355,-6.5629e-05,0
2.3555,-6.3615e-05,0
2.356,-3.5752e-05,0
2.3565,-3.357e-06,0
2.357,1.1917e-05,0
2.3575,6.2104e-06,0
2.358,-1.1749e-06,0
2.3585,-1.678e-07,0
2.359,3.8605e-06,0
2.3595,-6.5461e-06,0
2.36,-3.6927e-05,0
2.3605,-7.5364e-05,0
2.361,-0.00010138,0
2.3615,-0.00010759,0
2.362,-8.9128e-05,0
2.3625,-5.6565e-05,0
2.363,-2.9709e-05,0
2.3635,-5.2033e-06,0
2.364,2.7695e-05,0
2.3645,6.2104e-05,0
2.365,7.9393e-05,0
2.3655,7.4021e-05,0
2.366,5.6901e-05,0
2.3665,3.5248e-05,0
2.367,3.6927e-06,0
2.3675,-3.3066e-05,0
2.368,-3.6927e-05,0
2.3685,1.1582e-05,0
2.369,6.5126e-05,0
2.3695,7.3686e-05,0
2.37,4.1795e-05,0
2.3705,3.6927e-06,0
2.371,-9.5674e-06,0
2.3715,-3.5248e-06,0
2.372,-1.0071e-06,0
2.3725,5.2033e-06,0
2.373,2.5849e-05,0
2.3735,5.5894e-05,0
2.374,8.1575e-05,0
2.3745,9.0303e-05,0
2.375,8.2918e-05,0
2.3755,8.4428e-05,0
2.376,0.00010507,0
2.3765,0.0001279,0
2.377,0.00013277,0
2.3775,0.00012001,0
2.378,0.00010021,0
2.3785,7.1504e-05,0
2.379,3.0045e-05,0
2.3795,-7.7211e-06,0
2.38,-6.8818e-06,0
2.3805,2.652e-05,0
2.381,6.4286e-05,0
2.3815,9.7856e-05,0
2.382,0.00011934,0
2.3825,0.00013411,0
2.383,0.00015023,0
2.3835,0.0001472,0
2.384,0.00011229,0
2.3845,6.3447e-05,0
2.385,2.1317e-05,0
2.3855,-4.8676e-06,0
2.386,-1.2253e-05,0
2.3865,-1.4267e-05,0
2.387,-1.8631e-05,0
2.3875,-3.1388e-05,0
2.388,-5.8076e-05,0
2.3885,-8.745e-05,0
2.389,-0.00011263,0
2.3895,-0.00013042,0
2.39,-0.00013579,0
2.3905,-0.00014553,0
2.391,-0.00016667,0
2.3915,-0.00017406,0
2.392,-0.00014989,0
2.3925,-0.00011028,0
2.393,-6.7979e-05,0
2.3935,-2.9038e-05,0
2.394,-1.8463e-06,0
2.3945,1.5946e-05,0
2.395,3.2731e-05,0
2.3955,5.8076e-05,0
2.396,8.6442e-05,0
2.3965,0.00010457,0
2.397,0.00010726,0
2.3975,9.8863e-05,0
2.398,8.0064e-05,0
2.3985,5.0858e-05,0
2.399,2.5345e-05,0
2.3995,3.3738e-05,0
2.4,8.3085e-05,0
2.4005,0.00014435,0
2.401,0.0001754,0
2.4015,0.00016768,0
2.402,0.00013814,0
2.4025,9.7856e-05,0
2.403,5.7572e-05,0
2.4035,3.4913e-05,0
2.404,3.0213e-05,0
2.4045,3.1388e-05,0
2.405,2.4506e-05,0
2.4055,-1.0239e-05,0
2.406,-6.5461e-05,0
2.4065,-0.0001039,0
2.407,-0.00010977,0
2.4075,-9.7185e-05,0
2.408,-7.335e-05,0
2.4085,-3.743e-05,0
2.409,-3.357e-07,0
2.4095,1.3932e-05,0
2.41,9.9031e-06,0
2.4105,1.1749e-06,0
2.411,-1.2589e-05,0
2.4115,-2.3667e-05,0
2.412,-1.7456e-05,0
2.4125,-1.8463e-06,0
2.413,1.4099e-05,0
2.4135,2.7695e-05,0
2.414,3.8773e-05,0
2.4145,4.3809e-05,0
2.415,3.4577e-05,0
2.4155,7.8889e-06,0
2.416,-8.896e-06,0
2.4165,6.714e-07,0
2.417,1.5106e-05,0
2.4175,2.3667e-05,0
2.418,3.1724e-05,0
2.4185,3.9277e-05,0
2.419,3.8102e-05,0
2.4195,2.9709e-05,0
2.42,2.3499e-05,0
2.4205,1.8967e-05,0
2.421,7.8889e-06,0
2.4215,2.8534e-06,0
2.422,1.6785e-05,0
2.4225,3.1891e-05,0
2.423,3.4745e-05,0
2.4235,3.9445e-05,0
2.424,5.4215e-05,0
2.4245,6.5461e-05,0
2.425,6.9322e-05,0
2.4255,7.1839e-05,0
2.426,7.9057e-05,0
2.4265,8.5771e-05,0
2.427,7.5868e-05,0
2.4275,4.8173e-05,0
2.428,1.7288e-05,0
2.4285,-7.7211e-06,0
2.429,-1.091e-05,0
2.4295,1.6953e-05,0
2.43,4.9515e-05,0
2.4305,6.9657e-05,0
2.431,7.9057e-05,0
2.4315,7.4861e-05,0
2.432,5.5558e-05,0
2.4325,3.0884e-05,0
2.433,1.0575e-05,0
2.4335,5.8747e-06,0
2.434,7.2175e-06,0
2.4345,5.2033e-06,0
2.435,1.1078e-05,0
2.4355,2.4674e-05,0
2.436,4.3305e-05,0
2.4365,6.5461e-05,0
2.437,8.1071e-05,0
2.4375,8.8457e-05,0
2.438,8.7114e-05,0
2.4385,6.9657e-05,0
2.439,2.1317e-05,0
2.4395,-5.2201e-05,0
2.44,-0.00011347,0
2.4405,-0.00012941,0
2.441,-0.00010726,0
2.4415,-7.2007e-05,0
2.442,-4.3137e-05,0
2.4425,-1.6449e-05,0
2.443,1.326e-05,0
2.4435,4.1962e-05,0
2.444,5.4719e-05,0
2.4445,3.8102e-05,0
2.445,5.539e-06,0
2.4455,-2.031e-05,0
2.446,-2.2324e-05,0
2.4465,-4.1962e-06,0
2.447,4.8676e-06,0
2.4475,-1.8128e-05,0
2.448,-5.0858e-05,0
2.4485,-5.9251e-05,0
2.449,-2.5177e-05,0
2.4495,4.0452e-05,0
2.45,0.00010977,0
2.4505,0.00016701,0
2.451,0.00019118,0
2.4515,0.00018228,0
2.452,0.00017305,0
2.4525,0.00017507,0
2.453,0.00017339,0
2.4535,0.00014855,0
2.454,0.00010726,0
2.4545,6.6972e-05,0
2.455,1.4435e-05,0
2.4555,-6.8986e-05,0
2.456,-0.00016349,0
2.4565,-0.00020679,0
2.457,-0.00017641,0
2.4575,-0.00011514,0
2.458,-7.0329e-05,0
2.4585,-5.7908e-05,0
2.459,-5.6062e-05,0
2.4595,-3.9277e-05,0
2.46,-6.2104e-06,0
2.4605,3.0381e-05,0
2.461,5.0523e-05,0
2.4615,2.8031e-05,0
2.462,-2.3163e-05,0
2.4625,-4.4984e-05,0
2.463,-2.7359e-05,0
2.4635,-2.5177e-06,0
2.464,2.0142e-05,0
2.4645,5.8244e-05,0
2.465,9.7856e-05,0
2.4655,9.4835e-05,0
2.466,5.8915e-05,0
2.4665,4.7166e-05,0
2.467,6.9154e-05,0
2.4675,7.3518e-05,0
2.468,4.3305e-05,0
2.4685,1.9135e-05,0
2.469,7.5532e-06,0
2.4695,-2.8367e-05,0
2.47,-6.6972e-05,0
2.4705,-5.1865e-05,0
2.471,1.6953e-05,0
2.4715,8.8457e-05,0
2.472,0.00011632,0
2.4725,9.7856e-05,0
2.473,6.0929e-05,0
2.4735,1.7121e-05,0
2.474,-5.2537e-05,0
2.4745,-0.00013008,0
2.475,-0.00016181,0
2.4755,-0.00014049,0
2.476,-8.4428e-05,0
2.4765,-2.0813e-05,0
2.477,3.1052e-05,0
2.4775,5.304e-05,0
2.478,4.9515e-05,0
2.4785,5.1865e-05,0
2.479,7.2511e-05,0
2.4795,9.5674e-05,0
2.48,0.00010558,0
2.4805,9.3996e-05,0
2.481,7.4357e-05,0
2.4815,6.7643e-05,0
2.482,7.335e-05,0
2.4825,7.0832e-05,0
2.483,5.8244e-05,0
2.4835,4.6159e-05,0
2.484,2.182e-05,0
2.4845,-2.7192e-05,0
2.485,-7.0664e-05,0
2.4855,-7.4021e-05,0
2.486,-4.6662e-05,0
2.4865,-9.7353e-06,0
2.487,3.0213e-05,0
2.4875,5.6733e-05,0
2.488,6.1433e-05,0
2.4885,5.623e-05,0
2.489,4.8173e-05,0
2.4895,3.743e-05,0
2.49,2.8702e-05,0
2.4905,2.4842e-05,0
2.491,2.031e-05,0
2.4915,-8.3925e-06,0
2.492,-6.949e-05,0
2.4925,-0.00012538,0
2.493,-0.00012908,0
2.4935,-7.7546e-05,0
2.494,-8.2246e-06,0
2.4945,5.4383e-05,0
2.495,9.601e-05,0
2.4955,0.00011514,0
2.496,0.00012203,0
2.4965,0.00012538,0
2.497,0.00012404,0
2.4975,0.00010591,0
2.498,7.3518e-05,0
2.4985,3.2731e-05,0
2.499,-1.7456e-05,0
2.4995,-5.304e-05,0
2.5,-4.0787e-05,0
2.5005,-8.392e-07,0
2.501,2.9038e-05,0
2.5015,4.8508e-05,0
2.502,5.5055e-05,0
2.5025,2.9877e-05,0
2.503,-1.3932e-05,0
2.5035,-2.7863e-05,0
2.504,-8.392e-07,0
2.5045,2.8031e-05,0
2.505,3.7095e-05,0
2.5055,4.0787e-05,0
2.506,4.683e-05,0
2.5065,5.1865e-05,0
2.507,5.2872e-05,0
2.5075,6.2272e-05,0
2.508,9.4835e-05,0
2.5085,0.00012924,0
2.509,0.00013411,0
2.5095,9.9031e-05,0
2.51,4.8676e-05,0
2.5105,2.2995e-05,0
2.511,2.3163e-05,0
2.5115,3.978e-05,0
2.512,3.0045e-05,0
2.5125,-6.1769e-05,0
2.513,-0.00019907,0
2.5135,-0.00028283,0
2.514,-0.00027964,0
2.5145,-0.00024154,0
2.515,-0.00019437,0
2.5155,-0.00011934,0
2.516,-2.1653e-05,0
2.5165,4.5991e-05,0
2.517,6.5293e-05,0
2.5175,6.3951e-05,0
2.518,5.0858e-05,0
2.5185,9.5674e-06,0
2.519,-3.4409e-05,0
2.5195,-3.4745e-05,0
2.52,2.5177e-06,0
2.5205,5.0187e-05,0
2.521,9.4163e-05,0
2.5215,0.00012975,0
2.522,0.00015291,0
2.5225,0.00016432,0
2.523,0.00017272,0
2.5235,0.00017473,0
2.524,0.00017104,0
2.5245,0.00017272,0
2.525,0.00015526,0
2.5255,8.3421e-05,0
2.526,-2.3667e-05,0
2.5265,-0.00010172,0
2.527,-9.0974e-05,0
2.5275,-9.2317e-06,0
2.528,6.0426e-05,0
2.5285,7.0161e-05,0
2.529,3.0045e-05,0
2.5295,-3.978e-05,0
2.53,-0.00010759,0
2.5305,-0.00014183,0
2.531,-0.00013881,0
2.5315,-9.4163e-05,0
2.532,-7.8889e-06,0
2.5325,8.3757e-05,0
2.533,0.00012992,0
2.5335,0.00011934,0
2.534,9.1142e-05,0
2.5345,6.7979e-05,0
2.535,4.3977e-05,0
2.5355,2.7359e-05,0
2.536,2.2492e-05,0
2.5365,0,0
2.537,-2.5681e-05,0
2.5375,-2.182e-06,0
2.538,4.5319e-05,0
2.5385,5.6062e-05,0
2.539,2.9374e-05,0
2.5395,8.392e-07,0
2.54,-5.539e-06,0
2.5405,1.0071e-05,0
2.541,2.8534e-05,0
2.5415,4.448e-05,0
2.542,6.3615e-05,0
2.5425,7.9393e-05,0
2.543,8.745e-05,0
2.5435,0.00010776,0
2.544,0.0001462,0
2.5445,0.00017037,0
2.545,0.00017406,0
2.5455,0.00016902,0
2.546,0.00013327,0
2.5465,5.4215e-05,0
2.547,-6.8818e-06,0
2.5475,1.8463e-06,0
2.548,2.4002e-05,0
2.5485,-3.9948e-05,0
2.549,-0.00019051,0
2.5495,-0.00027813,0
2.55,-0.00020797,0
2.5505,-6.8818e-05,0
2.551,1.4939e-05,0
2.5515,4.8508e-05,0
2.552,6.5629e-05,0
2.5525,5.0523e-05,0
2.553,1.2253e-05,0
2.5535,-1.4603e-05,0
2.554,-8.5603e-06,0
2.5545,1.326e-05,0
2.555,2.9038e-05,0
2.5555,3.6591e-05,0
2.556,2.0478e-05,0
2.5565,-2.8702e-05,0
2.557,-8.04e-05,0
2.5575,-0.00010054,0
2.558,-9.7017e-05,0
2.5585,-7.8386e-05,0
2.559,-2.6688e-05,0
2.5595,3.8773e-05,0
2.56,7.2343e-05,0
2.5605,6.479e-05,0
2.561,4.2802e-05,0
2.5615,3.4577e-05,0
2.562,4.1962e-05,0
2.5625,4.9348e-05,0
2.563,5.8579e-05,0
2.5635,7.8553e-05,0
2.564,9.8527e-05,0
2.5645,0.00011028,0
2.565,0.00011263,0
2.5655,9.8527e-05,0
2.566,7.2847e-05,0
2.5665,4.8676e-05,0
2.567,1.8631e-05,0
2.5675,-1.6617e-05,0
2.568,-3.2563e-05,0
2.5685,-2.0478e-05,0
2.569,4.1962e-06,0
2.5695,2.1653e-05,0
2.57,2.3835e-05,0
2.5705,1.8799e-05,0
2.571,2.0478e-05,0
2.5715,2.5345e-05,0
2.572,1.5106e-05,0
2.5725,-1.8296e-05,0
2.573,-4.3473e-05,0
2.5735,-3.3234e-05,0
2.574,-1.091e-05,0
2.5745,1.1414e-05,0
2.575,3.3066e-05,0
2.5755,4.0787e-05,0
2.576,2.3667e-05,0
2.5765,2.0142e-06,0
2.577,-7.3854e-06,0
2.5775,-1.5778e-05,0
2.578,-3.508e-05,0
2.5785,-5.3208e-05,0
2.579,-3.7095e-05,0
2.5795,5.2033e-06,0
2.58,2.7024e-05,0
2.5805,2.417e-05,0
2.581,2.9374e-05,0
2.5815,5.2537e-05,0
2.582,6.7475e-05,0
2.5825,6.4958e-05,0
2.583,5.2369e-05,0
2.5835,1.796e-05,0
2.584,-3.978e-05,0
2.5845,-6.6972e-05,0
2.585,-2.8031e-05,0
2.5855,3.0213e-05,0
2.586,6.0929e-05,0
2.5865,6.0929e-05,0
2.587,3.9109e-05,0
2.5875,2.031e-05,0
2.588,3.9277e-05,0
2.5885,7.0329e-05,0
2.589,6.63e-05,0
2.5895,3.8773e-05,0
2.59,1.4267e-05,0
2.5905,7.2175e-06,0
2.591,9.2317e-06,0
2.5915,-3.1891e-06,0
2.592,-1.561e-05,0
2.5925,-6.8818e-06,0
2.593,-8.3925e-06,0
2.5935,-2.9709e-05,0
2.594,-3.8605e-05,0
2.5945,-2.6017e-05,0
2.595,-1.6281e-05,0
2.5955,-2.8702e-05,0
2.596,-5.3376e-05,0
2.5965,-4.918e-05,0
2.597,-1.3428e-05,0
2.5975,3.592e-05,0
2.598,8.9632e-05,0
2.5985,0.00012387,0
2.599,0.00012152,0
2.5995,9.7185e-05,0
2.6,7.4693e-05,0
2.6005,7.0664e-05,0
2.601,7.7714e-05,0
2.6015,7.8386e-05,0
2.602,6.4958e-05,0
2.6025,3.9277e-05,0
2.603,6.2104e-06,0
2.6035,5.035e-07,0
2.604,2.3835e-05,0
2.6045,2.887e-05,0
2.605,6.8818e-06,0
2.6055,-2.0981e-05,0
2.606,-4.3305e-05,0
2.6065,-2.6688e-05,0
2.607,5.7069e-05,0
2.6075,0.00016768,0
2.608,0.00022475,0
2.6085,0.00019991,0
2.609,0.00012874,0
2.6095,3.1052e-05,0
2.61,-7.1336e-05,0
2.6105,-0.00014603,0
2.611,-0.00015778,0
2.6115,-0.00011431,0
2.612,-6.9657e-05,0
2.6125,-3.978e-05,0
2.613,-5.7069e-06,0
2.6135,2.5513e-05,0
2.614,2.9206e-05,0
2.6145,8.2246e-06,0
2.615,-9.5674e-06,0
2.6155,-1.1414e-05,0
2.616,-4.5319e-06,0
2.6165,1.1917e-05,0
2.617,4.8173e-05,0
2.6175,8.9464e-05,0
2.618,0.00012001,0
2.6185,0.00014116,0
2.619,0.0001509,0
2.6195,0.00015828,0
2.62,0.00017305,0
2.6205,0.00018379,0
2.621,0.00015409,0
2.6215,4.6159e-05,0
2.622,-0.00011766,0
2.6225,-0.00020897,0
2.623,-0.0001942,0
2.6235,-0.00015929,0
2.624,-0.00013982,0
2.6245,-9.8863e-05,0
2.625,-2.4338e-05,0
2.6255,4.8508e-05,0
2.626,9.8527e-05,0
2.6265,0.00011783,0
2.627,0.00010541,0
2.6275,6.8818e-05,0
2.628,2.4002e-05,0
2.6285,-1.0407e-05,0
2.629,-3.2731e-05,0
2.6295,-1.7792e-05,0
2.63,2.9877e-05,0
2.6305,6.5126e-05,0
2.631,7.1e-05,0
2.6315,6.2776e-05,0
2.632,5.0858e-05,0
2.6325,2.5177e-05,0
2.633,-5.388e-05,0
2.6335,-0.00017288,0
2.634,-0.000236,0
2.6345,-0.00018279,0
2.635,-6.7475e-05,0
2.6355,2.0981e-05,0
2.636,5.5222e-05,0
2.6365,7.1e-05,0
2.637,9.1142e-05,0
2.6375,0.00010625,0
2.638,9.9199e-05,0
2.6385,5.7908e-05,0
2.639,3.357e-06,0
2.6395,-1.4603e-05,0
2.64,1.7624e-05,0
2.6405,6.2608e-05,0
2.641,7.9728e-05,0
2.6415,7.0329e-05,0
2.642,4.6159e-05,0
2.6425,2.8534e-06,0
2.643,-2.5009e-05,0
2.6435,-5.539e-06,0
2.644,4.3977e-05,0
2.6445,8.3925e-05,0
2.645,8.191e-05,0
2.6455,3.4073e-05,0
2.646,-3.6759e-05,0
2.6465,-7.7378e-05,0
2.647,-4.2466e-05,0
2.6475,3.0549e-05,0
2.648,8.426e-05,0
2.6485,0.0001185,0
2.649,0.00013579,0
2.6495,0.00012152,0
2.65,8.5435e-05,0
2.6505,5.388e-05,0
2.651,3.8773e-05,0
2.6515,2.2828e-05,0
2.652,-2.4674e-05,0
2.6525,-8.426e-05,0
2.653,-8.6778e-05,0
2.6535,-4.1123e-05,0
2.654,-2.1988e-05,0
2.6545,-5.2872e-05,0
2.655,-8.51e-05,0
2.6555,-5.8244e-05,0
2.656,2.0981e-05,0
2.6565,7.9225e-05,0
2.657,6.244e-05,0
2.6575,-1.6281e-05,0
2.658,-8.8792e-05,0
2.6585,-0.00010423,0
2.659,-7.2007e-05,0
2.6595,-1.9806e-05,0
2.66,3.1052e-05,0
2.6605,6.1601e-05,0
2.661,7.2679e-05,0
2.6615,7.6875e-05,0
2.662,7.7546e-05,0
2.6625,7.3014e-05,0
2.663,6.6972e-05,0
2.6635,5.7572e-05,0
2.664,5.153e-05,0
2.6645,5.2705e-05,0
2.665,5.2537e-05,0
2.6655,5.8915e-05,0
2.666,8.8121e-05,0
2.6665,0.00012337,0
2.667,0.00011363,0
2.6675,4.2466e-05,0
2.668,-3.7262e-05,0
2.6685,-7.3686e-05,0
2.669,-6.3615e-05,0
2.6695,-3.0045e-05,0
2.67,1.8631e-05,0
2.6705,3.5752e-05,0
2.671,-2.4674e-05,0
2.6715,-9.1814e-05,0
2.672,-7.7714e-05,0
2.6725,-1.1582e-05,0
2.673,4.5823e-05,0
2.6735,7.9393e-05,0
2.674,8.3925e-05,0
2.6745,6.7979e-05,0
2.675,5.2033e-05,0
2.6755,4.3473e-05,0
2.676,4.3809e-05,0
2.6765,4.4816e-05,0
2.677,4.7837e-05,0
2.6775,6.2608e-05,0
2.678,8.4932e-05,0
2.6785,9.7856e-05,0
2.679,7.6204e-05,0
2.6795,2.8031e-05,0
2.68,-4.1962e-06,0
2.6805,-4.8676e-06,0
2.681,9.5674e-06,0
2.6815,1.1582e-05,0
2.682,-2.2995e-05,0
2.6825,-6.9657e-05,0
2.683,-7.9728e-05,0
2.6835,-4.8173e-05,0
2.684,-3.8605e-06,0
2.6845,5.3544e-05,0
2.685,0.00010289,0
2.6855,0.00012303,0
2.686,0.00012706,0
2.6865,0.00013075,0
2.687,0.00011229,0
2.6875,6.0594e-05,0
2.688,2.3499e-06,0
2.6885,-6.0258e-05,0
2.689,-0.00010423,0
2.6895,-6.949e-05,0
2.69,2.8702e-05,0
2.6905,0.00010927,0
2.691,0.0001378,0
2.6915,0.00013075,0
2.692,0.00010776,0
2.6925,5.4551e-05,0
2.693,-4.213e-05,0
2.6935,-0.00012908,0
2.694,-0.00016466,0
2.6945,-0.00014217,0
2.695,-7.4693e-05,0
2.6955,7.3854e-06,0
2.696,6.8986e-05,0
2.6965,8.5771e-05,0
2.697,6.1265e-05,0
2.6975,1.6953e-05,0
2.698,-1.9303e-05,0
2.6985,-3.1724e-05,0
2.699,-3.8437e-05,0
2.6995,-5.6397e-05,0
2.7,-7.2679e-05,0
2.7005,-6.5965e-05,0
2.701,-4.3305e-05,0
2.7015,-2.5681e-05,0
2.702,-1.2757e-05,0
2.7025,4.0284e-06,0
2.703,2.4002e-05,0
2.7035,3.743e-05,0
2.704,3.2395e-05,0
2.7045,7.2175e-06,0
2.705,-3.5248e-06,0
2.7055,1.9303e-05,0
2.706,4.448e-05,0
2.7065,5.6733e-05,0
2.707,5.3544e-05,0
2.7075,5.069e-05,0
2.708,5.4719e-05,0
2.7085,4.1459e-05,0
2.709,-1.0239e-05,0
2.7095,-7.6036e-05,0
2.71,-9.3828e-05,0
2.7105,-4.8844e-05,0
2.711,2.1317e-05,0
2.7115,8.4428e-05,0
2.712,0.00011666,0
2.7125,0.000118,0
2.713,9.8024e-05,0
2.7135,7.0329e-05,0
2.714,5.1194e-05,0
2.7145,5.2872e-05,0
2.715,6.7308e-05,0
2.7155,8.04e-05,0
2.716,6.5629e-05,0
2.7165,2.1317e-05,0
2.717,-1.3932e-05,0
2.7175,3.357e-07,0
2.718,5.8579e-05,0
2.7185,8.1743e-05,0
2.719,3.5416e-05,0
2.7195,-3.1891e-06,0
2.72,3.6927e-06,0
2.7205,9.3996e-06,0
2.721,-1.2253e-05,0
2.7215,-4.6326e-05,0
2.722,-6.1936e-05,0
2.7225,-4.1123e-05,0
2.723,4.5319e-06,0
2.7235,5.069e-05,0
2.724,7.8553e-05,0
2.7245,8.1743e-05,0
2.725,7.956e-05,0
2.7255,8.1407e-05,0
2.726,5.2201e-05,0
2.7265,6.8818e-06,0
2.727,1.0239e-05,0
2.7275,6.4286e-05,0
2.728,0.00012236,0
2.7285,0.00015241,0
2.729,0.00014452,0
2.7295,0.00010524,0
2.73,2.9374e-05,0
2.7305,-5.623e-05,0
2.731,-7.5868e-05,0
2.7315,-2.0478e-05,0
2.732,3.8437e-05,0
2.7325,5.069e-05,0
2.733,2.9038e-05,0
2.7335,1.5106e-06,0
2.734,-1.5106e-06,0
2.7345,1.5442e-05,0
2.735,2.9374e-05,0
2.7355,3.0381e-05,0
2.736,2.0646e-05,0
2.7365,8.7282e-06,0
2.737,-8.2246e-06,0
2.7375,-3.1052e-05,0
2.738,-4.8844e-05,0
2.7385,-4.5823e-05,0
2.739,-2.2156e-05,0
2.7395,1.1749e-06,0
2.74,1.0575e-05,0
2.7405,1.9974e-05,0
2.741,6.1936e-05,0
2.7415,9.9199e-05,0
2.742,6.244e-05,0
2.7425,-3.9948e-05,0
2.743,-0.00012891,0
2.7435,-0.0001566,0
2.744,-0.00012387,0
2.7445,-7.3686e-05,0
2.745,-5.8747e-05,0
2.7455,-8.6107e-05,0
2.746,-0.00011028,0
2.7465,-9.0806e-05,0
2.747,-3.9612e-05,0
2.7475,5.8747e-06,0
2.748,3.3402e-05,0
2.7485,5.1362e-05,0
2.749,5.2872e-05,0
2.7495,4.1459e-05,0
2.75,3.1724e-05,0
2.7505,2.4674e-05,0
2.751,2.9374e-05,0
2.7515,5.3208e-05,0
2.752,8.0064e-05,0
2.7525,7.9393e-05,0
2.753,5.6901e-05,0
2.7535,3.2395e-05,0
2.754,2.4674e-05,0
2.7545,4.2802e-05,0
2.755,7.57e-05,0
2.7555,9.8192e-05,0
2.756,9.5338e-05,0
2.7565,7.7714e-05,0
2.757,3.3402e-05,0
2.7575,-4.8341e-05,0
2.758,-9.9367e-05,0
2.7585,-5.8076e-05,0
2.759,2.0646e-05,0
2.7595,5.5726e-05,0
2.76,5.4551e-05,0
2.7605,3.4913e-05,0
2.761,3.8605e-06,0
2.7615,-2.2995e-05,0
2.762,-3.8605e-05,0
2.7625,-2.4002e-05,0
2.763,2.6352e-05,0
2.7635,7.1e-05,0
2.764,7.7043e-05,0
2.7645,6.3783e-05,0
2.765,7.805e-05,0
2.7655,0.0001133,0
2.766,0.00011246,0
2.7665,7.4357e-05,0
2.767,3.6088e-05,0
2.7675,1.4939e-05,0
2.768,2.2995e-05,0
2.7685,4.6494e-05,0
2.769,4.7669e-05,0
2.7695,1.6617e-05,0
2.77,-1.2253e-05,0
2.7705,-1.1582e-05,0
2.771,1.1749e-06,0
2.7715,1.8631e-05,0
2.772,3.2731e-05,0
2.7725,2.5009e-05,0
2.773,-5.7069e-06,0
2.7735,-2.8031e-05,0
2.774,-1.3092e-05,0
2.7745,2.7192e-05,0
2.775,6.8147e-05,0
2.7755,0.00011766,0
2.776,0.00015627,0
2.7765,0.00016751,0
2.777,0.00016231,0
2.7775,0.0001274,0
2.778,2.6688e-05,0
2.7785,-0.00013042,0
2.779,-0.00026168,0
2.7795,-0.00025949,0
2.78,-9.2821e-05,0
2.7805,0.00010088,0
2.781,0.00016298,0
2.7815,9.6178e-05,0
2.782,2.5177e-06,0
2.7825,-4.0955e-05,0
2.783,-5.1194e-05,0
2.7835,-7.4021e-05,0
2.784,-7.2007e-05,0
2.7845,-2.4338e-05,0
2.785,5.539e-06,0
2.7855,-8.896e-06,0
2.786,-2.5177e-06,0
2.7865,4.1459e-05,0
2.787,6.8147e-05,0
2.7875,6.2944e-05,0
2.788,5.3376e-05,0
2.7885,5.304e-05,0
2.789,6.5293e-05,0
2.7895,6.8818e-05,0
2.79,3.4409e-05,0
2.7905,-1.326e-05,0
2.791,-3.4409e-05,0
2.7915,-4.683e-05,0
2.792,-5.3376e-05,0
2.7925,-2.4338e-05,0
2.793,3.2059e-05,0
2.7935,8.04e-05,0
2.794,0.00010037,0
2.7945,8.426e-05,0
2.795,4.6159e-05,0
2.7955,2.0813e-05,0
2.796,1.678e-07,0
2.7965,-3.3402e-05,0
2.797,-5.4719e-05,0
2.7975,-3.8941e-05,0
2.798,-1.3596e-05,0
2.7985,7.8889e-06,0
2.799,4.1123e-05,0
2.7995,9.2485e-05,0
2.8,0.00014049,0
2.8005,0.0001462,0
2.801,0.00012673,0
2.8015,0.00010927,0
2.802,9.6849e-05,0
2.8025,0.00010726,0
2.803,0.00013378,0
2.8035,0.00013411,0
2.804,0.00012807,0
2.8045,0.00012656,0
2.805,4.683e-05,0
2.8055,-8.8457e-05,0
2.806,-0.00013495,0
2.8065,-8.1239e-05,0
2.807,-4.2802e-05,0
2.8075,-6.1601e-05,0
2.808,-0.00010272,0
2.8085,-0.00014586,0
2.809,-0.00016164,0
2.8095,-0.00012186,0
2.81,-6.8986e-05,0
2.8105,-6.7811e-05,0
2.811,-9.8863e-05,0
2.8115,-8.6946e-05,0
2.812,5.035e-07,0
2.8125,0.00010021,0
2.813,0.00013411,0
2.8135,0.00011212,0
2.814,7.4357e-05,0
2.8145,3.4745e-05,0
2.815,1.4771e-05,0
2.8155,2.1317e-05,0
2.816,3.4745e-05,0
2.8165,3.7934e-05,0
2.817,4.2466e-05,0
2.8175,8.3757e-05,0
2.818,0.00014586,0
2.8185,0.00015358,0
2.819,8.6442e-05,0
2.8195,1.6281e-05,0
2.82,-5.0355e-06,0
2.8205,-1.6953e-05,0
2.821,-1.8631e-05,0
2.8215,1.3596e-05,0
2.822,5.304e-05,0
2.8225,5.6901e-05,0
2.823,5.2033e-06,0
2.8235,-6.8482e-05,0
2.824,-0.00010574,0
2.8245,-9.0974e-05,0
2.825,-5.3208e-05,0
2.8255,-2.031e-05,0
2.826,-1.7624e-05,0
2.8265,-3.4409e-05,0
2.827,-2.5345e-05,0
2.8275,2.9038e-05,0
2.828,8.3925e-05,0
2.8285,7.7043e-05,0
2.829,2.5345e-05,0
2.8295,1.2253e-05,0
2.83,3.6088e-05,0
2.8305,4.5991e-05,0
2.831,2.4506e-05,0
2.8315,-1.8463e-06,0
2.832,1.6617e-05,0
2.8325,7.7714e-05,0
2.833,0.00012102,0
2.8335,0.00011263,0
2.834,8.4764e-05,0
2.8345,7.335e-05,0
2.835,7.9393e-05,0
2.8355,0.00010054,0
2.836,0.00010658,0
2.8365,7.0832e-05,0
2.837,2.6017e-05,0
2.8375,-2.8534e-06,0
2.838,-3.357e-05,0
2.8385,-4.7837e-05,0
2.839,-4.0787e-05,0
2.8395,-4.1123e-05,0
2.84,-8.1239e-05,0
2.8405,-0.0001086,0
2.841,-5.4215e-05,0
2.8415,4.683e-05,0
2.842,0.00012136,0
2.8425,0.0001274,0
2.843,7.335e-05,0
2.8435,3.1388e-05,0
2.844,1.3092e-05,0
2.8445,-3.6088e-05,0
2.845,-0.00012119,0
2.8455,-0.00017339,0
2.846,-0.0001138,0
2.8465,8.5603e-06,0
2.847,7.0329e-05,0
2.8475,3.122e-05,0
2.848,-8.896e-06,0
2.8485,3.4745e-05,0
2.849,0.0001039,0
2.8495,0.00013747,0
2.85,0.00014955,0
2.8505,0.00017104,0
2.851,0.00020461,0
2.8515,0.00021871,0
2.852,0.00019454,0
2.8525,0.0001138,0
2.853,-7.5532e-06,0
2.8535,-8.0232e-05,0
2.854,-8.2918e-05,0
2.8545,-6.244e-05,0
2.855,-5.7069e-05,0
2.8555,-8.6946e-05,0
2.856,-0.00012622,0
2.8565,-0.00014687,0
2.857,-0.00013982,0
2.8575,-9.9535e-05,0
2.858,-3.5416e-05,0
2.8585,5.2201e-05,0
2.859,0.00013411,0
2.8595,0.00017574,0
2.86,0.00018514,0
2.8605,0.00018598,0
2.861,0.00020125,0
2.8615,0.00022676,0
2.862,0.00023046,0
2.8625,0.00017977,0
2.863,5.3544e-05,0
2.8635,-0.00013814,0
2.864,-0.00029055,0
2.8645,-0.00031254,0
2.865,-0.00023046,0
2.8655,-0.00013445,0
2.866,-8.9464e-05,0
2.8665,-8.04e-05,0
2.867,-5.3208e-05,0
2.8675,-3.3738e-05,0
2.868,-8.5603e-05,0
2.8685,-0.00012807,0
2.869,-5.4383e-05,0
2.8695,6.4286e-05,0
2.87,0.00011464,0
2.8705,0.00010524,0
2.871,7.6539e-05,0
2.8715,4.3137e-05,0
2.872,2.0813e-05,0
2.8725,1.326e-05,0
2.873,6.5461e-06,0
2.8735,-1.2924e-05,0
2.874,-1.6617e-05,0
2.8745,1.2253e-05,0
2.875,3.0549e-05,0
2.8755,-1.8631e-05,0
2.876,-6.009e-05,0
2.8765,7.5532e-06,0
2.877,0.00012941,0
2.8775,0.00019588,0
2.878,0.00019722,0
2.8785,0.00015761,0
2.879,8.3085e-05,0
2.8795,1.1246e-05,0
2.88,-1.561e-05,0
2.8805,-3.357e-07,0
2.881,-2.8534e-06,0
2.8815,-6.7475e-05,0
2.882,-0.00017842,0
2.8825,-0.00020612,0
2.883,-8.275e-05,0
2.8835,7.4357e-05,0
2.884,0.00015023,0
2.8845,0.00014788,0
2.885,0.00012387,0
2.8855,0.000118,0
2.886,0.00013109,0
2.8865,0.00014653,0
2.887,0.00011968,0
2.8875,5.623e-05,0
2.888,3.3402e-05,0
2.8885,8.5771e-05,0
2.889,0.00017893,0
2.8895,0.00026235,0
2.89,0.00029659,0
2.8905,0.00025748,0
2.891,0.00014922,0
2.8915,-1.7288e-05,0
2.892,-0.00017423,0
2.8925,-0.00021988,0
2.893,-0.00017641,0
2.8935,-0.00015308,0
2.894,-0.00017137,0
2.8945,-0.00017523,0
2.895,-0.00017523,0
2.8955,-0.00018379,0
2.896,-0.00015778,0
2.8965,-0.00010843,0
2.897,-7.805e-05,0
2.8975,-5.8244e-05,0
2.898,-3.1891e-05,0
2.8985,-1.091e-05,0
2.899,-1.6785e-06,0
2.8995,6.3783e-06,0
2.9,-1.678e-07,0
2.9005,-9.2317e-06,0
2.901,1.8296e-05,0
2.9015,7.0329e-05,0
2.902,0.00010591,0
2.9025,0.00011598,0
2.903,0.00011397,0
2.9035,8.8792e-05,0
2.904,3.8437e-05,0
2.9045,-1.3596e-05,0
2.905,-1.0407e-05,0
2.9055,7.3014e-05,0
2.906,0.0001603,0
2.9065,0.0001801,0
2.907,0.00015811,0
2.9075,0.00012941,0
2.908,9.0135e-05,0
2.9085,4.0284e-05,0
2.909,1.8463e-06,0
2.9095,1.678e-07,0
2.91,2.4506e-05,0
2.9105,6.7811e-05,0
2.911,0.00012152,0
2.9115,0.00016332,0
2.912,0.00017624,0
2.9125,0.00016399,0
2.913,0.00011934,0
2.9135,4.3641e-06,0
2.914,-0.0001613,0
2.9145,-0.00029827,0
2.915,-0.00033989,0
2.9155,-0.00025211,0
2.916,-9.6345e-05,0
2.9165,9.9031e-06,0
2.917,3.9445e-05,0
2.9175,5.3208e-05,0
2.918,7.6036e-05,0
2.9185,0.00012538,0
2.919,0.00019588,0
2.9195,0.00023046,0
2.92,0.00020444,0
2.9205,0.00015325,0
2.921,0.00011112,0
2.9215,7.8386e-05,0
2.922,3.0045e-05,0
2.9225,-4.7837e-05,0
2.923,-0.00015795,0
2.9235,-0.00022676,0
2.924,-0.00017255,0
2.9245,-3.9948e-05,0
2.925,6.9154e-05,0
2.9255,0.00010172,0
2.926,6.6636e-05,0
2.9265,8.5603e-06,0
2.927,-2.6688e-05,0
2.9275,-3.6927e-05,0
2.928,-3.8437e-05,0
2.9285,-6.9993e-05,0
2.929,-9.6178e-05,0
2.9295,-5.0858e-05,0
2.93,4.0619e-05,0
2.9305,9.5171e-05,0
2.931,0.00010088,0
2.9315,0.00010054,0
2.932,0.00010793,0
2.9325,0.00010323,0
2.933,8.8121e-05,0
2.9335,8.4764e-05,0
2.934,6.8482e-05,0
2.9345,-2.5177e-06,0
2.935,-6.5293e-05,0
2.9355,-4.1459e-05,0
2.936,1.9806e-05,0
2.9365,2.4674e-05,0
2.937,-2.5177e-06,0
2.9375,-6.2104e-06,0
2.938,-5.539e-06,0
2.9385,-2.9206e-05,0
2.939,-5.8076e-05,0
2.9395,-4.9515e-05,0
2.94,-1.5442e-05,0
2.9405,-1.8463e-06,0
2.941,-7.2175e-06,0
2.9415,-5.7069e-06,0
2.942,8.5603e-06,0
2.9425,2.7695e-05,0
2.943,4.8508e-05,0
2.9435,6.8315e-05,0
2.944,7.9393e-05,0
2.9445,6.9322e-05,0
2.945,5.2033e-05,0
2.9455,6.4622e-05,0
2.946,0.0001086,0
2.9465,0.00013545,0
2.947,0.00013008,0
2.9475,0.00011666,0
2.948,7.0664e-05,0
2.9485,-3.357e-05,0
2.949,-0.00014385,0
2.9495,-0.00016835,0
2.95,-0.0001044,0
2.9505,-4.0116e-05,0
2.951,-1.8463e-06,0
2.9515,4.3305e-05,0
2.952,7.4357e-05,0
2.9525,7.4693e-05,0
2.953,6.5293e-05,0
2.9535,3.2059e-05,0
2.954,-2.2324e-05,0
2.9545,-7.4525e-05,0
2.955,-8.9296e-05,0
2.9555,-5.0355e-05,0
2.956,8.5603e-06,0
2.9565,6.1097e-05,0
2.957,9.8527e-05,0
2.9575,0.00012136,0
2.958,0.00013747,0
2.9585,0.0001603,0
2.959,0.00018245,0
2.9595,0.00014788,0
2.96,3.9277e-05,0
2.9605,-5.6733e-05,0
2.961,-5.2705e-05,0
2.9615,2.5849e-05,0
2.962,6.8315e-05,0
2.9625,3.1556e-05,0
2.963,-1.1582e-05,0
2.9635,-1.326e-05,0
2.964,-2.3667e-05,0
2.9645,-5.5055e-05,0
2.965,-6.4958e-05,0
2.9655,-2.3667e-05,0
2.966,5.7572e-05,0
2.9665,8.9464e-05,0
2.967,3.6927e-05,0
2.9675,-3.743e-05,0
2.968,-9.9199e-05,0
2.9685,-0.00012538,0
2.969,-8.9464e-05,0
2.9695,-3.122e-05,0
2.97,-5.035e-07,0
2.9705,8.896e-06,0
2.971,1.0575e-05,0
2.9715,8.896e-06,0
2.972,2.3331e-05,0
2.9725,6.4286e-05,0
2.973,9.601e-05,0
2.9735,9.4835e-05,0
2.974,9.7185e-05,0
2.9745,0.00011196,0
2.975,8.1071e-05,0
2.9755,-7.5532e-06,0
2.976,-8.6442e-05,0
2.9765,-0.00010726,0
2.977,-6.3279e-05,0
2.9775,-1.3092e-05,0
2.978,-9.7353e-06,0
2.9785,-8.2246e-06,0
2.979,2.0981e-05,0
2.9795,4.8676e-05,0
2.98,4.4312e-05,0
2.9805,1.5106e-05,0
2.981,1.0071e-06,0
2.9815,1.561e-05,0
2.982,3.7095e-05,0
2.9825,5.069e-05,0
2.983,6.8986e-05,0
2.9835,0.00010423,0
2.984,0.00014049,0
2.9845,0.00014116,0
2.985,8.3421e-05,0
2.9855,8.392e-07,0
2.986,-5.4551e-05,0
2.9865,-0.00010574,0
2.987,-0.00013193,0
2.9875,-7.0832e-05,0
2.988,2.9374e-05,0
2.9885,6.6972e-05,0
2.989,3.5416e-05,0
2.9895,-7.7211e-06,0
2.99,-3.0045e-05,0
2.9905,-1.7121e-05,0
2.991,2.266e-05,0
2.9915,5.388e-05,0
2.992,6.5293e-05,0
2.9925,8.0232e-05,0
2.993,8.7617e-05,0
2.9935,7.57e-05,0
2.994,7.9057e-05,0
2.9945,0.00011179,0
2.995,0.00013545,0
2.9955,0.00012924,0
2.996,0.00011363,0
2.9965,9.3156e-05,0
2.997,1.5946e-05,0
2.9975,-0.00010423,0
2.998,-0.00019219,0
2.9985,-0.0001843,0
2.999,-0.00012824,0
2.9995,-0.00010843,0
3,-8.9632e-05,0
3.0005,-2.9206e-05,0
3.001,2.6688e-05,0
3.0015,3.978e-05,0
3.002,4.0452e-05,0
3.0025,5.7572e-05,0
3.003,7.6036e-05,0
3.0035,6.3783e-05,0
3.004,1.1078e-05,0
3.0045,-3.8941e-05,0
3.005,-2.6352e-05,0
3.0055,4.7166e-05,0
3.006,0.00012203,0
3.0065,0.00014401,0
3.007,0.00013277,0
3.0075,0.00014418,0
3.008,0.00018413,0
3.0085,0.00020494,0
3.009,0.00014485,0
3.0095,-4.8676e-06,0
3.01,-0.00016785,0
3.0105,-0.00025161,0
3.011,-0.00024036,0
3.0115,-0.00015862,0
3.012,-3.7598e-05,0
3.0125,7.3014e-05,0
3.013,0.00011229,0
3.0135,8.2414e-05,0
3.014,5.0187e-05,0
3.0145,6.1936e-05,0
3.015,9.6513e-05,0
3.0155,9.987e-05,0
3.016,6.3447e-05,0
3.0165,2.031e-05,0
3.017,-2.5177e-06,0
3.0175,-1.3932e-05,0
3.018,-4.5151e-05,0
3.0185,-6.2944e-05,0
3.019,-5.9251e-05,0
3.0195,-3.2395e-05,0
3.02,3.3738e-05,0
3.0205,9.5171e-05,0
3.021,0.00011397,0
3.0215,8.9296e-05,0
3.022,2.1317e-05,0
3.0225,-8.5435e-05,0
3.023,-0.0001566,0
3.0235,-0.00014183,0
3.024,-7.7882e-05,0
3.0245,-2.9709e-05,0
3.025,-2.1988e-05,0
3.0255,-1.8631e-05,0
3.026,1.3764e-05,0
3.0265,3.5584e-05,0
3.027,8.896e-06,0
3.0275,-1.326e-05,0
3.028,1.5106e-05,0
3.0285,5.6565e-05,0
3.029,4.3977e-05,0
3.0295,-2.3163e-05,0
3.03,-4.3809e-05,0
3.0305,1.8631e-05,0
3.031,7.1e-05,0
3.0315,5.2872e-05,0
3.032,4.1962e-06,0
3.0325,-1.8463e-05,0
3.033,1.3596e-05,0
3.0335,7.5532e-05,0
3.034,0.00011095,0
3.0345,0.00011162,0
3.035,0.00010105,0
3.0355,0.0001044,0
3.036,0.00011699,0
3.0365,0.00011901,0
3.037,0.00010658,0
3.0375,6.0258e-05,0
3.038,-2.5513e-05,0
3.0385,-9.601e-05,0
3.039,-9.8192e-05,0
3.0395,-2.9709e-05,0
3.04,4.8173e-05,0
3.0405,7.7714e-05,0
3.041,5.7237e-05,0
3.0415,2.3163e-05,0
3.042,2.1317e-05,0
3.0425,4.1459e-05,0
3.043,3.7766e-05,0
3.0435,4.3641e-06,0
3.044,-2.1653e-05,0
3.0445,-1.561e-05,0
3.045,-3.357e-07,0
3.0455,5.7069e-06,0
3.046,-8.3925e-06,0
3.0465,-3.7766e-05,0
3.047,-5.2201e-05,0
3.0475,-2.8702e-05,0
3.048,1.1582e-05,0
3.0485,4.6662e-05,0
3.049,8.4764e-05,0
3.0495,0.00012203,0
3.05,0.00013243,0
3.0505,0.00012673,0
3.051,0.00013747,0
3.0515,0.00015744,0
3.052,0.00015224,0
3.0525,9.2821e-05,0
3.053,-3.357e-07,0
3.0535,-3.9109e-05,0
3.054,-3.357e-07,0
3.0545,1.2924e-05,0
3.055,-2.9709e-05,0
3.0555,-7.5532e-05,0
3.056,-8.9799e-05,0
3.0565,-7.5364e-05,0
3.057,-6.1265e-05,0
3.0575,-3.8437e-05,0
3.058,-1.2253e-05,0
3.0585,-4.5487e-05,0
3.059,-0.00011296,0
3.0595,-9.8527e-05,0
3.06,-8.7282e-06,0
3.0605,5.623e-05,0
3.061,5.9587e-05,0
3.0615,3.6759e-05,0
3.062,1.1917e-05,0
3.0625,-2.5177e-06,0
3.063,1.091e-05,0
3.0635,4.1459e-05,0
3.064,6.0761e-05,0
3.0645,7.0329e-05,0
3.065,8.6778e-05,0
3.0655,9.366e-05,0
3.066,8.426e-05,0
3.0665,7.8218e-05,0
3.067,8.9632e-05,0
3.0675,9.4331e-05,0
3.068,6.7811e-05,0
3.0685,2.6184e-05,0
3.069,2.0813e-05,0
3.0695,6.5965e-05,0
3.07,8.0064e-05,0
3.0705,5.0355e-06,0
3.071,-7.9728e-05,0
3.0715,-7.3686e-05,0
3.072,1.7288e-05,0
3.0725,9.1142e-05,0
3.073,5.9754e-05,0
3.0735,-1.6785e-05,0
3.074,-1.7624e-05,0
3.0745,3.357e-05,0
3.075,6.8986e-05,0
3.0755,8.8624e-05,0
3.076,7.5029e-05,0
3.0765,1.3092e-05,0
3.077,-5.9251e-05,0
3.0775,-7.2175e-05,0
3.078,-3.0381e-05,0
3.0785,-7.7211e-06,0
3.079,-4.683e-05,0
3.0795,-9.4163e-05,0
3.08,-7.3686e-05,0
3.0805,1.796e-05,0
3.081,9.5171e-05,0
3.0815,9.1142e-05,0
3.082,5.8579e-05,0
3.0825,4.8005e-05,0
3.083,2.4338e-05,0
3.0835,-2.8031e-05,0
3.084,-6.5965e-05,0
3.0845,-5.8412e-05,0
3.085,-2.5681e-05,0
3.0855,-1.5106e-06,0
3.086,1.4099e-05,0
3.0865,3.8437e-05,0
3.087,5.9251e-05,0
3.0875,5.7572e-05,0
3.088,3.7262e-05,0
3.0885,3.357e-07,0
3.089,-3.8773e-05,0
3.0895,-4.4816e-05,0
3.09,-2.5345e-05,0
3.0905,-8.896e-06,0
3.091,9.7353e-06,0
3.0915,2.9038e-05,0
3.092,4.1459e-05,0
3.0925,4.9348e-05,0
3.093,5.388e-05,0
3.0935,6.949e-05,0
3.094,9.7185e-05,0
3.0945,9.8695e-05,0
3.095,7.1e-05,0
3.0955,5.774e-05,0
3.096,7.4693e-05,0
3.0965,0.00010256,0
3.097,9.366e-05,0
