0,0,0
0.0005,0,0
0.001,0,0
0.0015,0,0
0.002,0,0
0.0025,0,0
0.003,0,0
0.0035,0,0
0.004,0,0
0.0045,0,0
0.005,0,0
0.0055,0,0
0.006,0,0
0.0065,0,0
0.007,0,0
0.0075,0,0
0.008,0,0
0.0085,0,0
0.009,0,0
0.0095,0,0
0.01,0,0
0.0105,0,0
0.011,0,0
0.0115,0,0
0.012,0,0
0.0125,0,0
0.013,1.5106e-05,0
0.0135,1.5274e-05,0
0.014,1.561e-05,0
0.0145,1.6953e-05,0
0.015,1.8631e-05,0
0.0155,1.9303e-05,0
0.016,1.9303e-05,0
0.0165,2.0646e-05,0
0.017,2.2156e-05,0
0.0175,2.266e-05,0
0.018,2.0981e-05,0
0.0185,1.8631e-05,0
0.019,1.9638e-05,0
0.0195,2.1317e-05,0
0.02,2.0981e-05,0
0.0205,2.0646e-05,0
0.021,1.8967e-05,0
0.0215,1.8296e-05,0
0.022,2.0646e-05,0
0.0225,2.3667e-05,0
0.023,2.2995e-05,0
0.0235,2.2324e-05,0
0.024,2.2324e-05,0
0.0245,2.2324e-05,0
0.025,2.3499e-05,0
0.0255,2.4338e-05,0
0.026,2.3835e-05,0
0.0265,2.1988e-05,0
0.027,1.9806e-05,0
0.0275,1.8631e-05,0
0.028,1.9638e-05,0
0.0285,2.1988e-05,0
0.029,2.2995e-05,0
0.0295,2.1988e-05,0
0.03,2.1317e-05,0
0.0305,2.0981e-05,0
0.031,1.8967e-05,0
0.0315,1.5946e-05,0
0.032,1.4603e-05,0
0.0325,1.3764e-05,0
0.033,1.2757e-05,0
0.0335,1.2589e-05,0
0.034,1.091e-05,0
0.0345,9.2317e-06,0
0.035,7.8889e-06,0
0.0355,4.1962e-06,0
0.036,1.1749e-06,0
0.0365,1.8463e-06,0
0.037,6.5461e-06,0
0.0375,1.1917e-05,0
0.038,1.5946e-05,0
0.0385,1.9303e-05,0
0.039,2.1988e-05,0
0.0395,2.1149e-05,0
0.04,1.9135e-05,0
0.0405,1.7121e-05,0
0.041,1.4603e-05,0
0.0415,1.5274e-05,0
0.042,1.796e-05,0
0.0425,1.9135e-05,0
0.043,1.796e-05,0
0.0435,1.5946e-05,0
0.044,1.6281e-05,0
0.0445,1.8463e-05,0
0.045,2.1317e-05,0
0.0455,2.3667e-05,0
0.046,2.1653e-05,0
0.0465,1.8631e-05,0
0.047,1.8631e-05,0
0.0475,1.8967e-05,0
0.048,1.7288e-05,0
0.0485,1.5778e-05,0
0.049,1.6281e-05,0
0.0495,1.8128e-05,0
0.05,1.9135e-05,0
0.0505,2.1149e-05,0
0.051,2.266e-05,0
0.0515,2.0981e-05,0
0.052,1.796e-05,0
0.0525,1.8128e-05,0
0.053,2.0981e-05,0
0.0535,2.1317e-05,0
0.054,2.1988e-05,0
0.0545,2.6688e-05,0
0.055,3.2563e-05,0
0.0555,3.5584e-05,0
0.056,3.7095e-05,0
0.0565,3.978e-05,0
0.057,4.0452e-05,0
0.0575,3.6088e-05,0
0.058,2.8702e-05,0
0.0585,2.4674e-05,0
0.059,2.266e-05,0
0.0595,2.031e-05,0
0.06,1.5946e-05,0
0.0605,1.1917e-05,0
0.061,6.5461e-06,0
0.0615,2.182e-06,0
0.062,-8.392e-07,0
0.0625,-3.1891e-06,0
0.063,-3.1891e-06,0
0.0635,-2.0142e-06,0
0.064,8.392e-07,0
0.0645,3.6927e-06,0
0.065,3.8605e-06,0
0.0655,3.8605e-06,0
0.066,7.3854e-06,0
0.0665,1.1078e-05,0
0.067,1.326e-05,0
0.0675,1.8296e-05,0
0.068,2.3331e-05,0
0.0685,2.3835e-05,0
0.069,2.1317e-05,0
0.0695,2.3163e-05,0
0.07,2.7359e-05,0
0.0705,2.7359e-05,0
0.071,2.266e-05,0
0.0715,1.9303e-05,0
0.072,2.1653e-05,0
0.0725,2.8031e-05,0
0.073,3.6088e-05,0
0.0735,4.213e-05,0
0.074,4.0955e-05,0
0.0745,3.5416e-05,0
0.075,2.9374e-05,0
0.0755,2.417e-05,0
0.076,2.0646e-05,0
0.0765,1.9303e-05,0
0.077,1.947e-05,0
0.0775,2.0646e-05,0
0.078,2.2828e-05,0
0.0785,2.4674e-05,0
0.079,2.0142e-05,0
0.0795,7.5532e-06,0
0.08,-4.6998e-06,0
0.0805,-8.896e-06,0
0.081,-3.1891e-06,0
0.0815,8.5603e-06,0
0.082,1.8296e-05,0
0.0825,2.0981e-05,0
0.083,1.7288e-05,0
0.0835,9.5674e-06,0
0.084,2.5177e-06,0
0.0845,2.182e-06,0
0.085,7.2175e-06,0
0.0855,1.6449e-05,0
0.086,2.6017e-05,0
0.0865,3.5416e-05,0
0.087,4.0787e-05,0
0.0875,4.1291e-05,0
0.088,3.592e-05,0
0.0885,2.7192e-05,0
0.089,1.9303e-05,0
0.0895,1.326e-05,0
0.09,1.2253e-05,0
0.0905,1.4435e-05,0
0.091,1.8296e-05,0
0.0915,1.7624e-05,0
0.092,1.0407e-05,0
0.0925,3.6927e-06,0
0.093,4.1962e-06,0
0.0935,1.5274e-05,0
0.094,2.6688e-05,0
0.0945,3.122e-05,0
0.095,3.1891e-05,0
0.0955,2.7024e-05,0
0.096,1.6617e-05,0
0.0965,9.2317e-06,0
0.097,9.5674e-06,0
0.0975,2.0478e-05,0
0.098,3.6088e-05,0
0.0985,4.6494e-05,0
0.099,4.4816e-05,0
0.0995,3.8102e-05,0
0.1,3.1388e-05,0
0.1005,2.7359e-05,0
0.101,2.6017e-05,0
0.1015,2.5009e-05,0
0.102,2.3835e-05,0
0.1025,2.266e-05,0
0.103,2.4674e-05,0
0.1035,2.8031e-05,0
0.104,2.5849e-05,0
0.1045,1.8128e-05,0
0.105,1.0239e-05,0
0.1055,5.2033e-06,0
0.106,4.6998e-06,0
0.1065,7.8889e-06,0
0.107,1.3932e-05,0
0.1075,1.7792e-05,0
0.108,2.0478e-05,0
0.1085,2.266e-05,0
0.109,2.1317e-05,0
0.1095,1.2253e-05,0
0.11,1.1749e-06,0
0.1105,-2.5177e-06,0
0.111,3.6927e-06,0
0.1115,1.2589e-05,0
0.112,1.9638e-05,0
0.1125,2.4842e-05,0
0.113,2.8367e-05,0
0.1135,2.9709e-05,0
0.114,2.6017e-05,0
0.1145,2.0646e-05,0
0.115,1.8296e-05,0
0.1155,1.796e-05,0
0.116,1.7624e-05,0
0.1165,1.5946e-05,0
0.117,1.5946e-05,0
0.1175,1.6953e-05,0
0.118,1.8967e-05,0
0.1185,2.1317e-05,0
0.119,2.1988e-05,0
0.1195,2.0646e-05,0
0.12,2.0981e-05,0
0.1205,2.1988e-05,0
0.121,1.9303e-05,0
0.1215,1.4603e-05,0
0.122,1.5274e-05,0
0.1225,1.8967e-05,0
0.123,2.2324e-05,0
0.1235,2.266e-05,0
0.124,2.1317e-05,0
0.1245,2.0981e-05,0
0.125,2.031e-05,0
0.1255,2.0478e-05,0
0.126,2.182e-05,0
0.1265,2.1988e-05,0
0.127,2.2156e-05,0
0.1275,2.3331e-05,0
0.128,2.3835e-05,0
0.1285,2.2324e-05,0
0.129,2.0478e-05,0
0.1295,1.8631e-05,0
0.13,1.6617e-05,0
0.1305,1.5946e-05,0
0.131,1.6953e-05,0
0.1315,1.8631e-05,0
0.132,1.9135e-05,0
0.1325,1.9974e-05,0
0.133,2.1317e-05,0
0.1335,2.266e-05,0
0.134,2.3163e-05,0
0.1345,2.3667e-05,0
0.135,2.0478e-05,0
0.1355,1.4435e-05,0
0.136,9.7353e-06,0
0.1365,6.714e-06,0
0.137,6.0426e-06,0
0.1375,1.0071e-05,0
0.138,1.7792e-05,0
0.1385,2.6688e-05,0
0.139,3.508e-05,0
0.1395,4.0116e-05,0
0.14,4.2466e-05,0
0.1405,3.978e-05,0
0.141,3.5416e-05,0
0.1415,3.2731e-05,0
0.142,3.2395e-05,0
0.1425,3.4241e-05,0
0.143,3.5752e-05,0
0.1435,2.9709e-05,0
0.144,1.2085e-05,0
0.1445,-7.8889e-06,0
0.145,-2.1988e-05,0
0.1455,-2.7359e-05,0
0.146,-2.3163e-05,0
0.1465,-9.0639e-06,0
0.147,6.5461e-06,0
0.1475,1.4603e-05,0
0.148,1.326e-05,0
0.1485,8.5603e-06,0
0.149,8.7282e-06,0
0.1495,1.3092e-05,0
0.15,1.8967e-05,0
0.1505,2.0646e-05,0
0.151,1.5106e-05,0
0.1515,7.8889e-06,0
0.152,4.8676e-06,0
0.1525,4.8676e-06,0
0.153,3.6927e-06,0
0.1535,1.8463e-06,0
0.154,3.1891e-06,0
0.1545,6.5461e-06,0
0.155,1.2421e-05,0
0.1555,2.3835e-05,0
0.156,3.3234e-05,0
0.1565,3.5752e-05,0
0.157,3.3234e-05,0
0.1575,3.1052e-05,0
0.158,3.0213e-05,0
0.1585,3.0716e-05,0
0.159,3.0213e-05,0
0.1595,2.6352e-05,0
0.16,2.3331e-05,0
0.1605,2.2324e-05,0
0.161,2.2492e-05,0
0.1615,2.4002e-05,0
0.162,2.5849e-05,0
0.1625,2.7024e-05,0
0.163,3.0549e-05,0
0.1635,3.4409e-05,0
0.164,3.6927e-05,0
0.1645,3.7095e-05,0
0.165,3.2731e-05,0
0.1655,3.0045e-05,0
0.166,2.5009e-05,0
0.1665,1.8967e-05,0
0.167,1.5778e-05,0
0.1675,1.2757e-05,0
0.168,1.1246e-05,0
0.1685,1.4435e-05,0
0.169,1.8631e-05,0
0.1695,2.2156e-05,0
0.17,2.5513e-05,0
0.1705,3.1891e-05,0
0.171,3.978e-05,0
0.1715,4.5823e-05,0
0.172,4.683e-05,0
0.1725,4.2634e-05,0
0.173,3.6088e-05,0
0.1735,2.8702e-05,0
0.174,2.1317e-05,0
0.1745,1.5946e-05,0
0.175,1.0575e-05,0
0.1755,3.0213e-06,0
0.176,-2.3499e-06,0
0.1765,-1.6785e-06,0
0.177,3.1891e-06,0
0.1775,7.7211e-06,0
0.178,7.8889e-06,0
0.1785,5.8747e-06,0
0.179,6.8818e-06,0
0.1795,1.1917e-05,0
0.18,1.561e-05,0
0.1805,1.4267e-05,0
0.181,1.326e-05,0
0.1815,1.6953e-05,0
0.182,2.2995e-05,0
0.1825,2.7359e-05,0
0.183,2.6352e-05,0
0.1835,2.3331e-05,0
0.184,2.0646e-05,0
0.1845,1.9974e-05,0
0.185,1.8967e-05,0
0.1855,1.5274e-05,0
0.186,1.2589e-05,0
0.1865,1.3932e-05,0
0.187,1.7792e-05,0
0.1875,1.947e-05,0
0.188,1.8128e-05,0
0.1885,1.8631e-05,0
0.189,2.3835e-05,0
0.1895,2.652e-05,0
0.19,2.1317e-05,0
0.1905,1.7288e-05,0
0.191,2.0478e-05,0
0.1915,2.7695e-05,0
0.192,3.3066e-05,0
0.1925,3.2059e-05,0
0.193,2.4506e-05,0
0.1935,1.9303e-05,0
0.194,2.7359e-05,0
0.1945,4.1123e-05,0
0.195,4.7166e-05,0
0.1955,4.2466e-05,0
0.196,3.0716e-05,0
0.1965,2.0646e-05,0
0.197,1.5274e-05,0
0.1975,1.0407e-05,0
0.198,7.0497e-06,0
0.1985,7.8889e-06,0
0.199,9.7353e-06,0
0.1995,8.896e-06,0
0.2,4.1962e-06,0
0.2005,-4.0284e-06,0
0.201,-1.2589e-05,0
0.2015,-1.7624e-05,0
0.202,-1.2924e-05,0
0.2025,-8.392e-07,0
0.203,1.1414e-05,0
0.2035,1.8631e-05,0
0.204,2.0478e-05,0
0.2045,2.031e-05,0
0.205,1.8631e-05,0
0.2055,1.4099e-05,0
0.206,8.896e-06,0
0.2065,8.5603e-06,0
0.207,1.1582e-05,0
0.2075,1.6114e-05,0
0.208,0,0
0.2085,0,0
0.209,0,0
0.2095,0,0
0.21,0,0
0.2105,0,0
0.211,0,0
0.2115,0,0
0.212,0,0
0.2125,0,0
0.213,0,0
0.2135,0,0
0.214,0,0
0.2145,0,0
0.215,0,0
0.2155,0,0
0.216,0,0
0.2165,0,0
0.217,0,0
0.2175,0,0
0.218,0,0
0.2185,0,0
0.219,0,0
0.2195,0,0
0.22,0,0
0.2205,0,0
0.221,-2.8367e-05,0
0.2215,-2.9709e-05,0
0.222,-2.2324e-05,0
0.2225,-1.3092e-05,0
0.223,-7.2175e-06,0
0.2235,-4.3641e-06,0
0.224,-5.035e-07,0
0.2245,3.8605e-06,0
0.225,9.2317e-06,0
0.2255,1.8296e-05,0
0.226,2.6688e-05,0
0.2265,3.2898e-05,0
0.227,3.6759e-05,0
0.2275,3.978e-05,0
0.228,4.0955e-05,0
0.2285,3.6927e-05,0
0.229,3.2563e-05,0
0.2295,3.0045e-05,0
0.23,2.8031e-05,0
0.2305,2.7695e-05,0
0.231,2.8031e-05,0
0.2315,2.6688e-05,0
0.232,2.6017e-05,0
0.2325,2.4506e-05,0
0.233,2.1317e-05,0
0.2335,2.031e-05,0
0.234,2.417e-05,0
0.2345,2.9206e-05,0
0.235,2.9542e-05,0
0.2355,2.7863e-05,0
0.236,2.9374e-05,0
0.2365,3.1388e-05,0
0.237,2.7695e-05,0
0.2375,2.3667e-05,0
0.238,2.3163e-05,0
0.2385,2.6184e-05,0
0.239,2.7359e-05,0
0.2395,2.1317e-05,0
0.24,1.1917e-05,0
0.2405,8.5603e-06,0
0.241,1.0575e-05,0
0.2415,1.5274e-05,0
0.242,1.8296e-05,0
0.2425,2.0646e-05,0
0.243,2.4506e-05,0
0.2435,2.8199e-05,0
0.244,2.9206e-05,0
0.2445,2.5345e-05,0
0.245,1.7288e-05,0
0.2455,1.0575e-05,0
0.246,1.091e-05,0
0.2465,1.5274e-05,0
0.247,1.8631e-05,0
0.2475,1.796e-05,0
0.248,1.4939e-05,0
0.2485,1.2589e-05,0
0.249,9.9031e-06,0
0.2495,1.0575e-05,0
0.25,1.5106e-05,0
0.2505,2.0646e-05,0
0.251,2.2995e-05,0
0.2515,2.4002e-05,0
0.252,2.4674e-05,0
0.2525,2.4842e-05,0
0.253,2.3331e-05,0
0.2535,2.4002e-05,0
0.254,2.4842e-05,0
0.2545,2.5009e-05,0
0.255,2.9038e-05,0
0.2555,3.4745e-05,0
0.256,3.5248e-05,0
0.2565,2.9374e-05,0
0.257,2.3331e-05,0
0.2575,2.0478e-05,0
0.258,2.0646e-05,0
0.2585,1.9974e-05,0
0.259,1.6114e-05,0
0.2595,8.896e-06,0
0.26,-8.392e-07,0
0.2605,-8.896e-06,0
0.261,-9.3996e-06,0
0.2615,-1.6785e-06,0
0.262,7.8889e-06,0
0.2625,1.2589e-05,0
0.263,7.0497e-06,0
0.2635,-1.5106e-06,0
0.264,-2.182e-06,0
0.2645,7.2175e-06,0
0.265,1.9303e-05,0
0.2655,2.7863e-05,0
0.266,3.1388e-05,0
0.2665,3.2059e-05,0
0.267,2.887e-05,0
0.2675,2.2828e-05,0
0.268,1.796e-05,0
0.2685,1.6953e-05,0
0.269,1.9974e-05,0
0.2695,2.4002e-05,0
0.27,2.9206e-05,0
0.2705,3.3066e-05,0
0.271,3.508e-05,0
0.2715,3.7766e-05,0
0.272,4.1795e-05,0
0.2725,4.2802e-05,0
0.273,3.978e-05,0
0.2735,3.6759e-05,0
0.274,3.3402e-05,0
0.2745,2.5345e-05,0
0.275,1.326e-05,0
0.2755,5.035e-07,0
0.276,-7.5532e-06,0
0.2765,-9.2317e-06,0
0.277,-1.326e-05,0
0.2775,-2.2156e-05,0
0.278,-2.7024e-05,0
0.2785,-2.2156e-05,0
0.279,-1.3092e-05,0
0.2795,-4.1962e-06,0
0.28,1.5106e-06,0
0.2805,5.7069e-06,0
0.281,9.2317e-06,0
0.2815,1.3092e-05,0
0.282,1.8631e-05,0
0.2825,2.6184e-05,0
0.283,3.3402e-05,0
0.2835,3.743e-05,0
0.284,3.743e-05,0
0.2845,3.5752e-05,0
0.285,3.8437e-05,0
0.2855,4.1962e-05,0
0.286,4.1459e-05,0
0.2865,3.592e-05,0
0.287,3.0549e-05,0
0.2875,2.652e-05,0
0.288,2.266e-05,0
0.2885,1.5946e-05,0
0.289,1.0407e-05,0
0.2895,1.1749e-05,0
0.29,1.4603e-05,0
0.2905,1.7792e-05,0
0.291,2.2324e-05,0
0.2915,2.6352e-05,0
0.292,2.6017e-05,0
0.2925,2.5513e-05,0
0.293,2.6688e-05,0
0.2935,2.5681e-05,0
0.294,2.3667e-05,0
0.2945,2.4002e-05,0
0.295,2.5345e-05,0
0.2955,2.6688e-05,0
0.296,2.887e-05,0
0.2965,3.0381e-05,0
0.297,3.0716e-05,0
0.2975,3.0716e-05,0
0.298,2.9709e-05,0
0.2985,2.7695e-05,0
0.299,2.4338e-05,0
0.2995,2.2156e-05,0
0.3,2.266e-05,0
0.3005,2.4338e-05,0
0.301,2.1317e-05,0
0.3015,1.6617e-05,0
0.302,1.7121e-05,0
0.3025,2.266e-05,0
0.303,2.7863e-05,0
0.3035,2.7695e-05,0
0.304,2.4002e-05,0
0.3045,2.1317e-05,0
0.305,2.0142e-05,0
0.3055,1.8799e-05,0
0.306,1.6281e-05,0
0.3065,1.3932e-05,0
0.307,1.4435e-05,0
0.3075,1.4939e-05,0
0.308,1.5274e-05,0
0.3085,1.6785e-05,0
0.309,1.7288e-05,0
0.3095,1.5106e-05,0
0.31,1.326e-05,0
0.3105,1.4267e-05,0
0.311,1.4603e-05,0
0.3115,1.3092e-05,0
0.312,1.4939e-05,0
0.3125,1.8631e-05,0
0.313,1.9806e-05,0
0.3135,1.9303e-05,0
0.314,1.796e-05,0
0.3145,1.7624e-05,0
0.315,1.8631e-05,0
0.3155,1.8463e-05,0
0.316,1.796e-05,0
0.3165,1.796e-05,0
0.317,1.5946e-05,0
0.3175,1.5778e-05,0
0.318,1.9974e-05,0
0.3185,2.7024e-05,0
0.319,3.0716e-05,0
0.3195,2.8702e-05,0
0.32,2.6688e-05,0
0.3205,2.7024e-05,0
0.321,2.7863e-05,0
0.3215,2.5513e-05,0
0.322,2.1317e-05,0
0.3225,1.4435e-05,0
0.323,8.2246e-06,0
0.3235,4.1962e-06,0
0.324,2.5177e-06,0
0.3245,1.6785e-06,0
0.325,4.0284e-06,0
0.3255,8.3925e-06,0
0.326,1.3092e-05,0
0.3265,1.6281e-05,0
0.327,1.5946e-05,0
0.3275,1.326e-05,0
0.328,1.2421e-05,0
0.3285,1.326e-05,0
0.329,1.3764e-05,0
0.3295,1.1414e-05,0
0.33,8.5603e-06,0
0.3305,8.2246e-06,0
0.331,8.5603e-06,0
0.3315,1.1582e-05,0
0.332,1.5274e-05,0
0.3325,1.8128e-05,0
0.333,2.1317e-05,0
0.3335,2.5849e-05,0
0.334,2.8367e-05,0
0.3345,2.7024e-05,0
0.335,2.6017e-05,0
0.3355,2.4506e-05,0
0.336,2.4842e-05,0
0.3365,2.7359e-05,0
0.337,2.9709e-05,0
0.3375,2.8702e-05,0
0.338,2.5681e-05,0
0.3385,2.6688e-05,0
0.339,2.7359e-05,0
0.3395,2.6352e-05,0
0.34,2.3331e-05,0
0.3405,2.1317e-05,0
0.341,2.0646e-05,0
0.3415,1.9974e-05,0
0.342,1.5946e-05,0
0.3425,9.2317e-06,0
0.343,4.8676e-06,0
0.3435,5.2033e-06,0
0.344,7.3854e-06,0
0.3445,1.0575e-05,0
0.345,1.1749e-05,0
0.3455,1.1414e-05,0
0.346,1.1749e-05,0
0.3465,1.2757e-05,0
0.347,1.561e-05,0
0.3475,1.8631e-05,0
0.348,2.0981e-05,0
0.3485,2.5009e-05,0
0.349,3.1052e-05,0
0.3495,3.4073e-05,0
0.35,3.3402e-05,0
0.3505,3.1388e-05,0
0.351,2.7024e-05,0
0.3515,2.3331e-05,0
0.352,2.2995e-05,0
0.3525,2.2995e-05,0
0.353,1.9974e-05,0
0.3535,1.7624e-05,0
0.354,1.7624e-05,0
0.3545,1.7792e-05,0
0.355,1.1917e-05,0
0.3555,2.5177e-06,0
0.356,-2.5177e-06,0
0.3565,-1.0071e-06,0
0.357,2.8534e-06,0
0.3575,9.0639e-06,0
0.358,1.5778e-05,0
0.3585,2.1988e-05,0
0.359,2.7359e-05,0
0.3595,3.2731e-05,0
0.36,3.5416e-05,0
0.3605,3.4073e-05,0
0.361,3.2731e-05,0
0.3615,3.0716e-05,0
0.362,2.9206e-05,0
0.3625,2.6688e-05,0
0.363,2.2324e-05,0
0.3635,2.0478e-05,0
0.364,2.1317e-05,0
0.3645,2.2995e-05,0
0.365,2.4338e-05,0
0.3655,2.2324e-05,0
0.366,1.6281e-05,0
0.3665,8.2246e-06,0
0.367,2.5177e-06,0
0.3675,4.0284e-06,0
0.368,8.3925e-06,0
0.3685,1.1749e-05,0
0.369,1.4939e-05,0
0.3695,1.9303e-05,0
0.37,2.2324e-05,0
0.3705,2.5177e-05,0
0.371,2.6688e-05,0
0.3715,2.4674e-05,0
0.372,2.031e-05,0
0.3725,1.796e-05,0
0.373,1.9303e-05,0
0.3735,1.9974e-05,0
0.374,1.9974e-05,0
0.3745,2.0981e-05,0
0.375,2.2156e-05,0
0.3755,2.4338e-05,0
0.376,2.8031e-05,0
0.3765,3.0045e-05,0
0.377,2.9038e-05,0
0.3775,2.6352e-05,0
0.378,2.5681e-05,0
0.3785,2.8031e-05,0
0.379,3.1052e-05,0
0.3795,2.9877e-05,0
0.38,2.2828e-05,0
0.3805,1.4267e-05,0
0.381,8.896e-06,0
0.3815,1.0575e-05,0
0.382,1.8463e-05,0
0.3825,2.6017e-05,0
0.383,2.4674e-05,0
0.3835,1.5946e-05,0
0.384,7.2175e-06,0
0.3845,2.182e-06,0
0.385,3.5248e-06,0
0.3855,8.7282e-06,0
0.386,1.2589e-05,0
0.3865,1.6785e-05,0
0.387,2.4002e-05,0
0.3875,2.6688e-05,0
0.388,2.1653e-05,0
0.3885,1.5274e-05,0
0.389,1.2421e-05,0
0.3895,1.5274e-05,0
0.39,1.9806e-05,0
0.3905,2.1988e-05,0
0.391,2.6352e-05,0
0.3915,3.2395e-05,0
0.392,3.5416e-05,0
0.3925,3.122e-05,0
0.393,2.1317e-05,0
0.3935,1.4099e-05,0
0.394,1.1078e-05,0
0.3945,8.5603e-06,0
0.395,6.8818e-06,0
0.3955,9.2317e-06,0
0.396,1.3596e-05,0
0.3965,1.6953e-05,0
0.397,1.5946e-05,0
0.3975,8.3925e-06,0
0.398,-1.678e-07,0
0.3985,0,0
0.399,4.5319e-06,0
0.3995,6.8818e-06,0
0.4,4.1962e-06,0
0.4005,8.392e-07,0
0.401,3.8605e-06,0
0.4015,1.1917e-05,0
0.402,2.1988e-05,0
0.4025,3.0716e-05,0
0.403,3.6088e-05,0
0.4035,3.7095e-05,0
0.404,3.4745e-05,0
0.4045,3.4073e-05,0
0.405,3.4409e-05,0
0.4055,3.0045e-05,0
0.406,2.1988e-05,0
0.4065,1.7288e-05,0
0.407,1.7288e-05,0
0.4075,2.0981e-05,0
0.408,2.3667e-05,0
0.4085,2.652e-05,0
0.409,3.0549e-05,0
0.4095,3.1052e-05,0
0.41,2.8031e-05,0
0.4105,3.0045e-05,0
0.411,3.6759e-05,0
0.4115,4.3473e-05,0
0.412,4.4144e-05,0
0.4125,4.2466e-05,0
0.413,4.0787e-05,0
0.4135,3.6255e-05,0
0.414,3.0716e-05,0
0.4145,2.4674e-05,0
0.415,1.8296e-05,0
0.4155,1.3764e-05,0
0.416,9.7353e-06,0
0.4165,4.8676e-06,0
0.417,-2.3499e-06,0
0.4175,-1.2421e-05,0
0.418,-2.266e-05,0
0.4185,-2.5177e-05,0
0.419,-1.9135e-05,0
0.4195,-1.2421e-05,0
0.42,-7.5532e-06,0
0.4205,-2.3499e-06,0
0.421,6.2104e-06,0
0.4215,1.9974e-05,0
0.422,3.2731e-05,0
0.4225,4.0116e-05,0
0.423,4.3473e-05,0
0.4235,4.2802e-05,0
0.424,3.6423e-05,0
0.4245,2.8199e-05,0
0.425,2.4002e-05,0
0.4255,2.4842e-05,0
0.426,2.5009e-05,0
0.4265,2.0981e-05,0
0.427,1.8967e-05,0
0.4275,2.1149e-05,0
0.428,2.266e-05,0
0.4285,2.0478e-05,0
0.429,1.5946e-05,0
0.4295,1.5274e-05,0
0.43,1.9135e-05,0
0.4305,2.5345e-05,0
0.431,2.7695e-05,0
0.4315,2.7359e-05,0
0.432,2.6017e-05,0
0.4325,2.6688e-05,0
0.433,3.0213e-05,0
0.4335,3.3234e-05,0
0.434,3.4073e-05,0
0.4345,3.3402e-05,0
0.435,2.9374e-05,0
0.4355,2.3667e-05,0
0.436,2.031e-05,0
0.4365,1.9135e-05,0
0.437,1.9303e-05,0
0.4375,2.1653e-05,0
0.438,2.4002e-05,0
0.4385,2.5681e-05,0
0.439,2.4002e-05,0
0.4395,2.182e-05,0
0.44,2.1988e-05,0
0.4405,2.2156e-05,0
0.441,2.182e-05,0
0.4415,1.9974e-05,0
0.442,1.5946e-05,0
0.4425,1.1246e-05,0
0.443,6.8818e-06,0
0.4435,3.8605e-06,0
0.444,2.3499e-06,0
0.4445,3.357e-07,0
0.445,-5.0355e-06,0
0.4455,-7.2175e-06,0
0.446,5.035e-07,0
0.4465,1.3092e-05,0
0.447,2.0646e-05,0
0.4475,2.1988e-05,0
0.448,2.3331e-05,0
0.4485,2.7359e-05,0
0.449,3.1724e-05,0
0.4495,3.3738e-05,0
0.45,3.0045e-05,0
0.4505,2.3331e-05,0
0.451,2.1149e-05,0
0.4515,2.5009e-05,0
0.452,3.0716e-05,0
0.4525,3.1052e-05,0
0.453,2.3667e-05,0
0.4535,1.3596e-05,0
0.454,7.8889e-06,0
0.4545,7.0497e-06,0
0.455,5.8747e-06,0
0.4555,4.6998e-06,0
0.456,6.8818e-06,0
0.4565,1.5946e-05,0
0.457,2.4002e-05,0
0.4575,2.1317e-05,0
0.458,8.7282e-06,0
0.4585,-8.2246e-06,0
0.459,-1.9806e-05,0
0.4595,-2.182e-05,0
0.46,-1.0407e-05,0
0.4605,1.1414e-05,0
0.461,2.9038e-05,0
0.4615,3.4745e-05,0
0.462,3.0716e-05,0
0.4625,2.3331e-05,0
0.463,1.5778e-05,0
0.4635,8.2246e-06,0
0.464,0,0
0.4645,-3.1891e-06,0
0.465,2.5177e-06,0
0.4655,1.0575e-05,0
0.466,1.6281e-05,0
0.4665,1.9806e-05,0
0.467,1.8967e-05,0
0.4675,1.6617e-05,0
0.468,2.031e-05,0
0.4685,2.7863e-05,0
0.469,3.1891e-05,0
0.4695,3.1891e-05,0
0.47,2.9206e-05,0
0.4705,2.6688e-05,0
0.471,2.3835e-05,0
0.4715,2.1317e-05,0
0.472,2.6017e-05,0
0.4725,3.3234e-05,0
0.473,3.5416e-05,0
0.4735,3.3066e-05,0
0.474,2.8702e-05,0
0.4745,2.8367e-05,0
0.475,3.3234e-05,0
0.4755,3.508e-05,0
0.476,3.0045e-05,0
0.4765,2.4674e-05,0
0.477,2.5345e-05,0
0.4775,2.9877e-05,0
0.478,3.0716e-05,0
0.4785,2.4338e-05,0
0.479,1.4267e-05,0
0.4795,1.0407e-05,0
0.48,1.6281e-05,0
0.4805,2.6017e-05,0
0.481,3.2731e-05,0
0.4815,3.3402e-05,0
0.482,3.1052e-05,0
0.4825,2.7359e-05,0
0.483,2.4002e-05,0
0.4835,2.1653e-05,0
0.484,2.0981e-05,0
0.4845,2.1317e-05,0
0.485,2.3667e-05,0
0.4855,3.1388e-05,0
0.486,4.2634e-05,0
0.4865,4.7333e-05,0
0.487,4.2298e-05,0
0.4875,3.5416e-05,0
0.488,3.122e-05,0
0.4885,2.6352e-05,0
0.489,2.0478e-05,0
0.4895,1.7121e-05,0
0.49,1.5946e-05,0
0.4905,1.4939e-05,0
0.491,1.1246e-05,0
0.4915,2.5177e-06,0
0.492,-1.1582e-05,0
0.4925,-2.0478e-05,0
0.493,-1.5274e-05,0
0.4935,-2.3499e-06,0
0.494,1.0575e-05,0
0.4945,2.2156e-05,0
0.495,3.0549e-05,0
0.4955,3.6423e-05,0
0.496,3.8941e-05,0
0.4965,4.0116e-05,0
0.497,3.743e-05,0
0.4975,2.8702e-05,0
0.498,1.7288e-05,0
0.4985,1.1078e-05,0
0.499,1.1246e-05,0
0.4995,1.1917e-05,0
0.5,7.5532e-06,0
0.5005,2.182e-06,0
0.501,-3.0213e-06,0
0.5015,-9.0639e-06,0
0.502,-1.2421e-05,0
0.5025,-1.0407e-05,0
0.503,-2.8534e-06,0
0.5035,7.7211e-06,0
0.504,1.5778e-05,0
0.5045,2.1317e-05,0
0.505,2.5681e-05,0
0.5055,2.7192e-05,0
0.506,2.7863e-05,0
0.5065,2.5681e-05,0
0.507,2.1988e-05,0
0.5075,1.8631e-05,0
0.508,1.3932e-05,0
0.5085,1.0575e-05,0
0.509,1.091e-05,0
0.5095,1.2253e-05,0
0.51,1.326e-05,0
0.5105,1.6617e-05,0
0.511,2.2156e-05,0
0.5115,2.266e-05,0
0.512,1.9638e-05,0
0.5125,1.6449e-05,0
0.513,1.326e-05,0
0.5135,1.1582e-05,0
0.514,1.0071e-05,0
0.5145,1.2589e-05,0
0.515,1.7792e-05,0
0.5155,2.1988e-05,0
0.516,2.6352e-05,0
0.5165,3.1388e-05,0
0.517,3.4409e-05,0
0.5175,3.2731e-05,0
0.518,3.2059e-05,0
0.5185,3.6423e-05,0
0.519,4.1795e-05,0
0.5195,4.1795e-05,0
0.52,4.0116e-05,0
0.5205,3.8437e-05,0
0.521,3.5752e-05,0
0.5215,3.4409e-05,0
0.522,3.4913e-05,0
0.5225,3.3234e-05,0
0.523,2.5345e-05,0
0.5235,1.7624e-05,0
0.524,1.3596e-05,0
0.5245,7.8889e-06,0
0.525,-1.0071e-06,0
0.5255,-4.5319e-06,0
0.526,-2.182e-06,0
0.5265,3.357e-07,0
0.527,2.0142e-06,0
0.5275,2.8534e-06,0
0.528,1.0071e-06,0
0.5285,6.714e-07,0
0.529,7.5532e-06,0
0.5295,1.561e-05,0
0.53,1.8463e-05,0
0.5305,1.8631e-05,0
0.531,1.8296e-05,0
0.5315,1.9974e-05,0
0.532,2.182e-05,0
0.5325,2.1988e-05,0
0.533,2.0981e-05,0
0.5335,2.1317e-05,0
0.534,2.2324e-05,0
0.5345,2.2156e-05,0
0.535,2.1317e-05,0
0.5355,2.2995e-05,0
0.536,2.5009e-05,0
0.5365,2.4674e-05,0
0.537,2.4338e-05,0
0.5375,2.3667e-05,0
0.538,2.0981e-05,0
0.5385,1.6617e-05,0
0.539,1.3932e-05,0
0.5395,1.5946e-05,0
0.54,2.1317e-05,0
0.5405,2.6352e-05,0
0.541,2.9374e-05,0
0.5415,2.9709e-05,0
0.542,2.9206e-05,0
0.5425,3.0213e-05,0
0.543,3.1052e-05,0
0.5435,2.8199e-05,0
0.544,2.6352e-05,0
0.5445,2.5681e-05,0
0.545,2.4002e-05,0
0.5455,2.3499e-05,0
0.546,2.2995e-05,0
0.5465,2.3835e-05,0
0.547,2.4506e-05,0
0.5475,2.5345e-05,0
0.548,2.6184e-05,0
0.5485,2.4506e-05,0
0.549,1.9303e-05,0
0.5495,1.5274e-05,0
0.55,1.4267e-05,0
0.5505,1.3092e-05,0
0.551,1.0407e-05,0
0.5515,9.2317e-06,0
0.552,1.0575e-05,0
0.5525,1.2924e-05,0
0.553,1.4267e-05,0
0.5535,1.6114e-05,0
0.554,1.796e-05,0
0.5545,2.0981e-05,0
0.555,2.1317e-05,0
0.5555,1.561e-05,0
0.556,1.5274e-05,0
0.5565,2.6017e-05,0
0.557,3.827e-05,0
0.5575,4.1291e-05,0
0.558,3.4745e-05,0
0.5585,2.7024e-05,0
0.559,2.4002e-05,0
0.5595,2.4338e-05,0
0.56,2.266e-05,0
0.5605,1.9974e-05,0
0.561,1.8631e-05,0
0.5615,1.8967e-05,0
0.562,1.326e-05,0
0.5625,2.6856e-06,0
0.563,-1.091e-05,0
0.5635,-2.0981e-05,0
0.564,-1.6953e-05,0
0.5645,-5.539e-06,0
0.565,2.5177e-06,0
0.5655,8.5603e-06,0
0.566,1.3596e-05,0
0.5665,1.796e-05,0
0.567,2.3163e-05,0
0.5675,2.8031e-05,0
0.568,3.0213e-05,0
0.5685,3.1052e-05,0
0.569,2.9374e-05,0
0.5695,2.417e-05,0
0.57,1.6617e-05,0
0.5705,8.5603e-06,0
0.571,3.8605e-06,0
0.5715,4.8676e-06,0
0.572,8.896e-06,0
0.5725,1.5274e-05,0
0.573,1.8296e-05,0
0.5735,1.7456e-05,0
0.574,1.8967e-05,0
0.5745,2.1317e-05,0
0.575,2.3331e-05,0
0.5755,2.5345e-05,0
0.576,2.9374e-05,0
0.5765,3.2059e-05,0
0.577,2.887e-05,0
0.5775,2.1988e-05,0
0.578,1.8631e-05,0
0.5785,2.2828e-05,0
0.579,3.0716e-05,0
0.5795,3.5416e-05,0
0.58,3.743e-05,0
0.5805,3.8437e-05,0
0.581,3.6591e-05,0
0.5815,3.2059e-05,0
0.582,2.7192e-05,0
0.5825,2.6688e-05,0
0.583,2.7695e-05,0
0.5835,2.4002e-05,0
0.584,1.7288e-05,0
0.5845,1.1246e-05,0
0.585,7.7211e-06,0
0.5855,1.5106e-06,0
0.586,-1.0239e-05,0
0.5865,-1.7624e-05,0
0.587,-1.1582e-05,0
0.5875,5.2033e-06,0
0.588,1.947e-05,0
0.5885,2.4506e-05,0
0.589,2.2324e-05,0
0.5895,1.947e-05,0
0.59,1.7288e-05,0
0.5905,1.6617e-05,0
0.591,1.8296e-05,0
0.5915,2.0142e-05,0
0.592,2.1317e-05,0
0.5925,2.1317e-05,0
0.593,1.7288e-05,0
0.5935,7.8889e-06,0
0.594,8.392e-07,0
0.5945,-1.5106e-06,0
0.595,6.714e-07,0
0.5955,6.714e-06,0
0.596,1.2757e-05,0
0.5965,1.5946e-05,0
0.597,1.6953e-05,0
0.5975,1.5946e-05,0
0.598,1.3764e-05,0
0.5985,1.4603e-05,0
0.599,1.8128e-05,0
0.5995,2.266e-05,0
0.6,2.6352e-05,0
0.6005,2.887e-05,0
0.601,2.8031e-05,0
0.6015,2.7359e-05,0
0.602,2.8031e-05,0
0.6025,3.0381e-05,0
0.603,3.2059e-05,0
0.6035,3.1388e-05,0
0.604,2.9038e-05,0
0.6045,2.8367e-05,0
0.605,2.9374e-05,0
0.6055,3.1388e-05,0
0.606,3.3402e-05,0
0.6065,3.4241e-05,0
0.607,3.2898e-05,0
0.6075,3.1052e-05,0
0.608,2.9709e-05,0
0.6085,2.8534e-05,0
0.609,2.652e-05,0
0.6095,2.5177e-05,0
0.61,2.3667e-05,0
0.6105,2.182e-05,0
0.611,1.9806e-05,0
0.6115,1.7121e-05,0
0.612,1.5442e-05,0
0.6125,1.6617e-05,0
0.613,1.7792e-05,0
0.6135,1.8128e-05,0
0.614,1.8631e-05,0
0.6145,2.1317e-05,0
0.615,2.5345e-05,0
0.6155,2.7359e-05,0
0.616,2.8031e-05,0
0.6165,2.8031e-05,0
0.617,2.652e-05,0
0.6175,2.417e-05,0
0.618,2.2995e-05,0
0.6185,2.5345e-05,0
0.619,2.8031e-05,0
0.6195,2.4506e-05,0
0.62,1.9638e-05,0
0.6205,2.0478e-05,0
0.621,2.4842e-05,0
0.6215,2.8031e-05,0
0.622,2.6688e-05,0
0.6225,2.8031e-05,0
0.623,3.1052e-05,0
0.6235,2.9877e-05,0
0.624,2.5513e-05,0
0.6245,2.5681e-05,0
0.625,2.4506e-05,0
0.6255,1.7288e-05,0
0.626,9.2317e-06,0
0.6265,5.8747e-06,0
0.627,5.8747e-06,0
0.6275,3.8605e-06,0
0.628,1.8463e-06,0
0.6285,4.8676e-06,0
0.629,1.3932e-05,0
0.6295,2.7527e-05,0
0.63,3.4745e-05,0
0.6305,3.3234e-05,0
0.631,2.7863e-05,0
0.6315,2.2995e-05,0
0.632,1.796e-05,0
0.6325,1.2253e-05,0
0.633,9.0639e-06,0
0.6335,8.3925e-06,0
0.634,1.0575e-05,0
0.6345,1.4267e-05,0
0.635,1.326e-05,0
0.6355,1.2924e-05,0
0.636,1.561e-05,0
0.6365,1.9806e-05,0
0.637,2.1988e-05,0
0.6375,1.9974e-05,0
0.638,1.3932e-05,0
0.6385,4.3641e-06,0
0.639,-5.2033e-06,0
0.6395,-1.0071e-05,0
0.64,-1.1917e-05,0
0.6405,-1.2589e-05,0
0.641,-1.2253e-05,0
0.6415,-9.9031e-06,0
0.642,-8.2246e-06,0
0.6425,-9.2317e-06,0
0.643,-1.0071e-05,0
0.6435,-3.357e-06,0
0.644,7.7211e-06,0
0.6445,1.5946e-05,0
0.645,2.1988e-05,0
0.6455,2.6688e-05,0
0.646,2.9877e-05,0
0.6465,3.0381e-05,0
0.647,2.8702e-05,0
0.6475,2.8031e-05,0
0.648,2.7024e-05,0
0.6485,2.7359e-05,0
0.649,2.7695e-05,0
0.6495,2.8031e-05,0
0.65,2.9877e-05,0
0.6505,3.2059e-05,0
0.651,3.6423e-05,0
0.6515,4.0955e-05,0
0.652,3.9445e-05,0
0.6525,3.6088e-05,0
0.653,3.5584e-05,0
0.6535,3.743e-05,0
0.654,4.1123e-05,0
0.6545,4.2466e-05,0
0.655,4.2802e-05,0
0.6555,4.4144e-05,0
0.656,4.2802e-05,0
0.6565,3.8102e-05,0
0.657,3.2395e-05,0
0.6575,2.5849e-05,0
0.658,1.6449e-05,0
0.6585,7.5532e-06,0
0.659,1.6785e-06,0
0.6595,-4.5319e-06,0
0.66,-1.091e-05,0
0.6605,-1.1917e-05,0
0.661,-8.3925e-06,0
0.6615,-7.2175e-06,0
0.662,-9.7353e-06,0
0.6625,-1.091e-05,0
0.663,-8.5603e-06,0
0.6635,-3.5248e-06,0
0.664,3.1891e-06,0
0.6645,1.0407e-05,0
0.665,1.561e-05,0
0.6655,1.6449e-05,0
0.666,1.5106e-05,0
0.6665,1.6953e-05,0
0.667,1.9974e-05,0
0.6675,2.0813e-05,0
0.668,2.031e-05,0
0.6685,2.2995e-05,0
0.669,2.7359e-05,0
0.6695,2.9374e-05,0
0.67,2.887e-05,0
0.6705,2.5345e-05,0
0.671,2.3331e-05,0
0.6715,2.4002e-05,0
0.672,2.5849e-05,0
0.6725,2.8199e-05,0
0.673,2.9374e-05,0
0.6735,2.8534e-05,0
0.674,2.7024e-05,0
0.6745,2.5177e-05,0
0.675,2.2995e-05,0
0.6755,2.266e-05,0
0.676,2.5513e-05,0
0.6765,2.7527e-05,0
0.677,2.7695e-05,0
0.6775,2.8367e-05,0
0.678,2.9877e-05,0
0.6785,2.9709e-05,0
0.679,2.8367e-05,0
0.6795,2.4506e-05,0
0.68,2.031e-05,0
0.6805,1.9974e-05,0
0.681,2.266e-05,0
0.6815,2.3667e-05,0
0.682,2.2492e-05,0
0.6825,2.0981e-05,0
0.683,2.0981e-05,0
0.6835,2.1149e-05,0
0.684,2.3667e-05,0
0.6845,2.9206e-05,0
0.685,3.2563e-05,0
0.6855,3.1724e-05,0
0.686,3.0549e-05,0
0.6865,3.2563e-05,0
0.687,3.2395e-05,0
0.6875,3.0716e-05,0
0.688,3.1891e-05,0
0.6885,3.6591e-05,0
0.689,3.8773e-05,0
0.6895,3.743e-05,0
0.69,3.5416e-05,0
0.6905,3.2227e-05,0
0.691,2.4002e-05,0
0.6915,1.4267e-05,0
0.692,4.8676e-06,0
0.6925,-2.8534e-06,0
0.693,-3.8605e-06,0
0.6935,-1.5106e-06,0
0.694,-8.392e-07,0
0.6945,-2.3499e-06,0
0.695,-2.8534e-06,0
0.6955,-3.357e-07,0
0.696,2.5177e-06,0
0.6965,2.182e-06,0
0.697,-1.8463e-06,0
0.6975,-5.539e-06,0
0.698,-3.0213e-06,0
0.6985,1.8463e-06,0
0.699,5.3712e-06,0
0.6995,8.2246e-06,0
0.7,1.1246e-05,0
0.7005,1.0575e-05,0
0.701,8.7282e-06,0
0.7015,1.0575e-05,0
0.702,1.6617e-05,0
0.7025,2.266e-05,0
0.703,2.8031e-05,0
0.7035,3.2731e-05,0
0.704,3.4073e-05,0
0.7045,3.2731e-05,0
0.705,3.2731e-05,0
0.7055,3.4409e-05,0
0.706,3.4577e-05,0
0.7065,3.3402e-05,0
0.707,3.2059e-05,0
0.7075,3.0381e-05,0
0.708,2.7024e-05,0
0.7085,2.1988e-05,0
0.709,1.5274e-05,0
0.7095,1.2924e-05,0
0.71,1.6281e-05,0
0.7105,2.1317e-05,0
0.711,2.5009e-05,0
0.7115,2.7192e-05,0
0.712,2.9374e-05,0
0.7125,3.1388e-05,0
0.713,2.8534e-05,0
0.7135,2.0646e-05,0
0.714,1.0575e-05,0
0.7145,6.2104e-06,0
0.715,1.1414e-05,0
0.7155,2.2324e-05,0
0.716,3.357e-05,0
0.7165,3.9948e-05,0
0.717,3.8102e-05,0
0.7175,3.2059e-05,0
0.718,2.5345e-05,0
0.7185,1.947e-05,0
0.719,1.7624e-05,0
0.7195,1.7624e-05,0
0.72,1.4435e-05,0
0.7205,1.1917e-05,0
0.721,1.1917e-05,0
0.7215,9.2317e-06,0
0.722,5.539e-06,0
0.7225,3.8605e-06,0
0.723,7.5532e-06,0
0.7235,1.2589e-05,0
0.724,1.7624e-05,0
0.7245,2.1988e-05,0
0.725,2.3331e-05,0
0.7255,2.266e-05,0
0.726,2.2156e-05,0
0.7265,1.796e-05,0
0.727,1.3596e-05,0
0.7275,1.5274e-05,0
0.728,2.0981e-05,0
0.7285,2.7192e-05,0
0.729,2.7359e-05,0
0.7295,2.3835e-05,0
0.73,2.1317e-05,0
0.7305,2.1317e-05,0
0.731,2.1653e-05,0
0.7315,2.266e-05,0
0.732,2.3163e-05,0
0.7325,2.3667e-05,0
0.733,2.3331e-05,0
0.7335,2.031e-05,0
0.734,1.3764e-05,0
0.7345,8.7282e-06,0
0.735,7.2175e-06,0
0.7355,7.5532e-06,0
0.736,3.6927e-06,0
0.7365,-3.8605e-06,0
0.737,-4.6998e-06,0
0.7375,2.8534e-06,0
0.738,1.4267e-05,0
0.7385,2.4002e-05,0
0.739,2.8031e-05,0
0.7395,2.3667e-05,0
0.74,1.5946e-05,0
0.7405,1.0575e-05,0
0.741,1.0239e-05,0
0.7415,1.2924e-05,0
0.742,1.7288e-05,0
0.7425,2.031e-05,0
0.743,2.1988e-05,0
0.7435,2.4338e-05,0
0.744,2.4674e-05,0
0.7445,2.1317e-05,0
0.745,1.9638e-05,0
0.7455,2.1317e-05,0
0.746,2.2995e-05,0
0.7465,2.3667e-05,0
0.747,2.5681e-05,0
0.7475,2.6688e-05,0
0.748,2.5681e-05,0
0.7485,2.5849e-05,0
0.749,2.6688e-05,0
0.7495,2.6017e-05,0
0.75,2.266e-05,0
0.7505,1.9974e-05,0
0.751,2.0813e-05,0
0.7515,2.1653e-05,0
0.752,2.2492e-05,0
0.7525,2.3835e-05,0
0.753,2.5177e-05,0
0.7535,2.5009e-05,0
0.754,2.2492e-05,0
0.7545,2.1317e-05,0
0.755,2.182e-05,0
0.7555,2.3667e-05,0
0.756,2.4506e-05,0
0.7565,2.3499e-05,0
0.757,2.2324e-05,0
0.7575,2.266e-05,0
0.758,2.2156e-05,0
0.7585,2.0981e-05,0
0.759,2.0478e-05,0
0.7595,1.9135e-05,0
0.76,1.796e-05,0
0.7605,1.6953e-05,0
0.761,1.7792e-05,0
0.7615,1.8631e-05,0
0.762,2.1317e-05,0
0.7625,2.8031e-05,0
0.763,3.2059e-05,0
0.7635,3.122e-05,0
0.764,2.8367e-05,0
0.7645,2.5681e-05,0
0.765,2.1317e-05,0
0.7655,1.5946e-05,0
0.766,1.2757e-05,0
0.7665,1.326e-05,0
0.767,1.7121e-05,0
0.7675,2.1653e-05,0
0.768,2.266e-05,0
0.7685,1.8128e-05,0
0.769,9.9031e-06,0
0.7695,4.3641e-06,0
0.77,5.539e-06,0
0.7705,8.896e-06,0
0.771,1.2589e-05,0
0.7715,1.6785e-05,0
0.772,1.6953e-05,0
0.7725,1.3596e-05,0
0.773,9.0639e-06,0
0.7735,7.5532e-06,0
0.774,9.5674e-06,0
0.7745,1.326e-05,0
0.775,1.5106e-05,0
0.7755,1.5274e-05,0
0.776,1.4603e-05,0
0.7765,1.6281e-05,0
0.777,1.9974e-05,0
0.7775,2.0646e-05,0
0.778,1.8631e-05,0
0.7785,1.7624e-05,0
0.779,1.7288e-05,0
0.7795,1.9974e-05,0
0.78,2.6688e-05,0
0.7805,3.122e-05,0
0.781,3.3402e-05,0
0.7815,3.7262e-05,0
0.782,4.2802e-05,0
0.7825,4.6494e-05,0
0.783,4.4144e-05,0
0.7835,4.1459e-05,0
0.784,3.9277e-05,0
0.7845,3.8102e-05,0
0.785,3.8941e-05,0
0.7855,3.9445e-05,0
0.786,3.4073e-05,0
0.7865,2.3835e-05,0
0.787,1.4267e-05,0
0.7875,5.7069e-06,0
0.788,-1.8463e-06,0
0.7885,-8.3925e-06,0
0.789,-1.6785e-05,0
0.7895,-2.1988e-05,0
0.79,-1.6785e-05,0
0.7905,-6.3783e-06,0
0.791,-1.678e-07,0
0.7915,6.714e-07,0
0.792,-2.5177e-06,0
0.7925,-7.5532e-06,0
0.793,-6.714e-06,0
0.7935,3.1891e-06,0
0.794,1.3932e-05,0
0.7945,2.0142e-05,0
0.795,2.3499e-05,0
0.7955,2.0646e-05,0
0.796,1.1917e-05,0
0.7965,3.5248e-06,0
0.797,2.8534e-06,0
0.7975,8.2246e-06,0
0.798,1.6617e-05,0
0.7985,2.2995e-05,0
0.799,2.3331e-05,0
0.7995,2.1149e-05,0
0.8,1.9974e-05,0
0.8005,2.1653e-05,0
0.801,2.4338e-05,0
0.8015,2.5681e-05,0
0.802,2.8367e-05,0
0.8025,3.2059e-05,0
0.803,3.4073e-05,0
0.8035,3.1891e-05,0
0.804,2.8031e-05,0
0.8045,2.4506e-05,0
0.805,2.2492e-05,0
0.8055,2.266e-05,0
0.806,2.1149e-05,0
0.8065,1.8631e-05,0
0.807,1.9974e-05,0
0.8075,2.3835e-05,0
0.808,2.6352e-05,0
0.8085,2.1988e-05,0
0.809,1.326e-05,0
0.8095,1.1582e-05,0
0.81,1.8128e-05,0
0.8105,2.4506e-05,0
0.811,2.8367e-05,0
0.8115,3.0716e-05,0
0.812,3.2898e-05,0
0.8125,3.6255e-05,0
0.813,3.5584e-05,0
0.8135,3.0716e-05,0
0.814,2.7024e-05,0
0.8145,2.5345e-05,0
0.815,2.1988e-05,0
0.8155,1.7624e-05,0
0.816,1.5946e-05,0
0.8165,1.5946e-05,0
0.817,1.7288e-05,0
0.8175,2.0646e-05,0
0.818,2.1653e-05,0
0.8185,1.8631e-05,0
0.819,1.5274e-05,0
0.8195,1.5946e-05,0
0.82,1.8631e-05,0
0.8205,1.7288e-05,0
0.821,1.796e-05,0
0.8215,2.1653e-05,0
0.822,2.2324e-05,0
0.8225,2.0981e-05,0
0.823,1.9806e-05,0
0.8235,1.9135e-05,0
0.824,2.0981e-05,0
0.8245,2.1317e-05,0
0.825,1.8128e-05,0
0.8255,1.6785e-05,0
0.826,1.9806e-05,0
0.8265,2.4002e-05,0
0.827,2.5849e-05,0
0.8275,2.5009e-05,0
0.828,2.4002e-05,0
0.8285,2.417e-05,0
0.829,2.417e-05,0
0.8295,2.1317e-05,0
0.83,1.6953e-05,0
0.8305,1.4603e-05,0
0.831,1.4267e-05,0
0.8315,1.5106e-05,0
0.832,1.6281e-05,0
0.8325,1.5946e-05,0
0.833,1.8463e-05,0
0.8335,2.4002e-05,0
0.834,2.8702e-05,0
0.8345,2.8367e-05,0
0.835,2.5681e-05,0
0.8355,2.4506e-05,0
0.836,2.3667e-05,0
0.8365,2.3835e-05,0
0.837,2.182e-05,0
0.8375,1.9638e-05,0
0.838,1.8296e-05,0
0.8385,1.8296e-05,0
0.839,1.8631e-05,0
0.8395,1.7121e-05,0
0.84,1.2924e-05,0
0.8405,1.0575e-05,0
0.841,1.3764e-05,0
0.8415,1.8296e-05,0
0.842,2.0646e-05,0
0.8425,2.4002e-05,0
0.843,2.7359e-05,0
0.8435,2.9709e-05,0
0.844,2.8534e-05,0
0.8445,2.8367e-05,0
0.845,3.2059e-05,0
0.8455,3.7934e-05,0
0.846,4.3473e-05,0
0.8465,4.5487e-05,0
0.847,4.3137e-05,0
0.8475,3.743e-05,0
0.848,2.9374e-05,0
0.8485,2.0981e-05,0
0.849,1.2421e-05,0
0.8495,2.182e-06,0
0.85,-6.8818e-06,0
0.8505,-8.896e-06,0
0.851,-8.2246e-06,0
0.8515,-1.2924e-05,0
0.852,-1.7121e-05,0
0.8525,-1.8967e-05,0
0.853,-2.0813e-05,0
0.8535,-1.947e-05,0
0.854,-1.0239e-05,0
0.8545,2.5177e-06,0
0.855,8.896e-06,0
0.8555,1.0239e-05,0
0.856,1.326e-05,0
0.8565,1.9974e-05,0
0.857,2.652e-05,0
0.8575,3.3066e-05,0
0.858,3.8102e-05,0
0.8585,4.2298e-05,0
0.859,4.4816e-05,0
0.8595,4.2298e-05,0
0.86,3.2731e-05,0
0.8605,2.266e-05,0
0.861,1.9974e-05,0
0.8615,1.9303e-05,0
0.862,1.947e-05,0
0.8625,2.031e-05,0
0.863,2.3667e-05,0
0.8635,2.7024e-05,0
0.864,1.6617e-05,0
0.8645,-4.1962e-06,0
0.865,-1.3092e-05,0
0.8655,-1.5106e-06,0
0.866,1.9135e-05,0
0.8665,3.2059e-05,0
0.867,3.4577e-05,0
0.8675,3.1388e-05,0
0.868,2.7695e-05,0
0.8685,2.4506e-05,0
0.869,2.2324e-05,0
0.8695,2.4338e-05,0
0.87,3.3066e-05,0
0.8705,3.9445e-05,0
0.871,3.4577e-05,0
0.8715,1.8463e-05,0
0.872,0,0
0.8725,-1.2253e-05,0
0.873,-1.2757e-05,0
0.8735,-1.5106e-06,0
0.874,1.3092e-05,0
0.8745,2.2324e-05,0
0.875,2.5345e-05,0
0.8755,2.6184e-05,0
0.876,2.5681e-05,0
0.8765,2.3163e-05,0
0.877,1.7456e-05,0
0.8775,1.2085e-05,0
0.878,9.9031e-06,0
0.8785,1.0575e-05,0
0.879,1.2924e-05,0
0.8795,1.6617e-05,0
0.88,1.9974e-05,0
0.8805,2.2324e-05,0
0.881,2.3667e-05,0
0.8815,2.4506e-05,0
0.882,2.5681e-05,0
0.8825,2.6688e-05,0
0.883,2.9542e-05,0
0.8835,3.2059e-05,0
0.884,3.2059e-05,0
0.8845,3.0045e-05,0
0.885,2.8534e-05,0
0.8855,2.6688e-05,0
0.886,2.5345e-05,0
0.8865,2.7527e-05,0
0.887,2.887e-05,0
0.8875,2.7024e-05,0
0.888,2.4506e-05,0
0.8885,2.1317e-05,0
0.889,1.7456e-05,0
0.8895,1.561e-05,0
0.89,1.8296e-05,0
0.8905,2.3499e-05,0
0.891,2.7024e-05,0
0.8915,2.6688e-05,0
0.892,2.5345e-05,0
0.8925,2.5345e-05,0
0.893,2.7695e-05,0
0.8935,3.2059e-05,0
0.894,3.6088e-05,0
0.8945,3.6088e-05,0
0.895,3.4073e-05,0
0.8955,3.3066e-05,0
0.896,3.1052e-05,0
0.8965,2.6688e-05,0
0.897,2.1317e-05,0
0.8975,1.9638e-05,0
0.898,2.0478e-05,0
0.8985,2.0646e-05,0
0.899,1.9135e-05,0
0.8995,1.326e-05,0
0.9,9.2317e-06,0
0.9005,1.0575e-05,0
0.901,1.1078e-05,0
0.9015,8.5603e-06,0
0.902,5.2033e-06,0
0.9025,2.0142e-06,0
0.903,3.6927e-06,0
0.9035,1.3092e-05,0
0.904,2.3163e-05,0
0.9045,2.6352e-05,0
0.905,3.0381e-05,0
0.9055,3.743e-05,0
0.906,4.0116e-05,0
0.9065,3.4073e-05,0
0.907,2.1317e-05,0
0.9075,9.9031e-06,0
0.908,5.539e-06,0
0.9085,5.539e-06,0
0.909,7.7211e-06,0
0.9095,7.8889e-06,0
0.91,1.5106e-06,0
0.9105,-8.2246e-06,0
0.911,-1.4099e-05,0
0.9115,-1.7456e-05,0
0.912,-2.7527e-05,0
0.9125,-3.6255e-05,0
0.913,-2.9709e-05,0
0.9135,-1.2589e-05,0
0.914,2.182e-06,0
0.9145,9.7353e-06,0
0.915,1.326e-05,0
0.9155,1.796e-05,0
0.916,2.1317e-05,0
0.9165,2.182e-05,0
0.917,2.031e-05,0
0.9175,1.8296e-05,0
0.918,1.4267e-05,0
0.9185,1.0575e-05,0
0.919,8.3925e-06,0
0.9195,9.0639e-06,0
0.92,1.3932e-05,0
0.9205,1.8631e-05,0
0.921,2.2324e-05,0
0.9215,2.7024e-05,0
0.922,3.4073e-05,0
0.9225,3.7766e-05,0
0.923,3.1724e-05,0
0.9235,2.1988e-05,0
0.924,1.7624e-05,0
0.9245,1.9974e-05,0
0.925,2.5177e-05,0
0.9255,3.0716e-05,0
0.926,3.6088e-05,0
0.9265,3.9109e-05,0
0.927,3.743e-05,0
0.9275,3.4745e-05,0
0.928,3.4073e-05,0
0.9285,3.3402e-05,0
0.929,3.6088e-05,0
0.9295,4.0452e-05,0
0.93,4.2802e-05,0
0.9305,4.1291e-05,0
0.931,3.7766e-05,0
0.9315,3.3738e-05,0
0.932,3.1388e-05,0
0.9325,2.9374e-05,0
0.933,2.3667e-05,0
0.9335,1.8967e-05,0
0.934,1.9974e-05,0
0.9345,1.9806e-05,0
0.935,1.561e-05,0
0.9355,1.0071e-05,0
0.936,5.539e-06,0
0.9365,8.896e-06,0
0.937,1.5946e-05,0
0.9375,2.1653e-05,0
0.938,2.1317e-05,0
0.9385,2.0646e-05,0
0.939,1.9974e-05,0
0.9395,1.947e-05,0
0.94,1.8296e-05,0
0.9405,1.7288e-05,0
0.941,1.6617e-05,0
0.9415,1.7288e-05,0
0.942,1.9806e-05,0
0.9425,2.4002e-05,0
0.943,2.6688e-05,0
0.9435,2.7359e-05,0
0.944,2.5681e-05,0
0.9445,2.2995e-05,0
0.945,2.1653e-05,0
0.9455,2.182e-05,0
0.946,1.9974e-05,0
0.9465,1.8631e-05,0
0.947,2.0813e-05,0
0.9475,2.4002e-05,0
0.948,2.7695e-05,0
0.9485,2.9206e-05,0
0.949,2.8031e-05,0
0.9495,2.4674e-05,0
0.95,2.1317e-05,0
0.9505,1.8967e-05,0
0.951,1.8967e-05,0
0.9515,1.8967e-05,0
0.952,1.8631e-05,0
0.9525,2.1317e-05,0
0.953,2.4674e-05,0
0.9535,2.266e-05,0
0.954,1.9135e-05,0
0.9545,1.5778e-05,0
0.955,1.5946e-05,0
0.9555,2.1317e-05,0
0.956,2.6688e-05,0
0.9565,2.7695e-05,0
0.957,2.4674e-05,0
0.9575,2.1653e-05,0
0.958,2.1317e-05,0
0.9585,2.1149e-05,0
0.959,2.3331e-05,0
0.9595,2.5345e-05,0
0.96,1.9974e-05,0
0.9605,9.5674e-06,0
0.961,3.1891e-06,0
0.9615,1.1749e-06,0
0.962,-1.678e-07,0
0.9625,-1.5106e-06,0
0.963,-1.6785e-06,0
0.9635,1.678e-07,0
0.964,3.1891e-06,0
0.9645,5.7069e-06,0
0.965,7.3854e-06,0
0.9655,9.7353e-06,0
0.966,1.1582e-05,0
0.9665,1.326e-05,0
0.967,1.4603e-05,0
0.9675,1.6281e-05,0
0.968,1.947e-05,0
0.9685,2.3499e-05,0
0.969,2.6688e-05,0
0.9695,2.7024e-05,0
0.97,2.4506e-05,0
0.9705,2.4002e-05,0
0.971,2.1988e-05,0
0.9715,1.8631e-05,0
0.972,1.8128e-05,0
0.9725,1.9135e-05,0
0.973,2.1317e-05,0
0.9735,2.7695e-05,0
0.974,3.4241e-05,0
0.9745,4.0452e-05,0
0.975,4.5823e-05,0
0.9755,4.7166e-05,0
0.976,4.1459e-05,0
0.9765,3.2059e-05,0
0.977,2.3667e-05,0
0.9775,1.8128e-05,0
0.978,1.3764e-05,0
0.9785,1.0575e-05,0
0.979,6.5461e-06,0
0.9795,-5.035e-07,0
0.98,-6.8818e-06,0
0.9805,-1.1749e-05,0
0.981,-1.4603e-05,0
0.9815,-1.0407e-05,0
0.982,-1.3428e-06,0
0.9825,1.1749e-06,0
0.983,-2.6856e-06,0
0.9835,-3.357e-07,0
0.984,8.7282e-06,0
0.9845,1.5946e-05,0
0.985,1.8967e-05,0
0.9855,1.9806e-05,0
0.986,2.031e-05,0
0.9865,2.0646e-05,0
0.987,2.2324e-05,0
0.9875,2.4674e-05,0
0.988,2.7192e-05,0
0.9885,2.9374e-05,0
0.989,2.9374e-05,0
0.9895,2.7695e-05,0
0.99,2.6688e-05,0
0.9905,2.7024e-05,0
0.991,2.5177e-05,0
0.9915,2.417e-05,0
0.992,2.5345e-05,0
0.9925,2.6184e-05,0
0.993,2.6017e-05,0
0.9935,2.5849e-05,0
0.994,2.5009e-05,0
0.9945,2.5177e-05,0
0.995,2.5009e-05,0
0.9955,2.6017e-05,0
0.996,2.7359e-05,0
0.9965,2.7024e-05,0
0.997,2.6352e-05,0
0.9975,2.7863e-05,0
0.998,2.7527e-05,0
0.9985,2.6688e-05,0
0.999,2.6184e-05,0
0.9995,2.6688e-05,0
1,2.6688e-05,0
1.0005,2.3667e-05,0
1.001,2.031e-05,0
1.0015,1.8631e-05,0
1.002,1.796e-05,0
1.0025,1.5778e-05,0
1.003,1.5946e-05,0
1.0035,1.8463e-05,0
1.004,1.8967e-05,0
1.0045,1.796e-05,0
1.005,1.796e-05,0
1.0055,1.8463e-05,0
1.006,1.8128e-05,0
1.0065,1.8296e-05,0
1.007,1.8128e-05,0
1.0075,1.7288e-05,0
1.008,1.796e-05,0
1.0085,1.9974e-05,0
1.009,1.9974e-05,0
1.0095,1.9303e-05,0
1.01,1.8631e-05,0
1.0105,1.9638e-05,0
1.011,2.2492e-05,0
1.0115,2.417e-05,0
1.012,2.5681e-05,0
1.0125,2.5345e-05,0
1.013,2.4002e-05,0
1.0135,2.2324e-05,0
1.014,2.0646e-05,0
1.0145,2.2324e-05,0
1.015,2.7359e-05,0
1.0155,3.4073e-05,0
1.016,3.6088e-05,0
1.0165,3.5752e-05,0
1.017,3.5752e-05,0
1.0175,3.6591e-05,0
1.018,3.3402e-05,0
1.0185,2.4674e-05,0
1.019,1.6449e-05,0
1.0195,1.4267e-05,0
1.02,1.4603e-05,0
1.0205,1.2253e-05,0
1.021,9.2317e-06,0
1.0215,1.0071e-05,0
1.022,1.1917e-05,0
1.0225,1.0407e-05,0
1.023,1.8463e-06,0
1.0235,-5.2033e-06,0
1.024,-5.2033e-06,0
1.0245,-3.5248e-06,0
1.025,-3.357e-06,0
1.0255,-4.6998e-06,0
1.026,-4.3641e-06,0
1.0265,-4.1962e-06,0
1.027,-1.5106e-06,0
1.0275,2.5177e-06,0
1.028,5.2033e-06,0
1.0285,6.3783e-06,0
1.029,6.714e-06,0
1.0295,1.091e-05,0
1.03,1.8296e-05,0
1.0305,2.3667e-05,0
1.031,2.5849e-05,0
1.0315,2.4674e-05,0
1.032,2.4674e-05,0
1.0325,2.8702e-05,0
1.033,3.0716e-05,0
1.0335,3.0381e-05,0
1.034,2.9206e-05,0
1.0345,2.887e-05,0
1.035,2.9038e-05,0
1.0355,3.0045e-05,0
1.036,2.887e-05,0
1.0365,2.9709e-05,0
1.037,3.122e-05,0
1.0375,3.357e-05,0
1.038,3.5752e-05,0
1.0385,3.9948e-05,0
1.039,4.4312e-05,0
1.0395,4.3137e-05,0
1.04,3.6088e-05,0
1.0405,2.6688e-05,0
1.041,2.0646e-05,0
1.0415,1.6785e-05,0
1.042,1.1246e-05,0
1.0425,4.3641e-06,0
1.043,1.678e-07,0
1.0435,-1.6785e-06,0
1.044,-5.539e-06,0
1.0445,-1.091e-05,0
1.045,-1.1582e-05,0
1.0455,-2.182e-06,0
1.046,1.0407e-05,0
1.0465,1.6785e-05,0
1.047,2.0646e-05,0
1.0475,2.6017e-05,0
1.048,2.8031e-05,0
1.0485,2.8031e-05,0
1.049,2.8702e-05,0
1.0495,2.9038e-05,0
1.05,2.6352e-05,0
1.0505,2.2324e-05,0
1.051,2.2156e-05,0
1.0515,2.4674e-05,0
1.052,2.6352e-05,0
1.0525,2.3499e-05,0
1.053,1.796e-05,0
1.0535,1.2757e-05,0
1.054,9.2317e-06,0
1.0545,8.2246e-06,0
1.055,6.5461e-06,0
1.0555,8.2246e-06,0
1.056,1.5442e-05,0
1.0565,2.2995e-05,0
1.057,2.652e-05,0
1.0575,2.7695e-05,0
1.058,2.7024e-05,0
1.0585,2.5849e-05,0
1.059,2.9709e-05,0
1.0595,3.6927e-05,0
1.06,3.978e-05,0
1.0605,3.8941e-05,0
1.061,3.7934e-05,0
1.0615,3.8773e-05,0
1.062,4.213e-05,0
1.0625,4.3809e-05,0
1.063,4.4144e-05,0
1.0635,4.2466e-05,0
1.064,3.8773e-05,0
1.0645,3.5416e-05,0
1.065,2.9374e-05,0
1.0655,1.5274e-05,0
1.066,-3.6927e-06,0
1.0665,-1.6617e-05,0
1.067,-1.3596e-05,0
1.0675,-1.6785e-06,0
1.068,5.7069e-06,0
1.0685,6.2104e-06,0
1.069,5.2033e-06,0
1.0695,1.8463e-06,0
1.07,-5.8747e-06,0
1.0705,-1.326e-05,0
1.071,-1.3092e-05,0
1.0715,-4.8676e-06,0
1.072,5.0355e-06,0
1.0725,1.0575e-05,0
1.073,1.3092e-05,0
1.0735,1.7624e-05,0
1.074,2.3331e-05,0
1.0745,2.8031e-05,0
1.075,2.9206e-05,0
1.0755,2.8031e-05,0
1.076,2.6688e-05,0
1.0765,2.5345e-05,0
1.077,2.4002e-05,0
1.0775,2.3163e-05,0
1.078,2.182e-05,0
1.0785,1.9806e-05,0
1.079,1.6449e-05,0
1.0795,1.1246e-05,0
1.08,8.2246e-06,0
1.0805,7.8889e-06,0
1.081,1.1582e-05,0
1.0815,1.7288e-05,0
1.082,1.947e-05,0
1.0825,1.8967e-05,0
1.083,2.0981e-05,0
1.0835,2.4674e-05,0
1.084,2.6017e-05,0
1.0845,2.4506e-05,0
1.085,2.4338e-05,0
1.0855,2.7863e-05,0
1.086,3.3738e-05,0
1.0865,3.592e-05,0
1.087,3.2059e-05,0
1.0875,2.9542e-05,0
1.088,2.8702e-05,0
1.0885,2.4506e-05,0
1.089,2.1317e-05,0
1.0895,2.3667e-05,0
1.09,2.652e-05,0
1.0905,2.8534e-05,0
1.091,2.9206e-05,0
1.0915,2.9038e-05,0
1.092,2.8534e-05,0
1.0925,2.6688e-05,0
1.093,2.2995e-05,0
1.0935,1.9806e-05,0
1.094,1.7288e-05,0
1.0945,1.7624e-05,0
1.095,2.0646e-05,0
1.0955,2.5345e-05,0
1.096,2.8702e-05,0
1.0965,3.122e-05,0
1.097,3.1891e-05,0
1.0975,3.1724e-05,0
1.098,3.0884e-05,0
1.0985,3.1891e-05,0
1.099,2.8534e-05,0
1.0995,1.8296e-05,0
1.1,1.1414e-05,0
1.1005,1.6617e-05,0
1.101,2.0813e-05,0
1.1015,1.5274e-05,0
1.102,5.0355e-06,0
1.1025,-4.1962e-06,0
1.103,-9.0639e-06,0
1.1035,-1.0071e-05,0
1.104,-5.7069e-06,0
1.1045,1.5106e-06,0
1.105,5.2033e-06,0
1.1055,2.5177e-06,0
1.106,5.035e-07,0
1.1065,1.1749e-06,0
1.107,5.035e-07,0
1.1075,-6.0426e-06,0
1.108,-1.2253e-05,0
1.1085,-1.0239e-05,0
1.109,-1.5106e-06,0
1.1095,7.8889e-06,0
1.11,1.4939e-05,0
1.1105,1.9974e-05,0
1.111,2.266e-05,0
1.1115,2.2324e-05,0
1.112,2.2492e-05,0
1.1125,2.4506e-05,0
1.113,2.8702e-05,0
1.1135,3.4073e-05,0
1.114,3.8102e-05,0
1.1145,4.3305e-05,0
1.115,5.0019e-05,0
1.1155,5.0858e-05,0
1.116,4.213e-05,0
1.1165,3.2731e-05,0
1.117,2.6688e-05,0
1.1175,2.4002e-05,0
1.118,2.4674e-05,0
1.1185,2.7192e-05,0
1.119,3.0045e-05,0
1.1195,3.2395e-05,0
1.12,3.1052e-05,0
1.1205,2.3835e-05,0
1.121,1.6617e-05,0
1.1215,1.2589e-05,0
1.122,1.0575e-05,0
1.1225,1.0239e-05,0
1.123,1.0575e-05,0
1.1235,9.7353e-06,0
1.124,4.8676e-06,0
1.1245,1.1749e-06,0
1.125,2.5177e-06,0
1.1255,7.8889e-06,0
1.126,1.3092e-05,0
1.1265,1.6449e-05,0
1.127,1.5946e-05,0
1.1275,1.2924e-05,0
1.128,1.091e-05,0
1.1285,1.2253e-05,0
1.129,1.7456e-05,0
1.1295,2.5345e-05,0
1.13,3.1052e-05,0
1.1305,3.0716e-05,0
1.131,2.7359e-05,0
1.1315,2.5345e-05,0
1.132,2.266e-05,0
1.1325,1.8296e-05,0
1.133,1.5946e-05,0
1.1335,1.6449e-05,0
1.134,1.796e-05,0
1.1345,1.6953e-05,0
1.135,1.0071e-05,0
1.1355,1.0071e-06,0
1.136,-5.035e-07,0
1.1365,8.2246e-06,0
1.137,1.8463e-05,0
1.1375,2.4338e-05,0
1.138,2.7527e-05,0
1.1385,2.7863e-05,0
1.139,2.6352e-05,0
1.1395,2.8031e-05,0
1.14,3.2563e-05,0
1.1405,3.4073e-05,0
1.141,3.2059e-05,0
1.1415,2.9877e-05,0
1.142,2.7192e-05,0
1.1425,2.5849e-05,0
1.143,2.6184e-05,0
1.1435,2.8534e-05,0
1.144,3.2563e-05,0
1.1445,3.3402e-05,0
1.145,2.9374e-05,0
1.1455,2.3331e-05,0
1.146,1.7792e-05,0
1.1465,1.8631e-05,0
1.147,2.5513e-05,0
1.1475,3.4241e-05,0
1.148,3.8773e-05,0
1.1485,4.0116e-05,0
1.149,3.8941e-05,0
1.1495,3.6759e-05,0
1.15,3.7095e-05,0
1.1505,3.592e-05,0
1.151,3.2395e-05,0
1.1515,3.1388e-05,0
1.152,3.6088e-05,0
1.1525,4.1123e-05,0
1.153,3.0381e-05,0
1.1535,5.8747e-06,0
1.154,-1.2085e-05,0
1.1545,-1.3596e-05,0
1.155,-5.0355e-06,0
1.1555,2.182e-06,0
1.156,3.8605e-06,0
1.1565,1.6785e-06,0
1.157,-3.1891e-06,0
1.1575,-1.1246e-05,0
1.158,-1.8296e-05,0
1.1585,-1.6617e-05,0
1.159,-1.5106e-06,0
1.1595,1.947e-05,0
1.16,3.2059e-05,0
1.1605,3.3906e-05,0
1.161,3.6423e-05,0
1.1615,4.3473e-05,0
1.162,4.6159e-05,0
1.1625,4.1627e-05,0
1.163,3.3738e-05,0
1.1635,2.6688e-05,0
1.164,1.8463e-05,0
1.1645,7.5532e-06,0
1.165,-6.2104e-06,0
1.1655,-2.2156e-05,0
1.166,-3.6088e-05,0
1.1665,-3.7766e-05,0
1.167,-2.3667e-05,0
1.1675,-5.539e-06,0
1.168,7.8889e-06,0
1.1685,1.5946e-05,0
1.169,1.7792e-05,0
1.1695,1.1246e-05,0
1.17,3.5248e-06,0
1.1705,5.2033e-06,0
1.171,1.2253e-05,0
1.1715,1.8631e-05,0
1.172,2.4338e-05,0
1.1725,2.9206e-05,0
1.173,2.9877e-05,0
1.1735,2.3667e-05,0
1.174,1.326e-05,0
1.1745,4.5319e-06,0
1.175,-8.392e-07,0
1.1755,-1.1749e-06,0
1.176,3.8605e-06,0
1.1765,1.2589e-05,0
1.177,1.8967e-05,0
1.1775,2.4674e-05,0
1.178,3.0213e-05,0
1.1785,3.4745e-05,0
1.179,3.8437e-05,0
1.1795,3.9612e-05,0
1.18,3.6088e-05,0
1.1805,3.1891e-05,0
1.181,3.3066e-05,0
1.1815,3.743e-05,0
1.182,3.7095e-05,0
1.1825,3.3066e-05,0
1.183,2.9374e-05,0
1.1835,3.0045e-05,0
1.184,3.3738e-05,0
1.1845,3.5416e-05,0
1.185,3.5416e-05,0
1.1855,3.5752e-05,0
1.186,3.5752e-05,0
1.1865,3.357e-05,0
1.187,3.2395e-05,0
1.1875,3.1556e-05,0
1.188,3.0045e-05,0
1.1885,2.8367e-05,0
1.189,2.8367e-05,0
1.1895,2.5681e-05,0
1.19,1.9638e-05,0
1.1905,1.8631e-05,0
1.191,2.2492e-05,0
1.1915,2.6688e-05,0
1.192,3.2731e-05,0
1.1925,3.7766e-05,0
1.193,3.9109e-05,0
1.1935,3.4745e-05,0
1.194,3.0716e-05,0
1.1945,2.7527e-05,0
1.195,2.266e-05,0
1.1955,1.8463e-05,0
1.196,1.5946e-05,0
1.1965,1.2253e-05,0
1.197,9.7353e-06,0
1.1975,1.3596e-05,0
1.198,2.5681e-05,0
1.1985,3.6088e-05,0
1.199,3.7095e-05,0
1.1995,3.1724e-05,0
1.2,2.5849e-05,0
1.2005,1.947e-05,0
1.201,1.326e-05,0
1.2015,1.0575e-05,0
1.202,1.0575e-05,0
1.2025,1.0575e-05,0
1.203,9.7353e-06,0
1.2035,7.2175e-06,0
1.204,4.6998e-06,0
1.2045,-2.8534e-06,0
1.205,-1.1749e-05,0
1.2055,-1.3764e-05,0
1.206,-6.5461e-06,0
1.2065,4.5319e-06,0
1.207,1.326e-05,0
1.2075,1.7624e-05,0
1.208,2.1149e-05,0
1.2085,2.2492e-05,0
1.209,1.8631e-05,0
1.2095,1.2589e-05,0
1.21,1.2253e-05,0
1.2105,2.3331e-05,0
1.211,3.6423e-05,0
1.2115,4.2634e-05,0
1.212,4.0452e-05,0
1.2125,3.7095e-05,0
1.213,3.4241e-05,0
1.2135,3.122e-05,0
1.214,2.7024e-05,0
1.2145,1.947e-05,0
1.215,1.3932e-05,0
1.2155,1.1917e-05,0
1.216,8.3925e-06,0
1.2165,3.1891e-06,0
1.217,-6.714e-07,0
1.2175,5.035e-07,0
1.218,3.357e-06,0
1.2185,5.539e-06,0
1.219,8.2246e-06,0
1.2195,1.1414e-05,0
1.22,1.4771e-05,0
1.2205,2.031e-05,0
1.221,2.6688e-05,0
1.2215,3.0884e-05,0
1.222,3.1052e-05,0
1.2225,2.7024e-05,0
1.223,2.2995e-05,0
1.2235,2.1317e-05,0
1.224,1.7121e-05,0
1.2245,9.2317e-06,0
1.225,3.1891e-06,0
1.2255,4.6998e-06,0
1.226,1.1917e-05,0
1.2265,1.5946e-05,0
1.227,1.2924e-05,0
1.2275,1.0575e-05,0
1.228,1.3596e-05,0
1.2285,2.2156e-05,0
1.229,3.2563e-05,0
1.2295,3.7095e-05,0
1.23,3.4409e-05,0
1.2305,3.122e-05,0
1.231,3.0045e-05,0
1.2315,2.9206e-05,0
1.232,2.3331e-05,0
1.2325,1.0071e-05,0
1.233,-6.714e-07,0
1.2335,1.678e-07,0
1.234,3.8605e-06,0
1.2345,3.1891e-06,0
1.235,1.678e-07,0
1.2355,-3.357e-07,0
1.236,2.5177e-06,0
1.2365,9.2317e-06,0
1.237,1.7121e-05,0
1.2375,2.3331e-05,0
1.238,2.7024e-05,0
1.2385,2.7359e-05,0
1.239,2.8031e-05,0
1.2395,2.6184e-05,0
1.24,2.3163e-05,0
1.2405,2.2995e-05,0
1.241,2.266e-05,0
1.2415,1.5946e-05,0
1.242,3.5248e-06,0
1.2425,-3.6927e-06,0
1.243,5.035e-07,0
1.2435,1.0239e-05,0
1.244,2.0142e-05,0
1.2445,2.8367e-05,0
1.245,3.3402e-05,0
1.2455,3.4745e-05,0
1.246,3.4073e-05,0
1.2465,3.3738e-05,0
1.247,3.5416e-05,0
1.2475,3.508e-05,0
1.248,3.1556e-05,0
1.2485,2.7024e-05,0
1.249,2.3331e-05,0
1.2495,2.0478e-05,0
1.25,2.1988e-05,0
1.2505,2.5681e-05,0
1.251,2.6688e-05,0
1.2515,2.8702e-05,0
1.252,3.0045e-05,0
1.2525,2.9374e-05,0
1.253,2.7024e-05,0
1.2535,2.6352e-05,0
1.254,2.6184e-05,0
1.2545,2.5345e-05,0
1.255,2.266e-05,0
1.2555,1.8631e-05,0
1.256,1.6281e-05,0
1.2565,1.3596e-05,0
1.257,1.326e-05,0
1.2575,1.6281e-05,0
1.258,1.8967e-05,0
1.2585,1.7624e-05,0
1.259,1.1078e-05,0
1.2595,3.6927e-06,0
1.26,2.3499e-06,0
1.2605,7.5532e-06,0
1.261,1.7792e-05,0
1.2615,2.9709e-05,0
1.262,3.9109e-05,0
1.2625,4.8173e-05,0
1.263,5.7572e-05,0
1.2635,6.2944e-05,0
1.264,5.8579e-05,0
1.2645,4.8844e-05,0
1.265,4.1627e-05,0
1.2655,3.6591e-05,0
1.266,2.9374e-05,0
1.2665,1.7792e-05,0
1.267,2.5177e-06,0
1.2675,-1.3092e-05,0
1.268,-2.3835e-05,0
1.2685,-2.4506e-05,0
1.269,-1.8631e-05,0
1.2695,-1.4099e-05,0
1.27,-1.1917e-05,0
1.2705,-5.8747e-06,0
1.271,3.0213e-06,0
1.2715,1.1078e-05,0
1.272,1.4267e-05,0
1.2725,1.3092e-05,0
1.273,1.4603e-05,0
1.2735,2.031e-05,0
1.274,2.3667e-05,0
1.2745,2.3331e-05,0
1.275,2.3331e-05,0
1.2755,2.5681e-05,0
1.276,2.887e-05,0
1.2765,3.0045e-05,0
1.277,3.122e-05,0
1.2775,3.2563e-05,0
1.278,3.1556e-05,0
1.2785,2.9542e-05,0
1.279,2.4338e-05,0
1.2795,2.0981e-05,0
1.28,2.1317e-05,0
1.2805,2.0981e-05,0
1.281,2.0646e-05,0
1.2815,2.1317e-05,0
1.282,2.2995e-05,0
1.2825,2.7695e-05,0
1.283,2.8031e-05,0
1.2835,1.9638e-05,0
1.284,1.1917e-05,0
1.2845,1.326e-05,0
1.285,1.9638e-05,0
1.2855,2.3667e-05,0
1.286,2.4002e-05,0
1.2865,1.9303e-05,0
1.287,1.326e-05,0
1.2875,1.5946e-05,0
1.288,2.4002e-05,0
1.2885,2.9206e-05,0
1.289,2.6184e-05,0
1.2895,1.4267e-05,0
1.29,3.357e-07,0
1.2905,-7.5532e-06,0
1.291,-5.7069e-06,0
1.2915,6.714e-07,0
1.292,1.8463e-06,0
1.2925,-2.182e-06,0
1.293,-5.539e-06,0
1.2935,-6.8818e-06,0
1.294,-5.539e-06,0
1.2945,-2.3499e-06,0
1.295,1.6785e-06,0
1.2955,4.8676e-06,0
1.296,8.7282e-06,0
1.2965,1.1078e-05,0
1.297,1.0407e-05,0
1.2975,1.0071e-05,0
1.298,1.1414e-05,0
1.2985,1.3092e-05,0
1.299,1.947e-05,0
1.2995,3.2898e-05,0
1.3,4.8173e-05,0
1.3005,5.7572e-05,0
1.301,5.3376e-05,0
1.3015,4.2802e-05,0
1.302,3.4745e-05,0
1.3025,2.9374e-05,0
1.303,2.4506e-05,0
1.3035,2.1317e-05,0
1.304,1.5274e-05,0
1.3045,3.357e-06,0
1.305,-8.7282e-06,0
1.3055,-1.2924e-05,0
1.306,-5.2033e-06,0
1.3065,9.9031e-06,0
1.307,2.266e-05,0
1.3075,2.9206e-05,0
1.308,3.0549e-05,0
1.3085,2.9374e-05,0
1.309,2.9374e-05,0
1.3095,2.9038e-05,0
1.31,2.6688e-05,0
1.3105,2.3331e-05,0
1.311,2.182e-05,0
1.3115,2.3163e-05,0
1.312,2.5009e-05,0
1.3125,2.6017e-05,0
1.313,2.6688e-05,0
1.3135,2.9038e-05,0
1.314,2.9038e-05,0
1.3145,2.8031e-05,0
1.315,3.0045e-05,0
1.3155,3.2059e-05,0
1.316,2.9709e-05,0
1.3165,2.7695e-05,0
1.317,2.7527e-05,0
1.3175,2.5681e-05,0
1.318,2.1317e-05,0
1.3185,1.8631e-05,0
1.319,2.1317e-05,0
1.3195,2.4002e-05,0
1.32,2.5681e-05,0
1.3205,2.7359e-05,0
1.321,3.1724e-05,0
1.3215,3.743e-05,0
1.322,3.978e-05,0
1.3225,3.8605e-05,0
1.323,3.592e-05,0
1.3235,3.0549e-05,0
1.324,2.6017e-05,0
1.3245,2.3331e-05,0
1.325,2.0646e-05,0
1.3255,1.8631e-05,0
1.326,1.9303e-05,0
1.3265,1.9638e-05,0
1.327,1.796e-05,0
1.3275,1.1917e-05,0
1.328,2.5177e-06,0
1.3285,-2.8534e-06,0
1.329,-8.392e-07,0
1.3295,4.5319e-06,0
1.33,1.1917e-05,0
1.3305,2.0981e-05,0
1.331,2.8367e-05,0
1.3315,3.4745e-05,0
1.332,3.5416e-05,0
1.3325,2.7359e-05,0
1.333,1.796e-05,0
1.3335,9.9031e-06,0
1.334,6.3783e-06,0
1.3345,8.3925e-06,0
1.335,1.5274e-05,0
1.3355,2.417e-05,0
1.336,2.6017e-05,0
1.3365,1.8967e-05,0
1.337,1.0239e-05,0
1.3375,5.2033e-06,0
1.338,2.3499e-06,0
1.3385,6.0426e-06,0
1.339,1.7288e-05,0
1.3395,2.9877e-05,0
1.34,3.743e-05,0
1.3405,3.743e-05,0
1.341,3.0716e-05,0
1.3415,1.9974e-05,0
1.342,1.1246e-05,0
1.3425,1.2924e-05,0
1.343,2.1653e-05,0
1.3435,2.9374e-05,0
1.344,2.8367e-05,0
1.3445,2.1149e-05,0
1.345,1.1749e-05,0
1.3455,6.5461e-06,0
1.346,3.357e-06,0
1.3465,-2.182e-06,0
1.347,-5.2033e-06,0
1.3475,6.714e-07,0
1.348,9.2317e-06,0
1.3485,1.2421e-05,0
1.349,7.8889e-06,0
1.3495,1.3428e-06,0
1.35,1.0071e-06,0
1.3505,3.1891e-06,0
1.351,4.1962e-06,0
1.3515,7.3854e-06,0
1.352,1.4771e-05,0
1.3525,2.1653e-05,0
1.353,2.2995e-05,0
1.3535,2.266e-05,0
1.354,2.3835e-05,0
1.3545,2.266e-05,0
1.355,2.0646e-05,0
1.3555,2.0646e-05,0
1.356,2.4674e-05,0
1.3565,3.2898e-05,0
1.357,3.743e-05,0
1.3575,3.5416e-05,0
1.358,2.7863e-05,0
1.3585,2.1317e-05,0
1.359,2.0981e-05,0
1.3595,2.266e-05,0
1.36,2.2995e-05,0
1.3605,2.2995e-05,0
1.361,2.5849e-05,0
1.3615,2.652e-05,0
1.362,2.1653e-05,0
1.3625,1.4603e-05,0
1.363,1.0575e-05,0
1.3635,9.5674e-06,0
1.364,1.4939e-05,0
1.3645,2.0478e-05,0
1.365,1.9135e-05,0
1.3655,1.6449e-05,0
1.366,1.6617e-05,0
1.3665,1.796e-05,0
1.367,1.7121e-05,0
1.3675,1.4435e-05,0
1.368,9.9031e-06,0
1.3685,7.2175e-06,0
1.369,9.0639e-06,0
1.3695,9.2317e-06,0
1.37,5.2033e-06,0
1.3705,5.8747e-06,0
1.371,1.3596e-05,0
1.3715,2.266e-05,0
1.372,2.8031e-05,0
1.3725,2.9038e-05,0
1.373,3.0045e-05,0
1.3735,3.1724e-05,0
1.374,3.1556e-05,0
1.3745,2.7359e-05,0
1.375,2.1988e-05,0
1.3755,1.8631e-05,0
1.376,1.6785e-05,0
1.3765,1.6449e-05,0
1.377,1.7624e-05,0
1.3775,1.8296e-05,0
1.378,2.031e-05,0
1.3785,2.4674e-05,0
1.379,3.0045e-05,0
1.3795,3.7934e-05,0
1.38,4.9012e-05,0
1.3805,5.8915e-05,0
1.381,6.1433e-05,0
1.3815,5.5558e-05,0
1.382,4.9515e-05,0
1.3825,4.683e-05,0
1.383,4.4312e-05,0
1.3835,3.9277e-05,0
1.384,3.0045e-05,0
1.3845,2.5009e-05,0
1.385,2.8702e-05,0
1.3855,3.2395e-05,0
1.386,2.4338e-05,0
1.3865,6.3783e-06,0
1.387,-6.2104e-06,0
1.3875,-5.0355e-06,0
1.388,2.5177e-06,0
1.3885,2.0142e-06,0
1.389,-8.2246e-06,0
1.3895,-1.7792e-05,0
1.39,-2.2156e-05,0
1.3905,-2.0478e-05,0
1.391,-2.0981e-05,0
1.3915,-2.7359e-05,0
1.392,-2.8031e-05,0
1.3925,-1.6449e-05,0
1.393,-6.714e-07,0
1.3935,1.2085e-05,0
1.394,1.9806e-05,0
1.3945,2.1653e-05,0
1.395,1.9638e-05,0
1.3955,1.9638e-05,0
1.396,2.4002e-05,0
1.3965,3.0716e-05,0
1.397,3.6088e-05,0
1.3975,3.6591e-05,0
1.398,3.4745e-05,0
1.3985,3.2563e-05,0
1.399,2.7863e-05,0
1.3995,2.1317e-05,0
1.4,1.6785e-05,0
1.4005,1.7288e-05,0
1.401,2.1317e-05,0
1.4015,2.5681e-05,0
1.402,2.887e-05,0
1.4025,2.7359e-05,0
1.403,2.3835e-05,0
1.4035,2.2492e-05,0
1.404,2.5009e-05,0
1.4045,2.8031e-05,0
1.405,2.8702e-05,0
1.4055,2.7359e-05,0
1.406,2.652e-05,0
1.4065,2.652e-05,0
1.407,2.4506e-05,0
1.4075,2.0981e-05,0
1.408,2.031e-05,0
1.4085,2.1149e-05,0
1.409,2.1988e-05,0
1.4095,2.1988e-05,0
1.41,2.182e-05,0
1.4105,2.266e-05,0
1.411,2.031e-05,0
1.4115,1.5274e-05,0
1.412,1.1749e-05,0
1.4125,1.1078e-05,0
1.413,1.4939e-05,0
1.4135,2.3331e-05,0
1.414,2.7863e-05,0
1.4145,2.4674e-05,0
1.415,2.0646e-05,0
1.4155,2.0478e-05,0
1.416,2.1653e-05,0
1.4165,2.4674e-05,0
1.417,2.6017e-05,0
1.4175,2.4338e-05,0
1.418,2.266e-05,0
1.4185,1.9974e-05,0
1.419,1.6953e-05,0
1.4195,1.6449e-05,0
1.42,1.561e-05,0
1.4205,1.5106e-05,0
1.421,1.7624e-05,0
1.4215,1.9974e-05,0
1.422,2.0646e-05,0
1.4225,2.1317e-05,0
1.423,1.9638e-05,0
1.4235,1.7121e-05,0
1.424,1.561e-05,0
1.4245,1.0239e-05,0
1.425,4.8676e-06,0
1.4255,3.6927e-06,0
1.426,6.2104e-06,0
1.4265,1.0575e-05,0
1.427,1.6449e-05,0
1.4275,2.5849e-05,0
1.428,3.5752e-05,0
1.4285,4.1795e-05,0
1.429,4.3809e-05,0
1.4295,4.2298e-05,0
1.43,3.9445e-05,0
1.4305,3.6759e-05,0
1.431,3.357e-05,0
1.4315,3.2059e-05,0
1.432,3.0549e-05,0
1.4325,2.182e-05,0
1.433,6.5461e-06,0
1.4335,-3.1891e-06,0
1.434,-3.8605e-06,0
1.4345,3.1891e-06,0
1.435,1.2085e-05,0
1.4355,9.2317e-06,0
1.436,-5.0355e-06,0
1.4365,-1.7792e-05,0
1.437,-1.6617e-05,0
1.4375,-5.8747e-06,0
1.438,5.8747e-06,0
1.4385,1.5946e-05,0
1.439,2.3667e-05,0
1.4395,2.8367e-05,0
1.44,3.0213e-05,0
1.4405,2.9709e-05,0
1.441,2.9374e-05,0
1.4415,2.7863e-05,0
1.442,2.4506e-05,0
1.4425,2.4674e-05,0
1.443,2.8031e-05,0
1.4435,3.0716e-05,0
1.444,3.0213e-05,0
1.4445,2.7359e-05,0
1.445,2.182e-05,0
1.4455,1.6281e-05,0
1.446,1.3932e-05,0
1.4465,1.1246e-05,0
1.447,1.0071e-05,0
1.4475,1.1246e-05,0
1.448,1.3428e-05,0
1.4485,1.5946e-05,0
1.449,1.9638e-05,0
1.4495,2.266e-05,0
1.45,2.417e-05,0
1.4505,2.5177e-05,0
1.451,2.4338e-05,0
1.4515,2.1988e-05,0
1.452,1.8967e-05,0
1.4525,1.4939e-05,0
1.453,1.326e-05,0
1.4535,1.6449e-05,0
1.454,2.3331e-05,0
1.4545,3.0884e-05,0
1.455,3.743e-05,0
1.4555,4.2802e-05,0
1.456,4.4816e-05,0
1.4565,4.4312e-05,0
1.457,4.6998e-05,0
1.4575,5.4215e-05,0
1.458,6.0258e-05,0
1.4585,5.8579e-05,0
1.459,4.683e-05,0
1.4595,2.9709e-05,0
1.46,1.5946e-05,0
1.4605,5.8747e-06,0
1.461,-2.5177e-06,0
1.4615,-9.9031e-06,0
1.462,-1.4435e-05,0
1.4625,-1.9303e-05,0
1.463,-2.6184e-05,0
1.4635,-3.2395e-05,0
1.464,-3.3402e-05,0
1.4645,-2.8199e-05,0
1.465,-1.6449e-05,0
1.4655,-3.1891e-06,0
1.466,6.2104e-06,0
1.4665,1.091e-05,0
1.467,1.4267e-05,0
1.4675,1.6449e-05,0
1.468,1.5946e-05,0
1.4685,9.3996e-06,0
1.469,2.5177e-06,0
1.4695,5.2033e-06,0
1.47,1.4267e-05,0
1.4705,2.0646e-05,0
1.471,2.2324e-05,0
1.4715,2.3163e-05,0
1.472,2.6017e-05,0
1.4725,3.0045e-05,0
1.473,3.2731e-05,0
1.4735,3.3066e-05,0
1.474,3.1891e-05,0
1.4745,3.0045e-05,0
1.475,2.7527e-05,0
1.4755,2.5849e-05,0
1.476,2.6352e-05,0
1.4765,2.8031e-05,0
1.477,2.9374e-05,0
1.4775,3.3738e-05,0
1.478,3.6088e-05,0
1.4785,3.2059e-05,0
1.479,2.7192e-05,0
1.4795,2.4002e-05,0
1.48,2.417e-05,0
1.4805,2.5681e-05,0
1.481,2.6688e-05,0
1.4815,2.5345e-05,0
1.482,2.2995e-05,0
1.4825,2.1988e-05,0
1.483,1.9303e-05,0
1.4835,1.2253e-05,0
1.484,4.8676e-06,0
1.4845,7.0497e-06,0
1.485,1.7288e-05,0
1.4855,2.5345e-05,0
1.486,2.9038e-05,0
1.4865,2.7695e-05,0
1.487,2.2995e-05,0
1.4875,2.0981e-05,0
1.488,2.3499e-05,0
1.4885,2.5345e-05,0
1.489,2.2324e-05,0
1.4895,1.7288e-05,0
1.49,1.3932e-05,0
1.4905,9.5674e-06,0
1.491,2.5177e-06,0
1.4915,-5.035e-07,0
1.492,3.8605e-06,0
1.4925,1.1582e-05,0
1.493,2.1317e-05,0
1.4935,2.9038e-05,0
1.494,3.3738e-05,0
1.4945,3.7095e-05,0
1.495,3.8941e-05,0
1.4955,4.0116e-05,0
1.496,4.213e-05,0
1.4965,4.3473e-05,0
1.497,4.4144e-05,0
1.4975,4.5823e-05,0
1.498,4.9515e-05,0
1.4985,5.4887e-05,0
1.499,5.7572e-05,0
1.4995,5.2537e-05,0
1.5,4.2802e-05,0
1.5005,3.2059e-05,0
1.501,1.8463e-05,0
1.5015,7.5532e-06,0
1.502,4.8676e-06,0
1.5025,1.3932e-05,0
1.503,2.9038e-05,0
1.5035,3.7766e-05,0
1.504,2.9709e-05,0
1.5045,1.2589e-05,0
1.505,-8.392e-07,0
1.5055,-8.7282e-06,0
1.506,-1.1078e-05,0
1.5065,-1.1582e-05,0
1.507,-1.0239e-05,0
1.5075,-2.6856e-06,0
1.508,1.0239e-05,0
1.5085,1.6617e-05,0
1.509,7.8889e-06,0
1.5095,-9.5674e-06,0
1.51,-2.182e-05,0
1.5105,-2.2995e-05,0
1.511,-1.8296e-05,0
1.5115,-8.2246e-06,0
1.512,4.5319e-06,0
1.5125,1.2589e-05,0
1.513,1.1246e-05,0
1.5135,6.714e-07,0
1.514,-5.539e-06,0
1.5145,2.5177e-06,0
1.515,1.4771e-05,0
1.5155,2.031e-05,0
1.516,2.3331e-05,0
1.5165,2.5009e-05,0
1.517,2.0813e-05,0
1.5175,1.3596e-05,0
1.518,7.7211e-06,0
1.5185,6.3783e-06,0
1.519,9.2317e-06,0
1.5195,1.2421e-05,0
1.52,1.6617e-05,0
1.5205,2.1653e-05,0
1.521,2.5849e-05,0
1.5215,2.8031e-05,0
1.522,3.2059e-05,0
1.5225,3.7262e-05,0
1.523,3.9109e-05,0
1.5235,3.7095e-05,0
1.524,3.4409e-05,0
1.5245,2.8702e-05,0
1.525,2.1653e-05,0
1.5255,1.6617e-05,0
1.526,1.796e-05,0
1.5265,2.7359e-05,0
1.527,3.508e-05,0
1.5275,3.3066e-05,0
1.528,2.9374e-05,0
1.5285,2.7024e-05,0
1.529,2.4338e-05,0
1.5295,1.9303e-05,0
1.53,1.2757e-05,0
1.5305,1.0071e-05,0
1.531,1.5274e-05,0
1.5315,2.266e-05,0
1.532,2.3499e-05,0
1.5325,1.8967e-05,0
1.533,1.5946e-05,0
1.5335,1.6617e-05,0
1.534,1.8463e-05,0
1.5345,2.266e-05,0
1.535,2.8031e-05,0
1.5355,3.1891e-05,0
1.536,3.1891e-05,0
1.5365,2.7863e-05,0
1.537,2.4674e-05,0
1.5375,2.4674e-05,0
1.538,2.5345e-05,0
1.5385,2.5849e-05,0
1.539,2.6688e-05,0
1.5395,2.7527e-05,0
1.54,2.4674e-05,0
1.5405,2.2324e-05,0
1.541,2.4002e-05,0
1.5415,2.6352e-05,0
1.542,2.9038e-05,0
1.5425,3.1556e-05,0
1.543,3.1388e-05,0
1.5435,2.9374e-05,0
1.544,2.8534e-05,0
1.5445,2.8199e-05,0
1.545,2.6688e-05,0
1.5455,2.5681e-05,0
1.546,2.4506e-05,0
1.5465,2.5009e-05,0
1.547,2.5849e-05,0
1.5475,2.3499e-05,0
1.548,1.8631e-05,0
1.5485,1.3932e-05,0
1.549,9.5674e-06,0
1.5495,1.1917e-05,0
1.55,2.3667e-05,0
1.5505,3.7934e-05,0
1.551,4.6494e-05,0
1.5515,4.4144e-05,0
1.552,3.508e-05,0
1.5525,2.9038e-05,0
1.553,3.0045e-05,0
1.5535,3.3906e-05,0
1.554,3.4073e-05,0
1.5545,2.8534e-05,0
1.555,1.8296e-05,0
1.5555,3.1891e-06,0
1.556,-1.5946e-05,0
1.5565,-3.6423e-05,0
1.557,-5.0355e-05,0
1.5575,-4.8508e-05,0
1.558,-3.592e-05,0
1.5585,-2.6017e-05,0
1.559,-2.3331e-05,0
1.5595,-2.0646e-05,0
1.56,-1.0407e-05,0
1.5605,6.8818e-06,0
1.561,2.1317e-05,0
1.5615,2.8031e-05,0
1.562,3.122e-05,0
1.5625,3.1724e-05,0
1.563,3.0549e-05,0
1.5635,2.6688e-05,0
1.564,2.1485e-05,0
1.5645,1.8631e-05,0
1.565,1.9303e-05,0
1.5655,2.0478e-05,0
1.566,1.7121e-05,0
1.5665,7.5532e-06,0
1.567,-2.5177e-06,0
1.5675,-2.5177e-06,0
1.568,9.2317e-06,0
1.5685,2.887e-05,0
1.569,4.7837e-05,0
1.5695,5.8244e-05,0
1.57,5.7908e-05,0
1.5705,5.4215e-05,0
1.571,5.1194e-05,0
1.5715,4.7837e-05,0
1.572,4.2634e-05,0
1.5725,3.5248e-05,0
1.573,2.5345e-05,0
1.5735,1.3932e-05,0
1.574,1.678e-07,0
1.5745,-1.6449e-05,0
1.575,-2.9709e-05,0
1.5755,-3.4745e-05,0
1.576,-3.3066e-05,0
1.5765,-1.9974e-05,0
1.577,1.1749e-06,0
1.5775,1.4939e-05,0
1.578,1.8967e-05,0
1.5785,2.5681e-05,0
1.579,3.6591e-05,0
1.5795,4.7333e-05,0
1.58,5.5222e-05,0
1.5805,5.3544e-05,0
1.581,4.683e-05,0
1.5815,4.2466e-05,0
1.582,3.8773e-05,0
1.5825,3.592e-05,0
1.583,3.5416e-05,0
1.5835,3.3402e-05,0
1.584,3.1052e-05,0
1.5845,2.7695e-05,0
1.585,2.7192e-05,0
1.5855,3.0381e-05,0
1.586,3.0884e-05,0
1.5865,2.4674e-05,0
1.587,1.9303e-05,0
1.5875,2.5345e-05,0
1.588,3.4577e-05,0
1.5885,3.7095e-05,0
1.589,3.3738e-05,0
1.5895,2.8702e-05,0
1.59,2.4674e-05,0
1.5905,2.1988e-05,0
1.591,2.0142e-05,0
1.5915,2.031e-05,0
1.592,2.2995e-05,0
1.5925,2.5681e-05,0
1.593,2.7192e-05,0
1.5935,2.7024e-05,0
1.594,2.182e-05,0
1.5945,1.796e-05,0
1.595,2.5681e-05,0
1.5955,3.9109e-05,0
1.596,4.5487e-05,0
1.5965,4.448e-05,0
1.597,3.4745e-05,0
1.5975,1.6281e-05,0
1.598,-7.5532e-06,0
1.5985,-2.5009e-05,0
1.599,-2.9206e-05,0
1.5995,-2.4338e-05,0
1.6,-1.8631e-05,0
1.6005,-1.9303e-05,0
1.601,-2.7024e-05,0
1.6015,-3.122e-05,0
1.602,-2.031e-05,0
1.6025,-2.8534e-06,0
1.603,8.896e-06,0
1.6035,1.5778e-05,0
1.604,2.3163e-05,0
1.6045,3.1556e-05,0
1.605,3.6927e-05,0
1.6055,3.9109e-05,0
1.606,3.9109e-05,0
1.6065,3.743e-05,0
1.607,3.4745e-05,0
1.6075,3.1388e-05,0
1.608,3.0716e-05,0
1.6085,2.9374e-05,0
1.609,2.1988e-05,0
1.6095,7.0497e-06,0
1.61,-6.2104e-06,0
1.6105,-1.1246e-05,0
1.611,-8.0568e-06,0
1.6115,-8.392e-07,0
1.612,7.3854e-06,0
1.6125,1.091e-05,0
1.613,7.7211e-06,0
1.6135,6.5461e-06,0
1.614,1.091e-05,0
1.6145,1.6281e-05,0
1.615,1.8296e-05,0
1.6155,1.947e-05,0
1.616,2.3331e-05,0
1.6165,2.7863e-05,0
1.617,3.0381e-05,0
1.6175,2.8367e-05,0
1.618,2.2995e-05,0
1.6185,2.1988e-05,0
1.619,2.4338e-05,0
1.6195,2.6688e-05,0
1.62,2.9542e-05,0
1.6205,3.0213e-05,0
1.621,2.5849e-05,0
1.6215,1.9974e-05,0
1.622,1.8463e-05,0
1.6225,2.0981e-05,0
1.623,2.5681e-05,0
1.6235,3.1052e-05,0
1.624,3.1388e-05,0
1.6245,2.7359e-05,0
1.625,2.2324e-05,0
1.6255,2.0646e-05,0
1.626,2.4002e-05,0
1.6265,2.7359e-05,0
1.627,2.7527e-05,0
1.6275,3.0381e-05,0
1.628,3.6927e-05,0
1.6285,4.2802e-05,0
1.629,4.7166e-05,0
1.6295,4.8676e-05,0
1.63,4.3809e-05,0
1.6305,3.6423e-05,0
1.631,3.3738e-05,0
1.6315,3.4745e-05,0
1.632,3.1891e-05,0
1.6325,2.1317e-05,0
1.633,5.8747e-06,0
1.6335,-8.2246e-06,0
1.634,-1.2924e-05,0
1.6345,-7.7211e-06,0
1.635,1.6785e-06,0
1.6355,8.3925e-06,0
1.636,1.2253e-05,0
1.6365,1.4939e-05,0
1.637,1.6953e-05,0
1.6375,1.5274e-05,0
1.638,1.3932e-05,0
1.6385,1.561e-05,0
1.639,1.7624e-05,0
1.6395,1.8967e-05,0
1.64,2.2324e-05,0
1.6405,2.5009e-05,0
1.641,2.4002e-05,0
1.6415,1.9638e-05,0
1.642,1.5442e-05,0
1.6425,1.2589e-05,0
1.643,1.2253e-05,0
1.6435,1.2589e-05,0
1.644,1.561e-05,0
1.6445,2.0142e-05,0
1.645,2.2995e-05,0
1.6455,2.3667e-05,0
1.646,2.4002e-05,0
1.6465,2.3331e-05,0
1.647,2.266e-05,0
1.6475,2.4338e-05,0
1.648,2.8199e-05,0
1.6485,3.0716e-05,0
1.649,3.3066e-05,0
1.6495,3.6591e-05,0
1.65,3.7262e-05,0
1.6505,3.3738e-05,0
1.651,2.9374e-05,0
1.6515,2.7527e-05,0
1.652,2.7695e-05,0
1.6525,2.9038e-05,0
1.653,2.7359e-05,0
1.6535,1.9974e-05,0
1.654,1.1246e-05,0
1.6545,1.091e-05,0
1.655,1.4939e-05,0
1.6555,1.5274e-05,0
1.656,1.326e-05,0
1.6565,1.1078e-05,0
1.657,6.5461e-06,0
1.6575,2.8534e-06,0
1.658,8.3925e-06,0
1.6585,1.796e-05,0
1.659,2.1149e-05,0
1.6595,1.8799e-05,0
1.66,1.3092e-05,0
1.6605,7.7211e-06,0
1.661,3.8605e-06,0
1.6615,-6.714e-07,0
1.662,-7.8889e-06,0
1.6625,-1.3932e-05,0
1.663,-1.4099e-05,0
1.6635,-6.3783e-06,0
1.664,3.1891e-06,0
1.6645,5.7069e-06,0
1.665,5.2033e-06,0
1.6655,1.2924e-05,0
1.666,2.6352e-05,0
1.6665,3.4745e-05,0
1.667,3.827e-05,0
1.6675,3.8437e-05,0
1.668,3.8773e-05,0
1.6685,3.9948e-05,0
1.669,4.1962e-05,0
1.6695,4.3137e-05,0
1.67,3.9612e-05,0
1.6705,3.5416e-05,0
1.671,3.1388e-05,0
1.6715,2.2324e-05,0
1.672,8.5603e-06,0
1.6725,-4.1962e-06,0
1.673,-6.714e-06,0
1.6735,-3.357e-07,0
1.674,5.2033e-06,0
1.6745,4.1962e-06,0
1.675,3.357e-07,0
1.6755,3.357e-07,0
1.676,1.1917e-05,0
1.6765,2.9038e-05,0
1.677,3.5248e-05,0
1.6775,2.8534e-05,0
1.678,1.8631e-05,0
1.6785,1.5946e-05,0
1.679,1.8296e-05,0
1.6795,1.9303e-05,0
1.68,1.8128e-05,0
1.6805,1.796e-05,0
1.681,2.1317e-05,0
1.6815,2.5345e-05,0
1.682,2.7192e-05,0
1.6825,2.7192e-05,0
1.683,2.6688e-05,0
1.6835,2.8199e-05,0
1.684,3.1556e-05,0
1.6845,3.3402e-05,0
1.685,3.4745e-05,0
1.6855,3.4745e-05,0
1.686,3.1556e-05,0
1.6865,2.9038e-05,0
1.687,3.0045e-05,0
1.6875,3.3738e-05,0
1.688,3.5752e-05,0
1.6885,3.7095e-05,0
1.689,3.9445e-05,0
1.6895,4.6159e-05,0
1.69,5.4215e-05,0
1.6905,5.774e-05,0
1.691,5.3376e-05,0
1.6915,4.7501e-05,0
1.692,4.2298e-05,0
1.6925,3.1388e-05,0
1.693,1.0239e-05,0
1.6935,-1.091e-05,0
1.694,-1.8631e-05,0
1.6945,-1.9638e-05,0
1.695,-2.5681e-05,0
1.6955,-3.1388e-05,0
1.696,-2.7024e-05,0
1.6965,-1.091e-05,0
1.697,2.8534e-06,0
1.6975,6.5461e-06,0
1.698,6.5461e-06,0
1.6985,5.8747e-06,0
1.699,4.5319e-06,0
1.6995,8.0568e-06,0
1.7,1.7792e-05,0
1.7005,2.4842e-05,0
1.701,2.652e-05,0
1.7015,2.6688e-05,0
1.702,2.6688e-05,0
1.7025,2.0646e-05,0
1.703,1.2589e-05,0
1.7035,1.1749e-05,0
1.704,1.0575e-05,0
1.7045,-5.0355e-06,0
1.705,-2.2995e-05,0
1.7055,-2.5177e-05,0
1.706,-1.8296e-05,0
1.7065,-9.5674e-06,0
1.707,3.357e-06,0
1.7075,1.8296e-05,0
1.708,3.0381e-05,0
1.7085,3.7262e-05,0
1.709,4.0116e-05,0
1.7095,3.7766e-05,0
1.71,3.1052e-05,0
1.7105,2.4338e-05,0
1.711,2.2995e-05,0
1.7115,2.3499e-05,0
1.712,1.9303e-05,0
1.7125,1.1414e-05,0
1.713,9.5674e-06,0
1.7135,1.9135e-05,0
1.714,2.9374e-05,0
1.7145,3.4073e-05,0
1.715,3.4577e-05,0
1.7155,3.4409e-05,0
1.716,3.2731e-05,0
1.7165,3.2059e-05,0
1.717,3.1724e-05,0
1.7175,3.1388e-05,0
1.718,3.3234e-05,0
1.7185,3.4745e-05,0
1.719,3.5416e-05,0
1.7195,3.6591e-05,0
1.72,3.6591e-05,0
1.7205,3.4745e-05,0
1.721,3.2059e-05,0
1.7215,2.9709e-05,0
1.722,3.1052e-05,0
1.7225,3.592e-05,0
1.723,3.8773e-05,0
1.7235,3.6088e-05,0
1.724,2.9709e-05,0
1.7245,2.3835e-05,0
1.725,2.0813e-05,0
1.7255,1.9974e-05,0
1.726,1.8296e-05,0
1.7265,1.5274e-05,0
1.727,1.4267e-05,0
1.7275,1.4099e-05,0
1.728,1.3092e-05,0
1.7285,1.3932e-05,0
1.729,1.561e-05,0
1.7295,1.5946e-05,0
1.73,1.3932e-05,0
1.7305,1.1917e-05,0
1.731,1.2421e-05,0
1.7315,1.2589e-05,0
1.732,1.2589e-05,0
1.7325,1.2253e-05,0
1.733,1.2589e-05,0
1.7335,1.3932e-05,0
1.734,1.561e-05,0
1.7345,2.182e-05,0
1.735,3.3402e-05,0
1.7355,4.1459e-05,0
1.736,4.1459e-05,0
1.7365,3.5584e-05,0
1.737,2.9374e-05,0
1.7375,2.2324e-05,0
1.738,1.4603e-05,0
1.7385,1.0239e-05,0
1.739,9.2317e-06,0
1.7395,1.0239e-05,0
1.74,9.9031e-06,0
1.7405,6.8818e-06,0
1.741,4.8676e-06,0
1.7415,3.8605e-06,0
1.742,4.8676e-06,0
1.7425,8.2246e-06,0
1.743,1.0407e-05,0
1.7435,1.3092e-05,0
1.744,1.8128e-05,0
1.7445,2.3835e-05,0
1.745,2.5681e-05,0
1.7455,2.1988e-05,0
1.746,1.7121e-05,0
1.7465,1.6617e-05,0
1.747,2.0981e-05,0
1.7475,2.2995e-05,0
1.748,1.8631e-05,0
1.7485,1.2924e-05,0
1.749,1.091e-05,0
1.7495,9.5674e-06,0
1.75,7.8889e-06,0
1.7505,7.2175e-06,0
1.751,7.5532e-06,0
1.7515,1.0071e-05,0
1.752,1.2421e-05,0
1.7525,1.1246e-05,0
1.753,1.0575e-05,0
1.7535,1.6281e-05,0
1.754,2.4002e-05,0
1.7545,2.9206e-05,0
1.755,3.0213e-05,0
1.7555,2.9038e-05,0
1.756,3.2563e-05,0
1.7565,3.7766e-05,0
1.757,3.3234e-05,0
1.7575,1.8799e-05,0
1.758,7.2175e-06,0
1.7585,7.8889e-06,0
1.759,1.561e-05,0
1.7595,1.8128e-05,0
1.76,7.8889e-06,0
1.7605,-7.5532e-06,0
1.761,-1.3764e-05,0
1.7615,-1.1078e-05,0
1.762,-1.1917e-05,0
1.7625,-1.3932e-05,0
1.763,-5.8747e-06,0
1.7635,1.3092e-05,0
1.764,3.122e-05,0
1.7645,4.0787e-05,0
1.765,4.3641e-05,0
1.7655,4.3305e-05,0
1.766,4.5487e-05,0
1.7665,5.2201e-05,0
1.767,5.7572e-05,0
1.7675,5.6565e-05,0
1.768,5.4215e-05,0
1.7685,5.3376e-05,0
1.769,5.1865e-05,0
1.7695,5.153e-05,0
1.77,4.7333e-05,0
1.7705,3.5584e-05,0
1.771,2.2156e-05,0
1.7715,1.3596e-05,0
1.772,1.1078e-05,0
1.7725,1.2421e-05,0
1.773,1.0071e-05,0
1.7735,4.5319e-06,0
1.774,-2.8534e-06,0
1.7745,-8.2246e-06,0
1.775,-5.8747e-06,0
1.7755,8.392e-07,0
1.776,7.8889e-06,0
1.7765,1.1246e-05,0
1.777,1.2253e-05,0
1.7775,1.091e-05,0
1.778,6.8818e-06,0
1.7785,6.714e-07,0
1.779,-4.1962e-06,0
1.7795,-2.5177e-06,0
1.78,6.5461e-06,0
1.7805,1.6785e-05,0
1.781,1.7121e-05,0
1.7815,5.539e-06,0
1.782,-9.7353e-06,0
1.7825,-1.796e-05,0
1.783,-1.4939e-05,0
1.7835,-3.1891e-06,0
1.784,6.8818e-06,0
1.7845,1.2253e-05,0
1.785,1.4939e-05,0
1.7855,1.5946e-05,0
1.786,1.7792e-05,0
1.7865,1.8967e-05,0
1.787,2.182e-05,0
1.7875,2.6017e-05,0
1.788,3.122e-05,0
1.7885,3.743e-05,0
1.789,4.3641e-05,0
1.7895,4.6494e-05,0
1.79,4.5823e-05,0
1.7905,4.3137e-05,0
1.791,3.978e-05,0
1.7915,3.9277e-05,0
1.792,3.9277e-05,0
1.7925,3.8773e-05,0
1.793,3.8773e-05,0
1.7935,3.9109e-05,0
1.794,3.9445e-05,0
1.7945,3.978e-05,0
1.795,4.0452e-05,0
1.7955,4.1123e-05,0
1.796,4.1459e-05,0
1.7965,3.8773e-05,0
1.797,3.508e-05,0
1.7975,3.1388e-05,0
1.798,2.887e-05,0
1.7985,2.5681e-05,0
1.799,2.3163e-05,0
1.7995,2.1149e-05,0
1.8,1.9303e-05,0
1.8005,1.8631e-05,0
1.801,1.8463e-05,0
1.8015,1.7624e-05,0
1.802,1.561e-05,0
1.8025,1.326e-05,0
1.803,1.3092e-05,0
1.8035,1.4435e-05,0
1.804,1.5946e-05,0
1.8045,1.5274e-05,0
1.805,1.2924e-05,0
1.8055,1.2421e-05,0
1.806,1.326e-05,0
1.8065,1.3932e-05,0
1.807,1.6617e-05,0
1.8075,1.9135e-05,0
1.808,1.947e-05,0
1.8085,1.7288e-05,0
1.809,1.4603e-05,0
1.8095,1.5274e-05,0
1.81,1.7288e-05,0
1.8105,1.5946e-05,0
1.811,1.326e-05,0
1.8115,1.3764e-05,0
1.812,1.7288e-05,0
1.8125,2.2492e-05,0
1.813,2.8367e-05,0
1.8135,3.4073e-05,0
1.814,4.0452e-05,0
1.8145,4.2802e-05,0
1.815,3.9277e-05,0
1.8155,3.2731e-05,0
1.816,2.7024e-05,0
1.8165,2.6688e-05,0
1.817,2.6688e-05,0
1.8175,2.2324e-05,0
1.818,1.4603e-05,0
1.8185,6.3783e-06,0
1.819,-2.3499e-06,0
1.8195,-1.4267e-05,0
1.82,-2.6017e-05,0
1.8205,-2.9374e-05,0
1.821,-2.4002e-05,0
1.8215,-1.0575e-05,0
1.822,4.1962e-06,0
1.8225,1.4267e-05,0
1.823,1.7624e-05,0
1.8235,1.5442e-05,0
1.824,9.5674e-06,0
1.8245,7.2175e-06,0
1.825,4.8676e-06,0
1.8255,-7.2175e-06,0
1.826,-2.2324e-05,0
1.8265,-2.7024e-05,0
1.827,-2.266e-05,0
1.8275,-1.6953e-05,0
1.828,-1.1917e-05,0
1.8285,-5.539e-06,0
1.829,3.6927e-06,0
1.8295,1.091e-05,0
1.83,1.5274e-05,0
1.8305,1.9974e-05,0
1.831,2.3331e-05,0
1.8315,2.5009e-05,0
1.832,2.7359e-05,0
1.8325,2.9374e-05,0
1.833,3.0045e-05,0
1.8335,2.9709e-05,0
1.834,3.0045e-05,0
1.8345,2.9038e-05,0
1.835,2.7024e-05,0
1.8355,2.6017e-05,0
1.836,2.5681e-05,0
1.8365,2.5177e-05,0
1.837,2.6688e-05,0
1.8375,3.0381e-05,0
1.838,3.5248e-05,0
1.8385,3.9445e-05,0
1.839,4.1123e-05,0
1.8395,4.2298e-05,0
1.84,4.5991e-05,0
1.8405,5.2872e-05,0
1.841,5.7572e-05,0
1.8415,5.623e-05,0
1.842,4.918e-05,0
1.8425,4.0787e-05,0
1.843,3.5416e-05,0
1.8435,3.4745e-05,0
1.844,3.7934e-05,0
1.8445,4.213e-05,0
1.845,4.1123e-05,0
1.8455,3.1891e-05,0
1.846,2.1653e-05,0
1.8465,1.4267e-05,0
1.847,5.7069e-06,0
1.8475,5.035e-07,0
1.848,1.6785e-06,0
1.8485,5.8747e-06,0
1.849,8.896e-06,0
1.8495,4.5319e-06,0
1.85,-6.2104e-06,0
1.8505,-1.6617e-05,0
1.851,-1.9638e-05,0
1.8515,-1.4603e-05,0
1.852,-5.0355e-06,0
1.8525,7.7211e-06,0
1.853,1.6281e-05,0
1.8535,1.8967e-05,0
1.854,1.7288e-05,0
1.8545,1.2253e-05,0
1.855,8.2246e-06,0
1.8555,1.0575e-05,0
1.856,1.561e-05,0
1.8565,1.7792e-05,0
1.857,1.796e-05,0
1.8575,1.796e-05,0
1.858,1.7624e-05,0
1.8585,1.796e-05,0
1.859,2.0478e-05,0
1.8595,2.4002e-05,0
1.86,2.5513e-05,0
1.8605,2.6352e-05,0
1.861,2.8031e-05,0
1.8615,3.0716e-05,0
1.862,3.1388e-05,0
1.8625,2.9709e-05,0
1.863,2.7695e-05,0
1.8635,2.6352e-05,0
1.864,2.9374e-05,0
1.8645,3.508e-05,0
1.865,4.0955e-05,0
1.8655,4.6159e-05,0
1.866,4.9851e-05,0
1.8665,5.0523e-05,0
1.867,4.8676e-05,0
1.8675,4.5487e-05,0
1.868,4.0116e-05,0
1.8685,3.4913e-05,0
1.869,3.357e-05,0
1.8695,3.5752e-05,0
1.87,3.7934e-05,0
1.8705,3.7934e-05,0
1.871,3.4409e-05,0
1.8715,2.6688e-05,0
1.872,1.8296e-05,0
1.8725,1.091e-05,0
1.873,3.8605e-06,0
1.8735,-1.2924e-05,0
1.874,-3.4745e-05,0
1.8745,-4.0116e-05,0
1.875,-2.2324e-05,0
1.8755,1.8463e-06,0
1.876,1.326e-05,0
1.8765,9.5674e-06,0
1.877,1.8463e-06,0
1.8775,3.357e-07,0
1.878,5.2033e-06,0
1.8785,1.3932e-05,0
1.879,2.0646e-05,0
1.8795,2.8031e-05,0
1.88,3.6759e-05,0
1.8805,3.9948e-05,0
1.881,3.8773e-05,0
1.8815,3.6088e-05,0
1.882,3.1891e-05,0
1.8825,2.5009e-05,0
1.883,1.8296e-05,0
1.8835,1.4603e-05,0
1.884,1.4771e-05,0
1.8845,1.8631e-05,0
1.885,2.0142e-05,0
1.8855,1.6953e-05,0
1.886,1.4099e-05,0
1.8865,1.6617e-05,0
1.887,2.266e-05,0
1.8875,2.8031e-05,0
1.888,2.8031e-05,0
1.8885,2.3667e-05,0
1.889,1.796e-05,0
1.8895,1.561e-05,0
1.89,2.031e-05,0
1.8905,2.7863e-05,0
1.891,3.1388e-05,0
1.8915,3.4073e-05,0
1.892,3.8773e-05,0
1.8925,3.9948e-05,0
1.893,3.978e-05,0
1.8935,3.743e-05,0
1.894,2.7192e-05,0
1.8945,1.2924e-05,0
1.895,3.357e-06,0
1.8955,1.6785e-06,0
1.896,3.1891e-06,0
1.8965,7.8889e-06,0
1.897,1.6281e-05,0
1.8975,2.4002e-05,0
1.898,2.9374e-05,0
1.8985,3.1052e-05,0
1.899,3.0381e-05,0
1.8995,3.1052e-05,0
1.9,2.7863e-05,0
1.9005,1.6785e-05,0
1.901,-3.357e-07,0
1.9015,-1.3596e-05,0
1.902,-1.4099e-05,0
1.9025,-4.8676e-06,0
1.903,3.357e-07,0
1.9035,-2.5177e-06,0
1.904,-3.1891e-06,0
1.9045,1.5106e-06,0
1.905,2.182e-06,0
1.9055,-5.035e-07,0
1.906,2.8534e-06,0
1.9065,1.2589e-05,0
1.907,1.9135e-05,0
1.9075,1.6953e-05,0
1.908,8.2246e-06,0
1.9085,-1.1749e-06,0
1.909,-8.2246e-06,0
1.9095,-3.357e-06,0
1.91,1.8296e-05,0
1.9105,4.213e-05,0
1.911,5.2033e-05,0
1.9115,5.1865e-05,0
1.912,4.9515e-05,0
1.9125,4.6494e-05,0
1.913,4.3137e-05,0
1.9135,4.1123e-05,0
1.914,3.9277e-05,0
1.9145,3.4745e-05,0
1.915,2.4842e-05,0
1.9155,1.4267e-05,0
1.916,8.7282e-06,0
1.9165,6.2104e-06,0
1.917,4.6998e-06,0
1.9175,7.2175e-06,0
1.918,1.2253e-05,0
1.9185,1.326e-05,0
1.919,9.9031e-06,0
1.9195,7.8889e-06,0
1.92,9.9031e-06,0
1.9205,1.1246e-05,0
1.921,1.2589e-05,0
1.9215,1.7792e-05,0
1.922,2.5345e-05,0
1.9225,3.1388e-05,0
1.923,3.4073e-05,0
1.9235,3.3402e-05,0
1.924,2.8199e-05,0
1.9245,2.2492e-05,0
1.925,2.1149e-05,0
1.9255,2.4506e-05,0
1.926,2.8367e-05,0
1.9265,2.9374e-05,0
1.927,2.9374e-05,0
1.9275,3.0549e-05,0
1.928,3.1891e-05,0
1.9285,3.1388e-05,0
1.929,2.6688e-05,0
1.9295,1.8463e-05,0
1.93,1.0407e-05,0
1.9305,8.5603e-06,0
1.931,1.1917e-05,0
1.9315,1.8631e-05,0
1.932,2.4002e-05,0
1.9325,2.4506e-05,0
1.933,2.3163e-05,0
1.9335,2.3331e-05,0
1.934,2.3835e-05,0
1.9345,2.4506e-05,0
1.935,2.6688e-05,0
1.9355,2.6352e-05,0
1.936,2.5177e-05,0
1.9365,2.5009e-05,0
1.937,2.6017e-05,0
1.9375,2.6688e-05,0
1.938,2.6688e-05,0
1.9385,2.6184e-05,0
1.939,2.6184e-05,0
1.9395,2.8702e-05,0
1.94,2.9877e-05,0
1.9405,2.7359e-05,0
1.941,2.5345e-05,0
1.9415,2.5345e-05,0
1.942,2.5681e-05,0
1.9425,2.8367e-05,0
1.943,3.4745e-05,0
1.9435,4.683e-05,0
1.944,5.8747e-05,0
1.9445,6.5126e-05,0
1.945,5.9587e-05,0
1.9455,4.3809e-05,0
1.946,2.3163e-05,0
1.9465,5.7069e-06,0
1.947,-2.3499e-06,0
1.9475,-5.8747e-06,0
1.948,-8.3925e-06,0
1.9485,-1.4771e-05,0
1.949,-2.7024e-05,0
1.9495,-3.592e-05,0
1.95,-2.9709e-05,0
1.9505,-1.9303e-05,0
1.951,-1.561e-05,0
1.9515,-1.4435e-05,0
1.952,-1.3596e-05,0
1.9525,-1.2253e-05,0
1.953,-6.0426e-06,0
1.9535,8.5603e-06,0
1.954,2.8534e-05,0
1.9545,4.2802e-05,0
1.955,4.4144e-05,0
1.9555,3.2898e-05,0
1.956,1.2085e-05,0
1.9565,-1.3596e-05,0
1.957,-3.3738e-05,0
1.9575,-3.9948e-05,0
1.958,-2.9709e-05,0
1.9585,-7.7211e-06,0
1.959,1.1246e-05,0
1.9595,1.947e-05,0
1.96,1.8296e-05,0
1.9605,1.5274e-05,0
1.961,1.8463e-05,0
1.9615,3.0045e-05,0
1.962,4.5151e-05,0
1.9625,5.6062e-05,0
1.963,5.7908e-05,0
1.9635,5.0858e-05,0
1.964,3.978e-05,0
1.9645,3.4745e-05,0
1.965,3.9948e-05,0
1.9655,4.7837e-05,0
1.966,5.0187e-05,0
1.9665,4.448e-05,0
1.967,3.2059e-05,0
1.9675,1.8631e-05,0
1.968,1.1078e-05,0
1.9685,1.5442e-05,0
1.969,2.182e-05,0
1.9695,1.7288e-05,0
1.97,1.1917e-05,0
1.9705,1.7624e-05,0
1.971,2.1988e-05,0
1.9715,1.2253e-05,0
1.972,-2.3499e-06,0
1.9725,-6.8818e-06,0
1.973,4.5319e-06,0
1.9735,2.1988e-05,0
1.974,3.0381e-05,0
1.9745,2.7359e-05,0
1.975,2.2492e-05,0
1.9755,2.0478e-05,0
1.976,1.6281e-05,0
1.9765,1.0575e-05,0
1.977,8.3925e-06,0
1.9775,1.2589e-05,0
1.978,1.9974e-05,0
1.9785,2.1317e-05,0
1.979,1.8967e-05,0
1.9795,1.9135e-05,0
1.98,2.266e-05,0
1.9805,2.7359e-05,0
1.981,2.9374e-05,0
1.9815,2.8031e-05,0
1.982,2.4002e-05,0
1.9825,1.8128e-05,0
1.983,1.9135e-05,0
1.9835,3.0716e-05,0
1.984,4.0116e-05,0
1.9845,3.8773e-05,0
1.985,3.1891e-05,0
1.9855,2.887e-05,0
1.986,2.9374e-05,0
1.9865,2.9206e-05,0
1.987,2.8702e-05,0
1.9875,2.8367e-05,0
1.988,2.7192e-05,0
1.9885,2.6352e-05,0
1.989,2.5009e-05,0
1.9895,2.1988e-05,0
1.99,1.947e-05,0
1.9905,2.0478e-05,0
1.991,2.2492e-05,0
1.9915,2.4002e-05,0
1.992,2.4674e-05,0
1.9925,2.266e-05,0
1.993,1.9974e-05,0
1.9935,1.7121e-05,0
1.994,1.4939e-05,0
1.9945,1.1078e-05,0
1.995,6.3783e-06,0
1.9955,7.8889e-06,0
1.996,1.3092e-05,0
1.9965,1.5274e-05,0
1.997,1.4939e-05,0
1.9975,1.5106e-05,0
1.998,1.6953e-05,0
1.9985,1.8631e-05,0
1.999,1.947e-05,0
1.9995,1.9303e-05,0
2,1.8296e-05,0
2.0005,1.7624e-05,0
2.001,1.7792e-05,0
2.0015,1.6617e-05,0
2.002,1.5274e-05,0
2.0025,1.5778e-05,0
2.003,1.4771e-05,0
2.0035,1.3764e-05,0
2.004,1.6617e-05,0
2.0045,2.0646e-05,0
2.005,2.182e-05,0
2.0055,1.9974e-05,0
2.006,1.3596e-05,0
2.0065,5.539e-06,0
2.007,5.2033e-06,0
2.0075,1.0742e-05,0
2.008,1.6617e-05,0
2.0085,2.0646e-05,0
2.009,2.6017e-05,0
2.0095,3.3738e-05,0
2.01,4.0787e-05,0
2.0105,4.7166e-05,0
2.011,5.2201e-05,0
2.0115,5.5222e-05,0
2.012,5.8915e-05,0
2.0125,5.9587e-05,0
2.013,5.3376e-05,0
2.0135,4.2802e-05,0
2.014,2.9374e-05,0
2.0145,1.2589e-05,0
2.015,-6.5461e-06,0
2.0155,-2.5177e-05,0
2.016,-3.508e-05,0
2.0165,-3.2731e-05,0
2.017,-2.6688e-05,0
2.0175,-2.8199e-05,0
2.018,-3.508e-05,0
2.0185,-3.6591e-05,0
2.019,-2.9709e-05,0
2.0195,-1.796e-05,0
2.02,-3.8605e-06,0
2.0205,7.2175e-06,0
2.021,1.6617e-05,0
2.0215,2.8534e-05,0
2.022,3.7766e-05,0
2.0225,3.4073e-05,0
2.023,2.5009e-05,0
2.0235,2.2324e-05,0
2.024,2.4002e-05,0
2.0245,2.6017e-05,0
2.025,2.5009e-05,0
2.0255,1.8967e-05,0
2.026,1.1582e-05,0
2.0265,7.8889e-06,0
2.027,4.8676e-06,0
2.0275,4.1962e-06,0
2.028,1.1582e-05,0
2.0285,2.5009e-05,0
2.029,3.1724e-05,0
2.0295,2.2324e-05,0
2.03,1.1917e-05,0
2.0305,1.6617e-05,0
2.031,2.6017e-05,0
2.0315,2.6856e-05,0
2.032,2.182e-05,0
2.0325,1.8631e-05,0
2.033,2.3667e-05,0
2.0335,3.6591e-05,0
2.034,4.4648e-05,0
2.0345,4.4984e-05,0
2.035,4.1459e-05,0
2.0355,3.3738e-05,0
2.036,2.6017e-05,0
2.0365,2.2995e-05,0
2.037,2.182e-05,0
2.0375,1.9974e-05,0
2.038,1.9974e-05,0
2.0385,2.0646e-05,0
2.039,1.5106e-05,0
2.0395,4.6998e-06,0
2.04,-1.6785e-06,0
2.0405,0,0
2.041,8.896e-06,0
2.0415,1.8631e-05,0
2.042,2.2324e-05,0
2.0425,2.4506e-05,0
2.043,3.0045e-05,0
2.0435,3.4073e-05,0
2.044,3.2731e-05,0
2.0445,2.8031e-05,0
2.045,2.4674e-05,0
2.0455,2.5345e-05,0
2.046,2.2828e-05,0
2.0465,1.8631e-05,0
2.047,2.031e-05,0
2.0475,2.8367e-05,0
2.048,3.4409e-05,0
2.0485,3.508e-05,0
2.049,3.3066e-05,0
2.0495,2.9374e-05,0
2.05,2.3835e-05,0
2.0505,1.796e-05,0
2.051,1.4939e-05,0
2.0515,1.7288e-05,0
2.052,2.5177e-05,0
2.0525,3.508e-05,0
2.053,3.7766e-05,0
2.0535,3.8605e-05,0
2.054,4.918e-05,0
2.0545,6.5965e-05,0
2.055,8.0232e-05,0
2.0555,8.5771e-05,0
2.056,7.6204e-05,0
2.0565,6.009e-05,0
2.057,5.5055e-05,0
2.0575,5.9587e-05,0
2.058,5.623e-05,0
2.0585,3.9445e-05,0
2.059,1.9638e-05,0
2.0595,6.5461e-06,0
2.06,-1.5106e-06,0
2.0605,-1.6953e-05,0
2.061,-4.6662e-05,0
2.0615,-7.5364e-05,0
2.062,-8.5603e-05,0
2.0625,-8.0064e-05,0
2.063,-6.63e-05,0
2.0635,-5.1026e-05,0
2.064,-3.9109e-05,0
2.0645,-3.1891e-05,0
2.065,-2.6184e-05,0
2.0655,-1.7792e-05,0
2.066,-6.5461e-06,0
2.0665,5.539e-06,0
2.067,1.5946e-05,0
2.0675,2.4674e-05,0
2.068,3.0045e-05,0
2.0685,3.0716e-05,0
2.069,2.8031e-05,0
2.0695,2.6017e-05,0
2.07,2.5681e-05,0
2.0705,2.5681e-05,0
2.071,2.7192e-05,0
2.0715,2.6017e-05,0
2.072,2.266e-05,0
2.0725,2.1988e-05,0
2.073,2.5681e-05,0
2.0735,3.2563e-05,0
2.074,4.0787e-05,0
2.0745,4.6159e-05,0
2.075,4.7166e-05,0
2.0755,4.683e-05,0
2.076,4.6159e-05,0
2.0765,4.4816e-05,0
2.077,4.1962e-05,0
2.0775,3.7095e-05,0
2.078,3.3402e-05,0
2.0785,3.508e-05,0
2.079,3.7766e-05,0
2.0795,3.592e-05,0
2.08,0,0
2.0805,0,0
2.081,0,0
2.0815,0,0
2.082,0,0
2.0825,0,0
2.083,0,0
2.0835,0,0
2.084,0,0
2.0845,0,0
2.085,0,0
2.0855,0,0
2.086,0,0
2.0865,0,0
2.087,0,0
2.0875,0,0
2.088,0,0
2.0885,0,0
2.089,0,0
2.0895,0,0
2.09,0,0
2.0905,0,0
2.091,0,0
2.0915,0,0
2.092,0,0
2.0925,0,0
2.093,1.678e-07,0
2.0935,-9.0639e-06,0
2.094,-2.2492e-05,0
2.0945,-3.6591e-05,0
2.095,-4.1962e-05,0
2.0955,-3.508e-05,0
2.096,-2.2156e-05,0
2.0965,-1.091e-05,0
2.097,-2.0142e-06,0
2.0975,6.8818e-06,0
2.098,1.4603e-05,0
2.0985,1.7288e-05,0
2.099,1.4435e-05,0
2.0995,1.1917e-05,0
2.1,1.5274e-05,0
2.1005,2.3835e-05,0
2.101,3.3066e-05,0
2.1015,4.0284e-05,0
2.102,4.448e-05,0
2.1025,4.3809e-05,0
2.103,4.1795e-05,0
2.1035,4.0787e-05,0
2.104,3.6088e-05,0
2.1045,2.8031e-05,0
2.105,2.3835e-05,0
2.1055,2.2492e-05,0
2.106,1.9303e-05,0
2.1065,1.3596e-05,0
2.107,1.0575e-05,0
2.1075,1.2589e-05,0
2.108,1.4603e-05,0
2.1085,1.2924e-05,0
2.109,4.0284e-06,0
2.1095,-1.091e-05,0
2.11,-2.4002e-05,0
2.1105,-2.9206e-05,0
2.111,-2.3499e-05,0
2.1115,-1.2421e-05,0
2.112,-6.714e-07,0
2.1125,1.1246e-05,0
2.113,2.1988e-05,0
2.1135,3.5584e-05,0
2.114,4.6662e-05,0
2.1145,4.8173e-05,0
2.115,4.4816e-05,0
2.1155,4.2802e-05,0
2.116,4.0452e-05,0
2.1165,3.3738e-05,0
2.117,2.1988e-05,0
2.1175,1.0575e-05,0
2.118,7.8889e-06,0
2.1185,1.0575e-05,0
2.119,8.896e-06,0
2.1195,1.6785e-06,0
2.12,-4.5319e-06,0
2.1205,-7.5532e-06,0
2.121,-3.1891e-06,0
2.1215,1.0575e-05,0
2.122,2.6352e-05,0
2.1225,3.743e-05,0
2.123,4.2466e-05,0
2.1235,4.2802e-05,0
2.124,4.0619e-05,0
2.1245,3.6088e-05,0
2.125,2.6688e-05,0
2.1255,1.5946e-05,0
2.126,1.2085e-05,0
2.1265,1.5946e-05,0
2.127,1.9303e-05,0
2.1275,1.3764e-05,0
2.128,5.539e-06,0
2.1285,7.8889e-06,0
2.129,2.2156e-05,0
2.1295,3.9612e-05,0
2.13,5.0355e-05,0
2.1305,5.0187e-05,0
2.131,4.5823e-05,0
2.1315,4.0787e-05,0
2.132,3.2731e-05,0
2.1325,2.4338e-05,0
2.133,1.9303e-05,0
2.1335,1.6785e-05,0
2.134,1.2589e-05,0
2.1345,3.357e-06,0
2.135,-1.1917e-05,0
2.1355,-2.3331e-05,0
2.136,-2.182e-05,0
2.1365,-7.8889e-06,0
2.137,7.2175e-06,0
2.1375,1.6617e-05,0
2.138,2.0646e-05,0
2.1385,2.4338e-05,0
2.139,2.8702e-05,0
2.1395,3.3066e-05,0
2.14,3.508e-05,0
2.1405,3.592e-05,0
2.141,3.6088e-05,0
2.1415,3.3402e-05,0
2.142,3.3402e-05,0
2.1425,3.8437e-05,0
2.143,4.5319e-05,0
2.1435,4.918e-05,0
2.144,4.8844e-05,0
2.1445,4.448e-05,0
2.145,3.8773e-05,0
2.1455,3.4073e-05,0
2.146,2.9374e-05,0
2.1465,2.8367e-05,0
2.147,3.0549e-05,0
2.1475,3.0045e-05,0
2.148,2.7192e-05,0
2.1485,2.4674e-05,0
2.149,2.2156e-05,0
2.1495,1.2589e-05,0
2.15,1.5106e-06,0
2.1505,-6.5461e-06,0
2.151,-1.4267e-05,0
2.1515,-1.5274e-05,0
2.152,-3.8605e-06,0
2.1525,8.2246e-06,0
2.153,4.6998e-06,0
2.1535,-7.0497e-06,0
2.154,-1.2253e-05,0
2.1545,-1.2253e-05,0
2.155,-1.5778e-05,0
2.1555,-2.5009e-05,0
2.156,-3.743e-05,0
2.1565,-4.2802e-05,0
2.157,-3.7095e-05,0
2.1575,-2.8367e-05,0
2.158,-1.796e-05,0
2.1585,-3.5248e-06,0
2.159,1.4939e-05,0
2.1595,2.9709e-05,0
2.16,3.2059e-05,0
2.1605,2.7359e-05,0
2.161,3.0716e-05,0
2.1615,4.2634e-05,0
2.162,5.5222e-05,0
2.1625,6.3615e-05,0
2.163,6.5629e-05,0
2.1635,6.3615e-05,0
2.164,6.2944e-05,0
2.1645,6.0929e-05,0
2.165,5.3544e-05,0
2.1655,4.6326e-05,0
2.166,3.9445e-05,0
2.1665,2.9038e-05,0
2.167,1.9135e-05,0
2.1675,1.6281e-05,0
2.168,1.796e-05,0
2.1685,1.8631e-05,0
2.169,1.7288e-05,0
2.1695,1.561e-05,0
2.17,1.7624e-05,0
2.1705,3.357e-05,0
2.171,5.7908e-05,0
2.1715,7.335e-05,0
2.172,7.1e-05,0
2.1725,5.8076e-05,0
2.173,4.7837e-05,0
2.1735,4.3137e-05,0
2.174,3.743e-05,0
2.1745,2.6688e-05,0
2.175,7.2175e-06,0
2.1755,-1.6281e-05,0
2.176,-3.1388e-05,0
2.1765,-3.8437e-05,0
2.177,-4.5151e-05,0
2.1775,-4.918e-05,0
2.178,-4.2466e-05,0
2.1785,-2.2995e-05,0
2.179,5.035e-07,0
2.1795,1.6617e-05,0
2.18,2.2995e-05,0
2.1805,2.4842e-05,0
2.181,2.5681e-05,0
2.1815,2.4338e-05,0
2.182,1.9638e-05,0
2.1825,1.561e-05,0
2.183,1.5106e-05,0
2.1835,1.2924e-05,0
2.184,1.0239e-05,0
2.1845,1.1582e-05,0
2.185,1.9303e-05,0
2.1855,3.122e-05,0
2.186,4.3809e-05,0
2.1865,5.0355e-05,0
2.187,5.0187e-05,0
2.1875,4.683e-05,0
2.188,4.5823e-05,0
2.1885,5.4048e-05,0
2.189,6.1936e-05,0
2.1895,6.2944e-05,0
2.19,5.4551e-05,0
2.1905,3.5248e-05,0
2.191,1.0407e-05,0
2.1915,-7.8889e-06,0
2.192,-3.357e-07,0
2.1925,2.1988e-05,0
2.193,3.2731e-05,0
2.1935,2.8367e-05,0
2.194,1.9638e-05,0
2.1945,1.9303e-05,0
2.195,3.1724e-05,0
2.1955,4.9515e-05,0
2.196,6.6972e-05,0
2.1965,7.2343e-05,0
2.197,6.0929e-05,0
2.1975,3.5416e-05,0
2.198,-2.182e-06,0
2.1985,-4.1291e-05,0
2.199,-6.3279e-05,0
2.1995,-6.1936e-05,0
2.2,-4.7166e-05,0
2.2005,-4.0452e-05,0
2.201,-4.3305e-05,0
2.2015,-3.9109e-05,0
2.202,-2.2828e-05,0
2.2025,-3.1891e-06,0
2.203,1.1078e-05,0
2.2035,1.8463e-05,0
2.204,2.9709e-05,0
2.2045,4.1962e-05,0
2.205,3.8941e-05,0
2.2055,2.9206e-05,0
2.206,2.5681e-05,0
2.2065,2.7359e-05,0
2.207,2.6184e-05,0
2.2075,2.1653e-05,0
2.208,1.9303e-05,0
2.2085,1.8128e-05,0
2.209,1.6449e-05,0
2.2095,1.1414e-05,0
2.21,7.2175e-06,0
2.2105,3.8605e-06,0
2.211,-4.5319e-06,0
2.2115,-1.4267e-05,0
2.212,-1.2924e-05,0
2.2125,1.0071e-06,0
2.213,1.8296e-05,0
2.2135,3.7262e-05,0
2.214,5.7404e-05,0
2.2145,7.1336e-05,0
2.215,7.4525e-05,0
2.2155,7.1e-05,0
2.216,6.6133e-05,0
2.2165,5.8915e-05,0
2.217,5.2201e-05,0
2.2175,4.3473e-05,0
2.218,3.3906e-05,0
2.2185,2.6688e-05,0
2.219,1.5946e-05,0
2.2195,-8.3925e-06,0
2.22,-3.2395e-05,0
2.2205,-3.5752e-05,0
2.221,-2.266e-05,0
2.2215,-8.2246e-06,0
2.222,8.3925e-06,0
2.2225,3.0045e-05,0
2.223,4.8676e-05,0
2.2235,5.7572e-05,0
2.224,5.7237e-05,0
2.2245,5.1194e-05,0
2.225,4.1123e-05,0
2.2255,2.9374e-05,0
2.226,1.9974e-05,0
2.2265,1.2589e-05,0
2.227,5.2033e-06,0
2.2275,-6.8818e-06,0
2.228,-2.6352e-05,0
2.2285,-4.448e-05,0
2.229,-4.3641e-05,0
2.2295,-2.9374e-05,0
2.23,-2.5681e-05,0
2.2305,-3.7095e-05,0
2.231,-4.3137e-05,0
2.2315,-3.2395e-05,0
2.232,-1.4603e-05,0
2.2325,3.1891e-06,0
2.233,1.7624e-05,0
2.2335,2.8199e-05,0
2.234,3.6759e-05,0
2.2345,4.448e-05,0
2.235,4.9851e-05,0
2.2355,5.7237e-05,0
2.236,7.3014e-05,0
2.2365,8.5771e-05,0
2.237,8.6778e-05,0
2.2375,8.51e-05,0
2.238,8.5435e-05,0
2.2385,8.1743e-05,0
2.239,7.3182e-05,0
2.2395,5.9922e-05,0
2.24,4.5823e-05,0
2.2405,3.4745e-05,0
2.241,2.6688e-05,0
2.2415,1.4603e-05,0
2.242,-3.357e-07,0
2.2425,-9.7353e-06,0
2.243,-1.4099e-05,0
2.2435,-1.4267e-05,0
2.244,-1.1078e-05,0
2.2445,-8.3925e-06,0
2.245,-7.5532e-06,0
2.2455,-1.678e-07,0
2.246,1.6617e-05,0
2.2465,3.5584e-05,0
2.247,5.0187e-05,0
2.2475,5.623e-05,0
2.248,5.2872e-05,0
2.2485,4.5319e-05,0
2.249,3.743e-05,0
2.2495,3.1724e-05,0
2.25,2.652e-05,0
2.2505,2.1317e-05,0
2.251,1.5274e-05,0
2.2515,6.5461e-06,0
2.252,1.8463e-06,0
2.2525,6.8818e-06,0
2.253,1.2085e-05,0
2.2535,1.0407e-05,0
2.254,4.8676e-06,0
2.2545,1.6785e-06,0
2.255,3.8605e-06,0
2.2555,1.0575e-05,0
2.256,1.6449e-05,0
2.2565,1.8296e-05,0
2.257,1.8967e-05,0
2.2575,1.9303e-05,0
2.258,1.9303e-05,0
2.2585,1.9303e-05,0
2.259,1.9303e-05,0
2.2595,2.0478e-05,0
2.26,1.9806e-05,0
2.2605,1.8463e-05,0
2.261,2.031e-05,0
2.2615,2.4338e-05,0
2.262,2.5177e-05,0
2.2625,2.1988e-05,0
2.263,1.8967e-05,0
2.2635,2.0478e-05,0
2.264,2.5177e-05,0
2.2645,3.0045e-05,0
2.265,3.6759e-05,0
2.2655,4.5823e-05,0
2.266,4.9515e-05,0
2.2665,4.5487e-05,0
2.267,3.978e-05,0
2.2675,3.3738e-05,0
2.268,2.8534e-05,0
2.2685,2.8031e-05,0
2.269,2.4842e-05,0
2.2695,1.326e-05,0
2.27,0,0
2.2705,-7.5532e-06,0
2.271,-1.1246e-05,0
2.2715,-1.326e-05,0
2.272,-1.3932e-05,0
2.2725,-1.1749e-05,0
2.273,-6.5461e-06,0
2.2735,1.8463e-06,0
2.274,9.5674e-06,0
2.2745,9.9031e-06,0
2.275,6.5461e-06,0
2.2755,5.539e-06,0
2.276,7.7211e-06,0
2.2765,1.1917e-05,0
2.277,1.5946e-05,0
2.2775,1.9974e-05,0
2.278,2.0646e-05,0
2.2785,1.9303e-05,0
2.279,1.947e-05,0
2.2795,2.1317e-05,0
2.28,2.182e-05,0
2.2805,2.266e-05,0
2.281,2.5681e-05,0
2.2815,3.0381e-05,0
2.282,3.6088e-05,0
2.2825,3.8773e-05,0
2.283,3.7095e-05,0
2.2835,3.5416e-05,0
2.284,4.0116e-05,0
2.2845,4.8173e-05,0
2.285,5.153e-05,0
2.2855,5.304e-05,0
2.286,5.5894e-05,0
2.2865,6.0929e-05,0
2.287,5.8915e-05,0
2.2875,4.2466e-05,0
2.288,1.9638e-05,0
2.2885,1.1749e-06,0
2.289,-1.4435e-05,0
2.2895,-3.2395e-05,0
2.29,-4.3473e-05,0
2.2905,-3.8437e-05,0
2.291,-2.7024e-05,0
2.2915,-1.9638e-05,0
2.292,-2.417e-05,0
2.2925,-4.2802e-05,0
2.293,-5.5558e-05,0
2.2935,-4.2466e-05,0
2.294,-1.2589e-05,0
2.2945,1.3932e-05,0
2.295,2.7192e-05,0
2.2955,3.0884e-05,0
2.296,3.2731e-05,0
2.2965,3.122e-05,0
2.297,2.4674e-05,0
2.2975,1.7121e-05,0
2.298,1.1414e-05,0
2.2985,7.2175e-06,0
2.299,8.2246e-06,0
2.2995,1.5778e-05,0
2.3,2.2156e-05,0
2.3005,2.5009e-05,0
2.301,2.4842e-05,0
2.3015,2.4338e-05,0
2.302,2.6017e-05,0
2.3025,2.7527e-05,0
2.303,2.8702e-05,0
2.3035,2.9374e-05,0
2.304,2.8702e-05,0
2.3045,2.6688e-05,0
2.305,2.5681e-05,0
2.3055,2.5513e-05,0
2.306,2.7863e-05,0
2.3065,3.1388e-05,0
2.307,3.1724e-05,0
2.3075,2.9206e-05,0
2.308,2.6688e-05,0
2.3085,2.6352e-05,0
2.309,2.7863e-05,0
2.3095,2.8031e-05,0
2.31,2.5681e-05,0
2.3105,2.3331e-05,0
2.311,2.3835e-05,0
2.3115,2.5681e-05,0
2.312,2.7863e-05,0
2.3125,3.2563e-05,0
2.313,3.6591e-05,0
2.3135,3.5752e-05,0
2.314,3.4409e-05,0
2.3145,3.3066e-05,0
2.315,3.1891e-05,0
2.3155,3.0549e-05,0
2.316,2.8367e-05,0
2.3165,2.6688e-05,0
2.317,2.5849e-05,0
2.3175,2.4338e-05,0
2.318,2.3667e-05,0
2.3185,2.3499e-05,0
2.319,2.3835e-05,0
2.3195,2.3163e-05,0
2.32,2.182e-05,0
2.3205,1.8967e-05,0
2.321,1.7288e-05,0
2.3215,1.9638e-05,0
2.322,2.0478e-05,0
2.3225,1.9638e-05,0
2.323,1.9303e-05,0
2.3235,1.8631e-05,0
2.324,2.0646e-05,0
2.3245,2.6688e-05,0
2.325,3.2395e-05,0
2.3255,3.1724e-05,0
2.326,2.7863e-05,0
2.3265,2.4506e-05,0
2.327,1.9806e-05,0
2.3275,1.2589e-05,0
2.328,9.5674e-06,0
2.3285,1.6953e-05,0
2.329,2.9542e-05,0
2.3295,3.508e-05,0
2.33,2.8031e-05,0
2.3305,1.5946e-05,0
2.331,9.9031e-06,0
2.3315,1.0575e-05,0
2.332,1.6953e-05,0
2.3325,3.0381e-05,0
2.333,4.1123e-05,0
2.3335,3.7766e-05,0
2.334,1.9806e-05,0
2.3345,-7.0497e-06,0
2.335,-3.2395e-05,0
2.3355,-4.0787e-05,0
2.336,-2.8702e-05,0
2.3365,-1.2253e-05,0
2.337,-4.1962e-06,0
2.3375,-8.392e-07,0
2.338,2.182e-06,0
2.3385,1.1414e-05,0
2.339,2.8031e-05,0
2.3395,4.4984e-05,0
2.34,4.9515e-05,0
2.3405,4.2466e-05,0
2.341,2.9374e-05,0
2.3415,2.031e-05,0
2.342,1.2253e-05,0
2.3425,2.8534e-06,0
2.343,-1.3428e-06,0
2.3435,4.5319e-06,0
2.344,1.0407e-05,0
2.3445,5.539e-06,0
2.345,-2.3499e-06,0
2.3455,-4.0284e-06,0
2.346,1.3428e-06,0
2.3465,7.3854e-06,0
2.347,1.3932e-05,0
2.3475,2.5345e-05,0
2.348,3.1724e-05,0
2.3485,2.5345e-05,0
2.349,1.0239e-05,0
2.3495,-4.3641e-06,0
2.35,-2.182e-06,0
2.3505,1.7288e-05,0
2.351,2.9877e-05,0
2.3515,2.8702e-05,0
2.352,2.652e-05,0
2.3525,2.9877e-05,0
2.353,3.7766e-05,0
2.3535,4.7166e-05,0
2.354,5.1865e-05,0
2.3545,5.2033e-05,0
2.355,5.1865e-05,0
2.3555,5.1698e-05,0
2.356,4.683e-05,0
2.3565,3.8102e-05,0
2.357,3.1052e-05,0
2.3575,3.122e-05,0
2.358,3.4745e-05,0
2.3585,3.6088e-05,0
2.359,3.6088e-05,0
2.3595,3.0045e-05,0
2.36,7.5532e-06,0
2.3605,-2.3499e-05,0
2.361,-4.7837e-05,0
2.3615,-5.9251e-05,0
2.362,-4.918e-05,0
2.3625,-1.5778e-05,0
2.363,1.9974e-05,0
2.3635,3.4913e-05,0
2.364,3.6591e-05,0
2.3645,3.8102e-05,0
2.365,4.3305e-05,0
2.3655,5.0523e-05,0
2.366,5.8412e-05,0
2.3665,6.7308e-05,0
2.367,7.6875e-05,0
2.3675,7.9728e-05,0
2.368,6.6972e-05,0
2.3685,4.0787e-05,0
2.369,1.6449e-05,0
2.3695,1.1749e-05,0
2.37,2.3331e-05,0
2.3705,3.1388e-05,0
2.371,2.4002e-05,0
2.3715,7.0497e-06,0
2.372,-6.3783e-06,0
2.3725,-1.5274e-05,0
2.373,-2.5681e-05,0
2.3735,-3.2395e-05,0
2.374,-2.5681e-05,0
2.3745,-9.3996e-06,0
2.375,7.2175e-06,0
2.3755,2.2324e-05,0
2.376,3.9277e-05,0
2.3765,5.3544e-05,0
2.377,5.8244e-05,0
2.3775,4.9348e-05,0
2.378,3.743e-05,0
2.3785,2.8702e-05,0
2.379,1.796e-05,0
2.3795,8.5603e-06,0
2.38,1.0742e-05,0
2.3805,1.8296e-05,0
2.381,1.5946e-05,0
2.3815,3.8605e-06,0
2.382,-6.5461e-06,0
2.3825,-7.3854e-06,0
2.383,2.182e-06,0
2.3835,1.6953e-05,0
2.384,2.6688e-05,0
2.3845,2.7695e-05,0
2.385,2.3163e-05,0
2.3855,1.9974e-05,0
2.386,2.3667e-05,0
2.3865,2.8031e-05,0
2.387,2.5681e-05,0
2.3875,2.0646e-05,0
2.388,1.5778e-05,0
2.3885,1.3932e-05,0
2.389,1.561e-05,0
2.3895,1.7624e-05,0
2.39,1.796e-05,0
2.3905,1.8631e-05,0
2.391,2.1317e-05,0
2.3915,2.4506e-05,0
2.392,2.7695e-05,0
2.3925,3.1388e-05,0
2.393,3.0045e-05,0
2.3935,2.3667e-05,0
2.394,1.6281e-05,0
2.3945,9.7353e-06,0
2.395,3.357e-06,0
2.3955,-8.392e-07,0
2.396,3.357e-07,0
2.3965,3.6927e-06,0
2.397,4.1962e-06,0
2.3975,1.1749e-06,0
2.398,-1.1749e-06,0
2.3985,1.5106e-06,0
2.399,4.8676e-06,0
2.3995,7.8889e-06,0
2.4,1.3596e-05,0
2.4005,1.9974e-05,0
2.401,2.4338e-05,0
2.4015,2.4674e-05,0
2.402,2.4338e-05,0
2.4025,2.4674e-05,0
2.403,2.3667e-05,0
2.4035,2.3835e-05,0
2.404,2.4674e-05,0
2.4045,2.2995e-05,0
2.405,1.9638e-05,0
2.4055,1.6617e-05,0
2.406,1.561e-05,0
2.4065,1.8128e-05,0
2.407,1.9806e-05,0
2.4075,1.7456e-05,0
2.408,1.4267e-05,0
2.4085,1.5274e-05,0
2.409,1.9303e-05,0
2.4095,2.266e-05,0
2.41,2.6352e-05,0
2.4105,3.0716e-05,0
2.411,3.2563e-05,0
2.4115,3.1724e-05,0
2.412,3.1388e-05,0
2.4125,3.3234e-05,0
2.413,3.4745e-05,0
2.4135,3.122e-05,0
2.414,2.5345e-05,0
2.4145,2.1317e-05,0
2.415,2.182e-05,0
2.4155,2.6688e-05,0
2.416,3.3234e-05,0
2.4165,3.5416e-05,0
2.417,4.1795e-05,0
2.4175,6.0258e-05,0
2.418,8.0903e-05,0
2.4185,9.1814e-05,0
2.419,9.4835e-05,0
2.4195,9.2989e-05,0
2.42,9.1142e-05,0
2.4205,8.9464e-05,0
2.421,6.9154e-05,0
2.4215,2.887e-05,0
2.422,-6.0426e-06,0
2.4225,-2.9709e-05,0
2.423,-5.6565e-05,0
2.4235,-9.5506e-05,0
2.424,-0.00012807,0
2.4245,-0.00013478,0
2.425,-0.00012203,0
2.4255,-0.00010037,0
2.426,-7.3182e-05,0
2.4265,-5.2033e-05,0
2.427,-3.9277e-05,0
2.4275,-2.0813e-05,0
2.428,4.8676e-06,0
2.4285,2.5177e-05,0
2.429,3.2731e-05,0
2.4295,3.6423e-05,0
2.43,4.3809e-05,0
2.4305,4.9683e-05,0
2.431,4.4816e-05,0
2.4315,3.4073e-05,0
2.432,2.8199e-05,0
2.4325,3.4073e-05,0
2.433,4.918e-05,0
2.4335,6.7979e-05,0
2.434,8.0064e-05,0
2.4345,7.335e-05,0
2.435,5.4887e-05,0
2.4355,4.5151e-05,0
2.436,4.7333e-05,0
2.4365,5.6733e-05,0
2.437,7.0329e-05,0
2.4375,8.3085e-05,0
2.438,8.6107e-05,0
2.4385,7.57e-05,0
2.439,5.9587e-05,0
2.4395,4.1795e-05,0
2.44,3.0716e-05,0
2.4405,2.9038e-05,0
2.441,2.0142e-05,0
2.4415,5.2033e-06,0
2.442,-8.5603e-06,0
2.4425,-2.4674e-05,0
2.443,-3.8437e-05,0
2.4435,-2.9709e-05,0
2.444,-1.678e-07,0
2.4445,1.9974e-05,0
2.445,1.0575e-05,0
2.4455,-1.2085e-05,0
2.446,-2.4506e-05,0
2.4465,-1.7792e-05,0
2.447,-3.0213e-06,0
2.4475,4.3641e-06,0
2.448,-5.2033e-06,0
2.4485,-1.9638e-05,0
2.449,-2.5681e-05,0
2.4495,-2.2995e-05,0
2.45,-1.4603e-05,0
2.4505,-7.2175e-06,0
2.451,-8.896e-06,0
2.4515,-1.5442e-05,0
2.452,-1.2924e-05,0
2.4525,-2.6856e-06,0
2.453,5.8747e-06,0
2.4535,1.2589e-05,0
2.454,2.0478e-05,0
2.4545,2.7359e-05,0
2.455,2.8031e-05,0
2.4555,3.122e-05,0
2.456,4.5487e-05,0
2.4565,6.2944e-05,0
2.457,7.3182e-05,0
2.4575,7.6371e-05,0
2.458,7.6371e-05,0
2.4585,8.04e-05,0
2.459,8.5771e-05,0
2.4595,8.5267e-05,0
2.46,7.5029e-05,0
2.4605,6.4286e-05,0
2.461,5.8244e-05,0
2.4615,5.2201e-05,0
2.462,4.4144e-05,0
2.4625,3.7095e-05,0
2.463,3.2395e-05,0
2.4635,3.0381e-05,0
2.464,2.8534e-05,0
2.4645,2.5849e-05,0
2.465,2.2995e-05,0
2.4655,2.1317e-05,0
2.466,2.0478e-05,0
2.4665,1.7792e-05,0
2.467,1.3092e-05,0
2.4675,8.7282e-06,0
2.468,5.539e-06,0
2.4685,6.0426e-06,0
2.469,9.7353e-06,0
2.4695,9.2317e-06,0
2.47,6.5461e-06,0
2.4705,6.2104e-06,0
2.471,6.3783e-06,0
2.4715,6.3783e-06,0
2.472,5.8747e-06,0
2.4725,1.0575e-05,0
2.473,1.6617e-05,0
2.4735,1.8631e-05,0
2.474,1.8631e-05,0
2.4745,1.8967e-05,0
2.475,1.9974e-05,0
2.4755,2.0981e-05,0
2.476,2.3331e-05,0
2.4765,3.0549e-05,0
2.477,4.4144e-05,0
2.4775,5.5558e-05,0
2.478,5.6062e-05,0
2.4785,5.0858e-05,0
2.479,4.448e-05,0
2.4795,3.4409e-05,0
2.48,2.1317e-05,0
2.4805,1.326e-05,0
2.481,8.2246e-06,0
2.4815,5.2033e-06,0
2.482,6.3783e-06,0
2.4825,-7.8889e-06,0
2.483,-5.1362e-05,0
2.4835,-9.3492e-05,0
2.484,-0.00010809,0
2.4845,-0.00010675,0
2.485,-9.2821e-05,0
2.4855,-5.9587e-05,0
2.486,-1.9806e-05,0
2.4865,9.5674e-06,0
2.487,2.2995e-05,0
2.4875,2.6017e-05,0
2.488,2.1988e-05,0
2.4885,1.3596e-05,0
2.489,7.2175e-06,0
2.4895,7.8889e-06,0
2.49,1.2253e-05,0
2.4905,1.7624e-05,0
2.491,2.8031e-05,0
2.4915,4.1795e-05,0
2.492,5.1865e-05,0
2.4925,5.2201e-05,0
2.493,4.6494e-05,0
2.4935,4.1962e-05,0
2.494,4.1123e-05,0
2.4945,3.9277e-05,0
2.495,3.1052e-05,0
2.4955,2.1317e-05,0
2.496,2.0478e-05,0
2.4965,3.0381e-05,0
2.497,4.0284e-05,0
2.4975,4.2802e-05,0
2.498,4.1291e-05,0
2.4985,3.9445e-05,0
2.499,3.6423e-05,0
2.4995,3.1891e-05,0
2.5,2.7359e-05,0
2.5005,2.4842e-05,0
2.501,3.1052e-05,0
2.5015,4.2802e-05,0
2.502,5.0523e-05,0
2.5025,5.623e-05,0
2.503,6.3783e-05,0
2.5035,6.2944e-05,0
2.504,5.3544e-05,0
2.5045,4.3809e-05,0
2.505,3.5752e-05,0
2.5055,2.8031e-05,0
2.506,2.3163e-05,0
2.5065,2.6184e-05,0
2.507,2.6352e-05,0
2.5075,2.2324e-05,0
2.508,2.031e-05,0
2.5085,1.0407e-05,0
2.509,-4.6998e-06,0
2.5095,-8.392e-07,0
2.51,2.0478e-05,0
2.5105,4.3641e-05,0
2.511,6.0426e-05,0
2.5115,6.5629e-05,0
2.512,5.4887e-05,0
2.5125,2.887e-05,0
2.513,7.8889e-06,0
2.5135,8.2246e-06,0
2.514,1.9974e-05,0
2.5145,2.9206e-05,0
2.515,3.2059e-05,0
2.5155,1.8296e-05,0
2.516,-1.9303e-05,0
2.5165,-5.9251e-05,0
2.517,-7.7211e-05,0
2.5175,-7.57e-05,0
2.518,-6.6636e-05,0
2.5185,-5.1194e-05,0
2.519,-2.8702e-05,0
2.5195,-5.539e-06,0
2.52,1.1246e-05,0
2.5205,1.8967e-05,0
2.521,1.6953e-05,0
2.5215,1.1078e-05,0
2.522,6.2104e-06,0
2.5225,2.182e-06,0
2.523,-5.035e-07,0
2.5235,-1.8463e-06,0
2.524,-4.1962e-06,0
2.5245,-6.2104e-06,0
2.525,-6.2104e-06,0
2.5255,-3.1891e-06,0
2.526,1.1749e-06,0
2.5265,3.8605e-06,0
2.527,9.7353e-06,0
2.5275,1.8631e-05,0
2.528,2.2156e-05,0
2.5285,2.5009e-05,0
2.529,3.592e-05,0
2.5295,4.683e-05,0
2.53,5.1194e-05,0
2.5305,4.8676e-05,0
2.531,4.448e-05,0
2.5315,3.7934e-05,0
2.532,2.4002e-05,0
2.5325,9.2317e-06,0
2.533,4.5319e-06,0
2.5335,1.9974e-05,0
2.534,4.7501e-05,0
2.5345,6.5629e-05,0
2.535,6.865e-05,0
2.5355,6.2944e-05,0
2.536,5.3208e-05,0
2.5365,4.683e-05,0
2.537,4.7837e-05,0
2.5375,5.1362e-05,0
2.538,5.5558e-05,0
2.5385,5.3544e-05,0
2.539,3.8773e-05,0
2.5395,2.0981e-05,0
2.54,1.9135e-05,0
2.5405,3.1724e-05,0
2.541,4.2802e-05,0
2.5415,4.3305e-05,0
2.542,3.6088e-05,0
2.5425,2.7695e-05,0
2.543,2.2324e-05,0
2.5435,2.1149e-05,0
2.544,2.4674e-05,0
2.5445,3.2731e-05,0
2.545,4.0452e-05,0
2.5455,4.0452e-05,0
2.546,3.2059e-05,0
2.5465,2.5345e-05,0
2.547,2.4842e-05,0
2.5475,2.6017e-05,0
2.548,2.5345e-05,0
2.5485,2.1149e-05,0
2.549,1.5946e-05,0
2.5495,1.1917e-05,0
2.55,8.3925e-06,0
2.5505,5.2033e-06,0
2.551,2.182e-06,0
2.5515,-8.392e-07,0
2.552,-1.5106e-06,0
2.5525,-3.5248e-06,0
2.553,-9.3996e-06,0
2.5535,-2.031e-05,0
2.554,-2.8367e-05,0
2.5545,-2.4002e-05,0
2.555,-1.561e-05,0
2.5555,-1.5274e-05,0
2.556,-1.5442e-05,0
2.5565,-9.2317e-06,0
2.557,2.3499e-06,0
2.5575,1.2924e-05,0
2.558,1.4939e-05,0
2.5585,1.1246e-05,0
2.559,1.0239e-05,0
2.5595,1.6953e-05,0
2.56,2.4002e-05,0
2.5605,2.266e-05,0
2.561,1.4603e-05,0
2.5615,1.1414e-05,0
2.562,2.5345e-05,0
2.5625,4.9348e-05,0
2.563,6.63e-05,0
2.5635,7.2343e-05,0
2.564,7.1839e-05,0
2.5645,6.6468e-05,0
2.565,6.6972e-05,0
2.5655,7.1672e-05,0
2.566,7.0664e-05,0
2.5665,6.7643e-05,0
2.567,6.3279e-05,0
2.5675,4.9515e-05,0
2.568,3.1388e-05,0
2.5685,2.6352e-05,0
2.569,3.3402e-05,0
2.5695,3.7095e-05,0
2.57,2.8367e-05,0
2.5705,1.0575e-05,0
2.571,-1.2589e-05,0
2.5715,-3.3738e-05,0
2.572,-3.7766e-05,0
2.5725,-2.6017e-05,0
2.573,-1.0239e-05,0
2.5735,-1.0071e-06,0
2.574,-2.8534e-06,0
2.5745,-1.8967e-05,0
2.575,-4.7837e-05,0
2.5755,-6.865e-05,0
2.576,-6.63e-05,0
2.5765,-5.0187e-05,0
2.577,-3.6927e-05,0
2.5775,-2.5345e-05,0
2.578,-1.2757e-05,0
2.5785,6.714e-07,0
2.579,1.1917e-05,0
2.5795,1.8967e-05,0
2.58,2.0478e-05,0
2.5805,2.0142e-05,0
2.581,2.4338e-05,0
2.5815,3.8605e-05,0
2.582,6.2272e-05,0
2.5825,8.51e-05,0
2.583,9.5842e-05,0
2.5835,9.5171e-05,0
2.584,9.2149e-05,0
2.5845,9.0806e-05,0
2.585,8.8121e-05,0
2.5855,7.9057e-05,0
2.586,6.3615e-05,0
2.5865,4.8173e-05,0
2.587,3.8605e-05,0
2.5875,3.0716e-05,0
2.588,2.3163e-05,0
2.5885,1.5778e-05,0
2.589,1.0071e-05,0
2.5895,8.3925e-06,0
2.59,8.2246e-06,0
2.5905,9.9031e-06,0
2.591,1.0575e-05,0
2.5915,1.1246e-05,0
2.592,1.5106e-05,0
2.5925,1.8463e-05,0
2.593,1.326e-05,0
2.5935,3.0213e-06,0
2.594,-8.392e-07,0
2.5945,5.2033e-06,0
2.595,1.3932e-05,0
2.5955,1.8128e-05,0
2.596,1.3092e-05,0
2.5965,-8.392e-07,0
2.597,-1.1582e-05,0
2.5975,-1.8296e-05,0
2.598,-2.0981e-05,0
2.5985,-1.4603e-05,0
2.599,1.3428e-06,0
2.5995,1.6449e-05,0
2.6,2.1317e-05,0
2.6005,2.031e-05,0
2.601,2.2156e-05,0
2.6015,2.5849e-05,0
2.602,3.0381e-05,0
2.6025,3.4073e-05,0
2.603,3.7766e-05,0
2.6035,4.5991e-05,0
2.604,5.4551e-05,0
2.6045,5.1362e-05,0
2.605,3.6088e-05,0
2.6055,2.1317e-05,0
2.606,1.2924e-05,0
2.6065,1.2589e-05,0
2.607,2.266e-05,0
2.6075,3.9109e-05,0
2.608,5.1865e-05,0
2.6085,5.4887e-05,0
2.609,4.8173e-05,0
2.6095,3.6088e-05,0
2.61,2.6688e-05,0
2.6105,2.0646e-05,0
2.611,1.4939e-05,0
2.6115,1.1917e-05,0
2.612,1.4435e-05,0
2.6125,1.0239e-05,0
2.613,-1.561e-05,0
2.6135,-4.5151e-05,0
2.614,-5.1194e-05,0
2.6145,-3.3402e-05,0
2.615,-1.1078e-05,0
2.6155,-2.182e-06,0
2.616,-1.091e-05,0
2.6165,-2.1988e-05,0
2.617,-2.2324e-05,0
2.6175,-1.6617e-05,0
2.618,-1.4603e-05,0
2.6185,-1.3596e-05,0
2.619,-6.8818e-06,0
2.6195,1.8463e-06,0
2.62,-8.2246e-06,0
2.6205,-2.6352e-05,0
2.621,-2.4674e-05,0
2.6215,-6.5461e-06,0
2.622,7.7211e-06,0
2.6225,1.9806e-05,0
2.623,3.3738e-05,0
2.6235,4.6326e-05,0
2.624,5.6565e-05,0
2.6245,6.4286e-05,0
2.625,6.5965e-05,0
2.6255,5.8915e-05,0
2.626,4.2634e-05,0
2.6265,2.1317e-05,0
2.627,3.357e-07,0
2.6275,-2.031e-05,0
2.628,-4.5487e-05,0
2.6285,-6.865e-05,0
2.629,-7.4525e-05,0
2.6295,-5.8747e-05,0
2.63,-3.6423e-05,0
2.6305,-2.5009e-05,0
2.631,-2.3331e-05,0
2.6315,-1.0407e-05,0
2.632,2.0813e-05,0
2.6325,5.153e-05,0
2.633,5.8915e-05,0
2.6335,5.0187e-05,0
2.634,4.9851e-05,0
2.6345,6.7308e-05,0
2.635,8.4764e-05,0
2.6355,9.3828e-05,0
2.636,9.6849e-05,0
2.6365,9.3156e-05,0
2.637,8.7617e-05,0
2.6375,7.8721e-05,0
2.638,6.3615e-05,0
2.6385,5.1194e-05,0
2.639,4.2466e-05,0
2.6395,3.4409e-05,0
2.64,2.7024e-05,0
2.6405,2.1317e-05,0
2.641,1.4603e-05,0
2.6415,5.0355e-06,0
2.642,3.1891e-06,0
2.6425,9.2317e-06,0
2.643,1.6785e-05,0
2.6435,2.0981e-05,0
2.644,2.0981e-05,0
2.6445,2.6688e-05,0
2.645,3.2059e-05,0
2.6455,2.1988e-05,0
2.646,5.8747e-06,0
2.6465,8.7282e-06,0
2.647,2.6688e-05,0
2.6475,4.5487e-05,0
2.648,5.7572e-05,0
2.6485,6.2104e-05,0
2.649,5.774e-05,0
2.6495,4.8676e-05,0
2.65,4.3809e-05,0
2.6505,4.0787e-05,0
2.651,4.0116e-05,0
2.6515,4.4816e-05,0
2.652,4.4648e-05,0
2.6525,2.5177e-05,0
2.653,-6.5461e-06,0
2.6535,-3.0045e-05,0
2.654,-4.2466e-05,0
2.6545,-5.3208e-05,0
2.655,-5.9922e-05,0
2.6555,-5.2201e-05,0
2.656,-3.8102e-05,0
2.6565,-2.7527e-05,0
2.657,-1.2924e-05,0
2.6575,9.9031e-06,0
2.658,3.4745e-05,0
2.6585,5.4215e-05,0
2.659,6.7811e-05,0
2.6595,7.2343e-05,0
2.66,7.2679e-05,0
2.6605,7.2007e-05,0
2.661,6.5797e-05,0
2.6615,4.9348e-05,0
2.662,3.2395e-05,0
2.6625,2.4002e-05,0
2.663,2.2324e-05,0
2.6635,1.1582e-05,0
2.664,-9.9031e-06,0
2.6645,-2.4506e-05,0
2.665,-2.1653e-05,0
2.6655,-9.2317e-06,0
2.666,1.678e-07,0
2.6665,3.8605e-06,0
2.667,2.8534e-06,0
2.6675,1.0071e-06,0
2.668,1.5106e-06,0
2.6685,2.8534e-06,0
2.669,5.539e-06,0
2.6695,1.2757e-05,0
2.67,2.3499e-05,0
2.6705,3.2731e-05,0
2.671,3.8437e-05,0
2.6715,4.8005e-05,0
2.672,5.9419e-05,0
2.6725,6.7979e-05,0
2.673,7.5029e-05,0
2.6735,8.2078e-05,0
2.674,8.275e-05,0
2.6745,7.2343e-05,0
2.675,5.9587e-05,0
2.6755,5.5222e-05,0
2.676,5.623e-05,0
2.6765,5.623e-05,0
2.677,5.1194e-05,0
2.6775,3.9612e-05,0
2.678,2.4842e-05,0
2.6785,1.326e-05,0
2.679,8.7282e-06,0
2.6795,6.3783e-06,0
2.68,2.5177e-06,0
2.6805,-8.392e-07,0
2.681,-2.8534e-06,0
2.6815,-1.8463e-06,0
2.682,1.8463e-06,0
2.6825,5.7069e-06,0
2.683,1.0575e-05,0
2.6835,1.4267e-05,0
2.684,1.5442e-05,0
2.6845,1.6449e-05,0
2.685,1.5946e-05,0
2.6855,1.4603e-05,0
2.686,1.4939e-05,0
2.6865,1.561e-05,0
2.687,1.6617e-05,0
2.6875,1.8631e-05,0
2.688,1.9806e-05,0
2.6885,1.7792e-05,0
2.689,1.4603e-05,0
2.6895,1.326e-05,0
2.69,1.7288e-05,0
2.6905,2.5009e-05,0
2.691,2.5345e-05,0
2.6915,1.7121e-05,0
2.692,6.8818e-06,0
2.6925,7.0497e-06,0
2.693,1.8296e-05,0
2.6935,2.8702e-05,0
2.694,3.0884e-05,0
2.6945,2.7192e-05,0
2.695,2.3331e-05,0
2.6955,2.1653e-05,0
2.696,1.561e-05,0
2.6965,3.8605e-06,0
2.697,-1.0575e-05,0
2.6975,-2.7527e-05,0
2.698,-4.1962e-05,0
2.6985,-4.9348e-05,0
2.699,-4.448e-05,0
2.6995,-2.652e-05,0
2.7,-6.3783e-06,0
2.7005,1.1917e-05,0
2.701,3.6423e-05,0
2.7015,6.0594e-05,0
2.702,6.4286e-05,0
2.7025,3.6423e-05,0
2.703,-2.0142e-06,0
2.7035,-1.8967e-05,0
2.704,-7.2175e-06,0
2.7045,1.7288e-05,0
2.705,3.7934e-05,0
2.7055,4.8173e-05,0
2.706,4.918e-05,0
2.7065,4.1627e-05,0
2.707,2.6184e-05,0
2.7075,8.5603e-06,0
2.708,-3.1891e-06,0
2.7085,1.1749e-06,0
2.709,2.182e-05,0
2.7095,4.0787e-05,0
2.71,4.683e-05,0
2.7105,3.978e-05,0
2.711,2.8534e-05,0
2.7115,2.182e-05,0
2.712,1.8296e-05,0
2.7125,2.0981e-05,0
2.713,2.9374e-05,0
2.7135,3.2227e-05,0
2.714,2.6017e-05,0
2.7145,2.2492e-05,0
2.715,2.1317e-05,0
2.7155,1.9638e-05,0
2.716,2.8031e-05,0
2.7165,5.1362e-05,0
2.717,7.7714e-05,0
2.7175,9.2317e-05,0
2.718,9.4499e-05,0
2.7185,9.0135e-05,0
2.719,8.2078e-05,0
2.7195,7.0832e-05,0
2.72,5.8412e-05,0
2.7205,3.743e-05,0
2.721,-1.1749e-06,0
2.7215,-4.9851e-05,0
2.722,-8.8289e-05,0
2.7225,-9.7856e-05,0
2.723,-7.6371e-05,0
2.7235,-3.2731e-05,0
2.724,3.6927e-06,0
2.7245,2.1317e-05,0
2.725,2.7024e-05,0
2.7255,2.4506e-05,0
2.726,1.9638e-05,0
2.7265,1.5946e-05,0
2.727,7.7211e-06,0
2.7275,-1.0239e-05,0
2.728,-2.0981e-05,0
2.7285,-1.8967e-05,0
2.729,-2.0478e-05,0
2.7295,-3.2731e-05,0
2.73,-5.388e-05,0
2.7305,-6.7308e-05,0
2.731,-5.6062e-05,0
2.7315,-1.796e-05,0
2.732,2.4506e-05,0
2.7325,5.0858e-05,0
2.733,5.9922e-05,0
2.7335,5.623e-05,0
2.734,4.8005e-05,0
2.7345,4.3137e-05,0
2.735,4.0787e-05,0
2.7355,3.4073e-05,0
2.736,2.8031e-05,0
2.7365,2.8702e-05,0
2.737,3.0213e-05,0
2.7375,2.5345e-05,0
2.738,1.7792e-05,0
2.7385,1.4603e-05,0
2.739,1.4939e-05,0
2.7395,1.7288e-05,0
2.74,1.9974e-05,0
2.7405,2.4002e-05,0
2.741,3.2395e-05,0
2.7415,3.9445e-05,0
2.742,3.9445e-05,0
2.7425,3.2898e-05,0
2.743,2.5345e-05,0
2.7435,2.4338e-05,0
2.744,2.9709e-05,0
2.7445,4.1459e-05,0
2.745,5.2537e-05,0
2.7455,5.6062e-05,0
2.746,6.0258e-05,0
2.7465,6.7643e-05,0
2.747,7.0497e-05,0
2.7475,6.4286e-05,0
2.748,5.3208e-05,0
2.7485,4.2802e-05,0
2.749,3.4409e-05,0
2.7495,2.5009e-05,0
2.75,1.796e-05,0
2.7505,1.561e-05,0
2.751,1.5946e-05,0
2.7515,1.4939e-05,0
2.752,1.3764e-05,0
2.7525,1.2589e-05,0
2.753,8.0568e-06,0
2.7535,4.1962e-06,0
2.754,8.5603e-06,0
2.7545,1.6617e-05,0
2.755,2.0646e-05,0
2.7555,1.947e-05,0
2.756,1.9974e-05,0
2.7565,1.7792e-05,0
2.757,7.5532e-06,0
2.7575,-2.3499e-06,0
2.758,-1.0239e-05,0
2.7585,-2.1988e-05,0
2.759,-3.0045e-05,0
2.7595,-2.5345e-05,0
2.76,-1.4939e-05,0
2.7605,-4.3641e-06,0
2.761,1.2421e-05,0
2.7615,3.8102e-05,0
2.762,6.2608e-05,0
2.7625,7.335e-05,0
2.763,6.5293e-05,0
2.7635,5.3376e-05,0
2.764,5.5894e-05,0
2.7645,7.3014e-05,0
2.765,8.9632e-05,0
2.7655,9.9031e-05,0
2.766,0.00010306,0
2.7665,9.7185e-05,0
2.767,7.6707e-05,0
2.7675,4.2466e-05,0
2.768,6.8818e-06,0
2.7685,-1.5442e-05,0
2.769,-2.4674e-05,0
2.7695,-3.4745e-05,0
2.77,-5.0858e-05,0
2.7705,-6.9993e-05,0
2.771,-8.5435e-05,0
2.7715,-8.8792e-05,0
2.772,-8.0064e-05,0
2.7725,-6.0594e-05,0
2.773,-3.8941e-05,0
2.7735,-2.1653e-05,0
2.774,-9.2317e-06,0
2.7745,-1.5106e-06,0
2.775,2.5177e-06,0
2.7755,1.678e-07,0
2.776,-8.2246e-06,0
2.7765,-1.4603e-05,0
2.777,-1.1582e-05,0
2.7775,1.678e-07,0
2.778,9.2317e-06,0
2.7785,3.1891e-06,0
2.779,-9.0639e-06,0
2.7795,-9.5674e-06,0
2.78,2.8534e-06,0
2.7805,1.6617e-05,0
2.781,2.4674e-05,0
2.7815,3.6088e-05,0
2.782,5.7908e-05,0
2.7825,7.4861e-05,0
2.783,7.9728e-05,0
2.7835,7.8386e-05,0
2.784,6.8315e-05,0
2.7845,5.623e-05,0
2.785,4.9515e-05,0
2.7855,4.7669e-05,0
2.786,5.0187e-05,0
2.7865,5.8579e-05,0
2.787,6.63e-05,0
2.7875,6.4958e-05,0
2.788,4.6326e-05,0
2.7885,2.1149e-05,0
2.789,8.392e-07,0
2.7895,-1.0742e-05,0
2.79,-2.031e-05,0
2.7905,-3.508e-05,0
2.791,-5.4551e-05,0
2.7915,-7.0161e-05,0
2.792,-6.9993e-05,0
2.7925,-5.6901e-05,0
2.793,-4.3305e-05,0
2.7935,-3.7766e-05,0
2.794,-3.6255e-05,0
2.7945,-2.2156e-05,0
2.795,9.2317e-06,0
2.7955,4.0284e-05,0
2.796,6.0929e-05,0
2.7965,7.3686e-05,0
2.797,8.0903e-05,0
2.7975,7.9057e-05,0
2.798,6.1601e-05,0
2.7985,3.9445e-05,0
2.799,3.1724e-05,0
2.7995,4.2802e-05,0
2.8,5.0858e-05,0
2.8005,3.2059e-05,0
2.801,7.7211e-06,0
2.8015,8.3925e-06,0
2.802,2.8702e-05,0
2.8025,4.683e-05,0
2.803,5.304e-05,0
2.8035,5.3544e-05,0
2.804,5.8244e-05,0
2.8045,6.0594e-05,0
2.805,5.4719e-05,0
2.8055,4.5487e-05,0
2.806,3.5752e-05,0
2.8065,3.2563e-05,0
2.807,3.827e-05,0
2.8075,4.2802e-05,0
2.808,3.978e-05,0
2.8085,2.6856e-05,0
2.809,1.4939e-05,0
2.8095,1.4603e-05,0
2.81,2.8031e-05,0
2.8105,4.5991e-05,0
2.811,5.623e-05,0
2.8115,6.0929e-05,0
2.812,6.7643e-05,0
2.8125,7.6371e-05,0
2.813,8.1071e-05,0
2.8135,7.9057e-05,0
2.814,6.7979e-05,0
2.8145,5.4048e-05,0
2.815,4.4144e-05,0
2.8155,3.6759e-05,0
2.816,2.9206e-05,0
2.8165,2.1988e-05,0
2.817,1.0239e-05,0
2.8175,-4.3641e-06,0
2.818,-1.2253e-05,0
2.8185,-1.2421e-05,0
2.819,-1.1414e-05,0
2.8195,-9.5674e-06,0
2.82,-9.3996e-06,0
2.8205,-9.5674e-06,0
2.821,-3.1891e-06,0
2.8215,4.6998e-06,0
2.822,9.2317e-06,0
2.8225,1.0575e-05,0
2.823,1.3596e-05,0
2.8235,1.4939e-05,0
2.824,1.3092e-05,0
2.8245,8.896e-06,0
2.825,2.6856e-06,0
2.8255,-7.2175e-06,0
2.826,-1.8967e-05,0
2.8265,-3.3906e-05,0
2.827,-4.9012e-05,0
2.8275,-5.9754e-05,0
2.828,-6.8315e-05,0
2.8285,-7.1336e-05,0
2.829,-5.7908e-05,0
2.8295,-3.508e-05,0
2.83,-1.5778e-05,0
2.8305,-5.035e-07,0
2.831,9.2317e-06,0
2.8315,6.8818e-06,0
2.832,-1.3428e-05,0
2.8325,-3.978e-05,0
2.833,-4.0787e-05,0
2.8335,-1.1582e-05,0
2.834,2.9038e-05,0
2.8345,6.5629e-05,0
2.835,8.5771e-05,0
2.8355,9.0471e-05,0
2.836,8.4764e-05,0
2.8365,7.4357e-05,0
2.837,6.6972e-05,0
2.8375,6.9657e-05,0
2.838,7.2343e-05,0
2.8385,6.7475e-05,0
2.839,6.1936e-05,0
2.8395,6.2272e-05,0
2.84,6.1265e-05,0
2.8405,4.7669e-05,0
2.841,2.5345e-05,0
2.8415,9.9031e-06,0
2.842,6.714e-06,0
2.8425,7.0497e-06,0
2.843,3.357e-06,0
2.8435,1.678e-07,0
2.844,1.1749e-06,0
2.8445,5.2033e-06,0
2.845,1.0239e-05,0
2.8455,1.5274e-05,0
2.846,2.1317e-05,0
2.8465,2.7359e-05,0
2.847,2.5177e-05,0
2.8475,1.4603e-05,0
2.848,7.2175e-06,0
2.8485,7.8889e-06,0
2.849,1.1917e-05,0
2.8495,1.5946e-05,0
2.85,1.8296e-05,0
2.8505,1.4939e-05,0
2.851,5.2033e-06,0
2.8515,-8.2246e-06,0
2.852,-1.7288e-05,0
2.8525,-1.9974e-05,0
2.853,-1.6953e-05,0
2.8535,-1.3428e-06,0
2.854,2.2995e-05,0
2.8545,3.8605e-05,0
2.855,4.1962e-05,0
2.8555,3.8773e-05,0
2.856,3.4745e-05,0
2.8565,3.2731e-05,0
2.857,2.9038e-05,0
2.8575,1.9974e-05,0
2.858,1.0407e-05,0
2.8585,1.1414e-05,0
2.859,1.6449e-05,0
2.8595,2.5177e-06,0
2.86,-3.1052e-05,0
2.8605,-6.2104e-05,0
2.861,-7.2679e-05,0
2.8615,-6.7979e-05,0
2.862,-5.7572e-05,0
2.8625,-3.9109e-05,0
2.863,-1.1078e-05,0
2.8635,1.9303e-05,0
2.864,3.8773e-05,0
2.8645,4.5487e-05,0
2.865,5.3208e-05,0
2.8655,6.4286e-05,0
2.866,6.1601e-05,0
2.8665,3.7598e-05,0
2.867,1.326e-05,0
2.8675,1.1414e-05,0
2.868,3.9277e-05,0
2.8685,8.3925e-05,0
2.869,0.00011313,0
2.8695,0.00011934,0
2.87,0.00011498,0
2.8705,0.00010054,0
2.871,8.3421e-05,0
2.8715,6.949e-05,0
2.872,4.918e-05,0
2.8725,2.1988e-05,0
2.873,5.035e-07,0
2.8735,-4.8676e-06,0
2.874,8.5603e-06,0
2.8745,3.3234e-05,0
2.875,4.2802e-05,0
2.8755,3.3066e-05,0
2.876,2.0142e-05,0
2.8765,1.3092e-05,0
2.877,9.9031e-06,0
2.8775,1.1078e-05,0
2.878,2.266e-05,0
2.8785,4.7166e-05,0
2.879,6.1601e-05,0
2.8795,4.6494e-05,0
2.88,1.796e-05,0
2.8805,-1.3092e-05,0
2.881,-3.592e-05,0
2.8815,-3.7095e-05,0
2.882,-1.561e-05,0
2.8825,1.6449e-05,0
2.883,4.6494e-05,0
2.8835,6.9657e-05,0
2.884,7.7378e-05,0
2.8845,6.0761e-05,0
2.885,1.8631e-05,0
2.8855,-1.3932e-05,0
2.886,-1.6785e-05,0
2.8865,-8.896e-06,0
2.887,-1.6281e-05,0
2.8875,-3.2395e-05,0
2.888,-3.592e-05,0
2.8885,-2.1149e-05,0
2.889,-5.0355e-06,0
2.8895,0,0
2.89,-1.0071e-06,0
2.8905,-1.1749e-06,0
2.891,8.392e-07,0
2.8915,3.1891e-06,0
2.892,5.8747e-06,0
2.8925,1.9974e-05,0
2.893,5.0187e-05,0
2.8935,8.51e-05,0
2.894,0.0001086,0
2.8945,0.00011431,0
2.895,0.0001086,0
2.8955,0.00010021,0
2.896,8.9464e-05,0
2.8965,7.7714e-05,0
2.897,6.7811e-05,0
2.8975,5.8915e-05,0
2.898,4.7837e-05,0
2.8985,3.5248e-05,0
2.899,2.3163e-05,0
2.8995,1.3932e-05,0
2.9,9.7353e-06,0
2.9005,9.5674e-06,0
2.901,6.3783e-06,0
2.9015,1.8463e-06,0
2.902,-2.3499e-06,0
2.9025,-4.5319e-06,0
2.903,-5.539e-06,0
2.9035,-9.2317e-06,0
2.904,-1.2253e-05,0
2.9045,-8.896e-06,0
2.905,-5.2033e-06,0
2.9055,-6.2104e-06,0
2.906,-6.3783e-06,0
2.9065,-6.714e-06,0
2.907,-1.0575e-05,0
2.9075,-2.0813e-05,0
2.908,-3.2227e-05,0
2.9085,-3.4745e-05,0
2.909,-2.652e-05,0
2.9095,-1.2924e-05,0
2.91,-4.5319e-06,0
2.9105,-5.539e-06,0
2.911,-8.2246e-06,0
2.9115,-1.8463e-06,0
2.912,1.2421e-05,0
2.9125,2.2156e-05,0
2.913,2.0478e-05,0
2.9135,1.0575e-05,0
2.914,1.0071e-06,0
2.9145,-4.6998e-06,0
2.915,-4.0284e-06,0
2.9155,6.0426e-06,0
2.916,1.6281e-05,0
2.9165,1.9638e-05,0
2.917,1.8967e-05,0
2.9175,1.796e-05,0
2.918,1.6281e-05,0
2.9185,1.7121e-05,0
2.919,1.8631e-05,0
2.9195,1.8967e-05,0
2.92,2.1988e-05,0
2.9205,2.4674e-05,0
2.921,2.8031e-05,0
2.9215,3.4409e-05,0
2.922,4.2802e-05,0
2.9225,4.9348e-05,0
2.923,4.7166e-05,0
2.9235,3.8773e-05,0
2.924,2.9038e-05,0
2.9245,1.6953e-05,0
2.925,3.8605e-06,0
2.9255,-7.2175e-06,0
2.926,-1.0575e-05,0
2.9265,-5.7069e-06,0
2.927,1.678e-07,0
2.9275,1.0071e-06,0
2.928,-3.0213e-06,0
2.9285,-7.0497e-06,0
2.929,-4.8676e-06,0
2.9295,1.0575e-05,0
2.93,3.0213e-05,0
2.9305,4.448e-05,0
2.931,4.9515e-05,0
2.9315,4.8173e-05,0
2.932,4.1123e-05,0
2.9325,2.6688e-05,0
2.933,1.6617e-05,0
2.9335,1.9974e-05,0
2.934,3.1388e-05,0
2.9345,4.3809e-05,0
2.935,5.069e-05,0
2.9355,4.6326e-05,0
2.936,3.4745e-05,0
2.9365,2.6352e-05,0
2.937,2.1317e-05,0
2.9375,1.7792e-05,0
2.938,1.8799e-05,0
2.9385,2.1988e-05,0
2.939,2.2324e-05,0
2.9395,1.7121e-05,0
2.94,1.1078e-05,0
2.9405,6.2104e-06,0
2.941,-4.5319e-06,0
2.9415,-1.6617e-05,0
2.942,-2.1653e-05,0
2.9425,-2.0478e-05,0
2.943,-1.6449e-05,0
2.9435,-2.5177e-06,0
2.944,2.5177e-05,0
2.9445,5.5222e-05,0
2.945,7.1e-05,0
2.9455,7.1672e-05,0
2.946,6.7811e-05,0
2.9465,6.1601e-05,0
2.947,5.4215e-05,0
2.9475,5.0019e-05,0
2.948,5.0858e-05,0
2.9485,5.1865e-05,0
2.949,4.7166e-05,0
2.9495,3.8773e-05,0
2.95,3.5416e-05,0
2.9505,4.0955e-05,0
2.951,5.1194e-05,0
2.9515,5.8915e-05,0
2.952,5.623e-05,0
2.9525,4.4648e-05,0
2.953,3.743e-05,0
2.9535,3.9445e-05,0
2.954,4.2802e-05,0
2.9545,4.3809e-05,0
2.955,4.3641e-05,0
2.9555,4.4816e-05,0
2.956,4.7166e-05,0
2.9565,4.5487e-05,0
2.957,3.6423e-05,0
2.9575,2.0646e-05,0
2.958,1.1749e-06,0
2.9585,-1.8631e-05,0
2.959,-3.5416e-05,0
2.9595,-4.8508e-05,0
2.96,-5.539e-05,0
2.9605,-5.8915e-05,0
2.961,-6.3615e-05,0
2.9615,-6.244e-05,0
2.962,-5.0355e-05,0
2.9625,-2.9374e-05,0
2.963,-4.3641e-06,0
2.9635,2.5177e-05,0
2.964,5.1865e-05,0
2.9645,5.7404e-05,0
2.965,4.1459e-05,0
2.9655,2.5009e-05,0
2.966,2.5681e-05,0
2.9665,3.3738e-05,0
2.967,3.1052e-05,0
2.9675,1.8463e-05,0
2.968,3.1891e-06,0
2.9685,-5.539e-06,0
2.969,-8.3925e-06,0
2.9695,-1.4267e-05,0
2.97,-1.9303e-05,0
2.9705,-1.091e-05,0
2.971,3.1891e-06,0
2.9715,1.3932e-05,0
2.972,2.182e-05,0
2.9725,3.2059e-05,0
2.973,4.8173e-05,0
2.9735,6.1601e-05,0
2.974,6.0258e-05,0
2.9745,5.4383e-05,0
2.975,6.2944e-05,0
2.9755,8.426e-05,0
2.976,9.5842e-05,0
2.9765,8.5771e-05,0
2.977,6.479e-05,0
2.9775,4.5487e-05,0
2.978,2.8031e-05,0
2.9785,9.2317e-06,0
2.979,-5.539e-06,0
2.9795,-9.2317e-06,0
2.98,-3.6927e-06,0
2.9805,5.8747e-06,0
2.981,1.2253e-05,0
2.9815,1.2589e-05,0
2.982,9.3996e-06,0
2.9825,-1.3428e-06,0
2.983,-2.1317e-05,0
2.9835,-3.357e-05,0
2.984,-2.9709e-05,0
2.9845,-2.1317e-05,0
2.985,-1.3596e-05,0
2.9855,-8.3925e-06,0
2.986,-4.5319e-06,0
2.9865,-1.8463e-06,0
2.987,2.182e-06,0
2.9875,6.5461e-06,0
2.988,1.1078e-05,0
2.9885,1.5274e-05,0
2.989,1.947e-05,0
2.9895,2.3835e-05,0
2.99,2.5345e-05,0
2.9905,2.6017e-05,0
2.991,2.6017e-05,0
2.9915,2.4338e-05,0
2.992,1.6953e-05,0
2.9925,5.2033e-06,0
2.993,-2.0142e-06,0
2.9935,-1.0071e-06,0
2.994,1.8463e-06,0
2.9945,2.8534e-06,0
2.995,7.0497e-06,0
2.9955,1.8967e-05,0
2.996,3.5416e-05,0
2.9965,4.1123e-05,0
2.997,2.652e-05,0
2.9975,1.1749e-06,0
2.998,-1.6785e-05,0
2.9985,-1.6449e-05,0
2.999,-6.3783e-06,0
2.9995,-1.678e-07,0
3,5.2033e-06,0
3.0005,1.796e-05,0
3.001,3.9445e-05,0
3.0015,5.7237e-05,0
3.002,5.4887e-05,0
3.0025,4.2634e-05,0
3.003,4.1962e-05,0
3.0035,4.8173e-05,0
3.004,5.6901e-05,0
3.0045,6.9657e-05,0
3.005,7.6036e-05,0
3.0055,6.4286e-05,0
3.006,3.7262e-05,0
3.0065,7.8889e-06,0
3.007,-7.5532e-06,0
3.0075,-9.3996e-06,0
3.008,-7.5532e-06,0
3.0085,-8.5603e-06,0
3.009,-8.2246e-06,0
3.0095,7.0497e-06,0
3.01,2.7359e-05,0
3.0105,2.7192e-05,0
3.011,1.1917e-05,0
3.0115,5.0355e-06,0
3.012,1.9806e-05,0
3.0125,3.978e-05,0
3.013,4.448e-05,0
3.0135,3.1388e-05,0
3.014,7.5532e-06,0
3.0145,-1.091e-05,0
3.015,-1.5442e-05,0
3.0155,-1.5946e-05,0
3.016,-6.714e-06,0
3.0165,1.9303e-05,0
3.017,4.9012e-05,0
3.0175,6.5293e-05,0
3.018,7.6204e-05,0
3.0185,9.2317e-05,0
3.019,0.00010188,0
3.0195,8.4764e-05,0
3.02,4.3473e-05,0
3.0205,-3.8605e-06,0
3.021,-4.3809e-05,0
3.0215,-5.8244e-05,0
3.022,-4.1123e-05,0
3.0225,-1.2085e-05,0
3.023,8.3925e-06,0
3.0235,2.266e-05,0
3.024,4.3473e-05,0
3.0245,5.6062e-05,0
3.025,5.069e-05,0
3.0255,4.213e-05,0
3.026,4.1795e-05,0
3.0265,4.2634e-05,0
3.027,4.1962e-05,0
3.0275,4.8844e-05,0
3.028,6.4622e-05,0
3.0285,7.8386e-05,0
3.029,8.1743e-05,0
3.0295,6.7475e-05,0
3.03,3.0045e-05,0
3.0305,-1.1749e-05,0
3.031,-3.3066e-05,0
3.0315,-2.5681e-05,0
3.032,-6.714e-07,0
3.0325,2.6688e-05,0
3.033,4.3977e-05,0
3.0335,4.9348e-05,0
3.034,4.7333e-05,0
3.0345,4.1459e-05,0
3.035,3.0045e-05,0
3.0355,1.5778e-05,0
3.036,9.5674e-06,0
3.0365,1.4939e-05,0
3.037,1.6617e-05,0
3.0375,4.5319e-06,0
3.038,-1.1749e-05,0
3.0385,-2.1988e-05,0
3.039,-2.4338e-05,0
3.0395,-1.9638e-05,0
3.04,-1.5274e-05,0
3.0405,-1.3932e-05,0
3.041,-7.8889e-06,0
3.0415,8.392e-07,0
3.042,5.0355e-06,0
3.0425,9.5674e-06,0
3.043,1.7624e-05,0
3.0435,2.031e-05,0
3.044,1.5274e-05,0
3.0445,8.5603e-06,0
3.045,1.0071e-05,0
3.0455,2.4674e-05,0
3.046,4.1795e-05,0
3.0465,5.4215e-05,0
3.047,5.304e-05,0
3.0475,3.6255e-05,0
3.048,1.8463e-05,0
3.0485,1.1917e-05,0
3.049,8.896e-06,0
3.0495,4.3641e-06,0
3.05,-3.357e-07,0
3.0505,-3.0213e-06,0
3.051,-3.1891e-06,0
3.0515,-8.392e-07,0
3.052,-8.392e-07,0
3.0525,-5.2033e-06,0
3.053,-1.5106e-06,0
3.0535,1.1414e-05,0
3.054,2.1317e-05,0
3.0545,2.2995e-05,0
3.055,1.8631e-05,0
3.0555,1.1246e-05,0
3.056,7.2175e-06,0
3.0565,9.0639e-06,0
3.057,1.1582e-05,0
3.0575,1.0575e-05,0
3.058,9.3996e-06,0
3.0585,9.2317e-06,0
3.059,7.5532e-06,0
3.0595,-2.182e-06,0
3.06,-1.0407e-05,0
3.0605,-5.539e-06,0
3.061,-2.8534e-06,0
3.0615,-6.5461e-06,0
3.062,-7.2175e-06,0
3.0625,-2.182e-06,0
3.063,2.5177e-06,0
3.0635,1.6785e-06,0
3.064,-3.8605e-06,0
3.0645,-6.5461e-06,0
3.065,1.678e-07,0
3.0655,1.0575e-05,0
3.066,1.9303e-05,0
3.0665,2.3331e-05,0
3.067,2.266e-05,0
3.0675,2.0981e-05,0
3.068,1.8296e-05,0
3.0685,1.5778e-05,0
3.069,1.8296e-05,0
3.0695,2.7863e-05,0
3.07,4.0452e-05,0
3.0705,5.5222e-05,0
3.071,6.865e-05,0
3.0715,7.8386e-05,0
3.072,8.51e-05,0
3.0725,8.9128e-05,0
3.073,8.9632e-05,0
3.0735,8.275e-05,0
3.074,7.1839e-05,0
3.0745,6.6804e-05,0
3.075,6.7308e-05,0
3.0755,7.0832e-05,0
3.076,7.3182e-05,0
3.0765,7.1839e-05,0
3.077,6.714e-05,0
3.0775,6.1601e-05,0
3.078,5.7572e-05,0
3.0785,5.069e-05,0
3.079,3.3234e-05,0
3.0795,1.2085e-05,0
3.08,-5.3712e-06,0
3.0805,-2.0646e-05,0
3.081,-3.5752e-05,0
3.0815,-5.2201e-05,0
3.082,-6.1097e-05,0
3.0825,-5.7572e-05,0
3.083,-4.5487e-05,0
3.0835,-2.9709e-05,0
3.084,-1.4603e-05,0
3.0845,-4.1962e-06,0
3.085,9.5674e-06,0
3.0855,3.0045e-05,0
3.086,5.6733e-05,0
3.0865,7.7378e-05,0
3.087,7.9393e-05,0
3.0875,6.9657e-05,0
3.088,6.479e-05,0
3.0885,5.8915e-05,0
3.089,3.8437e-05,0
3.0895,9.9031e-06,0
3.09,-7.0497e-06,0
3.0905,-3.8605e-06,0
3.091,6.3783e-06,0
3.0915,2.4338e-05,0
3.092,5.0858e-05,0
3.0925,6.5965e-05,0
3.093,6.1769e-05,0
3.0935,4.6159e-05,0
3.094,2.9877e-05,0
3.0945,1.8631e-05,0
3.095,8.2246e-06,0
3.0955,-4.8676e-06,0
3.096,-1.2924e-05,0
3.0965,-1.091e-05,0
3.097,-6.8818e-06,0
3.0975,-1.1246e-05,0
3.098,-2.9709e-05,0
3.0985,-5.1026e-05,0
3.099,-5.2872e-05,0
3.0995,-3.4745e-05,0
