0,0,0
0.0005,0,0
0.001,0,0
0.0015,0,0
0.002,0,0
0.0025,0,0
0.003,0,0
0.0035,0,0
0.004,0,0
0.0045,0,0
0.005,0,0
0.0055,0,0
0.006,0,0
0.0065,0,0
0.007,0,0
0.0075,0,0
0.008,0,0
0.0085,0,0
0.009,0,0
0.0095,0,0
0.01,0,0
0.0105,0,0
0.011,0,0
0.0115,0,0
0.012,0,0
0.0125,0,0
0.013,0,0
0.0135,0,0
0.014,0,0
0.0145,0,0
0.015,0,0
0.0155,0,0
0.016,0,0
0.0165,0,0
0.017,0,0
0.0175,0,0
0.018,0,0
0.0185,0,0
0.019,0,0
0.0195,0,0
0.02,0,0
0.0205,0,0
0.021,0,0
0.0215,0,0
0.022,0,0
0.0225,0,0
0.023,0,0
0.0235,0,0
0.024,0,0
0.0245,0,0
0.025,0,0
0.0255,0,0
0.026,2.3667e-05,0
0.0265,2.3667e-05,0
0.027,2.1317e-05,0
0.0275,1.9638e-05,0
0.028,1.5778e-05,0
0.0285,1.1078e-05,0
0.029,9.9031e-06,0
0.0295,1.2421e-05,0
0.03,1.4603e-05,0
0.0305,1.6617e-05,0
0.031,1.9638e-05,0
0.0315,2.182e-05,0
0.032,2.1149e-05,0
0.0325,2.1317e-05,0
0.033,2.3667e-05,0
0.0335,2.3667e-05,0
0.034,2.1317e-05,0
0.0345,1.9806e-05,0
0.035,2.0142e-05,0
0.0355,2.2324e-05,0
0.036,2.3835e-05,0
0.0365,2.4674e-05,0
0.037,2.1988e-05,0
0.0375,1.8463e-05,0
0.038,1.561e-05,0
0.0385,1.6617e-05,0
0.039,1.9303e-05,0
0.0395,2.0142e-05,0
0.04,1.8631e-05,0
0.0405,1.7288e-05,0
0.041,1.7624e-05,0
0.0415,1.7121e-05,0
0.042,1.6953e-05,0
0.0425,1.8631e-05,0
0.043,1.9135e-05,0
0.0435,1.7121e-05,0
0.044,1.5106e-05,0
0.0445,1.5274e-05,0
0.045,1.6449e-05,0
0.0455,1.8463e-05,0
0.046,1.9806e-05,0
0.0465,1.9638e-05,0
0.047,1.8296e-05,0
0.0475,1.9974e-05,0
0.048,2.3163e-05,0
0.0485,2.5681e-05,0
0.049,2.6352e-05,0
0.0495,2.5009e-05,0
0.05,2.3331e-05,0
0.0505,2.1317e-05,0
0.051,2.0646e-05,0
0.0515,2.1317e-05,0
0.052,2.2324e-05,0
0.0525,2.2995e-05,0
0.053,2.3331e-05,0
0.0535,2.2324e-05,0
0.054,1.9303e-05,0
0.0545,1.7624e-05,0
0.055,1.8631e-05,0
0.0555,2.1149e-05,0
0.056,2.2828e-05,0
0.0565,2.1988e-05,0
0.057,1.8463e-05,0
0.0575,1.5442e-05,0
0.058,1.5274e-05,0
0.0585,1.4603e-05,0
0.059,1.2924e-05,0
0.0595,1.4603e-05,0
0.06,1.796e-05,0
0.0605,2.0478e-05,0
0.061,1.9974e-05,0
0.0615,1.9303e-05,0
0.062,1.7792e-05,0
0.0625,1.5778e-05,0
0.063,1.561e-05,0
0.0635,1.8799e-05,0
0.064,2.0981e-05,0
0.0645,2.2324e-05,0
0.065,2.2324e-05,0
0.0655,1.9974e-05,0
0.066,1.7624e-05,0
0.0665,1.8463e-05,0
0.067,1.7121e-05,0
0.0675,1.2924e-05,0
0.068,1.0575e-05,0
0.0685,1.1917e-05,0
0.069,1.7288e-05,0
0.0695,2.1988e-05,0
0.07,2.0646e-05,0
0.0705,1.6617e-05,0
0.071,1.5778e-05,0
0.0715,1.796e-05,0
0.072,1.8967e-05,0
0.0725,1.5946e-05,0
0.073,1.4435e-05,0
0.0735,1.6617e-05,0
0.074,1.6617e-05,0
0.0745,1.4939e-05,0
0.075,1.5106e-05,0
0.0755,1.5274e-05,0
0.076,1.4603e-05,0
0.0765,1.4435e-05,0
0.077,1.4435e-05,0
0.0775,1.561e-05,0
0.078,1.8799e-05,0
0.0785,1.9974e-05,0
0.079,1.8296e-05,0
0.0795,1.947e-05,0
0.08,1.8296e-05,0
0.0805,1.5946e-05,0
0.081,1.6953e-05,0
0.0815,1.8296e-05,0
0.082,1.8463e-05,0
0.0825,1.9135e-05,0
0.083,1.9974e-05,0
0.0835,2.0646e-05,0
0.084,2.3331e-05,0
0.0845,2.3667e-05,0
0.085,2.1317e-05,0
0.0855,1.9638e-05,0
0.086,1.7121e-05,0
0.0865,1.6281e-05,0
0.087,1.561e-05,0
0.0875,1.3596e-05,0
0.088,1.4267e-05,0
0.0885,1.3932e-05,0
0.089,9.9031e-06,0
0.0895,1.0071e-05,0
0.09,1.4435e-05,0
0.0905,1.6281e-05,0
0.091,1.326e-05,0
0.0915,1.0575e-05,0
0.092,1.0575e-05,0
0.0925,1.4771e-05,0
0.093,1.9974e-05,0
0.0935,2.2156e-05,0
0.094,2.2995e-05,0
0.0945,2.0142e-05,0
0.095,1.5442e-05,0
0.0955,1.2924e-05,0
0.096,1.326e-05,0
0.0965,1.6281e-05,0
0.097,1.9638e-05,0
0.0975,2.0981e-05,0
0.098,1.9806e-05,0
0.0985,2.0981e-05,0
0.099,2.4002e-05,0
0.0995,2.4674e-05,0
0.1,2.4002e-05,0
0.1005,2.2324e-05,0
0.101,2.0813e-05,0
0.1015,2.1149e-05,0
0.102,2.0813e-05,0
0.1025,2.031e-05,0
0.103,2.3163e-05,0
0.1035,2.4338e-05,0
0.104,2.2995e-05,0
0.1045,2.2828e-05,0
0.105,2.3331e-05,0
0.1055,2.5345e-05,0
0.106,2.6688e-05,0
0.1065,2.4338e-05,0
0.107,2.3331e-05,0
0.1075,2.4002e-05,0
0.108,2.4002e-05,0
0.1085,2.1317e-05,0
0.109,1.9974e-05,0
0.1095,1.8967e-05,0
0.11,1.6281e-05,0
0.1105,1.5106e-05,0
0.111,1.7792e-05,0
0.1115,1.9638e-05,0
0.112,1.9974e-05,0
0.1125,1.9303e-05,0
0.113,1.9135e-05,0
0.1135,2.0981e-05,0
0.114,2.1317e-05,0
0.1145,1.8967e-05,0
0.115,1.796e-05,0
0.1155,1.9135e-05,0
0.116,1.8463e-05,0
0.1165,1.6953e-05,0
0.117,1.7288e-05,0
0.1175,1.8296e-05,0
0.118,1.9135e-05,0
0.1185,1.9638e-05,0
0.119,1.796e-05,0
0.1195,1.6617e-05,0
0.12,1.8967e-05,0
0.1205,2.2828e-05,0
0.121,2.3835e-05,0
0.1215,2.3835e-05,0
0.122,2.2492e-05,0
0.1225,2.031e-05,0
0.123,1.8799e-05,0
0.1235,1.7121e-05,0
0.124,1.561e-05,0
0.1245,1.5946e-05,0
0.125,1.9638e-05,0
0.1255,2.0981e-05,0
0.126,2.0142e-05,0
0.1265,1.9303e-05,0
0.127,2.0142e-05,0
0.1275,2.1653e-05,0
0.128,2.0646e-05,0
0.1285,1.7624e-05,0
0.129,1.5946e-05,0
0.1295,1.6617e-05,0
0.13,1.8967e-05,0
0.1305,1.7288e-05,0
0.131,1.2589e-05,0
0.1315,1.0575e-05,0
0.132,1.1582e-05,0
0.1325,1.3932e-05,0
0.133,1.9135e-05,0
0.1335,2.3331e-05,0
0.134,2.1317e-05,0
0.1345,1.5946e-05,0
0.135,1.2924e-05,0
0.1355,1.3092e-05,0
0.136,1.326e-05,0
0.1365,1.2924e-05,0
0.137,1.326e-05,0
0.1375,1.4267e-05,0
0.138,1.2924e-05,0
0.1385,1.2253e-05,0
0.139,1.5946e-05,0
0.1395,2.031e-05,0
0.14,2.1317e-05,0
0.1405,1.8967e-05,0
0.141,1.5946e-05,0
0.1415,1.5946e-05,0
0.142,1.561e-05,0
0.1425,1.4603e-05,0
0.143,1.5274e-05,0
0.1435,1.5106e-05,0
0.144,1.3596e-05,0
0.1445,1.4267e-05,0
0.145,1.326e-05,0
0.1455,1.2757e-05,0
0.146,1.5274e-05,0
0.1465,1.8631e-05,0
0.147,1.9974e-05,0
0.1475,1.8631e-05,0
0.148,1.8296e-05,0
0.1485,1.8631e-05,0
0.149,2.031e-05,0
0.1495,1.9974e-05,0
0.15,1.796e-05,0
0.1505,2.031e-05,0
0.151,2.417e-05,0
0.1515,2.5009e-05,0
0.152,2.1988e-05,0
0.1525,1.9638e-05,0
0.153,1.9303e-05,0
0.1535,1.9638e-05,0
0.154,2.0981e-05,0
0.1545,2.266e-05,0
0.155,2.1317e-05,0
0.1555,1.8631e-05,0
0.156,1.8463e-05,0
0.1565,1.9806e-05,0
0.157,1.947e-05,0
0.1575,1.9638e-05,0
0.158,1.796e-05,0
0.1585,1.7624e-05,0
0.159,2.1317e-05,0
0.1595,2.3331e-05,0
0.16,2.3163e-05,0
0.1605,2.3331e-05,0
0.161,2.266e-05,0
0.1615,2.266e-05,0
0.162,2.3667e-05,0
0.1625,2.5009e-05,0
0.163,2.6688e-05,0
0.1635,2.6688e-05,0
0.164,2.3835e-05,0
0.1645,2.2324e-05,0
0.165,2.182e-05,0
0.1655,2.1988e-05,0
0.166,2.2156e-05,0
0.1665,2.0981e-05,0
0.167,1.9303e-05,0
0.1675,1.8296e-05,0
0.168,1.7288e-05,0
0.1685,1.7288e-05,0
0.169,1.6953e-05,0
0.1695,1.6953e-05,0
0.17,1.9974e-05,0
0.1705,2.1653e-05,0
0.171,1.7288e-05,0
0.1715,1.5946e-05,0
0.172,1.8128e-05,0
0.1725,1.5946e-05,0
0.173,1.4099e-05,0
0.1735,1.561e-05,0
0.174,1.6953e-05,0
0.1745,1.8631e-05,0
0.175,1.9303e-05,0
0.1755,1.9638e-05,0
0.176,1.9135e-05,0
0.1765,1.8967e-05,0
0.177,1.7624e-05,0
0.1775,1.8631e-05,0
0.178,2.3331e-05,0
0.1785,2.4002e-05,0
0.179,2.1149e-05,0
0.1795,1.8296e-05,0
0.18,1.6953e-05,0
0.1805,1.3596e-05,0
0.181,1.1414e-05,0
0.1815,1.1917e-05,0
0.182,1.5274e-05,0
0.1825,1.947e-05,0
0.183,1.8631e-05,0
0.1835,1.5946e-05,0
0.184,1.4939e-05,0
0.1845,1.4267e-05,0
0.185,1.6617e-05,0
0.1855,1.9303e-05,0
0.186,1.8631e-05,0
0.1865,1.9303e-05,0
0.187,2.0478e-05,0
0.1875,2.1317e-05,0
0.188,2.266e-05,0
0.1885,2.1988e-05,0
0.189,2.031e-05,0
0.1895,1.8463e-05,0
0.19,1.7624e-05,0
0.1905,1.8967e-05,0
0.191,1.9974e-05,0
0.1915,1.9638e-05,0
0.192,1.8296e-05,0
0.1925,1.7121e-05,0
0.193,1.5946e-05,0
0.1935,1.4603e-05,0
0.194,1.4267e-05,0
0.1945,1.4099e-05,0
0.195,1.4939e-05,0
0.1955,1.561e-05,0
0.196,1.561e-05,0
0.1965,1.6281e-05,0
0.197,1.5946e-05,0
0.1975,1.5106e-05,0
0.198,1.5442e-05,0
0.1985,1.5778e-05,0
0.199,1.4939e-05,0
0.1995,1.6953e-05,0
0.2,2.031e-05,0
0.2005,2.3499e-05,0
0.201,2.3331e-05,0
0.2015,2.0646e-05,0
0.202,2.2492e-05,0
0.2025,2.4002e-05,0
0.203,2.4338e-05,0
0.2035,2.2995e-05,0
0.204,2.266e-05,0
0.2045,2.2995e-05,0
0.205,2.2156e-05,0
0.2055,2.4338e-05,0
0.206,2.266e-05,0
0.2065,1.8631e-05,0
0.207,1.6953e-05,0
0.2075,1.7288e-05,0
0.208,1.8296e-05,0
0.2085,1.9974e-05,0
0.209,2.1988e-05,0
0.2095,2.3331e-05,0
0.21,2.1988e-05,0
0.2105,2.0142e-05,0
0.211,1.8799e-05,0
0.2115,1.4603e-05,0
0.212,1.0239e-05,0
0.2125,1.0575e-05,0
0.213,1.4267e-05,0
0.2135,1.7121e-05,0
0.214,1.7121e-05,0
0.2145,1.4603e-05,0
0.215,1.2924e-05,0
0.2155,1.4603e-05,0
0.216,1.7288e-05,0
0.2165,1.8128e-05,0
0.217,1.4603e-05,0
0.2175,1.1582e-05,0
0.218,1.1246e-05,0
0.2185,1.5274e-05,0
0.219,2.0981e-05,0
0.2195,2.1317e-05,0
0.22,1.8463e-05,0
0.2205,1.6281e-05,0
0.221,1.4603e-05,0
0.2215,1.326e-05,0
0.222,1.4099e-05,0
0.2225,1.5946e-05,0
0.223,1.7288e-05,0
0.2235,1.7288e-05,0
0.224,1.8463e-05,0
0.2245,1.9303e-05,0
0.225,1.8967e-05,0
0.2255,1.8631e-05,0
0.226,1.8128e-05,0
0.2265,2.0646e-05,0
0.227,2.2324e-05,0
0.2275,2.1988e-05,0
0.228,2.2324e-05,0
0.2285,2.266e-05,0
0.229,2.3667e-05,0
0.2295,2.266e-05,0
0.23,1.9974e-05,0
0.2305,1.8967e-05,0
0.231,2.031e-05,0
0.2315,2.1317e-05,0
0.232,2.3331e-05,0
0.2325,2.3835e-05,0
0.233,2.1317e-05,0
0.2335,1.7792e-05,0
0.234,1.6785e-05,0
0.2345,1.8463e-05,0
0.235,1.9638e-05,0
0.2355,2.1988e-05,0
0.236,2.3667e-05,0
0.2365,2.1317e-05,0
0.237,2.1149e-05,0
0.2375,2.031e-05,0
0.238,1.8128e-05,0
0.2385,1.7624e-05,0
0.239,1.7792e-05,0
0.2395,1.8296e-05,0
0.24,1.6449e-05,0
0.2405,1.2924e-05,0
0.241,1.3932e-05,0
0.2415,1.8128e-05,0
0.242,1.9135e-05,0
0.2425,1.6281e-05,0
0.243,1.4603e-05,0
0.2435,1.5946e-05,0
0.244,1.8296e-05,0
0.2445,1.7121e-05,0
0.245,1.6281e-05,0
0.2455,1.7792e-05,0
0.246,1.947e-05,0
0.2465,2.031e-05,0
0.247,1.8631e-05,0
0.2475,1.7121e-05,0
0.248,1.7792e-05,0
0.2485,1.947e-05,0
0.249,1.9135e-05,0
0.2495,1.9135e-05,0
0.25,1.7288e-05,0
0.2505,1.4939e-05,0
0.251,1.5274e-05,0
0.2515,1.796e-05,0
0.252,1.7288e-05,0
0.2525,1.2421e-05,0
0.253,1.0071e-05,0
0.2535,1.1749e-05,0
0.254,1.561e-05,0
0.2545,1.9974e-05,0
0.255,1.9974e-05,0
0.2555,1.7624e-05,0
0.256,1.8463e-05,0
0.2565,1.9806e-05,0
0.257,1.9974e-05,0
0.2575,2.0813e-05,0
0.258,2.2492e-05,0
0.2585,2.3835e-05,0
0.259,2.6017e-05,0
0.2595,2.6017e-05,0
0.26,2.2492e-05,0
0.2605,1.8967e-05,0
0.261,2.031e-05,0
0.2615,2.2995e-05,0
0.262,2.0813e-05,0
0.2625,1.7792e-05,0
0.263,1.9974e-05,0
0.2635,2.1317e-05,0
0.264,2.1317e-05,0
0.2645,2.3163e-05,0
0.265,2.4002e-05,0
0.2655,2.0478e-05,0
0.266,1.6281e-05,0
0.2665,1.561e-05,0
0.267,1.6617e-05,0
0.2675,1.7792e-05,0
0.268,1.6953e-05,0
0.2685,1.4939e-05,0
0.269,1.5946e-05,0
0.2695,1.8463e-05,0
0.27,1.9303e-05,0
0.2705,1.8463e-05,0
0.271,1.796e-05,0
0.2715,1.8631e-05,0
0.272,2.0813e-05,0
0.2725,2.1317e-05,0
0.273,2.2492e-05,0
0.2735,2.1653e-05,0
0.274,2.0478e-05,0
0.2745,2.0646e-05,0
0.275,1.9638e-05,0
0.2755,1.7792e-05,0
0.276,1.8128e-05,0
0.2765,1.796e-05,0
0.277,1.5778e-05,0
0.2775,1.5274e-05,0
0.278,1.4267e-05,0
0.2785,1.2924e-05,0
0.279,1.326e-05,0
0.2795,1.326e-05,0
0.28,1.2253e-05,0
0.2805,1.3092e-05,0
0.281,1.6617e-05,0
0.2815,1.7624e-05,0
0.282,1.5106e-05,0
0.2825,1.6449e-05,0
0.283,1.8631e-05,0
0.2835,1.7792e-05,0
0.284,1.7288e-05,0
0.2845,2.031e-05,0
0.285,2.4674e-05,0
0.2855,2.7359e-05,0
0.286,2.4338e-05,0
0.2865,2.182e-05,0
0.287,2.0813e-05,0
0.2875,2.1653e-05,0
0.288,2.3835e-05,0
0.2885,2.2828e-05,0
0.289,2.2324e-05,0
0.2895,2.1317e-05,0
0.29,1.9135e-05,0
0.2905,2.1149e-05,0
0.291,2.3667e-05,0
0.2915,2.2995e-05,0
0.292,2.1317e-05,0
0.2925,2.182e-05,0
0.293,2.266e-05,0
0.2935,2.3667e-05,0
0.294,2.4674e-05,0
0.2945,2.2995e-05,0
0.295,2.0646e-05,0
0.2955,1.9974e-05,0
0.296,2.1653e-05,0
0.2965,2.0813e-05,0
0.297,1.8631e-05,0
0.2975,1.8631e-05,0
0.298,2.3331e-05,0
0.2985,2.5345e-05,0
0.299,2.266e-05,0
0.2995,1.9303e-05,0
0.3,1.8631e-05,0
0.3005,1.9974e-05,0
0.301,1.8631e-05,0
0.3015,1.6281e-05,0
0.302,1.8128e-05,0
0.3025,1.9974e-05,0
0.303,1.8296e-05,0
0.3035,1.796e-05,0
0.304,2.0981e-05,0
0.3045,2.3667e-05,0
0.305,2.2995e-05,0
0.3055,1.9974e-05,0
0.306,2.031e-05,0
0.3065,2.1988e-05,0
0.307,2.266e-05,0
0.3075,2.1317e-05,0
0.308,1.9135e-05,0
0.3085,1.8296e-05,0
0.309,1.7624e-05,0
0.3095,1.796e-05,0
0.31,1.7288e-05,0
0.3105,1.5106e-05,0
0.311,1.2924e-05,0
0.3115,1.4267e-05,0
0.312,1.8967e-05,0
0.3125,1.7624e-05,0
0.313,1.6449e-05,0
0.3135,1.8631e-05,0
0.314,1.9974e-05,0
0.3145,1.8463e-05,0
0.315,1.796e-05,0
0.3155,1.7288e-05,0
0.316,1.6281e-05,0
0.3165,1.5442e-05,0
0.317,1.326e-05,0
0.3175,1.2589e-05,0
0.318,1.4603e-05,0
0.3185,1.5946e-05,0
0.319,1.6617e-05,0
0.3195,1.5442e-05,0
0.32,1.326e-05,0
0.3205,1.2589e-05,0
0.321,1.1917e-05,0
0.3215,1.1582e-05,0
0.322,1.2253e-05,0
0.3225,1.3932e-05,0
0.323,1.6953e-05,0
0.3235,1.8631e-05,0
0.324,1.9974e-05,0
0.3245,2.0478e-05,0
0.325,1.947e-05,0
0.3255,1.9303e-05,0
0.326,1.8631e-05,0
0.3265,1.9303e-05,0
0.327,2.0478e-05,0
0.3275,2.1317e-05,0
0.328,2.266e-05,0
0.3285,2.1317e-05,0
0.329,1.8967e-05,0
0.3295,1.8631e-05,0
0.33,1.8296e-05,0
0.3305,1.6617e-05,0
0.331,1.3932e-05,0
0.3315,9.2317e-06,0
0.332,8.896e-06,0
0.3325,1.326e-05,0
0.333,1.5274e-05,0
0.3335,1.3932e-05,0
0.334,1.3428e-05,0
0.3345,1.7121e-05,0
0.335,1.947e-05,0
0.3355,1.7624e-05,0
0.336,1.6617e-05,0
0.3365,1.5274e-05,0
0.337,1.4939e-05,0
0.3375,1.6281e-05,0
0.338,1.796e-05,0
0.3385,1.7288e-05,0
0.339,1.4603e-05,0
0.3395,1.5778e-05,0
0.34,1.8128e-05,0
0.3405,2.0478e-05,0
0.341,2.0646e-05,0
0.3415,1.8463e-05,0
0.342,1.7624e-05,0
0.3425,1.9638e-05,0
0.343,2.0142e-05,0
0.3435,1.8799e-05,0
0.344,1.8463e-05,0
0.3445,1.8967e-05,0
0.345,1.9303e-05,0
0.3455,2.0981e-05,0
0.346,1.9135e-05,0
0.3465,1.4603e-05,0
0.347,1.2421e-05,0
0.3475,1.5274e-05,0
0.348,2.0142e-05,0
0.3485,2.0813e-05,0
0.349,2.0646e-05,0
0.3495,2.266e-05,0
0.35,2.2324e-05,0
0.3505,1.7288e-05,0
0.351,1.4603e-05,0
0.3515,1.4603e-05,0
0.352,1.6281e-05,0
0.3525,1.9806e-05,0
0.353,1.9974e-05,0
0.3535,1.4267e-05,0
0.354,1.2253e-05,0
0.3545,1.6953e-05,0
0.355,1.9974e-05,0
0.3555,2.0981e-05,0
0.356,2.1317e-05,0
0.3565,2.182e-05,0
0.357,2.0478e-05,0
0.3575,1.9974e-05,0
0.358,2.2492e-05,0
0.3585,2.4002e-05,0
0.359,2.4338e-05,0
0.3595,2.266e-05,0
0.36,2.1988e-05,0
0.3605,2.1317e-05,0
0.361,2.1988e-05,0
0.3615,2.266e-05,0
0.362,2.1317e-05,0
0.3625,1.9974e-05,0
0.363,2.031e-05,0
0.3635,1.8967e-05,0
0.364,1.8296e-05,0
0.3645,2.0478e-05,0
0.365,1.9974e-05,0
0.3655,1.9303e-05,0
0.366,1.8631e-05,0
0.3665,1.8296e-05,0
0.367,1.947e-05,0
0.3675,2.0478e-05,0
0.368,2.031e-05,0
0.3685,1.8967e-05,0
0.369,1.7624e-05,0
0.3695,1.8631e-05,0
0.37,2.1317e-05,0
0.3705,2.4674e-05,0
0.371,2.7024e-05,0
0.3715,2.8031e-05,0
0.372,2.5345e-05,0
0.3725,2.266e-05,0
0.373,1.9974e-05,0
0.3735,1.8631e-05,0
0.374,1.9638e-05,0
0.3745,1.9135e-05,0
0.375,1.9974e-05,0
0.3755,2.1317e-05,0
0.376,1.9974e-05,0
0.3765,1.6953e-05,0
0.377,1.561e-05,0
0.3775,1.7624e-05,0
0.378,2.031e-05,0
0.3785,2.0646e-05,0
0.379,1.7288e-05,0
0.3795,1.6449e-05,0
0.38,1.8631e-05,0
0.3805,1.8631e-05,0
0.381,1.6953e-05,0
0.3815,1.561e-05,0
0.382,1.3932e-05,0
0.3825,1.3764e-05,0
0.383,1.3932e-05,0
0.3835,1.4435e-05,0
0.384,1.7121e-05,0
0.3845,2.1988e-05,0
0.385,2.5345e-05,0
0.3855,2.2995e-05,0
0.386,1.9806e-05,0
0.3865,1.8631e-05,0
0.387,1.8631e-05,0
0.3875,1.8296e-05,0
0.388,1.7792e-05,0
0.3885,1.561e-05,0
0.389,1.6281e-05,0
0.3895,1.8463e-05,0
0.39,1.9638e-05,0
0.3905,1.9806e-05,0
0.391,1.8967e-05,0
0.3915,2.031e-05,0
0.392,2.266e-05,0
0.3925,2.4002e-05,0
0.393,2.5345e-05,0
0.3935,2.266e-05,0
0.394,1.7121e-05,0
0.3945,1.326e-05,0
0.395,1.326e-05,0
0.3955,1.6953e-05,0
0.396,1.9974e-05,0
0.3965,2.0813e-05,0
0.397,2.031e-05,0
0.3975,1.8799e-05,0
0.398,2.0981e-05,0
0.3985,2.3667e-05,0
0.399,2.4338e-05,0
0.3995,2.1317e-05,0
0.4,2.1317e-05,0
0.4005,2.2324e-05,0
0.401,1.7792e-05,0
0.4015,1.6281e-05,0
0.402,1.8463e-05,0
0.4025,2.0478e-05,0
0.403,2.1317e-05,0
0.4035,1.9638e-05,0
0.404,1.3932e-05,0
0.4045,1.1246e-05,0
0.405,1.1414e-05,0
0.4055,1.2253e-05,0
0.406,1.2085e-05,0
0.4065,1.0239e-05,0
0.407,8.0568e-06,0
0.4075,7.5532e-06,0
0.408,9.2317e-06,0
0.4085,9.0639e-06,0
0.409,1.0239e-05,0
0.4095,1.2253e-05,0
0.41,1.3092e-05,0
0.4105,1.1414e-05,0
0.411,1.1246e-05,0
0.4115,1.1582e-05,0
0.412,1.0407e-05,0
0.4125,1.0407e-05,0
0.413,9.5674e-06,0
0.4135,9.9031e-06,0
0.414,1.2253e-05,0
0.4145,1.4603e-05,0
0.415,1.5946e-05,0
0.4155,1.7624e-05,0
0.416,2.0981e-05,0
0.4165,2.3667e-05,0
0.417,2.182e-05,0
0.4175,1.9638e-05,0
0.418,1.8631e-05,0
0.4185,1.8631e-05,0
0.419,2.1317e-05,0
0.4195,2.6352e-05,0
0.42,2.6688e-05,0
0.4205,2.6017e-05,0
0.421,2.5009e-05,0
0.4215,2.4506e-05,0
0.422,2.4842e-05,0
0.4225,2.3163e-05,0
0.423,2.1317e-05,0
0.4235,2.0813e-05,0
0.424,1.9806e-05,0
0.4245,1.9806e-05,0
0.425,1.9135e-05,0
0.4255,1.9974e-05,0
0.426,1.9303e-05,0
0.4265,1.7792e-05,0
0.427,1.8128e-05,0
0.4275,1.8631e-05,0
0.428,2.1317e-05,0
0.4285,2.2995e-05,0
0.429,2.1653e-05,0
0.4295,1.9638e-05,0
0.43,1.6617e-05,0
0.4305,1.4435e-05,0
0.431,1.4435e-05,0
0.4315,2.0646e-05,0
0.432,2.5849e-05,0
0.4325,2.3835e-05,0
0.433,2.1149e-05,0
0.4335,2.2995e-05,0
0.434,2.4842e-05,0
0.4345,2.5009e-05,0
0.435,2.2324e-05,0
0.4355,2.2324e-05,0
0.436,2.4002e-05,0
0.4365,2.4002e-05,0
0.437,2.3667e-05,0
0.4375,2.1988e-05,0
0.438,1.8967e-05,0
0.4385,1.7624e-05,0
0.439,1.9303e-05,0
0.4395,2.1988e-05,0
0.44,2.1653e-05,0
0.4405,1.8967e-05,0
0.441,1.6617e-05,0
0.4415,1.5274e-05,0
0.442,1.4939e-05,0
0.4425,1.4267e-05,0
0.443,1.2589e-05,0
0.4435,1.2924e-05,0
0.444,1.3596e-05,0
0.4445,9.5674e-06,0
0.445,9.0639e-06,0
0.4455,1.326e-05,0
0.446,1.4603e-05,0
0.4465,1.6953e-05,0
0.447,1.8128e-05,0
0.4475,1.6281e-05,0
0.448,1.5946e-05,0
0.4485,1.796e-05,0
0.449,1.9135e-05,0
0.4495,1.8631e-05,0
0.45,1.8296e-05,0
0.4505,1.8967e-05,0
0.451,2.1988e-05,0
0.4515,2.4002e-05,0
0.452,2.5681e-05,0
0.4525,2.6017e-05,0
0.453,2.6017e-05,0
0.4535,2.5177e-05,0
0.454,2.3331e-05,0
0.4545,2.1988e-05,0
0.455,2.0981e-05,0
0.4555,2.2995e-05,0
0.456,2.4002e-05,0
0.4565,2.4338e-05,0
0.457,2.417e-05,0
0.4575,2.0981e-05,0
0.458,1.8463e-05,0
0.4585,1.5946e-05,0
0.459,1.5274e-05,0
0.4595,1.8631e-05,0
0.46,1.9974e-05,0
0.4605,1.8296e-05,0
0.461,1.7624e-05,0
0.4615,1.6785e-05,0
0.462,1.3596e-05,0
0.4625,1.2924e-05,0
0.463,1.4939e-05,0
0.4635,1.7121e-05,0
0.464,1.6281e-05,0
0.4645,1.5946e-05,0
0.465,1.8631e-05,0
0.4655,1.9638e-05,0
0.466,1.796e-05,0
0.4665,1.7288e-05,0
0.467,1.6281e-05,0
0.4675,1.4771e-05,0
0.468,1.5442e-05,0
0.4685,1.7288e-05,0
0.469,2.0142e-05,0
0.4695,1.8967e-05,0
0.47,1.5946e-05,0
0.4705,1.5106e-05,0
0.471,1.5946e-05,0
0.4715,1.561e-05,0
0.472,1.5274e-05,0
0.4725,1.796e-05,0
0.473,1.9638e-05,0
0.4735,1.9974e-05,0
0.474,2.1653e-05,0
0.4745,2.4002e-05,0
0.475,2.5681e-05,0
0.4755,2.5345e-05,0
0.476,2.2995e-05,0
0.4765,2.0646e-05,0
0.477,2.1988e-05,0
0.4775,2.2995e-05,0
0.478,2.1149e-05,0
0.4785,1.6953e-05,0
0.479,1.4771e-05,0
0.4795,1.7288e-05,0
0.48,2.1988e-05,0
0.4805,2.1317e-05,0
0.481,2.031e-05,0
0.4815,1.9806e-05,0
0.482,1.8128e-05,0
0.4825,2.031e-05,0
0.483,2.1317e-05,0
0.4835,1.8967e-05,0
0.484,1.7624e-05,0
0.4845,1.796e-05,0
0.485,1.9974e-05,0
0.4855,2.1988e-05,0
0.486,2.182e-05,0
0.4865,1.9974e-05,0
0.487,1.8128e-05,0
0.4875,1.6449e-05,0
0.488,1.8631e-05,0
0.4885,2.1317e-05,0
0.489,2.0981e-05,0
0.4895,1.9974e-05,0
0.49,1.7288e-05,0
0.4905,1.4099e-05,0
0.491,1.2924e-05,0
0.4915,1.4435e-05,0
0.492,1.5946e-05,0
0.4925,1.6785e-05,0
0.493,1.5778e-05,0
0.4935,1.3764e-05,0
0.494,1.2421e-05,0
0.4945,1.2924e-05,0
0.495,1.561e-05,0
0.4955,1.7792e-05,0
0.496,1.561e-05,0
0.4965,1.091e-05,0
0.497,8.2246e-06,0
0.4975,9.2317e-06,0
0.498,1.2589e-05,0
0.4985,1.4267e-05,0
0.499,1.5946e-05,0
0.4995,1.5946e-05,0
0.5,1.5442e-05,0
0.5005,1.6281e-05,0
0.501,1.5946e-05,0
0.5015,1.7288e-05,0
0.502,1.796e-05,0
0.5025,1.5274e-05,0
0.503,1.326e-05,0
0.5035,1.561e-05,0
0.504,1.9638e-05,0
0.5045,2.0813e-05,0
0.505,1.9638e-05,0
0.5055,2.1653e-05,0
0.506,2.6688e-05,0
0.5065,2.9374e-05,0
0.507,2.7024e-05,0
0.5075,2.5345e-05,0
0.508,2.5177e-05,0
0.5085,2.4002e-05,0
0.509,1.9974e-05,0
0.5095,1.5946e-05,0
0.51,1.2757e-05,0
0.5105,1.2085e-05,0
0.511,1.3092e-05,0
0.5115,1.1582e-05,0
0.512,1.0239e-05,0
0.5125,1.1917e-05,0
0.513,1.6281e-05,0
0.5135,1.7121e-05,0
0.514,1.4771e-05,0
0.5145,1.561e-05,0
0.515,1.796e-05,0
0.5155,1.9974e-05,0
0.516,1.8631e-05,0
0.5165,1.5106e-05,0
0.517,1.326e-05,0
0.5175,1.3932e-05,0
0.518,1.6281e-05,0
0.5185,1.8463e-05,0
0.519,2.0646e-05,0
0.5195,2.2492e-05,0
0.52,2.2492e-05,0
0.5205,2.3163e-05,0
0.521,2.5849e-05,0
0.5215,2.9374e-05,0
0.522,2.7863e-05,0
0.5225,2.266e-05,0
0.523,2.1149e-05,0
0.5235,2.266e-05,0
0.524,2.5681e-05,0
0.5245,3.0045e-05,0
0.525,3.1388e-05,0
0.5255,2.9038e-05,0
0.526,2.7024e-05,0
0.5265,2.5009e-05,0
0.527,2.3835e-05,0
0.5275,2.2324e-05,0
0.528,2.3163e-05,0
0.5285,2.5345e-05,0
0.529,2.4002e-05,0
0.5295,2.3331e-05,0
0.53,2.3667e-05,0
0.5305,2.2324e-05,0
0.531,1.947e-05,0
0.5315,1.7121e-05,0
0.532,1.7624e-05,0
0.5325,1.8631e-05,0
0.533,1.7792e-05,0
0.5335,1.6617e-05,0
0.534,1.5946e-05,0
0.5345,1.6617e-05,0
0.535,1.6617e-05,0
0.5355,1.4435e-05,0
0.536,1.4099e-05,0
0.5365,1.5946e-05,0
0.537,1.9135e-05,0
0.5375,2.0478e-05,0
0.538,1.8967e-05,0
0.5385,1.5946e-05,0
0.539,1.326e-05,0
0.5395,1.2589e-05,0
0.54,1.1917e-05,0
0.5405,1.0575e-05,0
0.541,1.1749e-05,0
0.5415,1.3596e-05,0
0.542,1.4939e-05,0
0.5425,1.3596e-05,0
0.543,1.4939e-05,0
0.5435,1.7288e-05,0
0.544,1.796e-05,0
0.5445,1.9638e-05,0
0.545,2.182e-05,0
0.5455,2.3499e-05,0
0.546,2.5345e-05,0
0.5465,2.5009e-05,0
0.547,1.9638e-05,0
0.5475,1.7456e-05,0
0.548,1.9974e-05,0
0.5485,2.0646e-05,0
0.549,1.8967e-05,0
0.5495,1.4939e-05,0
0.55,1.326e-05,0
0.5505,1.6617e-05,0
0.551,1.8967e-05,0
0.5515,1.9303e-05,0
0.552,1.9303e-05,0
0.5525,1.9135e-05,0
0.553,1.9638e-05,0
0.5535,2.2324e-05,0
0.554,2.652e-05,0
0.5545,2.6017e-05,0
0.555,2.266e-05,0
0.5555,1.8128e-05,0
0.556,1.2924e-05,0
0.5565,1.0575e-05,0
0.557,9.2317e-06,0
0.5575,5.2033e-06,0
0.558,6.714e-07,0
0.5585,-2.8534e-06,0
0.559,-4.0284e-06,0
0.5595,-6.714e-06,0
0.56,-1.2924e-05,0
0.5605,-1.3932e-05,0
0.561,-6.714e-06,0
0.5615,3.8605e-06,0
0.562,1.561e-05,0
0.5625,2.4674e-05,0
0.563,3.1388e-05,0
0.5635,3.8773e-05,0
0.564,4.4816e-05,0
0.5645,4.5487e-05,0
0.565,4.0116e-05,0
0.5655,3.5416e-05,0
0.566,3.7095e-05,0
0.5665,3.978e-05,0
0.567,3.8102e-05,0
0.5675,3.508e-05,0
0.568,3.2563e-05,0
0.5685,2.8702e-05,0
0.569,2.4002e-05,0
0.5695,2.031e-05,0
0.57,1.8967e-05,0
0.5705,1.7456e-05,0
0.571,1.5946e-05,0
0.5715,1.6449e-05,0
0.572,1.561e-05,0
0.5725,1.4435e-05,0
0.573,1.3932e-05,0
0.5735,1.3764e-05,0
0.574,1.2253e-05,0
0.5745,1.0239e-05,0
0.575,1.1078e-05,0
0.5755,1.4939e-05,0
0.576,1.8967e-05,0
0.5765,2.5345e-05,0
0.577,3.357e-05,0
0.5775,3.7934e-05,0
0.578,3.9109e-05,0
0.5785,3.8773e-05,0
0.579,3.8605e-05,0
0.5795,3.743e-05,0
0.58,3.2731e-05,0
0.5805,2.8031e-05,0
0.581,2.5849e-05,0
0.5815,2.5681e-05,0
0.582,2.7359e-05,0
0.5825,2.7359e-05,0
0.583,2.4674e-05,0
0.5835,2.2492e-05,0
0.584,2.2828e-05,0
0.5845,2.1988e-05,0
0.585,1.8967e-05,0
0.5855,1.7624e-05,0
0.586,1.4939e-05,0
0.5865,1.2924e-05,0
0.587,1.3596e-05,0
0.5875,1.4603e-05,0
0.588,1.561e-05,0
0.5885,1.561e-05,0
0.589,1.4939e-05,0
0.5895,1.5946e-05,0
0.59,1.4267e-05,0
0.5905,1.2253e-05,0
0.591,1.1917e-05,0
0.5915,1.2421e-05,0
0.592,1.5946e-05,0
0.5925,1.9303e-05,0
0.593,1.6281e-05,0
0.5935,1.1749e-05,0
0.594,1.1917e-05,0
0.5945,1.5274e-05,0
0.595,1.7624e-05,0
0.5955,1.7624e-05,0
0.596,1.6281e-05,0
0.5965,1.4603e-05,0
0.597,1.326e-05,0
0.5975,1.1582e-05,0
0.598,9.7353e-06,0
0.5985,1.0575e-05,0
0.599,1.1749e-05,0
0.5995,1.0575e-05,0
0.6,9.2317e-06,0
0.6005,1.2253e-05,0
0.601,1.4603e-05,0
0.6015,1.1749e-05,0
0.602,1.0071e-05,0
0.6025,1.2589e-05,0
0.603,1.4267e-05,0
0.6035,1.2253e-05,0
0.604,1.0575e-05,0
0.6045,1.1078e-05,0
0.605,1.3764e-05,0
0.6055,1.326e-05,0
0.606,1.1078e-05,0
0.6065,8.7282e-06,0
0.607,7.5532e-06,0
0.6075,9.2317e-06,0
0.608,1.1917e-05,0
0.6085,1.1246e-05,0
0.609,9.3996e-06,0
0.6095,1.0575e-05,0
0.61,1.3596e-05,0
0.6105,1.5274e-05,0
0.611,1.5274e-05,0
0.6115,1.3932e-05,0
0.612,1.1078e-05,0
0.6125,1.1582e-05,0
0.613,1.3596e-05,0
0.6135,1.4267e-05,0
0.614,1.5106e-05,0
0.6145,1.7624e-05,0
0.615,1.8631e-05,0
0.6155,1.8631e-05,0
0.616,1.8967e-05,0
0.6165,1.947e-05,0
0.617,1.8463e-05,0
0.6175,1.6617e-05,0
0.618,1.6281e-05,0
0.6185,1.6617e-05,0
0.619,1.6281e-05,0
0.6195,1.6617e-05,0
0.62,1.9974e-05,0
0.6205,2.2324e-05,0
0.621,2.3331e-05,0
0.6215,2.3835e-05,0
0.622,2.266e-05,0
0.6225,2.266e-05,0
0.623,2.4002e-05,0
0.6235,2.5009e-05,0
0.624,2.3835e-05,0
0.6245,2.266e-05,0
0.625,2.031e-05,0
0.6255,1.8631e-05,0
0.626,1.9974e-05,0
0.6265,2.2995e-05,0
0.627,2.3667e-05,0
0.6275,2.1988e-05,0
0.628,2.1653e-05,0
0.6285,2.4674e-05,0
0.629,2.6688e-05,0
0.6295,2.5345e-05,0
0.63,2.266e-05,0
0.6305,2.266e-05,0
0.631,2.5681e-05,0
0.6315,2.7863e-05,0
0.632,2.7024e-05,0
0.6325,2.7695e-05,0
0.633,2.6688e-05,0
0.6335,2.4506e-05,0
0.634,2.2995e-05,0
0.6345,2.1988e-05,0
0.635,2.0478e-05,0
0.6355,1.9303e-05,0
0.636,2.0981e-05,0
0.6365,2.3331e-05,0
0.637,2.3499e-05,0
0.6375,2.1317e-05,0
0.638,2.0142e-05,0
0.6385,2.2324e-05,0
0.639,2.1317e-05,0
0.6395,1.6617e-05,0
0.64,1.7624e-05,0
0.6405,2.2828e-05,0
0.641,2.3331e-05,0
0.6415,2.2995e-05,0
0.642,2.031e-05,0
0.6425,1.8463e-05,0
0.643,2.1149e-05,0
0.6435,2.2995e-05,0
0.644,2.3835e-05,0
0.6445,2.266e-05,0
0.645,1.9806e-05,0
0.6455,1.9806e-05,0
0.646,2.2156e-05,0
0.6465,2.4338e-05,0
0.647,2.5177e-05,0
0.6475,2.6017e-05,0
0.648,2.6184e-05,0
0.6485,2.3331e-05,0
0.649,1.7624e-05,0
0.6495,1.7456e-05,0
0.65,1.9135e-05,0
0.6505,1.7288e-05,0
0.651,1.4939e-05,0
0.6515,1.5778e-05,0
0.652,1.4603e-05,0
0.6525,1.3932e-05,0
0.653,1.5274e-05,0
0.6535,1.5106e-05,0
0.654,1.3932e-05,0
0.6545,1.3764e-05,0
0.655,1.2924e-05,0
0.6555,1.2589e-05,0
0.656,1.3932e-05,0
0.6565,1.5946e-05,0
0.657,1.5946e-05,0
0.6575,1.5106e-05,0
0.658,1.7288e-05,0
0.6585,1.8967e-05,0
0.659,1.6953e-05,0
0.6595,1.5274e-05,0
0.66,1.7288e-05,0
0.6605,2.031e-05,0
0.661,1.8631e-05,0
0.6615,1.5946e-05,0
0.662,1.5442e-05,0
0.6625,1.7288e-05,0
0.663,1.7288e-05,0
0.6635,1.7456e-05,0
0.664,1.8296e-05,0
0.6645,1.9638e-05,0
0.665,1.5946e-05,0
0.6655,1.2589e-05,0
0.666,1.561e-05,0
0.6665,1.9974e-05,0
0.667,2.1988e-05,0
0.6675,2.2492e-05,0
0.668,2.3163e-05,0
0.6685,2.0646e-05,0
0.669,1.6449e-05,0
0.6695,1.5946e-05,0
0.67,2.0478e-05,0
0.6705,2.6688e-05,0
0.671,2.8031e-05,0
0.6715,2.3835e-05,0
0.672,2.0646e-05,0
0.6725,2.1317e-05,0
0.673,1.8128e-05,0
0.6735,1.4267e-05,0
0.674,1.5274e-05,0
0.6745,1.7288e-05,0
0.675,1.8296e-05,0
0.6755,1.7121e-05,0
0.676,1.5946e-05,0
0.6765,1.8296e-05,0
0.677,2.0981e-05,0
0.6775,2.1317e-05,0
0.678,2.2156e-05,0
0.6785,2.2324e-05,0
0.679,2.266e-05,0
0.6795,2.0981e-05,0
0.68,2.031e-05,0
0.6805,2.4674e-05,0
0.681,2.6688e-05,0
0.6815,2.1988e-05,0
0.682,1.6617e-05,0
0.6825,1.561e-05,0
0.683,1.7624e-05,0
0.6835,1.8463e-05,0
0.684,1.3764e-05,0
0.6845,7.2175e-06,0
0.685,4.5319e-06,0
0.6855,4.8676e-06,0
0.686,7.5532e-06,0
0.6865,7.5532e-06,0
0.687,9.0639e-06,0
0.6875,1.1582e-05,0
0.688,1.2589e-05,0
0.6885,1.5442e-05,0
0.689,1.9303e-05,0
0.6895,2.1317e-05,0
0.69,1.9638e-05,0
0.6905,2.0646e-05,0
0.691,2.1317e-05,0
0.6915,1.8631e-05,0
0.692,1.6281e-05,0
0.6925,1.6281e-05,0
0.693,1.7121e-05,0
0.6935,1.9303e-05,0
0.694,2.2492e-05,0
0.6945,2.3331e-05,0
0.695,2.0981e-05,0
0.6955,1.7792e-05,0
0.696,1.6114e-05,0
0.6965,1.6281e-05,0
0.697,1.5946e-05,0
0.6975,1.5946e-05,0
0.698,1.7456e-05,0
0.6985,1.9303e-05,0
0.699,1.9974e-05,0
0.6995,2.0478e-05,0
0.7,2.0142e-05,0
0.7005,1.8631e-05,0
0.701,1.5946e-05,0
0.7015,1.5442e-05,0
0.702,1.8128e-05,0
0.7025,2.2156e-05,0
0.703,2.0813e-05,0
0.7035,1.4939e-05,0
0.704,1.0575e-05,0
0.7045,1.2253e-05,0
0.705,1.796e-05,0
0.7055,2.1317e-05,0
0.706,2.0646e-05,0
0.7065,1.9974e-05,0
0.707,2.1149e-05,0
0.7075,2.4338e-05,0
0.708,2.6352e-05,0
0.7085,2.652e-05,0
0.709,2.4506e-05,0
0.7095,1.9974e-05,0
0.71,1.7792e-05,0
0.7105,1.796e-05,0
0.711,1.7288e-05,0
0.7115,1.8296e-05,0
0.712,2.2324e-05,0
0.7125,2.3667e-05,0
0.713,2.2324e-05,0
0.7135,2.1653e-05,0
0.714,2.4002e-05,0
0.7145,2.2995e-05,0
0.715,1.8631e-05,0
0.7155,1.7288e-05,0
0.716,1.796e-05,0
0.7165,1.9806e-05,0
0.717,2.0646e-05,0
0.7175,2.0478e-05,0
0.718,2.1149e-05,0
0.7185,2.0646e-05,0
0.719,1.7624e-05,0
0.7195,1.6617e-05,0
0.72,1.8296e-05,0
0.7205,1.8296e-05,0
0.721,1.9135e-05,0
0.7215,1.9974e-05,0
0.722,2.0478e-05,0
0.7225,1.8296e-05,0
0.723,1.7624e-05,0
0.7235,2.0478e-05,0
0.724,2.2828e-05,0
0.7245,2.182e-05,0
0.725,1.9303e-05,0
0.7255,1.947e-05,0
0.726,1.9638e-05,0
0.7265,1.7792e-05,0
0.727,1.8967e-05,0
0.7275,2.1149e-05,0
0.728,2.266e-05,0
0.7285,2.266e-05,0
0.729,1.8296e-05,0
0.7295,1.3596e-05,0
0.73,1.4267e-05,0
0.7305,1.5946e-05,0
0.731,1.5946e-05,0
0.7315,1.6281e-05,0
0.732,1.5274e-05,0
0.7325,1.4435e-05,0
0.733,1.3092e-05,0
0.7335,1.2253e-05,0
0.734,1.4435e-05,0
0.7345,1.6617e-05,0
0.735,1.6953e-05,0
0.7355,1.8128e-05,0
0.736,1.8631e-05,0
0.7365,1.7456e-05,0
0.737,1.7288e-05,0
0.7375,1.8296e-05,0
0.738,1.8631e-05,0
0.7385,1.6785e-05,0
0.739,1.6281e-05,0
0.7395,1.9638e-05,0
0.74,2.0981e-05,0
0.7405,2.1988e-05,0
0.741,2.3499e-05,0
0.7415,2.1149e-05,0
0.742,1.7792e-05,0
0.7425,1.9135e-05,0
0.743,1.9303e-05,0
0.7435,1.796e-05,0
0.744,1.8799e-05,0
0.7445,2.031e-05,0
0.745,1.796e-05,0
0.7455,1.6617e-05,0
0.746,1.6953e-05,0
0.7465,1.5946e-05,0
0.747,1.6617e-05,0
0.7475,1.5778e-05,0
0.748,1.5274e-05,0
0.7485,1.6449e-05,0
0.749,1.6953e-05,0
0.7495,1.8128e-05,0
0.75,1.9974e-05,0
0.7505,2.031e-05,0
0.751,1.9806e-05,0
0.7515,2.2324e-05,0
0.752,2.3331e-05,0
0.7525,2.0981e-05,0
0.753,1.796e-05,0
0.7535,1.9974e-05,0
0.754,2.3331e-05,0
0.7545,2.3331e-05,0
0.755,2.0981e-05,0
0.7555,2.0813e-05,0
0.756,2.031e-05,0
0.7565,1.8631e-05,0
0.757,2.0646e-05,0
0.7575,2.2995e-05,0
0.758,2.2995e-05,0
0.7585,2.1653e-05,0
0.759,2.2324e-05,0
0.7595,2.1317e-05,0
0.76,2.031e-05,0
0.7605,2.0646e-05,0
0.761,1.8296e-05,0
0.7615,1.8463e-05,0
0.762,2.182e-05,0
0.7625,2.2995e-05,0
0.763,1.8463e-05,0
0.7635,1.5274e-05,0
0.764,1.6281e-05,0
0.7645,2.031e-05,0
0.765,2.1317e-05,0
0.7655,1.8463e-05,0
0.766,1.9135e-05,0
0.7665,2.1988e-05,0
0.767,2.4674e-05,0
0.7675,2.5177e-05,0
0.768,2.1653e-05,0
0.7685,1.8631e-05,0
0.769,1.8128e-05,0
0.7695,1.8296e-05,0
0.77,1.8296e-05,0
0.7705,1.8967e-05,0
0.771,2.031e-05,0
0.7715,2.0478e-05,0
0.772,1.8631e-05,0
0.7725,1.9638e-05,0
0.773,2.4338e-05,0
0.7735,2.6352e-05,0
0.774,2.2828e-05,0
0.7745,1.9303e-05,0
0.775,1.7624e-05,0
0.7755,1.5946e-05,0
0.776,1.6281e-05,0
0.7765,1.7121e-05,0
0.777,1.7288e-05,0
0.7775,1.6281e-05,0
0.778,1.4435e-05,0
0.7785,1.2421e-05,0
0.779,1.3596e-05,0
0.7795,1.5778e-05,0
0.78,1.4267e-05,0
0.7805,1.326e-05,0
0.781,1.4435e-05,0
0.7815,1.6953e-05,0
0.782,1.5946e-05,0
0.7825,1.3092e-05,0
0.783,1.2589e-05,0
0.7835,1.1749e-05,0
0.784,1.1582e-05,0
0.7845,1.2589e-05,0
0.785,1.1749e-05,0
0.7855,1.1749e-05,0
0.786,1.4939e-05,0
0.7865,1.7456e-05,0
0.787,1.5106e-05,0
0.7875,1.3092e-05,0
0.788,1.4099e-05,0
0.7885,1.6785e-05,0
0.789,1.7624e-05,0
0.7895,1.6617e-05,0
0.79,1.4939e-05,0
0.7905,1.3596e-05,0
0.791,1.3932e-05,0
0.7915,1.6785e-05,0
0.792,1.8967e-05,0
0.7925,1.7288e-05,0
0.793,1.4939e-05,0
0.7935,1.561e-05,0
0.794,1.6953e-05,0
0.7945,1.8631e-05,0
0.795,1.796e-05,0
0.7955,1.4603e-05,0
0.796,1.6617e-05,0
0.7965,1.947e-05,0
0.797,2.1988e-05,0
0.7975,2.5177e-05,0
0.798,2.4674e-05,0
0.7985,2.1988e-05,0
0.799,2.266e-05,0
0.7995,2.4674e-05,0
0.8,2.2324e-05,0
0.8005,1.6617e-05,0
0.801,1.3596e-05,0
0.8015,1.326e-05,0
0.802,1.3764e-05,0
0.8025,1.4771e-05,0
0.803,1.6953e-05,0
0.8035,1.8128e-05,0
0.804,1.796e-05,0
0.8045,2.0142e-05,0
0.805,2.3835e-05,0
0.8055,2.6688e-05,0
0.806,2.7695e-05,0
0.8065,2.6352e-05,0
0.807,2.5513e-05,0
0.8075,2.6352e-05,0
0.808,2.6352e-05,0
0.8085,2.4002e-05,0
0.809,2.2156e-05,0
0.8095,2.0478e-05,0
0.81,1.8967e-05,0
0.8105,1.9638e-05,0
0.811,1.8967e-05,0
0.8115,1.6953e-05,0
0.812,1.5274e-05,0
0.8125,1.6114e-05,0
0.813,1.8128e-05,0
0.8135,1.9303e-05,0
0.814,1.9303e-05,0
0.8145,1.8128e-05,0
0.815,2.0646e-05,0
0.8155,2.5009e-05,0
0.816,2.5681e-05,0
0.8165,2.2156e-05,0
0.817,1.8967e-05,0
0.8175,1.9638e-05,0
0.818,2.2324e-05,0
0.8185,2.4002e-05,0
0.819,2.5009e-05,0
0.8195,2.2492e-05,0
0.82,1.796e-05,0
0.8205,1.7121e-05,0
0.821,1.947e-05,0
0.8215,2.1988e-05,0
0.822,2.2995e-05,0
0.8225,2.182e-05,0
0.823,1.9974e-05,0
0.8235,2.1317e-05,0
0.824,2.1317e-05,0
0.8245,1.8631e-05,0
0.825,1.796e-05,0
0.8255,1.8967e-05,0
0.826,1.9135e-05,0
0.8265,1.8296e-05,0
0.827,1.7288e-05,0
0.8275,1.7456e-05,0
0.828,1.6785e-05,0
0.8285,1.7624e-05,0
0.829,1.6953e-05,0
0.8295,1.6953e-05,0
0.83,1.8463e-05,0
0.8305,1.8296e-05,0
0.831,1.796e-05,0
0.8315,1.8296e-05,0
0.832,1.796e-05,0
0.8325,1.7288e-05,0
0.833,1.8631e-05,0
0.8335,1.9974e-05,0
0.834,1.8967e-05,0
0.8345,1.9135e-05,0
0.835,2.1317e-05,0
0.8355,2.182e-05,0
0.836,2.0646e-05,0
0.8365,1.947e-05,0
0.837,1.5946e-05,0
0.8375,1.3596e-05,0
0.838,1.4939e-05,0
0.8385,1.561e-05,0
0.839,1.5778e-05,0
0.8395,1.4603e-05,0
0.84,1.5274e-05,0
0.8405,1.8631e-05,0
0.841,2.031e-05,0
0.8415,1.9806e-05,0
0.842,1.8967e-05,0
0.8425,1.5778e-05,0
0.843,1.2924e-05,0
0.8435,1.3092e-05,0
0.844,1.4771e-05,0
0.8445,1.7792e-05,0
0.845,1.8631e-05,0
0.8455,1.7121e-05,0
0.846,1.7288e-05,0
0.8465,2.0981e-05,0
0.847,2.1317e-05,0
0.8475,1.9638e-05,0
0.848,1.9974e-05,0
0.8485,1.9303e-05,0
0.849,1.6953e-05,0
0.8495,1.796e-05,0
0.85,1.9303e-05,0
0.8505,1.8631e-05,0
0.851,2.0646e-05,0
0.8515,2.4002e-05,0
0.852,2.266e-05,0
0.8525,1.9974e-05,0
0.853,1.8967e-05,0
0.8535,1.9135e-05,0
0.854,1.8463e-05,0
0.8545,1.7288e-05,0
0.855,1.7288e-05,0
0.8555,1.7288e-05,0
0.856,1.6281e-05,0
0.8565,1.5778e-05,0
0.857,1.4603e-05,0
0.8575,1.2589e-05,0
0.858,1.3092e-05,0
0.8585,1.4939e-05,0
0.859,1.6449e-05,0
0.8595,1.561e-05,0
0.86,1.1582e-05,0
0.8605,8.5603e-06,0
0.861,1.091e-05,0
0.8615,1.4603e-05,0
0.862,1.6281e-05,0
0.8625,1.5946e-05,0
0.863,1.4939e-05,0
0.8635,1.326e-05,0
0.864,1.2421e-05,0
0.8645,1.3596e-05,0
0.865,1.8296e-05,0
0.8655,2.4002e-05,0
0.866,2.5009e-05,0
0.8665,2.1653e-05,0
0.867,1.9303e-05,0
0.8675,1.8631e-05,0
0.868,1.6785e-05,0
0.8685,1.6617e-05,0
0.869,1.9806e-05,0
0.8695,2.0981e-05,0
0.87,2.0646e-05,0
0.8705,1.8631e-05,0
0.871,1.8631e-05,0
0.8715,2.0478e-05,0
0.872,1.9974e-05,0
0.8725,1.8631e-05,0
0.873,1.8631e-05,0
0.8735,2.1317e-05,0
0.874,2.4506e-05,0
0.8745,2.5009e-05,0
0.875,2.4842e-05,0
0.8755,2.5345e-05,0
0.876,2.6017e-05,0
0.8765,2.3499e-05,0
0.877,1.9303e-05,0
0.8775,1.561e-05,0
0.878,1.6953e-05,0
0.8785,2.031e-05,0
0.879,2.182e-05,0
0.8795,1.9806e-05,0
0.88,1.9974e-05,0
0.8805,2.031e-05,0
0.881,1.9638e-05,0
0.8815,2.031e-05,0
0.882,1.9974e-05,0
0.8825,1.8799e-05,0
0.883,1.8631e-05,0
0.8835,1.9638e-05,0
0.884,1.9974e-05,0
0.8845,1.8967e-05,0
0.885,1.5946e-05,0
0.8855,1.5946e-05,0
0.886,1.6617e-05,0
0.8865,1.4435e-05,0
0.887,1.2253e-05,0
0.8875,1.3596e-05,0
0.888,1.796e-05,0
0.8885,1.9974e-05,0
0.889,1.7288e-05,0
0.8895,1.7288e-05,0
0.89,2.0646e-05,0
0.8905,2.266e-05,0
0.891,2.6017e-05,0
0.8915,2.6352e-05,0
0.892,1.8967e-05,0
0.8925,1.3596e-05,0
0.893,1.4267e-05,0
0.8935,1.6953e-05,0
0.894,1.6953e-05,0
0.8945,1.5946e-05,0
0.895,1.7121e-05,0
0.8955,1.7288e-05,0
0.896,1.6449e-05,0
0.8965,1.6281e-05,0
0.897,1.8296e-05,0
0.8975,2.1988e-05,0
0.898,2.0646e-05,0
0.8985,1.6953e-05,0
0.899,1.4939e-05,0
0.8995,1.4267e-05,0
0.9,1.8463e-05,0
0.9005,2.1988e-05,0
0.901,1.947e-05,0
0.9015,1.7624e-05,0
0.902,1.9303e-05,0
0.9025,2.1149e-05,0
0.903,2.0981e-05,0
0.9035,2.182e-05,0
0.904,2.3331e-05,0
0.9045,2.2156e-05,0
0.905,1.9303e-05,0
0.9055,1.7121e-05,0
0.906,1.6281e-05,0
0.9065,1.7792e-05,0
0.907,1.8296e-05,0
0.9075,1.7121e-05,0
0.908,1.7288e-05,0
0.9085,2.0646e-05,0
0.909,2.4338e-05,0
0.9095,2.2492e-05,0
0.91,1.7792e-05,0
0.9105,1.6953e-05,0
0.911,1.8296e-05,0
0.9115,1.9638e-05,0
0.912,1.6953e-05,0
0.9125,1.4939e-05,0
0.913,1.796e-05,0
0.9135,2.0646e-05,0
0.914,1.947e-05,0
0.9145,1.8967e-05,0
0.915,1.9974e-05,0
0.9155,2.0981e-05,0
0.916,2.031e-05,0
0.9165,1.796e-05,0
0.917,1.7288e-05,0
0.9175,1.7624e-05,0
0.918,1.9974e-05,0
0.9185,2.1317e-05,0
0.919,2.2324e-05,0
0.9195,2.1317e-05,0
0.92,1.947e-05,0
0.9205,1.9135e-05,0
0.921,1.9303e-05,0
0.9215,1.7456e-05,0
0.922,1.6953e-05,0
0.9225,1.8296e-05,0
0.923,1.7288e-05,0
0.9235,1.6785e-05,0
0.924,1.7624e-05,0
0.9245,1.8799e-05,0
0.925,1.9303e-05,0
0.9255,1.8967e-05,0
0.926,1.8967e-05,0
0.9265,1.9974e-05,0
0.927,2.1653e-05,0
0.9275,2.2324e-05,0
0.928,2.1317e-05,0
0.9285,2.182e-05,0
0.929,2.2492e-05,0
0.9295,2.1149e-05,0
0.93,1.9303e-05,0
0.9305,1.7792e-05,0
0.931,1.8967e-05,0
0.9315,1.947e-05,0
0.932,1.6617e-05,0
0.9325,1.4099e-05,0
0.933,1.3932e-05,0
0.9335,1.2589e-05,0
0.934,1.1582e-05,0
0.9345,1.4939e-05,0
0.935,1.8296e-05,0
0.9355,1.8967e-05,0
0.936,1.8463e-05,0
0.9365,1.8631e-05,0
0.937,1.7624e-05,0
0.9375,1.4603e-05,0
0.938,1.2924e-05,0
0.9385,1.3428e-05,0
0.939,1.5274e-05,0
0.9395,1.6449e-05,0
0.94,1.7288e-05,0
0.9405,1.947e-05,0
0.941,2.1317e-05,0
0.9415,2.2324e-05,0
0.942,2.1988e-05,0
0.9425,2.3331e-05,0
0.943,2.6017e-05,0
0.9435,2.4002e-05,0
0.944,1.9638e-05,0
0.9445,1.8631e-05,0
0.945,2.1988e-05,0
0.9455,2.4842e-05,0
0.946,2.4002e-05,0
0.9465,2.1317e-05,0
0.947,2.0646e-05,0
0.9475,1.9303e-05,0
0.948,1.5946e-05,0
0.9485,1.2253e-05,0
0.949,1.3092e-05,0
0.9495,1.7624e-05,0
0.95,1.9806e-05,0
0.9505,2.1149e-05,0
0.951,2.1317e-05,0
0.9515,2.0478e-05,0
0.952,1.5778e-05,0
0.9525,1.326e-05,0
0.953,1.6953e-05,0
0.9535,1.9135e-05,0
0.954,1.6617e-05,0
0.9545,1.5274e-05,0
0.955,1.5778e-05,0
0.9555,1.6449e-05,0
0.956,1.6449e-05,0
0.9565,1.6281e-05,0
0.957,1.6785e-05,0
0.9575,1.7288e-05,0
0.958,1.7288e-05,0
0.9585,1.796e-05,0
0.959,1.796e-05,0
0.9595,1.6281e-05,0
0.96,1.5274e-05,0
0.9605,1.4603e-05,0
0.961,1.5778e-05,0
0.9615,1.8967e-05,0
0.962,2.1317e-05,0
0.9625,2.0646e-05,0
0.963,1.796e-05,0
0.9635,1.7288e-05,0
0.964,1.8296e-05,0
0.9645,1.8463e-05,0
0.965,1.8463e-05,0
0.9655,1.7624e-05,0
0.966,1.8128e-05,0
0.9665,1.9135e-05,0
0.967,1.6281e-05,0
0.9675,1.5946e-05,0
0.968,1.796e-05,0
0.9685,1.9135e-05,0
0.969,1.9638e-05,0
0.9695,1.9638e-05,0
0.97,1.9974e-05,0
0.9705,1.8967e-05,0
0.971,1.6953e-05,0
0.9715,1.7792e-05,0
0.972,1.796e-05,0
0.9725,1.5274e-05,0
0.973,1.3764e-05,0
0.9735,1.796e-05,0
0.974,2.1317e-05,0
0.9745,1.9974e-05,0
0.975,1.9638e-05,0
0.9755,2.1653e-05,0
0.976,2.4674e-05,0
0.9765,2.4506e-05,0
0.977,2.0646e-05,0
0.9775,1.9303e-05,0
0.978,1.9303e-05,0
0.9785,1.8463e-05,0
0.979,1.9303e-05,0
0.9795,2.1317e-05,0
0.98,2.3835e-05,0
0.9805,2.6017e-05,0
0.981,2.4002e-05,0
0.9815,2.0981e-05,0
0.982,2.1988e-05,0
0.9825,2.4338e-05,0
0.983,2.1988e-05,0
0.9835,1.7792e-05,0
0.984,1.6953e-05,0
0.9845,1.9638e-05,0
0.985,2.1317e-05,0
0.9855,2.266e-05,0
0.986,2.1988e-05,0
0.9865,1.8967e-05,0
0.987,1.8296e-05,0
0.9875,2.031e-05,0
0.988,1.9806e-05,0
0.9885,1.9135e-05,0
0.989,1.9303e-05,0
0.9895,2.1149e-05,0
0.99,1.9135e-05,0
0.9905,1.6617e-05,0
0.991,1.7121e-05,0
0.9915,1.6281e-05,0
0.992,1.5274e-05,0
0.9925,1.3932e-05,0
0.993,1.5442e-05,0
0.9935,1.8631e-05,0
0.994,1.8967e-05,0
0.9945,1.4267e-05,0
0.995,1.091e-05,0
0.9955,1.2589e-05,0
0.996,1.9974e-05,0
0.9965,2.5681e-05,0
0.997,2.4002e-05,0
0.9975,1.8463e-05,0
0.998,1.5274e-05,0
0.9985,1.4603e-05,0
0.999,1.4267e-05,0
0.9995,1.6953e-05,0
1,2.1988e-05,0
1.0005,2.2828e-05,0
1.001,2.1317e-05,0
1.0015,1.9303e-05,0
1.002,1.796e-05,0
1.0025,2.266e-05,0
1.003,2.3331e-05,0
1.0035,1.8631e-05,0
1.004,1.6785e-05,0
1.0045,1.9303e-05,0
1.005,2.0646e-05,0
1.0055,2.266e-05,0
1.006,2.2995e-05,0
1.0065,1.8296e-05,0
1.007,1.6617e-05,0
1.0075,1.6953e-05,0
1.008,1.9135e-05,0
1.0085,1.9974e-05,0
1.009,1.8631e-05,0
1.0095,1.8296e-05,0
1.01,1.6953e-05,0
1.0105,1.4603e-05,0
1.011,1.1582e-05,0
1.0115,1.2757e-05,0
1.012,1.7456e-05,0
1.0125,2.031e-05,0
1.013,1.9135e-05,0
1.0135,1.6785e-05,0
1.014,1.7288e-05,0
1.0145,2.0981e-05,0
1.015,2.1988e-05,0
1.0155,2.1317e-05,0
1.016,1.8296e-05,0
1.0165,1.561e-05,0
1.017,1.8463e-05,0
1.0175,2.0981e-05,0
1.018,2.031e-05,0
1.0185,2.0646e-05,0
1.019,2.1317e-05,0
1.0195,2.0646e-05,0
1.02,1.9638e-05,0
1.0205,1.8296e-05,0
1.021,1.7792e-05,0
1.0215,1.5946e-05,0
1.022,1.561e-05,0
1.0225,1.6617e-05,0
1.023,1.8631e-05,0
1.0235,1.9974e-05,0
1.024,2.031e-05,0
1.0245,1.9974e-05,0
1.025,1.9303e-05,0
1.0255,1.7624e-05,0
1.026,2.1317e-05,0
1.0265,2.5345e-05,0
1.027,2.4842e-05,0
1.0275,2.182e-05,0
1.028,1.9638e-05,0
1.0285,2.1988e-05,0
1.029,2.4002e-05,0
1.0295,2.3835e-05,0
1.03,2.1988e-05,0
1.0305,1.8967e-05,0
1.031,1.7792e-05,0
1.0315,1.9135e-05,0
1.032,2.0981e-05,0
1.0325,1.8296e-05,0
1.033,1.4603e-05,0
1.0335,1.4603e-05,0
1.034,1.5946e-05,0
1.0345,1.2924e-05,0
1.035,8.896e-06,0
1.0355,7.5532e-06,0
1.036,8.896e-06,0
1.0365,1.1246e-05,0
1.037,1.3932e-05,0
1.0375,1.7288e-05,0
1.038,1.7121e-05,0
1.0385,1.5106e-05,0
1.039,1.7624e-05,0
1.0395,1.9806e-05,0
1.04,2.1317e-05,0
1.0405,2.266e-05,0
1.041,2.0142e-05,0
1.0415,1.8967e-05,0
1.042,1.9638e-05,0
1.0425,1.9303e-05,0
1.043,1.7624e-05,0
1.0435,1.5274e-05,0
1.044,1.4939e-05,0
1.0445,1.7792e-05,0
1.045,1.947e-05,0
1.0455,1.9303e-05,0
1.046,1.8799e-05,0
1.0465,1.7792e-05,0
1.047,1.796e-05,0
1.0475,2.031e-05,0
1.048,2.031e-05,0
1.0485,1.9974e-05,0
1.049,2.0478e-05,0
1.0495,2.0142e-05,0
1.05,2.1317e-05,0
1.0505,2.0478e-05,0
1.051,1.9638e-05,0
1.0515,2.1317e-05,0
1.052,2.2324e-05,0
1.0525,1.8967e-05,0
1.053,1.8296e-05,0
1.0535,1.9638e-05,0
1.054,1.8967e-05,0
1.0545,1.9638e-05,0
1.055,1.8967e-05,0
1.0555,1.6449e-05,0
1.056,1.7288e-05,0
1.0565,1.7624e-05,0
1.057,1.3932e-05,0
1.0575,1.326e-05,0
1.058,1.5946e-05,0
1.0585,1.7121e-05,0
1.059,1.6449e-05,0
1.0595,1.5106e-05,0
1.06,1.5106e-05,0
1.0605,1.7288e-05,0
1.061,1.8631e-05,0
1.0615,1.6953e-05,0
1.062,1.7624e-05,0
1.0625,1.8631e-05,0
1.063,1.7288e-05,0
1.0635,1.8631e-05,0
1.064,2.1653e-05,0
1.0645,2.2156e-05,0
1.065,1.947e-05,0
1.0655,1.9135e-05,0
1.066,2.2324e-05,0
1.0665,2.2995e-05,0
1.067,2.266e-05,0
1.0675,2.2492e-05,0
1.068,2.0813e-05,0
1.0685,2.031e-05,0
1.069,2.1317e-05,0
1.0695,2.2492e-05,0
1.07,2.0981e-05,0
1.0705,2.0646e-05,0
1.071,1.9806e-05,0
1.0715,1.6785e-05,0
1.072,1.3764e-05,0
1.0725,1.2589e-05,0
1.073,1.5946e-05,0
1.0735,1.947e-05,0
1.074,2.1653e-05,0
1.0745,2.1317e-05,0
1.075,1.7624e-05,0
1.0755,1.796e-05,0
1.076,2.1317e-05,0
1.0765,2.2995e-05,0
1.077,2.031e-05,0
1.0775,1.8296e-05,0
1.078,1.796e-05,0
1.0785,1.9974e-05,0
1.079,2.1317e-05,0
1.0795,1.9135e-05,0
1.08,1.7288e-05,0
1.0805,1.6617e-05,0
1.081,1.3932e-05,0
1.0815,1.326e-05,0
1.082,1.5274e-05,0
1.0825,1.3596e-05,0
1.083,9.3996e-06,0
1.0835,1.0239e-05,0
1.084,1.4603e-05,0
1.0845,1.9303e-05,0
1.085,2.1317e-05,0
1.0855,1.796e-05,0
1.086,1.2589e-05,0
1.0865,1.1078e-05,0
1.087,1.3932e-05,0
1.0875,1.326e-05,0
1.088,1.0407e-05,0
1.0885,1.1078e-05,0
1.089,1.4603e-05,0
1.0895,1.8296e-05,0
1.09,1.8631e-05,0
1.0905,1.796e-05,0
1.091,1.796e-05,0
1.0915,1.9974e-05,0
1.092,2.1988e-05,0
1.0925,2.1317e-05,0
1.093,1.9638e-05,0
1.0935,1.9303e-05,0
1.094,2.0478e-05,0
1.0945,1.9303e-05,0
1.095,1.9974e-05,0
1.0955,2.0646e-05,0
1.096,2.1317e-05,0
1.0965,2.3331e-05,0
1.097,2.4002e-05,0
1.0975,2.3163e-05,0
1.098,1.9638e-05,0
1.0985,1.7288e-05,0
1.099,1.8631e-05,0
1.0995,2.2995e-05,0
1.1,2.3835e-05,0
1.1005,2.1988e-05,0
1.101,2.031e-05,0
1.1015,1.9303e-05,0
1.102,1.8296e-05,0
1.1025,1.7288e-05,0
1.103,1.4603e-05,0
1.1035,1.1246e-05,0
1.104,1.2421e-05,0
1.1045,1.5442e-05,0
1.105,1.5946e-05,0
1.1055,1.4603e-05,0
1.106,1.3932e-05,0
1.1065,1.7624e-05,0
1.107,2.182e-05,0
1.1075,2.2492e-05,0
1.108,2.0646e-05,0
1.1085,1.8631e-05,0
1.109,1.8631e-05,0
1.1095,2.1149e-05,0
1.11,2.1317e-05,0
1.1105,2.0646e-05,0
1.111,2.1653e-05,0
1.1115,2.1988e-05,0
1.112,2.0981e-05,0
1.1125,1.9135e-05,0
1.113,1.9974e-05,0
1.1135,2.2156e-05,0
1.114,2.5177e-05,0
1.1145,2.7359e-05,0
1.115,2.5513e-05,0
1.1155,2.0981e-05,0
1.116,1.8128e-05,0
1.1165,1.8463e-05,0
1.117,1.9974e-05,0
1.1175,2.266e-05,0
1.118,2.3163e-05,0
1.1185,2.1317e-05,0
1.119,2.0981e-05,0
1.1195,2.2995e-05,0
1.12,2.2324e-05,0
1.1205,1.9806e-05,0
1.121,2.1317e-05,0
1.1215,2.2492e-05,0
1.122,1.8128e-05,0
1.1225,1.5946e-05,0
1.123,1.6617e-05,0
1.1235,1.5274e-05,0
1.124,1.4939e-05,0
1.1245,1.4939e-05,0
1.125,1.5946e-05,0
1.1255,1.7121e-05,0
1.126,1.8296e-05,0
1.1265,1.9974e-05,0
1.127,2.182e-05,0
1.1275,2.2828e-05,0
1.128,2.4002e-05,0
1.1285,2.4338e-05,0
1.129,2.4002e-05,0
1.1295,2.4842e-05,0
1.13,2.4002e-05,0
1.1305,2.266e-05,0
1.131,2.1653e-05,0
1.1315,2.0478e-05,0
1.132,1.8631e-05,0
1.1325,1.9135e-05,0
1.133,1.8631e-05,0
1.1335,1.5946e-05,0
1.134,1.326e-05,0
1.1345,1.3092e-05,0
1.135,1.4603e-05,0
1.1355,1.6617e-05,0
1.136,1.6785e-05,0
1.1365,1.5946e-05,0
1.137,1.6281e-05,0
1.1375,1.6953e-05,0
1.138,1.5946e-05,0
1.1385,1.6953e-05,0
1.139,1.9974e-05,0
1.1395,1.9974e-05,0
1.14,1.7624e-05,0
1.1405,1.6281e-05,0
1.141,1.7624e-05,0
1.1415,2.182e-05,0
1.142,2.3499e-05,0
1.1425,2.0478e-05,0
1.143,1.8631e-05,0
1.1435,2.0478e-05,0
1.144,1.8631e-05,0
1.1445,1.8967e-05,0
1.145,2.266e-05,0
1.1455,2.4506e-05,0
1.146,2.182e-05,0
1.1465,1.8296e-05,0
1.147,1.7792e-05,0
1.1475,1.796e-05,0
1.148,1.7288e-05,0
1.1485,1.5442e-05,0
1.149,1.2421e-05,0
1.1495,1.1582e-05,0
1.15,1.4603e-05,0
1.1505,1.6617e-05,0
1.151,1.8463e-05,0
1.1515,2.0646e-05,0
1.152,2.1653e-05,0
1.1525,2.0981e-05,0
1.153,1.8631e-05,0
1.1535,1.7121e-05,0
1.154,1.7624e-05,0
1.1545,1.8128e-05,0
1.155,1.8296e-05,0
1.1555,1.7792e-05,0
1.156,1.5946e-05,0
1.1565,1.4603e-05,0
1.157,1.326e-05,0
1.1575,1.561e-05,0
1.158,1.7288e-05,0
1.1585,1.5946e-05,0
1.159,1.4099e-05,0
1.1595,1.326e-05,0
1.16,1.5274e-05,0
1.1605,1.5274e-05,0
1.161,1.1078e-05,0
1.1615,1.1246e-05,0
1.162,1.6617e-05,0
1.1625,1.8296e-05,0
1.163,1.5946e-05,0
1.1635,1.4939e-05,0
1.164,1.7121e-05,0
1.1645,1.796e-05,0
1.165,1.7792e-05,0
1.1655,1.6953e-05,0
1.166,1.6449e-05,0
1.1665,1.5778e-05,0
1.167,1.3932e-05,0
1.1675,1.2421e-05,0
1.168,1.326e-05,0
1.1685,1.4939e-05,0
1.169,1.6114e-05,0
1.1695,1.796e-05,0
1.17,2.1988e-05,0
1.1705,2.5177e-05,0
1.171,2.6688e-05,0
1.1715,2.6688e-05,0
1.172,2.4674e-05,0
1.1725,2.1988e-05,0
1.173,2.0813e-05,0
1.1735,1.8296e-05,0
1.174,1.7288e-05,0
1.1745,1.9638e-05,0
1.175,2.0981e-05,0
1.1755,2.1317e-05,0
1.176,2.2324e-05,0
1.1765,2.4506e-05,0
1.177,2.652e-05,0
1.1775,2.6688e-05,0
1.178,2.7863e-05,0
1.1785,3.0381e-05,0
1.179,2.6688e-05,0
1.1795,1.9638e-05,0
1.18,1.5946e-05,0
1.1805,1.5946e-05,0
1.181,1.7624e-05,0
1.1815,2.0478e-05,0
1.182,2.031e-05,0
1.1825,1.7121e-05,0
1.183,1.4603e-05,0
1.1835,1.6281e-05,0
1.184,2.0478e-05,0
1.1845,2.1988e-05,0
1.185,1.796e-05,0
1.1855,1.326e-05,0
1.186,1.1917e-05,0
1.1865,1.1246e-05,0
1.187,1.1246e-05,0
1.1875,1.4939e-05,0
1.188,1.5946e-05,0
1.1885,1.561e-05,0
1.189,1.7121e-05,0
1.1895,1.7288e-05,0
1.19,1.7456e-05,0
1.1905,1.8128e-05,0
1.191,1.7288e-05,0
1.1915,1.6617e-05,0
1.192,1.8631e-05,0
1.1925,1.9974e-05,0
1.193,1.9974e-05,0
1.1935,1.9974e-05,0
1.194,1.947e-05,0
1.1945,1.9974e-05,0
1.195,2.1988e-05,0
1.1955,2.2324e-05,0
1.196,1.8631e-05,0
1.1965,1.5778e-05,0
1.197,1.8463e-05,0
1.1975,2.1317e-05,0
1.198,1.947e-05,0
1.1985,1.6953e-05,0
1.199,1.796e-05,0
1.1995,1.7121e-05,0
1.2,1.6281e-05,0
1.2005,1.8296e-05,0
1.201,1.6953e-05,0
1.2015,1.4267e-05,0
1.202,1.4267e-05,0
1.2025,1.796e-05,0
1.203,2.0981e-05,0
1.2035,1.9135e-05,0
1.204,1.5946e-05,0
1.2045,1.5778e-05,0
1.205,1.9303e-05,0
1.2055,2.4338e-05,0
1.206,2.4674e-05,0
1.2065,2.3331e-05,0
1.207,2.182e-05,0
1.2075,2.0646e-05,0
1.208,2.1317e-05,0
1.2085,2.266e-05,0
1.209,2.3331e-05,0
1.2095,2.4674e-05,0
1.21,2.2324e-05,0
1.2105,1.9303e-05,0
1.211,1.947e-05,0
1.2115,2.0646e-05,0
1.212,1.9135e-05,0
1.2125,1.6953e-05,0
1.213,1.6953e-05,0
1.2135,1.796e-05,0
1.214,1.796e-05,0
1.2145,1.7792e-05,0
1.215,2.031e-05,0
1.2155,2.4338e-05,0
1.216,2.6688e-05,0
1.2165,2.3331e-05,0
1.217,1.9974e-05,0
1.2175,1.9135e-05,0
1.218,1.9303e-05,0
1.2185,1.9303e-05,0
1.219,1.9806e-05,0
1.2195,2.0813e-05,0
1.22,1.9974e-05,0
1.2205,1.6449e-05,0
1.221,1.326e-05,0
1.2215,1.3932e-05,0
1.222,1.796e-05,0
1.2225,2.0646e-05,0
1.223,1.9303e-05,0
1.2235,1.7288e-05,0
1.224,1.6617e-05,0
1.2245,1.7624e-05,0
1.225,1.9303e-05,0
1.2255,1.796e-05,0
1.226,1.7121e-05,0
1.2265,1.9806e-05,0
1.227,1.8463e-05,0
1.2275,1.2421e-05,0
1.228,1.0239e-05,0
1.2285,1.2253e-05,0
1.229,1.5106e-05,0
1.2295,1.5946e-05,0
1.23,1.5946e-05,0
1.2305,1.5946e-05,0
1.231,1.7792e-05,0
1.2315,1.8967e-05,0
1.232,2.0646e-05,0
1.2325,2.0981e-05,0
1.233,1.9638e-05,0
1.2335,1.8296e-05,0
1.234,1.796e-05,0
1.2345,1.7456e-05,0
1.235,1.7624e-05,0
1.2355,1.5946e-05,0
1.236,1.5274e-05,0
1.2365,1.8296e-05,0
1.237,2.0478e-05,0
1.2375,2.0478e-05,0
1.238,2.0646e-05,0
1.2385,2.031e-05,0
1.239,1.9806e-05,0
1.2395,1.9974e-05,0
1.24,2.0646e-05,0
1.2405,2.0981e-05,0
1.241,1.9974e-05,0
1.2415,1.8463e-05,0
1.242,1.8631e-05,0
1.2425,1.796e-05,0
1.243,1.8967e-05,0
1.2435,2.0478e-05,0
1.244,1.9638e-05,0
1.2445,1.7792e-05,0
1.245,1.561e-05,0
1.2455,1.561e-05,0
1.246,1.6281e-05,0
1.2465,1.7624e-05,0
1.247,1.8631e-05,0
1.2475,1.8967e-05,0
1.248,1.796e-05,0
1.2485,1.7456e-05,0
1.249,1.8967e-05,0
1.2495,2.0646e-05,0
1.25,1.8799e-05,0
1.2505,1.5442e-05,0
1.251,1.6617e-05,0
1.2515,1.9806e-05,0
1.252,2.1149e-05,0
1.2525,2.1317e-05,0
1.253,2.3499e-05,0
1.2535,2.5681e-05,0
1.254,2.1653e-05,0
1.2545,1.7288e-05,0
1.255,1.6281e-05,0
1.2555,1.8967e-05,0
1.256,2.0981e-05,0
1.2565,2.182e-05,0
1.257,2.031e-05,0
1.2575,1.8631e-05,0
1.258,1.6953e-05,0
1.2585,1.6449e-05,0
1.259,2.0142e-05,0
1.2595,2.3667e-05,0
1.26,2.3331e-05,0
1.2605,1.9974e-05,0
1.261,1.6281e-05,0
1.2615,1.561e-05,0
1.262,1.561e-05,0
1.2625,1.7624e-05,0
1.263,1.6617e-05,0
1.2635,1.4603e-05,0
1.264,1.5778e-05,0
1.2645,1.6785e-05,0
1.265,1.7624e-05,0
1.2655,1.9135e-05,0
1.266,2.031e-05,0
1.2665,2.1149e-05,0
1.267,1.9974e-05,0
1.2675,1.9135e-05,0
1.268,2.1317e-05,0
1.2685,2.2492e-05,0
1.269,2.1653e-05,0
1.2695,2.1317e-05,0
1.27,2.0981e-05,0
1.2705,2.2324e-05,0
1.271,2.5009e-05,0
1.2715,2.7192e-05,0
1.272,2.4674e-05,0
1.2725,1.947e-05,0
1.273,1.5946e-05,0
1.2735,1.6281e-05,0
1.274,1.7624e-05,0
1.2745,1.7288e-05,0
1.275,1.7121e-05,0
1.2755,1.7624e-05,0
1.276,1.9303e-05,0
1.2765,1.9638e-05,0
1.277,1.7624e-05,0
1.2775,1.7288e-05,0
1.278,1.8967e-05,0
1.2785,2.0981e-05,0
1.279,1.9974e-05,0
1.2795,1.561e-05,0
1.28,1.5946e-05,0
1.2805,1.561e-05,0
1.281,1.326e-05,0
1.2815,1.2924e-05,0
1.282,1.3428e-05,0
1.2825,1.3764e-05,0
1.283,1.4603e-05,0
1.2835,1.5946e-05,0
1.284,1.796e-05,0
1.2845,2.1317e-05,0
1.285,2.5345e-05,0
1.2855,2.5345e-05,0
1.286,2.1653e-05,0
1.2865,1.8128e-05,0
1.287,1.8463e-05,0
1.2875,2.0646e-05,0
1.288,2.2995e-05,0
1.2885,2.5177e-05,0
1.289,2.2828e-05,0
1.2895,1.561e-05,0
1.29,1.1414e-05,0
1.2905,1.2085e-05,0
1.291,1.2924e-05,0
1.2915,1.2589e-05,0
1.292,1.2589e-05,0
1.2925,1.326e-05,0
1.293,1.6114e-05,0
1.2935,1.7456e-05,0
1.294,1.4771e-05,0
1.2945,1.4267e-05,0
1.295,1.796e-05,0
1.2955,1.9806e-05,0
1.296,1.8631e-05,0
1.2965,1.4603e-05,0
1.297,1.1749e-05,0
1.2975,1.1749e-05,0
1.298,1.4099e-05,0
1.2985,1.6281e-05,0
1.299,1.6953e-05,0
1.2995,1.5442e-05,0
1.3,1.5946e-05,0
1.3005,1.8631e-05,0
1.301,2.0813e-05,0
1.3015,1.947e-05,0
1.302,1.561e-05,0
1.3025,1.326e-05,0
1.303,1.4603e-05,0
1.3035,1.5274e-05,0
1.304,1.5274e-05,0
1.3045,1.5778e-05,0
1.305,1.5442e-05,0
1.3055,1.6617e-05,0
1.306,1.9303e-05,0
1.3065,1.8967e-05,0
1.307,1.8128e-05,0
1.3075,1.7288e-05,0
1.308,1.8296e-05,0
1.3085,1.9974e-05,0
1.309,1.9638e-05,0
1.3095,1.9638e-05,0
1.31,2.0813e-05,0
1.3105,2.1317e-05,0
1.311,1.8967e-05,0
1.3115,1.9974e-05,0
1.312,2.1317e-05,0
1.3125,2.2324e-05,0
1.313,2.4002e-05,0
1.3135,2.5849e-05,0
1.314,2.4674e-05,0
1.3145,2.3667e-05,0
1.315,2.2492e-05,0
1.3155,2.2324e-05,0
1.316,2.1317e-05,0
1.3165,2.031e-05,0
1.317,1.9135e-05,0
1.3175,2.0142e-05,0
1.318,2.1317e-05,0
1.3185,2.1988e-05,0
1.319,1.8631e-05,0
1.3195,1.4603e-05,0
1.32,1.6281e-05,0
1.3205,2.2324e-05,0
1.321,2.6017e-05,0
1.3215,2.4338e-05,0
1.322,2.266e-05,0
1.3225,2.1988e-05,0
1.323,2.2156e-05,0
1.3235,2.2492e-05,0
1.324,2.4338e-05,0
1.3245,2.7359e-05,0
1.325,2.7695e-05,0
1.3255,2.4002e-05,0
1.326,1.9638e-05,0
1.3265,1.6281e-05,0
1.327,1.6449e-05,0
1.3275,1.8631e-05,0
1.328,1.9135e-05,0
1.3285,1.7288e-05,0
1.329,1.4603e-05,0
1.3295,1.1749e-05,0
1.33,1.1078e-05,0
1.3305,1.2589e-05,0
1.331,1.3932e-05,0
1.3315,1.561e-05,0
1.332,1.7624e-05,0
1.3325,1.7792e-05,0
1.333,1.8631e-05,0
1.3335,2.2492e-05,0
1.334,2.3667e-05,0
1.3345,2.3835e-05,0
1.335,2.4002e-05,0
1.3355,2.2995e-05,0
1.336,2.1988e-05,0
1.3365,2.2324e-05,0
1.337,2.4002e-05,0
1.3375,2.3835e-05,0
1.338,2.1317e-05,0
1.3385,1.947e-05,0
1.339,1.9303e-05,0
1.3395,1.8631e-05,0
1.34,1.7288e-05,0
1.3405,1.5274e-05,0
1.341,1.1917e-05,0
1.3415,1.1246e-05,0
1.342,1.3596e-05,0
1.3425,1.3596e-05,0
1.343,1.326e-05,0
1.3435,1.5946e-05,0
1.344,1.7792e-05,0
1.3445,1.8967e-05,0
1.345,2.0478e-05,0
1.3455,2.0813e-05,0
1.346,2.1317e-05,0
1.3465,2.5009e-05,0
1.347,2.4674e-05,0
1.3475,1.9974e-05,0
1.348,1.7288e-05,0
1.3485,2.0478e-05,0
1.349,2.4002e-05,0
1.3495,2.3331e-05,0
1.35,1.9806e-05,0
1.3505,1.9806e-05,0
1.351,2.0478e-05,0
1.3515,2.1317e-05,0
1.352,2.031e-05,0
1.3525,1.6953e-05,0
1.353,1.4771e-05,0
1.3535,1.4603e-05,0
1.354,1.5106e-05,0
1.3545,1.326e-05,0
1.355,1.091e-05,0
1.3555,9.5674e-06,0
1.356,1.0071e-05,0
1.3565,1.2924e-05,0
1.357,1.5946e-05,0
1.3575,1.4939e-05,0
1.358,1.3092e-05,0
1.3585,1.3092e-05,0
1.359,1.5106e-05,0
1.3595,1.7121e-05,0
1.36,1.796e-05,0
1.3605,1.9135e-05,0
1.361,1.7288e-05,0
1.3615,1.4435e-05,0
1.362,1.4603e-05,0
1.3625,1.7121e-05,0
1.363,1.9303e-05,0
1.3635,2.0813e-05,0
1.364,2.1988e-05,0
1.3645,2.266e-05,0
1.365,2.1653e-05,0
1.3655,2.1317e-05,0
1.366,2.1988e-05,0
1.3665,2.4338e-05,0
1.367,2.6017e-05,0
1.3675,2.4674e-05,0
1.368,2.5009e-05,0
1.3685,2.6017e-05,0
1.369,2.4674e-05,0
1.3695,2.266e-05,0
1.37,2.1988e-05,0
1.3705,1.9638e-05,0
1.371,1.7288e-05,0
1.3715,1.4603e-05,0
1.372,1.326e-05,0
1.3725,1.326e-05,0
1.373,1.3764e-05,0
1.3735,1.6785e-05,0
1.374,1.7624e-05,0
1.3745,1.796e-05,0
1.375,1.7121e-05,0
1.3755,1.4603e-05,0
1.376,1.326e-05,0
1.3765,1.5274e-05,0
1.377,1.561e-05,0
1.3775,1.6281e-05,0
1.378,1.7792e-05,0
1.3785,1.9974e-05,0
1.379,2.1988e-05,0
1.3795,2.5009e-05,0
1.38,2.6352e-05,0
1.3805,2.6017e-05,0
1.381,2.6352e-05,0
1.3815,2.5345e-05,0
1.382,2.5009e-05,0
1.3825,2.6688e-05,0
1.383,2.7192e-05,0
1.3835,2.4002e-05,0
1.384,1.8631e-05,0
1.3845,1.2924e-05,0
1.385,1.0239e-05,0
1.3855,1.1582e-05,0
1.386,1.326e-05,0
1.3865,1.2757e-05,0
1.387,1.4435e-05,0
1.3875,1.7456e-05,0
1.388,2.0813e-05,0
1.3885,2.266e-05,0
1.389,2.2324e-05,0
1.3895,1.8463e-05,0
1.39,1.4603e-05,0
1.3905,1.4099e-05,0
1.391,1.4603e-05,0
1.3915,1.2757e-05,0
1.392,9.7353e-06,0
1.3925,6.8818e-06,0
1.393,2.8534e-06,0
1.3935,5.035e-07,0
1.394,5.2033e-06,0
1.3945,1.1246e-05,0
1.395,1.1917e-05,0
1.3955,1.3596e-05,0
1.396,1.7288e-05,0
1.3965,1.796e-05,0
1.397,1.8463e-05,0
1.3975,1.8296e-05,0
1.398,2.1317e-05,0
1.3985,2.8367e-05,0
1.399,3.3402e-05,0
1.3995,3.1724e-05,0
1.4,2.9038e-05,0
1.4005,3.0045e-05,0
1.401,2.9374e-05,0
1.4015,2.6688e-05,0
1.402,2.6688e-05,0
1.4025,2.6688e-05,0
1.403,2.5681e-05,0
1.4035,2.4002e-05,0
1.404,2.5345e-05,0
1.4045,2.5849e-05,0
1.405,2.3499e-05,0
1.4055,2.2324e-05,0
1.406,1.9638e-05,0
1.4065,1.8631e-05,0
1.407,1.8463e-05,0
1.4075,1.4771e-05,0
1.408,1.1749e-05,0
1.4085,1.2757e-05,0
1.409,1.4267e-05,0
1.4095,1.4267e-05,0
1.41,1.3428e-05,0
1.4105,1.2421e-05,0
1.411,1.1917e-05,0
1.4115,1.2421e-05,0
1.412,1.2589e-05,0
1.4125,1.326e-05,0
1.413,1.6281e-05,0
1.4135,1.6953e-05,0
1.414,1.796e-05,0
1.4145,1.8631e-05,0
1.415,1.8967e-05,0
1.4155,2.1988e-05,0
1.416,2.4506e-05,0
1.4165,2.2324e-05,0
1.417,2.0981e-05,0
1.4175,2.182e-05,0
1.418,1.9638e-05,0
1.4185,1.7288e-05,0
1.419,1.3932e-05,0
1.4195,9.0639e-06,0
1.42,8.2246e-06,0
1.4205,9.9031e-06,0
1.421,1.091e-05,0
1.4215,1.0575e-05,0
1.422,6.2104e-06,0
1.4225,3.8605e-06,0
1.423,7.8889e-06,0
1.4235,1.2421e-05,0
1.424,1.4939e-05,0
1.4245,1.6617e-05,0
1.425,1.8463e-05,0
1.4255,2.1317e-05,0
1.426,2.4674e-05,0
1.4265,2.7527e-05,0
1.427,2.6688e-05,0
1.4275,2.4002e-05,0
1.428,2.1317e-05,0
1.4285,1.9974e-05,0
1.429,1.9303e-05,0
1.4295,1.947e-05,0
1.43,2.1317e-05,0
1.4305,2.5009e-05,0
1.431,2.7359e-05,0
1.4315,2.8031e-05,0
1.432,2.7863e-05,0
1.4325,2.8031e-05,0
1.433,2.6688e-05,0
1.4335,2.6184e-05,0
1.434,2.8702e-05,0
1.4345,2.9374e-05,0
1.435,2.7527e-05,0
1.4355,2.5345e-05,0
1.436,2.3331e-05,0
1.4365,2.1317e-05,0
1.437,1.9303e-05,0
1.4375,1.7456e-05,0
1.438,1.5778e-05,0
1.4385,1.4771e-05,0
1.439,1.561e-05,0
1.4395,1.5946e-05,0
1.44,1.5274e-05,0
1.4405,1.4603e-05,0
1.441,1.4435e-05,0
1.4415,1.4939e-05,0
1.442,1.5274e-05,0
1.4425,1.5274e-05,0
1.443,1.561e-05,0
1.4435,1.3932e-05,0
1.444,1.1414e-05,0
1.4445,1.1246e-05,0
1.445,1.1749e-05,0
1.4455,1.4267e-05,0
1.446,1.9303e-05,0
1.4465,2.2324e-05,0
1.447,1.9974e-05,0
1.4475,1.4435e-05,0
1.448,1.1246e-05,0
1.4485,8.896e-06,0
1.449,4.8676e-06,0
1.4495,3.8605e-06,0
1.45,5.7069e-06,0
1.4505,3.8605e-06,0
1.451,2.182e-06,0
1.4515,3.8605e-06,0
1.452,9.2317e-06,0
1.4525,1.5946e-05,0
1.453,1.9806e-05,0
1.4535,1.9974e-05,0
1.454,1.8799e-05,0
1.4545,1.9303e-05,0
1.455,1.9638e-05,0
1.4555,1.9638e-05,0
1.456,2.2995e-05,0
1.4565,2.5681e-05,0
1.457,2.8702e-05,0
1.4575,3.2059e-05,0
1.458,3.2731e-05,0
1.4585,3.0045e-05,0
1.459,2.9374e-05,0
1.4595,3.2059e-05,0
1.46,3.2731e-05,0
1.4605,3.3234e-05,0
1.461,3.0381e-05,0
1.4615,2.5345e-05,0
1.462,2.5009e-05,0
1.4625,2.5009e-05,0
1.463,2.4002e-05,0
1.4635,2.2492e-05,0
1.464,2.1988e-05,0
1.4645,2.1988e-05,0
1.465,2.1149e-05,0
1.4655,1.8631e-05,0
1.466,1.8631e-05,0
1.4665,1.8296e-05,0
1.467,1.5946e-05,0
1.4675,1.4603e-05,0
1.468,1.4603e-05,0
1.4685,1.5442e-05,0
1.469,1.5946e-05,0
1.4695,1.7624e-05,0
1.47,2.0981e-05,0
1.4705,2.5513e-05,0
1.471,2.5345e-05,0
1.4715,2.4338e-05,0
1.472,2.5681e-05,0
1.4725,2.652e-05,0
1.473,2.4674e-05,0
1.4735,2.2324e-05,0
1.474,2.1317e-05,0
1.4745,2.182e-05,0
1.475,2.5009e-05,0
1.4755,2.5345e-05,0
1.476,2.3667e-05,0
1.4765,2.4002e-05,0
1.477,2.6017e-05,0
1.4775,2.6688e-05,0
1.478,2.6688e-05,0
1.4785,2.7695e-05,0
1.479,2.7192e-05,0
1.4795,2.5009e-05,0
1.48,2.0813e-05,0
1.4805,1.6617e-05,0
1.481,1.6953e-05,0
1.4815,1.796e-05,0
1.482,1.7456e-05,0
1.4825,1.6953e-05,0
1.483,1.6281e-05,0
1.4835,1.6953e-05,0
1.484,1.4939e-05,0
1.4845,1.326e-05,0
1.485,1.4603e-05,0
1.4855,1.6617e-05,0
1.486,1.5946e-05,0
1.4865,1.6281e-05,0
1.487,1.4939e-05,0
1.4875,1.561e-05,0
1.488,1.9806e-05,0
1.4885,2.0646e-05,0
1.489,1.6953e-05,0
1.4895,1.4603e-05,0
1.49,1.6281e-05,0
1.4905,1.5778e-05,0
1.491,1.3428e-05,0
1.4915,1.3764e-05,0
1.492,1.561e-05,0
1.4925,1.561e-05,0
1.493,1.4771e-05,0
1.4935,1.5442e-05,0
1.494,1.5946e-05,0
1.4945,1.2589e-05,0
1.495,8.5603e-06,0
1.4955,1.0071e-05,0
1.496,9.9031e-06,0
1.4965,8.896e-06,0
1.497,1.1246e-05,0
1.4975,1.3596e-05,0
1.498,1.2757e-05,0
1.4985,1.0575e-05,0
1.499,9.9031e-06,0
1.4995,1.2589e-05,0
1.5,1.561e-05,0
1.5005,1.7121e-05,0
1.501,1.6449e-05,0
1.5015,1.5442e-05,0
1.502,1.8463e-05,0
1.5025,2.1317e-05,0
1.503,1.8631e-05,0
1.5035,1.6953e-05,0
1.504,1.6953e-05,0
1.5045,1.5106e-05,0
1.505,1.6449e-05,0
1.5055,2.0478e-05,0
1.506,2.2492e-05,0
1.5065,2.2492e-05,0
1.507,2.3667e-05,0
1.5075,2.4506e-05,0
1.508,2.182e-05,0
1.5085,1.8128e-05,0
1.509,1.6281e-05,0
1.5095,1.796e-05,0
1.51,1.9638e-05,0
1.5105,1.9303e-05,0
1.511,1.9806e-05,0
1.5115,1.8631e-05,0
1.512,1.4603e-05,0
1.5125,1.4267e-05,0
1.513,1.561e-05,0
1.5135,1.5946e-05,0
1.514,1.561e-05,0
1.5145,1.5946e-05,0
1.515,1.7288e-05,0
1.5155,1.7624e-05,0
1.516,1.796e-05,0
1.5165,1.796e-05,0
1.517,1.6449e-05,0
1.5175,1.6953e-05,0
1.518,1.8463e-05,0
1.5185,1.9638e-05,0
1.519,2.1317e-05,0
1.5195,1.947e-05,0
1.52,1.6617e-05,0
1.5205,1.6281e-05,0
1.521,1.7288e-05,0
1.5215,1.9974e-05,0
1.522,2.1317e-05,0
1.5225,2.266e-05,0
1.523,2.2492e-05,0
1.5235,2.1988e-05,0
1.524,2.1988e-05,0
1.5245,1.8296e-05,0
1.525,1.5946e-05,0
1.5255,1.7288e-05,0
1.526,1.9303e-05,0
1.5265,1.9806e-05,0
1.527,1.796e-05,0
1.5275,1.7121e-05,0
1.528,2.0142e-05,0
1.5285,2.2995e-05,0
1.529,1.9974e-05,0
1.5295,1.5946e-05,0
1.53,1.6953e-05,0
1.5305,2.0981e-05,0
1.531,2.4002e-05,0
1.5315,2.266e-05,0
1.532,1.8967e-05,0
1.5325,1.8631e-05,0
1.533,1.9806e-05,0
1.5335,1.9303e-05,0
1.534,1.7624e-05,0
1.5345,1.7288e-05,0
1.535,1.7792e-05,0
1.5355,1.9974e-05,0
1.536,1.8463e-05,0
1.5365,1.2924e-05,0
1.537,1.0575e-05,0
1.5375,1.1582e-05,0
1.538,1.5274e-05,0
1.5385,1.8967e-05,0
1.539,2.1149e-05,0
1.5395,2.0981e-05,0
1.54,1.9638e-05,0
1.5405,1.8296e-05,0
1.541,1.9638e-05,0
1.5415,2.2492e-05,0
1.542,2.1317e-05,0
1.5425,2.0646e-05,0
1.543,2.2324e-05,0
1.5435,2.1317e-05,0
1.544,1.9638e-05,0
1.5445,1.9638e-05,0
1.545,2.266e-05,0
1.5455,2.266e-05,0
1.546,1.9806e-05,0
1.5465,1.5946e-05,0
1.547,1.2421e-05,0
1.5475,1.1078e-05,0
1.548,1.2589e-05,0
1.5485,1.5274e-05,0
1.549,1.5442e-05,0
1.5495,1.4267e-05,0
1.55,1.1917e-05,0
1.5505,9.5674e-06,0
1.551,1.2421e-05,0
1.5515,1.9303e-05,0
1.552,1.947e-05,0
1.5525,1.7288e-05,0
1.553,1.7624e-05,0
1.5535,1.8967e-05,0
1.554,1.9806e-05,0
1.5545,1.9135e-05,0
1.555,2.0478e-05,0
1.5555,2.1149e-05,0
1.556,1.8631e-05,0
1.5565,1.6617e-05,0
1.557,1.5946e-05,0
1.5575,1.5274e-05,0
1.558,1.5778e-05,0
1.5585,1.8631e-05,0
1.559,2.3331e-05,0
1.5595,2.5345e-05,0
1.56,2.3499e-05,0
1.5605,2.0813e-05,0
1.561,1.9974e-05,0
1.5615,2.1149e-05,0
1.562,1.947e-05,0
1.5625,1.5946e-05,0
1.563,1.5274e-05,0
1.5635,1.561e-05,0
1.564,1.5946e-05,0
1.5645,1.5946e-05,0
1.565,1.5274e-05,0
1.5655,1.6449e-05,0
1.566,1.6953e-05,0
1.5665,1.8631e-05,0
1.567,2.2156e-05,0
1.5675,2.6352e-05,0
1.568,3.0716e-05,0
1.5685,3.3066e-05,0
1.569,3.2731e-05,0
1.5695,3.0549e-05,0
1.57,2.8367e-05,0
1.5705,2.5513e-05,0
1.571,2.2995e-05,0
1.5715,2.2324e-05,0
1.572,2.2492e-05,0
1.5725,2.1317e-05,0
1.573,2.0813e-05,0
1.5735,2.2492e-05,0
1.574,2.4002e-05,0
1.5745,2.5681e-05,0
1.575,2.6017e-05,0
1.5755,2.4002e-05,0
1.576,2.6352e-05,0
1.5765,2.887e-05,0
1.577,2.7024e-05,0
1.5775,2.5849e-05,0
1.578,2.5345e-05,0
1.5785,2.266e-05,0
1.579,2.1317e-05,0
1.5795,2.0981e-05,0
1.58,1.9303e-05,0
1.5805,1.9806e-05,0
1.581,2.2156e-05,0
1.5815,2.4842e-05,0
1.582,2.5681e-05,0
1.5825,2.4002e-05,0
1.583,2.0646e-05,0
1.5835,1.7624e-05,0
1.584,1.796e-05,0
1.5845,1.8799e-05,0
1.585,1.796e-05,0
1.5855,1.5778e-05,0
1.586,1.5442e-05,0
1.5865,1.6281e-05,0
1.587,1.7288e-05,0
1.5875,1.6953e-05,0
1.588,1.5946e-05,0
1.5885,1.8967e-05,0
1.589,2.4002e-05,0
1.5895,2.4506e-05,0
1.59,2.1653e-05,0
1.5905,2.182e-05,0
1.591,2.1317e-05,0
1.5915,1.9974e-05,0
1.592,1.8631e-05,0
1.5925,1.8631e-05,0
1.593,1.8296e-05,0
1.5935,1.6281e-05,0
1.594,1.326e-05,0
1.5945,1.0239e-05,0
1.595,8.5603e-06,0
1.5955,8.2246e-06,0
1.596,9.5674e-06,0
1.5965,1.2589e-05,0
1.597,1.3932e-05,0
1.5975,1.2589e-05,0
1.598,1.2253e-05,0
1.5985,1.5106e-05,0
1.599,1.6281e-05,0
1.5995,1.4939e-05,0
1.6,1.4435e-05,0
1.6005,1.5946e-05,0
1.601,1.5274e-05,0
1.6015,1.3764e-05,0
1.602,1.4939e-05,0
1.6025,1.8128e-05,0
1.603,1.6617e-05,0
1.6035,1.2589e-05,0
1.604,1.2589e-05,0
1.6045,1.5274e-05,0
1.605,1.7624e-05,0
1.6055,1.5442e-05,0
1.606,1.1582e-05,0
1.6065,9.7353e-06,0
1.607,9.9031e-06,0
1.6075,1.0407e-05,0
1.608,1.1582e-05,0
1.6085,1.2589e-05,0
1.609,1.4435e-05,0
1.6095,1.5274e-05,0
1.61,1.5274e-05,0
1.6105,1.6281e-05,0
1.611,1.6953e-05,0
1.6115,1.6617e-05,0
1.612,1.796e-05,0
1.6125,2.1653e-05,0
1.613,2.5009e-05,0
1.6135,2.7359e-05,0
1.614,2.6688e-05,0
1.6145,2.2995e-05,0
1.615,2.266e-05,0
1.6155,2.2995e-05,0
1.616,2.1317e-05,0
1.6165,1.8631e-05,0
1.617,1.6281e-05,0
1.6175,1.561e-05,0
1.618,1.5946e-05,0
1.6185,1.561e-05,0
1.619,1.4099e-05,0
1.6195,1.5106e-05,0
1.62,1.8296e-05,0
1.6205,1.8967e-05,0
1.621,1.7792e-05,0
1.6215,1.4603e-05,0
1.622,1.2589e-05,0
1.6225,1.3764e-05,0
1.623,1.8631e-05,0
1.6235,2.5177e-05,0
1.624,3.0381e-05,0
1.6245,3.4745e-05,0
1.625,3.743e-05,0
1.6255,3.743e-05,0
1.626,3.3402e-05,0
1.6265,2.7863e-05,0
1.627,2.0981e-05,0
1.6275,1.5274e-05,0
1.628,1.3764e-05,0
1.6285,1.1917e-05,0
1.629,7.7211e-06,0
1.6295,5.8747e-06,0
1.63,5.2033e-06,0
1.6305,3.5248e-06,0
1.631,1.8463e-06,0
1.6315,1.6785e-06,0
1.632,4.8676e-06,0
1.6325,9.9031e-06,0
1.633,1.6617e-05,0
1.6335,2.1317e-05,0
1.634,2.3331e-05,0
1.6345,2.6688e-05,0
1.635,3.2731e-05,0
1.6355,3.743e-05,0
1.636,3.6591e-05,0
1.6365,3.1388e-05,0
1.637,2.6017e-05,0
1.6375,2.4674e-05,0
1.638,2.5849e-05,0
1.6385,2.4338e-05,0
1.639,1.8463e-05,0
1.6395,1.6953e-05,0
1.64,1.9638e-05,0
1.6405,2.1317e-05,0
1.641,2.1317e-05,0
1.6415,1.9135e-05,0
1.642,1.6281e-05,0
1.6425,1.5778e-05,0
1.643,1.4435e-05,0
1.6435,1.3092e-05,0
1.644,1.1749e-05,0
1.6445,1.4435e-05,0
1.645,1.6953e-05,0
1.6455,1.8631e-05,0
1.646,1.9974e-05,0
1.6465,2.1653e-05,0
1.647,2.5681e-05,0
1.6475,2.9374e-05,0
1.648,2.9374e-05,0
1.6485,2.8031e-05,0
1.649,2.9374e-05,0
1.6495,2.9374e-05,0
1.65,2.5177e-05,0
1.6505,1.8128e-05,0
1.651,9.9031e-06,0
1.6515,4.0284e-06,0
1.652,3.1891e-06,0
1.6525,4.8676e-06,0
1.653,5.0355e-06,0
1.6535,1.8463e-06,0
1.654,-3.357e-07,0
1.6545,1.1749e-06,0
1.655,5.8747e-06,0
1.6555,1.3932e-05,0
1.656,2.031e-05,0
1.6565,2.1149e-05,0
1.657,2.1317e-05,0
1.6575,2.4674e-05,0
1.658,2.7695e-05,0
1.6585,2.5345e-05,0
1.659,2.182e-05,0
1.6595,2.2156e-05,0
1.66,2.4506e-05,0
1.6605,2.6352e-05,0
1.661,2.6184e-05,0
1.6615,2.5177e-05,0
1.662,2.3667e-05,0
1.6625,2.3331e-05,0
1.663,2.3163e-05,0
1.6635,2.3499e-05,0
1.664,2.1988e-05,0
1.6645,1.8631e-05,0
1.665,1.561e-05,0
1.6655,1.5274e-05,0
1.666,1.5778e-05,0
1.6665,1.4939e-05,0
1.667,1.7624e-05,0
1.6675,1.8631e-05,0
1.668,1.8296e-05,0
1.6685,1.9638e-05,0
1.669,1.9303e-05,0
1.6695,1.6617e-05,0
1.67,1.5106e-05,0
1.6705,1.3932e-05,0
1.671,1.2421e-05,0
1.6715,1.1246e-05,0
1.672,1.1917e-05,0
1.6725,1.4435e-05,0
1.673,1.6617e-05,0
1.6735,1.561e-05,0
1.674,1.4939e-05,0
1.6745,1.7624e-05,0
1.675,2.1317e-05,0
1.6755,1.9303e-05,0
1.676,1.0575e-05,0
1.6765,3.8605e-06,0
1.677,2.5177e-06,0
1.6775,4.5319e-06,0
1.678,7.2175e-06,0
1.6785,8.896e-06,0
1.679,7.5532e-06,0
1.6795,8.5603e-06,0
1.68,1.3932e-05,0
1.6805,1.6281e-05,0
1.681,1.7624e-05,0
1.6815,2.0646e-05,0
1.682,2.3835e-05,0
1.6825,2.5849e-05,0
1.683,2.3667e-05,0
1.6835,2.0646e-05,0
1.684,2.1149e-05,0
1.6845,2.1988e-05,0
1.685,2.3667e-05,0
1.6855,2.3499e-05,0
1.686,2.4506e-05,0
1.6865,2.5009e-05,0
1.687,2.4002e-05,0
1.6875,2.5009e-05,0
1.688,2.6352e-05,0
1.6885,2.7695e-05,0
1.689,2.8031e-05,0
1.6895,2.6688e-05,0
1.69,2.5681e-05,0
1.6905,2.4674e-05,0
1.691,2.2156e-05,0
1.6915,2.1317e-05,0
1.692,2.1988e-05,0
1.6925,2.0981e-05,0
1.693,2.0646e-05,0
1.6935,2.0142e-05,0
1.694,2.182e-05,0
1.6945,2.4842e-05,0
1.695,2.4002e-05,0
1.6955,2.2995e-05,0
1.696,2.2324e-05,0
1.6965,2.1988e-05,0
1.697,1.9806e-05,0
1.6975,1.5946e-05,0
1.698,1.326e-05,0
1.6985,1.4939e-05,0
1.699,1.8967e-05,0
1.6995,1.9638e-05,0
1.7,1.8799e-05,0
1.7005,1.8128e-05,0
1.701,1.8967e-05,0
1.7015,2.1988e-05,0
1.702,2.0646e-05,0
1.7025,1.5274e-05,0
1.703,1.0575e-05,0
1.7035,9.7353e-06,0
1.704,1.2253e-05,0
1.7045,1.6785e-05,0
1.705,1.8967e-05,0
1.7055,1.796e-05,0
1.706,1.8631e-05,0
1.7065,1.8296e-05,0
1.707,1.6617e-05,0
1.7075,1.9135e-05,0
1.708,2.266e-05,0
1.7085,2.266e-05,0
1.709,2.1317e-05,0
1.7095,1.9638e-05,0
1.71,1.8631e-05,0
1.7105,1.9638e-05,0
1.711,2.2324e-05,0
1.7115,2.2324e-05,0
1.712,2.1317e-05,0
1.7125,1.9974e-05,0
1.713,1.5778e-05,0
1.7135,1.2757e-05,0
1.714,1.2421e-05,0
1.7145,1.3092e-05,0
1.715,1.3932e-05,0
1.7155,1.3092e-05,0
1.716,1.2085e-05,0
1.7165,1.2589e-05,0
1.717,1.4267e-05,0
1.7175,1.8296e-05,0
1.718,2.2324e-05,0
1.7185,2.6352e-05,0
1.719,3.1724e-05,0
1.7195,3.743e-05,0
1.72,3.7934e-05,0
1.7205,3.3402e-05,0
1.721,2.8031e-05,0
1.7215,2.4842e-05,0
1.722,2.5345e-05,0
1.7225,2.5345e-05,0
1.723,2.3667e-05,0
1.7235,2.266e-05,0
1.724,2.0981e-05,0
1.7245,1.7624e-05,0
1.725,1.5274e-05,0
1.7255,1.5778e-05,0
1.726,1.561e-05,0
1.7265,1.5946e-05,0
1.727,1.561e-05,0
1.7275,1.326e-05,0
1.728,1.1917e-05,0
1.7285,1.1414e-05,0
1.729,1.2924e-05,0
1.7295,1.4603e-05,0
1.73,1.5778e-05,0
1.7305,1.7288e-05,0
1.731,1.796e-05,0
1.7315,1.8296e-05,0
1.732,1.796e-05,0
1.7325,1.7288e-05,0
1.733,1.6617e-05,0
1.7335,1.5106e-05,0
1.734,1.1917e-05,0
1.7345,1.0575e-05,0
1.735,1.1246e-05,0
1.7355,1.1749e-05,0
1.736,1.2924e-05,0
1.7365,1.1917e-05,0
1.737,1.091e-05,0
1.7375,1.2421e-05,0
1.738,1.2924e-05,0
1.7385,1.091e-05,0
1.739,1.0575e-05,0
1.7395,1.4267e-05,0
1.74,1.9135e-05,0
1.7405,2.2324e-05,0
1.741,2.4002e-05,0
1.7415,2.4002e-05,0
1.742,2.1317e-05,0
1.7425,1.8631e-05,0
1.743,1.6449e-05,0
1.7435,1.796e-05,0
1.744,1.947e-05,0
1.7445,1.8631e-05,0
1.745,1.947e-05,0
1.7455,2.2156e-05,0
1.746,2.3331e-05,0
1.7465,2.5849e-05,0
1.747,2.8702e-05,0
1.7475,2.9374e-05,0
1.748,2.8534e-05,0
1.7485,2.7024e-05,0
1.749,2.6688e-05,0
1.7495,2.4674e-05,0
1.75,2.0478e-05,0
1.7505,1.5946e-05,0
1.751,1.3932e-05,0
1.7515,1.3596e-05,0
1.752,1.5274e-05,0
1.7525,1.6617e-05,0
1.753,1.3596e-05,0
1.7535,9.5674e-06,0
1.754,7.3854e-06,0
1.7545,7.8889e-06,0
1.755,9.5674e-06,0
1.7555,1.2589e-05,0
1.756,1.4603e-05,0
1.7565,1.3764e-05,0
1.757,1.2589e-05,0
1.7575,1.4603e-05,0
1.758,1.7624e-05,0
1.7585,1.5274e-05,0
1.759,1.2253e-05,0
1.7595,1.3092e-05,0
1.76,1.4603e-05,0
1.7605,1.796e-05,0
1.761,2.031e-05,0
1.7615,1.8128e-05,0
1.762,1.6617e-05,0
1.7625,2.031e-05,0
1.763,2.4674e-05,0
1.7635,2.3331e-05,0
1.764,1.9638e-05,0
1.7645,1.8799e-05,0
1.765,2.1317e-05,0
1.7655,2.0981e-05,0
1.766,2.0142e-05,0
1.7665,2.0646e-05,0
1.767,2.0478e-05,0
1.7675,1.8631e-05,0
1.768,1.8967e-05,0
1.7685,2.182e-05,0
1.769,2.3331e-05,0
1.7695,2.3667e-05,0
1.77,2.0981e-05,0
1.7705,1.8631e-05,0
1.771,2.1988e-05,0
1.7715,2.5681e-05,0
1.772,2.5345e-05,0
1.7725,2.3331e-05,0
1.773,2.1317e-05,0
1.7735,2.1317e-05,0
1.774,2.1653e-05,0
1.7745,2.031e-05,0
1.775,2.0142e-05,0
1.7755,1.7288e-05,0
1.776,1.2924e-05,0
1.7765,1.1917e-05,0
1.777,1.326e-05,0
1.7775,1.3596e-05,0
1.778,1.6617e-05,0
1.7785,1.9135e-05,0
1.779,2.1149e-05,0
1.7795,2.266e-05,0
1.78,2.5345e-05,0
1.7805,2.8534e-05,0
1.781,3.0381e-05,0
1.7815,3.2059e-05,0
1.782,3.4073e-05,0
1.7825,3.5248e-05,0
1.783,3.4745e-05,0
1.7835,3.0884e-05,0
1.784,2.7024e-05,0
1.7845,2.1988e-05,0
1.785,1.947e-05,0
1.7855,2.0646e-05,0
1.786,2.0981e-05,0
1.7865,2.0981e-05,0
1.787,2.031e-05,0
1.7875,1.8463e-05,0
1.788,1.5442e-05,0
1.7885,1.7121e-05,0
1.789,2.1988e-05,0
1.7895,2.3331e-05,0
1.79,2.1317e-05,0
1.7905,1.8967e-05,0
1.791,1.7288e-05,0
1.7915,1.6617e-05,0
1.792,1.6617e-05,0
1.7925,1.7288e-05,0
1.793,1.8296e-05,0
1.7935,1.7288e-05,0
1.794,1.7288e-05,0
1.7945,1.8296e-05,0
1.795,1.8463e-05,0
1.7955,1.9806e-05,0
1.796,2.0981e-05,0
1.7965,2.1988e-05,0
1.797,2.3667e-05,0
1.7975,2.3667e-05,0
1.798,2.1653e-05,0
1.7985,2.0478e-05,0
1.799,1.9638e-05,0
1.7995,2.1988e-05,0
1.8,2.4674e-05,0
1.8005,2.3331e-05,0
1.801,2.2492e-05,0
1.8015,2.5345e-05,0
1.802,2.8702e-05,0
1.8025,2.8534e-05,0
1.803,2.8367e-05,0
1.8035,2.652e-05,0
1.804,2.2995e-05,0
1.8045,2.0646e-05,0
1.805,1.9974e-05,0
1.8055,2.0478e-05,0
1.806,2.1653e-05,0
1.8065,2.182e-05,0
1.807,1.9303e-05,0
1.8075,1.4603e-05,0
1.808,1.1246e-05,0
1.8085,1.2589e-05,0
1.809,1.2253e-05,0
1.8095,8.896e-06,0
1.81,9.0639e-06,0
1.8105,1.0575e-05,0
1.811,8.2246e-06,0
1.8115,7.2175e-06,0
1.812,6.2104e-06,0
1.8125,3.1891e-06,0
1.813,3.8605e-06,0
1.8135,6.2104e-06,0
1.814,1.0407e-05,0
1.8145,1.326e-05,0
1.815,1.326e-05,0
1.8155,9.5674e-06,0
1.816,9.2317e-06,0
1.8165,1.3764e-05,0
1.817,1.5274e-05,0
1.8175,1.5946e-05,0
1.818,1.5778e-05,0
1.8185,1.4603e-05,0
1.819,1.4939e-05,0
1.8195,1.6281e-05,0
1.82,1.8631e-05,0
1.8205,1.8296e-05,0
1.821,1.6281e-05,0
1.8215,1.4099e-05,0
1.822,1.1749e-05,0
1.8225,1.0575e-05,0
1.823,1.2924e-05,0
1.8235,1.4267e-05,0
1.824,1.4267e-05,0
1.8245,1.4603e-05,0
1.825,1.5442e-05,0
1.8255,1.561e-05,0
1.826,1.326e-05,0
1.8265,1.1246e-05,0
1.827,1.1582e-05,0
1.8275,1.5274e-05,0
1.828,1.9303e-05,0
1.8285,2.1149e-05,0
1.829,2.0646e-05,0
1.8295,1.9974e-05,0
1.83,1.9638e-05,0
1.8305,2.031e-05,0
1.831,1.8463e-05,0
1.8315,1.4603e-05,0
1.832,1.1917e-05,0
1.8325,1.0575e-05,0
1.833,1.2924e-05,0
1.8335,1.4435e-05,0
1.834,1.3092e-05,0
1.8345,1.2589e-05,0
1.835,1.3596e-05,0
1.8355,1.0575e-05,0
1.836,2.5177e-06,0
1.8365,-1.5106e-06,0
1.837,1.1749e-06,0
1.8375,7.8889e-06,0
1.838,1.091e-05,0
1.8385,1.0239e-05,0
1.839,1.0071e-05,0
1.8395,1.1749e-05,0
1.84,1.5946e-05,0
1.8405,2.0142e-05,0
1.841,2.4002e-05,0
1.8415,2.9374e-05,0
1.842,3.6088e-05,0
1.8425,4.1123e-05,0
1.843,4.0452e-05,0
1.8435,3.5416e-05,0
1.844,3.1388e-05,0
1.8445,3.0045e-05,0
1.845,2.9709e-05,0
1.8455,2.8367e-05,0
1.846,2.7192e-05,0
1.8465,2.5513e-05,0
1.847,2.7359e-05,0
1.8475,3.2731e-05,0
1.848,3.3738e-05,0
1.8485,2.9038e-05,0
1.849,2.4674e-05,0
1.8495,2.3163e-05,0
1.85,2.4338e-05,0
1.8505,2.887e-05,0
1.851,3.0884e-05,0
1.8515,3.1891e-05,0
1.852,3.2898e-05,0
1.8525,3.3402e-05,0
1.853,3.1724e-05,0
1.8535,2.5681e-05,0
1.854,2.1988e-05,0
1.8545,2.031e-05,0
1.855,1.7288e-05,0
1.8555,1.5274e-05,0
1.856,1.561e-05,0
1.8565,1.8128e-05,0
1.857,2.031e-05,0
1.8575,2.1317e-05,0
1.858,1.796e-05,0
1.8585,1.4603e-05,0
1.859,1.5274e-05,0
1.8595,1.9974e-05,0
1.86,2.3667e-05,0
1.8605,2.7192e-05,0
1.861,2.5849e-05,0
1.8615,2.0646e-05,0
1.862,1.9303e-05,0
1.8625,1.8967e-05,0
1.863,1.5946e-05,0
1.8635,1.4267e-05,0
1.864,1.4603e-05,0
1.8645,1.4771e-05,0
1.865,1.4267e-05,0
1.8655,1.5778e-05,0
1.866,1.5946e-05,0
1.8665,1.5442e-05,0
1.867,1.561e-05,0
1.8675,1.6617e-05,0
1.868,1.5946e-05,0
1.8685,1.326e-05,0
1.869,1.2924e-05,0
1.8695,1.6617e-05,0
1.87,1.9974e-05,0
1.8705,1.7121e-05,0
1.871,1.3092e-05,0
1.8715,1.3932e-05,0
1.872,1.5946e-05,0
1.8725,1.6953e-05,0
1.873,1.7288e-05,0
1.8735,1.561e-05,0
1.874,1.2924e-05,0
1.8745,1.2589e-05,0
1.875,1.326e-05,0
1.8755,1.3764e-05,0
1.876,1.5274e-05,0
1.8765,1.6281e-05,0
1.877,1.561e-05,0
1.8775,1.4267e-05,0
1.878,1.326e-05,0
1.8785,1.3932e-05,0
1.879,1.796e-05,0
1.8795,2.3331e-05,0
1.88,2.4002e-05,0
1.8805,2.0813e-05,0
1.881,2.0646e-05,0
1.8815,2.3163e-05,0
1.882,2.3667e-05,0
1.8825,2.3331e-05,0
1.883,2.4002e-05,0
1.8835,2.2492e-05,0
1.884,2.031e-05,0
1.8845,2.0646e-05,0
1.885,2.182e-05,0
1.8855,2.4338e-05,0
1.886,2.5345e-05,0
1.8865,2.4002e-05,0
1.887,2.2324e-05,0
1.8875,1.9135e-05,0
1.888,1.8128e-05,0
1.8885,2.0646e-05,0
1.889,2.0646e-05,0
1.8895,1.9135e-05,0
1.89,1.5274e-05,0
1.8905,1.0239e-05,0
1.891,8.2246e-06,0
1.8915,4.8676e-06,0
1.892,1.5106e-06,0
1.8925,-3.357e-07,0
1.893,-1.0071e-06,0
1.8935,1.678e-07,0
1.894,2.182e-06,0
1.8945,6.5461e-06,0
1.895,9.2317e-06,0
1.8955,1.1246e-05,0
1.896,1.1917e-05,0
1.8965,1.326e-05,0
1.897,1.5946e-05,0
1.8975,1.8296e-05,0
1.898,1.8631e-05,0
1.8985,2.1317e-05,0
1.899,2.4002e-05,0
1.8995,2.5009e-05,0
1.9,2.266e-05,0
1.9005,2.1988e-05,0
1.901,2.4674e-05,0
1.9015,2.5345e-05,0
1.902,2.2324e-05,0
1.9025,1.8631e-05,0
1.903,1.9135e-05,0
1.9035,2.2156e-05,0
1.904,2.4002e-05,0
1.9045,2.2995e-05,0
1.905,2.1317e-05,0
1.9055,2.1317e-05,0
1.906,2.0981e-05,0
1.9065,2.0981e-05,0
1.907,2.5009e-05,0
1.9075,2.6017e-05,0
1.908,2.0478e-05,0
1.9085,1.7288e-05,0
1.909,1.9638e-05,0
1.9095,2.5009e-05,0
1.91,2.7024e-05,0
1.9105,2.5009e-05,0
1.911,2.4506e-05,0
1.9115,2.3499e-05,0
1.912,2.2156e-05,0
1.9125,2.182e-05,0
1.913,2.0478e-05,0
1.9135,1.7624e-05,0
1.914,1.7288e-05,0
1.9145,1.6281e-05,0
1.915,1.6281e-05,0
1.9155,1.9974e-05,0
1.916,2.1317e-05,0
1.9165,2.1317e-05,0
1.917,2.1317e-05,0
1.9175,2.0981e-05,0
1.918,2.1653e-05,0
1.9185,2.1317e-05,0
1.919,1.9135e-05,0
1.9195,2.0142e-05,0
1.92,2.2995e-05,0
1.9205,2.2995e-05,0
1.921,1.9974e-05,0
1.9215,1.6281e-05,0
1.922,1.5946e-05,0
1.9225,1.8967e-05,0
1.923,1.8463e-05,0
1.9235,1.4099e-05,0
1.924,1.1917e-05,0
1.9245,1.4603e-05,0
1.925,1.5778e-05,0
1.9255,1.4603e-05,0
1.926,1.1582e-05,0
1.9265,1.326e-05,0
1.927,1.8296e-05,0
1.9275,2.1988e-05,0
1.928,2.417e-05,0
1.9285,2.4002e-05,0
1.929,2.3331e-05,0
1.9295,2.4338e-05,0
1.93,2.2324e-05,0
1.9305,1.9303e-05,0
1.931,1.8631e-05,0
1.9315,1.7624e-05,0
1.932,1.5946e-05,0
1.9325,1.5274e-05,0
1.933,1.8296e-05,0
1.9335,2.1317e-05,0
1.934,2.0813e-05,0
1.9345,2.1317e-05,0
1.935,2.1988e-05,0
1.9355,2.3499e-05,0
1.936,2.5513e-05,0
1.9365,2.4002e-05,0
1.937,1.796e-05,0
1.9375,1.326e-05,0
1.938,1.2589e-05,0
1.9385,1.3932e-05,0
1.939,1.2421e-05,0
1.9395,1.091e-05,0
1.94,1.3596e-05,0
1.9405,1.7288e-05,0
1.941,1.9135e-05,0
1.9415,2.0646e-05,0
1.942,2.182e-05,0
1.9425,2.417e-05,0
1.943,2.7695e-05,0
1.9435,2.8534e-05,0
1.944,2.5177e-05,0
1.9445,2.3331e-05,0
1.945,2.7024e-05,0
1.9455,3.1891e-05,0
1.946,3.0045e-05,0
1.9465,2.6017e-05,0
1.947,2.0981e-05,0
1.9475,1.561e-05,0
1.948,1.4099e-05,0
1.9485,1.3932e-05,0
1.949,1.5442e-05,0
1.9495,1.8631e-05,0
1.95,2.1317e-05,0
1.9505,2.0813e-05,0
1.951,1.9806e-05,0
1.9515,1.9974e-05,0
1.952,2.031e-05,0
1.9525,2.1988e-05,0
1.953,2.2324e-05,0
1.9535,1.9303e-05,0
1.954,1.5442e-05,0
1.9545,1.796e-05,0
1.955,1.7624e-05,0
1.9555,1.2421e-05,0
1.956,1.1246e-05,0
1.9565,1.5274e-05,0
1.957,2.0646e-05,0
1.9575,2.0646e-05,0
1.958,1.7288e-05,0
1.9585,1.7288e-05,0
1.959,2.1317e-05,0
1.9595,2.6352e-05,0
1.96,2.7695e-05,0
1.9605,2.887e-05,0
1.961,2.7695e-05,0
1.9615,2.2324e-05,0
1.962,1.6617e-05,0
1.9625,1.4603e-05,0
1.963,1.5274e-05,0
1.9635,1.7121e-05,0
1.964,1.8631e-05,0
1.9645,2.0646e-05,0
1.965,2.2156e-05,0
1.9655,2.2995e-05,0
1.966,2.5345e-05,0
1.9665,2.7359e-05,0
1.967,2.8031e-05,0
1.9675,2.7359e-05,0
1.968,2.4002e-05,0
1.9685,1.8967e-05,0
1.969,1.6449e-05,0
1.9695,1.5106e-05,0
1.97,1.4435e-05,0
1.9705,1.4939e-05,0
1.971,1.7792e-05,0
1.9715,2.182e-05,0
1.972,2.6017e-05,0
1.9725,2.7192e-05,0
1.973,2.7192e-05,0
1.9735,2.7192e-05,0
1.974,2.5513e-05,0
1.9745,2.3667e-05,0
1.975,1.9303e-05,0
1.9755,1.2924e-05,0
1.976,8.3925e-06,0
1.9765,6.8818e-06,0
1.977,6.5461e-06,0
1.9775,5.0355e-06,0
1.978,1.5106e-06,0
1.9785,-4.3641e-06,0
1.979,-6.3783e-06,0
1.9795,-5.0355e-06,0
1.98,-5.7069e-06,0
1.9805,-6.8818e-06,0
1.981,-3.5248e-06,0
1.9815,2.3499e-06,0
1.982,5.2033e-06,0
1.9825,6.3783e-06,0
1.983,7.8889e-06,0
1.9835,1.2589e-05,0
1.984,1.6617e-05,0
1.9845,1.5274e-05,0
1.985,1.1246e-05,0
1.9855,7.5532e-06,0
1.986,8.3925e-06,0
1.9865,1.2924e-05,0
1.987,1.5946e-05,0
1.9875,1.6617e-05,0
1.988,1.4939e-05,0
1.9885,1.2421e-05,0
1.989,1.326e-05,0
1.9895,1.4267e-05,0
1.99,1.3596e-05,0
1.9905,1.6281e-05,0
1.991,1.9638e-05,0
1.9915,2.3667e-05,0
1.992,2.8031e-05,0
1.9925,3.1556e-05,0
1.993,3.4073e-05,0
1.9935,3.2731e-05,0
1.994,2.5009e-05,0
1.9945,1.8463e-05,0
1.995,1.8631e-05,0
1.9955,2.0981e-05,0
1.996,2.266e-05,0
1.9965,2.1317e-05,0
1.997,2.031e-05,0
1.9975,1.9974e-05,0
1.998,1.9303e-05,0
1.9985,1.9638e-05,0
1.999,2.0981e-05,0
1.9995,2.417e-05,0
2,2.5177e-05,0
2.0005,2.4002e-05,0
2.001,2.4338e-05,0
2.0015,2.5345e-05,0
2.002,2.7359e-05,0
2.0025,2.8702e-05,0
2.003,2.6688e-05,0
2.0035,2.1317e-05,0
2.004,1.6281e-05,0
2.0045,1.8296e-05,0
2.005,2.3499e-05,0
2.0055,2.6017e-05,0
2.006,2.4338e-05,0
2.0065,1.9303e-05,0
2.007,1.6617e-05,0
2.0075,1.9303e-05,0
2.008,1.9806e-05,0
2.0085,1.4939e-05,0
2.009,1.2085e-05,0
2.0095,1.4939e-05,0
2.01,2.031e-05,0
2.0105,2.5849e-05,0
2.011,3.0045e-05,0
2.0115,3.3738e-05,0
2.012,3.7095e-05,0
2.0125,3.7934e-05,0
2.013,3.743e-05,0
2.0135,3.7095e-05,0
2.014,3.508e-05,0
2.0145,3.357e-05,0
2.015,2.9038e-05,0
2.0155,1.8631e-05,0
2.016,1.0407e-05,0
2.0165,1.1749e-05,0
2.017,1.5106e-05,0
2.0175,1.3932e-05,0
2.018,1.0071e-05,0
2.0185,6.2104e-06,0
2.019,5.2033e-06,0
2.0195,7.2175e-06,0
2.02,9.0639e-06,0
2.0205,8.3925e-06,0
2.021,5.2033e-06,0
2.0215,4.0284e-06,0
2.022,5.2033e-06,0
2.0225,1.1582e-05,0
2.023,1.8631e-05,0
2.0235,2.1149e-05,0
2.024,1.9974e-05,0
2.0245,1.9638e-05,0
2.025,1.7792e-05,0
2.0255,1.3932e-05,0
2.026,1.3932e-05,0
2.0265,2.1317e-05,0
2.027,3.1556e-05,0
2.0275,3.743e-05,0
2.028,3.978e-05,0
2.0285,3.6759e-05,0
2.029,2.9038e-05,0
2.0295,2.5345e-05,0
2.03,2.9374e-05,0
2.0305,3.3234e-05,0
2.031,3.508e-05,0
2.0315,3.2395e-05,0
2.032,2.6352e-05,0
2.0325,2.3499e-05,0
2.033,2.2324e-05,0
2.0335,1.8463e-05,0
2.034,1.4267e-05,0
2.0345,1.2757e-05,0
2.035,1.561e-05,0
2.0355,1.947e-05,0
2.036,2.1988e-05,0
2.0365,1.9135e-05,0
2.037,1.2757e-05,0
2.0375,9.2317e-06,0
2.038,5.2033e-06,0
2.0385,-1.8463e-06,0
2.039,-7.2175e-06,0
2.0395,-5.0355e-06,0
2.04,4.5319e-06,0
2.0405,1.4435e-05,0
2.041,2.266e-05,0
2.0415,2.4842e-05,0
2.042,1.8631e-05,0
2.0425,1.4939e-05,0
2.043,1.5106e-05,0
2.0435,1.796e-05,0
2.044,2.182e-05,0
2.0445,2.3835e-05,0
2.045,2.3667e-05,0
2.0455,2.3331e-05,0
2.046,2.1653e-05,0
2.0465,2.1988e-05,0
2.047,2.1988e-05,0
2.0475,2.2324e-05,0
2.048,2.2324e-05,0
2.0485,1.9806e-05,0
2.049,1.7624e-05,0
2.0495,1.4603e-05,0
2.05,1.1582e-05,0
2.0505,8.3925e-06,0
2.051,3.8605e-06,0
2.0515,5.035e-07,0
2.052,2.3499e-06,0
2.0525,5.0355e-06,0
2.053,7.8889e-06,0
2.0535,8.7282e-06,0
2.054,7.2175e-06,0
2.0545,7.8889e-06,0
2.055,1.2589e-05,0
2.0555,1.7288e-05,0
2.056,1.9974e-05,0
2.0565,1.8967e-05,0
2.057,1.9806e-05,0
2.0575,2.4674e-05,0
2.058,3.0045e-05,0
2.0585,2.9374e-05,0
2.059,2.3331e-05,0
2.0595,1.8631e-05,0
2.06,1.6953e-05,0
2.0605,1.2253e-05,0
2.061,4.3641e-06,0
2.0615,-1.8463e-06,0
2.062,-1.0071e-06,0
2.0625,3.5248e-06,0
2.063,6.5461e-06,0
2.0635,9.9031e-06,0
2.064,1.2589e-05,0
2.0645,1.0407e-05,0
2.065,7.5532e-06,0
2.0655,8.5603e-06,0
2.066,1.1246e-05,0
2.0665,1.5442e-05,0
2.067,2.0813e-05,0
2.0675,2.6688e-05,0
2.068,3.2059e-05,0
2.0685,3.3738e-05,0
2.069,2.8367e-05,0
2.0695,2.1317e-05,0
2.07,2.0478e-05,0
2.0705,2.4338e-05,0
2.071,2.4002e-05,0
2.0715,1.9638e-05,0
2.072,1.3092e-05,0
2.0725,9.0639e-06,0
2.073,1.4267e-05,0
2.0735,2.2828e-05,0
2.074,2.8702e-05,0
2.0745,2.887e-05,0
2.075,2.5849e-05,0
2.0755,2.1317e-05,0
2.076,1.6449e-05,0
2.0765,2.0646e-05,0
2.077,3.5416e-05,0
2.0775,5.0858e-05,0
2.078,5.8915e-05,0
2.0785,5.7572e-05,0
2.079,5.0858e-05,0
2.0795,4.4144e-05,0
2.08,4.1459e-05,0
2.0805,3.6759e-05,0
2.081,1.9974e-05,0
2.0815,1.1749e-06,0
2.082,-1.0407e-05,0
2.0825,-1.1917e-05,0
2.083,-5.539e-06,0
2.0835,8.392e-07,0
2.084,-1.678e-07,0
2.0845,-2.182e-06,0
2.085,5.539e-06,0
2.0855,2.3667e-05,0
2.086,4.4312e-05,0
2.0865,5.5894e-05,0
2.087,5.8412e-05,0
2.0875,5.4719e-05,0
2.088,4.5151e-05,0
2.0885,3.7095e-05,0
2.089,3.0045e-05,0
2.0895,2.4002e-05,0
2.09,2.0981e-05,0
2.0905,1.8296e-05,0
2.091,1.9303e-05,0
2.0915,2.2995e-05,0
2.092,2.6688e-05,0
2.0925,3.122e-05,0
2.093,3.1724e-05,0
2.0935,2.652e-05,0
2.094,2.266e-05,0
2.0945,2.4002e-05,0
2.095,2.2492e-05,0
2.0955,1.561e-05,0
2.096,1.9806e-05,0
2.0965,3.6088e-05,0
2.097,4.5487e-05,0
2.0975,4.3641e-05,0
2.098,3.6759e-05,0
2.0985,2.8367e-05,0
2.099,2.031e-05,0
2.0995,9.2317e-06,0
2.1,3.357e-07,0
2.1005,-1.3428e-06,0
2.101,-2.182e-06,0
2.1015,-5.539e-06,0
2.102,-7.0497e-06,0
2.1025,-7.2175e-06,0
2.103,-5.8747e-06,0
2.1035,-2.5177e-06,0
2.104,3.357e-06,0
2.1045,7.7211e-06,0
2.105,9.7353e-06,0
2.1055,1.1582e-05,0
2.106,1.3764e-05,0
2.1065,1.796e-05,0
2.107,2.0981e-05,0
2.1075,2.2324e-05,0
2.108,2.3331e-05,0
2.1085,2.5513e-05,0
2.109,2.7024e-05,0
2.1095,2.5849e-05,0
2.11,2.3499e-05,0
2.1105,2.5681e-05,0
2.111,2.8031e-05,0
2.1115,2.5681e-05,0
2.112,1.9135e-05,0
2.1125,1.1917e-05,0
2.113,7.3854e-06,0
2.1135,3.1891e-06,0
2.114,-5.035e-07,0
2.1145,-1.8463e-06,0
2.115,-2.5177e-06,0
2.1155,-2.8534e-06,0
2.116,3.357e-07,0
2.1165,2.5177e-06,0
2.117,2.5177e-06,0
2.1175,2.5177e-06,0
2.118,4.1962e-06,0
2.1185,6.8818e-06,0
2.119,7.5532e-06,0
2.1195,8.7282e-06,0
2.12,1.1582e-05,0
2.1205,1.3764e-05,0
2.121,1.2253e-05,0
2.1215,1.0239e-05,0
2.122,1.2589e-05,0
2.1225,1.7288e-05,0
2.123,2.0142e-05,0
2.1235,2.2156e-05,0
2.124,2.4002e-05,0
2.1245,2.7024e-05,0
2.125,2.8031e-05,0
2.1255,2.5681e-05,0
2.126,2.2156e-05,0
2.1265,2.1988e-05,0
2.127,2.266e-05,0
2.1275,1.9974e-05,0
2.128,1.561e-05,0
2.1285,1.4603e-05,0
2.129,1.5946e-05,0
2.1295,1.796e-05,0
2.13,1.7288e-05,0
2.1305,1.796e-05,0
2.131,1.8967e-05,0
2.1315,2.1317e-05,0
2.132,2.5345e-05,0
2.1325,2.8367e-05,0
2.133,2.9374e-05,0
2.1335,3.0045e-05,0
2.134,2.9038e-05,0
2.1345,3.0381e-05,0
2.135,3.3402e-05,0
2.1355,3.3402e-05,0
2.136,3.0716e-05,0
2.1365,3.0716e-05,0
2.137,3.0716e-05,0
2.1375,3.2731e-05,0
2.138,3.8102e-05,0
2.1385,4.0619e-05,0
2.139,3.8773e-05,0
2.1395,3.2731e-05,0
2.14,2.8199e-05,0
2.1405,2.7863e-05,0
2.141,2.5009e-05,0
2.1415,2.0646e-05,0
2.142,1.5946e-05,0
2.1425,1.4603e-05,0
2.143,1.7288e-05,0
2.1435,1.6281e-05,0
2.144,1.6953e-05,0
2.1445,2.2324e-05,0
2.145,2.5681e-05,0
2.1455,2.5681e-05,0
2.146,2.1317e-05,0
2.1465,1.6617e-05,0
2.147,1.1749e-05,0
2.1475,6.3783e-06,0
2.148,6.714e-07,0
2.1485,-3.8605e-06,0
2.149,-1.8463e-06,0
2.1495,9.5674e-06,0
2.15,2.1317e-05,0
2.1505,2.6352e-05,0
2.151,2.6017e-05,0
2.1515,2.3331e-05,0
2.152,2.3667e-05,0
2.1525,3.1556e-05,0
2.153,4.0284e-05,0
2.1535,4.1795e-05,0
2.154,3.7262e-05,0
2.1545,3.2563e-05,0
2.155,3.0381e-05,0
2.1555,2.7863e-05,0
2.156,2.5345e-05,0
2.1565,2.6688e-05,0
2.157,3.4409e-05,0
2.1575,4.448e-05,0
2.158,4.7166e-05,0
2.1585,3.8102e-05,0
2.159,2.266e-05,0
2.1595,1.1414e-05,0
2.16,7.8889e-06,0
2.1605,1.0407e-05,0
2.161,1.1582e-05,0
2.1615,5.2033e-06,0
2.162,2.182e-06,0
2.1625,8.896e-06,0
2.163,1.5274e-05,0
2.1635,1.4435e-05,0
2.164,5.2033e-06,0
2.1645,-1.0239e-05,0
2.165,-1.9974e-05,0
2.1655,-1.7121e-05,0
2.166,-9.3996e-06,0
2.1665,-5.8747e-06,0
2.167,-1.091e-05,0
2.1675,-1.4267e-05,0
2.168,-8.896e-06,0
2.1685,1.678e-07,0
2.169,4.3641e-06,0
2.1695,4.3641e-06,0
2.17,6.0426e-06,0
2.1705,1.1582e-05,0
2.171,1.4939e-05,0
2.1715,1.4603e-05,0
2.172,1.3764e-05,0
2.1725,1.5106e-05,0
2.173,1.8128e-05,0
2.1735,2.1317e-05,0
2.174,2.3667e-05,0
2.1745,2.3667e-05,0
2.175,2.2492e-05,0
2.1755,2.1317e-05,0
2.176,2.0478e-05,0
2.1765,2.266e-05,0
2.177,2.7695e-05,0
2.1775,3.1388e-05,0
2.178,3.2395e-05,0
2.1785,3.1052e-05,0
2.179,3.3066e-05,0
2.1795,4.0116e-05,0
2.18,4.9515e-05,0
2.1805,5.1865e-05,0
2.181,4.5319e-05,0
2.1815,3.6088e-05,0
2.182,2.6352e-05,0
2.1825,1.4099e-05,0
2.183,2.0142e-06,0
2.1835,-4.6998e-06,0
2.184,-4.3641e-06,0
2.1845,5.035e-07,0
2.185,6.5461e-06,0
2.1855,1.2589e-05,0
2.186,1.8296e-05,0
2.1865,2.2324e-05,0
2.187,2.4002e-05,0
2.1875,1.9303e-05,0
2.188,1.1246e-05,0
2.1885,7.7211e-06,0
2.189,6.5461e-06,0
2.1895,4.3641e-06,0
2.19,3.1891e-06,0
2.1905,5.539e-06,0
2.191,8.896e-06,0
2.1915,1.2085e-05,0
2.192,1.561e-05,0
2.1925,1.6953e-05,0
2.193,1.326e-05,0
2.1935,9.5674e-06,0
2.194,9.2317e-06,0
2.1945,9.9031e-06,0
2.195,1.1078e-05,0
2.1955,1.3764e-05,0
2.196,1.6617e-05,0
2.1965,1.8631e-05,0
2.197,1.8631e-05,0
2.1975,1.8631e-05,0
2.198,1.7624e-05,0
2.1985,1.8631e-05,0
2.199,2.182e-05,0
2.1995,2.6352e-05,0
2.2,2.9374e-05,0
2.2005,3.0381e-05,0
2.201,3.1052e-05,0
2.2015,3.1052e-05,0
2.202,3.0549e-05,0
2.2025,2.7192e-05,0
2.203,2.6017e-05,0
2.2035,2.7695e-05,0
2.204,3.0381e-05,0
2.2045,3.2563e-05,0
2.205,3.2059e-05,0
2.2055,3.2059e-05,0
2.206,3.5416e-05,0
2.2065,3.978e-05,0
2.207,4.3473e-05,0
2.2075,4.4312e-05,0
2.208,3.978e-05,0
2.2085,3.0716e-05,0
2.209,1.9303e-05,0
2.2095,9.7353e-06,0
2.21,4.5319e-06,0
2.2105,1.1749e-06,0
2.211,-6.2104e-06,0
2.2115,-1.1414e-05,0
2.212,-7.3854e-06,0
2.2125,4.3641e-06,0
2.213,1.5946e-05,0
2.2135,1.7624e-05,0
2.214,1.6281e-05,0
2.2145,2.031e-05,0
2.215,2.7192e-05,0
2.2155,2.9542e-05,0
2.216,3.0381e-05,0
2.2165,3.1891e-05,0
2.217,3.3402e-05,0
2.2175,2.9206e-05,0
2.218,2.2324e-05,0
2.2185,2.1317e-05,0
2.219,2.6688e-05,0
2.2195,3.1556e-05,0
2.22,3.1388e-05,0
2.2205,2.9206e-05,0
2.221,3.0716e-05,0
2.2215,3.4745e-05,0
2.222,3.4409e-05,0
2.2225,2.9877e-05,0
2.223,2.6688e-05,0
2.2235,2.6688e-05,0
2.224,2.0646e-05,0
2.2245,1.091e-05,0
2.225,2.5177e-06,0
2.2255,1.678e-07,0
2.226,1.8463e-06,0
2.2265,1.1749e-06,0
2.227,-1.3428e-06,0
2.2275,-1.5106e-06,0
2.228,1.3428e-06,0
2.2285,5.2033e-06,0
2.229,1.1078e-05,0
2.2295,1.9638e-05,0
2.23,2.6184e-05,0
2.2305,2.652e-05,0
2.231,2.2995e-05,0
2.2315,2.182e-05,0
2.232,2.8031e-05,0
2.2325,4.0284e-05,0
2.233,5.1698e-05,0
2.2335,5.3544e-05,0
2.234,4.6159e-05,0
2.2345,3.7095e-05,0
2.235,3.0716e-05,0
2.2355,3.0716e-05,0
2.236,3.1556e-05,0
2.2365,3.1724e-05,0
2.237,3.508e-05,0
2.2375,3.9445e-05,0
2.238,3.6088e-05,0
2.2385,2.5345e-05,0
2.239,1.9638e-05,0
2.2395,1.8296e-05,0
2.24,1.5106e-05,0
2.2405,1.1917e-05,0
2.241,9.9031e-06,0
2.2415,4.8676e-06,0
2.242,-5.2033e-06,0
2.2425,-1.3092e-05,0
2.243,-1.3932e-05,0
2.2435,-1.1414e-05,0
2.244,-1.1078e-05,0
2.2445,-1.091e-05,0
2.245,-1.2253e-05,0
2.2455,-1.4099e-05,0
2.246,-1.326e-05,0
2.2465,-1.4435e-05,0
2.247,-1.6281e-05,0
2.2475,-1.3764e-05,0
2.248,-6.8818e-06,0
2.2485,1.3428e-06,0
2.249,8.896e-06,0
2.2495,1.3932e-05,0
2.25,1.6953e-05,0
2.2505,1.9638e-05,0
2.251,2.1317e-05,0
2.2515,2.266e-05,0
2.252,2.4674e-05,0
2.2525,2.8702e-05,0
2.253,3.2731e-05,0
2.2535,3.2059e-05,0
2.254,2.4842e-05,0
2.2545,1.7624e-05,0
2.255,1.8128e-05,0
2.2555,2.2995e-05,0
2.256,2.4338e-05,0
2.2565,1.9303e-05,0
2.257,1.2924e-05,0
2.2575,5.0355e-06,0
2.258,5.035e-07,0
2.2585,6.714e-06,0
2.259,2.031e-05,0
2.2595,2.9374e-05,0
2.26,2.8702e-05,0
2.2605,2.652e-05,0
2.261,2.9374e-05,0
2.2615,3.4409e-05,0
2.262,3.6423e-05,0
2.2625,3.5752e-05,0
2.263,3.2059e-05,0
2.2635,2.4674e-05,0
2.264,1.5274e-05,0
2.2645,1.0575e-05,0
2.265,1.4939e-05,0
2.2655,1.8967e-05,0
2.266,1.1582e-05,0
2.2665,-8.392e-07,0
2.267,-1.0071e-05,0
2.2675,-6.2104e-06,0
2.268,6.5461e-06,0
2.2685,1.7121e-05,0
2.269,2.0646e-05,0
2.2695,1.8631e-05,0
2.27,1.4603e-05,0
2.2705,1.3596e-05,0
2.271,1.5778e-05,0
2.2715,1.8967e-05,0
2.272,2.2492e-05,0
2.2725,2.4002e-05,0
2.273,2.4674e-05,0
2.2735,2.7024e-05,0
2.274,3.122e-05,0
2.2745,3.1388e-05,0
2.275,2.9038e-05,0
2.2755,2.6017e-05,0
2.276,2.2324e-05,0
2.2765,2.266e-05,0
2.277,2.652e-05,0
2.2775,3.122e-05,0
2.278,3.4745e-05,0
2.2785,3.3738e-05,0
2.279,3.0549e-05,0
2.2795,2.7192e-05,0
2.28,2.7024e-05,0
2.2805,3.0045e-05,0
2.281,3.122e-05,0
2.2815,2.7527e-05,0
2.282,2.5009e-05,0
2.2825,2.4338e-05,0
2.283,2.1988e-05,0
2.2835,1.9303e-05,0
2.284,1.8967e-05,0
2.2845,1.8967e-05,0
2.285,2.0646e-05,0
2.2855,2.182e-05,0
2.286,1.8967e-05,0
2.2865,1.5778e-05,0
2.287,1.8631e-05,0
2.2875,2.5009e-05,0
2.288,2.9206e-05,0
2.2885,2.8534e-05,0
2.289,2.1317e-05,0
2.2895,1.6281e-05,0
2.29,1.326e-05,0
2.2905,7.7211e-06,0
2.291,-3.0213e-06,0
2.2915,-1.3428e-05,0
2.292,-1.4603e-05,0
2.2925,8.392e-07,0
2.293,2.4674e-05,0
2.2935,4.3977e-05,0
2.294,5.5894e-05,0
2.2945,5.8244e-05,0
2.295,5.4048e-05,0
2.2955,4.6998e-05,0
2.296,4.1962e-05,0
2.2965,4.2802e-05,0
2.297,4.4816e-05,0
2.2975,4.4144e-05,0
2.298,3.9277e-05,0
2.2985,3.4745e-05,0
2.299,3.1052e-05,0
2.2995,2.7192e-05,0
2.3,2.5177e-05,0
2.3005,2.1653e-05,0
2.301,1.5442e-05,0
2.3015,1.0575e-05,0
2.302,6.8818e-06,0
2.3025,2.8534e-06,0
2.303,-5.035e-07,0
2.3035,2.8534e-06,0
2.304,1.0071e-05,0
2.3045,1.4099e-05,0
2.305,1.0071e-05,0
2.3055,3.8605e-06,0
2.306,1.3428e-06,0
2.3065,5.2033e-06,0
2.307,1.2421e-05,0
2.3075,1.3764e-05,0
2.308,6.2104e-06,0
2.3085,-6.8818e-06,0
2.309,-1.9135e-05,0
2.3095,-2.0142e-05,0
2.31,-1.3596e-05,0
2.3105,-8.5603e-06,0
2.311,-4.1962e-06,0
2.3115,2.8534e-06,0
2.312,9.2317e-06,0
2.3125,1.1078e-05,0
2.313,1.1078e-05,0
2.3135,1.1917e-05,0
2.314,1.4603e-05,0
2.3145,1.796e-05,0
2.315,1.8296e-05,0
2.3155,1.796e-05,0
2.316,2.0981e-05,0
2.3165,2.4338e-05,0
2.317,2.7024e-05,0
2.3175,2.8031e-05,0
2.318,2.5345e-05,0
2.3185,2.1149e-05,0
2.319,2.0813e-05,0
2.3195,2.5345e-05,0
2.32,2.9709e-05,0
2.3205,2.7192e-05,0
2.321,2.0478e-05,0
2.3215,1.9638e-05,0
2.322,2.6017e-05,0
2.3225,2.8031e-05,0
2.323,2.3835e-05,0
2.3235,1.7792e-05,0
2.324,1.5946e-05,0
2.3245,2.3835e-05,0
2.325,3.2395e-05,0
2.3255,3.7934e-05,0
2.326,3.978e-05,0
2.3265,4.0955e-05,0
2.327,3.8773e-05,0
2.3275,3.4577e-05,0
2.328,2.6688e-05,0
2.3285,2.2492e-05,0
2.329,2.652e-05,0
2.3295,2.6688e-05,0
2.33,2.1317e-05,0
2.3305,1.9638e-05,0
2.331,2.4674e-05,0
2.3315,2.9206e-05,0
2.332,2.5009e-05,0
2.3325,2.0813e-05,0
2.333,2.4338e-05,0
2.3335,2.5009e-05,0
2.334,2.1988e-05,0
2.3345,2.4674e-05,0
2.335,3.0716e-05,0
2.3355,3.3906e-05,0
2.336,3.3738e-05,0
2.3365,2.5681e-05,0
2.337,5.2033e-06,0
2.3375,-2.0981e-05,0
2.338,-4.448e-05,0
2.3385,-5.2872e-05,0
2.339,-4.0955e-05,0
2.3395,-2.4002e-05,0
2.34,-1.1246e-05,0
2.3405,2.5177e-06,0
2.341,2.1317e-05,0
2.3415,4.5319e-05,0
2.342,5.6733e-05,0
2.3425,4.8173e-05,0
2.343,3.5584e-05,0
2.3435,2.9038e-05,0
2.344,2.8367e-05,0
2.3445,2.8534e-05,0
2.345,2.4674e-05,0
2.3455,1.4099e-05,0
2.346,2.182e-06,0
2.3465,-3.1891e-06,0
2.347,5.2033e-06,0
2.3475,1.9974e-05,0
2.348,2.9374e-05,0
2.3485,3.122e-05,0
2.349,2.6688e-05,0
2.3495,2.3331e-05,0
2.35,2.3667e-05,0
2.3505,2.3835e-05,0
2.351,2.4338e-05,0
2.3515,3.0549e-05,0
2.352,3.6927e-05,0
2.3525,3.9445e-05,0
2.353,4.1123e-05,0
2.3535,4.1459e-05,0
2.354,4.3473e-05,0
2.3545,4.4312e-05,0
2.355,3.9277e-05,0
2.3555,2.9038e-05,0
2.356,1.7792e-05,0
2.3565,9.5674e-06,0
2.357,6.2104e-06,0
2.3575,5.539e-06,0
2.358,3.1891e-06,0
2.3585,-3.5248e-06,0
2.359,-1.2924e-05,0
2.3595,-2.0646e-05,0
2.36,-1.9974e-05,0
2.3605,-6.8818e-06,0
2.361,1.1582e-05,0
2.3615,2.5009e-05,0
2.362,2.8534e-05,0
2.3625,2.1988e-05,0
2.363,1.0575e-05,0
2.3635,4.5319e-06,0
2.364,3.6927e-06,0
2.3645,2.5177e-06,0
2.365,1.1749e-06,0
2.3655,-3.357e-07,0
2.366,-5.035e-07,0
2.3665,-1.1749e-06,0
2.367,-1.0071e-06,0
2.3675,2.3499e-06,0
2.368,7.8889e-06,0
2.3685,1.3092e-05,0
2.369,1.8631e-05,0
2.3695,2.3835e-05,0
2.37,2.4338e-05,0
2.3705,2.5009e-05,0
2.371,2.6688e-05,0
2.3715,2.9374e-05,0
2.372,3.4745e-05,0
2.3725,3.508e-05,0
2.373,3.4073e-05,0
2.3735,3.3402e-05,0
2.374,3.1724e-05,0
2.3745,2.887e-05,0
2.375,2.5849e-05,0
2.3755,2.2324e-05,0
2.376,1.7792e-05,0
2.3765,1.4603e-05,0
2.377,1.326e-05,0
2.3775,1.3932e-05,0
2.378,1.0239e-05,0
2.3785,4.8676e-06,0
2.379,4.0284e-06,0
2.3795,6.2104e-06,0
2.38,7.7211e-06,0
2.3805,9.0639e-06,0
2.381,1.0071e-05,0
2.3815,9.3996e-06,0
2.382,1.0575e-05,0
2.3825,1.326e-05,0
2.383,1.5946e-05,0
2.3835,1.8296e-05,0
2.384,1.6114e-05,0
2.3845,1.0407e-05,0
2.385,7.8889e-06,0
2.3855,1.1246e-05,0
2.386,1.5274e-05,0
2.3865,1.6281e-05,0
2.387,1.796e-05,0
2.3875,2.2995e-05,0
2.388,2.8031e-05,0
2.3885,2.9374e-05,0
2.389,2.9709e-05,0
2.3895,2.9877e-05,0
2.39,2.9374e-05,0
2.3905,2.7695e-05,0
2.391,2.2995e-05,0
2.3915,1.9974e-05,0
2.392,2.3331e-05,0
2.3925,2.5009e-05,0
2.393,1.9974e-05,0
2.3935,1.9806e-05,0
2.394,2.9542e-05,0
2.3945,4.1459e-05,0
2.395,5.153e-05,0
2.3955,6.0761e-05,0
2.396,7.1e-05,0
2.3965,8.04e-05,0
2.397,8.5771e-05,0
2.3975,8.7785e-05,0
2.398,8.8457e-05,0
2.3985,8.5435e-05,0
2.399,7.5029e-05,0
2.3995,6.4286e-05,0
2.4,5.4215e-05,0
2.4005,3.6423e-05,0
2.401,1.1749e-05,0
2.4015,-3.1891e-06,0
2.402,-4.3641e-06,0
2.4025,-3.8605e-06,0
2.403,-4.0284e-06,0
2.4035,-8.392e-07,0
2.404,-3.5248e-06,0
2.4045,-2.2324e-05,0
2.405,-4.7669e-05,0
2.4055,-6.4622e-05,0
2.406,-7.1336e-05,0
2.4065,-5.9922e-05,0
2.407,-3.3738e-05,0
2.4075,-8.896e-06,0
2.408,7.0497e-06,0
2.4085,1.4435e-05,0
2.409,1.6281e-05,0
2.4095,2.2156e-05,0
2.41,2.6017e-05,0
2.4105,1.3596e-05,0
2.411,-2.8534e-06,0
2.4115,-2.8534e-06,0
2.412,1.1582e-05,0
2.4125,2.7695e-05,0
2.413,3.8773e-05,0
2.4135,4.2802e-05,0
2.414,4.4144e-05,0
2.4145,4.5487e-05,0
2.415,4.4816e-05,0
2.4155,4.0116e-05,0
2.416,3.6591e-05,0
2.4165,3.8102e-05,0
2.417,4.1459e-05,0
2.4175,4.1459e-05,0
2.418,3.7095e-05,0
2.4185,3.3402e-05,0
2.419,2.9374e-05,0
2.4195,2.652e-05,0
2.42,2.5681e-05,0
2.4205,2.5681e-05,0
2.421,2.8534e-05,0
2.4215,2.8031e-05,0
2.422,2.0981e-05,0
2.4225,1.4099e-05,0
2.423,7.2175e-06,0
2.4235,2.5177e-06,0
2.424,4.5319e-06,0
2.4245,1.2253e-05,0
2.425,1.9638e-05,0
2.4255,2.3499e-05,0
2.426,2.266e-05,0
2.4265,1.8463e-05,0
2.427,1.2253e-05,0
2.4275,6.5461e-06,0
2.428,3.1891e-06,0
2.4285,2.8534e-06,0
2.429,1.678e-07,0
2.4295,-4.5319e-06,0
2.43,-2.5177e-06,0
2.4305,4.3641e-06,0
2.431,1.1917e-05,0
2.4315,1.5778e-05,0
2.432,1.326e-05,0
2.4325,1.1749e-05,0
2.433,1.2589e-05,0
2.4335,1.3932e-05,0
2.434,1.4267e-05,0
2.4345,1.2589e-05,0
2.435,8.5603e-06,0
2.4355,1.6785e-06,0
2.436,-4.1962e-06,0
2.4365,-7.7211e-06,0
2.437,-7.8889e-06,0
2.4375,-3.0213e-06,0
2.438,3.6927e-06,0
2.4385,1.0575e-05,0
2.439,1.6953e-05,0
2.4395,2.2324e-05,0
2.44,2.5345e-05,0
2.4405,2.6017e-05,0
2.441,2.8702e-05,0
2.4415,3.1556e-05,0
2.442,3.4409e-05,0
2.4425,3.6759e-05,0
2.443,3.5752e-05,0
2.4435,3.3066e-05,0
2.444,3.3402e-05,0
2.4445,4.0116e-05,0
2.445,4.7166e-05,0
2.4455,5.1865e-05,0
2.446,5.2537e-05,0
2.4465,4.7837e-05,0
2.447,3.8437e-05,0
2.4475,2.4002e-05,0
2.448,1.2757e-05,0
2.4485,8.3925e-06,0
2.449,1.8463e-06,0
2.4495,-1.0407e-05,0
2.45,-2.2156e-05,0
2.4505,-2.8702e-05,0
2.451,-2.652e-05,0
2.4515,-2.3499e-05,0
2.452,-2.1988e-05,0
2.4525,-1.2757e-05,0
2.453,4.3641e-06,0
2.4535,1.7624e-05,0
2.454,2.4338e-05,0
2.4545,3.0381e-05,0
2.455,3.1388e-05,0
2.4555,2.7192e-05,0
2.456,2.8534e-05,0
2.4565,3.9277e-05,0
2.457,4.7166e-05,0
2.4575,4.2802e-05,0
2.458,3.5752e-05,0
2.4585,3.6591e-05,0
2.459,4.4816e-05,0
2.4595,4.9515e-05,0
2.46,4.4648e-05,0
2.4605,3.1052e-05,0
2.461,1.6449e-05,0
2.4615,2.0142e-06,0
2.462,-1.091e-05,0
2.4625,-9.2317e-06,0
2.463,7.8889e-06,0
2.4635,1.9638e-05,0
2.464,1.5946e-05,0
2.4645,1.326e-05,0
2.465,2.4002e-05,0
2.4655,4.2802e-05,0
2.466,5.623e-05,0
2.4665,6.1265e-05,0
2.467,6.0594e-05,0
2.4675,5.6901e-05,0
2.468,4.9348e-05,0
2.4685,3.508e-05,0
2.469,1.5946e-05,0
2.4695,1.6785e-06,0
2.47,-5.2033e-06,0
2.4705,-1.0239e-05,0
2.471,-1.561e-05,0
2.4715,-1.9135e-05,0
2.472,-2.4002e-05,0
2.4725,-2.3331e-05,0
2.473,-1.0407e-05,0
2.4735,1.3932e-05,0
2.474,4.0787e-05,0
2.4745,5.5558e-05,0
2.475,5.0187e-05,0
2.4755,3.8773e-05,0
2.476,3.6088e-05,0
2.4765,4.0787e-05,0
2.477,3.9277e-05,0
2.4775,2.5345e-05,0
2.478,-2.5177e-06,0
2.4785,-3.4073e-05,0
2.479,-5.1865e-05,0
2.4795,-3.8941e-05,0
2.48,-5.035e-07,0
2.4805,3.743e-05,0
2.481,6.1433e-05,0
2.4815,7.0329e-05,0
2.482,6.4118e-05,0
2.4825,4.8508e-05,0
2.483,3.7934e-05,0
2.4835,3.2731e-05,0
2.484,2.7695e-05,0
2.4845,2.4002e-05,0
2.485,2.0646e-05,0
2.4855,1.8967e-05,0
2.486,1.9303e-05,0
2.4865,1.796e-05,0
2.487,1.5946e-05,0
2.4875,1.6449e-05,0
2.488,1.5946e-05,0
2.4885,1.2253e-05,0
2.489,7.2175e-06,0
2.4895,3.5248e-06,0
2.49,-1.678e-07,0
2.4905,-4.8676e-06,0
2.491,-9.7353e-06,0
2.4915,-9.5674e-06,0
2.492,-3.5248e-06,0
2.4925,3.1891e-06,0
2.493,9.9031e-06,0
2.4935,1.7792e-05,0
2.494,2.4506e-05,0
2.4945,2.4002e-05,0
2.495,1.8631e-05,0
2.4955,1.7792e-05,0
2.496,2.0646e-05,0
2.4965,2.2324e-05,0
2.497,1.9638e-05,0
2.4975,1.8296e-05,0
2.498,1.1917e-05,0
2.4985,2.182e-06,0
2.499,-2.5177e-06,0
2.4995,2.0142e-06,0
2.5,1.0575e-05,0
2.5005,1.5274e-05,0
2.501,1.4267e-05,0
2.5015,9.7353e-06,0
2.502,4.8676e-06,0
2.5025,2.3499e-06,0
2.503,4.6998e-06,0
2.5035,1.1917e-05,0
2.504,1.7288e-05,0
2.5045,1.9303e-05,0
2.505,1.9303e-05,0
2.5055,1.8631e-05,0
2.506,1.8967e-05,0
2.5065,2.182e-05,0
2.507,2.6017e-05,0
2.5075,3.2059e-05,0
2.508,3.4577e-05,0
2.5085,3.1388e-05,0
2.509,2.6688e-05,0
2.5095,2.6688e-05,0
2.51,2.7695e-05,0
2.5105,2.8702e-05,0
2.511,2.8367e-05,0
2.5115,2.6017e-05,0
2.512,2.2324e-05,0
2.5125,1.7624e-05,0
2.513,1.5778e-05,0
2.5135,1.9638e-05,0
2.514,2.3331e-05,0
2.5145,2.4674e-05,0
2.515,2.5345e-05,0
2.5155,2.9374e-05,0
2.516,3.8102e-05,0
2.5165,4.7669e-05,0
2.517,5.3208e-05,0
2.5175,5.6565e-05,0
2.518,6.1936e-05,0
2.5185,6.3783e-05,0
2.519,6.0929e-05,0
2.5195,5.5222e-05,0
2.52,4.8173e-05,0
2.5205,3.7262e-05,0
2.521,2.6352e-05,0
2.5215,2.0478e-05,0
2.522,1.9974e-05,0
2.5225,1.7624e-05,0
2.523,1.3092e-05,0
2.5235,1.1246e-05,0
2.524,4.1962e-06,0
2.5245,-4.6998e-06,0
2.525,-6.8818e-06,0
2.5255,-2.8534e-06,0
2.526,4.8676e-06,0
2.5265,6.0426e-06,0
2.527,-4.8676e-06,0
2.5275,-1.1917e-05,0
2.528,-6.2104e-06,0
2.5285,3.0213e-06,0
2.529,6.2104e-06,0
2.5295,2.182e-06,0
2.53,-2.0142e-06,0
2.5305,2.8534e-06,0
2.531,1.2421e-05,0
2.5315,1.3764e-05,0
2.532,2.8534e-06,0
2.5325,-7.7211e-06,0
2.533,-1.1582e-05,0
2.5335,-1.1917e-05,0
2.534,-1.326e-05,0
2.5345,-1.1917e-05,0
2.535,-4.0284e-06,0
2.5355,7.2175e-06,0
2.536,1.9303e-05,0
2.5365,3.1724e-05,0
2.537,3.9445e-05,0
2.5375,4.5823e-05,0
2.538,5.9251e-05,0
2.5385,7.0832e-05,0
2.539,7.0832e-05,0
2.5395,6.3951e-05,0
2.54,5.1865e-05,0
2.5405,3.2059e-05,0
2.541,1.0575e-05,0
2.5415,-1.5106e-06,0
2.542,-5.2033e-06,0
2.5425,-1.6449e-05,0
2.543,-3.4241e-05,0
2.5435,-2.9709e-05,0
2.544,3.1891e-06,0
2.5445,3.7095e-05,0
2.545,5.5222e-05,0
2.5455,5.8579e-05,0
2.546,4.9851e-05,0
2.5465,4.0955e-05,0
2.547,3.5416e-05,0
2.5475,2.9038e-05,0
2.548,2.1317e-05,0
2.5485,1.9974e-05,0
2.549,2.5849e-05,0
2.5495,3.2731e-05,0
2.55,3.5752e-05,0
2.5505,3.4409e-05,0
2.551,2.7527e-05,0
2.5515,1.8631e-05,0
2.552,1.6953e-05,0
2.5525,2.5345e-05,0
2.553,3.2395e-05,0
2.5535,3.2898e-05,0
2.554,3.1724e-05,0
2.5545,3.0045e-05,0
2.555,2.7192e-05,0
2.5555,2.4674e-05,0
2.556,2.266e-05,0
2.5565,1.796e-05,0
2.557,1.1917e-05,0
2.5575,8.2246e-06,0
2.558,3.8605e-06,0
2.5585,-1.1749e-06,0
2.559,-7.2175e-06,0
2.5595,-1.1414e-05,0
2.56,-7.3854e-06,0
2.5605,-5.035e-07,0
2.561,0,0
2.5615,-4.5319e-06,0
2.562,-4.8676e-06,0
2.5625,1.1749e-06,0
2.563,6.8818e-06,0
2.5635,1.0575e-05,0
2.564,1.326e-05,0
2.5645,1.2589e-05,0
2.565,1.2589e-05,0
2.5655,1.4939e-05,0
2.566,1.7792e-05,0
2.5665,1.9135e-05,0
2.567,1.9974e-05,0
2.5675,2.3667e-05,0
2.568,2.8031e-05,0
2.5685,2.9374e-05,0
2.569,3.122e-05,0
2.5695,3.357e-05,0
2.57,3.5584e-05,0
2.5705,3.9277e-05,0
2.571,4.1459e-05,0
2.5715,4.0787e-05,0
2.572,3.6927e-05,0
2.5725,2.9877e-05,0
2.573,2.2995e-05,0
2.5735,1.6785e-05,0
2.574,8.896e-06,0
2.5745,1.1749e-06,0
2.575,-6.714e-06,0
2.5755,-1.0575e-05,0
2.576,-6.8818e-06,0
2.5765,-3.357e-07,0
2.577,8.5603e-06,0
2.5775,1.4435e-05,0
2.578,1.7624e-05,0
2.5785,2.2995e-05,0
2.579,2.7695e-05,0
2.5795,3.3234e-05,0
2.58,4.0619e-05,0
2.5805,4.3809e-05,0
2.581,4.5823e-05,0
2.5815,4.7501e-05,0
2.582,4.8173e-05,0
2.5825,4.5319e-05,0
2.583,3.6088e-05,0
2.5835,2.5345e-05,0
2.584,1.561e-05,0
2.5845,5.8747e-06,0
2.585,-3.8605e-06,0
2.5855,-8.896e-06,0
2.586,-4.1962e-06,0
2.5865,6.0426e-06,0
2.587,1.091e-05,0
2.5875,9.5674e-06,0
2.588,4.8676e-06,0
2.5885,-1.0071e-06,0
2.589,-1.3596e-05,0
2.5895,-2.7024e-05,0
2.59,-2.8702e-05,0
2.5905,-2.4674e-05,0
2.591,-2.7192e-05,0
2.5915,-3.9948e-05,0
2.592,-4.9348e-05,0
2.5925,-3.4073e-05,0
2.593,2.182e-06,0
2.5935,4.0787e-05,0
2.594,6.9154e-05,0
2.5945,7.9057e-05,0
2.595,8.0735e-05,0
2.5955,8.9799e-05,0
2.596,0.00010524,0
2.5965,0.0001185,0
2.597,0.00012706,0
2.5975,0.00013008,0
2.598,0.00013143,0
2.5985,0.00012807,0
2.599,0.00011128,0
2.5995,7.6371e-05,0
2.6,3.6759e-05,0
2.6005,1.2924e-05,0
2.601,3.5248e-06,0
2.6015,-1.9974e-05,0
2.602,-6.2608e-05,0
2.6025,-8.8792e-05,0
2.603,-7.335e-05,0
2.6035,-2.8702e-05,0
2.604,1.4267e-05,0
2.6045,2.9038e-05,0
2.605,6.5461e-06,0
2.6055,-2.9038e-05,0
2.606,-4.4816e-05,0
2.6065,-3.508e-05,0
2.607,-2.182e-05,0
2.6075,-2.2828e-05,0
2.608,-2.7695e-05,0
2.6085,-2.2995e-05,0
2.609,-1.6281e-05,0
2.6095,-1.5442e-05,0
2.61,-1.2757e-05,0
2.6105,-1.678e-07,0
2.611,1.2253e-05,0
2.6115,1.5274e-05,0
2.612,1.9974e-05,0
2.6125,2.4002e-05,0
2.613,2.0142e-05,0
2.6135,1.7624e-05,0
2.614,1.5946e-05,0
2.6145,8.896e-06,0
2.615,8.392e-07,0
2.6155,5.2033e-06,0
2.616,2.1317e-05,0
2.6165,3.4073e-05,0
2.617,3.122e-05,0
2.6175,1.9806e-05,0
2.618,1.5946e-05,0
2.6185,2.3835e-05,0
2.619,3.4745e-05,0
2.6195,4.4816e-05,0
2.62,5.153e-05,0
2.6205,5.4551e-05,0
2.621,5.5894e-05,0
2.6215,5.3544e-05,0
2.622,4.9851e-05,0
2.6225,4.7837e-05,0
2.623,4.683e-05,0
2.6235,4.683e-05,0
2.624,4.2802e-05,0
2.6245,3.7934e-05,0
2.625,3.4073e-05,0
2.6255,3.1388e-05,0
2.626,3.1388e-05,0
2.6265,2.8702e-05,0
2.627,2.0646e-05,0
2.6275,1.1246e-05,0
2.628,5.2033e-06,0
2.6285,3.1891e-06,0
2.629,1.6785e-06,0
2.6295,-2.0142e-06,0
2.63,-8.5603e-06,0
2.6305,-1.4603e-05,0
2.631,-1.6953e-05,0
2.6315,-1.6281e-05,0
2.632,-1.4435e-05,0
2.6325,-1.1078e-05,0
2.633,-3.8605e-06,0
2.6335,3.5248e-06,0
2.634,6.0426e-06,0
2.6345,6.0426e-06,0
2.635,7.5532e-06,0
2.6355,9.0639e-06,0
2.636,1.0407e-05,0
2.6365,1.1917e-05,0
2.637,1.1749e-05,0
2.6375,1.2589e-05,0
2.638,1.6953e-05,0
2.6385,1.9974e-05,0
2.639,1.8296e-05,0
2.6395,1.4603e-05,0
2.64,1.3932e-05,0
2.6405,1.3932e-05,0
2.641,1.326e-05,0
2.6415,1.326e-05,0
2.642,1.796e-05,0
2.6425,2.1653e-05,0
2.643,2.1317e-05,0
2.6435,2.2995e-05,0
2.644,2.7863e-05,0
2.6445,3.0716e-05,0
2.645,3.6591e-05,0
2.6455,4.213e-05,0
2.646,4.448e-05,0
2.6465,4.5151e-05,0
2.647,4.5151e-05,0
2.6475,4.3305e-05,0
2.648,4.2634e-05,0
2.6485,4.3977e-05,0
2.649,4.0284e-05,0
2.6495,3.0045e-05,0
2.65,2.0646e-05,0
2.6505,1.947e-05,0
2.651,2.9542e-05,0
2.6515,4.2634e-05,0
2.652,4.8173e-05,0
2.6525,4.5319e-05,0
2.653,4.1459e-05,0
2.6535,4.0955e-05,0
2.654,3.7766e-05,0
2.6545,3.3234e-05,0
2.655,3.592e-05,0
2.6555,3.8437e-05,0
2.656,2.5177e-05,0
2.6565,-2.0142e-06,0
2.657,-2.8031e-05,0
2.6575,-3.8102e-05,0
2.658,-2.8031e-05,0
2.6585,-6.0426e-06,0
2.659,9.2317e-06,0
2.6595,1.3092e-05,0
2.66,1.8631e-05,0
2.6605,2.8367e-05,0
2.661,4.1795e-05,0
2.6615,5.5894e-05,0
2.662,6.2608e-05,0
2.6625,5.7404e-05,0
2.663,4.1123e-05,0
2.6635,1.7288e-05,0
2.664,-8.2246e-06,0
2.6645,-2.6688e-05,0
2.665,-3.0884e-05,0
2.6655,-1.9638e-05,0
2.666,-1.4267e-05,0
2.6665,-1.8967e-05,0
2.667,-9.9031e-06,0
2.6675,1.6953e-05,0
2.668,4.2466e-05,0
2.6685,4.8173e-05,0
2.669,3.6255e-05,0
2.6695,2.1317e-05,0
2.67,1.326e-05,0
2.6705,6.5461e-06,0
2.671,-3.6927e-06,0
2.6715,-1.1582e-05,0
2.672,-7.3854e-06,0
2.6725,-2.182e-06,0
2.673,-1.6449e-05,0
2.6735,-4.213e-05,0
2.674,-4.7166e-05,0
2.6745,-2.0646e-05,0
2.675,2.1317e-05,0
2.6755,6.244e-05,0
2.676,9.1814e-05,0
2.6765,0.00010625,0
2.677,0.00010709,0
2.6775,9.9535e-05,0
2.678,8.9464e-05,0
2.6785,7.8721e-05,0
2.679,6.9657e-05,0
2.6795,6.3447e-05,0
2.68,5.7237e-05,0
2.6805,4.8676e-05,0
2.681,3.6759e-05,0
2.6815,2.1317e-05,0
2.682,5.8747e-06,0
2.6825,-9.2317e-06,0
2.683,-1.9638e-05,0
2.6835,-2.3163e-05,0
2.684,-2.1988e-05,0
2.6845,-2.7024e-05,0
2.685,-3.3066e-05,0
2.6855,-3.357e-05,0
2.686,-2.7359e-05,0
2.6865,-1.9806e-05,0
2.687,-1.5946e-05,0
2.6875,-1.4267e-05,0
2.688,-1.3596e-05,0
2.6885,-1.1582e-05,0
2.689,-2.182e-06,0
2.6895,9.5674e-06,0
2.69,1.4939e-05,0
2.6905,1.561e-05,0
2.691,1.4603e-05,0
2.6915,1.8128e-05,0
2.692,2.5681e-05,0
2.6925,3.3402e-05,0
2.693,3.2731e-05,0
2.6935,2.9206e-05,0
2.694,2.9374e-05,0
2.6945,3.0045e-05,0
2.695,2.8367e-05,0
2.6955,2.4674e-05,0
2.696,1.8296e-05,0
2.6965,8.2246e-06,0
2.697,-1.1749e-06,0
2.6975,-8.5603e-06,0
2.698,-1.4939e-05,0
2.6985,-1.7624e-05,0
2.699,-1.6449e-05,0
2.6995,-1.2253e-05,0
2.7,-4.8676e-06,0
2.7005,3.8605e-06,0
2.701,1.1246e-05,0
2.7015,1.6785e-05,0
2.702,2.031e-05,0
2.7025,2.0646e-05,0
2.703,2.3331e-05,0
2.7035,2.9206e-05,0
2.704,3.2395e-05,0
2.7045,3.2059e-05,0
2.705,3.2563e-05,0
2.7055,3.5416e-05,0
2.706,3.6088e-05,0
2.7065,3.4745e-05,0
2.707,3.3906e-05,0
2.7075,3.2563e-05,0
2.708,3.0213e-05,0
2.7085,3.2731e-05,0
2.709,3.5752e-05,0
2.7095,3.7095e-05,0
2.71,3.9277e-05,0
2.7105,4.0787e-05,0
2.711,4.2466e-05,0
2.7115,4.5487e-05,0
2.712,5.0523e-05,0
2.7125,5.7069e-05,0
2.713,6.244e-05,0
2.7135,6.1265e-05,0
2.714,5.6901e-05,0
2.7145,5.623e-05,0
2.715,6.0761e-05,0
2.7155,6.0594e-05,0
2.716,5.6062e-05,0
2.7165,5.1698e-05,0
2.717,5.1194e-05,0
2.7175,4.8676e-05,0
2.718,3.6088e-05,0
2.7185,2.2492e-05,0
2.719,1.9303e-05,0
2.7195,2.5009e-05,0
2.72,4.0116e-05,0
2.7205,5.1026e-05,0
2.721,4.448e-05,0
2.7215,2.9709e-05,0
2.722,1.2589e-05,0
2.7225,-9.2317e-06,0
2.723,-2.652e-05,0
2.7235,-2.8031e-05,0
2.724,-2.5009e-05,0
2.7245,-3.3738e-05,0
2.725,-5.388e-05,0
2.7255,-6.9993e-05,0
2.726,-6.714e-05,0
2.7265,-4.9515e-05,0
2.727,-3.4745e-05,0
2.7275,-2.2156e-05,0
2.728,-1.0071e-05,0
2.7285,-1.678e-07,0
2.729,8.5603e-06,0
2.7295,1.326e-05,0
2.73,1.5946e-05,0
2.7305,1.9303e-05,0
2.731,1.796e-05,0
2.7315,1.796e-05,0
2.732,2.0646e-05,0
2.7325,2.1988e-05,0
2.733,2.652e-05,0
2.7335,3.3066e-05,0
2.734,3.9277e-05,0
2.7345,4.683e-05,0
2.735,5.6062e-05,0
2.7355,6.4958e-05,0
2.736,6.9993e-05,0
2.7365,6.949e-05,0
2.737,6.865e-05,0
2.7375,7.0664e-05,0
2.738,7.0329e-05,0
2.7385,6.4958e-05,0
2.739,5.9419e-05,0
2.7395,5.7572e-05,0
2.74,5.9251e-05,0
2.7405,6.1097e-05,0
2.741,5.8915e-05,0
2.7415,4.7837e-05,0
2.742,3.1388e-05,0
2.7425,1.5106e-05,0
2.743,0,0
2.7435,-1.2421e-05,0
2.744,-1.7288e-05,0
2.7445,-9.0639e-06,0
2.745,4.8676e-06,0
2.7455,1.1582e-05,0
2.746,9.2317e-06,0
2.7465,5.8747e-06,0
2.747,7.0497e-06,0
2.7475,3.6927e-06,0
2.748,-1.1078e-05,0
2.7485,-2.8702e-05,0
2.749,-4.2802e-05,0
2.7495,-5.8412e-05,0
2.75,-7.6707e-05,0
2.7505,-9.0806e-05,0
2.751,-9.0974e-05,0
2.7515,-7.7043e-05,0
2.752,-5.7069e-05,0
2.7525,-4.0452e-05,0
2.753,-2.8367e-05,0
2.7535,-1.796e-05,0
2.754,-1.0239e-05,0
2.7545,-1.1749e-06,0
2.755,1.0239e-05,0
2.7555,1.9638e-05,0
2.756,2.6184e-05,0
2.7565,3.1556e-05,0
2.757,3.2898e-05,0
2.7575,2.9877e-05,0
2.758,2.8031e-05,0
2.7585,2.6688e-05,0
2.759,2.4338e-05,0
2.7595,2.266e-05,0
2.76,2.652e-05,0
2.7605,3.4073e-05,0
2.761,3.8102e-05,0
2.7615,3.9948e-05,0
2.762,4.4312e-05,0
2.7625,4.448e-05,0
2.763,4.2802e-05,0
2.7635,4.3977e-05,0
2.764,4.5487e-05,0
2.7645,4.3473e-05,0
2.765,3.9109e-05,0
2.7655,3.7095e-05,0
2.766,3.7095e-05,0
2.7665,3.6759e-05,0
2.767,3.508e-05,0
2.7675,3.4073e-05,0
2.768,3.6591e-05,0
2.7685,4.3809e-05,0
2.769,5.0187e-05,0
2.7695,5.2705e-05,0
2.77,5.0187e-05,0
2.7705,4.4144e-05,0
2.771,3.5752e-05,0
2.7715,2.8367e-05,0
2.772,2.9709e-05,0
2.7725,4.2634e-05,0
2.773,5.539e-05,0
2.7735,5.9587e-05,0
2.774,5.7237e-05,0
2.7745,5.623e-05,0
2.775,5.9587e-05,0
2.7755,5.8412e-05,0
2.776,4.448e-05,0
2.7765,2.0813e-05,0
2.777,-1.5106e-06,0
2.7775,-1.4267e-05,0
2.778,-1.1917e-05,0
2.7785,-4.1962e-06,0
2.779,-1.1078e-05,0
2.7795,-4.0116e-05,0
2.78,-7.3518e-05,0
2.7805,-6.7979e-05,0
2.781,-4.3641e-06,0
2.7815,7.335e-05,0
2.782,0.00011179,0
2.7825,0.00010457,0
2.783,7.4021e-05,0
2.7835,4.3641e-05,0
2.784,2.8367e-05,0
2.7845,2.2828e-05,0
2.785,1.2085e-05,0
2.7855,-5.2033e-06,0
2.786,-1.6281e-05,0
2.7865,-7.5532e-06,0
2.787,4.1962e-06,0
2.7875,8.2246e-06,0
2.788,8.7282e-06,0
2.7885,5.2033e-06,0
2.789,9.9031e-06,0
2.7895,2.8031e-05,0
2.79,4.683e-05,0
2.7905,6.1601e-05,0
2.791,7.8386e-05,0
2.7915,9.7017e-05,0
2.792,0.00010961,0
2.7925,0.0001091,0
2.793,0.00010356,0
2.7935,9.7856e-05,0
2.794,8.3421e-05,0
2.7945,5.2872e-05,0
2.795,7.8889e-06,0
2.7955,-4.9515e-05,0
2.796,-0.00011229,0
2.7965,-0.00015358,0
2.797,-0.00015073,0
2.7975,-0.00010961,0
2.798,-6.5965e-05,0
2.7985,-4.0787e-05,0
2.799,-2.2995e-05,0
2.7995,-4.1962e-06,0
2.8,6.8818e-06,0
2.8005,1.0407e-05,0
2.801,1.2253e-05,0
2.8015,1.2421e-05,0
2.802,1.4603e-05,0
2.8025,1.8631e-05,0
2.803,2.2995e-05,0
2.8035,2.7024e-05,0
2.804,2.8031e-05,0
2.8045,2.6688e-05,0
2.805,2.5681e-05,0
2.8055,2.7024e-05,0
2.806,3.3066e-05,0
2.8065,3.8605e-05,0
2.807,3.4073e-05,0
2.8075,2.3331e-05,0
2.808,1.7624e-05,0
2.8085,1.947e-05,0
2.809,2.2492e-05,0
2.8095,2.3835e-05,0
2.81,2.3331e-05,0
2.8105,2.3331e-05,0
2.811,2.6184e-05,0
2.8115,2.5345e-05,0
2.812,2.0646e-05,0
2.8125,1.796e-05,0
2.813,1.8967e-05,0
2.8135,2.3835e-05,0
2.814,3.1724e-05,0
2.8145,3.8605e-05,0
2.815,4.7501e-05,0
2.8155,5.7069e-05,0
2.816,6.6133e-05,0
2.8165,7.3014e-05,0
2.817,7.7378e-05,0
2.8175,8.1071e-05,0
2.818,8.7785e-05,0
2.8185,9.3492e-05,0
2.819,8.9799e-05,0
2.8195,7.7378e-05,0
2.82,6.0929e-05,0
2.8205,4.2466e-05,0
2.821,2.0142e-05,0
2.8215,1.1749e-06,0
2.822,-1.1917e-05,0
2.8225,-2.6352e-05,0
2.823,-4.3641e-05,0
2.8235,-5.4383e-05,0
2.824,-5.5894e-05,0
2.8245,-5.9922e-05,0
2.825,-6.5629e-05,0
2.8255,-6.2104e-05,0
2.826,-5.6397e-05,0
2.8265,-5.8244e-05,0
2.827,-6.3615e-05,0
2.8275,-6.4118e-05,0
2.828,-5.8244e-05,0
2.8285,-4.9683e-05,0
2.829,-4.7166e-05,0
2.8295,-4.3809e-05,0
2.83,-3.1724e-05,0
2.8305,-1.6281e-05,0
2.831,-3.6927e-06,0
2.8315,5.2033e-06,0
2.832,1.2757e-05,0
2.8325,2.3499e-05,0
2.833,3.5584e-05,0
2.8335,4.5991e-05,0
2.834,5.4383e-05,0
2.8345,6.0594e-05,0
2.835,5.8747e-05,0
2.8355,5.304e-05,0
2.836,5.2369e-05,0
2.8365,5.8747e-05,0
2.837,6.9657e-05,0
2.8375,7.8386e-05,0
2.838,8.1071e-05,0
2.8385,7.5029e-05,0
2.839,6.5126e-05,0
2.8395,6.1769e-05,0
2.84,6.4958e-05,0
2.8405,6.4286e-05,0
2.841,5.623e-05,0
2.8415,5.2201e-05,0
2.842,5.9251e-05,0
2.8425,6.6133e-05,0
2.843,5.8747e-05,0
2.8435,4.3473e-05,0
2.844,3.9109e-05,0
2.8445,4.1459e-05,0
2.845,3.1388e-05,0
2.8455,3.5248e-06,0
2.846,-3.0884e-05,0
2.8465,-6.2104e-05,0
2.847,-8.2918e-05,0
2.8475,-8.8121e-05,0
2.848,-6.6468e-05,0
2.8485,-1.7624e-05,0
2.849,4.0116e-05,0
2.8495,8.4428e-05,0
2.85,0.0001039,0
2.8505,9.987e-05,0
2.851,8.4093e-05,0
2.8515,6.4622e-05,0
2.852,4.5991e-05,0
2.8525,3.8605e-05,0
2.853,3.0045e-05,0
2.8535,-3.357e-07,0
2.854,-3.0045e-05,0
2.8545,-3.4409e-05,0
2.855,-2.5681e-05,0
2.8555,-2.3499e-05,0
2.856,-3.0381e-05,0
2.8565,-3.9277e-05,0
2.857,-3.9445e-05,0
2.8575,-3.0884e-05,0
2.858,-2.1317e-05,0
2.8585,-1.2924e-05,0
2.859,1.1749e-06,0
2.8595,7.8889e-06,0
2.86,8.896e-06,0
2.8605,2.2828e-05,0
2.861,4.5823e-05,0
2.8615,6.0929e-05,0
2.862,6.5629e-05,0
2.8625,5.8244e-05,0
2.863,2.7359e-05,0
2.8635,-4.8676e-06,0
2.864,-5.539e-06,0
2.8645,2.182e-05,0
2.865,4.4984e-05,0
2.8655,4.4816e-05,0
2.866,3.1388e-05,0
2.8665,2.1988e-05,0
2.867,2.1317e-05,0
2.8675,2.6352e-05,0
2.868,3.1556e-05,0
2.8685,3.6088e-05,0
2.869,3.9445e-05,0
2.8695,4.1962e-05,0
2.87,4.213e-05,0
2.8705,3.978e-05,0
2.871,3.3234e-05,0
2.8715,2.6688e-05,0
2.872,2.6017e-05,0
2.8725,2.9038e-05,0
2.873,3.1724e-05,0
2.8735,2.5513e-05,0
2.874,7.5532e-06,0
2.8745,-5.539e-06,0
2.875,-5.8747e-06,0
2.8755,-3.357e-06,0
2.876,-3.357e-06,0
2.8765,-2.8534e-06,0
2.877,4.3641e-06,0
2.8775,1.6953e-05,0
2.878,2.3667e-05,0
2.8785,2.3667e-05,0
2.879,2.4338e-05,0
2.8795,2.7192e-05,0
2.88,2.7527e-05,0
2.8805,2.5345e-05,0
2.881,1.9974e-05,0
2.8815,1.8631e-05,0
2.882,2.5177e-05,0
2.8825,3.1891e-05,0
2.883,3.8437e-05,0
2.8835,4.7837e-05,0
2.884,5.9922e-05,0
2.8845,7.1672e-05,0
2.885,8.04e-05,0
2.8855,7.6707e-05,0
2.886,6.3279e-05,0
2.8865,4.7501e-05,0
2.887,3.122e-05,0
2.8875,1.7624e-05,0
2.888,8.3925e-06,0
2.8885,4.1962e-06,0
2.889,1.1749e-06,0
2.8895,-1.5778e-05,0
2.89,-4.448e-05,0
2.8905,-5.7908e-05,0
2.891,-5.0019e-05,0
2.8915,-3.6088e-05,0
2.892,-2.031e-05,0
2.8925,-2.8534e-06,0
2.893,1.1917e-05,0
2.8935,2.0813e-05,0
2.894,2.1988e-05,0
2.8945,1.4603e-05,0
2.895,1.2924e-05,0
2.8955,2.2995e-05,0
2.896,3.5416e-05,0
2.8965,4.448e-05,0
2.897,4.3305e-05,0
2.8975,3.2731e-05,0
2.898,2.0646e-05,0
2.8985,1.1246e-05,0
2.899,1.678e-07,0
2.8995,-1.561e-05,0
2.9,-2.8534e-05,0
2.9005,-2.0981e-05,0
2.901,1.8463e-06,0
2.9015,1.5946e-05,0
2.902,1.3932e-05,0
2.9025,8.896e-06,0
2.903,1.0239e-05,0
2.9035,2.3667e-05,0
2.904,4.5823e-05,0
2.9045,6.1936e-05,0
2.905,6.4118e-05,0
2.9055,5.7572e-05,0
2.906,4.4144e-05,0
2.9065,3.3066e-05,0
2.907,3.8102e-05,0
2.9075,4.918e-05,0
2.908,4.8173e-05,0
2.9085,3.9445e-05,0
2.909,3.3234e-05,0
2.9095,2.5177e-05,0
2.91,1.2924e-05,0
2.9105,2.182e-06,0
2.911,-5.539e-06,0
2.9115,-6.8818e-06,0
2.912,3.0213e-06,0
2.9125,1.8463e-05,0
2.913,2.9206e-05,0
2.9135,3.4745e-05,0
2.914,3.1052e-05,0
2.9145,2.2995e-05,0
2.915,2.7024e-05,0
2.9155,4.0284e-05,0
2.916,5.0858e-05,0
2.9165,6.1601e-05,0
2.917,7.5532e-05,0
2.9175,7.6036e-05,0
2.918,6.1601e-05,0
2.9185,4.8173e-05,0
2.919,4.3137e-05,0
2.9195,4.213e-05,0
2.92,3.9445e-05,0
2.9205,3.7766e-05,0
2.921,3.5416e-05,0
2.9215,2.2995e-05,0
2.922,-4.6998e-06,0
2.9225,-3.6591e-05,0
2.923,-6.2272e-05,0
2.9235,-8.7282e-05,0
2.924,-0.00011699,0
2.9245,-0.00013008,0
2.925,-0.00010759,0
2.9255,-6.949e-05,0
2.926,-4.448e-05,0
2.9265,-3.5752e-05,0
2.927,-2.5513e-05,0
2.9275,-7.5532e-06,0
2.928,1.1246e-05,0
2.9285,2.6688e-05,0
2.929,3.9445e-05,0
2.9295,4.8173e-05,0
2.93,4.3809e-05,0
2.9305,3.1891e-05,0
2.931,3.1388e-05,0
2.9315,4.5487e-05,0
2.932,5.7572e-05,0
2.9325,5.2201e-05,0
2.933,3.1052e-05,0
2.9335,1.3932e-05,0
2.934,1.5106e-05,0
2.9345,2.5177e-05,0
2.935,2.8031e-05,0
2.9355,3.4073e-05,0
2.936,4.6494e-05,0
2.9365,5.623e-05,0
2.937,6.1601e-05,0
2.9375,6.5965e-05,0
2.938,6.9993e-05,0
2.9385,7.0664e-05,0
2.939,6.0594e-05,0
2.9395,3.3402e-05,0
2.94,-4.8676e-06,0
2.9405,-2.5345e-05,0
2.941,-1.2253e-05,0
2.9415,1.1917e-05,0
2.942,2.8031e-05,0
2.9425,4.2634e-05,0
2.943,5.6901e-05,0
2.9435,5.623e-05,0
2.944,3.0045e-05,0
2.9445,-5.8747e-06,0
2.945,-2.3163e-05,0
2.9455,-2.2156e-05,0
2.946,-1.3932e-05,0
2.9465,-6.8818e-06,0
2.947,-5.0355e-06,0
2.9475,-1.0239e-05,0
2.948,-2.8031e-05,0
2.9485,-4.8844e-05,0
2.949,-6.2104e-05,0
2.9495,-6.1601e-05,0
2.95,-5.0858e-05,0
2.9505,-3.7262e-05,0
2.951,-1.796e-05,0
2.9515,5.539e-06,0
2.952,2.6688e-05,0
2.9525,4.6494e-05,0
2.953,6.0761e-05,0
2.9535,7.1336e-05,0
2.954,7.6707e-05,0
2.9545,7.0329e-05,0
2.955,6.7979e-05,0
2.9555,7.8553e-05,0
2.956,9.2821e-05,0
2.9565,0.00010054,0
2.957,0.00010658,0
2.9575,0.00010994,0
2.958,0.00010658,0
2.9585,9.3492e-05,0
2.959,8.2246e-05,0
2.9595,7.9057e-05,0
2.96,7.5364e-05,0
2.9605,7.335e-05,0
2.961,7.2343e-05,0
2.9615,5.8747e-05,0
2.962,3.6759e-05,0
2.9625,2.6184e-05,0
2.963,2.4842e-05,0
2.9635,1.1414e-05,0
2.964,-1.6281e-05,0
2.9645,-4.0619e-05,0
2.965,-4.7333e-05,0
2.9655,-3.4409e-05,0
2.966,-1.6449e-05,0
2.9665,8.392e-07,0
2.967,1.8967e-05,0
2.9675,2.5849e-05,0
2.968,8.896e-06,0
2.9685,-3.1052e-05,0
2.969,-7.3686e-05,0
2.9695,-0.00010088,0
2.97,-0.00010289,0
2.9705,-9.366e-05,0
2.971,-7.6707e-05,0
2.9715,-4.5487e-05,0
2.972,-1.1917e-05,0
2.9725,2.5177e-06,0
2.973,1.3428e-06,0
2.9735,6.0426e-06,0
2.974,2.4842e-05,0
2.9745,4.7333e-05,0
2.975,6.1936e-05,0
2.9755,6.2608e-05,0
2.976,4.918e-05,0
2.9765,3.122e-05,0
2.977,1.3764e-05,0
2.9775,-1.1749e-06,0
2.978,-2.182e-06,0
2.9785,1.796e-05,0
2.979,3.8102e-05,0
2.9795,4.9515e-05,0
2.98,5.0523e-05,0
2.9805,3.122e-05,0
2.981,5.035e-07,0
2.9815,-1.326e-05,0
2.982,-6.714e-07,0
2.9825,2.1317e-05,0
2.983,3.2395e-05,0
2.9835,2.9374e-05,0
2.984,2.182e-05,0
2.9845,1.6281e-05,0
2.985,1.4603e-05,0
2.9855,1.3932e-05,0
2.986,1.4435e-05,0
2.9865,1.326e-05,0
2.987,-1.678e-07,0
2.9875,-2.9038e-05,0
2.988,-5.0858e-05,0
2.9885,-4.918e-05,0
2.989,-3.0045e-05,0
2.9895,-1.2085e-05,0
2.99,-2.8534e-06,0
2.9905,3.5248e-06,0
2.991,1.3932e-05,0
2.9915,2.6688e-05,0
2.992,3.743e-05,0
2.9925,4.5319e-05,0
2.993,5.6733e-05,0
2.9935,6.5629e-05,0
2.994,6.4118e-05,0
2.9945,5.6565e-05,0
2.995,5.7404e-05,0
2.9955,5.8915e-05,0
2.996,4.5823e-05,0
2.9965,1.6785e-05,0
2.997,-1.6617e-05,0
2.9975,-2.9709e-05,0
2.998,-1.5106e-06,0
2.9985,4.6998e-05,0
2.999,7.8386e-05,0
2.9995,8.661e-05,0
3,8.6275e-05,0
3.0005,8.9128e-05,0
3.001,9.5003e-05,0
3.0015,9.3828e-05,0
3.002,8.3757e-05,0
3.0025,6.9657e-05,0
3.003,5.9251e-05,0
3.0035,5.8915e-05,0
3.004,6.479e-05,0
3.0045,7.0161e-05,0
3.005,6.7308e-05,0
3.0055,5.8915e-05,0
3.006,4.9851e-05,0
3.0065,3.3066e-05,0
3.007,5.539e-06,0
3.0075,-1.1582e-05,0
3.008,0,0
3.0085,2.2324e-05,0
3.009,3.2731e-05,0
3.0095,2.8031e-05,0
3.01,2.0142e-05,0
3.0105,1.7792e-05,0
3.011,1.9303e-05,0
3.0115,1.5946e-05,0
3.012,1.0071e-06,0
3.0125,-1.9303e-05,0
3.013,-3.7766e-05,0
3.0135,-4.9012e-05,0
3.014,-4.8005e-05,0
3.0145,-2.7695e-05,0
3.015,-2.5177e-06,0
3.0155,3.1891e-06,0
3.016,-3.1891e-06,0
3.0165,-4.8676e-06,0
3.017,1.1414e-05,0
3.0175,3.9948e-05,0
3.018,5.5894e-05,0
3.0185,5.0523e-05,0
3.019,3.6088e-05,0
3.0195,3.1052e-05,0
3.02,3.7934e-05,0
3.0205,4.7837e-05,0
3.021,5.4383e-05,0
3.0215,5.6062e-05,0
3.022,5.4383e-05,0
3.0225,5.3376e-05,0
3.023,4.8173e-05,0
3.0235,3.7095e-05,0
3.024,2.182e-05,0
3.0245,8.2246e-06,0
3.025,-3.5248e-06,0
3.0255,-1.947e-05,0
3.026,-4.1459e-05,0
3.0265,-6.1769e-05,0
3.027,-5.6565e-05,0
3.0275,-2.887e-05,0
3.028,-4.3641e-06,0
3.0285,4.5319e-06,0
3.029,-1.1749e-06,0
3.0295,-8.3925e-06,0
3.03,-1.091e-05,0
3.0305,-8.3925e-06,0
3.031,-2.6856e-06,0
3.0315,-5.035e-07,0
3.032,-1.2253e-05,0
3.0325,-2.7024e-05,0
3.033,-3.2731e-05,0
3.0335,-1.7624e-05,0
3.034,1.6281e-05,0
3.0345,5.2872e-05,0
3.035,8.8457e-05,0
3.0355,0.00012438,0
3.036,0.00014955,0
3.0365,0.00015409,0
3.037,0.00014066,0
3.0375,0.00011363,0
3.038,6.865e-05,0
3.0385,1.3764e-05,0
3.039,-4.1291e-05,0
3.0395,-0.00010726,0
3.04,-0.00018027,0
3.0405,-0.00021334,0
3.041,-0.00017926,0
3.0415,-0.00011531,0
3.042,-7.6204e-05,0
3.0425,-6.7643e-05,0
3.043,-6.8315e-05,0
3.0435,-7.3518e-05,0
3.044,-8.7785e-05,0
3.0445,-9.0806e-05,0
3.045,-6.0594e-05,0
3.0455,-1.5946e-05,0
3.046,8.896e-06,0
3.0465,3.1724e-05,0
3.047,7.7714e-05,0
3.0475,0.00012236,0
3.048,0.00013579,0
3.0485,0.00012454,0
3.049,0.00011666,0
3.0495,0.00012203,0
3.05,0.00012253,0
3.0505,0.0001086,0
3.051,0.00010088,0
3.0515,0.00010188,0
3.052,9.5171e-05,0
3.0525,7.2679e-05,0
3.053,5.4383e-05,0
3.0535,5.3208e-05,0
3.054,5.388e-05,0
3.0545,4.8005e-05,0
3.055,4.448e-05,0
3.0555,4.8676e-05,0
3.056,6.3783e-05,0
3.0565,8.5771e-05,0
3.057,9.8192e-05,0
3.0575,9.2149e-05,0
3.058,7.9393e-05,0
3.0585,6.6636e-05,0
3.059,4.3977e-05,0
3.0595,3.1891e-06,0
3.06,-3.3738e-05,0
3.0605,-4.9012e-05,0
3.061,-4.6159e-05,0
3.0615,-3.6088e-05,0
3.062,-4.0116e-05,0
3.0625,-6.9322e-05,0
3.063,-0.00010961,0
3.0635,-0.00014972,0
3.064,-0.00019219,0
3.0645,-0.00022979,0
3.065,-0.00023029,0
3.0655,-0.00018363,0
3.066,-0.00010474,0
3.0665,-1.9135e-05,0
3.067,2.7359e-05,0
3.0675,3.0381e-05,0
3.068,3.3066e-05,0
3.0685,5.6397e-05,0
3.069,8.4764e-05,0
3.0695,0.00010188,0
3.07,0.0001044,0
3.0705,9.7185e-05,0
3.071,9.0135e-05,0
3.0715,8.7785e-05,0
3.072,8.6778e-05,0
3.0725,9.1142e-05,0
3.073,9.8695e-05,0
3.0735,9.9199e-05,0
3.074,9.1142e-05,0
3.0745,9.1142e-05,0
3.075,0.00010289,0
3.0755,0.00011666,0
3.076,0.00012975,0
3.0765,0.00014553,0
3.077,0.000165,0
3.0775,0.00017641,0
3.078,0.00017356,0
3.0785,0.0001603,0
3.079,0.00014267,0
3.0795,0.00013109,0
3.08,0.00012236,0
3.0805,0.00010457,0
3.081,6.6972e-05,0
3.0815,4.5319e-06,0
3.082,-6.3279e-05,0
3.0825,-9.9199e-05,0
3.083,-9.5506e-05,0
3.0835,-7.7546e-05,0
3.084,-5.9251e-05,0
3.0845,-5.1865e-05,0
3.085,-5.8915e-05,0
3.0855,-7.0329e-05,0
3.086,-8.0735e-05,0
3.0865,-8.7785e-05,0
3.087,-8.6107e-05,0
3.0875,-7.4021e-05,0
3.088,-6.714e-05,0
3.0885,-6.7979e-05,0
3.089,-6.5293e-05,0
3.0895,-6.1936e-05,0
3.09,-5.0019e-05,0
3.0905,-2.7527e-05,0
3.091,-7.3854e-06,0
3.0915,7.2175e-06,0
3.092,1.4267e-05,0
3.0925,2.0478e-05,0
3.093,2.8702e-05,0
3.0935,3.2395e-05,0
3.094,3.9612e-05,0
3.0945,5.5055e-05,0
3.095,6.5965e-05,0
3.0955,6.8818e-05,0
3.096,6.9322e-05,0
3.0965,7.1336e-05,0
3.097,7.2175e-05,0
3.0975,7.4357e-05,0
3.098,8.191e-05,0
3.0985,8.9296e-05,0
3.099,8.7114e-05,0
3.0995,7.5364e-05,0
3.1,6.5629e-05,0
3.1005,6.2272e-05,0
3.101,5.6565e-05,0
3.1015,3.3066e-05,0
3.102,-7.0497e-06,0
3.1025,-5.2537e-05,0
3.103,-9.9199e-05,0
