0,1.3092e-05,0
0.0005,1.947e-05,0
0.001,2.9709e-05,0
0.0015,3.1891e-05,0
0.002,3.0716e-05,0
0.0025,2.9374e-05,0
0.003,2.5345e-05,0
0.0035,2.3499e-05,0
0.004,2.6017e-05,0
0.0045,2.8534e-05,0
0.005,3.122e-05,0
0.0055,3.2059e-05,0
0.006,2.7359e-05,0
0.0065,2.1317e-05,0
0.007,1.7624e-05,0
0.0075,1.6114e-05,0
0.008,1.9303e-05,0
0.0085,2.1317e-05,0
0.009,1.6617e-05,0
0.0095,9.3996e-06,0
0.01,4.1962e-06,0
0.0105,2.5177e-06,0
0.011,7.5532e-06,0
0.0115,1.3092e-05,0
0.012,1.4939e-05,0
0.0125,1.8463e-05,0
0.013,2.0813e-05,0
0.0135,1.9135e-05,0
0.014,1.9303e-05,0
0.0145,1.6785e-05,0
0.015,1.4099e-05,0
0.0155,1.8463e-05,0
0.016,1.5778e-05,0
0.0165,1.0239e-05,0
0.017,1.4603e-05,0
0.0175,1.8967e-05,0
0.018,2.031e-05,0
0.0185,2.5681e-05,0
0.019,2.3667e-05,0
0.0195,1.8296e-05,0
0.02,1.9303e-05,0
0.0205,2.2492e-05,0
0.021,2.1653e-05,0
0.0215,1.9974e-05,0
0.022,2.4842e-05,0
0.0225,3.0716e-05,0
0.023,3.3234e-05,0
0.0235,2.9038e-05,0
0.024,2.2492e-05,0
0.0245,2.4338e-05,0
0.025,3.122e-05,0
0.0255,3.3906e-05,0
0.026,3.4745e-05,0
0.0265,2.9374e-05,0
0.027,2.1317e-05,0
0.0275,1.326e-05,0
0.028,1.1917e-05,0
0.0285,2.0646e-05,0
0.029,1.5442e-05,0
0.0295,3.1891e-06,0
0.03,4.3641e-06,0
0.0305,4.5319e-06,0
0.031,2.3499e-06,0
0.0315,8.896e-06,0
0.032,9.9031e-06,0
0.0325,5.2033e-06,0
0.033,7.8889e-06,0
0.0335,1.5106e-05,0
0.034,2.2995e-05,0
0.0345,2.7695e-05,0
0.035,2.7863e-05,0
0.0355,2.7695e-05,0
0.036,2.8367e-05,0
0.0365,2.7192e-05,0
0.037,2.6688e-05,0
0.0375,2.8702e-05,0
0.038,2.9038e-05,0
0.0385,2.5681e-05,0
0.039,1.9974e-05,0
0.0395,1.6617e-05,0
0.04,1.9638e-05,0
0.0405,2.4002e-05,0
0.041,2.2995e-05,0
0.0415,2.3331e-05,0
0.042,1.8631e-05,0
0.0425,1.4939e-05,0
0.043,1.5946e-05,0
0.0435,1.326e-05,0
0.044,9.2317e-06,0
0.0445,1.3764e-05,0
0.045,1.7288e-05,0
0.0455,1.4939e-05,0
0.046,1.5946e-05,0
0.0465,2.031e-05,0
0.047,2.0981e-05,0
0.0475,1.9974e-05,0
0.048,1.9135e-05,0
0.0485,1.9974e-05,0
0.049,2.3331e-05,0
0.0495,3.0716e-05,0
0.05,3.5416e-05,0
0.0505,3.4409e-05,0
0.051,3.0716e-05,0
0.0515,2.7192e-05,0
0.052,2.4002e-05,0
0.0525,1.8296e-05,0
0.053,1.4603e-05,0
0.0535,1.4267e-05,0
0.054,1.561e-05,0
0.0545,1.8631e-05,0
0.055,1.5946e-05,0
0.0555,1.2253e-05,0
0.056,1.5274e-05,0
0.0565,1.3932e-05,0
0.057,8.7282e-06,0
0.0575,1.4099e-05,0
0.058,1.8631e-05,0
0.0585,1.6281e-05,0
0.059,1.3932e-05,0
0.0595,1.561e-05,0
0.06,1.7624e-05,0
0.0605,1.8631e-05,0
0.061,1.8967e-05,0
0.0615,1.8296e-05,0
0.062,1.6617e-05,0
0.0625,1.4099e-05,0
0.063,1.4435e-05,0
0.0635,1.6449e-05,0
0.064,1.7792e-05,0
0.0645,1.7121e-05,0
0.065,1.796e-05,0
0.0655,1.9303e-05,0
0.066,1.7624e-05,0
0.0665,1.091e-05,0
0.067,5.8747e-06,0
0.0675,1.0071e-05,0
0.068,1.1582e-05,0
0.0685,8.2246e-06,0
0.069,1.0407e-05,0
0.0695,1.1246e-05,0
0.07,1.1582e-05,0
0.0705,1.8296e-05,0
0.071,1.8631e-05,0
0.0715,1.7288e-05,0
0.072,2.4002e-05,0
0.0725,3.0381e-05,0
0.073,3.1724e-05,0
0.0735,3.3066e-05,0
0.074,3.3906e-05,0
0.0745,3.0213e-05,0
0.075,2.7695e-05,0
0.0755,3.1388e-05,0
0.076,3.7262e-05,0
0.0765,3.3906e-05,0
0.077,2.8031e-05,0
0.0775,2.8199e-05,0
0.078,2.8031e-05,0
0.0785,2.4674e-05,0
0.079,2.5345e-05,0
0.0795,2.3667e-05,0
0.08,1.9974e-05,0
0.0805,2.0478e-05,0
0.081,1.1582e-05,0
0.0815,6.5461e-06,0
0.082,1.2589e-05,0
0.0825,1.1414e-05,0
0.083,7.8889e-06,0
0.0835,1.0742e-05,0
0.084,1.1414e-05,0
0.0845,1.3092e-05,0
0.085,1.9303e-05,0
0.0855,2.4674e-05,0
0.086,2.6688e-05,0
0.0865,2.5345e-05,0
0.087,2.2995e-05,0
0.0875,2.0981e-05,0
0.088,1.8631e-05,0
0.0885,1.7792e-05,0
0.089,2.1149e-05,0
0.0895,2.4506e-05,0
0.09,2.5009e-05,0
0.0905,2.3835e-05,0
0.091,2.182e-05,0
0.0915,2.0981e-05,0
0.092,2.1317e-05,0
0.0925,1.5778e-05,0
0.093,9.9031e-06,0
0.0935,1.4435e-05,0
0.094,1.5946e-05,0
0.0945,1.561e-05,0
0.095,2.3331e-05,0
0.0955,2.266e-05,0
0.096,1.947e-05,0
0.0965,2.4002e-05,0
0.097,2.1988e-05,0
0.0975,1.6449e-05,0
0.098,2.0646e-05,0
0.0985,2.6688e-05,0
0.099,2.6352e-05,0
0.0995,2.1653e-05,0
0.1,1.9974e-05,0
0.1005,2.2324e-05,0
0.101,2.5345e-05,0
0.1015,2.6688e-05,0
0.102,2.7024e-05,0
0.1025,2.6688e-05,0
0.103,2.5345e-05,0
0.1035,2.3163e-05,0
0.104,2.6184e-05,0
0.1045,2.9374e-05,0
0.105,2.7359e-05,0
0.1055,1.8631e-05,0
0.106,1.5274e-05,0
0.1065,2.2324e-05,0
0.107,2.3667e-05,0
0.1075,1.8967e-05,0
0.108,1.9303e-05,0
0.1085,1.6953e-05,0
0.109,1.326e-05,0
0.1095,1.6617e-05,0
0.11,2.1317e-05,0
0.1105,2.4338e-05,0
0.111,2.5177e-05,0
0.1115,2.2995e-05,0
0.112,2.5345e-05,0
0.1125,2.6688e-05,0
0.113,2.3331e-05,0
0.1135,1.9135e-05,0
0.114,1.4939e-05,0
0.1145,1.091e-05,0
0.115,8.2246e-06,0
0.1155,9.7353e-06,0
0.116,1.1582e-05,0
0.1165,1.1078e-05,0
0.117,7.7211e-06,0
0.1175,3.8605e-06,0
0.118,7.2175e-06,0
0.1185,1.1078e-05,0
0.119,1.4603e-05,0
0.1195,2.417e-05,0
0.12,2.5849e-05,0
0.1205,2.0646e-05,0
0.121,2.1653e-05,0
0.1215,2.1988e-05,0
0.122,2.031e-05,0
0.1225,2.2828e-05,0
0.123,2.2995e-05,0
0.1235,2.1988e-05,0
0.124,2.3667e-05,0
0.1245,2.4674e-05,0
0.125,2.3331e-05,0
0.1255,1.8128e-05,0
0.126,1.7288e-05,0
0.1265,2.1317e-05,0
0.127,2.182e-05,0
0.1275,1.7624e-05,0
0.128,1.6785e-05,0
0.1285,1.7624e-05,0
0.129,1.5946e-05,0
0.1295,1.1078e-05,0
0.13,1.1917e-05,0
0.1305,1.5946e-05,0
0.131,2.0981e-05,0
0.1315,1.7624e-05,0
0.132,1.6281e-05,0
0.1325,2.7024e-05,0
0.133,3.1724e-05,0
0.1335,2.4338e-05,0
0.134,2.0478e-05,0
0.1345,1.5274e-05,0
0.135,1.4435e-05,0
0.1355,2.2995e-05,0
0.136,2.2492e-05,0
0.1365,1.7121e-05,0
0.137,1.7624e-05,0
0.1375,2.0981e-05,0
0.138,2.1317e-05,0
0.1385,1.8296e-05,0
0.139,1.5946e-05,0
0.1395,1.5946e-05,0
0.14,1.7456e-05,0
0.1405,1.6449e-05,0
0.141,1.4939e-05,0
0.1415,1.6953e-05,0
0.142,2.1988e-05,0
0.1425,2.6688e-05,0
0.143,3.0381e-05,0
0.1435,2.8031e-05,0
0.144,2.2324e-05,0
0.1445,1.8296e-05,0
0.145,1.7624e-05,0
0.1455,2.4338e-05,0
0.146,2.266e-05,0
0.1465,1.7288e-05,0
0.147,2.0646e-05,0
0.1475,2.2995e-05,0
0.148,2.4674e-05,0
0.1485,2.3667e-05,0
0.149,1.4603e-05,0
0.1495,1.3092e-05,0
0.15,2.1317e-05,0
0.1505,2.2324e-05,0
0.151,1.947e-05,0
0.1515,1.8967e-05,0
0.152,1.4435e-05,0
0.1525,7.2175e-06,0
0.153,3.357e-06,0
0.1535,7.8889e-06,0
0.154,1.6281e-05,0
0.1545,1.8631e-05,0
0.155,1.5274e-05,0
0.1555,1.326e-05,0
0.156,1.326e-05,0
0.1565,1.4603e-05,0
0.157,1.8799e-05,0
0.1575,2.1317e-05,0
0.158,2.031e-05,0
0.1585,1.8463e-05,0
0.159,1.4939e-05,0
0.1595,1.4435e-05,0
0.16,2.1317e-05,0
0.1605,2.5849e-05,0
0.161,2.6017e-05,0
0.1615,2.4506e-05,0
0.162,1.5946e-05,0
0.1625,1.326e-05,0
0.163,2.2492e-05,0
0.1635,2.8702e-05,0
0.164,2.3331e-05,0
0.1645,1.8631e-05,0
0.165,2.3331e-05,0
0.1655,2.7192e-05,0
0.166,2.6017e-05,0
0.1665,2.6688e-05,0
0.167,2.8367e-05,0
0.1675,2.4338e-05,0
0.168,1.8631e-05,0
0.1685,1.9135e-05,0
0.169,2.2995e-05,0
0.1695,2.652e-05,0
0.17,2.4842e-05,0
0.1705,1.9303e-05,0
0.171,1.7288e-05,0
0.1715,2.4338e-05,0
0.172,2.652e-05,0
0.1725,2.3331e-05,0
0.173,2.5177e-05,0
0.1735,2.1317e-05,0
0.174,1.6617e-05,0
0.1745,1.796e-05,0
0.175,1.561e-05,0
0.1755,1.3932e-05,0
0.176,1.9135e-05,0
0.1765,2.0981e-05,0
0.177,1.6617e-05,0
0.1775,1.1582e-05,0
0.178,1.1414e-05,0
0.1785,1.4939e-05,0
0.179,1.6617e-05,0
0.1795,1.2924e-05,0
0.18,7.8889e-06,0
0.1805,7.2175e-06,0
0.181,1.2589e-05,0
0.1815,2.0646e-05,0
0.182,2.5177e-05,0
0.1825,2.266e-05,0
0.183,2.2995e-05,0
0.1835,2.266e-05,0
0.184,1.8967e-05,0
0.1845,2.1317e-05,0
0.185,2.0646e-05,0
0.1855,1.5106e-05,0
0.186,1.7624e-05,0
0.1865,1.7624e-05,0
0.187,1.7792e-05,0
0.1875,2.7192e-05,0
0.188,2.5345e-05,0
0.1885,1.9974e-05,0
0.189,2.4674e-05,0
0.1895,2.6017e-05,0
0.19,2.5009e-05,0
0.1905,2.4674e-05,0
0.191,2.5345e-05,0
0.1915,2.4674e-05,0
0.192,2.5513e-05,0
0.1925,2.9038e-05,0
0.193,3.1052e-05,0
0.1935,3.2059e-05,0
0.194,2.8031e-05,0
0.1945,2.2324e-05,0
0.195,2.031e-05,0
0.1955,1.7624e-05,0
0.196,1.6449e-05,0
0.1965,1.326e-05,0
0.197,8.896e-06,0
0.1975,1.091e-05,0
0.198,1.2589e-05,0
0.1985,1.0575e-05,0
0.199,1.326e-05,0
0.1995,1.5946e-05,0
0.2,1.6617e-05,0
0.2005,1.7456e-05,0
0.201,1.5778e-05,0
0.2015,1.8631e-05,0
0.202,2.7359e-05,0
0.2025,2.9709e-05,0
0.203,2.8702e-05,0
0.2035,2.8031e-05,0
0.204,2.9877e-05,0
0.2045,3.0716e-05,0
0.205,3.1724e-05,0
0.2055,3.2059e-05,0
0.206,3.0213e-05,0
0.2065,2.6352e-05,0
0.207,1.9303e-05,0
0.2075,1.7121e-05,0
0.208,1.9303e-05,0
0.2085,1.796e-05,0
0.209,1.6617e-05,0
0.2095,1.4435e-05,0
0.21,1.4603e-05,0
0.2105,2.2156e-05,0
0.211,2.266e-05,0
0.2115,1.7288e-05,0
0.212,1.7121e-05,0
0.2125,1.6281e-05,0
0.213,1.5946e-05,0
0.2135,2.0646e-05,0
0.214,1.8967e-05,0
0.2145,1.8296e-05,0
0.215,2.7192e-05,0
0.2155,3.4409e-05,0
0.216,3.0716e-05,0
0.2165,2.4674e-05,0
0.217,2.3331e-05,0
0.2175,2.6688e-05,0
0.218,2.9038e-05,0
0.2185,2.6017e-05,0
0.219,1.9974e-05,0
0.2195,1.4603e-05,0
0.22,1.5946e-05,0
0.2205,1.7624e-05,0
0.221,1.4099e-05,0
0.2215,9.7353e-06,0
0.222,6.5461e-06,0
0.2225,3.8605e-06,0
0.223,3.357e-07,0
0.2235,3.5248e-06,0
0.224,3.5248e-06,0
0.2245,-1.678e-07,0
0.225,2.5177e-06,0
0.2255,3.8605e-06,0
0.226,5.2033e-06,0
0.2265,9.9031e-06,0
0.227,1.0071e-05,0
0.2275,6.3783e-06,0
0.228,1.0239e-05,0
0.2285,1.7288e-05,0
0.229,2.1988e-05,0
0.2295,2.5177e-05,0
0.23,2.8534e-05,0
0.2305,2.9038e-05,0
0.231,2.5009e-05,0
0.2315,2.0646e-05,0
0.232,2.1317e-05,0
0.2325,2.2995e-05,0
0.233,2.4338e-05,0
0.2335,2.4506e-05,0
0.234,2.3163e-05,0
0.2345,2.3667e-05,0
0.235,2.7359e-05,0
0.2355,2.3667e-05,0
0.236,1.7624e-05,0
0.2365,2.1988e-05,0
0.237,2.3835e-05,0
0.2375,2.1988e-05,0
0.238,2.3331e-05,0
0.2385,1.9806e-05,0
0.239,1.9638e-05,0
0.2395,2.7695e-05,0
0.24,2.9374e-05,0
0.2405,2.7359e-05,0
0.241,2.9038e-05,0
0.2415,2.8702e-05,0
0.242,2.5177e-05,0
0.2425,2.2828e-05,0
0.243,1.8296e-05,0
0.2435,1.1582e-05,0
0.244,6.8818e-06,0
0.2445,6.5461e-06,0
0.245,1.0575e-05,0
0.2455,1.3932e-05,0
0.246,1.5106e-05,0
0.2465,1.4603e-05,0
0.247,1.0407e-05,0
0.2475,3.5248e-06,0
0.248,3.357e-06,0
0.2485,7.0497e-06,0
0.249,7.2175e-06,0
0.2495,1.3764e-05,0
0.25,2.031e-05,0
0.2505,1.9806e-05,0
0.251,2.2995e-05,0
0.2515,2.4674e-05,0
0.252,2.5345e-05,0
0.2525,2.6688e-05,0
0.253,2.0142e-05,0
0.2535,1.3428e-05,0
0.254,1.4267e-05,0
0.2545,1.5442e-05,0
0.255,1.5274e-05,0
0.2555,1.561e-05,0
0.256,2.0478e-05,0
0.2565,2.3667e-05,0
0.257,2.4002e-05,0
0.2575,2.4002e-05,0
0.258,2.4002e-05,0
0.2585,2.1317e-05,0
0.259,1.9974e-05,0
0.2595,2.031e-05,0
0.26,1.8631e-05,0
0.2605,1.6114e-05,0
0.261,2.031e-05,0
0.2615,1.9303e-05,0
0.262,1.6953e-05,0
0.2625,2.1988e-05,0
0.263,2.2492e-05,0
0.2635,1.8967e-05,0
0.264,2.2995e-05,0
0.2645,2.4674e-05,0
0.265,2.5009e-05,0
0.2655,3.2059e-05,0
0.266,3.0381e-05,0
0.2665,2.6017e-05,0
0.267,2.9542e-05,0
0.2675,3.2059e-05,0
0.268,3.0045e-05,0
0.2685,2.9542e-05,0
0.269,3.4073e-05,0
0.2695,3.592e-05,0
0.27,3.3738e-05,0
0.2705,3.1388e-05,0
0.271,3.2898e-05,0
0.2715,3.2563e-05,0
0.272,2.8031e-05,0
0.2725,2.266e-05,0
0.273,2.1988e-05,0
0.2735,2.3835e-05,0
0.274,2.5849e-05,0
0.2745,1.9303e-05,0
0.275,1.1414e-05,0
0.2755,1.7792e-05,0
0.276,2.0646e-05,0
0.2765,1.4771e-05,0
0.277,1.4603e-05,0
0.2775,1.3932e-05,0
0.278,1.2421e-05,0
0.2785,1.6449e-05,0
0.279,1.5946e-05,0
0.2795,1.0239e-05,0
0.28,9.7353e-06,0
0.2805,1.1582e-05,0
0.281,1.0575e-05,0
0.2815,5.7069e-06,0
0.282,1.8463e-06,0
0.2825,4.6998e-06,0
0.283,1.0407e-05,0
0.2835,1.4435e-05,0
0.284,1.7456e-05,0
0.2845,1.9135e-05,0
0.285,2.266e-05,0
0.2855,2.652e-05,0
0.286,2.4002e-05,0
0.2865,1.9135e-05,0
0.287,1.9303e-05,0
0.2875,1.6785e-05,0
0.288,1.6114e-05,0
0.2885,2.4674e-05,0
0.289,2.8367e-05,0
0.2895,2.7359e-05,0
0.29,3.1052e-05,0
0.2905,2.8031e-05,0
0.291,2.2156e-05,0
0.2915,2.3667e-05,0
0.292,1.8128e-05,0
0.2925,1.1246e-05,0
0.293,1.5106e-05,0
0.2935,2.0142e-05,0
0.294,2.2828e-05,0
0.2945,2.6688e-05,0
0.295,2.9374e-05,0
0.2955,2.5681e-05,0
0.296,2.0646e-05,0
0.2965,1.6617e-05,0
0.297,1.9806e-05,0
0.2975,2.7863e-05,0
0.298,3.0045e-05,0
0.2985,2.5177e-05,0
0.299,2.0478e-05,0
0.2995,1.5778e-05,0
0.3,1.6617e-05,0
0.3005,1.796e-05,0
0.301,1.3932e-05,0
0.3015,1.1917e-05,0
0.302,8.7282e-06,0
0.3025,5.8747e-06,0
0.303,1.1749e-05,0
0.3035,1.3596e-05,0
0.304,1.3764e-05,0
0.3045,1.8463e-05,0
0.305,1.5274e-05,0
0.3055,1.2421e-05,0
0.306,1.7288e-05,0
0.3065,1.9974e-05,0
0.307,2.0646e-05,0
0.3075,2.3163e-05,0
0.308,2.266e-05,0
0.3085,2.1988e-05,0
0.309,2.417e-05,0
0.3095,2.3667e-05,0
0.31,2.1149e-05,0
0.3105,1.9974e-05,0
0.311,1.8128e-05,0
0.3115,1.7456e-05,0
0.312,2.031e-05,0
0.3125,2.3667e-05,0
0.313,2.5009e-05,0
0.3135,1.8631e-05,0
0.314,1.0575e-05,0
0.3145,1.5946e-05,0
0.315,1.9135e-05,0
0.3155,1.4603e-05,0
0.316,1.7624e-05,0
0.3165,2.266e-05,0
0.317,2.7359e-05,0
0.3175,3.6423e-05,0
0.318,3.4409e-05,0
0.3185,2.7359e-05,0
0.319,2.9374e-05,0
0.3195,3.2059e-05,0
0.32,2.9877e-05,0
0.3205,2.5177e-05,0
0.321,2.6017e-05,0
0.3215,2.7024e-05,0
0.322,2.6352e-05,0
0.3225,2.8534e-05,0
0.323,2.887e-05,0
0.3235,2.8199e-05,0
0.324,2.5009e-05,0
0.3245,1.8967e-05,0
0.325,0,0
0.3255,0,0
0.326,0,0
0.3265,0,0
0.327,0,0
0.3275,0,0
0.328,0,0
0.3285,0,0
0.329,0,0
0.3295,0,0
0.33,0,0
0.3305,0,0
0.331,0,0
0.3315,0,0
0.332,0,0
0.3325,0,0
0.333,0,0
0.3335,0,0
0.334,0,0
0.3345,0,0
0.335,0,0
0.3355,0,0
0.336,0,0
0.3365,0,0
0.337,0,0
0.3375,0,0
0.338,2.0981e-05,0
0.3385,1.561e-05,0
0.339,1.4435e-05,0
0.3395,1.1078e-05,0
0.34,3.1891e-06,0
0.3405,-8.392e-07,0
0.341,-2.8534e-06,0
0.3415,-5.035e-07,0
0.342,9.0639e-06,0
0.3425,1.1078e-05,0
0.343,1.326e-05,0
0.3435,2.2828e-05,0
0.344,2.6352e-05,0
0.3445,2.6352e-05,0
0.345,3.122e-05,0
0.3455,3.4745e-05,0
0.346,3.4073e-05,0
0.3465,3.4073e-05,0
0.347,4.1123e-05,0
0.3475,4.4312e-05,0
0.348,3.9948e-05,0
0.3485,3.1388e-05,0
0.349,2.8367e-05,0
0.3495,2.9206e-05,0
0.35,2.6688e-05,0
0.3505,2.2156e-05,0
0.351,1.7792e-05,0
0.3515,1.1917e-05,0
0.352,1.5442e-05,0
0.3525,1.8296e-05,0
0.353,1.561e-05,0
0.3535,1.5442e-05,0
0.354,9.9031e-06,0
0.3545,5.539e-06,0
0.355,1.2757e-05,0
0.3555,1.796e-05,0
0.356,2.031e-05,0
0.3565,1.8967e-05,0
0.357,8.5603e-06,0
0.3575,3.6927e-06,0
0.358,1.0575e-05,0
0.3585,1.8967e-05,0
0.359,2.0646e-05,0
0.3595,1.5946e-05,0
0.36,1.2421e-05,0
0.3605,1.326e-05,0
0.361,1.796e-05,0
0.3615,2.182e-05,0
0.362,2.0646e-05,0
0.3625,1.8631e-05,0
0.363,2.0646e-05,0
0.3635,2.0646e-05,0
0.364,1.8463e-05,0
0.3645,1.8463e-05,0
0.365,1.9638e-05,0
0.3655,1.7288e-05,0
0.366,1.326e-05,0
0.3665,1.4939e-05,0
0.367,1.3428e-05,0
0.3675,1.5442e-05,0
0.368,2.6017e-05,0
0.3685,2.7192e-05,0
0.369,1.9638e-05,0
0.3695,1.8631e-05,0
0.37,1.7624e-05,0
0.3705,1.5946e-05,0
0.371,1.6953e-05,0
0.3715,2.0646e-05,0
0.372,2.3331e-05,0
0.3725,2.1653e-05,0
0.373,2.0981e-05,0
0.3735,2.3499e-05,0
0.374,2.6688e-05,0
0.3745,2.7024e-05,0
0.375,2.4674e-05,0
0.3755,2.5009e-05,0
0.376,2.7359e-05,0
0.3765,2.9709e-05,0
0.377,3.0549e-05,0
0.3775,2.7024e-05,0
0.378,2.4842e-05,0
0.3785,2.1317e-05,0
0.379,1.8463e-05,0
0.3795,2.4674e-05,0
0.38,2.5345e-05,0
0.3805,2.0646e-05,0
0.381,2.417e-05,0
0.3815,2.1317e-05,0
0.382,1.1917e-05,0
0.3825,1.0071e-05,0
0.383,9.9031e-06,0
0.3835,9.0639e-06,0
0.384,1.091e-05,0
0.3845,1.561e-05,0
0.385,1.9135e-05,0
0.3855,1.9303e-05,0
0.386,1.796e-05,0
0.3865,1.3596e-05,0
0.387,1.1582e-05,0
0.3875,1.4267e-05,0
0.388,1.8296e-05,0
0.3885,1.8631e-05,0
0.389,1.8631e-05,0
0.3895,1.6281e-05,0
0.39,8.896e-06,0
0.3905,4.8676e-06,0
0.391,1.2757e-05,0
0.3915,1.561e-05,0
0.392,7.5532e-06,0
0.3925,5.7069e-06,0
0.393,1.0239e-05,0
0.3935,1.2924e-05,0
0.394,1.5946e-05,0
0.3945,1.796e-05,0
0.395,2.0478e-05,0
0.3955,2.1653e-05,0
0.396,1.4603e-05,0
0.3965,1.2589e-05,0
0.397,2.2995e-05,0
0.3975,3.1052e-05,0
0.398,3.0213e-05,0
0.3985,2.6184e-05,0
0.399,2.9709e-05,0
0.3995,3.2731e-05,0
0.4,3.0884e-05,0
0.4005,2.6352e-05,0
0.401,2.4674e-05,0
0.4015,2.417e-05,0
0.402,2.3331e-05,0
0.4025,2.5849e-05,0
0.403,2.4002e-05,0
0.4035,1.6617e-05,0
0.404,1.5274e-05,0
0.4045,1.5442e-05,0
0.405,1.3764e-05,0
0.4055,1.5946e-05,0
0.406,1.9974e-05,0
0.4065,1.8296e-05,0
0.407,1.8631e-05,0
0.4075,1.796e-05,0
0.408,1.8967e-05,0
0.4085,2.3331e-05,0
0.409,2.2995e-05,0
0.4095,2.182e-05,0
0.41,2.4842e-05,0
0.4105,2.5681e-05,0
0.411,2.4338e-05,0
0.4115,2.1988e-05,0
0.412,2.1317e-05,0
0.4125,2.0478e-05,0
0.413,1.7288e-05,0
0.4135,1.5442e-05,0
0.414,1.796e-05,0
0.4145,2.031e-05,0
0.415,2.0646e-05,0
0.4155,1.6114e-05,0
0.416,1.0575e-05,0
0.4165,1.091e-05,0
0.417,1.6449e-05,0
0.4175,1.6281e-05,0
0.418,1.3596e-05,0
0.4185,1.9135e-05,0
0.419,2.1149e-05,0
0.4195,2.1317e-05,0
0.42,2.8702e-05,0
0.4205,2.5513e-05,0
0.421,1.5442e-05,0
0.4215,1.5778e-05,0
0.422,1.7792e-05,0
0.4225,1.6617e-05,0
0.423,1.8967e-05,0
0.4235,2.5849e-05,0
0.424,3.0381e-05,0
0.4245,2.6017e-05,0
0.425,2.1149e-05,0
0.4255,1.9303e-05,0
0.426,1.9135e-05,0
0.4265,1.7288e-05,0
0.427,1.3596e-05,0
0.4275,1.2589e-05,0
0.428,1.6449e-05,0
0.4285,1.9303e-05,0
0.429,1.7624e-05,0
0.4295,1.2757e-05,0
0.43,1.0575e-05,0
0.4305,1.1917e-05,0
0.431,1.3092e-05,0
0.4315,1.6617e-05,0
0.432,1.8799e-05,0
0.4325,1.9638e-05,0
0.433,1.9974e-05,0
0.4335,1.8296e-05,0
0.434,1.5946e-05,0
0.4345,1.8296e-05,0
0.435,1.5106e-05,0
0.4355,1.0071e-05,0
0.436,1.5106e-05,0
0.4365,2.1317e-05,0
0.437,2.5345e-05,0
0.4375,2.6352e-05,0
0.438,2.1317e-05,0
0.4385,2.031e-05,0
0.439,2.6184e-05,0
0.4395,3.3066e-05,0
0.44,3.4745e-05,0
0.4405,3.0381e-05,0
0.441,2.6017e-05,0
0.4415,2.3331e-05,0
0.442,2.4506e-05,0
0.4425,2.3667e-05,0
0.443,2.5009e-05,0
0.4435,2.4002e-05,0
0.444,2.1653e-05,0
0.4445,2.4506e-05,0
0.445,2.031e-05,0
0.4455,1.1749e-05,0
0.446,1.1246e-05,0
0.4465,1.4435e-05,0
0.447,1.6617e-05,0
0.4475,2.266e-05,0
0.448,2.1317e-05,0
0.4485,1.5274e-05,0
0.449,1.3932e-05,0
0.4495,1.8128e-05,0
0.45,2.2995e-05,0
0.4505,2.1653e-05,0
0.451,1.8128e-05,0
0.4515,1.8967e-05,0
0.452,1.9303e-05,0
0.4525,1.7624e-05,0
0.453,1.9303e-05,0
0.4535,2.4002e-05,0
0.454,2.5513e-05,0
0.4545,2.4338e-05,0
0.455,2.2492e-05,0
0.4555,2.2828e-05,0
0.456,2.7863e-05,0
0.4565,2.7359e-05,0
0.457,2.3331e-05,0
0.4575,2.8031e-05,0
0.458,2.9374e-05,0
0.4585,2.4338e-05,0
0.459,2.6688e-05,0
0.4595,2.4842e-05,0
0.46,1.9135e-05,0
0.4605,2.2324e-05,0
0.461,2.4338e-05,0
0.4615,2.2995e-05,0
0.462,2.5009e-05,0
0.4625,2.6688e-05,0
0.463,2.6688e-05,0
0.4635,2.652e-05,0
0.464,2.9206e-05,0
0.4645,2.8702e-05,0
0.465,2.7024e-05,0
0.4655,2.6017e-05,0
0.466,2.5513e-05,0
0.4665,2.4674e-05,0
0.467,2.1317e-05,0
0.4675,1.8296e-05,0
0.468,1.6281e-05,0
0.4685,1.1246e-05,0
0.469,1.0575e-05,0
0.4695,9.7353e-06,0
0.47,8.2246e-06,0
0.4705,1.2253e-05,0
0.471,1.091e-05,0
0.4715,1.2421e-05,0
0.472,1.8631e-05,0
0.4725,1.7624e-05,0
0.473,1.4939e-05,0
0.4735,1.7456e-05,0
0.474,1.6281e-05,0
0.4745,1.1749e-05,0
0.475,1.2589e-05,0
0.4755,1.5274e-05,0
0.476,1.6953e-05,0
0.4765,1.796e-05,0
0.477,1.9303e-05,0
0.4775,2.3163e-05,0
0.478,2.6017e-05,0
0.4785,3.0213e-05,0
0.479,3.1052e-05,0
0.4795,2.5681e-05,0
0.48,2.3331e-05,0
0.4805,2.3667e-05,0
0.481,1.9974e-05,0
0.4815,1.3596e-05,0
0.482,1.3092e-05,0
0.4825,1.1917e-05,0
0.483,1.1917e-05,0
0.4835,1.8967e-05,0
0.484,1.8631e-05,0
0.4845,1.2085e-05,0
0.485,1.0575e-05,0
0.4855,7.8889e-06,0
0.486,5.2033e-06,0
0.4865,9.0639e-06,0
0.487,1.1582e-05,0
0.4875,1.2421e-05,0
0.488,1.561e-05,0
0.4885,1.5946e-05,0
0.489,1.4939e-05,0
0.4895,1.7624e-05,0
0.49,2.1653e-05,0
0.4905,2.266e-05,0
0.491,2.1988e-05,0
0.4915,1.9974e-05,0
0.492,1.8463e-05,0
0.4925,1.5778e-05,0
0.493,1.5106e-05,0
0.4935,1.8296e-05,0
0.494,2.1988e-05,0
0.4945,2.266e-05,0
0.495,2.3331e-05,0
0.4955,2.0478e-05,0
0.496,1.9638e-05,0
0.4965,2.7192e-05,0
0.497,2.9877e-05,0
0.4975,2.7863e-05,0
0.498,2.7527e-05,0
0.4985,1.9303e-05,0
0.499,1.3764e-05,0
0.4995,2.0646e-05,0
0.5,2.4674e-05,0
0.5005,1.9303e-05,0
0.501,1.6617e-05,0
0.5015,1.5274e-05,0
0.502,1.2924e-05,0
0.5025,1.3092e-05,0
0.503,1.2924e-05,0
0.5035,1.0575e-05,0
0.504,8.2246e-06,0
0.5045,1.0239e-05,0
0.505,1.3764e-05,0
0.5055,1.5442e-05,0
0.506,1.8631e-05,0
0.5065,2.0813e-05,0
0.507,1.8463e-05,0
0.5075,1.4267e-05,0
0.508,1.9135e-05,0
0.5085,2.3331e-05,0
0.509,2.3667e-05,0
0.5095,2.9374e-05,0
0.51,3.0884e-05,0
0.5105,2.6688e-05,0
0.511,2.7359e-05,0
0.5115,2.6352e-05,0
0.512,2.4002e-05,0
0.5125,2.3667e-05,0
0.513,1.9303e-05,0
0.5135,1.5274e-05,0
0.514,2.0142e-05,0
0.5145,2.3331e-05,0
0.515,2.1149e-05,0
0.5155,2.4002e-05,0
0.516,2.8702e-05,0
0.5165,2.8702e-05,0
0.517,2.8702e-05,0
0.5175,2.8367e-05,0
0.518,2.7024e-05,0
0.5185,2.5345e-05,0
0.519,2.6017e-05,0
0.5195,2.887e-05,0
0.52,3.3066e-05,0
0.5205,3.6255e-05,0
0.521,3.7934e-05,0
0.5215,3.122e-05,0
0.522,2.6688e-05,0
0.5225,3.6423e-05,0
0.523,4.0116e-05,0
0.5235,3.7095e-05,0
0.524,3.743e-05,0
0.5245,3.3234e-05,0
0.525,2.6688e-05,0
0.5255,2.5345e-05,0
0.526,1.9638e-05,0
0.5265,1.4603e-05,0
0.527,1.1917e-05,0
0.5275,1.2253e-05,0
0.528,1.1414e-05,0
0.5285,9.0639e-06,0
0.529,9.7353e-06,0
0.5295,9.9031e-06,0
0.53,1.1917e-05,0
0.5305,1.2924e-05,0
0.531,7.8889e-06,0
0.5315,3.1891e-06,0
0.532,3.357e-06,0
0.5325,5.2033e-06,0
0.533,6.8818e-06,0
0.5335,9.9031e-06,0
0.534,1.3092e-05,0
0.5345,6.8818e-06,0
0.535,-1.5106e-06,0
0.5355,4.8676e-06,0
0.536,1.2757e-05,0
0.5365,1.2589e-05,0
0.537,1.1246e-05,0
0.5375,4.6998e-06,0
0.538,1.0071e-06,0
0.5385,9.5674e-06,0
0.539,1.6114e-05,0
0.5395,1.9974e-05,0
0.54,2.4002e-05,0
0.5405,2.5345e-05,0
0.541,2.6352e-05,0
0.5415,2.5681e-05,0
0.542,2.3667e-05,0
0.5425,2.0646e-05,0
0.543,1.5778e-05,0
0.5435,1.3596e-05,0
0.544,1.5274e-05,0
0.5445,1.5778e-05,0
0.545,1.5946e-05,0
0.5455,1.8463e-05,0
0.546,1.9303e-05,0
0.5465,1.6617e-05,0
0.547,1.4939e-05,0
0.5475,1.1246e-05,0
0.548,1.2253e-05,0
0.5485,1.7792e-05,0
0.549,1.5442e-05,0
0.5495,1.1582e-05,0
0.55,1.6281e-05,0
0.5505,1.4267e-05,0
0.551,8.3925e-06,0
0.5515,1.1917e-05,0
0.552,1.3932e-05,0
0.5525,1.4939e-05,0
0.553,2.0478e-05,0
0.5535,2.7024e-05,0
0.554,2.9374e-05,0
0.5545,2.6352e-05,0
0.555,2.1317e-05,0
0.5555,2.1317e-05,0
0.556,2.2492e-05,0
0.5565,2.5345e-05,0
0.557,2.8031e-05,0
0.5575,3.0045e-05,0
0.558,3.0549e-05,0
0.5585,2.9709e-05,0
0.559,2.7695e-05,0
0.5595,2.3499e-05,0
0.56,2.1317e-05,0
0.5605,1.6953e-05,0
0.561,1.4603e-05,0
0.5615,2.2324e-05,0
0.562,2.5009e-05,0
0.5625,1.796e-05,0
0.563,1.7121e-05,0
0.5635,1.6785e-05,0
0.564,1.6617e-05,0
0.5645,2.3499e-05,0
0.565,2.5681e-05,0
0.5655,2.3499e-05,0
0.566,2.7359e-05,0
0.5665,3.0549e-05,0
0.567,2.8702e-05,0
0.5675,2.6352e-05,0
0.568,2.3835e-05,0
0.5685,2.4002e-05,0
0.569,2.3163e-05,0
0.5695,2.0646e-05,0
0.57,2.031e-05,0
0.5705,1.8799e-05,0
0.571,1.8799e-05,0
0.5715,1.8967e-05,0
0.572,1.5946e-05,0
0.5725,1.561e-05,0
0.573,2.2156e-05,0
0.5735,2.5009e-05,0
0.574,2.1317e-05,0
0.5745,2.0478e-05,0
0.575,1.796e-05,0
0.5755,1.561e-05,0
0.576,1.8296e-05,0
0.5765,1.5274e-05,0
0.577,8.7282e-06,0
0.5775,1.5106e-05,0
0.578,2.266e-05,0
0.5785,2.2995e-05,0
0.579,2.6017e-05,0
0.5795,3.0381e-05,0
0.58,2.887e-05,0
0.5805,2.266e-05,0
0.581,1.8463e-05,0
0.5815,1.8631e-05,0
0.582,2.031e-05,0
0.5825,2.3667e-05,0
0.583,2.7359e-05,0
0.5835,2.8367e-05,0
0.584,2.9038e-05,0
0.5845,2.7695e-05,0
0.585,2.4338e-05,0
0.5855,2.2324e-05,0
0.586,2.3499e-05,0
0.5865,2.1317e-05,0
0.587,1.9974e-05,0
0.5875,2.4674e-05,0
0.588,2.1317e-05,0
0.5885,1.326e-05,0
0.589,1.3596e-05,0
0.5895,1.5106e-05,0
0.59,1.5946e-05,0
0.5905,1.9638e-05,0
0.591,1.6281e-05,0
0.5915,8.2246e-06,0
0.592,7.8889e-06,0
0.5925,1.0071e-05,0
0.593,1.0575e-05,0
0.5935,1.326e-05,0
0.594,2.1653e-05,0
0.5945,3.1556e-05,0
0.595,3.3066e-05,0
0.5955,2.5177e-05,0
0.596,1.6953e-05,0
0.5965,1.7121e-05,0
0.597,2.0981e-05,0
0.5975,1.9638e-05,0
0.598,1.5778e-05,0
0.5985,1.3932e-05,0
0.599,1.6785e-05,0
0.5995,1.561e-05,0
0.6,1.3092e-05,0
0.6005,1.7456e-05,0
0.601,1.4603e-05,0
0.6015,9.9031e-06,0
0.602,1.9638e-05,0
0.6025,2.7863e-05,0
0.603,2.6017e-05,0
0.6035,2.5177e-05,0
0.604,2.2492e-05,0
0.6045,1.7624e-05,0
0.605,1.9806e-05,0
0.6055,2.266e-05,0
0.606,2.2828e-05,0
0.6065,2.266e-05,0
0.607,2.2324e-05,0
0.6075,2.0646e-05,0
0.608,1.9638e-05,0
0.6085,1.8463e-05,0
0.609,1.8296e-05,0
0.6095,2.1988e-05,0
0.61,2.266e-05,0
0.6105,1.6281e-05,0
0.611,1.2253e-05,0
0.6115,1.5946e-05,0
0.612,2.2324e-05,0
0.6125,2.4674e-05,0
0.613,2.5345e-05,0
0.6135,2.9038e-05,0
0.614,2.8031e-05,0
0.6145,2.4842e-05,0
0.615,2.5345e-05,0
0.6155,1.796e-05,0
0.616,1.1917e-05,0
0.6165,1.7792e-05,0
0.617,2.1149e-05,0
0.6175,1.9974e-05,0
0.618,2.1317e-05,0
0.6185,2.5009e-05,0
0.619,2.6017e-05,0
0.6195,2.5849e-05,0
0.62,2.6688e-05,0
0.6205,2.8031e-05,0
0.621,2.6688e-05,0
0.6215,2.4674e-05,0
0.622,2.6184e-05,0
0.6225,2.7695e-05,0
0.623,2.5345e-05,0
0.6235,2.1653e-05,0
0.624,1.8631e-05,0
0.6245,1.4099e-05,0
0.625,1.2253e-05,0
0.6255,9.3996e-06,0
0.626,5.8747e-06,0
0.6265,1.0575e-05,0
0.627,1.1749e-05,0
0.6275,1.1582e-05,0
0.628,1.3092e-05,0
0.6285,8.5603e-06,0
0.629,3.0213e-06,0
0.6295,5.539e-06,0
0.63,5.539e-06,0
0.6305,7.5532e-06,0
0.631,1.2924e-05,0
0.6315,1.4435e-05,0
0.632,1.3092e-05,0
0.6325,1.1917e-05,0
0.633,1.3596e-05,0
0.6335,1.7624e-05,0
0.634,2.266e-05,0
0.6345,2.4338e-05,0
0.635,2.5681e-05,0
0.6355,2.3499e-05,0
0.636,2.0646e-05,0
0.6365,2.266e-05,0
0.637,2.4506e-05,0
0.6375,2.182e-05,0
0.638,2.031e-05,0
0.6385,1.7121e-05,0
0.639,1.0575e-05,0
0.6395,1.1917e-05,0
0.64,1.4939e-05,0
0.6405,1.8967e-05,0
0.641,2.4002e-05,0
0.6415,2.2492e-05,0
0.642,2.0646e-05,0
0.6425,2.4674e-05,0
0.643,1.9974e-05,0
0.6435,1.2589e-05,0
0.644,1.2757e-05,0
0.6445,1.2253e-05,0
0.645,8.5603e-06,0
0.6455,5.2033e-06,0
0.646,7.5532e-06,0
0.6465,1.326e-05,0
0.647,2.1317e-05,0
0.6475,2.3331e-05,0
0.648,2.5009e-05,0
0.6485,2.6017e-05,0
0.649,2.4338e-05,0
0.6495,2.5345e-05,0
0.65,3.0884e-05,0
0.6505,3.1388e-05,0
0.651,2.8367e-05,0
0.6515,2.0981e-05,0
0.652,1.5106e-05,0
0.6525,1.8967e-05,0
0.653,1.9974e-05,0
0.6535,1.796e-05,0
0.654,2.3667e-05,0
0.6545,2.8702e-05,0
0.655,3.0716e-05,0
0.6555,3.1388e-05,0
0.656,2.3331e-05,0
0.6565,1.7288e-05,0
0.657,1.9806e-05,0
0.6575,2.6017e-05,0
0.658,2.8367e-05,0
0.6585,2.5177e-05,0
0.659,2.1317e-05,0
0.6595,2.1653e-05,0
0.66,2.2324e-05,0
0.6605,1.9974e-05,0
0.661,1.5778e-05,0
0.6615,1.4939e-05,0
0.662,1.8463e-05,0
0.6625,1.947e-05,0
0.663,2.1149e-05,0
0.6635,1.8631e-05,0
0.664,1.8967e-05,0
0.6645,2.0981e-05,0
0.665,2.3835e-05,0
0.6655,3.1052e-05,0
0.666,2.9709e-05,0
0.6665,2.2492e-05,0
0.667,2.6017e-05,0
0.6675,2.9709e-05,0
0.668,2.6688e-05,0
0.6685,2.652e-05,0
0.669,2.2324e-05,0
0.6695,1.6953e-05,0
0.67,2.1317e-05,0
0.6705,2.9038e-05,0
0.671,3.1891e-05,0
0.6715,2.7527e-05,0
0.672,2.5345e-05,0
0.6725,2.5849e-05,0
0.673,2.4506e-05,0
0.6735,2.1988e-05,0
0.674,1.9638e-05,0
0.6745,1.8296e-05,0
0.675,1.9638e-05,0
0.6755,1.9974e-05,0
0.676,1.796e-05,0
0.6765,1.7624e-05,0
0.677,2.1988e-05,0
0.6775,1.8631e-05,0
0.678,1.091e-05,0
0.6785,1.3932e-05,0
0.679,1.326e-05,0
0.6795,7.8889e-06,0
0.68,1.0239e-05,0
0.6805,1.1582e-05,0
0.681,1.1749e-05,0
0.6815,1.6953e-05,0
0.682,1.5274e-05,0
0.6825,7.2175e-06,0
0.683,6.714e-06,0
0.6835,8.2246e-06,0
0.684,6.5461e-06,0
0.6845,4.8676e-06,0
0.685,4.8676e-06,0
0.6855,7.2175e-06,0
0.686,1.0575e-05,0
0.6865,1.3764e-05,0
0.687,1.7624e-05,0
0.6875,1.9974e-05,0
0.688,2.2156e-05,0
0.6885,2.6352e-05,0
0.689,2.7359e-05,0
0.6895,2.3163e-05,0
0.69,2.0646e-05,0
0.6905,2.1653e-05,0
0.691,1.9638e-05,0
0.6915,2.1149e-05,0
0.692,1.8296e-05,0
0.6925,1.326e-05,0
0.693,1.6953e-05,0
0.6935,1.9974e-05,0
0.694,1.6617e-05,0
0.6945,1.7288e-05,0
0.695,1.796e-05,0
0.6955,1.8631e-05,0
0.696,2.4674e-05,0
0.6965,2.9206e-05,0
0.697,2.6017e-05,0
0.6975,2.1653e-05,0
0.698,2.3163e-05,0
0.6985,2.5681e-05,0
0.699,2.3667e-05,0
0.6995,1.8296e-05,0
0.7,1.7792e-05,0
0.7005,1.9806e-05,0
0.701,2.1149e-05,0
0.7015,2.4002e-05,0
0.702,2.266e-05,0
0.7025,1.7288e-05,0
0.703,1.6281e-05,0
0.7035,1.5946e-05,0
0.704,1.3764e-05,0
0.7045,1.9303e-05,0
0.705,1.9974e-05,0
0.7055,1.4099e-05,0
0.706,1.3596e-05,0
0.7065,1.0239e-05,0
0.707,7.8889e-06,0
0.7075,1.4771e-05,0
0.708,1.6953e-05,0
0.7085,1.326e-05,0
0.709,1.8128e-05,0
0.7095,2.2492e-05,0
0.71,1.9974e-05,0
0.7105,1.9806e-05,0
0.711,2.0813e-05,0
0.7115,2.1149e-05,0
0.712,2.4002e-05,0
0.7125,2.6688e-05,0
0.713,2.9038e-05,0
0.7135,2.9206e-05,0
0.714,2.8031e-05,0
0.7145,2.7024e-05,0
0.715,2.7359e-05,0
0.7155,2.7192e-05,0
0.716,2.6688e-05,0
0.7165,2.2492e-05,0
0.717,1.7624e-05,0
0.7175,2.266e-05,0
0.718,2.5849e-05,0
0.7185,2.3331e-05,0
0.719,2.5345e-05,0
0.7195,2.4842e-05,0
0.72,2.2156e-05,0
0.7205,2.1317e-05,0
0.721,1.8296e-05,0
0.7215,1.4939e-05,0
0.722,1.6281e-05,0
0.7225,1.6953e-05,0
0.723,1.4603e-05,0
0.7235,1.2589e-05,0
0.724,1.6449e-05,0
0.7245,2.1988e-05,0
0.725,2.6352e-05,0
0.7255,2.6017e-05,0
0.726,2.2324e-05,0
0.7265,2.1988e-05,0
0.727,2.6688e-05,0
0.7275,2.9206e-05,0
0.728,2.887e-05,0
0.7285,2.8367e-05,0
0.729,2.9374e-05,0
0.7295,2.7527e-05,0
0.73,2.4506e-05,0
0.7305,2.652e-05,0
0.731,2.1317e-05,0
0.7315,1.5946e-05,0
0.732,2.1317e-05,0
0.7325,2.182e-05,0
0.733,1.8631e-05,0
0.7335,2.182e-05,0
0.734,1.9974e-05,0
0.7345,1.8631e-05,0
0.735,2.266e-05,0
0.7355,2.6352e-05,0
0.736,2.8031e-05,0
0.7365,2.6352e-05,0
0.737,2.2995e-05,0
0.7375,2.1317e-05,0
0.738,2.0142e-05,0
0.7385,1.6449e-05,0
0.739,1.5274e-05,0
0.7395,1.7288e-05,0
0.74,1.5946e-05,0
0.7405,1.1246e-05,0
0.741,7.5532e-06,0
0.7415,7.2175e-06,0
0.742,1.1917e-05,0
0.7425,1.326e-05,0
0.743,1.1917e-05,0
0.7435,1.4435e-05,0
0.744,1.4603e-05,0
0.7445,1.4603e-05,0
0.745,1.8463e-05,0
0.7455,1.4603e-05,0
0.746,1.1917e-05,0
0.7465,1.561e-05,0
0.747,1.2589e-05,0
0.7475,9.2317e-06,0
0.748,1.326e-05,0
0.7485,1.796e-05,0
0.749,2.2324e-05,0
0.7495,2.4002e-05,0
0.75,2.5009e-05,0
0.7505,2.4674e-05,0
0.751,2.0981e-05,0
0.7515,1.9806e-05,0
0.752,2.2995e-05,0
0.7525,2.6017e-05,0
0.753,2.4506e-05,0
0.7535,2.4002e-05,0
0.754,2.3835e-05,0
0.7545,2.2324e-05,0
0.755,2.2324e-05,0
0.7555,1.9303e-05,0
0.756,1.561e-05,0
0.7565,2.266e-05,0
0.757,3.0381e-05,0
0.7575,3.2563e-05,0
0.758,3.2059e-05,0
0.7585,2.3163e-05,0
0.759,1.561e-05,0
0.7595,2.0646e-05,0
0.76,2.6688e-05,0
0.7605,2.8534e-05,0
0.761,2.8702e-05,0
0.7615,2.5681e-05,0
0.762,2.1988e-05,0
0.7625,1.796e-05,0
0.763,1.4099e-05,0
0.7635,1.4771e-05,0
0.764,1.7624e-05,0
0.7645,1.4435e-05,0
0.765,9.5674e-06,0
0.7655,1.0239e-05,0
0.766,1.5274e-05,0
0.7665,1.6617e-05,0
0.767,1.091e-05,0
0.7675,7.3854e-06,0
0.768,1.1917e-05,0
0.7685,1.1749e-05,0
0.769,7.3854e-06,0
0.7695,1.1749e-05,0
0.77,1.326e-05,0
0.7705,1.1246e-05,0
0.771,1.1582e-05,0
0.7715,9.2317e-06,0
0.772,7.5532e-06,0
0.7725,9.5674e-06,0
0.773,7.7211e-06,0
0.7735,5.0355e-06,0
0.774,7.8889e-06,0
0.7745,1.3932e-05,0
0.775,1.7624e-05,0
0.7755,1.7288e-05,0
0.776,1.4603e-05,0
0.7765,1.3932e-05,0
0.777,1.6449e-05,0
0.7775,1.9638e-05,0
0.778,2.2492e-05,0
0.7785,2.5009e-05,0
0.779,2.6688e-05,0
0.7795,2.6688e-05,0
0.78,2.9374e-05,0
0.7805,3.2059e-05,0
0.781,2.9374e-05,0
0.7815,2.3331e-05,0
0.782,2.5009e-05,0
0.7825,3.4745e-05,0
0.783,3.743e-05,0
0.7835,3.3402e-05,0
0.784,3.357e-05,0
0.7845,2.7192e-05,0
0.785,2.031e-05,0
0.7855,2.4002e-05,0
0.786,2.266e-05,0
0.7865,1.947e-05,0
0.787,2.1317e-05,0
0.7875,2.266e-05,0
0.788,2.3667e-05,0
0.7885,2.0646e-05,0
0.789,1.5946e-05,0
0.7895,1.6953e-05,0
0.79,2.0981e-05,0
0.7905,2.0478e-05,0
0.791,1.5778e-05,0
0.7915,1.4603e-05,0
0.792,1.5946e-05,0
0.7925,1.6953e-05,0
0.793,1.9638e-05,0
0.7935,2.1317e-05,0
0.794,2.2995e-05,0
0.7945,2.0981e-05,0
0.795,1.5106e-05,0
0.7955,1.9303e-05,0
0.796,2.5345e-05,0
0.7965,2.8031e-05,0
0.797,2.9709e-05,0
0.7975,2.5849e-05,0
0.798,2.2324e-05,0
0.7985,2.2995e-05,0
0.799,1.9135e-05,0
0.7995,1.4603e-05,0
0.8,1.7792e-05,0
0.8005,2.4002e-05,0
0.801,2.8031e-05,0
0.8015,2.6352e-05,0
0.802,2.0981e-05,0
0.8025,1.9135e-05,0
0.803,1.8631e-05,0
0.8035,1.6617e-05,0
0.804,1.5442e-05,0
0.8045,1.8128e-05,0
0.805,2.1317e-05,0
0.8055,1.8799e-05,0
0.806,1.6617e-05,0
0.8065,1.5946e-05,0
0.807,1.8967e-05,0
0.8075,2.1149e-05,0
0.808,2.266e-05,0
0.8085,2.5681e-05,0
0.809,2.1317e-05,0
0.8095,1.4939e-05,0
0.81,1.5946e-05,0
0.8105,1.5946e-05,0
0.811,1.796e-05,0
0.8115,2.6017e-05,0
0.812,2.6352e-05,0
0.8125,2.1317e-05,0
0.813,2.5681e-05,0
0.8135,3.0716e-05,0
0.814,2.8031e-05,0
0.8145,2.266e-05,0
0.815,1.7121e-05,0
0.8155,1.2421e-05,0
0.816,1.1749e-05,0
0.8165,1.5946e-05,0
0.817,1.8631e-05,0
0.8175,2.0981e-05,0
0.818,2.031e-05,0
0.8185,1.7456e-05,0
0.819,0,0
0.8195,0,0
0.82,0,0
0.8205,0,0
0.821,0,0
0.8215,0,0
0.822,0,0
0.8225,0,0
0.823,0,0
0.8235,0,0
0.824,0,0
0.8245,0,0
0.825,0,0
0.8255,0,0
0.826,0,0
0.8265,0,0
0.827,0,0
0.8275,0,0
0.828,0,0
0.8285,0,0
0.829,0,0
0.8295,0,0
0.83,0,0
0.8305,0,0
0.831,0,0
0.8315,0,0
0.832,2.5345e-05,0
0.8325,2.4842e-05,0
0.833,2.4506e-05,0
0.8335,1.9303e-05,0
0.834,1.1078e-05,0
0.8345,1.0575e-05,0
0.835,1.2085e-05,0
0.8355,1.2589e-05,0
0.836,1.5274e-05,0
0.8365,7.8889e-06,0
0.837,-8.392e-07,0
0.8375,3.6927e-06,0
0.838,1.1582e-05,0
0.8385,1.5106e-05,0
0.839,1.8463e-05,0
0.8395,1.8631e-05,0
0.84,1.796e-05,0
0.8405,1.5778e-05,0
0.841,1.4939e-05,0
0.8415,2.0478e-05,0
0.842,2.8367e-05,0
0.8425,2.8367e-05,0
0.843,2.5345e-05,0
0.8435,2.652e-05,0
0.844,2.7359e-05,0
0.8445,2.6688e-05,0
0.845,2.7695e-05,0
0.8455,2.7695e-05,0
0.846,2.9038e-05,0
0.8465,2.8367e-05,0
0.847,2.4002e-05,0
0.8475,2.5009e-05,0
0.848,2.2828e-05,0
0.8485,1.7624e-05,0
0.849,2.3331e-05,0
0.8495,2.3499e-05,0
0.85,1.6617e-05,0
0.8505,1.6281e-05,0
0.851,1.1917e-05,0
0.8515,8.2246e-06,0
0.852,1.2757e-05,0
0.8525,1.6449e-05,0
0.853,1.6953e-05,0
0.8535,1.8631e-05,0
0.854,2.1988e-05,0
0.8545,2.4338e-05,0
0.855,2.5345e-05,0
0.8555,2.7359e-05,0
0.856,2.7359e-05,0
0.8565,2.3163e-05,0
0.857,2.0981e-05,0
0.8575,2.1653e-05,0
0.858,1.9974e-05,0
0.8585,1.3932e-05,0
0.859,1.3596e-05,0
0.8595,1.7456e-05,0
0.86,1.6953e-05,0
0.8605,1.6617e-05,0
0.861,1.3932e-05,0
0.8615,1.2589e-05,0
0.862,1.8463e-05,0
0.8625,1.8296e-05,0
0.863,1.6785e-05,0
0.8635,2.266e-05,0
0.864,2.4506e-05,0
0.8645,2.266e-05,0
0.865,2.6017e-05,0
0.8655,2.7695e-05,0
0.866,2.5009e-05,0
0.8665,2.2324e-05,0
0.867,1.8631e-05,0
0.8675,1.9135e-05,0
0.868,2.0981e-05,0
0.8685,1.9303e-05,0
0.869,1.8631e-05,0
0.8695,1.7288e-05,0
0.87,1.8967e-05,0
0.8705,2.031e-05,0
0.871,1.6953e-05,0
0.8715,1.0239e-05,0
0.872,7.8889e-06,0
0.8725,9.9031e-06,0
0.873,1.326e-05,0
0.8735,2.1653e-05,0
0.874,2.3163e-05,0
0.8745,1.7792e-05,0
0.875,1.6785e-05,0
0.8755,1.1246e-05,0
0.876,6.3783e-06,0
0.8765,7.5532e-06,0
0.877,8.2246e-06,0
0.8775,1.1917e-05,0
0.878,1.8296e-05,0
0.8785,2.1317e-05,0
0.879,2.3667e-05,0
0.8795,2.9038e-05,0
0.88,3.0045e-05,0
0.8805,2.4338e-05,0
0.881,1.8967e-05,0
0.8815,1.9638e-05,0
0.882,2.5009e-05,0
0.8825,2.9374e-05,0
0.883,2.9374e-05,0
0.8835,2.7359e-05,0
0.884,2.4674e-05,0
0.8845,2.1317e-05,0
0.885,2.3331e-05,0
0.8855,2.1988e-05,0
0.886,2.0478e-05,0
0.8865,2.6352e-05,0
0.887,2.8367e-05,0
0.8875,2.4506e-05,0
0.888,2.6688e-05,0
0.8885,2.7863e-05,0
0.889,2.4002e-05,0
0.8895,2.5009e-05,0
0.89,2.4506e-05,0
0.8905,2.1317e-05,0
0.891,2.1988e-05,0
0.8915,2.5849e-05,0
0.892,2.8702e-05,0
0.8925,2.6688e-05,0
0.893,2.2324e-05,0
0.8935,1.4771e-05,0
0.894,1.4939e-05,0
0.8945,2.2995e-05,0
0.895,2.7863e-05,0
0.8955,2.3163e-05,0
0.896,1.4267e-05,0
0.8965,1.0071e-05,0
0.897,8.3925e-06,0
0.8975,1.0071e-05,0
0.898,1.7792e-05,0
0.8985,1.9974e-05,0
0.899,1.5946e-05,0
0.8995,1.4603e-05,0
0.9,1.0239e-05,0
0.9005,7.2175e-06,0
0.901,1.0575e-05,0
0.9015,1.2589e-05,0
0.902,1.0575e-05,0
0.9025,1.0575e-05,0
0.903,8.2246e-06,0
0.9035,6.0426e-06,0
0.904,1.0071e-05,0
0.9045,1.561e-05,0
0.905,1.7288e-05,0
0.9055,1.8631e-05,0
0.906,2.266e-05,0
0.9065,2.4842e-05,0
0.907,2.5681e-05,0
0.9075,2.266e-05,0
0.908,1.9303e-05,0
0.9085,2.2324e-05,0
0.909,2.6017e-05,0
0.9095,2.5345e-05,0
0.91,2.5345e-05,0
0.9105,2.5009e-05,0
0.911,2.6352e-05,0
0.9115,2.2156e-05,0
0.912,1.5778e-05,0
0.9125,1.8967e-05,0
0.913,2.0646e-05,0
0.9135,1.7121e-05,0
0.914,2.1988e-05,0
0.9145,2.5849e-05,0
0.915,2.8031e-05,0
0.9155,3.3738e-05,0
0.916,3.3402e-05,0
0.9165,3.1388e-05,0
0.917,3.2898e-05,0
0.9175,3.0549e-05,0
0.918,2.5009e-05,0
0.9185,1.8296e-05,0
0.919,1.326e-05,0
0.9195,1.326e-05,0
0.92,1.4099e-05,0
0.9205,1.1917e-05,0
0.921,9.7353e-06,0
0.9215,1.091e-05,0
0.922,1.1246e-05,0
0.9225,1.1917e-05,0
0.923,1.3764e-05,0
0.9235,1.2589e-05,0
0.924,9.9031e-06,0
0.9245,3.1891e-06,0
0.925,-1.0071e-06,0
0.9255,5.0355e-06,0
0.926,8.2246e-06,0
0.9265,9.7353e-06,0
0.927,1.561e-05,0
0.9275,1.4603e-05,0
0.928,9.9031e-06,0
0.9285,1.3596e-05,0
0.929,1.3596e-05,0
0.9295,7.5532e-06,0
0.93,1.1246e-05,0
0.9305,1.8631e-05,0
0.931,1.8967e-05,0
0.9315,1.8296e-05,0
0.932,2.031e-05,0
0.9325,2.3667e-05,0
0.933,2.5345e-05,0
0.9335,2.2492e-05,0
0.934,2.0646e-05,0
0.9345,2.7359e-05,0
0.935,3.4745e-05,0
0.9355,3.2731e-05,0
0.936,2.5681e-05,0
0.9365,2.2324e-05,0
0.937,2.5849e-05,0
0.9375,2.3835e-05,0
0.938,1.6281e-05,0
0.9385,1.9806e-05,0
0.939,2.5345e-05,0
0.9395,2.5345e-05,0
0.94,2.3331e-05,0
0.9405,1.8631e-05,0
0.941,1.796e-05,0
0.9415,2.5345e-05,0
0.942,2.8031e-05,0
0.9425,2.5177e-05,0
0.943,2.652e-05,0
0.9435,3.0549e-05,0
0.944,3.1724e-05,0
0.9445,2.8534e-05,0
0.945,2.182e-05,0
0.9455,1.5946e-05,0
0.946,1.5274e-05,0
0.9465,1.4435e-05,0
0.947,1.2589e-05,0
0.9475,1.326e-05,0
0.948,1.5106e-05,0
0.9485,2.031e-05,0
0.949,2.3835e-05,0
0.9495,2.3499e-05,0
0.95,1.9806e-05,0
0.9505,1.1582e-05,0
0.951,7.8889e-06,0
0.9515,1.561e-05,0
0.952,1.9303e-05,0
0.9525,1.8631e-05,0
0.953,2.1149e-05,0
0.9535,2.2492e-05,0
0.954,2.3667e-05,0
0.9545,2.652e-05,0
0.955,2.3331e-05,0
0.9555,2.0646e-05,0
0.956,2.6688e-05,0
0.9565,3.1556e-05,0
0.957,3.0213e-05,0
0.9575,2.6688e-05,0
0.958,2.5177e-05,0
0.9585,2.6017e-05,0
0.959,2.4002e-05,0
0.9595,1.9303e-05,0
0.96,1.4603e-05,0
0.9605,1.5946e-05,0
0.961,2.266e-05,0
0.9615,2.5345e-05,0
0.962,2.4338e-05,0
0.9625,2.031e-05,0
0.963,1.7792e-05,0
0.9635,1.3764e-05,0
0.964,8.3925e-06,0
0.9645,1.4099e-05,0
0.965,1.5778e-05,0
0.9655,1.2421e-05,0
0.966,1.5106e-05,0
0.9665,1.4267e-05,0
0.967,9.9031e-06,0
0.9675,9.7353e-06,0
0.968,1.0239e-05,0
0.9685,1.326e-05,0
0.969,2.0646e-05,0
0.9695,2.5345e-05,0
0.97,2.5009e-05,0
0.9705,2.1988e-05,0
0.971,2.1149e-05,0
0.9715,1.9806e-05,0
0.972,1.8631e-05,0
0.9725,1.9638e-05,0
0.973,2.0981e-05,0
0.9735,2.3331e-05,0
0.974,2.4506e-05,0
0.9745,2.6352e-05,0
0.975,2.6017e-05,0
0.9755,2.182e-05,0
0.976,2.0478e-05,0
0.9765,1.6281e-05,0
0.977,1.0407e-05,0
0.9775,1.5106e-05,0
0.978,1.9806e-05,0
0.9785,1.8296e-05,0
0.979,2.0646e-05,0
0.9795,2.0142e-05,0
0.98,1.5106e-05,0
0.9805,1.3932e-05,0
0.981,1.3428e-05,0
0.9815,1.6281e-05,0
0.982,2.266e-05,0
0.9825,2.266e-05,0
0.983,1.8631e-05,0
0.9835,1.561e-05,0
0.984,1.9974e-05,0
0.9845,2.6352e-05,0
0.985,2.8031e-05,0
0.9855,2.6352e-05,0
0.986,2.8031e-05,0
0.9865,3.2731e-05,0
0.987,3.3402e-05,0
0.9875,3.0381e-05,0
0.988,2.7863e-05,0
0.9885,2.7024e-05,0
0.989,2.8702e-05,0
0.9895,2.6017e-05,0
0.99,2.2828e-05,0
0.9905,2.5345e-05,0
0.991,2.1317e-05,0
0.9915,1.1246e-05,0
0.992,1.0407e-05,0
0.9925,1.4267e-05,0
0.993,1.7121e-05,0
0.9935,1.9974e-05,0
0.994,1.4099e-05,0
0.9945,9.9031e-06,0
0.995,1.5274e-05,0
0.9955,2.1653e-05,0
0.996,1.9638e-05,0
0.9965,1.4939e-05,0
0.997,1.4267e-05,0
0.9975,1.6617e-05,0
0.998,1.9806e-05,0
0.9985,2.2156e-05,0
0.999,2.4674e-05,0
0.9995,2.4842e-05,0
1,2.3835e-05,0
1.0005,2.5177e-05,0
1.001,2.4842e-05,0
1.0015,2.0646e-05,0
1.002,2.1653e-05,0
1.0025,2.266e-05,0
1.003,1.8463e-05,0
1.0035,1.9806e-05,0
1.004,2.1149e-05,0
1.0045,1.9135e-05,0
1.005,1.9638e-05,0
1.0055,1.7624e-05,0
1.006,1.7456e-05,0
1.0065,2.2492e-05,0
1.007,2.031e-05,0
1.0075,1.2589e-05,0
1.008,1.1246e-05,0
1.0085,1.561e-05,0
1.009,1.947e-05,0
1.0095,1.947e-05,0
1.01,1.561e-05,0
1.0105,1.1246e-05,0
1.011,1.0575e-05,0
1.0115,1.4267e-05,0
1.012,1.8631e-05,0
1.0125,2.2324e-05,0
1.013,2.4002e-05,0
1.0135,1.9303e-05,0
1.014,1.2589e-05,0
1.0145,1.1078e-05,0
1.015,1.5946e-05,0
1.0155,1.4099e-05,0
1.016,5.0355e-06,0
1.0165,5.8747e-06,0
1.017,8.3925e-06,0
1.0175,1.3596e-05,0
1.018,2.1317e-05,0
1.0185,1.9303e-05,0
1.019,1.1917e-05,0
1.0195,1.5946e-05,0
1.02,2.2995e-05,0
1.0205,2.3667e-05,0
1.021,2.266e-05,0
1.0215,2.266e-05,0
1.022,2.2156e-05,0
1.0225,2.0646e-05,0
1.023,2.1317e-05,0
1.0235,2.2995e-05,0
1.024,2.3499e-05,0
1.0245,2.2492e-05,0
1.025,2.1317e-05,0
1.0255,2.2324e-05,0
1.026,2.5849e-05,0
1.0265,2.8534e-05,0
1.027,2.8031e-05,0
1.0275,2.3499e-05,0
1.028,1.9303e-05,0
1.0285,1.5946e-05,0
1.029,1.3596e-05,0
1.0295,1.8463e-05,0
1.03,1.8631e-05,0
1.0305,1.7288e-05,0
1.031,2.2324e-05,0
1.0315,1.9303e-05,0
1.032,9.5674e-06,0
1.0325,1.0071e-05,0
1.033,1.1246e-05,0
1.0335,1.326e-05,0
1.034,2.1317e-05,0
1.0345,2.9709e-05,0
1.035,2.8367e-05,0
1.0355,2.3667e-05,0
1.036,2.3835e-05,0
1.0365,2.6017e-05,0
1.037,2.7192e-05,0
1.0375,2.9709e-05,0
1.038,3.0381e-05,0
1.0385,2.6352e-05,0
1.039,2.3667e-05,0
1.0395,2.5177e-05,0
1.04,2.7695e-05,0
1.0405,2.9206e-05,0
1.041,2.8534e-05,0
1.0415,2.5345e-05,0
1.042,2.2324e-05,0
1.0425,2.5345e-05,0
1.043,2.3835e-05,0
1.0435,1.9638e-05,0
1.044,1.8463e-05,0
1.0445,1.4939e-05,0
1.045,1.2253e-05,0
1.0455,1.8296e-05,0
1.046,2.1988e-05,0
1.0465,1.9974e-05,0
1.047,1.8631e-05,0
1.0475,1.8631e-05,0
1.048,2.0981e-05,0
1.0485,2.6352e-05,0
1.049,2.8534e-05,0
1.0495,2.8031e-05,0
1.05,2.5345e-05,0
1.0505,2.1988e-05,0
1.051,1.7288e-05,0
1.0515,1.1749e-05,0
1.052,9.0639e-06,0
1.0525,8.0568e-06,0
1.053,9.7353e-06,0
1.0535,1.1414e-05,0
1.054,1.561e-05,0
1.0545,1.947e-05,0
1.055,1.7792e-05,0
1.0555,2.0142e-05,0
1.056,2.1317e-05,0
1.0565,2.0646e-05,0
1.057,2.0981e-05,0
1.0575,1.8631e-05,0
1.058,1.6281e-05,0
1.0585,1.9974e-05,0
1.059,1.7624e-05,0
1.0595,1.326e-05,0
1.06,1.7624e-05,0
1.0605,2.0646e-05,0
1.061,1.5946e-05,0
1.0615,1.0575e-05,0
1.062,7.2175e-06,0
1.0625,6.5461e-06,0
1.063,6.5461e-06,0
1.0635,7.7211e-06,0
1.064,1.0575e-05,0
1.0645,1.3596e-05,0
1.065,1.4267e-05,0
1.0655,1.326e-05,0
1.066,1.5274e-05,0
1.0665,1.8967e-05,0
1.067,2.3835e-05,0
1.0675,2.1149e-05,0
1.068,1.2924e-05,0
1.0685,1.5946e-05,0
1.069,1.9638e-05,0
1.0695,2.1317e-05,0
1.07,2.4674e-05,0
1.0705,2.5009e-05,0
1.071,2.5681e-05,0
1.0715,2.9038e-05,0
1.072,2.7863e-05,0
1.0725,2.5009e-05,0
1.073,2.6352e-05,0
1.0735,3.0549e-05,0
1.074,3.1891e-05,0
1.0745,2.9374e-05,0
1.075,2.4842e-05,0
1.0755,1.9303e-05,0
1.076,1.4267e-05,0
1.0765,1.1582e-05,0
1.077,1.3932e-05,0
1.0775,1.6281e-05,0
1.078,1.9974e-05,0
1.0785,2.182e-05,0
1.079,2.0981e-05,0
1.0795,2.031e-05,0
1.08,2.1149e-05,0
1.0805,2.0478e-05,0
1.081,2.0142e-05,0
1.0815,2.2995e-05,0
1.082,1.6617e-05,0
1.0825,8.5603e-06,0
1.083,1.1078e-05,0
1.0835,1.1917e-05,0
1.084,1.1414e-05,0
1.0845,1.326e-05,0
1.085,8.896e-06,0
1.0855,7.3854e-06,0
1.086,1.6953e-05,0
1.0865,2.5849e-05,0
1.087,2.8702e-05,0
1.0875,2.8367e-05,0
1.088,2.4002e-05,0
1.0885,1.8296e-05,0
1.089,1.9303e-05,0
1.0895,2.4674e-05,0
1.09,2.8031e-05,0
1.0905,2.8702e-05,0
1.091,2.7192e-05,0
1.0915,2.5345e-05,0
1.092,2.6688e-05,0
1.0925,2.8534e-05,0
1.093,3.3234e-05,0
1.0935,3.2731e-05,0
1.094,2.6352e-05,0
1.0945,2.5345e-05,0
1.095,2.2156e-05,0
1.0955,1.6617e-05,0
1.096,2.1988e-05,0
1.0965,2.5009e-05,0
1.097,2.4002e-05,0
1.0975,2.5009e-05,0
1.098,2.0646e-05,0
1.0985,1.6449e-05,0
1.099,1.9974e-05,0
1.0995,2.3835e-05,0
1.1,2.0981e-05,0
1.1005,1.8296e-05,0
1.101,2.1988e-05,0
1.1015,2.5849e-05,0
1.102,2.7863e-05,0
1.1025,2.5849e-05,0
1.103,2.4338e-05,0
1.1035,2.5849e-05,0
1.104,2.5345e-05,0
1.1045,2.3499e-05,0
1.105,2.5009e-05,0
1.1055,2.9206e-05,0
1.106,2.9709e-05,0
1.1065,2.1988e-05,0
1.107,1.5946e-05,0
1.1075,1.6617e-05,0
1.108,1.0239e-05,0
1.1085,2.5177e-06,0
1.109,4.8676e-06,0
1.1095,7.8889e-06,0
1.11,6.5461e-06,0
1.1105,5.8747e-06,0
1.111,8.392e-07,0
1.1115,-1.1749e-06,0
1.112,3.0213e-06,0
1.1125,4.3641e-06,0
1.113,5.539e-06,0
1.1135,8.2246e-06,0
1.114,1.0575e-05,0
1.1145,1.091e-05,0
1.115,1.1917e-05,0
1.1155,1.4267e-05,0
1.116,2.1317e-05,0
1.1165,2.7527e-05,0
1.117,2.4674e-05,0
1.1175,1.9974e-05,0
1.118,1.796e-05,0
1.1185,1.7288e-05,0
1.119,1.7624e-05,0
1.1195,1.6617e-05,0
1.12,1.5946e-05,0
1.1205,2.0478e-05,0
1.121,1.6785e-05,0
1.1215,1.1078e-05,0
1.122,1.4939e-05,0
1.1225,1.3932e-05,0
1.123,1.326e-05,0
1.1235,2.1653e-05,0
1.124,2.3667e-05,0
1.1245,1.8967e-05,0
1.125,2.0646e-05,0
1.1255,2.4842e-05,0
1.126,2.9374e-05,0
1.1265,3.0213e-05,0
1.127,2.6017e-05,0
1.1275,2.182e-05,0
1.128,2.182e-05,0
1.1285,2.1317e-05,0
1.129,2.1988e-05,0
1.1295,2.7359e-05,0
1.13,3.1052e-05,0
1.1305,3.2395e-05,0
1.131,3.1052e-05,0
1.1315,2.9374e-05,0
1.132,2.8702e-05,0
1.1325,2.4338e-05,0
1.133,2.1317e-05,0
1.1335,2.8702e-05,0
1.134,2.9374e-05,0
1.1345,2.2324e-05,0
1.135,2.031e-05,0
1.1355,1.6281e-05,0
1.136,1.3932e-05,0
1.1365,2.1653e-05,0
1.137,2.4506e-05,0
1.1375,2.5009e-05,0
1.138,2.887e-05,0
1.1385,2.9038e-05,0
1.139,2.3499e-05,0
1.1395,2.0142e-05,0
1.14,1.9303e-05,0
1.1405,1.9303e-05,0
1.141,1.7121e-05,0
1.1415,1.4603e-05,0
1.142,1.1749e-05,0
1.1425,1.0575e-05,0
1.143,1.1078e-05,0
1.1435,1.0239e-05,0
1.144,8.5603e-06,0
1.1445,5.539e-06,0
1.145,7.8889e-06,0
1.1455,1.1917e-05,0
1.146,1.2085e-05,0
1.1465,1.7456e-05,0
1.147,2.0646e-05,0
1.1475,1.796e-05,0
1.148,1.8296e-05,0
1.1485,1.9303e-05,0
1.149,2.3331e-05,0
1.1495,2.6017e-05,0
1.15,1.8967e-05,0
1.1505,1.561e-05,0
1.151,2.3667e-05,0
1.1515,3.1388e-05,0
1.152,2.8534e-05,0
1.1525,2.4338e-05,0
1.153,2.3163e-05,0
1.1535,2.4002e-05,0
1.154,2.5513e-05,0
1.1545,2.5681e-05,0
1.155,2.4002e-05,0
1.1555,2.3667e-05,0
1.156,2.4002e-05,0
1.1565,2.1988e-05,0
1.157,1.7288e-05,0
1.1575,1.2924e-05,0
1.158,1.3596e-05,0
1.1585,1.1582e-05,0
1.159,7.2175e-06,0
1.1595,1.2085e-05,0
1.16,1.6953e-05,0
1.1605,1.4603e-05,0
1.161,1.4267e-05,0
1.1615,1.5946e-05,0
1.162,1.9806e-05,0
1.1625,2.6688e-05,0
1.163,2.5345e-05,0
1.1635,2.1653e-05,0
1.164,2.6184e-05,0
1.1645,3.4241e-05,0
1.165,3.8773e-05,0
1.1655,3.743e-05,0
1.166,3.5584e-05,0
1.1665,3.592e-05,0
1.167,3.8102e-05,0
1.1675,4.0787e-05,0
1.168,4.0116e-05,0
1.1685,3.6088e-05,0
1.169,2.9374e-05,0
1.1695,2.4002e-05,0
1.17,2.3331e-05,0
1.1705,2.1317e-05,0
1.171,1.8296e-05,0
1.1715,1.1749e-05,0
1.172,8.3925e-06,0
1.1725,1.2924e-05,0
1.173,1.6449e-05,0
1.1735,1.6953e-05,0
1.174,2.031e-05,0
1.1745,1.9303e-05,0
1.175,2.0646e-05,0
1.1755,2.6352e-05,0
1.176,1.9303e-05,0
1.1765,8.2246e-06,0
1.177,9.2317e-06,0
1.1775,1.6281e-05,0
1.178,2.1988e-05,0
1.1785,2.3835e-05,0
1.179,2.0646e-05,0
1.1795,1.7121e-05,0
1.18,1.6281e-05,0
1.1805,1.796e-05,0
1.181,1.9806e-05,0
1.1815,2.1317e-05,0
1.182,2.4506e-05,0
1.1825,2.182e-05,0
1.183,1.5274e-05,0
1.1835,1.6785e-05,0
1.184,2.4002e-05,0
1.1845,2.4506e-05,0
1.185,1.9806e-05,0
1.1855,2.2324e-05,0
1.186,2.031e-05,0
1.1865,1.4267e-05,0
1.187,1.5442e-05,0
1.1875,1.3092e-05,0
1.188,1.1246e-05,0
1.1885,1.6281e-05,0
1.189,1.4603e-05,0
1.1895,9.9031e-06,0
1.19,1.326e-05,0
1.1905,1.8631e-05,0
1.191,1.9638e-05,0
1.1915,1.8967e-05,0
1.192,1.796e-05,0
1.1925,1.796e-05,0
1.193,1.796e-05,0
1.1935,1.4771e-05,0
1.194,9.5674e-06,0
1.1945,8.896e-06,0
1.195,1.0071e-05,0
1.1955,7.5532e-06,0
1.196,4.5319e-06,0
1.1965,8.5603e-06,0
1.197,1.6114e-05,0
1.1975,1.1246e-05,0
1.198,1.8463e-06,0
1.1985,8.7282e-06,0
1.199,1.4603e-05,0
1.1995,1.1582e-05,0
1.2,1.4435e-05,0
1.2005,1.6281e-05,0
1.201,1.2924e-05,0
1.2015,1.326e-05,0
1.202,1.3596e-05,0
1.2025,1.4603e-05,0
1.203,1.9974e-05,0
1.2035,2.1317e-05,0
1.204,1.8463e-05,0
1.2045,1.3764e-05,0
1.205,1.2589e-05,0
1.2055,1.2924e-05,0
1.206,1.4099e-05,0
1.2065,1.6617e-05,0
1.207,1.8631e-05,0
1.2075,1.9974e-05,0
1.208,2.1317e-05,0
1.2085,2.4338e-05,0
1.209,2.3667e-05,0
1.2095,1.6785e-05,0
1.21,1.5106e-05,0
1.2105,1.6449e-05,0
1.211,1.4267e-05,0
1.2115,1.8463e-05,0
1.212,2.031e-05,0
1.2125,2.1317e-05,0
1.213,2.887e-05,0
1.2135,2.7695e-05,0
1.214,2.1317e-05,0
1.2145,2.1653e-05,0
1.215,2.2324e-05,0
1.2155,2.1317e-05,0
1.216,2.1653e-05,0
1.2165,2.4002e-05,0
1.217,2.9374e-05,0
1.2175,3.1724e-05,0
1.218,2.9374e-05,0
1.2185,2.7024e-05,0
1.219,2.8031e-05,0
1.2195,3.1556e-05,0
1.22,2.9038e-05,0
1.2205,2.4002e-05,0
1.221,2.4002e-05,0
1.2215,2.6017e-05,0
1.222,2.652e-05,0
1.2225,2.0478e-05,0
1.223,1.7624e-05,0
1.2235,1.4771e-05,0
1.224,9.9031e-06,0
1.2245,1.326e-05,0
1.225,1.5274e-05,0
1.2255,1.4939e-05,0
1.226,1.7288e-05,0
1.2265,1.8967e-05,0
1.227,1.7121e-05,0
1.2275,2.1653e-05,0
1.228,2.266e-05,0
1.2285,2.266e-05,0
1.229,2.9374e-05,0
1.2295,3.2395e-05,0
1.23,2.6688e-05,0
1.2305,2.2324e-05,0
1.231,2.3835e-05,0
1.2315,2.6017e-05,0
1.232,2.7359e-05,0
1.2325,2.9038e-05,0
1.233,2.8702e-05,0
1.2335,2.9374e-05,0
1.234,3.3066e-05,0
1.2345,3.6423e-05,0
1.235,3.4241e-05,0
1.2355,3.1052e-05,0
1.236,3.0716e-05,0
1.2365,2.3667e-05,0
1.237,1.6617e-05,0
1.2375,1.7792e-05,0
1.238,1.8463e-05,0
1.2385,1.9974e-05,0
1.239,2.9542e-05,0
1.2395,3.0716e-05,0
1.24,2.4674e-05,0
1.2405,2.266e-05,0
1.241,1.8463e-05,0
1.2415,1.8463e-05,0
1.242,2.6352e-05,0
1.2425,2.7695e-05,0
1.243,1.8631e-05,0
1.2435,1.2253e-05,0
1.244,1.5274e-05,0
1.2445,1.9974e-05,0
1.245,2.3667e-05,0
1.2455,2.3835e-05,0
1.246,2.417e-05,0
1.2465,2.4002e-05,0
1.247,2.1317e-05,0
1.2475,1.796e-05,0
1.248,1.7288e-05,0
1.2485,1.9135e-05,0
1.249,2.3667e-05,0
1.2495,2.5681e-05,0
1.25,2.182e-05,0
1.2505,2.4002e-05,0
1.251,2.1317e-05,0
1.2515,1.6617e-05,0
1.252,1.7288e-05,0
1.2525,1.1582e-05,0
1.253,4.5319e-06,0
1.2535,7.5532e-06,0
1.254,1.0239e-05,0
1.2545,8.896e-06,0
1.255,8.896e-06,0
1.2555,1.1917e-05,0
1.256,1.326e-05,0
1.2565,1.0575e-05,0
1.257,1.1246e-05,0
1.2575,1.5946e-05,0
1.258,1.6617e-05,0
1.2585,1.2924e-05,0
1.259,1.0575e-05,0
1.2595,8.2246e-06,0
1.26,9.0639e-06,0
1.2605,1.3932e-05,0
1.261,1.8296e-05,0
1.2615,1.8128e-05,0
1.262,1.9303e-05,0
1.2625,1.7792e-05,0
1.263,1.561e-05,0
1.2635,2.1149e-05,0
1.264,2.3331e-05,0
1.2645,2.182e-05,0
1.265,2.6688e-05,0
1.2655,2.6352e-05,0
1.266,1.9303e-05,0
1.2665,1.5274e-05,0
1.267,9.9031e-06,0
1.2675,1.0575e-05,0
1.268,1.8631e-05,0
1.2685,2.3163e-05,0
1.269,2.4674e-05,0
1.2695,2.2995e-05,0
1.27,1.796e-05,0
1.2705,1.4435e-05,0
1.271,9.0639e-06,0
1.2715,4.5319e-06,0
1.272,7.8889e-06,0
1.2725,1.326e-05,0
1.273,1.2589e-05,0
1.2735,7.0497e-06,0
1.274,4.8676e-06,0
1.2745,7.2175e-06,0
1.275,9.7353e-06,0
1.2755,7.8889e-06,0
1.276,7.8889e-06,0
1.2765,1.8631e-05,0
1.277,2.2995e-05,0
1.2775,2.1988e-05,0
1.278,2.1317e-05,0
1.2785,1.8296e-05,0
1.279,1.8967e-05,0
1.2795,2.7024e-05,0
1.28,2.7024e-05,0
1.2805,2.1149e-05,0
1.281,2.4002e-05,0
1.2815,3.2395e-05,0
1.282,3.743e-05,0
1.2825,3.3738e-05,0
1.283,2.4338e-05,0
1.2835,1.8631e-05,0
1.284,1.9303e-05,0
1.2845,1.7624e-05,0
1.285,1.7288e-05,0
1.2855,2.031e-05,0
1.286,1.9303e-05,0
1.2865,1.4603e-05,0
1.287,1.3932e-05,0
1.2875,1.6785e-05,0
1.288,1.8967e-05,0
1.2885,1.5946e-05,0
1.289,1.326e-05,0
1.2895,1.947e-05,0
1.29,2.2324e-05,0
1.2905,2.0478e-05,0
1.291,2.266e-05,0
1.2915,2.031e-05,0
1.292,1.9974e-05,0
1.2925,2.8031e-05,0
1.293,2.5009e-05,0
1.2935,2.0646e-05,0
1.294,2.8031e-05,0
1.2945,3.2731e-05,0
1.295,2.9877e-05,0
1.2955,2.8367e-05,0
1.296,2.7527e-05,0
1.2965,2.8534e-05,0
1.297,2.7527e-05,0
1.2975,2.6688e-05,0
1.298,2.8702e-05,0
1.2985,2.652e-05,0
1.299,2.182e-05,0
1.2995,2.031e-05,0
1.3,1.796e-05,0
1.3005,1.3764e-05,0
1.301,1.5274e-05,0
1.3015,1.8296e-05,0
1.302,1.8296e-05,0
1.3025,2.1988e-05,0
1.303,2.1317e-05,0
1.3035,1.9974e-05,0
1.304,2.2156e-05,0
1.3045,2.3331e-05,0
1.305,2.5177e-05,0
1.3055,2.7024e-05,0
1.306,2.2492e-05,0
1.3065,1.8296e-05,0
1.307,1.7624e-05,0
1.3075,1.8967e-05,0
1.308,1.9303e-05,0
1.3085,1.4603e-05,0
1.309,8.5603e-06,0
1.3095,1.0575e-05,0
1.31,1.8967e-05,0
1.3105,2.4674e-05,0
1.311,2.2995e-05,0
1.3115,2.1149e-05,0
1.312,2.4506e-05,0
1.3125,2.7192e-05,0
1.313,2.3331e-05,0
1.3135,1.9303e-05,0
1.314,1.9974e-05,0
1.3145,1.7792e-05,0
1.315,1.4603e-05,0
1.3155,1.7624e-05,0
1.316,1.561e-05,0
1.3165,1.0575e-05,0
1.317,1.6953e-05,0
1.3175,2.4506e-05,0
1.318,2.2995e-05,0
1.3185,2.266e-05,0
1.319,2.0981e-05,0
1.3195,2.0478e-05,0
1.32,2.4002e-05,0
1.3205,2.3835e-05,0
1.321,2.1317e-05,0
1.3215,2.1317e-05,0
1.322,2.1317e-05,0
1.3225,1.9135e-05,0
1.323,1.6617e-05,0
1.3235,1.6617e-05,0
1.324,1.4603e-05,0
1.3245,1.2421e-05,0
1.325,1.2589e-05,0
1.3255,1.3932e-05,0
1.326,1.1246e-05,0
1.3265,8.0568e-06,0
1.327,8.896e-06,0
1.3275,9.7353e-06,0
1.328,8.5603e-06,0
1.3285,1.2589e-05,0
1.329,1.1582e-05,0
1.3295,9.2317e-06,0
1.33,1.6953e-05,0
1.3305,1.9638e-05,0
1.331,1.5274e-05,0
1.3315,1.5106e-05,0
1.332,1.4939e-05,0
1.3325,1.796e-05,0
1.333,2.5009e-05,0
1.3335,2.8367e-05,0
1.334,2.7192e-05,0
1.3345,2.6688e-05,0
1.335,2.266e-05,0
1.3355,1.5274e-05,0
1.336,9.7353e-06,0
1.3365,1.0575e-05,0
1.337,1.561e-05,0
1.3375,1.6617e-05,0
1.338,1.7288e-05,0
1.3385,2.3667e-05,0
1.339,2.9206e-05,0
1.3395,3.2059e-05,0
1.34,3.4745e-05,0
1.3405,2.7863e-05,0
1.341,2.0981e-05,0
1.3415,2.3667e-05,0
1.342,2.3667e-05,0
1.3425,1.8631e-05,0
1.343,2.3499e-05,0
1.3435,2.3835e-05,0
1.344,1.9303e-05,0
1.3445,2.6688e-05,0
1.345,2.9374e-05,0
1.3455,2.1317e-05,0
1.346,1.8296e-05,0
1.3465,2.3163e-05,0
1.347,2.4338e-05,0
1.3475,2.2324e-05,0
1.348,2.266e-05,0
1.3485,2.3499e-05,0
1.349,2.3667e-05,0
1.3495,2.1988e-05,0
1.35,1.9806e-05,0
1.3505,1.796e-05,0
1.351,1.947e-05,0
1.3515,2.4002e-05,0
1.352,2.4002e-05,0
1.3525,2.1988e-05,0
1.353,2.5681e-05,0
1.3535,2.6688e-05,0
1.354,2.266e-05,0
1.3545,2.4002e-05,0
1.355,2.4674e-05,0
1.3555,2.266e-05,0
1.356,2.5681e-05,0
1.3565,2.4842e-05,0
1.357,2.0478e-05,0
1.3575,2.3163e-05,0
1.358,2.266e-05,0
1.3585,1.6281e-05,0
1.359,1.4603e-05,0
1.3595,1.9974e-05,0
1.36,2.4002e-05,0
1.3605,2.2324e-05,0
1.361,2.0813e-05,0
1.3615,2.2324e-05,0
1.362,2.4338e-05,0
1.3625,2.6017e-05,0
1.363,2.4338e-05,0
1.3635,1.9974e-05,0
1.364,1.561e-05,0
1.3645,1.1582e-05,0
1.365,1.3596e-05,0
1.3655,1.8967e-05,0
1.366,2.0981e-05,0
1.3665,1.7792e-05,0
1.367,1.2253e-05,0
1.3675,1.5778e-05,0
1.368,1.7624e-05,0
1.3685,1.4603e-05,0
1.369,1.2757e-05,0
1.3695,9.5674e-06,0
1.37,8.5603e-06,0
1.3705,1.1917e-05,0
1.371,7.0497e-06,0
1.3715,3.1891e-06,0
1.372,1.1246e-05,0
1.3725,2.3331e-05,0
1.373,3.0045e-05,0
1.3735,3.0213e-05,0
1.374,2.7192e-05,0
1.3745,2.4842e-05,0
1.375,2.1317e-05,0
1.3755,1.561e-05,0
1.376,1.4603e-05,0
1.3765,1.9974e-05,0
1.377,2.3331e-05,0
1.3775,1.8967e-05,0
1.378,1.091e-05,0
1.3785,7.7211e-06,0
1.379,1.1749e-05,0
1.3795,1.091e-05,0
1.38,7.3854e-06,0
1.3805,1.0575e-05,0
1.381,9.5674e-06,0
1.3815,9.2317e-06,0
1.382,1.2924e-05,0
1.3825,9.5674e-06,0
1.383,5.2033e-06,0
1.3835,1.0407e-05,0
1.384,9.9031e-06,0
1.3845,1.091e-05,0
1.385,1.8967e-05,0
1.3855,2.4674e-05,0
1.386,2.2995e-05,0
1.3865,1.8967e-05,0
1.387,1.7792e-05,0
1.3875,2.0478e-05,0
1.388,2.3163e-05,0
1.3885,2.6688e-05,0
1.389,2.8367e-05,0
1.3895,2.8367e-05,0
1.39,2.6017e-05,0
1.3905,2.2995e-05,0
1.391,2.5513e-05,0
1.3915,2.8031e-05,0
1.392,2.6688e-05,0
1.3925,2.0646e-05,0
1.393,1.2924e-05,0
1.3935,1.4603e-05,0
1.394,1.4435e-05,0
1.3945,9.2317e-06,0
1.395,1.326e-05,0
1.3955,1.6617e-05,0
1.396,1.5106e-05,0
1.3965,1.7624e-05,0
1.397,1.9303e-05,0
1.3975,2.1653e-05,0
1.398,2.652e-05,0
1.3985,2.7863e-05,0
1.399,2.1149e-05,0
1.3995,1.5442e-05,0
1.4,1.7792e-05,0
1.4005,2.3667e-05,0
1.401,2.6352e-05,0
1.4015,2.8031e-05,0
1.402,3.122e-05,0
1.4025,3.2059e-05,0
1.403,3.2731e-05,0
1.4035,3.4577e-05,0
1.404,3.2731e-05,0
1.4045,2.6352e-05,0
1.405,2.5849e-05,0
1.4055,2.5849e-05,0
1.406,2.4842e-05,0
1.4065,3.0045e-05,0
1.407,2.7024e-05,0
1.4075,2.0646e-05,0
1.408,2.2324e-05,0
1.4085,2.1317e-05,0
1.409,1.9974e-05,0
1.4095,2.6688e-05,0
1.41,2.8031e-05,0
1.4105,2.7192e-05,0
1.411,2.8367e-05,0
1.4115,2.8031e-05,0
1.412,2.8367e-05,0
1.4125,3.0213e-05,0
1.413,2.9709e-05,0
1.4135,2.4338e-05,0
1.414,1.8463e-05,0
1.4145,1.5442e-05,0
1.415,1.796e-05,0
1.4155,2.5177e-05,0
1.416,2.5345e-05,0
1.4165,2.266e-05,0
1.417,2.3667e-05,0
1.4175,2.0981e-05,0
1.418,1.8296e-05,0
1.4185,1.5106e-05,0
1.419,1.5778e-05,0
1.4195,2.182e-05,0
1.42,2.0646e-05,0
1.4205,1.4771e-05,0
1.421,1.3092e-05,0
1.4215,9.5674e-06,0
1.422,1.091e-05,0
1.4225,1.5442e-05,0
1.423,1.1246e-05,0
1.4235,7.7211e-06,0
1.424,1.0575e-05,0
1.4245,1.561e-05,0
1.425,1.5274e-05,0
1.4255,1.3932e-05,0
1.426,1.7792e-05,0
1.4265,2.1653e-05,0
1.427,2.4002e-05,0
1.4275,2.3667e-05,0
1.428,2.0646e-05,0
1.4285,1.7288e-05,0
1.429,1.5778e-05,0
1.4295,1.5946e-05,0
1.43,1.7288e-05,0
1.4305,1.5946e-05,0
1.431,1.6953e-05,0
1.4315,1.8631e-05,0
1.432,1.8296e-05,0
1.4325,2.4002e-05,0
1.433,2.5345e-05,0
1.4335,2.1653e-05,0
1.434,2.0646e-05,0
1.4345,2.0478e-05,0
1.435,2.1149e-05,0
1.4355,2.5009e-05,0
1.436,2.0142e-05,0
1.4365,1.7288e-05,0
1.437,2.6688e-05,0
1.4375,3.4745e-05,0
1.438,3.4073e-05,0
1.4385,2.887e-05,0
1.439,2.6688e-05,0
1.4395,2.8702e-05,0
1.44,2.9206e-05,0
1.4405,2.7359e-05,0
1.441,2.7695e-05,0
1.4415,3.0381e-05,0
1.442,2.5009e-05,0
1.4425,1.3596e-05,0
1.443,9.2317e-06,0
1.4435,1.3932e-05,0
1.444,2.3331e-05,0
1.4445,2.3331e-05,0
1.445,1.7288e-05,0
1.4455,1.7288e-05,0
1.446,1.5274e-05,0
1.4465,9.2317e-06,0
1.447,1.1246e-05,0
1.4475,1.3596e-05,0
1.448,9.7353e-06,0
1.4485,1.0239e-05,0
1.449,9.5674e-06,0
1.4495,5.2033e-06,0
1.45,7.2175e-06,0
1.4505,1.4267e-05,0
1.451,1.8631e-05,0
1.4515,1.8631e-05,0
1.452,1.6617e-05,0
1.4525,1.5946e-05,0
1.453,1.7288e-05,0
1.4535,1.6953e-05,0
1.454,1.2589e-05,0
1.4545,9.2317e-06,0
1.455,1.0407e-05,0
1.4555,1.091e-05,0
1.456,7.0497e-06,0
1.4565,4.8676e-06,0
1.457,9.9031e-06,0
1.4575,1.2589e-05,0
1.458,9.9031e-06,0
1.4585,1.0407e-05,0
1.459,9.5674e-06,0
1.4595,6.2104e-06,0
1.46,9.0639e-06,0
1.4605,1.2253e-05,0
1.461,1.326e-05,0
1.4615,1.9135e-05,0
1.462,2.1317e-05,0
1.4625,1.9638e-05,0
1.463,2.6017e-05,0
1.4635,3.4745e-05,0
1.464,3.3402e-05,0
1.4645,2.266e-05,0
1.465,1.6617e-05,0
1.4655,2.0646e-05,0
1.466,2.6856e-05,0
1.4665,2.8367e-05,0
1.467,2.652e-05,0
1.4675,2.2324e-05,0
1.468,1.9806e-05,0
1.4685,1.947e-05,0
1.469,1.8463e-05,0
1.4695,1.5778e-05,0
1.47,1.7624e-05,0
1.4705,1.7456e-05,0
1.471,1.796e-05,0
1.4715,2.6017e-05,0
1.472,2.9709e-05,0
1.4725,2.5177e-05,0
1.473,2.3835e-05,0
1.4735,2.3667e-05,0
1.474,2.5009e-05,0
1.4745,2.9206e-05,0
1.475,2.4842e-05,0
1.4755,1.9303e-05,0
1.476,2.3499e-05,0
1.4765,2.8367e-05,0
1.477,2.9038e-05,0
1.4775,2.8367e-05,0
1.478,2.6017e-05,0
1.4785,2.1653e-05,0
1.479,1.9806e-05,0
1.4795,1.7288e-05,0
1.48,1.4267e-05,0
1.4805,1.6449e-05,0
1.481,2.0646e-05,0
1.4815,2.4674e-05,0
1.482,2.6017e-05,0
1.4825,2.8031e-05,0
1.483,2.9374e-05,0
1.4835,2.5009e-05,0
1.484,2.0646e-05,0
1.4845,2.3835e-05,0
1.485,2.1317e-05,0
1.4855,1.2421e-05,0
1.486,1.561e-05,0
1.4865,1.6953e-05,0
1.487,1.5946e-05,0
1.4875,2.0646e-05,0
1.488,2.0813e-05,0
1.4885,1.6449e-05,0
1.489,1.3764e-05,0
1.4895,1.4099e-05,0
1.49,1.5274e-05,0
1.4905,1.5106e-05,0
1.491,1.5778e-05,0
1.4915,1.6617e-05,0
1.492,1.8631e-05,0
1.4925,1.8631e-05,0
1.493,1.6617e-05,0
1.4935,1.4603e-05,0
1.494,1.3092e-05,0
1.4945,1.2924e-05,0
1.495,1.4603e-05,0
1.4955,1.5946e-05,0
1.496,2.1317e-05,0
1.4965,2.4674e-05,0
1.497,2.1988e-05,0
1.4975,1.8631e-05,0
1.498,1.5442e-05,0
1.4985,1.8967e-05,0
1.499,2.5513e-05,0
1.4995,2.2995e-05,0
1.5,1.7121e-05,0
1.5005,2.4002e-05,0
1.501,3.0045e-05,0
1.5015,2.7192e-05,0
1.502,2.6184e-05,0
1.5025,3.0716e-05,0
1.503,3.3738e-05,0
1.5035,3.2395e-05,0
1.504,2.8367e-05,0
1.5045,2.5849e-05,0
1.505,2.0646e-05,0
1.5055,1.6785e-05,0
1.506,1.7288e-05,0
1.5065,1.7288e-05,0
1.507,1.3932e-05,0
1.5075,1.326e-05,0
1.508,0,0
1.5085,0,0
1.509,0,0
1.5095,0,0
1.51,0,0
1.5105,0,0
1.511,0,0
1.5115,0,0
1.512,0,0
1.5125,0,0
1.513,0,0
1.5135,0,0
1.514,0,0
1.5145,0,0
1.515,0,0
1.5155,0,0
1.516,0,0
1.5165,0,0
1.517,0,0
1.5175,0,0
1.518,0,0
1.5185,0,0
1.519,0,0
1.5195,0,0
1.52,0,0
1.5205,0,0
1.521,1.4435e-05,0
1.5215,1.4099e-05,0
1.522,1.7624e-05,0
1.5225,1.561e-05,0
1.523,8.7282e-06,0
1.5235,1.0071e-05,0
1.524,1.0407e-05,0
1.5245,6.5461e-06,0
1.525,1.1246e-05,0
1.5255,1.3932e-05,0
1.526,1.3092e-05,0
1.5265,1.4603e-05,0
1.527,1.0239e-05,0
1.5275,8.5603e-06,0
1.528,1.6281e-05,0
1.5285,2.1317e-05,0
1.529,2.2995e-05,0
1.5295,2.4674e-05,0
1.53,2.4674e-05,0
1.5305,2.3163e-05,0
1.531,2.3499e-05,0
1.5315,2.5345e-05,0
1.532,2.5345e-05,0
1.5325,2.3667e-05,0
1.533,1.8631e-05,0
1.5335,1.9135e-05,0
1.534,2.6352e-05,0
1.5345,2.9374e-05,0
1.535,3.2563e-05,0
1.5355,2.8534e-05,0
1.536,2.3331e-05,0
1.5365,3.1388e-05,0
1.537,3.4577e-05,0
1.5375,2.7359e-05,0
1.538,2.4674e-05,0
1.5385,2.4338e-05,0
1.539,2.6352e-05,0
1.5395,2.9877e-05,0
1.54,1.9974e-05,0
1.5405,1.1917e-05,0
1.541,1.3596e-05,0
1.5415,1.9638e-05,0
1.542,2.3163e-05,0
1.5425,2.4338e-05,0
1.543,2.2828e-05,0
1.5435,1.8463e-05,0
1.544,1.7288e-05,0
1.5445,2.1317e-05,0
1.545,2.4674e-05,0
1.5455,2.3331e-05,0
1.546,2.2492e-05,0
1.5465,2.5009e-05,0
1.547,2.6352e-05,0
1.5475,2.4674e-05,0
1.548,2.5177e-05,0
1.5485,2.4338e-05,0
1.549,2.266e-05,0
1.5495,2.8367e-05,0
1.55,2.7192e-05,0
1.5505,2.0142e-05,0
1.551,2.266e-05,0
1.5515,2.3667e-05,0
1.552,2.4002e-05,0
1.5525,2.7695e-05,0
1.553,2.3331e-05,0
1.5535,1.9806e-05,0
1.554,2.1988e-05,0
1.5545,1.9974e-05,0
1.555,1.6281e-05,0
1.5555,1.9806e-05,0
1.556,2.2492e-05,0
1.5565,2.0646e-05,0
1.557,1.8631e-05,0
1.5575,1.9135e-05,0
1.558,1.8967e-05,0
1.5585,1.6617e-05,0
1.559,1.5106e-05,0
1.5595,1.7288e-05,0
1.56,1.8967e-05,0
1.5605,1.7288e-05,0
1.561,1.9974e-05,0
1.5615,2.0646e-05,0
1.562,1.6449e-05,0
1.5625,1.5946e-05,0
1.563,1.4435e-05,0
1.5635,1.4267e-05,0
1.564,2.1317e-05,0
1.5645,2.3331e-05,0
1.565,1.6449e-05,0
1.5655,1.4267e-05,0
1.566,1.326e-05,0
1.5665,1.5106e-05,0
1.567,2.3331e-05,0
1.5675,2.9038e-05,0
1.568,2.8702e-05,0
1.5685,2.8031e-05,0
1.569,2.8534e-05,0
1.5695,2.5009e-05,0
1.57,2.1988e-05,0
1.5705,2.1653e-05,0
1.571,2.2324e-05,0
1.5715,2.3499e-05,0
1.572,2.5009e-05,0
1.5725,2.3667e-05,0
1.573,2.0646e-05,0
1.5735,1.8296e-05,0
1.574,1.796e-05,0
1.5745,1.6617e-05,0
1.575,1.5274e-05,0
1.5755,1.796e-05,0
1.576,1.3092e-05,0
1.5765,4.5319e-06,0
1.577,3.5248e-06,0
1.5775,-8.392e-07,0
1.578,-7.8889e-06,0
1.5785,-5.2033e-06,0
1.579,2.182e-06,0
1.5795,6.5461e-06,0
1.58,7.8889e-06,0
1.5805,4.1962e-06,0
1.581,4.1962e-06,0
1.5815,9.7353e-06,0
1.582,1.4099e-05,0
1.5825,1.5946e-05,0
1.583,2.0478e-05,0
1.5835,2.5345e-05,0
1.584,2.5009e-05,0
1.5845,2.182e-05,0
1.585,2.1149e-05,0
1.5855,2.2492e-05,0
1.586,2.5345e-05,0
1.5865,2.8031e-05,0
1.587,2.7024e-05,0
1.5875,2.0646e-05,0
1.588,1.3092e-05,0
1.5885,1.5106e-05,0
1.589,1.7288e-05,0
1.5895,1.796e-05,0
1.59,1.947e-05,0
1.5905,1.6281e-05,0
1.591,1.4435e-05,0
1.5915,2.031e-05,0
1.592,1.5946e-05,0
1.5925,6.2104e-06,0
1.593,9.2317e-06,0
1.5935,1.796e-05,0
1.594,2.3331e-05,0
1.5945,2.5681e-05,0
1.595,2.6017e-05,0
1.5955,2.8031e-05,0
1.596,3.1891e-05,0
1.5965,3.2731e-05,0
1.597,3.2059e-05,0
1.5975,3.3066e-05,0
1.598,3.2059e-05,0
1.5985,3.0716e-05,0
1.599,3.0381e-05,0
1.5995,2.887e-05,0
1.6,2.7695e-05,0
1.6005,2.5849e-05,0
1.601,2.2492e-05,0
1.6015,2.5681e-05,0
1.602,2.8702e-05,0
1.6025,2.7192e-05,0
1.603,2.9877e-05,0
1.6035,3.2731e-05,0
1.604,3.0716e-05,0
1.6045,2.9206e-05,0
1.605,2.4674e-05,0
1.6055,1.9303e-05,0
1.606,2.1317e-05,0
1.6065,2.4002e-05,0
1.607,2.1988e-05,0
1.6075,1.5442e-05,0
1.608,9.9031e-06,0
1.6085,1.0071e-05,0
1.609,1.4939e-05,0
1.6095,1.9135e-05,0
1.61,1.9974e-05,0
1.6105,2.1317e-05,0
1.611,2.4674e-05,0
1.6115,2.7695e-05,0
1.612,2.9374e-05,0
1.6125,2.9374e-05,0
1.613,2.7695e-05,0
1.6135,2.4002e-05,0
1.614,2.4506e-05,0
1.6145,3.0884e-05,0
1.615,2.9877e-05,0
1.6155,1.9806e-05,0
1.616,2.031e-05,0
1.6165,2.1317e-05,0
1.617,1.7288e-05,0
1.6175,1.7288e-05,0
1.618,1.4603e-05,0
1.6185,9.2317e-06,0
1.619,1.1917e-05,0
1.6195,2.0478e-05,0
1.62,2.6017e-05,0
1.6205,2.5849e-05,0
1.621,2.3667e-05,0
1.6215,2.0646e-05,0
1.622,1.7792e-05,0
1.6225,1.4435e-05,0
1.623,9.9031e-06,0
1.6235,8.5603e-06,0
1.624,1.1078e-05,0
1.6245,9.9031e-06,0
1.625,7.3854e-06,0
1.6255,9.9031e-06,0
1.626,1.6617e-05,0
1.6265,1.8463e-05,0
1.627,1.6617e-05,0
1.6275,2.0981e-05,0
1.628,2.2492e-05,0
1.6285,1.9135e-05,0
1.629,2.2995e-05,0
1.6295,2.4338e-05,0
1.63,1.8631e-05,0
1.6305,1.6449e-05,0
1.631,1.5946e-05,0
1.6315,1.6617e-05,0
1.632,2.1988e-05,0
1.6325,2.4338e-05,0
1.633,2.5345e-05,0
1.6335,2.5681e-05,0
1.634,2.1317e-05,0
1.6345,1.1749e-05,0
1.635,8.2246e-06,0
1.6355,1.3764e-05,0
1.636,2.031e-05,0
1.6365,2.1317e-05,0
1.637,1.8463e-05,0
1.6375,1.5946e-05,0
1.638,1.3596e-05,0
1.6385,9.2317e-06,0
1.639,9.2317e-06,0
1.6395,9.7353e-06,0
1.64,7.8889e-06,0
1.6405,9.7353e-06,0
1.641,7.2175e-06,0
1.6415,8.5603e-06,0
1.642,1.8631e-05,0
1.6425,2.1653e-05,0
1.643,1.9638e-05,0
1.6435,2.266e-05,0
1.644,1.7288e-05,0
1.6445,1.4771e-05,0
1.645,2.5009e-05,0
1.6455,3.4577e-05,0
1.646,3.6927e-05,0
1.6465,3.4745e-05,0
1.647,3.0549e-05,0
1.6475,2.7359e-05,0
1.648,2.5345e-05,0
1.6485,2.3667e-05,0
1.649,2.4002e-05,0
1.6495,2.5681e-05,0
1.65,2.3331e-05,0
1.6505,1.9638e-05,0
1.651,1.5946e-05,0
1.6515,1.326e-05,0
1.652,1.1749e-05,0
1.6525,6.8818e-06,0
1.653,6.5461e-06,0
1.6535,1.4939e-05,0
1.654,1.8631e-05,0
1.6545,1.5274e-05,0
1.655,1.2924e-05,0
1.6555,9.2317e-06,0
1.656,7.5532e-06,0
1.6565,1.4267e-05,0
1.657,1.4267e-05,0
1.6575,1.1246e-05,0
1.658,1.1246e-05,0
1.6585,1.0239e-05,0
1.659,5.539e-06,0
1.6595,1.678e-07,0
1.66,2.182e-06,0
1.6605,9.2317e-06,0
1.661,1.2924e-05,0
1.6615,1.3092e-05,0
1.662,1.3764e-05,0
1.6625,1.947e-05,0
1.663,2.2324e-05,0
1.6635,2.4002e-05,0
1.664,2.4674e-05,0
1.6645,2.266e-05,0
1.665,2.2995e-05,0
1.6655,2.266e-05,0
1.666,2.1653e-05,0
1.6665,2.4506e-05,0
1.667,2.2324e-05,0
1.6675,1.5442e-05,0
1.668,1.7288e-05,0
1.6685,1.8463e-05,0
1.669,1.7288e-05,0
1.6695,1.796e-05,0
1.67,1.4939e-05,0
1.6705,1.4603e-05,0
1.671,1.9806e-05,0
1.6715,2.3667e-05,0
1.672,2.4842e-05,0
1.6725,1.8631e-05,0
1.673,1.2589e-05,0
1.6735,1.2421e-05,0
1.674,1.4099e-05,0
1.6745,1.2757e-05,0
1.675,1.0575e-05,0
1.6755,9.9031e-06,0
1.676,1.1917e-05,0
1.6765,1.9806e-05,0
1.677,3.2059e-05,0
1.6775,3.6088e-05,0
1.678,3.4073e-05,0
1.6785,2.7695e-05,0
1.679,2.1317e-05,0
1.6795,2.5009e-05,0
1.68,2.6184e-05,0
1.6805,2.5849e-05,0
1.681,3.1388e-05,0
1.6815,3.0381e-05,0
1.682,2.6688e-05,0
1.6825,3.1388e-05,0
1.683,3.0716e-05,0
1.6835,2.6352e-05,0
1.684,2.8702e-05,0
1.6845,3.3402e-05,0
1.685,3.7095e-05,0
1.6855,3.508e-05,0
1.686,3.1052e-05,0
1.6865,3.3738e-05,0
1.687,3.9445e-05,0
1.6875,3.592e-05,0
1.688,2.9709e-05,0
1.6885,3.0213e-05,0
1.689,3.6088e-05,0
1.6895,3.7095e-05,0
1.69,3.122e-05,0
1.6905,2.5177e-05,0
1.691,2.2492e-05,0
1.6915,1.8967e-05,0
1.692,2.0142e-05,0
1.6925,3.0716e-05,0
1.693,3.2059e-05,0
1.6935,2.4002e-05,0
1.694,2.2492e-05,0
1.6945,1.9303e-05,0
1.695,1.8128e-05,0
1.6955,2.5345e-05,0
1.696,2.3163e-05,0
1.6965,1.7288e-05,0
1.697,2.266e-05,0
1.6975,3.3906e-05,0
1.698,3.7095e-05,0
1.6985,3.7095e-05,0
1.699,3.8102e-05,0
1.6995,3.3402e-05,0
1.7,2.652e-05,0
1.7005,2.2156e-05,0
1.701,1.796e-05,0
1.7015,1.5274e-05,0
1.702,1.3764e-05,0
1.7025,1.1582e-05,0
1.703,1.0575e-05,0
1.7035,8.2246e-06,0
1.704,7.8889e-06,0
1.7045,1.1246e-05,0
1.705,1.1749e-05,0
1.7055,1.3764e-05,0
1.706,1.5442e-05,0
1.7065,1.6617e-05,0
1.707,2.1317e-05,0
1.7075,1.9974e-05,0
1.708,1.6449e-05,0
1.7085,1.9638e-05,0
1.709,1.5778e-05,0
1.7095,1.3596e-05,0
1.71,2.2324e-05,0
1.7105,3.0213e-05,0
1.711,2.8702e-05,0
1.7115,2.4002e-05,0
1.712,1.6785e-05,0
1.7125,1.3932e-05,0
1.713,1.4267e-05,0
1.7135,1.326e-05,0
1.714,1.4435e-05,0
1.7145,1.4603e-05,0
1.715,1.1917e-05,0
1.7155,6.2104e-06,0
1.716,4.1962e-06,0
1.7165,8.5603e-06,0
1.717,1.5274e-05,0
1.7175,1.3764e-05,0
1.718,8.0568e-06,0
1.7185,1.1917e-05,0
1.719,1.4939e-05,0
1.7195,1.1749e-05,0
1.72,1.5274e-05,0
1.7205,2.1317e-05,0
1.721,2.6688e-05,0
1.7215,3.3066e-05,0
1.722,2.9038e-05,0
1.7225,1.9974e-05,0
1.723,1.6953e-05,0
1.7235,1.7792e-05,0
1.724,1.3932e-05,0
1.7245,6.0426e-06,0
1.725,8.392e-07,0
1.7255,-3.0213e-06,0
1.726,-1.8463e-06,0
1.7265,1.5106e-06,0
1.727,1.6785e-06,0
1.7275,3.8605e-06,0
1.728,8.2246e-06,0
1.7285,4.1962e-06,0
1.729,-4.1962e-06,0
1.7295,-9.2317e-06,0
1.73,-6.0426e-06,0
1.7305,-1.5106e-06,0
1.731,1.8463e-06,0
1.7315,8.896e-06,0
1.732,1.091e-05,0
1.7325,1.0575e-05,0
1.733,1.5778e-05,0
1.7335,1.7121e-05,0
1.734,1.4099e-05,0
1.7345,1.3764e-05,0
1.735,9.0639e-06,0
1.7355,4.3641e-06,0
1.736,1.0575e-05,0
1.7365,1.796e-05,0
1.737,2.1988e-05,0
1.7375,2.4674e-05,0
1.738,2.6017e-05,0
1.7385,2.266e-05,0
1.739,1.8296e-05,0
1.7395,2.0142e-05,0
1.74,2.9038e-05,0
1.7405,3.3402e-05,0
1.741,2.9038e-05,0
1.7415,2.5345e-05,0
1.742,2.7863e-05,0
1.7425,2.8702e-05,0
1.743,3.0381e-05,0
1.7435,2.8367e-05,0
1.744,2.5681e-05,0
1.7445,3.2059e-05,0
1.745,3.5416e-05,0
1.7455,3.2898e-05,0
1.746,3.743e-05,0
1.7465,3.7766e-05,0
1.747,3.6088e-05,0
1.7475,3.8437e-05,0
1.748,3.2731e-05,0
1.7485,2.6688e-05,0
1.749,3.2059e-05,0
1.7495,3.1891e-05,0
1.75,2.266e-05,0
1.7505,1.4603e-05,0
1.751,9.7353e-06,0
1.7515,7.8889e-06,0
1.752,8.5603e-06,0
1.7525,1.1582e-05,0
1.753,1.5106e-05,0
1.7535,1.4267e-05,0
1.754,9.0639e-06,0
1.7545,6.8818e-06,0
1.755,1.091e-05,0
1.7555,1.8631e-05,0
1.756,2.8031e-05,0
1.7565,3.2059e-05,0
1.757,3.2059e-05,0
1.7575,3.6759e-05,0
1.758,3.1891e-05,0
1.7585,2.031e-05,0
1.759,2.4506e-05,0
1.7595,3.0716e-05,0
1.76,2.9709e-05,0
1.7605,3.1891e-05,0
1.761,3.1724e-05,0
1.7615,3.122e-05,0
1.762,3.6759e-05,0
1.7625,4.4816e-05,0
1.763,5.2537e-05,0
1.7635,5.4215e-05,0
1.764,4.6662e-05,0
1.7645,3.9277e-05,0
1.765,3.9948e-05,0
1.7655,4.0116e-05,0
1.766,3.7095e-05,0
1.7665,3.1052e-05,0
1.767,2.7359e-05,0
1.7675,2.6352e-05,0
1.768,2.7359e-05,0
1.7685,2.6017e-05,0
1.769,2.4674e-05,0
1.7695,1.4771e-05,0
1.77,3.6927e-06,0
1.7705,7.5532e-06,0
1.771,1.0575e-05,0
1.7715,4.1962e-06,0
1.772,8.392e-07,0
1.7725,-3.5248e-06,0
1.773,-7.0497e-06,0
1.7735,-5.539e-06,0
1.774,-8.5603e-06,0
1.7745,-1.0407e-05,0
1.775,-5.539e-06,0
1.7755,-1.8463e-06,0
1.776,-5.539e-06,0
1.7765,-9.0639e-06,0
1.777,-4.1962e-06,0
1.7775,7.0497e-06,0
1.778,9.9031e-06,0
1.7785,7.2175e-06,0
1.779,6.2104e-06,0
1.7795,4.5319e-06,0
1.78,1.8463e-06,0
1.7805,3.357e-06,0
1.781,4.1962e-06,0
1.7815,3.357e-07,0
1.782,1.1749e-06,0
1.7825,5.2033e-06,0
1.783,1.091e-05,0
1.7835,2.1149e-05,0
1.784,2.4002e-05,0
1.7845,2.3331e-05,0
1.785,2.7024e-05,0
1.7855,2.7695e-05,0
1.786,2.8031e-05,0
1.7865,3.4073e-05,0
1.787,3.7095e-05,0
1.7875,3.508e-05,0
1.788,3.9109e-05,0
1.7885,4.1962e-05,0
1.789,3.4745e-05,0
1.7895,2.4338e-05,0
1.79,2.0981e-05,0
1.7905,2.7024e-05,0
1.791,3.508e-05,0
1.7915,3.3402e-05,0
1.792,2.8534e-05,0
1.7925,3.2059e-05,0
1.793,4.1962e-05,0
1.7935,4.3977e-05,0
1.794,3.8773e-05,0
1.7945,3.2395e-05,0
1.795,2.8367e-05,0
1.7955,1.9135e-05,0
1.796,7.0497e-06,0
1.7965,4.8676e-06,0
1.797,1.1582e-05,0
1.7975,1.3596e-05,0
1.798,1.3764e-05,0
1.7985,1.1582e-05,0
1.799,1.1917e-05,0
1.7995,1.6449e-05,0
1.8,1.4603e-05,0
1.8005,9.9031e-06,0
1.801,1.1078e-05,0
1.8015,1.3932e-05,0
1.802,1.1246e-05,0
1.8025,7.8889e-06,0
1.803,6.3783e-06,0
1.8035,8.2246e-06,0
1.804,1.4435e-05,0
1.8045,2.0646e-05,0
1.805,2.3499e-05,0
1.8055,2.7024e-05,0
1.806,3.592e-05,0
1.8065,4.683e-05,0
1.807,5.0355e-05,0
1.8075,4.448e-05,0
1.808,3.9445e-05,0
1.8085,3.6088e-05,0
1.809,3.4073e-05,0
1.8095,3.7766e-05,0
1.81,3.4409e-05,0
1.8105,2.6352e-05,0
1.811,2.6352e-05,0
1.8115,2.2324e-05,0
1.812,1.6617e-05,0
1.8125,1.6281e-05,0
1.813,1.1246e-05,0
1.8135,5.8747e-06,0
1.814,5.8747e-06,0
1.8145,9.0639e-06,0
1.815,8.896e-06,0
1.8155,7.5532e-06,0
1.816,6.0426e-06,0
1.8165,7.2175e-06,0
1.817,1.1582e-05,0
1.8175,1.4435e-05,0
1.818,1.4939e-05,0
1.8185,1.561e-05,0
1.819,1.7121e-05,0
1.8195,2.0478e-05,0
1.82,1.9303e-05,0
1.8205,1.2589e-05,0
1.821,6.8818e-06,0
1.8215,2.182e-06,0
1.822,1.1749e-06,0
1.8225,6.0426e-06,0
1.823,5.8747e-06,0
1.8235,3.357e-06,0
1.824,9.2317e-06,0
1.8245,1.3092e-05,0
1.825,1.3596e-05,0
1.8255,1.5946e-05,0
1.826,5.539e-06,0
1.8265,-6.2104e-06,0
1.827,-1.1749e-06,0
1.8275,1.0575e-05,0
1.828,1.9974e-05,0
1.8285,2.2828e-05,0
1.829,2.1317e-05,0
1.8295,2.2995e-05,0
1.83,2.6688e-05,0
1.8305,2.9374e-05,0
1.831,3.4745e-05,0
1.8315,4.0452e-05,0
1.832,4.1123e-05,0
1.8325,4.2802e-05,0
1.833,4.8844e-05,0
1.8335,4.8173e-05,0
1.834,4.3641e-05,0
1.8345,4.0452e-05,0
1.835,3.9277e-05,0
1.8355,4.0284e-05,0
1.836,3.122e-05,0
1.8365,2.2324e-05,0
1.837,2.5681e-05,0
1.8375,2.6017e-05,0
1.838,2.1149e-05,0
1.8385,1.7288e-05,0
1.839,1.2253e-05,0
1.8395,1.1246e-05,0
1.84,1.8296e-05,0
1.8405,2.6017e-05,0
1.841,3.0213e-05,0
1.8415,3.3738e-05,0
1.842,3.6591e-05,0
1.8425,3.8437e-05,0
1.843,3.4913e-05,0
1.8435,2.8534e-05,0
1.844,2.3667e-05,0
1.8445,1.7288e-05,0
1.845,9.9031e-06,0
1.8455,1.2589e-05,0
1.846,2.5009e-05,0
1.8465,3.1388e-05,0
1.847,3.1724e-05,0
1.8475,3.1388e-05,0
1.848,3.0549e-05,0
1.8485,3.0045e-05,0
1.849,1.8296e-05,0
1.8495,9.0639e-06,0
1.85,1.5778e-05,0
1.8505,1.7288e-05,0
1.851,1.1246e-05,0
1.8515,1.2085e-05,0
1.852,1.7288e-05,0
1.8525,1.3596e-05,0
1.853,1.1749e-06,0
1.8535,-1.0742e-05,0
1.854,-1.6114e-05,0
1.8545,-1.5946e-05,0
1.855,-1.1246e-05,0
1.8555,-9.0639e-06,0
1.856,-8.7282e-06,0
1.8565,-7.5532e-06,0
1.857,-5.539e-06,0
1.8575,1.678e-07,0
1.858,1.0575e-05,0
1.8585,1.5274e-05,0
1.859,1.5106e-05,0
1.8595,1.4603e-05,0
1.86,1.7121e-05,0
1.8605,1.6953e-05,0
1.861,1.2589e-05,0
1.8615,1.7288e-05,0
1.862,1.8128e-05,0
1.8625,1.3932e-05,0
1.863,1.9135e-05,0
1.8635,1.9974e-05,0
1.864,1.8128e-05,0
1.8645,2.5681e-05,0
1.865,2.6688e-05,0
1.8655,2.182e-05,0
1.866,1.947e-05,0
1.8665,1.9806e-05,0
1.867,1.9638e-05,0
1.8675,1.6617e-05,0
1.868,9.3996e-06,0
1.8685,4.0284e-06,0
1.869,6.5461e-06,0
1.8695,1.1078e-05,0
1.87,1.7288e-05,0
1.8705,2.652e-05,0
1.871,3.7262e-05,0
1.8715,4.6998e-05,0
1.872,5.3376e-05,0
1.8725,5.6733e-05,0
1.873,5.8244e-05,0
1.8735,5.4215e-05,0
1.874,5.304e-05,0
1.8745,6.1936e-05,0
1.875,6.6636e-05,0
1.8755,6.5293e-05,0
1.876,6.2944e-05,0
1.8765,5.3208e-05,0
1.877,4.4816e-05,0
1.8775,4.7333e-05,0
1.878,4.683e-05,0
1.8785,3.9109e-05,0
1.879,3.3066e-05,0
1.8795,2.9206e-05,0
1.88,2.8367e-05,0
1.8805,2.7527e-05,0
1.881,2.6688e-05,0
1.8815,2.8702e-05,0
1.882,3.1556e-05,0
1.8825,3.0381e-05,0
1.883,2.5009e-05,0
1.8835,1.9638e-05,0
1.884,2.031e-05,0
1.8845,2.3163e-05,0
1.885,1.5946e-05,0
1.8855,5.8747e-06,0
1.886,5.8747e-06,0
1.8865,1.091e-05,0
1.887,1.7121e-05,0
1.8875,1.9974e-05,0
1.888,1.0575e-05,0
1.8885,-2.5177e-06,0
1.889,8.392e-07,0
1.8895,8.2246e-06,0
1.89,1.326e-05,0
1.8905,1.947e-05,0
1.891,1.5778e-05,0
1.8915,5.7069e-06,0
1.892,-5.035e-07,0
1.8925,-3.1891e-06,0
1.893,-1.1917e-05,0
1.8935,-2.7024e-05,0
1.894,-3.9109e-05,0
1.8945,-3.9109e-05,0
1.895,-3.4073e-05,0
1.8955,-2.8702e-05,0
1.896,-2.3835e-05,0
1.8965,-1.796e-05,0
1.897,-1.0575e-05,0
1.8975,-8.5603e-06,0
1.898,-1.2924e-05,0
1.8985,-1.2253e-05,0
1.899,-1.678e-07,0
1.8995,6.5461e-06,0
1.9,4.1962e-06,0
1.9005,3.8605e-06,0
1.901,3.1891e-06,0
1.9015,1.6785e-06,0
1.902,4.1962e-06,0
1.9025,-1.8463e-06,0
1.903,-8.5603e-06,0
1.9035,-6.2104e-06,0
1.904,-3.1891e-06,0
1.9045,-1.8463e-06,0
1.905,3.0213e-06,0
1.9055,9.0639e-06,0
1.906,1.5106e-05,0
1.9065,1.8967e-05,0
1.907,1.8631e-05,0
1.9075,1.9135e-05,0
1.908,2.1317e-05,0
1.9085,2.2492e-05,0
1.909,2.4002e-05,0
1.9095,3.0716e-05,0
1.91,3.743e-05,0
1.9105,3.5752e-05,0
1.911,2.8367e-05,0
1.9115,2.4674e-05,0
1.912,2.6352e-05,0
1.9125,2.7359e-05,0
1.913,2.7527e-05,0
1.9135,3.1052e-05,0
1.914,3.0381e-05,0
1.9145,3.4073e-05,0
1.915,4.5151e-05,0
1.9155,4.8844e-05,0
1.916,5.153e-05,0
1.9165,6.2944e-05,0
1.917,6.9657e-05,0
1.9175,6.949e-05,0
1.918,7.4693e-05,0
1.9185,7.9057e-05,0
1.919,7.9057e-05,0
1.9195,7.335e-05,0
1.92,6.2608e-05,0
1.9205,5.4887e-05,0
1.921,5.5894e-05,0
1.9215,5.6901e-05,0
1.922,5.0523e-05,0
1.9225,4.0116e-05,0
1.923,3.0716e-05,0
1.9235,2.0646e-05,0
1.924,1.1414e-05,0
1.9245,1.1582e-05,0
1.925,1.7121e-05,0
1.9255,1.4267e-05,0
1.926,8.5603e-06,0
1.9265,9.5674e-06,0
1.927,3.6927e-06,0
1.9275,-2.0142e-06,0
1.928,4.1962e-06,0
1.9285,9.7353e-06,0
1.929,1.2589e-05,0
1.9295,1.9974e-05,0
1.93,2.4338e-05,0
1.9305,2.6688e-05,0
1.931,3.1388e-05,0
1.9315,3.5752e-05,0
1.932,3.978e-05,0
1.9325,3.9445e-05,0
1.933,3.4409e-05,0
1.9335,3.0884e-05,0
1.934,2.9038e-05,0
1.9345,2.5177e-05,0
1.935,1.6617e-05,0
1.9355,9.9031e-06,0
1.936,6.8818e-06,0
1.9365,5.539e-06,0
1.937,6.5461e-06,0
1.9375,8.7282e-06,0
1.938,1.1582e-05,0
1.9385,9.2317e-06,0
1.939,1.0071e-05,0
1.9395,1.796e-05,0
1.94,1.5946e-05,0
1.9405,5.8747e-06,0
1.941,5.2033e-06,0
1.9415,6.2104e-06,0
1.942,9.2317e-06,0
1.9425,2.031e-05,0
1.943,2.6184e-05,0
1.9435,2.6017e-05,0
1.944,2.9374e-05,0
1.9445,2.7695e-05,0
1.945,1.4939e-05,0
1.9455,-8.392e-07,0
1.946,-8.896e-06,0
1.9465,-6.5461e-06,0
1.947,-1.5106e-06,0
1.9475,1.5106e-06,0
1.948,3.5248e-06,0
1.9485,5.2033e-06,0
1.949,1.8463e-06,0
1.9495,-8.896e-06,0
1.95,-2.1653e-05,0
1.9505,-2.8367e-05,0
1.951,-2.6352e-05,0
1.9515,-2.4002e-05,0
1.952,-2.1988e-05,0
1.9525,-1.5946e-05,0
1.953,-1.1917e-05,0
1.9535,-3.6927e-06,0
1.954,1.4267e-05,0
1.9545,2.9206e-05,0
1.955,3.1724e-05,0
1.9555,2.8367e-05,0
1.956,2.3835e-05,0
1.9565,2.9206e-05,0
1.957,4.683e-05,0
1.9575,5.8244e-05,0
1.958,5.5558e-05,0
1.9585,4.5823e-05,0
1.959,4.0787e-05,0
1.9595,3.8773e-05,0
1.96,3.508e-05,0
1.9605,3.0884e-05,0
1.961,2.7695e-05,0
1.9615,2.6688e-05,0
1.962,2.7192e-05,0
1.9625,3.0381e-05,0
1.963,3.3066e-05,0
1.9635,3.4073e-05,0
1.964,3.743e-05,0
1.9645,3.7766e-05,0
1.965,3.6088e-05,0
1.9655,3.8437e-05,0
1.966,3.1724e-05,0
1.9665,1.5946e-05,0
1.967,1.5106e-06,0
1.9675,-7.5532e-06,0
1.968,-6.8818e-06,0
1.9685,-1.6785e-06,0
1.969,-3.357e-06,0
1.9695,-2.8534e-06,0
1.97,7.0497e-06,0
1.9705,1.9303e-05,0
1.971,2.4002e-05,0
1.9715,2.031e-05,0
1.972,1.6617e-05,0
1.9725,1.7288e-05,0
1.973,1.9638e-05,0
1.9735,2.266e-05,0
1.974,2.5849e-05,0
1.9745,2.9374e-05,0
1.975,3.0381e-05,0
1.9755,2.7863e-05,0
1.976,2.3667e-05,0
1.9765,1.9638e-05,0
1.977,2.1988e-05,0
1.9775,2.1317e-05,0
1.978,1.796e-05,0
1.9785,2.6688e-05,0
1.979,3.2059e-05,0
1.9795,3.0045e-05,0
1.98,2.9038e-05,0
1.9805,2.6017e-05,0
1.981,2.3667e-05,0
1.9815,2.6017e-05,0
1.982,2.5009e-05,0
1.9825,2.2492e-05,0
1.983,2.6352e-05,0
1.9835,2.8031e-05,0
1.984,2.4338e-05,0
1.9845,2.1149e-05,0
1.985,2.417e-05,0
1.9855,2.6184e-05,0
1.986,2.0646e-05,0
1.9865,1.4267e-05,0
1.987,1.2757e-05,0
1.9875,1.4603e-05,0
1.988,1.4939e-05,0
1.9885,1.7624e-05,0
1.989,2.1653e-05,0
1.9895,2.3499e-05,0
1.99,2.6688e-05,0
1.9905,2.8702e-05,0
1.991,2.7863e-05,0
1.9915,3.122e-05,0
1.992,3.1388e-05,0
1.9925,2.7527e-05,0
1.993,2.8367e-05,0
1.9935,2.1317e-05,0
1.994,1.326e-05,0
1.9945,1.3596e-05,0
1.995,1.326e-05,0
1.9955,1.6785e-05,0
1.996,2.6017e-05,0
1.9965,3.2059e-05,0
1.997,3.3402e-05,0
1.9975,3.1388e-05,0
1.998,2.8031e-05,0
1.9985,2.9877e-05,0
1.999,3.3738e-05,0
1.9995,3.4073e-05,0
2,3.3066e-05,0
2.0005,3.4409e-05,0
2.001,3.6759e-05,0
2.0015,3.7934e-05,0
2.002,4.1123e-05,0
2.0025,4.9851e-05,0
2.003,6.1265e-05,0
2.0035,5.8579e-05,0
2.004,5.069e-05,0
2.0045,5.8915e-05,0
2.005,6.2776e-05,0
2.0055,5.2705e-05,0
2.006,4.7166e-05,0
2.0065,3.5584e-05,0
2.007,1.9974e-05,0
2.0075,1.5946e-05,0
2.008,1.1078e-05,0
2.0085,3.357e-07,0
2.009,-8.2246e-06,0
2.0095,-2.0142e-05,0
2.01,-3.4241e-05,0
2.0105,-4.1291e-05,0
2.011,-3.9445e-05,0
2.0115,-3.2563e-05,0
2.012,-2.5009e-05,0
2.0125,-2.182e-05,0
2.013,-1.9974e-05,0
2.0135,-1.326e-05,0
2.014,-9.9031e-06,0
2.0145,-1.1582e-05,0
2.015,-7.2175e-06,0
2.0155,-1.5106e-06,0
2.016,-4.3641e-06,0
2.0165,-1.4939e-05,0
2.017,-2.1317e-05,0
2.0175,-1.0239e-05,0
2.018,-1.1749e-06,0
2.0185,-1.0071e-06,0
2.019,1.5106e-06,0
2.0195,4.8676e-06,0
2.02,8.5603e-06,0
2.0205,1.5946e-05,0
2.021,1.4603e-05,0
2.0215,1.2757e-05,0
2.022,1.9638e-05,0
2.0225,2.8367e-05,0
2.023,3.508e-05,0
2.0235,3.743e-05,0
2.024,3.3906e-05,0
2.0245,3.1388e-05,0
2.025,3.2395e-05,0
2.0255,3.1388e-05,0
2.026,2.887e-05,0
2.0265,3.1556e-05,0
2.027,3.8102e-05,0
2.0275,4.0619e-05,0
2.028,3.7095e-05,0
2.0285,3.2059e-05,0
2.029,2.9709e-05,0
2.0295,2.7695e-05,0
2.03,2.8702e-05,0
2.0305,3.5752e-05,0
2.031,3.3066e-05,0
2.0315,2.887e-05,0
2.032,3.5752e-05,0
2.0325,3.8437e-05,0
2.033,3.508e-05,0
2.0335,3.4409e-05,0
2.034,2.7359e-05,0
2.0345,2.4506e-05,0
2.035,3.2731e-05,0
2.0355,3.8102e-05,0
2.036,3.978e-05,0
2.0365,4.2298e-05,0
2.037,4.2802e-05,0
2.0375,3.6759e-05,0
2.038,2.7527e-05,0
2.0385,2.2995e-05,0
2.039,2.6184e-05,0
2.0395,3.3234e-05,0
2.04,4.1291e-05,0
2.0405,4.9851e-05,0
2.041,5.8076e-05,0
2.0415,5.8915e-05,0
2.042,5.4215e-05,0
2.0425,4.683e-05,0
2.043,4.4816e-05,0
2.0435,4.8508e-05,0
2.044,3.9948e-05,0
2.0445,2.5345e-05,0
2.045,1.5274e-05,0
2.0455,0,0
2.046,-1.2253e-05,0
2.0465,-1.4603e-05,0
2.047,-2.0981e-05,0
2.0475,-3.0045e-05,0
2.048,-3.1388e-05,0
2.0485,-3.1891e-05,0
2.049,-3.0045e-05,0
2.0495,-2.8031e-05,0
2.05,-3.2731e-05,0
2.0505,-3.508e-05,0
2.051,-2.6856e-05,0
2.0515,-1.7624e-05,0
2.052,-1.6281e-05,0
2.0525,-1.3596e-05,0
2.053,-4.6998e-06,0
2.0535,6.5461e-06,0
2.054,1.9303e-05,0
2.0545,3.1052e-05,0
2.055,4.3977e-05,0
2.0555,5.0523e-05,0
2.056,5.2201e-05,0
2.0565,5.4048e-05,0
2.057,4.683e-05,0
2.0575,3.6927e-05,0
2.058,3.4409e-05,0
2.0585,3.3738e-05,0
2.059,3.6255e-05,0
2.0595,4.3473e-05,0
2.06,3.7095e-05,0
2.0605,2.5849e-05,0
2.061,2.5849e-05,0
2.0615,3.0716e-05,0
2.062,3.3906e-05,0
2.0625,3.3738e-05,0
2.063,3.1724e-05,0
2.0635,3.3738e-05,0
2.064,3.5416e-05,0
2.0645,3.1556e-05,0
2.065,2.5009e-05,0
2.0655,2.3835e-05,0
2.066,2.7359e-05,0
2.0665,2.5009e-05,0
2.067,1.796e-05,0
2.0675,7.2175e-06,0
2.068,-4.1962e-06,0
2.0685,-1.4267e-05,0
2.069,-2.031e-05,0
2.0695,-1.8463e-05,0
2.07,-1.8296e-05,0
2.0705,-1.6785e-05,0
2.071,-5.7069e-06,0
2.0715,-1.1749e-06,0
2.072,-7.2175e-06,0
2.0725,-8.2246e-06,0
2.073,-5.539e-06,0
2.0735,1.5106e-06,0
2.074,1.3092e-05,0
2.0745,1.796e-05,0
2.075,1.6281e-05,0
2.0755,1.4435e-05,0
2.076,1.5274e-05,0
2.0765,2.031e-05,0
2.077,2.4674e-05,0
2.0775,2.6688e-05,0
2.078,2.8031e-05,0
2.0785,2.8199e-05,0
2.079,2.7527e-05,0
2.0795,2.8367e-05,0
2.08,2.9877e-05,0
2.0805,3.0716e-05,0
2.081,3.2059e-05,0
2.0815,2.9374e-05,0
2.082,2.4002e-05,0
2.0825,3.0381e-05,0
2.083,4.1459e-05,0
2.0835,4.2802e-05,0
2.084,4.1459e-05,0
2.0845,3.592e-05,0
2.085,3.0045e-05,0
2.0855,2.9038e-05,0
2.086,2.031e-05,0
2.0865,1.2924e-05,0
2.087,1.6281e-05,0
2.0875,2.1317e-05,0
2.088,2.0981e-05,0
2.0885,2.5849e-05,0
2.089,3.9109e-05,0
2.0895,4.5151e-05,0
2.09,4.0619e-05,0
2.0905,3.7095e-05,0
2.091,3.7262e-05,0
2.0915,3.3738e-05,0
2.092,2.5681e-05,0
2.0925,2.5009e-05,0
2.093,3.3738e-05,0
2.0935,4.0452e-05,0
2.094,4.6494e-05,0
2.0945,4.2802e-05,0
2.095,2.7695e-05,0
2.0955,1.4939e-05,0
2.096,2.5177e-06,0
2.0965,-2.182e-06,0
2.097,1.0407e-05,0
2.0975,1.7792e-05,0
2.098,8.3925e-06,0
2.0985,4.0284e-06,0
2.099,3.0213e-06,0
2.0995,4.3641e-06,0
2.1,9.5674e-06,0
2.1005,1.1917e-05,0
2.101,7.2175e-06,0
2.1015,1.678e-07,0
2.102,-5.7069e-06,0
2.1025,-9.9031e-06,0
2.103,-1.0407e-05,0
2.1035,-1.0407e-05,0
2.104,-1.326e-05,0
2.1045,-9.0639e-06,0
2.105,4.1962e-06,0
2.1055,1.8631e-05,0
2.106,3.1556e-05,0
2.1065,4.5151e-05,0
2.107,5.6565e-05,0
2.1075,5.5055e-05,0
2.108,5.2033e-05,0
2.1085,6.2608e-05,0
2.109,6.7811e-05,0
2.1095,6.0594e-05,0
2.11,5.153e-05,0
2.1105,3.8773e-05,0
2.111,3.508e-05,0
2.1115,4.6494e-05,0
2.112,4.8508e-05,0
2.1125,3.508e-05,0
2.113,2.031e-05,0
2.1135,5.2033e-06,0
2.114,-8.896e-06,0
2.1145,-1.1917e-05,0
2.115,-7.7211e-06,0
2.1155,-3.0213e-06,0
2.116,1.8463e-06,0
2.1165,5.2033e-06,0
2.117,3.0213e-06,0
2.1175,-5.539e-06,0
2.118,-1.2757e-05,0
2.1185,-1.6953e-05,0
2.119,-1.3932e-05,0
2.1195,-7.8889e-06,0
2.12,0,0
2.1205,7.8889e-06,0
2.121,1.2421e-05,0
2.1215,2.7024e-05,0
2.122,4.1459e-05,0
2.1225,4.6494e-05,0
2.123,4.5991e-05,0
2.1235,3.3234e-05,0
2.124,2.4674e-05,0
2.1245,3.592e-05,0
2.125,4.2466e-05,0
2.1255,4.1795e-05,0
2.126,5.2201e-05,0
2.1265,6.9322e-05,0
2.127,8.3085e-05,0
2.1275,8.8792e-05,0
2.128,8.4093e-05,0
2.1285,7.1336e-05,0
2.129,5.3208e-05,0
2.1295,3.508e-05,0
2.13,2.1317e-05,0
2.1305,1.1246e-05,0
2.131,4.5319e-06,0
2.1315,-2.3499e-06,0
2.132,-9.9031e-06,0
2.1325,-9.7353e-06,0
2.133,-2.8534e-06,0
2.1335,-3.8605e-06,0
2.134,-9.2317e-06,0
2.1345,-7.3854e-06,0
2.135,-1.2421e-05,0
2.1355,-2.4506e-05,0
2.136,-2.4674e-05,0
2.1365,-1.8296e-05,0
2.137,-7.3854e-06,0
2.1375,7.8889e-06,0
2.138,1.1414e-05,0
2.1385,7.2175e-06,0
2.139,8.2246e-06,0
2.1395,1.3932e-05,0
2.14,1.7288e-05,0
2.1405,1.7288e-05,0
2.141,1.4771e-05,0
2.1415,1.3596e-05,0
2.142,1.9806e-05,0
2.1425,2.4002e-05,0
2.143,1.7456e-05,0
2.1435,5.2033e-06,0
2.144,-1.8463e-06,0
2.1445,1.1749e-06,0
2.145,6.5461e-06,0
2.1455,7.5532e-06,0
2.146,9.0639e-06,0
2.1465,5.2033e-06,0
2.147,-1.678e-07,0
2.1475,3.357e-06,0
2.148,1.1749e-06,0
2.1485,1.0071e-06,0
2.149,1.7121e-05,0
2.1495,3.0549e-05,0
2.15,3.5416e-05,0
2.1505,3.9445e-05,0
2.151,3.4745e-05,0
2.1515,2.6856e-05,0
2.152,2.266e-05,0
2.1525,1.9303e-05,0
2.153,1.8631e-05,0
2.1535,1.8463e-05,0
2.154,1.947e-05,0
2.1545,1.7624e-05,0
2.155,1.3932e-05,0
2.1555,1.2253e-05,0
2.156,1.0575e-05,0
2.1565,1.1078e-05,0
2.157,1.4603e-05,0
2.1575,1.9638e-05,0
2.158,2.0813e-05,0
2.1585,1.5778e-05,0
2.159,1.5106e-05,0
2.1595,1.5946e-05,0
2.16,1.4099e-05,0
2.1605,2.266e-05,0
2.161,3.4409e-05,0
2.1615,4.2466e-05,0
2.162,5.1362e-05,0
2.1625,5.2705e-05,0
2.163,4.6326e-05,0
2.1635,4.3977e-05,0
2.164,3.8437e-05,0
2.1645,2.9709e-05,0
2.165,2.6688e-05,0
2.1655,2.182e-05,0
2.166,1.6449e-05,0
2.1665,1.7288e-05,0
2.167,2.6017e-05,0
2.1675,3.3402e-05,0
2.168,3.2395e-05,0
2.1685,2.7024e-05,0
2.169,2.1317e-05,0
2.1695,1.5274e-05,0
2.17,1.8128e-05,0
2.1705,3.3402e-05,0
2.171,5.0187e-05,0
2.1715,6.0258e-05,0
2.172,6.8147e-05,0
2.1725,7.0497e-05,0
2.173,7.3518e-05,0
2.1735,7.8721e-05,0
2.174,7.0329e-05,0
2.1745,5.2872e-05,0
2.175,4.6998e-05,0
2.1755,4.1291e-05,0
2.176,3.2059e-05,0
2.1765,3.0716e-05,0
2.177,2.3667e-05,0
2.1775,1.6281e-05,0
2.178,1.6953e-05,0
2.1785,1.3596e-05,0
2.179,-2.3499e-06,0
2.1795,-2.266e-05,0
2.18,-3.1388e-05,0
2.1805,-2.4842e-05,0
2.181,-5.7069e-06,0
2.1815,1.9974e-05,0
2.182,4.0619e-05,0
2.1825,5.0523e-05,0
2.183,4.6494e-05,0
2.1835,3.2731e-05,0
2.184,2.0142e-05,0
2.1845,1.9303e-05,0
2.185,2.5849e-05,0
2.1855,2.6688e-05,0
2.186,2.5009e-05,0
2.1865,3.2563e-05,0
2.187,3.2059e-05,0
2.1875,2.031e-05,0
2.188,3.357e-06,0
2.1885,-1.9135e-05,0
2.189,-3.0045e-05,0
2.1895,-2.4674e-05,0
2.19,-2.5681e-05,0
2.1905,-3.3066e-05,0
2.191,-3.9445e-05,0
2.1915,-4.9348e-05,0
2.192,-5.9922e-05,0
2.1925,-5.8915e-05,0
2.193,-4.4648e-05,0
2.1935,-2.4338e-05,0
2.194,-6.714e-06,0
2.1945,1.8463e-06,0
2.195,7.5532e-06,0
2.1955,1.2253e-05,0
2.196,1.6617e-05,0
2.1965,1.8967e-05,0
2.197,2.1317e-05,0
2.1975,2.3163e-05,0
2.198,2.0813e-05,0
2.1985,8.896e-06,0
2.199,-6.5461e-06,0
2.1995,-3.357e-07,0
2.2,1.9135e-05,0
2.2005,3.508e-05,0
2.201,4.448e-05,0
2.2015,4.213e-05,0
2.202,4.1459e-05,0
2.2025,4.7837e-05,0
2.203,5.153e-05,0
2.2035,5.8915e-05,0
2.204,7.1672e-05,0
2.2045,7.7714e-05,0
2.205,8.2078e-05,0
2.2055,8.7785e-05,0
2.206,8.896e-05,0
2.2065,7.7714e-05,0
2.207,5.6733e-05,0
2.2075,4.0787e-05,0
2.208,3.6088e-05,0
2.2085,3.2059e-05,0
2.209,2.1317e-05,0
2.2095,4.1962e-06,0
2.21,-1.2253e-05,0
2.2105,-2.4338e-05,0
2.211,-2.8702e-05,0
2.2115,-3.7095e-05,0
2.212,-4.9348e-05,0
2.2125,-5.3376e-05,0
2.213,-5.6565e-05,0
2.2135,-6.2272e-05,0
2.214,-6.1097e-05,0
2.2145,-6.0594e-05,0
2.215,-5.7069e-05,0
2.2155,-4.1795e-05,0
2.216,-3.0549e-05,0
2.2165,-1.5106e-05,0
2.217,1.0575e-05,0
2.2175,2.6017e-05,0
2.218,3.0716e-05,0
2.2185,3.5248e-05,0
2.219,3.8773e-05,0
2.2195,4.2634e-05,0
2.22,4.6326e-05,0
2.2205,4.6662e-05,0
2.221,4.4144e-05,0
2.2215,4.6159e-05,0
2.222,5.2537e-05,0
2.2225,5.8747e-05,0
2.223,6.3279e-05,0
2.2235,6.4622e-05,0
2.224,6.5965e-05,0
2.2245,5.9587e-05,0
2.225,5.153e-05,0
2.2255,5.7069e-05,0
2.226,6.5629e-05,0
2.2265,6.63e-05,0
2.227,7.0664e-05,0
2.2275,7.1672e-05,0
2.228,6.3615e-05,0
2.2285,5.7237e-05,0
2.229,5.1698e-05,0
2.2295,5.1194e-05,0
2.23,5.4383e-05,0
2.2305,5.388e-05,0
2.231,4.8844e-05,0
2.2315,4.5151e-05,0
2.232,4.8341e-05,0
2.2325,5.4215e-05,0
2.233,5.388e-05,0
2.2335,5.3208e-05,0
2.234,5.3544e-05,0
2.2345,5.388e-05,0
2.235,4.5823e-05,0
2.2355,2.3667e-05,0
2.236,-8.7282e-06,0
2.2365,-4.1459e-05,0
2.237,-6.1433e-05,0
2.2375,-6.7979e-05,0
2.238,-7.2847e-05,0
2.2385,-7.4021e-05,0
2.239,-7.7714e-05,0
2.2395,-7.3014e-05,0
2.24,-5.069e-05,0
2.2405,-2.5009e-05,0
2.241,-6.5461e-06,0
2.2415,1.0575e-05,0
2.242,2.0981e-05,0
2.2425,2.7359e-05,0
2.243,3.3906e-05,0
2.2435,3.9109e-05,0
2.244,4.6326e-05,0
2.2445,5.2705e-05,0
2.245,5.0019e-05,0
2.2455,3.7262e-05,0
2.246,2.7024e-05,0
2.2465,2.5345e-05,0
2.247,3.3906e-05,0
2.2475,4.5991e-05,0
2.248,5.3544e-05,0
2.2485,5.6062e-05,0
2.249,5.4887e-05,0
2.2495,5.0019e-05,0
2.25,4.8173e-05,0
2.2505,4.4648e-05,0
2.251,3.4577e-05,0
2.2515,3.2395e-05,0
2.252,3.592e-05,0
2.2525,3.6423e-05,0
2.253,3.6088e-05,0
2.2535,2.9709e-05,0
2.254,2.4002e-05,0
2.2545,2.5681e-05,0
2.255,1.9974e-05,0
2.2555,1.6953e-05,0
2.256,2.3163e-05,0
2.2565,2.7695e-05,0
2.257,2.3331e-05,0
2.2575,1.2589e-05,0
2.258,-4.1962e-06,0
2.2585,-2.7024e-05,0
2.259,-4.7501e-05,0
2.2595,-4.5487e-05,0
2.26,-2.5681e-05,0
2.2605,-6.8818e-06,0
2.261,5.2033e-06,0
2.2615,1.2421e-05,0
2.262,1.8296e-05,0
2.2625,1.8296e-05,0
2.263,1.2924e-05,0
2.2635,1.8463e-06,0
2.264,-6.2104e-06,0
2.2645,-2.6856e-06,0
2.265,-1.1749e-06,0
2.2655,-7.5532e-06,0
2.266,-1.3092e-05,0
2.2665,-1.796e-05,0
2.267,-1.7456e-05,0
2.2675,-5.539e-06,0
2.268,1.6785e-06,0
2.2685,8.2246e-06,0
2.269,1.9638e-05,0
2.2695,2.8031e-05,0
2.27,2.9206e-05,0
2.2705,2.887e-05,0
2.271,3.0045e-05,0
2.2715,3.1388e-05,0
2.272,3.0381e-05,0
2.2725,2.7359e-05,0
2.273,2.7527e-05,0
2.2735,2.8702e-05,0
2.274,2.4002e-05,0
2.2745,1.7288e-05,0
2.275,1.3932e-05,0
2.2755,1.1749e-05,0
2.276,9.9031e-06,0
2.2765,5.539e-06,0
2.277,7.8889e-06,0
2.2775,2.4338e-05,0
2.278,3.508e-05,0
2.2785,3.6088e-05,0
2.279,3.9445e-05,0
2.2795,4.5151e-05,0
2.28,5.153e-05,0
2.2805,6.2272e-05,0
2.281,6.8482e-05,0
2.2815,7.0329e-05,0
2.282,7.6204e-05,0
2.2825,7.8386e-05,0
2.283,7.2007e-05,0
2.2835,6.2608e-05,0
2.284,5.4887e-05,0
2.2845,4.213e-05,0
2.285,2.5009e-05,0
2.2855,1.326e-05,0
2.286,1.2421e-05,0
2.2865,2.4506e-05,0
2.287,3.2059e-05,0
2.2875,2.2156e-05,0
2.288,7.3854e-06,0
2.2885,-1.6785e-06,0
2.289,-5.0355e-06,0
2.2895,-1.0071e-05,0
2.29,-1.3764e-05,0
2.2905,-1.0407e-05,0
2.291,-1.2253e-05,0
2.2915,-1.6281e-05,0
2.292,-1.0575e-05,0
2.2925,-7.8889e-06,0
2.293,-8.3925e-06,0
2.2935,1.0071e-06,0
2.294,8.0568e-06,0
2.2945,5.2033e-06,0
2.295,7.0497e-06,0
2.2955,1.6449e-05,0
2.296,3.2059e-05,0
2.2965,4.5487e-05,0
2.297,5.2872e-05,0
2.2975,5.623e-05,0
2.298,6.0258e-05,0
2.2985,6.7643e-05,0
2.299,6.9657e-05,0
2.2995,5.7572e-05,0
2.3,3.8773e-05,0
2.3005,2.7359e-05,0
2.301,2.5345e-05,0
2.3015,1.9303e-05,0
2.302,1.796e-05,0
2.3025,2.652e-05,0
2.303,3.2059e-05,0
2.3035,2.9206e-05,0
2.304,2.0646e-05,0
2.3045,2.1149e-05,0
2.305,4.3473e-05,0
2.3055,6.6468e-05,0
2.306,7.7714e-05,0
2.3065,7.2847e-05,0
2.307,5.0858e-05,0
2.3075,2.9709e-05,0
2.308,2.182e-05,0
2.3085,2.0813e-05,0
2.309,2.7359e-05,0
2.3095,3.592e-05,0
2.31,1.9135e-05,0
2.3105,-2.031e-05,0
2.311,-5.3544e-05,0
2.3115,-5.8747e-05,0
2.312,-4.2298e-05,0
2.3125,-2.8534e-05,0
2.313,-2.3667e-05,0
2.3135,-1.9303e-05,0
2.314,-2.1653e-05,0
2.3145,-3.7766e-05,0
2.315,-5.1194e-05,0
2.3155,-4.9012e-05,0
2.316,-3.122e-05,0
2.3165,-9.9031e-06,0
2.317,-6.2104e-06,0
2.3175,-1.8296e-05,0
2.318,-3.0716e-05,0
2.3185,-3.5416e-05,0
2.319,-2.7192e-05,0
2.3195,-1.2589e-05,0
2.32,-2.0142e-06,0
2.3205,1.1917e-05,0
2.321,3.0381e-05,0
2.3215,4.2802e-05,0
2.322,4.6662e-05,0
2.3225,4.2802e-05,0
2.323,3.743e-05,0
2.3235,3.3234e-05,0
2.324,3.2731e-05,0
2.3245,3.5752e-05,0
2.325,3.3402e-05,0
2.3255,3.1052e-05,0
2.326,3.7095e-05,0
2.3265,4.7501e-05,0
2.327,5.2705e-05,0
2.3275,5.4719e-05,0
2.328,6.1265e-05,0
2.3285,6.0258e-05,0
2.329,5.3544e-05,0
2.3295,5.153e-05,0
2.33,4.7837e-05,0
2.3305,4.4144e-05,0
2.331,4.5823e-05,0
2.3315,4.3641e-05,0
2.332,3.978e-05,0
2.3325,3.8773e-05,0
2.333,2.8534e-05,0
2.3335,1.4099e-05,0
2.334,1.0575e-05,0
2.3345,1.3092e-05,0
2.335,1.326e-05,0
2.3355,1.1246e-05,0
2.336,7.5532e-06,0
2.3365,5.539e-06,0
2.337,4.5319e-06,0
2.3375,5.8747e-06,0
2.338,1.1246e-05,0
2.3385,1.326e-05,0
2.339,1.1749e-05,0
2.3395,1.326e-05,0
2.34,1.8128e-05,0
2.3405,2.0981e-05,0
2.341,2.3331e-05,0
2.3415,2.8031e-05,0
2.342,3.3402e-05,0
2.3425,4.213e-05,0
2.343,4.1291e-05,0
2.3435,4.2802e-05,0
2.344,5.153e-05,0
2.3445,4.683e-05,0
2.345,3.4745e-05,0
2.3455,3.1891e-05,0
2.346,3.0045e-05,0
2.3465,3.0549e-05,0
2.347,3.743e-05,0
2.3475,3.8605e-05,0
2.348,3.4409e-05,0
2.3485,3.5248e-05,0
2.349,3.8605e-05,0
2.3495,4.5487e-05,0
2.35,5.4215e-05,0
2.3505,6.5965e-05,0
2.351,7.2679e-05,0
2.3515,6.5965e-05,0
2.352,4.213e-05,0
2.3525,1.4267e-05,0
2.353,-1.8463e-06,0
2.3535,-1.3428e-06,0
2.354,1.3596e-05,0
2.3545,1.1078e-05,0
2.355,-2.1317e-05,0
2.3555,-4.683e-05,0
2.356,-5.388e-05,0
2.3565,-5.4887e-05,0
2.357,-6.0426e-05,0
2.3575,-7.1168e-05,0
2.358,-7.1168e-05,0
2.3585,-5.5055e-05,0
2.359,-4.1962e-05,0
2.3595,-3.3066e-05,0
2.36,-1.6953e-05,0
2.3605,-5.2033e-06,0
2.361,-3.0213e-06,0
2.3615,-4.8676e-06,0
2.362,-1.2421e-05,0
2.3625,-1.9638e-05,0
2.363,-1.4267e-05,0
2.3635,3.8605e-06,0
2.364,2.2324e-05,0
2.3645,3.5584e-05,0
2.365,4.6998e-05,0
2.3655,5.7572e-05,0
2.366,6.0929e-05,0
2.3665,5.4215e-05,0
2.367,4.8508e-05,0
2.3675,4.1123e-05,0
2.368,3.3234e-05,0
2.3685,3.743e-05,0
2.369,3.7262e-05,0
2.3695,3.7262e-05,0
2.37,5.0523e-05,0
2.3705,5.8915e-05,0
2.371,6.1936e-05,0
2.3715,6.5629e-05,0
2.372,6.3615e-05,0
2.3725,6.8986e-05,0
2.373,8.7114e-05,0
2.3735,0.00010021,0
2.374,9.6178e-05,0
2.3745,8.3421e-05,0
2.375,7.57e-05,0
2.3755,7.0664e-05,0
2.376,5.1362e-05,0
2.3765,2.4002e-05,0
2.377,8.2246e-06,0
2.3775,3.8605e-06,0
2.378,3.1891e-06,0
2.3785,-2.8534e-06,0
2.379,-1.9638e-05,0
2.3795,-3.3738e-05,0
2.38,-2.8031e-05,0
2.3805,-5.8747e-06,0
2.381,2.2492e-05,0
2.3815,4.5319e-05,0
2.382,4.7501e-05,0
2.3825,4.213e-05,0
2.383,3.7095e-05,0
2.3835,1.0575e-05,0
2.384,-2.5009e-05,0
2.3845,-3.592e-05,0
2.385,-2.2995e-05,0
2.3855,-6.8818e-06,0
2.386,5.035e-07,0
2.3865,4.8676e-06,0
2.387,1.1078e-05,0
2.3875,1.1582e-05,0
2.388,6.5461e-06,0
2.3885,6.5461e-06,0
2.389,1.1414e-05,0
2.3895,1.4939e-05,0
2.39,1.6953e-05,0
2.3905,1.8631e-05,0
2.391,1.7121e-05,0
2.3915,9.5674e-06,0
2.392,2.5177e-06,0
2.3925,-2.8534e-06,0
2.393,-5.2033e-06,0
2.3935,-1.091e-05,0
2.394,-1.7792e-05,0
2.3945,-2.1485e-05,0
2.395,-2.8031e-05,0
2.3955,-3.3402e-05,0
2.396,-2.4674e-05,0
2.3965,-1.326e-05,0
2.397,-6.5461e-06,0
2.3975,3.5248e-06,0
2.398,1.326e-05,0
2.3985,2.1317e-05,0
2.399,2.8534e-05,0
2.3995,2.9374e-05,0
2.4,2.6688e-05,0
2.4005,2.5513e-05,0
2.401,2.4674e-05,0
2.4015,2.9374e-05,0
2.402,3.4745e-05,0
2.4025,3.743e-05,0
2.403,3.9109e-05,0
2.4035,3.7766e-05,0
2.404,3.6423e-05,0
2.4045,3.6255e-05,0
2.405,3.5416e-05,0
2.4055,3.592e-05,0
2.406,3.8437e-05,0
2.4065,3.8437e-05,0
2.407,3.827e-05,0
2.4075,4.3305e-05,0
2.408,4.2802e-05,0
2.4085,3.9612e-05,0
2.409,3.508e-05,0
2.4095,2.5849e-05,0
2.41,2.4674e-05,0
2.4105,3.3234e-05,0
2.411,3.0381e-05,0
2.4115,2.1988e-05,0
2.412,2.031e-05,0
2.4125,2.3667e-05,0
2.413,2.8031e-05,0
2.4135,3.1891e-05,0
2.414,3.3402e-05,0
2.4145,3.0045e-05,0
2.415,2.5009e-05,0
2.4155,2.1988e-05,0
2.416,2.3163e-05,0
2.4165,2.7024e-05,0
2.417,3.1388e-05,0
2.4175,3.4745e-05,0
2.418,3.8102e-05,0
2.4185,4.1795e-05,0
2.419,4.5319e-05,0
2.4195,4.213e-05,0
2.42,3.357e-05,0
2.4205,3.8605e-05,0
2.421,5.0187e-05,0
2.4215,6.2776e-05,0
2.422,7.8721e-05,0
2.4225,8.896e-05,0
2.423,8.5771e-05,0
2.4235,7.6875e-05,0
2.424,6.0426e-05,0
2.4245,4.2802e-05,0
2.425,3.3402e-05,0
2.4255,2.5345e-05,0
2.426,6.8818e-06,0
2.4265,-1.8631e-05,0
2.427,-3.978e-05,0
2.4275,-4.9515e-05,0
2.428,-5.388e-05,0
2.4285,-5.6062e-05,0
2.429,-5.388e-05,0
2.4295,-4.7333e-05,0
2.43,-3.8605e-05,0
2.4305,-2.0646e-05,0
2.431,8.2246e-06,0
2.4315,3.6927e-05,0
2.432,5.5894e-05,0
2.4325,5.8915e-05,0
2.433,5.069e-05,0
2.4335,4.3137e-05,0
2.434,3.1891e-05,0
2.4345,2.7359e-05,0
2.435,3.9948e-05,0
2.4355,4.2802e-05,0
2.436,2.8031e-05,0
2.4365,1.6953e-05,0
2.437,1.5106e-06,0
2.4375,-1.1917e-05,0
2.438,-1.0071e-05,0
2.4385,-6.3783e-06,0
2.439,-1.3092e-05,0
2.4395,-3.1724e-05,0
2.44,-4.3809e-05,0
2.4405,-3.978e-05,0
2.441,-2.417e-05,0
2.4415,-6.5461e-06,0
2.442,1.0575e-05,0
2.4425,2.1317e-05,0
2.443,2.0981e-05,0
2.4435,1.1246e-05,0
2.444,3.0213e-06,0
2.4445,4.8676e-06,0
2.445,1.6785e-05,0
2.4455,2.4002e-05,0
2.446,2.3331e-05,0
2.4465,3.1388e-05,0
2.447,4.448e-05,0
2.4475,5.4551e-05,0
2.448,5.2872e-05,0
2.4485,4.6494e-05,0
2.449,5.8244e-05,0
2.4495,9.7185e-05,0
2.45,0.00011867,0
2.4505,0.00011464,0
2.451,0.00010759,0
2.4515,9.8192e-05,0
2.452,8.04e-05,0
2.4525,4.9851e-05,0
2.453,1.8967e-05,0
2.4535,1.6785e-06,0
2.454,-1.6785e-06,0
2.4545,4.8676e-06,0
2.455,1.5106e-06,0
2.4555,-1.7792e-05,0
2.456,-3.508e-05,0
2.4565,-3.8605e-05,0
2.457,-3.0381e-05,0
2.4575,-1.8128e-05,0
2.458,-9.9031e-06,0
2.4585,-9.3996e-06,0
2.459,-1.0575e-05,0
2.4595,-5.539e-06,0
2.46,-3.1891e-06,0
2.4605,-3.0213e-06,0
2.461,3.0213e-06,0
2.4615,-1.1749e-06,0
2.462,-1.5946e-05,0
2.4625,-2.887e-05,0
2.463,-3.4745e-05,0
2.4635,-2.7024e-05,0
2.464,-1.3932e-05,0
2.4645,-9.0639e-06,0
2.465,-2.8534e-06,0
2.4655,9.7353e-06,0
2.466,2.0981e-05,0
2.4665,2.8367e-05,0
2.467,3.4241e-05,0
2.4675,3.7766e-05,0
2.468,4.1459e-05,0
2.4685,4.9515e-05,0
2.469,5.7404e-05,0
2.4695,5.3544e-05,0
2.47,3.2059e-05,0
2.4705,5.8747e-06,0
2.471,-5.539e-06,0
2.4715,-6.5461e-06,0
2.472,-8.896e-06,0
2.4725,-6.8818e-06,0
2.473,-2.8534e-06,0
2.4735,3.0213e-06,0
2.474,1.7288e-05,0
2.4745,2.5009e-05,0
2.475,2.9374e-05,0
2.4755,4.1123e-05,0
2.476,4.3809e-05,0
2.4765,4.4816e-05,0
2.477,6.0258e-05,0
2.4775,8.3589e-05,0
2.478,9.8192e-05,0
2.4785,0.00010222,0
2.479,9.4835e-05,0
2.4795,7.7714e-05,0
2.48,6.2944e-05,0
2.4805,5.6901e-05,0
2.481,5.623e-05,0
2.4815,5.3376e-05,0
2.482,4.4144e-05,0
2.4825,3.4577e-05,0
2.483,2.8367e-05,0
2.4835,1.3932e-05,0
2.484,-1.1582e-05,0
2.4845,-3.4073e-05,0
2.485,-3.6423e-05,0
2.4855,-1.4099e-05,0
2.486,5.2033e-06,0
2.4865,1.1246e-05,0
2.487,1.2924e-05,0
2.4875,8.5603e-06,0
2.488,1.8463e-06,0
2.4885,-1.5106e-06,0
2.489,-9.2317e-06,0
2.4895,-1.4771e-05,0
2.49,-1.7624e-05,0
2.4905,-2.7024e-05,0
2.491,-3.8773e-05,0
2.4915,-3.8102e-05,0
2.492,-1.9638e-05,0
2.4925,8.392e-07,0
2.493,1.1917e-05,0
2.4935,1.2253e-05,0
2.494,1.1917e-05,0
2.4945,1.7792e-05,0
2.495,2.7695e-05,0
2.4955,3.9277e-05,0
2.496,5.6733e-05,0
2.4965,6.8986e-05,0
2.497,6.8315e-05,0
2.4975,6.3951e-05,0
2.498,6.0258e-05,0
2.4985,6.009e-05,0
2.499,5.304e-05,0
2.4995,4.1123e-05,0
2.5,2.9709e-05,0
2.5005,9.9031e-06,0
2.501,-1.678e-07,0
2.5015,1.1414e-05,0
2.502,2.2995e-05,0
2.5025,3.2395e-05,0
2.503,4.2634e-05,0
2.5035,4.1123e-05,0
2.504,2.6688e-05,0
2.5045,1.1246e-05,0
2.505,8.392e-07,0
2.5055,-4.8676e-06,0
2.506,0,0
2.5065,1.0575e-05,0
2.507,1.326e-05,0
2.5075,3.0213e-06,0
2.508,-7.5532e-06,0
2.5085,-1.1917e-05,0
2.509,-1.3596e-05,0
2.5095,-1.3596e-05,0
2.51,-1.4603e-05,0
2.5105,-1.7288e-05,0
2.511,-1.4603e-05,0
2.5115,-6.714e-07,0
2.512,1.0239e-05,0
2.5125,1.5442e-05,0
2.513,2.0981e-05,0
2.5135,2.266e-05,0
2.514,2.5513e-05,0
2.5145,3.6423e-05,0
2.515,4.4144e-05,0
2.5155,4.5991e-05,0
2.516,4.8844e-05,0
2.5165,4.8676e-05,0
2.517,4.0116e-05,0
2.5175,3.7766e-05,0
2.518,5.4719e-05,0
2.5185,7.3182e-05,0
2.519,8.4093e-05,0
2.5195,9.5842e-05,0
2.52,0.00010726,0
2.5205,0.00011196,0
2.521,0.00010172,0
2.5215,7.9057e-05,0
2.522,5.5222e-05,0
2.5225,3.3402e-05,0
2.523,8.3925e-06,0
2.5235,-1.8296e-05,0
2.524,-4.0787e-05,0
2.5245,-5.4215e-05,0
2.525,-6.1936e-05,0
2.5255,-5.9754e-05,0
2.526,-4.9851e-05,0
2.5265,-5.5222e-05,0
2.527,-5.8244e-05,0
2.5275,-3.3738e-05,0
2.528,1.5106e-06,0
2.5285,3.122e-05,0
2.529,4.918e-05,0
2.5295,5.1362e-05,0
2.53,5.0858e-05,0
2.5305,5.3544e-05,0
2.531,4.8676e-05,0
2.5315,4.5823e-05,0
2.532,5.3544e-05,0
2.5325,5.1865e-05,0
2.533,2.7359e-05,0
2.5335,-8.2246e-06,0
2.534,-3.8773e-05,0
2.5345,-6.5629e-05,0
2.535,-8.9632e-05,0
2.5355,-0.00010306,0
2.536,-9.8695e-05,0
2.5365,-9.3828e-05,0
2.537,-8.7617e-05,0
2.5375,-6.0929e-05,0
2.538,-3.0045e-05,0
2.5385,-1.0575e-05,0
2.539,3.8605e-06,0
2.5395,1.0239e-05,0
2.54,1.4267e-05,0
2.5405,2.9374e-05,0
2.541,4.0787e-05,0
2.5415,4.7501e-05,0
2.542,5.6565e-05,0
2.5425,4.7669e-05,0
2.543,2.7359e-05,0
2.5435,1.5946e-05,0
2.544,2.1317e-05,0
2.5445,4.0116e-05,0
2.545,5.7404e-05,0
2.5455,5.9587e-05,0
2.546,4.9515e-05,0
2.5465,4.7501e-05,0
2.547,5.623e-05,0
2.5475,6.3951e-05,0
2.548,5.8915e-05,0
2.5485,4.9348e-05,0
2.549,5.0187e-05,0
2.5495,5.153e-05,0
2.55,4.5991e-05,0
2.5505,5.3544e-05,0
2.551,7.3686e-05,0
2.5515,9.4835e-05,0
2.552,0.00010423,0
2.5525,0.00010692,0
2.553,0.00011128,0
2.5535,0.00010625,0
2.554,8.6778e-05,0
2.5545,7.2679e-05,0
2.555,7.3014e-05,0
2.5555,6.4286e-05,0
2.556,3.978e-05,0
2.5565,1.5946e-05,0
2.557,-1.678e-07,0
2.5575,-1.3932e-05,0
2.558,-1.8463e-05,0
2.5585,-1.4939e-05,0
2.559,-1.7792e-05,0
2.5595,-2.6352e-05,0
2.56,-2.8702e-05,0
2.5605,-2.2995e-05,0
2.561,-2.4002e-05,0
2.5615,-3.357e-05,0
2.562,-3.7262e-05,0
2.5625,-2.4674e-05,0
2.563,-5.2033e-06,0
2.5635,7.0497e-06,0
2.564,5.035e-07,0
2.5645,-6.0426e-06,0
2.565,-2.182e-06,0
2.5655,5.035e-07,0
2.566,9.2317e-06,0
2.5665,2.8031e-05,0
2.567,3.8773e-05,0
2.5675,4.1123e-05,0
2.568,4.3473e-05,0
2.5685,4.9851e-05,0
2.569,5.3376e-05,0
2.5695,4.683e-05,0
2.57,3.4409e-05,0
2.5705,3.0716e-05,0
2.571,4.448e-05,0
2.5715,6.0594e-05,0
2.572,6.7308e-05,0
2.5725,6.8986e-05,0
2.573,6.5629e-05,0
2.5735,6.1601e-05,0
2.574,6.2608e-05,0
2.5745,6.7475e-05,0
2.575,6.1601e-05,0
2.5755,3.8605e-05,0
2.576,1.5106e-05,0
2.5765,1.1582e-05,0
2.577,9.5674e-06,0
2.5775,-1.6785e-06,0
2.578,-1.2589e-05,0
2.5785,-2.2324e-05,0
2.579,-3.508e-05,0
2.5795,-4.0619e-05,0
2.58,-4.1291e-05,0
2.5805,-3.4913e-05,0
2.581,-2.266e-05,0
2.5815,-1.5106e-05,0
2.582,-1.9638e-05,0
2.5825,-2.7359e-05,0
2.583,-1.8296e-05,0
2.5835,-7.5532e-06,0
2.584,-1.6953e-05,0
2.5845,-3.6591e-05,0
2.585,-5.2369e-05,0
2.5855,-6.3279e-05,0
2.586,-6.479e-05,0
2.5865,-5.1698e-05,0
2.587,-3.0213e-05,0
2.5875,-1.1917e-05,0
2.588,5.035e-07,0
2.5885,-4.8676e-06,0
2.589,-1.8296e-05,0
2.5895,-8.2246e-06,0
2.59,1.8463e-05,0
2.5905,4.0284e-05,0
2.591,5.3544e-05,0
2.5915,5.7237e-05,0
2.592,5.6733e-05,0
2.5925,6.4286e-05,0
2.593,6.8986e-05,0
2.5935,6.009e-05,0
2.594,3.8102e-05,0
2.5945,2.6017e-05,0
2.595,3.7598e-05,0
2.5955,6.009e-05,0
2.596,6.7811e-05,0
2.5965,4.0619e-05,0
2.597,-7.8889e-06,0
2.5975,-4.1627e-05,0
2.598,-4.7166e-05,0
2.5985,-3.122e-05,0
2.599,-2.182e-06,0
2.5995,3.5416e-05,0
2.6,6.3111e-05,0
2.6005,6.9993e-05,0
2.601,6.4958e-05,0
2.6015,6.0594e-05,0
2.602,6.2776e-05,0
2.6025,6.2776e-05,0
2.603,5.153e-05,0
2.6035,4.0116e-05,0
2.604,4.1459e-05,0
2.6045,4.3473e-05,0
2.605,3.743e-05,0
2.6055,3.6088e-05,0
2.606,3.9445e-05,0
2.6065,5.4048e-05,0
2.607,7.6371e-05,0
2.6075,9.0806e-05,0
2.608,9.8527e-05,0
2.6085,0.0001086,0
2.609,0.00011531,0
2.6095,0.00010356,0
2.61,6.4958e-05,0
2.6105,8.7282e-06,0
2.611,-3.0716e-05,0
2.6115,-3.5248e-05,0
2.612,-2.6184e-05,0
2.6125,-2.182e-05,0
2.613,-2.1653e-05,0
2.6135,-2.7024e-05,0
2.614,-2.5681e-05,0
2.6145,-1.6617e-05,0
2.615,-1.1246e-05,0
2.6155,-1.1078e-05,0
2.616,-1.6617e-05,0
2.6165,-1.2924e-05,0
2.617,1.3596e-05,0
2.6175,4.2802e-05,0
2.618,6.5629e-05,0
2.6185,7.7546e-05,0
2.619,7.1e-05,0
2.6195,6.4286e-05,0
2.62,6.865e-05,0
2.6205,7.1504e-05,0
2.621,6.2944e-05,0
2.6215,5.0019e-05,0
2.622,4.213e-05,0
2.6225,3.6927e-05,0
2.623,3.122e-05,0
2.6235,2.2324e-05,0
2.624,1.5946e-05,0
2.6245,1.5106e-05,0
2.625,2.0646e-05,0
2.6255,2.9709e-05,0
2.626,2.2324e-05,0
2.6265,-1.8463e-06,0
2.627,-2.5177e-06,0
2.6275,2.4506e-05,0
2.628,4.0452e-05,0
2.6285,3.3402e-05,0
2.629,1.6953e-05,0
2.6295,1.6617e-05,0
2.63,2.6688e-05,0
2.6305,2.0981e-05,0
2.631,8.896e-06,0
2.6315,-5.0355e-06,0
2.632,-3.4409e-05,0
2.6325,-5.6901e-05,0
2.633,-4.9683e-05,0
2.6335,-3.4241e-05,0
2.634,-2.6352e-05,0
2.6345,-1.5274e-05,0
2.635,3.0213e-06,0
2.6355,1.5946e-05,0
2.636,2.031e-05,0
2.6365,2.6017e-05,0
2.637,3.2563e-05,0
2.6375,3.0045e-05,0
2.638,1.8463e-05,0
2.6385,8.3925e-06,0
2.639,-6.714e-07,0
2.6395,-1.9974e-05,0
2.64,-3.7095e-05,0
2.6405,-4.213e-05,0
2.641,-2.887e-05,0
2.6415,0,0
2.642,2.5345e-05,0
2.6425,4.213e-05,0
2.643,5.8915e-05,0
2.6435,7.7211e-05,0
2.644,9.987e-05,0
2.6445,0.00012605,0
2.645,0.00012975,0
2.6455,0.00011901,0
2.646,0.00010709,0
2.6465,9.1142e-05,0
2.647,7.5868e-05,0
2.6475,6.5461e-05,0
2.648,4.9515e-05,0
2.6485,1.8631e-05,0
2.649,-1.7288e-05,0
2.6495,-3.7095e-05,0
2.65,-3.7095e-05,0
2.6505,-3.3738e-05,0
2.651,-4.3641e-05,0
2.6515,-7.1672e-05,0
2.652,-9.3156e-05,0
2.6525,-9.4499e-05,0
2.653,-8.7953e-05,0
2.6535,-8.0735e-05,0
2.654,-6.8818e-05,0
2.6545,-6.7979e-05,0
2.655,-9.4499e-05,0
2.6555,-0.00011733,0
2.656,-9.6178e-05,0
2.6565,-5.388e-05,0
2.657,-2.2995e-05,0
2.6575,-1.2253e-05,0
2.658,-1.8967e-05,0
2.6585,-1.7624e-05,0
2.659,3.5248e-06,0
2.6595,2.887e-05,0
2.66,4.5487e-05,0
2.6605,4.918e-05,0
2.661,3.8773e-05,0
2.6615,3.8102e-05,0
2.662,5.3544e-05,0
2.6625,6.6468e-05,0
2.663,6.2944e-05,0
2.6635,5.1194e-05,0
2.664,3.9109e-05,0
2.6645,3.2059e-05,0
2.665,3.0213e-05,0
2.6655,2.7695e-05,0
2.666,2.5513e-05,0
2.6665,2.0813e-05,0
2.667,1.8631e-05,0
2.6675,3.1052e-05,0
2.668,4.5487e-05,0
2.6685,5.5558e-05,0
2.669,6.949e-05,0
2.6695,7.6707e-05,0
2.67,7.7378e-05,0
2.6705,8.9799e-05,0
2.671,0.00010323,0
2.6715,0.00011128,0
2.672,0.00011447,0
2.6725,0.00010809,0
2.673,9.0974e-05,0
2.6735,6.8315e-05,0
2.674,4.9515e-05,0
2.6745,3.8102e-05,0
2.675,2.4002e-05,0
2.6755,9.7353e-06,0
2.676,6.2104e-06,0
2.6765,1.1414e-05,0
2.677,1.5106e-05,0
2.6775,2.8534e-06,0
2.678,-1.7288e-05,0
2.6785,-2.2156e-05,0
2.679,-6.5461e-06,0
2.6795,1.4603e-05,0
2.68,2.6017e-05,0
2.6805,3.1724e-05,0
2.681,2.3163e-05,0
2.6815,8.392e-07,0
2.682,-9.5674e-06,0
2.6825,-1.2757e-05,0
2.683,-1.1246e-05,0
2.6835,7.8889e-06,0
2.684,2.887e-05,0
2.6845,3.4073e-05,0
2.685,3.1388e-05,0
2.6855,3.3402e-05,0
2.686,4.1291e-05,0
2.6865,5.0858e-05,0
2.687,5.6062e-05,0
2.6875,5.0523e-05,0
2.688,3.7262e-05,0
2.6885,2.7695e-05,0
2.689,1.8967e-05,0
2.6895,1.1917e-05,0
2.69,2.0813e-05,0
2.6905,3.8941e-05,0
2.691,4.9012e-05,0
2.6915,5.7908e-05,0
2.692,6.6636e-05,0
2.6925,6.3615e-05,0
2.693,6.1265e-05,0
2.6935,8.1071e-05,0
2.694,0.00010524,0
2.6945,0.00011464,0
2.695,0.00010994,0
2.6955,9.0135e-05,0
2.696,6.5293e-05,0
2.6965,4.7501e-05,0
2.697,4.1123e-05,0
2.6975,4.5487e-05,0
2.698,4.683e-05,0
2.6985,2.5849e-05,0
2.699,-2.182e-06,0
2.6995,-4.5319e-06,0
2.7,1.9638e-05,0
2.7005,4.9515e-05,0
2.701,6.1601e-05,0
2.7015,5.3544e-05,0
2.702,4.8173e-05,0
2.7025,6.5797e-05,0
2.703,7.8721e-05,0
2.7035,4.4312e-05,0
2.704,-2.5009e-05,0
2.7045,-8.3085e-05,0
2.705,-0.00012522,0
2.7055,-0.000165,0
2.706,-0.00019084,0
2.7065,-0.00017339,0
2.707,-0.00013008,0
2.7075,-8.5435e-05,0
2.708,-4.9515e-05,0
2.7085,-4.5151e-05,0
2.709,-6.1601e-05,0
2.7095,-6.4622e-05,0
2.71,-5.9251e-05,0
2.7105,-5.4215e-05,0
2.711,-3.9948e-05,0
2.7115,-2.2324e-05,0
2.712,-1.4099e-05,0
2.7125,-2.2995e-05,0
2.713,-3.9948e-05,0
2.7135,-4.918e-05,0
2.714,-3.6423e-05,0
2.7145,-1.2253e-05,0
2.715,-4.6998e-06,0
2.7155,-1.7624e-05,0
2.716,-1.9974e-05,0
2.7165,-2.8534e-06,0
2.717,1.4603e-05,0
2.7175,1.6785e-05,0
2.718,1.5106e-06,0
2.7185,-2.031e-05,0
2.719,-1.1749e-05,0
2.7195,2.4674e-05,0
2.72,5.2537e-05,0
2.7205,7.6707e-05,0
2.721,0.00010709,0
2.7215,0.00012589,0
2.722,0.00013898,0
2.7225,0.00015291,0
2.723,0.00015224,0
2.7235,0.00013881,0
2.724,0.00012303,0
2.7245,0.00011397,0
2.725,0.00011263,0
2.7255,0.00010373,0
2.726,8.1743e-05,0
2.7265,4.3809e-05,0
2.727,-1.8463e-06,0
2.7275,-1.091e-05,0
2.728,3.5416e-05,0
2.7285,8.9632e-05,0
2.729,0.00010239,0
2.7295,8.4764e-05,0
2.73,7.8386e-05,0
2.7305,8.9128e-05,0
2.731,9.6513e-05,0
2.7315,8.4093e-05,0
2.732,6.2104e-05,0
2.7325,4.0116e-05,0
2.733,1.0071e-06,0
2.7335,-4.683e-05,0
2.734,-6.4622e-05,0
2.7345,-4.7333e-05,0
2.735,-2.0813e-05,0
2.7355,-1.2253e-05,0
2.736,-2.1149e-05,0
2.7365,-3.0381e-05,0
2.737,-3.7095e-05,0
2.7375,-4.4144e-05,0
2.738,-4.4984e-05,0
2.7385,-3.743e-05,0
2.739,-2.8199e-05,0
2.7395,-1.9303e-05,0
2.74,-6.714e-06,0
2.7405,1.2253e-05,0
2.741,3.4409e-05,0
2.7415,5.5894e-05,0
2.742,6.9993e-05,0
2.7425,7.1504e-05,0
2.743,5.8244e-05,0
2.7435,4.3977e-05,0
2.744,4.448e-05,0
2.7445,4.8173e-05,0
2.745,4.4144e-05,0
2.7455,3.7766e-05,0
2.746,9.9031e-06,0
2.7465,-3.0213e-05,0
2.747,-3.6255e-05,0
2.7475,-1.1246e-05,0
2.748,0,0
2.7485,-1.9974e-05,0
2.749,-4.4648e-05,0
2.7495,-4.5151e-05,0
2.75,-2.3163e-05,0
2.7505,-3.357e-07,0
2.751,9.2317e-06,0
2.7515,6.8818e-06,0
2.752,-3.6927e-06,0
2.7525,-7.7211e-06,0
2.753,5.8747e-06,0
2.7535,2.9709e-05,0
2.754,4.7166e-05,0
2.7545,4.213e-05,0
2.755,1.9974e-05,0
2.7555,7.2175e-06,0
2.756,2.3163e-05,0
2.7565,5.2033e-05,0
2.757,7.1336e-05,0
2.7575,7.2343e-05,0
2.758,7.0329e-05,0
2.7585,7.8386e-05,0
2.759,8.4932e-05,0
2.7595,8.1743e-05,0
2.76,8.0903e-05,0
2.7605,8.9464e-05,0
2.761,0.00011498,0
2.7615,0.00013848,0
2.762,0.0001368,0
2.7625,0.00012119,0
2.763,0.00010809,0
2.7635,9.9031e-05,0
2.764,9.0135e-05,0
2.7645,6.8986e-05,0
2.765,1.9303e-05,0
2.7655,-4.7501e-05,0
2.766,-0.00010574,0
2.7665,-0.00014452,0
2.767,-0.00015023,0
2.7675,-0.00012303,0
2.768,-9.1478e-05,0
2.7685,-7.5532e-05,0
2.769,-6.6804e-05,0
2.7695,-5.9587e-05,0
2.77,-6.1936e-05,0
2.7705,-7.3518e-05,0
2.771,-8.04e-05,0
2.7715,-7.2007e-05,0
2.772,-5.6565e-05,0
2.7725,-2.6688e-05,0
2.773,1.561e-05,0
2.7735,3.6088e-05,0
2.774,3.4241e-05,0
2.7745,3.7262e-05,0
2.775,3.5584e-05,0
2.7755,1.4603e-05,0
2.776,6.0426e-06,0
2.7765,3.8773e-05,0
2.777,8.4596e-05,0
2.7775,0.00010726,0
2.778,0.00010356,0
2.7785,8.2246e-05,0
2.779,4.8676e-05,0
2.7795,1.8967e-05,0
2.78,4.5319e-06,0
2.7805,1.326e-05,0
2.781,3.9277e-05,0
2.7815,4.9851e-05,0
2.782,3.3738e-05,0
2.7825,3.6927e-06,0
2.783,-1.5274e-05,0
2.7835,-1.326e-05,0
2.784,-5.539e-06,0
2.7845,-1.1917e-05,0
2.785,-3.0381e-05,0
2.7855,-4.1795e-05,0
2.786,-4.1291e-05,0
2.7865,-4.8005e-05,0
2.787,-5.153e-05,0
2.7875,-4.1123e-05,0
2.788,-3.9445e-05,0
2.7885,-4.1123e-05,0
2.789,-2.8367e-05,0
2.7895,-2.1653e-05,0
2.79,-3.0716e-05,0
2.7905,-3.4073e-05,0
2.791,-1.091e-05,0
2.7915,3.3234e-05,0
2.792,6.1936e-05,0
2.7925,6.2272e-05,0
2.793,5.3376e-05,0
2.7935,5.1194e-05,0
2.794,5.388e-05,0
2.7945,5.4215e-05,0
2.795,4.6159e-05,0
2.7955,2.0981e-05,0
2.796,-4.0284e-06,0
2.7965,-4.5319e-06,0
2.797,1.7121e-05,0
2.7975,5.5894e-05,0
2.798,8.191e-05,0
2.7985,8.2414e-05,0
2.799,8.0064e-05,0
2.7995,8.5435e-05,0
2.8,8.0903e-05,0
2.8005,5.8244e-05,0
2.801,4.5151e-05,0
2.8015,5.9419e-05,0
2.802,8.5771e-05,0
2.8025,0.00012136,0
2.803,0.00016432,0
2.8035,0.00017675,0
2.804,0.00011632,0
2.8045,1.796e-05,0
2.805,-3.6591e-05,0
2.8055,-3.5752e-05,0
2.806,-2.266e-05,0
2.8065,-2.8534e-06,0
2.807,3.5416e-05,0
2.8075,7.57e-05,0
2.808,8.8792e-05,0
2.8085,7.0664e-05,0
2.809,4.8508e-05,0
2.8095,2.7359e-05,0
2.81,-4.5319e-06,0
2.8105,-2.9038e-05,0
2.811,-3.7095e-05,0
2.8115,-3.3066e-05,0
2.812,-2.2492e-05,0
2.8125,-2.4506e-05,0
2.813,-2.8031e-05,0
2.8135,-1.9135e-05,0
2.814,-1.2421e-05,0
2.8145,-1.8463e-06,0
2.815,2.9038e-05,0
2.8155,6.8482e-05,0
2.816,0.00010726,0
2.8165,0.00014754,0
2.817,0.00018715,0
2.8175,0.00020729,0
2.818,0.00020125,0
2.8185,0.00018497,0
2.819,0.00016265,0
2.8195,0.00013545,0
2.82,9.3828e-05,0
2.8205,3.5416e-05,0
2.821,-3.0045e-05,0
2.8215,-8.5435e-05,0
2.822,-0.00012555,0
2.8225,-0.00016802,0
2.823,-0.00020746,0
2.8235,-0.00022643,0
2.824,-0.00020494,0
2.8245,-0.00015409,0
2.825,-0.00012673,0
2.8255,-0.00013227,0
2.826,-0.00012505,0
2.8265,-9.7185e-05,0
2.827,-8.5435e-05,0
2.8275,-0.00010491,0
2.828,-0.00011783,0
2.8285,-7.6036e-05,0
2.829,-1.1917e-05,0
2.8295,4.8676e-06,0
2.83,-7.8889e-06,0
2.8305,7.8889e-06,0
2.831,5.623e-05,0
2.8315,0.00010121,0
2.832,0.0001091,0
2.8325,8.3085e-05,0
2.833,5.069e-05,0
2.8335,2.4002e-05,0
2.834,9.2317e-06,0
2.8345,1.4435e-05,0
2.835,2.6688e-05,0
2.8355,1.4603e-05,0
2.836,-1.6953e-05,0
2.8365,-2.6352e-05,0
2.837,-7.3854e-06,0
2.8375,1.4435e-05,0
2.838,2.9038e-05,0
2.8385,4.0619e-05,0
2.839,5.5558e-05,0
2.8395,7.2679e-05,0
2.84,8.5603e-05,0
2.8405,0.00011061,0
2.841,0.00015341,0
2.8415,0.00018782,0
2.842,0.00020729,0
2.8425,0.00022811,0
2.843,0.00023952,0
2.8435,0.00022223,0
2.844,0.000189,0
2.8445,0.00016667,0
2.845,0.0001509,0
2.8455,0.00012538,0
2.846,9.4331e-05,0
2.8465,4.7837e-05,0
2.847,-5.6733e-05,0
2.8475,-0.00021267,0
2.848,-0.00029894,0
2.8485,-0.00025211,0
2.849,-0.00013713,0
2.8495,-3.6255e-05,0
2.85,1.4267e-05,0
2.8505,4.8173e-05,0
2.851,8.661e-05,0
2.8515,9.9199e-05,0
2.852,9.8527e-05,0
2.8525,0.00011263,0
2.853,0.00012001,0
2.8535,0.0001133,0
2.854,0.00010457,0
2.8545,9.1478e-05,0
2.855,6.2608e-05,0
2.8555,2.9206e-05,0
2.856,8.2246e-06,0
2.8565,-5.7069e-06,0
2.857,-1.0575e-05,0
2.8575,-9.0639e-06,0
2.858,-7.5532e-06,0
2.8585,-4.3641e-06,0
2.859,-9.5674e-06,0
2.8595,-1.9638e-05,0
2.86,-2.8702e-05,0
2.8605,-3.6591e-05,0
2.861,-3.8437e-05,0
2.8615,-3.9948e-05,0
2.862,-3.978e-05,0
2.8625,-3.7598e-05,0
2.863,-4.9851e-05,0
2.8635,-5.0019e-05,0
2.864,-1.1582e-05,0
2.8645,2.5345e-05,0
2.865,3.6088e-05,0
2.8655,4.8508e-05,0
2.866,7.2175e-05,0
2.8665,9.8192e-05,0
2.867,0.00010994,0
2.8675,0.00010793,0
2.868,9.0806e-05,0
2.8685,6.5293e-05,0
2.869,4.2634e-05,0
2.8695,3.6759e-05,0
2.87,5.3544e-05,0
2.8705,8.6778e-05,0
2.871,0.00011598,0
2.8715,0.00013227,0
2.872,0.00015459,0
2.8725,0.00018245,0
2.873,0.00019252,0
2.8735,0.00017993,0
2.874,0.00015492,0
2.8745,0.00011028,0
2.875,5.6901e-05,0
2.8755,3.0381e-05,0
2.876,2.2828e-05,0
2.8765,1.9303e-05,0
2.877,-5.2033e-06,0
2.8775,-9.2821e-05,0
2.878,-0.00023717,0
2.8785,-0.00037263,0
2.879,-0.00041643,0
2.8795,-0.00033201,0
2.88,-0.00019454,0
2.8805,-9.5171e-05,0
2.881,-4.3473e-05,0
2.8815,-7.2175e-06,0
2.882,1.326e-05,0
2.8825,1.5106e-06,0
2.883,-2.7695e-05,0
2.8835,-4.1795e-05,0
2.884,-2.7192e-05,0
2.8845,9.9031e-06,0
2.885,4.3809e-05,0
2.8855,5.3208e-05,0
2.886,4.9348e-05,0
2.8865,5.4551e-05,0
2.887,6.865e-05,0
2.8875,6.865e-05,0
2.888,4.8005e-05,0
2.8885,3.508e-05,0
2.889,6.0929e-05,0
2.8895,0.00012656,0
2.89,0.00019705,0
2.8905,0.00021334,0
2.891,0.00016013,0
2.8915,7.1e-05,0
2.892,-3.1388e-05,0
2.8925,-9.0135e-05,0
2.893,-4.7837e-05,0
2.8935,3.9109e-05,0
2.894,7.7714e-05,0
2.8945,3.1724e-05,0
2.895,-4.3977e-05,0
2.8955,-9.2821e-05,0
2.896,-9.8192e-05,0
2.8965,-5.8579e-05,0
2.897,-9.7353e-06,0
2.8975,-8.392e-07,0
2.898,-2.4674e-05,0
2.8985,-3.5248e-05,0
2.899,-1.1582e-05,0
2.8995,2.8702e-05,0
2.9,6.6636e-05,0
2.9005,8.2246e-05,0
2.901,7.57e-05,0
2.9015,5.6901e-05,0
2.902,2.3331e-05,0
2.9025,-1.0575e-05,0
2.903,-1.2924e-05,0
2.9035,1.4099e-05,0
2.904,5.0858e-05,0
2.9045,7.4861e-05,0
2.905,6.4286e-05,0
2.9055,3.3066e-05,0
2.906,-1.4603e-05,0
2.9065,-7.0329e-05,0
2.907,-9.366e-05,0
2.9075,-6.6636e-05,0
2.908,-4.0116e-05,0
2.9085,-3.8941e-05,0
2.909,-3.3738e-05,0
2.9095,-2.417e-05,0
2.91,-3.3402e-05,0
2.9105,-6.2104e-05,0
2.911,-6.4622e-05,0
2.9115,-2.1317e-05,0
2.912,3.3738e-05,0
2.9125,7.4189e-05,0
2.913,0.00010054,0
2.9135,0.00010507,0
2.914,9.4331e-05,0
2.9145,8.9464e-05,0
2.915,6.9993e-05,0
2.9155,3.7934e-05,0
2.916,2.5177e-05,0
2.9165,2.7359e-05,0
2.917,1.796e-05,0
2.9175,-2.3499e-05,0
2.918,-7.4021e-05,0
2.9185,-8.1407e-05,0
2.919,-4.4144e-05,0
2.9195,3.5248e-06,0
2.92,3.9948e-05,0
2.9205,6.009e-05,0
2.921,6.1265e-05,0
2.9215,4.6998e-05,0
2.922,4.2298e-05,0
2.9225,5.6733e-05,0
2.923,7.6204e-05,0
2.9235,8.3757e-05,0
2.924,6.8986e-05,0
2.9245,5.0187e-05,0
2.925,4.8676e-05,0
2.9255,5.8244e-05,0
2.926,6.8315e-05,0
2.9265,7.2007e-05,0
2.927,7.9057e-05,0
2.9275,0.00011061,0
2.928,0.00014821,0
2.9285,0.00017171,0
2.929,0.00017272,0
2.9295,0.00015325,0
2.93,0.00013613,0
2.9305,0.00012589,0
2.931,9.5171e-05,0
2.9315,5.6565e-05,0
2.932,1.9303e-05,0
2.9325,-5.069e-05,0
2.933,-0.00013596,0
2.9335,-0.00019756,0
2.934,-0.00021183,0
2.9345,-0.00013613,0
2.935,-2.3667e-05,0
2.9355,2.0813e-05,0
2.936,-1.1749e-06,0
2.9365,-2.1317e-05,0
2.937,-1.3596e-05,0
2.9375,1.3764e-05,0
2.938,3.2059e-05,0
2.9385,3.4913e-05,0
2.939,2.4002e-05,0
2.9395,-7.8889e-06,0
2.94,-5.0858e-05,0
2.9405,-8.1407e-05,0
2.941,-9.4835e-05,0
2.9415,-8.6946e-05,0
2.942,-6.714e-05,0
2.9425,-5.8915e-05,0
2.943,-5.3376e-05,0
2.9435,-3.7095e-05,0
2.944,-3.0213e-05,0
2.9445,-2.4674e-05,0
2.945,-1.091e-05,0
2.9455,5.0355e-06,0
2.946,2.266e-05,0
2.9465,4.5487e-05,0
2.947,5.7069e-05,0
2.9475,3.8773e-05,0
2.948,0,0
2.9485,-2.5009e-05,0
2.949,-3.2395e-05,0
2.9495,-4.3305e-05,0
2.95,-5.4551e-05,0
2.9505,-4.918e-05,0
2.951,-1.0071e-05,0
2.9515,4.3305e-05,0
2.952,7.0664e-05,0
2.9525,6.7643e-05,0
2.953,7.3686e-05,0
2.9535,0.00012035,0
2.954,0.00017809,0
2.9545,0.00021468,0
2.955,0.00023079,0
2.9555,0.00022307,0
2.956,0.00020729,0
2.9565,0.00020058,0
2.957,0.00018581,0
2.9575,0.00014737,0
2.958,8.5771e-05,0
2.9585,4.5319e-06,0
2.959,-5.4383e-05,0
2.9595,-5.2537e-05,0
2.96,-1.9638e-05,0
2.9605,-5.8747e-06,0
2.961,-9.2317e-06,0
2.9615,-7.5532e-06,0
2.962,-3.5248e-06,0
2.9625,-3.357e-07,0
2.963,3.1891e-06,0
2.9635,9.2317e-06,0
2.964,1.4603e-05,0
2.9645,1.2589e-05,0
2.965,-6.5461e-06,0
2.9655,-4.8173e-05,0
2.966,-5.2537e-05,0
2.9665,1.0239e-05,0
2.967,7.3014e-05,0
2.9675,8.896e-05,0
2.968,7.2679e-05,0
2.9685,5.623e-05,0
2.969,5.0355e-05,0
2.9695,4.6494e-05,0
2.97,4.2802e-05,0
2.9705,5.3544e-05,0
2.971,6.63e-05,0
2.9715,5.774e-05,0
2.972,3.7262e-05,0
2.9725,3.9277e-05,0
2.973,6.4286e-05,0
2.9735,7.0497e-05,0
2.974,3.6927e-05,0
2.9745,-1.5274e-05,0
2.975,-4.7166e-05,0
2.9755,-1.6281e-05,0
2.976,7.1336e-05,0
2.9765,0.00014754,0
2.977,0.0001744,0
2.9775,0.00017356,0
2.978,0.00016332,0
2.9785,0.00012572,0
2.979,6.7811e-05,0
2.9795,1.326e-05,0
2.98,-4.0619e-05,0
2.9805,-7.0329e-05,0
2.981,-5.8915e-05,0
2.9815,-4.8005e-05,0
2.982,-7.1839e-05,0
2.9825,-0.00012236,0
2.983,-0.00014536,0
2.9835,-9.1981e-05,0
2.984,-1.091e-05,0
2.9845,2.0142e-05,0
2.985,8.392e-07,0
2.9855,-1.2421e-05,0
2.986,1.1749e-06,0
2.9865,1.2253e-05,0
2.987,7.7211e-06,0
2.9875,8.3925e-06,0
2.988,1.8967e-05,0
2.9885,2.266e-05,0
2.989,1.4435e-05,0
2.9895,-1.0239e-05,0
2.99,-5.1698e-05,0
2.9905,-6.5965e-05,0
2.991,-2.887e-05,0
2.9915,-5.539e-06,0
2.992,-3.7766e-05,0
2.9925,-7.9057e-05,0
2.993,-0.00010021,0
2.9935,-0.00010675,0
2.994,-0.00012471,0
2.9945,-0.00017003,0
2.995,-0.00021418,0
2.9955,-0.0002041,0
2.996,-0.00015123,0
2.9965,-0.00011028,0
2.997,-9.7856e-05,0
2.9975,-9.1142e-05,0
2.998,-5.8244e-05,0
2.9985,-4.3641e-06,0
2.999,5.2872e-05,0
2.9995,9.4835e-05,0
3,0.00010105,0
3.0005,9.1646e-05,0
3.001,9.5506e-05,0
3.0015,0.00011867,0
3.002,0.00013797,0
3.0025,0.0001274,0
3.003,9.5506e-05,0
3.0035,7.335e-05,0
3.004,0.00010793,0
3.0045,0.00018111,0
3.005,0.00022408,0
3.0055,0.00022542,0
3.006,0.00021233,0
3.0065,0.0001697,0
3.007,9.0471e-05,0
3.0075,4.2466e-05,0
3.008,6.5629e-05,0
3.0085,0.00010558,0
3.009,0.00010658,0
3.0095,8.4428e-05,0
3.01,6.2944e-05,0
3.0105,4.1962e-05,0
3.011,2.652e-05,0
3.0115,2.0646e-05,0
3.012,2.1317e-05,0
3.0125,2.9542e-05,0
3.013,4.8844e-05,0
3.0135,6.4286e-05,0
3.014,5.8747e-05,0
3.0145,1.561e-05,0
3.015,-2.4674e-05,0
3.0155,-9.7353e-06,0
3.016,4.7837e-05,0
3.0165,0.00010457,0
3.017,0.00015157,0
3.0175,0.00016634,0
3.018,0.00011498,0
3.0185,2.9038e-05,0
3.019,-3.8941e-05,0
3.0195,-6.949e-05,0
3.02,-6.4118e-05,0
3.0205,-5.539e-05,0
3.021,-5.9251e-05,0
3.0215,-6.009e-05,0
3.022,-7.2007e-05,0
3.0225,-9.0974e-05,0
3.023,-0.00010021,0
3.0235,-9.5171e-05,0
3.024,-7.4021e-05,0
3.0245,-3.6759e-05,0
3.025,5.035e-07,0
3.0255,2.9206e-05,0
3.026,4.9348e-05,0
3.0265,5.8747e-05,0
3.027,6.2944e-05,0
3.0275,5.9922e-05,0
3.028,5.304e-05,0
3.0285,4.7501e-05,0
3.029,4.3473e-05,0
3.0295,3.3066e-05,0
3.03,2.8702e-05,0
3.0305,3.1052e-05,0
3.031,1.8799e-05,0
3.0315,-1.9303e-05,0
3.032,-8.04e-05,0
3.0325,-0.00012052,0
3.033,-0.00011968,0
3.0335,-9.5842e-05,0
3.034,-5.5222e-05,0
3.0345,3.8605e-06,0
3.035,4.2466e-05,0
3.0355,4.8005e-05,0
3.036,5.0858e-05,0
3.0365,5.9754e-05,0
3.037,6.9657e-05,0
3.0375,7.0329e-05,0
3.038,5.1865e-05,0
3.0385,2.0646e-05,0
3.039,-1.8463e-06,0
3.0395,-3.1891e-06,0
3.04,7.5532e-06,0
3.0405,9.9031e-06,0
3.041,-8.392e-07,0
3.0415,9.7353e-06,0
3.042,4.7669e-05,0
3.0425,8.2414e-05,0
3.043,0.00010105,0
3.0435,0.00011128,0
3.044,0.00012605,0
3.0445,0.0001519,0
3.045,0.00016164,0
3.0455,0.00013143,0
3.046,6.2944e-05,0
3.0465,-2.2828e-05,0
3.047,-0.00010138,0
3.0475,-0.00017037,0
3.048,-0.000189,0
3.0485,-0.00012656,0
3.049,-3.2395e-05,0
3.0495,2.2492e-05,0
3.05,1.6281e-05,0
3.0505,-2.0646e-05,0
3.051,-4.2466e-05,0
3.0515,-3.3906e-05,0
3.052,-1.5442e-05,0
3.0525,6.2104e-06,0
3.053,2.6017e-05,0
3.0535,2.8534e-05,0
3.054,9.3996e-06,0
3.0545,-2.6017e-05,0
3.055,-5.9419e-05,0
3.0555,-6.7308e-05,0
3.056,-5.1362e-05,0
3.0565,-4.4816e-05,0
3.057,-4.5823e-05,0
3.0575,-2.8031e-05,0
3.058,2.3499e-06,0
3.0585,4.1123e-05,0
3.059,8.1743e-05,0
3.0595,0.00010608,0
3.06,0.00011028,0
3.0605,9.5674e-05,0
3.061,7.2343e-05,0
3.0615,7.6204e-05,0
3.062,9.987e-05,0
3.0625,0.00011464,0
3.063,0.00010877,0
3.0635,7.6875e-05,0
3.064,3.743e-05,0
3.0645,3.2731e-05,0
3.065,3.3906e-05,0
3.0655,-1.2253e-05,0
3.066,-8.3421e-05,0
3.0665,-0.00013327,0
3.067,-0.00013562,0
3.0675,-7.6204e-05,0
3.068,-6.8818e-06,0
3.0685,2.6688e-05,0
3.069,5.0187e-05,0
3.0695,7.1672e-05,0
3.07,8.5771e-05,0
3.0705,9.987e-05,0
3.071,9.7353e-05,0
3.0715,8.3253e-05,0
3.072,7.3686e-05,0
3.0725,5.0523e-05,0
3.073,9.7353e-06,0
3.0735,-2.7024e-05,0
3.074,-7.4357e-05,0
3.0745,-0.00013277,0
3.075,-0.00013176,0
3.0755,-6.8315e-05,0
3.076,-1.678e-07,0
3.0765,2.8031e-05,0
3.077,8.392e-07,0
3.0775,-3.5416e-05,0
3.078,-2.2995e-05,0
3.0785,2.4002e-05,0
3.079,5.2872e-05,0
3.0795,3.508e-05,0
3.08,9.2317e-06,0
3.0805,3.6927e-06,0
3.081,1.7121e-05,0
3.0815,3.592e-05,0
3.082,5.0858e-05,0
3.0825,5.388e-05,0
3.083,5.8915e-05,0
3.0835,8.04e-05,0
3.084,9.601e-05,0
3.0845,9.2317e-05,0
3.085,7.8721e-05,0
3.0855,6.6972e-05,0
3.086,7.2175e-05,0
3.0865,8.1575e-05,0
3.087,7.3686e-05,0
3.0875,6.1936e-05,0
3.088,8.6778e-05,0
3.0885,0.00014099,0
3.089,0.00018883,0
3.0895,0.00020763,0
3.09,0.00019823,0
3.0905,0.00018648,0
3.091,0.00018279,0
3.0915,0.000166,0
3.092,0.00011632,0
3.0925,1.0071e-05,0
3.093,-0.0001566,0
3.0935,-0.00027645,0
3.094,-0.00024926,0
3.0945,-0.00013344,0
3.095,-4.6159e-05,0
3.0955,-3.6423e-05,0
3.096,-7.2343e-05,0
3.0965,-9.5842e-05,0
3.097,-9.1646e-05,0
3.0975,-6.4958e-05,0
3.098,-2.2156e-05,0
3.0985,1.6617e-05,0
3.099,4.4144e-05,0
3.0995,6.6468e-05,0
3.1,7.1672e-05,0
3.1005,6.3447e-05,0
3.101,4.7837e-05,0
