0,0,0
0.0005,0,0
0.001,0,0
0.0015,0,0
0.002,0,0
0.0025,0,0
0.003,0,0
0.0035,0,0
0.004,0,0
0.0045,0,0
0.005,0,0
0.0055,0,0
0.006,0,0
0.0065,0,0
0.007,0,0
0.0075,0,0
0.008,0,0
0.0085,0,0
0.009,0,0
0.0095,0,0
0.01,0,0
0.0105,0,0
0.011,0,0
0.0115,0,0
0.012,0,0
0.0125,0,0
0.013,0,0
0.0135,0,0
0.014,0,0
0.0145,0,0
0.015,0,0
0.0155,0,0
0.016,0,0
0.0165,0,0
0.017,0,0
0.0175,0,0
0.018,0,0
0.0185,0,0
0.019,0,0
0.0195,0,0
0.02,0,0
0.0205,0,0
0.021,0,0
0.0215,0,0
0.022,0,0
0.0225,0,0
0.023,0,0
0.0235,0,0
0.024,0,0
0.0245,0,0
0.025,0,0
0.0255,0,0
0.026,0,0
0.0265,0,0
0.027,0,0
0.0275,0,0
0.028,0,0
0.0285,0,0
0.029,0,0
0.0295,0,0
0.03,0,0
0.0305,0,0
0.031,0,0
0.0315,0,0
0.032,0,0
0.0325,0,0
0.033,0,0
0.0335,0,0
0.034,0,0
0.0345,0,0
0.035,0,0
0.0355,0,0
0.036,0,0
0.0365,0,0
0.037,0,0
0.0375,0,0
0.038,0,0
0.0385,0,0
0.039,1.1246e-05,0
0.0395,5.7069e-06,0
0.04,1.8463e-06,0
0.0405,2.5177e-06,0
0.041,4.6998e-06,0
0.0415,6.2104e-06,0
0.042,7.3854e-06,0
0.0425,8.896e-06,0
0.043,9.5674e-06,0
0.0435,9.5674e-06,0
0.044,1.1749e-05,0
0.0445,1.4603e-05,0
0.045,1.6953e-05,0
0.0455,1.9135e-05,0
0.046,1.8631e-05,0
0.0465,1.4939e-05,0
0.047,1.1414e-05,0
0.0475,1.0239e-05,0
0.048,1.1917e-05,0
0.0485,1.4603e-05,0
0.049,1.6449e-05,0
0.0495,1.7288e-05,0
0.05,1.7624e-05,0
0.0505,1.6953e-05,0
0.051,1.6617e-05,0
0.0515,2.031e-05,0
0.052,2.5513e-05,0
0.0525,2.7695e-05,0
0.053,2.4506e-05,0
0.0535,1.9638e-05,0
0.054,1.6953e-05,0
0.0545,1.9303e-05,0
0.055,2.3163e-05,0
0.0555,2.7527e-05,0
0.056,3.0045e-05,0
0.0565,2.7024e-05,0
0.057,2.3163e-05,0
0.0575,2.266e-05,0
0.058,2.4506e-05,0
0.0585,2.6017e-05,0
0.059,2.5345e-05,0
0.0595,2.4842e-05,0
0.06,2.2995e-05,0
0.0605,1.8463e-05,0
0.061,1.2253e-05,0
0.0615,7.5532e-06,0
0.062,7.5532e-06,0
0.0625,1.1582e-05,0
0.063,1.7121e-05,0
0.0635,1.9974e-05,0
0.064,2.0646e-05,0
0.0645,2.1988e-05,0
0.065,2.5177e-05,0
0.0655,2.9374e-05,0
0.066,3.4241e-05,0
0.0665,3.7095e-05,0
0.067,3.4745e-05,0
0.0675,3.0381e-05,0
0.068,2.7192e-05,0
0.0685,2.5849e-05,0
0.069,2.3835e-05,0
0.0695,2.1317e-05,0
0.07,2.1317e-05,0
0.0705,2.3163e-05,0
0.071,2.3835e-05,0
0.0715,2.031e-05,0
0.072,1.4435e-05,0
0.0725,1.1582e-05,0
0.073,1.5778e-05,0
0.0735,2.266e-05,0
0.074,2.5345e-05,0
0.0745,2.3499e-05,0
0.075,2.2324e-05,0
0.0755,2.0646e-05,0
0.076,1.6114e-05,0
0.0765,1.0575e-05,0
0.077,9.9031e-06,0
0.0775,1.2757e-05,0
0.078,1.4267e-05,0
0.0785,1.326e-05,0
0.079,1.3932e-05,0
0.0795,1.6953e-05,0
0.08,1.9806e-05,0
0.0805,1.8296e-05,0
0.081,1.4267e-05,0
0.0815,1.2924e-05,0
0.082,1.326e-05,0
0.0825,1.2924e-05,0
0.083,1.1582e-05,0
0.0835,1.1078e-05,0
0.084,1.1749e-05,0
0.0845,1.561e-05,0
0.085,1.9303e-05,0
0.0855,1.9806e-05,0
0.086,2.0646e-05,0
0.0865,2.1317e-05,0
0.087,1.9303e-05,0
0.0875,1.9135e-05,0
0.088,2.2492e-05,0
0.0885,2.4674e-05,0
0.089,2.2995e-05,0
0.0895,2.031e-05,0
0.09,1.8296e-05,0
0.0905,1.6617e-05,0
0.091,1.6785e-05,0
0.0915,1.7288e-05,0
0.092,1.8296e-05,0
0.0925,1.8799e-05,0
0.093,1.8296e-05,0
0.0935,1.5778e-05,0
0.094,1.1749e-05,0
0.0945,9.2317e-06,0
0.095,1.0575e-05,0
0.0955,1.4603e-05,0
0.096,1.7288e-05,0
0.0965,1.8631e-05,0
0.097,1.9135e-05,0
0.0975,1.9974e-05,0
0.098,2.0646e-05,0
0.0985,2.031e-05,0
0.099,1.8967e-05,0
0.0995,1.6617e-05,0
0.1,1.6953e-05,0
0.1005,1.6449e-05,0
0.101,1.4603e-05,0
0.1015,1.326e-05,0
0.102,1.4267e-05,0
0.1025,1.6617e-05,0
0.103,1.7792e-05,0
0.1035,1.6953e-05,0
0.104,1.5946e-05,0
0.1045,1.7288e-05,0
0.105,1.7288e-05,0
0.1055,1.326e-05,0
0.106,8.5603e-06,0
0.1065,8.7282e-06,0
0.107,1.2589e-05,0
0.1075,1.4603e-05,0
0.108,1.4435e-05,0
0.1085,1.5106e-05,0
0.109,1.6785e-05,0
0.1095,1.8967e-05,0
0.11,1.9974e-05,0
0.1105,2.1653e-05,0
0.111,2.4842e-05,0
0.1115,2.7192e-05,0
0.112,2.9374e-05,0
0.1125,3.0381e-05,0
0.113,2.7359e-05,0
0.1135,2.3667e-05,0
0.114,2.0478e-05,0
0.1145,1.8296e-05,0
0.115,1.8631e-05,0
0.1155,1.796e-05,0
0.116,1.5274e-05,0
0.1165,1.2589e-05,0
0.117,1.0575e-05,0
0.1175,1.0239e-05,0
0.118,8.896e-06,0
0.1185,7.8889e-06,0
0.119,9.5674e-06,0
0.1195,1.6449e-05,0
0.12,2.6352e-05,0
0.1205,3.3066e-05,0
0.121,3.4409e-05,0
0.1215,3.2563e-05,0
0.122,3.1724e-05,0
0.1225,3.6088e-05,0
0.123,4.0787e-05,0
0.1235,4.0452e-05,0
0.124,3.592e-05,0
0.1245,3.0549e-05,0
0.125,2.5681e-05,0
0.1255,2.1317e-05,0
0.126,1.8631e-05,0
0.1265,1.7624e-05,0
0.127,1.6449e-05,0
0.1275,1.5274e-05,0
0.128,1.4939e-05,0
0.1285,1.4267e-05,0
0.129,1.4099e-05,0
0.1295,1.3596e-05,0
0.13,1.326e-05,0
0.1305,1.2589e-05,0
0.131,1.0575e-05,0
0.1315,9.2317e-06,0
0.132,6.2104e-06,0
0.1325,5.2033e-06,0
0.133,9.9031e-06,0
0.1335,1.4939e-05,0
0.134,1.5946e-05,0
0.1345,1.4435e-05,0
0.135,1.4603e-05,0
0.1355,1.7624e-05,0
0.136,2.1653e-05,0
0.1365,2.5345e-05,0
0.137,2.9877e-05,0
0.1375,3.6927e-05,0
0.138,4.1627e-05,0
0.1385,4.0452e-05,0
0.139,3.7095e-05,0
0.1395,3.5248e-05,0
0.14,3.2059e-05,0
0.1405,2.4674e-05,0
0.141,1.5442e-05,0
0.1415,1.2757e-05,0
0.142,1.7288e-05,0
0.1425,2.031e-05,0
0.143,2.1317e-05,0
0.1435,2.2156e-05,0
0.144,2.266e-05,0
0.1445,2.266e-05,0
0.145,2.1317e-05,0
0.1455,2.031e-05,0
0.146,2.1317e-05,0
0.1465,2.3331e-05,0
0.147,2.7024e-05,0
0.1475,2.8031e-05,0
0.148,2.5345e-05,0
0.1485,2.1149e-05,0
0.149,1.7792e-05,0
0.1495,1.7792e-05,0
0.15,1.8967e-05,0
0.1505,1.6953e-05,0
0.151,1.4435e-05,0
0.1515,1.5946e-05,0
0.152,1.7288e-05,0
0.1525,1.561e-05,0
0.153,1.4603e-05,0
0.1535,1.6281e-05,0
0.154,1.6785e-05,0
0.1545,1.5778e-05,0
0.155,1.5946e-05,0
0.1555,1.5106e-05,0
0.156,1.3764e-05,0
0.1565,1.326e-05,0
0.157,1.2589e-05,0
0.1575,1.2589e-05,0
0.158,1.3092e-05,0
0.1585,1.3932e-05,0
0.159,1.2924e-05,0
0.1595,1.0239e-05,0
0.16,8.896e-06,0
0.1605,7.5532e-06,0
0.161,6.2104e-06,0
0.1615,8.5603e-06,0
0.162,1.1917e-05,0
0.1625,1.2589e-05,0
0.163,1.2421e-05,0
0.1635,1.2253e-05,0
0.164,1.3092e-05,0
0.1645,1.1078e-05,0
0.165,7.8889e-06,0
0.1655,5.8747e-06,0
0.166,5.8747e-06,0
0.1665,7.8889e-06,0
0.167,1.1917e-05,0
0.1675,1.5946e-05,0
0.168,1.5946e-05,0
0.1685,1.3932e-05,0
0.169,1.2253e-05,0
0.1695,1.1917e-05,0
0.17,1.1078e-05,0
0.1705,1.1917e-05,0
0.171,1.6281e-05,0
0.1715,2.0813e-05,0
0.172,2.0646e-05,0
0.1725,1.7288e-05,0
0.173,1.5946e-05,0
0.1735,1.796e-05,0
0.174,2.031e-05,0
0.1745,2.266e-05,0
0.175,2.4002e-05,0
0.1755,2.4674e-05,0
0.176,2.4338e-05,0
0.1765,2.4842e-05,0
0.177,2.4506e-05,0
0.1775,2.2324e-05,0
0.178,2.1988e-05,0
0.1785,2.3835e-05,0
0.179,2.5345e-05,0
0.1795,2.8031e-05,0
0.18,3.1724e-05,0
0.1805,3.3402e-05,0
0.181,3.3906e-05,0
0.1815,3.1388e-05,0
0.182,2.7024e-05,0
0.1825,2.3499e-05,0
0.183,2.182e-05,0
0.1835,2.0646e-05,0
0.184,1.9303e-05,0
0.1845,1.7288e-05,0
0.185,1.4435e-05,0
0.1855,1.326e-05,0
0.186,1.5274e-05,0
0.1865,1.9303e-05,0
0.187,2.0646e-05,0
0.1875,1.8967e-05,0
0.188,1.6617e-05,0
0.1885,1.6785e-05,0
0.189,1.8463e-05,0
0.1895,2.1653e-05,0
0.19,2.2995e-05,0
0.1905,2.0478e-05,0
0.191,1.6953e-05,0
0.1915,1.561e-05,0
0.192,1.326e-05,0
0.1925,1.0575e-05,0
0.193,1.0239e-05,0
0.1935,1.2757e-05,0
0.194,1.3932e-05,0
0.1945,1.1582e-05,0
0.195,9.7353e-06,0
0.1955,1.1582e-05,0
0.196,1.5946e-05,0
0.1965,1.9974e-05,0
0.197,2.0142e-05,0
0.1975,1.9303e-05,0
0.198,1.7792e-05,0
0.1985,1.7288e-05,0
0.199,1.8128e-05,0
0.1995,1.8631e-05,0
0.2,1.7288e-05,0
0.2005,1.6281e-05,0
0.201,1.7792e-05,0
0.2015,2.0478e-05,0
0.202,2.1988e-05,0
0.2025,2.266e-05,0
0.203,2.4002e-05,0
0.2035,2.6017e-05,0
0.204,2.8031e-05,0
0.2045,2.7863e-05,0
0.205,2.8367e-05,0
0.2055,2.8702e-05,0
0.206,2.6184e-05,0
0.2065,2.1317e-05,0
0.207,1.8463e-05,0
0.2075,1.7624e-05,0
0.208,1.561e-05,0
0.2085,1.2589e-05,0
0.209,1.326e-05,0
0.2095,1.5106e-05,0
0.21,1.4939e-05,0
0.2105,1.4267e-05,0
0.211,1.4435e-05,0
0.2115,1.3932e-05,0
0.212,1.2589e-05,0
0.2125,8.5603e-06,0
0.213,6.3783e-06,0
0.2135,7.2175e-06,0
0.214,1.0575e-05,0
0.2145,1.5442e-05,0
0.215,1.9135e-05,0
0.2155,1.8967e-05,0
0.216,1.6281e-05,0
0.2165,1.326e-05,0
0.217,1.2589e-05,0
0.2175,1.3092e-05,0
0.218,1.0407e-05,0
0.2185,7.8889e-06,0
0.219,8.2246e-06,0
0.2195,1.0575e-05,0
0.22,1.2085e-05,0
0.2205,1.1917e-05,0
0.221,9.2317e-06,0
0.2215,1.0239e-05,0
0.222,1.561e-05,0
0.2225,1.8967e-05,0
0.223,1.9638e-05,0
0.2235,2.0478e-05,0
0.224,2.1149e-05,0
0.2245,2.2995e-05,0
0.225,2.5345e-05,0
0.2255,2.7192e-05,0
0.226,2.7024e-05,0
0.2265,2.652e-05,0
0.227,2.6352e-05,0
0.2275,2.6352e-05,0
0.228,2.6688e-05,0
0.2285,2.4674e-05,0
0.229,2.4338e-05,0
0.2295,2.5681e-05,0
0.23,2.3667e-05,0
0.2305,2.0478e-05,0
0.231,1.9303e-05,0
0.2315,1.5946e-05,0
0.232,1.1246e-05,0
0.2325,7.2175e-06,0
0.233,7.8889e-06,0
0.2335,1.3092e-05,0
0.234,1.6953e-05,0
0.2345,1.8967e-05,0
0.235,1.9974e-05,0
0.2355,1.9135e-05,0
0.236,1.6281e-05,0
0.2365,1.7624e-05,0
0.237,2.1317e-05,0
0.2375,2.4338e-05,0
0.238,2.7863e-05,0
0.2385,3.1388e-05,0
0.239,3.3066e-05,0
0.2395,3.0045e-05,0
0.24,2.7024e-05,0
0.2405,2.8031e-05,0
0.241,2.8534e-05,0
0.2415,2.6184e-05,0
0.242,2.1988e-05,0
0.2425,2.1149e-05,0
0.243,1.9135e-05,0
0.2435,1.5274e-05,0
0.244,1.4267e-05,0
0.2445,1.5106e-05,0
0.245,1.4267e-05,0
0.2455,1.2421e-05,0
0.246,1.1917e-05,0
0.2465,1.2589e-05,0
0.247,1.0071e-05,0
0.2475,7.2175e-06,0
0.248,6.8818e-06,0
0.2485,8.7282e-06,0
0.249,7.5532e-06,0
0.2495,3.6927e-06,0
0.25,5.035e-07,0
0.2505,1.1749e-06,0
0.251,4.6998e-06,0
0.2515,8.2246e-06,0
0.252,1.4771e-05,0
0.2525,2.4338e-05,0
0.253,3.1556e-05,0
0.2535,3.4745e-05,0
0.254,3.6927e-05,0
0.2545,4.0116e-05,0
0.255,4.3305e-05,0
0.2555,4.4816e-05,0
0.256,4.6159e-05,0
0.2565,5.0019e-05,0
0.257,5.2705e-05,0
0.2575,4.8844e-05,0
0.258,3.9612e-05,0
0.2585,3.0381e-05,0
0.259,2.5009e-05,0
0.2595,2.2995e-05,0
0.26,1.9303e-05,0
0.2605,1.3596e-05,0
0.261,8.3925e-06,0
0.2615,5.2033e-06,0
0.262,4.8676e-06,0
0.2625,5.539e-06,0
0.263,7.2175e-06,0
0.2635,1.0071e-05,0
0.264,1.2924e-05,0
0.2645,1.2589e-05,0
0.265,1.1414e-05,0
0.2655,9.9031e-06,0
0.266,1.091e-05,0
0.2665,1.5946e-05,0
0.267,2.1988e-05,0
0.2675,2.3667e-05,0
0.268,1.9638e-05,0
0.2685,1.4939e-05,0
0.269,1.2924e-05,0
0.2695,1.3932e-05,0
0.27,1.7121e-05,0
0.2705,1.9303e-05,0
0.271,1.9638e-05,0
0.2715,1.9974e-05,0
0.272,1.9638e-05,0
0.2725,1.8463e-05,0
0.273,1.6449e-05,0
0.2735,1.4939e-05,0
0.274,1.4267e-05,0
0.2745,1.6281e-05,0
0.275,1.9638e-05,0
0.2755,2.0646e-05,0
0.276,1.9303e-05,0
0.2765,1.8967e-05,0
0.277,1.8631e-05,0
0.2775,1.8631e-05,0
0.278,1.9806e-05,0
0.2785,1.8631e-05,0
0.279,1.5946e-05,0
0.2795,1.5274e-05,0
0.28,1.3932e-05,0
0.2805,1.2924e-05,0
0.281,1.2589e-05,0
0.2815,1.2253e-05,0
0.282,1.3092e-05,0
0.2825,1.2924e-05,0
0.283,1.1917e-05,0
0.2835,1.3764e-05,0
0.284,1.6114e-05,0
0.2845,1.5274e-05,0
0.285,1.2589e-05,0
0.2855,1.1582e-05,0
0.286,1.326e-05,0
0.2865,1.4603e-05,0
0.287,1.5274e-05,0
0.2875,1.6617e-05,0
0.288,1.7624e-05,0
0.2885,1.7624e-05,0
0.289,1.6953e-05,0
0.2895,1.5946e-05,0
0.29,1.5946e-05,0
0.2905,1.7624e-05,0
0.291,1.9974e-05,0
0.2915,2.031e-05,0
0.292,1.7121e-05,0
0.2925,1.4939e-05,0
0.293,1.3932e-05,0
0.2935,1.1917e-05,0
0.294,1.1749e-05,0
0.2945,1.4267e-05,0
0.295,1.5946e-05,0
0.2955,1.561e-05,0
0.296,1.6617e-05,0
0.2965,1.8463e-05,0
0.297,1.9303e-05,0
0.2975,1.8296e-05,0
0.298,1.7121e-05,0
0.2985,1.8631e-05,0
0.299,2.3667e-05,0
0.2995,2.5345e-05,0
0.3,2.2492e-05,0
0.3005,2.0981e-05,0
0.301,2.266e-05,0
0.3015,2.5009e-05,0
0.302,2.5681e-05,0
0.3025,2.6017e-05,0
0.303,2.4338e-05,0
0.3035,2.266e-05,0
0.304,2.3499e-05,0
0.3045,2.4674e-05,0
0.305,2.3835e-05,0
0.3055,2.3163e-05,0
0.306,2.2324e-05,0
0.3065,1.9806e-05,0
0.307,1.6617e-05,0
0.3075,1.5778e-05,0
0.308,1.5442e-05,0
0.3085,1.1917e-05,0
0.309,8.2246e-06,0
0.3095,7.8889e-06,0
0.31,1.0071e-05,0
0.3105,1.2589e-05,0
0.311,1.5946e-05,0
0.3115,2.031e-05,0
0.312,2.4338e-05,0
0.3125,2.8031e-05,0
0.313,2.9374e-05,0
0.3135,2.8031e-05,0
0.314,2.5849e-05,0
0.3145,2.6184e-05,0
0.315,2.8031e-05,0
0.3155,2.5345e-05,0
0.316,1.9638e-05,0
0.3165,1.6449e-05,0
0.317,1.6617e-05,0
0.3175,1.6281e-05,0
0.318,1.4435e-05,0
0.3185,1.4771e-05,0
0.319,1.7624e-05,0
0.3195,1.9638e-05,0
0.32,2.0478e-05,0
0.3205,2.1317e-05,0
0.321,2.0981e-05,0
0.3215,1.9638e-05,0
0.322,1.7288e-05,0
0.3225,1.3932e-05,0
0.323,1.1078e-05,0
0.3235,1.0239e-05,0
0.324,1.2757e-05,0
0.3245,1.6953e-05,0
0.325,1.9974e-05,0
0.3255,2.4674e-05,0
0.326,2.887e-05,0
0.3265,2.9374e-05,0
0.327,2.6017e-05,0
0.3275,2.266e-05,0
0.328,2.0646e-05,0
0.3285,1.7121e-05,0
0.329,1.1917e-05,0
0.3295,7.8889e-06,0
0.33,6.5461e-06,0
0.3305,7.0497e-06,0
0.331,7.8889e-06,0
0.3315,8.7282e-06,0
0.332,1.1917e-05,0
0.3325,1.5946e-05,0
0.333,1.5946e-05,0
0.3335,1.5106e-05,0
0.334,1.7288e-05,0
0.3345,1.9806e-05,0
0.335,2.1149e-05,0
0.3355,2.266e-05,0
0.336,2.3163e-05,0
0.3365,2.266e-05,0
0.337,2.2492e-05,0
0.3375,2.0981e-05,0
0.338,1.6281e-05,0
0.3385,1.2253e-05,0
0.339,1.1414e-05,0
0.3395,1.2253e-05,0
0.34,1.4267e-05,0
0.3405,1.7288e-05,0
0.341,1.8296e-05,0
0.3415,1.6114e-05,0
0.342,1.326e-05,0
0.3425,1.2924e-05,0
0.343,1.5274e-05,0
0.3435,1.796e-05,0
0.344,2.031e-05,0
0.3445,2.3331e-05,0
0.345,2.4002e-05,0
0.3455,2.2492e-05,0
0.346,2.266e-05,0
0.3465,2.7695e-05,0
0.347,3.4241e-05,0
0.3475,3.5416e-05,0
0.348,3.2059e-05,0
0.3485,2.9877e-05,0
0.349,2.9709e-05,0
0.3495,2.8031e-05,0
0.35,2.3835e-05,0
0.3505,1.8631e-05,0
0.351,1.6281e-05,0
0.3515,1.6953e-05,0
0.352,1.7288e-05,0
0.3525,1.5946e-05,0
0.353,1.4939e-05,0
0.3535,1.4099e-05,0
0.354,1.326e-05,0
0.3545,1.326e-05,0
0.355,1.1749e-05,0
0.3555,9.2317e-06,0
0.356,1.0239e-05,0
0.3565,1.5106e-05,0
0.357,1.9974e-05,0
0.3575,2.182e-05,0
0.358,2.3331e-05,0
0.3585,2.2995e-05,0
0.359,1.9638e-05,0
0.3595,1.6449e-05,0
0.36,1.2253e-05,0
0.3605,1.0575e-05,0
0.361,1.326e-05,0
0.3615,1.5274e-05,0
0.362,1.6617e-05,0
0.3625,1.6785e-05,0
0.363,1.5946e-05,0
0.3635,1.6617e-05,0
0.364,1.7624e-05,0
0.3645,1.6953e-05,0
0.365,1.3932e-05,0
0.3655,1.2085e-05,0
0.366,1.3932e-05,0
0.3665,1.7456e-05,0
0.367,1.8631e-05,0
0.3675,1.5946e-05,0
0.368,1.5442e-05,0
0.3685,1.8631e-05,0
0.369,2.266e-05,0
0.3695,2.5177e-05,0
0.37,2.4506e-05,0
0.3705,2.1653e-05,0
0.371,2.1317e-05,0
0.3715,2.1317e-05,0
0.372,1.9638e-05,0
0.3725,1.9303e-05,0
0.373,2.1653e-05,0
0.3735,2.3331e-05,0
0.374,2.4002e-05,0
0.3745,2.6688e-05,0
0.375,2.9038e-05,0
0.3755,2.887e-05,0
0.376,2.8031e-05,0
0.3765,2.6352e-05,0
0.377,2.3667e-05,0
0.3775,2.1149e-05,0
0.378,2.0646e-05,0
0.3785,1.9974e-05,0
0.379,1.796e-05,0
0.3795,1.4939e-05,0
0.38,1.5274e-05,0
0.3805,1.9974e-05,0
0.381,2.6688e-05,0
0.3815,2.9374e-05,0
0.382,2.4842e-05,0
0.3825,1.6953e-05,0
0.383,1.3092e-05,0
0.3835,1.1246e-05,0
0.384,9.2317e-06,0
0.3845,8.3925e-06,0
0.385,9.2317e-06,0
0.3855,1.1917e-05,0
0.386,1.4267e-05,0
0.3865,1.561e-05,0
0.387,1.7288e-05,0
0.3875,1.8967e-05,0
0.388,2.031e-05,0
0.3885,1.8967e-05,0
0.389,1.6449e-05,0
0.3895,1.5442e-05,0
0.39,1.5274e-05,0
0.3905,1.7121e-05,0
0.391,2.1317e-05,0
0.3915,2.3163e-05,0
0.392,1.9806e-05,0
0.3925,1.6449e-05,0
0.393,1.5442e-05,0
0.3935,1.561e-05,0
0.394,1.6617e-05,0
0.3945,1.8799e-05,0
0.395,2.0813e-05,0
0.3955,2.0142e-05,0
0.396,1.5274e-05,0
0.3965,1.0575e-05,0
0.397,8.7282e-06,0
0.3975,9.5674e-06,0
0.398,8.7282e-06,0
0.3985,4.6998e-06,0
0.399,2.8534e-06,0
0.3995,4.1962e-06,0
0.4,9.0639e-06,0
0.4005,1.561e-05,0
0.401,1.8967e-05,0
0.4015,1.8967e-05,0
0.402,1.8463e-05,0
0.4025,1.9974e-05,0
0.403,2.652e-05,0
0.4035,3.4745e-05,0
0.404,4.0116e-05,0
0.4045,4.0116e-05,0
0.405,3.4577e-05,0
0.4055,2.9709e-05,0
0.406,2.8031e-05,0
0.4065,2.7695e-05,0
0.407,2.5849e-05,0
0.4075,2.2828e-05,0
0.408,2.1988e-05,0
0.4085,2.4002e-05,0
0.409,2.5009e-05,0
0.4095,2.3667e-05,0
0.41,2.4506e-05,0
0.4105,2.887e-05,0
0.411,3.0716e-05,0
0.4115,2.7192e-05,0
0.412,2.2828e-05,0
0.4125,2.031e-05,0
0.413,1.9974e-05,0
0.4135,2.0981e-05,0
0.414,1.9974e-05,0
0.4145,1.8296e-05,0
0.415,1.6953e-05,0
0.4155,1.5946e-05,0
0.416,1.3596e-05,0
0.4165,1.1246e-05,0
0.417,1.1414e-05,0
0.4175,1.2421e-05,0
0.418,1.1917e-05,0
0.4185,1.0575e-05,0
0.419,8.2246e-06,0
0.4195,3.0213e-06,0
0.42,5.035e-07,0
0.4205,8.392e-07,0
0.421,2.8534e-06,0
0.4215,5.2033e-06,0
0.422,8.2246e-06,0
0.4225,9.9031e-06,0
0.423,9.3996e-06,0
0.4235,1.0407e-05,0
0.424,1.4435e-05,0
0.4245,1.8631e-05,0
0.425,2.0981e-05,0
0.4255,1.9806e-05,0
0.426,1.9806e-05,0
0.4265,2.2324e-05,0
0.427,2.4002e-05,0
0.4275,2.2324e-05,0
0.428,1.9806e-05,0
0.4285,1.9135e-05,0
0.429,1.796e-05,0
0.4295,1.6617e-05,0
0.43,1.6785e-05,0
0.4305,1.796e-05,0
0.431,1.7792e-05,0
0.4315,1.7624e-05,0
0.432,1.9135e-05,0
0.4325,1.9638e-05,0
0.433,1.947e-05,0
0.4335,2.0646e-05,0
0.434,2.1149e-05,0
0.4345,1.9974e-05,0
0.435,1.9135e-05,0
0.4355,1.8967e-05,0
0.436,1.796e-05,0
0.4365,1.6617e-05,0
0.437,1.6617e-05,0
0.4375,1.796e-05,0
0.438,1.7624e-05,0
0.4385,1.6449e-05,0
0.439,1.4939e-05,0
0.4395,1.4267e-05,0
0.44,1.6449e-05,0
0.4405,1.8296e-05,0
0.441,1.8631e-05,0
0.4415,1.9806e-05,0
0.442,2.1317e-05,0
0.4425,2.266e-05,0
0.443,2.3835e-05,0
0.4435,2.5345e-05,0
0.444,2.5345e-05,0
0.4445,2.5681e-05,0
0.445,2.8367e-05,0
0.4455,3.0549e-05,0
0.446,2.9709e-05,0
0.4465,2.7359e-05,0
0.447,2.5681e-05,0
0.4475,2.3667e-05,0
0.448,2.0646e-05,0
0.4485,1.8631e-05,0
0.449,1.7624e-05,0
0.4495,1.8128e-05,0
0.45,2.0646e-05,0
0.4505,2.266e-05,0
0.451,2.2492e-05,0
0.4515,2.182e-05,0
0.452,2.1317e-05,0
0.4525,1.9303e-05,0
0.453,1.5778e-05,0
0.4535,1.4267e-05,0
0.454,1.5946e-05,0
0.4545,1.8631e-05,0
0.455,1.947e-05,0
0.4555,1.6281e-05,0
0.456,1.2589e-05,0
0.4565,7.5532e-06,0
0.457,4.1962e-06,0
0.4575,7.2175e-06,0
0.458,1.2589e-05,0
0.4585,1.561e-05,0
0.459,1.7288e-05,0
0.4595,1.9135e-05,0
0.46,1.8463e-05,0
0.4605,1.8967e-05,0
0.461,2.1317e-05,0
0.4615,2.652e-05,0
0.462,3.1052e-05,0
0.4625,3.1556e-05,0
0.463,2.8534e-05,0
0.4635,2.5681e-05,0
0.464,2.5681e-05,0
0.4645,2.5009e-05,0
0.465,2.0981e-05,0
0.4655,1.4435e-05,0
0.466,9.5674e-06,0
0.4665,6.8818e-06,0
0.467,4.5319e-06,0
0.4675,3.0213e-06,0
0.468,1.8463e-06,0
0.4685,3.1891e-06,0
0.469,5.8747e-06,0
0.4695,6.8818e-06,0
0.47,5.8747e-06,0
0.4705,8.2246e-06,0
0.471,1.4603e-05,0
0.4715,2.0478e-05,0
0.472,2.1988e-05,0
0.4725,2.1988e-05,0
0.473,2.031e-05,0
0.4735,1.9303e-05,0
0.474,1.947e-05,0
0.4745,1.9303e-05,0
0.475,1.796e-05,0
0.4755,1.4939e-05,0
0.476,1.326e-05,0
0.4765,1.3596e-05,0
0.477,1.4939e-05,0
0.4775,1.5946e-05,0
0.478,1.8463e-05,0
0.4785,2.2324e-05,0
0.479,2.4674e-05,0
0.4795,2.4674e-05,0
0.48,2.3163e-05,0
0.4805,2.0646e-05,0
0.481,1.9974e-05,0
0.4815,2.0646e-05,0
0.482,2.2156e-05,0
0.4825,2.4002e-05,0
0.483,2.5009e-05,0
0.4835,2.5345e-05,0
0.484,2.5009e-05,0
0.4845,2.4002e-05,0
0.485,2.4338e-05,0
0.4855,2.6017e-05,0
0.486,2.5849e-05,0
0.4865,2.2324e-05,0
0.487,1.9638e-05,0
0.4875,1.9303e-05,0
0.488,1.7624e-05,0
0.4885,1.4939e-05,0
0.489,1.4267e-05,0
0.4895,1.561e-05,0
0.49,1.796e-05,0
0.4905,1.796e-05,0
0.491,1.5274e-05,0
0.4915,1.4267e-05,0
0.492,1.4939e-05,0
0.4925,1.8631e-05,0
0.493,2.3667e-05,0
0.4935,2.6017e-05,0
0.494,2.6688e-05,0
0.4945,2.7863e-05,0
0.495,2.8031e-05,0
0.4955,2.6017e-05,0
0.496,2.5345e-05,0
0.4965,2.5177e-05,0
0.497,2.266e-05,0
0.4975,1.8463e-05,0
0.498,1.5442e-05,0
0.4985,1.5274e-05,0
0.499,1.5274e-05,0
0.4995,1.5946e-05,0
0.5,1.8967e-05,0
0.5005,2.1317e-05,0
0.501,2.182e-05,0
0.5015,2.0478e-05,0
0.502,1.9135e-05,0
0.5025,1.9638e-05,0
0.503,2.2995e-05,0
0.5035,2.6688e-05,0
0.504,2.7359e-05,0
0.5045,2.5681e-05,0
0.505,2.4842e-05,0
0.5055,2.6017e-05,0
0.506,2.5345e-05,0
0.5065,2.2156e-05,0
0.507,1.8631e-05,0
0.5075,1.8128e-05,0
0.508,1.8463e-05,0
0.5085,1.9806e-05,0
0.509,2.1317e-05,0
0.5095,2.1988e-05,0
0.51,2.1317e-05,0
0.5105,2.0981e-05,0
0.511,2.182e-05,0
0.5115,2.5009e-05,0
0.512,2.8367e-05,0
0.5125,2.8534e-05,0
0.513,2.5681e-05,0
0.5135,2.2995e-05,0
0.514,1.9806e-05,0
0.5145,1.6953e-05,0
0.515,1.5946e-05,0
0.5155,1.4939e-05,0
0.516,1.326e-05,0
0.5165,1.326e-05,0
0.517,1.4267e-05,0
0.5175,1.4771e-05,0
0.518,1.561e-05,0
0.5185,1.6953e-05,0
0.519,1.7288e-05,0
0.5195,1.7624e-05,0
0.52,1.796e-05,0
0.5205,1.8631e-05,0
0.521,1.796e-05,0
0.5215,1.5106e-05,0
0.522,1.3596e-05,0
0.5225,1.4939e-05,0
0.523,1.561e-05,0
0.5235,1.2421e-05,0
0.524,9.5674e-06,0
0.5245,7.8889e-06,0
0.525,7.5532e-06,0
0.5255,7.3854e-06,0
0.526,7.3854e-06,0
0.5265,6.714e-06,0
0.527,7.7211e-06,0
0.5275,7.8889e-06,0
0.528,6.3783e-06,0
0.5285,5.2033e-06,0
0.529,6.8818e-06,0
0.5295,9.3996e-06,0
0.53,9.7353e-06,0
0.5305,9.7353e-06,0
0.531,1.2589e-05,0
0.5315,1.796e-05,0
0.532,2.266e-05,0
0.5325,2.6017e-05,0
0.533,2.7695e-05,0
0.5335,2.6352e-05,0
0.534,2.1988e-05,0
0.5345,1.9974e-05,0
0.535,2.1149e-05,0
0.5355,1.9974e-05,0
0.536,1.5106e-05,0
0.5365,1.3596e-05,0
0.537,1.7288e-05,0
0.5375,1.947e-05,0
0.538,1.8128e-05,0
0.5385,1.8631e-05,0
0.539,1.9303e-05,0
0.5395,2.0478e-05,0
0.54,2.1988e-05,0
0.5405,2.2156e-05,0
0.541,2.1988e-05,0
0.5415,2.1653e-05,0
0.542,2.1317e-05,0
0.5425,1.9638e-05,0
0.543,1.7624e-05,0
0.5435,1.7792e-05,0
0.544,1.9303e-05,0
0.5445,1.9974e-05,0
0.545,2.2995e-05,0
0.5455,2.6688e-05,0
0.546,2.8702e-05,0
0.5465,2.7695e-05,0
0.547,2.7359e-05,0
0.5475,2.7024e-05,0
0.548,2.5009e-05,0
0.5485,2.2324e-05,0
0.549,2.031e-05,0
0.5495,1.7792e-05,0
0.55,1.6449e-05,0
0.5505,1.4939e-05,0
0.551,1.2253e-05,0
0.5515,9.9031e-06,0
0.552,1.0575e-05,0
0.5525,1.3596e-05,0
0.553,1.6449e-05,0
0.5535,1.8799e-05,0
0.554,1.8631e-05,0
0.5545,1.796e-05,0
0.555,1.9974e-05,0
0.5555,2.5513e-05,0
0.556,3.0716e-05,0
0.5565,3.1388e-05,0
0.557,2.6688e-05,0
0.5575,1.9638e-05,0
0.558,1.4603e-05,0
0.5585,1.4435e-05,0
0.559,1.3932e-05,0
0.5595,1.1917e-05,0
0.56,9.9031e-06,0
0.5605,8.896e-06,0
0.561,9.2317e-06,0
0.5615,9.5674e-06,0
0.562,1.1582e-05,0
0.5625,1.6281e-05,0
0.563,1.9974e-05,0
0.5635,2.1988e-05,0
0.564,2.2828e-05,0
0.5645,2.2492e-05,0
0.565,2.0646e-05,0
0.5655,2.031e-05,0
0.566,2.2324e-05,0
0.5665,2.2995e-05,0
0.567,2.0981e-05,0
0.5675,1.7792e-05,0
0.568,1.4939e-05,0
0.5685,1.326e-05,0
0.569,1.4603e-05,0
0.5695,1.4603e-05,0
0.57,1.3596e-05,0
0.5705,1.1582e-05,0
0.571,1.0575e-05,0
0.5715,1.0575e-05,0
0.572,1.1414e-05,0
0.5725,1.1582e-05,0
0.573,1.1749e-05,0
0.5735,1.2757e-05,0
0.574,1.561e-05,0
0.5745,1.9135e-05,0
0.575,2.031e-05,0
0.5755,1.8967e-05,0
0.576,1.7624e-05,0
0.5765,1.6617e-05,0
0.577,1.8296e-05,0
0.5775,1.8967e-05,0
0.578,1.5778e-05,0
0.5785,1.3764e-05,0
0.579,1.4603e-05,0
0.5795,1.4435e-05,0
0.58,1.5274e-05,0
0.5805,1.9303e-05,0
0.581,2.0646e-05,0
0.5815,1.8631e-05,0
0.582,1.7121e-05,0
0.5825,1.6617e-05,0
0.583,1.7792e-05,0
0.5835,2.0478e-05,0
0.584,2.1149e-05,0
0.5845,2.266e-05,0
0.585,2.4842e-05,0
0.5855,2.5009e-05,0
0.586,2.4674e-05,0
0.5865,2.5513e-05,0
0.587,2.4506e-05,0
0.5875,2.182e-05,0
0.588,2.0478e-05,0
0.5885,2.1988e-05,0
0.589,2.1317e-05,0
0.5895,1.8296e-05,0
0.59,1.4939e-05,0
0.5905,1.3932e-05,0
0.591,1.2085e-05,0
0.5915,1.1246e-05,0
0.592,1.1917e-05,0
0.5925,1.4099e-05,0
0.593,1.796e-05,0
0.5935,1.9806e-05,0
0.594,1.7624e-05,0
0.5945,1.6449e-05,0
0.595,1.8631e-05,0
0.5955,2.5009e-05,0
0.596,2.9709e-05,0
0.5965,2.887e-05,0
0.597,2.4674e-05,0
0.5975,2.031e-05,0
0.598,1.5442e-05,0
0.5985,1.2589e-05,0
0.599,1.3932e-05,0
0.5995,1.5778e-05,0
0.6,1.6281e-05,0
0.6005,1.6953e-05,0
0.601,1.7624e-05,0
0.6015,1.8631e-05,0
0.602,1.9638e-05,0
0.6025,1.8296e-05,0
0.603,1.7288e-05,0
0.6035,1.9974e-05,0
0.604,2.5177e-05,0
0.6045,3.122e-05,0
0.605,3.6088e-05,0
0.6055,3.8773e-05,0
0.606,3.9277e-05,0
0.6065,3.7934e-05,0
0.607,3.4241e-05,0
0.6075,2.9374e-05,0
0.608,2.4506e-05,0
0.6085,1.9303e-05,0
0.609,1.6114e-05,0
0.6095,1.561e-05,0
0.61,1.7288e-05,0
0.6105,2.0813e-05,0
0.611,2.2324e-05,0
0.6115,2.0478e-05,0
0.612,1.5946e-05,0
0.6125,1.1749e-05,0
0.613,1.1749e-05,0
0.6135,1.5274e-05,0
0.614,1.7624e-05,0
0.6145,1.8463e-05,0
0.615,2.0478e-05,0
0.6155,2.0478e-05,0
0.616,2.0142e-05,0
0.6165,2.031e-05,0
0.617,1.796e-05,0
0.6175,1.3932e-05,0
0.618,1.326e-05,0
0.6185,1.5442e-05,0
0.619,1.5946e-05,0
0.6195,1.3932e-05,0
0.62,1.2253e-05,0
0.6205,1.0407e-05,0
0.621,9.0639e-06,0
0.6215,9.5674e-06,0
0.622,1.0407e-05,0
0.6225,1.1246e-05,0
0.623,1.0071e-05,0
0.6235,1.0239e-05,0
0.624,1.4099e-05,0
0.6245,1.8799e-05,0
0.625,2.0981e-05,0
0.6255,2.1988e-05,0
0.626,2.1988e-05,0
0.6265,2.266e-05,0
0.627,2.3667e-05,0
0.6275,2.4338e-05,0
0.628,2.266e-05,0
0.6285,1.9303e-05,0
0.629,1.4267e-05,0
0.6295,1.0575e-05,0
0.63,9.9031e-06,0
0.6305,9.9031e-06,0
0.631,1.1917e-05,0
0.6315,1.4267e-05,0
0.632,1.4939e-05,0
0.6325,1.6281e-05,0
0.633,2.1149e-05,0
0.6335,2.4002e-05,0
0.634,2.4674e-05,0
0.6345,2.6017e-05,0
0.635,2.9709e-05,0
0.6355,3.4073e-05,0
0.636,3.6423e-05,0
0.6365,3.6088e-05,0
0.637,3.3738e-05,0
0.6375,3.2395e-05,0
0.638,3.2731e-05,0
0.6385,3.3066e-05,0
0.639,3.1556e-05,0
0.6395,2.9709e-05,0
0.64,2.8702e-05,0
0.6405,2.7024e-05,0
0.641,2.4338e-05,0
0.6415,2.0646e-05,0
0.642,1.796e-05,0
0.6425,1.7288e-05,0
0.643,1.7121e-05,0
0.6435,1.6953e-05,0
0.644,1.6617e-05,0
0.6445,1.7288e-05,0
0.645,1.6953e-05,0
0.6455,1.561e-05,0
0.646,1.4267e-05,0
0.6465,1.326e-05,0
0.647,1.1582e-05,0
0.6475,6.5461e-06,0
0.648,2.0142e-06,0
0.6485,3.8605e-06,0
0.649,9.9031e-06,0
0.6495,1.4435e-05,0
0.65,1.6617e-05,0
0.6505,1.6449e-05,0
0.651,1.4939e-05,0
0.6515,1.2253e-05,0
0.652,8.7282e-06,0
0.6525,5.2033e-06,0
0.653,4.8676e-06,0
0.6535,8.3925e-06,0
0.654,1.5274e-05,0
0.6545,2.1653e-05,0
0.655,2.3667e-05,0
0.6555,2.1653e-05,0
0.656,1.7624e-05,0
0.6565,1.3764e-05,0
0.657,9.2317e-06,0
0.6575,8.3925e-06,0
0.658,8.5603e-06,0
0.6585,8.7282e-06,0
0.659,8.5603e-06,0
0.6595,8.896e-06,0
0.66,9.2317e-06,0
0.6605,9.7353e-06,0
0.661,1.0575e-05,0
0.6615,1.2757e-05,0
0.662,1.561e-05,0
0.6625,1.7288e-05,0
0.663,1.6785e-05,0
0.6635,1.4603e-05,0
0.664,1.2589e-05,0
0.6645,1.5106e-05,0
0.665,1.8463e-05,0
0.6655,1.8128e-05,0
0.666,1.5274e-05,0
0.6665,1.561e-05,0
0.667,1.9135e-05,0
0.6675,2.0981e-05,0
0.668,1.9806e-05,0
0.6685,1.796e-05,0
0.669,1.9638e-05,0
0.6695,2.2828e-05,0
0.67,2.8031e-05,0
0.6705,3.3402e-05,0
0.671,3.508e-05,0
0.6715,3.2059e-05,0
0.672,2.8534e-05,0
0.6725,2.5849e-05,0
0.673,2.3331e-05,0
0.6735,1.9638e-05,0
0.674,1.8631e-05,0
0.6745,2.0646e-05,0
0.675,2.0646e-05,0
0.6755,1.6953e-05,0
0.676,1.4267e-05,0
0.6765,1.5274e-05,0
0.677,1.796e-05,0
0.6775,1.9638e-05,0
0.678,1.9974e-05,0
0.6785,2.1317e-05,0
0.679,2.1149e-05,0
0.6795,1.9303e-05,0
0.68,1.8631e-05,0
0.6805,1.6617e-05,0
0.681,1.326e-05,0
0.6815,1.1749e-05,0
0.682,1.2253e-05,0
0.6825,1.4939e-05,0
0.683,1.7288e-05,0
0.6835,1.796e-05,0
0.684,1.6281e-05,0
0.6845,1.4267e-05,0
0.685,1.4939e-05,0
0.6855,1.6953e-05,0
0.686,1.6617e-05,0
0.6865,1.5946e-05,0
0.687,1.6617e-05,0
0.6875,1.6953e-05,0
0.688,1.5946e-05,0
0.6885,1.4939e-05,0
0.689,1.3932e-05,0
0.6895,1.326e-05,0
0.69,1.4267e-05,0
0.6905,1.5274e-05,0
0.691,1.4939e-05,0
0.6915,1.5106e-05,0
0.692,1.4939e-05,0
0.6925,1.5442e-05,0
0.693,1.7624e-05,0
0.6935,1.7624e-05,0
0.694,1.561e-05,0
0.6945,1.6281e-05,0
0.695,2.0646e-05,0
0.6955,2.4842e-05,0
0.696,2.8702e-05,0
0.6965,3.1388e-05,0
0.697,3.1891e-05,0
0.6975,3.1556e-05,0
0.698,3.1388e-05,0
0.6985,2.9374e-05,0
0.699,2.5177e-05,0
0.6995,2.1653e-05,0
0.7,2.0646e-05,0
0.7005,2.1317e-05,0
0.701,1.947e-05,0
0.7015,1.5274e-05,0
0.702,1.5946e-05,0
0.7025,1.9974e-05,0
0.703,2.266e-05,0
0.7035,2.266e-05,0
0.704,2.1988e-05,0
0.7045,2.2492e-05,0
0.705,2.2995e-05,0
0.7055,2.182e-05,0
0.706,2.0646e-05,0
0.7065,1.796e-05,0
0.707,1.5274e-05,0
0.7075,1.4771e-05,0
0.708,1.5778e-05,0
0.7085,1.6953e-05,0
0.709,1.6785e-05,0
0.7095,1.7121e-05,0
0.71,1.7624e-05,0
0.7105,1.8296e-05,0
0.711,1.7121e-05,0
0.7115,1.4603e-05,0
0.712,1.5946e-05,0
0.7125,1.9303e-05,0
0.713,2.2995e-05,0
0.7135,2.5009e-05,0
0.714,2.1988e-05,0
0.7145,1.7456e-05,0
0.715,1.6617e-05,0
0.7155,1.9303e-05,0
0.716,2.0981e-05,0
0.7165,2.0646e-05,0
0.717,2.0646e-05,0
0.7175,2.1653e-05,0
0.718,2.182e-05,0
0.7185,2.1988e-05,0
0.719,2.266e-05,0
0.7195,2.3499e-05,0
0.72,2.5009e-05,0
0.7205,2.6017e-05,0
0.721,2.4002e-05,0
0.7215,2.2324e-05,0
0.722,2.1317e-05,0
0.7225,2.1317e-05,0
0.723,2.4002e-05,0
0.7235,2.8031e-05,0
0.724,2.8702e-05,0
0.7245,2.4842e-05,0
0.725,1.9135e-05,0
0.7255,1.4099e-05,0
0.726,1.2589e-05,0
0.7265,1.6617e-05,0
0.727,2.2492e-05,0
0.7275,2.4002e-05,0
0.728,1.9974e-05,0
0.7285,1.4267e-05,0
0.729,1.1749e-05,0
0.7295,1.2924e-05,0
0.73,1.6449e-05,0
0.7305,2.0478e-05,0
0.731,2.2324e-05,0
0.7315,1.8296e-05,0
0.732,1.2253e-05,0
0.7325,9.5674e-06,0
0.733,1.1246e-05,0
0.7335,1.3092e-05,0
0.734,1.2924e-05,0
0.7345,1.326e-05,0
0.735,1.796e-05,0
0.7355,2.3331e-05,0
0.736,2.652e-05,0
0.7365,3.0213e-05,0
0.737,3.2059e-05,0
0.7375,3.3738e-05,0
0.738,3.6759e-05,0
0.7385,3.9948e-05,0
0.739,4.1459e-05,0
0.7395,3.8437e-05,0
0.74,3.2731e-05,0
0.7405,2.7024e-05,0
0.741,2.3667e-05,0
0.7415,2.2324e-05,0
0.742,1.8967e-05,0
0.7425,1.4267e-05,0
0.743,8.896e-06,0
0.7435,5.539e-06,0
0.744,4.5319e-06,0
0.7445,4.1962e-06,0
0.745,2.5177e-06,0
0.7455,2.5177e-06,0
0.746,3.6927e-06,0
0.7465,5.0355e-06,0
0.747,5.2033e-06,0
0.7475,5.2033e-06,0
0.748,7.0497e-06,0
0.7485,1.0071e-05,0
0.749,1.1582e-05,0
0.7495,1.3764e-05,0
0.75,1.8631e-05,0
0.7505,2.266e-05,0
0.751,2.1317e-05,0
0.7515,1.5946e-05,0
0.752,1.1078e-05,0
0.7525,8.896e-06,0
0.753,8.896e-06,0
0.7535,1.0575e-05,0
0.754,1.2924e-05,0
0.7545,1.4939e-05,0
0.755,1.7288e-05,0
0.7555,2.0813e-05,0
0.756,2.2492e-05,0
0.7565,2.1988e-05,0
0.757,2.1317e-05,0
0.7575,2.0981e-05,0
0.758,1.796e-05,0
0.7585,1.2253e-05,0
0.759,8.7282e-06,0
0.7595,8.896e-06,0
0.76,8.896e-06,0
0.7605,6.3783e-06,0
0.761,3.1891e-06,0
0.7615,3.8605e-06,0
0.762,6.2104e-06,0
0.7625,7.7211e-06,0
0.763,7.8889e-06,0
0.7635,6.8818e-06,0
0.764,6.3783e-06,0
0.7645,7.5532e-06,0
0.765,1.1582e-05,0
0.7655,1.796e-05,0
0.766,2.3331e-05,0
0.7665,2.9038e-05,0
0.767,3.3906e-05,0
0.7675,3.5752e-05,0
0.768,3.6423e-05,0
0.7685,3.4073e-05,0
0.769,3.0381e-05,0
0.7695,2.8367e-05,0
0.77,2.7359e-05,0
0.7705,2.8199e-05,0
0.771,3.0213e-05,0
0.7715,3.1388e-05,0
0.772,3.4073e-05,0
0.7725,3.508e-05,0
0.773,3.3402e-05,0
0.7735,3.2059e-05,0
0.774,3.0716e-05,0
0.7745,2.9374e-05,0
0.775,2.5849e-05,0
0.7755,2.266e-05,0
0.776,2.266e-05,0
0.7765,2.266e-05,0
0.777,2.0646e-05,0
0.7775,1.8967e-05,0
0.778,1.947e-05,0
0.7785,2.0981e-05,0
0.779,2.1317e-05,0
0.7795,2.031e-05,0
0.78,1.9638e-05,0
0.7805,1.8967e-05,0
0.781,1.796e-05,0
0.7815,1.8128e-05,0
0.782,1.8128e-05,0
0.7825,1.5442e-05,0
0.783,1.1917e-05,0
0.7835,1.1582e-05,0
0.784,1.1246e-05,0
0.7845,7.7211e-06,0
0.785,4.8676e-06,0
0.7855,4.3641e-06,0
0.786,5.539e-06,0
0.7865,7.8889e-06,0
0.787,9.5674e-06,0
0.7875,9.5674e-06,0
0.788,7.8889e-06,0
0.7885,7.8889e-06,0
0.789,9.3996e-06,0
0.7895,1.091e-05,0
0.79,1.2589e-05,0
0.7905,1.4267e-05,0
0.791,1.3764e-05,0
0.7915,1.2924e-05,0
0.792,1.2253e-05,0
0.7925,1.1582e-05,0
0.793,1.0575e-05,0
0.7935,1.091e-05,0
0.794,1.4603e-05,0
0.7945,1.9303e-05,0
0.795,2.4674e-05,0
0.7955,3.2059e-05,0
0.796,3.9445e-05,0
0.7965,4.0787e-05,0
0.797,3.7095e-05,0
0.7975,3.2563e-05,0
0.798,2.9374e-05,0
0.7985,2.652e-05,0
0.799,2.2324e-05,0
0.7995,1.6953e-05,0
0.8,1.2421e-05,0
0.8005,1.0575e-05,0
0.801,9.9031e-06,0
0.8015,9.9031e-06,0
0.802,1.3596e-05,0
0.8025,1.7792e-05,0
0.803,1.9303e-05,0
0.8035,1.9806e-05,0
0.804,2.1988e-05,0
0.8045,2.4002e-05,0
0.805,2.3163e-05,0
0.8055,2.0646e-05,0
0.806,1.9638e-05,0
0.8065,1.9135e-05,0
0.807,1.7288e-05,0
0.8075,1.6953e-05,0
0.808,1.7288e-05,0
0.8085,1.8463e-05,0
0.809,1.8631e-05,0
0.8095,1.6617e-05,0
0.81,1.4939e-05,0
0.8105,1.4267e-05,0
0.811,1.5106e-05,0
0.8115,1.5274e-05,0
0.812,1.4435e-05,0
0.8125,1.5946e-05,0
0.813,1.8631e-05,0
0.8135,2.031e-05,0
0.814,2.0646e-05,0
0.8145,1.8967e-05,0
0.815,1.6281e-05,0
0.8155,1.6449e-05,0
0.816,1.6953e-05,0
0.8165,1.5106e-05,0
0.817,1.2253e-05,0
0.8175,1.0575e-05,0
0.818,1.2924e-05,0
0.8185,1.6449e-05,0
0.819,1.7121e-05,0
0.8195,1.5946e-05,0
0.82,1.6449e-05,0
0.8205,1.6449e-05,0
0.821,1.6617e-05,0
0.8215,1.7456e-05,0
0.822,1.5106e-05,0
0.8225,9.7353e-06,0
0.823,5.539e-06,0
0.8235,5.2033e-06,0
0.824,9.5674e-06,0
0.8245,1.7624e-05,0
0.825,2.266e-05,0
0.8255,2.4002e-05,0
0.826,2.6017e-05,0
0.8265,2.6688e-05,0
0.827,2.5177e-05,0
0.8275,2.3331e-05,0
0.828,2.4842e-05,0
0.8285,2.9038e-05,0
0.829,3.2059e-05,0
0.8295,3.2731e-05,0
0.83,2.8702e-05,0
0.8305,2.2995e-05,0
0.831,1.9638e-05,0
0.8315,1.8296e-05,0
0.832,1.6617e-05,0
0.8325,1.326e-05,0
0.833,9.7353e-06,0
0.8335,8.5603e-06,0
0.834,9.9031e-06,0
0.8345,9.7353e-06,0
0.835,9.2317e-06,0
0.8355,9.5674e-06,0
0.836,9.7353e-06,0
0.8365,7.3854e-06,0
0.837,4.1962e-06,0
0.8375,3.8605e-06,0
0.838,5.8747e-06,0
0.8385,9.2317e-06,0
0.839,1.3764e-05,0
0.8395,2.1988e-05,0
0.84,3.122e-05,0
0.8405,3.2731e-05,0
0.841,2.6688e-05,0
0.8415,2.3331e-05,0
0.842,2.652e-05,0
0.8425,3.0381e-05,0
0.843,3.2731e-05,0
0.8435,3.4241e-05,0
0.844,3.4745e-05,0
0.8445,3.2059e-05,0
0.845,2.9038e-05,0
0.8455,2.6184e-05,0
0.846,2.4842e-05,0
0.8465,2.6688e-05,0
0.847,2.9374e-05,0
0.8475,3.0381e-05,0
0.848,2.8031e-05,0
0.8485,2.6017e-05,0
0.849,2.4674e-05,0
0.8495,2.266e-05,0
0.85,1.8296e-05,0
0.8505,1.5106e-05,0
0.851,1.2757e-05,0
0.8515,1.2253e-05,0
0.852,1.3092e-05,0
0.8525,1.4267e-05,0
0.853,1.7121e-05,0
0.8535,2.1988e-05,0
0.854,2.6352e-05,0
0.8545,2.6017e-05,0
0.855,2.7192e-05,0
0.8555,2.9374e-05,0
0.856,2.9206e-05,0
0.8565,2.6017e-05,0
0.857,2.3331e-05,0
0.8575,2.6017e-05,0
0.858,3.0549e-05,0
0.8585,3.2059e-05,0
0.859,2.9877e-05,0
0.8595,2.1988e-05,0
0.86,1.326e-05,0
0.8605,8.7282e-06,0
0.861,7.7211e-06,0
0.8615,9.9031e-06,0
0.862,1.4267e-05,0
0.8625,1.4267e-05,0
0.863,8.2246e-06,0
0.8635,1.5106e-06,0
0.864,-5.035e-07,0
0.8645,4.5319e-06,0
0.865,1.1414e-05,0
0.8655,1.7456e-05,0
0.866,1.9638e-05,0
0.8665,1.5442e-05,0
0.867,9.3996e-06,0
0.8675,7.2175e-06,0
0.868,8.5603e-06,0
0.8685,9.2317e-06,0
0.869,9.9031e-06,0
0.8695,1.4267e-05,0
0.87,2.2324e-05,0
0.8705,3.2059e-05,0
0.871,3.6255e-05,0
0.8715,3.4745e-05,0
0.872,3.0045e-05,0
0.8725,2.6352e-05,0
0.873,2.6688e-05,0
0.8735,3.3066e-05,0
0.874,3.8773e-05,0
0.8745,3.9277e-05,0
0.875,3.5752e-05,0
0.8755,3.0884e-05,0
0.876,2.5345e-05,0
0.8765,2.1653e-05,0
0.877,1.8296e-05,0
0.8775,1.3932e-05,0
0.878,1.2589e-05,0
0.8785,1.2589e-05,0
0.879,1.1917e-05,0
0.8795,1.2589e-05,0
0.88,1.2757e-05,0
0.8805,1.0575e-05,0
0.881,9.3996e-06,0
0.8815,1.1582e-05,0
0.882,1.2924e-05,0
0.8825,1.1246e-05,0
0.883,8.2246e-06,0
0.8835,4.8676e-06,0
0.884,3.8605e-06,0
0.8845,5.8747e-06,0
0.885,9.2317e-06,0
0.8855,1.1917e-05,0
0.886,1.4267e-05,0
0.8865,1.561e-05,0
0.887,1.5274e-05,0
0.8875,1.4267e-05,0
0.888,1.4267e-05,0
0.8885,1.5946e-05,0
0.889,1.8967e-05,0
0.8895,2.1317e-05,0
0.89,2.0981e-05,0
0.8905,1.7792e-05,0
0.891,1.5274e-05,0
0.8915,1.4939e-05,0
0.892,1.7121e-05,0
0.8925,1.796e-05,0
0.893,1.6785e-05,0
0.8935,1.4603e-05,0
0.894,1.1749e-05,0
0.8945,1.1917e-05,0
0.895,1.5274e-05,0
0.8955,1.8631e-05,0
0.896,1.9303e-05,0
0.8965,2.0478e-05,0
0.897,1.9303e-05,0
0.8975,1.8128e-05,0
0.898,1.6281e-05,0
0.8985,1.561e-05,0
0.899,1.6617e-05,0
0.8995,1.9638e-05,0
0.9,2.0478e-05,0
0.9005,1.8463e-05,0
0.901,1.5946e-05,0
0.9015,1.2924e-05,0
0.902,1.0239e-05,0
0.9025,8.896e-06,0
0.903,9.7353e-06,0
0.9035,1.1917e-05,0
0.904,1.3596e-05,0
0.9045,1.796e-05,0
0.905,2.4842e-05,0
0.9055,3.2059e-05,0
0.906,3.5752e-05,0
0.9065,3.3402e-05,0
0.907,2.8702e-05,0
0.9075,2.6688e-05,0
0.908,2.6352e-05,0
0.9085,2.4002e-05,0
0.909,1.9135e-05,0
0.9095,1.561e-05,0
0.91,1.5274e-05,0
0.9105,1.5442e-05,0
0.911,1.3596e-05,0
0.9115,1.2757e-05,0
0.912,1.4603e-05,0
0.9125,1.7288e-05,0
0.913,1.947e-05,0
0.9135,2.3163e-05,0
0.914,2.7024e-05,0
0.9145,2.6352e-05,0
0.915,2.2995e-05,0
0.9155,1.9638e-05,0
0.916,1.8631e-05,0
0.9165,2.0646e-05,0
0.917,2.3667e-05,0
0.9175,2.3499e-05,0
0.918,2.031e-05,0
0.9185,1.6953e-05,0
0.919,1.5946e-05,0
0.9195,1.5106e-05,0
0.92,1.326e-05,0
0.9205,1.1582e-05,0
0.921,1.2757e-05,0
0.9215,1.4267e-05,0
0.922,1.2589e-05,0
0.9225,9.9031e-06,0
0.923,8.5603e-06,0
0.9235,1.0239e-05,0
0.924,1.3596e-05,0
0.9245,1.5946e-05,0
0.925,1.5778e-05,0
0.9255,1.7792e-05,0
0.926,2.3499e-05,0
0.9265,2.8367e-05,0
0.927,3.0381e-05,0
0.9275,3.1724e-05,0
0.928,3.4577e-05,0
0.9285,3.743e-05,0
0.929,3.743e-05,0
0.9295,3.4745e-05,0
0.93,3.3234e-05,0
0.9305,3.1388e-05,0
0.931,2.9038e-05,0
0.9315,2.4002e-05,0
0.932,1.5274e-05,0
0.9325,8.3925e-06,0
0.933,6.5461e-06,0
0.9335,6.8818e-06,0
0.934,6.2104e-06,0
0.9345,5.539e-06,0
0.935,5.2033e-06,0
0.9355,4.3641e-06,0
0.936,2.5177e-06,0
0.9365,3.8605e-06,0
0.937,1.0239e-05,0
0.9375,1.5946e-05,0
0.938,1.8296e-05,0
0.9385,1.9638e-05,0
0.939,2.3835e-05,0
0.9395,3.0213e-05,0
0.94,3.3066e-05,0
0.9405,2.9206e-05,0
0.941,2.266e-05,0
0.9415,1.8463e-05,0
0.942,1.6617e-05,0
0.9425,1.6953e-05,0
0.943,1.8296e-05,0
0.9435,1.8631e-05,0
0.944,1.7792e-05,0
0.9445,1.7288e-05,0
0.945,1.796e-05,0
0.9455,1.7288e-05,0
0.946,1.561e-05,0
0.9465,1.4603e-05,0
0.947,1.3596e-05,0
0.9475,1.2924e-05,0
0.948,1.1582e-05,0
0.9485,9.0639e-06,0
0.949,7.8889e-06,0
0.9495,9.5674e-06,0
0.95,1.4603e-05,0
0.9505,1.8631e-05,0
0.951,1.9638e-05,0
0.9515,1.9303e-05,0
0.952,1.8631e-05,0
0.9525,1.7288e-05,0
0.953,1.7288e-05,0
0.9535,1.8799e-05,0
0.954,2.3499e-05,0
0.9545,2.887e-05,0
0.955,3.2395e-05,0
0.9555,3.4577e-05,0
0.956,3.508e-05,0
0.9565,3.1724e-05,0
0.957,2.5345e-05,0
0.9575,1.9806e-05,0
0.958,1.8967e-05,0
0.9585,2.2492e-05,0
0.959,2.5681e-05,0
0.9595,2.6352e-05,0
0.96,2.4506e-05,0
0.9605,2.1317e-05,0
0.961,1.8631e-05,0
0.9615,1.9806e-05,0
0.962,2.2324e-05,0
0.9625,2.5177e-05,0
0.963,2.6688e-05,0
0.9635,2.6688e-05,0
0.964,2.5009e-05,0
0.9645,2.3835e-05,0
0.965,2.2995e-05,0
0.9655,2.1988e-05,0
0.966,2.2324e-05,0
0.9665,2.266e-05,0
0.967,2.1149e-05,0
0.9675,1.7288e-05,0
0.968,1.1246e-05,0
0.9685,8.0568e-06,0
0.969,7.2175e-06,0
0.9695,7.0497e-06,0
0.97,6.8818e-06,0
0.9705,6.714e-06,0
0.971,7.8889e-06,0
0.9715,1.0239e-05,0
0.972,1.2085e-05,0
0.9725,1.3596e-05,0
0.973,1.4603e-05,0
0.9735,1.4939e-05,0
0.974,1.7288e-05,0
0.9745,2.266e-05,0
0.975,2.9374e-05,0
0.9755,3.4409e-05,0
0.976,3.6423e-05,0
0.9765,3.5248e-05,0
0.977,3.2059e-05,0
0.9775,2.7863e-05,0
0.978,2.2995e-05,0
0.9785,1.796e-05,0
0.979,1.4603e-05,0
0.9795,1.3596e-05,0
0.98,1.326e-05,0
0.9805,1.4603e-05,0
0.981,1.5274e-05,0
0.9815,1.7288e-05,0
0.982,1.947e-05,0
0.9825,2.0646e-05,0
0.983,2.0646e-05,0
0.9835,1.9974e-05,0
0.984,1.7288e-05,0
0.9845,1.6617e-05,0
0.985,1.7288e-05,0
0.9855,1.8296e-05,0
0.986,1.796e-05,0
0.9865,1.6953e-05,0
0.987,1.6449e-05,0
0.9875,1.6953e-05,0
0.988,1.5946e-05,0
0.9885,1.2589e-05,0
0.989,1.1078e-05,0
0.9895,1.3596e-05,0
0.99,1.5274e-05,0
0.9905,1.2589e-05,0
0.991,9.2317e-06,0
0.9915,6.2104e-06,0
0.992,7.2175e-06,0
0.9925,1.1749e-05,0
0.993,1.5274e-05,0
0.9935,1.6449e-05,0
0.994,1.4939e-05,0
0.9945,1.4939e-05,0
0.995,1.6953e-05,0
0.9955,1.7624e-05,0
0.996,1.6449e-05,0
0.9965,1.5274e-05,0
0.997,1.7624e-05,0
0.9975,2.031e-05,0
0.998,2.1988e-05,0
0.9985,2.2492e-05,0
0.999,2.1317e-05,0
0.9995,1.9806e-05,0
1,1.9638e-05,0
1.0005,1.9638e-05,0
1.001,1.8631e-05,0
1.0015,1.5274e-05,0
1.002,1.326e-05,0
1.0025,1.2085e-05,0
1.003,1.1917e-05,0
1.0035,1.2589e-05,0
1.004,1.2253e-05,0
1.0045,1.4267e-05,0
1.005,1.5946e-05,0
1.0055,1.6281e-05,0
1.006,1.7288e-05,0
1.0065,1.8967e-05,0
1.007,1.8128e-05,0
1.0075,1.6953e-05,0
1.008,1.6449e-05,0
1.0085,1.5106e-05,0
1.009,1.1917e-05,0
1.0095,1.1246e-05,0
1.01,1.4435e-05,0
1.0105,1.8631e-05,0
1.011,2.0981e-05,0
1.0115,2.0646e-05,0
1.012,2.0981e-05,0
1.0125,2.3835e-05,0
1.013,2.8702e-05,0
1.0135,3.3402e-05,0
1.014,3.4073e-05,0
1.0145,2.9374e-05,0
1.015,2.4002e-05,0
1.0155,2.1653e-05,0
1.016,2.031e-05,0
1.0165,1.6617e-05,0
1.017,1.2589e-05,0
1.0175,1.2253e-05,0
1.018,1.5274e-05,0
1.0185,1.9974e-05,0
1.019,2.4002e-05,0
1.0195,2.8367e-05,0
1.02,3.2059e-05,0
1.0205,3.3906e-05,0
1.021,3.3906e-05,0
1.0215,3.3066e-05,0
1.022,3.2563e-05,0
1.0225,3.0884e-05,0
1.023,2.8031e-05,0
1.0235,2.3667e-05,0
1.024,2.031e-05,0
1.0245,1.8128e-05,0
1.025,1.5946e-05,0
1.0255,1.1917e-05,0
1.026,8.2246e-06,0
1.0265,6.5461e-06,0
1.027,8.896e-06,0
1.0275,1.091e-05,0
1.028,9.7353e-06,0
1.0285,8.0568e-06,0
1.029,7.2175e-06,0
1.0295,6.3783e-06,0
1.03,7.8889e-06,0
1.0305,1.1078e-05,0
1.031,1.1246e-05,0
1.0315,7.8889e-06,0
1.032,6.5461e-06,0
1.0325,7.0497e-06,0
1.033,4.6998e-06,0
1.0335,2.182e-06,0
1.034,4.5319e-06,0
1.0345,1.0239e-05,0
1.035,1.6281e-05,0
1.0355,2.0646e-05,0
1.036,2.4338e-05,0
1.0365,2.5681e-05,0
1.037,2.7695e-05,0
1.0375,2.9206e-05,0
1.038,2.9038e-05,0
1.0385,2.6688e-05,0
1.039,2.266e-05,0
1.0395,1.9806e-05,0
1.04,1.8631e-05,0
1.0405,1.8967e-05,0
1.041,1.9638e-05,0
1.0415,2.0981e-05,0
1.042,2.266e-05,0
1.0425,2.5345e-05,0
1.043,2.6017e-05,0
1.0435,2.3667e-05,0
1.044,2.1317e-05,0
1.0445,2.031e-05,0
1.045,2.1317e-05,0
1.0455,2.4674e-05,0
1.046,2.8031e-05,0
1.0465,2.9877e-05,0
1.047,2.8702e-05,0
1.0475,2.6688e-05,0
1.048,2.652e-05,0
1.0485,2.4002e-05,0
1.049,1.9135e-05,0
1.0495,1.7288e-05,0
1.05,1.9303e-05,0
1.0505,1.9303e-05,0
1.051,1.8631e-05,0
1.0515,1.9974e-05,0
1.052,1.8967e-05,0
1.0525,1.6617e-05,0
1.053,1.4267e-05,0
1.0535,1.4771e-05,0
1.054,1.7121e-05,0
1.0545,1.7792e-05,0
1.055,1.8967e-05,0
1.0555,2.031e-05,0
1.056,1.9303e-05,0
1.0565,1.5946e-05,0
1.057,1.326e-05,0
1.0575,1.3596e-05,0
1.058,1.8463e-05,0
1.0585,2.3331e-05,0
1.059,2.3667e-05,0
1.0595,1.8631e-05,0
1.06,1.326e-05,0
1.0605,1.1414e-05,0
1.061,1.0575e-05,0
1.0615,1.0239e-05,0
1.062,1.0575e-05,0
1.0625,1.0239e-05,0
1.063,8.5603e-06,0
1.0635,7.2175e-06,0
1.064,7.7211e-06,0
1.0645,9.2317e-06,0
1.065,8.0568e-06,0
1.0655,6.2104e-06,0
1.066,7.8889e-06,0
1.0665,1.2253e-05,0
1.067,1.8799e-05,0
1.0675,2.3499e-05,0
1.068,2.1653e-05,0
1.0685,1.6281e-05,0
1.069,1.2253e-05,0
1.0695,1.1246e-05,0
1.07,1.091e-05,0
1.0705,1.1917e-05,0
1.071,1.561e-05,0
1.0715,2.0981e-05,0
1.072,2.4506e-05,0
1.0725,2.5009e-05,0
1.073,2.266e-05,0
1.0735,1.9974e-05,0
1.074,1.7624e-05,0
1.0745,1.561e-05,0
1.075,1.3932e-05,0
1.0755,1.4267e-05,0
1.076,1.2589e-05,0
1.0765,1.1917e-05,0
1.077,1.5106e-05,0
1.0775,2.1317e-05,0
1.078,2.7695e-05,0
1.0785,3.2731e-05,0
1.079,3.5248e-05,0
1.0795,3.4409e-05,0
1.08,3.1556e-05,0
1.0805,2.887e-05,0
1.081,2.7192e-05,0
1.0815,2.6688e-05,0
1.082,2.6184e-05,0
1.0825,2.4506e-05,0
1.083,2.4674e-05,0
1.0835,2.3835e-05,0
1.084,2.0646e-05,0
1.0845,1.5946e-05,0
1.085,1.1078e-05,0
1.0855,8.2246e-06,0
1.086,6.8818e-06,0
1.0865,6.5461e-06,0
1.087,9.2317e-06,0
1.0875,1.4939e-05,0
1.088,1.8128e-05,0
1.0885,1.947e-05,0
1.089,1.796e-05,0
1.0895,1.3932e-05,0
1.09,1.0575e-05,0
1.0905,1.1246e-05,0
1.091,1.4267e-05,0
1.0915,1.7456e-05,0
1.092,1.8296e-05,0
1.0925,1.5778e-05,0
1.093,1.2589e-05,0
1.0935,1.1078e-05,0
1.094,9.2317e-06,0
1.0945,9.5674e-06,0
1.095,1.326e-05,0
1.0955,1.8463e-05,0
1.096,2.4674e-05,0
1.0965,3.0045e-05,0
1.097,3.4409e-05,0
1.0975,3.743e-05,0
1.098,3.6759e-05,0
1.0985,3.122e-05,0
1.099,2.5849e-05,0
1.0995,2.3163e-05,0
1.1,2.3667e-05,0
1.1005,2.6017e-05,0
1.101,2.5009e-05,0
1.1015,2.3499e-05,0
1.102,2.5177e-05,0
1.1025,2.5849e-05,0
1.103,2.266e-05,0
1.1035,1.8631e-05,0
1.104,1.7288e-05,0
1.1045,1.6953e-05,0
1.105,1.561e-05,0
1.1055,1.5946e-05,0
1.106,1.9303e-05,0
1.1065,2.1317e-05,0
1.107,2.0478e-05,0
1.1075,1.8631e-05,0
1.108,1.9303e-05,0
1.1085,2.266e-05,0
1.109,2.2156e-05,0
1.1095,1.7792e-05,0
1.11,1.4939e-05,0
1.1105,1.6449e-05,0
1.111,1.9974e-05,0
1.1115,2.1317e-05,0
1.112,2.1317e-05,0
1.1125,2.0646e-05,0
1.113,1.9303e-05,0
1.1135,2.0646e-05,0
1.114,2.1988e-05,0
1.1145,2.2492e-05,0
1.115,2.1653e-05,0
1.1155,2.0981e-05,0
1.116,2.1317e-05,0
1.1165,2.1988e-05,0
1.117,2.1317e-05,0
1.1175,1.9974e-05,0
1.118,1.9135e-05,0
1.1185,1.9135e-05,0
1.119,1.8128e-05,0
1.1195,1.8463e-05,0
1.12,1.9135e-05,0
1.1205,1.6785e-05,0
1.121,1.3428e-05,0
1.1215,1.1246e-05,0
1.122,1.0239e-05,0
1.1225,9.3996e-06,0
1.123,9.7353e-06,0
1.1235,1.1917e-05,0
1.124,1.2421e-05,0
1.1245,1.1246e-05,0
1.125,1.1246e-05,0
1.1255,1.1246e-05,0
1.126,1.0575e-05,0
1.1265,1.1246e-05,0
1.127,1.1246e-05,0
1.1275,1.0575e-05,0
1.128,1.0407e-05,0
1.1285,1.3596e-05,0
1.129,1.7624e-05,0
1.1295,1.8967e-05,0
1.13,1.796e-05,0
1.1305,1.6617e-05,0
1.131,1.5274e-05,0
1.1315,1.4267e-05,0
1.132,1.4939e-05,0
1.1325,1.561e-05,0
1.133,1.6617e-05,0
1.1335,1.8799e-05,0
1.134,2.0142e-05,0
1.1345,1.9806e-05,0
1.135,1.8631e-05,0
1.1355,1.7624e-05,0
1.136,1.7288e-05,0
1.1365,1.7624e-05,0
1.137,1.8631e-05,0
1.1375,2.0142e-05,0
1.138,2.1988e-05,0
1.1385,2.5177e-05,0
1.139,2.6017e-05,0
1.1395,2.4674e-05,0
1.14,2.3331e-05,0
1.1405,2.3667e-05,0
1.141,2.3667e-05,0
1.1415,2.3331e-05,0
1.142,2.2995e-05,0
1.1425,2.3331e-05,0
1.143,2.3331e-05,0
1.1435,2.3331e-05,0
1.144,2.3499e-05,0
1.1445,2.2828e-05,0
1.145,2.266e-05,0
1.1455,2.0981e-05,0
1.146,1.8799e-05,0
1.1465,1.7624e-05,0
1.147,1.7624e-05,0
1.1475,1.7624e-05,0
1.148,1.7456e-05,0
1.1485,1.796e-05,0
1.149,1.6617e-05,0
1.1495,1.5274e-05,0
1.15,1.561e-05,0
1.1505,1.7288e-05,0
1.151,1.8128e-05,0
1.1515,1.7792e-05,0
1.152,1.8463e-05,0
1.1525,1.8967e-05,0
1.153,1.8128e-05,0
1.1535,1.7288e-05,0
1.154,1.796e-05,0
1.1545,1.7288e-05,0
1.155,1.4603e-05,0
1.1555,1.2924e-05,0
1.156,1.326e-05,0
1.1565,1.5442e-05,0
1.157,1.6281e-05,0
1.1575,1.6449e-05,0
1.158,1.5946e-05,0
1.1585,1.561e-05,0
1.159,1.5946e-05,0
1.1595,1.7624e-05,0
1.16,1.7288e-05,0
1.1605,1.561e-05,0
1.161,1.6449e-05,0
1.1615,1.8967e-05,0
1.162,2.1317e-05,0
1.1625,2.3331e-05,0
1.163,2.3667e-05,0
1.1635,2.266e-05,0
1.164,2.031e-05,0
1.1645,1.8631e-05,0
1.165,1.8296e-05,0
1.1655,1.8967e-05,0
1.166,1.9974e-05,0
1.1665,2.1317e-05,0
1.167,2.1988e-05,0
1.1675,2.2324e-05,0
1.168,2.1149e-05,0
1.1685,1.9638e-05,0
1.169,1.9806e-05,0
1.1695,2.1149e-05,0
1.17,2.2492e-05,0
1.1705,2.182e-05,0
1.171,2.0646e-05,0
1.1715,2.0478e-05,0
1.172,2.0981e-05,0
1.1725,2.1149e-05,0
1.173,1.9806e-05,0
1.1735,1.8631e-05,0
1.174,1.9135e-05,0
1.1745,1.9638e-05,0
1.175,1.9638e-05,0
1.1755,1.8463e-05,0
1.176,1.7624e-05,0
1.1765,2.0646e-05,0
1.177,2.2995e-05,0
1.1775,2.1988e-05,0
1.178,2.031e-05,0
1.1785,1.9638e-05,0
1.179,1.8463e-05,0
1.1795,1.7624e-05,0
1.18,1.6953e-05,0
1.1805,1.561e-05,0
1.181,1.4939e-05,0
1.1815,1.5946e-05,0
1.182,1.6617e-05,0
1.1825,1.7288e-05,0
1.183,1.8463e-05,0
1.1835,1.7456e-05,0
1.184,1.7288e-05,0
1.1845,1.7624e-05,0
1.185,1.796e-05,0
1.1855,1.8799e-05,0
1.186,2.031e-05,0
1.1865,2.1317e-05,0
1.187,2.0646e-05,0
1.1875,1.7288e-05,0
1.188,1.6449e-05,0
1.1885,1.7121e-05,0
1.189,1.6281e-05,0
1.1895,1.4603e-05,0
1.19,1.3932e-05,0
1.1905,1.4603e-05,0
1.191,1.5946e-05,0
1.1915,1.7288e-05,0
1.192,1.8631e-05,0
1.1925,1.8296e-05,0
1.193,1.7288e-05,0
1.1935,1.6953e-05,0
1.194,1.6953e-05,0
1.1945,1.6617e-05,0
1.195,1.5778e-05,0
1.1955,1.4771e-05,0
1.196,1.4603e-05,0
1.1965,1.4099e-05,0
1.197,1.326e-05,0
1.1975,1.2253e-05,0
1.198,1.1246e-05,0
1.1985,1.1246e-05,0
1.199,1.3932e-05,0
1.1995,1.5946e-05,0
1.2,1.5274e-05,0
1.2005,1.5778e-05,0
1.201,1.9135e-05,0
1.2015,2.0646e-05,0
1.202,1.9638e-05,0
1.2025,1.7456e-05,0
1.203,1.5946e-05,0
1.2035,1.6449e-05,0
1.204,1.8631e-05,0
1.2045,2.1317e-05,0
1.205,2.266e-05,0
1.2055,2.2324e-05,0
1.206,2.1317e-05,0
1.2065,2.1317e-05,0
1.207,2.266e-05,0
1.2075,2.4002e-05,0
1.208,2.3163e-05,0
1.2085,2.2492e-05,0
1.209,2.1317e-05,0
1.2095,1.9638e-05,0
1.21,1.8296e-05,0
1.2105,1.8296e-05,0
1.211,1.9806e-05,0
1.2115,2.2324e-05,0
1.212,2.3163e-05,0
1.2125,2.266e-05,0
1.213,2.2324e-05,0
1.2135,2.2492e-05,0
1.214,2.3331e-05,0
1.2145,2.5177e-05,0
1.215,2.4506e-05,0
1.2155,2.031e-05,0
1.216,1.8296e-05,0
1.2165,1.9638e-05,0
1.217,2.1988e-05,0
1.2175,2.0981e-05,0
1.218,1.8128e-05,0
1.2185,1.7624e-05,0
1.219,1.947e-05,0
1.2195,2.1317e-05,0
1.22,2.1317e-05,0
1.2205,2.2156e-05,0
1.221,2.4002e-05,0
1.2215,2.4338e-05,0
1.222,2.1988e-05,0
1.2225,1.8128e-05,0
1.223,1.5946e-05,0
1.2235,1.7288e-05,0
1.224,1.8967e-05,0
1.2245,2.0646e-05,0
1.225,2.0646e-05,0
1.2255,1.8967e-05,0
1.226,1.9303e-05,0
1.2265,2.0646e-05,0
1.227,1.9135e-05,0
1.2275,1.7288e-05,0
1.228,1.5274e-05,0
1.2285,1.3596e-05,0
1.229,1.2085e-05,0
1.2295,9.7353e-06,0
1.23,7.8889e-06,0
1.2305,7.8889e-06,0
1.231,9.9031e-06,0
1.2315,1.3596e-05,0
1.232,1.6449e-05,0
1.2325,1.8631e-05,0
1.233,2.1653e-05,0
1.2335,2.6352e-05,0
1.234,2.9374e-05,0
1.2345,3.0716e-05,0
1.235,3.0045e-05,0
1.2355,2.7359e-05,0
1.236,2.2995e-05,0
1.2365,1.9806e-05,0
1.237,1.9638e-05,0
1.2375,1.9303e-05,0
1.238,1.7792e-05,0
1.2385,1.5946e-05,0
1.239,1.4603e-05,0
1.2395,1.326e-05,0
1.24,1.2924e-05,0
1.2405,1.2757e-05,0
1.241,1.3932e-05,0
1.2415,1.561e-05,0
1.242,1.8631e-05,0
1.2425,2.1988e-05,0
1.243,2.5177e-05,0
1.2435,2.7359e-05,0
1.244,2.7359e-05,0
1.2445,2.4002e-05,0
1.245,2.3835e-05,0
1.2455,2.652e-05,0
1.246,2.5345e-05,0
1.2465,2.2324e-05,0
1.247,2.1317e-05,0
1.2475,1.9974e-05,0
1.248,1.5946e-05,0
1.2485,1.2253e-05,0
1.249,1.0575e-05,0
1.2495,9.9031e-06,0
1.25,1.1917e-05,0
1.2505,1.3764e-05,0
1.251,1.5274e-05,0
1.2515,1.7624e-05,0
1.252,2.0646e-05,0
1.2525,2.2156e-05,0
1.253,2.3331e-05,0
1.2535,2.266e-05,0
1.254,2.031e-05,0
1.2545,1.796e-05,0
1.255,1.7792e-05,0
1.2555,1.8631e-05,0
1.256,1.947e-05,0
1.2565,1.9638e-05,0
1.257,1.796e-05,0
1.2575,1.5946e-05,0
1.258,1.5442e-05,0
1.2585,1.7288e-05,0
1.259,1.9638e-05,0
1.2595,1.8967e-05,0
1.26,1.796e-05,0
1.2605,1.7624e-05,0
1.261,1.7121e-05,0
1.2615,1.4939e-05,0
1.262,1.2924e-05,0
1.2625,1.326e-05,0
1.263,1.7624e-05,0
1.2635,2.2324e-05,0
1.264,2.2324e-05,0
1.2645,1.9974e-05,0
1.265,1.9806e-05,0
1.2655,2.0478e-05,0
1.266,2.1653e-05,0
1.2665,2.4506e-05,0
1.267,2.8367e-05,0
1.2675,2.8031e-05,0
1.268,2.3499e-05,0
1.2685,1.796e-05,0
1.269,1.3932e-05,0
1.2695,9.9031e-06,0
1.27,4.8676e-06,0
1.2705,0,0
1.271,-5.539e-06,0
1.2715,-7.7211e-06,0
1.272,-4.1962e-06,0
1.2725,0,0
1.273,5.0355e-06,0
1.2735,1.1414e-05,0
1.274,2.031e-05,0
1.2745,2.7359e-05,0
1.275,3.0381e-05,0
1.2755,3.1052e-05,0
1.276,3.2731e-05,0
1.2765,3.4745e-05,0
1.277,3.3402e-05,0
1.2775,3.0045e-05,0
1.278,2.9374e-05,0
1.2785,2.8702e-05,0
1.279,2.6352e-05,0
1.2795,2.4338e-05,0
1.28,2.0646e-05,0
1.2805,1.5946e-05,0
1.281,1.326e-05,0
1.2815,1.3932e-05,0
1.282,1.4603e-05,0
1.2825,1.2924e-05,0
1.283,9.5674e-06,0
1.2835,8.2246e-06,0
1.284,9.3996e-06,0
1.2845,1.0575e-05,0
1.285,1.1246e-05,0
1.2855,1.0575e-05,0
1.286,9.5674e-06,0
1.2865,8.2246e-06,0
1.287,7.2175e-06,0
1.2875,9.5674e-06,0
1.288,1.1582e-05,0
1.2885,1.1749e-05,0
1.289,1.326e-05,0
1.2895,1.8128e-05,0
1.29,2.4002e-05,0
1.2905,2.6688e-05,0
1.291,2.5009e-05,0
1.2915,2.3331e-05,0
1.292,2.1653e-05,0
1.2925,1.8296e-05,0
1.293,1.3932e-05,0
1.2935,1.091e-05,0
1.294,9.5674e-06,0
1.2945,1.0575e-05,0
1.295,1.2253e-05,0
1.2955,1.5946e-05,0
1.296,2.1988e-05,0
1.2965,2.4506e-05,0
1.297,2.266e-05,0
1.2975,2.266e-05,0
1.298,2.4674e-05,0
1.2985,2.6352e-05,0
1.299,2.7192e-05,0
1.2995,2.5681e-05,0
1.3,2.182e-05,0
1.3005,1.8631e-05,0
1.301,1.796e-05,0
1.3015,1.8631e-05,0
1.302,1.9974e-05,0
1.3025,2.1988e-05,0
1.303,2.5345e-05,0
1.3035,3.1724e-05,0
1.304,3.7934e-05,0
1.3045,3.9445e-05,0
1.305,3.7934e-05,0
1.3055,3.4073e-05,0
1.306,2.8367e-05,0
1.3065,2.3667e-05,0
1.307,2.0478e-05,0
1.3075,1.7624e-05,0
1.308,1.4603e-05,0
1.3085,1.1582e-05,0
1.309,1.0407e-05,0
1.3095,1.1917e-05,0
1.31,1.326e-05,0
1.3105,1.3596e-05,0
1.311,1.4939e-05,0
1.3115,1.8128e-05,0
1.312,2.031e-05,0
1.3125,1.8463e-05,0
1.313,1.5274e-05,0
1.3135,1.5106e-05,0
1.314,1.8631e-05,0
1.3145,2.0813e-05,0
1.315,1.9638e-05,0
1.3155,1.6953e-05,0
1.316,1.3932e-05,0
1.3165,1.4771e-05,0
1.317,1.5946e-05,0
1.3175,1.561e-05,0
1.318,1.5946e-05,0
1.3185,2.031e-05,0
1.319,2.4002e-05,0
1.3195,2.4674e-05,0
1.32,2.5177e-05,0
1.3205,2.4674e-05,0
1.321,2.2324e-05,0
1.3215,1.9135e-05,0
1.322,1.796e-05,0
1.3225,2.0813e-05,0
1.323,2.5681e-05,0
1.3235,2.7359e-05,0
1.324,2.4674e-05,0
1.3245,2.2995e-05,0
1.325,2.3667e-05,0
1.3255,2.4338e-05,0
1.326,2.4674e-05,0
1.3265,2.3331e-05,0
1.327,2.1317e-05,0
1.3275,2.0981e-05,0
1.328,2.0981e-05,0
1.3285,2.3331e-05,0
1.329,2.7863e-05,0
1.3295,3.0716e-05,0
1.33,2.8702e-05,0
1.3305,2.4002e-05,0
1.331,2.0813e-05,0
1.3315,1.9303e-05,0
1.332,1.7121e-05,0
1.3325,1.6281e-05,0
1.333,1.5946e-05,0
1.3335,1.2253e-05,0
1.334,8.3925e-06,0
1.3345,7.8889e-06,0
1.335,1.0407e-05,0
1.3355,1.1582e-05,0
1.336,1.0575e-05,0
1.3365,1.0575e-05,0
1.337,1.2253e-05,0
1.3375,1.5274e-05,0
1.338,1.6785e-05,0
1.3385,1.561e-05,0
1.339,1.4603e-05,0
1.3395,1.3596e-05,0
1.34,1.1917e-05,0
1.3405,1.0407e-05,0
1.341,1.091e-05,0
1.3415,1.4267e-05,0
1.342,1.7288e-05,0
1.3425,1.796e-05,0
1.343,1.4603e-05,0
1.3435,8.896e-06,0
1.344,4.3641e-06,0
1.3445,2.5177e-06,0
1.345,2.5177e-06,0
1.3455,2.182e-06,0
1.346,2.5177e-06,0
1.3465,3.357e-06,0
1.347,4.6998e-06,0
1.3475,6.8818e-06,0
1.348,8.3925e-06,0
1.3485,9.2317e-06,0
1.349,1.2589e-05,0
1.3495,1.7792e-05,0
1.35,2.1317e-05,0
1.3505,2.2995e-05,0
1.351,2.7359e-05,0
1.3515,3.6591e-05,0
1.352,4.6159e-05,0
1.3525,4.8173e-05,0
1.353,4.1962e-05,0
1.3535,3.0045e-05,0
1.354,2.1988e-05,0
1.3545,2.1317e-05,0
1.355,2.3331e-05,0
1.3555,2.3835e-05,0
1.356,2.2995e-05,0
1.3565,2.1988e-05,0
1.357,2.0646e-05,0
1.3575,2.182e-05,0
1.358,2.3331e-05,0
1.3585,2.4338e-05,0
1.359,2.4674e-05,0
1.3595,2.2324e-05,0
1.36,1.8296e-05,0
1.3605,1.5274e-05,0
1.361,1.4939e-05,0
1.3615,1.5946e-05,0
1.362,1.6617e-05,0
1.3625,1.5946e-05,0
1.363,1.6281e-05,0
1.3635,1.6617e-05,0
1.364,1.6617e-05,0
1.3645,1.6617e-05,0
1.365,1.4939e-05,0
1.3655,1.326e-05,0
1.366,1.3596e-05,0
1.3665,1.4939e-05,0
1.367,1.4939e-05,0
1.3675,1.4939e-05,0
1.368,1.4939e-05,0
1.3685,1.5274e-05,0
1.369,1.5442e-05,0
1.3695,1.5946e-05,0
1.37,1.561e-05,0
1.3705,1.4771e-05,0
1.371,1.4603e-05,0
1.3715,1.561e-05,0
1.372,1.7624e-05,0
1.3725,1.8296e-05,0
1.373,1.5946e-05,0
1.3735,1.3764e-05,0
1.374,1.4267e-05,0
1.3745,1.5778e-05,0
1.375,1.6953e-05,0
1.3755,1.5946e-05,0
1.376,1.4603e-05,0
1.3765,1.6953e-05,0
1.377,2.3331e-05,0
1.3775,2.8031e-05,0
1.378,2.8367e-05,0
1.3785,2.5345e-05,0
1.379,2.1988e-05,0
1.3795,2.0478e-05,0
1.38,1.9974e-05,0
1.3805,2.1653e-05,0
1.381,2.1988e-05,0
1.3815,2.1317e-05,0
1.382,2.182e-05,0
1.3825,2.182e-05,0
1.383,1.9135e-05,0
1.3835,1.796e-05,0
1.384,1.8296e-05,0
1.3845,1.5946e-05,0
1.385,1.4603e-05,0
1.3855,1.5106e-05,0
1.386,1.5442e-05,0
1.3865,1.2589e-05,0
1.387,6.8818e-06,0
1.3875,4.5319e-06,0
1.388,8.3925e-06,0
1.3885,1.1246e-05,0
1.389,1.0407e-05,0
1.3895,1.1246e-05,0
1.39,1.3932e-05,0
1.3905,1.561e-05,0
1.391,1.6617e-05,0
1.3915,1.796e-05,0
1.392,1.7624e-05,0
1.3925,1.6449e-05,0
1.393,1.796e-05,0
1.3935,2.1317e-05,0
1.394,2.266e-05,0
1.3945,2.2156e-05,0
1.395,1.8296e-05,0
1.3955,1.4603e-05,0
1.396,1.5106e-05,0
1.3965,1.6281e-05,0
1.397,1.561e-05,0
1.3975,1.4435e-05,0
1.398,1.2085e-05,0
1.3985,1.1414e-05,0
1.399,1.2253e-05,0
1.3995,1.5106e-05,0
1.4,1.9806e-05,0
1.4005,2.1988e-05,0
1.401,2.4674e-05,0
1.4015,2.8367e-05,0
1.402,3.0045e-05,0
1.4025,2.9374e-05,0
1.403,2.8031e-05,0
1.4035,2.8702e-05,0
1.404,3.1388e-05,0
1.4045,3.2395e-05,0
1.405,3.122e-05,0
1.4055,2.9374e-05,0
1.406,2.6688e-05,0
1.4065,2.266e-05,0
1.407,2.0478e-05,0
1.4075,2.2324e-05,0
1.408,2.4842e-05,0
1.4085,2.1988e-05,0
1.409,1.9303e-05,0
1.4095,2.0646e-05,0
1.41,1.9974e-05,0
1.4105,1.9638e-05,0
1.411,2.1149e-05,0
1.4115,2.2995e-05,0
1.412,2.266e-05,0
1.4125,2.1988e-05,0
1.413,2.2828e-05,0
1.4135,2.3331e-05,0
1.414,2.2995e-05,0
1.4145,2.3499e-05,0
1.415,2.5345e-05,0
1.4155,2.6017e-05,0
1.416,2.4674e-05,0
1.4165,2.2324e-05,0
1.417,1.8631e-05,0
1.4175,1.6953e-05,0
1.418,1.7288e-05,0
1.4185,1.9135e-05,0
1.419,1.8631e-05,0
1.4195,1.7288e-05,0
1.42,1.6281e-05,0
1.4205,1.5946e-05,0
1.421,1.6617e-05,0
1.4215,1.7288e-05,0
1.422,1.6281e-05,0
1.4225,1.5274e-05,0
1.423,1.6114e-05,0
1.4235,1.7456e-05,0
1.424,1.5946e-05,0
1.4245,1.5946e-05,0
1.425,1.7288e-05,0
1.4255,1.6114e-05,0
1.426,1.4939e-05,0
1.4265,1.4603e-05,0
1.427,1.3596e-05,0
1.4275,1.2924e-05,0
1.428,1.4603e-05,0
1.4285,1.7288e-05,0
1.429,1.7624e-05,0
1.4295,1.5946e-05,0
1.43,1.3596e-05,0
1.4305,1.3764e-05,0
1.431,1.561e-05,0
1.4315,1.7456e-05,0
1.432,1.6953e-05,0
1.4325,1.4099e-05,0
1.433,1.1414e-05,0
1.4335,9.9031e-06,0
1.434,1.091e-05,0
1.4345,1.2924e-05,0
1.435,1.326e-05,0
1.4355,1.4603e-05,0
1.436,1.7288e-05,0
1.4365,1.8296e-05,0
1.437,1.7288e-05,0
1.4375,1.6617e-05,0
1.438,1.8631e-05,0
1.4385,2.0981e-05,0
1.439,2.1317e-05,0
1.4395,1.8631e-05,0
1.44,1.796e-05,0
1.4405,1.9974e-05,0
1.441,2.1988e-05,0
1.4415,2.2324e-05,0
1.442,2.2995e-05,0
1.4425,2.4002e-05,0
1.443,2.3835e-05,0
1.4435,2.3667e-05,0
1.444,2.5849e-05,0
1.4445,2.6352e-05,0
1.445,2.5513e-05,0
1.4455,2.6017e-05,0
1.446,2.7695e-05,0
1.4465,2.8031e-05,0
1.447,2.6688e-05,0
1.4475,2.3331e-05,0
1.448,1.9303e-05,0
1.4485,1.7792e-05,0
1.449,1.6281e-05,0
1.4495,1.4603e-05,0
1.45,1.2253e-05,0
1.4505,9.7353e-06,0
1.451,8.5603e-06,0
1.4515,8.5603e-06,0
1.452,8.896e-06,0
1.4525,9.9031e-06,0
1.453,1.2924e-05,0
1.4535,1.4267e-05,0
1.454,1.3932e-05,0
1.4545,1.7121e-05,0
1.455,2.3835e-05,0
1.4555,2.8702e-05,0
1.456,2.9038e-05,0
1.4565,2.6017e-05,0
1.457,2.2324e-05,0
1.4575,2.031e-05,0
1.458,1.9303e-05,0
1.4585,1.8967e-05,0
1.459,2.031e-05,0
1.4595,2.0981e-05,0
1.46,1.9303e-05,0
1.4605,1.5946e-05,0
1.461,1.326e-05,0
1.4615,9.9031e-06,0
1.462,6.2104e-06,0
1.4625,8.2246e-06,0
1.463,1.5274e-05,0
1.4635,2.0981e-05,0
1.464,2.1149e-05,0
1.4645,1.5946e-05,0
1.465,9.5674e-06,0
1.4655,6.5461e-06,0
1.466,8.5603e-06,0
1.4665,1.326e-05,0
1.467,1.5946e-05,0
1.4675,1.9638e-05,0
1.468,2.266e-05,0
1.4685,2.2324e-05,0
1.469,1.9974e-05,0
1.4695,1.9303e-05,0
1.47,2.031e-05,0
1.4705,2.3667e-05,0
1.471,3.0045e-05,0
1.4715,3.5248e-05,0
1.472,3.4073e-05,0
1.4725,2.9877e-05,0
1.473,3.2731e-05,0
1.4735,4.0452e-05,0
1.474,4.213e-05,0
1.4745,3.743e-05,0
1.475,3.0045e-05,0
1.4755,2.4002e-05,0
1.476,2.1317e-05,0
1.4765,1.9303e-05,0
1.477,1.8128e-05,0
1.4775,1.5946e-05,0
1.478,1.3092e-05,0
1.4785,1.1078e-05,0
1.479,1.1078e-05,0
1.4795,1.0407e-05,0
1.48,8.5603e-06,0
1.4805,8.5603e-06,0
1.481,9.9031e-06,0
1.4815,1.1414e-05,0
1.482,1.1917e-05,0
1.4825,1.0575e-05,0
1.483,9.3996e-06,0
1.4835,1.0575e-05,0
1.484,1.2757e-05,0
1.4845,1.6953e-05,0
1.485,2.4338e-05,0
1.4855,3.1388e-05,0
1.486,3.2227e-05,0
1.4865,2.887e-05,0
1.487,2.6017e-05,0
1.4875,2.5177e-05,0
1.488,2.5177e-05,0
1.4885,2.4002e-05,0
1.489,2.1988e-05,0
1.4895,2.0646e-05,0
1.49,1.8967e-05,0
1.4905,1.5106e-05,0
1.491,1.1582e-05,0
1.4915,1.0239e-05,0
1.492,1.1078e-05,0
1.4925,1.0071e-05,0
1.493,7.5532e-06,0
1.4935,3.1891e-06,0
1.494,0,0
1.4945,0,0
1.495,4.1962e-06,0
1.4955,9.2317e-06,0
1.496,1.1917e-05,0
1.4965,1.3092e-05,0
1.497,1.1917e-05,0
1.4975,1.0575e-05,0
1.498,1.1078e-05,0
1.4985,1.3764e-05,0
1.499,1.6953e-05,0
1.4995,1.7121e-05,0
1.5,1.3764e-05,0
1.5005,9.5674e-06,0
1.501,6.5461e-06,0
1.5015,7.8889e-06,0
1.502,1.1917e-05,0
1.5025,1.326e-05,0
1.503,7.8889e-06,0
1.5035,5.035e-07,0
1.504,-2.3499e-06,0
1.5045,4.0284e-06,0
1.505,1.796e-05,0
1.5055,3.3738e-05,0
1.506,4.3305e-05,0
1.5065,4.3809e-05,0
1.507,4.1291e-05,0
1.5075,4.1123e-05,0
1.508,4.3305e-05,0
1.5085,4.7837e-05,0
1.509,5.0523e-05,0
1.5095,4.7669e-05,0
1.51,4.0452e-05,0
1.5105,3.3402e-05,0
1.511,2.7359e-05,0
1.5115,2.0981e-05,0
1.512,1.561e-05,0
1.5125,1.2253e-05,0
1.513,1.0239e-05,0
1.5135,1.0575e-05,0
1.514,1.2253e-05,0
1.5145,1.2589e-05,0
1.515,1.3092e-05,0
1.5155,1.4939e-05,0
1.516,1.7624e-05,0
1.5165,2.1317e-05,0
1.517,2.4674e-05,0
1.5175,2.7192e-05,0
1.518,3.0213e-05,0
1.5185,3.0716e-05,0
1.519,2.6017e-05,0
1.5195,1.8296e-05,0
1.52,1.3092e-05,0
1.5205,1.2421e-05,0
1.521,1.561e-05,0
1.5215,1.7624e-05,0
1.522,1.4603e-05,0
1.5225,9.9031e-06,0
1.523,6.3783e-06,0
1.5235,4.6998e-06,0
1.524,4.1962e-06,0
1.5245,2.8534e-06,0
1.525,-3.357e-07,0
1.5255,-1.1749e-06,0
1.526,1.1749e-06,0
1.5265,5.539e-06,0
1.527,1.0239e-05,0
1.5275,1.4267e-05,0
1.528,1.6785e-05,0
1.5285,1.5778e-05,0
1.529,1.2421e-05,0
1.5295,1.326e-05,0
1.53,1.7288e-05,0
1.5305,1.9974e-05,0
1.531,1.9974e-05,0
1.5315,1.796e-05,0
1.532,1.561e-05,0
1.5325,1.2589e-05,0
1.533,1.0575e-05,0
1.5335,1.4939e-05,0
1.534,2.1317e-05,0
1.5345,2.3667e-05,0
1.535,2.5681e-05,0
1.5355,2.9542e-05,0
1.536,3.2731e-05,0
1.5365,3.4073e-05,0
1.537,3.3402e-05,0
1.5375,3.2059e-05,0
1.538,3.0045e-05,0
1.5385,2.8534e-05,0
1.539,2.8031e-05,0
1.5395,2.7024e-05,0
1.54,2.7024e-05,0
1.5405,3.2395e-05,0
1.541,4.1795e-05,0
1.5415,4.7166e-05,0
1.542,4.7837e-05,0
1.5425,4.8005e-05,0
1.543,4.5487e-05,0
1.5435,4.0787e-05,0
1.544,3.1388e-05,0
1.5445,2.3163e-05,0
1.545,2.0142e-05,0
1.5455,1.7288e-05,0
1.546,1.2085e-05,0
1.5465,8.5603e-06,0
1.547,8.2246e-06,0
1.5475,7.5532e-06,0
1.548,8.2246e-06,0
1.5485,1.2253e-05,0
1.549,1.7121e-05,0
1.5495,1.7792e-05,0
1.55,1.2757e-05,0
1.5505,6.8818e-06,0
1.551,4.5319e-06,0
1.5515,4.0284e-06,0
1.552,4.5319e-06,0
1.5525,5.8747e-06,0
1.553,6.3783e-06,0
1.5535,7.8889e-06,0
1.554,1.1582e-05,0
1.5545,1.5274e-05,0
1.555,1.4939e-05,0
1.5555,8.2246e-06,0
1.556,1.5106e-06,0
1.5565,1.1749e-06,0
1.557,3.5248e-06,0
1.5575,3.1891e-06,0
1.558,1.1749e-06,0
1.5585,-1.5106e-06,0
1.559,-3.8605e-06,0
1.5595,-5.0355e-06,0
1.56,-5.539e-06,0
1.5605,-4.3641e-06,0
1.561,-1.5106e-06,0
1.5615,8.392e-07,0
1.562,2.6856e-06,0
1.5625,6.2104e-06,0
1.563,1.2421e-05,0
1.5635,2.031e-05,0
1.564,2.6688e-05,0
1.5645,2.7695e-05,0
1.565,2.3331e-05,0
1.5655,1.8967e-05,0
1.566,1.8967e-05,0
1.5665,2.5009e-05,0
1.567,3.2731e-05,0
1.5675,3.5416e-05,0
1.568,3.3738e-05,0
1.5685,3.4745e-05,0
1.569,3.6088e-05,0
1.5695,3.5248e-05,0
1.57,3.122e-05,0
1.5705,2.6352e-05,0
1.571,2.3835e-05,0
1.5715,2.1317e-05,0
1.572,1.9303e-05,0
1.5725,1.8631e-05,0
1.573,1.8631e-05,0
1.5735,1.796e-05,0
1.574,1.7624e-05,0
1.5745,1.796e-05,0
1.575,1.4603e-05,0
1.5755,9.9031e-06,0
1.576,5.8747e-06,0
1.5765,5.0355e-06,0
1.577,8.2246e-06,0
1.5775,1.2589e-05,0
1.578,1.5274e-05,0
1.5785,1.8631e-05,0
1.579,2.3331e-05,0
1.5795,2.7695e-05,0
1.58,3.1724e-05,0
1.5805,3.5416e-05,0
1.581,3.8102e-05,0
1.5815,3.978e-05,0
1.582,4.1459e-05,0
1.5825,4.0787e-05,0
1.583,3.743e-05,0
1.5835,3.4745e-05,0
1.584,3.122e-05,0
1.5845,2.5681e-05,0
1.585,2.3163e-05,0
1.5855,2.4338e-05,0
1.586,2.7024e-05,0
1.5865,2.9542e-05,0
1.587,2.8367e-05,0
1.5875,2.4842e-05,0
1.588,2.266e-05,0
1.5885,2.1988e-05,0
1.589,2.1317e-05,0
1.5895,1.8463e-05,0
1.59,1.561e-05,0
1.5905,1.561e-05,0
1.591,1.3932e-05,0
1.5915,1.0407e-05,0
1.592,7.2175e-06,0
1.5925,4.5319e-06,0
1.593,2.0142e-06,0
1.5935,1.678e-07,0
1.594,-1.8463e-06,0
1.5945,-5.7069e-06,0
1.595,-8.7282e-06,0
1.5955,-6.3783e-06,0
1.596,5.035e-07,0
1.5965,8.2246e-06,0
1.597,1.5106e-05,0
1.5975,2.0646e-05,0
1.598,2.2324e-05,0
1.5985,2.0646e-05,0
1.599,2.0981e-05,0
1.5995,2.0981e-05,0
1.6,2.3499e-05,0
1.6005,2.8702e-05,0
1.601,3.2563e-05,0
1.6015,3.2731e-05,0
1.602,3.3066e-05,0
1.6025,3.5752e-05,0
1.603,3.7262e-05,0
1.6035,3.508e-05,0
1.604,3.1052e-05,0
1.6045,3.122e-05,0
1.605,3.4409e-05,0
1.6055,3.5752e-05,0
1.606,3.3402e-05,0
1.6065,2.9709e-05,0
1.607,2.8367e-05,0
1.6075,2.7359e-05,0
1.608,2.6017e-05,0
1.6085,2.4674e-05,0
1.609,1.9974e-05,0
1.6095,1.2924e-05,0
1.61,7.2175e-06,0
1.6105,3.6927e-06,0
1.611,5.035e-07,0
1.6115,-3.1891e-06,0
1.612,-4.8676e-06,0
1.6125,-4.8676e-06,0
1.613,-5.2033e-06,0
1.6135,-2.182e-06,0
1.614,6.5461e-06,0
1.6145,1.561e-05,0
1.615,2.0478e-05,0
1.6155,2.2995e-05,0
1.616,2.7359e-05,0
1.6165,3.3066e-05,0
1.617,3.508e-05,0
1.6175,3.4073e-05,0
1.618,3.0549e-05,0
1.6185,2.6688e-05,0
1.619,2.4002e-05,0
1.6195,2.1988e-05,0
1.62,1.9974e-05,0
1.6205,1.8631e-05,0
1.621,1.6449e-05,0
1.6215,1.4603e-05,0
1.622,1.3932e-05,0
1.6225,1.561e-05,0
1.623,1.6449e-05,0
1.6235,1.561e-05,0
1.624,1.5946e-05,0
1.6245,1.7792e-05,0
1.625,1.8631e-05,0
1.6255,1.947e-05,0
1.626,2.031e-05,0
1.6265,1.9638e-05,0
1.627,1.9303e-05,0
1.6275,1.796e-05,0
1.628,1.3932e-05,0
1.6285,1.1917e-05,0
1.629,1.326e-05,0
1.6295,1.561e-05,0
1.63,1.7288e-05,0
1.6305,1.7792e-05,0
1.631,1.3932e-05,0
1.6315,7.8889e-06,0
1.632,3.1891e-06,0
1.6325,2.182e-06,0
1.633,2.0142e-06,0
1.6335,5.035e-07,0
1.634,-5.035e-07,0
1.6345,1.678e-07,0
1.635,-8.392e-07,0
1.6355,-1.1749e-06,0
1.636,5.035e-07,0
1.6365,1.8463e-06,0
1.637,4.8676e-06,0
1.6375,1.1582e-05,0
1.638,1.8631e-05,0
1.6385,2.7359e-05,0
1.639,3.6088e-05,0
1.6395,3.9445e-05,0
1.64,3.7262e-05,0
1.6405,3.3066e-05,0
1.641,3.0381e-05,0
1.6415,3.1052e-05,0
1.642,3.4073e-05,0
1.6425,3.5416e-05,0
1.643,3.3234e-05,0
1.6435,3.1388e-05,0
1.644,3.1724e-05,0
1.6445,3.122e-05,0
1.645,2.8031e-05,0
1.6455,2.4506e-05,0
1.646,2.1317e-05,0
1.6465,1.8631e-05,0
1.647,1.7121e-05,0
1.6475,1.7624e-05,0
1.648,2.3163e-05,0
1.6485,3.4073e-05,0
1.649,4.2802e-05,0
1.6495,4.5151e-05,0
1.65,4.3305e-05,0
1.6505,4.1291e-05,0
1.651,3.8941e-05,0
1.6515,3.4073e-05,0
1.652,2.5345e-05,0
1.6525,1.5946e-05,0
1.653,5.2033e-06,0
1.6535,-5.2033e-06,0
1.654,-1.3596e-05,0
1.6545,-1.7624e-05,0
1.655,-1.6617e-05,0
1.6555,-1.4603e-05,0
1.656,-1.3764e-05,0
1.6565,-1.0239e-05,0
1.657,-5.0355e-06,0
1.6575,-3.357e-07,0
1.658,7.2175e-06,0
1.6585,1.8296e-05,0
1.659,2.8031e-05,0
1.6595,3.2898e-05,0
1.66,3.4577e-05,0
1.6605,3.4745e-05,0
1.661,3.6423e-05,0
1.6615,3.8773e-05,0
1.662,4.1459e-05,0
1.6625,4.1627e-05,0
1.663,3.7095e-05,0
1.6635,3.1388e-05,0
1.664,2.7695e-05,0
1.6645,2.6856e-05,0
1.665,2.7359e-05,0
1.6655,2.5009e-05,0
1.666,1.8967e-05,0
1.6665,1.326e-05,0
1.667,8.5603e-06,0
1.6675,6.5461e-06,0
1.668,6.8818e-06,0
1.6685,5.7069e-06,0
1.669,1.8463e-06,0
1.6695,-3.8605e-06,0
1.67,-6.8818e-06,0
1.6705,-5.539e-06,0
1.671,-2.3499e-06,0
1.6715,8.392e-07,0
1.672,4.6998e-06,0
1.6725,1.2924e-05,0
1.673,2.266e-05,0
1.6735,2.8031e-05,0
1.674,3.0716e-05,0
1.6745,3.3738e-05,0
1.675,3.6591e-05,0
1.6755,3.9948e-05,0
1.676,4.2802e-05,0
1.6765,3.978e-05,0
1.677,3.1556e-05,0
1.6775,2.6017e-05,0
1.678,2.4506e-05,0
1.6785,2.1653e-05,0
1.679,1.8296e-05,0
1.6795,1.5274e-05,0
1.68,9.9031e-06,0
1.6805,3.8605e-06,0
1.681,-8.392e-07,0
1.6815,-2.0142e-06,0
1.682,3.1891e-06,0
1.6825,1.2253e-05,0
1.683,2.2324e-05,0
1.6835,2.9709e-05,0
1.684,3.0549e-05,0
1.6845,2.4674e-05,0
1.685,2.0981e-05,0
1.6855,2.4002e-05,0
1.686,2.4002e-05,0
1.6865,1.7624e-05,0
1.687,8.5603e-06,0
1.6875,3.357e-07,0
1.688,-3.5248e-06,0
1.6885,-4.0284e-06,0
1.689,-3.1891e-06,0
1.6895,3.357e-07,0
1.69,9.2317e-06,0
1.6905,2.266e-05,0
1.691,3.8102e-05,0
1.6915,5.0187e-05,0
1.692,5.6901e-05,0
1.6925,5.8244e-05,0
1.693,5.6733e-05,0
1.6935,5.0858e-05,0
1.694,4.3473e-05,0
1.6945,4.2634e-05,0
1.695,4.7837e-05,0
1.6955,4.9515e-05,0
1.696,4.4144e-05,0
1.6965,3.978e-05,0
1.697,3.743e-05,0
1.6975,3.3402e-05,0
1.698,2.6184e-05,0
1.6985,1.9135e-05,0
1.699,1.4267e-05,0
1.6995,1.4099e-05,0
1.7,1.5946e-05,0
1.7005,1.561e-05,0
1.701,1.4267e-05,0
1.7015,1.2589e-05,0
1.702,1.1582e-05,0
1.7025,1.2924e-05,0
1.703,1.4771e-05,0
1.7035,1.4603e-05,0
1.704,1.2924e-05,0
1.7045,9.0639e-06,0
1.705,2.182e-06,0
1.7055,-3.8605e-06,0
1.706,-4.8676e-06,0
1.7065,-2.182e-06,0
1.707,-2.182e-06,0
1.7075,-5.2033e-06,0
1.708,-5.2033e-06,0
1.7085,1.678e-07,0
1.709,5.2033e-06,0
1.7095,5.539e-06,0
1.71,4.8676e-06,0
1.7105,4.1962e-06,0
1.711,5.8747e-06,0
1.7115,8.896e-06,0
1.712,1.4099e-05,0
1.7125,2.182e-05,0
1.713,2.9038e-05,0
1.7135,2.9542e-05,0
1.714,2.266e-05,0
1.7145,1.5106e-05,0
1.715,1.1246e-05,0
1.7155,1.091e-05,0
1.716,1.0575e-05,0
1.7165,1.1246e-05,0
1.717,1.1917e-05,0
1.7175,1.0407e-05,0
1.718,6.8818e-06,0
1.7185,5.2033e-06,0
1.719,5.8747e-06,0
1.7195,9.0639e-06,0
1.72,1.1414e-05,0
1.7205,1.1917e-05,0
1.721,1.2253e-05,0
1.7215,1.326e-05,0
1.722,1.326e-05,0
1.7225,1.2924e-05,0
1.723,1.1414e-05,0
1.7235,1.091e-05,0
1.724,1.1749e-05,0
1.7245,1.3428e-05,0
1.725,1.6281e-05,0
1.7255,1.6953e-05,0
1.726,1.5274e-05,0
1.7265,1.1917e-05,0
1.727,7.8889e-06,0
1.7275,7.5532e-06,0
1.728,1.0575e-05,0
1.7285,1.2589e-05,0
1.729,1.1749e-05,0
1.7295,1.1582e-05,0
1.73,1.2589e-05,0
1.7305,1.5106e-05,0
1.731,1.5946e-05,0
1.7315,1.4267e-05,0
1.732,1.1917e-05,0
1.7325,1.2924e-05,0
1.733,1.8463e-05,0
1.7335,2.5849e-05,0
1.734,2.5681e-05,0
1.7345,1.7624e-05,0
1.735,7.5532e-06,0
1.7355,1.1749e-06,0
1.736,-1.8463e-06,0
1.7365,-8.392e-07,0
1.737,9.9031e-06,0
1.7375,2.0981e-05,0
1.738,2.4842e-05,0
1.7385,2.7192e-05,0
1.739,3.508e-05,0
1.7395,4.8173e-05,0
1.74,5.7572e-05,0
1.7405,5.8915e-05,0
1.741,5.388e-05,0
1.7415,4.8173e-05,0
1.742,5.0187e-05,0
1.7425,5.7908e-05,0
1.743,6.3279e-05,0
1.7435,6.2104e-05,0
1.744,5.7237e-05,0
1.7445,5.069e-05,0
1.745,4.3809e-05,0
1.7455,3.8605e-05,0
1.746,3.3906e-05,0
1.7465,2.9374e-05,0
1.747,2.5177e-05,0
1.7475,1.9974e-05,0
1.748,1.4603e-05,0
1.7485,1.1749e-05,0
1.749,9.9031e-06,0
1.7495,7.2175e-06,0
1.75,6.0426e-06,0
1.7505,7.8889e-06,0
1.751,1.1414e-05,0
1.7515,1.3932e-05,0
1.752,1.2589e-05,0
1.7525,9.9031e-06,0
1.753,1.1582e-05,0
1.7535,1.5106e-05,0
1.754,1.6281e-05,0
1.7545,1.561e-05,0
1.755,1.3932e-05,0
1.7555,1.326e-05,0
1.756,1.6449e-05,0
1.7565,2.3331e-05,0
1.757,2.6688e-05,0
1.7575,2.4338e-05,0
1.758,2.1317e-05,0
1.7585,2.1149e-05,0
1.759,2.266e-05,0
1.7595,2.0981e-05,0
1.76,1.796e-05,0
1.7605,1.5778e-05,0
1.761,1.4939e-05,0
1.7615,1.3932e-05,0
1.762,1.2589e-05,0
1.7625,9.7353e-06,0
1.763,7.8889e-06,0
1.7635,6.5461e-06,0
1.764,7.8889e-06,0
1.7645,9.7353e-06,0
1.765,7.5532e-06,0
1.7655,3.5248e-06,0
1.766,2.3499e-06,0
1.7665,4.3641e-06,0
1.767,7.3854e-06,0
1.7675,7.2175e-06,0
1.768,4.3641e-06,0
1.7685,3.8605e-06,0
1.769,7.5532e-06,0
1.7695,1.2253e-05,0
1.77,1.4939e-05,0
1.7705,1.5442e-05,0
1.771,1.5946e-05,0
1.7715,1.561e-05,0
1.772,1.3596e-05,0
1.7725,9.0639e-06,0
1.773,3.357e-06,0
1.7735,2.5177e-06,0
1.774,6.5461e-06,0
1.7745,1.6617e-05,0
1.775,3.0045e-05,0
1.7755,3.9109e-05,0
1.776,4.1123e-05,0
1.7765,4.0955e-05,0
1.777,4.3641e-05,0
1.7775,4.7333e-05,0
1.778,4.4144e-05,0
1.7785,3.4745e-05,0
1.779,2.4674e-05,0
1.7795,1.5274e-05,0
1.78,7.0497e-06,0
1.7805,1.1749e-06,0
1.781,-4.1962e-06,0
1.7815,-7.8889e-06,0
1.782,-1.091e-05,0
1.7825,-8.896e-06,0
1.783,-5.035e-07,0
1.7835,9.0639e-06,0
1.784,1.4267e-05,0
1.7845,1.3932e-05,0
1.785,1.2924e-05,0
1.7855,1.8967e-05,0
1.786,3.1724e-05,0
1.7865,3.9109e-05,0
1.787,3.4409e-05,0
1.7875,2.3667e-05,0
1.788,1.796e-05,0
1.7885,1.6953e-05,0
1.789,1.7288e-05,0
1.7895,1.8631e-05,0
1.79,2.2828e-05,0
1.7905,2.7695e-05,0
1.791,3.1724e-05,0
1.7915,3.2059e-05,0
1.792,2.5345e-05,0
1.7925,1.4267e-05,0
1.793,6.2104e-06,0
1.7935,7.2175e-06,0
1.794,1.1246e-05,0
1.7945,9.7353e-06,0
1.795,5.8747e-06,0
1.7955,4.5319e-06,0
1.796,6.0426e-06,0
1.7965,1.0071e-05,0
1.797,1.4099e-05,0
1.7975,2.1317e-05,0
1.798,2.9038e-05,0
1.7985,3.2059e-05,0
1.799,3.2395e-05,0
1.7995,3.6759e-05,0
1.8,4.5823e-05,0
1.8005,5.153e-05,0
1.801,4.8508e-05,0
1.8015,4.3137e-05,0
1.802,4.1795e-05,0
1.8025,4.0452e-05,0
1.803,3.4409e-05,0
1.8035,2.7359e-05,0
1.804,2.1317e-05,0
1.8045,1.6785e-05,0
1.805,1.0575e-05,0
1.8055,4.3641e-06,0
1.806,3.357e-07,0
1.8065,-5.035e-07,0
1.807,-5.035e-07,0
1.8075,3.357e-07,0
1.808,8.392e-07,0
1.8085,1.1749e-06,0
1.809,5.035e-07,0
1.8095,1.5106e-06,0
1.81,3.357e-06,0
1.8105,6.2104e-06,0
1.811,9.0639e-06,0
1.8115,1.326e-05,0
1.812,1.8463e-05,0
1.8125,2.182e-05,0
1.813,2.2324e-05,0
1.8135,2.0981e-05,0
1.814,2.1317e-05,0
1.8145,2.1988e-05,0
1.815,2.3835e-05,0
1.8155,2.9038e-05,0
1.816,3.3402e-05,0
1.8165,3.2731e-05,0
1.817,2.6688e-05,0
1.8175,2.0142e-05,0
1.818,1.4603e-05,0
1.8185,1.0071e-05,0
1.819,8.2246e-06,0
1.8195,8.2246e-06,0
1.82,6.5461e-06,0
1.8205,6.5461e-06,0
1.821,9.9031e-06,0
1.8215,1.6281e-05,0
1.822,2.2492e-05,0
1.8225,2.4842e-05,0
1.823,2.4002e-05,0
1.8235,2.5681e-05,0
1.824,3.2731e-05,0
1.8245,4.0116e-05,0
1.825,3.9277e-05,0
1.8255,3.0213e-05,0
1.826,1.8631e-05,0
1.8265,1.091e-05,0
1.827,7.7211e-06,0
1.8275,8.7282e-06,0
1.828,1.091e-05,0
1.8285,6.8818e-06,0
1.829,-2.8534e-06,0
1.8295,-1.2253e-05,0
1.83,-1.4435e-05,0
1.8305,-6.8818e-06,0
1.831,5.539e-06,0
1.8315,1.3932e-05,0
1.832,1.7288e-05,0
1.8325,1.8631e-05,0
1.833,2.0981e-05,0
1.8335,2.3835e-05,0
1.834,2.887e-05,0
1.8345,3.0716e-05,0
1.835,2.5345e-05,0
1.8355,1.8967e-05,0
1.836,1.5778e-05,0
1.8365,1.5778e-05,0
1.837,1.4267e-05,0
1.8375,1.326e-05,0
1.838,1.6281e-05,0
1.8385,2.3667e-05,0
1.839,3.3066e-05,0
1.8395,3.978e-05,0
1.84,4.2802e-05,0
1.8405,4.683e-05,0
1.841,5.2201e-05,0
1.8415,6.1097e-05,0
1.842,6.8986e-05,0
1.8425,6.8986e-05,0
1.843,6.2944e-05,0
1.8435,5.3544e-05,0
1.844,4.5151e-05,0
1.8445,3.9109e-05,0
1.845,3.508e-05,0
1.8455,3.2059e-05,0
1.846,2.7024e-05,0
1.8465,1.9303e-05,0
1.847,9.3996e-06,0
1.8475,-8.392e-07,0
1.848,-6.2104e-06,0
1.8485,-5.7069e-06,0
1.849,-3.8605e-06,0
1.8495,-2.3499e-06,0
1.85,1.0071e-06,0
1.8505,2.8534e-06,0
1.851,6.3783e-06,0
1.8515,1.1582e-05,0
1.852,1.1582e-05,0
1.8525,7.8889e-06,0
1.853,5.8747e-06,0
1.8535,8.0568e-06,0
1.854,1.326e-05,0
1.8545,1.7624e-05,0
1.855,2.031e-05,0
1.8555,1.8967e-05,0
1.856,1.4603e-05,0
1.8565,8.5603e-06,0
1.857,5.2033e-06,0
1.8575,4.3641e-06,0
1.858,3.357e-06,0
1.8585,1.1749e-06,0
1.859,-1.678e-07,0
1.8595,0,0
1.86,5.8747e-06,0
1.8605,1.2253e-05,0
1.861,1.5946e-05,0
1.8615,1.796e-05,0
1.862,1.7792e-05,0
1.8625,1.3932e-05,0
1.863,1.0575e-05,0
1.8635,9.2317e-06,0
1.864,7.0497e-06,0
1.8645,4.3641e-06,0
1.865,3.1891e-06,0
1.8655,3.0213e-06,0
1.866,0,0
1.8665,-4.8676e-06,0
1.867,-5.8747e-06,0
1.8675,-1.6785e-06,0
1.868,3.0213e-06,0
1.8685,8.3925e-06,0
1.869,1.5274e-05,0
1.8695,1.9974e-05,0
1.87,1.8631e-05,0
1.8705,1.4603e-05,0
1.871,1.5274e-05,0
1.8715,2.1653e-05,0
1.872,2.6352e-05,0
1.8725,2.5681e-05,0
1.873,2.1653e-05,0
1.8735,1.947e-05,0
1.874,1.8463e-05,0
1.8745,1.3764e-05,0
1.875,8.7282e-06,0
1.8755,1.3932e-05,0
1.876,3.1891e-05,0
1.8765,4.5823e-05,0
1.877,4.7333e-05,0
1.8775,4.2466e-05,0
1.878,3.592e-05,0
1.8785,3.4577e-05,0
1.879,4.2298e-05,0
1.8795,5.5894e-05,0
1.88,6.8986e-05,0
1.8805,7.7211e-05,0
1.881,7.4693e-05,0
1.8815,5.8915e-05,0
1.882,3.5248e-05,0
1.8825,1.8967e-05,0
1.883,1.4267e-05,0
1.8835,1.1917e-05,0
1.884,6.8818e-06,0
1.8845,1.6785e-06,0
1.885,-5.2033e-06,0
1.8855,-1.091e-05,0
1.886,-1.3596e-05,0
1.8865,-1.1749e-05,0
1.887,-3.357e-06,0
1.8875,1.3092e-05,0
1.888,2.7192e-05,0
1.8885,3.3402e-05,0
1.889,3.4409e-05,0
1.8895,3.3738e-05,0
1.89,3.3738e-05,0
1.8905,3.2059e-05,0
1.891,2.7527e-05,0
1.8915,2.5177e-05,0
1.892,2.8199e-05,0
1.8925,3.1724e-05,0
1.893,3.4073e-05,0
1.8935,3.2563e-05,0
1.894,2.6688e-05,0
1.8945,2.1317e-05,0
1.895,1.4771e-05,0
1.8955,6.5461e-06,0
1.896,2.0142e-06,0
1.8965,-8.392e-07,0
1.897,-2.182e-06,0
1.8975,-5.035e-07,0
1.898,-1.5106e-06,0
1.8985,-8.2246e-06,0
1.899,-1.4267e-05,0
1.8995,-1.7288e-05,0
1.9,-1.5946e-05,0
1.9005,-1.0239e-05,0
1.901,-5.2033e-06,0
1.9015,-2.8534e-06,0
1.902,1.8463e-06,0
1.9025,1.1582e-05,0
1.903,2.266e-05,0
1.9035,3.3234e-05,0
1.904,4.2466e-05,0
1.9045,5.0523e-05,0
1.905,5.6565e-05,0
1.9055,5.7572e-05,0
1.906,5.2201e-05,0
1.9065,4.448e-05,0
1.907,3.4577e-05,0
1.9075,2.6017e-05,0
1.908,2.4002e-05,0
1.9085,2.2995e-05,0
1.909,1.6281e-05,0
1.9095,7.2175e-06,0
1.91,-5.035e-07,0
1.9105,-5.539e-06,0
1.911,-5.2033e-06,0
1.9115,1.678e-07,0
1.912,6.2104e-06,0
1.9125,1.0575e-05,0
1.913,7.7211e-06,0
1.9135,-1.1749e-06,0
1.914,-8.3925e-06,0
1.9145,-8.2246e-06,0
1.915,-2.5177e-06,0
1.9155,1.5106e-06,0
1.916,1.8463e-06,0
1.9165,-1.678e-07,0
1.917,-6.714e-07,0
1.9175,0,0
1.918,-3.357e-07,0
1.9185,7.5532e-06,0
1.919,2.652e-05,0
1.9195,4.8844e-05,0
1.92,6.5461e-05,0
1.9205,7.2007e-05,0
1.921,6.9154e-05,0
1.9215,6.3615e-05,0
1.922,6.0761e-05,0
1.9225,5.8915e-05,0
1.923,5.1698e-05,0
1.9235,3.4745e-05,0
1.924,1.5274e-05,0
1.9245,1.3428e-06,0
1.925,-3.8605e-06,0
1.9255,-1.6785e-06,0
1.926,3.6927e-06,0
1.9265,6.8818e-06,0
1.927,6.2104e-06,0
1.9275,7.2175e-06,0
1.928,1.2421e-05,0
1.9285,1.947e-05,0
1.929,2.7695e-05,0
1.9295,3.9445e-05,0
1.93,5.2705e-05,0
1.9305,6.7643e-05,0
1.931,8.1575e-05,0
1.9315,8.7785e-05,0
1.932,8.1071e-05,0
1.9325,6.1936e-05,0
1.933,4.1795e-05,0
1.9335,2.9206e-05,0
1.934,2.0646e-05,0
1.9345,1.6953e-05,0
1.935,1.9135e-05,0
1.9355,2.4002e-05,0
1.936,2.6688e-05,0
1.9365,2.6017e-05,0
1.937,2.3331e-05,0
1.9375,1.796e-05,0
1.938,7.7211e-06,0
1.9385,-5.539e-06,0
1.939,-1.6114e-05,0
1.9395,-2.1988e-05,0
1.94,-2.6017e-05,0
1.9405,-2.5681e-05,0
1.941,-2.1988e-05,0
1.9415,-1.8296e-05,0
1.942,-1.6114e-05,0
1.9425,-1.4939e-05,0
1.943,-1.4267e-05,0
1.9435,-1.326e-05,0
1.944,-9.9031e-06,0
1.9445,-3.8605e-06,0
1.945,4.8676e-06,0
1.9455,1.5106e-05,0
1.946,2.5345e-05,0
1.9465,3.3066e-05,0
1.947,3.6759e-05,0
1.9475,3.827e-05,0
1.948,3.827e-05,0
1.9485,3.9109e-05,0
1.949,3.6759e-05,0
1.9495,2.8367e-05,0
1.95,2.0142e-05,0
1.9505,1.5946e-05,0
1.951,1.4267e-05,0
1.9515,1.6281e-05,0
1.952,2.4674e-05,0
1.9525,3.4241e-05,0
1.953,3.6591e-05,0
1.9535,2.9877e-05,0
1.954,2.0646e-05,0
1.9545,1.5946e-05,0
1.955,1.4435e-05,0
1.9555,1.2253e-05,0
1.956,1.0575e-05,0
1.9565,1.1582e-05,0
1.957,1.2589e-05,0
1.9575,1.326e-05,0
1.958,1.6617e-05,0
1.9585,1.9135e-05,0
1.959,1.5946e-05,0
1.9595,6.8818e-06,0
1.96,-3.5248e-06,0
1.9605,-8.0568e-06,0
1.961,-8.3925e-06,0
1.9615,-6.8818e-06,0
1.962,-7.2175e-06,0
1.9625,-1.0239e-05,0
1.963,-9.5674e-06,0
1.9635,-2.6856e-06,0
1.964,-3.357e-07,0
1.9645,-6.5461e-06,0
1.965,-1.2253e-05,0
1.9655,-9.0639e-06,0
1.966,3.5248e-06,0
1.9665,1.561e-05,0
1.967,2.2828e-05,0
1.9675,2.8367e-05,0
1.968,3.2898e-05,0
1.9685,3.3234e-05,0
1.969,2.9877e-05,0
1.9695,2.5345e-05,0
1.97,1.8631e-05,0
1.9705,8.5603e-06,0
1.971,-3.1891e-06,0
1.9715,-7.2175e-06,0
1.972,1.1749e-06,0
1.9725,1.7288e-05,0
1.973,3.2731e-05,0
1.9735,4.3473e-05,0
1.974,5.153e-05,0
1.9745,6.4286e-05,0
1.975,8.04e-05,0
1.9755,8.8121e-05,0
1.976,8.4932e-05,0
1.9765,7.8386e-05,0
1.977,7.2343e-05,0
1.9775,6.2104e-05,0
1.978,4.7166e-05,0
1.9785,3.508e-05,0
1.979,3.0213e-05,0
1.9795,2.9038e-05,0
1.98,2.6352e-05,0
1.9805,2.2995e-05,0
1.981,1.9638e-05,0
1.9815,1.4435e-05,0
1.982,8.5603e-06,0
1.9825,6.8818e-06,0
1.983,9.0639e-06,0
1.9835,8.896e-06,0
1.984,3.1891e-06,0
1.9845,-4.3641e-06,0
1.985,-1.1582e-05,0
1.9855,-2.0478e-05,0
1.986,-2.5849e-05,0
1.9865,-2.3499e-05,0
1.987,-1.4603e-05,0
1.9875,-2.8534e-06,0
1.988,4.5319e-06,0
1.9885,4.5319e-06,0
1.989,3.5248e-06,0
1.9895,2.3499e-06,0
1.99,-3.5248e-06,0
1.9905,-8.2246e-06,0
1.991,-1.3428e-06,0
1.9915,2.0813e-05,0
1.992,4.7501e-05,0
1.9925,6.2944e-05,0
1.993,6.479e-05,0
1.9935,6.0761e-05,0
1.994,5.3376e-05,0
1.9945,3.9109e-05,0
1.995,2.1317e-05,0
1.9955,7.2175e-06,0
1.996,-4.6998e-06,0
1.9965,-1.561e-05,0
1.997,-2.1317e-05,0
1.9975,-1.7792e-05,0
1.998,-6.2104e-06,0
1.9985,7.8889e-06,0
1.999,1.7624e-05,0
1.9995,2.1317e-05,0
2,2.0981e-05,0
2.0005,1.3932e-05,0
2.001,5.8747e-06,0
2.0015,6.8818e-06,0
2.002,1.561e-05,0
2.0025,2.5345e-05,0
2.003,3.2059e-05,0
2.0035,3.6423e-05,0
2.004,3.743e-05,0
2.0045,3.8102e-05,0
2.005,4.2802e-05,0
2.0055,4.9851e-05,0
2.006,5.2369e-05,0
2.0065,4.5487e-05,0
2.007,3.2731e-05,0
2.0075,2.3667e-05,0
2.008,1.9974e-05,0
2.0085,1.7624e-05,0
2.009,1.3092e-05,0
2.0095,1.0239e-05,0
2.01,1.4939e-05,0
2.0105,2.266e-05,0
2.011,3.0045e-05,0
2.0115,3.8605e-05,0
2.012,4.5151e-05,0
2.0125,4.8676e-05,0
2.013,5.2537e-05,0
2.0135,5.4887e-05,0
2.014,4.9515e-05,0
2.0145,3.6088e-05,0
2.015,2.3667e-05,0
2.0155,1.326e-05,0
2.016,5.2033e-06,0
2.0165,2.0142e-06,0
2.017,1.8463e-06,0
2.0175,4.8676e-06,0
2.018,8.7282e-06,0
2.0185,1.2589e-05,0
2.019,1.5946e-05,0
2.0195,1.5778e-05,0
2.02,1.0575e-05,0
2.0205,3.6927e-06,0
2.021,3.357e-07,0
2.0215,3.1891e-06,0
2.022,4.8676e-06,0
2.0225,1.678e-07,0
2.023,-9.7353e-06,0
2.0235,-1.4771e-05,0
2.024,-9.3996e-06,0
2.0245,0,0
2.025,9.2317e-06,0
2.0255,1.561e-05,0
2.026,1.8296e-05,0
2.0265,1.947e-05,0
2.027,1.9303e-05,0
2.0275,2.0813e-05,0
2.028,2.4002e-05,0
2.0285,2.6688e-05,0
2.029,2.7695e-05,0
2.0295,2.6017e-05,0
2.03,2.4338e-05,0
2.0305,2.1988e-05,0
2.031,1.9638e-05,0
2.0315,2.0478e-05,0
2.032,1.8631e-05,0
2.0325,1.2253e-05,0
2.033,7.8889e-06,0
2.0335,1.2085e-05,0
2.034,2.1317e-05,0
2.0345,3.1052e-05,0
2.035,3.7766e-05,0
2.0355,4.1459e-05,0
2.036,4.3473e-05,0
2.0365,3.9445e-05,0
2.037,2.4674e-05,0
2.0375,2.8534e-06,0
2.038,-1.5778e-05,0
2.0385,-2.7359e-05,0
2.039,-3.1052e-05,0
2.0395,-2.7024e-05,0
2.04,-1.7288e-05,0
2.0405,-8.5603e-06,0
2.041,-3.1891e-06,0
2.0415,5.2033e-06,0
2.042,1.9303e-05,0
2.0425,3.4073e-05,0
2.043,4.213e-05,0
2.0435,3.6927e-05,0
2.044,2.3667e-05,0
2.0445,1.1582e-05,0
2.045,7.8889e-06,0
2.0455,6.0426e-06,0
2.046,3.1891e-06,0
2.0465,4.1962e-06,0
2.047,1.3932e-05,0
2.0475,2.8702e-05,0
2.048,3.4745e-05,0
2.0485,2.887e-05,0
2.049,1.9974e-05,0
2.0495,1.7456e-05,0
2.05,2.0981e-05,0
2.0505,2.6017e-05,0
2.051,3.2059e-05,0
2.0515,3.8437e-05,0
2.052,4.1291e-05,0
2.0525,3.3402e-05,0
2.053,1.9638e-05,0
2.0535,1.2757e-05,0
2.054,1.6281e-05,0
2.0545,2.2995e-05,0
2.055,3.2395e-05,0
2.0555,4.5991e-05,0
2.056,5.4551e-05,0
2.0565,5.2033e-05,0
2.057,4.3473e-05,0
2.0575,3.592e-05,0
2.058,3.1891e-05,0
2.0585,2.7192e-05,0
2.059,2.266e-05,0
2.0595,1.9135e-05,0
2.06,1.7121e-05,0
2.0605,1.7288e-05,0
2.061,1.8631e-05,0
2.0615,1.8967e-05,0
2.062,1.796e-05,0
2.0625,1.6281e-05,0
2.063,1.4267e-05,0
2.0635,1.2589e-05,0
2.064,9.9031e-06,0
2.0645,6.3783e-06,0
2.065,3.8605e-06,0
2.0655,1.8463e-06,0
2.066,-2.8534e-06,0
2.0665,-7.5532e-06,0
2.067,-4.8676e-06,0
2.0675,4.8676e-06,0
2.068,1.2924e-05,0
2.0685,1.6449e-05,0
2.069,1.6785e-05,0
2.0695,1.7456e-05,0
2.07,1.8631e-05,0
2.0705,1.796e-05,0
2.071,1.7288e-05,0
2.0715,1.6617e-05,0
2.072,8.7282e-06,0
2.0725,-3.5248e-06,0
2.073,-1.4771e-05,0
2.0735,-2.2324e-05,0
2.074,-2.0813e-05,0
2.0745,-1.1917e-05,0
2.075,-3.8605e-06,0
2.0755,3.0213e-06,0
2.076,1.0742e-05,0
2.0765,1.9974e-05,0
2.077,3.0045e-05,0
2.0775,4.1795e-05,0
2.078,5.4215e-05,0
2.0785,6.6133e-05,0
2.079,7.6371e-05,0
2.0795,8.5603e-05,0
2.08,9.1142e-05,0
2.0805,8.9632e-05,0
2.081,7.805e-05,0
2.0815,5.8244e-05,0
2.082,4.1459e-05,0
2.0825,3.2563e-05,0
2.083,2.8031e-05,0
2.0835,2.8702e-05,0
2.084,3.1891e-05,0
2.0845,3.4409e-05,0
2.085,3.8102e-05,0
2.0855,4.1962e-05,0
2.086,3.7095e-05,0
2.0865,2.2324e-05,0
2.087,5.8747e-06,0
2.0875,-7.5532e-06,0
2.088,-1.9974e-05,0
2.0885,-3.3066e-05,0
2.089,-4.3641e-05,0
2.0895,-4.7166e-05,0
2.09,-4.683e-05,0
2.0905,-4.8173e-05,0
2.091,-5.0523e-05,0
2.0915,-4.8005e-05,0
2.092,-3.5416e-05,0
2.0925,-1.2085e-05,0
2.093,1.3932e-05,0
2.0935,3.4073e-05,0
2.094,4.7669e-05,0
2.0945,5.7572e-05,0
2.095,6.6972e-05,0
2.0955,8.1071e-05,0
2.096,9.2989e-05,0
2.0965,9.5842e-05,0
2.097,9.0135e-05,0
2.0975,7.6036e-05,0
2.098,5.3544e-05,0
2.0985,2.9374e-05,0
2.099,7.8889e-06,0
2.0995,-6.2104e-06,0
2.1,-1.0575e-05,0
2.1005,-6.8818e-06,0
2.101,6.714e-07,0
2.1015,6.2104e-06,0
2.102,1.3932e-05,0
2.1025,2.5345e-05,0
2.103,3.1724e-05,0
2.1035,2.8199e-05,0
2.104,2.3331e-05,0
2.1045,2.1988e-05,0
2.105,2.3331e-05,0
2.1055,2.5345e-05,0
2.106,2.6017e-05,0
2.1065,2.2156e-05,0
2.107,1.6281e-05,0
2.1075,8.0568e-06,0
2.108,2.182e-06,0
2.1085,2.8534e-06,0
2.109,4.5319e-06,0
2.1095,1.0071e-06,0
2.11,-5.7069e-06,0
2.1105,-8.3925e-06,0
2.111,-6.0426e-06,0
2.1115,-6.714e-07,0
2.112,6.5461e-06,0
2.1125,1.1917e-05,0
2.113,1.0239e-05,0
2.1135,3.1891e-06,0
2.114,-2.8534e-06,0
2.1145,-7.2175e-06,0
2.115,-1.0239e-05,0
2.1155,-1.0407e-05,0
2.116,-6.714e-06,0
2.1165,-2.0142e-06,0
2.117,1.6785e-06,0
2.1175,4.3641e-06,0
2.118,1.1246e-05,0
2.1185,2.1317e-05,0
2.119,2.7359e-05,0
2.1195,2.5345e-05,0
2.12,1.8296e-05,0
2.1205,1.5106e-05,0
2.121,1.8631e-05,0
2.1215,2.6017e-05,0
2.122,3.2059e-05,0
2.1225,3.5584e-05,0
2.123,3.8102e-05,0
2.1235,4.1123e-05,0
2.124,3.8773e-05,0
2.1245,3.0716e-05,0
2.125,2.0981e-05,0
2.1255,1.5106e-05,0
2.126,1.4603e-05,0
2.1265,1.7624e-05,0
2.127,1.9974e-05,0
2.1275,2.0813e-05,0
2.128,2.0142e-05,0
2.1285,2.1149e-05,0
2.129,2.652e-05,0
2.1295,2.9374e-05,0
2.13,2.417e-05,0
2.1305,1.4939e-05,0
2.131,8.2246e-06,0
2.1315,5.8747e-06,0
2.132,5.539e-06,0
2.1325,5.0355e-06,0
2.133,4.1962e-06,0
2.1335,3.6927e-06,0
2.134,5.2033e-06,0
2.1345,7.7211e-06,0
2.135,1.2589e-05,0
2.1355,1.9135e-05,0
2.136,2.5009e-05,0
2.1365,2.1988e-05,0
2.137,1.2924e-05,0
2.1375,5.539e-06,0
2.138,1.6785e-06,0
2.1385,-1.678e-07,0
2.139,-1.8463e-06,0
2.1395,-2.8534e-06,0
2.14,-2.5177e-06,0
2.1405,-8.392e-07,0
2.141,6.0426e-06,0
2.1415,1.6953e-05,0
2.142,2.652e-05,0
2.1425,3.4409e-05,0
2.143,4.2802e-05,0
2.1435,5.304e-05,0
2.144,5.9754e-05,0
2.1445,6.0929e-05,0
2.145,5.4887e-05,0
2.1455,4.6326e-05,0
2.146,3.8102e-05,0
2.1465,3.1052e-05,0
2.147,2.6352e-05,0
2.1475,2.5345e-05,0
2.148,2.3331e-05,0
2.1485,1.9638e-05,0
2.149,1.7288e-05,0
2.1495,1.5946e-05,0
2.15,1.4939e-05,0
2.1505,1.2924e-05,0
2.151,1.0071e-05,0
2.1515,1.1078e-05,0
2.152,1.561e-05,0
2.1525,1.8967e-05,0
2.153,1.7624e-05,0
2.1535,8.896e-06,0
2.154,-1.1749e-06,0
2.1545,-8.2246e-06,0
2.155,-1.1582e-05,0
2.1555,-1.3596e-05,0
2.156,-1.6281e-05,0
2.1565,-1.9638e-05,0
2.157,-2.4002e-05,0
2.1575,-2.7863e-05,0
2.158,-2.4002e-05,0
2.1585,-7.2175e-06,0
2.159,1.6114e-05,0
2.1595,3.9109e-05,0
2.16,6.1601e-05,0
2.1605,8.6946e-05,0
2.161,0.0001133,0
2.1615,0.00013243,0
2.162,0.00013445,0
2.1625,0.00012136,0
2.163,9.752e-05,0
2.1635,6.6468e-05,0
2.164,3.4241e-05,0
2.1645,7.2175e-06,0
2.165,-1.1749e-05,0
2.1655,-1.9974e-05,0
2.166,-1.9974e-05,0
2.1665,-1.8631e-05,0
2.167,-1.7456e-05,0
2.1675,-1.6281e-05,0
2.168,-1.2924e-05,0
2.1685,-4.8676e-06,0
2.169,6.2104e-06,0
2.1695,1.5442e-05,0
2.17,2.1317e-05,0
2.1705,2.6688e-05,0
2.171,3.8605e-05,0
2.1715,6.0929e-05,0
2.172,8.1239e-05,0
2.1725,8.51e-05,0
2.173,7.3014e-05,0
2.1735,5.069e-05,0
2.174,2.4506e-05,0
2.1745,5.2033e-06,0
2.175,0,0
2.1755,4.3641e-06,0
2.176,3.6927e-06,0
2.1765,-7.0497e-06,0
2.177,-1.6281e-05,0
2.1775,-1.0407e-05,0
2.178,8.5603e-06,0
2.1785,3.0045e-05,0
2.179,4.2802e-05,0
2.1795,4.6494e-05,0
2.18,4.4312e-05,0
2.1805,3.508e-05,0
2.181,2.3331e-05,0
2.1815,1.4267e-05,0
2.182,6.3783e-06,0
2.1825,5.035e-07,0
2.183,1.8463e-06,0
2.1835,1.0575e-05,0
2.184,2.182e-05,0
2.1845,2.5177e-05,0
2.185,2.1149e-05,0
2.1855,1.5274e-05,0
2.186,5.7069e-06,0
2.1865,-4.3641e-06,0
2.187,-8.5603e-06,0
2.1875,-9.0639e-06,0
2.188,-1.3764e-05,0
2.1885,-2.4506e-05,0
2.189,-3.2731e-05,0
2.1895,-3.2563e-05,0
2.19,-2.6688e-05,0
2.1905,-2.031e-05,0
2.191,-1.5274e-05,0
2.1915,-1.2421e-05,0
2.192,-1.1749e-05,0
2.1925,-1.1246e-05,0
2.193,-6.8818e-06,0
2.1935,3.5248e-06,0
2.194,1.5274e-05,0
2.1945,2.5849e-05,0
2.195,3.5752e-05,0
2.1955,4.7501e-05,0
2.196,6.0929e-05,0
2.1965,6.9657e-05,0
2.197,7.0664e-05,0
2.1975,6.5965e-05,0
2.198,5.9922e-05,0
2.1985,5.0355e-05,0
2.199,3.978e-05,0
2.1995,3.2563e-05,0
2.2,2.3499e-05,0
2.2005,8.0568e-06,0
2.201,-6.8818e-06,0
2.2015,-1.5106e-05,0
2.202,-1.7792e-05,0
2.2025,-2.5849e-05,0
2.203,-3.9109e-05,0
2.2035,-4.8844e-05,0
2.204,-5.304e-05,0
2.2045,-5.2872e-05,0
2.205,-4.5151e-05,0
2.2055,-2.9206e-05,0
2.206,-8.5603e-06,0
2.2065,1.5106e-05,0
2.207,4.0619e-05,0
2.2075,6.5293e-05,0
2.208,8.3925e-05,0
2.2085,8.9464e-05,0
2.209,8.3757e-05,0
2.2095,7.805e-05,0
2.21,7.9057e-05,0
2.2105,7.6204e-05,0
2.211,6.2272e-05,0
2.2115,4.5487e-05,0
2.212,3.2395e-05,0
2.2125,2.6688e-05,0
2.213,2.3331e-05,0
2.2135,1.796e-05,0
2.214,1.3092e-05,0
2.2145,8.7282e-06,0
2.215,5.8747e-06,0
2.2155,5.0355e-06,0
2.216,5.539e-06,0
2.2165,0,0
2.217,-9.0639e-06,0
2.2175,-1.4435e-05,0
2.218,-1.6281e-05,0
2.2185,-1.8463e-05,0
2.219,-2.1317e-05,0
2.2195,-2.3667e-05,0
2.22,-2.266e-05,0
2.2205,-2.1317e-05,0
2.221,-1.9303e-05,0
2.2215,-1.1749e-05,0
2.222,-2.5177e-06,0
2.2225,8.392e-07,0
2.223,1.6785e-06,0
2.2235,1.0071e-05,0
2.224,2.5009e-05,0
2.2245,3.3402e-05,0
2.225,3.4409e-05,0
2.2255,4.2802e-05,0
2.226,6.3615e-05,0
2.2265,8.0903e-05,0
2.227,8.04e-05,0
2.2275,7.3686e-05,0
2.228,7.5532e-05,0
2.2285,8.3085e-05,0
2.229,8.7114e-05,0
2.2295,8.1743e-05,0
2.23,6.6972e-05,0
2.2305,5.1362e-05,0
2.231,4.5991e-05,0
2.2315,5.0858e-05,0
2.232,5.7237e-05,0
2.2325,5.7404e-05,0
2.233,5.4215e-05,0
2.2335,5.1026e-05,0
2.234,4.4984e-05,0
2.2345,3.8773e-05,0
2.235,3.6423e-05,0
2.2355,2.9374e-05,0
2.236,1.7624e-05,0
2.2365,1.2924e-05,0
2.237,2.0646e-05,0
2.2375,2.7192e-05,0
2.238,2.031e-05,0
2.2385,5.035e-07,0
2.239,-2.266e-05,0
2.2395,-3.8773e-05,0
2.24,-4.6494e-05,0
2.2405,-4.9012e-05,0
2.241,-4.8844e-05,0
2.2415,-5.2537e-05,0
2.242,-6.2104e-05,0
2.2425,-6.8818e-05,0
2.243,-6.6636e-05,0
2.2435,-5.7908e-05,0
2.244,-4.9348e-05,0
2.2445,-4.3809e-05,0
2.245,-3.6255e-05,0
2.2455,-2.4506e-05,0
2.246,-1.561e-05,0
2.2465,-9.5674e-06,0
2.247,4.1962e-06,0
2.2475,2.4506e-05,0
2.248,4.3641e-05,0
2.2485,6.4286e-05,0
2.249,8.6442e-05,0
2.2495,0.00010457,0
2.25,0.00011263,0
2.2505,0.00010726,0
2.251,8.8121e-05,0
2.2515,7.2679e-05,0
2.252,6.865e-05,0
2.2525,6.5629e-05,0
2.253,5.7237e-05,0
2.2535,5.153e-05,0
2.254,4.8173e-05,0
2.2545,4.3641e-05,0
2.255,4.2298e-05,0
2.2555,4.5487e-05,0
2.256,4.1123e-05,0
2.2565,2.2995e-05,0
2.257,4.8676e-06,0
2.2575,1.678e-07,0
2.258,3.0213e-06,0
2.2585,-8.392e-07,0
2.259,-1.5442e-05,0
2.2595,-3.0213e-05,0
2.26,-3.3906e-05,0
2.2605,-2.4338e-05,0
2.261,-8.7282e-06,0
2.2615,8.5603e-06,0
2.262,2.652e-05,0
2.2625,4.2298e-05,0
2.263,5.4551e-05,0
2.2635,6.6972e-05,0
2.264,7.7378e-05,0
2.2645,7.956e-05,0
2.265,7.4357e-05,0
2.2655,6.949e-05,0
2.266,6.7979e-05,0
2.2665,6.2104e-05,0
2.267,4.7501e-05,0
2.2675,3.2059e-05,0
2.268,2.031e-05,0
2.2685,1.0575e-05,0
2.269,-5.035e-07,0
2.2695,-1.2253e-05,0
2.27,-2.1988e-05,0
2.2705,-2.9206e-05,0
2.271,-3.9277e-05,0
2.2715,-5.0523e-05,0
2.272,-5.5558e-05,0
2.2725,-5.4048e-05,0
2.273,-5.2201e-05,0
2.2735,-5.2705e-05,0
2.274,-4.8173e-05,0
2.2745,-3.2731e-05,0
2.275,-1.326e-05,0
2.2755,5.2033e-06,0
2.276,2.4002e-05,0
2.2765,3.9109e-05,0
2.277,4.5487e-05,0
2.2775,4.7166e-05,0
2.278,5.2201e-05,0
2.2785,6.1601e-05,0
2.279,6.5965e-05,0
2.2795,6.7811e-05,0
2.28,6.9993e-05,0
2.2805,6.6468e-05,0
2.281,5.153e-05,0
2.2815,3.3234e-05,0
2.282,2.031e-05,0
2.2825,1.3092e-05,0
2.283,5.7069e-06,0
2.2835,-5.539e-06,0
2.284,-1.8967e-05,0
2.2845,-2.7359e-05,0
2.285,-3.122e-05,0
2.2855,-2.8702e-05,0
2.286,-1.2924e-05,0
2.2865,1.0239e-05,0
2.287,2.6688e-05,0
2.2875,3.4745e-05,0
2.288,3.3738e-05,0
2.2885,2.4002e-05,0
2.289,1.4267e-05,0
2.2895,1.1078e-05,0
2.29,1.0407e-05,0
2.2905,7.5532e-06,0
2.291,2.5177e-06,0
2.2915,-2.182e-06,0
2.292,-2.8534e-06,0
2.2925,-1.8463e-06,0
2.293,-1.0407e-05,0
2.2935,-2.7024e-05,0
2.294,-3.1388e-05,0
2.2945,-1.2589e-05,0
2.295,1.3596e-05,0
2.2955,2.5681e-05,0
2.296,2.8702e-05,0
2.2965,3.4745e-05,0
2.297,4.3473e-05,0
2.2975,4.4816e-05,0
2.298,3.7598e-05,0
2.2985,3.1388e-05,0
2.299,3.6088e-05,0
2.2995,5.2705e-05,0
2.3,7.0664e-05,0
2.3005,8.8121e-05,0
2.301,0.00010457,0
2.3015,0.00010793,0
2.302,9.0471e-05,0
2.3025,6.1097e-05,0
2.303,3.3906e-05,0
2.3035,2.2492e-05,0
2.304,2.9374e-05,0
2.3045,4.0787e-05,0
2.305,4.2634e-05,0
2.3055,3.508e-05,0
2.306,2.266e-05,0
2.3065,1.0742e-05,0
2.307,5.539e-06,0
2.3075,1.1749e-06,0
2.308,-3.8605e-06,0
2.3085,-1.6785e-06,0
2.309,8.392e-07,0
2.3095,-8.3925e-06,0
2.31,-2.3499e-05,0
2.3105,-3.3066e-05,0
2.311,-3.2731e-05,0
2.3115,-2.266e-05,0
2.312,-7.5532e-06,0
2.3125,1.2253e-05,0
2.313,3.357e-05,0
2.3135,4.5487e-05,0
2.314,4.5823e-05,0
2.3145,4.6159e-05,0
2.315,5.5558e-05,0
2.3155,6.7811e-05,0
2.316,7.3854e-05,0
2.3165,7.1336e-05,0
2.317,6.5461e-05,0
2.3175,5.623e-05,0
2.318,3.9277e-05,0
2.3185,1.8631e-05,0
2.319,0,0
2.3195,-1.6953e-05,0
2.32,-3.4409e-05,0
2.3205,-5.069e-05,0
2.321,-6.0761e-05,0
2.3215,-6.4622e-05,0
2.322,-6.7308e-05,0
2.3225,-7.2679e-05,0
2.323,-7.5364e-05,0
2.3235,-6.4622e-05,0
2.324,-3.8437e-05,0
2.3245,-9.9031e-06,0
2.325,9.2317e-06,0
2.3255,2.9038e-05,0
2.326,5.5222e-05,0
2.3265,7.6707e-05,0
2.327,7.6371e-05,0
2.3275,6.0929e-05,0
2.328,4.6662e-05,0
2.3285,3.6591e-05,0
2.329,2.4842e-05,0
2.3295,1.4267e-05,0
2.33,9.0639e-06,0
2.3305,1.1078e-05,0
2.331,1.4939e-05,0
2.3315,9.0639e-06,0
2.332,8.392e-07,0
2.3325,5.2033e-06,0
2.333,1.5946e-05,0
2.3335,1.8967e-05,0
2.334,1.6785e-05,0
2.3345,1.8631e-05,0
2.335,2.3667e-05,0
2.3355,2.7527e-05,0
2.336,2.6688e-05,0
2.3365,2.3835e-05,0
2.337,2.3667e-05,0
2.3375,3.1052e-05,0
2.338,4.2802e-05,0
2.3385,4.8844e-05,0
2.339,4.7669e-05,0
2.3395,4.7501e-05,0
2.34,4.9515e-05,0
2.3405,5.388e-05,0
2.341,5.774e-05,0
2.3415,5.6901e-05,0
2.342,5.1362e-05,0
2.3425,4.5151e-05,0
2.343,4.2298e-05,0
2.3435,4.1795e-05,0
2.344,3.6088e-05,0
2.3445,2.652e-05,0
2.345,1.7288e-05,0
2.3455,9.0639e-06,0
2.346,5.035e-07,0
2.3465,-5.7069e-06,0
2.347,-9.2317e-06,0
2.3475,-1.2253e-05,0
2.348,-1.796e-05,0
2.3485,-2.3667e-05,0
2.349,-2.8199e-05,0
2.3495,-3.4745e-05,0
2.35,-3.9445e-05,0
2.3505,-3.2563e-05,0
2.351,-1.7288e-05,0
2.3515,-4.3641e-06,0
2.352,1.678e-07,0
2.3525,-5.035e-07,0
2.353,-6.714e-07,0
2.3535,2.5177e-06,0
2.354,1.1246e-05,0
2.3545,2.4002e-05,0
2.355,4.2802e-05,0
2.3555,6.8315e-05,0
2.356,8.5435e-05,0
2.3565,8.1407e-05,0
2.357,6.009e-05,0
2.3575,3.6423e-05,0
2.358,1.9806e-05,0
2.3585,1.326e-05,0
2.359,1.1078e-05,0
2.3595,3.5248e-06,0
2.36,-1.1246e-05,0
2.3605,-2.4338e-05,0
2.361,-1.8967e-05,0
2.3615,-1.5106e-06,0
2.362,1.1749e-05,0
2.3625,1.3596e-05,0
2.363,1.091e-05,0
2.3635,1.5946e-05,0
2.364,3.1388e-05,0
2.3645,5.1698e-05,0
2.365,6.63e-05,0
2.3655,7.0329e-05,0
2.366,6.2776e-05,0
2.3665,4.7837e-05,0
2.367,3.9612e-05,0
2.3675,4.4144e-05,0
2.368,5.304e-05,0
2.3685,5.4719e-05,0
2.369,4.7501e-05,0
2.3695,3.5752e-05,0
2.37,2.1317e-05,0
2.3705,1.0575e-05,0
2.371,1.091e-05,0
2.3715,1.561e-05,0
2.372,1.796e-05,0
2.3725,1.7121e-05,0
2.373,8.5603e-06,0
2.3735,-1.678e-07,0
2.374,-8.392e-07,0
2.3745,3.6927e-06,0
2.375,1.3596e-05,0
2.3755,2.6017e-05,0
2.376,3.2395e-05,0
2.3765,3.0381e-05,0
2.377,2.266e-05,0
2.3775,8.2246e-06,0
2.378,-1.1917e-05,0
2.3785,-3.0549e-05,0
2.379,-3.9445e-05,0
2.3795,-3.9277e-05,0
2.38,-3.9445e-05,0
2.3805,-4.1627e-05,0
2.381,-3.5416e-05,0
2.3815,-1.8967e-05,0
2.382,-3.5248e-06,0
2.3825,8.896e-06,0
2.383,2.1653e-05,0
2.3835,3.6088e-05,0
2.384,4.0284e-05,0
2.3845,2.887e-05,0
2.385,1.7121e-05,0
2.3855,1.5274e-05,0
2.386,1.6617e-05,0
2.3865,1.4267e-05,0
2.387,1.091e-05,0
2.3875,1.0407e-05,0
2.388,1.1582e-05,0
2.3885,1.561e-05,0
2.389,2.2324e-05,0
2.3895,3.0213e-05,0
2.39,3.9109e-05,0
2.3905,4.0787e-05,0
2.391,3.1052e-05,0
2.3915,1.4267e-05,0
2.392,6.714e-07,0
2.3925,-5.539e-06,0
2.393,-6.5461e-06,0
2.3935,-6.5461e-06,0
2.394,-5.035e-07,0
2.3945,1.5442e-05,0
2.395,3.2059e-05,0
2.3955,4.3809e-05,0
2.396,5.3208e-05,0
2.3965,6.3951e-05,0
2.397,8.0232e-05,0
2.3975,9.1142e-05,0
2.398,8.4428e-05,0
2.3985,6.6972e-05,0
2.399,4.7837e-05,0
2.3995,3.0213e-05,0
2.4,1.9974e-05,0
2.4005,1.9638e-05,0
2.401,2.0813e-05,0
2.4015,1.8128e-05,0
2.402,1.6953e-05,0
2.4025,1.5442e-05,0
2.403,1.0071e-05,0
2.4035,5.2033e-06,0
2.404,4.1962e-06,0
2.4045,6.2104e-06,0
2.405,1.0575e-05,0
2.4055,1.5946e-05,0
2.406,2.4002e-05,0
2.4065,2.6017e-05,0
2.407,9.5674e-06,0
2.4075,-2.0981e-05,0
2.408,-4.6159e-05,0
2.4085,-5.2537e-05,0
2.409,-3.6591e-05,0
2.4095,-8.896e-06,0
2.41,1.3932e-05,0
2.4105,3.508e-05,0
2.411,6.8818e-05,0
2.4115,0.00010457,0
2.412,0.00012035,0
2.4125,0.00011179,0
2.413,9.3156e-05,0
2.4135,8.275e-05,0
2.414,7.9728e-05,0
2.4145,6.9154e-05,0
2.415,4.8173e-05,0
2.4155,3.0381e-05,0
2.416,1.8631e-05,0
2.4165,5.2033e-06,0
2.417,-1.3596e-05,0
2.4175,-2.7527e-05,0
2.418,-2.7863e-05,0
2.4185,-1.8967e-05,0
2.419,-1.1078e-05,0
2.4195,-7.7211e-06,0
2.42,-1.1078e-05,0
2.4205,-1.6953e-05,0
2.421,-1.6281e-05,0
2.4215,2.182e-06,0
2.422,2.9374e-05,0
2.4225,5.153e-05,0
2.423,6.7643e-05,0
2.4235,7.3854e-05,0
2.424,6.5629e-05,0
2.4245,5.0187e-05,0
2.425,3.5752e-05,0
2.4255,2.5177e-05,0
2.426,1.6449e-05,0
2.4265,8.2246e-06,0
2.427,4.5319e-06,0
2.4275,5.2033e-06,0
2.428,1.4603e-05,0
2.4285,2.4002e-05,0
2.429,2.2324e-05,0
2.4295,9.2317e-06,0
2.43,-8.2246e-06,0
2.4305,-2.3667e-05,0
2.431,-3.6423e-05,0
2.4315,-3.978e-05,0
2.432,-3.1556e-05,0
2.4325,-1.5442e-05,0
2.433,8.5603e-06,0
2.4335,3.6088e-05,0
2.434,5.0858e-05,0
2.4345,5.0187e-05,0
2.435,4.7669e-05,0
2.4355,5.069e-05,0
2.436,5.3544e-05,0
2.4365,4.3473e-05,0
2.437,2.3499e-05,0
2.4375,7.2175e-06,0
2.438,-1.5106e-06,0
2.4385,-9.5674e-06,0
2.439,-2.2995e-05,0
2.4395,-3.7934e-05,0
2.44,-4.1123e-05,0
2.4405,-3.0716e-05,0
2.441,-1.4267e-05,0
2.4415,-3.1891e-06,0
2.442,-5.0355e-06,0
2.4425,-1.3932e-05,0
2.443,-1.2924e-05,0
2.4435,1.6785e-06,0
2.444,1.4099e-05,0
2.4445,1.4771e-05,0
2.445,4.6998e-06,0
2.4455,-9.7353e-06,0
2.446,-2.031e-05,0
2.4465,-1.7624e-05,0
2.447,-5.539e-06,0
2.4475,0,0
2.448,-3.0213e-06,0
2.4485,1.5106e-06,0
2.449,2.1988e-05,0
2.4495,4.6159e-05,0
2.45,5.8915e-05,0
2.4505,6.0426e-05,0
2.451,6.2776e-05,0
2.4515,7.2007e-05,0
2.452,8.4428e-05,0
2.4525,8.6946e-05,0
2.453,7.7043e-05,0
2.4535,5.8579e-05,0
2.454,3.8102e-05,0
2.4545,2.5345e-05,0
2.455,2.7695e-05,0
2.4555,4.0955e-05,0
2.456,4.9012e-05,0
2.4565,4.4984e-05,0
2.457,3.0381e-05,0
2.4575,7.3854e-06,0
2.458,-1.2253e-05,0
2.4585,-1.6785e-05,0
2.459,-5.7069e-06,0
2.4595,7.2175e-06,0
2.46,1.6449e-05,0
2.4605,2.3667e-05,0
2.461,3.2059e-05,0
2.4615,3.9445e-05,0
2.462,4.213e-05,0
2.4625,4.448e-05,0
2.463,4.9851e-05,0
2.4635,5.7572e-05,0
2.464,6.0929e-05,0
2.4645,5.3208e-05,0
2.465,3.6088e-05,0
2.4655,1.6953e-05,0
2.466,4.3641e-06,0
2.4665,1.678e-07,0
2.467,3.5248e-06,0
2.4675,7.5532e-06,0
2.468,5.2033e-06,0
2.4685,-2.5177e-06,0
2.469,-2.1317e-05,0
2.4695,-4.6494e-05,0
2.47,-6.1097e-05,0
2.4705,-5.7237e-05,0
2.471,-4.8844e-05,0
2.4715,-4.8341e-05,0
2.472,-5.2537e-05,0
2.4725,-4.9851e-05,0
2.473,-4.1123e-05,0
2.4735,-3.0381e-05,0
2.474,-2.4674e-05,0
2.4745,-2.1149e-05,0
2.475,-1.5106e-05,0
2.4755,-4.5319e-06,0
2.476,7.8889e-06,0
2.4765,1.7792e-05,0
2.477,2.5849e-05,0
2.4775,4.213e-05,0
2.478,6.3615e-05,0
2.4785,8.1575e-05,0
2.479,9.4331e-05,0
2.4795,0.00011061,0
2.48,0.00013008,0
2.4805,0.00014217,0
2.481,0.00014217,0
2.4815,0.00013227,0
2.482,0.00012438,0
2.4825,0.00011934,0
2.483,0.00011431,0
2.4835,0.00011061,0
2.484,0.00010188,0
2.4845,8.275e-05,0
2.485,5.7572e-05,0
2.4855,3.4409e-05,0
2.486,1.3932e-05,0
2.4865,-4.8676e-06,0
2.487,-2.1653e-05,0
2.4875,-3.508e-05,0
2.488,-4.7166e-05,0
2.4885,-5.7572e-05,0
2.489,-6.4622e-05,0
2.4895,-6.63e-05,0
2.49,-6.2608e-05,0
2.4905,-5.4887e-05,0
2.491,-4.448e-05,0
2.4915,-3.7934e-05,0
2.492,-4.0787e-05,0
2.4925,-5.4215e-05,0
2.493,-6.1936e-05,0
2.4935,-5.069e-05,0
2.494,-1.8296e-05,0
2.4945,2.1988e-05,0
2.495,4.918e-05,0
2.4955,5.5558e-05,0
2.496,5.0523e-05,0
2.4965,4.8173e-05,0
2.497,5.0523e-05,0
2.4975,4.918e-05,0
2.498,3.8437e-05,0
2.4985,2.4674e-05,0
2.499,1.8296e-05,0
2.4995,1.8463e-05,0
2.5,1.4603e-05,0
2.5005,0,0
2.501,-2.2828e-05,0
2.5015,-4.2969e-05,0
2.502,-4.9515e-05,0
2.5025,-4.8173e-05,0
2.503,-4.3137e-05,0
2.5035,-2.9374e-05,0
2.504,-7.8889e-06,0
2.5045,1.091e-05,0
2.505,2.4674e-05,0
2.5055,4.3305e-05,0
2.506,6.5629e-05,0
2.5065,7.3182e-05,0
2.507,5.8747e-05,0
2.5075,4.0116e-05,0
2.508,2.3499e-05,0
2.5085,1.326e-05,0
2.509,1.1246e-05,0
2.5095,8.896e-06,0
2.51,4.1962e-06,0
2.5105,3.1891e-06,0
2.511,6.2104e-06,0
2.5115,1.1749e-05,0
2.512,2.2324e-05,0
2.5125,3.3234e-05,0
2.513,4.1962e-05,0
2.5135,5.4719e-05,0
2.514,7.5868e-05,0
2.5145,9.752e-05,0
2.515,0.00010188,0
2.5155,8.1407e-05,0
2.516,4.7501e-05,0
2.5165,2.6017e-05,0
2.517,2.6017e-05,0
2.5175,3.4745e-05,0
2.518,4.2802e-05,0
2.5185,5.2537e-05,0
2.519,6.3951e-05,0
2.5195,6.8986e-05,0
2.52,6.3783e-05,0
2.5205,5.0523e-05,0
2.521,3.3402e-05,0
2.5215,1.8296e-05,0
2.522,5.8747e-06,0
2.5225,-5.0355e-06,0
2.523,-1.3932e-05,0
2.5235,-1.9974e-05,0
2.524,-1.9638e-05,0
2.5245,-1.326e-05,0
2.525,-1.0575e-05,0
2.5255,-1.0407e-05,0
2.526,-8.0568e-06,0
2.5265,-5.035e-07,0
2.527,1.3932e-05,0
2.5275,2.6017e-05,0
2.528,3.0716e-05,0
2.5285,2.9877e-05,0
2.529,2.3667e-05,0
2.5295,1.3764e-05,0
2.53,1.6617e-05,0
2.5305,3.4913e-05,0
2.531,4.683e-05,0
2.5315,4.1123e-05,0
2.532,2.7192e-05,0
2.5325,1.6449e-05,0
2.533,1.1078e-05,0
2.5335,1.1246e-05,0
2.534,1.6617e-05,0
2.5345,2.5681e-05,0
2.535,3.3906e-05,0
2.5355,4.3305e-05,0
2.536,4.8844e-05,0
2.5365,3.9445e-05,0
2.537,1.8463e-05,0
2.5375,4.6998e-06,0
2.538,4.1962e-06,0
2.5385,6.5461e-06,0
2.539,0,0
2.5395,-1.326e-05,0
2.54,-2.2995e-05,0
2.5405,-2.6352e-05,0
2.541,-2.4338e-05,0
2.5415,-1.8463e-05,0
2.542,-1.3092e-05,0
2.5425,-1.5442e-05,0
2.543,-2.4674e-05,0
2.5435,-3.2395e-05,0
2.544,-3.1388e-05,0
2.5445,-2.9709e-05,0
2.545,-3.2395e-05,0
2.5455,-4.0452e-05,0
2.546,-5.1194e-05,0
2.5465,-5.7404e-05,0
2.547,-5.4551e-05,0
2.5475,-4.6662e-05,0
2.548,-3.1052e-05,0
2.5485,-3.1891e-06,0
2.549,3.0045e-05,0
2.5495,5.7908e-05,0
2.55,7.335e-05,0
2.5505,7.8553e-05,0
2.551,7.6204e-05,0
2.5515,6.949e-05,0
2.552,6.2944e-05,0
2.5525,6.5293e-05,0
2.553,7.9728e-05,0
2.5535,9.3156e-05,0
2.554,9.0806e-05,0
2.5545,7.6371e-05,0
2.555,6.5629e-05,0
2.5555,5.9754e-05,0
2.556,4.7166e-05,0
2.5565,2.9206e-05,0
2.557,1.4939e-05,0
2.5575,1.1917e-05,0
2.558,1.9135e-05,0
2.5585,2.6688e-05,0
2.559,3.0045e-05,0
2.5595,3.2059e-05,0
2.56,2.7695e-05,0
2.5605,1.4939e-05,0
2.561,3.8605e-06,0
2.5615,1.5106e-06,0
2.562,1.2757e-05,0
2.5625,3.743e-05,0
2.563,5.5558e-05,0
2.5635,4.8844e-05,0
2.564,2.2324e-05,0
2.5645,-1.0239e-05,0
2.565,-3.6759e-05,0
2.5655,-4.6494e-05,0
2.566,-3.3402e-05,0
2.5665,-8.5603e-06,0
2.567,1.5274e-05,0
2.5675,3.508e-05,0
2.568,5.153e-05,0
2.5685,5.9922e-05,0
2.569,5.539e-05,0
2.5695,4.5487e-05,0
2.57,4.6326e-05,0
2.5705,6.009e-05,0
2.571,7.7211e-05,0
2.5715,8.8457e-05,0
2.572,9.1142e-05,0
2.5725,7.6875e-05,0
2.573,4.1795e-05,0
2.5735,3.1891e-06,0
2.574,-1.9303e-05,0
2.5745,-1.9638e-05,0
2.575,-4.1962e-06,0
2.5755,1.4603e-05,0
2.576,2.887e-05,0
2.5765,3.1556e-05,0
2.577,1.9974e-05,0
2.5775,6.8818e-06,0
2.578,-8.392e-07,0
2.5785,-4.6998e-06,0
2.579,-2.8534e-06,0
2.5795,2.5177e-06,0
2.58,3.5248e-06,0
2.5805,-6.714e-07,0
2.581,-7.8889e-06,0
2.5815,-1.4099e-05,0
2.582,-1.9303e-05,0
2.5825,-1.9806e-05,0
2.583,-1.3932e-05,0
2.5835,-3.8605e-06,0
2.584,1.0071e-06,0
2.5845,-7.5532e-06,0
2.585,-1.561e-05,0
2.5855,-1.8631e-05,0
2.586,-2.6017e-05,0
2.5865,-2.5681e-05,0
2.587,-6.714e-06,0
2.5875,1.8631e-05,0
2.588,2.8534e-05,0
2.5885,1.6281e-05,0
2.589,8.392e-07,0
2.5895,6.2104e-06,0
2.59,2.8031e-05,0
2.5905,4.3473e-05,0
2.591,4.7501e-05,0
2.5915,4.7669e-05,0
2.592,4.6494e-05,0
2.5925,3.8773e-05,0
2.593,2.1653e-05,0
2.5935,5.035e-07,0
2.594,-1.3092e-05,0
2.5945,-1.6953e-05,0
2.595,-1.9135e-05,0
2.5955,-2.5177e-05,0
2.596,-2.5849e-05,0
2.5965,-1.2757e-05,0
2.597,6.5461e-06,0
2.5975,2.0981e-05,0
2.598,3.0549e-05,0
2.5985,3.508e-05,0
2.599,3.7766e-05,0
2.5995,4.7501e-05,0
2.6,5.9754e-05,0
2.6005,6.8315e-05,0
2.601,8.0064e-05,0
2.6015,9.6513e-05,0
2.602,0.00010188,0
2.6025,9.1142e-05,0
2.603,7.335e-05,0
2.6035,5.774e-05,0
2.604,5.3208e-05,0
2.6045,5.8579e-05,0
2.605,6.5629e-05,0
2.6055,6.3615e-05,0
2.606,4.7837e-05,0
2.6065,2.6017e-05,0
2.607,9.9031e-06,0
2.6075,8.3925e-06,0
2.608,1.2085e-05,0
2.6085,1.0239e-05,0
2.609,7.3854e-06,0
2.6095,9.9031e-06,0
2.61,1.2253e-05,0
2.6105,1.0071e-05,0
2.611,7.8889e-06,0
2.6115,7.0497e-06,0
2.612,1.0071e-06,0
2.6125,-1.1917e-05,0
2.613,-2.7024e-05,0
2.6135,-3.5752e-05,0
2.614,-3.4073e-05,0
2.6145,-2.2995e-05,0
2.615,-7.8889e-06,0
2.6155,3.357e-06,0
2.616,2.3499e-06,0
2.6165,-5.8747e-06,0
2.617,-1.091e-05,0
2.6175,-1.326e-05,0
2.618,-1.6281e-05,0
2.6185,-1.7624e-05,0
2.619,-1.796e-05,0
2.6195,-1.561e-05,0
2.62,-9.5674e-06,0
2.6205,-6.2104e-06,0
2.621,-3.1891e-06,0
2.6215,2.6856e-06,0
2.622,1.3092e-05,0
2.6225,2.5681e-05,0
2.623,3.3738e-05,0
2.6235,3.4241e-05,0
2.624,3.1388e-05,0
2.6245,2.8031e-05,0
2.625,2.266e-05,0
2.6255,1.4603e-05,0
2.626,5.2033e-06,0
2.6265,2.182e-06,0
2.627,6.2104e-06,0
2.6275,1.0071e-05,0
2.628,1.2421e-05,0
2.6285,1.4603e-05,0
2.629,1.4939e-05,0
2.6295,1.0575e-05,0
2.63,3.1891e-06,0
2.6305,-1.5106e-06,0
2.631,2.5177e-06,0
2.6315,1.0575e-05,0
2.632,1.2589e-05,0
2.6325,1.2253e-05,0
2.633,2.1988e-05,0
2.6335,4.1291e-05,0
2.634,5.4719e-05,0
2.6345,5.4551e-05,0
2.635,5.2369e-05,0
2.6355,5.5726e-05,0
2.636,5.8244e-05,0
2.6365,6.2272e-05,0
2.637,7.4021e-05,0
2.6375,8.7953e-05,0
2.638,9.5171e-05,0
2.6385,9.0303e-05,0
2.639,6.9657e-05,0
2.6395,4.2466e-05,0
2.64,2.4674e-05,0
2.6405,2.1317e-05,0
2.641,2.0646e-05,0
2.6415,1.6281e-05,0
2.642,5.2033e-06,0
2.6425,-1.2085e-05,0
2.643,-2.6184e-05,0
2.6435,-2.8367e-05,0
2.644,-2.2828e-05,0
2.6445,-1.5274e-05,0
2.645,-7.7211e-06,0
2.6455,1.1749e-06,0
2.646,1.7288e-05,0
2.6465,3.5752e-05,0
2.647,4.2802e-05,0
2.6475,3.1388e-05,0
2.648,2.0646e-05,0
2.6485,2.6688e-05,0
2.649,3.7095e-05,0
2.6495,3.4409e-05,0
2.65,2.0646e-05,0
2.6505,6.2104e-06,0
2.651,-5.0355e-06,0
2.6515,-8.5603e-06,0
2.652,3.0213e-06,0
2.6525,1.9638e-05,0
2.653,2.7359e-05,0
2.6535,2.2995e-05,0
2.654,1.1582e-05,0
2.6545,2.3499e-06,0
2.655,6.714e-07,0
2.6555,8.5603e-06,0
2.656,1.9806e-05,0
2.6565,3.2395e-05,0
2.657,4.5319e-05,0
2.6575,5.3544e-05,0
2.658,5.4551e-05,0
2.6585,5.4215e-05,0
2.659,6.0761e-05,0
2.6595,7.2511e-05,0
2.66,7.7043e-05,0
2.6605,6.7475e-05,0
2.661,4.9515e-05,0
2.6615,3.3738e-05,0
2.662,2.3499e-05,0
2.6625,1.5274e-05,0
2.663,8.5603e-06,0
2.6635,6.5461e-06,0
2.664,1.2253e-05,0
2.6645,1.1246e-05,0
2.665,-5.2033e-06,0
2.6655,-2.5681e-05,0
2.666,-3.592e-05,0
2.6665,-3.6423e-05,0
2.667,-3.4073e-05,0
2.6675,-3.0381e-05,0
2.668,-2.031e-05,0
2.6685,-5.7069e-06,0
2.669,8.5603e-06,0
2.6695,1.796e-05,0
2.67,2.2492e-05,0
2.6705,2.2828e-05,0
2.671,1.9806e-05,0
2.6715,2.3331e-05,0
2.672,3.0045e-05,0
2.6725,2.6688e-05,0
2.673,9.0639e-06,0
2.6735,-1.1246e-05,0
2.674,-2.7359e-05,0
2.6745,-3.6255e-05,0
2.675,-3.8437e-05,0
2.6755,-3.3906e-05,0
2.676,-1.8967e-05,0
2.6765,3.0213e-06,0
2.677,2.5177e-05,0
2.6775,4.213e-05,0
2.678,4.8676e-05,0
2.6785,4.4312e-05,0
2.679,4.0619e-05,0
2.6795,4.2802e-05,0
2.68,5.4887e-05,0
2.6805,7.3686e-05,0
2.681,7.9896e-05,0
2.6815,6.1936e-05,0
2.682,2.6688e-05,0
2.6825,-8.2246e-06,0
2.683,-2.7192e-05,0
2.6835,-2.5681e-05,0
2.684,-1.2924e-05,0
2.6845,3.1891e-06,0
2.685,1.6785e-05,0
2.6855,2.9374e-05,0
2.686,4.6326e-05,0
2.6865,5.8915e-05,0
2.687,5.9922e-05,0
2.6875,5.9922e-05,0
2.688,6.8315e-05,0
2.6885,7.8218e-05,0
2.689,7.8721e-05,0
2.6895,7.1672e-05,0
2.69,6.0761e-05,0
2.6905,5.3376e-05,0
2.691,5.1865e-05,0
2.6915,4.3137e-05,0
2.692,1.9303e-05,0
2.6925,-1.0575e-05,0
2.693,-2.6184e-05,0
2.6935,-2.4338e-05,0
2.694,-1.9303e-05,0
2.6945,-2.0478e-05,0
2.695,-2.7695e-05,0
2.6955,-3.3066e-05,0
2.696,-3.4745e-05,0
2.6965,-4.213e-05,0
2.697,-6.0594e-05,0
2.6975,-7.7714e-05,0
2.698,-8.1071e-05,0
2.6985,-7.1336e-05,0
2.699,-5.0355e-05,0
2.6995,-2.7527e-05,0
2.7,-1.2924e-05,0
2.7005,-9.2317e-06,0
2.701,-1.091e-05,0
2.7015,-8.2246e-06,0
2.702,8.896e-06,0
2.7025,3.4913e-05,0
2.703,6.63e-05,0
2.7035,9.8192e-05,0
2.704,0.00011632,0
2.7045,0.00011313,0
2.705,9.752e-05,0
2.7055,8.5771e-05,0
2.706,8.8289e-05,0
2.7065,0.00010037,0
2.707,0.00010608,0
2.7075,9.4835e-05,0
2.708,6.865e-05,0
2.7085,3.8102e-05,0
2.709,1.0575e-05,0
2.7095,-1.4435e-05,0
2.71,-3.508e-05,0
2.7105,-4.7669e-05,0
2.711,-5.4551e-05,0
2.7115,-5.8412e-05,0
2.712,-6.1601e-05,0
2.7125,-5.9754e-05,0
2.713,-4.8173e-05,0
2.7135,-2.8534e-05,0
2.714,-4.5319e-06,0
2.7145,2.1317e-05,0
2.715,5.2872e-05,0
2.7155,9.3828e-05,0
2.716,0.0001378,0
2.7165,0.0001697,0
2.717,0.0001791,0
2.7175,0.00016768,0
2.718,0.00013931,0
2.7185,0.00010222,0
2.719,7.1e-05,0
2.7195,4.918e-05,0
2.72,2.4002e-05,0
2.7205,-4.1962e-06,0
2.721,-2.2324e-05,0
2.7215,-2.4002e-05,0
2.722,-1.6281e-05,0
2.7225,-9.9031e-06,0
2.723,-9.2317e-06,0
2.7235,-1.2085e-05,0
2.724,-1.2924e-05,0
2.7245,-9.5674e-06,0
2.725,-6.8818e-06,0
2.7255,-4.1962e-06,0
2.726,8.5603e-06,0
2.7265,2.8031e-05,0
2.727,4.2634e-05,0
2.7275,4.4984e-05,0
2.728,4.1962e-05,0
2.7285,4.2466e-05,0
2.729,4.2802e-05,0
2.7295,4.1459e-05,0
2.73,3.9109e-05,0
2.7305,3.7766e-05,0
2.731,3.4409e-05,0
2.7315,2.3163e-05,0
2.732,1.8463e-06,0
2.7325,-2.5513e-05,0
2.733,-4.6494e-05,0
2.7335,-5.0019e-05,0
2.734,-4.6662e-05,0
2.7345,-5.4383e-05,0
2.735,-6.7979e-05,0
2.7355,-7.6707e-05,0
2.736,-8.1071e-05,0
2.7365,-8.1407e-05,0
2.737,-6.8315e-05,0
2.7375,-3.8437e-05,0
2.738,-6.5461e-06,0
2.7385,1.3932e-05,0
2.739,2.9374e-05,0
2.7395,4.5487e-05,0
2.74,5.5894e-05,0
2.7405,5.9754e-05,0
2.741,5.6565e-05,0
2.7415,4.4816e-05,0
2.742,3.0045e-05,0
2.7425,2.4002e-05,0
2.743,2.1988e-05,0
2.7435,7.7211e-06,0
2.744,-1.6785e-05,0
2.7445,-4.213e-05,0
2.745,-6.8315e-05,0
2.7455,-9.9535e-05,0
2.746,-0.00012572,0
2.7465,-0.00012287,0
2.747,-8.8792e-05,0
2.7475,-4.5151e-05,0
2.748,-1.0071e-05,0
2.7485,1.1582e-05,0
2.749,2.6352e-05,0
2.7495,5.0187e-05,0
2.75,9.0471e-05,0
2.7505,0.00014083,0
2.751,0.0001843,0
2.7515,0.00020662,0
2.752,0.00020528,0
2.7525,0.0001843,0
2.753,0.00014653,0
2.7535,9.7856e-05,0
2.754,5.3544e-05,0
2.7545,2.6184e-05,0
2.755,1.1917e-05,0
2.7555,3.1891e-06,0
2.756,-5.7069e-06,0
2.7565,-1.0239e-05,0
2.757,-6.5461e-06,0
2.7575,-1.5106e-06,0
2.758,1.678e-07,0
2.7585,2.182e-06,0
2.759,9.2317e-06,0
2.7595,1.9135e-05,0
2.76,2.4842e-05,0
2.7605,2.9374e-05,0
2.761,3.508e-05,0
2.7615,3.1388e-05,0
2.762,1.9974e-05,0
2.7625,1.326e-05,0
2.763,1.5946e-05,0
2.7635,2.266e-05,0
2.764,2.8031e-05,0
2.7645,2.5345e-05,0
2.765,1.7288e-05,0
2.7655,1.2589e-05,0
2.766,1.6617e-05,0
2.7665,2.2492e-05,0
2.767,2.7359e-05,0
2.7675,2.5009e-05,0
2.768,8.5603e-06,0
2.7685,-1.6449e-05,0
2.769,-3.0045e-05,0
2.7695,-1.4939e-05,0
2.77,2.3331e-05,0
2.7705,6.0929e-05,0
2.771,7.9057e-05,0
2.7715,7.1e-05,0
2.772,4.3809e-05,0
2.7725,1.2421e-05,0
2.773,-1.3932e-05,0
2.7735,-3.2563e-05,0
2.774,-3.6759e-05,0
2.7745,-2.5681e-05,0
2.775,-9.5674e-06,0
2.7755,3.357e-07,0
2.776,2.182e-06,0
2.7765,-1.5106e-06,0
2.777,-9.7353e-06,0
2.7775,-1.5274e-05,0
2.778,-8.3925e-06,0
2.7785,6.8818e-06,0
2.779,1.0575e-05,0
2.7795,-6.8818e-06,0
2.78,-3.0884e-05,0
2.7805,-3.7095e-05,0
2.781,-1.8967e-05,0
2.7815,7.2175e-06,0
2.782,2.7192e-05,0
2.7825,2.9877e-05,0
2.783,1.8463e-05,0
2.7835,1.3596e-05,0
2.784,2.4002e-05,0
2.7845,4.0787e-05,0
2.785,5.4215e-05,0
2.7855,5.4719e-05,0
2.786,4.2466e-05,0
2.7865,2.8031e-05,0
2.787,1.0575e-05,0
2.7875,-9.2317e-06,0
2.788,-1.0239e-05,0
2.7885,3.2395e-05,0
2.789,0.00010256,0
2.7895,0.0001462,0
2.79,0.00014049,0
2.7905,0.00010994,0
2.791,8.0735e-05,0
2.7915,5.4719e-05,0
2.792,2.0646e-05,0
2.7925,-2.7024e-05,0
2.793,-7.2679e-05,0
2.7935,-9.8192e-05,0
2.794,-0.00010474,0
2.7945,-0.00010306,0
2.795,-9.7856e-05,0
2.7955,-8.9128e-05,0
2.796,-7.5364e-05,0
2.7965,-5.7237e-05,0
2.797,-3.7095e-05,0
2.7975,-1.0575e-05,0
2.798,2.6352e-05,0
2.7985,6.6972e-05,0
2.799,0.00010054,0
2.7995,0.00011598,0
2.8,0.00011397,0
2.8005,0.00010726,0
2.801,0.00010155,0
2.8015,9.5506e-05,0
2.802,8.5771e-05,0
2.8025,6.7643e-05,0
2.803,5.3208e-05,0
2.8035,5.774e-05,0
2.804,7.1336e-05,0
2.8045,7.805e-05,0
2.805,7.0161e-05,0
2.8055,4.8173e-05,0
2.806,2.652e-05,0
2.8065,2.0981e-05,0
2.807,2.9709e-05,0
2.8075,4.0787e-05,0
2.808,4.5151e-05,0
2.8085,3.9109e-05,0
2.809,3.0381e-05,0
2.8095,2.7024e-05,0
2.81,2.0813e-05,0
2.8105,6.2104e-06,0
2.811,-7.5532e-06,0
2.8115,-1.091e-05,0
2.812,-7.0497e-06,0
2.8125,-1.0071e-06,0
2.813,3.1891e-06,0
2.8135,6.8818e-06,0
2.814,1.0575e-05,0
2.8145,1.4099e-05,0
2.815,2.1317e-05,0
2.8155,3.0884e-05,0
2.816,3.2395e-05,0
2.8165,1.2589e-05,0
2.817,-3.4073e-05,0
2.8175,-8.7617e-05,0
2.818,-0.00011901,0
2.8185,-0.00011682,0
2.819,-9.7856e-05,0
2.8195,-8.1407e-05,0
2.82,-6.7979e-05,0
2.8205,-5.0858e-05,0
2.821,-2.887e-05,0
2.8215,0,0
2.822,3.6423e-05,0
2.8225,7.8721e-05,0
2.823,0.00012018,0
2.8235,0.00015157,0
2.824,0.00016634,0
2.8245,0.00017305,0
2.825,0.00017372,0
2.8255,0.00016735,0
2.826,0.00015492,0
2.8265,0.00013143,0
2.827,0.00010323,0
2.8275,7.4357e-05,0
2.828,4.7166e-05,0
2.8285,2.7192e-05,0
2.829,9.7353e-06,0
2.8295,-1.6617e-05,0
2.83,-5.153e-05,0
2.8305,-7.5364e-05,0
2.831,-7.8553e-05,0
2.8315,-7.1672e-05,0
2.832,-7.2679e-05,0
2.8325,-8.4428e-05,0
2.833,-9.5674e-05,0
2.8335,-9.9199e-05,0
2.834,-9.4835e-05,0
2.8345,-7.9728e-05,0
2.835,-5.5222e-05,0
2.8355,-3.4409e-05,0
2.836,-2.6352e-05,0
2.8365,-2.3835e-05,0
2.837,-1.091e-05,0
2.8375,1.4435e-05,0
2.838,4.6494e-05,0
2.8385,8.2414e-05,0
2.839,0.00010356,0
2.8395,9.4163e-05,0
2.84,6.5629e-05,0
2.8405,4.5151e-05,0
2.841,3.8773e-05,0
2.8415,3.7766e-05,0
2.842,3.6759e-05,0
2.8425,3.6591e-05,0
2.843,3.743e-05,0
2.8435,3.9109e-05,0
2.844,3.122e-05,0
2.8445,1.6281e-05,0
2.845,1.091e-05,0
2.8455,1.0575e-05,0
2.846,5.2033e-06,0
2.8465,5.035e-07,0
2.847,1.0071e-06,0
2.8475,3.8605e-06,0
2.848,-3.357e-07,0
2.8485,-1.561e-05,0
2.849,-3.2059e-05,0
2.8495,-3.3402e-05,0
2.85,-1.3596e-05,0
2.8505,6.0426e-06,0
2.851,1.1246e-05,0
2.8515,8.3925e-06,0
2.852,7.8889e-06,0
2.8525,1.7624e-05,0
2.853,3.9445e-05,0
2.8535,6.6972e-05,0
2.854,0.00010004,0
2.8545,0.00013411,0
2.855,0.00015207,0
2.8555,0.0001462,0
2.856,0.00012924,0
2.8565,0.00011565,0
2.857,0.00010491,0
2.8575,8.5771e-05,0
2.858,5.8747e-05,0
2.8585,3.4745e-05,0
2.859,2.1653e-05,0
2.8595,1.9974e-05,0
2.86,1.9135e-05,0
2.8605,1.2253e-05,0
2.861,-1.8463e-06,0
2.8615,-2.4338e-05,0
2.862,-5.0019e-05,0
2.8625,-6.865e-05,0
2.863,-7.5868e-05,0
2.8635,-7.3518e-05,0
2.864,-6.0594e-05,0
2.8645,-3.978e-05,0
2.865,-1.2253e-05,0
2.8655,1.3764e-05,0
2.866,3.3402e-05,0
2.8665,4.8844e-05,0
2.867,6.1936e-05,0
2.8675,7.2679e-05,0
2.868,7.8721e-05,0
2.8685,7.7714e-05,0
2.869,6.5965e-05,0
2.8695,4.3977e-05,0
2.87,2.266e-05,0
2.8705,1.5274e-05,0
2.871,2.3835e-05,0
2.8715,3.827e-05,0
2.872,4.7166e-05,0
2.8725,4.5319e-05,0
2.873,3.4409e-05,0
2.8735,2.031e-05,0
2.874,3.6927e-06,0
2.8745,-1.5274e-05,0
2.875,-2.8367e-05,0
2.8755,-3.6591e-05,0
2.876,-5.153e-05,0
2.8765,-6.8315e-05,0
2.877,-7.805e-05,0
2.8775,-8.2078e-05,0
2.878,-8.51e-05,0
2.8785,-7.8721e-05,0
2.879,-5.623e-05,0
2.8795,-2.4506e-05,0
2.88,4.3641e-06,0
2.8805,2.0478e-05,0
2.881,1.7792e-05,0
2.8815,-1.0071e-06,0
2.882,-2.1317e-05,0
2.8825,-3.1052e-05,0
2.883,-2.7527e-05,0
2.8835,-1.6785e-05,0
2.884,-5.3712e-06,0
2.8845,-3.0213e-06,0
2.885,-8.5603e-06,0
2.8855,-7.5532e-06,0
2.886,6.5461e-06,0
2.8865,2.6688e-05,0
2.887,4.7166e-05,0
2.8875,6.3783e-05,0
2.888,6.8147e-05,0
2.8885,6.3615e-05,0
2.889,6.1936e-05,0
2.8895,6.9657e-05,0
2.89,8.426e-05,0
2.8905,0.00010054,0
2.891,0.0001086,0
2.8915,0.00010088,0
2.892,8.04e-05,0
2.8925,7.1e-05,0
2.893,7.7714e-05,0
2.8935,8.5771e-05,0
2.894,8.51e-05,0
2.8945,7.1839e-05,0
2.895,5.3544e-05,0
2.8955,3.8102e-05,0
2.896,2.3163e-05,0
2.8965,4.1962e-06,0
2.897,-7.0497e-06,0
2.8975,7.3854e-06,0
2.898,3.9277e-05,0
2.8985,6.2944e-05,0
2.899,7.1504e-05,0
2.8995,6.4958e-05,0
2.9,5.0187e-05,0
2.9005,3.978e-05,0
2.901,3.8102e-05,0
2.9015,3.2731e-05,0
2.902,1.0239e-05,0
2.9025,-1.2253e-05,0
2.903,-9.3996e-06,0
2.9035,2.2995e-05,0
2.904,6.3951e-05,0
2.9045,8.8121e-05,0
2.905,8.3085e-05,0
2.9055,5.9251e-05,0
2.906,3.2898e-05,0
2.9065,1.9303e-05,0
2.907,2.6184e-05,0
2.9075,4.1627e-05,0
2.908,4.6326e-05,0
2.9085,3.5416e-05,0
2.909,1.8631e-05,0
2.9095,3.8605e-06,0
2.91,-1.0575e-05,0
2.9105,-2.9206e-05,0
2.911,-4.7166e-05,0
2.9115,-5.3376e-05,0
2.912,-5.2872e-05,0
2.9125,-5.4383e-05,0
2.913,-5.388e-05,0
2.9135,-4.3137e-05,0
2.914,-1.6114e-05,0
2.9145,1.7792e-05,0
2.915,3.978e-05,0
2.9155,3.9109e-05,0
2.916,2.1149e-05,0
2.9165,2.5177e-06,0
2.917,-7.5532e-06,0
2.9175,-8.0568e-06,0
2.918,-6.8818e-06,0
2.9185,-1.796e-05,0
2.919,-4.1123e-05,0
2.9195,-6.63e-05,0
2.92,-8.2246e-05,0
2.9205,-8.1071e-05,0
2.921,-7.0329e-05,0
2.9215,-5.5055e-05,0
2.922,-3.3738e-05,0
2.9225,-7.5532e-06,0
2.923,1.561e-05,0
2.9235,2.4674e-05,0
2.924,1.8463e-05,0
2.9245,2.5177e-06,0
2.925,-1.0407e-05,0
2.9255,-1.1917e-05,0
2.926,1.678e-07,0
2.9265,1.8967e-05,0
2.927,2.7024e-05,0
2.9275,1.7624e-05,0
2.928,-1.678e-07,0
2.9285,-1.1078e-05,0
2.929,-5.3712e-06,0
2.9295,7.8889e-06,0
2.93,7.5532e-06,0
2.9305,-4.1962e-06,0
2.931,-1.2924e-05,0
2.9315,-1.3932e-05,0
2.932,-8.2246e-06,0
2.9325,4.5319e-06,0
2.933,2.2492e-05,0
2.9335,3.8437e-05,0
2.934,5.5222e-05,0
2.9345,7.8386e-05,0
2.935,8.3421e-05,0
2.9355,5.7908e-05,0
2.936,1.7792e-05,0
2.9365,-5.7069e-06,0
2.937,5.7069e-06,0
2.9375,3.5248e-05,0
2.938,5.153e-05,0
2.9385,4.6159e-05,0
2.939,3.7095e-05,0
2.9395,4.2802e-05,0
2.94,6.4958e-05,0
2.9405,9.7185e-05,0
2.941,0.00013008,0
2.9415,0.00015291,0
2.942,0.0001608,0
2.9425,0.00015476,0
2.943,0.00015677,0
2.9435,0.000165,0
2.944,0.0001556,0
2.9445,0.0001274,0
2.945,9.7856e-05,0
2.9455,7.4693e-05,0
2.946,4.8508e-05,0
2.9465,2.1988e-05,0
2.947,8.5603e-06,0
2.9475,4.3641e-06,0
2.948,-3.1891e-06,0
2.9485,-1.1246e-05,0
2.949,-1.5274e-05,0
2.9495,-1.6281e-05,0
2.95,-2.5177e-05,0
2.9505,-3.9445e-05,0
2.951,-5.0355e-05,0
2.9515,-5.4215e-05,0
2.952,-4.0787e-05,0
2.9525,-2.3331e-05,0
2.953,-2.7192e-05,0
2.9535,-4.4312e-05,0
2.954,-5.3208e-05,0
2.9545,-4.448e-05,0
2.955,-1.1078e-05,0
2.9555,4.3473e-05,0
2.956,9.601e-05,0
2.9565,0.00011867,0
2.957,8.7114e-05,0
2.9575,1.5946e-05,0
2.958,-4.5991e-05,0
2.9585,-7.2847e-05,0
2.959,-6.9657e-05,0
2.9595,-5.069e-05,0
2.96,-2.7695e-05,0
2.9605,-8.7282e-06,0
2.961,-2.182e-06,0
2.9615,-6.2104e-06,0
2.962,-9.9031e-06,0
2.9625,-1.091e-05,0
2.963,-7.5532e-06,0
2.9635,6.714e-07,0
2.964,-6.714e-07,0
2.9645,-1.4603e-05,0
2.965,-2.8367e-05,0
2.9655,-3.4745e-05,0
2.966,-3.6088e-05,0
2.9665,-3.4745e-05,0
2.967,-3.2395e-05,0
2.9675,-2.266e-05,0
2.968,-2.5177e-06,0
2.9685,1.8967e-05,0
2.969,3.743e-05,0
2.9695,5.6062e-05,0
2.97,7.1336e-05,0
2.9705,7.2343e-05,0
2.971,5.7237e-05,0
2.9715,3.7934e-05,0
2.972,2.4674e-05,0
2.9725,1.9135e-05,0
2.973,1.6281e-05,0
2.9735,9.9031e-06,0
2.974,-8.392e-07,0
2.9745,-8.896e-06,0
2.975,-1.3932e-05,0
2.9755,-1.561e-05,0
2.976,-6.8818e-06,0
2.9765,1.7288e-05,0
2.977,4.683e-05,0
2.9775,7.1e-05,0
2.978,8.4428e-05,0
2.9785,9.1142e-05,0
2.979,9.8527e-05,0
2.9795,0.00010121,0
2.98,8.8121e-05,0
2.9805,6.7643e-05,0
2.981,5.8915e-05,0
2.9815,6.0929e-05,0
2.982,5.5894e-05,0
2.9825,3.3234e-05,0
2.983,5.7069e-06,0
2.9835,-2.8534e-06,0
2.984,7.8889e-06,0
2.9845,1.7624e-05,0
2.985,1.5106e-05,0
2.9855,3.357e-06,0
2.986,-1.6785e-06,0
2.9865,1.6953e-05,0
2.987,4.2802e-05,0
2.9875,4.683e-05,0
2.988,3.1052e-05,0
2.9885,1.2421e-05,0
2.989,-3.1891e-06,0
2.9895,-1.2589e-05,0
2.99,-8.3925e-06,0
2.9905,3.0213e-06,0
2.991,1.6281e-05,0
2.9915,3.2731e-05,0
2.992,5.3376e-05,0
2.9925,7.6036e-05,0
2.993,9.1478e-05,0
2.9935,9.6178e-05,0
2.994,9.1814e-05,0
2.9945,6.9322e-05,0
2.995,2.1317e-05,0
2.9955,-3.2731e-05,0
2.996,-6.8986e-05,0
2.9965,-8.2918e-05,0
2.997,-7.8721e-05,0
2.9975,-6.6636e-05,0
2.998,-5.774e-05,0
2.9985,-5.5222e-05,0
2.999,-4.5319e-05,0
2.9995,-2.7192e-05,0
3,-6.2104e-06,0
3.0005,1.8128e-05,0
3.001,4.0452e-05,0
3.0015,5.1865e-05,0
3.002,5.0523e-05,0
3.0025,4.4816e-05,0
3.003,4.0116e-05,0
3.0035,3.4745e-05,0
3.004,2.6352e-05,0
3.0045,2.1653e-05,0
3.005,2.1317e-05,0
3.0055,2.3163e-05,0
3.006,2.6688e-05,0
3.0065,2.6352e-05,0
3.007,1.6617e-05,0
3.0075,1.4435e-05,0
3.008,3.1052e-05,0
3.0085,4.5151e-05,0
3.009,3.6759e-05,0
3.0095,1.2757e-05,0
3.01,-5.7069e-06,0
3.0105,-2.182e-06,0
3.011,2.182e-05,0
3.0115,4.5151e-05,0
3.012,5.9587e-05,0
3.0125,6.5629e-05,0
3.013,6.3951e-05,0
3.0135,6.63e-05,0
3.014,7.2007e-05,0
3.0145,7.3854e-05,0
3.015,6.5293e-05,0
3.0155,4.0787e-05,0
3.016,7.8889e-06,0
3.0165,-2.2995e-05,0
3.017,-3.9612e-05,0
3.0175,-3.0716e-05,0
3.018,-7.3854e-06,0
3.0185,1.1078e-05,0
3.019,1.8967e-05,0
3.0195,1.9638e-05,0
3.02,1.2253e-05,0
3.0205,-3.357e-06,0
3.021,-2.0981e-05,0
3.0215,-4.3977e-05,0
3.022,-7.2007e-05,0
3.0225,-9.1646e-05,0
3.023,-8.7785e-05,0
3.0235,-6.3615e-05,0
3.024,-3.1388e-05,0
3.0245,7.7211e-06,0
3.025,4.9348e-05,0
3.0255,8.4428e-05,0
3.026,0.00011531,0
3.0265,0.00014183,0
3.027,0.00015895,0
3.0275,0.00016634,0
3.028,0.00017137,0
3.0285,0.00016802,0
3.029,0.00014788,0
3.0295,0.00011867,0
3.03,8.9967e-05,0
3.0305,5.8076e-05,0
3.031,2.4002e-05,0
3.0315,-3.1891e-06,0
3.032,-1.8967e-05,0
3.0325,-3.1724e-05,0
3.033,-4.7333e-05,0
3.0335,-6.0761e-05,0
3.034,-6.479e-05,0
3.0345,-6.0929e-05,0
3.035,-6.2608e-05,0
3.0355,-8.1239e-05,0
3.036,-0.00010608,0
3.0365,-0.00011934,0
3.037,-0.00011481,0
3.0375,-9.9535e-05,0
3.038,-7.7378e-05,0
3.0385,-5.0523e-05,0
3.039,-2.1317e-05,0
3.0395,4.3641e-06,0
3.04,2.4674e-05,0
3.0405,4.6159e-05,0
3.041,5.6901e-05,0
3.0415,3.743e-05,0
3.042,-6.714e-07,0
3.0425,-3.3738e-05,0
3.043,-5.1698e-05,0
3.0435,-5.7908e-05,0
3.044,-5.8579e-05,0
3.0445,-5.388e-05,0
3.045,-4.3137e-05,0
3.0455,-2.9877e-05,0
3.046,-1.4267e-05,0
3.0465,1.5442e-05,0
3.047,7.0497e-05,0
3.0475,0.00013814,0
3.048,0.00017708,0
3.0485,0.00016365,0
3.049,0.0001133,0
3.0495,6.5126e-05,0
3.05,4.6998e-05,0
3.0505,5.9587e-05,0
3.051,7.8386e-05,0
3.0515,8.4764e-05,0
3.052,7.6539e-05,0
3.0525,5.4719e-05,0
3.053,2.7527e-05,0
3.0535,2.4002e-05,0
3.054,5.4551e-05,0
3.0545,8.7114e-05,0
3.055,8.3085e-05,0
3.0555,5.0858e-05,0
3.056,3.122e-05,0
3.0565,4.3809e-05,0
3.057,7.5029e-05,0
3.0575,0.00010491,0
3.058,0.00011666,0
3.0585,0.0001086,0
3.059,9.0471e-05,0
3.0595,7.8721e-05,0
3.06,7.1672e-05,0
3.0605,5.7237e-05,0
3.061,3.3234e-05,0
3.0615,6.5461e-06,0
3.062,-1.4939e-05,0
3.0625,-3.0045e-05,0
3.063,-4.2802e-05,0
3.0635,-5.4383e-05,0
3.064,-6.1433e-05,0
3.0645,-5.8747e-05,0
3.065,-3.827e-05,0
3.0655,-6.714e-07,0
3.066,4.0452e-05,0
3.0665,6.5293e-05,0
3.067,6.4622e-05,0
3.0675,4.2298e-05,0
3.068,7.7211e-06,0
3.0685,-2.1988e-05,0
3.069,-3.4745e-05,0
3.0695,-3.1052e-05,0
3.07,-1.8463e-05,0
3.0705,-6.2104e-06,0
3.071,-6.8818e-06,0
3.0715,-1.4435e-05,0
3.072,-1.4603e-05,0
3.0725,-1.1078e-05,0
3.073,-1.0071e-05,0
3.0735,-1.561e-05,0
3.074,-2.5009e-05,0
3.0745,-3.3738e-05,0
3.075,-3.7766e-05,0
3.0755,-4.3137e-05,0
3.076,-6.2608e-05,0
3.0765,-9.2989e-05,0
3.077,-0.00010558,0
3.0775,-9.0974e-05,0
3.078,-7.4021e-05,0
3.0785,-6.6636e-05,0
3.079,-5.9922e-05,0
3.0795,-6.3615e-05,0
3.08,-8.1575e-05,0
3.0805,-9.7353e-05,0
3.081,-8.9128e-05,0
3.0815,-5.388e-05,0
3.082,-1.678e-07,0
3.0825,5.4383e-05,0
3.083,8.8457e-05,0
3.0835,0.00011514,0
3.084,0.0001566,0
3.0845,0.00020612,0
3.085,0.00023919,0
3.0855,0.00024254,0
3.086,0.00022257,0
3.0865,0.00019789,0
3.087,0.0001707,0
3.0875,0.00012673,0
3.088,7.1504e-05,0
3.0885,2.6017e-05,0
3.089,1.6785e-06,0
3.0895,-1.091e-05,0
3.09,-2.5513e-05,0
3.0905,-4.0452e-05,0
3.091,-4.5487e-05,0
3.0915,-3.9445e-05,0
3.092,-4.1962e-05,0
3.0925,-7.0329e-05,0
3.093,-0.00010658,0
3.0935,-0.00011431,0
3.094,-6.9993e-05,0
3.0945,-4.1962e-06,0
3.095,3.7262e-05,0
3.0955,4.5487e-05,0
3.096,4.2466e-05,0
3.0965,5.1865e-05,0
3.097,9.1478e-05,0
3.0975,0.00015694,0
3.098,0.00022039,0
3.0985,0.00025664,0
3.099,0.00025731,0
3.0995,0.00023012,0
3.1,0.00018665,0
3.1005,0.00013948,0
3.101,9.2821e-05,0
3.1015,4.8005e-05,0
3.102,1.4603e-05,0
3.1025,-6.0426e-06,0
3.103,-2.1988e-05,0
