0,0,0
0.0005,0,0
0.001,0,0
0.0015,0,0
0.002,0,0
0.0025,0,0
0.003,0,0
0.0035,0,0
0.004,0,0
0.0045,0,0
0.005,0,0
0.0055,0,0
0.006,0,0
0.0065,0,0
0.007,0,0
0.0075,0,0
0.008,0,0
0.0085,0,0
0.009,0,0
0.0095,0,0
0.01,0,0
0.0105,0,0
0.011,0,0
0.0115,0,0
0.012,0,0
0.0125,0,0
0.013,5.8244e-05,0
0.0135,8.426e-05,0
0.014,0.0001039,0
0.0145,0.00010457,0
0.015,9.3828e-05,0
0.0155,8.9464e-05,0
0.016,8.5771e-05,0
0.0165,7.5029e-05,0
0.017,5.9754e-05,0
0.0175,4.4144e-05,0
0.018,2.3667e-05,0
0.0185,3.1891e-06,0
0.019,-8.896e-06,0
0.0195,-1.9303e-05,0
0.02,-3.6927e-05,0
0.0205,-4.9515e-05,0
0.021,-4.7166e-05,0
0.0215,-3.508e-05,0
0.022,-2.0478e-05,0
0.0225,-6.2104e-06,0
0.023,3.1891e-06,0
0.0235,1.0575e-05,0
0.024,1.7121e-05,0
0.0245,2.1317e-05,0
0.025,2.3835e-05,0
0.0255,2.4002e-05,0
0.026,2.3667e-05,0
0.0265,2.3835e-05,0
0.027,2.3835e-05,0
0.0275,2.4842e-05,0
0.028,2.9206e-05,0
0.0285,3.7095e-05,0
0.029,4.1123e-05,0
0.0295,4.1123e-05,0
0.03,4.3137e-05,0
0.0305,4.5823e-05,0
0.031,4.683e-05,0
0.0315,4.7837e-05,0
0.032,5.2537e-05,0
0.0325,5.6733e-05,0
0.033,5.8412e-05,0
0.0335,5.5894e-05,0
0.034,4.918e-05,0
0.0345,4.1291e-05,0
0.035,3.8102e-05,0
0.0355,4.0452e-05,0
0.036,4.1123e-05,0
0.0365,3.5248e-05,0
0.037,2.6688e-05,0
0.0375,2.5681e-05,0
0.038,2.9709e-05,0
0.0385,2.9206e-05,0
0.039,1.9638e-05,0
0.0395,7.2175e-06,0
0.04,5.035e-07,0
0.0405,6.5461e-06,0
0.041,1.9974e-05,0
0.0415,2.9374e-05,0
0.042,2.182e-05,0
0.0425,9.5674e-06,0
0.043,5.7069e-06,0
0.0435,5.8747e-06,0
0.044,1.2253e-05,0
0.0445,2.2324e-05,0
0.045,2.7024e-05,0
0.0455,2.6688e-05,0
0.046,2.7359e-05,0
0.0465,2.7359e-05,0
0.047,2.4002e-05,0
0.0475,2.0646e-05,0
0.048,1.8631e-05,0
0.0485,1.326e-05,0
0.049,5.2033e-06,0
0.0495,-1.1749e-06,0
0.05,-5.8747e-06,0
0.0505,-1.6953e-05,0
0.051,-3.2563e-05,0
0.0515,-3.9277e-05,0
0.052,-3.592e-05,0
0.0525,-3.1724e-05,0
0.053,-2.887e-05,0
0.0535,-2.4674e-05,0
0.054,-1.6281e-05,0
0.0545,-5.0355e-06,0
0.055,3.8605e-06,0
0.0555,7.8889e-06,0
0.056,1.3596e-05,0
0.0565,1.8631e-05,0
0.057,2.3331e-05,0
0.0575,3.2059e-05,0
0.058,4.0452e-05,0
0.0585,4.5487e-05,0
0.059,4.7166e-05,0
0.0595,4.6494e-05,0
0.06,4.5991e-05,0
0.0605,4.8173e-05,0
0.061,6.1097e-05,0
0.0615,9.8527e-05,0
0.062,0.00013495,0
0.0625,0.00013512,0
0.063,0.00010574,0
0.0635,8.1743e-05,0
0.064,6.5965e-05,0
0.0645,4.7501e-05,0
0.065,3.4409e-05,0
0.0655,4.2802e-05,0
0.066,6.3951e-05,0
0.0665,6.5965e-05,0
0.067,4.2802e-05,0
0.0675,9.9031e-06,0
0.068,-2.7024e-05,0
0.0685,-6.3783e-05,0
0.069,-9.0974e-05,0
0.0695,-0.00011514,0
0.07,-0.00013126,0
0.0705,-0.00011984,0
0.071,-8.4932e-05,0
0.0715,-5.1865e-05,0
0.072,-3.0213e-05,0
0.0725,-1.3428e-05,0
0.073,2.5177e-06,0
0.0735,1.4603e-05,0
0.074,2.2324e-05,0
0.0745,2.7695e-05,0
0.075,4.0452e-05,0
0.0755,5.0858e-05,0
0.076,4.2802e-05,0
0.0765,2.266e-05,0
0.077,3.357e-06,0
0.0775,-8.896e-06,0
0.078,-1.8463e-05,0
0.0785,-3.1388e-05,0
0.079,-4.1962e-05,0
0.0795,-4.0452e-05,0
0.08,-2.6017e-05,0
0.0805,-8.2246e-06,0
0.081,1.1749e-06,0
0.0815,3.8605e-06,0
0.082,1.2253e-05,0
0.0825,2.3835e-05,0
0.083,3.508e-05,0
0.0835,4.5823e-05,0
0.084,4.918e-05,0
0.0845,5.0187e-05,0
0.085,5.9251e-05,0
0.0855,6.7475e-05,0
0.086,6.7475e-05,0
0.0865,6.7308e-05,0
0.087,7.0664e-05,0
0.0875,7.5029e-05,0
0.088,7.3686e-05,0
0.0885,6.7643e-05,0
0.089,6.3951e-05,0
0.0895,6.479e-05,0
0.09,6.3447e-05,0
0.0905,5.2537e-05,0
0.091,3.8102e-05,0
0.0915,2.7359e-05,0
0.092,2.0981e-05,0
0.0925,1.1917e-05,0
0.093,-2.182e-06,0
0.0935,-1.1749e-05,0
0.094,-1.5946e-05,0
0.0945,-1.0575e-05,0
0.095,0,0
0.0955,5.035e-07,0
0.096,-7.3854e-06,0
0.0965,-1.0407e-05,0
0.097,-7.0497e-06,0
0.0975,-4.6998e-06,0
0.098,-3.5248e-06,0
0.0985,-3.8605e-06,0
0.099,0,0
0.0995,6.714e-06,0
0.1,1.2757e-05,0
0.1005,1.4267e-05,0
0.101,1.5442e-05,0
0.1015,1.4939e-05,0
0.102,1.3596e-05,0
0.1025,1.4435e-05,0
0.103,1.9806e-05,0
0.1035,2.8367e-05,0
0.104,3.4745e-05,0
0.1045,3.8605e-05,0
0.105,4.3473e-05,0
0.1055,4.6159e-05,0
0.106,4.6662e-05,0
0.1065,5.1865e-05,0
0.107,5.4215e-05,0
0.1075,5.1362e-05,0
0.108,5.4048e-05,0
0.1085,5.9419e-05,0
0.109,6.2272e-05,0
0.1095,6.3615e-05,0
0.11,5.4719e-05,0
0.1105,3.6088e-05,0
0.111,2.3499e-05,0
0.1115,2.5009e-05,0
0.112,3.6255e-05,0
0.1125,3.978e-05,0
0.113,3.3906e-05,0
0.1135,3.1388e-05,0
0.114,4.0116e-05,0
0.1145,5.3544e-05,0
0.115,6.1601e-05,0
0.1155,5.8747e-05,0
0.116,5.0355e-05,0
0.1165,4.0787e-05,0
0.117,3.1388e-05,0
0.1175,2.887e-05,0
0.118,2.7359e-05,0
0.1185,2.3835e-05,0
0.119,3.2395e-05,0
0.1195,4.8173e-05,0
0.12,3.6423e-05,0
0.1205,5.035e-07,0
0.121,-2.6352e-05,0
0.1215,-4.1459e-05,0
0.122,-4.7333e-05,0
0.1225,-3.8605e-05,0
0.123,-2.9877e-05,0
0.1235,-3.508e-05,0
0.124,-4.3809e-05,0
0.1245,-5.0019e-05,0
0.125,-5.2537e-05,0
0.1255,-5.0019e-05,0
0.126,-4.7333e-05,0
0.1265,-4.5991e-05,0
0.127,-4.3137e-05,0
0.1275,-3.508e-05,0
0.128,-2.2324e-05,0
0.1285,-2.182e-06,0
0.129,2.1485e-05,0
0.1295,3.6088e-05,0
0.13,4.1459e-05,0
0.1305,4.5487e-05,0
0.131,5.2705e-05,0
0.1315,6.3951e-05,0
0.132,8.2582e-05,0
0.1325,0.00010356,0
0.133,0.00010726,0
0.1335,9.2485e-05,0
0.134,7.3182e-05,0
0.1345,5.539e-05,0
0.135,3.4073e-05,0
0.1355,1.3932e-05,0
0.136,4.8676e-06,0
0.1365,6.5461e-06,0
0.137,6.5461e-06,0
0.1375,-4.8676e-06,0
0.138,-2.0142e-05,0
0.1385,-3.0716e-05,0
0.139,-3.6927e-05,0
0.1395,-4.1459e-05,0
0.14,-3.827e-05,0
0.1405,-2.6688e-05,0
0.141,-1.947e-05,0
0.1415,-1.8463e-05,0
0.142,-1.5946e-05,0
0.1425,-9.0639e-06,0
0.143,-5.035e-07,0
0.1435,8.896e-06,0
0.144,1.947e-05,0
0.1445,2.3835e-05,0
0.145,2.9709e-05,0
0.1455,4.5991e-05,0
0.146,5.5894e-05,0
0.1465,4.8844e-05,0
0.147,3.743e-05,0
0.1475,2.4674e-05,0
0.148,9.2317e-06,0
0.1485,1.1749e-06,0
0.149,-1.5106e-06,0
0.1495,-6.3783e-06,0
0.15,-1.0407e-05,0
0.1505,-7.7211e-06,0
0.151,-3.1891e-06,0
0.1515,1.0071e-06,0
0.152,2.8534e-06,0
0.1525,7.8889e-06,0
0.153,2.1317e-05,0
0.1535,3.3402e-05,0
0.154,3.8605e-05,0
0.1545,3.9445e-05,0
0.155,4.1459e-05,0
0.1555,4.5151e-05,0
0.156,4.8173e-05,0
0.1565,4.9515e-05,0
0.157,4.8173e-05,0
0.1575,4.6662e-05,0
0.158,4.4816e-05,0
0.1585,4.213e-05,0
0.159,3.6423e-05,0
0.1595,3.0381e-05,0
0.16,3.1724e-05,0
0.1605,3.3906e-05,0
0.161,3.2395e-05,0
0.1615,3.3066e-05,0
0.162,3.2059e-05,0
0.1625,2.9038e-05,0
0.163,2.9374e-05,0
0.1635,3.6591e-05,0
0.164,4.6159e-05,0
0.1645,5.153e-05,0
0.165,5.1698e-05,0
0.1655,4.9851e-05,0
0.166,4.8173e-05,0
0.1665,4.6662e-05,0
0.167,4.3473e-05,0
0.1675,3.4745e-05,0
0.168,1.6785e-05,0
0.1685,-3.357e-06,0
0.169,-1.7121e-05,0
0.1695,-1.9638e-05,0
0.17,-1.3932e-05,0
0.1705,-6.8818e-06,0
0.171,1.0071e-06,0
0.1715,1.326e-05,0
0.172,2.4674e-05,0
0.1725,3.4241e-05,0
0.173,4.1795e-05,0
0.1735,4.4816e-05,0
0.174,4.4144e-05,0
0.1745,5.623e-05,0
0.175,8.275e-05,0
0.1755,0.00010256,0
0.176,0.00010356,0
0.1765,9.5003e-05,0
0.177,8.04e-05,0
0.1775,4.8508e-05,0
0.178,6.5461e-06,0
0.1785,-1.947e-05,0
0.179,-2.031e-05,0
0.1795,-7.5532e-06,0
0.18,1.0407e-05,0
0.1805,3.2059e-05,0
0.181,4.0116e-05,0
0.1815,2.9877e-05,0
0.182,1.0575e-05,0
0.1825,-1.1246e-05,0
0.183,-2.5681e-05,0
0.1835,-3.3906e-05,0
0.184,-4.3809e-05,0
0.1845,-5.3208e-05,0
0.185,-6.3279e-05,0
0.1855,-7.0664e-05,0
0.186,-6.5965e-05,0
0.1865,-5.539e-05,0
0.187,-3.978e-05,0
0.1875,-1.8296e-05,0
0.188,-7.8889e-06,0
0.1885,-1.1917e-05,0
0.189,-1.4435e-05,0
0.1895,-7.5532e-06,0
0.19,4.1962e-06,0
0.1905,1.6953e-05,0
0.191,2.9038e-05,0
0.1915,3.2731e-05,0
0.192,2.9877e-05,0
0.1925,2.3835e-05,0
0.193,1.6785e-05,0
0.1935,1.6281e-05,0
0.194,1.9303e-05,0
0.1945,2.4842e-05,0
0.195,2.9877e-05,0
0.1955,3.2395e-05,0
0.196,3.6591e-05,0
0.1965,3.6088e-05,0
0.197,2.8367e-05,0
0.1975,2.0813e-05,0
0.198,1.7288e-05,0
0.1985,1.6449e-05,0
0.199,2.266e-05,0
0.1995,3.4073e-05,0
0.2,4.8173e-05,0
0.2005,6.5629e-05,0
0.201,7.9896e-05,0
0.2015,9.7353e-05,0
0.202,0.00011901,0
0.2025,0.00012253,0
0.203,0.0001044,0
0.2035,8.04e-05,0
0.204,5.9754e-05,0
0.2045,4.1123e-05,0
0.205,1.5946e-05,0
0.2055,-1.6114e-05,0
0.206,-3.743e-05,0
0.2065,-4.448e-05,0
0.207,-4.1795e-05,0
0.2075,-3.8437e-05,0
0.208,-3.7934e-05,0
0.2085,-3.508e-05,0
0.209,-3.0716e-05,0
0.2095,-2.8031e-05,0
0.21,-2.4674e-05,0
0.2105,-1.4603e-05,0
0.211,-1.8463e-06,0
0.2115,8.7282e-06,0
0.212,1.8463e-05,0
0.2125,2.266e-05,0
0.213,2.3667e-05,0
0.2135,2.7359e-05,0
0.214,3.0045e-05,0
0.2145,3.0716e-05,0
0.215,2.9709e-05,0
0.2155,2.7359e-05,0
0.216,2.6688e-05,0
0.2165,2.5345e-05,0
0.217,2.266e-05,0
0.2175,2.3667e-05,0
0.218,2.5009e-05,0
0.2185,2.1317e-05,0
0.219,1.4435e-05,0
0.2195,9.0639e-06,0
0.22,6.5461e-06,0
0.2205,7.0497e-06,0
0.221,1.0575e-05,0
0.2215,1.561e-05,0
0.222,2.5681e-05,0
0.2225,3.3402e-05,0
0.223,3.6759e-05,0
0.2235,4.213e-05,0
0.224,4.6662e-05,0
0.2245,4.9515e-05,0
0.225,6.3951e-05,0
0.2255,8.5771e-05,0
0.226,9.6513e-05,0
0.2265,8.8289e-05,0
0.227,6.6636e-05,0
0.2275,4.5151e-05,0
0.228,2.9709e-05,0
0.2285,9.9031e-06,0
0.229,-1.7624e-05,0
0.2295,-4.0452e-05,0
0.23,-5.0187e-05,0
0.2305,-5.3208e-05,0
0.231,-6.1433e-05,0
0.2315,-7.0161e-05,0
0.232,-6.6804e-05,0
0.2325,-5.1194e-05,0
0.233,-3.5416e-05,0
0.2335,-2.2324e-05,0
0.234,-1.0239e-05,0
0.2345,6.8818e-06,0
0.235,2.7863e-05,0
0.2355,4.7501e-05,0
0.236,6.2608e-05,0
0.2365,8.4428e-05,0
0.237,0.00010658,0
0.2375,0.00011061,0
0.238,9.6178e-05,0
0.2385,7.4189e-05,0
0.239,5.4887e-05,0
0.2395,4.448e-05,0
0.24,4.1795e-05,0
0.2405,3.2059e-05,0
0.241,1.2253e-05,0
0.2415,-8.2246e-06,0
0.242,-1.8967e-05,0
0.2425,-1.0239e-05,0
0.243,9.9031e-06,0
0.2435,2.3331e-05,0
0.244,2.5009e-05,0
0.2445,1.6449e-05,0
0.245,2.3499e-06,0
0.2455,-1.1414e-05,0
0.246,-2.7695e-05,0
0.2465,-4.7333e-05,0
0.247,-5.623e-05,0
0.2475,-4.8844e-05,0
0.248,-3.3066e-05,0
0.2485,-1.8463e-05,0
0.249,-4.5319e-06,0
0.2495,7.2175e-06,0
0.25,1.0575e-05,0
0.2505,1.5946e-05,0
0.251,3.5752e-05,0
0.2515,6.3951e-05,0
0.252,0.00010591,0
0.2525,0.00016063,0
0.253,0.00018614,0
0.2535,0.00016365,0
0.254,0.00011968,0
0.2545,8.1071e-05,0
0.255,5.069e-05,0
0.2555,2.182e-05,0
0.256,-2.8534e-06,0
0.2565,-1.8128e-05,0
0.257,-2.9877e-05,0
0.2575,-4.0452e-05,0
0.258,-5.5222e-05,0
0.2585,-7.0832e-05,0
0.259,-7.2343e-05,0
0.2595,-6.1936e-05,0
0.26,-4.8844e-05,0
0.2605,-3.3234e-05,0
0.261,-1.1246e-05,0
0.2615,5.2033e-06,0
0.262,1.2589e-05,0
0.2625,1.8967e-05,0
0.263,2.652e-05,0
0.2635,3.2731e-05,0
0.264,3.743e-05,0
0.2645,3.6088e-05,0
0.265,3.1556e-05,0
0.2655,3.122e-05,0
0.266,3.0213e-05,0
0.2665,2.5345e-05,0
0.267,2.0478e-05,0
0.2675,1.5946e-05,0
0.268,1.0575e-05,0
0.2685,6.2104e-06,0
0.269,3.6927e-06,0
0.2695,5.2033e-06,0
0.27,1.091e-05,0
0.2705,2.1149e-05,0
0.271,2.652e-05,0
0.2715,2.5177e-05,0
0.272,2.4338e-05,0
0.2725,2.8702e-05,0
0.273,3.1052e-05,0
0.2735,2.7192e-05,0
0.274,2.5345e-05,0
0.2745,3.508e-05,0
0.275,4.7166e-05,0
0.2755,5.3208e-05,0
0.276,5.4215e-05,0
0.2765,5.6733e-05,0
0.277,6.1601e-05,0
0.2775,6.0258e-05,0
0.278,5.7069e-05,0
0.2785,6.1265e-05,0
0.279,7.0664e-05,0
0.2795,7.7378e-05,0
0.28,7.8386e-05,0
0.2805,7.7714e-05,0
0.281,7.7714e-05,0
0.2815,8.04e-05,0
0.282,8.2918e-05,0
0.2825,7.7378e-05,0
0.283,5.623e-05,0
0.2835,2.2828e-05,0
0.284,-1.091e-05,0
0.2845,-3.8605e-05,0
0.285,-5.9251e-05,0
0.2855,-7.4693e-05,0
0.286,-8.4932e-05,0
0.2865,-9.1142e-05,0
0.287,-8.9799e-05,0
0.2875,-8.1407e-05,0
0.288,-6.865e-05,0
0.2885,-5.2201e-05,0
0.289,-3.2395e-05,0
0.2895,-1.5274e-05,0
0.29,-3.357e-07,0
0.2905,1.2421e-05,0
0.291,2.6688e-05,0
0.2915,4.0787e-05,0
0.292,4.213e-05,0
0.2925,3.5416e-05,0
0.293,3.1388e-05,0
0.2935,3.0884e-05,0
0.294,2.9374e-05,0
0.2945,2.652e-05,0
0.295,2.2156e-05,0
0.2955,2.1317e-05,0
0.296,1.9974e-05,0
0.2965,1.8296e-05,0
0.297,2.3331e-05,0
0.2975,3.6423e-05,0
0.298,5.2201e-05,0
0.2985,6.2272e-05,0
0.299,7.0664e-05,0
0.2995,8.9464e-05,0
0.3,0.00010826,0
0.3005,0.00011431,0
0.301,0.00010524,0
0.3015,8.1071e-05,0
0.302,4.4648e-05,0
0.3025,1.2589e-05,0
0.303,-3.5248e-06,0
0.3035,-1.6281e-05,0
0.304,-2.8199e-05,0
0.3045,-3.1891e-05,0
0.305,-3.4073e-05,0
0.3055,-3.8605e-05,0
0.306,-4.3305e-05,0
0.3065,-4.6494e-05,0
0.307,-4.5823e-05,0
0.3075,-4.0452e-05,0
0.308,-3.0381e-05,0
0.3085,-1.7624e-05,0
0.309,-5.8747e-06,0
0.3095,2.5177e-06,0
0.31,1.0575e-05,0
0.3105,1.4603e-05,0
0.311,1.5106e-05,0
0.3115,1.4603e-05,0
0.312,9.2317e-06,0
0.3125,3.357e-07,0
0.313,-3.357e-06,0
0.3135,-2.3499e-06,0
0.314,1.6785e-06,0
0.3145,7.7211e-06,0
0.315,8.3925e-06,0
0.3155,7.8889e-06,0
0.316,1.6281e-05,0
0.3165,2.3499e-05,0
0.317,2.2995e-05,0
0.3175,2.3499e-05,0
0.318,2.5345e-05,0
0.3185,2.8702e-05,0
0.319,3.3066e-05,0
0.3195,3.743e-05,0
0.32,4.1459e-05,0
0.3205,4.6159e-05,0
0.321,4.9515e-05,0
0.3215,5.623e-05,0
0.322,6.63e-05,0
0.3225,6.9154e-05,0
0.323,6.5965e-05,0
0.3235,7.335e-05,0
0.324,9.0135e-05,0
0.3245,9.131e-05,0
0.325,7.2679e-05,0
0.3255,5.1698e-05,0
0.326,4.213e-05,0
0.3265,3.9948e-05,0
0.327,3.5752e-05,0
0.3275,2.8702e-05,0
0.328,2.266e-05,0
0.3285,2.266e-05,0
0.329,3.0213e-05,0
0.3295,2.9038e-05,0
0.33,1.9974e-05,0
0.3305,1.8463e-05,0
0.331,2.0478e-05,0
0.3315,1.796e-05,0
0.332,5.0355e-06,0
0.3325,-1.2085e-05,0
0.333,-2.1653e-05,0
0.3335,-2.4674e-05,0
0.334,-2.8702e-05,0
0.3345,-3.3234e-05,0
0.335,-3.6423e-05,0
0.3355,-3.6927e-05,0
0.336,-3.1052e-05,0
0.3365,-2.2324e-05,0
0.337,-1.0239e-05,0
0.3375,4.1962e-06,0
0.338,2.031e-05,0
0.3385,4.213e-05,0
0.339,6.7475e-05,0
0.3395,7.956e-05,0
0.34,7.6707e-05,0
0.3405,7.4357e-05,0
0.341,6.9993e-05,0
0.3415,6.009e-05,0
0.342,3.9948e-05,0
0.3425,3.1891e-06,0
0.343,-3.6759e-05,0
0.3435,-6.8986e-05,0
0.344,-8.9464e-05,0
0.3445,-9.3492e-05,0
0.345,-8.0735e-05,0
0.3455,-6.1097e-05,0
0.346,-3.5416e-05,0
0.3465,-1.1582e-05,0
0.347,3.5248e-06,0
0.3475,1.5274e-05,0
0.348,2.7863e-05,0
0.3485,4.1962e-05,0
0.349,6.1265e-05,0
0.3495,8.275e-05,0
0.35,9.9031e-05,0
0.3505,0.00010658,0
0.351,0.00011632,0
0.3515,0.00012689,0
0.352,0.00011867,0
0.3525,8.8457e-05,0
0.353,6.2608e-05,0
0.3535,5.4887e-05,0
0.354,4.2802e-05,0
0.3545,1.947e-05,0
0.355,-4.3641e-06,0
0.3555,-3.4241e-05,0
0.356,-7.3014e-05,0
0.3565,-0.00010037,0
0.357,-0.00010826,0
0.3575,-0.00010289,0
0.358,-8.8457e-05,0
0.3585,-6.5797e-05,0
0.359,-4.2969e-05,0
0.3595,-2.5009e-05,0
0.36,-6.5461e-06,0
0.3605,1.5106e-05,0
0.361,3.1891e-05,0
0.3615,4.1459e-05,0
0.362,5.069e-05,0
0.3625,6.4958e-05,0
0.363,7.1504e-05,0
0.3635,6.6133e-05,0
0.364,5.7572e-05,0
0.3645,4.5823e-05,0
0.365,3.592e-05,0
0.3655,3.6927e-05,0
0.366,4.4144e-05,0
0.3665,4.5487e-05,0
0.367,3.5416e-05,0
0.3675,2.1317e-05,0
0.368,1.4267e-05,0
0.3685,1.0239e-05,0
0.369,5.539e-06,0
0.3695,4.1962e-06,0
0.37,5.2033e-06,0
0.3705,9.9031e-06,0
0.371,1.5442e-05,0
0.3715,1.4099e-05,0
0.372,9.5674e-06,0
0.3725,7.2175e-06,0
0.373,9.7353e-06,0
0.3735,1.4603e-05,0
0.374,1.9135e-05,0
0.3745,2.8031e-05,0
0.375,4.1962e-05,0
0.3755,5.5894e-05,0
0.376,6.63e-05,0
0.3765,6.865e-05,0
0.377,6.7475e-05,0
0.3775,6.3279e-05,0
0.378,5.6062e-05,0
0.3785,4.9515e-05,0
0.379,4.7166e-05,0
0.3795,4.5487e-05,0
0.38,4.1795e-05,0
0.3805,3.5752e-05,0
0.381,3.8102e-05,0
0.3815,3.9948e-05,0
0.382,3.7934e-05,0
0.3825,3.5416e-05,0
0.383,3.3066e-05,0
0.3835,3.6255e-05,0
0.384,5.304e-05,0
0.3845,8.4093e-05,0
0.385,0.00011128,0
0.3855,0.00011565,0
0.386,0.00010054,0
0.3865,7.6036e-05,0
0.387,4.8173e-05,0
0.3875,2.182e-05,0
0.388,0,0
0.3885,-2.6352e-05,0
0.389,-5.7237e-05,0
0.3895,-8.3421e-05,0
0.39,-9.8024e-05,0
0.3905,-0.00010306,0
0.391,-0.00010088,0
0.3915,-8.8792e-05,0
0.392,-6.5965e-05,0
0.3925,-3.9612e-05,0
0.393,-2.2324e-05,0
0.3935,-1.561e-05,0
0.394,-1.3092e-05,0
0.3945,-1.2757e-05,0
0.395,-1.0239e-05,0
0.3955,-3.357e-07,0
0.396,1.0407e-05,0
0.3965,1.1246e-05,0
0.397,9.0639e-06,0
0.3975,1.6281e-05,0
0.398,3.9277e-05,0
0.3985,7.0161e-05,0
0.399,9.7353e-05,0
0.3995,0.00011833,0
0.4,0.00013478,0
0.4005,0.00013999,0
0.401,0.00013092,0
0.4015,0.00011128,0
0.402,8.6778e-05,0
0.4025,6.4286e-05,0
0.403,4.7333e-05,0
0.4035,3.4745e-05,0
0.404,1.6617e-05,0
0.4045,-1.0071e-05,0
0.405,-3.3906e-05,0
0.4055,-3.4913e-05,0
0.406,-3.3066e-05,0
0.4065,-5.7908e-05,0
0.407,-9.0471e-05,0
0.4075,-0.0001044,0
0.408,-0.00010155,0
0.4085,-9.2485e-05,0
0.409,-8.2414e-05,0
0.4095,-6.3783e-05,0
0.41,-3.3738e-05,0
0.4105,-3.8605e-06,0
0.411,1.5274e-05,0
0.4115,3.3066e-05,0
0.412,5.8915e-05,0
0.4125,7.9728e-05,0
0.413,8.7282e-05,0
0.4135,8.5771e-05,0
0.414,8.275e-05,0
0.4145,7.7043e-05,0
0.415,6.63e-05,0
0.4155,5.3544e-05,0
0.416,4.1459e-05,0
0.4165,3.3066e-05,0
0.417,2.9038e-05,0
0.4175,1.3932e-05,0
0.418,-1.1414e-05,0
0.4185,-2.7863e-05,0
0.419,-3.2395e-05,0
0.4195,-3.2059e-05,0
0.42,-3.0045e-05,0
0.4205,-3.0716e-05,0
0.421,-2.7527e-05,0
0.4215,-1.9135e-05,0
0.422,-9.7353e-06,0
0.4225,-1.8463e-06,0
0.423,5.7069e-06,0
0.4235,1.3764e-05,0
0.424,2.0981e-05,0
0.4245,3.0045e-05,0
0.425,4.3809e-05,0
0.4255,5.8915e-05,0
0.426,7.0664e-05,0
0.4265,7.4693e-05,0
0.427,7.1168e-05,0
0.4275,6.2944e-05,0
0.428,5.5726e-05,0
0.4285,5.3208e-05,0
0.429,5.5558e-05,0
0.4295,6.2272e-05,0
0.43,7.1336e-05,0
0.4305,8.1743e-05,0
0.431,9.1814e-05,0
0.4315,9.4667e-05,0
0.432,8.9632e-05,0
0.4325,8.2078e-05,0
0.433,6.8818e-05,0
0.4335,4.2802e-05,0
0.434,1.1749e-05,0
0.4345,-8.2246e-06,0
0.435,-2.4002e-05,0
0.4355,-4.4144e-05,0
0.436,-6.3279e-05,0
0.4365,-7.3014e-05,0
0.437,-7.5196e-05,0
0.4375,-7.2175e-05,0
0.438,-5.9754e-05,0
0.4385,-4.2802e-05,0
0.439,-2.8199e-05,0
0.4395,-1.1917e-05,0
0.44,1.2924e-05,0
0.4405,4.683e-05,0
0.441,7.3014e-05,0
0.4415,8.0735e-05,0
0.442,8.3085e-05,0
0.4425,8.7114e-05,0
0.443,8.4428e-05,0
0.4435,7.8553e-05,0
0.444,7.6707e-05,0
0.4445,7.805e-05,0
0.445,7.3686e-05,0
0.4455,6.244e-05,0
0.446,4.6662e-05,0
0.4465,2.1988e-05,0
0.447,-3.6927e-06,0
0.4475,-1.5946e-05,0
0.448,-2.2995e-05,0
0.4485,-3.8605e-05,0
0.449,-5.623e-05,0
0.4495,-6.865e-05,0
0.45,-6.5629e-05,0
0.4505,-5.4215e-05,0
0.451,-4.7501e-05,0
0.4515,-4.2298e-05,0
0.452,-3.2731e-05,0
0.4525,-1.6953e-05,0
0.453,3.357e-07,0
0.4535,1.3092e-05,0
0.454,2.1149e-05,0
0.4545,2.3331e-05,0
0.455,2.4002e-05,0
0.4555,2.7863e-05,0
0.456,3.2563e-05,0
0.4565,2.9038e-05,0
0.457,1.9806e-05,0
0.4575,1.4603e-05,0
0.458,1.0239e-05,0
0.4585,0,0
0.459,-7.3854e-06,0
0.4595,-6.0426e-06,0
0.46,5.2033e-06,0
0.4605,1.8296e-05,0
0.461,2.8367e-05,0
0.4615,3.9277e-05,0
0.462,5.2201e-05,0
0.4625,5.9587e-05,0
0.463,5.9587e-05,0
0.4635,5.4383e-05,0
0.464,5.2201e-05,0
0.4645,5.8915e-05,0
0.465,6.9322e-05,0
0.4655,7.5196e-05,0
0.466,7.4021e-05,0
0.4665,6.6972e-05,0
0.467,5.623e-05,0
0.4675,5.3208e-05,0
0.468,7.1839e-05,0
0.4685,0.00010457,0
0.469,0.00012723,0
0.4695,0.0001232,0
0.47,9.5842e-05,0
0.4705,6.2272e-05,0
0.471,3.2059e-05,0
0.4715,6.5461e-06,0
0.472,-1.3596e-05,0
0.4725,-3.2395e-05,0
0.473,-4.5823e-05,0
0.4735,-4.7166e-05,0
0.474,-4.7333e-05,0
0.4745,-5.2872e-05,0
0.475,-6.1265e-05,0
0.4755,-6.9154e-05,0
0.476,-6.4118e-05,0
0.4765,-4.0116e-05,0
0.477,-1.1582e-05,0
0.4775,9.0639e-06,0
0.478,1.796e-05,0
0.4785,1.9303e-05,0
0.479,1.6617e-05,0
0.4795,1.1246e-05,0
0.48,6.714e-06,0
0.4805,5.539e-06,0
0.481,7.7211e-06,0
0.4815,1.0239e-05,0
0.482,1.091e-05,0
0.4825,1.1078e-05,0
0.483,1.1078e-05,0
0.4835,1.2924e-05,0
0.484,1.3932e-05,0
0.4845,1.561e-05,0
0.485,1.9974e-05,0
0.4855,2.9374e-05,0
0.486,4.5487e-05,0
0.4865,5.623e-05,0
0.487,5.0523e-05,0
0.4875,3.9445e-05,0
0.488,3.8605e-05,0
0.4885,4.5319e-05,0
0.489,4.8844e-05,0
0.4895,4.5823e-05,0
0.49,3.8773e-05,0
0.4905,3.0213e-05,0
0.491,2.3667e-05,0
0.4915,1.7456e-05,0
0.492,7.8889e-06,0
0.4925,-1.5106e-06,0
0.493,-6.5461e-06,0
0.4935,-7.8889e-06,0
0.494,-6.2104e-06,0
0.4945,-1.8463e-06,0
0.495,4.5319e-06,0
0.4955,1.0239e-05,0
0.496,1.2757e-05,0
0.4965,1.5946e-05,0
0.497,2.0478e-05,0
0.4975,2.0478e-05,0
0.498,1.947e-05,0
0.4985,2.3331e-05,0
0.499,3.4409e-05,0
0.4995,4.5823e-05,0
0.5,4.9515e-05,0
0.5005,4.7333e-05,0
0.501,4.6326e-05,0
0.5015,4.3305e-05,0
0.502,3.2731e-05,0
0.5025,2.0646e-05,0
0.503,1.4771e-05,0
0.5035,1.2421e-05,0
0.504,8.896e-06,0
0.5045,-1.678e-07,0
0.505,-1.6281e-05,0
0.5055,-2.7359e-05,0
0.506,-2.7024e-05,0
0.5065,-2.1988e-05,0
0.507,-1.091e-05,0
0.5075,6.8818e-06,0
0.508,2.4842e-05,0
0.5085,3.4409e-05,0
0.509,3.743e-05,0
0.5095,4.0619e-05,0
0.51,4.0116e-05,0
0.5105,3.7766e-05,0
0.511,4.7333e-05,0
0.5115,6.9993e-05,0
0.512,9.2485e-05,0
0.5125,0.00010524,0
0.513,0.00010272,0
0.5135,8.8121e-05,0
0.514,7.1672e-05,0
0.5145,5.3544e-05,0
0.515,3.2731e-05,0
0.5155,1.1078e-05,0
0.516,-4.6998e-06,0
0.5165,-1.4267e-05,0
0.517,-2.7024e-05,0
0.5175,-4.6326e-05,0
0.518,-6.6972e-05,0
0.5185,-8.0903e-05,0
0.519,-8.1407e-05,0
0.5195,-6.8147e-05,0
0.52,-4.9683e-05,0
0.5205,-3.4409e-05,0
0.521,-2.3667e-05,0
0.5215,-1.7624e-05,0
0.522,-1.3596e-05,0
0.5225,-2.182e-06,0
0.523,1.1582e-05,0
0.5235,1.9806e-05,0
0.524,2.6017e-05,0
0.5245,2.9374e-05,0
0.525,3.2059e-05,0
0.5255,3.508e-05,0
0.526,3.7598e-05,0
0.5265,4.5151e-05,0
0.527,6.2104e-05,0
0.5275,9.2485e-05,0
0.528,0.00011716,0
0.5285,0.00011196,0
0.529,8.1071e-05,0
0.5295,5.5558e-05,0
0.53,5.9251e-05,0
0.5305,8.04e-05,0
0.531,9.3156e-05,0
0.5315,8.5771e-05,0
0.532,6.1097e-05,0
0.5325,3.0045e-05,0
0.533,1.6785e-06,0
0.5335,-2.1988e-05,0
0.534,-4.6998e-05,0
0.5345,-7.4357e-05,0
0.535,-9.5506e-05,0
0.5355,-9.9031e-05,0
0.536,-8.9464e-05,0
0.5365,-8.0735e-05,0
0.537,-6.9322e-05,0
0.5375,-5.2201e-05,0
0.538,-3.3066e-05,0
0.5385,-1.4435e-05,0
0.539,-8.392e-07,0
0.5395,1.2589e-05,0
0.54,2.7695e-05,0
0.5405,3.7262e-05,0
0.541,4.2802e-05,0
0.5415,4.683e-05,0
0.542,4.7669e-05,0
0.5425,4.8844e-05,0
0.543,5.2872e-05,0
0.5435,5.6733e-05,0
0.544,5.623e-05,0
0.5445,5.0187e-05,0
0.545,4.2802e-05,0
0.5455,3.743e-05,0
0.546,3.5416e-05,0
0.5465,3.5248e-05,0
0.547,3.4073e-05,0
0.5475,3.1724e-05,0
0.548,2.7024e-05,0
0.5485,2.3667e-05,0
0.549,2.5849e-05,0
0.5495,3.2059e-05,0
0.55,3.5752e-05,0
0.5505,4.1627e-05,0
0.551,6.3279e-05,0
0.5515,8.7785e-05,0
0.552,9.1142e-05,0
0.5525,7.6707e-05,0
0.553,6.0594e-05,0
0.5535,4.7501e-05,0
0.554,3.7262e-05,0
0.5545,3.7095e-05,0
0.555,5.774e-05,0
0.5555,9.3828e-05,0
0.556,0.00011867,0
0.5565,0.00011783,0
0.557,9.2989e-05,0
0.5575,6.2944e-05,0
0.558,4.9851e-05,0
0.5585,5.0187e-05,0
0.559,4.5823e-05,0
0.5595,2.8031e-05,0
0.56,4.5319e-06,0
0.5605,-2.8031e-05,0
0.561,-6.6972e-05,0
0.5615,-9.7017e-05,0
0.562,-0.0001138,0
0.5625,-0.00012136,0
0.563,-0.00011733,0
0.5635,-0.00010944,0
0.564,-0.00010172,0
0.5645,-8.7114e-05,0
0.565,-6.8147e-05,0
0.5655,-4.918e-05,0
0.566,-3.4745e-05,0
0.5665,-2.3835e-05,0
0.567,-1.8296e-05,0
0.5675,-1.8631e-05,0
0.568,-1.8296e-05,0
0.5685,-1.2253e-05,0
0.569,-3.0213e-06,0
0.5695,6.2104e-06,0
0.57,1.4939e-05,0
0.5705,2.4674e-05,0
0.571,3.1891e-05,0
0.5715,3.3738e-05,0
0.572,3.2395e-05,0
0.5725,3.122e-05,0
0.573,3.4745e-05,0
0.5735,3.9109e-05,0
0.574,4.213e-05,0
0.5745,4.4144e-05,0
0.575,4.4144e-05,0
0.5755,4.3809e-05,0
0.576,4.918e-05,0
0.5765,6.1936e-05,0
0.577,7.5364e-05,0
0.5775,8.3421e-05,0
0.578,8.2078e-05,0
0.5785,7.9225e-05,0
0.579,8.51e-05,0
0.5795,0.00010121,0
0.58,0.00011934,0
0.5805,0.00012404,0
0.581,0.00010927,0
0.5815,8.7785e-05,0
0.582,7.6371e-05,0
0.5825,7.3014e-05,0
0.583,6.5965e-05,0
0.5835,5.4887e-05,0
0.584,4.1459e-05,0
0.5845,2.1317e-05,0
0.585,-5.7069e-06,0
0.5855,-3.2731e-05,0
0.586,-5.7572e-05,0
0.5865,-8.3085e-05,0
0.587,-9.8192e-05,0
0.5875,-8.9296e-05,0
0.588,-6.63e-05,0
0.5885,-4.8005e-05,0
0.589,-4.1459e-05,0
0.5895,-4.1123e-05,0
0.59,-3.7095e-05,0
0.5905,-2.7863e-05,0
0.591,-1.8967e-05,0
0.5915,-1.2253e-05,0
0.592,-5.539e-06,0
0.5925,5.035e-07,0
0.593,6.5461e-06,0
0.5935,1.2589e-05,0
0.594,1.4099e-05,0
0.5945,1.1749e-05,0
0.595,1.3764e-05,0
0.5955,2.4506e-05,0
0.596,4.7501e-05,0
0.5965,7.8218e-05,0
0.597,9.6513e-05,0
0.5975,9.4499e-05,0
0.598,8.0903e-05,0
0.5985,6.2272e-05,0
0.599,4.3641e-05,0
0.5995,3.0213e-05,0
0.6,2.7024e-05,0
0.6005,3.1388e-05,0
0.601,3.2059e-05,0
0.6015,2.8702e-05,0
0.602,2.887e-05,0
0.6025,2.9038e-05,0
0.603,2.5849e-05,0
0.6035,2.6017e-05,0
0.604,2.2828e-05,0
0.6045,1.4603e-05,0
0.605,8.896e-06,0
0.6055,8.3925e-06,0
0.606,8.7282e-06,0
0.6065,5.539e-06,0
0.607,-2.182e-06,0
0.6075,-9.5674e-06,0
0.608,-1.1246e-05,0
0.6085,-8.2246e-06,0
0.609,-5.0355e-06,0
0.6095,1.5106e-06,0
0.61,1.2589e-05,0
0.6105,2.5849e-05,0
0.611,3.743e-05,0
0.6115,4.4144e-05,0
0.612,4.6494e-05,0
0.6125,4.4816e-05,0
0.613,3.7934e-05,0
0.6135,2.9709e-05,0
0.614,2.0646e-05,0
0.6145,1.5442e-05,0
0.615,1.9638e-05,0
0.6155,2.3667e-05,0
0.616,2.9038e-05,0
0.6165,4.9515e-05,0
0.617,7.7043e-05,0
0.6175,8.3589e-05,0
0.618,5.8915e-05,0
0.6185,2.4002e-05,0
0.619,7.5532e-06,0
0.6195,8.5603e-06,0
0.62,1.9638e-05,0
0.6205,4.0619e-05,0
0.621,5.8412e-05,0
0.6215,6.244e-05,0
0.622,5.623e-05,0
0.6225,4.1627e-05,0
0.623,1.5946e-05,0
0.6235,-1.0407e-05,0
0.624,-2.9877e-05,0
0.6245,-4.8005e-05,0
0.625,-6.1433e-05,0
0.6255,-6.3615e-05,0
0.626,-5.8076e-05,0
0.6265,-4.8173e-05,0
0.627,-3.9109e-05,0
0.6275,-3.2731e-05,0
0.628,-2.5009e-05,0
0.6285,-1.796e-05,0
0.629,-8.2246e-06,0
0.6295,4.8676e-06,0
0.63,1.3764e-05,0
0.6305,1.8631e-05,0
0.631,2.4674e-05,0
0.6315,3.1891e-05,0
0.632,3.4073e-05,0
0.6325,3.508e-05,0
0.633,4.2466e-05,0
0.6335,5.069e-05,0
0.634,5.4048e-05,0
0.6345,5.3544e-05,0
0.635,5.0187e-05,0
0.6355,4.4144e-05,0
0.636,3.7766e-05,0
0.6365,3.3402e-05,0
0.637,0,0
0.6375,0,0
0.638,0,0
0.6385,0,0
0.639,0,0
0.6395,0,0
0.64,0,0
0.6405,0,0
0.641,0,0
0.6415,0,0
0.642,0,0
0.6425,0,0
0.643,0,0
0.6435,0,0
0.644,0,0
0.6445,0,0
0.645,0,0
0.6455,0,0
0.646,0,0
0.6465,0,0
0.647,0,0
0.6475,0,0
0.648,0,0
0.6485,0,0
0.649,0,0
0.6495,0,0
0.65,4.5319e-06,0
0.6505,-5.035e-07,0
0.651,-3.0213e-06,0
0.6515,-3.1891e-06,0
0.652,-4.8676e-06,0
0.6525,-3.8605e-06,0
0.653,-2.3499e-06,0
0.6535,-3.1891e-06,0
0.654,4.8676e-06,0
0.6545,1.796e-05,0
0.655,2.7024e-05,0
0.6555,3.0549e-05,0
0.656,2.7695e-05,0
0.6565,2.6352e-05,0
0.657,2.887e-05,0
0.6575,3.2059e-05,0
0.658,3.4577e-05,0
0.6585,4.4816e-05,0
0.659,6.3783e-05,0
0.6595,7.4189e-05,0
0.66,7.7546e-05,0
0.6605,8.1407e-05,0
0.661,8.3085e-05,0
0.6615,7.9393e-05,0
0.662,6.949e-05,0
0.6625,5.7572e-05,0
0.663,4.2466e-05,0
0.6635,3.0381e-05,0
0.664,3.7095e-05,0
0.6645,4.9515e-05,0
0.665,4.5151e-05,0
0.6655,3.0045e-05,0
0.666,9.9031e-06,0
0.6665,-9.2317e-06,0
0.667,-1.9638e-05,0
0.6675,-2.4338e-05,0
0.668,-2.5009e-05,0
0.6685,-2.182e-05,0
0.669,-2.5177e-05,0
0.6695,-3.1724e-05,0
0.67,-3.8437e-05,0
0.6705,-5.0523e-05,0
0.671,-6.2104e-05,0
0.6715,-6.0258e-05,0
0.672,-4.2802e-05,0
0.6725,-1.1582e-05,0
0.673,2.3331e-05,0
0.6735,4.4312e-05,0
0.674,4.7166e-05,0
0.6745,4.3305e-05,0
0.675,4.3137e-05,0
0.6755,4.2466e-05,0
0.676,3.743e-05,0
0.6765,3.2731e-05,0
0.677,2.9038e-05,0
0.6775,2.7359e-05,0
0.678,2.652e-05,0
0.6785,2.8534e-05,0
0.679,2.5345e-05,0
0.6795,1.7121e-05,0
0.68,1.0575e-05,0
0.6805,5.8747e-06,0
0.681,-2.182e-06,0
0.6815,-1.091e-05,0
0.682,-1.5778e-05,0
0.6825,-1.1414e-05,0
0.683,-1.678e-07,0
0.6835,7.8889e-06,0
0.684,8.5603e-06,0
0.6845,1.1246e-05,0
0.685,2.4338e-05,0
0.6855,3.7095e-05,0
0.686,4.1795e-05,0
0.6865,4.1123e-05,0
0.687,4.0116e-05,0
0.6875,3.9109e-05,0
0.688,3.5416e-05,0
0.6885,2.9374e-05,0
0.689,2.5513e-05,0
0.6895,2.4002e-05,0
0.69,2.7695e-05,0
0.6905,3.6088e-05,0
0.691,4.2802e-05,0
0.6915,4.1123e-05,0
0.692,2.9374e-05,0
0.6925,1.9303e-05,0
0.693,1.6617e-05,0
0.6935,1.0575e-05,0
0.694,1.0071e-06,0
0.6945,-4.3641e-06,0
0.695,-6.2104e-06,0
0.6955,-5.7069e-06,0
0.696,-6.8818e-06,0
0.6965,-4.1962e-06,0
0.697,8.5603e-06,0
0.6975,2.3667e-05,0
0.698,3.1052e-05,0
0.6985,3.3738e-05,0
0.699,3.3402e-05,0
0.6995,3.0045e-05,0
0.7,2.4506e-05,0
0.7005,1.9638e-05,0
0.701,1.326e-05,0
0.7015,9.3996e-06,0
0.702,1.8631e-05,0
0.7025,4.8173e-05,0
0.703,8.3757e-05,0
0.7035,0.00010809,0
0.704,0.00011229,0
0.7045,9.8527e-05,0
0.705,7.7043e-05,0
0.7055,6.0761e-05,0
0.706,5.4383e-05,0
0.7065,4.7501e-05,0
0.707,3.3402e-05,0
0.7075,1.0575e-05,0
0.708,-1.7792e-05,0
0.7085,-3.827e-05,0
0.709,-4.2634e-05,0
0.7095,-3.6927e-05,0
0.71,-2.6017e-05,0
0.7105,-1.2924e-05,0
0.711,-5.8747e-06,0
0.7115,-6.8818e-06,0
0.712,-1.2589e-05,0
0.7125,-1.9638e-05,0
0.713,-2.5681e-05,0
0.7135,-2.652e-05,0
0.714,-2.6017e-05,0
0.7145,-3.1388e-05,0
0.715,-3.5416e-05,0
0.7155,-3.2898e-05,0
0.716,-2.5681e-05,0
0.7165,-1.7288e-05,0
0.717,-1.1078e-05,0
0.7175,-5.539e-06,0
0.718,1.1749e-06,0
0.7185,8.7282e-06,0
0.719,1.9303e-05,0
0.7195,3.4577e-05,0
0.72,5.0187e-05,0
0.7205,5.8579e-05,0
0.721,5.7572e-05,0
0.7215,5.0019e-05,0
0.722,4.2802e-05,0
0.7225,3.7766e-05,0
0.723,3.3402e-05,0
0.7235,3.2898e-05,0
0.724,3.8102e-05,0
0.7245,3.7934e-05,0
0.725,3.4745e-05,0
0.7255,3.4409e-05,0
0.726,3.3402e-05,0
0.7265,3.5752e-05,0
0.727,4.0452e-05,0
0.7275,4.1291e-05,0
0.728,4.1795e-05,0
0.7285,4.1627e-05,0
0.729,4.6494e-05,0
0.7295,5.6901e-05,0
0.73,5.8076e-05,0
0.7305,5.2201e-05,0
0.731,4.4816e-05,0
0.7315,4.0452e-05,0
0.732,4.448e-05,0
0.7325,4.9348e-05,0
0.733,4.3641e-05,0
0.7335,2.6352e-05,0
0.734,5.8747e-06,0
0.7345,-4.5319e-06,0
0.735,-6.8818e-06,0
0.7355,-1.1246e-05,0
0.736,-1.947e-05,0
0.7365,-3.0884e-05,0
0.737,-3.9445e-05,0
0.7375,-4.1627e-05,0
0.738,-3.7766e-05,0
0.7385,-2.6352e-05,0
0.739,-1.4939e-05,0
0.7395,-1.8463e-06,0
0.74,1.1917e-05,0
0.7405,2.1988e-05,0
0.741,2.5681e-05,0
0.7415,2.7695e-05,0
0.742,3.3066e-05,0
0.7425,3.8773e-05,0
0.743,4.448e-05,0
0.7435,5.0858e-05,0
0.744,5.8915e-05,0
0.7445,6.6468e-05,0
0.745,6.5461e-05,0
0.7455,5.6062e-05,0
0.746,4.6494e-05,0
0.7465,4.4144e-05,0
0.747,4.5655e-05,0
0.7475,5.8915e-05,0
0.748,8.3757e-05,0
0.7485,9.7185e-05,0
0.749,8.5771e-05,0
0.7495,5.7404e-05,0
0.75,2.1653e-05,0
0.7505,-4.3641e-06,0
0.751,-1.7288e-05,0
0.7515,-2.652e-05,0
0.752,-3.2898e-05,0
0.7525,-3.1724e-05,0
0.753,-2.7695e-05,0
0.7535,-2.8199e-05,0
0.754,-3.1891e-05,0
0.7545,-3.5416e-05,0
0.755,-3.8437e-05,0
0.7555,-3.9109e-05,0
0.756,-3.0716e-05,0
0.7565,-1.2589e-05,0
0.757,2.182e-06,0
0.7575,5.7069e-06,0
0.758,1.5106e-06,0
0.7585,2.8534e-06,0
0.759,1.326e-05,0
0.7595,1.8967e-05,0
0.76,1.3764e-05,0
0.7605,7.8889e-06,0
0.761,1.2589e-05,0
0.7615,2.1317e-05,0
0.762,2.7863e-05,0
0.7625,2.7695e-05,0
0.763,2.2492e-05,0
0.7635,1.7288e-05,0
0.764,1.8631e-05,0
0.7645,2.1149e-05,0
0.765,2.182e-05,0
0.7655,2.652e-05,0
0.766,3.8773e-05,0
0.7665,5.5558e-05,0
0.767,7.335e-05,0
0.7675,8.4093e-05,0
0.768,8.8121e-05,0
0.7685,8.2078e-05,0
0.769,6.7308e-05,0
0.7695,4.8844e-05,0
0.77,2.7024e-05,0
0.7705,7.2175e-06,0
0.771,-3.5248e-06,0
0.7715,-9.9031e-06,0
0.772,-1.6953e-05,0
0.7725,-2.417e-05,0
0.773,-2.9877e-05,0
0.7735,-1.5946e-05,0
0.774,1.9806e-05,0
0.7745,3.7934e-05,0
0.775,2.2995e-05,0
0.7755,8.392e-07,0
0.776,-7.5532e-06,0
0.7765,-1.3428e-06,0
0.777,4.3641e-06,0
0.7775,4.3641e-06,0
0.778,1.6785e-06,0
0.7785,1.1749e-06,0
0.779,3.5248e-06,0
0.7795,5.035e-07,0
0.78,-6.5461e-06,0
0.7805,-8.5603e-06,0
0.781,-1.0071e-06,0
0.7815,5.3712e-06,0
0.782,5.8747e-06,0
0.7825,1.3596e-05,0
0.783,2.8702e-05,0
0.7835,4.4648e-05,0
0.784,5.5558e-05,0
0.7845,5.9251e-05,0
0.785,5.9251e-05,0
0.7855,5.6901e-05,0
0.786,5.2033e-05,0
0.7865,4.6662e-05,0
0.787,5.0523e-05,0
0.7875,6.7475e-05,0
0.788,8.2414e-05,0
0.7885,7.9225e-05,0
0.789,6.1265e-05,0
0.7895,4.0787e-05,0
0.79,2.7024e-05,0
0.7905,1.7456e-05,0
0.791,7.7211e-06,0
0.7915,-1.5106e-06,0
0.792,-7.5532e-06,0
0.7925,-1.0239e-05,0
0.793,-1.4603e-05,0
0.7935,-2.8702e-05,0
0.794,-4.4312e-05,0
0.7945,-4.918e-05,0
0.795,-3.978e-05,0
0.7955,-2.1317e-05,0
0.796,-9.2317e-06,0
0.7965,-3.1891e-06,0
0.797,6.3783e-06,0
0.7975,1.3764e-05,0
0.798,2.2324e-05,0
0.7985,3.592e-05,0
0.799,4.8676e-05,0
0.7995,6.1097e-05,0
0.8,7.57e-05,0
0.8005,8.6778e-05,0
0.801,9.0135e-05,0
0.8015,8.6778e-05,0
0.802,8.5267e-05,0
0.8025,8.6442e-05,0
0.803,8.6442e-05,0
0.8035,8.1407e-05,0
0.804,6.8315e-05,0
0.8045,4.5823e-05,0
0.805,1.5442e-05,0
0.8055,-1.1078e-05,0
0.806,-2.9709e-05,0
0.8065,-4.1291e-05,0
0.807,-4.5487e-05,0
0.8075,-5.1362e-05,0
0.808,-5.9419e-05,0
0.8085,-6.0258e-05,0
0.809,-5.304e-05,0
0.8095,-3.978e-05,0
0.81,-2.1988e-05,0
0.8105,-1.1246e-05,0
0.811,-6.2104e-06,0
0.8115,2.5177e-06,0
0.812,1.0575e-05,0
0.8125,1.5274e-05,0
0.813,1.8967e-05,0
0.8135,2.266e-05,0
0.814,2.4506e-05,0
0.8145,2.4506e-05,0
0.815,2.2995e-05,0
0.8155,2.3331e-05,0
0.816,2.6352e-05,0
0.8165,3.1052e-05,0
0.817,3.7095e-05,0
0.8175,4.0452e-05,0
0.818,3.743e-05,0
0.8185,3.3402e-05,0
0.819,2.9374e-05,0
0.8195,2.8031e-05,0
0.82,2.6688e-05,0
0.8205,2.3667e-05,0
0.821,2.9374e-05,0
0.8215,4.8173e-05,0
0.822,6.0929e-05,0
0.8225,6.0594e-05,0
0.823,5.4215e-05,0
0.8235,4.6159e-05,0
0.824,3.4241e-05,0
0.8245,2.3667e-05,0
0.825,1.7792e-05,0
0.8255,1.6617e-05,0
0.826,2.5345e-05,0
0.8265,4.8173e-05,0
0.827,7.2343e-05,0
0.8275,7.7378e-05,0
0.828,6.63e-05,0
0.8285,5.6733e-05,0
0.829,5.3376e-05,0
0.8295,4.6662e-05,0
0.83,3.2059e-05,0
0.8305,1.4939e-05,0
0.831,-1.678e-07,0
0.8315,-1.1078e-05,0
0.832,-1.9135e-05,0
0.8325,-2.8031e-05,0
0.833,-3.7766e-05,0
0.8335,-3.3738e-05,0
0.834,-1.5946e-05,0
0.8345,-5.035e-07,0
0.835,1.678e-07,0
0.8355,-6.5461e-06,0
0.836,-8.896e-06,0
0.8365,-1.2253e-05,0
0.837,-1.6785e-05,0
0.8375,-1.4603e-05,0
0.838,-1.1582e-05,0
0.8385,-1.0407e-05,0
0.839,-5.3712e-06,0
0.8395,-2.8534e-06,0
0.84,-5.539e-06,0
0.8405,-1.1917e-05,0
0.841,-1.5442e-05,0
0.8415,-1.0742e-05,0
0.842,1.0071e-06,0
0.8425,1.4267e-05,0
0.843,2.5849e-05,0
0.8435,3.508e-05,0
0.844,3.8941e-05,0
0.8445,3.7262e-05,0
0.845,3.6759e-05,0
0.8455,4.0619e-05,0
0.846,5.4551e-05,0
0.8465,7.1e-05,0
0.847,7.8386e-05,0
0.8475,7.8386e-05,0
0.848,6.9657e-05,0
0.8485,5.5558e-05,0
0.849,4.5487e-05,0
0.8495,3.5752e-05,0
0.85,2.0478e-05,0
0.8505,8.5603e-06,0
0.851,1.8463e-06,0
0.8515,-2.6856e-06,0
0.852,8.392e-07,0
0.8525,1.6281e-05,0
0.853,3.8102e-05,0
0.8535,5.7908e-05,0
0.854,7.2007e-05,0
0.8545,7.3014e-05,0
0.855,5.4551e-05,0
0.8555,2.7695e-05,0
0.856,3.6927e-06,0
0.8565,-1.0407e-05,0
0.857,-1.4099e-05,0
0.8575,-9.9031e-06,0
0.858,-5.0355e-06,0
0.8585,-1.0407e-05,0
0.859,-2.031e-05,0
0.8595,-2.1988e-05,0
0.86,-1.6953e-05,0
0.8605,-1.3932e-05,0
0.861,-2.0646e-05,0
0.8615,-2.4338e-05,0
0.862,-1.6953e-05,0
0.8625,-1.1582e-05,0
0.863,-1.091e-05,0
0.8635,-8.2246e-06,0
0.864,-7.2175e-06,0
0.8645,-6.5461e-06,0
0.865,-3.0213e-06,0
0.8655,-1.0071e-06,0
0.866,-1.6785e-06,0
0.8665,-3.0213e-06,0
0.867,2.8534e-06,0
0.8675,2.0813e-05,0
0.868,4.2466e-05,0
0.8685,6.0929e-05,0
0.869,7.9393e-05,0
0.8695,9.4499e-05,0
0.87,9.6513e-05,0
0.8705,8.6442e-05,0
0.871,7.2343e-05,0
0.8715,5.8915e-05,0
0.872,4.8173e-05,0
0.8725,4.0284e-05,0
0.873,3.2395e-05,0
0.8735,1.9806e-05,0
0.874,-6.8818e-06,0
0.8745,-4.0787e-05,0
0.875,-6.0761e-05,0
0.8755,-6.7308e-05,0
0.876,-7.0497e-05,0
0.8765,-6.3615e-05,0
0.877,-4.448e-05,0
0.8775,-2.0981e-05,0
0.878,-8.392e-07,0
0.8785,1.1582e-05,0
0.879,1.7288e-05,0
0.8795,2.0646e-05,0
0.88,2.5177e-05,0
0.8805,3.2731e-05,0
0.881,4.2802e-05,0
0.8815,5.2033e-05,0
0.882,5.7572e-05,0
0.8825,6.2272e-05,0
0.883,6.8147e-05,0
0.8835,7.4189e-05,0
0.884,7.5029e-05,0
0.8845,7.3014e-05,0
0.885,7.8386e-05,0
0.8855,8.04e-05,0
0.886,6.63e-05,0
0.8865,4.5487e-05,0
0.887,2.5345e-05,0
0.8875,1.3596e-05,0
0.888,8.5603e-06,0
0.8885,6.5461e-06,0
0.889,1.3092e-05,0
0.8895,1.8296e-05,0
0.89,1.1582e-05,0
0.8905,-1.1749e-06,0
0.891,-5.8747e-06,0
0.8915,-2.8534e-06,0
0.892,-1.678e-07,0
0.8925,2.182e-06,0
0.893,5.2033e-06,0
0.8935,9.5674e-06,0
0.894,1.4267e-05,0
0.8945,1.8631e-05,0
0.895,2.0646e-05,0
0.8955,2.7024e-05,0
0.896,4.683e-05,0
0.8965,7.8386e-05,0
0.897,9.8024e-05,0
0.8975,9.366e-05,0
0.898,7.57e-05,0
0.8985,5.5222e-05,0
0.899,3.4241e-05,0
0.8995,1.3932e-05,0
0.9,-1.6785e-06,0
0.9005,-1.1749e-05,0
0.901,-1.9806e-05,0
0.9015,-2.8534e-05,0
0.902,-3.4073e-05,0
0.9025,-3.3402e-05,0
0.903,-3.3066e-05,0
0.9035,-3.1891e-05,0
0.904,-2.3667e-05,0
0.9045,-1.3092e-05,0
0.905,-7.8889e-06,0
0.9055,-5.8747e-06,0
0.906,-3.5248e-06,0
0.9065,2.182e-06,0
0.907,7.0497e-06,0
0.9075,1.0071e-05,0
0.908,1.8128e-05,0
0.9085,3.1388e-05,0
0.909,4.0787e-05,0
0.9095,4.1459e-05,0
0.91,3.7766e-05,0
0.9105,3.5752e-05,0
0.911,3.9109e-05,0
0.9115,4.2466e-05,0
0.912,4.4144e-05,0
0.9125,4.3809e-05,0
0.913,3.743e-05,0
0.9135,2.8702e-05,0
0.914,2.8534e-05,0
0.9145,3.2563e-05,0
0.915,3.6255e-05,0
0.9155,3.6423e-05,0
0.916,2.4002e-05,0
0.9165,7.7211e-06,0
0.917,-2.8534e-06,0
0.9175,-6.2104e-06,0
0.918,-2.8534e-06,0
0.9185,7.8889e-06,0
0.919,2.5345e-05,0
0.9195,3.6088e-05,0
0.92,3.3906e-05,0
0.9205,3.0045e-05,0
0.921,3.357e-05,0
0.9215,3.8773e-05,0
0.922,3.9445e-05,0
0.9225,3.6759e-05,0
0.923,2.5849e-05,0
0.9235,9.2317e-06,0
0.924,2.5177e-06,0
0.9245,5.0355e-06,0
0.925,1.8463e-06,0
0.9255,-8.2246e-06,0
0.926,-1.7288e-05,0
0.9265,-1.9638e-05,0
0.927,-1.091e-05,0
0.9275,-1.0071e-06,0
0.928,2.0142e-06,0
0.9285,5.2033e-06,0
0.929,7.2175e-06,0
0.9295,6.2104e-06,0
0.93,9.0639e-06,0
0.9305,1.6449e-05,0
0.931,2.2324e-05,0
0.9315,2.5345e-05,0
0.932,2.9374e-05,0
0.9325,2.9709e-05,0
0.933,2.4002e-05,0
0.9335,1.9638e-05,0
0.934,1.796e-05,0
0.9345,1.9135e-05,0
0.935,2.0646e-05,0
0.9355,2.3835e-05,0
0.936,3.6759e-05,0
0.9365,5.5894e-05,0
0.937,7.2679e-05,0
0.9375,8.04e-05,0
0.938,8.1239e-05,0
0.9385,7.5532e-05,0
0.939,6.7308e-05,0
0.9395,7.1839e-05,0
0.94,9.0471e-05,0
0.9405,9.7856e-05,0
0.941,8.5267e-05,0
0.9415,6.3279e-05,0
0.942,4.2802e-05,0
0.9425,3.1388e-05,0
0.943,1.6617e-05,0
0.9435,-9.7353e-06,0
0.944,-3.7262e-05,0
0.9445,-5.3544e-05,0
0.945,-5.6565e-05,0
0.9455,-5.6901e-05,0
0.946,-5.9587e-05,0
0.9465,-6.5461e-05,0
0.947,-7.1168e-05,0
0.9475,-7.5364e-05,0
0.948,-7.3686e-05,0
0.9485,-6.7979e-05,0
0.949,-6.1265e-05,0
0.9495,-5.2033e-05,0
0.95,-3.6423e-05,0
0.9505,-1.7624e-05,0
0.951,0,0
0.9515,1.8128e-05,0
0.952,3.0213e-05,0
0.9525,3.9948e-05,0
0.953,5.0858e-05,0
0.9535,5.9251e-05,0
0.954,6.1601e-05,0
0.9545,7.3686e-05,0
0.955,0.00010944,0
0.9555,0.00015291,0
0.956,0.00017775,0
0.9565,0.0001754,0
0.957,0.00016365,0
0.9575,0.00015241,0
0.958,0.00012807,0
0.9585,8.1071e-05,0
0.959,2.0981e-05,0
0.9595,-3.4745e-05,0
0.96,-7.3014e-05,0
0.9605,-9.4163e-05,0
0.961,-0.00010591,0
0.9615,-0.00011414,0
0.962,-0.00012253,0
0.9625,-0.0001232,0
0.963,-0.00010608,0
0.9635,-8.0064e-05,0
0.964,-5.8915e-05,0
0.9645,-3.9277e-05,0
0.965,-2.0142e-05,0
0.9655,-8.5603e-06,0
0.966,-5.539e-06,0
0.9665,-4.1962e-06,0
0.967,5.539e-06,0
0.9675,1.9303e-05,0
0.968,2.7695e-05,0
0.9685,3.1052e-05,0
0.969,3.3906e-05,0
0.9695,3.6591e-05,0
0.97,3.7934e-05,0
0.9705,4.1459e-05,0
0.971,4.7166e-05,0
0.9715,5.1194e-05,0
0.972,5.1362e-05,0
0.9725,6.2272e-05,0
0.973,9.366e-05,0
0.9735,0.00012421,0
0.974,0.00013529,0
0.9745,0.00013008,0
0.975,0.00012807,0
0.9755,0.00012975,0
0.976,0.00012337,0
0.9765,0.00010323,0
0.977,7.5532e-05,0
0.9775,5.153e-05,0
0.978,2.9374e-05,0
0.9785,3.5248e-06,0
0.979,-2.266e-05,0
0.9795,-4.8173e-05,0
0.98,-6.8818e-05,0
0.9805,-8.0232e-05,0
0.981,-8.3421e-05,0
0.9815,-8.2078e-05,0
0.982,-7.335e-05,0
0.9825,-5.4719e-05,0
0.983,-3.3234e-05,0
0.9835,-1.3092e-05,0
0.984,4.0284e-06,0
0.9845,1.5778e-05,0
0.985,2.3331e-05,0
0.9855,3.0213e-05,0
0.986,3.7095e-05,0
0.9865,4.3473e-05,0
0.987,4.8676e-05,0
0.9875,5.0019e-05,0
0.988,4.7166e-05,0
0.9885,4.448e-05,0
0.989,4.3473e-05,0
0.9895,4.5487e-05,0
0.99,5.0187e-05,0
0.9905,5.3208e-05,0
0.991,5.3208e-05,0
0.9915,5.3208e-05,0
0.992,5.8244e-05,0
0.9925,5.9419e-05,0
0.993,5.4215e-05,0
0.9935,5.6397e-05,0
0.994,6.4958e-05,0
0.9945,7.1672e-05,0
0.995,7.4357e-05,0
0.9955,6.8986e-05,0
0.996,5.5222e-05,0
0.9965,3.3906e-05,0
0.997,1.1917e-05,0
0.9975,-3.8605e-06,0
0.998,-1.561e-05,0
0.9985,-2.7695e-05,0
0.999,-4.213e-05,0
0.9995,-5.623e-05,0
1,-6.2944e-05,0
1.0005,-6.1601e-05,0
1.001,-5.4551e-05,0
1.0015,-4.5151e-05,0
1.002,-3.0045e-05,0
1.0025,-1.3932e-05,0
1.003,-2.182e-06,0
1.0035,6.2104e-06,0
1.004,8.5603e-06,0
1.0045,1.1246e-05,0
1.005,1.7121e-05,0
1.0055,1.5274e-05,0
1.006,6.2104e-06,0
1.0065,3.357e-06,0
1.007,7.8889e-06,0
1.0075,1.5946e-05,0
1.008,2.4002e-05,0
1.0085,2.9877e-05,0
1.009,3.1388e-05,0
1.0095,3.0716e-05,0
1.01,3.2059e-05,0
1.0105,3.5752e-05,0
1.011,5.0523e-05,0
1.0115,8.661e-05,0
1.012,0.00012555,0
1.0125,0.00014418,0
1.013,0.00014301,0
1.0135,0.00013227,0
1.014,0.00011431,0
1.0145,9.6513e-05,0
1.015,8.4093e-05,0
1.0155,6.8315e-05,0
1.016,4.2298e-05,0
1.0165,1.2757e-05,0
1.017,-1.3596e-05,0
1.0175,-3.9612e-05,0
1.018,-6.5965e-05,0
1.0185,-8.7785e-05,0
1.019,-9.9535e-05,0
1.0195,-0.00010188,0
1.02,-9.3492e-05,0
1.0205,-6.7308e-05,0
1.021,-2.3667e-05,0
1.0215,1.8631e-05,0
1.022,3.8773e-05,0
1.0225,4.4144e-05,0
1.023,4.8844e-05,0
1.0235,5.0858e-05,0
1.024,4.5823e-05,0
1.0245,3.0045e-05,0
1.025,1.0239e-05,0
1.0255,7.7211e-06,0
1.026,1.1246e-05,0
1.0265,-5.3712e-06,0
1.027,-4.213e-05,0
1.0275,-7.57e-05,0
1.028,-8.896e-05,0
1.0285,-9.2485e-05,0
1.029,-9.4163e-05,0
1.0295,-8.745e-05,0
1.03,-7.3686e-05,0
1.0305,-5.3712e-05,0
1.031,-2.7192e-05,0
1.0315,-5.539e-06,0
1.032,5.7069e-06,0
1.0325,1.2924e-05,0
1.033,2.0981e-05,0
1.0335,3.2731e-05,0
1.034,4.6662e-05,0
1.0345,6.6636e-05,0
1.035,9.8527e-05,0
1.0355,0.00013143,0
1.036,0.00014418,0
1.0365,0.00013848,0
1.037,0.00012404,0
1.0375,0.00010558,0
1.038,8.51e-05,0
1.0385,6.3783e-05,0
1.039,3.7766e-05,0
1.0395,6.5461e-06,0
1.04,-1.9974e-05,0
1.0405,-3.1052e-05,0
1.041,-3.3402e-05,0
1.0415,-3.1724e-05,0
1.042,-1.8967e-05,0
1.0425,7.2175e-06,0
1.043,3.4745e-05,0
1.0435,5.7572e-05,0
1.044,7.4357e-05,0
1.0445,7.7546e-05,0
1.045,7.7211e-05,0
1.0455,8.9632e-05,0
1.046,0.00010843,0
1.0465,0.0001138,0
1.047,0.00010105,0
1.0475,8.0064e-05,0
1.048,6.8147e-05,0
1.0485,6.5293e-05,0
1.049,4.7669e-05,0
1.0495,1.3596e-05,0
1.05,-1.7288e-05,0
1.0505,-3.6423e-05,0
1.051,-4.7166e-05,0
1.0515,-5.5222e-05,0
1.052,-6.244e-05,0
1.0525,-6.0929e-05,0
1.053,-4.7333e-05,0
1.0535,-3.1052e-05,0
1.054,-1.8631e-05,0
1.0545,-1.8463e-05,0
1.055,-2.5009e-05,0
1.0555,-2.4674e-05,0
1.056,-1.9303e-05,0
1.0565,-1.3596e-05,0
1.057,-8.0568e-06,0
1.0575,-2.182e-06,0
1.058,1.0575e-05,0
1.0585,2.6017e-05,0
1.059,3.0381e-05,0
1.0595,2.9374e-05,0
1.06,3.2059e-05,0
1.0605,3.508e-05,0
1.061,3.4745e-05,0
1.0615,3.6088e-05,0
1.062,4.918e-05,0
1.0625,6.5461e-05,0
1.063,7.1672e-05,0
1.0635,6.6468e-05,0
1.064,5.5222e-05,0
1.0645,4.0955e-05,0
1.065,2.4002e-05,0
1.0655,8.5603e-06,0
1.066,2.182e-06,0
1.0665,3.5248e-06,0
1.067,1.0239e-05,0
1.0675,1.6617e-05,0
1.068,1.4267e-05,0
1.0685,1.1414e-05,0
1.069,1.5274e-05,0
1.0695,1.796e-05,0
1.07,1.3092e-05,0
1.0705,-3.357e-07,0
1.071,-1.1749e-05,0
1.0715,-1.0407e-05,0
1.072,-8.2246e-06,0
1.0725,-8.896e-06,0
1.073,-7.3854e-06,0
1.0735,-5.035e-07,0
1.074,9.7353e-06,0
1.0745,1.8631e-05,0
1.075,2.2492e-05,0
1.0755,2.5009e-05,0
1.076,2.8534e-05,0
1.0765,3.0045e-05,0
1.077,3.1388e-05,0
1.0775,3.3066e-05,0
1.078,3.6927e-05,0
1.0785,4.2634e-05,0
1.079,4.7669e-05,0
1.0795,4.9348e-05,0
1.08,4.9515e-05,0
1.0805,4.8173e-05,0
1.081,4.4144e-05,0
1.0815,4.1459e-05,0
1.082,4.2634e-05,0
1.0825,4.2802e-05,0
1.083,3.8437e-05,0
1.0835,2.887e-05,0
1.084,1.9135e-05,0
1.0845,1.4939e-05,0
1.085,1.1078e-05,0
1.0855,1.1749e-05,0
1.086,1.561e-05,0
1.0865,1.9135e-05,0
1.087,2.3667e-05,0
1.0875,3.0381e-05,0
1.088,3.7095e-05,0
1.0885,4.1291e-05,0
1.089,4.2802e-05,0
1.0895,4.2802e-05,0
1.09,4.3641e-05,0
1.0905,4.6662e-05,0
1.091,5.1698e-05,0
1.0915,5.6901e-05,0
1.092,5.8244e-05,0
1.0925,5.623e-05,0
1.093,4.8005e-05,0
1.0935,2.8031e-05,0
1.094,2.5177e-06,0
1.0945,-1.5442e-05,0
1.095,-2.887e-05,0
1.0955,-3.9277e-05,0
1.096,-4.1627e-05,0
1.0965,-4.3137e-05,0
1.097,-4.9851e-05,0
1.0975,-5.1865e-05,0
1.098,-4.1795e-05,0
1.0985,-1.6953e-05,0
1.099,1.5946e-05,0
1.0995,5.069e-05,0
1.1,7.57e-05,0
1.1005,7.7714e-05,0
1.101,5.8579e-05,0
1.1015,4.0452e-05,0
1.102,3.5416e-05,0
1.1025,3.743e-05,0
1.103,3.7095e-05,0
1.1035,2.8367e-05,0
1.104,1.0071e-05,0
1.1045,-8.2246e-06,0
1.105,-1.9135e-05,0
1.1055,-1.8463e-05,0
1.106,-1.4267e-05,0
1.1065,-2.3163e-05,0
1.107,-4.0787e-05,0
1.1075,-4.8508e-05,0
1.108,-4.3473e-05,0
1.1085,-2.5681e-05,0
1.109,7.5532e-06,0
1.1095,3.8605e-05,0
1.11,5.4215e-05,0
1.1105,5.7237e-05,0
1.111,4.8173e-05,0
1.1115,3.978e-05,0
1.112,4.8508e-05,0
1.1125,7.3686e-05,0
1.113,9.4163e-05,0
1.1135,9.4163e-05,0
1.114,7.5029e-05,0
1.1145,4.4648e-05,0
1.115,9.7353e-06,0
1.1155,-2.1317e-05,0
1.116,-3.827e-05,0
1.1165,-4.5823e-05,0
1.117,-5.4719e-05,0
1.1175,-6.2944e-05,0
1.118,-6.479e-05,0
1.1185,-5.7572e-05,0
1.119,-4.7669e-05,0
1.1195,-3.8102e-05,0
1.12,-2.887e-05,0
1.1205,-1.8967e-05,0
1.121,-1.0239e-05,0
1.1215,-8.392e-07,0
1.122,1.0407e-05,0
1.1225,2.182e-05,0
1.123,3.1891e-05,0
1.1235,3.508e-05,0
1.124,3.0381e-05,0
1.1245,2.6352e-05,0
1.125,2.6688e-05,0
1.1255,3.357e-05,0
1.126,5.1698e-05,0
1.1265,8.3421e-05,0
1.127,0.00011498,0
1.1275,0.00012689,0
1.128,0.000118,0
1.1285,0.00010037,0
1.129,8.1407e-05,0
1.1295,6.4286e-05,0
1.13,5.0523e-05,0
1.1305,3.7095e-05,0
1.131,2.4002e-05,0
1.1315,1.3596e-05,0
1.132,6.2104e-06,0
1.1325,-8.7282e-06,0
1.133,-2.8534e-05,0
1.1335,-3.6759e-05,0
1.134,-3.122e-05,0
1.1345,-1.6617e-05,0
1.135,3.1891e-06,0
1.1355,1.8799e-05,0
1.136,2.7527e-05,0
1.1365,3.2395e-05,0
1.137,3.1724e-05,0
1.1375,2.9038e-05,0
1.138,2.6017e-05,0
1.1385,2.0646e-05,0
1.139,1.5946e-05,0
1.1395,1.4939e-05,0
1.14,1.4099e-05,0
1.1405,1.091e-05,0
1.141,6.3783e-06,0
1.1415,6.5461e-06,0
1.142,1.4435e-05,0
1.1425,1.9974e-05,0
1.143,1.6617e-05,0
1.1435,1.4939e-05,0
1.144,2.3499e-05,0
1.1445,3.1388e-05,0
1.145,3.0716e-05,0
1.1455,2.4674e-05,0
1.146,2.0981e-05,0
1.1465,2.1149e-05,0
1.147,2.2492e-05,0
1.1475,2.2492e-05,0
1.148,2.5345e-05,0
1.1485,3.0045e-05,0
1.149,3.743e-05,0
1.1495,5.4719e-05,0
1.15,7.5532e-05,0
1.1505,9.1478e-05,0
1.151,9.987e-05,0
1.1515,9.8192e-05,0
1.152,9.0471e-05,0
1.1525,8.0232e-05,0
1.153,6.7643e-05,0
1.1535,4.5151e-05,0
1.154,1.6785e-05,0
1.1545,-7.2175e-06,0
1.155,-1.8967e-05,0
1.1555,-1.326e-05,0
1.156,-2.8534e-06,0
1.1565,-3.6927e-06,0
1.157,-1.3596e-05,0
1.1575,-2.5681e-05,0
1.158,-3.8437e-05,0
1.1585,-5.388e-05,0
1.159,-6.0594e-05,0
1.1595,-5.1362e-05,0
1.16,-3.3402e-05,0
1.1605,-1.5274e-05,0
1.161,-6.5461e-06,0
1.1615,4.3641e-06,0
1.162,4.3137e-05,0
1.1625,9.3828e-05,0
1.163,0.00011229,0
1.1635,9.2821e-05,0
1.164,6.8147e-05,0
1.1645,4.9851e-05,0
1.165,3.0549e-05,0
1.1655,6.5461e-06,0
1.166,-1.2757e-05,0
1.1665,-1.6785e-05,0
1.167,-1.3932e-05,0
1.1675,-2.2492e-05,0
1.168,-5.2033e-05,0
1.1685,-9.1646e-05,0
1.169,-0.00012119,0
1.1695,-0.00012757,0
1.17,-0.00011145,0
1.1705,-7.805e-05,0
1.171,-3.3738e-05,0
1.1715,5.8747e-06,0
1.172,2.7024e-05,0
1.1725,3.6088e-05,0
1.173,3.9612e-05,0
1.1735,4.0619e-05,0
1.174,3.8773e-05,0
1.1745,3.0213e-05,0
1.175,2.4002e-05,0
1.1755,4.4816e-05,0
1.176,8.3421e-05,0
1.1765,0.00010323,0
1.177,9.2821e-05,0
1.1775,6.7979e-05,0
1.178,4.5487e-05,0
1.1785,2.9206e-05,0
1.179,2.031e-05,0
1.1795,1.6953e-05,0
1.18,1.3932e-05,0
1.1805,8.5603e-06,0
1.181,0,0
1.1815,-7.3854e-06,0
1.182,-1.6281e-05,0
1.1825,-2.1988e-05,0
1.183,-1.326e-05,0
1.1835,6.5461e-06,0
1.184,2.7359e-05,0
1.1845,5.0523e-05,0
1.185,7.0497e-05,0
1.1855,7.5029e-05,0
1.186,6.4622e-05,0
1.1865,5.3544e-05,0
1.187,4.9515e-05,0
1.1875,5.0523e-05,0
1.188,4.9683e-05,0
1.1885,4.7333e-05,0
1.189,4.5319e-05,0
1.1895,4.6998e-05,0
1.19,5.1194e-05,0
1.1905,5.3544e-05,0
1.191,4.7837e-05,0
1.1915,3.4073e-05,0
1.192,2.3835e-05,0
1.1925,3.0716e-05,0
1.193,5.3544e-05,0
1.1935,6.6972e-05,0
1.194,5.6733e-05,0
1.1945,3.4073e-05,0
1.195,1.6953e-05,0
1.1955,1.6617e-05,0
1.196,2.4674e-05,0
1.1965,2.6688e-05,0
1.197,2.1149e-05,0
1.1975,1.0575e-05,0
1.198,-5.035e-07,0
1.1985,-4.3641e-06,0
1.199,-9.9031e-06,0
1.1995,-1.9974e-05,0
1.2,-2.8367e-05,0
1.2005,-2.8367e-05,0
1.201,-1.8463e-05,0
1.2015,-8.2246e-06,0
1.202,-4.8676e-06,0
1.2025,-4.1962e-06,0
1.203,2.182e-06,0
1.2035,1.3764e-05,0
1.204,2.6017e-05,0
1.2045,3.4073e-05,0
1.205,3.6088e-05,0
1.2055,3.5248e-05,0
1.206,3.357e-05,0
1.2065,2.7527e-05,0
1.207,1.7792e-05,0
1.2075,8.7282e-06,0
1.208,4.3641e-06,0
1.2085,4.1962e-06,0
1.209,1.0575e-05,0
1.2095,1.9638e-05,0
1.21,2.5681e-05,0
1.2105,3.0716e-05,0
1.211,3.9109e-05,0
1.2115,5.2201e-05,0
1.212,6.5797e-05,0
1.2125,8.0232e-05,0
1.213,9.2485e-05,0
1.2135,9.5506e-05,0
1.214,8.7617e-05,0
1.2145,7.0329e-05,0
1.215,4.3809e-05,0
1.2155,1.4939e-05,0
1.216,-3.6927e-06,0
1.2165,-8.896e-06,0
1.217,-9.9031e-06,0
1.2175,-1.9638e-05,0
1.218,-3.5584e-05,0
1.2185,-4.8844e-05,0
1.219,-5.3544e-05,0
1.2195,-4.7669e-05,0
1.22,-3.3906e-05,0
1.2205,-1.9638e-05,0
1.221,-1.0239e-05,0
1.2215,-2.0142e-06,0
1.222,1.2924e-05,0
1.2225,2.9374e-05,0
1.223,3.508e-05,0
1.2235,3.2059e-05,0
1.224,4.1459e-05,0
1.2245,6.0258e-05,0
1.225,6.4622e-05,0
1.2255,4.8676e-05,0
1.226,2.6688e-05,0
1.2265,6.8818e-06,0
1.227,-4.1962e-06,0
1.2275,-7.5532e-06,0
1.228,-1.3764e-05,0
1.2285,-2.7527e-05,0
1.229,-4.2466e-05,0
1.2295,-5.4887e-05,0
1.23,-6.5293e-05,0
1.2305,-7.1336e-05,0
1.231,-6.9657e-05,0
1.2315,-5.9922e-05,0
1.232,-4.2466e-05,0
1.2325,-2.1653e-05,0
1.233,-3.357e-06,0
1.2335,1.1246e-05,0
1.234,2.3163e-05,0
1.2345,3.4073e-05,0
1.235,4.1627e-05,0
1.2355,4.4816e-05,0
1.236,4.2298e-05,0
1.2365,3.6759e-05,0
1.237,3.4073e-05,0
1.2375,4.1459e-05,0
1.238,5.4887e-05,0
1.2385,6.9657e-05,0
1.239,8.5771e-05,0
1.2395,0.00010323,0
1.24,0.00011733,0
1.2405,0.00012136,0
1.241,0.00010726,0
1.2415,8.5771e-05,0
1.242,7.6371e-05,0
1.2425,8.1407e-05,0
1.243,8.4428e-05,0
1.2435,7.0329e-05,0
1.244,4.9515e-05,0
1.2445,3.3066e-05,0
1.245,1.5946e-05,0
1.2455,-6.2104e-06,0
1.246,-2.7359e-05,0
1.2465,-4.0787e-05,0
1.247,-4.3977e-05,0
1.2475,-3.7934e-05,0
1.248,-2.3667e-05,0
1.2485,-1.1078e-05,0
1.249,-2.8534e-06,0
1.2495,2.5177e-06,0
1.25,3.5248e-06,0
1.2505,5.2033e-06,0
1.251,9.7353e-06,0
1.2515,1.561e-05,0
1.252,2.3331e-05,0
1.2525,2.7863e-05,0
1.253,2.652e-05,0
1.2535,2.5345e-05,0
1.254,2.4002e-05,0
1.2545,1.8463e-05,0
1.255,8.896e-06,0
1.2555,1.1749e-06,0
1.256,-2.5177e-06,0
1.2565,-2.5177e-06,0
1.257,-1.5106e-06,0
1.2575,8.392e-07,0
1.258,7.0497e-06,0
1.2585,1.6281e-05,0
1.259,2.5177e-05,0
1.2595,3.3906e-05,0
1.26,5.1865e-05,0
1.2605,7.6707e-05,0
1.261,9.3492e-05,0
1.2615,9.6513e-05,0
1.262,9.0806e-05,0
1.2625,7.956e-05,0
1.263,6.63e-05,0
1.2635,5.3544e-05,0
1.264,3.6759e-05,0
1.2645,1.6953e-05,0
1.265,1.8463e-06,0
1.2655,-1.1582e-05,0
1.266,-2.4506e-05,0
1.2665,-3.6759e-05,0
1.267,-5.2872e-05,0
1.2675,-6.7308e-05,0
1.268,-6.63e-05,0
1.2685,-4.683e-05,0
1.269,-2.0478e-05,0
1.2695,-8.392e-07,0
1.27,8.7282e-06,0
1.2705,1.3932e-05,0
1.271,1.6281e-05,0
1.2715,1.4603e-05,0
1.272,1.091e-05,0
1.2725,9.5674e-06,0
1.273,1.326e-05,0
1.2735,1.9974e-05,0
1.274,2.5009e-05,0
1.2745,2.7359e-05,0
1.275,3.3234e-05,0
1.2755,4.2466e-05,0
1.276,4.8844e-05,0
1.2765,5.0523e-05,0
1.277,4.5487e-05,0
1.2775,3.7262e-05,0
1.278,3.3402e-05,0
1.2785,3.0549e-05,0
1.279,3.3234e-05,0
1.2795,4.1627e-05,0
1.28,4.4816e-05,0
1.2805,4.213e-05,0
1.281,4.4648e-05,0
1.2815,4.8508e-05,0
1.282,4.3641e-05,0
1.2825,3.0549e-05,0
1.283,2.2324e-05,0
1.2835,1.9638e-05,0
1.284,1.3428e-05,0
1.2845,3.8605e-06,0
1.285,0,0
1.2855,8.896e-06,0
1.286,1.796e-05,0
1.2865,2.1317e-05,0
1.287,3.0045e-05,0
1.2875,4.448e-05,0
1.288,4.5487e-05,0
1.2885,2.0478e-05,0
1.289,-1.091e-05,0
1.2895,-1.8296e-05,0
1.29,-2.8534e-06,0
1.2905,1.5946e-05,0
1.291,2.5681e-05,0
1.2915,2.4002e-05,0
1.292,1.7288e-05,0
1.2925,7.5532e-06,0
1.293,-8.2246e-06,0
1.2935,-2.5681e-05,0
1.294,-3.5752e-05,0
1.2945,-3.508e-05,0
1.295,-1.9806e-05,0
1.2955,1.3428e-05,0
1.296,4.2802e-05,0
1.2965,4.8676e-05,0
1.297,4.1962e-05,0
1.2975,3.743e-05,0
1.298,3.2731e-05,0
1.2985,2.5849e-05,0
1.299,2.0646e-05,0
1.2995,1.5274e-05,0
1.3,-8.392e-07,0
1.3005,-2.266e-05,0
1.301,-3.3738e-05,0
1.3015,-2.8031e-05,0
1.302,-1.4939e-05,0
1.3025,3.5248e-06,0
1.303,1.4603e-05,0
1.3035,1.3092e-05,0
1.304,7.8889e-06,0
1.3045,7.2175e-06,0
1.305,1.1749e-05,0
1.3055,1.6449e-05,0
1.306,1.6281e-05,0
1.3065,1.1749e-05,0
1.307,7.3854e-06,0
1.3075,4.5319e-06,0
1.308,-5.035e-07,0
1.3085,-8.2246e-06,0
1.309,-1.561e-05,0
1.3095,-1.0071e-05,0
1.31,1.3596e-05,0
1.3105,3.3906e-05,0
1.311,3.6591e-05,0
1.3115,2.6688e-05,0
1.312,1.9974e-05,0
1.3125,2.4002e-05,0
1.313,3.3234e-05,0
1.3135,3.8102e-05,0
1.314,3.9948e-05,0
1.3145,3.8102e-05,0
1.315,3.6088e-05,0
1.3155,3.4073e-05,0
1.316,2.7695e-05,0
1.3165,2.5345e-05,0
1.317,3.2563e-05,0
1.3175,3.7095e-05,0
1.318,3.592e-05,0
1.3185,3.6759e-05,0
1.319,3.7095e-05,0
1.3195,3.6759e-05,0
1.32,3.7934e-05,0
1.3205,3.743e-05,0
1.321,3.3066e-05,0
1.3215,2.8199e-05,0
1.322,2.4338e-05,0
1.3225,2.1653e-05,0
1.323,2.7359e-05,0
1.3235,4.3977e-05,0
1.324,6.1433e-05,0
1.3245,7.2175e-05,0
1.325,7.805e-05,0
1.3255,8.3085e-05,0
1.326,8.8457e-05,0
1.3265,9.2485e-05,0
1.327,8.4596e-05,0
1.3275,6.1265e-05,0
1.328,3.2059e-05,0
1.3285,1.3932e-05,0
1.329,2.5177e-06,0
1.3295,-9.7353e-06,0
1.33,-2.1149e-05,0
1.3305,-3.357e-05,0
1.331,-4.3809e-05,0
1.3315,-4.5151e-05,0
1.332,-3.9445e-05,0
1.3325,-2.9877e-05,0
1.333,-1.7792e-05,0
1.3335,-1.091e-05,0
1.334,-6.0426e-06,0
1.3345,4.3641e-06,0
1.335,1.2085e-05,0
1.3355,1.091e-05,0
1.336,6.2104e-06,0
1.3365,8.392e-07,0
1.337,3.357e-07,0
1.3375,2.5177e-06,0
1.338,3.8605e-06,0
1.3385,1.5106e-06,0
1.339,-3.1891e-06,0
1.3395,-3.1891e-06,0
1.34,4.1962e-06,0
1.3405,1.3932e-05,0
1.341,2.0646e-05,0
1.3415,2.5345e-05,0
1.342,2.6184e-05,0
1.3425,2.7863e-05,0
1.343,3.0549e-05,0
1.3435,2.6017e-05,0
1.344,1.9135e-05,0
1.3445,2.2156e-05,0
1.345,3.0045e-05,0
1.3455,3.7766e-05,0
1.346,4.3809e-05,0
1.3465,4.448e-05,0
1.347,3.978e-05,0
1.3475,3.6759e-05,0
1.348,3.8102e-05,0
1.3485,3.9109e-05,0
1.349,3.8773e-05,0
1.3495,3.9445e-05,0
1.35,4.1291e-05,0
1.3505,4.0787e-05,0
1.351,4.2298e-05,0
1.3515,5.7572e-05,0
1.352,7.8889e-05,0
1.3525,8.5267e-05,0
1.353,7.1168e-05,0
1.3535,5.153e-05,0
1.354,3.9109e-05,0
1.3545,3.3402e-05,0
1.355,2.6017e-05,0
1.3555,1.561e-05,0
1.356,1.0407e-05,0
1.3565,1.3428e-05,0
1.357,3.1891e-05,0
1.3575,5.4551e-05,0
1.358,5.6901e-05,0
1.3585,3.827e-05,0
1.359,1.4603e-05,0
1.3595,-9.5674e-06,0
1.36,-3.2395e-05,0
1.3605,-4.7837e-05,0
1.361,-5.0858e-05,0
1.3615,-4.6159e-05,0
1.362,-4.4984e-05,0
1.3625,-4.4984e-05,0
1.363,-4.3473e-05,0
1.3635,-4.448e-05,0
1.364,-4.5823e-05,0
1.3645,-4.1123e-05,0
1.365,-2.5345e-05,0
1.3655,-5.539e-06,0
1.366,1.4603e-05,0
1.3665,3.0381e-05,0
1.367,3.4409e-05,0
1.3675,3.1891e-05,0
1.368,2.5345e-05,0
1.3685,2.2995e-05,0
1.369,2.9206e-05,0
1.3695,3.3906e-05,0
1.37,3.827e-05,0
1.3705,4.9515e-05,0
1.371,6.6636e-05,0
1.3715,8.661e-05,0
1.372,0.00010591,0
1.3725,0.00011431,0
1.373,0.00010625,0
1.3735,8.5267e-05,0
1.374,6.0929e-05,0
1.3745,4.0955e-05,0
1.375,2.266e-05,0
1.3755,3.8605e-06,0
1.376,-2.1317e-05,0
1.3765,-5.0523e-05,0
1.377,-7.7211e-05,0
1.3775,-9.1142e-05,0
1.378,-9.4835e-05,0
1.3785,-8.4932e-05,0
1.379,-6.1097e-05,0
1.3795,-3.6088e-05,0
1.38,-1.7288e-05,0
1.3805,1.5106e-06,0
1.381,1.9974e-05,0
1.3815,3.6927e-05,0
1.382,5.1194e-05,0
1.3825,6.63e-05,0
1.383,9.7185e-05,0
1.3835,0.00012874,0
1.384,0.00014049,0
1.3845,0.00014083,0
1.385,0.00013579,0
1.3855,0.00012136,0
1.386,9.9199e-05,0
1.3865,7.4693e-05,0
1.387,4.9348e-05,0
1.3875,2.2492e-05,0
1.388,-8.392e-07,0
1.3885,-1.3932e-05,0
1.389,-3.7095e-05,0
1.3895,-8.0064e-05,0
1.39,-0.00011531,0
1.3905,-0.00012136,0
1.391,-0.00010927,0
1.3915,-9.7856e-05,0
1.392,-9.0135e-05,0
1.3925,-8.0064e-05,0
1.393,-6.2608e-05,0
1.3935,-3.6088e-05,0
1.394,-1.6449e-05,0
1.3945,-9.9031e-06,0
1.395,-5.8747e-06,0
1.3955,1.0239e-05,0
1.396,3.4577e-05,0
1.3965,4.448e-05,0
1.397,3.5416e-05,0
1.3975,2.7192e-05,0
1.398,3.2059e-05,0
1.3985,5.388e-05,0
1.399,8.3757e-05,0
1.3995,0.00010356,0
1.4,0.00011061,0
1.4005,0.00010826,0
1.401,9.7017e-05,0
1.4015,7.7714e-05,0
1.402,5.5894e-05,0
1.4025,4.8508e-05,0
1.403,5.623e-05,0
1.4035,6.6804e-05,0
1.404,8.2078e-05,0
1.4045,9.2821e-05,0
1.405,8.3421e-05,0
1.4055,5.3544e-05,0
1.406,2.1317e-05,0
1.4065,5.7069e-06,0
1.407,-2.182e-06,0
1.4075,-1.3596e-05,0
1.408,-2.6017e-05,0
1.4085,-3.9612e-05,0
1.409,-5.5055e-05,0
1.4095,-6.3615e-05,0
1.41,-6.4622e-05,0
1.4105,-5.5894e-05,0
1.411,-3.0716e-05,0
1.4115,3.5248e-06,0
1.412,3.5416e-05,0
1.4125,6.0594e-05,0
1.413,7.8386e-05,0
1.4135,9.1814e-05,0
1.414,0.00010155,0
1.4145,0.00011632,0
1.415,0.00013848,0
1.4155,0.00013898,0
1.416,9.5674e-05,0
1.4165,3.1891e-05,0
1.417,-1.561e-05,0
1.4175,-3.6423e-05,0
1.418,-4.0452e-05,0
1.4185,-4.3137e-05,0
1.419,-5.6733e-05,0
1.4195,-8.6107e-05,0
1.42,-0.00012186,0
1.4205,-0.00014469,0
1.421,-0.00014704,0
1.4215,-0.00014032,0
1.422,-0.00012538,0
1.4225,-9.6681e-05,0
1.423,-6.3279e-05,0
1.4235,-3.1724e-05,0
1.424,4.8676e-06,0
1.4245,3.7095e-05,0
1.425,5.2537e-05,0
1.4255,5.623e-05,0
1.426,5.8747e-05,0
1.4265,6.3447e-05,0
1.427,6.4118e-05,0
1.4275,5.8412e-05,0
1.428,5.4887e-05,0
1.4285,5.4887e-05,0
1.429,5.5558e-05,0
1.4295,5.6565e-05,0
1.43,6.1265e-05,0
1.4305,7.0664e-05,0
1.431,7.9057e-05,0
1.4315,8.7114e-05,0
1.432,9.7017e-05,0
1.4325,0.00010188,0
1.433,9.6513e-05,0
1.4335,8.9632e-05,0
1.434,8.7785e-05,0
1.4345,8.6946e-05,0
1.435,7.956e-05,0
1.4355,6.1601e-05,0
1.436,3.4745e-05,0
1.4365,1.0575e-05,0
1.437,-4.8676e-06,0
1.4375,-1.3428e-05,0
1.438,-1.3932e-05,0
1.4385,-7.2175e-06,0
1.439,-3.8605e-06,0
1.4395,-4.8676e-06,0
1.44,1.8463e-06,0
1.4405,1.6953e-05,0
1.441,2.887e-05,0
1.4415,3.4745e-05,0
1.442,3.4745e-05,0
1.4425,3.1556e-05,0
1.443,2.8702e-05,0
1.4435,2.5849e-05,0
1.444,2.3835e-05,0
1.4445,2.2492e-05,0
1.445,2.5009e-05,0
1.4455,3.0716e-05,0
1.446,2.9038e-05,0
1.4465,2.4002e-05,0
1.447,2.2995e-05,0
1.4475,3.1052e-05,0
1.448,5.0858e-05,0
1.4485,6.2776e-05,0
1.449,5.3376e-05,0
1.4495,3.6591e-05,0
1.45,2.4674e-05,0
1.4505,2.031e-05,0
1.451,1.7288e-05,0
1.4515,1.9303e-05,0
1.452,3.3738e-05,0
1.4525,5.2872e-05,0
1.453,6.865e-05,0
1.4535,7.6036e-05,0
1.454,7.7378e-05,0
1.4545,7.4861e-05,0
1.455,6.4286e-05,0
1.4555,4.213e-05,0
1.456,1.5442e-05,0
1.4565,-5.7069e-06,0
1.457,-1.8631e-05,0
1.4575,-2.4338e-05,0
1.458,-2.5681e-05,0
1.4585,-2.9038e-05,0
1.459,-4.1795e-05,0
1.4595,-5.4551e-05,0
1.46,-6.3279e-05,0
1.4605,-7.4021e-05,0
1.461,-7.6036e-05,0
1.4615,-6.3783e-05,0
1.462,-4.4144e-05,0
1.4625,-2.2995e-05,0
1.463,-1.0071e-06,0
1.4635,1.8631e-05,0
1.464,3.3738e-05,0
1.4645,4.6159e-05,0
1.465,4.3809e-05,0
1.4655,2.7024e-05,0
1.466,1.1582e-05,0
1.4665,6.8818e-06,0
1.467,3.357e-06,0
1.4675,-4.1962e-06,0
1.468,-9.5674e-06,0
1.4685,-1.091e-05,0
1.469,-1.2589e-05,0
1.4695,-1.7624e-05,0
1.47,-2.1988e-05,0
1.4705,-2.2324e-05,0
1.471,-1.3932e-05,0
1.4715,2.1988e-05,0
1.472,8.5603e-05,0
1.4725,0.0001321,0
1.473,0.00013579,0
1.4735,0.00012387,0
1.474,0.00012992,0
1.4745,0.00014015,0
1.475,0.00012203,0
1.4755,7.6036e-05,0
1.476,2.887e-05,0
1.4765,5.035e-07,0
1.477,-1.9638e-05,0
1.4775,-4.7501e-05,0
1.478,-8.04e-05,0
1.4785,-9.1814e-05,0
1.479,-8.2918e-05,0
1.4795,-8.0735e-05,0
1.48,-8.3757e-05,0
1.4805,-7.9393e-05,0
1.481,-7.1336e-05,0
1.4815,-6.2776e-05,0
1.482,-5.5222e-05,0
1.4825,-4.3641e-05,0
1.483,-1.9303e-05,0
1.4835,1.4939e-05,0
1.484,5.9587e-05,0
1.4845,0.0001232,0
1.485,0.00018044,0
1.4855,0.00020327,0
1.486,0.00020159,0
1.4865,0.00019655,0
1.487,0.00018782,0
1.4875,0.0001608,0
1.488,0.00010927,0
1.4885,4.5151e-05,0
1.489,-1.4435e-05,0
1.4895,-6.2776e-05,0
1.49,-0.00010541,0
1.4905,-0.00015056,0
1.491,-0.00018715,0
1.4915,-0.0001895,0
1.492,-0.00015442,0
1.4925,-0.00011431,0
1.493,-8.8121e-05,0
1.4935,-6.3111e-05,0
1.494,-2.8702e-05,0
1.4945,6.5461e-06,0
1.495,2.8702e-05,0
1.4955,3.6759e-05,0
1.496,4.1795e-05,0
1.4965,4.3473e-05,0
1.497,3.6759e-05,0
1.4975,2.5345e-05,0
1.498,1.2589e-05,0
1.4985,4.6998e-06,0
1.499,9.0639e-06,0
1.4995,2.4506e-05,0
1.5,4.4648e-05,0
1.5005,6.1936e-05,0
1.501,7.2007e-05,0
1.5015,7.9393e-05,0
1.502,8.8121e-05,0
1.5025,9.6178e-05,0
1.503,0.00010289,0
1.5035,0.00011128,0
1.504,0.00012068,0
1.5045,0.00011766,0
1.505,9.5506e-05,0
1.5055,6.63e-05,0
1.506,4.4648e-05,0
1.5065,3.7262e-05,0
1.507,4.2298e-05,0
1.5075,5.2201e-05,0
1.508,5.9587e-05,0
1.5085,6.009e-05,0
1.509,5.0187e-05,0
1.5095,3.5584e-05,0
1.51,2.8199e-05,0
1.5105,2.8702e-05,0
1.511,2.6688e-05,0
1.5115,3.0549e-05,0
1.512,4.5151e-05,0
1.5125,6.6972e-05,0
1.513,8.4764e-05,0
1.5135,7.57e-05,0
1.514,4.0452e-05,0
1.5145,3.1891e-06,0
1.515,-2.9038e-05,0
1.5155,-5.4048e-05,0
1.516,-6.5461e-05,0
1.5165,-5.8076e-05,0
1.517,-3.5416e-05,0
1.5175,-6.0426e-06,0
1.518,2.3331e-05,0
1.5185,3.9445e-05,0
1.519,3.4241e-05,0
1.5195,1.8463e-05,0
1.52,5.2033e-06,0
1.5205,-1.2421e-05,0
1.521,-3.5584e-05,0
1.5215,-5.388e-05,0
1.522,-6.1433e-05,0
1.5225,-6.1433e-05,0
1.523,-6.1265e-05,0
1.5235,-6.2944e-05,0
1.524,-6.2944e-05,0
1.5245,-5.7908e-05,0
1.525,-4.6662e-05,0
1.5255,-2.4002e-05,0
1.526,1.3092e-05,0
1.5265,5.0019e-05,0
1.527,6.9657e-05,0
1.5275,7.5029e-05,0
1.528,7.2007e-05,0
1.5285,6.6972e-05,0
1.529,6.9657e-05,0
1.5295,7.8721e-05,0
1.53,8.8792e-05,0
1.5305,8.9799e-05,0
1.531,7.2343e-05,0
1.5315,4.448e-05,0
1.532,1.7288e-05,0
1.5325,-8.7282e-06,0
1.533,-2.1653e-05,0
1.5335,-1.0239e-05,0
1.534,2.5345e-05,0
1.5345,5.8915e-05,0
1.535,6.6636e-05,0
1.5355,5.3544e-05,0
1.536,3.9612e-05,0
1.5365,3.7934e-05,0
1.537,4.1459e-05,0
1.5375,3.6591e-05,0
1.538,1.9638e-05,0
1.5385,5.7069e-06,0
1.539,7.2175e-06,0
1.5395,2.3499e-05,0
1.54,3.1724e-05,0
1.5405,2.2156e-05,0
1.541,7.3854e-06,0
1.5415,-1.561e-05,0
1.542,-4.6998e-05,0
1.5425,-7.9057e-05,0
1.543,-0.00010289,0
1.5435,-0.00011061,0
1.544,-9.5171e-05,0
1.5445,-6.9993e-05,0
1.545,-5.2705e-05,0
1.5455,-4.1459e-05,0
1.546,-2.6688e-05,0
1.5465,-5.7069e-06,0
1.547,1.6617e-05,0
1.5475,3.122e-05,0
1.548,3.9612e-05,0
1.5485,4.4144e-05,0
1.549,4.5655e-05,0
1.5495,4.9348e-05,0
1.55,4.8676e-05,0
1.5505,4.1291e-05,0
1.551,3.6927e-05,0
1.5515,4.3473e-05,0
1.552,5.9251e-05,0
1.5525,7.335e-05,0
1.553,7.3686e-05,0
1.5535,6.7979e-05,0
1.554,6.7979e-05,0
1.5545,7.5029e-05,0
1.555,9.2317e-05,0
1.5555,0.00013646,0
1.556,0.00018749,0
1.5565,0.00019689,0
1.557,0.00016231,0
1.5575,0.00011934,0
1.558,8.4428e-05,0
1.5585,5.3544e-05,0
1.559,2.0478e-05,0
1.5595,-1.2253e-05,0
1.56,-3.7095e-05,0
1.5605,-5.4551e-05,0
1.561,-6.2104e-05,0
1.5615,-6.5629e-05,0
1.562,-7.8386e-05,0
1.5625,-9.3324e-05,0
1.563,-9.5506e-05,0
1.5635,-7.9896e-05,0
1.564,-5.4551e-05,0
1.5645,-3.592e-05,0
1.565,-2.2156e-05,0
1.5655,-1.2924e-05,0
1.566,-9.5674e-06,0
1.5665,3.5248e-06,0
1.567,2.9709e-05,0
1.5675,4.918e-05,0
1.568,6.4286e-05,0
1.5685,8.426e-05,0
1.569,0.00010776,0
1.5695,0.00012992,0
1.57,0.00014133,0
1.5705,0.00013545,0
1.571,0.00011666,0
1.5715,9.987e-05,0
1.572,8.1743e-05,0
1.5725,5.5222e-05,0
1.573,2.6352e-05,0
1.5735,4.3641e-06,0
1.574,-8.5603e-06,0
1.5745,-9.5674e-06,0
1.575,-3.6927e-06,0
1.5755,-5.7069e-06,0
1.576,-2.8367e-05,0
1.5765,-5.5558e-05,0
1.577,-6.4286e-05,0
1.5775,-5.3544e-05,0
1.578,-2.0981e-05,0
1.5785,2.7863e-05,0
1.579,7.2343e-05,0
1.5795,9.2485e-05,0
1.58,8.9296e-05,0
1.5805,6.5629e-05,0
1.581,3.2059e-05,0
1.5815,5.035e-07,0
1.582,-2.3331e-05,0
1.5825,-4.0284e-05,0
1.583,-5.6901e-05,0
1.5835,-8.191e-05,0
1.584,-0.00011598,0
1.5845,-0.00014737,0
1.585,-0.00016046,0
1.5855,-0.0001556,0
1.586,-0.00014536,0
1.5865,-0.00013025,0
1.587,-0.00010239,0
1.5875,-6.7308e-05,0
1.588,-2.7695e-05,0
1.5885,8.896e-06,0
1.589,3.1891e-05,0
1.5895,4.3809e-05,0
1.59,5.2872e-05,0
1.5905,5.623e-05,0
1.591,5.539e-05,0
1.5915,5.4215e-05,0
1.592,5.2872e-05,0
1.5925,6.0761e-05,0
1.593,8.5603e-05,0
1.5935,0.0001232,0
1.594,0.00015627,0
1.5945,0.00017137,0
1.595,0.00016802,0
1.5955,0.00015325,0
1.596,0.00013411,0
1.5965,0.00011112,0
1.597,8.51e-05,0
1.5975,6.3615e-05,0
1.598,4.6494e-05,0
1.5985,3.4073e-05,0
1.599,2.4338e-05,0
1.5995,1.5946e-05,0
1.6,2.8534e-06,0
1.6005,-1.3932e-05,0
1.601,-2.5009e-05,0
1.6015,-2.5009e-05,0
1.602,-2.3331e-05,0
1.6025,-2.4674e-05,0
1.603,-2.5849e-05,0
1.6035,-2.8031e-05,0
1.604,-2.4338e-05,0
1.6045,-1.3596e-05,0
1.605,-6.2104e-06,0
1.6055,-1.8463e-06,0
1.606,3.1891e-06,0
1.6065,9.5674e-06,0
1.607,1.5274e-05,0
1.6075,2.3667e-05,0
1.608,3.4409e-05,0
1.6085,4.2466e-05,0
1.609,5.6901e-05,0
1.6095,8.7114e-05,0
1.61,0.00010961,0
1.6105,0.0001086,0
1.611,9.3156e-05,0
1.6115,6.9154e-05,0
1.612,4.4312e-05,0
1.6125,2.4674e-05,0
1.613,1.2253e-05,0
1.6135,5.7069e-06,0
1.614,2.182e-06,0
1.6145,5.2033e-06,0
1.615,1.2757e-05,0
1.6155,2.0646e-05,0
1.616,2.4506e-05,0
1.6165,1.9974e-05,0
1.617,1.326e-05,0
1.6175,9.5674e-06,0
1.618,7.7211e-06,0
1.6185,7.0497e-06,0
1.619,7.2175e-06,0
1.6195,1.1917e-05,0
1.62,2.0478e-05,0
1.6205,2.7359e-05,0
1.621,3.1724e-05,0
1.6215,3.6088e-05,0
1.622,4.4816e-05,0
1.6225,5.9419e-05,0
1.623,7.7043e-05,0
1.6235,8.9799e-05,0
1.624,9.3156e-05,0
1.6245,8.51e-05,0
1.625,6.4958e-05,0
1.6255,3.827e-05,0
1.626,1.4603e-05,0
1.6265,-5.8747e-06,0
1.627,-2.3499e-05,0
1.6275,-2.7695e-05,0
1.628,-2.9374e-05,0
1.6285,-4.5487e-05,0
1.629,-7.0161e-05,0
1.6295,-8.8121e-05,0
1.63,-8.51e-05,0
1.6305,-6.0426e-05,0
1.631,-3.5248e-05,0
1.6315,-2.0813e-05,0
1.632,-7.8889e-06,0
1.6325,7.7211e-06,0
1.633,3.1891e-05,0
1.6335,7.7043e-05,0
1.634,0.00013277,0
1.6345,0.00016298,0
1.635,0.00014553,0
1.6355,9.752e-05,0
1.636,4.213e-05,0
1.6365,5.539e-06,0
1.637,4.0284e-06,0
1.6375,2.031e-05,0
1.638,2.4002e-05,0
1.6385,7.0497e-06,0
1.639,-8.3925e-06,0
1.6395,-7.8889e-06,0
1.64,-1.7624e-05,0
1.6405,-5.069e-05,0
1.641,-8.6107e-05,0
1.6415,-0.00010491,0
1.642,-0.00010591,0
1.6425,-0.00010222,0
1.643,-9.4163e-05,0
1.6435,-8.04e-05,0
1.644,-6.0761e-05,0
1.6445,-3.8605e-05,0
1.645,-2.266e-05,0
1.6455,-2.1317e-05,0
1.646,-2.5009e-05,0
1.6465,-1.947e-05,0
1.647,-4.3641e-06,0
1.6475,1.0071e-05,0
1.648,2.4002e-05,0
1.6485,4.0787e-05,0
1.649,5.539e-05,0
1.6495,6.7979e-05,0
1.65,8.191e-05,0
1.6505,9.8192e-05,0
1.651,0.00011044,0
1.6515,0.00011397,0
1.652,0.00010809,0
1.6525,9.7688e-05,0
1.653,9.6513e-05,0
1.6535,0.00010591,0
1.654,0.00011565,0
1.6545,0.00011716,0
1.655,0.00010541,0
1.6555,7.8386e-05,0
1.656,4.7669e-05,0
1.6565,1.4267e-05,0
1.657,-1.9974e-05,0
1.6575,-2.7024e-05,0
1.658,-1.2924e-05,0
1.6585,-6.5461e-06,0
1.659,-1.4603e-05,0
1.6595,-2.6352e-05,0
1.66,-3.5248e-05,0
1.6605,-3.8773e-05,0
1.661,-4.2466e-05,0
1.6615,-4.3809e-05,0
1.662,-3.4745e-05,0
1.6625,-1.3596e-05,0
1.663,4.3641e-06,0
1.6635,4.8676e-06,0
1.664,-5.2033e-06,0
1.6645,-5.3712e-06,0
1.665,6.5461e-06,0
1.6655,1.6449e-05,0
1.666,1.8631e-05,0
1.6665,1.796e-05,0
1.667,1.6281e-05,0
1.6675,1.2589e-05,0
1.668,9.5674e-06,0
1.6685,1.1582e-05,0
1.669,2.0981e-05,0
1.6695,3.5416e-05,0
1.67,4.4816e-05,0
1.6705,5.153e-05,0
1.671,5.8076e-05,0
1.6715,5.6062e-05,0
1.672,4.9515e-05,0
1.6725,5.0187e-05,0
1.673,5.5894e-05,0
1.6735,5.7404e-05,0
1.674,5.3544e-05,0
1.6745,4.8173e-05,0
1.675,4.0116e-05,0
1.6755,2.652e-05,0
1.676,1.4603e-05,0
1.6765,1.4939e-05,0
1.677,4.1627e-05,0
1.6775,8.9464e-05,0
1.678,0.00013193,0
1.6785,0.00014452,0
1.679,0.00013545,0
1.6795,0.00011783,0
1.68,8.7953e-05,0
1.6805,4.8844e-05,0
1.681,1.1582e-05,0
1.6815,-1.6953e-05,0
1.682,-3.2563e-05,0
1.6825,-3.2059e-05,0
1.683,-2.0478e-05,0
1.6835,-1.1749e-05,0
1.684,-2.2995e-05,0
1.6845,-4.8005e-05,0
1.685,-6.1936e-05,0
1.6855,-3.8605e-05,0
1.686,7.5532e-06,0
1.6865,3.743e-05,0
1.687,4.2802e-05,0
1.6875,3.2059e-05,0
1.688,7.5532e-06,0
1.6885,-2.7024e-05,0
1.689,-5.7908e-05,0
1.6895,-7.7546e-05,0
1.69,-8.4428e-05,0
1.6905,-7.6875e-05,0
1.691,-5.9587e-05,0
1.6915,-4.5151e-05,0
1.692,-4.0116e-05,0
1.6925,-3.1891e-05,0
1.693,-1.4939e-05,0
1.6935,7.3854e-06,0
1.694,3.0549e-05,0
1.6945,4.5151e-05,0
1.695,4.3809e-05,0
1.6955,2.8031e-05,0
1.696,1.2421e-05,0
1.6965,1.0071e-05,0
1.697,1.9303e-05,0
1.6975,3.5416e-05,0
1.698,5.7572e-05,0
1.6985,7.6875e-05,0
1.699,8.1071e-05,0
1.6995,7.2007e-05,0
1.7,5.6565e-05,0
1.7005,3.8773e-05,0
1.701,2.2995e-05,0
1.7015,1.2253e-05,0
1.702,1.3764e-05,0
1.7025,2.4338e-05,0
1.703,3.4409e-05,0
1.7035,3.9612e-05,0
1.704,4.2634e-05,0
1.7045,4.1459e-05,0
1.705,3.357e-05,0
1.7055,2.3667e-05,0
1.706,2.2324e-05,0
1.7065,3.2059e-05,0
1.707,4.5823e-05,0
1.7075,4.9515e-05,0
1.708,3.8437e-05,0
1.7085,1.5106e-05,0
1.709,-1.6281e-05,0
1.7095,-3.9445e-05,0
1.71,-3.7095e-05,0
1.7105,-9.2317e-06,0
1.711,2.4002e-05,0
1.7115,4.7837e-05,0
1.712,6.9657e-05,0
1.7125,8.2918e-05,0
1.713,7.6371e-05,0
1.7135,6.1433e-05,0
1.714,5.2872e-05,0
1.7145,5.0523e-05,0
1.715,4.683e-05,0
1.7155,3.8773e-05,0
1.716,3.3402e-05,0
1.7165,3.0716e-05,0
1.717,2.9877e-05,0
1.7175,3.0045e-05,0
1.718,2.5009e-05,0
1.7185,1.6281e-05,0
1.719,7.5532e-06,0
1.7195,2.0142e-06,0
1.72,5.035e-07,0
1.7205,1.1749e-06,0
1.721,7.8889e-06,0
1.7215,2.8534e-05,0
1.722,5.9587e-05,0
1.7225,8.7114e-05,0
1.723,9.5003e-05,0
1.7235,7.7714e-05,0
1.724,4.4816e-05,0
1.7245,9.3996e-06,0
1.725,-1.9303e-05,0
1.7255,-3.9445e-05,0
1.726,-5.774e-05,0
1.7265,-6.7308e-05,0
1.727,-6.2776e-05,0
1.7275,-5.8244e-05,0
1.728,-6.8315e-05,0
1.7285,-8.2246e-05,0
1.729,-8.5603e-05,0
1.7295,-8.0568e-05,0
1.73,-6.8986e-05,0
1.7305,-5.4551e-05,0
1.731,-4.4816e-05,0
1.7315,-3.5752e-05,0
1.732,-2.5177e-05,0
1.7325,-9.5674e-06,0
1.733,1.3596e-05,0
1.7335,3.6088e-05,0
1.734,5.5558e-05,0
1.7345,7.5029e-05,0
1.735,8.1407e-05,0
1.7355,6.8818e-05,0
1.736,4.9348e-05,0
1.7365,3.2059e-05,0
1.737,2.4338e-05,0
1.7375,2.4002e-05,0
1.738,2.8702e-05,0
1.7385,3.6759e-05,0
1.739,4.4144e-05,0
1.7395,5.1865e-05,0
1.74,5.8244e-05,0
1.7405,6.5965e-05,0
1.741,8.4428e-05,0
1.7415,0.00010323,0
1.742,0.00011061,0
1.7425,0.00010726,0
1.743,9.4499e-05,0
1.7435,7.2679e-05,0
1.744,5.0858e-05,0
1.7445,4.5823e-05,0
1.745,4.918e-05,0
1.7455,4.1291e-05,0
1.746,2.6017e-05,0
1.7465,1.5274e-05,0
1.747,1.9974e-05,0
1.7475,3.7095e-05,0
1.748,3.4745e-05,0
1.7485,3.6927e-06,0
1.749,-3.0381e-05,0
1.7495,-4.7333e-05,0
1.75,-4.7166e-05,0
1.7505,-3.1388e-05,0
1.751,-5.2033e-06,0
1.7515,7.3854e-06,0
1.752,-3.1891e-06,0
1.7525,-2.1653e-05,0
1.753,-3.978e-05,0
1.7535,-5.4719e-05,0
1.754,-5.6565e-05,0
1.7545,-4.2634e-05,0
1.755,-2.1149e-05,0
1.7555,-3.357e-06,0
1.756,7.8889e-06,0
1.7565,9.7353e-06,0
1.757,8.2246e-06,0
1.7575,1.8296e-05,0
1.758,4.683e-05,0
1.7585,9.6513e-05,0
1.759,0.00013881,0
1.7595,0.0001415,0
1.76,0.00011934,0
1.7605,0.00010188,0
1.761,8.8792e-05,0
1.7615,6.9322e-05,0
1.762,4.6326e-05,0
1.7625,2.3667e-05,0
1.763,-8.392e-07,0
1.7635,-2.5345e-05,0
1.764,-5.153e-05,0
1.7645,-8.0735e-05,0
1.765,-0.00010256,0
1.7655,-9.1646e-05,0
1.766,-2.5345e-05,0
1.7665,5.6565e-05,0
1.767,9.8192e-05,0
1.7675,9.3492e-05,0
1.768,7.2343e-05,0
1.7685,5.8412e-05,0
1.769,5.1194e-05,0
1.7695,3.508e-05,0
1.77,5.7069e-06,0
1.7705,-1.9638e-05,0
1.771,-3.0549e-05,0
1.7715,-3.8773e-05,0
1.772,-6.2608e-05,0
1.7725,-9.4667e-05,0
1.773,-0.00010759,0
1.7735,-8.7785e-05,0
1.774,-5.4551e-05,0
1.7745,-2.6017e-05,0
1.775,-3.6927e-06,0
1.7755,1.7456e-05,0
1.776,4.9515e-05,0
1.7765,9.5506e-05,0
1.777,0.00013075,0
1.7775,0.00015123,0
1.778,0.00019017,0
1.7785,0.00023012,0
1.779,0.00022811,0
1.7795,0.00018749,0
1.78,0.00013327,0
1.7805,7.7378e-05,0
1.781,2.266e-05,0
1.7815,-2.9877e-05,0
1.782,-8.5435e-05,0
1.7825,-0.00014015,0
1.783,-0.00017507,0
1.7835,-0.00018077,0
1.784,-0.00017624,0
1.7845,-0.00016735,0
1.785,-0.00013982,0
1.7855,-9.9535e-05,0
1.786,-6.5126e-05,0
1.7865,-3.743e-05,0
1.787,-1.5274e-05,0
1.7875,-5.035e-07,0
1.788,8.7282e-06,0
1.7885,1.9303e-05,0
1.789,3.1052e-05,0
1.7895,3.8437e-05,0
1.79,4.3305e-05,0
1.7905,5.0187e-05,0
1.791,6.8986e-05,0
1.7915,9.1646e-05,0
1.792,0.00010239,0
1.7925,0.00010188,0
1.793,0.00011431,0
1.7935,0.00012522,0
1.794,0.00011028,0
1.7945,7.9896e-05,0
1.795,5.6733e-05,0
1.7955,4.3809e-05,0
1.796,3.8773e-05,0
1.7965,4.3473e-05,0
1.797,4.9515e-05,0
1.7975,5.7237e-05,0
1.798,7.4357e-05,0
1.7985,9.8863e-05,0
1.799,0.00012924,0
1.7995,0.00015157,0
1.8,0.00014821,0
1.8005,0.00012572,0
1.801,0.00010239,0
1.8015,8.2078e-05,0
1.802,6.1433e-05,0
1.8025,3.6423e-05,0
1.803,5.8747e-06,0
1.8035,-2.5345e-05,0
1.804,-5.3544e-05,0
1.8045,-7.9057e-05,0
1.805,-9.5842e-05,0
1.8055,-8.6946e-05,0
1.806,-4.1123e-05,0
1.8065,8.7282e-06,0
1.807,3.1724e-05,0
1.8075,2.9038e-05,0
1.808,1.1917e-05,0
1.8085,-1.1246e-05,0
1.809,-3.4409e-05,0
1.8095,-4.4816e-05,0
1.81,-4.3137e-05,0
1.8105,-4.0116e-05,0
1.811,-4.0619e-05,0
1.8115,-4.8005e-05,0
1.812,-6.0761e-05,0
1.8125,-7.2847e-05,0
1.813,-7.4693e-05,0
1.8135,-6.4622e-05,0
1.814,-4.9012e-05,0
1.8145,-3.1388e-05,0
1.815,-1.0575e-05,0
1.8155,1.8296e-05,0
1.816,4.3473e-05,0
1.8165,5.4215e-05,0
1.817,6.1265e-05,0
1.8175,7.4861e-05,0
1.818,9.9535e-05,0
1.8185,0.00012136,0
1.819,0.00011565,0
1.8195,9.1814e-05,0
1.82,7.9057e-05,0
1.8205,8.4093e-05,0
1.821,8.7785e-05,0
1.8215,7.7211e-05,0
1.822,5.153e-05,0
1.8225,1.796e-05,0
1.823,-1.0575e-05,0
1.8235,-2.5681e-05,0
1.824,-2.9038e-05,0
1.8245,-2.9374e-05,0
1.825,-2.4338e-05,0
1.8255,-1.1917e-05,0
1.826,-1.5106e-06,0
1.8265,8.7282e-06,0
1.827,2.5009e-05,0
1.8275,4.6494e-05,0
1.828,6.479e-05,0
1.8285,7.2343e-05,0
1.829,7.1672e-05,0
1.8295,7.2679e-05,0
1.83,8.51e-05,0
1.8305,8.8792e-05,0
1.831,6.5126e-05,0
1.8315,3.6423e-05,0
1.832,4.1795e-05,0
1.8325,7.9393e-05,0
1.833,9.2485e-05,0
1.8335,5.2201e-05,0
1.834,-1.4603e-05,0
1.8345,-6.7811e-05,0
1.835,-8.7617e-05,0
1.8355,-8.3589e-05,0
1.836,-8.1407e-05,0
1.8365,-8.9464e-05,0
1.837,-9.8863e-05,0
1.8375,-0.00010457,0
1.838,-0.00010893,0
1.8385,-0.00011162,0
1.839,-0.00010961,0
1.8395,-9.5338e-05,0
1.84,-7.1336e-05,0
1.8405,-4.4816e-05,0
1.841,-1.6953e-05,0
1.8415,1.3092e-05,0
1.842,4.4144e-05,0
1.8425,7.57e-05,0
1.843,9.4163e-05,0
1.8435,0.00010121,0
1.844,0.00011498,0
1.8445,0.00015023,0
1.845,0.00020528,0
1.8455,0.00024741,0
1.846,0.0002459,0
1.8465,0.00022005,0
1.847,0.00019504,0
1.8475,0.00015425,0
1.848,8.6778e-05,0
1.8485,1.5106e-05,0
1.849,-3.2395e-05,0
1.8495,-4.5823e-05,0
1.85,-4.8173e-05,0
1.8505,-7.6539e-05,0
1.851,-0.00012605,0
1.8515,-0.00016701,0
1.852,-0.00018463,0
1.8525,-0.00017372,0
1.853,-0.00014452,0
1.8535,-0.00010994,0
1.854,-7.7546e-05,0
1.8545,-3.8773e-05,0
1.855,8.896e-06,0
1.8555,4.8173e-05,0
1.856,6.4958e-05,0
1.8565,5.8915e-05,0
1.857,3.9445e-05,0
1.8575,1.6281e-05,0
1.858,-4.1962e-06,0
1.8585,-1.1749e-05,0
1.859,6.2104e-06,0
1.8595,3.0716e-05,0
1.86,3.7766e-05,0
1.8605,2.6688e-05,0
1.861,2.2995e-05,0
1.8615,4.1459e-05,0
1.862,6.4286e-05,0
1.8625,7.4021e-05,0
1.863,7.4693e-05,0
1.8635,7.7714e-05,0
1.864,8.2414e-05,0
1.8645,7.9728e-05,0
1.865,7.0329e-05,0
1.8655,5.9587e-05,0
1.866,5.1865e-05,0
1.8665,4.2802e-05,0
1.867,4.4144e-05,0
1.8675,7.1e-05,0
1.868,0.00010726,0
1.8685,0.00012001,0
1.869,9.8192e-05,0
1.8695,5.9587e-05,0
1.87,2.3163e-05,0
1.8705,-3.357e-06,0
1.871,-2.3163e-05,0
1.8715,-3.6927e-05,0
1.872,-4.5151e-05,0
1.8725,-5.9587e-05,0
1.873,-7.805e-05,0
1.8735,-9.0974e-05,0
1.874,-9.1814e-05,0
1.8745,-7.2007e-05,0
1.875,-3.978e-05,0
1.8755,-7.2175e-06,0
1.876,1.6785e-05,0
1.8765,3.2059e-05,0
1.877,4.1291e-05,0
1.8775,5.0187e-05,0
1.878,6.6972e-05,0
1.8785,9.752e-05,0
1.879,0.00013797,0
1.8795,0.0001697,0
1.88,0.00017607,0
1.8805,0.00015895,0
1.881,0.00012857,0
1.8815,8.9632e-05,0
1.882,4.8005e-05,0
1.8825,8.5603e-06,0
1.883,-2.6688e-05,0
1.8835,-5.2537e-05,0
1.884,-6.0594e-05,0
1.8845,-3.0884e-05,0
1.885,2.7024e-05,0
1.8855,5.5558e-05,0
1.886,3.743e-05,0
1.8865,1.0575e-05,0
1.887,5.2033e-06,0
1.8875,1.2589e-05,0
1.888,6.5461e-06,0
1.8885,-1.1749e-05,0
1.889,-2.6017e-05,0
1.8895,-3.4577e-05,0
1.89,-4.683e-05,0
1.8905,-5.9922e-05,0
1.891,-7.2679e-05,0
1.8915,-7.6204e-05,0
1.892,-6.5126e-05,0
1.8925,-5.3208e-05,0
1.893,-4.5991e-05,0
1.8935,-2.9709e-05,0
1.894,2.182e-06,0
1.8945,3.7766e-05,0
1.895,6.2944e-05,0
1.8955,6.865e-05,0
1.896,6.6972e-05,0
1.8965,6.9657e-05,0
1.897,7.4357e-05,0
1.8975,7.3014e-05,0
1.898,6.63e-05,0
1.8985,5.9419e-05,0
1.899,5.2705e-05,0
1.8995,4.1291e-05,0
1.9,3.3738e-05,0
1.9005,4.0955e-05,0
1.901,5.2201e-05,0
1.9015,5.7404e-05,0
1.902,5.3544e-05,0
1.9025,3.8773e-05,0
1.903,2.0142e-05,0
1.9035,7.7211e-06,0
1.904,-3.1891e-06,0
1.9045,-1.1582e-05,0
1.905,-1.3932e-05,0
1.9055,-2.3835e-05,0
1.906,-4.5487e-05,0
1.9065,-6.5293e-05,0
1.907,-7.9728e-05,0
1.9075,-9.2821e-05,0
1.908,-9.7688e-05,0
1.9085,-8.6107e-05,0
1.909,-5.9922e-05,0
1.9095,-2.9709e-05,0
1.91,-7.3854e-06,0
1.9105,1.1749e-06,0
1.911,-1.1749e-06,0
1.9115,-4.1962e-06,0
1.912,2.3499e-06,0
1.9125,3.0045e-05,0
1.913,7.2847e-05,0
1.9135,0.00010524,0
1.914,0.00011699,0
1.9145,0.00012723,0
1.915,0.00013881,0
1.9155,0.00014351,0
1.916,0.00015157,0
1.9165,0.00018581,0
1.917,0.00024523,0
1.9175,0.00027276,0
1.918,0.00023079,0
1.9185,0.0001566,0
1.919,9.8863e-05,0
1.9195,6.7979e-05,0
1.92,4.6494e-05,0
1.9205,1.3596e-05,0
1.921,-2.7359e-05,0
1.9215,-5.4551e-05,0
1.922,-7.5196e-05,0
1.9225,-0.00010172,0
1.923,-0.00013545,0
1.9235,-0.00016634,0
1.924,-0.00018094,0
1.9245,-0.000189,0
1.925,-0.00020629,0
1.9255,-0.00021988,0
1.926,-0.0001994,0
1.9265,-0.00015476,0
1.927,-0.00011917,0
1.9275,-9.2149e-05,0
1.928,-6.1433e-05,0
1.9285,-3.0381e-05,0
1.929,-5.539e-06,0
1.9295,1.3596e-05,0
1.93,2.2324e-05,0
1.9305,2.6856e-05,0
1.931,3.6255e-05,0
1.9315,4.7669e-05,0
1.932,5.4551e-05,0
1.9325,6.0929e-05,0
1.933,6.949e-05,0
1.9335,8.04e-05,0
1.934,9.2485e-05,0
1.9345,0.00010591,0
1.935,0.00011514,0
1.9355,0.00011263,0
1.936,0.00011196,0
1.9365,0.00012203,0
1.937,0.00013613,0
1.9375,0.00013948,0
1.938,0.00013193,0
1.9385,0.00011749,0
1.939,9.7185e-05,0
1.9395,8.04e-05,0
1.94,6.63e-05,0
1.9405,5.2201e-05,0
1.941,4.2802e-05,0
1.9415,2.9038e-05,0
1.942,4.5319e-06,0
1.9425,-9.3996e-06,0
1.943,-2.182e-06,0
1.9435,1.6281e-05,0
1.944,2.9206e-05,0
1.9445,2.8702e-05,0
1.945,2.6017e-05,0
1.9455,2.7695e-05,0
1.946,3.1891e-05,0
1.9465,4.0116e-05,0
1.947,4.9348e-05,0
1.9475,5.2201e-05,0
1.948,4.448e-05,0
1.9485,3.2395e-05,0
1.949,2.2492e-05,0
1.9495,1.5442e-05,0
1.95,1.4267e-05,0
1.9505,1.1749e-05,0
1.951,1.4939e-05,0
1.9515,4.0116e-05,0
1.952,7.6204e-05,0
1.9525,0.00010256,0
1.953,9.987e-05,0
1.9535,7.6036e-05,0
1.954,5.6733e-05,0
1.9545,5.6565e-05,0
1.955,6.5126e-05,0
1.9555,6.1601e-05,0
1.956,4.683e-05,0
1.9565,3.8773e-05,0
1.957,4.1291e-05,0
1.9575,3.9445e-05,0
1.958,9.0639e-06,0
1.9585,-2.7024e-05,0
1.959,-2.9877e-05,0
1.9595,-1.1582e-05,0
1.96,-1.0575e-05,0
1.9605,-3.3402e-05,0
1.961,-5.8579e-05,0
1.9615,-7.3014e-05,0
1.962,-8.8457e-05,0
1.9625,-0.00011447,0
1.963,-0.00013982,0
1.9635,-0.0001425,0
1.964,-0.00011431,0
1.9645,-6.865e-05,0
1.965,-3.508e-05,0
1.9655,-1.8967e-05,0
1.966,-1.4435e-05,0
1.9665,-1.561e-05,0
1.967,-2.1988e-05,0
1.9675,-3.3402e-05,0
1.968,-3.7262e-05,0
1.9685,-2.9374e-05,0
1.969,-2.7695e-05,0
1.9695,-4.0452e-05,0
1.97,-5.3376e-05,0
1.9705,-5.6062e-05,0
1.971,-4.5655e-05,0
1.9715,-3.1724e-05,0
1.972,-1.9135e-05,0
1.9725,-2.8534e-06,0
1.973,1.8967e-05,0
1.9735,3.743e-05,0
1.974,4.5319e-05,0
1.9745,4.7501e-05,0
1.975,5.0858e-05,0
1.9755,5.1362e-05,0
1.976,4.6494e-05,0
1.9765,3.8437e-05,0
1.977,3.508e-05,0
1.9775,4.6494e-05,0
1.978,6.9993e-05,0
1.9785,9.2485e-05,0
1.979,9.7353e-05,0
1.9795,8.7114e-05,0
1.98,7.9728e-05,0
1.9805,7.9225e-05,0
1.981,7.7882e-05,0
1.9815,6.5629e-05,0
1.982,4.3809e-05,0
1.9825,2.9374e-05,0
1.983,2.8702e-05,0
1.9835,3.7262e-05,0
1.984,4.9515e-05,0
1.9845,7.6036e-05,0
1.985,0.00011968,0
1.9855,0.0001556,0
1.986,0.00018312,0
1.9865,0.00019521,0
1.987,0.00018346,0
1.9875,0.00015761,0
1.988,0.00013831,0
1.9885,0.00013713,0
1.989,0.00015627,0
1.9895,0.00015828,0
1.99,0.00011196,0
1.9905,2.4506e-05,0
1.991,-6.5293e-05,0
1.9915,-0.00012152,0
1.992,-0.00015358,0
1.9925,-0.00017742,0
1.993,-0.00018296,0
1.9935,-0.00016533,0
1.994,-0.0001378,0
1.9945,-0.0001185,0
1.995,-0.00011598,0
1.9955,-0.00011699,0
1.996,-0.00010591,0
1.9965,-7.3854e-05,0
1.997,-1.0071e-05,0
1.9975,7.6875e-05,0
1.998,0.00016231,0
1.9985,0.00022005,0
1.999,0.00023751,0
1.9995,0.00021367,0
2,0.00016432,0
2.0005,0.00011263,0
2.001,6.8818e-05,0
2.0015,3.1388e-05,0
2.002,-1.1749e-06,0
2.0025,-3.743e-05,0
2.003,-8.4764e-05,0
2.0035,-0.00013797,0
2.004,-0.0001754,0
2.0045,-0.00018782,0
2.005,-0.00018799,0
2.0055,-0.00017876,0
2.006,-0.00015325,0
2.0065,-0.00012169,0
2.007,-9.0135e-05,0
2.0075,-5.8747e-05,0
2.008,-3.3234e-05,0
2.0085,-1.4267e-05,0
2.009,1.678e-07,0
2.0095,1.5106e-05,0
2.01,3.4577e-05,0
2.0105,5.388e-05,0
2.011,6.6804e-05,0
2.0115,6.9657e-05,0
2.012,6.9322e-05,0
2.0125,6.6804e-05,0
2.013,6.7643e-05,0
2.0135,7.1672e-05,0
2.014,7.6371e-05,0
2.0145,7.9393e-05,0
2.015,7.9728e-05,0
2.0155,7.9896e-05,0
2.016,7.9728e-05,0
2.0165,7.3686e-05,0
2.017,7.0329e-05,0
2.0175,7.5029e-05,0
2.018,7.1672e-05,0
2.0185,6.4286e-05,0
2.019,7.2175e-05,0
2.0195,9.7185e-05,0
2.02,0.00012035,0
2.0205,0.00012689,0
2.021,0.00011699,0
2.0215,0.00010457,0
2.022,9.2485e-05,0
2.0225,7.1336e-05,0
2.023,4.5487e-05,0
2.0235,2.4506e-05,0
2.024,4.8676e-06,0
2.0245,-1.6953e-05,0
2.025,-3.4073e-05,0
2.0255,-4.4648e-05,0
2.026,-5.3544e-05,0
2.0265,-5.5222e-05,0
2.027,-4.8676e-05,0
2.0275,-3.7095e-05,0
2.028,-2.266e-05,0
2.0285,-6.5461e-06,0
2.029,5.2033e-06,0
2.0295,1.2924e-05,0
2.03,3.9109e-05,0
2.0305,7.1672e-05,0
2.031,7.0329e-05,0
2.0315,4.4648e-05,0
2.032,3.1891e-05,0
2.0325,4.448e-05,0
2.033,6.479e-05,0
2.0335,7.3854e-05,0
2.034,6.9657e-05,0
2.0345,6.63e-05,0
2.035,6.5461e-05,0
2.0355,5.4719e-05,0
2.036,4.2466e-05,0
2.0365,5.6901e-05,0
2.037,9.3492e-05,0
2.0375,0.00011397,0
2.038,0.00010625,0
2.0385,8.2582e-05,0
2.039,5.304e-05,0
2.0395,4.213e-05,0
2.04,5.8412e-05,0
2.0405,6.3279e-05,0
2.041,4.8173e-05,0
2.0415,5.2872e-05,0
2.042,7.0664e-05,0
2.0425,5.7572e-05,0
2.043,1.796e-05,0
2.0435,-1.8967e-05,0
2.044,-3.7934e-05,0
2.0445,-3.3738e-05,0
2.045,-3.2395e-05,0
2.0455,-5.388e-05,0
2.046,-9.2317e-05,0
2.0465,-0.00012958,0
2.047,-0.00016382,0
2.0475,-0.00019823,0
2.048,-0.00022979,0
2.0485,-0.0002464,0
2.049,-0.00023717,0
2.0495,-0.00020562,0
2.05,-0.00017003,0
2.0505,-0.00013881,0
2.051,-0.00010289,0
2.0515,-6.7979e-05,0
2.052,-4.3977e-05,0
2.0525,-2.7863e-05,0
2.053,-1.326e-05,0
2.0535,1.8463e-06,0
2.054,2.182e-05,0
2.0545,4.1962e-05,0
2.055,5.5558e-05,0
2.0555,6.3447e-05,0
2.056,6.9322e-05,0
2.0565,7.57e-05,0
2.057,8.0232e-05,0
2.0575,8.6107e-05,0
2.058,9.5842e-05,0
2.0585,9.8192e-05,0
2.059,9.2485e-05,0
2.0595,9.1142e-05,0
2.06,9.5842e-05,0
2.0605,0.00010407,0
2.061,0.0001086,0
2.0615,0.00010356,0
2.062,0.00010289,0
2.0625,0.0001133,0
2.063,0.0001284,0
2.0635,0.0001368,0
2.064,0.00013881,0
2.0645,0.00013747,0
2.065,0.00014737,0
2.0655,0.00017775,0
2.066,0.00018849,0
2.0665,0.00015492,0
2.067,0.00010574,0
2.0675,6.8315e-05,0
2.068,4.4144e-05,0
2.0685,2.4674e-05,0
2.069,2.3667e-05,0
2.0695,4.4984e-05,0
2.07,6.3615e-05,0
2.0705,6.865e-05,0
2.071,5.7404e-05,0
2.0715,2.5681e-05,0
2.072,-1.1246e-05,0
2.0725,-4.4984e-05,0
2.073,-7.5029e-05,0
2.0735,-9.0974e-05,0
2.074,-9.3156e-05,0
2.0745,-9.1142e-05,0
2.075,-8.5771e-05,0
2.0755,-7.0664e-05,0
2.076,-4.8508e-05,0
2.0765,-1.561e-05,0
2.077,1.7624e-05,0
2.0775,2.6352e-05,0
2.078,7.8889e-06,0
2.0785,-1.1582e-05,0
2.079,-7.5532e-06,0
2.0795,7.2175e-06,0
2.08,3.8605e-06,0
2.0805,-2.3667e-05,0
2.081,-5.5726e-05,0
2.0815,-7.9896e-05,0
2.082,-9.4835e-05,0
2.0825,-0.00010289,0
2.083,-0.00010625,0
2.0835,-0.00010105,0
2.084,-8.2918e-05,0
2.0845,-5.6397e-05,0
2.085,-3.1052e-05,0
2.0855,-1.1414e-05,0
2.086,1.8463e-06,0
2.0865,1.796e-05,0
2.087,3.508e-05,0
2.0875,4.5151e-05,0
2.088,4.8844e-05,0
2.0885,5.2033e-05,0
2.089,5.3544e-05,0
2.0895,5.388e-05,0
2.09,5.1362e-05,0
2.0905,4.4144e-05,0
2.091,3.4409e-05,0
2.0915,2.8031e-05,0
2.092,2.6856e-05,0
2.0925,2.8031e-05,0
2.093,3.1052e-05,0
2.0935,3.4745e-05,0
2.094,3.8773e-05,0
2.0945,4.448e-05,0
2.095,6.1601e-05,0
2.0955,9.2485e-05,0
2.096,0.0001034,0
2.0965,8.745e-05,0
2.097,6.6468e-05,0
2.0975,5.5726e-05,0
2.098,5.8915e-05,0
2.0985,6.6972e-05,0
2.099,6.479e-05,0
2.0995,5.5222e-05,0
2.1,4.8173e-05,0
2.1005,3.9445e-05,0
2.101,2.5345e-05,0
2.1015,1.1078e-05,0
2.102,9.2317e-06,0
2.1025,4.448e-05,0
2.103,0.00010507,0
2.1035,0.00015644,0
2.104,0.00017943,0
2.1045,0.00017372,0
2.105,0.00015258,0
2.1055,0.00012807,0
2.106,0.00010323,0
2.1065,7.8386e-05,0
2.107,5.1194e-05,0
2.1075,1.5946e-05,0
2.108,-2.9709e-05,0
2.1085,-7.5868e-05,0
2.109,-0.00011632,0
2.1095,-0.00014989,0
2.11,-0.00014804,0
2.1105,-9.8192e-05,0
2.111,-3.7095e-05,0
2.1115,-2.8534e-06,0
2.112,5.2033e-06,0
2.1125,7.8889e-06,0
2.113,4.0284e-06,0
2.1135,-1.2421e-05,0
2.114,-3.3738e-05,0
2.1145,-4.0619e-05,0
2.115,-2.2324e-05,0
2.1155,6.5461e-06,0
2.116,3.9277e-05,0
2.1165,7.1336e-05,0
2.117,9.836e-05,0
2.1175,0.000118,0
2.118,0.00012068,0
2.1185,9.9702e-05,0
2.119,6.4958e-05,0
2.1195,3.1388e-05,0
2.12,1.678e-07,0
2.1205,-3.8773e-05,0
2.121,-8.0232e-05,0
2.1215,-0.00010222,0
2.122,-0.00010323,0
2.1225,-9.4163e-05,0
2.123,-8.3421e-05,0
2.1235,-7.1504e-05,0
2.124,-4.7837e-05,0
2.1245,-1.6617e-05,0
2.125,5.539e-06,0
2.1255,1.7792e-05,0
2.126,3.2059e-05,0
2.1265,5.4551e-05,0
2.127,6.4958e-05,0
2.1275,4.9012e-05,0
2.128,2.0646e-05,0
2.1285,1.6785e-06,0
2.129,7.5532e-06,0
2.1295,3.2059e-05,0
2.13,4.5151e-05,0
2.1305,1.796e-05,0
2.131,-2.7024e-05,0
2.1315,-4.9851e-05,0
2.132,-2.9374e-05,0
2.1325,1.6617e-05,0
2.133,3.8605e-05,0
2.1335,2.031e-05,0
2.134,-5.2033e-06,0
2.1345,-4.1962e-06,0
2.135,2.1149e-05,0
2.1355,5.7908e-05,0
2.136,8.9799e-05,0
2.1365,0.00010188,0
2.137,9.6849e-05,0
2.1375,8.0903e-05,0
2.138,5.6901e-05,0
2.1385,4.3809e-05,0
2.139,5.0858e-05,0
2.1395,6.2272e-05,0
2.14,6.479e-05,0
2.1405,5.2033e-05,0
2.141,1.6281e-05,0
2.1415,-3.5416e-05,0
2.142,-7.2343e-05,0
2.1425,-8.9799e-05,0
2.143,-9.7185e-05,0
2.1435,-8.8457e-05,0
2.144,-5.9251e-05,0
2.1445,-9.9031e-06,0
2.145,4.8173e-05,0
2.1455,9.5842e-05,0
2.146,0.00012471,0
2.1465,0.00013596,0
2.147,0.00014133,0
2.1475,0.00014485,0
2.148,0.00013075,0
2.1485,9.6513e-05,0
2.149,5.4551e-05,0
2.1495,1.3932e-05,0
2.15,-2.031e-05,0
2.1505,-6.2104e-05,0
2.151,-0.00012253,0
2.1515,-0.00016986,0
2.152,-0.00017456,0
2.1525,-0.0001514,0
2.153,-0.00012253,0
2.1535,-9.1142e-05,0
2.154,-5.1026e-05,0
2.1545,-1.5442e-05,0
2.155,4.6998e-06,0
2.1555,9.2317e-06,0
2.156,5.2033e-06,0
2.1565,7.5532e-06,0
2.157,2.1317e-05,0
2.1575,3.5416e-05,0
2.158,4.4312e-05,0
2.1585,5.1865e-05,0
2.159,6.6636e-05,0
2.1595,9.2989e-05,0
2.16,0.00012303,0
2.1605,0.00015358,0
2.161,0.00016197,0
2.1615,0.00013663,0
2.162,0.00010323,0
2.1625,8.2414e-05,0
2.163,7.4357e-05,0
2.1635,8.1743e-05,0
2.164,9.0471e-05,0
2.1645,7.8386e-05,0
2.165,5.3376e-05,0
2.1655,3.2563e-05,0
2.166,1.6114e-05,0
2.1665,-3.0213e-06,0
2.167,-2.1317e-05,0
2.1675,-2.2156e-05,0
2.168,-1.4099e-05,0
2.1685,-1.2253e-05,0
2.169,1.8463e-06,0
2.1695,3.4745e-05,0
2.17,5.6565e-05,0
2.1705,4.5151e-05,0
2.171,2.266e-05,0
2.1715,1.3932e-05,0
2.172,2.0981e-05,0
2.1725,3.3066e-05,0
2.173,4.1795e-05,0
2.1735,5.8915e-05,0
2.174,9.3324e-05,0
2.1745,0.00012421,0
2.175,0.00012522,0
2.1755,9.6345e-05,0
2.176,5.8076e-05,0
2.1765,2.2995e-05,0
2.177,-7.8889e-06,0
2.1775,-3.0884e-05,0
2.178,-4.6159e-05,0
2.1785,-6.3111e-05,0
2.179,-8.04e-05,0
2.1795,-8.6946e-05,0
2.18,-7.7546e-05,0
2.1805,-5.304e-05,0
2.181,-2.7024e-05,0
2.1815,-8.7282e-06,0
2.182,1.0407e-05,0
2.1825,2.9877e-05,0
2.183,4.2466e-05,0
2.1835,4.3305e-05,0
2.184,4.918e-05,0
2.1845,7.5364e-05,0
2.185,9.1646e-05,0
2.1855,7.8218e-05,0
2.186,5.6062e-05,0
2.1865,5.0523e-05,0
2.187,6.5629e-05,0
2.1875,8.9464e-05,0
2.188,0.00010054,0
2.1885,8.0903e-05,0
2.189,4.0787e-05,0
2.1895,-1.8463e-06,0
2.19,-4.0452e-05,0
2.1905,-5.8747e-05,0
2.191,-5.4719e-05,0
2.1915,-4.9515e-05,0
2.192,-6.5797e-05,0
2.1925,-9.2821e-05,0
2.193,-0.0001039,0
2.1935,-8.7785e-05,0
2.194,-4.8173e-05,0
2.1945,-1.3092e-05,0
2.195,9.0639e-06,0
2.1955,1.8128e-05,0
2.196,1.8463e-06,0
2.1965,-3.3234e-05,0
2.197,-4.8341e-05,0
2.1975,-3.2059e-05,0
2.198,-7.3854e-06,0
2.1985,2.266e-05,0
2.199,6.4958e-05,0
2.1995,0.00011867,0
2.2,0.00016181,0
2.2005,0.00017305,0
2.201,0.000166,0
2.2015,0.00015123,0
2.202,0.0001284,0
2.2025,8.4428e-05,0
2.203,3.1388e-05,0
2.2035,-4.6998e-06,0
2.204,1.8463e-06,0
2.2045,4.9348e-05,0
2.205,5.8579e-05,0
2.2055,2.3499e-06,0
2.206,-5.9922e-05,0
2.2065,-0.00010323,0
2.207,-0.00013462,0
2.2075,-0.00015056,0
2.208,-0.00014586,0
2.2085,-0.00012387,0
2.209,-9.0135e-05,0
2.2095,-6.1936e-05,0
2.21,-5.7404e-05,0
2.2105,-7.4021e-05,0
2.211,-8.4932e-05,0
2.2115,-7.4861e-05,0
2.212,-5.3544e-05,0
2.2125,-2.266e-05,0
2.213,1.5778e-05,0
2.2135,5.6901e-05,0
2.214,8.3085e-05,0
2.2145,7.5029e-05,0
2.215,5.3376e-05,0
2.2155,5.6733e-05,0
2.216,9.6513e-05,0
2.2165,0.00013848,0
2.217,0.00014418,0
2.2175,0.00011682,0
2.218,8.1575e-05,0
2.2185,4.5319e-05,0
2.219,1.1917e-05,0
2.2195,-1.5946e-05,0
2.22,-3.122e-05,0
2.2205,-2.2324e-05,0
2.221,1.1078e-05,0
2.2215,6.3111e-05,0
2.222,0.0001462,0
2.2225,0.0002318,0
2.223,0.00024405,0
2.2235,0.00018782,0
2.224,0.00013797,0
2.2245,0.0001331,0
2.225,0.00014116,0
2.2255,0.00012605,0
2.226,8.5771e-05,0
2.2265,3.743e-05,0
2.227,-1.5778e-05,0
2.2275,-8.0232e-05,0
2.228,-0.00014049,0
2.2285,-0.00017188,0
2.229,-0.00017758,0
2.2295,-0.00017171,0
2.23,-0.00015358,0
2.2305,-0.00012085,0
2.231,-8.3589e-05,0
2.2315,-5.3208e-05,0
2.232,-3.1891e-05,0
2.2325,-1.6281e-05,0
2.233,1.0071e-06,0
2.2335,1.6281e-05,0
2.234,2.5681e-05,0
2.2345,3.2898e-05,0
2.235,4.0452e-05,0
2.2355,4.9515e-05,0
2.236,6.1097e-05,0
2.2365,7.0664e-05,0
2.237,8.3085e-05,0
2.2375,0.00011666,0
2.238,0.00018514,0
2.2385,0.00025211,0
2.239,0.00027578,0
2.2395,0.00026302,0
2.24,0.00022928,0
2.2405,0.00019135,0
2.241,0.00018111,0
2.2415,0.00021166,0
2.242,0.0002553,0
2.2425,0.00026302,0
2.243,0.0002078,0
2.2435,0.00010121,0
2.244,-2.7024e-05,0
2.2445,-0.00014536,0
2.245,-0.00023801,0
2.2455,-0.0003033,0
2.246,-0.00033889,0
2.2465,-0.00033385,0
2.247,-0.00030112,0
2.2475,-0.00028098,0
2.248,-0.00028534,0
2.2485,-0.00028031,0
2.249,-0.00023885,0
2.2495,-0.00017389,0
2.25,-0.00010625,0
2.2505,-4.2802e-05,0
2.251,3.9109e-05,0
2.2515,0.00015644,0
2.252,0.00029592,0
2.2525,0.00037917,0
2.253,0.00035131,0
2.2535,0.00026772,0
2.254,0.00020243,0
2.2545,0.00016265,0
2.255,0.00010692,0
2.2555,2.0981e-05,0
2.256,-7.2007e-05,0
2.2565,-0.00014334,0
2.257,-0.00018984,0
2.2575,-0.00022593,0
2.258,-0.00025228,0
2.2585,-0.00025412,0
2.259,-0.00022794,0
2.2595,-0.00018363,0
2.26,-0.0001232,0
2.2605,-6.1936e-05,0
2.261,-2.9709e-05,0
2.2615,-1.9974e-05,0
2.262,-6.5461e-06,0
2.2625,1.6617e-05,0
2.263,4.3809e-05,0
2.2635,6.4622e-05,0
2.264,7.4189e-05,0
2.2645,7.9728e-05,0
2.265,0.00010457,0
2.2655,0.00016701,0
2.266,0.00022475,0
2.2665,0.0002365,0
2.267,0.00020444,0
2.2675,0.00015962,0
2.268,0.00012941,0
2.2685,0.00011397,0
2.269,0.00010457,0
2.2695,0.0001044,0
2.27,0.00012941,0
2.2705,0.00015392,0
2.271,0.0001331,0
2.2715,6.9657e-05,0
2.272,9.2317e-06,0
2.2725,-1.3764e-05,0
2.273,-8.2246e-06,0
2.2735,1.561e-05,0
2.274,5.8915e-05,0
2.2745,9.9031e-05,0
2.275,0.00010021,0
2.2755,5.0355e-05,0
2.276,-1.796e-05,0
2.2765,-7.335e-05,0
2.277,-0.00011078,0
2.2775,-0.00013243,0
2.278,-0.00013898,0
2.2785,-0.00012807,0
2.279,-0.00010524,0
2.2795,-8.6778e-05,0
2.28,-7.6875e-05,0
2.2805,-7.1e-05,0
2.281,-6.0426e-05,0
2.2815,-3.6423e-05,0
2.282,-1.0071e-06,0
2.2825,3.2563e-05,0
2.283,5.2201e-05,0
2.2835,5.4719e-05,0
2.284,4.8844e-05,0
2.2845,4.3473e-05,0
2.285,5.0019e-05,0
2.2855,7.5029e-05,0
2.286,0.0001039,0
2.2865,0.000118,0
2.287,0.00011682,0
2.2875,0.00012438,0
2.288,0.00017154,0
2.2885,0.00022206,0
2.289,0.0002276,0
2.2895,0.00019588,0
2.29,0.00016634,0
2.2905,0.00014318,0
2.291,0.00010591,0
2.2915,5.3208e-05,0
2.292,-7.0497e-06,0
2.2925,-4.8173e-05,0
2.293,-4.5151e-05,0
2.2935,-1.4939e-05,0
2.294,-5.0355e-06,0
2.2945,-2.5177e-05,0
2.295,-5.5222e-05,0
2.2955,-8.1575e-05,0
2.296,-9.1478e-05,0
2.2965,-6.1601e-05,0
2.297,-3.0381e-05,0
2.2975,-4.6494e-05,0
2.298,-7.8553e-05,0
2.2985,-9.1478e-05,0
2.299,-9.0471e-05,0
2.2995,-8.6442e-05,0
2.3,-8.5603e-05,0
2.3005,-9.0135e-05,0
2.301,-9.4163e-05,0
2.3015,-8.2918e-05,0
2.302,-6.0594e-05,0
2.3025,-5.2369e-05,0
2.303,-6.4958e-05,0
2.3035,-7.3182e-05,0
2.304,-6.0258e-05,0
2.3045,-3.4409e-05,0
2.305,-4.8676e-06,0
2.3055,2.5345e-05,0
2.306,5.3208e-05,0
2.3065,6.6636e-05,0
2.307,6.2104e-05,0
2.3075,6.3279e-05,0
2.308,8.0735e-05,0
2.3085,9.6178e-05,0
2.309,9.6513e-05,0
2.3095,8.1743e-05,0
2.31,6.9657e-05,0
2.3105,6.5629e-05,0
2.311,5.8244e-05,0
2.3115,4.2634e-05,0
2.312,3.3906e-05,0
2.3125,4.0116e-05,0
2.313,5.1194e-05,0
2.3135,4.3809e-05,0
2.314,2.1653e-05,0
2.3145,1.9638e-05,0
2.315,5.4887e-05,0
2.3155,9.9199e-05,0
2.316,0.00011598,0
2.3165,0.00010658,0
2.317,8.3589e-05,0
2.3175,5.623e-05,0
2.318,3.4073e-05,0
2.3185,1.4435e-05,0
2.319,1.7288e-05,0
2.3195,9.1142e-05,0
2.32,0.00026654,0
2.3205,0.00044631,0
2.321,0.00048794,0
2.3215,0.00039562,0
2.322,0.0002845,0
2.3225,0.00021367,0
2.323,0.00015224,0
2.3235,5.5558e-05,0
2.324,-7.0832e-05,0
2.3245,-0.00018816,0
2.325,-0.00026973,0
2.3255,-0.00032026,0
2.326,-0.0003649,0
2.3265,-0.000402,0
2.327,-0.000402,0
2.3275,-0.00035802,0
2.328,-0.00029474,0
2.3285,-0.00022626,0
2.329,-0.00016399,0
2.3295,-0.000118,0
2.33,-8.7282e-05,0
2.3305,-6.4622e-05,0
2.331,-4.7166e-05,0
2.3315,-3.5752e-05,0
2.332,-2.5849e-05,0
2.3325,2.8534e-06,0
2.333,5.8915e-05,0
2.3335,0.00010994,0
2.334,0.00012169,0
2.3345,0.00010356,0
2.335,8.3085e-05,0
2.3355,7.7714e-05,0
2.336,8.0735e-05,0
2.3365,8.0064e-05,0
2.337,7.2343e-05,0
2.3375,6.2272e-05,0
2.338,5.7572e-05,0
2.3385,5.1865e-05,0
2.339,4.4816e-05,0
2.3395,4.9348e-05,0
2.34,6.3951e-05,0
2.3405,8.51e-05,0
2.341,0.00010423,0
2.3415,0.00010021,0
2.342,7.7714e-05,0
2.3425,6.3279e-05,0
2.343,6.3447e-05,0
2.3435,6.7979e-05,0
2.344,6.6636e-05,0
2.3445,5.7908e-05,0
2.345,5.9587e-05,0
2.3455,7.1839e-05,0
2.346,7.3182e-05,0
2.3465,6.3447e-05,0
2.347,6.1601e-05,0
2.3475,6.5629e-05,0
2.348,6.4958e-05,0
2.3485,6.0929e-05,0
2.349,6.1601e-05,0
2.3495,7.3686e-05,0
2.35,0.00010289,0
2.3505,0.00011833,0
2.351,8.8121e-05,0
2.3515,3.3402e-05,0
2.352,1.1749e-06,0
2.3525,1.1917e-05,0
2.353,3.4409e-05,0
2.3535,2.5849e-05,0
2.354,-2.182e-06,0
2.3545,-1.7288e-05,0
2.355,-2.0646e-05,0
2.3555,-1.7288e-05,0
2.356,-1.7288e-05,0
2.3565,-2.3331e-05,0
2.357,-1.9638e-05,0
2.3575,1.2253e-05,0
2.358,7.4525e-05,0
2.3585,0.00012387,0
2.359,0.00011733,0
2.3595,8.7617e-05,0
2.36,6.865e-05,0
2.3605,5.1194e-05,0
2.361,4.9348e-05,0
2.3615,8.5603e-05,0
2.362,0.00012203,0
2.3625,0.00010726,0
2.363,3.6088e-05,0
2.3635,-5.5726e-05,0
2.364,-0.00013545,0
2.3645,-0.00018967,0
2.365,-0.00022626,0
2.3655,-0.00024607,0
2.366,-0.00022962,0
2.3665,-0.00018144,0
2.367,-0.00015056,0
2.3675,-0.00016164,0
2.368,-0.00017926,0
2.3685,-0.00016768,0
2.369,-0.00013814,0
2.3695,-0.0001091,0
2.37,-7.6371e-05,0
2.3705,-3.4409e-05,0
2.371,7.7211e-06,0
2.3715,4.4144e-05,0
2.372,7.2343e-05,0
2.3725,9.6345e-05,0
2.373,0.00010726,0
2.3735,0.00010239,0
2.374,9.2485e-05,0
2.3745,9.2317e-05,0
2.375,0.00010306,0
2.3755,0.00011615,0
2.376,0.00012337,0
2.3765,0.00011968,0
2.377,0.00011128,0
2.3775,0.00010726,0
2.378,0.00011162,0
2.3785,0.00011028,0
2.379,8.9799e-05,0
2.3795,5.4887e-05,0
2.38,2.6017e-05,0
2.3805,1.796e-05,0
2.381,2.2828e-05,0
2.3815,3.6759e-05,0
2.382,7.5029e-05,0
2.3825,0.00012203,0
2.383,0.00014217,0
2.3835,0.00012706,0
2.384,0.00010793,0
2.3845,0.00011061,0
2.385,0.00014485,0
2.3855,0.00016751,0
2.386,0.00014015,0
2.3865,9.752e-05,0
2.387,7.805e-05,0
2.3875,6.1601e-05,0
2.388,1.947e-05,0
2.3885,-2.5681e-05,0
2.389,-5.3544e-05,0
2.3895,-7.8386e-05,0
2.39,-0.00010574,0
2.3905,-0.00013008,0
2.391,-0.00015627,0
2.3915,-0.00018816,0
2.392,-0.00020494,0
2.3925,-0.00019017,0
2.393,-0.0001519,0
2.3935,-0.00011565,0
2.394,-9.2317e-05,0
2.3945,-7.335e-05,0
2.395,-4.8508e-05,0
2.3955,-9.9031e-06,0
2.396,5.4551e-05,0
2.3965,0.00011212,0
2.397,0.00012102,0
2.3975,9.2149e-05,0
2.398,6.5797e-05,0
2.3985,5.7572e-05,0
2.399,5.3544e-05,0
2.3995,4.6159e-05,0
2.4,4.9851e-05,0
2.4005,7.4693e-05,0
2.401,0.00010323,0
2.4015,0.00013344,0
2.402,0.00015644,0
2.4025,0.00017473,0
2.403,0.00018245,0
2.4035,0.00015946,0
2.404,0.00010558,0
2.4045,4.9515e-05,0
2.405,1.5442e-05,0
2.4055,-3.6927e-06,0
2.406,-1.8967e-05,0
2.4065,-4.3137e-05,0
2.407,-6.8986e-05,0
2.4075,-7.2847e-05,0
2.408,-4.9851e-05,0
2.4085,-2.4002e-05,0
2.409,-2.5849e-05,0
2.4095,-5.0019e-05,0
2.41,-5.8579e-05,0
2.4105,-2.8031e-05,0
2.411,3.1556e-05,0
2.4115,7.7043e-05,0
2.412,7.3686e-05,0
2.4125,2.4674e-05,0
2.413,-4.2466e-05,0
2.4135,-0.00010138,0
2.414,-0.0001321,0
2.4145,-0.00012773,0
2.415,-0.00010491,0
2.4155,-8.0064e-05,0
2.416,-5.1865e-05,0
2.4165,-2.0813e-05,0
2.417,7.5532e-06,0
2.4175,3.4745e-05,0
2.418,6.2272e-05,0
2.4185,8.5603e-05,0
2.419,9.0135e-05,0
2.4195,7.0497e-05,0
2.42,5.8579e-05,0
2.4205,8.7114e-05,0
2.421,0.00015694,0
2.4215,0.00021384,0
2.422,0.00021199,0
2.4225,0.00016147,0
2.423,0.00010726,0
2.4235,7.4357e-05,0
2.424,5.3208e-05,0
2.4245,4.0787e-05,0
2.425,2.9038e-05,0
2.4255,-1.1749e-06,0
2.426,-5.388e-05,0
2.4265,-0.00010356,0
2.427,-0.00011984,0
2.4275,-0.00010121,0
2.428,-6.5797e-05,0
2.4285,-3.0716e-05,0
2.429,-4.3641e-06,0
2.4295,5.2033e-06,0
2.43,0,0
2.4305,-8.896e-06,0
2.431,-1.2924e-05,0
2.4315,-1.5274e-05,0
2.432,-5.2033e-06,0
2.4325,4.4648e-05,0
2.433,0.00011766,0
2.4335,0.0001561,0
2.434,0.00012941,0
2.4345,6.7979e-05,0
2.435,2.1317e-05,0
2.4355,1.1917e-05,0
2.436,4.7837e-05,0
2.4365,0.0001086,0
2.437,0.0001608,0
2.4375,0.00021837,0
2.438,0.00026168,0
2.4385,0.00025765,0
2.439,0.00020058,0
2.4395,0.00011615,0
2.44,5.069e-05,0
2.4405,2.0981e-05,0
2.441,-5.2033e-06,0
2.4415,-5.5558e-05,0
2.442,-0.00012102,0
2.4425,-0.00018698,0
2.443,-0.00024808,0
2.4435,-0.00028669,0
2.444,-0.00029038,0
2.4445,-0.00027041,0
2.445,-0.00024254,0
2.4455,-0.00021619,0
2.446,-0.00018262,0
2.4465,-0.00013579,0
2.447,-9.6345e-05,0
2.4475,-7.5364e-05,0
2.448,-5.8747e-05,0
2.4485,-3.4745e-05,0
2.449,-3.8605e-06,0
2.4495,2.4002e-05,0
2.45,4.0955e-05,0
2.4505,4.7837e-05,0
2.451,5.0858e-05,0
2.4515,5.8244e-05,0
2.452,8.04e-05,0
2.4525,0.00010188,0
2.453,0.00010927,0
2.4535,0.00011901,0
2.454,0.00014351,0
2.4545,0.00016432,0
2.455,0.00017977,0
2.4555,0.00020461,0
2.456,0.00021552,0
2.4565,0.00018749,0
2.457,0.0001368,0
2.4575,8.5603e-05,0
2.458,4.683e-05,0
2.4585,2.8702e-05,0
2.459,1.4099e-05,0
2.4595,-1.1078e-05,0
2.46,-2.3499e-05,0
2.4605,-3.5248e-06,0
2.461,1.7121e-05,0
2.4615,1.0575e-05,0
2.462,8.896e-06,0
2.4625,2.9374e-05,0
2.463,5.1865e-05,0
2.4635,5.7404e-05,0
2.464,4.1795e-05,0
2.4645,1.9638e-05,0
2.465,3.4073e-05,0
2.4655,9.3492e-05,0
2.466,0.00015962,0
2.4665,0.00020528,0
2.467,0.00019957,0
2.4675,0.0001603,0
2.468,0.00013109,0
2.4685,0.00012673,0
2.469,0.00013143,0
2.4695,0.00013143,0
2.47,0.00011733,0
2.4705,7.4693e-05,0
2.471,-1.0239e-05,0
2.4715,-0.00012152,0
2.472,-0.00022055,0
2.4725,-0.0002835,0
2.473,-0.00030834,0
2.4735,-0.00030263,0
2.474,-0.0002788,0
2.4745,-0.00025412,0
2.475,-0.0002271,0
2.4755,-0.00019219,0
2.476,-0.0001425,0
2.4765,-6.8818e-05,0
2.477,9.2317e-06,0
2.4775,6.2272e-05,0
2.478,8.4428e-05,0
2.4785,8.9464e-05,0
2.479,9.5171e-05,0
2.4795,0.00010558,0
2.48,0.00010121,0
2.4805,8.0903e-05,0
2.481,5.6733e-05,0
2.4815,4.0787e-05,0
2.482,3.6927e-05,0
2.4825,3.4745e-05,0
2.483,2.5681e-05,0
2.4835,1.0575e-05,0
2.484,2.182e-06,0
2.4845,5.539e-06,0
2.485,1.1917e-05,0
2.4855,1.5778e-05,0
2.486,1.8631e-05,0
2.4865,3.2731e-05,0
2.487,6.4118e-05,0
2.4875,0.0001039,0
2.488,0.00012639,0
2.4885,0.00011078,0
2.489,7.3518e-05,0
2.4895,4.2802e-05,0
2.49,2.3499e-05,0
2.4905,5.539e-06,0
2.491,-1.0239e-05,0
2.4915,-1.8967e-05,0
2.492,-2.3667e-05,0
2.4925,-2.4002e-05,0
2.493,-8.5603e-06,0
2.4935,2.5345e-05,0
2.494,6.4286e-05,0
2.4945,0.00010188,0
2.495,0.0001368,0
2.4955,0.00016684,0
2.496,0.00021048,0
2.4965,0.00026822,0
2.497,0.00027578,0
2.4975,0.00022676,0
2.498,0.0001697,0
2.4985,0.00012589,0
2.499,8.4093e-05,0
2.4995,4.7837e-05,0
2.5,1.9974e-05,0
2.5005,-2.9374e-05,0
2.501,-9.5338e-05,0
2.5015,-0.00014015,0
2.502,-0.00015375,0
2.5025,-0.00015828,0
2.503,-0.00017121,0
2.5035,-0.00018312,0
2.504,-0.00017775,0
2.5045,-0.00015492,0
2.505,-0.00012656,0
2.5055,-8.8457e-05,0
2.506,-2.266e-05,0
2.5065,3.8773e-05,0
2.507,5.7572e-05,0
2.5075,5.153e-05,0
2.508,4.4648e-05,0
2.5085,4.5151e-05,0
2.509,4.9515e-05,0
2.5095,4.6998e-05,0
2.51,4.8005e-05,0
2.5105,5.4551e-05,0
2.511,5.6062e-05,0
2.5115,5.2537e-05,0
2.512,4.5487e-05,0
2.5125,3.592e-05,0
2.513,1.9135e-05,0
2.5135,1.4771e-05,0
2.514,4.4144e-05,0
2.5145,7.6875e-05,0
2.515,7.4525e-05,0
2.5155,3.743e-05,0
2.516,-7.5532e-06,0
2.5165,-2.8031e-05,0
2.517,-2.1653e-05,0
2.5175,-9.0639e-06,0
2.518,-1.1246e-05,0
2.5185,-2.7024e-05,0
2.519,-3.2563e-05,0
2.5195,-2.4338e-05,0
2.52,-1.1917e-05,0
2.5205,3.8605e-06,0
2.521,2.6352e-05,0
2.5215,6.0594e-05,0
2.522,7.1e-05,0
2.5225,4.2466e-05,0
2.523,1.3092e-05,0
2.5235,1.2589e-05,0
2.524,1.5778e-05,0
2.5245,-4.5319e-06,0
2.525,-3.3402e-05,0
2.5255,-4.3137e-05,0
2.526,-3.1388e-05,0
2.5265,-2.3331e-05,0
2.527,-2.3499e-05,0
2.5275,-1.8296e-05,0
2.528,-8.5603e-06,0
2.5285,-8.2246e-06,0
2.529,-1.0575e-05,0
2.5295,1.5106e-06,0
2.53,3.2059e-05,0
2.5305,8.2078e-05,0
2.531,0.00015996,0
2.5315,0.00023381,0
2.532,0.00025765,0
2.5325,0.000236,0
2.533,0.00020159,0
2.5335,0.00016516,0
2.534,0.00012773,0
2.5345,0.00010088,0
2.535,8.2918e-05,0
2.5355,4.1962e-05,0
2.536,-2.1485e-05,0
2.5365,-5.539e-05,0
2.537,-4.918e-05,0
2.5375,-4.683e-05,0
2.538,-8.6442e-05,0
2.5385,-0.00014435,0
2.539,-0.0001566,0
2.5395,-9.0135e-05,0
2.54,3.1891e-06,0
2.5405,5.153e-05,0
2.541,4.1459e-05,0
2.5415,1.4603e-05,0
2.542,7.2175e-06,0
2.5425,1.4939e-05,0
2.543,2.4002e-05,0
2.5435,1.3932e-05,0
2.544,-1.6449e-05,0
2.5445,-3.8102e-05,0
2.545,-4.9851e-05,0
2.5455,-7.4693e-05,0
2.546,-0.00011968,0
2.5465,-0.00016332,0
2.547,-0.00017473,0
2.5475,-0.00014972,0
2.548,-0.00011447,0
2.5485,-8.6946e-05,0
2.549,-6.3279e-05,0
2.5495,-3.2563e-05,0
2.55,7.7211e-06,0
2.5505,5.0858e-05,0
2.551,8.3925e-05,0
2.5515,0.00010306,0
2.552,0.00011263,0
2.5525,0.00012068,0
2.553,0.00011363,0
2.5535,8.7114e-05,0
2.554,5.3544e-05,0
2.5545,3.0716e-05,0
2.555,1.9638e-05,0
2.5555,6.0426e-06,0
2.556,-1.2924e-05,0
2.5565,-2.4842e-05,0
2.557,-2.4674e-05,0
2.5575,-1.3932e-05,0
2.558,3.8605e-06,0
2.5585,2.9038e-05,0
2.559,5.9419e-05,0
2.5595,9.2485e-05,0
2.56,0.00011699,0
2.5605,0.00012404,0
2.561,0.00012337,0
2.5615,0.00013109,0
2.562,0.00016902,0
2.5625,0.00021199,0
2.563,0.00019857,0
2.5635,0.00014301,0
2.564,0.00010726,0
2.5645,9.987e-05,0
2.565,8.5771e-05,0
2.5655,6.479e-05,0
2.566,5.2872e-05,0
2.5665,4.8844e-05,0
2.567,3.1891e-05,0
2.5675,1.678e-07,0
2.568,-3.5584e-05,0
2.5685,-5.9419e-05,0
2.569,-6.7308e-05,0
2.5695,-6.7308e-05,0
2.57,-7.0664e-05,0
2.5705,-7.7546e-05,0
2.571,-8.2246e-05,0
2.5715,-8.2078e-05,0
2.572,-8.0735e-05,0
2.5725,-7.5868e-05,0
2.573,-5.6565e-05,0
2.5735,-2.7024e-05,0
2.574,2.3667e-05,0
2.5745,0.00011229,0
2.575,0.00016902,0
2.5755,0.00014553,0
2.576,0.00012136,0
2.5765,0.00017675,0
2.577,0.00024002,0
2.5775,0.00021653,0
2.578,0.00013545,0
2.5785,6.1936e-05,0
2.579,-4.8676e-06,0
2.5795,-8.1407e-05,0
2.58,-0.00015375,0
2.5805,-0.00019773,0
2.581,-0.00019823,0
2.5815,-0.00017473,0
2.582,-0.00015727,0
2.5825,-0.00013462,0
2.583,-9.5674e-05,0
2.5835,-5.6733e-05,0
2.584,-3.2059e-05,0
2.5845,-1.3932e-05,0
2.585,3.5248e-06,0
2.5855,1.6953e-05,0
2.586,2.8031e-05,0
2.5865,5.5055e-05,0
2.587,0.00011968,0
2.5875,0.00020578,0
2.588,0.00026369,0
2.5885,0.00026369,0
2.589,0.00023046,0
2.5895,0.00018917,0
2.59,0.00012337,0
2.5905,3.7766e-05,0
2.591,-2.8031e-05,0
2.5915,-6.7979e-05,0
2.592,-0.00010222,0
2.5925,-0.00013042,0
2.593,-0.00013545,0
2.5935,-0.00011212,0
2.594,-0.00010205,0
2.5945,-0.00011431,0
2.595,-7.956e-05,0
2.5955,2.5345e-05,0
2.596,0.00014569,0
2.5965,0.00021367,0
2.597,0.00020511,0
2.5975,0.00014334,0
2.598,6.0929e-05,0
2.5985,-2.2324e-05,0
2.599,-0.00010306,0
2.5995,-0.00017675,0
2.6,-0.00022995,0
2.6005,-0.00025547,0
2.601,-0.00025412,0
2.6015,-0.00022744,0
2.602,-0.0001796,0
2.6025,-0.00011598,0
2.603,-5.6397e-05,0
2.6035,-6.8818e-06,0
2.604,4.2466e-05,0
2.6045,8.4093e-05,0
2.605,0.00010491,0
2.6055,0.00010558,0
2.606,9.8527e-05,0
2.6065,0.00010524,0
2.607,0.00013143,0
2.6075,0.00015627,0
2.608,0.00016533,0
2.6085,0.00016046,0
2.609,0.00014603,0
2.6095,0.00011615,0
2.61,8.8792e-05,0
2.6105,0.00011666,0
2.611,0.00017574,0
2.6115,0.00016718,0
2.612,8.6275e-05,0
2.6125,4.5319e-06,0
2.613,-2.2995e-05,0
2.6135,-1.678e-07,0
2.614,2.7863e-05,0
2.6145,4.2466e-05,0
2.615,6.8315e-05,0
2.6155,8.896e-05,0
2.616,6.7979e-05,0
2.6165,4.4648e-05,0
2.617,7.6707e-05,0
2.6175,0.00012773,0
2.618,0.00014217,0
2.6185,0.0001133,0
2.619,7.7043e-05,0
2.6195,5.4887e-05,0
2.62,2.8702e-05,0
2.6205,-1.3932e-05,0
2.621,-5.5558e-05,0
2.6215,-5.8244e-05,0
2.622,-1.7121e-05,0
2.6225,1.8296e-05,0
2.623,2.8702e-05,0
2.6235,8.04e-05,0
2.624,0.00017104,0
2.6245,0.00019034,0
2.625,0.00012757,0
2.6255,6.3279e-05,0
2.626,2.9206e-05,0
2.6265,-4.8676e-06,0
2.627,-6.2776e-05,0
2.6275,-0.00013277,0
2.628,-0.00018581,0
2.6285,-0.00021736,0
2.629,-0.00025547,0
2.6295,-0.00029592,0
2.63,-0.00030884,0
2.6305,-0.00029189,0
2.631,-0.00026386,0
2.6315,-0.00023113,0
2.632,-0.00018715,0
2.6325,-0.00012706,0
2.633,-6.4118e-05,0
2.6335,-1.796e-05,0
2.634,8.3925e-06,0
2.6345,2.031e-05,0
2.635,2.6017e-05,0
2.6355,5.0355e-05,0
2.636,0.00011531,0
2.6365,0.00017406,0
2.637,0.00017104,0
2.6375,0.00014318,0
2.638,0.00014385,0
2.6385,0.00016365,0
2.639,0.00016617,0
2.6395,0.00014418,0
2.64,0.00012857,0
2.6405,0.00012572,0
2.641,0.00010289,0
2.6415,5.4887e-05,0
2.642,1.2924e-05,0
2.6425,-4.3641e-06,0
2.643,-6.714e-06,0
2.6435,-1.2757e-05,0
2.644,-2.266e-05,0
2.6445,-3.7766e-05,0
2.645,-5.6565e-05,0
2.6455,-5.4215e-05,0
2.646,-1.1246e-05,0
2.6465,5.0858e-05,0
2.647,9.8863e-05,0
2.6475,0.00012102,0
2.648,0.0001284,0
2.6485,0.00012706,0
2.649,0.00011666,0
2.6495,0.00010625,0
2.65,0.00013881,0
2.6505,0.00024288,0
2.651,0.0003211,0
2.6515,0.0003023,0
2.652,0.00024355,0
2.6525,0.00020041,0
2.653,0.00014116,0
2.6535,4.9515e-05,0
2.654,-1.561e-05,0
2.6545,-5.3712e-06,0
2.655,4.0787e-05,0
2.6555,5.1865e-05,0
2.656,2.266e-05,0
2.6565,-6.8818e-06,0
2.657,-2.1988e-05,0
2.6575,-5.2872e-05,0
2.658,-0.00010138,0
2.6585,-0.00012505,0
2.659,-0.00010088,0
2.6595,-6.4622e-05,0
2.66,-4.3137e-05,0
2.6605,-1.1582e-05,0
2.661,3.3234e-05,0
2.6615,8.4596e-05,0
2.662,0.0001321,0
2.6625,0.00012438,0
2.663,4.9683e-05,0
2.6635,-3.357e-05,0
2.664,-9.1981e-05,0
2.6645,-0.00014485,0
2.665,-0.00019705,0
2.6655,-0.00024002,0
2.666,-0.00028669,0
2.6665,-0.00034325,0
2.667,-0.00037296,0
2.6675,-0.00035097,0
2.668,-0.00030196,0
2.6685,-0.00024657,0
2.669,-0.00018564,0
2.6695,-0.00012136,0
2.67,-5.6901e-05,0
2.6705,-3.0213e-06,0
2.671,3.0716e-05,0
2.6715,4.9515e-05,0
2.672,6.6804e-05,0
2.6725,8.1071e-05,0
2.673,9.2149e-05,0
2.6735,9.8863e-05,0
2.674,0.00010222,0
2.6745,0.00010574,0
2.675,0.00010994,0
2.6755,0.00010927,0
2.676,9.9199e-05,0
2.6765,8.7953e-05,0
2.677,8.5267e-05,0
2.6775,8.7785e-05,0
2.678,9.1142e-05,0
2.6785,9.7185e-05,0
2.679,0.0001086,0
2.6795,0.00011968,0
2.68,0.0001274,0
2.6805,0.00013646,0
2.681,0.00014385,0
2.6815,0.00015174,0
2.682,0.00015962,0
2.6825,0.00015828,0
2.683,0.00015207,0
2.6835,0.00015258,0
2.684,0.0001462,0
2.6845,0.00011984,0
2.685,8.51e-05,0
2.6855,5.9587e-05,0
2.686,4.4144e-05,0
2.6865,4.1459e-05,0
2.687,4.8173e-05,0
2.6875,5.3208e-05,0
2.688,5.1865e-05,0
2.6885,3.9612e-05,0
2.689,2.031e-05,0
2.6895,1.1078e-05,0
2.69,1.9135e-05,0
2.6905,3.4409e-05,0
2.691,3.5416e-05,0
2.6915,1.796e-05,0
2.692,8.392e-07,0
2.6925,6.5461e-06,0
2.693,5.8244e-05,0
2.6935,0.00015727,0
2.694,0.00022039,0
2.6945,0.00020494,0
2.695,0.00018195,0
2.6955,0.00020125,0
2.696,0.00022206,0
2.6965,0.00019286,0
2.697,0.00011649,0
2.6975,1.8967e-05,0
2.698,-7.4189e-05,0
2.6985,-0.00013613,0
2.699,-0.00013948,0
2.6995,-9.0303e-05,0
2.7,-4.918e-05,0
2.7005,-4.8844e-05,0
2.701,-5.5894e-05,0
2.7015,-4.4144e-05,0
2.702,-6.009e-05,0
2.7025,-0.00012387,0
2.703,-0.00018027,0
2.7035,-0.00020394,0
2.704,-0.00020595,0
2.7045,-0.00019403,0
2.705,-0.00017507,0
2.7055,-0.00016818,0
2.706,-0.00018715,0
2.7065,-0.0002177,0
2.707,-0.00023281,0
2.7075,-0.00021518,0
2.708,-0.00016533,0
2.7085,-8.1575e-05,0
2.709,1.1414e-05,0
2.7095,8.1239e-05,0
2.71,0.0001091,0
2.7105,0.00010675,0
2.711,9.5506e-05,0
2.7115,7.3854e-05,0
2.712,5.4551e-05,0
2.7125,6.2944e-05,0
2.713,9.2149e-05,0
2.7135,0.0001086,0
2.714,0.00010188,0
2.7145,7.9057e-05,0
2.715,7.1672e-05,0
2.7155,7.9393e-05,0
2.716,6.7308e-05,0
2.7165,3.3234e-05,0
2.717,1.9974e-05,0
2.7175,4.2802e-05,0
2.718,3.4409e-05,0
2.7185,-1.8967e-05,0
2.719,-6.7308e-05,0
2.7195,-6.1601e-05,0
2.72,-7.8889e-06,0
2.7205,5.8579e-05,0
2.721,0.0001044,0
2.7215,0.00010843,0
2.722,7.9057e-05,0
2.7225,4.1627e-05,0
2.723,8.2246e-06,0
2.7235,-2.182e-05,0
2.724,-5.0523e-05,0
2.7245,-6.479e-05,0
2.725,-4.2466e-05,0
2.7255,5.0355e-05,0
2.726,0.00018077,0
2.7265,0.00025228,0
2.727,0.0002276,0
2.7275,0.00017305,0
2.728,0.00017104,0
2.7285,0.00024456,0
2.729,0.00031019,0
2.7295,0.00028635,0
2.73,0.00019051,0
2.7305,8.3085e-05,0
2.731,-1.7121e-05,0
2.7315,-0.00012186,0
2.732,-0.0002036,0
2.7325,-0.00023381,0
2.733,-0.00021636,0
2.7335,-0.00018564,0
2.734,-0.00017221,0
2.7345,-0.0001603,0
2.735,-0.00012522,0
2.7355,-7.0832e-05,0
2.736,-2.0646e-05,0
2.7365,1.0239e-05,0
2.737,2.6688e-05,0
2.7375,2.6352e-05,0
2.738,-2.3499e-06,0
2.7385,-4.6494e-05,0
2.739,-7.7714e-05,0
2.7395,-7.5532e-05,0
2.74,-4.448e-05,0
2.7405,-1.8296e-05,0
2.741,-9.5674e-06,0
2.7415,-8.2246e-06,0
2.742,-6.8818e-06,0
2.7425,-2.0142e-06,0
2.743,3.357e-06,0
2.7435,5.539e-06,0
2.744,1.2589e-05,0
2.7445,2.6184e-05,0
2.745,4.0116e-05,0
2.7455,5.1865e-05,0
2.746,5.9251e-05,0
2.7465,6.1265e-05,0
2.747,6.3951e-05,0
2.7475,6.9993e-05,0
2.748,8.2078e-05,0
2.7485,9.0471e-05,0
2.749,8.745e-05,0
2.7495,7.8721e-05,0
2.75,7.4357e-05,0
2.7505,7.7211e-05,0
2.751,8.0232e-05,0
2.7515,8.1575e-05,0
2.752,8.7114e-05,0
2.7525,9.0974e-05,0
2.753,8.426e-05,0
2.7535,0.0001039,0
2.754,0.00016802,0
2.7545,0.00021283,0
2.755,0.00022005,0
2.7555,0.00021736,0
2.756,0.00019722,0
2.7565,0.00014267,0
2.757,7.4021e-05,0
2.7575,2.3331e-05,0
2.758,-1.3764e-05,0
2.7585,-6.9322e-05,0
2.759,-0.00014855,0
2.7595,-0.00020864,0
2.76,-0.00021149,0
2.7605,-0.00017507,0
2.761,-0.00013931,0
2.7615,-0.00010961,0
2.762,-7.9057e-05,0
2.7625,-5.6397e-05,0
2.763,-3.4913e-05,0
2.7635,-8.7282e-06,0
2.764,5.0355e-06,0
2.7645,-2.8534e-06,0
2.765,-1.9974e-05,0
2.7655,-3.1052e-05,0
2.766,-2.9709e-05,0
2.7665,7.5532e-06,0
2.767,7.7043e-05,0
2.7675,0.00015023,0
2.768,0.00018547,0
2.7685,0.00017943,0
2.769,0.00016818,0
2.7695,0.00017003,0
2.77,0.00019504,0
2.7705,0.00021401,0
2.771,0.00020125,0
2.7715,0.00018782,0
2.772,0.00017272,0
2.7725,0.00013143,0
2.773,6.0426e-05,0
2.7735,-2.0981e-05,0
2.774,-8.6778e-05,0
2.7745,-0.00012706,0
2.775,-0.00016936,0
2.7755,-0.00022593,0
2.776,-0.00026789,0
2.7765,-0.00026419,0
2.777,-0.00021988,0
2.7775,-0.00015476,0
2.778,-9.0135e-05,0
2.7785,-4.3977e-05,0
2.779,-2.0981e-05,0
2.7795,-2.182e-05,0
2.78,-3.7766e-05,0
2.7805,-4.7501e-05,0
2.781,-4.3809e-05,0
2.7815,-3.8102e-05,0
2.782,-3.0045e-05,0
2.7825,-1.4939e-05,0
2.783,-5.7069e-06,0
2.7835,-8.896e-06,0
2.784,-1.4603e-05,0
2.7845,-5.8747e-06,0
2.785,2.4002e-05,0
2.7855,5.7572e-05,0
2.786,9.6178e-05,0
2.7865,0.00018379,0
2.787,0.00032479,0
2.7875,0.00042281,0
2.788,0.00038639,0
2.7885,0.0002788,0
2.789,0.00019521,0
2.7895,0.00015425,0
2.79,0.00013915,0
2.7905,0.0001274,0
2.791,0.00012639,0
2.7915,0.00012136,0
2.792,7.2679e-05,0
2.7925,-1.5442e-05,0
2.793,-9.4331e-05,0
2.7935,-0.0001237,0
2.794,-0.00013092,0
2.7945,-0.00016214,0
2.795,-0.00020528,0
2.7955,-0.00022559,0
2.796,-0.00022358,0
2.7965,-0.0002135,0
2.797,-0.00020679,0
2.7975,-0.00019655,0
2.798,-0.00017624,0
2.7985,-0.00013915,0
2.799,-8.7282e-05,0
2.7995,-3.6423e-05,0
2.8,1.5274e-05,0
2.8005,9.752e-05,0
2.801,0.00015946,0
2.8015,0.00016466,0
2.802,0.00016097,0
2.8025,0.00018245,0
2.803,0.00020494,0
2.8035,0.00018245,0
2.804,0.00012673,0
2.8045,8.51e-05,0
2.805,6.6636e-05,0
2.8055,6.1265e-05,0
2.806,5.6565e-05,0
2.8065,4.3473e-05,0
2.807,2.9374e-05,0
2.8075,2.182e-05,0
2.808,1.3092e-05,0
2.8085,-1.2589e-05,0
2.809,-5.4887e-05,0
2.8095,-9.5003e-05,0
2.81,-0.00011884,0
2.8105,-0.00012773,0
2.811,-0.00013747,0
2.8115,-0.00015744,0
2.812,-0.00017104,0
2.8125,-0.00016281,0
2.813,-0.00013075,0
2.8135,-8.4093e-05,0
2.814,-4.4144e-05,0
2.8145,-1.8631e-05,0
2.815,6.5461e-06,0
2.8155,4.918e-05,0
2.816,0.000118,0
2.8165,0.00020595,0
2.817,0.00026571,0
2.8175,0.00027913,0
2.818,0.00025899,0
2.8185,0.00020813,0
2.819,0.00013411,0
2.8195,7.0664e-05,0
2.82,4.3137e-05,0
2.8205,3.2395e-05,0
2.821,6.2104e-06,0
2.8215,-3.7095e-05,0
2.822,-5.774e-05,0
2.8225,-2.0142e-05,0
2.823,2.8031e-05,0
2.8235,2.9374e-05,0
2.824,-1.1749e-06,0
2.8245,-1.0239e-05,0
2.825,1.9806e-05,0
2.8255,3.9109e-05,0
2.826,2.5345e-05,0
2.8265,1.5946e-05,0
2.827,2.7024e-05,0
2.8275,3.6759e-05,0
2.828,6.8986e-05,0
2.8285,0.00012337,0
2.829,0.00014754,0
2.8295,0.0001514,0
2.83,0.00018396,0
2.8305,0.00023247,0
2.831,0.00023113,0
2.8315,0.00018782,0
2.832,0.00013931,0
2.8325,8.04e-05,0
2.833,-8.392e-07,0
2.8335,-7.5364e-05,0
2.834,-0.00011867,0
2.8345,-0.0001373,0
2.835,-0.00010692,0
2.8355,7.8889e-06,0
2.836,0.00013545,0
2.8365,0.00017104,0
2.837,0.00011447,0
2.8375,3.6591e-05,0
2.838,-1.2589e-05,0
2.8385,-4.3977e-05,0
2.839,-9.1478e-05,0
2.8395,-0.00015425,0
2.84,-0.00020897,0
2.8405,-0.00025077,0
2.841,-0.0002939,0
2.8415,-0.00033268,0
2.842,-0.00033989,0
2.8425,-0.00030398,0
2.843,-0.0002459,0
2.8435,-0.00019017,0
2.844,-0.00013512,0
2.8445,-7.0329e-05,0
2.845,-3.0213e-06,0
2.8455,6.2944e-05,0
2.846,0.00013075,0
2.8465,0.00018144,0
2.847,0.00019857,0
2.8475,0.00017003,0
2.848,0.00012505,0
2.8485,0.00011833,0
2.849,0.00017876,0
2.8495,0.00023885,0
2.85,0.00023415,0
2.8505,0.00019454,0
2.851,0.00015962,0
2.8515,0.00013478,0
2.852,0.00010188,0
2.8525,5.8915e-05,0
2.853,1.7456e-05,0
2.8535,-1.5106e-06,0
2.854,-5.035e-07,0
2.8545,2.8534e-06,0
2.855,-8.2246e-06,0
2.8555,-4.5319e-05,0
2.856,-7.1839e-05,0
2.8565,-2.031e-05,0
2.857,7.6036e-05,0
2.8575,9.3828e-05,0
2.858,2.4674e-05,0
2.8585,-4.8676e-06,0
2.859,7.7378e-05,0
2.8595,0.00019789,0
2.86,0.00025412,0
2.8605,0.00022123,0
2.861,0.00014066,0
2.8615,5.0858e-05,0
2.862,-2.8702e-05,0
2.8625,-0.00010121,0
2.863,-0.00017607,0
2.8635,-0.00023885,0
2.864,-0.00029172,0
2.8645,-0.00032294,0
2.865,-0.00030431,0
2.8655,-0.0002365,0
2.866,-0.00014754,0
2.8665,-6.5629e-05,0
2.867,-5.8747e-06,0
2.8675,4.213e-05,0
2.868,0.00012471,0
2.8685,0.00020444,0
2.869,0.00020763,0
2.8695,0.00014754,0
2.87,8.3085e-05,0
2.8705,5.153e-05,0
2.871,4.2802e-05,0
2.8715,3.0716e-05,0
2.872,1.0575e-05,0
2.8725,-5.035e-07,0
2.873,0,0
2.8735,1.0071e-06,0
2.874,3.4241e-05,0
2.8745,0.00011531,0
2.875,0.00019269,0
2.8755,0.00023415,0
2.876,0.00024254,0
2.8765,0.00025563,0
2.877,0.00025563,0
2.8775,0.00017842,0
2.878,5.1194e-05,0
2.8785,-3.6423e-05,0
2.879,-4.7166e-05,0
2.8795,-2.4338e-05,0
2.88,-1.1414e-05,0
2.8805,-1.4435e-05,0
2.881,-3.4745e-05,0
2.8815,-6.7643e-05,0
2.882,-9.6178e-05,0
2.8825,-0.00011196,0
2.883,-0.00011649,0
2.8835,-0.00011028,0
2.884,-9.4331e-05,0
2.8845,-7.8721e-05,0
2.885,-6.9993e-05,0
2.8855,-5.3712e-05,0
2.886,-2.8534e-06,0
2.8865,8.04e-05,0
2.887,0.00013176,0
2.8875,9.5171e-05,0
2.888,-1.5106e-06,0
2.8885,-7.2679e-05,0
2.889,-6.9322e-05,0
2.8895,-4.6998e-06,0
2.89,7.4189e-05,0
2.8905,0.00011028,0
2.891,9.1478e-05,0
2.8915,5.5222e-05,0
2.892,2.5345e-05,0
2.8925,2.182e-06,0
2.893,-1.5778e-05,0
2.8935,-2.5681e-05,0
2.894,-1.8296e-05,0
2.8945,3.5248e-06,0
2.895,8.2246e-06,0
2.8955,-1.0071e-05,0
2.896,-1.2253e-05,0
2.8965,5.8915e-05,0
2.897,0.00022391,0
2.8975,0.0003879,0
2.898,0.00043473,0
2.8985,0.000355,0
2.899,0.00024053,0
2.8995,0.00015996,0
2.9,0.00011649,0
2.9005,8.8289e-05,0
2.901,7.3014e-05,0
2.9015,6.2608e-05,0
2.902,2.6688e-05,0
2.9025,-4.1291e-05,0
2.903,-0.00011666,0
2.9035,-0.00017305,0
2.904,-0.00019454,0
2.9045,-0.00019487,0
2.905,-0.00020024,0
2.9055,-0.00019823,0
2.906,-0.00018849,0
2.9065,-0.00019504,0
2.907,-0.00021535,0
2.9075,-0.0002177,0
2.908,-0.0001937,0
2.9085,-0.00015509,0
2.909,-0.00011431,0
2.9095,-8.3925e-05,0
2.91,-5.4551e-05,0
2.9105,-7.8889e-06,0
2.911,7.7714e-05,0
2.9115,0.00024993,0
2.912,0.00042483,0
2.9125,0.00046276,0
2.913,0.00036054,0
2.9135,0.00023314,0
2.914,0.00014553,0
2.9145,7.4861e-05,0
2.915,-2.5177e-06,0
2.9155,-7.0664e-05,0
2.916,-0.000118,0
2.9165,-0.00015962,0
2.917,-0.00019588,0
2.9175,-0.00019638,0
2.918,-0.00014015,0
2.9185,-2.1317e-05,0
2.919,0.00010977,0
2.9195,0.00013193,0
2.92,4.7501e-05,0
2.9205,-1.091e-05,0
2.921,2.5513e-05,0
2.9215,7.9057e-05,0
2.922,9.1981e-05,0
2.9225,0.00011263,0
2.923,0.00013143,0
2.9235,9.3828e-05,0
2.924,1.4603e-05,0
2.9245,-5.8747e-05,0
2.925,-9.7856e-05,0
2.9255,-0.00011011,0
2.926,-0.00012605,0
2.9265,-0.00014418,0
2.927,-0.00014083,0
2.9275,-0.00012102,0
2.928,-9.4499e-05,0
2.9285,-6.3447e-05,0
2.929,-2.887e-05,0
2.9295,-5.539e-06,0
2.93,2.8534e-06,0
2.9305,1.4939e-05,0
2.931,4.4984e-05,0
2.9315,0.00010709,0
2.932,0.00018228,0
2.9325,0.00022945,0
2.933,0.00023583,0
2.9335,0.00021602,0
2.934,0.00018514,0
2.9345,0.00015258,0
2.935,0.00012589,0
2.9355,0.00010054,0
2.936,6.2944e-05,0
2.9365,7.8889e-06,0
2.937,-4.6998e-05,0
2.9375,-6.7308e-05,0
2.938,-6.63e-05,0
2.9385,-7.805e-05,0
2.939,-7.6875e-05,0
2.9395,-2.5177e-05,0
2.94,4.8173e-05,0
2.9405,8.426e-05,0
2.941,6.5629e-05,0
2.9415,1.7624e-05,0
2.942,-2.8031e-05,0
2.9425,-3.2898e-05,0
2.943,-8.2246e-06,0
2.9435,1.3932e-05,0
2.944,2.3667e-05,0
2.9445,3.122e-05,0
2.945,3.3402e-05,0
2.9455,2.5177e-05,0
2.946,2.2156e-05,0
2.9465,5.3208e-05,0
2.947,0.00010323,0
2.9475,0.00011464,0
2.948,7.4861e-05,0
2.9485,2.0646e-05,0
2.949,-1.2253e-05,0
2.9495,-2.0981e-05,0
2.95,-1.5778e-05,0
2.9505,-2.5177e-06,0
2.951,5.035e-07,0
2.9515,-1.1246e-05,0
2.952,-2.7359e-05,0
2.9525,-4.3473e-05,0
2.953,-5.7908e-05,0
2.9535,-6.1936e-05,0
2.954,-5.0187e-05,0
2.9545,-2.9038e-05,0
2.955,-8.896e-06,0
2.9555,1.0575e-05,0
2.956,2.8702e-05,0
2.9565,3.7095e-05,0
2.957,2.9877e-05,0
2.9575,1.5946e-05,0
2.958,1.678e-07,0
2.9585,-1.2757e-05,0
2.959,-1.5106e-06,0
2.9595,3.8605e-05,0
2.96,7.3182e-05,0
2.9605,8.3085e-05,0
2.961,0.00014452,0
2.9615,0.00029458,0
2.962,0.00038354,0
2.9625,0.00032378,0
2.963,0.00020293,0
2.9635,0.00012589,0
2.964,9.5842e-05,0
2.9645,8.04e-05,0
2.965,8.1407e-05,0
2.9655,0.00010356,0
2.966,9.836e-05,0
2.9665,2.9206e-05,0
2.967,-7.0832e-05,0
2.9675,-0.00015862,0
2.968,-0.00022139,0
2.9685,-0.00025882,0
2.969,-0.0002548,0
2.9695,-0.00021669,0
2.97,-0.00016567,0
2.9705,-8.7617e-05,0
2.971,-9.9031e-06,0
2.9715,2.8702e-05,0
2.972,2.9709e-05,0
2.9725,2.8534e-05,0
2.973,2.6017e-05,0
2.9735,-2.3499e-06,0
2.974,-3.9445e-05,0
2.9745,-5.9251e-05,0
2.975,-6.7643e-05,0
2.9755,-7.9728e-05,0
2.976,-9.8527e-05,0
2.9765,-0.00012522,0
2.977,-0.00014855,0
2.9775,-0.00014318,0
2.978,-0.00010222,0
2.9785,-4.5487e-05,0
2.979,-6.714e-06,0
2.9795,7.8889e-06,0
2.98,2.9374e-05,0
2.9805,6.8315e-05,0
2.981,0.00010037,0
2.9815,0.00012253,0
2.982,0.00016365,0
2.9825,0.00019722,0
2.983,0.00018732,0
2.9835,0.00014922,0
2.984,0.00011128,0
2.9845,9.4163e-05,0
2.985,0.00016298,0
2.9855,0.00032815,0
2.986,0.00043825,0
2.9865,0.00033889,0
2.987,0.00011666,0
2.9875,-1.5106e-06,0
2.988,3.6088e-05,0
2.9885,9.5506e-05,0
2.989,7.7211e-05,0
2.9895,3.5248e-06,0
2.99,-6.8818e-05,0
2.9905,-0.00012505,0
2.991,-0.00018782,0
2.9915,-0.00025949,0
2.992,-0.00032093,0
2.9925,-0.00034913,0
2.993,-0.00033452,0
2.9935,-0.00028266,0
2.994,-0.00020746,0
2.9945,-0.00013327,0
2.995,-7.1168e-05,0
2.9955,-1.1582e-05,0
2.996,5.153e-05,0
2.9965,0.00011682,0
2.997,0.00017104,0
2.9975,0.00019554,0
2.998,0.00019185,0
2.9985,0.00016768,0
2.999,0.00013394,0
2.9995,9.5506e-05,0
3,5.7237e-05,0
3.0005,2.7359e-05,0
3.001,1.9974e-05,0
3.0015,3.122e-05,0
3.002,3.3906e-05,0
3.0025,1.8296e-05,0
3.003,-9.2317e-06,0
3.0035,-3.1724e-05,0
3.004,-3.1052e-05,0
3.0045,-1.3428e-05,0
3.005,1.0407e-05,0
3.0055,4.1459e-05,0
3.006,9.366e-05,0
3.0065,0.00016231,0
3.007,0.00021518,0
3.0075,0.00022861,0
3.008,0.00019655,0
3.0085,0.00013931,0
3.009,9.2989e-05,0
3.0095,5.8579e-05,0
3.01,2.6352e-05,0
3.0105,1.2589e-05,0
3.011,6.9657e-05,0
3.0115,0.00015392,0
3.012,0.00015157,0
3.0125,7.2343e-05,0
3.013,1.0575e-05,0
3.0135,-2.0646e-05,0
3.014,-6.7811e-05,0
3.0145,-0.00011968,0
3.015,-0.00013713,0
3.0155,-0.0001237,0
3.016,-0.00012975,0
3.0165,-0.00018195,0
3.017,-0.00021418,0
3.0175,-0.00016399,0
3.018,-7.1672e-05,0
3.0185,3.6927e-06,0
3.019,5.8412e-05,0
3.0195,9.4331e-05,0
3.02,8.7953e-05,0
3.0205,4.0452e-05,0
3.021,-9.5674e-06,0
3.0215,-2.7024e-05,0
3.022,-2.5681e-05,0
3.0225,-3.743e-05,0
3.023,-5.388e-05,0
3.0235,-2.7024e-05,0
3.024,6.7811e-05,0
3.0245,0.00017238,0
3.025,0.00019017,0
3.0255,0.00012773,0
3.026,6.4118e-05,0
3.0265,4.3809e-05,0
3.027,3.9445e-05,0
3.0275,3.8605e-06,0
3.028,-5.9419e-05,0
3.0285,-8.426e-05,0
3.029,-3.6591e-05,0
3.0295,4.8844e-05,0
3.03,0.00012018,0
3.0305,0.00015962,0
3.031,0.00015795,0
3.0315,0.00011833,0
3.032,6.5461e-05,0
3.0325,2.0478e-05,0
3.033,-1.4267e-05,0
3.0335,-3.2731e-05,0
3.034,-3.7262e-05,0
3.0345,-2.266e-05,0
3.035,7.9728e-05,0
3.0355,0.00032613,0
3.036,0.0005346,0
3.0365,0.00051345,0
3.037,0.00033754,0
3.0375,0.00018614,0
3.038,0.00010155,0
3.0385,1.6953e-05,0
3.039,-9.0471e-05,0
3.0395,-0.00018648,0
3.04,-0.00025933,0
3.0405,-0.00032764,0
3.041,-0.00039294,0
3.0415,-0.00042986,0
3.042,-0.0004114,0
3.0425,-0.00034392,0
3.043,-0.00025731,0
3.0435,-0.00017507,0
3.044,-0.00010826,0
3.0445,-5.8579e-05,0
3.045,-2.8367e-05,0
3.0455,-1.2589e-05,0
3.046,-1.5106e-06,0
3.0465,2.266e-05,0
3.047,5.5726e-05,0
3.0475,7.6371e-05,0
3.048,7.6371e-05,0
3.0485,7.1336e-05,0
3.049,7.57e-05,0
3.0495,8.7785e-05,0
3.05,8.6946e-05,0
3.0505,7.2847e-05,0
3.051,6.8315e-05,0
3.0515,8.0232e-05,0
3.052,8.8457e-05,0
3.0525,8.5435e-05,0
3.053,8.04e-05,0
3.0535,8.51e-05,0
3.054,0.00011112,0
3.0545,0.00014032,0
3.055,0.00015157,0
3.0555,0.00019168,0
3.056,0.00024523,0
3.0565,0.00023801,0
3.057,0.0002172,0
3.0575,0.00024825,0
3.058,0.00029055,0
3.0585,0.00025228,0
3.059,0.0001086,0
3.0595,-5.4719e-05,0
3.06,-0.00013948,0
3.0605,-0.00014586,0
3.061,-0.00012236,0
3.0615,-9.0471e-05,0
3.062,-7.7043e-05,0
3.0625,-0.00012001,0
3.063,-0.00019622,0
