0,0,0
0.0005,0,0
0.001,0,0
0.0015,0,0
0.002,0,0
0.0025,0,0
0.003,0,0
0.0035,0,0
0.004,0,0
0.0045,0,0
0.005,0,0
0.0055,0,0
0.006,0,0
0.0065,0,0
0.007,0,0
0.0075,0,0
0.008,0,0
0.0085,0,0
0.009,0,0
0.0095,0,0
0.01,0,0
0.0105,0,0
0.011,0,0
0.0115,0,0
0.012,0,0
0.0125,0,0
0.013,0,0
0.0135,0,0
0.014,0,0
0.0145,0,0
0.015,0,0
0.0155,0,0
0.016,0,0
0.0165,0,0
0.017,0,0
0.0175,0,0
0.018,0,0
0.0185,0,0
0.019,0,0
0.0195,0,0
0.02,0,0
0.0205,0,0
0.021,0,0
0.0215,0,0
0.022,0,0
0.0225,0,0
0.023,0,0
0.0235,0,0
0.024,0,0
0.0245,0,0
0.025,0,0
0.0255,0,0
0.026,1.5946e-05,0
0.0265,1.4603e-05,0
0.027,1.4603e-05,0
0.0275,1.7288e-05,0
0.028,1.8631e-05,0
0.0285,1.6617e-05,0
0.029,1.0575e-05,0
0.0295,9.9031e-06,0
0.03,1.4435e-05,0
0.0305,1.7792e-05,0
0.031,1.7288e-05,0
0.0315,1.9638e-05,0
0.032,2.0981e-05,0
0.0325,1.5946e-05,0
0.033,1.1582e-05,0
0.0335,1.2924e-05,0
0.034,1.561e-05,0
0.0345,1.5946e-05,0
0.035,1.6953e-05,0
0.0355,1.7121e-05,0
0.036,1.2421e-05,0
0.0365,1.1414e-05,0
0.037,1.9135e-05,0
0.0375,2.652e-05,0
0.038,2.9877e-05,0
0.0385,2.7359e-05,0
0.039,2.0981e-05,0
0.0395,1.9303e-05,0
0.04,2.031e-05,0
0.0405,1.9638e-05,0
0.041,1.5778e-05,0
0.0415,1.1917e-05,0
0.042,1.3932e-05,0
0.0425,1.4939e-05,0
0.043,1.2589e-05,0
0.0435,1.3092e-05,0
0.044,1.5946e-05,0
0.0445,1.7456e-05,0
0.045,2.0478e-05,0
0.0455,2.5345e-05,0
0.046,2.8534e-05,0
0.0465,2.4002e-05,0
0.047,1.4603e-05,0
0.0475,1.1246e-05,0
0.048,1.4099e-05,0
0.0485,1.9806e-05,0
0.049,2.2995e-05,0
0.0495,2.3163e-05,0
0.05,2.3331e-05,0
0.0505,2.266e-05,0
0.051,2.0981e-05,0
0.0515,2.0478e-05,0
0.052,2.0646e-05,0
0.0525,2.1653e-05,0
0.053,2.6017e-05,0
0.0535,3.0213e-05,0
0.054,2.7024e-05,0
0.0545,2.0981e-05,0
0.055,1.8631e-05,0
0.0555,1.796e-05,0
0.056,1.7624e-05,0
0.0565,2.266e-05,0
0.057,2.4338e-05,0
0.0575,2.3835e-05,0
0.058,2.5009e-05,0
0.0585,2.4674e-05,0
0.059,2.4002e-05,0
0.0595,2.5681e-05,0
0.06,2.6688e-05,0
0.0605,2.4674e-05,0
0.061,1.9638e-05,0
0.0615,1.796e-05,0
0.062,2.1149e-05,0
0.0625,2.3163e-05,0
0.063,2.0813e-05,0
0.0635,1.7792e-05,0
0.064,1.9638e-05,0
0.0645,2.3667e-05,0
0.065,2.5009e-05,0
0.0655,2.266e-05,0
0.066,2.1149e-05,0
0.0665,2.266e-05,0
0.067,2.3331e-05,0
0.0675,1.8296e-05,0
0.068,1.5946e-05,0
0.0685,1.5946e-05,0
0.069,1.4939e-05,0
0.0695,1.8128e-05,0
0.07,2.2324e-05,0
0.0705,2.1149e-05,0
0.071,1.947e-05,0
0.0715,1.7624e-05,0
0.072,1.7121e-05,0
0.0725,1.4267e-05,0
0.073,1.1917e-05,0
0.0735,1.326e-05,0
0.074,1.8631e-05,0
0.0745,2.0646e-05,0
0.075,2.0813e-05,0
0.0755,1.9135e-05,0
0.076,1.5274e-05,0
0.0765,1.4939e-05,0
0.077,1.3764e-05,0
0.0775,1.1917e-05,0
0.078,1.1582e-05,0
0.0785,1.0575e-05,0
0.079,1.1917e-05,0
0.0795,1.4267e-05,0
0.08,1.091e-05,0
0.0805,9.9031e-06,0
0.081,1.561e-05,0
0.0815,1.8967e-05,0
0.082,1.5442e-05,0
0.0825,1.4603e-05,0
0.083,1.5946e-05,0
0.0835,1.4435e-05,0
0.084,1.2253e-05,0
0.0845,1.2589e-05,0
0.085,1.7288e-05,0
0.0855,2.4506e-05,0
0.086,2.8702e-05,0
0.0865,2.6017e-05,0
0.087,2.2995e-05,0
0.0875,2.1988e-05,0
0.088,2.2995e-05,0
0.0885,2.2324e-05,0
0.089,2.0813e-05,0
0.0895,1.8631e-05,0
0.09,1.7288e-05,0
0.0905,1.7456e-05,0
0.091,1.3764e-05,0
0.0915,8.0568e-06,0
0.092,5.0355e-06,0
0.0925,7.7211e-06,0
0.093,9.2317e-06,0
0.0935,7.2175e-06,0
0.094,9.7353e-06,0
0.0945,1.1582e-05,0
0.095,1.2085e-05,0
0.0955,1.3932e-05,0
0.096,1.4603e-05,0
0.0965,1.5274e-05,0
0.097,1.796e-05,0
0.0975,2.0813e-05,0
0.098,2.2492e-05,0
0.0985,2.1988e-05,0
0.099,1.9974e-05,0
0.0995,1.7288e-05,0
0.1,1.796e-05,0
0.1005,1.7456e-05,0
0.101,1.8463e-05,0
0.1015,2.1988e-05,0
0.102,2.6688e-05,0
0.1025,2.7527e-05,0
0.103,2.3163e-05,0
0.1035,2.266e-05,0
0.104,2.6017e-05,0
0.1045,2.6184e-05,0
0.105,2.2156e-05,0
0.1055,2.0981e-05,0
0.106,1.7288e-05,0
0.1065,1.3932e-05,0
0.107,1.7121e-05,0
0.1075,1.8967e-05,0
0.108,1.7288e-05,0
0.1085,1.7456e-05,0
0.109,2.0142e-05,0
0.1095,2.2324e-05,0
0.11,2.1988e-05,0
0.1105,2.1317e-05,0
0.111,2.2324e-05,0
0.1115,2.266e-05,0
0.112,2.0646e-05,0
0.1125,1.8631e-05,0
0.113,1.8128e-05,0
0.1135,1.8631e-05,0
0.114,2.1317e-05,0
0.1145,2.3163e-05,0
0.115,2.4338e-05,0
0.1155,2.3835e-05,0
0.116,1.9974e-05,0
0.1165,1.7288e-05,0
0.117,1.8799e-05,0
0.1175,2.3331e-05,0
0.118,2.1988e-05,0
0.1185,1.9303e-05,0
0.119,1.8967e-05,0
0.1195,1.9135e-05,0
0.12,2.0813e-05,0
0.1205,1.8296e-05,0
0.121,1.4939e-05,0
0.1215,1.7624e-05,0
0.122,2.031e-05,0
0.1225,1.6785e-05,0
0.123,1.5442e-05,0
0.1235,1.6785e-05,0
0.124,1.9303e-05,0
0.1245,2.1653e-05,0
0.125,2.4338e-05,0
0.1255,2.1988e-05,0
0.126,1.8296e-05,0
0.1265,1.8463e-05,0
0.127,1.9638e-05,0
0.1275,1.9974e-05,0
0.128,2.0478e-05,0
0.1285,2.1317e-05,0
0.129,2.3331e-05,0
0.1295,2.9038e-05,0
0.13,3.4073e-05,0
0.1305,3.122e-05,0
0.131,2.2492e-05,0
0.1315,1.8296e-05,0
0.132,1.9974e-05,0
0.1325,1.9638e-05,0
0.133,2.0981e-05,0
0.1335,2.2828e-05,0
0.134,2.2828e-05,0
0.1345,2.3331e-05,0
0.135,2.1149e-05,0
0.1355,1.5106e-05,0
0.136,9.3996e-06,0
0.1365,7.8889e-06,0
0.137,1.3764e-05,0
0.1375,1.6281e-05,0
0.138,1.2253e-05,0
0.1385,8.5603e-06,0
0.139,7.5532e-06,0
0.1395,7.0497e-06,0
0.14,8.7282e-06,0
0.1405,1.2924e-05,0
0.141,1.8463e-05,0
0.1415,2.031e-05,0
0.142,1.6617e-05,0
0.1425,1.561e-05,0
0.143,1.7624e-05,0
0.1435,2.031e-05,0
0.144,2.0646e-05,0
0.1445,2.2324e-05,0
0.145,2.1317e-05,0
0.1455,1.7121e-05,0
0.146,1.4435e-05,0
0.1465,1.6281e-05,0
0.147,1.8463e-05,0
0.1475,2.1317e-05,0
0.148,2.3163e-05,0
0.1485,2.2492e-05,0
0.149,2.1317e-05,0
0.1495,2.2156e-05,0
0.15,2.652e-05,0
0.1505,3.122e-05,0
0.151,3.0549e-05,0
0.1515,2.5681e-05,0
0.152,2.2324e-05,0
0.1525,2.3835e-05,0
0.153,2.6184e-05,0
0.1535,2.5345e-05,0
0.154,2.5345e-05,0
0.1545,2.7024e-05,0
0.155,2.5009e-05,0
0.1555,1.9303e-05,0
0.156,1.8463e-05,0
0.1565,1.9974e-05,0
0.157,1.796e-05,0
0.1575,1.6281e-05,0
0.158,1.3092e-05,0
0.1585,1.2589e-05,0
0.159,1.8631e-05,0
0.1595,2.1149e-05,0
0.16,1.7288e-05,0
0.1605,1.4603e-05,0
0.161,1.1749e-05,0
0.1615,9.5674e-06,0
0.162,1.1246e-05,0
0.1625,1.4603e-05,0
0.163,2.031e-05,0
0.1635,2.4338e-05,0
0.164,2.5849e-05,0
0.1645,2.5681e-05,0
0.165,2.4338e-05,0
0.1655,2.5009e-05,0
0.166,2.7527e-05,0
0.1665,2.9038e-05,0
0.167,2.7024e-05,0
0.1675,2.4002e-05,0
0.168,1.9974e-05,0
0.1685,1.5946e-05,0
0.169,1.796e-05,0
0.1695,2.0981e-05,0
0.17,1.9303e-05,0
0.1705,1.8631e-05,0
0.171,1.9806e-05,0
0.1715,1.4603e-05,0
0.172,8.5603e-06,0
0.1725,7.2175e-06,0
0.173,9.2317e-06,0
0.1735,1.0575e-05,0
0.174,1.2924e-05,0
0.1745,1.5106e-05,0
0.175,1.7792e-05,0
0.1755,2.031e-05,0
0.176,2.0646e-05,0
0.1765,2.0981e-05,0
0.177,2.0646e-05,0
0.1775,1.4267e-05,0
0.178,1.0575e-05,0
0.1785,1.5106e-05,0
0.179,2.182e-05,0
0.1795,2.5177e-05,0
0.18,2.5177e-05,0
0.1805,2.266e-05,0
0.181,1.7624e-05,0
0.1815,1.5274e-05,0
0.182,1.8296e-05,0
0.1825,2.1317e-05,0
0.183,2.182e-05,0
0.1835,2.266e-05,0
0.184,1.8631e-05,0
0.1845,1.6449e-05,0
0.185,2.1149e-05,0
0.1855,2.3163e-05,0
0.186,1.8296e-05,0
0.1865,1.6281e-05,0
0.187,1.3764e-05,0
0.1875,1.2924e-05,0
0.188,1.6953e-05,0
0.1885,1.9638e-05,0
0.189,2.2324e-05,0
0.1895,2.6017e-05,0
0.19,2.8367e-05,0
0.1905,2.5345e-05,0
0.191,2.1317e-05,0
0.1915,1.8296e-05,0
0.192,1.5946e-05,0
0.1925,1.6281e-05,0
0.193,1.7792e-05,0
0.1935,1.9303e-05,0
0.194,2.1317e-05,0
0.1945,1.9806e-05,0
0.195,1.4939e-05,0
0.1955,1.6617e-05,0
0.196,1.6617e-05,0
0.1965,1.561e-05,0
0.197,1.5946e-05,0
0.1975,1.2924e-05,0
0.198,1.4939e-05,0
0.1985,2.1988e-05,0
0.199,2.4506e-05,0
0.1995,2.1317e-05,0
0.2,2.031e-05,0
0.2005,2.3835e-05,0
0.201,2.3667e-05,0
0.2015,1.7792e-05,0
0.202,1.5946e-05,0
0.2025,1.8631e-05,0
0.203,1.9303e-05,0
0.2035,1.9974e-05,0
0.204,2.2156e-05,0
0.2045,2.1317e-05,0
0.205,1.5946e-05,0
0.2055,1.5274e-05,0
0.206,2.0646e-05,0
0.2065,2.1317e-05,0
0.207,1.8296e-05,0
0.2075,1.6281e-05,0
0.208,1.7288e-05,0
0.2085,1.9135e-05,0
0.209,1.7456e-05,0
0.2095,1.9135e-05,0
0.21,2.3499e-05,0
0.2105,2.4002e-05,0
0.211,2.0981e-05,0
0.2115,1.9806e-05,0
0.212,1.8631e-05,0
0.2125,1.796e-05,0
0.213,1.796e-05,0
0.2135,1.6281e-05,0
0.214,1.326e-05,0
0.2145,1.2589e-05,0
0.215,1.796e-05,0
0.2155,2.266e-05,0
0.216,2.6688e-05,0
0.2165,2.7695e-05,0
0.217,2.1317e-05,0
0.2175,1.5946e-05,0
0.218,1.7792e-05,0
0.2185,2.1317e-05,0
0.219,1.9806e-05,0
0.2195,1.2924e-05,0
0.22,8.5603e-06,0
0.2205,1.2253e-05,0
0.221,1.9135e-05,0
0.2215,1.9806e-05,0
0.222,1.6281e-05,0
0.2225,1.5946e-05,0
0.223,1.6449e-05,0
0.2235,1.3932e-05,0
0.224,1.2085e-05,0
0.2245,1.2589e-05,0
0.225,1.3932e-05,0
0.2255,1.7792e-05,0
0.226,1.9974e-05,0
0.2265,1.9806e-05,0
0.227,1.9806e-05,0
0.2275,1.9638e-05,0
0.228,2.1317e-05,0
0.2285,2.7192e-05,0
0.229,3.0381e-05,0
0.2295,2.7192e-05,0
0.23,2.4338e-05,0
0.2305,2.417e-05,0
0.231,2.266e-05,0
0.2315,2.031e-05,0
0.232,2.0646e-05,0
0.2325,2.3499e-05,0
0.233,2.1988e-05,0
0.2335,1.561e-05,0
0.234,8.5603e-06,0
0.2345,5.8747e-06,0
0.235,5.7069e-06,0
0.2355,5.8747e-06,0
0.236,5.7069e-06,0
0.2365,6.2104e-06,0
0.237,7.2175e-06,0
0.2375,9.5674e-06,0
0.238,1.1917e-05,0
0.2385,1.326e-05,0
0.239,1.326e-05,0
0.2395,1.4603e-05,0
0.24,1.8631e-05,0
0.2405,2.3331e-05,0
0.241,3.0045e-05,0
0.2415,3.5416e-05,0
0.242,3.2731e-05,0
0.2425,2.7695e-05,0
0.243,2.652e-05,0
0.2435,2.887e-05,0
0.244,3.0381e-05,0
0.2445,2.8702e-05,0
0.245,2.3667e-05,0
0.2455,1.9638e-05,0
0.246,2.0981e-05,0
0.2465,2.3331e-05,0
0.247,2.6352e-05,0
0.2475,2.7024e-05,0
0.248,2.3835e-05,0
0.2485,2.3163e-05,0
0.249,2.1149e-05,0
0.2495,1.7288e-05,0
0.25,1.6785e-05,0
0.2505,1.7624e-05,0
0.251,1.6114e-05,0
0.2515,1.326e-05,0
0.252,1.091e-05,0
0.2525,1.0575e-05,0
0.253,1.5106e-05,0
0.2535,1.7288e-05,0
0.254,1.4603e-05,0
0.2545,1.1246e-05,0
0.255,1.1078e-05,0
0.2555,1.4939e-05,0
0.256,1.6281e-05,0
0.2565,1.5274e-05,0
0.257,1.4603e-05,0
0.2575,1.3932e-05,0
0.258,1.3764e-05,0
0.2585,1.6449e-05,0
0.259,1.9135e-05,0
0.2595,1.9974e-05,0
0.26,1.8296e-05,0
0.2605,1.7288e-05,0
0.261,1.3596e-05,0
0.2615,1.3596e-05,0
0.262,1.6953e-05,0
0.2625,2.1653e-05,0
0.263,2.9709e-05,0
0.2635,3.0381e-05,0
0.264,2.2324e-05,0
0.2645,1.7624e-05,0
0.265,1.7456e-05,0
0.2655,1.8967e-05,0
0.266,1.9974e-05,0
0.2665,1.9303e-05,0
0.267,2.031e-05,0
0.2675,2.417e-05,0
0.268,2.6688e-05,0
0.2685,2.9206e-05,0
0.269,2.9709e-05,0
0.2695,2.4674e-05,0
0.27,1.7288e-05,0
0.2705,1.0575e-05,0
0.271,1.1749e-05,0
0.2715,1.4435e-05,0
0.272,1.1246e-05,0
0.2725,9.5674e-06,0
0.273,1.4435e-05,0
0.2735,1.9638e-05,0
0.274,1.796e-05,0
0.2745,1.5274e-05,0
0.275,1.4603e-05,0
0.2755,1.326e-05,0
0.276,1.5778e-05,0
0.2765,1.9303e-05,0
0.277,2.031e-05,0
0.2775,2.4002e-05,0
0.278,2.7863e-05,0
0.2785,3.0045e-05,0
0.279,3.1891e-05,0
0.2795,3.2059e-05,0
0.28,3.4577e-05,0
0.2805,3.3738e-05,0
0.281,3.0549e-05,0
0.2815,2.9374e-05,0
0.282,2.4674e-05,0
0.2825,2.1317e-05,0
0.283,2.1988e-05,0
0.2835,2.3163e-05,0
0.284,2.0813e-05,0
0.2845,1.6281e-05,0
0.285,1.5778e-05,0
0.2855,1.4099e-05,0
0.286,1.2421e-05,0
0.2865,1.7624e-05,0
0.287,1.9974e-05,0
0.2875,1.5778e-05,0
0.288,1.1078e-05,0
0.2885,1.1582e-05,0
0.289,1.5274e-05,0
0.2895,1.796e-05,0
0.29,1.9974e-05,0
0.2905,2.1317e-05,0
0.291,2.1317e-05,0
0.2915,2.4002e-05,0
0.292,2.9877e-05,0
0.2925,3.2395e-05,0
0.293,3.1724e-05,0
0.2935,2.7024e-05,0
0.294,2.3667e-05,0
0.2945,2.4002e-05,0
0.295,2.6017e-05,0
0.2955,2.4002e-05,0
0.296,2.1149e-05,0
0.2965,1.9638e-05,0
0.297,1.8967e-05,0
0.2975,1.7624e-05,0
0.298,1.6617e-05,0
0.2985,1.7624e-05,0
0.299,1.7456e-05,0
0.2995,1.9135e-05,0
0.3,1.8967e-05,0
0.3005,1.4267e-05,0
0.301,1.1582e-05,0
0.3015,1.5274e-05,0
0.302,1.947e-05,0
0.3025,1.7624e-05,0
0.303,1.1582e-05,0
0.3035,9.9031e-06,0
0.304,9.5674e-06,0
0.3045,7.8889e-06,0
0.305,7.3854e-06,0
0.3055,9.9031e-06,0
0.306,1.3932e-05,0
0.3065,1.5274e-05,0
0.307,1.8631e-05,0
0.3075,2.2492e-05,0
0.308,2.6352e-05,0
0.3085,2.9374e-05,0
0.309,2.9374e-05,0
0.3095,2.7695e-05,0
0.31,2.6017e-05,0
0.3105,2.2156e-05,0
0.311,1.947e-05,0
0.3115,2.031e-05,0
0.312,2.1988e-05,0
0.3125,2.0478e-05,0
0.313,1.6953e-05,0
0.3135,1.5946e-05,0
0.314,1.5778e-05,0
0.3145,1.4603e-05,0
0.315,1.7288e-05,0
0.3155,1.8967e-05,0
0.316,1.5946e-05,0
0.3165,1.6449e-05,0
0.317,1.4603e-05,0
0.3175,1.091e-05,0
0.318,1.0575e-05,0
0.3185,1.1582e-05,0
0.319,1.1582e-05,0
0.3195,1.1917e-05,0
0.32,1.2924e-05,0
0.3205,1.6281e-05,0
0.321,2.5009e-05,0
0.3215,3.2563e-05,0
0.322,3.2395e-05,0
0.3225,2.9374e-05,0
0.323,3.1724e-05,0
0.3235,3.2059e-05,0
0.324,2.7024e-05,0
0.3245,2.4002e-05,0
0.325,2.5849e-05,0
0.3255,2.6352e-05,0
0.326,2.4506e-05,0
0.3265,2.652e-05,0
0.327,2.4506e-05,0
0.3275,2.0813e-05,0
0.328,1.9974e-05,0
0.3285,1.8296e-05,0
0.329,1.5946e-05,0
0.3295,1.6617e-05,0
0.33,1.8967e-05,0
0.3305,2.0142e-05,0
0.331,2.1988e-05,0
0.3315,2.0478e-05,0
0.332,1.6953e-05,0
0.3325,1.5946e-05,0
0.333,1.8631e-05,0
0.3335,1.9303e-05,0
0.334,1.9806e-05,0
0.3345,1.8631e-05,0
0.335,1.6449e-05,0
0.3355,1.6953e-05,0
0.336,1.8296e-05,0
0.3365,1.947e-05,0
0.337,1.9303e-05,0
0.3375,1.8296e-05,0
0.338,1.8631e-05,0
0.3385,1.6281e-05,0
0.339,1.2253e-05,0
0.3395,1.091e-05,0
0.34,9.7353e-06,0
0.3405,9.9031e-06,0
0.341,1.0575e-05,0
0.3415,8.5603e-06,0
0.342,9.2317e-06,0
0.3425,1.5946e-05,0
0.343,2.1317e-05,0
0.3435,2.1149e-05,0
0.344,1.9303e-05,0
0.3445,1.8631e-05,0
0.345,2.1317e-05,0
0.3455,2.3499e-05,0
0.346,2.4002e-05,0
0.3465,2.5177e-05,0
0.347,2.3163e-05,0
0.3475,2.3163e-05,0
0.348,2.8367e-05,0
0.3485,3.357e-05,0
0.349,3.122e-05,0
0.3495,2.6688e-05,0
0.35,2.4338e-05,0
0.3505,2.1317e-05,0
0.351,1.7792e-05,0
0.3515,1.6281e-05,0
0.352,1.3596e-05,0
0.3525,1.1246e-05,0
0.353,8.2246e-06,0
0.3535,7.5532e-06,0
0.354,1.0071e-05,0
0.3545,1.1582e-05,0
0.355,1.0575e-05,0
0.3555,1.2924e-05,0
0.356,1.5946e-05,0
0.3565,2.0646e-05,0
0.357,2.9206e-05,0
0.3575,3.4577e-05,0
0.358,3.5248e-05,0
0.3585,3.2731e-05,0
0.359,2.8367e-05,0
0.3595,2.1317e-05,0
0.36,1.9974e-05,0
0.3605,2.4002e-05,0
0.361,2.4002e-05,0
0.3615,2.266e-05,0
0.362,2.1149e-05,0
0.3625,1.9303e-05,0
0.363,1.7288e-05,0
0.3635,1.5274e-05,0
0.364,1.4771e-05,0
0.3645,1.3932e-05,0
0.365,1.2589e-05,0
0.3655,1.4099e-05,0
0.366,1.3932e-05,0
0.3665,1.3764e-05,0
0.367,1.3764e-05,0
0.3675,1.1078e-05,0
0.368,1.2253e-05,0
0.3685,1.6281e-05,0
0.369,1.6953e-05,0
0.3695,1.4435e-05,0
0.37,1.4939e-05,0
0.3705,1.5946e-05,0
0.371,1.6953e-05,0
0.3715,1.6617e-05,0
0.372,1.6617e-05,0
0.3725,1.7624e-05,0
0.373,1.6281e-05,0
0.3735,1.4099e-05,0
0.374,1.5946e-05,0
0.3745,2.0813e-05,0
0.375,2.3499e-05,0
0.3755,2.031e-05,0
0.376,1.4939e-05,0
0.3765,1.3932e-05,0
0.377,2.0646e-05,0
0.3775,2.3835e-05,0
0.378,1.9974e-05,0
0.3785,1.6449e-05,0
0.379,1.3092e-05,0
0.3795,1.2589e-05,0
0.38,1.5442e-05,0
0.3805,1.796e-05,0
0.381,1.7121e-05,0
0.3815,1.5946e-05,0
0.382,1.7624e-05,0
0.3825,1.9303e-05,0
0.383,1.7792e-05,0
0.3835,1.6785e-05,0
0.384,2.031e-05,0
0.3845,2.4674e-05,0
0.385,2.3835e-05,0
0.3855,2.1317e-05,0
0.386,2.0813e-05,0
0.3865,1.9303e-05,0
0.387,1.7624e-05,0
0.3875,1.4771e-05,0
0.388,1.3596e-05,0
0.3885,1.5946e-05,0
0.389,2.031e-05,0
0.3895,2.4002e-05,0
0.39,2.6352e-05,0
0.3905,2.6352e-05,0
0.391,2.4002e-05,0
0.3915,2.4002e-05,0
0.392,2.4338e-05,0
0.3925,2.266e-05,0
0.393,2.2492e-05,0
0.3935,2.3835e-05,0
0.394,2.266e-05,0
0.3945,1.9303e-05,0
0.395,1.6281e-05,0
0.3955,1.561e-05,0
0.396,1.5946e-05,0
0.3965,1.6449e-05,0
0.397,1.6953e-05,0
0.3975,1.4603e-05,0
0.398,1.5274e-05,0
0.3985,1.9638e-05,0
0.399,1.8967e-05,0
0.3995,1.4603e-05,0
0.4,1.2589e-05,0
0.4005,1.8463e-05,0
0.401,2.3835e-05,0
0.4015,2.6688e-05,0
0.402,2.8367e-05,0
0.4025,2.9374e-05,0
0.403,2.8702e-05,0
0.4035,2.652e-05,0
0.404,2.4338e-05,0
0.4045,2.1149e-05,0
0.405,1.796e-05,0
0.4055,1.6953e-05,0
0.406,2.0142e-05,0
0.4065,2.266e-05,0
0.407,2.3835e-05,0
0.4075,2.6017e-05,0
0.408,2.6352e-05,0
0.4085,2.3499e-05,0
0.409,2.031e-05,0
0.4095,1.5946e-05,0
0.41,1.6449e-05,0
0.4105,1.9638e-05,0
0.411,2.3331e-05,0
0.4115,2.3331e-05,0
0.412,2.1653e-05,0
0.4125,1.8631e-05,0
0.413,1.561e-05,0
0.4135,1.326e-05,0
0.414,9.2317e-06,0
0.4145,9.2317e-06,0
0.415,1.1917e-05,0
0.4155,1.4771e-05,0
0.416,1.796e-05,0
0.4165,1.7288e-05,0
0.417,1.3596e-05,0
0.4175,1.1582e-05,0
0.418,1.1414e-05,0
0.4185,1.5778e-05,0
0.419,2.3331e-05,0
0.4195,2.7024e-05,0
0.42,2.4002e-05,0
0.4205,2.031e-05,0
0.421,2.1317e-05,0
0.4215,2.1149e-05,0
0.422,2.031e-05,0
0.4225,1.947e-05,0
0.423,2.0981e-05,0
0.4235,2.1317e-05,0
0.424,1.6953e-05,0
0.4245,1.3092e-05,0
0.425,1.4939e-05,0
0.4255,2.0478e-05,0
0.426,2.3499e-05,0
0.4265,1.9638e-05,0
0.427,1.6953e-05,0
0.4275,1.9638e-05,0
0.428,2.2324e-05,0
0.4285,2.1317e-05,0
0.429,2.1317e-05,0
0.4295,2.1988e-05,0
0.43,2.1317e-05,0
0.4305,2.1317e-05,0
0.431,1.6953e-05,0
0.4315,9.7353e-06,0
0.432,8.5603e-06,0
0.4325,1.1582e-05,0
0.433,1.2757e-05,0
0.4335,1.5106e-05,0
0.434,1.7792e-05,0
0.4345,1.6617e-05,0
0.435,1.4603e-05,0
0.4355,1.4099e-05,0
0.436,1.6281e-05,0
0.4365,1.9638e-05,0
0.437,2.1317e-05,0
0.4375,1.9638e-05,0
0.438,1.7624e-05,0
0.4385,1.9974e-05,0
0.439,2.5681e-05,0
0.4395,2.9038e-05,0
0.44,2.8702e-05,0
0.4405,2.7359e-05,0
0.441,2.652e-05,0
0.4415,2.5681e-05,0
0.442,2.6017e-05,0
0.4425,2.652e-05,0
0.443,2.6688e-05,0
0.4435,2.5513e-05,0
0.444,2.3667e-05,0
0.4445,2.0646e-05,0
0.445,1.7288e-05,0
0.4455,1.5946e-05,0
0.446,1.7288e-05,0
0.4465,2.1149e-05,0
0.447,2.1485e-05,0
0.4475,1.2421e-05,0
0.448,5.8747e-06,0
0.4485,9.2317e-06,0
0.449,1.3596e-05,0
0.4495,1.6281e-05,0
0.45,2.1149e-05,0
0.4505,2.1317e-05,0
0.451,1.9135e-05,0
0.4515,1.796e-05,0
0.452,1.7288e-05,0
0.4525,1.7624e-05,0
0.453,1.8799e-05,0
0.4535,2.0813e-05,0
0.454,2.0478e-05,0
0.4545,1.8631e-05,0
0.455,2.031e-05,0
0.4555,2.0478e-05,0
0.456,1.9974e-05,0
0.4565,2.1317e-05,0
0.457,2.0981e-05,0
0.4575,1.9806e-05,0
0.458,1.8631e-05,0
0.4585,1.2924e-05,0
0.459,9.5674e-06,0
0.4595,1.4603e-05,0
0.46,1.3932e-05,0
0.4605,1.1917e-05,0
0.461,1.7288e-05,0
0.4615,1.9303e-05,0
0.462,1.796e-05,0
0.4625,1.6449e-05,0
0.463,1.7624e-05,0
0.4635,2.0646e-05,0
0.464,2.1988e-05,0
0.4645,2.2492e-05,0
0.465,2.2324e-05,0
0.4655,2.0646e-05,0
0.466,1.8631e-05,0
0.4665,1.8296e-05,0
0.467,1.9303e-05,0
0.4675,2.0981e-05,0
0.468,2.3331e-05,0
0.4685,2.3667e-05,0
0.469,2.0813e-05,0
0.4695,2.0646e-05,0
0.47,2.0981e-05,0
0.4705,2.1317e-05,0
0.471,2.5177e-05,0
0.4715,2.652e-05,0
0.472,2.2324e-05,0
0.4725,2.1653e-05,0
0.473,2.2492e-05,0
0.4735,2.2324e-05,0
0.474,2.0646e-05,0
0.4745,1.8967e-05,0
0.475,1.796e-05,0
0.4755,1.7624e-05,0
0.476,1.5946e-05,0
0.4765,1.2589e-05,0
0.477,1.0575e-05,0
0.4775,1.2253e-05,0
0.478,1.4267e-05,0
0.4785,1.5106e-05,0
0.479,1.6617e-05,0
0.4795,1.8296e-05,0
0.48,2.1317e-05,0
0.4805,2.7024e-05,0
0.481,2.9206e-05,0
0.4815,2.4002e-05,0
0.482,1.6953e-05,0
0.4825,1.4603e-05,0
0.483,1.3932e-05,0
0.4835,1.326e-05,0
0.484,1.6617e-05,0
0.4845,2.0646e-05,0
0.485,2.0646e-05,0
0.4855,1.9974e-05,0
0.486,1.9806e-05,0
0.4865,2.2324e-05,0
0.487,2.8702e-05,0
0.4875,3.0716e-05,0
0.488,2.9038e-05,0
0.4885,2.9877e-05,0
0.489,2.9038e-05,0
0.4895,2.3163e-05,0
0.49,1.796e-05,0
0.4905,1.4603e-05,0
0.491,1.5106e-05,0
0.4915,1.5946e-05,0
0.492,1.4267e-05,0
0.4925,1.2589e-05,0
0.493,1.1917e-05,0
0.4935,1.1917e-05,0
0.494,1.1582e-05,0
0.4945,1.0575e-05,0
0.495,7.7211e-06,0
0.4955,7.2175e-06,0
0.496,6.3783e-06,0
0.4965,7.5532e-06,0
0.497,1.326e-05,0
0.4975,1.326e-05,0
0.498,1.1917e-05,0
0.4985,1.7624e-05,0
0.499,2.0813e-05,0
0.4995,1.9135e-05,0
0.5,2.031e-05,0
0.5005,2.0813e-05,0
0.501,2.0981e-05,0
0.5015,2.1988e-05,0
0.502,2.0813e-05,0
0.5025,1.8128e-05,0
0.503,1.5946e-05,0
0.5035,1.3932e-05,0
0.504,1.6617e-05,0
0.5045,2.4338e-05,0
0.505,2.9709e-05,0
0.5055,3.0716e-05,0
0.506,2.6352e-05,0
0.5065,2.266e-05,0
0.507,2.1317e-05,0
0.5075,1.9974e-05,0
0.508,1.7288e-05,0
0.5085,1.8463e-05,0
0.509,1.5778e-05,0
0.5095,9.0639e-06,0
0.51,8.896e-06,0
0.5105,1.0239e-05,0
0.511,7.5532e-06,0
0.5115,7.2175e-06,0
0.512,1.2253e-05,0
0.5125,1.6281e-05,0
0.513,1.8631e-05,0
0.5135,1.7624e-05,0
0.514,1.6449e-05,0
0.5145,2.031e-05,0
0.515,2.5177e-05,0
0.5155,2.5681e-05,0
0.516,2.4338e-05,0
0.5165,2.5849e-05,0
0.517,2.9038e-05,0
0.5175,2.7695e-05,0
0.518,2.266e-05,0
0.5185,2.2995e-05,0
0.519,2.7695e-05,0
0.5195,2.6688e-05,0
0.52,2.4674e-05,0
0.5205,2.7192e-05,0
0.521,2.7359e-05,0
0.5215,2.417e-05,0
0.522,2.1653e-05,0
0.5225,1.8967e-05,0
0.523,1.8967e-05,0
0.5235,1.8967e-05,0
0.524,1.8967e-05,0
0.5245,1.8967e-05,0
0.525,1.6281e-05,0
0.5255,1.3092e-05,0
0.526,1.1582e-05,0
0.5265,1.2757e-05,0
0.527,1.8799e-05,0
0.5275,2.4002e-05,0
0.528,2.3331e-05,0
0.5285,1.9638e-05,0
0.529,1.7624e-05,0
0.5295,2.3499e-05,0
0.53,3.0045e-05,0
0.5305,3.0213e-05,0
0.531,2.5513e-05,0
0.5315,2.1317e-05,0
0.532,2.0142e-05,0
0.5325,2.1317e-05,0
0.533,2.2995e-05,0
0.5335,2.6688e-05,0
0.534,2.7024e-05,0
0.5345,2.417e-05,0
0.535,2.1988e-05,0
0.5355,1.9974e-05,0
0.536,2.0646e-05,0
0.5365,2.1317e-05,0
0.537,2.2324e-05,0
0.5375,2.5177e-05,0
0.538,2.6352e-05,0
0.5385,2.4002e-05,0
0.539,2.2324e-05,0
0.5395,2.3499e-05,0
0.54,2.5849e-05,0
0.5405,2.3163e-05,0
0.541,1.7624e-05,0
0.5415,1.6953e-05,0
0.542,1.8296e-05,0
0.5425,1.5274e-05,0
0.543,1.0575e-05,0
0.5435,7.8889e-06,0
0.544,7.8889e-06,0
0.5445,9.5674e-06,0
0.545,1.1582e-05,0
0.5455,1.1246e-05,0
0.546,1.1917e-05,0
0.5465,1.561e-05,0
0.547,1.6785e-05,0
0.5475,1.6953e-05,0
0.548,1.8296e-05,0
0.5485,1.796e-05,0
0.549,1.796e-05,0
0.5495,1.3932e-05,0
0.55,9.0639e-06,0
0.5505,9.5674e-06,0
0.551,1.2924e-05,0
0.5515,1.4603e-05,0
0.552,1.8631e-05,0
0.5525,2.2995e-05,0
0.553,2.652e-05,0
0.5535,2.7359e-05,0
0.554,2.3835e-05,0
0.5545,1.9638e-05,0
0.555,1.6617e-05,0
0.5555,1.5274e-05,0
0.556,1.5946e-05,0
0.5565,1.4939e-05,0
0.557,1.3932e-05,0
0.5575,1.1917e-05,0
0.558,8.7282e-06,0
0.5585,6.8818e-06,0
0.559,5.539e-06,0
0.5595,7.7211e-06,0
0.56,1.091e-05,0
0.5605,1.091e-05,0
0.561,9.9031e-06,0
0.5615,1.1582e-05,0
0.562,1.2589e-05,0
0.5625,1.091e-05,0
0.563,1.091e-05,0
0.5635,1.796e-05,0
0.564,2.3667e-05,0
0.5645,2.7024e-05,0
0.565,3.0716e-05,0
0.5655,3.0045e-05,0
0.566,2.4506e-05,0
0.5665,2.0646e-05,0
0.567,2.2324e-05,0
0.5675,2.2492e-05,0
0.568,2.0478e-05,0
0.5685,2.1317e-05,0
0.569,2.3667e-05,0
0.5695,2.3667e-05,0
0.57,2.0813e-05,0
0.5705,1.8631e-05,0
0.571,1.8296e-05,0
0.5715,1.4771e-05,0
0.572,1.1414e-05,0
0.5725,1.1414e-05,0
0.573,1.3764e-05,0
0.5735,1.6281e-05,0
0.574,1.4099e-05,0
0.5745,1.1078e-05,0
0.575,1.2924e-05,0
0.5755,1.4939e-05,0
0.576,1.6281e-05,0
0.5765,1.8296e-05,0
0.577,1.7121e-05,0
0.5775,1.6953e-05,0
0.578,1.9974e-05,0
0.5785,2.0981e-05,0
0.579,2.3835e-05,0
0.5795,2.652e-05,0
0.58,2.8702e-05,0
0.5805,3.0381e-05,0
0.581,2.7359e-05,0
0.5815,2.4842e-05,0
0.582,2.7695e-05,0
0.5825,3.0716e-05,0
0.583,3.2059e-05,0
0.5835,3.1388e-05,0
0.584,2.7359e-05,0
0.5845,2.1149e-05,0
0.585,1.5946e-05,0
0.5855,1.6617e-05,0
0.586,1.9303e-05,0
0.5865,2.1988e-05,0
0.587,2.3835e-05,0
0.5875,2.3499e-05,0
0.588,2.4002e-05,0
0.5885,1.9974e-05,0
0.589,1.2924e-05,0
0.5895,1.3932e-05,0
0.59,1.9303e-05,0
0.5905,1.9135e-05,0
0.591,1.8967e-05,0
0.5915,2.1317e-05,0
0.592,2.4002e-05,0
0.5925,2.4506e-05,0
0.593,2.2995e-05,0
0.5935,2.1317e-05,0
0.594,2.1317e-05,0
0.5945,2.2492e-05,0
0.595,2.4506e-05,0
0.5955,2.5009e-05,0
0.596,2.4842e-05,0
0.5965,2.5681e-05,0
0.597,2.1988e-05,0
0.5975,1.9135e-05,0
0.598,2.1317e-05,0
0.5985,2.3835e-05,0
0.599,2.7024e-05,0
0.5995,3.2731e-05,0
0.6,3.2563e-05,0
0.6005,2.7359e-05,0
0.601,2.417e-05,0
0.6015,2.2995e-05,0
0.602,2.182e-05,0
0.6025,2.1317e-05,0
0.603,1.8967e-05,0
0.6035,1.4603e-05,0
0.604,1.1917e-05,0
0.6045,1.3764e-05,0
0.605,1.8799e-05,0
0.6055,2.266e-05,0
0.606,2.4338e-05,0
0.6065,2.031e-05,0
0.607,1.4603e-05,0
0.6075,1.2421e-05,0
0.608,1.3932e-05,0
0.6085,1.7288e-05,0
0.609,1.8296e-05,0
0.6095,1.4267e-05,0
0.61,1.5274e-05,0
0.6105,2.182e-05,0
0.611,2.5345e-05,0
0.6115,2.4338e-05,0
0.612,2.5345e-05,0
0.6125,2.8031e-05,0
0.613,2.3163e-05,0
0.6135,1.7288e-05,0
0.614,1.8296e-05,0
0.6145,1.9974e-05,0
0.615,2.1317e-05,0
0.6155,2.3835e-05,0
0.616,2.3667e-05,0
0.6165,2.1317e-05,0
0.617,1.8967e-05,0
0.6175,1.8631e-05,0
0.618,2.2492e-05,0
0.6185,2.7527e-05,0
0.619,2.9374e-05,0
0.6195,2.7359e-05,0
0.62,2.4842e-05,0
0.6205,2.2492e-05,0
0.621,1.7624e-05,0
0.6215,1.4939e-05,0
0.622,1.4603e-05,0
0.6225,1.2589e-05,0
0.623,1.1078e-05,0
0.6235,1.0575e-05,0
0.624,9.9031e-06,0
0.6245,8.896e-06,0
0.625,9.2317e-06,0
0.6255,1.1078e-05,0
0.626,1.1749e-05,0
0.6265,1.2589e-05,0
0.627,1.6617e-05,0
0.6275,2.0478e-05,0
0.628,2.1653e-05,0
0.6285,2.266e-05,0
0.629,2.1317e-05,0
0.6295,1.9974e-05,0
0.63,1.9135e-05,0
0.6305,1.7288e-05,0
0.631,1.7792e-05,0
0.6315,2.1988e-05,0
0.632,2.3667e-05,0
0.6325,2.031e-05,0
0.633,1.796e-05,0
0.6335,1.9303e-05,0
0.634,2.2156e-05,0
0.6345,2.266e-05,0
0.635,1.9974e-05,0
0.6355,1.4603e-05,0
0.636,1.1917e-05,0
0.6365,1.2589e-05,0
0.637,1.3596e-05,0
0.6375,1.2085e-05,0
0.638,8.7282e-06,0
0.6385,8.2246e-06,0
0.639,5.2033e-06,0
0.6395,1.8463e-06,0
0.64,2.3499e-06,0
0.6405,3.6927e-06,0
0.641,4.1962e-06,0
0.6415,7.2175e-06,0
0.642,1.2757e-05,0
0.6425,1.5106e-05,0
0.643,1.3932e-05,0
0.6435,1.5946e-05,0
0.644,2.0981e-05,0
0.6445,2.0478e-05,0
0.645,1.7624e-05,0
0.6455,1.7624e-05,0
0.646,1.9974e-05,0
0.6465,2.5009e-05,0
0.647,2.8534e-05,0
0.6475,2.7527e-05,0
0.648,2.2492e-05,0
0.6485,2.1988e-05,0
0.649,2.3835e-05,0
0.6495,2.266e-05,0
0.65,1.9974e-05,0
0.6505,1.9638e-05,0
0.651,1.9806e-05,0
0.6515,1.8967e-05,0
0.652,1.4603e-05,0
0.6525,9.0639e-06,0
0.653,8.2246e-06,0
0.6535,7.5532e-06,0
0.654,7.7211e-06,0
0.6545,9.5674e-06,0
0.655,1.0575e-05,0
0.6555,1.3764e-05,0
0.656,2.0478e-05,0
0.6565,2.4674e-05,0
0.657,2.9709e-05,0
0.6575,3.508e-05,0
0.658,3.5248e-05,0
0.6585,3.0884e-05,0
0.659,3.0549e-05,0
0.6595,3.1556e-05,0
0.66,3.0716e-05,0
0.6605,2.8031e-05,0
0.661,2.3331e-05,0
0.6615,1.8967e-05,0
0.662,1.6281e-05,0
0.6625,1.6953e-05,0
0.663,1.9303e-05,0
0.6635,2.2995e-05,0
0.664,2.1317e-05,0
0.6645,1.5946e-05,0
0.665,1.1917e-05,0
0.6655,1.0575e-05,0
0.666,1.1246e-05,0
0.6665,1.3092e-05,0
0.667,1.4603e-05,0
0.6675,1.8128e-05,0
0.668,1.9638e-05,0
0.6685,1.796e-05,0
0.669,1.9806e-05,0
0.6695,2.1988e-05,0
0.67,2.4842e-05,0
0.6705,2.8534e-05,0
0.671,2.9877e-05,0
0.6715,2.7192e-05,0
0.672,2.3499e-05,0
0.6725,2.5009e-05,0
0.673,2.5345e-05,0
0.6735,2.1149e-05,0
0.674,2.1317e-05,0
0.6745,2.6688e-05,0
0.675,2.8367e-05,0
0.6755,2.5345e-05,0
0.676,2.1317e-05,0
0.6765,2.0646e-05,0
0.677,2.0981e-05,0
0.6775,2.0981e-05,0
0.678,1.8631e-05,0
0.6785,1.796e-05,0
0.679,2.0646e-05,0
0.6795,2.0981e-05,0
0.68,2.031e-05,0
0.6805,2.1988e-05,0
0.681,2.1317e-05,0
0.6815,2.182e-05,0
0.682,2.7192e-05,0
0.6825,2.6688e-05,0
0.683,2.1317e-05,0
0.6835,1.9638e-05,0
0.684,2.0981e-05,0
0.6845,2.2995e-05,0
0.685,2.5345e-05,0
0.6855,2.8031e-05,0
0.686,2.652e-05,0
0.6865,2.0478e-05,0
0.687,1.9135e-05,0
0.6875,2.0813e-05,0
0.688,2.0813e-05,0
0.6885,1.947e-05,0
0.689,1.7456e-05,0
0.6895,1.7456e-05,0
0.69,1.8967e-05,0
0.6905,1.6617e-05,0
0.691,1.1582e-05,0
0.6915,6.3783e-06,0
0.692,5.8747e-06,0
0.6925,6.0426e-06,0
0.693,3.1891e-06,0
0.6935,4.5319e-06,0
0.694,7.2175e-06,0
0.6945,6.5461e-06,0
0.695,7.5532e-06,0
0.6955,1.0407e-05,0
0.696,1.7288e-05,0
0.6965,2.4674e-05,0
0.697,2.4002e-05,0
0.6975,1.9806e-05,0
0.698,1.947e-05,0
0.6985,2.031e-05,0
0.699,1.9135e-05,0
0.6995,1.9303e-05,0
0.7,2.182e-05,0
0.7005,2.4002e-05,0
0.701,2.4338e-05,0
0.7015,2.1988e-05,0
0.702,1.9638e-05,0
0.7025,1.947e-05,0
0.703,1.6617e-05,0
0.7035,1.2589e-05,0
0.704,9.9031e-06,0
0.7045,7.0497e-06,0
0.705,5.539e-06,0
0.7055,5.539e-06,0
0.706,8.2246e-06,0
0.7065,1.4939e-05,0
0.707,2.0813e-05,0
0.7075,2.1317e-05,0
0.708,1.9974e-05,0
0.7085,1.9135e-05,0
0.709,2.266e-05,0
0.7095,2.5513e-05,0
0.71,2.5681e-05,0
0.7105,2.9206e-05,0
0.711,3.0381e-05,0
0.7115,2.7024e-05,0
0.712,2.5681e-05,0
0.7125,2.7695e-05,0
0.713,2.7192e-05,0
0.7135,2.031e-05,0
0.714,1.5946e-05,0
0.7145,1.4603e-05,0
0.715,1.6281e-05,0
0.7155,2.0646e-05,0
0.716,2.0142e-05,0
0.7165,1.6953e-05,0
0.717,1.1917e-05,0
0.7175,6.8818e-06,0
0.718,6.3783e-06,0
0.7185,9.3996e-06,0
0.719,8.896e-06,0
0.7195,1.0071e-05,0
0.72,1.2253e-05,0
0.7205,1.0407e-05,0
0.721,8.5603e-06,0
0.7215,1.1917e-05,0
0.722,1.6953e-05,0
0.7225,1.7792e-05,0
0.723,1.7288e-05,0
0.7235,1.9638e-05,0
0.724,2.0478e-05,0
0.7245,1.7792e-05,0
0.725,1.7288e-05,0
0.7255,2.0981e-05,0
0.726,2.3331e-05,0
0.7265,2.2995e-05,0
0.727,2.5345e-05,0
0.7275,2.9709e-05,0
0.728,3.122e-05,0
0.7285,3.0045e-05,0
0.729,2.7359e-05,0
0.7295,2.4506e-05,0
0.73,2.0646e-05,0
0.7305,1.9303e-05,0
0.731,1.9303e-05,0
0.7315,1.5442e-05,0
0.732,1.2589e-05,0
0.7325,2.031e-05,0
0.733,2.7695e-05,0
0.7335,2.6352e-05,0
0.734,2.0981e-05,0
0.7345,1.5946e-05,0
0.735,1.6281e-05,0
0.7355,1.8128e-05,0
0.736,1.7624e-05,0
0.7365,1.7624e-05,0
0.737,2.1149e-05,0
0.7375,2.6688e-05,0
0.738,2.8702e-05,0
0.7385,2.5009e-05,0
0.739,2.3667e-05,0
0.7395,2.3667e-05,0
0.74,2.182e-05,0
0.7405,2.2995e-05,0
0.741,2.5177e-05,0
0.7415,2.4842e-05,0
0.742,2.4002e-05,0
0.7425,2.1988e-05,0
0.743,1.7288e-05,0
0.7435,1.3596e-05,0
0.744,1.8631e-05,0
0.7445,2.5681e-05,0
0.745,2.7359e-05,0
0.7455,2.3835e-05,0
0.746,1.8967e-05,0
0.7465,1.561e-05,0
0.747,1.561e-05,0
0.7475,1.7121e-05,0
0.748,1.6281e-05,0
0.7485,1.4939e-05,0
0.749,1.7456e-05,0
0.7495,2.0142e-05,0
0.75,1.6785e-05,0
0.7505,1.3764e-05,0
0.751,1.1917e-05,0
0.7515,1.0239e-05,0
0.752,9.9031e-06,0
0.7525,1.0407e-05,0
0.753,1.091e-05,0
0.7535,1.2253e-05,0
0.754,1.5946e-05,0
0.7545,1.7288e-05,0
0.755,1.4603e-05,0
0.7555,1.5442e-05,0
0.756,1.9135e-05,0
0.7565,2.1317e-05,0
0.757,2.2995e-05,0
0.7575,2.4002e-05,0
0.758,2.4002e-05,0
0.7585,2.4002e-05,0
0.759,2.1317e-05,0
0.7595,2.1988e-05,0
0.76,2.7359e-05,0
0.7605,2.8367e-05,0
0.761,2.5345e-05,0
0.7615,2.7359e-05,0
0.762,3.0381e-05,0
0.7625,3.2059e-05,0
0.763,3.2563e-05,0
0.7635,3.3234e-05,0
0.764,3.4409e-05,0
0.7645,3.2395e-05,0
0.765,2.9709e-05,0
0.7655,2.6688e-05,0
0.766,2.4338e-05,0
0.7665,2.2324e-05,0
0.767,1.947e-05,0
0.7675,1.5946e-05,0
0.768,1.1414e-05,0
0.7685,8.5603e-06,0
0.769,1.0407e-05,0
0.7695,1.4435e-05,0
0.77,1.8296e-05,0
0.7705,2.0646e-05,0
0.771,1.8631e-05,0
0.7715,1.8967e-05,0
0.772,1.9303e-05,0
0.7725,1.4939e-05,0
0.773,1.561e-05,0
0.7735,2.182e-05,0
0.774,2.3667e-05,0
0.7745,2.1317e-05,0
0.775,1.7121e-05,0
0.7755,1.2589e-05,0
0.776,1.3932e-05,0
0.7765,1.7288e-05,0
0.777,2.1653e-05,0
0.7775,2.182e-05,0
0.778,1.8463e-05,0
0.7785,1.5946e-05,0
0.779,1.4939e-05,0
0.7795,1.796e-05,0
0.78,1.9806e-05,0
0.7805,2.0646e-05,0
0.781,1.6449e-05,0
0.7815,1.1749e-05,0
0.782,1.1246e-05,0
0.7825,1.1749e-05,0
0.783,1.1246e-05,0
0.7835,1.0575e-05,0
0.784,9.3996e-06,0
0.7845,1.3764e-05,0
0.785,1.7288e-05,0
0.7855,1.5106e-05,0
0.786,1.6281e-05,0
0.7865,1.5946e-05,0
0.787,1.326e-05,0
0.7875,1.6785e-05,0
0.788,2.3835e-05,0
0.7885,2.6017e-05,0
0.789,2.5681e-05,0
0.7895,2.4338e-05,0
0.79,2.4674e-05,0
0.7905,2.4002e-05,0
0.791,2.266e-05,0
0.7915,2.1317e-05,0
0.792,2.266e-05,0
0.7925,2.3835e-05,0
0.793,2.266e-05,0
0.7935,1.796e-05,0
0.794,1.5946e-05,0
0.7945,1.5274e-05,0
0.795,1.1917e-05,0
0.7955,1.0239e-05,0
0.796,1.4939e-05,0
0.7965,1.8296e-05,0
0.797,1.7456e-05,0
0.7975,1.4939e-05,0
0.798,1.5778e-05,0
0.7985,1.796e-05,0
0.799,1.8967e-05,0
0.7995,1.8967e-05,0
0.8,2.031e-05,0
0.8005,2.2492e-05,0
0.801,2.4674e-05,0
0.8015,2.3835e-05,0
0.802,1.9303e-05,0
0.8025,1.8128e-05,0
0.803,1.6449e-05,0
0.8035,1.4267e-05,0
0.804,1.6449e-05,0
0.8045,2.0646e-05,0
0.805,2.266e-05,0
0.8055,2.1149e-05,0
0.806,1.6449e-05,0
0.8065,1.2589e-05,0
0.807,1.1749e-05,0
0.8075,1.561e-05,0
0.808,1.8631e-05,0
0.8085,2.0478e-05,0
0.809,2.2156e-05,0
0.8095,2.1317e-05,0
0.81,1.9303e-05,0
0.8105,1.6617e-05,0
0.811,1.5778e-05,0
0.8115,1.4603e-05,0
0.812,1.4435e-05,0
0.8125,1.8631e-05,0
0.813,2.3331e-05,0
0.8135,2.4674e-05,0
0.814,2.4674e-05,0
0.8145,2.2324e-05,0
0.815,1.5106e-05,0
0.8155,9.9031e-06,0
0.816,1.2924e-05,0
0.8165,1.5778e-05,0
0.817,1.4939e-05,0
0.8175,9.3996e-06,0
0.818,2.3499e-06,0
0.8185,6.3783e-06,0
0.819,1.4603e-05,0
0.8195,1.9303e-05,0
0.82,2.1653e-05,0
0.8205,1.9806e-05,0
0.821,1.4939e-05,0
0.8215,1.0575e-05,0
0.822,1.326e-05,0
0.8225,1.9806e-05,0
0.823,2.2324e-05,0
0.8235,2.3331e-05,0
0.824,2.182e-05,0
0.8245,1.7624e-05,0
0.825,1.6785e-05,0
0.8255,1.6449e-05,0
0.826,1.4435e-05,0
0.8265,1.2757e-05,0
0.827,1.3932e-05,0
0.8275,1.3932e-05,0
0.828,1.5274e-05,0
0.8285,1.947e-05,0
0.829,1.9303e-05,0
0.8295,1.7624e-05,0
0.83,1.6953e-05,0
0.8305,1.7624e-05,0
0.831,1.7792e-05,0
0.8315,1.8631e-05,0
0.832,2.0813e-05,0
0.8325,2.1988e-05,0
0.833,1.9303e-05,0
0.8335,1.5442e-05,0
0.834,1.4603e-05,0
0.8345,1.8799e-05,0
0.835,2.5513e-05,0
0.8355,2.9709e-05,0
0.836,2.8031e-05,0
0.8365,2.7359e-05,0
0.837,2.9038e-05,0
0.8375,2.9374e-05,0
0.838,2.8031e-05,0
0.8385,2.5681e-05,0
0.839,2.5345e-05,0
0.8395,2.5009e-05,0
0.84,2.7359e-05,0
0.8405,3.1052e-05,0
0.841,3.122e-05,0
0.8415,2.7863e-05,0
0.842,2.4506e-05,0
0.8425,2.1317e-05,0
0.843,1.8631e-05,0
0.8435,2.0813e-05,0
0.844,2.2995e-05,0
0.8445,2.0981e-05,0
0.845,1.9303e-05,0
0.8455,2.3163e-05,0
0.846,2.7192e-05,0
0.8465,2.6184e-05,0
0.847,2.3499e-05,0
0.8475,2.0646e-05,0
0.848,1.9303e-05,0
0.8485,1.8631e-05,0
0.849,1.4267e-05,0
0.8495,1.2589e-05,0
0.85,1.4099e-05,0
0.8505,1.5946e-05,0
0.851,1.8296e-05,0
0.8515,2.031e-05,0
0.852,2.2324e-05,0
0.8525,2.4338e-05,0
0.853,2.3667e-05,0
0.8535,2.0813e-05,0
0.854,1.5946e-05,0
0.8545,1.2589e-05,0
0.855,1.4939e-05,0
0.8555,1.796e-05,0
0.856,1.8799e-05,0
0.8565,1.9135e-05,0
0.857,2.031e-05,0
0.8575,2.0813e-05,0
0.858,1.8967e-05,0
0.8585,1.947e-05,0
0.859,1.9974e-05,0
0.8595,1.9303e-05,0
0.86,1.6281e-05,0
0.8605,9.2317e-06,0
0.861,6.2104e-06,0
0.8615,6.8818e-06,0
0.862,7.5532e-06,0
0.8625,1.2589e-05,0
0.863,1.796e-05,0
0.8635,1.796e-05,0
0.864,1.6281e-05,0
0.8645,1.3932e-05,0
0.865,1.6617e-05,0
0.8655,2.0981e-05,0
0.866,2.266e-05,0
0.8665,2.0813e-05,0
0.867,1.9974e-05,0
0.8675,2.0813e-05,0
0.868,1.8631e-05,0
0.8685,1.5946e-05,0
0.869,1.796e-05,0
0.8695,2.031e-05,0
0.87,1.8296e-05,0
0.8705,1.561e-05,0
0.871,1.6449e-05,0
0.8715,1.9303e-05,0
0.872,2.1317e-05,0
0.8725,2.3499e-05,0
0.873,1.9974e-05,0
0.8735,1.3596e-05,0
0.874,1.2589e-05,0
0.8745,1.6281e-05,0
0.875,1.6281e-05,0
0.8755,1.5274e-05,0
0.876,1.561e-05,0
0.8765,1.6281e-05,0
0.877,1.8296e-05,0
0.8775,2.2492e-05,0
0.878,2.6017e-05,0
0.8785,2.7192e-05,0
0.879,2.4506e-05,0
0.8795,1.796e-05,0
0.88,1.2924e-05,0
0.8805,1.7288e-05,0
0.881,2.3499e-05,0
0.8815,2.3331e-05,0
0.882,2.0142e-05,0
0.8825,1.9974e-05,0
0.883,2.3667e-05,0
0.8835,2.6017e-05,0
0.884,2.1317e-05,0
0.8845,1.6617e-05,0
0.885,1.5274e-05,0
0.8855,1.7288e-05,0
0.886,1.7456e-05,0
0.8865,1.6281e-05,0
0.887,1.9135e-05,0
0.8875,2.3667e-05,0
0.888,2.4506e-05,0
0.8885,2.8199e-05,0
0.889,3.0045e-05,0
0.8895,2.7359e-05,0
0.89,2.3667e-05,0
0.8905,2.4506e-05,0
0.891,2.7359e-05,0
0.8915,2.4002e-05,0
0.892,2.1317e-05,0
0.8925,2.5009e-05,0
0.893,2.9374e-05,0
0.8935,2.6688e-05,0
0.894,2.2324e-05,0
0.8945,1.8967e-05,0
0.895,1.2589e-05,0
0.8955,7.8889e-06,0
0.896,1.1582e-05,0
0.8965,1.7288e-05,0
0.897,1.6785e-05,0
0.8975,1.326e-05,0
0.898,8.5603e-06,0
0.8985,8.5603e-06,0
0.899,1.3764e-05,0
0.8995,1.7624e-05,0
0.9,1.9303e-05,0
0.9005,1.8128e-05,0
0.901,1.5946e-05,0
0.9015,1.796e-05,0
0.902,2.031e-05,0
0.9025,2.1149e-05,0
0.903,2.2492e-05,0
0.9035,2.4002e-05,0
0.904,2.6688e-05,0
0.9045,2.7359e-05,0
0.905,2.7024e-05,0
0.9055,2.9374e-05,0
0.906,3.1388e-05,0
0.9065,2.9374e-05,0
0.907,2.6688e-05,0
0.9075,2.2995e-05,0
0.908,1.9135e-05,0
0.9085,1.9806e-05,0
0.909,2.5345e-05,0
0.9095,2.6352e-05,0
0.91,2.1653e-05,0
0.9105,1.5274e-05,0
0.911,1.0575e-05,0
0.9115,1.0239e-05,0
0.912,9.9031e-06,0
0.9125,8.5603e-06,0
0.913,1.2253e-05,0
0.9135,1.796e-05,0
0.914,1.9135e-05,0
0.9145,1.6617e-05,0
0.915,1.2589e-05,0
0.9155,1.1246e-05,0
0.916,1.4099e-05,0
0.9165,1.5946e-05,0
0.917,1.4603e-05,0
0.9175,1.7288e-05,0
0.918,2.266e-05,0
0.9185,2.4674e-05,0
0.919,2.6017e-05,0
0.9195,2.7695e-05,0
0.92,2.6184e-05,0
0.9205,2.266e-05,0
0.921,2.0981e-05,0
0.9215,2.4002e-05,0
0.922,2.8031e-05,0
0.9225,3.1388e-05,0
0.923,3.2563e-05,0
0.9235,2.8367e-05,0
0.924,2.1653e-05,0
0.9245,1.7121e-05,0
0.925,1.3596e-05,0
0.9255,1.2085e-05,0
0.926,1.2924e-05,0
0.9265,1.1582e-05,0
0.927,8.5603e-06,0
0.9275,9.5674e-06,0
0.928,7.2175e-06,0
0.9285,1.0071e-06,0
0.929,3.357e-07,0
0.9295,1.0239e-05,0
0.93,1.8296e-05,0
0.9305,1.5946e-05,0
0.931,1.2253e-05,0
0.9315,1.5946e-05,0
0.932,1.9303e-05,0
0.9325,2.031e-05,0
0.933,2.0142e-05,0
0.9335,1.8631e-05,0
0.934,1.796e-05,0
0.9345,1.7624e-05,0
0.935,1.5946e-05,0
0.9355,1.4099e-05,0
0.936,1.3428e-05,0
0.9365,1.5946e-05,0
0.937,1.8631e-05,0
0.9375,2.2324e-05,0
0.938,2.4002e-05,0
0.9385,2.266e-05,0
0.939,2.1988e-05,0
0.9395,1.947e-05,0
0.94,1.3932e-05,0
0.9405,1.6617e-05,0
0.941,2.3163e-05,0
0.9415,2.3667e-05,0
0.942,2.1317e-05,0
0.9425,1.8631e-05,0
0.943,1.561e-05,0
0.9435,1.8967e-05,0
0.944,2.0981e-05,0
0.9445,1.6617e-05,0
0.945,1.5442e-05,0
0.9455,1.8799e-05,0
0.946,2.2995e-05,0
0.9465,2.6352e-05,0
0.947,2.6688e-05,0
0.9475,2.7359e-05,0
0.948,2.7024e-05,0
0.9485,2.5009e-05,0
0.949,2.2492e-05,0
0.9495,2.182e-05,0
0.95,2.1317e-05,0
0.9505,2.266e-05,0
0.951,2.3331e-05,0
0.9515,2.4338e-05,0
0.952,2.7527e-05,0
0.9525,2.9374e-05,0
0.953,2.6352e-05,0
0.9535,2.1149e-05,0
0.954,1.9638e-05,0
0.9545,2.0981e-05,0
0.955,2.0813e-05,0
0.9555,2.1149e-05,0
0.956,2.4002e-05,0
0.9565,2.5345e-05,0
0.957,1.8799e-05,0
0.9575,1.3596e-05,0
0.958,1.3932e-05,0
0.9585,1.5778e-05,0
0.959,1.6953e-05,0
0.9595,1.4603e-05,0
0.96,1.3596e-05,0
0.9605,1.5946e-05,0
0.961,1.796e-05,0
0.9615,1.7288e-05,0
0.962,1.9638e-05,0
0.9625,2.0981e-05,0
0.963,1.6953e-05,0
0.9635,1.1246e-05,0
0.964,4.5319e-06,0
0.9645,6.714e-07,0
0.965,8.2246e-06,0
0.9655,1.8967e-05,0
0.966,1.8631e-05,0
0.9665,1.1917e-05,0
0.967,1.1582e-05,0
0.9675,1.6617e-05,0
0.968,1.9303e-05,0
0.9685,2.1317e-05,0
0.969,2.417e-05,0
0.9695,2.6184e-05,0
0.97,2.7695e-05,0
0.9705,2.5177e-05,0
0.971,2.0813e-05,0
0.9715,1.9974e-05,0
0.972,2.0646e-05,0
0.9725,2.0478e-05,0
0.973,2.0646e-05,0
0.9735,2.3331e-05,0
0.974,2.5681e-05,0
0.9745,2.5345e-05,0
0.975,1.9974e-05,0
0.9755,1.4267e-05,0
0.976,1.1078e-05,0
0.9765,1.5106e-05,0
0.977,1.8631e-05,0
0.9775,1.5274e-05,0
0.978,1.2253e-05,0
0.9785,1.2589e-05,0
0.979,1.3764e-05,0
0.9795,2.182e-05,0
0.98,2.7863e-05,0
0.9805,2.5177e-05,0
0.981,2.3163e-05,0
0.9815,2.4002e-05,0
0.982,2.4338e-05,0
0.9825,2.3331e-05,0
0.983,2.2995e-05,0
0.9835,2.5345e-05,0
0.984,2.7024e-05,0
0.9845,2.6352e-05,0
0.985,2.3499e-05,0
0.9855,1.9303e-05,0
0.986,1.9135e-05,0
0.9865,2.2995e-05,0
0.987,2.4506e-05,0
0.9875,2.2995e-05,0
0.988,2.1988e-05,0
0.9885,2.0646e-05,0
0.989,1.7624e-05,0
0.9895,1.7624e-05,0
0.99,1.6449e-05,0
0.9905,1.3092e-05,0
0.991,1.1246e-05,0
0.9915,1.0407e-05,0
0.992,9.5674e-06,0
0.9925,1.1414e-05,0
0.993,1.4603e-05,0
0.9935,1.5442e-05,0
0.994,1.4771e-05,0
0.9945,1.5442e-05,0
0.995,1.5946e-05,0
0.9955,1.5946e-05,0
0.996,1.326e-05,0
0.9965,1.326e-05,0
0.997,1.5106e-05,0
0.9975,1.8631e-05,0
0.998,2.0981e-05,0
0.9985,2.2324e-05,0
0.999,2.3331e-05,0
0.9995,2.0981e-05,0
1,1.6785e-05,0
1.0005,1.5274e-05,0
1.001,1.7624e-05,0
1.0015,2.1317e-05,0
1.002,2.7024e-05,0
1.0025,2.7863e-05,0
1.003,2.0646e-05,0
1.0035,1.7288e-05,0
1.004,1.6617e-05,0
1.0045,1.5946e-05,0
1.005,1.4603e-05,0
1.0055,1.2757e-05,0
1.006,1.1246e-05,0
1.0065,1.2589e-05,0
1.007,1.5106e-05,0
1.0075,1.561e-05,0
1.008,1.5946e-05,0
1.0085,1.6953e-05,0
1.009,1.7288e-05,0
1.0095,1.8967e-05,0
1.01,2.0142e-05,0
1.0105,1.8296e-05,0
1.011,1.5946e-05,0
1.0115,1.6785e-05,0
1.012,1.8967e-05,0
1.0125,2.2492e-05,0
1.013,2.3499e-05,0
1.0135,2.266e-05,0
1.014,2.4506e-05,0
1.0145,2.652e-05,0
1.015,2.3331e-05,0
1.0155,1.796e-05,0
1.016,1.3764e-05,0
1.0165,9.7353e-06,0
1.017,9.2317e-06,0
1.0175,1.2589e-05,0
1.018,1.6953e-05,0
1.0185,2.0646e-05,0
1.019,2.1317e-05,0
1.0195,1.8296e-05,0
1.02,1.6617e-05,0
1.0205,1.7288e-05,0
1.021,2.1317e-05,0
1.0215,2.6688e-05,0
1.022,2.5177e-05,0
1.0225,1.9974e-05,0
1.023,1.8296e-05,0
1.0235,2.0646e-05,0
1.024,2.417e-05,0
1.0245,2.4842e-05,0
1.025,2.5009e-05,0
1.0255,2.4674e-05,0
1.026,2.266e-05,0
1.0265,2.0646e-05,0
1.027,2.417e-05,0
1.0275,2.6688e-05,0
1.028,2.4002e-05,0
1.0285,1.9974e-05,0
1.029,1.7288e-05,0
1.0295,1.6953e-05,0
1.03,1.9638e-05,0
1.0305,2.4674e-05,0
1.031,2.6688e-05,0
1.0315,2.7695e-05,0
1.032,2.887e-05,0
1.0325,3.0716e-05,0
1.033,3.1891e-05,0
1.0335,2.8199e-05,0
1.034,2.5345e-05,0
1.0345,2.5681e-05,0
1.035,2.9374e-05,0
1.0355,3.0045e-05,0
1.036,2.7359e-05,0
1.0365,2.7527e-05,0
1.037,2.8702e-05,0
1.0375,2.4674e-05,0
1.038,1.947e-05,0
1.0385,1.7624e-05,0
1.039,1.7288e-05,0
1.0395,1.4435e-05,0
1.04,8.5603e-06,0
1.0405,1.8463e-06,0
1.041,-8.392e-07,0
1.0415,2.3499e-06,0
1.042,4.5319e-06,0
1.0425,8.2246e-06,0
1.043,1.4771e-05,0
1.0435,1.6953e-05,0
1.044,1.3932e-05,0
1.0445,1.326e-05,0
1.045,1.6617e-05,0
1.0455,1.7624e-05,0
1.046,2.1317e-05,0
1.0465,2.5009e-05,0
1.047,2.3835e-05,0
1.0475,2.2492e-05,0
1.048,2.6688e-05,0
1.0485,3.0045e-05,0
1.049,2.6688e-05,0
1.0495,2.5009e-05,0
1.05,2.652e-05,0
1.0505,2.7695e-05,0
1.051,2.8702e-05,0
1.0515,2.5345e-05,0
1.052,1.8296e-05,0
1.0525,1.6281e-05,0
1.053,1.6617e-05,0
1.0535,1.6617e-05,0
1.054,1.1246e-05,0
1.0545,6.5461e-06,0
1.055,7.2175e-06,0
1.0555,1.0575e-05,0
1.056,1.2589e-05,0
1.0565,7.5532e-06,0
1.057,4.5319e-06,0
1.0575,8.5603e-06,0
1.058,1.0239e-05,0
1.0585,9.0639e-06,0
1.059,1.1917e-05,0
1.0595,1.3428e-05,0
1.06,1.3764e-05,0
1.0605,1.5274e-05,0
1.061,1.6953e-05,0
1.0615,1.9806e-05,0
1.062,2.1149e-05,0
1.0625,1.9638e-05,0
1.063,2.0142e-05,0
1.0635,2.266e-05,0
1.064,2.4506e-05,0
1.0645,2.3835e-05,0
1.065,1.9806e-05,0
1.0655,1.4939e-05,0
1.066,1.6449e-05,0
1.0665,2.0646e-05,0
1.067,1.8631e-05,0
1.0675,1.5778e-05,0
1.068,1.2924e-05,0
1.0685,1.2253e-05,0
1.069,1.5946e-05,0
1.0695,1.7288e-05,0
1.07,1.4939e-05,0
1.0705,1.6953e-05,0
1.071,1.8631e-05,0
1.0715,1.7288e-05,0
1.072,1.6617e-05,0
1.0725,1.8631e-05,0
1.073,2.1988e-05,0
1.0735,2.6688e-05,0
1.074,2.8031e-05,0
1.0745,2.7527e-05,0
1.075,2.3667e-05,0
1.0755,1.8631e-05,0
1.076,1.326e-05,0
1.0765,1.2589e-05,0
1.077,1.9135e-05,0
1.0775,2.652e-05,0
1.078,3.0716e-05,0
1.0785,2.9038e-05,0
1.079,2.3331e-05,0
1.0795,2.2995e-05,0
1.08,2.5177e-05,0
1.0805,2.6688e-05,0
1.081,2.3667e-05,0
1.0815,1.5946e-05,0
1.082,1.3764e-05,0
1.0825,1.6617e-05,0
1.083,1.9135e-05,0
1.0835,1.9806e-05,0
1.084,1.9303e-05,0
1.0845,2.182e-05,0
1.085,2.3835e-05,0
1.0855,2.1317e-05,0
1.086,2.0478e-05,0
1.0865,1.947e-05,0
1.087,1.5778e-05,0
1.0875,1.4603e-05,0
1.088,1.6953e-05,0
1.0885,1.8463e-05,0
1.089,1.9638e-05,0
1.0895,1.9638e-05,0
1.09,2.1317e-05,0
1.0905,2.031e-05,0
1.091,1.5946e-05,0
1.0915,1.3932e-05,0
1.092,1.561e-05,0
1.0925,2.2324e-05,0
1.093,2.266e-05,0
1.0935,1.8967e-05,0
1.094,1.6617e-05,0
1.0945,1.7792e-05,0
1.095,2.4338e-05,0
1.0955,2.7024e-05,0
1.096,2.3835e-05,0
1.0965,2.3667e-05,0
1.097,2.4338e-05,0
1.0975,2.0981e-05,0
1.098,1.796e-05,0
1.0985,1.5946e-05,0
1.099,1.8631e-05,0
1.0995,2.4674e-05,0
1.1,2.4002e-05,0
1.1005,2.0142e-05,0
1.101,1.7792e-05,0
1.1015,1.8463e-05,0
1.102,2.0646e-05,0
1.1025,1.7121e-05,0
1.103,1.2589e-05,0
1.1035,1.3092e-05,0
1.104,1.3764e-05,0
1.1045,1.1414e-05,0
1.105,7.8889e-06,0
1.1055,9.2317e-06,0
1.106,1.2589e-05,0
1.1065,1.2085e-05,0
1.107,1.1749e-05,0
1.1075,1.4603e-05,0
1.108,1.7121e-05,0
1.1085,1.7121e-05,0
1.109,1.4939e-05,0
1.1095,1.5442e-05,0
1.11,1.7624e-05,0
1.1105,2.182e-05,0
1.111,2.6352e-05,0
1.1115,2.887e-05,0
1.112,3.0716e-05,0
1.1125,3.0045e-05,0
1.113,2.8031e-05,0
1.1135,2.6184e-05,0
1.114,2.6352e-05,0
1.1145,2.6688e-05,0
1.115,2.7192e-05,0
1.1155,2.4002e-05,0
1.116,1.8967e-05,0
1.1165,1.6953e-05,0
1.117,1.7624e-05,0
1.1175,1.9135e-05,0
1.118,2.2324e-05,0
1.1185,2.2324e-05,0
1.119,1.947e-05,0
1.1195,1.8631e-05,0
1.12,1.5946e-05,0
1.1205,1.326e-05,0
1.121,1.2757e-05,0
1.1215,1.2253e-05,0
1.122,1.0575e-05,0
1.1225,1.1582e-05,0
1.123,1.1078e-05,0
1.1235,1.0407e-05,0
1.124,1.6617e-05,0
1.1245,2.3667e-05,0
1.125,2.6017e-05,0
1.1255,2.5345e-05,0
1.126,2.5513e-05,0
1.1265,2.5009e-05,0
1.127,2.266e-05,0
1.1275,2.3667e-05,0
1.128,2.4338e-05,0
1.1285,2.1988e-05,0
1.129,1.9974e-05,0
1.1295,2.2995e-05,0
1.13,2.4338e-05,0
1.1305,2.1988e-05,0
1.131,1.7624e-05,0
1.1315,1.5946e-05,0
1.132,1.7624e-05,0
1.1325,1.796e-05,0
1.133,1.5106e-05,0
1.1335,1.2253e-05,0
1.134,1.3932e-05,0
1.1345,1.4939e-05,0
1.135,1.1917e-05,0
1.1355,9.9031e-06,0
1.136,1.1246e-05,0
1.1365,1.3596e-05,0
1.137,1.3428e-05,0
1.1375,1.1582e-05,0
1.138,1.1582e-05,0
1.1385,1.3932e-05,0
1.139,1.7288e-05,0
1.1395,1.9974e-05,0
1.14,1.6281e-05,0
1.1405,1.4267e-05,0
1.141,1.5106e-05,0
1.1415,1.561e-05,0
1.142,1.6953e-05,0
1.1425,1.8463e-05,0
1.143,2.1317e-05,0
1.1435,2.5345e-05,0
1.144,2.5849e-05,0
1.1445,2.4002e-05,0
1.145,2.4002e-05,0
1.1455,2.7695e-05,0
1.146,2.8534e-05,0
1.1465,1.9303e-05,0
1.147,1.0071e-05,0
1.1475,6.5461e-06,0
1.148,8.5603e-06,0
1.1485,1.2421e-05,0
1.149,1.7288e-05,0
1.1495,2.1317e-05,0
1.15,2.6688e-05,0
1.1505,3.1052e-05,0
1.151,2.9374e-05,0
1.1515,2.4674e-05,0
1.152,2.2828e-05,0
1.1525,2.4002e-05,0
1.153,2.6017e-05,0
1.1535,2.4674e-05,0
1.154,2.0646e-05,0
1.1545,2.0142e-05,0
1.155,2.3163e-05,0
1.1555,2.3835e-05,0
1.156,2.1988e-05,0
1.1565,2.6352e-05,0
1.157,2.9709e-05,0
1.1575,2.7527e-05,0
1.158,2.5009e-05,0
1.1585,2.5681e-05,0
1.159,2.4674e-05,0
1.1595,2.266e-05,0
1.16,2.3331e-05,0
1.1605,2.3331e-05,0
1.161,2.7695e-05,0
1.1615,3.5248e-05,0
1.162,3.7095e-05,0
1.1625,3.2059e-05,0
1.163,2.5009e-05,0
1.1635,2.1317e-05,0
1.164,2.4674e-05,0
1.1645,2.8702e-05,0
1.165,2.7359e-05,0
1.1655,2.2324e-05,0
1.166,2.1317e-05,0
1.1665,2.7359e-05,0
1.167,3.0716e-05,0
1.1675,2.7863e-05,0
1.168,2.2324e-05,0
1.1685,1.8296e-05,0
1.169,1.5106e-05,0
1.1695,1.1917e-05,0
1.17,1.2589e-05,0
1.1705,1.3932e-05,0
1.171,1.2924e-05,0
1.1715,1.2757e-05,0
1.172,1.0575e-05,0
1.1725,9.5674e-06,0
1.173,1.2253e-05,0
1.1735,1.0575e-05,0
1.174,6.5461e-06,0
1.1745,1.1246e-05,0
1.175,1.8631e-05,0
1.1755,1.8296e-05,0
1.176,1.326e-05,0
1.1765,1.4603e-05,0
1.177,2.1317e-05,0
1.1775,2.7024e-05,0
1.178,2.5849e-05,0
1.1785,2.3331e-05,0
1.179,2.5681e-05,0
1.1795,2.4002e-05,0
1.18,1.7121e-05,0
1.1805,1.1917e-05,0
1.181,1.091e-05,0
1.1815,1.091e-05,0
1.182,1.0575e-05,0
1.1825,1.1917e-05,0
1.183,1.0575e-05,0
1.1835,8.5603e-06,0
1.184,6.5461e-06,0
1.1845,6.0426e-06,0
1.185,3.8605e-06,0
1.1855,-8.392e-07,0
1.186,-6.714e-07,0
1.1865,1.6785e-06,0
1.187,2.8534e-06,0
1.1875,4.3641e-06,0
1.188,5.2033e-06,0
1.1885,9.3996e-06,0
1.189,1.5778e-05,0
1.1895,1.6785e-05,0
1.19,1.6281e-05,0
1.1905,1.6449e-05,0
1.191,1.9303e-05,0
1.1915,2.5009e-05,0
1.192,2.5513e-05,0
1.1925,2.1988e-05,0
1.193,2.0646e-05,0
1.1935,2.3667e-05,0
1.194,2.6017e-05,0
1.1945,2.4842e-05,0
1.195,2.3331e-05,0
1.1955,2.2492e-05,0
1.196,2.1149e-05,0
1.1965,2.0981e-05,0
1.197,2.2156e-05,0
1.1975,2.5009e-05,0
1.198,2.4338e-05,0
1.1985,2.2492e-05,0
1.199,2.1149e-05,0
1.1995,1.9303e-05,0
1.2,2.1149e-05,0
1.2005,2.4338e-05,0
1.201,2.1988e-05,0
1.2015,1.6449e-05,0
1.202,1.561e-05,0
1.2025,1.7792e-05,0
1.203,2.1317e-05,0
1.2035,2.3835e-05,0
1.204,2.4002e-05,0
1.2045,2.6352e-05,0
1.205,3.0045e-05,0
1.2055,3.0716e-05,0
1.206,2.8534e-05,0
1.2065,2.7024e-05,0
1.207,2.6017e-05,0
1.2075,2.8367e-05,0
1.208,3.3402e-05,0
1.2085,3.508e-05,0
1.209,3.0716e-05,0
1.2095,2.6184e-05,0
1.21,2.3835e-05,0
1.2105,2.6688e-05,0
1.211,2.7695e-05,0
1.2115,2.4506e-05,0
1.212,2.4674e-05,0
1.2125,2.3667e-05,0
1.213,1.9806e-05,0
1.2135,1.9638e-05,0
1.214,2.1988e-05,0
1.2145,2.1653e-05,0
1.215,2.1317e-05,0
1.2155,1.9806e-05,0
1.216,2.0981e-05,0
1.2165,2.0646e-05,0
1.217,1.561e-05,0
1.2175,1.2589e-05,0
1.218,1.4267e-05,0
1.2185,1.7288e-05,0
1.219,1.561e-05,0
1.2195,1.1078e-05,0
1.22,9.0639e-06,0
1.2205,1.1917e-05,0
1.221,1.2421e-05,0
1.2215,1.2924e-05,0
1.222,1.3596e-05,0
1.2225,1.2757e-05,0
1.223,1.3092e-05,0
1.2235,1.7288e-05,0
1.224,2.0478e-05,0
1.2245,1.8463e-05,0
1.225,1.4603e-05,0
1.2255,1.2924e-05,0
1.226,1.0239e-05,0
1.2265,9.9031e-06,0
1.227,1.1246e-05,0
1.2275,1.3596e-05,0
1.228,1.7624e-05,0
1.2285,1.6449e-05,0
1.229,1.5946e-05,0
1.2295,2.1149e-05,0
1.23,2.3835e-05,0
1.2305,2.0646e-05,0
1.231,1.4603e-05,0
1.2315,1.0239e-05,0
1.232,1.3932e-05,0
1.2325,1.9806e-05,0
1.233,1.8631e-05,0
1.2335,1.1749e-05,0
1.234,9.3996e-06,0
1.2345,1.5946e-05,0
1.235,2.5177e-05,0
1.2355,2.6688e-05,0
1.236,2.1317e-05,0
1.2365,1.5274e-05,0
1.237,1.2421e-05,0
1.2375,1.7121e-05,0
1.238,2.2324e-05,0
1.2385,2.3163e-05,0
1.239,2.2995e-05,0
1.2395,2.5345e-05,0
1.24,2.3499e-05,0
1.2405,1.947e-05,0
1.241,1.7456e-05,0
1.2415,1.4603e-05,0
1.242,1.1582e-05,0
1.2425,1.3932e-05,0
1.243,1.8631e-05,0
1.2435,1.8463e-05,0
1.244,1.5946e-05,0
1.2445,1.4435e-05,0
1.245,1.1414e-05,0
1.2455,1.2253e-05,0
1.246,1.5946e-05,0
1.2465,1.6785e-05,0
1.247,1.4939e-05,0
1.2475,1.2924e-05,0
1.248,1.3932e-05,0
1.2485,1.5946e-05,0
1.249,1.4603e-05,0
1.2495,1.2589e-05,0
1.25,1.2253e-05,0
1.2505,1.2253e-05,0
1.251,1.7288e-05,0
1.2515,2.4002e-05,0
1.252,2.5849e-05,0
1.2525,2.4674e-05,0
1.253,2.266e-05,0
1.2535,2.0981e-05,0
1.254,2.1988e-05,0
1.2545,2.4002e-05,0
1.255,2.5345e-05,0
1.2555,2.4506e-05,0
1.256,2.6352e-05,0
1.2565,3.0045e-05,0
1.257,2.9709e-05,0
1.2575,2.9877e-05,0
1.258,3.1891e-05,0
1.2585,3.2395e-05,0
1.259,3.0381e-05,0
1.2595,2.6688e-05,0
1.26,2.8031e-05,0
1.2605,3.0381e-05,0
1.261,2.7527e-05,0
1.2615,2.1317e-05,0
1.262,1.5106e-05,0
1.2625,1.1414e-05,0
1.263,1.091e-05,0
1.2635,1.6617e-05,0
1.264,2.3499e-05,0
1.2645,1.9974e-05,0
1.265,9.2317e-06,0
1.2655,4.1962e-06,0
1.266,6.3783e-06,0
1.2665,1.5106e-05,0
1.267,2.266e-05,0
1.2675,2.1988e-05,0
1.268,2.0646e-05,0
1.2685,2.1988e-05,0
1.269,2.5345e-05,0
1.2695,2.9374e-05,0
1.27,2.8702e-05,0
1.2705,2.5849e-05,0
1.271,2.4002e-05,0
1.2715,2.1988e-05,0
1.272,2.031e-05,0
1.2725,1.9303e-05,0
1.273,2.031e-05,0
1.2735,2.4002e-05,0
1.274,2.5849e-05,0
1.2745,2.5849e-05,0
1.275,2.6017e-05,0
1.2755,2.3667e-05,0
1.276,1.9303e-05,0
1.2765,1.5274e-05,0
1.277,1.326e-05,0
1.2775,1.3596e-05,0
1.278,1.1917e-05,0
1.2785,1.1582e-05,0
1.279,1.2924e-05,0
1.2795,1.2589e-05,0
1.28,1.326e-05,0
1.2805,1.5442e-05,0
1.281,1.9638e-05,0
1.2815,1.9303e-05,0
1.282,1.5946e-05,0
1.2825,1.5778e-05,0
1.283,1.6953e-05,0
1.2835,1.4435e-05,0
1.284,1.1582e-05,0
1.2845,1.5106e-05,0
1.285,2.1317e-05,0
1.2855,2.4506e-05,0
1.286,2.4338e-05,0
1.2865,2.5849e-05,0
1.287,2.7359e-05,0
1.2875,2.7863e-05,0
1.288,2.6017e-05,0
1.2885,2.4002e-05,0
1.289,2.4002e-05,0
1.2895,2.2995e-05,0
1.29,2.266e-05,0
1.2905,2.3835e-05,0
1.291,2.3667e-05,0
1.2915,2.1653e-05,0
1.292,1.9638e-05,0
1.2925,1.9303e-05,0
1.293,1.8631e-05,0
1.2935,2.0646e-05,0
1.294,2.1317e-05,0
1.2945,1.9806e-05,0
1.295,1.9303e-05,0
1.2955,1.7288e-05,0
1.296,1.2421e-05,0
1.2965,1.0239e-05,0
1.297,1.1414e-05,0
1.2975,1.4099e-05,0
1.298,1.8967e-05,0
1.2985,2.1988e-05,0
1.299,1.7288e-05,0
1.2995,1.1582e-05,0
1.3,1.4435e-05,0
1.3005,2.1653e-05,0
1.301,2.4674e-05,0
1.3015,2.2156e-05,0
1.302,1.7121e-05,0
1.3025,1.3596e-05,0
1.303,1.3596e-05,0
1.3035,1.2757e-05,0
1.304,1.1917e-05,0
1.3045,1.4435e-05,0
1.305,1.4603e-05,0
1.3055,1.2924e-05,0
1.306,1.5946e-05,0
1.3065,1.9303e-05,0
1.307,1.9135e-05,0
1.3075,1.8128e-05,0
1.308,1.8463e-05,0
1.3085,1.8631e-05,0
1.309,1.9303e-05,0
1.3095,2.0646e-05,0
1.31,2.2324e-05,0
1.3105,2.0646e-05,0
1.311,1.5946e-05,0
1.3115,1.1582e-05,0
1.312,1.0407e-05,0
1.3125,1.4267e-05,0
1.313,1.8296e-05,0
1.3135,1.6617e-05,0
1.314,1.3932e-05,0
1.3145,1.5106e-05,0
1.315,1.5106e-05,0
1.3155,1.6281e-05,0
1.316,2.1149e-05,0
1.3165,2.2156e-05,0
1.317,2.1988e-05,0
1.3175,2.6017e-05,0
1.318,3.1052e-05,0
1.3185,3.2898e-05,0
1.319,2.9877e-05,0
1.3195,2.7359e-05,0
1.32,3.3234e-05,0
1.3205,4.0452e-05,0
1.321,4.1459e-05,0
1.3215,3.508e-05,0
1.322,2.8031e-05,0
1.3225,2.4338e-05,0
1.323,2.1317e-05,0
1.3235,1.9806e-05,0
1.324,1.9806e-05,0
1.3245,1.9638e-05,0
1.325,1.796e-05,0
1.3255,1.7456e-05,0
1.326,2.0646e-05,0
1.3265,2.2995e-05,0
1.327,2.0981e-05,0
1.3275,1.6785e-05,0
1.328,1.2253e-05,0
1.3285,7.5532e-06,0
1.329,8.2246e-06,0
1.3295,1.0575e-05,0
1.33,1.2253e-05,0
1.3305,1.4939e-05,0
1.331,1.3764e-05,0
1.3315,9.9031e-06,0
1.332,8.896e-06,0
1.3325,9.5674e-06,0
1.333,1.2924e-05,0
1.3335,1.4603e-05,0
1.334,1.2924e-05,0
1.3345,1.3932e-05,0
1.335,1.561e-05,0
1.3355,1.8631e-05,0
1.336,2.0981e-05,0
1.3365,2.2324e-05,0
1.337,2.1317e-05,0
1.3375,1.9638e-05,0
1.338,2.031e-05,0
1.3385,2.1149e-05,0
1.339,1.8631e-05,0
1.3395,1.5778e-05,0
1.34,1.7456e-05,0
1.3405,1.9974e-05,0
1.341,1.326e-05,0
1.3415,4.1962e-06,0
1.342,5.2033e-06,0
1.3425,7.7211e-06,0
1.343,4.1962e-06,0
1.3435,1.678e-07,0
1.344,5.035e-07,0
1.3445,6.2104e-06,0
1.345,1.1749e-05,0
1.3455,1.1246e-05,0
1.346,1.1246e-05,0
1.3465,1.3596e-05,0
1.347,1.561e-05,0
1.3475,1.796e-05,0
1.348,2.1317e-05,0
1.3485,2.1653e-05,0
1.349,1.9638e-05,0
1.3495,2.1317e-05,0
1.35,2.266e-05,0
1.3505,2.4002e-05,0
1.351,2.5681e-05,0
1.3515,2.4002e-05,0
1.352,2.2324e-05,0
1.3525,2.3331e-05,0
1.353,2.6017e-05,0
1.3535,2.8031e-05,0
1.354,2.7024e-05,0
1.3545,2.182e-05,0
1.355,2.3499e-05,0
1.3555,2.5849e-05,0
1.356,2.4842e-05,0
1.3565,2.6688e-05,0
1.357,2.8031e-05,0
1.3575,2.7695e-05,0
1.358,2.6184e-05,0
1.3585,2.3331e-05,0
1.359,2.0981e-05,0
1.3595,2.0478e-05,0
1.36,2.1653e-05,0
1.3605,2.266e-05,0
1.361,2.2995e-05,0
1.3615,2.266e-05,0
1.362,1.9974e-05,0
1.3625,1.8631e-05,0
1.363,2.1149e-05,0
1.3635,2.4002e-05,0
1.364,2.5681e-05,0
1.3645,2.8367e-05,0
1.365,2.8367e-05,0
1.3655,2.6352e-05,0
1.366,2.2324e-05,0
1.3665,2.2324e-05,0
1.367,2.0646e-05,0
1.3675,1.8631e-05,0
1.368,2.1317e-05,0
1.3685,2.3499e-05,0
1.369,2.4842e-05,0
1.3695,2.7024e-05,0
1.37,2.7192e-05,0
1.3705,2.5513e-05,0
1.371,2.4002e-05,0
1.3715,2.2324e-05,0
1.372,2.3331e-05,0
1.3725,2.5009e-05,0
1.373,2.1317e-05,0
1.3735,1.796e-05,0
1.374,1.4603e-05,0
1.3745,1.0575e-05,0
1.375,8.5603e-06,0
1.3755,1.1078e-05,0
1.376,1.561e-05,0
1.3765,1.4435e-05,0
1.377,9.9031e-06,0
1.3775,9.5674e-06,0
1.378,1.326e-05,0
1.3785,1.5442e-05,0
1.379,1.5106e-05,0
1.3795,1.4939e-05,0
1.38,1.5778e-05,0
1.3805,1.5442e-05,0
1.381,1.6617e-05,0
1.3815,1.5274e-05,0
1.382,1.0575e-05,0
1.3825,1.2589e-05,0
1.383,1.6953e-05,0
1.3835,1.6953e-05,0
1.384,1.7624e-05,0
1.3845,2.0478e-05,0
1.385,2.5681e-05,0
1.3855,2.9206e-05,0
1.386,2.7695e-05,0
1.3865,2.7024e-05,0
1.387,2.7024e-05,0
1.3875,2.266e-05,0
1.388,1.9974e-05,0
1.3885,2.0981e-05,0
1.389,2.1317e-05,0
1.3895,1.6953e-05,0
1.39,1.1749e-05,0
1.3905,1.0575e-05,0
1.391,1.4267e-05,0
1.3915,1.561e-05,0
1.392,1.3092e-05,0
1.3925,1.1917e-05,0
1.393,9.3996e-06,0
1.3935,5.8747e-06,0
1.394,7.5532e-06,0
1.3945,1.1582e-05,0
1.395,1.2589e-05,0
1.3955,1.4099e-05,0
1.396,1.8631e-05,0
1.3965,2.1317e-05,0
1.397,2.3667e-05,0
1.3975,2.5177e-05,0
1.398,2.266e-05,0
1.3985,1.796e-05,0
1.399,1.7288e-05,0
1.3995,2.3331e-05,0
1.4,2.9038e-05,0
1.4005,2.887e-05,0
1.401,2.6688e-05,0
1.4015,2.5681e-05,0
1.402,2.7359e-05,0
1.4025,3.0549e-05,0
1.403,2.8702e-05,0
1.4035,2.4002e-05,0
1.404,2.4002e-05,0
1.4045,2.6688e-05,0
1.405,2.5009e-05,0
1.4055,2.0981e-05,0
1.406,1.5946e-05,0
1.4065,1.1582e-05,0
1.407,1.1246e-05,0
1.4075,1.326e-05,0
1.408,1.6449e-05,0
1.4085,1.6953e-05,0
1.409,1.1078e-05,0
1.4095,5.8747e-06,0
1.41,9.0639e-06,0
1.4105,1.1749e-05,0
1.411,1.1078e-05,0
1.4115,1.091e-05,0
1.412,1.4603e-05,0
1.4125,1.9303e-05,0
1.413,2.3835e-05,0
1.4135,2.4338e-05,0
1.414,1.6953e-05,0
1.4145,1.4267e-05,0
1.415,1.7624e-05,0
1.4155,2.0478e-05,0
1.416,2.2492e-05,0
1.4165,2.266e-05,0
1.417,2.2492e-05,0
1.4175,2.266e-05,0
1.418,1.9974e-05,0
1.4185,2.2324e-05,0
1.419,2.5177e-05,0
1.4195,2.3163e-05,0
1.42,1.947e-05,0
1.4205,1.8463e-05,0
1.421,1.8631e-05,0
1.4215,2.0981e-05,0
1.422,2.0646e-05,0
1.4225,1.7624e-05,0
1.423,1.7288e-05,0
1.4235,2.0813e-05,0
1.424,2.3667e-05,0
1.4245,2.3835e-05,0
1.425,2.6352e-05,0
1.4255,2.8702e-05,0
1.426,2.6688e-05,0
1.4265,2.5009e-05,0
1.427,2.5009e-05,0
1.4275,2.3499e-05,0
1.428,1.9974e-05,0
1.4285,2.0646e-05,0
1.429,2.4338e-05,0
1.4295,2.6688e-05,0
1.43,2.6352e-05,0
1.4305,2.3667e-05,0
1.431,1.9806e-05,0
1.4315,1.7624e-05,0
1.432,1.3932e-05,0
1.4325,9.2317e-06,0
1.433,7.7211e-06,0
1.4335,1.2589e-05,0
1.434,1.5106e-05,0
1.4345,1.326e-05,0
1.435,1.0575e-05,0
1.4355,1.1078e-05,0
1.436,1.326e-05,0
1.4365,1.2924e-05,0
1.437,1.6281e-05,0
1.4375,2.266e-05,0
1.438,2.4002e-05,0
1.4385,2.1653e-05,0
1.439,1.947e-05,0
1.4395,1.7288e-05,0
1.44,1.6953e-05,0
1.4405,1.7288e-05,0
1.441,1.7288e-05,0
1.4415,1.4603e-05,0
1.442,1.0575e-05,0
1.4425,9.7353e-06,0
1.443,9.2317e-06,0
1.4435,1.0239e-05,0
1.444,1.0575e-05,0
1.4445,1.1246e-05,0
1.445,1.2253e-05,0
1.4455,1.561e-05,0
1.446,2.2995e-05,0
1.4465,3.0213e-05,0
1.447,3.357e-05,0
1.4475,3.5584e-05,0
1.448,3.592e-05,0
1.4485,3.5752e-05,0
1.449,3.743e-05,0
1.4495,3.7934e-05,0
1.45,3.8102e-05,0
1.4505,3.6591e-05,0
1.451,3.4073e-05,0
1.4515,2.8534e-05,0
1.452,2.2324e-05,0
1.4525,2.2995e-05,0
1.453,2.2995e-05,0
1.4535,1.9303e-05,0
1.454,1.2421e-05,0
1.4545,5.8747e-06,0
1.455,-1.678e-07,0
1.4555,-5.8747e-06,0
1.456,-9.9031e-06,0
1.4565,-9.5674e-06,0
1.457,-3.5248e-06,0
1.4575,3.1891e-06,0
1.458,4.5319e-06,0
1.4585,2.8534e-06,0
1.459,8.5603e-06,0
1.4595,1.5442e-05,0
1.46,1.5106e-05,0
1.4605,1.2924e-05,0
1.461,1.5946e-05,0
1.4615,2.266e-05,0
1.462,2.5681e-05,0
1.4625,2.6017e-05,0
1.463,3.0045e-05,0
1.4635,3.1556e-05,0
1.464,2.7863e-05,0
1.4645,2.4842e-05,0
1.465,2.4002e-05,0
1.4655,2.3331e-05,0
1.466,2.3667e-05,0
1.4665,2.5849e-05,0
1.467,2.887e-05,0
1.4675,3.1388e-05,0
1.468,3.3066e-05,0
1.4685,3.3234e-05,0
1.469,2.8534e-05,0
1.4695,2.4338e-05,0
1.47,2.3331e-05,0
1.4705,2.5009e-05,0
1.471,2.3835e-05,0
1.4715,1.9135e-05,0
1.472,1.4267e-05,0
1.4725,1.5274e-05,0
1.473,1.9806e-05,0
1.4735,2.2156e-05,0
1.474,2.0981e-05,0
1.4745,2.1149e-05,0
1.475,2.1988e-05,0
1.4755,2.031e-05,0
1.476,1.8631e-05,0
1.4765,1.6953e-05,0
1.477,1.5946e-05,0
1.4775,1.8631e-05,0
1.478,2.2995e-05,0
1.4785,2.5345e-05,0
1.479,2.6017e-05,0
1.4795,2.5345e-05,0
1.48,2.0142e-05,0
1.4805,1.4939e-05,0
1.481,1.2924e-05,0
1.4815,1.2253e-05,0
1.482,1.3092e-05,0
1.4825,1.8296e-05,0
1.483,2.4002e-05,0
1.4835,2.8199e-05,0
1.484,2.652e-05,0
1.4845,2.2324e-05,0
1.485,2.0646e-05,0
1.4855,1.6785e-05,0
1.486,1.4939e-05,0
1.4865,1.4603e-05,0
1.487,1.4603e-05,0
1.4875,1.4435e-05,0
1.488,1.7624e-05,0
1.4885,1.9135e-05,0
1.489,1.5274e-05,0
1.4895,1.2757e-05,0
1.49,1.7288e-05,0
1.4905,1.9638e-05,0
1.491,1.561e-05,0
1.4915,1.1917e-05,0
1.492,1.0575e-05,0
1.4925,1.0575e-05,0
1.493,1.1749e-05,0
1.4935,1.5274e-05,0
1.494,1.561e-05,0
1.4945,1.5946e-05,0
1.495,1.7792e-05,0
1.4955,1.8967e-05,0
1.496,1.6281e-05,0
1.4965,1.4603e-05,0
1.497,1.2757e-05,0
1.4975,1.1582e-05,0
1.498,1.6785e-05,0
1.4985,2.3667e-05,0
1.499,2.8702e-05,0
1.4995,2.6688e-05,0
1.5,2.266e-05,0
1.5005,2.1317e-05,0
1.501,2.2492e-05,0
1.5015,2.6688e-05,0
1.502,2.8702e-05,0
1.5025,2.3163e-05,0
1.503,1.6281e-05,0
1.5035,1.2421e-05,0
1.504,1.3092e-05,0
1.5045,1.4603e-05,0
1.505,1.7624e-05,0
1.5055,1.9638e-05,0
1.506,1.6953e-05,0
1.5065,1.4771e-05,0
1.507,1.7121e-05,0
1.5075,1.8631e-05,0
1.508,1.7456e-05,0
1.5085,1.561e-05,0
1.509,1.4267e-05,0
1.5095,1.3596e-05,0
1.51,1.1582e-05,0
1.5105,1.2924e-05,0
1.511,1.9638e-05,0
1.5115,2.2828e-05,0
1.512,2.4002e-05,0
1.5125,2.5009e-05,0
1.513,2.3499e-05,0
1.5135,2.4338e-05,0
1.514,2.5681e-05,0
1.5145,2.5345e-05,0
1.515,2.7863e-05,0
1.5155,2.8367e-05,0
1.516,2.4002e-05,0
1.5165,2.0646e-05,0
1.517,2.182e-05,0
1.5175,2.7359e-05,0
1.518,2.9877e-05,0
1.5185,2.9877e-05,0
1.519,2.6688e-05,0
1.5195,2.2492e-05,0
1.52,2.0646e-05,0
1.5205,2.1317e-05,0
1.521,2.1988e-05,0
1.5215,1.8631e-05,0
1.522,1.3932e-05,0
1.5225,1.3764e-05,0
1.523,1.3092e-05,0
1.5235,1.091e-05,0
1.524,1.1078e-05,0
1.5245,8.5603e-06,0
1.525,7.5532e-06,0
1.5255,1.3764e-05,0
1.526,1.8296e-05,0
1.5265,1.6953e-05,0
1.527,1.8463e-05,0
1.5275,2.2995e-05,0
1.528,2.4506e-05,0
1.5285,2.4674e-05,0
1.529,2.5345e-05,0
1.5295,2.7527e-05,0
1.53,3.1388e-05,0
1.5305,3.122e-05,0
1.531,2.6688e-05,0
1.5315,2.4338e-05,0
1.532,2.1653e-05,0
1.5325,2.1988e-05,0
1.533,2.4506e-05,0
1.5335,2.5177e-05,0
1.534,2.4674e-05,0
1.5345,2.1317e-05,0
1.535,1.9638e-05,0
1.5355,2.0478e-05,0
1.536,1.7624e-05,0
1.5365,1.0575e-05,0
1.537,9.9031e-06,0
1.5375,1.326e-05,0
1.538,1.326e-05,0
1.5385,1.1749e-05,0
1.539,1.0239e-05,0
1.5395,1.2253e-05,0
1.54,1.9135e-05,0
1.5405,2.4002e-05,0
1.541,2.4338e-05,0
1.5415,1.9303e-05,0
1.542,1.6449e-05,0
1.5425,1.9303e-05,0
1.543,2.5009e-05,0
1.5435,2.5009e-05,0
1.544,1.6617e-05,0
1.5445,1.3428e-05,0
1.545,1.7288e-05,0
1.5455,1.9303e-05,0
1.546,2.0478e-05,0
1.5465,2.3499e-05,0
1.547,2.5849e-05,0
1.5475,2.4674e-05,0
1.548,2.266e-05,0
1.5485,2.266e-05,0
1.549,2.1317e-05,0
1.5495,1.9638e-05,0
1.55,2.0478e-05,0
1.5505,2.0478e-05,0
1.551,2.0478e-05,0
1.5515,2.1988e-05,0
1.552,1.9135e-05,0
1.5525,1.5274e-05,0
1.553,1.4603e-05,0
1.5535,1.9135e-05,0
1.554,2.5177e-05,0
1.5545,2.4002e-05,0
1.555,2.031e-05,0
1.5555,1.9806e-05,0
1.556,2.3835e-05,0
1.5565,2.8199e-05,0
1.557,2.5681e-05,0
1.5575,1.9974e-05,0
1.558,1.6953e-05,0
1.5585,1.6953e-05,0
1.559,1.9806e-05,0
1.5595,2.2324e-05,0
1.56,2.1317e-05,0
1.5605,2.266e-05,0
1.561,2.3163e-05,0
1.5615,2.3331e-05,0
1.562,2.1149e-05,0
1.5625,1.9303e-05,0
1.563,2.2324e-05,0
1.5635,2.3667e-05,0
1.564,2.0981e-05,0
1.5645,2.0813e-05,0
1.565,2.031e-05,0
1.5655,1.5274e-05,0
1.566,1.2757e-05,0
1.5665,1.1246e-05,0
1.567,1.1414e-05,0
1.5675,1.3092e-05,0
1.568,1.6449e-05,0
1.5685,1.9974e-05,0
1.569,1.796e-05,0
1.5695,1.2253e-05,0
1.57,1.0575e-05,0
1.5705,1.1917e-05,0
1.571,1.2421e-05,0
1.5715,1.091e-05,0
1.572,1.0239e-05,0
1.5725,1.1749e-05,0
1.573,1.4603e-05,0
1.5735,1.2924e-05,0
1.574,1.2589e-05,0
1.5745,1.8967e-05,0
1.575,2.4002e-05,0
1.5755,2.3499e-05,0
1.576,2.266e-05,0
1.5765,2.1988e-05,0
1.577,2.1988e-05,0
1.5775,2.417e-05,0
1.578,2.182e-05,0
1.5785,1.9303e-05,0
1.579,2.1317e-05,0
1.5795,1.8631e-05,0
1.58,1.1246e-05,0
1.5805,4.3641e-06,0
1.581,3.1891e-06,0
1.5815,5.2033e-06,0
1.582,7.8889e-06,0
1.5825,1.0575e-05,0
1.583,1.2757e-05,0
1.5835,1.6953e-05,0
1.584,2.0142e-05,0
1.5845,1.8631e-05,0
1.585,1.5274e-05,0
1.5855,1.6281e-05,0
1.586,2.0981e-05,0
1.5865,2.8534e-05,0
1.587,3.4577e-05,0
1.5875,3.6591e-05,0
1.588,3.3402e-05,0
1.5885,2.9877e-05,0
1.589,2.8367e-05,0
1.5895,2.5177e-05,0
1.59,2.1653e-05,0
1.5905,2.0646e-05,0
1.591,2.1988e-05,0
1.5915,2.4002e-05,0
1.592,2.1317e-05,0
1.5925,1.8463e-05,0
1.593,1.6953e-05,0
1.5935,1.2589e-05,0
1.594,4.8676e-06,0
1.5945,-1.5106e-06,0
1.595,-3.5248e-06,0
1.5955,-2.182e-06,0
1.596,-2.3499e-06,0
1.5965,-4.8676e-06,0
1.597,-4.8676e-06,0
1.5975,-5.035e-07,0
1.598,3.8605e-06,0
1.5985,7.2175e-06,0
1.599,1.1749e-05,0
1.5995,1.6617e-05,0
1.6,1.8967e-05,0
1.6005,1.7121e-05,0
1.601,1.4603e-05,0
1.6015,1.5778e-05,0
1.602,2.1317e-05,0
1.6025,2.652e-05,0
1.603,2.7863e-05,0
1.6035,2.5849e-05,0
1.604,2.8031e-05,0
1.6045,3.8773e-05,0
1.605,5.1698e-05,0
1.6055,5.9587e-05,0
1.606,5.8915e-05,0
1.6065,5.0523e-05,0
1.607,4.2466e-05,0
1.6075,4.1962e-05,0
1.608,4.683e-05,0
1.6085,5.0019e-05,0
1.609,4.7166e-05,0
1.6095,4.1627e-05,0
1.61,3.3738e-05,0
1.6105,1.8296e-05,0
1.611,3.5248e-06,0
1.6115,-2.8534e-06,0
1.612,-6.8818e-06,0
1.6125,-1.3596e-05,0
1.613,-2.0981e-05,0
1.6135,-2.4506e-05,0
1.614,-2.8702e-05,0
1.6145,-2.8367e-05,0
1.615,-1.6281e-05,0
1.6155,-5.0355e-06,0
1.616,8.392e-07,0
1.6165,6.5461e-06,0
1.617,1.1246e-05,0
1.6175,2.0981e-05,0
1.618,3.5416e-05,0
1.6185,4.2802e-05,0
1.619,4.3137e-05,0
1.6195,4.0116e-05,0
1.62,3.6088e-05,0
1.6205,3.0381e-05,0
1.621,2.6017e-05,0
1.6215,2.3667e-05,0
1.622,1.6617e-05,0
1.6225,5.8747e-06,0
1.623,-4.3641e-06,0
1.6235,-7.7211e-06,0
1.624,-8.5603e-06,0
1.6245,-9.5674e-06,0
1.625,-1.1917e-05,0
1.6255,-1.4267e-05,0
1.626,-1.4939e-05,0
1.6265,-1.1917e-05,0
1.627,-1.2589e-05,0
1.6275,-1.2589e-05,0
1.628,-2.5177e-06,0
1.6285,1.3764e-05,0
1.629,2.7192e-05,0
1.6295,3.2059e-05,0
1.63,3.4745e-05,0
1.6305,3.978e-05,0
1.631,4.4816e-05,0
1.6315,4.5487e-05,0
1.632,4.2802e-05,0
1.6325,4.0787e-05,0
1.633,4.0787e-05,0
1.6335,4.0787e-05,0
1.634,3.9277e-05,0
1.6345,4.0116e-05,0
1.635,4.2634e-05,0
1.6355,4.2634e-05,0
1.636,3.7766e-05,0
1.6365,3.1052e-05,0
1.637,3.2059e-05,0
1.6375,3.508e-05,0
1.638,3.5416e-05,0
1.6385,3.8437e-05,0
1.639,4.3809e-05,0
1.6395,4.5151e-05,0
1.64,3.827e-05,0
1.6405,3.122e-05,0
1.641,3.3066e-05,0
1.6415,3.6759e-05,0
1.642,3.9277e-05,0
1.6425,3.8102e-05,0
1.643,3.7934e-05,0
1.6435,4.0452e-05,0
1.644,4.2802e-05,0
1.6445,4.0787e-05,0
1.645,4.213e-05,0
1.6455,4.4816e-05,0
1.646,4.3473e-05,0
1.6465,4.0787e-05,0
1.647,3.7262e-05,0
1.6475,3.2731e-05,0
1.648,3.0381e-05,0
1.6485,2.5849e-05,0
1.649,1.8967e-05,0
1.6495,1.4267e-05,0
1.65,1.1582e-05,0
1.6505,1.1749e-05,0
1.651,1.1917e-05,0
1.6515,9.5674e-06,0
1.652,4.8676e-06,0
1.6525,1.6785e-06,0
1.653,1.1749e-06,0
1.6535,1.8463e-06,0
1.654,8.392e-07,0
1.6545,-5.035e-07,0
1.655,4.1962e-06,0
1.6555,1.326e-05,0
1.656,1.1246e-05,0
1.6565,5.539e-06,0
1.657,3.0213e-06,0
1.6575,5.035e-07,0
1.658,1.8463e-06,0
1.6585,7.5532e-06,0
1.659,1.5274e-05,0
1.6595,1.8463e-05,0
1.66,1.6953e-05,0
1.6605,1.5946e-05,0
1.661,1.2421e-05,0
1.6615,8.896e-06,0
1.662,7.0497e-06,0
1.6625,6.2104e-06,0
1.663,9.2317e-06,0
1.6635,1.4939e-05,0
1.664,1.6449e-05,0
1.6645,1.3596e-05,0
1.665,1.0575e-05,0
1.6655,8.7282e-06,0
1.666,8.3925e-06,0
1.6665,9.9031e-06,0
1.667,1.5442e-05,0
1.6675,1.6953e-05,0
1.668,1.5946e-05,0
1.6685,1.7624e-05,0
1.669,1.6617e-05,0
1.6695,1.2757e-05,0
1.67,1.4267e-05,0
1.6705,1.7624e-05,0
1.671,1.7624e-05,0
1.6715,1.8631e-05,0
1.672,2.4338e-05,0
1.6725,2.7359e-05,0
1.673,2.7024e-05,0
1.6735,2.9374e-05,0
1.674,3.6927e-05,0
1.6745,4.2466e-05,0
1.675,3.978e-05,0
1.6755,3.4073e-05,0
1.676,3.3066e-05,0
1.6765,3.3066e-05,0
1.677,2.8031e-05,0
1.6775,1.9638e-05,0
1.678,1.6953e-05,0
1.6785,1.8967e-05,0
1.679,1.5106e-05,0
1.6795,7.3854e-06,0
1.68,3.357e-06,0
1.6805,2.5177e-06,0
1.681,1.5106e-06,0
1.6815,1.5106e-06,0
1.682,1.678e-07,0
1.6825,1.678e-07,0
1.683,5.2033e-06,0
1.6835,1.0575e-05,0
1.684,1.4603e-05,0
1.6845,1.5946e-05,0
1.685,1.5946e-05,0
1.6855,1.5106e-05,0
1.686,1.5778e-05,0
1.6865,1.9303e-05,0
1.687,2.2324e-05,0
1.6875,2.5345e-05,0
1.688,2.6688e-05,0
1.6885,2.3163e-05,0
1.689,1.9638e-05,0
1.6895,1.9806e-05,0
1.69,1.9974e-05,0
1.6905,1.4603e-05,0
1.691,8.2246e-06,0
1.6915,6.3783e-06,0
1.692,6.2104e-06,0
1.6925,6.2104e-06,0
1.693,8.5603e-06,0
1.6935,1.2253e-05,0
1.694,1.4771e-05,0
1.6945,1.5946e-05,0
1.695,1.3932e-05,0
1.6955,1.326e-05,0
1.696,1.561e-05,0
1.6965,1.6617e-05,0
1.697,1.5946e-05,0
1.6975,1.7792e-05,0
1.698,1.9135e-05,0
1.6985,2.0981e-05,0
1.699,2.3331e-05,0
1.6995,2.5681e-05,0
1.7,2.6352e-05,0
1.7005,2.6352e-05,0
1.701,2.6352e-05,0
1.7015,2.8534e-05,0
1.702,3.3738e-05,0
1.7025,3.9277e-05,0
1.703,3.5752e-05,0
1.7035,2.7359e-05,0
1.704,2.417e-05,0
1.7045,2.4842e-05,0
1.705,2.6017e-05,0
1.7055,2.6688e-05,0
1.706,2.9374e-05,0
1.7065,3.0716e-05,0
1.707,2.7024e-05,0
1.7075,2.266e-05,0
1.708,1.9974e-05,0
1.7085,2.1317e-05,0
1.709,2.5009e-05,0
1.7095,1.9974e-05,0
1.71,1.2757e-05,0
1.7105,1.2589e-05,0
1.711,1.4603e-05,0
1.7115,1.326e-05,0
1.712,7.8889e-06,0
1.7125,5.035e-07,0
1.713,-7.3854e-06,0
1.7135,-1.1582e-05,0
1.714,-1.2589e-05,0
1.7145,-1.3092e-05,0
1.715,-1.2589e-05,0
1.7155,-9.7353e-06,0
1.716,-4.1962e-06,0
1.7165,9.2317e-06,0
1.717,2.3163e-05,0
1.7175,3.3402e-05,0
1.718,3.6255e-05,0
1.7185,3.2059e-05,0
1.719,3.0549e-05,0
1.7195,3.1891e-05,0
1.72,3.2059e-05,0
1.7205,3.1388e-05,0
1.721,2.5345e-05,0
1.7215,1.796e-05,0
1.722,1.2924e-05,0
1.7225,7.2175e-06,0
1.723,2.0142e-06,0
1.7235,-1.5106e-06,0
1.724,-2.182e-06,0
1.7245,-2.182e-06,0
1.725,-1.8463e-06,0
1.7255,-1.6785e-06,0
1.726,-1.0071e-06,0
1.7265,1.8463e-06,0
1.727,8.7282e-06,0
1.7275,2.0646e-05,0
1.728,2.9877e-05,0
1.7285,3.3738e-05,0
1.729,3.6759e-05,0
1.7295,4.0787e-05,0
1.73,4.1795e-05,0
1.7305,4.3473e-05,0
1.731,4.0787e-05,0
1.7315,3.6423e-05,0
1.732,3.7262e-05,0
1.7325,3.5248e-05,0
1.733,2.7359e-05,0
1.7335,2.0981e-05,0
1.734,1.9638e-05,0
1.7345,2.0981e-05,0
1.735,2.3331e-05,0
1.7355,2.0981e-05,0
1.736,1.8296e-05,0
1.7365,2.1317e-05,0
1.737,2.8367e-05,0
1.7375,3.1052e-05,0
1.738,2.7024e-05,0
1.7385,1.8296e-05,0
1.739,1.1582e-05,0
1.7395,9.5674e-06,0
1.74,1.4435e-05,0
1.7405,2.266e-05,0
1.741,2.5849e-05,0
1.7415,2.2995e-05,0
1.742,2.1653e-05,0
1.7425,2.5009e-05,0
1.743,2.7695e-05,0
1.7435,2.7359e-05,0
1.744,2.3331e-05,0
1.7445,2.182e-05,0
1.745,2.5345e-05,0
1.7455,2.8534e-05,0
1.746,2.7192e-05,0
1.7465,2.6017e-05,0
1.747,2.4674e-05,0
1.7475,2.1317e-05,0
1.748,2.0981e-05,0
1.7485,2.4338e-05,0
1.749,2.9374e-05,0
1.7495,3.0884e-05,0
1.75,3.2059e-05,0
1.7505,3.4745e-05,0
1.751,3.3066e-05,0
1.7515,2.8702e-05,0
1.752,2.5177e-05,0
1.7525,2.9206e-05,0
1.753,3.4745e-05,0
1.7535,3.2059e-05,0
1.754,2.4002e-05,0
1.7545,2.1317e-05,0
1.755,2.5849e-05,0
1.7555,2.8367e-05,0
1.756,2.7192e-05,0
1.7565,2.6352e-05,0
1.757,2.4002e-05,0
1.7575,1.8967e-05,0
1.758,1.8631e-05,0
1.7585,2.2492e-05,0
1.759,2.266e-05,0
1.7595,2.0981e-05,0
1.76,2.1988e-05,0
1.7605,2.2324e-05,0
1.761,1.8631e-05,0
1.7615,1.3932e-05,0
1.762,1.0575e-05,0
1.7625,7.7211e-06,0
1.763,7.5532e-06,0
1.7635,7.8889e-06,0
1.764,8.5603e-06,0
1.7645,1.0575e-05,0
1.765,7.3854e-06,0
1.7655,3.8605e-06,0
1.766,5.2033e-06,0
1.7665,9.7353e-06,0
1.767,1.3764e-05,0
1.7675,1.7288e-05,0
1.768,2.266e-05,0
1.7685,2.652e-05,0
1.769,2.4674e-05,0
1.7695,1.8631e-05,0
1.77,1.4099e-05,0
1.7705,1.3764e-05,0
1.771,1.796e-05,0
1.7715,2.2995e-05,0
1.772,2.652e-05,0
1.7725,3.0045e-05,0
1.773,2.9709e-05,0
1.7735,3.0716e-05,0
1.774,3.7766e-05,0
1.7745,3.827e-05,0
1.775,3.1388e-05,0
1.7755,2.9038e-05,0
1.776,3.2395e-05,0
1.7765,3.5752e-05,0
1.777,3.592e-05,0
1.7775,3.5416e-05,0
1.778,3.4409e-05,0
1.7785,2.7359e-05,0
1.779,1.8631e-05,0
1.7795,1.4099e-05,0
1.78,1.326e-05,0
1.7805,9.9031e-06,0
1.781,1.5106e-06,0
1.7815,-8.896e-06,0
1.782,-1.9974e-05,0
1.7825,-2.5345e-05,0
1.783,-2.4338e-05,0
1.7835,-2.3331e-05,0
1.784,-1.9303e-05,0
1.7845,-1.5442e-05,0
1.785,-1.6281e-05,0
1.7855,-8.5603e-06,0
1.786,5.2033e-06,0
1.7865,2.1317e-05,0
1.787,3.4073e-05,0
1.7875,4.1459e-05,0
1.788,4.8844e-05,0
1.7885,5.2872e-05,0
1.789,5.2537e-05,0
1.7895,4.8341e-05,0
1.79,4.213e-05,0
1.7905,3.5416e-05,0
1.791,2.9038e-05,0
1.7915,2.266e-05,0
1.792,1.8128e-05,0
1.7925,1.1917e-05,0
1.793,5.8747e-06,0
1.7935,-1.5106e-06,0
1.794,-5.7069e-06,0
1.7945,-9.0639e-06,0
1.795,-1.4939e-05,0
1.7955,-2.0981e-05,0
1.796,-2.3667e-05,0
1.7965,-1.8128e-05,0
1.797,-2.0142e-06,0
1.7975,1.2924e-05,0
1.798,1.947e-05,0
1.7985,2.4506e-05,0
1.799,2.8534e-05,0
1.7995,3.0716e-05,0
1.8,3.2395e-05,0
1.8005,3.1388e-05,0
1.801,3.3066e-05,0
1.8015,3.2731e-05,0
1.802,2.6017e-05,0
1.8025,1.8631e-05,0
1.803,1.561e-05,0
1.8035,1.5946e-05,0
1.804,1.796e-05,0
1.8045,1.9638e-05,0
1.805,2.0646e-05,0
1.8055,2.2995e-05,0
1.806,2.6352e-05,0
1.8065,2.7359e-05,0
1.807,2.4674e-05,0
1.8075,2.266e-05,0
1.808,2.1988e-05,0
1.8085,2.2828e-05,0
1.809,2.2492e-05,0
1.8095,1.8967e-05,0
1.81,1.8967e-05,0
1.8105,1.8631e-05,0
1.811,1.561e-05,0
1.8115,1.3764e-05,0
1.812,1.1917e-05,0
1.8125,1.091e-05,0
1.813,1.5946e-05,0
1.8135,2.3667e-05,0
1.814,2.9206e-05,0
1.8145,3.8773e-05,0
1.815,5.0858e-05,0
1.8155,5.8915e-05,0
1.816,6.0426e-05,0
1.8165,5.8747e-05,0
1.817,5.7572e-05,0
1.8175,5.4215e-05,0
1.818,4.5151e-05,0
1.8185,3.0381e-05,0
1.819,2.0981e-05,0
1.8195,1.9638e-05,0
1.82,2.266e-05,0
1.8205,2.2492e-05,0
1.821,1.4603e-05,0
1.8215,7.3854e-06,0
1.822,1.6785e-06,0
1.8225,-4.8676e-06,0
1.823,-8.5603e-06,0
1.8235,-9.5674e-06,0
1.824,-3.357e-06,0
1.8245,9.9031e-06,0
1.825,2.0981e-05,0
1.8255,2.0813e-05,0
1.826,1.8631e-05,0
1.8265,2.3667e-05,0
1.827,3.0381e-05,0
1.8275,3.1724e-05,0
1.828,2.4002e-05,0
1.8285,1.3932e-05,0
1.829,5.8747e-06,0
1.8295,2.3499e-06,0
1.83,-1.0071e-06,0
1.8305,-7.5532e-06,0
1.831,-1.4939e-05,0
1.8315,-2.4002e-05,0
1.832,-3.0716e-05,0
1.8325,-2.9877e-05,0
1.833,-2.3499e-05,0
1.8335,-1.7624e-05,0
1.834,-1.5274e-05,0
1.8345,-7.3854e-06,0
1.835,-1.8463e-06,0
1.8355,-5.035e-07,0
1.836,4.1962e-06,0
1.8365,9.9031e-06,0
1.837,1.5106e-05,0
1.8375,1.8799e-05,0
1.838,2.0478e-05,0
1.8385,2.5009e-05,0
1.839,3.0716e-05,0
1.8395,3.1891e-05,0
1.84,3.0045e-05,0
1.8405,2.6688e-05,0
1.841,2.9877e-05,0
1.8415,3.743e-05,0
1.842,4.0452e-05,0
1.8425,3.9445e-05,0
1.843,4.3473e-05,0
1.8435,5.3544e-05,0
1.844,6.1601e-05,0
1.8445,6.3447e-05,0
1.845,6.3279e-05,0
1.8455,6.3111e-05,0
1.846,6.2944e-05,0
1.8465,6.1936e-05,0
1.847,5.8076e-05,0
1.8475,5.4215e-05,0
1.848,4.4984e-05,0
1.8485,2.9877e-05,0
1.849,2.1317e-05,0
1.8495,1.4267e-05,0
1.85,4.0284e-06,0
1.8505,-1.0071e-06,0
1.851,-4.3641e-06,0
1.8515,-8.3925e-06,0
1.852,-1.1582e-05,0
1.8525,-1.4939e-05,0
1.853,-1.1582e-05,0
1.8535,-2.0142e-06,0
1.854,8.896e-06,0
1.8545,1.5946e-05,0
1.855,1.8631e-05,0
1.8555,1.9638e-05,0
1.856,1.8631e-05,0
1.8565,1.8296e-05,0
1.857,1.9303e-05,0
1.8575,1.8799e-05,0
1.858,1.8463e-05,0
1.8585,1.8631e-05,0
1.859,1.6281e-05,0
1.8595,1.5946e-05,0
1.86,2.1988e-05,0
1.8605,2.7695e-05,0
1.861,2.8367e-05,0
1.8615,2.5009e-05,0
1.862,2.4842e-05,0
1.8625,2.8031e-05,0
1.863,3.1724e-05,0
1.8635,3.5248e-05,0
1.864,3.357e-05,0
1.8645,2.7024e-05,0
1.865,2.3667e-05,0
1.8655,2.7024e-05,0
1.866,3.5248e-05,0
1.8665,4.2466e-05,0
1.867,3.9445e-05,0
1.8675,3.122e-05,0
1.868,2.6688e-05,0
1.8685,2.6688e-05,0
1.869,2.6017e-05,0
1.8695,2.4338e-05,0
1.87,2.266e-05,0
1.8705,1.9638e-05,0
1.871,1.4939e-05,0
1.8715,1.1582e-05,0
1.872,1.1078e-05,0
1.8725,1.2589e-05,0
1.873,1.091e-05,0
1.8735,8.896e-06,0
1.874,5.2033e-06,0
1.8745,-5.035e-07,0
1.875,-5.539e-06,0
1.8755,-8.896e-06,0
1.876,-3.6927e-06,0
1.8765,1.1414e-05,0
1.877,2.4002e-05,0
1.8775,2.8534e-05,0
1.878,2.7359e-05,0
1.8785,2.1653e-05,0
1.879,1.2757e-05,0
1.8795,4.8676e-06,0
1.88,-3.8605e-06,0
1.8805,-1.0575e-05,0
1.881,-1.3596e-05,0
1.8815,-1.326e-05,0
1.882,-1.2253e-05,0
1.8825,-1.2924e-05,0
1.883,-1.4267e-05,0
1.8835,-1.326e-05,0
1.884,-6.0426e-06,0
1.8845,6.714e-07,0
1.885,-1.678e-07,0
1.8855,1.1749e-06,0
1.886,1.2924e-05,0
1.8865,2.5009e-05,0
1.887,2.8031e-05,0
1.8875,2.7695e-05,0
1.888,2.8367e-05,0
1.8885,2.9709e-05,0
1.889,3.3234e-05,0
1.8895,3.8102e-05,0
1.89,3.7095e-05,0
1.8905,3.4745e-05,0
1.891,4.0452e-05,0
1.8915,5.4551e-05,0
1.892,6.8482e-05,0
1.8925,7.2343e-05,0
1.893,6.865e-05,0
1.8935,6.3111e-05,0
1.894,5.623e-05,0
1.8945,4.683e-05,0
1.895,3.7766e-05,0
1.8955,2.8031e-05,0
1.896,2.1988e-05,0
1.8965,1.8631e-05,0
1.897,1.4939e-05,0
1.8975,7.0497e-06,0
1.898,-1.8463e-06,0
1.8985,-5.539e-06,0
1.899,-6.3783e-06,0
1.8995,-6.8818e-06,0
1.9,-1.5274e-05,0
1.9005,-2.3163e-05,0
1.901,-1.796e-05,0
1.9015,-2.6856e-06,0
1.902,1.1078e-05,0
1.9025,2.5009e-05,0
1.903,3.3402e-05,0
1.9035,3.4241e-05,0
1.904,3.5752e-05,0
1.9045,3.8102e-05,0
1.905,3.7766e-05,0
1.9055,3.5416e-05,0
1.906,3.2059e-05,0
1.9065,2.7695e-05,0
1.907,2.3835e-05,0
1.9075,2.1988e-05,0
1.908,2.3331e-05,0
1.9085,2.3667e-05,0
1.909,1.9974e-05,0
1.9095,1.9303e-05,0
1.91,1.796e-05,0
1.9105,1.4603e-05,0
1.911,1.0407e-05,0
1.9115,8.3925e-06,0
1.912,1.0071e-05,0
1.9125,1.2421e-05,0
1.913,1.1749e-05,0
1.9135,1.0407e-05,0
1.914,1.1582e-05,0
1.9145,1.3932e-05,0
1.915,1.6617e-05,0
1.9155,2.2156e-05,0
1.916,2.4506e-05,0
1.9165,2.2995e-05,0
1.917,2.1317e-05,0
1.9175,2.4338e-05,0
1.918,2.8367e-05,0
1.9185,3.0045e-05,0
1.919,2.8367e-05,0
1.9195,2.8031e-05,0
1.92,3.1388e-05,0
1.9205,3.3402e-05,0
1.921,3.1052e-05,0
1.9215,2.5345e-05,0
1.922,1.6449e-05,0
1.9225,1.0071e-05,0
1.923,1.326e-05,0
1.9235,1.9974e-05,0
1.924,2.5009e-05,0
1.9245,2.8367e-05,0
1.925,2.7192e-05,0
1.9255,2.3499e-05,0
1.926,1.9806e-05,0
1.9265,2.031e-05,0
1.927,2.5681e-05,0
1.9275,2.8031e-05,0
1.928,2.8367e-05,0
1.9285,2.3835e-05,0
1.929,1.4603e-05,0
1.9295,4.1962e-06,0
1.93,-4.3641e-06,0
1.9305,-1.1917e-05,0
1.931,-1.6281e-05,0
1.9315,-1.6617e-05,0
1.932,-2.0981e-05,0
1.9325,-2.6017e-05,0
1.933,-2.4506e-05,0
1.9335,-1.7288e-05,0
1.934,-8.896e-06,0
1.9345,-4.0284e-06,0
1.935,2.0142e-06,0
1.9355,1.091e-05,0
1.936,1.9638e-05,0
1.9365,2.2324e-05,0
1.937,2.266e-05,0
1.9375,2.9374e-05,0
1.938,3.3234e-05,0
1.9385,3.3906e-05,0
1.939,3.6255e-05,0
1.9395,3.9612e-05,0
1.94,4.3977e-05,0
1.9405,4.3977e-05,0
1.941,4.213e-05,0
1.9415,4.5151e-05,0
1.942,4.5151e-05,0
1.9425,3.8437e-05,0
1.943,3.4745e-05,0
1.9435,3.6255e-05,0
1.944,3.8773e-05,0
1.9445,3.7262e-05,0
1.945,3.2059e-05,0
1.9455,2.6017e-05,0
1.946,1.7288e-05,0
1.9465,7.0497e-06,0
1.947,1.1749e-06,0
1.9475,2.3499e-06,0
1.948,4.3641e-06,0
1.9485,3.8605e-06,0
1.949,6.5461e-06,0
1.9495,1.2589e-05,0
1.95,1.6617e-05,0
1.9505,1.5442e-05,0
1.951,1.326e-05,0
1.9515,1.7121e-05,0
1.952,2.266e-05,0
1.9525,2.4506e-05,0
1.953,2.6352e-05,0
1.9535,2.6688e-05,0
1.954,2.4506e-05,0
1.9545,2.7359e-05,0
1.955,3.0716e-05,0
1.9555,3.0716e-05,0
1.956,2.9374e-05,0
1.9565,2.1988e-05,0
1.957,1.4939e-05,0
1.9575,1.326e-05,0
1.958,1.0575e-05,0
1.9585,1.1749e-06,0
1.959,-1.0239e-05,0
1.9595,-1.947e-05,0
1.96,-2.2492e-05,0
1.9605,-1.9638e-05,0
1.961,-9.5674e-06,0
1.9615,1.1749e-06,0
1.962,1.0575e-05,0
1.9625,1.9638e-05,0
1.963,2.6352e-05,0
1.9635,2.9206e-05,0
1.964,2.9374e-05,0
1.9645,2.8367e-05,0
1.965,2.652e-05,0
1.9655,2.5345e-05,0
1.966,2.8702e-05,0
1.9665,3.3402e-05,0
1.967,3.8773e-05,0
1.9675,3.7934e-05,0
1.968,3.0716e-05,0
1.9685,2.4674e-05,0
1.969,2.0478e-05,0
1.9695,2.0646e-05,0
1.97,2.4002e-05,0
1.9705,2.7192e-05,0
1.971,3.3234e-05,0
1.9715,4.213e-05,0
1.972,4.7501e-05,0
1.9725,4.918e-05,0
1.973,4.4312e-05,0
1.9735,3.7766e-05,0
1.974,3.4073e-05,0
1.9745,3.4073e-05,0
1.975,3.0213e-05,0
1.9755,2.4674e-05,0
1.976,2.0646e-05,0
1.9765,1.9806e-05,0
1.977,2.2324e-05,0
1.9775,2.3835e-05,0
1.978,2.0646e-05,0
1.9785,1.7624e-05,0
1.979,2.4338e-05,0
1.9795,3.3402e-05,0
1.98,3.4745e-05,0
1.9805,3.357e-05,0
1.981,3.4073e-05,0
1.9815,3.4073e-05,0
1.982,3.6088e-05,0
1.9825,3.8437e-05,0
1.983,3.9445e-05,0
1.9835,4.0452e-05,0
1.984,3.9109e-05,0
1.9845,4.1459e-05,0
1.985,4.8676e-05,0
1.9855,5.4048e-05,0
1.986,5.2201e-05,0
1.9865,4.6159e-05,0
1.987,4.213e-05,0
1.9875,4.2802e-05,0
1.988,4.1291e-05,0
1.9885,3.0381e-05,0
1.989,1.7121e-05,0
1.9895,6.8818e-06,0
1.99,-4.8676e-06,0
1.9905,-1.7792e-05,0
1.991,-2.8702e-05,0
1.9915,-3.2059e-05,0
1.992,-2.887e-05,0
1.9925,-3.0381e-05,0
1.993,-3.5248e-05,0
1.9935,-3.3906e-05,0
1.994,-3.1052e-05,0
1.9945,-2.7863e-05,0
1.995,-1.947e-05,0
1.9955,-1.1582e-05,0
1.996,-9.5674e-06,0
1.9965,-6.8818e-06,0
1.997,6.2104e-06,0
1.9975,1.5946e-05,0
1.998,1.6281e-05,0
1.9985,1.8463e-05,0
1.999,2.7863e-05,0
1.9995,3.1724e-05,0
2,2.6688e-05,0
2.0005,2.3163e-05,0
2.001,2.1317e-05,0
2.0015,2.0142e-05,0
2.002,2.0478e-05,0
2.0025,1.9638e-05,0
2.003,1.4939e-05,0
2.0035,1.1917e-05,0
2.004,7.0497e-06,0
2.0045,4.8676e-06,0
2.005,1.1078e-05,0
2.0055,1.3932e-05,0
2.006,1.1582e-05,0
2.0065,1.0742e-05,0
2.007,1.326e-05,0
2.0075,1.4603e-05,0
2.008,1.9638e-05,0
2.0085,2.5681e-05,0
2.009,3.0716e-05,0
2.0095,3.3402e-05,0
2.01,3.2731e-05,0
2.0105,3.3402e-05,0
2.011,4.0116e-05,0
2.0115,4.8844e-05,0
2.012,5.2537e-05,0
2.0125,4.7166e-05,0
2.013,4.0116e-05,0
2.0135,3.8773e-05,0
2.014,3.6088e-05,0
2.0145,3.0716e-05,0
2.015,2.5177e-05,0
2.0155,2.1317e-05,0
2.016,1.5778e-05,0
2.0165,1.1749e-05,0
2.017,8.5603e-06,0
2.0175,9.2317e-06,0
2.018,1.0575e-05,0
2.0185,1.1749e-06,0
2.019,-1.2924e-05,0
2.0195,-2.1988e-05,0
2.02,-2.9374e-05,0
2.0205,-3.9109e-05,0
2.021,-4.5823e-05,0
2.0215,-4.6494e-05,0
2.022,-4.2802e-05,0
2.0225,-3.4409e-05,0
2.023,-2.182e-05,0
2.0235,-4.0284e-06,0
2.024,1.091e-05,0
2.0245,2.0813e-05,0
2.025,3.1052e-05,0
2.0255,3.8102e-05,0
2.026,3.8773e-05,0
2.0265,3.7095e-05,0
2.027,4.0619e-05,0
2.0275,4.4816e-05,0
2.028,4.9515e-05,0
2.0285,5.5894e-05,0
2.029,6.1601e-05,0
2.0295,6.3111e-05,0
2.03,5.5726e-05,0
2.0305,4.3977e-05,0
2.031,3.6759e-05,0
2.0315,3.4577e-05,0
2.032,3.4745e-05,0
2.0325,3.8102e-05,0
2.033,3.8437e-05,0
2.0335,3.4073e-05,0
2.034,2.9877e-05,0
2.0345,2.5345e-05,0
2.035,1.9135e-05,0
2.0355,1.6617e-05,0
2.036,1.8463e-05,0
2.0365,1.9303e-05,0
2.037,1.9974e-05,0
2.0375,2.3835e-05,0
2.038,2.9374e-05,0
2.0385,3.3738e-05,0
2.039,3.8605e-05,0
2.0395,4.5487e-05,0
2.04,5.0858e-05,0
2.0405,5.3376e-05,0
2.041,5.1865e-05,0
2.0415,4.7166e-05,0
2.042,4.1627e-05,0
2.0425,3.8102e-05,0
2.043,3.6759e-05,0
2.0435,3.3738e-05,0
2.044,2.7695e-05,0
2.0445,1.8799e-05,0
2.045,1.2421e-05,0
2.0455,1.2589e-05,0
2.046,1.1582e-05,0
2.0465,3.1891e-06,0
2.047,-5.539e-06,0
2.0475,-7.5532e-06,0
2.048,-2.182e-06,0
2.0485,1.5106e-06,0
2.049,1.8463e-06,0
2.0495,5.2033e-06,0
2.05,8.3925e-06,0
2.0505,9.7353e-06,0
2.051,8.5603e-06,0
2.0515,9.0639e-06,0
2.052,1.2757e-05,0
2.0525,1.6953e-05,0
2.053,1.9638e-05,0
2.0535,1.7456e-05,0
2.054,1.6281e-05,0
2.0545,1.6281e-05,0
2.055,1.2924e-05,0
2.0555,1.4939e-05,0
2.056,2.1988e-05,0
2.0565,2.266e-05,0
2.057,1.8631e-05,0
2.0575,1.6785e-05,0
2.058,1.8631e-05,0
2.0585,2.3331e-05,0
2.059,2.2995e-05,0
2.0595,1.6953e-05,0
2.06,1.2924e-05,0
2.0605,1.2085e-05,0
2.061,1.4939e-05,0
2.0615,1.8128e-05,0
2.062,1.9974e-05,0
2.0625,2.5177e-05,0
2.063,2.8702e-05,0
2.0635,2.9374e-05,0
2.064,3.2059e-05,0
2.0645,3.8773e-05,0
2.065,4.4648e-05,0
2.0655,4.6159e-05,0
2.066,4.3641e-05,0
2.0665,3.9109e-05,0
2.067,3.743e-05,0
2.0675,3.978e-05,0
2.068,3.8605e-05,0
2.0685,3.1052e-05,0
2.069,1.6617e-05,0
2.0695,-3.357e-06,0
2.07,-2.0646e-05,0
2.0705,-3.6591e-05,0
2.071,-5.2201e-05,0
2.0715,-6.3447e-05,0
2.072,-6.7643e-05,0
2.0725,-6.244e-05,0
2.073,-4.4984e-05,0
2.0735,-2.1653e-05,0
2.074,-3.5248e-06,0
2.0745,7.5532e-06,0
2.075,9.0639e-06,0
2.0755,1.0239e-05,0
2.076,1.8631e-05,0
2.0765,2.8534e-05,0
2.077,3.4073e-05,0
2.0775,3.2898e-05,0
2.078,3.0549e-05,0
2.0785,3.2059e-05,0
2.079,3.6927e-05,0
2.0795,4.1962e-05,0
2.08,3.6591e-05,0
2.0805,3.0213e-05,0
2.081,3.0549e-05,0
2.0815,2.9374e-05,0
2.082,2.5849e-05,0
2.0825,2.3667e-05,0
2.083,2.652e-05,0
2.0835,2.7695e-05,0
2.084,2.3163e-05,0
2.0845,2.0646e-05,0
2.085,2.2995e-05,0
2.0855,2.5345e-05,0
2.086,3.0045e-05,0
2.0865,3.4577e-05,0
2.087,3.592e-05,0
2.0875,3.4409e-05,0
2.088,3.5584e-05,0
2.0885,3.9948e-05,0
2.089,4.1627e-05,0
2.0895,4.0452e-05,0
2.09,4.1291e-05,0
2.0905,3.978e-05,0
2.091,3.6088e-05,0
2.0915,3.6759e-05,0
2.092,4.5487e-05,0
2.0925,5.0858e-05,0
2.093,4.918e-05,0
2.0935,4.7166e-05,0
2.094,4.2466e-05,0
2.0945,3.7934e-05,0
2.095,2.9374e-05,0
2.0955,1.9974e-05,0
2.096,1.2924e-05,0
2.0965,7.5532e-06,0
2.097,3.5248e-06,0
2.0975,-6.714e-07,0
2.098,-4.5319e-06,0
2.0985,-8.0568e-06,0
2.099,-1.0575e-05,0
2.0995,-1.3428e-05,0
2.1,-1.2924e-05,0
2.1005,-8.2246e-06,0
2.101,-2.8534e-06,0
2.1015,4.8676e-06,0
2.102,1.1749e-05,0
2.1025,1.2924e-05,0
2.103,1.2589e-05,0
2.1035,1.3764e-05,0
2.104,7.8889e-06,0
2.1045,2.5177e-06,0
2.105,3.8605e-06,0
2.1055,7.8889e-06,0
2.106,1.2421e-05,0
2.1065,1.6617e-05,0
2.107,1.6617e-05,0
2.1075,1.3092e-05,0
2.108,7.5532e-06,0
2.1085,6.2104e-06,0
2.109,1.326e-05,0
2.1095,2.2492e-05,0
2.11,2.8534e-05,0
2.1105,3.592e-05,0
2.111,3.9445e-05,0
2.1115,4.5991e-05,0
2.112,6.2608e-05,0
2.1125,7.8386e-05,0
2.113,8.5771e-05,0
2.1135,8.4428e-05,0
2.114,7.6707e-05,0
2.1145,6.4286e-05,0
2.115,5.1194e-05,0
2.1155,3.8102e-05,0
2.116,2.9374e-05,0
2.1165,2.5345e-05,0
2.117,2.1317e-05,0
2.1175,1.2924e-05,0
2.118,-1.3428e-06,0
2.1185,-1.796e-05,0
2.119,-3.592e-05,0
2.1195,-5.4551e-05,0
2.12,-7.1e-05,0
2.1205,-7.5029e-05,0
2.121,-6.1936e-05,0
2.1215,-3.7598e-05,0
2.122,-1.2924e-05,0
2.1225,8.392e-07,0
2.123,2.5177e-06,0
2.1235,1.8463e-06,0
2.124,3.5248e-06,0
2.1245,6.8818e-06,0
2.125,1.3596e-05,0
2.1255,1.947e-05,0
2.126,2.4002e-05,0
2.1265,2.652e-05,0
2.127,2.8534e-05,0
2.1275,3.0045e-05,0
2.128,2.9374e-05,0
2.1285,2.7359e-05,0
2.129,2.7863e-05,0
2.1295,3.508e-05,0
2.13,4.5487e-05,0
2.1305,4.683e-05,0
2.131,4.0452e-05,0
2.1315,3.4913e-05,0
2.132,3.0716e-05,0
2.1325,3.2395e-05,0
2.133,4.0116e-05,0
2.1335,4.8173e-05,0
2.134,5.2201e-05,0
2.1345,5.1865e-05,0
2.135,5.0858e-05,0
2.1355,4.4144e-05,0
2.136,3.5248e-05,0
2.1365,3.4409e-05,0
2.137,3.3234e-05,0
2.1375,2.8367e-05,0
2.138,2.3667e-05,0
2.1385,2.1317e-05,0
2.139,1.947e-05,0
2.1395,1.4603e-05,0
2.14,7.8889e-06,0
2.1405,1.1749e-06,0
2.141,-5.539e-06,0
2.1415,-1.2253e-05,0
2.142,-1.7624e-05,0
2.1425,-1.5274e-05,0
2.143,-4.5319e-06,0
2.1435,1.2421e-05,0
2.144,3.743e-05,0
2.1445,6.5293e-05,0
2.145,8.6946e-05,0
2.1455,9.5842e-05,0
2.146,9.4835e-05,0
2.1465,9.4499e-05,0
2.147,9.3156e-05,0
2.1475,8.5771e-05,0
2.148,7.7043e-05,0
2.1485,6.5965e-05,0
2.149,4.4984e-05,0
2.1495,1.8967e-05,0
2.15,-9.2317e-06,0
2.1505,-3.7262e-05,0
2.151,-6.2776e-05,0
2.1515,-8.5435e-05,0
2.152,-0.00011229,0
2.1525,-0.00014234,0
2.153,-0.00015409,0
2.1535,-0.00013075,0
2.154,-8.4764e-05,0
2.1545,-4.8341e-05,0
2.155,-3.0381e-05,0
2.1555,-1.947e-05,0
2.156,-5.7069e-06,0
2.1565,6.714e-06,0
2.157,1.4267e-05,0
2.1575,1.9135e-05,0
2.158,1.9974e-05,0
2.1585,2.3667e-05,0
2.159,2.9877e-05,0
2.1595,3.3234e-05,0
2.16,3.2059e-05,0
2.1605,3.3066e-05,0
2.161,4.1962e-05,0
2.1615,5.2201e-05,0
2.162,5.6062e-05,0
2.1625,5.1194e-05,0
2.163,4.448e-05,0
2.1635,4.4816e-05,0
2.164,5.5894e-05,0
2.1645,6.4958e-05,0
2.165,6.5461e-05,0
2.1655,6.3615e-05,0
2.166,6.0929e-05,0
2.1665,5.5894e-05,0
2.167,5.2872e-05,0
2.1675,4.6494e-05,0
2.168,4.1291e-05,0
2.1685,4.1962e-05,0
2.169,4.8005e-05,0
2.1695,5.5726e-05,0
2.17,5.8244e-05,0
2.1705,4.8173e-05,0
2.171,3.6255e-05,0
2.1715,2.9374e-05,0
2.172,2.4506e-05,0
2.1725,2.4674e-05,0
2.173,2.6184e-05,0
2.1735,2.5849e-05,0
2.174,2.266e-05,0
2.1745,1.561e-05,0
2.175,4.8676e-06,0
2.1755,-5.2033e-06,0
2.176,-1.4603e-05,0
2.1765,-2.4002e-05,0
2.177,-2.5849e-05,0
2.1775,-1.5274e-05,0
2.178,6.714e-07,0
2.1785,1.561e-05,0
2.179,2.4002e-05,0
2.1795,2.5681e-05,0
2.18,2.9206e-05,0
2.1805,3.4745e-05,0
2.181,3.8605e-05,0
2.1815,3.9445e-05,0
2.182,4.1291e-05,0
2.1825,4.213e-05,0
2.183,3.743e-05,0
2.1835,3.8102e-05,0
2.184,4.5151e-05,0
2.1845,4.918e-05,0
2.185,4.5823e-05,0
2.1855,3.8437e-05,0
2.186,3.1388e-05,0
2.1865,3.0716e-05,0
2.187,3.9109e-05,0
2.1875,4.5151e-05,0
2.188,4.0452e-05,0
2.1885,3.2395e-05,0
2.189,2.6017e-05,0
2.1895,2.182e-05,0
2.19,2.4506e-05,0
2.1905,2.4338e-05,0
2.191,1.5778e-05,0
2.1915,3.357e-07,0
2.192,-9.9031e-06,0
2.1925,-7.0497e-06,0
2.193,1.3428e-06,0
2.1935,7.3854e-06,0
2.194,1.2253e-05,0
2.1945,2.182e-05,0
2.195,3.2059e-05,0
2.1955,3.6088e-05,0
2.196,3.122e-05,0
2.1965,2.1149e-05,0
2.197,1.1917e-05,0
2.1975,3.0213e-06,0
2.198,-8.896e-06,0
2.1985,-1.8463e-05,0
2.199,-2.1149e-05,0
2.1995,-1.8967e-05,0
2.2,-2.031e-05,0
2.2005,-3.1388e-05,0
2.201,-3.8437e-05,0
2.2015,-3.0381e-05,0
2.202,-2.182e-05,0
2.2025,-2.5849e-05,0
2.203,-3.2395e-05,0
2.2035,-3.3066e-05,0
2.204,-2.2828e-05,0
2.2045,-1.2924e-05,0
2.205,-1.091e-05,0
2.2055,-9.2317e-06,0
2.206,-8.896e-06,0
2.2065,-6.8818e-06,0
2.207,1.5106e-06,0
2.2075,1.3764e-05,0
2.208,2.3163e-05,0
2.2085,3.2395e-05,0
2.209,4.1123e-05,0
2.2095,4.4984e-05,0
2.21,4.4816e-05,0
2.2105,4.4816e-05,0
2.211,4.2466e-05,0
2.2115,3.6423e-05,0
2.212,3.0045e-05,0
2.2125,2.5177e-05,0
2.213,1.9303e-05,0
2.2135,1.0071e-05,0
2.214,3.6927e-06,0
2.2145,6.0426e-06,0
2.215,1.2253e-05,0
2.2155,2.3331e-05,0
2.216,3.7095e-05,0
2.2165,4.3473e-05,0
2.217,4.4984e-05,0
2.2175,4.2298e-05,0
2.218,3.743e-05,0
2.2185,3.3066e-05,0
2.219,3.8773e-05,0
2.2195,5.1194e-05,0
2.22,5.6733e-05,0
2.2205,5.6565e-05,0
2.221,5.3208e-05,0
2.2215,4.6998e-05,0
2.222,4.0955e-05,0
2.2225,3.0884e-05,0
2.223,1.6617e-05,0
2.2235,7.7211e-06,0
2.224,8.0568e-06,0
2.2245,1.5274e-05,0
2.225,1.8463e-05,0
2.2255,1.4603e-05,0
2.226,1.4435e-05,0
2.2265,1.8631e-05,0
2.227,2.1317e-05,0
2.2275,1.9638e-05,0
2.228,1.326e-05,0
2.2285,7.7211e-06,0
2.229,4.1962e-06,0
2.2295,6.5461e-06,0
2.23,2.0813e-05,0
2.2305,3.5248e-05,0
2.231,4.2466e-05,0
2.2315,5.1194e-05,0
2.232,6.1769e-05,0
2.2325,6.9657e-05,0
2.233,7.6204e-05,0
2.2335,8.3757e-05,0
2.234,8.8289e-05,0
2.2345,9.2485e-05,0
2.235,9.2485e-05,0
2.2355,8.6778e-05,0
2.236,7.9393e-05,0
2.2365,6.6972e-05,0
2.237,4.6159e-05,0
2.2375,2.2828e-05,0
2.238,-5.0355e-06,0
2.2385,-3.7766e-05,0
2.239,-6.2608e-05,0
2.2395,-7.4021e-05,0
2.24,-7.7546e-05,0
2.2405,-7.4021e-05,0
2.241,-6.7979e-05,0
2.2415,-5.388e-05,0
2.242,-2.9877e-05,0
2.2425,-8.896e-06,0
2.243,3.8605e-06,0
2.2435,1.5106e-05,0
2.244,2.8702e-05,0
2.2445,3.8605e-05,0
2.245,4.4816e-05,0
2.2455,4.1291e-05,0
2.246,3.2563e-05,0
2.2465,2.6688e-05,0
2.247,2.1988e-05,0
2.2475,1.6449e-05,0
2.248,5.2033e-06,0
2.2485,-9.9031e-06,0
2.249,-2.2995e-05,0
2.2495,-2.8031e-05,0
2.25,-2.8199e-05,0
2.2505,-2.0646e-05,0
2.251,-1.0575e-05,0
2.2515,-5.539e-06,0
2.252,-6.0426e-06,0
2.2525,-7.2175e-06,0
2.253,-9.0639e-06,0
2.2535,-4.6998e-06,0
2.254,7.8889e-06,0
2.2545,2.3331e-05,0
2.255,3.3066e-05,0
2.2555,3.978e-05,0
2.256,4.918e-05,0
2.2565,5.3544e-05,0
2.257,5.4551e-05,0
2.2575,5.5055e-05,0
2.258,5.2033e-05,0
2.2585,4.1795e-05,0
2.259,2.6017e-05,0
2.2595,1.8631e-05,0
2.26,2.1317e-05,0
2.2605,2.031e-05,0
2.261,1.326e-05,0
2.2615,8.3925e-06,0
2.262,3.8605e-06,0
2.2625,-2.0142e-06,0
2.263,-9.3996e-06,0
2.2635,-1.3092e-05,0
2.264,-9.7353e-06,0
2.2645,-3.1891e-06,0
2.265,1.0575e-05,0
2.2655,2.6352e-05,0
2.266,3.5248e-05,0
2.2665,3.8605e-05,0
2.267,4.0452e-05,0
2.2675,3.978e-05,0
2.268,3.6423e-05,0
2.2685,3.8102e-05,0
2.269,4.2634e-05,0
2.2695,3.8102e-05,0
2.27,2.7192e-05,0
2.2705,1.6785e-05,0
2.271,1.1414e-05,0
2.2715,1.091e-05,0
2.272,8.5603e-06,0
2.2725,4.8676e-06,0
2.273,5.0355e-06,0
2.2735,1.2421e-05,0
2.274,2.5513e-05,0
2.2745,3.978e-05,0
2.275,5.0019e-05,0
2.2755,5.2201e-05,0
2.276,5.1362e-05,0
2.2765,5.2872e-05,0
2.277,5.0858e-05,0
2.2775,4.7837e-05,0
2.278,5.153e-05,0
2.2785,5.623e-05,0
2.279,5.2201e-05,0
2.2795,4.4816e-05,0
2.28,3.827e-05,0
2.2805,3.2563e-05,0
2.281,1.947e-05,0
2.2815,-4.5319e-06,0
2.282,-2.3667e-05,0
2.2825,-2.7527e-05,0
2.283,-1.3092e-05,0
2.2835,1.0239e-05,0
2.284,2.9038e-05,0
2.2845,3.4577e-05,0
2.285,2.6688e-05,0
2.2855,1.6449e-05,0
2.286,1.7288e-05,0
2.2865,3.0381e-05,0
2.287,3.743e-05,0
2.2875,2.6352e-05,0
2.288,8.3925e-06,0
2.2885,-5.539e-06,0
2.289,-1.2589e-05,0
2.2895,-1.4771e-05,0
2.29,-1.5946e-05,0
2.2905,-1.7456e-05,0
2.291,-1.7121e-05,0
2.2915,-1.1582e-05,0
2.292,1.3428e-06,0
2.2925,1.796e-05,0
2.293,3.0716e-05,0
2.2935,3.5416e-05,0
2.294,3.9445e-05,0
2.2945,4.3473e-05,0
2.295,4.6662e-05,0
2.2955,4.5487e-05,0
2.296,3.743e-05,0
2.2965,2.5177e-05,0
2.297,1.7792e-05,0
2.2975,2.4674e-05,0
2.298,3.6423e-05,0
2.2985,3.6759e-05,0
2.299,2.8199e-05,0
2.2995,1.7288e-05,0
2.3,1.3932e-05,0
2.3005,2.031e-05,0
2.301,2.9374e-05,0
2.3015,3.9445e-05,0
2.302,4.4648e-05,0
2.3025,4.3137e-05,0
2.303,4.3473e-05,0
2.3035,4.3473e-05,0
2.304,4.1627e-05,0
2.3045,3.7934e-05,0
2.305,3.3402e-05,0
2.3055,3.1052e-05,0
2.306,2.3835e-05,0
2.3065,1.326e-05,0
2.307,6.3783e-06,0
2.3075,-3.357e-07,0
2.308,-8.2246e-06,0
2.3085,-2.031e-05,0
2.309,-3.0549e-05,0
2.3095,-3.5416e-05,0
2.31,-3.7766e-05,0
2.3105,-4.3137e-05,0
2.311,-4.213e-05,0
2.3115,-3.2395e-05,0
2.312,-2.1317e-05,0
2.3125,-1.1582e-05,0
2.313,1.0071e-06,0
2.3135,1.6617e-05,0
2.314,2.5345e-05,0
2.3145,2.8702e-05,0
2.315,3.1891e-05,0
2.3155,3.6927e-05,0
2.316,4.2466e-05,0
2.3165,4.7669e-05,0
2.317,5.3544e-05,0
2.3175,5.3544e-05,0
2.318,4.5487e-05,0
2.3185,3.8941e-05,0
2.319,3.6088e-05,0
2.3195,3.2563e-05,0
2.32,2.8367e-05,0
2.3205,2.3163e-05,0
2.321,1.3932e-05,0
2.3215,-4.8676e-06,0
2.322,-2.3667e-05,0
2.3225,-3.0381e-05,0
2.323,-2.1653e-05,0
2.3235,-2.182e-06,0
2.324,1.6281e-05,0
2.3245,3.4409e-05,0
2.325,5.3376e-05,0
2.3255,6.5965e-05,0
2.326,6.5629e-05,0
2.3265,5.9587e-05,0
2.327,5.8915e-05,0
2.3275,6.1601e-05,0
2.328,5.8915e-05,0
2.3285,5.2705e-05,0
2.329,4.3977e-05,0
2.3295,2.9038e-05,0
2.33,1.326e-05,0
2.3305,1.678e-07,0
2.331,-7.8889e-06,0
2.3315,-1.3764e-05,0
2.332,-2.8534e-05,0
2.3325,-4.1795e-05,0
2.333,-3.9109e-05,0
2.3335,-2.2324e-05,0
2.334,-4.1962e-06,0
2.3345,5.2033e-06,0
2.335,2.8534e-06,0
2.3355,0,0
2.336,0,0
2.3365,-2.182e-06,0
2.337,-2.5177e-06,0
2.3375,5.2033e-06,0
2.338,1.9638e-05,0
2.3385,3.7095e-05,0
2.339,5.1362e-05,0
2.3395,5.5894e-05,0
2.34,5.4215e-05,0
2.3405,5.4887e-05,0
2.341,5.8412e-05,0
2.3415,6.3615e-05,0
2.342,6.1265e-05,0
2.3425,5.2537e-05,0
2.343,4.1459e-05,0
2.3435,2.8031e-05,0
2.344,1.326e-05,0
2.3445,3.8605e-06,0
2.345,-5.539e-06,0
2.3455,-1.4939e-05,0
2.346,-1.6281e-05,0
2.3465,-6.8818e-06,0
2.347,1.091e-05,0
2.3475,3.0549e-05,0
2.348,4.6662e-05,0
2.3485,5.4719e-05,0
2.349,5.3544e-05,0
2.3495,4.918e-05,0
2.35,4.4144e-05,0
2.3505,4.2634e-05,0
2.351,4.0452e-05,0
2.3515,3.9445e-05,0
2.352,4.4144e-05,0
2.3525,4.9851e-05,0
2.353,4.7501e-05,0
2.3535,4.1123e-05,0
2.354,3.5416e-05,0
2.3545,3.4745e-05,0
2.355,3.4745e-05,0
2.3555,3.4745e-05,0
2.356,3.9445e-05,0
2.3565,4.3137e-05,0
2.357,3.5416e-05,0
2.3575,1.9303e-05,0
2.358,5.8747e-06,0
2.3585,-1.091e-05,0
2.359,-3.2731e-05,0
2.3595,-5.069e-05,0
2.36,-5.0187e-05,0
2.3605,-3.0213e-05,0
2.361,-2.182e-06,0
2.3615,2.2492e-05,0
2.362,3.0213e-05,0
2.3625,2.5345e-05,0
2.363,1.7624e-05,0
2.3635,6.0426e-06,0
2.364,-6.5461e-06,0
2.3645,-1.4099e-05,0
2.365,-1.3932e-05,0
2.3655,-4.3641e-06,0
2.366,7.8889e-06,0
2.3665,1.1749e-05,0
2.367,-1.3428e-06,0
2.3675,-1.7288e-05,0
2.368,-2.9709e-05,0
2.3685,-4.0452e-05,0
2.369,-4.5991e-05,0
2.3695,-3.9445e-05,0
2.37,-2.7192e-05,0
2.3705,-1.4939e-05,0
2.371,-4.1962e-06,0
2.3715,9.0639e-06,0
2.372,2.5177e-05,0
2.3725,3.3402e-05,0
2.373,3.7766e-05,0
2.3735,4.0619e-05,0
2.374,4.3137e-05,0
2.3745,5.1194e-05,0
2.375,5.9587e-05,0
2.3755,6.5797e-05,0
2.376,6.8147e-05,0
2.3765,6.1265e-05,0
2.377,5.304e-05,0
2.3775,5.0858e-05,0
2.378,4.5823e-05,0
2.3785,2.8367e-05,0
2.379,2.8534e-06,0
2.3795,-1.7288e-05,0
2.38,-2.7024e-05,0
2.3805,-2.652e-05,0
2.381,-1.7792e-05,0
2.3815,-6.8818e-06,0
2.382,8.5603e-06,0
2.3825,2.5681e-05,0
2.383,3.9612e-05,0
2.3835,4.8676e-05,0
2.384,4.9851e-05,0
2.3845,4.7166e-05,0
2.385,4.1795e-05,0
2.3855,3.5752e-05,0
2.386,3.5752e-05,0
2.3865,3.9445e-05,0
2.387,4.2298e-05,0
2.3875,4.1459e-05,0
2.388,3.8605e-05,0
2.3885,4.1962e-05,0
2.389,4.8508e-05,0
2.3895,4.5151e-05,0
2.39,2.9709e-05,0
2.3905,1.5106e-05,0
2.391,1.3596e-05,0
2.3915,2.6017e-05,0
2.392,4.6159e-05,0
2.3925,6.2272e-05,0
2.393,6.3951e-05,0
2.3935,5.7572e-05,0
2.394,4.8508e-05,0
2.3945,4.2802e-05,0
2.395,4.213e-05,0
2.3955,3.2059e-05,0
2.396,9.9031e-06,0
2.3965,-1.2253e-05,0
2.397,-2.2995e-05,0
2.3975,-2.1149e-05,0
2.398,-1.8967e-05,0
2.3985,-3.3738e-05,0
2.399,-5.3376e-05,0
2.3995,-5.1194e-05,0
2.4,-2.4338e-05,0
2.4005,4.8676e-06,0
2.401,2.3667e-05,0
2.4015,3.3738e-05,0
2.402,4.0116e-05,0
2.4025,4.0116e-05,0
2.403,3.6927e-05,0
2.4035,3.0045e-05,0
2.404,2.9206e-05,0
2.4045,3.2731e-05,0
2.405,2.4674e-05,0
2.4055,1.0575e-05,0
2.406,9.5674e-06,0
2.4065,2.0142e-05,0
2.407,2.8367e-05,0
2.4075,2.6688e-05,0
2.408,2.2995e-05,0
2.4085,2.0478e-05,0
2.409,1.9638e-05,0
2.4095,2.4002e-05,0
2.41,2.3163e-05,0
2.4105,1.0239e-05,0
2.411,-7.7211e-06,0
2.4115,-2.4002e-05,0
2.412,-2.2828e-05,0
2.4125,-2.182e-06,0
2.413,2.8367e-05,0
2.4135,5.5222e-05,0
2.414,7.2007e-05,0
2.4145,8.5435e-05,0
2.415,0.00010088,0
2.4155,0.00011044,0
2.416,0.00010709,0
2.4165,9.3492e-05,0
2.417,7.8721e-05,0
2.4175,6.6636e-05,0
2.418,5.4551e-05,0
2.4185,3.592e-05,0
2.419,6.0426e-06,0
2.4195,-2.7863e-05,0
2.42,-6.2944e-05,0
2.4205,-9.5674e-05,0
2.421,-0.000118,0
2.4215,-0.0001237,0
2.422,-0.00011044,0
2.4225,-8.191e-05,0
2.423,-5.2872e-05,0
2.4235,-3.1052e-05,0
2.424,-1.6114e-05,0
2.4245,-3.6927e-06,0
2.425,1.2589e-05,0
2.4255,2.652e-05,0
2.426,3.5752e-05,0
2.4265,4.4816e-05,0
2.427,5.5222e-05,0
2.4275,6.479e-05,0
2.428,6.7979e-05,0
2.4285,6.6804e-05,0
2.429,6.6804e-05,0
2.4295,6.3951e-05,0
2.43,5.2201e-05,0
2.4305,4.448e-05,0
2.431,4.4312e-05,0
2.4315,3.743e-05,0
2.432,2.2324e-05,0
2.4325,1.2253e-05,0
2.433,3.1891e-06,0
2.4335,-1.1917e-05,0
2.434,-3.4577e-05,0
2.4345,-5.5726e-05,0
2.435,-6.009e-05,0
2.4355,-4.3137e-05,0
2.436,-1.6953e-05,0
2.4365,8.896e-06,0
2.437,2.8367e-05,0
2.4375,3.357e-05,0
2.438,3.4913e-05,0
2.4385,3.7095e-05,0
2.439,3.9109e-05,0
2.4395,3.6759e-05,0
2.44,3.7766e-05,0
2.4405,5.153e-05,0
2.441,7.2343e-05,0
2.4415,9.1478e-05,0
2.442,0.00010188,0
2.4425,9.987e-05,0
2.443,8.745e-05,0
2.4435,7.1672e-05,0
2.444,5.8915e-05,0
2.4445,5.3544e-05,0
2.445,5.069e-05,0
2.4455,4.2634e-05,0
2.446,3.5416e-05,0
2.4465,3.0213e-05,0
2.447,2.2828e-05,0
2.4475,3.357e-06,0
2.448,-2.5681e-05,0
2.4485,-5.4887e-05,0
2.449,-7.8218e-05,0
2.4495,-9.4835e-05,0
2.45,-0.00010222,0
2.4505,-9.4163e-05,0
2.451,-7.1e-05,0
2.4515,-4.7166e-05,0
2.452,-2.7359e-05,0
2.4525,-9.2317e-06,0
2.453,5.2033e-06,0
2.4535,1.7121e-05,0
2.454,2.7024e-05,0
2.4545,3.6423e-05,0
2.455,4.0116e-05,0
2.4555,3.978e-05,0
2.456,3.7095e-05,0
2.4565,3.2395e-05,0
2.457,2.417e-05,0
2.4575,1.5274e-05,0
2.458,1.1246e-05,0
2.4585,1.8631e-05,0
2.459,2.7695e-05,0
2.4595,3.2731e-05,0
2.46,4.5487e-05,0
2.4605,6.2944e-05,0
2.461,7.5868e-05,0
2.4615,8.3757e-05,0
2.462,8.5771e-05,0
2.4625,8.6778e-05,0
2.463,8.3925e-05,0
2.4635,6.7475e-05,0
2.464,4.4816e-05,0
2.4645,2.7359e-05,0
2.465,6.2104e-06,0
2.4655,-2.2324e-05,0
2.466,-4.3473e-05,0
2.4665,-4.4144e-05,0
2.467,-2.7695e-05,0
2.4675,-2.5177e-06,0
2.468,2.1653e-05,0
2.4685,4.0116e-05,0
2.469,5.5558e-05,0
2.4695,6.4118e-05,0
2.47,6.8147e-05,0
2.4705,7.3686e-05,0
2.471,7.8721e-05,0
2.4715,7.4693e-05,0
2.472,6.3951e-05,0
2.4725,5.623e-05,0
2.473,5.153e-05,0
2.4735,4.1459e-05,0
2.474,2.3163e-05,0
2.4745,0,0
2.475,-2.4338e-05,0
2.4755,-3.3738e-05,0
2.476,-1.8463e-05,0
2.4765,4.3641e-06,0
2.477,1.1246e-05,0
2.4775,3.1891e-06,0
2.478,-7.7211e-06,0
2.4785,-1.3932e-05,0
2.479,-9.9031e-06,0
2.4795,2.5177e-06,0
2.48,1.4267e-05,0
2.4805,2.1317e-05,0
2.481,2.8367e-05,0
2.4815,3.122e-05,0
2.482,2.2324e-05,0
2.4825,1.2253e-05,0
2.483,1.0575e-05,0
2.4835,1.7288e-05,0
2.484,2.3331e-05,0
2.4845,3.122e-05,0
2.485,3.8437e-05,0
2.4855,3.8437e-05,0
2.486,2.8702e-05,0
2.4865,5.539e-06,0
2.487,-1.7792e-05,0
2.4875,-2.2324e-05,0
2.488,-1.5106e-05,0
2.4885,-7.5532e-06,0
2.489,1.678e-07,0
2.4895,1.0071e-06,0
2.49,-9.2317e-06,0
2.4905,-1.796e-05,0
2.491,-1.4939e-05,0
2.4915,-1.6785e-06,0
2.492,1.1749e-05,0
2.4925,1.7624e-05,0
2.493,2.1988e-05,0
2.4935,3.6088e-05,0
2.494,5.2872e-05,0
2.4945,6.2776e-05,0
2.495,6.8818e-05,0
2.4955,7.4021e-05,0
2.496,7.1672e-05,0
2.4965,6.1601e-05,0
2.497,4.8676e-05,0
2.4975,3.6088e-05,0
2.498,1.5106e-05,0
2.4985,-1.6281e-05,0
2.499,-4.1459e-05,0
2.4995,-4.7837e-05,0
2.5,-3.1891e-05,0
2.5005,-1.2253e-05,0
2.501,-8.7282e-06,0
2.5015,-1.2253e-05,0
2.502,-3.5248e-06,0
2.5025,1.3932e-05,0
2.503,3.508e-05,0
2.5035,5.2201e-05,0
2.504,5.5558e-05,0
2.5045,4.9851e-05,0
2.505,4.4144e-05,0
2.5055,4.6159e-05,0
2.506,5.0187e-05,0
2.5065,5.4383e-05,0
2.507,5.5558e-05,0
2.5075,5.0858e-05,0
2.508,4.3473e-05,0
2.5085,3.0045e-05,0
2.509,2.6856e-06,0
2.5095,-2.8367e-05,0
2.51,-4.3473e-05,0
2.5105,-3.592e-05,0
2.511,-1.8631e-05,0
2.5115,-1.5106e-06,0
2.512,1.1582e-05,0
2.5125,1.6953e-05,0
2.513,1.4435e-05,0
2.5135,7.8889e-06,0
2.514,6.714e-07,0
2.5145,-1.1749e-06,0
2.515,4.3641e-06,0
2.5155,1.2589e-05,0
2.516,2.0646e-05,0
2.5165,3.0213e-05,0
2.517,3.5416e-05,0
2.5175,2.8367e-05,0
2.518,1.3428e-05,0
2.5185,-1.6785e-06,0
2.519,-2.0813e-05,0
2.5195,-4.2802e-05,0
2.52,-5.5726e-05,0
2.5205,-4.2634e-05,0
2.521,-7.5532e-06,0
2.5215,2.9877e-05,0
2.522,5.7404e-05,0
2.5225,7.0329e-05,0
2.523,6.3615e-05,0
2.5235,4.4816e-05,0
2.524,2.8534e-05,0
2.5245,2.8702e-05,0
2.525,4.0284e-05,0
2.5255,4.0452e-05,0
2.526,2.7695e-05,0
2.5265,1.8967e-05,0
2.527,1.8631e-05,0
2.5275,2.5513e-05,0
2.528,2.8031e-05,0
2.5285,1.4603e-05,0
2.529,-5.3712e-06,0
2.5295,-6.5461e-06,0
2.53,9.5674e-06,0
2.5305,2.5177e-05,0
2.531,3.2395e-05,0
2.5315,3.6423e-05,0
2.532,4.0116e-05,0
2.5325,4.1795e-05,0
2.533,4.0787e-05,0
2.5335,3.5584e-05,0
2.534,3.3738e-05,0
2.5345,3.6759e-05,0
2.535,3.743e-05,0
2.5355,3.2395e-05,0
2.536,2.4338e-05,0
2.5365,1.4267e-05,0
2.537,6.5461e-06,0
2.5375,4.8676e-06,0
2.538,9.9031e-06,0
2.5385,1.1246e-05,0
2.539,1.3596e-05,0
2.5395,2.7527e-05,0
2.54,4.0116e-05,0
2.5405,3.5752e-05,0
2.541,1.8631e-05,0
2.5415,5.7069e-06,0
2.542,9.2317e-06,0
2.5425,2.0981e-05,0
2.543,3.2731e-05,0
2.5435,4.6159e-05,0
2.544,5.5894e-05,0
2.5445,5.6733e-05,0
2.545,5.5222e-05,0
2.5455,5.6062e-05,0
2.546,5.5726e-05,0
2.5465,4.683e-05,0
2.547,2.887e-05,0
2.5475,1.7624e-05,0
2.548,2.6688e-05,0
2.5485,4.9515e-05,0
2.549,6.244e-05,0
2.5495,5.9922e-05,0
2.55,4.918e-05,0
2.5505,3.7766e-05,0
2.551,2.5177e-05,0
2.5515,9.9031e-06,0
2.552,-2.5177e-06,0
2.5525,0,0
2.553,1.5946e-05,0
2.5535,3.2395e-05,0
2.554,3.4745e-05,0
2.5545,1.3932e-05,0
2.555,-1.4771e-05,0
2.5555,-3.743e-05,0
2.556,-6.2608e-05,0
2.5565,-8.9632e-05,0
2.557,-9.8863e-05,0
2.5575,-7.8721e-05,0
2.558,-4.1123e-05,0
2.5585,-8.392e-07,0
2.559,3.0716e-05,0
2.5595,4.7166e-05,0
2.56,4.918e-05,0
2.5605,4.5487e-05,0
2.561,4.7501e-05,0
2.5615,5.3544e-05,0
2.562,5.1698e-05,0
2.5625,3.9277e-05,0
2.563,1.9303e-05,0
2.5635,1.2924e-05,0
2.564,2.6352e-05,0
2.5645,4.1459e-05,0
2.565,4.5991e-05,0
2.5655,4.3809e-05,0
2.566,3.1052e-05,0
2.5665,1.0407e-05,0
2.567,7.5532e-06,0
2.5675,3.4745e-05,0
2.568,7.1672e-05,0
2.5685,8.9128e-05,0
2.569,7.9728e-05,0
2.5695,5.4719e-05,0
2.57,1.4603e-05,0
2.5705,-3.4745e-05,0
2.571,-5.9922e-05,0
2.5715,-4.3137e-05,0
2.572,-8.7282e-06,0
2.5725,1.3932e-05,0
2.573,1.0575e-05,0
2.5735,-8.5603e-06,0
2.574,-1.9638e-05,0
2.5745,-8.2246e-06,0
2.575,1.6449e-05,0
2.5755,4.0452e-05,0
2.576,5.7237e-05,0
2.5765,5.8915e-05,0
2.577,4.8173e-05,0
2.5775,2.7024e-05,0
2.578,1.2924e-05,0
2.5785,1.1917e-05,0
2.579,1.0575e-05,0
2.5795,1.091e-05,0
2.58,1.2253e-05,0
2.5805,6.8818e-06,0
2.581,5.0355e-06,0
2.5815,1.8631e-05,0
2.582,4.7166e-05,0
2.5825,6.714e-05,0
2.583,5.6901e-05,0
2.5835,2.0981e-05,0
2.584,-1.0239e-05,0
2.5845,-2.182e-05,0
2.585,-1.4939e-05,0
2.5855,1.1749e-06,0
2.586,2.031e-05,0
2.5865,3.6088e-05,0
2.587,4.4144e-05,0
2.5875,3.4409e-05,0
2.588,1.6785e-06,0
2.5885,-2.7024e-05,0
2.589,-3.6759e-05,0
2.5895,-3.5584e-05,0
2.59,-2.2492e-05,0
2.5905,-5.0355e-06,0
2.591,1.0575e-05,0
2.5915,2.5009e-05,0
2.592,3.743e-05,0
2.5925,4.8173e-05,0
2.593,5.6733e-05,0
2.5935,6.1601e-05,0
2.594,6.0258e-05,0
2.5945,5.8244e-05,0
2.595,5.1865e-05,0
2.5955,3.978e-05,0
2.596,2.4674e-05,0
2.5965,7.2175e-06,0
2.597,-2.8534e-06,0
2.5975,4.8676e-06,0
2.598,1.7624e-05,0
2.5985,1.5274e-05,0
2.599,-2.8534e-06,0
2.5995,-1.9974e-05,0
2.6,-1.5274e-05,0
2.6005,9.7353e-06,0
2.601,3.3402e-05,0
2.6015,4.4648e-05,0
2.602,4.8508e-05,0
2.6025,5.1026e-05,0
2.603,4.9348e-05,0
2.6035,2.7192e-05,0
2.604,-1.3764e-05,0
2.6045,-4.5823e-05,0
2.605,-6.009e-05,0
2.6055,-4.8508e-05,0
2.606,-5.7069e-06,0
2.6065,4.3137e-05,0
2.607,6.1936e-05,0
2.6075,4.4816e-05,0
2.608,2.6352e-05,0
2.6085,2.4506e-05,0
2.609,2.6352e-05,0
2.6095,2.182e-05,0
2.61,5.7069e-06,0
2.6105,-1.6953e-05,0
2.611,-2.8199e-05,0
2.6115,-3.2059e-05,0
2.612,-4.1795e-05,0
2.6125,-4.9348e-05,0
2.613,-4.918e-05,0
2.6135,-6.0426e-05,0
2.614,-7.805e-05,0
2.6145,-7.4693e-05,0
2.615,-4.8173e-05,0
2.6155,-4.8676e-06,0
2.616,3.9445e-05,0
2.6165,6.7475e-05,0
2.617,7.6036e-05,0
2.6175,7.3686e-05,0
2.618,7.2343e-05,0
2.6185,7.6371e-05,0
2.619,8.3757e-05,0
2.6195,8.6107e-05,0
2.62,8.4428e-05,0
2.6205,8.745e-05,0
2.621,9.2989e-05,0
2.6215,8.5771e-05,0
2.622,6.9322e-05,0
2.6225,5.0019e-05,0
2.623,3.3906e-05,0
2.6235,3.4409e-05,0
2.624,5.2201e-05,0
2.6245,6.6972e-05,0
2.625,6.9154e-05,0
2.6255,7.1e-05,0
2.626,7.9057e-05,0
2.6265,7.7714e-05,0
2.627,5.2201e-05,0
2.6275,1.5274e-05,0
2.628,-1.2421e-05,0
2.6285,-2.031e-05,0
2.629,-1.091e-05,0
2.6295,3.6927e-06,0
2.63,1.0575e-05,0
2.6305,-5.035e-07,0
2.631,-2.9038e-05,0
2.6315,-5.9251e-05,0
2.632,-6.7979e-05,0
2.6325,-4.8844e-05,0
2.633,-1.1414e-05,0
2.6335,2.1988e-05,0
2.634,3.8437e-05,0
2.6345,4.683e-05,0
2.635,5.7572e-05,0
2.6355,6.2944e-05,0
2.636,6.4286e-05,0
2.6365,6.6636e-05,0
2.637,6.5965e-05,0
2.6375,6.4958e-05,0
2.638,6.3615e-05,0
2.6385,6.3279e-05,0
2.639,5.7237e-05,0
2.6395,3.743e-05,0
2.64,5.035e-07,0
2.6405,-3.8773e-05,0
2.641,-7.0664e-05,0
2.6415,-8.3085e-05,0
2.642,-7.2679e-05,0
2.6425,-4.5823e-05,0
2.643,-2.1988e-05,0
2.6435,-7.5532e-06,0
2.644,1.6785e-06,0
2.6445,3.0213e-06,0
2.645,-9.3996e-06,0
2.6455,-2.6856e-05,0
2.646,-2.3835e-05,0
2.6465,-2.5177e-06,0
2.647,1.8631e-05,0
2.6475,3.8102e-05,0
2.648,5.7404e-05,0
2.6485,7.5029e-05,0
2.649,9.1478e-05,0
2.6495,0.00010692,0
2.65,0.00011901,0
2.6505,0.0001284,0
2.651,0.00013109,0
2.6515,0.0001237,0
2.652,0.00010558,0
2.6525,8.1743e-05,0
2.653,5.7237e-05,0
2.6535,2.5345e-05,0
2.654,-2.4674e-05,0
2.6545,-7.2847e-05,0
2.655,-8.9464e-05,0
2.6555,-7.2343e-05,0
2.656,-4.4816e-05,0
2.6565,-1.9974e-05,0
2.657,-1.1078e-05,0
2.6575,-2.6184e-05,0
2.658,-5.5222e-05,0
2.6585,-6.7643e-05,0
2.659,-5.5894e-05,0
2.6595,-3.5416e-05,0
2.66,-2.182e-05,0
2.6605,-2.2324e-05,0
2.661,-3.1891e-05,0
2.6615,-3.8437e-05,0
2.662,-3.7766e-05,0
2.6625,-3.0549e-05,0
2.663,-2.3163e-05,0
2.6635,-1.8967e-05,0
2.664,-2.0478e-05,0
2.6645,-2.031e-05,0
2.665,-6.5461e-06,0
2.6655,1.7792e-05,0
2.666,3.1724e-05,0
2.6665,3.4745e-05,0
2.667,4.4984e-05,0
2.6675,6.1936e-05,0
2.668,8.0064e-05,0
2.6685,8.896e-05,0
2.669,8.8792e-05,0
2.6695,8.4428e-05,0
2.67,7.0832e-05,0
2.6705,5.5726e-05,0
2.671,5.069e-05,0
2.6715,4.1459e-05,0
2.672,1.4435e-05,0
2.6725,-2.182e-05,0
2.673,-3.592e-05,0
2.6735,-1.3596e-05,0
2.674,1.6785e-05,0
2.6745,3.4409e-05,0
2.675,4.2802e-05,0
2.6755,5.069e-05,0
2.676,5.8915e-05,0
2.6765,6.8818e-05,0
2.677,8.7114e-05,0
2.6775,0.00010759,0
2.678,0.00011514,0
2.6785,0.00010692,0
2.679,9.2821e-05,0
2.6795,8.5771e-05,0
2.68,8.04e-05,0
2.6805,6.0929e-05,0
2.681,7.2175e-06,0
2.6815,-6.7475e-05,0
2.682,-0.00011229,0
2.6825,-0.00010289,0
2.683,-5.9251e-05,0
2.6835,-1.1749e-05,0
2.684,1.4939e-05,0
2.6845,2.4002e-05,0
2.685,3.1052e-05,0
2.6855,4.2802e-05,0
2.686,5.7908e-05,0
2.6865,6.1936e-05,0
2.687,4.9683e-05,0
2.6875,2.6688e-05,0
2.688,9.7353e-06,0
2.6885,7.8889e-06,0
2.689,1.5106e-05,0
2.6895,2.4002e-05,0
2.69,2.8702e-05,0
2.6905,2.9374e-05,0
2.691,2.7024e-05,0
2.6915,1.9638e-05,0
2.692,1.0239e-05,0
2.6925,1.0742e-05,0
2.693,2.6352e-05,0
2.6935,4.1123e-05,0
2.694,3.2059e-05,0
2.6945,1.561e-05,0
2.695,1.8799e-05,0
2.6955,3.0549e-05,0
2.696,2.9877e-05,0
2.6965,2.8031e-05,0
2.697,3.4073e-05,0
2.6975,4.213e-05,0
2.698,4.8844e-05,0
2.6985,4.7333e-05,0
2.699,3.743e-05,0
2.6995,2.7359e-05,0
2.7,2.5177e-05,0
2.7005,2.7192e-05,0
2.701,2.4002e-05,0
2.7015,1.9806e-05,0
2.702,1.1414e-05,0
2.7025,-1.5106e-06,0
2.703,-3.5248e-06,0
2.7035,2.8534e-06,0
2.704,-9.2317e-06,0
2.7045,-4.8844e-05,0
2.705,-8.3589e-05,0
2.7055,-8.661e-05,0
2.706,-6.9657e-05,0
2.7065,-5.5894e-05,0
2.707,-5.8579e-05,0
2.7075,-6.6133e-05,0
2.708,-6.1265e-05,0
2.7085,-3.4745e-05,0
2.709,-2.3499e-06,0
2.7095,1.9974e-05,0
2.71,3.6927e-05,0
2.7105,5.0019e-05,0
2.711,5.5558e-05,0
2.7115,5.3208e-05,0
2.712,4.8173e-05,0
2.7125,4.5319e-05,0
2.713,4.0452e-05,0
2.7135,3.2731e-05,0
2.714,3.0716e-05,0
2.7145,3.122e-05,0
2.715,2.9374e-05,0
2.7155,3.2059e-05,0
2.716,3.9445e-05,0
2.7165,4.2466e-05,0
2.717,3.6423e-05,0
2.7175,3.0549e-05,0
2.718,3.4073e-05,0
2.7185,4.683e-05,0
2.719,5.0858e-05,0
2.7195,4.6494e-05,0
2.72,5.0019e-05,0
2.7205,5.539e-05,0
2.721,5.1865e-05,0
2.7215,5.0355e-05,0
2.722,5.3208e-05,0
2.7225,5.2201e-05,0
2.723,4.3473e-05,0
2.7235,3.2395e-05,0
2.724,2.266e-05,0
2.7245,1.1917e-05,0
2.725,1.5274e-05,0
2.7255,3.4577e-05,0
2.726,5.2201e-05,0
2.7265,6.0258e-05,0
2.727,6.7643e-05,0
2.7275,8.2582e-05,0
2.728,8.8289e-05,0
2.7285,7.4693e-05,0
2.729,4.8844e-05,0
2.7295,2.1317e-05,0
2.73,2.6856e-06,0
2.7305,3.6927e-06,0
2.731,2.2995e-05,0
2.7315,5.8579e-05,0
2.732,8.1575e-05,0
2.7325,6.3951e-05,0
2.733,2.1149e-05,0
2.7335,-1.3596e-05,0
2.734,-2.1149e-05,0
2.7345,-9.9031e-06,0
2.735,1.0071e-06,0
2.7355,1.326e-05,0
2.736,3.0549e-05,0
2.7365,4.5487e-05,0
2.737,4.6494e-05,0
2.7375,2.2324e-05,0
2.738,-3.3738e-05,0
2.7385,-0.0001091,0
2.739,-0.00016936,0
2.7395,-0.00018178,0
2.74,-0.00014586,0
2.7405,-9.6178e-05,0
2.741,-5.8579e-05,0
2.7415,-4.5991e-05,0
2.742,-5.6565e-05,0
2.7425,-6.7475e-05,0
2.743,-6.2272e-05,0
2.7435,-4.1459e-05,0
2.744,-2.1317e-05,0
2.7445,-1.1246e-05,0
2.745,-1.1749e-06,0
2.7455,1.8128e-05,0
2.746,4.3137e-05,0
2.7465,6.6804e-05,0
2.747,8.6778e-05,0
2.7475,0.00010675,0
2.748,0.000118,0
2.7485,0.00011397,0
2.749,0.00010155,0
2.7495,9.0135e-05,0
2.75,7.6036e-05,0
2.7505,5.2201e-05,0
2.751,2.7695e-05,0
2.7515,1.3764e-05,0
2.752,1.0575e-05,0
2.7525,1.326e-05,0
2.753,1.5274e-05,0
2.7535,1.2924e-05,0
2.754,5.0355e-06,0
2.7545,-8.5603e-06,0
2.755,-1.6953e-05,0
2.7555,-7.8889e-06,0
2.756,1.5946e-05,0
2.7565,4.0619e-05,0
2.757,5.0355e-05,0
2.7575,5.0019e-05,0
2.758,5.1362e-05,0
2.7585,4.7669e-05,0
2.759,3.2059e-05,0
2.7595,8.2246e-06,0
2.76,-1.2924e-05,0
2.7605,-1.561e-05,0
2.761,-8.392e-07,0
2.7615,2.4002e-05,0
2.762,5.0858e-05,0
2.7625,7.3014e-05,0
2.763,8.8121e-05,0
2.7635,0.00010306,0
2.764,0.00012203,0
2.7645,0.00013478,0
2.765,0.0001368,0
2.7655,0.00013445,0
2.766,0.00013243,0
2.7665,0.00012572,0
2.767,0.00011229,0
2.7675,9.4163e-05,0
2.768,6.5293e-05,0
2.7685,1.9638e-05,0
2.769,-3.1556e-05,0
2.7695,-7.5364e-05,0
2.77,-9.5842e-05,0
2.7705,-8.896e-05,0
2.771,-7.0664e-05,0
2.7715,-5.2537e-05,0
2.772,-3.5248e-05,0
2.7725,-2.8031e-05,0
2.773,-2.6184e-05,0
2.7735,-2.7695e-05,0
2.774,-3.9277e-05,0
2.7745,-4.213e-05,0
2.775,-2.5177e-05,0
2.7755,4.3641e-06,0
2.776,3.4409e-05,0
2.7765,4.2298e-05,0
2.777,2.4338e-05,0
2.7775,1.1078e-05,0
2.778,1.6953e-05,0
2.7785,3.6759e-05,0
2.779,6.2776e-05,0
2.7795,8.9632e-05,0
2.78,0.00010776,0
2.7805,0.00011112,0
2.781,9.2317e-05,0
2.7815,5.1865e-05,0
2.782,1.2589e-05,0
2.7825,5.035e-07,0
2.783,1.4939e-05,0
2.7835,3.2563e-05,0
2.784,3.6088e-05,0
2.7845,3.5416e-05,0
2.785,3.5752e-05,0
2.7855,2.7359e-05,0
2.786,2.5177e-06,0
2.7865,-2.9877e-05,0
2.787,-5.9083e-05,0
2.7875,-8.3589e-05,0
2.788,-0.00010692,0
2.7885,-0.00011447,0
2.789,-8.4428e-05,0
2.7895,-4.4816e-05,0
2.79,-3.2563e-05,0
2.7905,-2.5177e-05,0
2.791,2.5177e-06,0
2.7915,4.4984e-05,0
2.792,7.2343e-05,0
2.7925,7.7043e-05,0
2.793,7.5364e-05,0
2.7935,7.6371e-05,0
2.794,7.0329e-05,0
2.7945,5.388e-05,0
2.795,3.6423e-05,0
2.7955,1.5946e-05,0
2.796,-2.031e-05,0
2.7965,-5.0019e-05,0
2.797,-5.623e-05,0
2.7975,-4.4984e-05,0
2.798,-3.2395e-05,0
2.7985,-3.9612e-05,0
2.799,-7.2847e-05,0
2.7995,-0.0001044,0
2.8,-0.0001091,0
2.8005,-8.4428e-05,0
2.801,-4.1123e-05,0
2.8015,-3.357e-07,0
2.802,2.4002e-05,0
2.8025,4.1291e-05,0
2.803,5.8915e-05,0
2.8035,7.7378e-05,0
2.804,9.2485e-05,0
2.8045,9.8863e-05,0
2.805,0.00010524,0
2.8055,0.00011196,0
2.806,0.00011598,0
2.8065,0.00011598,0
2.807,0.00011598,0
2.8075,0.00011212,0
2.808,0.00010222,0
2.8085,7.9728e-05,0
2.809,4.8844e-05,0
2.8095,2.6017e-05,0
2.81,1.6449e-05,0
2.8105,1.8631e-05,0
2.811,3.2898e-05,0
2.8115,5.3208e-05,0
2.812,6.8315e-05,0
2.8125,5.8244e-05,0
2.813,1.326e-05,0
2.8135,-3.6759e-05,0
2.814,-6.3615e-05,0
2.8145,-6.9993e-05,0
2.815,-5.9922e-05,0
2.8155,-3.8605e-05,0
2.816,-2.4338e-05,0
2.8165,-3.2395e-05,0
2.817,-4.6326e-05,0
2.8175,-3.6255e-05,0
2.818,-5.539e-06,0
2.8185,2.1149e-05,0
2.819,2.7695e-05,0
2.8195,2.1988e-05,0
2.82,2.031e-05,0
2.8205,2.9709e-05,0
2.821,5.153e-05,0
2.8215,7.1168e-05,0
2.822,8.1743e-05,0
2.8225,8.5771e-05,0
2.823,7.8721e-05,0
2.8235,5.9587e-05,0
2.824,4.1627e-05,0
2.8245,3.9277e-05,0
2.825,5.0355e-05,0
2.8255,5.623e-05,0
2.826,4.9851e-05,0
2.8265,4.683e-05,0
2.827,5.304e-05,0
2.8275,4.7669e-05,0
2.828,2.4338e-05,0
2.8285,2.3499e-06,0
2.829,-3.357e-06,0
2.8295,1.3092e-05,0
2.83,3.5752e-05,0
2.8305,4.2634e-05,0
2.831,3.8773e-05,0
2.8315,4.1962e-05,0
2.832,5.2201e-05,0
2.8325,4.5823e-05,0
2.833,1.2085e-05,0
2.8335,-2.3331e-05,0
2.834,-3.4577e-05,0
2.8345,-2.2828e-05,0
2.835,-6.8818e-06,0
2.8355,-1.4267e-05,0
2.836,-5.3376e-05,0
2.8365,-9.2485e-05,0
2.837,-9.987e-05,0
2.8375,-7.3686e-05,0
2.838,-3.508e-05,0
2.8385,-7.0497e-06,0
2.839,1.1078e-05,0
2.8395,2.9709e-05,0
2.84,4.4984e-05,0
2.8405,3.978e-05,0
2.841,1.5778e-05,0
2.8415,6.714e-07,0
2.842,8.7282e-06,0
2.8425,1.8631e-05,0
2.843,1.1246e-05,0
2.8435,3.8605e-06,0
2.844,2.031e-05,0
2.8445,5.5894e-05,0
2.845,9.0974e-05,0
2.8455,0.00011044,0
2.846,0.00011632,0
2.8465,0.00011968,0
2.847,0.0001321,0
2.8475,0.00015123,0
2.848,0.00015006,0
2.8485,0.00011229,0
2.849,4.8844e-05,0
2.8495,-8.896e-06,0
2.85,-4.1795e-05,0
2.8505,-6.4622e-05,0
2.851,-7.7043e-05,0
2.8515,-7.0664e-05,0
2.852,-6.1601e-05,0
2.8525,-5.8579e-05,0
2.853,-5.4551e-05,0
2.8535,-5.0858e-05,0
2.854,-4.5823e-05,0
2.8545,-4.8676e-05,0
2.855,-7.0329e-05,0
2.8555,-8.6778e-05,0
2.856,-6.5126e-05,0
2.8565,-1.0407e-05,0
2.857,5.1194e-05,0
2.8575,9.366e-05,0
2.858,0.00011699,0
2.8585,0.0001274,0
2.859,0.00012874,0
2.8595,0.00012605,0
2.86,0.00012673,0
2.8605,0.00012874,0
2.861,0.00012337,0
2.8615,0.00010591,0
2.862,7.805e-05,0
2.8625,4.3473e-05,0
2.863,-2.8534e-06,0
2.8635,-6.3951e-05,0
2.864,-0.00011514,0
2.8645,-0.00011229,0
2.865,-7.3686e-05,0
2.8655,-4.1795e-05,0
2.866,-2.6688e-05,0
2.8665,-2.6184e-05,0
2.867,-3.508e-05,0
2.8675,-4.1123e-05,0
2.868,-3.3066e-05,0
2.8685,-1.0407e-05,0
2.869,2.0478e-05,0
2.8695,4.3809e-05,0
2.87,4.2634e-05,0
2.8705,1.3764e-05,0
2.871,-1.1078e-05,0
2.8715,-3.8605e-06,0
2.872,2.3667e-05,0
2.8725,3.6591e-05,0
2.873,2.5345e-05,0
2.8735,2.1317e-05,0
2.874,3.5248e-05,0
2.8745,4.1459e-05,0
2.875,3.6088e-05,0
2.8755,3.6759e-05,0
2.876,4.4144e-05,0
2.8765,4.6494e-05,0
2.877,4.3305e-05,0
2.8775,4.2466e-05,0
2.878,4.448e-05,0
2.8785,4.2634e-05,0
2.879,3.3738e-05,0
2.8795,2.1149e-05,0
2.88,1.1917e-05,0
2.8805,1.7624e-05,0
2.881,4.1795e-05,0
2.8815,7.1e-05,0
2.882,8.9799e-05,0
2.8825,9.4499e-05,0
2.883,8.1743e-05,0
2.8835,6.0258e-05,0
2.884,4.683e-05,0
2.8845,4.6494e-05,0
2.885,5.153e-05,0
2.8855,5.7237e-05,0
2.886,5.9251e-05,0
2.8865,4.9851e-05,0
2.887,2.0813e-05,0
2.8875,-2.5849e-05,0
2.888,-7.335e-05,0
2.8885,-0.00010289,0
2.889,-8.5603e-05,0
2.8895,-3.4073e-05,0
2.89,5.7069e-06,0
2.8905,6.2104e-06,0
2.891,-1.2421e-05,0
2.8915,-1.4939e-05,0
2.892,2.5177e-06,0
2.8925,1.3764e-05,0
2.893,6.2104e-06,0
2.8935,-8.3925e-06,0
2.894,-2.1653e-05,0
2.8945,-3.5584e-05,0
2.895,-5.1865e-05,0
2.8955,-6.1601e-05,0
2.896,-5.304e-05,0
2.8965,-3.2395e-05,0
2.897,-1.8967e-05,0
2.8975,-1.5778e-05,0
2.898,-8.896e-06,0
2.8985,8.7282e-06,0
2.899,2.1988e-05,0
2.8995,1.7624e-05,0
2.9,6.8818e-06,0
2.9005,1.7792e-05,0
2.901,4.2802e-05,0
2.9015,5.9922e-05,0
2.902,6.8818e-05,0
2.9025,7.0664e-05,0
2.903,7.1672e-05,0
2.9035,7.1e-05,0
2.904,7.1672e-05,0
2.9045,8.3757e-05,0
2.905,0.0001034,0
2.9055,0.00011162,0
2.906,9.987e-05,0
2.9065,8.1743e-05,0
2.907,6.3951e-05,0
2.9075,4.0116e-05,0
2.908,1.8799e-05,0
2.9085,1.8128e-05,0
2.909,4.0787e-05,0
2.9095,7.1336e-05,0
2.91,9.0303e-05,0
2.9105,0.00010021,0
2.911,0.00010961,0
2.9115,0.00011968,0
2.912,0.00012538,0
2.9125,0.00012522,0
2.913,0.00012471,0
2.9135,0.00013545,0
2.914,0.00013478,0
2.9145,7.2343e-05,0
2.915,-4.918e-05,0
2.9155,-0.0001566,0
2.916,-0.00019554,0
2.9165,-0.00018061,0
2.917,-0.00016432,0
2.9175,-0.00017003,0
2.918,-0.00015409,0
2.9185,-9.836e-05,0
2.919,-4.1795e-05,0
2.9195,-9.5674e-06,0
2.92,1.1078e-05,0
2.9205,2.6352e-05,0
2.921,3.9277e-05,0
2.9215,5.8579e-05,0
2.922,8.1743e-05,0
2.9225,9.6849e-05,0
2.923,9.9367e-05,0
2.9235,9.2485e-05,0
2.924,7.5532e-05,0
2.9245,5.6901e-05,0
2.925,5.1194e-05,0
2.9255,6.1601e-05,0
2.926,7.5029e-05,0
2.9265,8.1743e-05,0
2.927,7.9225e-05,0
2.9275,5.0355e-05,0
2.928,-8.3925e-06,0
2.9285,-5.4215e-05,0
2.929,-4.8844e-05,0
2.9295,0,0
2.93,4.2634e-05,0
2.9305,5.2872e-05,0
2.931,4.6494e-05,0
2.9315,2.5345e-05,0
2.932,-1.6617e-05,0
2.9325,-7.6875e-05,0
2.933,-0.00014972,0
2.9335,-0.00020159,0
2.934,-0.00020528,0
2.9345,-0.0001754,0
2.935,-0.0001415,0
2.9355,-0.00010843,0
2.936,-6.9322e-05,0
2.9365,-2.5681e-05,0
2.937,1.091e-05,0
2.9375,3.3906e-05,0
2.938,5.0355e-05,0
2.9385,6.3447e-05,0
2.939,6.8482e-05,0
2.9395,7.1504e-05,0
2.94,7.8721e-05,0
2.9405,8.6275e-05,0
2.941,8.9799e-05,0
2.9415,8.745e-05,0
2.942,8.5267e-05,0
2.9425,9.0471e-05,0
2.943,9.8192e-05,0
2.9435,0.00010105,0
2.944,9.5674e-05,0
2.9445,7.5029e-05,0
2.945,4.213e-05,0
2.9455,1.8631e-05,0
2.946,6.2104e-06,0
2.9465,-1.4267e-05,0
2.947,-4.5655e-05,0
2.9475,-7.3686e-05,0
2.948,-7.6204e-05,0
2.9485,-4.8005e-05,0
2.949,-7.8889e-06,0
2.9495,1.5778e-05,0
2.95,8.2246e-06,0
2.9505,8.392e-07,0
2.951,1.2253e-05,0
2.9515,2.8031e-05,0
2.952,3.122e-05,0
2.9525,2.2324e-05,0
2.953,1.0575e-05,0
2.9535,4.6998e-06,0
2.954,1.2924e-05,0
2.9545,2.9709e-05,0
2.955,4.3137e-05,0
2.9555,5.0858e-05,0
2.956,6.1265e-05,0
2.9565,7.1336e-05,0
2.957,7.8386e-05,0
2.9575,8.6778e-05,0
2.958,9.2149e-05,0
2.9585,9.2485e-05,0
2.959,9.0806e-05,0
2.9595,9.2149e-05,0
2.96,9.3828e-05,0
2.9605,8.9464e-05,0
2.961,7.8721e-05,0
2.9615,6.1265e-05,0
2.962,3.3402e-05,0
2.9625,5.8747e-06,0
2.963,-8.3925e-06,0
2.9635,5.035e-07,0
2.964,2.3163e-05,0
2.9645,4.2802e-05,0
2.965,5.623e-05,0
2.9655,7.2343e-05,0
2.966,8.9128e-05,0
2.9665,9.9199e-05,0
2.967,0.00010239,0
2.9675,9.3156e-05,0
2.968,7.335e-05,0
2.9685,3.9612e-05,0
2.969,-1.3428e-05,0
2.9695,-6.9657e-05,0
2.97,-0.00011682,0
2.9705,-0.0001467,0
2.971,-0.00012992,0
2.9715,-5.7572e-05,0
2.972,2.6017e-05,0
2.9725,8.4093e-05,0
2.973,0.00011363,0
2.9735,0.00012421,0
2.974,0.00012203,0
2.9745,0.00010574,0
2.975,7.5532e-05,0
2.9755,3.8773e-05,0
2.976,-7.5532e-06,0
2.9765,-5.4048e-05,0
2.977,-8.3421e-05,0
2.9775,-0.00010222,0
2.978,-0.00011968,0
2.9785,-0.00013378,0
2.979,-0.00012941,0
2.9795,-0.00010491,0
2.98,-6.9154e-05,0
2.9805,-2.1653e-05,0
2.981,2.4506e-05,0
2.9815,3.6423e-05,0
2.982,2.3667e-05,0
2.9825,2.6184e-05,0
2.983,5.153e-05,0
2.9835,8.8792e-05,0
2.984,0.00011699,0
2.9845,0.00010642,0
2.985,5.9587e-05,0
2.9855,1.5946e-05,0
2.986,-5.0355e-06,0
2.9865,-2.8534e-06,0
2.987,-2.182e-06,0
2.9875,-3.508e-05,0
2.988,-6.0594e-05,0
2.9885,-1.6281e-05,0
2.989,6.6972e-05,0
2.9895,0.00012605,0
2.99,0.00014821,0
2.9905,0.00013982,0
2.991,0.0001086,0
2.9915,7.0329e-05,0
2.992,2.266e-05,0
2.9925,-5.304e-05,0
2.993,-0.00012992,0
2.9935,-0.00015879,0
2.994,-0.00013797,0
2.9945,-0.00010071,0
2.995,-8.4428e-05,0
2.9955,-8.8457e-05,0
2.996,-8.5771e-05,0
2.9965,-6.9993e-05,0
2.997,-4.213e-05,0
2.9975,-9.9031e-06,0
2.998,2.0478e-05,0
2.9985,5.0858e-05,0
2.999,8.1071e-05,0
2.9995,0.00010256,0
3,0.0001133,0
3.0005,0.000118,0
3.001,0.00012052,0
3.0015,0.00012001,0
3.002,0.00010188,0
3.0025,5.7237e-05,0
3.003,-4.3641e-06,0
3.0035,-4.3809e-05,0
3.004,-5.0019e-05,0
3.0045,-4.7837e-05,0
3.005,-4.7837e-05,0
3.0055,-4.3137e-05,0
3.006,-2.2828e-05,0
3.0065,1.0407e-05,0
3.007,3.1724e-05,0
3.0075,3.827e-05,0
3.008,4.5823e-05,0
3.0085,6.3279e-05,0
3.009,9.3828e-05,0
3.0095,0.00011984,0
3.01,0.00011632,0
3.0105,8.8457e-05,0
3.011,5.4215e-05,0
3.0115,3.0549e-05,0
3.012,2.0646e-05,0
3.0125,1.3932e-05,0
3.013,2.3499e-06,0
3.0135,-2.0142e-05,0
3.014,-4.0787e-05,0
3.0145,-3.978e-05,0
3.015,-1.1582e-05,0
3.0155,1.8296e-05,0
3.016,3.978e-05,0
3.0165,5.4048e-05,0
3.017,6.0258e-05,0
3.0175,6.0258e-05,0
3.018,5.5558e-05,0
3.0185,4.9683e-05,0
3.019,4.8844e-05,0
3.0195,4.2634e-05,0
3.02,2.266e-05,0
3.0205,-1.3428e-06,0
3.021,-2.266e-05,0
3.0215,-2.5345e-05,0
3.022,-6.8818e-06,0
3.0225,1.5778e-05,0
3.023,2.9374e-05,0
3.0235,2.7192e-05,0
3.024,1.9303e-05,0
3.0245,2.4674e-05,0
3.025,5.1362e-05,0
3.0255,8.8289e-05,0
3.026,0.00012169,0
3.0265,0.00014267,0
3.027,0.00015023,0
3.0275,0.00015325,0
3.028,0.0001556,0
3.0285,0.00015694,0
3.029,0.00013713,0
3.0295,9.3492e-05,0
3.03,5.2872e-05,0
3.0305,2.5345e-05,0
3.031,-3.6927e-06,0
3.0315,-4.5151e-05,0
3.032,-7.6707e-05,0
3.0325,-8.661e-05,0
3.033,-0.00010558,0
3.0335,-0.00014368,0
3.034,-0.00016365,0
3.0345,-0.00014015,0
3.035,-9.6849e-05,0
3.0355,-6.8818e-05,0
3.036,-5.5222e-05,0
3.0365,-3.8102e-05,0
3.037,-1.8631e-05,0
3.0375,-1.8296e-05,0
3.038,-3.508e-05,0
3.0385,-3.4409e-05,0
3.039,-8.2246e-06,0
3.0395,1.8128e-05,0
3.04,4.4144e-05,0
3.0405,6.8315e-05,0
3.041,7.5029e-05,0
3.0415,6.2104e-05,0
3.042,4.8005e-05,0
3.0425,4.7501e-05,0
3.043,4.4648e-05,0
3.0435,3.743e-05,0
3.044,4.4816e-05,0
3.0445,5.7908e-05,0
3.045,6.1601e-05,0
3.0455,5.8915e-05,0
3.046,6.4958e-05,0
3.0465,8.3757e-05,0
3.047,0.00010457,0
3.0475,0.00012152,0
3.048,0.00013176,0
3.0485,0.00013277,0
3.049,0.00012068,0
3.0495,9.0471e-05,0
3.05,5.8747e-05,0
3.0505,4.2802e-05,0
3.051,4.2802e-05,0
3.0515,4.2634e-05,0
3.052,2.9206e-05,0
3.0525,2.5177e-06,0
3.053,-4.3137e-05,0
3.0535,-9.3828e-05,0
3.054,-0.00010893,0
3.0545,-6.4958e-05,0
3.055,2.182e-06,0
3.0555,3.6088e-05,0
3.056,2.5009e-05,0
3.0565,-3.8605e-06,0
3.057,-3.5752e-05,0
3.0575,-6.9322e-05,0
3.058,-0.00010222,0
3.0585,-0.00013512,0
3.059,-0.00014083,0
3.0595,-0.00010205,0
3.06,-3.3234e-05,0
3.0605,3.4577e-05,0
3.061,7.805e-05,0
3.0615,8.9464e-05,0
3.062,6.8818e-05,0
3.0625,2.4002e-05,0
3.063,-8.2246e-06,0
3.0635,-5.539e-06,0
3.064,-9.2317e-06,0
3.0645,-4.0787e-05,0
3.065,-5.0858e-05,0
3.0655,-1.5274e-05,0
3.066,2.3667e-05,0
3.0665,3.2059e-05,0
3.067,1.6449e-05,0
3.0675,-1.8463e-06,0
3.068,8.392e-07,0
3.0685,3.2395e-05,0
3.069,7.3518e-05,0
3.0695,0.00010188,0
3.07,0.00010809,0
3.0705,9.5506e-05,0
3.071,7.6204e-05,0
3.0715,6.63e-05,0
3.072,6.865e-05,0
3.0725,6.6972e-05,0
3.073,3.978e-05,0
3.0735,-3.1891e-06,0
3.074,-3.2731e-05,0
3.0745,-3.5248e-05,0
3.075,-2.887e-05,0
3.0755,-4.4312e-05,0
3.076,-6.3783e-05,0
3.0765,-5.8412e-05,0
3.077,-3.2563e-05,0
3.0775,-5.8747e-06,0
3.078,1.7288e-05,0
3.0785,4.213e-05,0
3.079,6.3615e-05,0
3.0795,8.04e-05,0
3.08,9.4499e-05,0
3.0805,0.00010256,0
3.081,0.00010625,0
3.0815,0.00010591,0
3.082,9.7856e-05,0
3.0825,9.5171e-05,0
3.083,9.7856e-05,0
3.0835,8.8457e-05,0
3.084,6.63e-05,0
3.0845,4.7166e-05,0
3.085,3.0045e-05,0
3.0855,9.0639e-06,0
3.086,-4.2298e-05,0
3.0865,-0.00012236,0
3.087,-0.000165,0
3.0875,-0.00014015,0
3.088,-8.0064e-05,0
3.0885,-2.2156e-05,0
3.089,1.4603e-05,0
3.0895,3.0381e-05,0
3.09,3.2395e-05,0
3.0905,3.743e-05,0
3.091,3.7934e-05,0
3.0915,2.4338e-05,0
3.092,0,0
3.0925,-2.1653e-05,0
3.093,-2.7695e-05,0
3.0935,-2.266e-05,0
3.094,-1.0071e-05,0
3.0945,1.5106e-06,0
3.095,1.326e-05,0
3.0955,3.3402e-05,0
3.096,5.3544e-05,0
