0,4.5319e-06,0
0.0005,3.5248e-06,0
0.001,6.2104e-06,0
0.0015,9.3996e-06,0
0.002,9.5674e-06,0
0.0025,9.7353e-06,0
0.003,9.9031e-06,0
0.0035,7.8889e-06,0
0.004,1.0239e-05,0
0.0045,1.8631e-05,0
0.005,2.6352e-05,0
0.0055,2.8702e-05,0
0.006,2.8031e-05,0
0.0065,2.7024e-05,0
0.007,2.4842e-05,0
0.0075,2.2324e-05,0
0.008,1.9638e-05,0
0.0085,1.8967e-05,0
0.009,1.9974e-05,0
0.0095,2.2492e-05,0
0.01,2.5345e-05,0
0.0105,2.6352e-05,0
0.011,2.5177e-05,0
0.0115,2.3331e-05,0
0.012,2.2492e-05,0
0.0125,2.266e-05,0
0.013,2.3667e-05,0
0.0135,2.3331e-05,0
0.014,2.2156e-05,0
0.0145,2.1317e-05,0
0.015,2.1988e-05,0
0.0155,2.3667e-05,0
0.016,2.3667e-05,0
0.0165,2.2995e-05,0
0.017,2.2492e-05,0
0.0175,2.0981e-05,0
0.018,1.9974e-05,0
0.0185,1.9806e-05,0
0.019,1.7288e-05,0
0.0195,1.3932e-05,0
0.02,1.3932e-05,0
0.0205,1.8631e-05,0
0.021,2.3667e-05,0
0.0215,2.5849e-05,0
0.022,2.6688e-05,0
0.0225,2.6352e-05,0
0.023,2.5009e-05,0
0.0235,2.1988e-05,0
0.024,1.7624e-05,0
0.0245,1.5946e-05,0
0.025,1.8631e-05,0
0.0255,2.1317e-05,0
0.026,2.1149e-05,0
0.0265,1.8463e-05,0
0.027,1.7624e-05,0
0.0275,1.7624e-05,0
0.028,1.561e-05,0
0.0285,1.561e-05,0
0.029,1.5946e-05,0
0.0295,1.6449e-05,0
0.03,1.7456e-05,0
0.0305,2.031e-05,0
0.031,2.2156e-05,0
0.0315,2.3331e-05,0
0.032,2.3835e-05,0
0.0325,2.3331e-05,0
0.033,2.2492e-05,0
0.0335,1.9303e-05,0
0.034,1.5778e-05,0
0.0345,1.7792e-05,0
0.035,2.0646e-05,0
0.0355,2.0142e-05,0
0.036,1.8631e-05,0
0.0365,1.796e-05,0
0.037,1.8967e-05,0
0.0375,1.8967e-05,0
0.038,1.7288e-05,0
0.0385,1.4267e-05,0
0.039,1.4603e-05,0
0.0395,1.8631e-05,0
0.04,2.1988e-05,0
0.0405,2.2324e-05,0
0.041,2.0478e-05,0
0.0415,1.8967e-05,0
0.042,1.796e-05,0
0.0425,1.8967e-05,0
0.043,2.031e-05,0
0.0435,2.0646e-05,0
0.044,2.1988e-05,0
0.0445,2.2324e-05,0
0.045,1.9806e-05,0
0.0455,1.8296e-05,0
0.046,1.6953e-05,0
0.0465,1.5946e-05,0
0.047,1.7288e-05,0
0.0475,1.9303e-05,0
0.048,1.6617e-05,0
0.0485,1.4099e-05,0
0.049,1.5106e-05,0
0.0495,1.5778e-05,0
0.05,1.4939e-05,0
0.0505,1.4771e-05,0
0.051,1.5442e-05,0
0.0515,1.4939e-05,0
0.052,1.2253e-05,0
0.0525,1.1246e-05,0
0.053,1.2421e-05,0
0.0535,1.2924e-05,0
0.054,1.326e-05,0
0.0545,1.4603e-05,0
0.055,1.5946e-05,0
0.0555,1.8296e-05,0
0.056,2.031e-05,0
0.0565,2.0478e-05,0
0.057,1.7288e-05,0
0.0575,1.2589e-05,0
0.058,1.0239e-05,0
0.0585,1.2253e-05,0
0.059,1.6114e-05,0
0.0595,1.7288e-05,0
0.06,1.6449e-05,0
0.0605,1.8631e-05,0
0.061,2.182e-05,0
0.0615,2.4002e-05,0
0.062,2.4674e-05,0
0.0625,2.5513e-05,0
0.063,2.6184e-05,0
0.0635,2.7359e-05,0
0.064,2.5009e-05,0
0.0645,2.4002e-05,0
0.065,2.6352e-05,0
0.0655,2.9877e-05,0
0.066,2.8367e-05,0
0.0665,2.6352e-05,0
0.067,2.5177e-05,0
0.0675,2.4674e-05,0
0.068,2.5345e-05,0
0.0685,2.6352e-05,0
0.069,2.5681e-05,0
0.0695,2.2324e-05,0
0.07,2.0981e-05,0
0.0705,2.1988e-05,0
0.071,2.3331e-05,0
0.0715,2.3835e-05,0
0.072,2.3499e-05,0
0.0725,2.266e-05,0
0.073,2.266e-05,0
0.0735,2.266e-05,0
0.074,2.1317e-05,0
0.0745,1.796e-05,0
0.075,1.2924e-05,0
0.0755,9.0639e-06,0
0.076,8.3925e-06,0
0.0765,1.0575e-05,0
0.077,1.2924e-05,0
0.0775,1.326e-05,0
0.078,1.326e-05,0
0.0785,1.1246e-05,0
0.079,1.1917e-05,0
0.0795,1.326e-05,0
0.08,1.2421e-05,0
0.0805,1.0575e-05,0
0.081,9.9031e-06,0
0.0815,1.1749e-05,0
0.082,1.5946e-05,0
0.0825,2.0646e-05,0
0.083,2.266e-05,0
0.0835,2.1988e-05,0
0.084,2.1317e-05,0
0.0845,2.3667e-05,0
0.085,2.6688e-05,0
0.0855,2.8367e-05,0
0.086,2.5345e-05,0
0.0865,2.182e-05,0
0.087,2.0813e-05,0
0.0875,2.2995e-05,0
0.088,2.4338e-05,0
0.0885,2.3163e-05,0
0.089,2.266e-05,0
0.0895,2.3667e-05,0
0.09,2.2995e-05,0
0.0905,2.0646e-05,0
0.091,1.8631e-05,0
0.0915,1.7792e-05,0
0.092,1.5946e-05,0
0.0925,1.5274e-05,0
0.093,1.6617e-05,0
0.0935,1.8296e-05,0
0.094,1.8631e-05,0
0.0945,1.8296e-05,0
0.095,1.7288e-05,0
0.0955,1.6449e-05,0
0.096,1.5274e-05,0
0.0965,1.6449e-05,0
0.097,1.8296e-05,0
0.0975,1.7792e-05,0
0.098,1.4939e-05,0
0.0985,1.2924e-05,0
0.099,1.2924e-05,0
0.0995,1.5274e-05,0
0.1,1.7288e-05,0
0.1005,1.7456e-05,0
0.101,1.8631e-05,0
0.1015,1.8296e-05,0
0.102,1.7288e-05,0
0.1025,1.7288e-05,0
0.103,1.4939e-05,0
0.1035,1.3092e-05,0
0.104,1.4099e-05,0
0.1045,1.6114e-05,0
0.105,1.5106e-05,0
0.1055,1.4099e-05,0
0.106,1.5778e-05,0
0.1065,1.7288e-05,0
0.107,1.3428e-05,0
0.1075,9.5674e-06,0
0.108,1.0575e-05,0
0.1085,1.2253e-05,0
0.109,1.561e-05,0
0.1095,1.8631e-05,0
0.11,2.2324e-05,0
0.1105,2.5009e-05,0
0.111,2.3331e-05,0
0.1115,1.9806e-05,0
0.112,1.8296e-05,0
0.1125,1.9303e-05,0
0.113,1.9806e-05,0
0.1135,2.0646e-05,0
0.114,2.3667e-05,0
0.1145,2.8031e-05,0
0.115,3.0549e-05,0
0.1155,2.8367e-05,0
0.116,2.3499e-05,0
0.1165,2.1988e-05,0
0.117,2.3835e-05,0
0.1175,2.4002e-05,0
0.118,2.2492e-05,0
0.1185,2.266e-05,0
0.119,2.1988e-05,0
0.1195,2.0478e-05,0
0.12,1.9806e-05,0
0.1205,1.9974e-05,0
0.121,2.1988e-05,0
0.1215,2.3667e-05,0
0.122,2.3835e-05,0
0.1225,2.1988e-05,0
0.123,2.1988e-05,0
0.1235,2.652e-05,0
0.124,2.9374e-05,0
0.1245,2.8702e-05,0
0.125,2.5849e-05,0
0.1255,2.3331e-05,0
0.126,2.182e-05,0
0.1265,1.9638e-05,0
0.127,1.6953e-05,0
0.1275,1.5442e-05,0
0.128,1.3932e-05,0
0.1285,1.5946e-05,0
0.129,1.9638e-05,0
0.1295,2.1317e-05,0
0.13,2.0646e-05,0
0.1305,2.031e-05,0
0.131,1.947e-05,0
0.1315,1.796e-05,0
0.132,1.6449e-05,0
0.1325,1.5274e-05,0
0.133,1.4435e-05,0
0.1335,1.6953e-05,0
0.134,2.031e-05,0
0.1345,2.1149e-05,0
0.135,1.8967e-05,0
0.1355,1.6785e-05,0
0.136,1.5778e-05,0
0.1365,1.5442e-05,0
0.137,1.4099e-05,0
0.1375,1.326e-05,0
0.138,1.4603e-05,0
0.1385,1.4603e-05,0
0.139,1.326e-05,0
0.1395,1.4603e-05,0
0.14,1.8463e-05,0
0.1405,2.2324e-05,0
0.141,2.3331e-05,0
0.1415,2.266e-05,0
0.142,2.2828e-05,0
0.1425,2.4002e-05,0
0.143,2.5009e-05,0
0.1435,2.5009e-05,0
0.144,2.3331e-05,0
0.1445,2.1317e-05,0
0.145,1.9974e-05,0
0.1455,1.796e-05,0
0.146,1.326e-05,0
0.1465,9.7353e-06,0
0.147,9.9031e-06,0
0.1475,1.2757e-05,0
0.148,1.3932e-05,0
0.1485,1.5946e-05,0
0.149,1.5946e-05,0
0.1495,1.5274e-05,0
0.15,1.5106e-05,0
0.1505,1.3092e-05,0
0.151,1.0407e-05,0
0.1515,1.1078e-05,0
0.152,1.3932e-05,0
0.1525,1.4435e-05,0
0.153,1.2589e-05,0
0.1535,1.3092e-05,0
0.154,1.4603e-05,0
0.1545,1.4939e-05,0
0.155,1.4435e-05,0
0.1555,1.5106e-05,0
0.156,1.2589e-05,0
0.1565,1.1246e-05,0
0.157,1.5106e-05,0
0.1575,1.7288e-05,0
0.158,1.6617e-05,0
0.1585,1.7456e-05,0
0.159,1.8296e-05,0
0.1595,1.8631e-05,0
0.16,1.9638e-05,0
0.1605,1.947e-05,0
0.161,1.8967e-05,0
0.1615,1.8128e-05,0
0.162,1.7121e-05,0
0.1625,1.8631e-05,0
0.163,2.2995e-05,0
0.1635,2.5009e-05,0
0.164,2.4002e-05,0
0.1645,2.2324e-05,0
0.165,2.1317e-05,0
0.1655,2.0646e-05,0
0.166,1.9638e-05,0
0.1665,2.0981e-05,0
0.167,2.3163e-05,0
0.1675,2.4002e-05,0
0.168,2.266e-05,0
0.1685,2.182e-05,0
0.169,1.8967e-05,0
0.1695,1.6281e-05,0
0.17,1.7121e-05,0
0.1705,1.796e-05,0
0.171,1.6953e-05,0
0.1715,1.5946e-05,0
0.172,1.7121e-05,0
0.1725,1.796e-05,0
0.173,1.8463e-05,0
0.1735,1.8463e-05,0
0.174,1.8296e-05,0
0.1745,1.8631e-05,0
0.175,2.0981e-05,0
0.1755,2.4674e-05,0
0.176,2.5849e-05,0
0.1765,2.4674e-05,0
0.177,2.3163e-05,0
0.1775,2.4506e-05,0
0.178,2.7527e-05,0
0.1785,2.7863e-05,0
0.179,2.5345e-05,0
0.1795,2.4674e-05,0
0.18,2.5009e-05,0
0.1805,2.4674e-05,0
0.181,2.4674e-05,0
0.1815,2.5009e-05,0
0.182,2.4002e-05,0
0.1825,2.2324e-05,0
0.183,1.9974e-05,0
0.1835,1.8631e-05,0
0.184,1.5946e-05,0
0.1845,1.326e-05,0
0.185,1.326e-05,0
0.1855,1.3764e-05,0
0.186,1.5274e-05,0
0.1865,1.8967e-05,0
0.187,2.2324e-05,0
0.1875,2.2324e-05,0
0.188,2.031e-05,0
0.1885,1.9638e-05,0
0.189,1.9974e-05,0
0.1895,1.8296e-05,0
0.19,1.4435e-05,0
0.1905,1.2085e-05,0
0.191,1.3932e-05,0
0.1915,1.326e-05,0
0.192,1.1414e-05,0
0.1925,1.3932e-05,0
0.193,1.6617e-05,0
0.1935,1.4603e-05,0
0.194,1.0575e-05,0
0.1945,1.2421e-05,0
0.195,1.8128e-05,0
0.1955,2.1988e-05,0
0.196,2.3667e-05,0
0.1965,2.4002e-05,0
0.197,2.3499e-05,0
0.1975,2.3667e-05,0
0.198,2.2828e-05,0
0.1985,2.2324e-05,0
0.199,2.417e-05,0
0.1995,2.2995e-05,0
0.2,2.1317e-05,0
0.2005,1.9974e-05,0
0.201,1.796e-05,0
0.2015,1.8631e-05,0
0.202,2.1149e-05,0
0.2025,2.1317e-05,0
0.203,2.031e-05,0
0.2035,1.9638e-05,0
0.204,1.7624e-05,0
0.2045,1.5946e-05,0
0.205,1.3932e-05,0
0.2055,1.2757e-05,0
0.206,1.3932e-05,0
0.2065,1.6617e-05,0
0.207,1.8463e-05,0
0.2075,1.9638e-05,0
0.208,2.031e-05,0
0.2085,1.8631e-05,0
0.209,1.5274e-05,0
0.2095,1.3764e-05,0
0.21,1.5946e-05,0
0.2105,1.947e-05,0
0.211,2.031e-05,0
0.2115,1.9135e-05,0
0.212,1.8631e-05,0
0.2125,1.8631e-05,0
0.213,1.9974e-05,0
0.2135,2.182e-05,0
0.214,2.2492e-05,0
0.2145,2.3163e-05,0
0.215,2.2995e-05,0
0.2155,2.266e-05,0
0.216,2.2324e-05,0
0.2165,2.0142e-05,0
0.217,1.9135e-05,0
0.2175,1.9974e-05,0
0.218,2.0646e-05,0
0.2185,1.7792e-05,0
0.219,1.6617e-05,0
0.2195,2.0142e-05,0
0.22,2.0981e-05,0
0.2205,1.9974e-05,0
0.221,1.9974e-05,0
0.2215,2.0981e-05,0
0.222,1.9638e-05,0
0.2225,1.8631e-05,0
0.223,1.9638e-05,0
0.2235,2.1317e-05,0
0.224,2.3163e-05,0
0.2245,2.4338e-05,0
0.225,2.1988e-05,0
0.2255,1.9303e-05,0
0.226,1.9303e-05,0
0.2265,2.2995e-05,0
0.227,2.6688e-05,0
0.2275,2.8367e-05,0
0.228,2.7695e-05,0
0.2285,2.5009e-05,0
0.229,2.1317e-05,0
0.2295,1.9638e-05,0
0.23,2.0813e-05,0
0.2305,1.9974e-05,0
0.231,1.7624e-05,0
0.2315,1.6617e-05,0
0.232,1.7624e-05,0
0.2325,1.8967e-05,0
0.233,1.8631e-05,0
0.2335,1.796e-05,0
0.234,1.8296e-05,0
0.2345,1.8967e-05,0
0.235,1.8631e-05,0
0.2355,1.6617e-05,0
0.236,1.4939e-05,0
0.2365,1.6785e-05,0
0.237,1.8967e-05,0
0.2375,1.796e-05,0
0.238,1.5106e-05,0
0.2385,1.1917e-05,0
0.239,1.1078e-05,0
0.2395,1.2589e-05,0
0.24,1.2085e-05,0
0.2405,1.0575e-05,0
0.241,1.1582e-05,0
0.2415,1.3932e-05,0
0.242,1.561e-05,0
0.2425,1.7121e-05,0
0.243,1.8967e-05,0
0.2435,1.8967e-05,0
0.244,1.8296e-05,0
0.2445,1.9974e-05,0
0.245,1.9806e-05,0
0.2455,1.561e-05,0
0.246,1.3596e-05,0
0.2465,1.7288e-05,0
0.247,1.9974e-05,0
0.2475,1.7624e-05,0
0.248,1.3596e-05,0
0.2485,1.1582e-05,0
0.249,1.0407e-05,0
0.2495,9.2317e-06,0
0.25,8.896e-06,0
0.2505,1.1414e-05,0
0.251,1.4267e-05,0
0.2515,1.4939e-05,0
0.252,1.6953e-05,0
0.2525,1.9638e-05,0
0.253,2.1317e-05,0
0.2535,2.2995e-05,0
0.254,2.3499e-05,0
0.2545,2.4674e-05,0
0.255,2.5345e-05,0
0.2555,2.4842e-05,0
0.256,2.2995e-05,0
0.2565,2.031e-05,0
0.257,1.9638e-05,0
0.2575,1.947e-05,0
0.258,2.0646e-05,0
0.2585,2.1988e-05,0
0.259,2.266e-05,0
0.2595,2.3331e-05,0
0.26,2.1653e-05,0
0.2605,1.8799e-05,0
0.261,1.796e-05,0
0.2615,1.9638e-05,0
0.262,2.1149e-05,0
0.2625,2.2828e-05,0
0.263,2.4002e-05,0
0.2635,2.4674e-05,0
0.264,2.4338e-05,0
0.2645,2.2492e-05,0
0.265,2.1149e-05,0
0.2655,1.9638e-05,0
0.266,1.7792e-05,0
0.2665,1.7456e-05,0
0.267,1.6785e-05,0
0.2675,1.5946e-05,0
0.268,1.4099e-05,0
0.2685,1.6617e-05,0
0.269,2.0981e-05,0
0.2695,2.1149e-05,0
0.27,1.8128e-05,0
0.2705,1.6953e-05,0
0.271,1.796e-05,0
0.2715,1.8631e-05,0
0.272,1.9638e-05,0
0.2725,2.0981e-05,0
0.273,2.1317e-05,0
0.2735,2.1317e-05,0
0.274,2.1988e-05,0
0.2745,2.4002e-05,0
0.275,2.5345e-05,0
0.2755,2.6017e-05,0
0.276,2.3667e-05,0
0.2765,2.0646e-05,0
0.277,1.9806e-05,0
0.2775,2.031e-05,0
0.278,2.0981e-05,0
0.2785,2.031e-05,0
0.279,1.6785e-05,0
0.2795,1.4435e-05,0
0.28,1.6785e-05,0
0.2805,1.796e-05,0
0.281,1.4267e-05,0
0.2815,7.8889e-06,0
0.282,6.3783e-06,0
0.2825,1.0575e-05,0
0.283,1.4603e-05,0
0.2835,1.5442e-05,0
0.284,1.561e-05,0
0.2845,1.4771e-05,0
0.285,1.3092e-05,0
0.2855,1.1078e-05,0
0.286,1.2757e-05,0
0.2865,1.5274e-05,0
0.287,1.4435e-05,0
0.2875,1.2589e-05,0
0.288,1.2253e-05,0
0.2885,1.4267e-05,0
0.289,1.796e-05,0
0.2895,2.0646e-05,0
0.29,2.1988e-05,0
0.2905,2.2492e-05,0
0.291,2.3835e-05,0
0.2915,2.5345e-05,0
0.292,2.4002e-05,0
0.2925,2.1317e-05,0
0.293,1.9135e-05,0
0.2935,1.796e-05,0
0.294,1.7792e-05,0
0.2945,1.8631e-05,0
0.295,1.9974e-05,0
0.2955,2.0478e-05,0
0.296,1.947e-05,0
0.2965,1.8967e-05,0
0.297,1.7624e-05,0
0.2975,1.8631e-05,0
0.298,2.0478e-05,0
0.2985,2.0142e-05,0
0.299,1.5946e-05,0
0.2995,1.3932e-05,0
0.3,1.3092e-05,0
0.3005,1.2421e-05,0
0.301,1.2421e-05,0
0.3015,1.3596e-05,0
0.302,1.4939e-05,0
0.3025,1.5274e-05,0
0.303,1.7288e-05,0
0.3035,1.7624e-05,0
0.304,1.7624e-05,0
0.3045,1.9638e-05,0
0.305,1.9974e-05,0
0.3055,1.9135e-05,0
0.306,2.0813e-05,0
0.3065,2.4506e-05,0
0.307,2.5681e-05,0
0.3075,2.3835e-05,0
0.308,2.1317e-05,0
0.3085,2.0646e-05,0
0.309,2.1317e-05,0
0.3095,2.1317e-05,0
0.31,2.1988e-05,0
0.3105,2.266e-05,0
0.311,2.3331e-05,0
0.3115,2.4338e-05,0
0.312,2.5345e-05,0
0.3125,2.7527e-05,0
0.313,2.7527e-05,0
0.3135,2.3331e-05,0
0.314,1.8631e-05,0
0.3145,2.0813e-05,0
0.315,2.6352e-05,0
0.3155,3.0045e-05,0
0.316,3.1388e-05,0
0.3165,3.0045e-05,0
0.317,3.0213e-05,0
0.3175,2.9374e-05,0
0.318,2.6688e-05,0
0.3185,2.5009e-05,0
0.319,2.3835e-05,0
0.3195,2.1149e-05,0
0.32,1.947e-05,0
0.3205,1.9303e-05,0
0.321,1.9135e-05,0
0.3215,1.9806e-05,0
0.322,2.0981e-05,0
0.3225,2.182e-05,0
0.323,2.1317e-05,0
0.3235,1.8631e-05,0
0.324,1.4939e-05,0
0.3245,1.4603e-05,0
0.325,1.561e-05,0
0.3255,1.3932e-05,0
0.326,1.3092e-05,0
0.3265,1.5946e-05,0
0.327,1.8631e-05,0
0.3275,1.9638e-05,0
0.328,1.8296e-05,0
0.3285,1.4771e-05,0
0.329,1.1078e-05,0
0.3295,1.0575e-05,0
0.33,1.1246e-05,0
0.3305,1.1414e-05,0
0.331,1.0071e-05,0
0.3315,8.2246e-06,0
0.332,5.8747e-06,0
0.3325,3.8605e-06,0
0.333,3.1891e-06,0
0.3335,5.2033e-06,0
0.334,9.9031e-06,0
0.3345,1.3092e-05,0
0.335,1.3092e-05,0
0.3355,1.326e-05,0
0.336,1.561e-05,0
0.3365,1.947e-05,0
0.337,2.2156e-05,0
0.3375,2.3331e-05,0
0.338,2.5345e-05,0
0.3385,2.5345e-05,0
0.339,2.4002e-05,0
0.3395,2.4002e-05,0
0.34,2.3835e-05,0
0.3405,2.031e-05,0
0.341,1.8631e-05,0
0.3415,2.0142e-05,0
0.342,2.1317e-05,0
0.3425,2.1149e-05,0
0.343,2.0646e-05,0
0.3435,2.2324e-05,0
0.344,2.4002e-05,0
0.3445,2.4506e-05,0
0.345,2.7359e-05,0
0.3455,3.1724e-05,0
0.346,3.4409e-05,0
0.3465,3.3738e-05,0
0.347,3.0716e-05,0
0.3475,2.7192e-05,0
0.348,2.4674e-05,0
0.3485,2.266e-05,0
0.349,2.0142e-05,0
0.3495,1.9303e-05,0
0.35,1.8463e-05,0
0.3505,1.6953e-05,0
0.351,1.4939e-05,0
0.3515,1.326e-05,0
0.352,1.2253e-05,0
0.3525,1.4939e-05,0
0.353,1.8967e-05,0
0.3535,1.9638e-05,0
0.354,1.3764e-05,0
0.3545,1.1246e-05,0
0.355,1.3596e-05,0
0.3555,1.561e-05,0
0.356,1.561e-05,0
0.3565,1.561e-05,0
0.357,1.4939e-05,0
0.3575,1.1582e-05,0
0.358,9.9031e-06,0
0.3585,1.091e-05,0
0.359,1.326e-05,0
0.3595,1.5106e-05,0
0.36,1.4939e-05,0
0.3605,1.4267e-05,0
0.361,1.2589e-05,0
0.3615,9.5674e-06,0
0.362,7.2175e-06,0
0.3625,7.2175e-06,0
0.363,9.9031e-06,0
0.3635,1.0575e-05,0
0.364,1.091e-05,0
0.3645,1.4435e-05,0
0.365,1.7288e-05,0
0.3655,1.5274e-05,0
0.366,1.1749e-05,0
0.3665,1.091e-05,0
0.367,1.4603e-05,0
0.3675,1.796e-05,0
0.368,1.796e-05,0
0.3685,1.6281e-05,0
0.369,1.5274e-05,0
0.3695,1.7624e-05,0
0.37,2.0478e-05,0
0.3705,2.1988e-05,0
0.371,2.2828e-05,0
0.3715,2.4674e-05,0
0.372,2.8031e-05,0
0.3725,2.9374e-05,0
0.373,2.8367e-05,0
0.3735,2.7695e-05,0
0.374,2.6688e-05,0
0.3745,2.8031e-05,0
0.375,3.1388e-05,0
0.3755,3.2059e-05,0
0.376,3.0045e-05,0
0.3765,2.7359e-05,0
0.377,2.6017e-05,0
0.3775,2.266e-05,0
0.378,1.8631e-05,0
0.3785,1.7288e-05,0
0.379,1.7792e-05,0
0.3795,1.796e-05,0
0.38,1.9135e-05,0
0.3805,2.031e-05,0
0.381,2.1988e-05,0
0.3815,2.3835e-05,0
0.382,2.5009e-05,0
0.3825,2.4338e-05,0
0.383,2.2324e-05,0
0.3835,2.1988e-05,0
0.384,2.4002e-05,0
0.3845,2.3835e-05,0
0.385,2.3835e-05,0
0.3855,2.5009e-05,0
0.386,2.4674e-05,0
0.3865,2.4338e-05,0
0.387,2.3499e-05,0
0.3875,2.0981e-05,0
0.388,1.8631e-05,0
0.3885,1.9638e-05,0
0.389,2.2995e-05,0
0.3895,2.5681e-05,0
0.39,2.6017e-05,0
0.3905,2.5345e-05,0
0.391,2.5345e-05,0
0.3915,2.6688e-05,0
0.392,2.7192e-05,0
0.3925,2.652e-05,0
0.393,2.6184e-05,0
0.3935,2.5849e-05,0
0.394,2.3331e-05,0
0.3945,2.0142e-05,0
0.395,1.8296e-05,0
0.3955,1.8296e-05,0
0.396,1.796e-05,0
0.3965,1.7288e-05,0
0.397,1.6953e-05,0
0.3975,1.8463e-05,0
0.398,1.8967e-05,0
0.3985,1.7624e-05,0
0.399,1.7624e-05,0
0.3995,1.9135e-05,0
0.4,2.0646e-05,0
0.4005,2.0981e-05,0
0.401,1.8631e-05,0
0.4015,1.5946e-05,0
0.402,1.5274e-05,0
0.4025,1.4939e-05,0
0.403,1.4435e-05,0
0.4035,1.326e-05,0
0.404,1.4267e-05,0
0.4045,1.4603e-05,0
0.405,1.3596e-05,0
0.4055,1.0575e-05,0
0.406,8.2246e-06,0
0.4065,6.5461e-06,0
0.407,5.2033e-06,0
0.4075,7.8889e-06,0
0.408,1.0575e-05,0
0.4085,1.1582e-05,0
0.409,1.1246e-05,0
0.4095,9.5674e-06,0
0.41,8.5603e-06,0
0.4105,8.896e-06,0
0.411,8.896e-06,0
0.4115,8.896e-06,0
0.412,9.7353e-06,0
0.4125,9.2317e-06,0
0.413,1.0071e-05,0
0.4135,1.4603e-05,0
0.414,1.6953e-05,0
0.4145,1.4603e-05,0
0.415,1.561e-05,0
0.4155,1.9638e-05,0
0.416,2.1988e-05,0
0.4165,2.1653e-05,0
0.417,2.1317e-05,0
0.4175,2.0813e-05,0
0.418,1.9974e-05,0
0.4185,2.031e-05,0
0.419,2.031e-05,0
0.4195,1.7456e-05,0
0.42,1.3932e-05,0
0.4205,1.2589e-05,0
0.421,1.4267e-05,0
0.4215,1.8296e-05,0
0.422,2.1317e-05,0
0.4225,2.2324e-05,0
0.423,2.2156e-05,0
0.4235,2.0813e-05,0
0.424,1.9974e-05,0
0.4245,2.0478e-05,0
0.425,2.1317e-05,0
0.4255,2.1653e-05,0
0.426,2.0981e-05,0
0.4265,1.9974e-05,0
0.427,1.8631e-05,0
0.4275,1.7288e-05,0
0.428,1.8128e-05,0
0.4285,2.0142e-05,0
0.429,2.3163e-05,0
0.4295,2.6688e-05,0
0.43,2.8031e-05,0
0.4305,2.7863e-05,0
0.431,2.7192e-05,0
0.4315,2.5345e-05,0
0.432,2.3163e-05,0
0.4325,2.0981e-05,0
0.433,1.9806e-05,0
0.4335,2.0478e-05,0
0.434,2.2324e-05,0
0.4345,2.4002e-05,0
0.435,2.1988e-05,0
0.4355,1.9806e-05,0
0.436,1.9303e-05,0
0.4365,1.9974e-05,0
0.437,1.8463e-05,0
0.4375,1.8967e-05,0
0.438,2.2995e-05,0
0.4385,2.5681e-05,0
0.439,2.5009e-05,0
0.4395,2.1317e-05,0
0.44,1.7121e-05,0
0.4405,1.4099e-05,0
0.441,1.4435e-05,0
0.4415,1.5274e-05,0
0.442,1.3596e-05,0
0.4425,1.4267e-05,0
0.443,1.7792e-05,0
0.4435,1.9974e-05,0
0.444,1.8967e-05,0
0.4445,1.7288e-05,0
0.445,1.6281e-05,0
0.4455,1.6617e-05,0
0.446,1.6785e-05,0
0.4465,1.7121e-05,0
0.447,1.947e-05,0
0.4475,2.2995e-05,0
0.448,2.3331e-05,0
0.4485,2.4002e-05,0
0.449,2.5849e-05,0
0.4495,2.5849e-05,0
0.45,2.266e-05,0
0.4505,2.031e-05,0
0.451,1.9638e-05,0
0.4515,1.9303e-05,0
0.452,1.5274e-05,0
0.4525,1.1749e-05,0
0.453,1.2757e-05,0
0.4535,1.5946e-05,0
0.454,1.8967e-05,0
0.4545,2.1317e-05,0
0.455,2.2324e-05,0
0.4555,2.1988e-05,0
0.456,2.1988e-05,0
0.4565,2.1988e-05,0
0.457,2.0813e-05,0
0.4575,1.9638e-05,0
0.458,1.9974e-05,0
0.4585,2.1653e-05,0
0.459,2.0813e-05,0
0.4595,1.8631e-05,0
0.46,1.7288e-05,0
0.4605,1.5946e-05,0
0.461,1.5106e-05,0
0.4615,1.5274e-05,0
0.462,1.5106e-05,0
0.4625,1.2589e-05,0
0.463,1.1917e-05,0
0.4635,1.3932e-05,0
0.464,1.5946e-05,0
0.4645,1.796e-05,0
0.465,1.7792e-05,0
0.4655,1.6953e-05,0
0.466,1.8296e-05,0
0.4665,1.9974e-05,0
0.467,1.8967e-05,0
0.4675,1.561e-05,0
0.468,1.4771e-05,0
0.4685,1.7121e-05,0
0.469,1.8967e-05,0
0.4695,1.9638e-05,0
0.47,2.1317e-05,0
0.4705,2.2492e-05,0
0.471,2.1988e-05,0
0.4715,2.1149e-05,0
0.472,2.2156e-05,0
0.4725,2.4338e-05,0
0.473,2.6688e-05,0
0.4735,2.5513e-05,0
0.474,2.2492e-05,0
0.4745,2.4002e-05,0
0.475,2.6688e-05,0
0.4755,2.6352e-05,0
0.476,2.4506e-05,0
0.4765,2.3331e-05,0
0.477,2.266e-05,0
0.4775,2.1988e-05,0
0.478,2.0981e-05,0
0.4785,2.2156e-05,0
0.479,2.2995e-05,0
0.4795,2.0981e-05,0
0.48,2.0142e-05,0
0.4805,2.1149e-05,0
0.481,2.2995e-05,0
0.4815,2.266e-05,0
0.482,2.2324e-05,0
0.4825,2.1317e-05,0
0.483,2.0142e-05,0
0.4835,1.9806e-05,0
0.484,2.0981e-05,0
0.4845,2.3499e-05,0
0.485,2.4002e-05,0
0.4855,2.0646e-05,0
0.486,1.6785e-05,0
0.4865,1.6953e-05,0
0.487,1.9806e-05,0
0.4875,2.2156e-05,0
0.488,2.1988e-05,0
0.4885,1.9974e-05,0
0.489,1.9974e-05,0
0.4895,1.9303e-05,0
0.49,1.8631e-05,0
0.4905,1.947e-05,0
0.491,2.031e-05,0
0.4915,2.1317e-05,0
0.492,1.9303e-05,0
0.4925,1.6449e-05,0
0.493,1.5778e-05,0
0.4935,1.6281e-05,0
0.494,1.7288e-05,0
0.4945,1.7792e-05,0
0.495,1.796e-05,0
0.4955,1.6281e-05,0
0.496,1.5274e-05,0
0.4965,1.6617e-05,0
0.497,1.8631e-05,0
0.4975,2.0478e-05,0
0.498,2.1317e-05,0
0.4985,2.0142e-05,0
0.499,1.8128e-05,0
0.4995,1.8128e-05,0
0.5,2.1149e-05,0
0.5005,2.2828e-05,0
0.501,2.0646e-05,0
0.5015,1.6281e-05,0
0.502,1.2924e-05,0
0.5025,1.1917e-05,0
0.503,1.3764e-05,0
0.5035,1.5946e-05,0
0.504,1.561e-05,0
0.5045,1.326e-05,0
0.505,1.2253e-05,0
0.5055,1.2589e-05,0
0.506,1.4099e-05,0
0.5065,1.561e-05,0
0.507,1.4435e-05,0
0.5075,1.1749e-05,0
0.508,1.091e-05,0
0.5085,1.0575e-05,0
0.509,1.0071e-05,0
0.5095,1.0071e-05,0
0.51,1.0071e-05,0
0.5105,9.9031e-06,0
0.511,1.2253e-05,0
0.5115,1.561e-05,0
0.512,1.796e-05,0
0.5125,1.8631e-05,0
0.513,1.9303e-05,0
0.5135,1.9303e-05,0
0.514,1.7624e-05,0
0.5145,1.7624e-05,0
0.515,2.0981e-05,0
0.5155,2.5177e-05,0
0.516,2.6017e-05,0
0.5165,2.3667e-05,0
0.517,1.9135e-05,0
0.5175,1.6281e-05,0
0.518,1.6449e-05,0
0.5185,1.7624e-05,0
0.519,1.9303e-05,0
0.5195,1.947e-05,0
0.52,1.7624e-05,0
0.5205,1.5946e-05,0
0.521,1.5946e-05,0
0.5215,1.7288e-05,0
0.522,1.7288e-05,0
0.5225,1.6617e-05,0
0.523,1.8463e-05,0
0.5235,1.9974e-05,0
0.524,1.8967e-05,0
0.5245,1.9303e-05,0
0.525,2.2156e-05,0
0.5255,2.3499e-05,0
0.526,2.4002e-05,0
0.5265,2.4002e-05,0
0.527,2.4002e-05,0
0.5275,2.1317e-05,0
0.528,1.6114e-05,0
0.5285,1.2085e-05,0
0.529,1.326e-05,0
0.5295,1.6953e-05,0
0.53,1.8128e-05,0
0.5305,1.8296e-05,0
0.531,1.9638e-05,0
0.5315,2.1317e-05,0
0.532,2.1149e-05,0
0.5325,1.9135e-05,0
0.533,1.9303e-05,0
0.5335,1.9974e-05,0
0.534,2.0142e-05,0
0.5345,2.182e-05,0
0.535,2.3331e-05,0
0.5355,2.4338e-05,0
0.536,2.5009e-05,0
0.5365,2.6017e-05,0
0.537,2.9206e-05,0
0.5375,2.9038e-05,0
0.538,2.5345e-05,0
0.5385,2.5345e-05,0
0.539,2.9374e-05,0
0.5395,3.2059e-05,0
0.54,3.0045e-05,0
0.5405,2.6184e-05,0
0.541,2.1653e-05,0
0.5415,1.9638e-05,0
0.542,1.9806e-05,0
0.5425,2.0478e-05,0
0.543,1.8296e-05,0
0.5435,1.561e-05,0
0.544,1.6617e-05,0
0.5445,1.8967e-05,0
0.545,1.8631e-05,0
0.5455,1.8128e-05,0
0.546,2.0478e-05,0
0.5465,2.2492e-05,0
0.547,1.9303e-05,0
0.5475,1.4939e-05,0
0.548,1.2757e-05,0
0.5485,1.2924e-05,0
0.549,1.2924e-05,0
0.5495,1.3764e-05,0
0.55,1.5274e-05,0
0.5505,1.5274e-05,0
0.551,1.5946e-05,0
0.5515,1.8296e-05,0
0.552,1.947e-05,0
0.5525,1.947e-05,0
0.553,1.7288e-05,0
0.5535,1.5778e-05,0
0.554,1.6953e-05,0
0.5545,2.0646e-05,0
0.555,2.266e-05,0
0.5555,1.9638e-05,0
0.556,1.5274e-05,0
0.5565,1.326e-05,0
0.557,1.561e-05,0
0.5575,1.6953e-05,0
0.558,1.7121e-05,0
0.5585,1.8631e-05,0
0.559,2.031e-05,0
0.5595,2.182e-05,0
0.56,2.1653e-05,0
0.5605,2.031e-05,0
0.561,1.9135e-05,0
0.5615,1.8296e-05,0
0.562,1.8631e-05,0
0.5625,1.9974e-05,0
0.563,1.9974e-05,0
0.5635,1.6953e-05,0
0.564,1.4267e-05,0
0.5645,1.4099e-05,0
0.565,1.561e-05,0
0.5655,1.5778e-05,0
0.566,1.6617e-05,0
0.5665,1.5946e-05,0
0.567,1.5778e-05,0
0.5675,1.8296e-05,0
0.568,2.182e-05,0
0.5685,2.1988e-05,0
0.569,2.1988e-05,0
0.5695,2.3331e-05,0
0.57,2.1317e-05,0
0.5705,2.031e-05,0
0.571,2.1149e-05,0
0.5715,2.1317e-05,0
0.572,2.1149e-05,0
0.5725,2.1317e-05,0
0.573,2.2492e-05,0
0.5735,2.3667e-05,0
0.574,2.2324e-05,0
0.5745,1.796e-05,0
0.575,1.2757e-05,0
0.5755,1.0575e-05,0
0.576,1.2253e-05,0
0.5765,1.326e-05,0
0.577,1.3764e-05,0
0.5775,1.5274e-05,0
0.578,1.4939e-05,0
0.5785,1.4771e-05,0
0.579,1.8296e-05,0
0.5795,2.1988e-05,0
0.58,2.3667e-05,0
0.5805,2.3163e-05,0
0.581,2.1317e-05,0
0.5815,2.0646e-05,0
0.582,1.9974e-05,0
0.5825,1.9638e-05,0
0.583,1.8631e-05,0
0.5835,1.7624e-05,0
0.584,1.8463e-05,0
0.5845,1.9974e-05,0
0.585,2.0478e-05,0
0.5855,2.1653e-05,0
0.586,2.3331e-05,0
0.5865,2.3331e-05,0
0.587,2.2324e-05,0
0.5875,2.4002e-05,0
0.588,2.7527e-05,0
0.5885,2.9038e-05,0
0.589,2.7024e-05,0
0.5895,2.4506e-05,0
0.59,2.5009e-05,0
0.5905,2.7359e-05,0
0.591,2.5681e-05,0
0.5915,2.1317e-05,0
0.592,1.7792e-05,0
0.5925,1.5946e-05,0
0.593,1.5106e-05,0
0.5935,1.4603e-05,0
0.594,1.326e-05,0
0.5945,1.2924e-05,0
0.595,1.2421e-05,0
0.5955,1.2253e-05,0
0.596,1.1582e-05,0
0.5965,9.7353e-06,0
0.597,1.2253e-05,0
0.5975,1.561e-05,0
0.598,1.5946e-05,0
0.5985,1.5274e-05,0
0.599,1.3932e-05,0
0.5995,1.2924e-05,0
0.6,1.1917e-05,0
0.6005,1.2924e-05,0
0.601,1.4603e-05,0
0.6015,1.561e-05,0
0.602,1.7624e-05,0
0.6025,1.8463e-05,0
0.603,1.7624e-05,0
0.6035,1.8967e-05,0
0.604,2.0981e-05,0
0.6045,2.1317e-05,0
0.605,2.182e-05,0
0.6055,2.3331e-05,0
0.606,2.3499e-05,0
0.6065,2.2324e-05,0
0.607,2.1317e-05,0
0.6075,2.1317e-05,0
0.608,2.1149e-05,0
0.6085,1.9135e-05,0
0.609,1.8296e-05,0
0.6095,1.8296e-05,0
0.61,1.7288e-05,0
0.6105,1.5274e-05,0
0.611,1.6281e-05,0
0.6115,1.796e-05,0
0.612,1.8631e-05,0
0.6125,1.9974e-05,0
0.613,1.9974e-05,0
0.6135,1.9638e-05,0
0.614,1.9135e-05,0
0.6145,1.8967e-05,0
0.615,1.9135e-05,0
0.6155,1.7792e-05,0
0.616,1.6449e-05,0
0.6165,1.5442e-05,0
0.617,1.3596e-05,0
0.6175,1.5274e-05,0
0.618,1.9806e-05,0
0.6185,2.1317e-05,0
0.619,2.1317e-05,0
0.6195,2.031e-05,0
0.62,1.9806e-05,0
0.6205,2.266e-05,0
0.621,2.4002e-05,0
0.6215,2.266e-05,0
0.622,2.1988e-05,0
0.6225,2.1317e-05,0
0.623,2.182e-05,0
0.6235,2.1988e-05,0
0.624,2.0478e-05,0
0.6245,1.7624e-05,0
0.625,1.6281e-05,0
0.6255,1.8296e-05,0
0.626,1.796e-05,0
0.6265,1.5274e-05,0
0.627,1.3596e-05,0
0.6275,1.4603e-05,0
0.628,1.5946e-05,0
0.6285,1.561e-05,0
0.629,1.4435e-05,0
0.6295,1.5946e-05,0
0.63,1.8631e-05,0
0.6305,2.0813e-05,0
0.631,2.2492e-05,0
0.6315,2.2492e-05,0
0.632,2.0813e-05,0
0.6325,2.182e-05,0
0.633,2.3331e-05,0
0.6335,2.3163e-05,0
0.634,2.1317e-05,0
0.6345,2.0646e-05,0
0.635,2.0646e-05,0
0.6355,2.031e-05,0
0.636,1.8463e-05,0
0.6365,1.561e-05,0
0.637,1.4267e-05,0
0.6375,1.4771e-05,0
0.638,1.7121e-05,0
0.6385,1.8631e-05,0
0.639,1.6449e-05,0
0.6395,1.3596e-05,0
0.64,1.3092e-05,0
0.6405,1.5274e-05,0
0.641,1.7288e-05,0
0.6415,1.5442e-05,0
0.642,1.2421e-05,0
0.6425,1.3092e-05,0
0.643,1.6449e-05,0
0.6435,1.9303e-05,0
0.644,1.9303e-05,0
0.6445,1.7288e-05,0
0.645,1.5946e-05,0
0.6455,1.7288e-05,0
0.646,2.0646e-05,0
0.6465,2.3331e-05,0
0.647,2.2995e-05,0
0.6475,1.8967e-05,0
0.648,1.5274e-05,0
0.6485,1.5106e-05,0
0.649,1.9638e-05,0
0.6495,2.5009e-05,0
0.65,2.6017e-05,0
0.6505,2.5177e-05,0
0.651,2.4002e-05,0
0.6515,2.4002e-05,0
0.652,2.4674e-05,0
0.6525,2.5681e-05,0
0.653,2.4338e-05,0
0.6535,2.266e-05,0
0.654,2.1317e-05,0
0.6545,1.796e-05,0
0.655,1.561e-05,0
0.6555,1.6114e-05,0
0.656,1.6785e-05,0
0.6565,1.7456e-05,0
0.657,1.9303e-05,0
0.6575,2.0646e-05,0
0.658,1.9303e-05,0
0.6585,1.6449e-05,0
0.659,1.561e-05,0
0.6595,1.8631e-05,0
0.66,2.1988e-05,0
0.6605,2.1317e-05,0
0.661,1.8631e-05,0
0.6615,1.796e-05,0
0.662,1.7288e-05,0
0.6625,1.7121e-05,0
0.663,1.8128e-05,0
0.6635,1.7288e-05,0
0.664,1.5106e-05,0
0.6645,1.4771e-05,0
0.665,1.5442e-05,0
0.6655,1.6785e-05,0
0.666,1.9303e-05,0
0.6665,1.9974e-05,0
0.667,1.9974e-05,0
0.6675,2.031e-05,0
0.668,2.0142e-05,0
0.6685,1.947e-05,0
0.669,1.796e-05,0
0.6695,1.4603e-05,0
0.67,1.2589e-05,0
0.6705,1.4267e-05,0
0.671,1.7288e-05,0
0.6715,1.8631e-05,0
0.672,2.0646e-05,0
0.6725,2.3667e-05,0
0.673,2.6017e-05,0
0.6735,2.3163e-05,0
0.674,1.8296e-05,0
0.6745,1.8296e-05,0
0.675,2.1317e-05,0
0.6755,2.2324e-05,0
0.676,2.1149e-05,0
0.6765,2.0646e-05,0
0.677,2.0813e-05,0
0.6775,2.0981e-05,0
0.678,2.1988e-05,0
0.6785,2.2324e-05,0
0.679,2.1317e-05,0
0.6795,2.031e-05,0
0.68,1.9974e-05,0
0.6805,1.8296e-05,0
0.681,1.5946e-05,0
0.6815,1.4099e-05,0
0.682,1.3092e-05,0
0.6825,1.1414e-05,0
0.683,1.2589e-05,0
0.6835,1.7288e-05,0
0.684,2.2156e-05,0
0.6845,2.3667e-05,0
0.685,2.4002e-05,0
0.6855,2.4674e-05,0
0.686,2.3499e-05,0
0.6865,2.1317e-05,0
0.687,1.9638e-05,0
0.6875,1.8967e-05,0
0.688,1.9303e-05,0
0.6885,1.9303e-05,0
0.689,1.6449e-05,0
0.6895,1.5778e-05,0
0.69,1.9303e-05,0
0.6905,2.2324e-05,0
0.691,2.031e-05,0
0.6915,1.8631e-05,0
0.692,1.9303e-05,0
0.6925,1.9638e-05,0
0.693,1.9303e-05,0
0.6935,1.9974e-05,0
0.694,2.2156e-05,0
0.6945,2.3163e-05,0
0.695,2.1149e-05,0
0.6955,2.031e-05,0
0.696,2.0813e-05,0
0.6965,2.1988e-05,0
0.697,2.1988e-05,0
0.6975,2.1988e-05,0
0.698,2.0981e-05,0
0.6985,1.9974e-05,0
0.699,1.8967e-05,0
0.6995,1.7288e-05,0
0.7,1.6785e-05,0
0.7005,1.8296e-05,0
0.701,1.8967e-05,0
0.7015,1.7121e-05,0
0.702,1.6281e-05,0
0.7025,1.8296e-05,0
0.703,1.9638e-05,0
0.7035,1.796e-05,0
0.704,1.5778e-05,0
0.7045,1.5946e-05,0
0.705,1.8631e-05,0
0.7055,1.9806e-05,0
0.706,1.9806e-05,0
0.7065,1.7456e-05,0
0.707,1.4267e-05,0
0.7075,1.5106e-05,0
0.708,1.7624e-05,0
0.7085,1.9638e-05,0
0.709,1.9974e-05,0
0.7095,1.9303e-05,0
0.71,1.9974e-05,0
0.7105,2.1317e-05,0
0.711,2.4002e-05,0
0.7115,2.5345e-05,0
0.712,2.5345e-05,0
0.7125,2.5849e-05,0
0.713,2.7527e-05,0
0.7135,2.6688e-05,0
0.714,2.6017e-05,0
0.7145,2.7192e-05,0
0.715,2.5681e-05,0
0.7155,2.4002e-05,0
0.716,2.266e-05,0
0.7165,1.9974e-05,0
0.717,1.7288e-05,0
0.7175,1.6449e-05,0
0.718,1.6617e-05,0
0.7185,1.7624e-05,0
0.719,1.6785e-05,0
0.7195,1.3092e-05,0
0.72,1.0575e-05,0
0.7205,1.2253e-05,0
0.721,1.2924e-05,0
0.7215,1.0575e-05,0
0.722,8.5603e-06,0
0.7225,8.896e-06,0
0.723,9.9031e-06,0
0.7235,1.0407e-05,0
0.724,1.1246e-05,0
0.7245,1.3092e-05,0
0.725,1.6617e-05,0
0.7255,1.9135e-05,0
0.726,1.9638e-05,0
0.7265,2.0646e-05,0
0.727,2.1317e-05,0
0.7275,2.1317e-05,0
0.728,2.031e-05,0
0.7285,1.947e-05,0
0.729,1.8296e-05,0
0.7295,1.5946e-05,0
0.73,1.4939e-05,0
0.7305,1.6617e-05,0
0.731,1.7792e-05,0
0.7315,1.7288e-05,0
0.732,1.6281e-05,0
0.7325,1.8128e-05,0
0.733,2.2492e-05,0
0.7335,2.266e-05,0
0.734,2.031e-05,0
0.7345,1.9303e-05,0
0.735,1.9974e-05,0
0.7355,1.8296e-05,0
0.736,1.5946e-05,0
0.7365,1.5274e-05,0
0.737,1.3596e-05,0
0.7375,1.4435e-05,0
0.738,1.6281e-05,0
0.7385,1.6617e-05,0
0.739,1.5946e-05,0
0.7395,1.7288e-05,0
0.74,1.8967e-05,0
0.7405,1.9974e-05,0
0.741,2.0646e-05,0
0.7415,2.0478e-05,0
0.742,1.9303e-05,0
0.7425,1.9638e-05,0
0.743,2.1317e-05,0
0.7435,2.2492e-05,0
0.744,2.2156e-05,0
0.7445,2.0981e-05,0
0.745,2.2324e-05,0
0.7455,2.266e-05,0
0.746,2.0981e-05,0
0.7465,1.947e-05,0
0.747,1.8296e-05,0
0.7475,2.0142e-05,0
0.748,2.3499e-05,0
0.7485,2.3667e-05,0
0.749,2.266e-05,0
0.7495,2.3499e-05,0
0.75,2.4002e-05,0
0.7505,2.1317e-05,0
0.751,1.8631e-05,0
0.7515,1.9303e-05,0
0.752,1.9806e-05,0
0.7525,1.9638e-05,0
0.753,2.1653e-05,0
0.7535,2.3331e-05,0
0.754,2.1149e-05,0
0.7545,1.8799e-05,0
0.755,1.7792e-05,0
0.7555,1.796e-05,0
0.756,1.8967e-05,0
0.7565,1.8967e-05,0
0.757,1.8463e-05,0
0.7575,1.8967e-05,0
0.758,1.796e-05,0
0.7585,1.4603e-05,0
0.759,1.326e-05,0
0.7595,1.3428e-05,0
0.76,1.3764e-05,0
0.7605,1.3764e-05,0
0.761,1.5274e-05,0
0.7615,1.6617e-05,0
0.762,1.8967e-05,0
0.7625,2.4002e-05,0
0.763,2.7192e-05,0
0.7635,2.6184e-05,0
0.764,2.182e-05,0
0.7645,1.7288e-05,0
0.765,1.4939e-05,0
0.7655,1.561e-05,0
0.766,1.9638e-05,0
0.7665,2.3331e-05,0
0.767,2.2995e-05,0
0.7675,2.0813e-05,0
0.768,1.9638e-05,0
0.7685,2.1149e-05,0
0.769,2.4674e-05,0
0.7695,2.5849e-05,0
0.77,2.1653e-05,0
0.7705,1.9638e-05,0
0.771,2.1988e-05,0
0.7715,2.652e-05,0
0.772,2.7863e-05,0
0.7725,2.7024e-05,0
0.773,2.4674e-05,0
0.7735,2.1988e-05,0
0.774,2.0981e-05,0
0.7745,1.9806e-05,0
0.775,1.7792e-05,0
0.7755,1.6953e-05,0
0.776,1.796e-05,0
0.7765,1.8463e-05,0
0.777,1.7288e-05,0
0.7775,1.5946e-05,0
0.778,1.6281e-05,0
0.7785,1.6617e-05,0
0.779,1.7792e-05,0
0.7795,1.7121e-05,0
0.78,1.5946e-05,0
0.7805,1.5946e-05,0
0.781,1.5106e-05,0
0.7815,1.4603e-05,0
0.782,1.3932e-05,0
0.7825,1.2589e-05,0
0.783,1.0239e-05,0
0.7835,9.3996e-06,0
0.784,1.0239e-05,0
0.7845,1.1749e-05,0
0.785,1.4603e-05,0
0.7855,1.7624e-05,0
0.786,1.9303e-05,0
0.7865,1.6617e-05,0
0.787,1.0575e-05,0
0.7875,9.2317e-06,0
0.788,1.1749e-05,0
0.7885,1.326e-05,0
0.789,1.561e-05,0
0.7895,1.7792e-05,0
0.79,1.8631e-05,0
0.7905,1.8799e-05,0
0.791,1.947e-05,0
0.7915,1.9135e-05,0
0.792,1.6785e-05,0
0.7925,1.5274e-05,0
0.793,1.6617e-05,0
0.7935,1.7456e-05,0
0.794,1.8799e-05,0
0.7945,2.2995e-05,0
0.795,2.4002e-05,0
0.7955,2.2995e-05,0
0.796,2.1317e-05,0
0.7965,2.1988e-05,0
0.797,2.2995e-05,0
0.7975,2.182e-05,0
0.798,2.1653e-05,0
0.7985,2.3163e-05,0
0.799,2.3835e-05,0
0.7995,2.3331e-05,0
0.8,2.3667e-05,0
0.8005,2.5009e-05,0
0.801,2.3835e-05,0
0.8015,2.0478e-05,0
0.802,1.7288e-05,0
0.8025,1.6617e-05,0
0.803,1.8631e-05,0
0.8035,2.0646e-05,0
0.804,2.1653e-05,0
0.8045,2.0646e-05,0
0.805,1.796e-05,0
0.8055,1.5946e-05,0
0.806,1.8631e-05,0
0.8065,2.4338e-05,0
0.807,2.8031e-05,0
0.8075,2.8367e-05,0
0.808,2.6352e-05,0
0.8085,2.266e-05,0
0.809,1.8631e-05,0
0.8095,1.8967e-05,0
0.81,2.1317e-05,0
0.8105,2.1317e-05,0
0.811,1.9135e-05,0
0.8115,1.9135e-05,0
0.812,2.2324e-05,0
0.8125,2.2995e-05,0
0.813,1.9303e-05,0
0.8135,1.6281e-05,0
0.814,1.5442e-05,0
0.8145,1.4939e-05,0
0.815,1.4435e-05,0
0.8155,1.4603e-05,0
0.816,1.4939e-05,0
0.8165,1.4267e-05,0
0.817,1.4267e-05,0
0.8175,1.5274e-05,0
0.818,1.5946e-05,0
0.8185,1.5274e-05,0
0.819,1.3596e-05,0
0.8195,1.4603e-05,0
0.82,1.5106e-05,0
0.8205,1.3932e-05,0
0.821,1.3596e-05,0
0.8215,1.5274e-05,0
0.822,1.7288e-05,0
0.8225,1.7288e-05,0
0.823,1.5946e-05,0
0.8235,1.4603e-05,0
0.824,1.5946e-05,0
0.8245,1.9303e-05,0
0.825,2.0646e-05,0
0.8255,1.796e-05,0
0.826,1.6953e-05,0
0.8265,1.8967e-05,0
0.827,2.0646e-05,0
0.8275,2.031e-05,0
0.828,2.031e-05,0
0.8285,2.1653e-05,0
0.829,2.3835e-05,0
0.8295,2.4002e-05,0
0.83,2.0646e-05,0
0.8305,1.8296e-05,0
0.831,1.8967e-05,0
0.8315,1.8631e-05,0
0.832,1.7792e-05,0
0.8325,2.0813e-05,0
0.833,2.182e-05,0
0.8335,2.0142e-05,0
0.834,2.031e-05,0
0.8345,2.2324e-05,0
0.835,2.4338e-05,0
0.8355,2.4674e-05,0
0.836,2.5513e-05,0
0.8365,2.8534e-05,0
0.837,3.1052e-05,0
0.8375,3.0716e-05,0
0.838,2.7863e-05,0
0.8385,2.5681e-05,0
0.839,2.5681e-05,0
0.8395,2.4842e-05,0
0.84,2.5681e-05,0
0.8405,2.5849e-05,0
0.841,2.2492e-05,0
0.8415,1.796e-05,0
0.842,1.7288e-05,0
0.8425,1.8967e-05,0
0.843,2.031e-05,0
0.8435,2.0813e-05,0
0.844,2.0981e-05,0
0.8445,2.1317e-05,0
0.845,2.266e-05,0
0.8455,2.4338e-05,0
0.846,2.5009e-05,0
0.8465,2.6017e-05,0
0.847,2.5177e-05,0
0.8475,2.1317e-05,0
0.848,1.8296e-05,0
0.8485,1.796e-05,0
0.849,1.8128e-05,0
0.8495,1.8631e-05,0
0.85,1.947e-05,0
0.8505,1.8296e-05,0
0.851,1.6281e-05,0
0.8515,1.3596e-05,0
0.852,1.3764e-05,0
0.8525,1.6785e-05,0
0.853,1.796e-05,0
0.8535,1.6785e-05,0
0.854,1.7624e-05,0
0.8545,1.8967e-05,0
0.855,1.8296e-05,0
0.8555,1.7288e-05,0
0.856,1.7121e-05,0
0.8565,1.6617e-05,0
0.857,1.6953e-05,0
0.8575,1.5778e-05,0
0.858,1.1582e-05,0
0.8585,9.9031e-06,0
0.859,1.2421e-05,0
0.8595,1.4603e-05,0
0.86,1.6785e-05,0
0.8605,1.8967e-05,0
0.861,1.8463e-05,0
0.8615,1.561e-05,0
0.862,1.3932e-05,0
0.8625,1.4099e-05,0
0.863,1.7288e-05,0
0.8635,1.796e-05,0
0.864,1.4603e-05,0
0.8645,1.2589e-05,0
0.865,1.5274e-05,0
0.8655,1.7288e-05,0
0.866,1.7288e-05,0
0.8665,1.6617e-05,0
0.867,1.5946e-05,0
0.8675,1.7288e-05,0
0.868,1.7288e-05,0
0.8685,1.4603e-05,0
0.869,1.1582e-05,0
0.8695,1.1078e-05,0
0.87,1.2924e-05,0
0.8705,1.4267e-05,0
0.871,1.4435e-05,0
0.8715,1.2924e-05,0
0.872,1.2253e-05,0
0.8725,1.326e-05,0
0.873,1.6281e-05,0
0.8735,1.9638e-05,0
0.874,2.1988e-05,0
0.8745,2.3163e-05,0
0.875,2.182e-05,0
0.8755,1.8463e-05,0
0.876,1.6617e-05,0
0.8765,1.8463e-05,0
0.877,2.1653e-05,0
0.8775,2.3667e-05,0
0.878,2.3331e-05,0
0.8785,2.2324e-05,0
0.879,2.2324e-05,0
0.8795,2.1653e-05,0
0.88,1.9638e-05,0
0.8805,1.8631e-05,0
0.881,2.1149e-05,0
0.8815,2.2492e-05,0
0.882,2.0478e-05,0
0.8825,1.7792e-05,0
0.883,1.8463e-05,0
0.8835,2.1317e-05,0
0.884,2.3163e-05,0
0.8845,2.3331e-05,0
0.885,2.3499e-05,0
0.8855,2.3499e-05,0
0.886,2.1988e-05,0
0.8865,1.947e-05,0
0.887,1.796e-05,0
0.8875,1.7288e-05,0
0.888,1.5946e-05,0
0.8885,1.4939e-05,0
0.889,1.4603e-05,0
0.8895,1.3596e-05,0
0.89,1.2757e-05,0
0.8905,1.4603e-05,0
0.891,1.6617e-05,0
0.8915,1.5946e-05,0
0.892,1.3932e-05,0
0.8925,1.326e-05,0
0.893,1.2589e-05,0
0.8935,1.1246e-05,0
0.894,1.1582e-05,0
0.8945,1.2253e-05,0
0.895,1.2589e-05,0
0.8955,1.4267e-05,0
0.896,1.6953e-05,0
0.8965,1.5274e-05,0
0.897,1.2589e-05,0
0.8975,1.3932e-05,0
0.898,1.6953e-05,0
0.8985,1.9135e-05,0
0.899,1.947e-05,0
0.8995,2.1317e-05,0
0.9,2.3499e-05,0
0.9005,2.3331e-05,0
0.901,2.1988e-05,0
0.9015,2.1317e-05,0
0.902,2.3835e-05,0
0.9025,2.4842e-05,0
0.903,2.266e-05,0
0.9035,2.2324e-05,0
0.904,2.266e-05,0
0.9045,2.2492e-05,0
0.905,2.1149e-05,0
0.9055,2.4002e-05,0
0.906,2.6352e-05,0
0.9065,2.4674e-05,0
0.907,2.1988e-05,0
0.9075,2.1149e-05,0
0.908,2.0981e-05,0
0.9085,2.0478e-05,0
0.909,1.9974e-05,0
0.9095,1.9806e-05,0
0.91,2.0646e-05,0
0.9105,2.1988e-05,0
0.911,2.2324e-05,0
0.9115,2.2995e-05,0
0.912,2.4002e-05,0
0.9125,2.4674e-05,0
0.913,2.266e-05,0
0.9135,1.947e-05,0
0.914,1.8631e-05,0
0.9145,1.9303e-05,0
0.915,1.8631e-05,0
0.9155,1.796e-05,0
0.916,1.6449e-05,0
0.9165,1.4603e-05,0
0.917,1.4603e-05,0
0.9175,1.5106e-05,0
0.918,1.7288e-05,0
0.9185,1.9303e-05,0
0.919,1.8296e-05,0
0.9195,1.6953e-05,0
0.92,1.9135e-05,0
0.9205,2.2828e-05,0
0.921,2.4674e-05,0
0.9215,2.2995e-05,0
0.922,1.9974e-05,0
0.9225,1.7624e-05,0
0.923,1.6785e-05,0
0.9235,1.5778e-05,0
0.924,1.5946e-05,0
0.9245,1.7792e-05,0
0.925,2.0646e-05,0
0.9255,2.266e-05,0
0.926,2.2156e-05,0
0.9265,2.1317e-05,0
0.927,2.031e-05,0
0.9275,1.947e-05,0
0.928,1.9135e-05,0
0.9285,1.9638e-05,0
0.929,2.1149e-05,0
0.9295,2.0478e-05,0
0.93,1.8967e-05,0
0.9305,1.796e-05,0
0.931,1.7288e-05,0
0.9315,1.7456e-05,0
0.932,1.8296e-05,0
0.9325,2.0813e-05,0
0.933,2.2156e-05,0
0.9335,2.1317e-05,0
0.934,2.0142e-05,0
0.9345,1.8631e-05,0
0.935,1.7624e-05,0
0.9355,1.6617e-05,0
0.936,1.6449e-05,0
0.9365,1.6281e-05,0
0.937,1.5274e-05,0
0.9375,1.326e-05,0
0.938,1.326e-05,0
0.9385,1.5274e-05,0
0.939,1.6281e-05,0
0.9395,1.796e-05,0
0.94,1.9638e-05,0
0.9405,2.0813e-05,0
0.941,2.1988e-05,0
0.9415,2.2995e-05,0
0.942,2.2156e-05,0
0.9425,2.1317e-05,0
0.943,2.3331e-05,0
0.9435,2.4338e-05,0
0.944,2.3163e-05,0
0.9445,1.8631e-05,0
0.945,1.4939e-05,0
0.9455,1.8631e-05,0
0.946,2.2324e-05,0
0.9465,2.1653e-05,0
0.947,2.0142e-05,0
0.9475,2.2156e-05,0
0.948,2.3667e-05,0
0.9485,2.2156e-05,0
0.949,1.9974e-05,0
0.9495,1.9806e-05,0
0.95,1.8296e-05,0
0.9505,1.6449e-05,0
0.951,1.4603e-05,0
0.9515,1.4939e-05,0
0.952,1.6281e-05,0
0.9525,1.6281e-05,0
0.953,1.4603e-05,0
0.9535,1.3596e-05,0
0.954,1.3932e-05,0
0.9545,1.3932e-05,0
0.955,1.4435e-05,0
0.9555,1.6785e-05,0
0.956,1.9806e-05,0
0.9565,2.182e-05,0
0.957,2.3331e-05,0
0.9575,2.3835e-05,0
0.958,2.3163e-05,0
0.9585,2.0981e-05,0
0.959,1.9303e-05,0
0.9595,1.9974e-05,0
0.96,2.1317e-05,0
0.9605,2.0646e-05,0
0.961,1.796e-05,0
0.9615,1.5946e-05,0
0.962,1.561e-05,0
0.9625,1.6785e-05,0
0.963,1.8296e-05,0
0.9635,1.9303e-05,0
0.964,1.9974e-05,0
0.9645,2.0478e-05,0
0.965,2.1317e-05,0
0.9655,1.9303e-05,0
0.966,1.7288e-05,0
0.9665,1.8296e-05,0
0.967,1.9135e-05,0
0.9675,1.8967e-05,0
0.968,1.6449e-05,0
0.9685,1.326e-05,0
0.969,1.2924e-05,0
0.9695,1.4435e-05,0
0.97,1.6953e-05,0
0.9705,1.9806e-05,0
0.971,2.0981e-05,0
0.9715,2.1149e-05,0
0.972,1.9974e-05,0
0.9725,1.8296e-05,0
0.973,1.6617e-05,0
0.9735,1.796e-05,0
0.974,1.9974e-05,0
0.9745,1.9806e-05,0
0.975,1.8128e-05,0
0.9755,1.7121e-05,0
0.976,1.6785e-05,0
0.9765,1.5778e-05,0
0.977,1.3932e-05,0
0.9775,1.5778e-05,0
0.978,1.8296e-05,0
0.9785,1.9303e-05,0
0.979,1.9974e-05,0
0.9795,2.0646e-05,0
0.98,2.1317e-05,0
0.9805,2.266e-05,0
0.981,2.1317e-05,0
0.9815,1.9974e-05,0
0.982,1.9303e-05,0
0.9825,2.1317e-05,0
0.983,2.2995e-05,0
0.9835,1.9303e-05,0
0.984,1.4939e-05,0
0.9845,1.4939e-05,0
0.985,1.6953e-05,0
0.9855,2.0478e-05,0
0.986,2.1317e-05,0
0.9865,1.9303e-05,0
0.987,1.8631e-05,0
0.9875,1.8631e-05,0
0.988,1.8967e-05,0
0.9885,2.0813e-05,0
0.989,2.5345e-05,0
0.9895,2.8031e-05,0
0.99,2.7863e-05,0
0.9905,2.8031e-05,0
0.991,2.7024e-05,0
0.9915,2.5009e-05,0
0.992,2.4002e-05,0
0.9925,2.5009e-05,0
0.993,2.6688e-05,0
0.9935,2.9206e-05,0
0.994,2.8534e-05,0
0.9945,2.652e-05,0
0.995,2.5345e-05,0
0.9955,2.6352e-05,0
0.996,2.652e-05,0
0.9965,2.4674e-05,0
0.997,2.1317e-05,0
0.9975,1.8631e-05,0
0.998,1.8128e-05,0
0.9985,1.6953e-05,0
0.999,1.326e-05,0
0.9995,9.9031e-06,0
1,8.2246e-06,0
1.0005,7.8889e-06,0
1.001,7.3854e-06,0
1.0015,7.8889e-06,0
1.002,8.896e-06,0
1.0025,1.0239e-05,0
1.003,1.1246e-05,0
1.0035,1.326e-05,0
1.004,1.5778e-05,0
1.0045,1.7624e-05,0
1.005,1.8967e-05,0
1.0055,1.947e-05,0
1.006,1.8967e-05,0
1.0065,1.8296e-05,0
1.007,1.8463e-05,0
1.0075,2.0142e-05,0
1.008,2.2995e-05,0
1.0085,2.3499e-05,0
1.009,2.0981e-05,0
1.0095,1.9638e-05,0
1.01,1.9303e-05,0
1.0105,1.947e-05,0
1.011,2.031e-05,0
1.0115,1.9638e-05,0
1.012,1.9303e-05,0
1.0125,1.8463e-05,0
1.013,1.7121e-05,0
1.0135,1.6617e-05,0
1.014,1.796e-05,0
1.0145,1.8296e-05,0
1.015,1.6617e-05,0
1.0155,1.4603e-05,0
1.016,1.4939e-05,0
1.0165,1.6617e-05,0
1.017,1.6785e-05,0
1.0175,1.4939e-05,0
1.018,1.6281e-05,0
1.0185,2.0646e-05,0
1.019,2.1988e-05,0
1.0195,2.2492e-05,0
1.02,2.1988e-05,0
1.0205,2.1317e-05,0
1.021,2.1149e-05,0
1.0215,2.0981e-05,0
1.022,2.1149e-05,0
1.0225,2.0478e-05,0
1.023,1.947e-05,0
1.0235,1.8296e-05,0
1.024,1.561e-05,0
1.0245,1.4603e-05,0
1.025,1.4603e-05,0
1.0255,1.6281e-05,0
1.026,1.9638e-05,0
1.0265,2.0813e-05,0
1.027,1.8631e-05,0
1.0275,1.6617e-05,0
1.028,1.6953e-05,0
1.0285,1.5946e-05,0
1.029,1.2421e-05,0
1.0295,9.7353e-06,0
1.03,8.3925e-06,0
1.0305,7.5532e-06,0
1.031,1.0239e-05,0
1.0315,1.3596e-05,0
1.032,1.5106e-05,0
1.0325,1.7624e-05,0
1.033,1.8967e-05,0
1.0335,1.9974e-05,0
1.034,2.0981e-05,0
1.0345,2.1317e-05,0
1.035,2.266e-05,0
1.0355,2.0813e-05,0
1.036,1.8799e-05,0
1.0365,2.182e-05,0
1.037,2.5009e-05,0
1.0375,2.6017e-05,0
1.038,2.5681e-05,0
1.0385,2.4338e-05,0
1.039,2.3667e-05,0
1.0395,2.3331e-05,0
1.04,2.266e-05,0
1.0405,2.0646e-05,0
1.041,1.8631e-05,0
1.0415,1.6953e-05,0
1.042,1.6953e-05,0
1.0425,1.7624e-05,0
1.043,1.9303e-05,0
1.0435,2.1317e-05,0
1.044,2.3835e-05,0
1.0445,2.4002e-05,0
1.045,2.266e-05,0
1.0455,2.266e-05,0
1.046,2.2995e-05,0
1.0465,2.1988e-05,0
1.047,2.2156e-05,0
1.0475,2.3667e-05,0
1.048,2.2492e-05,0
1.0485,1.9806e-05,0
1.049,1.8967e-05,0
1.0495,2.031e-05,0
1.05,2.1988e-05,0
1.0505,2.1317e-05,0
1.051,1.9806e-05,0
1.0515,1.8631e-05,0
1.052,1.796e-05,0
1.0525,1.5274e-05,0
1.053,1.326e-05,0
1.0535,1.4267e-05,0
1.054,1.4603e-05,0
1.0545,1.5274e-05,0
1.055,1.8631e-05,0
1.0555,2.0646e-05,0
1.056,1.8631e-05,0
1.0565,1.6617e-05,0
1.057,1.8463e-05,0
1.0575,1.9638e-05,0
1.058,1.9303e-05,0
1.0585,1.8631e-05,0
1.059,1.5946e-05,0
1.0595,1.5946e-05,0
1.06,1.6953e-05,0
1.0605,1.6953e-05,0
1.061,1.5946e-05,0
1.0615,1.5442e-05,0
1.062,1.6785e-05,0
1.0625,1.7121e-05,0
1.063,1.4603e-05,0
1.0635,1.2589e-05,0
1.064,1.2924e-05,0
1.0645,1.4603e-05,0
1.065,1.5778e-05,0
1.0655,1.5946e-05,0
1.066,1.3932e-05,0
1.0665,9.7353e-06,0
1.067,8.7282e-06,0
1.0675,1.091e-05,0
1.068,1.1582e-05,0
1.0685,1.0575e-05,0
1.069,1.1917e-05,0
1.0695,1.5946e-05,0
1.07,1.9974e-05,0
1.0705,2.3667e-05,0
1.071,2.5345e-05,0
1.0715,2.5009e-05,0
1.072,2.4674e-05,0
1.0725,2.5345e-05,0
1.073,2.7359e-05,0
1.0735,2.8031e-05,0
1.074,2.5849e-05,0
1.0745,2.4338e-05,0
1.075,2.266e-05,0
1.0755,2.0813e-05,0
1.076,1.9135e-05,0
1.0765,1.9974e-05,0
1.077,2.1317e-05,0
1.0775,2.266e-05,0
1.078,2.2995e-05,0
1.0785,1.9974e-05,0
1.079,1.5946e-05,0
1.0795,1.4267e-05,0
1.08,1.6953e-05,0
1.0805,1.796e-05,0
1.081,1.6281e-05,0
1.0815,1.7792e-05,0
1.082,2.2995e-05,0
1.0825,2.9038e-05,0
1.083,3.0213e-05,0
1.0835,2.8031e-05,0
1.084,2.6688e-05,0
1.0845,2.7863e-05,0
1.085,2.9877e-05,0
1.0855,3.2059e-05,0
1.086,3.3402e-05,0
1.0865,3.1388e-05,0
1.087,2.8367e-05,0
1.0875,2.6184e-05,0
1.088,2.6017e-05,0
1.0885,2.5009e-05,0
1.089,2.3499e-05,0
1.0895,2.2828e-05,0
1.09,2.0981e-05,0
1.0905,1.8463e-05,0
1.091,1.6617e-05,0
1.0915,1.5946e-05,0
1.092,1.5274e-05,0
1.0925,1.4939e-05,0
1.093,1.4771e-05,0
1.0935,1.4939e-05,0
1.094,1.4939e-05,0
1.0945,1.4267e-05,0
1.095,1.4435e-05,0
1.0955,1.5946e-05,0
1.096,1.796e-05,0
1.0965,1.9638e-05,0
1.097,1.8631e-05,0
1.0975,1.6953e-05,0
1.098,1.4435e-05,0
1.0985,1.3932e-05,0
1.099,1.6449e-05,0
1.0995,1.9135e-05,0
1.1,2.2156e-05,0
1.1005,2.3331e-05,0
1.101,2.2995e-05,0
1.1015,2.266e-05,0
1.102,2.2492e-05,0
1.1025,2.3163e-05,0
1.103,2.3667e-05,0
1.1035,2.0478e-05,0
1.104,1.5946e-05,0
1.1045,1.4939e-05,0
1.105,1.6449e-05,0
1.1055,1.6953e-05,0
1.106,1.6281e-05,0
1.1065,1.4771e-05,0
1.107,1.3092e-05,0
1.1075,1.1078e-05,0
1.108,1.091e-05,0
1.1085,1.5442e-05,0
1.109,1.9135e-05,0
1.1095,2.1317e-05,0
1.11,2.266e-05,0
1.1105,2.266e-05,0
1.111,1.9303e-05,0
1.1115,1.5274e-05,0
1.112,1.4771e-05,0
1.1125,1.5778e-05,0
1.113,1.3932e-05,0
1.1135,1.2253e-05,0
1.114,1.326e-05,0
1.1145,1.4603e-05,0
1.115,1.4603e-05,0
1.1155,1.4771e-05,0
1.116,1.7288e-05,0
1.1165,1.8631e-05,0
1.117,1.8631e-05,0
1.1175,1.8463e-05,0
1.118,1.796e-05,0
1.1185,1.8631e-05,0
1.119,1.9303e-05,0
1.1195,1.8967e-05,0
1.12,1.8631e-05,0
1.1205,1.8296e-05,0
1.121,1.7288e-05,0
1.1215,1.5946e-05,0
1.122,1.5442e-05,0
1.1225,1.7288e-05,0
1.123,2.0981e-05,0
1.1235,2.2995e-05,0
1.124,2.0646e-05,0
1.1245,1.6953e-05,0
1.125,1.6953e-05,0
1.1255,1.947e-05,0
1.126,2.1317e-05,0
1.1265,2.266e-05,0
1.127,2.1988e-05,0
1.1275,1.9974e-05,0
1.128,1.9806e-05,0
1.1285,2.2156e-05,0
1.129,2.266e-05,0
1.1295,2.031e-05,0
1.13,1.7121e-05,0
1.1305,1.561e-05,0
1.131,1.6617e-05,0
1.1315,1.8463e-05,0
1.132,1.8128e-05,0
1.1325,1.5946e-05,0
1.133,1.326e-05,0
1.1335,1.3764e-05,0
1.134,1.2924e-05,0
1.1345,1.1917e-05,0
1.135,1.2589e-05,0
1.1355,1.2924e-05,0
1.136,1.2589e-05,0
1.1365,1.4939e-05,0
1.137,1.7456e-05,0
1.1375,2.0981e-05,0
1.138,2.2995e-05,0
1.1385,2.2324e-05,0
1.139,2.266e-05,0
1.1395,2.3163e-05,0
1.14,2.182e-05,0
1.1405,2.2324e-05,0
1.141,2.4506e-05,0
1.1415,2.5681e-05,0
1.142,2.5009e-05,0
1.1425,2.4338e-05,0
1.143,2.3499e-05,0
1.1435,2.1317e-05,0
1.144,1.9974e-05,0
1.1445,2.0478e-05,0
1.145,2.1988e-05,0
1.1455,2.266e-05,0
1.146,2.1149e-05,0
1.1465,1.8296e-05,0
1.147,1.6449e-05,0
1.1475,1.7121e-05,0
1.148,1.9974e-05,0
1.1485,1.947e-05,0
1.149,1.7121e-05,0
1.1495,1.6281e-05,0
1.15,1.8967e-05,0
1.1505,2.182e-05,0
1.151,2.266e-05,0
1.1515,2.031e-05,0
1.152,1.7121e-05,0
1.1525,1.4603e-05,0
1.153,1.5106e-05,0
1.1535,1.8296e-05,0
1.154,2.0646e-05,0
1.1545,2.0981e-05,0
1.155,1.9638e-05,0
1.1555,1.947e-05,0
1.156,1.9974e-05,0
1.1565,1.8967e-05,0
1.157,1.9806e-05,0
1.1575,2.2156e-05,0
1.158,2.4338e-05,0
1.1585,2.5849e-05,0
1.159,2.6688e-05,0
1.1595,2.6688e-05,0
1.16,2.6352e-05,0
1.1605,2.4674e-05,0
1.161,2.3163e-05,0
1.1615,2.2492e-05,0
1.162,2.2995e-05,0
1.1625,2.4002e-05,0
1.163,2.3835e-05,0
1.1635,2.3163e-05,0
1.164,2.3667e-05,0
1.1645,2.2828e-05,0
1.165,1.9974e-05,0
1.1655,1.8631e-05,0
1.166,2.0646e-05,0
1.1665,2.1988e-05,0
1.167,2.031e-05,0
1.1675,1.7121e-05,0
1.168,1.5946e-05,0
1.1685,1.4939e-05,0
1.169,1.326e-05,0
1.1695,1.2253e-05,0
1.17,1.2757e-05,0
1.1705,1.3932e-05,0
1.171,1.5274e-05,0
1.1715,1.7288e-05,0
1.172,1.6449e-05,0
1.1725,1.4939e-05,0
1.173,1.4603e-05,0
1.1735,1.5274e-05,0
1.174,1.4603e-05,0
1.1745,1.3764e-05,0
1.175,1.2085e-05,0
1.1755,1.0407e-05,0
1.176,9.3996e-06,0
1.1765,1.1582e-05,0
1.177,1.5778e-05,0
1.1775,1.9303e-05,0
1.178,2.182e-05,0
1.1785,2.4002e-05,0
1.179,2.5009e-05,0
1.1795,2.4338e-05,0
1.18,2.2995e-05,0
1.1805,2.3331e-05,0
1.181,2.0646e-05,0
1.1815,1.6281e-05,0
1.182,1.4267e-05,0
1.1825,1.4099e-05,0
1.183,1.3596e-05,0
1.1835,1.6449e-05,0
1.184,2.031e-05,0
1.1845,2.1988e-05,0
1.185,2.1317e-05,0
1.1855,2.1317e-05,0
1.186,2.0981e-05,0
1.1865,1.9638e-05,0
1.187,1.9638e-05,0
1.1875,1.9638e-05,0
1.188,1.947e-05,0
1.1885,1.9974e-05,0
1.189,2.0981e-05,0
1.1895,2.1317e-05,0
1.19,1.8967e-05,0
1.1905,1.8967e-05,0
1.191,2.0981e-05,0
1.1915,2.2492e-05,0
1.192,2.2995e-05,0
1.1925,2.266e-05,0
1.193,2.4002e-05,0
1.1935,2.5681e-05,0
1.194,2.4674e-05,0
1.1945,2.3331e-05,0
1.195,2.2995e-05,0
1.1955,2.1317e-05,0
1.196,1.8631e-05,0
1.1965,1.7792e-05,0
1.197,1.6281e-05,0
1.1975,1.5946e-05,0
1.198,1.796e-05,0
1.1985,1.8463e-05,0
1.199,1.5946e-05,0
1.1995,1.4771e-05,0
1.2,1.4603e-05,0
1.2005,1.326e-05,0
1.201,1.4939e-05,0
1.2015,1.8128e-05,0
1.202,1.9303e-05,0
1.2025,1.7792e-05,0
1.203,1.5778e-05,0
1.2035,1.561e-05,0
1.204,1.5946e-05,0
1.2045,1.6953e-05,0
1.205,1.7121e-05,0
1.2055,1.8296e-05,0
1.206,1.796e-05,0
1.2065,1.5442e-05,0
1.207,1.2421e-05,0
1.2075,1.2085e-05,0
1.208,1.4267e-05,0
1.2085,1.5946e-05,0
1.209,1.6953e-05,0
1.2095,1.6785e-05,0
1.21,1.5946e-05,0
1.2105,1.5946e-05,0
1.211,1.7288e-05,0
1.2115,2.0142e-05,0
1.212,1.9974e-05,0
1.2125,1.8631e-05,0
1.213,1.8967e-05,0
1.2135,1.947e-05,0
1.214,1.9303e-05,0
1.2145,2.031e-05,0
1.215,2.1653e-05,0
1.2155,2.1653e-05,0
1.216,2.1317e-05,0
1.2165,2.182e-05,0
1.217,2.2492e-05,0
1.2175,2.4002e-05,0
1.218,2.3331e-05,0
1.2185,2.0646e-05,0
1.219,1.7288e-05,0
1.2195,1.5946e-05,0
1.22,1.5946e-05,0
1.2205,1.6617e-05,0
1.221,1.8631e-05,0
1.2215,2.0478e-05,0
1.222,2.0981e-05,0
1.2225,2.031e-05,0
1.223,1.7288e-05,0
1.2235,1.326e-05,0
1.224,7.8889e-06,0
1.2245,5.0355e-06,0
1.225,1.0071e-05,0
1.2255,1.5274e-05,0
1.226,1.4099e-05,0
1.2265,1.1246e-05,0
1.227,1.3764e-05,0
1.2275,1.8631e-05,0
1.228,2.1988e-05,0
1.2285,2.3163e-05,0
1.229,2.3163e-05,0
1.2295,2.3331e-05,0
1.23,2.4674e-05,0
1.2305,2.5513e-05,0
1.231,2.4338e-05,0
1.2315,2.3163e-05,0
1.232,2.1149e-05,0
1.2325,2.0646e-05,0
1.233,2.0646e-05,0
1.2335,1.9974e-05,0
1.234,1.9135e-05,0
1.2345,1.7624e-05,0
1.235,1.6953e-05,0
1.2355,1.8631e-05,0
1.236,2.0142e-05,0
1.2365,1.796e-05,0
1.237,1.6617e-05,0
1.2375,1.6953e-05,0
1.238,1.4771e-05,0
1.2385,1.3596e-05,0
1.239,1.4267e-05,0
1.2395,1.561e-05,0
1.24,1.5946e-05,0
1.2405,1.5442e-05,0
1.241,1.326e-05,0
1.2415,1.1917e-05,0
1.242,1.2421e-05,0
1.2425,1.5274e-05,0
1.243,1.7624e-05,0
1.2435,1.9974e-05,0
1.244,2.4002e-05,0
1.2445,2.6017e-05,0
1.245,2.5681e-05,0
1.2455,2.266e-05,0
1.246,2.0981e-05,0
1.2465,2.3499e-05,0
1.247,2.4506e-05,0
1.2475,2.3331e-05,0
1.248,2.1988e-05,0
1.2485,2.0646e-05,0
1.249,1.947e-05,0
1.2495,1.7792e-05,0
1.25,1.6953e-05,0
1.2505,1.8631e-05,0
1.251,1.8296e-05,0
1.2515,1.8631e-05,0
1.252,2.0813e-05,0
1.2525,2.1317e-05,0
1.253,2.0646e-05,0
1.2535,2.0646e-05,0
1.254,1.8967e-05,0
1.2545,1.7624e-05,0
1.255,2.0646e-05,0
1.2555,2.5009e-05,0
1.256,2.7527e-05,0
1.2565,2.5177e-05,0
1.257,2.1317e-05,0
1.2575,2.031e-05,0
1.258,2.1149e-05,0
1.2585,2.2828e-05,0
1.259,2.3667e-05,0
1.2595,2.5009e-05,0
1.26,2.8367e-05,0
1.2605,3.0716e-05,0
1.261,2.8031e-05,0
1.2615,2.1317e-05,0
1.262,1.6281e-05,0
1.2625,1.5778e-05,0
1.263,1.7624e-05,0
1.2635,1.8631e-05,0
1.264,1.8296e-05,0
1.2645,1.7624e-05,0
1.265,1.8128e-05,0
1.2655,1.8631e-05,0
1.266,1.8799e-05,0
1.2665,2.0813e-05,0
1.267,2.1988e-05,0
1.2675,1.8631e-05,0
1.268,1.6281e-05,0
1.2685,1.7288e-05,0
1.269,1.8967e-05,0
1.2695,1.6449e-05,0
1.27,1.3932e-05,0
1.2705,1.5106e-05,0
1.271,1.5442e-05,0
1.2715,1.5946e-05,0
1.272,1.9135e-05,0
1.2725,2.0981e-05,0
1.273,1.9303e-05,0
1.2735,1.7288e-05,0
1.274,1.5778e-05,0
1.2745,1.4435e-05,0
1.275,1.4939e-05,0
1.2755,1.7624e-05,0
1.276,1.9135e-05,0
1.2765,1.8631e-05,0
1.277,1.8631e-05,0
1.2775,1.9303e-05,0
1.278,1.9974e-05,0
1.2785,1.9806e-05,0
1.279,1.7288e-05,0
1.2795,1.5946e-05,0
1.28,1.4603e-05,0
1.2805,1.4939e-05,0
1.281,1.6281e-05,0
1.2815,1.5946e-05,0
1.282,1.6281e-05,0
1.2825,1.561e-05,0
1.283,1.326e-05,0
1.2835,1.2589e-05,0
1.284,1.4099e-05,0
1.2845,1.4939e-05,0
1.285,1.561e-05,0
1.2855,1.6617e-05,0
1.286,1.6449e-05,0
1.2865,1.5946e-05,0
1.287,1.6449e-05,0
1.2875,1.7288e-05,0
1.288,2.031e-05,0
1.2885,2.3331e-05,0
1.289,2.4506e-05,0
1.2895,2.5345e-05,0
1.29,2.4674e-05,0
1.2905,2.3667e-05,0
1.291,2.5177e-05,0
1.2915,2.7863e-05,0
1.292,2.6688e-05,0
1.2925,2.5009e-05,0
1.293,2.5009e-05,0
1.2935,2.4674e-05,0
1.294,2.1653e-05,0
1.2945,2.1988e-05,0
1.295,2.5009e-05,0
1.2955,2.4002e-05,0
1.296,1.9806e-05,0
1.2965,1.8967e-05,0
1.297,1.8967e-05,0
1.2975,1.7288e-05,0
1.298,1.4603e-05,0
1.2985,1.3596e-05,0
1.299,1.4603e-05,0
1.2995,1.7456e-05,0
1.3,1.8296e-05,0
1.3005,1.6617e-05,0
1.301,1.5274e-05,0
1.3015,1.5946e-05,0
1.302,1.6617e-05,0
1.3025,1.7121e-05,0
1.303,1.8296e-05,0
1.3035,1.8631e-05,0
1.304,1.796e-05,0
1.3045,1.6785e-05,0
1.305,1.5274e-05,0
1.3055,1.5274e-05,0
1.306,1.4939e-05,0
1.3065,1.5274e-05,0
1.307,1.947e-05,0
1.3075,2.2995e-05,0
1.308,2.2828e-05,0
1.3085,2.0478e-05,0
1.309,1.947e-05,0
1.3095,1.8967e-05,0
1.31,2.0981e-05,0
1.3105,2.4002e-05,0
1.311,2.6352e-05,0
1.3115,2.6688e-05,0
1.312,2.5345e-05,0
1.3125,2.1653e-05,0
1.313,2.0478e-05,0
1.3135,2.3331e-05,0
1.314,2.5009e-05,0
1.3145,2.2995e-05,0
1.315,2.0478e-05,0
1.3155,1.9135e-05,0
1.316,1.7288e-05,0
1.3165,1.7121e-05,0
1.317,1.796e-05,0
1.3175,1.9974e-05,0
1.318,2.1317e-05,0
1.3185,2.0981e-05,0
1.319,1.947e-05,0
1.3195,1.8631e-05,0
1.32,1.7624e-05,0
1.3205,1.7288e-05,0
1.321,1.7288e-05,0
1.3215,1.796e-05,0
1.322,1.8631e-05,0
1.3225,1.8967e-05,0
1.323,1.7121e-05,0
1.3235,1.4267e-05,0
1.324,1.2924e-05,0
1.3245,1.1414e-05,0
1.325,1.0575e-05,0
1.3255,1.3596e-05,0
1.326,1.561e-05,0
1.3265,1.3764e-05,0
1.327,1.0239e-05,0
1.3275,9.2317e-06,0
1.328,1.1582e-05,0
1.3285,1.4939e-05,0
1.329,1.561e-05,0
1.3295,1.3764e-05,0
1.33,1.5106e-05,0
1.3305,1.9974e-05,0
1.331,2.2492e-05,0
1.3315,1.8967e-05,0
1.332,1.4267e-05,0
1.3325,1.561e-05,0
1.333,2.1317e-05,0
1.3335,2.5345e-05,0
1.334,2.3331e-05,0
1.3345,1.8296e-05,0
1.335,1.5946e-05,0
1.3355,1.6617e-05,0
1.336,1.5946e-05,0
1.3365,1.4435e-05,0
1.337,1.5946e-05,0
1.3375,1.8296e-05,0
1.338,1.9638e-05,0
1.3385,1.9974e-05,0
1.339,1.796e-05,0
1.3395,1.7288e-05,0
1.34,1.9638e-05,0
1.3405,2.2156e-05,0
1.341,2.1317e-05,0
1.3415,1.9638e-05,0
1.342,1.9303e-05,0
1.3425,2.0981e-05,0
1.343,2.3331e-05,0
1.3435,2.266e-05,0
1.344,1.9974e-05,0
1.3445,1.8296e-05,0
1.345,1.6953e-05,0
1.3455,1.7121e-05,0
1.346,1.9303e-05,0
1.3465,1.8631e-05,0
1.347,1.4771e-05,0
1.3475,1.0239e-05,0
1.348,9.0639e-06,0
1.3485,1.091e-05,0
1.349,1.3932e-05,0
1.3495,1.4939e-05,0
1.35,1.5946e-05,0
1.3505,1.9806e-05,0
1.351,2.266e-05,0
1.3515,2.1988e-05,0
1.352,2.2324e-05,0
1.3525,2.5681e-05,0
1.353,2.7359e-05,0
1.3535,2.7359e-05,0
1.354,2.6688e-05,0
1.3545,2.7695e-05,0
1.355,2.9038e-05,0
1.3555,2.8534e-05,0
1.356,2.6688e-05,0
1.3565,2.6017e-05,0
1.357,2.7359e-05,0
1.3575,2.9877e-05,0
1.358,2.8702e-05,0
1.3585,2.5345e-05,0
1.359,2.4506e-05,0
1.3595,2.266e-05,0
1.36,1.9974e-05,0
1.3605,2.1317e-05,0
1.361,2.4674e-05,0
1.3615,2.4338e-05,0
1.362,2.1317e-05,0
1.3625,1.9974e-05,0
1.363,1.9638e-05,0
1.3635,1.9638e-05,0
1.364,1.8967e-05,0
1.3645,1.7624e-05,0
1.365,1.5946e-05,0
1.3655,1.4603e-05,0
1.366,1.326e-05,0
1.3665,1.326e-05,0
1.367,1.3932e-05,0
1.3675,1.4603e-05,0
1.368,1.4267e-05,0
1.3685,1.4603e-05,0
1.369,1.4939e-05,0
1.3695,1.3428e-05,0
1.37,1.1414e-05,0
1.3705,1.1414e-05,0
1.371,1.0071e-05,0
1.3715,8.5603e-06,0
1.372,8.3925e-06,0
1.3725,9.3996e-06,0
1.373,9.7353e-06,0
1.3735,9.2317e-06,0
1.374,8.5603e-06,0
1.3745,8.5603e-06,0
1.375,8.896e-06,0
1.3755,7.5532e-06,0
1.376,7.8889e-06,0
1.3765,1.1078e-05,0
1.377,1.3764e-05,0
1.3775,1.6449e-05,0
1.378,2.031e-05,0
1.3785,2.1988e-05,0
1.379,2.1653e-05,0
1.3795,2.4674e-05,0
1.38,2.9038e-05,0
1.3805,3.0716e-05,0
1.381,2.9374e-05,0
1.3815,2.887e-05,0
1.382,2.8367e-05,0
1.3825,2.7359e-05,0
1.383,2.8702e-05,0
1.3835,3.1052e-05,0
1.384,3.0213e-05,0
1.3845,2.4842e-05,0
1.385,1.8296e-05,0
1.3855,1.4267e-05,0
1.386,1.3932e-05,0
1.3865,1.3428e-05,0
1.387,1.091e-05,0
1.3875,8.896e-06,0
1.388,9.9031e-06,0
1.3885,1.3596e-05,0
1.389,1.7456e-05,0
1.3895,2.1317e-05,0
1.39,2.5009e-05,0
1.3905,2.9374e-05,0
1.391,3.2731e-05,0
1.3915,3.4073e-05,0
1.392,3.3066e-05,0
1.3925,3.1052e-05,0
1.393,2.8031e-05,0
1.3935,2.5513e-05,0
1.394,2.4002e-05,0
1.3945,2.1988e-05,0
1.395,1.9974e-05,0
1.3955,1.5274e-05,0
1.396,1.2589e-05,0
1.3965,1.1582e-05,0
1.397,1.0239e-05,0
1.3975,9.5674e-06,0
1.398,1.1749e-05,0
1.3985,1.561e-05,0
1.399,1.6281e-05,0
1.3995,1.3764e-05,0
1.4,1.5274e-05,0
1.4005,2.031e-05,0
1.401,2.4002e-05,0
1.4015,2.4002e-05,0
1.402,2.3331e-05,0
1.4025,2.3163e-05,0
1.403,2.0646e-05,0
1.4035,1.8631e-05,0
1.404,1.8631e-05,0
1.4045,1.8631e-05,0
1.405,1.7288e-05,0
1.4055,1.7624e-05,0
1.406,2.0142e-05,0
1.4065,2.0646e-05,0
1.407,1.7456e-05,0
1.4075,1.5946e-05,0
1.408,1.7624e-05,0
1.4085,1.796e-05,0
1.409,1.6617e-05,0
1.4095,1.5946e-05,0
1.41,1.5946e-05,0
1.4105,1.5442e-05,0
1.411,1.3932e-05,0
1.4115,1.2589e-05,0
1.412,1.1917e-05,0
1.4125,1.0239e-05,0
1.413,1.1414e-05,0
1.4135,1.5442e-05,0
1.414,1.796e-05,0
1.4145,1.8967e-05,0
1.415,1.9303e-05,0
1.4155,1.6953e-05,0
1.416,1.4603e-05,0
1.4165,1.4435e-05,0
1.417,1.6617e-05,0
1.4175,1.8296e-05,0
1.418,1.9974e-05,0
1.4185,2.3331e-05,0
1.419,2.5177e-05,0
1.4195,2.4338e-05,0
1.42,2.4506e-05,0
1.4205,2.7192e-05,0
1.421,2.8702e-05,0
1.4215,2.8367e-05,0
1.422,2.8702e-05,0
1.4225,2.8031e-05,0
1.423,2.5849e-05,0
1.4235,2.4002e-05,0
1.424,2.3331e-05,0
1.4245,2.0981e-05,0
1.425,1.7121e-05,0
1.4255,1.6281e-05,0
1.426,1.8296e-05,0
1.4265,1.8967e-05,0
1.427,1.796e-05,0
1.4275,1.6281e-05,0
1.428,1.4939e-05,0
1.4285,1.4603e-05,0
1.429,1.5946e-05,0
1.4295,1.7792e-05,0
1.43,1.8296e-05,0
1.4305,1.7288e-05,0
1.431,1.8128e-05,0
1.4315,1.9974e-05,0
1.432,2.1988e-05,0
1.4325,2.2324e-05,0
1.433,2.0478e-05,0
1.4335,2.031e-05,0
1.434,2.3331e-05,0
1.4345,2.5681e-05,0
1.435,2.5009e-05,0
1.4355,2.2995e-05,0
1.436,2.1317e-05,0
1.4365,2.2995e-05,0
1.437,2.4002e-05,0
1.4375,2.3667e-05,0
1.438,2.3667e-05,0
1.4385,2.3667e-05,0
1.439,2.3667e-05,0
1.4395,2.1988e-05,0
1.44,1.8967e-05,0
1.4405,1.6953e-05,0
1.441,1.326e-05,0
1.4415,3.6927e-06,0
1.442,-6.5461e-06,0
1.4425,-9.5674e-06,0
1.443,-4.6998e-06,0
1.4435,3.6927e-06,0
1.444,1.091e-05,0
1.4445,1.7288e-05,0
1.445,2.4002e-05,0
1.4455,3.0045e-05,0
1.446,3.6088e-05,0
1.4465,4.1459e-05,0
1.447,4.4312e-05,0
1.4475,4.1123e-05,0
1.448,3.4577e-05,0
1.4485,3.1388e-05,0
1.449,2.9374e-05,0
1.4495,2.6017e-05,0
1.45,2.1149e-05,0
1.4505,1.4603e-05,0
1.451,8.7282e-06,0
1.4515,5.7069e-06,0
1.452,4.0284e-06,0
1.4525,2.5177e-06,0
1.453,3.1891e-06,0
1.4535,7.2175e-06,0
1.454,1.3596e-05,0
1.4545,1.9135e-05,0
1.455,2.3163e-05,0
1.4555,2.5345e-05,0
1.456,2.8031e-05,0
1.4565,3.122e-05,0
1.457,3.0716e-05,0
1.4575,2.9206e-05,0
1.458,2.8031e-05,0
1.4585,2.417e-05,0
1.459,1.9303e-05,0
1.4595,1.6617e-05,0
1.46,1.8631e-05,0
1.4605,1.9974e-05,0
1.461,1.9806e-05,0
1.4615,1.7792e-05,0
1.462,1.1246e-05,0
1.4625,4.1962e-06,0
1.463,-6.714e-07,0
1.4635,-4.1962e-06,0
1.464,-6.5461e-06,0
1.4645,-6.2104e-06,0
1.465,-3.8605e-06,0
1.4655,-1.8463e-06,0
1.466,2.3499e-06,0
1.4665,9.2317e-06,0
1.467,1.4603e-05,0
1.4675,2.0981e-05,0
1.468,2.5345e-05,0
1.4685,2.2324e-05,0
1.469,1.3596e-05,0
1.4695,1.091e-05,0
1.47,1.4267e-05,0
1.4705,1.326e-05,0
1.471,7.0497e-06,0
1.4715,4.1962e-06,0
1.472,6.5461e-06,0
1.4725,1.1246e-05,0
1.473,1.4435e-05,0
1.4735,1.4603e-05,0
1.474,1.326e-05,0
1.4745,1.5106e-05,0
1.475,1.9303e-05,0
1.4755,2.2324e-05,0
1.476,2.6017e-05,0
1.4765,2.9709e-05,0
1.477,3.3066e-05,0
1.4775,3.6088e-05,0
1.478,3.7766e-05,0
1.4785,3.7262e-05,0
1.479,3.8102e-05,0
1.4795,4.2466e-05,0
1.48,4.7501e-05,0
1.4805,5.069e-05,0
1.481,5.0523e-05,0
1.4815,5.0523e-05,0
1.482,4.8173e-05,0
1.4825,4.4144e-05,0
1.483,4.213e-05,0
1.4835,4.213e-05,0
1.484,4.1627e-05,0
1.4845,3.8605e-05,0
1.485,3.4409e-05,0
1.4855,3.2563e-05,0
1.486,3.1052e-05,0
1.4865,2.6688e-05,0
1.487,1.5946e-05,0
1.4875,1.0071e-06,0
1.488,-8.896e-06,0
1.4885,-1.091e-05,0
1.489,-1.0575e-05,0
1.4895,-9.9031e-06,0
1.49,-1.0239e-05,0
1.4905,-8.7282e-06,0
1.491,-2.0142e-06,0
1.4915,8.2246e-06,0
1.492,1.9303e-05,0
1.4925,2.887e-05,0
1.493,3.5416e-05,0
1.4935,3.8773e-05,0
1.494,3.9445e-05,0
1.4945,3.7766e-05,0
1.495,3.2395e-05,0
1.4955,2.7359e-05,0
1.496,2.6688e-05,0
1.4965,2.652e-05,0
1.497,2.6688e-05,0
1.4975,2.6688e-05,0
1.498,2.7695e-05,0
1.4985,2.6688e-05,0
1.499,2.4842e-05,0
1.4995,2.031e-05,0
1.5,1.2589e-05,0
1.5005,6.3783e-06,0
1.501,2.6856e-06,0
1.5015,2.5177e-06,0
1.502,3.8605e-06,0
1.5025,4.1962e-06,0
1.503,5.8747e-06,0
1.5035,8.3925e-06,0
1.504,1.2924e-05,0
1.5045,1.5778e-05,0
1.505,1.5106e-05,0
1.5055,1.4603e-05,0
1.506,1.6617e-05,0
1.5065,1.8463e-05,0
1.507,2.0813e-05,0
1.5075,2.4842e-05,0
1.508,2.7359e-05,0
1.5085,3.1052e-05,0
1.509,3.2059e-05,0
1.5095,2.8702e-05,0
1.51,2.4674e-05,0
1.5105,2.2324e-05,0
1.511,1.9974e-05,0
1.5115,1.5778e-05,0
1.512,1.0575e-05,0
1.5125,3.8605e-06,0
1.513,-7.5532e-06,0
1.5135,-1.6449e-05,0
1.514,-1.8967e-05,0
1.5145,-2.031e-05,0
1.515,-1.7624e-05,0
1.5155,-1.1749e-05,0
1.516,-5.2033e-06,0
1.5165,-1.1749e-06,0
1.517,8.392e-07,0
1.5175,1.5106e-06,0
1.518,6.2104e-06,0
1.5185,1.6281e-05,0
1.519,2.5345e-05,0
1.5195,2.7695e-05,0
1.52,2.4674e-05,0
1.5205,2.3331e-05,0
1.521,2.6688e-05,0
1.5215,3.0716e-05,0
1.522,3.2059e-05,0
1.5225,2.6688e-05,0
1.523,2.3499e-05,0
1.5235,2.7695e-05,0
1.524,3.1556e-05,0
1.5245,2.9374e-05,0
1.525,2.5177e-05,0
1.5255,2.0646e-05,0
1.526,2.0142e-05,0
1.5265,2.4338e-05,0
1.527,2.7024e-05,0
1.5275,2.8702e-05,0
1.528,2.8702e-05,0
1.5285,2.7192e-05,0
1.529,2.7695e-05,0
1.5295,3.3906e-05,0
1.53,4.213e-05,0
1.5305,4.5487e-05,0
1.531,4.1291e-05,0
1.5315,3.122e-05,0
1.532,2.1988e-05,0
1.5325,1.6953e-05,0
1.533,1.5274e-05,0
1.5335,1.2924e-05,0
1.534,6.3783e-06,0
1.5345,-2.0142e-06,0
1.535,-5.539e-06,0
1.5355,-3.5248e-06,0
1.536,-3.357e-06,0
1.5365,-8.2246e-06,0
1.537,-1.2924e-05,0
1.5375,-1.3092e-05,0
1.538,-8.5603e-06,0
1.5385,-4.1962e-06,0
1.539,-2.6856e-06,0
1.5395,-3.0213e-06,0
1.54,-2.182e-06,0
1.5405,8.392e-07,0
1.541,2.5177e-06,0
1.5415,3.1891e-06,0
1.542,7.2175e-06,0
1.5425,1.4435e-05,0
1.543,2.182e-05,0
1.5435,2.6688e-05,0
1.544,2.8031e-05,0
1.5445,2.887e-05,0
1.545,3.2731e-05,0
1.5455,3.4073e-05,0
1.546,2.7695e-05,0
1.5465,2.2995e-05,0
1.547,2.7695e-05,0
1.5475,3.4577e-05,0
1.548,3.7095e-05,0
1.5485,3.5752e-05,0
1.549,3.6088e-05,0
1.5495,3.9948e-05,0
1.55,4.0787e-05,0
1.5505,3.6423e-05,0
1.551,3.0716e-05,0
1.5515,2.9206e-05,0
1.552,3.3066e-05,0
1.5525,3.9277e-05,0
1.553,4.1459e-05,0
1.5535,3.6927e-05,0
1.554,3.122e-05,0
1.5545,3.1388e-05,0
1.555,3.5248e-05,0
1.5555,4.0619e-05,0
1.556,4.8508e-05,0
1.5565,5.388e-05,0
1.557,5.2705e-05,0
1.5575,4.3305e-05,0
1.558,2.4674e-05,0
1.5585,7.8889e-06,0
1.559,-1.0071e-06,0
1.5595,-5.539e-06,0
1.56,-1.1582e-05,0
1.5605,-1.7624e-05,0
1.561,-1.947e-05,0
1.5615,-1.4939e-05,0
1.562,-7.0497e-06,0
1.5625,-5.035e-07,0
1.563,5.035e-07,0
1.5635,-3.357e-07,0
1.564,-3.0213e-06,0
1.5645,-5.8747e-06,0
1.565,-5.539e-06,0
1.5655,-2.3499e-06,0
1.566,5.2033e-06,0
1.5665,1.6281e-05,0
1.567,2.7695e-05,0
1.5675,3.6255e-05,0
1.568,3.7095e-05,0
1.5685,3.1724e-05,0
1.569,2.9038e-05,0
1.5695,3.4577e-05,0
1.57,4.4816e-05,0
1.5705,5.1865e-05,0
1.571,5.1194e-05,0
1.5715,4.6159e-05,0
1.572,3.9445e-05,0
1.5725,3.3066e-05,0
1.573,3.2059e-05,0
1.5735,3.5416e-05,0
1.574,3.8102e-05,0
1.5745,3.9277e-05,0
1.575,4.0284e-05,0
1.5755,4.1291e-05,0
1.576,4.1123e-05,0
1.5765,4.0116e-05,0
1.577,3.8773e-05,0
1.5775,3.3738e-05,0
1.578,2.3499e-05,0
1.5785,9.7353e-06,0
1.579,-4.5319e-06,0
1.5795,-1.091e-05,0
1.58,-8.896e-06,0
1.5805,-9.7353e-06,0
1.581,-2.3331e-05,0
1.5815,-3.9109e-05,0
1.582,-4.3977e-05,0
1.5825,-4.3473e-05,0
1.583,-4.2634e-05,0
1.5835,-3.592e-05,0
1.584,-2.6017e-05,0
1.5845,-1.7624e-05,0
1.585,-8.896e-06,0
1.5855,4.1962e-06,0
1.586,1.9303e-05,0
1.5865,3.2059e-05,0
1.587,4.2802e-05,0
1.5875,5.539e-05,0
1.588,7.3686e-05,0
1.5885,9.1142e-05,0
1.589,9.752e-05,0
1.5895,9.7185e-05,0
1.59,9.7688e-05,0
1.5905,9.6513e-05,0
1.591,9.0974e-05,0
1.5915,8.04e-05,0
1.592,6.949e-05,0
1.5925,6.0594e-05,0
1.593,5.153e-05,0
1.5935,3.8102e-05,0
1.594,2.2492e-05,0
1.5945,8.5603e-06,0
1.595,-3.6927e-06,0
1.5955,-1.2589e-05,0
1.596,-1.5442e-05,0
1.5965,-1.2757e-05,0
1.597,-1.091e-05,0
1.5975,-1.1246e-05,0
1.598,-8.0568e-06,0
1.5985,-5.035e-07,0
1.599,4.0284e-06,0
1.5995,2.5177e-06,0
1.6,5.035e-07,0
1.6005,-3.357e-07,0
1.601,-5.035e-07,0
1.6015,6.714e-07,0
1.602,-2.5177e-06,0
1.6025,-6.8818e-06,0
1.603,-7.7211e-06,0
1.6035,-9.5674e-06,0
1.604,-1.5778e-05,0
1.6045,-2.3163e-05,0
1.605,-2.2324e-05,0
1.6055,-1.2421e-05,0
1.606,-5.8747e-06,0
1.6065,-3.5248e-06,0
1.607,1.1749e-06,0
1.6075,1.326e-05,0
1.608,2.7863e-05,0
1.6085,3.3906e-05,0
1.609,2.8367e-05,0
1.6095,2.1317e-05,0
1.61,2.2995e-05,0
1.6105,3.0381e-05,0
1.611,3.508e-05,0
1.6115,3.2898e-05,0
1.612,2.9374e-05,0
1.6125,3.1556e-05,0
1.613,4.0787e-05,0
1.6135,4.7501e-05,0
1.614,4.5487e-05,0
1.6145,3.9948e-05,0
1.615,4.0787e-05,0
1.6155,4.683e-05,0
1.616,4.9515e-05,0
1.6165,4.9012e-05,0
1.617,5.2201e-05,0
1.6175,5.6901e-05,0
1.618,5.8915e-05,0
1.6185,5.5222e-05,0
1.619,4.5487e-05,0
1.6195,3.4409e-05,0
1.62,2.3667e-05,0
1.6205,1.6281e-05,0
1.621,9.0639e-06,0
1.6215,4.5319e-06,0
1.622,3.8605e-06,0
1.6225,3.1891e-06,0
1.623,-5.035e-07,0
1.6235,-4.0284e-06,0
1.624,-4.1962e-06,0
1.6245,-4.3641e-06,0
1.625,-7.5532e-06,0
1.6255,-1.3596e-05,0
1.626,-2.0142e-05,0
1.6265,-2.2995e-05,0
1.627,-2.031e-05,0
1.6275,-1.4939e-05,0
1.628,-9.2317e-06,0
1.6285,5.2033e-06,0
1.629,3.0045e-05,0
1.6295,4.7837e-05,0
1.63,4.3809e-05,0
1.6305,3.2059e-05,0
1.631,2.6017e-05,0
1.6315,1.9303e-05,0
1.632,1.0071e-05,0
1.6325,3.8605e-06,0
1.633,4.5319e-06,0
1.6335,9.9031e-06,0
1.634,1.5946e-05,0
1.6345,2.3499e-05,0
1.635,3.0045e-05,0
1.6355,3.4577e-05,0
1.636,3.6088e-05,0
1.6365,3.4241e-05,0
1.637,2.8031e-05,0
1.6375,2.2324e-05,0
1.638,1.6785e-05,0
1.6385,1.2253e-05,0
1.639,9.2317e-06,0
1.6395,4.8676e-06,0
1.64,8.392e-07,0
1.6405,-1.5106e-06,0
1.641,-1.8463e-06,0
1.6415,0,0
1.642,-2.182e-06,0
1.6425,-6.8818e-06,0
1.643,-1.0407e-05,0
1.6435,-1.2253e-05,0
1.644,-1.1246e-05,0
1.6445,-1.0071e-05,0
1.645,-7.3854e-06,0
1.6455,-2.8534e-06,0
1.646,3.5248e-06,0
1.6465,1.1246e-05,0
1.647,1.6617e-05,0
1.6475,1.7288e-05,0
1.648,1.796e-05,0
1.6485,2.0646e-05,0
1.649,2.5681e-05,0
1.6495,3.0716e-05,0
1.65,3.4913e-05,0
1.6505,3.1724e-05,0
1.651,2.266e-05,0
1.6515,1.561e-05,0
1.652,1.5946e-05,0
1.6525,2.0646e-05,0
1.653,2.3667e-05,0
1.6535,2.7695e-05,0
1.654,3.8773e-05,0
1.6545,5.3544e-05,0
1.655,6.2944e-05,0
1.6555,6.4286e-05,0
1.656,6.1601e-05,0
1.6565,5.8076e-05,0
1.657,5.5055e-05,0
1.6575,5.4551e-05,0
1.658,5.2872e-05,0
1.6585,4.8005e-05,0
1.659,4.3473e-05,0
1.6595,4.0116e-05,0
1.66,3.5248e-05,0
1.6605,2.8534e-05,0
1.661,2.5177e-05,0
1.6615,2.6352e-05,0
1.662,2.8534e-05,0
1.6625,2.7024e-05,0
1.663,2.0646e-05,0
1.6635,1.2924e-05,0
1.664,8.3925e-06,0
1.6645,9.2317e-06,0
1.665,1.1246e-05,0
1.6655,1.0575e-05,0
1.666,8.5603e-06,0
1.6665,9.7353e-06,0
1.667,1.3932e-05,0
1.6675,1.5946e-05,0
1.668,1.6449e-05,0
1.6685,1.6617e-05,0
1.669,2.1149e-05,0
1.6695,2.8702e-05,0
1.67,3.2059e-05,0
1.6705,3.0045e-05,0
1.671,2.7863e-05,0
1.6715,2.9206e-05,0
1.672,3.5584e-05,0
1.6725,4.2802e-05,0
1.673,4.5151e-05,0
1.6735,4.3305e-05,0
1.674,4.2298e-05,0
1.6745,4.0116e-05,0
1.675,3.3906e-05,0
1.6755,1.8631e-05,0
1.676,1.8463e-06,0
1.6765,-9.3996e-06,0
1.677,-1.2085e-05,0
1.6775,-9.5674e-06,0
1.678,-5.2033e-06,0
1.6785,1.678e-07,0
1.679,6.5461e-06,0
1.6795,1.2589e-05,0
1.68,1.561e-05,0
1.6805,1.9638e-05,0
1.681,2.266e-05,0
1.6815,2.0142e-05,0
1.682,1.2421e-05,0
1.6825,6.5461e-06,0
1.683,4.5319e-06,0
1.6835,4.6998e-06,0
1.684,4.5319e-06,0
1.6845,-1.6785e-06,0
1.685,-8.896e-06,0
1.6855,-6.8818e-06,0
1.686,2.5177e-06,0
1.6865,1.3596e-05,0
1.687,2.3667e-05,0
1.6875,3.1052e-05,0
1.688,3.743e-05,0
1.6885,4.2802e-05,0
1.689,4.5151e-05,0
1.6895,4.213e-05,0
1.69,3.6759e-05,0
1.6905,3.1724e-05,0
1.691,2.7695e-05,0
1.6915,2.0478e-05,0
1.692,1.1582e-05,0
1.6925,5.2033e-06,0
1.693,1.1749e-06,0
1.6935,-8.392e-07,0
1.694,-2.8534e-06,0
1.6945,-8.2246e-06,0
1.695,-1.3764e-05,0
1.6955,-1.6953e-05,0
1.696,-1.8967e-05,0
1.6965,-2.1317e-05,0
1.697,-2.0646e-05,0
1.6975,-1.1749e-05,0
1.698,3.1891e-06,0
1.6985,1.3932e-05,0
1.699,1.4603e-05,0
1.6995,1.2253e-05,0
1.7,1.6449e-05,0
1.7005,2.3331e-05,0
1.701,3.3402e-05,0
1.7015,4.8173e-05,0
1.702,6.1601e-05,0
1.7025,6.7643e-05,0
1.703,6.7643e-05,0
1.7035,6.5965e-05,0
1.704,6.2608e-05,0
1.7045,5.5894e-05,0
1.705,4.683e-05,0
1.7055,4.0787e-05,0
1.706,3.4745e-05,0
1.7065,2.3331e-05,0
1.707,1.0239e-05,0
1.7075,2.5177e-06,0
1.708,2.182e-06,0
1.7085,6.714e-07,0
1.709,-7.8889e-06,0
1.7095,-2.0478e-05,0
1.71,-2.6352e-05,0
1.7105,-2.031e-05,0
1.711,-7.7211e-06,0
1.7115,-1.8463e-06,0
1.712,-5.539e-06,0
1.7125,-9.2317e-06,0
1.713,-7.8889e-06,0
1.7135,-8.392e-07,0
1.714,1.0575e-05,0
1.7145,2.2995e-05,0
1.715,3.2731e-05,0
1.7155,4.0452e-05,0
1.716,4.3473e-05,0
1.7165,4.4144e-05,0
1.717,4.4144e-05,0
1.7175,4.4984e-05,0
1.718,4.4144e-05,0
1.7185,4.3137e-05,0
1.719,4.1459e-05,0
1.7195,3.978e-05,0
1.72,3.743e-05,0
1.7205,3.2731e-05,0
1.721,2.7695e-05,0
1.7215,2.4842e-05,0
1.722,2.266e-05,0
1.7225,2.2324e-05,0
1.723,2.266e-05,0
1.7235,2.7359e-05,0
1.724,3.5248e-05,0
1.7245,4.0619e-05,0
1.725,4.3473e-05,0
1.7255,4.6159e-05,0
1.726,4.7333e-05,0
1.7265,4.8844e-05,0
1.727,5.069e-05,0
1.7275,4.6159e-05,0
1.728,3.2898e-05,0
1.7285,1.6785e-05,0
1.729,1.5106e-06,0
1.7295,-7.8889e-06,0
1.73,-1.0239e-05,0
1.7305,-1.561e-05,0
1.731,-3.0716e-05,0
1.7315,-4.213e-05,0
1.732,-4.0955e-05,0
1.7325,-3.3234e-05,0
1.733,-2.3667e-05,0
1.7335,-1.1582e-05,0
1.734,8.392e-07,0
1.7345,9.9031e-06,0
1.735,1.1078e-05,0
1.7355,7.8889e-06,0
1.736,1.4267e-05,0
1.7365,3.1724e-05,0
1.737,4.8844e-05,0
1.7375,6.1601e-05,0
1.738,6.6133e-05,0
1.7385,5.8747e-05,0
1.739,4.7837e-05,0
1.7395,4.3305e-05,0
1.74,4.448e-05,0
1.7405,4.4648e-05,0
1.741,4.3809e-05,0
1.7415,4.2298e-05,0
1.742,3.8102e-05,0
1.7425,3.0381e-05,0
1.743,2.3667e-05,0
1.7435,1.8296e-05,0
1.744,1.0239e-05,0
1.7445,-3.8605e-06,0
1.745,-2.1653e-05,0
1.7455,-3.5416e-05,0
1.746,-3.8773e-05,0
1.7465,-3.6088e-05,0
1.747,-3.2563e-05,0
1.7475,-2.7024e-05,0
1.748,-2.1653e-05,0
1.7485,-1.8631e-05,0
1.749,-1.5946e-05,0
1.7495,-1.091e-05,0
1.75,-2.0142e-06,0
1.7505,9.3996e-06,0
1.751,1.5946e-05,0
1.7515,1.796e-05,0
1.752,1.5946e-05,0
1.7525,1.2421e-05,0
1.753,1.0071e-05,0
1.7535,7.8889e-06,0
1.754,5.8747e-06,0
1.7545,1.6785e-06,0
1.755,-2.182e-06,0
1.7555,-1.8463e-06,0
1.756,2.5177e-06,0
1.7565,1.0575e-05,0
1.757,2.4002e-05,0
1.7575,4.1795e-05,0
1.758,6.0929e-05,0
1.7585,7.6707e-05,0
1.759,8.9128e-05,0
1.7595,0.00010155,0
1.76,0.00011028,0
1.7605,0.00010994,0
1.761,9.9702e-05,0
1.7615,8.3421e-05,0
1.762,6.2776e-05,0
1.7625,4.213e-05,0
1.763,2.8031e-05,0
1.7635,2.3163e-05,0
1.764,2.7024e-05,0
1.7645,3.3738e-05,0
1.765,3.8102e-05,0
1.7655,4.1459e-05,0
1.766,4.5151e-05,0
1.7665,4.6159e-05,0
1.767,4.1459e-05,0
1.7675,2.9038e-05,0
1.768,1.4435e-05,0
1.7685,4.3641e-06,0
1.769,-6.714e-07,0
1.7695,-3.8605e-06,0
1.77,-5.539e-06,0
1.7705,-1.5106e-06,0
1.771,2.8534e-06,0
1.7715,6.5461e-06,0
1.772,9.5674e-06,0
1.7725,1.7121e-05,0
1.773,3.1724e-05,0
1.7735,4.0452e-05,0
1.774,3.3402e-05,0
1.7745,1.8296e-05,0
1.775,7.2175e-06,0
1.7755,-2.182e-06,0
1.776,-1.9303e-05,0
1.7765,-4.213e-05,0
1.777,-5.4887e-05,0
1.7775,-5.069e-05,0
1.778,-4.213e-05,0
1.7785,-3.978e-05,0
1.779,-4.5151e-05,0
1.7795,-5.1194e-05,0
1.78,-5.2537e-05,0
1.7805,-4.683e-05,0
1.781,-3.0381e-05,0
1.7815,-7.2175e-06,0
1.782,1.796e-05,0
1.7825,4.0955e-05,0
1.783,5.9587e-05,0
1.7835,7.2007e-05,0
1.784,7.9393e-05,0
1.7845,8.1071e-05,0
1.785,7.4693e-05,0
1.7855,6.0258e-05,0
1.786,4.2802e-05,0
1.7865,3.1724e-05,0
1.787,2.7863e-05,0
1.7875,2.8367e-05,0
1.788,2.887e-05,0
1.7885,2.4002e-05,0
1.789,1.2253e-05,0
1.7895,1.5106e-06,0
1.79,-1.5106e-06,0
1.7905,-1.3428e-06,0
1.791,6.714e-07,0
1.7915,7.3854e-06,0
1.792,1.7288e-05,0
1.7925,2.7695e-05,0
1.793,3.7766e-05,0
1.7935,4.9012e-05,0
1.794,5.8747e-05,0
1.7945,6.6133e-05,0
1.795,6.7979e-05,0
1.7955,6.3615e-05,0
1.796,4.8173e-05,0
1.7965,2.4506e-05,0
1.797,6.2104e-06,0
1.7975,1.1749e-06,0
1.798,6.0426e-06,0
1.7985,1.1246e-05,0
1.799,1.4099e-05,0
1.7995,1.5106e-05,0
1.8,1.5274e-05,0
1.8005,1.9135e-05,0
1.801,2.1485e-05,0
1.8015,2.5345e-05,0
1.802,3.3234e-05,0
1.8025,3.9109e-05,0
1.803,4.1123e-05,0
1.8035,3.8437e-05,0
1.804,3.0716e-05,0
1.8045,1.9303e-05,0
1.805,7.8889e-06,0
1.8055,-3.5248e-06,0
1.806,-1.4435e-05,0
1.8065,-1.8296e-05,0
1.807,-1.5106e-05,0
1.8075,-1.5274e-05,0
1.808,-1.796e-05,0
1.8085,-1.947e-05,0
1.809,-1.7288e-05,0
1.8095,-1.1078e-05,0
1.81,-2.8534e-06,0
1.8105,9.3996e-06,0
1.811,2.5849e-05,0
1.8115,3.3738e-05,0
1.812,3.1052e-05,0
1.8125,2.7695e-05,0
1.813,2.8367e-05,0
1.8135,3.1724e-05,0
1.814,3.3906e-05,0
1.8145,3.3906e-05,0
1.815,3.1052e-05,0
1.8155,2.8031e-05,0
1.816,2.8031e-05,0
1.8165,3.0213e-05,0
1.817,3.1388e-05,0
1.8175,3.2563e-05,0
1.818,3.4745e-05,0
1.8185,3.743e-05,0
1.819,3.6591e-05,0
1.8195,2.4674e-05,0
1.82,4.6998e-06,0
1.8205,-1.3932e-05,0
1.821,-2.031e-05,0
1.8215,-7.0497e-06,0
1.822,1.2589e-05,0
1.8225,2.3331e-05,0
1.823,2.7695e-05,0
1.8235,3.3738e-05,0
1.824,4.3977e-05,0
1.8245,5.3208e-05,0
1.825,5.3208e-05,0
1.8255,4.7501e-05,0
1.826,4.4816e-05,0
1.8265,4.4648e-05,0
1.827,4.5487e-05,0
1.8275,4.5823e-05,0
1.828,4.3641e-05,0
1.8285,3.7095e-05,0
1.829,2.652e-05,0
1.8295,1.4267e-05,0
1.83,1.1749e-06,0
1.8305,-7.8889e-06,0
1.831,-1.3764e-05,0
1.8315,-1.8296e-05,0
1.832,-1.9135e-05,0
1.8325,-1.5778e-05,0
1.833,-7.5532e-06,0
1.8335,-1.0071e-06,0
1.834,-1.0071e-06,0
1.8345,-8.392e-07,0
1.835,1.1749e-06,0
1.8355,5.2033e-06,0
1.836,1.1246e-05,0
1.8365,1.8128e-05,0
1.837,2.7359e-05,0
1.8375,3.978e-05,0
1.838,5.3544e-05,0
1.8385,6.4286e-05,0
1.839,6.9657e-05,0
1.8395,6.8986e-05,0
1.84,6.63e-05,0
1.8405,6.4622e-05,0
1.841,5.9083e-05,0
1.8415,4.8173e-05,0
1.842,3.6255e-05,0
1.8425,2.9206e-05,0
1.843,2.8367e-05,0
1.8435,2.7695e-05,0
1.844,2.2828e-05,0
1.8445,1.4267e-05,0
1.845,4.8676e-06,0
1.8455,-2.5177e-06,0
1.846,-8.2246e-06,0
1.8465,-8.2246e-06,0
1.847,-3.8605e-06,0
1.8475,-3.357e-06,0
1.848,-7.5532e-06,0
1.8485,-1.091e-05,0
1.849,-1.5274e-05,0
1.8495,-2.031e-05,0
1.85,-1.7624e-05,0
1.8505,-9.9031e-06,0
1.851,-2.182e-06,0
1.8515,3.5248e-06,0
1.852,7.5532e-06,0
1.8525,1.091e-05,0
1.853,9.2317e-06,0
1.8535,5.2033e-06,0
1.854,4.1962e-06,0
1.8545,4.8676e-06,0
1.855,5.2033e-06,0
1.8555,8.7282e-06,0
1.856,1.2924e-05,0
1.8565,1.7121e-05,0
1.857,2.031e-05,0
1.8575,2.3835e-05,0
1.858,2.7863e-05,0
1.8585,2.6017e-05,0
1.859,1.3932e-05,0
1.8595,1.678e-07,0
1.86,-5.8747e-06,0
1.8605,-2.182e-06,0
1.861,4.1962e-06,0
1.8615,1.2924e-05,0
1.862,2.1317e-05,0
1.8625,2.5345e-05,0
1.863,2.4674e-05,0
1.8635,2.4002e-05,0
1.864,2.4338e-05,0
1.8645,2.5345e-05,0
1.865,2.4674e-05,0
1.8655,1.7624e-05,0
1.866,5.8747e-06,0
1.8665,-1.1749e-06,0
1.867,8.392e-07,0
1.8675,1.1582e-05,0
1.868,2.8534e-05,0
1.8685,4.5151e-05,0
1.869,5.7572e-05,0
1.8695,6.3615e-05,0
1.87,6.2272e-05,0
1.8705,5.8412e-05,0
1.871,5.388e-05,0
1.8715,5.0019e-05,0
1.872,4.5487e-05,0
1.8725,4.3305e-05,0
1.873,4.4144e-05,0
1.8735,4.3305e-05,0
1.874,3.6088e-05,0
1.8745,2.7359e-05,0
1.875,2.4674e-05,0
1.8755,2.7863e-05,0
1.876,2.8367e-05,0
1.8765,2.3163e-05,0
1.877,1.796e-05,0
1.8775,1.5106e-05,0
1.878,9.7353e-06,0
1.8785,-2.0142e-06,0
1.879,-1.4771e-05,0
1.8795,-1.947e-05,0
1.88,-1.5274e-05,0
1.8805,-1.0071e-05,0
1.881,-1.2421e-05,0
1.8815,-1.8463e-05,0
1.882,-2.0142e-05,0
1.8825,-1.561e-05,0
1.883,-9.9031e-06,0
1.8835,-5.7069e-06,0
1.884,3.8605e-06,0
1.8845,2.7527e-05,0
1.885,5.7404e-05,0
1.8855,7.6875e-05,0
1.886,8.5771e-05,0
1.8865,9.2653e-05,0
1.887,9.5171e-05,0
1.8875,8.896e-05,0
1.888,7.6875e-05,0
1.8885,6.6972e-05,0
1.889,5.4719e-05,0
1.8895,3.4073e-05,0
1.89,3.8605e-06,0
1.8905,-3.1388e-05,0
1.891,-5.6901e-05,0
1.8915,-6.8986e-05,0
1.892,-7.2679e-05,0
1.8925,-7.2679e-05,0
1.893,-6.7979e-05,0
1.8935,-5.4887e-05,0
1.894,-3.6759e-05,0
1.8945,-1.8463e-05,0
1.895,-3.5248e-06,0
1.8955,5.8747e-06,0
1.896,1.1917e-05,0
1.8965,1.7624e-05,0
1.897,2.4002e-05,0
1.8975,3.0045e-05,0
1.898,3.4409e-05,0
1.8985,3.743e-05,0
1.899,3.9109e-05,0
1.8995,3.9445e-05,0
1.9,3.5752e-05,0
1.9005,3.0549e-05,0
1.901,2.0142e-05,0
1.9015,3.8605e-06,0
1.902,-6.8818e-06,0
1.9025,-5.539e-06,0
1.903,-2.0142e-06,0
1.9035,-8.392e-07,0
1.904,3.8605e-06,0
1.9045,1.3932e-05,0
1.905,2.7863e-05,0
1.9055,4.8173e-05,0
1.906,7.2343e-05,0
1.9065,9.2317e-05,0
1.907,0.00010188,0
1.9075,0.00010088,0
1.908,9.8527e-05,0
1.9085,9.3828e-05,0
1.909,7.8386e-05,0
1.9095,6.0594e-05,0
1.91,4.8173e-05,0
1.9105,3.9109e-05,0
1.911,2.8534e-05,0
1.9115,1.6953e-05,0
1.912,9.5674e-06,0
1.9125,8.896e-06,0
1.913,7.7211e-06,0
1.9135,6.714e-07,0
1.914,-8.3925e-06,0
1.9145,-8.896e-06,0
1.915,-2.182e-06,0
1.9155,6.714e-06,0
1.916,1.9303e-05,0
1.9165,3.2059e-05,0
1.917,3.827e-05,0
1.9175,3.9445e-05,0
1.918,3.5248e-05,0
1.9185,2.5345e-05,0
1.919,1.7792e-05,0
1.9195,1.3932e-05,0
1.92,7.8889e-06,0
1.9205,-2.3499e-06,0
1.921,-9.5674e-06,0
1.9215,-1.2253e-05,0
1.922,-1.3596e-05,0
1.9225,-6.0426e-06,0
1.923,6.8818e-06,0
1.9235,1.6281e-05,0
1.924,2.266e-05,0
1.9245,2.7024e-05,0
1.925,2.8199e-05,0
1.9255,2.8702e-05,0
1.926,3.0045e-05,0
1.9265,3.4577e-05,0
1.927,4.448e-05,0
1.9275,5.5894e-05,0
1.928,6.0594e-05,0
1.9285,5.6901e-05,0
1.929,5.1865e-05,0
1.9295,5.0858e-05,0
1.93,4.5487e-05,0
1.9305,2.6352e-05,0
1.931,2.182e-06,0
1.9315,-1.5946e-05,0
1.932,-2.6184e-05,0
1.9325,-3.2731e-05,0
1.933,-3.8102e-05,0
1.9335,-3.8437e-05,0
1.934,-3.7095e-05,0
1.9345,-4.0452e-05,0
1.935,-4.9515e-05,0
1.9355,-5.8412e-05,0
1.936,-5.8579e-05,0
1.9365,-4.6159e-05,0
1.937,-2.4338e-05,0
1.9375,-8.392e-07,0
1.938,1.8463e-05,0
1.9385,3.592e-05,0
1.939,5.3544e-05,0
1.9395,6.8315e-05,0
1.94,7.1672e-05,0
1.9405,6.4622e-05,0
1.941,5.7237e-05,0
1.9415,5.2872e-05,0
1.942,4.8844e-05,0
1.9425,4.213e-05,0
1.943,3.4073e-05,0
1.9435,2.887e-05,0
1.944,2.7192e-05,0
1.9445,2.2324e-05,0
1.945,1.326e-05,0
1.9455,7.0497e-06,0
1.946,7.8889e-06,0
1.9465,1.2589e-05,0
1.947,1.8967e-05,0
1.9475,2.3331e-05,0
1.948,2.7527e-05,0
1.9485,4.0955e-05,0
1.949,5.2537e-05,0
1.9495,4.8173e-05,0
1.95,3.2059e-05,0
1.9505,1.5274e-05,0
1.951,6.5461e-06,0
1.9515,5.2033e-06,0
1.952,-1.678e-07,0
1.9525,-6.8818e-06,0
1.953,-8.896e-06,0
1.9535,-4.1962e-06,0
1.954,2.0142e-06,0
1.9545,9.5674e-06,0
1.955,1.9135e-05,0
1.9555,2.4002e-05,0
1.956,2.1653e-05,0
1.9565,2.1317e-05,0
1.957,2.1149e-05,0
1.9575,2.0981e-05,0
1.958,2.266e-05,0
1.9585,2.5345e-05,0
1.959,2.9709e-05,0
1.9595,3.508e-05,0
1.96,3.8773e-05,0
1.9605,4.2802e-05,0
1.961,5.153e-05,0
1.9615,6.4118e-05,0
1.962,7.1336e-05,0
1.9625,6.6972e-05,0
1.963,6.1097e-05,0
1.9635,6.3615e-05,0
1.964,6.5965e-05,0
1.9645,5.3376e-05,0
1.965,2.7863e-05,0
1.9655,2.5177e-06,0
1.966,-1.8296e-05,0
1.9665,-2.7863e-05,0
1.967,-2.6352e-05,0
1.9675,-1.8463e-05,0
1.968,-8.896e-06,0
1.9685,2.3499e-06,0
1.969,1.5442e-05,0
1.9695,2.6688e-05,0
1.97,3.1052e-05,0
1.9705,2.652e-05,0
1.971,1.4603e-05,0
1.9715,4.1962e-06,0
1.972,4.6998e-06,0
1.9725,7.8889e-06,0
1.973,2.182e-06,0
1.9735,-9.5674e-06,0
1.974,-1.8967e-05,0
1.9745,-2.6856e-05,0
1.975,-4.2969e-05,0
1.9755,-6.0594e-05,0
1.976,-6.63e-05,0
1.9765,-6.0426e-05,0
1.977,-4.5823e-05,0
1.9775,-2.4674e-05,0
1.978,3.357e-07,0
1.9785,2.4002e-05,0
1.979,4.2466e-05,0
1.9795,5.6062e-05,0
1.98,6.2944e-05,0
1.9805,6.5293e-05,0
1.981,6.6972e-05,0
1.9815,6.6636e-05,0
1.982,6.5461e-05,0
1.9825,6.5629e-05,0
1.983,6.5126e-05,0
1.9835,6.3951e-05,0
1.984,6.3447e-05,0
1.9845,6.2944e-05,0
1.985,6.3615e-05,0
1.9855,6.0594e-05,0
1.986,5.3544e-05,0
1.9865,4.448e-05,0
1.987,3.3738e-05,0
1.9875,1.8631e-05,0
1.988,-4.1962e-06,0
1.9885,-2.8702e-05,0
1.989,-4.4312e-05,0
1.9895,-4.1962e-05,0
1.99,-3.2395e-05,0
1.9905,-2.1988e-05,0
1.991,-1.091e-05,0
1.9915,-3.357e-07,0
1.992,7.3854e-06,0
1.9925,1.3092e-05,0
1.993,1.9135e-05,0
1.9935,2.6688e-05,0
1.994,3.5416e-05,0
1.9945,4.5487e-05,0
1.995,5.5558e-05,0
1.9955,6.4958e-05,0
1.996,7.0329e-05,0
1.9965,6.9322e-05,0
1.997,6.2272e-05,0
1.9975,4.918e-05,0
1.998,3.4073e-05,0
1.9985,2.4338e-05,0
1.999,2.0981e-05,0
1.9995,1.796e-05,0
2,1.2253e-05,0
2.0005,9.3996e-06,0
2.001,9.0639e-06,0
2.0015,7.2175e-06,0
2.002,4.8676e-06,0
2.0025,4.1962e-06,0
2.003,4.1962e-06,0
2.0035,3.0213e-06,0
2.004,2.182e-06,0
2.0045,2.8534e-06,0
2.005,2.3499e-06,0
2.0055,5.035e-07,0
2.006,-3.0213e-06,0
2.0065,-5.539e-06,0
2.007,-3.6927e-06,0
2.0075,-6.714e-07,0
2.008,2.182e-06,0
2.0085,5.2033e-06,0
2.009,7.8889e-06,0
2.0095,1.091e-05,0
2.01,1.4603e-05,0
2.0105,1.8631e-05,0
2.011,2.5681e-05,0
2.0115,3.6255e-05,0
2.012,4.4816e-05,0
2.0125,4.7837e-05,0
2.013,4.5319e-05,0
2.0135,3.2395e-05,0
2.014,1.2589e-05,0
2.0145,-2.182e-06,0
2.015,-4.0284e-06,0
2.0155,8.2246e-06,0
2.016,2.4674e-05,0
2.0165,3.4745e-05,0
2.017,4.0452e-05,0
2.0175,4.6494e-05,0
2.018,5.0187e-05,0
2.0185,5.0523e-05,0
2.019,4.7669e-05,0
2.0195,3.9445e-05,0
2.02,2.9709e-05,0
2.0205,1.796e-05,0
2.021,7.3854e-06,0
2.0215,8.392e-07,0
2.022,-2.5177e-06,0
2.0225,-3.8605e-06,0
2.023,5.2033e-06,0
2.0235,2.0981e-05,0
2.024,3.1724e-05,0
2.0245,3.3906e-05,0
2.025,2.8367e-05,0
2.0255,1.6281e-05,0
2.026,3.8605e-06,0
2.0265,-8.392e-07,0
2.027,-6.714e-07,0
2.0275,3.6927e-06,0
2.028,1.1414e-05,0
2.0285,1.326e-05,0
2.029,9.2317e-06,0
2.0295,8.3925e-06,0
2.03,8.3925e-06,0
2.0305,5.2033e-06,0
2.031,1.6785e-06,0
2.0315,-4.5319e-06,0
2.032,-1.3596e-05,0
2.0325,-1.4603e-05,0
2.033,-6.714e-06,0
2.0335,4.5319e-06,0
2.034,1.4939e-05,0
2.0345,2.1149e-05,0
2.035,2.7527e-05,0
2.0355,3.4745e-05,0
2.036,4.1459e-05,0
2.0365,4.4816e-05,0
2.037,4.3977e-05,0
2.0375,3.978e-05,0
2.038,3.6423e-05,0
2.0385,3.3402e-05,0
2.039,2.3835e-05,0
2.0395,6.2104e-06,0
2.04,-9.5674e-06,0
2.0405,-1.4099e-05,0
2.041,-8.896e-06,0
2.0415,-1.1749e-06,0
2.042,1.091e-05,0
2.0425,3.1724e-05,0
2.043,5.8076e-05,0
2.0435,7.9057e-05,0
2.044,8.6107e-05,0
2.0445,8.8121e-05,0
2.045,9.1142e-05,0
2.0455,9.1142e-05,0
2.046,8.4428e-05,0
2.0465,7.0161e-05,0
2.047,5.069e-05,0
2.0475,3.4409e-05,0
2.048,2.266e-05,0
2.0485,1.326e-05,0
2.049,3.5248e-06,0
2.0495,-1.8463e-06,0
2.05,-8.392e-07,0
2.0505,-3.357e-07,0
2.051,-8.0568e-06,0
2.0515,-2.0981e-05,0
2.052,-3.0549e-05,0
2.0525,-3.3234e-05,0
2.053,-3.3234e-05,0
2.0535,-2.9709e-05,0
2.054,-1.6281e-05,0
2.0545,1.1749e-06,0
2.055,1.5946e-05,0
2.0555,2.5513e-05,0
2.056,2.7695e-05,0
2.0565,2.7695e-05,0
2.057,3.1052e-05,0
2.0575,3.7766e-05,0
2.058,4.3473e-05,0
2.0585,4.5151e-05,0
2.059,4.2802e-05,0
2.0595,4.0955e-05,0
2.06,3.743e-05,0
2.0605,2.6352e-05,0
2.061,9.2317e-06,0
2.0615,-1.5778e-05,0
2.062,-4.683e-05,0
2.0625,-7.3014e-05,0
2.063,-8.3253e-05,0
2.0635,-7.6371e-05,0
2.064,-5.6565e-05,0
2.0645,-2.9206e-05,0
2.065,-2.8534e-06,0
2.0655,1.5274e-05,0
2.066,2.8534e-05,0
2.0665,4.5151e-05,0
2.067,6.2944e-05,0
2.0675,7.0497e-05,0
2.068,6.6133e-05,0
2.0685,5.539e-05,0
2.069,4.5487e-05,0
2.0695,3.8437e-05,0
2.07,3.3234e-05,0
2.0705,3.2395e-05,0
2.071,3.1556e-05,0
2.0715,2.9542e-05,0
2.072,3.2731e-05,0
2.0725,4.1795e-05,0
2.073,5.1194e-05,0
2.0735,5.8076e-05,0
2.074,5.4215e-05,0
2.0745,3.9109e-05,0
2.075,2.182e-05,0
2.0755,9.9031e-06,0
2.076,5.2033e-06,0
2.0765,4.0284e-06,0
2.077,2.8534e-06,0
2.0775,5.539e-06,0
2.078,9.5674e-06,0
2.0785,7.8889e-06,0
2.079,2.8534e-06,0
2.0795,8.392e-07,0
2.08,5.0355e-06,0
2.0805,1.5442e-05,0
2.081,3.1556e-05,0
2.0815,5.153e-05,0
2.082,7.1336e-05,0
2.0825,8.3589e-05,0
2.083,8.3085e-05,0
2.0835,7.0664e-05,0
2.084,4.9515e-05,0
2.0845,2.9374e-05,0
2.085,1.1749e-05,0
2.0855,-1.8463e-06,0
2.086,-5.0355e-06,0
2.0865,4.1962e-06,0
2.087,2.2492e-05,0
2.0875,4.0619e-05,0
2.088,4.9348e-05,0
2.0885,4.3473e-05,0
2.089,2.8031e-05,0
2.0895,1.1917e-05,0
2.09,6.714e-07,0
2.0905,-2.5177e-06,0
2.091,-1.6785e-06,0
2.0915,-1.0071e-06,0
2.092,3.8605e-06,0
2.0925,1.1917e-05,0
2.093,1.6953e-05,0
2.0935,1.6617e-05,0
2.094,1.326e-05,0
2.0945,6.2104e-06,0
2.095,-1.3428e-06,0
2.0955,-9.5674e-06,0
2.096,-1.8631e-05,0
2.0965,-2.4842e-05,0
2.097,-2.4674e-05,0
2.0975,-2.6017e-05,0
2.098,-3.0549e-05,0
2.0985,-3.2898e-05,0
2.099,-3.8102e-05,0
2.0995,-4.5319e-05,0
2.1,-4.6159e-05,0
2.1005,-3.6423e-05,0
2.101,-2.0646e-05,0
2.1015,-7.5532e-06,0
2.102,4.1962e-06,0
2.1025,1.8799e-05,0
2.103,3.0045e-05,0
2.1035,2.8702e-05,0
2.104,1.7121e-05,0
2.1045,9.7353e-06,0
2.105,7.8889e-06,0
2.1055,-4.1962e-06,0
2.106,-2.3835e-05,0
2.1065,-3.0716e-05,0
2.107,-1.8128e-05,0
2.1075,5.539e-06,0
2.108,3.0045e-05,0
2.1085,4.7669e-05,0
2.109,6.0258e-05,0
2.1095,7.9393e-05,0
2.11,0.00010658,0
2.1105,0.00012656,0
2.111,0.00012941,0
2.1115,0.00012236,0
2.112,0.00011263,0
2.1125,0.00010121,0
2.113,8.9464e-05,0
2.1135,7.7714e-05,0
2.114,6.4286e-05,0
2.1145,4.8676e-05,0
2.115,3.4577e-05,0
2.1155,2.5681e-05,0
2.116,1.9974e-05,0
2.1165,1.3932e-05,0
2.117,6.8818e-06,0
2.1175,4.3641e-06,0
2.118,1.091e-05,0
2.1185,1.8296e-05,0
2.119,2.182e-05,0
2.1195,1.9638e-05,0
2.12,1.7288e-05,0
2.1205,1.6449e-05,0
2.121,1.1917e-05,0
2.1215,6.714e-07,0
2.122,-1.2924e-05,0
2.1225,-1.7288e-05,0
2.123,-1.0407e-05,0
2.1235,-1.678e-07,0
2.124,1.678e-07,0
2.1245,-1.091e-05,0
2.125,-1.5442e-05,0
2.1255,-9.0639e-06,0
2.126,3.357e-07,0
2.1265,5.0355e-06,0
2.127,7.2175e-06,0
2.1275,1.3932e-05,0
2.128,2.5681e-05,0
2.1285,3.7095e-05,0
2.129,4.918e-05,0
2.1295,6.2608e-05,0
2.13,6.8986e-05,0
2.1305,6.3615e-05,0
2.131,4.8173e-05,0
2.1315,2.8367e-05,0
2.132,1.7624e-05,0
2.1325,2.031e-05,0
2.133,2.4842e-05,0
2.1335,2.4338e-05,0
2.134,2.1317e-05,0
2.1345,1.9303e-05,0
2.135,1.326e-05,0
2.1355,2.5177e-06,0
2.136,-4.1962e-06,0
2.1365,-5.0355e-06,0
2.137,-3.357e-06,0
2.1375,1.678e-07,0
2.138,6.5461e-06,0
2.1385,1.4267e-05,0
2.139,2.2995e-05,0
2.1395,2.5345e-05,0
2.14,2.3163e-05,0
2.1405,2.0478e-05,0
2.141,2.266e-05,0
2.1415,2.887e-05,0
2.142,3.0716e-05,0
2.1425,2.8534e-05,0
2.143,1.796e-05,0
2.1435,-1.6785e-06,0
2.144,-1.4939e-05,0
2.1445,-1.3596e-05,0
2.145,-7.3854e-06,0
2.1455,-6.0426e-06,0
2.146,-7.2175e-06,0
2.1465,-4.8676e-06,0
2.147,1.1749e-06,0
2.1475,6.5461e-06,0
2.148,7.8889e-06,0
2.1485,8.2246e-06,0
2.149,1.326e-05,0
2.1495,1.8967e-05,0
2.15,1.6617e-05,0
2.1505,5.2033e-06,0
2.151,-8.3925e-06,0
2.1515,-1.9135e-05,0
2.152,-1.9303e-05,0
2.1525,1.3428e-06,0
2.153,3.0716e-05,0
2.1535,4.7501e-05,0
2.154,5.2201e-05,0
2.1545,5.8244e-05,0
2.155,6.8315e-05,0
2.1555,7.2679e-05,0
2.156,6.865e-05,0
2.1565,6.009e-05,0
2.157,4.8173e-05,0
2.1575,3.3066e-05,0
2.158,2.1653e-05,0
2.1585,1.4603e-05,0
2.159,6.5461e-06,0
2.1595,-2.8534e-06,0
2.16,-7.3854e-06,0
2.1605,-2.8534e-06,0
2.161,3.357e-06,0
2.1615,8.896e-06,0
2.162,1.7792e-05,0
2.1625,2.5345e-05,0
2.163,2.6352e-05,0
2.1635,2.2324e-05,0
2.164,1.4603e-05,0
2.1645,7.8889e-06,0
2.165,1.8296e-05,0
2.1655,6.1936e-05,0
2.166,0.0001086,0
2.1665,0.00011901,0
2.167,9.6849e-05,0
2.1675,7.1e-05,0
2.168,5.2201e-05,0
2.1685,3.2898e-05,0
2.169,8.2246e-06,0
2.1695,-2.031e-05,0
2.17,-4.6662e-05,0
2.1705,-6.1265e-05,0
2.171,-5.774e-05,0
2.1715,-4.3137e-05,0
2.172,-3.0716e-05,0
2.1725,-2.8199e-05,0
2.173,-3.1724e-05,0
2.1735,-3.0381e-05,0
2.174,-2.7192e-05,0
2.1745,-3.0716e-05,0
2.175,-3.6591e-05,0
2.1755,-3.6591e-05,0
2.176,-3.1556e-05,0
2.1765,-2.3163e-05,0
2.177,-1.1749e-05,0
2.1775,-8.392e-07,0
2.178,6.2104e-06,0
2.1785,6.5461e-06,0
2.179,4.5319e-06,0
2.1795,1.2085e-05,0
2.18,3.1388e-05,0
2.1805,5.153e-05,0
2.181,6.949e-05,0
2.1815,8.3589e-05,0
2.182,8.2246e-05,0
2.1825,6.4286e-05,0
2.183,5.1865e-05,0
2.1835,5.153e-05,0
2.184,5.069e-05,0
2.1845,4.3809e-05,0
2.185,3.5416e-05,0
2.1855,3.0381e-05,0
2.186,3.1724e-05,0
2.1865,3.7934e-05,0
2.187,3.8605e-05,0
2.1875,3.1052e-05,0
2.188,1.947e-05,0
2.1885,7.2175e-06,0
2.189,-2.5177e-06,0
2.1895,-8.2246e-06,0
2.19,-9.0639e-06,0
2.1905,-9.0639e-06,0
2.191,-1.326e-05,0
2.1915,-1.7121e-05,0
2.192,-1.2757e-05,0
2.1925,-1.326e-05,0
2.193,-2.1485e-05,0
2.1935,-2.1653e-05,0
2.194,-1.2253e-05,0
2.1945,-3.1891e-06,0
2.195,1.8463e-06,0
2.1955,1.0575e-05,0
2.196,2.266e-05,0
2.1965,3.7766e-05,0
2.197,5.539e-05,0
2.1975,7.5364e-05,0
2.198,9.366e-05,0
2.1985,0.00010155,0
2.199,0.00010121,0
2.1995,0.00010037,0
2.2,0.00010239,0
2.2005,0.00010423,0
2.201,9.5171e-05,0
2.2015,7.8386e-05,0
2.202,6.949e-05,0
2.2025,7.0497e-05,0
2.203,7.6036e-05,0
2.2035,9.0471e-05,0
2.204,0.00010726,0
2.2045,0.00010994,0
2.205,9.8192e-05,0
2.2055,7.7714e-05,0
2.206,5.4719e-05,0
2.2065,3.0381e-05,0
2.207,6.8818e-06,0
2.2075,-1.4267e-05,0
2.208,-3.1388e-05,0
2.2085,-4.3137e-05,0
2.209,-5.2033e-05,0
2.2095,-5.8579e-05,0
2.21,-5.9754e-05,0
2.2105,-5.7572e-05,0
2.211,-5.9251e-05,0
2.2115,-6.2944e-05,0
2.212,-5.7237e-05,0
2.2125,-4.0116e-05,0
2.213,-2.0478e-05,0
2.2135,2.8534e-06,0
2.214,1.7624e-05,0
2.2145,1.0239e-05,0
2.215,-2.3499e-06,0
2.2155,-4.1962e-06,0
2.216,3.0213e-06,0
2.2165,9.7353e-06,0
2.217,9.2317e-06,0
2.2175,5.2033e-06,0
2.218,3.8605e-06,0
2.2185,7.0497e-06,0
2.219,1.1414e-05,0
2.2195,1.3764e-05,0
2.22,9.0639e-06,0
2.2205,1.1749e-06,0
2.221,-3.5248e-06,0
2.2215,-6.3783e-06,0
2.222,-1.0575e-05,0
2.2225,-1.5778e-05,0
2.223,-2.2324e-05,0
2.2235,-2.9709e-05,0
2.224,-3.2059e-05,0
2.2245,-2.7863e-05,0
2.225,-2.0646e-05,0
2.2255,-1.1078e-05,0
2.226,-3.0213e-06,0
2.2265,5.2033e-06,0
2.227,1.4099e-05,0
2.2275,2.417e-05,0
2.228,3.122e-05,0
2.2285,3.3738e-05,0
2.229,3.4073e-05,0
2.2295,3.9109e-05,0
2.23,5.3544e-05,0
2.2305,6.9322e-05,0
2.231,7.7546e-05,0
2.2315,7.0329e-05,0
2.232,5.0355e-05,0
2.2325,3.4073e-05,0
2.233,2.4002e-05,0
2.2335,1.8463e-05,0
2.234,1.5946e-05,0
2.2345,1.2253e-05,0
2.235,8.3925e-06,0
2.2355,1.1917e-05,0
2.236,2.1653e-05,0
2.2365,2.8534e-05,0
2.237,3.0381e-05,0
2.2375,3.743e-05,0
2.238,5.5222e-05,0
2.2385,7.6371e-05,0
2.239,8.8792e-05,0
2.2395,8.6778e-05,0
2.24,7.2343e-05,0
2.2405,5.6901e-05,0
2.241,4.918e-05,0
2.2415,5.3544e-05,0
2.242,6.0258e-05,0
2.2425,5.8579e-05,0
2.243,4.8844e-05,0
2.2435,4.0955e-05,0
2.244,3.6088e-05,0
2.2445,3.2059e-05,0
2.245,3.2059e-05,0
2.2455,3.1388e-05,0
2.246,2.5345e-05,0
2.2465,1.7288e-05,0
2.247,1.0575e-05,0
2.2475,6.2104e-06,0
2.248,1.5106e-06,0
2.2485,-1.1582e-05,0
2.249,-3.0381e-05,0
2.2495,-4.3809e-05,0
2.25,-4.1123e-05,0
2.2505,-2.7863e-05,0
2.251,-1.091e-05,0
2.2515,9.2317e-06,0
2.252,2.6017e-05,0
2.2525,3.6088e-05,0
2.253,3.743e-05,0
2.2535,3.3402e-05,0
2.254,3.2059e-05,0
2.2545,2.4674e-05,0
2.255,1.3764e-05,0
2.2555,1.0575e-05,0
2.256,1.3932e-05,0
2.2565,1.796e-05,0
2.257,2.7695e-05,0
2.2575,3.9948e-05,0
2.258,5.2537e-05,0
2.2585,7.335e-05,0
2.259,9.7185e-05,0
2.2595,0.0001138,0
2.26,0.00011397,0
2.2605,9.6513e-05,0
2.261,7.3014e-05,0
2.2615,4.7501e-05,0
2.262,2.3331e-05,0
2.2625,7.8889e-06,0
2.263,2.5177e-06,0
2.2635,-1.678e-07,0
2.264,-8.3925e-06,0
2.2645,-2.7359e-05,0
2.265,-5.3376e-05,0
2.2655,-7.3854e-05,0
2.266,-8.275e-05,0
2.2665,-8.2078e-05,0
2.267,-7.6036e-05,0
2.2675,-7.2679e-05,0
2.268,-7.9393e-05,0
2.2685,-8.9128e-05,0
2.269,-8.8792e-05,0
2.2695,-7.7043e-05,0
2.27,-5.8579e-05,0
2.2705,-3.9948e-05,0
2.271,-2.0478e-05,0
2.2715,2.0142e-06,0
2.272,2.8031e-05,0
2.2725,5.623e-05,0
2.273,7.6539e-05,0
2.2735,8.6778e-05,0
2.274,9.2149e-05,0
2.2745,9.1814e-05,0
2.275,8.2414e-05,0
2.2755,6.4958e-05,0
2.276,4.4144e-05,0
2.2765,2.7695e-05,0
2.277,2.1149e-05,0
2.2775,2.1317e-05,0
2.278,1.6785e-05,0
2.2785,3.8605e-06,0
2.279,-1.091e-05,0
2.2795,-2.031e-05,0
2.28,-1.8463e-05,0
2.2805,-1.2757e-05,0
2.281,-9.9031e-06,0
2.2815,-3.5248e-06,0
2.282,5.7069e-06,0
2.2825,1.091e-05,0
2.283,1.0407e-05,0
2.2835,5.2033e-06,0
2.284,-4.8676e-06,0
2.2845,-1.8967e-05,0
2.285,-2.5009e-05,0
2.2855,-2.031e-05,0
2.286,-9.0639e-06,0
2.2865,4.0284e-06,0
2.287,1.5778e-05,0
2.2875,2.7359e-05,0
2.288,3.5752e-05,0
2.2885,3.8773e-05,0
2.289,4.213e-05,0
2.2895,4.6662e-05,0
2.29,5.0355e-05,0
2.2905,5.2872e-05,0
2.291,4.3809e-05,0
2.2915,1.6785e-05,0
2.292,-7.7211e-06,0
2.2925,-1.326e-05,0
2.293,5.2033e-06,0
2.2935,3.9277e-05,0
2.294,6.8315e-05,0
2.2945,8.275e-05,0
2.295,9.0806e-05,0
2.2955,9.8863e-05,0
2.296,9.8863e-05,0
2.2965,9.1142e-05,0
2.297,8.9799e-05,0
2.2975,9.9199e-05,0
2.298,0.0001133,0
2.2985,0.00011749,0
2.299,0.00010423,0
2.2995,7.9728e-05,0
2.3,5.539e-05,0
2.3005,3.743e-05,0
2.301,2.4002e-05,0
2.3015,1.1246e-05,0
2.302,3.1891e-06,0
2.3025,1.3428e-06,0
2.303,2.182e-06,0
2.3035,3.8605e-06,0
2.304,6.3783e-06,0
2.3045,9.0639e-06,0
2.305,1.0575e-05,0
2.3055,8.896e-06,0
2.306,3.1891e-06,0
2.3065,-8.896e-06,0
2.307,-2.5009e-05,0
2.3075,-3.978e-05,0
2.308,-4.448e-05,0
2.3085,-3.2395e-05,0
2.309,-1.796e-05,0
2.3095,-1.6114e-05,0
2.31,-1.0575e-05,0
2.3105,1.0239e-05,0
2.311,2.8702e-05,0
2.3115,3.7262e-05,0
2.312,4.3809e-05,0
2.3125,4.6494e-05,0
2.313,4.4144e-05,0
2.3135,4.0452e-05,0
2.314,3.8102e-05,0
2.3145,3.5752e-05,0
2.315,3.2731e-05,0
2.3155,3.4409e-05,0
2.316,3.9445e-05,0
2.3165,4.0619e-05,0
2.317,3.8773e-05,0
2.3175,3.1891e-05,0
2.318,1.4435e-05,0
2.3185,-6.8818e-06,0
2.319,-2.0981e-05,0
2.3195,-2.6352e-05,0
2.32,-2.8031e-05,0
2.3205,-2.5681e-05,0
2.321,-1.7121e-05,0
2.3215,-5.539e-06,0
2.322,3.357e-07,0
2.3225,-7.7211e-06,0
2.323,-2.6017e-05,0
2.3235,-3.827e-05,0
2.324,-3.4409e-05,0
2.3245,-2.1653e-05,0
2.325,-1.3932e-05,0
2.3255,-1.5106e-05,0
2.326,-1.8967e-05,0
2.3265,-1.6953e-05,0
2.327,-6.5461e-06,0
2.3275,5.2033e-06,0
2.328,1.5106e-05,0
2.3285,2.1317e-05,0
2.329,1.7288e-05,0
2.3295,6.5461e-06,0
2.33,-1.678e-07,0
2.3305,-6.714e-07,0
2.331,0,0
2.3315,5.2033e-06,0
2.332,2.4674e-05,0
2.3325,5.6565e-05,0
2.333,7.805e-05,0
2.3335,7.5029e-05,0
2.334,6.3447e-05,0
2.3345,5.9922e-05,0
2.335,6.9825e-05,0
2.3355,8.3085e-05,0
2.336,8.5435e-05,0
2.3365,8.5771e-05,0
2.337,9.3324e-05,0
2.3375,0.00010373,0
2.338,0.00010692,0
2.3385,9.6513e-05,0
2.339,7.8889e-05,0
2.3395,5.8915e-05,0
2.34,3.8437e-05,0
2.3405,2.0646e-05,0
2.341,1.0575e-05,0
2.3415,9.2317e-06,0
2.342,1.5778e-05,0
2.3425,2.2492e-05,0
2.343,1.5946e-05,0
2.3435,-2.2324e-05,0
2.344,-8.1071e-05,0
2.3445,-0.0001227,0
2.345,-0.0001237,0
2.3455,-9.8192e-05,0
2.346,-6.7811e-05,0
2.3465,-4.3137e-05,0
2.347,-1.6281e-05,0
2.3475,1.7456e-05,0
2.348,4.7837e-05,0
2.3485,6.3783e-05,0
2.349,6.5797e-05,0
2.3495,5.8244e-05,0
2.35,4.3641e-05,0
2.3505,3.4241e-05,0
2.351,4.9683e-05,0
2.3515,7.4693e-05,0
2.352,7.8218e-05,0
2.3525,6.0594e-05,0
2.353,4.0787e-05,0
2.3535,1.796e-05,0
2.354,-1.3092e-05,0
2.3545,-4.6662e-05,0
2.355,-7.2007e-05,0
2.3555,-8.1071e-05,0
2.356,-7.2343e-05,0
2.3565,-4.9515e-05,0
2.357,-1.7288e-05,0
2.3575,1.8631e-05,0
2.358,4.8844e-05,0
2.3585,6.9657e-05,0
2.359,8.1407e-05,0
2.3595,8.4428e-05,0
2.36,8.4428e-05,0
2.3605,8.4093e-05,0
2.361,7.8386e-05,0
2.3615,6.5965e-05,0
2.362,5.3544e-05,0
2.3625,4.4144e-05,0
2.363,3.5248e-05,0
2.3635,2.4002e-05,0
2.364,1.2421e-05,0
2.3645,3.357e-06,0
2.365,-4.5319e-06,0
2.3655,-1.561e-05,0
2.366,-1.5778e-05,0
2.3665,1.1414e-05,0
2.367,3.6088e-05,0
2.3675,3.5416e-05,0
2.368,2.1317e-05,0
2.3685,1.2589e-05,0
2.369,8.0568e-06,0
2.3695,-1.8463e-06,0
2.37,-1.1414e-05,0
2.3705,-1.326e-05,0
2.371,-4.1962e-06,0
2.3715,1.2589e-05,0
2.372,2.9206e-05,0
2.3725,3.8437e-05,0
2.373,3.8773e-05,0
2.3735,3.6927e-05,0
2.374,3.6927e-05,0
2.3745,4.1459e-05,0
2.375,4.2298e-05,0
2.3755,2.9374e-05,0
2.376,9.2317e-06,0
2.3765,-3.357e-06,0
2.377,-1.0071e-06,0
2.3775,1.0239e-05,0
2.378,1.7288e-05,0
2.3785,1.4771e-05,0
2.379,4.3641e-06,0
2.3795,-2.5177e-06,0
2.38,1.0071e-06,0
2.3805,8.5603e-06,0
2.381,2.1317e-05,0
2.3815,3.8605e-05,0
2.382,6.009e-05,0
2.3825,8.4093e-05,0
2.383,9.6513e-05,0
2.3835,9.1142e-05,0
2.384,8.191e-05,0
2.3845,7.4693e-05,0
2.385,6.4118e-05,0
2.3855,4.2466e-05,0
2.386,1.2421e-05,0
2.3865,-1.6281e-05,0
2.387,-3.4745e-05,0
2.3875,-4.5151e-05,0
2.388,-4.9851e-05,0
2.3885,-4.5823e-05,0
2.389,-3.2731e-05,0
2.3895,-2.3331e-05,0
2.39,-3.0045e-05,0
2.3905,-4.3137e-05,0
2.391,-4.683e-05,0
2.3915,-4.0452e-05,0
2.392,-3.6088e-05,0
2.3925,-3.357e-05,0
2.393,-2.6017e-05,0
2.3935,-1.3764e-05,0
2.394,-2.182e-06,0
2.3945,2.182e-06,0
2.395,-9.9031e-06,0
2.3955,-4.0452e-05,0
2.396,-6.7475e-05,0
2.3965,-7.1672e-05,0
2.397,-4.3977e-05,0
2.3975,7.8889e-06,0
2.398,6.1936e-05,0
2.3985,0.0001034,0
2.399,0.00012723,0
2.3995,0.00013478,0
2.4,0.00013344,0
2.4005,0.00012773,0
2.401,0.00010625,0
2.4015,7.2847e-05,0
2.402,4.5319e-05,0
2.4025,3.3234e-05,0
2.403,3.3402e-05,0
2.4035,3.827e-05,0
2.404,4.2634e-05,0
2.4045,4.5823e-05,0
2.405,4.2802e-05,0
2.4055,3.357e-05,0
2.406,2.7695e-05,0
2.4065,3.2059e-05,0
2.407,4.2298e-05,0
2.4075,5.2201e-05,0
2.408,5.5894e-05,0
2.4085,4.5319e-05,0
2.409,2.2324e-05,0
2.4095,-1.3428e-06,0
2.41,-1.8799e-05,0
2.4105,-2.9374e-05,0
2.411,-2.8031e-05,0
2.4115,-1.6617e-05,0
2.412,-2.8534e-06,0
2.4125,9.2317e-06,0
2.413,2.2995e-05,0
2.4135,3.978e-05,0
2.414,5.0858e-05,0
2.4145,4.9515e-05,0
2.415,3.8437e-05,0
2.4155,2.6688e-05,0
2.416,1.5274e-05,0
2.4165,2.5177e-06,0
2.417,-3.8605e-06,0
2.4175,1.0071e-06,0
2.418,1.3764e-05,0
2.4185,2.5345e-05,0
2.419,3.4745e-05,0
2.4195,4.1962e-05,0
2.42,4.0955e-05,0
2.4205,3.4745e-05,0
2.421,2.9709e-05,0
2.4215,2.9709e-05,0
2.422,3.1724e-05,0
2.4225,2.8367e-05,0
2.423,1.6785e-05,0
2.4235,6.0426e-06,0
2.424,3.1891e-06,0
2.4245,1.8463e-06,0
2.425,1.1917e-05,0
2.4255,4.213e-05,0
2.426,6.6636e-05,0
2.4265,6.5461e-05,0
2.427,5.2705e-05,0
2.4275,4.2802e-05,0
2.428,3.0549e-05,0
2.4285,9.9031e-06,0
2.429,-1.3092e-05,0
2.4295,-2.7359e-05,0
2.43,-3.0381e-05,0
2.4305,-3.0716e-05,0
2.431,-3.3906e-05,0
2.4315,-3.3906e-05,0
2.432,-2.7192e-05,0
2.4325,-1.7624e-05,0
2.433,-1.6281e-05,0
2.4335,-1.9135e-05,0
2.434,-2.3163e-05,0
2.4345,-3.1556e-05,0
2.435,-4.8173e-05,0
2.4355,-6.4622e-05,0
2.436,-6.5293e-05,0
2.4365,-4.9515e-05,0
2.437,-3.0381e-05,0
2.4375,-1.091e-05,0
2.438,1.3932e-05,0
2.4385,4.2466e-05,0
2.439,6.6972e-05,0
2.4395,8.1071e-05,0
2.44,7.8386e-05,0
2.4405,6.2272e-05,0
2.441,4.5151e-05,0
2.4415,4.213e-05,0
2.442,4.9012e-05,0
2.4425,5.8915e-05,0
2.443,7.1336e-05,0
2.4435,8.3085e-05,0
2.444,8.8121e-05,0
2.4445,8.8792e-05,0
2.445,8.9464e-05,0
2.4455,8.4428e-05,0
2.446,7.5532e-05,0
2.4465,6.949e-05,0
2.447,6.7308e-05,0
2.4475,6.1601e-05,0
2.448,4.918e-05,0
2.4485,3.978e-05,0
2.449,3.508e-05,0
2.4495,2.4674e-05,0
2.45,2.182e-06,0
2.4505,-2.1317e-05,0
2.451,-3.508e-05,0
2.4515,-3.592e-05,0
2.452,-3.2059e-05,0
2.4525,-3.1556e-05,0
2.453,-2.9542e-05,0
2.4535,-2.2995e-05,0
2.454,-1.6617e-05,0
2.4545,-1.3092e-05,0
2.455,-8.3925e-06,0
2.4555,-1.5106e-06,0
2.456,5.7069e-06,0
2.4565,1.091e-05,0
2.457,1.0575e-05,0
2.4575,2.8534e-06,0
2.458,-2.8534e-06,0
2.4585,-1.678e-07,0
2.459,1.0071e-06,0
2.4595,-6.2104e-06,0
2.46,-3.8605e-06,0
2.4605,1.326e-05,0
2.461,2.887e-05,0
2.4615,3.2898e-05,0
2.462,3.0381e-05,0
2.4625,2.3667e-05,0
2.463,8.5603e-06,0
2.4635,-7.2175e-06,0
2.464,-1.5274e-05,0
2.4645,-8.896e-06,0
2.465,8.896e-06,0
2.4655,2.5009e-05,0
2.466,3.122e-05,0
2.4665,3.6088e-05,0
2.467,4.5487e-05,0
2.4675,4.8508e-05,0
2.468,4.0284e-05,0
2.4685,3.3906e-05,0
2.469,3.743e-05,0
2.4695,4.0116e-05,0
2.47,3.8773e-05,0
2.4705,4.0787e-05,0
2.471,4.5823e-05,0
2.4715,4.5487e-05,0
2.472,3.4073e-05,0
2.4725,2.2995e-05,0
2.473,3.1724e-05,0
2.4735,5.1698e-05,0
2.474,5.9587e-05,0
2.4745,5.0858e-05,0
2.475,4.1795e-05,0
2.4755,4.6494e-05,0
2.476,5.9587e-05,0
2.4765,6.3615e-05,0
2.477,5.4215e-05,0
2.4775,2.2324e-05,0
2.478,-3.0381e-05,0
2.4785,-6.9322e-05,0
2.479,-7.0329e-05,0
2.4795,-4.5655e-05,0
2.48,-1.2253e-05,0
2.4805,1.6617e-05,0
2.481,3.7262e-05,0
2.4815,4.7837e-05,0
2.482,5.0019e-05,0
2.4825,4.5319e-05,0
2.483,3.0381e-05,0
2.4835,8.896e-06,0
2.484,-4.8676e-06,0
2.4845,-8.392e-07,0
2.485,1.2757e-05,0
2.4855,2.1988e-05,0
2.486,2.2324e-05,0
2.4865,1.9638e-05,0
2.487,1.7121e-05,0
2.4875,1.6785e-05,0
2.488,1.7792e-05,0
2.4885,1.7792e-05,0
2.489,1.0071e-05,0
2.4895,-8.5603e-06,0
2.49,-3.1891e-05,0
2.4905,-4.4312e-05,0
2.491,-4.0452e-05,0
2.4915,-2.6352e-05,0
2.492,-1.4939e-05,0
2.4925,-8.2246e-06,0
2.493,-5.035e-07,0
2.4935,8.7282e-06,0
2.494,1.5274e-05,0
2.4945,1.9974e-05,0
2.495,2.2156e-05,0
2.4955,2.2324e-05,0
2.496,2.1317e-05,0
2.4965,1.8631e-05,0
2.497,1.1246e-05,0
2.4975,-5.2033e-06,0
2.498,-1.9303e-05,0
2.4985,-1.326e-05,0
2.499,3.8605e-06,0
2.4995,1.1917e-05,0
2.5,1.2589e-05,0
2.5005,2.182e-05,0
2.501,4.0284e-05,0
2.5015,5.8244e-05,0
2.502,6.9322e-05,0
2.5025,6.7979e-05,0
2.503,6.1265e-05,0
2.5035,6.6972e-05,0
2.504,8.04e-05,0
2.5045,8.9128e-05,0
2.505,9.1478e-05,0
2.5055,9.0135e-05,0
2.506,8.5771e-05,0
2.5065,7.9393e-05,0
2.507,7.1672e-05,0
2.5075,6.3615e-05,0
2.508,5.6901e-05,0
2.5085,5.0187e-05,0
2.509,4.4144e-05,0
2.5095,3.9277e-05,0
2.51,3.4745e-05,0
2.5105,2.6688e-05,0
2.511,1.6617e-05,0
2.5115,1.2253e-05,0
2.512,1.7288e-05,0
2.5125,1.9974e-05,0
2.513,1.1917e-05,0
2.5135,-5.2033e-06,0
2.514,-2.4002e-05,0
2.5145,-3.5416e-05,0
2.515,-3.4073e-05,0
2.5155,-2.5849e-05,0
2.516,-1.8128e-05,0
2.5165,-1.326e-05,0
2.517,-1.3596e-05,0
2.5175,-1.5946e-05,0
2.518,-7.7211e-06,0
2.5185,1.0239e-05,0
2.519,2.8031e-05,0
2.5195,3.592e-05,0
2.52,2.0646e-05,0
2.5205,-1.0239e-05,0
2.521,-2.1653e-05,0
2.5215,3.0213e-06,0
2.522,4.0955e-05,0
2.5225,7.0329e-05,0
2.523,8.8121e-05,0
2.5235,9.836e-05,0
2.524,9.5842e-05,0
2.5245,7.7378e-05,0
2.525,5.2537e-05,0
2.5255,2.2995e-05,0
2.526,-1.6281e-05,0
2.5265,-5.0858e-05,0
2.527,-6.4622e-05,0
2.5275,-6.1097e-05,0
2.528,-5.1362e-05,0
2.5285,-4.1459e-05,0
2.529,-3.6088e-05,0
2.5295,-3.8437e-05,0
2.53,-4.4816e-05,0
2.5305,-4.683e-05,0
2.531,-3.8437e-05,0
2.5315,-1.6281e-05,0
2.532,1.4435e-05,0
2.5325,3.8605e-05,0
2.533,5.069e-05,0
2.5335,5.7572e-05,0
2.534,6.0594e-05,0
2.5345,5.7572e-05,0
2.535,4.8173e-05,0
2.5355,3.7262e-05,0
2.536,3.1891e-05,0
2.5365,2.9038e-05,0
2.537,2.4002e-05,0
2.5375,2.3667e-05,0
2.538,2.7359e-05,0
2.5385,2.6017e-05,0
2.539,1.7288e-05,0
2.5395,1.4771e-05,0
2.54,2.7359e-05,0
2.5405,3.5416e-05,0
2.541,1.7288e-05,0
2.5415,-1.4939e-05,0
2.542,-3.7766e-05,0
2.5425,-4.3137e-05,0
2.543,-3.5752e-05,0
2.5435,-2.1653e-05,0
2.544,-9.2317e-06,0
2.5445,-3.1891e-06,0
2.545,5.035e-07,0
2.5455,4.3641e-06,0
2.546,1.1078e-05,0
2.5465,2.2995e-05,0
2.547,3.7766e-05,0
2.5475,4.5319e-05,0
2.548,4.5487e-05,0
2.5485,4.8508e-05,0
2.549,4.7669e-05,0
2.5495,3.743e-05,0
2.55,3.7934e-05,0
2.5505,6.6972e-05,0
2.551,0.00010239,0
2.5515,0.00011582,0
2.552,0.0001039,0
2.5525,9.1478e-05,0
2.553,8.7953e-05,0
2.5535,8.3589e-05,0
2.554,7.6371e-05,0
2.5545,6.8315e-05,0
2.555,5.8244e-05,0
2.5555,4.8676e-05,0
2.556,5.2033e-05,0
2.5565,6.3951e-05,0
2.557,6.3615e-05,0
2.5575,5.0019e-05,0
2.558,3.8437e-05,0
2.5585,2.887e-05,0
2.559,1.2253e-05,0
2.5595,-1.1917e-05,0
2.56,-4.2802e-05,0
2.5605,-7.1336e-05,0
2.561,-8.0232e-05,0
2.5615,-7.335e-05,0
2.562,-6.0761e-05,0
2.5625,-4.2802e-05,0
2.563,-2.0981e-05,0
2.5635,-3.357e-07,0
2.564,1.8463e-05,0
2.5645,3.0716e-05,0
2.565,3.4073e-05,0
2.5655,3.2731e-05,0
2.566,2.9374e-05,0
2.5665,2.0981e-05,0
2.567,8.896e-06,0
2.5675,3.6927e-06,0
2.568,1.1917e-05,0
2.5685,3.1724e-05,0
2.569,5.0187e-05,0
2.5695,6.2944e-05,0
2.57,7.805e-05,0
2.5705,8.1407e-05,0
2.571,6.2944e-05,0
2.5715,3.7095e-05,0
2.572,2.2995e-05,0
2.5725,2.9206e-05,0
2.573,3.9109e-05,0
2.5735,3.0381e-05,0
2.574,6.5461e-06,0
2.5745,-1.6953e-05,0
2.575,-2.9709e-05,0
2.5755,-3.4577e-05,0
2.576,-3.7934e-05,0
2.5765,-4.3473e-05,0
2.577,-5.1194e-05,0
2.5775,-5.4215e-05,0
2.578,-5.0858e-05,0
2.5785,-4.3305e-05,0
2.579,-3.0045e-05,0
2.5795,-1.9638e-05,0
2.58,-1.4267e-05,0
2.5805,-6.0426e-06,0
2.581,6.5461e-06,0
2.5815,1.5106e-05,0
2.582,-3.357e-07,0
2.5825,-3.5416e-05,0
2.583,-6.5461e-05,0
2.5835,-7.9057e-05,0
2.584,-7.4693e-05,0
2.5845,-5.6733e-05,0
2.585,-2.5681e-05,0
2.5855,1.7121e-05,0
2.586,5.9587e-05,0
2.5865,9.3156e-05,0
2.587,0.00011968,0
2.5875,0.00013478,0
2.588,0.00013478,0
2.5885,0.00012706,0
2.589,0.00012119,0
2.5895,0.00011901,0
2.59,0.00011078,0
2.5905,9.8863e-05,0
2.591,8.9799e-05,0
2.5915,7.6875e-05,0
2.592,5.1362e-05,0
2.5925,1.5778e-05,0
2.593,-1.6449e-05,0
2.5935,-3.1724e-05,0
2.594,-3.0045e-05,0
2.5945,-2.3499e-05,0
2.595,-2.031e-05,0
2.5955,-2.6017e-05,0
2.596,-4.2298e-05,0
2.5965,-5.4719e-05,0
2.597,-5.8244e-05,0
2.5975,-5.1865e-05,0
2.598,-2.0981e-05,0
2.5985,3.3234e-05,0
2.599,8.2414e-05,0
2.5995,0.00011246,0
2.6,0.0001368,0
2.6005,0.00017775,0
2.601,0.00021384,0
2.6015,0.0002177,0
2.602,0.00019051,0
2.6025,0.00014452,0
2.603,0.00010457,0
2.6035,7.9728e-05,0
2.604,5.4887e-05,0
2.6045,3.1052e-05,0
2.605,1.9806e-05,0
2.6055,1.2085e-05,0
2.606,-1.5946e-05,0
2.6065,-5.5894e-05,0
2.607,-8.3085e-05,0
2.6075,-9.1814e-05,0
2.608,-9.1646e-05,0
2.6085,-9.131e-05,0
2.609,-9.3324e-05,0
2.6095,-9.3492e-05,0
2.61,-8.9128e-05,0
2.6105,-8.426e-05,0
2.611,-8.896e-05,0
2.6115,-9.601e-05,0
2.612,-9.0974e-05,0
2.6125,-7.9057e-05,0
2.613,-7.1336e-05,0
2.6135,-6.6972e-05,0
2.614,-6.1265e-05,0
2.6145,-5.6901e-05,0
2.615,-5.5894e-05,0
2.6155,-4.683e-05,0
2.616,-2.3331e-05,0
2.6165,-1.5106e-06,0
2.617,9.5674e-06,0
2.6175,2.266e-05,0
2.618,4.2802e-05,0
2.6185,6.0929e-05,0
2.619,6.2944e-05,0
2.6195,5.153e-05,0
2.62,5.069e-05,0
2.6205,7.7378e-05,0
2.621,0.000118,0
2.6215,0.00015224,0
2.622,0.00016818,0
2.6225,0.0001707,0
2.623,0.00016164,0
2.6235,0.00014015,0
2.624,0.00011901,0
2.6245,0.00010658,0
2.625,8.6778e-05,0
2.6255,4.7669e-05,0
2.626,3.357e-07,0
2.6265,-3.4745e-05,0
2.627,-5.3208e-05,0
2.6275,-5.5558e-05,0
2.628,-4.6494e-05,0
2.6285,-3.2563e-05,0
2.629,-1.8631e-05,0
2.6295,-1.091e-05,0
2.63,-1.3596e-05,0
2.6305,-2.182e-05,0
2.631,-2.7024e-05,0
2.6315,-2.5009e-05,0
2.632,-1.8128e-05,0
2.6325,-7.5532e-06,0
2.633,6.0426e-06,0
2.6335,1.947e-05,0
2.634,1.796e-05,0
2.6345,-7.5532e-06,0
2.635,-3.2731e-05,0
2.6355,-3.5416e-05,0
2.636,-1.8967e-05,0
2.6365,1.0071e-06,0
2.637,1.5946e-05,0
2.6375,2.7192e-05,0
2.638,3.6759e-05,0
2.6385,4.4144e-05,0
2.639,4.9515e-05,0
2.6395,5.2537e-05,0
2.64,5.3376e-05,0
2.6405,5.8412e-05,0
2.641,6.8147e-05,0
2.6415,7.1839e-05,0
2.642,6.8315e-05,0
2.6425,6.63e-05,0
2.643,6.865e-05,0
2.6435,6.7643e-05,0
2.644,5.5726e-05,0
2.6445,3.7766e-05,0
2.645,2.5177e-05,0
2.6455,3.0549e-05,0
2.646,5.3208e-05,0
2.6465,7.6371e-05,0
2.647,8.7785e-05,0
2.6475,8.275e-05,0
2.648,6.4118e-05,0
2.6485,4.8844e-05,0
2.649,4.3641e-05,0
2.6495,4.1962e-05,0
2.65,4.0619e-05,0
2.6505,3.9445e-05,0
2.651,3.3738e-05,0
2.6515,2.8367e-05,0
2.652,2.2995e-05,0
2.6525,8.896e-06,0
2.653,-1.0071e-05,0
2.6535,-2.1485e-05,0
2.654,-2.3835e-05,0
2.6545,-2.0813e-05,0
2.655,-1.8631e-05,0
2.6555,-1.6449e-05,0
2.656,-1.1749e-05,0
2.6565,-8.2246e-06,0
2.657,-1.0239e-05,0
2.6575,-1.4435e-05,0
2.658,-1.7792e-05,0
2.6585,-1.7121e-05,0
2.659,-6.714e-06,0
2.6595,7.7211e-06,0
2.66,1.5946e-05,0
2.6605,1.561e-05,0
2.661,4.0284e-06,0
2.6615,-2.5681e-05,0
2.662,-6.0426e-05,0
2.6625,-6.7811e-05,0
2.663,-4.4984e-05,0
2.6635,-1.6281e-05,0
2.664,3.8605e-06,0
2.6645,2.1317e-05,0
2.665,3.9277e-05,0
2.6655,6.1601e-05,0
2.666,9.2485e-05,0
2.6665,0.0001237,0
2.667,0.00014385,0
2.6675,0.00015358,0
2.668,0.00015761,0
2.6685,0.00014687,0
2.669,0.00011397,0
2.6695,5.3376e-05,0
2.67,-1.8967e-05,0
2.6705,-6.6133e-05,0
2.671,-8.3421e-05,0
2.6715,-8.3757e-05,0
2.672,-7.4693e-05,0
2.6725,-6.5965e-05,0
2.673,-6.1265e-05,0
2.6735,-5.7237e-05,0
2.674,-4.7669e-05,0
2.6745,-2.9206e-05,0
2.675,-9.0639e-06,0
2.6755,1.2757e-05,0
2.676,3.6759e-05,0
2.6765,5.0187e-05,0
2.677,4.9348e-05,0
2.6775,4.2802e-05,0
2.678,3.8773e-05,0
2.6785,2.8031e-05,0
2.679,6.5461e-06,0
2.6795,-1.5274e-05,0
2.68,-2.2995e-05,0
2.6805,-1.8463e-05,0
2.681,-7.5532e-06,0
2.6815,7.2175e-06,0
2.682,2.0646e-05,0
2.6825,2.2995e-05,0
2.683,1.7456e-05,0
2.6835,1.326e-05,0
2.684,1.561e-05,0
2.6845,1.9974e-05,0
2.685,8.2246e-06,0
2.6855,-1.5106e-05,0
2.686,-2.3667e-05,0
2.6865,-2.3499e-06,0
2.687,3.9948e-05,0
2.6875,8.2246e-05,0
2.688,0.0001039,0
2.6885,0.00010138,0
2.689,9.2821e-05,0
2.6895,9.9702e-05,0
2.69,0.00010893,0
2.6905,9.7353e-05,0
2.691,8.3085e-05,0
2.6915,8.2414e-05,0
2.692,8.0232e-05,0
2.6925,6.7811e-05,0
2.693,4.8508e-05,0
2.6935,3.0549e-05,0
2.694,2.4338e-05,0
2.6945,2.5681e-05,0
2.695,1.1917e-05,0
2.6955,-1.6281e-05,0
2.696,-4.7333e-05,0
2.6965,-8.0064e-05,0
2.697,-0.00010407,0
2.6975,-0.00010524,0
2.698,-8.6275e-05,0
2.6985,-5.8076e-05,0
2.699,-2.9038e-05,0
2.6995,3.5248e-06,0
2.7,3.7095e-05,0
2.7005,6.0258e-05,0
2.701,5.8915e-05,0
2.7015,2.7695e-05,0
2.702,-5.539e-06,0
2.7025,-8.7282e-06,0
2.703,-6.2104e-06,0
2.7035,-1.6953e-05,0
2.704,-2.1149e-05,0
2.7045,-6.8818e-06,0
2.705,1.1582e-05,0
2.7055,1.947e-05,0
2.706,3.1388e-05,0
2.7065,4.8005e-05,0
2.707,4.8508e-05,0
2.7075,3.4745e-05,0
2.708,3.0045e-05,0
2.7085,3.978e-05,0
2.709,5.2537e-05,0
2.7095,5.9922e-05,0
2.71,6.6133e-05,0
2.7105,6.8315e-05,0
2.711,5.8747e-05,0
2.7115,3.5752e-05,0
2.712,8.5603e-06,0
2.7125,-1.4099e-05,0
2.713,-2.8199e-05,0
2.7135,-3.6423e-05,0
2.714,-3.8437e-05,0
2.7145,-3.4913e-05,0
2.715,-2.5177e-05,0
2.7155,-1.5946e-05,0
2.716,-1.4939e-05,0
2.7165,-1.8799e-05,0
2.717,-1.796e-05,0
2.7175,-8.2246e-06,0
2.718,6.5461e-06,0
2.7185,1.3932e-05,0
2.719,1.5946e-05,0
2.7195,2.2324e-05,0
2.72,2.6017e-05,0
2.7205,2.182e-05,0
2.721,1.5778e-05,0
2.7215,1.2253e-05,0
2.722,1.326e-05,0
2.7225,2.1988e-05,0
2.723,3.2563e-05,0
2.7235,3.6927e-05,0
2.724,3.0381e-05,0
2.7245,1.8631e-05,0
2.725,1.4603e-05,0
2.7255,1.796e-05,0
2.726,1.2589e-05,0
2.7265,2.5177e-06,0
2.727,-1.678e-07,0
2.7275,7.2175e-06,0
2.728,2.4674e-05,0
2.7285,4.0955e-05,0
2.729,4.2802e-05,0
2.7295,2.6688e-05,0
2.73,1.1917e-05,0
2.7305,1.8631e-05,0
2.731,4.3473e-05,0
2.7315,7.1e-05,0
2.732,9.0471e-05,0
2.7325,0.00010323,0
2.733,0.00010625,0
2.7335,9.3492e-05,0
2.734,6.5629e-05,0
2.7345,3.5416e-05,0
2.735,2.0813e-05,0
2.7355,2.7527e-05,0
2.736,4.3809e-05,0
2.7365,6.009e-05,0
2.737,6.4286e-05,0
2.7375,4.6494e-05,0
2.738,3.1052e-05,0
2.7385,2.9709e-05,0
2.739,2.266e-05,0
2.7395,1.0575e-05,0
2.74,1.2085e-05,0
2.7405,3.1388e-05,0
2.741,6.1601e-05,0
2.7415,8.3085e-05,0
2.742,8.7785e-05,0
2.7425,7.9057e-05,0
2.743,5.0858e-05,0
2.7435,5.539e-06,0
2.744,-3.4409e-05,0
2.7445,-5.9922e-05,0
2.745,-7.1672e-05,0
2.7455,-6.8818e-05,0
2.746,-5.0523e-05,0
2.7465,-1.8967e-05,0
2.747,1.1414e-05,0
2.7475,3.0549e-05,0
2.748,4.5991e-05,0
2.7485,6.1097e-05,0
2.749,7.335e-05,0
2.7495,7.3686e-05,0
2.75,5.7572e-05,0
2.7505,3.9277e-05,0
2.751,1.9303e-05,0
2.7515,-7.8889e-06,0
2.752,-3.2395e-05,0
2.7525,-4.2634e-05,0
2.753,-3.5752e-05,0
2.7535,-8.3925e-06,0
2.754,4.6494e-05,0
2.7545,0.00010306,0
2.755,0.00014183,0
2.7555,0.00016097,0
2.756,0.00016667,0
2.7565,0.00014989,0
2.757,0.00010558,0
2.7575,4.9515e-05,0
2.758,3.357e-07,0
2.7585,-3.508e-05,0
2.759,-5.9587e-05,0
2.7595,-7.5532e-05,0
2.76,-8.745e-05,0
2.7605,-9.3492e-05,0
2.761,-9.5171e-05,0
2.7615,-9.6513e-05,0
2.762,-9.4163e-05,0
2.7625,-9.5171e-05,0
2.763,-9.836e-05,0
2.7635,-9.2485e-05,0
2.764,-7.8889e-05,0
2.7645,-6.2608e-05,0
2.765,-4.3809e-05,0
2.7655,-2.2492e-05,0
2.766,-6.2104e-06,0
2.7665,3.1891e-06,0
2.767,1.0575e-05,0
2.7675,2.2492e-05,0
2.768,4.2466e-05,0
2.7685,6.4622e-05,0
2.769,7.1336e-05,0
2.7695,6.2944e-05,0
2.77,5.2033e-05,0
2.7705,3.8605e-05,0
2.771,1.2421e-05,0
2.7715,-2.031e-05,0
2.772,-4.6494e-05,0
2.7725,-5.9251e-05,0
2.773,-6.0594e-05,0
2.7735,-5.1194e-05,0
2.774,-2.4506e-05,0
2.7745,1.3764e-05,0
2.775,4.4144e-05,0
2.7755,5.6901e-05,0
2.776,5.8579e-05,0
2.7765,6.6804e-05,0
2.777,8.4764e-05,0
2.7775,0.00010239,0
2.778,0.0001133,0
2.7785,0.00012001,0
2.779,0.00012404,0
2.7795,0.00012068,0
2.78,0.00010793,0
2.7805,9.5674e-05,0
2.781,8.7953e-05,0
2.7815,7.7043e-05,0
2.782,6.0258e-05,0
2.7825,4.448e-05,0
2.783,3.122e-05,0
2.7835,1.2253e-05,0
2.784,-6.3783e-06,0
2.7845,-1.326e-05,0
2.785,-1.0239e-05,0
2.7855,-5.539e-06,0
2.786,-4.8676e-06,0
2.7865,-1.8463e-06,0
2.787,6.2104e-06,0
2.7875,1.6617e-05,0
2.788,2.9374e-05,0
2.7885,4.5487e-05,0
2.789,5.3544e-05,0
2.7895,4.3977e-05,0
2.79,2.5009e-05,0
2.7905,9.7353e-06,0
2.791,5.8747e-06,0
2.7915,8.2246e-06,0
2.792,7.3854e-06,0
2.7925,1.678e-07,0
2.793,-8.2246e-06,0
2.7935,-4.5319e-06,0
2.794,1.3932e-05,0
2.7945,4.4144e-05,0
2.795,8.0903e-05,0
2.7955,0.00011263,0
2.796,0.0001274,0
2.7965,0.00012471,0
2.797,0.00011044,0
2.7975,9.0471e-05,0
2.798,7.4357e-05,0
2.7985,6.1433e-05,0
2.799,4.0787e-05,0
2.7995,3.357e-07,0
2.8,-4.9851e-05,0
2.8005,-8.2078e-05,0
2.801,-9.601e-05,0
2.8015,-0.0001039,0
2.802,-0.00011028,0
2.8025,-0.00011447,0
2.803,-0.00010927,0
2.8035,-9.3996e-05,0
2.804,-7.1672e-05,0
2.8045,-4.5487e-05,0
2.805,-2.4674e-05,0
2.8055,-1.2085e-05,0
2.806,-8.392e-07,0
2.8065,1.4603e-05,0
2.807,3.1052e-05,0
2.8075,4.1459e-05,0
2.808,4.2802e-05,0
2.8085,3.4577e-05,0
2.809,1.7624e-05,0
2.8095,-8.392e-07,0
2.81,-2.1653e-05,0
2.8105,-3.6591e-05,0
2.811,-3.5584e-05,0
2.8115,-2.182e-05,0
2.812,1.5106e-06,0
2.8125,3.2059e-05,0
2.813,5.9587e-05,0
2.8135,8.1407e-05,0
2.814,9.4835e-05,0
2.8145,0.00010323,0
2.815,0.00011196,0
2.8155,0.00011917,0
2.816,0.00012639,0
2.8165,0.00013747,0
2.817,0.00013176,0
2.8175,0.00010541,0
2.818,7.3014e-05,0
2.8185,4.4144e-05,0
2.819,1.5946e-05,0
2.8195,-1.1917e-05,0
2.82,-4.3809e-05,0
2.8205,-9.1814e-05,0
2.821,-0.00015207,0
2.8215,-0.00019403,0
2.822,-0.00019487,0
2.8225,-0.00015996,0
2.823,-0.00010306,0
2.8235,-3.7095e-05,0
2.824,2.6688e-05,0
2.8245,7.9057e-05,0
2.825,0.00010726,0
2.8255,0.00011212,0
2.826,0.00011313,0
2.8265,0.00011867,0
2.827,0.00012505,0
2.8275,0.00013478,0
2.828,0.00014351,0
2.8285,0.00013881,0
2.829,0.00011431,0
2.8295,9.6513e-05,0
2.83,0.00010776,0
2.8305,0.00012522,0
2.831,0.00011615,0
2.8315,7.8218e-05,0
2.832,4.2802e-05,0
2.8325,3.1052e-05,0
2.833,2.9709e-05,0
2.8335,3.0045e-05,0
2.834,3.5584e-05,0
2.8345,3.6759e-05,0
2.835,1.6281e-05,0
2.8355,-2.182e-05,0
2.836,-5.6062e-05,0
2.8365,-7.8721e-05,0
2.837,-9.5842e-05,0
2.8375,-0.00011397,0
2.838,-0.00014452,0
2.8385,-0.0001754,0
2.839,-0.00018547,0
2.8395,-0.00016818,0
2.84,-0.00011817,0
2.8405,-4.213e-05,0
2.841,2.8702e-05,0
2.8415,6.865e-05,0
2.842,8.4428e-05,0
2.8425,9.2485e-05,0
2.843,8.8457e-05,0
2.8435,6.3951e-05,0
2.844,3.4745e-05,0
2.8445,2.9374e-05,0
2.845,4.683e-05,0
2.8455,6.1601e-05,0
2.846,5.4887e-05,0
2.8465,3.3402e-05,0
2.847,1.2924e-05,0
2.8475,2.5177e-06,0
2.848,2.5177e-06,0
2.8485,7.3854e-06,0
2.849,1.7288e-05,0
2.8495,2.8534e-05,0
2.85,3.4241e-05,0
2.8505,3.4745e-05,0
2.851,3.122e-05,0
2.8515,2.6352e-05,0
2.852,2.652e-05,0
2.8525,3.2395e-05,0
2.853,3.6088e-05,0
2.8535,3.827e-05,0
2.854,4.0787e-05,0
2.8545,4.6494e-05,0
2.855,5.069e-05,0
2.8555,3.9445e-05,0
2.856,5.0355e-06,0
2.8565,-1.561e-05,0
2.857,-2.182e-06,0
2.8575,1.796e-05,0
2.858,2.1988e-05,0
2.8585,1.7792e-05,0
2.859,1.9303e-05,0
2.8595,2.6688e-05,0
2.86,3.2059e-05,0
2.8605,3.4577e-05,0
2.861,3.4073e-05,0
2.8615,3.2563e-05,0
2.862,3.1891e-05,0
2.8625,3.3234e-05,0
2.863,3.6759e-05,0
2.8635,3.9277e-05,0
2.864,3.9445e-05,0
2.8645,3.592e-05,0
2.865,3.4577e-05,0
2.8655,3.5584e-05,0
2.866,3.1052e-05,0
2.8665,2.031e-05,0
2.867,1.3764e-05,0
2.8675,1.8296e-05,0
2.868,2.7192e-05,0
2.8685,3.1388e-05,0
2.869,2.9374e-05,0
2.8695,2.6352e-05,0
2.87,3.4073e-05,0
2.8705,5.0858e-05,0
2.871,5.9587e-05,0
2.8715,5.4719e-05,0
2.872,4.7333e-05,0
2.8725,4.448e-05,0
2.873,3.978e-05,0
2.8735,2.8031e-05,0
2.874,1.4939e-05,0
2.8745,5.7069e-06,0
2.875,1.1749e-06,0
2.8755,-5.035e-07,0
2.876,1.1246e-05,0
2.8765,4.0955e-05,0
2.877,6.1601e-05,0
2.8775,6.0761e-05,0
2.878,5.3376e-05,0
2.8785,5.0858e-05,0
2.879,4.8173e-05,0
2.8795,3.6759e-05,0
2.88,1.7288e-05,0
2.8805,-5.539e-06,0
2.881,-3.0381e-05,0
2.8815,-5.9251e-05,0
2.882,-8.275e-05,0
2.8825,-8.9799e-05,0
2.883,-8.5267e-05,0
2.8835,-7.5532e-05,0
2.884,-6.4622e-05,0
2.8845,-5.8915e-05,0
2.885,-6.1265e-05,0
2.8855,-6.1601e-05,0
2.886,-4.8508e-05,0
2.8865,-2.4002e-05,0
2.887,2.8534e-06,0
2.8875,2.0981e-05,0
2.888,2.2995e-05,0
2.8885,2.1317e-05,0
2.889,2.8031e-05,0
2.8895,3.827e-05,0
2.89,3.743e-05,0
2.8905,2.4506e-05,0
2.891,1.6281e-05,0
2.8915,1.8296e-05,0
2.892,2.6688e-05,0
2.8925,2.9038e-05,0
2.893,1.2421e-05,0
2.8935,-2.8367e-05,0
2.894,-7.0832e-05,0
2.8945,-7.8218e-05,0
2.895,-5.2705e-05,0
2.8955,-2.1988e-05,0
2.896,1.1749e-05,0
2.8965,7.1672e-05,0
2.897,0.00014485,0
2.8975,0.00019437,0
2.898,0.00021334,0
2.8985,0.00021048,0
2.899,0.00019034,0
2.8995,0.00016046,0
2.9,0.00012169,0
2.9005,7.1168e-05,0
2.901,1.326e-05,0
2.9015,-4.3137e-05,0
2.902,-8.0064e-05,0
2.9025,-8.7785e-05,0
2.903,-7.0329e-05,0
2.9035,-4.3137e-05,0
2.904,-1.7121e-05,0
2.9045,6.5461e-06,0
2.905,1.5106e-05,0
2.9055,6.0426e-06,0
2.906,-2.8534e-06,0
2.9065,-2.8534e-06,0
2.907,5.0355e-06,0
2.9075,1.8463e-05,0
2.908,3.4577e-05,0
2.9085,4.6159e-05,0
2.909,4.8508e-05,0
2.9095,4.5823e-05,0
2.91,4.1962e-05,0
2.9105,4.3473e-05,0
2.911,4.7501e-05,0
2.9115,4.4312e-05,0
2.912,3.4745e-05,0
2.9125,2.2995e-05,0
2.913,1.6617e-05,0
2.9135,1.796e-05,0
2.914,1.7624e-05,0
2.9145,1.2253e-05,0
2.915,5.2033e-06,0
2.9155,1.1749e-06,0
2.916,0,0
2.9165,7.2175e-06,0
2.917,1.9638e-05,0
2.9175,2.0813e-05,0
2.918,5.8747e-06,0
2.9185,-1.1246e-05,0
2.919,-2.1317e-05,0
2.9195,-1.8463e-05,0
2.92,4.1962e-06,0
2.9205,3.743e-05,0
2.921,6.0929e-05,0
2.9215,6.5629e-05,0
2.922,5.4887e-05,0
2.9225,3.4409e-05,0
2.923,1.1582e-05,0
2.9235,-1.0575e-05,0
2.924,-2.0981e-05,0
2.9245,-2.182e-05,0
2.925,-1.9638e-05,0
2.9255,-9.7353e-06,0
2.926,1.0575e-05,0
2.9265,3.2059e-05,0
2.927,4.8676e-05,0
2.9275,6.4622e-05,0
2.928,8.0064e-05,0
2.9285,8.661e-05,0
2.929,7.7714e-05,0
2.9295,5.9251e-05,0
2.93,3.8437e-05,0
2.9305,1.6281e-05,0
2.931,-1.5106e-06,0
2.9315,-6.8818e-06,0
2.932,-6.3783e-06,0
2.9325,-9.2317e-06,0
2.933,-1.5946e-05,0
2.9335,-2.1149e-05,0
2.934,-3.2731e-05,0
2.9345,-5.6901e-05,0
2.935,-7.1336e-05,0
2.9355,-5.9754e-05,0
2.936,-2.2492e-05,0
2.9365,2.887e-05,0
2.937,7.8386e-05,0
2.9375,0.00011078,0
2.938,0.00011766,0
2.9385,0.00010675,0
2.939,9.4331e-05,0
2.9395,9.0135e-05,0
2.94,8.896e-05,0
2.9405,7.4357e-05,0
2.941,4.7837e-05,0
2.9415,3.6759e-05,0
2.942,4.7333e-05,0
2.9425,5.5558e-05,0
2.943,4.2802e-05,0
2.9435,1.4603e-05,0
2.944,-1.0575e-05,0
2.9445,-2.6017e-05,0
2.945,-3.6759e-05,0
2.9455,-4.448e-05,0
2.946,-4.683e-05,0
2.9465,-3.9948e-05,0
2.947,-2.9877e-05,0
2.9475,-2.266e-05,0
2.948,-1.561e-05,0
2.9485,-8.0568e-06,0
2.949,-5.539e-06,0
2.9495,-9.9031e-06,0
2.95,-1.6281e-05,0
2.9505,-1.796e-05,0
2.951,-1.7121e-05,0
2.9515,-1.3596e-05,0
2.952,-5.2033e-06,0
2.9525,-7.5532e-06,0
2.953,-3.1388e-05,0
2.9535,-5.0858e-05,0
2.954,-4.448e-05,0
2.9545,-2.4002e-05,0
2.955,-2.182e-06,0
2.9555,1.3932e-05,0
2.956,1.1749e-05,0
2.9565,1.1749e-06,0
2.957,-1.0071e-06,0
2.9575,-1.1749e-06,0
2.958,-7.0497e-06,0
2.9585,-1.7624e-05,0
2.959,-1.4267e-05,0
2.9595,1.1917e-05,0
2.96,4.9851e-05,0
2.9605,8.6442e-05,0
2.961,0.00011061,0
2.9615,0.000118,0
2.962,0.00012001,0
2.9625,0.00011867,0
2.963,0.00011095,0
2.9635,9.3828e-05,0
2.964,7.8386e-05,0
2.9645,8.3085e-05,0
2.965,9.3492e-05,0
2.9655,8.9128e-05,0
2.966,7.5532e-05,0
2.9665,6.3951e-05,0
2.967,5.2369e-05,0
2.9675,3.6088e-05,0
2.968,2.5177e-05,0
2.9685,2.7359e-05,0
2.969,3.6759e-05,0
2.9695,4.1123e-05,0
2.97,3.8773e-05,0
2.9705,3.6088e-05,0
2.971,2.8031e-05,0
2.9715,1.0575e-05,0
2.972,-1.7792e-05,0
2.9725,-5.153e-05,0
2.973,-7.1336e-05,0
2.9735,-6.5797e-05,0
2.974,-4.0452e-05,0
2.9745,-7.5532e-06,0
2.975,2.266e-05,0
2.9755,4.8844e-05,0
2.976,6.244e-05,0
2.9765,6.6636e-05,0
2.977,7.1e-05,0
2.9775,7.2343e-05,0
2.978,6.5965e-05,0
2.9785,6.63e-05,0
2.979,7.2343e-05,0
2.9795,5.774e-05,0
2.98,2.2324e-05,0
2.9805,-3.8605e-06,0
2.981,-8.7282e-06,0
2.9815,-1.326e-05,0
2.982,-3.2395e-05,0
2.9825,-6.5293e-05,0
2.983,-0.00010155,0
2.9835,-0.00012236,0
2.984,-0.00011431,0
2.9845,-7.2511e-05,0
2.985,-1.2924e-05,0
2.9855,3.3738e-05,0
2.986,5.5222e-05,0
2.9865,7.8218e-05,0
2.987,0.00011061,0
2.9875,0.0001274,0
2.988,0.00012605,0
2.9885,0.0001227,0
2.989,0.00011716,0
2.9895,9.836e-05,0
2.99,6.3951e-05,0
2.9905,2.0142e-05,0
2.991,-2.8702e-05,0
2.9915,-7.3518e-05,0
2.992,-0.00010188,0
2.9925,-0.00011028,0
2.993,-0.00010893,0
2.9935,-0.0001044,0
2.994,-9.8863e-05,0
2.9945,-9.5003e-05,0
2.995,-8.7953e-05,0
2.9955,-7.2511e-05,0
2.996,-5.0523e-05,0
2.9965,-2.7695e-05,0
2.997,-3.5248e-06,0
2.9975,2.5009e-05,0
2.998,5.0858e-05,0
2.9985,5.5222e-05,0
2.999,2.7024e-05,0
2.9995,-7.2175e-06,0
3,-1.8296e-05,0
3.0005,-1.8967e-05,0
3.001,-2.5849e-05,0
3.0015,-2.8534e-05,0
3.002,-3.8605e-06,0
3.0025,4.9515e-05,0
3.003,0.00010709,0
3.0035,0.00015996,0
3.004,0.00020327,0
3.0045,0.000213,0
3.005,0.00017607,0
3.0055,0.00012052,0
3.006,7.8889e-05,0
3.0065,5.9251e-05,0
3.007,5.6901e-05,0
3.0075,6.7979e-05,0
3.008,8.6778e-05,0
3.0085,0.00010121,0
3.009,9.7856e-05,0
3.0095,7.2343e-05,0
3.01,3.2731e-05,0
3.0105,-6.5461e-06,0
3.011,-3.2563e-05,0
3.0115,-4.3473e-05,0
3.012,-4.9851e-05,0
3.0125,-5.9587e-05,0
3.013,-6.5965e-05,0
3.0135,-6.3447e-05,0
3.014,-5.7237e-05,0
3.0145,-5.3544e-05,0
3.015,-5.5894e-05,0
3.0155,-6.1601e-05,0
3.016,-6.3951e-05,0
3.0165,-5.8747e-05,0
3.017,-4.4984e-05,0
3.0175,-2.0142e-05,0
3.018,1.6617e-05,0
3.0185,5.0523e-05,0
3.019,6.6804e-05,0
3.0195,6.3951e-05,0
3.02,5.4887e-05,0
3.0205,4.6159e-05,0
3.021,2.9374e-05,0
3.0215,-1.3596e-05,0
3.022,-7.9728e-05,0
3.0225,-0.00012908,0
3.023,-0.00013696,0
3.0235,-0.00011414,0
3.024,-6.9993e-05,0
3.0245,-1.8296e-05,0
3.025,2.5009e-05,0
3.0255,5.7069e-05,0
3.026,8.1407e-05,0
3.0265,0.00010658,0
3.027,0.00013814,0
3.0275,0.00016567,0
3.028,0.00018849,0
3.0285,0.00021703,0
3.029,0.00024019,0
3.0295,0.00024254,0
3.03,0.00021955,0
3.0305,0.00017574,0
3.031,0.00012203,0
3.0315,6.8818e-05,0
3.032,2.0646e-05,0
3.0325,-2.031e-05,0
3.033,-5.2705e-05,0
3.0335,-7.8386e-05,0
3.034,-8.9128e-05,0
3.0345,-8.1407e-05,0
3.035,-6.8986e-05,0
3.0355,-5.7908e-05,0
3.036,-4.3809e-05,0
3.0365,-2.7527e-05,0
3.037,-1.2253e-05,0
3.0375,1.5106e-06,0
3.038,1.4603e-05,0
3.0385,2.1988e-05,0
3.039,1.561e-05,0
3.0395,1.8463e-06,0
3.04,-5.3712e-06,0
3.0405,-5.539e-06,0
3.041,-4.5319e-06,0
3.0415,-7.5532e-06,0
3.042,-1.3596e-05,0
3.0425,-1.8296e-05,0
3.043,-1.8967e-05,0
3.0435,-1.6281e-05,0
3.044,-1.0239e-05,0
3.0445,-1.678e-07,0
3.045,5.2033e-06,0
3.0455,6.5461e-06,0
3.046,1.4771e-05,0
3.0465,2.9038e-05,0
3.047,5.5558e-05,0
3.0475,0.00010088,0
3.048,0.00014334,0
3.0485,0.00016735,0
3.049,0.00017238,0
3.0495,0.00016365,0
3.05,0.00014452,0
3.0505,0.00011196,0
3.051,6.8482e-05,0
3.0515,2.4674e-05,0
3.052,-5.8747e-06,0
3.0525,-2.0981e-05,0
3.053,-2.7863e-05,0
3.0535,-3.2395e-05,0
3.054,-3.508e-05,0
3.0545,-3.4409e-05,0
3.055,-3.0716e-05,0
3.0555,-2.7359e-05,0
3.056,-2.5513e-05,0
3.0565,-2.6688e-05,0
3.057,-2.6352e-05,0
3.0575,-2.8199e-05,0
3.058,-5.2201e-05,0
3.0585,-9.6513e-05,0
3.059,-0.0001237,0
3.0595,-0.00011145,0
3.06,-7.6875e-05,0
3.0605,-4.1123e-05,0
3.061,4.1962e-06,0
3.0615,6.8315e-05,0
3.062,0.00012673,0
3.0625,0.0001608,0
3.063,0.00017305,0
3.0635,0.00016265,0
3.064,0.00012639,0
3.0645,7.7043e-05,0
3.065,4.7669e-05,0
3.0655,4.0284e-05,0
3.066,3.122e-05,0
3.0665,6.5461e-06,0
3.067,-1.8128e-05,0
3.0675,-2.8534e-05,0
3.068,-4.6159e-05,0
3.0685,-9.3156e-05,0
3.069,-0.00014553,0
3.0695,-0.00016651,0
3.07,-0.00014418,0
3.0705,-9.4835e-05,0
3.071,-3.508e-05,0
3.0715,2.9374e-05,0
3.072,8.4428e-05,0
3.0725,0.00012639,0
3.073,0.00015224,0
3.0735,0.000165,0
3.074,0.0001697,0
3.0745,0.00016365,0
3.075,0.00014351,0
3.0755,0.00011498,0
3.076,7.9728e-05,0
3.0765,4.2802e-05,0
3.077,1.4603e-05,0
3.0775,-5.8747e-06,0
3.078,-2.0646e-05,0
3.0785,-3.0381e-05,0
3.079,-3.978e-05,0
