0,0,0
0.0005,0,0
0.001,0,0
0.0015,0,0
0.002,0,0
0.0025,0,0
0.003,0,0
0.0035,0,0
0.004,0,0
0.0045,0,0
0.005,0,0
0.0055,0,0
0.006,0,0
0.0065,0,0
0.007,0,0
0.0075,0,0
0.008,0,0
0.0085,0,0
0.009,0,0
0.0095,0,0
0.01,0,0
0.0105,0,0
0.011,0,0
0.0115,0,0
0.012,0,0
0.0125,0,0
0.013,0,0
0.0135,0,0
0.014,0,0
0.0145,0,0
0.015,0,0
0.0155,0,0
0.016,0,0
0.0165,0,0
0.017,0,0
0.0175,0,0
0.018,0,0
0.0185,0,0
0.019,0,0
0.0195,0,0
0.02,0,0
0.0205,0,0
0.021,0,0
0.0215,0,0
0.022,0,0
0.0225,0,0
0.023,0,0
0.0235,0,0
0.024,0,0
0.0245,0,0
0.025,0,0
0.0255,0,0
0.026,1.4939e-05,0
0.0265,1.8631e-05,0
0.027,2.3163e-05,0
0.0275,2.9206e-05,0
0.028,3.1052e-05,0
0.0285,3.1388e-05,0
0.029,3.4241e-05,0
0.0295,3.4241e-05,0
0.03,3.0549e-05,0
0.0305,2.6017e-05,0
0.031,2.652e-05,0
0.0315,3.1891e-05,0
0.032,3.3738e-05,0
0.0325,2.8702e-05,0
0.033,2.3835e-05,0
0.0335,1.9303e-05,0
0.034,1.1917e-05,0
0.0345,3.1891e-06,0
0.035,-1.8463e-06,0
0.0355,-2.182e-06,0
0.036,1.1749e-06,0
0.0365,-6.714e-07,0
0.037,-7.3854e-06,0
0.0375,-1.3596e-05,0
0.038,-1.4435e-05,0
0.0385,-9.2317e-06,0
0.039,2.5177e-06,0
0.0395,1.5946e-05,0
0.04,1.4267e-05,0
0.0405,1.0239e-05,0
0.041,7.8889e-06,0
0.0415,5.035e-07,0
0.042,1.0239e-05,0
0.0425,2.7863e-05,0
0.043,2.8702e-05,0
0.0435,3.0045e-05,0
0.044,3.3066e-05,0
0.0445,2.6352e-05,0
0.045,2.8702e-05,0
0.0455,3.4409e-05,0
0.046,3.508e-05,0
0.0465,3.3066e-05,0
0.047,3.122e-05,0
0.0475,3.1388e-05,0
0.048,3.0716e-05,0
0.0485,2.9877e-05,0
0.049,3.0045e-05,0
0.0495,2.7359e-05,0
0.05,2.1317e-05,0
0.0505,1.3428e-05,0
0.051,6.3783e-06,0
0.0515,2.182e-06,0
0.052,3.8605e-06,0
0.0525,8.2246e-06,0
0.053,3.1891e-06,0
0.0535,5.0355e-06,0
0.054,8.2246e-06,0
0.0545,3.6927e-06,0
0.055,8.896e-06,0
0.0555,1.9303e-05,0
0.056,1.8631e-05,0
0.0565,2.1317e-05,0
0.057,2.7359e-05,0
0.0575,2.4674e-05,0
0.058,3.3738e-05,0
0.0585,4.5487e-05,0
0.059,4.4816e-05,0
0.0595,4.1291e-05,0
0.06,4.1123e-05,0
0.0605,4.1123e-05,0
0.061,4.1123e-05,0
0.0615,4.1123e-05,0
0.062,3.7766e-05,0
0.0625,3.2059e-05,0
0.063,2.7359e-05,0
0.0635,2.6352e-05,0
0.064,2.8367e-05,0
0.0645,2.9038e-05,0
0.065,3.0045e-05,0
0.0655,3.3402e-05,0
0.066,2.9206e-05,0
0.0665,2.4002e-05,0
0.067,1.6449e-05,0
0.0675,5.8747e-06,0
0.068,9.5674e-06,0
0.0685,1.4603e-05,0
0.069,7.8889e-06,0
0.0695,8.2246e-06,0
0.07,9.9031e-06,0
0.0705,3.1891e-06,0
0.071,7.7211e-06,0
0.0715,1.8631e-05,0
0.072,2.2995e-05,0
0.0725,2.3331e-05,0
0.073,2.6017e-05,0
0.0735,3.0716e-05,0
0.074,3.2395e-05,0
0.0745,3.357e-05,0
0.075,3.592e-05,0
0.0755,3.5752e-05,0
0.076,3.0045e-05,0
0.0765,2.4338e-05,0
0.077,2.6688e-05,0
0.0775,3.1724e-05,0
0.078,3.5584e-05,0
0.0785,3.9277e-05,0
0.079,3.4577e-05,0
0.0795,2.9877e-05,0
0.08,2.7863e-05,0
0.0805,1.796e-05,0
0.081,1.7288e-05,0
0.0815,2.0981e-05,0
0.082,1.3932e-05,0
0.0825,1.2924e-05,0
0.083,1.2589e-05,0
0.0835,6.5461e-06,0
0.084,1.091e-05,0
0.0845,1.5274e-05,0
0.085,1.2421e-05,0
0.0855,6.5461e-06,0
0.086,-5.035e-07,0
0.0865,-4.6998e-06,0
0.087,1.0071e-06,0
0.0875,8.5603e-06,0
0.088,8.3925e-06,0
0.0885,8.7282e-06,0
0.089,1.2253e-05,0
0.0895,1.7624e-05,0
0.09,2.3163e-05,0
0.0905,2.0981e-05,0
0.091,1.8128e-05,0
0.0915,2.2324e-05,0
0.092,2.2492e-05,0
0.0925,2.6688e-05,0
0.093,2.9374e-05,0
0.0935,1.8296e-05,0
0.094,1.8631e-05,0
0.0945,2.3499e-05,0
0.095,1.5274e-05,0
0.0955,1.5946e-05,0
0.096,1.6953e-05,0
0.0965,7.2175e-06,0
0.097,4.1962e-06,0
0.0975,6.8818e-06,0
0.098,1.0575e-05,0
0.0985,1.4267e-05,0
0.099,1.2924e-05,0
0.0995,6.8818e-06,0
0.1,3.5248e-06,0
0.1005,3.8605e-06,0
0.101,4.1962e-06,0
0.1015,1.5106e-06,0
0.102,-8.392e-07,0
0.1025,3.6927e-06,0
0.103,6.5461e-06,0
0.1035,4.5319e-06,0
0.104,7.5532e-06,0
0.1045,1.6953e-05,0
0.105,1.9303e-05,0
0.1055,2.1317e-05,0
0.106,2.266e-05,0
0.1065,1.8463e-05,0
0.107,2.4002e-05,0
0.1075,2.8031e-05,0
0.108,1.8631e-05,0
0.1085,2.0478e-05,0
0.109,2.4842e-05,0
0.1095,2.1149e-05,0
0.11,2.7024e-05,0
0.1105,3.3906e-05,0
0.111,3.2059e-05,0
0.1115,2.5681e-05,0
0.112,2.0646e-05,0
0.1125,1.8631e-05,0
0.113,1.2085e-05,0
0.1135,4.1962e-06,0
0.114,1.8463e-06,0
0.1145,-1.6785e-06,0
0.115,-5.0355e-06,0
0.1155,-4.3641e-06,0
0.116,-3.357e-07,0
0.1165,1.3428e-06,0
0.117,-1.678e-07,0
0.1175,1.1749e-06,0
0.118,-1.3428e-06,0
0.1185,2.8534e-06,0
0.119,7.8889e-06,0
0.1195,-5.035e-07,0
0.12,-5.035e-07,0
0.1205,5.2033e-06,0
0.121,6.5461e-06,0
0.1215,1.9974e-05,0
0.122,3.3402e-05,0
0.1225,3.1724e-05,0
0.123,3.6759e-05,0
0.1235,4.5151e-05,0
0.124,4.918e-05,0
0.1245,4.918e-05,0
0.125,4.5487e-05,0
0.1255,4.2802e-05,0
0.126,4.2802e-05,0
0.1265,4.1291e-05,0
0.127,3.827e-05,0
0.1275,3.508e-05,0
0.128,2.8031e-05,0
0.1285,2.2324e-05,0
0.129,1.5274e-05,0
0.1295,9.5674e-06,0
0.13,9.2317e-06,0
0.1305,1.0239e-05,0
0.131,3.8605e-06,0
0.1315,5.0355e-06,0
0.132,9.2317e-06,0
0.1325,1.1749e-06,0
0.133,5.035e-07,0
0.1335,7.5532e-06,0
0.134,7.5532e-06,0
0.1345,1.4267e-05,0
0.135,1.9303e-05,0
0.1355,1.2589e-05,0
0.136,1.6114e-05,0
0.1365,2.1653e-05,0
0.137,2.182e-05,0
0.1375,2.5849e-05,0
0.138,3.2395e-05,0
0.1385,3.508e-05,0
0.139,3.6255e-05,0
0.1395,4.0955e-05,0
0.14,4.3977e-05,0
0.1405,4.1795e-05,0
0.141,3.743e-05,0
0.1415,3.4409e-05,0
0.142,3.7766e-05,0
0.1425,4.0787e-05,0
0.143,3.6088e-05,0
0.1435,3.6759e-05,0
0.144,3.5248e-05,0
0.1445,3.4577e-05,0
0.145,2.8367e-05,0
0.1455,7.2175e-06,0
0.146,-6.714e-07,0
0.1465,1.1749e-06,0
0.147,-3.5248e-06,0
0.1475,3.6927e-06,0
0.148,1.1246e-05,0
0.1485,3.6927e-06,0
0.149,2.8534e-06,0
0.1495,5.7069e-06,0
0.15,2.5177e-06,0
0.1505,8.392e-07,0
0.151,4.5319e-06,0
0.1515,1.0575e-05,0
0.152,1.5946e-05,0
0.1525,1.7792e-05,0
0.153,1.7456e-05,0
0.1535,1.8128e-05,0
0.154,2.4674e-05,0
0.1545,3.4241e-05,0
0.155,4.0452e-05,0
0.1555,4.4984e-05,0
0.156,5.0858e-05,0
0.1565,5.6733e-05,0
0.157,5.2201e-05,0
0.1575,5.0858e-05,0
0.158,5.0187e-05,0
0.1585,3.743e-05,0
0.159,3.5248e-05,0
0.1595,3.9277e-05,0
0.16,3.1388e-05,0
0.1605,2.7359e-05,0
0.161,2.5513e-05,0
0.1615,1.8296e-05,0
0.162,2.3667e-05,0
0.1625,2.9709e-05,0
0.163,2.1988e-05,0
0.1635,1.3092e-05,0
0.164,9.9031e-06,0
0.1645,7.8889e-06,0
0.165,7.8889e-06,0
0.1655,1.1749e-05,0
0.166,1.1414e-05,0
0.1665,7.7211e-06,0
0.167,9.5674e-06,0
0.1675,1.4603e-05,0
0.168,1.561e-05,0
0.1685,1.2589e-05,0
0.169,1.1917e-05,0
0.1695,1.6449e-05,0
0.17,1.7121e-05,0
0.1705,2.4002e-05,0
0.171,3.2395e-05,0
0.1715,2.1149e-05,0
0.172,1.561e-05,0
0.1725,2.3163e-05,0
0.173,2.4842e-05,0
0.1735,3.1724e-05,0
0.174,3.5248e-05,0
0.1745,2.3667e-05,0
0.175,2.3667e-05,0
0.1755,2.7192e-05,0
0.176,2.2156e-05,0
0.1765,1.6449e-05,0
0.177,1.3764e-05,0
0.1775,1.2421e-05,0
0.178,1.0407e-05,0
0.1785,7.3854e-06,0
0.179,1.1749e-06,0
0.1795,-3.0213e-06,0
0.18,1.1749e-06,0
0.1805,6.3783e-06,0
0.181,5.8747e-06,0
0.1815,3.8605e-06,0
0.182,5.7069e-06,0
0.1825,9.2317e-06,0
0.183,4.5319e-06,0
0.1835,6.2104e-06,0
0.184,1.1917e-05,0
0.1845,4.8676e-06,0
0.185,2.8534e-06,0
0.1855,5.8747e-06,0
0.186,1.5106e-06,0
0.1865,1.0071e-05,0
0.187,2.3331e-05,0
0.1875,2.4002e-05,0
0.188,2.8367e-05,0
0.1885,3.4073e-05,0
0.189,3.3402e-05,0
0.1895,3.1052e-05,0
0.19,2.8534e-05,0
0.1905,2.8367e-05,0
0.191,3.3066e-05,0
0.1915,3.2731e-05,0
0.192,2.6688e-05,0
0.1925,2.4338e-05,0
0.193,2.3667e-05,0
0.1935,1.8296e-05,0
0.194,1.3092e-05,0
0.1945,1.091e-05,0
0.195,1.2589e-05,0
0.1955,1.5946e-05,0
0.196,1.0575e-05,0
0.1965,1.1078e-05,0
0.197,1.561e-05,0
0.1975,7.0497e-06,0
0.198,7.5532e-06,0
0.1985,1.2589e-05,0
0.199,2.8534e-06,0
0.1995,1.5106e-06,0
0.2,9.5674e-06,0
0.2005,8.5603e-06,0
0.201,9.9031e-06,0
0.2015,1.0071e-05,0
0.202,1.0239e-05,0
0.2025,1.5778e-05,0
0.203,2.3499e-05,0
0.2035,2.9038e-05,0
0.204,3.2395e-05,0
0.2045,3.3402e-05,0
0.205,3.5752e-05,0
0.2055,4.3809e-05,0
0.206,4.7166e-05,0
0.2065,4.1459e-05,0
0.207,3.6423e-05,0
0.2075,3.2059e-05,0
0.208,2.5849e-05,0
0.2085,2.6017e-05,0
0.209,2.6184e-05,0
0.2095,2.8199e-05,0
0.21,2.3667e-05,0
0.2105,5.8747e-06,0
0.211,5.3712e-06,0
0.2115,1.6617e-05,0
0.212,1.1582e-05,0
0.2125,1.0407e-05,0
0.213,1.1582e-05,0
0.2135,8.392e-07,0
0.214,1.8463e-06,0
0.2145,7.2175e-06,0
0.215,7.5532e-06,0
0.2155,6.5461e-06,0
0.216,8.7282e-06,0
0.2165,1.561e-05,0
0.217,2.1317e-05,0
0.2175,2.4506e-05,0
0.218,2.8031e-05,0
0.2185,3.2059e-05,0
0.219,3.3738e-05,0
0.2195,3.4745e-05,0
0.22,3.6423e-05,0
0.2205,3.743e-05,0
0.221,4.0116e-05,0
0.2215,4.6494e-05,0
0.222,4.7501e-05,0
0.2225,4.9012e-05,0
0.223,4.5823e-05,0
0.2235,3.0045e-05,0
0.224,2.5849e-05,0
0.2245,2.5849e-05,0
0.225,1.6281e-05,0
0.2255,1.326e-05,0
0.226,1.1246e-05,0
0.2265,3.8605e-06,0
0.227,1.0407e-05,0
0.2275,2.2492e-05,0
0.228,2.2995e-05,0
0.2285,1.561e-05,0
0.229,1.0071e-05,0
0.2295,5.8747e-06,0
0.23,1.1749e-06,0
0.2305,-1.0071e-06,0
0.231,8.392e-07,0
0.2315,2.182e-06,0
0.232,5.035e-07,0
0.2325,1.8463e-06,0
0.233,6.8818e-06,0
0.2335,1.4603e-05,0
0.234,2.2492e-05,0
0.2345,2.8702e-05,0
0.235,2.9374e-05,0
0.2355,3.4409e-05,0
0.236,3.7262e-05,0
0.2365,2.9038e-05,0
0.237,2.7695e-05,0
0.2375,3.0884e-05,0
0.238,2.5345e-05,0
0.2385,2.652e-05,0
0.239,2.5681e-05,0
0.2395,1.4603e-05,0
0.24,1.6281e-05,0
0.2405,2.4338e-05,0
0.241,2.3331e-05,0
0.2415,1.6281e-05,0
0.242,9.5674e-06,0
0.2425,5.539e-06,0
0.243,4.5319e-06,0
0.2435,8.392e-07,0
0.244,-2.8534e-06,0
0.2445,0,0
0.245,6.0426e-06,0
0.2455,1.0239e-05,0
0.246,1.1246e-05,0
0.2465,1.561e-05,0
0.247,1.5946e-05,0
0.2475,1.7624e-05,0
0.248,1.7121e-05,0
0.2485,2.1317e-05,0
0.249,2.4338e-05,0
0.2495,1.091e-05,0
0.25,1.0239e-05,0
0.2505,2.3331e-05,0
0.251,2.2324e-05,0
0.2515,2.3835e-05,0
0.252,3.1052e-05,0
0.2525,2.9038e-05,0
0.253,3.2059e-05,0
0.2535,3.9445e-05,0
0.254,4.2634e-05,0
0.2545,4.2298e-05,0
0.255,4.1123e-05,0
0.2555,3.508e-05,0
0.256,2.9206e-05,0
0.2565,2.9206e-05,0
0.257,3.0381e-05,0
0.2575,2.887e-05,0
0.258,2.7695e-05,0
0.2585,2.6184e-05,0
0.259,2.266e-05,0
0.2595,1.5946e-05,0
0.26,1.0575e-05,0
0.2605,9.9031e-06,0
0.261,8.5603e-06,0
0.2615,1.2253e-05,0
0.262,1.3596e-05,0
0.2625,1.678e-07,0
0.263,-1.5106e-06,0
0.2635,3.5248e-06,0
0.264,1.6785e-06,0
0.2645,7.0497e-06,0
0.265,1.2924e-05,0
0.2655,9.9031e-06,0
0.266,1.561e-05,0
0.2665,2.4842e-05,0
0.267,2.5345e-05,0
0.2675,2.3163e-05,0
0.268,2.3163e-05,0
0.2685,2.5009e-05,0
0.269,2.5849e-05,0
0.2695,2.4338e-05,0
0.27,2.2492e-05,0
0.2705,2.2156e-05,0
0.271,1.9974e-05,0
0.2715,1.5274e-05,0
0.272,1.0575e-05,0
0.2725,6.8818e-06,0
0.273,7.8889e-06,0
0.2735,1.6281e-05,0
0.274,1.2757e-05,0
0.2745,6.5461e-06,0
0.275,3.1891e-06,0
0.2755,-9.9031e-06,0
0.276,-8.5603e-06,0
0.2765,-5.035e-07,0
0.277,-4.6998e-06,0
0.2775,-3.8605e-06,0
0.278,-1.678e-07,0
0.2785,-1.0071e-06,0
0.279,1.3596e-05,0
0.2795,2.5681e-05,0
0.28,2.1988e-05,0
0.2805,1.6785e-05,0
0.281,2.1988e-05,0
0.2815,2.9709e-05,0
0.282,2.9709e-05,0
0.2825,2.9374e-05,0
0.283,2.9206e-05,0
0.2835,2.6017e-05,0
0.284,2.2828e-05,0
0.2845,2.7024e-05,0
0.285,3.357e-05,0
0.2855,3.4745e-05,0
0.286,3.1052e-05,0
0.2865,2.8031e-05,0
0.287,2.031e-05,0
0.2875,2.0646e-05,0
0.288,2.182e-05,0
0.2885,8.896e-06,0
0.289,5.8747e-06,0
0.2895,6.5461e-06,0
0.29,-5.3712e-06,0
0.2905,-7.5532e-06,0
0.291,-1.1749e-06,0
0.2915,-3.357e-06,0
0.292,5.2033e-06,0
0.2925,1.6281e-05,0
0.293,1.3092e-05,0
0.2935,6.5461e-06,0
0.294,8.5603e-06,0
0.2945,1.4435e-05,0
0.295,1.561e-05,0
0.2955,1.4099e-05,0
0.296,1.6281e-05,0
0.2965,2.0478e-05,0
0.297,1.9806e-05,0
0.2975,1.7624e-05,0
0.298,1.8463e-05,0
0.2985,2.266e-05,0
0.299,2.7863e-05,0
0.2995,3.4745e-05,0
0.3,3.3738e-05,0
0.3005,3.3738e-05,0
0.301,3.3402e-05,0
0.3015,1.9806e-05,0
0.302,1.7456e-05,0
0.3025,2.7863e-05,0
0.303,2.7359e-05,0
0.3035,2.8199e-05,0
0.304,2.8534e-05,0
0.3045,2.0478e-05,0
0.305,2.4002e-05,0
0.3055,3.3234e-05,0
0.306,3.1052e-05,0
0.3065,2.6688e-05,0
0.307,2.7695e-05,0
0.3075,2.9877e-05,0
0.308,2.9374e-05,0
0.3085,2.5513e-05,0
0.309,2.1149e-05,0
0.3095,1.8631e-05,0
0.31,1.9974e-05,0
0.3105,2.4002e-05,0
0.311,2.4002e-05,0
0.3115,2.1317e-05,0
0.312,2.1317e-05,0
0.3125,2.6017e-05,0
0.313,2.4002e-05,0
0.3135,2.0646e-05,0
0.314,1.6617e-05,0
0.3145,7.3854e-06,0
0.315,1.5946e-05,0
0.3155,3.4745e-05,0
0.316,4.0787e-05,0
0.3165,4.5487e-05,0
0.317,4.4144e-05,0
0.3175,3.0716e-05,0
0.318,3.1724e-05,0
0.3185,3.8102e-05,0
0.319,3.9445e-05,0
0.3195,3.9109e-05,0
0.32,3.7766e-05,0
0.3205,3.3906e-05,0
0.321,2.7024e-05,0
0.3215,2.031e-05,0
0.322,1.9303e-05,0
0.3225,2.1317e-05,0
0.323,1.5946e-05,0
0.3235,7.2175e-06,0
0.324,5.0355e-06,0
0.3245,7.2175e-06,0
0.325,9.2317e-06,0
0.3255,9.2317e-06,0
0.326,1.1749e-06,0
0.3265,6.714e-07,0
0.327,-1.678e-07,0
0.3275,-1.091e-05,0
0.328,-4.1962e-06,0
0.3285,8.896e-06,0
0.329,8.2246e-06,0
0.3295,1.4435e-05,0
0.33,2.1988e-05,0
0.3305,1.8296e-05,0
0.331,1.9638e-05,0
0.3315,2.8702e-05,0
0.332,3.2898e-05,0
0.3325,2.7024e-05,0
0.333,2.3499e-05,0
0.3335,2.6352e-05,0
0.334,2.8367e-05,0
0.3345,2.8534e-05,0
0.335,2.6688e-05,0
0.3355,2.3163e-05,0
0.336,1.5274e-05,0
0.3365,1.326e-05,0
0.337,1.6281e-05,0
0.3375,1.1749e-05,0
0.338,4.8676e-06,0
0.3385,5.8747e-06,0
0.339,3.1891e-06,0
0.3395,-1.678e-07,0
0.34,-3.8605e-06,0
0.3405,-1.5274e-05,0
0.341,-1.2589e-05,0
0.3415,-5.2033e-06,0
0.342,-1.0239e-05,0
0.3425,-5.2033e-06,0
0.343,6.5461e-06,0
0.3435,9.5674e-06,0
0.344,1.561e-05,0
0.3445,2.1317e-05,0
0.345,2.1988e-05,0
0.3455,2.5009e-05,0
0.346,2.8199e-05,0
0.3465,3.2731e-05,0
0.347,3.3906e-05,0
0.3475,3.1052e-05,0
0.348,3.4073e-05,0
0.3485,4.2802e-05,0
0.349,4.683e-05,0
0.3495,4.5151e-05,0
0.35,4.1795e-05,0
0.3505,4.0116e-05,0
0.351,4.5151e-05,0
0.3515,5.069e-05,0
0.352,4.6662e-05,0
0.3525,4.2634e-05,0
0.353,3.743e-05,0
0.3535,1.9974e-05,0
0.354,1.2421e-05,0
0.3545,1.2589e-05,0
0.355,3.6927e-06,0
0.3555,5.0355e-06,0
0.356,8.5603e-06,0
0.3565,4.3641e-06,0
0.357,1.1917e-05,0
0.3575,2.0646e-05,0
0.358,1.7624e-05,0
0.3585,9.0639e-06,0
0.359,3.5248e-06,0
0.3595,2.5177e-06,0
0.36,8.2246e-06,0
0.3605,1.4603e-05,0
0.361,1.5442e-05,0
0.3615,2.0142e-05,0
0.362,2.5177e-05,0
0.3625,2.5681e-05,0
0.363,2.5345e-05,0
0.3635,2.6688e-05,0
0.364,2.887e-05,0
0.3645,3.4073e-05,0
0.365,3.508e-05,0
0.3655,4.0116e-05,0
0.366,4.4816e-05,0
0.3665,3.4073e-05,0
0.367,3.2395e-05,0
0.3675,3.743e-05,0
0.368,3.357e-05,0
0.3685,3.592e-05,0
0.369,3.743e-05,0
0.3695,2.6184e-05,0
0.37,2.2156e-05,0
0.3705,2.5177e-05,0
0.371,2.266e-05,0
0.3715,1.8128e-05,0
0.372,1.8631e-05,0
0.3725,1.796e-05,0
0.373,1.3092e-05,0
0.3735,1.3932e-05,0
0.374,1.9303e-05,0
0.3745,2.266e-05,0
0.375,2.0981e-05,0
0.3755,1.6617e-05,0
0.376,1.8296e-05,0
0.3765,2.3331e-05,0
0.377,2.2828e-05,0
0.3775,2.6688e-05,0
0.378,2.9038e-05,0
0.3785,3.5584e-05,0
0.379,3.743e-05,0
0.3795,2.7192e-05,0
0.38,2.7024e-05,0
0.3805,3.508e-05,0
0.381,3.0381e-05,0
0.3815,3.0045e-05,0
0.382,3.4409e-05,0
0.3825,2.9206e-05,0
0.383,3.0884e-05,0
0.3835,3.5752e-05,0
0.384,3.0716e-05,0
0.3845,2.5009e-05,0
0.385,2.3499e-05,0
0.3855,2.4338e-05,0
0.386,2.6017e-05,0
0.3865,2.7024e-05,0
0.387,2.2492e-05,0
0.3875,1.4435e-05,0
0.388,1.1246e-05,0
0.3885,1.2253e-05,0
0.389,1.3092e-05,0
0.3895,1.561e-05,0
0.39,1.5106e-05,0
0.3905,9.9031e-06,0
0.391,5.8747e-06,0
0.3915,1.4939e-05,0
0.392,2.417e-05,0
0.3925,1.561e-05,0
0.393,1.8296e-05,0
0.3935,2.9038e-05,0
0.394,2.7695e-05,0
0.3945,2.8702e-05,0
0.395,2.5681e-05,0
0.3955,1.8631e-05,0
0.396,2.7695e-05,0
0.3965,3.5752e-05,0
0.397,2.9374e-05,0
0.3975,2.3667e-05,0
0.398,2.6352e-05,0
0.3985,3.2059e-05,0
0.399,3.5584e-05,0
0.3995,3.4745e-05,0
0.4,3.122e-05,0
0.4005,2.7024e-05,0
0.401,2.0646e-05,0
0.4015,1.9638e-05,0
0.402,2.182e-05,0
0.4025,1.8967e-05,0
0.403,1.5946e-05,0
0.4035,1.5106e-05,0
0.404,9.9031e-06,0
0.4045,1.2253e-05,0
0.405,1.4939e-05,0
0.4055,5.8747e-06,0
0.406,5.035e-07,0
0.4065,-5.035e-07,0
0.407,-6.2104e-06,0
0.4075,5.035e-07,0
0.408,1.2421e-05,0
0.4085,1.3092e-05,0
0.409,1.8799e-05,0
0.4095,2.2324e-05,0
0.41,1.561e-05,0
0.4105,1.2253e-05,0
0.411,1.4771e-05,0
0.4115,1.8631e-05,0
0.412,1.9974e-05,0
0.4125,2.031e-05,0
0.413,2.4002e-05,0
0.4135,3.0381e-05,0
0.414,3.4745e-05,0
0.4145,3.2731e-05,0
0.415,3.2395e-05,0
0.4155,3.5248e-05,0
0.416,3.2395e-05,0
0.4165,2.9709e-05,0
0.417,2.4674e-05,0
0.4175,2.3667e-05,0
0.418,2.182e-05,0
0.4185,5.8747e-06,0
0.419,8.392e-07,0
0.4195,5.539e-06,0
0.42,2.0142e-06,0
0.4205,5.0355e-06,0
0.421,7.3854e-06,0
0.4215,-3.0213e-06,0
0.422,-1.091e-05,0
0.4225,-1.091e-05,0
0.423,-8.2246e-06,0
0.4235,-4.8676e-06,0
0.424,1.1749e-06,0
0.4245,1.0407e-05,0
0.425,1.9638e-05,0
0.4255,2.5009e-05,0
0.426,2.5849e-05,0
0.4265,2.266e-05,0
0.427,2.0142e-05,0
0.4275,2.2492e-05,0
0.428,2.4338e-05,0
0.4285,2.2156e-05,0
0.429,1.947e-05,0
0.4295,2.3331e-05,0
0.43,2.1317e-05,0
0.4305,1.9638e-05,0
0.431,1.796e-05,0
0.4315,8.5603e-06,0
0.432,1.1246e-05,0
0.4325,2.0646e-05,0
0.433,1.4267e-05,0
0.4335,1.0575e-05,0
0.434,9.0639e-06,0
0.4345,-2.8534e-06,0
0.435,-4.5319e-06,0
0.4355,1.6785e-06,0
0.436,4.3641e-06,0
0.4365,8.5603e-06,0
0.437,1.0575e-05,0
0.4375,7.8889e-06,0
0.438,4.3641e-06,0
0.4385,3.0213e-06,0
0.439,1.678e-07,0
0.4395,-5.0355e-06,0
0.44,-5.0355e-06,0
0.4405,2.182e-06,0
0.441,9.7353e-06,0
0.4415,1.1414e-05,0
0.442,1.1917e-05,0
0.4425,1.7624e-05,0
0.443,1.6449e-05,0
0.4435,1.6617e-05,0
0.444,1.5946e-05,0
0.4445,5.8747e-06,0
0.445,8.3925e-06,0
0.4455,1.7121e-05,0
0.446,1.4603e-05,0
0.4465,1.9638e-05,0
0.447,2.5849e-05,0
0.4475,2.031e-05,0
0.448,2.0646e-05,0
0.4485,2.1317e-05,0
0.449,1.5946e-05,0
0.4495,1.1414e-05,0
0.45,7.2175e-06,0
0.4505,4.1962e-06,0
0.451,2.182e-06,0
0.4515,-1.8463e-06,0
0.452,-5.539e-06,0
0.4525,-4.8676e-06,0
0.453,-4.8676e-06,0
0.4535,-6.8818e-06,0
0.454,-5.2033e-06,0
0.4545,1.678e-07,0
0.455,7.8889e-06,0
0.4555,1.4267e-05,0
0.456,1.326e-05,0
0.4565,1.326e-05,0
0.457,8.896e-06,0
0.4575,-4.6998e-06,0
0.458,1.3428e-06,0
0.4585,1.4435e-05,0
0.459,1.3932e-05,0
0.4595,2.1317e-05,0
0.46,2.7527e-05,0
0.4605,1.8296e-05,0
0.461,1.7456e-05,0
0.4615,2.266e-05,0
0.462,2.5849e-05,0
0.4625,2.4338e-05,0
0.463,1.9303e-05,0
0.4635,1.4771e-05,0
0.464,1.2924e-05,0
0.4645,1.5778e-05,0
0.465,1.7121e-05,0
0.4655,1.5946e-05,0
0.466,1.8967e-05,0
0.4665,1.9638e-05,0
0.467,1.5106e-05,0
0.4675,1.1414e-05,0
0.468,8.2246e-06,0
0.4685,7.8889e-06,0
0.469,4.8676e-06,0
0.4695,5.7069e-06,0
0.47,4.6998e-06,0
0.4705,-5.7069e-06,0
0.471,-5.035e-07,0
0.4715,7.0497e-06,0
0.472,5.2033e-06,0
0.4725,1.3596e-05,0
0.473,1.8631e-05,0
0.4735,1.2924e-05,0
0.474,1.8631e-05,0
0.4745,3.0884e-05,0
0.475,3.7262e-05,0
0.4755,3.7095e-05,0
0.476,3.6927e-05,0
0.4765,3.6088e-05,0
0.477,3.4745e-05,0
0.4775,3.4241e-05,0
0.478,3.6759e-05,0
0.4785,4.0452e-05,0
0.479,4.1459e-05,0
0.4795,3.7766e-05,0
0.48,3.2395e-05,0
0.4805,2.6352e-05,0
0.481,2.2324e-05,0
0.4815,2.2324e-05,0
0.482,1.326e-05,0
0.4825,7.2175e-06,0
0.483,5.539e-06,0
0.4835,-3.8605e-06,0
0.484,-1.0071e-06,0
0.4845,6.2104e-06,0
0.485,1.1749e-06,0
0.4855,4.3641e-06,0
0.486,1.1582e-05,0
0.4865,8.896e-06,0
0.487,7.2175e-06,0
0.4875,9.2317e-06,0
0.488,9.9031e-06,0
0.4885,9.9031e-06,0
0.489,1.0742e-05,0
0.4895,1.4267e-05,0
0.49,1.8967e-05,0
0.4905,2.2492e-05,0
0.491,2.6352e-05,0
0.4915,3.2059e-05,0
0.492,3.4745e-05,0
0.4925,3.1052e-05,0
0.493,2.5849e-05,0
0.4935,2.4842e-05,0
0.494,2.7024e-05,0
0.4945,3.2731e-05,0
0.495,3.0716e-05,0
0.4955,3.2563e-05,0
0.496,3.2059e-05,0
0.4965,1.8631e-05,0
0.497,1.8631e-05,0
0.4975,2.2324e-05,0
0.498,1.4771e-05,0
0.4985,1.796e-05,0
0.499,2.5345e-05,0
0.4995,2.031e-05,0
0.5,2.266e-05,0
0.5005,3.2731e-05,0
0.501,3.2898e-05,0
0.5015,2.5345e-05,0
0.502,1.6617e-05,0
0.5025,1.5442e-05,0
0.503,1.8967e-05,0
0.5035,2.0646e-05,0
0.504,2.0646e-05,0
0.5045,2.3667e-05,0
0.505,2.6352e-05,0
0.5055,2.5849e-05,0
0.506,2.6688e-05,0
0.5065,3.4073e-05,0
0.507,3.9277e-05,0
0.5075,4.1123e-05,0
0.508,3.4577e-05,0
0.5085,3.2395e-05,0
0.509,3.4073e-05,0
0.5095,2.7863e-05,0
0.51,3.2563e-05,0
0.5105,4.0787e-05,0
0.511,3.8437e-05,0
0.5115,4.448e-05,0
0.512,4.7166e-05,0
0.5125,3.5752e-05,0
0.513,3.2059e-05,0
0.5135,3.0549e-05,0
0.514,2.5513e-05,0
0.5145,2.3331e-05,0
0.515,2.4506e-05,0
0.5155,2.5345e-05,0
0.516,2.3835e-05,0
0.5165,2.3331e-05,0
0.517,2.3163e-05,0
0.5175,2.3163e-05,0
0.518,2.2324e-05,0
0.5185,2.3331e-05,0
0.519,2.6352e-05,0
0.5195,2.4002e-05,0
0.52,2.3163e-05,0
0.5205,2.9374e-05,0
0.521,2.6184e-05,0
0.5215,2.1988e-05,0
0.522,2.1988e-05,0
0.5225,1.4939e-05,0
0.523,2.3331e-05,0
0.5235,4.0116e-05,0
0.524,3.7934e-05,0
0.5245,3.4577e-05,0
0.525,2.9709e-05,0
0.5255,1.7288e-05,0
0.526,1.9974e-05,0
0.5265,3.1724e-05,0
0.527,3.2731e-05,0
0.5275,3.1891e-05,0
0.528,3.5416e-05,0
0.5285,3.9445e-05,0
0.529,3.7095e-05,0
0.5295,3.0381e-05,0
0.53,2.5345e-05,0
0.5305,2.6688e-05,0
0.531,3.2395e-05,0
0.5315,3.1891e-05,0
0.532,2.0478e-05,0
0.5325,9.9031e-06,0
0.533,9.2317e-06,0
0.5335,1.2253e-05,0
0.534,6.714e-06,0
0.5345,1.8463e-06,0
0.535,-1.5106e-06,0
0.5355,-1.0407e-05,0
0.536,-5.539e-06,0
0.5365,6.3783e-06,0
0.537,5.8747e-06,0
0.5375,1.6785e-05,0
0.538,2.9374e-05,0
0.5385,2.7359e-05,0
0.539,2.9206e-05,0
0.5395,3.2395e-05,0
0.54,3.2731e-05,0
0.5405,3.4745e-05,0
0.541,3.7095e-05,0
0.5415,3.743e-05,0
0.542,3.6759e-05,0
0.5425,3.6927e-05,0
0.543,3.8437e-05,0
0.5435,4.1123e-05,0
0.544,4.1291e-05,0
0.5445,3.7095e-05,0
0.545,3.0045e-05,0
0.5455,2.8031e-05,0
0.546,2.6688e-05,0
0.5465,2.3331e-05,0
0.547,1.6617e-05,0
0.5475,1.8631e-05,0
0.548,2.1317e-05,0
0.5485,1.2253e-05,0
0.549,9.2317e-06,0
0.5495,1.1917e-05,0
0.55,6.2104e-06,0
0.5505,7.8889e-06,0
0.551,9.5674e-06,0
0.5515,4.5319e-06,0
0.552,1.1917e-05,0
0.5525,1.947e-05,0
0.553,1.3932e-05,0
0.5535,8.3925e-06,0
0.554,9.9031e-06,0
0.5545,1.0239e-05,0
0.555,1.1749e-05,0
0.5555,1.2924e-05,0
0.556,1.2924e-05,0
0.5565,1.6281e-05,0
0.557,2.0646e-05,0
0.5575,2.1988e-05,0
0.558,1.9135e-05,0
0.5585,1.8631e-05,0
0.559,2.4002e-05,0
0.5595,2.9038e-05,0
0.56,2.6017e-05,0
0.5605,2.4674e-05,0
0.561,1.9974e-05,0
0.5615,2.5177e-06,0
0.562,-1.5106e-06,0
0.5625,6.2104e-06,0
0.563,1.6785e-06,0
0.5635,3.1891e-06,0
0.564,4.6998e-06,0
0.5645,-2.6856e-06,0
0.565,-5.035e-07,0
0.5655,2.6856e-06,0
0.566,-1.5106e-06,0
0.5665,-6.8818e-06,0
0.567,-8.5603e-06,0
0.5675,-8.3925e-06,0
0.568,-5.7069e-06,0
0.5685,1.5106e-06,0
0.569,6.2104e-06,0
0.5695,1.1078e-05,0
0.57,1.7456e-05,0
0.5705,2.1317e-05,0
0.571,2.2828e-05,0
0.5715,2.4842e-05,0
0.572,2.5849e-05,0
0.5725,3.0716e-05,0
0.573,3.2059e-05,0
0.5735,3.2395e-05,0
0.574,3.1052e-05,0
0.5745,2.5513e-05,0
0.575,3.4745e-05,0
0.5755,4.213e-05,0
0.576,3.4577e-05,0
0.5765,3.4073e-05,0
0.577,3.4073e-05,0
0.5775,2.2156e-05,0
0.578,1.7288e-05,0
0.5785,1.8631e-05,0
0.579,1.7624e-05,0
0.5795,1.5442e-05,0
0.58,9.5674e-06,0
0.5805,7.8889e-06,0
0.581,8.896e-06,0
0.5815,5.539e-06,0
0.582,5.035e-07,0
0.5825,-4.5319e-06,0
0.583,-7.5532e-06,0
0.5835,-5.8747e-06,0
0.584,-7.3854e-06,0
0.5845,-8.5603e-06,0
0.585,-2.3499e-06,0
0.5855,6.714e-06,0
0.586,5.3712e-06,0
0.5865,8.5603e-06,0
0.587,1.4435e-05,0
0.5875,6.0426e-06,0
0.588,9.2317e-06,0
0.5885,1.8631e-05,0
0.589,1.6953e-05,0
0.5895,2.3667e-05,0
0.59,3.2563e-05,0
0.5905,3.0213e-05,0
0.591,3.6759e-05,0
0.5915,4.3305e-05,0
0.592,3.827e-05,0
0.5925,3.1724e-05,0
0.593,2.7024e-05,0
0.5935,2.652e-05,0
0.594,2.9374e-05,0
0.5945,2.9709e-05,0
0.595,2.5513e-05,0
0.5955,1.7288e-05,0
0.596,1.1917e-05,0
0.5965,1.4435e-05,0
0.597,1.8631e-05,0
0.5975,1.8631e-05,0
0.598,1.5274e-05,0
0.5985,1.4771e-05,0
0.599,9.0639e-06,0
0.5995,4.3641e-06,0
0.6,5.539e-06,0
0.6005,3.357e-06,0
0.601,1.2253e-05,0
0.6015,2.0478e-05,0
0.602,1.4939e-05,0
0.6025,1.9135e-05,0
0.603,2.2995e-05,0
0.6035,1.4603e-05,0
0.604,1.8967e-05,0
0.6045,3.1388e-05,0
0.605,3.6759e-05,0
0.6055,3.8773e-05,0
0.606,4.1459e-05,0
0.6065,3.8605e-05,0
0.607,3.2059e-05,0
0.6075,3.0381e-05,0
0.608,3.5752e-05,0
0.6085,4.1123e-05,0
0.609,4.0787e-05,0
0.6095,3.4409e-05,0
0.61,2.7359e-05,0
0.6105,1.9303e-05,0
0.611,8.896e-06,0
0.6115,5.2033e-06,0
0.612,5.539e-06,0
0.6125,1.3764e-05,0
0.613,1.5946e-05,0
0.6135,3.0213e-06,0
0.614,1.0071e-06,0
0.6145,6.2104e-06,0
0.615,1.8463e-06,0
0.6155,4.3641e-06,0
0.616,8.896e-06,0
0.6165,3.8605e-06,0
0.617,8.5603e-06,0
0.6175,2.1317e-05,0
0.618,2.6017e-05,0
0.6185,2.4338e-05,0
0.619,2.5345e-05,0
0.6195,3.0549e-05,0
0.62,2.8702e-05,0
0.6205,2.6352e-05,0
0.621,2.5849e-05,0
0.6215,2.6352e-05,0
0.622,3.0716e-05,0
0.6225,3.357e-05,0
0.623,3.3066e-05,0
0.6235,3.1556e-05,0
0.624,3.6759e-05,0
0.6245,4.6662e-05,0
0.625,4.4816e-05,0
0.6255,3.7095e-05,0
0.626,2.5345e-05,0
0.6265,4.1962e-06,0
0.627,8.392e-07,0
0.6275,5.8747e-06,0
0.628,-2.3499e-06,0
0.6285,1.6785e-06,0
0.629,1.4267e-05,0
0.6295,1.326e-05,0
0.63,1.5106e-05,0
0.6305,1.7624e-05,0
0.631,1.1917e-05,0
0.6315,8.896e-06,0
0.632,8.0568e-06,0
0.6325,3.6927e-06,0
0.633,-3.357e-07,0
0.6335,2.0142e-06,0
0.634,9.2317e-06,0
0.6345,1.796e-05,0
0.635,2.4002e-05,0
0.6355,2.7695e-05,0
0.636,2.9877e-05,0
0.6365,2.9374e-05,0
0.637,3.0381e-05,0
0.6375,3.8437e-05,0
0.638,3.9109e-05,0
0.6385,3.743e-05,0
0.639,3.4073e-05,0
0.6395,2.0646e-05,0
0.64,2.182e-05,0
0.6405,3.122e-05,0
0.641,2.5345e-05,0
0.6415,1.9806e-05,0
0.642,1.796e-05,0
0.6425,8.896e-06,0
0.643,7.5532e-06,0
0.6435,1.4939e-05,0
0.644,1.9974e-05,0
0.6445,2.0478e-05,0
0.645,1.796e-05,0
0.6455,1.561e-05,0
0.646,1.5274e-05,0
0.6465,1.8463e-05,0
0.647,1.5442e-05,0
0.6475,8.2246e-06,0
0.648,7.0497e-06,0
0.6485,1.0239e-05,0
0.649,1.326e-05,0
0.6495,1.4939e-05,0
0.65,1.7456e-05,0
0.6505,1.8967e-05,0
0.651,1.4435e-05,0
0.6515,1.8799e-05,0
0.652,2.7359e-05,0
0.6525,1.9638e-05,0
0.653,1.9974e-05,0
0.6535,2.5849e-05,0
0.654,2.1988e-05,0
0.6545,3.3066e-05,0
0.655,4.5151e-05,0
0.6555,3.8773e-05,0
0.656,3.743e-05,0
0.6565,4.1459e-05,0
0.657,3.592e-05,0
0.6575,2.6688e-05,0
0.658,2.6688e-05,0
0.6585,2.9374e-05,0
0.659,2.4674e-05,0
0.6595,1.7121e-05,0
0.66,1.2421e-05,0
0.6605,9.0639e-06,0
0.661,5.2033e-06,0
0.6615,8.392e-07,0
0.662,-3.5248e-06,0
0.6625,-5.8747e-06,0
0.663,-1.8463e-06,0
0.6635,3.8605e-06,0
0.664,0,0
0.6645,-6.714e-07,0
0.665,4.5319e-06,0
0.6655,0,0
0.666,2.3499e-06,0
0.6665,9.3996e-06,0
0.667,6.8818e-06,0
0.6675,1.4603e-05,0
0.668,2.266e-05,0
0.6685,1.7288e-05,0
0.669,1.9638e-05,0
0.6695,2.8031e-05,0
0.67,2.9709e-05,0
0.6705,3.0716e-05,0
0.671,3.4409e-05,0
0.6715,3.6927e-05,0
0.672,3.7766e-05,0
0.6725,3.8437e-05,0
0.673,3.5584e-05,0
0.6735,3.1724e-05,0
0.674,3.0884e-05,0
0.6745,2.8031e-05,0
0.675,2.7192e-05,0
0.6755,2.9374e-05,0
0.676,2.7527e-05,0
0.6765,2.5009e-05,0
0.677,2.1317e-05,0
0.6775,2.7527e-05,0
0.678,3.122e-05,0
0.6785,1.7792e-05,0
0.679,1.326e-05,0
0.6795,1.8296e-05,0
0.68,1.4435e-05,0
0.6805,1.5946e-05,0
0.681,2.1653e-05,0
0.6815,2.0646e-05,0
0.682,2.3331e-05,0
0.6825,2.6688e-05,0
0.683,2.7359e-05,0
0.6835,2.6688e-05,0
0.684,2.7863e-05,0
0.6845,2.8031e-05,0
0.685,2.3835e-05,0
0.6855,2.2995e-05,0
0.686,2.8702e-05,0
0.6865,3.3402e-05,0
0.687,3.3738e-05,0
0.6875,3.0213e-05,0
0.688,2.6184e-05,0
0.6885,2.5009e-05,0
0.689,2.6017e-05,0
0.6895,2.9206e-05,0
0.69,2.3331e-05,0
0.6905,2.266e-05,0
0.691,2.266e-05,0
0.6915,7.3854e-06,0
0.692,7.2175e-06,0
0.6925,1.9974e-05,0
0.693,1.9974e-05,0
0.6935,1.8967e-05,0
0.694,1.796e-05,0
0.6945,7.5532e-06,0
0.695,9.9031e-06,0
0.6955,1.4939e-05,0
0.696,9.0639e-06,0
0.6965,5.539e-06,0
0.697,1.1917e-05,0
0.6975,1.947e-05,0
0.698,2.1317e-05,0
0.6985,2.0981e-05,0
0.699,1.9974e-05,0
0.6995,2.2324e-05,0
0.7,2.3835e-05,0
0.7005,2.3331e-05,0
0.701,2.3667e-05,0
0.7015,2.3163e-05,0
0.702,2.3331e-05,0
0.7025,2.7024e-05,0
0.703,2.5681e-05,0
0.7035,2.9374e-05,0
0.704,3.3738e-05,0
0.7045,2.4338e-05,0
0.705,2.5849e-05,0
0.7055,3.0549e-05,0
0.706,1.9974e-05,0
0.7065,1.4099e-05,0
0.707,1.2924e-05,0
0.7075,5.7069e-06,0
0.708,8.5603e-06,0
0.7085,1.1582e-05,0
0.709,9.0639e-06,0
0.7095,9.9031e-06,0
0.71,1.1582e-05,0
0.7105,1.1246e-05,0
0.711,1.0575e-05,0
0.7115,7.7211e-06,0
0.712,4.5319e-06,0
0.7125,3.5248e-06,0
0.713,7.8889e-06,0
0.7135,1.5274e-05,0
0.714,1.9806e-05,0
0.7145,2.1317e-05,0
0.715,2.3667e-05,0
0.7155,2.4674e-05,0
0.716,1.7288e-05,0
0.7165,1.7624e-05,0
0.717,2.266e-05,0
0.7175,1.6617e-05,0
0.718,1.7624e-05,0
0.7185,2.652e-05,0
0.719,2.7192e-05,0
0.7195,3.4073e-05,0
0.72,3.7934e-05,0
0.7205,2.7527e-05,0
0.721,2.4842e-05,0
0.7215,2.3835e-05,0
0.722,1.8296e-05,0
0.7225,1.5946e-05,0
0.723,1.4099e-05,0
0.7235,9.7353e-06,0
0.724,9.5674e-06,0
0.7245,1.4603e-05,0
0.725,1.5274e-05,0
0.7255,1.2924e-05,0
0.726,1.1582e-05,0
0.7265,1.0071e-05,0
0.727,7.3854e-06,0
0.7275,5.539e-06,0
0.728,3.0213e-06,0
0.7285,1.5106e-06,0
0.729,1.8463e-06,0
0.7295,1.2253e-05,0
0.73,2.1317e-05,0
0.7305,1.0239e-05,0
0.731,5.8747e-06,0
0.7315,1.0575e-05,0
0.732,8.3925e-06,0
0.7325,1.4267e-05,0
0.733,2.1317e-05,0
0.7335,1.9638e-05,0
0.734,2.8031e-05,0
0.7345,3.508e-05,0
0.735,3.3066e-05,0
0.7355,3.2059e-05,0
0.736,3.1388e-05,0
0.7365,3.2395e-05,0
0.737,3.3066e-05,0
0.7375,3.1052e-05,0
0.738,2.5345e-05,0
0.7385,1.8296e-05,0
0.739,1.561e-05,0
0.7395,1.3596e-05,0
0.74,9.5674e-06,0
0.7405,5.8747e-06,0
0.741,1.8463e-06,0
0.7415,-6.714e-07,0
0.742,-5.539e-06,0
0.7425,-3.0213e-06,0
0.743,-1.5106e-06,0
0.7435,-1.2253e-05,0
0.744,-1.1414e-05,0
0.7445,0,0
0.745,1.8463e-06,0
0.7455,7.2175e-06,0
0.746,1.1917e-05,0
0.7465,7.8889e-06,0
0.747,1.8128e-05,0
0.7475,3.2563e-05,0
0.748,3.6759e-05,0
0.7485,3.6088e-05,0
0.749,3.3738e-05,0
0.7495,2.9206e-05,0
0.75,2.7024e-05,0
0.7505,2.5345e-05,0
0.751,2.6688e-05,0
0.7515,3.0716e-05,0
0.752,3.2898e-05,0
0.7525,3.4409e-05,0
0.753,3.3402e-05,0
0.7535,2.9877e-05,0
0.754,2.6184e-05,0
0.7545,2.5009e-05,0
0.755,2.0478e-05,0
0.7555,2.1653e-05,0
0.756,2.3331e-05,0
0.7565,1.0575e-05,0
0.757,5.8747e-06,0
0.7575,9.5674e-06,0
0.758,-5.035e-07,0
0.7585,-5.7069e-06,0
0.759,-2.8534e-06,0
0.7595,-7.0497e-06,0
0.76,-1.678e-07,0
0.7605,9.2317e-06,0
0.761,1.1582e-05,0
0.7615,1.2924e-05,0
0.762,1.5946e-05,0
0.7625,1.9974e-05,0
0.763,2.652e-05,0
0.7635,3.0884e-05,0
0.764,2.9038e-05,0
0.7645,2.5849e-05,0
0.765,2.9374e-05,0
0.7655,3.6591e-05,0
0.766,4.0116e-05,0
0.7665,3.743e-05,0
0.767,3.6591e-05,0
0.7675,3.4241e-05,0
0.768,2.7527e-05,0
0.7685,2.7863e-05,0
0.769,2.9709e-05,0
0.7695,2.031e-05,0
0.77,2.0478e-05,0
0.7705,2.6688e-05,0
0.771,2.031e-05,0
0.7715,1.4603e-05,0
0.772,9.2317e-06,0
0.7725,-5.035e-07,0
0.773,1.1749e-06,0
0.7735,7.3854e-06,0
0.774,8.896e-06,0
0.7745,5.8747e-06,0
0.775,1.8463e-06,0
0.7755,1.5106e-06,0
0.776,4.6998e-06,0
0.7765,7.3854e-06,0
0.777,7.2175e-06,0
0.7775,9.2317e-06,0
0.778,1.1749e-05,0
0.7785,1.3092e-05,0
0.779,1.6114e-05,0
0.7795,2.1317e-05,0
0.78,2.5681e-05,0
0.7805,3.0716e-05,0
0.781,3.1724e-05,0
0.7815,3.508e-05,0
0.782,3.6591e-05,0
0.7825,2.8031e-05,0
0.783,3.2059e-05,0
0.7835,3.7934e-05,0
0.784,2.9038e-05,0
0.7845,2.8031e-05,0
0.785,2.9877e-05,0
0.7855,1.9303e-05,0
0.786,1.8128e-05,0
0.7865,2.1317e-05,0
0.787,2.2324e-05,0
0.7875,2.266e-05,0
0.788,2.2324e-05,0
0.7885,1.9135e-05,0
0.789,1.1078e-05,0
0.7895,5.8747e-06,0
0.79,1.1246e-05,0
0.7905,1.7288e-05,0
0.791,1.5778e-05,0
0.7915,8.2246e-06,0
0.792,1.8463e-06,0
0.7925,3.6927e-06,0
0.793,8.3925e-06,0
0.7935,1.2589e-05,0
0.794,1.1078e-05,0
0.7945,1.4603e-05,0
0.795,1.8631e-05,0
0.7955,1.0239e-05,0
0.796,1.326e-05,0
0.7965,2.1988e-05,0
0.797,2.0478e-05,0
0.7975,2.2324e-05,0
0.798,3.2731e-05,0
0.7985,3.4577e-05,0
0.799,3.7934e-05,0
0.7995,4.0116e-05,0
0.8,3.7262e-05,0
0.8005,3.978e-05,0
0.801,4.4648e-05,0
0.8015,4.5151e-05,0
0.802,3.6591e-05,0
0.8025,2.7359e-05,0
0.803,2.3667e-05,0
0.8035,2.3163e-05,0
0.804,2.1988e-05,0
0.8045,2.266e-05,0
0.805,2.3331e-05,0
0.8055,1.9806e-05,0
0.806,1.5778e-05,0
0.8065,1.6114e-05,0
0.807,1.4939e-05,0
0.8075,1.796e-05,0
0.808,1.5946e-05,0
0.8085,1.6785e-06,0
0.809,6.714e-07,0
0.8095,9.3996e-06,0
0.81,8.5603e-06,0
0.8105,1.3932e-05,0
0.811,1.5778e-05,0
0.8115,5.8747e-06,0
0.812,1.1582e-05,0
0.8125,2.652e-05,0
0.813,3.508e-05,0
0.8135,3.6088e-05,0
0.814,3.6088e-05,0
0.8145,3.8773e-05,0
0.815,3.9109e-05,0
0.8155,3.7262e-05,0
0.816,3.3738e-05,0
0.8165,2.9374e-05,0
0.817,2.5345e-05,0
0.8175,1.9806e-05,0
0.818,1.4939e-05,0
0.8185,1.1917e-05,0
0.819,9.2317e-06,0
0.8195,1.1246e-05,0
0.82,8.3925e-06,0
0.8205,1.2253e-05,0
0.821,1.7456e-05,0
0.8215,4.1962e-06,0
0.822,-4.6998e-06,0
0.8225,-1.8463e-06,0
0.823,-5.0355e-06,0
0.8235,-1.8463e-06,0
0.824,3.5248e-06,0
0.8245,-3.8605e-06,0
0.825,-4.8676e-06,0
0.8255,4.0284e-06,0
0.826,1.3764e-05,0
0.8265,2.182e-05,0
0.827,2.5009e-05,0
0.8275,2.3667e-05,0
0.828,2.4338e-05,0
0.8285,2.7024e-05,0
0.829,2.8702e-05,0
0.8295,3.0716e-05,0
0.83,3.2395e-05,0
0.8305,3.4577e-05,0
0.831,3.8773e-05,0
0.8315,4.2802e-05,0
0.832,4.4816e-05,0
0.8325,4.1795e-05,0
0.833,3.2059e-05,0
0.8335,3.0045e-05,0
0.834,3.0716e-05,0
0.8345,2.0142e-05,0
0.835,1.9135e-05,0
0.8355,2.3331e-05,0
0.836,1.7288e-05,0
0.8365,2.1317e-05,0
0.837,2.6352e-05,0
0.8375,1.5946e-05,0
0.838,1.1917e-05,0
0.8385,1.4603e-05,0
0.839,1.3596e-05,0
0.8395,8.5603e-06,0
0.84,4.8676e-06,0
0.8405,3.357e-06,0
0.841,6.2104e-06,0
0.8415,1.326e-05,0
0.842,1.8296e-05,0
0.8425,2.4338e-05,0
0.843,3.0716e-05,0
0.8435,3.3066e-05,0
0.844,3.3066e-05,0
0.8445,3.122e-05,0
0.845,3.1556e-05,0
0.8455,3.6927e-05,0
0.846,3.508e-05,0
0.8465,3.3066e-05,0
0.847,2.9709e-05,0
0.8475,2.0981e-05,0
0.848,2.7863e-05,0
0.8485,4.0452e-05,0
0.849,3.6423e-05,0
0.8495,3.2563e-05,0
0.85,2.887e-05,0
0.8505,1.3932e-05,0
0.851,1.3596e-05,0
0.8515,2.2492e-05,0
0.852,2.1653e-05,0
0.8525,1.6617e-05,0
0.853,1.091e-05,0
0.8535,7.8889e-06,0
0.854,5.8747e-06,0
0.8545,1.8463e-06,0
0.855,-3.5248e-06,0
0.8555,-8.5603e-06,0
0.856,-1.2253e-05,0
0.8565,-1.091e-05,0
0.857,-3.0213e-06,0
0.8575,3.1891e-06,0
0.858,9.5674e-06,0
0.8585,1.8631e-05,0
0.859,1.8967e-05,0
0.8595,2.4002e-05,0
0.86,2.8031e-05,0
0.8605,1.6281e-05,0
0.861,1.9806e-05,0
0.8615,2.9709e-05,0
0.862,2.5177e-05,0
0.8625,2.8367e-05,0
0.863,3.357e-05,0
0.8635,2.9709e-05,0
0.864,3.5416e-05,0
0.8645,4.683e-05,0
0.865,4.5151e-05,0
0.8655,3.5416e-05,0
0.866,2.8199e-05,0
0.8665,2.8367e-05,0
0.867,3.0381e-05,0
0.8675,2.6688e-05,0
0.868,1.796e-05,0
0.8685,1.2924e-05,0
0.869,1.2253e-05,0
0.8695,1.561e-05,0
0.87,1.9303e-05,0
0.8705,1.8463e-05,0
0.871,1.5442e-05,0
0.8715,1.561e-05,0
0.872,9.5674e-06,0
0.8725,5.2033e-06,0
0.873,3.1891e-06,0
0.8735,-5.539e-06,0
0.874,1.5106e-06,0
0.8745,1.5442e-05,0
0.875,1.4099e-05,0
0.8755,1.5778e-05,0
0.876,1.7792e-05,0
0.8765,1.3932e-05,0
0.877,2.6017e-05,0
0.8775,4.2466e-05,0
0.878,4.5823e-05,0
0.8785,4.213e-05,0
0.879,4.0116e-05,0
0.8795,3.8437e-05,0
0.88,4.0284e-05,0
0.8805,4.1291e-05,0
0.881,3.827e-05,0
0.8815,3.4745e-05,0
0.882,3.3066e-05,0
0.8825,3.0213e-05,0
0.883,2.6688e-05,0
0.8835,2.1653e-05,0
0.884,1.5274e-05,0
0.8845,1.4099e-05,0
0.885,9.2317e-06,0
0.8855,6.5461e-06,0
0.886,3.8605e-06,0
0.8865,-4.8676e-06,0
0.887,5.035e-07,0
0.8875,7.5532e-06,0
0.888,-2.5177e-06,0
0.8885,-3.8605e-06,0
0.889,-1.1749e-06,0
0.8895,-3.5248e-06,0
0.89,6.8818e-06,0
0.8905,1.7288e-05,0
0.891,1.326e-05,0
0.8915,1.0239e-05,0
0.892,1.4771e-05,0
0.8925,2.0646e-05,0
0.893,2.7024e-05,0
0.8935,3.508e-05,0
0.894,3.7095e-05,0
0.8945,3.6759e-05,0
0.895,3.3234e-05,0
0.8955,2.9709e-05,0
0.896,3.4745e-05,0
0.8965,4.0787e-05,0
0.897,3.8437e-05,0
0.8975,3.4745e-05,0
0.898,2.4842e-05,0
0.8985,1.8296e-05,0
0.899,1.2085e-05,0
0.8995,-6.8818e-06,0
0.9,-1.3596e-05,0
0.9005,-9.9031e-06,0
0.901,-1.1582e-05,0
0.9015,-6.2104e-06,0
0.902,-1.0071e-06,0
0.9025,-1.2253e-05,0
0.903,-1.4267e-05,0
0.9035,-3.1891e-06,0
0.904,-1.1749e-06,0
0.9045,-1.0575e-05,0
0.905,-1.7792e-05,0
0.9055,-1.5274e-05,0
0.906,-7.2175e-06,0
0.9065,1.5106e-06,0
0.907,3.5248e-06,0
0.9075,4.0284e-06,0
0.908,6.8818e-06,0
0.9085,1.1582e-05,0
0.909,1.5778e-05,0
0.9095,1.5946e-05,0
0.91,1.5946e-05,0
0.9105,2.3667e-05,0
0.911,2.9206e-05,0
0.9115,3.3402e-05,0
0.912,3.2059e-05,0
0.9125,1.8631e-05,0
0.913,1.7624e-05,0
0.9135,2.6688e-05,0
0.914,2.0981e-05,0
0.9145,1.8463e-05,0
0.915,2.1149e-05,0
0.9155,1.7288e-05,0
0.916,1.947e-05,0
0.9165,2.4674e-05,0
0.917,1.9974e-05,0
0.9175,9.2317e-06,0
0.918,7.8889e-06,0
0.9185,1.2924e-05,0
0.919,1.1246e-05,0
0.9195,4.8676e-06,0
0.92,1.1749e-06,0
0.9205,3.0213e-06,0
0.921,5.2033e-06,0
0.9215,2.5177e-06,0
0.922,-1.678e-07,0
0.9225,2.5177e-06,0
0.923,1.0239e-05,0
0.9235,1.7792e-05,0
0.924,1.6953e-05,0
0.9245,2.1317e-05,0
0.925,2.7192e-05,0
0.9255,1.8967e-05,0
0.926,2.1317e-05,0
0.9265,3.2059e-05,0
0.927,3.4073e-05,0
0.9275,4.213e-05,0
0.928,4.4312e-05,0
0.9285,3.4073e-05,0
0.929,3.9277e-05,0
0.9295,5.1194e-05,0
0.93,5.4719e-05,0
0.9305,5.153e-05,0
0.931,4.3473e-05,0
0.9315,3.2563e-05,0
0.932,2.6688e-05,0
0.9325,2.6352e-05,0
0.933,2.2995e-05,0
0.9335,1.7288e-05,0
0.934,1.7121e-05,0
0.9345,1.7792e-05,0
0.935,1.2589e-05,0
0.9355,5.8747e-06,0
0.936,3.6927e-06,0
0.9365,4.8676e-06,0
0.937,6.714e-07,0
0.9375,6.0426e-06,0
0.938,1.4267e-05,0
0.9385,1.0575e-05,0
0.939,1.7288e-05,0
0.9395,2.6688e-05,0
0.94,2.1317e-05,0
0.9405,2.3667e-05,0
0.941,2.8702e-05,0
0.9415,2.6352e-05,0
0.942,3.6088e-05,0
0.9425,4.8173e-05,0
0.943,4.6998e-05,0
0.9435,4.4816e-05,0
0.944,4.4984e-05,0
0.9445,3.8773e-05,0
0.945,3.2731e-05,0
0.9455,3.2731e-05,0
0.946,3.3738e-05,0
0.9465,3.2059e-05,0
0.947,2.9374e-05,0
0.9475,2.5849e-05,0
0.948,2.0813e-05,0
0.9485,1.6785e-05,0
0.949,1.5946e-05,0
0.9495,1.9303e-05,0
0.95,1.7288e-05,0
0.9505,1.6953e-05,0
0.951,1.6281e-05,0
0.9515,5.2033e-06,0
0.952,7.5532e-06,0
0.9525,1.5106e-05,0
0.953,8.2246e-06,0
0.9535,9.3996e-06,0
0.954,2.0813e-05,0
0.9545,2.1988e-05,0
0.955,2.6688e-05,0
0.9555,3.4577e-05,0
0.956,3.6927e-05,0
0.9565,3.3738e-05,0
0.957,3.2395e-05,0
0.9575,3.6591e-05,0
0.958,4.0452e-05,0
0.9585,4.0955e-05,0
0.959,3.7934e-05,0
0.9595,3.3402e-05,0
0.96,3.0884e-05,0
0.9605,2.7359e-05,0
0.961,2.7192e-05,0
0.9615,2.8702e-05,0
0.962,2.6688e-05,0
0.9625,2.6017e-05,0
0.963,2.031e-05,0
0.9635,1.7288e-05,0
0.964,1.326e-05,0
0.9645,1.678e-07,0
0.965,1.1749e-06,0
0.9655,9.7353e-06,0
0.966,5.2033e-06,0
0.9665,4.8676e-06,0
0.967,4.5319e-06,0
0.9675,-4.5319e-06,0
0.968,-5.8747e-06,0
0.9685,-5.035e-07,0
0.969,2.3499e-06,0
0.9695,5.2033e-06,0
0.97,8.5603e-06,0
0.9705,1.0575e-05,0
0.971,9.5674e-06,0
0.9715,9.2317e-06,0
0.972,1.2924e-05,0
0.9725,1.7288e-05,0
0.973,2.0981e-05,0
0.9735,2.5681e-05,0
0.974,2.8367e-05,0
0.9745,2.5681e-05,0
0.975,2.5345e-05,0
0.9755,3.1724e-05,0
0.976,3.3906e-05,0
0.9765,3.508e-05,0
0.977,3.4745e-05,0
0.9775,2.3331e-05,0
0.978,2.2995e-05,0
0.9785,2.5345e-05,0
0.979,1.5946e-05,0
0.9795,1.4267e-05,0
0.98,1.3092e-05,0
0.9805,6.714e-07,0
0.981,-2.182e-06,0
0.9815,1.678e-07,0
0.982,-1.3428e-06,0
0.9825,-8.392e-07,0
0.983,3.1891e-06,0
0.9835,1.5106e-06,0
0.984,-3.357e-06,0
0.9845,-6.714e-07,0
0.985,7.0497e-06,0
0.9855,8.896e-06,0
0.986,6.8818e-06,0
0.9865,6.8818e-06,0
0.987,1.1582e-05,0
0.9875,1.6617e-05,0
0.988,2.1988e-05,0
0.9885,2.6688e-05,0
0.989,2.4002e-05,0
0.9895,2.8367e-05,0
0.99,3.4241e-05,0
0.9905,2.7863e-05,0
0.991,2.6688e-05,0
0.9915,2.9709e-05,0
0.992,2.4674e-05,0
0.9925,3.0045e-05,0
0.993,3.743e-05,0
0.9935,3.122e-05,0
0.994,2.8031e-05,0
0.9945,3.0549e-05,0
0.995,3.2059e-05,0
0.9955,2.9709e-05,0
0.996,2.0813e-05,0
0.9965,1.5106e-05,0
0.997,1.4939e-05,0
0.9975,1.4771e-05,0
0.998,1.3092e-05,0
0.9985,1.326e-05,0
0.999,1.1246e-05,0
0.9995,5.539e-06,0
1,3.6927e-06,0
1.0005,4.8676e-06,0
1.001,3.5248e-06,0
1.0015,2.8534e-06,0
1.002,-1.5106e-06,0
1.0025,1.678e-07,0
1.003,7.2175e-06,0
1.0035,3.5248e-06,0
1.004,1.0407e-05,0
1.0045,2.6352e-05,0
1.005,2.8367e-05,0
1.0055,3.0716e-05,0
1.006,3.2395e-05,0
1.0065,2.7695e-05,0
1.007,3.508e-05,0
1.0075,4.448e-05,0
1.008,4.4984e-05,0
1.0085,4.3809e-05,0
1.009,4.2802e-05,0
1.0095,4.3137e-05,0
1.01,4.1123e-05,0
1.0105,3.2059e-05,0
1.011,2.1988e-05,0
1.0115,1.7121e-05,0
1.012,1.4435e-05,0
1.0125,1.5946e-05,0
1.013,2.266e-05,0
1.0135,2.6688e-05,0
1.014,2.3835e-05,0
1.0145,2.3163e-05,0
1.015,1.6785e-05,0
1.0155,1.091e-05,0
1.016,8.3925e-06,0
1.0165,0,0
1.017,5.0355e-06,0
1.0175,1.5106e-05,0
1.018,1.561e-05,0
1.0185,1.8631e-05,0
1.019,1.9974e-05,0
1.0195,1.3596e-05,0
1.02,1.8296e-05,0
1.0205,2.7359e-05,0
1.021,3.1556e-05,0
1.0215,3.4913e-05,0
1.022,3.7766e-05,0
1.0225,4.0787e-05,0
1.023,4.0116e-05,0
1.0235,3.6591e-05,0
1.024,3.508e-05,0
1.0245,3.7766e-05,0
1.025,4.1627e-05,0
1.0255,3.9948e-05,0
1.026,3.357e-05,0
1.0265,3.0549e-05,0
1.027,3.1388e-05,0
1.0275,3.4409e-05,0
1.028,2.9877e-05,0
1.0285,2.6352e-05,0
1.029,2.031e-05,0
1.0295,-1.678e-07,0
1.03,-6.8818e-06,0
1.0305,1.8463e-06,0
1.031,1.6785e-06,0
1.0315,5.2033e-06,0
1.032,8.2246e-06,0
1.0325,-1.8463e-06,0
1.033,-1.8463e-06,0
1.0335,7.2175e-06,0
1.034,1.2924e-05,0
1.0345,1.5106e-05,0
1.035,1.6953e-05,0
1.0355,2.0142e-05,0
1.036,2.1317e-05,0
1.0365,1.9974e-05,0
1.037,1.7288e-05,0
1.0375,1.9638e-05,0
1.038,2.4674e-05,0
1.0385,2.8031e-05,0
1.039,3.0381e-05,0
1.0395,3.2395e-05,0
1.04,3.3906e-05,0
1.0405,3.508e-05,0
1.041,2.6352e-05,0
1.0415,2.2324e-05,0
1.042,1.9303e-05,0
1.0425,1.0575e-05,0
1.043,1.2924e-05,0
1.0435,1.561e-05,0
1.044,8.896e-06,0
1.0445,1.2421e-05,0
1.045,1.5274e-05,0
1.0455,2.5177e-06,0
1.046,-2.182e-06,0
1.0465,-1.0071e-06,0
1.047,-6.3783e-06,0
1.0475,-9.9031e-06,0
1.048,-6.5461e-06,0
1.0485,-8.2246e-06,0
1.049,-1.6449e-05,0
1.0495,-2.1317e-05,0
1.05,-1.8967e-05,0
1.0505,-1.6281e-05,0
1.051,-1.0575e-05,0
1.0515,-1.1749e-06,0
1.052,5.2033e-06,0
1.0525,8.896e-06,0
1.053,1.561e-05,0
1.0535,2.8031e-05,0
1.054,3.743e-05,0
1.0545,4.9012e-05,0
1.055,5.0019e-05,0
1.0555,3.122e-05,0
1.056,2.7863e-05,0
1.0565,3.7766e-05,0
1.057,3.7095e-05,0
1.0575,4.0787e-05,0
1.058,4.0116e-05,0
1.0585,2.8367e-05,0
1.059,2.9374e-05,0
1.0595,3.0549e-05,0
1.06,2.0981e-05,0
1.0605,1.4267e-05,0
1.061,1.3092e-05,0
1.0615,9.7353e-06,0
1.062,5.0355e-06,0
1.0625,3.5248e-06,0
1.063,7.2175e-06,0
1.0635,8.5603e-06,0
1.064,8.896e-06,0
1.0645,6.8818e-06,0
1.065,5.7069e-06,0
1.0655,6.5461e-06,0
1.066,3.8605e-06,0
1.0665,3.6927e-06,0
1.067,7.5532e-06,0
1.0675,1.9135e-05,0
1.068,2.4674e-05,0
1.0685,1.326e-05,0
1.069,1.5946e-05,0
1.0695,3.0045e-05,0
1.07,3.4409e-05,0
1.0705,4.0452e-05,0
1.071,4.2802e-05,0
1.0715,3.4241e-05,0
1.072,3.7095e-05,0
1.0725,4.6998e-05,0
1.073,4.683e-05,0
1.0735,4.0619e-05,0
1.074,3.3906e-05,0
1.0745,2.9038e-05,0
1.075,2.6017e-05,0
1.0755,2.266e-05,0
1.076,2.1317e-05,0
1.0765,1.7121e-05,0
1.077,1.1582e-05,0
1.0775,6.2104e-06,0
1.078,8.7282e-06,0
1.0785,1.4603e-05,0
1.079,1.8631e-05,0
1.0795,1.9638e-05,0
1.08,1.2253e-05,0
1.0805,7.8889e-06,0
1.081,3.8605e-06,0
1.0815,-9.5674e-06,0
1.082,-5.7069e-06,0
1.0825,7.8889e-06,0
1.083,9.2317e-06,0
1.0835,1.1917e-05,0
1.084,1.4435e-05,0
1.0845,9.2317e-06,0
1.085,1.7624e-05,0
1.0855,2.8367e-05,0
1.086,2.6688e-05,0
1.0865,2.2324e-05,0
1.087,2.2324e-05,0
1.0875,2.7192e-05,0
1.088,3.1052e-05,0
1.0885,2.8702e-05,0
1.089,2.6017e-05,0
1.0895,3.1556e-05,0
1.09,3.8102e-05,0
1.0905,3.3402e-05,0
1.091,2.5345e-05,0
1.0915,1.9135e-05,0
1.092,1.5106e-05,0
1.0925,1.9135e-05,0
1.093,2.2828e-05,0
1.0935,2.5849e-05,0
1.094,2.7695e-05,0
1.0945,1.9303e-05,0
1.095,1.9135e-05,0
1.0955,2.3331e-05,0
1.096,1.5946e-05,0
1.0965,1.6785e-05,0
1.097,1.796e-05,0
1.0975,9.0639e-06,0
1.098,1.3596e-05,0
1.0985,2.7024e-05,0
1.099,3.2731e-05,0
1.0995,3.2898e-05,0
1.1,3.357e-05,0
1.1005,3.5416e-05,0
1.101,3.7095e-05,0
1.1015,3.4577e-05,0
1.102,3.2059e-05,0
1.1025,3.5752e-05,0
1.103,4.2802e-05,0
1.1035,4.8173e-05,0
1.104,5.2537e-05,0
1.1045,5.4215e-05,0
1.105,5.0858e-05,0
1.1055,4.5991e-05,0
1.106,3.592e-05,0
1.1065,2.9709e-05,0
1.107,2.8702e-05,0
1.1075,1.947e-05,0
1.108,2.0646e-05,0
1.1085,2.266e-05,0
1.109,1.0239e-05,0
1.1095,6.8818e-06,0
1.11,6.5461e-06,0
1.1105,-1.1749e-06,0
1.111,2.0142e-06,0
1.1115,6.5461e-06,0
1.112,4.5319e-06,0
1.1125,1.1749e-06,0
1.113,1.0071e-06,0
1.1135,1.1749e-06,0
1.114,-3.5248e-06,0
1.1145,-5.539e-06,0
1.115,-3.357e-07,0
1.1155,4.1962e-06,0
1.116,7.8889e-06,0
1.1165,1.1582e-05,0
1.117,1.3596e-05,0
1.1175,1.6281e-05,0
1.118,1.9303e-05,0
1.1185,2.266e-05,0
1.119,1.8463e-05,0
1.1195,1.9806e-05,0
1.12,2.6688e-05,0
1.1205,2.4338e-05,0
1.121,3.2059e-05,0
1.1215,3.8437e-05,0
1.122,2.5345e-05,0
1.1225,2.0646e-05,0
1.123,2.2324e-05,0
1.1235,1.326e-05,0
1.124,9.3996e-06,0
1.1245,8.3925e-06,0
1.125,4.8676e-06,0
1.1255,1.6785e-06,0
1.126,-1.5106e-06,0
1.1265,-1.1749e-06,0
1.127,-3.357e-07,0
1.1275,-3.357e-06,0
1.128,-7.0497e-06,0
1.1285,-5.3712e-06,0
1.129,1.6785e-06,0
1.1295,5.539e-06,0
1.13,7.2175e-06,0
1.1305,1.0575e-05,0
1.131,1.6953e-05,0
1.1315,2.3331e-05,0
1.132,2.6017e-05,0
1.1325,3.3906e-05,0
1.133,4.2802e-05,0
1.1335,3.7262e-05,0
1.134,3.8102e-05,0
1.1345,4.1291e-05,0
1.135,3.3066e-05,0
1.1355,3.2059e-05,0
1.136,3.7262e-05,0
1.1365,3.4241e-05,0
1.137,3.2395e-05,0
1.1375,3.2059e-05,0
1.138,2.8702e-05,0
1.1385,2.3331e-05,0
1.139,1.9135e-05,0
1.1395,1.8631e-05,0
1.14,1.9974e-05,0
1.1405,1.5778e-05,0
1.141,1.1917e-05,0
1.1415,1.0575e-05,0
1.142,6.5461e-06,0
1.1425,5.8747e-06,0
1.143,9.9031e-06,0
1.1435,7.5532e-06,0
1.144,2.182e-06,0
1.1445,2.5177e-06,0
1.145,3.357e-06,0
1.1455,1.1582e-05,0
1.146,1.4603e-05,0
1.1465,4.5319e-06,0
1.147,7.2175e-06,0
1.1475,1.4435e-05,0
1.148,8.2246e-06,0
1.1485,1.2924e-05,0
1.149,2.4002e-05,0
1.1495,2.3835e-05,0
1.15,2.7192e-05,0
1.1505,2.7695e-05,0
1.151,2.2156e-05,0
1.1515,1.9303e-05,0
1.152,2.0813e-05,0
1.1525,2.9374e-05,0
1.153,3.8437e-05,0
1.1535,4.1123e-05,0
1.154,4.0619e-05,0
1.1545,3.8102e-05,0
1.155,3.7766e-05,0
1.1555,4.1123e-05,0
1.156,4.0955e-05,0
1.1565,3.508e-05,0
1.157,3.0716e-05,0
1.1575,2.8702e-05,0
1.158,2.1653e-05,0
1.1585,2.0813e-05,0
1.159,2.0142e-05,0
1.1595,7.2175e-06,0
1.16,4.0284e-06,0
1.1605,5.539e-06,0
1.161,-3.357e-07,0
1.1615,7.2175e-06,0
1.162,1.3932e-05,0
1.1625,4.5319e-06,0
1.163,3.6927e-06,0
1.1635,9.9031e-06,0
1.164,1.3092e-05,0
1.1645,1.561e-05,0
1.165,1.7288e-05,0
1.1655,1.8631e-05,0
1.166,2.3667e-05,0
1.1665,2.8702e-05,0
1.167,3.0381e-05,0
1.1675,3.0549e-05,0
1.168,3.2059e-05,0
1.1685,3.3906e-05,0
1.169,3.6255e-05,0
1.1695,4.1123e-05,0
1.17,4.1627e-05,0
1.1705,3.6927e-05,0
1.171,2.4674e-05,0
1.1715,2.031e-05,0
1.172,1.8296e-05,0
1.1725,3.8605e-06,0
1.173,2.3499e-06,0
1.1735,5.0355e-06,0
1.174,-7.3854e-06,0
1.1745,-8.2246e-06,0
1.175,2.5177e-06,0
1.1755,1.5106e-06,0
1.176,5.2033e-06,0
1.1765,1.4603e-05,0
1.177,1.7121e-05,0
1.1775,1.7624e-05,0
1.178,1.6953e-05,0
1.1785,1.6617e-05,0
1.179,1.9638e-05,0
1.1795,3.2227e-05,0
1.18,4.0116e-05,0
1.1805,4.0116e-05,0
1.181,4.2466e-05,0
1.1815,4.3305e-05,0
1.182,4.0452e-05,0
1.1825,3.743e-05,0
1.183,3.6759e-05,0
1.1835,3.7095e-05,0
1.184,3.3738e-05,0
1.1845,4.0116e-05,0
1.185,4.5487e-05,0
1.1855,3.2395e-05,0
1.186,2.8367e-05,0
1.1865,3.4745e-05,0
1.187,2.7527e-05,0
1.1875,1.8631e-05,0
1.188,1.2253e-05,0
1.1885,9.3996e-06,0
1.189,1.9303e-05,0
1.1895,2.3667e-05,0
1.19,1.5946e-05,0
1.1905,1.4099e-05,0
1.191,1.8967e-05,0
1.1915,2.3667e-05,0
1.192,2.266e-05,0
1.1925,1.5778e-05,0
1.193,7.2175e-06,0
1.1935,5.035e-07,0
1.194,0,0
1.1945,4.1962e-06,0
1.195,8.896e-06,0
1.1955,1.1917e-05,0
1.196,1.5274e-05,0
1.1965,1.9135e-05,0
1.197,1.7288e-05,0
1.1975,1.6281e-05,0
1.198,1.6617e-05,0
1.1985,7.7211e-06,0
1.199,1.091e-05,0
1.1995,2.182e-05,0
1.2,1.9974e-05,0
1.2005,2.1317e-05,0
1.201,2.4674e-05,0
1.2015,1.9806e-05,0
1.202,2.2995e-05,0
1.2025,3.2898e-05,0
1.203,3.9277e-05,0
1.2035,3.6423e-05,0
1.204,2.9374e-05,0
1.2045,2.5177e-05,0
1.205,2.1317e-05,0
1.2055,1.8631e-05,0
1.206,1.6617e-05,0
1.2065,1.5946e-05,0
1.207,1.4603e-05,0
1.2075,1.3932e-05,0
1.208,1.4267e-05,0
1.2085,1.2589e-05,0
1.209,7.8889e-06,0
1.2095,6.0426e-06,0
1.21,1.8463e-06,0
1.2105,3.5248e-06,0
1.211,7.5532e-06,0
1.2115,-1.1749e-06,0
1.212,-1.5106e-06,0
1.2125,5.7069e-06,0
1.213,5.3712e-06,0
1.2135,1.326e-05,0
1.214,2.0813e-05,0
1.2145,1.6785e-05,0
1.215,2.4002e-05,0
1.2155,3.6759e-05,0
1.216,3.5752e-05,0
1.2165,2.9038e-05,0
1.217,2.5345e-05,0
1.2175,2.3163e-05,0
1.218,2.031e-05,0
1.2185,1.6617e-05,0
1.219,1.2924e-05,0
1.2195,1.4267e-05,0
1.22,1.5946e-05,0
1.2205,1.5106e-05,0
1.221,1.2589e-05,0
1.2215,8.7282e-06,0
1.222,5.2033e-06,0
1.2225,5.035e-07,0
1.223,-4.5319e-06,0
1.2235,3.6927e-06,0
1.224,1.0239e-05,0
1.2245,-1.0071e-06,0
1.225,-1.8463e-06,0
1.2255,7.7211e-06,0
1.226,8.0568e-06,0
1.2265,1.0407e-05,0
1.227,1.1917e-05,0
1.2275,7.2175e-06,0
1.228,1.5778e-05,0
1.2285,2.6688e-05,0
1.229,3.0549e-05,0
1.2295,3.592e-05,0
1.23,4.1123e-05,0
1.2305,4.1795e-05,0
1.231,3.9948e-05,0
1.2315,3.8437e-05,0
1.232,3.6759e-05,0
1.2325,3.4073e-05,0
1.233,3.4241e-05,0
1.2335,3.6591e-05,0
1.234,3.8437e-05,0
1.2345,3.3402e-05,0
1.235,2.6352e-05,0
1.2355,2.266e-05,0
1.236,1.4771e-05,0
1.2365,1.5778e-05,0
1.237,1.9974e-05,0
1.2375,9.5674e-06,0
1.238,5.7069e-06,0
1.2385,7.2175e-06,0
1.239,-1.6785e-06,0
1.2395,-3.6927e-06,0
1.24,8.392e-07,0
1.2405,-4.8676e-06,0
1.241,-4.0284e-06,0
1.2415,5.2033e-06,0
1.242,1.1749e-05,0
1.2425,1.326e-05,0
1.243,1.6281e-05,0
1.2435,2.266e-05,0
1.244,2.5849e-05,0
1.2445,2.2324e-05,0
1.245,1.947e-05,0
1.2455,2.266e-05,0
1.246,3.0549e-05,0
1.2465,3.7095e-05,0
1.247,4.0619e-05,0
1.2475,4.2802e-05,0
1.248,4.4984e-05,0
1.2485,4.7333e-05,0
1.249,4.2802e-05,0
1.2495,4.3977e-05,0
1.25,4.1795e-05,0
1.2505,2.5009e-05,0
1.251,1.9974e-05,0
1.2515,2.2324e-05,0
1.252,1.3092e-05,0
1.2525,1.1917e-05,0
1.253,1.3092e-05,0
1.2535,1.1749e-06,0
1.254,-4.5319e-06,0
1.2545,-3.0213e-06,0
1.255,-1.5106e-06,0
1.2555,-1.5106e-06,0
1.256,-1.5106e-06,0
1.2565,-9.2317e-06,0
1.257,-1.8631e-05,0
1.2575,-1.8631e-05,0
1.258,-1.4939e-05,0
1.2585,-1.4267e-05,0
1.259,-8.896e-06,0
1.2595,-1.5106e-06,0
1.26,3.0213e-06,0
1.2605,8.2246e-06,0
1.261,1.5946e-05,0
1.2615,2.5009e-05,0
1.262,2.6017e-05,0
1.2625,2.9877e-05,0
1.263,3.7095e-05,0
1.2635,3.1052e-05,0
1.264,3.1052e-05,0
1.2645,3.5752e-05,0
1.265,3.3066e-05,0
1.2655,3.6927e-05,0
1.266,4.1459e-05,0
1.2665,3.9445e-05,0
1.267,4.5991e-05,0
1.2675,4.8173e-05,0
1.268,3.9445e-05,0
1.2685,2.9374e-05,0
1.269,2.266e-05,0
1.2695,1.5274e-05,0
1.27,1.0239e-05,0
1.2705,8.5603e-06,0
1.271,8.5603e-06,0
1.2715,7.0497e-06,0
1.272,5.7069e-06,0
1.2725,1.1582e-05,0
1.273,1.5946e-05,0
1.2735,1.091e-05,0
1.274,7.8889e-06,0
1.2745,1.2924e-05,0
1.275,1.561e-05,0
1.2755,1.5946e-05,0
1.276,1.4939e-05,0
1.2765,6.3783e-06,0
1.277,9.7353e-06,0
1.2775,1.6449e-05,0
1.278,1.2924e-05,0
1.2785,2.0981e-05,0
1.279,3.1891e-05,0
1.2795,2.8031e-05,0
1.28,2.7695e-05,0
1.2805,2.7695e-05,0
1.281,2.2324e-05,0
1.2815,1.8128e-05,0
1.282,1.7288e-05,0
1.2825,1.5946e-05,0
1.283,1.7792e-05,0
1.2835,1.9638e-05,0
1.284,1.8967e-05,0
1.2845,2.1149e-05,0
1.285,2.2995e-05,0
1.2855,2.4002e-05,0
1.286,2.7192e-05,0
1.2865,3.1388e-05,0
1.287,3.2059e-05,0
1.2875,3.3066e-05,0
1.288,2.6352e-05,0
1.2885,1.8631e-05,0
1.289,1.5442e-05,0
1.2895,6.5461e-06,0
1.29,1.0575e-05,0
1.2905,1.4771e-05,0
1.291,6.3783e-06,0
1.2915,9.5674e-06,0
1.292,1.6617e-05,0
1.2925,1.326e-05,0
1.293,1.6617e-05,0
1.2935,2.4338e-05,0
1.294,2.6352e-05,0
1.2945,2.652e-05,0
1.295,2.417e-05,0
1.2955,2.2324e-05,0
1.296,2.2492e-05,0
1.2965,2.4674e-05,0
1.297,2.9038e-05,0
1.2975,3.0716e-05,0
1.298,2.7527e-05,0
1.2985,2.6184e-05,0
1.299,2.5345e-05,0
1.2995,1.8631e-05,0
1.3,1.0575e-05,0
1.3005,8.2246e-06,0
1.301,4.1962e-06,0
1.3015,4.5319e-06,0
1.302,4.8676e-06,0
1.3025,-9.2317e-06,0
1.303,-1.2757e-05,0
1.3035,-5.2033e-06,0
1.304,-7.8889e-06,0
1.3045,-7.5532e-06,0
1.305,-5.539e-06,0
1.3055,-1.1917e-05,0
1.306,-1.091e-05,0
1.3065,-2.8534e-06,0
1.307,0,0
1.3075,2.5177e-06,0
1.308,3.8605e-06,0
1.3085,6.5461e-06,0
1.309,7.0497e-06,0
1.3095,-8.392e-07,0
1.31,-1.1749e-06,0
1.3105,8.5603e-06,0
1.311,1.2589e-05,0
1.3115,1.3428e-05,0
1.312,1.7624e-05,0
1.3125,2.266e-05,0
1.313,2.7359e-05,0
1.3135,3.2059e-05,0
1.314,3.1724e-05,0
1.3145,3.6088e-05,0
1.315,3.8773e-05,0
1.3155,3.1724e-05,0
1.316,3.8773e-05,0
1.3165,4.9851e-05,0
1.317,4.7837e-05,0
1.3175,5.0019e-05,0
1.318,5.0355e-05,0
1.3185,3.6423e-05,0
1.319,2.9038e-05,0
1.3195,3.0716e-05,0
1.32,2.266e-05,0
1.3205,5.539e-06,0
1.321,-5.8747e-06,0
1.3215,-6.8818e-06,0
1.322,1.5106e-06,0
1.3225,1.091e-05,0
1.323,1.9638e-05,0
1.3235,3.0381e-05,0
1.324,4.1459e-05,0
1.3245,5.0858e-05,0
1.325,5.9922e-05,0
1.3255,7.0329e-05,0
1.326,8.3589e-05,0
1.3265,9.4331e-05,0
1.327,9.3828e-05,0
1.3275,8.9464e-05,0
1.328,8.04e-05,0
1.3285,6.1936e-05,0
1.329,5.9754e-05,0
1.3295,6.5629e-05,0
1.33,5.7237e-05,0
1.3305,5.5894e-05,0
1.331,5.3376e-05,0
1.3315,3.6927e-05,0
1.332,3.2898e-05,0
1.3325,3.8773e-05,0
1.333,4.1459e-05,0
1.3335,4.4144e-05,0
1.334,4.8844e-05,0
1.3345,5.2201e-05,0
1.335,5.2872e-05,0
1.3355,5.5222e-05,0
1.336,5.6901e-05,0
1.3365,5.8412e-05,0
1.337,5.6901e-05,0
1.3375,5.0858e-05,0
1.338,4.8676e-05,0
1.3385,5.0187e-05,0
1.339,5.3544e-05,0
1.3395,5.3208e-05,0
1.34,3.8102e-05,0
1.3405,3.0716e-05,0
1.341,3.3906e-05,0
1.3415,3.0381e-05,0
1.342,3.9948e-05,0
1.3425,5.1362e-05,0
1.343,4.7333e-05,0
1.3435,5.2537e-05,0
1.344,6.1601e-05,0
1.3445,5.8244e-05,0
1.345,5.9587e-05,0
1.3455,6.0929e-05,0
1.346,5.4551e-05,0
1.3465,4.9851e-05,0
1.347,4.7837e-05,0
1.3475,4.3977e-05,0
1.348,3.8605e-05,0
1.3485,2.8702e-05,0
1.349,1.8463e-05,0
1.3495,1.3932e-05,0
1.35,1.1917e-05,0
1.3505,5.539e-06,0
1.351,-1.8463e-06,0
1.3515,-5.2033e-06,0
1.352,-8.2246e-06,0
1.3525,-1.0407e-05,0
1.353,-1.7792e-05,0
1.3535,-1.8128e-05,0
1.354,-1.4939e-05,0
1.3545,-2.3331e-05,0
1.355,-2.4002e-05,0
1.3555,-1.8967e-05,0
1.356,-2.6017e-05,0
1.3565,-2.4674e-05,0
1.357,-1.8296e-05,0
1.3575,-1.9974e-05,0
1.358,-1.4939e-05,0
1.3585,-7.8889e-06,0
1.359,-9.2317e-06,0
1.3595,-1.4099e-05,0
1.36,-1.7624e-05,0
1.3605,-1.7288e-05,0
1.361,-1.5442e-05,0
1.3615,-1.4603e-05,0
1.362,-1.6281e-05,0
1.3625,-1.5274e-05,0
1.363,-1.7624e-05,0
1.3635,-3.0045e-05,0
1.364,-4.0116e-05,0
1.3645,-3.9277e-05,0
1.365,-3.5248e-05,0
1.3655,-3.592e-05,0
1.366,-4.5151e-05,0
1.3665,-4.6159e-05,0
1.367,-4.6662e-05,0
1.3675,-5.9251e-05,0
1.368,-6.2608e-05,0
1.3685,-5.5558e-05,0
1.369,-5.9419e-05,0
1.3695,-6.3111e-05,0
1.37,-6.0929e-05,0
1.3705,-6.0929e-05,0
1.371,-4.8173e-05,0
1.3715,-2.8367e-05,0
1.372,-1.9638e-05,0
1.3725,-1.6281e-05,0
1.373,-1.0239e-05,0
1.3735,-2.6856e-06,0
1.374,4.5319e-06,0
1.3745,7.2175e-06,0
1.375,9.2317e-06,0
1.3755,1.6953e-05,0
1.376,2.8534e-05,0
1.3765,3.4745e-05,0
1.377,3.4577e-05,0
1.3775,3.4241e-05,0
1.378,3.7262e-05,0
1.3785,4.0619e-05,0
1.379,3.6759e-05,0
1.3795,3.5248e-05,0
1.38,3.3738e-05,0
1.3805,2.1149e-05,0
1.381,1.8128e-05,0
1.3815,2.6688e-05,0
1.382,2.5513e-05,0
1.3825,2.6352e-05,0
1.383,2.9206e-05,0
1.3835,2.2995e-05,0
1.384,2.6017e-05,0
1.3845,3.4241e-05,0
1.385,3.2731e-05,0
1.3855,2.6184e-05,0
1.386,1.9806e-05,0
1.3865,1.5946e-05,0
1.387,1.6617e-05,0
1.3875,2.2156e-05,0
1.388,2.8367e-05,0
1.3885,3.3402e-05,0
1.389,3.743e-05,0
1.3895,4.2802e-05,0
1.39,4.6326e-05,0
1.3905,4.918e-05,0
1.391,4.8173e-05,0
1.3915,4.4648e-05,0
1.392,3.6088e-05,0
1.3925,3.0045e-05,0
1.393,2.3331e-05,0
1.3935,1.2589e-05,0
1.394,1.9303e-05,0
1.3945,3.2059e-05,0
1.395,2.266e-05,0
1.3955,1.3596e-05,0
1.396,1.0071e-05,0
1.3965,5.035e-07,0
1.397,1.0071e-06,0
1.3975,5.2033e-06,0
1.398,7.8889e-06,0
1.3985,1.3764e-05,0
1.399,2.2492e-05,0
1.3995,3.0716e-05,0
1.4,3.3402e-05,0
1.4005,3.0045e-05,0
1.401,2.3331e-05,0
1.4015,1.8631e-05,0
1.402,1.8631e-05,0
1.4025,1.5946e-05,0
1.403,1.0575e-05,0
1.4035,1.2589e-05,0
1.404,2.0813e-05,0
1.4045,2.5849e-05,0
1.405,1.8631e-05,0
1.4055,1.4603e-05,0
1.406,1.8631e-05,0
1.4065,1.5946e-05,0
1.407,2.1653e-05,0
1.4075,2.6017e-05,0
1.408,2.2828e-05,0
1.4085,3.0549e-05,0
1.409,3.978e-05,0
1.4095,3.2898e-05,0
1.41,3.2059e-05,0
1.4105,3.5248e-05,0
1.411,2.9709e-05,0
1.4115,2.1317e-05,0
1.412,1.2924e-05,0
1.4125,6.5461e-06,0
1.413,1.0239e-05,0
1.4135,1.5946e-05,0
1.414,1.5946e-05,0
1.4145,1.3932e-05,0
1.415,1.3932e-05,0
1.4155,1.9303e-05,0
1.416,2.4338e-05,0
1.4165,2.3331e-05,0
1.417,1.9638e-05,0
1.4175,1.561e-05,0
1.418,5.539e-06,0
1.4185,3.357e-06,0
1.419,4.8676e-06,0
1.4195,-3.0213e-06,0
1.42,-3.0213e-06,0
1.4205,3.8605e-06,0
1.421,1.0071e-05,0
1.4215,2.887e-05,0
1.422,4.6494e-05,0
1.4225,5.4048e-05,0
1.423,6.9657e-05,0
1.4235,8.6442e-05,0
1.424,9.0135e-05,0
1.4245,8.6442e-05,0
1.425,8.4428e-05,0
1.4255,8.275e-05,0
1.426,7.6875e-05,0
1.4265,6.9154e-05,0
1.427,6.865e-05,0
1.4275,6.8986e-05,0
1.428,6.5126e-05,0
1.4285,5.6733e-05,0
1.429,4.7837e-05,0
1.4295,4.2466e-05,0
1.43,4.1459e-05,0
1.4305,3.8941e-05,0
1.431,2.9038e-05,0
1.4315,2.5513e-05,0
1.432,2.3163e-05,0
1.4325,8.896e-06,0
1.433,2.5177e-06,0
1.4335,-3.357e-07,0
1.434,-8.896e-06,0
1.4345,-6.5461e-06,0
1.435,-5.8747e-06,0
1.4355,-8.7282e-06,0
1.436,1.1749e-06,0
1.4365,9.5674e-06,0
1.437,7.5532e-06,0
1.4375,6.0426e-06,0
1.438,8.5603e-06,0
1.4385,1.1414e-05,0
1.439,1.9135e-05,0
1.4395,2.652e-05,0
1.44,2.8367e-05,0
1.4405,2.5849e-05,0
1.441,2.266e-05,0
1.4415,2.182e-05,0
1.442,2.5009e-05,0
1.4425,2.8031e-05,0
1.443,2.6688e-05,0
1.4435,2.5177e-05,0
1.444,1.6449e-05,0
1.4445,1.326e-05,0
1.445,1.2253e-05,0
1.4455,-1.1749e-06,0
1.446,-2.3499e-06,0
1.4465,5.539e-06,0
1.447,1.8463e-06,0
1.4475,1.1749e-06,0
1.448,6.2104e-06,0
1.4485,1.1749e-06,0
1.449,-3.5248e-06,0
1.4495,-4.8676e-06,0
1.45,-6.3783e-06,0
1.4505,-6.2104e-06,0
1.451,-4.8676e-06,0
1.4515,-4.8676e-06,0
1.452,-5.035e-07,0
1.4525,6.8818e-06,0
1.453,1.0239e-05,0
1.4535,9.2317e-06,0
1.454,7.8889e-06,0
1.4545,6.5461e-06,0
1.455,9.2317e-06,0
1.4555,1.6617e-05,0
1.456,2.2995e-05,0
1.4565,2.887e-05,0
1.457,2.5009e-05,0
1.4575,2.2995e-05,0
1.458,2.6017e-05,0
1.4585,2.031e-05,0
1.459,1.9303e-05,0
1.4595,1.7121e-05,0
1.46,4.1962e-06,0
1.4605,4.5319e-06,0
1.461,7.8889e-06,0
1.4615,1.678e-07,0
1.462,8.392e-07,0
1.4625,8.5603e-06,0
1.463,9.5674e-06,0
1.4635,4.6998e-06,0
1.464,4.0284e-06,0
1.4645,1.0407e-05,0
1.465,1.7792e-05,0
1.4655,1.8631e-05,0
1.466,1.4603e-05,0
1.4665,6.5461e-06,0
1.467,8.392e-07,0
1.4675,-8.392e-07,0
1.468,3.5248e-06,0
1.4685,1.2589e-05,0
1.469,1.561e-05,0
1.4695,1.6617e-05,0
1.47,1.2589e-05,0
1.4705,1.091e-05,0
1.471,8.5603e-06,0
1.4715,-2.6856e-06,0
1.472,1.5106e-06,0
1.4725,1.3596e-05,0
1.473,1.1582e-05,0
1.4735,1.5274e-05,0
1.474,2.4674e-05,0
1.4745,2.266e-05,0
1.475,2.4674e-05,0
1.4755,3.6088e-05,0
1.476,4.2802e-05,0
1.4765,4.2802e-05,0
1.477,4.2802e-05,0
1.4775,4.3305e-05,0
1.478,4.5487e-05,0
1.4785,4.6662e-05,0
1.479,4.1795e-05,0
1.4795,3.743e-05,0
1.48,3.6759e-05,0
1.4805,3.743e-05,0
1.481,3.5416e-05,0
1.4815,3.5248e-05,0
1.482,3.7766e-05,0
1.4825,3.743e-05,0
1.483,2.3667e-05,0
1.4835,1.326e-05,0
1.484,1.0575e-05,0
1.4845,5.0355e-06,0
1.485,1.1246e-05,0
1.4855,1.7792e-05,0
1.486,7.2175e-06,0
1.4865,4.8676e-06,0
1.487,1.091e-05,0
1.4875,6.8818e-06,0
1.488,1.3092e-05,0
1.4885,2.7359e-05,0
1.489,2.9709e-05,0
1.4895,2.266e-05,0
1.49,1.1246e-05,0
1.4905,3.8605e-06,0
1.491,3.5248e-06,0
1.4915,5.539e-06,0
1.492,4.5319e-06,0
1.4925,3.8605e-06,0
1.493,5.7069e-06,0
1.4935,8.5603e-06,0
1.494,1.0407e-05,0
1.4945,9.9031e-06,0
1.495,1.091e-05,0
1.4955,1.6953e-05,0
1.496,2.5009e-05,0
1.4965,3.8102e-05,0
1.497,4.213e-05,0
1.4975,2.9374e-05,0
1.498,2.4506e-05,0
1.4985,2.5849e-05,0
1.499,1.7288e-05,0
1.4995,1.8128e-05,0
1.5,2.6352e-05,0
1.5005,2.6184e-05,0
1.501,2.9709e-05,0
1.5015,3.8437e-05,0
1.502,4.918e-05,0
1.5025,5.9251e-05,0
1.503,6.5965e-05,0
1.5035,7.0329e-05,0
1.504,7.3014e-05,0
1.5045,7.2007e-05,0
1.505,6.4286e-05,0
1.5055,5.0858e-05,0
1.506,4.0116e-05,0
1.5065,3.5752e-05,0
1.507,2.9374e-05,0
1.5075,2.0981e-05,0
1.508,1.6449e-05,0
1.5085,1.6953e-05,0
1.509,1.5946e-05,0
1.5095,2.1149e-05,0
1.51,2.5681e-05,0
1.5105,1.9135e-05,0
1.511,2.0981e-05,0
1.5115,2.6017e-05,0
1.512,1.8631e-05,0
1.5125,1.9974e-05,0
1.513,2.2324e-05,0
1.5135,1.5274e-05,0
1.514,1.7121e-05,0
1.5145,2.3667e-05,0
1.515,1.9974e-05,0
1.5155,9.2317e-06,0
1.516,7.7211e-06,0
1.5165,1.3764e-05,0
1.517,1.8631e-05,0
1.5175,1.6953e-05,0
1.518,1.0239e-05,0
1.5185,3.8605e-06,0
1.519,8.392e-07,0
1.5195,-1.5106e-06,0
1.52,-5.0355e-06,0
1.5205,-7.8889e-06,0
1.521,-8.2246e-06,0
1.5215,-3.1891e-06,0
1.522,-1.8463e-06,0
1.5225,2.5177e-06,0
1.523,5.539e-06,0
1.5235,-3.1891e-06,0
1.524,-4.3641e-06,0
1.5245,8.392e-07,0
1.525,-1.5106e-06,0
1.5255,5.035e-07,0
1.526,2.5177e-06,0
1.5265,-4.6998e-06,0
1.527,8.392e-07,0
1.5275,1.796e-05,0
1.528,2.9038e-05,0
1.5285,3.5416e-05,0
1.529,4.5151e-05,0
1.5295,5.4887e-05,0
1.53,6.4286e-05,0
1.5305,7.4357e-05,0
1.531,8.3589e-05,0
1.5315,8.4428e-05,0
1.532,7.9057e-05,0
1.5325,7.2007e-05,0
1.533,6.7308e-05,0
1.5335,6.6133e-05,0
1.534,6.479e-05,0
1.5345,6.009e-05,0
1.535,4.9515e-05,0
1.5355,4.4312e-05,0
1.536,3.7934e-05,0
1.5365,2.1317e-05,0
1.537,1.4435e-05,0
1.5375,1.6953e-05,0
1.538,1.796e-05,0
1.5385,2.0646e-05,0
1.539,1.7288e-05,0
1.5395,5.2033e-06,0
1.54,7.8889e-06,0
1.5405,9.2317e-06,0
1.541,-1.678e-07,0
1.5415,-1.0575e-05,0
1.542,-1.6785e-05,0
1.5425,-2.0646e-05,0
1.543,-2.2324e-05,0
1.5435,-2.4002e-05,0
1.544,-2.6017e-05,0
1.5445,-2.3163e-05,0
1.545,-1.9303e-05,0
1.5455,-1.9638e-05,0
1.546,-2.4002e-05,0
1.5465,-2.5681e-05,0
1.547,-2.7695e-05,0
1.5475,-3.0213e-05,0
1.548,-3.6423e-05,0
1.5485,-3.4409e-05,0
1.549,-3.0884e-05,0
1.5495,-3.1724e-05,0
1.55,-2.0646e-05,0
1.5505,-1.1078e-05,0
1.551,-1.4603e-05,0
1.5515,-9.0639e-06,0
1.552,-3.5248e-06,0
1.5525,-1.1414e-05,0
1.553,-6.5461e-06,0
1.5535,1.5946e-05,0
1.554,3.4073e-05,0
1.5545,3.7262e-05,0
1.555,3.3738e-05,0
1.5555,2.9206e-05,0
1.556,2.2156e-05,0
1.5565,1.2924e-05,0
1.557,4.3641e-06,0
1.5575,-1.6785e-06,0
1.558,-5.539e-06,0
1.5585,-1.2589e-05,0
1.559,-1.5106e-05,0
1.5595,-7.3854e-06,0
1.56,8.392e-07,0
1.5605,6.5461e-06,0
1.561,8.2246e-06,0
1.5615,1.5274e-05,0
1.562,2.3331e-05,0
1.5625,2.4674e-05,0
1.563,3.8941e-05,0
1.5635,5.7404e-05,0
1.564,6.4286e-05,0
1.5645,7.9057e-05,0
1.565,8.7785e-05,0
1.5655,7.6371e-05,0
1.566,7.3686e-05,0
1.5665,8.3421e-05,0
1.567,8.8121e-05,0
1.5675,8.6442e-05,0
1.568,8.04e-05,0
1.5685,6.9657e-05,0
1.569,5.8915e-05,0
1.5695,5.2872e-05,0
1.57,4.5991e-05,0
1.5705,3.4073e-05,0
1.571,1.796e-05,0
1.5715,7.2175e-06,0
1.572,-2.5177e-06,0
1.5725,-2.5009e-05,0
1.573,-4.8508e-05,0
1.5735,-6.0594e-05,0
1.574,-7.0329e-05,0
1.5745,-6.7308e-05,0
1.575,-6.1265e-05,0
1.5755,-6.8818e-05,0
1.576,-6.0258e-05,0
1.5765,-3.3738e-05,0
1.577,-1.4267e-05,0
1.5775,4.6998e-06,0
1.578,1.8631e-05,0
1.5785,2.5177e-05,0
1.579,4.683e-05,0
1.5795,6.8147e-05,0
1.58,7.3686e-05,0
1.5805,7.5029e-05,0
1.581,7.6371e-05,0
1.5815,8.3925e-05,0
1.582,9.6178e-05,0
1.5825,0.00010994,0
1.583,0.00012572,0
1.5835,0.00014519,0
1.584,0.00016432,0
1.5845,0.00017758,0
1.585,0.00018379,0
1.5855,0.00018161,0
1.586,0.00017238,0
1.5865,0.00015627,0
1.587,0.00012874,0
1.5875,0.0001044,0
1.588,8.5771e-05,0
1.5885,6.479e-05,0
1.589,5.9922e-05,0
1.5895,6.2104e-05,0
1.59,5.1194e-05,0
1.5905,4.5151e-05,0
1.591,3.4409e-05,0
1.5915,1.1246e-05,0
1.592,4.8676e-06,0
1.5925,5.0355e-06,0
1.593,-1.2421e-05,0
1.5935,-3.2395e-05,0
1.594,-3.8773e-05,0
1.5945,-4.1795e-05,0
1.595,-4.3305e-05,0
1.5955,-4.3473e-05,0
1.596,-4.1795e-05,0
1.5965,-4.0787e-05,0
1.597,-4.1795e-05,0
1.5975,-4.448e-05,0
1.598,-4.6998e-05,0
1.5985,-5.0523e-05,0
1.599,-5.8579e-05,0
1.5995,-6.2608e-05,0
1.6,-6.6636e-05,0
1.6005,-7.0329e-05,0
1.601,-7.3686e-05,0
1.6015,-8.3589e-05,0
1.602,-8.1743e-05,0
1.6025,-7.3686e-05,0
1.603,-7.4357e-05,0
1.6035,-7.0832e-05,0
1.604,-6.9993e-05,0
1.6045,-7.5364e-05,0
1.605,-6.949e-05,0
1.6055,-5.9251e-05,0
1.606,-5.4887e-05,0
1.6065,-5.0523e-05,0
1.607,-3.9948e-05,0
1.6075,-2.0142e-05,0
1.608,1.6785e-06,0
1.6085,2.0646e-05,0
1.609,3.4745e-05,0
1.6095,4.9851e-05,0
1.61,6.865e-05,0
1.6105,8.5603e-05,0
1.611,9.3828e-05,0
1.6115,9.0806e-05,0
1.612,8.4093e-05,0
1.6125,8.1575e-05,0
1.613,7.7714e-05,0
1.6135,8.1575e-05,0
1.614,8.9799e-05,0
1.6145,8.04e-05,0
1.615,7.4021e-05,0
1.6155,7.4693e-05,0
1.616,6.7475e-05,0
1.6165,6.244e-05,0
1.617,6.0258e-05,0
1.6175,5.0187e-05,0
1.618,5.0187e-05,0
1.6185,5.3208e-05,0
1.619,4.2466e-05,0
1.6195,2.1317e-05,0
1.62,-4.5319e-06,0
1.6205,-2.8031e-05,0
1.621,-4.5823e-05,0
1.6215,-6.1936e-05,0
1.622,-7.4357e-05,0
1.6225,-8.4932e-05,0
1.623,-9.2485e-05,0
1.6235,-9.1646e-05,0
1.624,-8.3925e-05,0
1.6245,-7.4693e-05,0
1.625,-6.4958e-05,0
1.6255,-5.4048e-05,0
1.626,-5.1194e-05,0
1.6265,-4.3137e-05,0
1.627,-3.1724e-05,0
1.6275,-3.2395e-05,0
1.628,-2.2492e-05,0
1.6285,5.2033e-06,0
1.629,3.0716e-05,0
1.6295,5.8076e-05,0
1.63,7.7714e-05,0
1.6305,8.1743e-05,0
1.631,9.1142e-05,0
1.6315,0.00010491,0
1.632,0.00011095,0
1.6325,0.00010726,0
1.633,0.00010726,0
1.6335,0.00012102,0
1.634,0.00013613,0
1.6345,0.00013848,0
1.635,0.00013478,0
1.6355,0.00013277,0
1.636,0.00012605,0
1.6365,0.00011196,0
1.637,9.6178e-05,0
1.6375,7.9728e-05,0
1.638,6.4118e-05,0
1.6385,4.8173e-05,0
1.639,2.9206e-05,0
1.6395,1.6785e-05,0
1.64,1.326e-05,0
1.6405,3.5248e-06,0
1.641,6.5461e-06,0
1.6415,1.3596e-05,0
1.642,5.0355e-06,0
1.6425,-1.1749e-06,0
1.643,-7.3854e-06,0
1.6435,-2.4338e-05,0
1.644,-2.6688e-05,0
1.6445,-1.7121e-05,0
1.645,-1.1582e-05,0
1.6455,-1.091e-05,0
1.646,-1.3596e-05,0
1.6465,-1.5106e-05,0
1.647,-1.2589e-05,0
1.6475,-8.896e-06,0
1.648,-3.0213e-06,0
1.6485,1.8463e-06,0
1.649,5.2033e-06,0
1.6495,6.2104e-06,0
1.65,3.8605e-06,0
1.6505,6.2104e-06,0
1.651,8.5603e-06,0
1.6515,7.8889e-06,0
1.652,2.182e-06,0
1.6525,4.1962e-06,0
1.653,4.8676e-06,0
1.6535,-1.1246e-05,0
1.654,-1.9806e-05,0
1.6545,-2.0478e-05,0
1.655,-3.592e-05,0
1.6555,-4.6494e-05,0
1.656,-5.1362e-05,0
1.6565,-6.2272e-05,0
1.657,-6.63e-05,0
1.6575,-6.9993e-05,0
1.658,-7.7378e-05,0
1.6585,-7.9393e-05,0
1.659,-7.3182e-05,0
1.6595,-6.5461e-05,0
1.66,-6.2776e-05,0
1.6605,-6.1265e-05,0
1.661,-5.7404e-05,0
1.6615,-5.153e-05,0
1.662,-4.3809e-05,0
1.6625,-3.2898e-05,0
1.663,-2.3331e-05,0
1.6635,-1.091e-05,0
1.664,9.9031e-06,0
1.6645,3.7262e-05,0
1.665,6.1936e-05,0
1.6655,9.0806e-05,0
1.666,0.00011397,0
1.6665,0.00012001,0
1.667,0.00013848,0
1.6675,0.00016567,0
1.668,0.0001848,0
1.6685,0.00021267,0
1.669,0.00023684,0
1.6695,0.00023415,0
1.67,0.0002224,0
1.6705,0.00020494,0
1.671,0.0001801,0
1.6715,0.0001519,0
1.672,0.00012438,0
1.6725,9.9031e-05,0
1.673,8.0232e-05,0
1.6735,6.2104e-05,0
1.674,4.1795e-05,0
1.6745,2.9877e-05,0
1.675,2.7527e-05,0
1.6755,1.9638e-05,0
1.676,9.9031e-06,0
1.6765,3.357e-06,0
1.677,1.1749e-06,0
1.6775,2.8534e-06,0
1.678,-8.896e-06,0
1.6785,-2.4506e-05,0
1.679,-3.6088e-05,0
1.6795,-4.4984e-05,0
1.68,-3.6759e-05,0
1.6805,-3.0381e-05,0
1.681,-3.6423e-05,0
1.6815,-3.1052e-05,0
1.682,-2.0813e-05,0
1.6825,-2.2995e-05,0
1.683,-1.6449e-05,0
1.6835,-4.5319e-06,0
1.684,-2.3499e-06,0
1.6845,-4.0284e-06,0
1.685,-2.0142e-06,0
1.6855,1.0071e-06,0
1.686,1.6785e-06,0
1.6865,3.357e-07,0
1.687,-4.0284e-06,0
1.6875,-1.2253e-05,0
1.688,-2.4338e-05,0
1.6885,-3.4241e-05,0
1.689,-3.592e-05,0
1.6895,-3.4073e-05,0
1.69,-3.4241e-05,0
1.6905,-2.9206e-05,0
1.691,-2.5681e-05,0
1.6915,-2.0981e-05,0
1.692,-1.796e-05,0
1.6925,-1.9638e-05,0
1.693,-3.1891e-06,0
1.6935,1.4603e-05,0
1.694,6.8818e-06,0
1.6945,-6.714e-07,0
1.695,1.8463e-06,0
1.6955,6.3783e-06,0
1.696,2.2324e-05,0
1.6965,3.6423e-05,0
1.697,4.0116e-05,0
1.6975,4.448e-05,0
1.698,5.4215e-05,0
1.6985,6.3783e-05,0
1.699,6.6636e-05,0
1.6995,6.6972e-05,0
1.7,6.6972e-05,0
1.7005,6.3615e-05,0
1.701,5.5726e-05,0
1.7015,4.6662e-05,0
1.702,4.0787e-05,0
1.7025,3.4073e-05,0
1.703,3.122e-05,0
1.7035,3.2731e-05,0
1.704,2.6184e-05,0
1.7045,1.9638e-05,0
1.705,1.2924e-05,0
1.7055,-8.392e-07,0
1.706,-2.5177e-06,0
1.7065,0,0
1.707,-4.1962e-06,0
1.7075,7.0497e-06,0
1.708,2.266e-05,0
1.7085,2.2995e-05,0
1.709,2.5849e-05,0
1.7095,2.887e-05,0
1.71,1.796e-05,0
1.7105,0,0
1.711,-1.1917e-05,0
1.7115,-1.5946e-05,0
1.712,-1.3932e-05,0
1.7125,-1.7624e-05,0
1.713,-2.9877e-05,0
1.7135,-3.3234e-05,0
1.714,-2.6688e-05,0
1.7145,-1.8967e-05,0
1.715,-1.0071e-05,0
1.7155,3.8605e-06,0
1.716,2.7359e-05,0
1.7165,5.7572e-05,0
1.717,8.04e-05,0
1.7175,0.00010323,0
1.718,0.00012035,0
1.7185,0.00011934,0
1.719,0.00012605,0
1.7195,0.00013814,0
1.72,0.00013747,0
1.7205,0.00013881,0
1.721,0.0001373,0
1.7215,0.000118,0
1.722,0.00010272,0
1.7225,9.2149e-05,0
1.723,7.7043e-05,0
1.7235,6.1936e-05,0
1.724,4.918e-05,0
1.7245,3.6088e-05,0
1.725,2.4002e-05,0
1.7255,1.4603e-05,0
1.726,6.8818e-06,0
1.7265,-2.5177e-06,0
1.727,-1.1582e-05,0
1.7275,-1.8799e-05,0
1.728,-2.6352e-05,0
1.7285,-3.1556e-05,0
1.729,-3.1724e-05,0
1.7295,-3.5752e-05,0
1.73,-4.7837e-05,0
1.7305,-5.1362e-05,0
1.731,-4.9683e-05,0
1.7315,-5.2872e-05,0
1.732,-4.5823e-05,0
1.7325,-3.6759e-05,0
1.733,-4.1123e-05,0
1.7335,-4.0619e-05,0
1.734,-3.5416e-05,0
1.7345,-3.9445e-05,0
1.735,-3.8773e-05,0
1.7355,-3.3066e-05,0
1.736,-2.9709e-05,0
1.7365,-2.8534e-05,0
1.737,-2.7024e-05,0
1.7375,-2.3163e-05,0
1.738,-2.3667e-05,0
1.7385,-2.7024e-05,0
1.739,-2.6184e-05,0
1.7395,-2.1988e-05,0
1.74,-9.2317e-06,0
1.7405,9.5674e-06,0
1.741,3.2059e-05,0
1.7415,4.6159e-05,0
1.742,4.5991e-05,0
1.7425,4.6494e-05,0
1.743,5.069e-05,0
1.7435,6.2776e-05,0
1.744,7.1672e-05,0
1.7445,6.1601e-05,0
1.745,5.8579e-05,0
1.7455,6.0929e-05,0
1.746,4.7166e-05,0
1.7465,3.9612e-05,0
1.747,3.743e-05,0
1.7475,2.8031e-05,0
1.748,2.7192e-05,0
1.7485,3.0045e-05,0
1.749,2.5849e-05,0
1.7495,1.5778e-05,0
1.75,5.8747e-06,0
1.7505,-2.5177e-06,0
1.751,-1.3596e-05,0
1.7515,-2.1653e-05,0
1.752,-2.266e-05,0
1.7525,-2.1149e-05,0
1.753,-1.3932e-05,0
1.7535,-3.1891e-06,0
1.754,7.2175e-06,0
1.7545,1.947e-05,0
1.755,2.9206e-05,0
1.7555,4.1962e-05,0
1.756,5.3544e-05,0
1.7565,7.7211e-05,0
1.757,0.00010138,0
1.7575,9.9199e-05,0
1.758,9.5674e-05,0
1.7585,9.8192e-05,0
1.759,8.2078e-05,0
1.7595,5.5894e-05,0
1.76,2.8702e-05,0
1.7605,6.2104e-06,0
1.761,3.8605e-06,0
1.7615,3.8605e-06,0
1.762,-3.0213e-06,0
1.7625,-2.182e-06,0
1.763,6.8818e-06,0
1.7635,9.9031e-06,0
1.764,7.0497e-06,0
1.7645,8.3925e-06,0
1.765,1.4267e-05,0
1.7655,2.1988e-05,0
1.766,2.1988e-05,0
1.7665,1.4099e-05,0
1.767,1.5106e-06,0
1.7675,-6.2104e-06,0
1.768,-5.0355e-06,0
1.7685,-1.5106e-06,0
1.769,-3.8605e-06,0
1.7695,2.5177e-06,0
1.77,1.6617e-05,0
1.7705,1.1917e-05,0
1.771,3.1891e-06,0
1.7715,-2.3499e-06,0
1.772,-1.3092e-05,0
1.7725,-7.5532e-06,0
1.773,1.2421e-05,0
1.7735,2.3331e-05,0
1.774,3.508e-05,0
1.7745,4.2802e-05,0
1.775,4.2466e-05,0
1.7755,4.1123e-05,0
1.776,4.5823e-05,0
1.7765,5.4215e-05,0
1.777,6.0426e-05,0
1.7775,6.009e-05,0
1.778,5.539e-05,0
1.7785,4.9851e-05,0
1.779,3.9277e-05,0
1.7795,2.6688e-05,0
1.78,2.2324e-05,0
1.7805,1.4603e-05,0
1.781,4.6998e-06,0
1.7815,3.5248e-06,0
1.782,-5.035e-07,0
1.7825,-4.0284e-06,0
1.783,-5.539e-06,0
1.7835,-1.3596e-05,0
1.784,-1.1917e-05,0
1.7845,-6.3783e-06,0
1.785,-1.4099e-05,0
1.7855,-1.0407e-05,0
1.786,-6.0426e-06,0
1.7865,-1.0239e-05,0
1.787,7.5532e-06,0
1.7875,3.3066e-05,0
1.788,4.2466e-05,0
1.7885,4.9515e-05,0
1.789,6.4622e-05,0
1.7895,7.9728e-05,0
1.79,9.2989e-05,0
1.7905,0.00010591,0
1.791,0.00011095,0
1.7915,9.9199e-05,0
1.792,7.4021e-05,0
1.7925,5.4215e-05,0
1.793,4.5487e-05,0
1.7935,3.7095e-05,0
1.794,2.1317e-05,0
1.7945,4.3641e-06,0
1.795,-1.8631e-05,0
1.7955,-3.2395e-05,0
1.796,-4.213e-05,0
1.7965,-6.5126e-05,0
1.797,-8.2918e-05,0
1.7975,-9.7017e-05,0
1.798,-0.00011968,0
1.7985,-0.00012421,0
1.799,-0.00011565,0
1.7995,-0.00010843,0
1.8,-8.8289e-05,0
1.8005,-5.4383e-05,0
1.801,-1.7288e-05,0
1.8015,1.5274e-05,0
1.802,4.3305e-05,0
1.8025,6.1936e-05,0
1.803,6.7643e-05,0
1.8035,6.4958e-05,0
1.804,5.623e-05,0
1.8045,4.4984e-05,0
1.805,3.508e-05,0
1.8055,2.6688e-05,0
1.806,2.7024e-05,0
1.8065,3.743e-05,0
1.807,4.918e-05,0
1.8075,5.4215e-05,0
1.808,4.7837e-05,0
1.8085,4.683e-05,0
1.809,5.2872e-05,0
1.8095,4.7501e-05,0
1.81,4.8508e-05,0
1.8105,5.4215e-05,0
1.811,4.3473e-05,0
1.8115,4.0284e-05,0
1.812,3.8437e-05,0
1.8125,1.6281e-05,0
1.813,-1.1749e-06,0
1.8135,-6.0426e-06,0
1.814,-5.539e-06,0
1.8145,-2.182e-06,0
1.815,3.1891e-06,0
1.8155,7.5532e-06,0
1.816,8.0568e-06,0
1.8165,8.2246e-06,0
1.817,1.4435e-05,0
1.8175,2.6688e-05,0
1.818,3.3402e-05,0
1.8185,2.8031e-05,0
1.819,1.1582e-05,0
1.8195,-2.5177e-06,0
1.82,-7.7211e-06,0
1.8205,-5.539e-06,0
1.821,-5.7069e-06,0
1.8215,-5.035e-07,0
1.822,1.3428e-06,0
1.8225,-1.0407e-05,0
1.823,-1.5946e-05,0
1.8235,-1.8296e-05,0
1.824,-2.031e-05,0
1.8245,-8.2246e-06,0
1.825,-4.5319e-06,0
1.8255,-1.326e-05,0
1.826,-9.5674e-06,0
1.8265,-8.392e-07,0
1.827,6.5461e-06,0
1.8275,1.7624e-05,0
1.828,2.7359e-05,0
1.8285,3.1724e-05,0
1.829,3.3402e-05,0
1.8295,3.9612e-05,0
1.83,5.2705e-05,0
1.8305,7.0329e-05,0
1.831,8.4764e-05,0
1.8315,9.0974e-05,0
1.832,9.2821e-05,0
1.8325,9.6178e-05,0
1.833,0.00010625,0
1.8335,0.00011968,0
1.834,0.00012773,0
1.8345,0.0001368,0
1.835,0.00014485,0
1.8355,0.00013462,0
1.836,0.000118,0
1.8365,9.3828e-05,0
1.837,5.2201e-05,0
1.8375,3.3402e-05,0
1.838,3.122e-05,0
1.8385,1.2589e-05,0
1.839,3.357e-07,0
1.8395,-3.6927e-06,0
1.84,-8.0568e-06,0
1.8405,-8.896e-06,0
1.841,-5.8747e-06,0
1.8415,-5.7069e-06,0
1.842,-1.4267e-05,0
1.8425,-2.1653e-05,0
1.843,-2.2492e-05,0
1.8435,-2.2156e-05,0
1.844,-3.2059e-05,0
1.8445,-4.4984e-05,0
1.845,-4.9683e-05,0
1.8455,-4.5151e-05,0
1.846,-3.5248e-05,0
1.8465,-2.4674e-05,0
1.847,-2.1653e-05,0
1.8475,-8.2246e-06,0
1.848,1.1414e-05,0
1.8485,1.4267e-05,0
1.849,1.947e-05,0
1.8495,3.1724e-05,0
1.85,3.4577e-05,0
1.8505,4.448e-05,0
1.851,5.3544e-05,0
1.8515,4.5151e-05,0
1.852,3.6759e-05,0
1.8525,3.1388e-05,0
1.853,2.3331e-05,0
1.8535,1.3764e-05,0
1.854,6.5461e-06,0
1.8545,5.7069e-06,0
1.855,9.5674e-06,0
1.8555,1.2757e-05,0
1.856,1.326e-05,0
1.8565,1.3596e-05,0
1.857,1.4603e-05,0
1.8575,1.4603e-05,0
1.858,7.2175e-06,0
1.8585,-1.678e-07,0
1.859,2.5177e-06,0
1.8595,5.8747e-06,0
1.86,-1.5106e-06,0
1.8605,-3.357e-07,0
1.861,8.392e-07,0
1.8615,-2.0478e-05,0
1.862,-4.0452e-05,0
1.8625,-5.0019e-05,0
1.863,-5.9419e-05,0
1.8635,-5.3544e-05,0
1.864,-4.2802e-05,0
1.8645,-4.6326e-05,0
1.865,-4.1962e-05,0
1.8655,-3.2731e-05,0
1.866,-2.8702e-05,0
1.8665,-2.031e-05,0
1.867,-9.9031e-06,0
1.8675,-3.357e-07,0
1.868,6.8818e-06,0
1.8685,9.9031e-06,0
1.869,1.3764e-05,0
1.8695,2.5681e-05,0
1.87,4.3641e-05,0
1.8705,6.2104e-05,0
1.871,7.5029e-05,0
1.8715,8.7114e-05,0
1.872,0.00010004,0
1.8725,0.00010776,0
1.873,9.9199e-05,0
1.8735,9.1814e-05,0
1.874,8.51e-05,0
1.8745,6.5965e-05,0
1.875,5.7237e-05,0
1.8755,5.5726e-05,0
1.876,4.3809e-05,0
1.8765,3.9445e-05,0
1.877,3.8773e-05,0
1.8775,2.7695e-05,0
1.878,2.1317e-05,0
1.8785,1.5778e-05,0
1.879,1.3428e-05,0
1.8795,1.7792e-05,0
1.88,2.4002e-05,0
1.8805,3.122e-05,0
1.881,3.743e-05,0
1.8815,4.918e-05,0
1.882,6.5461e-05,0
1.8825,7.1672e-05,0
1.883,6.5629e-05,0
1.8835,5.5222e-05,0
1.884,4.1123e-05,0
1.8845,2.4506e-05,0
1.885,1.1078e-05,0
1.8855,4.8676e-06,0
1.886,-1.8463e-06,0
1.8865,-4.5319e-06,0
1.887,-1.3932e-05,0
1.8875,-4.1459e-05,0
1.888,-5.9922e-05,0
1.8885,-6.865e-05,0
1.889,-8.0735e-05,0
1.8895,-8.0064e-05,0
1.89,-7.6036e-05,0
1.8905,-8.1071e-05,0
1.891,-6.9993e-05,0
1.8915,-4.7501e-05,0
1.892,-2.8367e-05,0
1.8925,-1.1582e-05,0
1.893,4.5319e-06,0
1.8935,2.4674e-05,0
1.894,5.3544e-05,0
1.8945,8.5771e-05,0
1.895,0.00011196,0
1.8955,0.00012941,0
1.896,0.00013848,0
1.8965,0.00013613,0
1.897,0.00011699,0
1.8975,9.2317e-05,0
1.898,8.275e-05,0
1.8985,8.6107e-05,0
1.899,8.3421e-05,0
1.8995,7.8721e-05,0
1.9,7.2847e-05,0
1.9005,5.9587e-05,0
1.901,6.1265e-05,0
1.9015,6.8818e-05,0
1.902,5.7404e-05,0
1.9025,5.2369e-05,0
1.903,5.5894e-05,0
1.9035,4.7333e-05,0
1.904,4.5823e-05,0
1.9045,5.3208e-05,0
1.905,5.6901e-05,0
1.9055,6.0761e-05,0
1.906,6.8986e-05,0
1.9065,7.5364e-05,0
1.907,6.9657e-05,0
1.9075,5.2872e-05,0
1.908,3.6591e-05,0
1.9085,2.3163e-05,0
1.909,4.0284e-06,0
1.9095,-1.6281e-05,0
1.91,-3.0549e-05,0
1.9105,-4.6662e-05,0
1.911,-6.3615e-05,0
1.9115,-7.2679e-05,0
1.912,-8.5771e-05,0
1.9125,-9.8192e-05,0
1.913,-0.00010642,0
1.9135,-0.00011565,0
1.914,-0.0001086,0
1.9145,-8.9799e-05,0
1.915,-7.8218e-05,0
1.9155,-6.6636e-05,0
1.916,-5.8076e-05,0
1.9165,-5.388e-05,0
1.917,-3.9109e-05,0
1.9175,-2.1149e-05,0
1.918,-3.5248e-06,0
1.9185,1.796e-05,0
1.919,4.1795e-05,0
1.9195,6.3951e-05,0
1.92,7.6707e-05,0
1.9205,8.275e-05,0
1.921,8.9464e-05,0
1.9215,9.9535e-05,0
1.922,0.00010289,0
1.9225,9.1981e-05,0
1.923,7.6371e-05,0
1.9235,6.2272e-05,0
1.924,4.6326e-05,0
1.9245,3.3738e-05,0
1.925,1.796e-05,0
1.9255,4.5319e-06,0
1.926,-7.5532e-06,0
1.9265,-2.417e-05,0
1.927,-1.6617e-05,0
1.9275,1.4603e-05,0
1.928,3.827e-05,0
1.9285,5.3544e-05,0
1.929,6.1936e-05,0
1.9295,6.0929e-05,0
1.93,6.6972e-05,0
1.9305,7.6875e-05,0
1.931,7.9393e-05,0
1.9315,7.3014e-05,0
1.932,6.2944e-05,0
1.9325,5.0523e-05,0
1.933,3.5752e-05,0
1.9335,2.8702e-05,0
1.934,2.1317e-05,0
1.9345,8.2246e-06,0
1.935,-5.7069e-06,0
1.9355,-1.8631e-05,0
1.936,-2.4506e-05,0
1.9365,-2.1653e-05,0
1.937,-1.7624e-05,0
1.9375,-1.5946e-05,0
1.938,-2.0646e-05,0
1.9385,-1.2085e-05,0
1.939,1.3428e-06,0
1.9395,-7.3854e-06,0
1.94,-1.4099e-05,0
1.9405,-1.0071e-05,0
1.941,-1.0239e-05,0
1.9415,-2.0142e-06,0
1.942,1.1917e-05,0
1.9425,1.6281e-05,0
1.943,2.3667e-05,0
1.9435,3.592e-05,0
1.944,4.3809e-05,0
1.9445,5.0187e-05,0
1.945,6.3951e-05,0
1.9455,8.1575e-05,0
1.946,9.5171e-05,0
1.9465,0.00010306,0
1.947,0.00010289,0
1.9475,0.00010256,0
1.948,9.8863e-05,0
1.9485,8.9128e-05,0
1.949,7.8386e-05,0
1.9495,6.3951e-05,0
1.95,4.7501e-05,0
1.9505,3.978e-05,0
1.951,3.2059e-05,0
1.9515,2.7024e-05,0
1.952,1.6953e-05,0
1.9525,-3.0213e-06,0
1.953,-5.539e-06,0
1.9535,-1.5106e-06,0
1.954,-1.4435e-05,0
1.9545,-2.031e-05,0
1.955,-2.0981e-05,0
1.9555,-2.7024e-05,0
1.956,-2.0646e-05,0
1.9565,-1.3764e-05,0
1.957,-2.1317e-05,0
1.9575,-3.7095e-05,0
1.958,-4.9348e-05,0
1.9585,-4.8676e-05,0
1.959,-4.0284e-05,0
1.9595,-3.743e-05,0
1.96,-4.6326e-05,0
1.9605,-5.7572e-05,0
1.961,-5.9922e-05,0
1.9615,-5.6901e-05,0
1.962,-5.6565e-05,0
1.9625,-6.4286e-05,0
1.963,-7.57e-05,0
1.9635,-7.8218e-05,0
1.964,-7.3518e-05,0
1.9645,-6.0929e-05,0
1.965,-5.304e-05,0
1.9655,-5.6565e-05,0
1.966,-4.3137e-05,0
1.9665,-2.5009e-05,0
1.967,-2.5345e-05,0
1.9675,-2.0646e-05,0
1.968,-1.5946e-05,0
1.9685,-2.031e-05,0
1.969,-3.6927e-06,0
1.9695,2.3667e-05,0
1.97,4.7837e-05,0
1.9705,6.9657e-05,0
1.971,9.0303e-05,0
1.9715,0.00010121,0
1.972,9.6849e-05,0
1.9725,8.275e-05,0
1.973,7.1839e-05,0
1.9735,6.865e-05,0
1.974,6.1433e-05,0
1.9745,4.6998e-05,0
1.975,3.4745e-05,0
1.9755,3.2563e-05,0
1.976,3.743e-05,0
1.9765,4.4144e-05,0
1.977,4.2802e-05,0
1.9775,4.6998e-05,0
1.978,5.2537e-05,0
1.9785,4.1459e-05,0
1.979,4.1123e-05,0
1.9795,5.304e-05,0
1.98,6.3279e-05,0
1.9805,7.8721e-05,0
1.981,9.0471e-05,0
1.9815,9.0806e-05,0
1.982,9.1142e-05,0
1.9825,8.745e-05,0
1.983,8.1407e-05,0
1.9835,8.7785e-05,0
1.984,0.00010121,0
1.9845,0.00011112,0
1.985,0.00012236,0
1.9855,0.00013613,0
1.986,0.00014603,0
1.9865,0.0001368,0
1.987,0.00011229,0
1.9875,8.6275e-05,0
1.988,6.1265e-05,0
1.9885,3.2731e-05,0
1.989,-1.8463e-06,0
1.9895,-3.0213e-05,0
1.99,-5.5222e-05,0
1.9905,-7.0497e-05,0
1.991,-8.5435e-05,0
1.9915,-0.00011363,0
1.992,-0.00012807,0
1.9925,-0.0001373,0
1.993,-0.00015442,0
1.9935,-0.00015795,0
1.994,-0.00015291,0
1.9945,-0.00015241,0
1.995,-0.00013982,0
1.9955,-0.00011901,0
1.996,-9.5674e-05,0
1.9965,-7.4693e-05,0
1.997,-5.8579e-05,0
1.9975,-3.6423e-05,0
1.998,2.182e-06,0
1.9985,4.8005e-05,0
1.999,9.1142e-05,0
1.9995,0.00013411,0
2,0.00016634,0
2.0005,0.00017708,0
2.001,0.00017305,0
2.0015,0.0001655,0
2.002,0.00015912,0
2.0025,0.0001472,0
2.003,0.00012757,0
2.0035,0.00011498,0
2.004,0.00010591,0
2.0045,8.51e-05,0
2.005,7.3014e-05,0
2.0055,6.5293e-05,0
2.006,4.2802e-05,0
2.0065,2.4002e-05,0
2.007,8.5603e-06,0
2.0075,-1.2085e-05,0
2.008,-1.9303e-05,0
2.0085,-1.6449e-05,0
2.009,-1.796e-05,0
2.0095,-2.1149e-05,0
2.01,-2.5177e-05,0
2.0105,-2.9206e-05,0
2.011,-2.7695e-05,0
2.0115,-2.0646e-05,0
2.012,-1.1582e-05,0
2.0125,-4.5319e-06,0
2.013,3.0213e-06,0
2.0135,1.5106e-05,0
2.014,2.6352e-05,0
2.0145,3.5752e-05,0
2.015,4.0787e-05,0
2.0155,3.8773e-05,0
2.016,2.8702e-05,0
2.0165,2.8367e-05,0
2.017,2.5849e-05,0
2.0175,4.5319e-06,0
2.018,-2.182e-06,0
2.0185,-1.0071e-06,0
2.019,-1.2253e-05,0
2.0195,-1.3764e-05,0
2.02,-1.1917e-05,0
2.0205,-1.6617e-05,0
2.021,-1.561e-05,0
2.0215,-1.3092e-05,0
2.022,-2.1988e-05,0
2.0225,-3.9109e-05,0
2.023,-5.0355e-05,0
2.0235,-5.2201e-05,0
2.024,-5.2033e-05,0
2.0245,-4.7333e-05,0
2.025,-3.3906e-05,0
2.0255,-1.6617e-05,0
2.026,-1.8463e-06,0
2.0265,1.0575e-05,0
2.027,1.5442e-05,0
2.0275,1.4939e-05,0
2.028,1.3932e-05,0
2.0285,2.1149e-05,0
2.029,3.2731e-05,0
2.0295,4.448e-05,0
2.03,4.7166e-05,0
2.0305,3.3402e-05,0
2.031,3.2731e-05,0
2.0315,4.2466e-05,0
2.032,4.2466e-05,0
2.0325,4.7669e-05,0
2.033,5.5894e-05,0
2.0335,6.1265e-05,0
2.034,8.1575e-05,0
2.0345,9.9031e-05,0
2.035,9.2485e-05,0
2.0355,7.6036e-05,0
2.036,6.1097e-05,0
2.0365,5.6901e-05,0
2.037,6.5126e-05,0
2.0375,7.0497e-05,0
2.038,5.5558e-05,0
2.0385,3.0045e-05,0
2.039,1.4603e-05,0
2.0395,8.5603e-06,0
2.04,-8.392e-07,0
2.0405,-1.5274e-05,0
2.041,-2.9709e-05,0
2.0415,-4.683e-05,0
2.042,-7.1504e-05,0
2.0425,-8.8457e-05,0
2.043,-9.6345e-05,0
2.0435,-0.0001039,0
2.044,-8.8792e-05,0
2.0445,-6.0426e-05,0
2.045,-4.213e-05,0
2.0455,-1.4939e-05,0
2.046,2.5177e-05,0
2.0465,6.0258e-05,0
2.047,0.00010407,0
2.0475,0.00014452,0
2.048,0.00016735,0
2.0485,0.00017809,0
2.049,0.00018497,0
2.0495,0.00019588,0
2.05,0.00020394,0
2.0505,0.00019655,0
2.051,0.00017574,0
2.0515,0.00014922,0
2.052,0.00012673,0
2.0525,0.0001133,0
2.053,9.836e-05,0
2.0535,7.1672e-05,0
2.054,3.978e-05,0
2.0545,1.3092e-05,0
2.055,-1.0407e-05,0
2.0555,-1.9974e-05,0
2.056,-2.8367e-05,0
2.0565,-4.7669e-05,0
2.057,-5.0523e-05,0
2.0575,-4.6326e-05,0
2.058,-4.4816e-05,0
2.0585,-2.9038e-05,0
2.059,-5.539e-06,0
2.0595,4.6998e-06,0
2.06,1.5442e-05,0
2.0605,2.2828e-05,0
2.061,1.6617e-05,0
2.0615,9.9031e-06,0
2.062,8.2246e-06,0
2.0625,4.1962e-06,0
2.063,-5.0355e-06,0
2.0635,-1.3596e-05,0
2.064,-1.2085e-05,0
2.0645,-1.0575e-05,0
2.065,-1.6785e-05,0
2.0655,-2.4338e-05,0
2.066,-2.7695e-05,0
2.0665,-2.5009e-05,0
2.067,-2.031e-05,0
2.0675,-1.2924e-05,0
2.068,-2.031e-05,0
2.0685,-4.5823e-05,0
2.069,-7.6036e-05,0
2.0695,-0.00010155,0
2.07,-0.00010323,0
2.0705,-9.3324e-05,0
2.071,-9.1478e-05,0
2.0715,-8.3421e-05,0
2.072,-6.7643e-05,0
2.0725,-5.5222e-05,0
2.073,-3.2395e-05,0
2.0735,2.182e-06,0
2.074,3.6423e-05,0
2.0745,7.2679e-05,0
2.075,0.00011313,0
2.0755,0.00015157,0
2.076,0.00017977,0
2.0765,0.00019286,0
2.077,0.00019236,0
2.0775,0.0001744,0
2.078,0.00014469,0
2.0785,0.00010994,0
2.079,7.956e-05,0
2.0795,5.2872e-05,0
2.08,2.8702e-05,0
2.0805,9.0639e-06,0
2.081,-1.0575e-05,0
2.0815,-1.8967e-05,0
2.082,-2.4338e-05,0
2.0825,-3.7766e-05,0
2.083,-3.1556e-05,0
2.0835,-1.6617e-05,0
2.084,-2.266e-05,0
2.0845,-2.2492e-05,0
2.085,-1.2757e-05,0
2.0855,-1.5946e-05,0
2.086,-1.6953e-05,0
2.0865,-2.3499e-06,0
2.087,1.4267e-05,0
2.0875,1.2757e-05,0
2.088,-5.035e-07,0
2.0885,-8.3925e-06,0
2.089,-9.9031e-06,0
2.0895,-1.1246e-05,0
2.09,-5.2033e-06,0
2.0905,1.1414e-05,0
2.091,3.122e-05,0
2.0915,3.8102e-05,0
2.092,3.3906e-05,0
2.0925,3.2395e-05,0
2.093,3.8773e-05,0
2.0935,5.6565e-05,0
2.094,6.9657e-05,0
2.0945,8.8457e-05,0
2.095,0.00010558,0
2.0955,9.9031e-05,0
2.096,9.6513e-05,0
2.0965,0.00011263,0
2.097,0.00012421,0
2.0975,0.00013512,0
2.098,0.00013948,0
2.0985,0.00012136,0
2.099,0.00010222,0
2.0995,8.5771e-05,0
2.1,6.6804e-05,0
2.1005,4.4144e-05,0
2.101,1.4435e-05,0
2.1015,-1.6449e-05,0
2.102,-4.213e-05,0
2.1025,-6.63e-05,0
2.103,-8.3757e-05,0
2.1035,-8.9296e-05,0
2.104,-9.1142e-05,0
2.1045,-9.6849e-05,0
2.105,-0.00010759,0
2.1055,-0.00011598,0
2.106,-0.00011582,0
2.1065,-0.00010843,0
2.107,-0.00011128,0
2.1075,-0.00011984,0
2.108,-0.00012656,0
2.1085,-0.00013327,0
2.109,-0.00011934,0
2.1095,-8.8792e-05,0
2.11,-7.7714e-05,0
2.1105,-7.2847e-05,0
2.111,-6.3279e-05,0
2.1115,-5.3544e-05,0
2.112,-3.592e-05,0
2.1125,-1.8967e-05,0
2.113,-1.2253e-05,0
2.1135,-3.357e-06,0
2.114,1.5106e-05,0
2.1145,3.9948e-05,0
2.115,6.4958e-05,0
2.1155,8.6275e-05,0
2.116,0.00010692,0
2.1165,0.00012203,0
2.117,0.00011884,0
2.1175,0.00011196,0
2.118,0.00011229,0
2.1185,0.00011699,0
2.119,0.00012068,0
2.1195,0.00012068,0
2.12,0.0001138,0
2.1205,0.00011498,0
2.121,0.00011733,0
2.1215,0.00010256,0
2.122,9.2149e-05,0
2.1225,8.7114e-05,0
2.123,7.4021e-05,0
2.1235,7.1168e-05,0
2.124,7.0832e-05,0
2.1245,5.6565e-05,0
2.125,4.7501e-05,0
2.1255,5.2369e-05,0
2.126,6.4622e-05,0
2.1265,7.7546e-05,0
2.127,8.6442e-05,0
2.1275,9.4499e-05,0
2.128,9.8863e-05,0
2.1285,8.8624e-05,0
2.129,5.4048e-05,0
2.1295,3.1891e-06,0
2.13,-3.7262e-05,0
2.1305,-5.2705e-05,0
2.131,-5.623e-05,0
2.1315,-6.3447e-05,0
2.132,-8.1239e-05,0
2.1325,-0.00010356,0
2.133,-0.00012471,0
2.1335,-0.00012287,0
2.134,-0.00011431,0
2.1345,-0.00012505,0
2.135,-0.00012236,0
2.1355,-0.00010088,0
2.136,-7.4189e-05,0
2.1365,-3.4073e-05,0
2.137,-1.8463e-06,0
2.1375,1.4939e-05,0
2.138,4.1459e-05,0
2.1385,6.1936e-05,0
2.139,5.7908e-05,0
2.1395,4.3809e-05,0
2.14,4.6159e-05,0
2.1405,7.57e-05,0
2.141,0.00012119,0
2.1415,0.00016164,0
2.142,0.00018698,0
2.1425,0.00021317,0
2.143,0.00024741,0
2.1435,0.00026403,0
2.144,0.0002506,0
2.1445,0.00021971,0
2.145,0.00018447,0
2.1455,0.00014955,0
2.146,0.00010591,0
2.1465,7.0497e-05,0
2.147,4.7837e-05,0
2.1475,2.2828e-05,0
2.148,1.8967e-05,0
2.1485,3.1724e-05,0
2.149,3.1891e-05,0
2.1495,3.5416e-05,0
2.15,3.743e-05,0
2.1505,1.5274e-05,0
2.151,-1.8296e-05,0
2.1515,-5.0523e-05,0
2.152,-7.5364e-05,0
2.1525,-9.6513e-05,0
2.153,-0.00010977,0
2.1535,-0.00010893,0
2.154,-9.9535e-05,0
2.1545,-8.9128e-05,0
2.155,-8.2078e-05,0
2.1555,-7.6875e-05,0
2.156,-6.865e-05,0
2.1565,-6.5293e-05,0
2.157,-6.8818e-05,0
2.1575,-6.8315e-05,0
2.158,-7.3854e-05,0
2.1585,-9.3996e-05,0
2.159,-0.00011699,0
2.1595,-0.00012673,0
2.16,-0.00013948,0
2.1605,-0.00016181,0
2.161,-0.00016432,0
2.1615,-0.00014636,0
2.162,-0.00011934,0
2.1625,-7.7714e-05,0
2.163,-3.3738e-05,0
2.1635,1.0071e-06,0
2.164,3.0045e-05,0
2.1645,6.009e-05,0
2.165,9.0303e-05,0
2.1655,0.0001133,0
2.166,0.00012505,0
2.1665,0.00013948,0
2.167,0.00015962,0
2.1675,0.00018648,0
2.168,0.00021602,0
2.1685,0.00022777,0
2.169,0.000213,0
2.1695,0.00018614,0
2.17,0.00017104,0
2.1705,0.00016986,0
2.171,0.000166,0
2.1715,0.00014334,0
2.172,0.00010121,0
2.1725,7.1336e-05,0
2.173,5.6901e-05,0
2.1735,3.6759e-05,0
2.174,2.2324e-05,0
2.1745,1.2924e-05,0
2.175,1.1749e-06,0
2.1755,-4.1962e-06,0
2.176,-1.7121e-05,0
2.1765,-3.3234e-05,0
2.177,-1.7792e-05,0
2.1775,1.2589e-05,0
2.178,3.743e-05,0
2.1785,5.8915e-05,0
2.179,7.5029e-05,0
2.1795,8.745e-05,0
2.18,0.00010625,0
2.1805,0.00011598,0
2.181,9.7185e-05,0
2.1815,5.5558e-05,0
2.182,1.1917e-05,0
2.1825,-2.0142e-05,0
2.183,-4.2298e-05,0
2.1835,-6.0258e-05,0
2.184,-7.2679e-05,0
2.1845,-7.2343e-05,0
2.185,-6.6636e-05,0
2.1855,-5.1194e-05,0
2.186,-4.0452e-05,0
2.1865,-4.3137e-05,0
2.187,-3.4745e-05,0
2.1875,-1.6281e-05,0
2.188,-1.6617e-05,0
2.1885,-1.8967e-05,0
2.189,-2.9374e-05,0
2.1895,-4.9348e-05,0
2.19,-4.6326e-05,0
2.1905,-3.743e-05,0
2.191,-5.1865e-05,0
2.1915,-7.6707e-05,0
2.192,-8.4093e-05,0
2.1925,-8.4093e-05,0
2.193,-9.1142e-05,0
2.1935,-0.00010524,0
2.194,-0.00011934,0
2.1945,-0.00013277,0
2.195,-0.00013881,0
2.1955,-0.00013629,0
2.196,-0.0001284,0
2.1965,-0.00011649,0
2.197,-9.5171e-05,0
2.1975,-6.009e-05,0
2.198,-3.2059e-05,0
2.1985,-5.2033e-06,0
2.199,2.2492e-05,0
2.1995,4.2802e-05,0
2.2,7.0664e-05,0
2.2005,9.0806e-05,0
2.201,7.9728e-05,0
2.2015,6.949e-05,0
2.202,7.57e-05,0
2.2025,8.8289e-05,0
2.203,0.00010373,0
2.2035,0.00010256,0
2.204,8.745e-05,0
2.2045,8.6778e-05,0
2.205,0.00010726,0
2.2055,0.00013747,0
2.206,0.00016567,0
2.2065,0.00018849,0
2.207,0.00021736,0
2.2075,0.00025328,0
2.208,0.00027309,0
2.2085,0.00025765,0
2.209,0.00022374,0
2.2095,0.00018933,0
2.21,0.00015392,0
2.2105,0.00011263,0
2.211,6.3111e-05,0
2.2115,2.2324e-05,0
2.212,-9.2317e-06,0
2.2125,-4.1962e-05,0
2.213,-5.1194e-05,0
2.2135,-4.6326e-05,0
2.214,-6.1601e-05,0
2.2145,-8.9967e-05,0
2.215,-0.00011615,0
2.2155,-0.00014687,0
2.216,-0.00016533,0
2.2165,-0.00017423,0
2.217,-0.00020864,0
2.2175,-0.00027041,0
2.218,-0.00032277,0
2.2185,-0.00035534,0
2.219,-0.00036893,0
2.2195,-0.00036222,0
2.22,-0.00033436,0
2.2205,-0.00029256,0
2.221,-0.0002464,0
2.2215,-0.00020075,0
2.222,-0.00014351,0
2.2225,-6.0929e-05,0
2.223,4.1459e-05,0
2.2235,0.00015795,0
2.224,0.00026201,0
2.2245,0.0003456,0
2.225,0.00040737,0
2.2255,0.00045638,0
2.226,0.00051412,0
2.2265,0.0005581,0
2.227,0.00055608,0
2.2275,0.00051546,0
2.228,0.00046142,0
2.2285,0.00041241,0
2.229,0.0003785,0
2.2295,0.00034224,0
2.23,0.00029525,0
2.2305,0.00025228,0
2.231,0.00022089,0
2.2315,0.00018766,0
2.232,0.00014083,0
2.2325,8.4764e-05,0
2.233,4.4144e-05,0
2.2335,2.0478e-05,0
2.234,1.6785e-06,0
2.2345,-1.796e-05,0
2.235,-3.3738e-05,0
2.2355,-4.1123e-05,0
2.236,-4.2466e-05,0
2.2365,-4.448e-05,0
2.237,-5.9754e-05,0
2.2375,-8.6442e-05,0
2.238,-0.00011716,0
2.2385,-0.00013545,0
2.239,-0.00011917,0
2.2395,-0.00010054,0
2.24,-0.00011917,0
2.2405,-0.00014351,0
2.241,-0.00015644,0
2.2415,-0.00016315,0
2.242,-0.00015795,0
2.2425,-0.00015845,0
2.243,-0.00016768,0
2.2435,-0.00016248,0
2.244,-0.00013579,0
2.2445,-0.00010239,0
2.245,-7.57e-05,0
2.2455,-5.2872e-05,0
2.246,-2.5345e-05,0
2.2465,-1.3596e-05,0
2.247,-3.1724e-05,0
2.2475,-6.1936e-05,0
2.248,-8.1743e-05,0
2.2485,-8.8792e-05,0
2.249,-9.8192e-05,0
2.2495,-0.00011716,0
2.25,-0.0001326,0
2.2505,-0.00012001,0
2.251,-9.6513e-05,0
2.2515,-9.4667e-05,0
2.252,-9.3828e-05,0
2.2525,-8.1407e-05,0
2.253,-6.9322e-05,0
2.2535,-5.2872e-05,0
2.254,-3.8437e-05,0
2.2545,-3.2395e-05,0
2.255,-1.091e-05,0
2.2555,2.3163e-05,0
2.256,5.6733e-05,0
2.2565,8.7114e-05,0
2.257,0.00010021,0
2.2575,9.5003e-05,0
2.258,9.0471e-05,0
2.2585,9.3828e-05,0
2.259,0.00010054,0
2.2595,0.00010407,0
2.26,0.00010088,0
2.2605,9.5674e-05,0
2.261,7.6204e-05,0
2.2615,4.1459e-05,0
2.262,1.9974e-05,0
2.2625,1.0575e-05,0
2.263,-1.5778e-05,0
2.2635,-4.5319e-05,0
2.264,-7.5364e-05,0
2.2645,-0.00011464,0
2.265,-0.00012992,0
2.2655,-0.00011296,0
2.266,-8.275e-05,0
2.2665,-3.2395e-05,0
2.267,2.3331e-05,0
2.2675,7.1336e-05,0
2.268,0.00012471,0
2.2685,0.00017876,0
2.269,0.00022257,0
2.2695,0.0002459,0
2.27,0.00025345,0
2.2705,0.00026571,0
2.271,0.00028249,0
2.2715,0.00028618,0
2.272,0.00027175,0
2.2725,0.00025345,0
2.273,0.00023449,0
2.2735,0.00021804,0
2.274,0.00020192,0
2.2745,0.00018027,0
2.275,0.0001608,0
2.2755,0.00014049,0
2.276,0.00010558,0
2.2765,7.5029e-05,0
2.277,5.2201e-05,0
2.2775,2.4338e-05,0
2.278,9.3996e-06,0
2.2785,-1.0071e-06,0
2.279,-2.7695e-05,0
2.2795,-6.1265e-05,0
2.28,-0.00010222,0
2.2805,-0.00015979,0
2.281,-0.00020679,0
2.2815,-0.00024053,0
2.282,-0.00027259,0
2.2825,-0.00029743,0
2.283,-0.00031321,0
2.2835,-0.00033033,0
2.284,-0.0003456,0
2.2845,-0.00034862,0
2.285,-0.00033788,0
2.2855,-0.00030767,0
2.286,-0.00025798,0
2.2865,-0.000189,0
2.287,-0.00010054,0
2.2875,0,0
2.288,9.3156e-05,0
2.2885,0.00016365,0
2.289,0.00020394,0
2.2895,0.00023449,0
2.29,0.00025362,0
2.2905,0.00025194,0
2.291,0.00026503,0
2.2915,0.00030431,0
2.292,0.00034829,0
2.2925,0.00039461,0
2.293,0.00042315,0
2.2935,0.00041173,0
2.294,0.00037145,0
2.2945,0.00031136,0
2.295,0.00024657,0
2.2955,0.00018782,0
2.296,0.00013143,0
2.2965,7.7378e-05,0
2.297,3.1724e-05,0
2.2975,-1.0071e-06,0
2.298,-3.1724e-05,0
2.2985,-6.0258e-05,0
2.299,-8.6442e-05,0
2.2995,-0.0001185,0
2.3,-0.00016265,0
2.3005,-0.0002031,0
2.301,-0.00022576,0
2.3015,-0.00023381,0
2.302,-0.00024221,0
2.3025,-0.00024489,0
2.303,-0.00024976,0
2.3035,-0.00027343,0
2.304,-0.00027225,0
2.3045,-0.00023247,0
2.305,-0.00019303,0
2.3055,-0.00016802,0
2.306,-0.00015795,0
2.3065,-0.00014385,0
2.307,-9.2653e-05,0
2.3075,-2.3667e-05,0
2.308,2.5009e-05,0
2.3085,5.623e-05,0
2.309,9.0471e-05,0
2.3095,0.00013512,0
2.31,0.00018044,0
2.3105,0.00021166,0
2.311,0.00021468,0
2.3115,0.00019823,0
2.312,0.000189,0
2.3125,0.00020578,0
2.313,0.00023281,0
2.3135,0.0002407,0
2.314,0.00022844,0
2.3145,0.00022307,0
2.315,0.00022811,0
2.3155,0.00023616,0
2.316,0.0002412,0
2.3165,0.0002276,0
2.317,0.00021132,0
2.3175,0.00019454,0
2.318,0.00015727,0
2.3185,0.00011833,0
2.319,8.4764e-05,0
2.3195,4.9851e-05,0
2.32,2.9206e-05,0
2.3205,1.5274e-05,0
2.321,5.035e-07,0
2.3215,-1.1749e-05,0
2.322,-2.6184e-05,0
2.3225,-3.6591e-05,0
2.323,-4.213e-05,0
2.3235,-4.9851e-05,0
2.324,-6.4454e-05,0
2.3245,-7.7378e-05,0
2.325,-8.9632e-05,0
2.3255,-0.00011464,0
2.326,-0.00014385,0
2.3265,-0.0001707,0
2.327,-0.00020394,0
2.3275,-0.00023012,0
2.328,-0.0002506,0
2.3285,-0.00027477,0
2.329,-0.00031237,0
2.3295,-0.00035248,0
2.33,-0.00035819,0
2.3305,-0.00034023,0
2.331,-0.00032277,0
2.3315,-0.00029357,0
2.332,-0.00025278,0
2.3325,-0.0002083,0
2.333,-0.00014754,0
2.3335,-7.4693e-05,0
2.334,-2.6856e-06,0
2.3345,6.2272e-05,0
2.335,0.00011766,0
2.3355,0.00017037,0
2.336,0.00022945,0
2.3365,0.00028383,0
2.337,0.0003315,0
2.3375,0.00037632,0
2.338,0.00041173,0
2.3385,0.0004161,0
2.339,0.00039159,0
2.3395,0.00035634,0
2.34,0.00032244,0
2.3405,0.00029592,0
2.341,0.00026503,0
2.3415,0.00024204,0
2.342,0.00021636,0
2.3425,0.00016986,0
2.343,0.00013596,0
2.3435,0.00011498,0
2.344,8.3421e-05,0
2.3445,5.5222e-05,0
2.345,2.8031e-05,0
2.3455,-8.392e-07,0
2.346,-9.9031e-06,0
2.3465,-1.091e-05,0
2.347,-2.0646e-05,0
2.3475,-3.2898e-05,0
2.348,-4.0619e-05,0
2.3485,-4.9348e-05,0
2.349,-6.3279e-05,0
2.3495,-8.3421e-05,0
2.35,-0.00010037,0
2.3505,-0.00010692,0
2.351,-0.00010893,0
2.3515,-0.00010994,0
2.352,-0.00011833,0
2.3525,-0.00013596,0
2.353,-0.00014905,0
2.3535,-0.00014821,0
2.354,-0.00014788,0
2.3545,-0.00014771,0
2.355,-0.0001462,0
2.3555,-0.00015106,0
2.356,-0.00014301,0
2.3565,-0.00012438,0
2.357,-0.00011162,0
2.3575,-9.5674e-05,0
2.358,-7.805e-05,0
2.3585,-6.2608e-05,0
2.359,-3.5752e-05,0
2.3595,-1.0575e-05,0
2.36,2.182e-06,0
2.3605,1.5106e-05,0
2.361,4.0452e-05,0
2.3615,7.6204e-05,0
2.362,9.9031e-05,0
2.3625,9.2989e-05,0
2.363,6.9657e-05,0
2.3635,4.6326e-05,0
2.364,3.122e-05,0
2.3645,1.3764e-05,0
2.365,-1.091e-05,0
2.3655,-3.743e-05,0
2.366,-5.3544e-05,0
2.3665,-4.6326e-05,0
2.367,-2.7695e-05,0
2.3675,-2.0142e-06,0
2.368,2.4002e-05,0
2.3685,3.7095e-05,0
2.369,6.0929e-05,0
2.3695,9.5003e-05,0
2.37,0.00011263,0
2.3705,0.00012706,0
2.371,0.00013126,0
2.3715,0.00011901,0
2.372,0.000118,0
2.3725,0.00013075,0
2.373,0.00014099,0
2.3735,0.00014166,0
2.374,0.00014687,0
2.3745,0.00016735,0
2.375,0.00019236,0
2.3755,0.00019857,0
2.376,0.0001801,0
2.3765,0.0001556,0
2.377,0.00014015,0
2.3775,0.00013143,0
2.378,0.00012605,0
2.3785,0.00012001,0
2.379,0.00011867,0
2.3795,0.00012471,0
2.38,0.00012572,0
2.3805,0.00012605,0
2.381,0.00011531,0
2.3815,8.2246e-05,0
2.382,7.3014e-05,0
2.3825,8.9464e-05,0
2.383,7.7378e-05,0
2.3835,3.4073e-05,0
2.384,-1.5274e-05,0
2.3845,-5.0187e-05,0
2.385,-4.7166e-05,0
2.3855,-2.6352e-05,0
2.386,-1.0575e-05,0
2.3865,-4.3641e-06,0
2.387,-4.5319e-06,0
2.3875,-3.357e-07,0
2.388,1.7288e-05,0
2.3885,3.743e-05,0
2.389,3.2563e-05,0
2.3895,5.8747e-06,0
2.39,-1.8967e-05,0
2.3905,-4.213e-05,0
2.391,-7.3014e-05,0
2.3915,-0.0001044,0
2.392,-0.00012001,0
2.3925,-0.00012085,0
2.393,-0.00012404,0
2.3935,-0.00011229,0
2.394,-8.0064e-05,0
2.3945,-3.743e-05,0
2.395,1.5946e-05,0
2.3955,5.153e-05,0
2.396,5.8915e-05,0
2.3965,8.2414e-05,0
2.397,0.00012673,0
2.3975,0.00015761,0
2.398,0.0001707,0
2.3985,0.00017154,0
2.399,0.00016164,0
2.3995,0.00013462,0
2.4,9.8192e-05,0
2.4005,7.1336e-05,0
2.401,4.4648e-05,0
2.4015,1.0071e-06,0
2.402,-4.8676e-05,0
2.4025,-8.5603e-05,0
2.403,-0.00010709,0
2.4035,-0.0001232,0
2.404,-0.0001321,0
2.4045,-0.00013025,0
2.405,-0.00012807,0
2.4055,-0.00013545,0
2.406,-0.0001655,0
2.4065,-0.00019504,0
2.407,-0.00020713,0
2.4075,-0.00021636,0
2.408,-0.00021233,0
2.4085,-0.00021048,0
2.409,-0.00022106,0
2.4095,-0.0002276,0
2.41,-0.00022744,0
2.4105,-0.00021099,0
2.411,-0.00014922,0
2.4115,-6.4286e-05,0
2.412,4.1962e-06,0
2.4125,4.4648e-05,0
2.413,8.0903e-05,0
2.4135,0.0001321,0
2.414,0.00018749,0
2.4145,0.00022995,0
2.415,0.00028367,0
2.4155,0.00034594,0
2.416,0.00038857,0
2.4165,0.00040703,0
2.417,0.00040435,0
2.4175,0.00037699,0
2.418,0.00033603,0
2.4185,0.00029424,0
2.419,0.00025597,0
2.4195,0.00023818,0
2.42,0.00022072,0
2.4205,0.00018044,0
2.421,0.00014049,0
2.4215,9.7688e-05,0
2.422,3.5752e-05,0
2.4225,-1.9638e-05,0
2.423,-6.2608e-05,0
2.4235,-0.00010289,0
2.424,-0.00013025,0
2.4245,-0.0001519,0
2.425,-0.00016802,0
2.4255,-0.00015694,0
2.426,-0.00011044,0
2.4265,-5.3544e-05,0
2.427,-1.4939e-05,0
2.4275,-6.714e-07,0
2.428,-9.5674e-06,0
2.4285,-3.6423e-05,0
2.429,-5.5222e-05,0
2.4295,-6.5965e-05,0
2.43,-8.6275e-05,0
2.4305,-0.00010793,0
2.431,-0.00012404,0
2.4315,-0.00014267,0
2.432,-0.00015828,0
2.4325,-0.00014301,0
2.433,-0.00010944,0
2.4335,-7.5364e-05,0
2.434,-2.2324e-05,0
2.4345,3.5248e-05,0
2.435,7.4189e-05,0
2.4355,0.000118,0
2.436,0.00016214,0
2.4365,0.00019538,0
2.437,0.00023247,0
2.4375,0.00025597,0
2.438,0.00024909,0
2.4385,0.00022811,0
2.439,0.00020729,0
2.4395,0.00018228,0
2.44,0.00014418,0
2.4405,9.5171e-05,0
2.441,4.3137e-05,0
2.4415,-5.035e-07,0
2.442,-2.9038e-05,0
2.4425,-5.539e-05,0
2.443,-8.9799e-05,0
2.4435,-0.00011666,0
2.444,-0.00013713,0
2.4445,-0.00018346,0
2.445,-0.00024791,0
2.4455,-0.00027947,0
2.446,-0.00028484,0
2.4465,-0.00029911,0
2.447,-0.00030632,0
2.4475,-0.00030364,0
2.448,-0.00029323,0
2.4485,-0.00024691,0
2.449,-0.00017137,0
2.4495,-9.6513e-05,0
2.45,-3.0045e-05,0
2.4505,3.0884e-05,0
2.451,9.1814e-05,0
2.4515,0.00015509,0
2.452,0.00019252,0
2.4525,0.00018883,0
2.453,0.00015795,0
2.4535,0.0001274,0
2.454,0.00011229,0
2.4545,0.0001133,0
2.455,0.00012035,0
2.4555,0.00012673,0
2.456,0.00011733,0
2.4565,9.2485e-05,0
2.457,7.2343e-05,0
2.4575,6.4286e-05,0
2.458,5.4048e-05,0
2.4585,4.8844e-05,0
2.459,4.9348e-05,0
2.4595,3.7934e-05,0
2.46,3.3738e-05,0
2.4605,3.4073e-05,0
2.461,3.4073e-05,0
2.4615,5.8915e-05,0
2.462,8.9128e-05,0
2.4625,9.7856e-05,0
2.463,9.5506e-05,0
2.4635,8.1407e-05,0
2.464,5.7404e-05,0
2.4645,3.1388e-05,0
2.465,-8.5603e-06,0
2.4655,-6.244e-05,0
2.466,-0.00010658,0
2.4665,-0.00012505,0
2.467,-0.00012824,0
2.4675,-0.00013008,0
2.468,-0.00013059,0
2.4685,-0.00011917,0
2.469,-8.9128e-05,0
2.4695,-4.8173e-05,0
2.47,-6.3783e-06,0
2.4705,2.3835e-05,0
2.471,3.5752e-05,0
2.4715,4.2634e-05,0
2.472,4.6159e-05,0
2.4725,4.5319e-05,0
2.473,5.6565e-05,0
2.4735,5.6565e-05,0
2.474,1.8296e-05,0
2.4745,-3.5752e-05,0
2.475,-6.9993e-05,0
2.4755,-6.5293e-05,0
2.476,-2.1988e-05,0
2.4765,5.0355e-06,0
2.477,-1.2757e-05,0
2.4775,-3.8102e-05,0
2.478,-4.1459e-05,0
2.4785,-2.4338e-05,0
2.479,-3.8605e-06,0
2.4795,1.2085e-05,0
2.48,3.7262e-05,0
2.4805,8.5771e-05,0
2.481,0.00013915,0
2.4815,0.0001744,0
2.482,0.00020914,0
2.4825,0.00025597,0
2.483,0.0002939,0
2.4835,0.00030028,0
2.484,0.00027628,0
2.4845,0.00026503,0
2.485,0.0002845,0
2.4855,0.00030398,0
2.486,0.00030733,0
2.4865,0.00028988,0
2.487,0.00025026,0
2.4875,0.00020981,0
2.488,0.00016483,0
2.4885,0.000118,0
2.489,8.0903e-05,0
2.4895,3.2059e-05,0
2.49,-4.3641e-05,0
2.4905,-0.00012656,0
2.491,-0.00018782,0
2.4915,-0.00021837,0
2.492,-0.00023465,0
2.4925,-0.00024237,0
2.493,-0.00023684,0
2.4935,-0.00022055,0
2.494,-0.00019722,0
2.4945,-0.00016332,0
2.495,-0.00011867,0
2.4955,-6.1097e-05,0
2.496,-2.8534e-06,0
2.4965,4.0619e-05,0
2.497,6.8315e-05,0
2.4975,9.3156e-05,0
2.498,0.0001133,0
2.4985,0.00012438,0
2.499,0.00013915,0
2.4995,0.00014116,0
2.5,0.00012337,0
2.5005,9.8863e-05,0
2.501,4.3977e-05,0
2.5015,-5.2872e-05,0
2.502,-0.00013646,0
2.5025,-0.00018598,0
2.503,-0.00022391,0
2.5035,-0.00025194,0
2.504,-0.00026319,0
2.5045,-0.0002553,0
2.505,-0.00022844,0
2.5055,-0.00018178,0
2.506,-0.00011313,0
2.5065,-2.4002e-05,0
2.507,7.4693e-05,0
2.5075,0.00015526,0
2.508,0.00021888,0
2.5085,0.00027376,0
2.509,0.00028988,0
2.5095,0.00027359,0
2.51,0.00025026,0
2.5105,0.00022391,0
2.511,0.00018547,0
2.5115,0.00012337,0
2.512,6.2272e-05,0
2.5125,2.5345e-05,0
2.513,-1.5106e-06,0
2.5135,-9.9031e-06,0
2.514,-3.6927e-06,0
2.5145,5.035e-07,0
2.515,8.2246e-06,0
2.5155,1.8631e-05,0
2.516,2.5009e-05,0
2.5165,1.9638e-05,0
2.517,9.9031e-06,0
2.5175,1.1246e-05,0
2.518,2.0813e-05,0
2.5185,2.4002e-05,0
2.519,1.4267e-05,0
2.5195,-2.182e-06,0
2.52,-1.5106e-05,0
2.5205,-1.9974e-05,0
2.521,-1.9638e-05,0
2.5215,-1.9806e-05,0
2.522,-1.796e-05,0
2.5225,-1.8631e-05,0
2.523,-2.9038e-05,0
2.5235,-3.1724e-05,0
2.524,-2.3667e-05,0
2.5245,-2.266e-05,0
2.525,-1.7121e-05,0
2.5255,-4.6998e-06,0
2.526,1.2253e-05,0
2.5265,5.2872e-05,0
2.527,0.00010155,0
2.5275,0.00013848,0
2.528,0.0001613,0
2.5285,0.00016365,0
2.529,0.00015291,0
2.5295,0.00013713,0
2.53,0.00012404,0
2.5305,0.00011766,0
2.531,0.00010658,0
2.5315,8.661e-05,0
2.532,5.7572e-05,0
2.5325,2.417e-05,0
2.533,-2.0813e-05,0
2.5335,-6.5965e-05,0
2.534,-0.00010121,0
2.5345,-0.00013831,0
2.535,-0.00017742,0
2.5355,-0.00020461,0
2.536,-0.00021988,0
2.5365,-0.00020629,0
2.537,-0.00016701,0
2.5375,-0.00012941,0
2.538,-9.0135e-05,0
2.5385,-5.9587e-05,0
2.539,-4.5991e-05,0
2.5395,-1.8631e-05,0
2.54,2.4506e-05,0
2.5405,6.2608e-05,0
2.541,0.00010172,0
2.5415,0.00014284,0
2.542,0.00017675,0
2.5425,0.00020662,0
2.543,0.00022777,0
2.5435,0.00023348,0
2.544,0.00023616,0
2.5445,0.00025563,0
2.545,0.00028249,0
2.5455,0.00029558,0
2.546,0.0002939,0
2.5465,0.00027913,0
2.547,0.00023801,0
2.5475,0.00017272,0
2.548,9.1814e-05,0
2.5485,-2.2995e-05,0
2.549,-0.00015157,0
2.5495,-0.00023801,0
2.55,-0.00027594,0
2.5505,-0.00029944,0
2.551,-0.00031371,0
2.5515,-0.00032596,0
2.552,-0.00033956,0
2.5525,-0.00032546,0
2.553,-0.00028652,0
2.5535,-0.00025396,0
2.554,-0.0002172,0
2.5545,-0.00018329,0
2.555,-0.00015492,0
2.5555,-0.00012169,0
2.556,-7.805e-05,0
2.5565,-3.9948e-05,0
2.557,-1.4267e-05,0
2.5575,4.1459e-05,0
2.558,0.00014737,0
2.5585,0.00025496,0
2.559,0.00032126,0
2.5595,0.00035534,0
2.56,0.00037649,0
2.5605,0.00038119,0
2.561,0.00036608,0
2.5615,0.00035198,0
2.562,0.00033956,0
2.5625,0.00032747,0
2.563,0.00031656,0
2.5635,0.00029525,0
2.564,0.00028048,0
2.5645,0.00027561,0
2.565,0.00025228,0
2.5655,0.00021434,0
2.566,0.00016432,0
2.5665,9.9199e-05,0
2.567,3.8773e-05,0
2.5675,-1.0239e-05,0
2.568,-5.5726e-05,0
2.5685,-9.5506e-05,0
2.569,-0.00011968,0
2.5695,-0.00012689,0
2.57,-0.00014855,0
2.5705,-0.0002172,0
2.571,-0.00030347,0
2.5715,-0.00036222,0
2.572,-0.00039059,0
2.5725,-0.00041073,0
2.573,-0.00043137,0
2.5735,-0.00045806,0
2.574,-0.00048022,0
2.5745,-0.00048038,0
2.575,-0.00047166,0
2.5755,-0.00044715,0
2.576,-0.00040603,0
2.5765,-0.00036289,0
2.577,-0.00029743,0
2.5775,-0.00020226,0
2.578,-8.6778e-05,0
2.5785,2.0646e-05,0
2.579,9.2653e-05,0
2.5795,0.00015492,0
2.58,0.00025798,0
2.5805,0.00038656,0
2.581,0.00050304,0
2.5815,0.00059066,0
2.582,0.000639,0
2.5825,0.00066317,0
2.583,0.00066519,0
2.5835,0.00063682,0
2.584,0.00058596,0
2.5845,0.00053611,0
2.585,0.00049364,0
2.5855,0.00044497,0
2.586,0.00037917,0
2.5865,0.00029525,0
2.587,0.00021065,0
2.5875,0.00014284,0
2.588,8.7114e-05,0
2.5885,3.6759e-05,0
2.589,-1.2589e-05,0
2.5895,-6.244e-05,0
2.59,-9.0303e-05,0
2.5905,-0.00010306,0
2.591,-0.00012337,0
2.5915,-0.0001425,0
2.592,-0.000166,0
2.5925,-0.00019168,0
2.593,-0.00019622,0
2.5935,-0.00018514,0
2.594,-0.0001702,0
2.5945,-0.00016063,0
2.595,-0.00016667,0
2.5955,-0.00017356,0
2.596,-0.00017087,0
2.5965,-0.00016265,0
2.597,-0.00015056,0
2.5975,-0.00014955,0
2.598,-0.00016416,0
2.5985,-0.00017238,0
2.599,-0.0001707,0
2.5995,-0.00016684,0
2.6,-0.00016802,0
2.6005,-0.0001702,0
2.601,-0.00016802,0
2.6015,-0.00015123,0
2.602,-0.00012941,0
2.6025,-0.00012018,0
2.603,-0.00011179,0
2.6035,-0.00010558,0
2.604,-0.00010809,0
2.6045,-0.00010155,0
2.605,-7.6875e-05,0
2.6055,-4.4144e-05,0
2.606,-2.5177e-06,0
2.6065,3.122e-05,0
2.607,4.8005e-05,0
2.6075,5.8915e-05,0
2.608,6.8818e-05,0
2.6085,8.0064e-05,0
2.609,9.0471e-05,0
2.6095,7.7714e-05,0
2.61,4.0116e-05,0
2.6105,-3.357e-07,0
2.611,-4.1291e-05,0
2.6115,-7.956e-05,0
2.612,-0.00010625,0
2.6125,-0.00011749,0
2.613,-0.0001044,0
2.6135,-8.1743e-05,0
2.614,-7.9057e-05,0
2.6145,-7.6707e-05,0
2.615,-6.5629e-05,0
2.6155,-6.3951e-05,0
2.616,-5.7572e-05,0
2.6165,-4.6159e-05,0
2.617,-3.0045e-05,0
2.6175,1.2421e-05,0
2.618,6.5629e-05,0
2.6185,0.00011464,0
2.619,0.00015392,0
2.6195,0.00017826,0
2.62,0.00018631,0
2.6205,0.00017977,0
2.621,0.0001556,0
2.6215,0.00012068,0
2.622,8.6442e-05,0
2.6225,6.4958e-05,0
2.623,7.1e-05,0
2.6235,0.00011582,0
2.624,0.00019454,0
2.6245,0.00029491,0
2.625,0.00038857,0
2.6255,0.00044681,0
2.626,0.0004735,0
2.6265,0.0004725,0
2.627,0.0004255,0
2.6275,0.00036155,0
2.628,0.00030297,0
2.6285,0.0002412,0
2.629,0.00018917,0
2.6295,0.00015325,0
2.63,0.00012522,0
2.6305,0.00011028,0
2.631,9.0806e-05,0
2.6315,5.6565e-05,0
2.632,3.4073e-05,0
2.6325,1.5778e-05,0
2.633,-7.0497e-06,0
2.6335,-2.3499e-05,0
2.634,-3.3066e-05,0
2.6345,-4.4816e-05,0
2.635,-5.6565e-05,0
2.6355,-6.7475e-05,0
2.636,-8.0735e-05,0
2.6365,-9.2485e-05,0
2.637,-9.7017e-05,0
2.6375,-0.00010021,0
2.638,-0.00010826,0
2.6385,-0.00011598,0
2.639,-0.00011632,0
2.6395,-0.00011766,0
2.64,-0.00013512,0
2.6405,-0.0001519,0
2.641,-0.00015929,0
2.6415,-0.00015996,0
2.642,-0.00014015,0
2.6425,-0.00012102,0
2.643,-0.00011901,0
2.6435,-0.00010591,0
2.644,-9.836e-05,0
2.6445,-0.00011229,0
2.645,-0.00011884,0
2.6455,-0.00012102,0
2.646,-0.00012555,0
2.6465,-0.00012203,0
2.647,-0.00011011,0
2.6475,-9.3492e-05,0
2.648,-6.63e-05,0
2.6485,-2.5681e-05,0
2.649,1.0407e-05,0
2.6495,2.9206e-05,0
2.65,3.743e-05,0
2.6505,4.6662e-05,0
2.651,5.7237e-05,0
2.6515,6.5629e-05,0
2.652,6.9154e-05,0
2.6525,6.4958e-05,0
2.653,4.7166e-05,0
2.6535,3.9445e-05,0
2.654,3.4745e-05,0
2.6545,9.5674e-06,0
2.655,6.5461e-06,0
2.6555,3.0045e-05,0
2.656,3.8437e-05,0
2.6565,3.1052e-05,0
2.657,9.7353e-06,0
2.6575,-1.8967e-05,0
2.658,-3.1052e-05,0
2.6585,-2.7359e-05,0
2.659,-2.8031e-05,0
2.6595,-3.8941e-05,0
2.66,-4.2802e-05,0
2.6605,-2.4338e-05,0
2.661,2.3163e-05,0
2.6615,8.9632e-05,0
2.662,0.00014737,0
2.6625,0.00017238,0
2.663,0.00017507,0
2.6635,0.00017943,0
2.664,0.00019185,0
2.6645,0.00019655,0
2.665,0.00017943,0
2.6655,0.00014083,0
2.666,9.1814e-05,0
2.6665,5.4887e-05,0
2.667,3.1724e-05,0
2.6675,1.7288e-05,0
2.668,2.9374e-05,0
2.6685,4.1795e-05,0
2.669,2.5009e-05,0
2.6695,4.1962e-06,0
2.67,-1.5778e-05,0
2.6705,-4.5319e-05,0
2.671,-5.4215e-05,0
2.6715,-3.2898e-05,0
2.672,-1.8463e-06,0
2.6725,2.1317e-05,0
2.673,3.5416e-05,0
2.6735,3.8605e-05,0
2.674,3.2059e-05,0
2.6745,2.266e-05,0
2.675,9.0639e-06,0
2.6755,-1.7121e-05,0
2.676,-5.1865e-05,0
2.6765,-7.9728e-05,0
2.677,-0.00010423,0
2.6775,-0.00012035,0
2.678,-0.00012253,0
2.6785,-0.00012505,0
2.679,-0.00014049,0
2.6795,-0.00014318,0
2.68,-0.0001279,0
2.6805,-0.00011699,0
2.681,-9.1142e-05,0
2.6815,-5.1362e-05,0
2.682,-2.2995e-05,0
2.6825,1.3932e-05,0
2.683,4.8173e-05,0
2.6835,5.623e-05,0
2.684,5.623e-05,0
2.6845,5.5222e-05,0
2.685,6.0761e-05,0
2.6855,7.805e-05,0
2.686,8.8121e-05,0
2.6865,8.3085e-05,0
2.687,6.8986e-05,0
2.6875,5.2872e-05,0
2.688,3.978e-05,0
2.6885,3.0045e-05,0
2.689,1.8463e-05,0
2.6895,3.357e-06,0
2.69,-6.2104e-06,0
2.6905,-4.8676e-06,0
2.691,1.326e-05,0
2.6915,5.6901e-05,0
2.692,0.00012337,0
2.6925,0.00020914,0
2.693,0.00028585,0
2.6935,0.0003409,0
2.694,0.0003926,0
2.6945,0.00041039,0
2.695,0.00037447,0
2.6955,0.00033234,0
2.696,0.00030196,0
2.6965,0.0002553,0
2.697,0.00020394,0
2.6975,0.00014536,0
2.698,8.04e-05,0
2.6985,3.1724e-05,0
2.699,4.3641e-06,0
2.6995,-1.5106e-05,0
2.7,-2.2492e-05,0
2.7005,-1.7121e-05,0
2.701,-2.8534e-06,0
2.7015,2.1653e-05,0
2.702,5.0523e-05,0
2.7025,6.9657e-05,0
2.703,5.4551e-05,0
2.7035,6.2104e-06,0
2.704,-4.448e-05,0
2.7045,-7.4861e-05,0
2.705,-9.7185e-05,0
2.7055,-0.00011296,0
2.706,-0.00012689,0
2.7065,-0.00014603,0
2.707,-0.00015123,0
2.7075,-0.00016097,0
2.708,-0.0001895,0
2.7085,-0.00021535,0
2.709,-0.00023734,0
2.7095,-0.00025513,0
2.71,-0.00024456,0
2.7105,-0.00021636,0
2.711,-0.00018379,0
2.7115,-0.00013596,0
2.712,-5.9587e-05,0
2.7125,4.1291e-05,0
2.713,0.00013126,0
2.7135,0.00017641,0
2.714,0.00018279,0
2.7145,0.00016147,0
2.715,0.00012908,0
2.7155,0.00010793,0
2.716,0.00010826,0
2.7165,0.00013075,0
2.717,0.00015862,0
2.7175,0.00017104,0
2.718,0.00016483,0
2.7185,0.00018598,0
2.719,0.0002407,0
2.7195,0.00028048,0
2.72,0.0002892,0
2.7205,0.00025765,0
2.721,0.00018698,0
2.7215,0.000118,0
2.722,5.7908e-05,0
2.7225,-2.8534e-05,0
2.723,-0.00012673,0
2.7235,-0.00020092,0
2.724,-0.00022995,0
2.7245,-0.00021468,0
2.725,-0.00017607,0
2.7255,-0.00013512,0
2.726,-9.4331e-05,0
2.7265,-4.5823e-05,0
2.727,-5.8747e-06,0
2.7275,4.1962e-06,0
2.728,-1.8463e-06,0
2.7285,-4.6998e-06,0
2.729,-1.2085e-05,0
2.7295,-2.7527e-05,0
2.73,-2.7695e-05,0
2.7305,-4.5319e-06,0
2.731,1.3092e-05,0
2.7315,2.9374e-05,0
2.732,4.8844e-05,0
2.7325,5.2369e-05,0
2.733,5.2872e-05,0
2.7335,5.4215e-05,0
2.734,5.3544e-05,0
2.7345,6.6972e-05,0
2.735,8.1575e-05,0
2.7355,8.2582e-05,0
2.736,7.8386e-05,0
2.7365,6.3783e-05,0
2.737,3.6591e-05,0
2.7375,1.326e-05,0
2.738,1.5946e-05,0
2.7385,3.1388e-05,0
2.739,3.0549e-05,0
2.7395,2.1317e-05,0
2.74,2.1149e-05,0
2.7405,2.0478e-05,0
2.741,1.561e-05,0
2.7415,1.561e-05,0
2.742,1.8799e-05,0
2.7425,1.8631e-05,0
2.743,2.031e-05,0
2.7435,4.5655e-05,0
2.744,9.9702e-05,0
2.7445,0.00016231,0
2.745,0.00018984,0
2.7455,0.00016265,0
2.746,0.00012169,0
2.7465,7.1e-05,0
2.747,-1.5106e-06,0
2.7475,-5.539e-05,0
2.748,-8.275e-05,0
2.7485,-9.5171e-05,0
2.749,-9.6178e-05,0
2.7495,-0.00010793,0
2.75,-0.0001368,0
2.7505,-0.00016516,0
2.751,-0.00018715,0
2.7515,-0.00021501,0
2.752,-0.00024321,0
2.7525,-0.00025664,0
2.753,-0.00025614,0
2.7535,-0.00023465,0
2.754,-0.00018849,0
2.7545,-0.00013948,0
2.755,-0.00010037,0
2.7555,-6.3615e-05,0
2.756,-4.3641e-05,0
2.7565,-4.3137e-05,0
2.757,-4.0955e-05,0
2.7575,-1.5442e-05,0
2.758,-2.0142e-06,0
2.7585,-2.4674e-05,0
2.759,-4.0955e-05,0
2.7595,-4.918e-05,0
2.76,-6.1265e-05,0
2.7605,-4.3809e-05,0
2.761,-2.8534e-06,0
2.7615,3.592e-05,0
2.762,7.4357e-05,0
2.7625,0.00011313,0
2.763,0.00014955,0
2.7635,0.00018581,0
2.764,0.00021451,0
2.7645,0.00022206,0
2.765,0.00020092,0
2.7655,0.00016751,0
2.766,0.00013075,0
2.7665,8.8289e-05,0
2.767,4.5319e-05,0
2.7675,2.5177e-05,0
2.768,4.5823e-05,0
2.7685,9.1142e-05,0
2.769,0.00012572,0
2.7695,0.00013948,0
2.77,0.0001378,0
2.7705,0.00012706,0
2.771,8.7785e-05,0
2.7715,2.1653e-05,0
2.772,-1.8296e-05,0
2.7725,-2.9206e-05,0
2.773,-3.3738e-05,0
2.7735,-1.1582e-05,0
2.774,2.1317e-05,0
2.7745,1.5274e-05,0
2.775,-1.2757e-05,0
2.7755,-3.4745e-05,0
2.776,-5.153e-05,0
2.7765,-9.2989e-05,0
2.777,-0.0001613,0
2.7775,-0.00022005,0
2.778,-0.00024926,0
2.7785,-0.00024858,0
2.779,-0.00021501,0
2.7795,-0.00017221,0
2.78,-0.00015207,0
2.7805,-0.0001378,0
2.781,-8.5771e-05,0
2.7815,2.3499e-05,0
2.782,0.00015123,0
2.7825,0.00025093,0
2.783,0.00030884,0
2.7835,0.00034762,0
2.784,0.00036809,0
2.7845,0.00037212,0
2.785,0.00039059,0
2.7855,0.00039931,0
2.786,0.0003738,0
2.7865,0.00035567,0
2.787,0.00035164,0
2.7875,0.00032882,0
2.788,0.00029155,0
2.7885,0.00024523,0
2.789,0.00020729,0
2.7895,0.0001801,0
2.79,0.0001514,0
2.7905,0.00011934,0
2.791,8.5771e-05,0
2.7915,5.7572e-05,0
2.792,3.8773e-05,0
2.7925,2.7192e-05,0
2.793,7.2175e-06,0
2.7935,-2.0478e-05,0
2.794,-4.7166e-05,0
2.7945,-7.2007e-05,0
2.795,-9.9702e-05,0
2.7955,-0.00012656,0
2.796,-0.00015325,0
2.7965,-0.0001697,0
2.797,-0.00017859,0
2.7975,-0.00019454,0
2.798,-0.00019034,0
2.7985,-0.0001749,0
2.799,-0.00017406,0
2.7995,-0.00017507,0
2.8,-0.00017826,0
2.8005,-0.00018077,0
2.801,-0.00016265,0
2.8015,-0.00013327,0
2.802,-0.00011296,0
2.8025,-0.00011028,0
2.803,-0.00013008,0
2.8035,-0.00016315,0
2.804,-0.00017641,0
2.8045,-0.00016516,0
2.805,-0.00014334,0
2.8055,-0.00011095,0
2.806,-6.8986e-05,0
2.8065,-5.1194e-05,0
2.807,-7.4693e-05,0
2.8075,-0.00010893,0
2.808,-0.00013042,0
2.8085,-0.00014217,0
2.809,-0.00014788,0
2.8095,-0.00012924,0
2.81,-9.5506e-05,0
2.8105,-7.1336e-05,0
2.811,-3.5752e-05,0
2.8115,2.887e-05,0
2.812,0.00010759,0
2.8125,0.00017708,0
2.813,0.0001994,0
2.8135,0.00016802,0
2.814,0.00014754,0
2.8145,0.0001843,0
2.815,0.00025463,0
2.8155,0.00033452,0
2.816,0.00041878,0
2.8165,0.00047384,0
2.817,0.00046142,0
2.8175,0.00039696,0
2.818,0.00032277,0
2.8185,0.00025815,0
2.819,0.00020645,0
2.8195,0.00016617,0
2.82,0.00013344,0
2.8205,9.987e-05,0
2.821,6.6133e-05,0
2.8215,3.743e-05,0
2.822,1.0071e-05,0
2.8225,-1.4939e-05,0
2.823,-4.6494e-05,0
2.8235,-7.7882e-05,0
2.824,-8.0903e-05,0
2.8245,-7.3014e-05,0
2.825,-8.0232e-05,0
2.8255,-8.7114e-05,0
2.826,-9.7185e-05,0
2.8265,-0.00011632,0
2.827,-0.00012068,0
2.8275,-0.0001138,0
2.828,-0.00010893,0
2.8285,-0.00011196,0
2.829,-0.00013109,0
2.8295,-0.00015492,0
2.83,-0.00016214,0
2.8305,-0.00016298,0
2.831,-0.00018077,0
2.8315,-0.00019521,0
2.832,-0.00018514,0
2.8325,-0.00015946,0
2.833,-0.00013143,0
2.8335,-0.00010524,0
2.834,-7.9728e-05,0
2.8345,-5.1865e-05,0
2.835,-3.7934e-05,0
2.8355,-4.2466e-05,0
2.836,-5.5558e-05,0
2.8365,-7.4189e-05,0
2.837,-6.2104e-05,0
2.8375,-5.8747e-06,0
2.838,7.4021e-05,0
2.8385,0.00018816,0
2.839,0.00032445,0
2.8395,0.00043053,0
2.84,0.00049046,0
2.8405,0.00050405,0
2.841,0.00047619,0
2.8415,0.00042751,0
2.842,0.00037481,0
2.8425,0.00031908,0
2.843,0.00025731,0
2.8435,0.00018917,0
2.844,0.00012706,0
2.8445,7.2007e-05,0
2.845,2.266e-05,0
2.8455,-1.5274e-05,0
2.846,-3.8102e-05,0
2.8465,-4.9851e-05,0
2.847,-5.1194e-05,0
2.8475,-4.4816e-05,0
2.848,-4.7501e-05,0
2.8485,-6.2104e-05,0
2.849,-9.2821e-05,0
2.8495,-0.00014871,0
2.85,-0.00018715,0
2.8505,-0.00020293,0
2.851,-0.00022055,0
2.8515,-0.00022206,0
2.852,-0.0002083,0
2.8525,-0.0001937,0
2.853,-0.00017205,0
2.8535,-0.00015258,0
2.854,-0.0001331,0
2.8545,-0.0001039,0
2.855,-6.8315e-05,0
2.8555,-1.3596e-05,0
2.856,6.0594e-05,0
2.8565,0.00012924,0
2.857,0.00018564,0
2.8575,0.00022106,0
2.858,0.00023516,0
2.8585,0.00024657,0
2.859,0.00024926,0
2.8595,0.0002177,0
2.86,0.00016265,0
2.8605,0.00011733,0
2.861,8.1407e-05,0
2.8615,4.8508e-05,0
2.862,2.5177e-06,0
2.8625,-5.623e-05,0
2.863,-8.6778e-05,0
2.8635,-8.9296e-05,0
2.864,-8.6778e-05,0
2.8645,-6.4286e-05,0
2.865,-2.9374e-05,0
2.8655,-1.1078e-05,0
2.866,2.5177e-06,0
2.8665,9.9031e-06,0
2.867,5.8747e-06,0
2.8675,-1.1414e-05,0
2.868,-3.6759e-05,0
2.8685,-4.8173e-05,0
2.869,-3.743e-05,0
2.8695,-2.9709e-05,0
2.87,-4.5823e-05,0
2.8705,-6.1936e-05,0
2.871,-4.8005e-05,0
2.8715,-1.5442e-05,0
2.872,1.2589e-05,0
2.8725,1.5442e-05,0
2.873,-8.7282e-06,0
2.8735,-4.2634e-05,0
2.874,-7.6707e-05,0
2.8745,-9.8024e-05,0
2.875,-0.00011833,0
2.8755,-0.00013881,0
2.876,-0.00013344,0
2.8765,-0.00011666,0
2.877,-0.00010172,0
2.8775,-5.8747e-05,0
2.878,-4.8676e-06,0
2.8785,1.561e-05,0
2.879,2.6688e-05,0
2.8795,3.5248e-05,0
2.88,1.1582e-05,0
2.8805,-3.4409e-05,0
2.881,-7.4525e-05,0
2.8815,-0.00011179,0
2.882,-0.00014485,0
2.8825,-0.00016768,0
2.883,-0.0001697,0
2.8835,-0.00015811,0
2.884,-0.00014855,0
2.8845,-0.00012723,0
2.885,-9.4331e-05,0
2.8855,-7.1504e-05,0
2.886,-5.0187e-05,0
2.8865,-1.6953e-05,0
2.887,1.1246e-05,0
2.8875,4.1291e-05,0
2.888,7.4693e-05,0
2.8885,0.00010289,0
2.889,0.00014083,0
2.8895,0.00018178,0
2.89,0.00021468,0
2.8905,0.00025597,0
2.891,0.0003211,0
2.8915,0.00041811,0
2.892,0.00053695,0
2.8925,0.00060778,0
2.893,0.00060208,0
2.8935,0.00054434,0
2.894,0.0004636,0
2.8945,0.00037581,0
2.895,0.00028853,0
2.8955,0.00021032,0
2.896,0.00014821,0
2.8965,0.00010776,0
2.897,8.2918e-05,0
2.8975,6.3951e-05,0
2.898,4.6326e-05,0
2.8985,3.1388e-05,0
2.899,2.7527e-05,0
2.8995,3.7766e-05,0
2.9,3.2731e-05,0
2.9005,1.3932e-05,0
2.901,-5.2033e-06,0
2.9015,-2.5681e-05,0
2.902,-2.031e-05,0
2.9025,4.8676e-06,0
2.903,1.3596e-05,0
2.9035,7.8889e-06,0
2.904,-7.8889e-06,0
2.9045,-3.3066e-05,0
2.905,-4.2466e-05,0
2.9055,-4.7837e-05,0
2.906,-6.865e-05,0
2.9065,-9.5842e-05,0
2.907,-0.00011313,0
2.9075,-0.00012035,0
2.908,-0.00013999,0
2.9085,-0.00017406,0
2.909,-0.00020327,0
2.9095,-0.00021501,0
2.91,-0.00021048,0
2.9105,-0.00018984,0
2.911,-0.0001566,0
2.9115,-0.00012673,0
2.912,-0.00010658,0
2.9125,-8.4764e-05,0
2.913,-6.7979e-05,0
2.9135,-4.7501e-05,0
2.914,-1.9974e-05,0
2.9145,-2.8534e-06,0
2.915,1.3932e-05,0
2.9155,3.1724e-05,0
2.916,3.3738e-05,0
2.9165,3.6088e-05,0
2.917,4.1123e-05,0
2.9175,3.5248e-05,0
2.918,2.9374e-05,0
2.9185,1.8967e-05,0
2.919,-1.678e-07,0
2.9195,-1.1414e-05,0
2.92,-3.8605e-06,0
2.9205,1.0575e-05,0
2.921,1.2589e-05,0
2.9215,-4.8676e-06,0
2.922,-3.7095e-05,0
2.9225,-7.805e-05,0
2.923,-0.00011431,0
2.9235,-0.00013613,0
2.924,-0.00013898,0
2.9245,-0.00011934,0
2.925,-9.2989e-05,0
2.9255,-7.8721e-05,0
2.926,-9.1814e-05,0
2.9265,-0.00011884,0
2.927,-0.00014401,0
2.9275,-0.00015744,0
2.928,-0.00014452,0
2.9285,-0.00012522,0
2.929,-0.0001227,0
2.9295,-0.00010256,0
2.93,-5.4551e-05,0
2.9305,-4.1962e-06,0
2.931,5.7572e-05,0
2.9315,0.00012824,0
2.932,0.00019084,0
2.9325,0.00021334,0
2.933,0.00020259,0
2.9335,0.00019705,0
2.934,0.00021065,0
2.9345,0.00021602,0
2.935,0.0002083,0
2.9355,0.00019554,0
2.936,0.00017977,0
2.9365,0.0001697,0
2.937,0.00017775,0
2.9375,0.00018849,0
2.938,0.00017977,0
2.9385,0.00017238,0
2.939,0.0001895,0
2.9395,0.00021804,0
2.94,0.00024154,0
2.9405,0.00026604,0
2.941,0.00029793,0
2.9415,0.00030649,0
2.942,0.00028148,0
2.9425,0.00025597,0
2.943,0.00022844,0
2.9435,0.00019638,0
2.944,0.00017977,0
2.9445,0.00016063,0
2.945,0.00011263,0
2.9455,3.8605e-05,0
2.946,-3.8102e-05,0
2.9465,-9.366e-05,0
2.947,-0.00012236,0
2.9475,-0.00013025,0
2.948,-0.00013243,0
2.9485,-0.00013814,0
2.949,-0.00014066,0
2.9495,-0.00011934,0
2.95,-7.3854e-05,0
2.9505,-4.2802e-05,0
2.951,-5.7069e-05,0
2.9515,-9.7185e-05,0
2.952,-0.00013361,0
2.9525,-0.00014401,0
2.953,-0.00013512,0
2.9535,-0.00013982,0
2.954,-0.00014217,0
2.9545,-0.0001378,0
2.955,-0.00014452,0
2.9555,-0.0001472,0
2.956,-0.00013277,0
2.9565,-9.7688e-05,0
2.957,-4.3641e-05,0
2.9575,1.0575e-05,0
2.958,7.5868e-05,0
2.9585,0.00016013,0
2.959,0.0002219,0
2.9595,0.00023935,0
2.96,0.00022408,0
2.9605,0.00019689,0
2.961,0.00015828,0
2.9615,0.00010793,0
2.962,6.244e-05,0
2.9625,3.6088e-05,0
2.963,2.6688e-05,0
2.9635,2.6688e-05,0
2.964,2.1317e-05,0
2.9645,8.2246e-06,0
2.965,-1.326e-05,0
2.9655,-2.9206e-05,0
2.966,-3.3234e-05,0
2.9665,-3.978e-05,0
2.967,-3.8941e-05,0
2.9675,-3.9277e-05,0
2.968,-4.7837e-05,0
2.9685,-3.9948e-05,0
2.969,-2.7024e-05,0
2.9695,-3.8605e-05,0
2.97,-6.9657e-05,0
2.9705,-0.00011162,0
2.971,-0.00016046,0
2.9715,-0.00020864,0
2.972,-0.00023684,0
2.9725,-0.00022609,0
2.973,-0.00018849,0
2.9735,-0.00015912,0
2.974,-0.00014687,0
2.9745,-0.00014267,0
2.975,-0.00012186,0
2.9755,-6.9657e-05,0
2.976,-1.2253e-05,0
2.9765,2.6184e-05,0
2.977,5.7908e-05,0
2.9775,9.5674e-05,0
2.978,0.00013109,0
2.9785,0.00018648,0
2.979,0.00024002,0
2.9795,0.00026,0
2.98,0.00028518,0
2.9805,0.00032697,0
2.981,0.00034224,0
2.9815,0.0003211,0
2.982,0.00027544,0
2.9825,0.00021065,0
2.983,0.00014888,0
2.9835,8.7114e-05,0
2.984,2.2995e-05,0
2.9845,-1.7624e-05,0
2.985,-1.3596e-05,0
2.9855,2.031e-05,0
2.986,4.7669e-05,0
2.9865,5.153e-05,0
2.987,4.3473e-05,0
2.9875,3.508e-05,0
2.988,1.3596e-05,0
2.9885,-2.182e-05,0
2.989,-4.9683e-05,0
2.9895,-6.5461e-05,0
2.99,-9.6178e-05,0
2.9905,-0.00014922,0
2.991,-0.00019487,0
2.9915,-0.00020645,0
2.992,-0.00020964,0
2.9925,-0.00022391,0
2.993,-0.00021468,0
2.9935,-0.00018128,0
2.994,-0.00015174,0
2.9945,-0.00011699,0
2.995,-7.7378e-05,0
2.9955,-4.5151e-05,0
2.996,-8.3925e-06,0
2.9965,3.7262e-05,0
2.997,9.8863e-05,0
2.9975,0.00016768,0
2.998,0.00022408,0
2.9985,0.00025093,0
2.999,0.00025681,0
2.9995,0.00026671,0
3,0.00027242,0
3.0005,0.00025647,0
3.001,0.00020629,0
3.0015,0.00014821,0
3.002,0.00012068,0
3.0025,0.0001133,0
3.003,0.00010138,0
3.0035,8.1575e-05,0
3.004,5.5222e-05,0
3.0045,3.9948e-05,0
3.005,3.1891e-05,0
3.0055,1.4939e-05,0
3.006,6.5461e-06,0
3.0065,4.6998e-06,0
3.007,-3.8605e-06,0
3.0075,-1.678e-07,0
3.008,-2.0142e-06,0
3.0085,-3.5584e-05,0
3.009,-8.0735e-05,0
3.0095,-0.00011582,0
3.01,-0.00012589,0
3.0105,-0.00010877,0
3.011,-7.805e-05,0
3.0115,-4.6159e-05,0
3.012,-2.4674e-05,0
3.0125,-1.5946e-05,0
3.013,-1.796e-05,0
3.0135,-2.5009e-05,0
3.014,-3.3066e-05,0
3.0145,-4.1291e-05,0
3.015,-5.0355e-05,0
3.0155,-5.4887e-05,0
3.016,-4.8508e-05,0
3.0165,-3.5752e-05,0
3.017,-3.0045e-05,0
3.0175,-2.7863e-05,0
3.018,-4.9515e-05,0
3.0185,-0.00010692,0
3.019,-0.00015526,0
3.0195,-0.00018413,0
3.02,-0.00020125,0
3.0205,-0.00017624,0
3.021,-0.00012387,0
3.0215,-9.4835e-05,0
3.022,-7.1336e-05,0
3.0225,-3.9277e-05,0
3.023,-1.7288e-05,0
3.0235,-9.0639e-06,0
3.024,-9.9031e-06,0
3.0245,-1.4099e-05,0
3.025,-8.896e-06,0
3.0255,6.714e-07,0
3.026,-1.1246e-05,0
3.0265,-2.0813e-05,0
3.027,3.0716e-05,0
3.0275,0.00014066,0
3.028,0.00025866,0
3.0285,0.00034342,0
3.029,0.00039965,0
3.0295,0.00043758,0
3.03,0.00043624,0
3.0305,0.00040737,0
3.031,0.00037766,0
3.0315,0.00035232,0
3.032,0.00034963,0
3.0325,0.0003503,0
3.033,0.00031606,0
3.0335,0.00027712,0
3.034,0.00023583,0
3.0345,0.00017675,0
3.035,0.00011984,0
3.0355,7.5029e-05,0
3.036,4.8173e-05,0
3.0365,3.6088e-05,0
3.037,2.9374e-05,0
3.0375,1.4939e-05,0
3.038,-1.1582e-05,0
3.0385,-4.1123e-05,0
3.039,-6.2104e-05,0
3.0395,-8.0064e-05,0
3.04,-0.00010407,0
3.0405,-0.00012874,0
3.041,-0.00015056,0
3.0415,-0.00017339,0
3.042,-0.00019286,0
3.0425,-0.00020343,0
3.043,-0.00021552,0
3.0435,-0.00021753,0
3.044,-0.00020562,0
3.0445,-0.00017842,0
3.045,-0.00010877,0
3.0455,-2.2156e-05,0
3.046,3.0213e-05,0
3.0465,5.0858e-05,0
3.047,4.2634e-05,0
3.0475,5.539e-06,0
3.048,-2.031e-05,0
3.0485,-1.561e-05,0
3.049,-5.3712e-06,0
3.0495,-8.5603e-06,0
3.05,-2.0142e-05,0
3.0505,-4.0116e-05,0
3.051,-7.2175e-05,0
3.0515,-0.00011095,0
3.052,-0.00015006,0
3.0525,-0.00018111,0
3.053,-0.00017507,0
3.0535,-0.00012572,0
3.054,-6.7979e-05,0
3.0545,-4.0452e-05,0
3.055,-3.978e-05,0
3.0555,-4.1795e-05,0
3.056,-4.4984e-05,0
3.0565,-4.3473e-05,0
3.057,-4.0452e-05,0
3.0575,-5.7908e-05,0
3.058,-6.9657e-05,0
3.0585,-7.4189e-05,0
3.059,-9.1142e-05,0
3.0595,-0.00010423,0
3.06,-0.00010356,0
3.0605,-8.51e-05,0
3.061,-4.0116e-05,0
3.0615,-5.539e-06,0
3.062,-2.6856e-06,0
3.0625,-1.1917e-05,0
3.063,-1.4267e-05,0
3.0635,-1.5274e-05,0
3.064,-9.9031e-06,0
3.0645,1.5274e-05,0
3.065,5.5558e-05,0
3.0655,0.00010658,0
3.066,0.00017775,0
3.0665,0.00025748,0
3.067,0.00030733,0
3.0675,0.00031119,0
3.068,0.00029105,0
3.0685,0.00027141,0
3.069,0.00024926,0
3.0695,0.00021736,0
3.07,0.00016802,0
3.0705,0.00012236,0
3.071,0.00012018,0
3.0715,0.00014586,0
3.072,0.00014401,0
3.0725,0.00012085,0
3.073,0.00010658,0
3.0735,9.6849e-05,0
