0,0,0
0.0005,0,0
0.001,0,0
0.0015,0,0
0.002,0,0
0.0025,0,0
0.003,0,0
0.0035,0,0
0.004,0,0
0.0045,0,0
0.005,0,0
0.0055,0,0
0.006,0,0
0.0065,0,0
0.007,0,0
0.0075,0,0
0.008,0,0
0.0085,0,0
0.009,0,0
0.0095,0,0
0.01,0,0
0.0105,0,0
0.011,0,0
0.0115,0,0
0.012,0,0
0.0125,0,0
0.013,0,0
0.0135,0,0
0.014,0,0
0.0145,0,0
0.015,0,0
0.0155,0,0
0.016,0,0
0.0165,0,0
0.017,0,0
0.0175,0,0
0.018,0,0
0.0185,0,0
0.019,0,0
0.0195,0,0
0.02,0,0
0.0205,0,0
0.021,0,0
0.0215,0,0
0.022,0,0
0.0225,0,0
0.023,0,0
0.0235,0,0
0.024,0,0
0.0245,0,0
0.025,0,0
0.0255,0,0
0.026,6.2272e-05,0
0.0265,6.4118e-05,0
0.027,5.6062e-05,0
0.0275,4.3977e-05,0
0.028,3.1388e-05,0
0.0285,1.796e-05,0
0.029,6.2104e-06,0
0.0295,-2.0142e-06,0
0.03,-9.0639e-06,0
0.0305,-9.3996e-06,0
0.031,-2.5177e-06,0
0.0315,2.182e-06,0
0.032,1.678e-07,0
0.0325,-5.539e-06,0
0.033,-1.0071e-05,0
0.0335,-1.1078e-05,0
0.034,-9.5674e-06,0
0.0345,-3.0213e-06,0
0.035,1.1246e-05,0
0.0355,3.0045e-05,0
0.036,4.3305e-05,0
0.0365,4.3809e-05,0
0.037,3.6927e-05,0
0.0375,3.9109e-05,0
0.038,5.2705e-05,0
0.0385,5.9587e-05,0
0.039,5.3376e-05,0
0.0395,4.0787e-05,0
0.04,3.3906e-05,0
0.0405,3.1556e-05,0
0.041,2.9374e-05,0
0.0415,2.2492e-05,0
0.042,8.0568e-06,0
0.0425,-9.5674e-06,0
0.043,-3.1388e-05,0
0.0435,-6.0426e-05,0
0.044,-7.6707e-05,0
0.0445,-6.2608e-05,0
0.045,-3.9277e-05,0
0.0455,-2.2828e-05,0
0.046,-1.2589e-05,0
0.0465,-4.6998e-06,0
0.047,8.392e-07,0
0.0475,5.0355e-06,0
0.048,1.0575e-05,0
0.0485,1.6953e-05,0
0.049,2.1317e-05,0
0.0495,2.5009e-05,0
0.05,2.8031e-05,0
0.0505,3.4577e-05,0
0.051,4.7166e-05,0
0.0515,6.0258e-05,0
0.052,6.6133e-05,0
0.0525,6.4286e-05,0
0.053,5.7572e-05,0
0.0535,5.1362e-05,0
0.054,4.683e-05,0
0.0545,4.0452e-05,0
0.055,2.5009e-05,0
0.0555,4.3641e-06,0
0.056,-5.3712e-06,0
0.0565,5.2033e-06,0
0.057,2.9038e-05,0
0.0575,4.5487e-05,0
0.058,4.2802e-05,0
0.0585,3.8102e-05,0
0.059,4.2634e-05,0
0.0595,4.6159e-05,0
0.06,3.3234e-05,0
0.0605,6.8818e-06,0
0.061,-1.5274e-05,0
0.0615,-2.7359e-05,0
0.062,-3.1052e-05,0
0.0625,-3.4409e-05,0
0.063,-4.6159e-05,0
0.0635,-6.0929e-05,0
0.064,-6.8986e-05,0
0.0645,-5.9419e-05,0
0.065,-2.8367e-05,0
0.0655,5.7069e-06,0
0.066,3.2898e-05,0
0.0665,5.2872e-05,0
0.067,6.2104e-05,0
0.0675,6.2944e-05,0
0.068,5.8076e-05,0
0.0685,4.683e-05,0
0.069,2.887e-05,0
0.0695,1.091e-05,0
0.07,1.0071e-06,0
0.0705,0,0
0.071,3.357e-06,0
0.0715,7.5532e-06,0
0.072,8.2246e-06,0
0.0725,7.7211e-06,0
0.073,1.4603e-05,0
0.0735,2.7863e-05,0
0.074,3.6759e-05,0
0.0745,3.8437e-05,0
0.075,3.6759e-05,0
0.0755,3.5416e-05,0
0.076,3.7934e-05,0
0.0765,4.3473e-05,0
0.077,5.4215e-05,0
0.0775,7.4189e-05,0
0.078,9.9031e-05,0
0.0785,0.00011531,0
0.079,0.00011481,0
0.0795,0.00010239,0
0.08,8.2918e-05,0
0.0805,5.8579e-05,0
0.081,2.8031e-05,0
0.0815,-9.2317e-06,0
0.082,-4.7501e-05,0
0.0825,-7.5029e-05,0
0.083,-7.4861e-05,0
0.0835,-4.7166e-05,0
0.084,-1.326e-05,0
0.0845,8.5603e-06,0
0.085,1.1749e-05,0
0.0855,9.7353e-06,0
0.086,1.5946e-05,0
0.0865,2.5009e-05,0
0.087,2.9374e-05,0
0.0875,2.8367e-05,0
0.088,2.8534e-05,0
0.0885,3.0716e-05,0
0.089,3.0045e-05,0
0.0895,2.4002e-05,0
0.09,1.1749e-05,0
0.0905,-1.8463e-06,0
0.091,-2.182e-06,0
0.0915,8.7282e-06,0
0.092,2.0813e-05,0
0.0925,3.122e-05,0
0.093,3.4241e-05,0
0.0935,3.1724e-05,0
0.094,2.1317e-05,0
0.0945,4.3641e-06,0
0.095,-1.091e-05,0
0.0955,-2.3331e-05,0
0.096,-3.6759e-05,0
0.0965,-3.7095e-05,0
0.097,-1.6617e-05,0
0.0975,9.9031e-06,0
0.098,2.4674e-05,0
0.0985,2.9374e-05,0
0.099,3.6088e-05,0
0.0995,5.3208e-05,0
0.1,7.7546e-05,0
0.1005,9.8695e-05,0
0.101,0.00010994,0
0.1015,0.00010843,0
0.102,9.6513e-05,0
0.1025,8.04e-05,0
0.103,5.8915e-05,0
0.1035,2.4674e-05,0
0.104,-2.2156e-05,0
0.1045,-6.3951e-05,0
0.105,-7.6036e-05,0
0.1055,-5.8915e-05,0
0.106,-3.1556e-05,0
0.1065,-5.0355e-06,0
0.107,1.3764e-05,0
0.1075,2.7024e-05,0
0.108,3.5584e-05,0
0.1085,3.6591e-05,0
0.109,3.1556e-05,0
0.1095,2.266e-05,0
0.11,1.0575e-05,0
0.1105,-2.8534e-06,0
0.111,-1.326e-05,0
0.1115,-1.796e-05,0
0.112,-1.326e-05,0
0.1125,-3.0213e-06,0
0.113,3.8605e-06,0
0.1135,8.896e-06,0
0.114,1.5946e-05,0
0.1145,2.4506e-05,0
0.115,2.9374e-05,0
0.1155,3.0716e-05,0
0.116,2.8702e-05,0
0.1165,2.6688e-05,0
0.117,3.3066e-05,0
0.1175,4.5487e-05,0
0.118,5.153e-05,0
0.1185,5.0187e-05,0
0.119,4.5151e-05,0
0.1195,4.2802e-05,0
0.12,3.8437e-05,0
0.1205,2.8031e-05,0
0.121,1.6617e-05,0
0.1215,1.4267e-05,0
0.122,1.9974e-05,0
0.1225,2.4842e-05,0
0.123,2.6184e-05,0
0.1235,2.7192e-05,0
0.124,2.8367e-05,0
0.1245,2.1149e-05,0
0.125,7.5532e-06,0
0.1255,-5.035e-07,0
0.126,0,0
0.1265,4.3641e-06,0
0.127,1.4603e-05,0
0.1275,3.5416e-05,0
0.128,5.7237e-05,0
0.1285,6.865e-05,0
0.129,7.0664e-05,0
0.1295,7.3518e-05,0
0.13,7.6875e-05,0
0.1305,7.4357e-05,0
0.131,7.1504e-05,0
0.1315,7.6539e-05,0
0.132,8.7114e-05,0
0.1325,9.2317e-05,0
0.133,8.2078e-05,0
0.1335,5.8244e-05,0
0.134,1.9974e-05,0
0.1345,-3.0381e-05,0
0.135,-8.2078e-05,0
0.1355,-0.0001227,0
0.136,-0.00014838,0
0.1365,-0.00015509,0
0.137,-0.00013075,0
0.1375,-8.6275e-05,0
0.138,-5.0355e-05,0
0.1385,-3.1556e-05,0
0.139,-1.7624e-05,0
0.1395,-5.539e-06,0
0.14,4.8676e-06,0
0.1405,1.2757e-05,0
0.141,1.796e-05,0
0.1415,2.1317e-05,0
0.142,2.5009e-05,0
0.1425,2.8031e-05,0
0.143,3.0381e-05,0
0.1435,3.2731e-05,0
0.144,3.4073e-05,0
0.1445,3.6423e-05,0
0.145,3.743e-05,0
0.1455,4.1795e-05,0
0.146,4.7669e-05,0
0.1465,5.3376e-05,0
0.147,6.3279e-05,0
0.1475,7.7043e-05,0
0.148,8.6442e-05,0
0.1485,8.8792e-05,0
0.149,7.9728e-05,0
0.1495,6.4286e-05,0
0.15,5.2537e-05,0
0.1505,4.4816e-05,0
0.151,3.8605e-05,0
0.1515,3.122e-05,0
0.152,1.8631e-05,0
0.1525,2.182e-06,0
0.153,-1.3596e-05,0
0.1535,-2.2324e-05,0
0.154,-2.7695e-05,0
0.1545,-3.6759e-05,0
0.155,-4.3137e-05,0
0.1555,-3.8605e-05,0
0.156,-2.4338e-05,0
0.1565,-6.3783e-06,0
0.157,1.0575e-05,0
0.1575,2.3331e-05,0
0.158,3.0549e-05,0
0.1585,3.7934e-05,0
0.159,4.3473e-05,0
0.1595,4.8173e-05,0
0.16,5.3544e-05,0
0.1605,5.8579e-05,0
0.161,5.6565e-05,0
0.1615,4.3809e-05,0
0.162,2.3331e-05,0
0.1625,7.7211e-06,0
0.163,8.3925e-06,0
0.1635,2.2324e-05,0
0.164,3.9948e-05,0
0.1645,5.0858e-05,0
0.165,5.3376e-05,0
0.1655,4.8173e-05,0
0.166,3.6088e-05,0
0.1665,1.5946e-05,0
0.167,-4.8676e-06,0
0.1675,-2.4002e-05,0
0.168,-4.213e-05,0
0.1685,-4.448e-05,0
0.169,-1.9806e-05,0
0.1695,5.2033e-06,0
0.17,1.2589e-05,0
0.1705,1.7288e-05,0
0.171,3.1724e-05,0
0.1715,5.0858e-05,0
0.172,6.3951e-05,0
0.1725,7.0832e-05,0
0.173,7.2511e-05,0
0.1735,6.8147e-05,0
0.174,5.2537e-05,0
0.1745,2.3163e-05,0
0.175,-1.3596e-05,0
0.1755,-4.5151e-05,0
0.176,-5.8915e-05,0
0.1765,-5.0187e-05,0
0.177,-3.1052e-05,0
0.1775,-1.5778e-05,0
0.178,-8.3925e-06,0
0.1785,-1.0239e-05,0
0.179,-1.091e-05,0
0.1795,5.035e-07,0
0.18,1.8463e-05,0
0.1805,3.3402e-05,0
0.181,3.8773e-05,0
0.1815,3.743e-05,0
0.182,3.4073e-05,0
0.1825,2.7359e-05,0
0.183,1.4435e-05,0
0.1835,4.6998e-06,0
0.184,1.1749e-06,0
0.1845,8.392e-07,0
0.185,5.2033e-06,0
0.1855,1.326e-05,0
0.186,1.8631e-05,0
0.1865,1.9638e-05,0
0.187,2.2995e-05,0
0.1875,3.7766e-05,0
0.188,5.7908e-05,0
0.1885,7.57e-05,0
0.189,8.5435e-05,0
0.1895,8.7785e-05,0
0.19,8.1743e-05,0
0.1905,6.3615e-05,0
0.191,3.9612e-05,0
0.1915,1.326e-05,0
0.192,-1.5946e-05,0
0.1925,-3.743e-05,0
0.193,-4.4144e-05,0
0.1935,-4.1459e-05,0
0.194,-3.1724e-05,0
0.1945,-1.3764e-05,0
0.195,7.8889e-06,0
0.1955,2.5009e-05,0
0.196,3.4577e-05,0
0.1965,3.6423e-05,0
0.197,3.3906e-05,0
0.1975,3.0381e-05,0
0.198,2.6352e-05,0
0.1985,2.4674e-05,0
0.199,2.7695e-05,0
0.1995,2.7863e-05,0
0.2,2.3331e-05,0
0.2005,2.2324e-05,0
0.201,2.1317e-05,0
0.2015,1.6785e-05,0
0.202,7.8889e-06,0
0.2025,-3.0213e-06,0
0.203,-6.2104e-06,0
0.2035,4.0284e-06,0
0.204,1.8967e-05,0
0.2045,3.1052e-05,0
0.205,3.743e-05,0
0.2055,4.1459e-05,0
0.206,3.9109e-05,0
0.2065,3.1724e-05,0
0.207,2.5849e-05,0
0.2075,2.6017e-05,0
0.208,2.8031e-05,0
0.2085,2.7695e-05,0
0.209,2.6184e-05,0
0.2095,3.2731e-05,0
0.21,4.4816e-05,0
0.2105,5.4215e-05,0
0.211,5.8747e-05,0
0.2115,5.4887e-05,0
0.212,4.1459e-05,0
0.2125,1.9974e-05,0
0.213,8.392e-07,0
0.2135,-5.0355e-06,0
0.214,-5.539e-06,0
0.2145,-8.5603e-06,0
0.215,-7.5532e-06,0
0.2155,3.1891e-06,0
0.216,1.4771e-05,0
0.2165,1.3428e-05,0
0.217,3.0213e-06,0
0.2175,-7.2175e-06,0
0.218,-1.6449e-05,0
0.2185,-1.9806e-05,0
0.219,-1.4603e-05,0
0.2195,-5.2033e-06,0
0.22,8.392e-07,0
0.2205,9.7353e-06,0
0.221,3.8605e-05,0
0.2215,8.04e-05,0
0.222,0.0001133,0
0.2225,0.00013613,0
0.223,0.00014922,0
0.2235,0.0001415,0
0.224,0.00011229,0
0.2245,7.5029e-05,0
0.225,3.743e-05,0
0.2255,-1.326e-05,0
0.226,-7.7714e-05,0
0.2265,-0.0001368,0
0.227,-0.0001608,0
0.2275,-0.00013646,0
0.228,-9.1814e-05,0
0.2285,-5.539e-05,0
0.229,-3.5752e-05,0
0.2295,-2.6352e-05,0
0.23,-1.7792e-05,0
0.2305,-9.2317e-06,0
0.231,-2.8534e-06,0
0.2315,3.1891e-06,0
0.232,1.1078e-05,0
0.2325,1.9638e-05,0
0.233,2.5849e-05,0
0.2335,3.0381e-05,0
0.234,3.6423e-05,0
0.2345,4.3977e-05,0
0.235,4.9348e-05,0
0.2355,4.8173e-05,0
0.236,4.3977e-05,0
0.2365,4.1291e-05,0
0.237,3.8941e-05,0
0.2375,3.8102e-05,0
0.238,4.3641e-05,0
0.2385,5.2201e-05,0
0.239,5.6733e-05,0
0.2395,5.5558e-05,0
0.24,4.7837e-05,0
0.2405,3.9948e-05,0
0.241,3.4745e-05,0
0.2415,3.1388e-05,0
0.242,2.652e-05,0
0.2425,1.3932e-05,0
0.243,-6.714e-07,0
0.2435,-7.2175e-06,0
0.244,-3.1891e-06,0
0.2445,1.1246e-05,0
0.245,2.8031e-05,0
0.2455,3.5584e-05,0
0.246,3.4745e-05,0
0.2465,3.508e-05,0
0.247,3.7095e-05,0
0.2475,4.0787e-05,0
0.248,4.5487e-05,0
0.2485,5.3208e-05,0
0.249,6.4286e-05,0
0.2495,7.805e-05,0
0.25,8.2246e-05,0
0.2505,7.6875e-05,0
0.251,6.9993e-05,0
0.2515,5.623e-05,0
0.252,3.6088e-05,0
0.2525,1.9638e-05,0
0.253,7.2175e-06,0
0.2535,-1.3092e-05,0
0.254,-4.3809e-05,0
0.2545,-5.9587e-05,0
0.255,-4.6159e-05,0
0.2555,-1.9638e-05,0
0.256,1.678e-07,0
0.2565,3.5248e-06,0
0.257,-5.7069e-06,0
0.2575,-1.1414e-05,0
0.258,-7.8889e-06,0
0.2585,-4.3641e-06,0
0.259,-6.8818e-06,0
0.2595,-1.1917e-05,0
0.26,-1.0239e-05,0
0.2605,7.2175e-06,0
0.261,3.9109e-05,0
0.2615,7.0832e-05,0
0.262,8.8121e-05,0
0.2625,9.0471e-05,0
0.263,8.1743e-05,0
0.2635,6.3951e-05,0
0.264,3.8605e-05,0
0.2645,5.2033e-06,0
0.265,-3.743e-05,0
0.2655,-7.1e-05,0
0.266,-7.5364e-05,0
0.2665,-5.1194e-05,0
0.267,-1.9303e-05,0
0.2675,2.182e-06,0
0.268,1.0407e-05,0
0.2685,9.2317e-06,0
0.269,1.0575e-05,0
0.2695,1.6617e-05,0
0.27,1.8463e-05,0
0.2705,1.326e-05,0
0.271,8.5603e-06,0
0.2715,1.1414e-05,0
0.272,1.7624e-05,0
0.2725,1.9303e-05,0
0.273,1.7792e-05,0
0.2735,1.4939e-05,0
0.274,1.796e-05,0
0.2745,2.7024e-05,0
0.275,2.6688e-05,0
0.2755,1.9303e-05,0
0.276,1.6953e-05,0
0.2765,2.5849e-05,0
0.277,4.0787e-05,0
0.2775,5.4719e-05,0
0.278,7.0664e-05,0
0.2785,8.9128e-05,0
0.279,0.00010306,0
0.2795,0.00011212,0
0.28,0.00011548,0
0.2805,0.00010256,0
0.281,7.4357e-05,0
0.2815,4.3809e-05,0
0.282,1.7121e-05,0
0.2825,-1.7121e-05,0
0.283,-5.5222e-05,0
0.2835,-7.956e-05,0
0.284,-8.5771e-05,0
0.2845,-7.7211e-05,0
0.285,-5.9587e-05,0
0.2855,-4.2298e-05,0
0.286,-2.7359e-05,0
0.2865,-1.2253e-05,0
0.287,3.357e-07,0
0.2875,8.896e-06,0
0.288,1.5946e-05,0
0.2885,2.2324e-05,0
0.289,2.5849e-05,0
0.2895,2.6856e-05,0
0.29,3.0045e-05,0
0.2905,3.5752e-05,0
0.291,4.2802e-05,0
0.2915,5.1362e-05,0
0.292,5.6901e-05,0
0.2925,6.0258e-05,0
0.293,6.4622e-05,0
0.2935,7.1e-05,0
0.294,7.2343e-05,0
0.2945,6.2944e-05,0
0.295,4.7501e-05,0
0.2955,3.6927e-05,0
0.296,4.2466e-05,0
0.2965,5.7908e-05,0
0.297,6.8818e-05,0
0.2975,6.0761e-05,0
0.298,3.3234e-05,0
0.2985,-6.714e-07,0
0.299,-2.4338e-05,0
0.2995,-3.3738e-05,0
0.3,-3.2898e-05,0
0.3005,-3.1891e-05,0
0.301,-3.7934e-05,0
0.3015,-3.8605e-05,0
0.302,-2.5009e-05,0
0.3025,-5.539e-06,0
0.303,5.8747e-06,0
0.3035,9.2317e-06,0
0.304,8.7282e-06,0
0.3045,3.1891e-06,0
0.305,-9.5674e-06,0
0.3055,-1.6281e-05,0
0.306,6.2104e-06,0
0.3065,4.2466e-05,0
0.307,6.865e-05,0
0.3075,8.04e-05,0
0.308,8.4428e-05,0
0.3085,7.9393e-05,0
0.309,5.8412e-05,0
0.3095,2.4002e-05,0
0.31,-1.2924e-05,0
0.3105,-4.2802e-05,0
0.311,-6.3111e-05,0
0.3115,-6.8482e-05,0
0.312,-5.3376e-05,0
0.3125,-3.0045e-05,0
0.313,-1.1078e-05,0
0.3135,1.1749e-06,0
0.314,9.7353e-06,0
0.3145,2.0646e-05,0
0.315,3.1388e-05,0
0.3155,3.8773e-05,0
0.316,4.2802e-05,0
0.3165,4.0787e-05,0
0.317,3.7262e-05,0
0.3175,3.3402e-05,0
0.318,2.8702e-05,0
0.3185,2.4674e-05,0
0.319,2.3331e-05,0
0.3195,2.4002e-05,0
0.32,3.2395e-05,0
0.3205,4.7166e-05,0
0.321,6.5293e-05,0
0.3215,8.3421e-05,0
0.322,9.3156e-05,0
0.3225,9.0303e-05,0
0.323,7.8721e-05,0
0.3235,6.0258e-05,0
0.324,3.6759e-05,0
0.3245,7.8889e-06,0
0.325,-2.6352e-05,0
0.3255,-5.4048e-05,0
0.326,-6.1936e-05,0
0.3265,-5.2369e-05,0
0.327,-3.508e-05,0
0.3275,-1.3932e-05,0
0.328,2.5177e-06,0
0.3285,9.2317e-06,0
0.329,1.1749e-05,0
0.3295,1.6449e-05,0
0.33,2.7359e-05,0
0.3305,3.978e-05,0
0.331,4.5151e-05,0
0.3315,4.7837e-05,0
0.332,5.1194e-05,0
0.3325,5.5222e-05,0
0.333,5.774e-05,0
0.3335,5.6901e-05,0
0.334,4.918e-05,0
0.3345,3.6759e-05,0
0.335,2.3499e-05,0
0.3355,1.0239e-05,0
0.336,1.5106e-06,0
0.3365,-1.678e-07,0
0.337,3.8605e-06,0
0.3375,9.0639e-06,0
0.338,1.5274e-05,0
0.3385,2.2324e-05,0
0.339,2.5681e-05,0
0.3395,2.4674e-05,0
0.34,2.1317e-05,0
0.3405,1.5274e-05,0
0.341,1.1078e-05,0
0.3415,1.3932e-05,0
0.342,2.1317e-05,0
0.3425,2.9038e-05,0
0.343,3.6088e-05,0
0.3435,3.9109e-05,0
0.344,3.4409e-05,0
0.3445,2.6352e-05,0
0.345,2.2492e-05,0
0.3455,2.4002e-05,0
0.346,2.6017e-05,0
0.3465,2.3499e-05,0
0.347,1.8631e-05,0
0.3475,1.2924e-05,0
0.348,8.2246e-06,0
0.3485,8.3925e-06,0
0.349,1.1582e-05,0
0.3495,2.2324e-05,0
0.35,4.4144e-05,0
0.3505,6.7643e-05,0
0.351,8.3589e-05,0
0.3515,9.8192e-05,0
0.352,0.00011968,0
0.3525,0.0001326,0
0.353,0.00012169,0
0.3535,9.2485e-05,0
0.354,4.9515e-05,0
0.3545,-7.5532e-06,0
0.355,-5.6062e-05,0
0.3555,-8.2414e-05,0
0.356,-9.7185e-05,0
0.3565,-0.00011196,0
0.357,-0.0001237,0
0.3575,-0.00011531,0
0.358,-7.7546e-05,0
0.3585,-2.266e-05,0
0.359,2.3667e-05,0
0.3595,4.4312e-05,0
0.36,4.7333e-05,0
0.3605,4.3809e-05,0
0.361,3.6759e-05,0
0.3615,2.031e-05,0
0.362,-4.8676e-06,0
0.3625,-3.5248e-05,0
0.363,-7.0664e-05,0
0.3635,-9.5506e-05,0
0.364,-8.4764e-05,0
0.3645,-4.3137e-05,0
0.365,-1.8463e-06,0
0.3655,1.6953e-05,0
0.366,1.8631e-05,0
0.3665,1.8967e-05,0
0.367,1.9135e-05,0
0.3675,1.8463e-05,0
0.368,1.5946e-05,0
0.3685,1.2924e-05,0
0.369,1.2924e-05,0
0.3695,1.7121e-05,0
0.37,1.9974e-05,0
0.3705,2.3331e-05,0
0.371,2.6688e-05,0
0.3715,3.2059e-05,0
0.372,4.448e-05,0
0.3725,6.0929e-05,0
0.373,7.6707e-05,0
0.3735,8.7617e-05,0
0.374,9.3324e-05,0
0.3745,9.5842e-05,0
0.375,9.4499e-05,0
0.3755,8.5771e-05,0
0.376,6.865e-05,0
0.3765,4.3473e-05,0
0.377,1.4603e-05,0
0.3775,-1.091e-05,0
0.378,-1.9638e-05,0
0.3785,-1.2085e-05,0
0.379,-1.5106e-06,0
0.3795,7.0497e-06,0
0.38,1.4603e-05,0
0.3805,2.6688e-05,0
0.381,3.743e-05,0
0.3815,3.9612e-05,0
0.382,3.6088e-05,0
0.3825,2.9709e-05,0
0.383,2.2492e-05,0
0.3835,1.8967e-05,0
0.384,1.7288e-05,0
0.3845,1.8128e-05,0
0.385,2.3499e-05,0
0.3855,3.2563e-05,0
0.386,3.6423e-05,0
0.3865,3.0045e-05,0
0.387,2.3163e-05,0
0.3875,2.2324e-05,0
0.388,1.5778e-05,0
0.3885,-5.035e-07,0
0.389,-1.8631e-05,0
0.3895,-2.5681e-05,0
0.39,-2.6688e-05,0
0.3905,-2.5681e-05,0
0.391,-1.796e-05,0
0.3915,-3.5248e-06,0
0.392,1.1749e-05,0
0.3925,2.031e-05,0
0.393,2.2995e-05,0
0.3935,2.5681e-05,0
0.394,3.0045e-05,0
0.3945,3.3738e-05,0
0.395,3.7766e-05,0
0.3955,4.2634e-05,0
0.396,4.448e-05,0
0.3965,4.2634e-05,0
0.397,4.213e-05,0
0.3975,4.1123e-05,0
0.398,3.7095e-05,0
0.3985,3.6088e-05,0
0.399,3.4577e-05,0
0.3995,3.0213e-05,0
0.4,2.4842e-05,0
0.4005,2.0646e-05,0
0.401,2.2492e-05,0
0.4015,2.5681e-05,0
0.402,2.2492e-05,0
0.4025,1.326e-05,0
0.403,8.5603e-06,0
0.4035,1.9638e-05,0
0.404,4.4816e-05,0
0.4045,6.63e-05,0
0.405,7.6036e-05,0
0.4055,7.7043e-05,0
0.406,6.6636e-05,0
0.4065,4.683e-05,0
0.407,2.1988e-05,0
0.4075,-6.2104e-06,0
0.408,-2.7863e-05,0
0.4085,-3.7766e-05,0
0.409,-4.3473e-05,0
0.4095,-4.448e-05,0
0.41,-3.6927e-05,0
0.4105,-1.5946e-05,0
0.411,2.4506e-05,0
0.4115,7.0329e-05,0
0.412,0.00010256,0
0.4125,0.00011615,0
0.413,0.00011514,0
0.4135,9.7856e-05,0
0.414,7.0329e-05,0
0.4145,4.0787e-05,0
0.415,1.0575e-05,0
0.4155,-2.2324e-05,0
0.416,-6.8986e-05,0
0.4165,-0.00012404,0
0.417,-0.00015123,0
0.4175,-0.00012908,0
0.418,-7.9393e-05,0
0.4185,-3.508e-05,0
0.419,-1.0575e-05,0
0.4195,5.035e-07,0
0.42,4.5319e-06,0
0.4205,6.5461e-06,0
0.421,9.0639e-06,0
0.4215,1.4603e-05,0
0.422,2.4338e-05,0
0.4225,3.8102e-05,0
0.423,5.2201e-05,0
0.4235,6.0594e-05,0
0.424,6.3447e-05,0
0.4245,6.5965e-05,0
0.425,7.2343e-05,0
0.4255,7.9057e-05,0
0.426,7.6875e-05,0
0.4265,6.2944e-05,0
0.427,4.9683e-05,0
0.4275,4.8676e-05,0
0.428,4.9515e-05,0
0.4285,4.0116e-05,0
0.429,2.266e-05,0
0.4295,-1.8463e-06,0
0.43,-3.6423e-05,0
0.4305,-6.4958e-05,0
0.431,-6.5629e-05,0
0.4315,-4.3137e-05,0
0.432,-2.2492e-05,0
0.4325,-1.1078e-05,0
0.433,4.5319e-06,0
0.4335,2.4506e-05,0
0.434,3.9445e-05,0
0.4345,4.5823e-05,0
0.435,4.7501e-05,0
0.4355,4.8005e-05,0
0.436,4.5487e-05,0
0.4365,3.508e-05,0
0.437,1.326e-05,0
0.4375,-6.8818e-06,0
0.438,-1.9638e-05,0
0.4385,-1.9638e-05,0
0.439,-8.5603e-06,0
0.4395,4.1962e-06,0
0.44,1.2589e-05,0
0.4405,1.9638e-05,0
0.441,2.5681e-05,0
0.4415,2.7359e-05,0
0.442,2.6017e-05,0
0.4425,2.9206e-05,0
0.443,3.6088e-05,0
0.4435,3.9948e-05,0
0.444,3.8941e-05,0
0.4445,3.8773e-05,0
0.445,3.9277e-05,0
0.4455,3.4073e-05,0
0.446,2.1317e-05,0
0.4465,9.5674e-06,0
0.447,7.3854e-06,0
0.4475,1.0239e-05,0
0.448,1.6617e-05,0
0.4485,3.0381e-05,0
0.449,4.683e-05,0
0.4495,5.7908e-05,0
0.45,6.0594e-05,0
0.4505,5.7572e-05,0
0.451,4.8676e-05,0
0.4515,3.8605e-05,0
0.452,3.8773e-05,0
0.4525,5.2872e-05,0
0.453,6.4958e-05,0
0.4535,6.3279e-05,0
0.454,5.6062e-05,0
0.4545,5.2705e-05,0
0.455,4.9515e-05,0
0.4555,3.8773e-05,0
0.456,1.9303e-05,0
0.4565,-9.0639e-06,0
0.457,-5.2537e-05,0
0.4575,-8.6778e-05,0
0.458,-8.8457e-05,0
0.4585,-7.0161e-05,0
0.459,-4.7166e-05,0
0.4595,-2.8534e-05,0
0.46,-1.3932e-05,0
0.4605,6.5461e-06,0
0.461,2.6688e-05,0
0.4615,3.6255e-05,0
0.462,3.978e-05,0
0.4625,4.2634e-05,0
0.463,4.7333e-05,0
0.4635,5.5558e-05,0
0.464,6.6972e-05,0
0.4645,7.4693e-05,0
0.465,7.0832e-05,0
0.4655,5.4887e-05,0
0.466,3.6423e-05,0
0.4665,2.4002e-05,0
0.467,2.1988e-05,0
0.4675,1.6449e-05,0
0.468,-2.8534e-06,0
0.4685,-2.8031e-05,0
0.469,-4.1123e-05,0
0.4695,-3.3234e-05,0
0.47,-1.6114e-05,0
0.4705,-4.5319e-06,0
0.471,-3.1891e-06,0
0.4715,-8.896e-06,0
0.472,-1.4267e-05,0
0.4725,-7.8889e-06,0
0.473,1.1414e-05,0
0.4735,4.4648e-05,0
0.474,8.0064e-05,0
0.4745,0.00010524,0
0.475,0.00011783,0
0.4755,0.0001185,0
0.476,0.00010524,0
0.4765,8.1071e-05,0
0.477,5.3544e-05,0
0.4775,1.6617e-05,0
0.478,-3.7262e-05,0
0.4785,-9.8695e-05,0
0.479,-0.00013814,0
0.4795,-0.00013445,0
0.48,-9.8527e-05,0
0.4805,-5.3208e-05,0
0.481,-2.1653e-05,0
0.4815,-5.539e-06,0
0.482,2.8534e-06,0
0.4825,9.9031e-06,0
0.483,1.8967e-05,0
0.4835,2.8199e-05,0
0.484,3.8605e-05,0
0.4845,5.4551e-05,0
0.485,7.2343e-05,0
0.4855,8.2078e-05,0
0.486,8.1071e-05,0
0.4865,7.805e-05,0
0.487,7.2847e-05,0
0.4875,6.2776e-05,0
0.488,4.9348e-05,0
0.4885,3.6088e-05,0
0.489,2.7192e-05,0
0.4895,8.896e-06,0
0.49,-1.6617e-05,0
0.4905,-2.3331e-05,0
0.491,-7.8889e-06,0
0.4915,1.2253e-05,0
0.492,2.3667e-05,0
0.4925,2.9038e-05,0
0.493,3.4409e-05,0
0.4935,3.8941e-05,0
0.494,3.8773e-05,0
0.4945,3.3402e-05,0
0.495,2.8367e-05,0
0.4955,2.7024e-05,0
0.496,3.1556e-05,0
0.4965,4.0452e-05,0
0.497,4.8005e-05,0
0.4975,5.7404e-05,0
0.498,6.7308e-05,0
0.4985,7.3014e-05,0
0.499,7.0664e-05,0
0.4995,6.1265e-05,0
0.5,4.9348e-05,0
0.5005,3.6423e-05,0
0.501,1.7624e-05,0
0.5015,-1.6281e-05,0
0.502,-5.7237e-05,0
0.5025,-7.5364e-05,0
0.503,-6.479e-05,0
0.5035,-4.5823e-05,0
0.504,-3.0213e-05,0
0.5045,-1.796e-05,0
0.505,-6.2104e-06,0
0.5055,4.5319e-06,0
0.506,1.5946e-05,0
0.5065,3.1724e-05,0
0.507,4.7501e-05,0
0.5075,5.8076e-05,0
0.508,5.9419e-05,0
0.5085,5.3208e-05,0
0.509,4.3473e-05,0
0.5095,3.2731e-05,0
0.51,1.5946e-05,0
0.5105,-5.2033e-06,0
0.511,-1.7121e-05,0
0.5115,-1.8128e-05,0
0.512,-9.2317e-06,0
0.5125,7.5532e-06,0
0.513,1.947e-05,0
0.5135,2.4338e-05,0
0.514,2.5345e-05,0
0.5145,2.4674e-05,0
0.515,1.6953e-05,0
0.5155,3.5248e-06,0
0.516,-4.1962e-06,0
0.5165,-1.3428e-06,0
0.517,1.1078e-05,0
0.5175,2.5681e-05,0
0.518,3.4409e-05,0
0.5185,3.3738e-05,0
0.519,2.9877e-05,0
0.5195,3.2059e-05,0
0.52,3.8102e-05,0
0.5205,3.743e-05,0
0.521,3.0045e-05,0
0.5215,1.9303e-05,0
0.522,7.8889e-06,0
0.5225,1.678e-07,0
0.523,-2.8534e-06,0
0.5235,5.035e-07,0
0.524,8.7282e-06,0
0.5245,1.561e-05,0
0.525,1.6617e-05,0
0.5255,1.9303e-05,0
0.526,2.9374e-05,0
0.5265,4.9851e-05,0
0.527,7.0832e-05,0
0.5275,8.6442e-05,0
0.528,9.5171e-05,0
0.5285,9.1142e-05,0
0.529,8.4428e-05,0
0.5295,8.6107e-05,0
0.53,9.0974e-05,0
0.5305,8.3757e-05,0
0.531,5.3208e-05,0
0.5315,5.2033e-06,0
0.532,-3.8102e-05,0
0.5325,-6.1265e-05,0
0.533,-6.3615e-05,0
0.5335,-5.8076e-05,0
0.534,-6.3111e-05,0
0.5345,-8.9464e-05,0
0.535,-0.00012337,0
0.5355,-0.00012874,0
0.536,-0.00010004,0
0.5365,-6.2944e-05,0
0.537,-3.9109e-05,0
0.5375,-2.7527e-05,0
0.538,-1.796e-05,0
0.5385,-5.539e-06,0
0.539,5.7069e-06,0
0.5395,1.6617e-05,0
0.54,2.9038e-05,0
0.5405,3.6423e-05,0
0.541,3.8102e-05,0
0.5415,3.978e-05,0
0.542,4.3809e-05,0
0.5425,4.5319e-05,0
0.543,4.4984e-05,0
0.5435,4.683e-05,0
0.544,4.9348e-05,0
0.5445,4.8676e-05,0
0.545,4.3473e-05,0
0.5455,3.9445e-05,0
0.546,3.978e-05,0
0.5465,4.3977e-05,0
0.547,5.153e-05,0
0.5475,5.6733e-05,0
0.548,5.5558e-05,0
0.5485,5.623e-05,0
0.549,5.7572e-05,0
0.5495,5.4887e-05,0
0.55,4.918e-05,0
0.5505,4.2634e-05,0
0.551,4.0452e-05,0
0.5515,4.5991e-05,0
0.552,4.8844e-05,0
0.5525,4.2802e-05,0
0.553,3.508e-05,0
0.5535,3.0381e-05,0
0.554,3.0716e-05,0
0.5545,3.4241e-05,0
0.555,3.7766e-05,0
0.5555,4.3473e-05,0
0.556,5.069e-05,0
0.5565,5.3544e-05,0
0.557,4.9851e-05,0
0.5575,3.9109e-05,0
0.558,2.6017e-05,0
0.5585,1.4435e-05,0
0.559,5.8747e-06,0
0.5595,-1.8463e-06,0
0.56,-1.091e-05,0
0.5605,-1.1078e-05,0
0.561,8.392e-07,0
0.5615,1.9638e-05,0
0.562,3.6088e-05,0
0.5625,4.8676e-05,0
0.563,5.2201e-05,0
0.5635,4.1291e-05,0
0.564,2.417e-05,0
0.5645,1.1078e-05,0
0.565,5.035e-07,0
0.5655,-1.0575e-05,0
0.566,-1.9135e-05,0
0.5665,-1.9974e-05,0
0.567,-1.4435e-05,0
0.5675,-5.7069e-06,0
0.568,1.1749e-06,0
0.5685,8.5603e-06,0
0.569,1.9303e-05,0
0.5695,3.1556e-05,0
0.57,4.1123e-05,0
0.5705,4.7166e-05,0
0.571,4.683e-05,0
0.5715,4.0116e-05,0
0.572,3.3234e-05,0
0.5725,2.8702e-05,0
0.573,2.1317e-05,0
0.5735,1.1582e-05,0
0.574,1.6785e-06,0
0.5745,-3.8605e-06,0
0.575,-4.0284e-06,0
0.5755,7.7211e-06,0
0.576,3.7095e-05,0
0.5765,7.6036e-05,0
0.577,0.00010793,0
0.5775,0.00013361,0
0.578,0.00015425,0
0.5785,0.00016231,0
0.579,0.00014955,0
0.5795,0.00011162,0
0.58,4.7501e-05,0
0.5805,-4.0955e-05,0
0.581,-0.00014133,0
0.5815,-0.00022156,0
0.582,-0.00025379,0
0.5825,-0.000237,0
0.583,-0.00019605,0
0.5835,-0.00015476,0
0.584,-0.00011766,0
0.5845,-8.275e-05,0
0.585,-5.623e-05,0
0.5855,-3.7095e-05,0
0.586,-2.0142e-05,0
0.5865,-5.0355e-06,0
0.587,9.2317e-06,0
0.5875,2.2995e-05,0
0.588,3.2059e-05,0
0.5885,3.7934e-05,0
0.589,4.213e-05,0
0.5895,4.4312e-05,0
0.59,4.7501e-05,0
0.5905,5.1362e-05,0
0.591,5.153e-05,0
0.5915,5.3208e-05,0
0.592,6.1433e-05,0
0.5925,6.865e-05,0
0.593,6.9657e-05,0
0.5935,7.0329e-05,0
0.594,7.3014e-05,0
0.5945,7.5029e-05,0
0.595,7.4021e-05,0
0.5955,6.7643e-05,0
0.596,5.4383e-05,0
0.5965,3.4913e-05,0
0.597,2.1317e-05,0
0.5975,2.2324e-05,0
0.598,2.5849e-05,0
0.5985,2.5681e-05,0
0.599,2.8534e-05,0
0.5995,3.8102e-05,0
0.6,5.153e-05,0
0.6005,6.2608e-05,0
0.601,6.1265e-05,0
0.6015,5.1865e-05,0
0.602,4.6326e-05,0
0.6025,4.683e-05,0
0.603,4.7837e-05,0
0.6035,4.213e-05,0
0.604,2.652e-05,0
0.6045,6.5461e-06,0
0.605,8.392e-07,0
0.6055,1.326e-05,0
0.606,3.2731e-05,0
0.6065,4.6159e-05,0
0.607,4.6326e-05,0
0.6075,3.6088e-05,0
0.608,2.7192e-05,0
0.6085,2.1988e-05,0
0.609,2.2324e-05,0
0.6095,2.8367e-05,0
0.61,3.1724e-05,0
0.6105,2.9206e-05,0
0.611,2.2324e-05,0
0.6115,1.9303e-05,0
0.612,2.3835e-05,0
0.6125,2.4842e-05,0
0.613,1.4267e-05,0
0.6135,2.5177e-06,0
0.614,-2.182e-06,0
0.6145,8.392e-07,0
0.615,1.1749e-06,0
0.6155,-3.8605e-06,0
0.616,-4.1962e-06,0
0.6165,3.1891e-06,0
0.617,1.0575e-05,0
0.6175,1.7121e-05,0
0.618,2.2995e-05,0
0.6185,2.8031e-05,0
0.619,3.1724e-05,0
0.6195,3.0381e-05,0
0.62,2.7359e-05,0
0.6205,2.3667e-05,0
0.621,2.031e-05,0
0.6215,1.6953e-05,0
0.622,2.1317e-05,0
0.6225,3.6255e-05,0
0.623,4.6494e-05,0
0.6235,4.1123e-05,0
0.624,2.8702e-05,0
0.6245,2.2324e-05,0
0.625,2.5345e-05,0
0.6255,3.0381e-05,0
0.626,3.3234e-05,0
0.6265,3.3402e-05,0
0.627,3.0716e-05,0
0.6275,2.5849e-05,0
0.628,2.0981e-05,0
0.6285,1.2589e-05,0
0.629,0,0
0.6295,-1.326e-05,0
0.63,-2.5849e-05,0
0.6305,-3.5248e-05,0
0.631,-4.1123e-05,0
0.6315,-3.8941e-05,0
0.632,-2.5345e-05,0
0.6325,-1.8463e-06,0
0.633,2.1149e-05,0
0.6335,3.3906e-05,0
0.634,3.122e-05,0
0.6345,1.5946e-05,0
0.635,2.5177e-06,0
0.6355,1.678e-07,0
0.636,5.2033e-06,0
0.6365,8.5603e-06,0
0.637,1.1582e-05,0
0.6375,1.5946e-05,0
0.638,2.2324e-05,0
0.6385,2.652e-05,0
0.639,2.6352e-05,0
0.6395,2.3667e-05,0
0.64,1.326e-05,0
0.6405,1.0071e-06,0
0.641,1.5106e-06,0
0.6415,1.1917e-05,0
0.642,1.9974e-05,0
0.6425,2.9038e-05,0
0.643,4.4816e-05,0
0.6435,6.2104e-05,0
0.644,7.1e-05,0
0.6445,6.8986e-05,0
0.645,6.2944e-05,0
0.6455,5.1865e-05,0
0.646,3.1891e-05,0
0.6465,1.1917e-05,0
0.647,6.714e-07,0
0.6475,-8.2246e-06,0
0.648,-2.7359e-05,0
0.6485,-5.388e-05,0
0.649,-6.6468e-05,0
0.6495,-4.9012e-05,0
0.65,-1.0239e-05,0
0.6505,2.5345e-05,0
0.651,4.3473e-05,0
0.6515,4.7501e-05,0
0.652,4.1962e-05,0
0.6525,4.1123e-05,0
0.653,5.0355e-05,0
0.6535,5.6901e-05,0
0.654,5.069e-05,0
0.6545,3.4745e-05,0
0.655,1.9974e-05,0
0.6555,7.8889e-06,0
0.656,-6.2104e-06,0
0.6565,-1.3764e-05,0
0.657,-1.091e-05,0
0.6575,-7.5532e-06,0
0.658,-1.0239e-05,0
0.6585,-1.6281e-05,0
0.659,-1.561e-05,0
0.6595,-7.8889e-06,0
0.66,1.678e-07,0
0.6605,7.7211e-06,0
0.661,1.8631e-05,0
0.6615,2.9709e-05,0
0.662,3.2059e-05,0
0.6625,2.3499e-05,0
0.663,1.6281e-05,0
0.6635,1.7288e-05,0
0.664,2.1317e-05,0
0.6645,2.8031e-05,0
0.665,3.6088e-05,0
0.6655,3.6423e-05,0
0.666,2.9206e-05,0
0.6665,2.3331e-05,0
0.667,2.5009e-05,0
0.6675,2.8031e-05,0
0.668,2.8702e-05,0
0.6685,3.2563e-05,0
0.669,4.6326e-05,0
0.6695,6.5629e-05,0
0.67,7.6707e-05,0
0.6705,8.04e-05,0
0.671,8.04e-05,0
0.6715,7.4693e-05,0
0.672,6.1433e-05,0
0.6725,3.9445e-05,0
0.673,1.561e-05,0
0.6735,3.5248e-06,0
0.674,1.6785e-06,0
0.6745,3.5248e-06,0
0.675,8.5603e-06,0
0.6755,1.8631e-05,0
0.676,3.4577e-05,0
0.6765,5.4215e-05,0
0.677,6.865e-05,0
0.6775,6.7643e-05,0
0.678,5.2033e-05,0
0.6785,2.9374e-05,0
0.679,5.035e-07,0
0.6795,-3.122e-05,0
0.68,-4.8508e-05,0
0.6805,-4.8005e-05,0
0.681,-4.0955e-05,0
0.6815,-3.8437e-05,0
0.682,-4.4144e-05,0
0.6825,-5.1865e-05,0
0.683,-4.4816e-05,0
0.6835,-1.5946e-05,0
0.684,1.6617e-05,0
0.6845,3.5416e-05,0
0.685,3.6591e-05,0
0.6855,2.5681e-05,0
0.686,1.9974e-05,0
0.6865,2.5177e-05,0
0.687,3.0549e-05,0
0.6875,3.4073e-05,0
0.688,4.0619e-05,0
0.6885,4.9851e-05,0
0.689,5.1865e-05,0
0.6895,4.683e-05,0
0.69,4.1795e-05,0
0.6905,4.0116e-05,0
0.691,3.7262e-05,0
0.6915,3.4745e-05,0
0.692,3.0549e-05,0
0.6925,3.0213e-05,0
0.693,4.4984e-05,0
0.6935,7.7378e-05,0
0.694,0.00011783,0
0.6945,0.00014955,0
0.695,0.00015543,0
0.6955,0.00013848,0
0.696,0.0001091,0
0.6965,6.63e-05,0
0.697,7.7211e-06,0
0.6975,-6.0761e-05,0
0.698,-0.00012673,0
0.6985,-0.00017087,0
0.699,-0.0001749,0
0.6995,-0.00013797,0
0.7,-8.5435e-05,0
0.7005,-4.1795e-05,0
0.701,-1.4771e-05,0
0.7015,1.678e-07,0
0.702,1.1414e-05,0
0.7025,2.1149e-05,0
0.703,3.0549e-05,0
0.7035,3.7766e-05,0
0.704,3.9109e-05,0
0.7045,3.6088e-05,0
0.705,3.1891e-05,0
0.7055,3.0213e-05,0
0.706,3.1724e-05,0
0.7065,3.0045e-05,0
0.707,1.4939e-05,0
0.7075,-3.5248e-06,0
0.708,-6.5461e-06,0
0.7085,6.2104e-06,0
0.709,2.4338e-05,0
0.7095,4.1291e-05,0
0.71,5.0019e-05,0
0.7105,5.3208e-05,0
0.711,6.4118e-05,0
0.7115,8.426e-05,0
0.712,9.9535e-05,0
0.7125,0.00010323,0
0.713,0.00010491,0
0.7135,0.00010726,0
0.714,9.1142e-05,0
0.7145,4.8173e-05,0
0.715,-2.3499e-06,0
0.7155,-5.0523e-05,0
0.716,-9.4667e-05,0
0.7165,-0.00012874,0
0.717,-0.00013411,0
0.7175,-0.00011162,0
0.718,-8.1407e-05,0
0.7185,-5.4551e-05,0
0.719,-3.2731e-05,0
0.7195,-1.2757e-05,0
0.72,5.539e-06,0
0.7205,1.6449e-05,0
0.721,2.4674e-05,0
0.7215,4.2634e-05,0
0.722,6.5461e-05,0
0.7225,8.0064e-05,0
0.723,7.9728e-05,0
0.7235,6.9657e-05,0
0.724,5.9419e-05,0
0.7245,5.0019e-05,0
0.725,3.1724e-05,0
0.7255,3.5248e-06,0
0.726,-2.5849e-05,0
0.7265,-4.7837e-05,0
0.727,-5.2872e-05,0
0.7275,-3.7766e-05,0
0.728,-7.8889e-06,0
0.7285,2.6856e-05,0
0.729,4.8844e-05,0
0.7295,5.3208e-05,0
0.73,4.9515e-05,0
0.7305,4.0452e-05,0
0.731,2.6017e-05,0
0.7315,1.5274e-05,0
0.732,1.3596e-05,0
0.7325,1.2924e-05,0
0.733,5.8747e-06,0
0.7335,2.3499e-06,0
0.734,5.035e-07,0
0.7345,-4.3641e-06,0
0.735,-1.1078e-05,0
0.7355,-1.2757e-05,0
0.736,-4.5319e-06,0
0.7365,1.0575e-05,0
0.737,2.4002e-05,0
0.7375,2.9206e-05,0
0.738,2.8367e-05,0
0.7385,3.0381e-05,0
0.739,4.4144e-05,0
0.7395,5.8747e-05,0
0.74,6.2104e-05,0
0.7405,6.1433e-05,0
0.741,6.5126e-05,0
0.7415,7.1839e-05,0
0.742,7.57e-05,0
0.7425,7.3686e-05,0
0.743,6.3279e-05,0
0.7435,4.918e-05,0
0.744,3.743e-05,0
0.7445,2.9206e-05,0
0.745,1.9638e-05,0
0.7455,5.539e-06,0
0.746,-3.8605e-06,0
0.7465,-3.357e-07,0
0.747,1.4939e-05,0
0.7475,2.5345e-05,0
0.748,2.1988e-05,0
0.7485,1.8463e-05,0
0.749,2.5345e-05,0
0.7495,3.7095e-05,0
0.75,4.7837e-05,0
0.7505,5.153e-05,0
0.751,5.1865e-05,0
0.7515,5.6733e-05,0
0.752,6.2944e-05,0
0.7525,6.0258e-05,0
0.753,4.9515e-05,0
0.7535,3.978e-05,0
0.754,3.2059e-05,0
0.7545,3.0213e-05,0
0.755,3.5416e-05,0
0.7555,3.978e-05,0
0.756,3.6423e-05,0
0.7565,3.0381e-05,0
0.757,2.3163e-05,0
0.7575,1.5778e-05,0
0.758,9.9031e-06,0
0.7585,3.0213e-06,0
0.759,-5.2033e-06,0
0.7595,-1.1749e-05,0
0.76,-7.3854e-06,0
0.7605,9.5674e-06,0
0.761,2.7695e-05,0
0.7615,3.827e-05,0
0.762,4.5823e-05,0
0.7625,6.3279e-05,0
0.763,8.3757e-05,0
0.7635,8.9799e-05,0
0.764,7.805e-05,0
0.7645,5.4048e-05,0
0.765,2.4674e-05,0
0.7655,-1.6785e-06,0
0.766,-1.2589e-05,0
0.7665,-2.1653e-05,0
0.767,-5.0019e-05,0
0.7675,-8.275e-05,0
0.768,-9.2149e-05,0
0.7685,-7.6707e-05,0
0.769,-4.9683e-05,0
0.7695,-2.5849e-05,0
0.77,-2.4674e-05,0
0.7705,-3.8773e-05,0
0.771,-5.388e-05,0
0.7715,-6.3951e-05,0
0.772,-5.9922e-05,0
0.7725,-4.8173e-05,0
0.773,-3.9445e-05,0
0.7735,-2.4842e-05,0
0.774,-5.7069e-06,0
0.7745,9.3996e-06,0
0.775,2.4002e-05,0
0.7755,5.4719e-05,0
0.776,9.7185e-05,0
0.7765,0.00013411,0
0.777,0.00015258,0
0.7775,0.00014754,0
0.778,0.00012303,0
0.7785,8.5435e-05,0
0.779,4.1123e-05,0
0.7795,-5.8747e-06,0
0.78,-5.7404e-05,0
0.7805,-0.00010105,0
0.781,-0.00011128,0
0.7815,-8.9967e-05,0
0.782,-6.0761e-05,0
0.7825,-3.743e-05,0
0.783,-1.7624e-05,0
0.7835,2.5177e-06,0
0.784,2.0478e-05,0
0.7845,2.9374e-05,0
0.785,2.8367e-05,0
0.7855,2.7695e-05,0
0.786,3.0716e-05,0
0.7865,3.743e-05,0
0.787,4.683e-05,0
0.7875,5.4551e-05,0
0.788,5.3544e-05,0
0.7885,4.8676e-05,0
0.789,4.7501e-05,0
0.7895,5.0858e-05,0
0.79,5.0187e-05,0
0.7905,4.2466e-05,0
0.791,3.0381e-05,0
0.7915,1.8631e-05,0
0.792,1.4771e-05,0
0.7925,1.8296e-05,0
0.793,1.7624e-05,0
0.7935,1.2924e-05,0
0.794,1.1414e-05,0
0.7945,2.1317e-05,0
0.795,4.2466e-05,0
0.7955,6.9993e-05,0
0.796,9.6178e-05,0
0.7965,0.00011498,0
0.797,0.00011632,0
0.7975,9.5171e-05,0
0.798,6.7308e-05,0
0.7985,4.6494e-05,0
0.799,2.1149e-05,0
0.7995,-2.0646e-05,0
0.8,-6.5965e-05,0
0.8005,-9.2149e-05,0
0.801,-8.8792e-05,0
0.8015,-6.7643e-05,0
0.802,-3.9109e-05,0
0.8025,-1.4099e-05,0
0.803,-3.8605e-06,0
0.8035,8.2246e-06,0
0.804,3.6088e-05,0
0.8045,6.5126e-05,0
0.805,7.57e-05,0
0.8055,6.3279e-05,0
0.806,3.7262e-05,0
0.8065,1.091e-05,0
0.807,-8.2246e-06,0
0.8075,-1.8631e-05,0
0.808,-2.3835e-05,0
0.8085,-1.7792e-05,0
0.809,-4.6998e-06,0
0.8095,1.0575e-05,0
0.81,1.6617e-05,0
0.8105,1.0575e-05,0
0.811,1.0575e-05,0
0.8115,2.8367e-05,0
0.812,5.4887e-05,0
0.8125,8.0064e-05,0
0.813,9.7856e-05,0
0.8135,0.00010323,0
0.814,9.6513e-05,0
0.8145,8.1575e-05,0
0.815,6.3615e-05,0
0.8155,3.592e-05,0
0.816,-5.2033e-06,0
0.8165,-4.5655e-05,0
0.817,-7.0497e-05,0
0.8175,-7.1336e-05,0
0.818,-4.7333e-05,0
0.8185,-1.1246e-05,0
0.819,1.8296e-05,0
0.8195,3.3402e-05,0
0.82,3.8605e-05,0
0.8205,4.4984e-05,0
0.821,5.6565e-05,0
0.8215,6.4958e-05,0
0.822,5.6062e-05,0
0.8225,3.3906e-05,0
0.823,1.5442e-05,0
0.8235,-2.5177e-06,0
0.824,-2.4338e-05,0
0.8245,-4.3641e-05,0
0.825,-5.1194e-05,0
0.8255,-4.3473e-05,0
0.826,-2.9709e-05,0
0.8265,-1.6114e-05,0
0.827,-2.5177e-06,0
0.8275,7.2175e-06,0
0.828,1.1582e-05,0
0.8285,9.2317e-06,0
0.829,4.6998e-06,0
0.8295,8.7282e-06,0
0.83,2.5681e-05,0
0.8305,4.4144e-05,0
0.831,4.8676e-05,0
0.8315,3.9277e-05,0
0.832,3.1556e-05,0
0.8325,3.1724e-05,0
0.833,3.6759e-05,0
0.8335,4.3977e-05,0
0.834,5.2872e-05,0
0.8345,5.9587e-05,0
0.835,5.8747e-05,0
0.8355,4.9515e-05,0
0.836,3.6423e-05,0
0.8365,2.1988e-05,0
0.837,9.2317e-06,0
0.8375,-8.392e-07,0
0.838,-1.2085e-05,0
0.8385,-2.6017e-05,0
0.839,-2.6688e-05,0
0.8395,-5.8747e-06,0
0.84,2.9206e-05,0
0.8405,6.1769e-05,0
0.841,7.3854e-05,0
0.8415,6.4286e-05,0
0.842,4.8676e-05,0
0.8425,4.0116e-05,0
0.843,3.9948e-05,0
0.8435,4.1459e-05,0
0.844,3.8773e-05,0
0.8445,3.1724e-05,0
0.845,2.0813e-05,0
0.8455,1.0575e-05,0
0.846,6.714e-06,0
0.8465,1.0575e-05,0
0.847,1.2589e-05,0
0.8475,9.7353e-06,0
0.848,5.3712e-06,0
0.8485,8.5603e-06,0
0.849,2.8031e-05,0
0.8495,4.918e-05,0
0.85,5.153e-05,0
0.8505,3.8773e-05,0
0.851,2.7359e-05,0
0.8515,2.6352e-05,0
0.852,3.357e-05,0
0.8525,3.9948e-05,0
0.853,3.9109e-05,0
0.8535,4.2466e-05,0
0.854,5.8915e-05,0
0.8545,7.9057e-05,0
0.855,8.5771e-05,0
0.8555,7.1504e-05,0
0.856,4.3809e-05,0
0.8565,1.1246e-05,0
0.857,-2.5345e-05,0
0.8575,-7.5364e-05,0
0.858,-0.00013126,0
0.8585,-0.00016584,0
0.859,-0.00016164,0
0.8595,-0.00012589,0
0.86,-7.805e-05,0
0.8605,-4.0619e-05,0
0.861,-2.6688e-05,0
0.8615,-3.0381e-05,0
0.862,-3.5248e-05,0
0.8625,-3.2898e-05,0
0.863,-1.8463e-05,0
0.8635,4.3641e-06,0
0.864,1.8296e-05,0
0.8645,2.1317e-05,0
0.865,2.9374e-05,0
0.8655,4.6494e-05,0
0.866,6.8818e-05,0
0.8665,9.6178e-05,0
0.867,0.00011363,0
0.8675,0.00010625,0
0.868,8.8457e-05,0
0.8685,8.2414e-05,0
0.869,8.8121e-05,0
0.8695,9.366e-05,0
0.87,9.4835e-05,0
0.8705,9.3828e-05,0
0.871,8.6275e-05,0
0.8715,6.7643e-05,0
0.872,4.3473e-05,0
0.8725,1.2924e-05,0
0.873,-1.561e-05,0
0.8735,-2.6017e-05,0
0.874,-1.7624e-05,0
0.8745,-4.8676e-06,0
0.875,5.0355e-06,0
0.8755,1.4603e-05,0
0.876,2.6184e-05,0
0.8765,3.7934e-05,0
0.877,4.7166e-05,0
0.8775,5.623e-05,0
0.878,6.5461e-05,0
0.8785,7.1336e-05,0
0.879,6.9657e-05,0
0.8795,5.8915e-05,0
0.88,3.9445e-05,0
0.8805,1.1917e-05,0
0.881,-1.1917e-05,0
0.8815,-2.8367e-05,0
0.882,-4.683e-05,0
0.8825,-6.3951e-05,0
0.883,-6.63e-05,0
0.8835,-5.2872e-05,0
0.884,-3.3738e-05,0
0.8845,-1.9135e-05,0
0.885,-2.182e-06,0
0.8855,2.182e-05,0
0.886,3.6088e-05,0
0.8865,3.1052e-05,0
0.887,2.1988e-05,0
0.8875,2.8534e-05,0
0.888,4.7501e-05,0
0.8885,6.4286e-05,0
0.889,6.6972e-05,0
0.8895,5.5894e-05,0
0.89,4.0955e-05,0
0.8905,3.6591e-05,0
0.891,3.9445e-05,0
0.8915,3.4745e-05,0
0.892,2.4002e-05,0
0.8925,1.5946e-05,0
0.893,9.9031e-06,0
0.8935,1.8463e-06,0
0.894,2.3499e-06,0
0.8945,1.5946e-05,0
0.895,3.4073e-05,0
0.8955,5.0858e-05,0
0.896,6.4286e-05,0
0.8965,6.5461e-05,0
0.897,6.1601e-05,0
0.8975,5.7404e-05,0
0.898,4.8508e-05,0
0.8985,3.8102e-05,0
0.899,3.3906e-05,0
0.8995,4.1459e-05,0
0.9,5.8244e-05,0
0.9005,6.7643e-05,0
0.901,5.9251e-05,0
0.9015,4.1459e-05,0
0.902,2.1317e-05,0
0.9025,5.2033e-06,0
0.903,-7.5532e-06,0
0.9035,-2.1653e-05,0
0.904,-3.6088e-05,0
0.9045,-4.213e-05,0
0.905,-4.0955e-05,0
0.9055,-3.978e-05,0
0.906,-3.7262e-05,0
0.9065,-2.8199e-05,0
0.907,-1.7624e-05,0
0.9075,-1.3764e-05,0
0.908,-1.5106e-05,0
0.9085,-1.0239e-05,0
0.909,3.1891e-06,0
0.9095,1.947e-05,0
0.91,3.0716e-05,0
0.9105,3.743e-05,0
0.911,4.6159e-05,0
0.9115,5.539e-05,0
0.912,5.7404e-05,0
0.9125,5.0523e-05,0
0.913,3.7934e-05,0
0.9135,2.5345e-05,0
0.914,1.7288e-05,0
0.9145,1.1414e-05,0
0.915,1.0575e-05,0
0.9155,1.5106e-05,0
0.916,1.3596e-05,0
0.9165,9.7353e-06,0
0.917,1.1582e-05,0
0.9175,1.3932e-05,0
0.918,8.2246e-06,0
0.9185,-8.896e-06,0
0.919,-1.9638e-05,0
0.9195,-1.0239e-05,0
0.92,1.2589e-05,0
0.9205,3.5752e-05,0
0.921,5.2201e-05,0
0.9215,5.8915e-05,0
0.922,5.2201e-05,0
0.9225,3.8102e-05,0
0.923,2.5009e-05,0
0.9235,1.0575e-05,0
0.924,-6.2104e-06,0
0.9245,-1.5106e-05,0
0.925,-1.5274e-05,0
0.9255,-2.3667e-05,0
0.926,-3.4409e-05,0
0.9265,-3.122e-05,0
0.927,-8.3925e-06,0
0.9275,2.266e-05,0
0.928,5.539e-05,0
0.9285,9.7185e-05,0
0.929,0.0001326,0
0.9295,0.00014351,0
0.93,0.0001321,0
0.9305,0.00010726,0
0.931,7.0497e-05,0
0.9315,1.6281e-05,0
0.932,-5.4551e-05,0
0.9325,-0.00012941,0
0.933,-0.00018732,0
0.9335,-0.00020092,0
0.934,-0.00016902,0
0.9345,-0.00011296,0
0.935,-5.9251e-05,0
0.9355,-1.9638e-05,0
0.936,1.8463e-06,0
0.9365,1.091e-05,0
0.937,2.1988e-05,0
0.9375,3.7095e-05,0
0.938,4.8173e-05,0
0.9385,5.9419e-05,0
0.939,7.4861e-05,0
0.9395,9.9702e-05,0
0.94,0.00013075,0
0.9405,0.0001556,0
0.941,0.00016097,0
0.9415,0.00014385,0
0.942,0.00011162,0
0.9425,7.5532e-05,0
0.943,4.6494e-05,0
0.9435,1.8463e-05,0
0.944,-1.4603e-05,0
0.9445,-4.8844e-05,0
0.945,-7.805e-05,0
0.9455,-8.7617e-05,0
0.946,-6.7475e-05,0
0.9465,-2.7695e-05,0
0.947,5.0355e-06,0
0.9475,1.7624e-05,0
0.948,1.8296e-05,0
0.9485,2.2492e-05,0
0.949,4.1962e-05,0
0.9495,6.2272e-05,0
0.95,6.8147e-05,0
0.9505,6.2104e-05,0
0.951,5.6565e-05,0
0.9515,5.7237e-05,0
0.952,5.4215e-05,0
0.9525,4.2802e-05,0
0.953,2.6352e-05,0
0.9535,7.2175e-06,0
0.954,-8.2246e-06,0
0.9545,-1.7288e-05,0
0.955,-1.5274e-05,0
0.9555,-9.5674e-06,0
0.956,-1.0575e-05,0
0.9565,-1.0239e-05,0
0.957,-5.539e-06,0
0.9575,6.714e-07,0
0.958,6.8818e-06,0
0.9585,1.5106e-05,0
0.959,2.1653e-05,0
0.9595,2.2828e-05,0
0.96,2.266e-05,0
0.9605,3.0716e-05,0
0.961,4.683e-05,0
0.9615,5.5558e-05,0
0.962,5.3544e-05,0
0.9625,5.069e-05,0
0.963,4.5151e-05,0
0.9635,3.7095e-05,0
0.964,3.4745e-05,0
0.9645,3.9109e-05,0
0.965,3.5752e-05,0
0.9655,1.9974e-05,0
0.966,1.8463e-06,0
0.9665,-7.5532e-06,0
0.967,-7.3854e-06,0
0.9675,-6.8818e-06,0
0.968,-1.1749e-05,0
0.9685,-1.6281e-05,0
0.969,-2.031e-05,0
0.9695,-2.0646e-05,0
0.97,-9.5674e-06,0
0.9705,6.8818e-06,0
0.971,2.1317e-05,0
0.9715,2.4674e-05,0
0.972,1.8463e-05,0
0.9725,1.5946e-05,0
0.973,1.8463e-05,0
0.9735,1.947e-05,0
0.974,1.9974e-05,0
0.9745,2.2324e-05,0
0.975,2.8367e-05,0
0.9755,3.6591e-05,0
0.976,3.978e-05,0
0.9765,3.6759e-05,0
0.977,3.6088e-05,0
0.9775,3.9445e-05,0
0.978,4.5487e-05,0
0.9785,5.8244e-05,0
0.979,8.1407e-05,0
0.9795,0.00010004,0
0.98,0.00010272,0
0.9805,9.8863e-05,0
0.981,8.8792e-05,0
0.9815,7.1672e-05,0
0.982,5.1194e-05,0
0.9825,1.9638e-05,0
0.983,-2.7024e-05,0
0.9835,-7.5364e-05,0
0.984,-0.00010541,0
0.9845,-0.00010222,0
0.985,-7.4357e-05,0
0.9855,-4.7166e-05,0
0.986,-3.0045e-05,0
0.9865,-1.3932e-05,0
0.987,1.5106e-06,0
0.9875,9.3996e-06,0
0.988,1.4939e-05,0
0.9885,2.5681e-05,0
0.989,4.2802e-05,0
0.9895,5.4887e-05,0
0.99,5.4887e-05,0
0.9905,4.8508e-05,0
0.991,3.7262e-05,0
0.9915,2.2995e-05,0
0.992,1.2421e-05,0
0.9925,5.2033e-06,0
0.993,-2.5177e-06,0
0.9935,-1.091e-05,0
0.994,-1.8296e-05,0
0.9945,-1.7121e-05,0
0.995,-2.182e-06,0
0.9955,1.6617e-05,0
0.996,2.7024e-05,0
0.9965,3.2731e-05,0
0.997,4.213e-05,0
0.9975,5.6565e-05,0
0.998,7.4357e-05,0
0.9985,9.2821e-05,0
0.999,0.00010726,0
0.9995,0.00010726,0
1,9.2485e-05,0
1.0005,6.7643e-05,0
1.001,3.9277e-05,0
1.0015,9.5674e-06,0
1.002,-2.3835e-05,0
1.0025,-5.0858e-05,0
1.003,-5.623e-05,0
1.0035,-4.213e-05,0
1.004,-2.9709e-05,0
1.0045,-2.6017e-05,0
1.005,-2.2324e-05,0
1.0055,-2.2995e-05,0
1.006,-3.2731e-05,0
1.0065,-4.0619e-05,0
1.007,-3.4913e-05,0
1.0075,-1.6785e-05,0
1.008,1.0575e-05,0
1.0085,3.7095e-05,0
1.009,5.388e-05,0
1.0095,5.8579e-05,0
1.01,5.4551e-05,0
1.0105,4.2802e-05,0
1.011,2.7024e-05,0
1.0115,1.0239e-05,0
1.012,-2.6856e-06,0
1.0125,-3.0213e-06,0
1.013,2.5177e-06,0
1.0135,4.0284e-06,0
1.014,3.5248e-06,0
1.0145,3.5248e-06,0
1.015,4.1962e-06,0
1.0155,8.3925e-06,0
1.016,1.2757e-05,0
1.0165,1.7624e-05,0
1.017,2.2828e-05,0
1.0175,2.5849e-05,0
1.018,3.3738e-05,0
1.0185,5.4215e-05,0
1.019,8.2246e-05,0
1.0195,0.00010172,0
1.02,9.6513e-05,0
1.0205,7.7714e-05,0
1.021,6.2272e-05,0
1.0215,5.0019e-05,0
1.022,2.8534e-05,0
1.0225,2.5177e-06,0
1.023,-1.1917e-05,0
1.0235,-1.5274e-05,0
1.024,-8.896e-06,0
1.0245,1.5106e-06,0
1.025,1.4939e-05,0
1.0255,3.2731e-05,0
1.026,5.0187e-05,0
1.0265,5.8915e-05,0
1.027,5.6565e-05,0
1.0275,3.978e-05,0
1.028,1.3596e-05,0
1.0285,-9.3996e-06,0
1.029,-1.091e-05,0
1.0295,1.1917e-05,0
1.03,4.2802e-05,0
1.0305,6.479e-05,0
1.031,7.8553e-05,0
1.0315,8.745e-05,0
1.032,8.8121e-05,0
1.0325,8.1575e-05,0
1.033,6.8315e-05,0
1.0335,4.0787e-05,0
1.034,-2.3499e-06,0
1.0345,-4.213e-05,0
1.035,-6.5293e-05,0
1.0355,-8.0232e-05,0
1.036,-8.8792e-05,0
1.0365,-7.8553e-05,0
1.037,-5.4048e-05,0
1.0375,-3.7262e-05,0
1.038,-3.6088e-05,0
1.0385,-3.7766e-05,0
1.039,-2.3667e-05,0
1.0395,-3.0213e-06,0
1.04,3.5248e-06,0
1.0405,6.3783e-06,0
1.041,3.0549e-05,0
1.0415,7.6707e-05,0
1.042,0.00012001,0
1.0425,0.00014351,0
1.043,0.0001462,0
1.0435,0.0001331,0
1.044,0.00011095,0
1.0445,7.8889e-05,0
1.045,3.7262e-05,0
1.0455,-6.2104e-06,0
1.046,-5.6565e-05,0
1.0465,-0.00011078,0
1.047,-0.0001368,0
1.0475,-0.00012001,0
1.048,-8.0064e-05,0
1.0485,-4.0787e-05,0
1.049,-1.2589e-05,0
1.0495,6.3783e-06,0
1.05,1.796e-05,0
1.0505,2.4338e-05,0
1.051,2.8031e-05,0
1.0515,2.9374e-05,0
1.052,3.1724e-05,0
1.0525,3.2898e-05,0
1.053,3.6088e-05,0
1.0535,3.8605e-05,0
1.054,3.8437e-05,0
1.0545,3.743e-05,0
1.055,3.3738e-05,0
1.0555,2.6688e-05,0
1.056,2.031e-05,0
1.0565,2.5009e-05,0
1.057,4.5991e-05,0
1.0575,6.7475e-05,0
1.058,7.2511e-05,0
1.0585,6.4286e-05,0
1.059,5.1194e-05,0
1.0595,3.9277e-05,0
1.06,2.6352e-05,0
1.0605,9.9031e-06,0
1.061,-3.5248e-06,0
1.0615,-1.1582e-05,0
1.062,-1.326e-05,0
1.0625,-8.392e-07,0
1.063,1.9303e-05,0
1.0635,3.9445e-05,0
1.064,6.7308e-05,0
1.0645,0.00010591,0
1.065,0.00013445,0
1.0655,0.00013143,0
1.066,0.00010457,0
1.0665,6.6133e-05,0
1.067,1.4603e-05,0
1.0675,-4.213e-05,0
1.068,-8.6107e-05,0
1.0685,-0.00011061,0
1.069,-0.00012572,0
1.0695,-0.00013344,0
1.07,-0.00011867,0
1.0705,-7.7714e-05,0
1.071,-3.1724e-05,0
1.0715,1.1749e-06,0
1.072,1.6617e-05,0
1.0725,2.2492e-05,0
1.073,2.4338e-05,0
1.0735,2.5849e-05,0
1.074,2.8031e-05,0
1.0745,3.2059e-05,0
1.075,3.8773e-05,0
1.0755,4.7333e-05,0
1.076,5.3544e-05,0
1.0765,5.3544e-05,0
1.077,4.6494e-05,0
1.0775,3.743e-05,0
1.078,3.2059e-05,0
1.0785,3.3738e-05,0
1.079,3.8102e-05,0
1.0795,3.8773e-05,0
1.08,3.6423e-05,0
1.0805,3.3066e-05,0
1.081,3.1052e-05,0
1.0815,3.2059e-05,0
1.082,3.4409e-05,0
1.0825,3.5416e-05,0
1.083,3.4745e-05,0
1.0835,3.3906e-05,0
1.084,3.9948e-05,0
1.0845,5.2872e-05,0
1.085,6.4118e-05,0
1.0855,7.3686e-05,0
1.086,8.4932e-05,0
1.0865,9.1814e-05,0
1.087,9.2149e-05,0
1.0875,9.0806e-05,0
1.088,9.0303e-05,0
1.0885,8.4764e-05,0
1.089,6.4958e-05,0
1.0895,2.7359e-05,0
1.09,-2.031e-05,0
1.0905,-6.1601e-05,0
1.091,-7.9057e-05,0
1.0915,-6.2104e-05,0
1.092,-2.5345e-05,0
1.0925,6.0426e-06,0
1.093,2.3835e-05,0
1.0935,3.8437e-05,0
1.094,5.7572e-05,0
1.0945,7.1336e-05,0
1.095,6.5461e-05,0
1.0955,3.7934e-05,0
1.096,2.8534e-06,0
1.0965,-2.9709e-05,0
1.097,-5.0019e-05,0
1.0975,-5.3376e-05,0
1.098,-4.4984e-05,0
1.0985,-3.1388e-05,0
1.099,-1.3596e-05,0
1.0995,7.2175e-06,0
1.1,2.7527e-05,0
1.1005,4.3473e-05,0
1.101,5.3208e-05,0
1.1015,5.5222e-05,0
1.102,5.0858e-05,0
1.1025,4.3473e-05,0
1.103,3.3402e-05,0
1.1035,1.7792e-05,0
1.104,-6.8818e-06,0
1.1045,-2.7695e-05,0
1.105,-3.508e-05,0
1.1055,-3.1388e-05,0
1.106,-1.9806e-05,0
1.1065,-6.8818e-06,0
1.107,-2.182e-06,0
1.1075,-6.8818e-06,0
1.108,-1.0575e-05,0
1.1085,-5.539e-06,0
1.109,3.1891e-06,0
1.1095,8.0568e-06,0
1.11,1.091e-05,0
1.1105,1.2589e-05,0
1.111,1.2924e-05,0
1.1115,1.4603e-05,0
1.112,1.9135e-05,0
1.1125,2.1317e-05,0
1.113,2.266e-05,0
1.1135,2.4674e-05,0
1.114,2.9374e-05,0
1.1145,3.6088e-05,0
1.115,4.2802e-05,0
1.1155,4.5151e-05,0
1.116,4.6494e-05,0
1.1165,6.479e-05,0
1.117,0.00010625,0
1.1175,0.00014083,0
1.118,0.0001425,0
1.1185,0.00011699,0
1.119,8.3421e-05,0
1.1195,5.3544e-05,0
1.12,2.9374e-05,0
1.1205,1.678e-07,0
1.121,-4.8508e-05,0
1.1215,-0.00011246,0
1.122,-0.00015627,0
1.1225,-0.00014267,0
1.123,-7.3518e-05,0
1.1235,-4.6998e-06,0
1.124,2.8031e-05,0
1.1245,3.2059e-05,0
1.125,2.5345e-05,0
1.1255,1.5778e-05,0
1.126,8.896e-06,0
1.1265,2.5177e-06,0
1.127,-4.1962e-06,0
1.1275,-8.7282e-06,0
1.128,-6.8818e-06,0
1.1285,0,0
1.129,1.4435e-05,0
1.1295,3.7766e-05,0
1.13,6.1601e-05,0
1.1305,7.5029e-05,0
1.131,7.5868e-05,0
1.1315,6.8818e-05,0
1.132,5.4215e-05,0
1.1325,3.4577e-05,0
1.133,1.0239e-05,0
1.1335,-2.2156e-05,0
1.134,-5.5222e-05,0
1.1345,-6.8315e-05,0
1.135,-5.4383e-05,0
1.1355,-3.2395e-05,0
1.136,-1.7792e-05,0
1.1365,-3.5248e-06,0
1.137,1.6617e-05,0
1.1375,4.0619e-05,0
1.138,6.0594e-05,0
1.1385,6.5629e-05,0
1.139,6.2272e-05,0
1.1395,5.7237e-05,0
1.14,5.3544e-05,0
1.1405,6.0258e-05,0
1.141,8.04e-05,0
1.1415,9.752e-05,0
1.142,9.7856e-05,0
1.1425,9.2485e-05,0
1.143,8.9632e-05,0
1.1435,8.4093e-05,0
1.144,6.5965e-05,0
1.1445,3.0716e-05,0
1.145,-1.326e-05,0
1.1455,-5.5894e-05,0
1.146,-9.5171e-05,0
1.1465,-0.00013042,0
1.147,-0.00014586,0
1.1475,-0.00013176,0
1.148,-0.00010088,0
1.1485,-6.7811e-05,0
1.149,-3.592e-05,0
1.1495,-9.5674e-06,0
1.15,7.3854e-06,0
1.1505,1.796e-05,0
1.151,3.0716e-05,0
1.1515,3.9445e-05,0
1.152,4.213e-05,0
1.1525,4.7837e-05,0
1.153,5.8244e-05,0
1.1535,6.4958e-05,0
1.154,6.7643e-05,0
1.1545,7.1336e-05,0
1.155,7.4693e-05,0
1.1555,7.5029e-05,0
1.156,7.3686e-05,0
1.1565,6.949e-05,0
1.157,6.5293e-05,0
1.1575,6.3279e-05,0
1.158,6.1265e-05,0
1.1585,5.1865e-05,0
1.159,3.7095e-05,0
1.1595,3.3402e-05,0
1.16,4.0116e-05,0
1.1605,4.213e-05,0
1.161,3.2731e-05,0
1.1615,1.2924e-05,0
1.162,-6.5461e-06,0
1.1625,-1.6785e-05,0
1.163,-1.3932e-05,0
1.1635,1.326e-05,0
1.164,5.2369e-05,0
1.1645,7.9728e-05,0
1.165,8.8457e-05,0
1.1655,8.1407e-05,0
1.166,5.5558e-05,0
1.1665,1.8296e-05,0
1.167,-1.4603e-05,0
1.1675,-3.9948e-05,0
1.168,-6.4286e-05,0
1.1685,-8.6778e-05,0
1.169,-9.4835e-05,0
1.1695,-8.0232e-05,0
1.17,-5.069e-05,0
1.1705,-2.1988e-05,0
1.171,-3.0213e-06,0
1.1715,8.2246e-06,0
1.172,1.5778e-05,0
1.1725,2.4002e-05,0
1.173,3.2731e-05,0
1.1735,3.9948e-05,0
1.174,4.1795e-05,0
1.1745,4.2802e-05,0
1.175,4.8173e-05,0
1.1755,5.4215e-05,0
1.176,5.5222e-05,0
1.1765,5.2201e-05,0
1.177,4.4816e-05,0
1.1775,3.2059e-05,0
1.178,2.0646e-05,0
1.1785,1.4603e-05,0
1.179,1.7121e-05,0
1.1795,2.5009e-05,0
1.18,3.3066e-05,0
1.1805,4.7837e-05,0
1.181,7.2679e-05,0
1.1815,9.2821e-05,0
1.182,9.4499e-05,0
1.1825,8.04e-05,0
1.183,5.9419e-05,0
1.1835,3.2395e-05,0
1.184,-5.8747e-06,0
1.1845,-4.1627e-05,0
1.185,-5.2369e-05,0
1.1855,-3.8437e-05,0
1.186,-2.1653e-05,0
1.1865,-1.091e-05,0
1.187,5.035e-07,0
1.1875,1.796e-05,0
1.188,3.8773e-05,0
1.1885,5.2872e-05,0
1.189,5.6901e-05,0
1.1895,5.8244e-05,0
1.19,6.0929e-05,0
1.1905,6.1265e-05,0
1.191,5.3544e-05,0
1.1915,3.6759e-05,0
1.192,1.2421e-05,0
1.1925,-1.3092e-05,0
1.193,-3.2059e-05,0
1.1935,-3.9109e-05,0
1.194,-3.508e-05,0
1.1945,-3.2898e-05,0
1.195,-3.5752e-05,0
1.1955,-3.3234e-05,0
1.196,-1.7624e-05,0
1.1965,6.5461e-06,0
1.197,2.6688e-05,0
1.1975,4.0116e-05,0
1.198,5.0187e-05,0
1.1985,5.8915e-05,0
1.199,6.714e-05,0
1.1995,7.3014e-05,0
1.2,7.3014e-05,0
1.2005,6.7643e-05,0
1.201,5.9587e-05,0
1.2015,4.9348e-05,0
1.202,3.3402e-05,0
1.2025,7.7211e-06,0
1.203,-2.6688e-05,0
1.2035,-5.3208e-05,0
1.204,-5.6397e-05,0
1.2045,-3.8773e-05,0
1.205,-2.5849e-05,0
1.2055,-2.4842e-05,0
1.206,-2.0142e-05,0
1.2065,-6.3783e-06,0
1.207,3.357e-06,0
1.2075,-5.035e-07,0
1.208,-7.5532e-06,0
1.2085,1.5106e-06,0
1.209,3.0045e-05,0
1.2095,5.8915e-05,0
1.21,7.4861e-05,0
1.2105,8.1743e-05,0
1.211,7.9728e-05,0
1.2115,7.6036e-05,0
1.212,7.0664e-05,0
1.2125,4.9515e-05,0
1.213,8.5603e-06,0
1.2135,-3.827e-05,0
1.214,-6.7308e-05,0
1.2145,-6.7979e-05,0
1.215,-4.9851e-05,0
1.2155,-2.4506e-05,0
1.216,-2.182e-06,0
1.2165,1.0575e-05,0
1.217,1.9806e-05,0
1.2175,3.1556e-05,0
1.218,4.9515e-05,0
1.2185,6.8315e-05,0
1.219,8.4428e-05,0
1.2195,0.00010256,0
1.22,0.00011464,0
1.2205,0.00011464,0
1.221,0.00010356,0
1.2215,8.1743e-05,0
1.222,5.1194e-05,0
1.2225,1.5274e-05,0
1.223,-1.6449e-05,0
1.2235,-4.0452e-05,0
1.224,-6.4958e-05,0
1.2245,-8.8121e-05,0
1.225,-0.00010071,0
1.2255,-9.987e-05,0
1.226,-8.7785e-05,0
1.2265,-6.7475e-05,0
1.227,-4.4816e-05,0
1.2275,-2.266e-05,0
1.228,-2.5177e-06,0
1.2285,1.5946e-05,0
1.229,2.7863e-05,0
1.2295,3.4073e-05,0
1.23,4.3473e-05,0
1.2305,6.63e-05,0
1.231,0.00010239,0
1.2315,0.00013814,0
1.232,0.00015761,0
1.2325,0.00015526,0
1.233,0.00013394,0
1.2335,0.00010188,0
1.234,5.9587e-05,0
1.2345,4.1962e-06,0
1.235,-5.2369e-05,0
1.2355,-9.7017e-05,0
1.236,-0.00012169,0
1.2365,-0.0001185,0
1.237,-8.6946e-05,0
1.2375,-4.2466e-05,0
1.238,-4.8676e-06,0
1.2385,1.4603e-05,0
1.239,1.8967e-05,0
1.2395,1.9638e-05,0
1.24,2.1988e-05,0
1.2405,2.6352e-05,0
1.241,3.0716e-05,0
1.2415,3.0045e-05,0
1.242,2.182e-05,0
1.2425,1.2924e-05,0
1.243,1.3764e-05,0
1.2435,2.0478e-05,0
1.244,2.4002e-05,0
1.2445,2.3667e-05,0
1.245,2.4002e-05,0
1.2455,2.5849e-05,0
1.246,2.8702e-05,0
1.2465,3.2059e-05,0
1.247,3.0716e-05,0
1.2475,2.3331e-05,0
1.248,2.1149e-05,0
1.2485,3.2059e-05,0
1.249,5.3544e-05,0
1.2495,7.2343e-05,0
1.25,8.1239e-05,0
1.2505,8.4428e-05,0
1.251,8.4428e-05,0
1.2515,8.275e-05,0
1.252,8.0064e-05,0
1.2525,7.7211e-05,0
1.253,7.3014e-05,0
1.2535,6.2608e-05,0
1.254,3.7262e-05,0
1.2545,3.6927e-06,0
1.255,-2.5009e-05,0
1.2555,-3.8605e-05,0
1.256,-3.4745e-05,0
1.2565,-2.5009e-05,0
1.257,-1.9135e-05,0
1.2575,-1.5274e-05,0
1.258,-8.2246e-06,0
1.2585,1.1749e-06,0
1.259,9.0639e-06,0
1.2595,1.3764e-05,0
1.26,1.326e-05,0
1.2605,1.4771e-05,0
1.261,2.4506e-05,0
1.2615,4.0452e-05,0
1.262,5.8747e-05,0
1.2625,7.3686e-05,0
1.263,7.7714e-05,0
1.2635,7.1672e-05,0
1.264,5.7572e-05,0
1.2645,4.0619e-05,0
1.265,2.7527e-05,0
1.2655,1.3596e-05,0
1.266,-6.0426e-06,0
1.2665,-2.3331e-05,0
1.267,-3.6927e-05,0
1.2675,-4.1123e-05,0
1.268,-3.1724e-05,0
1.2685,-1.5946e-05,0
1.269,-5.0355e-06,0
1.2695,-2.5177e-06,0
1.27,3.5248e-06,0
1.2705,2.1988e-05,0
1.271,4.0452e-05,0
1.2715,4.6662e-05,0
1.272,4.683e-05,0
1.2725,6.5629e-05,0
1.273,0.00011464,0
1.2735,0.00016634,0
1.274,0.00018917,0
1.2745,0.00018178,0
1.275,0.00015677,0
1.2755,0.00011598,0
1.276,6.1936e-05,0
1.2765,6.714e-07,0
1.277,-7.2343e-05,0
1.2775,-0.00014905,0
1.278,-0.00020797,0
1.2785,-0.00022895,0
1.279,-0.0001989,0
1.2795,-0.00013982,0
1.28,-9.2317e-05,0
1.2805,-6.2944e-05,0
1.281,-3.5416e-05,0
1.2815,-6.2104e-06,0
1.282,1.6617e-05,0
1.2825,2.8702e-05,0
1.283,3.6591e-05,0
1.2835,4.683e-05,0
1.284,6.6972e-05,0
1.2845,9.5506e-05,0
1.285,0.00011162,0
1.2855,0.00010625,0
1.286,8.9799e-05,0
1.2865,6.7979e-05,0
1.287,3.5248e-05,0
1.2875,-3.1891e-06,0
1.288,-3.3402e-05,0
1.2885,-5.2033e-05,0
1.289,-6.714e-05,0
1.2895,-7.1e-05,0
1.29,-5.304e-05,0
1.2905,-2.2828e-05,0
1.291,2.182e-06,0
1.2915,1.8967e-05,0
1.292,2.8031e-05,0
1.2925,2.9709e-05,0
1.293,3.1052e-05,0
1.2935,4.5151e-05,0
1.294,6.6133e-05,0
1.2945,7.9728e-05,0
1.295,8.4932e-05,0
1.2955,8.3589e-05,0
1.296,7.57e-05,0
1.2965,6.2944e-05,0
1.297,4.3809e-05,0
1.2975,1.6617e-05,0
1.298,-2.2324e-05,0
1.2985,-6.4958e-05,0
1.299,-8.1743e-05,0
1.2995,-6.2104e-05,0
1.3,-2.6017e-05,0
1.3005,5.8747e-06,0
1.301,2.9374e-05,0
1.3015,4.6326e-05,0
1.302,5.5558e-05,0
1.3025,5.4887e-05,0
1.303,4.6159e-05,0
1.3035,3.9109e-05,0
1.304,3.4577e-05,0
1.3045,3.0549e-05,0
1.305,3.122e-05,0
1.3055,3.3906e-05,0
1.306,3.508e-05,0
1.3065,4.2802e-05,0
1.307,6.0258e-05,0
1.3075,7.57e-05,0
1.308,8.04e-05,0
1.3085,8.2078e-05,0
1.309,8.04e-05,0
1.3095,6.5293e-05,0
1.31,3.8773e-05,0
1.3105,1.5442e-05,0
1.311,2.5177e-06,0
1.3115,-3.5248e-06,0
1.312,-9.7353e-06,0
1.3125,-1.2924e-05,0
1.313,-7.7211e-06,0
1.3135,1.5106e-06,0
1.314,6.714e-06,0
1.3145,6.5461e-06,0
1.315,5.2033e-06,0
1.3155,4.1962e-06,0
1.316,3.357e-07,0
1.3165,-8.392e-07,0
1.317,4.8676e-06,0
1.3175,9.0639e-06,0
1.318,8.2246e-06,0
1.3185,5.7069e-06,0
1.319,5.8747e-06,0
1.3195,1.0239e-05,0
1.32,1.4939e-05,0
1.3205,1.6785e-05,0
1.321,1.796e-05,0
1.3215,2.2156e-05,0
1.322,2.9374e-05,0
1.3225,3.978e-05,0
1.323,5.2201e-05,0
1.3235,6.1936e-05,0
1.324,6.3615e-05,0
1.3245,6.0929e-05,0
1.325,6.3279e-05,0
1.3255,7.1504e-05,0
1.326,7.2679e-05,0
1.3265,6.1936e-05,0
1.327,4.3809e-05,0
1.3275,2.5345e-05,0
1.328,6.5461e-06,0
1.3285,-1.0575e-05,0
1.329,-1.6281e-05,0
1.3295,-5.8747e-06,0
1.33,5.539e-06,0
1.3305,1.678e-07,0
1.331,-1.3932e-05,0
1.3315,-2.031e-05,0
1.332,-1.796e-05,0
1.3325,-1.1749e-05,0
1.333,-4.5319e-06,0
1.3335,7.8889e-06,0
1.334,2.5177e-05,0
1.3345,3.7766e-05,0
1.335,3.8437e-05,0
1.3355,3.5752e-05,0
1.336,2.8031e-05,0
1.3365,1.1246e-05,0
1.337,-1.3092e-05,0
1.3375,-3.7766e-05,0
1.338,-5.6062e-05,0
1.3385,-6.63e-05,0
1.339,-6.7308e-05,0
1.3395,-5.2537e-05,0
1.34,-2.2995e-05,0
1.3405,9.7353e-06,0
1.341,3.508e-05,0
1.3415,4.9851e-05,0
1.342,5.7908e-05,0
1.3425,6.7308e-05,0
1.343,8.3589e-05,0
1.3435,0.00010373,0
1.344,0.00012001,0
1.3445,0.00012807,0
1.345,0.00012052,0
1.3455,9.752e-05,0
1.346,5.7908e-05,0
1.3465,2.8534e-06,0
1.347,-5.9587e-05,0
1.3475,-0.00011028,0
1.348,-0.00012522,0
1.3485,-0.00010591,0
1.349,-7.5364e-05,0
1.3495,-4.6326e-05,0
1.35,-2.0646e-05,0
1.3505,-8.392e-07,0
1.351,1.5778e-05,0
1.3515,2.7024e-05,0
1.352,3.2059e-05,0
1.3525,3.5752e-05,0
1.353,3.7934e-05,0
1.3535,3.9445e-05,0
1.354,4.0116e-05,0
1.3545,4.7166e-05,0
1.355,5.9587e-05,0
1.3555,6.8986e-05,0
1.356,7.1336e-05,0
1.3565,6.7643e-05,0
1.357,5.9587e-05,0
1.3575,4.6998e-05,0
1.358,3.1052e-05,0
1.3585,1.5106e-05,0
1.359,-1.6785e-06,0
1.3595,-1.2253e-05,0
1.36,-1.3764e-05,0
1.3605,-1.2085e-05,0
1.361,-4.1962e-06,0
1.3615,7.2175e-06,0
1.362,1.4939e-05,0
1.3625,1.4267e-05,0
1.363,1.0407e-05,0
1.3635,8.5603e-06,0
1.364,9.2317e-06,0
1.3645,1.5442e-05,0
1.365,2.266e-05,0
1.3655,2.5849e-05,0
1.366,2.7695e-05,0
1.3665,2.9374e-05,0
1.367,3.0716e-05,0
1.3675,3.1724e-05,0
1.368,3.0716e-05,0
1.3685,2.7359e-05,0
1.369,2.3835e-05,0
1.3695,2.3667e-05,0
1.37,2.3499e-05,0
1.3705,2.3835e-05,0
1.371,2.1317e-05,0
1.3715,1.9806e-05,0
1.372,2.2995e-05,0
1.3725,2.9374e-05,0
1.373,3.7095e-05,0
1.3735,4.4144e-05,0
1.374,5.4719e-05,0
1.3745,6.5965e-05,0
1.375,6.7979e-05,0
1.3755,6.244e-05,0
1.376,5.539e-05,0
1.3765,4.2634e-05,0
1.377,2.5513e-05,0
1.3775,9.2317e-06,0
1.378,-3.5248e-06,0
1.3785,-1.5778e-05,0
1.379,-2.6017e-05,0
1.3795,-3.1724e-05,0
1.38,-2.6017e-05,0
1.3805,-1.1246e-05,0
1.381,-5.3712e-06,0
1.3815,-7.8889e-06,0
1.382,-9.7353e-06,0
1.3825,-1.2421e-05,0
1.383,-1.1749e-05,0
1.3835,-7.0497e-06,0
1.384,-3.357e-06,0
1.3845,5.8747e-06,0
1.385,2.2156e-05,0
1.3855,3.7766e-05,0
1.386,5.1362e-05,0
1.3865,6.2944e-05,0
1.387,6.8315e-05,0
1.3875,6.9993e-05,0
1.388,6.865e-05,0
1.3885,6.0258e-05,0
1.389,4.4816e-05,0
1.3895,2.3331e-05,0
1.39,-4.0284e-06,0
1.3905,-3.1388e-05,0
1.391,-4.5823e-05,0
1.3915,-4.3809e-05,0
1.392,-3.6423e-05,0
1.3925,-3.0213e-05,0
1.393,-2.2156e-05,0
1.3935,-8.2246e-06,0
1.394,1.2253e-05,0
1.3945,4.1123e-05,0
1.395,7.5532e-05,0
1.3955,0.0001039,0
1.396,0.00012203,0
1.3965,0.00013109,0
1.397,0.00013109,0
1.3975,0.00011884,0
1.398,8.6442e-05,0
1.3985,3.0213e-05,0
1.399,-3.1052e-05,0
1.3995,-7.7378e-05,0
1.4,-0.00010306,0
1.4005,-0.00011095,0
1.401,-0.00011498,0
1.4015,-0.00011162,0
1.402,-8.9799e-05,0
1.4025,-5.3544e-05,0
1.403,-2.1317e-05,0
1.4035,-3.8605e-06,0
1.404,3.5248e-06,0
1.4045,5.0355e-06,0
1.405,5.3712e-06,0
1.4055,8.896e-06,0
1.406,1.7792e-05,0
1.4065,2.7359e-05,0
1.407,3.0549e-05,0
1.4075,3.1891e-05,0
1.408,3.7095e-05,0
1.4085,4.1459e-05,0
1.409,4.3473e-05,0
1.4095,4.6326e-05,0
1.41,4.9851e-05,0
1.4105,5.4048e-05,0
1.411,5.7572e-05,0
1.4115,5.388e-05,0
1.412,4.3473e-05,0
1.4125,3.6591e-05,0
1.413,3.3738e-05,0
1.4135,3.2731e-05,0
1.414,3.508e-05,0
1.4145,3.8102e-05,0
1.415,4.2802e-05,0
1.4155,4.9515e-05,0
1.416,5.2369e-05,0
1.4165,5.069e-05,0
1.417,4.5991e-05,0
1.4175,4.3305e-05,0
1.418,4.8173e-05,0
1.4185,5.9251e-05,0
1.419,6.63e-05,0
1.4195,6.8482e-05,0
1.42,6.3111e-05,0
1.4205,5.2705e-05,0
1.421,4.1291e-05,0
1.4215,2.9374e-05,0
1.422,2.0646e-05,0
1.4225,1.1917e-05,0
1.423,7.2175e-06,0
1.4235,1.947e-05,0
1.424,4.5319e-05,0
1.4245,6.865e-05,0
1.425,7.8218e-05,0
1.4255,7.1672e-05,0
1.426,5.3544e-05,0
1.4265,3.2731e-05,0
1.427,7.8889e-06,0
1.4275,-2.9709e-05,0
1.428,-7.57e-05,0
1.4285,-0.00011061,0
1.429,-0.00012136,0
1.4295,-9.8695e-05,0
1.43,-5.7908e-05,0
1.4305,-2.1988e-05,0
1.431,2.5177e-06,0
1.4315,1.7792e-05,0
1.432,2.7863e-05,0
1.4325,3.8437e-05,0
1.433,4.918e-05,0
1.4335,5.6565e-05,0
1.434,6.2272e-05,0
1.4345,7.2847e-05,0
1.435,8.8121e-05,0
1.4355,9.9031e-05,0
1.436,0.00010054,0
1.4365,9.3156e-05,0
1.437,7.5029e-05,0
1.4375,5.0858e-05,0
1.438,2.5681e-05,0
1.4385,-1.0239e-05,0
1.439,-6.6804e-05,0
1.4395,-0.00012757,0
1.44,-0.0001514,0
1.4405,-0.00012673,0
1.441,-8.4764e-05,0
1.4415,-5.4048e-05,0
1.442,-3.8437e-05,0
1.4425,-2.652e-05,0
1.443,-1.3932e-05,0
1.4435,-3.8605e-06,0
1.444,2.5177e-06,0
1.4445,6.3783e-06,0
1.445,1.1917e-05,0
1.4455,2.5177e-05,0
1.446,3.6591e-05,0
1.4465,3.9445e-05,0
1.447,4.3137e-05,0
1.4475,5.0858e-05,0
1.448,5.9587e-05,0
1.4485,7.0664e-05,0
1.449,8.8457e-05,0
1.4495,0.00010591,0
1.45,0.00011582,0
1.4505,0.00011179,0
1.451,0.00010188,0
1.4515,9.0135e-05,0
1.452,6.8315e-05,0
1.4525,2.6017e-05,0
1.453,-3.6759e-05,0
1.4535,-0.00010306,0
1.454,-0.00014032,0
1.4545,-0.0001321,0
1.455,-8.8792e-05,0
1.4555,-4.1123e-05,0
1.456,-1.1078e-05,0
1.4565,3.5248e-06,0
1.457,1.326e-05,0
1.4575,2.2156e-05,0
1.458,2.8534e-05,0
1.4585,3.0045e-05,0
1.459,2.4338e-05,0
1.4595,1.561e-05,0
1.46,1.2085e-05,0
1.4605,1.4771e-05,0
1.461,2.1988e-05,0
1.4615,3.5248e-05,0
1.462,4.8844e-05,0
1.4625,5.4887e-05,0
1.463,5.2872e-05,0
1.4635,5.2537e-05,0
1.464,5.7572e-05,0
1.4645,5.8076e-05,0
1.465,5.1194e-05,0
1.4655,4.3473e-05,0
1.466,3.8437e-05,0
1.4665,3.2059e-05,0
1.467,1.9974e-05,0
1.4675,8.2246e-06,0
1.468,8.896e-06,0
1.4685,2.4674e-05,0
1.469,4.0787e-05,0
1.4695,4.6494e-05,0
1.47,4.213e-05,0
1.4705,3.7766e-05,0
1.471,4.0787e-05,0
1.4715,4.8508e-05,0
1.472,5.6565e-05,0
1.4725,6.3951e-05,0
1.473,6.6636e-05,0
1.4735,6.0594e-05,0
1.474,5.1194e-05,0
1.4745,4.5487e-05,0
1.475,4.6159e-05,0
1.4755,5.8915e-05,0
1.476,7.7043e-05,0
1.4765,8.4596e-05,0
1.477,7.4861e-05,0
1.4775,5.0523e-05,0
1.478,1.4771e-05,0
1.4785,-1.8631e-05,0
1.479,-4.0116e-05,0
1.4795,-5.8747e-05,0
1.48,-8.1239e-05,0
1.4805,-0.00010239,0
1.481,-0.00010809,0
1.4815,-8.51e-05,0
1.482,-4.4144e-05,0
1.4825,-1.1246e-05,0
1.483,3.1891e-06,0
1.4835,5.539e-06,0
1.484,7.8889e-06,0
1.4845,1.1917e-05,0
1.485,1.3092e-05,0
1.4855,1.3596e-05,0
1.486,1.6617e-05,0
1.4865,1.9303e-05,0
1.487,2.1317e-05,0
1.4875,2.7359e-05,0
1.488,3.743e-05,0
1.4885,4.6159e-05,0
1.489,4.9851e-05,0
1.4895,4.5823e-05,0
1.49,3.9948e-05,0
1.4905,3.508e-05,0
1.491,3.0213e-05,0
1.4915,2.7359e-05,0
1.492,2.9374e-05,0
1.4925,3.1052e-05,0
1.493,2.9374e-05,0
1.4935,2.9374e-05,0
1.494,3.3066e-05,0
1.4945,3.8437e-05,0
1.495,4.5991e-05,0
1.4955,5.5894e-05,0
1.496,6.5461e-05,0
1.4965,6.5629e-05,0
1.497,5.4215e-05,0
1.4975,3.8102e-05,0
1.498,1.8631e-05,0
1.4985,3.0213e-06,0
1.499,-3.8605e-06,0
1.4995,-1.678e-07,0
1.5,1.0575e-05,0
1.5005,1.9638e-05,0
1.501,2.3331e-05,0
1.5015,2.6184e-05,0
1.502,3.1052e-05,0
1.5025,3.3738e-05,0
1.503,2.9374e-05,0
1.5035,2.3667e-05,0
1.504,1.8128e-05,0
1.5045,1.5778e-05,0
1.505,1.9974e-05,0
1.5055,2.4338e-05,0
1.506,2.4338e-05,0
1.5065,1.8631e-05,0
1.507,1.1749e-05,0
1.5075,5.035e-07,0
1.508,-1.3596e-05,0
1.5085,-2.4338e-05,0
1.509,-2.9709e-05,0
1.5095,-2.8534e-05,0
1.51,-1.5274e-05,0
1.5105,4.8676e-06,0
1.511,2.5345e-05,0
1.5115,4.1459e-05,0
1.512,5.7908e-05,0
1.5125,7.1839e-05,0
1.513,7.1e-05,0
1.5135,5.0858e-05,0
1.514,2.266e-05,0
1.5145,-6.714e-07,0
1.515,-2.3499e-05,0
1.5155,-5.0523e-05,0
1.516,-7.4693e-05,0
1.5165,-8.6107e-05,0
1.517,-8.1407e-05,0
1.5175,-6.0594e-05,0
1.518,-3.0884e-05,0
1.5185,-3.5248e-06,0
1.519,1.326e-05,0
1.5195,2.2324e-05,0
1.52,2.9374e-05,0
1.5205,3.8102e-05,0
1.521,5.0858e-05,0
1.5215,6.3615e-05,0
1.522,7.1504e-05,0
1.5225,7.7714e-05,0
1.523,8.1743e-05,0
1.5235,8.3085e-05,0
1.524,7.4021e-05,0
1.5245,5.2537e-05,0
1.525,3.1052e-05,0
1.5255,1.6449e-05,0
1.526,-1.1749e-06,0
1.5265,-2.0478e-05,0
1.527,-3.0884e-05,0
1.5275,-3.0381e-05,0
1.528,-1.9638e-05,0
1.5285,-3.357e-06,0
1.529,1.326e-05,0
1.5295,2.3667e-05,0
1.53,2.3163e-05,0
1.5305,1.9638e-05,0
1.531,2.0646e-05,0
1.5315,2.1988e-05,0
1.532,2.3331e-05,0
1.5325,4.1459e-05,0
1.533,7.8386e-05,0
1.5335,0.00011464,0
1.534,0.00013176,0
1.5345,0.00012706,0
1.535,0.00011229,0
1.5355,0.00010021,0
1.536,8.8792e-05,0
1.5365,6.5461e-05,0
1.537,2.1988e-05,0
1.5375,-2.9206e-05,0
1.538,-6.9993e-05,0
1.5385,-8.896e-05,0
1.539,-8.04e-05,0
1.5395,-5.2033e-05,0
1.54,-2.4842e-05,0
1.5405,-1.2253e-05,0
1.541,-4.1962e-06,0
1.5415,1.4435e-05,0
1.542,4.9348e-05,0
1.5425,8.9464e-05,0
1.543,0.00011397,0
1.5435,0.00011313,0
1.544,9.8527e-05,0
1.5445,7.4021e-05,0
1.545,3.0716e-05,0
1.5455,-2.0646e-05,0
1.546,-5.5726e-05,0
1.5465,-7.6036e-05,0
1.547,-0.00010121,0
1.5475,-0.00012303,0
1.548,-0.0001044,0
1.5485,-3.9109e-05,0
1.549,3.9445e-05,0
1.5495,9.2317e-05,0
1.55,0.00010893,0
1.5505,0.00010423,0
1.551,8.5435e-05,0
1.5515,5.6062e-05,0
1.552,1.8799e-05,0
1.5525,-2.0478e-05,0
1.553,-5.9419e-05,0
1.5535,-9.836e-05,0
1.554,-0.00012992,0
1.5545,-0.00013814,0
1.555,-0.00011649,0
1.5555,-8.3085e-05,0
1.556,-5.3208e-05,0
1.5565,-2.8367e-05,0
1.557,-5.539e-06,0
1.5575,1.4435e-05,0
1.558,3.0716e-05,0
1.5585,4.7501e-05,0
1.559,6.0594e-05,0
1.5595,6.5629e-05,0
1.56,6.3279e-05,0
1.5605,6.0258e-05,0
1.561,5.7237e-05,0
1.5615,5.1194e-05,0
1.562,3.9948e-05,0
1.5625,3.3738e-05,0
1.563,4.2466e-05,0
1.5635,5.539e-05,0
1.564,5.9754e-05,0
1.5645,6.0594e-05,0
1.565,6.1936e-05,0
1.5655,6.4118e-05,0
1.566,6.2272e-05,0
1.5665,5.8076e-05,0
1.567,5.2201e-05,0
1.5675,4.8005e-05,0
1.568,4.5487e-05,0
1.5685,4.7837e-05,0
1.569,5.2201e-05,0
1.5695,5.4215e-05,0
1.57,5.3208e-05,0
1.5705,5.0019e-05,0
1.571,4.683e-05,0
1.5715,4.5151e-05,0
1.572,4.3977e-05,0
1.5725,4.213e-05,0
1.573,4.1123e-05,0
1.5735,3.827e-05,0
1.574,3.5752e-05,0
1.5745,3.2059e-05,0
1.575,2.6688e-05,0
1.5755,2.4674e-05,0
1.576,2.2324e-05,0
1.5765,1.9638e-05,0
1.577,1.9135e-05,0
1.5775,1.796e-05,0
1.578,2.1317e-05,0
1.5785,3.6088e-05,0
1.579,5.0523e-05,0
1.5795,5.5558e-05,0
1.58,4.8844e-05,0
1.5805,3.8437e-05,0
1.581,2.9709e-05,0
1.5815,2.5345e-05,0
1.582,2.2995e-05,0
1.5825,2.1149e-05,0
1.583,1.7288e-05,0
1.5835,7.8889e-06,0
1.584,-5.2033e-06,0
1.5845,-1.2589e-05,0
1.585,-1.1246e-05,0
1.5855,-5.7069e-06,0
1.586,2.0142e-06,0
1.5865,7.8889e-06,0
1.587,1.0239e-05,0
1.5875,1.2589e-05,0
1.588,1.4267e-05,0
1.5885,1.8631e-05,0
1.589,2.3835e-05,0
1.5895,2.7192e-05,0
1.59,2.8702e-05,0
1.5905,2.6184e-05,0
1.591,2.1317e-05,0
1.5915,1.6449e-05,0
1.592,1.0575e-05,0
1.5925,5.2033e-06,0
1.593,4.8676e-06,0
1.5935,5.2033e-06,0
1.594,3.1891e-06,0
1.5945,6.0426e-06,0
1.595,1.1749e-05,0
1.5955,1.4939e-05,0
1.596,1.6449e-05,0
1.5965,1.4939e-05,0
1.597,1.2924e-05,0
1.5975,1.7288e-05,0
1.598,2.6184e-05,0
1.5985,3.6759e-05,0
1.599,5.0523e-05,0
1.5995,6.0258e-05,0
1.6,5.8244e-05,0
1.6005,4.3977e-05,0
1.601,2.5345e-05,0
1.6015,4.8676e-06,0
1.602,-2.266e-05,0
1.6025,-5.2033e-05,0
1.603,-7.1336e-05,0
1.6035,-7.956e-05,0
1.604,-7.4357e-05,0
1.6045,-4.1459e-05,0
1.605,1.2589e-05,0
1.6055,6.0761e-05,0
1.606,8.9799e-05,0
1.6065,0.0001039,0
1.607,0.00010037,0
1.6075,7.9896e-05,0
1.608,5.4551e-05,0
1.6085,3.4745e-05,0
1.609,1.326e-05,0
1.6095,-1.9135e-05,0
1.61,-4.3809e-05,0
1.6105,-3.7262e-05,0
1.611,-1.3764e-05,0
1.6115,-1.0071e-06,0
1.612,-1.561e-05,0
1.6125,-5.3208e-05,0
1.613,-8.6442e-05,0
1.6135,-9.4499e-05,0
1.614,-8.7114e-05,0
1.6145,-7.6875e-05,0
1.615,-7.0329e-05,0
1.6155,-6.3615e-05,0
1.616,-5.4551e-05,0
1.6165,-3.8941e-05,0
1.617,-1.3596e-05,0
1.6175,8.896e-06,0
1.618,1.9806e-05,0
1.6185,2.3835e-05,0
1.619,2.7192e-05,0
1.6195,2.8367e-05,0
1.62,2.5849e-05,0
1.6205,2.2828e-05,0
1.621,2.266e-05,0
1.6215,2.9038e-05,0
1.622,4.5151e-05,0
1.6225,6.5126e-05,0
1.623,7.8721e-05,0
1.6235,8.5771e-05,0
1.624,9.2485e-05,0
1.6245,9.5506e-05,0
1.625,9.1814e-05,0
1.6255,7.9057e-05,0
1.626,5.5894e-05,0
1.6265,2.5345e-05,0
1.627,-6.8818e-06,0
1.6275,-2.3667e-05,0
1.628,-1.9638e-05,0
1.6285,-7.3854e-06,0
1.629,1.1749e-06,0
1.6295,9.2317e-06,0
1.63,2.031e-05,0
1.6305,3.2059e-05,0
1.631,3.6759e-05,0
1.6315,3.6088e-05,0
1.632,3.592e-05,0
1.6325,3.592e-05,0
1.633,3.7934e-05,0
1.6335,3.9612e-05,0
1.634,4.0787e-05,0
1.6345,4.4816e-05,0
1.635,5.069e-05,0
1.6355,5.2705e-05,0
1.636,5.3208e-05,0
1.6365,5.6901e-05,0
1.637,6.2776e-05,0
1.6375,7.0329e-05,0
1.638,7.8386e-05,0
1.6385,8.275e-05,0
1.639,7.9393e-05,0
1.6395,6.5629e-05,0
1.64,4.8173e-05,0
1.6405,4.1962e-05,0
1.641,4.9851e-05,0
1.6415,5.3208e-05,0
1.642,4.3977e-05,0
1.6425,3.2059e-05,0
1.643,2.2492e-05,0
1.6435,1.7624e-05,0
1.644,1.7288e-05,0
1.6445,1.2924e-05,0
1.645,2.6856e-06,0
1.6455,-1.6617e-05,0
1.646,-4.4144e-05,0
1.6465,-6.5126e-05,0
1.647,-5.9754e-05,0
1.6475,-2.266e-05,0
1.648,2.9038e-05,0
1.6485,7.4693e-05,0
1.649,0.00010356,0
1.6495,0.00011128,0
1.65,9.4331e-05,0
1.6505,5.3208e-05,0
1.651,-2.8534e-06,0
1.6515,-5.8076e-05,0
1.652,-9.3828e-05,0
1.6525,-0.00011078,0
1.653,-0.00011061,0
1.6535,-8.7785e-05,0
1.654,-4.448e-05,0
1.6545,1.5106e-06,0
1.655,3.3066e-05,0
1.6555,4.3473e-05,0
1.656,3.9948e-05,0
1.6565,3.508e-05,0
1.657,2.9877e-05,0
1.6575,1.3932e-05,0
1.658,-9.2317e-06,0
1.6585,-2.5681e-05,0
1.659,-2.6352e-05,0
1.6595,-8.2246e-06,0
1.66,2.4842e-05,0
1.6605,6.4286e-05,0
1.661,9.6513e-05,0
1.6615,0.00010961,0
1.662,0.00010256,0
1.6625,8.0903e-05,0
1.663,5.5558e-05,0
1.6635,2.3331e-05,0
1.664,-1.9638e-05,0
1.6645,-6.0258e-05,0
1.665,-8.1071e-05,0
1.6655,-8.3085e-05,0
1.666,-7.4021e-05,0
1.6665,-5.2201e-05,0
1.667,-2.0981e-05,0
1.6675,1.5946e-05,0
1.668,6.1936e-05,0
1.6685,0.00011128,0
1.669,0.00014217,0
1.6695,0.00014737,0
1.67,0.00013478,0
1.6705,0.00011363,0
1.671,8.8792e-05,0
1.6715,6.6133e-05,0
1.672,5.3376e-05,0
1.6725,4.4648e-05,0
1.673,2.4338e-05,0
1.6735,-5.0355e-06,0
1.674,-1.5946e-05,0
1.6745,1.678e-07,0
1.675,2.4674e-05,0
1.6755,2.8367e-05,0
1.676,-2.8534e-06,0
1.6765,-5.7908e-05,0
1.677,-0.00011028,0
1.6775,-0.0001274,0
1.678,-0.00010188,0
1.6785,-5.9587e-05,0
1.679,-3.6423e-05,0
1.6795,-4.5151e-05,0
1.68,-6.8986e-05,0
1.6805,-8.1071e-05,0
1.681,-6.4286e-05,0
1.6815,-1.5274e-05,0
1.682,5.7069e-05,0
1.6825,0.0001331,0
1.683,0.00018245,0
1.6835,0.00018732,0
1.684,0.00016063,0
1.6845,0.00011666,0
1.685,6.2944e-05,0
1.6855,7.2175e-06,0
1.686,-4.8173e-05,0
1.6865,-9.7017e-05,0
1.687,-0.00012203,0
1.6875,-0.00010658,0
1.688,-5.5222e-05,0
1.6885,0,0
1.689,2.3835e-05,0
1.6895,2.1317e-05,0
1.69,4.0787e-05,0
1.6905,9.4667e-05,0
1.691,0.00013948,0
1.6915,0.00014687,0
1.692,0.00012656,0
1.6925,9.4499e-05,0
1.693,5.7237e-05,0
1.6935,1.3764e-05,0
1.694,-2.9709e-05,0
1.6945,-7.3182e-05,0
1.695,-0.00011095,0
1.6955,-0.00012807,0
1.696,-0.00011666,0
1.6965,-8.4093e-05,0
1.697,-5.0355e-05,0
1.6975,-2.6352e-05,0
1.698,-6.5461e-06,0
1.6985,1.9638e-05,0
1.699,4.8173e-05,0
1.6995,7.1504e-05,0
1.7,8.1407e-05,0
1.7005,7.7043e-05,0
1.701,6.7643e-05,0
1.7015,5.3544e-05,0
1.702,3.0045e-05,0
1.7025,5.8747e-06,0
1.703,-5.035e-07,0
1.7035,1.2757e-05,0
1.704,2.7863e-05,0
1.7045,3.6088e-05,0
1.705,4.2802e-05,0
1.7055,5.539e-05,0
1.706,8.0064e-05,0
1.7065,0.00010726,0
1.707,0.00012203,0
1.7075,0.00011901,0
1.708,0.00011229,0
1.7085,0.00011431,0
1.709,0.00011431,0
1.7095,0.00010021,0
1.71,6.7643e-05,0
1.7105,2.6352e-05,0
1.711,-1.2253e-05,0
1.7115,-4.6159e-05,0
1.712,-7.2343e-05,0
1.7125,-8.0735e-05,0
1.713,-6.6468e-05,0
1.7135,-3.3738e-05,0
1.714,4.1962e-06,0
1.7145,3.6423e-05,0
1.715,5.2872e-05,0
1.7155,6.4286e-05,0
1.716,8.5267e-05,0
1.7165,0.00010457,0
1.717,0.00010994,0
1.7175,0.00010491,0
1.718,9.1142e-05,0
1.7185,6.865e-05,0
1.719,4.7166e-05,0
1.7195,3.6591e-05,0
1.72,1.9974e-05,0
1.7205,-1.3932e-05,0
1.721,-5.1362e-05,0
1.7215,-7.335e-05,0
1.722,-7.9057e-05,0
1.7225,-6.9154e-05,0
1.723,-5.0523e-05,0
1.7235,-4.4648e-05,0
1.724,-5.7237e-05,0
1.7245,-6.9657e-05,0
1.725,-6.1433e-05,0
1.7255,-3.2563e-05,0
1.726,2.182e-06,0
1.7265,3.3738e-05,0
1.727,6.1601e-05,0
1.7275,8.8792e-05,0
1.728,0.00010826,0
1.7285,0.00010893,0
1.729,9.2485e-05,0
1.7295,7.1672e-05,0
1.73,5.4215e-05,0
1.7305,4.2466e-05,0
1.731,2.7863e-05,0
1.7315,8.896e-06,0
1.732,-5.539e-06,0
1.7325,-1.6785e-06,0
1.733,2.0981e-05,0
1.7335,4.448e-05,0
1.734,5.1362e-05,0
1.7345,4.0787e-05,0
1.735,2.182e-05,0
1.7355,0,0
1.736,-2.3331e-05,0
1.7365,-3.743e-05,0
1.737,-4.0787e-05,0
1.7375,-4.5487e-05,0
1.738,-5.4551e-05,0
1.7385,-4.9012e-05,0
1.739,-1.1246e-05,0
1.7395,4.683e-05,0
1.74,0.00010054,0
1.7405,0.00013411,0
1.741,0.00014267,0
1.7415,0.00012723,0
1.742,0.00010524,0
1.7425,8.4428e-05,0
1.743,6.1265e-05,0
1.7435,2.4002e-05,0
1.744,-3.4745e-05,0
1.7445,-9.6681e-05,0
1.745,-0.00014603,0
1.7455,-0.00017037,0
1.746,-0.00014989,0
1.7465,-9.9702e-05,0
1.747,-6.1936e-05,0
1.7475,-5.2033e-05,0
1.748,-5.7908e-05,0
1.7485,-6.8986e-05,0
1.749,-7.3686e-05,0
1.7495,-5.1698e-05,0
1.75,5.2033e-06,0
1.7505,7.4021e-05,0
1.751,0.00012354,0
1.7515,0.00014922,0
1.752,0.00016147,0
1.7525,0.00015761,0
1.753,0.00012303,0
1.7535,5.9754e-05,0
1.754,-1.2421e-05,0
1.7545,-8.0735e-05,0
1.755,-0.00014754,0
1.7555,-0.00019202,0
1.756,-0.00018514,0
1.7565,-0.00012354,0
1.757,-2.9877e-05,0
1.7575,6.4622e-05,0
1.758,0.00012773,0
1.7585,0.0001566,0
1.759,0.00017171,0
1.7595,0.00017691,0
1.76,0.000165,0
1.7605,0.00012689,0
1.761,6.3951e-05,0
1.7615,-7.2175e-06,0
1.762,-7.1336e-05,0
1.7625,-0.0001237,0
1.763,-0.00014653,0
1.7635,-0.00013462,0
1.764,-9.366e-05,0
1.7645,-2.5345e-05,0
1.765,5.2872e-05,0
1.7655,0.00011263,0
1.766,0.00013545,0
1.7665,0.00013075,0
1.767,0.00011531,0
1.7675,9.3828e-05,0
1.768,7.9393e-05,0
1.7685,8.3085e-05,0
1.769,8.9128e-05,0
1.7695,7.7882e-05,0
1.77,4.9851e-05,0
1.7705,2.8031e-05,0
1.771,2.7359e-05,0
1.7715,3.3906e-05,0
1.772,3.0045e-05,0
1.7725,1.1078e-05,0
1.773,-2.031e-05,0
1.7735,-3.8437e-05,0
1.774,-1.4267e-05,0
1.7745,4.4648e-05,0
1.775,9.2149e-05,0
1.7755,0.00010608,0
1.776,0.00010927,0
1.7765,0.000118,0
1.777,0.00011934,0
1.7775,0.00010625,0
1.778,9.1814e-05,0
1.7785,7.0161e-05,0
1.779,2.4002e-05,0
1.7795,-2.7863e-05,0
1.78,-5.9587e-05,0
1.7805,-6.8482e-05,0
1.781,-6.6972e-05,0
1.7815,-6.8986e-05,0
1.782,-7.3686e-05,0
1.7825,-7.3518e-05,0
1.783,-6.5293e-05,0
1.7835,-5.6901e-05,0
1.784,-5.3376e-05,0
1.7845,-5.3544e-05,0
1.785,-5.9251e-05,0
1.7855,-5.5055e-05,0
1.786,-2.7192e-05,0
1.7865,9.9031e-06,0
1.787,3.0549e-05,0
1.7875,2.7359e-05,0
1.788,1.2757e-05,0
1.7885,6.5461e-06,0
1.789,1.0575e-05,0
1.7895,1.3764e-05,0
1.79,9.5674e-06,0
1.7905,7.2175e-06,0
1.791,1.326e-05,0
1.7915,2.7695e-05,0
1.792,4.0787e-05,0
1.7925,4.3137e-05,0
1.793,3.6255e-05,0
1.7935,2.7863e-05,0
1.794,2.5681e-05,0
1.7945,3.1052e-05,0
1.795,3.9109e-05,0
1.7955,4.7669e-05,0
1.796,6.2776e-05,0
1.7965,9.6178e-05,0
1.797,0.00015727,0
1.7975,0.00023566,0
1.798,0.00029961,0
1.7985,0.00031925,0
1.799,0.00029323,0
1.7995,0.00023885,0
1.8,0.00016231,0
1.8005,6.5965e-05,0
1.801,-3.7766e-05,0
1.8015,-0.00013294,0
1.802,-0.00020545,0
1.8025,-0.00022643,0
1.803,-0.00018296,0
1.8035,-9.3156e-05,0
1.804,2.0142e-06,0
1.8045,6.3615e-05,0
1.805,7.3014e-05,0
1.8055,3.9445e-05,0
1.806,-2.0981e-05,0
1.8065,-9.9535e-05,0
1.807,-0.0001754,0
1.8075,-0.00021938,0
1.808,-0.00020662,0
1.8085,-0.00014871,0
1.809,-9.0135e-05,0
1.8095,-5.2537e-05,0
1.81,-2.7024e-05,0
1.8105,-4.8676e-06,0
1.811,1.1917e-05,0
1.8115,1.8967e-05,0
1.812,1.796e-05,0
1.8125,1.5106e-05,0
1.813,1.7288e-05,0
1.8135,3.7934e-05,0
1.814,7.5532e-05,0
1.8145,0.00010826,0
1.815,0.00013042,0
1.8155,0.00015694,0
1.816,0.00018245,0
1.8165,0.00019487,0
1.817,0.00019454,0
1.8175,0.00017305,0
1.818,0.00011968,0
1.8185,4.0787e-05,0
1.819,-3.743e-05,0
1.8195,-8.6946e-05,0
1.82,-0.00011044,0
1.8205,-0.00012387,0
1.821,-0.00011783,0
1.8215,-9.2317e-05,0
1.822,-6.4286e-05,0
1.8225,-4.5151e-05,0
1.823,-3.2731e-05,0
1.8235,-8.5603e-06,0
1.824,3.0045e-05,0
1.8245,7.0329e-05,0
1.825,0.00011095,0
1.8255,0.0001472,0
1.826,0.00015962,0
1.8265,0.00014553,0
1.827,0.00011531,0
1.8275,7.2343e-05,0
1.828,2.1317e-05,0
1.8285,-2.1317e-05,0
1.829,-5.3208e-05,0
1.8295,-8.1239e-05,0
1.83,-0.00010507,0
1.8305,-0.00010994,0
1.831,-8.4764e-05,0
1.8315,-3.4409e-05,0
1.832,3.3402e-05,0
1.8325,0.00010776,0
1.833,0.00016147,0
1.8335,0.00018447,0
1.834,0.00019689,0
1.8345,0.00019991,0
1.835,0.00017607,0
1.8355,0.00012874,0
1.836,7.3182e-05,0
1.8365,3.5248e-06,0
1.837,-7.0329e-05,0
1.8375,-0.00011598,0
1.838,-0.00011431,0
1.8385,-7.8889e-05,0
1.839,-4.1795e-05,0
1.8395,-1.5946e-05,0
1.84,5.8747e-06,0
1.8405,3.6088e-05,0
1.841,7.7714e-05,0
1.8415,0.00011666,0
1.842,0.00013948,0
1.8425,0.0001326,0
1.843,9.6178e-05,0
1.8435,4.9683e-05,0
1.844,9.5674e-06,0
1.8445,-2.6352e-05,0
1.845,-8.1407e-05,0
1.8455,-0.00015962,0
1.846,-0.00024422,0
1.8465,-0.00029709,0
1.847,-0.00028769,0
1.8475,-0.00021552,0
1.848,-0.00011699,0
1.8485,-4.2802e-05,0
1.849,-1.3932e-05,0
1.8495,-1.0575e-05,0
1.85,-6.3783e-06,0
1.8505,7.5532e-06,0
1.851,4.0116e-05,0
1.8515,0.00010004,0
1.852,0.00017507,0
1.8525,0.00023348,0
1.853,0.00025731,0
1.8535,0.00025866,0
1.854,0.00026839,0
1.8545,0.00027376,0
1.855,0.00024154,0
1.8555,0.0001791,0
1.856,0.00010423,0
1.8565,1.6785e-05,0
1.857,-5.8747e-05,0
1.8575,-8.191e-05,0
1.858,-5.304e-05,0
1.8585,-3.4073e-05,0
1.859,-6.9993e-05,0
1.8595,-0.00011582,0
1.86,-0.0001133,0
1.8605,-7.9393e-05,0
1.861,-5.5726e-05,0
1.8615,-5.2872e-05,0
1.862,-5.7572e-05,0
1.8625,-6.9993e-05,0
1.863,-8.4764e-05,0
1.8635,-9.1478e-05,0
1.864,-9.7856e-05,0
1.8645,-9.5338e-05,0
1.865,-6.3279e-05,0
1.8655,-9.2317e-06,0
1.866,3.9612e-05,0
1.8665,6.6972e-05,0
1.867,7.9057e-05,0
1.8675,8.04e-05,0
1.868,7.1e-05,0
1.8685,5.5894e-05,0
1.869,4.0452e-05,0
1.8695,2.9038e-05,0
1.87,2.0646e-05,0
1.8705,2.5681e-05,0
1.871,4.6159e-05,0
1.8715,7.1e-05,0
1.872,9.0806e-05,0
1.8725,9.3324e-05,0
1.873,7.7043e-05,0
1.8735,5.3544e-05,0
1.874,3.9948e-05,0
1.8745,4.3641e-05,0
1.875,6.1601e-05,0
1.8755,8.04e-05,0
1.876,8.1071e-05,0
1.8765,6.1265e-05,0
1.877,4.1291e-05,0
1.8775,3.2059e-05,0
1.878,2.5849e-05,0
1.8785,1.5778e-05,0
1.879,-6.2104e-06,0
1.8795,-3.5416e-05,0
1.88,-4.3473e-05,0
1.8805,-1.1749e-05,0
1.881,2.8702e-05,0
1.8815,4.4144e-05,0
1.882,3.6088e-05,0
1.8825,1.5778e-05,0
1.883,-7.8889e-06,0
1.8835,-1.8631e-05,0
1.884,-1.4939e-05,0
1.8845,-1.947e-05,0
1.885,-4.5319e-05,0
1.8855,-6.9993e-05,0
1.886,-5.8747e-05,0
1.8865,-6.2104e-06,0
1.887,6.63e-05,0
1.8875,0.00012975,0
1.888,0.00015879,0
1.8885,0.0001566,0
1.889,0.00013948,0
1.8895,0.00010188,0
1.89,4.6159e-05,0
1.8905,-1.9303e-05,0
1.891,-9.131e-05,0
1.8915,-0.00014351,0
1.892,-0.00015023,0
1.8925,-0.00011901,0
1.893,-7.3686e-05,0
1.8935,-2.9877e-05,0
1.894,1.1749e-06,0
1.8945,1.5946e-05,0
1.895,2.2324e-05,0
1.8955,2.9038e-05,0
1.896,4.0955e-05,0
1.8965,7.2007e-05,0
1.897,0.00013008,0
1.8975,0.00019252,0
1.898,0.00022341,0
1.8985,0.00022441,0
1.899,0.00021468,0
1.8995,0.00019789,0
1.9,0.0001556,0
1.9005,8.3421e-05,0
1.901,-1.1917e-05,0
1.9015,-0.00010893,0
1.902,-0.00017423,0
1.9025,-0.00018245,0
1.903,-0.0001509,0
1.9035,-0.00011682,0
1.904,-9.4499e-05,0
1.9045,-6.6636e-05,0
1.905,-1.1749e-05,0
1.9055,5.2369e-05,0
1.906,9.0471e-05,0
1.9065,0.00010188,0
1.907,9.8863e-05,0
1.9075,7.805e-05,0
1.908,4.0955e-05,0
1.9085,-4.5319e-06,0
1.909,-4.7837e-05,0
1.9095,-9.6345e-05,0
1.91,-0.0001472,0
1.9105,-0.00015341,0
1.911,-7.7882e-05,0
1.9115,4.2802e-05,0
1.912,0.00013814,0
1.9125,0.00017288,0
1.913,0.00015492,0
1.9135,0.00011498,0
1.914,6.3615e-05,0
1.9145,-3.5248e-06,0
1.915,-8.745e-05,0
1.9155,-0.00018077,0
1.916,-0.00023214,0
1.9165,-0.00019236,0
1.917,-8.4764e-05,0
1.9175,2.6017e-05,0
1.918,9.8024e-05,0
1.9185,0.00013411,0
1.919,0.00015291,0
1.9195,0.00016365,0
1.92,0.0001519,0
1.9205,0.00012438,0
1.921,0.00011464,0
1.9215,0.00011968,0
1.922,0.00010423,0
1.9225,6.2944e-05,0
1.923,2.0813e-05,0
1.9235,-1.3428e-06,0
1.924,-1.1749e-05,0
1.9245,-1.7288e-05,0
1.925,-2.2995e-05,0
1.9255,-3.9109e-05,0
1.926,-6.63e-05,0
1.9265,-8.6442e-05,0
1.927,-6.4958e-05,0
1.9275,1.2421e-05,0
1.928,0.00010558,0
1.9285,0.00015727,0
1.929,0.0001462,0
1.9295,0.00010054,0
1.93,5.539e-05,0
1.9305,1.9135e-05,0
1.931,-2.9206e-05,0
1.9315,-9.8192e-05,0
1.932,-0.00016567,0
1.9325,-0.00019051,0
1.933,-0.00014871,0
1.9335,-6.2104e-05,0
1.934,2.4674e-05,0
1.9345,7.6371e-05,0
1.935,9.3828e-05,0
1.9355,9.8192e-05,0
1.936,9.6513e-05,0
1.9365,8.7785e-05,0
1.937,7.0329e-05,0
1.9375,3.0716e-05,0
1.938,-3.8102e-05,0
1.9385,-0.00010742,0
1.939,-0.00013042,0
1.9395,-9.4163e-05,0
1.94,-3.3066e-05,0
1.9405,2.0646e-05,0
1.941,5.8915e-05,0
1.9415,9.4163e-05,0
1.942,0.00016902,0
1.9425,0.00029323,0
1.943,0.00042013,0
1.9435,0.00049801,0
1.944,0.00051412,0
1.9445,0.00048022,0
1.945,0.00041207,0
1.9455,0.00029944,0
1.946,0.00013915,0
1.9465,-4.4816e-05,0
1.947,-0.0002177,0
1.9475,-0.00038068,0
1.948,-0.00052386,0
1.9485,-0.0005534,0
1.949,-0.00043792,0
1.9495,-0.00029273,0
1.95,-0.0002318,0
1.9505,-0.0002454,0
1.951,-0.00026671,0
1.9515,-0.00026252,0
1.952,-0.00024506,0
1.9525,-0.00022223,0
1.953,-0.00017893,0
1.9535,-0.00010491,0
1.954,-1.2924e-05,0
1.9545,7.7714e-05,0
1.955,0.0001509,0
1.9555,0.00019857,0
1.956,0.00021871,0
1.9565,0.00021703,0
1.957,0.00020394,0
1.9575,0.00018044,0
1.958,0.00015174,0
1.9585,0.00013713,0
1.959,0.00013109,0
1.9595,0.00012337,0
1.96,0.00012001,0
1.9605,0.0001133,0
1.961,8.2582e-05,0
1.9615,3.2059e-05,0
1.962,-1.1749e-05,0
1.9625,-5.1698e-05,0
1.963,-8.6107e-05,0
1.9635,-8.1407e-05,0
1.964,-3.2898e-05,0
1.9645,2.9038e-05,0
1.965,7.9393e-05,0
1.9655,0.00010507,0
1.966,0.00010088,0
1.9665,7.2679e-05,0
1.967,4.0116e-05,0
1.9675,1.8967e-05,0
1.968,1.796e-05,0
1.9685,4.0955e-05,0
1.969,6.7979e-05,0
1.9695,7.5532e-05,0
1.97,7.956e-05,0
1.9705,9.5171e-05,0
1.971,0.00011128,0
1.9715,0.00010105,0
1.972,6.3279e-05,0
1.9725,2.4002e-05,0
1.973,7.5532e-06,0
1.9735,2.1317e-05,0
1.974,4.0116e-05,0
1.9745,3.2059e-05,0
1.975,3.6927e-06,0
1.9755,-7.0497e-06,0
1.976,1.9303e-05,0
1.9765,6.5629e-05,0
1.977,9.4499e-05,0
1.9775,9.9199e-05,0
1.978,8.9128e-05,0
1.9785,6.4958e-05,0
1.979,2.6688e-05,0
1.9795,-6.3783e-06,0
1.98,-2.9206e-05,0
1.9805,-6.4958e-05,0
1.981,-0.00011028,0
1.9815,-0.00012975,0
1.982,-9.5842e-05,0
1.9825,-2.2156e-05,0
1.983,4.5151e-05,0
1.9835,7.3686e-05,0
1.984,6.3447e-05,0
1.9845,2.8702e-05,0
1.985,-1.7624e-05,0
1.9855,-5.9083e-05,0
1.986,-8.2414e-05,0
1.9865,-8.5603e-05,0
1.987,-7.6707e-05,0
1.9875,-6.5293e-05,0
1.988,-4.1459e-05,0
1.9885,-6.714e-07,0
1.989,4.4144e-05,0
1.9895,0.00010491,0
1.99,0.0002083,0
1.9905,0.00034325,0
1.991,0.00048106,0
1.9915,0.00057388,0
1.992,0.00057589,0
1.9925,0.00048727,0
1.993,0.0003268,0
1.9935,0.00010121,0
1.994,-0.00015828,0
1.9945,-0.00041358,0
1.995,-0.00060795,0
1.9955,-0.00065512,0
1.996,-0.00054937,0
1.9965,-0.00033419,0
1.997,-8.6107e-05,0
1.9975,0.00010256,0
1.998,0.00018849,0
1.9985,0.00016869,0
1.999,7.7714e-05,0
1.9995,-1.4099e-05,0
2,-5.4887e-05,0
2.0005,-5.4048e-05,0
2.001,-5.2537e-05,0
2.0015,-8.4093e-05,0
2.002,-0.00013008,0
2.0025,-0.00013193,0
2.003,-8.7617e-05,0
2.0035,-6.2608e-05,0
2.004,-9.3492e-05,0
2.0045,-0.00015358,0
2.005,-0.00020931,0
2.0055,-0.00023583,0
2.006,-0.00021703,0
2.0065,-0.00015895,0
2.007,-8.4764e-05,0
2.0075,-1.5274e-05,0
2.008,3.7095e-05,0
2.0085,6.6804e-05,0
2.009,8.0064e-05,0
2.0095,9.3492e-05,0
2.01,0.00012035,0
2.0105,0.00016298,0
2.011,0.00019857,0
2.0115,0.00021099,0
2.012,0.00020226,0
2.0125,0.00018917,0
2.013,0.00018094,0
2.0135,0.00016265,0
2.014,0.00012538,0
2.0145,8.896e-05,0
2.015,7.5868e-05,0
2.0155,7.7714e-05,0
2.016,9.2149e-05,0
2.0165,0.00013277,0
2.017,0.00018917,0
2.0175,0.00023449,0
2.018,0.00025463,0
2.0185,0.00024137,0
2.019,0.00019454,0
2.0195,0.00012773,0
2.02,5.2201e-05,0
2.0205,-2.5681e-05,0
2.021,-9.3828e-05,0
2.0215,-0.00014888,0
2.022,-0.00019084,0
2.0225,-0.00020243,0
2.023,-0.00017708,0
2.0235,-0.00013176,0
2.024,-7.4693e-05,0
2.0245,-6.8818e-06,0
2.025,5.6062e-05,0
2.0255,8.8457e-05,0
2.026,7.6036e-05,0
2.0265,4.2298e-05,0
2.027,1.326e-05,0
2.0275,-4.8676e-06,0
2.028,1.678e-07,0
2.0285,2.8031e-05,0
2.029,5.4887e-05,0
2.0295,6.2944e-05,0
2.03,5.9251e-05,0
2.0305,4.8844e-05,0
2.031,2.4674e-05,0
2.0315,-1.5946e-05,0
2.032,-5.6062e-05,0
2.0325,-5.8915e-05,0
2.033,-1.0575e-05,0
2.0335,4.9851e-05,0
2.034,7.9057e-05,0
2.0345,8.4093e-05,0
2.035,8.4093e-05,0
2.0355,6.3447e-05,0
2.036,1.4267e-05,0
2.0365,-2.8031e-05,0
2.037,-4.2466e-05,0
2.0375,-4.5151e-05,0
2.038,-5.2201e-05,0
2.0385,-6.0929e-05,0
2.039,-7.8386e-05,0
2.0395,-0.00011984,0
2.04,-0.0001561,0
2.0405,-0.00013613,0
2.041,-6.1265e-05,0
2.0415,1.8631e-05,0
2.042,6.2608e-05,0
2.0425,6.7475e-05,0
2.043,4.7669e-05,0
2.0435,2.6017e-05,0
2.044,1.8296e-05,0
2.0445,2.7024e-05,0
2.045,5.1865e-05,0
2.0455,8.0735e-05,0
2.046,9.601e-05,0
2.0465,0.00011196,0
2.047,0.00014351,0
2.0475,0.00019185,0
2.048,0.00024959,0
2.0485,0.00030028,0
2.049,0.0003174,0
2.0495,0.00028719,0
2.05,0.00022374,0
2.0505,0.00014687,0
2.051,6.2944e-05,0
2.0515,-3.8102e-05,0
2.052,-0.00014301,0
2.0525,-0.0002318,0
2.053,-0.00028887,0
2.0535,-0.00030095,0
2.054,-0.00026084,0
2.0545,-0.00019722,0
2.055,-0.0001519,0
2.0555,-0.00012941,0
2.056,-0.00010893,0
2.0565,-9.0135e-05,0
2.057,-8.1407e-05,0
2.0575,-6.9657e-05,0
2.058,-4.5151e-05,0
2.0585,-1.7288e-05,0
2.059,4.6998e-06,0
2.0595,1.6953e-05,0
2.06,2.2995e-05,0
2.0605,3.3066e-05,0
2.061,4.7333e-05,0
2.0615,5.8076e-05,0
2.062,6.4958e-05,0
2.0625,6.9657e-05,0
2.063,7.1e-05,0
2.0635,7.1336e-05,0
2.064,7.2007e-05,0
2.0645,7.2679e-05,0
2.065,7.3686e-05,0
2.0655,7.6539e-05,0
2.066,9.6849e-05,0
2.0665,0.00015996,0
2.067,0.00025093,0
2.0675,0.00032848,0
2.068,0.00037179,0
2.0685,0.00040099,0
2.069,0.00042818,0
2.0695,0.0004443,0
2.07,0.00043893,0
2.0705,0.00039327,0
2.071,0.00028165,0
2.0715,0.00012572,0
2.072,-2.6017e-05,0
2.0725,-0.00017943,0
2.073,-0.00035702,0
2.0735,-0.00054853,0
2.074,-0.00070597,0
2.0745,-0.00075431,0
2.075,-0.00064874,0
2.0755,-0.00043842,0
2.076,-0.00023096,0
2.0765,-9.7185e-05,0
2.077,-3.508e-05,0
2.0775,-1.9974e-05,0
2.078,-2.3667e-05,0
2.0785,-2.1988e-05,0
2.079,-1.6617e-05,0
2.0795,-3.4409e-05,0
2.08,-6.5629e-05,0
2.0805,-7.5364e-05,0
2.081,-3.2731e-05,0
2.0815,4.0787e-05,0
2.082,0.00010323,0
2.0825,0.00014553,0
2.083,0.00017691,0
2.0835,0.00019454,0
2.084,0.00019269,0
2.0845,0.00016886,0
2.085,0.00012203,0
2.0855,6.1265e-05,0
2.086,8.3925e-06,0
2.0865,-7.8889e-06,0
2.087,6.8818e-06,0
2.0875,6.8818e-06,0
2.088,-1.7624e-05,0
2.0885,-2.3667e-05,0
2.089,1.8128e-05,0
2.0895,8.1743e-05,0
2.09,0.0001514,0
2.0905,0.00021837,0
2.091,0.00027007,0
2.0915,0.00029625,0
2.092,0.00029458,0
2.0925,0.00026503,0
2.093,0.00020511,0
2.0935,0.00011598,0
2.094,1.1917e-05,0
2.0945,-7.8218e-05,0
2.095,-0.00012203,0
2.0955,-0.00011028,0
2.096,-6.4622e-05,0
2.0965,-1.796e-05,0
2.097,-1.678e-07,0
2.0975,-2.3331e-05,0
2.098,-6.1936e-05,0
2.0985,-8.6442e-05,0
2.099,-9.6345e-05,0
2.0995,-0.00010524,0
2.1,-0.00010877,0
2.1005,-8.6442e-05,0
2.101,-2.3835e-05,0
2.1015,5.0187e-05,0
2.102,9.3492e-05,0
2.1025,0.00010289,0
2.103,9.2821e-05,0
2.1035,8.7114e-05,0
2.104,8.8792e-05,0
2.1045,6.0929e-05,0
2.105,-1.9638e-05,0
2.1055,-0.00011867,0
2.106,-0.00017708,0
2.1065,-0.00017255,0
2.107,-0.00012404,0
2.1075,-4.1795e-05,0
2.108,5.2033e-05,0
2.1085,0.00011179,0
2.109,0.00013008,0
2.1095,0.00013814,0
2.11,0.00014653,0
2.1105,0.00013243,0
2.111,0.00010457,0
2.1115,8.0735e-05,0
2.112,6.1097e-05,0
2.1125,4.4816e-05,0
2.113,2.8702e-05,0
2.1135,-8.392e-07,0
2.114,-4.9515e-05,0
2.1145,-9.5338e-05,0
2.115,-0.00010793,0
2.1155,-8.4932e-05,0
2.116,-3.5584e-05,0
2.1165,5.5726e-05,0
2.117,0.00018379,0
2.1175,0.00029625,0
2.118,0.00035836,0
2.1185,0.00037481,0
2.119,0.00036037,0
2.1195,0.00032512,0
2.12,0.00025429,0
2.1205,0.00011833,0
2.121,-0.00010323,0
2.1215,-0.00035651,0
2.122,-0.00053309,0
2.1225,-0.00056397,0
2.123,-0.0004772,0
2.1235,-0.00034594,0
2.124,-0.00021334,0
2.1245,-0.00010256,0
2.125,-3.357e-05,0
2.1255,-5.035e-07,0
2.126,1.796e-05,0
2.1265,3.4073e-05,0
2.127,4.4648e-05,0
2.1275,5.0355e-05,0
2.128,5.8076e-05,0
2.1285,6.4958e-05,0
2.129,7.6875e-05,0
2.1295,0.00010289,0
2.13,0.0001321,0
2.1305,0.0001754,0
2.131,0.00025026,0
2.1315,0.00032345,0
2.132,0.00035634,0
2.1325,0.00034862,0
2.133,0.00029592,0
2.1335,0.0001942,0
2.134,7.956e-05,0
2.1345,-1.1917e-05,0
2.135,-9.1478e-05,0
2.1355,-0.00017087,0
2.136,-0.000213,0
2.1365,-0.00018212,0
2.137,-0.00010574,0
2.1375,-4.3473e-05,0
2.138,-4.3473e-05,0
2.1385,-9.752e-05,0
2.139,-0.0001561,0
2.1395,-0.00017372,0
2.14,-0.00015526,0
2.1405,-0.00012773,0
2.141,-9.9702e-05,0
2.1415,-6.9657e-05,0
2.142,-2.1988e-05,0
2.1425,5.8915e-05,0
2.143,0.00015929,0
2.1435,0.00024388,0
2.144,0.0003033,0
2.1445,0.00033587,0
2.145,0.00033486,0
2.1455,0.00028165,0
2.146,0.00016365,0
2.1465,2.3499e-06,0
2.147,-0.00015879,0
2.1475,-0.00028534,0
2.148,-0.00034812,0
2.1485,-0.00033838,0
2.149,-0.00026554,0
2.1495,-0.00016298,0
2.15,-6.5629e-05,0
2.1505,1.2253e-05,0
2.151,6.2608e-05,0
2.1515,9.6513e-05,0
2.152,0.00012773,0
2.1525,0.0001791,0
2.153,0.0002454,0
2.1535,0.00027544,0
2.154,0.00023549,0
2.1545,0.00015459,0
2.155,7.3854e-05,0
2.1555,1.8296e-05,0
2.156,7.8889e-06,0
2.1565,4.3473e-05,0
2.157,0.00012605,0
2.1575,0.0002459,0
2.158,0.00034728,0
2.1585,0.00037246,0
2.159,0.00031069,0
2.1595,0.0001702,0
2.16,-4.5151e-05,0
2.1605,-0.00027964,0
2.161,-0.00047871,0
2.1615,-0.00062843,0
2.162,-0.0006719,0
2.1625,-0.00055508,0
2.163,-0.00033066,0
2.1635,-0.00012706,0
2.164,-1.7456e-05,0
2.1645,2.5177e-05,0
2.165,5.5222e-05,0
2.1655,0.00013478,0
2.166,0.00024858,0
2.1665,0.00030398,0
2.167,0.00028081,0
2.1675,0.00022307,0
2.168,0.000165,0
2.1685,0.00010256,0
2.169,1.7792e-05,0
2.1695,-9.5842e-05,0
2.17,-0.00019638,0
2.1705,-0.00016197,0
2.171,5.388e-05,0
2.1715,0.00028484,0
2.172,0.00039059,0
2.1725,0.00037581,0
2.173,0.00029508,0
2.1735,0.00016886,0
2.174,-8.2246e-06,0
2.1745,-0.00020948,0
2.175,-0.00038454,0
2.1755,-0.00047451,0
2.176,-0.00043574,0
2.1765,-0.00030582,0
2.177,-0.00016634,0
2.1775,-6.6804e-05,0
2.178,-1.1246e-05,0
2.1785,2.0478e-05,0
2.179,4.6159e-05,0
2.1795,7.2679e-05,0
2.18,0.00011447,0
2.1805,0.00017171,0
2.181,0.00021669,0
2.1815,0.00021971,0
2.182,0.0001744,0
2.1825,0.00010591,0
2.183,3.4745e-05,0
2.1835,-2.2995e-05,0
2.184,-4.5991e-05,0
2.1845,7.8889e-06,0
2.185,0.00011179,0
2.1855,0.00018212,0
2.186,0.00019722,0
2.1865,0.00018413,0
2.187,0.00015291,0
2.1875,0.00010658,0
2.188,4.2802e-05,0
2.1885,-4.2466e-05,0
2.189,-0.00011884,0
2.1895,-0.00013713,0
2.19,-7.805e-05,0
2.1905,3.1388e-05,0
2.191,0.00013243,0
2.1915,0.00019689,0
2.192,0.00022458,0
2.1925,0.00022811,0
2.193,0.00021401,0
2.1935,0.00017742,0
2.194,0.00012874,0
2.1945,8.9128e-05,0
2.195,7.2343e-05,0
2.1955,8.9632e-05,0
2.196,0.00011666,0
2.1965,0.00010658,0
2.197,3.0213e-05,0
2.1975,-0.00010054,0
2.198,-0.00025312,0
2.1985,-0.00038102,0
2.199,-0.00044547,0
2.1995,-0.0004255,0
2.2,-0.00032966,0
2.2005,-0.00020327,0
2.201,-0.00010071,0
2.2015,-4.3473e-05,0
2.202,-1.1917e-05,0
2.2025,1.1917e-05,0
2.203,3.3402e-05,0
2.2035,8.275e-05,0
2.204,0.00020125,0
2.2045,0.00034762,0
2.205,0.00044564,0
2.2055,0.00049264,0
2.206,0.00049331,0
2.2065,0.00045051,0
2.207,0.00038891,0
2.2075,0.00030666,0
2.208,0.00021199,0
2.2085,0.00014888,0
2.209,0.00014485,0
2.2095,0.00015258,0
2.21,0.0001185,0
2.2105,2.7192e-05,0
2.211,-0.0001284,0
2.2115,-0.00032781,0
2.212,-0.00054316,0
2.2125,-0.0007434,0
2.213,-0.00086946,0
2.2135,-0.00084378,0
2.214,-0.00069104,0
2.2145,-0.00051714,0
2.215,-0.00036591,0
2.2155,-0.00022626,0
2.216,-0.00011128,0
2.2165,-3.6759e-05,0
2.217,7.2175e-06,0
2.2175,3.9109e-05,0
2.218,7.3518e-05,0
2.2185,0.00010642,0
2.219,0.00013008,0
2.2195,0.00014418,0
2.22,0.00015157,0
2.2205,0.00015879,0
2.221,0.0001801,0
2.2215,0.00022374,0
2.222,0.00028551,0
2.2225,0.00034292,0
2.223,0.00037011,0
2.2235,0.0003597,0
2.224,0.00032076,0
2.2245,0.00025328,0
2.225,0.00015929,0
2.2255,5.7572e-05,0
2.226,-3.3738e-05,0
2.2265,-7.805e-05,0
2.227,-5.9251e-05,0
2.2275,-1.6281e-05,0
2.228,2.1988e-05,0
2.2285,6.4286e-05,0
2.229,0.00012975,0
2.2295,0.00021434,0
2.23,0.00028585,0
2.2305,0.00034157,0
2.231,0.00041207,0
2.2315,0.00044547,0
2.232,0.00037447,0
2.2325,0.00021317,0
2.233,3.592e-05,0
2.2335,-0.00013008,0
2.234,-0.00029071,0
2.2345,-0.00040233,0
2.235,-0.00042802,0
2.2355,-0.00036927,0
2.236,-0.00024976,0
2.2365,-0.00013545,0
2.237,-8.7953e-05,0
2.2375,-0.00010004,0
2.238,-0.00011431,0
2.2385,-8.7953e-05,0
2.239,-1.1582e-05,0
2.2395,8.3085e-05,0
2.24,0.00016365,0
2.2405,0.00020125,0
2.241,0.00018631,0
2.2415,0.00013613,0
2.242,7.9728e-05,0
2.2425,2.4674e-05,0
2.243,-3.122e-05,0
2.2435,-9.131e-05,0
2.244,-0.0001331,0
2.2445,-0.00013025,0
2.245,-9.0135e-05,0
2.2455,-4.8173e-05,0
2.246,-1.4939e-05,0
2.2465,2.8031e-05,0
2.247,0.00010088,0
2.2475,0.00019823,0
2.248,0.00029088,0
2.2485,0.0003258,0
2.249,0.00028048,0
2.2495,0.00020662,0
2.25,0.0001415,0
2.2505,7.335e-05,0
2.251,-1.7624e-05,0
2.2515,-0.0001039,0
2.252,-0.00011397,0
2.2525,-6.3783e-06,0
2.253,0.00021585,0
2.2535,0.00044161,0
2.254,0.00052184,0
2.2545,0.0004302,0
2.255,0.00021468,0
2.2555,-6.5797e-05,0
2.256,-0.00034174,0
2.2565,-0.00054366,0
2.257,-0.00064169,0
2.2575,-0.00065109,0
2.258,-0.00055424,0
2.2585,-0.00037028,0
2.259,-0.00019756,0
2.2595,-0.00011363,0
2.26,-0.00012186,0
2.2605,-0.0001796,0
2.261,-0.000237,0
2.2615,-0.00026738,0
2.262,-0.0002501,0
2.2625,-0.00017742,0
2.263,-7.4021e-05,0
2.2635,1.561e-05,0
2.264,6.6636e-05,0
2.2645,9.7688e-05,0
2.265,0.00012169,0
2.2655,0.00014485,0
2.266,0.00016634,0
2.2665,0.0001697,0
2.267,0.00014888,0
2.2675,0.00012303,0
2.268,0.00011196,0
2.2685,0.0001274,0
2.269,0.00015694,0
2.2695,0.00019907,0
2.27,0.00025161,0
2.2705,0.00027544,0
2.271,0.00023818,0
2.2715,0.0001655,0
2.272,0.00010407,0
2.2725,7.6036e-05,0
2.273,7.57e-05,0
2.2735,8.4093e-05,0
2.274,8.04e-05,0
2.2745,5.3544e-05,0
2.275,6.714e-06,0
2.2755,-4.7166e-05,0
2.276,-9.0135e-05,0
2.2765,-0.00012035,0
2.277,-0.00012169,0
2.2775,-6.8818e-05,0
2.278,1.6953e-05,0
2.2785,8.9464e-05,0
2.279,0.00011766,0
2.2795,0.00011397,0
2.28,0.00011766,0
2.2805,0.00013814,0
2.281,0.00014989,0
2.2815,0.000142,0
2.282,0.00012505,0
2.2825,0.00011934,0
2.283,0.00011917,0
2.2835,0.00010021,0
2.284,6.5965e-05,0
2.2845,3.2059e-05,0
2.285,4.8676e-06,0
2.2855,2.0813e-05,0
2.286,9.4331e-05,0
2.2865,0.00015392,0
2.287,0.00015308,0
2.2875,0.00012471,0
2.288,0.00010625,0
2.2885,9.2149e-05,0
2.289,8.7785e-05,0
2.2895,0.0001331,0
2.29,0.00020058,0
2.2905,0.00026302,0
2.291,0.00029995,0
2.2915,0.00024288,0
2.292,0.00010726,0
2.2925,-3.3738e-05,0
2.293,-0.00016902,0
2.2935,-0.00031908,0
2.294,-0.00042466,0
2.2945,-0.00040771,0
2.295,-0.00030918,0
2.2955,-0.00019219,0
2.296,-8.191e-05,0
2.2965,-1.0575e-05,0
2.297,7.8889e-06,0
2.2975,-1.9974e-05,0
2.298,-9.2317e-05,0
2.2985,-0.0001707,0
2.299,-0.00018715,0
2.2995,-0.00012454,0
2.3,-3.1724e-05,0
2.3005,3.0381e-05,0
2.301,4.1459e-05,0
2.3015,5.8747e-06,0
2.302,-5.7404e-05,0
2.3025,-0.0001086,0
2.303,-0.00014334,0
2.3035,-0.00018833,0
2.304,-0.00025245,0
2.3045,-0.00029558,0
2.305,-0.00028518,0
2.3055,-0.00022676,0
2.306,-0.00014754,0
2.3065,-6.9657e-05,0
2.307,-4.3641e-06,0
2.3075,6.3783e-05,0
2.308,0.00014939,0
2.3085,0.00024154,0
2.309,0.00032412,0
2.3095,0.00038286,0
2.31,0.00039394,0
2.3105,0.00034157,0
2.311,0.00023919,0
2.3115,0.00015241,0
2.312,0.0001237,0
2.3125,0.00013143,0
2.313,0.0001556,0
2.3135,0.00018379,0
2.314,0.0001796,0
2.3145,0.00015023,0
2.315,0.00014049,0
2.3155,0.00011296,0
2.316,1.2253e-05,0
2.3165,-0.00011431,0
2.317,-0.00019924,0
2.3175,-0.00022811,0
2.318,-0.00020964,0
2.3185,-0.00019303,0
2.319,-0.00020092,0
2.3195,-0.00020964,0
2.32,-0.00019286,0
2.3205,-0.00013478,0
2.321,-6.7979e-05,0
2.3215,-1.3932e-05,0
2.322,4.0116e-05,0
2.3225,9.2317e-05,0
2.323,0.00011766,0
2.3235,0.00010642,0
2.324,6.949e-05,0
2.3245,2.2492e-05,0
2.325,-2.6688e-05,0
2.3255,-5.539e-05,0
2.326,-4.7166e-05,0
2.3265,-1.091e-05,0
2.327,3.2731e-05,0
2.3275,6.4958e-05,0
2.328,8.1071e-05,0
2.3285,8.3925e-05,0
2.329,8.1743e-05,0
2.3295,9.5506e-05,0
2.33,0.00013864,0
2.3305,0.00018447,0
2.331,0.00020562,0
2.3315,0.00020377,0
2.332,0.00019437,0
2.3325,0.00017339,0
2.333,0.00011867,0
2.3335,5.2369e-05,0
2.334,2.7863e-05,0
2.3345,8.04e-05,0
2.335,0.00018749,0
2.3355,0.00031203,0
2.336,0.00039126,0
2.3365,0.00037044,0
2.337,0.00029693,0
2.3375,0.00021938,0
2.338,0.00010994,0
2.3385,-6.9993e-05,0
2.339,-0.00027561,0
2.3395,-0.0004307,0
2.34,-0.00047451,0
2.3405,-0.00038555,0
2.341,-0.00022844,0
2.3415,-0.00010675,0
2.342,-6.4622e-05,0
2.3425,-6.1433e-05,0
2.343,-4.9515e-05,0
2.3435,-1.0239e-05,0
2.344,4.1123e-05,0
2.3445,6.4958e-05,0
2.345,5.5222e-05,0
2.3455,3.9612e-05,0
2.346,3.0213e-05,0
2.3465,1.7288e-05,0
2.347,-3.8605e-06,0
2.3475,-1.561e-05,0
2.348,-6.714e-07,0
2.3485,3.4745e-05,0
2.349,7.0329e-05,0
2.3495,8.6442e-05,0
2.35,8.3085e-05,0
2.3505,6.865e-05,0
2.351,4.4144e-05,0
2.3515,1.5946e-05,0
2.352,2.5177e-06,0
2.3525,3.2731e-05,0
2.353,0.00011112,0
2.3535,0.00019588,0
2.354,0.00025161,0
2.3545,0.00026571,0
2.355,0.00024556,0
2.3555,0.00021468,0
2.356,0.00019689,0
2.3565,0.00018782,0
2.357,0.00011867,0
2.3575,-1.6281e-05,0
2.358,-9.5506e-05,0
2.3585,-5.9754e-05,0
2.359,-1.4267e-05,0
2.3595,-5.153e-05,0
2.36,-0.00015862,0
2.3605,-0.00027662,0
2.361,-0.00035953,0
2.3615,-0.00040183,0
2.362,-0.00041576,0
2.3625,-0.00041257,0
2.363,-0.00036239,0
2.3635,-0.00025328,0
2.364,-0.00013042,0
2.3645,-4.3977e-05,0
2.365,6.5461e-06,0
2.3655,3.2563e-05,0
2.366,2.4674e-05,0
2.3665,-1.8463e-06,0
2.367,4.1962e-06,0
2.3675,6.7643e-05,0
2.368,0.0001566,0
2.3685,0.00021569,0
2.369,0.00022173,0
2.3695,0.00019823,0
2.37,0.00017423,0
2.3705,0.00016231,0
2.371,0.00015627,0
2.3715,0.00013378,0
2.372,0.00010726,0
2.3725,0.00011061,0
2.373,0.00014855,0
2.3735,0.00017641,0
2.374,0.00013747,0
2.3745,4.1795e-05,0
2.375,-3.4073e-05,0
2.3755,-7.0161e-05,0
2.376,-0.00010037,0
2.3765,-0.00012522,0
2.377,-0.0001237,0
2.3775,-9.3828e-05,0
2.378,-5.9419e-05,0
2.3785,-5.3208e-05,0
2.379,-5.1194e-05,0
2.3795,-7.8889e-06,0
2.38,8.1407e-05,0
2.3805,0.00017591,0
2.381,0.00021904,0
2.3815,0.00019756,0
2.382,0.00015291,0
2.3825,0.00010524,0
2.383,1.2757e-05,0
2.3835,-9.2653e-05,0
2.384,-0.00012723,0
2.3845,-0.00010373,0
2.385,-6.8147e-05,0
2.3855,-5.153e-05,0
2.386,-6.0258e-05,0
2.3865,-8.4428e-05,0
2.387,-0.00010524,0
2.3875,-0.0001138,0
2.388,-0.00010944,0
2.3885,-9.2485e-05,0
2.389,-5.5894e-05,0
2.3895,-5.0355e-06,0
2.39,3.6088e-05,0
2.3905,6.1433e-05,0
2.391,7.8721e-05,0
2.3915,8.4764e-05,0
2.392,8.5771e-05,0
2.3925,9.5674e-05,0
2.393,0.00010776,0
2.3935,0.00011263,0
2.394,0.00011061,0
2.3945,0.00010927,0
2.395,0.00011733,0
2.3955,0.00013747,0
2.396,0.0001514,0
2.3965,0.00014284,0
2.397,0.00012152,0
2.3975,0.0001039,0
2.398,9.5842e-05,0
2.3985,0.00010155,0
2.399,0.0001274,0
2.3995,0.00015828,0
2.4,0.00018614,0
2.4005,0.00018782,0
2.401,0.00013243,0
2.4015,5.0858e-05,0
2.402,4.5991e-05,0
2.4025,0.00016701,0
2.403,0.00031136,0
2.4035,0.00035752,0
2.404,0.00030733,0
2.4045,0.00021736,0
2.405,7.5029e-05,0
2.4055,-0.00013327,0
2.406,-0.0003921,0
2.4065,-0.00059217,0
2.407,-0.00059989,0
2.4075,-0.00044446,0
2.408,-0.00024221,0
2.4085,-5.2201e-05,0
2.409,8.6778e-05,0
2.4095,0.0001603,0
2.41,0.00020058,0
2.4105,0.00021468,0
2.411,0.00016835,0
2.4115,3.4409e-05,0
2.412,-0.00013646,0
2.4125,-0.0002647,0
2.413,-0.00033671,0
2.4135,-0.00035886,0
2.414,-0.00032428,0
2.4145,-0.00025144,0
2.415,-0.00015358,0
2.4155,-1.2589e-05,0
2.416,0.00012387,0
2.4165,0.00019739,0
2.417,0.00021065,0
2.4175,0.00019974,0
2.418,0.00017087,0
2.4185,0.00010457,0
2.419,-1.5106e-06,0
2.4195,-0.00013277,0
2.42,-0.00024942,0
2.4205,-0.00030112,0
2.421,-0.00027376,0
2.4215,-0.00017507,0
2.422,-3.8773e-05,0
2.4225,6.0258e-05,0
2.423,9.2485e-05,0
2.4235,9.6178e-05,0
2.424,9.5842e-05,0
2.4245,9.5171e-05,0
2.425,0.00010037,0
2.4255,0.00010642,0
2.426,9.8527e-05,0
2.4265,8.661e-05,0
2.427,9.0974e-05,0
2.4275,0.00010776,0
2.428,0.00012673,0
2.4285,0.00014318,0
2.429,0.00017389,0
2.4295,0.00023482,0
2.43,0.00028518,0
2.4305,0.00028249,0
2.431,0.00022173,0
2.4315,0.00013227,0
2.432,5.7908e-05,0
2.4325,0,0
2.433,-5.3544e-05,0
2.4335,-9.8863e-05,0
2.434,-0.00010591,0
2.4345,-5.9251e-05,0
2.435,1.1917e-05,0
2.4355,5.4887e-05,0
2.436,4.448e-05,0
2.4365,9.5674e-06,0
2.437,-2.0981e-05,0
2.4375,-4.5487e-05,0
2.438,-6.1265e-05,0
2.4385,-6.2104e-05,0
2.439,-4.0787e-05,0
2.4395,3.4409e-05,0
2.44,0.00018044,0
2.4405,0.00032009,0
2.441,0.00036104,0
2.4415,0.000307,0
2.442,0.00020729,0
2.4425,0.00010927,0
2.443,4.3473e-05,0
2.4435,-7.5532e-06,0
2.444,-4.5823e-05,0
2.4445,-1.2085e-05,0
2.445,8.9464e-05,0
2.4455,0.00014922,0
2.446,0.00012605,0
2.4465,3.4073e-05,0
2.447,-0.00010961,0
2.4475,-0.00021501,0
2.448,-0.00021099,0
2.4485,-0.00015341,0
2.449,-0.00014435,0
2.4495,-0.00018598,0
2.45,-0.00022794,0
2.4505,-0.00025765,0
2.451,-0.0002835,0
2.4515,-0.00032177,0
2.452,-0.00034459,0
2.4525,-0.00030666,0
2.453,-0.00021837,0
2.4535,-0.00012538,0
2.454,-4.6494e-05,0
2.4545,-2.182e-06,0
2.455,-2.8534e-06,0
2.4555,-2.3499e-06,0
2.456,3.4409e-05,0
2.4565,8.6442e-05,0
2.457,0.00012068,0
2.4575,0.00012589,0
2.458,0.00014284,0
2.4585,0.00019554,0
2.459,0.00024019,0
2.4595,0.0002788,0
2.46,0.00033738,0
2.4605,0.00038085,0
2.461,0.00034896,0
2.4615,0.00025026,0
2.462,0.00014418,0
2.4625,9.366e-05,0
2.463,8.5435e-05,0
2.4635,5.0187e-05,0
2.464,-1.4267e-05,0
2.4645,-3.7095e-05,0
2.465,1.5106e-06,0
2.4655,2.8031e-05,0
2.466,-3.8437e-05,0
2.4665,-0.00017859,0
2.467,-0.00028534,0
2.4675,-0.00028148,0
2.468,-0.00019387,0
2.4685,-0.00011464,0
2.469,-9.4835e-05,0
2.4695,-9.4163e-05,0
2.47,-5.4551e-05,0
2.4705,4.1962e-06,0
2.471,2.8702e-05,0
2.4715,2.8031e-05,0
2.472,7.9728e-05,0
2.4725,0.00020461,0
2.473,0.00030985,0
2.4735,0.00033083,0
2.474,0.0003033,0
2.4745,0.00025496,0
2.475,0.00017977,0
2.4755,8.9128e-05,0
2.476,-2.9206e-05,0
2.4765,-0.00014166,0
2.477,-0.00015845,0
2.4775,-9.7353e-05,0
2.478,1.0407e-05,0
2.4785,0.00017624,0
2.479,0.00033553,0
2.4795,0.00038521,0
2.48,0.00030851,0
2.4805,0.00017171,0
2.481,-1.2421e-05,0
2.4815,-0.00024472,0
2.482,-0.00045621,0
2.4825,-0.00055541,0
2.483,-0.00052285,0
2.4835,-0.0004067,0
2.484,-0.00025631,0
2.4845,-0.00012119,0
2.485,-3.8437e-05,0
2.4855,3.8605e-06,0
2.486,3.4745e-05,0
2.4865,7.8386e-05,0
2.487,0.00013881,0
2.4875,0.00019353,0
2.488,0.00022005,0
2.4885,0.00020578,0
2.489,0.00016265,0
2.4895,0.000118,0
2.49,7.4693e-05,0
2.4905,2.5345e-05,0
2.491,2.5177e-06,0
2.4915,3.9109e-05,0
2.492,0.00011984,0
2.4925,0.00023314,0
2.493,0.00038924,0
2.4935,0.00052755,0
2.494,0.00056649,0
2.4945,0.00047787,0
2.495,0.00028887,0
2.4955,6.5461e-05,0
2.496,-0.00012941,0
2.4965,-0.00031002,0
2.497,-0.00048173,0
2.4975,-0.00054786,0
2.498,-0.00045353,0
2.4985,-0.00026957,0
2.499,-0.00011699,0
2.4995,-6.1433e-05,0
2.5,-8.2078e-05,0
2.5005,-0.00011464,0
2.501,-0.00011431,0
2.5015,-7.8721e-05,0
2.502,9.9031e-06,0
2.5025,0.00014485,0
2.503,0.00025765,0
2.5035,0.00028182,0
2.504,0.0002224,0
2.5045,0.00012874,0
2.505,4.4816e-05,0
2.5055,-1.1582e-05,0
2.506,-4.8844e-05,0
2.5065,-7.8889e-05,0
2.507,-9.6178e-05,0
2.5075,-6.4286e-05,0
2.508,2.5177e-06,0
2.5085,5.4551e-05,0
2.509,7.0329e-05,0
2.5095,5.8244e-05,0
2.51,2.7527e-05,0
2.5105,-1.2253e-05,0
2.511,-4.5151e-05,0
2.5115,-8.0232e-05,0
2.512,-0.00010927,0
2.5125,-0.00011145,0
2.513,-0.00011162,0
2.5135,-0.00011431,0
2.514,-9.1478e-05,0
2.5145,-4.6998e-05,0
2.515,-1.091e-05,0
2.5155,1.0239e-05,0
2.516,3.3402e-05,0
2.5165,6.2776e-05,0
2.517,9.2821e-05,0
2.5175,0.00012035,0
2.518,0.00014704,0
2.5185,0.00018144,0
2.519,0.00023348,0
2.5195,0.00030297,0
2.52,0.00034325,0
2.5205,0.00034627,0
2.521,0.00036944,0
2.5215,0.00041408,0
2.522,0.00038018,0
2.5225,0.00022408,0
2.523,2.2324e-05,0
2.5235,-0.00012219,0
2.524,-0.00019521,0
2.5245,-0.00022643,0
2.525,-0.00017305,0
2.5255,-3.4745e-05,0
2.526,8.4093e-05,0
2.5265,0.00010726,0
2.527,4.7501e-05,0
2.5275,-4.0619e-05,0
2.528,-0.00015258,0
2.5285,-0.00032395,0
2.529,-0.00054081,0
2.5295,-0.00067677,0
2.53,-0.00061735,0
2.5305,-0.00039998,0
2.531,-0.00017591,0
2.5315,-2.5681e-05,0
2.532,9.7353e-05,0
2.5325,0.00021804,0
2.533,0.00029458,0
2.5335,0.00030834,0
2.534,0.00026621,0
2.5345,0.00016802,0
2.535,4.3977e-05,0
2.5355,-6.2272e-05,0
2.536,-0.00012622,0
2.5365,-0.00012807,0
2.537,-8.4428e-05,0
2.5375,-1.9638e-05,0
2.538,5.4719e-05,0
2.5385,0.00012723,0
2.539,0.00019185,0
2.5395,0.00026772,0
2.54,0.0003362,0
2.5405,0.00033805,0
2.541,0.00025161,0
2.5415,0.00011867,0
2.542,-5.0355e-06,0
2.5425,-0.00010239,0
2.543,-0.00021115,0
2.5435,-0.00033771,0
2.544,-0.00035584,0
2.5445,-0.00018833,0
2.545,2.2324e-05,0
2.5455,0.00013277,0
2.546,0.00015459,0
2.5465,0.00014469,0
2.547,0.00012723,0
2.5475,0.00011095,0
2.548,9.0303e-05,0
2.5485,6.63e-05,0
2.549,7.1672e-05,0
2.5495,9.4667e-05,0
2.55,9.366e-05,0
2.5505,5.8244e-05,0
2.551,1.4603e-05,0
2.5515,9.0639e-06,0
2.552,6.2272e-05,0
2.5525,0.00012119,0
2.553,0.00013982,0
2.5535,0.00012572,0
2.554,8.9799e-05,0
2.5545,4.3473e-05,0
2.555,-1.5946e-05,0
2.5555,-0.00010239,0
2.556,-0.00017926,0
2.5565,-0.00020024,0
2.557,-0.00016902,0
2.5575,-0.0001227,0
2.558,-0.00010793,0
2.5585,-0.00010054,0
2.559,-5.5726e-05,0
2.5595,3.8605e-06,0
2.56,5.2537e-05,0
2.5605,0.00011598,0
2.561,0.00019521,0
2.5615,0.00023684,0
2.562,0.00022542,0
2.5625,0.00018497,0
2.563,0.00013277,0
2.5635,8.5771e-05,0
2.564,7.3014e-05,0
2.5645,0.00012992,0
2.565,0.00026235,0
2.5655,0.0003978,0
2.566,0.00046578,0
2.5665,0.00041207,0
2.567,0.00023465,0
2.5675,5.3712e-06,0
2.568,-0.00019185,0
2.5685,-0.0003409,0
2.569,-0.00045554,0
2.5695,-0.00049197,0
2.57,-0.00039579,0
2.5705,-0.00019202,0
2.571,1.6617e-05,0
2.5715,0.00016835,0
2.572,0.00025563,0
2.5725,0.00026789,0
2.573,0.00020528,0
2.5735,6.8315e-05,0
2.574,-9.2485e-05,0
2.5745,-0.00021166,0
2.575,-0.00025563,0
2.5755,-0.00024355,0
2.576,-0.0002229,0
2.5765,-0.00021602,0
2.577,-0.000213,0
2.5775,-0.0001989,0
2.578,-0.00017977,0
2.5785,-0.00015492,0
2.579,-0.00013042,0
2.5795,-0.00010558,0
2.58,-6.6804e-05,0
2.5805,-1.2924e-05,0
2.581,3.743e-05,0
2.5815,6.949e-05,0
2.582,8.1575e-05,0
2.5825,8.2918e-05,0
2.583,8.3253e-05,0
2.5835,8.8792e-05,0
2.584,0.00010121,0
2.5845,0.00012203,0
2.585,0.0001472,0
2.5855,0.00018682,0
2.586,0.00026302,0
2.5865,0.00035869,0
2.587,0.00042113,0
2.5875,0.00041946,0
2.588,0.00035164,0
2.5885,0.00021938,0
2.589,8.3589e-05,0
2.5895,6.8986e-05,0
2.59,0.00016097,0
2.5905,0.00019286,0
2.591,8.9799e-05,0
2.5915,-5.2033e-05,0
2.592,-0.00017137,0
2.5925,-0.00026688,0
2.593,-0.00031421,0
2.5935,-0.00024405,0
2.594,5.8747e-06,0
2.5945,0.00030867,0
2.595,0.00045168,0
2.5955,0.00037447,0
2.596,0.00016902,0
2.5965,-8.3925e-05,0
2.597,-0.00034258,0
2.5975,-0.00056515,0
2.598,-0.00073266,0
2.5985,-0.00074777,0
2.599,-0.00056464,0
2.5995,-0.00030246,0
2.6,-0.0001086,0
2.6005,-2.1653e-05,0
2.601,1.8128e-05,0
2.6015,5.4887e-05,0
2.602,8.2078e-05,0
2.6025,0.00011128,0
2.603,0.00013629,0
2.6035,0.00013411,0
2.604,0.00011196,0
2.6045,9.2485e-05,0
2.605,8.9128e-05,0
2.6055,8.2414e-05,0
2.606,7.1336e-05,0
2.6065,8.8792e-05,0
2.607,0.00014217,0
2.6075,0.00020729,0
2.608,0.00026503,0
2.6085,0.00027913,0
2.609,0.00022995,0
2.6095,0.00015929,0
2.61,0.00012068,0
2.6105,0.00011716,0
2.611,0.00011431,0
2.6115,0.00010088,0
2.612,7.9057e-05,0
2.6125,6.3279e-05,0
2.613,7.4693e-05,0
2.6135,0.00010323,0
2.614,0.00013243,0
2.6145,0.00012136,0
2.615,5.2537e-05,0
2.6155,-1.8631e-05,0
2.616,1.9974e-05,0
2.6165,0.00019571,0
2.617,0.00034426,0
2.6175,0.00034359,0
2.618,0.00022274,0
2.6185,6.5293e-05,0
2.619,-9.3156e-05,0
2.6195,-0.00023633,0
2.62,-0.00036608,0
2.6205,-0.00039361,0
2.621,-0.00024892,0
2.6215,-7.805e-05,0
2.622,-1.5778e-05,0
2.6225,-3.978e-05,0
2.623,-0.00010222,0
2.6235,-0.0001989,0
2.624,-0.00029189,0
2.6245,-0.00033167,0
2.625,-0.00028719,0
2.6255,-0.00018782,0
2.626,-9.4331e-05,0
2.6265,-3.978e-05,0
2.627,-4.7166e-05,0
2.6275,-0.00010222,0
2.628,-0.00015174,0
2.6285,-0.00015492,0
2.629,-0.00011196,0
2.6295,-3.978e-05,0
2.63,3.2731e-05,0
2.6305,8.8289e-05,0
2.631,0.00013008,0
2.6315,0.00015325,0
2.632,0.00015409,0
2.6325,0.00016097,0
2.633,0.00021199,0
2.6335,0.0003221,0
2.634,0.00047048,0
2.6345,0.00059872,0
2.635,0.00068264,0
2.6355,0.00075566,0
2.636,0.00080081,0
2.6365,0.00070446,0
2.637,0.0004349,0
2.6375,6.8147e-05,0
2.638,-0.00033402,0
2.6385,-0.00064135,0
2.639,-0.00076841,0
2.6395,-0.00074441,0
2.64,-0.00057421,0
2.6405,-0.00029189,0
2.641,-2.9038e-05,0
2.6415,8.6946e-05,0
2.642,6.949e-05,0
2.6425,-1.0071e-06,0
2.643,-8.4093e-05,0
2.6435,-0.0001702,0
2.644,-0.00024489,0
2.6445,-0.00028232,0
2.645,-0.00025614,0
2.6455,-0.00018178,0
2.646,-9.7017e-05,0
2.6465,-2.7192e-05,0
2.647,1.5442e-05,0
2.6475,3.7934e-05,0
2.648,5.623e-05,0
2.6485,7.3686e-05,0
2.649,8.5603e-05,0
2.6495,9.3828e-05,0
2.65,0.00010088,0
2.6505,0.00010692,0
2.651,0.00011028,0
2.6515,0.00011296,0
2.652,0.00012136,0
2.6525,0.00015291,0
2.653,0.00019319,0
2.6535,0.00020226,0
2.654,0.00017372,0
2.6545,0.00013545,0
2.655,0.00010188,0
2.6555,8.7114e-05,0
2.656,0.00011582,0
2.6565,0.00015476,0
2.657,0.00016768,0
2.6575,0.00015895,0
2.658,0.00012673,0
2.6585,6.3279e-05,0
2.659,-1.7792e-05,0
2.6595,-6.4958e-05,0
2.66,-4.7166e-05,0
2.6605,8.392e-07,0
2.661,2.8031e-05,0
2.6615,4.2802e-05,0
2.662,6.3447e-05,0
2.6625,6.4286e-05,0
2.663,3.3738e-05,0
2.6635,-1.4435e-05,0
2.664,-6.0258e-05,0
2.6645,-7.6371e-05,0
2.665,-5.2872e-05,0
2.6655,-1.7624e-05,0
2.666,2.6017e-05,0
2.6665,8.4093e-05,0
2.667,0.00011699,0
2.6675,0.00010793,0
2.668,0.00010004,0
2.6685,0.00014788,0
2.669,0.00023314,0
2.6695,0.00028182,0
2.67,0.00026638,0
2.6705,0.00020243,0
2.671,0.00011095,0
2.6715,-1.1749e-06,0
2.672,-0.00013999,0
2.6725,-0.00028803,0
2.673,-0.00038975,0
2.6735,-0.00038589,0
2.674,-0.00030146,0
2.6745,-0.00021904,0
2.675,-0.00016634,0
2.6755,-0.00015241,0
2.676,-0.00017087,0
2.6765,-0.00020629,0
2.677,-0.00020578,0
2.6775,-0.00010272,0
2.678,4.1795e-05,0
2.6785,0.00011464,0
2.679,9.9031e-05,0
2.6795,5.0523e-05,0
2.68,1.1078e-05,0
2.6805,-1.4603e-05,0
2.681,-2.7359e-05,0
2.6815,-1.6785e-06,0
2.682,7.5364e-05,0
2.6825,0.00015543,0
2.683,0.000213,0
2.6835,0.0002694,0
2.684,0.00033385,0
2.6845,0.00037279,0
2.685,0.00036373,0
2.6855,0.00034057,0
2.686,0.00037313,0
2.6865,0.00042953,0
2.687,0.00041207,0
2.6875,0.00028081,0
2.688,9.2485e-05,0
2.6885,-0.00012471,0
2.689,-0.0003508,0
2.6895,-0.00051563,0
2.69,-0.00059956,0
2.6905,-0.00060829,0
2.691,-0.00048106,0
2.6915,-0.00020427,0
2.692,0.00014385,0
2.6925,0.00036876,0
2.693,0.00034023,0
2.6935,0.00012337,0
2.694,-0.00012605,0
2.6945,-0.00030263,0
2.695,-0.00039461,0
2.6955,-0.00046964,0
2.696,-0.00053695,0
2.6965,-0.0004829,0
2.697,-0.00032093,0
2.6975,-0.00016953,0
2.698,-8.1071e-05,0
2.6985,-4.2466e-05,0
2.699,-1.7121e-05,0
2.6995,2.1317e-05,0
2.7,7.3014e-05,0
2.7005,0.00012102,0
2.701,0.00016097,0
2.7015,0.00019403,0
2.702,0.000236,0
2.7025,0.00028383,0
2.703,0.00030515,0
2.7035,0.0002939,0
2.704,0.00025765,0
2.7045,0.0002125,0
2.705,0.00015996,0
2.7055,9.0471e-05,0
2.706,3.2395e-05,0
2.7065,3.4745e-05,0
2.707,9.4331e-05,0
2.7075,0.00014788,0
2.708,0.00015526,0
2.7085,0.00013193,0
2.709,0.00014653,0
2.7095,0.00024019,0
2.71,0.00039898,0
2.7105,0.00058462,0
2.711,0.0006954,0
2.7115,0.00064034,0
2.712,0.00044161,0
2.7125,0.00015828,0
2.713,-0.0001613,0
2.7135,-0.00042046,0
2.714,-0.00051647,0
2.7145,-0.00046964,0
2.715,-0.00035282,0
2.7155,-0.00023096,0
2.716,-0.0001566,0
2.7165,-0.00014452,0
2.717,-0.00018766,0
2.7175,-0.00025043,0
2.718,-0.00029189,0
2.7185,-0.00026755,0
2.719,-0.00018329,0
2.7195,-0.00011061,0
2.72,-6.7308e-05,0
2.7205,8.3925e-06,0
2.721,0.00012538,0
2.7215,0.00019168,0
2.722,0.00015644,0
2.7225,6.6133e-05,0
2.723,-1.8296e-05,0
2.7235,-6.4622e-05,0
2.724,-8.9464e-05,0
2.7245,-0.00011431,0
2.725,-0.00010961,0
2.7255,-2.0142e-05,0
2.726,0.00013327,0
2.7265,0.00028383,0
2.727,0.00039344,0
2.7275,0.00047417,0
2.728,0.00052688,0
2.7285,0.00051479,0
2.729,0.00040368,0
2.7295,0.00020931,0
2.73,-1.5274e-05,0
2.7305,-0.00022744,0
2.731,-0.00040603,0
2.7315,-0.00053594,0
2.732,-0.00056985,0
2.7325,-0.0004725,0
2.733,-0.0002939,0
2.7335,-0.0001237,0
2.734,-1.6281e-05,0
2.7345,2.7359e-05,0
2.735,4.1291e-05,0
2.7355,7.2007e-05,0
2.736,0.00012136,0
2.7365,0.00015912,0
2.737,0.00016617,0
2.7375,0.00014821,0
2.738,0.00010054,0
2.7385,2.9206e-05,0
2.739,-2.4842e-05,0
2.7395,-3.1052e-05,0
2.74,-8.392e-07,0
2.7405,4.3305e-05,0
2.741,8.2414e-05,0
2.7415,0.00013747,0
2.742,0.00020662,0
2.7425,0.00023667,0
2.743,0.00019319,0
2.7435,8.7114e-05,0
2.744,-3.1388e-05,0
2.7445,-0.0001086,0
2.745,-0.00011397,0
2.7455,-6.6636e-05,0
2.746,-1.0239e-05,0
2.7465,4.0787e-05,0
2.747,7.1839e-05,0
2.7475,7.9728e-05,0
2.748,8.9799e-05,0
2.7485,0.00012253,0
2.749,0.00018413,0
2.7495,0.00027041,0
2.75,0.00033251,0
2.7505,0.00031539,0
2.751,0.00025295,0
2.7515,0.00022307,0
2.752,0.00020461,0
2.7525,0.00010356,0
2.753,-0.00010826,0
2.7535,-0.00028199,0
2.754,-0.00024942,0
2.7545,-7.6875e-05,0
2.755,3.3738e-05,0
2.7555,1.7288e-05,0
2.756,-4.3977e-05,0
2.7565,-9.6849e-05,0
2.757,-0.00016248,0
2.7575,-0.00025647,0
2.758,-0.0003456,0
2.7585,-0.00036037,0
2.759,-0.00027443,0
2.7595,-0.00015593,0
2.76,-6.63e-05,0
2.7605,-2.5177e-06,0
2.761,4.2802e-05,0
2.7615,5.2201e-05,0
2.762,2.8031e-05,0
2.7625,5.8747e-06,0
2.763,4.8676e-06,0
2.7635,6.8818e-06,0
2.764,2.2324e-05,0
2.7645,5.7069e-05,0
2.765,9.2821e-05,0
2.7655,0.00013143,0
2.766,0.00018044,0
2.7665,0.00026571,0
2.767,0.00038622,0
2.7675,0.00046679,0
2.768,0.00047518,0
2.7685,0.0004166,0
2.769,0.00027443,0
2.7695,4.683e-05,0
2.77,-0.0002036,0
2.7705,-0.00037447,0
2.771,-0.00046125,0
2.7715,-0.00046998,0
2.772,-0.00041828,0
2.7725,-0.00035702,0
2.773,-0.00026537,0
2.7735,-0.00010155,0
2.774,8.6442e-05,0
2.7745,0.00021804,0
2.775,0.00025429,0
2.7755,0.00020327,0
2.776,0.00010423,0
2.7765,-6.0426e-06,0
2.777,-9.7856e-05,0
2.7775,-0.00012136,0
2.778,-1.3092e-05,0
2.7785,0.00023835,0
2.779,0.00052822,0
2.7795,0.0006766,0
2.78,0.00060375,0
2.7805,0.00039881,0
2.781,0.0001791,0
2.7815,-2.5849e-05,0
2.782,-0.00022995,0
2.7825,-0.00042634,0
2.783,-0.00049801,0
2.7835,-0.0003733,0
2.784,-0.0002088,0
2.7845,-0.00017607,0
2.785,-0.00023969,0
2.7855,-0.00027947,0
2.786,-0.00026218,0
2.7865,-0.00024053,0
2.787,-0.0002407,0
2.7875,-0.00022257,0
2.788,-0.00016181,0
2.7885,-7.4693e-05,0
2.789,6.5461e-06,0
2.7895,6.1936e-05,0
2.79,9.5171e-05,0
2.7905,0.00011917,0
2.791,0.00013864,0
2.7915,0.00015492,0
2.792,0.00017272,0
2.7925,0.00020914,0
2.793,0.00026772,0
2.7935,0.00030649,0
2.794,0.00031136,0
2.7945,0.0003174,0
2.795,0.00030465,0
2.7955,0.00024657,0
2.796,0.00014838,0
2.7965,2.652e-05,0
2.797,-9.7856e-05,0
2.7975,-0.0001895,0
2.798,-0.00023113,0
2.7985,-0.00020998,0
2.799,-0.00012236,0
2.7995,-1.091e-05,0
2.8,6.3615e-05,0
2.8005,7.8721e-05,0
2.801,8.2918e-05,0
2.8015,0.00011431,0
2.802,0.0001801,0
2.8025,0.00027175,0
2.803,0.00031807,0
2.8035,0.00028249,0
2.804,0.00019252,0
2.8045,6.0594e-05,0
2.805,-9.4163e-05,0
2.8055,-0.00024321,0
2.806,-0.00035131,0
2.8065,-0.00037061,0
2.807,-0.0003028,0
2.8075,-0.0001895,0
2.808,-8.1239e-05,0
2.8085,-2.3499e-06,0
2.809,7.2007e-05,0
2.8095,0.00015207,0
2.81,0.00022274,0
2.8105,0.00029424,0
2.811,0.00038773,0
2.8115,0.0004584,0
2.812,0.00043221,0
2.8125,0.00028098,0
2.813,7.9896e-05,0
2.8135,-8.2246e-05,0
2.814,-0.00017372,0
2.8145,-0.00020494,0
2.815,-0.00022609,0
2.8155,-0.00024388,0
2.816,-0.00022274,0
2.8165,-0.00016281,0
2.817,-0.00011649,0
2.8175,-0.00011397,0
2.818,-0.00013512,0
2.8185,-0.00015593,0
2.819,-0.00018917,0
2.8195,-0.00021166,0
2.82,-0.00018396,0
2.8205,-0.00010759,0
2.821,-1.7288e-05,0
2.8215,5.2537e-05,0
2.822,0.00010407,0
2.8225,0.00013982,0
2.823,0.00015123,0
2.8235,0.00014217,0
2.824,0.00013126,0
2.8245,0.00012757,0
2.825,0.0001274,0
2.8255,0.00012136,0
2.826,0.00011649,0
2.8265,0.00013143,0
2.827,0.00018111,0
2.8275,0.00024019,0
2.828,0.00023281,0
2.8285,0.00013646,0
2.829,2.1149e-05,0
2.8295,-5.1362e-05,0
2.83,-6.4622e-05,0
2.8305,1.6281e-05,0
2.831,0.00019286,0
2.8315,0.00033217,0
2.832,0.00033721,0
2.8325,0.00024691,0
2.833,0.00012723,0
2.8335,-1.7792e-05,0
2.834,-0.00017708,0
2.8345,-0.00029239,0
2.835,-0.00032647,0
2.8355,-0.00026789,0
2.836,-0.00016231,0
2.8365,-7.7378e-05,0
2.837,-4.1459e-05,0
2.8375,-3.7766e-05,0
2.838,-3.1052e-05,0
2.8385,-8.2246e-06,0
2.839,3.7934e-05,0
2.8395,0.00014603,0
2.84,0.00028585,0
2.8405,0.00036306,0
2.841,0.00038756,0
2.8415,0.00041308,0
2.842,0.00039663,0
2.8425,0.00029625,0
2.843,0.00011565,0
2.8435,-0.0001086,0
2.844,-0.00032143,0
2.8445,-0.00048458,0
2.845,-0.00057639,0
2.8455,-0.00059217,0
2.846,-0.00053275,0
2.8465,-0.00043305,0
2.847,-0.00030733,0
2.8475,-0.00017675,0
2.848,-8.2078e-05,0
2.8485,-2.887e-05,0
2.849,-6.5461e-06,0
2.8495,-1.0071e-06,0
2.85,8.392e-07,0
2.8505,8.896e-06,0
2.851,2.7527e-05,0
2.8515,5.4551e-05,0
2.852,8.8457e-05,0
2.8525,0.00012152,0
2.853,0.00014485,0
2.8535,0.00016097,0
2.854,0.0001744,0
2.8545,0.00018715,0
2.855,0.00021048,0
2.8555,0.00023029,0
2.856,0.00024372,0
2.8565,0.00028937,0
2.857,0.00034342,0
2.8575,0.00034879,0
2.858,0.00028367,0
2.8585,0.00017607,0
2.859,0.00011464,0
2.8595,0.00018245,0
2.86,0.00034057,0
2.8605,0.00043859,0
2.861,0.00038505,0
2.8615,0.00022005,0
2.862,4.1123e-05,0
2.8625,-0.00010826,0
2.863,-0.00026268,0
2.8635,-0.00045655,0
2.864,-0.00062977,0
2.8645,-0.00067475,0
2.865,-0.00058328,0
2.8655,-0.00044195,0
2.866,-0.00032932,0
2.8665,-0.00025463,0
2.867,-0.00018077,0
2.8675,-0.00010188,0
2.868,-4.2466e-05,0
2.8685,1.0239e-05,0
2.869,9.8863e-05,0
2.8695,0.00024724,0
2.87,0.00045101,0
2.8705,0.0006155,0
2.871,0.0006437,0
2.8715,0.00056985,0
2.872,0.00043825,0
2.8725,0.00022609,0
2.873,-6.9993e-05,0
2.8735,-0.00036222,0
2.874,-0.00051933,0
2.8745,-0.0005111,0
2.875,-0.00042231,0
2.8755,-0.00033788,0
2.876,-0.00025966,0
2.8765,-0.00015207,0
2.877,-2.7192e-05,0
2.8775,6.0258e-05,0
2.878,8.9464e-05,0
2.8785,8.8457e-05,0
2.879,7.9728e-05,0
2.8795,7.8889e-05,0
2.88,9.0135e-05,0
2.8805,0.00010692,0
2.881,0.0001086,0
2.8815,0.00010793,0
2.882,0.00012522,0
2.8825,0.00013512,0
2.883,0.0001086,0
2.8835,6.8315e-05,0
2.884,6.1601e-05,0
2.8845,0.0001091,0
2.885,0.00018212,0
2.8855,0.00023919,0
2.886,0.00027779,0
2.8865,0.00031841,0
2.887,0.00037682,0
2.8875,0.00045101,0
2.888,0.00043053,0
2.8885,0.00023314,0
2.889,-2.7024e-05,0
2.8895,-0.00023935,0
2.89,-0.00041845,0
2.8905,-0.00055793,0
2.891,-0.00055709,0
2.8915,-0.00036037,0
2.892,-6.3447e-05,0
2.8925,0.00015157,0
2.893,0.00018111,0
2.8935,7.1672e-05,0
2.894,-7.6539e-05,0
2.8945,-0.00020394,0
2.895,-0.0002746,0
2.8955,-0.00026889,0
2.896,-0.00019722,0
2.8965,-9.3492e-05,0
2.897,-2.031e-05,0
2.8975,1.3092e-05,0
2.898,2.6688e-05,0
2.8985,3.2731e-05,0
2.899,3.6927e-05,0
2.8995,4.8005e-05,0
2.9,6.1601e-05,0
2.9005,7.3182e-05,0
2.901,8.6946e-05,0
2.9015,0.00010977,0
2.902,0.00013948,0
2.9025,0.00016231,0
2.903,0.00016768,0
2.9035,0.00015291,0
2.904,0.0001284,0
2.9045,0.00010726,0
2.905,9.2653e-05,0
2.9055,8.2918e-05,0
2.906,7.2679e-05,0
2.9065,7.2343e-05,0
2.907,8.2918e-05,0
2.9075,9.4667e-05,0
2.908,9.366e-05,0
2.9085,7.9393e-05,0
2.909,6.6972e-05,0
2.9095,6.9154e-05,0
2.91,7.7378e-05,0
2.9105,8.745e-05,0
2.911,0.00010155,0
2.9115,0.00014653,0
2.912,0.0002459,0
2.9125,0.00035232,0
2.913,0.00040066,0
2.9135,0.00037967,0
2.914,0.00031002,0
2.9145,0.00024556,0
2.915,0.00022475,0
2.9155,0.00020226,0
2.916,0.00011498,0
2.9165,-4.6159e-05,0
2.917,-0.00022727,0
2.9175,-0.00034879,0
2.918,-0.00038186,0
2.9185,-0.0003931,0
2.919,-0.00041157,0
2.9195,-0.00035584,0
2.92,-0.00024556,0
2.9205,-0.00019722,0
2.921,-0.00025496,0
2.9215,-0.00034124,0
2.922,-0.00036927,0
2.9225,-0.00033066,0
2.923,-0.00025563,0
2.9235,-0.0001791,0
2.924,-9.3492e-05,0
2.9245,1.091e-05,0
2.925,9.5674e-05,0
2.9255,0.00012303,0
2.926,0.0001133,0
2.9265,9.987e-05,0
2.927,8.3589e-05,0
2.9275,4.4816e-05,0
2.928,-1.6449e-05,0
2.9285,-5.7069e-05,0
2.929,-4.5487e-05,0
2.9295,-1.1749e-06,0
2.93,5.0858e-05,0
2.9305,0.00014032,0
2.931,0.00035332,0
2.9315,0.00071218,0
2.932,0.0010902,0
2.9325,0.0012362,0
2.933,0.0010432,0
2.9335,0.00061886,0
2.934,0.0001185,0
2.9345,-0.00030347,0
2.935,-0.00062826,0
2.9355,-0.00092837,0
2.936,-0.0011128,0
2.9365,-0.0010012,0
2.937,-0.00067543,0
2.9375,-0.00041039,0
2.938,-0.00030028,0
2.9385,-0.0002553,0
2.939,-0.00019521,0
2.9395,-0.00010222,0
2.94,-1.4267e-05,0
2.9405,3.2731e-05,0
2.941,5.069e-05,0
2.9415,6.865e-05,0
2.942,9.2485e-05,0
2.9425,0.00011397,0
2.943,0.00012589,0
2.9435,0.00013008,0
2.944,0.00013092,0
2.9445,0.00013529,0
2.945,0.00014418,0
2.9455,0.00015023,0
2.946,0.00015157,0
2.9465,0.00014888,0
2.947,0.00014553,0
2.9475,0.00014855,0
2.948,0.0001707,0
2.9485,0.00021938,0
2.949,0.00026168,0
2.9495,0.00025614,0
2.95,0.00020897,0
2.9505,0.00014754,0
2.951,8.8457e-05,0
2.9515,4.6159e-05,0
2.952,1.2924e-05,0
2.9525,5.8747e-06,0
2.953,3.4745e-05,0
2.9535,5.0858e-05,0
2.954,2.2324e-05,0
2.9545,-2.9374e-05,0
2.955,-5.9251e-05,0
2.9555,-4.9012e-05,0
2.956,-1.8631e-05,0
2.9565,1.1749e-05,0
2.957,3.4577e-05,0
2.9575,8.04e-05,0
2.958,0.00021569,0
2.9585,0.00042953,0
2.959,0.00057841,0
2.9595,0.00053661,0
2.96,0.00033285,0
2.9605,8.0064e-05,0
2.961,-0.00015123,0
2.9615,-0.00036306,0
2.962,-0.00052906,0
2.9625,-0.00053779,0
2.963,-0.00032009,0
2.9635,-8.2246e-06,0
2.964,0.00018917,0
2.9645,0.0002177,0
2.965,0.00016231,0
2.9655,0.00010423,0
2.966,2.8702e-05,0
2.9665,-7.4693e-05,0
2.967,-0.00017288,0
2.9675,-0.00021804,0
2.968,-0.0001942,0
2.9685,-0.00016533,0
2.969,-0.00017809,0
2.9695,-0.00018547,0
2.97,-0.000142,0
2.9705,-5.8915e-05,0
2.971,3.0549e-05,0
2.9715,9.6513e-05,0
2.972,0.0001378,0
2.9725,0.000166,0
2.973,0.00016735,0
2.9735,0.00011112,0
2.974,3.8605e-06,0
2.9745,-9.8863e-05,0
2.975,-0.00014217,0
2.9755,-0.00013864,0
2.976,-0.00011162,0
2.9765,-6.2272e-05,0
2.977,-2.8534e-06,0
2.9775,4.0787e-05,0
2.978,6.2608e-05,0
2.9785,8.9799e-05,0
2.979,0.00017675,0
2.9795,0.00031002,0
2.98,0.00038857,0
2.9805,0.00034829,0
2.981,0.00023046,0
2.9815,8.7114e-05,0
2.982,-4.918e-05,0
2.9825,-0.00015946,0
2.983,-0.00025362,0
2.9835,-0.00030414,0
2.984,-0.00024623,0
2.9845,-0.00010658,0
2.985,3.7095e-05,0
2.9855,0.0001608,0
2.986,0.00026168,0
2.9865,0.00031203,0
2.987,0.00027108,0
2.9875,0.00016634,0
2.988,4.1962e-05,0
2.9885,-8.1743e-05,0
2.989,-0.00018329,0
2.9895,-0.00025295,0
2.99,-0.00028786,0
2.9905,-0.00027897,0
2.991,-0.00022072,0
2.9915,-0.00014015,0
2.992,-7.5868e-05,0
2.9925,-2.887e-05,0
2.993,-1.1749e-06,0
2.9935,2.9709e-05,0
2.994,9.6513e-05,0
2.9945,0.0001848,0
2.995,0.00022727,0
2.9955,0.00020478,0
2.996,0.0001697,0
2.9965,0.00015358,0
2.997,0.00015224,0
2.9975,0.0001472,0
2.998,0.00012924,0
2.9985,0.00012052,0
2.999,0.00014351,0
2.9995,0.00016735,0
3,0.00013545,0
3.0005,6.2272e-05,0
3.001,-3.1052e-05,0
3.0015,-0.00015895,0
3.002,-0.00026604,0
3.0025,-0.00024741,0
3.003,-0.00012438,0
3.0035,-1.4267e-05,0
3.004,1.2589e-05,0
3.0045,-4.1962e-06,0
3.005,-1.3596e-05,0
3.0055,-1.8967e-05,0
3.006,-4.8676e-06,0
3.0065,1.947e-05,0
3.007,9.5674e-06,0
3.0075,4.3641e-06,0
3.008,8.275e-05,0
3.0085,0.000189,0
3.009,0.00016197,0
3.0095,-1.5106e-06,0
3.01,-0.00016802,0
3.0105,-0.00022945,0
3.011,-0.00022274,0
3.0115,-0.00021988,0
3.012,-0.00019705,0
3.0125,-0.00012874,0
3.013,-4.918e-05,0
3.0135,-3.6927e-06,0
3.014,9.2317e-06,0
3.0145,1.5946e-05,0
3.015,-2.182e-06,0
3.0155,-6.4286e-05,0
3.016,-0.00012303,0
3.0165,-0.00011028,0
3.017,-4.0116e-05,0
3.0175,3.2731e-05,0
3.018,7.7714e-05,0
3.0185,9.5506e-05,0
3.019,0.00010188,0
3.0195,0.00011296,0
3.02,0.00013378,0
3.0205,0.00015761,0
3.021,0.00017876,0
3.0215,0.00019118,0
3.022,0.00019756,0
3.0225,0.00022995,0
3.023,0.00033016,0
3.0235,0.00047485,0
3.024,0.00055105,0
3.0245,0.00048458,0
3.025,0.00032009,0
3.0255,0.00012136,0
3.026,-8.9464e-05,0
3.0265,-0.0002892,0
3.027,-0.00043238,0
3.0275,-0.00045252,0
3.028,-0.0003545,0
3.0285,-0.00021585,0
3.029,-8.7785e-05,0
3.0295,9.7353e-06,0
3.03,6.479e-05,0
3.0305,7.5029e-05,0
3.031,5.2537e-05,0
3.0315,5.539e-06,0
3.032,-3.3402e-05,0
3.0325,-3.508e-05,0
3.033,-1.1582e-05,0
3.0335,6.3783e-06,0
3.034,1.7624e-05,0
3.0345,4.683e-05,0
3.035,9.5842e-05,0
3.0355,0.0001237,0
3.036,0.00011263,0
3.0365,8.5435e-05,0
3.037,6.3951e-05,0
3.0375,4.8005e-05,0
3.038,3.3402e-05,0
3.0385,1.8631e-05,0
3.039,8.896e-06,0
3.0395,2.0646e-05,0
3.04,5.8915e-05,0
3.0405,8.9799e-05,0
3.041,7.4861e-05,0
3.0415,3.4241e-05,0
3.042,1.0575e-05,0
3.0425,1.4267e-05,0
3.043,2.6017e-05,0
3.0435,2.887e-05,0
3.044,2.8031e-05,0
3.0445,4.0787e-05,0
3.045,5.8915e-05,0
3.0455,5.9922e-05,0
3.046,5.5894e-05,0
3.0465,6.0258e-05,0
3.047,6.8315e-05,0
3.0475,8.3085e-05,0
3.048,0.00010356,0
3.0485,0.0001368,0
3.049,0.00016886,0
3.0495,0.00016634,0
3.05,0.00012421,0
3.0505,5.9922e-05,0
3.051,-2.7863e-05,0
3.0515,-0.00011968,0
3.052,-0.00017003,0
3.0525,-0.00014519,0
3.053,-7.3014e-05,0
3.0535,-2.1317e-05,0
3.054,-6.2104e-06,0
3.0545,1.8463e-06,0
3.055,1.1414e-05,0
3.0555,2.7359e-05,0
3.056,6.2272e-05,0
3.0565,9.6849e-05,0
3.057,9.7856e-05,0
3.0575,5.5558e-05,0
3.058,6.714e-07,0
3.0585,-4.9851e-05,0
3.059,-9.9031e-05,0
3.0595,-0.0001378,0
3.06,-0.00014066,0
3.0605,-0.00012035,0
3.061,-0.00011162,0
3.0615,-0.00011498,0
3.062,-9.1646e-05,0
3.0625,-3.508e-05,0
3.063,3.0716e-05,0
3.0635,8.9128e-05,0
3.064,0.00013378,0
