0,0,0
0.0005,0,0
0.001,0,0
0.0015,0,0
0.002,0,0
0.0025,0,0
0.003,0,0
0.0035,0,0
0.004,0,0
0.0045,0,0
0.005,0,0
0.0055,0,0
0.006,0,0
0.0065,0,0
0.007,0,0
0.0075,0,0
0.008,0,0
0.0085,0,0
0.009,0,0
0.0095,0,0
0.01,0,0
0.0105,0,0
0.011,0,0
0.0115,0,0
0.012,0,0
0.0125,0,0
0.013,0,0
0.0135,0,0
0.014,0,0
0.0145,0,0
0.015,0,0
0.0155,0,0
0.016,0,0
0.0165,0,0
0.017,0,0
0.0175,0,0
0.018,0,0
0.0185,0,0
0.019,0,0
0.0195,0,0
0.02,0,0
0.0205,0,0
0.021,0,0
0.0215,0,0
0.022,0,0
0.0225,0,0
0.023,0,0
0.0235,0,0
0.024,0,0
0.0245,0,0
0.025,0,0
0.0255,0,0
0.026,0,0
0.0265,0,0
0.027,0,0
0.0275,0,0
0.028,0,0
0.0285,0,0
0.029,0,0
0.0295,0,0
0.03,0,0
0.0305,0,0
0.031,0,0
0.0315,0,0
0.032,0,0
0.0325,0,0
0.033,0,0
0.0335,0,0
0.034,0,0
0.0345,0,0
0.035,0,0
0.0355,0,0
0.036,0,0
0.0365,0,0
0.037,0,0
0.0375,0,0
0.038,0,0
0.0385,0,0
0.039,0,0
0.0395,0,0
0.04,0,0
0.0405,0,0
0.041,0,0
0.0415,0,0
0.042,0,0
0.0425,0,0
0.043,0,0
0.0435,0,0
0.044,0,0
0.0445,0,0
0.045,0,0
0.0455,0,0
0.046,0,0
0.0465,0,0
0.047,0,0
0.0475,0,0
0.048,0,0
0.0485,0,0
0.049,0,0
0.0495,0,0
0.05,0,0
0.0505,0,0
0.051,0,0
0.0515,0,0
0.052,-1.1917e-05,0
0.0525,-8.896e-06,0
0.053,-4.0284e-06,0
0.0535,0,0
0.054,3.6927e-06,0
0.0545,8.2246e-06,0
0.055,1.1582e-05,0
0.0555,1.4267e-05,0
0.056,1.7288e-05,0
0.0565,2.182e-05,0
0.057,2.5345e-05,0
0.0575,2.6688e-05,0
0.058,2.7863e-05,0
0.0585,3.0213e-05,0
0.059,3.1556e-05,0
0.0595,3.2731e-05,0
0.06,3.5416e-05,0
0.0605,3.6927e-05,0
0.061,3.743e-05,0
0.0615,3.827e-05,0
0.062,3.8437e-05,0
0.0625,3.7934e-05,0
0.063,3.8437e-05,0
0.0635,3.8437e-05,0
0.064,3.8605e-05,0
0.0645,3.8941e-05,0
0.065,3.743e-05,0
0.0655,3.5752e-05,0
0.066,3.4073e-05,0
0.0665,3.2059e-05,0
0.067,2.9038e-05,0
0.0675,2.6688e-05,0
0.068,2.6352e-05,0
0.0685,2.6688e-05,0
0.069,2.6352e-05,0
0.0695,2.5345e-05,0
0.07,2.6017e-05,0
0.0705,2.7359e-05,0
0.071,2.6688e-05,0
0.0715,2.5009e-05,0
0.072,2.5009e-05,0
0.0725,2.5345e-05,0
0.073,2.4842e-05,0
0.0735,2.2995e-05,0
0.074,2.182e-05,0
0.0745,2.1988e-05,0
0.075,2.182e-05,0
0.0755,2.0646e-05,0
0.076,1.8631e-05,0
0.0765,1.6281e-05,0
0.077,1.5106e-05,0
0.0775,1.561e-05,0
0.078,1.6281e-05,0
0.0785,1.6617e-05,0
0.079,1.4267e-05,0
0.0795,1.1582e-05,0
0.08,1.0239e-05,0
0.0805,9.9031e-06,0
0.081,1.2421e-05,0
0.0815,1.4267e-05,0
0.082,1.4267e-05,0
0.0825,1.3764e-05,0
0.083,1.4435e-05,0
0.0835,1.4267e-05,0
0.084,1.4267e-05,0
0.0845,1.326e-05,0
0.085,1.2589e-05,0
0.0855,1.2924e-05,0
0.086,1.2085e-05,0
0.0865,1.1917e-05,0
0.087,1.326e-05,0
0.0875,1.4267e-05,0
0.088,1.4435e-05,0
0.0885,1.3932e-05,0
0.089,1.2589e-05,0
0.0895,1.091e-05,0
0.09,1.0407e-05,0
0.0905,1.1246e-05,0
0.091,1.2589e-05,0
0.0915,1.1582e-05,0
0.092,1.1246e-05,0
0.0925,1.4939e-05,0
0.093,2.1149e-05,0
0.0935,2.7359e-05,0
0.094,3.1388e-05,0
0.0945,3.122e-05,0
0.095,2.8702e-05,0
0.0955,2.3667e-05,0
0.096,1.4435e-05,0
0.0965,4.1962e-06,0
0.097,-2.8534e-06,0
0.0975,-5.2033e-06,0
0.098,-3.0213e-06,0
0.0985,4.3641e-06,0
0.099,1.4267e-05,0
0.0995,2.2995e-05,0
0.1,3.0045e-05,0
0.1005,3.8102e-05,0
0.101,4.5487e-05,0
0.1015,4.5151e-05,0
0.102,3.357e-05,0
0.1025,1.947e-05,0
0.103,9.0639e-06,0
0.1035,3.5248e-06,0
0.104,1.5106e-06,0
0.1045,1.1749e-06,0
0.105,2.3499e-06,0
0.1055,3.8605e-06,0
0.106,9.2317e-06,0
0.1065,1.7456e-05,0
0.107,2.4674e-05,0
0.1075,2.652e-05,0
0.108,2.2324e-05,0
0.1085,1.4939e-05,0
0.109,5.8747e-06,0
0.1095,-4.3641e-06,0
0.11,-1.2924e-05,0
0.1105,-1.5946e-05,0
0.111,-1.4603e-05,0
0.1115,-1.0239e-05,0
0.112,-2.3499e-06,0
0.1125,7.8889e-06,0
0.113,1.9303e-05,0
0.1135,2.8031e-05,0
0.114,3.3066e-05,0
0.1145,3.6759e-05,0
0.115,4.0116e-05,0
0.1155,4.2634e-05,0
0.116,4.2634e-05,0
0.1165,4.0787e-05,0
0.117,3.5416e-05,0
0.1175,2.4842e-05,0
0.118,1.2589e-05,0
0.1185,5.2033e-06,0
0.119,6.5461e-06,0
0.1195,1.1749e-05,0
0.12,1.796e-05,0
0.1205,2.2995e-05,0
0.121,2.4002e-05,0
0.1215,2.417e-05,0
0.122,2.5513e-05,0
0.1225,2.7192e-05,0
0.123,2.8702e-05,0
0.1235,3.1388e-05,0
0.124,3.4073e-05,0
0.1245,3.4577e-05,0
0.125,3.4745e-05,0
0.1255,3.6088e-05,0
0.126,4.0787e-05,0
0.1265,4.5991e-05,0
0.127,4.7166e-05,0
0.1275,4.448e-05,0
0.128,4.3809e-05,0
0.1285,4.448e-05,0
0.129,4.1795e-05,0
0.1295,3.2563e-05,0
0.13,1.8296e-05,0
0.1305,1.8463e-06,0
0.131,-8.896e-06,0
0.1315,-9.9031e-06,0
0.132,-1.1414e-05,0
0.1325,-1.7288e-05,0
0.133,-2.1653e-05,0
0.1335,-1.8967e-05,0
0.134,-1.1582e-05,0
0.1345,-4.1962e-06,0
0.135,2.8534e-06,0
0.1355,9.2317e-06,0
0.136,1.4435e-05,0
0.1365,1.8128e-05,0
0.137,2.2492e-05,0
0.1375,2.5849e-05,0
0.138,2.4674e-05,0
0.1385,1.7288e-05,0
0.139,9.3996e-06,0
0.1395,1.0239e-05,0
0.14,2.031e-05,0
0.1405,2.9877e-05,0
0.141,3.3066e-05,0
0.1415,3.4409e-05,0
0.142,3.978e-05,0
0.1425,4.8508e-05,0
0.143,4.8341e-05,0
0.1435,3.7095e-05,0
0.144,2.3331e-05,0
0.1445,1.2253e-05,0
0.145,3.5248e-06,0
0.1455,-1.6785e-06,0
0.146,-5.8747e-06,0
0.1465,-1.3428e-05,0
0.147,-1.9135e-05,0
0.1475,-1.326e-05,0
0.148,1.678e-07,0
0.1485,9.9031e-06,0
0.149,1.4603e-05,0
0.1495,1.7288e-05,0
0.15,1.7456e-05,0
0.1505,1.7288e-05,0
0.151,1.8967e-05,0
0.1515,2.266e-05,0
0.152,2.5681e-05,0
0.1525,2.8031e-05,0
0.153,2.8534e-05,0
0.1535,2.6352e-05,0
0.154,2.3331e-05,0
0.1545,2.0981e-05,0
0.155,2.2995e-05,0
0.1555,2.5681e-05,0
0.156,2.6017e-05,0
0.1565,2.5849e-05,0
0.157,2.6688e-05,0
0.1575,2.7695e-05,0
0.158,2.7527e-05,0
0.1585,2.7024e-05,0
0.159,2.7695e-05,0
0.1595,2.9374e-05,0
0.16,3.1724e-05,0
0.1605,3.2059e-05,0
0.161,3.2059e-05,0
0.1615,3.2059e-05,0
0.162,3.0045e-05,0
0.1625,2.8534e-05,0
0.163,2.652e-05,0
0.1635,2.2324e-05,0
0.164,1.8128e-05,0
0.1645,1.6617e-05,0
0.165,1.8128e-05,0
0.1655,2.1317e-05,0
0.166,2.2324e-05,0
0.1665,2.1653e-05,0
0.167,2.2156e-05,0
0.1675,2.3163e-05,0
0.168,2.5009e-05,0
0.1685,2.6688e-05,0
0.169,2.7695e-05,0
0.1695,2.6352e-05,0
0.17,2.4002e-05,0
0.1705,2.266e-05,0
0.171,2.4506e-05,0
0.1715,2.7695e-05,0
0.172,2.9374e-05,0
0.1725,2.9374e-05,0
0.173,2.8031e-05,0
0.1735,2.6688e-05,0
0.174,2.5345e-05,0
0.1745,2.6017e-05,0
0.175,2.3331e-05,0
0.1755,1.6617e-05,0
0.176,1.1078e-05,0
0.1765,9.0639e-06,0
0.177,8.896e-06,0
0.1775,1.1917e-05,0
0.178,1.8631e-05,0
0.1785,2.5849e-05,0
0.179,3.0045e-05,0
0.1795,3.0381e-05,0
0.18,3.0549e-05,0
0.1805,3.3066e-05,0
0.181,3.5584e-05,0
0.1815,3.743e-05,0
0.182,3.6591e-05,0
0.1825,3.0716e-05,0
0.183,2.5009e-05,0
0.1835,2.3499e-05,0
0.184,2.3163e-05,0
0.1845,1.7792e-05,0
0.185,7.2175e-06,0
0.1855,-4.8676e-06,0
0.186,-1.4267e-05,0
0.1865,-1.8463e-05,0
0.187,-1.4267e-05,0
0.1875,-1.1749e-06,0
0.188,1.5946e-05,0
0.1885,2.9038e-05,0
0.189,3.2731e-05,0
0.1895,2.5345e-05,0
0.19,9.7353e-06,0
0.1905,-9.2317e-06,0
0.191,-2.1149e-05,0
0.1915,-2.3163e-05,0
0.192,-2.1317e-05,0
0.1925,-2.0981e-05,0
0.193,-1.9974e-05,0
0.1935,-1.5106e-05,0
0.194,-8.2246e-06,0
0.1945,-2.6856e-06,0
0.195,2.182e-06,0
0.1955,9.0639e-06,0
0.196,1.6281e-05,0
0.1965,1.8967e-05,0
0.197,1.9806e-05,0
0.1975,2.0646e-05,0
0.198,2.1653e-05,0
0.1985,2.4002e-05,0
0.199,2.6017e-05,0
0.1995,2.7527e-05,0
0.2,2.9374e-05,0
0.2005,3.1724e-05,0
0.201,3.5248e-05,0
0.2015,3.8605e-05,0
0.202,4.1291e-05,0
0.2025,4.2298e-05,0
0.203,4.1962e-05,0
0.2035,3.978e-05,0
0.204,3.2731e-05,0
0.2045,2.2324e-05,0
0.205,1.5274e-05,0
0.2055,1.3932e-05,0
0.206,1.5274e-05,0
0.2065,1.4435e-05,0
0.207,1.0239e-05,0
0.2075,8.5603e-06,0
0.208,1.2421e-05,0
0.2085,1.8631e-05,0
0.209,2.4002e-05,0
0.2095,2.8031e-05,0
0.21,2.6688e-05,0
0.2105,2.4674e-05,0
0.211,2.5345e-05,0
0.2115,2.6688e-05,0
0.212,2.8367e-05,0
0.2125,2.8367e-05,0
0.213,2.2324e-05,0
0.2135,1.1582e-05,0
0.214,1.1749e-06,0
0.2145,-1.5106e-06,0
0.215,3.8605e-06,0
0.2155,1.0575e-05,0
0.216,1.5946e-05,0
0.2165,2.0646e-05,0
0.217,2.4338e-05,0
0.2175,2.6017e-05,0
0.218,2.6017e-05,0
0.2185,2.6017e-05,0
0.219,2.7359e-05,0
0.2195,2.7359e-05,0
0.22,2.7359e-05,0
0.2205,2.7359e-05,0
0.221,2.6688e-05,0
0.2215,2.7024e-05,0
0.222,2.7359e-05,0
0.2225,2.652e-05,0
0.223,2.4002e-05,0
0.2235,2.0478e-05,0
0.224,1.7121e-05,0
0.2245,1.4603e-05,0
0.225,1.4603e-05,0
0.2255,1.6449e-05,0
0.226,1.8631e-05,0
0.2265,1.9638e-05,0
0.227,2.1988e-05,0
0.2275,2.6688e-05,0
0.228,3.0716e-05,0
0.2285,3.122e-05,0
0.229,3.0381e-05,0
0.2295,2.7695e-05,0
0.23,2.5513e-05,0
0.2305,2.5345e-05,0
0.231,2.5345e-05,0
0.2315,2.182e-05,0
0.232,1.7288e-05,0
0.2325,1.6281e-05,0
0.233,2.0142e-05,0
0.2335,2.6352e-05,0
0.234,3.0716e-05,0
0.2345,3.3066e-05,0
0.235,3.3402e-05,0
0.2355,3.0213e-05,0
0.236,2.6017e-05,0
0.2365,2.2324e-05,0
0.237,1.4435e-05,0
0.2375,2.182e-06,0
0.238,-9.0639e-06,0
0.2385,-1.4603e-05,0
0.239,-1.4603e-05,0
0.2395,-1.5106e-05,0
0.24,-1.6281e-05,0
0.2405,-1.091e-05,0
0.241,-1.6785e-06,0
0.2415,6.2104e-06,0
0.242,1.1246e-05,0
0.2425,1.561e-05,0
0.243,1.7456e-05,0
0.2435,1.6617e-05,0
0.244,1.5946e-05,0
0.2445,1.7624e-05,0
0.245,1.8631e-05,0
0.2455,1.796e-05,0
0.246,1.7624e-05,0
0.2465,1.8631e-05,0
0.247,2.4338e-05,0
0.2475,3.1388e-05,0
0.248,3.4241e-05,0
0.2485,3.508e-05,0
0.249,3.5248e-05,0
0.2495,3.4745e-05,0
0.25,3.3066e-05,0
0.2505,2.9374e-05,0
0.251,2.3667e-05,0
0.2515,1.5946e-05,0
0.252,7.8889e-06,0
0.2525,3.0213e-06,0
0.253,2.8534e-06,0
0.2535,5.2033e-06,0
0.254,9.0639e-06,0
0.2545,1.3764e-05,0
0.255,1.7456e-05,0
0.2555,1.796e-05,0
0.256,1.8296e-05,0
0.2565,2.1988e-05,0
0.257,2.6017e-05,0
0.2575,2.9374e-05,0
0.258,3.2059e-05,0
0.2585,3.4745e-05,0
0.259,3.7095e-05,0
0.2595,3.6759e-05,0
0.26,3.4409e-05,0
0.2605,3.4073e-05,0
0.261,3.3234e-05,0
0.2615,3.0045e-05,0
0.262,2.5009e-05,0
0.2625,1.8967e-05,0
0.263,1.3596e-05,0
0.2635,8.5603e-06,0
0.264,3.357e-06,0
0.2645,0,0
0.265,5.035e-07,0
0.2655,5.3712e-06,0
0.266,1.2253e-05,0
0.2665,1.8967e-05,0
0.267,2.3331e-05,0
0.2675,2.2324e-05,0
0.268,1.7288e-05,0
0.2685,1.4771e-05,0
0.269,1.4603e-05,0
0.2695,1.3428e-05,0
0.27,1.3596e-05,0
0.2705,1.2757e-05,0
0.271,9.5674e-06,0
0.2715,6.5461e-06,0
0.272,4.3641e-06,0
0.2725,5.0355e-06,0
0.273,9.2317e-06,0
0.2735,1.2924e-05,0
0.274,1.2253e-05,0
0.2745,9.0639e-06,0
0.275,5.8747e-06,0
0.2755,7.2175e-06,0
0.276,1.326e-05,0
0.2765,2.0646e-05,0
0.277,2.6688e-05,0
0.2775,2.8031e-05,0
0.278,2.652e-05,0
0.2785,2.9877e-05,0
0.279,3.8773e-05,0
0.2795,4.918e-05,0
0.28,5.4887e-05,0
0.2805,5.2872e-05,0
0.281,4.7166e-05,0
0.2815,3.9277e-05,0
0.282,3.0381e-05,0
0.2825,2.2156e-05,0
0.283,1.1749e-05,0
0.2835,-2.182e-06,0
0.284,-1.7288e-05,0
0.2845,-2.8367e-05,0
0.285,-2.7695e-05,0
0.2855,-1.5778e-05,0
0.286,-3.357e-07,0
0.2865,1.0575e-05,0
0.287,1.4099e-05,0
0.2875,1.3932e-05,0
0.288,1.5442e-05,0
0.2885,2.1317e-05,0
0.289,2.8031e-05,0
0.2895,3.1388e-05,0
0.29,3.2395e-05,0
0.2905,3.4409e-05,0
0.291,3.6088e-05,0
0.2915,3.4745e-05,0
0.292,3.1052e-05,0
0.2925,2.5681e-05,0
0.293,1.8967e-05,0
0.2935,1.2253e-05,0
0.294,9.7353e-06,0
0.2945,9.9031e-06,0
0.295,1.326e-05,0
0.2955,1.6449e-05,0
0.296,1.9638e-05,0
0.2965,2.4002e-05,0
0.297,2.7863e-05,0
0.2975,2.8534e-05,0
0.298,2.8199e-05,0
0.2985,3.0213e-05,0
0.299,3.2059e-05,0
0.2995,3.4409e-05,0
0.3,3.8437e-05,0
0.3005,4.2802e-05,0
0.301,4.5487e-05,0
0.3015,4.5823e-05,0
0.302,4.3977e-05,0
0.3025,4.1795e-05,0
0.303,3.5416e-05,0
0.3035,2.5345e-05,0
0.304,1.7624e-05,0
0.3045,1.1917e-05,0
0.305,8.3925e-06,0
0.3055,7.5532e-06,0
0.306,6.3783e-06,0
0.3065,4.5319e-06,0
0.307,2.5177e-06,0
0.3075,4.1962e-06,0
0.308,1.0239e-05,0
0.3085,1.6953e-05,0
0.309,1.9974e-05,0
0.3095,1.9974e-05,0
0.31,2.031e-05,0
0.3105,2.2492e-05,0
0.311,2.4338e-05,0
0.3115,2.5009e-05,0
0.312,2.5849e-05,0
0.3125,2.6184e-05,0
0.313,2.4674e-05,0
0.3135,2.1988e-05,0
0.314,1.9135e-05,0
0.3145,1.5946e-05,0
0.315,1.1917e-05,0
0.3155,5.8747e-06,0
0.316,3.1891e-06,0
0.3165,3.8605e-06,0
0.317,5.7069e-06,0
0.3175,6.0426e-06,0
0.318,5.2033e-06,0
0.3185,3.8605e-06,0
0.319,2.5177e-06,0
0.3195,2.5177e-06,0
0.32,5.539e-06,0
0.3205,8.896e-06,0
0.321,1.2924e-05,0
0.3215,1.6449e-05,0
0.322,1.796e-05,0
0.3225,1.947e-05,0
0.323,2.2828e-05,0
0.3235,2.8031e-05,0
0.324,3.3402e-05,0
0.3245,3.7095e-05,0
0.325,3.8437e-05,0
0.3255,3.6759e-05,0
0.326,3.3402e-05,0
0.3265,2.9877e-05,0
0.327,2.4674e-05,0
0.3275,1.7288e-05,0
0.328,8.5603e-06,0
0.3285,1.0071e-06,0
0.329,-2.8534e-06,0
0.3295,-2.8534e-06,0
0.33,3.357e-07,0
0.3305,5.0355e-06,0
0.331,7.0497e-06,0
0.3315,6.5461e-06,0
0.332,6.5461e-06,0
0.3325,9.9031e-06,0
0.333,1.4435e-05,0
0.3335,1.5778e-05,0
0.334,1.4603e-05,0
0.3345,1.4939e-05,0
0.335,1.4939e-05,0
0.3355,1.4939e-05,0
0.336,1.5274e-05,0
0.3365,1.9806e-05,0
0.337,2.3667e-05,0
0.3375,2.4338e-05,0
0.338,2.5681e-05,0
0.3385,2.5681e-05,0
0.339,2.5513e-05,0
0.3395,2.6352e-05,0
0.34,2.3331e-05,0
0.3405,2.266e-05,0
0.341,2.6017e-05,0
0.3415,2.9038e-05,0
0.342,2.8199e-05,0
0.3425,2.4842e-05,0
0.343,2.1317e-05,0
0.3435,1.8631e-05,0
0.344,1.8128e-05,0
0.3445,1.8967e-05,0
0.345,1.9135e-05,0
0.3455,1.8296e-05,0
0.346,1.7624e-05,0
0.3465,1.8296e-05,0
0.347,1.947e-05,0
0.3475,1.947e-05,0
0.348,1.8463e-05,0
0.3485,1.7288e-05,0
0.349,1.5946e-05,0
0.3495,1.796e-05,0
0.35,2.0981e-05,0
0.3505,2.2995e-05,0
0.351,2.2492e-05,0
0.3515,2.0646e-05,0
0.352,2.1317e-05,0
0.3525,2.1317e-05,0
0.353,2.0646e-05,0
0.3535,1.9135e-05,0
0.354,1.947e-05,0
0.3545,2.1988e-05,0
0.355,2.3667e-05,0
0.3555,2.3331e-05,0
0.356,2.2995e-05,0
0.3565,2.4506e-05,0
0.357,2.5849e-05,0
0.3575,2.4506e-05,0
0.358,2.0142e-05,0
0.3585,1.561e-05,0
0.359,1.326e-05,0
0.3595,1.2253e-05,0
0.36,1.1917e-05,0
0.3605,1.4267e-05,0
0.361,1.9135e-05,0
0.3615,2.1988e-05,0
0.362,2.2492e-05,0
0.3625,2.2995e-05,0
0.363,2.6688e-05,0
0.3635,3.1891e-05,0
0.364,3.3402e-05,0
0.3645,3.2563e-05,0
0.365,3.2563e-05,0
0.3655,3.4577e-05,0
0.366,3.6591e-05,0
0.3665,3.4073e-05,0
0.367,2.6017e-05,0
0.3675,1.4603e-05,0
0.368,5.2033e-06,0
0.3685,0,0
0.369,-1.5106e-06,0
0.3695,1.5106e-06,0
0.37,5.539e-06,0
0.3705,6.5461e-06,0
0.371,2.3499e-06,0
0.3715,-2.182e-06,0
0.372,5.035e-07,0
0.3725,7.5532e-06,0
0.373,1.1078e-05,0
0.3735,1.0239e-05,0
0.374,8.896e-06,0
0.3745,1.0575e-05,0
0.375,1.4267e-05,0
0.3755,1.6281e-05,0
0.376,1.7121e-05,0
0.3765,1.8296e-05,0
0.377,1.9806e-05,0
0.3775,2.1149e-05,0
0.378,2.0813e-05,0
0.3785,1.947e-05,0
0.379,1.9303e-05,0
0.3795,1.9135e-05,0
0.38,1.6953e-05,0
0.3805,1.6617e-05,0
0.381,2.031e-05,0
0.3815,2.2324e-05,0
0.382,2.182e-05,0
0.3825,2.2324e-05,0
0.383,2.4674e-05,0
0.3835,2.6352e-05,0
0.384,2.6688e-05,0
0.3845,2.8367e-05,0
0.385,3.0381e-05,0
0.3855,3.2731e-05,0
0.386,3.4409e-05,0
0.3865,3.4745e-05,0
0.387,3.4409e-05,0
0.3875,3.5416e-05,0
0.388,3.8437e-05,0
0.3885,4.1123e-05,0
0.389,4.0955e-05,0
0.3895,3.7766e-05,0
0.39,3.3738e-05,0
0.3905,3.1052e-05,0
0.391,2.7863e-05,0
0.3915,2.3499e-05,0
0.392,1.6785e-05,0
0.3925,9.9031e-06,0
0.393,7.5532e-06,0
0.3935,8.2246e-06,0
0.394,9.7353e-06,0
0.3945,1.0071e-05,0
0.395,5.2033e-06,0
0.3955,-2.182e-06,0
0.396,-5.539e-06,0
0.3965,-4.5319e-06,0
0.397,-7.2175e-06,0
0.3975,-1.2924e-05,0
0.398,-1.2757e-05,0
0.3985,-5.0355e-06,0
0.399,3.5248e-06,0
0.3995,1.1246e-05,0
0.4,1.7456e-05,0
0.4005,2.1988e-05,0
0.401,2.4002e-05,0
0.4015,2.1149e-05,0
0.402,1.9974e-05,0
0.4025,2.2324e-05,0
0.403,2.3331e-05,0
0.4035,2.4674e-05,0
0.404,2.8367e-05,0
0.4045,3.2059e-05,0
0.405,3.4577e-05,0
0.4055,3.6927e-05,0
0.406,3.7766e-05,0
0.4065,3.827e-05,0
0.407,3.8773e-05,0
0.4075,3.6088e-05,0
0.408,2.7192e-05,0
0.4085,1.4435e-05,0
0.409,-1.678e-07,0
0.4095,-9.7353e-06,0
0.41,-7.8889e-06,0
0.4105,3.0213e-06,0
0.411,1.2253e-05,0
0.4115,1.3932e-05,0
0.412,1.1582e-05,0
0.4125,9.5674e-06,0
0.413,1.0407e-05,0
0.4135,1.2421e-05,0
0.414,1.0575e-05,0
0.4145,7.2175e-06,0
0.415,5.539e-06,0
0.4155,4.5319e-06,0
0.416,5.7069e-06,0
0.4165,9.0639e-06,0
0.417,1.2589e-05,0
0.4175,1.4267e-05,0
0.418,1.561e-05,0
0.4185,1.7456e-05,0
0.419,1.8463e-05,0
0.4195,1.9974e-05,0
0.42,2.0981e-05,0
0.4205,1.9974e-05,0
0.421,2.0646e-05,0
0.4215,2.4002e-05,0
0.422,2.5345e-05,0
0.4225,2.6352e-05,0
0.423,2.8367e-05,0
0.4235,3.0045e-05,0
0.424,2.8702e-05,0
0.4245,2.7024e-05,0
0.425,2.8031e-05,0
0.4255,2.9374e-05,0
0.426,3.0045e-05,0
0.4265,3.0045e-05,0
0.427,3.0045e-05,0
0.4275,2.9374e-05,0
0.428,2.6688e-05,0
0.4285,2.4506e-05,0
0.429,2.3331e-05,0
0.4295,2.3667e-05,0
0.43,2.3667e-05,0
0.4305,2.2324e-05,0
0.431,2.0478e-05,0
0.4315,2.1653e-05,0
0.432,2.6017e-05,0
0.4325,3.0045e-05,0
0.433,3.0045e-05,0
0.4335,2.8534e-05,0
0.434,2.887e-05,0
0.4345,2.9877e-05,0
0.435,2.887e-05,0
0.4355,2.9038e-05,0
0.436,2.7863e-05,0
0.4365,2.266e-05,0
0.437,1.5946e-05,0
0.4375,1.2421e-05,0
0.438,1.326e-05,0
0.4385,1.3932e-05,0
0.439,1.3932e-05,0
0.4395,1.4435e-05,0
0.44,1.5946e-05,0
0.4405,1.8463e-05,0
0.441,2.0646e-05,0
0.4415,2.2156e-05,0
0.442,2.4002e-05,0
0.4425,2.6184e-05,0
0.443,2.652e-05,0
0.4435,2.3835e-05,0
0.444,2.0646e-05,0
0.4445,1.9974e-05,0
0.445,1.6617e-05,0
0.4455,9.7353e-06,0
0.446,4.5319e-06,0
0.4465,4.3641e-06,0
0.447,8.2246e-06,0
0.4475,1.3764e-05,0
0.448,1.6281e-05,0
0.4485,1.5946e-05,0
0.449,1.4771e-05,0
0.4495,1.4267e-05,0
0.45,1.5946e-05,0
0.4505,1.8296e-05,0
0.451,1.8631e-05,0
0.4515,1.8631e-05,0
0.452,1.8296e-05,0
0.4525,1.8631e-05,0
0.453,1.9638e-05,0
0.4535,2.0981e-05,0
0.454,1.9974e-05,0
0.4545,1.796e-05,0
0.455,1.7288e-05,0
0.4555,1.9303e-05,0
0.456,1.9974e-05,0
0.4565,1.9974e-05,0
0.457,2.0142e-05,0
0.4575,2.0646e-05,0
0.458,2.2995e-05,0
0.4585,2.5009e-05,0
0.459,2.4338e-05,0
0.4595,2.266e-05,0
0.46,2.2324e-05,0
0.4605,2.4002e-05,0
0.461,2.7192e-05,0
0.4615,2.9709e-05,0
0.462,2.8702e-05,0
0.4625,2.417e-05,0
0.463,1.8631e-05,0
0.4635,1.4939e-05,0
0.464,1.2085e-05,0
0.4645,7.8889e-06,0
0.465,3.8605e-06,0
0.4655,2.8534e-06,0
0.466,4.5319e-06,0
0.4665,6.2104e-06,0
0.467,8.2246e-06,0
0.4675,1.1078e-05,0
0.468,1.4267e-05,0
0.4685,1.9303e-05,0
0.469,2.5177e-05,0
0.4695,2.8702e-05,0
0.47,2.8702e-05,0
0.4705,2.8031e-05,0
0.471,2.9374e-05,0
0.4715,3.1891e-05,0
0.472,3.4073e-05,0
0.4725,3.1388e-05,0
0.473,2.5009e-05,0
0.4735,1.8463e-05,0
0.474,1.7456e-05,0
0.4745,1.9974e-05,0
0.475,2.4506e-05,0
0.4755,2.5009e-05,0
0.476,2.266e-05,0
0.4765,1.7792e-05,0
0.477,7.7211e-06,0
0.4775,-6.714e-07,0
0.478,-2.5177e-06,0
0.4785,-5.2033e-06,0
0.479,-1.091e-05,0
0.4795,-1.4435e-05,0
0.48,-1.2253e-05,0
0.4805,-4.8676e-06,0
0.481,1.6785e-06,0
0.4815,4.5319e-06,0
0.482,7.2175e-06,0
0.4825,1.1246e-05,0
0.483,1.3932e-05,0
0.4835,1.4939e-05,0
0.484,1.4603e-05,0
0.4845,1.4603e-05,0
0.485,1.6281e-05,0
0.4855,1.6953e-05,0
0.486,1.7624e-05,0
0.4865,1.9974e-05,0
0.487,2.0478e-05,0
0.4875,1.9135e-05,0
0.488,2.0142e-05,0
0.4885,2.3835e-05,0
0.489,2.5681e-05,0
0.4895,2.7359e-05,0
0.49,3.1891e-05,0
0.4905,3.6255e-05,0
0.491,3.8773e-05,0
0.4915,4.0116e-05,0
0.492,4.1291e-05,0
0.4925,3.8773e-05,0
0.493,3.2059e-05,0
0.4935,2.5849e-05,0
0.494,2.3331e-05,0
0.4945,2.266e-05,0
0.495,2.031e-05,0
0.4955,1.561e-05,0
0.496,1.2253e-05,0
0.4965,1.2924e-05,0
0.497,1.4939e-05,0
0.4975,1.4603e-05,0
0.498,9.9031e-06,0
0.4985,1.5106e-06,0
0.499,-3.1891e-06,0
0.4995,1.678e-07,0
0.5,9.2317e-06,0
0.5005,1.9974e-05,0
0.501,2.7024e-05,0
0.5015,2.9374e-05,0
0.502,2.7527e-05,0
0.5025,2.8031e-05,0
0.503,3.0549e-05,0
0.5035,3.1388e-05,0
0.504,2.5681e-05,0
0.5045,1.6617e-05,0
0.505,1.0575e-05,0
0.5055,8.896e-06,0
0.506,7.8889e-06,0
0.5065,3.357e-06,0
0.507,0,0
0.5075,1.1749e-06,0
0.508,3.1891e-06,0
0.5085,2.5177e-06,0
0.509,-1.678e-07,0
0.5095,1.6785e-06,0
0.51,8.896e-06,0
0.5105,1.7792e-05,0
0.511,2.1988e-05,0
0.5115,2.266e-05,0
0.512,2.3667e-05,0
0.5125,2.5681e-05,0
0.513,2.6017e-05,0
0.5135,2.4674e-05,0
0.514,2.4002e-05,0
0.5145,2.5681e-05,0
0.515,2.887e-05,0
0.5155,3.0884e-05,0
0.516,3.3402e-05,0
0.5165,3.6759e-05,0
0.517,3.9277e-05,0
0.5175,3.8773e-05,0
0.518,3.6088e-05,0
0.5185,3.357e-05,0
0.519,3.2731e-05,0
0.5195,3.2059e-05,0
0.52,2.7863e-05,0
0.5205,2.0646e-05,0
0.521,1.7456e-05,0
0.5215,1.9638e-05,0
0.522,2.3163e-05,0
0.5225,2.6017e-05,0
0.523,2.5681e-05,0
0.5235,2.3667e-05,0
0.524,2.4674e-05,0
0.5245,3.0213e-05,0
0.525,3.5248e-05,0
0.5255,3.743e-05,0
0.526,3.7934e-05,0
0.5265,3.5752e-05,0
0.527,3.1388e-05,0
0.5275,2.4002e-05,0
0.528,1.7456e-05,0
0.5285,1.4603e-05,0
0.529,1.4267e-05,0
0.5295,1.1246e-05,0
0.53,6.5461e-06,0
0.5305,6.3783e-06,0
0.531,8.5603e-06,0
0.5315,1.0239e-05,0
0.532,1.0239e-05,0
0.5325,9.5674e-06,0
0.533,9.5674e-06,0
0.5335,1.2253e-05,0
0.534,1.5106e-05,0
0.5345,1.5946e-05,0
0.535,1.6617e-05,0
0.5355,1.561e-05,0
0.536,1.2253e-05,0
0.5365,8.5603e-06,0
0.537,8.2246e-06,0
0.5375,9.2317e-06,0
0.538,1.0575e-05,0
0.5385,1.326e-05,0
0.539,1.5946e-05,0
0.5395,1.8296e-05,0
0.54,1.796e-05,0
0.5405,1.8631e-05,0
0.541,2.0646e-05,0
0.5415,2.3667e-05,0
0.542,2.4842e-05,0
0.5425,2.3835e-05,0
0.543,2.4002e-05,0
0.5435,2.7527e-05,0
0.544,2.7359e-05,0
0.5445,2.4506e-05,0
0.545,2.2995e-05,0
0.5455,2.3331e-05,0
0.546,2.4674e-05,0
0.5465,2.4674e-05,0
0.547,2.4338e-05,0
0.5475,2.5681e-05,0
0.548,2.7695e-05,0
0.5485,2.7359e-05,0
0.549,2.6352e-05,0
0.5495,2.5345e-05,0
0.55,2.5009e-05,0
0.5505,2.4002e-05,0
0.551,2.2156e-05,0
0.5515,1.9135e-05,0
0.552,1.561e-05,0
0.5525,1.0575e-05,0
0.553,7.8889e-06,0
0.5535,7.2175e-06,0
0.554,5.2033e-06,0
0.5545,8.392e-07,0
0.555,-2.5177e-06,0
0.5555,-2.8534e-06,0
0.556,-2.8534e-06,0
0.5565,0,0
0.557,5.7069e-06,0
0.5575,9.2317e-06,0
0.558,1.2589e-05,0
0.5585,1.6281e-05,0
0.559,2.0478e-05,0
0.5595,2.4674e-05,0
0.56,3.0381e-05,0
0.5605,3.6088e-05,0
0.561,3.9445e-05,0
0.5615,3.9612e-05,0
0.562,3.5752e-05,0
0.5625,2.9542e-05,0
0.563,2.3667e-05,0
0.5635,1.7624e-05,0
0.564,8.7282e-06,0
0.5645,-6.714e-07,0
0.565,-7.5532e-06,0
0.5655,-1.0239e-05,0
0.566,-8.5603e-06,0
0.5665,-3.8605e-06,0
0.567,2.3499e-06,0
0.5675,8.7282e-06,0
0.568,1.3764e-05,0
0.5685,1.8128e-05,0
0.569,2.266e-05,0
0.5695,2.8702e-05,0
0.57,3.4073e-05,0
0.5705,3.6088e-05,0
0.571,3.5416e-05,0
0.5715,3.4745e-05,0
0.572,3.4241e-05,0
0.5725,3.4409e-05,0
0.573,3.5752e-05,0
0.5735,3.592e-05,0
0.574,3.2059e-05,0
0.5745,2.6352e-05,0
0.575,1.8463e-05,0
0.5755,8.5603e-06,0
0.576,-1.8463e-06,0
0.5765,-7.2175e-06,0
0.577,-5.539e-06,0
0.5775,-1.1749e-06,0
0.578,1.1749e-06,0
0.5785,4.5319e-06,0
0.579,1.0575e-05,0
0.5795,1.8631e-05,0
0.58,2.3667e-05,0
0.5805,2.6017e-05,0
0.581,2.6688e-05,0
0.5815,2.8367e-05,0
0.582,2.9709e-05,0
0.5825,2.7863e-05,0
0.583,2.4002e-05,0
0.5835,1.9806e-05,0
0.584,1.7792e-05,0
0.5845,1.9135e-05,0
0.585,2.0981e-05,0
0.5855,2.182e-05,0
0.586,2.0142e-05,0
0.5865,1.9135e-05,0
0.587,1.9638e-05,0
0.5875,2.1317e-05,0
0.588,2.266e-05,0
0.5885,2.266e-05,0
0.589,2.3331e-05,0
0.5895,2.3667e-05,0
0.59,2.4338e-05,0
0.5905,2.652e-05,0
0.591,2.7359e-05,0
0.5915,2.6352e-05,0
0.592,2.4842e-05,0
0.5925,2.5009e-05,0
0.593,2.7359e-05,0
0.5935,2.887e-05,0
0.594,2.6688e-05,0
0.5945,2.1317e-05,0
0.595,1.7288e-05,0
0.5955,1.6617e-05,0
0.596,1.7121e-05,0
0.5965,1.4435e-05,0
0.597,1.0239e-05,0
0.5975,7.2175e-06,0
0.598,6.3783e-06,0
0.5985,5.2033e-06,0
0.599,4.8676e-06,0
0.5995,9.2317e-06,0
0.6,1.4603e-05,0
0.6005,1.8631e-05,0
0.601,2.0981e-05,0
0.6015,2.1988e-05,0
0.602,2.0646e-05,0
0.6025,1.8631e-05,0
0.603,1.8631e-05,0
0.6035,2.031e-05,0
0.604,2.2995e-05,0
0.6045,2.5513e-05,0
0.605,2.8031e-05,0
0.6055,2.9206e-05,0
0.606,2.9542e-05,0
0.6065,2.9374e-05,0
0.607,2.5009e-05,0
0.6075,1.8463e-05,0
0.608,1.4771e-05,0
0.6085,9.2317e-06,0
0.609,1.8463e-06,0
0.6095,-1.8463e-06,0
0.61,-2.182e-06,0
0.6105,-1.8463e-06,0
0.611,5.035e-07,0
0.6115,5.2033e-06,0
0.612,1.1749e-05,0
0.6125,1.5778e-05,0
0.613,1.6953e-05,0
0.6135,1.7624e-05,0
0.614,1.7288e-05,0
0.6145,1.947e-05,0
0.615,2.5681e-05,0
0.6155,3.2563e-05,0
0.616,3.6088e-05,0
0.6165,3.6759e-05,0
0.617,3.4073e-05,0
0.6175,3.0549e-05,0
0.618,2.9038e-05,0
0.6185,2.7863e-05,0
0.619,2.3667e-05,0
0.6195,1.7624e-05,0
0.62,1.5274e-05,0
0.6205,2.1317e-05,0
0.621,3.1052e-05,0
0.6215,3.6759e-05,0
0.622,4.0116e-05,0
0.6225,4.3809e-05,0
0.623,4.5487e-05,0
0.6235,4.448e-05,0
0.624,3.9445e-05,0
0.6245,2.6352e-05,0
0.625,8.2246e-06,0
0.6255,-4.3641e-06,0
0.626,-1.0239e-05,0
0.6265,-1.0239e-05,0
0.627,-6.5461e-06,0
0.6275,-1.6785e-06,0
0.628,2.0142e-06,0
0.6285,2.5177e-06,0
0.629,3.5248e-06,0
0.6295,9.2317e-06,0
0.63,1.5274e-05,0
0.6305,1.8967e-05,0
0.631,1.9806e-05,0
0.6315,1.8631e-05,0
0.632,1.5946e-05,0
0.6325,1.3596e-05,0
0.633,1.2253e-05,0
0.6335,1.1917e-05,0
0.634,1.326e-05,0
0.6345,1.7624e-05,0
0.635,2.2995e-05,0
0.6355,2.6352e-05,0
0.636,2.6688e-05,0
0.6365,2.4002e-05,0
0.637,2.1988e-05,0
0.6375,2.2492e-05,0
0.638,2.3835e-05,0
0.6385,2.5345e-05,0
0.639,2.6017e-05,0
0.6395,2.4338e-05,0
0.64,2.0646e-05,0
0.6405,1.9303e-05,0
0.641,2.3163e-05,0
0.6415,2.7863e-05,0
0.642,2.8702e-05,0
0.6425,2.7863e-05,0
0.643,2.5177e-05,0
0.6435,2.1149e-05,0
0.644,1.8296e-05,0
0.6445,1.5778e-05,0
0.645,1.1917e-05,0
0.6455,8.896e-06,0
0.646,8.2246e-06,0
0.6465,9.5674e-06,0
0.647,1.1749e-05,0
0.6475,1.3596e-05,0
0.648,1.7288e-05,0
0.6485,1.8463e-05,0
0.649,1.7288e-05,0
0.6495,1.6281e-05,0
0.65,1.6449e-05,0
0.6505,1.7121e-05,0
0.651,1.7624e-05,0
0.6515,1.7792e-05,0
0.652,1.8967e-05,0
0.6525,2.1988e-05,0
0.653,2.3331e-05,0
0.6535,2.3331e-05,0
0.654,2.2492e-05,0
0.6545,2.1988e-05,0
0.655,2.182e-05,0
0.6555,2.0813e-05,0
0.656,1.9303e-05,0
0.6565,2.0478e-05,0
0.657,2.2492e-05,0
0.6575,2.4338e-05,0
0.658,2.4674e-05,0
0.6585,2.6017e-05,0
0.659,2.9206e-05,0
0.6595,2.9374e-05,0
0.66,2.5177e-05,0
0.6605,2.182e-05,0
0.661,2.4338e-05,0
0.6615,2.9374e-05,0
0.662,3.1388e-05,0
0.6625,3.1556e-05,0
0.663,3.2059e-05,0
0.6635,3.3906e-05,0
0.664,3.6759e-05,0
0.6645,3.5248e-05,0
0.665,2.9374e-05,0
0.6655,2.1988e-05,0
0.666,1.2253e-05,0
0.6665,3.8605e-06,0
0.667,-1.8463e-06,0
0.6675,-9.7353e-06,0
0.668,-1.7624e-05,0
0.6685,-1.796e-05,0
0.669,-1.2253e-05,0
0.6695,-5.539e-06,0
0.67,1.0071e-06,0
0.6705,6.2104e-06,0
0.671,8.7282e-06,0
0.6715,1.0575e-05,0
0.672,1.3092e-05,0
0.6725,1.6281e-05,0
0.673,2.0646e-05,0
0.6735,2.5345e-05,0
0.674,2.887e-05,0
0.6745,3.2059e-05,0
0.675,3.6591e-05,0
0.6755,3.9948e-05,0
0.676,4.0787e-05,0
0.6765,3.9445e-05,0
0.677,3.5752e-05,0
0.6775,2.9206e-05,0
0.678,1.6281e-05,0
0.6785,-2.182e-06,0
0.679,-1.7624e-05,0
0.6795,-2.5345e-05,0
0.68,-2.4674e-05,0
0.6805,-1.8967e-05,0
0.681,-9.5674e-06,0
0.6815,1.8463e-06,0
0.682,1.1246e-05,0
0.6825,1.7288e-05,0
0.683,2.0981e-05,0
0.6835,2.4002e-05,0
0.684,2.6352e-05,0
0.6845,2.8367e-05,0
0.685,2.8702e-05,0
0.6855,2.9206e-05,0
0.686,3.0045e-05,0
0.6865,2.9374e-05,0
0.687,2.7695e-05,0
0.6875,2.8199e-05,0
0.688,3.0045e-05,0
0.6885,3.3234e-05,0
0.689,3.2395e-05,0
0.6895,2.6184e-05,0
0.69,1.8463e-05,0
0.6905,1.4267e-05,0
0.691,1.1246e-05,0
0.6915,8.5603e-06,0
0.692,5.0355e-06,0
0.6925,4.0284e-06,0
0.693,6.3783e-06,0
0.6935,9.5674e-06,0
0.694,1.2421e-05,0
0.6945,1.5946e-05,0
0.695,1.8296e-05,0
0.6955,1.8128e-05,0
0.696,1.2924e-05,0
0.6965,5.2033e-06,0
0.697,5.0355e-06,0
0.6975,1.326e-05,0
0.698,2.1317e-05,0
0.6985,2.7359e-05,0
0.699,3.0549e-05,0
0.6995,3.2059e-05,0
0.7,3.4577e-05,0
0.7005,3.4745e-05,0
0.701,3.4409e-05,0
0.7015,3.2731e-05,0
0.702,2.6017e-05,0
0.7025,1.8463e-05,0
0.703,1.7121e-05,0
0.7035,2.0646e-05,0
0.704,2.4674e-05,0
0.7045,2.8367e-05,0
0.705,3.1388e-05,0
0.7055,3.0549e-05,0
0.706,2.8534e-05,0
0.7065,2.9374e-05,0
0.707,3.1556e-05,0
0.7075,3.1052e-05,0
0.708,2.8367e-05,0
0.7085,2.6184e-05,0
0.709,2.5345e-05,0
0.7095,2.3835e-05,0
0.71,2.2324e-05,0
0.7105,2.2324e-05,0
0.711,2.1317e-05,0
0.7115,1.947e-05,0
0.712,1.796e-05,0
0.7125,1.8296e-05,0
0.713,1.9135e-05,0
0.7135,1.8631e-05,0
0.714,1.8967e-05,0
0.7145,2.1149e-05,0
0.715,2.2492e-05,0
0.7155,2.1988e-05,0
0.716,2.2995e-05,0
0.7165,2.5513e-05,0
0.717,2.7359e-05,0
0.7175,2.8367e-05,0
0.718,2.5681e-05,0
0.7185,2.1988e-05,0
0.719,1.9638e-05,0
0.7195,1.8296e-05,0
0.72,1.6785e-05,0
0.7205,1.8631e-05,0
0.721,2.0646e-05,0
0.7215,2.0981e-05,0
0.722,2.1653e-05,0
0.7225,2.4506e-05,0
0.723,2.7024e-05,0
0.7235,2.8031e-05,0
0.724,2.8031e-05,0
0.7245,2.6688e-05,0
0.725,2.4506e-05,0
0.7255,2.0981e-05,0
0.726,1.6617e-05,0
0.7265,1.1917e-05,0
0.727,9.0639e-06,0
0.7275,1.1246e-05,0
0.728,1.7792e-05,0
0.7285,2.4338e-05,0
0.729,2.8367e-05,0
0.7295,3.0716e-05,0
0.73,3.1724e-05,0
0.7305,3.2731e-05,0
0.731,3.1891e-05,0
0.7315,2.9374e-05,0
0.732,2.4674e-05,0
0.7325,1.796e-05,0
0.733,1.091e-05,0
0.7335,6.2104e-06,0
0.734,6.0426e-06,0
0.7345,1.0575e-05,0
0.735,1.4267e-05,0
0.7355,1.1917e-05,0
0.736,6.5461e-06,0
0.7365,5.7069e-06,0
0.737,8.5603e-06,0
0.7375,1.0239e-05,0
0.738,6.2104e-06,0
0.7385,0,0
0.739,-6.2104e-06,0
0.7395,-8.5603e-06,0
0.74,-6.714e-06,0
0.7405,-5.539e-06,0
0.741,-5.8747e-06,0
0.7415,-7.8889e-06,0
0.742,-8.0568e-06,0
0.7425,-4.0284e-06,0
0.743,2.182e-06,0
0.7435,8.2246e-06,0
0.744,1.3092e-05,0
0.7445,1.6617e-05,0
0.745,1.9135e-05,0
0.7455,1.9303e-05,0
0.746,1.9974e-05,0
0.7465,2.2324e-05,0
0.747,2.3667e-05,0
0.7475,2.5345e-05,0
0.748,2.8702e-05,0
0.7485,3.1724e-05,0
0.749,3.2731e-05,0
0.7495,3.2059e-05,0
0.75,3.1388e-05,0
0.7505,2.9374e-05,0
0.751,2.2492e-05,0
0.7515,1.2589e-05,0
0.752,2.182e-06,0
0.7525,-4.3641e-06,0
0.753,-1.8463e-06,0
0.7535,8.3925e-06,0
0.754,1.796e-05,0
0.7545,2.2995e-05,0
0.755,2.5345e-05,0
0.7555,2.887e-05,0
0.756,3.2059e-05,0
0.7565,3.2898e-05,0
0.757,3.0716e-05,0
0.7575,2.7695e-05,0
0.758,2.652e-05,0
0.7585,2.6017e-05,0
0.759,2.4338e-05,0
0.7595,2.1988e-05,0
0.76,2.0813e-05,0
0.7605,2.0646e-05,0
0.761,1.9135e-05,0
0.7615,1.6617e-05,0
0.762,1.561e-05,0
0.7625,1.8128e-05,0
0.763,2.1988e-05,0
0.7635,2.1317e-05,0
0.764,1.8296e-05,0
0.7645,2.2156e-05,0
0.765,2.9206e-05,0
0.7655,3.2563e-05,0
0.766,2.9374e-05,0
0.7665,2.5009e-05,0
0.767,2.3331e-05,0
0.7675,2.1988e-05,0
0.768,1.9974e-05,0
0.7685,1.9303e-05,0
0.769,2.031e-05,0
0.7695,2.2492e-05,0
0.77,2.3331e-05,0
0.7705,2.2324e-05,0
0.771,1.8631e-05,0
0.7715,1.1246e-05,0
0.772,7.2175e-06,0
0.7725,1.1414e-05,0
0.773,1.8463e-05,0
0.7735,2.266e-05,0
0.774,1.9974e-05,0
0.7745,1.7288e-05,0
0.775,1.7624e-05,0
0.7755,2.182e-05,0
0.776,2.6352e-05,0
0.7765,2.9709e-05,0
0.777,3.2059e-05,0
0.7775,3.2059e-05,0
0.778,3.0716e-05,0
0.7785,2.8702e-05,0
0.779,2.5681e-05,0
0.7795,2.031e-05,0
0.78,1.4435e-05,0
0.7805,1.0575e-05,0
0.781,9.2317e-06,0
0.7815,1.1246e-05,0
0.782,1.4771e-05,0
0.7825,1.5106e-05,0
0.783,1.4939e-05,0
0.7835,1.6281e-05,0
0.784,1.8631e-05,0
0.7845,2.1317e-05,0
0.785,2.266e-05,0
0.7855,2.1653e-05,0
0.786,1.9638e-05,0
0.7865,1.8967e-05,0
0.787,2.182e-05,0
0.7875,2.4842e-05,0
0.788,2.3667e-05,0
0.7885,2.0813e-05,0
0.789,1.6617e-05,0
0.7895,1.3596e-05,0
0.79,1.3596e-05,0
0.7905,1.7288e-05,0
0.791,2.1317e-05,0
0.7915,2.3667e-05,0
0.792,2.4002e-05,0
0.7925,2.6688e-05,0
0.793,2.8702e-05,0
0.7935,2.6017e-05,0
0.794,2.1317e-05,0
0.7945,2.0981e-05,0
0.795,2.5177e-05,0
0.7955,2.8702e-05,0
0.796,2.8702e-05,0
0.7965,2.7695e-05,0
0.797,2.6352e-05,0
0.7975,2.4674e-05,0
0.798,2.3667e-05,0
0.7985,2.1988e-05,0
0.799,1.7288e-05,0
0.7995,1.091e-05,0
0.8,4.5319e-06,0
0.8005,3.1891e-06,0
0.801,7.2175e-06,0
0.8015,1.2924e-05,0
0.802,1.5274e-05,0
0.8025,1.3596e-05,0
0.803,9.9031e-06,0
0.8035,8.2246e-06,0
0.804,8.5603e-06,0
0.8045,9.7353e-06,0
0.805,9.9031e-06,0
0.8055,1.1246e-05,0
0.806,1.5946e-05,0
0.8065,2.0813e-05,0
0.807,2.4002e-05,0
0.8075,2.6352e-05,0
0.808,2.7695e-05,0
0.8085,2.8367e-05,0
0.809,2.6688e-05,0
0.8095,2.4506e-05,0
0.81,2.2995e-05,0
0.8105,2.2324e-05,0
0.811,2.182e-05,0
0.8115,2.031e-05,0
0.812,1.9974e-05,0
0.8125,2.2156e-05,0
0.813,2.2995e-05,0
0.8135,2.2492e-05,0
0.814,2.2324e-05,0
0.8145,2.2828e-05,0
0.815,2.3667e-05,0
0.8155,2.5009e-05,0
0.816,2.8031e-05,0
0.8165,2.8367e-05,0
0.817,2.6184e-05,0
0.8175,2.4674e-05,0
0.818,2.5345e-05,0
0.8185,2.8702e-05,0
0.819,3.5752e-05,0
0.8195,4.0116e-05,0
0.82,3.8102e-05,0
0.8205,3.4745e-05,0
0.821,3.0381e-05,0
0.8215,2.1988e-05,0
0.822,1.1078e-05,0
0.8225,1.678e-07,0
0.823,-7.5532e-06,0
0.8235,-1.1246e-05,0
0.824,-1.561e-05,0
0.8245,-2.266e-05,0
0.825,-2.9877e-05,0
0.8255,-3.592e-05,0
0.826,-3.8773e-05,0
0.8265,-3.6423e-05,0
0.827,-2.8367e-05,0
0.8275,-1.7792e-05,0
0.828,-6.2104e-06,0
0.8285,6.5461e-06,0
0.829,1.7288e-05,0
0.8295,2.417e-05,0
0.83,2.7359e-05,0
0.8305,2.7359e-05,0
0.831,2.652e-05,0
0.8315,2.3667e-05,0
0.832,2.1317e-05,0
0.8325,2.031e-05,0
0.833,2.031e-05,0
0.8335,2.0981e-05,0
0.834,2.4002e-05,0
0.8345,2.7527e-05,0
0.835,3.122e-05,0
0.8355,3.5416e-05,0
0.836,3.9445e-05,0
0.8365,4.213e-05,0
0.837,4.1459e-05,0
0.8375,4.0116e-05,0
0.838,3.743e-05,0
0.8385,3.5416e-05,0
0.839,3.5584e-05,0
0.8395,3.6591e-05,0
0.84,3.6088e-05,0
0.8405,3.2059e-05,0
0.841,2.652e-05,0
0.8415,2.2995e-05,0
0.842,2.2995e-05,0
0.8425,2.4002e-05,0
0.843,2.3331e-05,0
0.8435,1.796e-05,0
0.844,1.0407e-05,0
0.8445,5.8747e-06,0
0.845,6.8818e-06,0
0.8455,1.0575e-05,0
0.846,1.3764e-05,0
0.8465,1.5946e-05,0
0.847,1.5274e-05,0
0.8475,1.3932e-05,0
0.848,1.5442e-05,0
0.8485,1.6617e-05,0
0.849,1.5274e-05,0
0.8495,1.2085e-05,0
0.85,1.0239e-05,0
0.8505,1.2757e-05,0
0.851,1.5946e-05,0
0.8515,1.7288e-05,0
0.852,1.8631e-05,0
0.8525,2.1149e-05,0
0.853,2.2995e-05,0
0.8535,2.3331e-05,0
0.854,2.3667e-05,0
0.8545,2.4674e-05,0
0.855,2.5177e-05,0
0.8555,2.4842e-05,0
0.856,2.5009e-05,0
0.8565,2.5681e-05,0
0.857,2.5849e-05,0
0.8575,2.7359e-05,0
0.858,3.0045e-05,0
0.8585,3.2059e-05,0
0.859,3.4073e-05,0
0.8595,3.6088e-05,0
0.86,3.508e-05,0
0.8605,3.0381e-05,0
0.861,2.7024e-05,0
0.8615,2.4506e-05,0
0.862,1.9135e-05,0
0.8625,1.1749e-05,0
0.863,8.2246e-06,0
0.8635,1.0407e-05,0
0.864,1.5274e-05,0
0.8645,2.0981e-05,0
0.865,2.5345e-05,0
0.8655,2.652e-05,0
0.866,2.3331e-05,0
0.8665,1.9974e-05,0
0.867,2.0646e-05,0
0.8675,2.1988e-05,0
0.868,2.0981e-05,0
0.8685,1.7624e-05,0
0.869,1.1749e-05,0
0.8695,7.0497e-06,0
0.87,5.2033e-06,0
0.8705,5.2033e-06,0
0.871,4.1962e-06,0
0.8715,3.8605e-06,0
0.872,5.8747e-06,0
0.8725,1.091e-05,0
0.873,1.5946e-05,0
0.8735,1.7288e-05,0
0.874,1.7288e-05,0
0.8745,1.7792e-05,0
0.875,1.9974e-05,0
0.8755,2.0813e-05,0
0.876,2.0646e-05,0
0.8765,2.0646e-05,0
0.877,1.9135e-05,0
0.8775,1.8799e-05,0
0.878,2.031e-05,0
0.8785,2.182e-05,0
0.879,2.1317e-05,0
0.8795,1.9974e-05,0
0.88,1.9303e-05,0
0.8805,1.9638e-05,0
0.881,2.0981e-05,0
0.8815,2.1653e-05,0
0.882,2.0981e-05,0
0.8825,2.1149e-05,0
0.883,2.4002e-05,0
0.8835,2.6688e-05,0
0.884,2.8367e-05,0
0.8845,2.9206e-05,0
0.885,2.9374e-05,0
0.8855,2.8031e-05,0
0.886,2.266e-05,0
0.8865,1.5106e-05,0
0.887,9.0639e-06,0
0.8875,6.3783e-06,0
0.888,8.0568e-06,0
0.8885,1.0575e-05,0
0.889,1.2757e-05,0
0.8895,1.2757e-05,0
0.89,1.0575e-05,0
0.8905,1.2253e-05,0
0.891,1.9638e-05,0
0.8915,2.5177e-05,0
0.892,2.4842e-05,0
0.8925,2.266e-05,0
0.893,1.9974e-05,0
0.8935,2.0142e-05,0
0.894,2.1988e-05,0
0.8945,2.5009e-05,0
0.895,2.9709e-05,0
0.8955,3.2395e-05,0
0.896,2.9374e-05,0
0.8965,2.182e-05,0
0.897,1.3092e-05,0
0.8975,9.0639e-06,0
0.898,1.1917e-05,0
0.8985,1.6785e-05,0
0.899,1.8631e-05,0
0.8995,1.9135e-05,0
0.9,2.2492e-05,0
0.9005,2.6017e-05,0
0.901,2.3835e-05,0
0.9015,1.5946e-05,0
0.902,1.1246e-05,0
0.9025,1.0575e-05,0
0.903,7.8889e-06,0
0.9035,6.2104e-06,0
0.904,5.7069e-06,0
0.9045,2.3499e-06,0
0.905,-5.2033e-06,0
0.9055,-1.4099e-05,0
0.906,-1.8799e-05,0
0.9065,-1.7792e-05,0
0.907,-1.326e-05,0
0.9075,-4.5319e-06,0
0.908,6.0426e-06,0
0.9085,1.4435e-05,0
0.909,2.1149e-05,0
0.9095,2.8534e-05,0
0.91,3.4745e-05,0
0.9105,3.743e-05,0
0.911,3.8437e-05,0
0.9115,3.9109e-05,0
0.912,3.9445e-05,0
0.9125,4.0452e-05,0
0.913,3.9612e-05,0
0.9135,3.3402e-05,0
0.914,2.1317e-05,0
0.9145,8.896e-06,0
0.915,3.1891e-06,0
0.9155,5.539e-06,0
0.916,9.5674e-06,0
0.9165,1.091e-05,0
0.917,1.1917e-05,0
0.9175,1.5106e-05,0
0.918,1.796e-05,0
0.9185,1.8631e-05,0
0.919,1.8967e-05,0
0.9195,1.796e-05,0
0.92,1.5106e-05,0
0.9205,1.3596e-05,0
0.921,1.6449e-05,0
0.9215,2.1988e-05,0
0.922,2.6184e-05,0
0.9225,2.7527e-05,0
0.923,2.6688e-05,0
0.9235,2.6688e-05,0
0.924,2.7024e-05,0
0.9245,2.7695e-05,0
0.925,2.9374e-05,0
0.9255,3.1891e-05,0
0.926,3.1388e-05,0
0.9265,2.9709e-05,0
0.927,2.9038e-05,0
0.9275,2.8702e-05,0
0.928,2.8031e-05,0
0.9285,2.7359e-05,0
0.929,2.5345e-05,0
0.9295,2.3163e-05,0
0.93,2.2324e-05,0
0.9305,2.2995e-05,0
0.931,2.4506e-05,0
0.9315,2.4506e-05,0
0.932,2.3331e-05,0
0.9325,2.4002e-05,0
0.933,2.6017e-05,0
0.9335,2.7359e-05,0
0.934,2.8367e-05,0
0.9345,2.9542e-05,0
0.935,3.122e-05,0
0.9355,3.4073e-05,0
0.936,3.6423e-05,0
0.9365,3.8437e-05,0
0.937,4.1459e-05,0
0.9375,4.2634e-05,0
0.938,3.978e-05,0
0.9385,3.5416e-05,0
0.939,2.9709e-05,0
0.9395,2.0981e-05,0
0.94,9.2317e-06,0
0.9405,-5.035e-07,0
0.941,-5.539e-06,0
0.9415,-6.3783e-06,0
0.942,-4.6998e-06,0
0.9425,-1.0071e-06,0
0.943,3.0213e-06,0
0.9435,6.8818e-06,0
0.944,1.0071e-05,0
0.9445,1.0239e-05,0
0.945,5.7069e-06,0
0.9455,-6.714e-07,0
0.946,-3.1891e-06,0
0.9465,-1.3428e-06,0
0.947,1.8463e-06,0
0.9475,2.5177e-06,0
0.948,3.1891e-06,0
0.9485,6.5461e-06,0
0.949,1.1917e-05,0
0.9495,1.6785e-05,0
0.95,1.9303e-05,0
0.9505,1.9638e-05,0
0.951,1.7792e-05,0
0.9515,1.7121e-05,0
0.952,1.8463e-05,0
0.9525,1.8967e-05,0
0.953,1.6785e-05,0
0.9535,1.4939e-05,0
0.954,1.5946e-05,0
0.9545,1.7792e-05,0
0.955,1.9638e-05,0
0.9555,2.0646e-05,0
0.956,2.2492e-05,0
0.9565,2.4674e-05,0
0.957,2.3499e-05,0
0.9575,2.2492e-05,0
0.958,2.0981e-05,0
0.9585,1.5274e-05,0
0.959,5.7069e-06,0
0.9595,-8.392e-07,0
0.96,6.714e-07,0
0.9605,6.5461e-06,0
0.961,1.0742e-05,0
0.9615,1.1749e-05,0
0.962,1.2589e-05,0
0.9625,1.5442e-05,0
0.963,1.8296e-05,0
0.9635,2.0646e-05,0
0.964,2.2492e-05,0
0.9645,2.4002e-05,0
0.965,2.6017e-05,0
0.9655,3.0045e-05,0
0.966,3.4073e-05,0
0.9665,3.508e-05,0
0.967,3.2731e-05,0
0.9675,3.0716e-05,0
0.968,2.7863e-05,0
0.9685,2.2324e-05,0
0.969,1.7288e-05,0
0.9695,1.6281e-05,0
0.97,1.7121e-05,0
0.9705,1.9638e-05,0
0.971,2.3163e-05,0
0.9715,2.6688e-05,0
0.972,3.0549e-05,0
0.9725,3.3066e-05,0
0.973,3.3402e-05,0
0.9735,3.1724e-05,0
0.974,2.7359e-05,0
0.9745,2.031e-05,0
0.975,1.0575e-05,0
0.9755,1.1749e-06,0
0.976,-5.0355e-06,0
0.9765,-4.3641e-06,0
0.977,8.392e-07,0
0.9775,7.7211e-06,0
0.978,1.561e-05,0
0.9785,2.266e-05,0
0.979,2.9206e-05,0
0.9795,3.4073e-05,0
0.98,3.6759e-05,0
0.9805,3.743e-05,0
0.981,3.5752e-05,0
0.9815,3.2059e-05,0
0.982,2.8031e-05,0
0.9825,2.3163e-05,0
0.983,1.5946e-05,0
0.9835,1.0239e-05,0
0.984,1.0071e-05,0
0.9845,1.4435e-05,0
0.985,2.1149e-05,0
0.9855,2.6688e-05,0
0.986,3.0045e-05,0
0.9865,3.1052e-05,0
0.987,3.3906e-05,0
0.9875,3.5752e-05,0
0.988,3.2059e-05,0
0.9885,2.1317e-05,0
0.989,8.896e-06,0
0.9895,2.3499e-06,0
0.99,1.5106e-06,0
0.9905,2.8534e-06,0
0.991,4.5319e-06,0
0.9915,9.2317e-06,0
0.992,1.5106e-05,0
0.9925,1.6617e-05,0
0.993,1.5778e-05,0
0.9935,1.3764e-05,0
0.994,7.8889e-06,0
0.9945,8.392e-07,0
0.995,-2.182e-06,0
0.9955,-6.714e-07,0
0.996,2.5177e-06,0
0.9965,7.5532e-06,0
0.997,1.3092e-05,0
0.9975,1.6617e-05,0
0.998,1.9135e-05,0
0.9985,2.266e-05,0
0.999,2.7024e-05,0
0.9995,2.9374e-05,0
1,2.9206e-05,0
1.0005,3.0381e-05,0
1.001,3.3066e-05,0
1.0015,3.4577e-05,0
1.002,3.6423e-05,0
1.0025,3.5416e-05,0
1.003,3.1724e-05,0
1.0035,2.887e-05,0
1.004,2.9374e-05,0
1.0045,2.9709e-05,0
1.005,2.7695e-05,0
1.0055,2.3331e-05,0
1.006,1.8296e-05,0
1.0065,1.3092e-05,0
1.007,7.8889e-06,0
1.0075,6.2104e-06,0
1.008,8.5603e-06,0
1.0085,1.4939e-05,0
1.009,2.1653e-05,0
1.0095,2.7359e-05,0
1.01,2.9374e-05,0
1.0105,2.9374e-05,0
1.011,3.122e-05,0
1.0115,3.508e-05,0
1.012,3.7262e-05,0
1.0125,3.8437e-05,0
1.013,3.827e-05,0
1.0135,3.5752e-05,0
1.014,3.1891e-05,0
1.0145,2.7192e-05,0
1.015,1.9638e-05,0
1.0155,7.8889e-06,0
1.016,-5.0355e-06,0
1.0165,-1.1582e-05,0
1.017,-1.091e-05,0
1.0175,-5.539e-06,0
1.018,2.5177e-06,0
1.0185,9.2317e-06,0
1.019,1.3932e-05,0
1.0195,1.5946e-05,0
1.02,1.5946e-05,0
1.0205,1.7288e-05,0
1.021,1.9974e-05,0
1.0215,2.1317e-05,0
1.022,2.1317e-05,0
1.0225,2.1317e-05,0
1.023,2.3331e-05,0
1.0235,2.6352e-05,0
1.024,2.8702e-05,0
1.0245,2.9374e-05,0
1.025,2.9374e-05,0
1.0255,3.0381e-05,0
1.026,3.0381e-05,0
1.0265,2.6856e-05,0
1.027,2.1988e-05,0
1.0275,1.9806e-05,0
1.028,1.9638e-05,0
1.0285,1.7288e-05,0
1.029,1.1749e-05,0
1.0295,7.7211e-06,0
1.03,9.2317e-06,0
1.0305,1.2589e-05,0
1.031,1.4939e-05,0
1.0315,1.6281e-05,0
1.032,1.6281e-05,0
1.0325,1.6617e-05,0
1.033,1.8296e-05,0
1.0335,2.0478e-05,0
1.034,2.1317e-05,0
1.0345,2.3331e-05,0
1.035,2.6688e-05,0
1.0355,3.0549e-05,0
1.036,3.2898e-05,0
1.0365,3.4409e-05,0
1.037,3.3738e-05,0
1.0375,3.1891e-05,0
1.038,2.8031e-05,0
1.0385,2.0646e-05,0
1.039,1.0239e-05,0
1.0395,3.357e-07,0
1.04,-9.2317e-06,0
1.0405,-1.796e-05,0
1.041,-1.9638e-05,0
1.0415,-1.6449e-05,0
1.042,-1.2253e-05,0
1.0425,-5.0355e-06,0
1.043,1.8463e-06,0
1.0435,6.3783e-06,0
1.044,9.2317e-06,0
1.0445,9.2317e-06,0
1.045,9.3996e-06,0
1.0455,1.1917e-05,0
1.046,1.2589e-05,0
1.0465,1.2924e-05,0
1.047,1.6953e-05,0
1.0475,2.1988e-05,0
1.048,2.4002e-05,0
1.0485,2.4338e-05,0
1.049,2.3499e-05,0
1.0495,2.1317e-05,0
1.05,1.9303e-05,0
1.0505,1.8463e-05,0
1.051,1.8967e-05,0
1.0515,1.9638e-05,0
1.052,1.8631e-05,0
1.0525,1.8631e-05,0
1.053,2.182e-05,0
1.0535,2.6184e-05,0
1.054,2.7192e-05,0
1.0545,2.7527e-05,0
1.055,2.8199e-05,0
1.0555,2.7359e-05,0
1.056,2.5681e-05,0
1.0565,2.6688e-05,0
1.057,3.0716e-05,0
1.0575,3.4073e-05,0
1.058,3.4577e-05,0
1.0585,3.2731e-05,0
1.059,2.8031e-05,0
1.0595,2.1317e-05,0
1.06,1.4267e-05,0
1.0605,1.091e-05,0
1.061,1.1749e-05,0
1.0615,1.3932e-05,0
1.062,1.5946e-05,0
1.0625,1.6617e-05,0
1.063,1.5274e-05,0
1.0635,1.3596e-05,0
1.064,1.3596e-05,0
1.0645,1.561e-05,0
1.065,1.8296e-05,0
1.0655,2.0981e-05,0
1.066,2.3835e-05,0
1.0665,2.4842e-05,0
1.067,2.3499e-05,0
1.0675,1.9638e-05,0
1.068,1.6953e-05,0
1.0685,1.8967e-05,0
1.069,2.2995e-05,0
1.0695,2.6017e-05,0
1.07,2.8702e-05,0
1.0705,3.0716e-05,0
1.071,3.3066e-05,0
1.0715,3.5416e-05,0
1.072,3.4745e-05,0
1.0725,3.2563e-05,0
1.073,2.9374e-05,0
1.0735,2.5513e-05,0
1.074,2.0646e-05,0
1.0745,1.4603e-05,0
1.075,8.5603e-06,0
1.0755,5.539e-06,0
1.076,2.3499e-06,0
1.0765,-2.5177e-06,0
1.077,-3.8605e-06,0
1.0775,1.8463e-06,0
1.078,8.2246e-06,0
1.0785,1.1917e-05,0
1.079,1.326e-05,0
1.0795,1.3428e-05,0
1.08,1.3932e-05,0
1.0805,1.4939e-05,0
1.081,1.5946e-05,0
1.0815,1.796e-05,0
1.082,1.9303e-05,0
1.0825,1.8967e-05,0
1.083,1.9303e-05,0
1.0835,2.0646e-05,0
1.084,2.1988e-05,0
1.0845,2.3835e-05,0
1.085,2.2324e-05,0
1.0855,1.9303e-05,0
1.086,1.7792e-05,0
1.0865,1.9974e-05,0
1.087,2.4674e-05,0
1.0875,2.8199e-05,0
1.088,2.8367e-05,0
1.0885,2.5009e-05,0
1.089,2.1317e-05,0
1.0895,2.1149e-05,0
1.09,2.3331e-05,0
1.0905,2.5009e-05,0
1.091,2.3835e-05,0
1.0915,2.266e-05,0
1.092,2.4002e-05,0
1.0925,2.5681e-05,0
1.093,2.6017e-05,0
1.0935,2.652e-05,0
1.094,2.9709e-05,0
1.0945,3.7095e-05,0
1.095,4.3809e-05,0
1.0955,4.5487e-05,0
1.096,4.2298e-05,0
1.0965,3.4241e-05,0
1.097,2.1317e-05,0
1.0975,9.5674e-06,0
1.098,3.1891e-06,0
1.0985,-5.035e-07,0
1.099,-5.2033e-06,0
1.0995,-1.1414e-05,0
1.1,-1.4603e-05,0
1.1005,-1.091e-05,0
1.101,-2.0142e-06,0
1.1015,5.3712e-06,0
1.102,1.0239e-05,0
1.1025,1.4939e-05,0
1.103,2.1317e-05,0
1.1035,3.0549e-05,0
1.104,3.7095e-05,0
1.1045,3.7095e-05,0
1.105,3.3066e-05,0
1.1055,2.7024e-05,0
1.106,1.8631e-05,0
1.1065,9.0639e-06,0
1.107,1.5106e-06,0
1.1075,-3.357e-06,0
1.108,-7.2175e-06,0
1.1085,-1.0071e-05,0
1.109,-8.896e-06,0
1.1095,-6.3783e-06,0
1.11,-8.392e-07,0
1.1105,7.0497e-06,0
1.111,1.2253e-05,0
1.1115,1.4435e-05,0
1.112,1.4603e-05,0
1.1125,1.5946e-05,0
1.113,1.8296e-05,0
1.1135,2.1317e-05,0
1.114,2.3163e-05,0
1.1145,2.4338e-05,0
1.115,2.5849e-05,0
1.1155,2.6184e-05,0
1.116,2.5849e-05,0
1.1165,2.7527e-05,0
1.117,2.9206e-05,0
1.1175,2.9206e-05,0
1.118,2.8367e-05,0
1.1185,2.9038e-05,0
1.119,3.0381e-05,0
1.1195,3.2395e-05,0
1.12,3.508e-05,0
1.1205,3.7934e-05,0
1.121,3.8102e-05,0
1.1215,3.6927e-05,0
1.122,3.5416e-05,0
1.1225,3.2731e-05,0
1.123,3.0549e-05,0
1.1235,3.0045e-05,0
1.124,2.8031e-05,0
1.1245,2.4842e-05,0
1.125,2.182e-05,0
1.1255,2.1149e-05,0
1.126,2.3331e-05,0
1.1265,2.4506e-05,0
1.127,2.6017e-05,0
1.1275,2.7863e-05,0
1.128,2.5849e-05,0
1.1285,1.947e-05,0
1.129,1.5946e-05,0
1.1295,1.5946e-05,0
1.13,1.5442e-05,0
1.1305,1.3764e-05,0
1.131,1.4435e-05,0
1.1315,1.7288e-05,0
1.132,1.8463e-05,0
1.1325,1.7288e-05,0
1.133,1.8128e-05,0
1.1335,2.0646e-05,0
1.134,2.1317e-05,0
1.1345,2.031e-05,0
1.135,1.8967e-05,0
1.1355,1.9303e-05,0
1.136,2.031e-05,0
1.1365,2.0646e-05,0
1.137,1.796e-05,0
1.1375,1.6785e-05,0
1.138,1.796e-05,0
1.1385,1.947e-05,0
1.139,2.0981e-05,0
1.1395,2.1317e-05,0
1.14,2.031e-05,0
1.1405,1.8463e-05,0
1.141,1.8463e-05,0
1.1415,1.9135e-05,0
1.142,1.8967e-05,0
1.1425,1.6785e-05,0
1.143,1.5274e-05,0
1.1435,1.4939e-05,0
1.144,1.5946e-05,0
1.1445,1.9135e-05,0
1.145,1.9638e-05,0
1.1455,1.8296e-05,0
1.146,1.6953e-05,0
1.1465,1.561e-05,0
1.147,1.5274e-05,0
1.1475,1.6953e-05,0
1.148,1.796e-05,0
1.1485,1.9135e-05,0
1.149,2.1317e-05,0
1.1495,2.5009e-05,0
1.15,2.8702e-05,0
1.1505,3.2731e-05,0
1.151,3.3906e-05,0
1.1515,3.4073e-05,0
1.152,3.2563e-05,0
1.1525,2.8367e-05,0
1.153,2.1317e-05,0
1.1535,1.1246e-05,0
1.154,3.5248e-06,0
1.1545,4.5319e-06,0
1.155,9.7353e-06,0
1.1555,1.3596e-05,0
1.156,1.6281e-05,0
1.1565,1.9974e-05,0
1.157,2.0981e-05,0
1.1575,1.796e-05,0
1.158,1.5274e-05,0
1.1585,1.2757e-05,0
1.159,9.2317e-06,0
1.1595,3.1891e-06,0
1.16,-4.0284e-06,0
1.1605,-7.7211e-06,0
1.161,-6.8818e-06,0
1.1615,-2.8534e-06,0
1.162,2.182e-06,0
1.1625,5.539e-06,0
1.163,8.896e-06,0
1.1635,1.1582e-05,0
1.164,1.326e-05,0
1.1645,1.326e-05,0
1.165,1.3092e-05,0
1.1655,1.5274e-05,0
1.166,1.947e-05,0
1.1665,2.182e-05,0
1.167,2.266e-05,0
1.1675,2.2995e-05,0
1.168,2.3499e-05,0
1.1685,2.4674e-05,0
1.169,2.6688e-05,0
1.1695,2.7863e-05,0
1.17,2.8031e-05,0
1.1705,2.6688e-05,0
1.171,2.7192e-05,0
1.1715,2.7359e-05,0
1.172,2.5345e-05,0
1.1725,2.4338e-05,0
1.173,2.5345e-05,0
1.1735,2.4338e-05,0
1.174,2.2995e-05,0
1.1745,2.266e-05,0
1.175,2.2828e-05,0
1.1755,2.1317e-05,0
1.176,1.8967e-05,0
1.1765,1.7624e-05,0
1.177,1.6785e-05,0
1.1775,1.7624e-05,0
1.178,2.0478e-05,0
1.1785,2.4338e-05,0
1.179,2.9038e-05,0
1.1795,3.2563e-05,0
1.18,3.3402e-05,0
1.1805,3.3066e-05,0
1.181,3.0045e-05,0
1.1815,2.4842e-05,0
1.182,1.9303e-05,0
1.1825,1.3932e-05,0
1.183,8.3925e-06,0
1.1835,3.8605e-06,0
1.184,-6.714e-07,0
1.1845,-6.2104e-06,0
1.185,-1.2924e-05,0
1.1855,-1.4939e-05,0
1.186,-9.2317e-06,0
1.1865,1.1749e-06,0
1.187,1.0575e-05,0
1.1875,1.5946e-05,0
1.188,1.947e-05,0
1.1885,2.2995e-05,0
1.189,2.4002e-05,0
1.1895,2.2324e-05,0
1.19,1.9303e-05,0
1.1905,1.7288e-05,0
1.191,1.5274e-05,0
1.1915,1.2253e-05,0
1.192,7.2175e-06,0
1.1925,3.1891e-06,0
1.193,3.8605e-06,0
1.1935,7.0497e-06,0
1.194,1.091e-05,0
1.1945,1.5946e-05,0
1.195,1.9974e-05,0
1.1955,2.3163e-05,0
1.196,2.3331e-05,0
1.1965,2.266e-05,0
1.197,2.1988e-05,0
1.1975,2.4674e-05,0
1.198,2.8702e-05,0
1.1985,3.0045e-05,0
1.199,2.7527e-05,0
1.1995,2.6184e-05,0
1.2,2.7192e-05,0
1.2005,2.7695e-05,0
1.201,2.6688e-05,0
1.2015,2.4002e-05,0
1.202,2.1149e-05,0
1.2025,1.9135e-05,0
1.203,1.9974e-05,0
1.2035,2.266e-05,0
1.204,2.6352e-05,0
1.2045,3.0045e-05,0
1.205,3.3066e-05,0
1.2055,3.4073e-05,0
1.206,3.3402e-05,0
1.2065,3.1724e-05,0
1.207,3.0045e-05,0
1.2075,2.8702e-05,0
1.208,2.5849e-05,0
1.2085,1.796e-05,0
1.209,9.9031e-06,0
1.2095,6.2104e-06,0
1.21,9.2317e-06,0
1.2105,1.561e-05,0
1.211,2.1149e-05,0
1.2115,2.6017e-05,0
1.212,2.9709e-05,0
1.2125,3.0549e-05,0
1.213,2.9709e-05,0
1.2135,2.9374e-05,0
1.214,2.8367e-05,0
1.2145,2.266e-05,0
1.215,1.5778e-05,0
1.2155,1.2421e-05,0
1.216,1.4603e-05,0
1.2165,1.947e-05,0
1.217,2.4674e-05,0
1.2175,2.5513e-05,0
1.218,2.1653e-05,0
1.2185,1.6953e-05,0
1.219,1.6953e-05,0
1.2195,1.8128e-05,0
1.22,1.796e-05,0
1.2205,1.6953e-05,0
1.221,1.8296e-05,0
1.2215,2.031e-05,0
1.222,2.1317e-05,0
1.2225,2.1317e-05,0
1.223,1.9806e-05,0
1.2235,1.561e-05,0
1.224,1.091e-05,0
1.2245,9.5674e-06,0
1.225,1.1917e-05,0
1.2255,1.4099e-05,0
1.226,1.4603e-05,0
1.2265,1.5442e-05,0
1.227,1.6281e-05,0
1.2275,1.6953e-05,0
1.228,1.8967e-05,0
1.2285,1.9974e-05,0
1.229,1.9135e-05,0
1.2295,1.6953e-05,0
1.23,1.561e-05,0
1.2305,1.5946e-05,0
1.231,1.5442e-05,0
1.2315,1.4939e-05,0
1.232,1.5106e-05,0
1.2325,1.5778e-05,0
1.233,1.796e-05,0
1.2335,2.0478e-05,0
1.234,2.1988e-05,0
1.2345,1.9806e-05,0
1.235,1.4939e-05,0
1.2355,8.896e-06,0
1.236,6.2104e-06,0
1.2365,9.7353e-06,0
1.237,1.6617e-05,0
1.2375,2.1149e-05,0
1.238,2.1317e-05,0
1.2385,2.0646e-05,0
1.239,2.0646e-05,0
1.2395,2.2324e-05,0
1.24,2.4674e-05,0
1.2405,2.5345e-05,0
1.241,2.266e-05,0
1.2415,1.796e-05,0
1.242,1.4099e-05,0
1.2425,1.2085e-05,0
1.243,1.326e-05,0
1.2435,1.5946e-05,0
1.244,1.6449e-05,0
1.2445,1.3932e-05,0
1.245,1.1582e-05,0
1.2455,1.2589e-05,0
1.246,1.5946e-05,0
1.2465,1.7288e-05,0
1.247,1.6785e-05,0
1.2475,1.9303e-05,0
1.248,2.5681e-05,0
1.2485,2.9709e-05,0
1.249,3.0381e-05,0
1.2495,2.7863e-05,0
1.25,2.5345e-05,0
1.2505,2.2995e-05,0
1.251,1.947e-05,0
1.2515,1.6785e-05,0
1.252,1.2924e-05,0
1.2525,7.5532e-06,0
1.253,4.5319e-06,0
1.2535,8.3925e-06,0
1.254,1.2757e-05,0
1.2545,1.4435e-05,0
1.255,1.8296e-05,0
1.2555,2.2995e-05,0
1.256,2.3331e-05,0
1.2565,2.0981e-05,0
1.257,1.9806e-05,0
1.2575,1.9303e-05,0
1.258,1.9303e-05,0
1.2585,1.9638e-05,0
1.259,1.9638e-05,0
1.2595,1.8463e-05,0
1.26,1.7792e-05,0
1.2605,1.9974e-05,0
1.261,2.4002e-05,0
1.2615,2.6352e-05,0
1.262,2.5345e-05,0
1.2625,2.5009e-05,0
1.263,2.652e-05,0
1.2635,2.7359e-05,0
1.264,2.8534e-05,0
1.2645,2.9038e-05,0
1.265,2.7024e-05,0
1.2655,2.4002e-05,0
1.266,2.4002e-05,0
1.2665,2.6184e-05,0
1.267,2.6688e-05,0
1.2675,2.5345e-05,0
1.268,2.4002e-05,0
1.2685,2.4002e-05,0
1.269,2.3331e-05,0
1.2695,2.1988e-05,0
1.27,2.1317e-05,0
1.2705,2.0813e-05,0
1.271,1.7288e-05,0
1.2715,1.5946e-05,0
1.272,1.5946e-05,0
1.2725,1.5442e-05,0
1.273,1.3764e-05,0
1.2735,1.0239e-05,0
1.274,5.2033e-06,0
1.2745,5.2033e-06,0
1.275,7.5532e-06,0
1.2755,1.0407e-05,0
1.276,1.4267e-05,0
1.2765,2.031e-05,0
1.277,2.4338e-05,0
1.2775,2.4506e-05,0
1.278,2.2828e-05,0
1.2785,1.9974e-05,0
1.279,1.6281e-05,0
1.2795,1.3764e-05,0
1.28,1.3932e-05,0
1.2805,1.6449e-05,0
1.281,2.0646e-05,0
1.2815,2.5009e-05,0
1.282,2.9709e-05,0
1.2825,3.2898e-05,0
1.283,3.4745e-05,0
1.2835,3.5752e-05,0
1.284,3.5584e-05,0
1.2845,3.3738e-05,0
1.285,3.0381e-05,0
1.2855,2.2324e-05,0
1.286,1.2085e-05,0
1.2865,5.8747e-06,0
1.287,4.8676e-06,0
1.2875,5.2033e-06,0
1.288,7.0497e-06,0
1.2885,7.8889e-06,0
1.289,4.5319e-06,0
1.2895,1.6785e-06,0
1.29,3.5248e-06,0
1.2905,8.3925e-06,0
1.291,9.2317e-06,0
1.2915,5.7069e-06,0
1.292,4.1962e-06,0
1.2925,6.5461e-06,0
1.293,9.2317e-06,0
1.2935,1.2589e-05,0
1.294,1.5946e-05,0
1.2945,2.0981e-05,0
1.295,2.6017e-05,0
1.2955,2.9542e-05,0
1.296,3.1052e-05,0
1.2965,2.8534e-05,0
1.297,2.4002e-05,0
1.2975,1.6953e-05,0
1.298,9.2317e-06,0
1.2985,4.0284e-06,0
1.299,2.182e-06,0
1.2995,4.5319e-06,0
1.3,8.5603e-06,0
1.3005,1.1246e-05,0
1.301,1.2421e-05,0
1.3015,1.4267e-05,0
1.302,1.8631e-05,0
1.3025,2.4506e-05,0
1.303,2.9374e-05,0
1.3035,3.4409e-05,0
1.304,3.6088e-05,0
1.3045,3.4241e-05,0
1.305,3.2395e-05,0
1.3055,3.1724e-05,0
1.306,3.0549e-05,0
1.3065,2.5849e-05,0
1.307,2.0142e-05,0
1.3075,1.561e-05,0
1.308,1.2253e-05,0
1.3085,9.7353e-06,0
1.309,8.3925e-06,0
1.3095,9.2317e-06,0
1.31,1.2085e-05,0
1.3105,1.7288e-05,0
1.311,2.3835e-05,0
1.3115,2.9038e-05,0
1.312,3.0549e-05,0
1.3125,2.8031e-05,0
1.313,2.5177e-05,0
1.3135,2.3163e-05,0
1.314,2.1988e-05,0
1.3145,2.1317e-05,0
1.315,2.0478e-05,0
1.3155,1.9638e-05,0
1.316,1.796e-05,0
1.3165,1.4603e-05,0
1.317,1.4603e-05,0
1.3175,1.6953e-05,0
1.318,1.8463e-05,0
1.3185,1.8967e-05,0
1.319,1.9303e-05,0
1.3195,1.8631e-05,0
1.32,1.8463e-05,0
1.3205,2.0142e-05,0
1.321,2.031e-05,0
1.3215,2.0142e-05,0
1.322,2.1317e-05,0
1.3225,2.266e-05,0
1.323,2.3163e-05,0
1.3235,2.1988e-05,0
1.324,2.0981e-05,0
1.3245,2.031e-05,0
1.325,1.9974e-05,0
1.3255,2.0646e-05,0
1.326,1.9303e-05,0
1.3265,1.7121e-05,0
1.327,1.6617e-05,0
1.3275,1.7456e-05,0
1.328,1.8967e-05,0
1.3285,1.9303e-05,0
1.329,1.8631e-05,0
1.3295,1.9974e-05,0
1.33,2.3331e-05,0
1.3305,2.3835e-05,0
1.331,2.182e-05,0
1.3315,1.947e-05,0
1.332,1.8967e-05,0
1.3325,1.9806e-05,0
1.333,2.031e-05,0
1.3335,2.0981e-05,0
1.334,2.1317e-05,0
1.3345,2.0981e-05,0
1.335,2.0981e-05,0
1.3355,2.1653e-05,0
1.336,2.1988e-05,0
1.3365,2.3331e-05,0
1.337,2.4674e-05,0
1.3375,2.4338e-05,0
1.338,2.3331e-05,0
1.3385,2.2492e-05,0
1.339,2.1317e-05,0
1.3395,2.0646e-05,0
1.34,1.9303e-05,0
1.3405,1.7624e-05,0
1.341,1.6281e-05,0
1.3415,1.5274e-05,0
1.342,1.3596e-05,0
1.3425,1.3596e-05,0
1.343,1.3764e-05,0
1.3435,1.1917e-05,0
1.344,1.1917e-05,0
1.3445,1.5442e-05,0
1.345,1.8128e-05,0
1.3455,2.0142e-05,0
1.346,2.3499e-05,0
1.3465,2.7359e-05,0
1.347,2.8702e-05,0
1.3475,2.7024e-05,0
1.348,2.6688e-05,0
1.3485,2.8367e-05,0
1.349,2.9877e-05,0
1.3495,2.9038e-05,0
1.35,2.3331e-05,0
1.3505,1.5946e-05,0
1.351,7.0497e-06,0
1.3515,-3.1891e-06,0
1.352,-9.9031e-06,0
1.3525,-9.5674e-06,0
1.353,-4.6998e-06,0
1.3535,-8.392e-07,0
1.354,0,0
1.3545,2.5177e-06,0
1.355,8.896e-06,0
1.3555,1.4099e-05,0
1.356,1.561e-05,0
1.3565,1.7624e-05,0
1.357,2.3163e-05,0
1.3575,2.9542e-05,0
1.358,3.122e-05,0
1.3585,2.8702e-05,0
1.359,2.266e-05,0
1.3595,1.5274e-05,0
1.36,1.1917e-05,0
1.3605,1.2924e-05,0
1.361,1.5778e-05,0
1.3615,1.6449e-05,0
1.362,1.4603e-05,0
1.3625,1.3596e-05,0
1.363,1.4435e-05,0
1.3635,1.3932e-05,0
1.364,1.0071e-05,0
1.3645,5.8747e-06,0
1.365,5.539e-06,0
1.3655,6.5461e-06,0
1.366,8.5603e-06,0
1.3665,1.326e-05,0
1.367,1.9974e-05,0
1.3675,2.4506e-05,0
1.368,2.4674e-05,0
1.3685,2.5177e-05,0
1.369,2.8534e-05,0
1.3695,3.2395e-05,0
1.37,3.3066e-05,0
1.3705,2.8031e-05,0
1.371,2.0646e-05,0
1.3715,1.6953e-05,0
1.372,1.5946e-05,0
1.3725,1.5442e-05,0
1.373,1.2421e-05,0
1.3735,1.0575e-05,0
1.374,1.0575e-05,0
1.3745,1.1917e-05,0
1.375,1.3596e-05,0
1.3755,1.6617e-05,0
1.376,1.8967e-05,0
1.3765,1.9135e-05,0
1.377,2.1317e-05,0
1.3775,2.4002e-05,0
1.378,2.5681e-05,0
1.3785,2.5681e-05,0
1.379,2.5681e-05,0
1.3795,2.5681e-05,0
1.38,2.5009e-05,0
1.3805,2.4842e-05,0
1.381,2.652e-05,0
1.3815,2.8031e-05,0
1.382,2.8031e-05,0
1.3825,2.6017e-05,0
1.383,2.3667e-05,0
1.3835,2.2324e-05,0
1.384,2.0646e-05,0
1.3845,2.031e-05,0
1.385,2.266e-05,0
1.3855,2.4674e-05,0
1.386,2.2995e-05,0
1.3865,2.0981e-05,0
1.387,2.0813e-05,0
1.3875,2.2995e-05,0
1.388,2.5009e-05,0
1.3885,2.652e-05,0
1.389,2.5681e-05,0
1.3895,2.266e-05,0
1.39,2.0646e-05,0
1.3905,2.1149e-05,0
1.391,2.2995e-05,0
1.3915,2.266e-05,0
1.392,1.8967e-05,0
1.3925,1.6953e-05,0
1.393,1.6953e-05,0
1.3935,1.5778e-05,0
1.394,1.561e-05,0
1.3945,1.6449e-05,0
1.395,1.6617e-05,0
1.3955,1.7624e-05,0
1.396,2.2156e-05,0
1.3965,2.5681e-05,0
1.397,2.6688e-05,0
1.3975,2.652e-05,0
1.398,2.3835e-05,0
1.3985,2.266e-05,0
1.399,2.1653e-05,0
1.3995,1.947e-05,0
1.4,1.796e-05,0
1.4005,1.561e-05,0
1.401,1.1246e-05,0
1.4015,8.896e-06,0
1.402,7.8889e-06,0
1.4025,9.0639e-06,0
1.403,1.0239e-05,0
1.4035,9.2317e-06,0
1.404,8.2246e-06,0
1.4045,8.2246e-06,0
1.405,1.0575e-05,0
1.4055,1.5274e-05,0
1.406,1.8967e-05,0
1.4065,2.4002e-05,0
1.407,2.8367e-05,0
1.4075,2.8702e-05,0
1.408,3.0381e-05,0
1.4085,3.1052e-05,0
1.409,2.6688e-05,0
1.4095,2.1317e-05,0
1.41,2.1988e-05,0
1.4105,2.5849e-05,0
1.411,2.7024e-05,0
1.4115,2.4674e-05,0
1.412,2.0646e-05,0
1.4125,1.5106e-05,0
1.413,9.9031e-06,0
1.4135,8.3925e-06,0
1.414,8.7282e-06,0
1.4145,9.2317e-06,0
1.415,7.8889e-06,0
1.4155,4.5319e-06,0
1.416,3.1891e-06,0
1.4165,4.8676e-06,0
1.417,9.5674e-06,0
1.4175,1.326e-05,0
1.418,1.3932e-05,0
1.4185,1.3932e-05,0
1.419,1.5778e-05,0
1.4195,1.8296e-05,0
1.42,2.1149e-05,0
1.4205,2.4002e-05,0
1.421,2.4338e-05,0
1.4215,2.4338e-05,0
1.422,2.6688e-05,0
1.4225,3.0045e-05,0
1.423,3.0381e-05,0
1.4235,2.8031e-05,0
1.424,2.6352e-05,0
1.4245,2.3667e-05,0
1.425,2.1317e-05,0
1.4255,2.1988e-05,0
1.426,2.266e-05,0
1.4265,2.266e-05,0
1.427,2.1988e-05,0
1.4275,1.8631e-05,0
1.428,1.4939e-05,0
1.4285,1.4603e-05,0
1.429,1.7624e-05,0
1.4295,1.9638e-05,0
1.43,1.9135e-05,0
1.4305,1.8631e-05,0
1.431,1.9974e-05,0
1.4315,2.1317e-05,0
1.432,2.1317e-05,0
1.4325,2.0981e-05,0
1.433,1.8967e-05,0
1.4335,1.8128e-05,0
1.434,2.1317e-05,0
1.4345,2.6352e-05,0
1.435,2.7695e-05,0
1.4355,2.7359e-05,0
1.436,2.5009e-05,0
1.4365,2.2995e-05,0
1.437,2.182e-05,0
1.4375,1.9638e-05,0
1.438,1.6281e-05,0
1.4385,1.5778e-05,0
1.439,1.796e-05,0
1.4395,1.8463e-05,0
1.44,1.5106e-05,0
1.4405,1.1246e-05,0
1.441,9.9031e-06,0
1.4415,1.1917e-05,0
1.442,1.5946e-05,0
1.4425,1.796e-05,0
1.443,1.7792e-05,0
1.4435,1.6953e-05,0
1.444,1.6281e-05,0
1.4445,1.7288e-05,0
1.445,1.9303e-05,0
1.4455,2.2995e-05,0
1.446,2.5345e-05,0
1.4465,2.2492e-05,0
1.447,1.8463e-05,0
1.4475,1.796e-05,0
1.448,1.8967e-05,0
1.4485,1.9974e-05,0
1.449,2.031e-05,0
1.4495,1.8631e-05,0
1.45,1.4603e-05,0
1.4505,1.2757e-05,0
1.451,1.4099e-05,0
1.4515,1.5946e-05,0
1.452,1.6281e-05,0
1.4525,1.561e-05,0
1.453,1.2757e-05,0
1.4535,1.091e-05,0
1.454,1.091e-05,0
1.4545,1.1582e-05,0
1.455,1.2085e-05,0
1.4555,1.0071e-05,0
1.456,7.8889e-06,0
1.4565,1.0239e-05,0
1.457,1.4603e-05,0
1.4575,1.5946e-05,0
1.458,1.4939e-05,0
1.4585,1.4603e-05,0
1.459,1.4939e-05,0
1.4595,1.5946e-05,0
1.46,1.7288e-05,0
1.4605,1.7624e-05,0
1.461,1.7456e-05,0
1.4615,1.6617e-05,0
1.462,1.5946e-05,0
1.4625,1.6953e-05,0
1.463,1.9303e-05,0
1.4635,2.266e-05,0
1.464,2.4338e-05,0
1.4645,2.5345e-05,0
1.465,2.6688e-05,0
1.4655,2.7192e-05,0
1.466,2.5681e-05,0
1.4665,2.5345e-05,0
1.467,2.6184e-05,0
1.4675,2.6352e-05,0
1.468,2.6352e-05,0
1.4685,2.7527e-05,0
1.469,2.9038e-05,0
1.4695,2.9877e-05,0
1.47,3.0716e-05,0
1.4705,3.2731e-05,0
1.471,3.2731e-05,0
1.4715,2.8367e-05,0
1.472,2.0981e-05,0
1.4725,1.5778e-05,0
1.473,1.2253e-05,0
1.4735,9.9031e-06,0
1.474,9.2317e-06,0
1.4745,1.0575e-05,0
1.475,1.1917e-05,0
1.4755,1.1917e-05,0
1.476,1.2085e-05,0
1.4765,1.2253e-05,0
1.477,1.2757e-05,0
1.4775,1.2757e-05,0
1.478,1.2757e-05,0
1.4785,1.4435e-05,0
1.479,1.6785e-05,0
1.4795,1.8631e-05,0
1.48,1.8631e-05,0
1.4805,1.796e-05,0
1.481,1.8296e-05,0
1.4815,1.8631e-05,0
1.482,1.8967e-05,0
1.4825,1.9303e-05,0
1.483,1.8631e-05,0
1.4835,1.8631e-05,0
1.484,1.9806e-05,0
1.4845,2.0981e-05,0
1.485,2.2828e-05,0
1.4855,2.4842e-05,0
1.486,2.6017e-05,0
1.4865,2.5849e-05,0
1.487,2.4002e-05,0
1.4875,2.2324e-05,0
1.488,2.0981e-05,0
1.4885,2.031e-05,0
1.489,2.0981e-05,0
1.4895,2.266e-05,0
1.49,2.4506e-05,0
1.4905,2.4674e-05,0
1.491,2.3667e-05,0
1.4915,2.1988e-05,0
1.492,2.0646e-05,0
1.4925,1.9974e-05,0
1.493,1.9638e-05,0
1.4935,1.9974e-05,0
1.494,2.0981e-05,0
1.4945,2.2995e-05,0
1.495,2.4338e-05,0
1.4955,2.5681e-05,0
1.496,2.9038e-05,0
1.4965,3.2731e-05,0
1.497,3.3906e-05,0
1.4975,3.2731e-05,0
1.498,3.0381e-05,0
1.4985,2.8702e-05,0
1.499,2.5345e-05,0
1.4995,1.9974e-05,0
1.5,1.4939e-05,0
1.5005,1.0575e-05,0
1.501,8.3925e-06,0
1.5015,7.3854e-06,0
1.502,5.539e-06,0
1.5025,2.5177e-06,0
1.503,1.5106e-06,0
1.5035,3.8605e-06,0
1.504,6.5461e-06,0
1.5045,5.539e-06,0
1.505,8.392e-07,0
1.5055,-4.5319e-06,0
1.506,-9.7353e-06,0
1.5065,-9.5674e-06,0
1.507,-3.8605e-06,0
1.5075,4.5319e-06,0
1.508,1.0575e-05,0
1.5085,1.4603e-05,0
1.509,1.8463e-05,0
1.5095,2.3163e-05,0
1.51,2.6352e-05,0
1.5105,2.3667e-05,0
1.511,1.9303e-05,0
1.5115,1.5274e-05,0
1.512,1.2421e-05,0
1.5125,1.2589e-05,0
1.513,1.4603e-05,0
1.5135,1.796e-05,0
1.514,2.1988e-05,0
1.5145,2.8702e-05,0
1.515,3.4745e-05,0
1.5155,4.0452e-05,0
1.516,4.448e-05,0
1.5165,4.6494e-05,0
1.517,4.7501e-05,0
1.5175,4.3809e-05,0
1.518,3.5584e-05,0
1.5185,2.8534e-05,0
1.519,2.5345e-05,0
1.5195,2.2492e-05,0
1.52,1.7792e-05,0
1.5205,1.0575e-05,0
1.521,3.8605e-06,0
1.5215,1.1749e-06,0
1.522,1.5106e-06,0
1.5225,1.8463e-06,0
1.523,1.1749e-06,0
1.5235,2.182e-06,0
1.524,3.1891e-06,0
1.5245,5.3712e-06,0
1.525,9.2317e-06,0
1.5255,1.3596e-05,0
1.526,1.5946e-05,0
1.5265,1.4603e-05,0
1.527,1.4099e-05,0
1.5275,1.6281e-05,0
1.528,1.9303e-05,0
1.5285,1.9806e-05,0
1.529,1.8296e-05,0
1.5295,1.8128e-05,0
1.53,2.0646e-05,0
1.5305,2.3163e-05,0
1.531,2.4002e-05,0
1.5315,2.3331e-05,0
1.532,2.3667e-05,0
1.5325,2.5009e-05,0
1.533,2.7024e-05,0
1.5335,2.9038e-05,0
1.534,2.9374e-05,0
1.5345,2.8702e-05,0
1.535,2.7527e-05,0
1.5355,2.4674e-05,0
1.536,2.0646e-05,0
1.5365,1.8631e-05,0
1.537,1.9974e-05,0
1.5375,2.2492e-05,0
1.538,2.2324e-05,0
1.5385,1.8631e-05,0
1.539,1.4939e-05,0
1.5395,1.5442e-05,0
1.54,1.8631e-05,0
1.5405,1.947e-05,0
1.541,1.8296e-05,0
1.5415,1.8296e-05,0
1.542,1.9638e-05,0
1.5425,2.1988e-05,0
1.543,2.1988e-05,0
1.5435,1.9974e-05,0
1.544,1.9974e-05,0
1.5445,2.031e-05,0
1.545,1.9638e-05,0
1.5455,1.6617e-05,0
1.546,1.7456e-05,0
1.5465,1.9974e-05,0
1.547,2.1149e-05,0
1.5475,2.3163e-05,0
1.548,2.4002e-05,0
1.5485,2.3331e-05,0
1.549,2.1317e-05,0
1.5495,2.0142e-05,0
1.55,1.9974e-05,0
1.5505,2.031e-05,0
1.551,2.0981e-05,0
1.5515,2.1988e-05,0
1.552,2.1317e-05,0
1.5525,2.0478e-05,0
1.553,2.0478e-05,0
1.5535,2.0981e-05,0
1.554,2.1149e-05,0
1.5545,2.1317e-05,0
1.555,2.4338e-05,0
1.5555,2.9374e-05,0
1.556,3.2563e-05,0
1.5565,3.2731e-05,0
1.557,3.1556e-05,0
1.5575,2.8702e-05,0
1.558,2.4674e-05,0
1.5585,1.8463e-05,0
1.559,1.1917e-05,0
1.5595,6.8818e-06,0
1.56,4.3641e-06,0
1.5605,2.5177e-06,0
1.561,4.3641e-06,0
1.5615,8.5603e-06,0
1.562,1.1078e-05,0
1.5625,1.1414e-05,0
1.563,1.0575e-05,0
1.5635,1.1246e-05,0
1.564,1.2757e-05,0
1.5645,1.4099e-05,0
1.565,1.3932e-05,0
1.5655,1.4435e-05,0
1.566,1.326e-05,0
1.5665,1.326e-05,0
1.567,1.3932e-05,0
1.5675,1.4099e-05,0
1.568,1.4939e-05,0
1.5685,1.6617e-05,0
1.569,1.9974e-05,0
1.5695,2.266e-05,0
1.57,2.5345e-05,0
1.5705,2.9374e-05,0
1.571,3.4577e-05,0
1.5715,3.827e-05,0
1.572,3.8941e-05,0
1.5725,3.743e-05,0
1.573,3.4745e-05,0
1.5735,3.1891e-05,0
1.574,2.652e-05,0
1.5745,2.1653e-05,0
1.575,2.0981e-05,0
1.5755,1.9135e-05,0
1.576,1.3596e-05,0
1.5765,6.2104e-06,0
1.577,-8.392e-07,0
1.5775,-6.8818e-06,0
1.578,-8.5603e-06,0
1.5785,-7.5532e-06,0
1.579,-3.1891e-06,0
1.5795,2.5177e-06,0
1.58,5.7069e-06,0
1.5805,4.5319e-06,0
1.581,2.182e-06,0
1.5815,4.5319e-06,0
1.582,9.5674e-06,0
1.5825,1.4603e-05,0
1.583,1.7792e-05,0
1.5835,1.8463e-05,0
1.584,1.6617e-05,0
1.5845,1.5274e-05,0
1.585,1.6617e-05,0
1.5855,1.8631e-05,0
1.586,1.8631e-05,0
1.5865,2.0646e-05,0
1.587,2.4002e-05,0
1.5875,2.6184e-05,0
1.588,2.6688e-05,0
1.5885,2.6017e-05,0
1.589,2.6017e-05,0
1.5895,2.652e-05,0
1.59,2.7695e-05,0
1.5905,2.8031e-05,0
1.591,2.7695e-05,0
1.5915,2.7695e-05,0
1.592,2.6688e-05,0
1.5925,2.6184e-05,0
1.593,2.8031e-05,0
1.5935,2.9206e-05,0
1.594,2.887e-05,0
1.5945,2.7695e-05,0
1.595,2.6688e-05,0
1.5955,2.7863e-05,0
1.596,2.7359e-05,0
1.5965,2.5849e-05,0
1.597,2.6352e-05,0
1.5975,2.8367e-05,0
1.598,3.1388e-05,0
1.5985,3.2059e-05,0
1.599,2.9709e-05,0
1.5995,3.0045e-05,0
1.6,3.3738e-05,0
1.6005,3.6088e-05,0
1.601,3.5416e-05,0
1.6015,3.3738e-05,0
1.602,3.3738e-05,0
1.6025,3.1388e-05,0
1.603,2.8534e-05,0
1.6035,2.4338e-05,0
1.604,1.947e-05,0
1.6045,1.2757e-05,0
1.605,7.8889e-06,0
1.6055,7.2175e-06,0
1.606,9.7353e-06,0
1.6065,1.3596e-05,0
1.607,1.6281e-05,0
1.6075,1.8631e-05,0
1.608,1.7624e-05,0
1.6085,1.326e-05,0
1.609,8.3925e-06,0
1.6095,3.1891e-06,0
1.61,-1.5106e-06,0
1.6105,-3.357e-06,0
1.611,-1.6785e-06,0
1.6115,6.714e-07,0
1.612,3.0213e-06,0
1.6125,3.8605e-06,0
1.613,3.5248e-06,0
1.6135,3.6927e-06,0
1.614,4.1962e-06,0
1.6145,3.0213e-06,0
1.615,1.5106e-06,0
1.6155,3.357e-06,0
1.616,8.2246e-06,0
1.6165,1.1414e-05,0
1.617,1.3764e-05,0
1.6175,1.3932e-05,0
1.618,1.1582e-05,0
1.6185,1.1246e-05,0
1.619,1.3932e-05,0
1.6195,1.5946e-05,0
1.62,1.796e-05,0
1.6205,1.8296e-05,0
1.621,1.9135e-05,0
1.6215,2.3499e-05,0
1.622,2.9877e-05,0
1.6225,3.3738e-05,0
1.623,3.5752e-05,0
1.6235,3.743e-05,0
1.624,3.8605e-05,0
1.6245,3.7934e-05,0
1.625,3.592e-05,0
1.6255,3.2059e-05,0
1.626,2.652e-05,0
1.6265,2.1317e-05,0
1.627,1.8128e-05,0
1.6275,1.8128e-05,0
1.628,1.8967e-05,0
1.6285,2.1653e-05,0
1.629,2.7695e-05,0
1.6295,3.2059e-05,0
1.63,3.508e-05,0
1.6305,3.7095e-05,0
1.631,3.6088e-05,0
1.6315,3.1052e-05,0
1.632,2.2324e-05,0
1.6325,1.3932e-05,0
1.633,6.3783e-06,0
1.6335,-2.5177e-06,0
1.634,-1.1246e-05,0
1.6345,-1.8463e-05,0
1.635,-2.0646e-05,0
1.6355,-1.4939e-05,0
1.636,-5.2033e-06,0
1.6365,1.8463e-06,0
1.637,4.1962e-06,0
1.6375,3.8605e-06,0
1.638,4.5319e-06,0
1.6385,8.5603e-06,0
1.639,1.6114e-05,0
1.6395,2.3835e-05,0
1.64,2.7863e-05,0
1.6405,3.1388e-05,0
1.641,3.6591e-05,0
1.6415,4.1627e-05,0
1.642,4.4816e-05,0
1.6425,4.5991e-05,0
1.643,4.4816e-05,0
1.6435,4.1627e-05,0
1.644,3.7095e-05,0
1.6445,3.1388e-05,0
1.645,2.4002e-05,0
1.6455,1.9974e-05,0
1.646,1.9638e-05,0
1.6465,1.8631e-05,0
1.647,1.5442e-05,0
1.6475,1.1917e-05,0
1.648,1.091e-05,0
1.6485,9.9031e-06,0
1.649,1.1917e-05,0
1.6495,1.5778e-05,0
1.65,1.8631e-05,0
1.6505,1.9974e-05,0
1.651,2.1317e-05,0
1.6515,2.4338e-05,0
1.652,2.6688e-05,0
1.6525,2.7863e-05,0
1.653,2.6688e-05,0
1.6535,2.4002e-05,0
1.654,1.7792e-05,0
1.6545,8.7282e-06,0
1.655,4.3641e-06,0
1.6555,6.5461e-06,0
1.656,1.1917e-05,0
1.6565,1.796e-05,0
1.657,2.2156e-05,0
1.6575,2.4674e-05,0
1.658,2.7192e-05,0
1.6585,2.9877e-05,0
1.659,2.8031e-05,0
1.6595,2.2492e-05,0
1.66,2.0646e-05,0
1.6605,2.6184e-05,0
1.661,3.4745e-05,0
1.6615,4.0116e-05,0
1.662,4.0787e-05,0
1.6625,3.8437e-05,0
1.663,3.6423e-05,0
1.6635,3.4409e-05,0
1.664,3.0716e-05,0
1.6645,2.2492e-05,0
1.665,8.5603e-06,0
1.6655,-6.714e-06,0
1.666,-1.561e-05,0
1.6665,-1.7624e-05,0
1.667,-1.3932e-05,0
1.6675,-8.3925e-06,0
1.668,-3.5248e-06,0
1.6685,3.357e-07,0
1.669,2.5177e-06,0
1.6695,5.2033e-06,0
1.67,7.7211e-06,0
1.6705,1.1917e-05,0
1.671,1.6953e-05,0
1.6715,2.031e-05,0
1.672,2.0478e-05,0
1.6725,2.0981e-05,0
1.673,2.3667e-05,0
1.6735,2.7192e-05,0
1.674,3.0381e-05,0
1.6745,3.3402e-05,0
1.675,3.8437e-05,0
1.6755,4.2634e-05,0
1.676,4.4144e-05,0
1.6765,4.2802e-05,0
1.677,4.0116e-05,0
1.6775,3.6759e-05,0
1.678,3.3738e-05,0
1.6785,2.6688e-05,0
1.679,1.3932e-05,0
1.6795,3.357e-06,0
1.68,1.1749e-06,0
1.6805,3.0213e-06,0
1.681,1.1749e-06,0
1.6815,-5.035e-07,0
1.682,1.1749e-06,0
1.6825,4.5319e-06,0
1.683,8.896e-06,0
1.6835,1.2924e-05,0
1.684,1.3596e-05,0
1.6845,1.2253e-05,0
1.685,1.4435e-05,0
1.6855,2.031e-05,0
1.686,2.4338e-05,0
1.6865,2.3331e-05,0
1.687,2.2324e-05,0
1.6875,2.4506e-05,0
1.688,2.4674e-05,0
1.6885,2.1988e-05,0
1.689,1.9638e-05,0
1.6895,2.0813e-05,0
1.69,2.4338e-05,0
1.6905,2.7359e-05,0
1.691,2.8702e-05,0
1.6915,2.7359e-05,0
1.692,2.5009e-05,0
1.6925,2.1653e-05,0
1.693,1.796e-05,0
1.6935,1.2924e-05,0
1.694,4.8676e-06,0
1.6945,1.0071e-06,0
1.695,5.0355e-06,0
1.6955,1.0407e-05,0
1.696,1.2253e-05,0
1.6965,1.2924e-05,0
1.697,1.4603e-05,0
1.6975,1.7288e-05,0
1.698,1.9806e-05,0
1.6985,2.266e-05,0
1.699,2.7695e-05,0
1.6995,3.4409e-05,0
1.7,4.0284e-05,0
1.7005,4.2466e-05,0
1.701,4.0116e-05,0
1.7015,3.9109e-05,0
1.702,3.9277e-05,0
1.7025,3.9109e-05,0
1.703,3.8773e-05,0
1.7035,3.4745e-05,0
1.704,3.0884e-05,0
1.7045,2.9038e-05,0
1.705,2.4674e-05,0
1.7055,1.4603e-05,0
1.706,-1.5106e-06,0
1.7065,-1.1246e-05,0
1.707,-6.3783e-06,0
1.7075,3.6927e-06,0
1.708,1.0407e-05,0
1.7085,1.4435e-05,0
1.709,1.9303e-05,0
1.7095,2.3331e-05,0
1.71,2.5345e-05,0
1.7105,2.7527e-05,0
1.711,3.1052e-05,0
1.7115,3.4241e-05,0
1.712,3.3066e-05,0
1.7125,2.2995e-05,0
1.713,3.357e-06,0
1.7135,-1.796e-05,0
1.714,-2.6352e-05,0
1.7145,-1.7288e-05,0
1.715,-3.357e-06,0
1.7155,3.6927e-06,0
1.716,2.3499e-06,0
1.7165,-5.3712e-06,0
1.717,-8.5603e-06,0
1.7175,-2.5177e-06,0
1.718,7.2175e-06,0
1.7185,1.561e-05,0
1.719,1.9974e-05,0
1.7195,1.8296e-05,0
1.72,1.4603e-05,0
1.7205,1.326e-05,0
1.721,1.4099e-05,0
1.7215,1.4603e-05,0
1.722,1.6281e-05,0
1.7225,1.7624e-05,0
1.723,2.0478e-05,0
1.7235,2.4674e-05,0
1.724,2.8534e-05,0
1.7245,3.1388e-05,0
1.725,3.2898e-05,0
1.7255,3.2059e-05,0
1.726,2.6688e-05,0
1.7265,2.2995e-05,0
1.727,1.9974e-05,0
1.7275,1.4267e-05,0
1.728,9.9031e-06,0
1.7285,1.1414e-05,0
1.729,1.7121e-05,0
1.7295,2.4506e-05,0
1.73,3.2059e-05,0
1.7305,3.743e-05,0
1.731,3.8102e-05,0
1.7315,3.4241e-05,0
1.732,3.1556e-05,0
1.7325,3.1556e-05,0
1.733,3.122e-05,0
1.7335,3.0716e-05,0
1.734,3.1052e-05,0
1.7345,2.8367e-05,0
1.735,2.4338e-05,0
1.7355,2.2492e-05,0
1.736,2.3163e-05,0
1.7365,2.1317e-05,0
1.737,1.561e-05,0
1.7375,8.0568e-06,0
1.738,2.3499e-06,0
1.7385,2.8534e-06,0
1.739,9.2317e-06,0
1.7395,1.7792e-05,0
1.74,2.1317e-05,0
1.7405,1.9135e-05,0
1.741,1.8631e-05,0
1.7415,2.1149e-05,0
1.742,2.3331e-05,0
1.7425,2.4002e-05,0
1.743,2.4002e-05,0
1.7435,2.3331e-05,0
1.744,2.266e-05,0
1.7445,1.9303e-05,0
1.745,1.326e-05,0
1.7455,1.0407e-05,0
1.746,1.326e-05,0
1.7465,1.6617e-05,0
1.747,1.5274e-05,0
1.7475,1.326e-05,0
1.748,1.5946e-05,0
1.7485,2.1988e-05,0
1.749,2.5681e-05,0
1.7495,2.6017e-05,0
1.75,2.6017e-05,0
1.7505,2.9374e-05,0
1.751,3.3738e-05,0
1.7515,3.8941e-05,0
1.752,4.4648e-05,0
1.7525,4.9515e-05,0
1.753,5.0187e-05,0
1.7535,4.3641e-05,0
1.754,2.9709e-05,0
1.7545,1.326e-05,0
1.755,4.8676e-06,0
1.7555,5.035e-07,0
1.756,-4.1962e-06,0
1.7565,-7.5532e-06,0
1.757,-4.1962e-06,0
1.7575,2.8534e-06,0
1.758,6.714e-07,0
1.7585,-1.0407e-05,0
1.759,-1.8631e-05,0
1.7595,-1.6617e-05,0
1.76,-7.7211e-06,0
1.7605,2.5177e-06,0
1.761,1.1246e-05,0
1.7615,2.0646e-05,0
1.762,2.9709e-05,0
1.7625,3.4745e-05,0
1.763,3.4073e-05,0
1.7635,3.0381e-05,0
1.764,2.7863e-05,0
1.7645,2.9038e-05,0
1.765,2.6352e-05,0
1.7655,1.3932e-05,0
1.766,-5.539e-06,0
1.7665,-1.6953e-05,0
1.767,-1.561e-05,0
1.7675,-1.0071e-05,0
1.768,-8.2246e-06,0
1.7685,-7.5532e-06,0
1.769,-3.357e-06,0
1.7695,3.357e-06,0
1.77,1.0575e-05,0
1.7705,1.9806e-05,0
1.771,2.8367e-05,0
1.7715,3.3738e-05,0
1.772,3.6423e-05,0
1.7725,3.5752e-05,0
1.773,3.6088e-05,0
1.7735,3.592e-05,0
1.774,3.0381e-05,0
1.7745,1.9974e-05,0
1.775,1.3764e-05,0
1.7755,1.4939e-05,0
1.776,2.2324e-05,0
1.7765,3.743e-05,0
1.777,6.009e-05,0
1.7775,7.9057e-05,0
1.778,8.9128e-05,0
1.7785,9.3324e-05,0
1.779,9.2989e-05,0
1.7795,8.9128e-05,0
1.78,8.04e-05,0
1.7805,6.7643e-05,0
1.781,4.6326e-05,0
1.7815,1.5274e-05,0
1.782,-1.7792e-05,0
1.7825,-4.2969e-05,0
1.783,-5.388e-05,0
1.7835,-5.1865e-05,0
1.784,-4.213e-05,0
1.7845,-2.9038e-05,0
1.785,-1.561e-05,0
1.7855,-4.1962e-06,0
1.786,4.1962e-06,0
1.7865,1.0575e-05,0
1.787,1.6281e-05,0
1.7875,1.7624e-05,0
1.788,1.4099e-05,0
1.7885,9.9031e-06,0
1.789,8.2246e-06,0
1.7895,9.9031e-06,0
1.79,1.3932e-05,0
1.7905,1.5274e-05,0
1.791,1.4435e-05,0
1.7915,1.6449e-05,0
1.792,2.2492e-05,0
1.7925,2.8534e-05,0
1.793,3.1724e-05,0
1.7935,3.1891e-05,0
1.794,3.2059e-05,0
1.7945,3.4745e-05,0
1.795,3.7766e-05,0
1.7955,3.8102e-05,0
1.796,3.2395e-05,0
1.7965,2.2492e-05,0
1.797,1.0575e-05,0
1.7975,3.357e-07,0
1.798,-4.8676e-06,0
1.7985,-2.0142e-06,0
1.799,2.5177e-06,0
1.7995,-3.357e-07,0
1.8,-1.1078e-05,0
1.8005,-1.6617e-05,0
1.801,-9.7353e-06,0
1.8015,3.8605e-06,0
1.802,1.6617e-05,0
1.8025,2.266e-05,0
1.803,2.2492e-05,0
1.8035,1.8967e-05,0
1.804,1.6617e-05,0
1.8045,2.031e-05,0
1.805,2.9038e-05,0
1.8055,3.6759e-05,0
1.806,3.8773e-05,0
1.8065,3.8773e-05,0
1.807,3.8102e-05,0
1.8075,3.9948e-05,0
1.808,4.4984e-05,0
1.8085,4.918e-05,0
1.809,4.9348e-05,0
1.8095,4.5487e-05,0
1.81,4.1291e-05,0
1.8105,4.0787e-05,0
1.811,4.0116e-05,0
1.8115,3.6255e-05,0
1.812,2.8702e-05,0
1.8125,1.5274e-05,0
1.813,1.1749e-06,0
1.8135,-2.8534e-06,0
1.814,8.392e-07,0
1.8145,5.0355e-06,0
1.815,1.0407e-05,0
1.8155,1.9638e-05,0
1.816,2.9877e-05,0
1.8165,3.6088e-05,0
1.817,3.7095e-05,0
1.8175,3.6088e-05,0
1.818,3.6423e-05,0
1.8185,3.8437e-05,0
1.819,4.1123e-05,0
1.8195,4.1459e-05,0
1.82,3.6759e-05,0
1.8205,2.7695e-05,0
1.821,1.8128e-05,0
1.8215,1.1246e-05,0
1.822,2.8534e-06,0
1.8225,-1.0575e-05,0
1.823,-2.2324e-05,0
1.8235,-2.5009e-05,0
1.824,-1.9135e-05,0
1.8245,-9.5674e-06,0
1.825,-2.8534e-06,0
1.8255,5.035e-07,0
1.826,2.182e-06,0
1.8265,3.6927e-06,0
1.827,5.0355e-06,0
1.8275,6.0426e-06,0
1.828,7.2175e-06,0
1.8285,1.1078e-05,0
1.829,1.6449e-05,0
1.8295,1.8296e-05,0
1.83,1.7456e-05,0
1.8305,1.8967e-05,0
1.831,2.2324e-05,0
1.8315,2.4338e-05,0
1.832,2.7695e-05,0
1.8325,3.3234e-05,0
1.833,4.1627e-05,0
1.8335,4.9851e-05,0
1.834,5.623e-05,0
1.8345,6.2944e-05,0
1.835,6.7979e-05,0
1.8355,6.8818e-05,0
1.836,6.1265e-05,0
1.8365,4.6494e-05,0
1.837,2.8031e-05,0
1.8375,1.2589e-05,0
1.838,1.5106e-06,0
1.8385,-6.5461e-06,0
1.839,-1.2253e-05,0
1.8395,-1.1246e-05,0
1.84,-1.0071e-06,0
1.8405,1.2589e-05,0
1.841,1.8296e-05,0
1.8415,1.3596e-05,0
1.842,7.0497e-06,0
1.8425,7.5532e-06,0
1.843,1.0575e-05,0
1.8435,5.539e-06,0
1.844,-8.896e-06,0
1.8445,-2.0646e-05,0
1.845,-1.8631e-05,0
1.8455,-8.0568e-06,0
1.846,2.3499e-06,0
1.8465,1.2757e-05,0
1.847,2.6688e-05,0
1.8475,3.4073e-05,0
1.848,3.1388e-05,0
1.8485,2.7192e-05,0
1.849,2.4002e-05,0
1.8495,2.4674e-05,0
1.85,2.8031e-05,0
1.8505,2.8702e-05,0
1.851,2.3667e-05,0
1.8515,1.3596e-05,0
1.852,5.2033e-06,0
1.8525,5.7069e-06,0
1.853,1.4603e-05,0
1.8535,2.8702e-05,0
1.854,4.2466e-05,0
1.8545,4.8005e-05,0
1.855,4.6159e-05,0
1.8555,4.1291e-05,0
1.856,3.592e-05,0
1.8565,2.9374e-05,0
1.857,2.2156e-05,0
1.8575,1.4267e-05,0
1.858,4.1962e-06,0
1.8585,-7.3854e-06,0
1.859,-1.5106e-05,0
1.8595,-1.8967e-05,0
1.86,-2.1317e-05,0
1.8605,-2.266e-05,0
1.861,-2.7024e-05,0
1.8615,-2.9709e-05,0
1.862,-2.1653e-05,0
1.8625,-1.091e-05,0
1.863,-3.1891e-06,0
1.8635,3.8605e-06,0
1.864,1.0575e-05,0
1.8645,1.561e-05,0
1.865,2.0646e-05,0
1.8655,2.5681e-05,0
1.866,2.887e-05,0
1.8665,2.9038e-05,0
1.867,2.8031e-05,0
1.8675,2.8031e-05,0
1.868,3.1724e-05,0
1.8685,3.6088e-05,0
1.869,3.8605e-05,0
1.8695,3.9445e-05,0
1.87,3.9109e-05,0
1.8705,3.9109e-05,0
1.871,4.1291e-05,0
1.8715,4.2802e-05,0
1.872,4.1795e-05,0
1.8725,3.5248e-05,0
1.873,2.4002e-05,0
1.8735,1.4603e-05,0
1.874,1.2085e-05,0
1.8745,1.6617e-05,0
1.875,2.4674e-05,0
1.8755,3.2059e-05,0
1.876,4.0116e-05,0
1.8765,4.4816e-05,0
1.877,4.4144e-05,0
1.8775,4.7166e-05,0
1.878,5.1362e-05,0
1.8785,5.1362e-05,0
1.879,4.5487e-05,0
1.8795,3.743e-05,0
1.88,2.9709e-05,0
1.8805,1.8631e-05,0
1.881,4.1962e-06,0
1.8815,-7.7211e-06,0
1.882,-1.1582e-05,0
1.8825,-4.5319e-06,0
1.883,6.0426e-06,0
1.8835,1.5946e-05,0
1.884,2.4002e-05,0
1.8845,2.4674e-05,0
1.885,2.0981e-05,0
1.8855,1.9638e-05,0
1.886,2.1317e-05,0
1.8865,1.8799e-05,0
1.887,1.1582e-05,0
1.8875,7.8889e-06,0
1.888,7.8889e-06,0
1.8885,4.6998e-06,0
1.889,2.5177e-06,0
1.8895,3.6927e-06,0
1.89,6.5461e-06,0
1.8905,9.5674e-06,0
1.891,1.2253e-05,0
1.8915,1.8128e-05,0
1.892,2.7863e-05,0
1.8925,3.8773e-05,0
1.893,4.8508e-05,0
1.8935,5.5726e-05,0
1.894,5.8244e-05,0
1.8945,5.7404e-05,0
1.895,5.7069e-05,0
1.8955,5.539e-05,0
1.896,4.3305e-05,0
1.8965,2.266e-05,0
1.897,6.8818e-06,0
1.8975,3.6927e-06,0
1.898,8.5603e-06,0
1.8985,1.0407e-05,0
1.899,4.5319e-06,0
1.8995,-3.357e-06,0
1.9,-8.896e-06,0
1.9005,-7.2175e-06,0
1.901,-3.0213e-06,0
1.9015,-5.035e-07,0
1.902,6.714e-07,0
1.9025,3.5248e-06,0
1.903,8.5603e-06,0
1.9035,1.3932e-05,0
1.904,1.4939e-05,0
1.9045,1.1078e-05,0
1.905,5.0355e-06,0
1.9055,-4.1962e-06,0
1.906,-1.2924e-05,0
1.9065,-1.3596e-05,0
1.907,-5.3712e-06,0
1.9075,2.6856e-06,0
1.908,5.8747e-06,0
1.9085,4.5319e-06,0
1.909,2.182e-06,0
1.9095,7.5532e-06,0
1.91,2.1317e-05,0
1.9105,3.2563e-05,0
1.911,3.0381e-05,0
1.9115,1.7121e-05,0
1.912,2.8534e-06,0
1.9125,-2.5177e-06,0
1.913,1.0071e-06,0
1.9135,6.3783e-06,0
1.914,9.2317e-06,0
1.9145,1.2924e-05,0
1.915,2.3667e-05,0
1.9155,3.6088e-05,0
1.916,4.3137e-05,0
1.9165,4.5991e-05,0
1.917,4.8676e-05,0
1.9175,5.1865e-05,0
1.918,5.3208e-05,0
1.9185,5.8244e-05,0
1.919,6.5461e-05,0
1.9195,6.6133e-05,0
1.92,5.8915e-05,0
1.9205,4.6159e-05,0
1.921,3.2731e-05,0
1.9215,2.3667e-05,0
1.922,2.2156e-05,0
1.9225,2.6017e-05,0
1.923,2.8702e-05,0
1.9235,2.7359e-05,0
1.924,2.3499e-05,0
1.9245,1.7456e-05,0
1.925,1.4267e-05,0
1.9255,1.5946e-05,0
1.926,1.3932e-05,0
1.9265,4.6998e-06,0
1.927,-2.8534e-06,0
1.9275,2.0142e-06,0
1.928,1.3764e-05,0
1.9285,1.6953e-05,0
1.929,1.2253e-05,0
1.9295,5.8747e-06,0
1.93,2.5177e-06,0
1.9305,3.8605e-06,0
1.931,5.0355e-06,0
1.9315,4.1962e-06,0
1.932,1.678e-07,0
1.9325,-6.5461e-06,0
1.933,-7.0497e-06,0
1.9335,3.5248e-06,0
1.934,1.8296e-05,0
1.9345,3.1724e-05,0
1.935,4.2298e-05,0
1.9355,4.8173e-05,0
1.936,4.7501e-05,0
1.9365,4.4816e-05,0
1.937,4.7669e-05,0
1.9375,5.153e-05,0
1.938,4.7501e-05,0
1.9385,3.7934e-05,0
1.939,3.0716e-05,0
1.9395,2.6352e-05,0
1.94,1.7288e-05,0
1.9405,-3.1891e-06,0
1.941,-2.5513e-05,0
1.9415,-2.6017e-05,0
1.942,-5.0355e-06,0
1.9425,1.5274e-05,0
1.943,2.3667e-05,0
1.9435,2.3667e-05,0
1.944,1.8967e-05,0
1.9445,1.7288e-05,0
1.945,1.9303e-05,0
1.9455,1.8631e-05,0
1.946,1.3596e-05,0
1.9465,1.0239e-05,0
1.947,1.2253e-05,0
1.9475,1.7624e-05,0
1.948,2.3331e-05,0
1.9485,2.4002e-05,0
1.949,1.8631e-05,0
1.9495,1.8296e-05,0
1.95,2.5009e-05,0
1.9505,3.0045e-05,0
1.951,2.9374e-05,0
1.9515,2.2995e-05,0
1.952,9.2317e-06,0
1.9525,1.5106e-06,0
1.953,9.9031e-06,0
1.9535,1.947e-05,0
1.954,1.5274e-05,0
1.9545,7.0497e-06,0
1.955,7.7211e-06,0
1.9555,1.4939e-05,0
1.956,2.0646e-05,0
1.9565,2.8031e-05,0
1.957,3.6423e-05,0
1.9575,3.8102e-05,0
1.958,3.2059e-05,0
1.9585,1.7624e-05,0
1.959,-4.1962e-06,0
1.9595,-1.9806e-05,0
1.96,-1.2589e-05,0
1.9605,6.3783e-06,0
1.961,1.4939e-05,0
1.9615,9.5674e-06,0
1.962,3.1891e-06,0
1.9625,7.2175e-06,0
1.963,1.796e-05,0
1.9635,2.7192e-05,0
1.964,2.5345e-05,0
1.9645,1.4939e-05,0
1.965,1.1749e-05,0
1.9655,2.031e-05,0
1.966,2.9038e-05,0
1.9665,3.3234e-05,0
1.967,3.1052e-05,0
1.9675,2.9206e-05,0
1.968,3.1388e-05,0
1.9685,3.4073e-05,0
1.969,3.9445e-05,0
1.9695,4.6326e-05,0
1.97,4.1123e-05,0
1.9705,2.0981e-05,0
1.971,1.678e-07,0
1.9715,-4.3641e-06,0
1.972,4.5319e-06,0
1.9725,1.2253e-05,0
1.973,1.7624e-05,0
1.9735,1.9303e-05,0
1.974,6.5461e-06,0
1.9745,-4.8676e-06,0
1.975,1.5106e-06,0
1.9755,1.326e-05,0
1.976,1.5946e-05,0
1.9765,1.1917e-05,0
1.977,3.1891e-06,0
1.9775,-9.7353e-06,0
1.978,-2.2492e-05,0
1.9785,-3.1052e-05,0
1.979,-3.1388e-05,0
1.9795,-1.796e-05,0
1.98,4.0284e-06,0
1.9805,1.7624e-05,0
1.981,2.0646e-05,0
1.9815,2.0478e-05,0
1.982,1.9135e-05,0
1.9825,1.8296e-05,0
1.983,1.8631e-05,0
1.9835,2.1317e-05,0
1.984,2.3331e-05,0
1.9845,2.1317e-05,0
1.985,2.4506e-05,0
1.9855,3.4577e-05,0
1.986,4.2802e-05,0
1.9865,4.8844e-05,0
1.987,5.4719e-05,0
1.9875,6.2272e-05,0
1.988,6.9657e-05,0
1.9885,7.4357e-05,0
1.989,7.4861e-05,0
1.9895,7.1336e-05,0
1.99,6.4958e-05,0
1.9905,5.4719e-05,0
1.991,4.2466e-05,0
1.9915,2.9709e-05,0
1.992,1.326e-05,0
1.9925,-3.357e-07,0
1.993,-3.5248e-06,0
1.9935,0,0
1.994,3.5248e-06,0
1.9945,4.1962e-06,0
1.995,-2.3499e-06,0
1.9955,-1.2924e-05,0
1.996,-1.8631e-05,0
1.9965,-1.4939e-05,0
1.997,-1.2253e-05,0
1.9975,-1.4267e-05,0
1.998,-9.0639e-06,0
1.9985,1.1749e-06,0
1.999,5.2033e-06,0
1.9995,6.2104e-06,0
2,9.2317e-06,0
2.0005,1.3596e-05,0
2.001,1.7792e-05,0
2.0015,2.2492e-05,0
2.002,2.7695e-05,0
2.0025,3.0716e-05,0
2.003,2.8534e-05,0
2.0035,2.4674e-05,0
2.004,2.266e-05,0
2.0045,2.1149e-05,0
2.005,2.1988e-05,0
2.0055,2.8031e-05,0
2.006,3.6088e-05,0
2.0065,4.2802e-05,0
2.007,4.5487e-05,0
2.0075,4.2802e-05,0
2.008,3.4745e-05,0
2.0085,2.6352e-05,0
2.009,2.4842e-05,0
2.0095,2.7359e-05,0
2.01,2.8031e-05,0
2.0105,3.0549e-05,0
2.011,3.743e-05,0
2.0115,4.8508e-05,0
2.012,6.2944e-05,0
2.0125,8.04e-05,0
2.013,9.5842e-05,0
2.0135,9.9535e-05,0
2.014,9.0303e-05,0
2.0145,7.4525e-05,0
2.015,5.3544e-05,0
2.0155,2.7024e-05,0
2.016,-1.3428e-06,0
2.0165,-2.2492e-05,0
2.017,-3.1724e-05,0
2.0175,-3.9445e-05,0
2.018,-4.9851e-05,0
2.0185,-5.2705e-05,0
2.019,-4.6159e-05,0
2.0195,-4.0787e-05,0
2.02,-4.1962e-05,0
2.0205,-4.0787e-05,0
2.021,-3.0381e-05,0
2.0215,-1.561e-05,0
2.022,-5.539e-06,0
2.0225,-4.0284e-06,0
2.023,-4.6998e-06,0
2.0235,-1.6785e-06,0
2.024,2.8534e-06,0
2.0245,7.8889e-06,0
2.025,9.2317e-06,0
2.0255,3.5248e-06,0
2.026,2.0142e-06,0
2.0265,9.9031e-06,0
2.027,2.1988e-05,0
2.0275,3.0716e-05,0
2.028,3.592e-05,0
2.0285,3.9277e-05,0
2.029,4.1962e-05,0
2.0295,4.4816e-05,0
2.03,4.5151e-05,0
2.0305,3.827e-05,0
2.031,2.6688e-05,0
2.0315,1.6449e-05,0
2.032,1.2253e-05,0
2.0325,1.2757e-05,0
2.033,1.8631e-05,0
2.0335,3.0381e-05,0
2.034,3.8437e-05,0
2.0345,4.0452e-05,0
2.035,3.978e-05,0
2.0355,3.827e-05,0
2.036,3.2731e-05,0
2.0365,2.7192e-05,0
2.037,2.6352e-05,0
2.0375,3.2059e-05,0
2.038,4.4816e-05,0
2.0385,5.7237e-05,0
2.039,6.3615e-05,0
2.0395,7.4021e-05,0
2.04,9.987e-05,0
2.0405,0.00013462,0
2.041,0.0001566,0
2.0415,0.00015325,0
2.042,0.00013663,0
2.0425,0.00012001,0
2.043,8.9464e-05,0
2.0435,3.6759e-05,0
2.044,-2.3667e-05,0
2.0445,-7.5532e-05,0
2.045,-0.00012186,0
2.0455,-0.00015828,0
2.046,-0.0001613,0
2.0465,-0.00013881,0
2.047,-0.0001185,0
2.0475,-0.0001044,0
2.048,-8.4596e-05,0
2.0485,-6.0929e-05,0
2.049,-4.4144e-05,0
2.0495,-3.4577e-05,0
2.05,-2.031e-05,0
2.0505,-8.392e-07,0
2.051,1.5106e-05,0
2.0515,2.2324e-05,0
2.052,2.6688e-05,0
2.0525,3.2731e-05,0
2.053,3.592e-05,0
2.0535,2.9877e-05,0
2.054,1.6953e-05,0
2.0545,6.3783e-06,0
2.055,-5.035e-07,0
2.0555,-3.6927e-06,0
2.056,-2.8534e-06,0
2.0565,5.539e-06,0
2.057,2.0646e-05,0
2.0575,3.9445e-05,0
2.058,5.6901e-05,0
2.0585,6.6972e-05,0
2.059,7.0664e-05,0
2.0595,7.4021e-05,0
2.06,8.04e-05,0
2.0605,8.8792e-05,0
2.061,8.8457e-05,0
2.0615,7.1e-05,0
2.062,4.3473e-05,0
2.0625,2.182e-05,0
2.063,8.2246e-06,0
2.0635,-1.6785e-06,0
2.064,-1.7121e-05,0
2.0645,-4.0787e-05,0
2.065,-4.6662e-05,0
2.0655,-2.3163e-05,0
2.066,1.5106e-06,0
2.0665,6.5461e-06,0
2.067,6.714e-06,0
2.0675,1.4771e-05,0
2.068,2.9038e-05,0
2.0685,4.3137e-05,0
2.069,5.069e-05,0
2.0695,4.7837e-05,0
2.07,3.8773e-05,0
2.0705,3.6423e-05,0
2.071,4.1459e-05,0
2.0715,4.8844e-05,0
2.072,5.3544e-05,0
2.0725,5.4887e-05,0
2.073,5.6062e-05,0
2.0735,5.7572e-05,0
2.074,5.6901e-05,0
2.0745,5.7069e-05,0
2.075,5.774e-05,0
2.0755,5.7908e-05,0
2.076,5.9587e-05,0
2.0765,6.1601e-05,0
2.077,6.2944e-05,0
2.0775,6.1601e-05,0
2.078,5.5894e-05,0
2.0785,4.5319e-05,0
2.079,2.9374e-05,0
2.0795,1.4603e-05,0
2.08,6.3783e-06,0
2.0805,2.8534e-06,0
2.081,-3.0213e-06,0
2.0815,-1.2589e-05,0
2.082,-1.4603e-05,0
2.0825,-7.5532e-06,0
2.083,5.035e-07,0
2.0835,5.539e-06,0
2.084,5.8747e-06,0
2.0845,2.3499e-06,0
2.085,-1.0071e-06,0
2.0855,-1.3428e-06,0
2.086,1.1749e-06,0
2.0865,5.539e-06,0
2.087,1.2589e-05,0
2.0875,1.9303e-05,0
2.088,1.8463e-05,0
2.0885,1.1246e-05,0
2.089,5.2033e-06,0
2.0895,1.5106e-06,0
2.09,-1.5106e-06,0
2.0905,-1.5106e-06,0
2.091,1.3428e-06,0
2.0915,5.035e-07,0
2.092,-2.8534e-06,0
2.0925,3.5248e-06,0
2.093,2.266e-05,0
2.0935,4.5487e-05,0
2.094,6.0929e-05,0
2.0945,6.63e-05,0
2.095,6.7475e-05,0
2.0955,6.9657e-05,0
2.096,7.1672e-05,0
2.0965,7.4021e-05,0
2.097,7.805e-05,0
2.0975,7.7714e-05,0
2.098,7.1672e-05,0
2.0985,5.623e-05,0
2.099,3.1388e-05,0
2.0995,4.1962e-06,0
2.1,-1.5274e-05,0
2.1005,-2.8534e-05,0
2.101,-4.2466e-05,0
2.1015,-6.0258e-05,0
2.102,-7.5029e-05,0
2.1025,-8.5603e-05,0
2.103,-9.4835e-05,0
2.1035,-9.1814e-05,0
2.104,-6.8315e-05,0
2.1045,-3.2731e-05,0
2.105,5.2033e-06,0
2.1055,3.7934e-05,0
2.106,5.5055e-05,0
2.1065,4.9851e-05,0
2.107,3.1891e-05,0
2.1075,2.266e-05,0
2.108,2.1988e-05,0
2.1085,1.1078e-05,0
2.109,-1.091e-05,0
2.1095,-3.2395e-05,0
2.11,-4.3473e-05,0
2.1105,-4.1962e-05,0
2.111,-3.2059e-05,0
2.1115,-1.4099e-05,0
2.112,1.5106e-05,0
2.1125,4.2802e-05,0
2.113,5.5558e-05,0
2.1135,6.2104e-05,0
2.114,6.8315e-05,0
2.1145,6.7979e-05,0
2.115,5.4551e-05,0
2.1155,3.0381e-05,0
2.116,5.2033e-06,0
2.1165,-1.1078e-05,0
2.117,-1.4267e-05,0
2.1175,-6.5461e-06,0
2.118,5.7069e-06,0
2.1185,1.7792e-05,0
2.119,3.3402e-05,0
2.1195,5.6733e-05,0
2.12,8.7114e-05,0
2.1205,0.00012522,0
2.121,0.00016365,0
2.1215,0.00018766,0
2.122,0.00018413,0
2.1225,0.00015694,0
2.123,0.00012656,0
2.1235,9.6513e-05,0
2.124,6.4286e-05,0
2.1245,2.8031e-05,0
2.125,-1.1582e-05,0
2.1255,-3.508e-05,0
2.126,-4.8508e-05,0
2.1265,-6.8986e-05,0
2.127,-8.7953e-05,0
2.1275,-8.275e-05,0
2.128,-5.8579e-05,0
2.1285,-3.3738e-05,0
2.129,-2.0646e-05,0
2.1295,-2.6352e-05,0
2.13,-3.6927e-05,0
2.1305,-4.0116e-05,0
2.131,-3.9445e-05,0
2.1315,-4.1627e-05,0
2.132,-4.7333e-05,0
2.1325,-6.0426e-05,0
2.133,-7.5868e-05,0
2.1335,-7.5029e-05,0
2.134,-5.539e-05,0
2.1345,-3.3738e-05,0
2.135,-2.1317e-05,0
2.1355,-1.1917e-05,0
2.136,1.0071e-06,0
2.1365,1.7624e-05,0
2.137,3.2395e-05,0
2.1375,4.1795e-05,0
2.138,4.6159e-05,0
2.1385,4.6159e-05,0
2.139,4.448e-05,0
2.1395,4.4144e-05,0
2.14,4.1795e-05,0
2.1405,3.508e-05,0
2.141,3.0045e-05,0
2.1415,3.3402e-05,0
2.142,4.1627e-05,0
2.1425,4.8844e-05,0
2.143,5.3208e-05,0
2.1435,5.4551e-05,0
2.144,5.4887e-05,0
2.1445,5.2537e-05,0
2.145,4.2466e-05,0
2.1455,3.0213e-05,0
2.146,1.8631e-05,0
2.1465,1.3764e-05,0
2.147,2.4002e-05,0
2.1475,4.4648e-05,0
2.148,6.1433e-05,0
2.1485,6.5461e-05,0
2.149,5.8579e-05,0
2.1495,4.8173e-05,0
2.15,4.1459e-05,0
2.1505,4.0619e-05,0
2.151,3.8102e-05,0
2.1515,3.743e-05,0
2.152,4.5655e-05,0
2.1525,5.5222e-05,0
2.153,5.8747e-05,0
2.1535,6.0258e-05,0
2.154,6.4286e-05,0
2.1545,6.6972e-05,0
2.155,6.2776e-05,0
2.1555,5.3544e-05,0
2.156,4.5487e-05,0
2.1565,3.9612e-05,0
2.157,3.1052e-05,0
2.1575,1.8967e-05,0
2.158,1.326e-05,0
2.1585,1.7288e-05,0
2.159,2.2995e-05,0
2.1595,2.031e-05,0
2.16,9.9031e-06,0
2.1605,0,0
2.161,-5.8747e-06,0
2.1615,-1.1078e-05,0
2.162,-1.4939e-05,0
2.1625,-1.4435e-05,0
2.163,-1.2253e-05,0
2.1635,-1.3092e-05,0
2.164,-2.3667e-05,0
2.1645,-3.4577e-05,0
2.165,-2.7024e-05,0
2.1655,-4.8676e-06,0
2.166,1.1917e-05,0
2.1665,1.9638e-05,0
2.167,2.0646e-05,0
2.1675,2.182e-05,0
2.168,3.122e-05,0
2.1685,4.8844e-05,0
2.169,6.3279e-05,0
2.1695,6.4286e-05,0
2.17,5.6901e-05,0
2.1705,4.8844e-05,0
2.171,4.3473e-05,0
2.1715,3.7934e-05,0
2.172,3.1052e-05,0
2.1725,3.0381e-05,0
2.173,3.9445e-05,0
2.1735,4.5487e-05,0
2.174,3.0716e-05,0
2.1745,2.5177e-06,0
2.175,-1.7288e-05,0
2.1755,-3.1891e-05,0
2.176,-5.1194e-05,0
2.1765,-6.9993e-05,0
2.177,-7.4525e-05,0
2.1775,-5.7237e-05,0
2.178,-2.3163e-05,0
2.1785,1.4099e-05,0
2.179,3.5752e-05,0
2.1795,3.6759e-05,0
2.18,2.6688e-05,0
2.1805,1.2253e-05,0
2.181,-2.3499e-06,0
2.1815,-1.1749e-05,0
2.182,-1.6617e-05,0
2.1825,-2.1317e-05,0
2.183,-2.7359e-05,0
2.1835,-2.8367e-05,0
2.184,-1.4603e-05,0
2.1845,1.2924e-05,0
2.185,4.1291e-05,0
2.1855,5.4887e-05,0
2.186,5.1362e-05,0
2.1865,3.6088e-05,0
2.187,2.2324e-05,0
2.1875,2.1988e-05,0
2.188,3.3066e-05,0
2.1885,5.2201e-05,0
2.189,7.8218e-05,0
2.1895,0.00010524,0
2.19,0.00011733,0
2.1905,0.00010675,0
2.191,8.1407e-05,0
2.1915,5.7908e-05,0
2.192,5.069e-05,0
2.1925,4.3473e-05,0
2.193,9.7353e-06,0
2.1935,-4.448e-05,0
2.194,-8.5267e-05,0
2.1945,-8.1743e-05,0
2.195,-4.0116e-05,0
2.1955,-4.6998e-06,0
2.196,2.5177e-06,0
2.1965,-3.8605e-06,0
2.197,-1.6617e-05,0
2.1975,-4.5151e-05,0
2.198,-8.5771e-05,0
2.1985,-0.00010222,0
2.199,-7.0664e-05,0
2.1995,-9.5674e-06,0
2.2,4.3809e-05,0
2.2005,5.9251e-05,0
2.201,5.2201e-05,0
2.2015,5.5558e-05,0
2.202,7.2007e-05,0
2.2025,8.1071e-05,0
2.203,7.9057e-05,0
2.2035,6.9657e-05,0
2.204,5.4551e-05,0
2.2045,3.743e-05,0
2.205,2.182e-05,0
2.2055,6.5461e-06,0
2.206,-1.3932e-05,0
2.2065,-3.122e-05,0
2.207,-3.2395e-05,0
2.2075,-1.796e-05,0
2.208,6.0426e-06,0
2.2085,2.6688e-05,0
2.209,3.4073e-05,0
2.2095,3.3402e-05,0
2.21,4.1459e-05,0
2.2105,5.2872e-05,0
2.211,5.5558e-05,0
2.2115,5.4719e-05,0
2.212,6.0258e-05,0
2.2125,6.5293e-05,0
2.213,5.8915e-05,0
2.2135,4.448e-05,0
2.214,2.9374e-05,0
2.2145,1.9974e-05,0
2.215,1.796e-05,0
2.2155,1.9974e-05,0
2.216,1.796e-05,0
2.2165,1.1246e-05,0
2.217,1.3764e-05,0
2.2175,2.7695e-05,0
2.218,4.0452e-05,0
2.2185,4.5151e-05,0
2.219,4.5151e-05,0
2.2195,4.6494e-05,0
2.22,4.683e-05,0
2.2205,4.1459e-05,0
2.221,3.2731e-05,0
2.2215,2.4338e-05,0
2.222,1.6449e-05,0
2.2225,7.8889e-06,0
2.223,3.1891e-06,0
2.2235,9.2317e-06,0
2.224,1.8967e-05,0
2.2245,2.2324e-05,0
2.225,2.4002e-05,0
2.2255,2.9877e-05,0
2.226,3.5416e-05,0
2.2265,3.9948e-05,0
2.227,4.683e-05,0
2.2275,5.1698e-05,0
2.228,4.6159e-05,0
2.2285,3.7095e-05,0
2.229,3.6088e-05,0
2.2295,4.2802e-05,0
2.23,4.8844e-05,0
2.2305,4.7837e-05,0
2.231,4.4144e-05,0
2.2315,3.8437e-05,0
2.232,2.7695e-05,0
2.2325,2.0646e-05,0
2.233,2.1653e-05,0
2.2335,2.2995e-05,0
2.234,1.8631e-05,0
2.2345,3.5248e-06,0
2.235,-1.5274e-05,0
2.2355,-2.7024e-05,0
2.236,-2.6352e-05,0
2.2365,-2.7192e-05,0
2.237,-4.1291e-05,0
2.2375,-5.0523e-05,0
2.238,-3.3738e-05,0
2.2385,-3.6927e-06,0
2.239,1.2924e-05,0
2.2395,2.5177e-06,0
2.24,-2.3835e-05,0
2.2405,-4.8676e-05,0
2.241,-5.4215e-05,0
2.2415,-3.4073e-05,0
2.242,-6.2104e-06,0
2.2425,1.0407e-05,0
2.243,1.8128e-05,0
2.2435,2.6184e-05,0
2.244,3.5752e-05,0
2.2445,4.2466e-05,0
2.245,4.6159e-05,0
2.2455,4.9515e-05,0
2.246,5.0187e-05,0
2.2465,4.3305e-05,0
2.247,4.2802e-05,0
2.2475,6.2776e-05,0
2.248,8.9967e-05,0
2.2485,0.0001138,0
2.249,0.00013143,0
2.2495,0.00013663,0
2.25,0.00012236,0
2.2505,8.4764e-05,0
2.251,1.8631e-05,0
2.2515,-5.0858e-05,0
2.252,-8.4764e-05,0
2.2525,-9.1478e-05,0
2.253,-9.9367e-05,0
2.2535,-0.00010961,0
2.254,-0.00011028,0
2.2545,-9.0135e-05,0
2.255,-5.2537e-05,0
2.2555,-1.3596e-05,0
2.256,1.8463e-05,0
2.2565,4.448e-05,0
2.257,6.1601e-05,0
2.2575,7.4021e-05,0
2.258,9.2149e-05,0
2.2585,0.0001086,0
2.259,0.00010574,0
2.2595,8.2918e-05,0
2.26,5.5558e-05,0
2.2605,3.3738e-05,0
2.261,1.1078e-05,0
2.2615,-2.5513e-05,0
2.262,-5.9251e-05,0
2.2625,-6.6468e-05,0
2.263,-4.6494e-05,0
2.2635,-1.6449e-05,0
2.264,0,0
2.2645,5.035e-07,0
2.265,7.5532e-06,0
2.2655,2.7024e-05,0
2.266,3.4409e-05,0
2.2665,1.1749e-05,0
2.267,-1.8296e-05,0
2.2675,-4.3809e-05,0
2.268,-6.7979e-05,0
2.2685,-6.865e-05,0
2.269,-5.4551e-05,0
2.2695,-4.9851e-05,0
2.27,-4.5991e-05,0
2.2705,-2.9374e-05,0
2.271,-2.8534e-06,0
2.2715,2.1317e-05,0
2.272,2.7359e-05,0
2.2725,9.2317e-06,0
2.273,-1.0575e-05,0
2.2735,-1.1917e-05,0
2.274,6.3783e-06,0
2.2745,3.1891e-05,0
2.275,4.3809e-05,0
2.2755,3.4073e-05,0
2.276,2.9542e-05,0
2.2765,4.448e-05,0
2.277,5.7908e-05,0
2.2775,5.5558e-05,0
2.278,4.7501e-05,0
2.2785,5.5558e-05,0
2.279,7.57e-05,0
2.2795,8.9799e-05,0
2.28,9.6178e-05,0
2.2805,9.6513e-05,0
2.281,9.836e-05,0
2.2815,0.00010877,0
2.282,0.00012454,0
2.2825,0.00013881,0
2.283,0.00013579,0
2.2835,0.00010423,0
2.284,6.0258e-05,0
2.2845,4.0619e-05,0
2.285,3.8773e-05,0
2.2855,2.3499e-05,0
2.286,-2.3499e-06,0
2.2865,-1.5274e-05,0
2.287,-1.6281e-05,0
2.2875,-2.3667e-05,0
2.288,-4.3473e-05,0
2.2885,-5.5894e-05,0
2.289,-4.6159e-05,0
2.2895,-2.3331e-05,0
2.29,-4.3641e-06,0
2.2905,2.8534e-06,0
2.291,-2.5177e-06,0
2.2915,-1.561e-05,0
2.292,-3.1388e-05,0
2.2925,-4.5151e-05,0
2.293,-5.1865e-05,0
2.2935,-3.9277e-05,0
2.294,-1.0239e-05,0
2.2945,1.3596e-05,0
2.295,2.182e-05,0
2.2955,2.3499e-05,0
2.296,2.6688e-05,0
2.2965,3.1052e-05,0
2.297,3.3234e-05,0
2.2975,3.6759e-05,0
2.298,4.1459e-05,0
2.2985,4.4984e-05,0
2.299,4.5487e-05,0
2.2995,4.5487e-05,0
2.3,5.2201e-05,0
2.3005,5.9587e-05,0
2.301,6.3783e-05,0
2.3015,6.63e-05,0
2.302,7.2007e-05,0
2.3025,8.0903e-05,0
2.303,8.7617e-05,0
2.3035,8.896e-05,0
2.304,8.6778e-05,0
2.3045,8.8121e-05,0
2.305,9.1814e-05,0
2.3055,8.3757e-05,0
2.306,6.244e-05,0
2.3065,3.9612e-05,0
2.307,1.4267e-05,0
2.3075,-1.2924e-05,0
2.308,-3.2731e-05,0
2.3085,-3.7934e-05,0
2.309,-3.508e-05,0
2.3095,-3.6759e-05,0
2.31,-4.7837e-05,0
2.3105,-5.3544e-05,0
2.311,-4.1291e-05,0
2.3115,-1.8967e-05,0
2.312,-4.8676e-06,0
2.3125,-5.8747e-06,0
2.313,-1.5946e-05,0
2.3135,-2.1317e-05,0
2.314,-1.8631e-05,0
2.3145,-1.1246e-05,0
2.315,-5.035e-07,0
2.3155,1.1917e-05,0
2.316,2.3667e-05,0
2.3165,2.6688e-05,0
2.317,1.7288e-05,0
2.3175,5.8747e-06,0
2.318,1.5106e-06,0
2.3185,4.1962e-06,0
2.319,1.5946e-05,0
2.3195,3.1724e-05,0
2.32,3.1724e-05,0
2.3205,1.5274e-05,0
2.321,2.8534e-06,0
2.3215,3.1891e-06,0
2.322,4.3641e-06,0
2.3225,4.5319e-06,0
2.323,9.2317e-06,0
2.3235,1.9806e-05,0
2.324,3.1891e-05,0
2.3245,4.213e-05,0
2.325,5.2033e-05,0
2.3255,6.0258e-05,0
2.326,6.3279e-05,0
2.3265,5.3544e-05,0
2.327,3.4073e-05,0
2.3275,1.6617e-05,0
2.328,1.6953e-05,0
2.3285,2.9374e-05,0
2.329,3.9109e-05,0
2.3295,4.213e-05,0
2.33,2.9374e-05,0
2.3305,1.3092e-05,0
2.331,2.3499e-05,0
2.3315,5.7908e-05,0
2.332,8.6778e-05,0
2.3325,9.1478e-05,0
2.333,7.2847e-05,0
2.3335,4.6159e-05,0
2.334,2.3835e-05,0
2.3345,2.3499e-06,0
2.335,-2.8031e-05,0
2.3355,-5.3208e-05,0
2.336,-4.3809e-05,0
2.3365,6.714e-07,0
2.337,4.2634e-05,0
2.3375,5.2201e-05,0
2.338,3.2059e-05,0
2.3385,-4.1962e-06,0
2.339,-6.0594e-05,0
2.3395,-0.00010994,0
2.34,-0.00011061,0
2.3405,-6.4622e-05,0
2.341,-1.5106e-05,0
2.3415,2.182e-06,0
2.342,3.1891e-06,0
2.3425,7.5532e-06,0
2.343,1.2253e-05,0
2.3435,1.1246e-05,0
2.344,5.0355e-06,0
2.3445,-9.0639e-06,0
2.345,-2.4506e-05,0
2.3455,-2.9374e-05,0
2.346,-2.0981e-05,0
2.3465,-5.7069e-06,0
2.347,6.3783e-06,0
2.3475,1.1582e-05,0
2.348,1.796e-05,0
2.3485,3.1724e-05,0
2.349,5.0858e-05,0
2.3495,7.3686e-05,0
2.35,9.9535e-05,0
2.3505,0.00012673,0
2.351,0.00014855,0
2.3515,0.00016869,0
2.352,0.00018614,0
2.3525,0.00018178,0
2.353,0.00013915,0
2.3535,7.6371e-05,0
2.354,1.796e-05,0
2.3545,-3.1556e-05,0
2.355,-7.9728e-05,0
2.3555,-0.00011431,0
2.356,-0.00010675,0
2.3565,-5.8747e-05,0
2.357,-1.326e-05,0
2.3575,6.8818e-06,0
2.358,1.6281e-05,0
2.3585,2.0981e-05,0
2.359,1.6617e-05,0
2.3595,8.2246e-06,0
2.36,-9.9031e-06,0
2.3605,-1.8296e-05,0
2.361,4.8676e-06,0
2.3615,2.8367e-05,0
2.362,1.8631e-05,0
2.3625,-1.091e-05,0
2.363,-1.3932e-05,0
2.3635,1.1078e-05,0
2.364,2.1149e-05,0
2.3645,1.0575e-05,0
2.365,7.8889e-06,0
2.3655,2.182e-05,0
2.366,3.8773e-05,0
2.3665,4.9851e-05,0
2.367,6.0929e-05,0
2.3675,6.9322e-05,0
2.368,6.5965e-05,0
2.3685,4.9515e-05,0
2.369,2.7359e-05,0
2.3695,8.896e-06,0
2.37,2.3499e-06,0
2.3705,8.392e-07,0
2.371,-8.7282e-06,0
2.3715,-2.3163e-05,0
2.372,-3.508e-05,0
2.3725,-3.9277e-05,0
2.373,-3.4073e-05,0
2.3735,-2.266e-05,0
2.374,-1.4435e-05,0
2.3745,-1.1582e-05,0
2.375,-4.8676e-06,0
2.3755,6.714e-06,0
2.376,1.8296e-05,0
2.3765,2.5681e-05,0
2.377,3.0549e-05,0
2.3775,3.7934e-05,0
2.378,4.9851e-05,0
2.3785,6.1097e-05,0
2.379,6.7979e-05,0
2.3795,7.2679e-05,0
2.38,8.1239e-05,0
2.3805,9.1814e-05,0
2.381,9.3828e-05,0
2.3815,7.9728e-05,0
2.382,5.2033e-05,0
2.3825,1.7624e-05,0
2.383,2.182e-06,0
2.3835,1.0407e-05,0
2.384,1.3596e-05,0
2.3845,1.0407e-05,0
2.385,1.4771e-05,0
2.3855,2.5009e-05,0
2.386,3.1724e-05,0
2.3865,3.2898e-05,0
2.387,3.592e-05,0
2.3875,4.2802e-05,0
2.388,4.8844e-05,0
2.3885,5.3544e-05,0
2.389,5.2872e-05,0
2.3895,3.4913e-05,0
2.39,8.5603e-06,0
2.3905,8.896e-06,0
2.391,4.1123e-05,0
2.3915,8.2414e-05,0
2.392,0.00011263,0
2.3925,0.00011766,0
2.393,8.6442e-05,0
2.3935,2.266e-05,0
2.394,-4.2634e-05,0
2.3945,-9.3324e-05,0
2.395,-0.00013931,0
2.3955,-0.00017221,0
2.396,-0.000166,0
2.3965,-0.00012203,0
2.397,-8.04e-05,0
2.3975,-6.3615e-05,0
2.398,-5.6733e-05,0
2.3985,-3.8102e-05,0
2.399,-1.2924e-05,0
2.3995,-2.6856e-06,0
2.4,-2.0981e-05,0
2.4005,-3.6423e-05,0
2.401,-1.3932e-05,0
2.4015,2.7527e-05,0
2.402,5.153e-05,0
2.4025,5.2872e-05,0
2.403,5.1865e-05,0
2.4035,6.2608e-05,0
2.404,7.6371e-05,0
2.4045,8.2918e-05,0
2.405,8.51e-05,0
2.4055,8.7114e-05,0
2.406,8.4093e-05,0
2.4065,7.7043e-05,0
2.407,7.7378e-05,0
2.4075,8.3085e-05,0
2.408,8.745e-05,0
2.4085,9.1814e-05,0
2.409,9.8192e-05,0
2.4095,9.9535e-05,0
2.41,7.805e-05,0
2.4105,3.1052e-05,0
2.411,-2.8534e-06,0
2.4115,1.8463e-05,0
2.412,7.3014e-05,0
2.4125,0.00011229,0
2.413,0.00012052,0
2.4135,8.9464e-05,0
2.414,5.304e-05,0
2.4145,5.2872e-05,0
2.415,5.9587e-05,0
2.4155,2.1149e-05,0
2.416,-5.7908e-05,0
2.4165,-0.00013613,0
2.417,-0.00018715,0
2.4175,-0.00019185,0
2.418,-0.00014133,0
2.4185,-6.9993e-05,0
2.419,-1.0239e-05,0
2.4195,2.7863e-05,0
2.42,4.2466e-05,0
2.4205,4.5151e-05,0
2.421,5.3544e-05,0
2.4215,6.0594e-05,0
2.422,5.5558e-05,0
2.4225,4.2634e-05,0
2.423,2.417e-05,0
2.4235,-2.0142e-06,0
2.424,-3.6591e-05,0
2.4245,-5.7908e-05,0
2.425,-5.0858e-05,0
2.4255,-4.5823e-05,0
2.426,-5.7237e-05,0
2.4265,-5.2369e-05,0
2.427,-2.5345e-05,0
2.4275,-1.5106e-06,0
2.428,9.5674e-06,0
2.4285,1.2085e-05,0
2.429,5.539e-06,0
2.4295,2.182e-06,0
2.43,1.4603e-05,0
2.4305,3.4745e-05,0
2.431,5.623e-05,0
2.4315,8.3757e-05,0
2.432,0.00010944,0
2.4325,0.0001227,0
2.433,0.00011783,0
2.4335,9.752e-05,0
2.434,7.57e-05,0
2.4345,6.3615e-05,0
2.435,5.0523e-05,0
2.4355,2.3667e-05,0
2.436,4.5319e-06,0
2.4365,2.1317e-05,0
2.437,5.0019e-05,0
2.4375,5.8579e-05,0
2.438,3.5248e-05,0
2.4385,1.0239e-05,0
2.439,1.9638e-05,0
2.4395,3.7598e-05,0
2.44,2.182e-06,0
2.4405,-6.5293e-05,0
2.441,-9.6849e-05,0
2.4415,-8.6107e-05,0
2.442,-6.1601e-05,0
2.4425,-3.2395e-05,0
2.443,-3.5248e-06,0
2.4435,1.9806e-05,0
2.444,4.1795e-05,0
2.4445,5.9922e-05,0
2.445,6.63e-05,0
2.4455,7.9896e-05,0
2.446,0.00011632,0
2.4465,0.00015627,0
2.447,0.00017137,0
2.4475,0.00015879,0
2.448,0.00013092,0
2.4485,9.7353e-05,0
2.449,4.3473e-05,0
2.4495,-2.6352e-05,0
2.45,-4.213e-05,0
2.4505,3.357e-06,0
2.451,4.8173e-05,0
2.4515,4.6494e-05,0
2.452,1.1414e-05,0
2.4525,-7.7211e-06,0
2.453,-1.2924e-05,0
2.4535,-6.2944e-05,0
2.454,-0.00014922,0
2.4545,-0.0002125,0
2.455,-0.0002323,0
2.4555,-0.00019705,0
2.456,-0.00011934,0
2.4565,-4.213e-05,0
2.457,4.8676e-06,0
2.4575,2.5681e-05,0
2.458,3.1052e-05,0
2.4585,3.0884e-05,0
2.459,3.592e-05,0
2.4595,4.448e-05,0
2.46,5.4887e-05,0
2.4605,6.5965e-05,0
2.461,7.335e-05,0
2.4615,7.9393e-05,0
2.462,8.3421e-05,0
2.4625,8.3421e-05,0
2.463,8.51e-05,0
2.4635,8.4932e-05,0
2.464,6.3951e-05,0
2.4645,4.0955e-05,0
2.465,4.1459e-05,0
2.4655,5.7908e-05,0
2.466,6.7475e-05,0
2.4665,4.4648e-05,0
2.467,9.7353e-06,0
2.4675,-1.5274e-05,0
2.468,-4.5655e-05,0
2.4685,-8.0232e-05,0
2.469,-0.0001039,0
2.4695,-0.00010356,0
2.47,-7.5364e-05,0
2.4705,-1.8296e-05,0
2.471,4.6159e-05,0
2.4715,8.1071e-05,0
2.472,8.9128e-05,0
2.4725,0.00010105,0
2.473,0.00011363,0
2.4735,0.00010155,0
2.474,6.1601e-05,0
2.4745,1.7288e-05,0
2.475,-1.1078e-05,0
2.4755,-2.7359e-05,0
2.476,-3.1388e-05,0
2.4765,-1.091e-05,0
2.477,9.7353e-06,0
2.4775,2.2324e-05,0
2.478,3.978e-05,0
2.4785,7.1336e-05,0
2.479,0.00012404,0
2.4795,0.00016869,0
2.48,0.00017775,0
2.4805,0.00016953,0
2.481,0.00016231,0
2.4815,0.00015694,0
2.482,0.0001425,0
2.4825,0.00010591,0
2.483,4.8173e-05,0
2.4835,-1.1078e-05,0
2.484,-3.4913e-05,0
2.4845,-2.4506e-05,0
2.485,-3.7095e-05,0
2.4855,-7.8218e-05,0
2.486,-0.00011514,0
2.4865,-0.00014368,0
2.487,-0.00016265,0
2.4875,-0.00014519,0
2.488,-8.3757e-05,0
2.4885,-2.1317e-05,0
2.489,-2.3499e-06,0
2.4895,-1.6449e-05,0
2.49,-3.1724e-05,0
2.4905,-3.1724e-05,0
2.491,-2.3331e-05,0
2.4915,-2.5681e-05,0
2.492,-3.592e-05,0
2.4925,-1.8296e-05,0
2.493,4.683e-05,0
2.4935,0.00013008,0
2.494,0.00018447,0
2.4945,0.00017842,0
2.495,0.0001331,0
2.4955,0.00010373,0
2.496,8.5771e-05,0
2.4965,3.743e-05,0
2.497,-5.6565e-05,0
2.4975,-0.00015811,0
2.498,-0.00021703,0
2.4985,-0.00021468,0
2.499,-0.00015677,0
2.4995,-6.865e-05,0
2.5,0,0
2.5005,1.5946e-05,0
2.501,1.8463e-06,0
2.5015,3.0213e-06,0
2.502,1.3932e-05,0
2.5025,2.3667e-05,0
2.503,4.6494e-05,0
2.5035,8.3589e-05,0
2.504,0.00011531,0
2.5045,0.00012538,0
2.505,0.00012001,0
2.5055,0.00010457,0
2.506,7.4357e-05,0
2.5065,4.2466e-05,0
2.507,1.8296e-05,0
2.5075,-1.1749e-06,0
2.508,-1.3596e-05,0
2.5085,-2.2156e-05,0
2.509,-2.6184e-05,0
2.5095,-9.0639e-06,0
2.51,2.4506e-05,0
2.5105,4.2802e-05,0
2.511,3.3402e-05,0
2.5115,1.0239e-05,0
2.512,1.6785e-06,0
2.5125,1.8463e-05,0
2.513,3.2059e-05,0
2.5135,2.1317e-05,0
2.514,-2.6856e-06,0
2.5145,-2.652e-05,0
2.515,-4.1123e-05,0
2.5155,-2.9374e-05,0
2.516,1.1749e-06,0
2.5165,2.9374e-05,0
2.517,4.3809e-05,0
2.5175,5.2537e-05,0
2.518,5.9251e-05,0
2.5185,6.1433e-05,0
2.519,6.2776e-05,0
2.5195,7.3182e-05,0
2.52,8.7282e-05,0
2.5205,8.9464e-05,0
2.521,8.1071e-05,0
2.5215,6.8986e-05,0
2.522,6.0929e-05,0
2.5225,5.7572e-05,0
2.523,4.8173e-05,0
2.5235,3.122e-05,0
2.524,1.5946e-05,0
2.5245,2.0813e-05,0
2.525,4.4816e-05,0
2.5255,7.0161e-05,0
2.526,7.9896e-05,0
2.5265,6.6636e-05,0
2.527,3.2898e-05,0
2.5275,1.1749e-06,0
2.528,-1.4771e-05,0
2.5285,-1.6281e-05,0
2.529,1.8463e-06,0
2.5295,2.7024e-05,0
2.53,4.7166e-05,0
2.5305,5.8579e-05,0
2.531,6.3951e-05,0
2.5315,6.0929e-05,0
2.532,3.122e-05,0
2.5325,-1.7624e-05,0
2.533,-4.3641e-05,0
2.5335,-2.7695e-05,0
2.534,-1.4603e-05,0
2.5345,-2.266e-05,0
2.535,-2.9709e-05,0
2.5355,-2.5681e-05,0
2.536,-1.2924e-05,0
2.5365,1.0575e-05,0
2.537,2.3331e-05,0
2.5375,1.9303e-05,0
2.538,2.5345e-05,0
2.5385,4.3641e-05,0
2.539,5.4551e-05,0
2.5395,4.6494e-05,0
2.54,2.9374e-05,0
2.5405,3.1388e-05,0
2.541,4.5487e-05,0
2.5415,4.9851e-05,0
2.542,3.6088e-05,0
2.5425,2.0981e-05,0
2.543,3.8102e-05,0
2.5435,8.661e-05,0
2.544,0.00013143,0
2.5445,0.00015895,0
2.545,0.00017574,0
2.5455,0.00017641,0
2.546,0.0001566,0
2.5465,0.000118,0
2.547,4.3809e-05,0
2.5475,-7.7378e-05,0
2.548,-0.00019571,0
2.5485,-0.0002417,0
2.549,-0.00020729,0
2.5495,-0.00015006,0
2.55,-0.00011766,0
2.5505,-0.00010558,0
2.551,-9.6513e-05,0
2.5515,-8.7617e-05,0
2.552,-7.9728e-05,0
2.5525,-6.3615e-05,0
2.553,-3.4577e-05,0
2.5535,-8.7282e-06,0
2.554,-8.392e-07,0
2.5545,-4.1962e-06,0
2.555,-5.539e-06,0
2.5555,-7.2175e-06,0
2.556,-1.9638e-05,0
2.5565,-2.4002e-05,0
2.557,-1.091e-05,0
2.5575,3.1891e-06,0
2.558,1.2253e-05,0
2.5585,2.4674e-05,0
2.559,4.0452e-05,0
2.5595,5.2201e-05,0
2.56,5.6565e-05,0
2.5605,5.6062e-05,0
2.561,5.5894e-05,0
2.5615,5.7572e-05,0
2.562,6.4286e-05,0
2.5625,7.3518e-05,0
2.563,7.6204e-05,0
2.5635,8.0232e-05,0
2.564,0.00010155,0
2.5645,0.00011598,0
2.565,0.00010994,0
2.5655,9.836e-05,0
2.566,8.8792e-05,0
2.5665,9.0974e-05,0
2.567,0.00010088,0
2.5675,0.00013109,0
2.568,0.00017708,0
2.5685,0.00021065,0
2.569,0.0002318,0
2.5695,0.00023062,0
2.57,0.00022072,0
2.5705,0.00024489,0
2.571,0.00024154,0
2.5715,0.00010625,0
2.572,-0.0001138,0
2.5725,-0.00027242,0
2.573,-0.00033251,0
2.5735,-0.00034711,0
2.574,-0.00034409,0
2.5745,-0.00030985,0
2.575,-0.00022995,0
2.5755,-0.0001321,0
2.576,-7.3182e-05,0
2.5765,-6.3279e-05,0
2.577,-7.0329e-05,0
2.5775,-7.0664e-05,0
2.578,-5.8244e-05,0
2.5785,-3.4409e-05,0
2.579,-8.3925e-06,0
2.5795,1.1582e-05,0
2.58,2.2324e-05,0
2.5805,2.4506e-05,0
2.581,2.2492e-05,0
2.5815,1.8967e-05,0
2.582,1.2421e-05,0
2.5825,2.8534e-06,0
2.583,-6.8818e-06,0
2.5835,-2.182e-06,0
2.584,2.031e-05,0
2.5845,4.5487e-05,0
2.585,5.9587e-05,0
2.5855,7.1e-05,0
2.586,8.9799e-05,0
2.5865,0.00010574,0
2.587,0.00010893,0
2.5875,0.0001039,0
2.588,9.9535e-05,0
2.5885,0.00011531,0
2.589,0.0001378,0
2.5895,0.00012505,0
2.59,0.00010172,0
2.5905,0.00011397,0
2.591,0.00014586,0
2.5915,0.00014586,0
2.592,0.00011162,0
2.5925,5.153e-05,0
2.593,-5.6733e-05,0
2.5935,-0.00015392,0
2.594,-0.00013713,0
2.5945,-4.1459e-05,0
2.595,2.0142e-05,0
2.5955,1.7792e-05,0
2.596,-9.0639e-06,0
2.5965,-2.6352e-05,0
2.597,-1.9135e-05,0
2.5975,2.182e-06,0
2.598,6.5461e-06,0
2.5985,-8.2246e-06,0
2.599,-2.6017e-05,0
2.5995,-2.3499e-05,0
2.6,-1.8463e-06,0
2.6005,1.5106e-05,0
2.601,1.0575e-05,0
2.6015,-8.2246e-06,0
2.602,-3.4073e-05,0
2.6025,-4.7501e-05,0
2.603,-2.6352e-05,0
2.6035,2.2324e-05,0
2.604,6.4958e-05,0
2.6045,8.4428e-05,0
2.605,8.9632e-05,0
2.6055,9.6513e-05,0
2.606,0.00011632,0
2.6065,0.00014888,0
2.607,0.00018581,0
2.6075,0.00021871,0
2.608,0.0002323,0
2.6085,0.00021535,0
2.609,0.00018212,0
2.6095,0.00012824,0
2.61,3.3738e-05,0
2.6105,-5.388e-05,0
2.611,-0.0001138,0
2.6115,-0.00016147,0
2.612,-0.00019084,0
2.6125,-0.00018631,0
2.613,-0.00014166,0
2.6135,-7.5364e-05,0
2.614,-2.3499e-05,0
2.6145,-1.2253e-05,0
2.615,-4.5991e-05,0
2.6155,-8.6442e-05,0
2.616,-9.4163e-05,0
2.6165,-7.2511e-05,0
2.617,-5.2872e-05,0
2.6175,-3.508e-05,0
2.618,-1.1749e-06,0
2.6185,3.2898e-05,0
2.619,4.8173e-05,0
2.6195,4.8173e-05,0
2.62,3.2059e-05,0
2.6205,-7.7211e-06,0
2.621,-3.1388e-05,0
2.6215,-2.6352e-05,0
2.622,-1.3596e-05,0
2.6225,-4.0284e-06,0
2.623,6.2104e-06,0
2.6235,2.6017e-05,0
2.624,5.9922e-05,0
2.6245,8.6442e-05,0
2.625,0.00010054,0
2.6255,0.00012337,0
2.626,0.00015862,0
2.6265,0.00019118,0
2.627,0.0002036,0
2.6275,0.00016164,0
2.628,7.9057e-05,0
2.6285,7.2175e-06,0
2.629,-4.2466e-05,0
2.6295,-6.2944e-05,0
2.63,-4.448e-05,0
2.6305,-1.7624e-05,0
2.631,-8.392e-07,0
2.6315,3.6927e-06,0
2.632,7.0497e-06,0
2.6325,2.5681e-05,0
2.633,4.7837e-05,0
2.6335,5.0187e-05,0
2.634,9.5674e-06,0
2.6345,-5.8747e-05,0
2.635,-8.2414e-05,0
2.6355,-2.4338e-05,0
2.636,4.8173e-05,0
2.6365,5.7908e-05,0
2.637,3.1891e-05,0
2.6375,1.7288e-05,0
2.638,2.6017e-05,0
2.6385,4.6662e-05,0
2.639,4.8173e-05,0
2.6395,2.6352e-05,0
2.64,-7.3854e-06,0
2.6405,-2.7359e-05,0
2.641,-1.6449e-05,0
2.6415,3.6927e-06,0
2.642,3.8605e-06,0
2.6425,-2.1988e-05,0
2.643,-2.3667e-05,0
2.6435,2.7527e-05,0
2.644,9.2317e-05,0
2.6445,0.00010776,0
2.645,6.3951e-05,0
2.6455,3.6759e-05,0
2.646,3.4745e-05,0
2.6465,8.5603e-06,0
2.647,-1.5274e-05,0
2.6475,9.7353e-06,0
2.648,6.1601e-05,0
2.6485,9.3828e-05,0
2.649,9.0806e-05,0
2.6495,7.57e-05,0
2.65,5.1194e-05,0
2.6505,7.7211e-06,0
2.651,-4.8676e-06,0
2.6515,3.7934e-05,0
2.652,7.0329e-05,0
2.6525,6.2272e-05,0
2.653,2.8031e-05,0
2.6535,-4.8508e-05,0
2.654,-0.00013495,0
2.6545,-0.000166,0
2.655,-0.00016399,0
2.6555,-0.00015459,0
2.656,-0.00011548,0
2.6565,-4.8508e-05,0
2.657,4.8676e-06,0
2.6575,3.0045e-05,0
2.658,4.8844e-05,0
2.6585,8.1239e-05,0
2.659,0.0001237,0
2.6595,0.00017037,0
2.66,0.00022039,0
2.6605,0.00025698,0
2.661,0.00025899,0
2.6615,0.00022794,0
2.662,0.00017507,0
2.6625,0.00011582,0
2.663,6.3279e-05,0
2.6635,8.0568e-06,0
2.664,-7.3686e-05,0
2.6645,-0.00017003,0
2.665,-0.00019269,0
2.6655,-0.00011733,0
2.666,-4.7837e-05,0
2.6665,-2.6688e-05,0
2.667,4.8676e-06,0
2.6675,7.1168e-05,0
2.668,0.00015358,0
2.6685,0.00019789,0
2.669,0.00014083,0
2.6695,8.896e-06,0
2.67,-7.4021e-05,0
2.6705,-4.7837e-05,0
2.671,-4.5319e-06,0
2.6715,-4.1795e-05,0
2.672,-0.00012773,0
2.6725,-0.00019353,0
2.673,-0.0002412,0
2.6735,-0.00026017,0
2.674,-0.000213,0
2.6745,-0.00012438,0
2.675,-5.1362e-05,0
2.6755,-1.561e-05,0
2.676,5.0355e-06,0
2.6765,3.1724e-05,0
2.677,6.009e-05,0
2.6775,7.5364e-05,0
2.678,7.335e-05,0
2.6785,7.5029e-05,0
2.679,0.00010642,0
2.6795,0.00014821,0
2.68,0.00016617,0
2.6805,0.00015006,0
2.681,0.00010239,0
2.6815,6.8315e-05,0
2.682,7.4357e-05,0
2.6825,7.7714e-05,0
2.683,6.0929e-05,0
2.6835,4.1123e-05,0
2.684,6.3783e-06,0
2.6845,-3.6591e-05,0
2.685,-2.5513e-05,0
2.6855,4.8173e-05,0
2.686,0.00011464,0
2.6865,0.000118,0
2.687,5.069e-05,0
2.6875,-6.8315e-05,0
2.688,-0.00014855,0
2.6885,-0.00015291,0
2.689,-0.00012236,0
2.6895,-9.7688e-05,0
2.69,-8.745e-05,0
2.6905,-6.6636e-05,0
2.691,-2.1988e-05,0
2.6915,2.9206e-05,0
2.692,7.9057e-05,0
2.6925,0.00012152,0
2.693,0.00014183,0
2.6935,0.00013143,0
2.694,8.1407e-05,0
2.6945,-1.6449e-05,0
2.695,-0.00010356,0
2.6955,-0.00010558,0
2.696,-2.9877e-05,0
2.6965,3.2731e-05,0
2.697,1.947e-05,0
2.6975,-2.3163e-05,0
2.698,-1.9303e-05,0
2.6985,3.3402e-05,0
2.699,7.6036e-05,0
2.6995,8.896e-05,0
2.7,0.00010155,0
2.7005,0.00012169,0
2.701,0.00013881,0
2.7015,0.00015056,0
2.702,0.00016818,0
2.7025,0.00019051,0
2.703,0.00019051,0
2.7035,0.00013176,0
2.704,4.3305e-05,0
2.7045,2.8534e-05,0
2.705,0.00011951,0
2.7055,0.00019051,0
2.706,0.00012404,0
2.7065,-2.5009e-05,0
2.707,-0.00012387,0
2.7075,-0.0001279,0
2.708,-8.5939e-05,0
2.7085,-5.4887e-05,0
2.709,-6.865e-05,0
2.7095,-0.00012689,0
2.71,-0.0002088,0
2.7105,-0.00022072,0
2.711,-0.00012136,0
2.7115,-8.392e-07,0
2.712,5.0187e-05,0
2.7125,4.448e-05,0
2.713,3.2731e-05,0
2.7135,4.918e-05,0
2.714,8.5771e-05,0
2.7145,0.00010893,0
2.715,0.00011044,0
2.7155,9.1478e-05,0
2.716,5.7572e-05,0
2.7165,1.5442e-05,0
2.717,-2.7024e-05,0
2.7175,-4.0787e-05,0
2.718,-2.4338e-05,0
2.7185,-7.0497e-06,0
2.719,3.8605e-06,0
2.7195,1.8296e-05,0
2.72,3.7934e-05,0
2.7205,5.4551e-05,0
2.721,5.9587e-05,0
2.7215,5.539e-05,0
2.722,5.7908e-05,0
2.7225,7.7378e-05,0
2.723,0.00010826,0
2.7235,0.0001321,0
2.724,0.00014385,0
2.7245,0.0001331,0
2.725,9.3492e-05,0
2.7255,7.2343e-05,0
2.726,8.8121e-05,0
2.7265,8.426e-05,0
2.727,1.091e-05,0
2.7275,-0.0001284,0
2.728,-0.00029844,0
2.7285,-0.0003921,0
2.729,-0.00031958,0
2.7295,-0.0001561,0
2.73,-4.5151e-05,0
2.7305,-3.8102e-05,0
2.731,-8.3253e-05,0
2.7315,-8.2582e-05,0
2.732,-1.9638e-05,0
2.7325,3.4745e-05,0
2.733,4.4144e-05,0
2.7335,4.2802e-05,0
2.734,5.9587e-05,0
2.7345,8.51e-05,0
2.735,0.00010407,0
2.7355,0.000118,0
2.736,0.00012807,0
2.7365,0.00014351,0
2.737,0.00016701,0
2.7375,0.00016584,0
2.738,0.00013411,0
2.7385,0.000118,0
2.739,0.00012538,0
2.7395,0.00013848,0
2.74,0.00016181,0
2.7405,0.00018094,0
2.741,0.00017624,0
2.7415,0.00011061,0
2.742,4.0116e-05,0
2.7425,1.678e-07,0
2.743,-7.2679e-05,0
2.7435,-0.0001467,0
2.744,-0.00011749,0
2.7445,-3.3066e-05,0
2.745,-3.8605e-06,0
2.7455,-4.1459e-05,0
2.746,-8.9128e-05,0
2.7465,-0.00013109,0
2.747,-0.00018749,0
2.7475,-0.00022744,0
2.748,-0.00020847,0
2.7485,-0.00015073,0
2.749,-9.2821e-05,0
2.7495,-5.4551e-05,0
2.75,-4.3137e-05,0
2.7505,-5.2369e-05,0
2.751,-5.5894e-05,0
2.7515,-4.8173e-05,0
2.752,-2.1988e-05,0
2.7525,2.2995e-05,0
2.753,6.2104e-05,0
2.7535,8.275e-05,0
2.754,9.0303e-05,0
2.7545,9.1478e-05,0
2.755,8.9464e-05,0
2.7555,8.3421e-05,0
2.756,7.0329e-05,0
2.7565,6.4286e-05,0
2.757,7.5029e-05,0
2.7575,0.00010256,0
2.758,0.00015258,0
2.7585,0.00020998,0
2.759,0.00025228,0
2.7595,0.00027242,0
2.76,0.00028652,0
2.7605,0.00029961,0
2.761,0.00029256,0
2.7615,0.00024422,0
2.762,0.00014788,0
2.7625,-1.8463e-06,0
2.763,-0.00015425,0
2.7635,-0.00024221,0
2.764,-0.00024388,0
2.7645,-0.00020662,0
2.765,-0.00018379,0
2.7655,-0.00013982,0
2.766,-3.0549e-05,0
2.7665,7.6204e-05,0
2.767,8.4764e-05,0
2.7675,-1.0407e-05,0
2.768,-0.00010726,0
2.7685,-0.00010961,0
2.769,-5.8244e-05,0
2.7695,-1.9806e-05,0
2.77,1.6953e-05,0
2.7705,5.623e-05,0
2.771,7.1e-05,0
2.7715,7.1672e-05,0
2.772,6.1936e-05,0
2.7725,3.0549e-05,0
2.773,-3.5752e-05,0
2.7735,-0.00011347,0
2.774,-0.00013864,0
2.7745,-0.00010574,0
2.775,-5.774e-05,0
2.7755,-1.9974e-05,0
2.776,8.5603e-06,0
2.7765,2.9877e-05,0
2.777,4.5823e-05,0
2.7775,5.9922e-05,0
2.778,7.3014e-05,0
2.7785,8.2582e-05,0
2.779,8.5603e-05,0
2.7795,8.4764e-05,0
2.78,7.956e-05,0
2.7805,7.3014e-05,0
2.781,6.6636e-05,0
2.7815,5.1194e-05,0
2.782,3.0045e-05,0
2.7825,2.4002e-05,0
2.783,3.3906e-05,0
2.7835,3.9948e-05,0
2.784,3.5416e-05,0
2.7845,2.6017e-05,0
2.785,2.1317e-05,0
2.7855,2.3835e-05,0
2.786,1.7121e-05,0
2.7865,-4.8676e-06,0
2.787,-1.1917e-05,0
2.7875,-1.5106e-06,0
2.788,-9.9031e-06,0
2.7885,-1.7792e-05,0
2.789,3.0381e-05,0
2.7895,0.00014217,0
2.79,0.00024036,0
2.7905,0.00026033,0
2.791,0.0002694,0
2.7915,0.00031707,0
2.792,0.000355,0
2.7925,0.00033184,0
2.793,0.00022676,0
2.7935,3.3906e-05,0
2.794,-0.00021065,0
2.7945,-0.00037749,0
2.795,-0.00036826,0
2.7955,-0.00025597,0
2.796,-0.00015593,0
2.7965,-8.745e-05,0
2.797,-5.3208e-05,0
2.7975,-6.6636e-05,0
2.798,-0.00011145,0
2.7985,-0.0001613,0
2.799,-0.00018967,0
2.7995,-0.00019001,0
2.8,-0.00015744,0
2.8005,-9.3828e-05,0
2.801,-2.2995e-05,0
2.8015,3.9445e-05,0
2.802,8.5771e-05,0
2.8025,0.0001185,0
2.803,0.00013529,0
2.8035,0.00012219,0
2.804,8.0064e-05,0
2.8045,3.7262e-05,0
2.805,1.326e-05,0
2.8055,1.1749e-05,0
2.806,3.7766e-05,0
2.8065,5.8915e-05,0
2.807,4.3473e-05,0
2.8075,1.2589e-05,0
2.808,1.5946e-05,0
2.8085,7.4357e-05,0
2.809,0.00012119,0
2.8095,0.00013008,0
2.81,0.00012236,0
2.8105,6.6972e-05,0
2.811,-3.4073e-05,0
2.8115,-0.0001368,0
2.812,-0.00021384,0
2.8125,-0.00022106,0
2.813,-0.00015996,0
2.8135,-8.0735e-05,0
2.814,-2.8031e-05,0
2.8145,-1.0239e-05,0
2.815,-7.5532e-06,0
2.8155,2.3499e-06,0
2.816,1.6617e-05,0
2.8165,2.8534e-05,0
2.817,4.0116e-05,0
2.8175,5.8244e-05,0
2.818,7.9057e-05,0
2.8185,9.4331e-05,0
2.819,0.00010675,0
2.8195,0.00012387,0
2.82,0.0001556,0
2.8205,0.00021334,0
2.821,0.00027897,0
2.8215,0.00031455,0
2.822,0.00031035,0
2.8225,0.00028518,0
2.823,0.00023516,0
2.8235,0.00015341,0
2.824,6.1097e-05,0
2.8245,-3.9109e-05,0
2.825,-0.0001326,0
2.8255,-0.00019219,0
2.826,-0.00013529,0
2.8265,1.1917e-05,0
2.827,9.0471e-05,0
2.8275,3.4577e-05,0
2.828,-5.1698e-05,0
2.8285,-9.5842e-05,0
2.829,-0.00010272,0
2.8295,-0.00010893,0
2.83,-0.00015862,0
2.8305,-0.00016869,0
2.831,-8.1575e-05,0
2.8315,8.5603e-06,0
2.832,1.9974e-05,0
2.8325,-2.6688e-05,0
2.833,-4.8844e-05,0
2.8335,-3.508e-05,0
2.834,-4.0452e-05,0
2.8345,-8.2078e-05,0
2.835,-0.00011968,0
2.8355,-0.00012203,0
2.836,-9.1478e-05,0
2.8365,-5.2537e-05,0
2.837,-4.5151e-05,0
2.8375,-2.6352e-05,0
2.838,3.8102e-05,0
2.8385,9.5674e-05,0
2.839,0.00013948,0
2.8395,0.00019554,0
2.84,0.00023751,0
2.8405,0.00026957,0
2.841,0.00029357,0
2.8415,0.00026134,0
2.842,0.00015862,0
2.8425,7.7546e-05,0
2.843,0.00012908,0
2.8435,0.0002412,0
2.844,0.00025832,0
2.8445,0.00019689,0
2.845,0.00015157,0
2.8455,9.1142e-05,0
2.846,-2.5177e-06,0
2.8465,-5.7908e-05,0
2.847,-6.4286e-05,0
2.8475,-6.6804e-05,0
2.848,-7.3014e-05,0
2.8485,-8.9799e-05,0
2.849,-0.00019487,0
2.8495,-0.00037581,0
2.85,-0.00046041,0
2.8505,-0.00037917,0
2.851,-0.00016449,0
2.8515,0.00010172,0
2.852,0.0002882,0
2.8525,0.00033939,0
2.853,0.00029088,0
2.8535,0.000237,0
2.854,0.00017842,0
2.8545,1.1749e-05,0
2.855,-0.00021669,0
2.8555,-0.00041962,0
2.856,-0.00053091,0
2.8565,-0.00046981,0
2.857,-0.00030582,0
2.8575,-0.0001744,0
2.858,-0.00010155,0
2.8585,-5.7237e-05,0
2.859,-2.7024e-05,0
2.8595,-7.8889e-06,0
2.86,5.035e-07,0
2.8605,1.8128e-05,0
2.861,5.8076e-05,0
2.8615,0.0001039,0
2.862,0.00014267,0
2.8625,0.00018581,0
2.863,0.00025899,0
2.8635,0.00036239,0
2.864,0.00046511,0
2.8645,0.00053896,0
2.865,0.00054131,0
2.8655,0.00047082,0
2.866,0.00040133,0
2.8665,0.00036037,0
2.867,0.00031724,0
2.8675,0.00026134,0
2.868,0.00015879,0
2.8685,-2.5345e-05,0
2.869,-0.0003164,0
2.8695,-0.00057539,0
2.87,-0.00062524,0
2.8705,-0.00048139,0
2.871,-0.00032563,0
2.8715,-0.00025144,0
2.872,-0.00021233,0
2.8725,-0.00018027,0
2.873,-0.00017205,0
2.8735,-0.00019017,0
2.874,-0.00020041,0
2.8745,-0.00016365,0
2.875,-9.752e-05,0
2.8755,-4.3137e-05,0
2.876,-3.6927e-06,0
2.8765,3.2059e-05,0
2.877,5.7908e-05,0
2.8775,7.4525e-05,0
2.878,8.3589e-05,0
2.8785,8.8792e-05,0
2.879,0.00011112,0
2.8795,0.0001556,0
2.88,0.00017809,0
2.8805,0.00017675,0
2.881,0.00021938,0
2.8815,0.00030716,0
2.882,0.00038354,0
2.8825,0.00041962,0
2.883,0.0004067,0
2.8835,0.00039126,0
2.884,0.00037346,0
2.8845,0.0003023,0
2.885,0.00020125,0
2.8855,9.3828e-05,0
2.886,-2.031e-05,0
2.8865,-0.00012639,0
2.887,-0.00020662,0
2.8875,-0.00030582,0
2.888,-0.00044245,0
2.8885,-0.00050657,0
2.889,-0.00042818,0
2.8895,-0.00028333,0
2.89,-0.00016634,0
2.8905,-9.3492e-05,0
2.891,-4.918e-05,0
2.8915,-2.6184e-05,0
2.892,-1.5274e-05,0
2.8925,-4.5319e-06,0
2.893,7.8889e-06,0
2.8935,1.326e-05,0
2.894,8.2246e-06,0
2.8945,3.8605e-06,0
2.895,1.4771e-05,0
2.8955,3.743e-05,0
2.896,6.2608e-05,0
2.8965,7.3182e-05,0
2.897,2.7695e-05,0
2.8975,-1.7792e-05,0
2.898,2.9038e-05,0
2.8985,0.0001368,0
2.899,0.00022324,0
2.8995,0.00025765,0
2.9,0.00025093,0
2.9005,0.00018312,0
2.901,7.1336e-05,0
2.9015,-9.5674e-06,0
2.902,-1.7624e-05,0
2.9025,1.1582e-05,0
2.903,2.1317e-05,0
2.9035,-9.9031e-06,0
2.904,-7.2175e-05,0
2.9045,-0.00011498,0
2.905,-0.00010524,0
2.9055,-4.7837e-05,0
2.906,3.0381e-05,0
2.9065,9.7856e-05,0
2.907,0.00015526,0
2.9075,0.00020394,0
2.908,0.00020058,0
2.9085,0.00013008,0
2.909,4.213e-05,0
2.9095,-5.4048e-05,0
2.91,-0.00013512,0
2.9105,-0.00016432,0
2.911,-0.00014737,0
2.9115,-0.00012169,0
2.912,-7.9393e-05,0
2.9125,-1.0575e-05,0
2.913,4.2466e-05,0
2.9135,5.2705e-05,0
2.914,3.0549e-05,0
2.9145,-5.539e-06,0
2.915,-3.5752e-05,0
2.9155,-6.1433e-05,0
2.916,-3.6423e-05,0
2.9165,5.1865e-05,0
2.917,0.00014888,0
2.9175,0.00022609,0
2.918,0.00029374,0
2.9185,0.00035299,0
2.919,0.00039059,0
2.9195,0.00038756,0
2.92,0.00035601,0
2.9205,0.00032277,0
2.921,0.00027074,0
2.9215,0.00018044,0
2.922,6.1601e-05,0
2.9225,-5.9083e-05,0
2.923,-0.00013378,0
2.9235,-0.00018447,0
2.924,-0.00021686,0
2.9245,-0.00023801,0
2.925,-0.00024154,0
2.9255,-0.00019823,0
2.926,-0.00011347,0
2.9265,-2.887e-05,0
2.927,-1.1078e-05,0
2.9275,-7.6875e-05,0
2.928,-0.00018044,0
2.9285,-0.00026184,0
2.929,-0.0002793,0
2.9295,-0.00024926,0
2.93,-0.00022844,0
2.9305,-0.00023935,0
2.931,-0.00023432,0
2.9315,-0.00018296,0
2.932,-0.00011632,0
2.9325,-7.1e-05,0
2.933,-3.9612e-05,0
2.9335,-5.8747e-06,0
2.934,2.8031e-05,0
2.9345,6.3951e-05,0
2.935,0.00010188,0
2.9355,0.00015392,0
2.936,0.00022744,0
2.9365,0.0002845,0
2.937,0.0002986,0
2.9375,0.00027376,0
2.938,0.00023432,0
2.9385,0.00018715,0
2.939,0.00010222,0
2.9395,2.3667e-05,0
2.94,3.7934e-05,0
2.9405,0.00010423,0
2.941,0.00021904,0
2.9415,0.00033956,0
2.942,0.00039931,0
2.9425,0.00040871,0
2.943,0.00037028,0
2.9435,0.00022811,0
2.944,-8.2246e-06,0
2.9445,-0.00022106,0
2.945,-0.00033519,0
2.9455,-0.00042147,0
2.946,-0.00047468,0
2.9465,-0.00037363,0
2.947,-0.00015325,0
2.9475,1.0071e-06,0
2.948,2.7024e-05,0
2.9485,-2.5849e-05,0
2.949,-9.1142e-05,0
2.9495,-0.00011833,0
2.95,-0.0001034,0
2.9505,-2.9709e-05,0
2.951,6.2944e-05,0
2.9515,9.7856e-05,0
2.952,7.0161e-05,0
2.9525,4.0955e-05,0
2.953,4.0787e-05,0
2.9535,4.0619e-05,0
2.954,-2.1653e-05,0
2.9545,-0.0001415,0
2.955,-0.00021569,0
2.9555,-0.00017607,0
2.956,-6.3615e-05,0
2.9565,3.3738e-05,0
2.957,9.3828e-05,0
2.9575,0.00012471,0
2.958,0.0001326,0
2.9585,0.00012992,0
2.959,0.00012169,0
2.9595,0.00011749,0
2.96,0.0001138,0
2.9605,7.2343e-05,0
2.961,7.2679e-05,0
2.9615,0.00025631,0
2.962,0.00052016,0
2.9625,0.00064437,0
2.963,0.0005957,0
2.9635,0.00049667,0
2.964,0.00036088,0
2.9645,0.00011934,0
2.965,-0.00011028,0
2.9655,-0.00022777,0
2.966,-0.00034577,0
2.9665,-0.00049801,0
2.967,-0.00053964,0
2.9675,-0.0004208,0
2.968,-0.00024204,0
2.9685,-0.00010675,0
2.969,-4.9851e-05,0
2.9695,-4.0116e-05,0
2.97,-4.213e-05,0
2.9705,-5.1194e-05,0
2.971,-7.2679e-05,0
2.9715,-0.00010675,0
2.972,-0.00014385,0
2.9725,-0.00015979,0
2.973,-0.00014217,0
2.9735,-0.0001044,0
2.974,-7.2679e-05,0
2.9745,-5.1194e-05,0
2.975,-3.0381e-05,0
2.9755,-7.0497e-06,0
2.976,1.1917e-05,0
2.9765,2.4674e-05,0
2.977,3.743e-05,0
2.9775,5.2033e-05,0
2.978,6.6804e-05,0
2.9785,8.3589e-05,0
2.979,0.00010323,0
2.9795,0.00012605,0
2.98,0.00015325,0
2.9805,0.00017809,0
2.981,0.00018984,0
2.9815,0.0001937,0
2.982,0.00020478,0
2.9825,0.0002219,0
2.983,0.00021871,0
2.9835,0.00017893,0
2.984,0.0001237,0
2.9845,8.5435e-05,0
2.985,7.1336e-05,0
2.9855,5.4215e-05,0
2.986,2.3499e-05,0
2.9865,-9.9031e-06,0
2.987,-3.2395e-05,0
2.9875,-4.2802e-05,0
2.988,-4.0452e-05,0
2.9885,-1.8463e-06,0
2.989,4.2802e-05,0
2.9895,6.1936e-05,0
2.99,2.6352e-05,0
2.9905,-0.00011531,0
2.991,-0.00027427,0
2.9915,-0.000284,0
2.992,-0.00015845,0
2.9925,-4.0116e-05,0
2.993,-4.3641e-06,0
2.9935,-1.8967e-05,0
2.994,-2.2995e-05,0
2.9945,-2.5177e-06,0
2.995,2.9206e-05,0
2.9955,5.5055e-05,0
2.996,6.2272e-05,0
2.9965,5.2537e-05,0
2.997,4.7669e-05,0
2.9975,5.3376e-05,0
2.998,6.1601e-05,0
2.9985,8.04e-05,0
2.999,0.000118,0
2.9995,0.00019084,0
3,0.00028501,0
3.0005,0.00035366,0
3.001,0.00037044,0
3.0015,0.00033335,0
3.002,0.00023163,0
3.0025,7.4357e-05,0
3.003,-0.00010591,0
3.0035,-0.0002553,0
3.004,-0.00032798,0
3.0045,-0.00027561,0
3.005,-0.00012773,0
3.0055,-2.1653e-05,0
3.006,-8.2246e-06,0
3.0065,-2.7527e-05,0
3.007,-3.4409e-05,0
3.0075,-3.4745e-05,0
3.008,-3.1724e-05,0
3.0085,-1.1246e-05,0
3.009,1.8631e-05,0
3.0095,2.3835e-05,0
3.01,2.9038e-05,0
3.0105,0.00010642,0
3.011,0.00027208,0
3.0115,0.0004025,0
3.012,0.00037044,0
3.0125,0.00019773,0
3.013,-7.956e-05,0
3.0135,-0.0003117,0
3.014,-0.00039042,0
3.0145,-0.00037179,0
3.015,-0.00033184,0
3.0155,-0.00026017,0
3.016,-0.00016886,0
3.0165,-9.0639e-05,0
3.017,-3.2563e-05,0
3.0175,8.3925e-06,0
3.018,3.4913e-05,0
3.0185,4.683e-05,0
3.019,5.7908e-05,0
3.0195,8.04e-05,0
3.02,0.00010893,0
3.0205,0.0001415,0
3.021,0.00019269,0
3.0215,0.00024422,0
3.022,0.00026638,0
3.0225,0.0002882,0
3.023,0.00029172,0
3.0235,0.00026839,0
3.024,0.00034762,0
3.0245,0.00050271,0
3.025,0.00057707,0
3.0255,0.00057455,0
3.026,0.00057388,0
3.0265,0.00050304,0
3.027,0.00028417,0
3.0275,-3.0381e-05,0
3.028,-0.00036255,0
3.0285,-0.00060829,0
3.029,-0.00067878,0
3.0295,-0.00059351,0
3.03,-0.00048525,0
3.0305,-0.00036172,0
3.031,-0.00024775,0
3.0315,-0.00020763,0
3.032,-0.00028417,0
3.0325,-0.00047871,0
3.033,-0.00063783,0
3.0335,-0.00060761,0
3.034,-0.00042264,0
3.0345,-0.00024657,0
3.035,-0.00017255,0
3.0355,-0.00016332,0
3.036,-0.00015627,0
3.0365,-0.0001185,0
3.037,-5.6565e-05,0
3.0375,-2.182e-06,0
3.038,2.9374e-05,0
3.0385,5.153e-05,0
3.039,7.7043e-05,0
3.0395,0.00010558,0
3.04,0.00013277,0
3.0405,0.00015543,0
3.041,0.00017507,0
3.0415,0.0001942,0
3.042,0.00022643,0
3.0425,0.00029256,0
3.043,0.00038387,0
3.0435,0.00045756,0
3.044,0.00049129,0
3.0445,0.00049532,0
3.045,0.00047518,0
3.0455,0.00038454,0
3.046,0.0001707,0
3.0465,-0.00014754,0
3.047,-0.00034795,0
3.0475,-0.00024472,0
3.048,-1.1246e-05,0
3.0485,0.0001039,0
3.049,7.7714e-05,0
3.0495,-4.3641e-06,0
3.05,-9.5506e-05,0
3.0505,-0.000166,0
3.051,-0.00017205,0
3.0515,-0.00011833,0
3.052,-4.9012e-05,0
3.0525,1.8463e-06,0
3.053,2.5849e-05,0
3.0535,3.0381e-05,0
3.054,3.0716e-05,0
3.0545,4.1291e-05,0
3.055,6.3279e-05,0
3.0555,8.6107e-05,0
3.056,0.0001034,0
3.0565,0.00011666,0
3.057,0.00011934,0
3.0575,0.00010356,0
3.058,7.0832e-05,0
3.0585,5.7572e-05,0
3.059,0.00010927,0
3.0595,0.00019806,0
3.06,0.00028283,0
3.0605,0.00034896,0
3.061,0.00037212,0
3.0615,0.00035332,0
3.062,0.0003211,0
3.0625,0.00024959,0
3.063,0.00010507,0
3.0635,1.3596e-05,0
3.064,4.6662e-05,0
3.0645,8.1071e-05,0
3.065,4.6159e-05,0
3.0655,-1.1582e-05,0
3.066,-4.8005e-05,0
3.0665,-8.9967e-05,0
3.067,-0.00015526,0
3.0675,-0.00019051,0
3.068,-0.00013999,0
3.0685,-8.5603e-05,0
3.069,-0.00011246,0
3.0695,-0.00017691,0
3.07,-0.00020427,0
3.0705,-0.00019974,0
3.071,-0.00020595,0
3.0715,-0.00023365,0
3.072,-0.00024154,0
3.0725,-0.00019437,0
3.073,-0.00013411,0
3.0735,-0.00010759,0
3.074,-3.0716e-05,0
3.0745,0.00011766,0
3.075,0.00020897,0
3.0755,0.00018648,0
3.076,0.00019017,0
3.0765,0.00033939,0
3.077,0.00051546,0
3.0775,0.00056851,0
3.078,0.00048995,0
3.0785,0.00037044,0
3.079,0.00028014,0
3.0795,2.7024e-05,0
3.08,-0.00043137,0
3.0805,-0.00079023,0
3.081,-0.00092284,0
3.0815,-0.00083757,0
3.082,-0.00058982,0
3.0825,-0.00036323,0
3.083,-0.00025715,0
3.0835,-0.00021904,0
3.084,-0.00018161,0
3.0845,-0.00012975,0
3.085,-7.7378e-05,0
3.0855,-4.0619e-05,0
3.086,-2.2492e-05,0
3.0865,-2.182e-06,0
3.087,3.1388e-05,0
3.0875,6.3447e-05,0
3.088,8.3757e-05,0
3.0885,9.5003e-05,0
3.089,0.00010289,0
3.0895,0.00010188,0
3.09,9.5003e-05,0
3.0905,0.00010927,0
3.091,0.00014351,0
3.0915,0.00016802,0
3.092,0.00018212,0
3.0925,0.00020931,0
3.093,0.00024741,0
3.0935,0.0002788,0
3.094,0.00030146,0
3.0945,0.00032848,0
3.095,0.00035618,0
3.0955,0.00036692,0
3.096,0.00034745,0
3.0965,0.00029827,0
3.097,0.00022274,0
3.0975,0.0001425,0
3.098,7.2007e-05,0
3.0985,6.5461e-06,0
3.099,-7.8889e-05,0
3.0995,-0.00014385,0
3.1,-0.00011901,0
3.1005,1.6785e-06,0
