0,0,0
0.0005,0,0
0.001,0,0
0.0015,0,0
0.002,0,0
0.0025,0,0
0.003,0,0
0.0035,0,0
0.004,0,0
0.0045,0,0
0.005,0,0
0.0055,0,0
0.006,0,0
0.0065,0,0
0.007,0,0
0.0075,0,0
0.008,0,0
0.0085,0,0
0.009,0,0
0.0095,0,0
0.01,0,0
0.0105,0,0
0.011,0,0
0.0115,0,0
0.012,0,0
0.0125,0,0
0.013,0,0
0.0135,0,0
0.014,0,0
0.0145,0,0
0.015,0,0
0.0155,0,0
0.016,0,0
0.0165,0,0
0.017,0,0
0.0175,0,0
0.018,0,0
0.0185,0,0
0.019,0,0
0.0195,0,0
0.02,0,0
0.0205,0,0
0.021,0,0
0.0215,0,0
0.022,0,0
0.0225,0,0
0.023,0,0
0.0235,0,0
0.024,0,0
0.0245,0,0
0.025,0,0
0.0255,0,0
0.026,1.2589e-05,0
0.0265,3.357e-06,0
0.027,-4.8676e-06,0
0.0275,-8.3925e-06,0
0.028,-1.2421e-05,0
0.0285,-1.4939e-05,0
0.029,-8.5603e-06,0
0.0295,2.5177e-06,0
0.03,2.182e-06,0
0.0305,-5.8747e-06,0
0.031,-6.3783e-06,0
0.0315,4.0284e-06,0
0.032,2.1988e-05,0
0.0325,4.1123e-05,0
0.033,6.0258e-05,0
0.0335,8.1407e-05,0
0.034,9.4331e-05,0
0.0345,8.6275e-05,0
0.035,6.9657e-05,0
0.0355,6.3447e-05,0
0.036,6.7643e-05,0
0.0365,6.949e-05,0
0.037,6.6972e-05,0
0.0375,5.7069e-05,0
0.038,3.9612e-05,0
0.0385,1.6953e-05,0
0.039,-1.796e-05,0
0.0395,-6.0594e-05,0
0.04,-9.0135e-05,0
0.0405,-9.1814e-05,0
0.041,-5.9754e-05,0
0.0415,-1.1078e-05,0
0.042,1.9974e-05,0
0.0425,3.0381e-05,0
0.043,3.1891e-05,0
0.0435,2.8367e-05,0
0.044,1.4435e-05,0
0.0445,-4.1962e-06,0
0.045,-1.796e-05,0
0.0455,-2.7024e-05,0
0.046,-3.9277e-05,0
0.0465,-6.0258e-05,0
0.047,-7.956e-05,0
0.0475,-8.04e-05,0
0.048,-5.6397e-05,0
0.0485,-1.8967e-05,0
0.049,1.6449e-05,0
0.0495,3.7766e-05,0
0.05,4.8173e-05,0
0.0505,5.9587e-05,0
0.051,7.4357e-05,0
0.0515,8.7114e-05,0
0.052,9.3828e-05,0
0.0525,8.6778e-05,0
0.053,6.3951e-05,0
0.0535,3.8102e-05,0
0.054,2.4674e-05,0
0.0545,3.2395e-05,0
0.055,4.7501e-05,0
0.0555,5.3376e-05,0
0.056,5.3544e-05,0
0.0565,5.2705e-05,0
0.057,5.2033e-05,0
0.0575,5.9922e-05,0
0.058,7.5532e-05,0
0.0585,8.4932e-05,0
0.059,7.6875e-05,0
0.0595,5.388e-05,0
0.06,2.7192e-05,0
0.0605,4.6998e-06,0
0.061,-9.5674e-06,0
0.0615,-1.7456e-05,0
0.062,-1.8631e-05,0
0.0625,-1.8631e-05,0
0.063,-2.2828e-05,0
0.0635,-3.0549e-05,0
0.064,-3.5416e-05,0
0.0645,-3.6088e-05,0
0.065,-3.4577e-05,0
0.0655,-3.4073e-05,0
0.066,-3.3738e-05,0
0.0665,-2.7024e-05,0
0.067,-1.5274e-05,0
0.0675,-1.8463e-06,0
0.068,5.2033e-06,0
0.0685,7.8889e-06,0
0.069,1.3092e-05,0
0.0695,2.1988e-05,0
0.07,3.978e-05,0
0.0705,5.9587e-05,0
0.071,7.4021e-05,0
0.0715,8.8457e-05,0
0.072,0.00010356,0
0.0725,0.00011263,0
0.073,0.00011498,0
0.0735,0.00010524,0
0.074,8.1071e-05,0
0.0745,5.0858e-05,0
0.075,2.8702e-05,0
0.0755,1.0575e-05,0
0.076,-1.3596e-05,0
0.0765,-4.7837e-05,0
0.077,-9.3324e-05,0
0.0775,-0.00012757,0
0.078,-0.00012857,0
0.0785,-9.9702e-05,0
0.079,-5.623e-05,0
0.0795,-2.0142e-05,0
0.08,0,0
0.0805,1.2757e-05,0
0.081,1.9135e-05,0
0.0815,2.5345e-05,0
0.082,3.6423e-05,0
0.0825,3.9612e-05,0
0.083,3.3402e-05,0
0.0835,3.3066e-05,0
0.084,3.9109e-05,0
0.0845,4.213e-05,0
0.085,4.2802e-05,0
0.0855,4.683e-05,0
0.086,5.3376e-05,0
0.0865,5.539e-05,0
0.087,4.7501e-05,0
0.0875,3.1724e-05,0
0.088,1.2253e-05,0
0.0885,-5.035e-07,0
0.089,-1.1749e-06,0
0.0895,1.8463e-06,0
0.09,6.2104e-06,0
0.0905,2.1988e-05,0
0.091,4.4816e-05,0
0.0915,6.3447e-05,0
0.092,6.7643e-05,0
0.0925,5.9251e-05,0
0.093,5.623e-05,0
0.0935,6.9657e-05,0
0.094,8.8289e-05,0
0.0945,9.9199e-05,0
0.095,0.00010121,0
0.0955,8.5435e-05,0
0.096,5.4551e-05,0
0.0965,3.1388e-05,0
0.097,2.8534e-05,0
0.0975,3.4073e-05,0
0.098,3.1724e-05,0
0.0985,2.182e-05,0
0.099,5.2033e-06,0
0.0995,-1.4603e-05,0
0.1,-2.6352e-05,0
0.1005,-2.8702e-05,0
0.101,-2.7359e-05,0
0.1015,-2.5681e-05,0
0.102,-1.8296e-05,0
0.1025,8.392e-07,0
0.103,2.4674e-05,0
0.1035,3.2059e-05,0
0.104,1.947e-05,0
0.1045,1.678e-07,0
0.105,-1.561e-05,0
0.1055,-2.0646e-05,0
0.106,-1.2421e-05,0
0.1065,6.3783e-06,0
0.107,1.9638e-05,0
0.1075,2.031e-05,0
0.108,1.1917e-05,0
0.1085,-3.5248e-06,0
0.109,-1.091e-05,0
0.1095,-3.5248e-06,0
0.11,6.3783e-06,0
0.1105,1.0239e-05,0
0.111,1.4099e-05,0
0.1115,1.9638e-05,0
0.112,2.0981e-05,0
0.1125,2.2995e-05,0
0.113,2.887e-05,0
0.1135,3.1052e-05,0
0.114,3.2059e-05,0
0.1145,3.4073e-05,0
0.115,2.2324e-05,0
0.1155,1.5106e-06,0
0.116,-9.0639e-06,0
0.1165,-9.0639e-06,0
0.117,-1.1749e-05,0
0.1175,-1.3932e-05,0
0.118,-6.2104e-06,0
0.1185,9.2317e-06,0
0.119,1.9638e-05,0
0.1195,1.9974e-05,0
0.12,9.2317e-06,0
0.1205,-3.5248e-06,0
0.121,-2.182e-06,0
0.1215,8.2246e-06,0
0.122,1.9806e-05,0
0.1225,2.9374e-05,0
0.123,2.9374e-05,0
0.1235,2.031e-05,0
0.124,1.9303e-05,0
0.1245,3.2731e-05,0
0.125,5.539e-05,0
0.1255,7.9393e-05,0
0.126,0.00010155,0
0.1265,0.0001274,0
0.127,0.0001556,0
0.1275,0.00016432,0
0.128,0.00014452,0
0.1285,0.00011263,0
0.129,7.9393e-05,0
0.1295,3.7262e-05,0
0.13,-9.0639e-06,0
0.1305,-3.9948e-05,0
0.131,-5.1865e-05,0
0.1315,-5.7237e-05,0
0.132,-6.9993e-05,0
0.1325,-9.6849e-05,0
0.133,-0.00010877,0
0.1335,-7.9393e-05,0
0.134,-2.8367e-05,0
0.1345,1.1917e-05,0
0.135,3.4745e-05,0
0.1355,4.5487e-05,0
0.136,4.4816e-05,0
0.1365,3.9277e-05,0
0.137,3.8605e-05,0
0.1375,3.1388e-05,0
0.138,1.1582e-05,0
0.1385,-1.4939e-05,0
0.139,-3.2563e-05,0
0.1395,-3.4409e-05,0
0.14,-2.3835e-05,0
0.1405,-6.0426e-06,0
0.141,1.5946e-05,0
0.1415,3.4745e-05,0
0.142,4.1291e-05,0
0.1425,3.6088e-05,0
0.143,2.6017e-05,0
0.1435,1.9638e-05,0
0.144,1.6617e-05,0
0.1445,1.0575e-05,0
0.145,8.7282e-06,0
0.1455,1.4771e-05,0
0.146,1.6281e-05,0
0.1465,1.5442e-05,0
0.147,1.6281e-05,0
0.1475,8.896e-06,0
0.148,-7.5532e-06,0
0.1485,-1.561e-05,0
0.149,-1.1917e-05,0
0.1495,1.678e-07,0
0.15,1.5274e-05,0
0.1505,2.7024e-05,0
0.151,3.4073e-05,0
0.1515,4.1795e-05,0
0.152,4.7501e-05,0
0.1525,4.2802e-05,0
0.153,3.3402e-05,0
0.1535,3.0381e-05,0
0.154,3.2059e-05,0
0.1545,2.8702e-05,0
0.155,2.266e-05,0
0.1555,1.9303e-05,0
0.156,1.9974e-05,0
0.1565,2.6352e-05,0
0.157,3.8773e-05,0
0.1575,4.5991e-05,0
0.158,4.5823e-05,0
0.1585,4.8508e-05,0
0.159,4.9851e-05,0
0.1595,4.6494e-05,0
0.16,3.8605e-05,0
0.1605,2.3667e-05,0
0.161,1.2421e-05,0
0.1615,1.091e-05,0
0.162,9.2317e-06,0
0.1625,8.5603e-06,0
0.163,2.182e-05,0
0.1635,4.3137e-05,0
0.164,5.9754e-05,0
0.1645,6.4286e-05,0
0.165,6.009e-05,0
0.1655,5.6733e-05,0
0.166,5.6901e-05,0
0.1665,5.0858e-05,0
0.167,3.2563e-05,0
0.1675,1.2421e-05,0
0.168,2.5177e-06,0
0.1685,-5.7069e-06,0
0.169,-1.4435e-05,0
0.1695,-1.9974e-05,0
0.17,-2.5009e-05,0
0.1705,-4.0452e-05,0
0.171,-5.8579e-05,0
0.1715,-5.7069e-05,0
0.172,-3.827e-05,0
0.1725,-1.561e-05,0
0.173,9.5674e-06,0
0.1735,3.0549e-05,0
0.174,4.9012e-05,0
0.1745,7.1e-05,0
0.175,8.04e-05,0
0.1755,7.4861e-05,0
0.176,6.949e-05,0
0.1765,6.4286e-05,0
0.177,5.2705e-05,0
0.1775,2.6688e-05,0
0.178,1.8463e-06,0
0.1785,-2.3499e-06,0
0.179,3.5248e-06,0
0.1795,4.3641e-06,0
0.18,2.182e-06,0
0.1805,-6.3783e-06,0
0.181,-1.9806e-05,0
0.1815,-3.1891e-05,0
0.182,-3.357e-05,0
0.1825,-2.1988e-05,0
0.183,-6.2104e-06,0
0.1835,3.5248e-06,0
0.184,8.5603e-06,0
0.1845,1.8296e-05,0
0.185,2.5345e-05,0
0.1855,2.5345e-05,0
0.186,2.5513e-05,0
0.1865,2.4002e-05,0
0.187,1.8463e-05,0
0.1875,1.1246e-05,0
0.188,2.5177e-06,0
0.1885,-3.8605e-06,0
0.189,-1.5106e-06,0
0.1895,8.3925e-06,0
0.19,1.9974e-05,0
0.1905,3.0045e-05,0
0.191,3.5752e-05,0
0.1915,4.5319e-05,0
0.192,5.9922e-05,0
0.1925,7.1672e-05,0
0.193,8.7114e-05,0
0.1935,0.00011263,0
0.194,0.00013881,0
0.1945,0.00015895,0
0.195,0.00016667,0
0.1955,0.00015358,0
0.196,0.00012203,0
0.1965,9.2149e-05,0
0.197,7.7714e-05,0
0.1975,6.3615e-05,0
0.198,2.5009e-05,0
0.1985,-2.6352e-05,0
0.199,-6.4286e-05,0
0.1995,-7.8386e-05,0
0.2,-6.1433e-05,0
0.2005,-2.7695e-05,0
0.201,-1.091e-05,0
0.2015,-2.6688e-05,0
0.202,-6.5461e-05,0
0.2025,-0.00010793,0
0.203,-0.00014049,0
0.2035,-0.0001509,0
0.204,-0.00013445,0
0.2045,-0.0001039,0
0.205,-8.5603e-05,0
0.2055,-8.5435e-05,0
0.206,-8.04e-05,0
0.2065,-5.2369e-05,0
0.207,-1.1917e-05,0
0.2075,2.031e-05,0
0.208,3.6088e-05,0
0.2085,4.2802e-05,0
0.209,4.8173e-05,0
0.2095,4.918e-05,0
0.21,4.4144e-05,0
0.2105,4.5487e-05,0
0.211,5.1362e-05,0
0.2115,5.2201e-05,0
0.212,5.069e-05,0
0.2125,5.3208e-05,0
0.213,5.8747e-05,0
0.2135,6.244e-05,0
0.214,6.3951e-05,0
0.2145,7.1672e-05,0
0.215,8.51e-05,0
0.2155,9.5171e-05,0
0.216,9.1478e-05,0
0.2165,7.1672e-05,0
0.217,5.0187e-05,0
0.2175,4.5823e-05,0
0.218,4.8173e-05,0
0.2185,4.1962e-05,0
0.219,2.6688e-05,0
0.2195,1.4603e-05,0
0.22,1.2421e-05,0
0.2205,8.3925e-06,0
0.221,-8.3925e-06,0
0.2215,-2.8199e-05,0
0.222,-2.9374e-05,0
0.2225,-1.7792e-05,0
0.223,-8.896e-06,0
0.2235,-2.3499e-06,0
0.224,-5.035e-07,0
0.2245,-5.8747e-06,0
0.225,-1.0575e-05,0
0.2255,-8.0568e-06,0
0.226,4.3641e-06,0
0.2265,2.4842e-05,0
0.227,3.7766e-05,0
0.2275,3.6423e-05,0
0.228,3.0045e-05,0
0.2285,3.0716e-05,0
0.229,4.0452e-05,0
0.2295,5.3208e-05,0
0.23,5.6901e-05,0
0.2305,4.6159e-05,0
0.231,3.0716e-05,0
0.2315,1.8967e-05,0
0.232,1.0071e-05,0
0.2325,7.7211e-06,0
0.233,1.796e-05,0
0.2335,3.3402e-05,0
0.234,3.827e-05,0
0.2345,2.7695e-05,0
0.235,1.1582e-05,0
0.2355,5.2033e-06,0
0.236,1.7288e-05,0
0.2365,3.743e-05,0
0.237,4.4816e-05,0
0.2375,4.3977e-05,0
0.238,5.0355e-05,0
0.2385,5.8915e-05,0
0.239,5.4551e-05,0
0.2395,3.827e-05,0
0.24,3.0213e-05,0
0.2405,4.0116e-05,0
0.241,5.9922e-05,0
0.2415,7.0329e-05,0
0.242,6.9322e-05,0
0.2425,6.3279e-05,0
0.243,5.1362e-05,0
0.2435,3.1388e-05,0
0.244,1.2924e-05,0
0.2445,3.357e-07,0
0.245,-6.2104e-06,0
0.2455,-1.561e-05,0
0.246,-2.9038e-05,0
0.2465,-3.2731e-05,0
0.247,-2.4338e-05,0
0.2475,-1.561e-05,0
0.248,-1.3932e-05,0
0.2485,-1.6281e-05,0
0.249,-2.266e-05,0
0.2495,-3.8437e-05,0
0.25,-5.623e-05,0
0.2505,-5.1698e-05,0
0.251,-2.2492e-05,0
0.2515,3.6927e-06,0
0.252,1.6785e-05,0
0.2525,2.7192e-05,0
0.253,3.9948e-05,0
0.2535,5.4048e-05,0
0.254,6.6133e-05,0
0.2545,7.2679e-05,0
0.255,7.4693e-05,0
0.2555,6.949e-05,0
0.256,5.8579e-05,0
0.2565,3.4577e-05,0
0.257,4.1962e-06,0
0.2575,-1.1917e-05,0
0.258,-9.0639e-06,0
0.2585,-1.0071e-06,0
0.259,3.357e-07,0
0.2595,-3.357e-07,0
0.26,2.0142e-06,0
0.2605,0,0
0.261,-7.0497e-06,0
0.2615,-1.0239e-05,0
0.262,1.0071e-06,0
0.2625,1.9806e-05,0
0.263,2.6688e-05,0
0.2635,2.0478e-05,0
0.264,1.9974e-05,0
0.2645,2.4506e-05,0
0.265,2.3331e-05,0
0.2655,1.8967e-05,0
0.266,1.561e-05,0
0.2665,1.561e-05,0
0.267,1.8296e-05,0
0.2675,1.6785e-05,0
0.268,1.4267e-05,0
0.2685,1.1917e-05,0
0.269,6.5461e-06,0
0.2695,0,0
0.27,-3.5248e-06,0
0.2705,4.1962e-06,0
0.271,2.031e-05,0
0.2715,3.2059e-05,0
0.272,3.3066e-05,0
0.2725,3.0381e-05,0
0.273,4.0787e-05,0
0.2735,6.3279e-05,0
0.274,7.9057e-05,0
0.2745,7.3854e-05,0
0.275,5.8915e-05,0
0.2755,5.2201e-05,0
0.276,5.1698e-05,0
0.2765,4.9515e-05,0
0.277,4.7837e-05,0
0.2775,4.5823e-05,0
0.278,4.683e-05,0
0.2785,4.9851e-05,0
0.279,4.3305e-05,0
0.2795,3.7262e-05,0
0.28,4.9515e-05,0
0.2805,6.2104e-05,0
0.281,5.5558e-05,0
0.2815,4.2298e-05,0
0.282,3.743e-05,0
0.2825,2.4506e-05,0
0.283,-2.182e-06,0
0.2835,-2.3835e-05,0
0.284,-3.1724e-05,0
0.2845,-3.3906e-05,0
0.285,-4.0116e-05,0
0.2855,-4.9515e-05,0
0.286,-5.6733e-05,0
0.2865,-5.623e-05,0
0.287,-5.388e-05,0
0.2875,-5.4551e-05,0
0.288,-5.1362e-05,0
0.2885,-3.9109e-05,0
0.289,-2.4338e-05,0
0.2895,-1.4939e-05,0
0.29,-1.091e-05,0
0.2905,-1.1917e-05,0
0.291,-1.3428e-05,0
0.2915,-8.7282e-06,0
0.292,1.1749e-06,0
0.2925,1.5442e-05,0
0.293,3.0381e-05,0
0.2935,4.0116e-05,0
0.294,4.2802e-05,0
0.2945,4.2298e-05,0
0.295,4.2802e-05,0
0.2955,4.9348e-05,0
0.296,5.9251e-05,0
0.2965,6.2272e-05,0
0.297,5.4719e-05,0
0.2975,4.448e-05,0
0.298,3.4745e-05,0
0.2985,3.0381e-05,0
0.299,3.7095e-05,0
0.2995,4.9012e-05,0
0.3,5.4719e-05,0
0.3005,5.0858e-05,0
0.301,4.3809e-05,0
0.3015,3.9445e-05,0
0.302,3.1724e-05,0
0.3025,1.6281e-05,0
0.303,1.3428e-06,0
0.3035,-3.1891e-06,0
0.304,1.5106e-06,0
0.3045,8.3925e-06,0
0.305,7.5532e-06,0
0.3055,7.7211e-06,0
0.306,1.4435e-05,0
0.3065,2.0478e-05,0
0.307,2.5177e-05,0
0.3075,3.743e-05,0
0.308,5.2033e-05,0
0.3085,5.2033e-05,0
0.309,4.0116e-05,0
0.3095,3.2563e-05,0
0.31,3.5416e-05,0
0.3105,4.9851e-05,0
0.311,6.9657e-05,0
0.3115,8.9296e-05,0
0.312,0.00010138,0
0.3125,0.00010407,0
0.313,0.00010423,0
0.3135,0.00010256,0
0.314,8.9128e-05,0
0.3145,6.0258e-05,0
0.315,2.4338e-05,0
0.3155,-7.7211e-06,0
0.316,-3.4745e-05,0
0.3165,-6.4118e-05,0
0.317,-9.0806e-05,0
0.3175,-0.00010222,0
0.318,-8.8792e-05,0
0.3185,-6.1936e-05,0
0.319,-4.7501e-05,0
0.3195,-5.0019e-05,0
0.32,-3.9948e-05,0
0.3205,-9.5674e-06,0
0.321,1.6953e-05,0
0.3215,2.0813e-05,0
0.322,1.9974e-05,0
0.3225,3.0716e-05,0
0.323,4.1627e-05,0
0.3235,3.7095e-05,0
0.324,2.0142e-05,0
0.3245,1.5106e-06,0
0.325,-8.3925e-06,0
0.3255,-7.8889e-06,0
0.326,-3.6927e-06,0
0.3265,-1.6281e-05,0
0.327,-4.1123e-05,0
0.3275,-4.918e-05,0
0.328,-3.2395e-05,0
0.3285,-8.7282e-06,0
0.329,1.0071e-05,0
0.3295,2.1988e-05,0
0.33,2.9709e-05,0
0.3305,3.978e-05,0
0.331,4.683e-05,0
0.3315,5.2201e-05,0
0.332,5.9419e-05,0
0.3325,6.3615e-05,0
0.333,5.539e-05,0
0.3335,3.978e-05,0
0.334,4.0116e-05,0
0.3345,6.0594e-05,0
0.335,7.956e-05,0
0.3355,9.2149e-05,0
0.336,0.00010558,0
0.3365,0.000118,0
0.337,0.00012068,0
0.3375,0.00010793,0
0.338,8.7617e-05,0
0.3385,7.1672e-05,0
0.339,6.0258e-05,0
0.3395,3.743e-05,0
0.34,4.8676e-06,0
0.3405,-1.6617e-05,0
0.341,-2.8367e-05,0
0.3415,-3.9109e-05,0
0.342,-5.1194e-05,0
0.3425,-6.3615e-05,0
0.343,-6.8986e-05,0
0.3435,-5.8579e-05,0
0.344,-4.7501e-05,0
0.3445,-4.0619e-05,0
0.345,-2.7527e-05,0
0.3455,-1.0742e-05,0
0.346,1.6785e-06,0
0.3465,7.8889e-06,0
0.347,5.539e-06,0
0.3475,-1.5106e-06,0
0.348,-3.1891e-06,0
0.3485,3.8605e-06,0
0.349,1.326e-05,0
0.3495,1.6953e-05,0
0.35,1.9303e-05,0
0.3505,2.5009e-05,0
0.351,2.7695e-05,0
0.3515,2.9374e-05,0
0.352,3.4577e-05,0
0.3525,3.7934e-05,0
0.353,3.7095e-05,0
0.3535,3.5416e-05,0
0.354,3.0716e-05,0
0.3545,2.7863e-05,0
0.355,3.6591e-05,0
0.3555,4.9851e-05,0
0.356,6.1433e-05,0
0.3565,7.335e-05,0
0.357,8.04e-05,0
0.3575,8.3421e-05,0
0.358,8.5771e-05,0
0.3585,8.3085e-05,0
0.359,7.5029e-05,0
0.3595,5.5894e-05,0
0.36,2.3835e-05,0
0.3605,-5.539e-06,0
0.361,-2.4674e-05,0
0.3615,-3.6255e-05,0
0.362,-4.6494e-05,0
0.3625,-5.5726e-05,0
0.363,-5.8579e-05,0
0.3635,-5.1865e-05,0
0.364,-3.6759e-05,0
0.3645,-1.7288e-05,0
0.365,2.5177e-06,0
0.3655,1.6449e-05,0
0.366,2.2492e-05,0
0.3665,2.5849e-05,0
0.367,2.417e-05,0
0.3675,1.8463e-05,0
0.368,1.561e-05,0
0.3685,1.1582e-05,0
0.369,7.5532e-06,0
0.3695,8.3925e-06,0
0.37,9.0639e-06,0
0.3705,6.8818e-06,0
0.371,1.0575e-05,0
0.3715,2.031e-05,0
0.372,2.6017e-05,0
0.3725,2.6352e-05,0
0.373,2.4674e-05,0
0.3735,2.4002e-05,0
0.374,2.7527e-05,0
0.3745,3.2731e-05,0
0.375,3.743e-05,0
0.3755,3.5416e-05,0
0.376,2.5681e-05,0
0.3765,1.7121e-05,0
0.377,1.6953e-05,0
0.3775,2.1149e-05,0
0.378,2.1653e-05,0
0.3785,1.8631e-05,0
0.379,1.6449e-05,0
0.3795,2.1988e-05,0
0.38,3.3402e-05,0
0.3805,4.4984e-05,0
0.381,5.069e-05,0
0.3815,5.0019e-05,0
0.382,5.2872e-05,0
0.3825,5.9922e-05,0
0.383,6.2272e-05,0
0.3835,6.2272e-05,0
0.384,6.6972e-05,0
0.3845,6.8818e-05,0
0.385,5.7237e-05,0
0.3855,4.3977e-05,0
0.386,4.213e-05,0
0.3865,4.3473e-05,0
0.387,3.6088e-05,0
0.3875,1.796e-05,0
0.388,1.0071e-06,0
0.3885,-1.1749e-06,0
0.389,1.326e-05,0
0.3895,3.2059e-05,0
0.39,3.6759e-05,0
0.3905,2.3331e-05,0
0.391,9.5674e-06,0
0.3915,6.5461e-06,0
0.392,7.3854e-06,0
0.3925,8.896e-06,0
0.393,1.8463e-06,0
0.3935,-1.3932e-05,0
0.394,-2.0813e-05,0
0.3945,-1.4099e-05,0
0.395,-8.896e-06,0
0.3955,-1.326e-05,0
0.396,-2.1653e-05,0
0.3965,-2.1149e-05,0
0.397,-1.8967e-05,0
0.3975,-2.9206e-05,0
0.398,-4.3137e-05,0
0.3985,-4.3137e-05,0
0.399,-3.8941e-05,0
0.3995,-4.8173e-05,0
0.4,-6.3615e-05,0
0.4005,-5.8244e-05,0
0.401,-2.7192e-05,0
0.4015,1.1582e-05,0
0.402,3.5752e-05,0
0.4025,4.0787e-05,0
0.403,3.5752e-05,0
0.4035,2.4674e-05,0
0.404,1.1582e-05,0
0.4045,1.3428e-06,0
0.405,1.6785e-06,0
0.4055,7.0497e-06,0
0.406,3.6927e-06,0
0.4065,-4.1962e-06,0
0.407,-7.5532e-06,0
0.4075,-4.8676e-06,0
0.408,1.0575e-05,0
0.4085,3.743e-05,0
0.409,6.3951e-05,0
0.4095,8.745e-05,0
0.41,0.00010726,0
0.4105,0.00010927,0
0.411,9.5842e-05,0
0.4115,8.745e-05,0
0.412,8.3085e-05,0
0.4125,6.2608e-05,0
0.413,2.7527e-05,0
0.4135,-3.1891e-06,0
0.414,-2.3163e-05,0
0.4145,-3.8773e-05,0
0.415,-5.069e-05,0
0.4155,-5.6397e-05,0
0.416,-5.388e-05,0
0.4165,-4.0787e-05,0
0.417,-1.7121e-05,0
0.4175,1.0575e-05,0
0.418,3.8773e-05,0
0.4185,6.2608e-05,0
0.419,7.0664e-05,0
0.4195,6.3279e-05,0
0.42,5.4383e-05,0
0.4205,5.4383e-05,0
0.421,6.2608e-05,0
0.4215,6.9657e-05,0
0.422,6.4622e-05,0
0.4225,5.4215e-05,0
0.423,4.9851e-05,0
0.4235,5.2201e-05,0
0.424,5.2201e-05,0
0.4245,4.6494e-05,0
0.425,3.8437e-05,0
0.4255,3.6423e-05,0
0.426,4.0787e-05,0
0.4265,4.683e-05,0
0.427,5.2201e-05,0
0.4275,5.7908e-05,0
0.428,6.5293e-05,0
0.4285,7.7043e-05,0
0.429,8.896e-05,0
0.4295,9.4499e-05,0
0.43,9.836e-05,0
0.4305,0.00010289,0
0.431,0.00010289,0
0.4315,9.3492e-05,0
0.432,6.8986e-05,0
0.4325,2.9877e-05,0
0.433,-1.6785e-05,0
0.4335,-5.8244e-05,0
0.434,-7.8721e-05,0
0.4345,-7.6204e-05,0
0.435,-6.7979e-05,0
0.4355,-6.2776e-05,0
0.436,-6.2944e-05,0
0.4365,-6.6972e-05,0
0.437,-6.9322e-05,0
0.4375,-6.6133e-05,0
0.438,-5.2537e-05,0
0.4385,-2.9877e-05,0
0.439,-1.2589e-05,0
0.4395,-5.2033e-06,0
0.44,0,0
0.4405,5.8747e-06,0
0.441,1.0071e-05,0
0.4415,1.326e-05,0
0.442,2.2492e-05,0
0.4425,4.1291e-05,0
0.443,6.5629e-05,0
0.4435,8.896e-05,0
0.444,0.00010658,0
0.4445,0.00011968,0
0.445,0.00012136,0
0.4455,0.00010574,0
0.446,7.6204e-05,0
0.4465,4.0787e-05,0
0.447,7.2175e-06,0
0.4475,-2.3667e-05,0
0.448,-5.8244e-05,0
0.4485,-8.6946e-05,0
0.449,-9.6513e-05,0
0.4495,-8.9464e-05,0
0.45,-7.1e-05,0
0.4505,-4.6662e-05,0
0.451,-3.1724e-05,0
0.4515,-2.9206e-05,0
0.452,-2.5513e-05,0
0.4525,-1.5946e-05,0
0.453,-5.539e-06,0
0.4535,7.0497e-06,0
0.454,2.1988e-05,0
0.4545,3.3738e-05,0
0.455,3.5416e-05,0
0.4555,2.9709e-05,0
0.456,3.3738e-05,0
0.4565,4.9515e-05,0
0.457,6.0594e-05,0
0.4575,5.8076e-05,0
0.458,4.3641e-05,0
0.4585,2.5345e-05,0
0.459,3.8605e-06,0
0.4595,-1.7121e-05,0
0.46,-2.2324e-05,0
0.4605,-8.896e-06,0
0.461,3.6927e-06,0
0.4615,1.6281e-05,0
0.462,3.7766e-05,0
0.4625,5.4551e-05,0
0.463,4.5991e-05,0
0.4635,1.9638e-05,0
0.464,5.8747e-06,0
0.4645,1.6617e-05,0
0.465,4.1459e-05,0
0.4655,6.4958e-05,0
0.466,7.9057e-05,0
0.4665,7.7378e-05,0
0.467,5.6062e-05,0
0.4675,2.3331e-05,0
0.468,-4.1962e-06,0
0.4685,-9.5674e-06,0
0.469,1.3428e-06,0
0.4695,8.5603e-06,0
0.47,7.2175e-06,0
0.4705,8.896e-06,0
0.471,1.4603e-05,0
0.4715,2.4842e-05,0
0.472,4.2802e-05,0
0.4725,6.2776e-05,0
0.473,8.1071e-05,0
0.4735,9.5842e-05,0
0.474,9.0303e-05,0
0.4745,7.2679e-05,0
0.475,6.3951e-05,0
0.4755,6.3279e-05,0
0.476,6.0929e-05,0
0.4765,4.3809e-05,0
0.477,1.1078e-05,0
0.4775,-2.7695e-05,0
0.478,-6.1601e-05,0
0.4785,-8.51e-05,0
0.479,-9.4667e-05,0
0.4795,-7.8721e-05,0
0.48,-4.5991e-05,0
0.4805,-2.2324e-05,0
0.481,-8.5603e-06,0
0.4815,-8.392e-07,0
0.482,2.182e-06,0
0.4825,5.8747e-06,0
0.483,2.0981e-05,0
0.4835,4.5823e-05,0
0.484,7.1e-05,0
0.4845,8.9464e-05,0
0.485,9.8527e-05,0
0.4855,9.4499e-05,0
0.486,7.8386e-05,0
0.4865,6.0761e-05,0
0.487,4.3809e-05,0
0.4875,3.5584e-05,0
0.488,4.3809e-05,0
0.4885,5.5894e-05,0
0.489,5.6901e-05,0
0.4895,5.0187e-05,0
0.49,4.8844e-05,0
0.4905,4.9851e-05,0
0.491,4.3977e-05,0
0.4915,2.9709e-05,0
0.492,1.2589e-05,0
0.4925,-1.0239e-05,0
0.493,-4.1123e-05,0
0.4935,-6.9322e-05,0
0.494,-7.9728e-05,0
0.4945,-6.5293e-05,0
0.495,-3.7262e-05,0
0.4955,-1.9303e-05,0
0.496,-1.7624e-05,0
0.4965,-1.6281e-05,0
0.497,-1.091e-05,0
0.4975,-8.392e-07,0
0.498,1.4939e-05,0
0.4985,2.6688e-05,0
0.499,3.3234e-05,0
0.4995,3.7095e-05,0
0.5,4.0619e-05,0
0.5005,4.5487e-05,0
0.501,5.1194e-05,0
0.5015,5.6565e-05,0
0.502,5.4551e-05,0
0.5025,4.4144e-05,0
0.503,3.0716e-05,0
0.5035,2.0646e-05,0
0.504,8.2246e-06,0
0.5045,-1.1749e-06,0
0.505,-1.6785e-06,0
0.5055,4.6998e-06,0
0.506,1.7288e-05,0
0.5065,2.7527e-05,0
0.507,3.3402e-05,0
0.5075,3.8605e-05,0
0.508,4.8844e-05,0
0.5085,5.6901e-05,0
0.509,5.5222e-05,0
0.5095,4.7501e-05,0
0.51,3.7766e-05,0
0.5105,2.5681e-05,0
0.511,1.2253e-05,0
0.5115,-1.3428e-06,0
0.512,-6.2104e-06,0
0.5125,5.035e-07,0
0.513,6.5461e-06,0
0.5135,7.8889e-06,0
0.514,2.0646e-05,0
0.5145,4.2802e-05,0
0.515,6.0929e-05,0
0.5155,6.63e-05,0
0.516,6.1601e-05,0
0.5165,5.8579e-05,0
0.517,5.9587e-05,0
0.5175,4.8173e-05,0
0.518,2.0813e-05,0
0.5185,-1.0575e-05,0
0.519,-3.9109e-05,0
0.5195,-6.0258e-05,0
0.52,-6.3615e-05,0
0.5205,-5.7069e-05,0
0.521,-5.2201e-05,0
0.5215,-4.5991e-05,0
0.522,-4.3305e-05,0
0.5225,-4.5151e-05,0
0.523,-4.8173e-05,0
0.5235,-5.1362e-05,0
0.524,-5.2537e-05,0
0.5245,-5.0858e-05,0
0.525,-4.2802e-05,0
0.5255,-2.8702e-05,0
0.526,-9.7353e-06,0
0.5265,1.9806e-05,0
0.527,5.1698e-05,0
0.5275,7.4861e-05,0
0.528,9.4499e-05,0
0.5285,0.00011061,0
0.529,0.00011313,0
0.5295,0.00011145,0
0.53,0.00010994,0
0.5305,9.5506e-05,0
0.531,6.9993e-05,0
0.5315,5.8244e-05,0
0.532,6.7308e-05,0
0.5325,8.51e-05,0
0.533,9.7353e-05,0
0.5335,0.00010172,0
0.534,0.00010323,0
0.5345,8.9967e-05,0
0.535,5.9419e-05,0
0.5355,3.1388e-05,0
0.536,2.4338e-05,0
0.5365,4.5487e-05,0
0.537,8.3085e-05,0
0.5375,0.00010558,0
0.538,9.6513e-05,0
0.5385,6.9322e-05,0
0.539,4.1459e-05,0
0.5395,1.5274e-05,0
0.54,-1.2253e-05,0
0.5405,-3.8437e-05,0
0.541,-6.4622e-05,0
0.5415,-9.4499e-05,0
0.542,-0.00011951,0
0.5425,-0.0001321,0
0.543,-0.00012992,0
0.5435,-0.00011699,0
0.544,-9.987e-05,0
0.5445,-8.9632e-05,0
0.545,-8.1743e-05,0
0.5455,-6.5965e-05,0
0.546,-4.0452e-05,0
0.5465,-1.1246e-05,0
0.547,1.4267e-05,0
0.5475,2.9206e-05,0
0.548,3.357e-05,0
0.5485,3.8102e-05,0
0.549,5.3544e-05,0
0.5495,8.7114e-05,0
0.55,0.00012303,0
0.5505,0.0001368,0
0.551,0.00012068,0
0.5515,7.9393e-05,0
0.552,2.6017e-05,0
0.5525,-1.1246e-05,0
0.553,-2.8031e-05,0
0.5535,-5.0523e-05,0
0.554,-6.5965e-05,0
0.5545,-3.8437e-05,0
0.555,2.3163e-05,0
0.5555,7.1504e-05,0
0.556,9.0471e-05,0
0.5565,0.00010004,0
0.557,0.00011632,0
0.5575,0.00012169,0
0.558,9.9031e-05,0
0.5585,5.6901e-05,0
0.559,7.5532e-06,0
0.5595,-4.3137e-05,0
0.56,-9.4331e-05,0
0.5605,-0.00013764,0
0.561,-0.00016869,0
0.5615,-0.00018262,0
0.562,-0.00016265,0
0.5625,-0.00011078,0
0.563,-5.2537e-05,0
0.5635,-5.539e-06,0
0.564,3.8102e-05,0
0.5645,8.2414e-05,0
0.565,0.00011296,0
0.5655,0.00011901,0
0.566,0.00011296,0
0.5665,0.00010356,0
0.567,8.6778e-05,0
0.5675,6.4622e-05,0
0.568,4.5319e-05,0
0.5685,3.8102e-05,0
0.569,4.1795e-05,0
0.5695,4.918e-05,0
0.57,5.3544e-05,0
0.5705,4.683e-05,0
0.571,3.3066e-05,0
0.5715,2.9374e-05,0
0.572,3.9445e-05,0
0.5725,5.2201e-05,0
0.573,5.3208e-05,0
0.5735,2.9709e-05,0
0.574,5.8747e-06,0
0.5745,2.266e-05,0
0.575,6.1265e-05,0
0.5755,8.4093e-05,0
0.576,9.4163e-05,0
0.5765,0.00010054,0
0.577,0.00010692,0
0.5775,0.00011363,0
0.578,0.00011514,0
0.5785,0.00010272,0
0.579,7.0664e-05,0
0.5795,2.7359e-05,0
0.58,-1.2421e-05,0
0.5805,-5.0187e-05,0
0.581,-8.426e-05,0
0.5815,-9.5842e-05,0
0.582,-8.9799e-05,0
0.5825,-9.3156e-05,0
0.583,-0.00010323,0
0.5835,-9.2821e-05,0
0.584,-6.4286e-05,0
0.5845,-4.1795e-05,0
0.585,-3.0716e-05,0
0.5855,-2.3163e-05,0
0.586,-6.714e-06,0
0.5865,1.5106e-05,0
0.587,3.0045e-05,0
0.5875,3.6759e-05,0
0.588,3.743e-05,0
0.5885,4.2802e-05,0
0.589,5.4887e-05,0
0.5895,5.1865e-05,0
0.59,3.8605e-05,0
0.5905,4.1459e-05,0
0.591,6.1097e-05,0
0.5915,7.0832e-05,0
0.592,6.4118e-05,0
0.5925,4.8173e-05,0
0.593,3.4409e-05,0
0.5935,3.3906e-05,0
0.594,4.213e-05,0
0.5945,5.6901e-05,0
0.595,8.0903e-05,0
0.5955,9.4331e-05,0
0.596,7.9393e-05,0
0.5965,4.4144e-05,0
0.597,2.5177e-06,0
0.5975,-3.2395e-05,0
0.598,-3.6759e-05,0
0.5985,-1.091e-05,0
0.599,2.0981e-05,0
0.5995,3.8102e-05,0
0.6,4.0787e-05,0
0.6005,3.508e-05,0
0.601,2.5849e-05,0
0.6015,2.9374e-05,0
0.602,4.4648e-05,0
0.6025,5.7237e-05,0
0.603,6.5293e-05,0
0.6035,7.4357e-05,0
0.604,7.1e-05,0
0.6045,4.8676e-05,0
0.605,2.0646e-05,0
0.6055,-3.1891e-06,0
0.606,-2.2995e-05,0
0.6065,-3.8437e-05,0
0.607,-3.9445e-05,0
0.6075,-3.3066e-05,0
0.608,-3.2395e-05,0
0.6085,-3.122e-05,0
0.609,-2.0478e-05,0
0.6095,-2.8534e-06,0
0.61,1.0575e-05,0
0.6105,1.4435e-05,0
0.611,4.5319e-06,0
0.6115,-1.3932e-05,0
0.612,-2.5513e-05,0
0.6125,-2.3667e-05,0
0.613,-2.2324e-05,0
0.6135,-2.8702e-05,0
0.614,-3.7766e-05,0
0.6145,-3.7934e-05,0
0.615,-1.561e-05,0
0.6155,2.4002e-05,0
0.616,6.6972e-05,0
0.6165,0.0001034,0
0.617,0.00012169,0
0.6175,0.00012035,0
0.618,0.00010507,0
0.6185,9.0806e-05,0
0.619,8.2414e-05,0
0.6195,5.388e-05,0
0.62,2.3499e-06,0
0.6205,-4.448e-05,0
0.621,-6.7643e-05,0
0.6215,-6.4622e-05,0
0.622,-3.9109e-05,0
0.6225,-6.5461e-06,0
0.623,2.2828e-05,0
0.6235,5.8579e-05,0
0.624,9.6849e-05,0
0.6245,0.00012052,0
0.625,0.00011666,0
0.6255,9.1478e-05,0
0.626,6.4286e-05,0
0.6265,5.3208e-05,0
0.627,4.4816e-05,0
0.6275,2.2492e-05,0
0.628,-1.2924e-05,0
0.6285,-4.9012e-05,0
0.629,-8.0735e-05,0
0.6295,-0.00010155,0
0.63,-0.00010205,0
0.6305,-7.8721e-05,0
0.631,-4.6494e-05,0
0.6315,-2.5009e-05,0
0.632,-1.5274e-05,0
0.6325,-1.1749e-05,0
0.633,-7.5532e-06,0
0.6335,3.0213e-06,0
0.634,1.9135e-05,0
0.6345,3.2563e-05,0
0.635,3.3738e-05,0
0.6355,1.8967e-05,0
0.636,3.1891e-06,0
0.6365,1.1246e-05,0
0.637,4.4816e-05,0
0.6375,7.4525e-05,0
0.638,8.1239e-05,0
0.6385,7.0664e-05,0
0.639,6.1265e-05,0
0.6395,6.9657e-05,0
0.64,9.1142e-05,0
0.6405,0.00010491,0
0.641,0.00010675,0
0.6415,9.4835e-05,0
0.642,6.3951e-05,0
0.6425,3.1052e-05,0
0.643,2.266e-05,0
0.6435,4.7669e-05,0
0.644,8.0064e-05,0
0.6445,9.3156e-05,0
0.645,8.4764e-05,0
0.6455,5.5222e-05,0
0.646,9.0639e-06,0
0.6465,-3.2731e-05,0
0.647,-4.6662e-05,0
0.6475,-4.4816e-05,0
0.648,-5.5558e-05,0
0.6485,-7.7714e-05,0
0.649,-9.0806e-05,0
0.6495,-8.8457e-05,0
0.65,-7.2679e-05,0
0.6505,-4.5487e-05,0
0.651,-2.031e-05,0
0.6515,-9.5674e-06,0
0.652,-1.091e-05,0
0.6525,-1.2924e-05,0
0.653,-1.2924e-05,0
0.6535,-5.2033e-06,0
0.654,5.539e-06,0
0.6545,6.3783e-06,0
0.655,-5.539e-06,0
0.6555,-1.4939e-05,0
0.656,-1.3932e-05,0
0.6565,-4.3641e-06,0
0.657,1.5778e-05,0
0.6575,3.1556e-05,0
0.658,3.6759e-05,0
0.6585,3.743e-05,0
0.659,3.122e-05,0
0.6595,3.1724e-05,0
0.66,5.153e-05,0
0.6605,7.9728e-05,0
0.661,9.0974e-05,0
0.6615,7.7378e-05,0
0.662,4.8844e-05,0
0.6625,1.796e-05,0
0.663,2.5177e-06,0
0.6635,4.5319e-06,0
0.664,1.0575e-05,0
0.6645,2.8534e-06,0
0.665,-1.8463e-05,0
0.6655,-3.0716e-05,0
0.666,-2.3331e-05,0
0.6665,-4.1962e-06,0
0.667,1.2589e-05,0
0.6675,1.3092e-05,0
0.668,4.6998e-06,0
0.6685,5.0355e-06,0
0.669,1.1582e-05,0
0.6695,1.9974e-05,0
0.67,3.1556e-05,0
0.6705,4.6159e-05,0
0.671,5.9587e-05,0
0.6715,6.5126e-05,0
0.672,6.2272e-05,0
0.6725,5.2201e-05,0
0.673,4.0955e-05,0
0.6735,3.5752e-05,0
0.674,3.7095e-05,0
0.6745,4.213e-05,0
0.675,4.0619e-05,0
0.6755,3.1388e-05,0
0.676,2.6017e-05,0
0.6765,2.8031e-05,0
0.677,3.3906e-05,0
0.6775,4.2802e-05,0
0.678,6.0929e-05,0
0.6785,9.0471e-05,0
0.679,0.00011128,0
0.6795,0.00010927,0
0.68,9.5674e-05,0
0.6805,8.2414e-05,0
0.681,7.3518e-05,0
0.6815,6.3783e-05,0
0.682,5.3544e-05,0
0.6825,4.8508e-05,0
0.683,4.5151e-05,0
0.6835,3.9109e-05,0
0.684,2.8534e-05,0
0.6845,2.1317e-05,0
0.685,2.266e-05,0
0.6855,2.1149e-05,0
0.686,7.2175e-06,0
0.6865,-6.2104e-06,0
0.687,-1.5946e-05,0
0.6875,-2.3163e-05,0
0.688,-2.3835e-05,0
0.6885,-2.0981e-05,0
0.689,-1.5274e-05,0
0.6895,-1.3764e-05,0
0.69,-2.887e-05,0
0.6905,-5.6565e-05,0
0.691,-7.4693e-05,0
0.6915,-7.5029e-05,0
0.692,-7.0664e-05,0
0.6925,-6.7308e-05,0
0.693,-5.9922e-05,0
0.6935,-5.0355e-05,0
0.694,-4.3473e-05,0
0.6945,-3.3234e-05,0
0.695,-1.6281e-05,0
0.6955,5.539e-06,0
0.696,3.2731e-05,0
0.6965,5.5222e-05,0
0.697,6.2272e-05,0
0.6975,5.6733e-05,0
0.698,5.2537e-05,0
0.6985,5.0523e-05,0
0.699,4.2466e-05,0
0.6995,2.9877e-05,0
0.7,2.1988e-05,0
0.7005,1.8631e-05,0
0.701,1.6617e-05,0
0.7015,1.561e-05,0
0.702,1.6953e-05,0
0.7025,2.0813e-05,0
0.703,2.8702e-05,0
0.7035,4.1123e-05,0
0.704,5.5894e-05,0
0.7045,7.2679e-05,0
0.705,7.7714e-05,0
0.7055,6.5461e-05,0
0.706,5.2537e-05,0
0.7065,4.3641e-05,0
0.707,3.357e-05,0
0.7075,2.5009e-05,0
0.708,3.1388e-05,0
0.7085,7.4357e-05,0
0.709,0.00014452,0
0.7095,0.00019454,0
0.71,0.00019588,0
0.7105,0.00016365,0
0.711,0.00012538,0
0.7115,8.6946e-05,0
0.712,4.0116e-05,0
0.7125,-1.4771e-05,0
0.713,-5.6565e-05,0
0.7135,-8.5435e-05,0
0.714,-0.00011867,0
0.7145,-0.00015929,0
0.715,-0.00018044,0
0.7155,-0.00016281,0
0.716,-0.0001321,0
0.7165,-0.00012186,0
0.717,-0.00011884,0
0.7175,-9.5506e-05,0
0.718,-6.63e-05,0
0.7185,-4.5319e-05,0
0.719,-2.4002e-05,0
0.7195,-6.5461e-06,0
0.72,-3.8605e-06,0
0.7205,-2.2324e-05,0
0.721,-4.9348e-05,0
0.7215,-5.0523e-05,0
0.722,-2.0142e-05,0
0.7225,9.0639e-06,0
0.723,1.796e-05,0
0.7235,2.7192e-05,0
0.724,5.5222e-05,0
0.7245,9.7353e-05,0
0.725,0.00013814,0
0.7255,0.0001655,0
0.726,0.00017171,0
0.7265,0.00015476,0
0.727,0.000118,0
0.7275,8.0064e-05,0
0.728,5.6733e-05,0
0.7285,4.7669e-05,0
0.729,4.4648e-05,0
0.7295,3.1891e-05,0
0.73,1.1246e-05,0
0.7305,-6.0426e-06,0
0.731,-1.9974e-05,0
0.7315,-3.1052e-05,0
0.732,-3.7598e-05,0
0.7325,-4.1123e-05,0
0.733,-4.4816e-05,0
0.7335,-5.4048e-05,0
0.734,-6.3951e-05,0
0.7345,-5.4551e-05,0
0.735,-2.0981e-05,0
0.7355,1.8463e-05,0
0.736,4.8005e-05,0
0.7365,5.9587e-05,0
0.737,6.0258e-05,0
0.7375,7.1672e-05,0
0.738,8.896e-05,0
0.7385,9.6513e-05,0
0.739,8.6275e-05,0
0.7395,6.5965e-05,0
0.74,4.4312e-05,0
0.7405,2.0981e-05,0
0.741,6.0426e-06,0
0.7415,1.7624e-05,0
0.742,4.8005e-05,0
0.7425,7.8889e-05,0
0.743,0.00010491,0
0.7435,0.00013277,0
0.744,0.00014989,0
0.7445,0.00014116,0
0.745,0.00011363,0
0.7455,7.8721e-05,0
0.746,5.0523e-05,0
0.7465,3.3402e-05,0
0.747,5.8747e-06,0
0.7475,-3.6759e-05,0
0.748,-6.7308e-05,0
0.7485,-7.2343e-05,0
0.749,-6.7979e-05,0
0.7495,-6.0594e-05,0
0.75,-4.3809e-05,0
0.7505,-2.6352e-05,0
0.751,-2.1149e-05,0
0.7515,-2.5177e-05,0
0.752,-1.8463e-05,0
0.7525,1.0239e-05,0
0.753,4.683e-05,0
0.7535,7.1336e-05,0
0.754,8.5771e-05,0
0.7545,0.00010121,0
0.755,0.0001133,0
0.7555,0.00011128,0
0.756,9.4163e-05,0
0.7565,7.7043e-05,0
0.757,5.7572e-05,0
0.7575,2.1317e-05,0
0.758,-2.9038e-05,0
0.7585,-7.1e-05,0
0.759,-8.9967e-05,0
0.7595,-9.131e-05,0
0.76,-8.0735e-05,0
0.7605,-5.8915e-05,0
0.761,-3.4745e-05,0
0.7615,-1.796e-05,0
0.762,-6.0426e-06,0
0.7625,3.8605e-06,0
0.763,1.2421e-05,0
0.7635,1.8967e-05,0
0.764,2.3499e-05,0
0.7645,2.5513e-05,0
0.765,2.6688e-05,0
0.7655,2.5345e-05,0
0.766,2.182e-05,0
0.7665,1.8799e-05,0
0.767,1.4771e-05,0
0.7675,4.1962e-06,0
0.768,-1.1917e-05,0
0.7685,-2.4338e-05,0
0.769,-1.9638e-05,0
0.7695,1.4603e-05,0
0.77,6.0929e-05,0
0.7705,9.6345e-05,0
0.771,0.000118,0
0.7715,0.00012857,0
0.772,0.0001284,0
0.7725,0.00012303,0
0.773,0.00011028,0
0.7735,9.0806e-05,0
0.774,6.9657e-05,0
0.7745,4.5487e-05,0
0.775,1.4603e-05,0
0.7755,-1.6785e-05,0
0.776,-3.6423e-05,0
0.7765,-4.0787e-05,0
0.777,-3.2395e-05,0
0.7775,-2.2828e-05,0
0.778,-2.7695e-05,0
0.7785,-4.7166e-05,0
0.779,-6.4622e-05,0
0.7795,-6.2944e-05,0
0.78,-4.6159e-05,0
0.7805,-3.1052e-05,0
0.781,-2.2995e-05,0
0.7815,-1.561e-05,0
0.782,2.6856e-06,0
0.7825,2.7863e-05,0
0.783,4.3809e-05,0
0.7835,5.388e-05,0
0.784,6.7643e-05,0
0.7845,8.04e-05,0
0.785,8.5435e-05,0
0.7855,7.3014e-05,0
0.786,4.918e-05,0
0.7865,4.5487e-05,0
0.787,6.4286e-05,0
0.7875,7.805e-05,0
0.788,7.1e-05,0
0.7885,5.8412e-05,0
0.789,5.5558e-05,0
0.7895,5.6062e-05,0
0.79,5.4887e-05,0
0.7905,4.3137e-05,0
0.791,1.326e-05,0
0.7915,-2.0981e-05,0
0.792,-5.1865e-05,0
0.7925,-8.6107e-05,0
0.793,-0.00011246,0
0.7935,-0.00011128,0
0.794,-8.4764e-05,0
0.7945,-5.4048e-05,0
0.795,-3.6423e-05,0
0.7955,-2.7024e-05,0
0.796,-1.5778e-05,0
0.7965,-1.091e-05,0
0.797,-1.0239e-05,0
0.7975,-2.8534e-06,0
0.798,1.6617e-05,0
0.7985,4.0619e-05,0
0.799,5.4887e-05,0
0.7995,5.4215e-05,0
0.8,4.4144e-05,0
0.8005,2.8702e-05,0
0.801,8.7282e-06,0
0.8015,-9.7353e-06,0
0.802,-1.4435e-05,0
0.8025,-5.2033e-06,0
0.803,-2.3499e-06,0
0.8035,-1.7624e-05,0
0.804,-3.6759e-05,0
0.8045,-3.7766e-05,0
0.805,-1.561e-05,0
0.8055,1.8128e-05,0
0.806,4.6494e-05,0
0.8065,5.8915e-05,0
0.807,6.0929e-05,0
0.8075,5.4719e-05,0
0.808,4.5487e-05,0
0.8085,4.213e-05,0
0.809,4.8676e-05,0
0.8095,6.0929e-05,0
0.81,6.8818e-05,0
0.8105,6.7643e-05,0
0.811,6.1265e-05,0
0.8115,5.2201e-05,0
0.812,4.1795e-05,0
0.8125,3.7262e-05,0
0.813,3.9445e-05,0
0.8135,4.2802e-05,0
0.814,3.9948e-05,0
0.8145,3.6759e-05,0
0.815,3.6088e-05,0
0.8155,3.3066e-05,0
0.816,3.6759e-05,0
0.8165,4.7333e-05,0
0.817,5.3208e-05,0
0.8175,5.6901e-05,0
0.818,6.7308e-05,0
0.8185,8.5771e-05,0
0.819,9.6513e-05,0
0.8195,8.275e-05,0
0.82,5.8915e-05,0
0.8205,4.6998e-05,0
0.821,4.2466e-05,0
0.8215,3.0716e-05,0
0.822,4.5319e-06,0
0.8225,-1.2253e-05,0
0.823,-1.6281e-05,0
0.8235,-3.0884e-05,0
0.824,-4.8508e-05,0
0.8245,-4.5487e-05,0
0.825,-2.182e-05,0
0.8255,2.031e-05,0
0.826,6.3279e-05,0
0.8265,8.0735e-05,0
0.827,7.0832e-05,0
0.8275,5.0355e-05,0
0.828,3.0716e-05,0
0.8285,1.9135e-05,0
0.829,1.2924e-05,0
0.8295,-2.3499e-06,0
0.83,-3.2059e-05,0
0.8305,-6.6972e-05,0
0.831,-9.2989e-05,0
0.8315,-0.00010323,0
0.832,-0.00010239,0
0.8325,-9.2485e-05,0
0.833,-7.4021e-05,0
0.8335,-5.4048e-05,0
0.834,-4.1459e-05,0
0.8345,-3.6255e-05,0
0.835,-3.8773e-05,0
0.8355,-4.1459e-05,0
0.836,-3.2059e-05,0
0.8365,-8.896e-06,0
0.837,1.4939e-05,0
0.8375,3.2059e-05,0
0.838,3.9277e-05,0
0.8385,4.213e-05,0
0.839,4.6159e-05,0
0.8395,4.6159e-05,0
0.84,3.978e-05,0
0.8405,3.8941e-05,0
0.841,5.3544e-05,0
0.8415,7.0832e-05,0
0.842,7.0161e-05,0
0.8425,5.2537e-05,0
0.843,4.2802e-05,0
0.8435,4.9851e-05,0
0.844,5.9754e-05,0
0.8445,5.6901e-05,0
0.845,3.978e-05,0
0.8455,2.5345e-05,0
0.846,2.182e-05,0
0.8465,2.5849e-05,0
0.847,3.3066e-05,0
0.8475,3.9109e-05,0
0.848,4.1123e-05,0
0.8485,4.6494e-05,0
0.849,4.918e-05,0
0.8495,3.743e-05,0
0.85,2.7527e-05,0
0.8505,3.2059e-05,0
0.851,3.9445e-05,0
0.8515,3.9612e-05,0
0.852,3.6088e-05,0
0.8525,3.0045e-05,0
0.853,2.1988e-05,0
0.8535,1.7288e-05,0
0.854,1.6953e-05,0
0.8545,1.4267e-05,0
0.855,8.5603e-06,0
0.8555,6.5461e-06,0
0.856,1.1414e-05,0
0.8565,2.0646e-05,0
0.857,3.0549e-05,0
0.8575,4.1459e-05,0
0.858,5.4887e-05,0
0.8585,6.3783e-05,0
0.859,5.9922e-05,0
0.8595,5.2033e-05,0
0.86,4.6159e-05,0
0.8605,4.3137e-05,0
0.861,3.8605e-05,0
0.8615,2.887e-05,0
0.862,2.3331e-05,0
0.8625,1.9135e-05,0
0.863,1.6281e-05,0
0.8635,1.8463e-05,0
0.864,1.9638e-05,0
0.8645,1.6281e-05,0
0.865,1.2253e-05,0
0.8655,1.4099e-05,0
0.866,2.182e-05,0
0.8665,2.6184e-05,0
0.867,2.2995e-05,0
0.8675,1.8799e-05,0
0.868,1.7792e-05,0
0.8685,1.8128e-05,0
0.869,1.5946e-05,0
0.8695,1.4603e-05,0
0.87,1.7288e-05,0
0.8705,1.7624e-05,0
0.871,9.9031e-06,0
0.8715,-1.5106e-06,0
0.872,3.5248e-06,0
0.8725,2.8031e-05,0
0.873,5.5558e-05,0
0.8735,7.1336e-05,0
0.874,6.2944e-05,0
0.8745,3.6759e-05,0
0.875,1.6785e-05,0
0.8755,1.6281e-05,0
0.876,2.5345e-05,0
0.8765,2.9038e-05,0
0.877,2.4674e-05,0
0.8775,2.1317e-05,0
0.878,2.7192e-05,0
0.8785,2.7359e-05,0
0.879,1.1749e-05,0
0.8795,-1.6281e-05,0
0.88,-4.7837e-05,0
0.8805,-7.5364e-05,0
0.881,-8.5603e-05,0
0.8815,-7.2007e-05,0
0.882,-4.8508e-05,0
0.8825,-2.6352e-05,0
0.883,-1.091e-05,0
0.8835,3.8605e-06,0
0.884,2.8031e-05,0
0.8845,4.6662e-05,0
0.885,4.9515e-05,0
0.8855,5.3544e-05,0
0.886,6.5629e-05,0
0.8865,7.9057e-05,0
0.887,8.1407e-05,0
0.8875,7.2343e-05,0
0.888,5.4215e-05,0
0.8885,2.4338e-05,0
0.889,-1.1582e-05,0
0.8895,-2.1149e-05,0
0.89,7.5532e-06,0
0.8905,4.2466e-05,0
0.891,4.0116e-05,0
0.8915,3.1891e-06,0
0.892,-2.2324e-05,0
0.8925,-1.3596e-05,0
0.893,-2.5177e-06,0
0.8935,-1.8128e-05,0
0.894,-4.5823e-05,0
0.8945,-5.623e-05,0
0.895,-5.1362e-05,0
0.8955,-5.774e-05,0
0.896,-7.4189e-05,0
0.8965,-7.2175e-05,0
0.897,-4.4144e-05,0
0.8975,-7.7211e-06,0
0.898,1.9135e-05,0
0.8985,2.4674e-05,0
0.899,2.1317e-05,0
0.8995,3.0213e-05,0
0.9,5.1194e-05,0
0.9005,8.2246e-05,0
0.901,0.00011162,0
0.9015,0.00012035,0
0.902,0.0001086,0
0.9025,9.5506e-05,0
0.903,7.7378e-05,0
0.9035,4.9515e-05,0
0.904,1.7624e-05,0
0.9045,-1.3596e-05,0
0.905,-4.0619e-05,0
0.9055,-6.0426e-05,0
0.906,-7.2679e-05,0
0.9065,-7.8889e-05,0
0.907,-7.6036e-05,0
0.9075,-5.5558e-05,0
0.908,-3.0381e-05,0
0.9085,-8.896e-06,0
0.909,1.561e-05,0
0.9095,5.0187e-05,0
0.91,7.9393e-05,0
0.9105,8.2246e-05,0
0.911,6.7643e-05,0
0.9115,5.6901e-05,0
0.912,5.5558e-05,0
0.9125,5.9754e-05,0
0.913,6.1936e-05,0
0.9135,6.1601e-05,0
0.914,5.6565e-05,0
0.9145,3.8773e-05,0
0.915,2.0981e-05,0
0.9155,1.6281e-05,0
0.916,2.2324e-05,0
0.9165,2.7359e-05,0
0.917,2.2995e-05,0
0.9175,1.091e-05,0
0.918,1.0575e-05,0
0.9185,3.2395e-05,0
0.919,5.9922e-05,0
0.9195,6.9657e-05,0
0.92,5.7908e-05,0
0.9205,4.0116e-05,0
0.921,2.7695e-05,0
0.9215,2.4506e-05,0
0.922,2.5849e-05,0
0.9225,2.6184e-05,0
0.923,2.3667e-05,0
0.9235,1.9974e-05,0
0.924,1.3596e-05,0
0.9245,5.7069e-06,0
0.925,5.0355e-06,0
0.9255,1.5946e-05,0
0.926,2.6017e-05,0
0.9265,2.887e-05,0
0.927,2.9038e-05,0
0.9275,2.5009e-05,0
0.928,2.0646e-05,0
0.9285,2.0646e-05,0
0.929,2.0646e-05,0
0.9295,2.2995e-05,0
0.93,3.1052e-05,0
0.9305,3.6759e-05,0
0.931,3.8773e-05,0
0.9315,4.2466e-05,0
0.932,4.8676e-05,0
0.9325,4.7837e-05,0
0.933,3.2731e-05,0
0.9335,1.6617e-05,0
0.934,1.5274e-05,0
0.9345,2.4002e-05,0
0.935,3.3738e-05,0
0.9355,4.213e-05,0
0.936,4.3641e-05,0
0.9365,4.2802e-05,0
0.937,4.3809e-05,0
0.9375,4.0116e-05,0
0.938,3.0716e-05,0
0.9385,2.8031e-05,0
0.939,3.1388e-05,0
0.9395,3.4745e-05,0
0.94,3.8102e-05,0
0.9405,3.6591e-05,0
0.941,3.508e-05,0
0.9415,4.3473e-05,0
0.942,5.5894e-05,0
0.9425,6.2776e-05,0
0.943,6.1936e-05,0
0.9435,4.9851e-05,0
0.944,3.0884e-05,0
0.9445,1.8631e-05,0
0.945,2.7527e-05,0
0.9455,5.4887e-05,0
0.946,7.3686e-05,0
0.9465,5.6565e-05,0
0.947,8.896e-06,0
0.9475,-3.4409e-05,0
0.948,-4.7669e-05,0
0.9485,-4.5991e-05,0
0.949,-4.4984e-05,0
0.9495,-4.0452e-05,0
0.95,-3.6591e-05,0
0.9505,-5.623e-05,0
0.951,-9.7353e-05,0
0.9515,-0.0001227,0
0.952,-0.00010507,0
0.9525,-5.6565e-05,0
0.953,-1.7121e-05,0
0.9535,-5.539e-06,0
0.954,-4.8676e-06,0
0.9545,-6.8818e-06,0
0.955,-1.8631e-05,0
0.9555,-2.9038e-05,0
0.956,-2.4338e-05,0
0.9565,-7.5532e-06,0
0.957,7.8889e-06,0
0.9575,1.5274e-05,0
0.958,1.5778e-05,0
0.9585,1.4267e-05,0
0.959,1.3092e-05,0
0.9595,1.5274e-05,0
0.96,1.6449e-05,0
0.9605,2.0646e-05,0
0.961,3.3066e-05,0
0.9615,4.5151e-05,0
0.962,5.3208e-05,0
0.9625,5.623e-05,0
0.963,5.153e-05,0
0.9635,4.5487e-05,0
0.964,4.9348e-05,0
0.9645,5.9587e-05,0
0.965,5.6901e-05,0
0.9655,4.5487e-05,0
0.966,4.6494e-05,0
0.9665,5.4887e-05,0
0.967,6.1097e-05,0
0.9675,7.1672e-05,0
0.968,9.4499e-05,0
0.9685,0.00012773,0
0.969,0.00014754,0
0.9695,0.00012203,0
0.97,5.7069e-05,0
0.9705,-1.5106e-06,0
0.971,-2.4506e-05,0
0.9715,-3.3066e-05,0
0.972,-4.918e-05,0
0.9725,-7.1839e-05,0
0.973,-9.3828e-05,0
0.9735,-0.00010457,0
0.974,-9.1478e-05,0
0.9745,-6.7643e-05,0
0.975,-5.1194e-05,0
0.9755,-3.827e-05,0
0.976,-1.8296e-05,0
0.9765,6.5461e-06,0
0.977,2.9206e-05,0
0.9775,4.4144e-05,0
0.978,4.1459e-05,0
0.9785,2.7359e-05,0
0.979,1.5274e-05,0
0.9795,9.9031e-06,0
0.98,9.9031e-06,0
0.9805,1.2924e-05,0
0.981,1.1414e-05,0
0.9815,6.2104e-06,0
0.982,9.3996e-06,0
0.9825,2.3163e-05,0
0.983,3.5416e-05,0
0.9835,4.0452e-05,0
0.984,3.5416e-05,0
0.9845,2.6352e-05,0
0.985,2.7359e-05,0
0.9855,3.592e-05,0
0.986,4.9851e-05,0
0.9865,7.0664e-05,0
0.987,8.896e-05,0
0.9875,0.00010054,0
0.988,0.00010256,0
0.9885,8.8457e-05,0
0.989,6.2104e-05,0
0.9895,3.2059e-05,0
0.99,1.2085e-05,0
0.9905,1.1749e-05,0
0.991,1.6617e-05,0
0.9915,1.0575e-05,0
0.992,-6.5461e-06,0
0.9925,-2.0646e-05,0
0.993,-2.4338e-05,0
0.9935,-2.4506e-05,0
0.994,-2.4338e-05,0
0.9945,-6.2104e-06,0
0.995,3.1724e-05,0
0.9955,8.2078e-05,0
0.996,0.0001284,0
0.9965,0.00014603,0
0.997,0.0001331,0
0.9975,0.00010541,0
0.998,7.6371e-05,0
0.9985,4.8173e-05,0
0.999,2.2324e-05,0
0.9995,1.1749e-06,0
1,-1.1414e-05,0
1.0005,-2.0646e-05,0
1.001,-3.9277e-05,0
1.0015,-5.5222e-05,0
1.002,-4.3641e-05,0
1.0025,-1.4099e-05,0
1.003,7.8889e-06,0
1.0035,1.796e-05,0
1.004,1.7792e-05,0
1.0045,1.0239e-05,0
1.005,5.539e-06,0
1.0055,1.1414e-05,0
1.006,2.1317e-05,0
1.0065,3.3402e-05,0
1.007,3.9109e-05,0
1.0075,2.8702e-05,0
1.008,7.2175e-06,0
1.0085,-1.3764e-05,0
1.009,-3.122e-05,0
1.0095,-4.213e-05,0
1.01,-3.7766e-05,0
1.0105,-2.0646e-05,0
1.011,-9.0639e-06,0
1.0115,-6.8818e-06,0
1.012,-5.2033e-06,0
1.0125,2.5177e-06,0
1.013,1.1582e-05,0
1.0135,1.5778e-05,0
1.014,1.7288e-05,0
1.0145,2.4506e-05,0
1.015,3.4241e-05,0
1.0155,3.5248e-05,0
1.016,2.7359e-05,0
1.0165,2.6688e-05,0
1.017,3.2059e-05,0
1.0175,3.6759e-05,0
1.018,4.0787e-05,0
1.0185,4.2802e-05,0
1.019,4.448e-05,0
1.0195,4.683e-05,0
1.02,4.3473e-05,0
1.0205,3.3402e-05,0
1.021,2.7024e-05,0
1.0215,3.1724e-05,0
1.022,4.3809e-05,0
1.0225,5.9587e-05,0
1.023,7.9728e-05,0
1.0235,9.9199e-05,0
1.024,0.00010188,0
1.0245,8.7785e-05,0
1.025,7.0832e-05,0
1.0255,6.4622e-05,0
1.026,6.7811e-05,0
1.0265,6.3615e-05,0
1.027,4.1795e-05,0
1.0275,5.7069e-06,0
1.028,-3.4913e-05,0
1.0285,-7.2847e-05,0
1.029,-9.6849e-05,0
1.0295,-9.8192e-05,0
1.03,-8.8457e-05,0
1.0305,-7.57e-05,0
1.031,-6.2944e-05,0
1.0315,-5.6565e-05,0
1.032,-4.8676e-05,0
1.0325,-3.2395e-05,0
1.033,-1.9638e-05,0
1.0335,-1.0071e-05,0
1.034,2.5177e-06,0
1.0345,1.2589e-05,0
1.035,1.2421e-05,0
1.0355,6.3783e-06,0
1.036,5.0355e-06,0
1.0365,1.0407e-05,0
1.037,1.3932e-05,0
1.0375,1.2253e-05,0
1.038,7.2175e-06,0
1.0385,3.357e-06,0
1.039,3.6927e-06,0
1.0395,5.7069e-06,0
1.04,1.0575e-05,0
1.0405,2.5849e-05,0
1.041,4.5487e-05,0
1.0415,6.1601e-05,0
1.042,7.4189e-05,0
1.0425,8.5771e-05,0
1.043,9.0135e-05,0
1.0435,8.0232e-05,0
1.044,6.5965e-05,0
1.0445,5.3376e-05,0
1.045,4.2634e-05,0
1.0455,2.9877e-05,0
1.046,3.8605e-06,0
1.0465,-2.8199e-05,0
1.047,-3.6591e-05,0
1.0475,-1.3932e-05,0
1.048,2.2324e-05,0
1.0485,5.5558e-05,0
1.049,7.956e-05,0
1.0495,9.2149e-05,0
1.05,9.5171e-05,0
1.0505,9.5171e-05,0
1.051,8.51e-05,0
1.0515,6.0594e-05,0
1.052,3.4409e-05,0
1.0525,1.561e-05,0
1.053,-1.8463e-06,0
1.0535,-2.1988e-05,0
1.054,-5.069e-05,0
1.0545,-8.2414e-05,0
1.055,-7.9728e-05,0
1.0555,-2.9542e-05,0
1.056,3.0716e-05,0
1.0565,7.7714e-05,0
1.057,0.00011766,0
1.0575,0.00013579,0
1.058,0.00012807,0
1.0585,0.00010591,0
1.059,7.6371e-05,0
1.0595,4.2466e-05,0
1.06,1.8463e-06,0
1.0605,-4.1459e-05,0
1.061,-6.4454e-05,0
1.0615,-5.9251e-05,0
1.062,-4.3137e-05,0
1.0625,-2.4338e-05,0
1.063,-7.8889e-06,0
1.0635,1.678e-07,0
1.064,1.0071e-06,0
1.0645,8.2246e-06,0
1.065,2.182e-05,0
1.0655,3.2059e-05,0
1.066,3.508e-05,0
1.0665,2.5345e-05,0
1.067,7.8889e-06,0
1.0675,-1.3596e-05,0
1.068,-3.3402e-05,0
1.0685,-4.3473e-05,0
1.069,-4.7837e-05,0
1.0695,-4.9851e-05,0
1.07,-4.2466e-05,0
1.0705,-2.2492e-05,0
1.071,-4.0284e-06,0
1.0715,4.1962e-06,0
1.072,6.0426e-06,0
1.0725,1.7792e-05,0
1.073,4.1459e-05,0
1.0735,5.3544e-05,0
1.074,4.8173e-05,0
1.0745,4.1123e-05,0
1.075,4.3809e-05,0
1.0755,5.8244e-05,0
1.076,7.335e-05,0
1.0765,7.8218e-05,0
1.077,8.3253e-05,0
1.0775,9.5171e-05,0
1.078,9.9702e-05,0
1.0785,8.9799e-05,0
1.079,7.9057e-05,0
1.0795,7.4021e-05,0
1.08,6.3279e-05,0
1.0805,4.5655e-05,0
1.081,3.1052e-05,0
1.0815,2.031e-05,0
1.082,3.357e-06,0
1.0825,-1.6617e-05,0
1.083,-3.1891e-05,0
1.0835,-4.6494e-05,0
1.084,-5.9419e-05,0
1.0845,-6.3951e-05,0
1.085,-5.5558e-05,0
1.0855,-3.2898e-05,0
1.086,-4.8676e-06,0
1.0865,1.2589e-05,0
1.087,1.5274e-05,0
1.0875,1.1078e-05,0
1.088,1.4939e-05,0
1.0885,2.5681e-05,0
1.089,3.5248e-05,0
1.0895,3.7934e-05,0
1.09,3.4745e-05,0
1.0905,3.2059e-05,0
1.091,3.1556e-05,0
1.0915,2.9374e-05,0
1.092,2.5009e-05,0
1.0925,2.4674e-05,0
1.093,2.6017e-05,0
1.0935,2.1317e-05,0
1.094,1.6953e-05,0
1.0945,2.2995e-05,0
1.095,2.9374e-05,0
1.0955,3.0716e-05,0
1.096,3.508e-05,0
1.0965,3.743e-05,0
1.097,3.8102e-05,0
1.0975,4.5487e-05,0
1.098,5.6901e-05,0
1.0985,6.6804e-05,0
1.099,7.0329e-05,0
1.0995,5.9419e-05,0
1.1,3.9948e-05,0
1.1005,2.4002e-05,0
1.101,1.1414e-05,0
1.1015,4.5319e-06,0
1.102,3.1891e-06,0
1.1025,-5.035e-07,0
1.103,-1.0575e-05,0
1.1035,-2.2324e-05,0
1.104,-2.7359e-05,0
1.1045,-2.2156e-05,0
1.105,-1.4435e-05,0
1.1055,-7.0497e-06,0
1.106,6.5461e-06,0
1.1065,2.8702e-05,0
1.107,4.3305e-05,0
1.1075,4.4816e-05,0
1.108,3.7766e-05,0
1.1085,3.0213e-05,0
1.109,2.6017e-05,0
1.1095,1.8296e-05,0
1.11,8.3925e-06,0
1.1105,2.8534e-06,0
1.111,-4.6998e-06,0
1.1115,-2.1653e-05,0
1.112,-4.3977e-05,0
1.1125,-6.3111e-05,0
1.113,-6.8315e-05,0
1.1135,-5.3208e-05,0
1.114,-2.7024e-05,0
1.1145,-4.1962e-06,0
1.115,1.2589e-05,0
1.1155,3.0045e-05,0
1.116,4.683e-05,0
1.1165,5.153e-05,0
1.117,4.5823e-05,0
1.1175,4.1795e-05,0
1.118,4.3305e-05,0
1.1185,4.8173e-05,0
1.119,4.2802e-05,0
1.1195,2.7863e-05,0
1.12,1.1078e-05,0
1.1205,6.8818e-06,0
1.121,1.2253e-05,0
1.1215,1.5274e-05,0
1.122,1.3092e-05,0
1.1225,5.2033e-06,0
1.123,-5.539e-06,0
1.1235,-9.5674e-06,0
1.124,-5.539e-06,0
1.1245,4.8676e-06,0
1.125,1.7288e-05,0
1.1255,2.2828e-05,0
1.126,1.8128e-05,0
1.1265,1.1246e-05,0
1.127,1.2421e-05,0
1.1275,2.0981e-05,0
1.128,2.6017e-05,0
1.1285,3.0716e-05,0
1.129,3.9109e-05,0
1.1295,5.0523e-05,0
1.13,6.4118e-05,0
1.1305,7.0832e-05,0
1.131,6.8818e-05,0
1.1315,6.4958e-05,0
1.132,6.1601e-05,0
1.1325,5.3544e-05,0
1.133,3.7934e-05,0
1.1335,1.7121e-05,0
1.134,-7.7211e-06,0
1.1345,-2.4338e-05,0
1.135,-2.2156e-05,0
1.1355,-1.1246e-05,0
1.136,-9.0639e-06,0
1.1365,-6.714e-06,0
1.137,1.3932e-05,0
1.1375,4.5151e-05,0
1.138,6.1097e-05,0
1.1385,5.388e-05,0
1.139,4.4144e-05,0
1.1395,5.2201e-05,0
1.14,6.7475e-05,0
1.1405,6.1601e-05,0
1.141,4.1459e-05,0
1.1415,3.2563e-05,0
1.142,3.8605e-05,0
1.1425,4.8005e-05,0
1.143,5.0858e-05,0
1.1435,4.3473e-05,0
1.144,2.9542e-05,0
1.1445,1.6617e-05,0
1.145,1.5274e-05,0
1.1455,2.8031e-05,0
1.146,4.2802e-05,0
1.1465,5.0187e-05,0
1.147,4.8844e-05,0
1.1475,3.743e-05,0
1.148,2.4002e-05,0
1.1485,2.0646e-05,0
1.149,2.1317e-05,0
1.1495,1.7624e-05,0
1.15,5.0355e-06,0
1.1505,-1.2253e-05,0
1.151,-3.7766e-05,0
1.1515,-6.244e-05,0
1.152,-5.9922e-05,0
1.1525,-4.0619e-05,0
1.153,-4.1962e-05,0
1.1535,-6.3951e-05,0
1.154,-7.1336e-05,0
1.1545,-4.8341e-05,0
1.155,-2.182e-05,0
1.1555,-1.7121e-05,0
1.156,-3.2395e-05,0
1.1565,-4.8508e-05,0
1.157,-4.4816e-05,0
1.1575,-3.1388e-05,0
1.158,-2.6017e-05,0
1.1585,-2.3331e-05,0
1.159,-1.561e-05,0
1.1595,1.6785e-06,0
1.16,1.9638e-05,0
1.1605,3.1556e-05,0
1.161,4.5487e-05,0
1.1615,5.7237e-05,0
1.162,6.0258e-05,0
1.1625,6.244e-05,0
1.163,7.0664e-05,0
1.1635,8.04e-05,0
1.164,8.04e-05,0
1.1645,6.8482e-05,0
1.165,4.8173e-05,0
1.1655,3.2395e-05,0
1.166,2.9038e-05,0
1.1665,3.2059e-05,0
1.167,3.0381e-05,0
1.1675,2.7359e-05,0
1.168,2.9374e-05,0
1.1685,3.5416e-05,0
1.169,4.9515e-05,0
1.1695,7.7546e-05,0
1.17,0.00010591,0
1.1705,0.00011397,0
1.171,0.00010491,0
1.1715,9.3324e-05,0
1.172,8.7114e-05,0
1.1725,8.3757e-05,0
1.173,7.4021e-05,0
1.1735,5.7908e-05,0
1.174,3.2395e-05,0
1.1745,-3.6927e-06,0
1.175,-2.9374e-05,0
1.1755,-2.4338e-05,0
1.176,-4.5319e-06,0
1.1765,6.8818e-06,0
1.177,7.8889e-06,0
1.1775,8.3925e-06,0
1.178,7.7211e-06,0
1.1785,3.5248e-06,0
1.179,2.5177e-06,0
1.1795,8.7282e-06,0
1.18,1.8296e-05,0
1.1805,2.1317e-05,0
1.181,1.2085e-05,0
1.1815,-6.2104e-06,0
1.182,-1.8967e-05,0
1.1825,-1.561e-05,0
1.183,-1.4939e-05,0
1.1835,-2.9038e-05,0
1.184,-4.0955e-05,0
1.1845,-3.5416e-05,0
1.185,-1.5946e-05,0
1.1855,3.5248e-06,0
1.186,1.4603e-05,0
1.1865,2.1149e-05,0
1.187,3.2731e-05,0
1.1875,5.0187e-05,0
1.188,7.3854e-05,0
1.1885,9.3492e-05,0
1.189,8.7114e-05,0
1.1895,5.8915e-05,0
1.19,3.6423e-05,0
1.1905,3.1052e-05,0
1.191,3.743e-05,0
1.1915,4.6662e-05,0
1.192,5.2872e-05,0
1.1925,4.2298e-05,0
1.193,1.3092e-05,0
1.1935,-1.3092e-05,0
1.194,-3.2059e-05,0
1.1945,-4.7501e-05,0
1.195,-5.1194e-05,0
1.1955,-3.1724e-05,0
1.196,-1.1749e-06,0
1.1965,1.326e-05,0
1.197,4.6998e-06,0
1.1975,8.392e-07,0
1.198,2.5345e-05,0
1.1985,7.1839e-05,0
1.199,0.00011095,0
1.1995,0.0001237,0
1.2,0.00012186,0
1.2005,0.00011598,0
1.201,0.00010323,0
1.2015,7.8889e-05,0
1.202,4.8005e-05,0
1.2025,2.6352e-05,0
1.203,2.3499e-05,0
1.2035,4.2802e-05,0
1.204,7.57e-05,0
1.2045,8.4428e-05,0
1.205,5.8579e-05,0
1.2055,2.5849e-05,0
1.206,1.8463e-06,0
1.2065,-2.4002e-05,0
1.207,-5.4551e-05,0
1.2075,-8.1743e-05,0
1.208,-0.00010658,0
1.2085,-0.00012958,0
1.209,-0.00015627,0
1.2095,-0.00018312,0
1.21,-0.00018749,0
1.2105,-0.00015459,0
1.211,-0.00010658,0
1.2115,-7.5364e-05,0
1.212,-6.63e-05,0
1.2125,-6.3447e-05,0
1.213,-4.8844e-05,0
1.2135,-2.887e-05,0
1.214,-1.4267e-05,0
1.2145,-2.182e-06,0
1.215,1.1078e-05,0
1.2155,2.6688e-05,0
1.216,4.213e-05,0
1.2165,5.6901e-05,0
1.217,6.4286e-05,0
1.2175,6.63e-05,0
1.218,7.3014e-05,0
1.2185,8.0232e-05,0
1.219,8.5603e-05,0
1.2195,9.1142e-05,0
1.22,9.6513e-05,0
1.2205,0.00010088,0
1.221,9.7688e-05,0
1.2215,9.7185e-05,0
1.222,0.00010658,0
1.2225,0.00011229,0
1.223,0.00010457,0
1.2235,9.0974e-05,0
1.224,7.956e-05,0
1.2245,7.335e-05,0
1.225,5.4887e-05,0
1.2255,1.8631e-05,0
1.226,-1.4603e-05,0
1.2265,-3.0716e-05,0
1.227,-4.1123e-05,0
1.2275,-6.4622e-05,0
1.228,-9.3828e-05,0
1.2285,-9.8863e-05,0
1.229,-7.2679e-05,0
1.2295,-3.6759e-05,0
1.23,3.1891e-06,0
1.2305,5.153e-05,0
1.231,9.5338e-05,0
1.2315,0.00012001,0
1.232,0.00012438,0
1.2325,0.00011296,0
1.233,0.00010188,0
1.2335,9.6178e-05,0
1.234,8.51e-05,0
1.2345,6.6468e-05,0
1.235,4.3473e-05,0
1.2355,1.7624e-05,0
1.236,-1.091e-05,0
1.2365,-3.5752e-05,0
1.237,-5.069e-05,0
1.2375,-4.6159e-05,0
1.238,-3.1724e-05,0
1.2385,-2.7695e-05,0
1.239,-2.7024e-05,0
1.2395,-1.4603e-05,0
1.24,6.3783e-06,0
1.2405,2.0646e-05,0
1.241,3.6927e-05,0
1.2415,7.3686e-05,0
1.242,0.0001138,0
1.2425,0.00012589,0
1.243,0.00012303,0
1.2435,0.00013176,0
1.244,0.00015325,0
1.2445,0.00018312,0
1.245,0.00020092,0
1.2455,0.00017708,0
1.246,0.0001086,0
1.2465,2.6688e-05,0
1.247,-2.7024e-05,0
1.2475,-4.6662e-05,0
1.248,-5.6901e-05,0
1.2485,-6.9993e-05,0
1.249,-8.4428e-05,0
1.2495,-0.00010222,0
1.25,-0.0001138,0
1.2505,-0.00010205,0
1.251,-7.2343e-05,0
1.2515,-3.0213e-05,0
1.252,1.1414e-05,0
1.2525,3.2059e-05,0
1.253,3.4577e-05,0
1.2535,2.9374e-05,0
1.254,3.2395e-05,0
1.2545,3.1388e-05,0
1.255,1.6281e-05,0
1.2555,5.8747e-06,0
1.256,6.714e-07,0
1.2565,-2.6688e-05,0
1.257,-7.956e-05,0
1.2575,-0.00013008,0
1.258,-0.00014754,0
1.2585,-0.0001331,0
1.259,-0.00010961,0
1.2595,-9.3492e-05,0
1.26,-7.5532e-05,0
1.2605,-3.978e-05,0
1.261,-2.5177e-06,0
1.2615,2.6017e-05,0
1.262,6.1936e-05,0
1.2625,0.00012136,0
1.263,0.00019588,0
1.2635,0.00026302,0
1.264,0.00028954,0
1.2645,0.00026503,0
1.265,0.00019387,0
1.2655,0.00010289,0
1.266,2.4842e-05,0
1.2665,-3.8102e-05,0
1.267,-0.0001044,0
1.2675,-0.00016483,0
1.268,-0.00019622,0
1.2685,-0.00019739,0
1.269,-0.00018195,0
1.2695,-0.00016902,0
1.27,-0.00016584,0
1.2705,-0.00014653,0
1.271,-9.0471e-05,0
1.2715,-2.9709e-05,0
1.272,1.8463e-06,0
1.2725,1.561e-05,0
1.273,3.1891e-05,0
1.2735,5.6062e-05,0
1.274,8.1743e-05,0
1.2745,0.00010121,0
1.275,0.00011347,0
1.2755,0.00012505,0
1.276,0.00014418,0
1.2765,0.00018111,0
1.277,0.00022391,0
1.2775,0.00025379,0
1.278,0.00026571,0
1.2785,0.0002459,0
1.279,0.0001848,0
1.2795,9.0135e-05,0
1.28,-9.5674e-06,0
1.2805,-8.2078e-05,0
1.281,-0.00012186,0
1.2815,-0.00013881,0
1.282,-0.00014452,0
1.2825,-0.00015056,0
1.283,-0.00014771,0
1.2835,-0.00012522,0
1.284,-9.1478e-05,0
1.2845,-6.5629e-05,0
1.285,-4.9515e-05,0
1.2855,-2.4002e-05,0
1.286,1.7121e-05,0
1.2865,5.8076e-05,0
1.287,7.9057e-05,0
1.2875,8.3757e-05,0
1.288,8.6946e-05,0
1.2885,8.7114e-05,0
1.289,8.3085e-05,0
1.2895,8.6442e-05,0
1.29,0.00010088,0
1.2905,0.00011531,0
1.291,0.00010776,0
1.2915,7.2847e-05,0
1.292,3.7262e-05,0
1.2925,2.1988e-05,0
1.293,2.652e-05,0
1.2935,3.7934e-05,0
1.294,4.2802e-05,0
1.2945,3.9109e-05,0
1.295,3.827e-05,0
1.2955,4.2466e-05,0
1.296,4.1123e-05,0
1.2965,3.6759e-05,0
1.297,4.2802e-05,0
1.2975,6.0761e-05,0
1.298,7.1e-05,0
1.2985,6.3951e-05,0
1.299,5.4551e-05,0
1.2995,5.5726e-05,0
1.3,7.335e-05,0
1.3005,9.6178e-05,0
1.301,0.00010407,0
1.3015,9.3828e-05,0
1.302,7.9393e-05,0
1.3025,8.1743e-05,0
1.303,0.00010256,0
1.3035,0.00013193,0
1.304,0.00015543,0
1.3045,0.00014469,0
1.305,9.2821e-05,0
1.3055,3.0716e-05,0
1.306,-1.4939e-05,0
1.3065,-2.5345e-05,0
1.307,-1.4603e-05,0
1.3075,-1.8967e-05,0
1.308,-4.7837e-05,0
1.3085,-9.3156e-05,0
1.309,-0.00014485,0
1.3095,-0.00018245,0
1.31,-0.00018581,0
1.3105,-0.00015341,0
1.311,-0.00012706,0
1.3115,-0.00012605,0
1.312,-0.00012035,0
1.3125,-0.00011498,0
1.313,-0.00011984,0
1.3135,-0.00012471,0
1.314,-0.00010457,0
1.3145,-6.3951e-05,0
1.315,-8.896e-06,0
1.3155,6.5461e-05,0
1.316,0.00013243,0
1.3165,0.00016768,0
1.317,0.00016869,0
1.3175,0.00014267,0
1.318,0.00011044,0
1.3185,6.9657e-05,0
1.319,8.2246e-06,0
1.3195,-5.5222e-05,0
1.32,-0.00010121,0
1.3205,-0.00011397,0
1.321,-8.4764e-05,0
1.3215,-4.0452e-05,0
1.322,-3.8605e-06,0
1.3225,3.1891e-05,0
1.323,6.8986e-05,0
1.3235,9.6849e-05,0
1.324,0.00010877,0
1.3245,0.00011246,0
1.325,0.0001138,0
1.3255,0.00010726,0
1.326,7.7714e-05,0
1.3265,2.9038e-05,0
1.327,8.3925e-06,0
1.3275,4.5487e-05,0
1.328,0.00010726,0
1.3285,0.00016063,0
1.329,0.00017708,0
1.3295,0.00017943,0
1.33,0.00019974,0
1.3305,0.00024002,0
1.331,0.00026688,0
1.3315,0.00025261,0
1.332,0.00020931,0
1.3325,0.00015291,0
1.333,7.7714e-05,0
1.3335,-1.796e-05,0
1.334,-9.9367e-05,0
1.3345,-0.00015929,0
1.335,-0.00021267,0
1.3355,-0.00026151,0
1.336,-0.00030867,0
1.3365,-0.00033671,0
1.337,-0.00032764,0
1.3375,-0.00030179,0
1.338,-0.00028165,0
1.3385,-0.00027276,0
1.339,-0.00025949,0
1.3395,-0.0002407,0
1.34,-0.00021888,0
1.3405,-0.00020226,0
1.341,-0.00018094,0
1.3415,-0.00014099,0
1.342,-8.1575e-05,0
1.3425,8.2246e-06,0
1.343,0.00011028,0
1.3435,0.00018178,0
1.344,0.00021199,0
1.3445,0.00020192,0
1.345,0.00016231,0
1.3455,0.00011632,0
1.346,7.5868e-05,0
1.3465,6.8818e-05,0
1.347,9.6178e-05,0
1.3475,0.00010524,0
1.348,8.4093e-05,0
1.3485,6.8315e-05,0
1.349,7.57e-05,0
1.3495,0.00010188,0
1.35,0.0001472,0
1.3505,0.00021434,0
1.351,0.0002976,0
1.3515,0.00036373,0
1.352,0.0003738,0
1.3525,0.00033083,0
1.353,0.00028299,0
1.3535,0.0002454,0
1.354,0.00019588,0
1.3545,0.00013915,0
1.355,7.6707e-05,0
1.3555,-8.392e-07,0
1.356,-8.275e-05,0
1.3565,-0.00013713,0
1.357,-0.00012068,0
1.3575,-4.8005e-05,0
1.358,2.3331e-05,0
1.3585,8.1407e-05,0
1.359,0.00012136,0
1.3595,0.00011078,0
1.36,6.4286e-05,0
1.3605,1.1582e-05,0
1.361,-8.0735e-05,0
1.3615,-0.00021283,0
1.362,-0.00028887,0
1.3625,-0.00027897,0
1.363,-0.00024573,0
1.3635,-0.00023348,0
1.364,-0.00024674,0
1.3645,-0.00025429,0
1.365,-0.00022274,0
1.3655,-0.00012136,0
1.366,2.5009e-05,0
1.3665,0.0001185,0
1.367,0.0001274,0
1.3675,0.00010625,0
1.368,0.00010172,0
1.3685,0.00010658,0
1.369,9.3156e-05,0
1.3695,3.2059e-05,0
1.37,-6.5797e-05,0
1.3705,-0.0001368,0
1.371,-0.00014788,0
1.3715,-0.00010658,0
1.372,-3.9109e-05,0
1.3725,4.1123e-05,0
1.373,0.00011498,0
1.3735,0.00015476,0
1.374,0.00014687,0
1.3745,0.00012689,0
1.375,0.00014116,0
1.3755,0.00018245,0
1.376,0.00020864,0
1.3765,0.00020394,0
1.377,0.00017675,0
1.3775,0.00013545,0
1.378,7.8889e-05,0
1.3785,9.5674e-06,0
1.379,-4.1795e-05,0
1.3795,-5.9754e-05,0
1.38,-7.7714e-05,0
1.3805,-0.00010574,0
1.381,-0.00012387,0
1.3815,-0.00012706,0
1.382,-0.00010373,0
1.3825,-4.448e-05,0
1.383,3.0213e-05,0
1.3835,9.3156e-05,0
1.384,0.00013982,0
1.3845,0.00017775,0
1.385,0.00020729,0
1.3855,0.00021703,0
1.386,0.00020209,0
1.3865,0.00018917,0
1.387,0.00022408,0
1.3875,0.00031875,0
1.388,0.00039797,0
1.3885,0.00038253,0
1.389,0.00026571,0
1.3895,0.00011699,0
1.39,2.182e-06,0
1.3905,-4.5319e-05,0
1.391,-5.0523e-05,0
1.3915,-3.508e-05,0
1.392,-4.2298e-05,0
1.3925,-0.00011363,0
1.393,-0.00021267,0
1.3935,-0.00028685,0
1.394,-0.00030632,0
1.3945,-0.0002751,0
1.395,-0.00023969,0
1.3955,-0.00023919,0
1.396,-0.00024858,0
1.3965,-0.00022425,0
1.397,-0.00017691,0
1.3975,-0.00014871,0
1.398,-0.00014553,0
1.3985,-0.00014569,0
1.399,-0.00019168,0
1.3995,-0.00030767,0
1.4,-0.00037699,0
1.4005,-0.00030549,0
1.401,-0.00012723,0
1.4015,5.9922e-05,0
1.402,0.00019588,0
1.4025,0.00029961,0
1.403,0.00036407,0
1.4035,0.00038975,0
1.404,0.00040905,0
1.4045,0.00041946,0
1.405,0.00039059,0
1.4055,0.00031489,0
1.406,0.00022173,0
1.4065,0.00013277,0
1.407,3.2395e-05,0
1.4075,-3.4409e-05,0
1.408,-8.2246e-06,0
1.4085,6.1433e-05,0
1.409,0.0001044,0
1.4095,0.00011901,0
1.41,0.00013747,0
1.4105,0.00015023,0
1.411,0.00012773,0
1.4115,6.4286e-05,0
1.412,-6.5461e-06,0
1.4125,-5.2537e-05,0
1.413,-1.3932e-05,0
1.4135,9.2989e-05,0
1.414,0.00016902,0
1.4145,0.00017037,0
1.415,0.00011867,0
1.4155,3.4073e-05,0
1.416,-5.7237e-05,0
1.4165,-0.00012773,0
1.417,-0.00016735,0
1.4175,-0.00018698,0
1.418,-0.00020511,0
1.4185,-0.00022492,0
1.419,-0.00029004,0
1.4195,-0.00038404,0
1.42,-0.00040066,0
1.4205,-0.00030884,0
1.421,-0.00016835,0
1.4215,-4.3641e-05,0
1.422,3.8773e-05,0
1.4225,8.2078e-05,0
1.423,0.00011531,0
1.4235,0.00015425,0
1.424,0.00019118,0
1.4245,0.00020964,0
1.425,0.00020108,0
1.4255,0.00016097,0
1.426,9.5003e-05,0
1.4265,3.0213e-05,0
1.427,-8.392e-07,0
1.4275,-1.5946e-05,0
1.428,-4.4816e-05,0
1.4285,-8.5771e-05,0
1.429,-0.00012119,0
1.4295,-0.00012522,0
1.43,-8.3085e-05,0
1.4305,-1.5778e-05,0
1.431,2.5345e-05,0
1.4315,4.2298e-05,0
1.432,7.7043e-05,0
1.4325,0.00012874,0
1.433,0.00019135,0
1.4335,0.00027276,0
1.434,0.00032647,0
1.4345,0.00033956,0
1.435,0.00033654,0
1.4355,0.00031237,0
1.436,0.00027578,0
1.4365,0.00023146,0
1.437,0.00014955,0
1.4375,6.7643e-05,0
1.438,4.2634e-05,0
1.4385,5.388e-05,0
1.439,4.0452e-05,0
1.4395,-1.6953e-05,0
1.44,-7.3014e-05,0
1.4405,-0.00010423,0
1.441,-0.0001232,0
1.4415,-0.00013713,0
1.442,-0.00017205,0
1.4425,-0.00023432,0
1.443,-0.00027678,0
1.4435,-0.00027074,0
1.444,-0.00024103,0
1.4445,-0.00024489,0
1.445,-0.00027141,0
1.4455,-0.00025328,0
1.446,-0.00016869,0
1.4465,-5.2033e-05,0
1.447,6.2944e-05,0
1.4475,0.00012656,0
1.448,0.00013327,0
1.4485,0.00015023,0
1.449,0.00018447,0
1.4495,0.00019101,0
1.45,0.00015526,0
1.4505,9.1142e-05,0
1.451,2.0142e-05,0
1.4515,-3.8773e-05,0
1.452,-7.8721e-05,0
1.4525,-0.00011196,0
1.453,-0.00015392,0
1.4535,-0.00019857,0
1.454,-0.00022475,0
1.4545,-0.00021233,0
1.455,-0.0001467,0
1.4555,-5.4719e-05,0
1.456,1.9974e-05,0
1.4565,6.3615e-05,0
1.457,0.00010574,0
1.4575,0.00015761,0
1.458,0.00019521,0
1.4585,0.00020595,0
1.459,0.00019823,0
1.4595,0.0001937,0
1.46,0.00019319,0
1.4605,0.00018766,0
1.461,0.00018212,0
1.4615,0.00018883,0
1.462,0.00019655,0
1.4625,0.00021468,0
1.463,0.00025866,0
1.4635,0.00029155,0
1.464,0.00027074,0
1.4645,0.00024741,0
1.465,0.00029256,0
1.4655,0.00036574,0
1.466,0.0003973,0
1.4665,0.00037917,0
1.467,0.00033285,0
1.4675,0.00025228,0
1.468,0.00010323,0
1.4685,-8.0735e-05,0
1.469,-0.00020293,0
1.4695,-0.00024472,0
1.47,-0.00026688,0
1.4705,-0.00033452,0
1.471,-0.00040569,0
1.4715,-0.00041543,0
1.472,-0.00041778,0
1.4725,-0.00041828,0
1.473,-0.00033201,0
1.4735,-0.00018346,0
1.474,-0.00010826,0
1.4745,-0.00014183,0
1.475,-0.00023516,0
1.4755,-0.00031556,0
1.476,-0.00031589,0
1.4765,-0.00026252,0
1.477,-0.00025127,0
1.4775,-0.00030314,0
1.478,-0.00031942,0
1.4785,-0.0002501,0
1.479,-0.00014687,0
1.4795,-4.7501e-05,0
1.48,4.683e-05,0
1.4805,0.00011078,0
1.481,0.00012689,0
1.4815,0.00011666,0
1.482,0.00012136,0
1.4825,0.000165,0
1.483,0.00024288,0
1.4835,0.00035903,0
1.484,0.00052168,0
1.4845,0.00062625,0
1.485,0.00057589,0
1.4855,0.00046007,0
1.486,0.00040468,0
1.4865,0.00039562,0
1.487,0.00035433,0
1.4875,0.00026604,0
1.488,0.00014771,0
1.4885,2.8367e-05,0
1.489,-5.3376e-05,0
1.4895,-6.9154e-05,0
1.49,-5.4215e-05,0
1.4905,-6.1769e-05,0
1.491,-9.3492e-05,0
1.4915,-8.1743e-05,0
1.492,-1.5106e-06,0
1.4925,4.6159e-05,0
1.493,2.3499e-06,0
1.4935,-8.7282e-05,0
1.494,-0.00015392,0
1.4945,-0.00018128,0
1.495,-0.00020075,0
1.4955,-0.0002224,0
1.496,-0.00023079,0
1.4965,-0.00022307,0
1.497,-0.00020092,0
1.4975,-0.00017272,0
1.498,-0.00013881,0
1.4985,-9.5842e-05,0
1.499,-4.2634e-05,0
1.4995,3.1052e-05,0
1.5,0.00010289,0
1.5005,0.000165,0
1.501,0.00022274,0
1.5015,0.00026302,0
1.502,0.00027829,0
1.5025,0.00023264,0
1.503,0.00013277,0
1.5035,3.9445e-05,0
1.504,-2.5681e-05,0
1.5045,-7.6204e-05,0
1.505,-9.7185e-05,0
1.5055,-7.2679e-05,0
1.506,-3.0884e-05,0
1.5065,-8.896e-06,0
1.507,7.2175e-06,0
1.5075,2.1988e-05,0
1.508,2.5345e-05,0
1.5085,2.8367e-05,0
1.509,2.6184e-05,0
1.5095,5.035e-07,0
1.51,-4.3137e-05,0
1.5105,-7.2007e-05,0
1.511,-8.6946e-05,0
1.5115,-0.00012673,0
1.512,-0.00017557,0
1.5125,-0.0001744,0
1.513,-9.987e-05,0
1.5135,4.5319e-06,0
1.514,7.4357e-05,0
1.5145,9.2317e-05,0
1.515,8.0735e-05,0
1.5155,6.7979e-05,0
1.516,7.6036e-05,0
1.5165,0.00011632,0
1.517,0.00017708,0
1.5175,0.00021468,0
1.518,0.00019857,0
1.5185,0.00013277,0
1.519,4.5487e-05,0
1.5195,-2.1653e-05,0
1.52,-2.9374e-05,0
1.5205,9.2317e-06,0
1.521,5.3544e-05,0
1.5215,8.3757e-05,0
1.522,0.00010105,0
1.5225,0.00011632,0
1.523,0.00014116,0
1.5235,0.00018396,0
1.524,0.00021535,0
1.5245,0.00023079,0
1.525,0.00028048,0
1.5255,0.00038085,0
1.526,0.00045336,0
1.5265,0.00043658,0
1.527,0.0003644,0
1.5275,0.00033016,0
1.528,0.00039461,0
1.5285,0.00045235,0
1.529,0.0003503,0
1.5295,0.00012136,0
1.53,-0.00010423,0
1.5305,-0.00028518,0
1.531,-0.00040301,0
1.5315,-0.00043053,0
1.532,-0.00038824,0
1.5325,-0.00033771,0
1.533,-0.00029491,0
1.5335,-0.00025026,0
1.534,-0.00024758,0
1.5345,-0.00029122,0
1.535,-0.00030867,0
1.5355,-0.00027594,0
1.536,-0.00025026,0
1.5365,-0.0002459,0
1.537,-0.00024221,0
1.5375,-0.00024691,0
1.538,-0.00022139,0
1.5385,-0.00013126,0
1.539,8.896e-06,0
1.5395,0.0001509,0
1.54,0.00023851,0
1.5405,0.00024355,0
1.541,0.00019655,0
1.5415,0.00012589,0
1.542,2.7695e-05,0
1.5425,-8.1407e-05,0
1.543,-0.00017641,0
1.5435,-0.00023818,0
1.544,-0.0002788,0
1.5445,-0.00033989,0
1.545,-0.00038454,0
1.5455,-0.00033234,0
1.546,-0.00020175,0
1.5465,-9.5171e-05,0
1.547,-4.7166e-05,0
1.5475,5.3712e-06,0
1.548,9.2149e-05,0
1.5485,0.00016936,0
1.549,0.00021971,0
1.5495,0.00027712,0
1.55,0.00036776,0
1.5505,0.00043154,0
1.551,0.00042315,0
1.5515,0.00037044,0
1.552,0.00031388,0
1.5525,0.00026957,0
1.553,0.00022911,0
1.5535,0.00017288,0
1.554,8.8792e-05,0
1.5545,-2.8534e-06,0
1.555,-9.0471e-05,0
1.5555,-0.00016197,0
1.556,-0.0001608,0
1.5565,-9.8192e-05,0
1.557,-4.7837e-05,0
1.5575,-3.2563e-05,0
1.558,-2.6017e-05,0
1.5585,8.7282e-06,0
1.559,6.6972e-05,0
1.5595,0.00010188,0
1.56,0.00011531,0
1.5605,0.00011363,0
1.561,7.7043e-05,0
1.5615,2.1988e-05,0
1.562,-1.091e-05,0
1.5625,-2.6688e-05,0
1.563,-3.4745e-05,0
1.5635,-2.182e-05,0
1.564,5.8747e-06,0
1.5645,5.7069e-06,0
1.565,-2.8031e-05,0
1.5655,-3.827e-05,0
1.566,1.5778e-05,0
1.5665,9.9199e-05,0
1.567,0.00014653,0
1.5675,0.00011934,0
1.568,4.683e-05,0
1.5685,-1.1749e-05,0
1.569,-3.8773e-05,0
1.5695,-3.357e-05,0
1.57,-1.9974e-05,0
1.5705,-1.9303e-05,0
1.571,-9.0639e-06,0
1.5715,4.8676e-06,0
1.572,6.244e-05,0
1.5725,0.00018849,0
1.573,0.00033285,0
1.5735,0.00044967,0
1.574,0.00044799,0
1.5745,0.00029911,0
1.575,0.00011112,0
1.5755,-3.8941e-05,0
1.576,-0.00015929,0
1.5765,-0.00027225,0
1.577,-0.00033805,0
1.5775,-0.00033922,0
1.578,-0.00030364,0
1.5785,-0.00024506,0
1.579,-0.0001754,0
1.5795,-0.00012085,0
1.58,-0.00010373,0
1.5805,-0.00010289,0
1.581,-9.5171e-05,0
1.5815,-8.8457e-05,0
1.582,-8.7785e-05,0
1.5825,-8.3253e-05,0
1.583,-9.5171e-05,0
1.5835,-0.00012169,0
1.584,-0.00011162,0
1.5845,-4.9851e-05,0
1.585,3.1388e-05,0
1.5855,0.00010491,0
1.586,0.00015694,0
1.5865,0.0001989,0
1.587,0.00025194,0
1.5875,0.00028769,0
1.588,0.00025429,0
1.5885,0.00018581,0
1.589,0.00012975,0
1.5895,0.00012941,0
1.59,0.00023616,0
1.5905,0.00041274,0
1.591,0.00052218,0
1.5915,0.00049935,0
1.592,0.00041878,0
1.5925,0.00035064,0
1.593,0.00026705,0
1.5935,0.0001415,0
1.594,-6.8818e-06,0
1.5945,-0.0001556,0
1.595,-0.00030398,0
1.5955,-0.00043322,0
1.596,-0.00051228,0
1.5965,-0.00051412,0
1.597,-0.00043003,0
1.5975,-0.00031774,0
1.598,-0.00024724,0
1.5985,-0.00019554,0
1.599,-6.4622e-05,0
1.5995,0.00012773,0
1.6,0.00026906,0
1.6005,0.0003023,0
1.601,0.00026436,0
1.6015,0.00023952,0
1.602,0.00022525,0
1.6025,0.00019571,0
1.603,0.00014871,0
1.6035,5.6901e-05,0
1.604,-5.9922e-05,0
1.6045,-0.0001561,0
1.605,-0.00023532,0
1.6055,-0.00028064,0
1.606,-0.00027947,0
1.6065,-0.00027074,0
1.607,-0.00026604,0
1.6075,-0.00024321,0
1.608,-0.00018379,0
1.6085,-0.00010021,0
1.609,-2.2828e-05,0
1.6095,3.508e-05,0
1.61,0.00010037,0
1.6105,0.00019319,0
1.611,0.00028182,0
1.6115,0.00034073,0
1.612,0.00034594,0
1.6125,0.00028786,0
1.613,0.00021132,0
1.6135,0.00015291,0
1.614,0.00010944,0
1.6145,9.7185e-05,0
1.615,6.6972e-05,0
1.6155,-7.3014e-05,0
1.616,-0.0002125,0
1.6165,-0.00018111,0
1.617,3.2563e-05,0
1.6175,0.00035702,0
1.618,0.00064572,0
1.6185,0.00075818,0
1.619,0.00071084,0
1.6195,0.00060275,0
1.62,0.00047787,0
1.6205,0.00034023,0
1.621,0.00019471,0
1.6215,2.031e-05,0
1.622,-0.00021199,0
1.6225,-0.00042718,0
1.623,-0.00053376,0
1.6235,-0.00053275,0
1.624,-0.00049113,0
1.6245,-0.00045638,0
1.625,-0.00044161,0
1.6255,-0.00046494,0
1.626,-0.00051077,0
1.6265,-0.00054316,0
1.627,-0.00052973,0
1.6275,-0.00044916,0
1.628,-0.00032898,0
1.6285,-0.00021753,0
1.629,-0.00014049,0
1.6295,-9.2989e-05,0
1.63,-5.6565e-05,0
1.6305,-2.0646e-05,0
1.631,1.2589e-05,0
1.6315,3.8605e-05,0
1.632,7.0329e-05,0
1.6325,0.00010105,0
1.633,0.00011934,0
1.6335,0.00011498,0
1.634,9.6513e-05,0
1.6345,9.0806e-05,0
1.635,0.00010558,0
1.6355,0.00012773,0
1.636,0.00014485,0
1.6365,0.00016567,0
1.637,0.00021065,0
1.6375,0.00026168,0
1.638,0.00025328,0
1.6385,0.00016265,0
1.639,6.9322e-05,0
1.6395,7.4357e-05,0
1.64,0.00016063,0
1.6405,0.00024556,0
1.641,0.0002798,0
1.6415,0.00027443,0
1.642,0.0002694,0
1.6425,0.00025748,0
1.643,0.00019286,0
1.6435,8.2078e-05,0
1.644,-8.5603e-06,0
1.6445,-4.4984e-05,0
1.645,-3.5416e-05,0
1.6455,-1.4939e-05,0
1.646,2.3499e-06,0
1.6465,4.8508e-05,0
1.647,0.00014955,0
1.6475,0.00026705,0
1.648,0.00034879,0
1.6485,0.00035702,0
1.649,0.00031908,0
1.6495,0.00029223,0
1.65,0.00027913,0
1.6505,0.0002266,0
1.651,9.7856e-05,0
1.6515,-7.6036e-05,0
1.652,-0.00022039,0
1.6525,-0.00029525,0
1.653,-0.00029155,0
1.6535,-0.00021787,0
1.654,-0.00012673,0
1.6545,-6.009e-05,0
1.655,1.3932e-05,0
1.6555,0.00010155,0
1.656,0.00015392,0
1.6565,0.00019991,0
1.657,0.00024456,0
1.6575,0.00024556,0
1.658,0.00018648,0
1.6585,9.2485e-05,0
1.659,-3.6927e-06,0
1.6595,-0.00012622,0
1.66,-0.00027208,0
1.6605,-0.00039411,0
1.661,-0.00048659,0
1.6615,-0.00057018,0
1.662,-0.00059553,0
1.6625,-0.00052805,0
1.663,-0.00042264,0
1.6635,-0.00032445,0
1.664,-0.00024623,0
1.6645,-0.00020125,0
1.665,-0.00017238,0
1.6655,-0.00013814,0
1.666,-0.0001039,0
1.6665,-6.5293e-05,0
1.667,-1.8296e-05,0
1.6675,3.2059e-05,0
1.668,6.9154e-05,0
1.6685,9.1142e-05,0
1.669,9.987e-05,0
1.6695,0.00010692,0
1.67,0.00010776,0
1.6705,7.335e-05,0
1.671,2.5009e-05,0
1.6715,-2.1149e-05,0
1.672,-3.5416e-05,0
1.6725,8.3925e-06,0
1.673,7.4861e-05,0
1.6735,0.00012807,0
1.674,0.00019303,0
1.6745,0.0002751,0
1.675,0.00035433,0
1.6755,0.00041123,0
1.676,0.00043993,0
1.6765,0.00046108,0
1.677,0.00044833,0
1.6775,0.0003931,0
1.678,0.00032294,0
1.6785,0.00023365,0
1.679,0.00017372,0
1.6795,0.00020931,0
1.68,0.00029525,0
1.6805,0.0003362,0
1.681,0.00032815,0
1.6815,0.00031069,0
1.682,0.00033889,0
1.6825,0.00038924,0
1.683,0.00034459,0
1.6835,0.00019806,0
1.684,6.7308e-05,0
1.6845,2.6352e-05,0
1.685,3.7262e-05,0
1.6855,2.4002e-05,0
1.686,-5.1026e-05,0
1.6865,-0.00018346,0
1.687,-0.000355,0
1.6875,-0.00055441,0
1.688,-0.00073451,0
1.6885,-0.00083186,0
1.689,-0.00082313,0
1.6895,-0.00073971,0
1.69,-0.00065847,0
1.6905,-0.00060896,0
1.691,-0.00053678,0
1.6915,-0.0003921,0
1.692,-0.00021602,0
1.6925,-7.2007e-05,0
1.693,2.1149e-05,0
1.6935,8.275e-05,0
1.694,0.00013613,0
1.6945,0.00019722,0
1.695,0.00026688,0
1.6955,0.00032177,0
1.696,0.00032613,0
1.6965,0.00028769,0
1.697,0.00022441,0
1.6975,0.00014754,0
1.698,8.5603e-05,0
1.6985,4.6159e-05,0
1.699,1.2085e-05,0
1.6995,-2.0478e-05,0
1.7,-2.4002e-05,0
1.7005,3.4241e-05,0
1.701,0.00013579,0
1.7015,0.00023885,0
1.702,0.00034963,0
1.7025,0.00046796,0
1.703,0.00052084,0
1.7035,0.00049767,0
1.704,0.00045537,0
1.7045,0.00039579,0
1.705,0.00028115,0
1.7055,0.00012605,0
1.706,-4.918e-05,0
1.7065,-0.00019806,0
1.707,-0.00025815,0
1.7075,-0.00026017,0
1.708,-0.00027158,0
1.7085,-0.00031237,0
1.709,-0.00032898,0
1.7095,-0.00025849,0
1.71,-0.00011598,0
1.7105,5.5055e-05,0
1.711,0.00017356,0
1.7115,0.00017339,0
1.712,0.00012673,0
1.7125,0.00014536,0
1.713,0.00023684,0
1.7135,0.00033419,0
1.714,0.00037766,0
1.7145,0.00031841,0
1.715,0.00015459,0
1.7155,-3.3738e-05,0
1.716,-0.00018279,0
1.7165,-0.00027091,0
1.717,-0.00030196,0
1.7175,-0.00030851,0
1.718,-0.00030632,0
1.7185,-0.00028803,0
1.719,-0.00025866,0
1.7195,-0.00022475,0
1.72,-0.00019034,0
1.7205,-0.00015879,0
1.721,-0.00012673,0
1.7215,-9.3324e-05,0
1.722,-6.7308e-05,0
1.7225,-3.9109e-05,0
1.723,6.5461e-06,0
1.7235,6.2944e-05,0
1.724,0.00010323,0
1.7245,0.00012001,0
1.725,0.00013176,0
1.7255,0.00014183,0
1.726,0.00013948,0
1.7265,0.00011464,0
1.727,8.745e-05,0
1.7275,8.51e-05,0
1.728,0.00010323,0
1.7285,0.00011666,0
1.729,9.3156e-05,0
1.7295,3.4409e-05,0
1.73,-2.2995e-05,0
1.7305,-4.5823e-05,0
1.731,-4.5319e-05,0
1.7315,-3.7766e-05,0
1.732,-1.3596e-05,0
1.7325,2.5345e-05,0
1.733,5.0858e-05,0
1.7335,4.5487e-05,0
1.734,5.7404e-05,0
1.7345,0.00010188,0
1.735,0.00010037,0
1.7355,6.2776e-05,0
1.736,7.8889e-05,0
1.7365,0.00018077,0
1.737,0.00034459,0
1.7375,0.00052016,0
1.738,0.00064421,0
1.7385,0.00070715,0
1.739,0.00066049,0
1.7395,0.00047988,0
1.74,0.00026,0
1.7405,7.335e-05,0
1.741,-0.00011514,0
1.7415,-0.00032378,0
1.742,-0.00052638,0
1.7425,-0.00066401,0
1.743,-0.00069657,0
1.7435,-0.00063682,0
1.744,-0.00054551,0
1.7445,-0.00044346,0
1.745,-0.00029088,0
1.7455,-8.1743e-05,0
1.746,0.00012673,0
1.7465,0.00023885,0
1.747,0.00020595,0
1.7475,7.6707e-05,0
1.748,-5.8412e-05,0
1.7485,-0.00016231,0
1.749,-0.00021854,0
1.7495,-0.0002078,0
1.75,-0.00014653,0
1.7505,-6.0761e-05,0
1.751,1.5946e-05,0
1.7515,6.1601e-05,0
1.752,7.335e-05,0
1.7525,6.5293e-05,0
1.753,3.3402e-05,0
1.7535,-1.7288e-05,0
1.754,-5.5222e-05,0
1.7545,-6.0594e-05,0
1.755,-1.8296e-05,0
1.7555,4.7501e-05,0
1.756,9.1478e-05,0
1.7565,0.00010054,0
1.757,0.00013445,0
1.7575,0.00020159,0
1.758,0.00025093,0
1.7585,0.00025698,0
1.759,0.00023919,0
1.7595,0.00020763,0
1.76,0.0001331,0
1.7605,8.4596e-05,0
1.761,0.00015795,0
1.7615,0.00030448,0
1.762,0.00038656,0
1.7625,0.00036608,0
1.763,0.00032009,0
1.7635,0.00029525,0
1.764,0.00020729,0
1.7645,2.652e-05,0
1.765,-0.00017121,0
1.7655,-0.0002548,0
1.766,-0.00015845,0
1.7665,-2.5849e-05,0
1.767,6.1265e-05,0
1.7675,0.0001321,0
1.768,0.00016768,0
1.7685,0.00012689,0
1.769,1.6785e-05,0
1.7695,-0.00013579,0
1.77,-0.00027997,0
1.7705,-0.00038941,0
1.771,-0.00051597,0
1.7715,-0.00064202,0
1.772,-0.0006912,0
1.7725,-0.00062188,0
1.773,-0.00049046,0
1.7735,-0.00038404,0
1.774,-0.00026973,0
1.7745,-7.3182e-05,0
1.775,0.00017641,0
1.7755,0.00039193,0
1.776,0.00053292,0
1.7765,0.0005826,0
1.777,0.00055709,0
1.7775,0.00050338,0
1.778,0.00043288,0
1.7785,0.00032747,0
1.779,0.00019118,0
1.7795,5.6901e-05,0
1.78,-3.3066e-05,0
1.7805,-6.009e-05,0
1.781,-4.7166e-05,0
1.7815,-2.5345e-05,0
1.782,-2.2492e-05,0
1.7825,-3.1891e-05,0
1.783,-3.7262e-05,0
1.7835,-2.8702e-05,0
1.784,-3.5248e-06,0
1.7845,3.9109e-05,0
1.785,8.1407e-05,0
1.7855,8.3085e-05,0
1.786,7.9728e-05,0
1.7865,7.8553e-05,0
1.787,9.0806e-05,0
1.7875,0.00022509,0
1.788,0.0004594,0
1.7885,0.00058462,0
1.789,0.00052084,0
1.7895,0.0003931,0
1.79,0.00029122,0
1.7905,0.00018077,0
1.791,2.1149e-05,0
1.7915,-0.00019924,0
1.792,-0.00044681,0
1.7925,-0.00059452,0
1.793,-0.00054887,0
1.7935,-0.00036474,0
1.794,-0.00018816,0
1.7945,-8.7785e-05,0
1.795,-2.3835e-05,0
1.7955,3.5248e-06,0
1.796,-6.2272e-05,0
1.7965,-0.00014351,0
1.797,-0.00012505,0
1.7975,-2.8367e-05,0
1.798,6.63e-05,0
1.7985,0.00010188,0
1.799,6.6972e-05,0
1.7995,-1.3764e-05,0
1.8,-0.00010524,0
1.8005,-0.00017523,0
1.801,-0.00026906,0
1.8015,-0.00039025,0
1.802,-0.00045689,0
1.8025,-0.00041895,0
1.803,-0.00033419,0
1.8035,-0.00025899,0
1.804,-0.00015358,0
1.8045,3.2059e-05,0
1.805,0.00024019,0
1.8055,0.00036893,0
1.806,0.00039663,0
1.8065,0.00036944,0
1.807,0.00031975,0
1.8075,0.00024825,0
1.808,0.00015492,0
1.8085,6.3783e-05,0
1.809,5.0355e-06,0
1.8095,-5.539e-06,0
1.81,2.1988e-05,0
1.8105,4.0787e-05,0
1.811,2.1653e-05,0
1.8115,-1.091e-05,0
1.812,-2.2156e-05,0
1.8125,-1.326e-05,0
1.813,1.678e-07,0
1.8135,9.5674e-06,0
1.814,1.2757e-05,0
1.8145,1.9303e-05,0
1.815,3.9612e-05,0
1.8155,6.7475e-05,0
1.816,8.745e-05,0
1.8165,9.4163e-05,0
1.817,0.00010172,0
1.8175,0.00012136,0
1.818,0.0001791,0
1.8185,0.00022324,0
1.819,0.00014821,0
1.8195,4.9012e-05,0
1.82,7.7714e-05,0
1.8205,0.00014485,0
1.821,0.00016265,0
1.8215,0.00019319,0
1.822,0.0001984,0
1.8225,9.1142e-05,0
1.823,5.4551e-05,0
1.8235,0.00026638,0
1.824,0.00057623,0
1.8245,0.00069808,0
1.825,0.00053494,0
1.8255,0.00022676,0
1.826,-7.6204e-05,0
1.8265,-0.00030582,0
1.827,-0.0004824,0
1.8275,-0.00061147,0
1.828,-0.00063447,0
1.8285,-0.00055071,0
1.829,-0.0004302,0
1.8295,-0.00031455,0
1.83,-0.00022391,0
1.8305,-0.0001791,0
1.831,-0.0001697,0
1.8315,-0.00015593,0
1.832,-0.00011699,0
1.8325,-6.8818e-05,0
1.833,-1.8463e-05,0
1.8335,3.2395e-05,0
1.834,7.2511e-05,0
1.8345,9.0806e-05,0
1.835,9.3156e-05,0
1.8355,9.2149e-05,0
1.836,9.1814e-05,0
1.8365,9.2149e-05,0
1.837,9.4331e-05,0
1.8375,9.2485e-05,0
1.838,8.9967e-05,0
1.8385,9.4835e-05,0
1.839,9.1142e-05,0
1.8395,7.7378e-05,0
1.84,6.5629e-05,0
1.8405,5.9587e-05,0
1.841,6.1265e-05,0
1.8415,7.2175e-05,0
1.842,7.0832e-05,0
1.8425,5.4887e-05,0
1.843,4.6159e-05,0
1.8435,6.2608e-05,0
1.844,9.601e-05,0
1.8445,0.00013394,0
1.845,0.00014569,0
1.8455,8.0735e-05,0
1.846,8.0568e-06,0
1.8465,2.0981e-05,0
1.847,9.3156e-05,0
1.8475,0.00014553,0
1.848,0.00012538,0
1.8485,4.1962e-05,0
1.849,-5.4551e-05,0
1.8495,-0.00011615,0
1.85,-0.00013109,0
1.8505,-0.0001368,0
1.851,-0.00017809,0
1.8515,-0.00020125,0
1.852,-0.00011481,0
1.8525,0.00012404,0
1.853,0.00042416,0
1.8535,0.00059738,0
1.854,0.0005247,0
1.8545,0.00024388,0
1.855,-6.8315e-05,0
1.8555,-0.00025093,0
1.856,-0.00030163,0
1.8565,-0.0002741,0
1.857,-0.00019269,0
1.8575,-5.2872e-05,0
1.858,0.00011112,0
1.8585,0.00024154,0
1.859,0.0003033,0
1.8595,0.00026537,0
1.86,0.00010726,0
1.8605,-6.5126e-05,0
1.861,-0.0001284,0
1.8615,-9.0974e-05,0
1.862,-4.5151e-05,0
1.8625,-3.5248e-05,0
1.863,-5.153e-05,0
1.8635,-8.0064e-05,0
1.864,-9.131e-05,0
1.8645,-6.479e-05,0
1.865,-2.5009e-05,0
1.8655,-1.1749e-06,0
1.866,7.8889e-06,0
1.8665,1.1582e-05,0
1.867,1.5946e-05,0
1.8675,2.4002e-05,0
1.868,3.2731e-05,0
1.8685,3.6088e-05,0
1.869,4.0787e-05,0
1.8695,4.8173e-05,0
1.87,5.0187e-05,0
1.8705,4.8508e-05,0
1.871,5.0523e-05,0
1.8715,5.4887e-05,0
1.872,5.2872e-05,0
1.8725,4.1291e-05,0
1.873,2.6184e-05,0
1.8735,7.2175e-06,0
1.874,4.5319e-06,0
1.8745,2.7024e-05,0
1.875,5.4887e-05,0
1.8755,7.4357e-05,0
1.876,7.6707e-05,0
1.8765,6.3279e-05,0
1.877,6.0761e-05,0
1.8775,7.9057e-05,0
1.878,0.0001039,0
1.8785,0.00014284,0
1.879,0.00018749,0
1.8795,0.00020259,0
1.88,0.00016634,0
1.8805,5.0019e-05,0
1.881,-4.2466e-05,0
1.8815,-1.3428e-05,0
1.882,9.0303e-05,0
1.8825,0.00015375,0
1.883,9.8527e-05,0
1.8835,-3.6927e-05,0
1.884,-0.00011649,0
1.8845,-0.00020494,0
1.885,-0.00049834,0
1.8855,-0.00074542,0
1.886,-0.00052772,0
1.8865,8.3085e-05,0
1.887,0.00064135,0
1.8875,0.00089548,0
1.888,0.00084848,0
1.8885,0.00061215,0
1.889,0.0002788,0
1.8895,-8.9967e-05,0
1.89,-0.00037128,0
1.8905,-0.0004829,0
1.891,-0.00045924,0
1.8915,-0.00040368,0
1.892,-0.00035634,0
1.8925,-0.00028081,0
1.893,-0.00019722,0
1.8935,-0.00015694,0
1.894,-0.00014939,0
1.8945,-0.00013445,0
1.895,-0.00010826,0
1.8955,-8.2078e-05,0
1.896,-5.6565e-05,0
1.8965,-4.5151e-05,0
1.897,-6.9322e-05,0
1.8975,-0.00010591,0
1.898,-0.00010373,0
1.8985,-5.3208e-05,0
1.899,6.2104e-06,0
1.8995,6.0594e-05,0
1.9,9.7185e-05,0
1.9005,6.009e-05,0
1.901,-1.6449e-05,0
1.9015,-2.4002e-05,0
1.902,9.9031e-06,0
1.9025,-8.0064e-05,0
1.903,-0.00024858,0
1.9035,-0.0002558,0
1.904,-3.9445e-05,0
1.9045,0.00024489,0
1.905,0.00047317,0
1.9055,0.00058764,0
1.906,0.00059805,0
1.9065,0.00054299,0
1.907,0.00043758,0
1.9075,0.00027376,0
1.908,6.2776e-05,0
1.9085,-0.00011162,0
1.909,-0.00013126,0
1.9095,2.1988e-05,0
1.91,0.00023616,0
1.9105,0.00034476,0
1.911,0.00012874,0
1.9115,-0.00024691,0
1.912,-0.00036457,0
1.9125,-0.00015526,0
1.913,0.00013948,0
1.9135,0.00031841,0
1.914,0.00033855,0
1.9145,0.00025899,0
1.915,0.00015123,0
1.9155,1.5946e-05,0
1.916,-8.6442e-05,0
1.9165,-7.4021e-05,0
1.917,1.8631e-05,0
1.9175,0.0001326,0
1.918,0.00022274,0
1.9185,0.00027443,0
1.919,0.00034157,0
1.9195,0.00042684,0
1.92,0.00041207,0
1.9205,0.00025899,0
1.921,8.9799e-05,0
1.9215,-5.7069e-06,0
1.922,-6.5965e-05,0
1.9225,-0.00014385,0
1.923,-0.0002454,0
1.9235,-0.00035315,0
1.924,-0.00044413,0
1.9245,-0.00048542,0
1.925,-0.00046058,0
1.9255,-0.00039948,0
1.926,-0.00033855,0
1.9265,-0.00028014,0
1.927,-0.00021669,0
1.9275,-0.00014485,0
1.928,-8.3757e-05,0
1.9285,-5.5222e-05,0
1.929,-4.7166e-05,0
1.9295,-4.4648e-05,0
1.93,-6.6804e-05,0
1.9305,-8.51e-05,0
1.931,-6.1433e-05,0
1.9315,-2.8367e-05,0
1.932,5.2872e-05,0
1.9325,0.00015291,0
1.933,0.00024019,0
1.9335,0.00030834,0
1.934,0.0002882,0
1.9345,0.00022341,0
1.935,0.00014888,0
1.9355,5.9419e-05,0
1.936,-3.4577e-05,0
1.9365,-7.4021e-05,0
1.937,1.3932e-05,0
1.9375,0.00014569,0
1.938,0.00022039,0
1.9385,0.00025882,0
1.939,0.00032479,0
1.9395,0.00037111,0
1.94,0.00029256,0
1.9405,0.00011229,0
1.941,-4.6494e-05,0
1.9415,-0.00013277,0
1.942,-0.00021032,0
1.9425,-0.00027611,0
1.943,-0.00024338,0
1.9435,-0.00011699,0
1.944,-1.2589e-05,0
1.9445,2.5009e-05,0
1.945,5.3208e-05,0
1.9455,0.00010356,0
1.946,0.00014553,0
1.9465,0.00013227,0
1.947,6.5629e-05,0
1.9475,-7.5532e-06,0
1.948,-6.1097e-05,0
1.9485,-0.00010709,0
1.949,-0.0001566,0
1.9495,-0.00019538,0
1.95,-0.00022391,0
1.9505,-0.0002506,0
1.951,-0.00025748,0
1.9515,-0.00022509,0
1.952,-0.00017809,0
1.9525,-0.00016936,0
1.953,-0.00018749,0
1.9535,-0.00016902,0
1.954,-9.2485e-05,0
1.9545,3.1891e-06,0
1.955,7.4189e-05,0
1.9555,0.00010222,0
1.956,9.2821e-05,0
1.9565,0.00010121,0
1.957,0.00015425,0
1.9575,0.00023264,0
1.958,0.00024019,0
1.9585,0.00014939,0
1.959,6.1601e-05,0
1.9595,2.4674e-05,0
1.96,7.2175e-05,0
1.9605,0.00017305,0
1.961,0.00027276,0
1.9615,0.00036574,0
1.962,0.00043725,0
1.9625,0.0004161,0
1.963,0.00025312,0
1.9635,4.7501e-05,0
1.964,-0.0001373,0
1.9645,-0.00026201,0
1.965,-0.00032815,0
1.9655,-0.00028803,0
1.966,-9.7017e-05,0
1.9665,0.0001613,0
1.967,0.00035198,0
1.9675,0.00039495,0
1.968,0.00028434,0
1.9685,0.00012085,0
1.969,1.1582e-05,0
1.9695,-3.2395e-05,0
1.97,-4.2802e-05,0
1.9705,-4.6494e-05,0
1.971,-5.8579e-05,0
1.9715,-7.57e-05,0
1.972,-8.4428e-05,0
1.9725,-7.5364e-05,0
1.973,-5.6062e-05,0
1.9735,-3.8437e-05,0
1.974,-2.7024e-05,0
1.9745,-2.2995e-05,0
1.975,-2.6184e-05,0
1.9755,-2.9038e-05,0
1.976,1.0575e-05,0
1.9765,0.00011733,0
1.977,0.00024355,0
1.9775,0.00032378,0
1.978,0.0003221,0
1.9785,0.00024926,0
1.979,0.00011498,0
1.9795,-6.7979e-05,0
1.98,-0.00023818,0
1.9805,-0.00034308,0
1.981,-0.00039495,0
1.9815,-0.00038622,0
1.982,-0.0003033,0
1.9825,-0.00017859,0
1.983,-6.6636e-05,0
1.9835,-8.5603e-06,0
1.984,-1.6281e-05,0
1.9845,-7.8721e-05,0
1.985,-0.00016516,0
1.9855,-0.00021149,0
1.986,-0.0001655,0
1.9865,-8.1743e-05,0
1.987,-5.2201e-05,0
1.9875,-0.00013176,0
1.988,-0.00025026,0
1.9885,-0.00020998,0
1.989,4.8676e-05,0
1.9895,0.0003738,0
1.99,0.00064706,0
1.9905,0.00080752,0
1.991,0.00074475,0
1.9915,0.00042751,0
1.992,0.00014385,0
1.9925,5.3376e-05,0
1.993,5.3544e-05,0
1.9935,9.3828e-05,0
1.994,0.00016617,0
1.9945,0.00024959,0
1.995,0.00032982,0
1.9955,0.00037145,0
1.996,0.00031472,0
1.9965,0.00015795,0
1.997,-0.00010591,0
1.9975,-0.00043439,0
1.998,-0.00061097,0
1.9985,-0.00050707,0
1.999,-0.00025127,0
1.9995,-7.2679e-05,0
2,-4.7501e-05,0
2.0005,-7.6875e-05,0
2.001,-7.9057e-05,0
2.0015,-6.6133e-05,0
2.002,-6.1936e-05,0
2.0025,-5.8076e-05,0
2.003,-5.8579e-05,0
2.0035,-8.6778e-05,0
2.004,-0.00014334,0
2.0045,-0.00019286,0
2.005,-0.00021132,0
2.0055,-0.00019252,0
2.006,-0.00013915,0
2.0065,-7.2007e-05,0
2.007,-1.8967e-05,0
2.0075,1.2924e-05,0
2.008,2.4842e-05,0
2.0085,3.1891e-05,0
2.009,4.0116e-05,0
2.0095,4.0116e-05,0
2.01,3.3402e-05,0
2.0105,3.0381e-05,0
2.011,2.5849e-05,0
2.0115,8.5603e-06,0
2.012,-4.5991e-05,0
2.0125,-0.00011699,0
2.013,-0.00013881,0
2.0135,-0.00010927,0
2.014,-4.9683e-05,0
2.0145,4.0116e-05,0
2.015,0.00014183,0
2.0155,0.00022676,0
2.016,0.00024791,0
2.0165,0.00013512,0
2.017,-2.8367e-05,0
2.0175,-1.1246e-05,0
2.018,0.00022441,0
2.0185,0.00044497,0
2.019,0.00046242,0
2.0195,0.00032177,0
2.02,0.00021384,0
2.0205,0.00023415,0
2.021,0.00032882,0
2.0215,0.0004161,0
2.022,0.00046444,0
2.0225,0.00044195,0
2.023,0.00030129,0
2.0235,6.8986e-05,0
2.024,-0.00011447,0
2.0245,-0.00017993,0
2.025,-0.00019487,0
2.0255,-0.00020612,0
2.026,-0.00018866,0
2.0265,-0.00012874,0
2.027,-6.0929e-05,0
2.0275,-2.5849e-05,0
2.028,-3.7766e-05,0
2.0285,-7.9728e-05,0
2.029,-0.00011968,0
2.0295,-0.00013915,0
2.03,-0.0001284,0
2.0305,-8.4764e-05,0
2.031,-3.0549e-05,0
2.0315,5.539e-06,0
2.032,1.796e-05,0
2.0325,-1.7288e-05,0
2.033,-6.0594e-05,0
2.0335,-3.5416e-05,0
2.034,3.357e-05,0
2.0345,4.8844e-05,0
2.035,6.5126e-05,0
2.0355,0.00017943,0
2.036,0.00031942,0
2.0365,0.00036071,0
2.037,0.00027913,0
2.0375,0.00011531,0
2.038,-5.7572e-05,0
2.0385,-0.00017742,0
2.039,-0.00024993,0
2.0395,-0.0002929,0
2.04,-0.00031102,0
2.0405,-0.00030985,0
2.041,-0.00028501,0
2.0415,-0.00022408,0
2.042,-0.00015056,0
2.0425,-9.5338e-05,0
2.043,-6.1936e-05,0
2.0435,-4.0116e-05,0
2.044,-2.6352e-05,0
2.0445,-8.5603e-06,0
2.045,2.0142e-05,0
2.0455,4.0619e-05,0
2.046,3.6255e-05,0
2.0465,1.561e-05,0
2.047,-8.392e-07,0
2.0475,2.3499e-06,0
2.048,2.7024e-05,0
2.0485,5.4215e-05,0
2.049,4.5487e-05,0
2.0495,-4.1962e-06,0
2.05,-5.4719e-05,0
2.0505,-5.1698e-05,0
2.051,2.2492e-05,0
2.0515,0.00010994,0
2.052,0.0001561,0
2.0525,0.00014485,0
2.053,9.4835e-05,0
2.0535,3.508e-05,0
2.054,-2.5513e-05,0
2.0545,-0.00012908,0
2.055,-0.00024993,0
2.0555,-0.00027813,0
2.056,-0.00012908,0
2.0565,0.00015543,0
2.057,0.00039864,0
2.0575,0.00045873,0
2.058,0.00040066,0
2.0585,0.000355,0
2.059,0.0003164,0
2.0595,0.00027829,0
2.06,0.00022509,0
2.0605,0.00018128,0
2.061,0.00023986,0
2.0615,0.00037313,0
2.062,0.0004725,0
2.0625,0.00045437,0
2.063,0.00028618,0
2.0635,3.0716e-05,0
2.064,-0.00017205,0
2.0645,-0.00027276,0
2.065,-0.00033922,0
2.0655,-0.00040737,0
2.066,-0.00042701,0
2.0665,-0.0003639,0
2.067,-0.00024204,0
2.0675,-0.00011699,0
2.068,-3.4241e-05,0
2.0685,-1.2589e-05,0
2.069,-3.1388e-05,0
2.0695,-3.9109e-05,0
2.07,-6.8818e-06,0
2.0705,2.8367e-05,0
2.071,2.9374e-05,0
2.0715,8.3925e-06,0
2.072,-4.1962e-06,0
2.0725,2.0142e-06,0
2.073,1.2085e-05,0
2.0735,1.2253e-05,0
2.074,3.1891e-06,0
2.0745,-1.2253e-05,0
2.075,-2.7359e-05,0
2.0755,-3.3738e-05,0
2.076,-2.7863e-05,0
2.0765,-1.5946e-05,0
2.077,-6.3783e-06,0
2.0775,-3.8605e-06,0
2.078,-7.7211e-06,0
2.0785,-1.3932e-05,0
2.079,-1.0239e-05,0
2.0795,1.3428e-06,0
2.08,9.7353e-06,0
2.0805,1.1917e-05,0
2.081,1.6617e-05,0
2.0815,3.3738e-05,0
2.082,4.5487e-05,0
2.0825,2.3331e-05,0
2.083,-4.2634e-05,0
2.0835,-0.00013663,0
2.084,-0.00020629,0
2.0845,-0.00022358,0
2.085,-0.00016617,0
2.0855,-6.2104e-06,0
2.086,0.00024086,0
2.0865,0.00049667,0
2.087,0.00067593,0
2.0875,0.00070866,0
2.088,0.00055373,0
2.0885,0.00026839,0
2.089,-4.3473e-05,0
2.0895,-0.00028031,0
2.09,-0.00035064,0
2.0905,-0.00025161,0
2.091,-0.00011028,0
2.0915,-4.8676e-05,0
2.092,-6.8315e-05,0
2.0925,-0.00010994,0
2.093,-0.00012387,0
2.0935,-0.00010826,0
2.094,-7.4693e-05,0
2.0945,-4.0452e-05,0
2.095,-1.5106e-05,0
2.0955,3.0716e-05,0
2.096,0.00010977,0
2.0965,0.00018379,0
2.097,0.00021669,0
2.0975,0.00019924,0
2.098,0.00015157,0
2.0985,0.00010961,0
2.099,8.9799e-05,0
2.0995,8.2078e-05,0
2.1,6.8986e-05,0
2.1005,1.9638e-05,0
2.101,-5.8579e-05,0
2.1015,-9.7856e-05,0
2.102,-7.2343e-05,0
2.1025,-3.0549e-05,0
2.103,3.5248e-06,0
2.1035,4.9851e-05,0
2.104,9.5506e-05,0
2.1045,0.00010121,0
2.105,6.7475e-05,0
2.1055,8.5603e-06,0
2.106,-4.213e-05,0
2.1065,-3.7934e-05,0
2.107,8.392e-07,0
2.1075,2.5345e-05,0
2.108,2.4002e-05,0
2.1085,-5.539e-06,0
2.109,-4.7837e-05,0
2.1095,-8.275e-05,0
2.11,-0.00011699,0
2.1105,-0.00015526,0
2.111,-0.00017507,0
2.1115,-0.00016181,0
2.112,-0.00013042,0
2.1125,-9.5842e-05,0
2.113,-6.3951e-05,0
2.1135,-4.9515e-05,0
2.114,-5.5222e-05,0
2.1145,-6.1433e-05,0
2.115,-5.8076e-05,0
2.1155,-6.1265e-05,0
2.116,-9.2485e-05,0
2.1165,-0.00017406,0
2.117,-0.00024019,0
2.1175,-0.00017624,0
2.118,1.8463e-05,0
2.1185,0.00022475,0
2.119,0.00034829,0
2.1195,0.00038018,0
2.12,0.00035869,0
2.1205,0.00031807,0
2.121,0.00025362,0
2.1215,0.0001744,0
2.122,9.5842e-05,0
2.1225,2.3499e-06,0
2.123,-8.1743e-05,0
2.1235,-9.2149e-05,0
2.124,-1.6617e-05,0
2.1245,8.4428e-05,0
2.125,0.0001556,0
2.1255,0.00018245,0
2.126,0.00011397,0
2.1265,-6.9657e-05,0
2.127,-0.00019991,0
2.1275,-0.00013629,0
2.128,6.4286e-05,0
2.1285,0.00022844,0
2.129,0.00027813,0
2.1295,0.00025228,0
2.13,0.00019219,0
2.1305,0.00011901,0
2.131,4.0452e-05,0
2.1315,-3.3234e-05,0
2.132,-8.3589e-05,0
2.1325,-8.8121e-05,0
2.133,-2.2324e-05,0
2.1335,0.00010407,0
2.134,0.00023684,0
2.1345,0.00031875,0
2.135,0.00029592,0
2.1355,0.00019051,0
2.136,9.3828e-05,0
2.1365,6.6636e-05,0
2.137,0.00010138,0
2.1375,0.00013243,0
2.138,0.00011699,0
2.1385,6.9657e-05,0
2.139,-1.2085e-05,0
2.1395,-0.00012488,0
2.14,-0.00023029,0
2.1405,-0.000308,0
2.141,-0.00033973,0
2.1415,-0.00032496,0
2.142,-0.00029273,0
2.1425,-0.00028249,0
2.143,-0.00028971,0
2.1435,-0.00028467,0
2.144,-0.00024556,0
2.1445,-0.00019521,0
2.145,-0.00018077,0
2.1455,-0.00018547,0
2.146,-0.00013545,0
2.1465,-2.7527e-05,0
2.147,5.2872e-05,0
2.1475,5.2872e-05,0
2.148,1.7288e-05,0
2.1485,1.2253e-05,0
2.149,9.5674e-06,0
2.1495,-5.8747e-06,0
2.15,4.3641e-06,0
2.1505,5.623e-05,0
2.151,0.00011901,0
2.1515,0.00016365,0
2.152,0.00018917,0
2.1525,0.0001942,0
2.153,0.00018312,0
2.1535,0.00016063,0
2.154,0.00012035,0
2.1545,7.4357e-05,0
2.155,4.0787e-05,0
2.1555,-2.182e-06,0
2.156,-3.1388e-05,0
2.1565,2.1317e-05,0
2.157,0.00013378,0
2.1575,0.000213,0
2.158,0.0001237,0
2.1585,-0.00016265,0
2.159,-0.00034644,0
2.1595,-0.00021552,0
2.16,0.00012068,0
2.1605,0.00044128,0
2.161,0.0005957,0
2.1615,0.00055843,0
2.162,0.00042785,0
2.1625,0.00027544,0
2.163,0.00013931,0
2.1635,4.8676e-05,0
2.164,-7.0497e-06,0
2.1645,-5.0355e-05,0
2.165,-5.8747e-05,0
2.1655,-1.0239e-05,0
2.166,4.4984e-05,0
2.1665,4.2802e-05,0
2.167,-2.0981e-05,0
2.1675,-0.00011112,0
2.168,-0.00018766,0
2.1685,-0.00020763,0
2.169,-0.00013529,0
2.1695,-2.1317e-05,0
2.17,4.9851e-05,0
2.1705,4.918e-05,0
2.171,1.0239e-05,0
2.1715,-1.8631e-05,0
2.172,-1.2924e-05,0
2.1725,5.2033e-06,0
2.173,1.2253e-05,0
2.1735,6.8818e-06,0
2.174,-3.5248e-06,0
2.1745,-2.5177e-06,0
2.175,1.326e-05,0
2.1755,2.6688e-05,0
2.176,1.9303e-05,0
2.1765,-4.2466e-05,0
2.177,-0.00013948,0
2.1775,-0.0001843,0
2.178,-0.00014519,0
2.1785,-6.7643e-05,0
2.179,-2.2156e-05,0
2.1795,-1.7624e-05,0
2.18,-1.326e-05,0
2.1805,-1.9974e-05,0
2.181,-4.6662e-05,0
2.1815,-3.1724e-05,0
2.182,5.7908e-05,0
2.1825,0.00015526,0
2.183,0.00018782,0
2.1835,0.00014469,0
2.184,7.4861e-05,0
2.1845,1.2589e-05,0
2.185,-3.8773e-05,0
2.1855,-7.2007e-05,0
2.186,-6.9993e-05,0
2.1865,-3.4745e-05,0
2.187,3.8605e-06,0
2.1875,2.417e-05,0
2.188,4.5319e-05,0
2.1885,6.2776e-05,0
2.189,6.0594e-05,0
2.1895,5.5558e-05,0
2.19,5.4383e-05,0
2.1905,4.918e-05,0
2.191,3.7262e-05,0
2.1915,2.3331e-05,0
2.192,2.0646e-05,0
2.1925,3.6255e-05,0
2.193,4.7166e-05,0
2.1935,5.2033e-06,0
2.194,-6.2608e-05,0
2.1945,-8.0232e-05,0
2.195,-2.4002e-05,0
2.1955,5.9251e-05,0
2.196,0.00011414,0
2.1965,0.00014116,0
2.197,0.00017137,0
2.1975,0.00019974,0
2.198,0.00018581,0
2.1985,0.00012488,0
2.199,5.153e-05,0
2.1995,-1.561e-05,0
2.2,-9.5338e-05,0
2.2005,-0.00019789,0
2.201,-0.00026336,0
2.2015,-0.00021317,0
2.202,-5.7908e-05,0
2.2025,0.00011766,0
2.203,0.00023818,0
2.2035,0.00027544,0
2.204,0.00024472,0
2.2045,0.00014955,0
2.205,-7.0497e-06,0
2.2055,-0.0001519,0
2.206,-0.00023835,0
2.2065,-0.00025295,0
2.207,-0.00020092,0
2.2075,-0.00012152,0
2.208,-5.6901e-05,0
2.2085,-2.1317e-05,0
2.209,2.8534e-06,0
2.2095,5.388e-05,0
2.21,0.00013327,0
2.2105,0.00019454,0
2.211,0.00019789,0
2.2115,0.00012337,0
2.212,-6.6133e-05,0
2.2125,-0.00025933,0
2.213,-0.00025849,0
2.2135,-6.9993e-05,0
2.214,0.00013411,0
2.2145,0.00024523,0
2.215,0.00023784,0
2.2155,0.00013881,0
2.216,3.743e-05,0
2.2165,-7.7211e-06,0
2.217,1.1246e-05,0
2.2175,7.57e-05,0
2.218,0.00014217,0
2.2185,0.0001749,0
2.219,0.00017641,0
2.2195,0.00015895,0
2.22,0.00012992,0
2.2205,9.3156e-05,0
2.221,5.1194e-05,0
2.2215,5.8747e-06,0
2.222,-3.1388e-05,0
2.2225,-4.5487e-05,0
2.223,-3.9109e-05,0
2.2235,-2.9206e-05,0
2.224,-2.9038e-05,0
2.2245,-3.508e-05,0
2.225,-3.6423e-05,0
2.2255,-2.7024e-05,0
2.226,-7.8889e-06,0
2.2265,2.031e-05,0
2.227,4.0787e-05,0
2.2275,4.213e-05,0
2.228,3.9109e-05,0
2.2285,4.2466e-05,0
2.229,3.978e-05,0
2.2295,3.0381e-05,0
2.23,2.182e-05,0
2.2305,2.9374e-05,0
2.231,5.3544e-05,0
2.2315,6.244e-05,0
2.232,6.1601e-05,0
2.2325,4.7166e-05,0
2.233,7.3854e-06,0
2.2335,-5.4215e-05,0
2.234,-9.4163e-05,0
2.2345,-0.00010776,0
2.235,-0.00010423,0
2.2355,-7.7714e-05,0
2.236,-4.683e-05,0
2.2365,5.8747e-06,0
2.237,4.9515e-05,0
2.2375,4.0116e-05,0
2.238,1.0575e-05,0
2.2385,1.5778e-05,0
2.239,5.6901e-05,0
2.2395,7.1e-05,0
2.24,1.1917e-05,0
2.2405,-8.5771e-05,0
2.241,-0.00015157,0
2.2415,-0.0001566,0
2.242,-0.00011531,0
2.2425,-2.5009e-05,0
2.243,8.7785e-05,0
2.2435,0.00016332,0
2.244,0.0001707,0
2.2445,0.00013411,0
2.245,0.00010323,0
2.2455,9.6513e-05,0
2.246,7.1504e-05,0
2.2465,1.0071e-06,0
2.247,-8.5435e-05,0
2.2475,-0.00014519,0
2.248,-0.0001373,0
2.2485,-7.0664e-05,0
2.249,-3.8605e-06,0
2.2495,2.7024e-05,0
2.25,1.8631e-05,0
2.2505,-1.2757e-05,0
2.251,-3.5416e-05,0
2.2515,-5.4048e-05,0
2.252,-8.0735e-05,0
2.2525,-7.9393e-05,0
2.253,-2.2156e-05,0
2.2535,5.388e-05,0
2.254,0.00010105,0
2.2545,0.00011951,0
2.255,0.0001331,0
2.2555,0.00012572,0
2.256,6.4286e-05,0
2.2565,1.796e-05,0
2.257,4.448e-05,0
2.2575,9.9199e-05,0
2.258,0.00011229,0
2.2585,8.4093e-05,0
2.259,6.8818e-05,0
2.2595,7.5029e-05,0
2.26,7.3518e-05,0
2.2605,6.4118e-05,0
2.261,6.3447e-05,0
2.2615,6.2776e-05,0
2.262,3.8773e-05,0
2.2625,3.0213e-06,0
2.263,-4.4312e-05,0
2.2635,-0.00010658,0
2.264,-0.00012488,0
2.2645,-5.153e-05,0
2.265,4.1795e-05,0
2.2655,0.00010323,0
2.266,0.00015627,0
2.2665,0.00017607,0
2.267,0.00012874,0
2.2675,4.213e-05,0
2.268,-1.3596e-05,0
2.2685,2.5009e-05,0
2.269,0.00012438,0
2.2695,0.00017708,0
2.27,0.00015996,0
2.2705,0.00012605,0
2.271,6.7475e-05,0
2.2715,-2.9038e-05,0
2.272,-9.5506e-05,0
2.2725,-8.2414e-05,0
2.273,-2.1149e-05,0
2.2735,4.6159e-05,0
2.274,9.1814e-05,0
2.2745,8.1407e-05,0
2.275,9.5674e-06,0
2.2755,-8.1575e-05,0
2.276,-0.00015694,0
2.2765,-0.00022727,0
2.277,-0.00029676,0
2.2775,-0.00029525,0
2.278,-0.00018883,0
2.2785,-3.3738e-05,0
2.279,9.3156e-05,0
2.2795,0.00013545,0
2.28,9.2485e-05,0
2.2805,3.1388e-05,0
2.281,1.6953e-05,0
2.2815,6.009e-05,0
2.282,0.00012387,0
2.2825,0.00015694,0
2.283,0.00014569,0
2.2835,0.00012287,0
2.284,9.2149e-05,0
2.2845,4.2634e-05,0
2.285,-3.357e-07,0
2.2855,3.6927e-06,0
2.286,6.1936e-05,0
2.2865,0.00013713,0
2.287,0.00018212,0
2.2875,0.0001754,0
2.288,0.00013462,0
2.2885,8.1071e-05,0
2.289,2.1653e-05,0
2.2895,-4.1795e-05,0
2.29,-9.2317e-05,0
2.2905,-0.00010977,0
2.291,-0.00010239,0
2.2915,-8.7114e-05,0
2.292,-6.8986e-05,0
2.2925,-4.5151e-05,0
2.293,-2.1988e-05,0
2.2935,-9.7353e-06,0
2.294,-8.5603e-06,0
2.2945,-8.896e-06,0
2.295,-1.3596e-05,0
2.2955,-2.7192e-05,0
2.296,-3.7934e-05,0
2.2965,-3.3402e-05,0
2.297,-1.3764e-05,0
2.2975,-1.5106e-06,0
2.298,1.678e-07,0
2.2985,1.5274e-05,0
2.299,4.8508e-05,0
2.2995,8.1743e-05,0
2.3,9.836e-05,0
2.3005,0.00010306,0
2.301,0.0001044,0
2.3015,9.4835e-05,0
2.302,5.8244e-05,0
2.3025,-1.3596e-05,0
2.303,-7.0329e-05,0
2.3035,-8.1743e-05,0
2.304,-5.1194e-05,0
2.3045,5.9251e-05,0
2.305,0.00022911,0
2.3055,0.00033788,0
2.306,0.00031942,0
2.3065,0.00021267,0
2.307,7.5532e-05,0
2.3075,-5.9587e-05,0
2.308,-0.00017037,0
2.3085,-0.00024103,0
2.309,-0.00026168,0
2.3095,-0.00023667,0
2.31,-0.00020142,0
2.3105,-0.00017171,0
2.311,-0.0001279,0
2.3115,-6.7308e-05,0
2.312,-2.7359e-05,0
2.3125,-2.5009e-05,0
2.313,-8.191e-05,0
2.3135,-0.00015409,0
2.314,-0.00014955,0
2.3145,-8.6778e-05,0
2.315,-2.1317e-05,0
2.3155,7.1839e-05,0
2.316,0.00020394,0
2.3165,0.00032345,0
2.317,0.00039394,0
2.3175,0.00038521,0
2.318,0.00026101,0
2.3185,6.865e-05,0
2.319,-4.3641e-05,0
2.3195,-2.182e-06,0
2.32,0.00012001,0
2.3205,0.00022542,0
2.321,0.00027007,0
2.3215,0.00022811,0
2.322,0.0001321,0
2.3225,4.7501e-05,0
2.323,-4.1962e-06,0
2.3235,-3.5584e-05,0
2.324,-7.3854e-05,0
2.3245,-0.00013126,0
2.325,-0.00021602,0
2.3255,-0.00030935,0
2.326,-0.00032882,0
2.3265,-0.00020662,0
2.327,-5.7069e-06,0
2.3275,0.00014955,0
2.328,0.00020024,0
2.3285,0.00014401,0
2.329,7.6371e-05,0
2.3295,7.2007e-05,0
2.33,9.0471e-05,0
2.3305,7.5029e-05,0
2.331,2.5345e-05,0
2.3315,-4.3137e-05,0
2.332,-9.131e-05,0
2.3325,-9.7353e-05,0
2.333,-9.8527e-05,0
2.3335,-0.00010742,0
2.334,-0.00010893,0
2.3345,-0.00010541,0
2.335,-0.00010239,0
2.3355,-8.5435e-05,0
2.336,-6.0929e-05,0
2.3365,-4.1459e-05,0
2.337,-7.2175e-06,0
2.3375,4.213e-05,0
2.338,5.539e-05,0
2.3385,-7.8889e-06,0
2.339,-9.7856e-05,0
2.3395,-0.00014066,0
2.34,-8.7282e-05,0
2.3405,4.1459e-05,0
2.341,0.00015341,0
2.3415,0.00020394,0
2.342,0.00023684,0
2.3425,0.00028383,0
2.343,0.00031069,0
2.3435,0.00031371,0
2.344,0.00030565,0
2.3445,0.00025563,0
2.345,0.0001603,0
2.3455,5.5894e-05,0
2.346,-2.7527e-05,0
2.3465,-7.57e-05,0
2.347,-8.9967e-05,0
2.3475,-8.4428e-05,0
2.348,-7.2847e-05,0
2.3485,-5.9922e-05,0
2.349,-4.5823e-05,0
2.3495,-3.7095e-05,0
2.35,-2.7359e-05,0
2.3505,0,0
2.351,4.1123e-05,0
2.3515,6.6972e-05,0
2.352,6.7308e-05,0
2.3525,5.9419e-05,0
2.353,5.2537e-05,0
2.3535,4.5823e-05,0
2.354,3.2731e-05,0
2.3545,1.0239e-05,0
2.355,-7.0497e-06,0
2.3555,-8.2246e-06,0
2.356,-1.561e-05,0
2.3565,-2.6017e-05,0
2.357,-1.3764e-05,0
2.3575,1.1078e-05,0
2.358,2.7695e-05,0
2.3585,3.5584e-05,0
2.359,3.4073e-05,0
2.3595,2.7192e-05,0
2.36,1.6617e-05,0
2.3605,-1.0575e-05,0
2.361,-4.7837e-05,0
2.3615,-6.8147e-05,0
2.362,-5.2201e-05,0
2.3625,-2.3163e-05,0
2.363,-7.6036e-05,0
2.3635,-0.00017826,0
2.364,-0.00016684,0
2.3645,-1.6281e-05,0
2.365,0.00015761,0
2.3655,0.00022055,0
2.366,0.00016802,0
2.3665,0.00013613,0
2.367,0.00019118,0
2.3675,0.00024875,0
2.368,0.00024724,0
2.3685,0.00022005,0
2.369,0.00020494,0
2.3695,0.00018111,0
2.37,0.00012605,0
2.3705,4.2466e-05,0
2.371,-5.4719e-05,0
2.3715,-0.00014955,0
2.372,-0.00020612,0
2.3725,-0.00021501,0
2.373,-0.00019336,0
2.3735,-0.00016835,0
2.374,-0.00018363,0
2.3745,-0.00023113,0
2.375,-0.00025715,0
2.3755,-0.00017221,0
2.376,2.1653e-05,0
2.3765,0.00020511,0
2.377,0.00030045,0
2.3775,0.00032345,0
2.378,0.00029978,0
2.3785,0.00023549,0
2.379,0.00013243,0
2.3795,1.1246e-05,0
2.38,-8.3253e-05,0
2.3805,-0.00012169,0
2.381,-0.00012975,0
2.3815,-0.0001368,0
2.382,-0.00014401,0
2.3825,-0.00012958,0
2.383,-9.0974e-05,0
2.3835,-5.7908e-05,0
2.384,-4.0452e-05,0
2.3845,-3.1556e-05,0
2.385,-3.2395e-05,0
2.3855,-5.623e-05,0
2.386,-8.4932e-05,0
2.3865,-6.9993e-05,0
2.387,-5.8747e-06,0
2.3875,6.1769e-05,0
2.388,0.00010877,0
2.3885,0.00013411,0
2.389,0.00013176,0
2.3895,0.00010256,0
2.39,3.8102e-05,0
2.3905,-2.7024e-05,0
2.391,-3.3066e-05,0
2.3915,2.7359e-05,0
2.392,9.6513e-05,0
2.3925,0.00011397,0
2.393,6.7643e-05,0
2.3935,1.0575e-05,0
2.394,-1.2253e-05,0
2.3945,2.266e-05,0
2.395,0.00010222,0
2.3955,0.00019722,0
2.396,0.00026503,0
2.3965,0.00027359,0
2.397,0.00023079,0
2.3975,0.00014015,0
2.398,-7.8889e-06,0
2.3985,-0.00016986,0
2.399,-0.00027124,0
2.3995,-0.00035467,0
2.4,-0.0004688,0
2.4005,-0.00047468,0
2.401,-0.00028702,0
2.4015,-9.0639e-06,0
2.402,0.00022139,0
2.4025,0.00034527,0
2.403,0.00037581,0
2.4035,0.0003644,0
2.404,0.00033754,0
2.4045,0.00028048,0
2.405,0.00019957,0
2.4055,0.00013462,0
2.406,9.6178e-05,0
2.4065,7.5029e-05,0
2.407,6.2608e-05,0
2.4075,1.8631e-05,0
2.408,-8.51e-05,0
2.4085,-0.00019622,0
2.409,-0.00024959,0
2.4095,-0.0002271,0
2.41,-0.0001603,0
2.4105,-8.3925e-05,0
2.411,-1.2253e-05,0
2.4115,4.8844e-05,0
2.412,7.3686e-05,0
2.4125,7.4693e-05,0
2.413,8.9799e-05,0
2.4135,0.0001227,0
2.414,0.00012874,0
2.4145,9.3492e-05,0
2.415,5.9922e-05,0
2.4155,5.2201e-05,0
2.416,5.4551e-05,0
2.4165,5.153e-05,0
2.417,2.9206e-05,0
2.4175,-4.4816e-05,0
2.418,-0.0001556,0
2.4185,-0.00020746,0
2.419,-0.00016248,0
2.4195,-8.745e-05,0
2.42,-4.7501e-05,0
2.4205,-7.57e-05,0
2.421,-0.00017255,0
2.4215,-0.00021854,0
2.422,-0.00014955,0
2.4225,-8.1743e-05,0
2.423,-6.3279e-05,0
2.4235,-4.1795e-05,0
2.424,7.8889e-06,0
2.4245,7.57e-05,0
2.425,0.00013277,0
2.4255,0.00013529,0
2.426,8.0064e-05,0
2.4265,4.5991e-05,0
2.427,8.9632e-05,0
2.4275,0.00018044,0
2.428,0.00024825,0
2.4285,0.00026302,0
2.429,0.00025513,0
2.4295,0.00022274,0
2.43,0.00016097,0
2.4305,9.8192e-05,0
2.431,5.6901e-05,0
2.4315,3.8102e-05,0
2.432,4.4312e-05,0
2.4325,7.6707e-05,0
2.433,0.00011565,0
2.4335,0.00014083,0
2.434,0.0001425,0
2.4345,0.00012538,0
2.435,9.3492e-05,0
2.4355,2.7192e-05,0
2.436,-3.8773e-05,0
2.4365,-5.6565e-05,0
2.437,-3.7262e-05,0
2.4375,-1.3932e-05,0
2.438,-8.2246e-06,0
2.4385,-2.1317e-05,0
2.439,-3.2898e-05,0
2.4395,-3.2731e-05,0
2.44,-2.8031e-05,0
2.4405,-2.1149e-05,0
2.441,-4.0284e-06,0
2.4415,1.0239e-05,0
2.442,-5.0355e-06,0
2.4425,-3.357e-05,0
2.443,-3.978e-05,0
2.4435,-1.5778e-05,0
2.444,1.5946e-05,0
2.4445,3.8437e-05,0
2.445,4.6326e-05,0
2.4455,3.7598e-05,0
2.446,1.6617e-05,0
2.4465,-3.1891e-05,0
2.447,-0.00010004,0
2.4475,-0.00012908,0
2.448,-9.6849e-05,0
2.4485,-3.2563e-05,0
2.449,3.3402e-05,0
2.4495,8.6778e-05,0
2.45,0.00011615,0
2.4505,0.00012673,0
2.451,0.0001331,0
2.4515,0.00012337,0
2.452,9.2989e-05,0
2.4525,4.6159e-05,0
2.453,-4.3137e-05,0
2.4535,-0.00012068,0
2.454,-0.00010558,0
2.4545,-1.7288e-05,0
2.455,6.1265e-05,0
2.4555,8.1743e-05,0
2.456,6.7475e-05,0
2.4565,4.9683e-05,0
2.457,3.0045e-05,0
2.4575,1.0575e-05,0
2.458,1.6785e-06,0
2.4585,-9.9031e-06,0
2.459,-5.6901e-05,0
2.4595,-0.00012236,0
2.46,-0.00019152,0
2.4605,-0.00025194,0
2.461,-0.0002501,0
2.4615,-0.000166,0
2.462,-3.9109e-05,0
2.4625,7.4861e-05,0
2.463,0.00013747,0
2.4635,0.00013848,0
2.464,0.00010188,0
2.4645,6.4118e-05,0
2.465,4.213e-05,0
2.4655,3.0381e-05,0
2.466,6.5461e-06,0
2.4665,-2.7024e-05,0
2.467,-5.5726e-05,0
2.4675,-5.6565e-05,0
2.468,-2.7695e-05,0
2.4685,1.9974e-05,0
2.469,8.1071e-05,0
2.4695,0.0001378,0
2.47,0.00016835,0
2.4705,0.00013462,0
2.471,4.5655e-05,0
2.4715,-9.5674e-06,0
2.472,-8.2246e-06,0
2.4725,5.0523e-05,0
2.473,0.00015492,0
2.4735,0.00026537,0
2.474,0.00032076,0
2.4745,0.00027192,0
2.475,0.00014485,0
2.4755,1.2589e-05,0
2.476,-0.0001044,0
2.4765,-0.00019487,0
2.477,-0.00021636,0
2.4775,-0.00016802,0
2.478,-0.00011095,0
2.4785,-7.6036e-05,0
2.479,-5.153e-05,0
2.4795,-3.3738e-05,0
2.48,-2.7359e-05,0
2.4805,-1.0239e-05,0
2.481,3.8437e-05,0
2.4815,8.3085e-05,0
2.482,7.8218e-05,0
2.4825,4.213e-05,0
2.483,1.9974e-05,0
2.4835,2.7527e-05,0
2.484,5.2872e-05,0
2.4845,7.7043e-05,0
2.485,8.5771e-05,0
2.4855,8.2414e-05,0
2.486,7.3686e-05,0
2.4865,6.1433e-05,0
2.487,4.5487e-05,0
2.4875,2.9709e-05,0
2.488,2.3163e-05,0
2.4885,2.8031e-05,0
2.489,3.0716e-05,0
2.4895,2.4674e-05,0
2.49,7.2175e-06,0
2.4905,-2.8534e-05,0
2.491,-8.8289e-05,0
2.4915,-0.0001326,0
2.492,-0.00011666,0
2.4925,-5.0523e-05,0
2.493,-1.0575e-05,0
2.4935,-2.6017e-05,0
2.494,-2.2324e-05,0
2.4945,7.0497e-06,0
2.495,-1.091e-05,0
2.4955,-3.9109e-05,0
2.496,-1.326e-05,0
2.4965,4.3305e-05,0
2.497,0.00012404,0
2.4975,0.00021233,0
2.498,0.00026839,0
2.4985,0.00027242,0
2.499,0.00022341,0
2.4995,0.00014871,0
2.5,0.00013092,0
2.5005,0.00020578,0
2.501,0.00029189,0
2.5015,0.00030196,0
2.502,0.00019303,0
2.5025,-2.8199e-05,0
2.503,-0.00021938,0
2.5035,-0.00026722,0
2.504,-0.00019051,0
2.5045,-4.8508e-05,0
2.505,0.00010809,0
2.5055,0.00019521,0
2.506,0.00012119,0
2.5065,-7.57e-05,0
2.507,-0.00026218,0
2.5075,-0.00035718,0
2.508,-0.0003597,0
2.5085,-0.00031035,0
2.509,-0.000236,0
2.5095,-0.00014099,0
2.51,-3.6423e-05,0
2.5105,4.9348e-05,0
2.511,9.2149e-05,0
2.5115,8.9799e-05,0
2.512,6.3951e-05,0
2.5125,4.2466e-05,0
2.513,3.4409e-05,0
2.5135,3.1556e-05,0
2.514,1.3092e-05,0
2.5145,-3.8437e-05,0
2.515,-8.7953e-05,0
2.5155,-7.6371e-05,0
2.516,4.5319e-06,0
2.5165,0.00010726,0
2.517,0.00018094,0
2.5175,0.00020662,0
2.518,0.00018917,0
2.5185,0.00013982,0
2.519,7.4525e-05,0
2.5195,1.5778e-05,0
2.52,-8.896e-06,0
2.5205,4.5319e-06,0
2.521,3.0716e-05,0
2.5215,4.4312e-05,0
2.522,3.5752e-05,0
2.5225,9.5674e-06,0
2.523,-1.0407e-05,0
2.5235,-1.1917e-05,0
2.524,-4.1962e-06,0
2.5245,6.8818e-06,0
2.525,2.3331e-05,0
2.5255,5.0019e-05,0
2.526,7.8386e-05,0
2.5265,9.3492e-05,0
2.527,9.1478e-05,0
2.5275,7.4021e-05,0
2.528,5.2537e-05,0
2.5285,3.5416e-05,0
2.529,1.1917e-05,0
2.5295,-3.3066e-05,0
2.53,-9.4499e-05,0
2.5305,-0.00012169,0
2.531,-0.0001133,0
2.5315,-0.00011481,0
2.532,-0.00010356,0
2.5325,-2.7359e-05,0
2.533,0.00010457,0
2.5335,0.00024137,0
2.534,0.0003409,0
2.5345,0.00035433,0
2.535,0.00027611,0
2.5355,0.00016852,0
2.536,7.6371e-05,0
2.5365,1.6449e-05,0
2.537,-1.3764e-05,0
2.5375,-3.5416e-05,0
2.538,-6.4286e-05,0
2.5385,-8.8121e-05,0
2.539,-9.4331e-05,0
2.5395,-9.1142e-05,0
2.54,-8.04e-05,0
2.5405,-5.0355e-05,0
2.541,-7.7211e-06,0
2.5415,3.2395e-05,0
2.542,5.774e-05,0
2.5425,6.4118e-05,0
2.543,6.1936e-05,0
2.5435,5.7069e-05,0
2.544,4.4816e-05,0
2.5445,2.7695e-05,0
2.545,1.1917e-05,0
2.5455,-7.2175e-06,0
2.546,-2.9038e-05,0
2.5465,-5.8579e-05,0
2.547,-0.00011968,0
2.5475,-0.00017389,0
2.548,-0.00014653,0
2.5485,-3.3402e-05,0
2.549,9.5171e-05,0
2.5495,0.00016046,0
2.55,0.00015123,0
2.5505,0.00013277,0
2.551,0.00011598,0
2.5515,8.2918e-05,0
2.552,3.6591e-05,0
2.5525,-3.7095e-05,0
2.553,-8.6275e-05,0
2.5535,-5.2872e-05,0
2.554,2.5009e-05,0
2.5545,7.7211e-05,0
2.555,9.1478e-05,0
2.5555,8.1407e-05,0
2.556,6.2944e-05,0
2.5565,5.0187e-05,0
2.557,4.3137e-05,0
2.5575,3.3402e-05,0
2.558,-1.4603e-05,0
2.5585,-0.00011649,0
2.559,-0.00020075,0
2.5595,-0.00019487,0
2.56,-9.4667e-05,0
2.5605,3.3066e-05,0
2.561,0.00012236,0
2.5615,0.00014418,0
2.562,0.00010893,0
2.5625,5.2872e-05,0
2.563,1.4939e-05,0
2.5635,-1.1078e-05,0
2.564,-5.2201e-05,0
2.5645,-0.00010591,0
2.565,-0.00014704,0
2.5655,-0.00015677,0
2.566,-0.00013109,0
2.5665,-7.0329e-05,0
2.567,4.6998e-06,0
2.5675,6.1097e-05,0
2.568,8.9128e-05,0
2.5685,0.00011699,0
2.569,0.00010759,0
2.5695,1.2253e-05,0
2.57,-7.2175e-05,0
2.5705,-2.2995e-05,0
2.571,0.00014116,0
2.5715,0.00029726,0
2.572,0.00033654,0
2.5725,0.00023616,0
2.573,9.1142e-05,0
2.5735,3.6927e-06,0
2.574,2.3499e-06,0
2.5745,5.3544e-05,0
2.575,9.6345e-05,0
2.5755,4.8173e-05,0
2.576,-9.7688e-05,0
2.5765,-0.00019957,0
2.577,-0.00017809,0
2.5775,-0.00010021,0
2.578,-4.6494e-05,0
2.5785,-2.2324e-05,0
2.579,5.539e-06,0
2.5795,3.7766e-05,0
2.58,2.1149e-05,0
2.5805,-3.1556e-05,0
2.581,-6.2944e-05,0
2.5815,-6.5965e-05,0
2.582,-7.2679e-05,0
2.5825,-8.7953e-05,0
2.583,-8.9632e-05,0
2.5835,-9.2317e-05,0
2.584,-0.00011363,0
2.5845,-0.00011733,0
2.585,-9.752e-05,0
2.5855,-8.6442e-05,0
2.586,-0.00011716,0
2.5865,-0.00013344,0
2.587,-3.2395e-05,0
2.5875,0.00014771,0
2.588,0.00027913,0
2.5885,0.00032613,0
2.589,0.00034795,0
2.5895,0.00038119,0
2.59,0.00042214,0
2.5905,0.00045638,0
2.591,0.0004255,0
2.5915,0.0002986,0
2.592,0.00015795,0
2.5925,6.2944e-05,0
2.593,-2.8534e-06,0
2.5935,-4.683e-05,0
2.594,-5.7237e-05,0
2.5945,-5.304e-05,0
2.595,-5.2705e-05,0
2.5955,-5.623e-05,0
2.596,-6.6468e-05,0
2.5965,-0.0001039,0
2.597,-0.00015593,0
2.5975,-0.00014905,0
2.598,-6.6133e-05,0
2.5985,2.9374e-05,0
2.599,7.8386e-05,0
2.5995,7.3014e-05,0
2.6,4.0955e-05,0
2.6005,3.8605e-06,0
2.601,-2.4002e-05,0
2.6015,-4.1795e-05,0
2.602,-6.3951e-05,0
2.6025,-8.6275e-05,0
2.603,-0.00010692,0
2.6035,-0.00011162,0
2.604,-8.51e-05,0
2.6045,-4.9348e-05,0
2.605,-2.8031e-05,0
2.6055,-2.031e-05,0
2.606,-1.6617e-05,0
2.6065,-8.5603e-06,0
2.607,4.5319e-06,0
2.6075,1.561e-05,0
2.608,2.9038e-05,0
2.6085,4.3137e-05,0
2.609,5.1698e-05,0
2.6095,5.2201e-05,0
2.61,4.9515e-05,0
2.6105,4.9515e-05,0
2.611,4.918e-05,0
2.6115,4.3473e-05,0
2.612,3.6088e-05,0
2.6125,3.3738e-05,0
2.613,3.6088e-05,0
2.6135,3.8102e-05,0
2.614,2.9206e-05,0
2.6145,6.8818e-06,0
2.615,-2.7359e-05,0
2.6155,-5.2537e-05,0
2.616,-6.5126e-05,0
2.6165,-5.7908e-05,0
2.617,1.091e-05,0
2.6175,0.00013344,0
2.618,0.00022089,0
2.6185,0.00024926,0
2.619,0.00026134,0
2.6195,0.00027443,0
2.62,0.00027376,0
2.6205,0.00019756,0
2.621,3.2059e-05,0
2.6215,-8.9799e-05,0
2.622,-8.2078e-05,0
2.6225,-1.091e-05,0
2.623,2.5345e-05,0
2.6235,4.8676e-06,0
2.624,-4.3137e-05,0
2.6245,-8.661e-05,0
2.625,-0.00011112,0
2.6255,-0.00011917,0
2.626,-0.00012471,0
2.6265,-0.00014401,0
2.627,-0.00018917,0
2.6275,-0.00021166,0
2.628,-0.0001801,0
2.6285,-0.0001232,0
2.629,-8.0735e-05,0
2.6295,-4.8508e-05,0
2.63,-7.5532e-06,0
2.6305,4.5319e-05,0
2.631,8.5771e-05,0
2.6315,7.335e-05,0
2.632,-4.8844e-05,0
2.6325,-0.0002219,0
2.633,-0.00023902,0
2.6335,-2.3499e-05,0
2.634,0.00026571,0
2.6345,0.00043742,0
2.635,0.00044245,0
2.6355,0.00037447,0
2.636,0.00031807,0
2.6365,0.00025631,0
2.637,0.00016634,0
2.6375,8.7114e-05,0
2.638,5.7237e-05,0
2.6385,3.6088e-05,0
2.639,-4.0116e-05,0
2.6395,-0.0001655,0
2.64,-0.00022911,0
2.6405,-0.0001613,0
2.641,-1.5946e-05,0
2.6415,0.00011061,0
2.642,0.00016197,0
2.6425,0.0001373,0
2.643,7.6707e-05,0
2.6435,1.5946e-05,0
2.644,-2.3331e-05,0
2.6445,-2.5009e-05,0
2.645,-1.1246e-05,0
2.6455,-1.2253e-05,0
2.646,-1.6449e-05,0
2.6465,-2.7695e-05,0
2.647,-7.4189e-05,0
2.6475,-0.00014989,0
2.648,-0.00016298,0
2.6485,-6.5293e-05,0
2.649,7.9393e-05,0
2.6495,0.00018144,0
2.65,0.00022878,0
2.6505,0.00021921,0
2.651,0.00010709,0
2.6515,-3.3234e-05,0
2.652,-9.4163e-05,0
2.6525,-5.2872e-05,0
2.653,5.8579e-05,0
2.6535,0.00016852,0
2.654,0.00022626,0
2.6545,0.00022878,0
2.655,0.00017691,0
2.6555,6.865e-05,0
2.656,-8.3757e-05,0
2.6565,-0.00026033,0
2.657,-0.00040368,0
2.6575,-0.00042164,0
2.658,-0.00029508,0
2.6585,-0.00011061,0
2.659,1.2589e-05,0
2.6595,6.7475e-05,0
2.66,0.00011716,0
2.6605,0.00016584,0
2.661,0.00016214,0
2.6615,8.0903e-05,0
2.662,-2.2492e-05,0
2.6625,-8.191e-05,0
2.663,-0.00010021,0
2.6635,-0.00010491,0
2.664,-0.00010793,0
2.6645,-0.00010222,0
2.665,-8.8792e-05,0
2.6655,-7.4693e-05,0
2.666,-7.1336e-05,0
2.6665,-4.448e-05,0
2.667,2.1149e-05,0
2.6675,0.00011884,0
2.668,0.00022475,0
2.6685,0.00024254,0
2.669,0.00010105,0
2.6695,-7.5364e-05,0
2.67,-0.00012538,0
2.6705,-5.0355e-05,0
2.671,3.978e-05,0
2.6715,6.6972e-05,0
2.672,6.3279e-05,0
2.6725,7.9057e-05,0
2.673,0.00010507,0
2.6735,0.00010423,0
2.674,7.2007e-05,0
2.6745,5.0523e-05,0
2.675,4.6494e-05,0
2.6755,1.8631e-05,0
2.676,-3.0549e-05,0
2.6765,-5.5222e-05,0
2.677,-4.0787e-05,0
2.6775,-4.1962e-06,0
2.678,3.2731e-05,0
2.6785,6.0761e-05,0
2.679,7.4693e-05,0
2.6795,4.1459e-05,0
2.68,-1.5106e-05,0
2.6805,-3.1052e-05,0
2.681,-3.8605e-06,0
2.6815,4.1627e-05,0
2.682,8.5267e-05,0
2.6825,0.00011884,0
2.683,0.0001462,0
2.6835,0.0001603,0
2.684,0.00015157,0
2.6845,0.00013378,0
2.685,0.00012136,0
2.6855,0.0001138,0
2.686,8.51e-05,0
2.6865,1.8631e-05,0
2.687,-1.9303e-05,0
2.6875,8.896e-06,0
2.688,6.9993e-05,0
2.6885,0.00011112,0
2.689,0.00010037,0
2.6895,4.8173e-05,0
2.69,4.8676e-06,0
2.6905,4.1962e-06,0
2.691,2.9206e-05,0
2.6915,5.153e-05,0
2.692,5.9922e-05,0
2.6925,5.1865e-05,0
2.693,3.592e-05,0
2.6935,3.0045e-05,0
2.694,3.3066e-05,0
2.6945,3.2563e-05,0
2.695,1.7624e-05,0
2.6955,-2.0646e-05,0
2.696,-9.366e-05,0
2.6965,-0.00016265,0
2.697,-0.00018061,0
2.6975,-0.00013663,0
2.698,-6.8818e-05,0
2.6985,-1.5274e-05,0
2.699,5.2033e-06,0
2.6995,-4.1962e-06,0
2.7,-3.8102e-05,0
2.7005,-0.00011061,0
2.701,-0.00015845,0
2.7015,-0.00013042,0
2.702,-4.6662e-05,0
2.7025,3.8102e-05,0
2.703,4.2802e-05,0
2.7035,1.561e-05,0
2.704,7.6204e-05,0
2.7045,0.00020394,0
2.705,0.00029793,0
2.7055,0.00034762,0
2.706,0.00033754,0
2.7065,0.00025731,0
2.707,0.00015811,0
2.7075,5.5222e-05,0
2.708,-8.0064e-05,0
2.7085,-0.00022441,0
2.709,-0.00028484,0
2.7095,-0.00024103,0
2.71,-0.00017859,0
2.7105,-0.00014821,0
2.711,-0.00011598,0
2.7115,-4.6494e-05,0
2.712,3.1891e-05,0
2.7125,7.57e-05,0
2.713,7.5029e-05,0
2.7135,4.6662e-05,0
2.714,2.4674e-05,0
2.7145,2.887e-05,0
2.715,3.6088e-05,0
2.7155,2.8031e-05,0
2.716,1.1414e-05,0
2.7165,-2.8534e-06,0
2.717,-1.0239e-05,0
2.7175,-1.6281e-05,0
2.718,-3.4409e-05,0
2.7185,-7.0329e-05,0
2.719,-0.00014015,0
2.7195,-0.00018917,0
2.72,-0.00011464,0
2.7205,8.1071e-05,0
2.721,0.00028971,0
2.7215,0.00039864,0
2.722,0.00039327,0
2.7225,0.00032949,0
2.723,0.00021837,0
2.7235,7.2679e-05,0
2.724,-4.0619e-05,0
2.7245,-7.6707e-05,0
2.725,-6.0594e-05,0
2.7255,-3.1052e-05,0
2.726,7.2175e-06,0
2.7265,4.2802e-05,0
2.727,5.8915e-05,0
2.7275,5.1362e-05,0
2.728,2.9374e-05,0
2.7285,-5.539e-06,0
2.729,-4.7837e-05,0
2.7295,-7.3014e-05,0
2.73,-7.8553e-05,0
2.7305,-8.6107e-05,0
2.731,-9.6345e-05,0
2.7315,-9.366e-05,0
2.732,-7.0832e-05,0
2.7325,-1.9638e-05,0
2.733,6.2104e-05,0
2.7335,0.00014519,0
2.734,0.00018245,0
2.7345,0.000166,0
2.735,0.00014217,0
2.7355,0.000118,0
2.736,6.949e-05,0
2.7365,1.326e-05,0
2.737,1.0071e-06,0
2.7375,4.3641e-05,0
2.738,0.00010423,0
2.7385,0.0001331,0
2.739,0.00010692,0
2.7395,5.4215e-05,0
2.74,2.2492e-05,0
2.7405,-1.0239e-05,0
2.741,-9.8527e-05,0
2.7415,-0.00020931,0
2.742,-0.00030448,0
2.7425,-0.00041559,0
2.743,-0.00052839,0
2.7435,-0.00053376,0
2.744,-0.00032428,0
2.7445,1.9303e-05,0
2.745,0.0003127,0
2.7455,0.00046175,0
2.746,0.00045974,0
2.7465,0.00035836,0
2.747,0.00022811,0
2.7475,0.00010558,0
2.748,9.3996e-06,0
2.7485,-5.3208e-05,0
2.749,-7.7546e-05,0
2.7495,-5.5222e-05,0
2.75,2.8534e-06,0
2.7505,5.0187e-05,0
2.751,6.0929e-05,0
2.7515,4.4312e-05,0
2.752,2.1317e-05,0
2.7525,1.1078e-05,0
2.753,1.9303e-05,0
2.7535,2.5345e-05,0
2.754,1.1582e-05,0
2.7545,-2.182e-06,0
2.755,5.2033e-06,0
2.7555,2.4338e-05,0
2.756,3.4745e-05,0
2.7565,3.2059e-05,0
2.757,2.4674e-05,0
2.7575,-1.091e-05,0
2.758,-7.6707e-05,0
2.7585,-0.00010222,0
2.759,-4.6326e-05,0
2.7595,4.0787e-05,0
2.76,8.7114e-05,0
2.7605,0.00010021,0
2.761,0.00011884,0
2.7615,0.00010726,0
2.762,7.0161e-05,0
2.7625,5.1194e-05,0
2.763,5.9251e-05,0
2.7635,6.4286e-05,0
2.764,5.2033e-05,0
2.7645,2.6352e-05,0
2.765,-8.5603e-06,0
2.7655,-5.2537e-05,0
2.766,-0.00010491,0
2.7665,-0.00013344,0
2.767,-8.7785e-05,0
2.7675,5.7069e-06,0
2.768,6.6804e-05,0
2.7685,8.8792e-05,0
2.769,0.00011095,0
2.7695,0.00014888,0
2.77,0.00018061,0
2.7705,0.00018749,0
2.771,0.000165,0
2.7715,0.00012404,0
2.772,8.3421e-05,0
2.7725,6.244e-05,0
2.773,6.6972e-05,0
2.7735,7.3686e-05,0
2.774,6.0929e-05,0
2.7745,4.8844e-05,0
2.775,5.5055e-05,0
2.7755,6.6972e-05,0
2.776,6.1936e-05,0
2.7765,3.9445e-05,0
2.777,2.3163e-05,0
2.7775,2.1653e-05,0
2.778,5.5726e-05,0
2.7785,9.987e-05,0
2.779,9.2317e-05,0
2.7795,2.9374e-05,0
2.78,-2.7695e-05,0
2.7805,-5.6062e-05,0
2.781,-6.5629e-05,0
2.7815,-7.3518e-05,0
2.782,-8.6107e-05,0
2.7825,-0.00010088,0
2.783,-0.00013545,0
2.7835,-0.00021753,0
2.784,-0.00026386,0
2.7845,-0.00022123,0
2.785,-0.0001425,0
2.7855,-6.479e-05,0
2.786,2.031e-05,0
2.7865,9.0135e-05,0
2.787,8.4428e-05,0
2.7875,1.0575e-05,0
2.788,-5.304e-05,0
2.7885,-6.949e-05,0
2.789,-6.1097e-05,0
2.7895,-5.8244e-05,0
2.79,-6.3615e-05,0
2.7905,-6.6133e-05,0
2.791,-5.8412e-05,0
2.7915,-2.4674e-05,0
2.792,2.9206e-05,0
2.7925,7.8889e-05,0
2.793,0.00011263,0
2.7935,0.0001279,0
2.794,0.00012236,0
2.7945,0.00010289,0
2.795,7.9057e-05,0
2.7955,5.1865e-05,0
2.796,2.8702e-05,0
2.7965,1.326e-05,0
2.797,-4.1962e-06,0
2.7975,-3.9109e-05,0
2.798,-8.6946e-05,0
2.7985,-9.0974e-05,0
2.799,-1.2924e-05,0
2.7995,7.3182e-05,0
2.8,8.7785e-05,0
2.8005,7.3014e-05,0
2.801,8.7114e-05,0
2.8015,0.00012975,0
2.802,0.00016936,0
2.8025,0.00018514,0
2.803,0.00017977,0
2.8035,0.00014788,0
2.804,8.6442e-05,0
2.8045,2.3163e-05,0
2.805,-3.1891e-06,0
2.8055,4.5319e-06,0
2.806,-1.0071e-06,0
2.8065,-4.9851e-05,0
2.807,-9.5842e-05,0
2.8075,-7.7714e-05,0
2.808,3.8605e-06,0
2.8085,0.00010188,0
2.809,0.00016684,0
2.8095,0.00015828,0
2.81,7.7714e-05,0
2.8105,1.4939e-05,0
2.811,2.7359e-05,0
2.8115,4.918e-05,0
2.812,2.5177e-05,0
2.8125,3.0213e-06,0
2.813,4.1962e-06,0
2.8135,1.4267e-05,0
2.814,8.3757e-05,0
2.8145,0.00023297,0
2.815,0.00038387,0
2.8155,0.00043758,0
2.816,0.00035668,0
2.8165,0.00018514,0
2.817,8.392e-07,0
2.8175,-0.00014183,0
2.818,-0.00022391,0
2.8185,-0.00024439,0
2.819,-0.00022072,0
2.8195,-0.00016751,0
2.82,-9.9031e-05,0
2.8205,-4.6159e-05,0
2.821,-3.6423e-05,0
2.8215,-6.1097e-05,0
2.822,-0.00010037,0
2.8225,-0.00013915,0
2.823,-0.00016399,0
2.8235,-0.00016399,0
2.824,-0.00013814,0
2.8245,-9.5171e-05,0
2.825,-5.5894e-05,0
2.8255,-6.7979e-05,0
2.826,-0.00013143,0
2.8265,-0.00015912,0
2.827,-0.00010457,0
2.8275,4.8676e-06,0
2.828,9.1981e-05,0
2.8285,0.00012169,0
2.829,0.00012605,0
2.8295,0.00012572,0
2.83,0.00011363,0
2.8305,0.00010457,0
2.831,9.4163e-05,0
2.8315,5.1865e-05,0
2.832,-2.3667e-05,0
2.8325,-8.5771e-05,0
2.833,-9.1981e-05,0
2.8335,-5.5894e-05,0
2.834,-1.7624e-05,0
2.8345,3.0213e-06,0
2.835,2.3667e-05,0
2.8355,5.0858e-05,0
2.836,8.2414e-05,0
2.8365,0.00011296,0
2.837,0.00012253,0
2.8375,0.00010558,0
2.838,8.5435e-05,0
2.8385,8.2918e-05,0
2.839,8.7785e-05,0
2.8395,7.4189e-05,0
2.84,4.3641e-05,0
2.8405,2.6017e-05,0
2.841,2.0981e-05,0
2.8415,-1.091e-05,0
2.842,-7.3686e-05,0
2.8425,-0.00014821,0
2.843,-0.00016399,0
2.8435,-7.2343e-05,0
2.844,7.956e-05,0
2.8445,0.00020058,0
2.845,0.00023952,0
2.8455,0.00022206,0
2.846,0.00019957,0
2.8465,0.00017523,0
2.847,0.00013411,0
2.8475,8.1239e-05,0
2.848,3.6088e-05,0
2.8485,6.8818e-06,0
2.849,-1.091e-05,0
2.8495,-1.947e-05,0
2.85,-2.7024e-05,0
2.8505,-4.0955e-05,0
2.851,-6.5293e-05,0
2.8515,-7.7378e-05,0
2.852,-6.6636e-05,0
2.8525,-5.1865e-05,0
2.853,-1.2253e-05,0
2.8535,9.3324e-05,0
2.854,0.0002506,0
2.8545,0.00036776,0
2.855,0.00036507,0
2.8555,0.00026101,0
2.856,0.00011128,0
2.8565,-4.8844e-05,0
2.857,-0.00017104,0
2.8575,-0.00023365,0
2.858,-0.00025664,0
2.8585,-0.00025631,0
2.859,-0.00023046,0
2.8595,-0.00017742,0
2.86,-0.00011263,0
2.8605,-6.2104e-05,0
2.861,-3.2898e-05,0
2.8615,1.1749e-06,0
2.862,5.2872e-05,0
2.8625,0.0001086,0
2.863,0.0001368,0
2.8635,0.00013344,0
2.864,0.00012572,0
2.8645,0.00011917,0
2.865,0.00010591,0
2.8655,8.7114e-05,0
2.866,6.6804e-05,0
2.8665,4.7837e-05,0
2.867,2.5681e-05,0
2.8675,-1.678e-07,0
2.868,-2.3835e-05,0
2.8685,-4.8508e-05,0
2.869,-9.601e-05,0
2.8695,-0.00013864,0
2.87,-0.00012857,0
2.8705,-5.8747e-05,0
2.871,2.6688e-05,0
2.8715,8.6778e-05,0
2.872,0.00011128,0
2.8725,0.00010088,0
2.873,7.6371e-05,0
2.8735,6.0761e-05,0
2.874,6.6133e-05,0
2.8745,8.2078e-05,0
2.875,3.4409e-05,0
2.8755,-8.0232e-05,0
2.876,-0.00012068,0
2.8765,-3.0381e-05,0
2.877,9.7017e-05,0
2.8775,0.00016298,0
2.878,0.00015593,0
2.8785,0.00010558,0
2.879,5.069e-05,0
2.8795,1.5946e-05,0
2.88,-6.714e-07,0
2.8805,-3.3402e-05,0
2.881,-0.00011397,0
2.8815,-0.00017473,0
2.882,-0.00013059,0
2.8825,-4.8508e-05,0
2.883,-2.3499e-05,0
2.8835,-7.4525e-05,0
2.884,-0.00012119,0
2.8845,-7.4861e-05,0
2.885,3.1388e-05,0
2.8855,0.000118,0
2.886,0.00015341,0
2.8865,0.00015023,0
2.887,0.00011749,0
2.8875,5.4383e-05,0
2.888,-2.4002e-05,0
2.8885,-8.6442e-05,0
2.889,-0.00010088,0
2.8895,-5.9419e-05,0
2.89,2.6856e-06,0
2.8905,7.2175e-06,0
2.891,-4.2298e-05,0
2.8915,-4.7166e-05,0
2.892,4.1459e-05,0
2.8925,0.00017406,0
2.893,0.00027712,0
2.8935,0.0003127,0
2.894,0.00029223,0
2.8945,0.00022995,0
2.895,0.00012941,0
2.8955,4.8676e-06,0
2.896,-9.8024e-05,0
2.8965,-0.00012505,0
2.897,-8.1743e-05,0
2.8975,-1.4939e-05,0
2.898,3.6088e-05,0
2.8985,5.2537e-05,0
2.899,3.3234e-05,0
2.8995,-1.1246e-05,0
2.9,-5.8915e-05,0
2.9005,-9.1981e-05,0
2.901,-0.00010574,0
2.9015,-0.00010222,0
2.902,-8.191e-05,0
2.9025,-4.0452e-05,0
2.903,1.326e-05,0
2.9035,5.3544e-05,0
2.904,7.6371e-05,0
2.9045,9.8863e-05,0
2.905,0.00011162,0
2.9055,0.00010558,0
2.906,6.8315e-05,0
2.9065,-5.8747e-06,0
2.907,-5.7237e-05,0
2.9075,-3.2563e-05,0
2.908,3.1052e-05,0
2.9085,6.4118e-05,0
2.909,4.5151e-05,0
2.9095,-1.4099e-05,0
2.91,-7.8386e-05,0
2.9105,-0.00013579,0
2.911,-0.00017221,0
2.9115,-0.0001603,0
2.912,-0.00010289,0
2.9125,-2.9709e-05,0
2.913,4.2634e-05,0
2.9135,0.00010625,0
2.914,0.00013495,0
2.9145,0.00013143,0
2.915,0.00013579,0
2.9155,0.0001608,0
2.916,0.00017977,0
2.9165,0.00016231,0
2.917,0.0001039,0
2.9175,5.0019e-05,0
2.918,4.0619e-05,0
2.9185,6.5461e-05,0
2.919,8.9799e-05,0
2.9195,9.2149e-05,0
2.92,8.1743e-05,0
2.9205,6.9993e-05,0
2.921,5.4887e-05,0
2.9215,4.1123e-05,0
2.922,3.1724e-05,0
2.9225,3.1724e-05,0
2.923,3.3234e-05,0
2.9235,1.9974e-05,0
2.924,-4.5319e-06,0
2.9245,-1.796e-05,0
2.925,-5.539e-06,0
2.9255,-1.1749e-06,0
2.926,-2.7359e-05,0
2.9265,-6.244e-05,0
2.927,-8.3757e-05,0
2.9275,-9.3156e-05,0
2.928,-0.00010306,0
2.9285,-0.00010893,0
2.929,-9.836e-05,0
2.9295,-7.4693e-05,0
2.93,-4.1795e-05,0
2.9305,-1.9974e-05,0
2.931,-3.0381e-05,0
2.9315,-2.9877e-05,0
2.932,1.6281e-05,0
2.9325,8.5267e-05,0
2.933,0.00013344,0
2.9335,0.00013092,0
2.934,9.4835e-05,0
2.9345,6.479e-05,0
2.935,4.3473e-05,0
2.9355,2.1317e-05,0
2.936,1.1582e-05,0
2.9365,1.6953e-05,0
2.937,-5.069e-05,0
2.9375,-0.00018463,0
2.938,-0.00021199,0
2.9385,-7.1839e-05,0
2.939,0.00013378,0
2.9395,0.00028115,0
2.94,0.00031791,0
2.9405,0.00025563,0
2.941,0.00013948,0
2.9415,3.3066e-05,0
2.942,-2.2995e-05,0
2.9425,-2.7695e-05,0
2.943,-7.3854e-06,0
2.9435,1.7624e-05,0
2.944,4.5487e-05,0
2.9445,7.5029e-05,0
2.945,8.8121e-05,0
2.9455,6.63e-05,0
2.946,2.9038e-05,0
2.9465,-1.1749e-06,0
2.947,-2.7192e-05,0
2.9475,-4.5823e-05,0
2.948,-6.3279e-05,0
2.9485,-9.2317e-05,0
2.949,-0.00013092,0
2.9495,-0.00015459,0
2.95,-0.00013025,0
2.9505,-5.4719e-05,0
2.951,3.122e-05,0
2.9515,9.4835e-05,0
2.952,0.00010726,0
2.9525,4.3977e-05,0
2.953,-3.7766e-05,0
2.9535,-5.1865e-05,0
2.954,1.8296e-05,0
2.9545,9.987e-05,0
2.955,0.00011666,0
2.9555,8.0064e-05,0
2.956,5.4551e-05,0
2.9565,6.3951e-05,0
2.957,6.9322e-05,0
2.9575,4.2802e-05,0
2.958,3.6927e-06,0
2.9585,-2.266e-05,0
2.959,-3.3738e-05,0
2.9595,-2.887e-05,0
2.96,-1.9638e-05,0
2.9605,-2.8367e-05,0
2.961,-5.4719e-05,0
2.9615,-7.1504e-05,0
2.962,-7.1336e-05,0
2.9625,-8.4932e-05,0
2.963,-0.00012337,0
2.9635,-0.00015056,0
2.964,-0.00014435,0
2.9645,-0.00010507,0
2.965,-3.0213e-05,0
2.9655,6.9154e-05,0
2.966,0.00016298,0
2.9665,0.00023482,0
2.967,0.0002835,0
2.9675,0.00028719,0
2.968,0.00022744,0
2.9685,0.00011716,0
2.969,1.3932e-05,0
2.9695,-3.6591e-05,0
2.97,-2.4674e-05,0
2.9705,2.4674e-05,0
2.971,8.04e-05,0
2.9715,0.00012673,0
2.972,0.00011901,0
2.9725,4.4816e-05,0
2.973,-5.1194e-05,0
2.9735,-0.00012857,0
2.974,-0.00014418,0
2.9745,-9.1142e-05,0
2.975,-6.3783e-06,0
2.9755,7.3182e-05,0
2.976,0.00013545,0
2.9765,0.00017372,0
2.977,0.00017037,0
2.9775,0.00012992,0
2.978,9.2317e-05,0
2.9785,7.1504e-05,0
2.979,4.6159e-05,0
2.9795,1.9974e-05,0
2.98,1.8463e-06,0
2.9805,-5.2033e-06,0
2.981,-1.678e-07,0
2.9815,6.0426e-06,0
2.982,3.357e-06,0
2.9825,-6.5461e-06,0
2.983,-2.1317e-05,0
2.9835,-4.8341e-05,0
2.984,-8.0064e-05,0
2.9845,-7.4357e-05,0
2.985,-5.4887e-05,0
2.9855,-7.3014e-05,0
2.986,-7.6539e-05,0
2.9865,-2.8702e-05,0
2.987,3.9445e-05,0
2.9875,8.6442e-05,0
2.988,9.752e-05,0
2.9885,7.6036e-05,0
2.989,4.0787e-05,0
2.9895,1.9806e-05,0
2.99,3.2563e-05,0
2.9905,7.2679e-05,0
2.991,0.00010961,0
2.9915,0.00011565,0
2.992,9.3324e-05,0
2.9925,6.2608e-05,0
2.993,2.7359e-05,0
2.9935,-4.5319e-06,0
2.994,-3.8102e-05,0
2.9945,-0.00010491,0
2.995,-0.00015509,0
2.9955,-0.00012068,0
2.996,-2.266e-05,0
2.9965,7.0664e-05,0
2.997,0.00011565,0
2.9975,0.00010054,0
2.998,4.4816e-05,0
2.9985,-2.8534e-06,0
2.999,-4.1962e-06,0
2.9995,5.2033e-06,0
3,-1.091e-05,0
3.0005,-4.0116e-05,0
3.001,-5.0187e-05,0
3.0015,-4.4816e-05,0
3.002,-5.0523e-05,0
3.0025,-4.6326e-05,0
3.003,-1.2924e-05,0
3.0035,3.9109e-05,0
3.004,7.956e-05,0
3.0045,9.3492e-05,0
3.005,9.4163e-05,0
3.0055,9.4667e-05,0
3.006,8.4428e-05,0
3.0065,5.9587e-05,0
3.007,3.9109e-05,0
3.0075,3.2898e-05,0
3.008,2.8367e-05,0
3.0085,8.5603e-06,0
3.009,-6.714e-06,0
3.0095,9.2317e-06,0
3.01,4.3473e-05,0
3.0105,6.8315e-05,0
3.011,8.3085e-05,0
3.0115,6.0929e-05,0
3.012,-3.1724e-05,0
3.0125,-0.00011984,0
3.013,-0.00010776,0
3.0135,2.4842e-05,0
3.014,0.00019991,0
3.0145,0.00030062,0
3.015,0.00027779,0
3.0155,0.00017708,0
3.016,3.9445e-05,0
3.0165,-8.0735e-05,0
3.017,-0.00014267,0
3.0175,-0.00015073,0
3.018,-0.00013327,0
3.0185,-0.00011095,0
3.019,-8.9464e-05,0
3.0195,-7.4861e-05,0
3.02,-7.3686e-05,0
3.0205,-9.8192e-05,0
3.021,-0.00017826,0
3.0215,-0.00029189,0
3.022,-0.00033973,0
3.0225,-0.00022341,0
3.023,1.6281e-05,0
3.0235,0.00023247,0
3.024,0.00034292,0
3.0245,0.00035903,0
3.025,0.00032563,0
3.0255,0.00026604,0
3.026,0.00018178,0
3.0265,8.7785e-05,0
3.027,1.2253e-05,0
3.0275,-2.2828e-05,0
3.028,-2.9374e-05,0
3.0285,-9.9031e-06,0
3.029,2.6352e-05,0
3.0295,4.4312e-05,0
3.03,2.266e-05,0
3.0305,-2.3499e-05,0
3.031,-5.388e-05,0
3.0315,-5.5894e-05,0
3.032,-5.3544e-05,0
3.0325,-5.9419e-05,0
3.033,-5.0523e-05,0
3.0335,-1.947e-05,0
3.034,1.7288e-05,0
3.0345,3.7095e-05,0
3.035,3.4073e-05,0
3.0355,2.3835e-05,0
3.036,2.2324e-05,0
3.0365,3.5416e-05,0
3.037,4.0116e-05,0
3.0375,2.8367e-05,0
3.038,2.4338e-05,0
3.0385,3.5248e-05,0
3.039,4.6159e-05,0
3.0395,5.3544e-05,0
3.04,6.2104e-05,0
3.0405,7.5532e-05,0
3.041,8.2078e-05,0
3.0415,6.1601e-05,0
3.042,2.6688e-05,0
3.0425,1.1749e-06,0
3.043,-1.1749e-06,0
3.0435,1.5946e-05,0
3.044,3.8102e-05,0
3.0445,5.2872e-05,0
3.045,5.4719e-05,0
3.0455,4.7166e-05,0
3.046,1.3596e-05,0
3.0465,-4.3809e-05,0
3.047,-7.6371e-05,0
3.0475,-7.9728e-05,0
3.048,-6.4286e-05,0
3.0485,-2.8367e-05,0
3.049,1.0071e-05,0
3.0495,4.2466e-05,0
3.05,7.2007e-05,0
3.0505,0.00010541,0
3.051,0.00013982,0
3.0515,0.0001613,0
3.052,0.00015946,0
3.0525,0.0001373,0
3.053,0.00010105,0
3.0535,5.5894e-05,0
3.054,1.8631e-05,0
3.0545,-2.6856e-06,0
3.055,-2.2324e-05,0
3.0555,-4.9515e-05,0
