0,0,0
0.0005,0,0
0.001,0,0
0.0015,0,0
0.002,0,0
0.0025,0,0
0.003,0,0
0.0035,0,0
0.004,0,0
0.0045,0,0
0.005,0,0
0.0055,0,0
0.006,0,0
0.0065,0,0
0.007,0,0
0.0075,0,0
0.008,0,0
0.0085,0,0
0.009,0,0
0.0095,0,0
0.01,0,0
0.0105,0,0
0.011,0,0
0.0115,0,0
0.012,0,0
0.0125,0,0
0.013,0,0
0.0135,0,0
0.014,0,0
0.0145,0,0
0.015,0,0
0.0155,0,0
0.016,0,0
0.0165,0,0
0.017,0,0
0.0175,0,0
0.018,0,0
0.0185,0,0
0.019,0,0
0.0195,0,0
0.02,0,0
0.0205,0,0
0.021,0,0
0.0215,0,0
0.022,0,0
0.0225,0,0
0.023,0,0
0.0235,0,0
0.024,0,0
0.0245,0,0
0.025,0,0
0.0255,0,0
0.026,1.6281e-05,0
0.0265,1.5946e-05,0
0.027,1.7121e-05,0
0.0275,1.8463e-05,0
0.028,1.796e-05,0
0.0285,1.8128e-05,0
0.029,1.8967e-05,0
0.0295,1.9638e-05,0
0.03,2.0142e-05,0
0.0305,1.9974e-05,0
0.031,2.031e-05,0
0.0315,2.1988e-05,0
0.032,2.266e-05,0
0.0325,2.1988e-05,0
0.033,2.1317e-05,0
0.0335,2.1317e-05,0
0.034,2.031e-05,0
0.0345,1.8967e-05,0
0.035,1.8967e-05,0
0.0355,2.031e-05,0
0.036,2.1988e-05,0
0.0365,2.2324e-05,0
0.037,2.1653e-05,0
0.0375,2.1317e-05,0
0.038,2.1653e-05,0
0.0385,2.0646e-05,0
0.039,2.1149e-05,0
0.0395,2.2492e-05,0
0.04,2.3835e-05,0
0.0405,2.3331e-05,0
0.041,2.0813e-05,0
0.0415,1.9638e-05,0
0.042,2.0142e-05,0
0.0425,2.0981e-05,0
0.043,2.2156e-05,0
0.0435,2.0981e-05,0
0.044,1.8631e-05,0
0.0445,1.796e-05,0
0.045,1.8296e-05,0
0.0455,1.796e-05,0
0.046,1.796e-05,0
0.0465,1.8463e-05,0
0.047,1.796e-05,0
0.0475,1.7624e-05,0
0.048,1.8296e-05,0
0.0485,1.6617e-05,0
0.049,1.561e-05,0
0.0495,1.5946e-05,0
0.05,1.6449e-05,0
0.0505,1.6785e-05,0
0.051,1.7792e-05,0
0.0515,1.7624e-05,0
0.052,1.6617e-05,0
0.0525,1.6617e-05,0
0.053,1.7121e-05,0
0.0535,1.7121e-05,0
0.054,1.7121e-05,0
0.0545,1.8296e-05,0
0.055,1.7288e-05,0
0.0555,1.5946e-05,0
0.056,1.6785e-05,0
0.0565,1.8631e-05,0
0.057,1.8631e-05,0
0.0575,1.9135e-05,0
0.058,2.0142e-05,0
0.0585,2.0646e-05,0
0.059,1.9974e-05,0
0.0595,1.8631e-05,0
0.06,1.8631e-05,0
0.0605,1.9974e-05,0
0.061,1.9974e-05,0
0.0615,1.796e-05,0
0.062,1.5442e-05,0
0.0625,1.4939e-05,0
0.063,1.561e-05,0
0.0635,1.561e-05,0
0.064,1.5106e-05,0
0.0645,1.5946e-05,0
0.065,1.6449e-05,0
0.0655,1.4939e-05,0
0.066,1.2924e-05,0
0.0665,1.1917e-05,0
0.067,1.091e-05,0
0.0675,1.1749e-05,0
0.068,1.326e-05,0
0.0685,1.3932e-05,0
0.069,1.2757e-05,0
0.0695,1.1917e-05,0
0.07,1.3932e-05,0
0.0705,1.561e-05,0
0.071,1.6281e-05,0
0.0715,1.796e-05,0
0.072,1.8631e-05,0
0.0725,1.8463e-05,0
0.073,1.8463e-05,0
0.0735,1.947e-05,0
0.074,1.947e-05,0
0.0745,1.8967e-05,0
0.075,1.796e-05,0
0.0755,1.9303e-05,0
0.076,2.2324e-05,0
0.0765,2.4002e-05,0
0.077,2.4674e-05,0
0.0775,2.4506e-05,0
0.078,2.3835e-05,0
0.0785,2.3499e-05,0
0.079,2.4674e-05,0
0.0795,2.5345e-05,0
0.08,2.4002e-05,0
0.0805,2.3667e-05,0
0.081,2.4674e-05,0
0.0815,2.417e-05,0
0.082,2.3667e-05,0
0.0825,2.2324e-05,0
0.083,2.266e-05,0
0.0835,2.4674e-05,0
0.084,2.6688e-05,0
0.0845,2.7192e-05,0
0.085,2.6017e-05,0
0.0855,2.4338e-05,0
0.086,2.2492e-05,0
0.0865,2.2156e-05,0
0.087,2.2492e-05,0
0.0875,2.3331e-05,0
0.088,2.3667e-05,0
0.0885,2.4506e-05,0
0.089,2.2995e-05,0
0.0895,2.0142e-05,0
0.09,1.8463e-05,0
0.0905,1.7792e-05,0
0.091,1.6617e-05,0
0.0915,1.5274e-05,0
0.092,1.4603e-05,0
0.0925,1.2421e-05,0
0.093,1.1582e-05,0
0.0935,1.5442e-05,0
0.094,1.796e-05,0
0.0945,1.6281e-05,0
0.095,1.5274e-05,0
0.0955,1.4939e-05,0
0.096,1.5946e-05,0
0.0965,1.7624e-05,0
0.097,1.8631e-05,0
0.0975,1.7792e-05,0
0.098,1.561e-05,0
0.0985,1.4267e-05,0
0.099,1.5106e-05,0
0.0995,1.5106e-05,0
0.1,1.5106e-05,0
0.1005,1.6617e-05,0
0.101,1.6785e-05,0
0.1015,1.5946e-05,0
0.102,1.5946e-05,0
0.1025,1.6617e-05,0
0.103,1.5274e-05,0
0.1035,1.3932e-05,0
0.104,1.3596e-05,0
0.1045,1.3596e-05,0
0.105,1.4603e-05,0
0.1055,1.6617e-05,0
0.106,1.6617e-05,0
0.1065,1.6114e-05,0
0.107,1.5946e-05,0
0.1075,1.5946e-05,0
0.108,1.6114e-05,0
0.1085,1.6617e-05,0
0.109,1.8296e-05,0
0.1095,1.9638e-05,0
0.11,1.8463e-05,0
0.1105,1.6617e-05,0
0.111,1.6617e-05,0
0.1115,1.9303e-05,0
0.112,2.182e-05,0
0.1125,2.1653e-05,0
0.113,2.0646e-05,0
0.1135,2.0478e-05,0
0.114,2.0646e-05,0
0.1145,1.8631e-05,0
0.115,1.8631e-05,0
0.1155,1.8967e-05,0
0.116,1.8967e-05,0
0.1165,1.8631e-05,0
0.117,1.8296e-05,0
0.1175,1.7792e-05,0
0.118,1.8128e-05,0
0.1185,1.8296e-05,0
0.119,1.8631e-05,0
0.1195,1.8296e-05,0
0.12,1.7288e-05,0
0.1205,1.6953e-05,0
0.121,1.7792e-05,0
0.1215,1.7288e-05,0
0.122,1.7288e-05,0
0.1225,1.9638e-05,0
0.123,2.0478e-05,0
0.1235,1.8967e-05,0
0.124,1.8631e-05,0
0.1245,1.8128e-05,0
0.125,1.6953e-05,0
0.1255,1.6953e-05,0
0.126,1.8296e-05,0
0.1265,1.8463e-05,0
0.127,1.7456e-05,0
0.1275,1.6617e-05,0
0.128,1.6617e-05,0
0.1285,1.6617e-05,0
0.129,1.796e-05,0
0.1295,1.8631e-05,0
0.13,1.9638e-05,0
0.1305,2.1149e-05,0
0.131,2.0981e-05,0
0.1315,1.796e-05,0
0.132,1.6785e-05,0
0.1325,1.9303e-05,0
0.133,2.1317e-05,0
0.1335,2.3163e-05,0
0.134,2.182e-05,0
0.1345,1.9303e-05,0
0.135,1.7288e-05,0
0.1355,1.7288e-05,0
0.136,1.9135e-05,0
0.1365,2.1149e-05,0
0.137,2.3331e-05,0
0.1375,2.5345e-05,0
0.138,2.4002e-05,0
0.1385,2.1317e-05,0
0.139,2.1988e-05,0
0.1395,2.3667e-05,0
0.14,2.1653e-05,0
0.1405,1.8631e-05,0
0.141,1.561e-05,0
0.1415,1.4939e-05,0
0.142,1.6785e-05,0
0.1425,1.8296e-05,0
0.143,1.7121e-05,0
0.1435,1.561e-05,0
0.144,1.6281e-05,0
0.1445,1.4939e-05,0
0.145,1.3596e-05,0
0.1455,1.6281e-05,0
0.146,1.7792e-05,0
0.1465,1.5946e-05,0
0.147,1.4603e-05,0
0.1475,1.2924e-05,0
0.148,1.2589e-05,0
0.1485,1.4603e-05,0
0.149,1.6617e-05,0
0.1495,1.5946e-05,0
0.15,1.5946e-05,0
0.1505,1.6617e-05,0
0.151,1.6281e-05,0
0.1515,1.3932e-05,0
0.152,1.3764e-05,0
0.1525,1.4603e-05,0
0.153,1.4435e-05,0
0.1535,1.4603e-05,0
0.154,1.7121e-05,0
0.1545,1.8128e-05,0
0.155,1.7121e-05,0
0.1555,1.5946e-05,0
0.156,1.5274e-05,0
0.1565,1.3932e-05,0
0.157,1.4603e-05,0
0.1575,1.5946e-05,0
0.158,1.6617e-05,0
0.1585,1.7121e-05,0
0.159,1.6953e-05,0
0.1595,1.7121e-05,0
0.16,1.8967e-05,0
0.1605,2.0142e-05,0
0.161,1.8799e-05,0
0.1615,1.7792e-05,0
0.162,1.4771e-05,0
0.1625,1.1917e-05,0
0.163,1.4435e-05,0
0.1635,1.9638e-05,0
0.164,1.9806e-05,0
0.1645,1.6953e-05,0
0.165,1.6617e-05,0
0.1655,1.7121e-05,0
0.166,1.8631e-05,0
0.1665,2.0646e-05,0
0.167,1.9806e-05,0
0.1675,1.9303e-05,0
0.168,1.9638e-05,0
0.1685,1.9303e-05,0
0.169,1.947e-05,0
0.1695,1.8967e-05,0
0.17,1.796e-05,0
0.1705,1.8631e-05,0
0.171,1.8967e-05,0
0.1715,1.8463e-05,0
0.172,1.8296e-05,0
0.1725,1.8296e-05,0
0.173,1.9303e-05,0
0.1735,2.031e-05,0
0.174,1.9303e-05,0
0.1745,1.8631e-05,0
0.175,1.8463e-05,0
0.1755,1.9974e-05,0
0.176,2.3667e-05,0
0.1765,2.4674e-05,0
0.177,2.3163e-05,0
0.1775,2.0813e-05,0
0.178,2.0981e-05,0
0.1785,2.1317e-05,0
0.179,1.947e-05,0
0.1795,1.947e-05,0
0.18,2.1988e-05,0
0.1805,2.3667e-05,0
0.181,2.2324e-05,0
0.1815,2.0981e-05,0
0.182,2.3331e-05,0
0.1825,2.6184e-05,0
0.183,2.5681e-05,0
0.1835,2.2995e-05,0
0.184,2.1317e-05,0
0.1845,2.1988e-05,0
0.185,2.2828e-05,0
0.1855,2.1988e-05,0
0.186,2.0981e-05,0
0.1865,2.1317e-05,0
0.187,2.2324e-05,0
0.1875,2.1317e-05,0
0.188,2.0142e-05,0
0.1885,2.031e-05,0
0.189,2.0981e-05,0
0.1895,2.182e-05,0
0.19,2.0981e-05,0
0.1905,1.8631e-05,0
0.191,1.9638e-05,0
0.1915,2.1317e-05,0
0.192,2.031e-05,0
0.1925,1.9303e-05,0
0.193,2.182e-05,0
0.1935,2.4674e-05,0
0.194,2.4002e-05,0
0.1945,2.0981e-05,0
0.195,2.0646e-05,0
0.1955,2.1149e-05,0
0.196,1.9806e-05,0
0.1965,1.8631e-05,0
0.197,1.7288e-05,0
0.1975,1.6617e-05,0
0.198,1.6617e-05,0
0.1985,1.796e-05,0
0.199,1.8631e-05,0
0.1995,1.7288e-05,0
0.2,1.561e-05,0
0.2005,1.7624e-05,0
0.201,1.947e-05,0
0.2015,1.796e-05,0
0.202,1.7624e-05,0
0.2025,1.7792e-05,0
0.203,1.7121e-05,0
0.2035,1.8631e-05,0
0.204,1.9303e-05,0
0.2045,1.796e-05,0
0.205,1.7288e-05,0
0.2055,1.7121e-05,0
0.206,1.6281e-05,0
0.2065,1.5274e-05,0
0.207,1.4939e-05,0
0.2075,1.3932e-05,0
0.208,1.4603e-05,0
0.2085,1.5946e-05,0
0.209,1.6617e-05,0
0.2095,1.5274e-05,0
0.21,1.3932e-05,0
0.2105,1.5778e-05,0
0.211,1.6281e-05,0
0.2115,1.561e-05,0
0.212,1.5442e-05,0
0.2125,1.5274e-05,0
0.213,1.7121e-05,0
0.2135,1.8967e-05,0
0.214,1.7624e-05,0
0.2145,1.7288e-05,0
0.215,1.8631e-05,0
0.2155,2.0646e-05,0
0.216,2.1988e-05,0
0.2165,2.0813e-05,0
0.217,1.7288e-05,0
0.2175,1.5946e-05,0
0.218,1.7624e-05,0
0.2185,1.7792e-05,0
0.219,1.6281e-05,0
0.2195,1.5946e-05,0
0.22,1.7288e-05,0
0.2205,1.947e-05,0
0.221,1.9806e-05,0
0.2215,1.7792e-05,0
0.222,1.7288e-05,0
0.2225,1.8631e-05,0
0.223,1.9135e-05,0
0.2235,2.0646e-05,0
0.224,2.3331e-05,0
0.2245,2.4002e-05,0
0.225,2.4338e-05,0
0.2255,2.3331e-05,0
0.226,2.266e-05,0
0.2265,2.182e-05,0
0.227,1.8967e-05,0
0.2275,1.7288e-05,0
0.228,1.8631e-05,0
0.2285,1.9303e-05,0
0.229,1.8296e-05,0
0.2295,1.6953e-05,0
0.23,1.6281e-05,0
0.2305,1.6617e-05,0
0.231,1.7624e-05,0
0.2315,1.8967e-05,0
0.232,1.7624e-05,0
0.2325,1.5946e-05,0
0.233,1.6953e-05,0
0.2335,1.9806e-05,0
0.234,1.9974e-05,0
0.2345,1.5946e-05,0
0.235,1.326e-05,0
0.2355,1.3932e-05,0
0.236,1.7288e-05,0
0.2365,1.9303e-05,0
0.237,1.8631e-05,0
0.2375,1.4603e-05,0
0.238,1.3596e-05,0
0.2385,1.5778e-05,0
0.239,1.8967e-05,0
0.2395,2.1317e-05,0
0.24,2.0478e-05,0
0.2405,1.6953e-05,0
0.241,1.6281e-05,0
0.2415,1.8296e-05,0
0.242,1.8631e-05,0
0.2425,1.5778e-05,0
0.243,1.4939e-05,0
0.2435,1.6785e-05,0
0.244,1.8463e-05,0
0.2445,1.8631e-05,0
0.245,1.7624e-05,0
0.2455,1.796e-05,0
0.246,1.9135e-05,0
0.2465,2.031e-05,0
0.247,2.182e-05,0
0.2475,2.182e-05,0
0.248,2.1317e-05,0
0.2485,2.0646e-05,0
0.249,1.9135e-05,0
0.2495,1.7288e-05,0
0.25,1.5778e-05,0
0.2505,1.5946e-05,0
0.251,1.9303e-05,0
0.2515,2.0646e-05,0
0.252,1.796e-05,0
0.2525,1.7288e-05,0
0.253,1.8296e-05,0
0.2535,1.796e-05,0
0.254,1.7792e-05,0
0.2545,1.9638e-05,0
0.255,2.2324e-05,0
0.2555,2.4338e-05,0
0.256,2.266e-05,0
0.2565,1.947e-05,0
0.257,1.7792e-05,0
0.2575,1.8631e-05,0
0.258,1.9974e-05,0
0.2585,1.9638e-05,0
0.259,1.8296e-05,0
0.2595,1.796e-05,0
0.26,1.8296e-05,0
0.2605,1.8463e-05,0
0.261,1.8631e-05,0
0.2615,1.7288e-05,0
0.262,1.7121e-05,0
0.2625,1.9638e-05,0
0.263,1.9974e-05,0
0.2635,1.8631e-05,0
0.264,1.8128e-05,0
0.2645,1.8296e-05,0
0.265,1.8128e-05,0
0.2655,1.9303e-05,0
0.266,2.0646e-05,0
0.2665,1.9806e-05,0
0.267,1.9638e-05,0
0.2675,2.1317e-05,0
0.268,2.182e-05,0
0.2685,2.0813e-05,0
0.269,1.8631e-05,0
0.2695,1.6953e-05,0
0.27,1.6114e-05,0
0.2705,1.5778e-05,0
0.271,1.7288e-05,0
0.2715,1.9638e-05,0
0.272,2.031e-05,0
0.2725,1.8296e-05,0
0.273,1.796e-05,0
0.2735,1.9974e-05,0
0.274,2.266e-05,0
0.2745,2.3835e-05,0
0.275,2.2995e-05,0
0.2755,2.1988e-05,0
0.276,2.0646e-05,0
0.2765,1.8631e-05,0
0.277,1.6953e-05,0
0.2775,1.6617e-05,0
0.278,1.796e-05,0
0.2785,1.796e-05,0
0.279,1.6449e-05,0
0.2795,1.5778e-05,0
0.28,1.7288e-05,0
0.2805,1.796e-05,0
0.281,1.561e-05,0
0.2815,1.5106e-05,0
0.282,1.7456e-05,0
0.2825,1.7792e-05,0
0.283,1.6785e-05,0
0.2835,1.7288e-05,0
0.284,1.7624e-05,0
0.2845,1.6617e-05,0
0.285,1.5946e-05,0
0.2855,1.5274e-05,0
0.286,1.4267e-05,0
0.2865,1.2253e-05,0
0.287,1.1917e-05,0
0.2875,1.3764e-05,0
0.288,1.5442e-05,0
0.2885,1.5442e-05,0
0.289,1.6281e-05,0
0.2895,1.8631e-05,0
0.29,2.1485e-05,0
0.2905,2.0142e-05,0
0.291,1.796e-05,0
0.2915,1.8463e-05,0
0.292,1.9303e-05,0
0.2925,1.9974e-05,0
0.293,2.0478e-05,0
0.2935,2.0981e-05,0
0.294,2.1988e-05,0
0.2945,2.182e-05,0
0.295,1.9638e-05,0
0.2955,1.8463e-05,0
0.296,1.9638e-05,0
0.2965,2.1149e-05,0
0.297,2.1317e-05,0
0.2975,2.1653e-05,0
0.298,2.266e-05,0
0.2985,2.1988e-05,0
0.299,1.9638e-05,0
0.2995,1.796e-05,0
0.3,1.7121e-05,0
0.3005,1.5946e-05,0
0.301,1.7288e-05,0
0.3015,1.8631e-05,0
0.302,1.9303e-05,0
0.3025,1.8296e-05,0
0.303,1.7121e-05,0
0.3035,1.6617e-05,0
0.304,1.5946e-05,0
0.3045,1.6785e-05,0
0.305,1.6617e-05,0
0.3055,1.5274e-05,0
0.306,1.5946e-05,0
0.3065,1.6953e-05,0
0.307,1.7288e-05,0
0.3075,1.6449e-05,0
0.308,1.5946e-05,0
0.3085,1.8967e-05,0
0.309,2.1317e-05,0
0.3095,2.1317e-05,0
0.31,1.8967e-05,0
0.3105,1.8631e-05,0
0.311,2.1149e-05,0
0.3115,2.1988e-05,0
0.312,1.9806e-05,0
0.3125,1.796e-05,0
0.313,1.7624e-05,0
0.3135,1.8631e-05,0
0.314,1.9806e-05,0
0.3145,2.031e-05,0
0.315,1.9638e-05,0
0.3155,1.9135e-05,0
0.316,2.1317e-05,0
0.3165,2.2324e-05,0
0.317,2.1653e-05,0
0.3175,2.2492e-05,0
0.318,2.1988e-05,0
0.3185,2.031e-05,0
0.319,1.8631e-05,0
0.3195,1.8296e-05,0
0.32,1.796e-05,0
0.3205,1.7121e-05,0
0.321,1.7288e-05,0
0.3215,1.7456e-05,0
0.322,1.7792e-05,0
0.3225,1.8128e-05,0
0.323,1.7456e-05,0
0.3235,1.6617e-05,0
0.324,1.6281e-05,0
0.3245,1.561e-05,0
0.325,1.561e-05,0
0.3255,1.7792e-05,0
0.326,1.9974e-05,0
0.3265,2.1317e-05,0
0.327,1.9303e-05,0
0.3275,1.7624e-05,0
0.328,1.8128e-05,0
0.3285,1.8296e-05,0
0.329,1.9135e-05,0
0.3295,2.031e-05,0
0.33,2.031e-05,0
0.3305,1.8296e-05,0
0.331,1.6617e-05,0
0.3315,1.8296e-05,0
0.332,1.9974e-05,0
0.3325,1.8967e-05,0
0.333,1.7792e-05,0
0.3335,1.7121e-05,0
0.334,1.796e-05,0
0.3345,1.9806e-05,0
0.335,1.9638e-05,0
0.3355,1.7121e-05,0
0.336,1.796e-05,0
0.3365,2.1149e-05,0
0.337,2.1317e-05,0
0.3375,1.8967e-05,0
0.338,1.8296e-05,0
0.3385,1.9806e-05,0
0.339,2.1317e-05,0
0.3395,2.0646e-05,0
0.34,1.8296e-05,0
0.3405,1.7624e-05,0
0.341,1.7288e-05,0
0.3415,1.7288e-05,0
0.342,1.796e-05,0
0.3425,1.9638e-05,0
0.343,1.7624e-05,0
0.3435,1.5778e-05,0
0.344,1.6617e-05,0
0.3445,1.8631e-05,0
0.345,2.1149e-05,0
0.3455,1.9974e-05,0
0.346,1.7792e-05,0
0.3465,1.7288e-05,0
0.347,1.5778e-05,0
0.3475,1.4939e-05,0
0.348,1.5106e-05,0
0.3485,1.5946e-05,0
0.349,1.6953e-05,0
0.3495,1.5946e-05,0
0.35,1.4267e-05,0
0.3505,1.4771e-05,0
0.351,1.5274e-05,0
0.3515,1.4939e-05,0
0.352,1.5106e-05,0
0.3525,1.3932e-05,0
0.353,1.3932e-05,0
0.3535,1.5778e-05,0
0.354,1.7288e-05,0
0.3545,1.6953e-05,0
0.355,1.7121e-05,0
0.3555,1.8967e-05,0
0.356,2.1317e-05,0
0.3565,2.182e-05,0
0.357,1.9638e-05,0
0.3575,1.7624e-05,0
0.358,1.8296e-05,0
0.3585,1.9303e-05,0
0.359,1.947e-05,0
0.3595,1.7792e-05,0
0.36,1.796e-05,0
0.3605,1.9638e-05,0
0.361,1.9638e-05,0
0.3615,1.8296e-05,0
0.362,1.8296e-05,0
0.3625,1.9974e-05,0
0.363,2.0478e-05,0
0.3635,1.9974e-05,0
0.364,2.0646e-05,0
0.3645,2.2324e-05,0
0.365,2.3163e-05,0
0.3655,2.266e-05,0
0.366,2.0478e-05,0
0.3665,1.8631e-05,0
0.367,1.9135e-05,0
0.3675,1.9974e-05,0
0.368,2.1653e-05,0
0.3685,2.0646e-05,0
0.369,1.6617e-05,0
0.3695,1.5946e-05,0
0.37,1.7288e-05,0
0.3705,1.8631e-05,0
0.371,1.9303e-05,0
0.3715,1.7624e-05,0
0.372,1.7288e-05,0
0.3725,1.9974e-05,0
0.373,2.2828e-05,0
0.3735,2.266e-05,0
0.374,2.2324e-05,0
0.3745,2.1653e-05,0
0.375,2.1149e-05,0
0.3755,2.0646e-05,0
0.376,1.9974e-05,0
0.3765,2.0646e-05,0
0.377,1.9974e-05,0
0.3775,1.8631e-05,0
0.378,1.796e-05,0
0.3785,1.8296e-05,0
0.379,1.6953e-05,0
0.3795,1.7792e-05,0
0.38,1.8967e-05,0
0.3805,1.8967e-05,0
0.381,1.8967e-05,0
0.3815,1.7288e-05,0
0.382,1.6785e-05,0
0.3825,1.6953e-05,0
0.383,1.7121e-05,0
0.3835,1.7624e-05,0
0.384,1.796e-05,0
0.3845,1.796e-05,0
0.385,1.8631e-05,0
0.3855,1.8631e-05,0
0.386,1.7624e-05,0
0.3865,1.5778e-05,0
0.387,1.5274e-05,0
0.3875,1.6281e-05,0
0.388,1.7288e-05,0
0.3885,1.6449e-05,0
0.389,1.4939e-05,0
0.3895,1.5778e-05,0
0.39,1.7288e-05,0
0.3905,1.6785e-05,0
0.391,1.7121e-05,0
0.3915,1.7288e-05,0
0.392,1.5946e-05,0
0.3925,1.4435e-05,0
0.393,1.3428e-05,0
0.3935,1.4939e-05,0
0.394,1.7792e-05,0
0.3945,2.0142e-05,0
0.395,1.9974e-05,0
0.3955,1.7456e-05,0
0.396,1.6281e-05,0
0.3965,1.7624e-05,0
0.397,1.9135e-05,0
0.3975,1.9974e-05,0
0.398,1.947e-05,0
0.3985,1.9806e-05,0
0.399,2.0981e-05,0
0.3995,2.031e-05,0
0.4,1.9303e-05,0
0.4005,1.9135e-05,0
0.401,1.8967e-05,0
0.4015,1.9638e-05,0
0.402,1.947e-05,0
0.4025,1.8631e-05,0
0.403,1.9638e-05,0
0.4035,2.0646e-05,0
0.404,1.9303e-05,0
0.4045,1.6281e-05,0
0.405,1.4267e-05,0
0.4055,1.4435e-05,0
0.406,1.6617e-05,0
0.4065,1.796e-05,0
0.407,1.5442e-05,0
0.4075,1.3932e-05,0
0.408,1.5274e-05,0
0.4085,1.7288e-05,0
0.409,1.796e-05,0
0.4095,1.8296e-05,0
0.41,1.9303e-05,0
0.4105,1.9806e-05,0
0.411,1.9135e-05,0
0.4115,1.796e-05,0
0.412,1.6953e-05,0
0.4125,1.5946e-05,0
0.413,1.5946e-05,0
0.4135,1.8128e-05,0
0.414,2.0646e-05,0
0.4145,2.031e-05,0
0.415,1.8631e-05,0
0.4155,1.9638e-05,0
0.416,2.1317e-05,0
0.4165,2.1317e-05,0
0.417,2.0646e-05,0
0.4175,1.9135e-05,0
0.418,1.7456e-05,0
0.4185,1.7624e-05,0
0.419,1.6617e-05,0
0.4195,1.5106e-05,0
0.42,1.561e-05,0
0.4205,1.6617e-05,0
0.421,1.7624e-05,0
0.4215,1.9638e-05,0
0.422,2.1317e-05,0
0.4225,2.1988e-05,0
0.423,2.1988e-05,0
0.4235,2.2995e-05,0
0.424,2.4002e-05,0
0.4245,2.266e-05,0
0.425,2.0646e-05,0
0.4255,2.031e-05,0
0.426,1.9974e-05,0
0.4265,1.9638e-05,0
0.427,1.9974e-05,0
0.4275,1.9303e-05,0
0.428,1.7624e-05,0
0.4285,1.7121e-05,0
0.429,1.8296e-05,0
0.4295,2.031e-05,0
0.43,2.1317e-05,0
0.4305,1.9974e-05,0
0.431,1.8631e-05,0
0.4315,1.947e-05,0
0.432,2.0478e-05,0
0.4325,2.1149e-05,0
0.433,2.266e-05,0
0.4335,2.1653e-05,0
0.434,2.0646e-05,0
0.4345,2.1653e-05,0
0.435,2.1317e-05,0
0.4355,2.0646e-05,0
0.436,1.9806e-05,0
0.4365,2.0813e-05,0
0.437,2.4002e-05,0
0.4375,2.5681e-05,0
0.438,2.4674e-05,0
0.4385,2.2492e-05,0
0.439,1.947e-05,0
0.4395,1.8296e-05,0
0.44,1.9303e-05,0
0.4405,1.9806e-05,0
0.441,2.0142e-05,0
0.4415,2.1149e-05,0
0.442,2.1317e-05,0
0.4425,2.2324e-05,0
0.443,2.3499e-05,0
0.4435,2.2995e-05,0
0.444,2.1988e-05,0
0.4445,2.1653e-05,0
0.445,2.1653e-05,0
0.4455,2.0478e-05,0
0.446,1.8128e-05,0
0.4465,1.6449e-05,0
0.447,1.796e-05,0
0.4475,2.0981e-05,0
0.448,2.1317e-05,0
0.4485,2.0646e-05,0
0.449,2.0478e-05,0
0.4495,2.0478e-05,0
0.45,2.0981e-05,0
0.4505,2.031e-05,0
0.451,1.947e-05,0
0.4515,1.9638e-05,0
0.452,1.947e-05,0
0.4525,1.6953e-05,0
0.453,1.3764e-05,0
0.4535,1.4267e-05,0
0.454,1.4939e-05,0
0.4545,1.5106e-05,0
0.455,1.5442e-05,0
0.4555,1.5274e-05,0
0.456,1.5274e-05,0
0.4565,1.4603e-05,0
0.457,1.2589e-05,0
0.4575,1.1246e-05,0
0.458,1.1414e-05,0
0.4585,1.1246e-05,0
0.459,1.1246e-05,0
0.4595,1.1414e-05,0
0.46,1.2253e-05,0
0.4605,1.3932e-05,0
0.461,1.2924e-05,0
0.4615,1.0407e-05,0
0.462,1.0071e-05,0
0.4625,1.0239e-05,0
0.463,1.0407e-05,0
0.4635,1.2924e-05,0
0.464,1.4435e-05,0
0.4645,1.3092e-05,0
0.465,1.3932e-05,0
0.4655,1.5946e-05,0
0.466,1.7624e-05,0
0.4665,1.8463e-05,0
0.467,1.947e-05,0
0.4675,2.1317e-05,0
0.468,2.2995e-05,0
0.4685,2.3667e-05,0
0.469,2.2995e-05,0
0.4695,2.031e-05,0
0.47,1.8463e-05,0
0.4705,1.9974e-05,0
0.471,2.1317e-05,0
0.4715,2.1317e-05,0
0.472,2.1988e-05,0
0.4725,2.2324e-05,0
0.473,2.2492e-05,0
0.4735,2.2324e-05,0
0.474,2.1317e-05,0
0.4745,1.9806e-05,0
0.475,1.947e-05,0
0.4755,1.9974e-05,0
0.476,2.1149e-05,0
0.4765,2.0478e-05,0
0.477,1.8296e-05,0
0.4775,1.7624e-05,0
0.478,1.7624e-05,0
0.4785,1.7288e-05,0
0.479,1.6953e-05,0
0.4795,1.7288e-05,0
0.48,1.7288e-05,0
0.4805,1.7792e-05,0
0.481,1.796e-05,0
0.4815,1.6953e-05,0
0.482,1.6617e-05,0
0.4825,1.7624e-05,0
0.483,1.7624e-05,0
0.4835,1.7121e-05,0
0.484,1.6785e-05,0
0.4845,1.6953e-05,0
0.485,1.8631e-05,0
0.4855,1.947e-05,0
0.486,1.7121e-05,0
0.4865,1.5778e-05,0
0.487,1.6281e-05,0
0.4875,1.6449e-05,0
0.488,1.5274e-05,0
0.4885,1.5274e-05,0
0.489,1.6449e-05,0
0.4895,1.7624e-05,0
0.49,1.8296e-05,0
0.4905,1.8631e-05,0
0.491,1.8463e-05,0
0.4915,1.8296e-05,0
0.492,1.7624e-05,0
0.4925,1.6953e-05,0
0.493,1.561e-05,0
0.4935,1.5442e-05,0
0.494,1.6953e-05,0
0.4945,1.796e-05,0
0.495,1.9638e-05,0
0.4955,2.0813e-05,0
0.496,1.8296e-05,0
0.4965,1.6617e-05,0
0.497,1.7288e-05,0
0.4975,1.8128e-05,0
0.498,1.8296e-05,0
0.4985,2.031e-05,0
0.499,2.2492e-05,0
0.4995,2.1317e-05,0
0.5,1.8631e-05,0
0.5005,1.8799e-05,0
0.501,1.9303e-05,0
0.5015,1.9135e-05,0
0.502,1.796e-05,0
0.5025,1.7288e-05,0
0.503,1.9135e-05,0
0.5035,2.1149e-05,0
0.504,2.0646e-05,0
0.5045,1.8799e-05,0
0.505,1.8128e-05,0
0.5055,1.8631e-05,0
0.506,2.0981e-05,0
0.5065,2.1653e-05,0
0.507,2.031e-05,0
0.5075,1.8631e-05,0
0.508,1.8967e-05,0
0.5085,2.0478e-05,0
0.509,2.0813e-05,0
0.5095,2.0981e-05,0
0.51,1.9974e-05,0
0.5105,1.6449e-05,0
0.511,1.3596e-05,0
0.5115,1.3764e-05,0
0.512,1.4939e-05,0
0.5125,1.5946e-05,0
0.513,1.6617e-05,0
0.5135,1.7288e-05,0
0.514,1.8967e-05,0
0.5145,1.9303e-05,0
0.515,2.182e-05,0
0.5155,2.6352e-05,0
0.516,2.8031e-05,0
0.5165,2.6184e-05,0
0.517,2.3667e-05,0
0.5175,2.0981e-05,0
0.518,1.9303e-05,0
0.5185,1.8463e-05,0
0.519,1.9303e-05,0
0.5195,2.0646e-05,0
0.52,2.0646e-05,0
0.5205,2.0981e-05,0
0.521,2.1317e-05,0
0.5215,1.9638e-05,0
0.522,1.796e-05,0
0.5225,1.9638e-05,0
0.523,1.9638e-05,0
0.5235,1.8631e-05,0
0.524,1.9638e-05,0
0.5245,1.8967e-05,0
0.525,1.7456e-05,0
0.5255,1.796e-05,0
0.526,1.8967e-05,0
0.5265,1.947e-05,0
0.527,1.9303e-05,0
0.5275,1.9135e-05,0
0.528,1.9135e-05,0
0.5285,2.0813e-05,0
0.529,2.0813e-05,0
0.5295,1.9806e-05,0
0.53,1.796e-05,0
0.5305,1.7456e-05,0
0.531,1.796e-05,0
0.5315,1.6617e-05,0
0.532,1.561e-05,0
0.5325,1.5946e-05,0
0.533,1.6449e-05,0
0.5335,1.7288e-05,0
0.534,1.9638e-05,0
0.5345,1.9974e-05,0
0.535,1.8296e-05,0
0.5355,1.6785e-05,0
0.536,1.5946e-05,0
0.5365,1.6449e-05,0
0.537,1.7121e-05,0
0.5375,1.8631e-05,0
0.538,1.9974e-05,0
0.5385,1.8967e-05,0
0.539,1.7624e-05,0
0.5395,1.6449e-05,0
0.54,1.7288e-05,0
0.5405,1.9135e-05,0
0.541,1.9303e-05,0
0.5415,1.6953e-05,0
0.542,1.5106e-05,0
0.5425,1.5274e-05,0
0.543,1.4603e-05,0
0.5435,1.5106e-05,0
0.544,1.5274e-05,0
0.5445,1.6953e-05,0
0.545,1.7792e-05,0
0.5455,1.6953e-05,0
0.546,1.7121e-05,0
0.5465,1.7288e-05,0
0.547,1.7624e-05,0
0.5475,1.796e-05,0
0.548,1.8296e-05,0
0.5485,1.8631e-05,0
0.549,1.7792e-05,0
0.5495,1.7792e-05,0
0.55,1.8967e-05,0
0.5505,1.947e-05,0
0.551,1.9638e-05,0
0.5515,1.9974e-05,0
0.552,1.8967e-05,0
0.5525,1.8631e-05,0
0.553,2.1149e-05,0
0.5535,2.2995e-05,0
0.554,2.2995e-05,0
0.5545,2.1988e-05,0
0.555,1.947e-05,0
0.5555,1.796e-05,0
0.556,1.8631e-05,0
0.5565,1.9974e-05,0
0.557,2.0142e-05,0
0.5575,1.9974e-05,0
0.558,2.0478e-05,0
0.5585,2.1149e-05,0
0.559,1.9135e-05,0
0.5595,1.8128e-05,0
0.56,1.9135e-05,0
0.5605,1.8967e-05,0
0.561,1.9303e-05,0
0.5615,2.1988e-05,0
0.562,2.4002e-05,0
0.5625,2.2995e-05,0
0.563,2.1317e-05,0
0.5635,2.031e-05,0
0.564,2.031e-05,0
0.5645,2.031e-05,0
0.565,1.8463e-05,0
0.5655,1.8296e-05,0
0.566,2.0813e-05,0
0.5665,2.1149e-05,0
0.567,1.796e-05,0
0.5675,1.6617e-05,0
0.568,1.8296e-05,0
0.5685,1.8799e-05,0
0.569,1.7624e-05,0
0.5695,1.6617e-05,0
0.57,1.5946e-05,0
0.5705,1.6449e-05,0
0.571,1.6953e-05,0
0.5715,1.7121e-05,0
0.572,1.6449e-05,0
0.5725,1.6617e-05,0
0.573,1.6449e-05,0
0.5735,1.561e-05,0
0.574,1.4603e-05,0
0.5745,1.561e-05,0
0.575,1.5274e-05,0
0.5755,1.4939e-05,0
0.576,1.561e-05,0
0.5765,1.4771e-05,0
0.577,1.5274e-05,0
0.5775,1.6617e-05,0
0.578,1.7121e-05,0
0.5785,1.6785e-05,0
0.579,1.5274e-05,0
0.5795,1.3596e-05,0
0.58,1.4603e-05,0
0.5805,1.6785e-05,0
0.581,1.561e-05,0
0.5815,1.4099e-05,0
0.582,1.561e-05,0
0.5825,1.796e-05,0
0.583,1.8967e-05,0
0.5835,1.8967e-05,0
0.584,1.9638e-05,0
0.5845,1.9974e-05,0
0.585,1.9974e-05,0
0.5855,1.9135e-05,0
0.586,1.8631e-05,0
0.5865,1.8296e-05,0
0.587,1.796e-05,0
0.5875,1.9303e-05,0
0.588,1.796e-05,0
0.5885,1.6617e-05,0
0.589,1.6953e-05,0
0.5895,1.7121e-05,0
0.59,1.8128e-05,0
0.5905,2.0981e-05,0
0.591,2.182e-05,0
0.5915,2.0981e-05,0
0.592,2.1653e-05,0
0.5925,2.3331e-05,0
0.593,2.3163e-05,0
0.5935,2.266e-05,0
0.594,2.182e-05,0
0.5945,2.0981e-05,0
0.595,2.0646e-05,0
0.5955,2.1317e-05,0
0.596,2.2324e-05,0
0.5965,2.266e-05,0
0.597,2.2324e-05,0
0.5975,2.1317e-05,0
0.598,2.0981e-05,0
0.5985,2.1317e-05,0
0.599,2.1317e-05,0
0.5995,2.1317e-05,0
0.6,2.0646e-05,0
0.6005,1.9974e-05,0
0.601,1.796e-05,0
0.6015,1.8463e-05,0
0.602,2.0478e-05,0
0.6025,2.1149e-05,0
0.603,2.1149e-05,0
0.6035,1.9974e-05,0
0.604,1.8967e-05,0
0.6045,1.9135e-05,0
0.605,2.031e-05,0
0.6055,2.1317e-05,0
0.606,2.0646e-05,0
0.6065,1.9974e-05,0
0.607,2.1317e-05,0
0.6075,2.1317e-05,0
0.608,2.0813e-05,0
0.6085,1.9974e-05,0
0.609,1.9638e-05,0
0.6095,1.9303e-05,0
0.61,1.796e-05,0
0.6105,1.6449e-05,0
0.611,1.8296e-05,0
0.6115,1.9303e-05,0
0.612,1.7624e-05,0
0.6125,1.5274e-05,0
0.613,1.4267e-05,0
0.6135,1.5274e-05,0
0.614,1.6449e-05,0
0.6145,1.7121e-05,0
0.615,1.8296e-05,0
0.6155,1.9135e-05,0
0.616,1.8967e-05,0
0.6165,1.796e-05,0
0.617,1.561e-05,0
0.6175,1.4603e-05,0
0.618,1.5946e-05,0
0.6185,1.6617e-05,0
0.619,1.6617e-05,0
0.6195,1.6617e-05,0
0.62,1.7288e-05,0
0.6205,1.8128e-05,0
0.621,1.8799e-05,0
0.6215,1.9974e-05,0
0.622,1.947e-05,0
0.6225,1.796e-05,0
0.623,1.7456e-05,0
0.6235,1.8799e-05,0
0.624,1.7624e-05,0
0.6245,1.5274e-05,0
0.625,1.4603e-05,0
0.6255,1.6617e-05,0
0.626,1.8463e-05,0
0.6265,1.8296e-05,0
0.627,1.796e-05,0
0.6275,1.796e-05,0
0.628,1.7121e-05,0
0.6285,1.5106e-05,0
0.629,1.2589e-05,0
0.6295,1.2421e-05,0
0.63,1.2757e-05,0
0.6305,1.2253e-05,0
0.631,1.4939e-05,0
0.6315,1.8296e-05,0
0.632,1.8631e-05,0
0.6325,1.7792e-05,0
0.633,1.7121e-05,0
0.6335,1.947e-05,0
0.634,1.9974e-05,0
0.6345,1.8128e-05,0
0.635,1.5946e-05,0
0.6355,1.4939e-05,0
0.636,1.6617e-05,0
0.6365,1.7624e-05,0
0.637,1.4939e-05,0
0.6375,1.1917e-05,0
0.638,1.2085e-05,0
0.6385,1.2589e-05,0
0.639,1.1246e-05,0
0.6395,1.2421e-05,0
0.64,1.4435e-05,0
0.6405,1.6953e-05,0
0.641,1.9974e-05,0
0.6415,1.9806e-05,0
0.642,1.796e-05,0
0.6425,1.8631e-05,0
0.643,1.9806e-05,0
0.6435,2.0646e-05,0
0.644,2.1149e-05,0
0.6445,2.0981e-05,0
0.645,2.0478e-05,0
0.6455,2.031e-05,0
0.646,2.0813e-05,0
0.6465,2.2324e-05,0
0.647,2.3163e-05,0
0.6475,2.3163e-05,0
0.648,2.4002e-05,0
0.6485,2.4674e-05,0
0.649,2.5513e-05,0
0.6495,2.4674e-05,0
0.65,2.2995e-05,0
0.6505,2.266e-05,0
0.651,2.3163e-05,0
0.6515,2.3163e-05,0
0.652,2.2324e-05,0
0.6525,2.266e-05,0
0.653,2.2324e-05,0
0.6535,2.0478e-05,0
0.654,1.947e-05,0
0.6545,1.7288e-05,0
0.655,1.6281e-05,0
0.6555,1.6617e-05,0
0.656,1.4939e-05,0
0.6565,1.4267e-05,0
0.657,1.6617e-05,0
0.6575,1.8631e-05,0
0.658,1.8799e-05,0
0.6585,1.7792e-05,0
0.659,1.7121e-05,0
0.6595,1.796e-05,0
0.66,1.8631e-05,0
0.6605,1.9303e-05,0
0.661,1.9806e-05,0
0.6615,1.8967e-05,0
0.662,1.796e-05,0
0.6625,1.8128e-05,0
0.663,1.8799e-05,0
0.6635,2.031e-05,0
0.664,2.0646e-05,0
0.6645,1.9135e-05,0
0.665,1.796e-05,0
0.6655,1.8967e-05,0
0.666,2.031e-05,0
0.6665,2.0646e-05,0
0.667,2.0478e-05,0
0.6675,1.9638e-05,0
0.668,1.8463e-05,0
0.6685,1.8463e-05,0
0.669,1.9303e-05,0
0.6695,2.0478e-05,0
0.67,2.1149e-05,0
0.6705,2.0646e-05,0
0.671,2.1653e-05,0
0.6715,2.2828e-05,0
0.672,2.0646e-05,0
0.6725,1.8296e-05,0
0.673,1.8631e-05,0
0.6735,2.0646e-05,0
0.674,1.947e-05,0
0.6745,1.6617e-05,0
0.675,1.4939e-05,0
0.6755,1.6281e-05,0
0.676,1.8967e-05,0
0.6765,1.9135e-05,0
0.677,1.7288e-05,0
0.6775,1.6281e-05,0
0.678,1.6785e-05,0
0.6785,1.8296e-05,0
0.679,1.7624e-05,0
0.6795,1.5274e-05,0
0.68,1.3932e-05,0
0.6805,1.4267e-05,0
0.681,1.4603e-05,0
0.6815,1.5106e-05,0
0.682,1.4939e-05,0
0.6825,1.4603e-05,0
0.683,1.6449e-05,0
0.6835,1.7792e-05,0
0.684,1.9303e-05,0
0.6845,1.8799e-05,0
0.685,1.6617e-05,0
0.6855,1.5946e-05,0
0.686,1.7288e-05,0
0.6865,1.8631e-05,0
0.687,1.8631e-05,0
0.6875,1.9303e-05,0
0.688,2.031e-05,0
0.6885,2.1149e-05,0
0.689,2.0646e-05,0
0.6895,2.0142e-05,0
0.69,2.031e-05,0
0.6905,1.9974e-05,0
0.691,1.8631e-05,0
0.6915,1.8463e-05,0
0.692,1.8296e-05,0
0.6925,1.8631e-05,0
0.693,2.0478e-05,0
0.6935,2.0813e-05,0
0.694,1.8296e-05,0
0.6945,1.7288e-05,0
0.695,1.7624e-05,0
0.6955,1.796e-05,0
0.696,1.7288e-05,0
0.6965,1.6449e-05,0
0.697,1.6953e-05,0
0.6975,1.8967e-05,0
0.698,1.9806e-05,0
0.6985,2.0142e-05,0
0.699,2.0478e-05,0
0.6995,2.0142e-05,0
0.7,1.9638e-05,0
0.7005,1.8631e-05,0
0.701,1.7121e-05,0
0.7015,1.6617e-05,0
0.702,1.6617e-05,0
0.7025,1.7121e-05,0
0.703,1.6785e-05,0
0.7035,1.3932e-05,0
0.704,1.2757e-05,0
0.7045,1.561e-05,0
0.705,1.7121e-05,0
0.7055,1.6281e-05,0
0.706,1.6114e-05,0
0.7065,1.5946e-05,0
0.707,1.5946e-05,0
0.7075,1.5946e-05,0
0.708,1.5106e-05,0
0.7085,1.561e-05,0
0.709,1.7288e-05,0
0.7095,1.9638e-05,0
0.71,2.3163e-05,0
0.7105,2.5345e-05,0
0.711,2.5345e-05,0
0.7115,2.4338e-05,0
0.712,2.3331e-05,0
0.7125,2.2156e-05,0
0.713,2.182e-05,0
0.7135,2.2492e-05,0
0.714,2.2995e-05,0
0.7145,2.1317e-05,0
0.715,2.031e-05,0
0.7155,2.1988e-05,0
0.716,2.3331e-05,0
0.7165,2.2156e-05,0
0.717,1.9974e-05,0
0.7175,1.8128e-05,0
0.718,1.8296e-05,0
0.7185,2.1317e-05,0
0.719,2.3667e-05,0
0.7195,2.1317e-05,0
0.72,1.561e-05,0
0.7205,1.2253e-05,0
0.721,1.2924e-05,0
0.7215,1.4603e-05,0
0.722,1.561e-05,0
0.7225,1.7456e-05,0
0.723,1.9135e-05,0
0.7235,2.1317e-05,0
0.724,2.266e-05,0
0.7245,2.266e-05,0
0.725,2.0142e-05,0
0.7255,1.8631e-05,0
0.726,1.8631e-05,0
0.7265,1.7624e-05,0
0.727,1.7624e-05,0
0.7275,1.7288e-05,0
0.728,1.8631e-05,0
0.7285,2.0142e-05,0
0.729,2.0646e-05,0
0.7295,2.0142e-05,0
0.73,2.0646e-05,0
0.7305,2.0813e-05,0
0.731,1.8296e-05,0
0.7315,1.7288e-05,0
0.732,1.8296e-05,0
0.7325,1.9303e-05,0
0.733,1.9806e-05,0
0.7335,1.9303e-05,0
0.734,1.8128e-05,0
0.7345,1.7456e-05,0
0.735,1.7288e-05,0
0.7355,1.9303e-05,0
0.736,2.266e-05,0
0.7365,2.3163e-05,0
0.737,2.2324e-05,0
0.7375,2.182e-05,0
0.738,2.031e-05,0
0.7385,1.8631e-05,0
0.739,1.8631e-05,0
0.7395,1.9303e-05,0
0.74,1.9806e-05,0
0.7405,1.8799e-05,0
0.741,1.6953e-05,0
0.7415,1.5946e-05,0
0.742,1.6785e-05,0
0.7425,1.796e-05,0
0.743,1.6785e-05,0
0.7435,1.5946e-05,0
0.744,1.7288e-05,0
0.7445,1.796e-05,0
0.745,1.8296e-05,0
0.7455,1.9135e-05,0
0.746,2.031e-05,0
0.7465,2.0646e-05,0
0.747,2.0981e-05,0
0.7475,2.1317e-05,0
0.748,2.0478e-05,0
0.7485,1.9638e-05,0
0.749,1.6953e-05,0
0.7495,1.4603e-05,0
0.75,1.4939e-05,0
0.7505,1.5778e-05,0
0.751,1.561e-05,0
0.7515,1.5106e-05,0
0.752,1.561e-05,0
0.7525,1.7624e-05,0
0.753,1.8967e-05,0
0.7535,1.9806e-05,0
0.754,2.0646e-05,0
0.7545,2.1317e-05,0
0.755,2.0981e-05,0
0.7555,1.9303e-05,0
0.756,1.7792e-05,0
0.7565,1.6449e-05,0
0.757,1.5274e-05,0
0.7575,1.4267e-05,0
0.758,1.4603e-05,0
0.7585,1.3932e-05,0
0.759,1.5946e-05,0
0.7595,1.9303e-05,0
0.76,1.8296e-05,0
0.7605,1.4603e-05,0
0.761,1.2589e-05,0
0.7615,1.3596e-05,0
0.762,1.5778e-05,0
0.7625,1.6617e-05,0
0.763,1.6617e-05,0
0.7635,1.6617e-05,0
0.764,1.7792e-05,0
0.7645,1.8967e-05,0
0.765,1.9806e-05,0
0.7655,2.031e-05,0
0.766,2.0981e-05,0
0.7665,2.0981e-05,0
0.767,2.0646e-05,0
0.7675,1.9974e-05,0
0.768,2.1653e-05,0
0.7685,2.5009e-05,0
0.769,2.5513e-05,0
0.7695,2.5009e-05,0
0.77,2.2828e-05,0
0.7705,2.0142e-05,0
0.771,1.796e-05,0
0.7715,1.5274e-05,0
0.772,1.5946e-05,0
0.7725,2.0478e-05,0
0.773,2.3163e-05,0
0.7735,2.0981e-05,0
0.774,1.7624e-05,0
0.7745,1.7624e-05,0
0.775,2.0142e-05,0
0.7755,1.9974e-05,0
0.776,1.796e-05,0
0.7765,1.796e-05,0
0.777,1.9806e-05,0
0.7775,2.031e-05,0
0.778,1.9974e-05,0
0.7785,2.1317e-05,0
0.779,2.3331e-05,0
0.7795,2.3331e-05,0
0.78,2.1317e-05,0
0.7805,2.0646e-05,0
0.781,1.8631e-05,0
0.7815,1.5946e-05,0
0.782,1.5946e-05,0
0.7825,1.7624e-05,0
0.783,1.8631e-05,0
0.7835,1.8799e-05,0
0.784,1.8967e-05,0
0.7845,1.8967e-05,0
0.785,1.9638e-05,0
0.7855,2.0478e-05,0
0.786,1.9303e-05,0
0.7865,1.6785e-05,0
0.787,1.6953e-05,0
0.7875,1.8631e-05,0
0.788,1.6953e-05,0
0.7885,1.5442e-05,0
0.789,1.5946e-05,0
0.7895,1.561e-05,0
0.79,1.4603e-05,0
0.7905,1.5946e-05,0
0.791,1.8296e-05,0
0.7915,1.7121e-05,0
0.792,1.4939e-05,0
0.7925,1.326e-05,0
0.793,1.3092e-05,0
0.7935,1.1246e-05,0
0.794,9.9031e-06,0
0.7945,1.0407e-05,0
0.795,1.1078e-05,0
0.7955,1.2757e-05,0
0.796,1.561e-05,0
0.7965,1.5274e-05,0
0.797,1.2757e-05,0
0.7975,1.1246e-05,0
0.798,1.2924e-05,0
0.7985,1.5442e-05,0
0.799,1.561e-05,0
0.7995,1.4939e-05,0
0.8,1.4939e-05,0
0.8005,1.561e-05,0
0.801,1.6953e-05,0
0.8015,1.8296e-05,0
0.802,1.7288e-05,0
0.8025,1.6281e-05,0
0.803,1.7121e-05,0
0.8035,1.9806e-05,0
0.804,2.1653e-05,0
0.8045,2.2828e-05,0
0.805,2.4002e-05,0
0.8055,2.5177e-05,0
0.806,2.4506e-05,0
0.8065,2.266e-05,0
0.807,2.2324e-05,0
0.8075,2.0813e-05,0
0.808,2.0646e-05,0
0.8085,2.2492e-05,0
0.809,2.3163e-05,0
0.8095,2.3331e-05,0
0.81,2.2156e-05,0
0.8105,1.8631e-05,0
0.811,1.7792e-05,0
0.8115,1.9974e-05,0
0.812,2.2156e-05,0
0.8125,2.1988e-05,0
0.813,2.0981e-05,0
0.8135,2.2324e-05,0
0.814,2.4002e-05,0
0.8145,2.3331e-05,0
0.815,2.1317e-05,0
0.8155,2.0981e-05,0
0.816,2.1317e-05,0
0.8165,2.266e-05,0
0.817,2.2492e-05,0
0.8175,2.1988e-05,0
0.818,2.3331e-05,0
0.8185,2.4002e-05,0
0.819,2.1653e-05,0
0.8195,1.8967e-05,0
0.82,1.8631e-05,0
0.8205,1.796e-05,0
0.821,1.6281e-05,0
0.8215,1.5946e-05,0
0.822,1.7624e-05,0
0.8225,1.8631e-05,0
0.823,1.9135e-05,0
0.8235,2.0478e-05,0
0.824,1.9974e-05,0
0.8245,1.796e-05,0
0.825,1.5778e-05,0
0.8255,1.6281e-05,0
0.826,1.7792e-05,0
0.8265,1.6953e-05,0
0.827,1.4435e-05,0
0.8275,1.3596e-05,0
0.828,1.6617e-05,0
0.8285,1.9806e-05,0
0.829,1.9303e-05,0
0.8295,1.9135e-05,0
0.83,2.0646e-05,0
0.8305,2.1149e-05,0
0.831,1.947e-05,0
0.8315,1.796e-05,0
0.832,1.796e-05,0
0.8325,1.8631e-05,0
0.833,1.7624e-05,0
0.8335,1.5274e-05,0
0.834,1.3932e-05,0
0.8345,1.4267e-05,0
0.835,1.5946e-05,0
0.8355,1.6953e-05,0
0.836,1.8296e-05,0
0.8365,1.9806e-05,0
0.837,2.0646e-05,0
0.8375,1.9974e-05,0
0.838,1.6281e-05,0
0.8385,1.3932e-05,0
0.839,1.4603e-05,0
0.8395,1.7624e-05,0
0.84,1.8967e-05,0
0.8405,1.8631e-05,0
0.841,1.7121e-05,0
0.8415,1.4603e-05,0
0.842,1.4435e-05,0
0.8425,1.7456e-05,0
0.843,1.9806e-05,0
0.8435,1.9303e-05,0
0.844,1.7792e-05,0
0.8445,1.6617e-05,0
0.845,1.4603e-05,0
0.8455,1.3092e-05,0
0.846,1.4435e-05,0
0.8465,1.6617e-05,0
0.847,1.8631e-05,0
0.8475,2.1317e-05,0
0.848,2.266e-05,0
0.8485,2.182e-05,0
0.849,2.1653e-05,0
0.8495,2.1653e-05,0
0.85,2.1653e-05,0
0.8505,2.1653e-05,0
0.851,2.0813e-05,0
0.8515,2.1317e-05,0
0.852,2.266e-05,0
0.8525,2.4002e-05,0
0.853,2.3331e-05,0
0.8535,2.1317e-05,0
0.854,2.0981e-05,0
0.8545,2.031e-05,0
0.855,1.8967e-05,0
0.8555,1.8631e-05,0
0.856,1.9303e-05,0
0.8565,1.8967e-05,0
0.857,1.8631e-05,0
0.8575,1.8631e-05,0
0.858,1.796e-05,0
0.8585,1.7624e-05,0
0.859,1.7624e-05,0
0.8595,1.7288e-05,0
0.86,1.8631e-05,0
0.8605,1.9638e-05,0
0.861,1.9303e-05,0
0.8615,1.9974e-05,0
0.862,2.1317e-05,0
0.8625,2.1653e-05,0
0.863,2.031e-05,0
0.8635,1.947e-05,0
0.864,1.9974e-05,0
0.8645,2.1317e-05,0
0.865,2.266e-05,0
0.8655,2.182e-05,0
0.866,2.0478e-05,0
0.8665,1.9974e-05,0
0.867,1.9638e-05,0
0.8675,1.8799e-05,0
0.868,1.7624e-05,0
0.8685,1.6617e-05,0
0.869,1.5274e-05,0
0.8695,1.3764e-05,0
0.87,1.326e-05,0
0.8705,1.4267e-05,0
0.871,1.4099e-05,0
0.8715,1.1917e-05,0
0.872,1.2589e-05,0
0.8725,1.4603e-05,0
0.873,1.5442e-05,0
0.8735,1.5946e-05,0
0.874,1.6281e-05,0
0.8745,1.7288e-05,0
0.875,1.8296e-05,0
0.8755,1.7288e-05,0
0.876,1.6449e-05,0
0.8765,1.5946e-05,0
0.877,1.4939e-05,0
0.8775,1.561e-05,0
0.878,1.7288e-05,0
0.8785,1.6785e-05,0
0.879,1.4939e-05,0
0.8795,1.4603e-05,0
0.88,1.6281e-05,0
0.8805,1.9135e-05,0
0.881,2.0478e-05,0
0.8815,1.9135e-05,0
0.882,1.6953e-05,0
0.8825,1.4939e-05,0
0.883,1.3764e-05,0
0.8835,1.2924e-05,0
0.884,1.326e-05,0
0.8845,1.4939e-05,0
0.885,1.6281e-05,0
0.8855,1.7121e-05,0
0.886,1.6449e-05,0
0.8865,1.4939e-05,0
0.887,1.3764e-05,0
0.8875,1.3764e-05,0
0.888,1.5778e-05,0
0.8885,1.7121e-05,0
0.889,1.7792e-05,0
0.8895,1.8631e-05,0
0.89,1.6617e-05,0
0.8905,1.5274e-05,0
0.891,1.7121e-05,0
0.8915,1.7288e-05,0
0.892,1.7288e-05,0
0.8925,1.8296e-05,0
0.893,1.8631e-05,0
0.8935,1.7288e-05,0
0.894,1.7624e-05,0
0.8945,1.8967e-05,0
0.895,1.796e-05,0
0.8955,1.5778e-05,0
0.896,1.5946e-05,0
0.8965,1.8296e-05,0
0.897,2.1988e-05,0
0.8975,2.3667e-05,0
0.898,2.2995e-05,0
0.8985,2.1317e-05,0
0.899,2.1988e-05,0
0.8995,2.2995e-05,0
0.9,2.1988e-05,0
0.9005,2.1317e-05,0
0.901,2.0981e-05,0
0.9015,2.1149e-05,0
0.902,2.1317e-05,0
0.9025,2.1317e-05,0
0.903,2.1317e-05,0
0.9035,2.0478e-05,0
0.904,1.8296e-05,0
0.9045,1.9303e-05,0
0.905,2.3835e-05,0
0.9055,2.5681e-05,0
0.906,2.4338e-05,0
0.9065,2.1317e-05,0
0.907,2.0981e-05,0
0.9075,2.4002e-05,0
0.908,2.7695e-05,0
0.9085,2.7359e-05,0
0.909,2.4338e-05,0
0.9095,2.3499e-05,0
0.91,2.3163e-05,0
0.9105,2.266e-05,0
0.911,2.3163e-05,0
0.9115,2.2995e-05,0
0.912,2.1317e-05,0
0.9125,2.0981e-05,0
0.913,2.1653e-05,0
0.9135,2.182e-05,0
0.914,2.2324e-05,0
0.9145,2.1988e-05,0
0.915,1.9638e-05,0
0.9155,1.7121e-05,0
0.916,1.5778e-05,0
0.9165,1.7792e-05,0
0.917,2.1317e-05,0
0.9175,2.266e-05,0
0.918,2.1149e-05,0
0.9185,1.7624e-05,0
0.919,1.6449e-05,0
0.9195,1.6953e-05,0
0.92,1.796e-05,0
0.9205,1.9135e-05,0
0.921,1.8296e-05,0
0.9215,1.6953e-05,0
0.922,1.796e-05,0
0.9225,1.9135e-05,0
0.923,1.8463e-05,0
0.9235,1.6617e-05,0
0.924,1.7288e-05,0
0.9245,1.7288e-05,0
0.925,1.5946e-05,0
0.9255,1.4939e-05,0
0.926,1.5106e-05,0
0.9265,1.6785e-05,0
0.927,1.8296e-05,0
0.9275,1.9303e-05,0
0.928,2.031e-05,0
0.9285,2.1653e-05,0
0.929,2.1653e-05,0
0.9295,1.9638e-05,0
0.93,1.8128e-05,0
0.9305,1.8463e-05,0
0.931,1.9974e-05,0
0.9315,1.9974e-05,0
0.932,1.7121e-05,0
0.9325,1.5274e-05,0
0.933,1.5778e-05,0
0.9335,1.6449e-05,0
0.934,1.5946e-05,0
0.9345,1.6953e-05,0
0.935,1.9135e-05,0
0.9355,1.9638e-05,0
0.936,1.7288e-05,0
0.9365,1.561e-05,0
0.937,1.561e-05,0
0.9375,1.6281e-05,0
0.938,1.5106e-05,0
0.9385,1.4267e-05,0
0.939,1.3596e-05,0
0.9395,1.4267e-05,0
0.94,1.561e-05,0
0.9405,1.561e-05,0
0.941,1.5946e-05,0
0.9415,1.6449e-05,0
0.942,1.7288e-05,0
0.9425,1.8296e-05,0
0.943,1.8631e-05,0
0.9435,1.7121e-05,0
0.944,1.4603e-05,0
0.9445,1.3932e-05,0
0.945,1.4939e-05,0
0.9455,1.6281e-05,0
0.946,1.7121e-05,0
0.9465,1.8463e-05,0
0.947,1.9638e-05,0
0.9475,1.9974e-05,0
0.948,1.8631e-05,0
0.9485,1.796e-05,0
0.949,1.796e-05,0
0.9495,1.796e-05,0
0.95,1.8967e-05,0
0.9505,1.9135e-05,0
0.951,1.8296e-05,0
0.9515,1.8631e-05,0
0.952,1.796e-05,0
0.9525,1.6617e-05,0
0.953,1.5274e-05,0
0.9535,1.326e-05,0
0.954,1.3092e-05,0
0.9545,1.4099e-05,0
0.955,1.4435e-05,0
0.9555,1.4939e-05,0
0.956,1.6281e-05,0
0.9565,1.7624e-05,0
0.957,1.7288e-05,0
0.9575,1.6785e-05,0
0.958,1.6953e-05,0
0.9585,1.7456e-05,0
0.959,1.9303e-05,0
0.9595,1.9974e-05,0
0.96,1.9806e-05,0
0.9605,1.8296e-05,0
0.961,1.8799e-05,0
0.9615,1.9806e-05,0
0.962,1.796e-05,0
0.9625,1.5946e-05,0
0.963,1.7121e-05,0
0.9635,1.9303e-05,0
0.964,2.0813e-05,0
0.9645,1.9974e-05,0
0.965,1.7288e-05,0
0.9655,1.6617e-05,0
0.966,1.9974e-05,0
0.9665,2.266e-05,0
0.967,2.1988e-05,0
0.9675,1.947e-05,0
0.968,1.7288e-05,0
0.9685,1.6785e-05,0
0.969,1.6449e-05,0
0.9695,1.7121e-05,0
0.97,1.6785e-05,0
0.9705,1.4939e-05,0
0.971,1.3932e-05,0
0.9715,1.4603e-05,0
0.972,1.5946e-05,0
0.9725,1.6785e-05,0
0.973,1.7288e-05,0
0.9735,1.947e-05,0
0.974,2.1988e-05,0
0.9745,2.2156e-05,0
0.975,2.0813e-05,0
0.9755,1.8799e-05,0
0.976,1.7792e-05,0
0.9765,1.6953e-05,0
0.977,1.947e-05,0
0.9775,2.4002e-05,0
0.978,2.4674e-05,0
0.9785,2.1317e-05,0
0.979,1.8631e-05,0
0.9795,1.7288e-05,0
0.98,1.8463e-05,0
0.9805,1.9303e-05,0
0.981,1.8967e-05,0
0.9815,1.9135e-05,0
0.982,2.1317e-05,0
0.9825,2.266e-05,0
0.983,2.2492e-05,0
0.9835,2.1653e-05,0
0.984,2.1317e-05,0
0.9845,2.0981e-05,0
0.985,2.1317e-05,0
0.9855,2.266e-05,0
0.986,2.3835e-05,0
0.9865,2.4338e-05,0
0.987,2.3667e-05,0
0.9875,2.266e-05,0
0.988,2.3331e-05,0
0.9885,2.3667e-05,0
0.989,2.4002e-05,0
0.9895,2.5345e-05,0
0.99,2.4674e-05,0
0.9905,2.2324e-05,0
0.991,2.0478e-05,0
0.9915,2.0478e-05,0
0.992,2.1317e-05,0
0.9925,2.1653e-05,0
0.993,2.1988e-05,0
0.9935,2.2324e-05,0
0.994,1.947e-05,0
0.9945,1.561e-05,0
0.995,1.4939e-05,0
0.9955,1.5274e-05,0
0.996,1.7121e-05,0
0.9965,1.9303e-05,0
0.997,1.9974e-05,0
0.9975,1.8631e-05,0
0.998,1.4939e-05,0
0.9985,1.4435e-05,0
0.999,1.561e-05,0
0.9995,1.5274e-05,0
1,1.4603e-05,0
1.0005,1.3596e-05,0
1.001,1.3764e-05,0
1.0015,1.3932e-05,0
1.002,1.2253e-05,0
1.0025,1.0575e-05,0
1.003,9.2317e-06,0
1.0035,1.0575e-05,0
1.004,1.4099e-05,0
1.0045,1.5946e-05,0
1.005,1.6953e-05,0
1.0055,1.6953e-05,0
1.006,1.6617e-05,0
1.0065,1.6617e-05,0
1.007,1.6617e-05,0
1.0075,1.5946e-05,0
1.008,1.5946e-05,0
1.0085,1.6617e-05,0
1.009,1.7624e-05,0
1.0095,1.8631e-05,0
1.01,1.8967e-05,0
1.0105,1.8631e-05,0
1.011,1.8463e-05,0
1.0115,1.9303e-05,0
1.012,2.0981e-05,0
1.0125,2.0646e-05,0
1.013,1.9806e-05,0
1.0135,2.1317e-05,0
1.014,2.3331e-05,0
1.0145,2.182e-05,0
1.015,1.8463e-05,0
1.0155,1.6785e-05,0
1.016,1.7121e-05,0
1.0165,1.8463e-05,0
1.017,1.7792e-05,0
1.0175,1.7792e-05,0
1.018,1.9638e-05,0
1.0185,1.9974e-05,0
1.019,1.9303e-05,0
1.0195,1.9806e-05,0
1.02,1.9974e-05,0
1.0205,1.8128e-05,0
1.021,1.7456e-05,0
1.0215,1.7288e-05,0
1.022,1.7624e-05,0
1.0225,1.7792e-05,0
1.023,1.7288e-05,0
1.0235,1.7121e-05,0
1.024,1.6617e-05,0
1.0245,1.6617e-05,0
1.025,1.6281e-05,0
1.0255,1.4939e-05,0
1.026,1.3932e-05,0
1.0265,1.4603e-05,0
1.027,1.6281e-05,0
1.0275,1.796e-05,0
1.028,2.0142e-05,0
1.0285,1.9974e-05,0
1.029,1.8631e-05,0
1.0295,1.8296e-05,0
1.03,1.9135e-05,0
1.0305,1.8631e-05,0
1.031,2.031e-05,0
1.0315,2.1317e-05,0
1.032,2.031e-05,0
1.0325,1.9303e-05,0
1.033,1.9303e-05,0
1.0335,1.9974e-05,0
1.034,2.0646e-05,0
1.0345,2.1317e-05,0
1.035,2.2324e-05,0
1.0355,2.2995e-05,0
1.036,2.266e-05,0
1.0365,2.1653e-05,0
1.037,2.1653e-05,0
1.0375,2.1317e-05,0
1.038,2.1653e-05,0
1.0385,2.1317e-05,0
1.039,1.9974e-05,0
1.0395,1.9974e-05,0
1.04,1.9638e-05,0
1.0405,1.7624e-05,0
1.041,1.7121e-05,0
1.0415,1.8967e-05,0
1.042,1.9974e-05,0
1.0425,2.2324e-05,0
1.043,2.4002e-05,0
1.0435,2.1988e-05,0
1.044,1.9135e-05,0
1.0445,1.8799e-05,0
1.045,1.8296e-05,0
1.0455,1.7288e-05,0
1.046,1.5946e-05,0
1.0465,1.6281e-05,0
1.047,1.8799e-05,0
1.0475,2.0646e-05,0
1.048,2.0981e-05,0
1.0485,1.9806e-05,0
1.049,1.8296e-05,0
1.0495,1.8631e-05,0
1.05,1.9638e-05,0
1.0505,1.8967e-05,0
1.051,1.6617e-05,0
1.0515,1.561e-05,0
1.052,1.7288e-05,0
1.0525,1.8128e-05,0
1.053,1.6785e-05,0
1.0535,1.7288e-05,0
1.054,1.8631e-05,0
1.0545,1.7624e-05,0
1.055,1.5778e-05,0
1.0555,1.5274e-05,0
1.056,1.5946e-05,0
1.0565,1.5442e-05,0
1.057,1.4099e-05,0
1.0575,1.326e-05,0
1.058,1.4603e-05,0
1.0585,1.7288e-05,0
1.059,1.8631e-05,0
1.0595,1.8128e-05,0
1.06,1.7624e-05,0
1.0605,1.5946e-05,0
1.061,1.561e-05,0
1.0615,1.6449e-05,0
1.062,1.5274e-05,0
1.0625,1.4771e-05,0
1.063,1.6617e-05,0
1.0635,1.8296e-05,0
1.064,1.9806e-05,0
1.0645,1.9806e-05,0
1.065,1.8967e-05,0
1.0655,1.8967e-05,0
1.066,1.8631e-05,0
1.0665,1.8799e-05,0
1.067,1.9974e-05,0
1.0675,1.9974e-05,0
1.068,1.8631e-05,0
1.0685,1.9303e-05,0
1.069,2.1317e-05,0
1.0695,2.3163e-05,0
1.07,2.3331e-05,0
1.0705,2.2324e-05,0
1.071,2.2324e-05,0
1.0715,2.4338e-05,0
1.072,2.4338e-05,0
1.0725,2.1317e-05,0
1.073,1.8463e-05,0
1.0735,1.796e-05,0
1.074,1.8296e-05,0
1.0745,1.9135e-05,0
1.075,2.1988e-05,0
1.0755,2.2324e-05,0
1.076,1.8631e-05,0
1.0765,1.6953e-05,0
1.077,1.796e-05,0
1.0775,1.9974e-05,0
1.078,2.2324e-05,0
1.0785,2.2324e-05,0
1.079,2.0646e-05,0
1.0795,1.9303e-05,0
1.08,1.9974e-05,0
1.0805,1.9974e-05,0
1.081,1.9638e-05,0
1.0815,1.9135e-05,0
1.082,1.7624e-05,0
1.0825,1.6953e-05,0
1.083,1.7792e-05,0
1.0835,1.8128e-05,0
1.084,1.7792e-05,0
1.0845,1.8463e-05,0
1.085,1.8463e-05,0
1.0855,1.8631e-05,0
1.086,1.947e-05,0
1.0865,2.0142e-05,0
1.087,2.0813e-05,0
1.0875,2.0646e-05,0
1.088,2.1149e-05,0
1.0885,1.8967e-05,0
1.089,1.4603e-05,0
1.0895,1.3092e-05,0
1.09,1.5442e-05,0
1.0905,1.6281e-05,0
1.091,1.561e-05,0
1.0915,1.5274e-05,0
1.092,1.4939e-05,0
1.0925,1.3596e-05,0
1.093,1.4771e-05,0
1.0935,1.5778e-05,0
1.094,1.4939e-05,0
1.0945,1.4603e-05,0
1.095,1.6617e-05,0
1.0955,1.7288e-05,0
1.096,1.6281e-05,0
1.0965,1.5274e-05,0
1.097,1.3764e-05,0
1.0975,1.2924e-05,0
1.098,1.2253e-05,0
1.0985,1.1917e-05,0
1.099,1.5106e-05,0
1.0995,1.8296e-05,0
1.1,1.8631e-05,0
1.1005,1.8967e-05,0
1.101,1.9638e-05,0
1.1015,1.9974e-05,0
1.102,2.031e-05,0
1.1025,1.9638e-05,0
1.103,1.796e-05,0
1.1035,1.6785e-05,0
1.104,1.5946e-05,0
1.1045,1.6617e-05,0
1.105,1.7792e-05,0
1.1055,1.8631e-05,0
1.106,1.8463e-05,0
1.1065,1.7624e-05,0
1.107,1.796e-05,0
1.1075,1.9135e-05,0
1.108,2.0478e-05,0
1.1085,2.2492e-05,0
1.109,2.3667e-05,0
1.1095,2.1317e-05,0
1.11,1.8967e-05,0
1.1105,1.8631e-05,0
1.111,1.8296e-05,0
1.1115,1.8967e-05,0
1.112,1.9974e-05,0
1.1125,2.1988e-05,0
1.113,2.1317e-05,0
1.1135,2.0646e-05,0
1.114,2.031e-05,0
1.1145,2.1317e-05,0
1.115,2.2828e-05,0
1.1155,2.2828e-05,0
1.116,2.2156e-05,0
1.1165,2.1988e-05,0
1.117,2.1317e-05,0
1.1175,1.9638e-05,0
1.118,1.796e-05,0
1.1185,1.796e-05,0
1.119,1.8463e-05,0
1.1195,1.9135e-05,0
1.12,2.0478e-05,0
1.1205,2.1317e-05,0
1.121,2.1317e-05,0
1.1215,2.1317e-05,0
1.122,2.182e-05,0
1.1225,2.1149e-05,0
1.123,2.1317e-05,0
1.1235,2.3499e-05,0
1.124,2.5009e-05,0
1.1245,2.3499e-05,0
1.125,2.266e-05,0
1.1255,2.266e-05,0
1.126,2.1317e-05,0
1.1265,1.8463e-05,0
1.127,1.6617e-05,0
1.1275,1.7624e-05,0
1.128,1.8967e-05,0
1.1285,1.9303e-05,0
1.129,1.796e-05,0
1.1295,1.6449e-05,0
1.13,1.5946e-05,0
1.1305,1.5946e-05,0
1.131,1.6281e-05,0
1.1315,1.6449e-05,0
1.132,1.796e-05,0
1.1325,1.796e-05,0
1.133,1.6953e-05,0
1.1335,1.796e-05,0
1.134,1.8128e-05,0
1.1345,1.6953e-05,0
1.135,1.6617e-05,0
1.1355,1.6449e-05,0
1.136,1.5274e-05,0
1.1365,1.3932e-05,0
1.137,1.2924e-05,0
1.1375,1.3932e-05,0
1.138,1.6449e-05,0
1.1385,1.9135e-05,0
1.139,1.796e-05,0
1.1395,1.5946e-05,0
1.14,1.6281e-05,0
1.1405,1.6617e-05,0
1.141,1.6281e-05,0
1.1415,1.6617e-05,0
1.142,1.5778e-05,0
1.1425,1.3932e-05,0
1.143,1.326e-05,0
1.1435,1.561e-05,0
1.144,1.8631e-05,0
1.1445,1.5946e-05,0
1.145,1.326e-05,0
1.1455,1.4267e-05,0
1.146,1.5946e-05,0
1.1465,1.5778e-05,0
1.147,1.3764e-05,0
1.1475,1.2253e-05,0
1.148,1.4435e-05,0
1.1485,1.6281e-05,0
1.149,1.5946e-05,0
1.1495,1.7288e-05,0
1.15,1.6953e-05,0
1.1505,1.5106e-05,0
1.151,1.6617e-05,0
1.1515,2.0813e-05,0
1.152,2.266e-05,0
1.1525,2.1317e-05,0
1.153,1.9303e-05,0
1.1535,1.6281e-05,0
1.154,1.6449e-05,0
1.1545,1.9638e-05,0
1.155,2.266e-05,0
1.1555,2.3163e-05,0
1.156,2.1653e-05,0
1.1565,1.9974e-05,0
1.157,1.8967e-05,0
1.1575,1.8631e-05,0
1.158,1.796e-05,0
1.1585,1.7288e-05,0
1.159,1.6617e-05,0
1.1595,1.8296e-05,0
1.16,1.9974e-05,0
1.1605,1.8631e-05,0
1.161,1.8631e-05,0
1.1615,1.9303e-05,0
1.162,1.8967e-05,0
1.1625,2.031e-05,0
1.163,2.1317e-05,0
1.1635,2.031e-05,0
1.164,1.8967e-05,0
1.1645,1.7288e-05,0
1.165,1.8463e-05,0
1.1655,2.0813e-05,0
1.166,2.1988e-05,0
1.1665,2.0478e-05,0
1.167,1.8631e-05,0
1.1675,1.9638e-05,0
1.168,2.0981e-05,0
1.1685,2.0981e-05,0
1.169,1.8967e-05,0
1.1695,1.7288e-05,0
1.17,1.8631e-05,0
1.1705,2.1317e-05,0
1.171,2.266e-05,0
1.1715,2.182e-05,0
1.172,2.031e-05,0
1.1725,1.947e-05,0
1.173,1.8296e-05,0
1.1735,1.796e-05,0
1.174,1.8631e-05,0
1.1745,2.0478e-05,0
1.175,2.266e-05,0
1.1755,2.3667e-05,0
1.176,2.1317e-05,0
1.1765,1.796e-05,0
1.177,1.7288e-05,0
1.1775,1.8631e-05,0
1.178,1.9974e-05,0
1.1785,2.1317e-05,0
1.179,2.2156e-05,0
1.1795,2.1988e-05,0
1.18,1.9806e-05,0
1.1805,1.5946e-05,0
1.181,1.4267e-05,0
1.1815,1.5274e-05,0
1.182,1.7121e-05,0
1.1825,1.6617e-05,0
1.183,1.4939e-05,0
1.1835,1.5106e-05,0
1.184,1.6617e-05,0
1.1845,1.7121e-05,0
1.185,1.561e-05,0
1.1855,1.4435e-05,0
1.186,1.4603e-05,0
1.1865,1.561e-05,0
1.187,1.5106e-05,0
1.1875,1.2757e-05,0
1.188,1.0575e-05,0
1.1885,1.2589e-05,0
1.189,1.561e-05,0
1.1895,1.5946e-05,0
1.19,1.7121e-05,0
1.1905,1.7624e-05,0
1.191,1.6785e-05,0
1.1915,1.561e-05,0
1.192,1.5274e-05,0
1.1925,1.4603e-05,0
1.193,1.326e-05,0
1.1935,1.3596e-05,0
1.194,1.4603e-05,0
1.1945,1.4603e-05,0
1.195,1.4267e-05,0
1.1955,1.4771e-05,0
1.196,1.561e-05,0
1.1965,1.6281e-05,0
1.197,1.7121e-05,0
1.1975,1.7792e-05,0
1.198,1.8631e-05,0
1.1985,1.947e-05,0
1.199,1.7288e-05,0
1.1995,1.6449e-05,0
1.2,1.8296e-05,0
1.2005,1.9303e-05,0
1.201,1.9303e-05,0
1.2015,2.0646e-05,0
1.202,2.031e-05,0
1.2025,1.8631e-05,0
1.203,1.9638e-05,0
1.2035,2.1317e-05,0
1.204,2.1317e-05,0
1.2045,2.1317e-05,0
1.205,2.1317e-05,0
1.2055,1.8967e-05,0
1.206,1.6785e-05,0
1.2065,1.8296e-05,0
1.207,1.9135e-05,0
1.2075,2.0646e-05,0
1.208,2.2995e-05,0
1.2085,2.3835e-05,0
1.209,2.266e-05,0
1.2095,2.1485e-05,0
1.21,2.0478e-05,0
1.2105,1.8128e-05,0
1.211,1.7624e-05,0
1.2115,2.1317e-05,0
1.212,2.4002e-05,0
1.2125,2.2492e-05,0
1.213,2.1317e-05,0
1.2135,2.1149e-05,0
1.214,1.9974e-05,0
1.2145,1.8967e-05,0
1.215,1.7288e-05,0
1.2155,1.8296e-05,0
1.216,2.0981e-05,0
1.2165,2.4002e-05,0
1.217,2.4842e-05,0
1.2175,2.417e-05,0
1.218,2.2324e-05,0
1.2185,2.0646e-05,0
1.219,2.0981e-05,0
1.2195,1.9638e-05,0
1.22,1.7288e-05,0
1.2205,1.796e-05,0
1.221,2.1149e-05,0
1.2215,2.266e-05,0
1.222,2.266e-05,0
1.2225,2.1317e-05,0
1.223,2.1317e-05,0
1.2235,2.1317e-05,0
1.224,2.1317e-05,0
1.2245,2.182e-05,0
1.225,2.182e-05,0
1.2255,2.1317e-05,0
1.226,2.0981e-05,0
1.2265,2.1988e-05,0
1.227,2.1653e-05,0
1.2275,2.0981e-05,0
1.228,1.8967e-05,0
1.2285,1.9135e-05,0
1.229,1.9974e-05,0
1.2295,1.8128e-05,0
1.23,1.5778e-05,0
1.2305,1.5274e-05,0
1.231,1.5106e-05,0
1.2315,1.3932e-05,0
1.232,1.3932e-05,0
1.2325,1.5106e-05,0
1.233,1.4939e-05,0
1.2335,1.4603e-05,0
1.234,1.7624e-05,0
1.2345,1.8631e-05,0
1.235,1.7288e-05,0
1.2355,1.7624e-05,0
1.236,1.8296e-05,0
1.2365,1.6281e-05,0
1.237,1.3932e-05,0
1.2375,1.5274e-05,0
1.238,1.5946e-05,0
1.2385,1.5778e-05,0
1.239,1.6953e-05,0
1.2395,1.6953e-05,0
1.24,1.4939e-05,0
1.2405,1.4267e-05,0
1.241,1.4603e-05,0
1.2415,1.5274e-05,0
1.242,1.6449e-05,0
1.2425,1.7121e-05,0
1.243,1.5946e-05,0
1.2435,1.5442e-05,0
1.244,1.7288e-05,0
1.2445,1.947e-05,0
1.245,1.9806e-05,0
1.2455,1.8631e-05,0
1.246,1.9638e-05,0
1.2465,2.182e-05,0
1.247,2.3163e-05,0
1.2475,2.3331e-05,0
1.248,2.1988e-05,0
1.2485,1.9638e-05,0
1.249,1.8631e-05,0
1.2495,1.8631e-05,0
1.25,1.8296e-05,0
1.2505,1.8463e-05,0
1.251,1.796e-05,0
1.2515,1.7624e-05,0
1.252,1.9303e-05,0
1.2525,1.9974e-05,0
1.253,1.947e-05,0
1.2535,1.9303e-05,0
1.254,1.8631e-05,0
1.2545,1.8631e-05,0
1.255,1.947e-05,0
1.2555,2.0142e-05,0
1.256,2.0478e-05,0
1.2565,1.947e-05,0
1.257,1.8799e-05,0
1.2575,1.7456e-05,0
1.258,1.5946e-05,0
1.2585,1.5946e-05,0
1.259,1.9303e-05,0
1.2595,2.266e-05,0
1.26,2.2324e-05,0
1.2605,2.031e-05,0
1.261,2.031e-05,0
1.2615,2.1317e-05,0
1.262,2.0478e-05,0
1.2625,1.796e-05,0
1.263,1.5946e-05,0
1.2635,1.8631e-05,0
1.264,2.266e-05,0
1.2645,2.2995e-05,0
1.265,2.1149e-05,0
1.2655,1.9638e-05,0
1.266,1.8967e-05,0
1.2665,1.8631e-05,0
1.267,1.7288e-05,0
1.2675,1.7624e-05,0
1.268,1.9638e-05,0
1.2685,1.9638e-05,0
1.269,1.9303e-05,0
1.2695,1.9974e-05,0
1.27,1.9303e-05,0
1.2705,1.796e-05,0
1.271,1.8296e-05,0
1.2715,1.9303e-05,0
1.272,1.947e-05,0
1.2725,1.8296e-05,0
1.273,1.6617e-05,0
1.2735,1.5946e-05,0
1.274,1.5946e-05,0
1.2745,1.5946e-05,0
1.275,1.5946e-05,0
1.2755,1.7288e-05,0
1.276,1.7121e-05,0
1.2765,1.8296e-05,0
1.277,1.8296e-05,0
1.2775,1.7456e-05,0
1.278,1.8631e-05,0
1.2785,2.031e-05,0
1.279,2.1317e-05,0
1.2795,2.2995e-05,0
1.28,2.2492e-05,0
1.2805,2.1988e-05,0
1.281,2.1317e-05,0
1.2815,1.9974e-05,0
1.282,1.7624e-05,0
1.2825,1.4771e-05,0
1.283,1.4603e-05,0
1.2835,1.6617e-05,0
1.284,1.8128e-05,0
1.2845,1.796e-05,0
1.285,1.7288e-05,0
1.2855,1.7288e-05,0
1.286,1.6281e-05,0
1.2865,1.4771e-05,0
1.287,1.7792e-05,0
1.2875,2.2324e-05,0
1.288,2.4506e-05,0
1.2885,2.4338e-05,0
1.289,2.0813e-05,0
1.2895,1.8463e-05,0
1.29,1.947e-05,0
1.2905,2.031e-05,0
1.291,1.8967e-05,0
1.2915,1.5946e-05,0
1.292,1.4939e-05,0
1.2925,1.7121e-05,0
1.293,1.796e-05,0
1.2935,1.8296e-05,0
1.294,1.8463e-05,0
1.2945,1.9638e-05,0
1.295,2.031e-05,0
1.2955,1.8967e-05,0
1.296,1.796e-05,0
1.2965,1.6449e-05,0
1.297,1.5106e-05,0
1.2975,1.6449e-05,0
1.298,1.7288e-05,0
1.2985,1.5946e-05,0
1.299,1.3932e-05,0
1.2995,1.4435e-05,0
1.3,1.5946e-05,0
1.3005,1.9303e-05,0
1.301,2.2492e-05,0
1.3015,2.4002e-05,0
1.302,2.266e-05,0
1.3025,2.031e-05,0
1.303,1.8463e-05,0
1.3035,1.8463e-05,0
1.304,1.8799e-05,0
1.3045,1.9974e-05,0
1.305,2.0981e-05,0
1.3055,2.182e-05,0
1.306,1.9974e-05,0
1.3065,1.7288e-05,0
1.307,1.7288e-05,0
1.3075,1.9638e-05,0
1.308,2.0478e-05,0
1.3085,2.0646e-05,0
1.309,1.9303e-05,0
1.3095,1.7624e-05,0
1.31,1.6617e-05,0
1.3105,1.7624e-05,0
1.311,1.8631e-05,0
1.3115,1.7288e-05,0
1.312,1.7288e-05,0
1.3125,1.7456e-05,0
1.313,1.7288e-05,0
1.3135,1.7288e-05,0
1.314,1.7288e-05,0
1.3145,1.8631e-05,0
1.315,1.796e-05,0
1.3155,1.7792e-05,0
1.316,1.796e-05,0
1.3165,1.8631e-05,0
1.317,1.8631e-05,0
1.3175,1.796e-05,0
1.318,1.6449e-05,0
1.3185,1.561e-05,0
1.319,1.5442e-05,0
1.3195,1.6281e-05,0
1.32,1.6617e-05,0
1.3205,1.6953e-05,0
1.321,1.6785e-05,0
1.3215,1.6449e-05,0
1.322,1.7288e-05,0
1.3225,1.9135e-05,0
1.323,2.0981e-05,0
1.3235,2.2156e-05,0
1.324,2.1317e-05,0
1.3245,1.947e-05,0
1.325,1.6953e-05,0
1.3255,1.561e-05,0
1.326,1.5946e-05,0
1.3265,1.6617e-05,0
1.327,1.6449e-05,0
1.3275,1.7792e-05,0
1.328,1.9974e-05,0
1.3285,2.1317e-05,0
1.329,2.0142e-05,0
1.3295,1.7288e-05,0
1.33,1.4267e-05,0
1.3305,1.3932e-05,0
1.331,1.5274e-05,0
1.3315,1.6785e-05,0
1.332,1.5274e-05,0
1.3325,1.4603e-05,0
1.333,1.6617e-05,0
1.3335,1.8631e-05,0
1.334,1.9303e-05,0
1.3345,1.8631e-05,0
1.335,1.8463e-05,0
1.3355,2.0646e-05,0
1.336,2.2492e-05,0
1.3365,2.1149e-05,0
1.337,1.7624e-05,0
1.3375,1.5274e-05,0
1.338,1.5946e-05,0
1.3385,1.7288e-05,0
1.339,1.8967e-05,0
1.3395,1.9974e-05,0
1.34,2.0478e-05,0
1.3405,1.8799e-05,0
1.341,1.7624e-05,0
1.3415,1.8296e-05,0
1.342,1.8967e-05,0
1.3425,1.9303e-05,0
1.343,1.947e-05,0
1.3435,1.8631e-05,0
1.344,1.8631e-05,0
1.3445,2.031e-05,0
1.345,2.0813e-05,0
1.3455,1.8631e-05,0
1.346,1.6449e-05,0
1.3465,1.5106e-05,0
1.347,1.3932e-05,0
1.3475,1.4435e-05,0
1.348,1.6449e-05,0
1.3485,1.796e-05,0
1.349,1.8463e-05,0
1.3495,1.6785e-05,0
1.35,1.4267e-05,0
1.3505,1.2924e-05,0
1.351,1.326e-05,0
1.3515,1.4771e-05,0
1.352,1.6449e-05,0
1.3525,1.7792e-05,0
1.353,1.8463e-05,0
1.3535,1.8967e-05,0
1.354,2.0981e-05,0
1.3545,2.2995e-05,0
1.355,2.266e-05,0
1.3555,2.1653e-05,0
1.356,2.2324e-05,0
1.3565,2.3331e-05,0
1.357,2.4002e-05,0
1.3575,2.4002e-05,0
1.358,2.3163e-05,0
1.3585,2.1317e-05,0
1.359,2.0981e-05,0
1.3595,2.2156e-05,0
1.36,2.2492e-05,0
1.3605,2.1317e-05,0
1.361,1.8967e-05,0
1.3615,1.7288e-05,0
1.362,1.9303e-05,0
1.3625,2.0478e-05,0
1.363,2.1149e-05,0
1.3635,1.9974e-05,0
1.364,1.8967e-05,0
1.3645,1.8631e-05,0
1.365,1.8631e-05,0
1.3655,1.796e-05,0
1.366,1.6449e-05,0
1.3665,1.4267e-05,0
1.367,1.3932e-05,0
1.3675,1.5442e-05,0
1.368,1.6617e-05,0
1.3685,1.6617e-05,0
1.369,1.7624e-05,0
1.3695,1.9303e-05,0
1.37,1.9806e-05,0
1.3705,2.1149e-05,0
1.371,2.1988e-05,0
1.3715,2.1317e-05,0
1.372,2.2156e-05,0
1.3725,2.2324e-05,0
1.373,2.3163e-05,0
1.3735,2.4338e-05,0
1.374,2.266e-05,0
1.3745,1.9303e-05,0
1.375,1.7624e-05,0
1.3755,1.6785e-05,0
1.376,1.4939e-05,0
1.3765,1.3596e-05,0
1.377,1.3764e-05,0
1.3775,1.3932e-05,0
1.378,1.4603e-05,0
1.3785,1.5946e-05,0
1.379,1.7624e-05,0
1.3795,1.9806e-05,0
1.38,2.0981e-05,0
1.3805,1.9806e-05,0
1.381,1.796e-05,0
1.3815,1.5946e-05,0
1.382,1.5946e-05,0
1.3825,1.8463e-05,0
1.383,1.8967e-05,0
1.3835,1.7121e-05,0
1.384,1.5778e-05,0
1.3845,1.5946e-05,0
1.385,1.8128e-05,0
1.3855,2.031e-05,0
1.386,2.1988e-05,0
1.3865,2.182e-05,0
1.387,2.031e-05,0
1.3875,2.0646e-05,0
1.388,2.1317e-05,0
1.3885,2.1653e-05,0
1.389,2.1149e-05,0
1.3895,2.0646e-05,0
1.39,2.031e-05,0
1.3905,1.9303e-05,0
1.391,1.8631e-05,0
1.3915,1.7288e-05,0
1.392,1.7624e-05,0
1.3925,1.8967e-05,0
1.393,1.8631e-05,0
1.3935,1.8967e-05,0
1.394,2.0142e-05,0
1.3945,2.0981e-05,0
1.395,2.1317e-05,0
1.3955,2.1317e-05,0
1.396,1.8799e-05,0
1.3965,1.8296e-05,0
1.397,1.9135e-05,0
1.3975,1.8631e-05,0
1.398,1.8296e-05,0
1.3985,1.8296e-05,0
1.399,1.8631e-05,0
1.3995,1.6281e-05,0
1.4,1.5778e-05,0
1.4005,1.6617e-05,0
1.401,1.8631e-05,0
1.4015,1.8967e-05,0
1.402,1.6953e-05,0
1.4025,1.5106e-05,0
1.403,1.4939e-05,0
1.4035,1.4603e-05,0
1.404,1.5946e-05,0
1.4045,1.5106e-05,0
1.405,1.2253e-05,0
1.4055,1.2421e-05,0
1.406,1.2924e-05,0
1.4065,1.4939e-05,0
1.407,1.6617e-05,0
1.4075,1.5274e-05,0
1.408,1.4267e-05,0
1.4085,1.561e-05,0
1.409,1.8631e-05,0
1.4095,2.0813e-05,0
1.41,1.8631e-05,0
1.4105,1.7121e-05,0
1.411,1.7288e-05,0
1.4115,1.9303e-05,0
1.412,2.0813e-05,0
1.4125,1.9974e-05,0
1.413,1.7624e-05,0
1.4135,1.561e-05,0
1.414,1.5778e-05,0
1.4145,1.9303e-05,0
1.415,2.0646e-05,0
1.4155,2.0813e-05,0
1.416,1.9806e-05,0
1.4165,1.7288e-05,0
1.417,1.6281e-05,0
1.4175,1.7288e-05,0
1.418,2.0646e-05,0
1.4185,2.4674e-05,0
1.419,2.3331e-05,0
1.4195,2.1317e-05,0
1.42,2.0478e-05,0
1.4205,2.031e-05,0
1.421,2.1317e-05,0
1.4215,2.2492e-05,0
1.422,2.2828e-05,0
1.4225,2.3667e-05,0
1.423,2.2828e-05,0
1.4235,2.266e-05,0
1.424,2.5345e-05,0
1.4245,2.4842e-05,0
1.425,1.9974e-05,0
1.4255,1.5946e-05,0
1.426,1.561e-05,0
1.4265,1.7792e-05,0
1.427,1.796e-05,0
1.4275,1.796e-05,0
1.428,1.6953e-05,0
1.4285,1.7288e-05,0
1.429,1.8631e-05,0
1.4295,2.031e-05,0
1.43,1.9806e-05,0
1.4305,1.7288e-05,0
1.431,1.5946e-05,0
1.4315,1.5106e-05,0
1.432,1.3932e-05,0
1.4325,1.6449e-05,0
1.433,1.796e-05,0
1.4335,1.6281e-05,0
1.434,1.4435e-05,0
1.4345,1.4771e-05,0
1.435,1.561e-05,0
1.4355,1.5946e-05,0
1.436,1.5274e-05,0
1.4365,1.4603e-05,0
1.437,1.5946e-05,0
1.4375,1.8799e-05,0
1.438,2.0813e-05,0
1.4385,2.0646e-05,0
1.439,2.0478e-05,0
1.4395,2.2156e-05,0
1.44,2.2324e-05,0
1.4405,2.0646e-05,0
1.441,1.9135e-05,0
1.4415,1.8799e-05,0
1.442,2.0981e-05,0
1.4425,2.2995e-05,0
1.443,2.4002e-05,0
1.4435,2.5177e-05,0
1.444,2.3331e-05,0
1.4445,1.9303e-05,0
1.445,1.6953e-05,0
1.4455,1.796e-05,0
1.446,1.9974e-05,0
1.4465,2.1317e-05,0
1.447,2.0981e-05,0
1.4475,1.9638e-05,0
1.448,1.9135e-05,0
1.4485,1.8463e-05,0
1.449,1.8631e-05,0
1.4495,1.7792e-05,0
1.45,1.7624e-05,0
1.4505,1.8631e-05,0
1.451,1.8296e-05,0
1.4515,1.5946e-05,0
1.452,1.2421e-05,0
1.4525,1.2253e-05,0
1.453,1.2589e-05,0
1.4535,1.2757e-05,0
1.454,1.2589e-05,0
1.4545,1.091e-05,0
1.455,1.1078e-05,0
1.4555,1.3596e-05,0
1.456,1.4603e-05,0
1.4565,1.4939e-05,0
1.457,1.7121e-05,0
1.4575,1.9638e-05,0
1.458,1.9303e-05,0
1.4585,1.8967e-05,0
1.459,1.8631e-05,0
1.4595,1.7456e-05,0
1.46,1.5946e-05,0
1.4605,1.5946e-05,0
1.461,1.5778e-05,0
1.4615,1.7121e-05,0
1.462,1.6617e-05,0
1.4625,1.5106e-05,0
1.463,1.4435e-05,0
1.4635,1.6953e-05,0
1.464,2.0478e-05,0
1.4645,2.1317e-05,0
1.465,2.1317e-05,0
1.4655,2.266e-05,0
1.466,2.4002e-05,0
1.4665,2.4506e-05,0
1.467,2.4674e-05,0
1.4675,2.3667e-05,0
1.468,2.1988e-05,0
1.4685,2.1317e-05,0
1.469,2.182e-05,0
1.4695,2.266e-05,0
1.47,2.1317e-05,0
1.4705,1.8128e-05,0
1.471,1.6953e-05,0
1.4715,1.8296e-05,0
1.472,1.8799e-05,0
1.4725,1.7121e-05,0
1.473,1.6281e-05,0
1.4735,1.7288e-05,0
1.474,1.7792e-05,0
1.4745,1.9303e-05,0
1.475,1.947e-05,0
1.4755,1.9806e-05,0
1.476,2.1317e-05,0
1.4765,2.266e-05,0
1.477,2.2828e-05,0
1.4775,2.266e-05,0
1.478,2.1988e-05,0
1.4785,2.0813e-05,0
1.479,2.0813e-05,0
1.4795,2.1317e-05,0
1.48,2.031e-05,0
1.4805,1.796e-05,0
1.481,1.8631e-05,0
1.4815,2.1317e-05,0
1.482,2.3331e-05,0
1.4825,2.4002e-05,0
1.483,2.2995e-05,0
1.4835,2.2324e-05,0
1.484,2.1317e-05,0
1.4845,2.1317e-05,0
1.485,2.0646e-05,0
1.4855,2.1317e-05,0
1.486,2.2995e-05,0
1.4865,2.3499e-05,0
1.487,2.1317e-05,0
1.4875,1.9806e-05,0
1.488,2.0646e-05,0
1.4885,2.1988e-05,0
1.489,2.0478e-05,0
1.4895,1.9303e-05,0
1.49,1.796e-05,0
1.4905,1.5778e-05,0
1.491,1.326e-05,0
1.4915,9.5674e-06,0
1.492,6.0426e-06,0
1.4925,5.0355e-06,0
1.493,6.714e-06,0
1.4935,1.0575e-05,0
1.494,1.3932e-05,0
1.4945,1.6281e-05,0
1.495,2.0478e-05,0
1.4955,3.0549e-05,0
1.496,4.7669e-05,0
1.4965,5.9419e-05,0
1.497,5.7237e-05,0
1.4975,4.4816e-05,0
1.498,2.5345e-05,0
1.4985,1.1078e-05,0
1.499,5.539e-06,0
1.4995,3.6927e-06,0
1.5,3.8605e-06,0
1.5005,6.8818e-06,0
1.501,9.2317e-06,0
1.5015,1.0575e-05,0
1.502,1.3092e-05,0
1.5025,1.3932e-05,0
1.503,1.3092e-05,0
1.5035,1.4267e-05,0
1.504,1.561e-05,0
1.5045,1.4435e-05,0
1.505,1.0239e-05,0
1.5055,6.2104e-06,0
1.506,4.5319e-06,0
1.5065,5.2033e-06,0
1.507,7.3854e-06,0
1.5075,9.9031e-06,0
1.508,1.1414e-05,0
1.5085,1.2421e-05,0
1.509,1.3596e-05,0
1.5095,1.561e-05,0
1.51,1.7121e-05,0
1.5105,1.6953e-05,0
1.511,1.5946e-05,0
1.5115,1.4771e-05,0
1.512,1.5946e-05,0
1.5125,1.6953e-05,0
1.513,1.8967e-05,0
1.5135,2.0981e-05,0
1.514,2.031e-05,0
1.5145,1.8967e-05,0
1.515,1.947e-05,0
1.5155,2.1317e-05,0
1.516,2.1988e-05,0
1.5165,2.1988e-05,0
1.517,2.1149e-05,0
1.5175,2.031e-05,0
1.518,1.9638e-05,0
1.5185,1.8463e-05,0
1.519,1.7288e-05,0
1.5195,1.5946e-05,0
1.52,1.4267e-05,0
1.5205,1.2924e-05,0
1.521,1.6281e-05,0
1.5215,2.1317e-05,0
1.522,2.4002e-05,0
1.5225,2.5177e-05,0
1.523,2.266e-05,0
1.5235,1.9303e-05,0
1.524,2.0813e-05,0
1.5245,3.1388e-05,0
1.525,4.4144e-05,0
1.5255,5.1194e-05,0
1.526,4.8508e-05,0
1.5265,4.0452e-05,0
1.527,3.2059e-05,0
1.5275,3.0045e-05,0
1.528,3.5416e-05,0
1.5285,5.1362e-05,0
1.529,7.4693e-05,0
1.5295,8.7785e-05,0
1.53,7.6371e-05,0
1.5305,5.0523e-05,0
1.531,2.8367e-05,0
1.5315,1.4939e-05,0
1.532,6.2104e-06,0
1.5325,-3.357e-07,0
1.533,-2.5177e-06,0
1.5335,-1.8463e-06,0
1.534,-2.3499e-06,0
1.5345,-6.5461e-06,0
1.535,-1.2757e-05,0
1.5355,-1.9974e-05,0
1.536,-2.9038e-05,0
1.5365,-4.2298e-05,0
1.537,-5.5222e-05,0
1.5375,-5.8915e-05,0
1.538,-5.0523e-05,0
1.5385,-3.743e-05,0
1.539,-2.5513e-05,0
1.5395,-1.2924e-05,0
1.54,8.392e-07,0
1.5405,1.3764e-05,0
1.541,2.4002e-05,0
1.5415,3.0549e-05,0
1.542,3.8773e-05,0
1.5425,4.6662e-05,0
1.543,4.7333e-05,0
1.5435,5.0355e-05,0
1.544,6.7643e-05,0
1.5445,8.2078e-05,0
1.545,7.9896e-05,0
1.5455,6.9322e-05,0
1.546,5.8579e-05,0
1.5465,5.153e-05,0
1.547,4.8844e-05,0
1.5475,4.3977e-05,0
1.548,3.357e-05,0
1.5485,2.0142e-05,0
1.549,1.0575e-05,0
1.5495,8.5603e-06,0
1.55,9.9031e-06,0
1.5505,8.5603e-06,0
1.551,1.8463e-06,0
1.5515,-5.539e-06,0
1.552,4.0284e-06,0
1.5525,3.3066e-05,0
1.553,5.1865e-05,0
1.5535,4.5487e-05,0
1.554,2.6017e-05,0
1.5545,1.1246e-05,0
1.555,1.4099e-05,0
1.5555,2.652e-05,0
1.556,3.3066e-05,0
1.5565,2.7527e-05,0
1.557,1.326e-05,0
1.5575,1.4603e-05,0
1.558,3.5416e-05,0
1.5585,5.2201e-05,0
1.559,5.0355e-05,0
1.5595,3.8102e-05,0
1.56,3.0213e-05,0
1.5605,2.9038e-05,0
1.561,2.0478e-05,0
1.5615,8.2246e-06,0
1.562,1.9638e-05,0
1.5625,5.8244e-05,0
1.563,7.9057e-05,0
1.5635,5.774e-05,0
1.564,1.5946e-05,0
1.5645,-1.8296e-05,0
1.565,-4.1459e-05,0
1.5655,-5.7237e-05,0
1.566,-6.8147e-05,0
1.5665,-7.7378e-05,0
1.567,-8.7953e-05,0
1.5675,-9.4163e-05,0
1.568,-8.5771e-05,0
1.5685,-6.63e-05,0
1.569,-4.9348e-05,0
1.5695,-4.1291e-05,0
1.57,-3.0213e-05,0
1.5705,5.035e-07,0
1.571,3.592e-05,0
1.5715,4.4816e-05,0
1.572,3.0381e-05,0
1.5725,1.3764e-05,0
1.573,5.8747e-06,0
1.5735,2.5177e-06,0
1.574,-5.8747e-06,0
1.5745,-1.5946e-05,0
1.575,-2.2324e-05,0
1.5755,-2.4338e-05,0
1.576,-2.1653e-05,0
1.5765,-1.7288e-05,0
1.577,-1.5106e-05,0
1.5775,-7.8889e-06,0
1.578,1.2589e-05,0
1.5785,4.1795e-05,0
1.579,7.1672e-05,0
1.5795,8.3757e-05,0
1.58,7.1336e-05,0
1.5805,4.8844e-05,0
1.581,3.3234e-05,0
1.5815,3.0884e-05,0
1.582,3.9277e-05,0
1.5825,5.2033e-05,0
1.583,6.3111e-05,0
1.5835,7.3518e-05,0
1.584,8.9296e-05,0
1.5845,0.00010323,0
1.585,0.00010054,0
1.5855,7.9057e-05,0
1.586,5.0019e-05,0
1.5865,2.9038e-05,0
1.587,3.3402e-05,0
1.5875,4.5823e-05,0
1.588,4.3473e-05,0
1.5885,2.8534e-05,0
1.589,1.1078e-05,0
1.5895,-1.0071e-06,0
1.59,1.1749e-06,0
1.5905,1.3092e-05,0
1.591,2.2995e-05,0
1.5915,3.6423e-05,0
1.592,6.3615e-05,0
1.5925,8.3589e-05,0
1.593,7.3014e-05,0
1.5935,3.8437e-05,0
1.594,1.678e-07,0
1.5945,-2.3163e-05,0
1.595,-1.4267e-05,0
1.5955,2.5345e-05,0
1.596,6.3951e-05,0
1.5965,9.3156e-05,0
1.597,0.0001227,0
1.5975,0.00012404,0
1.598,7.5029e-05,0
1.5985,1.8463e-06,0
1.599,-6.0594e-05,0
1.5995,-8.9128e-05,0
1.6,-8.426e-05,0
1.6005,-7.4357e-05,0
1.601,-6.3279e-05,0
1.6015,-4.3641e-05,0
1.602,-2.6352e-05,0
1.6025,-1.7288e-05,0
1.603,-1.7624e-05,0
1.6035,-2.4506e-05,0
1.604,-1.7456e-05,0
1.6045,2.1988e-05,0
1.605,6.5293e-05,0
1.6055,7.3854e-05,0
1.606,4.2466e-05,0
1.6065,-5.035e-07,0
1.607,-8.2246e-06,0
1.6075,1.326e-05,0
1.608,2.7863e-05,0
1.6085,2.9709e-05,0
1.609,3.0884e-05,0
1.6095,4.0452e-05,0
1.61,6.1601e-05,0
1.6105,9.7688e-05,0
1.611,0.00012673,0
1.6115,0.00012572,0
1.612,9.6178e-05,0
1.6125,5.2201e-05,0
1.613,6.0426e-06,0
1.6135,-2.3163e-05,0
1.614,-2.0981e-05,0
1.6145,-6.0426e-06,0
1.615,2.5177e-06,0
1.6155,-1.8463e-06,0
1.616,-1.8631e-05,0
1.6165,-3.8437e-05,0
1.617,-4.7501e-05,0
1.6175,-3.6423e-05,0
1.618,-2.0646e-05,0
1.6185,-9.0639e-06,0
1.619,-4.5319e-06,0
1.6195,-1.4267e-05,0
1.62,-3.2395e-05,0
1.6205,-6.7475e-05,0
1.621,-0.00011917,0
1.6215,-0.00015341,0
1.622,-0.00015073,0
1.6225,-0.00012052,0
1.623,-7.8721e-05,0
1.6235,-3.6591e-05,0
1.624,-4.1962e-06,0
1.6245,2.1988e-05,0
1.625,4.0955e-05,0
1.6255,5.0858e-05,0
1.626,5.5558e-05,0
1.6265,5.0187e-05,0
1.627,3.2059e-05,0
1.6275,2.0981e-05,0
1.628,1.8463e-05,0
1.6285,2.0142e-05,0
1.629,2.2492e-05,0
1.6295,2.5177e-05,0
1.63,2.887e-05,0
1.6305,2.6688e-05,0
1.631,1.7792e-05,0
1.6315,1.4603e-05,0
1.632,2.7359e-05,0
1.6325,4.9851e-05,0
1.633,7.6204e-05,0
1.6335,9.987e-05,0
1.634,0.00011733,0
1.6345,0.00013814,0
1.635,0.00016399,0
1.6355,0.00018245,0
1.636,0.00018782,0
1.6365,0.00017842,0
1.637,0.00014922,0
1.6375,0.00010658,0
1.638,7.2343e-05,0
1.6385,5.3208e-05,0
1.639,4.2466e-05,0
1.6395,3.8437e-05,0
1.64,4.5823e-05,0
1.6405,6.1265e-05,0
1.641,6.8147e-05,0
1.6415,6.63e-05,0
1.642,7.5532e-05,0
1.6425,9.8863e-05,0
1.643,0.00011565,0
1.6435,0.00011598,0
1.644,0.00011112,0
1.6445,0.00011162,0
1.645,0.00010423,0
1.6455,8.3421e-05,0
1.646,5.3544e-05,0
1.6465,2.0981e-05,0
1.647,-2.8534e-06,0
1.6475,-2.4338e-05,0
1.648,-5.6901e-05,0
1.6485,-8.745e-05,0
1.649,-9.6849e-05,0
1.6495,-9.5506e-05,0
1.65,-9.5842e-05,0
1.6505,-9.8192e-05,0
1.651,-9.3492e-05,0
1.6515,-7.2007e-05,0
1.652,-2.9038e-05,0
1.6525,4.0452e-05,0
1.653,0.00011179,0
1.6535,0.00016231,0
1.654,0.000166,0
1.6545,0.00013948,0
1.655,0.00012992,0
1.6555,0.000118,0
1.656,7.57e-05,0
1.6565,2.6688e-05,0
1.657,-9.5674e-06,0
1.6575,-3.3066e-05,0
1.658,-4.3137e-05,0
1.6585,-4.8508e-05,0
1.659,-5.7908e-05,0
1.6595,-7.4357e-05,0
1.66,-0.00010105,0
1.6605,-0.00013378,0
1.661,-0.00015946,0
1.6615,-0.0001707,0
1.662,-0.00016835,0
1.6625,-0.00014116,0
1.663,-8.745e-05,0
1.6635,-3.7095e-05,0
1.664,-2.5177e-05,0
1.6645,-5.7572e-05,0
1.665,-9.5674e-05,0
1.6655,-0.00010692,0
1.666,-9.8192e-05,0
1.6665,-7.805e-05,0
1.667,-4.5655e-05,0
1.6675,-2.182e-06,0
1.668,5.4887e-05,0
1.6685,0.00010121,0
1.669,0.00011531,0
1.6695,0.00011263,0
1.67,0.0001086,0
1.6705,0.00011078,0
1.671,0.00011598,0
1.6715,0.00011128,0
1.672,8.5771e-05,0
1.6725,4.9348e-05,0
1.673,1.3092e-05,0
1.6735,-1.3932e-05,0
1.674,-1.9638e-05,0
1.6745,-1.0239e-05,0
1.675,-4.6998e-06,0
1.6755,-4.3641e-06,0
1.676,1.5106e-06,0
1.6765,1.7792e-05,0
1.677,2.9709e-05,0
1.6775,3.3402e-05,0
1.678,2.7192e-05,0
1.6785,6.2104e-06,0
1.679,-1.7792e-05,0
1.6795,-2.7695e-05,0
1.68,-1.7792e-05,0
1.6805,9.9031e-06,0
1.681,3.3738e-05,0
1.6815,4.8508e-05,0
1.682,7.4861e-05,0
1.6825,0.00010323,0
1.683,0.00010574,0
1.6835,9.1142e-05,0
1.684,8.1071e-05,0
1.6845,7.8721e-05,0
1.685,7.7714e-05,0
1.6855,6.7979e-05,0
1.686,4.4144e-05,0
1.6865,9.0639e-06,0
1.687,-3.0549e-05,0
1.6875,-6.009e-05,0
1.688,-6.4286e-05,0
1.6885,-4.213e-05,0
1.689,-1.7792e-05,0
1.6895,-1.9303e-05,0
1.69,-3.122e-05,0
1.6905,-2.5345e-05,0
1.691,-7.2175e-06,0
1.6915,8.392e-07,0
1.692,1.4435e-05,0
1.6925,4.8844e-05,0
1.693,7.5029e-05,0
1.6935,7.2343e-05,0
1.694,5.8915e-05,0
1.6945,4.6159e-05,0
1.695,3.592e-05,0
1.6955,2.5345e-05,0
1.696,1.5778e-05,0
1.6965,1.091e-05,0
1.697,1.7792e-05,0
1.6975,3.5752e-05,0
1.698,5.4048e-05,0
1.6985,5.8915e-05,0
1.699,5.2033e-05,0
1.6995,4.7166e-05,0
1.7,7.2343e-05,0
1.7005,0.00011397,0
1.701,0.00013344,0
1.7015,0.0001133,0
1.702,7.7043e-05,0
1.7025,5.6901e-05,0
1.703,5.2537e-05,0
1.7035,4.683e-05,0
1.704,2.9038e-05,0
1.7045,2.5177e-06,0
1.705,-2.652e-05,0
1.7055,-3.7766e-05,0
1.706,-1.1246e-05,0
1.7065,3.8605e-05,0
1.707,7.5029e-05,0
1.7075,7.5029e-05,0
1.708,3.9445e-05,0
1.7085,2.182e-06,0
1.709,-1.091e-05,0
1.7095,-2.1317e-05,0
1.71,-5.2033e-05,0
1.7105,-8.1743e-05,0
1.711,-9.3492e-05,0
1.7115,-7.57e-05,0
1.712,-2.266e-05,0
1.7125,3.6759e-05,0
1.713,7.4021e-05,0
1.7135,9.3156e-05,0
1.714,0.00010927,0
1.7145,0.00012203,0
1.715,9.6513e-05,0
1.7155,2.2995e-05,0
1.716,-5.623e-05,0
1.7165,-0.00010625,0
1.717,-0.00010893,0
1.7175,-6.5965e-05,0
1.718,2.5009e-05,0
1.7185,0.0001326,0
1.719,0.00018111,0
1.7195,0.00015694,0
1.72,9.7185e-05,0
1.7205,3.6088e-05,0
1.721,-7.0497e-06,0
1.7215,-2.4842e-05,0
1.722,-2.9038e-05,0
1.7225,-3.6255e-05,0
1.723,-5.0019e-05,0
1.7235,-6.5965e-05,0
1.724,-8.3757e-05,0
1.7245,-0.00010491,0
1.725,-0.00011598,0
1.7255,-0.00010877,0
1.726,-8.896e-05,0
1.7265,-8.4932e-05,0
1.727,-0.0001086,0
1.7275,-0.00011397,0
1.728,-8.4932e-05,0
1.7285,-3.0381e-05,0
1.729,2.6688e-05,0
1.7295,6.7643e-05,0
1.73,9.1142e-05,0
1.7305,8.3757e-05,0
1.731,6.2944e-05,0
1.7315,5.9419e-05,0
1.732,6.5797e-05,0
1.7325,6.949e-05,0
1.733,6.9657e-05,0
1.7335,5.4887e-05,0
1.734,2.266e-05,0
1.7345,1.6785e-06,0
1.735,1.1749e-05,0
1.7355,4.2802e-05,0
1.736,6.8147e-05,0
1.7365,6.3279e-05,0
1.737,3.1724e-05,0
1.7375,2.182e-06,0
1.738,-5.7069e-06,0
1.7385,5.7069e-06,0
1.739,2.4674e-05,0
1.7395,3.3234e-05,0
1.74,2.2324e-05,0
1.7405,1.3092e-05,0
1.741,3.0381e-05,0
1.7415,7.4189e-05,0
1.742,0.00010877,0
1.7425,0.00010558,0
1.743,7.4693e-05,0
1.7435,3.0549e-05,0
1.744,-9.5674e-06,0
1.7445,-3.4073e-05,0
1.745,-4.1291e-05,0
1.7455,-3.4577e-05,0
1.746,-2.1988e-05,0
1.7465,-9.0639e-06,0
1.747,1.6785e-06,0
1.7475,1.3932e-05,0
1.748,2.3667e-05,0
1.7485,3.0381e-05,0
1.749,3.0213e-05,0
1.7495,2.1988e-05,0
1.75,2.6688e-05,0
1.7505,6.6133e-05,0
1.751,0.00011917,0
1.7515,0.00015425,0
1.752,0.00017842,0
1.7525,0.00021468,0
1.753,0.00024221,0
1.7535,0.00021904,0
1.754,0.00015459,0
1.7545,9.5338e-05,0
1.755,6.3447e-05,0
1.7555,4.8173e-05,0
1.756,3.0045e-05,0
1.7565,7.5532e-06,0
1.757,-6.8818e-06,0
1.7575,-1.5946e-05,0
1.758,-3.1052e-05,0
1.7585,-4.7837e-05,0
1.759,-5.0523e-05,0
1.7595,-4.4144e-05,0
1.76,-4.8173e-05,0
1.7605,-6.9322e-05,0
1.761,-9.2317e-05,0
1.7615,-9.4331e-05,0
1.762,-8.1407e-05,0
1.7625,-6.9657e-05,0
1.763,-6.3951e-05,0
1.7635,-6.1265e-05,0
1.764,-5.6733e-05,0
1.7645,-4.918e-05,0
1.765,-3.7095e-05,0
1.7655,-2.182e-05,0
1.766,-1.8128e-05,0
1.7665,-3.3066e-05,0
1.767,-5.8076e-05,0
1.7675,-7.7714e-05,0
1.768,-7.7211e-05,0
1.7685,-5.7572e-05,0
1.769,-3.5752e-05,0
1.7695,-1.9638e-05,0
1.77,-3.357e-07,0
1.7705,2.652e-05,0
1.771,4.5319e-05,0
1.7715,4.8005e-05,0
1.772,4.3809e-05,0
1.7725,3.978e-05,0
1.773,3.8437e-05,0
1.7735,3.743e-05,0
1.774,4.5487e-05,0
1.7745,6.8147e-05,0
1.775,9.3828e-05,0
1.7755,0.00012303,0
1.776,0.00015157,0
1.7765,0.00017137,0
1.777,0.00016365,0
1.7775,0.0001091,0
1.778,1.7456e-05,0
1.7785,-6.4286e-05,0
1.779,-0.00010054,0
1.7795,-9.366e-05,0
1.78,-6.0426e-05,0
1.7805,-1.5274e-05,0
1.781,3.978e-05,0
1.7815,9.5842e-05,0
1.782,0.00012874,0
1.7825,0.00013411,0
1.783,0.00013596,0
1.7835,0.00013327,0
1.784,0.00011313,0
1.7845,7.6204e-05,0
1.785,2.652e-05,0
1.7855,-1.7624e-05,0
1.786,-3.6423e-05,0
1.7865,-3.0716e-05,0
1.787,-1.6617e-05,0
1.7875,-2.3499e-06,0
1.788,9.2317e-06,0
1.7885,1.0239e-05,0
1.789,-8.5603e-06,0
1.7895,-3.7766e-05,0
1.79,-6.0761e-05,0
1.7905,-6.9993e-05,0
1.791,-5.8579e-05,0
1.7915,-1.7624e-05,0
1.792,3.0716e-05,0
1.7925,6.3615e-05,0
1.793,7.5364e-05,0
1.7935,6.5461e-05,0
1.794,5.3544e-05,0
1.7945,5.623e-05,0
1.795,7.6036e-05,0
1.7955,0.00010407,0
1.796,0.00011431,0
1.7965,9.5171e-05,0
1.797,6.2776e-05,0
1.7975,3.122e-05,0
1.798,8.392e-07,0
1.7985,-3.0045e-05,0
1.799,-5.1194e-05,0
1.7995,-5.5726e-05,0
1.8,-5.9922e-05,0
1.8005,-7.8386e-05,0
1.801,-0.00010927,0
1.8015,-0.00014066,0
1.802,-0.00015157,0
1.8025,-0.00012908,0
1.803,-9.0135e-05,0
1.8035,-5.1698e-05,0
1.804,-2.031e-05,0
1.8045,2.182e-06,0
1.805,2.0981e-05,0
1.8055,3.8102e-05,0
1.806,4.8341e-05,0
1.8065,4.9348e-05,0
1.807,5.0858e-05,0
1.8075,5.8244e-05,0
1.808,4.9515e-05,0
1.8085,3.4409e-05,0
1.809,3.5752e-05,0
1.8095,5.4215e-05,0
1.81,8.2246e-05,0
1.8105,0.00011565,0
1.811,0.00014217,0
1.8115,0.00015492,0
1.812,0.00015476,0
1.8125,0.00014116,0
1.813,0.00011934,0
1.8135,0.00010323,0
1.814,0.00010507,0
1.8145,0.0001237,0
1.815,0.00014083,0
1.8155,0.00013814,0
1.816,0.00011128,0
1.8165,7.1672e-05,0
1.817,3.1388e-05,0
1.8175,-4.1962e-06,0
1.818,-2.4842e-05,0
1.8185,-2.7024e-05,0
1.819,-2.1988e-05,0
1.8195,-1.7288e-05,0
1.82,-1.796e-05,0
1.8205,-2.0646e-05,0
1.821,-2.7359e-05,0
1.8215,-5.1698e-05,0
1.822,-8.0903e-05,0
1.8225,-9.9031e-05,0
1.823,-0.00011095,0
1.8235,-0.00012119,0
1.824,-0.00012639,0
1.8245,-0.00011901,0
1.825,-9.8192e-05,0
1.8255,-7.0497e-05,0
1.826,-4.7837e-05,0
1.8265,-3.8773e-05,0
1.827,-3.4409e-05,0
1.8275,-2.3667e-05,0
1.828,-1.1917e-05,0
1.8285,-1.0071e-06,0
1.829,7.8889e-06,0
1.8295,1.0575e-05,0
1.83,6.2104e-06,0
1.8305,1.4099e-05,0
1.831,4.8173e-05,0
1.8315,9.5171e-05,0
1.832,0.00012673,0
1.8325,0.00013042,0
1.833,0.0001232,0
1.8335,0.00011733,0
1.834,0.00010121,0
1.8345,6.8986e-05,0
1.835,3.6423e-05,0
1.8355,2.1988e-05,0
1.836,2.9374e-05,0
1.8365,5.3376e-05,0
1.837,6.63e-05,0
1.8375,4.8173e-05,0
1.838,3.3234e-05,0
1.8385,4.683e-05,0
1.839,5.2033e-05,0
1.8395,2.1317e-05,0
1.84,-3.122e-05,0
1.8405,-6.6468e-05,0
1.841,-6.4118e-05,0
1.8415,-3.978e-05,0
1.842,-1.6617e-05,0
1.8425,-6.8818e-06,0
1.843,-9.5674e-06,0
1.8435,-1.6785e-05,0
1.844,-1.9135e-05,0
1.8445,-9.5674e-06,0
1.845,8.7282e-06,0
1.8455,2.266e-05,0
1.846,3.5416e-05,0
1.8465,5.3544e-05,0
1.847,5.304e-05,0
1.8475,3.1556e-05,0
1.848,4.6998e-06,0
1.8485,-1.5946e-05,0
1.849,-1.2924e-05,0
1.8495,1.326e-05,0
1.85,3.508e-05,0
1.8505,3.3066e-05,0
1.851,2.6017e-05,0
1.8515,3.4577e-05,0
1.852,5.6062e-05,0
1.8525,8.2078e-05,0
1.853,0.00010558,0
1.8535,0.00012119,0
1.854,0.00012639,0
1.8545,0.00012874,0
1.855,0.00014401,0
1.8555,0.00015207,0
1.856,0.00012555,0
1.8565,7.335e-05,0
1.857,1.4267e-05,0
1.8575,-3.1724e-05,0
1.858,-5.2033e-05,0
1.8585,-6.4622e-05,0
1.859,-8.0735e-05,0
1.8595,-9.2821e-05,0
1.86,-9.5171e-05,0
1.8605,-9.2149e-05,0
1.861,-8.426e-05,0
1.8615,-5.3376e-05,0
1.862,-6.2104e-06,0
1.8625,2.5345e-05,0
1.863,3.4577e-05,0
1.8635,3.6591e-05,0
1.864,5.0187e-05,0
1.8645,6.7979e-05,0
1.865,6.949e-05,0
1.8655,4.8676e-05,0
1.866,1.4267e-05,0
1.8665,-6.5461e-06,0
1.867,-2.8534e-06,0
1.8675,1.2589e-05,0
1.868,3.4745e-05,0
1.8685,6.1601e-05,0
1.869,8.2078e-05,0
1.8695,8.5771e-05,0
1.87,7.2343e-05,0
1.8705,5.0858e-05,0
1.871,2.8199e-05,0
1.8715,1.678e-07,0
1.872,-1.9303e-05,0
1.8725,-1.326e-05,0
1.873,9.5674e-06,0
1.8735,1.8296e-05,0
1.874,-5.0355e-06,0
1.8745,-3.8437e-05,0
1.875,-5.7572e-05,0
1.8755,-4.0787e-05,0
1.876,1.9638e-05,0
1.8765,8.51e-05,0
1.877,0.00011044,0
1.8775,9.4835e-05,0
1.878,4.8005e-05,0
1.8785,-1.2757e-05,0
1.879,-5.9922e-05,0
1.8795,-7.7043e-05,0
1.88,-6.6636e-05,0
1.8805,-4.3305e-05,0
1.881,-3.0549e-05,0
1.8815,-4.683e-05,0
1.882,-7.8386e-05,0
1.8825,-7.8721e-05,0
1.883,-3.2731e-05,0
1.8835,1.8128e-05,0
1.884,4.2802e-05,0
1.8845,5.5222e-05,0
1.885,7.2343e-05,0
1.8855,9.1814e-05,0
1.886,0.00010726,0
1.8865,0.00011498,0
1.887,0.00011498,0
1.8875,9.6513e-05,0
1.888,4.9515e-05,0
1.8885,-1.3092e-05,0
1.889,-6.8986e-05,0
1.8895,-0.00010172,0
1.89,-0.00010692,0
1.8905,-9.6513e-05,0
1.891,-8.4596e-05,0
1.8915,-6.3279e-05,0
1.892,-2.7024e-05,0
1.8925,1.1917e-05,0
1.893,4.9851e-05,0
1.8935,8.4428e-05,0
1.894,0.00010927,0
1.8945,0.00012119,0
1.895,0.00012992,0
1.8955,0.00013797,0
1.896,0.00013411,0
1.8965,0.00011917,0
1.897,8.8792e-05,0
1.8975,4.6159e-05,0
1.898,1.9806e-05,0
1.8985,3.4913e-05,0
1.899,7.4693e-05,0
1.8995,8.5771e-05,0
1.9,4.9515e-05,0
1.9005,4.5319e-06,0
1.901,-8.896e-06,0
1.9015,-7.2175e-06,0
1.902,-1.8799e-05,0
1.9025,-3.7766e-05,0
1.903,-5.4887e-05,0
1.9035,-7.1e-05,0
1.904,-8.4428e-05,0
1.9045,-8.2078e-05,0
1.905,-5.9251e-05,0
1.9055,-4.1123e-05,0
1.906,-4.0955e-05,0
1.9065,-4.7669e-05,0
1.907,-5.5726e-05,0
1.9075,-6.2944e-05,0
1.908,-6.1097e-05,0
1.9085,-4.2466e-05,0
1.909,-5.539e-06,0
1.9095,4.4144e-05,0
1.91,9.987e-05,0
1.9105,0.00015711,0
1.911,0.00019269,0
1.9115,0.00017507,0
1.912,0.00011397,0
1.9125,5.0858e-05,0
1.913,1.9135e-05,0
1.9135,3.5248e-06,0
1.914,-1.6617e-05,0
1.9145,-3.1388e-05,0
1.915,-3.3066e-05,0
1.9155,-2.8702e-05,0
1.916,-2.5681e-05,0
1.9165,-2.1988e-05,0
1.917,-3.7598e-05,0
1.9175,-7.8386e-05,0
1.918,-0.00010658,0
1.9185,-9.8192e-05,0
1.919,-6.8986e-05,0
1.9195,-4.1627e-05,0
1.92,-4.8676e-06,0
1.9205,8.1743e-05,0
1.921,0.00021132,0
1.9215,0.00031019,0
1.922,0.00034359,0
1.9225,0.00033519,0
1.923,0.00029122,0
1.9235,0.00021468,0
1.924,0.00012656,0
1.9245,5.7908e-05,0
1.925,2.5849e-05,0
1.9255,2.7863e-05,0
1.926,3.5752e-05,0
1.9265,1.6281e-05,0
1.927,-3.1556e-05,0
1.9275,-7.2343e-05,0
1.928,-8.7785e-05,0
1.9285,-9.752e-05,0
1.929,-0.00011498,0
1.9295,-0.00012387,0
1.93,-0.00011749,0
1.9305,-8.7617e-05,0
1.931,-2.8031e-05,0
1.9315,5.0187e-05,0
1.932,0.00012505,0
1.9325,0.0001655,0
1.933,0.00015207,0
1.9335,0.00010726,0
1.934,8.5771e-05,0
1.9345,0.0001086,0
1.935,0.00014788,0
1.9355,0.00014485,0
1.936,9.366e-05,0
1.9365,6.5461e-06,0
1.937,-8.7953e-05,0
1.9375,-0.00012337,0
1.938,-9.0135e-05,0
1.9385,-5.7069e-05,0
1.939,-7.6204e-05,0
1.9395,-0.00013411,0
1.94,-0.00019286,0
1.9405,-0.00021636,0
1.941,-0.00018749,0
1.9415,-0.00013075,0
1.942,-9.2149e-05,0
1.9425,-8.745e-05,0
1.943,-9.3156e-05,0
1.9435,-8.2078e-05,0
1.944,-5.6901e-05,0
1.9445,-3.5416e-05,0
1.945,-2.8367e-05,0
1.9455,-2.3667e-05,0
1.946,2.8534e-06,0
1.9465,4.1795e-05,0
1.947,6.1433e-05,0
1.9475,5.5558e-05,0
1.948,4.0452e-05,0
1.9485,3.6423e-05,0
1.949,4.8844e-05,0
1.9495,6.2104e-05,0
1.95,6.4286e-05,0
1.9505,5.9922e-05,0
1.951,5.8579e-05,0
1.9515,7.0497e-05,0
1.952,8.8121e-05,0
1.9525,8.51e-05,0
1.953,5.4048e-05,0
1.9535,1.1917e-05,0
1.954,-1.4267e-05,0
1.9545,-1.091e-05,0
1.955,1.7288e-05,0
1.9555,6.4286e-05,0
1.956,0.00014351,0
1.9565,0.00025026,0
1.957,0.00030196,0
1.9575,0.00025899,0
1.958,0.00015727,0
1.9585,5.5558e-05,0
1.959,-1.326e-05,0
1.9595,-5.2872e-05,0
1.96,-8.4428e-05,0
1.9605,-0.0001039,0
1.961,-9.0135e-05,0
1.9615,-4.8005e-05,0
1.962,-7.0497e-06,0
1.9625,1.5274e-05,0
1.963,2.9374e-05,0
1.9635,4.8173e-05,0
1.964,8.2414e-05,0
1.9645,0.00014083,0
1.965,0.00020092,0
1.9655,0.00022274,0
1.966,0.00015879,0
1.9665,3.8437e-05,0
1.967,-3.827e-05,0
1.9675,1.5106e-06,0
1.968,8.04e-05,0
1.9685,8.8457e-05,0
1.969,3.5248e-05,0
1.9695,-6.2104e-06,0
1.97,-4.5319e-06,0
1.9705,1.8463e-06,0
1.971,-1.2924e-05,0
1.9715,-3.3066e-05,0
1.972,-4.8173e-05,0
1.9725,-6.479e-05,0
1.973,-8.4093e-05,0
1.9735,-0.00010037,0
1.974,-0.00011968,0
1.9745,-0.00014485,0
1.975,-0.00016399,0
1.9755,-0.0001326,0
1.976,1.1246e-05,0
1.9765,0.00019722,0
1.977,0.0002939,0
1.9775,0.0002929,0
1.978,0.00023885,0
1.9785,0.00017406,0
1.979,0.00012874,0
1.9795,0.00010826,0
1.98,9.0303e-05,0
1.9805,5.623e-05,0
1.981,1.6449e-05,0
1.9815,1.5946e-05,0
1.982,8.661e-05,0
1.9825,0.00015627,0
1.983,0.00014066,0
1.9835,4.2466e-05,0
1.984,-8.8624e-05,0
1.9845,-0.00021401,0
1.985,-0.00029928,0
1.9855,-0.00031371,0
1.986,-0.00023986,0
1.9865,-0.00013294,0
1.987,-7.1e-05,0
1.9875,-4.1291e-05,0
1.988,-1.091e-05,0
1.9885,8.3925e-06,0
1.989,-2.3331e-05,0
1.9895,-8.04e-05,0
1.99,-0.00011514,0
1.9905,-0.00014015,0
1.991,-0.00017339,0
1.9915,-0.00019806,0
1.992,-0.00020075,0
1.9925,-0.00017238,0
1.993,-0.00012689,0
1.9935,-8.661e-05,0
1.994,-5.3712e-05,0
1.9945,-1.2924e-05,0
1.995,4.1123e-05,0
1.9955,8.5267e-05,0
1.996,0.00010507,0
1.9965,0.00011263,0
1.997,0.00011531,0
1.9975,0.00010524,0
1.998,7.2343e-05,0
1.9985,2.3163e-05,0
1.999,-3.357e-07,0
1.9995,2.0646e-05,0
2,6.865e-05,0
2.0005,0.00012136,0
2.001,0.00015795,0
2.0015,0.00017121,0
2.002,0.00017171,0
2.0025,0.00017104,0
2.003,0.00017272,0
2.0035,0.00016617,0
2.004,0.0001415,0
2.0045,9.6513e-05,0
2.005,3.9109e-05,0
2.0055,-1.0239e-05,0
2.006,-2.8199e-05,0
2.0065,-2.3667e-05,0
2.007,-2.0646e-05,0
2.0075,-2.6184e-05,0
2.008,-2.3499e-05,0
2.0085,4.6998e-06,0
2.009,3.2059e-05,0
2.0095,2.7695e-05,0
2.01,1.1078e-05,0
2.0105,3.743e-05,0
2.011,0.00017171,0
2.0115,0.00039461,0
2.012,0.0005435,0
2.0125,0.00049633,0
2.013,0.00031069,0
2.0135,0.00010793,0
2.014,-4.8341e-05,0
2.0145,-0.00014083,0
2.015,-0.00017238,0
2.0155,-0.00016936,0
2.016,-0.00016483,0
2.0165,-0.00016315,0
2.017,-0.00015291,0
2.0175,-0.00012454,0
2.018,-7.57e-05,0
2.0185,-2.9542e-05,0
2.019,7.8889e-06,0
2.0195,3.7095e-05,0
2.02,2.1988e-05,0
2.0205,-3.6927e-05,0
2.021,-8.8624e-05,0
2.0215,-9.9535e-05,0
2.022,-8.1407e-05,0
2.0225,-3.2563e-05,0
2.023,6.3783e-05,0
2.0235,0.00016214,0
2.024,0.00019118,0
2.0245,0.0001556,0
2.025,0.00012236,0
2.0255,0.00010726,0
2.026,8.51e-05,0
2.0265,5.3376e-05,0
2.027,3.122e-05,0
2.0275,1.5778e-05,0
2.028,-1.3092e-05,0
2.0285,-5.2201e-05,0
2.029,-8.8121e-05,0
2.0295,-0.00011078,0
2.03,-0.00011565,0
2.0305,-0.00010776,0
2.031,-9.5338e-05,0
2.0315,-7.6707e-05,0
2.032,-6.1769e-05,0
2.0325,-5.8579e-05,0
2.033,-5.4383e-05,0
2.0335,-2.3667e-05,0
2.034,3.8605e-05,0
2.0345,0.00011061,0
2.035,0.0001697,0
2.0355,0.00019236,0
2.036,0.00018749,0
2.0365,0.00020998,0
2.037,0.00024825,0
2.0375,0.00023751,0
2.038,0.00016835,0
2.0385,8.3421e-05,0
2.039,1.4603e-05,0
2.0395,-1.4267e-05,0
2.04,-2.2324e-05,0
2.0405,-4.8508e-05,0
2.041,-7.9728e-05,0
2.0415,-7.0329e-05,0
2.042,-4.1459e-05,0
2.0425,-6.5629e-05,0
2.043,-0.0001561,0
2.0435,-0.00024456,0
2.044,-0.00027863,0
2.0445,-0.00025664,0
2.045,-0.00020092,0
2.0455,-0.00013629,0
2.046,-7.8553e-05,0
2.0465,-1.9638e-05,0
2.047,4.6159e-05,0
2.0475,0.00013143,0
2.048,0.00022005,0
2.0485,0.00027158,0
2.049,0.00024053,0
2.0495,0.0001556,0
2.05,0.0001321,0
2.0505,0.00020964,0
2.051,0.00025731,0
2.0515,0.00018379,0
2.052,7.2343e-05,0
2.0525,3.1724e-05,0
2.053,2.6017e-05,0
2.0535,-2.182e-06,0
2.054,-6.6636e-05,0
2.0545,-0.00016181,0
2.055,-0.00025077,0
2.0555,-0.00029021,0
2.056,-0.00027745,0
2.0565,-0.00021401,0
2.057,-0.00011313,0
2.0575,-3.3066e-05,0
2.058,-1.8967e-05,0
2.0585,-5.7572e-05,0
2.059,-9.3492e-05,0
2.0595,-0.00010105,0
2.06,-8.9464e-05,0
2.0605,-6.865e-05,0
2.061,-5.0523e-05,0
2.0615,-4.3641e-05,0
2.062,-4.5151e-05,0
2.0625,-4.1962e-05,0
2.063,-2.2828e-05,0
2.0635,1.0575e-05,0
2.064,4.3977e-05,0
2.0645,6.3615e-05,0
2.065,8.8457e-05,0
2.0655,0.0001321,0
2.066,0.00016231,0
2.0665,0.00015224,0
2.067,0.0001331,0
2.0675,0.00013445,0
2.068,0.00012824,0
2.0685,9.8695e-05,0
2.069,7.0664e-05,0
2.0695,6.8315e-05,0
2.07,8.275e-05,0
2.0705,9.3156e-05,0
2.071,8.9464e-05,0
2.0715,8.5603e-05,0
2.072,9.1142e-05,0
2.0725,0.00011531,0
2.073,0.00015761,0
2.0735,0.00020159,0
2.074,0.00022005,0
2.0745,0.00021602,0
2.075,0.00022542,0
2.0755,0.0002459,0
2.076,0.00022777,0
2.0765,0.00015274,0
2.077,8.5435e-05,0
2.0775,5.7069e-05,0
2.078,2.6184e-05,0
2.0785,-2.7359e-05,0
2.079,-8.7114e-05,0
2.0795,-0.00014083,0
2.08,-0.00017792,0
2.0805,-0.00019588,0
2.081,-0.00020629,0
2.0815,-0.00019806,0
2.082,-0.00015526,0
2.0825,-8.8289e-05,0
2.083,-3.1388e-05,0
2.0835,-5.8747e-06,0
2.084,-3.5248e-06,0
2.0845,-1.7624e-05,0
2.085,-3.6591e-05,0
2.0855,-3.8437e-05,0
2.086,1.5106e-06,0
2.0865,9.5171e-05,0
2.087,0.0002125,0
2.0875,0.00027578,0
2.088,0.00024623,0
2.0885,0.00018094,0
2.089,0.00013008,0
2.0895,9.0806e-05,0
2.09,6.2944e-05,0
2.0905,6.0594e-05,0
2.091,8.5771e-05,0
2.0915,0.00011598,0
2.092,0.00012572,0
2.0925,9.6513e-05,0
2.093,5.623e-05,0
2.0935,8.0735e-05,0
2.094,0.00017775,0
2.0945,0.00029592,0
2.095,0.00033771,0
2.0955,0.00025328,0
2.096,0.00011514,0
2.0965,2.7359e-05,0
2.097,2.1317e-05,0
2.0975,3.4745e-05,0
2.098,1.0407e-05,0
2.0985,-5.153e-05,0
2.099,-0.00012387,0
2.0995,-0.00020847,0
2.1,-0.00029676,0
2.1005,-0.00035785,0
2.101,-0.0003874,0
2.1015,-0.00041392,0
2.102,-0.00043641,0
2.1025,-0.00040804,0
2.103,-0.00033033,0
2.1035,-0.00025597,0
2.104,-0.00019571,0
2.1045,-0.00014183,0
2.105,-9.6513e-05,0
2.1055,-7.0664e-05,0
2.106,-3.8941e-05,0
2.1065,1.9303e-05,0
2.107,5.0523e-05,0
2.1075,1.9135e-05,0
2.108,-3.2395e-05,0
2.1085,-6.5293e-05,0
2.109,-7.9057e-05,0
2.1095,-8.1407e-05,0
2.11,-7.7546e-05,0
2.1105,-7.0664e-05,0
2.111,-5.8915e-05,0
2.1115,-3.7766e-05,0
2.112,-2.3499e-06,0
2.1125,5.3544e-05,0
2.113,0.00010222,0
2.1135,0.00013646,0
2.114,0.00015526,0
2.1145,0.00015727,0
2.115,0.00013948,0
2.1155,9.9702e-05,0
2.116,6.7475e-05,0
2.1165,7.335e-05,0
2.117,0.00013411,0
2.1175,0.00023079,0
2.118,0.00030666,0
2.1185,0.00032882,0
2.119,0.0003127,0
2.1195,0.00029961,0
2.12,0.00030448,0
2.1205,0.00029625,0
2.121,0.0002459,0
2.1215,0.0001509,0
2.122,4.5655e-05,0
2.1225,-2.3667e-05,0
2.123,-4.0619e-05,0
2.1235,-3.2395e-05,0
2.124,-3.4745e-05,0
2.1245,-5.4383e-05,0
2.125,-8.2246e-05,0
2.1255,-0.0001091,0
2.126,-0.00011598,0
2.1265,-0.00010793,0
2.127,-0.00011128,0
2.1275,-0.00012102,0
2.128,-0.00010642,0
2.1285,-6.4118e-05,0
2.129,-2.0981e-05,0
2.1295,5.035e-07,0
2.13,2.5177e-06,0
2.1305,4.5319e-06,0
2.131,1.1414e-05,0
2.1315,1.9135e-05,0
2.132,3.4409e-05,0
2.1325,5.3544e-05,0
2.133,6.4622e-05,0
2.1335,6.4286e-05,0
2.134,5.3208e-05,0
2.1345,4.213e-05,0
2.135,4.0116e-05,0
2.1355,4.3641e-05,0
2.136,4.4984e-05,0
2.1365,5.0019e-05,0
2.137,6.3111e-05,0
2.1375,6.1265e-05,0
2.138,3.4409e-05,0
2.1385,3.6927e-06,0
2.139,-2.4002e-05,0
2.1395,-3.1724e-05,0
2.14,-1.4939e-05,0
2.1405,-3.5248e-06,0
2.141,-4.5319e-06,0
2.1415,3.6927e-06,0
2.142,1.9638e-05,0
2.1425,3.1724e-05,0
2.143,4.6326e-05,0
2.1435,7.2343e-05,0
2.144,0.0001091,0
2.1445,0.00016399,0
2.145,0.00024556,0
2.1455,0.00031405,0
2.146,0.00032126,0
2.1465,0.00027913,0
2.147,0.00020931,0
2.1475,0.00012001,0
2.148,3.357e-05,0
2.1485,-4.4144e-05,0
2.149,-8.1071e-05,0
2.1495,-1.3596e-05,0
2.15,9.8863e-05,0
2.1505,0.00014049,0
2.151,0.00011296,0
2.1515,7.3686e-05,0
2.152,3.0045e-05,0
2.1525,-3.0381e-05,0
2.153,-0.00010491,0
2.1535,-0.00017423,0
2.154,-0.00022408,0
2.1545,-0.00025698,0
2.155,-0.00024405,0
2.1555,-0.00015778,0
2.156,-4.5319e-05,0
2.1565,3.1891e-06,0
2.157,-2.7695e-05,0
2.1575,-7.6707e-05,0
2.158,-0.0001044,0
2.1585,-0.00011766,0
2.159,-0.00012924,0
2.1595,-0.00012505,0
2.16,-5.2872e-05,0
2.1605,7.2679e-05,0
2.161,0.00014922,0
2.1615,0.00012975,0
2.162,9.0471e-05,0
2.1625,7.2175e-05,0
2.163,4.4144e-05,0
2.1635,2.0813e-05,0
2.164,8.2246e-06,0
2.1645,-1.5106e-05,0
2.165,-4.2802e-05,0
2.1655,-5.7572e-05,0
2.166,-7.1e-05,0
2.1665,-0.00010625,0
2.167,-0.00014015,0
2.1675,-0.00012354,0
2.168,-4.2466e-05,0
2.1685,6.6636e-05,0
2.169,0.00016936,0
2.1695,0.00024959,0
2.17,0.00026554,0
2.1705,0.00022139,0
2.171,0.00017137,0
2.1715,0.00011498,0
2.172,3.6759e-05,0
2.1725,-4.0452e-05,0
2.173,-7.2679e-05,0
2.1735,-4.9683e-05,0
2.174,-1.1246e-05,0
2.1745,-3.1891e-06,0
2.175,-1.9135e-05,0
2.1755,-5.2033e-06,0
2.176,1.9135e-05,0
2.1765,-8.0568e-06,0
2.177,-7.6875e-05,0
2.1775,-0.00014217,0
2.178,-0.00016869,0
2.1785,-0.00013764,0
2.179,-7.0329e-05,0
2.1795,-2.1988e-05,0
2.18,-2.5177e-05,0
2.1805,-5.2369e-05,0
2.181,-7.2679e-05,0
2.1815,-6.7475e-05,0
2.182,-2.4338e-05,0
2.1825,9.2317e-06,0
2.183,2.6856e-06,0
2.1835,-1.4267e-05,0
2.184,-2.9374e-05,0
2.1845,-5.388e-05,0
2.185,-7.3182e-05,0
2.1855,-7.6204e-05,0
2.186,-5.2537e-05,0
2.1865,-6.8818e-06,0
2.187,3.6423e-05,0
2.1875,4.6494e-05,0
2.188,1.2924e-05,0
2.1885,-1.8967e-05,0
2.189,-1.2253e-05,0
2.1895,-3.5248e-06,0
2.19,-2.8702e-05,0
2.1905,-5.9419e-05,0
2.191,-4.9012e-05,0
2.1915,-1.4603e-05,0
2.192,1.4435e-05,0
2.1925,2.0646e-05,0
2.193,4.5319e-06,0
2.1935,-1.2253e-05,0
2.194,4.1962e-06,0
2.1945,7.57e-05,0
2.195,0.00020696,0
2.1955,0.000355,0
2.196,0.00047048,0
2.1965,0.00052201,0
2.197,0.00049096,0
2.1975,0.00039646,0
2.198,0.00028283,0
2.1985,0.00017977,0
2.199,0.00011666,0
2.1995,0.00011934,0
2.2,0.00016667,0
2.2005,0.00022106,0
2.201,0.00024053,0
2.2015,0.00023247,0
2.202,0.00023247,0
2.2025,0.00022861,0
2.203,0.00017507,0
2.2035,7.9057e-05,0
2.204,3.8605e-06,0
2.2045,-3.827e-05,0
2.205,-9.4499e-05,0
2.2055,-0.0001702,0
2.206,-0.00024422,0
2.2065,-0.00029239,0
2.207,-0.00029844,0
2.2075,-0.00027359,0
2.208,-0.00023415,0
2.2085,-0.00019622,0
2.209,-0.00017708,0
2.2095,-0.00017104,0
2.21,-0.00016936,0
2.2105,-0.00016164,0
2.211,-0.00012723,0
2.2115,-7.0497e-05,0
2.212,-2.1988e-05,0
2.2125,-3.8605e-06,0
2.213,-1.2589e-05,0
2.2135,-3.0381e-05,0
2.214,-2.7695e-05,0
2.2145,3.2395e-05,0
2.215,0.00014401,0
2.2155,0.00023247,0
2.216,0.00023012,0
2.2165,0.00015358,0
2.217,6.6133e-05,0
2.2175,7.8889e-06,0
2.218,-1.6281e-05,0
2.2185,-1.7288e-05,0
2.219,-3.357e-07,0
2.2195,3.1052e-05,0
2.22,5.4383e-05,0
2.2205,4.2802e-05,0
2.221,7.0497e-06,0
2.2215,-2.8534e-06,0
2.222,4.8173e-05,0
2.2225,0.00011229,0
2.223,0.00011699,0
2.2235,6.5629e-05,0
2.224,5.4215e-05,0
2.2245,0.00021367,0
2.225,0.00045437,0
2.2255,0.00049499,0
2.226,0.00031975,0
2.2265,0.00014183,0
2.227,1.3596e-05,0
2.2275,-0.00011749,0
2.228,-0.00025882,0
2.2285,-0.00039243,0
2.229,-0.00046998,0
2.2295,-0.00046914,0
2.23,-0.00043825,0
2.2305,-0.00042718,0
2.231,-0.00042869,0
2.2315,-0.00039965,0
2.232,-0.00032815,0
2.2325,-0.00023952,0
2.233,-0.00015862,0
2.2335,-8.7785e-05,0
2.234,-1.2757e-05,0
2.2345,7.1e-05,0
2.235,0.00017977,0
2.2355,0.00030448,0
2.236,0.00038018,0
2.2365,0.00040502,0
2.237,0.00042483,0
2.2375,0.00042147,0
2.238,0.00038958,0
2.2385,0.00034879,0
2.239,0.00027846,0
2.2395,0.000165,0
2.24,4.7837e-05,0
2.2405,-3.743e-05,0
2.241,-7.57e-05,0
2.2415,-7.805e-05,0
2.242,-5.3544e-05,0
2.2425,1.678e-07,0
2.243,6.4286e-05,0
2.2435,0.0001556,0
2.244,0.00029458,0
2.2445,0.00044295,0
2.245,0.00057455,0
2.2455,0.00065377,0
2.246,0.00063095,0
2.2465,0.00050338,0
2.247,0.00031707,0
2.2475,0.000118,0
2.248,-6.4118e-05,0
2.2485,-0.00020964,0
2.249,-0.00028568,0
2.2495,-0.0002412,0
2.25,-0.00014334,0
2.2505,-0.0001237,0
2.251,-0.00023952,0
2.2515,-0.00042432,0
2.252,-0.00057874,0
2.2525,-0.00065864,0
2.253,-0.00069372,0
2.2535,-0.00071353,0
2.254,-0.00071034,0
2.2545,-0.00066955,0
2.255,-0.00058949,0
2.2555,-0.00046578,0
2.256,-0.00031707,0
2.2565,-0.0001561,0
2.257,-3.4577e-05,0
2.2575,-2.7024e-05,0
2.258,-6.8147e-05,0
2.2585,-7.5532e-06,0
2.259,0.00018111,0
2.2595,0.00033419,0
2.26,0.00035299,0
2.2605,0.00028115,0
2.261,0.00020394,0
2.2615,0.0001556,0
2.262,0.00012992,0
2.2625,0.00014922,0
2.263,0.00023516,0
2.2635,0.00035383,0
2.264,0.000449,0
2.2645,0.0004453,0
2.265,0.00034224,0
2.2655,0.00024086,0
2.266,0.00019974,0
2.2665,0.00021434,0
2.267,0.0002318,0
2.2675,0.000213,0
2.268,0.00014183,0
2.2685,3.743e-05,0
2.269,-5.5558e-05,0
2.2695,-0.00011481,0
2.27,-0.00015224,0
2.2705,-0.00017876,0
2.271,-0.00018749,0
2.2715,-0.00017943,0
2.272,-0.0001566,0
2.2725,-0.00012471,0
2.273,-9.4835e-05,0
2.2735,-5.3208e-05,0
2.274,9.7353e-06,0
2.2745,5.3208e-05,0
2.275,6.2776e-05,0
2.2755,4.7837e-05,0
2.276,2.4338e-05,0
2.2765,1.7121e-05,0
2.277,3.2731e-05,0
2.2775,6.8315e-05,0
2.278,8.8289e-05,0
2.2785,8.275e-05,0
2.279,0.00010054,0
2.2795,0.00017557,0
2.28,0.00027745,0
2.2805,0.00036037,0
2.281,0.00038656,0
2.2815,0.00040787,0
2.282,0.00043993,0
2.2825,0.00037632,0
2.283,0.00019118,0
2.2835,8.392e-07,0
2.284,-0.00010793,0
2.2845,-0.00015157,0
2.285,-0.00018799,0
2.2855,-0.00023532,0
2.286,-0.00023381,0
2.2865,-0.00013948,0
2.287,-1.0071e-05,0
2.2875,4.9348e-05,0
2.288,3.8773e-05,0
2.2885,2.6184e-05,0
2.289,2.266e-05,0
2.2895,6.5461e-06,0
2.29,-9.9031e-06,0
2.2905,1.0239e-05,0
2.291,2.4506e-05,0
2.2915,3.8605e-06,0
2.292,-5.0355e-06,0
2.2925,8.5603e-06,0
2.293,3.2059e-05,0
2.2935,8.3421e-05,0
2.294,0.00011162,0
2.2945,7.7378e-05,0
2.295,3.5584e-05,0
2.2955,2.8031e-05,0
2.296,3.508e-05,0
2.2965,1.8631e-05,0
2.297,-7.5532e-06,0
2.2975,3.1388e-05,0
2.298,0.00015828,0
2.2985,0.00029625,0
2.299,0.00033268,0
2.2995,0.00025933,0
2.3,0.00014083,0
2.3005,3.743e-05,0
2.301,-3.2731e-05,0
2.3015,-9.9367e-05,0
2.302,-0.0001655,0
2.3025,-0.00021199,0
2.303,-0.00023734,0
2.3035,-0.00028081,0
2.304,-0.00032613,0
2.3045,-0.00031724,0
2.305,-0.00026587,0
2.3055,-0.00022861,0
2.306,-0.000237,0
2.3065,-0.00024758,0
2.307,-0.00017288,0
2.3075,-1.1078e-05,0
2.308,0.00014318,0
2.3085,0.00020394,0
2.309,0.00018245,0
2.3095,0.00015895,0
2.31,0.00014116,0
2.3105,8.6778e-05,0
2.311,1.8967e-05,0
2.3115,-2.266e-05,0
2.312,-1.561e-05,0
2.3125,-2.2156e-05,0
2.313,-0.0001044,0
2.3135,-0.00020511,0
2.314,-0.00025631,0
2.3145,-0.00024825,0
2.315,-0.00018094,0
2.3155,-8.2078e-05,0
2.316,1.0575e-05,0
2.3165,9.1478e-05,0
2.317,0.00017691,0
2.3175,0.00023885,0
2.318,0.00023281,0
2.3185,0.00015828,0
2.319,5.3544e-05,0
2.3195,-3.357e-05,0
2.32,-6.1936e-05,0
2.3205,-2.182e-05,0
2.321,3.8437e-05,0
2.3215,7.3686e-05,0
2.322,8.7114e-05,0
2.3225,8.1407e-05,0
2.323,6.6133e-05,0
2.3235,4.8173e-05,0
2.324,3.6927e-06,0
2.3245,-4.5991e-05,0
2.325,-3.3738e-05,0
2.3255,5.3544e-05,0
2.326,0.00014284,0
2.3265,0.00019722,0
2.327,0.00026033,0
2.3275,0.00029928,0
2.328,0.00028988,0
2.3285,0.00025328,0
2.329,0.00019571,0
2.3295,0.00011397,0
2.33,4.6159e-05,0
2.3305,-1.0407e-05,0
2.331,-3.6927e-05,0
2.3315,3.0213e-05,0
2.332,0.0001754,0
2.3325,0.00027947,0
2.333,0.00030498,0
2.3335,0.00028652,0
2.334,0.00017389,0
2.3345,-2.2995e-05,0
2.335,-0.00018044,0
2.3355,-0.00025379,0
2.336,-0.00028383,0
2.3365,-0.00032697,0
2.337,-0.00037481,0
2.3375,-0.00038975,0
2.338,-0.00036709,0
2.3385,-0.0003357,0
2.339,-0.00029978,0
2.3395,-0.00024724,0
2.34,-0.00017171,0
2.3405,-8.2246e-05,0
2.341,1.9638e-05,0
2.3415,0.0001237,0
2.342,0.0002088,0
2.3425,0.00025161,0
2.343,0.00023684,0
2.3435,0.00018212,0
2.344,0.00012001,0
2.3445,9.4835e-05,0
2.345,0.00012236,0
2.3455,0.00019521,0
2.346,0.00028853,0
2.3465,0.0003644,0
2.347,0.00034963,0
2.3475,0.00023885,0
2.348,0.00011934,0
2.3485,4.2802e-05,0
2.349,-1.1582e-05,0
2.3495,-7.8386e-05,0
2.35,-0.00014939,0
2.3505,-0.00020024,0
2.351,-0.00024154,0
2.3515,-0.00025933,0
2.352,-0.00024019,0
2.3525,-0.00021518,0
2.353,-0.00018849,0
2.3535,-0.00015845,0
2.354,-0.00011061,0
2.3545,-4.1459e-05,0
2.355,2.9877e-05,0
2.3555,0.00010256,0
2.356,0.00016164,0
2.3565,0.00019454,0
2.357,0.0002219,0
2.3575,0.00032059,0
2.358,0.00042583,0
2.3585,0.00042416,0
2.359,0.00037783,0
2.3595,0.00035702,0
2.36,0.00031673,0
2.3605,0.00022643,0
2.361,0.00014334,0
2.3615,0.00012068,0
2.362,0.00013613,0
2.3625,0.00013579,0
2.363,8.8792e-05,0
2.3635,-6.2104e-06,0
2.364,-4.6662e-05,0
2.3645,8.3925e-06,0
2.365,5.3544e-05,0
2.3655,-4.3473e-05,0
2.366,-0.0002798,0
2.3665,-0.00047535,0
2.367,-0.00050472,0
2.3675,-0.00041677,0
2.368,-0.00035634,0
2.3685,-0.00035802,0
2.369,-0.00033922,0
2.3695,-0.00026705,0
2.37,-0.0001754,0
2.3705,-0.00011229,0
2.371,-0.00010692,0
2.3715,-0.00014603,0
2.372,-0.00019722,0
2.3725,-0.00022979,0
2.373,-0.00021686,0
2.3735,-0.00015912,0
2.374,-7.6371e-05,0
2.3745,2.0981e-05,0
2.375,0.0001086,0
2.3755,0.00014687,0
2.376,0.00014687,0
2.3765,0.0001462,0
2.377,0.0001556,0
2.3775,0.00016634,0
2.378,0.00015492,0
2.3785,0.00011598,0
2.379,7.4189e-05,0
2.3795,4.448e-05,0
2.38,3.3906e-05,0
2.3805,3.9277e-05,0
2.381,4.3641e-05,0
2.3815,3.6759e-05,0
2.382,1.947e-05,0
2.3825,1.1078e-05,0
2.383,1.5442e-05,0
2.3835,1.8128e-05,0
2.384,2.5345e-05,0
2.3845,4.2298e-05,0
2.385,4.683e-05,0
2.3855,3.2059e-05,0
2.386,1.4603e-05,0
2.3865,1.3596e-05,0
2.387,4.8844e-05,0
2.3875,0.00012337,0
2.388,0.00020729,0
2.3885,0.00026235,0
2.389,0.0002647,0
2.3895,0.00022274,0
2.39,0.00019857,0
2.3905,0.00023583,0
2.391,0.00028249,0
2.3915,0.00030163,0
2.392,0.00031438,0
2.3925,0.00034292,0
2.393,0.00036541,0
2.3935,0.00029793,0
2.394,0.00011498,0
2.3945,-7.2679e-05,0
2.395,-0.00015929,0
2.3955,-0.00014368,0
2.396,-9.0135e-05,0
2.3965,-7.7378e-05,0
2.397,-0.00010608,0
2.3975,-0.0001133,0
2.398,-7.3182e-05,0
2.3985,8.896e-06,0
2.399,7.7043e-05,0
2.3995,6.3951e-05,0
2.4,-3.122e-05,0
2.4005,-0.00012538,0
2.401,-0.00012471,0
2.4015,-2.0646e-05,0
2.402,0.00012203,0
2.4025,0.00020981,0
2.403,0.00017305,0
2.4035,5.8076e-05,0
2.404,-7.7714e-05,0
2.4045,-0.00018614,0
2.405,-0.00023163,0
2.4055,-0.00024036,0
2.406,-0.00024573,0
2.4065,-0.00024288,0
2.407,-0.00024288,0
2.4075,-0.00025379,0
2.408,-0.00024321,0
2.4085,-0.00018648,0
2.409,-0.00011984,0
2.4095,-6.1265e-05,0
2.41,5.5222e-05,0
2.4105,0.00025563,0
2.411,0.00038488,0
2.4115,0.00025899,0
2.412,2.4674e-05,0
2.4125,-6.3783e-05,0
2.413,-1.2085e-05,0
2.4135,4.7501e-05,0
2.414,5.2201e-05,0
2.4145,-3.4409e-05,0
2.415,-0.00016667,0
2.4155,-0.00021518,0
2.416,-0.00011598,0
2.4165,7.7714e-05,0
2.417,0.00020713,0
2.4175,0.00025463,0
2.418,0.00029928,0
2.4185,0.00035164,0
2.419,0.0003597,0
2.4195,0.00027645,0
2.42,0.00013277,0
2.4205,-2.182e-06,0
2.421,-0.00010054,0
2.4215,-0.00015325,0
2.422,-0.00015291,0
2.4225,-0.00013646,0
2.423,-0.00011699,0
2.4235,-3.2731e-05,0
2.424,3.6088e-05,0
2.4245,-4.8676e-06,0
2.425,-7.7714e-05,0
2.4255,-0.0001039,0
2.426,-8.2078e-05,0
2.4265,-6.2608e-05,0
2.427,-9.6849e-05,0
2.4275,-0.00015409,0
2.428,-0.00017356,0
2.4285,-0.00015492,0
2.429,-0.00018816,0
2.4295,-0.00030146,0
2.43,-0.00037733,0
2.4305,-0.00034661,0
2.431,-0.00025328,0
2.4315,-0.00015543,0
2.432,-0.00010256,0
2.4325,-0.0001091,0
2.433,-0.00011783,0
2.4335,-5.9419e-05,0
2.434,6.3615e-05,0
2.4345,0.00017842,0
2.435,0.00021971,0
2.4355,0.00023499,0
2.436,0.00029508,0
2.4365,0.00042248,0
2.437,0.00056918,0
2.4375,0.00067022,0
2.438,0.00065478,0
2.4385,0.00054501,0
2.439,0.00046813,0
2.4395,0.00045303,0
2.44,0.00039193,0
2.4405,0.00023381,0
2.441,0.00010877,0
2.4415,4.8844e-05,0
2.442,-4.1459e-05,0
2.4425,-0.00016298,0
2.443,-0.0002318,0
2.4435,-0.00021015,0
2.444,-0.00014485,0
2.4445,-0.00014536,0
2.445,-0.00025328,0
2.4455,-0.00034006,0
2.446,-0.00028685,0
2.4465,-0.00014788,0
2.447,-5.3208e-05,0
2.4475,-4.4144e-05,0
2.448,-8.0903e-05,0
2.4485,-0.00010491,0
2.449,-7.9896e-05,0
2.4495,-1.6785e-05,0
2.45,2.4674e-05,0
2.4505,1.8631e-05,0
2.451,-3.1891e-05,0
2.4515,-0.00010289,0
2.452,-0.00013327,0
2.4525,-9.8863e-05,0
2.453,-3.0716e-05,0
2.4535,8.5603e-06,0
2.454,2.182e-06,0
2.4545,-1.8128e-05,0
2.455,-6.2104e-06,0
2.4555,8.7114e-05,0
2.456,0.00020763,0
2.4565,0.00025664,0
2.457,0.00026336,0
2.4575,0.00025631,0
2.458,0.00026235,0
2.4585,0.00031337,0
2.459,0.00035332,0
2.4595,0.00026839,0
2.46,0.00010105,0
2.4605,-1.1582e-05,0
2.461,-3.2059e-05,0
2.4615,3.8605e-06,0
2.462,3.6759e-05,0
2.4625,-9.2317e-06,0
2.463,-6.2776e-05,0
2.4635,-5.539e-06,0
2.464,0.00011464,0
2.4645,0.00017708,0
2.465,0.00015023,0
2.4655,0.00010306,0
2.466,7.9057e-05,0
2.4665,4.2802e-05,0
2.467,-3.743e-05,0
2.4675,-0.00013579,0
2.468,-0.00018984,0
2.4685,-0.00015526,0
2.469,-5.4551e-05,0
2.4695,4.8173e-05,0
2.47,0.00010491,0
2.4705,9.4163e-05,0
2.471,3.2898e-05,0
2.4715,-2.7024e-05,0
2.472,-6.8818e-05,0
2.4725,-0.00010877,0
2.473,-0.00014418,0
2.4735,-0.00016181,0
2.474,-0.00016751,0
2.4745,-0.00016399,0
2.475,-0.00014418,0
2.4755,-0.0001091,0
2.476,-7.2007e-05,0
2.4765,-4.5151e-05,0
2.477,-3.3738e-05,0
2.4775,-2.7024e-05,0
2.478,-1.4603e-05,0
2.4785,4.1962e-06,0
2.479,2.9206e-05,0
2.4795,5.2033e-05,0
2.48,6.3615e-05,0
2.4805,6.7475e-05,0
2.481,6.9657e-05,0
2.4815,7.6371e-05,0
2.482,8.6778e-05,0
2.4825,9.6178e-05,0
2.483,0.0001091,0
2.4835,0.00012085,0
2.484,0.00011783,0
2.4845,0.00010054,0
2.485,8.0232e-05,0
2.4855,6.5629e-05,0
2.486,5.9922e-05,0
2.4865,5.4719e-05,0
2.487,5.0187e-05,0
2.4875,6.865e-05,0
2.488,9.1478e-05,0
2.4885,8.5771e-05,0
2.489,5.4551e-05,0
2.4895,4.6159e-05,0
2.49,8.745e-05,0
2.4905,0.0001425,0
2.491,0.00018245,0
2.4915,0.00020729,0
2.492,0.00021938,0
2.4925,0.00020192,0
2.493,0.0001415,0
2.4935,8.7785e-05,0
2.494,6.3615e-05,0
2.4945,5.8579e-05,0
2.495,6.63e-05,0
2.4955,4.5487e-05,0
2.496,-8.2246e-06,0
2.4965,-7.1336e-05,0
2.497,-0.00012337,0
2.4975,-0.00015291,0
2.498,-0.00015123,0
2.4985,-0.00011984,0
2.499,-8.1071e-05,0
2.4995,-8.0735e-05,0
2.5,-0.00012337,0
2.5005,-0.00017053,0
2.501,-0.00018279,0
2.5015,-0.00015895,0
2.502,-0.00012337,0
2.5025,-8.661e-05,0
2.503,-5.1362e-05,0
2.5035,-2.182e-05,0
2.504,-4.8676e-06,0
2.5045,-3.6423e-05,0
2.505,-4.0787e-05,0
2.5055,7.3686e-05,0
2.506,0.00016231,0
2.5065,8.6946e-05,0
2.507,-1.1246e-05,0
2.5075,2.8367e-05,0
2.508,0.00014284,0
2.5085,0.00019689,0
2.509,0.00013579,0
2.5095,6.0761e-05,0
2.51,8.1407e-05,0
2.5105,0.0001368,0
2.511,0.0001509,0
2.5115,0.00016231,0
2.512,0.00018363,0
2.5125,0.00017473,0
2.513,0.00014015,0
2.5135,7.1672e-05,0
2.514,-1.6449e-05,0
2.5145,-5.3208e-05,0
2.515,-4.4144e-05,0
2.5155,-6.5461e-05,0
2.516,-0.00014553,0
2.5165,-0.00018514,0
2.517,-0.00010105,0
2.5175,3.3402e-05,0
2.518,9.8527e-05,0
2.5185,5.8076e-05,0
2.519,-3.6927e-05,0
2.5195,-0.00010457,0
2.52,-0.00011011,0
2.5205,-9.8527e-05,0
2.521,-0.00013747,0
2.5215,-0.00023667,0
2.522,-0.00031522,0
2.5225,-0.00030364,0
2.523,-0.0002647,0
2.5235,-0.00024489,0
2.524,-0.00018279,0
2.5245,-6.7979e-05,0
2.525,3.1052e-05,0
2.5255,7.3518e-05,0
2.526,7.7714e-05,0
2.5265,9.7856e-05,0
2.527,0.00018379,0
2.5275,0.00028249,0
2.528,0.00037783,0
2.5285,0.00042684,0
2.529,0.00034745,0
2.5295,0.00019051,0
2.53,2.7863e-05,0
2.5305,-7.3686e-05,0
2.531,-5.3376e-05,0
2.5315,5.3376e-05,0
2.532,0.0001133,0
2.5325,2.266e-05,0
2.533,-0.00016802,0
2.5335,-0.00031807,0
2.534,-0.00035215,0
2.5345,-0.00032949,0
2.535,-0.00032412,0
2.5355,-0.000355,0
2.536,-0.00031337,0
2.5365,-9.2821e-05,0
2.537,0.00023264,0
2.5375,0.0004923,0
2.538,0.00058109,0
2.5385,0.00055038,0
2.539,0.00050254,0
2.5395,0.00042953,0
2.54,0.00029928,0
2.5405,0.00017288,0
2.541,6.6636e-05,0
2.5415,-9.1981e-05,0
2.542,-0.00028283,0
2.5425,-0.00040552,0
2.543,-0.00045907,0
2.5435,-0.00047199,0
2.544,-0.00039008,0
2.5445,-0.00019336,0
2.545,4.1627e-05,0
2.5455,0.00021871,0
2.546,0.00027645,0
2.5465,0.00026503,0
2.547,0.00029424,0
2.5475,0.0003691,0
2.548,0.00041408,0
2.5485,0.00039847,0
2.549,0.00034493,0
2.5495,0.00025563,0
2.55,0.00011179,0
2.5505,-0.00010105,0
2.551,-0.00028165,0
2.5515,-0.00029894,0
2.552,-0.00017339,0
2.5525,-1.091e-05,0
2.553,0.00010507,0
2.5535,9.4499e-05,0
2.554,-5.8747e-05,0
2.5545,-0.00023214,0
2.555,-0.00027376,0
2.5555,-0.00017926,0
2.556,-7.4861e-05,0
2.5565,-2.7024e-05,0
2.557,-2.7359e-05,0
2.5575,-0.00010809,0
2.558,-0.00020293,0
2.5585,-0.00019219,0
2.559,-5.035e-07,0
2.5595,0.00023801,0
2.56,0.00036037,0
2.5605,0.00036776,0
2.561,0.00033822,0
2.5615,0.00029189,0
2.562,0.00019857,0
2.5625,7.2343e-05,0
2.563,-2.1317e-05,0
2.5635,-4.448e-05,0
2.564,-5.0523e-05,0
2.5645,-9.9031e-05,0
2.565,-0.00015325,0
2.5655,-0.00013915,0
2.566,-8.3421e-05,0
2.5665,-6.6468e-05,0
2.567,-0.00011112,0
2.5675,-0.00016214,0
2.568,-0.00016013,0
2.5685,-0.00011649,0
2.569,-6.8315e-05,0
2.5695,-3.978e-05,0
2.57,-4.2298e-05,0
2.5705,-6.0594e-05,0
2.571,-6.3951e-05,0
2.5715,-4.0116e-05,0
2.572,-5.0355e-06,0
2.5725,2.6688e-05,0
2.573,5.1362e-05,0
2.5735,6.9154e-05,0
2.574,8.5771e-05,0
2.5745,8.661e-05,0
2.575,7.8889e-05,0
2.5755,9.6178e-05,0
2.576,0.00014922,0
2.5765,0.00020696,0
2.577,0.00022945,0
2.5775,0.00020964,0
2.578,0.00017288,0
2.5785,0.00014485,0
2.579,0.00013176,0
2.5795,0.00012438,0
2.58,0.00011196,0
2.5805,9.0135e-05,0
2.581,6.1769e-05,0
2.5815,3.827e-05,0
2.582,2.8031e-05,0
2.5825,3.0549e-05,0
2.583,4.213e-05,0
2.5835,5.0523e-05,0
2.584,4.9515e-05,0
2.5845,4.2802e-05,0
2.585,1.8967e-05,0
2.5855,-3.3906e-05,0
2.586,-9.0974e-05,0
2.5865,-0.00010239,0
2.587,-5.9587e-05,0
2.5875,-6.1097e-05,0
2.588,-0.00016298,0
2.5885,-0.0002407,0
2.589,-0.00016147,0
2.5895,8.04e-05,0
2.59,0.00030683,0
2.5905,0.00029038,0
2.591,3.9445e-05,0
2.5915,-0.00016667,0
2.592,-0.0001133,0
2.5925,0.00015694,0
2.593,0.00042953,0
2.5935,0.00052486,0
2.594,0.00047417,0
2.5945,0.00042365,0
2.595,0.00036809,0
2.5955,0.00026218,0
2.596,0.00015929,0
2.5965,7.7714e-05,0
2.597,-7.7211e-06,0
2.5975,-9.8024e-05,0
2.598,-0.000165,0
2.5985,-0.00016265,0
2.599,-9.3156e-05,0
2.5995,-3.1724e-05,0
2.6,-5.539e-06,0
2.6005,-1.326e-05,0
2.601,-9.4163e-05,0
2.6015,-0.00020511,0
2.602,-0.00025496,0
2.6025,-0.00019924,0
2.603,-7.2679e-05,0
2.6035,4.448e-05,0
2.604,0.00012706,0
2.6045,0.00020293,0
2.605,0.00021434,0
2.6055,0.00015358,0
2.606,0.00010256,0
2.6065,9.987e-05,0
2.607,0.00010826,0
2.6075,2.7192e-05,0
2.608,-0.00017725,0
2.6085,-0.00038639,0
2.609,-0.00045638,0
2.6095,-0.00039327,0
2.61,-0.00025043,0
2.6105,-7.57e-05,0
2.611,5.3376e-05,0
2.6115,0.00011229,0
2.612,0.00011498,0
2.6125,9.4163e-05,0
2.613,2.4842e-05,0
2.6135,-0.00012203,0
2.614,-0.00027141,0
2.6145,-0.00033402,0
2.615,-0.00033201,0
2.6155,-0.00034124,0
2.616,-0.00031438,0
2.6165,-0.00023549,0
2.617,-0.00013243,0
2.6175,1.678e-07,0
2.618,0.00013898,0
2.6185,0.00022475,0
2.619,0.00022039,0
2.6195,0.00017943,0
2.62,0.00016953,0
2.6205,0.00020394,0
2.621,0.00023381,0
2.6215,0.00018849,0
2.622,5.2537e-05,0
2.6225,-0.00010121,0
2.623,-0.00019219,0
2.6235,-0.00020293,0
2.624,-0.00016315,0
2.6245,-8.7785e-05,0
2.625,2.7192e-05,0
2.6255,0.00011531,0
2.626,6.7979e-05,0
2.6265,-4.4312e-05,0
2.627,2.8534e-06,0
2.6275,0.00021535,0
2.628,0.00038051,0
2.6285,0.00038958,0
2.629,0.00031035,0
2.6295,0.0002276,0
2.63,0.00014989,0
2.6305,8.9296e-05,0
2.631,7.805e-05,0
2.6315,8.3757e-05,0
2.632,7.9728e-05,0
2.6325,0.00012639,0
2.633,0.00023482,0
2.6335,0.00028182,0
2.634,0.0001744,0
2.6345,1.561e-05,0
2.635,-8.8792e-05,0
2.6355,-0.00011447,0
2.636,-6.8482e-05,0
2.6365,6.2104e-06,0
2.637,1.3932e-05,0
2.6375,-0.00010474,0
2.638,-0.00025949,0
2.6385,-0.00031572,0
2.639,-0.0002788,0
2.6395,-0.00020226,0
2.64,-0.00014066,0
2.6405,-0.00013864,0
2.641,-0.00016298,0
2.6415,-0.00016063,0
2.642,-0.00013646,0
2.6425,-0.00012303,0
2.643,-0.0001237,0
2.6435,-0.00014183,0
2.644,-0.00016533,0
2.6445,-0.00018363,0
2.645,-0.00020075,0
2.6455,-0.00020645,0
2.646,-0.00016768,0
2.6465,-6.3279e-05,0
2.647,4.3641e-05,0
2.6475,0.0001086,0
2.648,0.00014166,0
2.6485,0.00017087,0
2.649,0.00020394,0
2.6495,0.0001608,0
2.65,6.6468e-05,0
2.6505,5.7069e-05,0
2.651,0.00014955,0
2.6515,0.00025228,0
2.652,0.00024053,0
2.6525,0.00010927,0
2.653,5.2033e-05,0
2.6535,0.000166,0
2.654,0.0003221,0
2.6545,0.00039663,0
2.655,0.00034997,0
2.6555,0.00019857,0
2.656,2.9877e-05,0
2.6565,-3.7598e-05,0
2.657,3.0716e-05,0
2.6575,0.00013176,0
2.658,0.00016449,0
2.6585,0.00015526,0
2.659,0.00016097,0
2.6595,0.00017288,0
2.66,0.00019622,0
2.6605,0.00022039,0
2.661,0.00017372,0
2.6615,0.00011229,0
2.662,0.00010054,0
2.6625,8.4764e-05,0
2.663,-1.678e-07,0
2.6635,-0.00010172,0
2.664,-0.00014469,0
2.6645,-0.00013931,0
2.665,-0.00013512,0
2.6655,-0.00014771,0
2.666,-0.00016332,0
2.6665,-0.00017238,0
2.667,-0.00015744,0
2.6675,-0.00011112,0
2.668,-5.9419e-05,0
2.6685,-2.3499e-05,0
2.669,-2.5177e-06,0
2.6695,1.1246e-05,0
2.67,2.5345e-05,0
2.6705,3.7934e-05,0
2.671,4.0619e-05,0
2.6715,3.7934e-05,0
2.672,3.592e-05,0
2.6725,3.3066e-05,0
2.673,2.6688e-05,0
2.6735,1.9638e-05,0
2.674,1.7288e-05,0
2.6745,1.7624e-05,0
2.675,1.8631e-05,0
2.6755,2.0646e-05,0
2.676,2.3499e-05,0
2.6765,2.7359e-05,0
2.677,3.0716e-05,0
2.6775,3.1724e-05,0
2.678,2.7863e-05,0
2.6785,1.9974e-05,0
2.679,1.0575e-05,0
2.6795,-4.1962e-06,0
2.68,-2.1988e-05,0
2.6805,-2.8534e-05,0
2.681,-1.8967e-05,0
2.6815,-2.3499e-06,0
2.682,1.4099e-05,0
2.6825,2.7024e-05,0
2.683,4.8005e-05,0
2.6835,7.956e-05,0
2.684,9.2821e-05,0
2.6845,8.51e-05,0
2.685,6.949e-05,0
2.6855,5.1865e-05,0
2.686,4.7333e-05,0
2.6865,7.2847e-05,0
2.687,0.0001039,0
2.6875,9.5171e-05,0
2.688,9.2821e-05,0
2.6885,0.00014855,0
2.689,0.00020041,0
2.6895,0.00018044,0
2.69,7.4357e-05,0
2.6905,-7.4021e-05,0
2.691,-0.00018883,0
2.6915,-0.00021971,0
2.692,-0.00020243,0
2.6925,-0.00018413,0
2.693,-0.00011716,0
2.6935,-4.6998e-06,0
2.694,4.6326e-05,0
2.6945,-3.8605e-05,0
2.695,-0.00017372,0
2.6955,-0.000237,0
2.696,-0.00014284,0
2.6965,7.1504e-05,0
2.697,0.00022811,0
2.6975,0.00023348,0
2.698,0.00012807,0
2.6985,1.8463e-05,0
2.699,-4.6998e-06,0
2.6995,5.2705e-05,0
2.7,0.00011716,0
2.7005,0.00011934,0
2.701,5.3208e-05,0
2.7015,-2.1988e-05,0
2.702,-3.2563e-05,0
2.7025,7.8889e-06,0
2.703,1.6617e-05,0
2.7035,-3.6255e-05,0
2.704,-0.00011128,0
2.7045,-0.00015811,0
2.705,-0.0001613,0
2.7055,-0.00015341,0
2.706,-0.0001697,0
2.7065,-0.00016248,0
2.707,-5.6062e-05,0
2.7075,0.00012404,0
2.708,0.00026503,0
2.7085,0.00029105,0
2.709,0.00020578,0
2.7095,8.1575e-05,0
2.71,1.8463e-05,0
2.7105,3.9612e-05,0
2.711,7.335e-05,0
2.7115,4.8844e-05,0
2.712,-3.9948e-05,0
2.7125,-0.00017725,0
2.713,-0.00024825,0
2.7135,-0.00014955,0
2.714,4.5487e-05,0
2.7145,0.00015476,0
2.715,0.00016399,0
2.7155,0.00016768,0
2.716,0.00021199,0
2.7165,0.00025933,0
2.717,0.0002506,0
2.7175,0.00017842,0
2.718,0.00013059,0
2.7185,0.00015476,0
2.719,0.00019017,0
2.7195,0.00013747,0
2.72,1.0239e-05,0
2.7205,-0.00013545,0
2.721,-0.00025698,0
2.7215,-0.00029961,0
2.722,-0.00027208,0
2.7225,-0.00021552,0
2.723,-0.00017473,0
2.7235,-0.0001613,0
2.724,-0.00015526,0
2.7245,-0.00013596,0
2.725,-0.00010088,0
2.7255,-5.8412e-05,0
2.726,-1.7288e-05,0
2.7265,1.326e-05,0
2.727,2.7359e-05,0
2.7275,1.9303e-05,0
2.728,-4.2298e-05,0
2.7285,-0.00011766,0
2.729,-0.00010961,0
2.7295,-4.6998e-06,0
2.73,0.000118,0
2.7305,0.00018514,0
2.731,0.0002036,0
2.7315,0.0002083,0
2.732,0.00016634,0
2.7325,7.8889e-06,0
2.733,-0.00018044,0
2.7335,-0.00019219,0
2.734,-1.5274e-05,0
2.7345,0.00018363,0
2.735,0.00029726,0
2.7355,0.00032999,0
2.736,0.00030263,0
2.7365,0.00019857,0
2.737,5.7908e-05,0
2.7375,-2.0981e-05,0
2.738,-1.4939e-05,0
2.7385,-1.326e-05,0
2.739,-6.7979e-05,0
2.7395,-0.00012471,0
2.74,-0.00013042,0
2.7405,-0.00010256,0
2.741,-9.1142e-05,0
2.7415,-9.2485e-05,0
2.742,-6.2944e-05,0
2.7425,5.8747e-06,0
2.743,9.3324e-05,0
2.7435,0.000166,0
2.744,0.00019252,0
2.7445,0.00018766,0
2.745,0.00021871,0
2.7455,0.00030851,0
2.746,0.00036172,0
2.7465,0.00025832,0
2.747,5.153e-05,0
2.7475,-6.9993e-05,0
2.748,-2.031e-05,0
2.7485,8.1743e-05,0
2.749,0.00010021,0
2.7495,2.1149e-05,0
2.75,-7.6371e-05,0
2.7505,-0.00014318,0
2.751,-0.00017003,0
2.7515,-0.00014704,0
2.752,-7.5029e-05,0
2.7525,-8.392e-07,0
2.753,1.326e-05,0
2.7535,-2.1653e-05,0
2.754,-3.978e-05,0
2.7545,-2.182e-05,0
2.755,6.2104e-06,0
2.7555,3.4409e-05,0
2.756,4.4648e-05,0
2.7565,2.7863e-05,0
2.757,1.6785e-06,0
2.7575,-1.1582e-05,0
2.758,-2.8534e-06,0
2.7585,1.4603e-05,0
2.759,-9.0639e-06,0
2.7595,-6.7979e-05,0
2.76,-8.2246e-05,0
2.7605,-3.7766e-05,0
2.761,1.561e-05,0
2.7615,4.1962e-05,0
2.762,3.4745e-05,0
2.7625,-1.3596e-05,0
2.763,-6.6636e-05,0
2.7635,-6.1936e-05,0
2.764,-1.7121e-05,0
2.7645,1.0239e-05,0
2.765,2.9374e-05,0
2.7655,5.7908e-05,0
2.766,2.8367e-05,0
2.7665,-0.00013176,0
2.767,-0.00025983,0
2.7675,-0.00017205,0
2.768,6.6972e-05,0
2.7685,0.00026806,0
2.769,0.00033419,0
2.7695,0.00030112,0
2.77,0.00024405,0
2.7705,0.0001994,0
2.771,0.00017842,0
2.7715,0.00014888,0
2.772,6.3279e-05,0
2.7725,-7.7211e-05,0
2.773,-0.00019773,0
2.7735,-0.00020981,0
2.774,-9.3324e-05,0
2.7745,7.1839e-05,0
2.775,0.00017372,0
2.7755,0.00013797,0
2.776,-2.3331e-05,0
2.7765,-0.00015056,0
2.777,-9.7856e-05,0
2.7775,6.949e-05,0
2.778,0.00015023,0
2.7785,0.00014687,0
2.779,0.00018514,0
2.7795,0.00025328,0
2.78,0.00027024,0
2.7805,0.00020914,0
2.781,0.00011162,0
2.7815,4.9851e-05,0
2.782,4.6159e-05,0
2.7825,5.9587e-05,0
2.783,3.5248e-05,0
2.7835,-3.0884e-05,0
2.784,-9.2485e-05,0
2.7845,-0.00011699,0
2.785,-0.00012438,0
2.7855,-0.00014469,0
2.786,-0.00017607,0
2.7865,-0.00022391,0
2.787,-0.00026923,0
2.7875,-0.00027729,0
2.788,-0.00024976,0
2.7885,-0.00020024,0
2.789,-0.00014569,0
2.7895,-0.00010021,0
2.79,-6.5126e-05,0
2.7905,-4.7669e-05,0
2.791,-4.9683e-05,0
2.7915,-5.9754e-05,0
2.792,-7.0497e-05,0
2.7925,-7.9225e-05,0
2.793,-7.1168e-05,0
2.7935,-2.9374e-05,0
2.794,4.9683e-05,0
2.7945,0.0001368,0
2.795,0.00018749,0
2.7955,0.00018749,0
2.796,0.00013864,0
2.7965,8.2246e-06,0
2.797,-0.00015023,0
2.7975,-0.00021686,0
2.798,-0.00015593,0
2.7985,-3.3402e-05,0
2.799,8.0735e-05,0
2.7995,0.00010289,0
2.8,-8.8121e-05,0
2.8005,-0.00023532,0
2.801,-3.7934e-05,0
2.8015,0.0003832,0
2.802,0.0007142,0
2.8025,0.00079007,0
2.803,0.00064102,0
2.8035,0.00041576,0
2.804,0.00023751,0
2.8045,0.00015828,0
2.805,0.00014318,0
2.8055,9.6849e-05,0
2.806,-1.4603e-05,0
2.8065,-0.00015241,0
2.807,-0.00021569,0
2.8075,-0.000165,0
2.808,-0.00015795,0
2.8085,-0.00019252,0
2.809,-6.7643e-05,0
2.8095,0.00021199,0
2.81,0.0004537,0
2.8105,0.0005393,0
2.811,0.00040183,0
2.8115,9.0639e-05,0
2.812,-0.00020562,0
2.8125,-0.00032412,0
2.813,-0.00024288,0
2.8135,-6.0761e-05,0
2.814,8.9128e-05,0
2.8145,0.00013059,0
2.815,9.6178e-05,0
2.8155,9.9031e-06,0
2.816,-0.00012857,0
2.8165,-0.00023616,0
2.817,-0.00024791,0
2.8175,-0.00021233,0
2.818,-0.00018363,0
2.8185,-0.00017288,0
2.819,-0.00015895,0
2.8195,-0.00011464,0
2.82,-4.5319e-05,0
2.8205,-7.5532e-06,0
2.821,-3.0549e-05,0
2.8215,-7.2679e-05,0
2.822,-6.9154e-05,0
2.8225,-1.1246e-05,0
2.823,5.3544e-05,0
2.8235,7.4525e-05,0
2.824,4.1795e-05,0
2.8245,-5.2033e-06,0
2.825,-4.1795e-05,0
2.8255,-6.2272e-05,0
2.826,-6.3615e-05,0
2.8265,-4.7333e-05,0
2.827,-1.561e-05,0
2.8275,1.8631e-05,0
2.828,5.2033e-05,0
2.8285,8.7785e-05,0
2.829,0.00010524,0
2.8295,9.2485e-05,0
2.83,7.0161e-05,0
2.8305,6.4958e-05,0
2.831,8.191e-05,0
2.8315,0.00010625,0
2.832,0.00012001,0
2.8325,0.00012102,0
2.833,9.1478e-05,0
2.8335,6.7475e-05,0
2.834,0.00012337,0
2.8345,0.00025295,0
2.835,0.00038454,0
2.8355,0.00042046,0
2.836,0.00033083,0
2.8365,0.00022123,0
2.837,0.00014015,0
2.8375,3.2059e-05,0
2.838,-9.131e-05,0
2.8385,-0.00022257,0
2.839,-0.00034493,0
2.8395,-0.00041291,0
2.84,-0.00045756,0
2.8405,-0.00050539,0
2.841,-0.00040838,0
2.8415,-8.1071e-05,0
2.842,0.00029491,0
2.8425,0.00049398,0
2.843,0.00045303,0
2.8435,0.00025412,0
2.844,7.1336e-05,0
2.8445,-9.9031e-06,0
2.845,-2.182e-05,0
2.8455,-2.2324e-05,0
2.846,-5.0355e-05,0
2.8465,-0.00010457,0
2.847,-0.00015325,0
2.8475,-0.00019957,0
2.848,-0.00022844,0
2.8485,-0.00018212,0
2.849,-0.00010608,0
2.8495,-8.9464e-05,0
2.85,-7.4357e-05,0
2.8505,1.6449e-05,0
2.851,0.00015224,0
2.8515,0.00024405,0
2.852,0.00024221,0
2.8525,0.00016785,0
2.853,8.7617e-05,0
2.8535,6.3279e-05,0
2.854,8.1071e-05,0
2.8545,9.0974e-05,0
2.855,7.9225e-05,0
2.8555,2.6017e-05,0
2.856,-0.00013243,0
2.8565,-0.00030196,0
2.857,-0.00031069,0
2.8575,-0.00016466,0
2.858,-7.7211e-06,0
2.8585,7.0832e-05,0
2.859,0.00010726,0
2.8595,0.00017339,0
2.86,0.00027192,0
2.8605,0.00036876,0
2.861,0.0004072,0
2.8615,0.00031908,0
2.862,0.00015291,0
2.8625,3.7095e-05,0
2.863,3.4241e-05,0
2.8635,1.6281e-05,0
2.864,-0.00011582,0
2.8645,-0.00017977,0
2.865,-8.2078e-05,0
2.8655,-2.7024e-05,0
2.866,-0.00010323,0
2.8665,-0.00012203,0
2.867,1.6953e-05,0
2.8675,0.00018379,0
2.868,0.00025496,0
2.8685,0.00024388,0
2.869,0.00019588,0
2.8695,0.00014318,0
2.87,0.00010121,0
2.8705,7.5029e-05,0
2.871,5.4551e-05,0
2.8715,3.743e-05,0
2.872,4.2466e-05,0
2.8725,6.5461e-05,0
2.873,-2.266e-05,0
2.8735,-0.00031891,0
2.874,-0.00052839,0
2.8745,-0.00037682,0
2.875,-7.5532e-06,0
2.8755,0.00027024,0
2.876,0.0003305,0
2.8765,0.00021535,0
2.877,2.7192e-05,0
2.8775,-0.00011028,0
2.878,-0.00017943,0
2.8785,-0.00024892,0
2.879,-0.00029273,0
2.8795,-0.00025798,0
2.88,-0.0001655,0
2.8805,-7.2343e-05,0
2.881,-1.1246e-05,0
2.8815,1.6449e-05,0
2.882,2.3331e-05,0
2.8825,2.3331e-05,0
2.883,2.6352e-05,0
2.8835,1.9974e-05,0
2.884,1.1246e-05,0
2.8845,2.8031e-05,0
2.885,6.0258e-05,0
2.8855,7.4861e-05,0
2.886,6.3615e-05,0
2.8865,4.6159e-05,0
2.887,3.1556e-05,0
2.8875,2.4338e-05,0
2.888,3.0213e-06,0
2.8885,-6.2776e-05,0
2.889,-0.00012488,0
2.8895,-9.9702e-05,0
2.89,3.8605e-06,0
2.8905,9.9702e-05,0
2.891,0.00014939,0
2.8915,0.00015895,0
2.892,0.00010272,0
2.8925,3.743e-05,0
2.893,4.9851e-05,0
2.8935,0.0001373,0
2.894,0.00023348,0
2.8945,0.00027913,0
2.895,0.0002929,0
2.8955,0.00029525,0
2.896,0.00025698,0
2.8965,0.0001697,0
2.897,6.7811e-05,0
2.8975,-2.8702e-05,0
2.898,-0.00010843,0
2.8985,-0.0001566,0
2.899,-0.00018396,0
2.8995,-0.00020629,0
2.9,-0.00020864,0
2.9005,-0.00019689,0
2.901,-0.00016567,0
2.9015,-0.00012505,0
2.902,-9.2821e-05,0
2.9025,-6.8818e-05,0
2.903,-3.3906e-05,0
2.9035,2.6688e-05,0
2.904,9.7856e-05,0
2.9045,0.00015157,0
2.905,0.00018144,0
2.9055,0.00019051,0
2.906,0.00015727,0
2.9065,1.678e-07,0
2.907,-0.00020058,0
2.9075,-0.00021955,0
2.908,-2.3499e-05,0
2.9085,0.00019756,0
2.909,0.00027477,0
2.9095,0.0002219,0
2.91,0.00013596,0
2.9105,6.0426e-05,0
2.911,3.9445e-05,0
2.9115,9.0974e-05,0
2.912,0.00014351,0
2.9125,0.00014116,0
2.913,0.00010457,0
2.9135,7.6036e-05,0
2.914,3.5752e-05,0
2.9145,-3.0549e-05,0
2.915,-8.8792e-05,0
2.9155,-0.0001509,0
2.916,-0.00015459,0
2.9165,-5.5894e-05,0
2.917,6.0594e-05,0
2.9175,0.00013445,0
2.918,0.00019236,0
2.9185,0.00018631,0
2.919,3.4073e-05,0
2.9195,-0.00012253,0
2.92,-0.00015409,0
2.9205,-6.9322e-05,0
2.921,5.7237e-05,0
2.9215,0.00014821,0
2.922,0.00013881,0
2.9225,1.0575e-05,0
2.923,-0.000142,0
2.9235,-0.00022777,0
2.924,-0.00026638,0
2.9245,-0.00027947,0
2.925,-0.00023935,0
2.9255,-0.0001284,0
2.926,4.3473e-05,0
2.9265,0.00021132,0
2.927,0.00026101,0
2.9275,0.0001801,0
2.928,7.4189e-05,0
2.9285,1.7288e-05,0
2.929,8.7282e-06,0
2.9295,2.652e-05,0
2.93,6.9657e-05,0
2.9305,0.00012824,0
2.931,0.00015962,0
2.9315,0.0001415,0
2.932,9.2317e-05,0
2.9325,3.6759e-05,0
2.933,-1.4099e-05,0
2.9335,-5.0858e-05,0
2.934,-7.3686e-05,0
2.9345,-7.9225e-05,0
2.935,-7.1839e-05,0
2.9355,-6.5126e-05,0
2.936,-6.6636e-05,0
2.9365,-9.0303e-05,0
2.937,-0.00012035,0
2.9375,-0.00010507,0
2.938,-3.6088e-05,0
2.9385,5.1194e-05,0
2.939,0.00010021,0
2.9395,7.6036e-05,0
2.94,2.2492e-05,0
2.9405,1.9638e-05,0
2.941,7.1336e-05,0
2.9415,0.00013344,0
2.942,0.00018782,0
2.9425,0.00023482,0
2.943,0.00024288,0
2.9435,0.00020461,0
2.944,0.00014284,0
2.9445,-1.0407e-05,0
2.945,-0.0002177,0
2.9455,-0.00027544,0
2.946,-0.00011028,0
2.9465,0.0001274,0
2.947,0.00024321,0
2.9475,0.00018648,0
2.948,8.8121e-05,0
2.9485,4.9012e-05,0
2.949,2.3331e-05,0
2.9495,-4.683e-05,0
2.95,-0.00013344,0
2.9505,-0.00019655,0
2.951,-0.00022576,0
2.9515,-0.00021636,0
2.952,-0.00020645,0
2.9525,-0.00024472,0
2.953,-0.00023398,0
2.9535,-6.0258e-05,0
2.954,0.00020612,0
2.9545,0.00039243,0
2.955,0.00043624,0
2.9555,0.00037447,0
2.956,0.00024472,0
2.9565,0.00010574,0
2.957,2.4002e-05,0
2.9575,-2.1317e-05,0
2.958,-8.7785e-05,0
2.9585,-0.00015895,0
2.959,-0.00018447,0
2.9595,-0.00015862,0
2.96,-0.00010021,0
2.9605,-3.1556e-05,0
2.961,1.6953e-05,0
2.9615,1.8799e-05,0
2.962,-8.5603e-06,0
2.9625,-3.122e-05,0
2.963,-4.1795e-05,0
2.9635,-4.5487e-05,0
2.964,-4.2634e-05,0
2.9645,-3.3906e-05,0
2.965,-1.091e-05,0
2.9655,3.3066e-05,0
2.966,6.4622e-05,0
2.9665,4.1795e-05,0
2.967,7.7211e-06,0
2.9675,2.0646e-05,0
2.968,5.9922e-05,0
2.9685,9.0806e-05,0
2.969,0.00010021,0
2.9695,9.5842e-05,0
2.97,5.153e-05,0
2.9705,-3.743e-05,0
2.971,-9.1646e-05,0
2.9715,-6.9322e-05,0
2.972,-1.3092e-05,0
2.9725,4.3809e-05,0
2.973,0.00011061,0
2.9735,0.00018044,0
2.974,0.00022055,0
2.9745,0.00019588,0
2.975,0.00012018,0
2.9755,1.1414e-05,0
2.976,-0.00018027,0
2.9765,-0.00037615,0
2.977,-0.00035869,0
2.9775,-0.00011699,0
2.978,0.00016298,0
2.9785,0.00033486,0
2.979,0.000379,0
2.9795,0.00034191,0
2.98,0.00027292,0
2.9805,0.00019118,0
2.981,0.00010726,0
2.9815,3.4745e-05,0
2.982,-2.182e-05,0
2.9825,-6.6972e-05,0
2.983,-0.0001034,0
2.9835,-0.00011128,0
2.984,-8.2414e-05,0
2.9845,-4.4816e-05,0
2.985,-1.2589e-05,0
2.9855,1.326e-05,0
2.986,2.182e-05,0
2.9865,1.2924e-05,0
2.987,-8.2246e-06,0
2.9875,-2.9038e-05,0
2.988,-2.8534e-05,0
2.9885,-3.1891e-06,0
2.989,-1.1582e-05,0
2.9895,-6.7979e-05,0
2.99,-9.0471e-05,0
2.9905,-2.2324e-05,0
2.991,0.00010726,0
2.9915,0.00020528,0
2.992,0.00020209,0
2.9925,0.00013075,0
2.993,8.8457e-05,0
2.9935,9.3492e-05,0
2.994,9.5338e-05,0
2.9945,5.9251e-05,0
2.995,1.6953e-05,0
2.9955,1.0071e-06,0
2.996,3.6927e-06,0
2.9965,1.1582e-05,0
2.997,7.8889e-06,0
2.9975,-4.3137e-05,0
2.998,-0.00010507,0
2.9985,-0.00010625,0
2.999,-4.2634e-05,0
2.9995,3.5416e-05,0
3,8.5771e-05,0
3.0005,9.6513e-05,0
3.001,8.7114e-05,0
3.0015,8.3085e-05,0
3.002,8.275e-05,0
3.0025,7.0161e-05,0
3.003,3.9445e-05,0
3.0035,2.8534e-06,0
3.004,-1.1246e-05,0
3.0045,1.8296e-05,0
3.005,8.5435e-05,0
3.0055,0.00014754,0
3.006,3.743e-05,0
3.0065,-0.00024858,0
3.007,-0.00039696,0
3.0075,-0.00022811,0
3.008,0.00010323,0
3.0085,0.00036037,0
3.009,0.00044027,0
3.0095,0.00033754,0
3.01,0.00015828,0
3.0105,2.9877e-05,0
3.011,-4.7501e-05,0
3.0115,-0.00012673,0
3.012,-0.00020864,0
3.0125,-0.00027813,0
3.013,-0.00030599,0
3.0135,-0.00026738,0
3.014,-0.00020276,0
3.0145,-0.00016516,0
3.015,-0.00016667,0
3.0155,-0.00022206,0
3.016,-0.00031774,0
3.0165,-0.0003357,0
3.017,-0.00021082,0
3.0175,-1.4939e-05,0
3.018,0.00015459,0
3.0185,0.00024254,0
3.019,0.00025631,0
3.0195,0.00025177,0
3.02,0.00027343,0
3.0205,0.00029525,0
3.021,0.00022441,0
3.0215,0.00012723,0
3.022,0.00013277,0
3.0225,0.00020897,0
3.023,0.00026806,0
3.0235,0.00026839,0
3.024,0.00020763,0
3.0245,0.0001091,0
3.025,6.2104e-06,0
3.0255,-8.745e-05,0
3.026,-0.00015341,0
3.0265,-0.0001848,0
3.027,-0.0001608,0
3.0275,-7.9057e-05,0
3.028,2.4506e-05,0
3.0285,0.00012136,0
3.029,0.0001566,0
3.0295,0.00011061,0
3.03,4.7669e-05,0
3.0305,9.7353e-06,0
3.031,-2.7024e-05,0
3.0315,-6.3111e-05,0
3.032,-7.6036e-05,0
3.0325,-9.131e-05,0
3.033,-0.00011565,0
3.0335,-0.00011833,0
3.034,-8.5771e-05,0
3.0345,-3.0716e-05,0
3.035,2.2324e-05,0
3.0355,5.8244e-05,0
3.036,6.0929e-05,0
3.0365,3.3906e-05,0
3.037,-1.8463e-06,0
3.0375,-2.7695e-05,0
3.038,-3.5248e-05,0
3.0385,-3.4409e-05,0
3.039,-2.6184e-05,0
3.0395,-9.2317e-06,0
3.04,-5.7069e-06,0
3.0405,-2.0142e-06,0
3.041,4.7333e-05,0
3.0415,0.0001227,0
3.042,0.00015828,0
3.0425,0.00013445,0
3.043,8.275e-05,0
3.0435,4.3473e-05,0
3.044,2.9374e-05,0
3.0445,2.5345e-05,0
3.045,2.0981e-05,0
3.0455,2.4674e-05,0
3.046,3.6423e-05,0
3.0465,4.8844e-05,0
3.047,5.5055e-05,0
3.0475,5.4383e-05,0
3.048,5.4887e-05,0
3.0485,6.009e-05,0
3.049,4.9851e-05,0
3.0495,-1.0575e-05,0
3.05,-9.1981e-05,0
3.0505,-0.00012757,0
3.051,-9.7688e-05,0
3.0515,-4.4984e-05,0
3.052,-1.3764e-05,0
3.0525,-1.2757e-05,0
3.053,-6.0426e-06,0
3.0535,4.7333e-05,0
3.054,0.0001227,0
3.0545,0.00014939,0
3.055,9.8527e-05,0
3.0555,5.9587e-05,0
3.056,8.6778e-05,0
3.0565,0.00014166,0
3.057,0.00018782,0
3.0575,0.00020209,0
3.058,0.00017708,0
3.0585,0.00013075,0
3.059,9.1478e-05,0
3.0595,6.0258e-05,0
3.06,3.1724e-05,0
3.0605,1.7288e-05,0
3.061,2.9038e-05,0
3.0615,5.0523e-05,0
3.062,6.6804e-05,0
3.0625,3.2731e-05,0
3.063,-0.00010021,0
3.0635,-0.00026319,0
3.064,-0.000331,0
3.0645,-0.00026923,0
3.065,-0.00015157,0
3.0655,-4.4144e-05,0
3.066,4.6494e-05,0
3.0665,0.00013176,0
3.067,0.00022374,0
3.0675,0.00029172,0
3.068,0.00027544,0
3.0685,0.00014955,0
3.069,-2.5345e-05,0
3.0695,-0.0001086,0
3.07,-2.6688e-05,0
3.0705,0.00017137,0
3.071,0.00034359,0
3.0715,0.00033503,0
3.072,0.000165,0
3.0725,3.1891e-05,0
3.073,4.0452e-05,0
3.0735,8.3421e-05,0
3.074,2.0981e-05,0
3.0745,-0.00013176,0
3.075,-0.00026252,0
3.0755,-0.0002939,0
3.076,-0.00020343,0
3.0765,-4.3473e-05,0
3.077,4.8676e-05,0
3.0775,7.2175e-06,0
3.078,-8.745e-05,0
3.0785,-0.00014418,0
3.079,-0.00016399,0
3.0795,-0.00016667,0
3.08,-0.00016466,0
3.0805,-0.00016869,0
3.081,-0.00014418,0
