0,0,0
0.0005,0,0
0.001,0,0
0.0015,0,0
0.002,0,0
0.0025,0,0
0.003,0,0
0.0035,0,0
0.004,0,0
0.0045,0,0
0.005,0,0
0.0055,0,0
0.006,0,0
0.0065,0,0
0.007,0,0
0.0075,0,0
0.008,0,0
0.0085,0,0
0.009,0,0
0.0095,0,0
0.01,0,0
0.0105,0,0
0.011,0,0
0.0115,0,0
0.012,0,0
0.0125,0,0
0.013,0,0
0.0135,0,0
0.014,0,0
0.0145,0,0
0.015,0,0
0.0155,0,0
0.016,0,0
0.0165,0,0
0.017,0,0
0.0175,0,0
0.018,0,0
0.0185,0,0
0.019,0,0
0.0195,0,0
0.02,0,0
0.0205,0,0
0.021,0,0
0.0215,0,0
0.022,0,0
0.0225,0,0
0.023,0,0
0.0235,0,0
0.024,0,0
0.0245,0,0
0.025,0,0
0.0255,0,0
0.026,0,0
0.0265,0,0
0.027,0,0
0.0275,0,0
0.028,0,0
0.0285,0,0
0.029,0,0
0.0295,0,0
0.03,0,0
0.0305,0,0
0.031,0,0
0.0315,0,0
0.032,0,0
0.0325,0,0
0.033,0,0
0.0335,0,0
0.034,0,0
0.0345,0,0
0.035,0,0
0.0355,0,0
0.036,0,0
0.0365,0,0
0.037,0,0
0.0375,0,0
0.038,0,0
0.0385,0,0
0.039,2.2324e-05,0
0.0395,3.7598e-05,0
0.04,5.0019e-05,0
0.0405,4.683e-05,0
0.041,3.1388e-05,0
0.0415,1.5274e-05,0
0.042,5.8747e-06,0
0.0425,2.182e-06,0
0.043,1.678e-07,0
0.0435,-2.8534e-06,0
0.044,-4.8676e-06,0
0.0445,-7.0497e-06,0
0.045,-1.2421e-05,0
0.0455,-1.8967e-05,0
0.046,-1.5274e-05,0
0.0465,3.8605e-06,0
0.047,2.9374e-05,0
0.0475,4.3305e-05,0
0.048,3.8437e-05,0
0.0485,2.5513e-05,0
0.049,1.6953e-05,0
0.0495,1.4603e-05,0
0.05,1.5946e-05,0
0.0505,2.031e-05,0
0.051,2.3667e-05,0
0.0515,2.4506e-05,0
0.052,2.5177e-05,0
0.0525,2.9206e-05,0
0.053,3.7766e-05,0
0.0535,4.3305e-05,0
0.054,4.5823e-05,0
0.0545,4.7333e-05,0
0.055,4.213e-05,0
0.0555,3.0045e-05,0
0.056,1.4939e-05,0
0.0565,-1.1749e-06,0
0.057,-9.2317e-06,0
0.0575,-8.5603e-06,0
0.058,-8.5603e-06,0
0.0585,-1.561e-05,0
0.059,-2.1149e-05,0
0.0595,-1.7288e-05,0
0.06,-6.3783e-06,0
0.0605,4.5319e-06,0
0.061,1.0575e-05,0
0.0615,1.3932e-05,0
0.062,1.8631e-05,0
0.0625,2.652e-05,0
0.063,3.5248e-05,0
0.0635,3.743e-05,0
0.064,3.6255e-05,0
0.0645,3.743e-05,0
0.065,3.9277e-05,0
0.0655,4.2298e-05,0
0.066,4.683e-05,0
0.0665,3.978e-05,0
0.067,1.7624e-05,0
0.0675,-2.3499e-06,0
0.068,-1.091e-05,0
0.0685,-1.0742e-05,0
0.069,-2.8534e-06,0
0.0695,1.0575e-05,0
0.07,2.1653e-05,0
0.0705,2.7192e-05,0
0.071,2.8534e-05,0
0.0715,2.8534e-05,0
0.072,3.122e-05,0
0.0725,3.7095e-05,0
0.073,4.1459e-05,0
0.0735,4.6998e-05,0
0.074,5.0523e-05,0
0.0745,4.5991e-05,0
0.075,3.6255e-05,0
0.0755,2.5345e-05,0
0.076,2.1988e-05,0
0.0765,2.9877e-05,0
0.077,3.827e-05,0
0.0775,4.0787e-05,0
0.078,3.9109e-05,0
0.0785,3.4745e-05,0
0.079,2.7527e-05,0
0.0795,2.2995e-05,0
0.08,2.3667e-05,0
0.0805,2.4674e-05,0
0.081,1.7792e-05,0
0.0815,5.2033e-06,0
0.082,-9.5674e-06,0
0.0825,-2.1653e-05,0
0.083,-2.3499e-05,0
0.0835,-1.4603e-05,0
0.084,-6.714e-07,0
0.0845,1.4939e-05,0
0.085,2.6017e-05,0
0.0855,2.7695e-05,0
0.086,2.031e-05,0
0.0865,8.896e-06,0
0.087,-2.3499e-06,0
0.0875,-1.1582e-05,0
0.088,-1.561e-05,0
0.0885,-1.3764e-05,0
0.089,-8.5603e-06,0
0.0895,-3.6927e-06,0
0.09,4.8676e-06,0
0.0905,1.9638e-05,0
0.091,3.0045e-05,0
0.0915,3.3234e-05,0
0.092,3.5584e-05,0
0.0925,4.1459e-05,0
0.093,4.683e-05,0
0.0935,4.683e-05,0
0.094,3.827e-05,0
0.0945,2.6184e-05,0
0.095,2.0981e-05,0
0.0955,2.0813e-05,0
0.096,1.6449e-05,0
0.0965,6.3783e-06,0
0.097,-3.8605e-06,0
0.0975,-3.6927e-06,0
0.098,8.0568e-06,0
0.0985,2.0813e-05,0
0.099,2.7527e-05,0
0.0995,3.2059e-05,0
0.1,3.592e-05,0
0.1005,3.7766e-05,0
0.101,3.2731e-05,0
0.1015,2.1317e-05,0
0.102,1.0575e-05,0
0.1025,1.0071e-06,0
0.103,-1.2924e-05,0
0.1035,-3.0716e-05,0
0.104,-3.3738e-05,0
0.1045,-1.561e-05,0
0.105,1.2085e-05,0
0.1055,3.4745e-05,0
0.106,4.448e-05,0
0.1065,5.0187e-05,0
0.107,4.7501e-05,0
0.1075,3.1891e-05,0
0.108,2.4002e-05,0
0.1085,3.2563e-05,0
0.109,4.4984e-05,0
0.1095,5.0523e-05,0
0.11,4.7166e-05,0
0.1105,4.4312e-05,0
0.111,5.0858e-05,0
0.1115,6.0929e-05,0
0.112,6.2104e-05,0
0.1125,5.3376e-05,0
0.113,3.8437e-05,0
0.1135,1.9974e-05,0
0.114,2.6856e-06,0
0.1145,-1.1582e-05,0
0.115,-2.4506e-05,0
0.1155,-3.7095e-05,0
0.116,-4.4984e-05,0
0.1165,-3.8437e-05,0
0.117,-1.7456e-05,0
0.1175,7.8889e-06,0
0.118,2.6017e-05,0
0.1185,3.2731e-05,0
0.119,3.4073e-05,0
0.1195,3.8773e-05,0
0.12,4.0116e-05,0
0.1205,3.7095e-05,0
0.121,3.5248e-05,0
0.1215,3.1724e-05,0
0.122,2.1317e-05,0
0.1225,9.5674e-06,0
0.123,-1.8463e-06,0
0.1235,-9.2317e-06,0
0.124,-9.2317e-06,0
0.1245,-7.2175e-06,0
0.125,-1.678e-07,0
0.1255,1.8463e-05,0
0.126,3.7095e-05,0
0.1265,4.6662e-05,0
0.127,4.5487e-05,0
0.1275,4.2298e-05,0
0.128,4.213e-05,0
0.1285,4.7669e-05,0
0.129,5.3376e-05,0
0.1295,5.0019e-05,0
0.13,3.8437e-05,0
0.1305,2.5849e-05,0
0.131,1.561e-05,0
0.1315,4.6998e-06,0
0.132,-8.896e-06,0
0.1325,-2.3835e-05,0
0.133,-3.7766e-05,0
0.1335,-4.6159e-05,0
0.134,-4.2298e-05,0
0.1345,-3.2059e-05,0
0.135,-2.1653e-05,0
0.1355,-9.5674e-06,0
0.136,-5.035e-07,0
0.1365,4.5319e-06,0
0.137,5.8747e-06,0
0.1375,5.2033e-06,0
0.138,8.5603e-06,0
0.1385,1.8967e-05,0
0.139,3.2395e-05,0
0.1395,4.3137e-05,0
0.14,5.2201e-05,0
0.1405,5.4719e-05,0
0.141,4.6494e-05,0
0.1415,3.4745e-05,0
0.142,3.3738e-05,0
0.1425,4.3809e-05,0
0.143,5.8747e-05,0
0.1435,6.865e-05,0
0.144,6.4286e-05,0
0.1445,4.9515e-05,0
0.145,3.4577e-05,0
0.1455,2.8702e-05,0
0.146,2.8702e-05,0
0.1465,2.8031e-05,0
0.147,2.5681e-05,0
0.1475,1.6953e-05,0
0.148,2.182e-06,0
0.1485,-6.2104e-06,0
0.149,-4.8676e-06,0
0.1495,6.2104e-06,0
0.15,1.9638e-05,0
0.1505,2.7695e-05,0
0.151,2.6017e-05,0
0.1515,1.9638e-05,0
0.152,1.326e-05,0
0.1525,7.7211e-06,0
0.153,3.1891e-06,0
0.1535,5.7069e-06,0
0.154,1.7288e-05,0
0.1545,3.2059e-05,0
0.155,4.3809e-05,0
0.1555,4.5991e-05,0
0.156,4.2802e-05,0
0.1565,4.4144e-05,0
0.157,4.8844e-05,0
0.1575,5.069e-05,0
0.158,4.8676e-05,0
0.1585,5.0187e-05,0
0.159,5.1865e-05,0
0.1595,4.5487e-05,0
0.16,3.743e-05,0
0.1605,3.1388e-05,0
0.161,2.4338e-05,0
0.1615,1.4603e-05,0
0.162,-2.8534e-06,0
0.1625,-2.2492e-05,0
0.163,-3.4409e-05,0
0.1635,-3.827e-05,0
0.164,-3.8773e-05,0
0.1645,-3.508e-05,0
0.165,-2.8702e-05,0
0.1655,-2.0646e-05,0
0.166,-1.0407e-05,0
0.1665,-8.392e-07,0
0.167,4.0284e-06,0
0.1675,5.8747e-06,0
0.168,9.9031e-06,0
0.1685,6.5461e-06,0
0.169,-5.2033e-06,0
0.1695,-1.3596e-05,0
0.17,-1.091e-05,0
0.1705,4.8676e-06,0
0.171,2.3331e-05,0
0.1715,3.827e-05,0
0.172,5.0187e-05,0
0.1725,5.8579e-05,0
0.173,6.0258e-05,0
0.1735,5.4719e-05,0
0.174,5.3208e-05,0
0.1745,5.7572e-05,0
0.175,5.8915e-05,0
0.1755,4.2802e-05,0
0.176,1.9135e-05,0
0.1765,9.2317e-06,0
0.177,9.9031e-06,0
0.1775,8.896e-06,0
0.178,6.2104e-06,0
0.1785,4.3641e-06,0
0.179,-2.182e-06,0
0.1795,-1.1582e-05,0
0.18,-1.5274e-05,0
0.1805,-1.6281e-05,0
0.181,-1.8128e-05,0
0.1815,-1.5442e-05,0
0.182,-3.357e-06,0
0.1825,1.0407e-05,0
0.183,2.1317e-05,0
0.1835,3.1724e-05,0
0.184,3.8102e-05,0
0.1845,3.3402e-05,0
0.185,2.0478e-05,0
0.1855,1.0239e-05,0
0.186,8.3925e-06,0
0.1865,1.091e-05,0
0.187,1.4603e-05,0
0.1875,1.9135e-05,0
0.188,1.8631e-05,0
0.1885,1.5946e-05,0
0.189,1.6114e-05,0
0.1895,1.796e-05,0
0.19,1.7624e-05,0
0.1905,1.8631e-05,0
0.191,2.8702e-05,0
0.1915,4.448e-05,0
0.192,5.539e-05,0
0.1925,5.7237e-05,0
0.193,5.3376e-05,0
0.1935,4.9515e-05,0
0.194,4.6159e-05,0
0.1945,4.1795e-05,0
0.195,3.4745e-05,0
0.1955,3.0716e-05,0
0.196,2.9374e-05,0
0.1965,2.4674e-05,0
0.197,1.9303e-05,0
0.1975,1.7624e-05,0
0.198,1.326e-05,0
0.1985,7.0497e-06,0
0.199,1.5106e-06,0
0.1995,-1.678e-07,0
0.2,5.539e-06,0
0.2005,1.6281e-05,0
0.201,2.4506e-05,0
0.2015,2.8031e-05,0
0.202,3.0716e-05,0
0.2025,3.4745e-05,0
0.203,3.1724e-05,0
0.2035,1.8296e-05,0
0.204,5.2033e-06,0
0.2045,-1.5106e-06,0
0.205,-5.8747e-06,0
0.2055,-6.8818e-06,0
0.206,-1.1749e-06,0
0.2065,7.5532e-06,0
0.207,1.561e-05,0
0.2075,2.2324e-05,0
0.208,2.9038e-05,0
0.2085,3.6088e-05,0
0.209,3.9445e-05,0
0.2095,3.7262e-05,0
0.21,3.2731e-05,0
0.2105,3.2563e-05,0
0.211,3.6423e-05,0
0.2115,3.8773e-05,0
0.212,3.2563e-05,0
0.2125,1.8463e-05,0
0.213,9.9031e-06,0
0.2135,1.091e-05,0
0.214,1.3932e-05,0
0.2145,1.4435e-05,0
0.215,1.4267e-05,0
0.2155,1.0239e-05,0
0.216,4.5319e-06,0
0.2165,1.5106e-06,0
0.217,-3.357e-07,0
0.2175,-1.678e-07,0
0.218,7.5532e-06,0
0.2185,2.0646e-05,0
0.219,3.0045e-05,0
0.2195,3.3066e-05,0
0.22,3.3066e-05,0
0.2205,3.2563e-05,0
0.221,3.2059e-05,0
0.2215,2.7359e-05,0
0.222,2.3667e-05,0
0.2225,3.0716e-05,0
0.223,4.6662e-05,0
0.2235,6.1769e-05,0
0.224,6.2272e-05,0
0.2245,5.1698e-05,0
0.225,4.1795e-05,0
0.2255,3.5752e-05,0
0.226,2.9374e-05,0
0.2265,2.3331e-05,0
0.227,1.2421e-05,0
0.2275,1.0071e-06,0
0.228,-1.2253e-05,0
0.2285,-2.9709e-05,0
0.229,-4.683e-05,0
0.2295,-5.4887e-05,0
0.23,-4.4648e-05,0
0.2305,-2.1149e-05,0
0.231,-8.896e-06,0
0.2315,-1.2757e-05,0
0.232,-1.6953e-05,0
0.2325,-1.561e-05,0
0.233,-2.182e-06,0
0.2335,1.9806e-05,0
0.234,3.4409e-05,0
0.2345,2.9877e-05,0
0.235,2.1988e-05,0
0.2355,2.4674e-05,0
0.236,3.0381e-05,0
0.2365,3.2059e-05,0
0.237,3.0045e-05,0
0.2375,2.8031e-05,0
0.238,2.6352e-05,0
0.2385,2.2995e-05,0
0.239,1.6953e-05,0
0.2395,1.0407e-05,0
0.24,6.5461e-06,0
0.2405,1.4435e-05,0
0.241,2.9038e-05,0
0.2415,3.6759e-05,0
0.242,3.592e-05,0
0.2425,3.0716e-05,0
0.243,2.3331e-05,0
0.2435,1.6114e-05,0
0.244,1.1246e-05,0
0.2445,9.5674e-06,0
0.245,1.1246e-05,0
0.2455,1.5106e-05,0
0.246,1.9974e-05,0
0.2465,2.5513e-05,0
0.247,2.8367e-05,0
0.2475,2.8702e-05,0
0.248,2.9038e-05,0
0.2485,3.1052e-05,0
0.249,3.7262e-05,0
0.2495,4.4648e-05,0
0.25,4.918e-05,0
0.2505,5.2201e-05,0
0.251,5.4383e-05,0
0.2515,5.7908e-05,0
0.252,6.0594e-05,0
0.2525,6.0258e-05,0
0.253,5.8076e-05,0
0.2535,5.4048e-05,0
0.254,4.7501e-05,0
0.2545,3.1388e-05,0
0.255,6.714e-06,0
0.2555,-2.0142e-05,0
0.256,-3.9109e-05,0
0.2565,-4.6494e-05,0
0.257,-4.918e-05,0
0.2575,-4.5991e-05,0
0.258,-3.3066e-05,0
0.2585,-1.4099e-05,0
0.259,1.8463e-06,0
0.2595,1.1582e-05,0
0.26,1.7792e-05,0
0.2605,2.1317e-05,0
0.261,2.2492e-05,0
0.2615,2.0646e-05,0
0.262,1.8128e-05,0
0.2625,2.1149e-05,0
0.263,2.5345e-05,0
0.2635,2.5681e-05,0
0.264,2.1317e-05,0
0.2645,1.4603e-05,0
0.265,9.2317e-06,0
0.2655,1.0407e-05,0
0.266,1.3932e-05,0
0.2665,1.4603e-05,0
0.267,1.5274e-05,0
0.2675,1.9974e-05,0
0.268,2.5513e-05,0
0.2685,2.8534e-05,0
0.269,3.1724e-05,0
0.2695,3.6088e-05,0
0.27,3.8773e-05,0
0.2705,3.4073e-05,0
0.271,2.7359e-05,0
0.2715,2.5345e-05,0
0.272,2.9374e-05,0
0.2725,3.6255e-05,0
0.273,3.7262e-05,0
0.2735,3.1724e-05,0
0.274,2.4842e-05,0
0.2745,2.031e-05,0
0.275,1.947e-05,0
0.2755,2.0646e-05,0
0.276,1.9303e-05,0
0.2765,1.5946e-05,0
0.277,1.3092e-05,0
0.2775,9.0639e-06,0
0.278,8.2246e-06,0
0.2785,1.4939e-05,0
0.279,2.0813e-05,0
0.2795,2.3667e-05,0
0.28,2.6352e-05,0
0.2805,2.9038e-05,0
0.281,3.3066e-05,0
0.2815,3.8102e-05,0
0.282,4.4984e-05,0
0.2825,5.3544e-05,0
0.283,6.009e-05,0
0.2835,5.8244e-05,0
0.284,5.304e-05,0
0.2845,4.8844e-05,0
0.285,4.7501e-05,0
0.2855,4.5487e-05,0
0.286,3.8437e-05,0
0.2865,2.1653e-05,0
0.287,-1.678e-07,0
0.2875,-1.8296e-05,0
0.288,-2.8702e-05,0
0.2885,-3.7934e-05,0
0.289,-5.5222e-05,0
0.2895,-7.5364e-05,0
0.29,-8.4764e-05,0
0.2905,-7.8386e-05,0
0.291,-6.1265e-05,0
0.2915,-3.6423e-05,0
0.292,-1.2924e-05,0
0.2925,4.1962e-06,0
0.293,1.5274e-05,0
0.2935,1.8631e-05,0
0.294,1.8463e-05,0
0.2945,2.2324e-05,0
0.295,3.0045e-05,0
0.2955,3.4073e-05,0
0.296,3.4913e-05,0
0.2965,3.592e-05,0
0.297,3.7095e-05,0
0.2975,3.8102e-05,0
0.298,4.0116e-05,0
0.2985,3.9612e-05,0
0.299,3.6088e-05,0
0.2995,3.1891e-05,0
0.3,2.5009e-05,0
0.3005,1.7288e-05,0
0.301,1.6449e-05,0
0.3015,2.5345e-05,0
0.302,3.6088e-05,0
0.3025,4.1459e-05,0
0.303,3.6088e-05,0
0.3035,2.5009e-05,0
0.304,1.6617e-05,0
0.3045,1.8967e-05,0
0.305,2.7359e-05,0
0.3055,3.592e-05,0
0.306,4.0787e-05,0
0.3065,3.8773e-05,0
0.307,3.5416e-05,0
0.3075,3.2563e-05,0
0.308,2.9038e-05,0
0.3085,2.4338e-05,0
0.309,1.326e-05,0
0.3095,-2.8534e-06,0
0.31,-1.326e-05,0
0.3105,-8.896e-06,0
0.311,1.678e-07,0
0.3115,9.2317e-06,0
0.312,2.2995e-05,0
0.3125,4.3305e-05,0
0.313,6.0929e-05,0
0.3135,6.7308e-05,0
0.314,6.3951e-05,0
0.3145,5.9922e-05,0
0.315,5.2201e-05,0
0.3155,3.8102e-05,0
0.316,1.9974e-05,0
0.3165,-8.392e-07,0
0.317,-1.8967e-05,0
0.3175,-2.0981e-05,0
0.318,-3.8605e-06,0
0.3185,1.6617e-05,0
0.319,2.6688e-05,0
0.3195,2.652e-05,0
0.32,2.2324e-05,0
0.3205,1.6281e-05,0
0.321,1.5946e-05,0
0.3215,2.1988e-05,0
0.322,2.5345e-05,0
0.3225,2.4674e-05,0
0.323,2.4002e-05,0
0.3235,2.4338e-05,0
0.324,2.1317e-05,0
0.3245,1.6785e-05,0
0.325,1.3596e-05,0
0.3255,1.0575e-05,0
0.326,9.5674e-06,0
0.3265,7.8889e-06,0
0.327,8.7282e-06,0
0.3275,1.561e-05,0
0.328,2.4002e-05,0
0.3285,2.9709e-05,0
0.329,3.122e-05,0
0.3295,2.3499e-05,0
0.33,9.7353e-06,0
0.3305,1.1749e-06,0
0.331,-2.3499e-06,0
0.3315,-8.392e-07,0
0.332,6.5461e-06,0
0.3325,1.8799e-05,0
0.333,3.2059e-05,0
0.3335,4.0116e-05,0
0.334,4.1291e-05,0
0.3345,3.8437e-05,0
0.335,3.4073e-05,0
0.3355,2.6017e-05,0
0.336,1.7456e-05,0
0.3365,1.2421e-05,0
0.337,1.091e-05,0
0.3375,1.4939e-05,0
0.338,2.0478e-05,0
0.3385,1.7288e-05,0
0.339,3.5248e-06,0
0.3395,-9.5674e-06,0
0.34,-1.6449e-05,0
0.3405,-1.4771e-05,0
0.341,-7.8889e-06,0
0.3415,8.392e-07,0
0.342,1.2757e-05,0
0.3425,2.3499e-05,0
0.343,3.2059e-05,0
0.3435,3.9109e-05,0
0.344,4.3137e-05,0
0.3445,5.0858e-05,0
0.345,6.0426e-05,0
0.3455,6.8315e-05,0
0.346,7.1672e-05,0
0.3465,6.3111e-05,0
0.347,4.6326e-05,0
0.3475,2.9038e-05,0
0.348,1.1246e-05,0
0.3485,-1.1749e-06,0
0.349,-2.8534e-06,0
0.3495,1.5106e-06,0
0.35,1.5106e-06,0
0.3505,-8.896e-06,0
0.351,-2.6688e-05,0
0.3515,-4.6326e-05,0
0.352,-5.623e-05,0
0.3525,-5.5726e-05,0
0.353,-4.4648e-05,0
0.3535,-2.2156e-05,0
0.354,1.678e-07,0
0.3545,1.4939e-05,0
0.355,2.266e-05,0
0.3555,2.4002e-05,0
0.356,2.652e-05,0
0.3565,3.4745e-05,0
0.357,4.0452e-05,0
0.3575,3.6759e-05,0
0.358,2.4674e-05,0
0.3585,1.3596e-05,0
0.359,1.0071e-05,0
0.3595,1.2924e-05,0
0.36,2.031e-05,0
0.3605,2.8031e-05,0
0.361,3.3402e-05,0
0.3615,3.8605e-05,0
0.362,3.9445e-05,0
0.3625,3.8437e-05,0
0.363,5.0187e-05,0
0.3635,6.865e-05,0
0.364,7.9393e-05,0
0.3645,8.2414e-05,0
0.365,8.0232e-05,0
0.3655,6.4286e-05,0
0.366,3.8773e-05,0
0.3665,1.9806e-05,0
0.367,6.3783e-06,0
0.3675,-1.2757e-05,0
0.368,-3.2395e-05,0
0.3685,-4.1123e-05,0
0.369,-3.4913e-05,0
0.3695,-2.182e-05,0
0.37,-1.0239e-05,0
0.3705,-3.6927e-06,0
0.371,-3.8605e-06,0
0.3715,-8.2246e-06,0
0.372,-9.9031e-06,0
0.3725,-7.5532e-06,0
0.373,-4.8676e-06,0
0.3735,-1.5106e-06,0
0.374,6.3783e-06,0
0.3745,1.4099e-05,0
0.375,1.7121e-05,0
0.3755,1.6281e-05,0
0.376,1.6953e-05,0
0.3765,2.266e-05,0
0.377,3.6255e-05,0
0.3775,5.0019e-05,0
0.378,5.304e-05,0
0.3785,3.6088e-05,0
0.379,1.326e-05,0
0.3795,3.6927e-06,0
0.38,1.1078e-05,0
0.3805,2.5009e-05,0
0.381,3.3402e-05,0
0.3815,2.9206e-05,0
0.382,1.7121e-05,0
0.3825,5.8747e-06,0
0.383,-1.6785e-06,0
0.3835,-4.1962e-06,0
0.384,2.0142e-06,0
0.3845,1.3932e-05,0
0.385,2.6017e-05,0
0.3855,3.0716e-05,0
0.386,2.6352e-05,0
0.3865,2.266e-05,0
0.387,2.3331e-05,0
0.3875,2.5513e-05,0
0.388,2.5849e-05,0
0.3885,2.6017e-05,0
0.389,2.887e-05,0
0.3895,2.8702e-05,0
0.39,2.9206e-05,0
0.3905,3.3402e-05,0
0.391,3.9445e-05,0
0.3915,4.7501e-05,0
0.392,5.8915e-05,0
0.3925,7.0329e-05,0
0.393,7.1839e-05,0
0.3935,5.9587e-05,0
0.394,4.3473e-05,0
0.3945,3.0045e-05,0
0.395,1.326e-05,0
0.3955,0,0
0.396,-8.3925e-06,0
0.3965,-1.561e-05,0
0.397,-2.5681e-05,0
0.3975,-3.6591e-05,0
0.398,-4.0452e-05,0
0.3985,-3.1724e-05,0
0.399,-9.5674e-06,0
0.3995,1.7288e-05,0
0.4,3.743e-05,0
0.4005,4.9515e-05,0
0.401,5.2537e-05,0
0.4015,4.4144e-05,0
0.402,3.357e-05,0
0.4025,3.2059e-05,0
0.403,3.5248e-05,0
0.4035,3.2563e-05,0
0.404,2.3331e-05,0
0.4045,1.0239e-05,0
0.405,8.392e-07,0
0.4055,7.2175e-06,0
0.406,2.7359e-05,0
0.4065,4.683e-05,0
0.407,5.8915e-05,0
0.4075,6.4118e-05,0
0.408,6.3279e-05,0
0.4085,6.0258e-05,0
0.409,5.5558e-05,0
0.4095,4.9348e-05,0
0.41,4.2802e-05,0
0.4105,2.7527e-05,0
0.411,-7.0497e-06,0
0.4115,-5.4048e-05,0
0.412,-8.6107e-05,0
0.4125,-8.1407e-05,0
0.413,-4.5151e-05,0
0.4135,1.1749e-06,0
0.414,3.3402e-05,0
0.4145,4.4144e-05,0
0.415,4.1459e-05,0
0.4155,3.8773e-05,0
0.416,4.1795e-05,0
0.4165,4.4816e-05,0
0.417,4.1459e-05,0
0.4175,3.0716e-05,0
0.418,1.9638e-05,0
0.4185,1.2421e-05,0
0.419,8.896e-06,0
0.4195,8.2246e-06,0
0.42,7.8889e-06,0
0.4205,7.3854e-06,0
0.421,4.1962e-06,0
0.4215,-6.714e-07,0
0.422,-5.8747e-06,0
0.4225,-5.8747e-06,0
0.423,4.1962e-06,0
0.4235,2.3163e-05,0
0.424,3.9277e-05,0
0.4245,4.2802e-05,0
0.425,3.5248e-05,0
0.4255,3.1388e-05,0
0.426,3.6927e-05,0
0.4265,4.3977e-05,0
0.427,4.448e-05,0
0.4275,3.4409e-05,0
0.428,1.8631e-05,0
0.4285,5.539e-06,0
0.429,-5.035e-07,0
0.4295,6.714e-07,0
0.43,3.5248e-06,0
0.4305,4.3641e-06,0
0.431,7.8889e-06,0
0.4315,1.5946e-05,0
0.432,2.3331e-05,0
0.4325,3.2059e-05,0
0.433,4.9012e-05,0
0.4335,6.3615e-05,0
0.434,6.2776e-05,0
0.4345,4.9515e-05,0
0.435,3.6927e-05,0
0.4355,3.1052e-05,0
0.436,2.9542e-05,0
0.4365,2.5345e-05,0
0.437,1.8463e-05,0
0.4375,9.7353e-06,0
0.438,-8.2246e-06,0
0.4385,-2.8031e-05,0
0.439,-3.8437e-05,0
0.4395,-3.7766e-05,0
0.44,-2.7695e-05,0
0.4405,-7.0497e-06,0
0.441,1.6281e-05,0
0.4415,3.1388e-05,0
0.442,3.7095e-05,0
0.4425,3.8102e-05,0
0.443,3.6255e-05,0
0.4435,3.1052e-05,0
0.444,2.3667e-05,0
0.4445,1.947e-05,0
0.445,1.5106e-05,0
0.4455,9.2317e-06,0
0.446,8.2246e-06,0
0.4465,8.5603e-06,0
0.447,5.8747e-06,0
0.4475,2.182e-06,0
0.448,-4.1962e-06,0
0.4485,-8.5603e-06,0
0.449,-5.2033e-06,0
0.4495,5.539e-06,0
0.45,1.9806e-05,0
0.4505,3.3402e-05,0
0.451,4.2634e-05,0
0.4515,4.4144e-05,0
0.452,4.0452e-05,0
0.4525,3.6759e-05,0
0.453,3.4073e-05,0
0.4535,3.0381e-05,0
0.454,3.0213e-05,0
0.4545,3.3402e-05,0
0.455,3.4073e-05,0
0.4555,2.7359e-05,0
0.456,1.6449e-05,0
0.4565,6.5461e-06,0
0.457,3.0213e-06,0
0.4575,7.7211e-06,0
0.458,1.2421e-05,0
0.4585,1.5106e-05,0
0.459,1.4267e-05,0
0.4595,8.896e-06,0
0.46,5.8747e-06,0
0.4605,1.1414e-05,0
0.461,1.8631e-05,0
0.4615,2.5849e-05,0
0.462,3.4745e-05,0
0.4625,3.978e-05,0
0.463,3.8773e-05,0
0.4635,3.4073e-05,0
0.464,2.6688e-05,0
0.4645,2.3163e-05,0
0.465,2.182e-05,0
0.4655,2.031e-05,0
0.466,1.5274e-05,0
0.4665,7.5532e-06,0
0.467,-3.8605e-06,0
0.4675,-1.7624e-05,0
0.468,-2.4338e-05,0
0.4685,-1.6785e-05,0
0.469,-1.0071e-06,0
0.4695,1.1414e-05,0
0.47,1.7792e-05,0
0.4705,2.0646e-05,0
0.471,1.9806e-05,0
0.4715,2.1317e-05,0
0.472,2.3835e-05,0
0.4725,2.3163e-05,0
0.473,2.4338e-05,0
0.4735,2.7359e-05,0
0.474,2.6688e-05,0
0.4745,1.7288e-05,0
0.475,6.8818e-06,0
0.4755,2.182e-06,0
0.476,8.3925e-06,0
0.4765,2.2324e-05,0
0.477,3.0045e-05,0
0.4775,2.6184e-05,0
0.478,1.9303e-05,0
0.4785,1.8296e-05,0
0.479,2.3163e-05,0
0.4795,2.6352e-05,0
0.48,2.4674e-05,0
0.4805,2.5681e-05,0
0.481,3.2059e-05,0
0.4815,3.9612e-05,0
0.482,4.4144e-05,0
0.4825,4.4144e-05,0
0.483,3.978e-05,0
0.4835,3.6759e-05,0
0.484,3.2731e-05,0
0.4845,2.7359e-05,0
0.485,2.8367e-05,0
0.4855,3.592e-05,0
0.486,4.2802e-05,0
0.4865,4.213e-05,0
0.487,3.1052e-05,0
0.4875,1.796e-05,0
0.488,7.8889e-06,0
0.4885,-1.1749e-06,0
0.489,-5.8747e-06,0
0.4895,-7.5532e-06,0
0.49,-7.5532e-06,0
0.4905,-1.678e-07,0
0.491,9.7353e-06,0
0.4915,1.6281e-05,0
0.492,2.031e-05,0
0.4925,2.3331e-05,0
0.493,2.7695e-05,0
0.4935,2.8702e-05,0
0.494,2.5009e-05,0
0.4945,1.7792e-05,0
0.495,1.0407e-05,0
0.4955,5.035e-07,0
0.496,-7.2175e-06,0
0.4965,-5.539e-06,0
0.497,1.5106e-06,0
0.4975,1.2589e-05,0
0.498,2.6352e-05,0
0.4985,3.3906e-05,0
0.499,3.7095e-05,0
0.4995,4.1123e-05,0
0.5,4.3641e-05,0
0.5005,4.5823e-05,0
0.501,5.2872e-05,0
0.5015,5.6901e-05,0
0.502,4.5823e-05,0
0.5025,1.8967e-05,0
0.503,-1.0575e-05,0
0.5035,-2.7695e-05,0
0.504,-2.7695e-05,0
0.5045,-1.5946e-05,0
0.505,-4.8676e-06,0
0.5055,-3.5248e-06,0
0.506,-5.2033e-06,0
0.5065,-7.8889e-06,0
0.507,-1.4939e-05,0
0.5075,-2.1317e-05,0
0.508,-1.4099e-05,0
0.5085,1.8463e-06,0
0.509,1.326e-05,0
0.5095,2.1317e-05,0
0.51,2.5345e-05,0
0.5105,2.0646e-05,0
0.511,9.7353e-06,0
0.5115,4.8676e-06,0
0.512,1.2924e-05,0
0.5125,3.1891e-05,0
0.513,4.8508e-05,0
0.5135,6.0258e-05,0
0.514,6.865e-05,0
0.5145,7.2343e-05,0
0.515,7.1839e-05,0
0.5155,6.9657e-05,0
0.516,5.9922e-05,0
0.5165,4.1459e-05,0
0.517,2.2324e-05,0
0.5175,1.2589e-05,0
0.518,1.1749e-05,0
0.5185,1.3092e-05,0
0.519,1.5946e-05,0
0.5195,1.8463e-05,0
0.52,2.031e-05,0
0.5205,2.2492e-05,0
0.521,2.266e-05,0
0.5215,1.9638e-05,0
0.522,1.4939e-05,0
0.5225,9.7353e-06,0
0.523,3.8605e-06,0
0.5235,-3.8605e-06,0
0.524,-1.2253e-05,0
0.5245,-2.031e-05,0
0.525,-2.3499e-05,0
0.5255,-2.4338e-05,0
0.526,-2.6688e-05,0
0.5265,-2.4002e-05,0
0.527,-1.1246e-05,0
0.5275,4.3641e-06,0
0.528,1.7121e-05,0
0.5285,2.6688e-05,0
0.529,3.2059e-05,0
0.5295,3.4577e-05,0
0.53,3.4745e-05,0
0.5305,3.3066e-05,0
0.531,3.1052e-05,0
0.5315,2.8702e-05,0
0.532,2.5345e-05,0
0.5325,1.9638e-05,0
0.533,1.5274e-05,0
0.5335,2.031e-05,0
0.534,3.4577e-05,0
0.5345,4.7501e-05,0
0.535,4.8844e-05,0
0.5355,4.2802e-05,0
0.536,3.1388e-05,0
0.5365,1.3596e-05,0
0.537,-3.0213e-06,0
0.5375,-1.4939e-05,0
0.538,-1.6114e-05,0
0.5385,-4.8676e-06,0
0.539,6.2104e-06,0
0.5395,1.1917e-05,0
0.54,1.7121e-05,0
0.5405,1.9638e-05,0
0.541,2.031e-05,0
0.5415,2.0981e-05,0
0.542,1.9638e-05,0
0.5425,1.8967e-05,0
0.543,1.9806e-05,0
0.5435,2.0981e-05,0
0.544,1.9638e-05,0
0.5445,1.6617e-05,0
0.545,1.3596e-05,0
0.5455,1.1749e-05,0
0.546,1.5106e-05,0
0.5465,2.0981e-05,0
0.547,2.8534e-05,0
0.5475,3.4073e-05,0
0.548,3.5752e-05,0
0.5485,3.978e-05,0
0.549,4.2802e-05,0
0.5495,3.9445e-05,0
0.55,2.6352e-05,0
0.5505,1.2924e-05,0
0.551,8.2246e-06,0
0.5515,1.1582e-05,0
0.552,1.5106e-05,0
0.5525,2.0646e-05,0
0.553,2.9374e-05,0
0.5535,3.4409e-05,0
0.554,3.0716e-05,0
0.5545,1.9974e-05,0
0.555,1.326e-05,0
0.5555,2.0981e-05,0
0.556,3.743e-05,0
0.5565,4.7837e-05,0
0.557,4.2802e-05,0
0.5575,2.9206e-05,0
0.558,2.0646e-05,0
0.5585,2.3835e-05,0
0.559,2.9374e-05,0
0.5595,3.2731e-05,0
0.56,3.6255e-05,0
0.5605,3.7262e-05,0
0.561,3.7095e-05,0
0.5615,3.743e-05,0
0.562,3.4409e-05,0
0.5625,3.2059e-05,0
0.563,3.3066e-05,0
0.5635,2.9038e-05,0
0.564,1.9303e-05,0
0.5645,1.2253e-05,0
0.565,7.2175e-06,0
0.5655,1.5106e-06,0
0.566,-5.8747e-06,0
0.5665,-1.1246e-05,0
0.567,-1.1078e-05,0
0.5675,-7.2175e-06,0
0.568,-4.1962e-06,0
0.5685,0,0
0.569,9.7353e-06,0
0.5695,2.031e-05,0
0.57,2.0981e-05,0
0.5705,1.1582e-05,0
0.571,5.035e-07,0
0.5715,-4.6998e-06,0
0.572,-3.0213e-06,0
0.5725,5.2033e-06,0
0.573,1.9806e-05,0
0.5735,3.743e-05,0
0.574,5.0523e-05,0
0.5745,5.6901e-05,0
0.575,5.7908e-05,0
0.5755,5.6062e-05,0
0.576,5.3544e-05,0
0.5765,3.978e-05,0
0.577,1.6449e-05,0
0.5775,-6.714e-07,0
0.578,-8.7282e-06,0
0.5785,-1.2253e-05,0
0.579,-1.6953e-05,0
0.5795,-2.9877e-05,0
0.58,-4.7166e-05,0
0.5805,-5.7908e-05,0
0.581,-5.1698e-05,0
0.5815,-3.1388e-05,0
0.582,-8.2246e-06,0
0.5825,9.2317e-06,0
0.583,1.561e-05,0
0.5835,1.5946e-05,0
0.584,1.3596e-05,0
0.5845,7.5532e-06,0
0.585,1.326e-05,0
0.5855,3.5248e-05,0
0.586,6.7643e-05,0
0.5865,9.5003e-05,0
0.587,9.987e-05,0
0.5875,8.4764e-05,0
0.588,6.6972e-05,0
0.5885,5.8579e-05,0
0.589,6.009e-05,0
0.5895,6.3279e-05,0
0.59,5.9587e-05,0
0.5905,4.8005e-05,0
0.591,3.2059e-05,0
0.5915,9.5674e-06,0
0.592,-1.6617e-05,0
0.5925,-4.1123e-05,0
0.593,-5.9922e-05,0
0.5935,-6.7475e-05,0
0.594,-5.9754e-05,0
0.5945,-3.7766e-05,0
0.595,-7.5532e-06,0
0.5955,1.6281e-05,0
0.596,2.5849e-05,0
0.5965,2.4674e-05,0
0.597,2.0646e-05,0
0.5975,1.5274e-05,0
0.598,1.0239e-05,0
0.5985,8.2246e-06,0
0.599,1.0575e-05,0
0.5995,1.4603e-05,0
0.6,1.9135e-05,0
0.6005,2.7359e-05,0
0.601,3.3234e-05,0
0.6015,3.8605e-05,0
0.602,4.9515e-05,0
0.6025,6.2608e-05,0
0.603,6.9657e-05,0
0.6035,6.9657e-05,0
0.604,5.8076e-05,0
0.6045,4.0452e-05,0
0.605,3.1388e-05,0
0.6055,3.0045e-05,0
0.606,2.4002e-05,0
0.6065,1.4603e-05,0
0.607,7.0497e-06,0
0.6075,3.1891e-06,0
0.608,1.1749e-06,0
0.6085,2.5177e-06,0
0.609,7.7211e-06,0
0.6095,1.1246e-05,0
0.61,1.2757e-05,0
0.6105,1.561e-05,0
0.611,2.2995e-05,0
0.6115,3.1388e-05,0
0.612,3.4577e-05,0
0.6125,2.8199e-05,0
0.613,2.0646e-05,0
0.6135,2.0981e-05,0
0.614,2.5849e-05,0
0.6145,3.1388e-05,0
0.615,3.8437e-05,0
0.6155,3.8437e-05,0
0.616,2.8367e-05,0
0.6165,1.6785e-05,0
0.617,1.1917e-05,0
0.6175,2.0981e-05,0
0.618,3.6591e-05,0
0.6185,4.5487e-05,0
0.619,4.1795e-05,0
0.6195,2.6688e-05,0
0.62,1.0071e-05,0
0.6205,-3.357e-06,0
0.621,-1.6281e-05,0
0.6215,-2.9038e-05,0
0.622,-2.8702e-05,0
0.6225,-1.1246e-05,0
0.623,9.7353e-06,0
0.6235,2.3331e-05,0
0.624,2.7359e-05,0
0.6245,2.3331e-05,0
0.625,1.5274e-05,0
0.6255,9.5674e-06,0
0.626,1.0575e-05,0
0.6265,1.6617e-05,0
0.627,2.2995e-05,0
0.6275,2.4674e-05,0
0.628,1.8296e-05,0
0.6285,4.5319e-06,0
0.629,-6.0426e-06,0
0.6295,-1.0071e-05,0
0.63,-1.796e-05,0
0.6305,-1.9638e-05,0
0.631,-1.0407e-05,0
0.6315,3.357e-07,0
0.632,5.8747e-06,0
0.6325,1.0239e-05,0
0.633,1.7288e-05,0
0.6335,2.5849e-05,0
0.634,3.5416e-05,0
0.6345,4.5151e-05,0
0.635,5.7572e-05,0
0.6355,6.6972e-05,0
0.636,6.3279e-05,0
0.6365,4.6494e-05,0
0.637,2.8031e-05,0
0.6375,2.031e-05,0
0.638,2.1988e-05,0
0.6385,2.7527e-05,0
0.639,2.8367e-05,0
0.6395,2.9206e-05,0
0.64,2.6856e-05,0
0.6405,2.2324e-05,0
0.641,2.0646e-05,0
0.6415,1.8967e-05,0
0.642,1.5778e-05,0
0.6425,1.2757e-05,0
0.643,9.5674e-06,0
0.6435,4.5319e-06,0
0.644,-1.5106e-06,0
0.6445,-4.6998e-06,0
0.645,-3.0213e-06,0
0.6455,-1.1749e-06,0
0.646,-2.8534e-06,0
0.6465,-5.8747e-06,0
0.647,-4.5319e-06,0
0.6475,3.1891e-06,0
0.648,9.9031e-06,0
0.6485,1.1414e-05,0
0.649,9.5674e-06,0
0.6495,9.9031e-06,0
0.65,1.2924e-05,0
0.6505,1.7624e-05,0
0.651,1.4603e-05,0
0.6515,-3.0213e-06,0
0.652,-1.4603e-05,0
0.6525,-3.6927e-06,0
0.653,1.6953e-05,0
0.6535,4.0787e-05,0
0.654,6.5629e-05,0
0.6545,8.7114e-05,0
0.655,0.00010071,0
0.6555,0.00010088,0
0.656,8.1743e-05,0
0.6565,5.304e-05,0
0.657,3.3738e-05,0
0.6575,2.5009e-05,0
0.658,1.4099e-05,0
0.6585,-2.3499e-06,0
0.659,-1.4267e-05,0
0.6595,-1.3596e-05,0
0.66,-1.1749e-06,0
0.6605,1.2421e-05,0
0.661,1.9806e-05,0
0.6615,2.4674e-05,0
0.662,3.2059e-05,0
0.6625,3.4073e-05,0
0.663,2.6017e-05,0
0.6635,1.2924e-05,0
0.664,2.5177e-06,0
0.6645,2.0142e-06,0
0.665,6.5461e-06,0
0.6655,1.1749e-05,0
0.666,1.3932e-05,0
0.6665,1.0575e-05,0
0.667,5.8747e-06,0
0.6675,-3.357e-07,0
0.668,-4.6998e-06,0
0.6685,-4.1962e-06,0
0.669,-1.678e-07,0
0.6695,7.5532e-06,0
0.67,2.031e-05,0
0.6705,3.1724e-05,0
0.671,3.9277e-05,0
0.6715,4.5319e-05,0
0.672,4.9012e-05,0
0.6725,4.2466e-05,0
0.673,2.0646e-05,0
0.6735,-1.5106e-06,0
0.674,-1.5778e-05,0
0.6745,-1.9806e-05,0
0.675,-1.0071e-05,0
0.6755,6.5461e-06,0
0.676,1.7456e-05,0
0.6765,1.6449e-05,0
0.677,1.5778e-05,0
0.6775,1.7624e-05,0
0.678,1.6281e-05,0
0.6785,1.4267e-05,0
0.679,1.4939e-05,0
0.6795,1.9638e-05,0
0.68,2.9542e-05,0
0.6805,3.8773e-05,0
0.681,4.5151e-05,0
0.6815,4.9515e-05,0
0.682,5.1026e-05,0
0.6825,5.2033e-05,0
0.683,5.0523e-05,0
0.6835,4.6159e-05,0
0.684,3.6088e-05,0
0.6845,2.0478e-05,0
0.685,5.8747e-06,0
0.6855,-5.539e-06,0
0.686,-6.2104e-06,0
0.6865,-1.5106e-06,0
0.687,2.5177e-06,0
0.6875,9.9031e-06,0
0.688,2.5345e-05,0
0.6885,4.1291e-05,0
0.689,5.0858e-05,0
0.6895,5.2537e-05,0
0.69,5.1865e-05,0
0.6905,5.388e-05,0
0.691,5.3376e-05,0
0.6915,4.8676e-05,0
0.692,4.213e-05,0
0.6925,2.6688e-05,0
0.693,1.5106e-06,0
0.6935,-2.4842e-05,0
0.694,-4.7166e-05,0
0.6945,-6.0929e-05,0
0.695,-5.9251e-05,0
0.6955,-4.0955e-05,0
0.696,-1.6449e-05,0
0.6965,2.5177e-06,0
0.697,1.4603e-05,0
0.6975,1.9638e-05,0
0.698,2.0142e-05,0
0.6985,2.1317e-05,0
0.699,2.5009e-05,0
0.6995,2.9206e-05,0
0.7,2.9374e-05,0
0.7005,2.5849e-05,0
0.701,2.3667e-05,0
0.7015,2.6688e-05,0
0.702,3.0549e-05,0
0.7025,3.0716e-05,0
0.703,2.6017e-05,0
0.7035,2.0646e-05,0
0.704,1.561e-05,0
0.7045,1.3092e-05,0
0.705,1.4939e-05,0
0.7055,1.9303e-05,0
0.706,2.2492e-05,0
0.7065,2.1149e-05,0
0.707,2.2828e-05,0
0.7075,3.5416e-05,0
0.708,4.4816e-05,0
0.7085,4.3641e-05,0
0.709,3.3738e-05,0
0.7095,2.031e-05,0
0.71,1.8631e-05,0
0.7105,3.1556e-05,0
0.711,4.7501e-05,0
0.7115,5.539e-05,0
0.712,5.6565e-05,0
0.7125,5.3208e-05,0
0.713,4.1291e-05,0
0.7135,2.652e-05,0
0.714,1.1917e-05,0
0.7145,-5.8747e-06,0
0.715,-2.266e-05,0
0.7155,-3.1052e-05,0
0.716,-3.0045e-05,0
0.7165,-2.7192e-05,0
0.717,-1.9806e-05,0
0.7175,-5.2033e-06,0
0.718,7.8889e-06,0
0.7185,1.3092e-05,0
0.719,2.0813e-05,0
0.7195,3.4073e-05,0
0.72,4.3977e-05,0
0.7205,5.0019e-05,0
0.721,4.8844e-05,0
0.7215,4.0787e-05,0
0.722,3.2059e-05,0
0.7225,2.5177e-05,0
0.723,2.1317e-05,0
0.7235,2.1653e-05,0
0.724,1.8967e-05,0
0.7245,9.5674e-06,0
0.725,3.6927e-06,0
0.7255,3.6927e-06,0
0.726,6.5461e-06,0
0.7265,7.5532e-06,0
0.727,6.8818e-06,0
0.7275,2.5177e-06,0
0.728,-2.5177e-06,0
0.7285,-3.6927e-06,0
0.729,-8.392e-07,0
0.7295,1.8463e-06,0
0.73,5.7069e-06,0
0.7305,1.8296e-05,0
0.731,3.2059e-05,0
0.7315,3.7766e-05,0
0.732,3.743e-05,0
0.7325,2.8534e-05,0
0.733,1.5106e-05,0
0.7335,1.1246e-05,0
0.734,1.4267e-05,0
0.7345,1.8463e-05,0
0.735,2.031e-05,0
0.7355,2.5009e-05,0
0.736,3.0213e-05,0
0.7365,3.1388e-05,0
0.737,3.3066e-05,0
0.7375,3.8773e-05,0
0.738,3.978e-05,0
0.7385,3.6759e-05,0
0.739,3.3402e-05,0
0.7395,3.1388e-05,0
0.74,3.3738e-05,0
0.7405,4.3809e-05,0
0.741,5.5222e-05,0
0.7415,5.2705e-05,0
0.742,4.0619e-05,0
0.7425,3.5416e-05,0
0.743,3.743e-05,0
0.7435,3.7095e-05,0
0.744,2.5849e-05,0
0.7445,1.1749e-05,0
0.745,5.0355e-06,0
0.7455,1.1749e-06,0
0.746,-1.0239e-05,0
0.7465,-2.9374e-05,0
0.747,-5.0355e-05,0
0.7475,-6.1769e-05,0
0.748,-5.6901e-05,0
0.7485,-4.4816e-05,0
0.749,-3.4073e-05,0
0.7495,-2.1653e-05,0
0.75,-8.2246e-06,0
0.7505,1.1749e-06,0
0.751,1.0575e-05,0
0.7515,2.7192e-05,0
0.752,4.5823e-05,0
0.7525,5.5558e-05,0
0.753,5.3208e-05,0
0.7535,4.4816e-05,0
0.754,3.6927e-05,0
0.7545,3.2059e-05,0
0.755,3.2395e-05,0
0.7555,3.3906e-05,0
0.756,3.2059e-05,0
0.7565,2.6688e-05,0
0.757,1.9135e-05,0
0.7575,1.0575e-05,0
0.758,5.8747e-06,0
0.7585,6.5461e-06,0
0.759,1.3932e-05,0
0.7595,2.3499e-05,0
0.76,2.8367e-05,0
0.7605,2.8199e-05,0
0.761,2.7695e-05,0
0.7615,2.6688e-05,0
0.762,2.5009e-05,0
0.7625,2.2995e-05,0
0.763,2.4002e-05,0
0.7635,3.4241e-05,0
0.764,5.0523e-05,0
0.7645,6.0426e-05,0
0.765,6.2776e-05,0
0.7655,6.3279e-05,0
0.766,6.1097e-05,0
0.7665,5.5894e-05,0
0.767,5.153e-05,0
0.7675,4.8173e-05,0
0.768,4.0452e-05,0
0.7685,1.8296e-05,0
0.769,-1.1246e-05,0
0.7695,-3.2395e-05,0
0.77,-4.3137e-05,0
0.7705,-4.4144e-05,0
0.771,-3.3738e-05,0
0.7715,-1.7792e-05,0
0.772,-6.5461e-06,0
0.7725,3.357e-07,0
0.773,4.8676e-06,0
0.7735,5.8747e-06,0
0.774,1.0575e-05,0
0.7745,1.947e-05,0
0.775,3.2563e-05,0
0.7755,4.4816e-05,0
0.776,5.2201e-05,0
0.7765,5.6733e-05,0
0.777,5.5558e-05,0
0.7775,4.7669e-05,0
0.778,4.3473e-05,0
0.7785,4.0452e-05,0
0.779,3.3738e-05,0
0.7795,2.5681e-05,0
0.78,1.796e-05,0
0.7805,5.2033e-06,0
0.781,-9.2317e-06,0
0.7815,-2.4506e-05,0
0.782,-3.508e-05,0
0.7825,-3.0045e-05,0
0.783,-2.0478e-05,0
0.7835,-1.4603e-05,0
0.784,-1.1078e-05,0
0.7845,-8.5603e-06,0
0.785,-8.392e-07,0
0.7855,3.8605e-06,0
0.786,-1.5106e-06,0
0.7865,-4.5319e-06,0
0.787,6.5461e-06,0
0.7875,2.5009e-05,0
0.788,4.2466e-05,0
0.7885,5.3208e-05,0
0.789,5.3376e-05,0
0.7895,4.6662e-05,0
0.79,4.1459e-05,0
0.7905,4.0116e-05,0
0.791,3.978e-05,0
0.7915,3.6088e-05,0
0.792,3.5752e-05,0
0.7925,4.3137e-05,0
0.793,5.2537e-05,0
0.7935,5.8244e-05,0
0.794,5.8076e-05,0
0.7945,5.2369e-05,0
0.795,4.1459e-05,0
0.7955,2.9374e-05,0
0.796,2.1317e-05,0
0.7965,1.1917e-05,0
0.797,-5.035e-07,0
0.7975,-1.0239e-05,0
0.798,-1.091e-05,0
0.7985,1.8463e-06,0
0.799,2.3667e-05,0
0.7995,4.8173e-05,0
0.8,6.4118e-05,0
0.8005,6.9657e-05,0
0.801,7.1839e-05,0
0.8015,7.1336e-05,0
0.802,6.3615e-05,0
0.8025,4.918e-05,0
0.803,2.6688e-05,0
0.8035,-8.5603e-06,0
0.804,-5.0858e-05,0
0.8045,-8.3085e-05,0
0.805,-8.8121e-05,0
0.8055,-7.5364e-05,0
0.806,-6.3279e-05,0
0.8065,-6.3615e-05,0
0.807,-7.2175e-05,0
0.8075,-7.0664e-05,0
0.808,-5.8915e-05,0
0.8085,-4.5151e-05,0
0.809,-3.508e-05,0
0.8095,-2.1149e-05,0
0.81,2.5177e-06,0
0.8105,2.4002e-05,0
0.811,3.978e-05,0
0.8115,5.5894e-05,0
0.812,7.0664e-05,0
0.8125,7.6036e-05,0
0.813,7.1e-05,0
0.8135,6.63e-05,0
0.814,7.0664e-05,0
0.8145,7.8386e-05,0
0.815,7.8553e-05,0
0.8155,6.8315e-05,0
0.816,5.8747e-05,0
0.8165,5.153e-05,0
0.817,4.1795e-05,0
0.8175,3.2731e-05,0
0.818,2.8031e-05,0
0.8185,2.7695e-05,0
0.819,3.0381e-05,0
0.8195,3.2731e-05,0
0.82,3.0045e-05,0
0.8205,1.9806e-05,0
0.821,9.9031e-06,0
0.8215,7.0497e-06,0
0.822,5.539e-06,0
0.8225,2.8534e-06,0
0.823,1.8463e-06,0
0.8235,4.8676e-06,0
0.824,7.2175e-06,0
0.8245,9.5674e-06,0
0.825,1.0575e-05,0
0.8255,1.2924e-05,0
0.826,1.7121e-05,0
0.8265,2.9374e-05,0
0.827,4.2802e-05,0
0.8275,4.7837e-05,0
0.828,4.6159e-05,0
0.8285,4.5487e-05,0
0.829,4.7669e-05,0
0.8295,4.918e-05,0
0.83,4.448e-05,0
0.8305,3.6423e-05,0
0.831,2.7695e-05,0
0.8315,1.8128e-05,0
0.832,1.2589e-05,0
0.8325,1.4603e-05,0
0.833,1.6281e-05,0
0.8335,8.896e-06,0
0.834,6.714e-07,0
0.8345,-6.714e-07,0
0.835,-2.182e-06,0
0.8355,-3.357e-07,0
0.836,1.1917e-05,0
0.8365,2.6017e-05,0
0.837,3.2395e-05,0
0.8375,3.4745e-05,0
0.838,3.827e-05,0
0.8385,3.8102e-05,0
0.839,2.9374e-05,0
0.8395,1.9135e-05,0
0.84,6.2104e-06,0
0.8405,-8.896e-06,0
0.841,-2.1149e-05,0
0.8415,-2.8367e-05,0
0.842,-3.4073e-05,0
0.8425,-3.1052e-05,0
0.843,-1.7624e-05,0
0.8435,-2.3499e-06,0
0.844,1.5274e-05,0
0.8445,3.1388e-05,0
0.845,3.7095e-05,0
0.8455,3.3402e-05,0
0.846,2.3835e-05,0
0.8465,1.326e-05,0
0.847,9.0639e-06,0
0.8475,1.0575e-05,0
0.848,1.3596e-05,0
0.8485,1.7792e-05,0
0.849,2.182e-05,0
0.8495,2.182e-05,0
0.85,2.0478e-05,0
0.8505,2.4506e-05,0
0.851,3.508e-05,0
0.8515,4.5151e-05,0
0.852,4.9348e-05,0
0.8525,5.0187e-05,0
0.853,4.9515e-05,0
0.8535,4.683e-05,0
0.854,4.683e-05,0
0.8545,4.2802e-05,0
0.855,3.2731e-05,0
0.8555,2.0981e-05,0
0.856,1.5274e-05,0
0.8565,1.6785e-05,0
0.857,1.6953e-05,0
0.8575,1.4603e-05,0
0.858,1.7624e-05,0
0.8585,2.1653e-05,0
0.859,2.4674e-05,0
0.8595,1.8967e-05,0
0.86,5.0355e-06,0
0.8605,-1.0071e-05,0
0.861,-2.7359e-05,0
0.8615,-4.1962e-05,0
0.862,-4.5319e-05,0
0.8625,-3.7095e-05,0
0.863,-1.6281e-05,0
0.8635,7.8889e-06,0
0.864,2.3331e-05,0
0.8645,3.122e-05,0
0.865,3.4745e-05,0
0.8655,3.2059e-05,0
0.866,2.4506e-05,0
0.8665,1.9135e-05,0
0.867,2.1988e-05,0
0.8675,2.8702e-05,0
0.868,3.6088e-05,0
0.8685,4.1962e-05,0
0.869,4.4144e-05,0
0.8695,4.5319e-05,0
0.87,4.5151e-05,0
0.8705,3.8102e-05,0
0.871,2.7024e-05,0
0.8715,1.7288e-05,0
0.872,6.5461e-06,0
0.8725,-5.539e-06,0
0.873,-1.5778e-05,0
0.8735,-2.0478e-05,0
0.874,-1.9638e-05,0
0.8745,-1.4267e-05,0
0.875,-4.3641e-06,0
0.8755,7.2175e-06,0
0.876,1.3932e-05,0
0.8765,1.796e-05,0
0.877,2.1988e-05,0
0.8775,2.8367e-05,0
0.878,3.1724e-05,0
0.8785,2.3331e-05,0
0.879,1.1917e-05,0
0.8795,5.539e-06,0
0.88,6.5461e-06,0
0.8805,1.8967e-05,0
0.881,2.9206e-05,0
0.8815,2.8702e-05,0
0.882,2.3835e-05,0
0.8825,2.2995e-05,0
0.883,2.2995e-05,0
0.8835,2.0478e-05,0
0.884,1.9974e-05,0
0.8845,2.9374e-05,0
0.885,4.4816e-05,0
0.8855,4.8844e-05,0
0.886,4.0955e-05,0
0.8865,3.6423e-05,0
0.887,3.7766e-05,0
0.8875,4.1123e-05,0
0.888,4.683e-05,0
0.8885,5.0858e-05,0
0.889,5.0187e-05,0
0.8895,4.8005e-05,0
0.89,4.3473e-05,0
0.8905,3.6759e-05,0
0.891,2.9374e-05,0
0.8915,2.1317e-05,0
0.892,1.1917e-05,0
0.8925,5.539e-06,0
0.893,3.5248e-06,0
0.8935,6.2104e-06,0
0.894,1.091e-05,0
0.8945,1.3596e-05,0
0.895,1.3764e-05,0
0.8955,1.3932e-05,0
0.896,1.2924e-05,0
0.8965,9.0639e-06,0
0.897,3.5248e-06,0
0.8975,3.5248e-06,0
0.898,1.1246e-05,0
0.8985,2.182e-05,0
0.899,2.7359e-05,0
0.8995,2.7359e-05,0
0.9,2.3667e-05,0
0.9005,2.0646e-05,0
0.901,2.3331e-05,0
0.9015,2.8199e-05,0
0.902,2.8031e-05,0
0.9025,2.4338e-05,0
0.903,1.5946e-05,0
0.9035,3.357e-07,0
0.904,-1.4939e-05,0
0.9045,-2.3667e-05,0
0.905,-2.3835e-05,0
0.9055,-1.3764e-05,0
0.906,2.182e-06,0
0.9065,1.326e-05,0
0.907,1.3596e-05,0
0.9075,7.8889e-06,0
0.908,1.0407e-05,0
0.9085,2.3331e-05,0
0.909,3.2898e-05,0
0.9095,3.3738e-05,0
0.91,2.8702e-05,0
0.9105,2.2156e-05,0
0.911,1.8296e-05,0
0.9115,2.0646e-05,0
0.912,2.5345e-05,0
0.9125,2.8702e-05,0
0.913,2.5345e-05,0
0.9135,1.7456e-05,0
0.914,1.4603e-05,0
0.9145,1.7288e-05,0
0.915,2.3499e-05,0
0.9155,2.8367e-05,0
0.916,2.8534e-05,0
0.9165,2.6352e-05,0
0.917,2.0813e-05,0
0.9175,6.5461e-06,0
0.918,-6.3783e-06,0
0.9185,-8.7282e-06,0
0.919,-4.5319e-06,0
0.9195,8.392e-07,0
0.92,4.1962e-06,0
0.9205,4.5319e-06,0
0.921,5.539e-06,0
0.9215,9.2317e-06,0
0.922,1.6617e-05,0
0.9225,2.4002e-05,0
0.923,2.8031e-05,0
0.9235,2.1653e-05,0
0.924,7.5532e-06,0
0.9245,-4.1962e-06,0
0.925,1.678e-07,0
0.9255,2.266e-05,0
0.926,4.683e-05,0
0.9265,6.7643e-05,0
0.927,8.5771e-05,0
0.9275,9.3156e-05,0
0.928,9.0135e-05,0
0.9285,8.1743e-05,0
0.929,7.335e-05,0
0.9295,6.6972e-05,0
0.93,5.2872e-05,0
0.9305,2.6688e-05,0
0.931,-3.5248e-06,0
0.9315,-2.3667e-05,0
0.932,-2.9877e-05,0
0.9325,-2.6017e-05,0
0.933,-2.4002e-05,0
0.9335,-2.8534e-05,0
0.934,-3.3402e-05,0
0.9345,-3.508e-05,0
0.935,-3.0549e-05,0
0.9355,-2.1653e-05,0
0.936,-8.7282e-06,0
0.9365,8.2246e-06,0
0.937,2.3331e-05,0
0.9375,3.3906e-05,0
0.938,3.8773e-05,0
0.9385,4.1459e-05,0
0.939,4.3473e-05,0
0.9395,4.5151e-05,0
0.94,4.5487e-05,0
0.9405,4.1459e-05,0
0.941,3.2563e-05,0
0.9415,2.4506e-05,0
0.942,1.7624e-05,0
0.9425,1.4603e-05,0
0.943,1.8631e-05,0
0.9435,2.5345e-05,0
0.944,2.7024e-05,0
0.9445,2.6352e-05,0
0.945,2.9038e-05,0
0.9455,3.4745e-05,0
0.946,4.0787e-05,0
0.9465,4.2802e-05,0
0.947,4.0116e-05,0
0.9475,3.4577e-05,0
0.948,2.8702e-05,0
0.9485,1.7288e-05,0
0.949,-5.539e-06,0
0.9495,-3.2731e-05,0
0.95,-4.2466e-05,0
0.9505,-3.1891e-05,0
0.951,-1.5106e-05,0
0.9515,7.8889e-06,0
0.952,3.2731e-05,0
0.9525,4.7501e-05,0
0.953,5.069e-05,0
0.9535,4.5991e-05,0
0.954,3.6088e-05,0
0.9545,1.9974e-05,0
0.955,5.035e-07,0
0.9555,-8.5603e-06,0
0.956,-4.1962e-06,0
0.9565,1.6785e-06,0
0.957,5.8747e-06,0
0.9575,1.2253e-05,0
0.958,1.6953e-05,0
0.9585,1.5274e-05,0
0.959,9.2317e-06,0
0.9595,8.2246e-06,0
0.96,1.6449e-05,0
0.9605,3.0716e-05,0
0.961,4.4648e-05,0
0.9615,5.5558e-05,0
0.962,5.8915e-05,0
0.9625,5.6565e-05,0
0.963,5.1362e-05,0
0.9635,4.213e-05,0
0.964,3.0045e-05,0
0.9645,2.4002e-05,0
0.965,2.0646e-05,0
0.9655,1.2924e-05,0
0.966,5.035e-07,0
0.9665,-1.4435e-05,0
0.967,-2.6352e-05,0
0.9675,-2.652e-05,0
0.968,-1.9135e-05,0
0.9685,-1.1582e-05,0
0.969,-4.0284e-06,0
0.9695,6.0426e-06,0
0.97,1.8967e-05,0
0.9705,2.5345e-05,0
0.971,2.4506e-05,0
0.9715,2.5177e-05,0
0.972,2.8534e-05,0
0.9725,3.2059e-05,0
0.973,3.1388e-05,0
0.9735,2.4002e-05,0
0.974,1.1917e-05,0
0.9745,1.678e-07,0
0.975,-1.8463e-06,0
0.9755,7.0497e-06,0
0.976,1.6953e-05,0
0.9765,2.266e-05,0
0.977,2.4002e-05,0
0.9775,2.031e-05,0
0.978,1.1749e-05,0
0.9785,3.8605e-06,0
0.979,1.0407e-05,0
0.9795,2.8031e-05,0
0.98,4.4984e-05,0
0.9805,5.2537e-05,0
0.981,4.7333e-05,0
0.9815,3.8773e-05,0
0.982,3.9445e-05,0
0.9825,4.5487e-05,0
0.983,4.8173e-05,0
0.9835,4.5487e-05,0
0.984,4.0787e-05,0
0.9845,3.7095e-05,0
0.985,3.1891e-05,0
0.9855,2.2492e-05,0
0.986,1.2757e-05,0
0.9865,7.0497e-06,0
0.987,2.5177e-06,0
0.9875,-2.3499e-06,0
0.988,-6.714e-06,0
0.9885,-4.5319e-06,0
0.989,3.5248e-06,0
0.9895,1.2253e-05,0
0.99,2.0142e-05,0
0.9905,2.4674e-05,0
0.991,7.2175e-06,0
0.9915,-2.5345e-05,0
0.992,-3.508e-05,0
0.9925,-1.8463e-05,0
0.993,8.5603e-06,0
0.9935,3.3738e-05,0
0.994,4.7669e-05,0
0.9945,4.8508e-05,0
0.995,3.978e-05,0
0.9955,3.1052e-05,0
0.996,3.3738e-05,0
0.9965,4.4312e-05,0
0.997,5.4719e-05,0
0.9975,5.7069e-05,0
0.998,4.4648e-05,0
0.9985,2.0981e-05,0
0.999,2.5177e-06,0
0.9995,3.357e-07,0
1,8.2246e-06,0
1.0005,1.5442e-05,0
1.001,1.6449e-05,0
1.0015,1.6281e-05,0
1.002,1.6953e-05,0
1.0025,1.7792e-05,0
1.003,1.9974e-05,0
1.0035,2.4002e-05,0
1.004,2.652e-05,0
1.0045,2.7695e-05,0
1.005,2.6184e-05,0
1.0055,2.1317e-05,0
1.006,1.796e-05,0
1.0065,1.9135e-05,0
1.007,1.7624e-05,0
1.0075,1.2589e-05,0
1.008,1.1246e-05,0
1.0085,1.5106e-05,0
1.009,2.4002e-05,0
1.0095,2.9877e-05,0
1.01,2.8367e-05,0
1.0105,2.6184e-05,0
1.011,2.266e-05,0
1.0115,1.326e-05,0
1.012,3.1891e-06,0
1.0125,-3.1891e-06,0
1.013,-4.5319e-06,0
1.0135,-1.678e-07,0
1.014,2.3499e-06,0
1.0145,5.539e-06,0
1.015,1.6281e-05,0
1.0155,2.9542e-05,0
1.016,3.743e-05,0
1.0165,3.9948e-05,0
1.017,4.213e-05,0
1.0175,4.7501e-05,0
1.018,5.4048e-05,0
1.0185,5.8747e-05,0
1.019,6.0929e-05,0
1.0195,5.8244e-05,0
1.02,4.8508e-05,0
1.0205,3.592e-05,0
1.021,2.2995e-05,0
1.0215,8.7282e-06,0
1.022,-7.8889e-06,0
1.0225,-2.4506e-05,0
1.023,-4.0787e-05,0
1.0235,-5.7237e-05,0
1.024,-7.4693e-05,0
1.0245,-7.7043e-05,0
1.025,-5.9419e-05,0
1.0255,-4.1123e-05,0
1.026,-3.2731e-05,0
1.0265,-2.6352e-05,0
1.027,-1.3764e-05,0
1.0275,2.5177e-06,0
1.028,1.326e-05,0
1.0285,1.7121e-05,0
1.029,2.4002e-05,0
1.0295,3.4073e-05,0
1.03,3.8437e-05,0
1.0305,3.4073e-05,0
1.031,2.6352e-05,0
1.0315,2.0478e-05,0
1.032,2.0981e-05,0
1.0325,2.9709e-05,0
1.033,4.1123e-05,0
1.0335,4.9348e-05,0
1.034,5.1194e-05,0
1.0345,4.213e-05,0
1.035,3.0716e-05,0
1.0355,2.8031e-05,0
1.036,2.8367e-05,0
1.0365,2.5681e-05,0
1.037,2.4674e-05,0
1.0375,2.8534e-05,0
1.038,3.0884e-05,0
1.0385,2.9709e-05,0
1.039,3.1388e-05,0
1.0395,3.8773e-05,0
1.04,4.918e-05,0
1.0405,5.8076e-05,0
1.041,6.1601e-05,0
1.0415,6.0594e-05,0
1.042,5.6901e-05,0
1.0425,5.2872e-05,0
1.043,4.1459e-05,0
1.0435,2.1317e-05,0
1.044,6.714e-07,0
1.0445,-1.5274e-05,0
1.045,-2.266e-05,0
1.0455,-2.2492e-05,0
1.046,-2.2492e-05,0
1.0465,-2.0981e-05,0
1.047,-1.1749e-05,0
1.0475,4.1962e-06,0
1.048,1.7792e-05,0
1.0485,2.266e-05,0
1.049,2.2492e-05,0
1.0495,2.3331e-05,0
1.05,2.4506e-05,0
1.0505,2.2995e-05,0
1.051,1.9638e-05,0
1.0515,1.561e-05,0
1.052,1.8296e-05,0
1.0525,2.5345e-05,0
1.053,2.9038e-05,0
1.0535,2.3163e-05,0
1.054,1.6449e-05,0
1.0545,1.6953e-05,0
1.055,2.2828e-05,0
1.0555,3.0716e-05,0
1.056,3.4577e-05,0
1.0565,3.8102e-05,0
1.057,4.2802e-05,0
1.0575,4.2802e-05,0
1.058,4.1291e-05,0
1.0585,4.5151e-05,0
1.059,4.9683e-05,0
1.0595,4.9515e-05,0
1.06,4.4816e-05,0
1.0605,3.3906e-05,0
1.061,1.9638e-05,0
1.0615,6.8818e-06,0
1.062,3.5248e-06,0
1.0625,1.0071e-05,0
1.063,1.8296e-05,0
1.0635,2.2995e-05,0
1.064,2.4002e-05,0
1.0645,2.5345e-05,0
1.065,2.7527e-05,0
1.0655,3.592e-05,0
1.066,5.0523e-05,0
1.0665,6.1265e-05,0
1.067,6.0258e-05,0
1.0675,4.7837e-05,0
1.068,2.8534e-05,0
1.0685,1.0575e-05,0
1.069,-7.7211e-06,0
1.0695,-2.4506e-05,0
1.07,-3.4409e-05,0
1.0705,-4.448e-05,0
1.071,-5.2872e-05,0
1.0715,-5.8244e-05,0
1.072,-6.0761e-05,0
1.0725,-5.2201e-05,0
1.073,-3.1724e-05,0
1.0735,-1.2589e-05,0
1.074,-1.5106e-06,0
1.0745,7.8889e-06,0
1.075,1.8967e-05,0
1.0755,2.6184e-05,0
1.076,2.7863e-05,0
1.0765,2.8534e-05,0
1.077,3.1891e-05,0
1.0775,3.7095e-05,0
1.078,4.2298e-05,0
1.0785,4.4648e-05,0
1.079,4.3809e-05,0
1.0795,4.4144e-05,0
1.08,4.8844e-05,0
1.0805,5.0187e-05,0
1.081,4.3809e-05,0
1.0815,3.978e-05,0
1.082,3.9948e-05,0
1.0825,3.1891e-05,0
1.083,1.3092e-05,0
1.0835,-8.2246e-06,0
1.084,-1.9303e-05,0
1.0845,-2.0981e-05,0
1.085,-2.9038e-05,0
1.0855,-3.3066e-05,0
1.086,-2.0981e-05,0
1.0865,1.678e-07,0
1.087,2.0646e-05,0
1.0875,3.5752e-05,0
1.088,4.3977e-05,0
1.0885,4.9851e-05,0
1.089,6.2608e-05,0
1.0895,8.2246e-05,0
1.09,9.2149e-05,0
1.0905,8.7114e-05,0
1.091,8.0735e-05,0
1.0915,8.275e-05,0
1.092,8.3085e-05,0
1.0925,7.3014e-05,0
1.093,5.5222e-05,0
1.0935,4.2802e-05,0
1.094,3.6759e-05,0
1.0945,2.5849e-05,0
1.095,-1.3428e-06,0
1.0955,-3.7766e-05,0
1.096,-6.7308e-05,0
1.0965,-8.6107e-05,0
1.097,-9.5506e-05,0
1.0975,-9.0639e-05,0
1.098,-7.6707e-05,0
1.0985,-5.6901e-05,0
1.099,-3.3738e-05,0
1.0995,-1.2253e-05,0
1.1,1.5106e-06,0
1.1005,8.0568e-06,0
1.101,1.4603e-05,0
1.1015,2.3835e-05,0
1.102,3.1724e-05,0
1.1025,3.9109e-05,0
1.103,5.0523e-05,0
1.1035,6.0761e-05,0
1.104,6.2608e-05,0
1.1045,5.5222e-05,0
1.105,4.6159e-05,0
1.1055,4.213e-05,0
1.106,4.1123e-05,0
1.1065,4.2466e-05,0
1.107,4.2802e-05,0
1.1075,3.2731e-05,0
1.108,1.0575e-05,0
1.1085,-7.2175e-06,0
1.109,-1.5274e-05,0
1.1095,-2.031e-05,0
1.11,-2.1653e-05,0
1.1105,-1.326e-05,0
1.111,-2.0142e-06,0
1.1115,7.0497e-06,0
1.112,1.6617e-05,0
1.1125,3.0716e-05,0
1.113,4.5991e-05,0
1.1135,5.7404e-05,0
1.114,5.9754e-05,0
1.1145,5.0523e-05,0
1.115,3.1052e-05,0
1.1155,7.2175e-06,0
1.116,-1.6449e-05,0
1.1165,-2.6017e-05,0
1.117,-1.5946e-05,0
1.1175,-1.1749e-06,0
1.118,9.2317e-06,0
1.1185,1.6449e-05,0
1.119,2.3331e-05,0
1.1195,3.1388e-05,0
1.12,3.6255e-05,0
1.1205,3.8102e-05,0
1.121,3.0716e-05,0
1.1215,1.947e-05,0
1.122,1.8296e-05,0
1.1225,3.0045e-05,0
1.123,4.213e-05,0
1.1235,4.6494e-05,0
1.124,4.6998e-05,0
1.1245,5.0523e-05,0
1.125,5.6565e-05,0
1.1255,5.8076e-05,0
1.126,5.1194e-05,0
1.1265,4.3641e-05,0
1.127,4.2802e-05,0
1.1275,4.5151e-05,0
1.128,4.3473e-05,0
1.1285,3.3402e-05,0
1.129,2.1988e-05,0
1.1295,1.6617e-05,0
1.13,1.5274e-05,0
1.1305,9.7353e-06,0
1.131,1.5106e-06,0
1.1315,-2.5177e-06,0
1.132,1.678e-07,0
1.1325,6.2104e-06,0
1.133,9.7353e-06,0
1.1335,7.2175e-06,0
1.134,3.8605e-06,0
1.1345,8.2246e-06,0
1.135,1.9303e-05,0
1.1355,2.9374e-05,0
1.136,3.9277e-05,0
1.1365,5.153e-05,0
1.137,5.5894e-05,0
1.1375,4.5151e-05,0
1.138,2.8367e-05,0
1.1385,1.6617e-05,0
1.139,1.5442e-05,0
1.1395,2.2324e-05,0
1.14,2.5009e-05,0
1.1405,1.5274e-05,0
1.141,0,0
1.1415,-1.0239e-05,0
1.142,-7.8889e-06,0
1.1425,1.678e-07,0
1.143,5.2033e-06,0
1.1435,7.2175e-06,0
1.144,1.1917e-05,0
1.1445,1.561e-05,0
1.145,7.2175e-06,0
1.1455,2.8534e-06,0
1.146,1.796e-05,0
1.1465,4.0284e-05,0
1.147,5.5222e-05,0
1.1475,5.9922e-05,0
1.148,5.6901e-05,0
1.1485,4.3641e-05,0
1.149,2.5681e-05,0
1.1495,1.4267e-05,0
1.15,3.5248e-06,0
1.1505,-1.0407e-05,0
1.151,-2.182e-05,0
1.1515,-2.9038e-05,0
1.152,-3.592e-05,0
1.1525,-3.8605e-05,0
1.153,-2.3163e-05,0
1.1535,4.3641e-06,0
1.154,2.8367e-05,0
1.1545,4.2802e-05,0
1.155,4.7837e-05,0
1.1555,3.8773e-05,0
1.156,2.5177e-05,0
1.1565,1.6617e-05,0
1.157,1.2253e-05,0
1.1575,1.0239e-05,0
1.158,4.5319e-06,0
1.1585,-7.5532e-06,0
1.159,-1.9303e-05,0
1.1595,-2.3835e-05,0
1.16,-2.6688e-05,0
1.1605,-3.0381e-05,0
1.161,-2.3331e-05,0
1.1615,-7.0497e-06,0
1.162,5.2033e-06,0
1.1625,1.0575e-05,0
1.163,1.3764e-05,0
1.1635,1.7624e-05,0
1.164,2.4506e-05,0
1.1645,2.4674e-05,0
1.165,1.5946e-05,0
1.1655,6.3783e-06,0
1.166,4.3641e-06,0
1.1665,1.326e-05,0
1.167,2.887e-05,0
1.1675,4.3137e-05,0
1.168,5.153e-05,0
1.1685,5.3544e-05,0
1.169,5.1026e-05,0
1.1695,4.7669e-05,0
1.17,4.8844e-05,0
1.1705,5.388e-05,0
1.171,5.8579e-05,0
1.1715,5.2033e-05,0
1.172,3.5584e-05,0
1.1725,2.031e-05,0
1.173,8.2246e-06,0
1.1735,-1.678e-07,0
1.174,-4.8676e-06,0
1.1745,-3.8605e-06,0
1.175,3.5248e-06,0
1.1755,1.6617e-05,0
1.176,2.5009e-05,0
1.1765,2.652e-05,0
1.177,2.6688e-05,0
1.1775,2.9038e-05,0
1.178,2.9038e-05,0
1.1785,2.7359e-05,0
1.179,3.1724e-05,0
1.1795,3.6591e-05,0
1.18,3.4073e-05,0
1.1805,3.122e-05,0
1.181,3.5752e-05,0
1.1815,4.3809e-05,0
1.182,4.6159e-05,0
1.1825,4.2802e-05,0
1.183,3.8437e-05,0
1.1835,3.1891e-05,0
1.184,2.266e-05,0
1.1845,1.561e-05,0
1.185,1.326e-05,0
1.1855,1.6617e-05,0
1.186,1.947e-05,0
1.1865,1.3932e-05,0
1.187,5.539e-06,0
1.1875,-1.3428e-06,0
1.188,-4.3641e-06,0
1.1885,-5.2033e-06,0
1.189,-2.8534e-06,0
1.1895,4.6998e-06,0
1.19,7.5532e-06,0
1.1905,-9.2317e-06,0
1.191,-3.5416e-05,0
1.1915,-4.7837e-05,0
1.192,-3.6591e-05,0
1.1925,-7.8889e-06,0
1.193,2.8031e-05,0
1.1935,6.1601e-05,0
1.194,8.3085e-05,0
1.1945,8.51e-05,0
1.195,7.4525e-05,0
1.1955,6.2944e-05,0
1.196,5.4887e-05,0
1.1965,4.4816e-05,0
1.197,2.6352e-05,0
1.1975,3.5248e-06,0
1.198,-5.8747e-06,0
1.1985,4.3641e-06,0
1.199,1.9303e-05,0
1.1995,2.4674e-05,0
1.2,2.5513e-05,0
1.2005,2.6017e-05,0
1.201,2.5009e-05,0
1.2015,2.3835e-05,0
1.202,2.1988e-05,0
1.2025,2.0646e-05,0
1.203,2.2156e-05,0
1.2035,2.4674e-05,0
1.204,3.0381e-05,0
1.2045,3.4745e-05,0
1.205,3.4745e-05,0
1.2055,3.4073e-05,0
1.206,3.4577e-05,0
1.2065,3.4745e-05,0
1.207,3.1891e-05,0
1.2075,2.6352e-05,0
1.208,2.266e-05,0
1.2085,1.9303e-05,0
1.209,1.2253e-05,0
1.2095,3.0213e-06,0
1.21,-2.0142e-06,0
1.2105,-4.5319e-06,0
1.211,-8.0568e-06,0
1.2115,-9.9031e-06,0
1.212,-8.3925e-06,0
1.2125,-1.1749e-06,0
1.213,7.2175e-06,0
1.2135,7.2175e-06,0
1.214,1.678e-07,0
1.2145,-1.1749e-06,0
1.215,3.1891e-06,0
1.2155,9.0639e-06,0
1.216,1.326e-05,0
1.2165,1.0239e-05,0
1.217,3.6927e-06,0
1.2175,2.8534e-06,0
1.218,1.1582e-05,0
1.2185,2.6017e-05,0
1.219,3.6255e-05,0
1.2195,4.0787e-05,0
1.22,4.0116e-05,0
1.2205,3.1052e-05,0
1.221,1.5946e-05,0
1.2215,2.5177e-06,0
1.222,5.035e-07,0
1.2225,9.5674e-06,0
1.223,1.9303e-05,0
1.2235,2.1988e-05,0
1.224,1.8463e-05,0
1.2245,1.8631e-05,0
1.225,2.417e-05,0
1.2255,3.1556e-05,0
1.226,3.978e-05,0
1.2265,4.4984e-05,0
1.227,4.0619e-05,0
1.2275,2.8031e-05,0
1.228,1.0575e-05,0
1.2285,-5.8747e-06,0
1.229,-9.0639e-06,0
1.2295,5.0355e-06,0
1.23,1.7288e-05,0
1.2305,1.5778e-05,0
1.231,1.2253e-05,0
1.2315,1.4267e-05,0
1.232,1.8631e-05,0
1.2325,2.0646e-05,0
1.233,2.5009e-05,0
1.2335,3.4409e-05,0
1.234,4.448e-05,0
1.2345,5.2033e-05,0
1.235,5.069e-05,0
1.2355,4.3137e-05,0
1.236,3.7095e-05,0
1.2365,3.5752e-05,0
1.237,3.8437e-05,0
1.2375,4.1123e-05,0
1.238,3.2059e-05,0
1.2385,1.8967e-05,0
1.239,1.2589e-05,0
1.2395,6.8818e-06,0
1.24,-9.9031e-06,0
1.2405,-2.8367e-05,0
1.241,-3.4409e-05,0
1.2415,-2.9877e-05,0
1.242,-2.6184e-05,0
1.2425,-2.4002e-05,0
1.243,-1.8296e-05,0
1.2435,-1.0071e-05,0
1.244,-2.6856e-06,0
1.2445,1.678e-07,0
1.245,2.5177e-06,0
1.2455,1.2924e-05,0
1.246,2.6352e-05,0
1.2465,3.4073e-05,0
1.247,3.2059e-05,0
1.2475,2.266e-05,0
1.248,9.9031e-06,0
1.2485,3.6927e-06,0
1.249,1.0071e-05,0
1.2495,1.8967e-05,0
1.25,2.4674e-05,0
1.2505,2.9374e-05,0
1.251,3.1388e-05,0
1.2515,3.0381e-05,0
1.252,3.1891e-05,0
1.2525,3.8437e-05,0
1.253,5.0019e-05,0
1.2535,6.0258e-05,0
1.254,6.009e-05,0
1.2545,4.3809e-05,0
1.255,1.1749e-05,0
1.2555,-2.8031e-05,0
1.256,-5.4215e-05,0
1.2565,-5.2033e-05,0
1.257,-2.9709e-05,0
1.2575,-4.1962e-06,0
1.258,1.2589e-05,0
1.2585,1.5946e-05,0
1.259,9.2317e-06,0
1.2595,5.2033e-06,0
1.26,1.1414e-05,0
1.2605,2.0478e-05,0
1.261,1.9638e-05,0
1.2615,1.6617e-05,0
1.262,2.5345e-05,0
1.2625,4.4816e-05,0
1.263,6.2104e-05,0
1.2635,6.9657e-05,0
1.264,6.8147e-05,0
1.2645,6.6804e-05,0
1.265,6.6972e-05,0
1.2655,5.8747e-05,0
1.266,4.0787e-05,0
1.2665,2.5177e-05,0
1.267,1.6953e-05,0
1.2675,1.9303e-05,0
1.268,2.8534e-05,0
1.2685,3.5584e-05,0
1.269,3.5752e-05,0
1.2695,3.0549e-05,0
1.27,2.2995e-05,0
1.2705,1.6953e-05,0
1.271,1.5778e-05,0
1.2715,1.7624e-05,0
1.272,1.947e-05,0
1.2725,1.9974e-05,0
1.273,2.2324e-05,0
1.2735,2.4506e-05,0
1.274,2.4506e-05,0
1.2745,2.2995e-05,0
1.275,2.4674e-05,0
1.2755,2.8367e-05,0
1.276,3.0213e-05,0
1.2765,3.3066e-05,0
1.277,3.4577e-05,0
1.2775,3.3906e-05,0
1.278,3.3066e-05,0
1.2785,2.5681e-05,0
1.279,1.4603e-05,0
1.2795,1.1582e-05,0
1.28,1.3092e-05,0
1.2805,1.4267e-05,0
1.281,1.6281e-05,0
1.2815,1.8967e-05,0
1.282,2.2995e-05,0
1.2825,2.6688e-05,0
1.283,2.5345e-05,0
1.2835,1.8463e-05,0
1.284,6.0426e-06,0
1.2845,-8.2246e-06,0
1.285,-1.8463e-05,0
1.2855,-2.4674e-05,0
1.286,-2.3835e-05,0
1.2865,-1.5274e-05,0
1.287,-5.2033e-06,0
1.2875,-1.0071e-06,0
1.288,1.0071e-06,0
1.2885,6.5461e-06,0
1.289,1.2924e-05,0
1.2895,1.7121e-05,0
1.29,1.9806e-05,0
1.2905,2.7024e-05,0
1.291,3.1388e-05,0
1.2915,2.4506e-05,0
1.292,1.5106e-05,0
1.2925,1.326e-05,0
1.293,1.326e-05,0
1.2935,1.2253e-05,0
1.294,1.4603e-05,0
1.2945,1.9303e-05,0
1.295,1.9974e-05,0
1.2955,1.2421e-05,0
1.296,4.1962e-06,0
1.2965,9.0639e-06,0
1.297,2.7192e-05,0
1.2975,4.683e-05,0
1.298,5.4551e-05,0
1.2985,5.0187e-05,0
1.299,4.0452e-05,0
1.2995,2.8031e-05,0
1.3,1.7792e-05,0
1.3005,1.2589e-05,0
1.301,1.2253e-05,0
1.3015,1.4267e-05,0
1.302,1.3932e-05,0
1.3025,6.0426e-06,0
1.303,-4.1962e-06,0
1.3035,-4.5319e-06,0
1.304,2.8534e-06,0
1.3045,1.1246e-05,0
1.305,2.0981e-05,0
1.3055,3.508e-05,0
1.306,3.9445e-05,0
1.3065,3.0045e-05,0
1.307,2.1653e-05,0
1.3075,1.5946e-05,0
1.308,1.2924e-05,0
1.3085,1.5946e-05,0
1.309,2.6017e-05,0
1.3095,3.6759e-05,0
1.31,4.0452e-05,0
1.3105,3.5752e-05,0
1.311,3.0716e-05,0
1.3115,3.4409e-05,0
1.312,3.8437e-05,0
1.3125,3.4745e-05,0
1.313,2.6352e-05,0
1.3135,2.0981e-05,0
1.314,1.4939e-05,0
1.3145,-1.5106e-06,0
1.315,-2.6688e-05,0
1.3155,-4.0955e-05,0
1.316,-2.887e-05,0
1.3165,-4.1962e-06,0
1.317,1.2589e-05,0
1.3175,1.4267e-05,0
1.318,9.9031e-06,0
1.3185,9.7353e-06,0
1.319,1.0575e-05,0
1.3195,1.678e-07,0
1.32,-1.7456e-05,0
1.3205,-2.8534e-05,0
1.321,-2.5345e-05,0
1.3215,-5.7069e-06,0
1.322,1.947e-05,0
1.3225,3.4073e-05,0
1.323,4.0787e-05,0
1.3235,4.5151e-05,0
1.324,4.8173e-05,0
1.3245,5.4719e-05,0
1.325,5.9419e-05,0
1.3255,5.3544e-05,0
1.326,4.0452e-05,0
1.3265,2.8367e-05,0
1.327,7.3854e-06,0
1.3275,-1.8296e-05,0
1.328,-3.2227e-05,0
1.3285,-2.652e-05,0
1.329,-9.0639e-06,0
1.3295,9.9031e-06,0
1.33,2.3835e-05,0
1.3305,2.3163e-05,0
1.331,1.2421e-05,0
1.3315,1.0071e-05,0
1.332,1.7624e-05,0
1.3325,2.7863e-05,0
1.333,4.0787e-05,0
1.3335,6.1936e-05,0
1.334,8.3085e-05,0
1.3345,9.7353e-05,0
1.335,0.00010155,0
1.3355,9.4499e-05,0
1.336,8.5603e-05,0
1.3365,8.3085e-05,0
1.337,8.1743e-05,0
1.3375,7.4861e-05,0
1.338,6.1265e-05,0
1.3385,4.1123e-05,0
1.339,1.5778e-05,0
1.3395,-9.9031e-06,0
1.34,-3.5416e-05,0
1.3405,-5.7572e-05,0
1.341,-7.0664e-05,0
1.3415,-7.0329e-05,0
1.342,-6.2944e-05,0
1.3425,-4.8508e-05,0
1.343,-2.5009e-05,0
1.3435,-1.8463e-06,0
1.344,1.1917e-05,0
1.3445,1.7288e-05,0
1.345,1.8296e-05,0
1.3455,2.1317e-05,0
1.346,2.7359e-05,0
1.3465,2.9709e-05,0
1.347,2.3163e-05,0
1.3475,1.1246e-05,0
1.348,4.5319e-06,0
1.3485,4.5319e-06,0
1.349,3.1891e-06,0
1.3495,-3.357e-07,0
1.35,-1.0071e-06,0
1.3505,9.2317e-06,0
1.351,3.6423e-05,0
1.3515,6.7308e-05,0
1.352,8.4428e-05,0
1.3525,8.275e-05,0
1.353,6.9154e-05,0
1.3535,5.5558e-05,0
1.354,4.7837e-05,0
1.3545,4.1962e-05,0
1.355,2.8702e-05,0
1.3555,5.0355e-06,0
1.356,-1.6953e-05,0
1.3565,-2.9542e-05,0
1.357,-3.8437e-05,0
1.3575,-4.0787e-05,0
1.358,-3.0381e-05,0
1.3585,-1.3764e-05,0
1.359,-3.357e-07,0
1.3595,4.1962e-06,0
1.36,-3.357e-07,0
1.3605,-9.3996e-06,0
1.361,-1.5946e-05,0
1.3615,-1.4939e-05,0
1.362,-3.0213e-06,0
1.3625,1.5778e-05,0
1.363,2.7192e-05,0
1.3635,2.3667e-05,0
1.364,1.9303e-05,0
1.3645,2.5009e-05,0
1.365,3.1388e-05,0
1.3655,3.3738e-05,0
1.366,4.1123e-05,0
1.3665,4.9515e-05,0
1.367,4.5991e-05,0
1.3675,3.7766e-05,0
1.368,3.9445e-05,0
1.3685,4.8173e-05,0
1.369,5.6062e-05,0
1.3695,6.4286e-05,0
1.37,7.3182e-05,0
1.3705,7.7211e-05,0
1.371,6.5629e-05,0
1.3715,4.5487e-05,0
1.372,3.0716e-05,0
1.3725,2.0981e-05,0
1.373,9.2317e-06,0
1.3735,-8.2246e-06,0
1.374,-2.3499e-05,0
1.3745,-2.9038e-05,0
1.375,-1.947e-05,0
1.3755,-3.5248e-06,0
1.376,1.1749e-06,0
1.3765,-9.5674e-06,0
1.377,-1.4939e-05,0
1.3775,-5.539e-06,0
1.378,1.1917e-05,0
1.3785,2.6688e-05,0
1.379,3.2059e-05,0
1.3795,3.2059e-05,0
1.38,3.4241e-05,0
1.3805,4.4816e-05,0
1.381,5.8244e-05,0
1.3815,6.3615e-05,0
1.382,6.2104e-05,0
1.3825,6.2272e-05,0
1.383,6.1936e-05,0
1.3835,5.8244e-05,0
1.384,5.1698e-05,0
1.3845,4.4144e-05,0
1.385,3.5248e-05,0
1.3855,2.8702e-05,0
1.386,1.7624e-05,0
1.3865,-1.3428e-06,0
1.387,-1.8296e-05,0
1.3875,-2.3163e-05,0
1.388,-2.5009e-05,0
1.3885,-4.0787e-05,0
1.389,-6.479e-05,0
1.3895,-7.7714e-05,0
1.39,-7.0832e-05,0
1.3905,-4.8844e-05,0
1.391,-2.031e-05,0
1.3915,8.5603e-06,0
1.392,3.3402e-05,0
1.3925,5.3544e-05,0
1.393,7.5029e-05,0
1.3935,9.4835e-05,0
1.394,9.8695e-05,0
1.3945,8.1407e-05,0
1.395,5.5222e-05,0
1.3955,3.4073e-05,0
1.396,2.8702e-05,0
1.3965,4.1459e-05,0
1.397,5.1865e-05,0
1.3975,4.8844e-05,0
1.398,3.2898e-05,0
1.3985,1.3764e-05,0
1.399,2.182e-06,0
1.3995,-9.0639e-06,0
1.4,-2.2324e-05,0
1.4005,-2.7695e-05,0
1.401,-1.8463e-05,0
1.4015,4.8676e-06,0
1.402,3.0549e-05,0
1.4025,5.2201e-05,0
1.403,6.6804e-05,0
1.4035,7.1e-05,0
1.404,6.6972e-05,0
1.4045,5.1865e-05,0
1.405,2.7192e-05,0
1.4055,2.8534e-06,0
1.406,-9.5674e-06,0
1.4065,-6.3783e-06,0
1.407,1.8463e-06,0
1.4075,-1.3428e-06,0
1.408,-1.6281e-05,0
1.4085,-2.6352e-05,0
1.409,-2.2156e-05,0
1.4095,-8.7282e-06,0
1.41,8.896e-06,0
1.4105,2.9709e-05,0
1.411,4.8005e-05,0
1.4115,5.6901e-05,0
1.412,5.4048e-05,0
1.4125,3.743e-05,0
1.413,1.0575e-05,0
1.4135,-2.1317e-05,0
1.414,-4.3137e-05,0
1.4145,-4.5151e-05,0
1.415,-3.0045e-05,0
1.4155,-1.3092e-05,0
1.416,-9.3996e-06,0
1.4165,-1.5274e-05,0
1.417,-2.2324e-05,0
1.4175,-3.4073e-05,0
1.418,-5.0187e-05,0
1.4185,-5.3208e-05,0
1.419,-3.6423e-05,0
1.4195,-9.3996e-06,0
1.42,1.3596e-05,0
1.4205,2.3499e-05,0
1.421,3.1556e-05,0
1.4215,4.9515e-05,0
1.422,6.9322e-05,0
1.4225,7.9225e-05,0
1.423,7.57e-05,0
1.4235,6.9322e-05,0
1.424,7.1504e-05,0
1.4245,7.1336e-05,0
1.425,5.8915e-05,0
1.4255,4.4816e-05,0
1.426,3.3402e-05,0
1.4265,1.8463e-05,0
1.427,8.5603e-06,0
1.4275,7.7211e-06,0
1.428,1.0239e-05,0
1.4285,1.2421e-05,0
1.429,1.6785e-05,0
1.4295,1.6617e-05,0
1.43,6.8818e-06,0
1.4305,-4.8676e-06,0
1.431,-1.2253e-05,0
1.4315,-1.3596e-05,0
1.432,-3.8605e-06,0
1.4325,1.326e-05,0
1.433,2.4338e-05,0
1.4335,2.266e-05,0
1.434,2.031e-05,0
1.4345,1.8631e-05,0
1.435,1.2421e-05,0
1.4355,4.8676e-06,0
1.436,6.8818e-06,0
1.4365,1.9974e-05,0
1.437,3.3402e-05,0
1.4375,4.1459e-05,0
1.438,3.978e-05,0
1.4385,2.7863e-05,0
1.439,2.6017e-05,0
1.4395,3.6759e-05,0
1.44,5.1698e-05,0
1.4405,6.7643e-05,0
1.441,8.8121e-05,0
1.4415,0.00012085,0
1.442,0.00015694,0
1.4425,0.00016735,0
1.443,0.00014553,0
1.4435,0.00011397,0
1.444,9.3156e-05,0
1.4445,7.9728e-05,0
1.445,6.63e-05,0
1.4455,4.2466e-05,0
1.446,1.2085e-05,0
1.4465,-7.2175e-06,0
1.447,-1.4603e-05,0
1.4475,-3.0716e-05,0
1.448,-6.1433e-05,0
1.4485,-8.5603e-05,0
1.449,-8.9128e-05,0
1.4495,-7.8721e-05,0
1.45,-7.5868e-05,0
1.4505,-8.745e-05,0
1.451,-9.9031e-05,0
1.4515,-9.2653e-05,0
1.452,-7.1336e-05,0
1.4525,-4.9515e-05,0
1.453,-3.1052e-05,0
1.4535,-1.8631e-05,0
1.454,-7.2175e-06,0
1.4545,1.3092e-05,0
1.455,3.1388e-05,0
1.4555,2.3499e-05,0
1.456,-8.2246e-06,0
1.4565,-3.7766e-05,0
1.457,-4.4816e-05,0
1.4575,-3.2898e-05,0
1.458,-1.8296e-05,0
1.4585,1.1749e-06,0
1.459,1.796e-05,0
1.4595,1.8967e-05,0
1.46,6.8818e-06,0
1.4605,4.5319e-06,0
1.461,2.7192e-05,0
1.4615,5.8915e-05,0
1.462,8.04e-05,0
1.4625,9.3492e-05,0
1.463,0.00010239,0
1.4635,9.9702e-05,0
1.464,9.0135e-05,0
1.4645,9.1142e-05,0
1.465,0.00010507,0
1.4655,0.00011901,0
1.466,0.00013008,0
1.4665,0.00013478,0
1.467,0.00011582,0
1.4675,7.9057e-05,0
1.468,3.3738e-05,0
1.4685,-1.3932e-05,0
1.469,-3.1052e-05,0
1.4695,-1.561e-05,0
1.47,-1.678e-07,0
1.4705,-1.091e-05,0
1.471,-3.2898e-05,0
1.4715,-3.2395e-05,0
1.472,-8.5603e-06,0
1.4725,1.947e-05,0
1.473,3.8773e-05,0
1.4735,4.3809e-05,0
1.474,4.3305e-05,0
1.4745,5.0187e-05,0
1.475,5.2537e-05,0
1.4755,3.8773e-05,0
1.476,1.9974e-05,0
1.4765,9.0639e-06,0
1.477,8.2246e-06,0
1.4775,1.4435e-05,0
1.478,1.796e-05,0
1.4785,1.6449e-05,0
1.479,1.2924e-05,0
1.4795,1.4939e-05,0
1.48,2.031e-05,0
1.4805,2.4002e-05,0
1.481,1.947e-05,0
1.4815,1.2253e-05,0
1.482,1.4267e-05,0
1.4825,1.4267e-05,0
1.483,1.2757e-05,0
1.4835,1.6785e-05,0
1.484,2.6184e-05,0
1.4845,3.3066e-05,0
1.485,2.6688e-05,0
1.4855,1.4939e-05,0
1.486,3.8605e-06,0
1.4865,-9.5674e-06,0
1.487,-2.3667e-05,0
1.4875,-3.7766e-05,0
1.488,-5.539e-05,0
1.4885,-6.6636e-05,0
1.489,-6.3279e-05,0
1.4895,-5.1698e-05,0
1.49,-4.213e-05,0
1.4905,-3.2898e-05,0
1.491,-1.091e-05,0
1.4915,1.7121e-05,0
1.492,3.1891e-05,0
1.4925,3.3066e-05,0
1.493,4.1795e-05,0
1.4935,6.1769e-05,0
1.494,7.805e-05,0
1.4945,8.0735e-05,0
1.495,7.4021e-05,0
1.4955,6.0258e-05,0
1.496,4.1291e-05,0
1.4965,1.8631e-05,0
1.497,-1.5274e-05,0
1.4975,-5.3376e-05,0
1.498,-8.1071e-05,0
1.4985,-8.745e-05,0
1.499,-6.6804e-05,0
1.4995,-2.6352e-05,0
1.5,1.1582e-05,0
1.5005,3.9445e-05,0
1.501,5.4887e-05,0
1.5015,6.3615e-05,0
1.502,7.0161e-05,0
1.5025,7.0329e-05,0
1.503,6.3951e-05,0
1.5035,5.4551e-05,0
1.504,4.5991e-05,0
1.5045,3.1388e-05,0
1.505,4.5319e-06,0
1.5055,-2.3499e-05,0
1.506,-3.8437e-05,0
1.5065,-3.2898e-05,0
1.507,-8.5603e-06,0
1.5075,2.1988e-05,0
1.508,4.5151e-05,0
1.5085,5.4719e-05,0
1.509,5.4048e-05,0
1.5095,4.8844e-05,0
1.51,4.2298e-05,0
1.5105,4.448e-05,0
1.511,3.592e-05,0
1.5115,-1.1749e-06,0
1.512,-4.0452e-05,0
1.5125,-5.9251e-05,0
1.513,-4.6494e-05,0
1.5135,-1.2589e-05,0
1.514,1.5946e-05,0
1.5145,3.357e-05,0
1.515,4.1962e-05,0
1.5155,4.2634e-05,0
1.516,4.3809e-05,0
1.5165,5.4551e-05,0
1.517,6.7979e-05,0
1.5175,7.4861e-05,0
1.518,7.5364e-05,0
1.5185,7.7043e-05,0
1.519,7.4021e-05,0
1.5195,6.0594e-05,0
1.52,4.2802e-05,0
1.5205,3.1052e-05,0
1.521,3.0045e-05,0
1.5215,3.7262e-05,0
1.522,4.918e-05,0
1.5225,6.3447e-05,0
1.523,7.4693e-05,0
1.5235,8.0232e-05,0
1.524,7.1336e-05,0
1.5245,4.9851e-05,0
1.525,3.7262e-05,0
1.5255,3.7934e-05,0
1.526,4.4816e-05,0
1.5265,4.5823e-05,0
1.527,2.8031e-05,0
1.5275,-7.2175e-06,0
1.528,-2.7024e-05,0
1.5285,-1.1246e-05,0
1.529,2.3499e-05,0
1.5295,4.9348e-05,0
1.53,5.4719e-05,0
1.5305,4.5319e-05,0
1.531,3.1724e-05,0
1.5315,2.5177e-05,0
1.532,3.743e-05,0
1.5325,5.8244e-05,0
1.533,5.1865e-05,0
1.5335,-6.714e-07,0
1.534,-6.6636e-05,0
1.5345,-0.00010222,0
1.535,-9.6513e-05,0
1.5355,-7.2007e-05,0
1.536,-6.1097e-05,0
1.5365,-7.3014e-05,0
1.537,-9.3828e-05,0
1.5375,-0.00010037,0
1.538,-9.1142e-05,0
1.5385,-7.5868e-05,0
1.539,-5.5222e-05,0
1.5395,-3.7262e-05,0
1.54,-2.2492e-05,0
1.5405,-1.6785e-06,0
1.541,2.3163e-05,0
1.5415,4.213e-05,0
1.542,5.5894e-05,0
1.5425,6.9657e-05,0
1.543,8.5771e-05,0
1.5435,0.00010407,0
1.544,0.00011548,0
1.5445,0.00010356,0
1.545,6.7475e-05,0
1.5455,3.2563e-05,0
1.546,2.4338e-05,0
1.5465,3.6927e-05,0
1.547,5.0187e-05,0
1.5475,5.388e-05,0
1.548,4.8844e-05,0
1.5485,4.1962e-05,0
1.549,4.0787e-05,0
1.5495,4.1123e-05,0
1.55,4.1123e-05,0
1.5505,4.6494e-05,0
1.551,6.3951e-05,0
1.5515,9.0806e-05,0
1.552,0.00010524,0
1.5525,6.3279e-05,0
1.553,-1.1246e-05,0
1.5535,-4.918e-05,0
1.554,-4.7837e-05,0
1.5545,-5.153e-05,0
1.555,-6.5293e-05,0
1.5555,-8.5435e-05,0
1.556,-0.0001039,0
1.5565,-9.5171e-05,0
1.557,-3.9948e-05,0
1.5575,3.827e-05,0
1.558,9.3996e-05,0
1.5585,0.0001138,0
1.559,0.00010054,0
1.5595,5.9251e-05,0
1.56,7.2175e-06,0
1.5605,-3.0045e-05,0
1.561,-4.7166e-05,0
1.5615,-5.2033e-05,0
1.562,-4.448e-05,0
1.5625,-2.8367e-05,0
1.563,-1.4099e-05,0
1.5635,4.8676e-06,0
1.564,2.5345e-05,0
1.5645,3.4577e-05,0
1.565,4.5487e-05,0
1.5655,6.7979e-05,0
1.566,8.8457e-05,0
1.5665,9.5506e-05,0
1.567,9.1142e-05,0
1.5675,8.2078e-05,0
1.568,6.6804e-05,0
1.5685,3.743e-05,0
1.569,-8.392e-07,0
1.5695,-2.6017e-05,0
1.57,-2.9374e-05,0
1.5705,-2.4338e-05,0
1.571,-2.3331e-05,0
1.5715,-2.031e-05,0
1.572,-7.7211e-06,0
1.5725,4.0284e-06,0
1.573,-1.3428e-06,0
1.5735,-1.2757e-05,0
1.574,-1.1078e-05,0
1.5745,5.0355e-06,0
1.575,2.031e-05,0
1.5755,3.8437e-05,0
1.576,6.2608e-05,0
1.5765,8.3085e-05,0
1.577,8.51e-05,0
1.5775,7.0664e-05,0
1.578,6.0594e-05,0
1.5785,6.8986e-05,0
1.579,7.8386e-05,0
1.5795,7.2007e-05,0
1.58,5.3544e-05,0
1.5805,4.8508e-05,0
1.581,6.2104e-05,0
1.5815,7.1168e-05,0
1.582,6.4286e-05,0
1.5825,5.2033e-05,0
1.583,4.3473e-05,0
1.5835,3.508e-05,0
1.584,1.8463e-05,0
1.5845,-1.2253e-05,0
1.585,-4.4648e-05,0
1.5855,-6.2944e-05,0
1.586,-6.009e-05,0
1.5865,-3.2731e-05,0
1.587,1.0575e-05,0
1.5875,3.978e-05,0
1.588,3.2731e-05,0
1.5885,1.1246e-05,0
1.589,-1.0575e-05,0
1.5895,-3.0213e-05,0
1.59,-3.6591e-05,0
1.5905,-3.1052e-05,0
1.591,-2.6184e-05,0
1.5915,-3.743e-05,0
1.592,-6.0594e-05,0
1.5925,-7.8386e-05,0
1.593,-8.0903e-05,0
1.5935,-6.2776e-05,0
1.594,-2.5681e-05,0
1.5945,1.947e-05,0
1.595,5.8244e-05,0
1.5955,8.5603e-05,0
1.596,9.1478e-05,0
1.5965,7.3518e-05,0
1.597,5.0858e-05,0
1.5975,4.0452e-05,0
1.598,4.0116e-05,0
1.5985,3.743e-05,0
1.599,2.8031e-05,0
1.5995,2.031e-05,0
1.6,2.2156e-05,0
1.6005,3.2731e-05,0
1.601,3.827e-05,0
1.6015,3.2395e-05,0
1.602,2.0981e-05,0
1.6025,2.031e-05,0
1.603,2.9374e-05,0
1.6035,2.7863e-05,0
1.604,1.2924e-05,0
1.6045,8.392e-07,0
1.605,-5.7069e-06,0
1.6055,-7.7211e-06,0
1.606,-9.2317e-06,0
1.6065,-3.1891e-05,0
1.607,-5.1865e-05,0
1.6075,-3.7095e-05,0
1.608,5.035e-07,0
1.6085,3.4409e-05,0
1.609,5.153e-05,0
1.6095,5.5726e-05,0
1.61,5.4887e-05,0
1.6105,4.9851e-05,0
1.611,4.6326e-05,0
1.6115,4.2802e-05,0
1.612,4.3977e-05,0
1.6125,5.2369e-05,0
1.613,5.0523e-05,0
1.6135,2.9709e-05,0
1.614,1.3764e-05,0
1.6145,2.3667e-05,0
1.615,5.6901e-05,0
1.6155,0.00010524,0
1.616,0.0001519,0
1.6165,0.00017171,0
1.617,0.0001655,0
1.6175,0.00015828,0
1.618,0.00015409,0
1.6185,0.0001368,0
1.619,9.7017e-05,0
1.6195,3.508e-05,0
1.62,-3.508e-05,0
1.6205,-9.7688e-05,0
1.621,-0.00013478,0
1.6215,-0.00014855,0
1.622,-0.00013629,0
1.6225,-9.6681e-05,0
1.623,-4.5319e-05,0
1.6235,-6.0426e-06,0
1.624,1.5106e-06,0
1.6245,-1.5946e-05,0
1.625,-3.3234e-05,0
1.6255,-3.3738e-05,0
1.626,-2.4338e-05,0
1.6265,-2.4338e-05,0
1.627,-2.652e-05,0
1.6275,-2.0646e-05,0
1.628,-4.1962e-06,0
1.6285,2.4506e-05,0
1.629,5.5222e-05,0
1.6295,6.8986e-05,0
1.63,6.865e-05,0
1.6305,6.0594e-05,0
1.631,4.6494e-05,0
1.6315,3.0381e-05,0
1.632,1.5106e-05,0
1.6325,-1.3428e-06,0
1.633,-1.8967e-05,0
1.6335,-3.1556e-05,0
1.634,-3.7095e-05,0
1.6345,-3.827e-05,0
1.635,-4.1459e-05,0
1.6355,-4.2802e-05,0
1.636,-3.2059e-05,0
1.6365,-5.539e-06,0
1.637,2.0478e-05,0
1.6375,4.3809e-05,0
1.638,7.0664e-05,0
1.6385,9.6345e-05,0
1.639,0.00011246,0
1.6395,0.00011296,0
1.64,0.00010574,0
1.6405,9.7688e-05,0
1.641,8.3421e-05,0
1.6415,6.2608e-05,0
1.642,4.2634e-05,0
1.6425,2.3163e-05,0
1.643,1.1749e-06,0
1.6435,-2.266e-05,0
1.644,-4.0452e-05,0
1.6445,-3.978e-05,0
1.645,-2.2492e-05,0
1.6455,-1.2253e-05,0
1.646,-1.6281e-05,0
1.6465,-2.4338e-05,0
1.647,-2.031e-05,0
1.6475,-2.0142e-06,0
1.648,2.031e-05,0
1.6485,3.9277e-05,0
1.649,6.1601e-05,0
1.6495,8.6275e-05,0
1.65,9.8527e-05,0
1.6505,8.8792e-05,0
1.651,6.5629e-05,0
1.6515,5.0355e-05,0
1.652,5.1362e-05,0
1.6525,5.3544e-05,0
1.653,4.3977e-05,0
1.6535,3.6088e-05,0
1.654,3.978e-05,0
1.6545,3.5752e-05,0
1.655,8.2246e-06,0
1.6555,-3.3738e-05,0
1.656,-7.1e-05,0
1.6565,-8.7953e-05,0
1.657,-7.5532e-05,0
1.6575,-3.9277e-05,0
1.658,4.3641e-06,0
1.6585,3.4745e-05,0
1.659,4.0284e-05,0
1.6595,1.7121e-05,0
1.66,-1.4603e-05,0
1.6605,-2.7695e-05,0
1.661,-2.1653e-05,0
1.6615,-8.2246e-06,0
1.662,1.2589e-05,0
1.6625,3.1891e-05,0
1.663,3.2059e-05,0
1.6635,1.6785e-06,0
1.664,-4.213e-05,0
1.6645,-6.5629e-05,0
1.665,-5.388e-05,0
1.6655,-1.8128e-05,0
1.666,2.1988e-05,0
1.6665,5.2369e-05,0
1.667,6.8986e-05,0
1.6675,7.3518e-05,0
1.668,6.7308e-05,0
1.6685,6.8315e-05,0
1.669,7.5029e-05,0
1.6695,5.7908e-05,0
1.67,1.326e-05,0
1.6705,-3.4745e-05,0
1.671,-5.3376e-05,0
1.6715,-5.1194e-05,0
1.672,-4.3137e-05,0
1.6725,-2.2324e-05,0
1.673,1.5106e-06,0
1.6735,2.4842e-05,0
1.674,4.8844e-05,0
1.6745,6.8147e-05,0
1.675,8.896e-05,0
1.6755,0.0001086,0
1.676,0.00012337,0
1.6765,0.0001415,0
1.677,0.00016365,0
1.6775,0.00016768,0
1.678,0.00014469,0
1.6785,0.00011514,0
1.679,9.1478e-05,0
1.6795,7.0664e-05,0
1.68,4.3977e-05,0
1.6805,1.7121e-05,0
1.681,-1.0071e-05,0
1.6815,-3.6088e-05,0
1.682,-5.304e-05,0
1.6825,-6.2272e-05,0
1.683,-8.1239e-05,0
1.6835,-0.00010222,0
1.684,-0.00010558,0
1.6845,-8.9464e-05,0
1.685,-6.5293e-05,0
1.6855,-3.8102e-05,0
1.686,-7.8889e-06,0
1.6865,1.6617e-05,0
1.687,3.4073e-05,0
1.6875,5.0187e-05,0
1.688,6.1265e-05,0
1.6885,6.479e-05,0
1.689,6.3951e-05,0
1.6895,5.8747e-05,0
1.69,3.357e-05,0
1.6905,-1.6953e-05,0
1.691,-3.9948e-05,0
1.6915,-6.8818e-06,0
1.692,4.1291e-05,0
1.6925,6.1601e-05,0
1.693,5.8915e-05,0
1.6935,5.6733e-05,0
1.694,6.9993e-05,0
1.6945,8.2414e-05,0
1.695,7.2007e-05,0
1.6955,4.8005e-05,0
1.696,2.8534e-05,0
1.6965,9.5674e-06,0
1.697,-2.0981e-05,0
1.6975,-5.3376e-05,0
1.698,-6.8986e-05,0
1.6985,-7.6707e-05,0
1.699,-8.8792e-05,0
1.6995,-0.00010726,0
1.7,-0.00012773,0
1.7005,-0.00012136,0
1.701,-7.2511e-05,0
1.7015,-4.8676e-06,0
1.702,5.4383e-05,0
1.7025,9.0806e-05,0
1.703,0.00010256,0
1.7035,0.00010188,0
1.704,9.7688e-05,0
1.7045,9.2485e-05,0
1.705,7.6371e-05,0
1.7055,3.3402e-05,0
1.706,-1.7121e-05,0
1.7065,-4.1459e-05,0
1.707,-4.5151e-05,0
1.7075,-5.0523e-05,0
1.708,-6.1936e-05,0
1.7085,-6.3447e-05,0
1.709,-3.3738e-05,0
1.7095,1.8296e-05,0
1.71,6.1936e-05,0
1.7105,8.6946e-05,0
1.711,0.00010155,0
1.7115,0.00010927,0
1.712,0.00010625,0
1.7125,9.752e-05,0
1.713,8.3421e-05,0
1.7135,7.0329e-05,0
1.714,7.805e-05,0
1.7145,8.9799e-05,0
1.715,8.2918e-05,0
1.7155,6.8147e-05,0
1.716,6.2944e-05,0
1.7165,6.1601e-05,0
1.717,5.4719e-05,0
1.7175,4.6662e-05,0
1.718,3.6088e-05,0
1.7185,2.5345e-05,0
1.719,1.6617e-05,0
1.7195,5.2033e-06,0
1.72,-1.326e-05,0
1.7205,-3.9445e-05,0
1.721,-5.7237e-05,0
1.7215,-4.213e-05,0
1.722,-1.5106e-06,0
1.7225,3.5416e-05,0
1.723,5.8915e-05,0
1.7235,7.2847e-05,0
1.724,7.0329e-05,0
1.7245,4.918e-05,0
1.725,2.652e-05,0
1.7255,2.266e-05,0
1.726,2.8702e-05,0
1.7265,1.8128e-05,0
1.727,-9.3996e-06,0
1.7275,-2.9709e-05,0
1.728,-2.266e-05,0
1.7285,3.1891e-06,0
1.729,1.8967e-05,0
1.7295,1.3092e-05,0
1.73,-1.1078e-05,0
1.7305,-3.9445e-05,0
1.731,-5.9754e-05,0
1.7315,-6.7475e-05,0
1.732,-6.1433e-05,0
1.7325,-5.0187e-05,0
1.733,-4.1627e-05,0
1.7335,-4.0787e-05,0
1.734,-4.213e-05,0
1.7345,-3.508e-05,0
1.735,-2.8367e-05,0
1.7355,-3.1388e-05,0
1.736,-3.1052e-05,0
1.7365,-1.5778e-05,0
1.737,1.2589e-05,0
1.7375,4.1459e-05,0
1.738,5.153e-05,0
1.7385,4.1459e-05,0
1.739,4.0787e-05,0
1.7395,5.5894e-05,0
1.74,7.3182e-05,0
1.7405,0.00010037,0
1.741,0.00014318,0
1.7415,0.00017943,0
1.742,0.00018514,0
1.7425,0.00015828,0
1.743,0.00011263,0
1.7435,6.2944e-05,0
1.744,2.7863e-05,0
1.7445,1.2253e-05,0
1.745,-2.0142e-05,0
1.7455,-9.1142e-05,0
1.746,-0.00014586,0
1.7465,-0.00012824,0
1.747,-5.5558e-05,0
1.7475,1.326e-05,0
1.748,5.2033e-05,0
1.7485,6.3447e-05,0
1.749,5.8244e-05,0
1.7495,5.0523e-05,0
1.75,5.7908e-05,0
1.7505,7.3014e-05,0
1.751,8.275e-05,0
1.7515,7.8889e-05,0
1.752,6.0258e-05,0
1.7525,3.9277e-05,0
1.753,1.5442e-05,0
1.7535,-1.2253e-05,0
1.754,-3.1724e-05,0
1.7545,-2.9038e-05,0
1.755,-2.8534e-06,0
1.7555,2.5177e-05,0
1.756,2.9877e-05,0
1.7565,7.2175e-06,0
1.757,-1.8463e-05,0
1.7575,-1.1917e-05,0
1.758,2.6688e-05,0
1.7585,5.8412e-05,0
1.759,5.9251e-05,0
1.7595,3.7095e-05,0
1.76,1.326e-05,0
1.7605,-8.2246e-06,0
1.761,-1.9638e-05,0
1.7615,-1.8463e-06,0
1.762,2.5681e-05,0
1.7625,3.2059e-05,0
1.763,2.5849e-05,0
1.7635,1.4603e-05,0
1.764,-1.6785e-06,0
1.7645,-1.6281e-05,0
1.765,-2.7024e-05,0
1.7655,-4.5991e-05,0
1.766,-7.3014e-05,0
1.7665,-8.1575e-05,0
1.767,-6.0761e-05,0
1.7675,-1.561e-05,0
1.768,4.4144e-05,0
1.7685,9.7856e-05,0
1.769,0.00012404,0
1.7695,0.00011464,0
1.77,9.0974e-05,0
1.7705,7.805e-05,0
1.771,7.8721e-05,0
1.7715,7.1e-05,0
1.772,4.1459e-05,0
1.7725,2.5177e-06,0
1.773,-2.8367e-05,0
1.7735,-3.978e-05,0
1.774,-3.3066e-05,0
1.7745,-2.4842e-05,0
1.775,-2.031e-05,0
1.7755,-6.8818e-06,0
1.776,6.5461e-06,0
1.7765,6.5461e-06,0
1.777,-1.8463e-06,0
1.7775,3.1891e-06,0
1.778,7.8889e-06,0
1.7785,1.1749e-06,0
1.779,-1.6953e-05,0
1.7795,-6.0929e-05,0
1.78,-0.00010843,0
1.7805,-0.00010675,0
1.781,-5.623e-05,0
1.7815,1.5946e-05,0
1.782,9.601e-05,0
1.7825,0.00016634,0
1.783,0.00018245,0
1.7835,0.0001556,0
1.784,0.00013462,0
1.7845,0.00012387,0
1.785,9.836e-05,0
1.7855,6.1265e-05,0
1.786,3.9948e-05,0
1.7865,2.7359e-05,0
1.787,9.5674e-06,0
1.7875,-1.561e-05,0
1.788,-5.4048e-05,0
1.7885,-8.2582e-05,0
1.789,-6.479e-05,0
1.7895,-1.9974e-05,0
1.79,1.4267e-05,0
1.7905,3.6927e-05,0
1.791,5.2201e-05,0
1.7915,5.6062e-05,0
1.792,5.5558e-05,0
1.7925,5.5894e-05,0
1.793,5.8076e-05,0
1.7935,6.1433e-05,0
1.794,7.2679e-05,0
1.7945,8.2078e-05,0
1.795,8.3085e-05,0
1.7955,7.4693e-05,0
1.796,4.5823e-05,0
1.7965,2.0142e-05,0
1.797,2.5681e-05,0
1.7975,6.0594e-05,0
1.798,9.6513e-05,0
1.7985,9.4499e-05,0
1.799,5.153e-05,0
1.7995,5.0355e-06,0
1.8,-2.8702e-05,0
1.8005,-4.8508e-05,0
1.801,-5.2369e-05,0
1.8015,-6.1601e-05,0
1.802,-9.7856e-05,0
1.8025,-0.00015392,0
1.803,-0.0001942,0
1.8035,-0.00019554,0
1.804,-0.00017775,0
1.8045,-0.00014905,0
1.805,-0.00010205,0
1.8055,-3.8437e-05,0
1.806,2.9374e-05,0
1.8065,8.51e-05,0
1.807,0.00012941,0
1.8075,0.00015761,0
1.808,0.00015073,0
1.8085,0.00010961,0
1.809,6.1265e-05,0
1.8095,3.7766e-05,0
1.81,3.6927e-05,0
1.8105,2.6184e-05,0
1.811,1.678e-07,0
1.8115,-2.4674e-05,0
1.812,-3.9109e-05,0
1.8125,-2.417e-05,0
1.813,1.5778e-05,0
1.8135,5.3544e-05,0
1.814,6.865e-05,0
1.8145,5.153e-05,0
1.815,3.0045e-05,0
1.8155,3.122e-05,0
1.816,3.9109e-05,0
1.8165,2.2995e-05,0
1.817,-1.3596e-05,0
1.8175,-3.3906e-05,0
1.818,-2.1317e-05,0
1.8185,1.3596e-05,0
1.819,6.479e-05,0
1.8195,0.00012136,0
1.82,0.00014586,0
1.8205,0.00013075,0
1.821,9.9031e-05,0
1.8215,6.7811e-05,0
1.822,4.3473e-05,0
1.8225,2.5177e-05,0
1.823,7.8889e-06,0
1.8235,-3.6927e-06,0
1.824,-1.4939e-05,0
1.8245,-3.508e-05,0
1.825,-5.5894e-05,0
1.8255,-5.8579e-05,0
1.826,-4.4144e-05,0
1.8265,-2.5681e-05,0
1.827,-2.4002e-05,0
1.8275,-4.3137e-05,0
1.828,-5.6062e-05,0
1.8285,-3.7095e-05,0
1.829,4.6998e-06,0
1.8295,4.1459e-05,0
1.83,5.539e-05,0
1.8305,5.6565e-05,0
1.831,6.0929e-05,0
1.8315,6.63e-05,0
1.832,5.9083e-05,0
1.8325,3.2395e-05,0
1.833,3.0213e-06,0
1.8335,-1.6785e-06,0
1.834,3.978e-05,0
1.8345,0.00010927,0
1.835,0.00017104,0
1.8355,0.00020931,0
1.836,0.00021468,0
1.8365,0.00017977,0
1.837,0.00011934,0
1.8375,6.0761e-05,0
1.838,1.0239e-05,0
1.8385,-4.8005e-05,0
1.839,-0.00012656,0
1.8395,-0.00019873,0
1.84,-0.00022744,0
1.8405,-0.0002036,0
1.841,-0.00014838,0
1.8415,-9.2653e-05,0
1.842,-4.7837e-05,0
1.8425,-1.5274e-05,0
1.843,3.357e-06,0
1.8435,1.1917e-05,0
1.844,1.8967e-05,0
1.8445,2.7359e-05,0
1.845,3.8941e-05,0
1.8455,4.4984e-05,0
1.846,3.2898e-05,0
1.8465,1.3932e-05,0
1.847,6.8818e-06,0
1.8475,9.0639e-06,0
1.848,1.3092e-05,0
1.8485,3.0045e-05,0
1.849,5.6565e-05,0
1.8495,7.7043e-05,0
1.85,8.8792e-05,0
1.8505,8.8121e-05,0
1.851,7.3854e-05,0
1.8515,5.1194e-05,0
1.852,2.6184e-05,0
1.8525,1.3092e-05,0
1.853,9.9031e-06,0
1.8535,1.4435e-05,0
1.854,3.4745e-05,0
1.8545,5.8915e-05,0
1.855,8.1743e-05,0
1.8555,0.00011716,0
1.856,0.00016231,0
1.8565,0.00018782,0
1.857,0.00017171,0
1.8575,0.00012723,0
1.858,7.4189e-05,0
1.8585,1.6281e-05,0
1.859,-4.7501e-05,0
1.8595,-8.7282e-05,0
1.86,-8.6107e-05,0
1.8605,-6.1265e-05,0
1.861,-2.1653e-05,0
1.8615,1.2253e-05,0
1.862,2.1317e-05,0
1.8625,3.9445e-05,0
1.863,8.8457e-05,0
1.8635,0.00013613,0
1.864,0.00014485,0
1.8645,0.00010961,0
1.865,4.7333e-05,0
1.8655,-1.8296e-05,0
1.866,-6.9993e-05,0
1.8665,-0.00010574,0
1.867,-0.00013982,0
1.8675,-0.00014704,0
1.868,-0.00012253,0
1.8685,-9.0639e-05,0
1.869,-6.4118e-05,0
1.8695,-3.5416e-05,0
1.87,3.5248e-06,0
1.8705,2.5009e-05,0
1.871,1.8463e-06,0
1.8715,-2.7695e-05,0
1.872,-1.5946e-05,0
1.8725,3.743e-05,0
1.873,0.00010188,0
1.8735,0.00014653,0
1.874,0.00013512,0
1.8745,6.1601e-05,0
1.875,-4.0116e-05,0
1.8755,-9.8192e-05,0
1.876,-0.00010088,0
1.8765,-9.0471e-05,0
1.877,-8.5771e-05,0
1.8775,-6.1265e-05,0
1.878,-1.1414e-05,0
1.8785,4.7333e-05,0
1.879,9.1814e-05,0
1.8795,0.00011313,0
1.88,0.00012605,0
1.8805,0.00012857,0
1.881,0.00011901,0
1.8815,0.00010658,0
1.882,8.1071e-05,0
1.8825,4.0787e-05,0
1.883,8.896e-06,0
1.8835,-6.5461e-06,0
1.884,-1.4435e-05,0
1.8845,-1.5778e-05,0
1.885,-4.8676e-06,0
1.8855,1.1246e-05,0
1.886,2.3667e-05,0
1.8865,2.6017e-05,0
1.887,1.8128e-05,0
1.8875,2.182e-06,0
1.888,-1.3764e-05,0
1.8885,-1.8296e-05,0
1.889,-7.3854e-06,0
1.8895,7.3854e-06,0
1.89,1.7288e-05,0
1.8905,1.9974e-05,0
1.891,1.7288e-05,0
1.8915,2.1988e-05,0
1.892,4.7501e-05,0
1.8925,9.2989e-05,0
1.893,0.00014989,0
1.8935,0.00020494,0
1.894,0.00022441,0
1.8945,0.00019689,0
1.895,0.00013411,0
1.8955,4.7333e-05,0
1.896,-3.0381e-05,0
1.8965,-8.0064e-05,0
1.897,-0.00011162,0
1.8975,-0.00012538,0
1.898,-0.00012773,0
1.8985,-0.00012303,0
1.899,-0.00010776,0
1.8995,-8.6107e-05,0
1.9,-7.57e-05,0
1.9005,-7.1336e-05,0
1.901,-4.9683e-05,0
1.9015,-2.7024e-05,0
1.902,-3.2395e-05,0
1.9025,-6.865e-05,0
1.903,-9.6178e-05,0
1.9035,-7.1504e-05,0
1.904,-1.1917e-05,0
1.9045,4.0452e-05,0
1.905,6.9154e-05,0
1.9055,6.949e-05,0
1.906,4.0116e-05,0
1.9065,8.392e-07,0
1.907,-3.8605e-06,0
1.9075,2.7695e-05,0
1.908,4.8844e-05,0
1.9085,3.5752e-05,0
1.909,-3.357e-07,0
1.9095,-3.0045e-05,0
1.91,-3.2898e-05,0
1.9105,-5.035e-07,0
1.911,5.153e-05,0
1.9115,8.9799e-05,0
1.912,0.0001284,0
1.9125,0.00015492,0
1.913,0.0001556,0
1.9135,0.00016046,0
1.914,0.00017037,0
1.9145,0.00018782,0
1.915,0.00021099,0
1.9155,0.00021669,0
1.916,0.00018178,0
1.9165,0.00013176,0
1.917,9.1142e-05,0
1.9175,6.5965e-05,0
1.918,6.1433e-05,0
1.9185,5.539e-05,0
1.919,3.0213e-05,0
1.9195,-9.2317e-06,0
1.92,-4.4144e-05,0
1.9205,-6.0929e-05,0
1.921,-7.7378e-05,0
1.9215,-0.00011632,0
1.922,-0.00014989,0
1.9225,-0.00013025,0
1.923,-7.0161e-05,0
1.9235,-1.7288e-05,0
1.924,1.6281e-05,0
1.9245,3.743e-05,0
1.925,4.6159e-05,0
1.9255,5.4048e-05,0
1.926,6.4286e-05,0
1.9265,6.6972e-05,0
1.927,7.2343e-05,0
1.9275,9.8863e-05,0
1.928,0.00013629,0
1.9285,0.00015828,0
1.929,0.00015073,0
1.9295,0.0001044,0
1.93,3.8102e-05,0
1.9305,-1.2924e-05,0
1.931,-2.9709e-05,0
1.9315,-3.357e-05,0
1.932,-5.2537e-05,0
1.9325,-8.7282e-05,0
1.933,-0.00012857,0
1.9335,-0.0001707,0
1.934,-0.00021501,0
1.9345,-0.00022979,0
1.935,-0.0001937,0
1.9355,-0.00014888,0
1.936,-0.00012807,0
1.9365,-0.00012689,0
1.937,-0.00015392,0
1.9375,-0.00015694,0
1.938,-9.2821e-05,0
1.9385,1.9638e-05,0
1.939,0.00013126,0
1.9395,0.00021468,0
1.94,0.00024858,0
1.9405,0.00023935,0
1.941,0.00022173,0
1.9415,0.00020729,0
1.942,0.00018161,0
1.9425,0.00013512,0
1.943,7.3686e-05,0
1.9435,1.796e-05,0
1.944,-2.2324e-05,0
1.9445,-4.8005e-05,0
1.945,-5.9754e-05,0
1.9455,-5.8579e-05,0
1.946,-4.4648e-05,0
1.9465,-3.2059e-05,0
1.947,-3.122e-05,0
1.9475,-2.8031e-05,0
1.948,-1.6617e-05,0
1.9485,-3.6927e-06,0
1.949,8.2246e-06,0
1.9495,1.8296e-05,0
1.95,3.0716e-05,0
1.9505,4.9515e-05,0
1.951,6.3615e-05,0
1.9515,5.9922e-05,0
1.952,5.8579e-05,0
1.9525,6.9657e-05,0
1.953,7.2679e-05,0
1.9535,5.8244e-05,0
1.954,4.2466e-05,0
1.9545,2.7192e-05,0
1.955,1.0071e-06,0
1.9555,-2.9709e-05,0
1.956,-4.0116e-05,0
1.9565,-4.7837e-05,0
1.957,-8.426e-05,0
1.9575,-9.5674e-05,0
1.958,-3.2898e-05,0
1.9585,4.918e-05,0
1.959,7.2847e-05,0
1.9595,5.8244e-05,0
1.96,7.0497e-05,0
1.9605,0.00010793,0
1.961,0.00011682,0
1.9615,7.57e-05,0
1.962,3.6759e-05,0
1.9625,3.743e-05,0
1.963,5.4048e-05,0
1.9635,6.3279e-05,0
1.964,8.1407e-05,0
1.9645,0.00012639,0
1.965,0.000166,0
1.9655,0.00015358,0
1.966,9.8024e-05,0
1.9665,4.8173e-05,0
1.967,1.4771e-05,0
1.9675,-1.5106e-06,0
1.968,-3.1891e-06,0
1.9685,-4.8676e-06,0
1.969,-1.4603e-05,0
1.9695,-1.9806e-05,0
1.97,-3.6927e-06,0
1.9705,1.5946e-05,0
1.971,1.9974e-05,0
1.9715,2.1317e-05,0
1.972,2.2324e-05,0
1.9725,1.9303e-05,0
1.973,9.9031e-06,0
1.9735,-3.5248e-06,0
1.974,-1.0407e-05,0
1.9745,-1.8296e-05,0
1.975,-9.5674e-06,0
1.9755,2.8367e-05,0
1.976,5.4215e-05,0
1.9765,4.1123e-05,0
1.977,2.0142e-06,0
1.9775,-2.4338e-05,0
1.978,-1.4939e-05,0
1.9785,1.9806e-05,0
1.979,3.2059e-05,0
1.9795,-6.8818e-06,0
1.98,-5.9251e-05,0
1.9805,-0.00012471,0
1.981,-0.00019974,0
1.9815,-0.00024271,0
1.982,-0.00021703,0
1.9825,-0.00014032,0
1.983,-6.5965e-05,0
1.9835,-2.3835e-05,0
1.984,1.678e-07,0
1.9845,5.8747e-06,0
1.985,-2.8534e-06,0
1.9855,7.2175e-06,0
1.986,7.4357e-05,0
1.9865,0.00016197,0
1.987,0.00017574,0
1.9875,0.00011431,0
1.988,8.8792e-05,0
1.9885,0.00010625,0
1.989,7.0329e-05,0
1.9895,2.1988e-05,0
1.99,3.1388e-05,0
1.9905,7.0832e-05,0
1.991,0.00010625,0
1.9915,0.00014922,0
1.992,0.00017272,0
1.9925,0.0001373,0
1.993,5.7908e-05,0
1.9935,-1.8631e-05,0
1.994,-6.479e-05,0
1.9945,-8.2078e-05,0
1.995,-8.3589e-05,0
1.9955,-7.2343e-05,0
1.996,-5.6901e-05,0
1.9965,-5.069e-05,0
1.997,-4.8844e-05,0
1.9975,-4.1962e-05,0
1.998,-3.7095e-05,0
1.9985,-5.4048e-05,0
1.999,-7.0664e-05,0
1.9995,-4.1123e-05,0
2,4.3473e-05,0
2.0005,0.00014133,0
2.001,0.00020998,0
2.0015,0.00023012,0
2.002,0.00020797,0
2.0025,0.00017238,0
2.003,0.0001321,0
2.0035,6.6972e-05,0
2.004,-1.2589e-05,0
2.0045,-6.2944e-05,0
2.005,-7.9057e-05,0
2.0055,-8.7114e-05,0
2.006,-9.0471e-05,0
2.0065,-7.335e-05,0
2.007,-3.5248e-05,0
2.0075,8.5603e-06,0
2.008,3.6088e-05,0
2.0085,4.4984e-05,0
2.009,4.6662e-05,0
2.0095,4.683e-05,0
2.01,5.0187e-05,0
2.0105,5.5222e-05,0
2.011,5.8747e-05,0
2.0115,5.1194e-05,0
2.012,1.796e-05,0
2.0125,-3.5752e-05,0
2.013,-7.1168e-05,0
2.0135,-6.244e-05,0
2.014,-1.796e-05,0
2.0145,3.4241e-05,0
2.015,6.865e-05,0
2.0155,7.9393e-05,0
2.016,7.7546e-05,0
2.0165,7.0497e-05,0
2.017,5.8915e-05,0
2.0175,4.2634e-05,0
2.018,1.6953e-05,0
2.0185,-1.4435e-05,0
2.019,-2.8702e-05,0
2.0195,-2.2995e-05,0
2.02,-1.4267e-05,0
2.0205,-6.8818e-06,0
2.021,-5.539e-06,0
2.0215,-1.0071e-06,0
2.022,2.5345e-05,0
2.0225,7.9728e-05,0
2.023,0.00011968,0
2.0235,0.00013243,0
2.024,0.00013948,0
2.0245,0.00015627,0
2.025,0.00017154,0
2.0255,0.00016298,0
2.026,0.00011934,0
2.0265,4.8005e-05,0
2.027,-3.2563e-05,0
2.0275,-0.00010927,0
2.028,-0.00018061,0
2.0285,-0.00023079,0
2.029,-0.00023465,0
2.0295,-0.00019773,0
2.03,-0.00014015,0
2.0305,-8.5435e-05,0
2.031,-2.9038e-05,0
2.0315,3.122e-05,0
2.032,7.2679e-05,0
2.0325,7.5868e-05,0
2.033,6.7308e-05,0
2.0335,6.5965e-05,0
2.034,5.8915e-05,0
2.0345,4.1962e-05,0
2.035,2.2995e-05,0
2.0355,-5.0858e-05,0
2.036,-0.00019857,0
2.0365,-0.0002845,0
2.037,-0.00022979,0
2.0375,-9.6178e-05,0
2.038,3.0716e-05,0
2.0385,0.0001227,0
2.039,0.00018933,0
2.0395,0.00023667,0
2.04,0.00025278,0
2.0405,0.00023952,0
2.041,0.00022643,0
2.0415,0.00021199,0
2.042,0.00016902,0
2.0425,8.9799e-05,0
2.043,1.4435e-05,0
2.0435,-1.7456e-05,0
2.044,-2.6856e-06,0
2.0445,3.3066e-05,0
2.045,6.3279e-05,0
2.0455,7.5029e-05,0
2.046,7.1672e-05,0
2.0465,6.0258e-05,0
2.047,3.6088e-05,0
2.0475,-3.5248e-06,0
2.048,-2.9709e-05,0
2.0485,-3.357e-05,0
2.049,-2.7359e-05,0
2.0495,-2.0981e-05,0
2.05,-1.7456e-05,0
2.0505,-1.4939e-05,0
2.051,-8.896e-06,0
2.0515,-1.091e-05,0
2.052,-2.4506e-05,0
2.0525,-4.3473e-05,0
2.053,-5.6062e-05,0
2.0535,-6.1601e-05,0
2.054,-6.3951e-05,0
2.0545,-5.6062e-05,0
2.055,-2.4674e-05,0
2.0555,2.5345e-05,0
2.056,9.5003e-05,0
2.0565,0.00016097,0
2.057,0.00019135,0
2.0575,0.00019152,0
2.058,0.00018027,0
2.0585,0.00015291,0
2.059,0.00011028,0
2.0595,5.6901e-05,0
2.06,-2.5177e-06,0
2.0605,-4.8508e-05,0
2.061,-6.6636e-05,0
2.0615,-3.6591e-05,0
2.062,3.2731e-05,0
2.0625,0.00010558,0
2.063,0.00013008,0
2.0635,9.5338e-05,0
2.064,5.304e-05,0
2.0645,4.5823e-05,0
2.065,5.4551e-05,0
2.0655,5.0355e-05,0
2.066,2.6688e-05,0
2.0665,-2.652e-05,0
2.067,-0.00014922,0
2.0675,-0.00030398,0
2.068,-0.00038202,0
2.0685,-0.00032815,0
2.069,-0.00020327,0
2.0695,-8.9464e-05,0
2.07,-2.4842e-05,0
2.0705,2.182e-06,0
2.071,1.3932e-05,0
2.0715,1.8967e-05,0
2.072,1.2924e-05,0
2.0725,-8.2246e-06,0
2.073,-3.2395e-05,0
2.0735,-3.7095e-05,0
2.074,-2.5009e-05,0
2.0745,-1.678e-07,0
2.075,2.8031e-05,0
2.0755,4.1962e-05,0
2.076,2.6017e-05,0
2.0765,1.6953e-05,0
2.077,3.4577e-05,0
2.0775,6.1601e-05,0
2.078,8.8457e-05,0
2.0785,0.00010524,0
2.079,0.00010457,0
2.0795,9.8863e-05,0
2.08,8.2414e-05,0
2.0805,4.6662e-05,0
2.081,2.6688e-05,0
2.0815,3.743e-05,0
2.082,5.0187e-05,0
2.0825,4.8844e-05,0
2.083,2.7359e-05,0
2.0835,1.8463e-06,0
2.084,1.1749e-05,0
2.0845,5.4887e-05,0
2.085,8.2246e-05,0
2.0855,7.6371e-05,0
2.086,5.0523e-05,0
2.0865,3.2395e-05,0
2.087,4.2802e-05,0
2.0875,6.3111e-05,0
2.088,6.5965e-05,0
2.0885,5.1194e-05,0
2.089,3.5584e-05,0
2.0895,3.6088e-05,0
2.09,5.5222e-05,0
2.0905,8.0903e-05,0
2.091,9.9702e-05,0
2.0915,9.2989e-05,0
2.092,5.7572e-05,0
2.0925,1.7288e-05,0
2.093,8.2246e-06,0
2.0935,2.4674e-05,0
2.094,3.2731e-05,0
2.0945,2.1988e-05,0
2.095,1.2421e-05,0
2.0955,2.3163e-05,0
2.096,5.1865e-05,0
2.0965,8.2414e-05,0
2.097,9.1142e-05,0
2.0975,2.6856e-05,0
2.098,-0.00012203,0
2.0985,-0.00023935,0
2.099,-0.00024875,0
2.0995,-0.00015727,0
2.1,-2.5009e-05,0
2.1005,7.4021e-05,0
2.101,0.00011179,0
2.1015,0.00010373,0
2.102,9.5506e-05,0
2.1025,0.00010574,0
2.103,0.00011934,0
2.1035,0.0001284,0
2.104,0.00012874,0
2.1045,0.00011162,0
2.105,6.9322e-05,0
2.1055,7.8889e-06,0
2.106,-4.5151e-05,0
2.1065,-6.6636e-05,0
2.107,-5.0019e-05,0
2.1075,7.2175e-06,0
2.108,6.5965e-05,0
2.1085,7.2007e-05,0
2.109,4.4144e-05,0
2.1095,2.6688e-05,0
2.11,3.3738e-05,0
2.1105,6.3447e-05,0
2.111,0.00010121,0
2.1115,0.00012757,0
2.112,0.00012538,0
2.1125,0.00011716,0
2.113,0.00012505,0
2.1135,0.00013579,0
2.114,0.00014418,0
2.1145,0.00011531,0
2.115,4.0116e-05,0
2.1155,-3.1891e-05,0
2.116,-5.153e-05,0
2.1165,-8.3421e-05,0
2.117,-0.00017742,0
2.1175,-0.00024405,0
2.118,-0.00023062,0
2.1185,-0.00018312,0
2.119,-0.00013344,0
2.1195,-0.0001044,0
2.12,-0.00015224,0
2.1205,-0.0002454,0
2.121,-0.00028299,0
2.1215,-0.00023348,0
2.122,-0.00014049,0
2.1225,-4.7837e-05,0
2.123,2.4674e-05,0
2.1235,8.9799e-05,0
2.124,0.00015895,0
2.1245,0.00022005,0
2.125,0.00025362,0
2.1255,0.00026168,0
2.126,0.00025026,0
2.1265,0.00021938,0
2.127,0.00017288,0
2.1275,0.00012287,0
2.128,8.9128e-05,0
2.1285,6.7979e-05,0
2.129,3.6759e-05,0
2.1295,-1.091e-05,0
2.13,-4.7166e-05,0
2.1305,-5.0523e-05,0
2.131,-3.508e-05,0
2.1315,-2.1149e-05,0
2.132,-1.091e-05,0
2.1325,-1.8463e-06,0
2.133,-2.4338e-05,0
2.1335,-0.00010507,0
2.134,-0.00017104,0
2.1345,-0.00015291,0
2.135,-8.4932e-05,0
2.1355,-1.2924e-05,0
2.136,5.0858e-05,0
2.1365,9.6513e-05,0
2.137,0.00012068,0
2.1375,0.00013948,0
2.138,0.00015644,0
2.1385,0.00017372,0
2.139,0.00019084,0
2.1395,0.00018044,0
2.14,0.00012807,0
2.1405,5.9587e-05,0
2.141,4.8676e-06,0
2.1415,-3.4073e-05,0
2.142,-7.0161e-05,0
2.1425,-9.8863e-05,0
2.143,-0.00010356,0
2.1435,-8.6778e-05,0
2.144,-5.7908e-05,0
2.1445,-2.2828e-05,0
2.145,1.2924e-05,0
2.1455,4.1795e-05,0
2.146,4.1962e-05,0
2.1465,4.1962e-06,0
2.147,-4.4144e-05,0
2.1475,-7.2007e-05,0
2.148,-6.9993e-05,0
2.1485,-4.8508e-05,0
2.149,-2.266e-05,0
2.1495,-1.5106e-06,0
2.15,1.4939e-05,0
2.1505,2.5009e-05,0
2.151,1.3596e-05,0
2.1515,-1.6953e-05,0
2.152,-5.0355e-05,0
2.1525,-6.8315e-05,0
2.153,-4.7333e-05,0
2.1535,-2.9374e-05,0
2.154,-6.7979e-05,0
2.1545,-0.00010726,0
2.155,-5.388e-05,0
2.1555,8.3085e-05,0
2.156,0.00023482,0
2.1565,0.00032747,0
2.157,0.00033956,0
2.1575,0.00032143,0
2.158,0.00028786,0
2.1585,0.00023348,0
2.159,0.00018581,0
2.1595,0.00016164,0
2.16,0.00015006,0
2.1605,0.00012639,0
2.161,7.3518e-05,0
2.1615,7.8889e-06,0
2.162,-4.4648e-05,0
2.1625,-8.5435e-05,0
2.163,-0.00011666,0
2.1635,-0.00012555,0
2.164,-0.00011431,0
2.1645,-0.0001034,0
2.165,-0.00011229,0
2.1655,-0.00016902,0
2.166,-0.00025345,0
2.1665,-0.00029306,0
2.167,-0.00025698,0
2.1675,-0.0001754,0
2.168,-9.131e-05,0
2.1685,-2.6856e-05,0
2.169,9.2317e-06,0
2.1695,1.9135e-05,0
2.17,3.5752e-05,0
2.1705,0.00010558,0
2.171,0.00022089,0
2.1715,0.00027376,0
2.172,0.00022475,0
2.1725,0.000166,0
2.173,0.00014166,0
2.1735,0.00012807,0
2.174,0.00010457,0
2.1745,7.4021e-05,0
2.175,4.2466e-05,0
2.1755,0,0
2.176,-5.2872e-05,0
2.1765,-8.3421e-05,0
2.177,-7.8218e-05,0
2.1775,-4.5487e-05,0
2.178,2.3499e-06,0
2.1785,4.7501e-05,0
2.179,6.5629e-05,0
2.1795,5.9419e-05,0
2.18,5.5558e-05,0
2.1805,3.4745e-05,0
2.181,-1.9303e-05,0
2.1815,-8.2078e-05,0
2.182,-0.00010994,0
2.1825,-8.745e-05,0
2.183,-3.9109e-05,0
2.1835,6.3783e-06,0
2.184,2.5681e-05,0
2.1845,2.6688e-05,0
2.185,5.7908e-05,0
2.1855,0.00011498,0
2.186,0.00015123,0
2.1865,0.000166,0
2.187,0.00016298,0
2.1875,0.00014754,0
2.188,0.00012337,0
2.1885,9.6513e-05,0
2.189,7.5532e-05,0
2.1895,5.8915e-05,0
2.19,1.2924e-05,0
2.1905,-3.9109e-05,0
2.191,-4.9851e-05,0
2.1915,-3.0716e-05,0
2.192,-1.5778e-05,0
2.1925,-1.796e-05,0
2.193,-4.2634e-05,0
2.1935,-8.1071e-05,0
2.194,-0.00011833,0
2.1945,-0.00013596,0
2.195,-0.000118,0
2.1955,-6.4622e-05,0
2.196,4.6998e-06,0
2.1965,4.8676e-05,0
2.197,5.7908e-05,0
2.1975,5.0187e-05,0
2.198,4.1795e-05,0
2.1985,5.1362e-05,0
2.199,8.8457e-05,0
2.1995,0.0001284,0
2.2,0.00012052,0
2.2005,5.623e-05,0
2.201,-5.0019e-05,0
2.2015,-0.0001368,0
2.202,-0.00013864,0
2.2025,-5.6565e-05,0
2.203,4.2802e-05,0
2.2035,7.6371e-05,0
2.204,3.508e-05,0
2.2045,-1.5106e-05,0
2.205,-3.0213e-05,0
2.2055,-1.5946e-05,0
2.206,3.6927e-06,0
2.2065,1.796e-05,0
2.207,3.6088e-05,0
2.2075,6.0761e-05,0
2.208,8.04e-05,0
2.2085,0.0001039,0
2.209,0.00012639,0
2.2095,0.00012555,0
2.21,0.00010994,0
2.2105,9.4163e-05,0
2.211,8.3085e-05,0
2.2115,9.1814e-05,0
2.212,0.00011934,0
2.2125,0.00012673,0
2.213,8.7114e-05,0
2.2135,4.1962e-06,0
2.214,-8.6442e-05,0
2.2145,-0.00014133,0
2.215,-0.00014821,0
2.2155,-0.00013545,0
2.216,-0.00013848,0
2.2165,-0.00015409,0
2.217,-0.00015694,0
2.2175,-0.00012924,0
2.218,-0.00011632,0
2.2185,-0.00019202,0
2.219,-0.00025563,0
2.2195,-0.0001749,0
2.22,4.5319e-06,0
2.2205,0.00016399,0
2.221,0.00023885,0
2.2215,0.00021132,0
2.222,0.00014015,0
2.2225,8.04e-05,0
2.223,2.8367e-05,0
2.2235,1.3596e-05,0
2.224,6.0258e-05,0
2.2245,0.0001133,0
2.225,0.0001415,0
2.2255,0.00018245,0
2.226,0.00024086,0
2.2265,0.00027242,0
2.227,0.00025396,0
2.2275,0.0002078,0
2.228,0.00016835,0
2.2285,0.00013327,0
2.229,9.2485e-05,0
2.2295,7.7714e-05,0
2.23,0.00011095,0
2.2305,0.00015946,0
2.231,0.0001801,0
2.2315,0.00015761,0
2.232,0.00010658,0
2.2325,4.1459e-05,0
2.233,-4.3137e-05,0
2.2335,-0.0001274,0
2.234,-0.00017372,0
2.2345,-0.00019554,0
2.235,-0.00022358,0
2.2355,-0.00025496,0
2.236,-0.00025698,0
2.2365,-0.00022055,0
2.237,-0.0002088,0
2.2375,-0.00021166,0
2.238,-0.00015946,0
2.2385,-6.9322e-05,0
2.239,-1.4603e-05,0
2.2395,-1.6281e-05,0
2.24,-2.4674e-05,0
2.2405,1.0071e-06,0
2.241,3.592e-05,0
2.2415,5.0858e-05,0
2.242,5.3544e-05,0
2.2425,6.2272e-05,0
2.243,8.3757e-05,0
2.2435,0.00011766,0
2.244,0.00016097,0
2.2445,0.00018312,0
2.245,0.00013915,0
2.2455,4.2466e-05,0
2.246,-3.2059e-05,0
2.2465,-3.1052e-05,0
2.247,5.2033e-06,0
2.2475,-5.2033e-06,0
2.248,-8.04e-05,0
2.2485,-0.00018379,0
2.249,-0.00024053,0
2.2495,-0.00015761,0
2.25,2.1149e-05,0
2.2505,0.00016281,0
2.251,0.00020729,0
2.2515,0.00011884,0
2.252,-4.3977e-05,0
2.2525,-9.2485e-05,0
2.253,1.8463e-06,0
2.2535,0.00011565,0
2.254,0.00018346,0
2.2545,0.00020041,0
2.255,0.00018077,0
2.2555,0.00015157,0
2.256,0.0001326,0
2.2565,0.00014334,0
2.257,0.00017406,0
2.2575,0.00019168,0
2.258,0.00018044,0
2.2585,0.00015375,0
2.259,0.00012068,0
2.2595,7.8218e-05,0
2.26,2.8702e-05,0
2.2605,-1.1917e-05,0
2.261,-3.9612e-05,0
2.2615,-5.774e-05,0
2.262,-6.6133e-05,0
2.2625,-7.5364e-05,0
2.263,-8.7617e-05,0
2.2635,-8.2918e-05,0
2.264,-5.2369e-05,0
2.2645,-9.7353e-06,0
2.265,2.0478e-05,0
2.2655,3.7934e-05,0
2.266,6.2608e-05,0
2.2665,8.3925e-05,0
2.267,5.1194e-05,0
2.2675,-7.0664e-05,0
2.268,-0.00018682,0
2.2685,-0.00021653,0
2.269,-0.00017339,0
2.2695,-9.4499e-05,0
2.27,-7.8889e-06,0
2.2705,5.9754e-05,0
2.271,9.3828e-05,0
2.2715,7.5029e-05,0
2.272,-1.678e-07,0
2.2725,-9.3828e-05,0
2.273,-0.00014519,0
2.2735,-0.00010893,0
2.274,-3.8437e-05,0
2.2745,-2.2324e-05,0
2.275,-7.7043e-05,0
2.2755,-0.00016197,0
2.276,-0.00019185,0
2.2765,-0.00012673,0
2.277,-4.8676e-06,0
2.2775,0.00011112,0
2.278,0.00019387,0
2.2785,0.00022055,0
2.279,0.00019387,0
2.2795,0.00015778,0
2.28,0.00015241,0
2.2805,0.00015677,0
2.281,0.00012253,0
2.2815,6.1936e-05,0
2.282,1.8463e-06,0
2.2825,-5.0523e-05,0
2.283,-8.6107e-05,0
2.2835,-8.2582e-05,0
2.284,-6.2104e-05,0
2.2845,-6.0594e-05,0
2.285,-5.388e-05,0
2.2855,-5.5222e-05,0
2.286,-3.8941e-05,0
2.2865,3.9612e-05,0
2.287,0.00013008,0
2.2875,0.00017775,0
2.288,0.00020562,0
2.2885,0.00022609,0
2.289,0.00022408,0
2.2895,0.00019823,0
2.29,0.00016265,0
2.2905,0.00010105,0
2.291,-9.9031e-06,0
2.2915,-0.00011498,0
2.292,-0.00013227,0
2.2925,-7.4189e-05,0
2.293,-9.2317e-06,0
2.2935,3.4745e-05,0
2.294,5.623e-05,0
2.2945,4.7166e-05,0
2.295,2.3331e-05,0
2.2955,-1.6281e-05,0
2.296,-5.0523e-05,0
2.2965,-4.8508e-05,0
2.297,-3.1388e-05,0
2.2975,-3.8437e-05,0
2.298,-5.2872e-05,0
2.2985,-7.9057e-05,0
2.299,-8.5267e-05,0
2.2995,-4.9851e-05,0
2.3,3.8605e-06,0
2.3005,5.7572e-05,0
2.301,0.00011028,0
2.3015,0.00015593,0
2.302,0.00019084,0
2.3025,0.00020864,0
2.303,0.00019974,0
2.3035,0.00017641,0
2.304,0.00016902,0
2.3045,0.00017288,0
2.305,0.00012941,0
2.3055,3.8941e-05,0
2.306,-5.2872e-05,0
2.3065,-0.00010021,0
2.307,-9.3156e-05,0
2.3075,-7.7043e-05,0
2.308,-9.836e-05,0
2.3085,-0.0001843,0
2.309,-0.00022811,0
2.3095,-0.00017238,0
2.31,-8.5267e-05,0
2.3105,-1.5778e-05,0
2.311,3.5416e-05,0
2.3115,4.0452e-05,0
2.312,1.2253e-05,0
2.3125,5.8747e-06,0
2.313,4.7669e-05,0
2.3135,0.00011263,0
2.314,0.00014351,0
2.3145,0.00011061,0
2.315,6.1601e-05,0
2.3155,3.0045e-05,0
2.316,1.2924e-05,0
2.3165,2.8031e-05,0
2.317,6.1265e-05,0
2.3175,8.51e-05,0
2.318,0.00010272,0
2.3185,0.00012605,0
2.319,0.00015358,0
2.3195,0.00016332,0
2.32,0.00013512,0
2.3205,6.5629e-05,0
2.321,-6.2272e-05,0
2.3215,-0.00020024,0
2.322,-0.00021468,0
2.3225,-9.2989e-05,0
2.323,4.8676e-06,0
2.3235,2.5345e-05,0
2.324,2.7527e-05,0
2.3245,2.1317e-05,0
2.325,8.2246e-06,0
2.3255,1.1749e-06,0
2.326,-3.5248e-06,0
2.3265,-2.6017e-05,0
2.327,-9.0135e-05,0
2.3275,-0.00013529,0
2.328,-8.3757e-05,0
2.3285,2.3835e-05,0
2.329,8.4428e-05,0
2.3295,3.2731e-05,0
2.33,-9.5171e-05,0
2.3305,-0.00019185,0
2.331,-0.00019655,0
2.3315,-0.00012589,0
2.332,-3.1891e-05,0
2.3325,4.9515e-05,0
2.333,0.00011934,0
2.3335,0.0001848,0
2.334,0.00022626,0
2.3345,0.00023616,0
2.335,0.00020058,0
2.3355,0.00012169,0
2.336,6.6972e-05,0
2.3365,6.3279e-05,0
2.337,8.04e-05,0
2.3375,9.0806e-05,0
2.338,6.7643e-05,0
2.3385,1.0407e-05,0
2.339,-4.7166e-05,0
2.3395,-6.5293e-05,0
2.34,-5.539e-05,0
2.3405,-4.5823e-05,0
2.341,-2.6688e-05,0
2.3415,-5.3712e-06,0
2.342,8.2246e-06,0
2.3425,-1.7456e-05,0
2.343,-0.00011716,0
2.3435,-0.00018161,0
2.344,-0.0001472,0
2.3445,-8.191e-05,0
2.345,-2.9709e-05,0
2.3455,2.5177e-05,0
2.346,8.8792e-05,0
2.3465,0.00013747,0
2.347,0.00013881,0
2.3475,9.4499e-05,0
2.348,7.0497e-05,0
2.3485,0.00011531,0
2.349,0.00019185,0
2.3495,0.00023868,0
2.35,0.00024204,0
2.3505,0.00021871,0
2.351,0.00015979,0
2.3515,4.2466e-05,0
2.352,-6.9657e-05,0
2.3525,-0.00010625,0
2.353,-9.6681e-05,0
2.3535,-6.949e-05,0
2.354,-3.2898e-05,0
2.3545,2.5177e-06,0
2.355,3.6423e-05,0
2.3555,6.2944e-05,0
2.356,5.3208e-05,0
2.3565,-5.8244e-05,0
2.357,-0.00029223,0
2.3575,-0.00049767,0
2.358,-0.00051731,0
2.3585,-0.00036255,0
2.359,-0.00014989,0
2.3595,3.1891e-05,0
2.36,0.00014385,0
2.3605,0.00019084,0
2.361,0.00020612,0
2.3615,0.000213,0
2.362,0.00022643,0
2.3625,0.00021736,0
2.363,0.00012941,0
2.3635,-9.9031e-06,0
2.364,-9.5171e-05,0
2.3645,-8.2414e-05,0
2.365,-2.5009e-05,0
2.3655,3.978e-05,0
2.366,0.00011363,0
2.3665,0.00016818,0
2.367,0.0002031,0
2.3675,0.00023482,0
2.368,0.00024691,0
2.3685,0.00023314,0
2.369,0.00020192,0
2.3695,0.00015996,0
2.37,0.00010826,0
2.3705,4.5319e-05,0
2.371,-1.1414e-05,0
2.3715,-5.5222e-05,0
2.372,-0.00010658,0
2.3725,-0.00012186,0
2.373,-8.2414e-05,0
2.3735,-1.2924e-05,0
2.374,5.3544e-05,0
2.3745,0.00012874,0
2.375,0.00021921,0
2.3755,0.00029592,0
2.376,0.00029743,0
2.3765,0.0002083,0
2.377,6.9322e-05,0
2.3775,-8.51e-05,0
2.378,-0.00022911,0
2.3785,-0.00038639,0
2.379,-0.00050002,0
2.3795,-0.00046796,0
2.38,-0.00031354,0
2.3805,-0.00016197,0
2.381,-4.6494e-05,0
2.3815,5.8915e-05,0
2.382,0.00011229,0
2.3825,7.7378e-05,0
2.383,1.7456e-05,0
2.3835,5.8747e-06,0
2.384,6.3615e-05,0
2.3845,0.00013294,0
2.385,0.00013747,0
2.3855,7.9896e-05,0
2.386,-1.9974e-05,0
2.3865,-0.00018279,0
2.387,-0.00028266,0
2.3875,-0.0001801,0
2.388,4.2802e-05,0
2.3885,0.00022408,0
2.389,0.0002939,0
2.3895,0.00028786,0
2.39,0.00024825,0
2.3905,0.00019319,0
2.391,0.00014267,0
2.3915,8.9799e-05,0
2.392,2.4674e-05,0
2.3925,-2.8702e-05,0
2.393,-4.3809e-05,0
2.3935,-3.122e-05,0
2.394,-2.4338e-05,0
2.3945,-2.0981e-05,0
2.395,-1.0071e-06,0
2.3955,3.7095e-05,0
2.396,6.7308e-05,0
2.3965,6.2272e-05,0
2.397,2.5009e-05,0
2.3975,-7.7211e-06,0
2.398,-2.6017e-05,0
2.3985,-4.2466e-05,0
2.399,-6.479e-05,0
2.3995,-8.6946e-05,0
2.4,-9.752e-05,0
2.4005,-0.00010323,0
2.401,-0.00011884,0
2.4015,-0.00014955,0
2.402,-0.0001566,0
2.4025,-0.0001378,0
2.403,-0.00010558,0
2.4035,-6.1936e-05,0
2.404,-4.5319e-06,0
2.4045,5.4719e-05,0
2.405,9.5842e-05,0
2.4055,0.00011229,0
2.406,0.00012471,0
2.4065,0.00012706,0
2.407,0.00010541,0
2.4075,0.00012589,0
2.408,0.00018782,0
2.4085,0.00025077,0
2.409,0.00028853,0
2.4095,0.00028988,0
2.41,0.00027309,0
2.4105,0.00025765,0
2.411,0.00023029,0
2.4115,0.00017356,0
2.412,9.0471e-05,0
2.4125,-3.6927e-06,0
2.413,-0.00013176,0
2.4135,-0.00029693,0
2.414,-0.00038656,0
2.4145,-0.00032714,0
2.415,-0.00016567,0
2.4155,-1.091e-05,0
2.416,4.683e-05,0
2.4165,2.1653e-05,0
2.417,-1.3596e-05,0
2.4175,-2.5009e-05,0
2.418,-3.0045e-05,0
2.4185,-4.3473e-05,0
2.419,-3.4745e-05,0
2.4195,-4.1962e-06,0
2.42,1.1917e-05,0
2.4205,1.6281e-05,0
2.421,3.592e-05,0
2.4215,5.1865e-05,0
2.422,2.266e-05,0
2.4225,-3.122e-05,0
2.423,-9.6849e-05,0
2.4235,-0.00015593,0
2.424,-0.00020427,0
2.4245,-0.00020024,0
2.425,-0.00017003,0
2.4255,-0.00015023,0
2.426,-8.04e-05,0
2.4265,2.9374e-05,0
2.427,0.00016416,0
2.4275,0.00031371,0
2.428,0.00042818,0
2.4285,0.00046343,0
2.429,0.00042684,0
2.4295,0.00034694,0
2.43,0.00026822,0
2.4305,0.00019924,0
2.431,0.00011263,0
2.4315,9.2317e-06,0
2.432,-6.2608e-05,0
2.4325,-5.9251e-05,0
2.433,-7.5532e-06,0
2.4335,3.122e-05,0
2.434,4.0452e-05,0
2.4345,3.1388e-05,0
2.435,1.0575e-05,0
2.4355,-2.5849e-05,0
2.436,-8.1575e-05,0
2.4365,-0.00014519,0
2.437,-0.00016869,0
2.4375,-0.00013445,0
2.438,-8.661e-05,0
2.4385,-7.6036e-05,0
2.439,-0.00011447,0
2.4395,-0.00015828,0
2.44,-0.00013277,0
2.4405,-2.7024e-05,0
2.441,0.00010726,0
2.4415,0.00019622,0
2.442,0.00018245,0
2.4425,0.00012992,0
2.443,0.00014922,0
2.4435,0.00017372,0
2.444,9.9199e-05,0
2.4445,-3.1388e-05,0
2.445,-0.00014821,0
2.4455,-0.00020864,0
2.446,-0.00023163,0
2.4465,-0.00021216,0
2.447,-0.00013143,0
2.4475,-2.6688e-05,0
2.448,8.1743e-05,0
2.4485,0.00018212,0
2.449,0.00025614,0
2.4495,0.00028165,0
2.45,0.00020998,0
2.4505,0.00011666,0
2.451,8.5771e-05,0
2.4515,7.5868e-05,0
2.452,3.1052e-05,0
2.4525,-5.1026e-05,0
2.453,-0.00011901,0
2.4535,-0.00014032,0
2.454,-0.00012471,0
2.4545,-7.9393e-05,0
2.455,-1.1078e-05,0
2.4555,3.743e-05,0
2.456,2.652e-05,0
2.4565,-3.0549e-05,0
2.457,-7.7378e-05,0
2.4575,-6.9154e-05,0
2.458,-2.2324e-05,0
2.4585,2.266e-05,0
2.459,5.2369e-05,0
2.4595,8.3589e-05,0
2.46,0.00011699,0
2.4605,0.00011934,0
2.461,8.0903e-05,0
2.4615,3.4409e-05,0
2.462,-6.2104e-06,0
2.4625,-5.7908e-05,0
2.463,-0.00011363,0
2.4635,-0.00012605,0
2.464,-6.2608e-05,0
2.4645,4.7837e-05,0
2.465,0.00015325,0
2.4655,0.00020226,0
2.466,0.00016265,0
2.4665,6.9322e-05,0
2.467,-3.357e-07,0
2.4675,-5.035e-07,0
2.468,5.0019e-05,0
2.4685,0.00011128,0
2.469,0.00014217,0
2.4695,0.0001274,0
2.47,9.7185e-05,0
2.4705,2.6017e-05,0
2.471,-6.244e-05,0
2.4715,-8.745e-05,0
2.472,-4.0452e-05,0
2.4725,2.3667e-05,0
2.473,6.479e-05,0
2.4735,8.0735e-05,0
2.474,3.8437e-05,0
2.4745,-4.9851e-05,0
2.475,-9.7017e-05,0
2.4755,-8.426e-05,0
2.476,-1.4939e-05,0
2.4765,8.2414e-05,0
2.477,0.00016365,0
2.4775,0.00018933,0
2.478,0.00014586,0
2.4785,8.0903e-05,0
2.479,2.7863e-05,0
2.4795,-2.0142e-06,0
2.48,2.5177e-06,0
2.4805,2.2156e-05,0
2.481,3.8605e-05,0
2.4815,7.1e-05,0
2.482,6.4286e-05,0
2.4825,-6.865e-05,0
2.483,-0.00020981,0
2.4835,-0.00018833,0
2.484,-5.2033e-05,0
2.4845,6.865e-05,0
2.485,0.00013545,0
2.4855,0.00015224,0
2.486,0.00012471,0
2.4865,6.9657e-05,0
2.487,4.5319e-06,0
2.4875,-5.5894e-05,0
2.488,-0.00011196,0
2.4885,-0.00015727,0
2.489,-0.00018833,0
2.4895,-0.00018279,0
2.49,-0.00013075,0
2.4905,-5.8244e-05,0
2.491,-1.1582e-05,0
2.4915,1.2589e-05,0
2.492,2.3667e-05,0
2.4925,2.9374e-05,0
2.493,4.8844e-05,0
2.4935,7.4189e-05,0
2.494,7.3686e-05,0
2.4945,4.6159e-05,0
2.495,3.508e-05,0
2.4955,6.6972e-05,0
2.496,0.00012387,0
2.4965,0.00015543,0
2.497,0.00014989,0
2.4975,0.00011363,0
2.498,2.5009e-05,0
2.4985,-7.8721e-05,0
2.499,-0.00012723,0
2.4995,-8.2414e-05,0
2.5,2.266e-05,0
2.5005,0.00011363,0
2.501,0.00014133,0
2.5015,0.0001039,0
2.502,3.4745e-05,0
2.5025,-3.2731e-05,0
2.503,-5.9251e-05,0
2.5035,-3.508e-05,0
2.504,1.1749e-06,0
2.5045,6.5461e-06,0
2.505,-3.1052e-05,0
2.5055,-0.00010759,0
2.506,-0.00022643,0
2.5065,-0.00030448,0
2.507,-0.00029055,0
2.5075,-0.00020343,0
2.508,-6.9322e-05,0
2.5085,6.0761e-05,0
2.509,0.00013982,0
2.5095,0.00015778,0
2.51,0.00012874,0
2.5105,9.3156e-05,0
2.511,7.4189e-05,0
2.5115,7.1672e-05,0
2.512,9.5674e-05,0
2.5125,0.00015744,0
2.513,0.00022492,0
2.5135,0.00025295,0
2.514,0.00024858,0
2.5145,0.00022542,0
2.515,0.00016298,0
2.5155,3.7095e-05,0
2.516,-8.275e-05,0
2.5165,-0.00010172,0
2.517,-8.2078e-05,0
2.5175,-8.1071e-05,0
2.518,-3.9109e-05,0
2.5185,6.0258e-05,0
2.519,0.00014116,0
2.5195,0.00016197,0
2.52,0.00016449,0
2.5205,0.00018581,0
2.521,0.00019722,0
2.5215,0.00016768,0
2.522,0.0001133,0
2.5225,4.5487e-05,0
2.523,-2.2324e-05,0
2.5235,-8.5267e-05,0
2.524,-0.00015929,0
2.5245,-0.00020159,0
2.525,-0.0001415,0
2.5255,-1.5946e-05,0
2.526,8.1239e-05,0
2.5265,0.00011649,0
2.527,0.00012404,0
2.5275,0.00015274,0
2.528,0.00021535,0
2.5285,0.00025228,0
2.529,0.00019588,0
2.5295,5.8244e-05,0
2.53,-0.0001086,0
2.5305,-0.00027376,0
2.531,-0.00034711,0
2.5315,-0.0003023,0
2.532,-0.00025429,0
2.5325,-0.00028971,0
2.533,-0.00030314,0
2.5335,-0.00021736,0
2.534,-9.5171e-05,0
2.5345,7.8889e-06,0
2.535,0.00010625,0
2.5355,0.00020964,0
2.536,0.00029508,0
2.5365,0.00034627,0
2.537,0.00035483,0
2.5375,0.00034157,0
2.538,0.000307,0
2.5385,0.00022643,0
2.539,0.00012874,0
2.5395,4.5151e-05,0
2.54,-3.1052e-05,0
2.5405,-0.00011481,0
2.541,-0.00021552,0
2.5415,-0.00032781,0
2.542,-0.00037145,0
2.5425,-0.00032596,0
2.543,-0.00023062,0
2.5435,-9.4331e-05,0
2.544,4.9515e-05,0
2.5445,0.00016365,0
2.545,0.00024019,0
2.5455,0.00027343,0
2.546,0.00027376,0
2.5465,0.00025899,0
2.547,0.00022072,0
2.5475,0.00013848,0
2.548,4.1123e-05,0
2.5485,-2.3331e-05,0
2.549,-5.2201e-05,0
2.5495,-5.4551e-05,0
2.55,-5.388e-05,0
2.5505,-0.00010222,0
2.551,-0.00018967,0
2.5515,-0.000237,0
2.552,-0.0002266,0
2.5525,-0.00022492,0
2.553,-0.00024791,0
2.5535,-0.00023835,0
2.554,-0.00015795,0
2.5545,-3.2898e-05,0
2.555,8.8457e-05,0
2.5555,0.00019252,0
2.556,0.00027779,0
2.5565,0.00033368,0
2.557,0.00034292,0
2.5575,0.00029793,0
2.558,0.00022206,0
2.5585,0.00016063,0
2.559,0.0001091,0
2.5595,8.7785e-05,0
2.56,0.00011179,0
2.5605,0.00013193,0
2.561,0.00012068,0
2.5615,8.3421e-05,0
2.562,1.8631e-05,0
2.5625,-7.6204e-05,0
2.563,-0.0001895,0
2.5635,-0.00029592,0
2.564,-0.00036222,0
2.5645,-0.00034157,0
2.565,-0.00022609,0
2.5655,-7.805e-05,0
2.566,3.6759e-05,0
2.5665,8.745e-05,0
2.567,8.2414e-05,0
2.5675,8.7114e-05,0
2.568,0.00012706,0
2.5685,0.00017574,0
2.569,0.00020024,0
2.5695,0.00019319,0
2.57,0.00014955,0
2.5705,1.1917e-05,0
2.571,-0.00013394,0
2.5715,-0.00016936,0
2.572,-0.00013478,0
2.5725,-8.5603e-05,0
2.573,-1.7456e-05,0
2.5735,5.3208e-05,0
2.574,9.8863e-05,0
2.5745,9.9535e-05,0
2.575,3.4745e-05,0
2.5755,-8.9967e-05,0
2.576,-0.00020226,0
2.5765,-0.00024103,0
2.577,-0.00018346,0
2.5775,-2.6184e-05,0
2.578,0.00015828,0
2.5785,0.00026101,0
2.579,0.00024926,0
2.5795,0.00019588,0
2.58,0.00015207,0
2.5805,0.00012706,0
2.581,0.00011867,0
2.5815,0.00012337,0
2.582,0.00012337,0
2.5825,0.00011481,0
2.583,9.7856e-05,0
2.5835,7.4189e-05,0
2.584,4.2802e-05,0
2.5845,1.1582e-05,0
2.585,-7.5532e-06,0
2.5855,-9.2317e-06,0
2.586,-2.5177e-06,0
2.5865,8.2246e-06,0
2.587,1.1749e-06,0
2.5875,-4.6662e-05,0
2.588,-0.00010356,0
2.5885,-0.00012287,0
2.589,-9.2989e-05,0
2.5895,-4.8844e-05,0
2.59,-2.8367e-05,0
2.5905,-1.5106e-05,0
2.591,3.2395e-05,0
2.5915,8.1743e-05,0
2.592,7.4189e-05,0
2.5925,6.8315e-05,0
2.593,9.5506e-05,0
2.5935,0.0001133,0
2.594,7.9728e-05,0
2.5945,5.2033e-06,0
2.595,-5.2537e-05,0
2.5955,-5.2033e-05,0
2.596,-8.7282e-06,0
2.5965,4.0116e-05,0
2.597,8.6946e-05,0
2.5975,0.00011397,0
2.598,9.6513e-05,0
2.5985,5.9922e-05,0
2.599,2.182e-05,0
2.5995,-5.8579e-05,0
2.6,-0.00013545,0
2.6005,-0.00011162,0
2.601,-2.266e-05,0
2.6015,5.2201e-05,0
2.602,7.7043e-05,0
2.6025,-3.6927e-06,0
2.603,-0.00016046,0
2.6035,-0.00021703,0
2.604,-0.00015274,0
2.6045,-9.987e-05,0
2.605,-4.0116e-05,0
2.6055,6.9322e-05,0
2.606,0.00013613,0
2.6065,7.1e-05,0
2.607,-5.9419e-05,0
2.6075,-0.00011296,0
2.608,-3.5752e-05,0
2.6085,9.5842e-05,0
2.609,0.00017171,0
2.6095,0.0001937,0
2.61,0.0002412,0
2.6105,0.00033654,0
2.611,0.00040066,0
2.6115,0.00035232,0
2.612,0.00018497,0
2.6125,-5.0355e-06,0
2.613,-0.00011078,0
2.6135,-0.00011313,0
2.614,-4.4312e-05,0
2.6145,3.6255e-05,0
2.615,8.2246e-05,0
2.6155,8.6442e-05,0
2.616,4.8508e-05,0
2.6165,-1.4939e-05,0
2.617,-5.1194e-05,0
2.6175,-4.213e-05,0
2.618,-2.7863e-05,0
2.6185,-2.7024e-05,0
2.619,-5.1362e-05,0
2.6195,-0.00013848,0
2.62,-0.00020528,0
2.6205,-0.0001749,0
2.621,-0.00010961,0
2.6215,-6.7979e-05,0
2.622,-5.1698e-05,0
2.6225,-5.388e-05,0
2.623,-5.388e-05,0
2.6235,7.2175e-06,0
2.624,0.00015425,0
2.6245,0.0002939,0
2.625,0.00033117,0
2.6255,0.00027041,0
2.626,0.0001801,0
2.6265,0.00010407,0
2.627,3.3234e-05,0
2.6275,-3.3066e-05,0
2.628,-9.5003e-05,0
2.6285,-0.00015509,0
2.629,-0.00025144,0
2.6295,-0.00041694,0
2.63,-0.00056229,0
2.6305,-0.0007006,0
2.631,-0.00075113,0
2.6315,-0.00053141,0
2.632,-0.00010977,0
2.6325,0.00029525,0
2.633,0.00056918,0
2.6335,0.00069104,0
2.634,0.00067861,0
2.6345,0.0005967,0
2.635,0.00050036,0
2.6355,0.00040133,0
2.636,0.00030867,0
2.6365,0.00024758,0
2.637,0.00019319,0
2.6375,0.000118,0
2.638,9.5674e-06,0
2.6385,-0.00010373,0
2.639,-0.00016416,0
2.6395,-0.00016399,0
2.64,-0.00013075,0
2.6405,-7.8218e-05,0
2.641,-1.8463e-05,0
2.6415,1.8967e-05,0
2.642,1.2924e-05,0
2.6425,-2.3835e-05,0
2.643,-6.0594e-05,0
2.6435,-8.6107e-05,0
2.644,-0.00010927,0
2.6445,-0.00014855,0
2.645,-0.0001603,0
2.6455,-0.00010306,0
2.646,-3.122e-05,0
2.6465,5.8747e-06,0
2.647,2.7695e-05,0
2.6475,5.4887e-05,0
2.648,5.0858e-05,0
2.6485,-2.2492e-05,0
2.649,-7.6036e-05,0
2.6495,-1.3764e-05,0
2.65,0.00010306,0
2.6505,0.00017607,0
2.651,0.00017758,0
2.6515,0.00014351,0
2.652,0.00010793,0
2.6525,6.9993e-05,0
2.653,1.5274e-05,0
2.6535,-4.9515e-05,0
2.654,-0.00010977,0
2.6545,-0.00016533,0
2.655,-0.00023046,0
2.6555,-0.00029038,0
2.656,-0.00030498,0
2.6565,-0.00024959,0
2.657,-0.00016432,0
2.6575,-0.000118,0
2.658,-0.00012522,0
2.6585,-8.0232e-05,0
2.659,1.5946e-05,0
2.6595,0.00010776,0
2.66,0.00023079,0
2.6605,0.00037044,0
2.661,0.00048324,0
2.6615,0.00054215,0
2.662,0.00051345,0
2.6625,0.00040368,0
2.663,0.00026973,0
2.6635,0.00017675,0
2.664,9.601e-05,0
2.6645,-1.7624e-05,0
2.665,-0.00011749,0
2.6655,-0.00013999,0
2.666,-0.00010608,0
2.6665,-7.7043e-05,0
2.667,-5.2872e-05,0
2.6675,-1.8967e-05,0
2.668,-5.8747e-06,0
2.6685,-5.4551e-05,0
2.669,-0.0001133,0
2.6695,-9.9702e-05,0
2.67,-3.8773e-05,0
2.6705,1.3932e-05,0
2.671,3.4745e-05,0
2.6715,2.9709e-05,0
2.672,-9.2317e-06,0
2.6725,-8.8289e-05,0
2.673,-0.00013428,0
2.6735,-9.9031e-05,0
2.674,-2.4002e-05,0
2.6745,3.4745e-05,0
2.675,5.623e-05,0
2.6755,7.8889e-06,0
2.676,-7.7714e-05,0
2.6765,-6.865e-05,0
2.677,1.796e-05,0
2.6775,8.6442e-05,0
2.678,0.00010961,0
2.6785,0.00012068,0
2.679,0.00013898,0
2.6795,0.00013478,0
2.68,5.8747e-05,0
2.6805,-1.3596e-05,0
2.681,1.4267e-05,0
2.6815,7.3518e-05,0
2.682,6.2608e-05,0
2.6825,-2.8534e-06,0
2.683,-5.9922e-05,0
2.6835,-0.00011951,0
2.684,-0.00024372,0
2.6845,-0.0003023,0
2.685,-0.00014871,0
2.6855,8.7785e-05,0
2.686,0.00024909,0
2.6865,0.00030515,0
2.687,0.00031539,0
2.6875,0.00033587,0
2.688,0.00034862,0
2.6885,0.00031891,0
2.689,0.00023684,0
2.6895,0.00011884,0
2.69,2.266e-05,0
2.6905,-1.2253e-05,0
2.691,-1.0575e-05,0
2.6915,-3.9109e-05,0
2.692,-0.00010776,0
2.6925,-0.00016902,0
2.693,-0.00021032,0
2.6935,-0.0002459,0
2.694,-0.00023818,0
2.6945,-0.00016281,0
2.695,-7.5029e-05,0
2.6955,6.714e-07,0
2.696,9.3828e-05,0
2.6965,0.00014788,0
2.697,7.2679e-05,0
2.6975,-6.4622e-05,0
2.698,-0.00016197,0
2.6985,-0.00024053,0
2.699,-0.00034191,0
2.6995,-0.00046041,0
2.7,-0.00049549,0
2.7005,-0.00039126,0
2.701,-0.00015224,0
2.7015,0.00013478,0
2.702,0.0003503,0
2.7025,0.00046276,0
2.703,0.00050472,0
2.7035,0.00051513,0
2.704,0.00050187,0
2.7045,0.00044598,0
2.705,0.00033184,0
2.7055,0.00017842,0
2.706,5.8076e-05,0
2.7065,1.5946e-05,0
2.707,2.2828e-05,0
2.7075,3.3402e-05,0
2.708,3.2898e-05,0
2.7085,2.2995e-05,0
2.709,8.392e-07,0
2.7095,-4.0116e-05,0
2.71,-8.3757e-05,0
2.7105,-9.7688e-05,0
2.711,-8.8121e-05,0
2.7115,-9.3156e-05,0
2.712,-0.00011833,0
2.7125,-0.00013059,0
2.713,-0.0001133,0
2.7135,-8.7785e-05,0
2.714,-0.00011598,0
2.7145,-0.00018279,0
2.715,-0.00014553,0
2.7155,1.0407e-05,0
2.716,0.00015291,0
2.7165,0.00022878,0
2.717,0.00024926,0
2.7175,0.00022609,0
2.718,0.00019185,0
2.7185,0.00014603,0
2.719,4.1795e-05,0
2.7195,-9.9702e-05,0
2.72,-0.00018312,0
2.7205,-0.00018094,0
2.721,-0.00012421,0
2.7215,-6.6804e-05,0
2.722,-5.8244e-05,0
2.7225,-5.774e-05,0
2.723,-1.5442e-05,0
2.7235,5.3208e-05,0
2.724,8.8457e-05,0
2.7245,5.6733e-05,0
2.725,1.4939e-05,0
2.7255,1.2589e-05,0
2.726,3.3402e-05,0
2.7265,4.1459e-05,0
2.727,1.1246e-05,0
2.7275,-1.7121e-05,0
2.728,3.8605e-06,0
2.7285,5.7069e-05,0
2.729,8.5267e-05,0
2.7295,6.1601e-05,0
2.73,1.1917e-05,0
2.7305,3.5248e-06,0
2.731,4.5487e-05,0
2.7315,3.9948e-05,0
2.732,-3.8437e-05,0
2.7325,-7.7378e-05,0
2.733,-6.2776e-05,0
2.7335,-8.8121e-05,0
2.734,-0.00013243,0
2.7345,-0.00012152,0
2.735,-4.9851e-05,0
2.7355,6.1936e-05,0
2.736,0.00019185,0
2.7365,0.00026554,0
2.737,0.00027678,0
2.7375,0.00031875,0
2.738,0.0003973,0
2.7385,0.00039965,0
2.739,0.00026571,0
2.7395,8.04e-05,0
2.74,-4.2802e-05,0
2.7405,-8.5267e-05,0
2.741,-0.00013713,0
2.7415,-0.00028551,0
2.742,-0.00040435,0
2.7425,-0.00033133,0
2.743,-0.00014301,0
2.7435,1.1414e-05,0
2.744,7.5532e-05,0
2.7445,9.2485e-05,0
2.745,9.9535e-05,0
2.7455,7.4357e-05,0
2.746,1.1917e-05,0
2.7465,-5.2033e-05,0
2.747,-8.9967e-05,0
2.7475,-9.4499e-05,0
2.748,-5.1194e-05,0
2.7485,3.6088e-05,0
2.749,0.00011464,0
2.7495,0.00017322,0
2.75,0.00020998,0
2.7505,0.00020444,0
2.751,0.00015325,0
2.7515,7.0329e-05,0
2.752,-1.4603e-05,0
2.7525,-9.6178e-05,0
2.753,-0.00018178,0
2.7535,-0.00023096,0
2.754,-0.00017943,0
2.7545,-6.5629e-05,0
2.755,2.9038e-05,0
2.7555,8.5771e-05,0
2.756,0.00011666,0
2.7565,0.00014485,0
2.757,0.00018749,0
2.7575,0.00022072,0
2.758,0.00019672,0
2.7585,0.0001274,0
2.759,4.918e-05,0
2.7595,-4.4648e-05,0
2.76,-7.6371e-05,0
2.7605,-2.5177e-05,0
2.761,3.6423e-05,0
2.7615,5.8747e-05,0
2.762,4.2466e-05,0
2.7625,2.652e-05,0
2.763,2.9374e-05,0
2.7635,2.1317e-05,0
2.764,-1.091e-05,0
2.7645,-4.5151e-05,0
2.765,-6.3783e-05,0
2.7655,-6.7979e-05,0
2.766,-3.7934e-05,0
2.7665,1.8631e-05,0
2.767,6.2776e-05,0
2.7675,7.7714e-05,0
2.768,7.9728e-05,0
2.7685,9.1142e-05,0
2.769,0.00010306,0
2.7695,6.4286e-05,0
2.77,-9.2821e-05,0
2.7705,-0.00031287,0
2.771,-0.00047115,0
2.7715,-0.00050288,0
2.772,-0.00040284,0
2.7725,-0.00020444,0
2.773,1.0071e-05,0
2.7735,6.479e-05,0
2.774,-6.2104e-05,0
2.7745,-0.00014871,0
2.775,-9.6849e-05,0
2.7755,3.3066e-05,0
2.776,0.00016298,0
2.7765,0.00025295,0
2.777,0.00032345,0
2.7775,0.00039696,0
2.778,0.00046947,0
2.7785,0.0005111,0
2.779,0.00046914,0
2.7795,0.00032932,0
2.78,0.00014385,0
2.7805,-8.3925e-06,0
2.781,-5.7572e-05,0
2.7815,-9.2317e-06,0
2.782,3.7095e-05,0
2.7825,3.1052e-05,0
2.783,2.031e-05,0
2.7835,3.1724e-05,0
2.784,-2.1988e-05,0
2.7845,-0.00024221,0
2.785,-0.00049281,0
2.7855,-0.00054618,0
2.786,-0.00043859,0
2.7865,-0.00031841,0
2.787,-0.00014385,0
2.7875,0.00011598,0
2.788,0.00036172,0
2.7885,0.00055642,0
2.789,0.00068466,0
2.7895,0.00065159,0
2.79,0.00042483,0
2.7905,0.00015744,0
2.791,4.1962e-05,0
2.7915,9.1142e-05,0
2.792,0.00015929,0
2.7925,0.00013747,0
2.793,4.0116e-05,0
2.7935,-6.5965e-05,0
2.794,-0.00013965,0
2.7945,-0.00016147,0
2.795,-0.00013596,0
2.7955,-9.601e-05,0
2.796,-6.4958e-05,0
2.7965,-4.9515e-05,0
2.797,-4.7837e-05,0
2.7975,-4.9515e-05,0
2.798,-4.683e-05,0
2.7985,-3.5752e-05,0
2.799,-6.8818e-06,0
2.7995,2.652e-05,0
2.8,5.035e-07,0
2.8005,-0.00011196,0
2.801,-0.00020226,0
2.8015,-0.00023264,0
2.802,-0.00027796,0
2.8025,-0.00029844,0
2.803,-0.00026235,0
2.8035,-0.00020192,0
2.804,-0.00013982,0
2.8045,-0.00010944,0
2.805,-9.0806e-05,0
2.8055,-4.2802e-05,0
2.806,-1.9135e-05,0
2.8065,1.5274e-05,0
2.807,0.00013931,0
2.8075,0.00029155,0
2.808,0.00040401,0
2.8085,0.00048324,0
2.809,0.00051882,0
2.8095,0.0004537,0
2.81,0.00029374,0
2.8105,0.00010256,0
2.811,-5.0523e-05,0
2.8115,-0.00011296,0
2.812,-0.00010256,0
2.8125,-0.00010625,0
2.813,-0.00020427,0
2.8135,-0.00033536,0
2.814,-0.00040922,0
2.8145,-0.00038135,0
2.815,-0.00026168,0
2.8155,-0.0001086,0
2.816,3.3402e-05,0
2.8165,0.00015425,0
2.817,0.00025194,0
2.8175,0.00030263,0
2.818,0.00027477,0
2.8185,0.00014737,0
2.819,-2.2156e-05,0
2.8195,-0.00014553,0
2.82,-0.00013696,0
2.8205,-7.8889e-06,0
2.821,0.00012337,0
2.8215,0.00019319,0
2.822,0.00023348,0
2.8225,0.00028249,0
2.823,0.0003221,0
2.8235,0.00029693,0
2.824,0.00019588,0
2.8245,6.865e-05,0
2.825,-1.4099e-05,0
2.8255,-4.0955e-05,0
2.826,-5.0858e-05,0
2.8265,-7.2175e-05,0
2.827,-0.00014922,0
2.8275,-0.00027276,0
2.828,-0.0002976,0
2.8285,-0.0001989,0
2.829,-8.1407e-05,0
2.8295,-4.6998e-06,0
2.83,2.7863e-05,0
2.8305,2.9709e-05,0
2.831,3.3402e-05,0
2.8315,5.5055e-05,0
2.832,8.4596e-05,0
2.8325,7.9057e-05,0
2.833,3.6088e-05,0
2.8335,-1.9806e-05,0
2.834,-4.9851e-05,0
2.8345,-1.6281e-05,0
2.835,6.4622e-05,0
2.8355,0.00012102,0
2.836,9.3828e-05,0
2.8365,7.7378e-05,0
2.837,0.00011229,0
2.8375,0.00013814,0
2.838,0.00012723,0
2.8385,8.9464e-05,0
2.839,4.2802e-05,0
2.8395,-3.8605e-06,0
2.84,-2.7359e-05,0
2.8405,1.1749e-06,0
2.841,7.2175e-05,0
2.8415,0.00010491,0
2.842,6.2272e-05,0
2.8425,5.8747e-06,0
2.843,-1.8967e-05,0
2.8435,-1.4603e-05,0
2.844,-2.8534e-06,0
2.8445,5.2033e-06,0
2.845,2.8702e-05,0
2.8455,5.5222e-05,0
2.846,4.5655e-05,0
2.8465,1.1749e-06,0
2.847,-4.0452e-05,0
2.8475,-5.8244e-05,0
2.848,-4.3137e-05,0
2.8485,-2.4002e-05,0
2.849,-3.4241e-05,0
2.8495,-7.7882e-05,0
2.85,-0.00012505,0
2.8505,-0.00013747,0
2.851,-0.0001227,0
2.8515,-0.00014066,0
2.852,-0.00021535,0
2.8525,-0.00024254,0
2.853,-0.00015862,0
2.8535,-3.357e-06,0
2.854,0.00016466,0
2.8545,0.00021871,0
2.855,0.00010877,0
2.8555,2.5345e-05,0
2.856,8.3253e-05,0
2.8565,0.00016667,0
2.857,0.00019789,0
2.8575,0.00021199,0
2.858,0.00023449,0
2.8585,0.00023818,0
2.859,0.00015291,0
2.8595,-2.8199e-05,0
2.86,-0.00011917,0
2.8605,-5.7069e-05,0
2.861,2.5849e-05,0
2.8615,3.6088e-05,0
2.862,-5.3712e-06,0
2.8625,5.5558e-05,0
2.863,0.00022123,0
2.8635,0.00035433,0
2.864,0.00037649,0
2.8645,0.00024556,0
2.865,2.7863e-05,0
2.8655,-0.0001331,0
2.866,-0.00014972,0
2.8665,-6.5797e-05,0
2.867,1.9135e-05,0
2.8675,7.2679e-05,0
2.868,7.7043e-05,0
2.8685,2.0646e-05,0
2.869,-4.0452e-05,0
2.8695,-4.8005e-05,0
2.87,-5.2033e-06,0
2.8705,5.1865e-05,0
2.871,9.4835e-05,0
2.8715,0.00010088,0
2.872,5.623e-05,0
2.8725,-1.8967e-05,0
2.873,-9.1142e-05,0
2.8735,-0.00011783,0
2.874,-0.00010222,0
2.8745,-7.4189e-05,0
2.875,-5.2201e-05,0
2.8755,-3.743e-05,0
2.876,-3.1556e-05,0
2.8765,-5.2201e-05,0
2.877,-0.00010826,0
2.8775,-0.00018614,0
2.878,-0.00023717,0
2.8785,-0.000236,0
2.879,-0.00018245,0
2.8795,-9.4835e-05,0
2.88,1.091e-05,0
2.8805,0.00010188,0
2.881,0.00012538,0
2.8815,8.8457e-05,0
2.882,7.9728e-05,0
2.8825,0.00010642,0
2.883,0.00012538,0
2.8835,0.00012958,0
2.884,8.6107e-05,0
2.8845,5.7069e-06,0
2.885,-7.7211e-06,0
2.8855,4.9515e-05,0
2.886,7.7378e-05,0
2.8865,6.5293e-05,0
2.887,7.9393e-05,0
2.8875,0.00010759,0
2.888,0.00011044,0
2.8885,8.3085e-05,0
2.889,1.3092e-05,0
2.8895,-0.00012941,0
2.89,-0.00023885,0
2.8905,-0.0001697,0
2.891,8.5603e-06,0
2.8915,0.0001472,0
2.892,0.00018749,0
2.8925,0.00014821,0
2.893,6.6636e-05,0
2.8935,1.5274e-05,0
2.894,4.6998e-06,0
2.8945,-5.4887e-05,0
2.895,-8.5435e-05,0
2.8955,9.3996e-06,0
2.896,0.0001561,0
2.8965,0.00023046,0
2.897,0.00022341,0
2.8975,0.00019638,0
2.898,0.00014015,0
2.8985,8.04e-05,0
2.899,3.8605e-06,0
2.8995,-0.00010793,0
2.9,-0.00013931,0
2.9005,-5.2201e-05,0
2.901,7.0329e-05,0
2.9015,0.00015056,0
2.902,0.00015476,0
2.9025,0.00011263,0
2.903,7.0329e-05,0
2.9035,3.978e-05,0
2.904,1.6449e-05,0
2.9045,-2.031e-05,0
2.905,-0.00010457,0
2.9055,-0.00023549,0
2.906,-0.00030851,0
2.9065,-0.00029206,0
2.907,-0.00023549,0
2.9075,-0.0001284,0
2.908,4.2802e-05,0
2.9085,0.00021065,0
2.909,0.00033184,0
2.9095,0.00038958,0
2.91,0.00035131,0
2.9105,0.00022542,0
2.911,6.9657e-05,0
2.9115,-4.683e-05,0
2.912,-8.745e-05,0
2.9125,-6.4958e-05,0
2.913,1.678e-07,0
2.9135,7.8218e-05,0
2.914,0.00011699,0
2.9145,0.0001039,0
2.915,5.4048e-05,0
2.9155,4.1962e-06,0
2.916,-1.5946e-05,0
2.9165,-1.5442e-05,0
2.917,-1.6617e-05,0
2.9175,-3.2059e-05,0
2.918,-5.6565e-05,0
2.9185,-9.4499e-05,0
2.919,-0.00016013,0
2.9195,-0.00020276,0
2.92,-0.00018766,0
2.9205,-0.0001415,0
2.921,-9.2989e-05,0
2.9215,-7.7714e-05,0
2.922,-8.8792e-05,0
2.9225,-8.51e-05,0
2.923,-2.7359e-05,0
2.9235,2.9206e-05,0
2.924,4.9515e-05,0
2.9245,0.00011044,0
2.925,0.00021552,0
2.9255,0.00030565,0
2.926,0.00025295,0
2.9265,4.1962e-06,0
2.927,-0.00018682,0
2.9275,-0.00014922,0
2.928,3.6927e-06,0
2.9285,0.00013193,0
2.929,0.00019538,0
2.9295,0.00020612,0
2.93,0.00021233,0
2.9305,0.00024086,0
2.931,0.00025765,0
2.9315,0.00019588,0
2.932,5.9251e-05,0
2.9325,-5.5894e-05,0
2.933,-8.7114e-05,0
2.9335,-7.1e-05,0
2.934,-5.6733e-05,0
2.9345,-5.6565e-05,0
2.935,-6.0929e-05,0
2.9355,-6.3279e-05,0
2.936,-6.5629e-05,0
2.9365,-6.9657e-05,0
2.937,-7.3182e-05,0
2.9375,-7.5364e-05,0
2.938,-8.9296e-05,0
2.9385,-0.0001185,0
2.939,-0.00012387,0
2.9395,-8.1743e-05,0
2.94,-1.2421e-05,0
2.9405,3.8102e-05,0
2.941,4.2298e-05,0
2.9415,2.8367e-05,0
2.942,2.3835e-05,0
2.9425,4.1962e-05,0
2.943,7.8889e-05,0
2.9435,0.00012085,0
2.944,0.00013814,0
2.9445,9.1478e-05,0
2.945,5.035e-07,0
2.9455,-5.8915e-05,0
2.946,-6.0761e-05,0
2.9465,-2.031e-05,0
2.947,1.9638e-05,0
2.9475,4.3137e-05,0
2.948,5.4215e-05,0
2.9485,5.0187e-05,0
2.949,4.4816e-05,0
2.9495,4.7837e-05,0
2.95,2.7192e-05,0
2.9505,-0.00012572,0
2.951,-0.00042953,0
2.9515,-0.00063111,0
2.952,-0.00053141,0
2.9525,-0.00025765,0
2.953,1.9135e-05,0
2.9535,0.00024926,0
2.954,0.00041778,0
2.9545,0.00049633,0
2.955,0.00046444,0
2.9555,0.0003315,0
2.956,0.0001467,0
2.9565,-7.7211e-06,0
2.957,-8.7114e-05,0
2.9575,-9.5506e-05,0
2.958,-6.9993e-05,0
2.9585,-8.3757e-05,0
2.959,-0.00015727,0
2.9595,-0.00022727,0
2.96,-0.00019303,0
2.9605,-1.2085e-05,0
2.961,0.00020377,0
2.9615,0.00034829,0
2.962,0.00037716,0
2.9625,0.00030599,0
2.963,0.00022408,0
2.9635,0.00019319,0
2.964,0.00019319,0
2.9645,0.0001754,0
2.965,0.0001331,0
2.9655,8.04e-05,0
2.966,3.6423e-05,0
2.9665,2.0646e-05,0
2.967,2.9038e-05,0
2.9675,4.0619e-05,0
2.968,3.508e-05,0
2.9685,1.5274e-05,0
2.969,4.1962e-06,0
2.9695,2.8534e-06,0
2.97,2.182e-06,0
2.9705,-1.6785e-06,0
2.971,-1.1078e-05,0
2.9715,-3.827e-05,0
2.972,-8.2078e-05,0
2.9725,-0.00011716,0
2.973,-0.00013008,0
2.9735,-0.00012824,0
2.974,-0.00012387,0
2.9745,-0.00013394,0
2.975,-0.00014351,0
2.9755,-0.000118,0
2.976,-6.1936e-05,0
2.9765,-1.8463e-06,0
2.977,3.5584e-05,0
2.9775,4.1123e-05,0
2.978,3.4745e-05,0
2.9785,6.5965e-05,0
2.979,0.00013327,0
2.9795,0.00017406,0
2.98,0.00015023,0
2.9805,8.9967e-05,0
2.981,2.8702e-05,0
2.9815,-1.6281e-05,0
2.982,-2.9374e-05,0
2.9825,-2.8534e-06,0
2.983,3.9445e-05,0
2.9835,6.1433e-05,0
2.984,5.8076e-05,0
2.9845,3.7262e-05,0
2.985,7.8889e-06,0
2.9855,-1.1582e-05,0
2.986,-7.3854e-06,0
2.9865,5.2033e-06,0
2.987,-5.035e-07,0
2.9875,-3.6088e-05,0
2.988,-7.6707e-05,0
2.9885,-9.0303e-05,0
2.989,-6.0594e-05,0
2.9895,3.0213e-06,0
2.99,6.3279e-05,0
2.9905,7.9057e-05,0
2.991,4.7501e-05,0
2.9915,2.0142e-05,0
2.992,1.4267e-05,0
2.9925,-1.091e-05,0
2.993,-4.0116e-05,0
2.9935,-2.3163e-05,0
2.994,2.1317e-05,0
2.9945,2.8702e-05,0
2.995,-1.326e-05,0
2.9955,-3.2395e-05,0
2.996,3.1724e-05,0
2.9965,0.00013579,0
2.997,0.00022475,0
2.9975,0.00027678,0
2.998,0.00026722,0
2.9985,0.00021736,0
2.999,0.00013277,0
2.9995,2.8534e-06,0
3,-0.00013948,0
3.0005,-0.00023902,0
3.001,-0.00025496,0
3.0015,-0.00024086,0
3.002,-0.00029223,0
3.0025,-0.00041946,0
3.003,-0.00047652,0
3.0035,-0.0003357,0
3.004,-7.956e-05,0
3.0045,0.00014385,0
3.005,0.00021602,0
3.0055,4.7837e-05,0
3.006,-0.00016869,0
3.0065,-0.00016735,0
3.007,2.5345e-05,0
3.0075,0.00022139,0
3.008,0.0003597,0
3.0085,0.00050607,0
3.009,0.00065075,0
3.0095,0.00069725,0
3.01,0.00059469,0
3.0105,0.00036356,0
3.011,8.5435e-05,0
3.0115,-9.2821e-05,0
3.012,-0.00010491,0
3.0125,-5.1194e-05,0
3.013,-5.1362e-05,0
3.0135,-9.4163e-05,0
3.014,-9.3156e-05,0
3.0145,-4.5151e-05,0
3.015,-7.0497e-06,0
3.0155,-7.5532e-06,0
3.016,-5.5894e-05,0
3.0165,-0.00014183,0
3.017,-0.00022458,0
3.0175,-0.00027376,0
3.018,-0.00026252,0
3.0185,-0.00018715,0
3.019,-8.2246e-05,0
3.0195,4.683e-05,0
3.02,0.00017675,0
3.0205,0.00028014,0
3.021,0.00033083,0
3.0215,0.0003023,0
3.022,0.00020562,0
3.0225,8.426e-05,0
3.023,-1.1246e-05,0
3.0235,-5.3208e-05,0
3.024,-4.3977e-05,0
3.0245,-1.0407e-05,0
3.025,1.2421e-05,0
3.0255,1.5946e-05,0
3.026,1.0575e-05,0
3.0265,-1.9303e-05,0
3.027,-8.6442e-05,0
3.0275,-0.00014821,0
3.028,-0.00019554,0
3.0285,-0.0002224,0
3.029,-0.00022055,0
3.0295,-0.00018564,0
3.03,-0.00010675,0
3.0305,5.539e-06,0
3.031,0.00013747,0
3.0315,0.00027041,0
3.032,0.00034829,0
3.0325,0.00034946,0
3.033,0.00028988,0
3.0335,0.00016818,0
3.034,2.8199e-05,0
3.0345,-3.7262e-05,0
3.035,-2.9877e-05,0
3.0355,-3.2395e-05,0
3.036,-5.9419e-05,0
3.0365,-5.6565e-05,0
3.037,-1.6617e-05,0
3.0375,3.0381e-05,0
3.038,6.63e-05,0
3.0385,0.0001086,0
3.039,0.00015862,0
3.0395,0.0001321,0
3.04,3.592e-05,0
3.0405,-4.8676e-06,0
3.041,1.9974e-05,0
3.0415,2.4506e-05,0
3.042,-1.5106e-05,0
3.0425,-6.4622e-05,0
3.043,-0.0001133,0
3.0435,-0.00016298,0
3.044,-0.00020058,0
3.0445,-0.00019538,0
3.045,-0.00014905,0
3.0455,-0.0001039,0
3.046,-8.3421e-05,0
3.0465,-8.04e-05,0
3.047,-7.6707e-05,0
3.0475,-7.1839e-05,0
3.048,-8.5603e-05,0
3.0485,-0.00013294,0
3.049,-0.00017775,0
3.0495,-0.00017037,0
3.05,-0.00013159,0
3.0505,-9.601e-05,0
3.051,-5.5726e-05,0
3.0515,-3.8605e-06,0
3.052,6.9993e-05,0
3.0525,0.00016634,0
3.053,0.00024623,0
3.0535,0.00025631,0
3.054,0.00019571,0
3.0545,9.6345e-05,0
3.055,2.5177e-06,0
3.0555,-3.8437e-05,0
3.056,-7.2175e-06,0
3.0565,6.9657e-05,0
3.057,0.00013814,0
3.0575,0.00018648,0
3.058,0.00020864,0
3.0585,0.00020243,0
3.059,0.00018027,0
3.0595,0.00014267,0
3.06,7.956e-05,0
3.0605,1.326e-05,0
3.061,-2.6184e-05,0
3.0615,-3.508e-05,0
3.062,-3.1388e-05,0
3.0625,-0.00015442,0
3.063,-0.00037565,0
3.0635,-0.000379,0
3.064,-9.2653e-05,0
3.0645,0.00024607,0
3.065,0.00046511,0
3.0655,0.00055508,0
3.066,0.00054366,0
3.0665,0.00043825,0
3.067,0.00024254,0
3.0675,-4.8676e-06,0
3.068,-0.00017691,0
3.0685,-0.0001942,0
3.069,-0.0001237,0
3.0695,-7.0329e-05,0
3.07,-7.8889e-05,0
3.0705,-0.00013042,0
3.071,-0.00016953,0
3.0715,-0.00014015,0
