0,0,0
0.0005,0,0
0.001,0,0
0.0015,0,0
0.002,0,0
0.0025,0,0
0.003,0,0
0.0035,0,0
0.004,0,0
0.0045,0,0
0.005,0,0
0.0055,0,0
0.006,0,0
0.0065,0,0
0.007,0,0
0.0075,0,0
0.008,0,0
0.0085,0,0
0.009,0,0
0.0095,0,0
0.01,0,0
0.0105,0,0
0.011,0,0
0.0115,0,0
0.012,0,0
0.0125,0,0
0.013,4.4144e-05,0
0.0135,5.1362e-05,0
0.014,5.2201e-05,0
0.0145,4.6494e-05,0
0.015,4.213e-05,0
0.0155,4.0452e-05,0
0.016,3.743e-05,0
0.0165,3.3738e-05,0
0.017,2.9038e-05,0
0.0175,2.3499e-05,0
0.018,2.0981e-05,0
0.0185,1.9638e-05,0
0.019,1.7121e-05,0
0.0195,1.6953e-05,0
0.02,1.5778e-05,0
0.0205,1.326e-05,0
0.021,1.326e-05,0
0.0215,1.4099e-05,0
0.022,1.4939e-05,0
0.0225,1.561e-05,0
0.023,1.6281e-05,0
0.0235,1.4267e-05,0
0.024,4.5319e-06,0
0.0245,-3.5248e-06,0
0.025,-5.035e-07,0
0.0255,1.2421e-05,0
0.026,2.4002e-05,0
0.0265,2.7359e-05,0
0.027,3.0045e-05,0
0.0275,3.1724e-05,0
0.028,3.0716e-05,0
0.0285,3.4073e-05,0
0.029,3.5752e-05,0
0.0295,3.3402e-05,0
0.03,3.7095e-05,0
0.0305,3.743e-05,0
0.031,3.4073e-05,0
0.0315,3.5416e-05,0
0.032,3.4745e-05,0
0.0325,3.0381e-05,0
0.033,2.7527e-05,0
0.0335,2.7863e-05,0
0.034,2.7695e-05,0
0.0345,2.9206e-05,0
0.035,3.0381e-05,0
0.0355,2.5681e-05,0
0.036,2.1317e-05,0
0.0365,2.3331e-05,0
0.037,2.9374e-05,0
0.0375,3.122e-05,0
0.038,2.7192e-05,0
0.0385,2.2324e-05,0
0.039,1.9806e-05,0
0.0395,1.5946e-05,0
0.04,1.6953e-05,0
0.0405,1.7288e-05,0
0.041,1.1749e-05,0
0.0415,9.0639e-06,0
0.042,7.0497e-06,0
0.0425,8.896e-06,0
0.043,1.9806e-05,0
0.0435,2.4842e-05,0
0.044,2.1317e-05,0
0.0445,1.8967e-05,0
0.045,1.3932e-05,0
0.0455,1.4267e-05,0
0.046,1.7121e-05,0
0.0465,1.5778e-05,0
0.047,9.5674e-06,0
0.0475,5.8747e-06,0
0.048,9.0639e-06,0
0.0485,1.1749e-05,0
0.049,1.1414e-05,0
0.0495,1.2253e-05,0
0.05,1.3932e-05,0
0.0505,1.2421e-05,0
0.051,1.091e-05,0
0.0515,1.1917e-05,0
0.052,1.3932e-05,0
0.0525,1.4603e-05,0
0.053,1.5274e-05,0
0.0535,9.9031e-06,0
0.054,3.8605e-06,0
0.0545,4.5319e-06,0
0.055,1.3428e-06,0
0.0555,-1.8463e-06,0
0.056,3.8605e-06,0
0.0565,7.3854e-06,0
0.057,5.7069e-06,0
0.0575,6.5461e-06,0
0.058,4.0284e-06,0
0.0585,3.6927e-06,0
0.059,9.9031e-06,0
0.0595,1.5274e-05,0
0.06,1.2421e-05,0
0.0605,2.6856e-06,0
0.061,2.0142e-06,0
0.0615,9.3996e-06,0
0.062,1.4939e-05,0
0.0625,1.3764e-05,0
0.063,1.561e-05,0
0.0635,1.9303e-05,0
0.064,2.1149e-05,0
0.0645,2.3163e-05,0
0.065,2.7359e-05,0
0.0655,2.8702e-05,0
0.066,2.7359e-05,0
0.0665,2.1317e-05,0
0.067,1.6617e-05,0
0.0675,1.9974e-05,0
0.068,1.8296e-05,0
0.0685,1.3932e-05,0
0.069,1.7624e-05,0
0.0695,2.1988e-05,0
0.07,2.3331e-05,0
0.0705,2.5849e-05,0
0.071,2.3163e-05,0
0.0715,2.0142e-05,0
0.072,2.1988e-05,0
0.0725,2.6017e-05,0
0.073,2.6017e-05,0
0.0735,2.2156e-05,0
0.074,2.2324e-05,0
0.0745,2.7863e-05,0
0.075,3.3738e-05,0
0.0755,3.4241e-05,0
0.076,2.8702e-05,0
0.0765,2.7024e-05,0
0.077,2.9206e-05,0
0.0775,2.7863e-05,0
0.078,2.7192e-05,0
0.0785,2.9374e-05,0
0.079,3.0716e-05,0
0.0795,2.5009e-05,0
0.08,2.0646e-05,0
0.0805,2.6688e-05,0
0.081,3.0213e-05,0
0.0815,2.8031e-05,0
0.082,3.0045e-05,0
0.0825,3.2059e-05,0
0.083,3.3234e-05,0
0.0835,3.5752e-05,0
0.084,3.3738e-05,0
0.0845,3.4577e-05,0
0.085,3.7934e-05,0
0.0855,3.4409e-05,0
0.086,2.7359e-05,0
0.0865,2.1988e-05,0
0.087,1.9638e-05,0
0.0875,2.0981e-05,0
0.088,2.3163e-05,0
0.0885,2.4338e-05,0
0.089,2.1317e-05,0
0.0895,1.5946e-05,0
0.09,1.326e-05,0
0.0905,1.5274e-05,0
0.091,1.6617e-05,0
0.0915,1.326e-05,0
0.092,1.3932e-05,0
0.0925,1.561e-05,0
0.093,1.6449e-05,0
0.0935,1.9974e-05,0
0.094,1.7624e-05,0
0.0945,1.2253e-05,0
0.095,1.2757e-05,0
0.0955,1.0407e-05,0
0.096,8.7282e-06,0
0.0965,1.2589e-05,0
0.097,9.5674e-06,0
0.0975,4.0284e-06,0
0.098,5.7069e-06,0
0.0985,8.896e-06,0
0.099,1.0239e-05,0
0.0995,9.0639e-06,0
0.1,8.2246e-06,0
0.1005,1.0575e-05,0
0.101,1.3596e-05,0
0.1015,1.3092e-05,0
0.102,1.1414e-05,0
0.1025,1.0575e-05,0
0.103,8.2246e-06,0
0.1035,6.5461e-06,0
0.104,1.1749e-05,0
0.1045,1.561e-05,0
0.105,1.6617e-05,0
0.1055,1.1749e-05,0
0.106,9.3996e-06,0
0.1065,1.6617e-05,0
0.107,1.9974e-05,0
0.1075,2.2995e-05,0
0.108,3.3066e-05,0
0.1085,3.6423e-05,0
0.109,3.6927e-05,0
0.1095,4.0452e-05,0
0.11,3.6088e-05,0
0.1105,2.8534e-05,0
0.111,2.6017e-05,0
0.1115,2.4674e-05,0
0.112,2.1988e-05,0
0.1125,2.0646e-05,0
0.113,2.0646e-05,0
0.1135,2.031e-05,0
0.114,1.9303e-05,0
0.1145,1.7456e-05,0
0.115,1.5946e-05,0
0.1155,1.4603e-05,0
0.116,1.2421e-05,0
0.1165,1.091e-05,0
0.117,1.3596e-05,0
0.1175,1.561e-05,0
0.118,1.4267e-05,0
0.1185,8.896e-06,0
0.119,6.3783e-06,0
0.1195,1.3428e-05,0
0.12,1.6281e-05,0
0.1205,1.091e-05,0
0.121,9.2317e-06,0
0.1215,1.1582e-05,0
0.122,1.7121e-05,0
0.1225,2.3331e-05,0
0.123,1.6617e-05,0
0.1235,8.896e-06,0
0.124,1.0239e-05,0
0.1245,1.0575e-05,0
0.125,8.2246e-06,0
0.1255,8.896e-06,0
0.126,9.9031e-06,0
0.1265,9.2317e-06,0
0.127,8.2246e-06,0
0.1275,7.2175e-06,0
0.128,8.5603e-06,0
0.1285,9.2317e-06,0
0.129,8.2246e-06,0
0.1295,7.8889e-06,0
0.13,7.2175e-06,0
0.1305,9.2317e-06,0
0.131,1.7288e-05,0
0.1315,1.8463e-05,0
0.132,1.5274e-05,0
0.1325,2.1317e-05,0
0.133,2.3163e-05,0
0.1335,1.8967e-05,0
0.134,2.0813e-05,0
0.1345,2.0646e-05,0
0.135,1.7288e-05,0
0.1355,1.8799e-05,0
0.136,1.9974e-05,0
0.1365,1.9303e-05,0
0.137,2.0981e-05,0
0.1375,2.1317e-05,0
0.138,2.1317e-05,0
0.1385,2.4338e-05,0
0.139,3.0381e-05,0
0.1395,3.2227e-05,0
0.14,2.9038e-05,0
0.1405,2.4338e-05,0
0.141,2.2995e-05,0
0.1415,2.5345e-05,0
0.142,3.122e-05,0
0.1425,3.6088e-05,0
0.143,3.7262e-05,0
0.1435,3.592e-05,0
0.144,3.8102e-05,0
0.1445,3.6088e-05,0
0.145,2.9709e-05,0
0.1455,3.0716e-05,0
0.146,3.4409e-05,0
0.1465,3.1388e-05,0
0.147,2.5681e-05,0
0.1475,1.7624e-05,0
0.148,1.2253e-05,0
0.1485,1.8463e-05,0
0.149,2.182e-05,0
0.1495,1.5274e-05,0
0.15,1.1749e-05,0
0.1505,1.326e-05,0
0.151,1.3764e-05,0
0.1515,1.2924e-05,0
0.152,1.091e-05,0
0.1525,9.9031e-06,0
0.153,1.0575e-05,0
0.1535,1.2757e-05,0
0.154,1.6617e-05,0
0.1545,2.0981e-05,0
0.155,1.9974e-05,0
0.1555,1.8463e-05,0
0.156,1.9135e-05,0
0.1565,1.8463e-05,0
0.157,2.266e-05,0
0.1575,2.8031e-05,0
0.158,2.6017e-05,0
0.1585,2.5681e-05,0
0.159,2.4002e-05,0
0.1595,1.9974e-05,0
0.16,2.2995e-05,0
0.1605,2.3667e-05,0
0.161,2.1317e-05,0
0.1615,2.266e-05,0
0.162,1.947e-05,0
0.1625,1.6281e-05,0
0.163,1.8296e-05,0
0.1635,1.8463e-05,0
0.164,1.5274e-05,0
0.1645,1.326e-05,0
0.165,1.3932e-05,0
0.1655,1.7288e-05,0
0.166,1.9974e-05,0
0.1665,1.796e-05,0
0.167,1.2924e-05,0
0.1675,1.1414e-05,0
0.168,9.9031e-06,0
0.1685,6.3783e-06,0
0.169,4.5319e-06,0
0.1695,6.2104e-06,0
0.17,9.7353e-06,0
0.1705,7.8889e-06,0
0.171,2.8534e-06,0
0.1715,5.2033e-06,0
0.172,6.8818e-06,0
0.1725,5.2033e-06,0
0.173,5.2033e-06,0
0.1735,2.5177e-06,0
0.174,3.5248e-06,0
0.1745,1.091e-05,0
0.175,1.0407e-05,0
0.1755,7.2175e-06,0
0.176,9.9031e-06,0
0.1765,1.5274e-05,0
0.177,1.8631e-05,0
0.1775,1.796e-05,0
0.178,1.2589e-05,0
0.1785,8.7282e-06,0
0.179,1.4267e-05,0
0.1795,2.182e-05,0
0.18,2.5345e-05,0
0.1805,3.0045e-05,0
0.181,3.4745e-05,0
0.1815,3.6759e-05,0
0.182,3.1891e-05,0
0.1825,2.8702e-05,0
0.183,3.0884e-05,0
0.1835,2.5177e-05,0
0.184,1.8128e-05,0
0.1845,2.2156e-05,0
0.185,2.5345e-05,0
0.1855,2.6017e-05,0
0.186,3.0381e-05,0
0.1865,2.7695e-05,0
0.187,2.4002e-05,0
0.1875,3.0381e-05,0
0.188,3.3738e-05,0
0.1885,2.9374e-05,0
0.189,3.0716e-05,0
0.1895,3.2898e-05,0
0.19,3.0381e-05,0
0.1905,2.5681e-05,0
0.191,1.8128e-05,0
0.1915,1.4603e-05,0
0.192,1.8967e-05,0
0.1925,2.4002e-05,0
0.193,2.5681e-05,0
0.1935,2.5009e-05,0
0.194,2.5681e-05,0
0.1945,2.9877e-05,0
0.195,3.1724e-05,0
0.1955,2.9374e-05,0
0.196,3.0381e-05,0
0.1965,2.9206e-05,0
0.197,2.7024e-05,0
0.1975,2.5849e-05,0
0.198,2.031e-05,0
0.1985,1.7288e-05,0
0.199,2.4506e-05,0
0.1995,2.266e-05,0
0.2,1.0575e-05,0
0.2005,7.8889e-06,0
0.201,1.1246e-05,0
0.2015,1.2421e-05,0
0.202,1.4435e-05,0
0.2025,1.796e-05,0
0.203,2.4002e-05,0
0.2035,3.2395e-05,0
0.204,3.5416e-05,0
0.2045,3.0884e-05,0
0.205,2.2156e-05,0
0.2055,1.9303e-05,0
0.206,1.8967e-05,0
0.2065,1.8631e-05,0
0.207,1.9303e-05,0
0.2075,1.6953e-05,0
0.208,1.326e-05,0
0.2085,1.091e-05,0
0.209,1.4939e-05,0
0.2095,1.3764e-05,0
0.21,9.3996e-06,0
0.2105,1.561e-05,0
0.211,1.7288e-05,0
0.2115,1.561e-05,0
0.212,2.0646e-05,0
0.2125,1.9974e-05,0
0.213,1.4603e-05,0
0.2135,1.2253e-05,0
0.214,6.8818e-06,0
0.2145,7.5532e-06,0
0.215,1.8128e-05,0
0.2155,2.2995e-05,0
0.216,1.9638e-05,0
0.2165,1.4939e-05,0
0.217,1.1749e-05,0
0.2175,8.7282e-06,0
0.218,7.5532e-06,0
0.2185,8.896e-06,0
0.219,1.1582e-05,0
0.2195,1.2253e-05,0
0.22,1.0407e-05,0
0.2205,1.2924e-05,0
0.221,1.947e-05,0
0.2215,2.4674e-05,0
0.222,2.0646e-05,0
0.2225,8.896e-06,0
0.223,1.5106e-06,0
0.2235,1.0575e-05,0
0.224,1.8631e-05,0
0.2245,2.1317e-05,0
0.225,2.8031e-05,0
0.2255,3.0045e-05,0
0.226,3.122e-05,0
0.2265,3.8941e-05,0
0.227,3.5416e-05,0
0.2275,2.4674e-05,0
0.228,1.9303e-05,0
0.2285,2.1317e-05,0
0.229,2.7527e-05,0
0.2295,3.3066e-05,0
0.23,3.3402e-05,0
0.2305,2.8367e-05,0
0.231,2.1988e-05,0
0.2315,1.9638e-05,0
0.232,1.9974e-05,0
0.2325,2.1988e-05,0
0.233,2.031e-05,0
0.2335,1.7792e-05,0
0.234,1.9303e-05,0
0.2345,2.0981e-05,0
0.235,1.9974e-05,0
0.2355,1.2253e-05,0
0.236,6.5461e-06,0
0.2365,1.2253e-05,0
0.237,1.4435e-05,0
0.2375,1.1246e-05,0
0.238,1.4939e-05,0
0.2385,1.8296e-05,0
0.239,1.7624e-05,0
0.2395,2.3331e-05,0
0.24,2.3331e-05,0
0.2405,1.8296e-05,0
0.241,1.8631e-05,0
0.2415,1.9974e-05,0
0.242,1.5274e-05,0
0.2425,1.0239e-05,0
0.243,1.1917e-05,0
0.2435,1.4099e-05,0
0.244,1.5946e-05,0
0.2445,1.8631e-05,0
0.245,1.796e-05,0
0.2455,1.0239e-05,0
0.246,2.8534e-06,0
0.2465,4.5319e-06,0
0.247,1.0407e-05,0
0.2475,1.0407e-05,0
0.248,8.5603e-06,0
0.2485,1.0239e-05,0
0.249,1.5442e-05,0
0.2495,2.5345e-05,0
0.25,2.9709e-05,0
0.2505,2.9374e-05,0
0.251,3.3066e-05,0
0.2515,3.1724e-05,0
0.252,2.6017e-05,0
0.2525,2.266e-05,0
0.253,1.6785e-05,0
0.2535,1.5946e-05,0
0.254,2.1988e-05,0
0.2545,2.3163e-05,0
0.255,1.9135e-05,0
0.2555,1.8799e-05,0
0.256,2.6017e-05,0
0.2565,3.4073e-05,0
0.257,3.2731e-05,0
0.2575,3.1388e-05,0
0.258,3.1052e-05,0
0.2585,2.6688e-05,0
0.259,2.0981e-05,0
0.2595,1.4939e-05,0
0.26,1.1582e-05,0
0.2605,7.8889e-06,0
0.261,7.8889e-06,0
0.2615,7.8889e-06,0
0.262,7.5532e-06,0
0.2625,1.4099e-05,0
0.263,1.4603e-05,0
0.2635,9.0639e-06,0
0.264,6.0426e-06,0
0.2645,1.0071e-06,0
0.265,-4.1962e-06,0
0.2655,-6.2104e-06,0
0.266,-9.9031e-06,0
0.2665,-9.2317e-06,0
0.267,-1.1749e-06,0
0.2675,1.5106e-06,0
0.268,-2.8534e-06,0
0.2685,-5.539e-06,0
0.269,-6.8818e-06,0
0.2695,-5.8747e-06,0
0.27,-2.8534e-06,0
0.2705,-6.714e-07,0
0.271,3.0213e-06,0
0.2715,9.5674e-06,0
0.272,1.5274e-05,0
0.2725,1.9974e-05,0
0.273,2.0646e-05,0
0.2735,1.5274e-05,0
0.274,1.561e-05,0
0.2745,1.9974e-05,0
0.275,2.2995e-05,0
0.2755,2.8534e-05,0
0.276,3.0045e-05,0
0.2765,2.8367e-05,0
0.277,2.9374e-05,0
0.2775,2.7527e-05,0
0.278,2.5849e-05,0
0.2785,2.9374e-05,0
0.279,2.8702e-05,0
0.2795,2.7359e-05,0
0.28,2.9877e-05,0
0.2805,3.2563e-05,0
0.281,3.3402e-05,0
0.2815,3.592e-05,0
0.282,3.8773e-05,0
0.2825,3.6927e-05,0
0.283,3.3402e-05,0
0.2835,3.3738e-05,0
0.284,3.9445e-05,0
0.2845,4.3473e-05,0
0.285,4.213e-05,0
0.2855,3.6927e-05,0
0.286,3.3066e-05,0
0.2865,3.0381e-05,0
0.287,3.1388e-05,0
0.2875,3.0213e-05,0
0.288,2.4674e-05,0
0.2885,2.887e-05,0
0.289,3.3402e-05,0
0.2895,3.2059e-05,0
0.29,3.4577e-05,0
0.2905,3.5752e-05,0
0.291,3.3066e-05,0
0.2915,3.2731e-05,0
0.292,3.1052e-05,0
0.2925,3.0716e-05,0
0.293,3.2395e-05,0
0.2935,3.1388e-05,0
0.294,2.8702e-05,0
0.2945,2.3331e-05,0
0.295,1.326e-05,0
0.2955,4.5319e-06,0
0.296,2.3499e-06,0
0.2965,4.6998e-06,0
0.297,8.896e-06,0
0.2975,9.9031e-06,0
0.298,1.2085e-05,0
0.2985,1.8631e-05,0
0.299,2.4002e-05,0
0.2995,2.4842e-05,0
0.3,2.4338e-05,0
0.3005,2.1317e-05,0
0.301,1.4603e-05,0
0.3015,1.7624e-05,0
0.302,2.4002e-05,0
0.3025,2.8367e-05,0
0.303,3.2059e-05,0
0.3035,3.1052e-05,0
0.304,3.0716e-05,0
0.3045,3.2395e-05,0
0.305,2.6017e-05,0
0.3055,1.9135e-05,0
0.306,2.0478e-05,0
0.3065,2.0478e-05,0
0.307,1.6281e-05,0
0.3075,1.4267e-05,0
0.308,1.6785e-05,0
0.3085,2.2156e-05,0
0.309,2.3331e-05,0
0.3095,2.0981e-05,0
0.31,1.6617e-05,0
0.3105,9.5674e-06,0
0.311,6.2104e-06,0
0.3115,9.7353e-06,0
0.312,1.2253e-05,0
0.3125,6.8818e-06,0
0.313,3.6927e-06,0
0.3135,1.8463e-06,0
0.314,-2.5177e-06,0
0.3145,3.1891e-06,0
0.315,6.0426e-06,0
0.3155,5.035e-07,0
0.316,2.3499e-06,0
0.3165,5.8747e-06,0
0.317,1.0575e-05,0
0.3175,1.5946e-05,0
0.318,9.5674e-06,0
0.3185,2.182e-06,0
0.319,3.357e-06,0
0.3195,6.5461e-06,0
0.32,6.5461e-06,0
0.3205,3.8605e-06,0
0.321,-1.3428e-06,0
0.3215,-1.091e-05,0
0.322,-2.3667e-05,0
0.3225,-3.1724e-05,0
0.323,-2.9038e-05,0
0.3235,-2.2828e-05,0
0.324,-2.182e-05,0
0.3245,-1.9806e-05,0
0.325,-1.091e-05,0
0.3255,-1.1749e-06,0
0.326,4.6998e-06,0
0.3265,7.2175e-06,0
0.327,1.0239e-05,0
0.3275,1.9974e-05,0
0.328,2.6688e-05,0
0.3285,2.8199e-05,0
0.329,3.1052e-05,0
0.3295,2.9374e-05,0
0.33,2.5345e-05,0
0.3305,2.5849e-05,0
0.331,2.0813e-05,0
0.3315,1.9638e-05,0
0.332,2.7359e-05,0
0.3325,3.1724e-05,0
0.333,3.5752e-05,0
0.3335,3.978e-05,0
0.334,3.8941e-05,0
0.3345,3.9445e-05,0
0.335,4.1291e-05,0
0.3355,4.3809e-05,0
0.336,4.3473e-05,0
0.3365,4.3305e-05,0
0.337,4.1962e-05,0
0.3375,3.978e-05,0
0.338,3.6088e-05,0
0.3385,3.3234e-05,0
0.339,3.7095e-05,0
0.3395,3.8773e-05,0
0.34,3.5752e-05,0
0.3405,3.4073e-05,0
0.341,2.6352e-05,0
0.3415,1.7624e-05,0
0.342,1.7288e-05,0
0.3425,1.7792e-05,0
0.343,1.9806e-05,0
0.3435,2.652e-05,0
0.344,2.4506e-05,0
0.3445,1.6785e-05,0
0.345,1.5778e-05,0
0.3455,1.9974e-05,0
0.346,2.4506e-05,0
0.3465,2.8031e-05,0
0.347,3.0716e-05,0
0.3475,3.1388e-05,0
0.348,3.0884e-05,0
0.3485,2.8702e-05,0
0.349,2.8534e-05,0
0.3495,2.9374e-05,0
0.35,3.2395e-05,0
0.3505,3.5584e-05,0
0.351,3.9445e-05,0
0.3515,4.4144e-05,0
0.352,4.8173e-05,0
0.3525,4.6998e-05,0
0.353,4.1795e-05,0
0.3535,4.213e-05,0
0.354,3.827e-05,0
0.3545,3.1724e-05,0
0.355,2.9374e-05,0
0.3555,2.1988e-05,0
0.356,1.4603e-05,0
0.3565,1.561e-05,0
0.357,1.1917e-05,0
0.3575,1.1582e-05,0
0.358,1.6617e-05,0
0.3585,1.7792e-05,0
0.359,1.5274e-05,0
0.3595,1.2924e-05,0
0.36,1.326e-05,0
0.3605,1.326e-05,0
0.361,1.4771e-05,0
0.3615,1.8967e-05,0
0.362,1.947e-05,0
0.3625,1.9303e-05,0
0.363,2.0981e-05,0
0.3635,2.2324e-05,0
0.364,2.5681e-05,0
0.3645,2.7192e-05,0
0.365,2.8702e-05,0
0.3655,3.2731e-05,0
0.366,3.8773e-05,0
0.3665,4.5319e-05,0
0.367,3.9948e-05,0
0.3675,3.1388e-05,0
0.368,3.2731e-05,0
0.3685,3.0549e-05,0
0.369,2.5513e-05,0
0.3695,2.6017e-05,0
0.37,2.5345e-05,0
0.3705,2.5681e-05,0
0.371,3.0045e-05,0
0.3715,3.1556e-05,0
0.372,3.1388e-05,0
0.3725,3.2059e-05,0
0.373,3.0213e-05,0
0.3735,2.7024e-05,0
0.374,2.8534e-05,0
0.3745,3.1052e-05,0
0.375,2.7024e-05,0
0.3755,1.9974e-05,0
0.376,1.8463e-05,0
0.3765,2.2995e-05,0
0.377,2.7527e-05,0
0.3775,2.7192e-05,0
0.378,3.0381e-05,0
0.3785,3.2731e-05,0
0.379,3.1388e-05,0
0.3795,3.4409e-05,0
0.38,3.2731e-05,0
0.3805,3.0045e-05,0
0.381,3.7095e-05,0
0.3815,3.978e-05,0
0.382,3.6759e-05,0
0.3825,3.0045e-05,0
0.383,1.7288e-05,0
0.3835,9.0639e-06,0
0.384,1.2589e-05,0
0.3845,1.8296e-05,0
0.385,1.5442e-05,0
0.3855,9.3996e-06,0
0.386,6.2104e-06,0
0.3865,4.5319e-06,0
0.387,6.714e-07,0
0.3875,3.357e-07,0
0.388,1.8463e-06,0
0.3885,-3.5248e-06,0
0.389,-1.4435e-05,0
0.3895,-1.9638e-05,0
0.39,-1.8967e-05,0
0.3905,-1.9974e-05,0
0.391,-1.6953e-05,0
0.3915,-1.1749e-05,0
0.392,-8.896e-06,0
0.3925,-8.2246e-06,0
0.393,-1.3764e-05,0
0.3935,-1.8296e-05,0
0.394,-1.1582e-05,0
0.3945,-8.3925e-06,0
0.395,-8.5603e-06,0
0.3955,-5.2033e-06,0
0.396,-3.5248e-06,0
0.3965,-3.5248e-06,0
0.397,-1.0071e-06,0
0.3975,1.6785e-06,0
0.398,6.5461e-06,0
0.3985,1.2924e-05,0
0.399,1.4435e-05,0
0.3995,1.2421e-05,0
0.4,1.1246e-05,0
0.4005,8.5603e-06,0
0.401,3.6927e-06,0
0.4015,1.678e-07,0
0.402,5.035e-07,0
0.4025,1.0071e-06,0
0.403,1.1749e-06,0
0.4035,3.5248e-06,0
0.404,4.5319e-06,0
0.4045,1.6785e-06,0
0.405,-6.714e-07,0
0.4055,5.8747e-06,0
0.406,1.2589e-05,0
0.4065,2.1317e-05,0
0.407,3.1388e-05,0
0.4075,2.8534e-05,0
0.408,1.7624e-05,0
0.4085,1.3596e-05,0
0.409,1.2924e-05,0
0.4095,1.4267e-05,0
0.41,1.6281e-05,0
0.4105,1.3092e-05,0
0.411,1.0575e-05,0
0.4115,9.2317e-06,0
0.412,1.0239e-05,0
0.4125,1.2421e-05,0
0.413,1.7624e-05,0
0.4135,2.4002e-05,0
0.414,2.8031e-05,0
0.4145,2.887e-05,0
0.415,2.652e-05,0
0.4155,2.266e-05,0
0.416,1.9974e-05,0
0.4165,1.9303e-05,0
0.417,1.9974e-05,0
0.4175,1.947e-05,0
0.418,1.8967e-05,0
0.4185,2.4674e-05,0
0.419,2.5681e-05,0
0.4195,2.5345e-05,0
0.42,3.1388e-05,0
0.4205,3.3738e-05,0
0.421,3.3234e-05,0
0.4215,3.6591e-05,0
0.422,3.4745e-05,0
0.4225,3.1891e-05,0
0.423,3.743e-05,0
0.4235,4.2298e-05,0
0.424,4.0116e-05,0
0.4245,3.6927e-05,0
0.425,3.6088e-05,0
0.4255,3.7934e-05,0
0.426,3.5248e-05,0
0.4265,2.9038e-05,0
0.427,2.8031e-05,0
0.4275,2.9877e-05,0
0.428,2.7863e-05,0
0.4285,2.652e-05,0
0.429,2.8031e-05,0
0.4295,2.9206e-05,0
0.43,3.0549e-05,0
0.4305,2.9206e-05,0
0.431,2.3331e-05,0
0.4315,2.4002e-05,0
0.432,2.7359e-05,0
0.4325,2.8367e-05,0
0.433,2.9038e-05,0
0.4335,2.4002e-05,0
0.434,2.1317e-05,0
0.4345,2.4506e-05,0
0.435,1.947e-05,0
0.4355,1.326e-05,0
0.436,1.2589e-05,0
0.4365,1.3092e-05,0
0.437,1.2589e-05,0
0.4375,1.2589e-05,0
0.438,1.326e-05,0
0.4385,1.2924e-05,0
0.439,1.2421e-05,0
0.4395,1.1582e-05,0
0.44,1.1246e-05,0
0.4405,1.4603e-05,0
0.441,1.7288e-05,0
0.4415,1.9974e-05,0
0.442,2.0478e-05,0
0.4425,1.5946e-05,0
0.443,1.4267e-05,0
0.4435,8.5603e-06,0
0.444,6.714e-07,0
0.4445,3.1891e-06,0
0.445,5.7069e-06,0
0.4455,5.7069e-06,0
0.446,8.896e-06,0
0.4465,7.8889e-06,0
0.447,6.5461e-06,0
0.4475,9.9031e-06,0
0.448,1.1078e-05,0
0.4485,1.1917e-05,0
0.449,1.561e-05,0
0.4495,1.5946e-05,0
0.45,1.2589e-05,0
0.4505,1.1246e-05,0
0.451,1.4939e-05,0
0.4515,1.947e-05,0
0.452,1.8631e-05,0
0.4525,1.326e-05,0
0.453,5.8747e-06,0
0.4535,2.5177e-06,0
0.454,4.5319e-06,0
0.4545,8.896e-06,0
0.455,9.2317e-06,0
0.4555,6.5461e-06,0
0.456,6.714e-06,0
0.4565,9.0639e-06,0
0.457,1.091e-05,0
0.4575,1.4603e-05,0
0.458,1.2253e-05,0
0.4585,1.4603e-05,0
0.459,2.2324e-05,0
0.4595,2.266e-05,0
0.46,2.1317e-05,0
0.4605,2.887e-05,0
0.461,2.7359e-05,0
0.4615,2.0478e-05,0
0.462,2.031e-05,0
0.4625,2.6017e-05,0
0.463,3.0884e-05,0
0.4635,3.2731e-05,0
0.464,3.5752e-05,0
0.4645,4.1123e-05,0
0.465,4.6662e-05,0
0.4655,4.683e-05,0
0.466,4.6998e-05,0
0.4665,5.0523e-05,0
0.467,5.2201e-05,0
0.4675,4.5823e-05,0
0.468,3.743e-05,0
0.4685,3.1724e-05,0
0.469,2.7192e-05,0
0.4695,2.0646e-05,0
0.47,1.7792e-05,0
0.4705,2.266e-05,0
0.471,2.0142e-05,0
0.4715,8.896e-06,0
0.472,3.1891e-06,0
0.4725,1.8463e-06,0
0.473,5.035e-07,0
0.4735,-1.0071e-06,0
0.474,-6.3783e-06,0
0.4745,-8.896e-06,0
0.475,-7.2175e-06,0
0.4755,-4.3641e-06,0
0.476,-1.678e-07,0
0.4765,2.8534e-06,0
0.477,4.5319e-06,0
0.4775,5.8747e-06,0
0.478,6.2104e-06,0
0.4785,8.2246e-06,0
0.479,1.6449e-05,0
0.4795,2.3667e-05,0
0.48,2.5681e-05,0
0.4805,2.9374e-05,0
0.481,3.5416e-05,0
0.4815,3.7262e-05,0
0.482,3.827e-05,0
0.4825,3.5752e-05,0
0.483,3.0381e-05,0
0.4835,3.2059e-05,0
0.484,3.3066e-05,0
0.4845,3.2395e-05,0
0.485,3.592e-05,0
0.4855,3.3402e-05,0
0.486,2.9877e-05,0
0.4865,3.0381e-05,0
0.487,2.5345e-05,0
0.4875,1.796e-05,0
0.488,1.7456e-05,0
0.4885,1.6953e-05,0
0.489,1.4603e-05,0
0.4895,1.2589e-05,0
0.49,1.4267e-05,0
0.4905,1.5946e-05,0
0.491,1.3428e-05,0
0.4915,1.0071e-05,0
0.492,9.2317e-06,0
0.4925,9.9031e-06,0
0.493,1.6617e-05,0
0.4935,2.3667e-05,0
0.494,2.1317e-05,0
0.4945,1.6953e-05,0
0.495,1.8967e-05,0
0.4955,1.796e-05,0
0.496,1.3932e-05,0
0.4965,1.7121e-05,0
0.497,1.9303e-05,0
0.4975,2.031e-05,0
0.498,2.6184e-05,0
0.4985,2.6184e-05,0
0.499,2.5177e-05,0
0.4995,2.9877e-05,0
0.5,3.0716e-05,0
0.5005,3.0045e-05,0
0.501,3.2563e-05,0
0.5015,3.5584e-05,0
0.502,3.3066e-05,0
0.5025,2.4002e-05,0
0.503,1.3932e-05,0
0.5035,1.1078e-05,0
0.504,9.5674e-06,0
0.5045,4.3641e-06,0
0.505,0,0
0.5055,2.0142e-06,0
0.506,8.3925e-06,0
0.5065,7.2175e-06,0
0.507,0,0
0.5075,-3.1891e-06,0
0.508,-6.714e-07,0
0.5085,-5.035e-07,0
0.509,1.1749e-06,0
0.5095,7.7211e-06,0
0.51,4.1962e-06,0
0.5105,-2.5177e-06,0
0.511,-1.8463e-06,0
0.5115,-2.8534e-06,0
0.512,-1.5106e-06,0
0.5125,5.2033e-06,0
0.513,7.5532e-06,0
0.5135,1.0575e-05,0
0.514,1.6617e-05,0
0.5145,2.4338e-05,0
0.515,2.7527e-05,0
0.5155,2.4674e-05,0
0.516,2.2492e-05,0
0.5165,2.4506e-05,0
0.517,2.4002e-05,0
0.5175,2.0646e-05,0
0.518,1.8296e-05,0
0.5185,1.9974e-05,0
0.519,2.1317e-05,0
0.5195,2.3667e-05,0
0.52,2.5009e-05,0
0.5205,2.3331e-05,0
0.521,2.266e-05,0
0.5215,2.031e-05,0
0.522,1.6114e-05,0
0.5225,2.1653e-05,0
0.523,2.3331e-05,0
0.5235,2.2324e-05,0
0.524,2.7192e-05,0
0.5245,2.8367e-05,0
0.525,2.9374e-05,0
0.5255,3.4241e-05,0
0.526,3.2059e-05,0
0.5265,2.4842e-05,0
0.527,2.1317e-05,0
0.5275,2.266e-05,0
0.528,2.2995e-05,0
0.5285,2.2492e-05,0
0.529,2.6688e-05,0
0.5295,3.3738e-05,0
0.53,3.9109e-05,0
0.5305,3.6591e-05,0
0.531,3.0045e-05,0
0.5315,2.8702e-05,0
0.532,3.0381e-05,0
0.5325,2.9206e-05,0
0.533,2.7863e-05,0
0.5335,2.3835e-05,0
0.534,2.0646e-05,0
0.5345,1.4267e-05,0
0.535,1.2085e-05,0
0.5355,1.8631e-05,0
0.536,1.796e-05,0
0.5365,1.1414e-05,0
0.537,1.4267e-05,0
0.5375,1.5106e-05,0
0.538,1.3596e-05,0
0.5385,1.9806e-05,0
0.539,2.1988e-05,0
0.5395,2.0646e-05,0
0.54,2.417e-05,0
0.5405,2.8031e-05,0
0.541,2.7359e-05,0
0.5415,2.5345e-05,0
0.542,2.5681e-05,0
0.5425,2.2995e-05,0
0.543,1.8463e-05,0
0.5435,1.561e-05,0
0.544,1.9135e-05,0
0.5445,2.4506e-05,0
0.545,2.8534e-05,0
0.5455,3.1388e-05,0
0.546,3.3066e-05,0
0.5465,2.9038e-05,0
0.547,2.7695e-05,0
0.5475,3.0716e-05,0
0.548,3.0716e-05,0
0.5485,3.1556e-05,0
0.549,2.7024e-05,0
0.5495,1.8967e-05,0
0.55,1.8631e-05,0
0.5505,1.6785e-05,0
0.551,9.0639e-06,0
0.5515,7.3854e-06,0
0.552,5.2033e-06,0
0.5525,2.5177e-06,0
0.553,7.0497e-06,0
0.5535,1.3764e-05,0
0.554,1.7288e-05,0
0.5545,1.6953e-05,0
0.555,1.4267e-05,0
0.5555,1.3932e-05,0
0.556,1.8631e-05,0
0.5565,2.2995e-05,0
0.557,2.8702e-05,0
0.5575,3.2731e-05,0
0.558,3.3906e-05,0
0.5585,3.2731e-05,0
0.559,2.9709e-05,0
0.5595,2.5009e-05,0
0.56,1.9974e-05,0
0.5605,1.091e-05,0
0.561,4.5319e-06,0
0.5615,1.0071e-05,0
0.562,1.4603e-05,0
0.5625,1.4267e-05,0
0.563,1.5442e-05,0
0.5635,8.5603e-06,0
0.564,2.182e-06,0
0.5645,9.7353e-06,0
0.565,1.3596e-05,0
0.5655,1.0575e-05,0
0.566,1.3092e-05,0
0.5665,1.6785e-05,0
0.567,1.5946e-05,0
0.5675,1.0575e-05,0
0.568,6.3783e-06,0
0.5685,7.8889e-06,0
0.569,1.2924e-05,0
0.5695,1.6785e-05,0
0.57,1.6953e-05,0
0.5705,1.8463e-05,0
0.571,1.8128e-05,0
0.5715,1.6953e-05,0
0.572,1.6953e-05,0
0.5725,1.5778e-05,0
0.573,1.7624e-05,0
0.5735,2.0478e-05,0
0.574,2.1317e-05,0
0.5745,2.5009e-05,0
0.575,2.266e-05,0
0.5755,2.0478e-05,0
0.576,2.6352e-05,0
0.5765,2.8702e-05,0
0.577,2.6352e-05,0
0.5775,2.8031e-05,0
0.578,2.6688e-05,0
0.5785,2.8367e-05,0
0.579,3.7262e-05,0
0.5795,4.3305e-05,0
0.58,4.3473e-05,0
0.5805,4.0619e-05,0
0.581,3.827e-05,0
0.5815,3.5584e-05,0
0.582,3.4745e-05,0
0.5825,3.5752e-05,0
0.583,3.7262e-05,0
0.5835,3.8773e-05,0
0.584,3.8773e-05,0
0.5845,3.6255e-05,0
0.585,3.1388e-05,0
0.5855,2.2324e-05,0
0.586,1.4939e-05,0
0.5865,9.5674e-06,0
0.587,7.3854e-06,0
0.5875,1.6617e-05,0
0.588,1.9974e-05,0
0.5885,1.1917e-05,0
0.589,8.7282e-06,0
0.5895,9.9031e-06,0
0.59,7.2175e-06,0
0.5905,5.2033e-06,0
0.591,4.5319e-06,0
0.5915,7.2175e-06,0
0.592,1.0575e-05,0
0.5925,1.3764e-05,0
0.593,1.1414e-05,0
0.5935,6.8818e-06,0
0.594,8.7282e-06,0
0.5945,1.1917e-05,0
0.595,1.2253e-05,0
0.5955,7.8889e-06,0
0.596,2.182e-06,0
0.5965,2.3499e-06,0
0.597,5.8747e-06,0
0.5975,9.9031e-06,0
0.598,9.7353e-06,0
0.5985,6.2104e-06,0
0.599,9.5674e-06,0
0.5995,1.2589e-05,0
0.6,1.1749e-05,0
0.6005,1.4603e-05,0
0.601,1.3092e-05,0
0.6015,9.3996e-06,0
0.602,1.1917e-05,0
0.6025,1.0239e-05,0
0.603,9.5674e-06,0
0.6035,1.8128e-05,0
0.604,1.796e-05,0
0.6045,1.0575e-05,0
0.605,1.1582e-05,0
0.6055,1.8631e-05,0
0.606,2.4674e-05,0
0.6065,2.7359e-05,0
0.607,2.8367e-05,0
0.6075,2.6352e-05,0
0.608,2.5177e-05,0
0.6085,2.5345e-05,0
0.609,2.4338e-05,0
0.6095,2.4002e-05,0
0.61,2.4002e-05,0
0.6105,2.2324e-05,0
0.611,1.9303e-05,0
0.6115,1.4771e-05,0
0.612,1.3596e-05,0
0.6125,1.1078e-05,0
0.613,5.539e-06,0
0.6135,7.7211e-06,0
0.614,7.8889e-06,0
0.6145,4.5319e-06,0
0.615,5.2033e-06,0
0.6155,2.8534e-06,0
0.616,1.1749e-06,0
0.6165,9.9031e-06,0
0.617,1.6953e-05,0
0.6175,1.7288e-05,0
0.618,1.796e-05,0
0.6185,1.796e-05,0
0.619,1.7288e-05,0
0.6195,1.6281e-05,0
0.62,1.947e-05,0
0.6205,2.3331e-05,0
0.621,2.1317e-05,0
0.6215,1.5274e-05,0
0.622,1.1246e-05,0
0.6225,1.6617e-05,0
0.623,2.6352e-05,0
0.6235,3.0549e-05,0
0.624,3.1724e-05,0
0.6245,3.2898e-05,0
0.625,3.8437e-05,0
0.6255,3.743e-05,0
0.626,3.1388e-05,0
0.6265,3.4073e-05,0
0.627,3.4073e-05,0
0.6275,3.2059e-05,0
0.628,3.592e-05,0
0.6285,3.2898e-05,0
0.629,3.0716e-05,0
0.6295,3.0549e-05,0
0.63,2.6352e-05,0
0.6305,2.2995e-05,0
0.631,2.7863e-05,0
0.6315,3.2898e-05,0
0.632,3.122e-05,0
0.6325,2.6688e-05,0
0.633,2.652e-05,0
0.6335,2.7527e-05,0
0.634,2.8031e-05,0
0.6345,2.4338e-05,0
0.635,1.9974e-05,0
0.6355,2.031e-05,0
0.636,2.3331e-05,0
0.6365,2.5513e-05,0
0.637,2.8534e-05,0
0.6375,3.2563e-05,0
0.638,3.4745e-05,0
0.6385,2.8367e-05,0
0.639,1.9638e-05,0
0.6395,2.3331e-05,0
0.64,2.4506e-05,0
0.6405,2.031e-05,0
0.641,2.0646e-05,0
0.6415,1.9303e-05,0
0.642,1.561e-05,0
0.6425,1.6785e-05,0
0.643,1.1917e-05,0
0.6435,4.3641e-06,0
0.644,4.1962e-06,0
0.6445,7.7211e-06,0
0.645,8.5603e-06,0
0.6455,4.1962e-06,0
0.646,-1.1749e-06,0
0.6465,-8.392e-07,0
0.647,2.3499e-06,0
0.6475,4.1962e-06,0
0.648,4.8676e-06,0
0.6485,7.0497e-06,0
0.649,5.2033e-06,0
0.6495,3.6927e-06,0
0.65,4.6998e-06,0
0.6505,3.0213e-06,0
0.651,1.678e-07,0
0.6515,-4.8676e-06,0
0.652,-4.5319e-06,0
0.6525,9.0639e-06,0
0.653,1.7121e-05,0
0.6535,1.6617e-05,0
0.654,1.4939e-05,0
0.6545,9.9031e-06,0
0.655,7.8889e-06,0
0.6555,1.5106e-05,0
0.656,1.6449e-05,0
0.6565,1.4939e-05,0
0.657,2.1149e-05,0
0.6575,3.0045e-05,0
0.658,3.2059e-05,0
0.6585,2.7359e-05,0
0.659,2.2995e-05,0
0.6595,2.1988e-05,0
0.66,2.2995e-05,0
0.6605,2.0478e-05,0
0.661,1.6953e-05,0
0.6615,1.5274e-05,0
0.662,1.561e-05,0
0.6625,1.4603e-05,0
0.663,1.4603e-05,0
0.6635,1.6785e-05,0
0.664,2.031e-05,0
0.6645,2.2492e-05,0
0.665,2.2156e-05,0
0.6655,2.3667e-05,0
0.666,1.9974e-05,0
0.6665,1.8463e-05,0
0.667,2.7695e-05,0
0.6675,3.3402e-05,0
0.668,3.3738e-05,0
0.6685,3.8773e-05,0
0.669,3.8773e-05,0
0.6695,3.4409e-05,0
0.67,3.4409e-05,0
0.6705,3.6591e-05,0
0.671,3.592e-05,0
0.6715,3.2731e-05,0
0.672,2.8031e-05,0
0.6725,2.1988e-05,0
0.673,1.796e-05,0
0.6735,1.7624e-05,0
0.674,1.9135e-05,0
0.6745,1.8296e-05,0
0.675,1.5274e-05,0
0.6755,1.561e-05,0
0.676,1.5274e-05,0
0.6765,1.0575e-05,0
0.677,1.0239e-05,0
0.6775,9.5674e-06,0
0.678,8.3925e-06,0
0.6785,1.5274e-05,0
0.679,1.9806e-05,0
0.6795,1.9135e-05,0
0.68,1.9806e-05,0
0.6805,1.7121e-05,0
0.681,1.6617e-05,0
0.6815,2.5345e-05,0
0.682,2.7192e-05,0
0.6825,2.266e-05,0
0.683,2.6017e-05,0
0.6835,3.0716e-05,0
0.684,3.0381e-05,0
0.6845,3.0045e-05,0
0.685,3.2227e-05,0
0.6855,3.1388e-05,0
0.686,2.7024e-05,0
0.6865,2.4506e-05,0
0.687,2.5345e-05,0
0.6875,2.4002e-05,0
0.688,2.4674e-05,0
0.6885,2.9038e-05,0
0.689,2.6352e-05,0
0.6895,1.8631e-05,0
0.69,1.8967e-05,0
0.6905,2.0646e-05,0
0.691,1.6281e-05,0
0.6915,1.5778e-05,0
0.692,1.5946e-05,0
0.6925,1.1749e-05,0
0.693,1.0575e-05,0
0.6935,7.3854e-06,0
0.694,5.2033e-06,0
0.6945,1.2421e-05,0
0.695,1.0575e-05,0
0.6955,2.182e-06,0
0.696,-1.678e-07,0
0.6965,5.2033e-06,0
0.697,1.1749e-05,0
0.6975,1.796e-05,0
0.698,2.0142e-05,0
0.6985,1.947e-05,0
0.699,1.7288e-05,0
0.6995,1.1582e-05,0
0.7,9.9031e-06,0
0.7005,1.326e-05,0
0.701,1.5106e-05,0
0.7015,1.5442e-05,0
0.702,1.8967e-05,0
0.7025,2.2324e-05,0
0.703,2.4506e-05,0
0.7035,2.2156e-05,0
0.704,1.7288e-05,0
0.7045,1.796e-05,0
0.705,1.796e-05,0
0.7055,1.4099e-05,0
0.706,1.7792e-05,0
0.7065,1.8631e-05,0
0.707,1.796e-05,0
0.7075,2.3667e-05,0
0.708,2.3667e-05,0
0.7085,2.1149e-05,0
0.709,2.8031e-05,0
0.7095,3.2059e-05,0
0.71,2.7695e-05,0
0.7105,2.1653e-05,0
0.711,1.8631e-05,0
0.7115,1.7624e-05,0
0.712,1.4939e-05,0
0.7125,1.2589e-05,0
0.713,7.5532e-06,0
0.7135,5.035e-07,0
0.714,-3.0213e-06,0
0.7145,-1.8463e-06,0
0.715,-5.035e-07,0
0.7155,-2.0142e-06,0
0.716,-2.8534e-06,0
0.7165,-7.3854e-06,0
0.717,-7.7211e-06,0
0.7175,1.8463e-06,0
0.718,4.6998e-06,0
0.7185,1.678e-07,0
0.719,3.5248e-06,0
0.7195,5.8747e-06,0
0.72,6.3783e-06,0
0.7205,8.0568e-06,0
0.721,7.8889e-06,0
0.7215,9.2317e-06,0
0.722,1.5274e-05,0
0.7225,2.0813e-05,0
0.723,2.0646e-05,0
0.7235,1.796e-05,0
0.724,1.5946e-05,0
0.7245,1.7288e-05,0
0.725,2.2492e-05,0
0.7255,1.9638e-05,0
0.726,1.0575e-05,0
0.7265,7.2175e-06,0
0.727,8.3925e-06,0
0.7275,1.2421e-05,0
0.728,1.4099e-05,0
0.7285,1.2085e-05,0
0.729,1.5274e-05,0
0.7295,2.2492e-05,0
0.73,2.6688e-05,0
0.7305,3.1556e-05,0
0.731,3.0213e-05,0
0.7315,2.5345e-05,0
0.732,2.7695e-05,0
0.7325,2.8031e-05,0
0.733,2.7359e-05,0
0.7335,3.0213e-05,0
0.734,2.9206e-05,0
0.7345,3.3402e-05,0
0.735,4.3137e-05,0
0.7355,4.918e-05,0
0.736,4.918e-05,0
0.7365,4.8173e-05,0
0.737,5.2033e-05,0
0.7375,5.2537e-05,0
0.738,4.7837e-05,0
0.7385,4.6494e-05,0
0.739,4.8676e-05,0
0.7395,4.7837e-05,0
0.74,3.9109e-05,0
0.7405,3.2395e-05,0
0.741,3.122e-05,0
0.7415,3.2059e-05,0
0.742,3.1388e-05,0
0.7425,2.5345e-05,0
0.743,2.3499e-05,0
0.7435,2.9038e-05,0
0.744,2.9709e-05,0
0.7445,2.2828e-05,0
0.745,2.031e-05,0
0.7455,1.796e-05,0
0.746,1.4603e-05,0
0.7465,1.5778e-05,0
0.747,1.091e-05,0
0.7475,3.8605e-06,0
0.748,1.6785e-06,0
0.7485,5.2033e-06,0
0.749,1.1246e-05,0
0.7495,1.1917e-05,0
0.75,1.1246e-05,0
0.7505,1.326e-05,0
0.751,1.4267e-05,0
0.7515,1.5946e-05,0
0.752,2.031e-05,0
0.7525,2.4338e-05,0
0.753,2.4506e-05,0
0.7535,2.2156e-05,0
0.754,2.1149e-05,0
0.7545,1.8631e-05,0
0.755,2.0981e-05,0
0.7555,2.2828e-05,0
0.756,1.9974e-05,0
0.7565,2.0646e-05,0
0.757,2.031e-05,0
0.7575,2.3331e-05,0
0.758,3.0213e-05,0
0.7585,2.4506e-05,0
0.759,1.4435e-05,0
0.7595,1.561e-05,0
0.76,1.4603e-05,0
0.7605,1.1414e-05,0
0.761,1.3764e-05,0
0.7615,1.7288e-05,0
0.762,1.7288e-05,0
0.7625,1.5946e-05,0
0.763,1.5946e-05,0
0.7635,1.6617e-05,0
0.764,1.7624e-05,0
0.7645,2.0813e-05,0
0.765,2.5345e-05,0
0.7655,2.6352e-05,0
0.766,2.0981e-05,0
0.7665,1.5442e-05,0
0.767,9.9031e-06,0
0.7675,4.5319e-06,0
0.768,3.6927e-06,0
0.7685,2.5177e-06,0
0.769,3.5248e-06,0
0.7695,1.1246e-05,0
0.77,1.4603e-05,0
0.7705,1.6114e-05,0
0.771,2.2324e-05,0
0.7715,2.4002e-05,0
0.772,2.3163e-05,0
0.7725,2.9374e-05,0
0.773,3.0549e-05,0
0.7735,2.3667e-05,0
0.774,2.0981e-05,0
0.7745,2.4506e-05,0
0.775,2.8031e-05,0
0.7755,2.6688e-05,0
0.776,2.6017e-05,0
0.7765,2.8367e-05,0
0.777,3.1052e-05,0
0.7775,3.1388e-05,0
0.778,2.8702e-05,0
0.7785,2.3331e-05,0
0.779,1.8631e-05,0
0.7795,1.796e-05,0
0.78,1.5106e-05,0
0.7805,9.0639e-06,0
0.781,8.5603e-06,0
0.7815,8.0568e-06,0
0.782,7.8889e-06,0
0.7825,1.2253e-05,0
0.783,1.0575e-05,0
0.7835,9.0639e-06,0
0.784,1.326e-05,0
0.7845,1.3596e-05,0
0.785,7.8889e-06,0
0.7855,2.5177e-06,0
0.786,-3.1891e-06,0
0.7865,-4.1962e-06,0
0.787,2.182e-06,0
0.7875,1.091e-05,0
0.788,1.561e-05,0
0.7885,1.3596e-05,0
0.789,1.1078e-05,0
0.7895,1.1246e-05,0
0.79,8.5603e-06,0
0.7905,1.1582e-05,0
0.791,2.1988e-05,0
0.7915,2.8702e-05,0
0.792,2.8534e-05,0
0.7925,2.887e-05,0
0.793,3.0045e-05,0
0.7935,2.8367e-05,0
0.794,2.5849e-05,0
0.7945,2.2324e-05,0
0.795,1.9303e-05,0
0.7955,2.1149e-05,0
0.796,1.561e-05,0
0.7965,9.2317e-06,0
0.797,1.5946e-05,0
0.7975,1.9974e-05,0
0.798,1.8128e-05,0
0.7985,2.0646e-05,0
0.799,1.8128e-05,0
0.7995,1.3764e-05,0
0.8,1.4939e-05,0
0.8005,1.6281e-05,0
0.801,1.1582e-05,0
0.8015,4.8676e-06,0
0.802,1.6785e-06,0
0.8025,3.6927e-06,0
0.803,6.3783e-06,0
0.8035,5.2033e-06,0
0.804,6.5461e-06,0
0.8045,1.1582e-05,0
0.805,1.326e-05,0
0.8055,1.1246e-05,0
0.806,1.326e-05,0
0.8065,1.2589e-05,0
0.807,9.7353e-06,0
0.8075,9.7353e-06,0
0.808,9.5674e-06,0
0.8085,1.0575e-05,0
0.809,4.8676e-06,0
0.8095,-1.5106e-06,0
0.81,3.0213e-06,0
0.8105,8.5603e-06,0
0.811,9.0639e-06,0
0.8115,9.0639e-06,0
0.812,6.8818e-06,0
0.8125,4.5319e-06,0
0.813,6.5461e-06,0
0.8135,1.1582e-05,0
0.814,1.5778e-05,0
0.8145,2.2324e-05,0
0.815,2.8031e-05,0
0.8155,3.2395e-05,0
0.816,3.7934e-05,0
0.8165,3.8437e-05,0
0.817,3.2731e-05,0
0.8175,2.9206e-05,0
0.818,3.2059e-05,0
0.8185,3.4577e-05,0
0.819,3.7262e-05,0
0.8195,3.8102e-05,0
0.82,3.6423e-05,0
0.8205,2.9542e-05,0
0.821,2.2828e-05,0
0.8215,2.652e-05,0
0.822,3.2731e-05,0
0.8225,3.7766e-05,0
0.823,4.2802e-05,0
0.8235,4.2634e-05,0
0.824,3.743e-05,0
0.8245,3.3906e-05,0
0.825,2.8367e-05,0
0.8255,2.4002e-05,0
0.826,2.4674e-05,0
0.8265,2.3331e-05,0
0.827,2.1988e-05,0
0.8275,2.4506e-05,0
0.828,2.7192e-05,0
0.8285,2.8702e-05,0
0.829,2.6688e-05,0
0.8295,2.031e-05,0
0.83,1.7624e-05,0
0.8305,1.9638e-05,0
0.831,2.2828e-05,0
0.8315,2.3331e-05,0
0.832,2.031e-05,0
0.8325,1.7288e-05,0
0.833,1.8967e-05,0
0.8335,1.7624e-05,0
0.834,1.4603e-05,0
0.8345,2.3667e-05,0
0.835,3.2563e-05,0
0.8355,3.122e-05,0
0.836,2.7863e-05,0
0.8365,1.9638e-05,0
0.837,1.2253e-05,0
0.8375,1.1246e-05,0
0.838,7.5532e-06,0
0.8385,4.1962e-06,0
0.839,6.2104e-06,0
0.8395,9.0639e-06,0
0.84,9.2317e-06,0
0.8405,8.3925e-06,0
0.841,9.7353e-06,0
0.8415,9.2317e-06,0
0.842,8.896e-06,0
0.8425,9.2317e-06,0
0.843,5.539e-06,0
0.8435,5.035e-07,0
0.844,-1.678e-07,0
0.8445,2.182e-06,0
0.845,8.7282e-06,0
0.8455,1.2924e-05,0
0.846,1.4603e-05,0
0.8465,1.0239e-05,0
0.847,4.1962e-06,0
0.8475,7.7211e-06,0
0.848,9.7353e-06,0
0.8485,8.896e-06,0
0.849,1.4771e-05,0
0.8495,1.9974e-05,0
0.85,2.266e-05,0
0.8505,2.8702e-05,0
0.851,2.9038e-05,0
0.8515,2.3667e-05,0
0.852,2.0813e-05,0
0.8525,1.8631e-05,0
0.853,1.8128e-05,0
0.8535,2.0646e-05,0
0.854,2.3331e-05,0
0.8545,2.5345e-05,0
0.855,2.417e-05,0
0.8555,2.0981e-05,0
0.856,1.9303e-05,0
0.8565,2.4842e-05,0
0.857,3.5416e-05,0
0.8575,4.0116e-05,0
0.858,3.8773e-05,0
0.8585,3.8437e-05,0
0.859,4.1795e-05,0
0.8595,4.2802e-05,0
0.86,4.213e-05,0
0.8605,4.4816e-05,0
0.861,4.1291e-05,0
0.8615,3.8102e-05,0
0.862,4.2298e-05,0
0.8625,3.8773e-05,0
0.863,3.1724e-05,0
0.8635,3.122e-05,0
0.864,2.9038e-05,0
0.8645,2.4674e-05,0
0.865,2.8031e-05,0
0.8655,3.5416e-05,0
0.866,3.8941e-05,0
0.8665,3.1388e-05,0
0.867,2.0646e-05,0
0.8675,1.561e-05,0
0.868,1.4939e-05,0
0.8685,1.6617e-05,0
0.869,1.4939e-05,0
0.8695,8.7282e-06,0
0.87,6.2104e-06,0
0.8705,9.5674e-06,0
0.871,1.5442e-05,0
0.8715,2.1653e-05,0
0.872,2.7192e-05,0
0.8725,2.1988e-05,0
0.873,1.3596e-05,0
0.8735,1.4603e-05,0
0.874,1.4939e-05,0
0.8745,1.0239e-05,0
0.875,1.1582e-05,0
0.8755,1.3428e-05,0
0.876,1.6953e-05,0
0.8765,2.417e-05,0
0.877,2.1317e-05,0
0.8775,1.1078e-05,0
0.878,9.2317e-06,0
0.8785,1.0575e-05,0
0.879,1.3596e-05,0
0.8795,1.8631e-05,0
0.88,1.796e-05,0
0.8805,1.2924e-05,0
0.881,1.0407e-05,0
0.8815,1.5946e-05,0
0.882,2.0478e-05,0
0.8825,1.7624e-05,0
0.883,1.326e-05,0
0.8835,1.0575e-05,0
0.884,9.3996e-06,0
0.8845,7.8889e-06,0
0.885,9.7353e-06,0
0.8855,5.0355e-06,0
0.886,-4.3641e-06,0
0.8865,-4.1962e-06,0
0.887,-2.3499e-06,0
0.8875,-3.8605e-06,0
0.888,-2.8534e-06,0
0.8885,-4.8676e-06,0
0.889,-6.2104e-06,0
0.8895,-5.0355e-06,0
0.89,-6.5461e-06,0
0.8905,-4.8676e-06,0
0.891,2.3499e-06,0
0.8915,2.3499e-06,0
0.892,-4.3641e-06,0
0.8925,-7.0497e-06,0
0.893,-3.6927e-06,0
0.8935,1.1749e-06,0
0.894,1.8463e-06,0
0.8945,1.5106e-06,0
0.895,1.1749e-06,0
0.8955,5.3712e-06,0
0.896,1.5442e-05,0
0.8965,2.2995e-05,0
0.897,2.3499e-05,0
0.8975,2.4002e-05,0
0.898,2.5681e-05,0
0.8985,1.8296e-05,0
0.899,1.1414e-05,0
0.8995,1.6785e-05,0
0.9,1.9974e-05,0
0.9005,1.4603e-05,0
0.901,1.4603e-05,0
0.9015,1.3932e-05,0
0.902,1.3932e-05,0
0.9025,1.8463e-05,0
0.903,1.7792e-05,0
0.9035,1.7624e-05,0
0.904,2.1653e-05,0
0.9045,2.5849e-05,0
0.905,3.0045e-05,0
0.9055,3.3234e-05,0
0.906,3.592e-05,0
0.9065,3.6088e-05,0
0.907,3.6591e-05,0
0.9075,3.8605e-05,0
0.908,4.0452e-05,0
0.9085,4.213e-05,0
0.909,4.213e-05,0
0.9095,4.3809e-05,0
0.91,4.0452e-05,0
0.9105,3.3066e-05,0
0.911,3.1891e-05,0
0.9115,3.5248e-05,0
0.912,3.7934e-05,0
0.9125,4.213e-05,0
0.913,4.0787e-05,0
0.9135,3.743e-05,0
0.914,4.1459e-05,0
0.9145,4.3809e-05,0
0.915,4.0116e-05,0
0.9155,3.8773e-05,0
0.916,3.2731e-05,0
0.9165,2.266e-05,0
0.917,2.0981e-05,0
0.9175,2.6352e-05,0
0.918,3.3066e-05,0
0.9185,3.6927e-05,0
0.919,3.5248e-05,0
0.9195,2.9038e-05,0
0.92,2.1317e-05,0
0.9205,1.7288e-05,0
0.921,1.796e-05,0
0.9215,1.9303e-05,0
0.922,1.3596e-05,0
0.9225,5.7069e-06,0
0.923,3.0213e-06,0
0.9235,5.2033e-06,0
0.924,9.0639e-06,0
0.9245,7.2175e-06,0
0.925,5.0355e-06,0
0.9255,1.1917e-05,0
0.926,1.4267e-05,0
0.9265,1.4771e-05,0
0.927,2.0478e-05,0
0.9275,1.5274e-05,0
0.928,8.3925e-06,0
0.9285,1.2085e-05,0
0.929,1.5106e-05,0
0.9295,1.561e-05,0
0.93,1.8296e-05,0
0.9305,2.3163e-05,0
0.931,2.2828e-05,0
0.9315,1.7624e-05,0
0.932,1.4603e-05,0
0.9325,1.9806e-05,0
0.933,2.4338e-05,0
0.9335,2.2828e-05,0
0.934,2.1317e-05,0
0.9345,1.8631e-05,0
0.935,1.6785e-05,0
0.9355,1.5946e-05,0
0.936,1.1917e-05,0
0.9365,8.7282e-06,0
0.937,1.326e-05,0
0.9375,1.561e-05,0
0.938,1.5946e-05,0
0.9385,1.8799e-05,0
0.939,1.796e-05,0
0.9395,2.0646e-05,0
0.94,3.1388e-05,0
0.9405,3.1891e-05,0
0.941,2.5345e-05,0
0.9415,2.8031e-05,0
0.942,2.9374e-05,0
0.9425,2.7863e-05,0
0.943,2.7024e-05,0
0.9435,2.6184e-05,0
0.944,2.7192e-05,0
0.9445,3.0045e-05,0
0.945,3.3066e-05,0
0.9455,3.508e-05,0
0.946,3.4745e-05,0
0.9465,3.1891e-05,0
0.947,2.6688e-05,0
0.9475,2.1317e-05,0
0.948,1.8296e-05,0
0.9485,2.182e-05,0
0.949,2.6688e-05,0
0.9495,2.5345e-05,0
0.95,2.266e-05,0
0.9505,1.9638e-05,0
0.951,1.5946e-05,0
0.9515,1.9974e-05,0
0.952,1.7288e-05,0
0.9525,1.2085e-05,0
0.953,1.4603e-05,0
0.9535,1.2253e-05,0
0.954,6.8818e-06,0
0.9545,1.0407e-05,0
0.955,1.2253e-05,0
0.9555,1.1414e-05,0
0.956,1.2757e-05,0
0.9565,1.4939e-05,0
0.957,1.7624e-05,0
0.9575,1.8967e-05,0
0.958,2.1317e-05,0
0.9585,2.3667e-05,0
0.959,2.4674e-05,0
0.9595,2.6688e-05,0
0.96,2.9374e-05,0
0.9605,3.0884e-05,0
0.961,3.4409e-05,0
0.9615,3.1891e-05,0
0.962,2.3499e-05,0
0.9625,1.796e-05,0
0.963,1.4099e-05,0
0.9635,7.8889e-06,0
0.964,5.2033e-06,0
0.9645,1.3764e-05,0
0.965,1.5106e-05,0
0.9655,1.1749e-05,0
0.966,1.7624e-05,0
0.9665,1.7456e-05,0
0.967,1.1917e-05,0
0.9675,1.326e-05,0
0.968,1.1582e-05,0
0.9685,8.2246e-06,0
0.969,1.0407e-05,0
0.9695,1.1917e-05,0
0.97,9.7353e-06,0
0.9705,9.2317e-06,0
0.971,1.3932e-05,0
0.9715,1.8296e-05,0
0.972,1.3932e-05,0
0.9725,5.8747e-06,0
0.973,6.714e-07,0
0.9735,-2.182e-06,0
0.974,-4.8676e-06,0
0.9745,-6.3783e-06,0
0.975,-6.8818e-06,0
0.9755,-6.0426e-06,0
0.976,-2.8534e-06,0
0.9765,-1.5106e-06,0
0.977,-3.6927e-06,0
0.9775,-8.392e-07,0
0.978,-5.035e-07,0
0.9785,-8.392e-07,0
0.979,7.2175e-06,0
0.9795,1.091e-05,0
0.98,1.1078e-05,0
0.9805,1.4435e-05,0
0.981,1.326e-05,0
0.9815,7.8889e-06,0
0.982,7.3854e-06,0
0.9825,9.5674e-06,0
0.983,1.5106e-05,0
0.9835,2.3499e-05,0
0.984,2.7695e-05,0
0.9845,2.5345e-05,0
0.985,2.7863e-05,0
0.9855,3.1724e-05,0
0.986,2.9374e-05,0
0.9865,2.7024e-05,0
0.987,2.8367e-05,0
0.9875,3.2059e-05,0
0.988,2.9709e-05,0
0.9885,1.9135e-05,0
0.989,1.2253e-05,0
0.9895,1.1917e-05,0
0.99,1.3596e-05,0
0.9905,1.6281e-05,0
0.991,1.6785e-05,0
0.9915,2.0981e-05,0
0.992,2.6352e-05,0
0.9925,2.4506e-05,0
0.993,2.0646e-05,0
0.9935,2.031e-05,0
0.994,1.6617e-05,0
0.9945,1.0575e-05,0
0.995,1.2253e-05,0
0.9955,1.796e-05,0
0.996,2.1317e-05,0
0.9965,2.1317e-05,0
0.997,1.8296e-05,0
0.9975,1.5106e-05,0
0.998,1.1246e-05,0
0.9985,8.2246e-06,0
0.999,1.1582e-05,0
0.9995,1.6281e-05,0
1,1.4603e-05,0
1.0005,1.0575e-05,0
1.001,1.0575e-05,0
1.0015,1.1582e-05,0
1.002,1.1246e-05,0
1.0025,8.5603e-06,0
1.003,8.2246e-06,0
1.0035,1.5946e-05,0
1.004,1.8631e-05,0
1.0045,1.9806e-05,0
1.005,2.8367e-05,0
1.0055,3.0716e-05,0
1.006,3.1724e-05,0
1.0065,3.743e-05,0
1.007,3.6759e-05,0
1.0075,2.9709e-05,0
1.008,3.0716e-05,0
1.0085,3.5248e-05,0
1.009,3.592e-05,0
1.0095,3.1891e-05,0
1.01,2.9374e-05,0
1.0105,3.0045e-05,0
1.011,2.9038e-05,0
1.0115,2.7863e-05,0
1.012,2.6352e-05,0
1.0125,2.7192e-05,0
1.013,3.1891e-05,0
1.0135,3.6088e-05,0
1.014,3.2059e-05,0
1.0145,2.5681e-05,0
1.015,1.8463e-05,0
1.0155,5.8747e-06,0
1.016,-3.5248e-06,0
1.0165,5.035e-07,0
1.017,7.5532e-06,0
1.0175,1.2421e-05,0
1.018,1.8128e-05,0
1.0185,1.8631e-05,0
1.019,1.6617e-05,0
1.0195,1.6953e-05,0
1.02,1.0407e-05,0
1.0205,4.8676e-06,0
1.021,6.3783e-06,0
1.0215,7.8889e-06,0
1.022,7.3854e-06,0
1.0225,8.896e-06,0
1.023,1.4603e-05,0
1.0235,1.9806e-05,0
1.024,1.796e-05,0
1.0245,1.4099e-05,0
1.025,1.8128e-05,0
1.0255,1.9974e-05,0
1.026,1.6953e-05,0
1.0265,1.5106e-05,0
1.027,1.5106e-05,0
1.0275,1.0575e-05,0
1.028,6.5461e-06,0
1.0285,5.2033e-06,0
1.029,3.8605e-06,0
1.0295,7.8889e-06,0
1.03,7.2175e-06,0
1.0305,7.3854e-06,0
1.031,1.7121e-05,0
1.0315,2.0478e-05,0
1.032,1.3596e-05,0
1.0325,1.0239e-05,0
1.033,8.896e-06,0
1.0335,1.3596e-05,0
1.034,2.1988e-05,0
1.0345,2.6352e-05,0
1.035,2.6688e-05,0
1.0355,2.8702e-05,0
1.036,3.6423e-05,0
1.0365,4.2802e-05,0
1.037,4.3473e-05,0
1.0375,4.448e-05,0
1.038,4.9012e-05,0
1.0385,4.9851e-05,0
1.039,4.8173e-05,0
1.0395,4.8844e-05,0
1.04,5.0858e-05,0
1.0405,4.8173e-05,0
1.041,4.2466e-05,0
1.0415,3.5416e-05,0
1.042,2.9709e-05,0
1.0425,3.0381e-05,0
1.043,2.9709e-05,0
1.0435,2.8367e-05,0
1.044,2.9877e-05,0
1.0445,2.2995e-05,0
1.045,1.4939e-05,0
1.0455,1.8967e-05,0
1.046,1.7288e-05,0
1.0465,7.8889e-06,0
1.047,8.3925e-06,0
1.0475,1.4435e-05,0
1.048,1.4939e-05,0
1.0485,1.1917e-05,0
1.049,9.5674e-06,0
1.0495,8.896e-06,0
1.05,9.9031e-06,0
1.0505,9.2317e-06,0
1.051,7.8889e-06,0
1.0515,9.0639e-06,0
1.052,1.1078e-05,0
1.0525,1.1414e-05,0
1.053,1.1078e-05,0
1.0535,9.9031e-06,0
1.054,1.326e-05,0
1.0545,1.2924e-05,0
1.055,1.326e-05,0
1.0555,2.6184e-05,0
1.056,3.7766e-05,0
1.0565,3.7766e-05,0
1.057,3.4577e-05,0
1.0575,2.9374e-05,0
1.058,2.5345e-05,0
1.0585,2.7359e-05,0
1.059,2.8702e-05,0
1.0595,3.0381e-05,0
1.06,3.3402e-05,0
1.0605,3.122e-05,0
1.061,2.8031e-05,0
1.0615,2.7024e-05,0
1.062,2.6688e-05,0
1.0625,2.3331e-05,0
1.063,2.4674e-05,0
1.0635,2.8702e-05,0
1.064,2.8534e-05,0
1.0645,2.6352e-05,0
1.065,2.3331e-05,0
1.0655,2.0981e-05,0
1.066,2.1317e-05,0
1.0665,2.3667e-05,0
1.067,2.182e-05,0
1.0675,1.5106e-05,0
1.068,1.3596e-05,0
1.0685,2.1653e-05,0
1.069,2.1317e-05,0
1.0695,1.9303e-05,0
1.07,2.4002e-05,0
1.0705,2.266e-05,0
1.071,1.7121e-05,0
1.0715,1.8296e-05,0
1.072,1.796e-05,0
1.0725,1.6449e-05,0
1.073,1.8631e-05,0
1.0735,2.1317e-05,0
1.074,2.1988e-05,0
1.0745,1.8967e-05,0
1.075,1.8631e-05,0
1.0755,2.3667e-05,0
1.076,2.6017e-05,0
1.0765,2.4506e-05,0
1.077,2.4002e-05,0
1.0775,2.5009e-05,0
1.078,2.3835e-05,0
1.0785,2.3163e-05,0
1.079,2.5177e-05,0
1.0795,2.6017e-05,0
1.08,2.3835e-05,0
1.0805,1.5946e-05,0
1.081,8.2246e-06,0
1.0815,6.8818e-06,0
1.082,5.2033e-06,0
1.0825,4.8676e-06,0
1.083,9.2317e-06,0
1.0835,8.5603e-06,0
1.084,5.2033e-06,0
1.0845,5.2033e-06,0
1.085,1.8463e-06,0
1.0855,5.035e-07,0
1.086,8.896e-06,0
1.0865,1.5106e-05,0
1.087,1.1582e-05,0
1.0875,5.7069e-06,0
1.088,6.0426e-06,0
1.0885,1.0407e-05,0
1.089,1.796e-05,0
1.0895,2.2492e-05,0
1.09,2.0142e-05,0
1.0905,1.2589e-05,0
1.091,8.3925e-06,0
1.0915,1.0575e-05,0
1.092,1.561e-05,0
1.0925,1.2085e-05,0
1.093,8.2246e-06,0
1.0935,8.896e-06,0
1.094,9.7353e-06,0
1.0945,1.2085e-05,0
1.095,1.2253e-05,0
1.0955,1.1582e-05,0
1.096,1.5442e-05,0
1.0965,1.1246e-05,0
1.097,4.5319e-06,0
1.0975,7.3854e-06,0
1.098,8.3925e-06,0
1.0985,6.5461e-06,0
1.099,1.1917e-05,0
1.0995,1.4603e-05,0
1.1,9.5674e-06,0
1.1005,3.0213e-06,0
1.101,1.3428e-06,0
1.1015,3.0213e-06,0
1.102,2.182e-06,0
1.1025,3.1891e-06,0
1.103,8.896e-06,0
1.1035,1.2589e-05,0
1.104,1.3764e-05,0
1.1045,1.2589e-05,0
1.105,1.2924e-05,0
1.1055,1.4267e-05,0
1.106,1.4435e-05,0
1.1065,1.1078e-05,0
1.107,7.5532e-06,0
1.1075,1.2924e-05,0
1.108,1.6953e-05,0
1.1085,1.8631e-05,0
1.109,2.4674e-05,0
1.1095,2.6017e-05,0
1.11,2.8367e-05,0
1.1105,3.5584e-05,0
1.111,3.2563e-05,0
1.1115,2.266e-05,0
1.112,2.4506e-05,0
1.1125,3.1388e-05,0
1.113,3.3402e-05,0
1.1135,3.3402e-05,0
1.114,3.3402e-05,0
1.1145,3.4409e-05,0
1.115,2.9374e-05,0
1.1155,2.1149e-05,0
1.116,1.8296e-05,0
1.1165,1.9135e-05,0
1.117,2.2324e-05,0
1.1175,2.7695e-05,0
1.118,3.0549e-05,0
1.1185,2.6688e-05,0
1.119,2.4338e-05,0
1.1195,2.7359e-05,0
1.12,3.3402e-05,0
1.1205,4.1123e-05,0
1.121,4.1459e-05,0
1.1215,3.6759e-05,0
1.122,3.8437e-05,0
1.1225,4.1459e-05,0
1.123,4.4144e-05,0
1.1235,4.9851e-05,0
1.124,4.5487e-05,0
1.1245,3.4745e-05,0
1.125,3.2059e-05,0
1.1255,3.6591e-05,0
1.126,3.7934e-05,0
1.1265,3.4745e-05,0
1.127,3.0716e-05,0
1.1275,2.9374e-05,0
1.128,2.7695e-05,0
1.1285,2.5681e-05,0
1.129,2.6352e-05,0
1.1295,2.6352e-05,0
1.13,2.6017e-05,0
1.1305,2.5849e-05,0
1.131,2.3499e-05,0
1.1315,1.7624e-05,0
1.132,1.1917e-05,0
1.1325,4.6998e-06,0
1.133,2.182e-06,0
1.1335,9.7353e-06,0
1.134,1.4603e-05,0
1.1345,1.3092e-05,0
1.135,1.091e-05,0
1.1355,1.1917e-05,0
1.136,1.7288e-05,0
1.1365,2.4338e-05,0
1.137,1.9638e-05,0
1.1375,1.1582e-05,0
1.138,1.3092e-05,0
1.1385,1.9303e-05,0
1.139,2.266e-05,0
1.1395,2.3331e-05,0
1.14,2.3331e-05,0
1.1405,2.1653e-05,0
1.141,1.796e-05,0
1.1415,1.3092e-05,0
1.142,8.2246e-06,0
1.1425,7.7211e-06,0
1.143,7.8889e-06,0
1.1435,3.6927e-06,0
1.144,-1.5106e-06,0
1.1445,-7.5532e-06,0
1.145,-5.539e-06,0
1.1455,1.0071e-06,0
1.146,7.7211e-06,0
1.1465,1.8631e-05,0
1.147,2.1988e-05,0
1.1475,1.9638e-05,0
1.148,2.0142e-05,0
1.1485,1.8631e-05,0
1.149,1.8296e-05,0
1.1495,2.2324e-05,0
1.15,1.947e-05,0
1.1505,1.9135e-05,0
1.151,2.8702e-05,0
1.1515,3.3906e-05,0
1.152,2.6688e-05,0
1.1525,1.8631e-05,0
1.153,1.8296e-05,0
1.1535,1.8128e-05,0
1.154,1.5274e-05,0
1.1545,1.0575e-05,0
1.155,7.8889e-06,0
1.1555,8.896e-06,0
1.156,1.1582e-05,0
1.1565,1.6617e-05,0
1.157,1.9135e-05,0
1.1575,1.796e-05,0
1.158,2.1317e-05,0
1.1585,1.8463e-05,0
1.159,1.1246e-05,0
1.1595,1.4603e-05,0
1.16,1.5106e-05,0
1.1605,9.0639e-06,0
1.161,6.8818e-06,0
1.1615,5.8747e-06,0
1.162,6.2104e-06,0
1.1625,1.0575e-05,0
1.163,9.2317e-06,0
1.1635,5.539e-06,0
1.164,5.8747e-06,0
1.1645,8.5603e-06,0
1.165,1.0239e-05,0
1.1655,1.0575e-05,0
1.166,1.1582e-05,0
1.1665,1.3932e-05,0
1.167,1.6449e-05,0
1.1675,1.796e-05,0
1.168,1.9974e-05,0
1.1685,2.182e-05,0
1.169,2.0478e-05,0
1.1695,1.7288e-05,0
1.17,1.3932e-05,0
1.1705,1.1749e-05,0
1.171,1.1917e-05,0
1.1715,9.9031e-06,0
1.172,7.8889e-06,0
1.1725,1.5274e-05,0
1.173,1.6281e-05,0
1.1735,1.5274e-05,0
1.174,2.0478e-05,0
1.1745,2.2324e-05,0
1.175,2.2492e-05,0
1.1755,2.5849e-05,0
1.176,2.4002e-05,0
1.1765,2.0646e-05,0
1.177,2.3835e-05,0
1.1775,2.4002e-05,0
1.178,1.8463e-05,0
1.1785,1.6281e-05,0
1.179,2.0646e-05,0
1.1795,2.5009e-05,0
1.18,2.4674e-05,0
1.1805,1.8296e-05,0
1.181,1.0575e-05,0
1.1815,3.6927e-06,0
1.182,1.1749e-06,0
1.1825,3.5248e-06,0
1.183,6.2104e-06,0
1.1835,5.2033e-06,0
1.184,6.5461e-06,0
1.1845,6.2104e-06,0
1.185,7.2175e-06,0
1.1855,1.3932e-05,0
1.186,1.2253e-05,0
1.1865,7.3854e-06,0
1.187,7.7211e-06,0
1.1875,5.539e-06,0
1.188,3.8605e-06,0
1.1885,9.5674e-06,0
1.189,1.1917e-05,0
1.1895,1.1246e-05,0
1.19,1.5442e-05,0
1.1905,1.5946e-05,0
1.191,1.2253e-05,0
1.1915,1.4435e-05,0
1.192,2.182e-05,0
1.1925,2.5177e-05,0
1.193,2.6017e-05,0
1.1935,2.6352e-05,0
1.194,2.4674e-05,0
1.1945,2.266e-05,0
1.195,2.3499e-05,0
1.1955,2.5345e-05,0
1.196,2.7359e-05,0
1.1965,2.9877e-05,0
1.197,3.2731e-05,0
1.1975,3.1388e-05,0
1.198,2.4842e-05,0
1.1985,2.4002e-05,0
1.199,2.1653e-05,0
1.1995,2.1149e-05,0
1.2,2.8702e-05,0
1.2005,2.9877e-05,0
1.201,2.8702e-05,0
1.2015,3.4745e-05,0
1.202,3.6927e-05,0
1.2025,3.3066e-05,0
1.203,3.3402e-05,0
1.2035,3.6423e-05,0
1.204,3.743e-05,0
1.2045,3.7095e-05,0
1.205,3.4073e-05,0
1.2055,2.9709e-05,0
1.206,2.5345e-05,0
1.2065,2.5345e-05,0
1.207,2.6352e-05,0
1.2075,2.652e-05,0
1.208,2.5345e-05,0
1.2085,2.1988e-05,0
1.209,2.1653e-05,0
1.2095,2.4506e-05,0
1.21,2.6688e-05,0
1.2105,2.5009e-05,0
1.211,2.652e-05,0
1.2115,3.1388e-05,0
1.212,2.8031e-05,0
1.2125,2.1317e-05,0
1.213,2.1317e-05,0
1.2135,2.0646e-05,0
1.214,2.1317e-05,0
1.2145,2.8031e-05,0
1.215,3.0716e-05,0
1.2155,3.1388e-05,0
1.216,3.7262e-05,0
1.2165,4.0787e-05,0
1.217,3.8102e-05,0
1.2175,3.4409e-05,0
1.218,3.0716e-05,0
1.2185,2.8702e-05,0
1.219,2.6017e-05,0
1.2195,2.4002e-05,0
1.22,2.266e-05,0
1.2205,1.9638e-05,0
1.221,1.6617e-05,0
1.2215,1.2757e-05,0
1.222,6.8818e-06,0
1.2225,6.8818e-06,0
1.223,1.2589e-05,0
1.2235,1.2924e-05,0
1.224,1.0071e-05,0
1.2245,1.2589e-05,0
1.225,1.2924e-05,0
1.2255,1.1246e-05,0
1.226,1.3932e-05,0
1.2265,1.3092e-05,0
1.227,9.3996e-06,0
1.2275,1.0407e-05,0
1.228,1.0239e-05,0
1.2285,7.5532e-06,0
1.229,6.8818e-06,0
1.2295,8.2246e-06,0
1.23,9.5674e-06,0
1.2305,1.0575e-05,0
1.231,1.0575e-05,0
1.2315,9.5674e-06,0
1.232,7.8889e-06,0
1.2325,1.2757e-05,0
1.233,1.6617e-05,0
1.2335,1.3428e-05,0
1.234,1.3092e-05,0
1.2345,1.796e-05,0
1.235,2.2324e-05,0
1.2355,2.2324e-05,0
1.236,1.9974e-05,0
1.2365,1.7624e-05,0
1.237,1.6617e-05,0
1.2375,2.031e-05,0
1.238,1.9303e-05,0
1.2385,1.7456e-05,0
1.239,1.8631e-05,0
1.2395,1.326e-05,0
1.24,7.0497e-06,0
1.2405,1.326e-05,0
1.241,1.6953e-05,0
1.2415,1.5442e-05,0
1.242,1.561e-05,0
1.2425,1.5946e-05,0
1.243,1.7624e-05,0
1.2435,2.2324e-05,0
1.244,2.4002e-05,0
1.2445,2.3835e-05,0
1.245,2.3835e-05,0
1.2455,2.266e-05,0
1.246,2.182e-05,0
1.2465,1.6617e-05,0
1.247,1.1078e-05,0
1.2475,1.326e-05,0
1.248,1.8296e-05,0
1.2485,2.0142e-05,0
1.249,2.0478e-05,0
1.2495,1.8296e-05,0
1.25,1.7288e-05,0
1.2505,2.5009e-05,0
1.251,2.9038e-05,0
1.2515,2.7359e-05,0
1.252,2.6688e-05,0
1.2525,2.1653e-05,0
1.253,1.8296e-05,0
1.2535,2.1317e-05,0
1.254,1.8128e-05,0
1.2545,1.6114e-05,0
1.255,2.2156e-05,0
1.2555,2.9038e-05,0
1.256,2.9374e-05,0
1.2565,2.652e-05,0
1.257,2.4674e-05,0
1.2575,1.9638e-05,0
1.258,1.4267e-05,0
1.2585,1.3764e-05,0
1.259,1.7792e-05,0
1.2595,1.8463e-05,0
1.26,1.6953e-05,0
1.2605,1.8631e-05,0
1.261,2.1317e-05,0
1.2615,2.1988e-05,0
1.262,2.5345e-05,0
1.2625,2.7192e-05,0
1.263,2.4002e-05,0
1.2635,2.6352e-05,0
1.264,3.0045e-05,0
1.2645,2.7359e-05,0
1.265,2.5177e-05,0
1.2655,2.0478e-05,0
1.266,1.7288e-05,0
1.2665,2.0646e-05,0
1.267,1.8631e-05,0
1.2675,1.3596e-05,0
1.268,1.4435e-05,0
1.2685,1.5106e-05,0
1.269,1.0575e-05,0
1.2695,5.539e-06,0
1.27,7.5532e-06,0
1.2705,1.2924e-05,0
1.271,1.5946e-05,0
1.2715,1.4267e-05,0
1.272,1.0407e-05,0
1.2725,8.7282e-06,0
1.273,5.2033e-06,0
1.2735,1.0071e-06,0
1.274,1.5106e-06,0
1.2745,5.2033e-06,0
1.275,1.2924e-05,0
1.2755,1.561e-05,0
1.276,1.1917e-05,0
1.2765,1.326e-05,0
1.277,1.561e-05,0
1.2775,1.9974e-05,0
1.278,2.887e-05,0
1.2785,2.266e-05,0
1.279,1.0742e-05,0
1.2795,1.2253e-05,0
1.28,1.3596e-05,0
1.2805,1.4267e-05,0
1.281,2.0646e-05,0
1.2815,2.7359e-05,0
1.282,2.8367e-05,0
1.2825,2.8367e-05,0
1.283,2.8031e-05,0
1.2835,2.5345e-05,0
1.284,2.182e-05,0
1.2845,1.8296e-05,0
1.285,1.5946e-05,0
1.2855,1.3932e-05,0
1.286,1.3428e-05,0
1.2865,1.4267e-05,0
1.287,1.7288e-05,0
1.2875,1.7624e-05,0
1.288,1.6953e-05,0
1.2885,1.1749e-05,0
1.289,7.2175e-06,0
1.2895,1.0071e-05,0
1.29,8.5603e-06,0
1.2905,4.3641e-06,0
1.291,7.2175e-06,0
1.2915,1.0239e-05,0
1.292,1.0071e-05,0
1.2925,8.5603e-06,0
1.293,5.7069e-06,0
1.2935,6.2104e-06,0
1.294,1.2253e-05,0
1.2945,1.5106e-05,0
1.295,1.6953e-05,0
1.2955,2.3163e-05,0
1.296,2.9374e-05,0
1.2965,3.1891e-05,0
1.297,3.122e-05,0
1.2975,3.0213e-05,0
1.298,3.0045e-05,0
1.2985,3.0381e-05,0
1.299,3.2059e-05,0
1.2995,3.5752e-05,0
1.3,3.508e-05,0
1.3005,3.1556e-05,0
1.301,3.0716e-05,0
1.3015,2.7359e-05,0
1.302,2.266e-05,0
1.3025,2.5681e-05,0
1.303,2.5681e-05,0
1.3035,1.9806e-05,0
1.304,1.796e-05,0
1.3045,1.4267e-05,0
1.305,1.0575e-05,0
1.3055,1.0071e-05,0
1.306,3.6927e-06,0
1.3065,-1.8463e-06,0
1.307,3.0213e-06,0
1.3075,9.2317e-06,0
1.308,1.1078e-05,0
1.3085,9.5674e-06,0
1.309,7.2175e-06,0
1.3095,6.8818e-06,0
1.31,5.0355e-06,0
1.3105,2.182e-06,0
1.311,1.6785e-06,0
1.3115,3.1891e-06,0
1.312,6.5461e-06,0
1.3125,9.0639e-06,0
1.313,1.1749e-05,0
1.3135,1.5778e-05,0
1.314,2.0981e-05,0
1.3145,2.3499e-05,0
1.315,2.266e-05,0
1.3155,2.0981e-05,0
1.316,1.326e-05,0
1.3165,6.2104e-06,0
1.317,8.2246e-06,0
1.3175,4.3641e-06,0
1.318,0,0
1.3185,5.2033e-06,0
1.319,5.0355e-06,0
1.3195,-6.714e-07,0
1.32,-5.035e-07,0
1.3205,4.0284e-06,0
1.321,1.0575e-05,0
1.3215,1.5946e-05,0
1.322,1.8296e-05,0
1.3225,1.9303e-05,0
1.323,1.8296e-05,0
1.3235,1.796e-05,0
1.324,2.031e-05,0
1.3245,2.2324e-05,0
1.325,2.3331e-05,0
1.3255,2.3331e-05,0
1.326,2.3499e-05,0
1.3265,2.2995e-05,0
1.327,2.6352e-05,0
1.3275,2.5009e-05,0
1.328,1.8296e-05,0
1.3285,1.9638e-05,0
1.329,2.1317e-05,0
1.3295,2.5009e-05,0
1.33,3.2898e-05,0
1.3305,3.2059e-05,0
1.331,3.0716e-05,0
1.3315,3.5416e-05,0
1.332,3.4409e-05,0
1.3325,3.3066e-05,0
1.333,4.2466e-05,0
1.3335,5.0858e-05,0
1.334,5.1194e-05,0
1.3345,4.7333e-05,0
1.335,4.2802e-05,0
1.3355,4.2634e-05,0
1.336,4.2634e-05,0
1.3365,4.1123e-05,0
1.337,3.9948e-05,0
1.3375,3.8102e-05,0
1.338,3.7095e-05,0
1.3385,4.0452e-05,0
1.339,3.9109e-05,0
1.3395,3.0549e-05,0
1.34,2.4002e-05,0
1.3405,2.1653e-05,0
1.341,2.2828e-05,0
1.3415,3.2563e-05,0
1.342,3.5416e-05,0
1.3425,2.9374e-05,0
1.343,2.7024e-05,0
1.3435,3.2059e-05,0
1.344,4.0787e-05,0
1.3445,4.8173e-05,0
1.345,4.3977e-05,0
1.3455,3.5416e-05,0
1.346,3.6927e-05,0
1.3465,3.8102e-05,0
1.347,3.4241e-05,0
1.3475,3.4241e-05,0
1.348,3.6759e-05,0
1.3485,3.3066e-05,0
1.349,2.6017e-05,0
1.3495,2.4002e-05,0
1.35,2.5681e-05,0
1.3505,2.4002e-05,0
1.351,1.7288e-05,0
1.3515,9.5674e-06,0
1.352,8.896e-06,0
1.3525,1.2757e-05,0
1.353,1.5946e-05,0
1.3535,1.091e-05,0
1.354,4.5319e-06,0
1.3545,1.0575e-05,0
1.355,1.5946e-05,0
1.3555,1.3596e-05,0
1.356,1.5946e-05,0
1.3565,1.6281e-05,0
1.357,1.3932e-05,0
1.3575,1.6953e-05,0
1.358,1.561e-05,0
1.3585,1.0239e-05,0
1.359,8.2246e-06,0
1.3595,1.0575e-05,0
1.36,1.3092e-05,0
1.3605,1.1246e-05,0
1.361,1.1246e-05,0
1.3615,1.5946e-05,0
1.362,1.4603e-05,0
1.3625,7.8889e-06,0
1.363,7.2175e-06,0
1.3635,1.1582e-05,0
1.364,1.2757e-05,0
1.3645,1.0575e-05,0
1.365,9.2317e-06,0
1.3655,7.3854e-06,0
1.366,7.7211e-06,0
1.3665,2.0142e-06,0
1.367,-3.5248e-06,0
1.3675,6.714e-07,0
1.368,2.0142e-06,0
1.3685,3.357e-07,0
1.369,4.0284e-06,0
1.3695,4.5319e-06,0
1.37,3.8605e-06,0
1.3705,5.8747e-06,0
1.371,2.3499e-06,0
1.3715,2.0142e-06,0
1.372,9.9031e-06,0
1.3725,1.5946e-05,0
1.373,1.5274e-05,0
1.3735,1.1246e-05,0
1.374,1.0575e-05,0
1.3745,1.4939e-05,0
1.375,2.031e-05,0
1.3755,2.8031e-05,0
1.376,3.0716e-05,0
1.3765,2.9709e-05,0
1.377,2.887e-05,0
1.3775,2.5681e-05,0
1.378,2.2324e-05,0
1.3785,1.9974e-05,0
1.379,1.947e-05,0
1.3795,1.8128e-05,0
1.38,1.796e-05,0
1.3805,2.182e-05,0
1.381,1.796e-05,0
1.3815,1.4939e-05,0
1.382,1.9303e-05,0
1.3825,2.0646e-05,0
1.383,1.8631e-05,0
1.3835,1.8631e-05,0
1.384,1.4939e-05,0
1.3845,1.1582e-05,0
1.385,1.4267e-05,0
1.3855,1.3596e-05,0
1.386,1.0071e-05,0
1.3865,7.0497e-06,0
1.387,3.6927e-06,0
1.3875,2.8534e-06,0
1.388,4.8676e-06,0
1.3885,7.8889e-06,0
1.389,1.2589e-05,0
1.3895,1.3932e-05,0
1.39,1.4603e-05,0
1.3905,1.9974e-05,0
1.391,2.6017e-05,0
1.3915,2.6184e-05,0
1.392,2.266e-05,0
1.3925,1.9303e-05,0
1.393,1.947e-05,0
1.3935,2.4338e-05,0
1.394,2.1317e-05,0
1.3945,1.0407e-05,0
1.395,9.7353e-06,0
1.3955,1.3932e-05,0
1.396,1.5946e-05,0
1.3965,1.947e-05,0
1.397,1.796e-05,0
1.3975,1.4603e-05,0
1.398,1.5946e-05,0
1.3985,1.9303e-05,0
1.399,2.3331e-05,0
1.3995,2.7863e-05,0
1.4,2.8702e-05,0
1.4005,2.6352e-05,0
1.401,2.5849e-05,0
1.4015,3.1556e-05,0
1.402,3.7934e-05,0
1.4025,4.0452e-05,0
1.403,3.6591e-05,0
1.4035,2.9374e-05,0
1.404,2.6017e-05,0
1.4045,2.4674e-05,0
1.405,2.8702e-05,0
1.4055,3.2898e-05,0
1.406,3.4073e-05,0
1.4065,3.7766e-05,0
1.407,3.5248e-05,0
1.4075,2.9374e-05,0
1.408,3.1052e-05,0
1.4085,2.9038e-05,0
1.409,2.4842e-05,0
1.4095,2.8367e-05,0
1.41,2.9877e-05,0
1.4105,2.8367e-05,0
1.411,2.6688e-05,0
1.4115,2.4002e-05,0
1.412,2.5345e-05,0
1.4125,2.9374e-05,0
1.413,3.1388e-05,0
1.4135,2.7863e-05,0
1.414,2.3331e-05,0
1.4145,2.0478e-05,0
1.415,1.7792e-05,0
1.4155,1.5946e-05,0
1.416,1.3092e-05,0
1.4165,8.2246e-06,0
1.417,4.5319e-06,0
1.4175,1.0071e-06,0
1.418,-8.392e-07,0
1.4185,-5.3712e-06,0
1.419,-9.0639e-06,0
1.4195,-5.0355e-06,0
1.42,-6.8818e-06,0
1.4205,-7.2175e-06,0
1.421,2.182e-06,0
1.4215,6.5461e-06,0
1.422,5.539e-06,0
1.4225,8.896e-06,0
1.423,8.7282e-06,0
1.4235,8.3925e-06,0
1.424,1.5274e-05,0
1.4245,2.6017e-05,0
1.425,3.0716e-05,0
1.4255,2.5849e-05,0
1.426,1.9303e-05,0
1.4265,1.6281e-05,0
1.427,1.7792e-05,0
1.4275,1.9974e-05,0
1.428,1.5106e-05,0
1.4285,1.1246e-05,0
1.429,1.5106e-05,0
1.4295,1.9303e-05,0
1.43,1.9303e-05,0
1.4305,1.3596e-05,0
1.431,9.7353e-06,0
1.4315,9.7353e-06,0
1.432,1.2085e-05,0
1.4325,1.9303e-05,0
1.433,2.031e-05,0
1.4335,1.9135e-05,0
1.434,2.3331e-05,0
1.4345,2.0981e-05,0
1.435,1.6953e-05,0
1.4355,1.9638e-05,0
1.436,2.2995e-05,0
1.4365,2.5177e-05,0
1.437,2.8702e-05,0
1.4375,2.9877e-05,0
1.438,3.0381e-05,0
1.4385,3.3906e-05,0
1.439,3.6088e-05,0
1.4395,3.4241e-05,0
1.44,3.743e-05,0
1.4405,4.1459e-05,0
1.441,3.8605e-05,0
1.4415,3.3234e-05,0
1.442,3.0213e-05,0
1.4425,2.9038e-05,0
1.443,2.7527e-05,0
1.4435,2.5345e-05,0
1.444,2.6017e-05,0
1.4445,2.3331e-05,0
1.445,1.8296e-05,0
1.4455,1.7624e-05,0
1.446,1.326e-05,0
1.4465,1.1917e-05,0
1.447,1.6785e-05,0
1.4475,1.5442e-05,0
1.448,1.0407e-05,0
1.4485,1.0742e-05,0
1.449,6.2104e-06,0
1.4495,-5.035e-07,0
1.45,2.3499e-06,0
1.4505,7.0497e-06,0
1.451,5.0355e-06,0
1.4515,-5.035e-07,0
1.452,8.392e-07,0
1.4525,7.2175e-06,0
1.453,8.5603e-06,0
1.4535,1.0575e-05,0
1.454,1.4603e-05,0
1.4545,1.3932e-05,0
1.455,1.1414e-05,0
1.4555,1.0575e-05,0
1.456,1.1749e-05,0
1.4565,1.561e-05,0
1.457,2.266e-05,0
1.4575,2.4002e-05,0
1.458,2.3163e-05,0
1.4585,2.7024e-05,0
1.459,2.5345e-05,0
1.4595,2.6688e-05,0
1.46,3.3402e-05,0
1.4605,3.1052e-05,0
1.461,2.4002e-05,0
1.4615,2.4842e-05,0
1.462,2.4338e-05,0
1.4625,2.1988e-05,0
1.463,1.8631e-05,0
1.4635,1.1582e-05,0
1.464,3.8605e-06,0
1.4645,2.5177e-06,0
1.465,4.6998e-06,0
1.4655,7.0497e-06,0
1.466,7.8889e-06,0
1.4665,8.5603e-06,0
1.467,1.1749e-05,0
1.4675,1.5946e-05,0
1.468,1.8967e-05,0
1.4685,2.0981e-05,0
1.469,1.9135e-05,0
1.4695,1.3596e-05,0
1.47,1.3932e-05,0
1.4705,1.5946e-05,0
1.471,1.5946e-05,0
1.4715,2.5009e-05,0
1.472,3.1891e-05,0
1.4725,3.2731e-05,0
1.473,3.4073e-05,0
1.4735,2.7527e-05,0
1.474,2.3163e-05,0
1.4745,3.0381e-05,0
1.475,3.4745e-05,0
1.4755,3.1724e-05,0
1.476,3.4409e-05,0
1.4765,4.2802e-05,0
1.477,4.6494e-05,0
1.4775,4.0452e-05,0
1.478,3.122e-05,0
1.4785,2.6688e-05,0
1.479,2.4842e-05,0
1.4795,1.9303e-05,0
1.48,1.326e-05,0
1.4805,1.4603e-05,0
1.481,1.9303e-05,0
1.4815,1.7456e-05,0
1.482,1.4267e-05,0
1.4825,1.3596e-05,0
1.483,1.4939e-05,0
1.4835,1.091e-05,0
1.484,3.0213e-06,0
1.4845,4.1962e-06,0
1.485,4.0284e-06,0
1.4855,-1.8463e-06,0
1.486,-3.0213e-06,0
1.4865,-1.5106e-06,0
1.487,2.8534e-06,0
1.4875,1.2589e-05,0
1.488,1.3932e-05,0
1.4885,9.2317e-06,0
1.489,1.2085e-05,0
1.4895,1.7792e-05,0
1.49,1.8463e-05,0
1.4905,1.4603e-05,0
1.491,1.1749e-05,0
1.4915,1.3764e-05,0
1.492,2.031e-05,0
1.4925,2.2324e-05,0
1.493,2.031e-05,0
1.4935,2.1988e-05,0
1.494,2.3667e-05,0
1.4945,2.2324e-05,0
1.495,2.1317e-05,0
1.4955,1.6785e-05,0
1.496,1.3092e-05,0
1.4965,1.1582e-05,0
1.497,1.1078e-05,0
1.4975,1.6114e-05,0
1.498,1.4603e-05,0
1.4985,5.8747e-06,0
1.499,2.0142e-06,0
1.4995,0,0
1.5,1.6785e-06,0
1.5005,5.7069e-06,0
1.501,3.0213e-06,0
1.5015,-1.678e-07,0
1.502,4.1962e-06,0
1.5025,9.2317e-06,0
1.503,1.1917e-05,0
1.5035,1.326e-05,0
1.504,1.1582e-05,0
1.5045,7.2175e-06,0
1.505,5.8747e-06,0
1.5055,9.3996e-06,0
1.506,1.1078e-05,0
1.5065,7.7211e-06,0
1.507,2.182e-06,0
1.5075,2.0142e-06,0
1.508,7.8889e-06,0
1.5085,1.2924e-05,0
1.509,1.8799e-05,0
1.5095,2.1317e-05,0
1.51,2.2995e-05,0
1.5105,3.0549e-05,0
1.511,2.8534e-05,0
1.5115,2.5681e-05,0
1.512,3.0381e-05,0
1.5125,2.7192e-05,0
1.513,2.2324e-05,0
1.5135,2.182e-05,0
1.514,1.8799e-05,0
1.5145,1.9303e-05,0
1.515,2.7863e-05,0
1.5155,3.6759e-05,0
1.516,4.0619e-05,0
1.5165,3.8102e-05,0
1.517,3.8605e-05,0
1.5175,4.213e-05,0
1.518,4.1459e-05,0
1.5185,3.6088e-05,0
1.519,3.2898e-05,0
1.5195,3.4745e-05,0
1.52,3.5248e-05,0
1.5205,3.3906e-05,0
1.521,3.3402e-05,0
1.5215,3.3738e-05,0
1.522,3.508e-05,0
1.5225,3.508e-05,0
1.523,3.4073e-05,0
1.5235,4.1123e-05,0
1.524,4.6494e-05,0
1.5245,4.6662e-05,0
1.525,4.6494e-05,0
1.5255,4.1962e-05,0
1.526,3.6255e-05,0
1.5265,3.2059e-05,0
1.527,2.4002e-05,0
1.5275,1.7288e-05,0
1.528,1.7288e-05,0
1.5285,1.7288e-05,0
1.529,1.796e-05,0
1.5295,1.3764e-05,0
1.53,5.2033e-06,0
1.5305,-1.1749e-06,0
1.531,-6.714e-07,0
1.5315,-5.035e-07,0
1.532,-1.8463e-06,0
1.5325,1.1749e-06,0
1.533,5.2033e-06,0
1.5335,5.2033e-06,0
1.534,3.8605e-06,0
1.5345,8.392e-07,0
1.535,3.357e-07,0
1.5355,-8.392e-07,0
1.536,-1.1749e-06,0
1.5365,7.5532e-06,0
1.537,1.0575e-05,0
1.5375,9.5674e-06,0
1.538,1.4603e-05,0
1.5385,1.5946e-05,0
1.539,1.5946e-05,0
1.5395,2.3331e-05,0
1.54,2.6352e-05,0
1.5405,2.8702e-05,0
1.541,3.6759e-05,0
1.5415,4.5655e-05,0
1.542,4.5319e-05,0
1.5425,4.0787e-05,0
1.543,4.0116e-05,0
1.5435,3.8605e-05,0
1.544,3.4745e-05,0
1.5445,2.9374e-05,0
1.545,2.3163e-05,0
1.5455,1.8631e-05,0
1.546,1.7624e-05,0
1.5465,2.031e-05,0
1.547,2.4674e-05,0
1.5475,2.7024e-05,0
1.548,2.652e-05,0
1.5485,1.8631e-05,0
1.549,1.1246e-05,0
1.5495,1.6281e-05,0
1.55,2.3163e-05,0
1.5505,2.2995e-05,0
1.551,2.3331e-05,0
1.5515,2.266e-05,0
1.552,2.266e-05,0
1.5525,2.2492e-05,0
1.553,1.7121e-05,0
1.5535,1.326e-05,0
1.554,1.9135e-05,0
1.5545,2.5681e-05,0
1.555,2.8702e-05,0
1.5555,2.7695e-05,0
1.556,2.4002e-05,0
1.5565,2.2828e-05,0
1.557,2.4506e-05,0
1.5575,2.9038e-05,0
1.558,3.357e-05,0
1.5585,2.9038e-05,0
1.559,2.2492e-05,0
1.5595,2.031e-05,0
1.56,2.1317e-05,0
1.5605,1.9974e-05,0
1.561,1.8631e-05,0
1.5615,1.4267e-05,0
1.562,1.326e-05,0
1.5625,2.031e-05,0
1.563,1.9974e-05,0
1.5635,1.5946e-05,0
1.564,1.9303e-05,0
1.5645,1.9638e-05,0
1.565,1.8799e-05,0
1.5655,2.4506e-05,0
1.566,2.6688e-05,0
1.5665,3.3234e-05,0
1.567,4.2634e-05,0
1.5675,4.4984e-05,0
1.568,4.0787e-05,0
1.5685,3.5584e-05,0
1.569,3.2898e-05,0
1.5695,3.4577e-05,0
1.57,3.5584e-05,0
1.5705,3.0716e-05,0
1.571,2.3499e-05,0
1.5715,1.8967e-05,0
1.572,2.1317e-05,0
1.5725,2.6017e-05,0
1.573,2.6688e-05,0
1.5735,2.1317e-05,0
1.574,1.796e-05,0
1.5745,1.2924e-05,0
1.575,6.0426e-06,0
1.5755,3.8605e-06,0
1.576,-1.3428e-06,0
1.5765,-5.2033e-06,0
1.577,-1.1749e-06,0
1.5775,8.392e-07,0
1.578,8.392e-07,0
1.5785,3.8605e-06,0
1.579,2.8534e-06,0
1.5795,3.357e-06,0
1.58,8.5603e-06,0
1.5805,1.326e-05,0
1.581,1.0407e-05,0
1.5815,4.6998e-06,0
1.582,4.5319e-06,0
1.5825,1.0407e-05,0
1.583,1.3932e-05,0
1.5835,1.1582e-05,0
1.584,5.2033e-06,0
1.5845,2.3499e-06,0
1.585,7.5532e-06,0
1.5855,1.2421e-05,0
1.586,1.2589e-05,0
1.5865,1.1414e-05,0
1.587,1.2757e-05,0
1.5875,1.1246e-05,0
1.588,1.1917e-05,0
1.5885,2.0813e-05,0
1.589,1.9974e-05,0
1.5895,1.6953e-05,0
1.59,2.0813e-05,0
1.5905,2.266e-05,0
1.591,2.3331e-05,0
1.5915,2.7695e-05,0
1.592,2.7024e-05,0
1.5925,2.5345e-05,0
1.593,2.417e-05,0
1.5935,1.9974e-05,0
1.594,1.5442e-05,0
1.5945,1.5946e-05,0
1.595,1.6617e-05,0
1.5955,1.7121e-05,0
1.596,1.8463e-05,0
1.5965,1.8967e-05,0
1.597,1.8296e-05,0
1.5975,1.7792e-05,0
1.598,1.4435e-05,0
1.5985,1.2924e-05,0
1.599,1.5946e-05,0
1.5995,1.6281e-05,0
1.6,1.4939e-05,0
1.6005,1.1917e-05,0
1.601,1.2924e-05,0
1.6015,2.2995e-05,0
1.602,2.4674e-05,0
1.6025,2.031e-05,0
1.603,2.2828e-05,0
1.6035,1.9974e-05,0
1.604,1.326e-05,0
1.6045,1.5946e-05,0
1.605,1.3932e-05,0
1.6055,1.0575e-05,0
1.606,1.326e-05,0
1.6065,1.5442e-05,0
1.607,1.6114e-05,0
1.6075,1.6617e-05,0
1.608,1.1246e-05,0
1.6085,-6.714e-07,0
1.609,-7.5532e-06,0
1.6095,-1.8463e-06,0
1.61,5.2033e-06,0
1.6105,6.8818e-06,0
1.611,2.3499e-06,0
1.6115,-2.8534e-06,0
1.612,-2.8534e-06,0
1.6125,2.8534e-06,0
1.613,7.8889e-06,0
1.6135,7.7211e-06,0
1.614,8.5603e-06,0
1.6145,1.326e-05,0
1.615,1.2924e-05,0
1.6155,1.0575e-05,0
1.616,1.326e-05,0
1.6165,1.091e-05,0
1.617,8.2246e-06,0
1.6175,7.7211e-06,0
1.618,3.8605e-06,0
1.6185,2.5177e-06,0
1.619,1.1749e-05,0
1.6195,2.0646e-05,0
1.62,2.0646e-05,0
1.6205,1.4603e-05,0
1.621,1.091e-05,0
1.6215,1.4939e-05,0
1.622,2.3667e-05,0
1.6225,2.4842e-05,0
1.623,2.1988e-05,0
1.6235,2.7527e-05,0
1.624,3.5248e-05,0
1.6245,3.4745e-05,0
1.625,3.3738e-05,0
1.6255,3.2731e-05,0
1.626,2.8367e-05,0
1.6265,1.7792e-05,0
1.627,1.1246e-05,0
1.6275,2.0646e-05,0
1.628,2.7863e-05,0
1.6285,2.9038e-05,0
1.629,2.9038e-05,0
1.6295,2.266e-05,0
1.63,1.7624e-05,0
1.6305,2.031e-05,0
1.631,2.266e-05,0
1.6315,2.6688e-05,0
1.632,3.2395e-05,0
1.6325,3.3402e-05,0
1.633,3.1891e-05,0
1.6335,3.1388e-05,0
1.634,3.2563e-05,0
1.6345,3.2059e-05,0
1.635,2.9709e-05,0
1.6355,2.8534e-05,0
1.636,2.7695e-05,0
1.6365,2.8031e-05,0
1.637,2.8031e-05,0
1.6375,2.7359e-05,0
1.638,3.0213e-05,0
1.6385,3.5416e-05,0
1.639,3.7095e-05,0
1.6395,3.2059e-05,0
1.64,2.5177e-05,0
1.6405,3.1891e-05,0
1.641,3.4745e-05,0
1.6415,2.9374e-05,0
1.642,2.1988e-05,0
1.6425,9.5674e-06,0
1.643,1.8463e-06,0
1.6435,9.5674e-06,0
1.644,1.9638e-05,0
1.6445,2.0646e-05,0
1.645,2.6184e-05,0
1.6455,3.6088e-05,0
1.646,3.743e-05,0
1.6465,3.5416e-05,0
1.647,3.8773e-05,0
1.6475,4.2802e-05,0
1.648,4.2466e-05,0
1.6485,3.743e-05,0
1.649,3.2059e-05,0
1.6495,3.0381e-05,0
1.65,3.1724e-05,0
1.6505,3.0716e-05,0
1.651,2.7695e-05,0
1.6515,2.3835e-05,0
1.652,2.031e-05,0
1.6525,1.6617e-05,0
1.653,1.326e-05,0
1.6535,1.4771e-05,0
1.654,1.5946e-05,0
1.6545,1.7288e-05,0
1.655,2.182e-05,0
1.6555,1.9135e-05,0
1.656,1.1246e-05,0
1.6565,1.4603e-05,0
1.657,1.5946e-05,0
1.6575,1.1582e-05,0
1.658,1.1917e-05,0
1.6585,1.5106e-05,0
1.659,1.561e-05,0
1.6595,1.6281e-05,0
1.66,1.9303e-05,0
1.6605,1.9806e-05,0
1.661,2.0646e-05,0
1.6615,2.1317e-05,0
1.662,2.1317e-05,0
1.6625,1.9638e-05,0
1.663,1.8799e-05,0
1.6635,1.947e-05,0
1.664,1.796e-05,0
1.6645,1.5106e-05,0
1.665,2.031e-05,0
1.6655,2.3163e-05,0
1.666,2.031e-05,0
1.6665,2.2828e-05,0
1.667,2.1317e-05,0
1.6675,1.7288e-05,0
1.668,1.9806e-05,0
1.6685,2.0813e-05,0
1.669,1.7288e-05,0
1.6695,1.5946e-05,0
1.67,1.4603e-05,0
1.6705,1.2924e-05,0
1.671,1.4603e-05,0
1.6715,1.4603e-05,0
1.672,9.9031e-06,0
1.6725,6.714e-07,0
1.673,-7.2175e-06,0
1.6735,-7.8889e-06,0
1.674,-6.3783e-06,0
1.6745,-7.5532e-06,0
1.675,-7.5532e-06,0
1.6755,-6.8818e-06,0
1.676,-2.8534e-06,0
1.6765,7.2175e-06,0
1.677,1.4939e-05,0
1.6775,1.6617e-05,0
1.678,1.8128e-05,0
1.6785,1.3932e-05,0
1.679,9.9031e-06,0
1.6795,1.326e-05,0
1.68,1.3932e-05,0
1.6805,1.1917e-05,0
1.681,1.5946e-05,0
1.6815,1.7792e-05,0
1.682,1.5778e-05,0
1.6825,1.5106e-05,0
1.683,1.2421e-05,0
1.6835,1.1414e-05,0
1.684,1.3596e-05,0
1.6845,1.1246e-05,0
1.685,7.0497e-06,0
1.6855,7.7211e-06,0
1.686,1.1414e-05,0
1.6865,1.0575e-05,0
1.687,7.8889e-06,0
1.6875,6.8818e-06,0
1.688,7.5532e-06,0
1.6885,8.3925e-06,0
1.689,8.2246e-06,0
1.6895,6.8818e-06,0
1.69,3.5248e-06,0
1.6905,2.0142e-06,0
1.691,3.6927e-06,0
1.6915,1.8463e-06,0
1.692,-1.3428e-06,0
1.6925,4.5319e-06,0
1.693,9.5674e-06,0
1.6935,1.0071e-05,0
1.694,1.3932e-05,0
1.6945,1.5946e-05,0
1.695,1.5274e-05,0
1.6955,1.7624e-05,0
1.696,1.9806e-05,0
1.6965,2.182e-05,0
1.697,2.3667e-05,0
1.6975,2.6688e-05,0
1.698,2.9877e-05,0
1.6985,2.9374e-05,0
1.699,2.6184e-05,0
1.6995,2.4002e-05,0
1.7,2.5345e-05,0
1.7005,2.6184e-05,0
1.701,2.4002e-05,0
1.7015,2.182e-05,0
1.702,1.8967e-05,0
1.7025,1.7792e-05,0
1.703,1.9974e-05,0
1.7035,2.7024e-05,0
1.704,3.3402e-05,0
1.7045,3.0213e-05,0
1.705,2.7359e-05,0
1.7055,3.2395e-05,0
1.706,2.8031e-05,0
1.7065,1.6617e-05,0
1.707,1.5442e-05,0
1.7075,1.8631e-05,0
1.708,2.182e-05,0
1.7085,2.4002e-05,0
1.709,2.1988e-05,0
1.7095,2.1653e-05,0
1.71,2.6688e-05,0
1.7105,3.2395e-05,0
1.711,3.743e-05,0
1.7115,4.2802e-05,0
1.712,4.3473e-05,0
1.7125,3.8941e-05,0
1.713,3.5584e-05,0
1.7135,3.4745e-05,0
1.714,3.6423e-05,0
1.7145,4.0116e-05,0
1.715,4.4984e-05,0
1.7155,4.683e-05,0
1.716,4.5487e-05,0
1.7165,4.2298e-05,0
1.717,3.592e-05,0
1.7175,2.7024e-05,0
1.718,2.3331e-05,0
1.7185,2.7192e-05,0
1.719,2.4674e-05,0
1.7195,1.9135e-05,0
1.72,1.7456e-05,0
1.7205,1.4771e-05,0
1.721,1.5778e-05,0
1.7215,2.266e-05,0
1.722,2.1653e-05,0
1.7225,1.6953e-05,0
1.723,1.7288e-05,0
1.7235,1.9638e-05,0
1.724,1.796e-05,0
1.7245,1.3596e-05,0
1.725,8.3925e-06,0
1.7255,5.8747e-06,0
1.726,1.1078e-05,0
1.7265,1.4099e-05,0
1.727,1.2589e-05,0
1.7275,8.0568e-06,0
1.728,7.3854e-06,0
1.7285,9.2317e-06,0
1.729,5.0355e-06,0
1.7295,5.035e-07,0
1.73,1.6785e-06,0
1.7305,-1.8463e-06,0
1.731,-5.2033e-06,0
1.7315,1.3428e-06,0
1.732,5.2033e-06,0
1.7325,2.0142e-06,0
1.733,2.5177e-06,0
1.7335,3.5248e-06,0
1.734,2.5177e-06,0
1.7345,7.8889e-06,0
1.735,9.9031e-06,0
1.7355,1.0575e-05,0
1.736,1.6281e-05,0
1.7365,1.9974e-05,0
1.737,2.1988e-05,0
1.7375,2.5513e-05,0
1.738,2.8031e-05,0
1.7385,2.5177e-05,0
1.739,2.182e-05,0
1.7395,2.1317e-05,0
1.74,2.0813e-05,0
1.7405,2.1988e-05,0
1.741,2.5177e-05,0
1.7415,2.5681e-05,0
1.742,2.266e-05,0
1.7425,1.9638e-05,0
1.743,2.2156e-05,0
1.7435,2.1317e-05,0
1.744,1.7792e-05,0
1.7445,1.8296e-05,0
1.745,1.6617e-05,0
1.7455,1.2589e-05,0
1.746,1.5442e-05,0
1.7465,1.5946e-05,0
1.747,1.6953e-05,0
1.7475,2.5681e-05,0
1.748,2.8702e-05,0
1.7485,2.5345e-05,0
1.749,1.796e-05,0
1.7495,1.1749e-05,0
1.75,1.2421e-05,0
1.7505,1.5946e-05,0
1.751,1.7624e-05,0
1.7515,1.9303e-05,0
1.752,2.1317e-05,0
1.7525,2.2156e-05,0
1.753,2.8031e-05,0
1.7535,3.4745e-05,0
1.754,3.4409e-05,0
1.7545,3.0549e-05,0
1.755,3.0549e-05,0
1.7555,3.2731e-05,0
1.756,3.6088e-05,0
1.7565,3.1891e-05,0
1.757,2.6352e-05,0
1.7575,3.1556e-05,0
1.758,3.3234e-05,0
1.7585,2.6688e-05,0
1.759,2.5513e-05,0
1.7595,2.5681e-05,0
1.76,2.5345e-05,0
1.7605,3.1388e-05,0
1.761,3.1052e-05,0
1.7615,2.8031e-05,0
1.762,3.0381e-05,0
1.7625,3.1891e-05,0
1.763,3.0549e-05,0
1.7635,2.6688e-05,0
1.764,2.7359e-05,0
1.7645,2.9374e-05,0
1.765,3.122e-05,0
1.7655,3.2731e-05,0
1.766,3.2898e-05,0
1.7665,3.4745e-05,0
1.767,4.0955e-05,0
1.7675,4.3809e-05,0
1.768,4.1459e-05,0
1.7685,3.7766e-05,0
1.769,3.6423e-05,0
1.7695,3.4241e-05,0
1.77,3.0045e-05,0
1.7705,3.122e-05,0
1.771,3.2059e-05,0
1.7715,2.9206e-05,0
1.772,2.6688e-05,0
1.7725,1.5946e-05,0
1.773,9.5674e-06,0
1.7735,1.4267e-05,0
1.774,1.4939e-05,0
1.7745,1.2589e-05,0
1.775,1.4267e-05,0
1.7755,1.9806e-05,0
1.776,2.2324e-05,0
1.7765,2.1988e-05,0
1.777,1.8631e-05,0
1.7775,1.4099e-05,0
1.778,1.7624e-05,0
1.7785,2.3331e-05,0
1.779,1.9806e-05,0
1.7795,1.1414e-05,0
1.78,7.5532e-06,0
1.7805,8.3925e-06,0
1.781,7.2175e-06,0
1.7815,4.5319e-06,0
1.782,3.1891e-06,0
1.7825,3.357e-07,0
1.783,-5.7069e-06,0
1.7835,-3.6927e-06,0
1.784,8.392e-07,0
1.7845,3.1891e-06,0
1.785,5.2033e-06,0
1.7855,8.392e-07,0
1.786,-2.3499e-06,0
1.7865,3.8605e-06,0
1.787,8.5603e-06,0
1.7875,1.0575e-05,0
1.788,1.3092e-05,0
1.7885,1.4603e-05,0
1.789,1.2924e-05,0
1.7895,1.2924e-05,0
1.79,1.2757e-05,0
1.7905,1.2253e-05,0
1.791,1.6953e-05,0
1.7915,2.1149e-05,0
1.792,1.7792e-05,0
1.7925,1.2085e-05,0
1.793,1.1246e-05,0
1.7935,7.5532e-06,0
1.794,2.8534e-06,0
1.7945,2.182e-06,0
1.795,3.5248e-06,0
1.7955,3.357e-07,0
1.796,1.5106e-06,0
1.7965,8.896e-06,0
1.797,5.2033e-06,0
1.7975,-1.6785e-06,0
1.798,2.182e-06,0
1.7985,4.8676e-06,0
1.799,3.1891e-06,0
1.7995,5.2033e-06,0
1.8,3.5248e-06,0
1.8005,3.357e-07,0
1.801,1.5106e-06,0
1.8015,4.8676e-06,0
1.802,7.7211e-06,0
1.8025,9.0639e-06,0
1.803,1.1246e-05,0
1.8035,1.4771e-05,0
1.804,2.2324e-05,0
1.8045,2.7359e-05,0
1.805,2.5345e-05,0
1.8055,2.5345e-05,0
1.806,3.2898e-05,0
1.8065,3.9109e-05,0
1.807,3.8102e-05,0
1.8075,3.5752e-05,0
1.808,4.1123e-05,0
1.8085,4.5487e-05,0
1.809,4.5823e-05,0
1.8095,4.7333e-05,0
1.81,4.3305e-05,0
1.8105,3.9109e-05,0
1.811,4.4144e-05,0
1.8115,5.0187e-05,0
1.812,5.5222e-05,0
1.8125,6.0258e-05,0
1.813,5.3544e-05,0
1.8135,4.2802e-05,0
1.814,4.5151e-05,0
1.8145,5.0187e-05,0
1.815,4.9348e-05,0
1.8155,4.5823e-05,0
1.816,4.2802e-05,0
1.8165,3.8605e-05,0
1.817,3.2898e-05,0
1.8175,2.8367e-05,0
1.818,2.8367e-05,0
1.8185,2.6017e-05,0
1.819,2.0478e-05,0
1.8195,1.5274e-05,0
1.82,1.091e-05,0
1.8205,7.5532e-06,0
1.821,8.5603e-06,0
1.8215,8.2246e-06,0
1.822,5.8747e-06,0
1.8225,8.2246e-06,0
1.823,5.8747e-06,0
1.8235,-1.1749e-06,0
1.824,3.5248e-06,0
1.8245,1.5274e-05,0
1.825,2.031e-05,0
1.8255,2.5681e-05,0
1.826,2.6688e-05,0
1.8265,2.8199e-05,0
1.827,2.8031e-05,0
1.8275,2.4002e-05,0
1.828,1.8967e-05,0
1.8285,1.4939e-05,0
1.829,1.4939e-05,0
1.8295,1.6617e-05,0
1.83,1.5946e-05,0
1.8305,1.561e-05,0
1.831,1.3428e-05,0
1.8315,1.2253e-05,0
1.832,1.1246e-05,0
1.8325,1.2253e-05,0
1.833,1.2253e-05,0
1.8335,7.8889e-06,0
1.834,3.1891e-06,0
1.8345,-1.5106e-06,0
1.835,-4.5319e-06,0
1.8355,6.714e-07,0
1.836,4.0284e-06,0
1.8365,1.0071e-06,0
1.837,3.357e-07,0
1.8375,1.0071e-06,0
1.838,8.392e-07,0
1.8385,1.8463e-06,0
1.839,-2.0142e-06,0
1.8395,-5.8747e-06,0
1.84,-2.8534e-06,0
1.8405,-8.392e-07,0
1.841,-3.6927e-06,0
1.8415,-5.8747e-06,0
1.842,-7.2175e-06,0
1.8425,-6.8818e-06,0
1.843,-4.5319e-06,0
1.8435,-2.0142e-06,0
1.844,-5.035e-07,0
1.8445,-3.357e-07,0
1.845,2.3499e-06,0
1.8455,4.3641e-06,0
1.846,5.0355e-06,0
1.8465,5.539e-06,0
1.847,6.2104e-06,0
1.8475,3.357e-06,0
1.848,2.5177e-06,0
1.8485,1.1917e-05,0
1.849,1.4267e-05,0
1.8495,9.0639e-06,0
1.85,8.5603e-06,0
1.8505,6.5461e-06,0
1.851,5.0355e-06,0
1.8515,6.3783e-06,0
1.852,3.357e-06,0
1.8525,6.3783e-06,0
1.853,1.7624e-05,0
1.8535,2.4674e-05,0
1.854,2.4002e-05,0
1.8545,2.0981e-05,0
1.855,1.9974e-05,0
1.8555,2.3331e-05,0
1.856,2.7359e-05,0
1.8565,3.3066e-05,0
1.857,4.0452e-05,0
1.8575,4.6326e-05,0
1.858,4.5823e-05,0
1.8585,4.3473e-05,0
1.859,4.448e-05,0
1.8595,4.3305e-05,0
1.86,3.9445e-05,0
1.8605,3.4577e-05,0
1.861,3.2563e-05,0
1.8615,3.743e-05,0
1.862,4.1795e-05,0
1.8625,4.2466e-05,0
1.863,4.0452e-05,0
1.8635,3.4409e-05,0
1.864,3.1388e-05,0
1.8645,3.6759e-05,0
1.865,3.6927e-05,0
1.8655,3.2563e-05,0
1.866,2.9877e-05,0
1.8665,2.6688e-05,0
1.867,2.5345e-05,0
1.8675,2.4338e-05,0
1.868,2.2156e-05,0
1.8685,2.4506e-05,0
1.869,3.0045e-05,0
1.8695,3.4745e-05,0
1.87,3.8102e-05,0
1.8705,3.5416e-05,0
1.871,2.5177e-05,0
1.8715,1.947e-05,0
1.872,2.1317e-05,0
1.8725,2.0478e-05,0
1.873,1.2589e-05,0
1.8735,5.539e-06,0
1.874,6.2104e-06,0
1.8745,1.3764e-05,0
1.875,1.5106e-05,0
1.8755,1.0407e-05,0
1.876,1.1246e-05,0
1.8765,1.3596e-05,0
1.877,1.5274e-05,0
1.8775,1.8631e-05,0
1.878,1.7121e-05,0
1.8785,1.4603e-05,0
1.879,1.6617e-05,0
1.8795,1.9806e-05,0
1.88,1.9638e-05,0
1.8805,1.6617e-05,0
1.881,1.1917e-05,0
1.8815,7.2175e-06,0
1.882,3.1891e-06,0
1.8825,0,0
1.883,-1.8463e-06,0
1.8835,3.357e-07,0
1.884,3.8605e-06,0
1.8845,5.8747e-06,0
1.885,7.2175e-06,0
1.8855,9.5674e-06,0
1.886,1.2924e-05,0
1.8865,6.3783e-06,0
1.887,1.5106e-06,0
1.8875,1.3596e-05,0
1.888,2.266e-05,0
1.8885,2.1988e-05,0
1.889,2.5849e-05,0
1.8895,2.9206e-05,0
1.89,3.1891e-05,0
1.8905,3.7766e-05,0
1.891,3.7934e-05,0
1.8915,3.3738e-05,0
1.892,3.4577e-05,0
1.8925,3.6759e-05,0
1.893,3.9445e-05,0
1.8935,3.9109e-05,0
1.894,3.4745e-05,0
1.8945,2.9374e-05,0
1.895,2.5849e-05,0
1.8955,2.5849e-05,0
1.896,2.6017e-05,0
1.8965,2.266e-05,0
1.897,1.8631e-05,0
1.8975,1.7288e-05,0
1.898,1.796e-05,0
1.8985,1.6617e-05,0
1.899,1.6617e-05,0
1.8995,1.1246e-05,0
1.9,7.8889e-06,0
1.9005,1.5106e-05,0
1.901,1.8967e-05,0
1.9015,2.1317e-05,0
1.902,2.652e-05,0
1.9025,2.7695e-05,0
1.903,2.5345e-05,0
1.9035,2.9038e-05,0
1.904,2.9038e-05,0
1.9045,2.5177e-05,0
1.905,2.4002e-05,0
1.9055,2.4338e-05,0
1.906,2.2324e-05,0
1.9065,2.3667e-05,0
1.907,2.4002e-05,0
1.9075,2.2156e-05,0
1.908,2.2492e-05,0
1.9085,2.4674e-05,0
1.909,2.9374e-05,0
1.9095,3.4073e-05,0
1.91,3.7934e-05,0
1.9105,3.743e-05,0
1.911,3.1052e-05,0
1.9115,2.1988e-05,0
1.912,1.9638e-05,0
1.9125,1.9638e-05,0
1.913,1.9638e-05,0
1.9135,2.5009e-05,0
1.914,2.3667e-05,0
1.9145,1.7288e-05,0
1.915,1.4939e-05,0
1.9155,7.0497e-06,0
1.916,1.5106e-06,0
1.9165,6.2104e-06,0
1.917,8.3925e-06,0
1.9175,9.5674e-06,0
1.918,1.2924e-05,0
1.9185,1.5946e-05,0
1.919,1.4267e-05,0
1.9195,8.896e-06,0
1.92,4.1962e-06,0
1.9205,3.6927e-06,0
1.921,8.5603e-06,0
1.9215,1.6281e-05,0
1.922,1.9974e-05,0
1.9225,1.5946e-05,0
1.923,8.3925e-06,0
1.9235,3.8605e-06,0
1.924,4.8676e-06,0
1.9245,7.3854e-06,0
1.925,1.3932e-05,0
1.9255,1.4939e-05,0
1.926,1.1749e-05,0
1.9265,1.7288e-05,0
1.927,1.8631e-05,0
1.9275,1.6114e-05,0
1.928,1.9303e-05,0
1.9285,2.0646e-05,0
1.929,1.796e-05,0
1.9295,1.8631e-05,0
1.93,1.3764e-05,0
1.9305,5.2033e-06,0
1.931,3.0213e-06,0
1.9315,7.0497e-06,0
1.932,1.1414e-05,0
1.9325,9.5674e-06,0
1.933,5.2033e-06,0
1.9335,1.1749e-06,0
1.934,-3.357e-06,0
1.9345,-4.3641e-06,0
1.935,1.1749e-06,0
1.9355,1.0575e-05,0
1.936,1.6953e-05,0
1.9365,1.3932e-05,0
1.937,6.8818e-06,0
1.9375,5.2033e-06,0
1.938,1.0239e-05,0
1.9385,7.8889e-06,0
1.939,4.1962e-06,0
1.9395,1.4267e-05,0
1.94,2.4002e-05,0
1.9405,2.4506e-05,0
1.941,1.9806e-05,0
1.9415,4.5319e-06,0
1.942,-7.8889e-06,0
1.9425,-2.5177e-06,0
1.943,9.5674e-06,0
1.9435,1.7624e-05,0
1.944,2.6352e-05,0
1.9445,3.3906e-05,0
1.945,3.1388e-05,0
1.9455,2.7527e-05,0
1.946,2.7527e-05,0
1.9465,2.7359e-05,0
1.947,2.6352e-05,0
1.9475,2.7024e-05,0
1.948,2.6688e-05,0
1.9485,2.5345e-05,0
1.949,2.3331e-05,0
1.9495,2.0478e-05,0
1.95,2.182e-05,0
1.9505,2.4842e-05,0
1.951,2.7024e-05,0
1.9515,2.266e-05,0
1.952,2.0478e-05,0
1.9525,2.7024e-05,0
1.953,3.2395e-05,0
1.9535,3.5248e-05,0
1.954,4.0452e-05,0
1.9545,3.9445e-05,0
1.955,3.1891e-05,0
1.9555,3.2898e-05,0
1.956,3.3066e-05,0
1.9565,2.9374e-05,0
1.957,3.0045e-05,0
1.9575,3.3066e-05,0
1.958,3.6255e-05,0
1.9585,3.743e-05,0
1.959,3.8773e-05,0
1.9595,3.7766e-05,0
1.96,3.5584e-05,0
1.9605,3.5416e-05,0
1.961,3.2731e-05,0
1.9615,2.8367e-05,0
1.962,2.5177e-05,0
1.9625,2.4842e-05,0
1.963,2.182e-05,0
1.9635,1.796e-05,0
1.964,2.0646e-05,0
1.9645,1.9638e-05,0
1.965,1.1246e-05,0
1.9655,8.896e-06,0
1.966,8.2246e-06,0
1.9665,6.714e-06,0
1.967,7.8889e-06,0
1.9675,2.5177e-06,0
1.968,-3.6927e-06,0
1.9685,3.6927e-06,0
1.969,9.9031e-06,0
1.9695,1.1078e-05,0
1.97,1.6449e-05,0
1.9705,2.1149e-05,0
1.971,1.9135e-05,0
1.9715,1.4939e-05,0
1.972,1.326e-05,0
1.9725,1.3764e-05,0
1.973,1.3932e-05,0
1.9735,1.2085e-05,0
1.974,9.9031e-06,0
1.9745,9.2317e-06,0
1.975,1.1917e-05,0
1.9755,1.3764e-05,0
1.976,1.3932e-05,0
1.9765,1.3092e-05,0
1.977,1.6785e-05,0
1.9775,1.5778e-05,0
1.978,1.1414e-05,0
1.9785,1.3764e-05,0
1.979,1.5106e-05,0
1.9795,1.1749e-05,0
1.98,1.2589e-05,0
1.9805,1.0575e-05,0
1.981,5.8747e-06,0
1.9815,6.0426e-06,0
1.982,3.6927e-06,0
1.9825,1.8463e-06,0
1.983,8.2246e-06,0
1.9835,1.5442e-05,0
1.984,2.1149e-05,0
1.9845,2.3331e-05,0
1.985,2.5681e-05,0
1.9855,3.0045e-05,0
1.986,2.9206e-05,0
1.9865,2.6352e-05,0
1.987,2.4338e-05,0
1.9875,2.652e-05,0
1.988,2.6184e-05,0
1.9885,2.2995e-05,0
1.989,1.6281e-05,0
1.9895,1.4939e-05,0
1.99,1.8631e-05,0
1.9905,2.1988e-05,0
1.991,2.8031e-05,0
1.9915,3.7095e-05,0
1.992,3.6423e-05,0
1.9925,3.0045e-05,0
1.993,2.9374e-05,0
1.9935,2.5345e-05,0
1.994,1.6785e-05,0
1.9945,1.1917e-05,0
1.995,6.2104e-06,0
1.9955,6.2104e-06,0
1.996,1.5946e-05,0
1.9965,2.4506e-05,0
1.997,2.1149e-05,0
1.9975,1.1582e-05,0
1.998,6.8818e-06,0
1.9985,1.1917e-05,0
1.999,1.3764e-05,0
1.9995,9.7353e-06,0
2,6.3783e-06,0
2.0005,8.7282e-06,0
2.001,1.1078e-05,0
2.0015,1.2085e-05,0
2.002,1.3764e-05,0
2.0025,1.7624e-05,0
2.003,2.3331e-05,0
2.0035,2.8534e-05,0
2.004,3.1724e-05,0
2.0045,3.6759e-05,0
2.005,3.2059e-05,0
2.0055,2.3331e-05,0
2.006,2.2995e-05,0
2.0065,2.1317e-05,0
2.007,1.8296e-05,0
2.0075,1.9638e-05,0
2.008,1.7288e-05,0
2.0085,1.2253e-05,0
2.009,8.0568e-06,0
2.0095,-1.3428e-06,0
2.01,-1.1582e-05,0
2.0105,-9.2317e-06,0
2.011,1.0071e-06,0
2.0115,1.0407e-05,0
2.012,1.9135e-05,0
2.0125,2.4338e-05,0
2.013,2.9038e-05,0
2.0135,3.5752e-05,0
2.014,3.9445e-05,0
2.0145,3.7262e-05,0
2.015,3.8773e-05,0
2.0155,4.5487e-05,0
2.016,5.0858e-05,0
2.0165,5.0858e-05,0
2.017,4.8676e-05,0
2.0175,5.0019e-05,0
2.018,4.6494e-05,0
2.0185,4.2634e-05,0
2.019,4.6662e-05,0
2.0195,4.7501e-05,0
2.02,4.5151e-05,0
2.0205,4.7501e-05,0
2.021,4.5823e-05,0
2.0215,4.2802e-05,0
2.022,4.6159e-05,0
2.0225,4.8173e-05,0
2.023,4.2802e-05,0
2.0235,3.0716e-05,0
2.024,2.5009e-05,0
2.0245,2.4674e-05,0
2.025,2.7695e-05,0
2.0255,3.0045e-05,0
2.026,2.7024e-05,0
2.0265,2.266e-05,0
2.027,2.0981e-05,0
2.0275,2.1149e-05,0
2.028,2.5009e-05,0
2.0285,2.5849e-05,0
2.029,2.1988e-05,0
2.0295,1.561e-05,0
2.03,1.3932e-05,0
2.0305,1.6617e-05,0
2.031,9.5674e-06,0
2.0315,-2.182e-06,0
2.032,1.678e-07,0
2.0325,4.1962e-06,0
2.033,2.0142e-06,0
2.0335,2.0142e-06,0
2.034,6.714e-07,0
2.0345,-1.678e-07,0
2.035,3.357e-07,0
2.0355,2.5177e-06,0
2.036,9.2317e-06,0
2.0365,1.1246e-05,0
2.037,1.326e-05,0
2.0375,1.5946e-05,0
2.038,1.0071e-05,0
2.0385,3.357e-06,0
2.039,1.5106e-06,0
2.0395,0,0
2.04,8.392e-07,0
2.0405,5.539e-06,0
2.041,6.2104e-06,0
2.0415,2.5177e-06,0
2.042,2.3499e-06,0
2.0425,8.392e-07,0
2.043,-1.678e-07,0
2.0435,1.1749e-06,0
2.044,-5.7069e-06,0
2.0445,-1.2253e-05,0
2.045,-5.8747e-06,0
2.0455,3.5248e-06,0
2.046,6.2104e-06,0
2.0465,9.5674e-06,0
2.047,9.0639e-06,0
2.0475,8.5603e-06,0
2.048,1.8631e-05,0
2.0485,3.4745e-05,0
2.049,3.9445e-05,0
2.0495,3.5416e-05,0
2.05,3.3234e-05,0
2.0505,3.1891e-05,0
2.051,3.1052e-05,0
2.0515,3.3234e-05,0
2.052,3.7766e-05,0
2.0525,4.0452e-05,0
2.053,4.5319e-05,0
2.0535,5.0187e-05,0
2.054,4.8005e-05,0
2.0545,4.4816e-05,0
2.055,4.2802e-05,0
2.0555,3.743e-05,0
2.056,2.9374e-05,0
2.0565,2.5345e-05,0
2.057,2.1317e-05,0
2.0575,2.182e-05,0
2.058,2.5849e-05,0
2.0585,2.5009e-05,0
2.059,2.2995e-05,0
2.0595,2.8702e-05,0
2.06,3.0381e-05,0
2.0605,2.8367e-05,0
2.061,3.2395e-05,0
2.0615,3.508e-05,0
2.062,3.1388e-05,0
2.0625,2.5009e-05,0
2.063,1.9974e-05,0
2.0635,1.6953e-05,0
2.064,1.2421e-05,0
2.0645,6.5461e-06,0
2.065,5.539e-06,0
2.0655,8.896e-06,0
2.066,1.1414e-05,0
2.0665,1.1078e-05,0
2.067,1.1246e-05,0
2.0675,1.326e-05,0
2.068,1.796e-05,0
2.0685,1.8631e-05,0
2.069,1.4267e-05,0
2.0695,1.326e-05,0
2.07,1.1917e-05,0
2.0705,1.2924e-05,0
2.071,1.7624e-05,0
2.0715,1.7288e-05,0
2.072,1.4939e-05,0
2.0725,1.8296e-05,0
2.073,1.8128e-05,0
2.0735,9.7353e-06,0
2.074,4.1962e-06,0
2.0745,6.5461e-06,0
2.075,1.0575e-05,0
2.0755,8.5603e-06,0
2.076,4.8676e-06,0
2.0765,4.3641e-06,0
2.077,5.0355e-06,0
2.0775,4.8676e-06,0
2.078,5.539e-06,0
2.0785,9.2317e-06,0
2.079,1.3764e-05,0
2.0795,1.5106e-05,0
2.08,1.4099e-05,0
2.0805,1.1246e-05,0
2.081,1.1078e-05,0
2.0815,7.5532e-06,0
2.082,1.0071e-06,0
2.0825,1.5106e-06,0
2.083,2.8534e-06,0
2.0835,4.3641e-06,0
2.084,1.2924e-05,0
2.0845,1.6281e-05,0
2.085,1.326e-05,0
2.0855,9.9031e-06,0
2.086,1.1749e-06,0
2.0865,-4.5319e-06,0
2.087,-1.0071e-06,0
2.0875,6.714e-06,0
2.088,1.1246e-05,0
2.0885,1.0407e-05,0
2.089,1.0575e-05,0
2.0895,1.2085e-05,0
2.09,1.1917e-05,0
2.0905,1.1246e-05,0
2.091,7.7211e-06,0
2.0915,3.8605e-06,0
2.092,4.1962e-06,0
2.0925,7.2175e-06,0
2.093,5.7069e-06,0
2.0935,1.678e-07,0
2.094,6.714e-07,0
2.0945,4.3641e-06,0
2.095,9.2317e-06,0
2.0955,1.6281e-05,0
2.096,1.9135e-05,0
2.0965,2.266e-05,0
2.097,3.0045e-05,0
2.0975,2.9877e-05,0
2.098,2.7695e-05,0
2.0985,3.0213e-05,0
2.099,2.9374e-05,0
2.0995,2.8031e-05,0
2.1,3.3234e-05,0
2.1005,3.827e-05,0
2.101,3.6591e-05,0
2.1015,3.1724e-05,0
2.102,3.0716e-05,0
2.1025,3.4073e-05,0
2.103,3.743e-05,0
2.1035,3.5416e-05,0
2.104,3.0045e-05,0
2.1045,2.9709e-05,0
2.105,3.5752e-05,0
2.1055,3.7262e-05,0
2.106,2.9374e-05,0
2.1065,1.8631e-05,0
2.107,1.6281e-05,0
2.1075,1.7288e-05,0
2.108,1.7456e-05,0
2.1085,2.0981e-05,0
2.109,2.0813e-05,0
2.1095,2.0142e-05,0
2.11,2.5513e-05,0
2.1105,2.5345e-05,0
2.111,2.2324e-05,0
2.1115,2.4506e-05,0
2.112,2.1317e-05,0
2.1125,1.4603e-05,0
2.113,1.7624e-05,0
2.1135,2.8367e-05,0
2.114,3.4577e-05,0
2.1145,3.2059e-05,0
2.115,2.5345e-05,0
2.1155,2.4674e-05,0
2.116,2.5345e-05,0
2.1165,2.2492e-05,0
2.117,2.182e-05,0
2.1175,2.8534e-05,0
2.118,3.4073e-05,0
2.1185,3.0716e-05,0
2.119,2.0478e-05,0
2.1195,1.0407e-05,0
2.12,6.3783e-06,0
2.1205,4.6998e-06,0
2.121,4.8676e-06,0
2.1215,1.2924e-05,0
2.122,1.7121e-05,0
2.1225,1.796e-05,0
2.123,2.3835e-05,0
2.1235,2.5345e-05,0
2.124,2.2324e-05,0
2.1245,2.1988e-05,0
2.125,1.8631e-05,0
2.1255,1.8463e-05,0
2.126,2.4002e-05,0
2.1265,2.9374e-05,0
2.127,2.7359e-05,0
2.1275,2.2492e-05,0
2.128,2.4002e-05,0
2.1285,2.8534e-05,0
2.129,2.7359e-05,0
2.1295,2.3835e-05,0
2.13,2.652e-05,0
2.1305,2.6352e-05,0
2.131,1.5778e-05,0
2.1315,1.6785e-06,0
2.132,-5.2033e-06,0
2.1325,-9.3996e-06,0
2.133,-1.1917e-05,0
2.1335,-1.1917e-05,0
2.134,-1.1414e-05,0
2.1345,-9.5674e-06,0
2.135,-1.4267e-05,0
2.1355,-1.4939e-05,0
2.136,-5.539e-06,0
2.1365,-2.8534e-06,0
2.137,-4.8676e-06,0
2.1375,-5.7069e-06,0
2.138,-9.9031e-06,0
2.1385,-8.896e-06,0
2.139,5.0355e-06,0
2.1395,1.6449e-05,0
2.14,2.0646e-05,0
2.1405,2.4338e-05,0
2.141,2.5345e-05,0
2.1415,2.8031e-05,0
2.142,3.2731e-05,0
2.1425,3.7934e-05,0
2.143,4.3473e-05,0
2.1435,4.6159e-05,0
2.144,4.6159e-05,0
2.1445,4.4816e-05,0
2.145,4.4816e-05,0
2.1455,4.448e-05,0
2.146,4.6494e-05,0
2.1465,4.5487e-05,0
2.147,4.1291e-05,0
2.1475,4.3641e-05,0
2.148,4.0787e-05,0
2.1485,3.357e-05,0
2.149,2.9877e-05,0
2.1495,2.5681e-05,0
2.15,2.8367e-05,0
2.1505,3.8102e-05,0
2.151,3.743e-05,0
2.1515,2.8702e-05,0
2.152,2.5009e-05,0
2.1525,2.4674e-05,0
2.153,2.5681e-05,0
2.1535,2.6017e-05,0
2.154,2.4338e-05,0
2.1545,2.0478e-05,0
2.155,2.0646e-05,0
2.1555,2.8534e-05,0
2.156,3.0884e-05,0
2.1565,2.1653e-05,0
2.157,1.0239e-05,0
2.1575,1.1749e-06,0
2.158,-2.8534e-06,0
2.1585,-2.3499e-06,0
2.159,1.5106e-06,0
2.1595,1.5106e-06,0
2.16,-3.357e-07,0
2.1605,5.2033e-06,0
2.161,1.0239e-05,0
2.1615,1.1078e-05,0
2.162,1.4267e-05,0
2.1625,1.1582e-05,0
2.163,8.896e-06,0
2.1635,1.1246e-05,0
2.164,9.9031e-06,0
2.1645,1.1246e-05,0
2.165,2.3499e-05,0
2.1655,3.6423e-05,0
2.166,4.1627e-05,0
2.1665,4.2802e-05,0
2.167,4.2802e-05,0
2.1675,4.3977e-05,0
2.168,4.0619e-05,0
2.1685,3.122e-05,0
2.169,2.8702e-05,0
2.1695,3.5416e-05,0
2.17,3.8773e-05,0
2.1705,3.5584e-05,0
2.171,2.9206e-05,0
2.1715,2.5345e-05,0
2.172,2.1317e-05,0
2.1725,1.5946e-05,0
2.173,1.4099e-05,0
2.1735,2.031e-05,0
2.174,1.9303e-05,0
2.1745,1.326e-05,0
2.175,1.2589e-05,0
2.1755,1.2421e-05,0
2.176,1.1917e-05,0
2.1765,1.3596e-05,0
2.177,1.2589e-05,0
2.1775,1.2253e-05,0
2.178,1.5946e-05,0
2.1785,1.8631e-05,0
2.179,2.1317e-05,0
2.1795,2.3667e-05,0
2.18,2.5345e-05,0
2.1805,2.8031e-05,0
2.181,2.9709e-05,0
2.1815,2.9206e-05,0
2.182,2.7695e-05,0
2.1825,2.6017e-05,0
2.183,2.7359e-05,0
2.1835,3.1724e-05,0
2.184,3.2731e-05,0
2.1845,2.652e-05,0
2.185,2.2156e-05,0
2.1855,1.8967e-05,0
2.186,1.3932e-05,0
2.1865,1.6281e-05,0
2.187,1.5778e-05,0
2.1875,1.0575e-05,0
2.188,9.5674e-06,0
2.1885,7.8889e-06,0
2.189,7.3854e-06,0
2.1895,1.2924e-05,0
2.19,1.5946e-05,0
2.1905,2.031e-05,0
2.191,2.3331e-05,0
2.1915,1.6953e-05,0
2.192,8.3925e-06,0
2.1925,7.8889e-06,0
2.193,1.1414e-05,0
2.1935,1.2924e-05,0
2.194,1.1917e-05,0
2.1945,1.1749e-05,0
2.195,1.4603e-05,0
2.1955,2.031e-05,0
2.196,2.7695e-05,0
2.1965,3.3234e-05,0
2.197,3.4409e-05,0
2.1975,3.2731e-05,0
2.198,3.2395e-05,0
2.1985,3.0884e-05,0
2.199,3.0381e-05,0
2.1995,3.8102e-05,0
2.2,4.3473e-05,0
2.2005,3.9445e-05,0
2.201,3.6423e-05,0
2.2015,3.6088e-05,0
2.202,3.9277e-05,0
2.2025,4.6662e-05,0
2.203,5.0187e-05,0
2.2035,4.9515e-05,0
2.204,5.4048e-05,0
2.2045,5.8915e-05,0
2.205,5.7069e-05,0
2.2055,5.0187e-05,0
2.206,4.448e-05,0
2.2065,4.0787e-05,0
2.207,3.7262e-05,0
2.2075,3.8773e-05,0
2.208,4.2802e-05,0
2.2085,3.9277e-05,0
2.209,2.4338e-05,0
2.2095,-1.5106e-06,0
2.21,-2.4674e-05,0
2.2105,-3.5752e-05,0
2.211,-3.6423e-05,0
2.2115,-4.448e-05,0
2.212,-5.9587e-05,0
2.2125,-6.3951e-05,0
2.213,-6.0594e-05,0
2.2135,-4.918e-05,0
2.214,-3.1388e-05,0
2.2145,-2.3499e-05,0
2.215,-2.1149e-05,0
2.2155,-1.2253e-05,0
2.216,-6.2104e-06,0
2.2165,-2.8534e-06,0
2.217,2.3499e-06,0
2.2175,4.3641e-06,0
2.218,8.392e-07,0
2.2185,-3.1891e-06,0
2.219,-1.1749e-06,0
2.2195,3.0213e-06,0
2.22,3.6927e-06,0
2.2205,6.714e-07,0
2.221,2.5177e-06,0
2.2215,7.5532e-06,0
2.222,8.2246e-06,0
2.2225,1.1917e-05,0
2.223,1.9303e-05,0
2.2235,1.8967e-05,0
2.224,1.6953e-05,0
2.2245,1.6953e-05,0
2.225,1.6617e-05,0
2.2255,2.1149e-05,0
2.226,2.3835e-05,0
2.2265,2.4674e-05,0
2.227,2.8702e-05,0
2.2275,2.9374e-05,0
2.228,2.7024e-05,0
2.2285,3.0884e-05,0
2.229,3.2731e-05,0
2.2295,3.1388e-05,0
2.23,3.3402e-05,0
2.2305,3.6759e-05,0
2.231,3.8102e-05,0
2.2315,3.9277e-05,0
2.232,3.5752e-05,0
2.2325,3.1556e-05,0
2.233,3.0884e-05,0
2.2335,3.2059e-05,0
2.234,2.8031e-05,0
2.2345,2.182e-05,0
2.235,2.3835e-05,0
2.2355,3.0045e-05,0
2.236,2.9374e-05,0
2.2365,2.4002e-05,0
2.237,2.5177e-05,0
2.2375,2.3499e-05,0
2.238,2.0646e-05,0
2.2385,2.266e-05,0
2.239,1.6953e-05,0
2.2395,8.2246e-06,0
2.24,6.2104e-06,0
2.2405,2.5177e-06,0
2.241,-1.5106e-06,0
2.2415,8.392e-07,0
2.242,-5.7069e-06,0
2.2425,-1.4267e-05,0
2.243,-1.2589e-05,0
2.2435,-8.7282e-06,0
2.244,-2.5177e-06,0
2.2445,9.2317e-06,0
2.245,1.8296e-05,0
2.2455,2.0981e-05,0
2.246,2.0646e-05,0
2.2465,1.9974e-05,0
2.247,1.7288e-05,0
2.2475,1.5442e-05,0
2.248,1.7288e-05,0
2.2485,1.7121e-05,0
2.249,1.0575e-05,0
2.2495,4.3641e-06,0
2.25,7.0497e-06,0
2.2505,1.0575e-05,0
2.251,1.1246e-05,0
2.2515,1.7624e-05,0
2.252,2.2828e-05,0
2.2525,2.6352e-05,0
2.253,3.4073e-05,0
2.2535,3.6088e-05,0
2.254,3.2059e-05,0
2.2545,2.9374e-05,0
2.255,2.4002e-05,0
2.2555,2.5345e-05,0
2.256,3.5752e-05,0
2.2565,4.1459e-05,0
2.257,3.8102e-05,0
2.2575,3.592e-05,0
2.258,3.7766e-05,0
2.2585,3.3402e-05,0
2.259,2.3499e-05,0
2.2595,1.8631e-05,0
2.26,2.266e-05,0
2.2605,2.7527e-05,0
2.261,3.0045e-05,0
2.2615,2.8702e-05,0
2.262,2.652e-05,0
2.2625,2.4338e-05,0
2.263,2.1149e-05,0
2.2635,1.4435e-05,0
2.264,9.0639e-06,0
2.2645,9.9031e-06,0
2.265,7.0497e-06,0
2.2655,-1.0071e-06,0
2.266,-8.2246e-06,0
2.2665,-1.6785e-05,0
2.267,-2.182e-05,0
2.2675,-1.6617e-05,0
2.268,-1.091e-05,0
2.2685,-2.5177e-06,0
2.269,9.9031e-06,0
2.2695,1.8296e-05,0
2.27,1.9303e-05,0
2.2705,2.1317e-05,0
2.271,2.9038e-05,0
2.2715,3.6255e-05,0
2.272,3.7934e-05,0
2.2725,3.5584e-05,0
2.273,3.6759e-05,0
2.2735,4.1962e-05,0
2.274,4.6326e-05,0
2.2745,4.5151e-05,0
2.275,4.1795e-05,0
2.2755,3.9109e-05,0
2.276,4.1459e-05,0
2.2765,3.743e-05,0
2.277,2.8534e-05,0
2.2775,2.5009e-05,0
2.278,1.6785e-05,0
2.2785,1.0239e-05,0
2.279,1.4939e-05,0
2.2795,1.8296e-05,0
2.28,1.947e-05,0
2.2805,2.3331e-05,0
2.281,2.2324e-05,0
2.2815,2.1317e-05,0
2.282,2.6017e-05,0
2.2825,2.5681e-05,0
2.283,2.0478e-05,0
2.2835,1.5946e-05,0
2.284,1.6617e-05,0
2.2845,2.0646e-05,0
2.285,2.7024e-05,0
2.2855,2.8702e-05,0
2.286,2.417e-05,0
2.2865,1.8128e-05,0
2.287,1.3092e-05,0
2.2875,9.5674e-06,0
2.288,8.0568e-06,0
2.2885,6.2104e-06,0
2.289,5.7069e-06,0
2.2895,8.3925e-06,0
2.29,7.3854e-06,0
2.2905,1.1582e-05,0
2.291,1.6281e-05,0
2.2915,1.9974e-05,0
2.292,2.5681e-05,0
2.2925,2.7024e-05,0
2.293,2.5681e-05,0
2.2935,2.5513e-05,0
2.294,1.9303e-05,0
2.2945,1.2924e-05,0
2.295,1.5946e-05,0
2.2955,2.5177e-05,0
2.296,3.1388e-05,0
2.2965,3.3066e-05,0
2.297,3.357e-05,0
2.2975,3.2059e-05,0
2.298,2.7359e-05,0
2.2985,1.8128e-05,0
2.299,8.5603e-06,0
2.2995,5.2033e-06,0
2.3,8.5603e-06,0
2.3005,1.1246e-05,0
2.301,7.7211e-06,0
2.3015,1.5106e-06,0
2.302,1.678e-07,0
2.3025,2.5177e-06,0
2.303,3.1891e-06,0
2.3035,7.0497e-06,0
2.304,5.2033e-06,0
2.3045,-1.678e-07,0
2.305,1.0071e-06,0
2.3055,1.1749e-06,0
2.306,1.8463e-06,0
2.3065,1.3596e-05,0
2.307,2.0646e-05,0
2.3075,1.9974e-05,0
2.308,2.1317e-05,0
2.3085,2.4842e-05,0
2.309,2.5177e-05,0
2.3095,2.1988e-05,0
2.31,2.1317e-05,0
2.3105,2.2995e-05,0
2.311,2.5009e-05,0
2.3115,2.6688e-05,0
2.312,2.7359e-05,0
2.3125,2.9877e-05,0
2.313,3.0716e-05,0
2.3135,2.7024e-05,0
2.314,2.266e-05,0
2.3145,2.2492e-05,0
2.315,2.9709e-05,0
2.3155,3.1724e-05,0
2.316,2.5009e-05,0
2.3165,2.6017e-05,0
2.317,3.0381e-05,0
2.3175,3.6423e-05,0
2.318,4.8173e-05,0
2.3185,5.0523e-05,0
2.319,4.6159e-05,0
2.3195,4.6494e-05,0
2.32,4.3305e-05,0
2.3205,4.0284e-05,0
2.321,4.0787e-05,0
2.3215,3.6255e-05,0
2.322,2.8702e-05,0
2.3225,2.6688e-05,0
2.323,2.7695e-05,0
2.3235,3.1052e-05,0
2.324,3.2395e-05,0
2.3245,2.8367e-05,0
2.325,2.3331e-05,0
2.3255,2.031e-05,0
2.326,1.9303e-05,0
2.3265,2.1317e-05,0
2.327,2.6017e-05,0
2.3275,2.1317e-05,0
2.328,1.2085e-05,0
2.3285,8.5603e-06,0
2.329,1.3932e-05,0
2.3295,2.5681e-05,0
2.33,2.6688e-05,0
2.3305,1.796e-05,0
2.331,1.1582e-05,0
2.3315,4.8676e-06,0
2.332,1.6785e-06,0
2.3325,2.182e-06,0
2.333,-7.7211e-06,0
2.3335,-1.4603e-05,0
2.334,-9.7353e-06,0
2.3345,-9.5674e-06,0
2.335,-1.2253e-05,0
2.3355,-1.2085e-05,0
2.336,-1.0239e-05,0
2.3365,-7.5532e-06,0
2.337,-5.2033e-06,0
2.3375,-1.1749e-06,0
2.338,7.2175e-06,0
2.3385,1.4939e-05,0
2.339,1.3596e-05,0
2.3395,8.2246e-06,0
2.34,1.0575e-05,0
2.3405,1.8463e-05,0
2.341,2.5849e-05,0
2.3415,2.652e-05,0
2.342,2.5345e-05,0
2.3425,2.4674e-05,0
2.343,1.2924e-05,0
2.3435,5.0355e-06,0
2.344,1.6449e-05,0
2.3445,2.4002e-05,0
2.345,2.266e-05,0
2.3455,2.031e-05,0
2.346,1.2589e-05,0
2.3465,1.1246e-05,0
2.347,2.1317e-05,0
2.3475,2.8031e-05,0
2.348,2.5681e-05,0
2.3485,1.9806e-05,0
2.349,1.5946e-05,0
2.3495,1.5442e-05,0
2.35,1.6617e-05,0
2.3505,1.9303e-05,0
2.351,2.0813e-05,0
2.3515,2.4506e-05,0
2.352,3.2059e-05,0
2.3525,3.8773e-05,0
2.353,4.3305e-05,0
2.3535,4.3473e-05,0
2.354,3.8102e-05,0
2.3545,3.0716e-05,0
2.355,2.9374e-05,0
2.3555,3.4073e-05,0
2.356,3.2059e-05,0
2.3565,2.8031e-05,0
2.357,2.6352e-05,0
2.3575,1.8631e-05,0
2.358,9.2317e-06,0
2.3585,6.5461e-06,0
2.359,3.6927e-06,0
2.3595,8.392e-07,0
2.36,4.5319e-06,0
2.3605,8.7282e-06,0
2.361,7.3854e-06,0
2.3615,3.1891e-06,0
2.362,2.5177e-06,0
2.3625,7.2175e-06,0
2.363,1.3596e-05,0
2.3635,2.0813e-05,0
2.364,2.4338e-05,0
2.3645,2.266e-05,0
2.365,2.2828e-05,0
2.3655,2.7863e-05,0
2.366,3.6759e-05,0
2.3665,4.3473e-05,0
2.367,4.6159e-05,0
2.3675,3.8102e-05,0
2.368,3.0716e-05,0
2.3685,3.5416e-05,0
2.369,3.3906e-05,0
2.3695,2.9038e-05,0
2.37,3.8437e-05,0
2.3705,4.7837e-05,0
2.371,4.8676e-05,0
2.3715,4.6326e-05,0
2.372,4.2466e-05,0
2.3725,3.8773e-05,0
2.373,3.592e-05,0
2.3735,3.3234e-05,0
2.374,3.2395e-05,0
2.3745,3.1052e-05,0
2.375,2.5177e-05,0
2.3755,1.6953e-05,0
2.376,1.2589e-05,0
2.3765,1.3092e-05,0
2.377,1.5946e-05,0
2.3775,1.5274e-05,0
2.378,1.2253e-05,0
2.3785,1.0239e-05,0
2.379,8.2246e-06,0
2.3795,6.5461e-06,0
2.38,1.2253e-05,0
2.3805,2.1317e-05,0
2.381,2.7359e-05,0
2.3815,3.508e-05,0
2.382,3.3402e-05,0
2.3825,2.2324e-05,0
2.383,1.7624e-05,0
2.3835,1.4603e-05,0
2.384,1.5778e-05,0
2.3845,2.0646e-05,0
2.385,1.4099e-05,0
2.3855,5.035e-07,0
2.386,-2.3499e-06,0
2.3865,2.3499e-06,0
2.387,4.5319e-06,0
2.3875,2.0142e-06,0
2.388,-1.1749e-06,0
2.3885,-8.392e-07,0
2.389,3.0213e-06,0
2.3895,7.8889e-06,0
2.39,1.2924e-05,0
2.3905,1.2757e-05,0
2.391,9.9031e-06,0
2.3915,9.9031e-06,0
2.392,1.1749e-05,0
2.3925,7.5532e-06,0
2.393,2.3499e-06,0
2.3935,3.0213e-06,0
2.394,7.2175e-06,0
2.3945,1.6617e-05,0
2.395,2.2995e-05,0
2.3955,2.6184e-05,0
2.396,3.1388e-05,0
2.3965,2.7863e-05,0
2.397,1.9974e-05,0
2.3975,1.6953e-05,0
2.398,1.1246e-05,0
2.3985,1.0239e-05,0
2.399,1.6617e-05,0
2.3995,1.796e-05,0
2.4,1.5778e-05,0
2.4005,1.8296e-05,0
2.401,2.266e-05,0
2.4015,2.2324e-05,0
2.402,2.2492e-05,0
2.4025,2.9709e-05,0
2.403,3.9445e-05,0
2.4035,4.2634e-05,0
2.404,4.3977e-05,0
2.4045,4.4144e-05,0
2.405,4.1962e-05,0
2.4055,3.6088e-05,0
2.406,3.3738e-05,0
2.4065,3.0716e-05,0
2.407,2.1653e-05,0
2.4075,1.4435e-05,0
2.408,6.5461e-06,0
2.4085,2.6856e-06,0
2.409,8.7282e-06,0
2.4095,6.5461e-06,0
2.41,-2.5177e-06,0
2.4105,-6.5461e-06,0
2.411,-1.1917e-05,0
2.4115,-1.6281e-05,0
2.412,-1.0071e-05,0
2.4125,-1.1749e-06,0
2.413,5.0355e-06,0
2.4135,7.5532e-06,0
2.414,1.4603e-05,0
2.4145,2.4002e-05,0
2.415,2.3331e-05,0
2.4155,1.326e-05,0
2.416,6.3783e-06,0
2.4165,1.0575e-05,0
2.417,2.266e-05,0
2.4175,3.5752e-05,0
2.418,4.9348e-05,0
2.4185,5.4215e-05,0
2.419,4.9851e-05,0
2.4195,4.2802e-05,0
2.42,4.0116e-05,0
2.4205,4.3473e-05,0
2.421,4.2634e-05,0
2.4215,3.7934e-05,0
2.422,3.6088e-05,0
2.4225,3.4409e-05,0
2.423,3.5752e-05,0
2.4235,4.0787e-05,0
2.424,3.7095e-05,0
2.4245,2.6017e-05,0
2.425,2.3331e-05,0
2.4255,2.7527e-05,0
2.426,2.9709e-05,0
2.4265,2.9374e-05,0
2.427,2.5009e-05,0
2.4275,1.7792e-05,0
2.428,1.2757e-05,0
2.4285,1.2757e-05,0
2.429,1.5778e-05,0
2.4295,1.5946e-05,0
2.43,1.6785e-05,0
2.4305,1.8631e-05,0
2.431,1.8631e-05,0
2.4315,1.6449e-05,0
2.432,1.9974e-05,0
2.4325,2.6688e-05,0
2.433,3.1724e-05,0
2.4335,3.8773e-05,0
2.434,4.2802e-05,0
2.4345,4.448e-05,0
2.435,4.7669e-05,0
2.4355,4.7501e-05,0
2.436,5.153e-05,0
2.4365,5.9587e-05,0
2.437,5.8244e-05,0
2.4375,5.1026e-05,0
2.438,4.4816e-05,0
2.4385,3.8941e-05,0
2.439,2.9709e-05,0
2.4395,1.947e-05,0
2.44,1.0575e-05,0
2.4405,1.5106e-06,0
2.441,-8.7282e-06,0
2.4415,-1.7288e-05,0
2.442,-2.5009e-05,0
2.4425,-4.1795e-05,0
2.443,-5.6733e-05,0
2.4435,-6.0929e-05,0
2.444,-5.4215e-05,0
2.4445,-4.1291e-05,0
2.445,-3.2059e-05,0
2.4455,-3.3234e-05,0
2.446,-3.6759e-05,0
2.4465,-3.0716e-05,0
2.447,-3.3906e-05,0
2.4475,-4.3137e-05,0
2.448,-4.213e-05,0
2.4485,-3.5584e-05,0
2.449,-2.4002e-05,0
2.4495,-5.8747e-06,0
2.45,3.0213e-06,0
2.4505,5.539e-06,0
2.451,1.0575e-05,0
2.4515,1.2924e-05,0
2.452,1.0239e-05,0
2.4525,1.0575e-05,0
2.453,1.6953e-05,0
2.4535,2.1149e-05,0
2.454,1.8967e-05,0
2.4545,1.8967e-05,0
2.455,2.2828e-05,0
2.4555,2.6017e-05,0
2.456,2.7359e-05,0
2.4565,2.8702e-05,0
2.457,3.0381e-05,0
2.4575,3.2731e-05,0
2.458,3.7095e-05,0
2.4585,4.0619e-05,0
2.459,4.2802e-05,0
2.4595,4.5991e-05,0
2.46,3.978e-05,0
2.4605,3.0381e-05,0
2.461,2.9206e-05,0
2.4615,2.7359e-05,0
2.462,2.3667e-05,0
2.4625,2.1988e-05,0
2.463,1.0575e-05,0
2.4635,-4.1962e-06,0
2.464,-8.3925e-06,0
2.4645,-5.539e-06,0
2.465,-5.2033e-06,0
2.4655,-8.2246e-06,0
2.466,-1.3596e-05,0
2.4665,-1.5106e-05,0
2.467,-1.1078e-05,0
2.4675,-5.2033e-06,0
2.468,1.678e-07,0
2.4685,8.2246e-06,0
2.469,1.6281e-05,0
2.4695,1.796e-05,0
2.47,1.4267e-05,0
2.4705,1.1582e-05,0
2.471,1.9974e-05,0
2.4715,3.1388e-05,0
2.472,3.827e-05,0
2.4725,4.8508e-05,0
2.473,5.5558e-05,0
2.4735,6.1433e-05,0
2.474,6.8818e-05,0
2.4745,6.6468e-05,0
2.475,6.3615e-05,0
2.4755,6.4958e-05,0
2.476,6.1601e-05,0
2.4765,5.4215e-05,0
2.477,5.1194e-05,0
2.4775,4.7501e-05,0
2.478,4.6494e-05,0
2.4785,4.9683e-05,0
2.479,4.8173e-05,0
2.4795,4.4816e-05,0
2.48,4.3977e-05,0
2.4805,4.3977e-05,0
2.481,4.1962e-05,0
2.4815,3.6759e-05,0
2.482,3.6591e-05,0
2.4825,4.2634e-05,0
2.483,4.8005e-05,0
2.4835,4.9515e-05,0
2.484,5.153e-05,0
2.4845,4.7501e-05,0
2.485,4.0116e-05,0
2.4855,4.4816e-05,0
2.486,5.5222e-05,0
2.4865,6.3447e-05,0
2.487,6.7643e-05,0
2.4875,6.009e-05,0
2.488,4.7501e-05,0
2.4885,4.0116e-05,0
2.489,2.7192e-05,0
2.4895,1.4939e-05,0
2.49,1.326e-05,0
2.4905,1.4267e-05,0
2.491,7.0497e-06,0
2.4915,-1.0239e-05,0
2.492,-2.9206e-05,0
2.4925,-3.978e-05,0
2.493,-4.2466e-05,0
2.4935,-4.3809e-05,0
2.494,-4.2969e-05,0
2.4945,-3.3738e-05,0
2.495,-1.6449e-05,0
2.4955,-2.8534e-06,0
2.496,5.035e-07,0
2.4965,-1.5106e-06,0
2.497,-6.2104e-06,0
2.4975,-1.8967e-05,0
2.498,-2.6017e-05,0
2.4985,-1.3596e-05,0
2.499,-6.714e-07,0
2.4995,5.8747e-06,0
2.5,1.5946e-05,0
2.5005,1.7288e-05,0
2.501,1.5778e-05,0
2.5015,1.8631e-05,0
2.502,1.6953e-05,0
2.5025,1.5946e-05,0
2.503,1.9806e-05,0
2.5035,2.3499e-05,0
2.504,2.5681e-05,0
2.5045,2.8702e-05,0
2.505,3.2563e-05,0
2.5055,3.3402e-05,0
2.506,2.8702e-05,0
2.5065,2.3835e-05,0
2.507,2.031e-05,0
2.5075,1.7288e-05,0
2.508,1.5442e-05,0
2.5085,1.4603e-05,0
2.509,1.5274e-05,0
2.5095,1.3932e-05,0
2.51,1.5274e-05,0
2.5105,2.1317e-05,0
2.511,2.887e-05,0
2.5115,3.978e-05,0
2.512,4.0955e-05,0
2.5125,3.8102e-05,0
2.513,4.213e-05,0
2.5135,4.448e-05,0
2.514,4.5151e-05,0
2.5145,4.6494e-05,0
2.515,3.8437e-05,0
2.5155,2.4002e-05,0
2.516,1.5778e-05,0
2.5165,1.1582e-05,0
2.517,1.6785e-06,0
2.5175,-1.2085e-05,0
2.518,-2.4506e-05,0
2.5185,-2.9206e-05,0
2.519,-2.5681e-05,0
2.5195,-2.2324e-05,0
2.52,-1.9638e-05,0
2.5205,-1.091e-05,0
2.521,-8.392e-07,0
2.5215,1.1749e-06,0
2.522,-5.035e-07,0
2.5225,3.357e-07,0
2.523,6.5461e-06,0
2.5235,7.8889e-06,0
2.524,9.9031e-06,0
2.5245,1.8799e-05,0
2.525,2.1317e-05,0
2.5255,1.9135e-05,0
2.526,2.8702e-05,0
2.5265,3.8941e-05,0
2.527,4.213e-05,0
2.5275,4.3137e-05,0
2.528,4.3473e-05,0
2.5285,4.5487e-05,0
2.529,4.918e-05,0
2.5295,5.0523e-05,0
2.53,4.7837e-05,0
2.5305,4.3977e-05,0
2.531,4.2802e-05,0
2.5315,4.4816e-05,0
2.532,4.3977e-05,0
2.5325,3.9445e-05,0
2.533,2.9709e-05,0
2.5335,2.0981e-05,0
2.534,2.1988e-05,0
2.5345,2.6017e-05,0
2.535,2.7024e-05,0
2.5355,2.3331e-05,0
2.536,1.561e-05,0
2.5365,3.1891e-06,0
2.537,-9.5674e-06,0
2.5375,-1.3596e-05,0
2.538,-1.561e-05,0
2.5385,-1.5442e-05,0
2.539,-1.1582e-05,0
2.5395,-1.0239e-05,0
2.54,-8.3925e-06,0
2.5405,5.035e-07,0
2.541,3.0213e-06,0
2.5415,2.182e-06,0
2.542,3.8605e-06,0
2.5425,6.2104e-06,0
2.543,8.7282e-06,0
2.5435,1.0575e-05,0
2.544,1.1582e-05,0
2.5445,1.0575e-05,0
2.545,1.2589e-05,0
2.5455,1.7456e-05,0
2.546,2.3499e-05,0
2.5465,2.4506e-05,0
2.547,2.2324e-05,0
2.5475,2.5849e-05,0
2.548,3.0381e-05,0
2.5485,3.4745e-05,0
2.549,4.4144e-05,0
2.5495,5.2033e-05,0
2.55,5.2201e-05,0
2.5505,5.2201e-05,0
2.551,4.9012e-05,0
2.5515,4.4144e-05,0
2.552,4.4312e-05,0
2.5525,4.1459e-05,0
2.553,3.3402e-05,0
2.5535,2.9374e-05,0
2.554,2.5681e-05,0
2.5545,2.1317e-05,0
2.555,2.3331e-05,0
2.5555,2.9374e-05,0
2.556,2.7863e-05,0
2.5565,1.6617e-05,0
2.557,1.1582e-05,0
2.5575,1.7624e-05,0
2.558,2.2995e-05,0
2.5585,2.031e-05,0
2.559,1.5778e-05,0
2.5595,1.5946e-05,0
2.56,1.9303e-05,0
2.5605,2.1317e-05,0
2.561,2.1653e-05,0
2.5615,1.6785e-05,0
2.562,9.9031e-06,0
2.5625,6.3783e-06,0
2.563,1.2253e-05,0
2.5635,2.7024e-05,0
2.564,3.1891e-05,0
2.5645,2.1988e-05,0
2.565,1.091e-05,0
2.5655,1.0071e-06,0
2.566,0,0
2.5665,5.8747e-06,0
2.567,8.2246e-06,0
2.5675,1.4603e-05,0
2.568,2.266e-05,0
2.5685,2.7863e-05,0
2.569,3.2563e-05,0
2.5695,3.7934e-05,0
2.57,4.3305e-05,0
2.5705,5.153e-05,0
2.571,6.244e-05,0
2.5715,6.7308e-05,0
2.572,6.3279e-05,0
2.5725,5.4887e-05,0
2.573,4.9348e-05,0
2.5735,4.5991e-05,0
2.574,4.0116e-05,0
2.5745,3.4241e-05,0
2.575,3.0045e-05,0
2.5755,2.1317e-05,0
2.576,1.1078e-05,0
2.5765,5.7069e-06,0
2.577,2.5177e-06,0
2.5775,5.539e-06,0
2.578,1.1749e-05,0
2.5785,1.0239e-05,0
2.579,2.5177e-06,0
2.5795,-1.8463e-06,0
2.58,-3.6927e-06,0
2.5805,-4.1962e-06,0
2.581,-2.0142e-06,0
2.5815,3.1891e-06,0
2.582,1.1749e-05,0
2.5825,1.796e-05,0
2.583,2.2492e-05,0
2.5835,2.3667e-05,0
2.584,1.5946e-05,0
2.5845,7.2175e-06,0
2.585,5.2033e-06,0
2.5855,4.6998e-06,0
2.586,-3.357e-06,0
2.5865,-1.2253e-05,0
2.587,-7.8889e-06,0
2.5875,3.5248e-06,0
2.588,1.3092e-05,0
2.5885,1.2085e-05,0
2.589,5.7069e-06,0
2.5895,7.2175e-06,0
2.59,9.5674e-06,0
2.5905,5.2033e-06,0
2.591,3.357e-07,0
2.5915,-3.5248e-06,0
2.592,1.678e-07,0
2.5925,8.896e-06,0
2.593,8.7282e-06,0
2.5935,8.5603e-06,0
2.594,1.1414e-05,0
2.5945,1.0575e-05,0
2.595,1.1582e-05,0
2.5955,1.4939e-05,0
2.596,1.5442e-05,0
2.5965,1.0575e-05,0
2.597,5.7069e-06,0
2.5975,7.5532e-06,0
2.598,1.5946e-05,0
2.5985,2.182e-05,0
2.599,2.2324e-05,0
2.5995,2.5345e-05,0
2.6,3.0213e-05,0
2.6005,2.4002e-05,0
2.601,1.4939e-05,0
2.6015,1.0239e-05,0
2.602,1.0407e-05,0
2.6025,1.5106e-05,0
2.603,1.8296e-05,0
2.6035,2.2995e-05,0
2.604,2.7695e-05,0
2.6045,2.4674e-05,0
2.605,1.4603e-05,0
2.6055,7.2175e-06,0
2.606,5.035e-07,0
2.6065,8.392e-07,0
2.607,7.8889e-06,0
2.6075,6.8818e-06,0
2.608,2.3499e-06,0
2.6085,3.8605e-06,0
2.609,1.5946e-05,0
2.6095,3.0716e-05,0
2.61,3.4745e-05,0
2.6105,3.357e-05,0
2.611,3.2059e-05,0
2.6115,2.5345e-05,0
2.612,1.8631e-05,0
2.6125,2.182e-05,0
2.613,3.0213e-05,0
2.6135,3.2563e-05,0
2.614,3.2563e-05,0
2.6145,3.1556e-05,0
2.615,2.9709e-05,0
2.6155,3.3234e-05,0
2.616,3.1891e-05,0
2.6165,3.0884e-05,0
2.617,4.1459e-05,0
2.6175,4.5487e-05,0
2.618,4.213e-05,0
2.6185,4.4984e-05,0
2.619,4.3473e-05,0
2.6195,3.7766e-05,0
2.62,3.5416e-05,0
2.6205,3.3402e-05,0
2.621,2.887e-05,0
2.6215,2.6688e-05,0
2.622,2.7863e-05,0
2.6225,3.1556e-05,0
2.623,3.7262e-05,0
2.6235,4.0116e-05,0
2.624,3.9109e-05,0
2.6245,3.978e-05,0
2.625,3.9109e-05,0
2.6255,3.357e-05,0
2.626,3.1891e-05,0
2.6265,3.4745e-05,0
2.627,3.7095e-05,0
2.6275,3.3402e-05,0
2.628,2.652e-05,0
2.6285,2.8031e-05,0
2.629,2.8702e-05,0
2.6295,2.2995e-05,0
2.63,1.4939e-05,0
2.6305,1.8463e-06,0
2.631,-5.8747e-06,0
2.6315,-8.392e-07,0
2.632,5.8747e-06,0
2.6325,1.5946e-05,0
2.633,2.9374e-05,0
2.6335,3.3738e-05,0
2.634,2.8367e-05,0
2.6345,2.031e-05,0
2.635,1.6953e-05,0
2.6355,1.4099e-05,0
2.636,5.8747e-06,0
2.6365,-1.091e-05,0
2.637,-2.6017e-05,0
2.6375,-2.1653e-05,0
2.638,-3.357e-06,0
2.6385,9.9031e-06,0
2.639,9.2317e-06,0
2.6395,4.3641e-06,0
2.64,1.6785e-06,0
2.6405,-6.8818e-06,0
2.641,-1.2253e-05,0
2.6415,-3.0213e-06,0
2.642,-2.6856e-06,0
2.6425,-1.4771e-05,0
2.643,-2.1485e-05,0
2.6435,-2.7024e-05,0
2.644,-2.9038e-05,0
2.6445,-2.5009e-05,0
2.645,-1.8967e-05,0
2.6455,-7.8889e-06,0
2.646,6.5461e-06,0
2.6465,1.9135e-05,0
2.647,2.5009e-05,0
2.6475,2.7695e-05,0
2.648,3.4913e-05,0
2.6485,4.2466e-05,0
2.649,4.0619e-05,0
2.6495,3.0716e-05,0
2.65,2.2995e-05,0
2.6505,2.3331e-05,0
2.651,2.887e-05,0
2.6515,3.4745e-05,0
2.652,4.213e-05,0
2.6525,4.4816e-05,0
2.653,4.213e-05,0
2.6535,3.6759e-05,0
2.654,3.6759e-05,0
2.6545,4.8676e-05,0
2.655,5.7237e-05,0
2.6555,6.1265e-05,0
2.656,6.8986e-05,0
2.6565,7.4021e-05,0
2.657,7.3686e-05,0
2.6575,7.0832e-05,0
2.658,5.7237e-05,0
2.6585,3.8773e-05,0
2.659,2.1653e-05,0
2.6595,6.5461e-06,0
2.66,-2.5177e-06,0
2.6605,-2.8534e-06,0
2.661,2.5177e-06,0
2.6615,6.714e-06,0
2.662,8.896e-06,0
2.6625,6.8818e-06,0
2.663,6.8818e-06,0
2.6635,1.4435e-05,0
2.664,2.0646e-05,0
2.6645,2.1988e-05,0
2.665,1.9135e-05,0
2.6655,1.7288e-05,0
2.666,1.5946e-05,0
2.6665,1.0742e-05,0
2.667,9.9031e-06,0
2.6675,1.796e-05,0
2.668,1.6449e-05,0
2.6685,1.7288e-05,0
2.669,2.7527e-05,0
2.6695,3.4073e-05,0
2.67,3.592e-05,0
2.6705,3.3738e-05,0
2.671,2.652e-05,0
2.6715,2.5345e-05,0
2.672,2.7695e-05,0
2.6725,2.5009e-05,0
2.673,2.1988e-05,0
2.6735,2.1988e-05,0
2.674,2.1988e-05,0
2.6745,2.182e-05,0
2.675,2.1317e-05,0
2.6755,2.4506e-05,0
2.676,2.8534e-05,0
2.6765,2.8702e-05,0
2.677,2.1317e-05,0
2.6775,4.8676e-06,0
2.678,-1.2589e-05,0
2.6785,-1.8296e-05,0
2.679,-1.1582e-05,0
2.6795,-4.1962e-06,0
2.68,-2.8534e-06,0
2.6805,-2.8534e-06,0
2.681,-5.8747e-06,0
2.6815,-3.6927e-06,0
2.682,1.6785e-06,0
2.6825,0,0
2.683,-5.0355e-06,0
2.6835,-1.3428e-05,0
2.684,-2.9709e-05,0
2.6845,-3.3402e-05,0
2.685,-1.091e-05,0
2.6855,1.4939e-05,0
2.686,2.4002e-05,0
2.6865,2.6184e-05,0
2.687,2.9374e-05,0
2.6875,3.4073e-05,0
2.688,3.592e-05,0
2.6885,3.1891e-05,0
2.689,2.0981e-05,0
2.6895,4.5319e-06,0
2.69,-1.8463e-06,0
2.6905,6.5461e-06,0
2.691,2.2324e-05,0
2.6915,3.2059e-05,0
2.692,2.9374e-05,0
2.6925,1.1749e-05,0
2.693,-6.714e-06,0
2.6935,-8.3925e-06,0
2.694,-1.0071e-06,0
2.6945,1.0575e-05,0
2.695,2.6688e-05,0
2.6955,2.9374e-05,0
2.696,3.0045e-05,0
2.6965,4.448e-05,0
2.697,6.0929e-05,0
2.6975,7.4693e-05,0
2.698,9.0974e-05,0
2.6985,0.00011363,0
2.699,0.00012639,0
2.6995,0.00011733,0
2.7,0.00010289,0
2.7005,9.3828e-05,0
2.701,8.5771e-05,0
2.7015,6.8482e-05,0
2.702,4.1123e-05,0
2.7025,1.7792e-05,0
2.703,4.0284e-06,0
2.7035,-1.1246e-05,0
2.704,-3.5416e-05,0
2.7045,-5.9587e-05,0
2.705,-7.2007e-05,0
2.7055,-7.3014e-05,0
2.706,-6.5629e-05,0
2.7065,-4.8341e-05,0
2.707,-3.4073e-05,0
2.7075,-3.2059e-05,0
2.708,-3.6088e-05,0
2.7085,-4.3641e-05,0
2.709,-4.0619e-05,0
2.7095,-1.8296e-05,0
2.71,3.1891e-06,0
2.7105,9.5674e-06,0
2.711,9.9031e-06,0
2.7115,1.326e-05,0
2.712,1.8631e-05,0
2.7125,1.6953e-05,0
2.713,1.2253e-05,0
2.7135,1.2253e-05,0
2.714,1.7792e-05,0
2.7145,2.4002e-05,0
2.715,3.2059e-05,0
2.7155,4.8173e-05,0
2.716,6.1601e-05,0
2.7165,6.4286e-05,0
2.717,6.3279e-05,0
2.7175,5.8747e-05,0
2.718,4.918e-05,0
2.7185,3.5416e-05,0
2.719,2.0813e-05,0
2.7195,1.7121e-05,0
2.72,1.561e-05,0
2.7205,1.5946e-05,0
2.721,2.6184e-05,0
2.7215,3.0549e-05,0
2.722,2.266e-05,0
2.7225,1.3764e-05,0
2.723,5.035e-07,0
2.7235,-9.5674e-06,0
2.724,-9.5674e-06,0
2.7245,-2.0142e-06,0
2.725,1.1582e-05,0
2.7255,2.3163e-05,0
2.726,2.3667e-05,0
2.7265,1.3764e-05,0
2.727,1.8463e-06,0
2.7275,-7.7211e-06,0
2.728,-1.1749e-05,0
2.7285,-1.0239e-05,0
2.729,-2.182e-06,0
2.7295,3.1891e-06,0
2.73,2.8534e-06,0
2.7305,8.5603e-06,0
2.731,2.5345e-05,0
2.7315,3.4745e-05,0
2.732,3.978e-05,0
2.7325,4.8173e-05,0
2.733,4.8844e-05,0
2.7335,4.1123e-05,0
2.734,3.4409e-05,0
2.7345,2.5177e-05,0
2.735,1.8631e-05,0
2.7355,2.031e-05,0
2.736,2.3835e-05,0
2.7365,2.4506e-05,0
2.737,2.8702e-05,0
2.7375,3.2563e-05,0
2.738,3.0045e-05,0
2.7385,2.4002e-05,0
2.739,1.8631e-05,0
2.7395,1.7288e-05,0
2.74,2.3667e-05,0
2.7405,2.8534e-05,0
2.741,3.2059e-05,0
2.7415,3.8773e-05,0
2.742,4.7166e-05,0
2.7425,4.8508e-05,0
2.743,4.3473e-05,0
2.7435,3.4577e-05,0
2.744,2.8702e-05,0
2.7445,2.8702e-05,0
2.745,2.8702e-05,0
2.7455,2.9877e-05,0
2.746,2.0813e-05,0
2.7465,6.8818e-06,0
2.747,7.8889e-06,0
2.7475,1.0407e-05,0
2.748,8.3925e-06,0
2.7485,4.3641e-06,0
2.749,-1.091e-05,0
2.7495,-3.0045e-05,0
2.75,-4.4144e-05,0
2.7505,-4.5991e-05,0
2.751,-3.0716e-05,0
2.7515,-6.8818e-06,0
2.752,9.2317e-06,0
2.7525,1.1749e-05,0
2.753,7.3854e-06,0
2.7535,5.2033e-06,0
2.754,7.5532e-06,0
2.7545,6.5461e-06,0
2.755,7.2175e-06,0
2.7555,1.1917e-05,0
2.756,1.7288e-05,0
2.7565,1.8967e-05,0
2.757,1.7288e-05,0
2.7575,1.3428e-05,0
2.758,1.4603e-05,0
2.7585,2.6184e-05,0
2.759,3.592e-05,0
2.7595,4.0787e-05,0
2.76,4.8173e-05,0
2.7605,4.8676e-05,0
2.761,4.5487e-05,0
2.7615,4.5151e-05,0
2.762,3.6423e-05,0
2.7625,2.266e-05,0
2.763,1.5274e-05,0
2.7635,2.2156e-05,0
2.764,3.8773e-05,0
2.7645,5.2201e-05,0
2.765,5.5558e-05,0
2.7655,4.683e-05,0
2.766,3.1724e-05,0
2.7665,2.5681e-05,0
2.767,3.1052e-05,0
2.7675,3.6088e-05,0
2.768,3.6423e-05,0
2.7685,3.6591e-05,0
2.769,3.6927e-05,0
2.7695,3.6423e-05,0
2.77,4.0116e-05,0
2.7705,3.743e-05,0
2.771,2.7359e-05,0
2.7715,2.4674e-05,0
2.772,1.5106e-05,0
2.7725,-4.1962e-06,0
2.773,-6.8818e-06,0
2.7735,5.2033e-06,0
2.774,2.6688e-05,0
2.7745,5.388e-05,0
2.775,7.8386e-05,0
2.7755,9.7017e-05,0
2.776,0.00010121,0
2.7765,8.4932e-05,0
2.777,5.4887e-05,0
2.7775,1.7456e-05,0
2.778,-1.6281e-05,0
2.7785,-3.2395e-05,0
2.779,-3.1388e-05,0
2.7795,-2.4002e-05,0
2.78,-1.7288e-05,0
2.7805,-1.5106e-05,0
2.781,-1.8631e-05,0
2.7815,-2.7024e-05,0
2.782,-3.122e-05,0
2.7825,-2.6856e-05,0
2.783,-1.3764e-05,0
2.7835,-1.1582e-05,0
2.784,-1.6281e-05,0
2.7845,-7.7211e-06,0
2.785,4.5319e-06,0
2.7855,1.3596e-05,0
2.786,2.2995e-05,0
2.7865,2.4506e-05,0
2.787,2.1317e-05,0
2.7875,1.8967e-05,0
2.788,1.561e-05,0
2.7885,1.8296e-05,0
2.789,2.4674e-05,0
2.7895,2.887e-05,0
2.79,3.4745e-05,0
2.7905,3.3738e-05,0
2.791,2.6688e-05,0
2.7915,2.3835e-05,0
2.792,2.9374e-05,0
2.7925,3.4073e-05,0
2.793,3.4409e-05,0
2.7935,3.2395e-05,0
2.794,3.0045e-05,0
2.7945,3.2059e-05,0
2.795,3.6591e-05,0
2.7955,3.8773e-05,0
2.796,4.1123e-05,0
2.7965,4.0619e-05,0
2.797,3.743e-05,0
2.7975,3.3066e-05,0
2.798,2.0478e-05,0
2.7985,6.2104e-06,0
2.799,2.5177e-06,0
2.7995,1.5106e-06,0
2.8,5.539e-06,0
2.8005,1.6449e-05,0
2.801,1.7121e-05,0
2.8015,1.326e-05,0
2.802,1.1917e-05,0
2.8025,7.8889e-06,0
2.803,2.8534e-06,0
2.8035,2.3499e-06,0
2.804,1.0575e-05,0
2.8045,2.1988e-05,0
2.805,3.5248e-05,0
2.8055,4.4816e-05,0
2.806,4.5151e-05,0
2.8065,4.3977e-05,0
2.807,5.0187e-05,0
2.8075,5.623e-05,0
2.808,5.1865e-05,0
2.8085,3.6088e-05,0
2.809,2.6352e-05,0
2.8095,1.8631e-05,0
2.81,5.2033e-06,0
2.8105,-6.2104e-06,0
2.811,-1.7624e-05,0
2.8115,-2.7695e-05,0
2.812,-2.8534e-05,0
2.8125,-3.1724e-05,0
2.813,-3.7766e-05,0
2.8135,-3.1052e-05,0
2.814,-1.1582e-05,0
2.8145,1.5946e-05,0
2.815,3.6759e-05,0
2.8155,4.1459e-05,0
2.816,3.6088e-05,0
2.8165,2.8702e-05,0
2.817,2.3667e-05,0
2.8175,2.182e-05,0
2.818,2.3331e-05,0
2.8185,2.6184e-05,0
2.819,2.2828e-05,0
2.8195,1.8967e-05,0
2.82,2.0981e-05,0
2.8205,2.6688e-05,0
2.821,2.652e-05,0
2.8215,1.8799e-05,0
2.822,1.326e-05,0
2.8225,7.5532e-06,0
2.823,7.8889e-06,0
2.8235,1.8967e-05,0
2.824,2.3667e-05,0
2.8245,2.5177e-05,0
2.825,3.0716e-05,0
2.8255,2.7024e-05,0
2.826,1.4603e-05,0
2.8265,1.1414e-05,0
2.827,1.3596e-05,0
2.8275,1.5778e-05,0
2.828,2.1149e-05,0
2.8285,2.2324e-05,0
2.829,1.5274e-05,0
2.8295,3.1891e-06,0
2.83,-3.5248e-06,0
2.8305,-1.5106e-06,0
2.831,6.2104e-06,0
2.8315,1.8296e-05,0
2.832,3.3738e-05,0
2.8325,4.7333e-05,0
2.833,5.0858e-05,0
2.8335,4.9851e-05,0
2.834,4.8173e-05,0
2.8345,4.4984e-05,0
2.835,4.2802e-05,0
2.8355,4.5487e-05,0
2.836,4.6494e-05,0
2.8365,4.3809e-05,0
2.837,3.2059e-05,0
2.8375,2.6352e-05,0
2.838,3.0381e-05,0
2.8385,2.6352e-05,0
2.839,1.6617e-05,0
2.8395,1.2253e-05,0
2.84,1.0575e-05,0
2.8405,8.896e-06,0
2.841,1.1246e-05,0
2.8415,1.6281e-05,0
2.842,1.9974e-05,0
2.8425,2.0981e-05,0
2.843,2.266e-05,0
2.8435,2.5849e-05,0
2.844,2.5177e-05,0
2.8445,2.2995e-05,0
2.845,2.0981e-05,0
2.8455,1.7288e-05,0
2.846,1.0575e-05,0
2.8465,4.3641e-06,0
2.847,3.1891e-06,0
2.8475,4.5319e-06,0
2.848,9.9031e-06,0
2.8485,1.091e-05,0
2.849,7.5532e-06,0
2.8495,1.0575e-05,0
2.85,8.3925e-06,0
2.8505,4.1962e-06,0
2.851,9.2317e-06,0
2.8515,1.7288e-05,0
2.852,2.4002e-05,0
2.8525,3.3066e-05,0
2.853,4.1459e-05,0
2.8535,4.4144e-05,0
2.854,4.0116e-05,0
2.8545,3.0213e-05,0
2.855,1.8967e-05,0
2.8555,1.2421e-05,0
2.856,1.0239e-05,0
2.8565,8.896e-06,0
2.857,2.182e-06,0
2.8575,-8.896e-06,0
2.858,-1.5946e-05,0
2.8585,-1.3596e-05,0
2.859,-7.3854e-06,0
2.8595,-3.6927e-06,0
2.86,-2.8534e-06,0
2.8605,-5.035e-07,0
2.861,4.8676e-06,0
2.8615,-1.5106e-06,0
2.862,-1.4939e-05,0
2.8625,-1.326e-05,0
2.863,-6.8818e-06,0
2.8635,3.357e-07,0
2.864,1.6449e-05,0
2.8645,2.887e-05,0
2.865,3.508e-05,0
2.8655,3.9445e-05,0
2.866,3.5416e-05,0
2.8665,3.2059e-05,0
2.867,3.8102e-05,0
2.8675,4.7166e-05,0
2.868,5.2201e-05,0
2.8685,5.4887e-05,0
2.869,5.6565e-05,0
2.8695,5.8915e-05,0
2.87,6.2272e-05,0
2.8705,6.0258e-05,0
2.871,5.2033e-05,0
2.8715,4.0116e-05,0
2.872,2.3331e-05,0
2.8725,6.0426e-06,0
2.873,-4.8676e-06,0
2.8735,-9.0639e-06,0
2.874,-5.2033e-06,0
2.8745,-6.2104e-06,0
2.875,-2.2995e-05,0
2.8755,-4.0116e-05,0
2.876,-4.8173e-05,0
2.8765,-4.5319e-05,0
2.877,-3.0884e-05,0
2.8775,-1.2924e-05,0
2.878,6.2104e-06,0
2.8785,2.4506e-05,0
2.879,3.2059e-05,0
2.8795,3.7934e-05,0
2.88,5.4048e-05,0
2.8805,6.9657e-05,0
2.881,7.1e-05,0
2.8815,6.0929e-05,0
2.882,5.4887e-05,0
2.8825,6.0594e-05,0
2.883,6.9154e-05,0
2.8835,6.8147e-05,0
2.884,6.4622e-05,0
2.8845,6.5629e-05,0
2.885,6.5797e-05,0
2.8855,5.8076e-05,0
2.886,4.6494e-05,0
2.8865,3.6088e-05,0
2.887,2.6688e-05,0
2.8875,1.8128e-05,0
2.888,1.4603e-05,0
2.8885,1.7288e-05,0
2.889,1.2589e-05,0
2.8895,1.5106e-06,0
2.89,0,0
2.8905,6.2104e-06,0
2.891,1.8967e-05,0
2.8915,3.978e-05,0
2.892,4.683e-05,0
2.8925,4.1459e-05,0
2.893,4.1962e-05,0
2.8935,3.5416e-05,0
2.894,1.6617e-05,0
2.8945,-8.392e-07,0
2.895,-9.5674e-06,0
2.8955,-1.2421e-05,0
2.896,-1.091e-05,0
2.8965,-7.5532e-06,0
2.897,-6.8818e-06,0
2.8975,-9.7353e-06,0
2.898,-1.3596e-05,0
2.8985,-1.6449e-05,0
2.899,-1.7624e-05,0
2.8995,-2.4002e-05,0
2.9,-3.5752e-05,0
2.9005,-5.0355e-05,0
2.901,-5.5222e-05,0
2.9015,-3.6255e-05,0
2.902,-1.2253e-05,0
2.9025,4.1962e-06,0
2.903,1.8128e-05,0
2.9035,2.1317e-05,0
2.904,1.4939e-05,0
2.9045,9.2317e-06,0
2.905,3.0213e-06,0
2.9055,3.1891e-06,0
2.906,1.0575e-05,0
2.9065,1.6953e-05,0
2.907,1.9638e-05,0
2.9075,2.1317e-05,0
2.908,2.4002e-05,0
2.9085,2.9709e-05,0
2.909,3.2059e-05,0
2.9095,3.4745e-05,0
2.91,3.743e-05,0
2.9105,3.592e-05,0
2.911,3.4073e-05,0
2.9115,4.0787e-05,0
2.912,5.2705e-05,0
2.9125,6.3615e-05,0
2.913,7.4357e-05,0
2.9135,7.4525e-05,0
2.914,6.4118e-05,0
2.9145,5.3208e-05,0
2.915,3.9445e-05,0
2.9155,2.9374e-05,0
2.916,2.7695e-05,0
2.9165,2.3331e-05,0
2.917,1.3596e-05,0
2.9175,3.8605e-06,0
2.918,-7.5532e-06,0
2.9185,-6.2104e-06,0
2.919,6.0426e-06,0
2.9195,1.8296e-05,0
2.92,3.3066e-05,0
2.9205,4.2802e-05,0
2.921,4.1459e-05,0
2.9215,3.2059e-05,0
2.922,2.031e-05,0
2.9225,1.2589e-05,0
2.923,1.4603e-05,0
2.9235,1.8296e-05,0
2.924,1.4939e-05,0
2.9245,3.5248e-06,0
2.925,-5.2033e-06,0
2.9255,-4.3641e-06,0
2.926,1.1078e-05,0
2.9265,2.5681e-05,0
2.927,2.0981e-05,0
2.9275,2.8534e-06,0
2.928,-1.9638e-05,0
2.9285,-2.1988e-05,0
2.929,5.2033e-06,0
2.9295,3.4073e-05,0
2.93,5.2537e-05,0
2.9305,5.6733e-05,0
2.931,3.743e-05,0
2.9315,-2.3499e-06,0
2.932,-4.1291e-05,0
2.9325,-6.2608e-05,0
2.933,-6.1601e-05,0
2.9335,-4.1459e-05,0
2.934,-1.5274e-05,0
2.9345,-8.392e-07,0
2.935,8.392e-07,0
2.9355,4.5319e-06,0
2.936,1.9303e-05,0
2.9365,4.2634e-05,0
2.937,5.9251e-05,0
2.9375,6.3615e-05,0
2.938,5.8412e-05,0
2.9385,4.6494e-05,0
2.939,3.743e-05,0
2.9395,2.266e-05,0
2.94,-1.5106e-06,0
2.9405,-1.4939e-05,0
2.941,-2.3667e-05,0
2.9415,-3.4241e-05,0
2.942,-3.9612e-05,0
2.9425,-4.918e-05,0
2.943,-5.7237e-05,0
2.9435,-4.683e-05,0
2.944,-2.5345e-05,0
2.9445,-9.7353e-06,0
2.945,5.2033e-06,0
2.9455,2.0646e-05,0
2.946,3.3066e-05,0
2.9465,3.9948e-05,0
2.947,4.5151e-05,0
2.9475,5.2705e-05,0
2.948,5.8244e-05,0
2.9485,5.9754e-05,0
2.949,5.9754e-05,0
2.9495,5.8579e-05,0
2.95,5.6901e-05,0
2.9505,5.4887e-05,0
2.951,5.4887e-05,0
2.9515,5.4551e-05,0
2.952,5.4383e-05,0
2.9525,4.7166e-05,0
2.953,3.9612e-05,0
2.9535,4.2466e-05,0
2.954,4.918e-05,0
2.9545,5.539e-05,0
2.955,6.7643e-05,0
2.9555,7.8218e-05,0
2.956,8.1743e-05,0
2.9565,8.7114e-05,0
2.957,8.9799e-05,0
2.9575,8.426e-05,0
2.958,6.949e-05,0
2.9585,3.978e-05,0
2.959,1.1749e-06,0
2.9595,-2.4674e-05,0
2.96,-3.4073e-05,0
2.9605,-4.683e-05,0
2.961,-6.8482e-05,0
2.9615,-7.9225e-05,0
2.962,-6.3951e-05,0
2.9625,-3.508e-05,0
2.963,-1.1246e-05,0
2.9635,-4.1962e-06,0
2.964,-3.6927e-06,0
2.9645,3.5248e-06,0
2.965,1.3932e-05,0
2.9655,2.1317e-05,0
2.966,2.9038e-05,0
2.9665,3.9445e-05,0
2.967,3.9445e-05,0
2.9675,2.8702e-05,0
2.968,2.7863e-05,0
2.9685,2.8702e-05,0
2.969,2.5345e-05,0
2.9695,1.9638e-05,0
2.97,1.3092e-05,0
2.9705,1.326e-05,0
2.971,1.6281e-05,0
2.9715,1.5946e-05,0
2.972,1.5442e-05,0
2.9725,1.4099e-05,0
2.973,1.796e-05,0
2.9735,2.8534e-05,0
2.974,3.6423e-05,0
2.9745,3.5752e-05,0
2.975,3.4073e-05,0
2.9755,3.2395e-05,0
2.976,3.1388e-05,0
2.9765,3.0045e-05,0
2.977,2.6688e-05,0
2.9775,2.5345e-05,0
2.978,2.7359e-05,0
2.9785,2.9877e-05,0
2.979,2.9038e-05,0
2.9795,2.7695e-05,0
2.98,2.3835e-05,0
2.9805,2.8031e-05,0
2.981,3.9612e-05,0
2.9815,4.0116e-05,0
2.982,3.6423e-05,0
2.9825,4.0452e-05,0
2.983,4.0787e-05,0
2.9835,3.0045e-05,0
2.984,1.6617e-05,0
2.9845,1.3596e-05,0
2.985,3.5416e-05,0
2.9855,5.8915e-05,0
2.986,6.1265e-05,0
2.9865,4.3977e-05,0
2.987,1.4099e-05,0
2.9875,-1.2421e-05,0
2.988,-2.3163e-05,0
2.9885,-1.2253e-05,0
2.989,1.1582e-05,0
2.9895,3.4745e-05,0
2.99,4.448e-05,0
2.9905,3.3738e-05,0
2.991,1.2924e-05,0
2.9915,-7.2175e-06,0
2.992,-1.6281e-05,0
2.9925,-5.0355e-06,0
2.993,1.0071e-06,0
2.9935,-1.6785e-06,0
2.994,4.6998e-06,0
2.9945,1.0407e-05,0
2.995,9.2317e-06,0
2.9955,1.0575e-05,0
2.996,1.0575e-05,0
2.9965,1.4603e-05,0
2.997,2.6017e-05,0
2.9975,3.7095e-05,0
2.998,4.3809e-05,0
2.9985,4.3137e-05,0
2.999,3.5416e-05,0
2.9995,2.6688e-05,0
3,1.5106e-05,0
3.0005,-4.1962e-06,0
3.001,-2.5009e-05,0
3.0015,-3.6591e-05,0
3.002,-3.3402e-05,0
3.0025,-2.1653e-05,0
3.003,-1.4939e-05,0
3.0035,-1.5778e-05,0
3.004,-1.2589e-05,0
3.0045,1.1749e-06,0
3.005,2.1317e-05,0
3.0055,4.683e-05,0
3.006,5.7572e-05,0
3.0065,4.9515e-05,0
3.007,4.1123e-05,0
3.0075,3.0549e-05,0
3.008,1.4603e-05,0
3.0085,-1.3428e-06,0
3.009,-1.8296e-05,0
3.0095,-2.9374e-05,0
3.01,-2.7024e-05,0
3.0105,-1.6449e-05,0
3.011,3.8605e-06,0
3.0115,3.5752e-05,0
3.012,6.2104e-05,0
3.0125,6.5629e-05,0
3.013,5.2537e-05,0
3.0135,4.2466e-05,0
3.014,4.3641e-05,0
3.0145,4.9851e-05,0
3.015,4.8676e-05,0
3.0155,4.0452e-05,0
3.016,3.6088e-05,0
3.0165,3.4073e-05,0
3.017,2.6017e-05,0
3.0175,8.2246e-06,0
3.018,-1.1582e-05,0
3.0185,-1.2421e-05,0
3.019,-2.182e-06,0
3.0195,7.0497e-06,0
3.02,1.7792e-05,0
3.0205,2.1317e-05,0
3.021,1.9303e-05,0
3.0215,1.8463e-05,0
3.022,1.4099e-05,0
3.0225,1.4603e-05,0
3.023,2.4002e-05,0
3.0235,3.2563e-05,0
3.024,2.9374e-05,0
3.0245,2.1317e-05,0
3.025,1.8296e-05,0
3.0255,1.9303e-05,0
3.026,1.8799e-05,0
3.0265,1.8463e-05,0
3.027,2.3835e-05,0
3.0275,3.0045e-05,0
3.028,3.1388e-05,0
3.0285,3.5416e-05,0
3.029,4.6998e-05,0
3.0295,5.6062e-05,0
3.03,6.0594e-05,0
3.0305,6.0258e-05,0
3.031,5.7908e-05,0
3.0315,6.4286e-05,0
3.032,6.6636e-05,0
3.0325,6.0258e-05,0
3.033,5.4551e-05,0
3.0335,4.4144e-05,0
3.034,3.4745e-05,0
3.0345,3.3402e-05,0
3.035,3.1052e-05,0
3.0355,2.9877e-05,0
3.036,3.6255e-05,0
3.0365,4.1123e-05,0
3.037,4.1627e-05,0
3.0375,3.743e-05,0
3.038,3.2059e-05,0
3.0385,2.4338e-05,0
3.039,1.2924e-05,0
3.0395,2.6856e-06,0
3.04,1.6785e-06,0
3.0405,1.0407e-05,0
3.041,1.9806e-05,0
3.0415,3.0716e-05,0
3.042,4.683e-05,0
3.0425,5.9587e-05,0
3.043,6.1601e-05,0
3.0435,4.8173e-05,0
3.044,2.2324e-05,0
3.0445,1.678e-07,0
3.045,-1.6449e-05,0
3.0455,-1.6953e-05,0
3.046,-2.8534e-06,0
3.0465,2.5177e-06,0
3.047,6.8818e-06,0
3.0475,1.8631e-05,0
3.048,1.7792e-05,0
3.0485,1.678e-07,0
3.049,-1.3764e-05,0
3.0495,-1.7624e-05,0
3.05,-2.0478e-05,0
3.0505,-2.5009e-05,0
3.051,-3.0716e-05,0
3.0515,-3.8941e-05,0
3.052,-4.1795e-05,0
3.0525,-2.5177e-05,0
3.053,-6.714e-07,0
3.0535,3.357e-06,0
3.054,-1.7624e-05,0
3.0545,-3.9109e-05,0
3.055,-4.6998e-05,0
3.0555,-4.4816e-05,0
3.056,-2.887e-05,0
3.0565,-5.2033e-06,0
3.057,1.8463e-05,0
3.0575,3.8605e-05,0
3.058,4.5151e-05,0
3.0585,4.0955e-05,0
3.059,3.2059e-05,0
3.0595,1.2253e-05,0
3.06,-1.091e-05,0
3.0605,-2.0646e-05,0
3.061,-2.1149e-05,0
3.0615,-2.0981e-05,0
3.062,-1.8128e-05,0
3.0625,-1.2253e-05,0
3.063,-3.357e-06,0
3.0635,1.0071e-05,0
3.064,2.9374e-05,0
3.0645,4.5487e-05,0
3.065,5.623e-05,0
3.0655,6.3279e-05,0
3.066,6.2272e-05,0
3.0665,6.5293e-05,0
3.067,8.3085e-05,0
3.0675,0.00010356,0
3.068,0.00011095,0
3.0685,0.00010105,0
3.069,7.9393e-05,0
3.0695,4.9851e-05,0
3.07,3.0381e-05,0
3.0705,3.122e-05,0
3.071,3.5416e-05,0
3.0715,3.3738e-05,0
3.072,2.6017e-05,0
3.0725,-3.357e-06,0
3.073,-4.3809e-05,0
3.0735,-6.3951e-05,0
3.074,-6.2104e-05,0
3.0745,-4.5823e-05,0
3.075,-2.0646e-05,0
3.0755,0,0
3.076,9.9031e-06,0
3.0765,1.091e-05,0
3.077,5.7069e-06,0
3.0775,2.0142e-06,0
3.078,1.2589e-05,0
3.0785,2.8702e-05,0
3.079,3.6088e-05,0
3.0795,3.7934e-05,0
3.08,3.7095e-05,0
3.0805,3.5752e-05,0
3.081,3.8102e-05,0
3.0815,4.448e-05,0
3.082,4.7501e-05,0
3.0825,3.8773e-05,0
3.083,1.9135e-05,0
3.0835,1.8463e-06,0
3.084,-1.5106e-05,0
3.0845,-2.8367e-05,0
3.085,-2.7695e-05,0
3.0855,-1.8967e-05,0
3.086,-8.896e-06,0
3.0865,2.182e-06,0
3.087,1.0071e-06,0
3.0875,-9.9031e-06,0
3.088,-1.9303e-05,0
3.0885,-2.266e-05,0
3.089,-1.9303e-05,0
3.0895,-1.3596e-05,0
3.09,-7.2175e-06,0
3.0905,2.5177e-06,0
3.091,1.7624e-05,0
3.0915,3.2059e-05,0
3.092,3.9445e-05,0
3.0925,3.2059e-05,0
3.093,2.5009e-05,0
3.0935,2.7527e-05,0
3.094,3.2898e-05,0
3.0945,3.2563e-05,0
3.095,2.9374e-05,0
3.0955,1.8296e-05,0
3.096,2.182e-06,0
3.0965,-4.1962e-06,0
