0,0,0
0.0005,0,0
0.001,0,0
0.0015,0,0
0.002,0,0
0.0025,0,0
0.003,0,0
0.0035,0,0
0.004,0,0
0.0045,0,0
0.005,0,0
0.0055,0,0
0.006,0,0
0.0065,0,0
0.007,0,0
0.0075,0,0
0.008,0,0
0.0085,0,0
0.009,0,0
0.0095,0,0
0.01,0,0
0.0105,0,0
0.011,0,0
0.0115,0,0
0.012,0,0
0.0125,0,0
0.013,0,0
0.0135,0,0
0.014,0,0
0.0145,0,0
0.015,0,0
0.0155,0,0
0.016,0,0
0.0165,0,0
0.017,0,0
0.0175,0,0
0.018,0,0
0.0185,0,0
0.019,0,0
0.0195,0,0
0.02,0,0
0.0205,0,0
0.021,0,0
0.0215,0,0
0.022,0,0
0.0225,0,0
0.023,0,0
0.0235,0,0
0.024,0,0
0.0245,0,0
0.025,0,0
0.0255,0,0
0.026,1.5946e-05,0
0.0265,1.4267e-05,0
0.027,1.7792e-05,0
0.0275,2.0646e-05,0
0.028,2.4002e-05,0
0.0285,2.6688e-05,0
0.029,2.8534e-05,0
0.0295,2.8367e-05,0
0.03,2.5345e-05,0
0.0305,2.3331e-05,0
0.031,2.3835e-05,0
0.0315,2.266e-05,0
0.032,2.1317e-05,0
0.0325,2.2995e-05,0
0.033,2.4338e-05,0
0.0335,2.4002e-05,0
0.034,2.4338e-05,0
0.0345,2.4002e-05,0
0.035,2.0981e-05,0
0.0355,1.6953e-05,0
0.036,1.4939e-05,0
0.0365,1.561e-05,0
0.037,1.6953e-05,0
0.0375,1.9303e-05,0
0.038,2.0981e-05,0
0.0385,1.8967e-05,0
0.039,1.4603e-05,0
0.0395,1.1582e-05,0
0.04,1.1582e-05,0
0.0405,1.3932e-05,0
0.041,1.561e-05,0
0.0415,1.7456e-05,0
0.042,1.8967e-05,0
0.0425,2.1317e-05,0
0.043,2.266e-05,0
0.0435,2.0981e-05,0
0.044,1.9974e-05,0
0.0445,2.1988e-05,0
0.045,2.1653e-05,0
0.0455,1.8799e-05,0
0.046,1.796e-05,0
0.0465,1.8296e-05,0
0.047,1.8296e-05,0
0.0475,1.7288e-05,0
0.048,1.796e-05,0
0.0485,1.8631e-05,0
0.049,1.8631e-05,0
0.0495,2.0646e-05,0
0.05,2.3331e-05,0
0.0505,2.266e-05,0
0.051,2.0478e-05,0
0.0515,2.031e-05,0
0.052,2.1317e-05,0
0.0525,1.9806e-05,0
0.053,1.7624e-05,0
0.0535,1.8296e-05,0
0.054,1.8967e-05,0
0.0545,1.9303e-05,0
0.055,1.9303e-05,0
0.0555,2.031e-05,0
0.056,2.2324e-05,0
0.0565,2.1988e-05,0
0.057,1.9135e-05,0
0.0575,1.8296e-05,0
0.058,1.8631e-05,0
0.0585,1.8631e-05,0
0.059,2.031e-05,0
0.0595,2.2324e-05,0
0.06,2.3667e-05,0
0.0605,2.3835e-05,0
0.061,2.3331e-05,0
0.0615,2.4338e-05,0
0.062,2.4338e-05,0
0.0625,2.2156e-05,0
0.063,1.9303e-05,0
0.0635,1.8463e-05,0
0.064,1.8631e-05,0
0.0645,1.8128e-05,0
0.065,1.7288e-05,0
0.0655,1.9303e-05,0
0.066,2.1317e-05,0
0.0665,2.1653e-05,0
0.067,1.9303e-05,0
0.0675,1.7288e-05,0
0.068,1.561e-05,0
0.0685,1.561e-05,0
0.069,1.8296e-05,0
0.0695,2.0646e-05,0
0.07,2.0142e-05,0
0.0705,1.7792e-05,0
0.071,1.3932e-05,0
0.0715,1.326e-05,0
0.072,1.6953e-05,0
0.0725,2.0646e-05,0
0.073,1.9638e-05,0
0.0735,1.8631e-05,0
0.074,1.9974e-05,0
0.0745,2.1317e-05,0
0.075,2.0646e-05,0
0.0755,1.8967e-05,0
0.076,1.8967e-05,0
0.0765,1.9638e-05,0
0.077,2.0478e-05,0
0.0775,2.2492e-05,0
0.078,2.2995e-05,0
0.0785,2.1653e-05,0
0.079,2.0813e-05,0
0.0795,2.0646e-05,0
0.08,2.031e-05,0
0.0805,2.1317e-05,0
0.081,2.0142e-05,0
0.0815,1.7456e-05,0
0.082,1.8128e-05,0
0.0825,1.796e-05,0
0.083,1.6281e-05,0
0.0835,1.7121e-05,0
0.084,1.8296e-05,0
0.0845,1.9303e-05,0
0.085,2.1988e-05,0
0.0855,2.2995e-05,0
0.086,2.1317e-05,0
0.0865,1.9303e-05,0
0.087,1.5946e-05,0
0.0875,1.561e-05,0
0.088,1.4939e-05,0
0.0885,1.3092e-05,0
0.089,1.1246e-05,0
0.0895,1.1582e-05,0
0.09,1.4603e-05,0
0.0905,1.6785e-05,0
0.091,1.6953e-05,0
0.0915,1.8631e-05,0
0.092,2.0478e-05,0
0.0925,1.947e-05,0
0.093,1.7624e-05,0
0.0935,1.6953e-05,0
0.094,1.9135e-05,0
0.0945,2.1988e-05,0
0.095,2.266e-05,0
0.0955,1.9974e-05,0
0.096,1.796e-05,0
0.0965,1.8967e-05,0
0.097,1.7288e-05,0
0.0975,1.6785e-05,0
0.098,2.0142e-05,0
0.0985,2.1988e-05,0
0.099,2.1317e-05,0
0.0995,1.9806e-05,0
0.1,1.9303e-05,0
0.1005,2.1149e-05,0
0.101,2.0981e-05,0
0.1015,1.796e-05,0
0.102,1.7121e-05,0
0.1025,1.8967e-05,0
0.103,2.0646e-05,0
0.1035,2.0646e-05,0
0.104,1.9303e-05,0
0.1045,1.6617e-05,0
0.105,1.6281e-05,0
0.1055,1.7624e-05,0
0.106,1.6953e-05,0
0.1065,1.7288e-05,0
0.107,1.8967e-05,0
0.1075,2.0142e-05,0
0.108,2.0478e-05,0
0.1085,1.9303e-05,0
0.109,1.8631e-05,0
0.1095,1.9974e-05,0
0.11,1.8967e-05,0
0.1105,1.5778e-05,0
0.111,1.5274e-05,0
0.1115,1.8799e-05,0
0.112,2.2156e-05,0
0.1125,2.3667e-05,0
0.113,2.5177e-05,0
0.1135,2.7359e-05,0
0.114,2.7024e-05,0
0.1145,2.6017e-05,0
0.115,2.5345e-05,0
0.1155,2.4002e-05,0
0.116,2.1317e-05,0
0.1165,2.1988e-05,0
0.117,2.6184e-05,0
0.1175,2.7695e-05,0
0.118,2.5849e-05,0
0.1185,2.4002e-05,0
0.119,2.3667e-05,0
0.1195,2.3499e-05,0
0.12,2.2324e-05,0
0.1205,1.8967e-05,0
0.121,1.7288e-05,0
0.1215,1.6449e-05,0
0.122,1.5274e-05,0
0.1225,1.4939e-05,0
0.123,1.4603e-05,0
0.1235,1.4603e-05,0
0.124,1.3932e-05,0
0.1245,1.1246e-05,0
0.125,1.0071e-05,0
0.1255,1.1917e-05,0
0.126,1.3932e-05,0
0.1265,1.3932e-05,0
0.127,1.4267e-05,0
0.1275,1.6281e-05,0
0.128,1.796e-05,0
0.1285,2.0813e-05,0
0.129,2.2324e-05,0
0.1295,2.0478e-05,0
0.13,1.9135e-05,0
0.1305,1.9638e-05,0
0.131,2.1317e-05,0
0.1315,2.1317e-05,0
0.132,1.9974e-05,0
0.1325,1.8463e-05,0
0.133,1.6953e-05,0
0.1335,1.7288e-05,0
0.134,1.8631e-05,0
0.1345,1.9974e-05,0
0.135,2.0646e-05,0
0.1355,2.0981e-05,0
0.136,2.182e-05,0
0.1365,2.031e-05,0
0.137,2.031e-05,0
0.1375,2.2828e-05,0
0.138,2.3667e-05,0
0.1385,2.2492e-05,0
0.139,2.2324e-05,0
0.1395,2.266e-05,0
0.14,2.3331e-05,0
0.1405,2.1653e-05,0
0.141,2.0478e-05,0
0.1415,1.796e-05,0
0.142,1.796e-05,0
0.1425,1.8967e-05,0
0.143,1.9303e-05,0
0.1435,1.6785e-05,0
0.144,1.4267e-05,0
0.1445,1.3764e-05,0
0.145,1.326e-05,0
0.1455,1.5274e-05,0
0.146,1.7792e-05,0
0.1465,1.6953e-05,0
0.147,1.8463e-05,0
0.1475,2.1149e-05,0
0.148,2.182e-05,0
0.1485,1.9974e-05,0
0.149,1.8631e-05,0
0.1495,1.8296e-05,0
0.15,1.9303e-05,0
0.1505,2.0478e-05,0
0.151,1.8631e-05,0
0.1515,1.5946e-05,0
0.152,1.4603e-05,0
0.1525,1.3932e-05,0
0.153,1.326e-05,0
0.1535,1.3596e-05,0
0.154,1.5778e-05,0
0.1545,1.8631e-05,0
0.155,2.1149e-05,0
0.1555,2.1653e-05,0
0.156,1.9974e-05,0
0.1565,1.796e-05,0
0.157,1.8967e-05,0
0.1575,1.9974e-05,0
0.158,1.796e-05,0
0.1585,1.6449e-05,0
0.159,1.5274e-05,0
0.1595,1.7121e-05,0
0.16,2.1988e-05,0
0.1605,2.3835e-05,0
0.161,2.2995e-05,0
0.1615,2.4002e-05,0
0.162,2.5009e-05,0
0.1625,2.5681e-05,0
0.163,2.5177e-05,0
0.1635,2.4002e-05,0
0.164,2.3163e-05,0
0.1645,2.3835e-05,0
0.165,2.3163e-05,0
0.1655,2.182e-05,0
0.166,2.1988e-05,0
0.1665,2.1653e-05,0
0.167,1.7288e-05,0
0.1675,1.326e-05,0
0.168,1.2924e-05,0
0.1685,1.5274e-05,0
0.169,1.8463e-05,0
0.1695,1.8631e-05,0
0.17,1.7121e-05,0
0.1705,1.7624e-05,0
0.171,1.9638e-05,0
0.1715,2.1988e-05,0
0.172,2.182e-05,0
0.1725,1.9974e-05,0
0.173,1.7288e-05,0
0.1735,1.5778e-05,0
0.174,1.6617e-05,0
0.1745,1.8967e-05,0
0.175,2.0646e-05,0
0.1755,2.3331e-05,0
0.176,2.3331e-05,0
0.1765,1.9974e-05,0
0.177,1.8631e-05,0
0.1775,2.031e-05,0
0.178,2.0142e-05,0
0.1785,1.8967e-05,0
0.179,1.9135e-05,0
0.1795,1.9135e-05,0
0.18,1.7288e-05,0
0.1805,1.4603e-05,0
0.181,1.3932e-05,0
0.1815,1.6953e-05,0
0.182,2.1988e-05,0
0.1825,2.5345e-05,0
0.183,2.6017e-05,0
0.1835,2.3331e-05,0
0.184,1.9303e-05,0
0.1845,1.796e-05,0
0.185,1.7288e-05,0
0.1855,1.8296e-05,0
0.186,2.0981e-05,0
0.1865,2.2492e-05,0
0.187,2.0646e-05,0
0.1875,1.8967e-05,0
0.188,1.8967e-05,0
0.1885,1.9135e-05,0
0.189,2.031e-05,0
0.1895,1.8463e-05,0
0.19,1.5106e-05,0
0.1905,1.2924e-05,0
0.191,1.4435e-05,0
0.1915,1.796e-05,0
0.192,2.031e-05,0
0.1925,1.8631e-05,0
0.193,1.7624e-05,0
0.1935,1.8631e-05,0
0.194,2.031e-05,0
0.1945,2.2156e-05,0
0.195,2.2828e-05,0
0.1955,2.1988e-05,0
0.196,1.9974e-05,0
0.1965,1.796e-05,0
0.197,1.6617e-05,0
0.1975,1.8631e-05,0
0.198,2.2324e-05,0
0.1985,2.2492e-05,0
0.199,2.2324e-05,0
0.1995,2.1317e-05,0
0.2,2.1317e-05,0
0.2005,2.3667e-05,0
0.201,2.2324e-05,0
0.2015,2.031e-05,0
0.202,2.1988e-05,0
0.2025,2.4842e-05,0
0.203,2.3331e-05,0
0.2035,2.0646e-05,0
0.204,1.8967e-05,0
0.2045,1.8296e-05,0
0.205,1.8967e-05,0
0.2055,1.9974e-05,0
0.206,1.9638e-05,0
0.2065,1.947e-05,0
0.207,1.9806e-05,0
0.2075,1.8296e-05,0
0.208,1.7624e-05,0
0.2085,1.8296e-05,0
0.209,1.8128e-05,0
0.2095,1.5442e-05,0
0.21,1.326e-05,0
0.2105,1.5946e-05,0
0.211,1.8631e-05,0
0.2115,2.031e-05,0
0.212,1.9638e-05,0
0.2125,1.796e-05,0
0.213,1.8128e-05,0
0.2135,1.9303e-05,0
0.214,1.8296e-05,0
0.2145,1.6785e-05,0
0.215,1.8967e-05,0
0.2155,2.1317e-05,0
0.216,2.2324e-05,0
0.2165,2.2324e-05,0
0.217,2.2492e-05,0
0.2175,2.2995e-05,0
0.218,2.1317e-05,0
0.2185,1.9135e-05,0
0.219,1.7121e-05,0
0.2195,1.6953e-05,0
0.22,1.8296e-05,0
0.2205,1.8967e-05,0
0.221,2.031e-05,0
0.2215,1.9135e-05,0
0.222,1.6785e-05,0
0.2225,1.3932e-05,0
0.223,1.326e-05,0
0.2235,1.7288e-05,0
0.224,2.1317e-05,0
0.2245,2.0646e-05,0
0.225,1.7792e-05,0
0.2255,1.7288e-05,0
0.226,1.8631e-05,0
0.2265,2.1317e-05,0
0.227,2.3667e-05,0
0.2275,2.5513e-05,0
0.228,2.5345e-05,0
0.2285,1.9974e-05,0
0.229,1.5946e-05,0
0.2295,1.6617e-05,0
0.23,1.7456e-05,0
0.2305,1.6114e-05,0
0.231,1.7624e-05,0
0.2315,2.182e-05,0
0.232,2.5345e-05,0
0.2325,2.8031e-05,0
0.233,2.9374e-05,0
0.2335,2.8031e-05,0
0.234,2.5681e-05,0
0.2345,2.3667e-05,0
0.235,2.2324e-05,0
0.2355,2.0646e-05,0
0.236,1.8296e-05,0
0.2365,1.6785e-05,0
0.237,1.7288e-05,0
0.2375,2.031e-05,0
0.238,2.266e-05,0
0.2385,1.9303e-05,0
0.239,1.5106e-05,0
0.2395,1.561e-05,0
0.24,1.7792e-05,0
0.2405,1.9638e-05,0
0.241,2.031e-05,0
0.2415,1.9638e-05,0
0.242,1.9638e-05,0
0.2425,1.9806e-05,0
0.243,2.031e-05,0
0.2435,1.9135e-05,0
0.244,1.9638e-05,0
0.2445,1.9638e-05,0
0.245,1.8631e-05,0
0.2455,1.8967e-05,0
0.246,1.6953e-05,0
0.2465,1.326e-05,0
0.247,1.326e-05,0
0.2475,1.6617e-05,0
0.248,2.031e-05,0
0.2485,1.9974e-05,0
0.249,1.7792e-05,0
0.2495,1.7792e-05,0
0.25,1.5778e-05,0
0.2505,1.2924e-05,0
0.251,1.2589e-05,0
0.2515,1.2421e-05,0
0.252,1.326e-05,0
0.2525,1.5106e-05,0
0.253,1.561e-05,0
0.2535,1.5946e-05,0
0.254,1.6617e-05,0
0.2545,1.6617e-05,0
0.255,1.8128e-05,0
0.2555,2.0813e-05,0
0.256,2.3667e-05,0
0.2565,2.2995e-05,0
0.257,2.031e-05,0
0.2575,1.6617e-05,0
0.258,1.3596e-05,0
0.2585,1.2589e-05,0
0.259,1.4939e-05,0
0.2595,1.8631e-05,0
0.26,1.9974e-05,0
0.2605,1.9806e-05,0
0.261,2.1317e-05,0
0.2615,2.266e-05,0
0.262,2.0981e-05,0
0.2625,1.8967e-05,0
0.263,1.8967e-05,0
0.2635,2.1317e-05,0
0.264,2.6688e-05,0
0.2645,2.7527e-05,0
0.265,2.5177e-05,0
0.2655,2.3499e-05,0
0.266,2.031e-05,0
0.2665,1.6617e-05,0
0.267,1.7121e-05,0
0.2675,2.031e-05,0
0.268,2.1317e-05,0
0.2685,1.9638e-05,0
0.269,1.7121e-05,0
0.2695,1.7456e-05,0
0.27,2.2324e-05,0
0.2705,2.5177e-05,0
0.271,2.2324e-05,0
0.2715,1.6785e-05,0
0.272,1.6449e-05,0
0.2725,1.8631e-05,0
0.273,1.8128e-05,0
0.2735,1.6114e-05,0
0.274,1.6617e-05,0
0.2745,1.6281e-05,0
0.275,1.3764e-05,0
0.2755,1.2253e-05,0
0.276,1.4603e-05,0
0.2765,1.8631e-05,0
0.277,2.0646e-05,0
0.2775,1.796e-05,0
0.278,1.5274e-05,0
0.2785,1.6617e-05,0
0.279,1.7288e-05,0
0.2795,1.6617e-05,0
0.28,1.9135e-05,0
0.2805,2.1317e-05,0
0.281,2.1317e-05,0
0.2815,1.947e-05,0
0.282,1.7288e-05,0
0.2825,1.7456e-05,0
0.283,1.8967e-05,0
0.2835,1.8631e-05,0
0.284,1.8631e-05,0
0.2845,2.2492e-05,0
0.285,2.4002e-05,0
0.2855,2.1653e-05,0
0.286,1.796e-05,0
0.2865,1.561e-05,0
0.287,1.3932e-05,0
0.2875,1.4603e-05,0
0.288,1.5106e-05,0
0.2885,1.5946e-05,0
0.289,1.5946e-05,0
0.2895,1.7121e-05,0
0.29,1.9974e-05,0
0.2905,1.9303e-05,0
0.291,1.5274e-05,0
0.2915,1.326e-05,0
0.292,1.5946e-05,0
0.2925,1.8967e-05,0
0.293,1.947e-05,0
0.2935,2.2324e-05,0
0.294,2.4002e-05,0
0.2945,1.9974e-05,0
0.295,1.5106e-05,0
0.2955,1.6617e-05,0
0.296,1.9806e-05,0
0.2965,1.9974e-05,0
0.297,1.8631e-05,0
0.2975,1.8296e-05,0
0.298,2.1149e-05,0
0.2985,2.4002e-05,0
0.299,2.5177e-05,0
0.2995,2.4674e-05,0
0.3,2.2156e-05,0
0.3005,1.9135e-05,0
0.301,1.8799e-05,0
0.3015,2.031e-05,0
0.302,1.9638e-05,0
0.3025,1.796e-05,0
0.303,1.8128e-05,0
0.3035,1.8296e-05,0
0.304,1.947e-05,0
0.3045,2.3667e-05,0
0.305,2.5177e-05,0
0.3055,2.2156e-05,0
0.306,1.8296e-05,0
0.3065,1.8967e-05,0
0.307,2.3163e-05,0
0.3075,2.5681e-05,0
0.308,2.5009e-05,0
0.3085,2.4506e-05,0
0.309,2.3667e-05,0
0.3095,1.9806e-05,0
0.31,1.6953e-05,0
0.3105,1.796e-05,0
0.311,1.796e-05,0
0.3115,1.7121e-05,0
0.312,1.6953e-05,0
0.3125,1.8296e-05,0
0.313,2.0813e-05,0
0.3135,2.2324e-05,0
0.314,2.2324e-05,0
0.3145,2.1653e-05,0
0.315,1.947e-05,0
0.3155,1.947e-05,0
0.316,2.4674e-05,0
0.3165,2.7192e-05,0
0.317,2.4338e-05,0
0.3175,2.2324e-05,0
0.318,2.2995e-05,0
0.3185,2.4002e-05,0
0.319,2.5513e-05,0
0.3195,2.6352e-05,0
0.32,2.4002e-05,0
0.3205,2.2324e-05,0
0.321,2.0981e-05,0
0.3215,2.031e-05,0
0.322,2.031e-05,0
0.3225,2.031e-05,0
0.323,1.9974e-05,0
0.3235,2.0813e-05,0
0.324,2.2492e-05,0
0.3245,2.3667e-05,0
0.325,2.3163e-05,0
0.3255,1.9135e-05,0
0.326,1.561e-05,0
0.3265,1.6281e-05,0
0.327,1.4603e-05,0
0.3275,1.2253e-05,0
0.328,1.0575e-05,0
0.3285,1.0575e-05,0
0.329,1.326e-05,0
0.3295,1.5274e-05,0
0.33,1.3596e-05,0
0.3305,1.1749e-05,0
0.331,1.0407e-05,0
0.3315,1.326e-05,0
0.332,2.0646e-05,0
0.3325,2.4338e-05,0
0.333,2.4506e-05,0
0.3335,2.3499e-05,0
0.334,2.266e-05,0
0.3345,2.1317e-05,0
0.335,1.9638e-05,0
0.3355,1.9974e-05,0
0.336,2.0981e-05,0
0.3365,2.0813e-05,0
0.337,1.9974e-05,0
0.3375,2.0142e-05,0
0.338,2.0981e-05,0
0.3385,2.0813e-05,0
0.339,2.0142e-05,0
0.3395,1.9638e-05,0
0.34,1.9303e-05,0
0.3405,1.8463e-05,0
0.341,1.7624e-05,0
0.3415,1.6785e-05,0
0.342,1.8296e-05,0
0.3425,1.9303e-05,0
0.343,1.8967e-05,0
0.3435,2.0813e-05,0
0.344,2.1149e-05,0
0.3445,1.7624e-05,0
0.345,1.6449e-05,0
0.3455,1.8296e-05,0
0.346,1.9806e-05,0
0.3465,1.9638e-05,0
0.347,2.0478e-05,0
0.3475,2.1317e-05,0
0.348,1.9303e-05,0
0.3485,1.5106e-05,0
0.349,1.5274e-05,0
0.3495,1.8463e-05,0
0.35,2.1653e-05,0
0.3505,2.3163e-05,0
0.351,2.1317e-05,0
0.3515,1.796e-05,0
0.352,1.5946e-05,0
0.3525,1.4267e-05,0
0.353,1.326e-05,0
0.3535,1.6281e-05,0
0.354,1.7624e-05,0
0.3545,1.5442e-05,0
0.355,1.561e-05,0
0.3555,1.5946e-05,0
0.356,1.7121e-05,0
0.3565,1.9974e-05,0
0.357,1.8296e-05,0
0.3575,1.5274e-05,0
0.358,1.6617e-05,0
0.3585,2.2995e-05,0
0.359,2.8367e-05,0
0.3595,2.7192e-05,0
0.36,2.2492e-05,0
0.3605,1.9974e-05,0
0.361,2.1988e-05,0
0.3615,2.2492e-05,0
0.362,1.9303e-05,0
0.3625,1.5274e-05,0
0.363,1.2924e-05,0
0.3635,1.2421e-05,0
0.364,1.1749e-05,0
0.3645,1.3596e-05,0
0.365,1.6449e-05,0
0.3655,1.8128e-05,0
0.366,1.8967e-05,0
0.3665,2.0813e-05,0
0.367,2.0646e-05,0
0.3675,1.9135e-05,0
0.368,1.7624e-05,0
0.3685,1.796e-05,0
0.369,1.9974e-05,0
0.3695,2.1317e-05,0
0.37,2.1988e-05,0
0.3705,2.4338e-05,0
0.371,2.8031e-05,0
0.3715,3.0549e-05,0
0.372,3.1891e-05,0
0.3725,3.0549e-05,0
0.373,2.7359e-05,0
0.3735,2.5345e-05,0
0.374,2.5681e-05,0
0.3745,2.5345e-05,0
0.375,2.4002e-05,0
0.3755,2.6017e-05,0
0.376,2.6352e-05,0
0.3765,2.2324e-05,0
0.377,1.796e-05,0
0.3775,1.6281e-05,0
0.378,1.7121e-05,0
0.3785,1.5946e-05,0
0.379,1.561e-05,0
0.3795,1.8296e-05,0
0.38,1.8631e-05,0
0.3805,1.6281e-05,0
0.381,1.326e-05,0
0.3815,1.2757e-05,0
0.382,1.3092e-05,0
0.3825,1.3596e-05,0
0.383,1.4267e-05,0
0.3835,1.3596e-05,0
0.384,1.326e-05,0
0.3845,1.3932e-05,0
0.385,1.4435e-05,0
0.3855,1.5274e-05,0
0.386,1.4603e-05,0
0.3865,1.4939e-05,0
0.387,1.9135e-05,0
0.3875,2.1317e-05,0
0.388,1.9974e-05,0
0.3885,1.6617e-05,0
0.389,1.5946e-05,0
0.3895,1.5274e-05,0
0.39,1.4603e-05,0
0.3905,1.4435e-05,0
0.391,1.2589e-05,0
0.3915,9.9031e-06,0
0.392,1.0071e-05,0
0.3925,1.2589e-05,0
0.393,1.5274e-05,0
0.3935,1.6281e-05,0
0.394,1.7792e-05,0
0.3945,1.8967e-05,0
0.395,1.947e-05,0
0.3955,2.2492e-05,0
0.396,2.2995e-05,0
0.3965,2.2492e-05,0
0.397,2.4674e-05,0
0.3975,2.652e-05,0
0.398,2.5345e-05,0
0.3985,2.182e-05,0
0.399,2.0813e-05,0
0.3995,2.1149e-05,0
0.4,2.0981e-05,0
0.4005,2.0478e-05,0
0.401,1.9638e-05,0
0.4015,1.796e-05,0
0.402,1.7624e-05,0
0.4025,1.8296e-05,0
0.403,1.8296e-05,0
0.4035,1.6953e-05,0
0.404,1.7456e-05,0
0.4045,1.9135e-05,0
0.405,1.7121e-05,0
0.4055,1.561e-05,0
0.406,1.6281e-05,0
0.4065,1.7624e-05,0
0.407,1.796e-05,0
0.4075,1.6953e-05,0
0.408,1.6953e-05,0
0.4085,1.8463e-05,0
0.409,1.9303e-05,0
0.4095,1.7288e-05,0
0.41,1.4939e-05,0
0.4105,1.5946e-05,0
0.411,1.9135e-05,0
0.4115,2.1317e-05,0
0.412,2.0813e-05,0
0.4125,1.9974e-05,0
0.413,2.0981e-05,0
0.4135,2.1317e-05,0
0.414,1.8967e-05,0
0.4145,1.6953e-05,0
0.415,1.7792e-05,0
0.4155,1.9303e-05,0
0.416,1.7456e-05,0
0.4165,1.4939e-05,0
0.417,1.5946e-05,0
0.4175,2.1317e-05,0
0.418,2.4674e-05,0
0.4185,2.266e-05,0
0.419,2.0646e-05,0
0.4195,2.0478e-05,0
0.42,2.1988e-05,0
0.4205,2.1317e-05,0
0.421,2.0646e-05,0
0.4215,2.3331e-05,0
0.422,2.4674e-05,0
0.4225,2.266e-05,0
0.423,2.1149e-05,0
0.4235,2.1317e-05,0
0.424,2.266e-05,0
0.4245,2.1317e-05,0
0.425,1.9638e-05,0
0.4255,1.9638e-05,0
0.426,2.1317e-05,0
0.4265,2.2995e-05,0
0.427,2.2324e-05,0
0.4275,2.1317e-05,0
0.428,2.0646e-05,0
0.4285,2.0981e-05,0
0.429,2.1988e-05,0
0.4295,2.266e-05,0
0.43,2.1317e-05,0
0.4305,1.8967e-05,0
0.431,1.8296e-05,0
0.4315,1.9806e-05,0
0.432,1.9303e-05,0
0.4325,2.0478e-05,0
0.433,2.4002e-05,0
0.4335,2.652e-05,0
0.434,2.4506e-05,0
0.4345,2.1317e-05,0
0.435,1.9974e-05,0
0.4355,1.8631e-05,0
0.436,1.8296e-05,0
0.4365,1.947e-05,0
0.437,2.1317e-05,0
0.4375,2.2156e-05,0
0.438,2.1988e-05,0
0.4385,2.1149e-05,0
0.439,2.1317e-05,0
0.4395,2.3835e-05,0
0.44,2.5513e-05,0
0.4405,2.4338e-05,0
0.441,2.1988e-05,0
0.4415,1.8967e-05,0
0.442,1.6785e-05,0
0.4425,1.4771e-05,0
0.443,1.326e-05,0
0.4435,1.561e-05,0
0.444,1.7624e-05,0
0.4445,1.9638e-05,0
0.445,2.2324e-05,0
0.4455,2.2324e-05,0
0.446,1.9806e-05,0
0.4465,1.7624e-05,0
0.447,1.8631e-05,0
0.4475,1.947e-05,0
0.448,1.561e-05,0
0.4485,1.326e-05,0
0.449,1.7121e-05,0
0.4495,2.3499e-05,0
0.45,2.6017e-05,0
0.4505,2.3499e-05,0
0.451,1.8296e-05,0
0.4515,1.7792e-05,0
0.452,1.9974e-05,0
0.4525,1.9806e-05,0
0.453,1.7624e-05,0
0.4535,1.5778e-05,0
0.454,1.3932e-05,0
0.4545,1.2924e-05,0
0.455,1.4267e-05,0
0.4555,1.561e-05,0
0.456,1.6785e-05,0
0.4565,1.5778e-05,0
0.457,1.2924e-05,0
0.4575,1.3764e-05,0
0.458,1.6953e-05,0
0.4585,1.8296e-05,0
0.459,1.8128e-05,0
0.4595,1.5274e-05,0
0.46,1.3092e-05,0
0.4605,1.326e-05,0
0.461,1.4267e-05,0
0.4615,1.326e-05,0
0.462,1.326e-05,0
0.4625,1.6617e-05,0
0.463,2.0981e-05,0
0.4635,2.2828e-05,0
0.464,2.1317e-05,0
0.4645,1.7456e-05,0
0.465,1.4267e-05,0
0.4655,1.5442e-05,0
0.466,2.031e-05,0
0.4665,2.266e-05,0
0.467,2.0646e-05,0
0.4675,1.8296e-05,0
0.468,1.796e-05,0
0.4685,1.8128e-05,0
0.469,1.9303e-05,0
0.4695,1.8631e-05,0
0.47,1.5946e-05,0
0.4705,1.7288e-05,0
0.471,1.9303e-05,0
0.4715,1.8296e-05,0
0.472,1.8128e-05,0
0.4725,1.8463e-05,0
0.473,1.9638e-05,0
0.4735,2.0646e-05,0
0.474,1.8128e-05,0
0.4745,1.796e-05,0
0.475,1.9974e-05,0
0.4755,2.0478e-05,0
0.476,2.1149e-05,0
0.4765,2.1317e-05,0
0.477,1.9135e-05,0
0.4775,1.8967e-05,0
0.478,2.2324e-05,0
0.4785,2.4002e-05,0
0.479,2.3835e-05,0
0.4795,2.1149e-05,0
0.48,1.7624e-05,0
0.4805,1.7121e-05,0
0.481,1.7288e-05,0
0.4815,1.561e-05,0
0.482,1.5106e-05,0
0.4825,1.6617e-05,0
0.483,1.9806e-05,0
0.4835,2.266e-05,0
0.484,2.3331e-05,0
0.4845,2.1149e-05,0
0.485,2.1149e-05,0
0.4855,2.1317e-05,0
0.486,2.0142e-05,0
0.4865,2.2324e-05,0
0.487,2.5009e-05,0
0.4875,2.4338e-05,0
0.488,2.2995e-05,0
0.4885,2.3331e-05,0
0.489,2.2492e-05,0
0.4895,2.0646e-05,0
0.49,2.1317e-05,0
0.4905,2.2324e-05,0
0.491,2.266e-05,0
0.4915,2.5009e-05,0
0.492,2.5513e-05,0
0.4925,2.3835e-05,0
0.493,2.0981e-05,0
0.4935,1.9806e-05,0
0.494,2.1317e-05,0
0.4945,2.1317e-05,0
0.495,2.266e-05,0
0.4955,2.4002e-05,0
0.496,2.3835e-05,0
0.4965,2.4002e-05,0
0.497,2.0981e-05,0
0.4975,1.9135e-05,0
0.498,2.1653e-05,0
0.4985,2.2324e-05,0
0.499,1.9303e-05,0
0.4995,1.7792e-05,0
0.5,1.6281e-05,0
0.5005,1.5946e-05,0
0.501,1.8463e-05,0
0.5015,2.182e-05,0
0.502,2.2492e-05,0
0.5025,2.2995e-05,0
0.503,2.2995e-05,0
0.5035,2.1317e-05,0
0.504,2.031e-05,0
0.5045,1.9974e-05,0
0.505,1.8296e-05,0
0.5055,1.7792e-05,0
0.506,1.8631e-05,0
0.5065,1.9303e-05,0
0.507,1.9303e-05,0
0.5075,1.8296e-05,0
0.508,1.796e-05,0
0.5085,1.8631e-05,0
0.509,1.4603e-05,0
0.5095,9.9031e-06,0
0.51,7.7211e-06,0
0.5105,9.5674e-06,0
0.511,1.2589e-05,0
0.5115,1.3932e-05,0
0.512,1.5106e-05,0
0.5125,1.8631e-05,0
0.513,1.9806e-05,0
0.5135,1.8296e-05,0
0.514,1.9806e-05,0
0.5145,2.1988e-05,0
0.515,2.1317e-05,0
0.5155,1.9974e-05,0
0.516,2.1317e-05,0
0.5165,2.4338e-05,0
0.517,2.6017e-05,0
0.5175,2.4674e-05,0
0.518,2.1653e-05,0
0.5185,2.031e-05,0
0.519,2.1653e-05,0
0.5195,2.4338e-05,0
0.52,2.4338e-05,0
0.5205,2.2828e-05,0
0.521,2.2995e-05,0
0.5215,2.4338e-05,0
0.522,2.3835e-05,0
0.5225,2.1988e-05,0
0.523,2.0478e-05,0
0.5235,2.031e-05,0
0.524,2.1317e-05,0
0.5245,2.0646e-05,0
0.525,1.796e-05,0
0.5255,1.6449e-05,0
0.526,1.5274e-05,0
0.5265,1.6617e-05,0
0.527,2.1149e-05,0
0.5275,2.2324e-05,0
0.528,1.8967e-05,0
0.5285,1.5946e-05,0
0.529,1.4939e-05,0
0.5295,1.4267e-05,0
0.53,1.3596e-05,0
0.5305,1.3092e-05,0
0.531,1.5442e-05,0
0.5315,1.8296e-05,0
0.532,1.9974e-05,0
0.5325,2.0646e-05,0
0.533,2.2324e-05,0
0.5335,2.266e-05,0
0.534,2.1149e-05,0
0.5345,1.9638e-05,0
0.535,1.7792e-05,0
0.5355,1.6617e-05,0
0.536,1.7624e-05,0
0.5365,1.7792e-05,0
0.537,1.7288e-05,0
0.5375,1.6953e-05,0
0.538,1.7792e-05,0
0.5385,2.0981e-05,0
0.539,2.2995e-05,0
0.5395,2.2828e-05,0
0.54,2.182e-05,0
0.5405,1.9638e-05,0
0.541,1.7624e-05,0
0.5415,1.8296e-05,0
0.542,1.9974e-05,0
0.5425,2.2995e-05,0
0.543,2.4338e-05,0
0.5435,2.2156e-05,0
0.544,1.8463e-05,0
0.5445,1.7288e-05,0
0.545,1.7288e-05,0
0.5455,1.5442e-05,0
0.546,1.3596e-05,0
0.5465,1.3092e-05,0
0.547,1.5274e-05,0
0.5475,1.5274e-05,0
0.548,1.0575e-05,0
0.5485,1.091e-05,0
0.549,1.6281e-05,0
0.5495,1.7624e-05,0
0.55,1.6785e-05,0
0.5505,1.4771e-05,0
0.551,1.2589e-05,0
0.5515,1.2757e-05,0
0.552,1.3596e-05,0
0.5525,1.561e-05,0
0.553,2.0813e-05,0
0.5535,2.3499e-05,0
0.554,2.1317e-05,0
0.5545,1.9303e-05,0
0.555,1.8128e-05,0
0.5555,1.796e-05,0
0.556,1.4939e-05,0
0.5565,1.326e-05,0
0.557,1.5274e-05,0
0.5575,1.9303e-05,0
0.558,2.1149e-05,0
0.5585,2.2156e-05,0
0.559,2.0813e-05,0
0.5595,1.6953e-05,0
0.56,1.6449e-05,0
0.5605,1.6953e-05,0
0.561,1.4435e-05,0
0.5615,1.1917e-05,0
0.562,1.0575e-05,0
0.5625,1.1749e-05,0
0.563,1.6785e-05,0
0.5635,1.796e-05,0
0.564,1.6953e-05,0
0.5645,1.8128e-05,0
0.565,1.9303e-05,0
0.5655,1.8631e-05,0
0.566,2.0981e-05,0
0.5665,2.266e-05,0
0.567,2.1149e-05,0
0.5675,2.031e-05,0
0.568,1.9974e-05,0
0.5685,1.9974e-05,0
0.569,2.0981e-05,0
0.5695,2.1317e-05,0
0.57,2.1317e-05,0
0.5705,2.1988e-05,0
0.571,2.266e-05,0
0.5715,2.3499e-05,0
0.572,2.3499e-05,0
0.5725,2.182e-05,0
0.573,2.1988e-05,0
0.5735,2.1988e-05,0
0.574,1.9638e-05,0
0.5745,1.8631e-05,0
0.575,1.7121e-05,0
0.5755,1.5442e-05,0
0.576,2.031e-05,0
0.5765,2.4506e-05,0
0.577,2.266e-05,0
0.5775,2.031e-05,0
0.578,1.9638e-05,0
0.5785,2.0478e-05,0
0.579,2.031e-05,0
0.5795,1.9638e-05,0
0.58,1.9974e-05,0
0.5805,2.1317e-05,0
0.581,2.266e-05,0
0.5815,2.2324e-05,0
0.582,2.1988e-05,0
0.5825,2.2324e-05,0
0.583,2.031e-05,0
0.5835,1.8631e-05,0
0.584,1.7624e-05,0
0.5845,1.6449e-05,0
0.585,1.6953e-05,0
0.5855,1.9638e-05,0
0.586,2.1988e-05,0
0.5865,2.1149e-05,0
0.587,1.8967e-05,0
0.5875,1.9974e-05,0
0.588,2.2324e-05,0
0.5885,2.2156e-05,0
0.589,2.2324e-05,0
0.5895,2.031e-05,0
0.59,1.6953e-05,0
0.5905,1.7288e-05,0
0.591,1.8631e-05,0
0.5915,1.9806e-05,0
0.592,1.9638e-05,0
0.5925,1.9974e-05,0
0.593,2.266e-05,0
0.5935,2.4842e-05,0
0.594,2.266e-05,0
0.5945,2.1317e-05,0
0.595,2.1317e-05,0
0.5955,2.031e-05,0
0.596,1.8967e-05,0
0.5965,1.8631e-05,0
0.597,1.9135e-05,0
0.5975,2.031e-05,0
0.598,2.0981e-05,0
0.5985,2.0478e-05,0
0.599,2.0813e-05,0
0.5995,2.182e-05,0
0.6,2.1317e-05,0
0.6005,2.2492e-05,0
0.601,2.1988e-05,0
0.6015,2.0142e-05,0
0.602,1.9638e-05,0
0.6025,1.9135e-05,0
0.603,1.9638e-05,0
0.6035,2.266e-05,0
0.604,2.3331e-05,0
0.6045,2.1317e-05,0
0.605,2.3163e-05,0
0.6055,2.7024e-05,0
0.606,2.5849e-05,0
0.6065,2.2324e-05,0
0.607,2.0981e-05,0
0.6075,2.0981e-05,0
0.608,2.0813e-05,0
0.6085,1.8799e-05,0
0.609,1.6617e-05,0
0.6095,1.5946e-05,0
0.61,1.5946e-05,0
0.6105,1.5946e-05,0
0.611,1.6953e-05,0
0.6115,1.5778e-05,0
0.612,1.6449e-05,0
0.6125,1.796e-05,0
0.613,1.8631e-05,0
0.6135,2.0142e-05,0
0.614,1.9303e-05,0
0.6145,1.7288e-05,0
0.615,1.7288e-05,0
0.6155,1.5946e-05,0
0.616,1.4603e-05,0
0.6165,1.6281e-05,0
0.617,1.796e-05,0
0.6175,1.7624e-05,0
0.618,1.5946e-05,0
0.6185,1.3932e-05,0
0.619,1.4435e-05,0
0.6195,1.6281e-05,0
0.62,1.9135e-05,0
0.6205,1.9806e-05,0
0.621,1.7792e-05,0
0.6215,1.6281e-05,0
0.622,1.5106e-05,0
0.6225,1.3596e-05,0
0.623,1.3596e-05,0
0.6235,1.3932e-05,0
0.624,1.4603e-05,0
0.6245,1.561e-05,0
0.625,1.561e-05,0
0.6255,1.5274e-05,0
0.626,1.4771e-05,0
0.6265,1.7121e-05,0
0.627,2.031e-05,0
0.6275,2.1317e-05,0
0.628,2.1317e-05,0
0.6285,2.0981e-05,0
0.629,1.9303e-05,0
0.6295,1.796e-05,0
0.63,1.7624e-05,0
0.6305,1.8631e-05,0
0.631,2.1317e-05,0
0.6315,2.2492e-05,0
0.632,2.0813e-05,0
0.6325,1.8631e-05,0
0.633,1.9135e-05,0
0.6335,1.947e-05,0
0.634,1.9303e-05,0
0.6345,1.6617e-05,0
0.635,1.4435e-05,0
0.6355,1.4267e-05,0
0.636,1.6617e-05,0
0.6365,1.8967e-05,0
0.637,1.796e-05,0
0.6375,1.796e-05,0
0.638,2.031e-05,0
0.6385,2.1988e-05,0
0.639,2.1317e-05,0
0.6395,2.1988e-05,0
0.64,2.2492e-05,0
0.6405,2.1149e-05,0
0.641,1.8296e-05,0
0.6415,1.561e-05,0
0.642,1.4939e-05,0
0.6425,1.7121e-05,0
0.643,1.8631e-05,0
0.6435,1.9303e-05,0
0.644,1.947e-05,0
0.6445,1.9303e-05,0
0.645,1.8631e-05,0
0.6455,1.8631e-05,0
0.646,1.7624e-05,0
0.6465,1.5442e-05,0
0.647,1.561e-05,0
0.6475,1.796e-05,0
0.648,1.9303e-05,0
0.6485,2.0478e-05,0
0.649,2.1653e-05,0
0.6495,2.1988e-05,0
0.65,2.2324e-05,0
0.6505,2.1653e-05,0
0.651,1.947e-05,0
0.6515,1.796e-05,0
0.652,1.8296e-05,0
0.6525,2.1317e-05,0
0.653,2.4002e-05,0
0.6535,2.5345e-05,0
0.654,2.4338e-05,0
0.6545,2.2995e-05,0
0.655,2.2828e-05,0
0.6555,2.266e-05,0
0.656,2.0981e-05,0
0.6565,2.0478e-05,0
0.657,1.9303e-05,0
0.6575,1.6281e-05,0
0.658,1.6953e-05,0
0.6585,2.0646e-05,0
0.659,2.2995e-05,0
0.6595,2.4506e-05,0
0.66,2.3667e-05,0
0.6605,2.0981e-05,0
0.661,1.796e-05,0
0.6615,1.5778e-05,0
0.662,1.4939e-05,0
0.6625,1.561e-05,0
0.663,1.9303e-05,0
0.6635,2.1317e-05,0
0.664,2.1317e-05,0
0.6645,1.9974e-05,0
0.665,1.9135e-05,0
0.6655,1.8631e-05,0
0.666,1.9303e-05,0
0.6665,2.0813e-05,0
0.667,2.2324e-05,0
0.6675,2.1317e-05,0
0.668,2.0646e-05,0
0.6685,2.182e-05,0
0.669,2.031e-05,0
0.6695,1.8631e-05,0
0.67,1.8631e-05,0
0.6705,1.9638e-05,0
0.671,1.9303e-05,0
0.6715,1.8296e-05,0
0.672,1.8799e-05,0
0.6725,1.8631e-05,0
0.673,1.7288e-05,0
0.6735,1.8631e-05,0
0.674,2.1653e-05,0
0.6745,2.2156e-05,0
0.675,1.9303e-05,0
0.6755,1.7792e-05,0
0.676,1.8631e-05,0
0.6765,1.7456e-05,0
0.677,1.5946e-05,0
0.6775,1.5442e-05,0
0.678,1.6617e-05,0
0.6785,1.7624e-05,0
0.679,1.7288e-05,0
0.6795,1.4939e-05,0
0.68,1.4099e-05,0
0.6805,1.2253e-05,0
0.681,1.1582e-05,0
0.6815,1.5946e-05,0
0.682,1.8296e-05,0
0.6825,1.7121e-05,0
0.683,1.8296e-05,0
0.6835,2.1317e-05,0
0.684,2.3499e-05,0
0.6845,2.4002e-05,0
0.685,2.1653e-05,0
0.6855,1.8631e-05,0
0.686,1.8296e-05,0
0.6865,1.796e-05,0
0.687,1.8631e-05,0
0.6875,1.8463e-05,0
0.688,1.6953e-05,0
0.6885,1.6449e-05,0
0.689,1.5274e-05,0
0.6895,1.4435e-05,0
0.69,1.5946e-05,0
0.6905,1.9638e-05,0
0.691,2.1653e-05,0
0.6915,2.266e-05,0
0.692,2.1317e-05,0
0.6925,2.031e-05,0
0.693,2.0646e-05,0
0.6935,1.8631e-05,0
0.694,1.6281e-05,0
0.6945,1.7624e-05,0
0.695,1.947e-05,0
0.6955,2.0646e-05,0
0.696,2.266e-05,0
0.6965,2.5009e-05,0
0.697,2.6017e-05,0
0.6975,2.6688e-05,0
0.698,2.6352e-05,0
0.6985,2.4002e-05,0
0.699,2.0646e-05,0
0.6995,2.0981e-05,0
0.7,2.182e-05,0
0.7005,2.1317e-05,0
0.701,2.0813e-05,0
0.7015,2.1317e-05,0
0.702,2.2995e-05,0
0.7025,2.2324e-05,0
0.703,2.0646e-05,0
0.7035,1.8967e-05,0
0.704,1.796e-05,0
0.7045,1.9806e-05,0
0.705,1.9974e-05,0
0.7055,1.9638e-05,0
0.706,2.1653e-05,0
0.7065,2.0646e-05,0
0.707,1.7792e-05,0
0.7075,1.796e-05,0
0.708,2.1317e-05,0
0.7085,2.266e-05,0
0.709,2.3667e-05,0
0.7095,2.3331e-05,0
0.71,2.0981e-05,0
0.7105,1.796e-05,0
0.711,1.796e-05,0
0.7115,1.9806e-05,0
0.712,2.031e-05,0
0.7125,1.8967e-05,0
0.713,1.9135e-05,0
0.7135,1.9638e-05,0
0.714,1.8631e-05,0
0.7145,1.9303e-05,0
0.715,1.9974e-05,0
0.7155,1.8631e-05,0
0.716,1.8296e-05,0
0.7165,1.6785e-05,0
0.717,1.3932e-05,0
0.7175,1.4603e-05,0
0.718,1.5778e-05,0
0.7185,1.6617e-05,0
0.719,1.796e-05,0
0.7195,1.8631e-05,0
0.72,2.0813e-05,0
0.7205,2.2324e-05,0
0.721,2.1149e-05,0
0.7215,1.796e-05,0
0.722,1.8631e-05,0
0.7225,2.1317e-05,0
0.723,2.3331e-05,0
0.7235,2.1317e-05,0
0.724,1.7624e-05,0
0.7245,1.6281e-05,0
0.725,2.0142e-05,0
0.7255,2.3331e-05,0
0.726,2.0981e-05,0
0.7265,1.5778e-05,0
0.727,1.3932e-05,0
0.7275,1.4939e-05,0
0.728,1.4939e-05,0
0.7285,1.5274e-05,0
0.729,1.6281e-05,0
0.7295,1.5946e-05,0
0.73,1.3932e-05,0
0.7305,1.5946e-05,0
0.731,1.9638e-05,0
0.7315,1.9135e-05,0
0.732,1.5946e-05,0
0.7325,1.3092e-05,0
0.733,1.1917e-05,0
0.7335,1.3596e-05,0
0.734,1.5274e-05,0
0.7345,1.6449e-05,0
0.735,1.8463e-05,0
0.7355,2.1317e-05,0
0.736,2.3163e-05,0
0.7365,2.266e-05,0
0.737,1.947e-05,0
0.7375,1.7288e-05,0
0.738,1.9974e-05,0
0.7385,2.266e-05,0
0.739,2.3331e-05,0
0.7395,2.4338e-05,0
0.74,2.4338e-05,0
0.7405,2.182e-05,0
0.741,1.9303e-05,0
0.7415,1.8631e-05,0
0.742,2.0142e-05,0
0.7425,2.1988e-05,0
0.743,2.1317e-05,0
0.7435,2.1317e-05,0
0.744,2.0813e-05,0
0.7445,1.7624e-05,0
0.745,1.561e-05,0
0.7455,1.6953e-05,0
0.746,1.796e-05,0
0.7465,1.8967e-05,0
0.747,1.947e-05,0
0.7475,1.796e-05,0
0.748,1.6953e-05,0
0.7485,1.8967e-05,0
0.749,2.1317e-05,0
0.7495,1.9974e-05,0
0.75,1.796e-05,0
0.7505,1.8967e-05,0
0.751,1.9638e-05,0
0.7515,1.8799e-05,0
0.752,1.9974e-05,0
0.7525,2.0646e-05,0
0.753,1.8296e-05,0
0.7535,1.4939e-05,0
0.754,1.1414e-05,0
0.7545,1.091e-05,0
0.755,1.3932e-05,0
0.7555,1.6953e-05,0
0.756,1.7624e-05,0
0.7565,1.9303e-05,0
0.757,1.8631e-05,0
0.7575,1.6449e-05,0
0.758,1.561e-05,0
0.7585,1.4939e-05,0
0.759,1.4435e-05,0
0.7595,1.796e-05,0
0.76,2.0981e-05,0
0.7605,2.0981e-05,0
0.761,2.0813e-05,0
0.7615,2.1317e-05,0
0.762,2.266e-05,0
0.7625,2.3667e-05,0
0.763,2.1988e-05,0
0.7635,2.0981e-05,0
0.764,2.0981e-05,0
0.7645,2.2324e-05,0
0.765,2.3163e-05,0
0.7655,2.1317e-05,0
0.766,1.9974e-05,0
0.7665,2.1653e-05,0
0.767,2.3331e-05,0
0.7675,2.1317e-05,0
0.768,1.9638e-05,0
0.7685,1.9974e-05,0
0.769,1.8967e-05,0
0.7695,2.031e-05,0
0.77,2.2324e-05,0
0.7705,2.266e-05,0
0.771,2.266e-05,0
0.7715,2.1653e-05,0
0.772,2.1988e-05,0
0.7725,2.266e-05,0
0.773,2.4674e-05,0
0.7735,2.6352e-05,0
0.774,2.6688e-05,0
0.7745,2.652e-05,0
0.775,2.4506e-05,0
0.7755,2.1988e-05,0
0.776,2.0981e-05,0
0.7765,2.266e-05,0
0.777,2.4002e-05,0
0.7775,2.3667e-05,0
0.778,2.2156e-05,0
0.7785,2.1317e-05,0
0.779,1.9974e-05,0
0.7795,1.8631e-05,0
0.78,1.8631e-05,0
0.7805,1.7288e-05,0
0.781,1.5946e-05,0
0.7815,1.5946e-05,0
0.782,1.6449e-05,0
0.7825,2.031e-05,0
0.783,2.2324e-05,0
0.7835,2.031e-05,0
0.784,2.0646e-05,0
0.7845,2.1149e-05,0
0.785,1.9135e-05,0
0.7855,1.7792e-05,0
0.786,1.7288e-05,0
0.7865,1.6281e-05,0
0.787,1.9303e-05,0
0.7875,2.1988e-05,0
0.788,2.1149e-05,0
0.7885,1.8967e-05,0
0.789,1.796e-05,0
0.7895,1.7624e-05,0
0.79,1.8631e-05,0
0.7905,2.031e-05,0
0.791,2.0813e-05,0
0.7915,1.8463e-05,0
0.792,1.6281e-05,0
0.7925,1.5946e-05,0
0.793,1.7288e-05,0
0.7935,1.7288e-05,0
0.794,1.796e-05,0
0.7945,1.6281e-05,0
0.795,1.3092e-05,0
0.7955,1.5274e-05,0
0.796,1.8967e-05,0
0.7965,1.9806e-05,0
0.797,2.2324e-05,0
0.7975,2.1988e-05,0
0.798,1.7288e-05,0
0.7985,1.4603e-05,0
0.799,1.4939e-05,0
0.7995,1.5946e-05,0
0.8,1.5274e-05,0
0.8005,1.4099e-05,0
0.801,1.4099e-05,0
0.8015,1.561e-05,0
0.802,1.5442e-05,0
0.8025,1.4939e-05,0
0.803,1.561e-05,0
0.8035,1.5106e-05,0
0.804,1.3092e-05,0
0.8045,1.2589e-05,0
0.805,1.3932e-05,0
0.8055,1.4267e-05,0
0.806,1.6785e-05,0
0.8065,1.8967e-05,0
0.807,1.8967e-05,0
0.8075,1.9806e-05,0
0.808,2.0142e-05,0
0.8085,1.9638e-05,0
0.809,1.796e-05,0
0.8095,1.6953e-05,0
0.81,1.6617e-05,0
0.8105,1.5274e-05,0
0.811,1.4267e-05,0
0.8115,1.5106e-05,0
0.812,1.2924e-05,0
0.8125,1.2589e-05,0
0.813,1.561e-05,0
0.8135,1.8631e-05,0
0.814,2.1149e-05,0
0.8145,2.2492e-05,0
0.815,2.0981e-05,0
0.8155,1.8463e-05,0
0.816,1.796e-05,0
0.8165,1.9135e-05,0
0.817,1.8967e-05,0
0.8175,1.947e-05,0
0.818,2.1317e-05,0
0.8185,2.1317e-05,0
0.819,2.1149e-05,0
0.8195,1.9974e-05,0
0.82,1.947e-05,0
0.8205,1.8296e-05,0
0.821,1.6785e-05,0
0.8215,1.7288e-05,0
0.822,2.0646e-05,0
0.8225,2.3667e-05,0
0.823,2.3331e-05,0
0.8235,1.9303e-05,0
0.824,1.796e-05,0
0.8245,1.9974e-05,0
0.825,2.1653e-05,0
0.8255,2.182e-05,0
0.826,2.2324e-05,0
0.8265,2.5177e-05,0
0.827,2.6352e-05,0
0.8275,2.4674e-05,0
0.828,2.2492e-05,0
0.8285,2.182e-05,0
0.829,2.2828e-05,0
0.8295,2.1149e-05,0
0.83,1.9974e-05,0
0.8305,2.1317e-05,0
0.831,2.182e-05,0
0.8315,2.1317e-05,0
0.832,2.0478e-05,0
0.8325,1.9974e-05,0
0.833,1.796e-05,0
0.8335,1.7121e-05,0
0.834,1.9974e-05,0
0.8345,2.4338e-05,0
0.835,2.5345e-05,0
0.8355,2.4002e-05,0
0.836,2.4002e-05,0
0.8365,2.4002e-05,0
0.837,2.1988e-05,0
0.8375,2.1317e-05,0
0.838,2.2324e-05,0
0.8385,2.1653e-05,0
0.839,2.0981e-05,0
0.8395,1.8463e-05,0
0.84,1.561e-05,0
0.8405,1.561e-05,0
0.841,1.7121e-05,0
0.8415,1.7456e-05,0
0.842,1.6785e-05,0
0.8425,1.5946e-05,0
0.843,1.5106e-05,0
0.8435,1.4939e-05,0
0.844,1.5274e-05,0
0.8445,1.6617e-05,0
0.845,1.9135e-05,0
0.8455,1.9806e-05,0
0.846,1.8631e-05,0
0.8465,1.7288e-05,0
0.847,1.6281e-05,0
0.8475,1.5946e-05,0
0.848,1.5946e-05,0
0.8485,1.7624e-05,0
0.849,1.8967e-05,0
0.8495,1.7624e-05,0
0.85,1.6785e-05,0
0.8505,2.0646e-05,0
0.851,2.3667e-05,0
0.8515,2.5345e-05,0
0.852,2.4674e-05,0
0.8525,2.1149e-05,0
0.853,1.7288e-05,0
0.8535,1.6617e-05,0
0.854,1.7288e-05,0
0.8545,1.9806e-05,0
0.855,2.0981e-05,0
0.8555,2.1317e-05,0
0.856,2.182e-05,0
0.8565,2.1317e-05,0
0.857,2.1317e-05,0
0.8575,2.266e-05,0
0.858,2.1317e-05,0
0.8585,1.9974e-05,0
0.859,1.9638e-05,0
0.8595,1.9135e-05,0
0.86,1.8799e-05,0
0.8605,1.9974e-05,0
0.861,1.796e-05,0
0.8615,1.5274e-05,0
0.862,1.8631e-05,0
0.8625,2.1317e-05,0
0.863,2.0646e-05,0
0.8635,1.8967e-05,0
0.864,1.7288e-05,0
0.8645,1.6617e-05,0
0.865,1.6953e-05,0
0.8655,1.6617e-05,0
0.866,1.6617e-05,0
0.8665,1.7121e-05,0
0.867,1.796e-05,0
0.8675,1.8799e-05,0
0.868,1.9638e-05,0
0.8685,1.9638e-05,0
0.869,1.9806e-05,0
0.8695,2.0478e-05,0
0.87,2.1317e-05,0
0.8705,2.3331e-05,0
0.871,2.4338e-05,0
0.8715,2.5009e-05,0
0.872,2.3667e-05,0
0.8725,2.1149e-05,0
0.873,1.947e-05,0
0.8735,2.0646e-05,0
0.874,2.2324e-05,0
0.8745,2.2995e-05,0
0.875,2.3667e-05,0
0.8755,2.1988e-05,0
0.876,2.0646e-05,0
0.8765,2.1317e-05,0
0.877,1.8631e-05,0
0.8775,1.5106e-05,0
0.878,1.326e-05,0
0.8785,1.3764e-05,0
0.879,1.5946e-05,0
0.8795,1.6953e-05,0
0.88,1.5946e-05,0
0.8805,1.561e-05,0
0.881,1.4939e-05,0
0.8815,1.2421e-05,0
0.882,1.1749e-05,0
0.8825,1.6281e-05,0
0.883,1.8631e-05,0
0.8835,1.5274e-05,0
0.884,1.2757e-05,0
0.8845,1.5778e-05,0
0.885,1.8967e-05,0
0.8855,1.9974e-05,0
0.886,2.1149e-05,0
0.8865,2.3331e-05,0
0.887,2.1988e-05,0
0.8875,1.8631e-05,0
0.888,1.6617e-05,0
0.8885,1.4267e-05,0
0.889,1.326e-05,0
0.8895,1.4267e-05,0
0.89,1.6617e-05,0
0.8905,1.9638e-05,0
0.891,2.2995e-05,0
0.8915,2.2995e-05,0
0.892,2.0981e-05,0
0.8925,2.1317e-05,0
0.893,2.182e-05,0
0.8935,2.2828e-05,0
0.894,2.4506e-05,0
0.8945,2.6688e-05,0
0.895,2.6688e-05,0
0.8955,2.5345e-05,0
0.896,2.4338e-05,0
0.8965,2.4002e-05,0
0.897,2.4674e-05,0
0.8975,2.4002e-05,0
0.898,2.3163e-05,0
0.8985,2.031e-05,0
0.899,1.6617e-05,0
0.8995,1.7288e-05,0
0.9,1.796e-05,0
0.9005,1.561e-05,0
0.901,1.4435e-05,0
0.9015,1.5946e-05,0
0.902,1.8296e-05,0
0.9025,1.8631e-05,0
0.903,1.6449e-05,0
0.9035,1.4939e-05,0
0.904,1.4603e-05,0
0.9045,1.4603e-05,0
0.905,1.6449e-05,0
0.9055,1.8296e-05,0
0.906,1.9974e-05,0
0.9065,2.0646e-05,0
0.907,1.9974e-05,0
0.9075,1.9806e-05,0
0.908,2.2324e-05,0
0.9085,2.2492e-05,0
0.909,1.8463e-05,0
0.9095,1.5442e-05,0
0.91,1.6449e-05,0
0.9105,1.9974e-05,0
0.911,2.1317e-05,0
0.9115,1.9638e-05,0
0.912,1.6449e-05,0
0.9125,1.4939e-05,0
0.913,1.3932e-05,0
0.9135,1.3932e-05,0
0.914,1.4603e-05,0
0.9145,1.3764e-05,0
0.915,1.1749e-05,0
0.9155,1.2589e-05,0
0.916,1.5274e-05,0
0.9165,1.7792e-05,0
0.917,2.0981e-05,0
0.9175,2.1988e-05,0
0.918,1.9638e-05,0
0.9185,1.5778e-05,0
0.919,1.326e-05,0
0.9195,1.3596e-05,0
0.92,1.5946e-05,0
0.9205,1.8967e-05,0
0.921,2.266e-05,0
0.9215,2.0646e-05,0
0.922,1.5106e-05,0
0.9225,1.3596e-05,0
0.923,1.4435e-05,0
0.9235,1.2924e-05,0
0.924,1.3596e-05,0
0.9245,1.4603e-05,0
0.925,1.3932e-05,0
0.9255,1.6617e-05,0
0.926,1.8967e-05,0
0.9265,1.8799e-05,0
0.927,1.9135e-05,0
0.9275,1.796e-05,0
0.928,1.7288e-05,0
0.9285,1.8967e-05,0
0.929,2.0981e-05,0
0.9295,2.3835e-05,0
0.93,2.7024e-05,0
0.9305,2.887e-05,0
0.931,2.7024e-05,0
0.9315,2.2828e-05,0
0.932,2.0813e-05,0
0.9325,1.9974e-05,0
0.933,1.9974e-05,0
0.9335,2.1149e-05,0
0.934,2.3835e-05,0
0.9345,2.4338e-05,0
0.935,2.2156e-05,0
0.9355,1.9974e-05,0
0.936,2.031e-05,0
0.9365,2.1317e-05,0
0.937,2.1317e-05,0
0.9375,2.0646e-05,0
0.938,1.9638e-05,0
0.9385,1.8967e-05,0
0.939,1.8967e-05,0
0.9395,2.1317e-05,0
0.94,2.5009e-05,0
0.9405,2.5681e-05,0
0.941,2.4842e-05,0
0.9415,2.4842e-05,0
0.942,2.2995e-05,0
0.9425,2.0646e-05,0
0.943,1.9974e-05,0
0.9435,2.1149e-05,0
0.944,2.2828e-05,0
0.9445,2.3667e-05,0
0.945,2.3163e-05,0
0.9455,2.3163e-05,0
0.946,2.4674e-05,0
0.9465,2.6352e-05,0
0.947,2.5345e-05,0
0.9475,2.3331e-05,0
0.948,2.2828e-05,0
0.9485,2.3835e-05,0
0.949,2.3835e-05,0
0.9495,2.1317e-05,0
0.95,1.9974e-05,0
0.9505,1.8631e-05,0
0.951,1.5274e-05,0
0.9515,1.3932e-05,0
0.952,1.4267e-05,0
0.9525,1.5946e-05,0
0.953,1.8631e-05,0
0.9535,1.9974e-05,0
0.954,2.1988e-05,0
0.9545,2.1653e-05,0
0.955,1.7288e-05,0
0.9555,1.4267e-05,0
0.956,1.5946e-05,0
0.9565,1.6953e-05,0
0.957,1.8967e-05,0
0.9575,2.1653e-05,0
0.958,2.1988e-05,0
0.9585,1.9974e-05,0
0.959,1.9303e-05,0
0.9595,1.8463e-05,0
0.96,1.8799e-05,0
0.9605,2.1149e-05,0
0.961,2.3163e-05,0
0.9615,2.2995e-05,0
0.962,2.182e-05,0
0.9625,2.031e-05,0
0.963,1.7121e-05,0
0.9635,1.5106e-05,0
0.964,1.4267e-05,0
0.9645,1.8631e-05,0
0.965,2.2324e-05,0
0.9655,2.1317e-05,0
0.966,2.1149e-05,0
0.9665,2.0646e-05,0
0.967,1.9135e-05,0
0.9675,2.0478e-05,0
0.968,2.0646e-05,0
0.9685,1.796e-05,0
0.969,1.6449e-05,0
0.9695,1.7288e-05,0
0.97,2.0981e-05,0
0.9705,2.3163e-05,0
0.971,2.2995e-05,0
0.9715,2.1988e-05,0
0.972,2.0646e-05,0
0.9725,2.0981e-05,0
0.973,2.0813e-05,0
0.9735,1.7624e-05,0
0.974,1.561e-05,0
0.9745,1.561e-05,0
0.975,1.561e-05,0
0.9755,1.561e-05,0
0.976,1.561e-05,0
0.9765,1.4603e-05,0
0.977,1.3932e-05,0
0.9775,1.7456e-05,0
0.978,1.8799e-05,0
0.9785,1.7624e-05,0
0.979,1.7624e-05,0
0.9795,1.7624e-05,0
0.98,1.6617e-05,0
0.9805,1.5274e-05,0
0.981,1.326e-05,0
0.9815,1.326e-05,0
0.982,1.7288e-05,0
0.9825,1.9974e-05,0
0.983,2.1317e-05,0
0.9835,2.0646e-05,0
0.984,1.6953e-05,0
0.9845,1.5274e-05,0
0.985,1.7624e-05,0
0.9855,1.8631e-05,0
0.986,1.6953e-05,0
0.9865,1.326e-05,0
0.987,1.2589e-05,0
0.9875,1.326e-05,0
0.988,1.561e-05,0
0.9885,1.9974e-05,0
0.989,2.1988e-05,0
0.9895,1.9974e-05,0
0.99,1.4099e-05,0
0.9905,1.1749e-05,0
0.991,1.4603e-05,0
0.9915,1.6953e-05,0
0.992,1.796e-05,0
0.9925,1.8128e-05,0
0.993,1.7624e-05,0
0.9935,1.8128e-05,0
0.994,1.7792e-05,0
0.9945,1.6617e-05,0
0.995,1.8296e-05,0
0.9955,2.0646e-05,0
0.996,2.0646e-05,0
0.9965,1.8631e-05,0
0.997,1.8967e-05,0
0.9975,1.947e-05,0
0.998,1.9974e-05,0
0.9985,1.9974e-05,0
0.999,1.8463e-05,0
0.9995,1.6617e-05,0
1,1.7121e-05,0
1.0005,1.796e-05,0
1.001,1.8631e-05,0
1.0015,2.031e-05,0
1.002,2.266e-05,0
1.0025,2.3667e-05,0
1.003,2.2492e-05,0
1.0035,2.266e-05,0
1.004,2.0646e-05,0
1.0045,1.8967e-05,0
1.005,2.0478e-05,0
1.0055,1.9806e-05,0
1.006,1.6785e-05,0
1.0065,1.5778e-05,0
1.007,1.3932e-05,0
1.0075,1.4603e-05,0
1.008,1.6449e-05,0
1.0085,1.6785e-05,0
1.009,1.7624e-05,0
1.0095,1.9135e-05,0
1.01,1.9638e-05,0
1.0105,2.0478e-05,0
1.011,2.0981e-05,0
1.0115,2.1988e-05,0
1.012,2.2324e-05,0
1.0125,1.9303e-05,0
1.013,1.6617e-05,0
1.0135,1.796e-05,0
1.014,1.9974e-05,0
1.0145,2.0142e-05,0
1.015,1.9638e-05,0
1.0155,1.6617e-05,0
1.016,1.4435e-05,0
1.0165,1.7792e-05,0
1.017,2.1988e-05,0
1.0175,2.1988e-05,0
1.018,2.182e-05,0
1.0185,2.2828e-05,0
1.019,2.3331e-05,0
1.0195,2.3835e-05,0
1.02,2.2995e-05,0
1.0205,2.1149e-05,0
1.021,2.031e-05,0
1.0215,2.182e-05,0
1.022,2.2995e-05,0
1.0225,2.3163e-05,0
1.023,2.5849e-05,0
1.0235,2.8367e-05,0
1.024,2.7024e-05,0
1.0245,2.6688e-05,0
1.025,2.3667e-05,0
1.0255,2.0981e-05,0
1.026,1.9974e-05,0
1.0265,1.8296e-05,0
1.027,1.7456e-05,0
1.0275,1.796e-05,0
1.028,1.9303e-05,0
1.0285,1.947e-05,0
1.029,1.8128e-05,0
1.0295,1.8128e-05,0
1.03,1.6449e-05,0
1.0305,1.2589e-05,0
1.031,1.1917e-05,0
1.0315,1.326e-05,0
1.032,1.3932e-05,0
1.0325,1.4939e-05,0
1.033,1.5946e-05,0
1.0335,1.6617e-05,0
1.034,1.7121e-05,0
1.0345,1.7288e-05,0
1.035,1.796e-05,0
1.0355,1.7624e-05,0
1.036,1.6449e-05,0
1.0365,1.6617e-05,0
1.037,1.6953e-05,0
1.0375,1.8296e-05,0
1.038,2.0646e-05,0
1.0385,2.1988e-05,0
1.039,2.0981e-05,0
1.0395,1.947e-05,0
1.04,1.796e-05,0
1.0405,1.5946e-05,0
1.041,1.3932e-05,0
1.0415,1.4603e-05,0
1.042,1.6617e-05,0
1.0425,1.9303e-05,0
1.043,2.0646e-05,0
1.0435,2.0646e-05,0
1.044,2.4674e-05,0
1.0445,2.7024e-05,0
1.045,2.5009e-05,0
1.0455,2.4506e-05,0
1.046,2.182e-05,0
1.0465,2.0646e-05,0
1.047,2.2492e-05,0
1.0475,2.1988e-05,0
1.048,2.1317e-05,0
1.0485,2.182e-05,0
1.049,2.0142e-05,0
1.0495,1.9806e-05,0
1.05,2.1988e-05,0
1.0505,2.4002e-05,0
1.051,2.417e-05,0
1.0515,2.182e-05,0
1.052,2.0646e-05,0
1.0525,2.0646e-05,0
1.053,2.0142e-05,0
1.0535,2.031e-05,0
1.054,2.0981e-05,0
1.0545,2.182e-05,0
1.055,2.0646e-05,0
1.0555,1.9638e-05,0
1.056,1.8296e-05,0
1.0565,1.5274e-05,0
1.057,1.6617e-05,0
1.0575,1.8296e-05,0
1.058,1.6449e-05,0
1.0585,1.5946e-05,0
1.059,1.5106e-05,0
1.0595,1.561e-05,0
1.06,1.796e-05,0
1.0605,1.8967e-05,0
1.061,1.9638e-05,0
1.0615,1.9974e-05,0
1.062,2.0981e-05,0
1.0625,2.031e-05,0
1.063,1.9638e-05,0
1.0635,1.8631e-05,0
1.064,1.7792e-05,0
1.0645,1.5946e-05,0
1.065,1.5274e-05,0
1.0655,1.5946e-05,0
1.066,1.6785e-05,0
1.0665,1.8296e-05,0
1.067,1.8296e-05,0
1.0675,1.6617e-05,0
1.068,1.7288e-05,0
1.0685,2.1149e-05,0
1.069,2.2156e-05,0
1.0695,2.3331e-05,0
1.07,2.5009e-05,0
1.0705,2.4338e-05,0
1.071,2.2156e-05,0
1.0715,2.182e-05,0
1.072,2.266e-05,0
1.0725,2.2828e-05,0
1.073,2.3331e-05,0
1.0735,2.2995e-05,0
1.074,2.031e-05,0
1.0745,1.8631e-05,0
1.075,1.9303e-05,0
1.0755,2.0478e-05,0
1.076,2.182e-05,0
1.0765,2.0646e-05,0
1.077,1.7792e-05,0
1.0775,1.5946e-05,0
1.078,1.7624e-05,0
1.0785,2.031e-05,0
1.079,2.1988e-05,0
1.0795,1.8631e-05,0
1.08,1.6617e-05,0
1.0805,1.8296e-05,0
1.081,2.0478e-05,0
1.0815,2.1988e-05,0
1.082,2.0646e-05,0
1.0825,1.8296e-05,0
1.083,1.796e-05,0
1.0835,1.7121e-05,0
1.084,1.6617e-05,0
1.0845,1.8296e-05,0
1.085,1.8631e-05,0
1.0855,1.6617e-05,0
1.086,1.8631e-05,0
1.0865,2.031e-05,0
1.087,1.9974e-05,0
1.0875,1.9974e-05,0
1.088,1.8463e-05,0
1.0885,1.7121e-05,0
1.089,1.5946e-05,0
1.0895,1.5946e-05,0
1.09,1.8631e-05,0
1.0905,2.1317e-05,0
1.091,2.0646e-05,0
1.0915,1.8296e-05,0
1.092,1.4939e-05,0
1.0925,1.3932e-05,0
1.093,1.6785e-05,0
1.0935,1.8128e-05,0
1.094,1.6785e-05,0
1.0945,1.6617e-05,0
1.095,1.8631e-05,0
1.0955,1.7288e-05,0
1.096,1.4603e-05,0
1.0965,1.3596e-05,0
1.097,1.326e-05,0
1.0975,1.5274e-05,0
1.098,1.5946e-05,0
1.0985,1.4267e-05,0
1.099,1.5106e-05,0
1.0995,1.796e-05,0
1.1,2.1317e-05,0
1.1005,2.4002e-05,0
1.101,2.5009e-05,0
1.1015,2.3331e-05,0
1.102,2.031e-05,0
1.1025,1.8631e-05,0
1.103,2.0813e-05,0
1.1035,2.2156e-05,0
1.104,1.9806e-05,0
1.1045,1.8631e-05,0
1.105,2.0646e-05,0
1.1055,2.266e-05,0
1.106,2.182e-05,0
1.1065,1.8631e-05,0
1.107,1.6617e-05,0
1.1075,1.8967e-05,0
1.108,1.796e-05,0
1.1085,1.561e-05,0
1.109,1.561e-05,0
1.1095,1.8296e-05,0
1.11,1.8296e-05,0
1.1105,1.8631e-05,0
1.111,2.1317e-05,0
1.1115,2.4506e-05,0
1.112,2.6352e-05,0
1.1125,2.5681e-05,0
1.113,2.3331e-05,0
1.1135,2.2492e-05,0
1.114,2.2324e-05,0
1.1145,2.266e-05,0
1.115,2.2156e-05,0
1.1155,2.0646e-05,0
1.116,1.9135e-05,0
1.1165,1.796e-05,0
1.117,2.031e-05,0
1.1175,2.1988e-05,0
1.118,2.0478e-05,0
1.1185,1.7624e-05,0
1.119,1.7121e-05,0
1.1195,1.7288e-05,0
1.12,1.5946e-05,0
1.1205,1.6281e-05,0
1.121,1.7624e-05,0
1.1215,1.7792e-05,0
1.122,1.9303e-05,0
1.1225,2.031e-05,0
1.123,1.9974e-05,0
1.1235,1.9974e-05,0
1.124,1.9135e-05,0
1.1245,1.8631e-05,0
1.125,1.8967e-05,0
1.1255,1.9638e-05,0
1.126,1.8631e-05,0
1.1265,1.7288e-05,0
1.127,1.6617e-05,0
1.1275,1.6617e-05,0
1.128,1.7624e-05,0
1.1285,1.8967e-05,0
1.129,1.9974e-05,0
1.1295,1.9806e-05,0
1.13,2.031e-05,0
1.1305,2.2156e-05,0
1.131,2.3331e-05,0
1.1315,2.182e-05,0
1.132,2.031e-05,0
1.1325,1.7288e-05,0
1.133,1.326e-05,0
1.1335,1.4603e-05,0
1.134,1.6785e-05,0
1.1345,1.6617e-05,0
1.135,1.7288e-05,0
1.1355,1.7624e-05,0
1.136,1.796e-05,0
1.1365,1.9135e-05,0
1.137,1.9806e-05,0
1.1375,1.9974e-05,0
1.138,2.1988e-05,0
1.1385,2.1149e-05,0
1.139,2.031e-05,0
1.1395,1.9638e-05,0
1.14,1.8967e-05,0
1.1405,1.7624e-05,0
1.141,1.796e-05,0
1.1415,2.1317e-05,0
1.142,2.4002e-05,0
1.1425,2.3331e-05,0
1.143,2.031e-05,0
1.1435,1.796e-05,0
1.144,1.7288e-05,0
1.1445,1.6449e-05,0
1.145,1.6449e-05,0
1.1455,1.6617e-05,0
1.146,1.6617e-05,0
1.1465,2.1317e-05,0
1.147,2.5681e-05,0
1.1475,2.4002e-05,0
1.148,1.8967e-05,0
1.1485,1.4603e-05,0
1.149,1.326e-05,0
1.1495,1.7288e-05,0
1.15,1.9974e-05,0
1.1505,1.8631e-05,0
1.151,1.6617e-05,0
1.1515,1.561e-05,0
1.152,1.5778e-05,0
1.1525,1.6953e-05,0
1.153,1.8128e-05,0
1.1535,1.7121e-05,0
1.154,1.5946e-05,0
1.1545,1.4939e-05,0
1.155,1.3932e-05,0
1.1555,1.2589e-05,0
1.156,1.2253e-05,0
1.1565,1.4939e-05,0
1.157,1.8967e-05,0
1.1575,2.031e-05,0
1.158,2.0646e-05,0
1.1585,2.2156e-05,0
1.159,2.0981e-05,0
1.1595,1.796e-05,0
1.16,1.5778e-05,0
1.1605,1.561e-05,0
1.161,1.8128e-05,0
1.1615,2.1149e-05,0
1.162,2.1317e-05,0
1.1625,2.031e-05,0
1.163,1.8296e-05,0
1.1635,1.7624e-05,0
1.164,1.9135e-05,0
1.1645,2.0981e-05,0
1.165,2.266e-05,0
1.1655,2.0981e-05,0
1.166,2.031e-05,0
1.1665,2.3667e-05,0
1.167,2.5345e-05,0
1.1675,2.3163e-05,0
1.168,2.0646e-05,0
1.1685,1.9638e-05,0
1.169,1.9806e-05,0
1.1695,1.7288e-05,0
1.17,1.4267e-05,0
1.1705,1.4603e-05,0
1.171,1.8296e-05,0
1.1715,1.9638e-05,0
1.172,1.9303e-05,0
1.1725,2.0646e-05,0
1.173,2.182e-05,0
1.1735,2.1988e-05,0
1.174,2.1653e-05,0
1.1745,1.9303e-05,0
1.175,1.5946e-05,0
1.1755,1.6617e-05,0
1.176,1.8631e-05,0
1.1765,2.031e-05,0
1.177,2.3331e-05,0
1.1775,2.4002e-05,0
1.178,2.2492e-05,0
1.1785,2.1317e-05,0
1.179,2.266e-05,0
1.1795,2.4506e-05,0
1.18,2.3163e-05,0
1.1805,2.2324e-05,0
1.181,2.3835e-05,0
1.1815,2.6352e-05,0
1.182,2.5345e-05,0
1.1825,2.1653e-05,0
1.183,1.7792e-05,0
1.1835,1.5946e-05,0
1.184,1.7288e-05,0
1.1845,1.8631e-05,0
1.185,1.796e-05,0
1.1855,1.7288e-05,0
1.186,1.6953e-05,0
1.1865,1.8631e-05,0
1.187,2.2828e-05,0
1.1875,2.4338e-05,0
1.188,2.0646e-05,0
1.1885,1.6281e-05,0
1.189,1.5274e-05,0
1.1895,1.7792e-05,0
1.19,2.0813e-05,0
1.1905,2.3667e-05,0
1.191,2.266e-05,0
1.1915,1.9974e-05,0
1.192,1.8296e-05,0
1.1925,1.6617e-05,0
1.193,1.5946e-05,0
1.1935,1.6953e-05,0
1.194,1.6449e-05,0
1.1945,1.5946e-05,0
1.195,1.6281e-05,0
1.1955,1.8463e-05,0
1.196,1.796e-05,0
1.1965,1.6281e-05,0
1.197,1.7288e-05,0
1.1975,1.9638e-05,0
1.198,2.031e-05,0
1.1985,1.8967e-05,0
1.199,1.8296e-05,0
1.1995,1.8128e-05,0
1.2,1.8631e-05,0
1.2005,1.9974e-05,0
1.201,1.9135e-05,0
1.2015,1.8296e-05,0
1.202,1.796e-05,0
1.2025,1.6953e-05,0
1.203,1.7624e-05,0
1.2035,1.8631e-05,0
1.204,1.9303e-05,0
1.2045,1.8128e-05,0
1.205,1.4603e-05,0
1.2055,1.326e-05,0
1.206,1.4939e-05,0
1.2065,1.796e-05,0
1.207,1.9974e-05,0
1.2075,1.9303e-05,0
1.208,1.796e-05,0
1.2085,1.8296e-05,0
1.209,1.9135e-05,0
1.2095,2.182e-05,0
1.21,2.4506e-05,0
1.2105,2.4338e-05,0
1.211,2.0813e-05,0
1.2115,1.7121e-05,0
1.212,1.5442e-05,0
1.2125,1.561e-05,0
1.213,1.7624e-05,0
1.2135,1.8967e-05,0
1.214,1.9303e-05,0
1.2145,1.9303e-05,0
1.215,1.6953e-05,0
1.2155,1.5106e-05,0
1.216,1.7121e-05,0
1.2165,1.9806e-05,0
1.217,2.2324e-05,0
1.2175,2.4674e-05,0
1.218,2.4002e-05,0
1.2185,2.2156e-05,0
1.219,2.1149e-05,0
1.2195,1.9974e-05,0
1.22,1.8631e-05,0
1.2205,1.9638e-05,0
1.221,2.0813e-05,0
1.2215,2.031e-05,0
1.222,1.8799e-05,0
1.2225,1.796e-05,0
1.223,1.796e-05,0
1.2235,1.796e-05,0
1.224,1.7288e-05,0
1.2245,1.796e-05,0
1.225,1.7288e-05,0
1.2255,1.4939e-05,0
1.226,1.4267e-05,0
1.2265,1.5106e-05,0
1.227,1.5106e-05,0
1.2275,1.561e-05,0
1.228,1.6785e-05,0
1.2285,1.9974e-05,0
1.229,2.3163e-05,0
1.2295,2.2995e-05,0
1.23,2.1988e-05,0
1.2305,2.1149e-05,0
1.231,2.1149e-05,0
1.2315,2.2156e-05,0
1.232,2.2995e-05,0
1.2325,2.3163e-05,0
1.233,2.1988e-05,0
1.2335,2.0981e-05,0
1.234,1.9974e-05,0
1.2345,1.9638e-05,0
1.235,2.0142e-05,0
1.2355,2.0478e-05,0
1.236,2.1317e-05,0
1.2365,2.1317e-05,0
1.237,2.0981e-05,0
1.2375,2.1988e-05,0
1.238,2.1988e-05,0
1.2385,2.031e-05,0
1.239,2.0813e-05,0
1.2395,2.0646e-05,0
1.24,1.796e-05,0
1.2405,1.7456e-05,0
1.241,1.8967e-05,0
1.2415,1.9974e-05,0
1.242,2.1988e-05,0
1.2425,2.2995e-05,0
1.243,2.2995e-05,0
1.2435,2.2995e-05,0
1.244,2.3499e-05,0
1.2445,2.3499e-05,0
1.245,2.3331e-05,0
1.2455,2.4002e-05,0
1.246,2.3163e-05,0
1.2465,2.2995e-05,0
1.247,2.4002e-05,0
1.2475,2.5681e-05,0
1.248,2.6688e-05,0
1.2485,2.5009e-05,0
1.249,2.3163e-05,0
1.2495,2.182e-05,0
1.25,2.1988e-05,0
1.2505,2.0981e-05,0
1.251,1.8631e-05,0
1.2515,1.7792e-05,0
1.252,1.8463e-05,0
1.2525,1.8463e-05,0
1.253,1.6953e-05,0
1.2535,1.6449e-05,0
1.254,1.3764e-05,0
1.2545,1.2924e-05,0
1.255,1.4435e-05,0
1.2555,1.5106e-05,0
1.256,1.4603e-05,0
1.2565,1.3932e-05,0
1.257,1.3764e-05,0
1.2575,1.3092e-05,0
1.258,1.3596e-05,0
1.2585,1.5442e-05,0
1.259,1.7624e-05,0
1.2595,1.8631e-05,0
1.26,1.5946e-05,0
1.2605,1.3596e-05,0
1.261,1.5946e-05,0
1.2615,1.8631e-05,0
1.262,1.8463e-05,0
1.2625,1.9303e-05,0
1.263,1.9974e-05,0
1.2635,2.0646e-05,0
1.264,1.8631e-05,0
1.2645,1.4603e-05,0
1.265,1.5106e-05,0
1.2655,1.7624e-05,0
1.266,1.7288e-05,0
1.2665,1.5946e-05,0
1.267,1.7288e-05,0
1.2675,1.8967e-05,0
1.268,2.0646e-05,0
1.2685,2.1317e-05,0
1.269,2.0646e-05,0
1.2695,1.9806e-05,0
1.27,1.9974e-05,0
1.2705,2.0981e-05,0
1.271,1.9303e-05,0
1.2715,1.796e-05,0
1.272,1.8631e-05,0
1.2725,2.031e-05,0
1.273,2.266e-05,0
1.2735,2.3667e-05,0
1.274,2.3331e-05,0
1.2745,2.3499e-05,0
1.275,2.4002e-05,0
1.2755,2.3667e-05,0
1.276,2.2995e-05,0
1.2765,2.3667e-05,0
1.277,2.2492e-05,0
1.2775,2.0646e-05,0
1.278,1.9638e-05,0
1.2785,1.8631e-05,0
1.279,1.8967e-05,0
1.2795,1.9303e-05,0
1.28,1.8463e-05,0
1.2805,1.6953e-05,0
1.281,1.8128e-05,0
1.2815,1.9806e-05,0
1.282,1.9806e-05,0
1.2825,1.796e-05,0
1.283,1.7624e-05,0
1.2835,1.8128e-05,0
1.284,1.9135e-05,0
1.2845,1.8463e-05,0
1.285,1.8296e-05,0
1.2855,1.5946e-05,0
1.286,1.4771e-05,0
1.2865,1.3764e-05,0
1.287,1.326e-05,0
1.2875,1.326e-05,0
1.288,1.3596e-05,0
1.2885,1.2924e-05,0
1.289,1.0575e-05,0
1.2895,1.2589e-05,0
1.29,1.5442e-05,0
1.2905,1.5778e-05,0
1.291,1.796e-05,0
1.2915,2.0981e-05,0
1.292,2.1317e-05,0
1.2925,1.7288e-05,0
1.293,1.2589e-05,0
1.2935,1.4603e-05,0
1.294,2.0646e-05,0
1.2945,2.1653e-05,0
1.295,1.8631e-05,0
1.2955,1.7624e-05,0
1.296,1.9974e-05,0
1.2965,2.2324e-05,0
1.297,1.8967e-05,0
1.2975,1.4603e-05,0
1.298,1.4267e-05,0
1.2985,1.5442e-05,0
1.299,1.5274e-05,0
1.2995,1.5946e-05,0
1.3,1.5778e-05,0
1.3005,1.561e-05,0
1.301,1.5106e-05,0
1.3015,1.4435e-05,0
1.302,1.4435e-05,0
1.3025,1.6617e-05,0
1.303,1.796e-05,0
1.3035,1.7288e-05,0
1.304,1.9303e-05,0
1.3045,2.1317e-05,0
1.305,1.8296e-05,0
1.3055,1.4267e-05,0
1.306,1.3932e-05,0
1.3065,1.9303e-05,0
1.307,2.5681e-05,0
1.3075,2.8367e-05,0
1.308,2.8031e-05,0
1.3085,2.6688e-05,0
1.309,2.6352e-05,0
1.3095,2.4002e-05,0
1.31,2.266e-05,0
1.3105,2.3835e-05,0
1.311,2.2324e-05,0
1.3115,2.1317e-05,0
1.312,2.1317e-05,0
1.3125,2.1149e-05,0
1.313,2.1317e-05,0
1.3135,2.1317e-05,0
1.314,2.031e-05,0
1.3145,2.031e-05,0
1.315,1.8631e-05,0
1.3155,1.6953e-05,0
1.316,1.6449e-05,0
1.3165,1.7288e-05,0
1.317,1.8463e-05,0
1.3175,1.8631e-05,0
1.318,1.8296e-05,0
1.3185,1.8296e-05,0
1.319,1.7288e-05,0
1.3195,1.6617e-05,0
1.32,1.8799e-05,0
1.3205,2.0142e-05,0
1.321,1.8296e-05,0
1.3215,1.7624e-05,0
1.322,1.8631e-05,0
1.3225,1.8967e-05,0
1.323,1.9974e-05,0
1.3235,2.1149e-05,0
1.324,1.9638e-05,0
1.3245,1.6281e-05,0
1.325,1.7624e-05,0
1.3255,1.9638e-05,0
1.326,1.9974e-05,0
1.3265,2.0142e-05,0
1.327,2.1653e-05,0
1.3275,2.2324e-05,0
1.328,2.031e-05,0
1.3285,2.031e-05,0
1.329,1.8967e-05,0
1.3295,1.6281e-05,0
1.33,1.8128e-05,0
1.3305,2.1317e-05,0
1.331,2.182e-05,0
1.3315,1.9974e-05,0
1.332,1.8967e-05,0
1.3325,2.2324e-05,0
1.333,2.4842e-05,0
1.3335,2.5849e-05,0
1.334,2.5345e-05,0
1.3345,2.2995e-05,0
1.335,2.266e-05,0
1.3355,2.2828e-05,0
1.336,2.266e-05,0
1.3365,2.3163e-05,0
1.337,2.3667e-05,0
1.3375,2.5009e-05,0
1.338,2.6352e-05,0
1.3385,2.7024e-05,0
1.339,2.652e-05,0
1.3395,2.5513e-05,0
1.34,2.3667e-05,0
1.3405,2.0981e-05,0
1.341,1.9303e-05,0
1.3415,1.9974e-05,0
1.342,1.796e-05,0
1.3425,1.4603e-05,0
1.343,1.4939e-05,0
1.3435,1.7288e-05,0
1.344,1.6617e-05,0
1.3445,1.4603e-05,0
1.345,1.3092e-05,0
1.3455,1.4099e-05,0
1.346,1.8631e-05,0
1.3465,1.9974e-05,0
1.347,1.7288e-05,0
1.3475,1.5274e-05,0
1.348,1.6281e-05,0
1.3485,1.5946e-05,0
1.349,1.5274e-05,0
1.3495,1.5274e-05,0
1.35,1.561e-05,0
1.3505,1.796e-05,0
1.351,1.8128e-05,0
1.3515,1.6617e-05,0
1.352,1.8296e-05,0
1.3525,2.1317e-05,0
1.353,2.266e-05,0
1.3535,2.1317e-05,0
1.354,1.9135e-05,0
1.3545,1.9135e-05,0
1.355,1.9303e-05,0
1.3555,1.9303e-05,0
1.356,1.8631e-05,0
1.3565,1.5778e-05,0
1.357,1.4603e-05,0
1.3575,1.6617e-05,0
1.358,1.7288e-05,0
1.3585,1.7121e-05,0
1.359,1.796e-05,0
1.3595,1.9303e-05,0
1.36,1.8967e-05,0
1.3605,1.7288e-05,0
1.361,1.6617e-05,0
1.3615,1.8631e-05,0
1.362,1.9974e-05,0
1.3625,1.8631e-05,0
1.363,1.9303e-05,0
1.3635,1.9303e-05,0
1.364,1.8296e-05,0
1.3645,1.796e-05,0
1.365,1.7288e-05,0
1.3655,1.7624e-05,0
1.366,1.8631e-05,0
1.3665,1.947e-05,0
1.367,1.9303e-05,0
1.3675,1.9135e-05,0
1.368,1.7121e-05,0
1.3685,1.7456e-05,0
1.369,1.8967e-05,0
1.3695,1.7456e-05,0
1.37,1.5946e-05,0
1.3705,1.6785e-05,0
1.371,1.6617e-05,0
1.3715,1.561e-05,0
1.372,1.6617e-05,0
1.3725,1.6785e-05,0
1.373,1.5946e-05,0
1.3735,1.3092e-05,0
1.374,1.1582e-05,0
1.3745,1.2924e-05,0
1.375,1.5778e-05,0
1.3755,2.031e-05,0
1.376,2.2156e-05,0
1.3765,1.9303e-05,0
1.377,1.7288e-05,0
1.3775,1.7624e-05,0
1.378,1.8296e-05,0
1.3785,1.6281e-05,0
1.379,1.4939e-05,0
1.3795,1.5946e-05,0
1.38,1.8631e-05,0
1.3805,1.9806e-05,0
1.381,1.8967e-05,0
1.3815,1.9135e-05,0
1.382,2.1653e-05,0
1.3825,2.3499e-05,0
1.383,2.417e-05,0
1.3835,2.4506e-05,0
1.384,2.3331e-05,0
1.3845,2.3667e-05,0
1.385,2.6017e-05,0
1.3855,2.7863e-05,0
1.386,2.7695e-05,0
1.3865,2.5345e-05,0
1.387,2.3163e-05,0
1.3875,2.266e-05,0
1.388,2.3835e-05,0
1.3885,2.6688e-05,0
1.389,2.7024e-05,0
1.3895,2.3163e-05,0
1.39,2.1317e-05,0
1.3905,2.3667e-05,0
1.391,2.5681e-05,0
1.3915,2.2492e-05,0
1.392,2.0646e-05,0
1.3925,2.1317e-05,0
1.393,2.0646e-05,0
1.3935,1.9974e-05,0
1.394,1.6281e-05,0
1.3945,1.2253e-05,0
1.395,1.2421e-05,0
1.3955,1.5946e-05,0
1.396,1.7624e-05,0
1.3965,1.796e-05,0
1.397,1.8128e-05,0
1.3975,1.7121e-05,0
1.398,1.5946e-05,0
1.3985,1.5442e-05,0
1.399,1.5946e-05,0
1.3995,1.7288e-05,0
1.4,1.5946e-05,0
1.4005,1.4435e-05,0
1.401,1.5946e-05,0
1.4015,1.796e-05,0
1.402,1.7121e-05,0
1.4025,1.7288e-05,0
1.403,1.796e-05,0
1.4035,1.7288e-05,0
1.404,1.5274e-05,0
1.4045,1.4435e-05,0
1.405,1.8296e-05,0
1.4055,2.031e-05,0
1.406,1.6617e-05,0
1.4065,1.2924e-05,0
1.407,1.1917e-05,0
1.4075,1.1414e-05,0
1.408,1.2924e-05,0
1.4085,1.1749e-05,0
1.409,1.0239e-05,0
1.4095,1.2757e-05,0
1.41,1.6281e-05,0
1.4105,2.0646e-05,0
1.411,2.4842e-05,0
1.4115,2.4674e-05,0
1.412,2.2492e-05,0
1.4125,2.266e-05,0
1.413,2.4002e-05,0
1.4135,2.2995e-05,0
1.414,2.031e-05,0
1.4145,1.9135e-05,0
1.415,2.0981e-05,0
1.4155,2.3163e-05,0
1.416,2.5681e-05,0
1.4165,2.6017e-05,0
1.417,2.4506e-05,0
1.4175,2.4506e-05,0
1.418,2.5009e-05,0
1.4185,2.266e-05,0
1.419,2.1653e-05,0
1.4195,2.1317e-05,0
1.42,2.0478e-05,0
1.4205,2.1317e-05,0
1.421,2.2156e-05,0
1.4215,2.0981e-05,0
1.422,2.0813e-05,0
1.4225,1.9974e-05,0
1.423,1.8296e-05,0
1.4235,1.7288e-05,0
1.424,2.0478e-05,0
1.4245,2.3835e-05,0
1.425,2.4842e-05,0
1.4255,2.5009e-05,0
1.426,2.4338e-05,0
1.4265,2.266e-05,0
1.427,1.8631e-05,0
1.4275,1.326e-05,0
1.428,1.1078e-05,0
1.4285,1.3932e-05,0
1.429,1.6281e-05,0
1.4295,1.8967e-05,0
1.43,1.8967e-05,0
1.4305,1.7624e-05,0
1.431,1.796e-05,0
1.4315,2.031e-05,0
1.432,2.1317e-05,0
1.4325,2.266e-05,0
1.433,2.1149e-05,0
1.4335,1.9638e-05,0
1.434,1.8631e-05,0
1.4345,1.7792e-05,0
1.435,1.8967e-05,0
1.4355,1.9974e-05,0
1.436,1.7121e-05,0
1.4365,1.4939e-05,0
1.437,1.5946e-05,0
1.4375,1.5274e-05,0
1.438,1.2421e-05,0
1.4385,1.1749e-05,0
1.439,1.4267e-05,0
1.4395,1.7288e-05,0
1.44,1.8631e-05,0
1.4405,1.9303e-05,0
1.441,2.2324e-05,0
1.4415,2.2324e-05,0
1.442,1.9638e-05,0
1.4425,1.8631e-05,0
1.443,1.8296e-05,0
1.4435,1.6617e-05,0
1.444,1.6114e-05,0
1.4445,1.9303e-05,0
1.445,2.1317e-05,0
1.4455,2.1317e-05,0
1.446,1.8967e-05,0
1.4465,1.7624e-05,0
1.447,1.7624e-05,0
1.4475,1.6785e-05,0
1.448,1.5106e-05,0
1.4485,1.6617e-05,0
1.449,1.6953e-05,0
1.4495,1.5778e-05,0
1.45,1.5946e-05,0
1.4505,1.7624e-05,0
1.451,1.9303e-05,0
1.4515,2.031e-05,0
1.452,2.0981e-05,0
1.4525,2.2156e-05,0
1.453,2.2324e-05,0
1.4535,2.2156e-05,0
1.454,2.0646e-05,0
1.4545,1.796e-05,0
1.455,1.8631e-05,0
1.4555,2.0478e-05,0
1.456,2.1317e-05,0
1.4565,2.2492e-05,0
1.457,2.1988e-05,0
1.4575,2.1653e-05,0
1.458,2.0646e-05,0
1.4585,2.031e-05,0
1.459,1.7288e-05,0
1.4595,1.6281e-05,0
1.46,1.8631e-05,0
1.4605,1.9303e-05,0
1.461,1.7121e-05,0
1.4615,1.5274e-05,0
1.462,1.5778e-05,0
1.4625,1.8631e-05,0
1.463,2.1988e-05,0
1.4635,2.3331e-05,0
1.464,2.2995e-05,0
1.4645,2.3163e-05,0
1.465,2.3499e-05,0
1.4655,2.3331e-05,0
1.466,2.1988e-05,0
1.4665,2.031e-05,0
1.467,1.9303e-05,0
1.4675,1.7624e-05,0
1.468,1.796e-05,0
1.4685,1.8463e-05,0
1.469,1.796e-05,0
1.4695,1.9135e-05,0
1.47,1.9806e-05,0
1.4705,1.6785e-05,0
1.471,1.3932e-05,0
1.4715,1.5946e-05,0
1.472,1.9974e-05,0
1.4725,2.031e-05,0
1.473,1.6617e-05,0
1.4735,1.4939e-05,0
1.474,1.6617e-05,0
1.4745,1.9974e-05,0
1.475,2.1653e-05,0
1.4755,1.9974e-05,0
1.476,1.9135e-05,0
1.4765,2.1317e-05,0
1.477,2.6017e-05,0
1.4775,2.8031e-05,0
1.478,2.6017e-05,0
1.4785,2.4338e-05,0
1.479,2.3331e-05,0
1.4795,2.031e-05,0
1.48,1.9135e-05,0
1.4805,2.0646e-05,0
1.481,2.2324e-05,0
1.4815,2.1988e-05,0
1.482,2.0981e-05,0
1.4825,2.1988e-05,0
1.483,2.266e-05,0
1.4835,1.9638e-05,0
1.484,1.5946e-05,0
1.4845,1.6617e-05,0
1.485,1.8967e-05,0
1.4855,1.8967e-05,0
1.486,1.7288e-05,0
1.4865,1.3932e-05,0
1.487,1.1917e-05,0
1.4875,1.5778e-05,0
1.488,2.0646e-05,0
1.4885,2.3331e-05,0
1.489,2.1317e-05,0
1.4895,1.8631e-05,0
1.49,1.8967e-05,0
1.4905,1.8799e-05,0
1.491,1.6953e-05,0
1.4915,1.4939e-05,0
1.492,1.4939e-05,0
1.4925,1.6617e-05,0
1.493,1.7792e-05,0
1.4935,1.6953e-05,0
1.494,1.7288e-05,0
1.4945,1.8463e-05,0
1.495,1.8296e-05,0
1.4955,1.8967e-05,0
1.496,1.9974e-05,0
1.4965,2.031e-05,0
1.497,1.9303e-05,0
1.4975,1.9638e-05,0
1.498,2.0646e-05,0
1.4985,1.8967e-05,0
1.499,1.7288e-05,0
1.4995,1.8296e-05,0
1.5,2.0646e-05,0
1.5005,2.1317e-05,0
1.501,1.8631e-05,0
1.5015,1.6617e-05,0
1.502,1.9638e-05,0
1.5025,2.3331e-05,0
1.503,2.4338e-05,0
1.5035,2.266e-05,0
1.504,2.1317e-05,0
1.5045,2.1988e-05,0
1.505,2.1653e-05,0
1.5055,1.8967e-05,0
1.506,1.6953e-05,0
1.5065,1.5946e-05,0
1.507,1.561e-05,0
1.5075,1.6281e-05,0
1.508,1.6617e-05,0
1.5085,1.6449e-05,0
1.509,1.7288e-05,0
1.5095,1.6617e-05,0
1.51,1.3092e-05,0
1.5105,1.1749e-05,0
1.511,1.0575e-05,0
1.5115,1.2589e-05,0
1.512,1.6449e-05,0
1.5125,1.7288e-05,0
1.513,1.7288e-05,0
1.5135,1.8463e-05,0
1.514,1.8463e-05,0
1.5145,1.8296e-05,0
1.515,1.947e-05,0
1.5155,2.0646e-05,0
1.516,2.1317e-05,0
1.5165,2.1988e-05,0
1.517,2.0813e-05,0
1.5175,2.031e-05,0
1.518,2.0646e-05,0
1.5185,2.0478e-05,0
1.519,2.1317e-05,0
1.5195,2.4674e-05,0
1.52,2.7359e-05,0
1.5205,2.7695e-05,0
1.521,2.5513e-05,0
1.5215,2.2995e-05,0
1.522,2.1988e-05,0
1.5225,2.0142e-05,0
1.523,1.6785e-05,0
1.5235,1.8296e-05,0
1.524,1.9806e-05,0
1.5245,1.8296e-05,0
1.525,1.8631e-05,0
1.5255,2.0981e-05,0
1.526,2.1988e-05,0
1.5265,2.266e-05,0
1.527,2.3667e-05,0
1.5275,2.1653e-05,0
1.528,2.0646e-05,0
1.5285,2.1988e-05,0
1.529,2.4338e-05,0
1.5295,2.4338e-05,0
1.53,2.2492e-05,0
1.5305,2.0142e-05,0
1.531,1.6953e-05,0
1.5315,1.4435e-05,0
1.532,1.3092e-05,0
1.5325,1.4435e-05,0
1.533,1.6617e-05,0
1.5335,1.7624e-05,0
1.534,1.6953e-05,0
1.5345,1.561e-05,0
1.535,1.4267e-05,0
1.5355,1.326e-05,0
1.536,1.3428e-05,0
1.5365,1.4603e-05,0
1.537,1.5946e-05,0
1.5375,1.8128e-05,0
1.538,1.9303e-05,0
1.5385,1.6449e-05,0
1.539,1.4435e-05,0
1.5395,1.5946e-05,0
1.54,1.561e-05,0
1.5405,1.4267e-05,0
1.541,1.4603e-05,0
1.5415,1.6953e-05,0
1.542,1.8631e-05,0
1.5425,1.8799e-05,0
1.543,1.8128e-05,0
1.5435,1.8631e-05,0
1.544,2.0646e-05,0
1.5445,2.2324e-05,0
1.545,2.2156e-05,0
1.5455,1.947e-05,0
1.546,1.8967e-05,0
1.5465,2.0981e-05,0
1.547,2.031e-05,0
1.5475,1.7792e-05,0
1.548,1.5274e-05,0
1.5485,1.3596e-05,0
1.549,1.5442e-05,0
1.5495,1.9638e-05,0
1.55,2.1317e-05,0
1.5505,2.031e-05,0
1.551,1.9303e-05,0
1.5515,1.7121e-05,0
1.552,1.3932e-05,0
1.5525,1.3932e-05,0
1.553,1.6785e-05,0
1.5535,1.9303e-05,0
1.554,2.1317e-05,0
1.5545,2.1317e-05,0
1.555,2.0142e-05,0
1.5555,2.1653e-05,0
1.556,2.3667e-05,0
1.5565,2.3499e-05,0
1.557,2.2492e-05,0
1.5575,2.1988e-05,0
1.558,2.0646e-05,0
1.5585,1.9974e-05,0
1.559,2.182e-05,0
1.5595,2.2324e-05,0
1.56,2.0981e-05,0
1.5605,1.9638e-05,0
1.561,1.7288e-05,0
1.5615,1.7121e-05,0
1.562,1.7288e-05,0
1.5625,1.9135e-05,0
1.563,1.9806e-05,0
1.5635,1.9638e-05,0
1.564,1.9638e-05,0
1.5645,1.8631e-05,0
1.565,1.7288e-05,0
1.5655,1.8128e-05,0
1.566,2.031e-05,0
1.5665,2.031e-05,0
1.567,1.9974e-05,0
1.5675,1.8631e-05,0
1.568,1.8463e-05,0
1.5685,1.9974e-05,0
1.569,2.0478e-05,0
1.5695,1.9135e-05,0
1.57,1.8296e-05,0
1.5705,1.7288e-05,0
1.571,1.7288e-05,0
1.5715,1.8631e-05,0
1.572,1.9303e-05,0
1.5725,1.9135e-05,0
1.573,1.7288e-05,0
1.5735,1.6617e-05,0
1.574,1.6953e-05,0
1.5745,1.5946e-05,0
1.575,1.4603e-05,0
1.5755,1.6953e-05,0
1.576,2.031e-05,0
1.5765,2.1149e-05,0
1.577,2.1988e-05,0
1.5775,2.1317e-05,0
1.578,2.1317e-05,0
1.5785,2.3667e-05,0
1.579,2.5345e-05,0
1.5795,2.5345e-05,0
1.58,2.4002e-05,0
1.5805,2.266e-05,0
1.581,2.4674e-05,0
1.5815,2.887e-05,0
1.582,2.9374e-05,0
1.5825,2.6688e-05,0
1.583,2.4674e-05,0
1.5835,2.3667e-05,0
1.584,2.4002e-05,0
1.5845,2.3331e-05,0
1.585,2.2828e-05,0
1.5855,2.266e-05,0
1.586,2.0813e-05,0
1.5865,2.0981e-05,0
1.587,2.2995e-05,0
1.5875,2.3667e-05,0
1.588,2.182e-05,0
1.5885,2.2324e-05,0
1.589,2.266e-05,0
1.5895,1.9806e-05,0
1.59,1.6617e-05,0
1.5905,1.6281e-05,0
1.591,1.796e-05,0
1.5915,1.9974e-05,0
1.592,2.182e-05,0
1.5925,2.2995e-05,0
1.593,2.3667e-05,0
1.5935,2.1317e-05,0
1.594,1.7288e-05,0
1.5945,1.5106e-05,0
1.595,1.5274e-05,0
1.5955,1.6449e-05,0
1.596,1.7792e-05,0
1.5965,1.7288e-05,0
1.597,1.8128e-05,0
1.5975,1.9806e-05,0
1.598,1.947e-05,0
1.5985,1.8631e-05,0
1.599,1.9974e-05,0
1.5995,2.1149e-05,0
1.6,2.0142e-05,0
1.6005,1.7288e-05,0
1.601,1.4267e-05,0
1.6015,1.3932e-05,0
1.602,1.1582e-05,0
1.6025,7.8889e-06,0
1.603,9.3996e-06,0
1.6035,1.3596e-05,0
1.604,1.561e-05,0
1.6045,1.6281e-05,0
1.605,1.4939e-05,0
1.6055,1.5274e-05,0
1.606,1.7288e-05,0
1.6065,1.6281e-05,0
1.607,1.2589e-05,0
1.6075,9.7353e-06,0
1.608,1.0575e-05,0
1.6085,1.4435e-05,0
1.609,1.6449e-05,0
1.6095,1.7288e-05,0
1.61,1.8463e-05,0
1.6105,1.9135e-05,0
1.611,1.9303e-05,0
1.6115,2.031e-05,0
1.612,2.3667e-05,0
1.6125,2.5009e-05,0
1.613,2.2156e-05,0
1.6135,1.9638e-05,0
1.614,1.8631e-05,0
1.6145,1.8631e-05,0
1.615,1.8967e-05,0
1.6155,1.7624e-05,0
1.616,1.7624e-05,0
1.6165,1.6785e-05,0
1.617,1.7121e-05,0
1.6175,2.182e-05,0
1.618,2.4506e-05,0
1.6185,2.2324e-05,0
1.619,2.0646e-05,0
1.6195,2.1317e-05,0
1.62,2.2324e-05,0
1.6205,2.1653e-05,0
1.621,1.9974e-05,0
1.6215,1.9806e-05,0
1.622,1.9974e-05,0
1.6225,2.0981e-05,0
1.623,2.2156e-05,0
1.6235,2.1317e-05,0
1.624,1.8631e-05,0
1.6245,1.6785e-05,0
1.625,1.7288e-05,0
1.6255,1.7792e-05,0
1.626,1.7288e-05,0
1.6265,1.6617e-05,0
1.627,1.5778e-05,0
1.6275,1.6953e-05,0
1.628,1.6617e-05,0
1.6285,1.4771e-05,0
1.629,1.3932e-05,0
1.6295,1.2757e-05,0
1.63,1.326e-05,0
1.6305,1.8296e-05,0
1.631,2.1317e-05,0
1.6315,2.0981e-05,0
1.632,1.9974e-05,0
1.6325,2.0646e-05,0
1.633,1.7624e-05,0
1.6335,1.4267e-05,0
1.634,1.7624e-05,0
1.6345,2.0981e-05,0
1.635,1.9974e-05,0
1.6355,1.796e-05,0
1.636,1.3932e-05,0
1.6365,1.1917e-05,0
1.637,1.3764e-05,0
1.6375,1.7121e-05,0
1.638,1.9135e-05,0
1.6385,1.8631e-05,0
1.639,1.7288e-05,0
1.6395,1.7624e-05,0
1.64,1.8128e-05,0
1.6405,1.8296e-05,0
1.641,1.7624e-05,0
1.6415,1.8631e-05,0
1.642,2.182e-05,0
1.6425,2.2995e-05,0
1.643,2.3331e-05,0
1.6435,2.4002e-05,0
1.644,2.4002e-05,0
1.6445,2.0981e-05,0
1.645,1.8631e-05,0
1.6455,2.0478e-05,0
1.646,2.182e-05,0
1.6465,1.9806e-05,0
1.647,1.796e-05,0
1.6475,1.9974e-05,0
1.648,2.0646e-05,0
1.6485,1.9638e-05,0
1.649,1.6281e-05,0
1.6495,1.4435e-05,0
1.65,1.5946e-05,0
1.6505,1.947e-05,0
1.651,2.0981e-05,0
1.6515,2.4002e-05,0
1.652,2.7024e-05,0
1.6525,2.3331e-05,0
1.653,1.6953e-05,0
1.6535,1.5106e-05,0
1.654,1.7624e-05,0
1.6545,1.8463e-05,0
1.655,1.7288e-05,0
1.6555,1.3932e-05,0
1.656,1.1917e-05,0
1.6565,1.4603e-05,0
1.657,1.8631e-05,0
1.6575,2.1988e-05,0
1.658,2.4338e-05,0
1.6585,2.3163e-05,0
1.659,2.266e-05,0
1.6595,2.4002e-05,0
1.66,2.5849e-05,0
1.6605,2.7359e-05,0
1.661,2.8367e-05,0
1.6615,2.8702e-05,0
1.662,2.9374e-05,0
1.6625,3.1556e-05,0
1.663,3.2563e-05,0
1.6635,3.2059e-05,0
1.664,3.2059e-05,0
1.6645,3.2731e-05,0
1.665,3.1891e-05,0
1.6655,3.0045e-05,0
1.666,2.9374e-05,0
1.6665,3.1556e-05,0
1.667,3.0716e-05,0
1.6675,2.6688e-05,0
1.668,2.2492e-05,0
1.6685,1.6953e-05,0
1.669,1.1582e-05,0
1.6695,8.2246e-06,0
1.67,5.539e-06,0
1.6705,5.0355e-06,0
1.671,5.7069e-06,0
1.6715,5.2033e-06,0
1.672,4.1962e-06,0
1.6725,2.182e-06,0
1.673,3.5248e-06,0
1.6735,6.8818e-06,0
1.674,9.9031e-06,0
1.6745,1.2253e-05,0
1.675,1.4267e-05,0
1.6755,1.4267e-05,0
1.676,1.4939e-05,0
1.6765,1.6449e-05,0
1.677,1.6785e-05,0
1.6775,1.561e-05,0
1.678,1.5442e-05,0
1.6785,1.4435e-05,0
1.679,1.2589e-05,0
1.6795,1.3092e-05,0
1.68,1.4603e-05,0
1.6805,1.4267e-05,0
1.681,1.4603e-05,0
1.6815,1.6449e-05,0
1.682,2.1149e-05,0
1.6825,2.8702e-05,0
1.683,3.3402e-05,0
1.6835,3.4073e-05,0
1.684,3.4409e-05,0
1.6845,3.1724e-05,0
1.685,2.5681e-05,0
1.6855,1.9303e-05,0
1.686,1.8463e-05,0
1.6865,2.1149e-05,0
1.687,2.3667e-05,0
1.6875,2.4674e-05,0
1.688,2.6017e-05,0
1.6885,2.6688e-05,0
1.689,2.7192e-05,0
1.6895,2.5009e-05,0
1.69,2.0813e-05,0
1.6905,1.6617e-05,0
1.691,1.4603e-05,0
1.6915,9.2317e-06,0
1.692,5.035e-07,0
1.6925,-5.539e-06,0
1.693,-7.8889e-06,0
1.6935,-6.714e-06,0
1.694,-5.035e-07,0
1.6945,6.8818e-06,0
1.695,8.2246e-06,0
1.6955,6.2104e-06,0
1.696,5.8747e-06,0
1.6965,8.2246e-06,0
1.697,1.4267e-05,0
1.6975,1.9974e-05,0
1.698,2.5009e-05,0
1.6985,3.0381e-05,0
1.699,3.4577e-05,0
1.6995,3.7262e-05,0
1.7,3.8437e-05,0
1.7005,3.8773e-05,0
1.701,3.7262e-05,0
1.7015,3.2059e-05,0
1.702,2.8367e-05,0
1.7025,2.6017e-05,0
1.703,2.3331e-05,0
1.7035,2.0646e-05,0
1.704,2.1149e-05,0
1.7045,2.266e-05,0
1.705,2.1317e-05,0
1.7055,2.0646e-05,0
1.706,2.0981e-05,0
1.7065,2.1317e-05,0
1.707,2.2492e-05,0
1.7075,2.2828e-05,0
1.708,2.2828e-05,0
1.7085,2.4674e-05,0
1.709,2.4002e-05,0
1.7095,2.0142e-05,0
1.71,1.5106e-05,0
1.7105,9.2317e-06,0
1.711,5.2033e-06,0
1.7115,5.2033e-06,0
1.712,7.2175e-06,0
1.7125,9.7353e-06,0
1.713,1.326e-05,0
1.7135,1.5274e-05,0
1.714,1.7121e-05,0
1.7145,2.0981e-05,0
1.715,2.3667e-05,0
1.7155,2.4338e-05,0
1.716,2.4338e-05,0
1.7165,2.266e-05,0
1.717,2.1317e-05,0
1.7175,2.3163e-05,0
1.718,2.3163e-05,0
1.7185,2.182e-05,0
1.719,1.9974e-05,0
1.7195,1.8128e-05,0
1.72,1.6785e-05,0
1.7205,1.7624e-05,0
1.721,1.8631e-05,0
1.7215,1.9135e-05,0
1.722,1.6617e-05,0
1.7225,1.6617e-05,0
1.723,1.8631e-05,0
1.7235,1.7792e-05,0
1.724,1.326e-05,0
1.7245,9.2317e-06,0
1.725,1.0407e-05,0
1.7255,1.5442e-05,0
1.726,1.947e-05,0
1.7265,2.1149e-05,0
1.727,2.1149e-05,0
1.7275,1.9806e-05,0
1.728,1.947e-05,0
1.7285,2.266e-05,0
1.729,2.4842e-05,0
1.7295,2.266e-05,0
1.73,2.1988e-05,0
1.7305,2.2156e-05,0
1.731,2.031e-05,0
1.7315,2.031e-05,0
1.732,2.0646e-05,0
1.7325,1.8967e-05,0
1.733,1.8296e-05,0
1.7335,1.6617e-05,0
1.734,1.0575e-05,0
1.7345,8.2246e-06,0
1.735,6.714e-06,0
1.7355,4.1962e-06,0
1.736,1.0071e-06,0
1.7365,-2.0142e-06,0
1.737,-3.8605e-06,0
1.7375,-4.0284e-06,0
1.738,1.678e-07,0
1.7385,4.6998e-06,0
1.739,9.0639e-06,0
1.7395,1.326e-05,0
1.74,1.8296e-05,0
1.7405,2.0981e-05,0
1.741,1.9303e-05,0
1.7415,1.8463e-05,0
1.742,2.1317e-05,0
1.7425,2.4674e-05,0
1.743,2.6017e-05,0
1.7435,2.4674e-05,0
1.744,2.266e-05,0
1.7445,2.266e-05,0
1.745,2.1988e-05,0
1.7455,2.0646e-05,0
1.746,1.9806e-05,0
1.7465,1.7624e-05,0
1.747,1.561e-05,0
1.7475,1.6953e-05,0
1.748,1.9303e-05,0
1.7485,2.4002e-05,0
1.749,3.1556e-05,0
1.7495,3.508e-05,0
1.75,3.6088e-05,0
1.7505,3.508e-05,0
1.751,3.3066e-05,0
1.7515,3.2898e-05,0
1.752,3.5752e-05,0
1.7525,3.6759e-05,0
1.753,3.5416e-05,0
1.7535,3.2731e-05,0
1.754,2.6688e-05,0
1.7545,2.0478e-05,0
1.755,1.8967e-05,0
1.7555,2.266e-05,0
1.756,2.5345e-05,0
1.7565,2.4002e-05,0
1.757,2.1317e-05,0
1.7575,2.5009e-05,0
1.758,3.1891e-05,0
1.7585,3.3402e-05,0
1.759,3.2059e-05,0
1.7595,2.8031e-05,0
1.76,2.2492e-05,0
1.7605,2.0981e-05,0
1.761,2.1317e-05,0
1.7615,2.1317e-05,0
1.762,2.0813e-05,0
1.7625,1.7624e-05,0
1.763,1.561e-05,0
1.7635,1.8296e-05,0
1.764,2.3331e-05,0
1.7645,2.4002e-05,0
1.765,2.2324e-05,0
1.7655,2.3667e-05,0
1.766,2.4002e-05,0
1.7665,2.3835e-05,0
1.767,2.5009e-05,0
1.7675,2.3835e-05,0
1.768,2.1988e-05,0
1.7685,2.2492e-05,0
1.769,2.3835e-05,0
1.7695,2.7192e-05,0
1.77,3.0381e-05,0
1.7705,3.2227e-05,0
1.771,3.1052e-05,0
1.7715,2.8031e-05,0
1.772,2.6184e-05,0
1.7725,2.5681e-05,0
1.773,2.4338e-05,0
1.7735,2.4002e-05,0
1.774,2.2324e-05,0
1.7745,1.8463e-05,0
1.775,1.5106e-05,0
1.7755,1.7288e-05,0
1.776,1.9303e-05,0
1.7765,1.6281e-05,0
1.777,1.2085e-05,0
1.7775,8.896e-06,0
1.778,4.5319e-06,0
1.7785,1.5106e-06,0
1.779,-5.035e-07,0
1.7795,-1.678e-07,0
1.78,3.6927e-06,0
1.7805,9.7353e-06,0
1.781,1.5274e-05,0
1.7815,2.1988e-05,0
1.782,3.0045e-05,0
1.7825,3.4073e-05,0
1.783,3.2059e-05,0
1.7835,3.0381e-05,0
1.784,3.122e-05,0
1.7845,3.1388e-05,0
1.785,3.0381e-05,0
1.7855,2.4506e-05,0
1.786,1.5946e-05,0
1.7865,1.0071e-05,0
1.787,4.3641e-06,0
1.7875,-1.5106e-06,0
1.788,-7.2175e-06,0
1.7885,-6.8818e-06,0
1.789,-1.5106e-06,0
1.7895,4.1962e-06,0
1.79,5.2033e-06,0
1.7905,2.8534e-06,0
1.791,8.392e-07,0
1.7915,2.3499e-06,0
1.792,2.0142e-06,0
1.7925,-1.6785e-06,0
1.793,-1.8463e-06,0
1.7935,1.8463e-06,0
1.794,6.2104e-06,0
1.7945,1.0239e-05,0
1.795,1.4267e-05,0
1.7955,1.4267e-05,0
1.796,1.1414e-05,0
1.7965,1.1917e-05,0
1.797,1.326e-05,0
1.7975,1.4939e-05,0
1.798,1.796e-05,0
1.7985,1.8799e-05,0
1.799,2.2156e-05,0
1.7995,2.6688e-05,0
1.8,2.9709e-05,0
1.8005,3.1052e-05,0
1.801,3.0381e-05,0
1.8015,2.8031e-05,0
1.802,2.8534e-05,0
1.8025,2.9709e-05,0
1.803,3.0549e-05,0
1.8035,2.9038e-05,0
1.804,2.7359e-05,0
1.8045,2.6017e-05,0
1.805,2.7695e-05,0
1.8055,2.7863e-05,0
1.806,2.6688e-05,0
1.8065,2.5177e-05,0
1.807,2.4002e-05,0
1.8075,2.182e-05,0
1.808,1.9974e-05,0
1.8085,1.8631e-05,0
1.809,1.561e-05,0
1.8095,1.3428e-05,0
1.81,1.3764e-05,0
1.8105,1.4267e-05,0
1.811,1.3764e-05,0
1.8115,9.5674e-06,0
1.812,7.8889e-06,0
1.8125,1.326e-05,0
1.813,2.1317e-05,0
1.8135,2.7359e-05,0
1.814,2.7359e-05,0
1.8145,2.3331e-05,0
1.815,1.9638e-05,0
1.8155,1.3932e-05,0
1.816,1.1246e-05,0
1.8165,1.796e-05,0
1.817,2.7359e-05,0
1.8175,3.122e-05,0
1.818,2.9374e-05,0
1.8185,2.6017e-05,0
1.819,2.266e-05,0
1.8195,2.0142e-05,0
1.82,2.0981e-05,0
1.8205,2.5177e-05,0
1.821,2.8367e-05,0
1.8215,2.7527e-05,0
1.822,2.7527e-05,0
1.8225,3.1052e-05,0
1.823,3.3066e-05,0
1.8235,2.8199e-05,0
1.824,2.5345e-05,0
1.8245,2.5009e-05,0
1.825,2.417e-05,0
1.8255,2.5009e-05,0
1.826,2.6017e-05,0
1.8265,2.4506e-05,0
1.827,2.182e-05,0
1.8275,1.9974e-05,0
1.828,1.9303e-05,0
1.8285,2.1988e-05,0
1.829,2.8367e-05,0
1.8295,3.0045e-05,0
1.83,2.6017e-05,0
1.8305,2.0478e-05,0
1.831,1.7288e-05,0
1.8315,1.5274e-05,0
1.832,1.326e-05,0
1.8325,1.091e-05,0
1.833,1.2924e-05,0
1.8335,2.1988e-05,0
1.834,2.9206e-05,0
1.8345,3.0045e-05,0
1.835,2.8031e-05,0
1.8355,2.7359e-05,0
1.836,2.6017e-05,0
1.8365,2.4002e-05,0
1.837,2.5009e-05,0
1.8375,2.5345e-05,0
1.838,2.4506e-05,0
1.8385,2.3499e-05,0
1.839,2.3163e-05,0
1.8395,2.4674e-05,0
1.84,2.5345e-05,0
1.8405,1.9806e-05,0
1.841,1.2589e-05,0
1.8415,7.0497e-06,0
1.842,3.1891e-06,0
1.8425,-5.035e-07,0
1.843,-5.2033e-06,0
1.8435,-1.0071e-05,0
1.844,-1.091e-05,0
1.8445,-8.2246e-06,0
1.845,-8.3925e-06,0
1.8455,-1.0239e-05,0
1.846,-1.0575e-05,0
1.8465,-1.4267e-05,0
1.847,-1.8967e-05,0
1.8475,-1.9974e-05,0
1.848,-1.7121e-05,0
1.8485,-1.1582e-05,0
1.849,-3.5248e-06,0
1.8495,4.6998e-06,0
1.85,1.0575e-05,0
1.8505,1.326e-05,0
1.851,1.6449e-05,0
1.8515,2.1317e-05,0
1.852,2.4002e-05,0
1.8525,2.5681e-05,0
1.853,2.7863e-05,0
1.8535,2.7863e-05,0
1.854,2.5681e-05,0
1.8545,2.1149e-05,0
1.855,1.9303e-05,0
1.8555,2.1988e-05,0
1.856,2.5345e-05,0
1.8565,2.9038e-05,0
1.857,3.2563e-05,0
1.8575,3.3402e-05,0
1.858,2.9374e-05,0
1.8585,2.4506e-05,0
1.859,2.5177e-05,0
1.8595,2.887e-05,0
1.86,3.357e-05,0
1.8605,3.6088e-05,0
1.861,3.4745e-05,0
1.8615,3.0381e-05,0
1.862,2.5849e-05,0
1.8625,2.4338e-05,0
1.863,2.7695e-05,0
1.8635,3.2059e-05,0
1.864,3.1556e-05,0
1.8645,3.0549e-05,0
1.865,2.9709e-05,0
1.8655,2.6352e-05,0
1.866,2.4002e-05,0
1.8665,2.3163e-05,0
1.867,2.1317e-05,0
1.8675,2.0646e-05,0
1.868,2.1149e-05,0
1.8685,2.182e-05,0
1.869,2.3163e-05,0
1.8695,2.4842e-05,0
1.87,2.4506e-05,0
1.8705,2.0813e-05,0
1.871,1.6785e-05,0
1.8715,1.6785e-05,0
1.872,1.8296e-05,0
1.8725,1.6617e-05,0
1.873,1.2253e-05,0
1.8735,9.7353e-06,0
1.874,9.7353e-06,0
1.8745,1.1246e-05,0
1.875,1.1917e-05,0
1.8755,1.326e-05,0
1.876,1.7624e-05,0
1.8765,2.1988e-05,0
1.877,2.5681e-05,0
1.8775,2.9038e-05,0
1.878,3.0381e-05,0
1.8785,3.0213e-05,0
1.879,3.3066e-05,0
1.8795,3.8437e-05,0
1.88,4.1123e-05,0
1.8805,3.9948e-05,0
1.881,3.5584e-05,0
1.8815,3.2898e-05,0
1.882,3.0716e-05,0
1.8825,2.9374e-05,0
1.883,3.2059e-05,0
1.8835,3.978e-05,0
1.884,4.7669e-05,0
1.8845,5.1362e-05,0
1.885,5.0523e-05,0
1.8855,4.213e-05,0
1.886,3.1052e-05,0
1.8865,2.0646e-05,0
1.887,1.5946e-05,0
1.8875,1.9974e-05,0
1.888,2.4674e-05,0
1.8885,2.5513e-05,0
1.889,2.3163e-05,0
1.8895,1.9303e-05,0
1.89,1.6953e-05,0
1.8905,1.6449e-05,0
1.891,1.1917e-05,0
1.8915,3.6927e-06,0
1.892,-1.1749e-06,0
1.8925,-6.3783e-06,0
1.893,-1.2924e-05,0
1.8935,-1.796e-05,0
1.894,-1.9638e-05,0
1.8945,-1.9974e-05,0
1.895,-1.7624e-05,0
1.8955,-1.3596e-05,0
1.896,-1.1749e-05,0
1.8965,-7.8889e-06,0
1.897,1.0071e-06,0
1.8975,8.5603e-06,0
1.898,1.2421e-05,0
1.8985,1.947e-05,0
1.899,2.9709e-05,0
1.8995,3.4409e-05,0
1.9,3.0549e-05,0
1.9005,2.7192e-05,0
1.901,2.3835e-05,0
1.9015,1.6449e-05,0
1.902,1.2421e-05,0
1.9025,1.326e-05,0
1.903,1.4267e-05,0
1.9035,1.1414e-05,0
1.904,3.5248e-06,0
1.9045,-1.5106e-06,0
1.905,1.0071e-06,0
1.9055,7.5532e-06,0
1.906,1.5946e-05,0
1.9065,2.1317e-05,0
1.907,2.3331e-05,0
1.9075,2.4002e-05,0
1.908,2.9374e-05,0
1.9085,3.592e-05,0
1.909,3.7095e-05,0
1.9095,3.0381e-05,0
1.91,2.2492e-05,0
1.9105,2.5009e-05,0
1.911,3.508e-05,0
1.9115,4.3809e-05,0
1.912,4.6326e-05,0
1.9125,4.1962e-05,0
1.913,3.9445e-05,0
1.9135,4.1123e-05,0
1.914,4.1795e-05,0
1.9145,3.7095e-05,0
1.915,3.3066e-05,0
1.9155,3.4577e-05,0
1.916,3.978e-05,0
1.9165,4.5487e-05,0
1.917,4.9515e-05,0
1.9175,5.1194e-05,0
1.918,5.4551e-05,0
1.9185,5.623e-05,0
1.919,5.153e-05,0
1.9195,3.8437e-05,0
1.92,2.0646e-05,0
1.9205,9.5674e-06,0
1.921,4.6998e-06,0
1.9215,1.678e-07,0
1.922,-4.0284e-06,0
1.9225,-8.5603e-06,0
1.923,-1.6953e-05,0
1.9235,-2.887e-05,0
1.924,-3.8941e-05,0
1.9245,-4.2466e-05,0
1.925,-3.9612e-05,0
1.9255,-3.8437e-05,0
1.926,-3.7766e-05,0
1.9265,-2.7359e-05,0
1.927,-1.0575e-05,0
1.9275,2.8534e-06,0
1.928,1.2421e-05,0
1.9285,1.7792e-05,0
1.929,2.182e-05,0
1.9295,2.4506e-05,0
1.93,2.3499e-05,0
1.9305,2.2492e-05,0
1.931,2.3163e-05,0
1.9315,2.5177e-05,0
1.932,2.8702e-05,0
1.9325,3.3234e-05,0
1.933,3.8102e-05,0
1.9335,4.1291e-05,0
1.934,4.1123e-05,0
1.9345,4.3137e-05,0
1.935,4.8005e-05,0
1.9355,5.2201e-05,0
1.936,5.4719e-05,0
1.9365,5.3544e-05,0
1.937,4.8173e-05,0
1.9375,4.3641e-05,0
1.938,4.1459e-05,0
1.9385,3.508e-05,0
1.939,2.6184e-05,0
1.9395,2.0981e-05,0
1.94,1.7288e-05,0
1.9405,1.0071e-05,0
1.941,1.1749e-06,0
1.9415,-6.3783e-06,0
1.942,-7.5532e-06,0
1.9425,-7.2175e-06,0
1.943,-1.326e-05,0
1.9435,-2.2324e-05,0
1.944,-2.3667e-05,0
1.9445,-1.6953e-05,0
1.945,-8.0568e-06,0
1.9455,1.6785e-06,0
1.946,1.091e-05,0
1.9465,1.4603e-05,0
1.947,1.4939e-05,0
1.9475,1.7624e-05,0
1.948,2.3667e-05,0
1.9485,2.5345e-05,0
1.949,2.2492e-05,0
1.9495,2.1317e-05,0
1.95,2.4674e-05,0
1.9505,2.8031e-05,0
1.951,2.4002e-05,0
1.9515,1.1414e-05,0
1.952,5.8747e-06,0
1.9525,1.4267e-05,0
1.953,2.5849e-05,0
1.9535,3.4577e-05,0
1.954,4.1123e-05,0
1.9545,4.5487e-05,0
1.955,4.448e-05,0
1.9555,4.2466e-05,0
1.956,3.743e-05,0
1.9565,3.3066e-05,0
1.957,3.5752e-05,0
1.9575,4.2802e-05,0
1.958,4.7837e-05,0
1.9585,4.4144e-05,0
1.959,3.7262e-05,0
1.9595,3.3738e-05,0
1.96,3.2731e-05,0
1.9605,2.9709e-05,0
1.961,2.1988e-05,0
1.9615,1.1582e-05,0
1.962,4.5319e-06,0
1.9625,2.8534e-06,0
1.963,3.357e-06,0
1.9635,1.5106e-06,0
1.964,1.678e-07,0
1.9645,1.8463e-06,0
1.965,7.0497e-06,0
1.9655,1.1414e-05,0
1.966,1.4771e-05,0
1.9665,1.8967e-05,0
1.967,2.5009e-05,0
1.9675,2.4674e-05,0
1.968,2.0981e-05,0
1.9685,2.6688e-05,0
1.969,4.1291e-05,0
1.9695,5.2872e-05,0
1.97,6.0929e-05,0
1.9705,6.6972e-05,0
1.971,6.7979e-05,0
1.9715,6.5797e-05,0
1.972,6.5629e-05,0
1.9725,6.3951e-05,0
1.973,5.9419e-05,0
1.9735,4.9515e-05,0
1.974,3.7095e-05,0
1.9745,2.7863e-05,0
1.975,2.4674e-05,0
1.9755,1.8128e-05,0
1.976,1.6785e-06,0
1.9765,-1.8967e-05,0
1.977,-3.2395e-05,0
1.9775,-3.0381e-05,0
1.978,-2.2492e-05,0
1.9785,-2.7024e-05,0
1.979,-4.9012e-05,0
1.9795,-6.9322e-05,0
1.98,-6.865e-05,0
1.9805,-5.5894e-05,0
1.981,-4.7501e-05,0
1.9815,-3.8437e-05,0
1.982,-2.6184e-05,0
1.9825,-1.3428e-05,0
1.983,-2.182e-06,0
1.9835,6.8818e-06,0
1.984,1.1246e-05,0
1.9845,1.0575e-05,0
1.985,7.7211e-06,0
1.9855,7.8889e-06,0
1.986,1.1078e-05,0
1.9865,1.1582e-05,0
1.987,1.2253e-05,0
1.9875,1.7624e-05,0
1.988,2.5009e-05,0
1.9885,3.1556e-05,0
1.989,3.6591e-05,0
1.9895,3.8102e-05,0
1.99,3.6423e-05,0
1.9905,3.4073e-05,0
1.991,3.6423e-05,0
1.9915,4.5151e-05,0
1.992,5.4215e-05,0
1.9925,5.8076e-05,0
1.993,5.9251e-05,0
1.9935,5.5222e-05,0
1.994,4.8844e-05,0
1.9945,4.6159e-05,0
1.995,4.6662e-05,0
1.9955,4.7166e-05,0
1.996,4.6494e-05,0
1.9965,4.8173e-05,0
1.997,4.918e-05,0
1.9975,4.4816e-05,0
1.998,3.9109e-05,0
1.9985,3.5416e-05,0
1.999,3.2395e-05,0
1.9995,3.1388e-05,0
2,3.4577e-05,0
2.0005,3.8941e-05,0
2.001,3.6759e-05,0
2.0015,2.5345e-05,0
2.002,1.5106e-05,0
2.0025,9.2317e-06,0
2.003,6.714e-07,0
2.0035,-9.2317e-06,0
2.004,-1.561e-05,0
2.0045,-1.2757e-05,0
2.005,-3.5248e-06,0
2.0055,6.5461e-06,0
2.006,1.3932e-05,0
2.0065,1.3596e-05,0
2.007,5.539e-06,0
2.0075,1.1749e-06,0
2.008,3.5248e-06,0
2.0085,3.5248e-06,0
2.009,-1.0071e-06,0
2.0095,-1.8463e-06,0
2.01,3.8605e-06,0
2.0105,1.0239e-05,0
2.011,1.4267e-05,0
2.0115,1.7288e-05,0
2.012,1.796e-05,0
2.0125,1.6281e-05,0
2.013,1.561e-05,0
2.0135,1.7288e-05,0
2.014,2.1317e-05,0
2.0145,2.6184e-05,0
2.015,3.1891e-05,0
2.0155,3.6927e-05,0
2.016,3.8102e-05,0
2.0165,3.4241e-05,0
2.017,2.8702e-05,0
2.0175,3.3402e-05,0
2.018,4.5991e-05,0
2.0185,5.4887e-05,0
2.019,5.5558e-05,0
2.0195,5.2201e-05,0
2.02,5.2033e-05,0
2.0205,5.2033e-05,0
2.021,4.7501e-05,0
2.0215,3.8437e-05,0
2.022,2.8031e-05,0
2.0225,1.6617e-05,0
2.023,5.7069e-06,0
2.0235,3.8605e-06,0
2.024,1.091e-05,0
2.0245,1.326e-05,0
2.025,6.0426e-06,0
2.0255,2.5177e-06,0
2.026,9.9031e-06,0
2.0265,1.4939e-05,0
2.027,7.2175e-06,0
2.0275,-9.0639e-06,0
2.028,-2.182e-05,0
2.0285,-2.6688e-05,0
2.029,-2.1653e-05,0
2.0295,-1.1078e-05,0
2.03,-3.5248e-06,0
2.0305,0,0
2.031,-3.0213e-06,0
2.0315,-9.2317e-06,0
2.032,-5.539e-06,0
2.0325,7.7211e-06,0
2.033,2.2995e-05,0
2.0335,3.1724e-05,0
2.034,3.508e-05,0
2.0345,3.5752e-05,0
2.035,3.508e-05,0
2.0355,3.0045e-05,0
2.036,2.4002e-05,0
2.0365,2.7359e-05,0
2.037,3.743e-05,0
2.0375,4.6159e-05,0
2.038,4.7837e-05,0
2.0385,4.2802e-05,0
2.039,3.6088e-05,0
2.0395,3.1388e-05,0
2.04,2.7527e-05,0
2.0405,2.3667e-05,0
2.041,2.182e-05,0
2.0415,1.7792e-05,0
2.042,6.8818e-06,0
2.0425,-7.8889e-06,0
2.043,-1.5106e-05,0
2.0435,-5.539e-06,0
2.044,3.5248e-06,0
2.0445,-2.5177e-06,0
2.045,-1.5274e-05,0
2.0455,-2.1149e-05,0
2.046,-1.8631e-05,0
2.0465,-1.3596e-05,0
2.047,-1.091e-05,0
2.0475,-7.5532e-06,0
2.048,1.6785e-06,0
2.0485,1.4267e-05,0
2.049,2.6688e-05,0
2.0495,3.6255e-05,0
2.05,4.1795e-05,0
2.0505,4.4312e-05,0
2.051,4.7501e-05,0
2.0515,4.7837e-05,0
2.052,4.4648e-05,0
2.0525,4.3809e-05,0
2.053,4.4144e-05,0
2.0535,4.4312e-05,0
2.054,4.213e-05,0
2.0545,4.213e-05,0
2.055,4.5487e-05,0
2.0555,4.9515e-05,0
2.056,4.8844e-05,0
2.0565,4.3137e-05,0
2.057,3.6088e-05,0
2.0575,3.5416e-05,0
2.058,3.978e-05,0
2.0585,3.6088e-05,0
2.059,2.5681e-05,0
2.0595,1.9638e-05,0
2.06,1.4603e-05,0
2.0605,7.8889e-06,0
2.061,6.0426e-06,0
2.0615,9.5674e-06,0
2.062,1.1078e-05,0
2.0625,4.8676e-06,0
2.063,-1.6785e-06,0
2.0635,-2.5177e-06,0
2.064,-6.714e-07,0
2.0645,-5.539e-06,0
2.065,-1.8463e-05,0
2.0655,-3.0381e-05,0
2.066,-3.2395e-05,0
2.0665,-2.2828e-05,0
2.067,-5.8747e-06,0
2.0675,7.5532e-06,0
2.068,9.0639e-06,0
2.0685,4.1962e-06,0
2.069,7.8889e-06,0
2.0695,2.4002e-05,0
2.07,3.743e-05,0
2.0705,3.8102e-05,0
2.071,3.2059e-05,0
2.0715,2.2995e-05,0
2.072,1.3932e-05,0
2.0725,9.5674e-06,0
2.073,1.5106e-05,0
2.0735,2.3667e-05,0
2.074,2.8702e-05,0
2.0745,3.3066e-05,0
2.075,3.8102e-05,0
2.0755,3.978e-05,0
2.076,3.4073e-05,0
2.0765,2.8702e-05,0
2.077,3.2395e-05,0
2.0775,4.0619e-05,0
2.078,4.0787e-05,0
2.0785,3.592e-05,0
2.079,3.7095e-05,0
2.0795,4.4648e-05,0
2.08,5.3544e-05,0
2.0805,5.9251e-05,0
2.081,5.8747e-05,0
2.0815,5.2537e-05,0
2.082,4.3977e-05,0
2.0825,3.7766e-05,0
2.083,3.4745e-05,0
2.0835,3.1724e-05,0
2.084,2.9374e-05,0
2.0845,3.1388e-05,0
2.085,3.592e-05,0
2.0855,3.3402e-05,0
2.086,2.1653e-05,0
2.0865,8.2246e-06,0
2.087,-5.8747e-06,0
2.0875,-2.3667e-05,0
2.088,-3.978e-05,0
2.0885,-4.1459e-05,0
2.089,-3.4241e-05,0
2.0895,-2.2156e-05,0
2.09,-7.5532e-06,0
2.0905,1.8463e-06,0
2.091,5.8747e-06,0
2.0915,6.8818e-06,0
2.092,4.8676e-06,0
2.0925,3.8605e-06,0
2.093,3.357e-06,0
2.0935,5.0355e-06,0
2.094,1.2253e-05,0
2.0945,2.1317e-05,0
2.095,2.8031e-05,0
2.0955,3.4073e-05,0
2.096,3.6423e-05,0
2.0965,3.8605e-05,0
2.097,4.4816e-05,0
2.0975,5.539e-05,0
2.098,6.7643e-05,0
2.0985,8.0064e-05,0
2.099,8.6946e-05,0
2.0995,8.7282e-05,0
2.1,8.3085e-05,0
2.1005,7.3686e-05,0
2.101,6.1601e-05,0
2.1015,5.0187e-05,0
2.102,3.7095e-05,0
2.1025,2.1317e-05,0
2.103,9.5674e-06,0
2.1035,3.6927e-06,0
2.104,-4.8676e-06,0
2.1045,-2.5849e-05,0
2.105,-5.5726e-05,0
2.1055,-7.7211e-05,0
2.106,-7.6875e-05,0
2.1065,-5.8076e-05,0
2.107,-3.5248e-05,0
2.1075,-2.2995e-05,0
2.108,-1.5274e-05,0
2.1085,1.1749e-06,0
2.109,1.6953e-05,0
2.1095,2.266e-05,0
2.11,2.5009e-05,0
2.1105,2.6688e-05,0
2.111,2.6688e-05,0
2.1115,2.1317e-05,0
2.112,1.3932e-05,0
2.1125,1.2421e-05,0
2.113,1.8296e-05,0
2.1135,2.2995e-05,0
2.114,2.2828e-05,0
2.1145,2.5345e-05,0
2.115,3.4745e-05,0
2.1155,4.448e-05,0
2.116,4.8173e-05,0
2.1165,4.7837e-05,0
2.117,4.9851e-05,0
2.1175,5.1865e-05,0
2.118,5.0523e-05,0
2.1185,4.7837e-05,0
2.119,4.8676e-05,0
2.1195,5.0858e-05,0
2.12,5.5222e-05,0
2.1205,6.009e-05,0
2.121,6.1265e-05,0
2.1215,5.5558e-05,0
2.122,4.2634e-05,0
2.1225,3.0716e-05,0
2.123,2.0142e-05,0
2.1235,5.7069e-06,0
2.124,-1.1078e-05,0
2.1245,-2.9709e-05,0
2.125,-5.0355e-05,0
2.1255,-6.3447e-05,0
2.126,-6.5965e-05,0
2.1265,-5.5894e-05,0
2.127,-3.0045e-05,0
2.1275,-3.357e-07,0
2.128,1.6281e-05,0
2.1285,1.1582e-05,0
2.129,-6.0426e-06,0
2.1295,-2.1317e-05,0
2.13,-2.9709e-05,0
2.1305,-3.0381e-05,0
2.131,-2.031e-05,0
2.1315,3.0213e-06,0
2.132,2.7695e-05,0
2.1325,4.3473e-05,0
2.133,5.0019e-05,0
2.1335,5.153e-05,0
2.134,4.8676e-05,0
2.1345,4.1795e-05,0
2.135,3.5248e-05,0
2.1355,3.3738e-05,0
2.136,3.8102e-05,0
2.1365,4.6326e-05,0
2.137,5.623e-05,0
2.1375,6.6636e-05,0
2.138,7.3686e-05,0
2.1385,7.7714e-05,0
2.139,8.2414e-05,0
2.1395,8.4093e-05,0
2.14,7.6371e-05,0
2.1405,6.0929e-05,0
2.141,4.2802e-05,0
2.1415,2.1317e-05,0
2.142,3.0213e-06,0
2.1425,-7.3854e-06,0
2.143,-6.5461e-06,0
2.1435,-3.357e-07,0
2.144,4.8676e-06,0
2.1445,6.5461e-06,0
2.145,-8.392e-07,0
2.1455,-2.2995e-05,0
2.146,-5.9587e-05,0
2.1465,-9.4835e-05,0
2.147,-0.00010642,0
2.1475,-9.4331e-05,0
2.148,-7.9057e-05,0
2.1485,-6.3951e-05,0
2.149,-4.5487e-05,0
2.1495,-2.5681e-05,0
2.15,-5.8747e-06,0
2.1505,1.5946e-05,0
2.151,3.2898e-05,0
2.1515,4.0619e-05,0
2.152,4.4816e-05,0
2.1525,4.683e-05,0
2.153,4.9851e-05,0
2.1535,5.8076e-05,0
2.154,6.7308e-05,0
2.1545,7.4357e-05,0
2.155,7.7546e-05,0
2.1555,7.8386e-05,0
2.156,7.9393e-05,0
2.1565,8.275e-05,0
2.157,8.51e-05,0
2.1575,8.2078e-05,0
2.158,7.4693e-05,0
2.1585,6.5126e-05,0
2.159,5.6733e-05,0
2.1595,5.3544e-05,0
2.16,5.7404e-05,0
2.1605,6.949e-05,0
2.161,8.2078e-05,0
2.1615,8.2078e-05,0
2.162,7.2007e-05,0
2.1625,5.7572e-05,0
2.163,4.2466e-05,0
2.1635,3.2059e-05,0
2.164,2.7359e-05,0
2.1645,2.5345e-05,0
2.165,2.182e-05,0
2.1655,1.0575e-05,0
2.166,-5.0355e-06,0
2.1665,-1.8296e-05,0
2.167,-3.2059e-05,0
2.1675,-4.7333e-05,0
2.168,-5.9251e-05,0
2.1685,-6.865e-05,0
2.169,-7.3518e-05,0
2.1695,-6.6636e-05,0
2.17,-5.6733e-05,0
2.1705,-5.1865e-05,0
2.171,-5.0355e-05,0
2.1715,-4.8676e-05,0
2.172,-4.1459e-05,0
2.1725,-2.182e-05,0
2.173,5.8747e-06,0
2.1735,2.4002e-05,0
2.174,1.4099e-05,0
2.1745,-6.2104e-06,0
2.175,-1.0239e-05,0
2.1755,-4.5319e-06,0
2.176,-5.035e-07,0
2.1765,2.8534e-06,0
2.177,6.5461e-06,0
2.1775,1.7288e-05,0
2.178,3.3402e-05,0
2.1785,4.3305e-05,0
2.179,4.7166e-05,0
2.1795,5.1194e-05,0
2.18,6.3615e-05,0
2.1805,7.9728e-05,0
2.181,9.1142e-05,0
2.1815,9.5842e-05,0
2.182,9.3828e-05,0
2.1825,8.5603e-05,0
2.183,7.9393e-05,0
2.1835,8.0232e-05,0
2.184,8.4093e-05,0
2.1845,8.3421e-05,0
2.185,7.0329e-05,0
2.1855,4.5319e-05,0
2.186,1.8296e-05,0
2.1865,2.3499e-06,0
2.187,-4.8676e-06,0
2.1875,-1.2253e-05,0
2.188,-2.5009e-05,0
2.1885,-3.6255e-05,0
2.189,-3.8773e-05,0
2.1895,-4.1459e-05,0
2.19,-5.1362e-05,0
2.1905,-6.3615e-05,0
2.191,-7.5029e-05,0
2.1915,-8.2918e-05,0
2.192,-7.9728e-05,0
2.1925,-6.8315e-05,0
2.193,-4.7333e-05,0
2.1935,-1.796e-05,0
2.194,1.0575e-05,0
2.1945,3.1388e-05,0
2.195,4.0787e-05,0
2.1955,4.448e-05,0
2.196,4.8173e-05,0
2.1965,5.0858e-05,0
2.197,5.153e-05,0
2.1975,5.069e-05,0
2.198,4.6159e-05,0
2.1985,4.2466e-05,0
2.199,4.6494e-05,0
2.1995,5.6733e-05,0
2.2,6.479e-05,0
2.2005,7.1e-05,0
2.201,7.9393e-05,0
2.2015,8.5771e-05,0
2.202,9.2485e-05,0
2.2025,9.7185e-05,0
2.203,9.8863e-05,0
2.2035,9.601e-05,0
2.204,9.2485e-05,0
2.2045,9.2149e-05,0
2.205,9.2821e-05,0
2.2055,8.8121e-05,0
2.206,7.7211e-05,0
2.2065,6.0426e-05,0
2.207,4.2466e-05,0
2.2075,2.3163e-05,0
2.208,-7.3854e-06,0
2.2085,-4.8341e-05,0
2.209,-7.2679e-05,0
2.2095,-6.865e-05,0
2.21,-6.0594e-05,0
2.2105,-6.479e-05,0
2.211,-7.57e-05,0
2.2115,-7.956e-05,0
2.212,-6.5797e-05,0
2.2125,-3.8773e-05,0
2.213,-1.7288e-05,0
2.2135,-4.5319e-06,0
2.214,1.1582e-05,0
2.2145,3.0213e-05,0
2.215,3.7766e-05,0
2.2155,3.5752e-05,0
2.216,3.7766e-05,0
2.2165,4.3977e-05,0
2.217,4.8173e-05,0
2.2175,5.069e-05,0
2.218,6.0929e-05,0
2.2185,7.9728e-05,0
2.219,8.9967e-05,0
2.2195,8.7114e-05,0
2.22,8.5603e-05,0
2.2205,8.9464e-05,0
2.221,9.3828e-05,0
2.2215,9.5003e-05,0
2.222,9.1142e-05,0
2.2225,8.0064e-05,0
2.223,6.7475e-05,0
2.2235,5.3376e-05,0
2.224,3.5752e-05,0
2.2245,1.6617e-05,0
2.225,-6.0426e-06,0
2.2255,-3.8773e-05,0
2.226,-8.04e-05,0
2.2265,-0.00010893,0
2.227,-0.00010927,0
2.2275,-9.3828e-05,0
2.228,-7.2847e-05,0
2.2285,-5.4719e-05,0
2.229,-4.7669e-05,0
2.2295,-3.7262e-05,0
2.23,-1.3428e-05,0
2.2305,4.1962e-06,0
2.231,5.8747e-06,0
2.2315,5.2033e-06,0
2.232,1.326e-05,0
2.2325,2.8702e-05,0
2.233,4.6159e-05,0
2.2335,6.0761e-05,0
2.234,6.7475e-05,0
2.2345,6.2776e-05,0
2.235,5.1194e-05,0
2.2355,4.1795e-05,0
2.236,3.3234e-05,0
2.2365,2.7527e-05,0
2.237,2.9038e-05,0
2.2375,3.4073e-05,0
2.238,3.9445e-05,0
2.2385,4.4144e-05,0
2.239,4.683e-05,0
2.2395,4.0116e-05,0
2.24,2.4338e-05,0
2.2405,1.9974e-05,0
2.241,3.6759e-05,0
2.2415,6.4286e-05,0
2.242,8.9128e-05,0
2.2425,0.00010323,0
2.243,0.00010507,0
2.2435,9.3492e-05,0
2.244,7.5029e-05,0
2.2445,6.7979e-05,0
2.245,6.4286e-05,0
2.2455,3.5416e-05,0
2.246,-1.091e-05,0
2.2465,-3.7766e-05,0
2.247,-2.4002e-05,0
2.2475,4.6998e-06,0
2.248,1.3932e-05,0
2.2485,-1.5106e-06,0
2.249,-1.6449e-05,0
2.2495,-9.2317e-06,0
2.25,-1.8463e-06,0
2.2505,-2.5009e-05,0
2.251,-5.9922e-05,0
2.2515,-7.9393e-05,0
2.252,-9.1478e-05,0
2.2525,-0.00010121,0
2.253,-9.4163e-05,0
2.2535,-7.7882e-05,0
2.254,-6.7811e-05,0
2.2545,-6.865e-05,0
2.255,-8.1407e-05,0
2.2555,-9.9199e-05,0
2.256,-0.00010423,0
2.2565,-9.1478e-05,0
2.257,-5.4887e-05,0
2.2575,-2.8534e-06,0
2.258,4.2298e-05,0
2.2585,6.8482e-05,0
2.259,7.4693e-05,0
2.2595,7.0664e-05,0
2.26,7.2007e-05,0
2.2605,8.1743e-05,0
2.261,8.7617e-05,0
2.2615,8.6778e-05,0
2.262,8.3421e-05,0
2.2625,8.2078e-05,0
2.263,8.1071e-05,0
2.2635,7.57e-05,0
2.264,6.3615e-05,0
2.2645,4.4984e-05,0
2.265,2.4506e-05,0
2.2655,1.6449e-05,0
2.266,2.2156e-05,0
2.2665,2.3163e-05,0
2.267,2.031e-05,0
2.2675,2.3331e-05,0
2.268,2.6688e-05,0
2.2685,2.7359e-05,0
2.269,2.8534e-05,0
2.2695,3.2731e-05,0
2.27,3.827e-05,0
2.2705,4.448e-05,0
2.271,5.1194e-05,0
2.2715,5.3376e-05,0
2.272,5.0019e-05,0
2.2725,5.0523e-05,0
2.273,6.2272e-05,0
2.2735,7.5532e-05,0
2.274,8.3757e-05,0
2.2745,8.3085e-05,0
2.275,7.3014e-05,0
2.2755,6.1601e-05,0
2.276,4.9515e-05,0
2.2765,3.7262e-05,0
2.277,3.5584e-05,0
2.2775,3.6927e-05,0
2.278,2.2324e-05,0
2.2785,-4.6998e-06,0
2.279,-2.7192e-05,0
2.2795,-4.2298e-05,0
2.28,-5.7069e-05,0
2.2805,-6.3951e-05,0
2.281,-5.5222e-05,0
2.2815,-2.7024e-05,0
2.282,3.8605e-06,0
2.2825,2.0981e-05,0
2.283,2.4506e-05,0
2.2835,2.3667e-05,0
2.284,1.796e-05,0
2.2845,1.678e-07,0
2.285,-1.9974e-05,0
2.2855,-2.0646e-05,0
2.286,-6.8818e-06,0
2.2865,-4.5319e-06,0
2.287,-1.0407e-05,0
2.2875,-5.0355e-06,0
2.288,1.6281e-05,0
2.2885,3.8605e-05,0
2.289,5.1698e-05,0
2.2895,5.2201e-05,0
2.29,4.213e-05,0
2.2905,2.9709e-05,0
2.291,1.8631e-05,0
2.2915,1.4771e-05,0
2.292,1.8631e-05,0
2.2925,2.1317e-05,0
2.293,1.9806e-05,0
2.2935,1.3092e-05,0
2.294,3.1891e-06,0
2.2945,7.0497e-06,0
2.295,2.0142e-05,0
2.2955,2.5009e-05,0
2.296,2.7359e-05,0
2.2965,3.8437e-05,0
2.297,5.7404e-05,0
2.2975,7.5029e-05,0
2.298,8.1071e-05,0
2.2985,7.6036e-05,0
2.299,6.6636e-05,0
2.2995,5.623e-05,0
2.3,4.9515e-05,0
2.3005,4.1795e-05,0
2.301,1.947e-05,0
2.3015,-1.8463e-05,0
2.302,-5.8915e-05,0
2.3025,-8.9967e-05,0
2.303,-9.1142e-05,0
2.3035,-6.0594e-05,0
2.304,-2.2995e-05,0
2.3045,1.0575e-05,0
2.305,3.8102e-05,0
2.3055,4.8005e-05,0
2.306,3.9445e-05,0
2.3065,2.6688e-05,0
2.307,1.7288e-05,0
2.3075,1.0239e-05,0
2.308,1.1078e-05,0
2.3085,2.5849e-05,0
2.309,4.2802e-05,0
2.3095,5.0858e-05,0
2.31,5.4215e-05,0
2.3105,6.0594e-05,0
2.311,6.9657e-05,0
2.3115,7.7043e-05,0
2.312,7.9057e-05,0
2.3125,7.6036e-05,0
2.313,7.2007e-05,0
2.3135,6.8818e-05,0
2.314,6.3951e-05,0
2.3145,5.7572e-05,0
2.315,5.0523e-05,0
2.3155,4.5151e-05,0
2.316,4.2802e-05,0
2.3165,4.0787e-05,0
2.317,3.0884e-05,0
2.3175,1.1582e-05,0
2.318,-1.2757e-05,0
2.3185,-4.3473e-05,0
2.319,-7.2343e-05,0
2.3195,-8.1743e-05,0
2.32,-6.7979e-05,0
2.3205,-4.3977e-05,0
2.321,-2.7359e-05,0
2.3215,-1.4435e-05,0
2.322,7.5532e-06,0
2.3225,3.2059e-05,0
2.323,5.0858e-05,0
2.3235,6.0929e-05,0
2.324,5.623e-05,0
2.3245,3.8773e-05,0
2.325,1.9974e-05,0
2.3255,7.7211e-06,0
2.326,4.8676e-06,0
2.3265,9.0639e-06,0
2.327,1.9303e-05,0
2.3275,2.8702e-05,0
2.328,2.266e-05,0
2.3285,-1.3428e-06,0
2.329,-2.5681e-05,0
2.3295,-3.9948e-05,0
2.33,-4.4816e-05,0
2.3305,-3.6255e-05,0
2.331,-1.2924e-05,0
2.3315,9.9031e-06,0
2.332,2.6017e-05,0
2.3325,3.7095e-05,0
2.333,3.8102e-05,0
2.3335,3.1724e-05,0
2.334,2.7024e-05,0
2.3345,2.7359e-05,0
2.335,3.4577e-05,0
2.3355,4.6326e-05,0
2.336,5.6901e-05,0
2.3365,5.2537e-05,0
2.337,2.9038e-05,0
2.3375,7.3854e-06,0
2.338,4.5319e-06,0
2.3385,7.5532e-06,0
2.339,7.0497e-06,0
2.3395,5.8747e-06,0
2.34,9.2317e-06,0
2.3405,1.561e-05,0
2.341,2.5513e-05,0
2.3415,2.9877e-05,0
2.342,2.1317e-05,0
2.3425,1.4939e-05,0
2.343,2.4002e-05,0
2.3435,4.1123e-05,0
2.344,6.0594e-05,0
2.3445,6.4958e-05,0
2.345,4.8005e-05,0
2.3455,2.9877e-05,0
2.346,2.1317e-05,0
2.3465,1.1917e-05,0
2.347,-2.3499e-06,0
2.3475,-1.2253e-05,0
2.348,-7.2175e-06,0
2.3485,1.326e-05,0
2.349,4.0116e-05,0
2.3495,5.7572e-05,0
2.35,5.3208e-05,0
2.3505,3.2059e-05,0
2.351,1.7288e-05,0
2.3515,2.0646e-05,0
2.352,2.8367e-05,0
2.3525,2.4674e-05,0
2.353,3.8605e-06,0
2.3535,-2.4674e-05,0
2.354,-5.4383e-05,0
2.3545,-7.335e-05,0
2.355,-6.6636e-05,0
2.3555,-3.7766e-05,0
2.356,-2.8534e-06,0
2.3565,2.7024e-05,0
2.357,4.2802e-05,0
2.3575,4.2298e-05,0
2.358,3.4745e-05,0
2.3585,2.2995e-05,0
2.359,8.2246e-06,0
2.3595,-5.035e-07,0
2.36,6.714e-07,0
2.3605,5.0355e-06,0
2.361,1.1917e-05,0
2.3615,2.4002e-05,0
2.362,3.4409e-05,0
2.3625,3.7766e-05,0
2.363,4.448e-05,0
2.3635,6.1601e-05,0
2.364,7.805e-05,0
2.3645,7.7043e-05,0
2.365,5.6565e-05,0
2.3655,3.0381e-05,0
2.366,1.0071e-05,0
2.3665,4.3641e-06,0
2.367,2.0981e-05,0
2.3675,4.1795e-05,0
2.368,3.6591e-05,0
2.3685,5.0355e-06,0
2.369,-3.357e-05,0
2.3695,-5.7572e-05,0
2.37,-4.8844e-05,0
2.3705,-1.3596e-05,0
2.371,2.1317e-05,0
2.3715,3.978e-05,0
2.372,4.9515e-05,0
2.3725,6.0929e-05,0
2.373,7.1672e-05,0
2.3735,7.6036e-05,0
2.374,7.4021e-05,0
2.3745,6.865e-05,0
2.375,6.0258e-05,0
2.3755,4.5823e-05,0
2.376,2.7192e-05,0
2.3765,1.4267e-05,0
2.377,9.2317e-06,0
2.3775,1.0575e-05,0
2.378,1.6617e-05,0
2.3785,1.8799e-05,0
2.379,1.1078e-05,0
2.3795,2.182e-06,0
2.38,8.5603e-06,0
2.3805,2.6017e-05,0
2.381,3.2059e-05,0
2.3815,2.4338e-05,0
2.382,1.9974e-05,0
2.3825,2.3331e-05,0
2.383,2.8367e-05,0
2.3835,3.743e-05,0
2.384,4.4984e-05,0
2.3845,3.4745e-05,0
2.385,5.2033e-06,0
2.3855,-2.1988e-05,0
2.386,-2.1653e-05,0
2.3865,-5.035e-07,0
2.387,6.714e-06,0
2.3875,-1.6281e-05,0
2.388,-4.3137e-05,0
2.3885,-3.8102e-05,0
2.389,-4.1962e-06,0
2.3895,2.4674e-05,0
2.39,2.5849e-05,0
2.3905,1.0239e-05,0
2.391,-6.8818e-06,0
2.3915,-3.4073e-05,0
2.392,-6.8482e-05,0
2.3925,-6.1936e-05,0
2.393,6.2104e-06,0
2.3935,9.0135e-05,0
2.394,0.00014217,0
2.3945,0.00015291,0
2.395,0.00013915,0
2.3955,0.000118,0
2.396,9.8863e-05,0
2.3965,8.2246e-05,0
2.397,6.6636e-05,0
2.3975,5.388e-05,0
2.398,3.4745e-05,0
2.3985,3.5248e-06,0
2.399,-3.0716e-05,0
2.3995,-5.153e-05,0
2.4,-5.7908e-05,0
2.4005,-6.9154e-05,0
2.401,-0.00010222,0
2.4015,-0.00012488,0
2.402,-9.6178e-05,0
2.4025,-3.978e-05,0
2.403,1.1749e-06,0
2.4035,2.0981e-05,0
2.404,3.1052e-05,0
2.4045,3.978e-05,0
2.405,4.8676e-05,0
2.4055,5.1865e-05,0
2.406,5.2201e-05,0
2.4065,5.1362e-05,0
2.407,4.5487e-05,0
2.4075,4.1291e-05,0
2.408,3.7766e-05,0
2.4085,3.6759e-05,0
2.409,4.4144e-05,0
2.4095,4.9851e-05,0
2.41,4.0116e-05,0
2.4105,1.8631e-05,0
2.411,-6.714e-07,0
2.4115,-4.1962e-06,0
2.412,3.5248e-06,0
2.4125,1.1246e-05,0
2.413,1.5946e-05,0
2.4135,1.9974e-05,0
2.414,2.6688e-05,0
2.4145,3.6088e-05,0
2.415,3.8941e-05,0
2.4155,3.0213e-05,0
2.416,2.0478e-05,0
2.4165,2.5009e-05,0
2.417,3.4745e-05,0
2.4175,3.7766e-05,0
2.418,4.0619e-05,0
2.4185,4.9012e-05,0
2.419,5.5726e-05,0
2.4195,6.5293e-05,0
2.42,7.956e-05,0
2.4205,9.0303e-05,0
2.421,7.7378e-05,0
2.4215,3.4241e-05,0
2.422,-1.2589e-05,0
2.4225,-4.9012e-05,0
2.423,-7.3182e-05,0
2.4235,-7.4525e-05,0
2.424,-5.9754e-05,0
2.4245,-5.0355e-05,0
2.425,-5.2369e-05,0
2.4255,-5.6733e-05,0
2.426,-5.1865e-05,0
2.4265,-2.5009e-05,0
2.427,1.6449e-05,0
2.4275,4.9851e-05,0
2.428,6.5126e-05,0
2.4285,6.9657e-05,0
2.429,6.3111e-05,0
2.4295,4.8173e-05,0
2.43,4.4816e-05,0
2.4305,5.4551e-05,0
2.431,5.7908e-05,0
2.4315,4.6494e-05,0
2.432,3.4409e-05,0
2.4325,3.827e-05,0
2.433,5.5726e-05,0
2.4335,6.7308e-05,0
2.434,6.7979e-05,0
2.4345,6.9993e-05,0
2.435,7.5868e-05,0
2.4355,8.1407e-05,0
2.436,8.0568e-05,0
2.4365,6.3615e-05,0
2.437,2.3331e-05,0
2.4375,-1.8463e-05,0
2.438,-3.5752e-05,0
2.4385,-3.7766e-05,0
2.439,-3.5416e-05,0
2.4395,-1.5106e-05,0
2.44,2.6688e-05,0
2.4405,6.865e-05,0
2.441,7.9728e-05,0
2.4415,3.8102e-05,0
2.442,-3.3066e-05,0
2.4425,-6.1769e-05,0
2.443,-2.3331e-05,0
2.4435,3.2731e-05,0
2.444,6.0761e-05,0
2.4445,5.2201e-05,0
2.445,2.0646e-05,0
2.4455,-1.0575e-05,0
2.446,-3.5752e-05,0
2.4465,-5.7908e-05,0
2.447,-6.2944e-05,0
2.4475,-3.978e-05,0
2.448,-6.8818e-06,0
2.4485,-1.1749e-06,0
2.449,-1.8967e-05,0
2.4495,-2.5681e-05,0
2.45,-1.6449e-05,0
2.4505,-1.4099e-05,0
2.451,-2.1653e-05,0
2.4515,-2.7359e-05,0
2.452,-2.7695e-05,0
2.4525,-2.182e-05,0
2.453,-1.1246e-05,0
2.4535,-1.1749e-06,0
2.454,4.1962e-06,0
2.4545,1.0071e-06,0
2.455,-1.5106e-06,0
2.4555,1.5946e-05,0
2.456,5.0187e-05,0
2.4565,8.426e-05,0
2.457,0.00011011,0
2.4575,0.0001185,0
2.458,9.6513e-05,0
2.4585,5.5558e-05,0
2.459,3.3402e-05,0
2.4595,3.9445e-05,0
2.46,4.8173e-05,0
2.4605,5.9587e-05,0
2.461,7.7043e-05,0
2.4615,8.4093e-05,0
2.462,6.9657e-05,0
2.4625,4.0452e-05,0
2.463,1.0071e-06,0
2.4635,-2.887e-05,0
2.464,-3.122e-05,0
2.4645,-1.5946e-05,0
2.465,-4.8676e-06,0
2.4655,-2.182e-06,0
2.466,-3.357e-07,0
2.4665,1.2085e-05,0
2.467,3.3402e-05,0
2.4675,4.7333e-05,0
2.468,3.8773e-05,0
2.4685,9.0639e-06,0
2.469,-1.6953e-05,0
2.4695,-1.1414e-05,0
2.47,1.947e-05,0
2.4705,3.6088e-05,0
2.471,2.3667e-05,0
2.4715,1.0575e-05,0
2.472,9.9031e-06,0
2.4725,1.8967e-05,0
2.473,3.7262e-05,0
2.4735,6.0258e-05,0
2.474,5.5055e-05,0
2.4745,-3.0213e-06,0
2.475,-7.4525e-05,0
2.4755,-0.00011766,0
2.476,-0.00012605,0
2.4765,-9.4163e-05,0
2.477,-2.7359e-05,0
2.4775,2.9709e-05,0
2.478,4.5991e-05,0
2.4785,3.6423e-05,0
2.479,2.3835e-05,0
2.4795,1.6953e-05,0
2.48,1.8296e-05,0
2.4805,2.887e-05,0
2.481,4.1795e-05,0
2.4815,4.6159e-05,0
2.482,4.7669e-05,0
2.4825,5.0523e-05,0
2.483,5.4719e-05,0
2.4835,5.8244e-05,0
2.484,5.8915e-05,0
2.4845,5.1865e-05,0
2.485,4.1459e-05,0
2.4855,4.4144e-05,0
2.486,6.0258e-05,0
2.4865,8.6442e-05,0
2.487,0.00011984,0
2.4875,0.00014972,0
2.488,0.00016365,0
2.4885,0.00014955,0
2.489,0.00010356,0
2.4895,5.2537e-05,0
2.49,2.4674e-05,0
2.4905,1.9974e-05,0
2.491,2.8702e-05,0
2.4915,2.7863e-05,0
2.492,1.2589e-05,0
2.4925,2.5177e-06,0
2.493,1.7288e-05,0
2.4935,3.743e-05,0
2.494,3.4073e-05,0
2.4945,1.4267e-05,0
2.495,-5.0355e-06,0
2.4955,-1.3932e-05,0
2.496,-7.0497e-06,0
2.4965,-4.6998e-06,0
2.497,-3.1891e-05,0
2.4975,-8.2918e-05,0
2.498,-0.0001368,0
2.4985,-0.0001608,0
2.499,-0.00015241,0
2.4995,-0.00012908,0
2.5,-9.4835e-05,0
2.5005,-5.8244e-05,0
2.501,-2.7192e-05,0
2.5015,-2.6856e-06,0
2.502,1.1917e-05,0
2.5025,1.8631e-05,0
2.503,2.5177e-05,0
2.5035,3.5416e-05,0
2.504,4.8844e-05,0
2.5045,6.5629e-05,0
2.505,8.3085e-05,0
2.5055,9.4331e-05,0
2.506,9.601e-05,0
2.5065,8.9128e-05,0
2.507,8.9632e-05,0
2.5075,0.00010977,0
2.508,0.0001279,0
2.5085,0.00012404,0
2.509,0.00010994,0
2.5095,9.9199e-05,0
2.51,8.0903e-05,0
2.5105,4.0116e-05,0
2.511,0,0
2.5115,3.6927e-06,0
2.512,3.3906e-05,0
2.5125,4.7333e-05,0
2.513,4.448e-05,0
2.5135,3.592e-05,0
2.514,1.091e-05,0
2.5145,-5.069e-05,0
2.515,-0.00013999,0
2.5155,-0.00019034,0
2.516,-0.00015492,0
2.5165,-7.956e-05,0
2.517,-1.4603e-05,0
2.5175,4.5991e-05,0
2.518,9.6513e-05,0
2.5185,0.00012001,0
2.519,0.00011431,0
2.5195,8.5267e-05,0
2.52,4.1123e-05,0
2.5205,-3.8605e-06,0
2.521,-3.7934e-05,0
2.5215,-6.5629e-05,0
2.522,-8.1239e-05,0
2.5225,-6.7308e-05,0
2.523,-3.0381e-05,0
2.5235,1.8463e-06,0
2.524,2.182e-06,0
2.5245,-7.2175e-06,0
2.525,5.2033e-06,0
2.5255,3.8773e-05,0
2.526,7.5532e-05,0
2.5265,0.00010356,0
2.527,0.00012287,0
2.5275,0.00013948,0
2.528,0.00015023,0
2.5285,0.00014653,0
2.529,0.00012723,0
2.5295,8.896e-05,0
2.53,2.7359e-05,0
2.5305,-1.8296e-05,0
2.531,-4.3641e-06,0
2.5315,4.6159e-05,0
2.532,6.9657e-05,0
2.5325,4.5487e-05,0
2.533,2.6856e-06,0
2.5335,-4.683e-05,0
2.534,-0.00010524,0
2.5345,-0.00015157,0
2.535,-0.00014704,0
2.5355,-9.7856e-05,0
2.536,-5.2033e-05,0
2.5365,-2.6184e-05,0
2.537,-1.4099e-05,0
2.5375,-1.2924e-05,0
2.538,-1.8631e-05,0
2.5385,-2.8534e-05,0
2.539,-3.3738e-05,0
2.5395,-2.6352e-05,0
2.54,-5.7069e-06,0
2.5405,1.8967e-05,0
2.541,2.8031e-05,0
2.5415,1.9303e-05,0
2.542,8.392e-07,0
2.5425,-1.3596e-05,0
2.543,-8.7282e-06,0
2.5435,1.6617e-05,0
2.544,3.9277e-05,0
2.5445,5.1194e-05,0
2.545,6.6972e-05,0
2.5455,9.0471e-05,0
2.546,0.00011061,0
2.5465,0.00011783,0
2.547,0.00011044,0
2.5475,9.3828e-05,0
2.548,7.956e-05,0
2.5485,8.04e-05,0
2.549,8.2582e-05,0
2.5495,5.8076e-05,0
2.55,8.5603e-06,0
2.5505,-2.7192e-05,0
2.551,-2.2828e-05,0
2.5515,1.6617e-05,0
2.552,6.2272e-05,0
2.5525,9.0135e-05,0
2.553,0.0001034,0
2.5535,0.00010692,0
2.554,9.8527e-05,0
2.5545,8.8457e-05,0
2.555,7.7714e-05,0
2.5555,4.5487e-05,0
2.556,-1.091e-05,0
2.5565,-6.6972e-05,0
2.557,-0.00010726,0
2.5575,-0.00010961,0
2.558,-7.1336e-05,0
2.5585,-3.592e-05,0
2.559,-2.7024e-05,0
2.5595,-2.2156e-05,0
2.56,-6.8818e-06,0
2.5605,1.1917e-05,0
2.561,2.9877e-05,0
2.5615,4.5319e-05,0
2.562,4.4144e-05,0
2.5625,2.0646e-05,0
2.563,-6.714e-07,0
2.5635,-2.0142e-06,0
2.564,9.9031e-06,0
2.5645,2.7527e-05,0
2.565,4.5655e-05,0
2.5655,5.5558e-05,0
2.566,5.6062e-05,0
2.5665,5.4048e-05,0
2.567,4.5487e-05,0
2.5675,2.1317e-05,0
2.568,-6.8818e-06,0
2.5685,-1.3932e-05,0
2.569,1.2253e-05,0
2.5695,5.0019e-05,0
2.57,6.865e-05,0
2.5705,6.8818e-05,0
2.571,5.623e-05,0
2.5715,4.2466e-05,0
2.572,3.4409e-05,0
2.5725,2.9877e-05,0
2.573,3.7934e-05,0
2.5735,6.6972e-05,0
2.574,8.4093e-05,0
2.5745,7.9728e-05,0
2.575,7.5029e-05,0
2.5755,5.8579e-05,0
2.576,2.1149e-05,0
2.5765,-1.3932e-05,0
2.577,-3.2059e-05,0
2.5775,-4.5991e-05,0
2.578,-6.3279e-05,0
2.5785,-7.6707e-05,0
2.579,-8.3757e-05,0
2.5795,-8.745e-05,0
2.58,-8.8457e-05,0
2.5805,-7.7211e-05,0
2.581,-5.7572e-05,0
2.5815,-4.1962e-05,0
2.582,-2.2324e-05,0
2.5825,1.091e-05,0
2.583,4.7166e-05,0
2.5835,5.8915e-05,0
2.584,4.1459e-05,0
2.5845,3.0884e-05,0
2.585,4.1795e-05,0
2.5855,5.1194e-05,0
2.586,4.918e-05,0
2.5865,5.0523e-05,0
2.587,5.623e-05,0
2.5875,5.0523e-05,0
2.588,2.2156e-05,0
2.5885,-1.4267e-05,0
2.589,-3.4745e-05,0
2.5895,-2.3835e-05,0
2.59,7.8889e-06,0
2.5905,3.9109e-05,0
2.591,6.2104e-05,0
2.5915,6.5629e-05,0
2.592,3.7262e-05,0
2.5925,9.9031e-06,0
2.593,1.9806e-05,0
2.5935,4.7166e-05,0
2.594,6.0594e-05,0
2.5945,4.8508e-05,0
2.595,2.9038e-05,0
2.5955,2.3163e-05,0
2.596,3.122e-05,0
2.5965,4.0116e-05,0
2.597,3.7262e-05,0
2.5975,2.7192e-05,0
2.598,1.6281e-05,0
2.5985,1.2924e-05,0
2.599,2.0981e-05,0
2.5995,3.5752e-05,0
2.6,4.918e-05,0
2.6005,4.9515e-05,0
2.601,2.6352e-05,0
2.6015,-1.5106e-06,0
2.602,-1.5946e-05,0
2.6025,-2.2828e-05,0
2.603,-3.357e-05,0
2.6035,-2.9374e-05,0
2.604,9.9031e-06,0
2.6045,6.1936e-05,0
2.605,9.0639e-05,0
2.6055,9.0471e-05,0
2.606,8.04e-05,0
2.6065,7.3182e-05,0
2.607,7.1e-05,0
2.6075,7.2679e-05,0
2.608,7.0497e-05,0
2.6085,4.7166e-05,0
2.609,1.678e-07,0
2.6095,-4.5655e-05,0
2.61,-5.9587e-05,0
2.6105,-5.0187e-05,0
2.611,-3.4073e-05,0
2.6115,-1.5274e-05,0
2.612,1.3428e-06,0
2.6125,2.3331e-05,0
2.613,4.7166e-05,0
2.6135,4.7837e-05,0
2.614,3.1556e-05,0
2.6145,2.1149e-05,0
2.615,1.2924e-05,0
2.6155,-3.1891e-06,0
2.616,-3.0381e-05,0
2.6165,-5.6062e-05,0
2.617,-5.8579e-05,0
2.6175,-5.388e-05,0
2.618,-5.5894e-05,0
2.6185,-4.4312e-05,0
2.619,-1.4267e-05,0
2.6195,1.9974e-05,0
2.62,3.4241e-05,0
2.6205,2.1988e-05,0
2.621,1.5106e-06,0
2.6215,-6.3783e-06,0
2.622,1.2924e-05,0
2.6225,4.6159e-05,0
2.623,6.3615e-05,0
2.6235,5.3544e-05,0
2.624,4.7669e-05,0
2.6245,6.5461e-05,0
2.625,9.5506e-05,0
2.6255,0.00011498,0
2.626,0.00010776,0
2.6265,8.9464e-05,0
2.627,8.0064e-05,0
2.6275,7.9057e-05,0
2.628,7.1672e-05,0
2.6285,4.7166e-05,0
2.629,5.539e-06,0
2.6295,-3.2395e-05,0
2.63,-3.6423e-05,0
2.6305,-2.4842e-05,0
2.631,-1.9974e-05,0
2.6315,-1.2589e-05,0
2.632,-1.8463e-06,0
2.6325,1.1917e-05,0
2.633,4.918e-05,0
2.6335,0.00010927,0
2.634,0.00016365,0
2.6345,0.0001796,0
2.635,0.00016567,0
2.6355,0.00013814,0
2.636,8.6778e-05,0
2.6365,1.3932e-05,0
2.637,-5.2201e-05,0
2.6375,-7.335e-05,0
2.638,-6.5965e-05,0
2.6385,-7.9057e-05,0
2.639,-0.00010491,0
2.6395,-0.00011565,0
2.64,-8.9799e-05,0
2.6405,-3.8102e-05,0
2.641,2.5177e-06,0
2.6415,-1.5106e-06,0
2.642,-4.6998e-05,0
2.6425,-9.0135e-05,0
2.643,-9.1478e-05,0
2.6435,-6.0929e-05,0
2.644,-3.2563e-05,0
2.6445,-1.8296e-05,0
2.645,-1.3764e-05,0
2.6455,-6.5461e-06,0
2.646,1.1582e-05,0
2.6465,3.6423e-05,0
2.647,4.9515e-05,0
2.6475,4.8005e-05,0
2.648,4.2802e-05,0
2.6485,4.2802e-05,0
2.649,4.4312e-05,0
2.6495,3.7095e-05,0
2.65,2.3499e-05,0
2.6505,1.4939e-05,0
2.651,1.6617e-05,0
2.6515,1.1582e-05,0
2.652,-1.6281e-05,0
2.6525,-3.7262e-05,0
2.653,-2.031e-05,0
2.6535,1.7288e-05,0
2.654,4.2298e-05,0
2.6545,5.2033e-05,0
2.655,6.0761e-05,0
2.6555,6.6804e-05,0
2.656,6.4622e-05,0
2.6565,6.0594e-05,0
2.657,6.1433e-05,0
2.6575,6.0929e-05,0
2.658,4.4648e-05,0
2.6585,2.3331e-05,0
2.659,2.7527e-05,0
2.6595,5.304e-05,0
2.66,8.3421e-05,0
2.6605,0.00011363,0
2.661,0.0001368,0
2.6615,0.00014871,0
2.662,0.00014788,0
2.6625,0.0001378,0
2.663,0.00012572,0
2.6635,0.00011565,0
2.664,0.00011263,0
2.6645,9.9535e-05,0
2.665,4.2802e-05,0
2.6655,-5.069e-05,0
2.666,-0.00014636,0
2.6665,-0.00020864,0
2.667,-0.00021015,0
2.6675,-0.00016399,0
2.668,-0.00010927,0
2.6685,-5.4719e-05,0
2.669,-2.0142e-06,0
2.6695,3.2395e-05,0
2.67,4.5823e-05,0
2.6705,4.5487e-05,0
2.671,2.8534e-05,0
2.6715,7.5532e-06,0
2.672,3.0213e-06,0
2.6725,1.7624e-05,0
2.673,2.5849e-05,0
2.6735,2.3835e-05,0
2.674,2.8199e-05,0
2.6745,2.5513e-05,0
2.675,-1.8463e-06,0
2.6755,-2.2324e-05,0
2.676,-1.8631e-05,0
2.6765,-2.3499e-06,0
2.677,1.9974e-05,0
2.6775,3.7095e-05,0
2.678,5.2872e-05,0
2.6785,7.9057e-05,0
2.679,0.00010877,0
2.6795,0.00011917,0
2.68,0.0001086,0
2.6805,8.7114e-05,0
2.681,3.4409e-05,0
2.6815,-4.2802e-05,0
2.682,-9.1478e-05,0
2.6825,-9.0135e-05,0
2.683,-4.9683e-05,0
2.6835,-1.3092e-05,0
2.684,-2.9038e-05,0
2.6845,-8.3421e-05,0
2.685,-0.00010793,0
2.6855,-6.9154e-05,0
2.686,-2.182e-06,0
2.6865,4.8844e-05,0
2.687,7.4693e-05,0
2.6875,8.1407e-05,0
2.688,7.4525e-05,0
2.6885,6.4286e-05,0
2.689,7.3518e-05,0
2.6895,9.5506e-05,0
2.69,0.00010037,0
2.6905,7.8889e-05,0
2.691,5.4215e-05,0
2.6915,4.0452e-05,0
2.692,2.3331e-05,0
2.6925,-8.7282e-06,0
2.693,-4.5487e-05,0
2.6935,-5.539e-05,0
2.694,-2.7527e-05,0
2.6945,1.0239e-05,0
2.695,2.5009e-05,0
2.6955,2.7024e-05,0
2.696,4.5487e-05,0
2.6965,7.3014e-05,0
2.697,8.1743e-05,0
2.6975,7.9896e-05,0
2.698,8.6442e-05,0
2.6985,9.6513e-05,0
2.699,9.5506e-05,0
2.6995,8.2078e-05,0
2.7,7.6371e-05,0
2.7005,9.2317e-05,0
2.701,0.00011867,0
2.7015,0.00012605,0
2.702,9.5506e-05,0
2.7025,5.3544e-05,0
2.703,3.2059e-05,0
2.7035,2.4674e-05,0
2.704,7.7211e-06,0
2.7045,-2.7695e-05,0
2.705,-0.00010037,0
2.7055,-0.00022475,0
2.706,-0.00033083,0
2.7065,-0.00030666,0
2.707,-0.00017053,0
2.7075,-5.9419e-05,0
2.708,-3.5752e-05,0
2.7085,-4.1123e-05,0
2.709,-2.5009e-05,0
2.7095,9.2317e-06,0
2.71,3.4745e-05,0
2.7105,4.0116e-05,0
2.711,3.2731e-05,0
2.7115,2.5849e-05,0
2.712,2.7863e-05,0
2.7125,3.4577e-05,0
2.713,4.1459e-05,0
2.7135,5.1194e-05,0
2.714,6.1265e-05,0
2.7145,6.8315e-05,0
2.715,7.1672e-05,0
2.7155,7.0329e-05,0
2.716,5.8244e-05,0
2.7165,3.743e-05,0
2.717,3.3066e-05,0
2.7175,6.3615e-05,0
2.718,0.00010457,0
2.7185,0.00011162,0
2.719,7.9896e-05,0
2.7195,5.5222e-05,0
2.72,5.3376e-05,0
2.7205,5.4551e-05,0
2.721,4.5991e-05,0
2.7215,3.4409e-05,0
2.722,2.9709e-05,0
2.7225,2.8702e-05,0
2.723,2.0813e-05,0
2.7235,7.8889e-06,0
2.724,-3.357e-06,0
2.7245,-9.7353e-06,0
2.725,-6.8818e-06,0
2.7255,9.7353e-06,0
2.726,1.8631e-05,0
2.7265,-1.3596e-05,0
2.727,-6.3951e-05,0
2.7275,-6.4622e-05,0
2.728,-6.8818e-06,0
2.7285,4.1962e-05,0
2.729,4.6159e-05,0
2.7295,4.213e-05,0
2.73,4.8173e-05,0
2.7305,5.5894e-05,0
2.731,6.3111e-05,0
2.7315,7.335e-05,0
2.732,8.5603e-05,0
2.7325,9.6513e-05,0
2.733,0.00010289,0
2.7335,0.00010726,0
2.734,0.00010726,0
2.7345,9.1142e-05,0
2.735,5.9419e-05,0
2.7355,2.5009e-05,0
2.736,-1.5106e-06,0
2.7365,-1.5946e-05,0
2.737,-2.1653e-05,0
2.7375,-2.8702e-05,0
2.738,-4.3809e-05,0
2.7385,-4.2634e-05,0
2.739,-1.3596e-05,0
2.7395,7.3854e-06,0
2.74,-1.1917e-05,0
2.7405,-5.6565e-05,0
2.741,-0.00010172,0
2.7415,-0.00011917,0
2.742,-8.51e-05,0
2.7425,-3.1052e-05,0
2.743,-1.6281e-05,0
2.7435,-4.2802e-05,0
2.744,-4.8005e-05,0
2.7445,-1.3596e-05,0
2.745,1.9974e-05,0
2.7455,3.4409e-05,0
2.746,3.7766e-05,0
2.7465,3.8437e-05,0
2.747,4.1795e-05,0
2.7475,4.0787e-05,0
2.748,3.978e-05,0
2.7485,5.153e-05,0
2.749,5.3544e-05,0
2.7495,2.4338e-05,0
2.75,-6.2104e-06,0
2.7505,-5.035e-07,0
2.751,3.6759e-05,0
2.7515,7.0329e-05,0
2.752,6.8147e-05,0
2.7525,2.5681e-05,0
2.753,2.5177e-06,0
2.7535,2.9374e-05,0
2.754,6.2944e-05,0
2.7545,6.1265e-05,0
2.755,4.2802e-05,0
2.7555,4.6159e-05,0
2.756,6.63e-05,0
2.7565,8.6946e-05,0
2.757,9.2821e-05,0
2.7575,6.865e-05,0
2.758,3.3738e-05,0
2.7585,1.2924e-05,0
2.759,2.182e-06,0
2.7595,1.1749e-06,0
2.76,2.3835e-05,0
2.7605,5.6901e-05,0
2.761,9.2821e-05,0
2.7615,0.00012656,0
2.762,0.00013797,0
2.7625,0.00012471,0
2.763,8.5771e-05,0
2.7635,1.8967e-05,0
2.764,-3.978e-05,0
2.7645,-5.7069e-05,0
2.765,-5.5558e-05,0
2.7655,-7.8218e-05,0
2.766,-0.0001237,0
2.7665,-0.00014368,0
2.767,-0.00011833,0
2.7675,-6.5965e-05,0
2.768,-1.7121e-05,0
2.7685,1.0071e-05,0
2.769,2.4002e-05,0
2.7695,4.2802e-05,0
2.77,6.0258e-05,0
2.7705,6.3279e-05,0
2.771,5.5894e-05,0
2.7715,5.4719e-05,0
2.772,6.8315e-05,0
2.7725,9.7856e-05,0
2.773,0.00012538,0
2.7735,0.00011666,0
2.774,5.539e-05,0
2.7745,-2.3499e-06,0
2.775,1.8631e-05,0
2.7755,9.2485e-05,0
2.776,0.00014217,0
2.7765,0.00013109,0
2.777,4.1123e-05,0
2.7775,-0.00011363,0
2.778,-0.00024607,0
2.7785,-0.00026571,0
2.779,-0.00018346,0
2.7795,-9.2653e-05,0
2.78,-3.978e-05,0
2.7805,-3.0213e-06,0
2.781,3.3234e-05,0
2.7815,5.6062e-05,0
2.782,5.4215e-05,0
2.7825,2.7527e-05,0
2.783,-6.2104e-06,0
2.7835,-1.6281e-05,0
2.784,9.2317e-06,0
2.7845,4.448e-05,0
2.785,4.1962e-05,0
2.7855,-1.8463e-06,0
2.786,-2.8702e-05,0
2.7865,-2.0142e-06,0
2.787,4.7333e-05,0
2.7875,6.5629e-05,0
2.788,4.8844e-05,0
2.7885,3.592e-05,0
2.789,4.2802e-05,0
2.7895,5.6901e-05,0
2.79,7.6371e-05,0
2.7905,9.5506e-05,0
2.791,0.00010188,0
2.7915,9.6178e-05,0
2.792,6.5965e-05,0
2.7925,2.8702e-05,0
2.793,3.1724e-05,0
2.7935,6.2272e-05,0
2.794,7.6371e-05,0
2.7945,7.1e-05,0
2.795,5.2705e-05,0
2.7955,2.7359e-05,0
2.796,9.9031e-06,0
2.7965,-8.2246e-06,0
2.797,-2.7192e-05,0
2.7975,-2.031e-05,0
2.798,9.0639e-06,0
2.7985,1.5946e-05,0
2.799,-1.1917e-05,0
2.7995,-1.1917e-05,0
2.8,5.2872e-05,0
2.8005,0.0001274,0
2.801,0.0001556,0
2.8015,0.00014821,0
2.802,0.00011498,0
2.8025,6.63e-05,0
2.803,3.6088e-05,0
2.8035,2.6352e-05,0
2.804,7.8889e-06,0
2.8045,-2.3667e-05,0
2.805,-7.57e-05,0
2.8055,-0.0001425,0
2.806,-0.00017255,0
2.8065,-0.00013613,0
2.807,-6.6972e-05,0
2.8075,-5.539e-06,0
2.808,2.6688e-05,0
2.8085,3.0045e-05,0
2.809,2.7359e-05,0
2.8095,3.6423e-05,0
2.81,6.0594e-05,0
2.8105,8.0064e-05,0
2.811,7.805e-05,0
2.8115,7.8721e-05,0
2.812,9.5674e-05,0
2.8125,9.3156e-05,0
2.813,4.0116e-05,0
2.8135,-2.182e-05,0
2.814,-6.0761e-05,0
2.8145,-8.1071e-05,0
2.815,-6.7643e-05,0
2.8155,-1.8128e-05,0
2.816,2.8367e-05,0
2.8165,2.8702e-05,0
2.817,3.8605e-06,0
2.8175,-1.4267e-05,0
2.818,-2.8367e-05,0
2.8185,-3.6759e-05,0
2.819,-3.0884e-05,0
2.8195,-1.7624e-05,0
2.82,-4.5319e-06,0
2.8205,-5.539e-06,0
2.821,-1.7792e-05,0
2.8215,-6.714e-07,0
2.822,4.683e-05,0
2.8225,8.1407e-05,0
2.823,6.63e-05,0
2.8235,6.714e-07,0
2.824,-6.1936e-05,0
2.8245,-6.2272e-05,0
2.825,-2.0478e-05,0
2.8255,2.5345e-05,0
2.826,6.1265e-05,0
2.8265,7.9393e-05,0
2.827,9.1646e-05,0
2.8275,0.0001044,0
2.828,7.7714e-05,0
2.8285,-1.7456e-05,0
2.829,-0.00013713,0
2.8295,-0.00017675,0
2.83,-0.00010994,0
2.8305,-2.031e-05,0
2.831,3.5416e-05,0
2.8315,7.0664e-05,0
2.832,0.00010155,0
2.8325,0.00013008,0
2.833,0.00014737,0
2.8335,0.0001519,0
2.834,0.00015677,0
2.8345,0.00016365,0
2.835,0.0001744,0
2.8355,0.00018849,0
2.836,0.00018413,0
2.8365,0.00014452,0
2.837,5.8412e-05,0
2.8375,-3.9277e-05,0
2.838,-0.00011598,0
2.8385,-0.00020528,0
2.839,-0.00026453,0
2.8395,-0.0002031,0
2.84,-9.366e-05,0
2.8405,-4.2298e-05,0
2.841,-2.5177e-05,0
2.8415,6.714e-06,0
2.842,5.304e-05,0
2.8425,7.6371e-05,0
2.843,4.3473e-05,0
2.8435,-9.7353e-06,0
2.844,-2.0981e-05,0
2.8445,1.4267e-05,0
2.845,5.623e-05,0
2.8455,6.5293e-05,0
2.846,5.0523e-05,0
2.8465,5.0858e-05,0
2.847,6.7979e-05,0
2.8475,8.7617e-05,0
2.848,0.00010893,0
2.8485,0.000118,0
2.849,7.5029e-05,0
2.8495,-1.5274e-05,0
2.85,-3.9277e-05,0
2.8505,4.2802e-05,0
2.851,0.00013613,0
2.8515,0.00013579,0
2.852,6.1601e-05,0
2.8525,1.8128e-05,0
2.853,1.6617e-05,0
2.8535,-3.8102e-05,0
2.854,-0.00017943,0
2.8545,-0.00026923,0
2.855,-0.00020864,0
2.8555,-8.2078e-05,0
2.856,1.0575e-05,0
2.8565,5.9922e-05,0
2.857,6.5965e-05,0
2.8575,2.7863e-05,0
2.858,-6.8818e-06,0
2.8585,1.0071e-06,0
2.859,3.8437e-05,0
2.8595,7.6036e-05,0
2.86,9.3828e-05,0
2.8605,8.6778e-05,0
2.861,8.6275e-05,0
2.8615,0.00010524,0
2.862,7.6036e-05,0
2.8625,-2.5849e-05,0
2.863,-9.752e-05,0
2.8635,-5.8076e-05,0
2.864,1.8967e-05,0
2.8645,5.2537e-05,0
2.865,4.2634e-05,0
2.8655,2.1149e-05,0
2.866,2.9709e-05,0
2.8665,6.1936e-05,0
2.867,7.6371e-05,0
2.8675,7.9393e-05,0
2.868,8.9967e-05,0
2.8685,9.5171e-05,0
2.869,8.2414e-05,0
2.8695,4.213e-05,0
2.87,-3.0716e-05,0
2.8705,-8.9128e-05,0
2.871,-7.3518e-05,0
2.8715,4.3809e-05,0
2.872,0.00017641,0
2.8725,0.00021468,0
2.873,0.00017792,0
2.8735,0.00012303,0
2.874,6.4958e-05,0
2.8745,8.7282e-06,0
2.875,-5.0523e-05,0
2.8755,-0.00012169,0
2.876,-0.00018547,0
2.8765,-0.00018984,0
2.877,-0.0001227,0
2.8775,-4.2466e-05,0
2.878,-3.8605e-06,0
2.8785,-5.0355e-06,0
2.879,-1.3092e-05,0
2.8795,-9.3996e-06,0
2.88,2.0142e-06,0
2.8805,1.2421e-05,0
2.881,2.7024e-05,0
2.8815,4.3305e-05,0
2.882,5.0858e-05,0
2.8825,5.1194e-05,0
2.883,4.7837e-05,0
2.8835,1.9638e-05,0
2.884,-3.2563e-05,0
2.8845,-4.7669e-05,0
2.885,1.6449e-05,0
2.8855,0.00010759,0
2.886,0.00014183,0
2.8865,0.00012303,0
2.887,0.00012136,0
2.8875,0.0001425,0
2.888,0.00012673,0
2.8885,5.9922e-05,0
2.889,2.182e-05,0
2.8895,4.7333e-05,0
2.89,5.8244e-05,0
2.8905,2.8534e-06,0
2.891,-4.3137e-05,0
2.8915,-1.7288e-05,0
2.892,3.5416e-05,0
2.8925,7.5029e-05,0
2.893,8.2078e-05,0
2.8935,3.6759e-05,0
2.894,-1.9806e-05,0
2.8945,-2.8534e-05,0
2.895,-1.091e-05,0
2.8955,-2.182e-05,0
2.896,-7.5364e-05,0
2.8965,-0.00014183,0
2.897,-0.0001707,0
2.8975,-0.00013277,0
2.898,-4.7333e-05,0
2.8985,4.0619e-05,0
2.899,9.2821e-05,0
2.8995,9.7856e-05,0
2.9,9.2485e-05,0
2.9005,0.00013613,0
2.901,0.00019538,0
2.9015,0.00020612,0
2.902,0.00016365,0
2.9025,7.6707e-05,0
2.903,-3.3066e-05,0
2.9035,-0.0001331,0
2.904,-0.00019739,0
2.9045,-0.00019118,0
2.905,-0.00011783,0
2.9055,-3.6759e-05,0
2.906,1.9135e-05,0
2.9065,4.7837e-05,0
2.907,4.6998e-05,0
2.9075,3.827e-05,0
2.908,4.3809e-05,0
2.9085,4.4144e-05,0
2.909,1.6617e-05,0
2.9095,-1.5106e-05,0
2.91,-1.2253e-05,0
2.9105,1.8631e-05,0
2.911,2.7024e-05,0
2.9115,-1.8296e-05,0
2.912,-8.6946e-05,0
2.9125,-0.00011766,0
2.913,-8.0064e-05,0
2.9135,-2.7192e-05,0
2.914,1.3764e-05,0
2.9145,6.6636e-05,0
2.915,0.00012471,0
2.9155,0.00015358,0
2.916,0.00015291,0
2.9165,0.00015341,0
2.917,0.00015929,0
2.9175,0.00014385,0
2.918,5.7572e-05,0
2.9185,-8.6946e-05,0
2.919,-0.00019202,0
2.9195,-0.00020427,0
2.92,-0.0001462,0
2.9205,-9.2653e-05,0
2.921,-5.8076e-05,0
2.9215,5.8747e-06,0
2.922,9.3156e-05,0
2.9225,0.00014855,0
2.923,0.00014351,0
2.9235,9.6513e-05,0
2.924,5.153e-05,0
2.9245,4.7837e-05,0
2.925,9.1142e-05,0
2.9255,0.00011682,0
2.926,8.745e-05,0
2.9265,4.5487e-05,0
2.927,3.508e-05,0
2.9275,3.7262e-05,0
2.928,2.7695e-05,0
2.9285,2.1653e-05,0
2.929,1.6114e-05,0
2.9295,4.5319e-06,0
2.93,0,0
2.9305,-4.1962e-06,0
2.931,-1.4939e-05,0
2.9315,-1.1078e-05,0
2.932,3.2059e-05,0
2.9325,9.2485e-05,0
2.933,0.00014401,0
2.9335,0.00017171,0
2.934,0.00014116,0
2.9345,4.7669e-05,0
2.935,-6.7979e-05,0
2.9355,-0.00013931,0
2.936,-0.00012152,0
2.9365,-3.2227e-05,0
2.937,3.8605e-05,0
2.9375,2.8702e-05,0
2.938,-2.4002e-05,0
2.9385,-5.0355e-05,0
2.939,-4.2634e-05,0
2.9395,-2.031e-05,0
2.94,2.5177e-05,0
2.9405,9.0303e-05,0
2.941,0.00013596,0
2.9415,0.0001321,0
2.942,0.00010021,0
2.9425,8.04e-05,0
2.943,8.9967e-05,0
2.9435,9.1142e-05,0
2.944,3.5584e-05,0
2.9445,-6.5126e-05,0
2.945,-0.00013428,0
2.9455,-0.0001274,0
2.946,-7.7043e-05,0
2.9465,-2.5345e-05,0
2.947,-7.5532e-06,0
2.9475,-1.0071e-06,0
2.948,1.0575e-05,0
2.9485,-5.539e-06,0
2.949,-2.9709e-05,0
2.9495,-1.9303e-05,0
2.95,-4.1962e-06,0
2.9505,-1.7456e-05,0
2.951,-3.6423e-05,0
2.9515,-2.6856e-05,0
2.952,5.0355e-06,0
2.9525,4.6998e-05,0
2.953,8.9128e-05,0
2.9535,8.4932e-05,0
2.954,3.0884e-05,0
2.9545,4.1962e-06,0
2.955,1.6617e-05,0
2.9555,-3.357e-06,0
2.956,-6.0258e-05,0
2.9565,-7.7043e-05,0
2.957,-4.0452e-05,0
2.9575,1.091e-05,0
2.958,5.6565e-05,0
2.9585,7.1e-05,0
2.959,4.448e-05,0
2.9595,6.2104e-06,0
2.96,-6.2104e-06,0
2.9605,1.9638e-05,0
2.961,5.6901e-05,0
2.9615,8.0232e-05,0
2.962,8.0064e-05,0
2.9625,6.8315e-05,0
2.963,6.3111e-05,0
2.9635,6.8147e-05,0
2.964,6.1936e-05,0
2.9645,5.2705e-05,0
2.965,7.2343e-05,0
2.9655,9.8863e-05,0
2.966,0.00010927,0
2.9665,0.00010188,0
2.967,6.5126e-05,0
2.9675,4.1962e-06,0
2.968,-9.5674e-06,0
2.9685,4.683e-05,0
2.969,9.2149e-05,0
2.9695,8.2078e-05,0
2.97,4.5151e-05,0
2.9705,2.7359e-05,0
2.971,2.9374e-05,0
2.9715,1.5274e-05,0
2.972,-6.0426e-06,0
2.9725,-1.1078e-05,0
2.973,-3.6759e-05,0
2.9735,-8.3421e-05,0
2.974,-8.275e-05,0
2.9745,-3.2731e-05,0
2.975,8.5603e-06,0
2.9755,1.091e-05,0
2.976,-3.357e-06,0
2.9765,-1.5442e-05,0
2.977,-2.7695e-05,0
2.9775,-2.3499e-05,0
2.978,6.5461e-06,0
2.9785,3.9445e-05,0
2.979,5.8412e-05,0
2.9795,5.8915e-05,0
2.98,4.4816e-05,0
2.9805,3.4073e-05,0
2.981,3.3738e-05,0
2.9815,1.5946e-05,0
2.982,-1.8967e-05,0
2.9825,-3.2395e-05,0
2.983,-1.2253e-05,0
2.9835,2.0478e-05,0
2.984,3.6759e-05,0
2.9845,3.2731e-05,0
2.985,2.1317e-05,0
2.9855,1.9135e-05,0
2.986,4.3473e-05,0
2.9865,9.4163e-05,0
2.987,0.00014586,0
2.9875,0.00016197,0
2.988,0.00013243,0
2.9885,9.5506e-05,0
2.989,7.6036e-05,0
2.9895,4.5319e-05,0
2.99,-2.5009e-05,0
2.9905,-0.00011246,0
2.991,-0.00013495,0
2.9915,-6.1936e-05,0
2.992,2.0813e-05,0
2.9925,5.774e-05,0
2.993,7.0497e-05,0
2.9935,8.275e-05,0
2.994,8.1071e-05,0
2.9945,2.2324e-05,0
2.995,-9.4331e-05,0
2.9955,-0.00015442,0
2.996,-9.6178e-05,0
2.9965,-1.796e-05,0
2.997,-2.1317e-05,0
2.9975,-6.4118e-05,0
2.998,-6.3111e-05,0
2.9985,-3.1388e-05,0
2.999,-1.1246e-05,0
2.9995,6.5461e-06,0
3,5.388e-05,0
3.0005,0.00011128,0
3.001,0.00012136,0
3.0015,8.0735e-05,0
3.002,4.8173e-05,0
3.0025,5.8915e-05,0
3.003,6.7979e-05,0
3.0035,1.1582e-05,0
3.004,-7.5532e-05,0
3.0045,-0.00012555,0
3.005,-0.00013579,0
3.0055,-0.00012354,0
3.006,-6.8818e-05,0
3.0065,1.2924e-05,0
3.007,6.1265e-05,0
3.0075,6.4118e-05,0
3.008,5.153e-05,0
3.0085,4.8173e-05,0
3.009,5.2201e-05,0
3.0095,5.388e-05,0
3.01,5.9251e-05,0
3.0105,5.3544e-05,0
3.011,2.1317e-05,0
3.0115,-1.1917e-05,0
3.012,-1.2757e-05,0
3.0125,1.947e-05,0
3.013,6.3951e-05,0
3.0135,8.7617e-05,0
3.014,8.8457e-05,0
3.0145,9.3492e-05,0
3.015,9.3156e-05,0
3.0155,6.1601e-05,0
3.016,3.3234e-05,0
3.0165,1.9806e-05,0
3.017,-2.0813e-05,0
3.0175,-6.865e-05,0
3.018,-5.4048e-05,0
3.0185,3.6088e-05,0
3.019,0.00014334,0
3.0195,0.00020562,0
3.02,0.00020327,0
3.0205,0.00014536,0
3.021,7.4693e-05,0
3.0215,6.0929e-05,0
3.022,8.5435e-05,0
3.0225,3.1052e-05,0
3.023,-0.00012438,0
3.0235,-0.00023885,0
3.024,-0.00023197,0
3.0245,-0.00014553,0
3.025,-5.8412e-05,0
3.0255,-1.6281e-05,0
3.026,-1.3932e-05,0
3.0265,-2.5681e-05,0
3.027,-3.8437e-05,0
3.0275,-5.4551e-05,0
3.028,-6.0929e-05,0
3.0285,-2.7527e-05,0
3.029,3.743e-05,0
3.0295,6.0929e-05,0
3.03,1.9135e-05,0
3.0305,-2.5345e-05,0
3.031,-2.4338e-05,0
3.0315,1.091e-05,0
3.032,4.9851e-05,0
3.0325,6.8315e-05,0
3.033,7.1336e-05,0
3.0335,6.7643e-05,0
3.034,5.1865e-05,0
3.0345,3.357e-05,0
3.035,3.4745e-05,0
3.0355,6.3615e-05,0
3.036,0.00010037,0
3.0365,0.00011128,0
3.037,8.9128e-05,0
3.0375,4.2802e-05,0
3.038,5.7069e-06,0
3.0385,1.5106e-05,0
3.039,7.3686e-05,0
3.0395,0.00013613,0
3.04,0.00015073,0
3.0405,0.00011565,0
3.041,5.623e-05,0
3.0415,-1.9135e-05,0
3.042,-8.0735e-05,0
3.0425,-7.8721e-05,0
3.043,-3.2395e-05,0
3.0435,-7.8889e-06,0
3.044,-2.031e-05,0
3.0445,-2.9206e-05,0
3.045,-1.2253e-05,0
3.0455,1.947e-05,0
3.046,4.9348e-05,0
3.0465,7.4861e-05,0
3.047,7.6707e-05,0
3.0475,3.6759e-05,0
3.048,-7.5532e-06,0
3.0485,-2.0142e-05,0
3.049,-7.3854e-06,0
3.0495,3.5248e-06,0
3.05,-5.035e-07,0
3.0505,-3.5248e-06,0
3.051,6.2104e-06,0
3.0515,2.4674e-05,0
3.052,3.4745e-05,0
3.0525,4.0619e-05,0
3.053,6.7643e-05,0
3.0535,8.9464e-05,0
3.054,7.0497e-05,0
3.0545,4.8844e-05,0
3.055,5.3544e-05,0
3.0555,4.9348e-05,0
3.056,5.0858e-05,0
3.0565,5.3208e-05,0
3.057,3.1052e-05,0
3.0575,1.9638e-05,0
3.058,3.4745e-05,0
3.0585,4.7501e-05,0
3.059,2.7359e-05,0
3.0595,-2.1653e-05,0
3.06,-6.3951e-05,0
3.0605,-8.8792e-05,0
3.061,-9.2989e-05,0
3.0615,-9.0806e-05,0
3.062,-9.0806e-05,0
3.0625,-4.5823e-05,0
3.063,5.623e-05,0
3.0635,0.00013764,0
3.064,0.000142,0
3.0645,0.00011196,0
3.065,9.7017e-05,0
3.0655,7.1e-05,0
3.066,-1.0742e-05,0
3.0665,-0.00011414,0
3.067,-0.00017238,0
3.0675,-0.00016265,0
3.068,-8.3421e-05,0
3.0685,2.8031e-05,0
3.069,0.00010323,0
3.0695,0.00011347,0
3.07,0.00010256,0
3.0705,0.00013344,0
3.071,0.00017288,0
3.0715,0.00014183,0
3.072,6.2608e-05,0
3.0725,-1.678e-07,0
3.073,-4.1962e-06,0
3.0735,4.213e-05,0
3.074,7.4693e-05,0
3.0745,1.8631e-05,0
3.075,-8.2078e-05,0
3.0755,-0.00010524,0
3.076,-4.5991e-05,0
3.0765,3.0213e-06,0
3.077,1.2589e-05,0
3.0775,2.6688e-05,0
3.078,3.6591e-05,0
3.0785,3.357e-07,0
3.079,-8.2582e-05,0
3.0795,-0.0001744,0
3.08,-0.00021485,0
3.0805,-0.00016835,0
3.081,-6.2944e-05,0
3.0815,2.5345e-05,0
3.082,7.1336e-05,0
3.0825,0.00010037,0
3.083,0.0001227,0
3.0835,0.0001232,0
3.084,0.00010457,0
3.0845,9.2149e-05,0
3.085,7.805e-05,0
3.0855,2.8702e-05,0
3.086,-2.2324e-05,0
3.0865,-1.0239e-05,0
3.087,3.7934e-05,0
3.0875,6.0594e-05,0
3.088,6.949e-05,0
3.0885,8.0735e-05,0
3.089,8.3757e-05,0
3.0895,8.4093e-05,0
3.09,9.0639e-05,0
3.0905,9.4163e-05,0
3.091,9.0471e-05,0
3.0915,7.9728e-05,0
3.092,4.9515e-05,0
3.0925,1.3764e-05,0
3.093,2.8534e-06,0
3.0935,2.887e-05,0
3.094,6.5629e-05,0
3.0945,6.244e-05,0
3.095,4.3137e-05,0
3.0955,6.4286e-05,0
3.096,8.5435e-05,0
3.0965,4.3977e-05,0
3.097,-6.5293e-05,0
3.0975,-0.0002078,0
3.098,-0.00025698,0
