0,0,0
0.0005,0,0
0.001,0,0
0.0015,0,0
0.002,0,0
0.0025,0,0
0.003,0,0
0.0035,0,0
0.004,0,0
0.0045,0,0
0.005,0,0
0.0055,0,0
0.006,0,0
0.0065,0,0
0.007,0,0
0.0075,0,0
0.008,0,0
0.0085,0,0
0.009,0,0
0.0095,0,0
0.01,0,0
0.0105,0,0
0.011,0,0
0.0115,0,0
0.012,0,0
0.0125,0,0
0.013,1.8128e-05,0
0.0135,1.8128e-05,0
0.014,1.8463e-05,0
0.0145,1.8631e-05,0
0.015,1.9638e-05,0
0.0155,2.266e-05,0
0.016,2.5009e-05,0
0.0165,2.3331e-05,0
0.017,1.9806e-05,0
0.0175,1.7624e-05,0
0.018,1.7792e-05,0
0.0185,1.796e-05,0
0.019,1.8631e-05,0
0.0195,1.8463e-05,0
0.02,1.8631e-05,0
0.0205,1.9974e-05,0
0.021,2.031e-05,0
0.0215,1.8631e-05,0
0.022,1.8296e-05,0
0.0225,2.0981e-05,0
0.023,2.2995e-05,0
0.0235,2.1149e-05,0
0.024,1.796e-05,0
0.0245,1.6953e-05,0
0.025,1.8967e-05,0
0.0255,2.1317e-05,0
0.026,2.182e-05,0
0.0265,1.9974e-05,0
0.027,1.9638e-05,0
0.0275,2.1653e-05,0
0.028,2.1149e-05,0
0.0285,1.9974e-05,0
0.029,2.1317e-05,0
0.0295,2.2995e-05,0
0.03,2.1988e-05,0
0.0305,1.8631e-05,0
0.031,1.8296e-05,0
0.0315,1.947e-05,0
0.032,1.7624e-05,0
0.0325,1.5274e-05,0
0.033,1.561e-05,0
0.0335,1.5106e-05,0
0.034,1.3764e-05,0
0.0345,1.326e-05,0
0.035,1.326e-05,0
0.0355,1.3764e-05,0
0.036,1.326e-05,0
0.0365,1.326e-05,0
0.037,1.4771e-05,0
0.0375,1.4435e-05,0
0.038,1.3596e-05,0
0.0385,1.326e-05,0
0.039,1.3596e-05,0
0.0395,1.4939e-05,0
0.04,1.6281e-05,0
0.0405,1.5946e-05,0
0.041,1.4939e-05,0
0.0415,1.4771e-05,0
0.042,1.4939e-05,0
0.0425,1.6281e-05,0
0.043,1.8631e-05,0
0.0435,2.0478e-05,0
0.044,2.1317e-05,0
0.0445,2.2492e-05,0
0.045,2.182e-05,0
0.0455,2.0646e-05,0
0.046,2.1149e-05,0
0.0465,2.2492e-05,0
0.047,2.1317e-05,0
0.0475,1.9806e-05,0
0.048,1.8631e-05,0
0.0485,1.9303e-05,0
0.049,1.9135e-05,0
0.0495,1.7792e-05,0
0.05,1.5274e-05,0
0.0505,1.4267e-05,0
0.051,1.4603e-05,0
0.0515,1.5274e-05,0
0.052,1.5274e-05,0
0.0525,1.6617e-05,0
0.053,1.9638e-05,0
0.0535,2.1317e-05,0
0.054,2.0646e-05,0
0.0545,2.0646e-05,0
0.055,2.0646e-05,0
0.0555,1.9638e-05,0
0.056,1.9806e-05,0
0.0565,2.1317e-05,0
0.057,2.2995e-05,0
0.0575,2.4338e-05,0
0.058,2.3667e-05,0
0.0585,2.182e-05,0
0.059,2.1317e-05,0
0.0595,2.2324e-05,0
0.06,2.1317e-05,0
0.0605,2.0478e-05,0
0.061,2.0646e-05,0
0.0615,2.2156e-05,0
0.062,2.4338e-05,0
0.0625,2.4674e-05,0
0.063,2.3667e-05,0
0.0635,2.2828e-05,0
0.064,2.266e-05,0
0.0645,2.3835e-05,0
0.065,2.5345e-05,0
0.0655,2.4674e-05,0
0.066,2.3835e-05,0
0.0665,2.3331e-05,0
0.067,2.3163e-05,0
0.0675,2.2156e-05,0
0.068,2.1317e-05,0
0.0685,2.031e-05,0
0.069,2.0646e-05,0
0.0695,2.0813e-05,0
0.07,2.0478e-05,0
0.0705,2.1149e-05,0
0.071,2.2995e-05,0
0.0715,2.2995e-05,0
0.072,2.1317e-05,0
0.0725,1.9806e-05,0
0.073,1.9303e-05,0
0.0735,1.9638e-05,0
0.074,1.8799e-05,0
0.0745,1.8631e-05,0
0.075,2.182e-05,0
0.0755,2.5849e-05,0
0.076,2.6017e-05,0
0.0765,2.3331e-05,0
0.077,2.1988e-05,0
0.0775,2.3163e-05,0
0.078,2.4338e-05,0
0.0785,2.3499e-05,0
0.079,2.182e-05,0
0.0795,2.0813e-05,0
0.08,1.9806e-05,0
0.0805,1.8463e-05,0
0.081,1.7121e-05,0
0.0815,1.6953e-05,0
0.082,1.8967e-05,0
0.0825,1.9806e-05,0
0.083,1.9638e-05,0
0.0835,1.947e-05,0
0.084,1.8631e-05,0
0.0845,1.7624e-05,0
0.085,1.8296e-05,0
0.0855,1.9303e-05,0
0.086,1.8631e-05,0
0.0865,1.7624e-05,0
0.087,1.7624e-05,0
0.0875,1.8631e-05,0
0.088,1.8631e-05,0
0.0885,1.8967e-05,0
0.089,2.0981e-05,0
0.0895,2.2324e-05,0
0.09,2.1653e-05,0
0.0905,2.1317e-05,0
0.091,2.1988e-05,0
0.0915,2.1653e-05,0
0.092,2.0981e-05,0
0.0925,2.0646e-05,0
0.093,2.0478e-05,0
0.0935,2.1988e-05,0
0.094,2.2492e-05,0
0.0945,2.1988e-05,0
0.095,2.2324e-05,0
0.0955,2.1317e-05,0
0.096,1.8631e-05,0
0.0965,1.6785e-05,0
0.097,1.5946e-05,0
0.0975,1.4939e-05,0
0.098,1.4939e-05,0
0.0985,1.6617e-05,0
0.099,1.7288e-05,0
0.0995,1.7288e-05,0
0.1,1.7792e-05,0
0.1005,1.8463e-05,0
0.101,1.8967e-05,0
0.1015,2.031e-05,0
0.102,2.1149e-05,0
0.1025,2.1317e-05,0
0.103,2.1317e-05,0
0.1035,2.182e-05,0
0.104,2.1317e-05,0
0.1045,2.031e-05,0
0.105,1.7288e-05,0
0.1055,1.5274e-05,0
0.106,1.4267e-05,0
0.1065,1.4939e-05,0
0.107,1.6449e-05,0
0.1075,1.7121e-05,0
0.108,1.7288e-05,0
0.1085,1.6617e-05,0
0.109,1.7288e-05,0
0.1095,1.9974e-05,0
0.11,2.1317e-05,0
0.1105,2.1988e-05,0
0.111,2.1317e-05,0
0.1115,2.1653e-05,0
0.112,2.1988e-05,0
0.1125,1.8967e-05,0
0.113,1.6617e-05,0
0.1135,1.7288e-05,0
0.114,1.7624e-05,0
0.1145,1.6953e-05,0
0.115,1.4939e-05,0
0.1155,1.5274e-05,0
0.116,1.6617e-05,0
0.1165,1.7624e-05,0
0.117,1.7288e-05,0
0.1175,1.5946e-05,0
0.118,1.4099e-05,0
0.1185,1.2589e-05,0
0.119,1.326e-05,0
0.1195,1.4603e-05,0
0.12,1.6617e-05,0
0.1205,1.796e-05,0
0.121,1.7288e-05,0
0.1215,1.5778e-05,0
0.122,1.6617e-05,0
0.1225,2.0646e-05,0
0.123,2.3667e-05,0
0.1235,2.4002e-05,0
0.124,2.4002e-05,0
0.1245,2.2492e-05,0
0.125,2.0981e-05,0
0.1255,2.1317e-05,0
0.126,2.2324e-05,0
0.1265,2.1149e-05,0
0.127,2.0142e-05,0
0.1275,2.031e-05,0
0.128,2.1317e-05,0
0.1285,2.3163e-05,0
0.129,2.4674e-05,0
0.1295,2.3667e-05,0
0.13,2.266e-05,0
0.1305,2.1317e-05,0
0.131,2.031e-05,0
0.1315,1.8631e-05,0
0.132,1.8631e-05,0
0.1325,1.9974e-05,0
0.133,2.1653e-05,0
0.1335,2.2995e-05,0
0.134,2.2156e-05,0
0.1345,1.8463e-05,0
0.135,1.6281e-05,0
0.1355,1.6281e-05,0
0.136,1.6953e-05,0
0.1365,1.7624e-05,0
0.137,1.8967e-05,0
0.1375,2.031e-05,0
0.138,2.1317e-05,0
0.1385,2.3163e-05,0
0.139,2.3163e-05,0
0.1395,1.9974e-05,0
0.14,1.796e-05,0
0.1405,1.9974e-05,0
0.141,2.4002e-05,0
0.1415,2.5849e-05,0
0.142,2.3835e-05,0
0.1425,2.1149e-05,0
0.143,2.031e-05,0
0.1435,2.2324e-05,0
0.144,2.2828e-05,0
0.1445,2.2492e-05,0
0.145,2.1317e-05,0
0.1455,2.0646e-05,0
0.146,1.9135e-05,0
0.1465,1.9135e-05,0
0.147,1.9974e-05,0
0.1475,1.9974e-05,0
0.148,2.182e-05,0
0.1485,2.2995e-05,0
0.149,2.182e-05,0
0.1495,2.2995e-05,0
0.15,2.5681e-05,0
0.1505,2.6856e-05,0
0.151,2.5345e-05,0
0.1515,2.3835e-05,0
0.152,2.2995e-05,0
0.1525,2.1317e-05,0
0.153,1.8296e-05,0
0.1535,1.6785e-05,0
0.154,1.5778e-05,0
0.1545,1.5946e-05,0
0.155,1.5946e-05,0
0.1555,1.4267e-05,0
0.156,1.091e-05,0
0.1565,9.2317e-06,0
0.157,9.2317e-06,0
0.1575,1.1749e-05,0
0.158,1.5106e-05,0
0.1585,1.6617e-05,0
0.159,1.7624e-05,0
0.1595,1.7288e-05,0
0.16,1.7288e-05,0
0.1605,1.8463e-05,0
0.161,1.8631e-05,0
0.1615,1.9303e-05,0
0.162,2.1149e-05,0
0.1625,2.2156e-05,0
0.163,2.0478e-05,0
0.1635,1.796e-05,0
0.164,1.7288e-05,0
0.1645,1.8128e-05,0
0.165,1.8463e-05,0
0.1655,1.8631e-05,0
0.166,1.8296e-05,0
0.1665,1.7288e-05,0
0.167,1.8631e-05,0
0.1675,2.031e-05,0
0.168,2.0646e-05,0
0.1685,1.8463e-05,0
0.169,1.561e-05,0
0.1695,1.4603e-05,0
0.17,1.6953e-05,0
0.1705,1.9974e-05,0
0.171,2.1317e-05,0
0.1715,2.0981e-05,0
0.172,1.9303e-05,0
0.1725,1.8296e-05,0
0.173,1.9806e-05,0
0.1735,2.1988e-05,0
0.174,2.0981e-05,0
0.1745,1.947e-05,0
0.175,1.8631e-05,0
0.1755,1.8631e-05,0
0.176,1.8967e-05,0
0.1765,1.9135e-05,0
0.177,1.9806e-05,0
0.1775,2.0813e-05,0
0.178,2.1653e-05,0
0.1785,2.2995e-05,0
0.179,2.2828e-05,0
0.1795,2.4002e-05,0
0.18,2.4002e-05,0
0.1805,2.2492e-05,0
0.181,2.031e-05,0
0.1815,1.7624e-05,0
0.182,1.6449e-05,0
0.1825,1.8631e-05,0
0.183,2.1988e-05,0
0.1835,2.3163e-05,0
0.184,2.266e-05,0
0.1845,2.182e-05,0
0.185,2.0142e-05,0
0.1855,1.8463e-05,0
0.186,1.8296e-05,0
0.1865,1.9303e-05,0
0.187,2.031e-05,0
0.1875,2.0981e-05,0
0.188,2.182e-05,0
0.1885,2.0981e-05,0
0.189,1.8631e-05,0
0.1895,1.9303e-05,0
0.19,2.1988e-05,0
0.1905,2.266e-05,0
0.191,2.0981e-05,0
0.1915,2.031e-05,0
0.192,2.0646e-05,0
0.1925,2.1317e-05,0
0.193,2.1317e-05,0
0.1935,2.1317e-05,0
0.194,2.0813e-05,0
0.1945,2.0646e-05,0
0.195,1.8631e-05,0
0.1955,1.6953e-05,0
0.196,1.7121e-05,0
0.1965,1.8463e-05,0
0.197,1.8296e-05,0
0.1975,1.7288e-05,0
0.198,1.6617e-05,0
0.1985,1.6953e-05,0
0.199,1.8631e-05,0
0.1995,1.9806e-05,0
0.2,1.9303e-05,0
0.2005,1.947e-05,0
0.201,2.0981e-05,0
0.2015,2.2156e-05,0
0.202,2.266e-05,0
0.2025,2.2492e-05,0
0.203,2.1317e-05,0
0.2035,2.1988e-05,0
0.204,2.3499e-05,0
0.2045,2.266e-05,0
0.205,2.1149e-05,0
0.2055,1.9806e-05,0
0.206,1.8967e-05,0
0.2065,1.8799e-05,0
0.207,1.9135e-05,0
0.2075,1.9638e-05,0
0.208,1.9135e-05,0
0.2085,1.796e-05,0
0.209,1.6617e-05,0
0.2095,1.4939e-05,0
0.21,1.3092e-05,0
0.2105,1.2589e-05,0
0.211,1.326e-05,0
0.2115,1.5778e-05,0
0.212,1.8296e-05,0
0.2125,1.8631e-05,0
0.213,1.8463e-05,0
0.2135,1.9303e-05,0
0.214,1.9806e-05,0
0.2145,1.9974e-05,0
0.215,2.1653e-05,0
0.2155,2.4002e-05,0
0.216,2.4674e-05,0
0.2165,2.3667e-05,0
0.217,2.1317e-05,0
0.2175,1.9638e-05,0
0.218,2.0478e-05,0
0.2185,2.2995e-05,0
0.219,2.1988e-05,0
0.2195,1.9135e-05,0
0.22,1.7288e-05,0
0.2205,1.8296e-05,0
0.221,1.8967e-05,0
0.2215,1.8631e-05,0
0.222,1.9638e-05,0
0.2225,2.1317e-05,0
0.223,2.2324e-05,0
0.2235,2.1988e-05,0
0.224,2.2492e-05,0
0.2245,2.2324e-05,0
0.225,2.0646e-05,0
0.2255,1.8967e-05,0
0.226,1.8799e-05,0
0.2265,1.9303e-05,0
0.227,1.8967e-05,0
0.2275,1.8128e-05,0
0.228,1.9303e-05,0
0.2285,2.0981e-05,0
0.229,1.9974e-05,0
0.2295,1.7288e-05,0
0.23,1.5442e-05,0
0.2305,1.4603e-05,0
0.231,1.4939e-05,0
0.2315,1.5274e-05,0
0.232,1.6449e-05,0
0.2325,1.796e-05,0
0.233,1.796e-05,0
0.2335,1.7792e-05,0
0.234,1.7456e-05,0
0.2345,1.7121e-05,0
0.235,1.7456e-05,0
0.2355,1.8967e-05,0
0.236,2.031e-05,0
0.2365,2.1988e-05,0
0.237,2.2492e-05,0
0.2375,2.2492e-05,0
0.238,2.1653e-05,0
0.2385,2.0646e-05,0
0.239,2.0142e-05,0
0.2395,2.0142e-05,0
0.24,2.1317e-05,0
0.2405,2.0646e-05,0
0.241,1.9303e-05,0
0.2415,1.8631e-05,0
0.242,1.8296e-05,0
0.2425,1.7456e-05,0
0.243,1.7121e-05,0
0.2435,1.6953e-05,0
0.244,1.6449e-05,0
0.2445,1.5946e-05,0
0.245,1.561e-05,0
0.2455,1.5946e-05,0
0.246,1.6617e-05,0
0.2465,1.5778e-05,0
0.247,1.5946e-05,0
0.2475,1.7624e-05,0
0.248,1.8967e-05,0
0.2485,1.9806e-05,0
0.249,2.0646e-05,0
0.2495,2.0813e-05,0
0.25,2.0646e-05,0
0.2505,2.1653e-05,0
0.251,2.4002e-05,0
0.2515,2.652e-05,0
0.252,2.6352e-05,0
0.2525,2.4002e-05,0
0.253,2.0981e-05,0
0.2535,1.8967e-05,0
0.254,1.9303e-05,0
0.2545,2.1317e-05,0
0.255,2.1988e-05,0
0.2555,2.0478e-05,0
0.256,2.0646e-05,0
0.2565,2.1653e-05,0
0.257,2.1317e-05,0
0.2575,1.9974e-05,0
0.258,1.947e-05,0
0.2585,2.031e-05,0
0.259,2.0981e-05,0
0.2595,2.1988e-05,0
0.26,2.2995e-05,0
0.2605,2.3163e-05,0
0.261,2.1317e-05,0
0.2615,2.0478e-05,0
0.262,2.0142e-05,0
0.2625,1.8631e-05,0
0.263,1.7624e-05,0
0.2635,1.8799e-05,0
0.264,1.9638e-05,0
0.2645,1.9135e-05,0
0.265,1.9974e-05,0
0.2655,2.0646e-05,0
0.266,1.9806e-05,0
0.2665,1.947e-05,0
0.267,1.8463e-05,0
0.2675,1.6785e-05,0
0.268,1.6281e-05,0
0.2685,1.7288e-05,0
0.269,1.8631e-05,0
0.2695,1.8128e-05,0
0.27,1.8128e-05,0
0.2705,1.8463e-05,0
0.271,1.796e-05,0
0.2715,1.8463e-05,0
0.272,2.031e-05,0
0.2725,2.1317e-05,0
0.273,1.9303e-05,0
0.2735,1.5946e-05,0
0.274,1.5106e-05,0
0.2745,1.5946e-05,0
0.275,1.796e-05,0
0.2755,1.9974e-05,0
0.276,2.1317e-05,0
0.2765,2.0478e-05,0
0.277,1.8296e-05,0
0.2775,1.6953e-05,0
0.278,1.8967e-05,0
0.2785,2.1317e-05,0
0.279,1.9806e-05,0
0.2795,1.6617e-05,0
0.28,1.5274e-05,0
0.2805,1.4771e-05,0
0.281,1.5778e-05,0
0.2815,1.6449e-05,0
0.282,1.5778e-05,0
0.2825,1.5946e-05,0
0.283,1.561e-05,0
0.2835,1.4603e-05,0
0.284,1.5274e-05,0
0.2845,1.8296e-05,0
0.285,2.1317e-05,0
0.2855,2.3163e-05,0
0.286,2.3331e-05,0
0.2865,2.1988e-05,0
0.287,1.9303e-05,0
0.2875,1.7288e-05,0
0.288,1.8463e-05,0
0.2885,2.0646e-05,0
0.289,2.1653e-05,0
0.2895,2.2324e-05,0
0.29,2.3331e-05,0
0.2905,2.2995e-05,0
0.291,2.4002e-05,0
0.2915,2.7024e-05,0
0.292,2.8367e-05,0
0.2925,2.9374e-05,0
0.293,3.0381e-05,0
0.2935,3.0045e-05,0
0.294,2.8534e-05,0
0.2945,2.6688e-05,0
0.295,2.5009e-05,0
0.2955,2.3499e-05,0
0.296,2.3667e-05,0
0.2965,2.4338e-05,0
0.297,2.5009e-05,0
0.2975,2.4002e-05,0
0.298,2.2324e-05,0
0.2985,2.1317e-05,0
0.299,2.1317e-05,0
0.2995,1.9974e-05,0
0.3,1.9303e-05,0
0.3005,1.8631e-05,0
0.301,1.8631e-05,0
0.3015,1.8631e-05,0
0.302,1.9303e-05,0
0.3025,2.0646e-05,0
0.303,2.1653e-05,0
0.3035,2.0646e-05,0
0.304,2.0142e-05,0
0.3045,2.1317e-05,0
0.305,2.3163e-05,0
0.3055,2.4002e-05,0
0.306,2.3499e-05,0
0.3065,2.1317e-05,0
0.307,2.0478e-05,0
0.3075,2.0981e-05,0
0.308,2.031e-05,0
0.3085,1.8128e-05,0
0.309,1.5946e-05,0
0.3095,1.4939e-05,0
0.31,1.4603e-05,0
0.3105,1.4603e-05,0
0.311,1.5778e-05,0
0.3115,1.8631e-05,0
0.312,2.1317e-05,0
0.3125,2.1988e-05,0
0.313,2.0646e-05,0
0.3135,1.8631e-05,0
0.314,1.7288e-05,0
0.3145,1.5946e-05,0
0.315,1.5106e-05,0
0.3155,1.4771e-05,0
0.316,1.326e-05,0
0.3165,1.1917e-05,0
0.317,1.2589e-05,0
0.3175,1.3932e-05,0
0.318,1.4939e-05,0
0.3185,1.6281e-05,0
0.319,1.8128e-05,0
0.3195,1.796e-05,0
0.32,1.7624e-05,0
0.3205,1.9135e-05,0
0.321,1.9974e-05,0
0.3215,2.0646e-05,0
0.322,2.1317e-05,0
0.3225,2.0981e-05,0
0.323,1.8967e-05,0
0.3235,1.8967e-05,0
0.324,1.8631e-05,0
0.3245,1.9135e-05,0
0.325,1.9638e-05,0
0.3255,1.9974e-05,0
0.326,2.0478e-05,0
0.3265,1.8967e-05,0
0.327,1.5946e-05,0
0.3275,1.4939e-05,0
0.328,1.5946e-05,0
0.3285,1.6281e-05,0
0.329,1.561e-05,0
0.3295,1.5946e-05,0
0.33,1.8296e-05,0
0.3305,2.0981e-05,0
0.331,2.0646e-05,0
0.3315,1.8463e-05,0
0.332,1.8463e-05,0
0.3325,1.9974e-05,0
0.333,2.2324e-05,0
0.3335,2.3331e-05,0
0.334,2.1149e-05,0
0.3345,1.9303e-05,0
0.335,2.031e-05,0
0.3355,2.3331e-05,0
0.336,2.5177e-05,0
0.3365,2.417e-05,0
0.337,2.1317e-05,0
0.3375,1.9638e-05,0
0.338,1.9303e-05,0
0.3385,1.9303e-05,0
0.339,2.0981e-05,0
0.3395,2.266e-05,0
0.34,2.2492e-05,0
0.3405,2.0478e-05,0
0.341,2.0981e-05,0
0.3415,2.3331e-05,0
0.342,2.5177e-05,0
0.3425,2.4338e-05,0
0.343,2.1317e-05,0
0.3435,1.8631e-05,0
0.344,1.5778e-05,0
0.3445,1.4603e-05,0
0.345,1.6617e-05,0
0.3455,1.7288e-05,0
0.346,1.7121e-05,0
0.3465,1.6449e-05,0
0.347,1.5946e-05,0
0.3475,1.5946e-05,0
0.348,1.5442e-05,0
0.3485,1.326e-05,0
0.349,1.326e-05,0
0.3495,1.4435e-05,0
0.35,1.4267e-05,0
0.3505,1.3092e-05,0
0.351,1.1917e-05,0
0.3515,1.1078e-05,0
0.352,1.1246e-05,0
0.3525,1.3764e-05,0
0.353,1.6953e-05,0
0.3535,1.8631e-05,0
0.354,2.0646e-05,0
0.3545,2.3835e-05,0
0.355,2.4002e-05,0
0.3555,2.3835e-05,0
0.356,2.266e-05,0
0.3565,2.1988e-05,0
0.357,2.266e-05,0
0.3575,2.4674e-05,0
0.358,2.6688e-05,0
0.3585,2.7024e-05,0
0.359,2.6688e-05,0
0.3595,2.5513e-05,0
0.36,2.3499e-05,0
0.3605,2.1988e-05,0
0.361,2.031e-05,0
0.3615,1.8296e-05,0
0.362,1.6281e-05,0
0.3625,1.6953e-05,0
0.363,1.947e-05,0
0.3635,2.0646e-05,0
0.364,1.9135e-05,0
0.3645,1.8128e-05,0
0.365,1.8967e-05,0
0.3655,1.9806e-05,0
0.366,1.7792e-05,0
0.3665,1.561e-05,0
0.367,1.5274e-05,0
0.3675,1.7288e-05,0
0.368,2.031e-05,0
0.3685,2.182e-05,0
0.369,2.2324e-05,0
0.3695,2.3667e-05,0
0.37,2.4842e-05,0
0.3705,2.4674e-05,0
0.371,2.3163e-05,0
0.3715,2.031e-05,0
0.372,1.7792e-05,0
0.3725,1.796e-05,0
0.373,1.8967e-05,0
0.3735,1.9135e-05,0
0.374,2.1988e-05,0
0.3745,2.6017e-05,0
0.375,2.8031e-05,0
0.3755,2.5345e-05,0
0.376,2.3163e-05,0
0.3765,2.2324e-05,0
0.377,2.266e-05,0
0.3775,2.2828e-05,0
0.378,2.2995e-05,0
0.3785,2.3499e-05,0
0.379,2.266e-05,0
0.3795,2.182e-05,0
0.38,2.0646e-05,0
0.3805,2.0981e-05,0
0.381,2.2324e-05,0
0.3815,2.2492e-05,0
0.382,2.1149e-05,0
0.3825,2.0813e-05,0
0.383,2.031e-05,0
0.3835,1.9974e-05,0
0.384,1.9135e-05,0
0.3845,1.9135e-05,0
0.385,2.031e-05,0
0.3855,2.0813e-05,0
0.386,1.947e-05,0
0.3865,1.7792e-05,0
0.387,1.7624e-05,0
0.3875,1.6953e-05,0
0.388,1.6953e-05,0
0.3885,1.7624e-05,0
0.389,1.796e-05,0
0.3895,1.6449e-05,0
0.39,1.5442e-05,0
0.3905,1.561e-05,0
0.391,1.5946e-05,0
0.3915,1.4771e-05,0
0.392,1.3764e-05,0
0.3925,1.561e-05,0
0.393,1.8128e-05,0
0.3935,1.9638e-05,0
0.394,1.9974e-05,0
0.3945,1.8967e-05,0
0.395,1.8296e-05,0
0.3955,1.9974e-05,0
0.396,2.266e-05,0
0.3965,2.266e-05,0
0.397,2.2995e-05,0
0.3975,2.3667e-05,0
0.398,2.2828e-05,0
0.3985,2.0646e-05,0
0.399,1.9303e-05,0
0.3995,1.947e-05,0
0.4,1.8967e-05,0
0.4005,1.796e-05,0
0.401,1.7121e-05,0
0.4015,1.7456e-05,0
0.402,1.8128e-05,0
0.4025,1.8631e-05,0
0.403,2.0142e-05,0
0.4035,2.2828e-05,0
0.404,2.3835e-05,0
0.4045,2.2828e-05,0
0.405,2.1317e-05,0
0.4055,2.1149e-05,0
0.406,1.9638e-05,0
0.4065,1.5274e-05,0
0.407,1.4435e-05,0
0.4075,1.6617e-05,0
0.408,1.8463e-05,0
0.4085,2.0646e-05,0
0.409,2.1988e-05,0
0.4095,2.0142e-05,0
0.41,1.796e-05,0
0.4105,1.6953e-05,0
0.411,1.6617e-05,0
0.4115,1.8631e-05,0
0.412,2.266e-05,0
0.4125,2.4002e-05,0
0.413,2.1988e-05,0
0.4135,1.9303e-05,0
0.414,1.8967e-05,0
0.4145,1.9806e-05,0
0.415,1.796e-05,0
0.4155,1.561e-05,0
0.416,1.4939e-05,0
0.4165,1.5778e-05,0
0.417,1.7121e-05,0
0.4175,1.796e-05,0
0.418,1.6953e-05,0
0.4185,1.561e-05,0
0.419,1.4603e-05,0
0.4195,1.6281e-05,0
0.42,1.7456e-05,0
0.4205,1.796e-05,0
0.421,1.9303e-05,0
0.4215,2.1317e-05,0
0.422,2.1653e-05,0
0.4225,1.9135e-05,0
0.423,1.9303e-05,0
0.4235,2.1988e-05,0
0.424,2.4002e-05,0
0.4245,2.2492e-05,0
0.425,1.9806e-05,0
0.4255,1.9638e-05,0
0.426,2.0478e-05,0
0.4265,2.0646e-05,0
0.427,2.1653e-05,0
0.4275,2.3163e-05,0
0.428,2.3667e-05,0
0.4285,2.2995e-05,0
0.429,2.031e-05,0
0.4295,1.7121e-05,0
0.43,1.6617e-05,0
0.4305,1.7792e-05,0
0.431,1.7624e-05,0
0.4315,1.7121e-05,0
0.432,1.6617e-05,0
0.4325,1.7624e-05,0
0.433,2.0981e-05,0
0.4335,2.4002e-05,0
0.434,2.5345e-05,0
0.4345,2.6017e-05,0
0.435,2.4002e-05,0
0.4355,2.0646e-05,0
0.436,1.8967e-05,0
0.4365,1.9303e-05,0
0.437,1.8631e-05,0
0.4375,1.6449e-05,0
0.438,1.4435e-05,0
0.4385,1.3932e-05,0
0.439,1.3932e-05,0
0.4395,1.4099e-05,0
0.44,1.561e-05,0
0.4405,1.5946e-05,0
0.441,1.5442e-05,0
0.4415,1.8128e-05,0
0.442,2.182e-05,0
0.4425,2.4338e-05,0
0.443,2.4002e-05,0
0.4435,2.2324e-05,0
0.444,1.9303e-05,0
0.4445,1.9638e-05,0
0.445,2.2828e-05,0
0.4455,2.5681e-05,0
0.446,2.5849e-05,0
0.4465,2.5513e-05,0
0.447,2.6017e-05,0
0.4475,2.6688e-05,0
0.448,2.4674e-05,0
0.4485,2.1988e-05,0
0.449,2.0813e-05,0
0.4495,2.1317e-05,0
0.45,2.1653e-05,0
0.4505,2.1988e-05,0
0.451,2.0813e-05,0
0.4515,1.9303e-05,0
0.452,1.7624e-05,0
0.4525,1.6281e-05,0
0.453,1.7624e-05,0
0.4535,1.8296e-05,0
0.454,1.7624e-05,0
0.4545,1.5946e-05,0
0.455,1.5946e-05,0
0.4555,1.8128e-05,0
0.456,1.8967e-05,0
0.4565,1.7792e-05,0
0.457,1.6953e-05,0
0.4575,1.8967e-05,0
0.458,2.0478e-05,0
0.4585,2.1149e-05,0
0.459,2.266e-05,0
0.4595,2.2828e-05,0
0.46,2.3667e-05,0
0.4605,2.3835e-05,0
0.461,2.1988e-05,0
0.4615,1.796e-05,0
0.462,1.5274e-05,0
0.4625,1.4939e-05,0
0.463,1.6953e-05,0
0.4635,1.9303e-05,0
0.464,1.9638e-05,0
0.4645,1.796e-05,0
0.465,1.5274e-05,0
0.4655,1.3932e-05,0
0.466,1.5442e-05,0
0.4665,1.8296e-05,0
0.467,1.9974e-05,0
0.4675,1.9638e-05,0
0.468,1.8967e-05,0
0.4685,1.9974e-05,0
0.469,2.1317e-05,0
0.4695,2.2828e-05,0
0.47,2.3835e-05,0
0.4705,2.4002e-05,0
0.471,2.4002e-05,0
0.4715,2.3331e-05,0
0.472,2.0981e-05,0
0.4725,1.7624e-05,0
0.473,1.6785e-05,0
0.4735,1.8631e-05,0
0.474,1.8631e-05,0
0.4745,1.7456e-05,0
0.475,1.6617e-05,0
0.4755,1.6114e-05,0
0.476,1.5778e-05,0
0.4765,1.6617e-05,0
0.477,1.7288e-05,0
0.4775,1.8631e-05,0
0.478,1.9303e-05,0
0.4785,1.947e-05,0
0.479,1.8463e-05,0
0.4795,1.796e-05,0
0.48,1.8463e-05,0
0.4805,2.0813e-05,0
0.481,2.4002e-05,0
0.4815,2.6688e-05,0
0.482,2.6688e-05,0
0.4825,2.652e-05,0
0.483,2.6352e-05,0
0.4835,2.5009e-05,0
0.484,2.4506e-05,0
0.4845,2.5681e-05,0
0.485,2.8367e-05,0
0.4855,3.0549e-05,0
0.486,3.0381e-05,0
0.4865,2.9374e-05,0
0.487,2.652e-05,0
0.4875,2.3499e-05,0
0.488,2.182e-05,0
0.4885,1.9974e-05,0
0.489,1.8967e-05,0
0.4895,1.9135e-05,0
0.49,1.796e-05,0
0.4905,1.561e-05,0
0.491,1.5274e-05,0
0.4915,1.6953e-05,0
0.492,1.8463e-05,0
0.4925,1.947e-05,0
0.493,1.8967e-05,0
0.4935,1.7624e-05,0
0.494,1.5946e-05,0
0.4945,1.6785e-05,0
0.495,1.9303e-05,0
0.4955,1.9638e-05,0
0.496,1.8296e-05,0
0.4965,1.6785e-05,0
0.497,1.5946e-05,0
0.4975,1.5274e-05,0
0.498,1.6281e-05,0
0.4985,1.796e-05,0
0.499,1.8296e-05,0
0.4995,1.7288e-05,0
0.5,1.6953e-05,0
0.5005,1.8967e-05,0
0.501,2.1317e-05,0
0.5015,2.3667e-05,0
0.502,2.5849e-05,0
0.5025,2.7863e-05,0
0.503,2.6352e-05,0
0.5035,2.4002e-05,0
0.504,2.1149e-05,0
0.5045,1.9806e-05,0
0.505,2.0646e-05,0
0.5055,2.0981e-05,0
0.506,1.9806e-05,0
0.5065,1.9806e-05,0
0.507,2.1317e-05,0
0.5075,2.2995e-05,0
0.508,2.2324e-05,0
0.5085,2.0646e-05,0
0.509,1.8631e-05,0
0.5095,1.8296e-05,0
0.51,1.8296e-05,0
0.5105,1.6953e-05,0
0.511,1.6281e-05,0
0.5115,1.6953e-05,0
0.512,1.7288e-05,0
0.5125,1.8296e-05,0
0.513,1.7288e-05,0
0.5135,1.7288e-05,0
0.514,1.7456e-05,0
0.5145,1.7288e-05,0
0.515,1.7288e-05,0
0.5155,1.7288e-05,0
0.516,1.7121e-05,0
0.5165,1.6953e-05,0
0.517,1.7288e-05,0
0.5175,1.8296e-05,0
0.518,1.9135e-05,0
0.5185,1.8296e-05,0
0.519,1.8296e-05,0
0.5195,1.8631e-05,0
0.52,1.796e-05,0
0.5205,1.6281e-05,0
0.521,1.5106e-05,0
0.5215,1.3932e-05,0
0.522,1.3596e-05,0
0.5225,1.4603e-05,0
0.523,1.6449e-05,0
0.5235,1.796e-05,0
0.524,1.7288e-05,0
0.5245,1.5274e-05,0
0.525,1.5442e-05,0
0.5255,1.7121e-05,0
0.526,1.8631e-05,0
0.5265,1.9303e-05,0
0.527,1.796e-05,0
0.5275,1.796e-05,0
0.528,2.031e-05,0
0.5285,2.1988e-05,0
0.529,2.1317e-05,0
0.5295,1.8296e-05,0
0.53,1.561e-05,0
0.5305,1.4939e-05,0
0.531,1.6617e-05,0
0.5315,1.796e-05,0
0.532,1.7288e-05,0
0.5325,1.6785e-05,0
0.533,1.7792e-05,0
0.5335,1.947e-05,0
0.534,2.0142e-05,0
0.5345,1.9303e-05,0
0.535,1.6449e-05,0
0.5355,1.4435e-05,0
0.536,1.3092e-05,0
0.5365,1.326e-05,0
0.537,1.5778e-05,0
0.5375,1.796e-05,0
0.538,1.9974e-05,0
0.5385,2.2324e-05,0
0.539,2.2995e-05,0
0.5395,2.0478e-05,0
0.54,1.8296e-05,0
0.5405,1.9974e-05,0
0.541,2.1317e-05,0
0.5415,2.1653e-05,0
0.542,2.182e-05,0
0.5425,2.1149e-05,0
0.543,2.0142e-05,0
0.5435,2.031e-05,0
0.544,1.947e-05,0
0.5445,1.8296e-05,0
0.545,1.8967e-05,0
0.5455,1.8967e-05,0
0.546,1.8631e-05,0
0.5465,2.0478e-05,0
0.547,2.1988e-05,0
0.5475,2.3331e-05,0
0.548,2.5345e-05,0
0.5485,2.5345e-05,0
0.549,2.3835e-05,0
0.5495,2.3667e-05,0
0.55,2.5345e-05,0
0.5505,2.5681e-05,0
0.551,2.4002e-05,0
0.5515,2.4002e-05,0
0.552,2.3163e-05,0
0.5525,2.0981e-05,0
0.553,1.9806e-05,0
0.5535,1.7456e-05,0
0.554,1.3932e-05,0
0.5545,1.5442e-05,0
0.555,1.9303e-05,0
0.5555,2.031e-05,0
0.556,2.031e-05,0
0.5565,2.0981e-05,0
0.557,2.1317e-05,0
0.5575,2.0646e-05,0
0.558,1.8967e-05,0
0.5585,1.9135e-05,0
0.559,2.0646e-05,0
0.5595,2.1988e-05,0
0.56,2.182e-05,0
0.5605,2.1317e-05,0
0.561,2.1317e-05,0
0.5615,2.031e-05,0
0.562,1.8967e-05,0
0.5625,1.8631e-05,0
0.563,1.796e-05,0
0.5635,1.8463e-05,0
0.564,1.9638e-05,0
0.5645,1.9638e-05,0
0.565,1.7288e-05,0
0.5655,1.6281e-05,0
0.566,1.796e-05,0
0.5665,1.9303e-05,0
0.567,1.8463e-05,0
0.5675,1.8296e-05,0
0.568,1.8967e-05,0
0.5685,2.0646e-05,0
0.569,2.2492e-05,0
0.5695,2.4002e-05,0
0.57,2.4338e-05,0
0.5705,2.3835e-05,0
0.571,2.3163e-05,0
0.5715,2.3163e-05,0
0.572,2.266e-05,0
0.5725,2.0478e-05,0
0.573,1.9638e-05,0
0.5735,1.9638e-05,0
0.574,2.031e-05,0
0.5745,2.1988e-05,0
0.575,2.2995e-05,0
0.5755,2.1317e-05,0
0.576,2.0646e-05,0
0.5765,2.1988e-05,0
0.577,2.4002e-05,0
0.5775,2.5849e-05,0
0.578,2.6688e-05,0
0.5785,2.6352e-05,0
0.579,2.4674e-05,0
0.5795,2.1317e-05,0
0.58,1.8967e-05,0
0.5805,1.8967e-05,0
0.581,1.9638e-05,0
0.5815,1.9806e-05,0
0.582,1.8296e-05,0
0.5825,1.7792e-05,0
0.583,1.8967e-05,0
0.5835,2.0813e-05,0
0.584,2.1988e-05,0
0.5845,2.1317e-05,0
0.585,2.182e-05,0
0.5855,2.1317e-05,0
0.586,1.947e-05,0
0.5865,1.7624e-05,0
0.587,1.7624e-05,0
0.5875,1.8463e-05,0
0.588,1.9638e-05,0
0.5885,1.9974e-05,0
0.589,1.9806e-05,0
0.5895,2.031e-05,0
0.59,2.1988e-05,0
0.5905,2.2324e-05,0
0.591,1.8631e-05,0
0.5915,1.3932e-05,0
0.592,1.4099e-05,0
0.5925,1.7624e-05,0
0.593,1.9303e-05,0
0.5935,1.9638e-05,0
0.594,2.1317e-05,0
0.5945,2.2156e-05,0
0.595,2.2995e-05,0
0.5955,2.3835e-05,0
0.596,2.3835e-05,0
0.5965,2.1317e-05,0
0.597,1.8631e-05,0
0.5975,1.6953e-05,0
0.598,1.6617e-05,0
0.5985,1.7792e-05,0
0.599,1.8296e-05,0
0.5995,1.8128e-05,0
0.6,1.7624e-05,0
0.6005,1.9303e-05,0
0.601,2.0646e-05,0
0.6015,1.9974e-05,0
0.602,1.8631e-05,0
0.6025,1.8296e-05,0
0.603,1.8463e-05,0
0.6035,1.9135e-05,0
0.604,1.8631e-05,0
0.6045,1.8631e-05,0
0.605,1.8296e-05,0
0.6055,1.7288e-05,0
0.606,1.6785e-05,0
0.6065,1.8799e-05,0
0.607,2.1149e-05,0
0.6075,2.1653e-05,0
0.608,2.0478e-05,0
0.6085,1.7288e-05,0
0.609,1.4603e-05,0
0.6095,1.3932e-05,0
0.61,1.5442e-05,0
0.6105,1.7624e-05,0
0.611,1.9974e-05,0
0.6115,1.9303e-05,0
0.612,1.8128e-05,0
0.6125,1.9638e-05,0
0.613,1.8463e-05,0
0.6135,1.5106e-05,0
0.614,1.2924e-05,0
0.6145,1.4603e-05,0
0.615,1.6617e-05,0
0.6155,1.7121e-05,0
0.616,1.7624e-05,0
0.6165,1.8967e-05,0
0.617,2.0813e-05,0
0.6175,2.3331e-05,0
0.618,2.4002e-05,0
0.6185,2.1988e-05,0
0.619,1.8631e-05,0
0.6195,1.7288e-05,0
0.62,1.8631e-05,0
0.6205,2.0813e-05,0
0.621,2.1653e-05,0
0.6215,2.1317e-05,0
0.622,1.9974e-05,0
0.6225,1.8296e-05,0
0.623,1.9135e-05,0
0.6235,2.182e-05,0
0.624,2.417e-05,0
0.6245,2.3667e-05,0
0.625,2.266e-05,0
0.6255,2.2324e-05,0
0.626,2.1317e-05,0
0.6265,2.1317e-05,0
0.627,2.266e-05,0
0.6275,2.3163e-05,0
0.628,2.2324e-05,0
0.6285,2.3163e-05,0
0.629,2.5177e-05,0
0.6295,2.5009e-05,0
0.63,2.3163e-05,0
0.6305,2.0981e-05,0
0.631,2.031e-05,0
0.6315,2.1317e-05,0
0.632,2.182e-05,0
0.6325,2.1317e-05,0
0.633,1.8296e-05,0
0.6335,1.6449e-05,0
0.634,1.6953e-05,0
0.6345,1.8128e-05,0
0.635,1.8799e-05,0
0.6355,1.8631e-05,0
0.636,1.8967e-05,0
0.6365,1.8631e-05,0
0.637,1.8631e-05,0
0.6375,1.8463e-05,0
0.638,1.9638e-05,0
0.6385,2.031e-05,0
0.639,2.1149e-05,0
0.6395,2.1988e-05,0
0.64,2.1988e-05,0
0.6405,2.0142e-05,0
0.641,1.8631e-05,0
0.6415,1.9135e-05,0
0.642,1.9974e-05,0
0.6425,1.8631e-05,0
0.643,1.6617e-05,0
0.6435,1.7624e-05,0
0.644,1.9303e-05,0
0.6445,1.8631e-05,0
0.645,1.6953e-05,0
0.6455,1.5274e-05,0
0.646,1.4939e-05,0
0.6465,1.4603e-05,0
0.647,1.3932e-05,0
0.6475,1.326e-05,0
0.648,1.561e-05,0
0.6485,1.8967e-05,0
0.649,2.1317e-05,0
0.6495,2.1988e-05,0
0.65,2.1317e-05,0
0.6505,1.9974e-05,0
0.651,1.8631e-05,0
0.6515,1.796e-05,0
0.652,1.8631e-05,0
0.6525,1.947e-05,0
0.653,1.9974e-05,0
0.6535,1.9638e-05,0
0.654,1.9806e-05,0
0.6545,1.9974e-05,0
0.655,2.0646e-05,0
0.6555,2.1317e-05,0
0.656,2.1653e-05,0
0.6565,2.182e-05,0
0.657,2.0981e-05,0
0.6575,1.9974e-05,0
0.658,1.796e-05,0
0.6585,1.6617e-05,0
0.659,1.6953e-05,0
0.6595,1.9974e-05,0
0.66,2.1988e-05,0
0.6605,2.1317e-05,0
0.661,1.9974e-05,0
0.6615,1.947e-05,0
0.662,2.1317e-05,0
0.6625,2.5345e-05,0
0.663,2.7863e-05,0
0.6635,2.6688e-05,0
0.664,2.6688e-05,0
0.6645,2.8367e-05,0
0.665,3.0045e-05,0
0.6655,3.1388e-05,0
0.666,3.0716e-05,0
0.6665,2.9542e-05,0
0.667,2.8702e-05,0
0.6675,2.6017e-05,0
0.668,2.1988e-05,0
0.6685,1.9135e-05,0
0.669,1.5946e-05,0
0.6695,1.3764e-05,0
0.67,1.4939e-05,0
0.6705,1.6953e-05,0
0.671,1.8463e-05,0
0.6715,1.8631e-05,0
0.672,1.6953e-05,0
0.6725,1.5274e-05,0
0.673,1.4267e-05,0
0.6735,1.3092e-05,0
0.674,1.3092e-05,0
0.6745,1.3932e-05,0
0.675,1.3428e-05,0
0.6755,1.2589e-05,0
0.676,1.4267e-05,0
0.6765,1.5778e-05,0
0.677,1.5778e-05,0
0.6775,1.6281e-05,0
0.678,1.6449e-05,0
0.6785,1.7121e-05,0
0.679,1.5946e-05,0
0.6795,1.5778e-05,0
0.68,1.796e-05,0
0.6805,1.8631e-05,0
0.681,1.9135e-05,0
0.6815,1.8463e-05,0
0.682,1.796e-05,0
0.6825,1.8631e-05,0
0.683,1.9806e-05,0
0.6835,2.2492e-05,0
0.684,2.5009e-05,0
0.6845,2.5681e-05,0
0.685,2.4506e-05,0
0.6855,2.2156e-05,0
0.686,2.1317e-05,0
0.6865,2.1653e-05,0
0.687,2.0981e-05,0
0.6875,1.9638e-05,0
0.688,1.7456e-05,0
0.6885,1.7288e-05,0
0.689,1.796e-05,0
0.6895,1.6785e-05,0
0.69,1.6281e-05,0
0.6905,1.6617e-05,0
0.691,1.5274e-05,0
0.6915,1.4939e-05,0
0.692,1.5274e-05,0
0.6925,1.7121e-05,0
0.693,1.9638e-05,0
0.6935,2.0478e-05,0
0.694,1.8967e-05,0
0.6945,1.5946e-05,0
0.695,1.6617e-05,0
0.6955,1.9135e-05,0
0.696,1.8967e-05,0
0.6965,1.7121e-05,0
0.697,1.6617e-05,0
0.6975,1.6953e-05,0
0.698,1.796e-05,0
0.6985,1.9303e-05,0
0.699,2.1149e-05,0
0.6995,2.3163e-05,0
0.7,2.4002e-05,0
0.7005,2.4002e-05,0
0.701,2.2995e-05,0
0.7015,2.1317e-05,0
0.702,2.1988e-05,0
0.7025,2.2828e-05,0
0.703,2.0478e-05,0
0.7035,1.5946e-05,0
0.704,1.4939e-05,0
0.7045,1.8631e-05,0
0.705,2.1988e-05,0
0.7055,2.0981e-05,0
0.706,1.9638e-05,0
0.7065,1.9974e-05,0
0.707,2.2492e-05,0
0.7075,2.4338e-05,0
0.708,2.4674e-05,0
0.7085,2.4338e-05,0
0.709,2.3331e-05,0
0.7095,2.2156e-05,0
0.71,2.0646e-05,0
0.7105,1.9135e-05,0
0.711,1.9135e-05,0
0.7115,2.0478e-05,0
0.712,1.9303e-05,0
0.7125,1.8296e-05,0
0.713,1.7792e-05,0
0.7135,1.7792e-05,0
0.714,1.7288e-05,0
0.7145,1.7121e-05,0
0.715,1.8631e-05,0
0.7155,2.1317e-05,0
0.716,2.2324e-05,0
0.7165,2.031e-05,0
0.717,1.9806e-05,0
0.7175,2.1317e-05,0
0.718,2.2324e-05,0
0.7185,2.2324e-05,0
0.719,2.3163e-05,0
0.7195,2.266e-05,0
0.72,2.0813e-05,0
0.7205,1.9638e-05,0
0.721,1.947e-05,0
0.7215,1.8967e-05,0
0.722,1.9303e-05,0
0.7225,1.9135e-05,0
0.723,1.9135e-05,0
0.7235,1.9303e-05,0
0.724,1.9303e-05,0
0.7245,1.9303e-05,0
0.725,2.031e-05,0
0.7255,2.1988e-05,0
0.726,2.5009e-05,0
0.7265,2.6688e-05,0
0.727,2.5345e-05,0
0.7275,2.4338e-05,0
0.728,2.4506e-05,0
0.7285,2.3835e-05,0
0.729,2.2156e-05,0
0.7295,1.9974e-05,0
0.73,1.8631e-05,0
0.7305,1.8463e-05,0
0.731,1.7624e-05,0
0.7315,1.7121e-05,0
0.732,1.7624e-05,0
0.7325,1.7288e-05,0
0.733,1.6617e-05,0
0.7335,1.5106e-05,0
0.734,1.4603e-05,0
0.7345,1.4435e-05,0
0.735,1.5946e-05,0
0.7355,1.7624e-05,0
0.736,1.7288e-05,0
0.7365,1.561e-05,0
0.737,1.6617e-05,0
0.7375,1.9135e-05,0
0.738,1.9638e-05,0
0.7385,1.9974e-05,0
0.739,2.0646e-05,0
0.7395,1.9974e-05,0
0.74,1.7624e-05,0
0.7405,1.561e-05,0
0.741,1.5946e-05,0
0.7415,1.561e-05,0
0.742,1.5946e-05,0
0.7425,1.6449e-05,0
0.743,1.7121e-05,0
0.7435,1.8631e-05,0
0.744,2.031e-05,0
0.7445,1.9303e-05,0
0.745,1.6785e-05,0
0.7455,1.6953e-05,0
0.746,1.8967e-05,0
0.7465,1.9974e-05,0
0.747,1.8967e-05,0
0.7475,1.8967e-05,0
0.748,1.9974e-05,0
0.7485,2.2324e-05,0
0.749,2.3499e-05,0
0.7495,2.1317e-05,0
0.75,1.9974e-05,0
0.7505,2.1317e-05,0
0.751,2.3499e-05,0
0.7515,2.4842e-05,0
0.752,2.4002e-05,0
0.7525,2.266e-05,0
0.753,2.3667e-05,0
0.7535,2.3667e-05,0
0.754,2.1988e-05,0
0.7545,1.9638e-05,0
0.755,1.9638e-05,0
0.7555,2.1317e-05,0
0.756,2.2828e-05,0
0.7565,2.1988e-05,0
0.757,2.031e-05,0
0.7575,1.8799e-05,0
0.758,1.8631e-05,0
0.7585,1.8631e-05,0
0.759,1.9806e-05,0
0.7595,2.266e-05,0
0.76,2.4506e-05,0
0.7605,2.266e-05,0
0.761,2.1317e-05,0
0.7615,2.1317e-05,0
0.762,2.1317e-05,0
0.7625,2.0813e-05,0
0.763,2.031e-05,0
0.7635,2.0981e-05,0
0.764,2.0646e-05,0
0.7645,1.8967e-05,0
0.765,1.796e-05,0
0.7655,1.5946e-05,0
0.766,1.4267e-05,0
0.7665,1.4099e-05,0
0.767,1.3932e-05,0
0.7675,1.4435e-05,0
0.768,1.5442e-05,0
0.7685,1.5946e-05,0
0.769,1.6449e-05,0
0.7695,1.4939e-05,0
0.77,1.3932e-05,0
0.7705,1.5442e-05,0
0.771,1.6449e-05,0
0.7715,1.6617e-05,0
0.772,1.6617e-05,0
0.7725,1.6281e-05,0
0.773,1.561e-05,0
0.7735,1.5274e-05,0
0.774,1.561e-05,0
0.7745,1.8128e-05,0
0.775,2.1317e-05,0
0.7755,2.3835e-05,0
0.776,2.4002e-05,0
0.7765,2.182e-05,0
0.777,1.9303e-05,0
0.7775,1.9806e-05,0
0.778,2.182e-05,0
0.7785,2.4674e-05,0
0.779,2.5849e-05,0
0.7795,2.5177e-05,0
0.78,2.1988e-05,0
0.7805,1.8631e-05,0
0.781,1.8631e-05,0
0.7815,2.1317e-05,0
0.782,2.3331e-05,0
0.7825,2.3499e-05,0
0.783,2.3163e-05,0
0.7835,2.182e-05,0
0.784,2.0646e-05,0
0.7845,1.8967e-05,0
0.785,1.796e-05,0
0.7855,1.8631e-05,0
0.786,2.031e-05,0
0.7865,2.2324e-05,0
0.787,2.3667e-05,0
0.7875,2.2995e-05,0
0.788,2.031e-05,0
0.7885,1.8631e-05,0
0.789,1.8967e-05,0
0.7895,1.8128e-05,0
0.79,1.8128e-05,0
0.7905,1.9974e-05,0
0.791,2.1317e-05,0
0.7915,2.1988e-05,0
0.792,2.3163e-05,0
0.7925,2.2492e-05,0
0.793,1.9638e-05,0
0.7935,1.7121e-05,0
0.794,1.5274e-05,0
0.7945,1.4939e-05,0
0.795,1.5946e-05,0
0.7955,1.796e-05,0
0.796,2.2324e-05,0
0.7965,2.5345e-05,0
0.797,2.5849e-05,0
0.7975,2.5177e-05,0
0.798,2.6352e-05,0
0.7985,2.7359e-05,0
0.799,2.6184e-05,0
0.7995,2.4506e-05,0
0.8,2.2995e-05,0
0.8005,2.1317e-05,0
0.801,2.2995e-05,0
0.8015,2.6688e-05,0
0.802,2.6688e-05,0
0.8025,2.2492e-05,0
0.803,2.0981e-05,0
0.8035,2.1988e-05,0
0.804,2.1988e-05,0
0.8045,2.0478e-05,0
0.805,1.9974e-05,0
0.8055,1.9638e-05,0
0.806,1.7121e-05,0
0.8065,1.4939e-05,0
0.807,1.6281e-05,0
0.8075,1.9135e-05,0
0.808,2.0646e-05,0
0.8085,2.0478e-05,0
0.809,1.9303e-05,0
0.8095,1.8631e-05,0
0.81,1.8631e-05,0
0.8105,1.8631e-05,0
0.811,1.8631e-05,0
0.8115,1.9638e-05,0
0.812,2.0981e-05,0
0.8125,2.1317e-05,0
0.813,2.1317e-05,0
0.8135,2.031e-05,0
0.814,1.796e-05,0
0.8145,1.7121e-05,0
0.815,1.796e-05,0
0.8155,1.796e-05,0
0.816,1.5946e-05,0
0.8165,1.4435e-05,0
0.817,1.5274e-05,0
0.8175,1.6785e-05,0
0.818,1.8296e-05,0
0.8185,1.8631e-05,0
0.819,1.6617e-05,0
0.8195,1.5274e-05,0
0.82,1.5946e-05,0
0.8205,1.7288e-05,0
0.821,1.6953e-05,0
0.8215,1.7288e-05,0
0.822,1.7792e-05,0
0.8225,1.8128e-05,0
0.823,1.8463e-05,0
0.8235,1.947e-05,0
0.824,1.9135e-05,0
0.8245,1.8631e-05,0
0.825,1.9303e-05,0
0.8255,2.1317e-05,0
0.826,2.182e-05,0
0.8265,1.9806e-05,0
0.827,1.9303e-05,0
0.8275,1.9806e-05,0
0.828,1.8296e-05,0
0.8285,1.6449e-05,0
0.829,1.5442e-05,0
0.8295,1.5106e-05,0
0.83,1.5946e-05,0
0.8305,1.5946e-05,0
0.831,1.3764e-05,0
0.8315,1.2253e-05,0
0.832,1.4771e-05,0
0.8325,1.8631e-05,0
0.833,2.0142e-05,0
0.8335,1.8128e-05,0
0.834,1.5946e-05,0
0.8345,1.5442e-05,0
0.835,1.561e-05,0
0.8355,1.7121e-05,0
0.836,1.8967e-05,0
0.8365,2.0478e-05,0
0.837,2.1988e-05,0
0.8375,2.3667e-05,0
0.838,2.4002e-05,0
0.8385,2.2156e-05,0
0.839,2.1317e-05,0
0.8395,2.031e-05,0
0.84,1.9638e-05,0
0.8405,1.947e-05,0
0.841,2.0646e-05,0
0.8415,2.2324e-05,0
0.842,2.3835e-05,0
0.8425,2.3667e-05,0
0.843,2.2492e-05,0
0.8435,2.1988e-05,0
0.844,2.2828e-05,0
0.8445,2.3667e-05,0
0.845,2.266e-05,0
0.8455,2.2995e-05,0
0.846,2.4002e-05,0
0.8465,2.5009e-05,0
0.847,2.4842e-05,0
0.8475,2.4506e-05,0
0.848,2.266e-05,0
0.8485,1.9974e-05,0
0.849,1.9135e-05,0
0.8495,1.8631e-05,0
0.85,1.8631e-05,0
0.8505,1.9303e-05,0
0.851,1.8296e-05,0
0.8515,1.7288e-05,0
0.852,1.6785e-05,0
0.8525,1.7288e-05,0
0.853,1.8631e-05,0
0.8535,1.9638e-05,0
0.854,1.8128e-05,0
0.8545,1.796e-05,0
0.855,1.9303e-05,0
0.8555,1.9303e-05,0
0.856,1.8463e-05,0
0.8565,1.9303e-05,0
0.857,1.9303e-05,0
0.8575,1.8296e-05,0
0.858,1.7288e-05,0
0.8585,1.796e-05,0
0.859,1.8631e-05,0
0.8595,1.8296e-05,0
0.86,1.6953e-05,0
0.8605,1.7288e-05,0
0.861,1.8967e-05,0
0.8615,2.1317e-05,0
0.862,2.0981e-05,0
0.8625,1.8631e-05,0
0.863,1.8967e-05,0
0.8635,2.1317e-05,0
0.864,2.2156e-05,0
0.8645,2.2324e-05,0
0.865,2.1988e-05,0
0.8655,2.182e-05,0
0.866,2.1317e-05,0
0.8665,2.0646e-05,0
0.867,1.9974e-05,0
0.8675,2.0813e-05,0
0.868,2.0981e-05,0
0.8685,1.9638e-05,0
0.869,1.9303e-05,0
0.8695,1.9974e-05,0
0.87,2.0646e-05,0
0.8705,2.0981e-05,0
0.871,2.031e-05,0
0.8715,2.2156e-05,0
0.872,2.4674e-05,0
0.8725,2.4338e-05,0
0.873,2.3163e-05,0
0.8735,2.266e-05,0
0.874,2.2324e-05,0
0.8745,1.9974e-05,0
0.875,1.796e-05,0
0.8755,1.5946e-05,0
0.876,1.5442e-05,0
0.8765,1.6617e-05,0
0.877,1.8296e-05,0
0.8775,2.0142e-05,0
0.878,2.0981e-05,0
0.8785,2.182e-05,0
0.879,2.182e-05,0
0.8795,2.1317e-05,0
0.88,1.9974e-05,0
0.8805,1.9303e-05,0
0.881,1.9303e-05,0
0.8815,1.8967e-05,0
0.882,1.8967e-05,0
0.8825,2.0478e-05,0
0.883,2.1317e-05,0
0.8835,2.1317e-05,0
0.884,2.0646e-05,0
0.8845,1.8967e-05,0
0.885,1.6617e-05,0
0.8855,1.6617e-05,0
0.886,1.6953e-05,0
0.8865,1.8799e-05,0
0.887,2.0142e-05,0
0.8875,1.8967e-05,0
0.888,1.8296e-05,0
0.8885,1.8463e-05,0
0.889,1.9303e-05,0
0.8895,2.0478e-05,0
0.89,2.0478e-05,0
0.8905,1.9806e-05,0
0.891,1.8631e-05,0
0.8915,1.7624e-05,0
0.892,1.7624e-05,0
0.8925,1.8631e-05,0
0.893,2.0142e-05,0
0.8935,2.0478e-05,0
0.894,1.8631e-05,0
0.8945,1.6953e-05,0
0.895,1.796e-05,0
0.8955,1.9638e-05,0
0.896,2.0813e-05,0
0.8965,2.0981e-05,0
0.897,2.0981e-05,0
0.8975,2.0981e-05,0
0.898,1.9303e-05,0
0.8985,1.5946e-05,0
0.899,1.3932e-05,0
0.8995,1.6449e-05,0
0.9,1.9974e-05,0
0.9005,2.0646e-05,0
0.901,2.1317e-05,0
0.9015,2.3331e-05,0
0.902,2.4674e-05,0
0.9025,2.5177e-05,0
0.903,2.3835e-05,0
0.9035,2.3667e-05,0
0.904,2.4338e-05,0
0.9045,2.266e-05,0
0.905,2.1653e-05,0
0.9055,2.0981e-05,0
0.906,1.9135e-05,0
0.9065,1.8296e-05,0
0.907,1.796e-05,0
0.9075,1.8296e-05,0
0.908,1.8631e-05,0
0.9085,1.8296e-05,0
0.909,1.7624e-05,0
0.9095,1.9638e-05,0
0.91,2.031e-05,0
0.9105,1.8967e-05,0
0.911,1.8631e-05,0
0.9115,2.0142e-05,0
0.912,2.1317e-05,0
0.9125,2.0646e-05,0
0.913,1.9974e-05,0
0.9135,2.1317e-05,0
0.914,2.1317e-05,0
0.9145,1.947e-05,0
0.915,2.031e-05,0
0.9155,2.266e-05,0
0.916,2.1988e-05,0
0.9165,1.9638e-05,0
0.917,1.8631e-05,0
0.9175,1.9806e-05,0
0.918,1.8296e-05,0
0.9185,1.4603e-05,0
0.919,1.1246e-05,0
0.9195,1.0575e-05,0
0.92,1.326e-05,0
0.9205,1.6281e-05,0
0.921,1.796e-05,0
0.9215,1.7288e-05,0
0.922,1.4603e-05,0
0.9225,1.4603e-05,0
0.923,1.6114e-05,0
0.9235,1.796e-05,0
0.924,1.8631e-05,0
0.9245,1.947e-05,0
0.925,2.2995e-05,0
0.9255,2.3331e-05,0
0.926,2.0981e-05,0
0.9265,1.9638e-05,0
0.927,2.0646e-05,0
0.9275,2.3331e-05,0
0.928,2.3667e-05,0
0.9285,2.1317e-05,0
0.929,2.1149e-05,0
0.9295,2.266e-05,0
0.93,2.3163e-05,0
0.9305,2.3163e-05,0
0.931,2.1988e-05,0
0.9315,1.9974e-05,0
0.932,1.9974e-05,0
0.9325,2.182e-05,0
0.933,2.3331e-05,0
0.9335,2.0981e-05,0
0.934,1.8463e-05,0
0.9345,1.8799e-05,0
0.935,2.031e-05,0
0.9355,2.0981e-05,0
0.936,2.1317e-05,0
0.9365,2.2492e-05,0
0.937,2.3331e-05,0
0.9375,2.266e-05,0
0.938,2.031e-05,0
0.9385,1.9974e-05,0
0.939,2.0813e-05,0
0.9395,2.1317e-05,0
0.94,2.031e-05,0
0.9405,1.9303e-05,0
0.941,1.796e-05,0
0.9415,1.6281e-05,0
0.942,1.561e-05,0
0.9425,1.6281e-05,0
0.943,1.5946e-05,0
0.9435,1.4603e-05,0
0.944,1.6953e-05,0
0.9445,2.266e-05,0
0.945,2.7359e-05,0
0.9455,2.8031e-05,0
0.946,2.7359e-05,0
0.9465,2.4002e-05,0
0.947,2.1317e-05,0
0.9475,2.031e-05,0
0.948,2.1317e-05,0
0.9485,2.3331e-05,0
0.949,2.4002e-05,0
0.9495,2.3331e-05,0
0.95,2.2156e-05,0
0.9505,2.0981e-05,0
0.951,2.031e-05,0
0.9515,1.9135e-05,0
0.952,1.8296e-05,0
0.9525,1.7288e-05,0
0.953,1.7624e-05,0
0.9535,1.796e-05,0
0.954,1.9638e-05,0
0.9545,2.1317e-05,0
0.955,2.1317e-05,0
0.9555,1.9135e-05,0
0.956,1.8296e-05,0
0.9565,1.796e-05,0
0.957,1.7288e-05,0
0.9575,1.7288e-05,0
0.958,1.8967e-05,0
0.9585,2.0646e-05,0
0.959,2.031e-05,0
0.9595,1.8631e-05,0
0.96,1.8128e-05,0
0.9605,1.8128e-05,0
0.961,1.8631e-05,0
0.9615,1.9638e-05,0
0.962,2.0646e-05,0
0.9625,2.0646e-05,0
0.963,2.0646e-05,0
0.9635,1.9303e-05,0
0.964,1.7121e-05,0
0.9645,1.7288e-05,0
0.965,1.9974e-05,0
0.9655,2.266e-05,0
0.966,2.1317e-05,0
0.9665,1.9303e-05,0
0.967,1.9974e-05,0
0.9675,2.1317e-05,0
0.968,2.1317e-05,0
0.9685,2.0478e-05,0
0.969,2.031e-05,0
0.9695,2.0646e-05,0
0.97,2.0646e-05,0
0.9705,2.031e-05,0
0.971,1.9974e-05,0
0.9715,2.031e-05,0
0.972,2.031e-05,0
0.9725,2.1317e-05,0
0.973,2.2492e-05,0
0.9735,2.1317e-05,0
0.974,1.8967e-05,0
0.9745,1.6617e-05,0
0.975,1.7288e-05,0
0.9755,2.0813e-05,0
0.976,2.3667e-05,0
0.9765,2.3331e-05,0
0.977,2.0981e-05,0
0.9775,2.0646e-05,0
0.978,2.1988e-05,0
0.9785,2.0981e-05,0
0.979,2.0646e-05,0
0.9795,1.9974e-05,0
0.98,1.9303e-05,0
0.9805,1.9303e-05,0
0.981,1.9638e-05,0
0.9815,1.9303e-05,0
0.982,1.9303e-05,0
0.9825,1.8967e-05,0
0.983,1.9303e-05,0
0.9835,1.8631e-05,0
0.984,1.8128e-05,0
0.9845,1.7624e-05,0
0.985,1.7288e-05,0
0.9855,1.6953e-05,0
0.986,1.7121e-05,0
0.9865,1.7456e-05,0
0.987,1.5946e-05,0
0.9875,1.3596e-05,0
0.988,1.4603e-05,0
0.9885,1.6281e-05,0
0.989,1.4771e-05,0
0.9895,1.4939e-05,0
0.99,1.8128e-05,0
0.9905,1.9806e-05,0
0.991,1.6449e-05,0
0.9915,1.2589e-05,0
0.992,1.3092e-05,0
0.9925,1.4603e-05,0
0.993,1.5778e-05,0
0.9935,1.8631e-05,0
0.994,1.8967e-05,0
0.9945,1.8296e-05,0
0.995,1.9303e-05,0
0.9955,1.9303e-05,0
0.996,1.8296e-05,0
0.9965,1.8631e-05,0
0.997,1.8967e-05,0
0.9975,1.9806e-05,0
0.998,2.031e-05,0
0.9985,2.0646e-05,0
0.999,2.031e-05,0
0.9995,1.8296e-05,0
1,1.9303e-05,0
1.0005,2.266e-05,0
1.001,2.4338e-05,0
1.0015,2.182e-05,0
1.002,1.8296e-05,0
1.0025,1.561e-05,0
1.003,1.5946e-05,0
1.0035,1.6281e-05,0
1.004,1.561e-05,0
1.0045,1.6449e-05,0
1.005,1.8631e-05,0
1.0055,1.9303e-05,0
1.006,1.8463e-05,0
1.0065,1.7624e-05,0
1.007,1.7624e-05,0
1.0075,1.796e-05,0
1.008,1.8799e-05,0
1.0085,1.8967e-05,0
1.009,1.8631e-05,0
1.0095,1.8967e-05,0
1.01,1.9974e-05,0
1.0105,2.031e-05,0
1.011,1.9974e-05,0
1.0115,1.9806e-05,0
1.012,2.0646e-05,0
1.0125,2.0981e-05,0
1.013,2.0478e-05,0
1.0135,1.9974e-05,0
1.014,1.9638e-05,0
1.0145,1.9638e-05,0
1.015,1.9638e-05,0
1.0155,1.947e-05,0
1.016,2.031e-05,0
1.0165,2.0646e-05,0
1.017,1.9638e-05,0
1.0175,1.8631e-05,0
1.018,1.8631e-05,0
1.0185,1.8296e-05,0
1.019,1.8631e-05,0
1.0195,1.9974e-05,0
1.02,1.9974e-05,0
1.0205,1.947e-05,0
1.021,2.0813e-05,0
1.0215,2.1653e-05,0
1.022,2.1988e-05,0
1.0225,2.3499e-05,0
1.023,2.3331e-05,0
1.0235,2.266e-05,0
1.024,2.5345e-05,0
1.0245,2.7359e-05,0
1.025,2.8031e-05,0
1.0255,2.7695e-05,0
1.026,2.8031e-05,0
1.0265,2.7695e-05,0
1.027,2.7024e-05,0
1.0275,2.5345e-05,0
1.028,2.1317e-05,0
1.0285,1.8296e-05,0
1.029,1.8296e-05,0
1.0295,1.9974e-05,0
1.03,2.031e-05,0
1.0305,2.0981e-05,0
1.031,2.182e-05,0
1.0315,2.1653e-05,0
1.032,2.1149e-05,0
1.0325,2.0981e-05,0
1.033,1.9974e-05,0
1.0335,1.947e-05,0
1.034,1.9806e-05,0
1.0345,2.0646e-05,0
1.035,1.9638e-05,0
1.0355,1.6617e-05,0
1.036,1.5106e-05,0
1.0365,1.5274e-05,0
1.037,1.7792e-05,0
1.0375,1.9135e-05,0
1.038,1.9638e-05,0
1.0385,1.9974e-05,0
1.039,1.9974e-05,0
1.0395,1.8631e-05,0
1.04,1.6617e-05,0
1.0405,1.4603e-05,0
1.041,1.3932e-05,0
1.0415,1.5946e-05,0
1.042,1.8631e-05,0
1.0425,2.0646e-05,0
1.043,2.0646e-05,0
1.0435,1.9638e-05,0
1.044,1.8967e-05,0
1.0445,1.8631e-05,0
1.045,1.8128e-05,0
1.0455,1.6953e-05,0
1.046,1.7288e-05,0
1.0465,1.8463e-05,0
1.047,1.8296e-05,0
1.0475,1.7624e-05,0
1.048,1.8296e-05,0
1.0485,1.9135e-05,0
1.049,1.9974e-05,0
1.0495,1.9806e-05,0
1.05,1.9974e-05,0
1.0505,1.9638e-05,0
1.051,1.796e-05,0
1.0515,1.7792e-05,0
1.052,1.8631e-05,0
1.0525,2.0646e-05,0
1.053,2.1149e-05,0
1.0535,1.9806e-05,0
1.054,1.9303e-05,0
1.0545,2.0981e-05,0
1.055,2.1653e-05,0
1.0555,2.2324e-05,0
1.056,2.2995e-05,0
1.0565,2.4002e-05,0
1.057,2.4674e-05,0
1.0575,2.3835e-05,0
1.058,2.1317e-05,0
1.0585,1.9303e-05,0
1.059,1.9974e-05,0
1.0595,2.0646e-05,0
1.06,1.9806e-05,0
1.0605,2.0646e-05,0
1.061,2.1653e-05,0
1.0615,2.0478e-05,0
1.062,1.8463e-05,0
1.0625,1.5946e-05,0
1.063,1.5274e-05,0
1.0635,1.7121e-05,0
1.064,1.9638e-05,0
1.0645,2.1653e-05,0
1.065,2.3667e-05,0
1.0655,2.2324e-05,0
1.066,1.9303e-05,0
1.0665,1.7288e-05,0
1.067,1.7624e-05,0
1.0675,1.9303e-05,0
1.068,2.031e-05,0
1.0685,2.182e-05,0
1.069,2.2995e-05,0
1.0695,2.4002e-05,0
1.07,2.5345e-05,0
1.0705,2.6688e-05,0
1.071,2.7359e-05,0
1.0715,2.7695e-05,0
1.072,2.5513e-05,0
1.0725,2.2995e-05,0
1.073,2.1317e-05,0
1.0735,1.9806e-05,0
1.074,1.796e-05,0
1.0745,1.6281e-05,0
1.075,1.7792e-05,0
1.0755,2.031e-05,0
1.076,2.0142e-05,0
1.0765,1.796e-05,0
1.077,1.5274e-05,0
1.0775,1.5274e-05,0
1.078,1.5778e-05,0
1.0785,1.5274e-05,0
1.079,1.4603e-05,0
1.0795,1.5106e-05,0
1.08,1.5946e-05,0
1.0805,1.7288e-05,0
1.081,1.6953e-05,0
1.0815,1.7121e-05,0
1.082,1.7288e-05,0
1.0825,1.7792e-05,0
1.083,1.9806e-05,0
1.0835,2.0478e-05,0
1.084,2.0478e-05,0
1.0845,2.031e-05,0
1.085,1.9303e-05,0
1.0855,1.8463e-05,0
1.086,1.9303e-05,0
1.0865,2.0646e-05,0
1.087,2.1317e-05,0
1.0875,1.9303e-05,0
1.088,1.6281e-05,0
1.0885,1.5946e-05,0
1.089,1.8631e-05,0
1.0895,1.9638e-05,0
1.09,1.6785e-05,0
1.0905,1.561e-05,0
1.091,1.8296e-05,0
1.0915,1.9303e-05,0
1.092,1.6281e-05,0
1.0925,1.2924e-05,0
1.093,1.2924e-05,0
1.0935,1.5274e-05,0
1.094,1.4939e-05,0
1.0945,1.4939e-05,0
1.095,1.561e-05,0
1.0955,1.561e-05,0
1.096,1.5106e-05,0
1.0965,1.5946e-05,0
1.097,1.7288e-05,0
1.0975,1.6281e-05,0
1.098,1.5946e-05,0
1.0985,1.8296e-05,0
1.099,2.1149e-05,0
1.0995,2.2995e-05,0
1.1,2.266e-05,0
1.1005,2.2324e-05,0
1.101,2.1317e-05,0
1.1015,2.1149e-05,0
1.102,2.1149e-05,0
1.1025,2.1149e-05,0
1.103,2.0981e-05,0
1.1035,1.8967e-05,0
1.104,1.8631e-05,0
1.1045,1.9806e-05,0
1.105,2.0646e-05,0
1.1055,2.182e-05,0
1.106,2.5177e-05,0
1.1065,2.8031e-05,0
1.107,2.8199e-05,0
1.1075,2.6688e-05,0
1.108,2.4842e-05,0
1.1085,2.266e-05,0
1.109,2.1317e-05,0
1.1095,1.9974e-05,0
1.11,1.947e-05,0
1.1105,2.1317e-05,0
1.111,2.2492e-05,0
1.1115,2.2324e-05,0
1.112,2.1317e-05,0
1.1125,2.2995e-05,0
1.113,2.3331e-05,0
1.1135,2.1317e-05,0
1.114,2.0478e-05,0
1.1145,2.1317e-05,0
1.115,2.1653e-05,0
1.1155,2.1317e-05,0
1.116,2.4338e-05,0
1.1165,2.6352e-05,0
1.117,2.5345e-05,0
1.1175,2.3331e-05,0
1.118,2.2995e-05,0
1.1185,2.182e-05,0
1.119,1.9638e-05,0
1.1195,2.031e-05,0
1.12,2.2156e-05,0
1.1205,2.1988e-05,0
1.121,2.0142e-05,0
1.1215,1.9135e-05,0
1.122,1.7624e-05,0
1.1225,1.5442e-05,0
1.123,1.4435e-05,0
1.1235,1.5106e-05,0
1.124,1.6953e-05,0
1.1245,2.031e-05,0
1.125,2.3331e-05,0
1.1255,2.3667e-05,0
1.126,2.2492e-05,0
1.1265,2.1988e-05,0
1.127,2.1149e-05,0
1.1275,1.9974e-05,0
1.128,2.0646e-05,0
1.1285,2.1317e-05,0
1.129,2.1317e-05,0
1.1295,2.0646e-05,0
1.13,1.947e-05,0
1.1305,1.9135e-05,0
1.131,1.8631e-05,0
1.1315,1.6281e-05,0
1.132,1.4267e-05,0
1.1325,1.3428e-05,0
1.133,1.3764e-05,0
1.1335,1.561e-05,0
1.134,1.6281e-05,0
1.1345,1.7288e-05,0
1.135,1.7792e-05,0
1.1355,1.6449e-05,0
1.136,1.7792e-05,0
1.1365,2.1149e-05,0
1.137,2.182e-05,0
1.1375,1.9974e-05,0
1.138,1.796e-05,0
1.1385,1.7288e-05,0
1.139,1.8296e-05,0
1.1395,1.8631e-05,0
1.14,1.796e-05,0
1.1405,1.7121e-05,0
1.141,1.6617e-05,0
1.1415,1.6617e-05,0
1.142,1.5778e-05,0
1.1425,1.5946e-05,0
1.143,1.8631e-05,0
1.1435,2.0142e-05,0
1.144,1.9806e-05,0
1.1445,1.9806e-05,0
1.145,2.1149e-05,0
1.1455,2.1988e-05,0
1.146,2.2156e-05,0
1.1465,2.0478e-05,0
1.147,2.0981e-05,0
1.1475,2.2995e-05,0
1.148,2.3331e-05,0
1.1485,2.031e-05,0
1.149,1.561e-05,0
1.1495,1.326e-05,0
1.15,1.4267e-05,0
1.1505,1.5274e-05,0
1.151,1.4603e-05,0
1.1515,1.4435e-05,0
1.152,1.4603e-05,0
1.1525,1.5778e-05,0
1.153,1.796e-05,0
1.1535,2.031e-05,0
1.154,2.1317e-05,0
1.1545,2.0478e-05,0
1.155,2.031e-05,0
1.1555,2.1653e-05,0
1.156,2.2995e-05,0
1.1565,2.3667e-05,0
1.157,2.4002e-05,0
1.1575,2.3499e-05,0
1.158,2.1653e-05,0
1.1585,2.182e-05,0
1.159,2.3331e-05,0
1.1595,2.2492e-05,0
1.16,1.9806e-05,0
1.1605,1.7121e-05,0
1.161,1.6953e-05,0
1.1615,1.796e-05,0
1.162,1.9638e-05,0
1.1625,2.1317e-05,0
1.163,2.1317e-05,0
1.1635,2.0813e-05,0
1.164,1.9974e-05,0
1.1645,1.9135e-05,0
1.165,1.9303e-05,0
1.1655,2.031e-05,0
1.166,2.0646e-05,0
1.1665,2.0646e-05,0
1.167,2.0981e-05,0
1.1675,2.0813e-05,0
1.168,2.0478e-05,0
1.1685,2.0478e-05,0
1.169,2.0646e-05,0
1.1695,2.0646e-05,0
1.17,1.8631e-05,0
1.1705,1.796e-05,0
1.171,1.8631e-05,0
1.1715,1.8967e-05,0
1.172,1.8631e-05,0
1.1725,1.947e-05,0
1.173,1.947e-05,0
1.1735,2.031e-05,0
1.174,2.2995e-05,0
1.1745,2.2995e-05,0
1.175,1.9638e-05,0
1.1755,1.796e-05,0
1.176,1.796e-05,0
1.1765,1.9806e-05,0
1.177,2.1317e-05,0
1.1775,2.0646e-05,0
1.178,1.9806e-05,0
1.1785,1.9974e-05,0
1.179,2.1988e-05,0
1.1795,2.4002e-05,0
1.18,2.4002e-05,0
1.1805,2.4506e-05,0
1.181,2.5345e-05,0
1.1815,2.5345e-05,0
1.182,2.2324e-05,0
1.1825,1.947e-05,0
1.183,1.7288e-05,0
1.1835,1.7624e-05,0
1.184,1.8967e-05,0
1.1845,2.0478e-05,0
1.185,2.0142e-05,0
1.1855,1.9303e-05,0
1.186,1.9974e-05,0
1.1865,2.0813e-05,0
1.187,1.9974e-05,0
1.1875,1.9135e-05,0
1.188,2.0981e-05,0
1.1885,2.4842e-05,0
1.189,2.652e-05,0
1.1895,2.6017e-05,0
1.19,2.5681e-05,0
1.1905,2.6184e-05,0
1.191,2.6688e-05,0
1.1915,2.6688e-05,0
1.192,2.4842e-05,0
1.1925,2.2324e-05,0
1.193,1.9638e-05,0
1.1935,1.6281e-05,0
1.194,1.4267e-05,0
1.1945,1.3932e-05,0
1.195,1.3596e-05,0
1.1955,1.2589e-05,0
1.196,1.1246e-05,0
1.1965,1.0239e-05,0
1.197,1.2253e-05,0
1.1975,1.5946e-05,0
1.198,1.4771e-05,0
1.1985,1.2253e-05,0
1.199,1.1582e-05,0
1.1995,1.2085e-05,0
1.2,1.4099e-05,0
1.2005,1.5106e-05,0
1.201,1.3596e-05,0
1.2015,1.2589e-05,0
1.202,1.326e-05,0
1.2025,1.5946e-05,0
1.203,1.8296e-05,0
1.2035,1.8463e-05,0
1.204,1.7624e-05,0
1.2045,1.7288e-05,0
1.205,1.6785e-05,0
1.2055,1.6617e-05,0
1.206,1.796e-05,0
1.2065,2.1317e-05,0
1.207,2.266e-05,0
1.2075,2.1317e-05,0
1.208,2.1149e-05,0
1.2085,2.1317e-05,0
1.209,2.1988e-05,0
1.2095,2.266e-05,0
1.21,2.3667e-05,0
1.2105,2.4842e-05,0
1.211,2.5513e-05,0
1.2115,2.4002e-05,0
1.212,2.0981e-05,0
1.2125,2.1149e-05,0
1.213,2.266e-05,0
1.2135,2.2995e-05,0
1.214,2.2995e-05,0
1.2145,2.4338e-05,0
1.215,2.5681e-05,0
1.2155,2.6688e-05,0
1.216,2.6688e-05,0
1.2165,2.5681e-05,0
1.217,2.4002e-05,0
1.2175,2.2995e-05,0
1.218,2.182e-05,0
1.2185,2.1988e-05,0
1.219,2.1317e-05,0
1.2195,2.0478e-05,0
1.22,1.9638e-05,0
1.2205,1.796e-05,0
1.221,1.5778e-05,0
1.2215,1.2924e-05,0
1.222,1.1582e-05,0
1.2225,1.3092e-05,0
1.223,1.561e-05,0
1.2235,1.5946e-05,0
1.224,1.5946e-05,0
1.2245,1.7288e-05,0
1.225,1.9974e-05,0
1.2255,2.031e-05,0
1.226,1.9135e-05,0
1.2265,1.7624e-05,0
1.227,1.796e-05,0
1.2275,1.9303e-05,0
1.228,1.8296e-05,0
1.2285,1.7288e-05,0
1.229,1.7456e-05,0
1.2295,1.7792e-05,0
1.23,1.9135e-05,0
1.2305,2.0478e-05,0
1.231,1.8967e-05,0
1.2315,1.5946e-05,0
1.232,1.4771e-05,0
1.2325,1.5946e-05,0
1.233,1.7288e-05,0
1.2335,1.796e-05,0
1.234,1.8967e-05,0
1.2345,1.8967e-05,0
1.235,1.9638e-05,0
1.2355,2.0646e-05,0
1.236,2.0478e-05,0
1.2365,2.1317e-05,0
1.237,2.3499e-05,0
1.2375,2.4002e-05,0
1.238,2.4338e-05,0
1.2385,2.3331e-05,0
1.239,2.1653e-05,0
1.2395,2.1149e-05,0
1.24,2.1317e-05,0
1.2405,2.182e-05,0
1.241,2.1653e-05,0
1.2415,2.1653e-05,0
1.242,2.1317e-05,0
1.2425,2.0981e-05,0
1.243,2.1317e-05,0
1.2435,2.1149e-05,0
1.244,1.9303e-05,0
1.2445,1.8631e-05,0
1.245,1.8967e-05,0
1.2455,1.8631e-05,0
1.246,1.8631e-05,0
1.2465,2.0981e-05,0
1.247,2.1317e-05,0
1.2475,1.8967e-05,0
1.248,1.6953e-05,0
1.2485,1.6953e-05,0
1.249,1.7121e-05,0
1.2495,1.5778e-05,0
1.25,1.4603e-05,0
1.2505,1.5106e-05,0
1.251,1.5274e-05,0
1.2515,1.5946e-05,0
1.252,1.6785e-05,0
1.2525,1.7288e-05,0
1.253,1.6617e-05,0
1.2535,1.6449e-05,0
1.254,1.7288e-05,0
1.2545,1.9303e-05,0
1.255,2.1988e-05,0
1.2555,2.3331e-05,0
1.256,2.1988e-05,0
1.2565,2.2156e-05,0
1.257,2.3835e-05,0
1.2575,2.3667e-05,0
1.258,2.3499e-05,0
1.2585,2.5177e-05,0
1.259,2.6688e-05,0
1.2595,2.8031e-05,0
1.26,2.6688e-05,0
1.2605,2.4842e-05,0
1.261,2.6017e-05,0
1.2615,2.6184e-05,0
1.262,2.3331e-05,0
1.2625,2.2324e-05,0
1.263,2.2324e-05,0
1.2635,2.1317e-05,0
1.264,1.9303e-05,0
1.2645,1.9303e-05,0
1.265,2.0646e-05,0
1.2655,2.1317e-05,0
1.266,2.1988e-05,0
1.2665,2.1988e-05,0
1.267,2.1317e-05,0
1.2675,1.9974e-05,0
1.268,1.9135e-05,0
1.2685,1.8128e-05,0
1.269,1.8967e-05,0
1.2695,2.1317e-05,0
1.27,2.2324e-05,0
1.2705,2.266e-05,0
1.271,2.1149e-05,0
1.2715,1.7121e-05,0
1.272,1.5274e-05,0
1.2725,1.5778e-05,0
1.273,1.4603e-05,0
1.2735,1.3764e-05,0
1.274,1.3932e-05,0
1.2745,1.4099e-05,0
1.275,1.5106e-05,0
1.2755,1.5442e-05,0
1.276,1.5274e-05,0
1.2765,1.5946e-05,0
1.277,1.5274e-05,0
1.2775,1.4267e-05,0
1.278,1.6617e-05,0
1.2785,1.9303e-05,0
1.279,1.8967e-05,0
1.2795,1.6785e-05,0
1.28,1.4939e-05,0
1.2805,1.7456e-05,0
1.281,2.0478e-05,0
1.2815,2.031e-05,0
1.282,1.7288e-05,0
1.2825,1.4603e-05,0
1.283,1.3932e-05,0
1.2835,1.3932e-05,0
1.284,1.2924e-05,0
1.2845,1.0575e-05,0
1.285,9.9031e-06,0
1.2855,1.0575e-05,0
1.286,1.0071e-05,0
1.2865,9.2317e-06,0
1.287,1.0407e-05,0
1.2875,1.326e-05,0
1.288,1.7121e-05,0
1.2885,2.1149e-05,0
1.289,2.4002e-05,0
1.2895,2.5345e-05,0
1.29,2.5345e-05,0
1.2905,2.5849e-05,0
1.291,2.5849e-05,0
1.2915,2.5177e-05,0
1.292,2.5177e-05,0
1.2925,2.652e-05,0
1.293,2.6017e-05,0
1.2935,2.3667e-05,0
1.294,2.1653e-05,0
1.2945,2.3667e-05,0
1.295,2.5009e-05,0
1.2955,2.266e-05,0
1.296,2.0646e-05,0
1.2965,2.031e-05,0
1.297,2.1653e-05,0
1.2975,2.3331e-05,0
1.298,2.4338e-05,0
1.2985,2.2324e-05,0
1.299,1.9638e-05,0
1.2995,1.9303e-05,0
1.3,2.1317e-05,0
1.3005,2.3331e-05,0
1.301,2.1317e-05,0
1.3015,2.0646e-05,0
1.302,2.1653e-05,0
1.3025,2.1988e-05,0
1.303,2.2492e-05,0
1.3035,2.4002e-05,0
1.304,2.4674e-05,0
1.3045,2.5177e-05,0
1.305,2.4674e-05,0
1.3055,2.2324e-05,0
1.306,2.2156e-05,0
1.3065,2.4002e-05,0
1.307,2.5009e-05,0
1.3075,2.5513e-05,0
1.308,2.5681e-05,0
1.3085,2.5009e-05,0
1.309,2.4674e-05,0
1.3095,2.3835e-05,0
1.31,2.3331e-05,0
1.3105,2.5345e-05,0
1.311,2.652e-05,0
1.3115,2.5177e-05,0
1.312,2.1988e-05,0
1.3125,1.9974e-05,0
1.313,1.9303e-05,0
1.3135,1.8967e-05,0
1.314,1.7624e-05,0
1.3145,1.7288e-05,0
1.315,1.5946e-05,0
1.3155,1.5274e-05,0
1.316,1.3932e-05,0
1.3165,1.326e-05,0
1.317,1.3932e-05,0
1.3175,1.3764e-05,0
1.318,1.326e-05,0
1.3185,1.4267e-05,0
1.319,1.561e-05,0
1.3195,1.6449e-05,0
1.32,1.6953e-05,0
1.3205,1.7792e-05,0
1.321,1.8296e-05,0
1.3215,1.7288e-05,0
1.322,1.4603e-05,0
1.3225,1.4603e-05,0
1.323,1.7456e-05,0
1.3235,1.9974e-05,0
1.324,2.1149e-05,0
1.3245,2.0478e-05,0
1.325,1.9303e-05,0
1.3255,1.796e-05,0
1.326,1.6449e-05,0
1.3265,1.6785e-05,0
1.327,1.5946e-05,0
1.3275,1.2589e-05,0
1.328,1.1246e-05,0
1.3285,1.3596e-05,0
1.329,1.6617e-05,0
1.3295,1.9135e-05,0
1.33,2.0981e-05,0
1.3305,2.1988e-05,0
1.331,2.3667e-05,0
1.3315,2.5009e-05,0
1.332,2.5681e-05,0
1.3325,2.7527e-05,0
1.333,2.8031e-05,0
1.3335,2.7024e-05,0
1.334,2.5345e-05,0
1.3345,2.3331e-05,0
1.335,2.2492e-05,0
1.3355,2.266e-05,0
1.336,2.0646e-05,0
1.3365,1.7288e-05,0
1.337,1.6953e-05,0
1.3375,1.8631e-05,0
1.338,1.8631e-05,0
1.3385,1.7624e-05,0
1.339,1.8631e-05,0
1.3395,2.1317e-05,0
1.34,2.266e-05,0
1.3405,2.266e-05,0
1.341,2.2995e-05,0
1.3415,2.4002e-05,0
1.342,2.3835e-05,0
1.3425,2.2995e-05,0
1.343,2.0646e-05,0
1.3435,1.7288e-05,0
1.344,1.6449e-05,0
1.3445,1.8128e-05,0
1.345,1.9974e-05,0
1.3455,2.031e-05,0
1.346,2.031e-05,0
1.3465,2.1317e-05,0
1.347,2.1988e-05,0
1.3475,1.9806e-05,0
1.348,1.6281e-05,0
1.3485,1.4939e-05,0
1.349,1.5106e-05,0
1.3495,1.5274e-05,0
1.35,1.5274e-05,0
1.3505,1.4603e-05,0
1.351,1.4435e-05,0
1.3515,1.4267e-05,0
1.352,1.3932e-05,0
1.3525,1.4267e-05,0
1.353,1.4603e-05,0
1.3535,1.4603e-05,0
1.354,1.5274e-05,0
1.3545,1.6953e-05,0
1.355,1.9806e-05,0
1.3555,2.0478e-05,0
1.356,1.9974e-05,0
1.3565,2.0981e-05,0
1.357,2.1149e-05,0
1.3575,2.0981e-05,0
1.358,2.031e-05,0
1.3585,2.0142e-05,0
1.359,2.0646e-05,0
1.3595,2.031e-05,0
1.36,1.9974e-05,0
1.3605,2.031e-05,0
1.361,2.0981e-05,0
1.3615,2.0478e-05,0
1.362,2.0981e-05,0
1.3625,2.1988e-05,0
1.363,2.4842e-05,0
1.3635,2.6017e-05,0
1.364,2.4002e-05,0
1.3645,2.1988e-05,0
1.365,2.1317e-05,0
1.3655,2.2324e-05,0
1.366,2.2828e-05,0
1.3665,2.182e-05,0
1.367,2.0981e-05,0
1.3675,2.1317e-05,0
1.368,2.1317e-05,0
1.3685,2.1653e-05,0
1.369,2.1317e-05,0
1.3695,1.8631e-05,0
1.37,1.6617e-05,0
1.3705,1.7624e-05,0
1.371,1.8631e-05,0
1.3715,1.8631e-05,0
1.372,2.031e-05,0
1.3725,2.266e-05,0
1.373,2.3163e-05,0
1.3735,2.182e-05,0
1.374,2.1149e-05,0
1.3745,2.182e-05,0
1.375,2.1317e-05,0
1.3755,1.947e-05,0
1.376,1.947e-05,0
1.3765,1.9974e-05,0
1.377,1.9974e-05,0
1.3775,1.8967e-05,0
1.378,1.7624e-05,0
1.3785,1.6281e-05,0
1.379,1.5442e-05,0
1.3795,1.4435e-05,0
1.38,1.2085e-05,0
1.3805,9.2317e-06,0
1.381,9.0639e-06,0
1.3815,9.9031e-06,0
1.382,1.0239e-05,0
1.3825,1.091e-05,0
1.383,1.3092e-05,0
1.3835,1.6281e-05,0
1.384,1.947e-05,0
1.3845,1.9974e-05,0
1.385,2.0981e-05,0
1.3855,2.2995e-05,0
1.386,2.4338e-05,0
1.3865,2.4002e-05,0
1.387,2.4338e-05,0
1.3875,2.4338e-05,0
1.388,2.4002e-05,0
1.3885,2.5849e-05,0
1.389,2.7192e-05,0
1.3895,2.5849e-05,0
1.39,2.4338e-05,0
1.3905,2.266e-05,0
1.391,2.1317e-05,0
1.3915,1.9806e-05,0
1.392,1.9638e-05,0
1.3925,1.9806e-05,0
1.393,1.9806e-05,0
1.3935,2.0646e-05,0
1.394,2.3331e-05,0
1.3945,2.5009e-05,0
1.395,2.4002e-05,0
1.3955,2.2156e-05,0
1.396,2.1988e-05,0
1.3965,2.2324e-05,0
1.397,2.0813e-05,0
1.3975,1.9638e-05,0
1.398,2.0981e-05,0
1.3985,2.3667e-05,0
1.399,2.4338e-05,0
1.3995,2.3331e-05,0
1.4,2.2828e-05,0
1.4005,2.2492e-05,0
1.401,2.1988e-05,0
1.4015,2.1988e-05,0
1.402,2.182e-05,0
1.4025,2.1149e-05,0
1.403,2.0478e-05,0
1.4035,2.0981e-05,0
1.404,2.1317e-05,0
1.4045,2.1317e-05,0
1.405,1.9638e-05,0
1.4055,1.9638e-05,0
1.406,2.1317e-05,0
1.4065,2.2995e-05,0
1.407,2.2324e-05,0
1.4075,1.9638e-05,0
1.408,1.8631e-05,0
1.4085,1.9974e-05,0
1.409,2.182e-05,0
1.4095,2.1149e-05,0
1.41,1.7288e-05,0
1.4105,1.561e-05,0
1.411,1.6281e-05,0
1.4115,1.796e-05,0
1.412,1.7288e-05,0
1.4125,1.4939e-05,0
1.413,1.5442e-05,0
1.4135,1.7288e-05,0
1.414,1.7624e-05,0
1.4145,1.7288e-05,0
1.415,1.7624e-05,0
1.4155,1.8463e-05,0
1.416,1.8296e-05,0
1.4165,1.7624e-05,0
1.417,1.6617e-05,0
1.4175,1.4939e-05,0
1.418,1.4267e-05,0
1.4185,1.4603e-05,0
1.419,1.5778e-05,0
1.4195,1.6617e-05,0
1.42,1.5946e-05,0
1.4205,1.4939e-05,0
1.421,1.561e-05,0
1.4215,1.4939e-05,0
1.422,1.4267e-05,0
1.4225,1.5778e-05,0
1.423,1.7624e-05,0
1.4235,1.8296e-05,0
1.424,1.7624e-05,0
1.4245,1.796e-05,0
1.425,1.8128e-05,0
1.4255,1.8967e-05,0
1.426,2.1317e-05,0
1.4265,2.266e-05,0
1.427,2.3163e-05,0
1.4275,2.3331e-05,0
1.428,2.5009e-05,0
1.4285,2.4506e-05,0
1.429,2.2995e-05,0
1.4295,2.1988e-05,0
1.43,2.1149e-05,0
1.4305,2.0478e-05,0
1.431,2.1149e-05,0
1.4315,2.182e-05,0
1.432,2.2156e-05,0
1.4325,2.2492e-05,0
1.433,2.2324e-05,0
1.4335,2.266e-05,0
1.434,2.2828e-05,0
1.4345,2.1317e-05,0
1.435,1.9303e-05,0
1.4355,1.7624e-05,0
1.436,1.6617e-05,0
1.4365,1.5442e-05,0
1.437,1.3932e-05,0
1.4375,1.2757e-05,0
1.438,1.2421e-05,0
1.4385,1.2757e-05,0
1.439,1.4099e-05,0
1.4395,1.5946e-05,0
1.44,1.8128e-05,0
1.4405,1.9974e-05,0
1.441,2.1317e-05,0
1.4415,2.2492e-05,0
1.442,2.4506e-05,0
1.4425,2.3331e-05,0
1.443,2.0813e-05,0
1.4435,2.031e-05,0
1.444,1.8967e-05,0
1.4445,1.7456e-05,0
1.445,1.8296e-05,0
1.4455,2.1317e-05,0
1.446,2.4002e-05,0
1.4465,2.5009e-05,0
1.447,2.4338e-05,0
1.4475,2.1149e-05,0
1.448,1.9638e-05,0
1.4485,1.9135e-05,0
1.449,1.8967e-05,0
1.4495,2.0478e-05,0
1.45,2.0981e-05,0
1.4505,1.947e-05,0
1.451,1.8967e-05,0
1.4515,2.182e-05,0
1.452,2.5009e-05,0
1.4525,2.5681e-05,0
1.453,2.4674e-05,0
1.4535,2.2995e-05,0
1.454,2.3331e-05,0
1.4545,2.4002e-05,0
1.455,2.4338e-05,0
1.4555,2.3163e-05,0
1.456,2.266e-05,0
1.4565,2.1317e-05,0
1.457,2.0646e-05,0
1.4575,1.9974e-05,0
1.458,1.8296e-05,0
1.4585,1.6953e-05,0
1.459,1.7624e-05,0
1.4595,1.9303e-05,0
1.46,1.9303e-05,0
1.4605,1.8631e-05,0
1.461,1.947e-05,0
1.4615,2.0478e-05,0
1.462,1.8631e-05,0
1.4625,1.5274e-05,0
1.463,1.3932e-05,0
1.4635,1.4435e-05,0
1.464,1.561e-05,0
1.4645,1.7288e-05,0
1.465,1.8967e-05,0
1.4655,1.9806e-05,0
1.466,2.0981e-05,0
1.4665,2.1317e-05,0
1.467,2.1317e-05,0
1.4675,2.1988e-05,0
1.468,2.3835e-05,0
1.4685,2.2492e-05,0
1.469,1.9974e-05,0
1.4695,1.8631e-05,0
1.47,1.8631e-05,0
1.4705,1.8463e-05,0
1.471,1.8631e-05,0
1.4715,1.9974e-05,0
1.472,1.9303e-05,0
1.4725,1.796e-05,0
1.473,1.947e-05,0
1.4735,2.0646e-05,0
1.474,1.9974e-05,0
1.4745,1.8967e-05,0
1.475,1.8463e-05,0
1.4755,1.9638e-05,0
1.476,2.0981e-05,0
1.4765,2.0981e-05,0
1.477,2.0646e-05,0
1.4775,2.1149e-05,0
1.478,2.1988e-05,0
1.4785,2.1317e-05,0
1.479,1.9135e-05,0
1.4795,1.8631e-05,0
1.48,1.9638e-05,0
1.4805,1.9638e-05,0
1.481,1.9638e-05,0
1.4815,2.0646e-05,0
1.482,2.1988e-05,0
1.4825,2.182e-05,0
1.483,2.1317e-05,0
1.4835,1.9638e-05,0
1.484,1.8296e-05,0
1.4845,1.9974e-05,0
1.485,2.2324e-05,0
1.4855,2.2995e-05,0
1.486,2.031e-05,0
1.4865,1.7288e-05,0
1.487,1.7288e-05,0
1.4875,1.8128e-05,0
1.488,1.7456e-05,0
1.4885,1.6281e-05,0
1.489,1.6953e-05,0
1.4895,1.8631e-05,0
1.49,1.8967e-05,0
1.4905,1.8463e-05,0
1.491,1.7792e-05,0
1.4915,1.7456e-05,0
1.492,1.7624e-05,0
1.4925,1.9638e-05,0
1.493,2.2492e-05,0
1.4935,2.417e-05,0
1.494,2.3667e-05,0
1.4945,2.031e-05,0
1.495,1.7792e-05,0
1.4955,1.7288e-05,0
1.496,1.8296e-05,0
1.4965,1.8128e-05,0
1.497,1.7288e-05,0
1.4975,1.796e-05,0
1.498,1.8631e-05,0
1.4985,1.9135e-05,0
1.499,2.0981e-05,0
1.4995,2.2995e-05,0
1.5,2.3667e-05,0
1.5005,2.3499e-05,0
1.501,2.2156e-05,0
1.5015,2.1317e-05,0
1.502,2.2324e-05,0
1.5025,2.1988e-05,0
1.503,2.1149e-05,0
1.5035,2.1317e-05,0
1.504,2.2156e-05,0
1.5045,2.3331e-05,0
1.505,2.4002e-05,0
1.5055,2.3499e-05,0
1.506,2.1653e-05,0
1.5065,2.0813e-05,0
1.507,2.1988e-05,0
1.5075,2.3331e-05,0
1.508,2.3667e-05,0
1.5085,2.3667e-05,0
1.509,2.3331e-05,0
1.5095,2.0981e-05,0
1.51,1.9638e-05,0
1.5105,1.796e-05,0
1.511,1.5274e-05,0
1.5115,1.5106e-05,0
1.512,1.8631e-05,0
1.5125,1.9974e-05,0
1.513,1.9135e-05,0
1.5135,1.5946e-05,0
1.514,1.1414e-05,0
1.5145,1.0239e-05,0
1.515,1.1749e-05,0
1.5155,1.2253e-05,0
1.516,1.1917e-05,0
1.5165,1.2924e-05,0
1.517,1.326e-05,0
1.5175,1.3932e-05,0
1.518,1.4603e-05,0
1.5185,1.4603e-05,0
1.519,1.5442e-05,0
1.5195,1.8128e-05,0
1.52,2.1653e-05,0
1.5205,2.3331e-05,0
1.521,2.2995e-05,0
1.5215,2.1988e-05,0
1.522,2.1317e-05,0
1.5225,2.0646e-05,0
1.523,2.0981e-05,0
1.5235,2.2324e-05,0
1.524,2.1988e-05,0
1.5245,2.0646e-05,0
1.525,1.9806e-05,0
1.5255,1.9638e-05,0
1.526,1.9303e-05,0
1.5265,1.7792e-05,0
1.527,1.5946e-05,0
1.5275,1.5946e-05,0
1.528,1.9806e-05,0
1.5285,2.4674e-05,0
1.529,2.7024e-05,0
1.5295,2.7359e-05,0
1.53,2.6017e-05,0
1.5305,2.4674e-05,0
1.531,2.3331e-05,0
1.5315,2.4338e-05,0
1.532,2.7359e-05,0
1.5325,2.8031e-05,0
1.533,2.5345e-05,0
1.5335,2.3499e-05,0
1.534,2.5345e-05,0
1.5345,2.7192e-05,0
1.535,2.6688e-05,0
1.5355,2.5345e-05,0
1.536,2.4002e-05,0
1.5365,2.0981e-05,0
1.537,1.796e-05,0
1.5375,1.8296e-05,0
1.538,2.031e-05,0
1.5385,2.1317e-05,0
1.539,1.9974e-05,0
1.5395,1.7288e-05,0
1.54,1.5274e-05,0
1.5405,1.4267e-05,0
1.541,1.4603e-05,0
1.5415,1.561e-05,0
1.542,1.5274e-05,0
1.5425,1.7456e-05,0
1.543,2.1653e-05,0
1.5435,2.3835e-05,0
1.544,2.3331e-05,0
1.5445,2.0646e-05,0
1.545,1.5274e-05,0
1.5455,1.1246e-05,0
1.546,1.0239e-05,0
1.5465,1.1414e-05,0
1.547,1.326e-05,0
1.5475,1.4603e-05,0
1.548,1.6617e-05,0
1.5485,1.8463e-05,0
1.549,1.7121e-05,0
1.5495,1.5946e-05,0
1.55,1.6617e-05,0
1.5505,1.8631e-05,0
1.551,1.8967e-05,0
1.5515,1.9303e-05,0
1.552,2.0813e-05,0
1.5525,2.1988e-05,0
1.553,2.1988e-05,0
1.5535,2.2324e-05,0
1.554,2.3163e-05,0
1.5545,2.3667e-05,0
1.555,2.4002e-05,0
1.5555,2.3667e-05,0
1.556,2.1988e-05,0
1.5565,1.9806e-05,0
1.557,1.8631e-05,0
1.5575,1.9303e-05,0
1.558,1.9806e-05,0
1.5585,1.8296e-05,0
1.559,1.6617e-05,0
1.5595,1.5274e-05,0
1.56,1.4267e-05,0
1.5605,1.4603e-05,0
1.561,1.5946e-05,0
1.5615,1.7121e-05,0
1.562,1.796e-05,0
1.5625,1.9806e-05,0
1.563,2.0646e-05,0
1.5635,1.9806e-05,0
1.564,1.6953e-05,0
1.5645,1.6449e-05,0
1.565,1.8296e-05,0
1.5655,1.947e-05,0
1.566,1.9135e-05,0
1.5665,1.8128e-05,0
1.567,1.7288e-05,0
1.5675,1.5946e-05,0
1.568,1.4603e-05,0
1.5685,1.3932e-05,0
1.569,1.3932e-05,0
1.5695,1.5442e-05,0
1.57,1.6953e-05,0
1.5705,1.9303e-05,0
1.571,2.2324e-05,0
1.5715,2.4338e-05,0
1.572,2.4338e-05,0
1.5725,2.3667e-05,0
1.573,2.2995e-05,0
1.5735,2.2492e-05,0
1.574,2.1988e-05,0
1.5745,2.1317e-05,0
1.575,2.1317e-05,0
1.5755,2.2995e-05,0
1.576,2.5345e-05,0
1.5765,2.652e-05,0
1.577,2.6688e-05,0
1.5775,2.6017e-05,0
1.578,2.3667e-05,0
1.5785,2.1988e-05,0
1.579,2.266e-05,0
1.5795,2.266e-05,0
1.58,2.2492e-05,0
1.5805,1.9638e-05,0
1.581,1.5946e-05,0
1.5815,1.2924e-05,0
1.582,1.2589e-05,0
1.5825,1.6449e-05,0
1.583,2.1317e-05,0
1.5835,2.4002e-05,0
1.584,2.4506e-05,0
1.5845,2.4002e-05,0
1.585,2.1317e-05,0
1.5855,1.7288e-05,0
1.586,1.3596e-05,0
1.5865,1.3092e-05,0
1.587,1.4939e-05,0
1.5875,1.5274e-05,0
1.588,1.4267e-05,0
1.5885,1.4267e-05,0
1.589,1.6617e-05,0
1.5895,1.8463e-05,0
1.59,1.8967e-05,0
1.5905,1.7288e-05,0
1.591,1.6617e-05,0
1.5915,1.7456e-05,0
1.592,1.8631e-05,0
1.5925,2.2995e-05,0
1.593,2.6017e-05,0
1.5935,2.6017e-05,0
1.594,2.5345e-05,0
1.5945,2.4506e-05,0
1.595,2.266e-05,0
1.5955,2.1149e-05,0
1.596,2.2156e-05,0
1.5965,2.5009e-05,0
1.597,2.6352e-05,0
1.5975,2.3667e-05,0
1.598,2.1653e-05,0
1.5985,2.266e-05,0
1.599,2.2492e-05,0
1.5995,1.9974e-05,0
1.6,1.8296e-05,0
1.6005,1.796e-05,0
1.601,1.6953e-05,0
1.6015,1.5274e-05,0
1.602,1.4603e-05,0
1.6025,1.5442e-05,0
1.603,1.6281e-05,0
1.6035,1.5946e-05,0
1.604,1.5274e-05,0
1.6045,1.6449e-05,0
1.605,1.7121e-05,0
1.6055,1.7288e-05,0
1.606,1.8463e-05,0
1.6065,1.9303e-05,0
1.607,1.9806e-05,0
1.6075,2.031e-05,0
1.608,1.9303e-05,0
1.6085,1.796e-05,0
1.609,1.7624e-05,0
1.6095,1.8631e-05,0
1.61,1.9303e-05,0
1.6105,1.9638e-05,0
1.611,1.9638e-05,0
1.6115,1.9638e-05,0
1.612,2.0981e-05,0
1.6125,2.0813e-05,0
1.613,2.0646e-05,0
1.6135,2.0981e-05,0
1.614,2.1317e-05,0
1.6145,2.1317e-05,0
1.615,2.2995e-05,0
1.6155,2.3331e-05,0
1.616,2.1317e-05,0
1.6165,2.031e-05,0
1.617,2.1317e-05,0
1.6175,2.3667e-05,0
1.618,2.3163e-05,0
1.6185,2.1988e-05,0
1.619,2.266e-05,0
1.6195,2.4506e-05,0
1.62,2.5345e-05,0
1.6205,2.6017e-05,0
1.621,2.6688e-05,0
1.6215,2.6688e-05,0
1.622,2.5345e-05,0
1.6225,2.2492e-05,0
1.623,2.031e-05,0
1.6235,2.0478e-05,0
1.624,2.182e-05,0
1.6245,2.1653e-05,0
1.625,2.0646e-05,0
1.6255,1.9303e-05,0
1.626,2.031e-05,0
1.6265,2.0646e-05,0
1.627,1.9638e-05,0
1.6275,1.8631e-05,0
1.628,1.796e-05,0
1.6285,1.796e-05,0
1.629,1.7624e-05,0
1.6295,1.7288e-05,0
1.63,1.796e-05,0
1.6305,1.8631e-05,0
1.631,1.9135e-05,0
1.6315,1.947e-05,0
1.632,2.1317e-05,0
1.6325,2.1317e-05,0
1.633,1.9974e-05,0
1.6335,1.8296e-05,0
1.634,1.9135e-05,0
1.6345,2.1317e-05,0
1.635,2.266e-05,0
1.6355,2.1317e-05,0
1.636,1.947e-05,0
1.6365,1.9638e-05,0
1.637,1.9135e-05,0
1.6375,1.796e-05,0
1.638,1.5946e-05,0
1.6385,1.4099e-05,0
1.639,1.4939e-05,0
1.6395,1.7288e-05,0
1.64,1.6785e-05,0
1.6405,1.5106e-05,0
1.641,1.4603e-05,0
1.6415,1.6617e-05,0
1.642,1.7624e-05,0
1.6425,1.5946e-05,0
1.643,1.4099e-05,0
1.6435,1.4603e-05,0
1.644,1.5778e-05,0
1.6445,1.5946e-05,0
1.645,1.6617e-05,0
1.6455,1.796e-05,0
1.646,1.8296e-05,0
1.6465,1.8296e-05,0
1.647,1.9638e-05,0
1.6475,2.0646e-05,0
1.648,2.0646e-05,0
1.6485,1.9303e-05,0
1.649,1.5946e-05,0
1.6495,1.4267e-05,0
1.65,1.4939e-05,0
1.6505,1.561e-05,0
1.651,1.796e-05,0
1.6515,2.2324e-05,0
1.652,2.4002e-05,0
1.6525,2.3499e-05,0
1.653,2.1653e-05,0
1.6535,2.031e-05,0
1.654,2.0981e-05,0
1.6545,2.1317e-05,0
1.655,2.2995e-05,0
1.6555,2.4674e-05,0
1.656,2.5681e-05,0
1.6565,2.5009e-05,0
1.657,2.1988e-05,0
1.6575,2.0646e-05,0
1.658,2.182e-05,0
1.6585,2.4338e-05,0
1.659,2.4338e-05,0
1.6595,2.182e-05,0
1.66,1.9974e-05,0
1.6605,1.9303e-05,0
1.661,1.8128e-05,0
1.6615,1.6617e-05,0
1.662,1.5274e-05,0
1.6625,1.4603e-05,0
1.663,1.5106e-05,0
1.6635,1.5946e-05,0
1.664,1.7624e-05,0
1.6645,2.0478e-05,0
1.665,2.2995e-05,0
1.6655,2.266e-05,0
1.666,2.1149e-05,0
1.6665,2.1317e-05,0
1.667,2.1317e-05,0
1.6675,2.1317e-05,0
1.668,2.1988e-05,0
1.6685,2.4002e-05,0
1.669,2.5681e-05,0
1.6695,2.6688e-05,0
1.67,2.6688e-05,0
1.6705,2.6688e-05,0
1.671,2.7359e-05,0
1.6715,2.7359e-05,0
1.672,2.6017e-05,0
1.6725,2.4338e-05,0
1.673,2.1317e-05,0
1.6735,2.031e-05,0
1.674,2.1317e-05,0
1.6745,2.1988e-05,0
1.675,2.0646e-05,0
1.6755,1.9135e-05,0
1.676,1.8463e-05,0
1.6765,1.8967e-05,0
1.677,1.8631e-05,0
1.6775,1.7624e-05,0
1.678,1.6281e-05,0
1.6785,1.4267e-05,0
1.679,1.0575e-05,0
1.6795,1.0575e-05,0
1.68,1.1749e-05,0
1.6805,1.2589e-05,0
1.681,1.3596e-05,0
1.6815,1.4603e-05,0
1.682,1.6617e-05,0
1.6825,1.8631e-05,0
1.683,1.9974e-05,0
1.6835,2.031e-05,0
1.684,2.0478e-05,0
1.6845,2.1317e-05,0
1.685,1.9806e-05,0
1.6855,1.7121e-05,0
1.686,1.6449e-05,0
1.6865,1.7288e-05,0
1.687,1.7288e-05,0
1.6875,1.4939e-05,0
1.688,1.4603e-05,0
1.6885,1.5946e-05,0
1.689,1.7624e-05,0
1.6895,1.9638e-05,0
1.69,2.031e-05,0
1.6905,1.796e-05,0
1.691,1.561e-05,0
1.6915,1.5442e-05,0
1.692,1.5946e-05,0
1.6925,1.7288e-05,0
1.693,1.6953e-05,0
1.6935,1.4603e-05,0
1.694,1.3428e-05,0
1.6945,1.4939e-05,0
1.695,1.7624e-05,0
1.6955,1.9303e-05,0
1.696,1.9806e-05,0
1.6965,2.0981e-05,0
1.697,2.1653e-05,0
1.6975,2.1317e-05,0
1.698,2.266e-05,0
1.6985,2.7192e-05,0
1.699,3.0381e-05,0
1.6995,2.9374e-05,0
1.7,2.6688e-05,0
1.7005,2.5681e-05,0
1.701,2.5345e-05,0
1.7015,2.4002e-05,0
1.702,2.0646e-05,0
1.7025,1.7288e-05,0
1.703,1.6617e-05,0
1.7035,1.7121e-05,0
1.704,1.5946e-05,0
1.7045,1.4603e-05,0
1.705,1.4435e-05,0
1.7055,1.4267e-05,0
1.706,1.4771e-05,0
1.7065,1.5442e-05,0
1.707,1.6953e-05,0
1.7075,1.796e-05,0
1.708,1.9303e-05,0
1.7085,2.2324e-05,0
1.709,2.266e-05,0
1.7095,2.0813e-05,0
1.71,1.9974e-05,0
1.7105,2.0478e-05,0
1.711,2.1317e-05,0
1.7115,2.3163e-05,0
1.712,2.652e-05,0
1.7125,2.8702e-05,0
1.713,2.6688e-05,0
1.7135,2.3667e-05,0
1.714,2.266e-05,0
1.7145,2.2828e-05,0
1.715,2.1317e-05,0
1.7155,2.0142e-05,0
1.716,1.9303e-05,0
1.7165,1.9303e-05,0
1.717,1.9303e-05,0
1.7175,2.0981e-05,0
1.718,2.3667e-05,0
1.7185,2.5345e-05,0
1.719,2.5009e-05,0
1.7195,2.4674e-05,0
1.72,2.3331e-05,0
1.7205,2.1317e-05,0
1.721,1.8128e-05,0
1.7215,1.7288e-05,0
1.722,1.796e-05,0
1.7225,1.9974e-05,0
1.723,2.1653e-05,0
1.7235,2.2324e-05,0
1.724,2.2324e-05,0
1.7245,2.266e-05,0
1.725,2.3163e-05,0
1.7255,2.266e-05,0
1.726,2.1149e-05,0
1.7265,1.9974e-05,0
1.727,1.8631e-05,0
1.7275,1.561e-05,0
1.728,1.326e-05,0
1.7285,1.1246e-05,0
1.729,1.1078e-05,0
1.7295,1.0575e-05,0
1.73,1.0239e-05,0
1.7305,1.0071e-05,0
1.731,1.1078e-05,0
1.7315,1.2924e-05,0
1.732,1.2924e-05,0
1.7325,1.1749e-05,0
1.733,1.1414e-05,0
1.7335,1.2924e-05,0
1.734,1.4603e-05,0
1.7345,1.6953e-05,0
1.735,1.9974e-05,0
1.7355,2.2156e-05,0
1.736,2.2492e-05,0
1.7365,2.182e-05,0
1.737,2.2995e-05,0
1.7375,2.4002e-05,0
1.738,2.2995e-05,0
1.7385,1.9303e-05,0
1.739,1.7121e-05,0
1.7395,1.7121e-05,0
1.74,1.7288e-05,0
1.7405,1.5442e-05,0
1.741,1.561e-05,0
1.7415,1.8631e-05,0
1.742,2.031e-05,0
1.7425,2.1988e-05,0
1.743,2.3667e-05,0
1.7435,2.4338e-05,0
1.744,2.4002e-05,0
1.7445,2.5513e-05,0
1.745,2.5681e-05,0
1.7455,2.3163e-05,0
1.746,2.1317e-05,0
1.7465,2.2324e-05,0
1.747,2.4674e-05,0
1.7475,2.8031e-05,0
1.748,3.0045e-05,0
1.7485,2.9206e-05,0
1.749,2.8031e-05,0
1.7495,2.8031e-05,0
1.75,2.5681e-05,0
1.7505,2.2995e-05,0
1.751,2.266e-05,0
1.7515,2.266e-05,0
1.752,2.0981e-05,0
1.7525,1.9638e-05,0
1.753,1.9974e-05,0
1.7535,1.9974e-05,0
1.754,1.8631e-05,0
1.7545,1.8631e-05,0
1.755,2.1149e-05,0
1.7555,2.1317e-05,0
1.756,2.0646e-05,0
1.7565,1.9974e-05,0
1.757,1.9135e-05,0
1.7575,1.6953e-05,0
1.758,1.4771e-05,0
1.7585,1.3932e-05,0
1.759,1.4267e-05,0
1.7595,1.5274e-05,0
1.76,1.7288e-05,0
1.7605,1.8296e-05,0
1.761,1.796e-05,0
1.7615,1.796e-05,0
1.762,1.6281e-05,0
1.7625,1.5106e-05,0
1.763,1.6449e-05,0
1.7635,1.9638e-05,0
1.764,2.0813e-05,0
1.7645,2.0646e-05,0
1.765,2.1317e-05,0
1.7655,2.3499e-05,0
1.766,2.6017e-05,0
1.7665,2.6688e-05,0
1.767,2.6352e-05,0
1.7675,2.5009e-05,0
1.768,2.3667e-05,0
1.7685,2.1988e-05,0
1.769,2.031e-05,0
1.7695,1.9303e-05,0
1.77,1.9303e-05,0
1.7705,2.0646e-05,0
1.771,1.8799e-05,0
1.7715,1.5274e-05,0
1.772,1.2589e-05,0
1.7725,1.0575e-05,0
1.773,9.9031e-06,0
1.7735,1.1917e-05,0
1.774,1.4099e-05,0
1.7745,1.6449e-05,0
1.775,1.9974e-05,0
1.7755,2.1317e-05,0
1.776,2.2324e-05,0
1.7765,2.2324e-05,0
1.777,2.1317e-05,0
1.7775,1.8296e-05,0
1.778,1.5106e-05,0
1.7785,1.5442e-05,0
1.779,1.7288e-05,0
1.7795,1.8967e-05,0
1.78,2.1988e-05,0
1.7805,2.3835e-05,0
1.781,2.3163e-05,0
1.7815,2.2995e-05,0
1.782,2.4002e-05,0
1.7825,2.4002e-05,0
1.783,2.5177e-05,0
1.7835,2.5345e-05,0
1.784,2.5345e-05,0
1.7845,2.5681e-05,0
1.785,2.5849e-05,0
1.7855,2.5177e-05,0
1.786,2.4842e-05,0
1.7865,2.3331e-05,0
1.787,2.1149e-05,0
1.7875,1.9303e-05,0
1.788,1.9303e-05,0
1.7885,1.9806e-05,0
1.789,2.0646e-05,0
1.7895,1.8296e-05,0
1.79,1.326e-05,0
1.7905,7.8889e-06,0
1.791,5.7069e-06,0
1.7915,5.2033e-06,0
1.792,5.8747e-06,0
1.7925,9.9031e-06,0
1.793,1.6281e-05,0
1.7935,2.1653e-05,0
1.794,2.6352e-05,0
1.7945,2.9709e-05,0
1.795,3.1724e-05,0
1.7955,3.3066e-05,0
1.796,3.4577e-05,0
1.7965,3.4745e-05,0
1.797,3.4745e-05,0
1.7975,3.4745e-05,0
1.798,3.0381e-05,0
1.7985,2.2156e-05,0
1.799,1.4603e-05,0
1.7995,8.5603e-06,0
1.8,6.2104e-06,0
1.8005,7.8889e-06,0
1.801,1.0071e-05,0
1.8015,9.5674e-06,0
1.802,5.2033e-06,0
1.8025,8.392e-07,0
1.803,1.5106e-06,0
1.8035,7.2175e-06,0
1.804,1.4603e-05,0
1.8045,2.1988e-05,0
1.805,2.4674e-05,0
1.8055,2.2995e-05,0
1.806,2.2492e-05,0
1.8065,2.3667e-05,0
1.807,2.4842e-05,0
1.8075,2.7024e-05,0
1.808,2.7695e-05,0
1.8085,2.6017e-05,0
1.809,2.2828e-05,0
1.8095,2.2324e-05,0
1.81,2.1653e-05,0
1.8105,1.8799e-05,0
1.811,1.6617e-05,0
1.8115,1.796e-05,0
1.812,2.1317e-05,0
1.8125,2.2324e-05,0
1.813,1.796e-05,0
1.8135,1.5274e-05,0
1.814,1.6449e-05,0
1.8145,2.0646e-05,0
1.815,2.5681e-05,0
1.8155,2.6688e-05,0
1.816,2.0646e-05,0
1.8165,1.0239e-05,0
1.817,1.5106e-06,0
1.8175,2.5177e-06,0
1.818,1.3932e-05,0
1.8185,2.6352e-05,0
1.819,3.3738e-05,0
1.8195,3.5416e-05,0
1.82,3.2731e-05,0
1.8205,2.7359e-05,0
1.821,2.266e-05,0
1.8215,2.1317e-05,0
1.822,2.031e-05,0
1.8225,2.0646e-05,0
1.823,2.0142e-05,0
1.8235,1.4099e-05,0
1.824,5.7069e-06,0
1.8245,1.1749e-06,0
1.825,-2.5177e-06,0
1.8255,-5.2033e-06,0
1.826,-1.5106e-06,0
1.8265,6.8818e-06,0
1.827,1.5274e-05,0
1.8275,2.4338e-05,0
1.828,3.2563e-05,0
1.8285,3.6591e-05,0
1.829,4.1123e-05,0
1.8295,4.683e-05,0
1.83,4.8676e-05,0
1.8305,4.6159e-05,0
1.831,4.213e-05,0
1.8315,3.6423e-05,0
1.832,2.9542e-05,0
1.8325,2.3331e-05,0
1.833,1.7288e-05,0
1.8335,1.3764e-05,0
1.834,1.1414e-05,0
1.8345,7.5532e-06,0
1.835,1.3428e-06,0
1.8355,-5.539e-06,0
1.836,-7.8889e-06,0
1.8365,-4.1962e-06,0
1.837,8.392e-07,0
1.8375,3.8605e-06,0
1.838,3.5248e-06,0
1.8385,1.0071e-06,0
1.839,-1.678e-07,0
1.8395,2.3499e-06,0
1.84,5.8747e-06,0
1.8405,9.5674e-06,0
1.841,1.3932e-05,0
1.8415,1.796e-05,0
1.842,2.1149e-05,0
1.8425,2.3835e-05,0
1.843,2.6688e-05,0
1.8435,2.7695e-05,0
1.844,2.5681e-05,0
1.8445,2.4002e-05,0
1.845,2.1988e-05,0
1.8455,1.9974e-05,0
1.846,1.9303e-05,0
1.8465,1.7792e-05,0
1.847,1.4435e-05,0
1.8475,1.0575e-05,0
1.848,9.9031e-06,0
1.8485,1.1917e-05,0
1.849,1.6281e-05,0
1.8495,2.0646e-05,0
1.85,2.4674e-05,0
1.8505,2.8534e-05,0
1.851,3.0045e-05,0
1.8515,2.6688e-05,0
1.852,2.3163e-05,0
1.8525,2.5177e-05,0
1.853,2.9709e-05,0
1.8535,3.1388e-05,0
1.854,3.1724e-05,0
1.8545,3.3906e-05,0
1.855,3.7262e-05,0
1.8555,3.827e-05,0
1.856,3.6088e-05,0
1.8565,3.4745e-05,0
1.857,3.4577e-05,0
1.8575,3.2059e-05,0
1.858,2.8367e-05,0
1.8585,2.4002e-05,0
1.859,2.2492e-05,0
1.8595,2.266e-05,0
1.86,2.0981e-05,0
1.8605,1.6953e-05,0
1.861,1.326e-05,0
1.8615,1.2757e-05,0
1.862,1.4603e-05,0
1.8625,1.9303e-05,0
1.863,2.5177e-05,0
1.8635,2.9374e-05,0
1.864,3.2731e-05,0
1.8645,3.6088e-05,0
1.865,3.4577e-05,0
1.8655,2.887e-05,0
1.866,2.4002e-05,0
1.8665,2.2324e-05,0
1.867,2.1317e-05,0
1.8675,2.3499e-05,0
1.868,2.7359e-05,0
1.8685,2.6017e-05,0
1.869,2.1988e-05,0
1.8695,2.0813e-05,0
1.87,2.3163e-05,0
1.8705,2.7359e-05,0
1.871,2.9038e-05,0
1.8715,2.266e-05,0
1.872,1.2253e-05,0
1.8725,7.2175e-06,0
1.873,9.5674e-06,0
1.8735,1.1582e-05,0
1.874,7.2175e-06,0
1.8745,1.678e-07,0
1.875,-4.8676e-06,0
1.8755,-7.2175e-06,0
1.876,-9.0639e-06,0
1.8765,-9.9031e-06,0
1.877,-1.0071e-06,0
1.8775,1.8631e-05,0
1.878,3.4409e-05,0
1.8785,3.9109e-05,0
1.879,3.3066e-05,0
1.8795,2.5345e-05,0
1.88,2.1317e-05,0
1.8805,1.8631e-05,0
1.881,1.5106e-05,0
1.8815,1.4603e-05,0
1.882,1.8631e-05,0
1.8825,2.2995e-05,0
1.883,2.6017e-05,0
1.8835,2.9709e-05,0
1.884,3.3738e-05,0
1.8845,3.7262e-05,0
1.885,4.0116e-05,0
1.8855,3.8773e-05,0
1.886,3.4745e-05,0
1.8865,3.4577e-05,0
1.887,3.4577e-05,0
1.8875,3.0884e-05,0
1.888,2.3667e-05,0
1.8885,1.7288e-05,0
1.889,1.5274e-05,0
1.8895,1.796e-05,0
1.89,2.031e-05,0
1.8905,1.7456e-05,0
1.891,1.0239e-05,0
1.8915,4.3641e-06,0
1.892,-1.678e-07,0
1.8925,-4.8676e-06,0
1.893,-7.3854e-06,0
1.8935,-5.539e-06,0
1.894,-3.5248e-06,0
1.8945,-5.0355e-06,0
1.895,-6.3783e-06,0
1.8955,1.678e-07,0
1.896,1.6953e-05,0
1.8965,3.4409e-05,0
1.897,4.1291e-05,0
1.8975,3.9445e-05,0
1.898,3.6423e-05,0
1.8985,3.4745e-05,0
1.899,3.2059e-05,0
1.8995,3.2731e-05,0
1.9,3.743e-05,0
1.9005,3.9948e-05,0
1.901,3.6088e-05,0
1.9015,2.9709e-05,0
1.902,2.7863e-05,0
1.9025,3.0716e-05,0
1.903,3.2059e-05,0
1.9035,2.9374e-05,0
1.904,2.7863e-05,0
1.9045,2.8031e-05,0
1.905,2.9374e-05,0
1.9055,2.9709e-05,0
1.906,2.8702e-05,0
1.9065,2.0981e-05,0
1.907,9.2317e-06,0
1.9075,1.8463e-06,0
1.908,3.357e-07,0
1.9085,4.1962e-06,0
1.909,1.0575e-05,0
1.9095,1.091e-05,0
1.91,5.2033e-06,0
1.9105,1.678e-07,0
1.911,-3.357e-06,0
1.9115,-3.8605e-06,0
1.912,-5.035e-07,0
1.9125,2.3499e-06,0
1.913,2.0142e-06,0
1.9135,1.5106e-06,0
1.914,3.0213e-06,0
1.9145,5.0355e-06,0
1.915,7.8889e-06,0
1.9155,1.1246e-05,0
1.916,1.5106e-05,0
1.9165,1.947e-05,0
1.917,2.4506e-05,0
1.9175,2.8702e-05,0
1.918,2.8702e-05,0
1.9185,2.9374e-05,0
1.919,3.122e-05,0
1.9195,3.2563e-05,0
1.92,3.2731e-05,0
1.9205,3.122e-05,0
1.921,2.9038e-05,0
1.9215,2.7024e-05,0
1.922,2.3667e-05,0
1.9225,1.9638e-05,0
1.923,1.8967e-05,0
1.9235,1.9974e-05,0
1.924,1.7624e-05,0
1.9245,1.3932e-05,0
1.925,1.1749e-05,0
1.9255,1.3596e-05,0
1.926,2.0646e-05,0
1.9265,3.1388e-05,0
1.927,4.1123e-05,0
1.9275,4.448e-05,0
1.928,4.1795e-05,0
1.9285,3.6927e-05,0
1.929,3.3066e-05,0
1.9295,2.887e-05,0
1.93,2.5345e-05,0
1.9305,2.6688e-05,0
1.931,3.1052e-05,0
1.9315,3.1891e-05,0
1.932,2.5849e-05,0
1.9325,2.1653e-05,0
1.933,2.3331e-05,0
1.9335,2.3667e-05,0
1.934,1.9806e-05,0
1.9345,1.5274e-05,0
1.935,1.0575e-05,0
1.9355,4.8676e-06,0
1.936,-3.357e-07,0
1.9365,-3.1891e-06,0
1.937,-5.7069e-06,0
1.9375,-9.0639e-06,0
1.938,-9.5674e-06,0
1.9385,-7.5532e-06,0
1.939,-1.8463e-06,0
1.9395,8.5603e-06,0
1.94,1.8296e-05,0
1.9405,2.4338e-05,0
1.941,2.7024e-05,0
1.9415,2.6352e-05,0
1.942,2.4338e-05,0
1.9425,2.2324e-05,0
1.943,1.9638e-05,0
1.9435,1.796e-05,0
1.944,1.7792e-05,0
1.9445,1.9303e-05,0
1.945,1.9806e-05,0
1.9455,1.9974e-05,0
1.946,1.9806e-05,0
1.9465,1.8631e-05,0
1.947,1.7624e-05,0
1.9475,1.6281e-05,0
1.948,1.5442e-05,0
1.9485,1.561e-05,0
1.949,1.5442e-05,0
1.9495,1.5946e-05,0
1.95,1.6449e-05,0
1.9505,1.6785e-05,0
1.951,1.4603e-05,0
1.9515,1.2421e-05,0
1.952,1.3932e-05,0
1.9525,1.9974e-05,0
1.953,2.5849e-05,0
1.9535,2.8702e-05,0
1.954,3.0716e-05,0
1.9545,3.4409e-05,0
1.955,3.743e-05,0
1.9555,3.8605e-05,0
1.956,3.8605e-05,0
1.9565,3.9277e-05,0
1.957,3.9277e-05,0
1.9575,3.5248e-05,0
1.958,3.0045e-05,0
1.9585,2.6688e-05,0
1.959,2.3331e-05,0
1.9595,1.5274e-05,0
1.96,3.8605e-06,0
1.9605,-4.1962e-06,0
1.961,-3.1891e-06,0
1.9615,3.6927e-06,0
1.962,9.5674e-06,0
1.9625,1.091e-05,0
1.963,9.9031e-06,0
1.9635,9.9031e-06,0
1.964,1.2924e-05,0
1.9645,1.5946e-05,0
1.965,1.796e-05,0
1.9655,2.0646e-05,0
1.966,2.1988e-05,0
1.9665,2.031e-05,0
1.967,1.5946e-05,0
1.9675,1.3932e-05,0
1.968,1.6953e-05,0
1.9685,2.3835e-05,0
1.969,2.9038e-05,0
1.9695,3.122e-05,0
1.97,3.1388e-05,0
1.9705,2.8534e-05,0
1.971,2.5177e-05,0
1.9715,2.8031e-05,0
1.972,3.4241e-05,0
1.9725,4.0116e-05,0
1.973,4.0955e-05,0
1.9735,3.6927e-05,0
1.974,3.3402e-05,0
1.9745,3.508e-05,0
1.975,3.8102e-05,0
1.9755,3.743e-05,0
1.976,3.6423e-05,0
1.9765,3.6591e-05,0
1.977,3.5584e-05,0
1.9775,3.1891e-05,0
1.978,3.1052e-05,0
1.9785,3.592e-05,0
1.979,3.8102e-05,0
1.9795,3.357e-05,0
1.98,2.6688e-05,0
1.9805,1.8967e-05,0
1.981,8.896e-06,0
1.9815,5.035e-07,0
1.982,-4.8676e-06,0
1.9825,-1.091e-05,0
1.983,-1.8967e-05,0
1.9835,-2.3331e-05,0
1.984,-2.1988e-05,0
1.9845,-2.2828e-05,0
1.985,-2.5009e-05,0
1.9855,-2.0646e-05,0
1.986,-1.1246e-05,0
1.9865,-5.8747e-06,0
1.987,-3.0213e-06,0
1.9875,-1.5106e-06,0
1.988,8.392e-07,0
1.9885,8.5603e-06,0
1.989,1.7624e-05,0
1.9895,2.4002e-05,0
1.99,3.4409e-05,0
1.9905,4.5823e-05,0
1.991,5.4887e-05,0
1.9915,6.2608e-05,0
1.992,6.5293e-05,0
1.9925,5.9419e-05,0
1.993,4.8173e-05,0
1.9935,3.5752e-05,0
1.994,2.8367e-05,0
1.9945,2.8367e-05,0
1.995,3.0045e-05,0
1.9955,3.0045e-05,0
1.996,3.0045e-05,0
1.9965,2.9038e-05,0
1.997,2.2324e-05,0
1.9975,1.326e-05,0
1.998,8.3925e-06,0
1.9985,5.8747e-06,0
1.999,5.8747e-06,0
1.9995,9.2317e-06,0
2,1.7624e-05,0
2.0005,2.4674e-05,0
2.001,2.5681e-05,0
2.0015,2.6184e-05,0
2.002,2.652e-05,0
2.0025,2.3835e-05,0
2.003,1.9974e-05,0
2.0035,1.7624e-05,0
2.004,1.3932e-05,0
2.0045,8.896e-06,0
2.005,4.8676e-06,0
2.0055,7.5532e-06,0
2.006,1.7121e-05,0
2.0065,2.8031e-05,0
2.007,3.5752e-05,0
2.0075,3.4073e-05,0
2.008,2.3667e-05,0
2.0085,1.6281e-05,0
2.009,1.4939e-05,0
2.0095,1.5442e-05,0
2.01,1.4939e-05,0
2.0105,1.5946e-05,0
2.011,1.7288e-05,0
2.0115,1.6281e-05,0
2.012,1.1917e-05,0
2.0125,7.2175e-06,0
2.013,4.0284e-06,0
2.0135,3.0213e-06,0
2.014,3.5248e-06,0
2.0145,3.5248e-06,0
2.015,1.5106e-06,0
2.0155,-5.2033e-06,0
2.016,-1.3932e-05,0
2.0165,-1.947e-05,0
2.017,-2.1149e-05,0
2.0175,-2.1653e-05,0
2.018,-1.9303e-05,0
2.0185,-6.8818e-06,0
2.019,1.2253e-05,0
2.0195,2.7024e-05,0
2.02,3.2731e-05,0
2.0205,3.3234e-05,0
2.021,3.2059e-05,0
2.0215,3.2395e-05,0
2.022,3.743e-05,0
2.0225,4.6494e-05,0
2.023,5.623e-05,0
2.0235,6.3783e-05,0
2.024,6.8482e-05,0
2.0245,6.5965e-05,0
2.025,5.2537e-05,0
2.0255,3.8773e-05,0
2.026,3.1556e-05,0
2.0265,2.3667e-05,0
2.027,1.4771e-05,0
2.0275,1.3596e-05,0
2.028,2.0981e-05,0
2.0285,2.8702e-05,0
2.029,3.3906e-05,0
2.0295,3.4409e-05,0
2.03,2.887e-05,0
2.0305,2.2324e-05,0
2.031,1.796e-05,0
2.0315,1.5946e-05,0
2.032,1.8631e-05,0
2.0325,2.4506e-05,0
2.033,3.0381e-05,0
2.0335,2.9709e-05,0
2.034,2.182e-05,0
2.0345,1.6617e-05,0
2.035,1.8296e-05,0
2.0355,2.1988e-05,0
2.036,2.2995e-05,0
2.0365,2.031e-05,0
2.037,1.5946e-05,0
2.0375,1.2589e-05,0
2.038,1.0575e-05,0
2.0385,9.3996e-06,0
2.039,8.896e-06,0
2.0395,1.1917e-05,0
2.04,1.8967e-05,0
2.0405,2.652e-05,0
2.041,2.7192e-05,0
2.0415,1.9638e-05,0
2.042,8.2246e-06,0
2.0425,1.8463e-06,0
2.043,3.8605e-06,0
2.0435,1.1917e-05,0
2.044,1.947e-05,0
2.0445,2.5681e-05,0
2.045,3.1556e-05,0
2.0455,3.508e-05,0
2.046,3.2059e-05,0
2.0465,2.7359e-05,0
2.047,2.7695e-05,0
2.0475,3.122e-05,0
2.048,3.5752e-05,0
2.0485,3.9445e-05,0
2.049,4.0116e-05,0
2.0495,4.0116e-05,0
2.05,3.6759e-05,0
2.0505,2.7695e-05,0
2.051,2.0813e-05,0
2.0515,1.8967e-05,0
2.052,1.7624e-05,0
2.0525,1.6281e-05,0
2.053,1.3764e-05,0
2.0535,9.9031e-06,0
2.054,5.539e-06,0
2.0545,3.5248e-06,0
2.055,1.1749e-06,0
2.0555,-2.5177e-06,0
2.056,-3.6927e-06,0
2.0565,-1.5106e-06,0
2.057,2.5177e-06,0
2.0575,9.0639e-06,0
2.058,1.5946e-05,0
2.0585,2.1317e-05,0
2.059,2.6688e-05,0
2.0595,2.9709e-05,0
2.06,2.7695e-05,0
2.0605,2.5009e-05,0
2.061,2.1988e-05,0
2.0615,2.1149e-05,0
2.062,2.5513e-05,0
2.0625,3.1891e-05,0
2.063,3.4073e-05,0
2.0635,2.5345e-05,0
2.064,1.326e-05,0
2.0645,4.5319e-06,0
2.065,3.357e-07,0
2.0655,3.357e-07,0
2.066,7.7211e-06,0
2.0665,1.5946e-05,0
2.067,1.8631e-05,0
2.0675,1.6953e-05,0
2.068,1.4771e-05,0
2.0685,1.1246e-05,0
2.069,8.2246e-06,0
2.0695,8.5603e-06,0
2.07,9.0639e-06,0
2.0705,8.7282e-06,0
2.071,1.1582e-05,0
2.0715,1.9974e-05,0
2.072,3.4745e-05,0
2.0725,5.1698e-05,0
2.073,5.8915e-05,0
2.0735,4.8844e-05,0
2.074,2.7024e-05,0
2.0745,4.0284e-06,0
2.075,-1.0407e-05,0
2.0755,-1.4939e-05,0
2.076,-8.2246e-06,0
2.0765,6.3783e-06,0
2.077,2.1317e-05,0
2.0775,2.9709e-05,0
2.078,3.3066e-05,0
2.0785,3.5752e-05,0
2.079,3.508e-05,0
2.0795,3.1724e-05,0
2.08,2.7359e-05,0
2.0805,2.266e-05,0
2.081,1.8296e-05,0
2.0815,9.9031e-06,0
2.082,-1.6785e-06,0
2.0825,-1.1078e-05,0
2.083,-1.561e-05,0
2.0835,-1.1246e-05,0
2.084,-3.357e-07,0
2.0845,1.0239e-05,0
2.085,1.5442e-05,0
2.0855,1.8967e-05,0
2.086,2.652e-05,0
2.0865,3.6088e-05,0
2.087,4.1459e-05,0
2.0875,4.0452e-05,0
2.088,3.5752e-05,0
2.0885,3.1891e-05,0
2.089,2.9206e-05,0
2.0895,3.0381e-05,0
2.09,3.7095e-05,0
2.0905,4.6998e-05,0
2.091,5.4215e-05,0
2.0915,5.2872e-05,0
2.092,4.5319e-05,0
2.0925,3.743e-05,0
2.093,3.1724e-05,0
2.0935,2.7024e-05,0
2.094,2.1988e-05,0
2.0945,1.5946e-05,0
2.095,9.7353e-06,0
2.0955,5.2033e-06,0
2.096,6.2104e-06,0
2.0965,1.326e-05,0
2.097,1.9303e-05,0
2.0975,2.0646e-05,0
2.098,2.2995e-05,0
2.0985,2.5681e-05,0
2.099,2.1317e-05,0
2.0995,1.3764e-05,0
2.1,1.1246e-05,0
2.1005,1.1414e-05,0
2.101,7.2175e-06,0
2.1015,-1.1749e-06,0
2.102,-7.0497e-06,0
2.1025,-9.0639e-06,0
2.103,-4.3641e-06,0
2.1035,4.8676e-06,0
2.104,1.2757e-05,0
2.1045,1.6449e-05,0
2.105,1.8631e-05,0
2.1055,2.0813e-05,0
2.106,1.9638e-05,0
2.1065,1.4939e-05,0
2.107,1.0071e-05,0
2.1075,8.896e-06,0
2.108,1.1414e-05,0
2.1085,1.7456e-05,0
2.109,2.1317e-05,0
2.1095,2.0646e-05,0
2.11,1.5274e-05,0
2.1105,1.1749e-05,0
2.111,1.1749e-05,0
2.1115,9.9031e-06,0
2.112,9.2317e-06,0
2.1125,1.7624e-05,0
2.113,2.7192e-05,0
2.1135,3.1724e-05,0
2.114,3.1724e-05,0
2.1145,3.0716e-05,0
2.115,2.9709e-05,0
2.1155,2.9374e-05,0
2.116,2.8031e-05,0
2.1165,2.4338e-05,0
2.117,2.0813e-05,0
2.1175,1.9806e-05,0
2.118,2.4338e-05,0
2.1185,3.122e-05,0
2.119,3.2059e-05,0
2.1195,2.8534e-05,0
2.12,2.7359e-05,0
2.1205,2.7863e-05,0
2.121,2.6688e-05,0
2.1215,2.2156e-05,0
2.122,1.6114e-05,0
2.1225,1.0575e-05,0
2.123,7.2175e-06,0
2.1235,1.0071e-05,0
2.124,1.947e-05,0
2.1245,2.5849e-05,0
2.125,2.0813e-05,0
2.1255,1.3932e-05,0
2.126,1.5946e-05,0
2.1265,2.5849e-05,0
2.127,3.8102e-05,0
2.1275,4.6662e-05,0
2.128,4.9515e-05,0
2.1285,4.6159e-05,0
2.129,3.8773e-05,0
2.1295,3.1052e-05,0
2.13,2.652e-05,0
2.1305,2.6017e-05,0
2.131,2.7192e-05,0
2.1315,2.9374e-05,0
2.132,3.0716e-05,0
2.1325,2.7359e-05,0
2.133,1.8967e-05,0
2.1335,1.3092e-05,0
2.134,1.1917e-05,0
2.1345,1.5442e-05,0
2.135,2.0981e-05,0
2.1355,2.4002e-05,0
2.136,1.9135e-05,0
2.1365,1.2589e-05,0
2.137,1.2253e-05,0
2.1375,1.5442e-05,0
2.138,1.5946e-05,0
2.1385,1.3932e-05,0
2.139,1.4939e-05,0
2.1395,1.7288e-05,0
2.14,1.5946e-05,0
2.1405,1.4939e-05,0
2.141,2.4338e-05,0
2.1415,3.9109e-05,0
2.142,4.6159e-05,0
2.1425,3.9612e-05,0
2.143,2.4506e-05,0
2.1435,9.9031e-06,0
2.144,2.0142e-06,0
2.1445,-1.1749e-06,0
2.145,-6.2104e-06,0
2.1455,-1.2589e-05,0
2.146,-2.2324e-05,0
2.1465,-3.2395e-05,0
2.147,-3.6423e-05,0
2.1475,-3.4073e-05,0
2.148,-3.1052e-05,0
2.1485,-2.4338e-05,0
2.149,-1.091e-05,0
2.1495,5.2033e-06,0
2.15,1.8463e-05,0
2.1505,2.7359e-05,0
2.151,2.8031e-05,0
2.1515,2.2324e-05,0
2.152,2.0981e-05,0
2.1525,3.0716e-05,0
2.153,4.8173e-05,0
2.1535,6.1601e-05,0
2.154,6.0258e-05,0
2.1545,4.8844e-05,0
2.155,3.592e-05,0
2.1555,2.6688e-05,0
2.156,1.8631e-05,0
2.1565,1.2589e-05,0
2.157,1.326e-05,0
2.1575,1.8296e-05,0
2.158,2.0478e-05,0
2.1585,1.5778e-05,0
2.159,7.8889e-06,0
2.1595,3.8605e-06,0
2.16,6.3783e-06,0
2.1605,1.2589e-05,0
2.161,2.182e-05,0
2.1615,3.827e-05,0
2.162,5.4887e-05,0
2.1625,6.1097e-05,0
2.163,6.1265e-05,0
2.1635,6.4622e-05,0
2.164,7.3518e-05,0
2.1645,8.0735e-05,0
2.165,8.1071e-05,0
2.1655,6.9322e-05,0
2.166,4.5151e-05,0
2.1665,2.2324e-05,0
2.167,1.3932e-05,0
2.1675,2.0813e-05,0
2.168,3.0716e-05,0
2.1685,3.8605e-05,0
2.169,4.4648e-05,0
2.1695,5.1194e-05,0
2.17,6.1097e-05,0
2.1705,6.949e-05,0
2.171,6.865e-05,0
2.1715,6.0258e-05,0
2.172,5.1194e-05,0
2.1725,4.0116e-05,0
2.173,2.2324e-05,0
2.1735,2.5177e-06,0
2.174,-1.4939e-05,0
2.1745,-2.4002e-05,0
2.175,-1.9303e-05,0
2.1755,-9.2317e-06,0
2.176,-1.2924e-05,0
2.1765,-4.3305e-05,0
2.177,-8.0903e-05,0
2.1775,-9.6513e-05,0
2.178,-8.1239e-05,0
2.1785,-4.7837e-05,0
2.179,-1.5946e-05,0
2.1795,4.3641e-06,0
2.18,1.3932e-05,0
2.1805,1.7792e-05,0
2.181,2.031e-05,0
2.1815,2.0142e-05,0
2.182,2.1317e-05,0
2.1825,2.0981e-05,0
2.183,1.3764e-05,0
2.1835,3.0213e-06,0
2.184,-3.1891e-06,0
2.1845,-1.1749e-06,0
2.185,7.3854e-06,0
2.1855,1.8631e-05,0
2.186,2.4002e-05,0
2.1865,2.1317e-05,0
2.187,1.1917e-05,0
2.1875,1.1749e-06,0
2.188,4.8676e-06,0
2.1885,2.266e-05,0
2.189,4.4144e-05,0
2.1895,5.3544e-05,0
2.19,4.5487e-05,0
2.1905,3.3906e-05,0
2.191,2.9374e-05,0
2.1915,2.7192e-05,0
2.192,1.6953e-05,0
2.1925,8.392e-07,0
2.193,-2.8534e-06,0
2.1935,1.1414e-05,0
2.194,2.5177e-05,0
2.1945,2.6688e-05,0
2.195,2.1988e-05,0
2.1955,1.8296e-05,0
2.196,1.6953e-05,0
2.1965,1.6114e-05,0
2.197,1.8296e-05,0
2.1975,2.1988e-05,0
2.198,2.6017e-05,0
2.1985,2.8367e-05,0
2.199,2.6856e-05,0
2.1995,2.5177e-05,0
2.2,2.5345e-05,0
2.2005,3.0716e-05,0
2.201,3.8773e-05,0
2.2015,4.448e-05,0
2.202,4.5319e-05,0
2.2025,4.1459e-05,0
2.203,3.2563e-05,0
2.2035,1.9303e-05,0
2.204,7.3854e-06,0
2.2045,2.182e-06,0
2.205,2.8534e-06,0
2.2055,4.8676e-06,0
2.206,7.2175e-06,0
2.2065,9.5674e-06,0
2.207,9.2317e-06,0
2.2075,7.8889e-06,0
2.208,1.0407e-05,0
2.2085,1.5106e-05,0
2.209,1.9974e-05,0
2.2095,2.4506e-05,0
2.21,3.2563e-05,0
2.2105,4.1795e-05,0
2.211,4.683e-05,0
2.2115,4.5991e-05,0
2.212,4.3137e-05,0
2.2125,4.1459e-05,0
2.213,3.3906e-05,0
2.2135,2.1317e-05,0
2.214,1.1078e-05,0
2.2145,6.5461e-06,0
2.215,4.5319e-06,0
2.2155,4.1962e-06,0
2.216,1.091e-05,0
2.2165,2.0813e-05,0
2.217,2.5345e-05,0
2.2175,2.1317e-05,0
2.218,1.4435e-05,0
2.2185,1.0407e-05,0
2.219,1.0407e-05,0
2.2195,1.2924e-05,0
2.22,1.6953e-05,0
2.2205,2.3331e-05,0
2.221,3.0716e-05,0
2.2215,3.8773e-05,0
2.222,4.2802e-05,0
2.2225,3.9445e-05,0
2.223,2.7527e-05,0
2.2235,1.1582e-05,0
2.224,4.5319e-06,0
2.2245,8.7282e-06,0
2.225,1.5946e-05,0
2.2255,2.0813e-05,0
2.226,2.1317e-05,0
2.2265,1.796e-05,0
2.227,1.4267e-05,0
2.2275,1.5442e-05,0
2.228,1.8631e-05,0
2.2285,1.5946e-05,0
2.229,1.091e-05,0
2.2295,1.3092e-05,0
2.23,2.031e-05,0
2.2305,2.3331e-05,0
2.231,2.4674e-05,0
2.2315,2.5849e-05,0
2.232,2.7024e-05,0
2.2325,2.9038e-05,0
2.233,2.9709e-05,0
2.2335,2.9038e-05,0
2.234,2.6017e-05,0
2.2345,2.1317e-05,0
2.235,1.9638e-05,0
2.2355,2.0646e-05,0
2.236,2.2324e-05,0
2.2365,2.6017e-05,0
2.237,2.8534e-05,0
2.2375,2.5345e-05,0
2.238,2.0646e-05,0
2.2385,2.1988e-05,0
2.239,3.0549e-05,0
2.2395,3.7766e-05,0
2.24,4.2802e-05,0
2.2405,4.7501e-05,0
2.241,4.8173e-05,0
2.2415,4.213e-05,0
2.242,3.1052e-05,0
2.2425,1.6953e-05,0
2.243,5.2033e-06,0
2.2435,-2.8534e-06,0
2.244,-4.1962e-06,0
2.2445,4.1962e-06,0
2.245,1.7792e-05,0
2.2455,2.5849e-05,0
2.246,2.6688e-05,0
2.2465,2.7192e-05,0
2.247,2.6352e-05,0
2.2475,1.9303e-05,0
2.248,6.8818e-06,0
2.2485,-5.539e-06,0
2.249,-1.4939e-05,0
2.2495,-1.9135e-05,0
2.25,-1.7288e-05,0
2.2505,-1.0742e-05,0
2.251,5.035e-07,0
2.2515,1.6785e-05,0
2.252,3.6088e-05,0
2.2525,4.5823e-05,0
2.253,4.1123e-05,0
2.2535,3.1724e-05,0
2.254,2.8199e-05,0
2.2545,2.9374e-05,0
2.255,2.8199e-05,0
2.2555,2.4002e-05,0
2.256,2.2156e-05,0
2.2565,2.031e-05,0
2.257,1.6953e-05,0
2.2575,1.1917e-05,0
2.258,-1.1749e-06,0
2.2585,-2.3667e-05,0
2.259,-3.7766e-05,0
2.2595,-2.5009e-05,0
2.26,5.2033e-06,0
2.2605,2.6017e-05,0
2.261,2.887e-05,0
2.2615,2.0981e-05,0
2.262,1.2253e-05,0
2.2625,7.5532e-06,0
2.263,4.5319e-06,0
2.2635,5.539e-06,0
2.264,1.561e-05,0
2.2645,3.2395e-05,0
2.265,4.5487e-05,0
2.2655,4.7837e-05,0
2.266,4.2466e-05,0
2.2665,3.592e-05,0
2.267,3.0381e-05,0
2.2675,2.7695e-05,0
2.268,2.5345e-05,0
2.2685,2.266e-05,0
2.269,2.2324e-05,0
2.2695,1.947e-05,0
2.27,7.2175e-06,0
2.2705,-5.539e-06,0
2.271,-2.3499e-06,0
2.2715,1.7624e-05,0
2.272,4.0452e-05,0
2.2725,5.539e-05,0
2.273,6.2104e-05,0
2.2735,5.8076e-05,0
2.274,4.4816e-05,0
2.2745,3.3402e-05,0
2.275,3.3402e-05,0
2.2755,3.978e-05,0
2.276,3.7262e-05,0
2.2765,2.3667e-05,0
2.277,1.0575e-05,0
2.2775,5.2033e-06,0
2.278,3.8605e-06,0
2.2785,7.5532e-06,0
2.279,1.7288e-05,0
2.2795,3.2395e-05,0
2.28,4.0116e-05,0
2.2805,2.8534e-05,0
2.281,6.714e-07,0
2.2815,-2.7192e-05,0
2.282,-4.448e-05,0
2.2825,-5.0355e-05,0
2.283,-4.2466e-05,0
2.2835,-2.4338e-05,0
2.284,-5.2033e-06,0
2.2845,8.5603e-06,0
2.285,1.9303e-05,0
2.2855,2.6688e-05,0
2.286,2.6352e-05,0
2.2865,1.7624e-05,0
2.287,8.3925e-06,0
2.2875,7.8889e-06,0
2.288,1.7288e-05,0
2.2885,2.4506e-05,0
2.289,2.5345e-05,0
2.2895,1.8967e-05,0
2.29,1.1582e-05,0
2.2905,7.3854e-06,0
2.291,6.2104e-06,0
2.2915,8.5603e-06,0
2.292,1.3932e-05,0
2.2925,1.947e-05,0
2.293,2.2995e-05,0
2.2935,2.9038e-05,0
2.294,4.1123e-05,0
2.2945,5.2201e-05,0
2.295,5.7572e-05,0
2.2955,5.8244e-05,0
2.296,5.6565e-05,0
2.2965,5.069e-05,0
2.297,4.0116e-05,0
2.2975,3.4409e-05,0
2.298,3.3402e-05,0
2.2985,3.2059e-05,0
2.299,2.6688e-05,0
2.2995,2.4002e-05,0
2.3,2.8031e-05,0
2.3005,3.8773e-05,0
2.301,5.539e-05,0
2.3015,7.2343e-05,0
2.302,7.57e-05,0
2.3025,6.2944e-05,0
2.303,4.2802e-05,0
2.3035,2.0646e-05,0
2.304,0,0
2.3045,-1.326e-05,0
2.305,-1.0407e-05,0
2.3055,1.6785e-06,0
2.306,9.5674e-06,0
2.3065,9.0639e-06,0
2.307,1.1749e-06,0
2.3075,-6.8818e-06,0
2.308,-4.3641e-06,0
2.3085,1.2421e-05,0
2.309,3.2731e-05,0
2.3095,4.0787e-05,0
2.31,3.7766e-05,0
2.3105,3.0381e-05,0
2.311,2.3667e-05,0
2.3115,1.947e-05,0
2.312,1.6785e-05,0
2.3125,1.4939e-05,0
2.313,1.5778e-05,0
2.3135,2.182e-05,0
2.314,2.8367e-05,0
2.3145,2.7359e-05,0
2.315,2.1149e-05,0
2.3155,1.6114e-05,0
2.316,1.947e-05,0
2.3165,2.8534e-05,0
2.317,3.6759e-05,0
2.3175,4.1627e-05,0
2.318,4.1123e-05,0
2.3185,3.5752e-05,0
2.319,3.0045e-05,0
2.3195,2.5345e-05,0
2.32,1.8967e-05,0
2.3205,1.326e-05,0
2.321,1.1582e-05,0
2.3215,1.1582e-05,0
2.322,9.3996e-06,0
2.3225,1.8463e-06,0
2.323,-9.5674e-06,0
2.3235,-1.5274e-05,0
2.324,-1.6281e-05,0
2.3245,-1.5274e-05,0
2.325,-1.2924e-05,0
2.3255,-7.7211e-06,0
2.326,-8.392e-07,0
2.3265,3.8605e-06,0
2.327,4.1962e-06,0
2.3275,2.5177e-06,0
2.328,4.8676e-06,0
2.3285,9.5674e-06,0
2.329,1.2589e-05,0
2.3295,1.4603e-05,0
2.33,1.561e-05,0
2.3305,1.8296e-05,0
2.331,2.0478e-05,0
2.3315,1.8463e-05,0
2.332,1.561e-05,0
2.3325,1.2924e-05,0
2.333,1.0575e-05,0
2.3335,1.2253e-05,0
2.334,1.6449e-05,0
2.3345,1.4771e-05,0
2.335,8.5603e-06,0
2.3355,7.7211e-06,0
2.336,1.4603e-05,0
2.3365,2.6352e-05,0
2.337,3.5416e-05,0
2.3375,3.8773e-05,0
2.338,4.2466e-05,0
2.3385,4.9851e-05,0
2.339,5.6062e-05,0
2.3395,5.7404e-05,0
2.34,5.0523e-05,0
2.3405,3.8102e-05,0
2.341,3.1052e-05,0
2.3415,3.2731e-05,0
2.342,3.592e-05,0
2.3425,3.5752e-05,0
2.343,3.2731e-05,0
2.3435,2.6688e-05,0
2.344,2.1149e-05,0
2.3445,2.0646e-05,0
2.345,2.4674e-05,0
2.3455,2.6352e-05,0
2.346,1.8296e-05,0
2.3465,6.0426e-06,0
2.347,-3.357e-07,0
2.3475,1.1749e-06,0
2.348,4.5319e-06,0
2.3485,4.0284e-06,0
2.349,2.8534e-06,0
2.3495,6.2104e-06,0
2.35,1.7456e-05,0
2.3505,3.1556e-05,0
2.351,3.978e-05,0
2.3515,3.8102e-05,0
2.352,2.7024e-05,0
2.3525,1.0575e-05,0
2.353,-3.8605e-06,0
2.3535,-1.0239e-05,0
2.354,-7.0497e-06,0
2.3545,3.357e-07,0
2.355,6.8818e-06,0
2.3555,1.326e-05,0
2.356,1.796e-05,0
2.3565,1.8463e-05,0
2.357,1.5946e-05,0
2.3575,1.5274e-05,0
2.358,1.9303e-05,0
2.3585,2.4338e-05,0
2.359,2.7527e-05,0
2.3595,2.8031e-05,0
2.36,3.1891e-05,0
2.3605,3.8437e-05,0
2.361,4.0787e-05,0
2.3615,3.8605e-05,0
2.362,2.8702e-05,0
2.3625,1.5778e-05,0
2.363,8.2246e-06,0
2.3635,6.5461e-06,0
2.364,5.8747e-06,0
2.3645,3.6927e-06,0
2.365,-1.8463e-06,0
2.3655,-6.8818e-06,0
2.366,-7.7211e-06,0
2.3665,-4.5319e-06,0
2.367,2.182e-06,0
2.3675,1.6953e-05,0
2.368,3.9445e-05,0
2.3685,6.244e-05,0
2.369,7.8218e-05,0
2.3695,8.4428e-05,0
2.37,8.0735e-05,0
2.3705,6.9322e-05,0
2.371,5.6565e-05,0
2.3715,4.8005e-05,0
2.372,4.213e-05,0
2.3725,3.5752e-05,0
2.373,2.4842e-05,0
2.3735,1.5106e-05,0
2.374,7.8889e-06,0
2.3745,-3.6927e-06,0
2.375,-2.1149e-05,0
2.3755,-3.4409e-05,0
2.376,-3.8437e-05,0
2.3765,-3.2395e-05,0
2.377,-1.5274e-05,0
2.3775,2.182e-06,0
2.378,1.2421e-05,0
2.3785,1.5946e-05,0
2.379,1.6617e-05,0
2.3795,2.1149e-05,0
2.38,2.8367e-05,0
2.3805,3.3402e-05,0
2.381,3.4577e-05,0
2.3815,2.5681e-05,0
2.382,7.8889e-06,0
2.3825,-5.539e-06,0
2.383,-8.392e-07,0
2.3835,1.5946e-05,0
2.384,2.9374e-05,0
2.3845,3.6927e-05,0
2.385,4.1123e-05,0
2.3855,4.3473e-05,0
2.386,3.978e-05,0
2.3865,2.9877e-05,0
2.387,1.9806e-05,0
2.3875,1.5946e-05,0
2.388,1.796e-05,0
2.3885,1.9974e-05,0
2.389,2.0646e-05,0
2.3895,1.9638e-05,0
2.39,1.4603e-05,0
2.3905,4.3641e-06,0
2.391,-3.0213e-06,0
2.3915,-2.0142e-06,0
2.392,6.5461e-06,0
2.3925,1.5946e-05,0
2.393,1.9974e-05,0
2.3935,2.2492e-05,0
2.394,2.3499e-05,0
2.3945,2.1653e-05,0
2.395,2.2156e-05,0
2.3955,2.6688e-05,0
2.396,3.4577e-05,0
2.3965,4.0787e-05,0
2.397,3.9445e-05,0
2.3975,3.0213e-05,0
2.398,1.3932e-05,0
2.3985,-3.5248e-06,0
2.399,-1.3596e-05,0
2.3995,-1.4435e-05,0
2.4,-1.3596e-05,0
2.4005,-1.2589e-05,0
2.401,-6.3783e-06,0
2.4015,7.8889e-06,0
2.402,2.1149e-05,0
2.4025,2.8199e-05,0
2.403,3.2731e-05,0
2.4035,3.7095e-05,0
2.404,4.448e-05,0
2.4045,5.153e-05,0
2.405,5.0858e-05,0
2.4055,4.3137e-05,0
2.406,3.5416e-05,0
2.4065,2.9206e-05,0
2.407,2.4674e-05,0
2.4075,2.5009e-05,0
2.408,2.7359e-05,0
2.4085,2.9374e-05,0
2.409,2.9038e-05,0
2.4095,2.5681e-05,0
2.41,2.182e-05,0
2.4105,2.0981e-05,0
2.411,2.3331e-05,0
2.4115,2.6184e-05,0
2.412,2.7695e-05,0
2.4125,2.7863e-05,0
2.413,2.887e-05,0
2.4135,2.5345e-05,0
2.414,2.0646e-05,0
2.4145,2.4674e-05,0
2.415,3.5416e-05,0
2.4155,4.3641e-05,0
2.416,4.7669e-05,0
2.4165,4.3809e-05,0
2.417,3.5584e-05,0
2.4175,3.122e-05,0
2.418,2.6017e-05,0
2.4185,1.7121e-05,0
2.419,1.2589e-05,0
2.4195,1.4267e-05,0
2.42,1.6785e-05,0
2.4205,1.8296e-05,0
2.421,1.4939e-05,0
2.4215,-2.182e-06,0
2.422,-3.1388e-05,0
2.4225,-5.5726e-05,0
2.423,-5.774e-05,0
2.4235,-3.4409e-05,0
2.424,-7.5532e-06,0
2.4245,5.2033e-06,0
2.425,7.2175e-06,0
2.4255,7.0497e-06,0
2.426,1.0575e-05,0
2.4265,1.5778e-05,0
2.427,1.9303e-05,0
2.4275,2.4674e-05,0
2.428,3.4577e-05,0
2.4285,4.213e-05,0
2.429,3.978e-05,0
2.4295,3.1388e-05,0
2.43,2.5681e-05,0
2.4305,3.0549e-05,0
2.431,5.0187e-05,0
2.4315,7.1e-05,0
2.432,7.3686e-05,0
2.4325,5.6901e-05,0
2.433,3.3066e-05,0
2.4335,1.0575e-05,0
2.434,-6.5461e-06,0
2.4345,-1.2924e-05,0
2.435,-1.2253e-05,0
2.4355,-1.2085e-05,0
2.436,-1.1078e-05,0
2.4365,-3.6927e-06,0
2.437,1.0575e-05,0
2.4375,2.9709e-05,0
2.438,4.2466e-05,0
2.4385,4.1291e-05,0
2.439,3.2731e-05,0
2.4395,2.3667e-05,0
2.44,1.7121e-05,0
2.4405,1.3596e-05,0
2.441,1.4267e-05,0
2.4415,2.1317e-05,0
2.442,3.6759e-05,0
2.4425,5.2537e-05,0
2.443,5.2872e-05,0
2.4435,3.827e-05,0
2.444,2.4002e-05,0
2.4445,1.8967e-05,0
2.445,1.9806e-05,0
2.4455,2.1317e-05,0
2.446,2.4002e-05,0
2.4465,2.1988e-05,0
2.447,1.1582e-05,0
2.4475,-3.5248e-06,0
2.448,-1.7624e-05,0
2.4485,-2.1317e-05,0
2.449,-1.2085e-05,0
2.4495,2.5177e-06,0
2.45,1.9135e-05,0
2.4505,3.1052e-05,0
2.451,3.4073e-05,0
2.4515,3.2395e-05,0
2.452,3.0381e-05,0
2.4525,3.3738e-05,0
2.453,3.9109e-05,0
2.4535,3.8941e-05,0
2.454,3.3402e-05,0
2.4545,2.266e-05,0
2.455,1.1582e-05,0
2.4555,-8.392e-07,0
2.456,-1.5274e-05,0
2.4565,-2.3499e-05,0
2.457,-1.6281e-05,0
2.4575,2.182e-06,0
2.458,2.0478e-05,0
2.4585,2.7192e-05,0
2.459,1.9974e-05,0
2.4595,1.3596e-05,0
2.46,2.031e-05,0
2.4605,3.8437e-05,0
2.461,5.8747e-05,0
2.4615,6.9657e-05,0
2.462,6.3447e-05,0
2.4625,3.7262e-05,0
2.463,2.182e-06,0
2.4635,-2.3667e-05,0
2.464,-2.5009e-05,0
2.4645,-2.182e-06,0
2.465,2.6184e-05,0
2.4655,5.0187e-05,0
2.466,6.4622e-05,0
2.4665,6.2272e-05,0
2.467,4.3977e-05,0
2.4675,2.1653e-05,0
2.468,7.2175e-06,0
2.4685,2.182e-06,0
2.469,6.8818e-06,0
2.4695,1.3092e-05,0
2.47,1.2757e-05,0
2.4705,1.1078e-05,0
2.471,1.3596e-05,0
2.4715,1.2924e-05,0
2.472,8.392e-07,0
2.4725,-1.1246e-05,0
2.473,-8.2246e-06,0
2.4735,1.0575e-05,0
2.474,3.743e-05,0
2.4745,5.3208e-05,0
2.475,4.7166e-05,0
2.4755,2.7192e-05,0
2.476,7.2175e-06,0
2.4765,-6.3783e-06,0
2.477,-9.5674e-06,0
2.4775,-3.357e-06,0
2.478,1.1749e-06,0
2.4785,5.539e-06,0
2.479,1.5946e-05,0
2.4795,2.9374e-05,0
2.48,4.0787e-05,0
2.4805,5.2201e-05,0
2.481,6.63e-05,0
2.4815,8.1071e-05,0
2.482,8.7785e-05,0
2.4825,8.7114e-05,0
2.483,8.3925e-05,0
2.4835,7.4693e-05,0
2.484,5.623e-05,0
2.4845,2.7695e-05,0
2.485,-3.0213e-06,0
2.4855,-2.2492e-05,0
2.486,-3.6423e-05,0
2.4865,-5.0187e-05,0
2.487,-4.3977e-05,0
2.4875,-3.6927e-06,0
2.488,4.4816e-05,0
2.4885,6.6804e-05,0
2.489,6.1265e-05,0
2.4895,4.5151e-05,0
2.49,2.4842e-05,0
2.4905,7.2175e-06,0
2.491,2.182e-06,0
2.4915,7.3854e-06,0
2.492,1.2253e-05,0
2.4925,8.2246e-06,0
2.493,-7.2175e-06,0
2.4935,-2.2995e-05,0
2.494,-3.0549e-05,0
2.4945,-2.8367e-05,0
2.495,-2.0981e-05,0
2.4955,-1.1917e-05,0
2.496,-9.5674e-06,0
2.4965,-1.6953e-05,0
2.497,-2.7024e-05,0
2.4975,-2.7695e-05,0
2.498,-1.2085e-05,0
2.4985,1.1246e-05,0
2.499,2.6184e-05,0
2.4995,2.8534e-05,0
2.5,2.9374e-05,0
2.5005,3.6759e-05,0
2.501,4.3641e-05,0
2.5015,4.1962e-05,0
2.502,3.1891e-05,0
2.5025,2.2156e-05,0
2.503,2.5345e-05,0
2.5035,3.8605e-05,0
2.504,5.2537e-05,0
2.5045,5.9922e-05,0
2.505,5.6733e-05,0
2.5055,4.5487e-05,0
2.506,2.9877e-05,0
2.5065,1.8631e-05,0
2.507,1.796e-05,0
2.5075,2.266e-05,0
2.508,2.1988e-05,0
2.5085,7.5532e-06,0
2.509,-1.7624e-05,0
2.5095,-3.2898e-05,0
2.51,-2.4506e-05,0
2.5105,-3.1891e-06,0
2.511,1.4603e-05,0
2.5115,2.5345e-05,0
2.512,3.1891e-05,0
2.5125,3.3402e-05,0
2.513,3.1556e-05,0
2.5135,2.8031e-05,0
2.514,2.6017e-05,0
2.5145,2.9542e-05,0
2.515,4.0116e-05,0
2.5155,5.3544e-05,0
2.516,6.5629e-05,0
2.5165,7.7043e-05,0
2.517,8.3757e-05,0
2.5175,7.6707e-05,0
2.518,6.0258e-05,0
2.5185,5.069e-05,0
2.519,4.8844e-05,0
2.5195,4.5991e-05,0
2.52,3.5248e-05,0
2.5205,2.3331e-05,0
2.521,1.8463e-05,0
2.5215,1.6953e-05,0
2.522,1.0575e-05,0
2.5225,-3.5248e-06,0
2.523,-1.7121e-05,0
2.5235,-2.2156e-05,0
2.524,-1.7288e-05,0
2.5245,-9.7353e-06,0
2.525,-5.539e-06,0
2.5255,-1.6785e-06,0
2.526,1.1749e-06,0
2.5265,-6.3783e-06,0
2.527,-2.1317e-05,0
2.5275,-2.7192e-05,0
2.528,-1.8967e-05,0
2.5285,-3.5248e-06,0
2.529,1.0575e-05,0
2.5295,2.3331e-05,0
2.53,3.3738e-05,0
2.5305,4.1123e-05,0
2.531,4.4816e-05,0
2.5315,4.1291e-05,0
2.532,2.9038e-05,0
2.5325,1.1917e-05,0
2.533,4.5319e-06,0
2.5335,1.7121e-05,0
2.534,3.8102e-05,0
2.5345,4.9851e-05,0
2.535,4.7166e-05,0
2.5355,3.7934e-05,0
2.536,2.6352e-05,0
2.5365,1.3092e-05,0
2.537,-2.3499e-06,0
2.5375,-1.9638e-05,0
2.538,-3.2395e-05,0
2.5385,-3.5752e-05,0
2.539,-2.7192e-05,0
2.5395,-1.091e-05,0
2.54,4.8676e-06,0
2.5405,8.896e-06,0
2.541,2.8534e-06,0
2.5415,-3.5248e-06,0
2.542,-2.8534e-06,0
2.5425,9.9031e-06,0
2.543,3.827e-05,0
2.5435,6.9154e-05,0
2.544,8.5771e-05,0
2.5445,7.8553e-05,0
2.545,5.2537e-05,0
2.5455,2.9709e-05,0
2.546,2.7695e-05,0
2.5465,4.3473e-05,0
2.547,6.2944e-05,0
2.5475,6.63e-05,0
2.548,4.4648e-05,0
2.5485,1.1917e-05,0
2.549,-9.5674e-06,0
2.5495,-6.8818e-06,0
2.55,1.4267e-05,0
2.5505,3.3402e-05,0
2.551,3.7262e-05,0
2.5515,2.5009e-05,0
2.552,9.2317e-06,0
2.5525,3.6927e-06,0
2.553,1.0239e-05,0
2.5535,1.9638e-05,0
2.554,2.8702e-05,0
2.5545,3.9948e-05,0
2.555,4.8173e-05,0
2.5555,4.8844e-05,0
2.556,3.7262e-05,0
2.5565,1.9806e-05,0
2.557,8.5603e-06,0
2.5575,6.8818e-06,0
2.558,1.0575e-05,0
2.5585,2.1988e-05,0
2.559,4.1627e-05,0
2.5595,5.9587e-05,0
2.56,6.3615e-05,0
2.5605,5.0858e-05,0
2.561,2.7192e-05,0
2.5615,4.5319e-06,0
2.562,-4.3641e-06,0
2.5625,-6.2104e-06,0
2.563,-9.5674e-06,0
2.5635,-1.1749e-05,0
2.564,-1.4603e-05,0
2.5645,-2.6184e-05,0
2.565,-4.1795e-05,0
2.5655,-4.9012e-05,0
2.566,-4.7166e-05,0
2.5665,-3.357e-05,0
2.567,-5.3712e-06,0
2.5675,3.1052e-05,0
2.568,6.4286e-05,0
2.5685,8.1239e-05,0
2.569,7.5868e-05,0
2.5695,5.6901e-05,0
2.57,3.4745e-05,0
2.5705,1.6281e-05,0
2.571,1.0239e-05,0
2.5715,1.8296e-05,0
2.572,2.7024e-05,0
2.5725,3.0045e-05,0
2.573,3.5752e-05,0
2.5735,4.6998e-05,0
2.574,5.623e-05,0
2.5745,5.7237e-05,0
2.575,5.0858e-05,0
2.5755,4.5823e-05,0
2.576,4.3809e-05,0
2.5765,4.1291e-05,0
2.577,3.3234e-05,0
2.5775,2.0813e-05,0
2.578,9.9031e-06,0
2.5785,2.5177e-06,0
2.579,-1.0071e-06,0
2.5795,3.357e-07,0
2.58,4.5319e-06,0
2.5805,6.8818e-06,0
2.581,4.0284e-06,0
2.5815,-1.3428e-06,0
2.582,4.3641e-06,0
2.5825,1.9974e-05,0
2.583,2.8702e-05,0
2.5835,2.4002e-05,0
2.584,1.1749e-05,0
2.5845,-3.5248e-06,0
2.585,-2.1317e-05,0
2.5855,-3.827e-05,0
2.586,-4.2634e-05,0
2.5865,-2.7695e-05,0
2.587,3.0213e-06,0
2.5875,3.6088e-05,0
2.588,5.3544e-05,0
2.5885,5.1362e-05,0
2.589,3.7766e-05,0
2.5895,2.652e-05,0
2.59,2.5345e-05,0
2.5905,3.4409e-05,0
2.591,4.5487e-05,0
2.5915,4.7837e-05,0
2.592,3.3738e-05,0
2.5925,1.6953e-05,0
2.593,2.0813e-05,0
2.5935,5.1698e-05,0
2.594,8.7114e-05,0
2.5945,9.7185e-05,0
2.595,7.6371e-05,0
2.5955,4.5487e-05,0
2.596,2.7695e-05,0
2.5965,1.8463e-05,0
2.597,7.2175e-06,0
2.5975,-8.2246e-06,0
2.598,-2.8534e-05,0
2.5985,-5.4215e-05,0
2.599,-8.3421e-05,0
2.5995,-0.00011061,0
2.6,-0.0001279,0
2.6005,-0.00012303,0
2.601,-9.7185e-05,0
2.6015,-4.9683e-05,0
2.602,1.4603e-05,0
2.6025,7.9728e-05,0
2.603,0.00012706,0
2.6035,0.00014418,0
2.604,0.00012908,0
2.6045,9.1142e-05,0
2.605,4.9348e-05,0
2.6055,2.2995e-05,0
2.606,1.8967e-05,0
2.6065,3.4745e-05,0
2.607,5.5558e-05,0
2.6075,6.1936e-05,0
2.608,5.1194e-05,0
2.6085,3.3066e-05,0
2.609,1.7121e-05,0
2.6095,7.2175e-06,0
2.61,4.5319e-06,0
2.6105,8.896e-06,0
2.611,1.6449e-05,0
2.6115,1.8631e-05,0
2.612,1.5778e-05,0
2.6125,1.5778e-05,0
2.613,1.9303e-05,0
2.6135,2.182e-05,0
2.614,2.4674e-05,0
2.6145,2.6017e-05,0
2.615,2.4002e-05,0
2.6155,2.4674e-05,0
2.616,3.2059e-05,0
2.6165,4.213e-05,0
2.617,4.5487e-05,0
2.6175,3.6088e-05,0
2.618,1.6953e-05,0
2.6185,-8.392e-07,0
2.619,-1.2589e-05,0
2.6195,-1.3764e-05,0
2.62,3.8605e-06,0
2.6205,3.1724e-05,0
2.621,5.2705e-05,0
2.6215,5.9587e-05,0
2.622,5.4887e-05,0
2.6225,4.3137e-05,0
2.623,3.0716e-05,0
2.6235,2.4674e-05,0
2.624,2.1988e-05,0
2.6245,1.8631e-05,0
2.625,1.6449e-05,0
2.6255,1.4267e-05,0
2.626,1.5106e-05,0
2.6265,2.1317e-05,0
2.627,3.978e-05,0
2.6275,6.2272e-05,0
2.628,7.3518e-05,0
2.6285,6.63e-05,0
2.629,4.5487e-05,0
2.6295,2.2492e-05,0
2.63,1.6785e-06,0
2.6305,-2.1653e-05,0
2.631,-3.9445e-05,0
2.6315,-3.8773e-05,0
2.632,-2.2492e-05,0
2.6325,-2.182e-06,0
2.633,1.0239e-05,0
2.6335,3.6927e-06,0
2.634,-2.2492e-05,0
2.6345,-4.8508e-05,0
2.635,-5.539e-05,0
2.6355,-4.213e-05,0
2.636,-2.1988e-05,0
2.6365,-5.7069e-06,0
2.637,4.1962e-06,0
2.6375,1.1582e-05,0
2.638,1.9638e-05,0
2.6385,2.7024e-05,0
2.639,2.5009e-05,0
2.6395,1.2757e-05,0
2.64,3.1891e-06,0
2.6405,5.2033e-06,0
2.641,1.1414e-05,0
2.6415,1.4603e-05,0
2.642,1.326e-05,0
2.6425,1.3596e-05,0
2.643,1.7624e-05,0
2.6435,2.4842e-05,0
2.644,3.2395e-05,0
2.6445,4.2802e-05,0
2.645,5.7572e-05,0
2.6455,7.2343e-05,0
2.646,7.7714e-05,0
2.6465,7.2343e-05,0
2.647,6.63e-05,0
2.6475,6.5461e-05,0
2.648,6.1769e-05,0
2.6485,4.5487e-05,0
2.649,2.1317e-05,0
2.6495,1.0071e-06,0
2.65,-5.539e-06,0
2.6505,-3.8605e-06,0
2.651,-4.8676e-06,0
2.6515,-8.2246e-06,0
2.652,-1.091e-05,0
2.6525,-1.4939e-05,0
2.653,-1.8296e-05,0
2.6535,-1.091e-05,0
2.654,8.5603e-06,0
2.6545,2.9877e-05,0
2.655,3.978e-05,0
2.6555,4.0619e-05,0
2.656,4.2466e-05,0
2.6565,4.6159e-05,0
2.657,4.5487e-05,0
2.6575,4.0116e-05,0
2.658,4.0284e-05,0
2.6585,4.448e-05,0
2.659,4.0116e-05,0
2.6595,2.7359e-05,0
2.66,2.0142e-05,0
2.6605,2.1988e-05,0
2.661,2.6017e-05,0
2.6615,3.0045e-05,0
2.662,3.3738e-05,0
2.6625,3.7766e-05,0
2.663,3.8437e-05,0
2.6635,3.3066e-05,0
2.664,2.8031e-05,0
2.6645,3.122e-05,0
2.665,4.4816e-05,0
2.6655,6.3447e-05,0
2.666,7.8386e-05,0
2.6665,8.1743e-05,0
2.667,6.6636e-05,0
2.6675,3.6423e-05,0
2.668,4.3641e-06,0
2.6685,-1.2924e-05,0
2.669,-1.3596e-05,0
2.6695,-1.3932e-05,0
2.67,-1.8631e-05,0
2.6705,-1.9638e-05,0
2.671,-1.9303e-05,0
2.6715,-1.8967e-05,0
2.672,-9.5674e-06,0
2.6725,5.0355e-06,0
2.673,1.5442e-05,0
2.6735,2.0981e-05,0
2.674,2.2324e-05,0
2.6745,1.4267e-05,0
2.675,-1.1749e-06,0
2.6755,-1.1414e-05,0
2.676,-4.8676e-06,0
2.6765,1.7288e-05,0
2.677,4.1291e-05,0
2.6775,5.4551e-05,0
2.678,4.5823e-05,0
2.6785,2.4674e-05,0
2.679,8.2246e-06,0
2.6795,-9.9031e-06,0
2.68,-3.5248e-05,0
2.6805,-4.8676e-05,0
2.681,-4.4144e-05,0
2.6815,-3.3738e-05,0
2.682,-2.5009e-05,0
2.6825,-1.3596e-05,0
2.683,1.8463e-06,0
2.6835,1.3764e-05,0
2.684,2.1317e-05,0
2.6845,3.0381e-05,0
2.685,4.7669e-05,0
2.6855,7.2343e-05,0
2.686,9.1981e-05,0
2.6865,9.3828e-05,0
2.687,7.6371e-05,0
2.6875,4.4144e-05,0
2.688,7.0497e-06,0
2.6885,-1.8631e-05,0
2.689,-2.6017e-05,0
2.6895,-1.6281e-05,0
2.69,8.7282e-06,0
2.6905,3.2059e-05,0
2.691,3.5752e-05,0
2.6915,2.6352e-05,0
2.692,2.2156e-05,0
2.6925,2.8367e-05,0
2.693,3.1891e-05,0
2.6935,1.6953e-05,0
2.694,-1.5946e-05,0
2.6945,-5.3208e-05,0
2.695,-6.9657e-05,0
2.6955,-4.7501e-05,0
2.696,2.0142e-06,0
2.6965,5.4887e-05,0
2.697,8.5771e-05,0
2.6975,8.4428e-05,0
2.698,6.3783e-05,0
2.6985,4.6494e-05,0
2.699,5.0858e-05,0
2.6995,7.2343e-05,0
2.7,8.8289e-05,0
2.7005,8.2918e-05,0
2.701,6.4622e-05,0
2.7015,5.2705e-05,0
2.702,5.2201e-05,0
2.7025,5.2201e-05,0
2.703,5.4215e-05,0
2.7035,5.6062e-05,0
2.704,4.4816e-05,0
2.7045,2.0142e-05,0
2.705,-6.2104e-06,0
2.7055,-2.3499e-05,0
2.706,-2.8534e-05,0
2.7065,-2.7359e-05,0
2.707,-2.3331e-05,0
2.7075,-1.7121e-05,0
2.708,-1.6281e-05,0
2.7085,-2.1317e-05,0
2.709,-2.4002e-05,0
2.7095,-1.8128e-05,0
2.71,-6.8818e-06,0
2.7105,3.8605e-06,0
2.711,1.6281e-05,0
2.7115,3.592e-05,0
2.712,5.539e-05,0
2.7125,5.6901e-05,0
2.713,4.1795e-05,0
2.7135,2.5681e-05,0
2.714,1.9638e-05,0
2.7145,2.1317e-05,0
2.715,2.0813e-05,0
2.7155,8.896e-06,0
2.716,-1.1246e-05,0
2.7165,-2.8702e-05,0
2.717,-3.4577e-05,0
2.7175,-2.1317e-05,0
2.718,3.1891e-06,0
2.7185,2.6688e-05,0
2.719,4.3305e-05,0
2.7195,5.3544e-05,0
2.72,5.9251e-05,0
2.7205,5.6901e-05,0
2.721,5.1194e-05,0
2.7215,4.5151e-05,0
2.722,3.8102e-05,0
2.7225,3.1052e-05,0
2.723,2.7863e-05,0
2.7235,2.9374e-05,0
2.724,2.7863e-05,0
2.7245,2.1317e-05,0
2.725,1.6617e-05,0
2.7255,1.1917e-05,0
2.726,7.0497e-06,0
2.7265,5.8747e-06,0
2.727,6.5461e-06,0
2.7275,7.3854e-06,0
2.728,1.1917e-05,0
2.7285,1.7288e-05,0
2.729,2.182e-05,0
2.7295,2.4842e-05,0
2.73,2.3667e-05,0
2.7305,1.4267e-05,0
2.731,-2.5177e-06,0
2.7315,-1.8967e-05,0
2.732,-2.9877e-05,0
2.7325,-3.1556e-05,0
2.733,-2.031e-05,0
2.7335,-1.1749e-06,0
2.734,1.9974e-05,0
2.7345,3.743e-05,0
2.735,4.6998e-05,0
2.7355,5.5222e-05,0
2.736,6.4622e-05,0
2.7365,6.6972e-05,0
2.737,5.6733e-05,0
2.7375,4.1795e-05,0
2.738,3.7766e-05,0
2.7385,4.1459e-05,0
2.739,3.743e-05,0
2.7395,2.887e-05,0
2.74,2.7359e-05,0
2.7405,2.8702e-05,0
2.741,1.9974e-05,0
2.7415,6.0426e-06,0
2.742,1.678e-07,0
2.7425,1.2253e-05,0
2.743,3.5752e-05,0
2.7435,5.0187e-05,0
2.744,5.1194e-05,0
2.7445,4.683e-05,0
2.745,4.0787e-05,0
2.7455,2.6017e-05,0
2.746,7.8889e-06,0
2.7465,6.5461e-06,0
2.747,2.266e-05,0
2.7475,2.8702e-05,0
2.748,1.3092e-05,0
2.7485,-1.6785e-06,0
2.749,1.5106e-06,0
2.7495,1.7288e-05,0
2.75,3.3066e-05,0
2.7505,4.1291e-05,0
2.751,4.213e-05,0
2.7515,3.1052e-05,0
2.752,8.896e-06,0
2.7525,-4.8676e-06,0
2.753,6.714e-07,0
2.7535,1.4267e-05,0
2.754,2.3667e-05,0
2.7545,1.9638e-05,0
2.755,-2.182e-06,0
2.7555,-3.0381e-05,0
2.756,-4.6494e-05,0
2.7565,-4.6159e-05,0
2.757,-3.7766e-05,0
2.7575,-3.3738e-05,0
2.758,-4.0452e-05,0
2.7585,-4.5823e-05,0
2.759,-4.4312e-05,0
2.7595,-4.0452e-05,0
2.76,-4.0955e-05,0
2.7605,-3.4577e-05,0
2.761,8.392e-07,0
2.7615,5.9922e-05,0
2.762,0.00010021,0
2.7625,0.00010574,0
2.763,9.7856e-05,0
2.7635,9.0639e-05,0
2.764,8.4428e-05,0
2.7645,7.8386e-05,0
2.765,7.3686e-05,0
2.7655,6.9657e-05,0
2.766,6.4286e-05,0
2.7665,5.8747e-05,0
2.767,4.8676e-05,0
2.7675,3.743e-05,0
2.768,3.0381e-05,0
2.7685,3.0045e-05,0
2.769,3.0716e-05,0
2.7695,3.3906e-05,0
2.77,4.2802e-05,0
2.7705,4.8676e-05,0
2.771,4.5319e-05,0
2.7715,3.3402e-05,0
2.772,1.7288e-05,0
2.7725,1.0071e-06,0
2.773,-1.7624e-05,0
2.7735,-3.5752e-05,0
2.774,-4.1459e-05,0
2.7745,-3.0716e-05,0
2.775,-1.4603e-05,0
2.7755,-8.392e-07,0
2.776,1.1078e-05,0
2.7765,1.9974e-05,0
2.777,2.9877e-05,0
2.7775,3.3402e-05,0
2.778,1.326e-05,0
2.7785,-2.4842e-05,0
2.779,-5.6062e-05,0
2.7795,-6.1433e-05,0
2.78,-3.6255e-05,0
2.7805,4.8676e-06,0
2.781,3.0045e-05,0
2.7815,1.6953e-05,0
2.782,-1.8631e-05,0
2.7825,-4.0955e-05,0
2.783,-2.7192e-05,0
2.7835,1.4267e-05,0
2.784,5.8915e-05,0
2.7845,8.4764e-05,0
2.785,8.3085e-05,0
2.7855,5.7069e-05,0
2.786,2.9374e-05,0
2.7865,3.1891e-05,0
2.787,5.9419e-05,0
2.7875,7.7714e-05,0
2.788,6.6972e-05,0
2.7885,3.5416e-05,0
2.789,7.5532e-06,0
2.7895,-1.1749e-06,0
2.79,1.8463e-06,0
2.7905,1.2253e-05,0
2.791,3.4073e-05,0
2.7915,6.2272e-05,0
2.792,9.1142e-05,0
2.7925,0.00010893,0
2.793,9.7856e-05,0
2.7935,5.7572e-05,0
2.794,1.4771e-05,0
2.7945,-2.0142e-06,0
2.795,8.2246e-06,0
2.7955,1.9974e-05,0
2.796,1.4267e-05,0
2.7965,-1.0071e-06,0
2.797,-1.2589e-05,0
2.7975,-1.5106e-05,0
2.798,-5.0355e-06,0
2.7985,1.0575e-05,0
2.799,1.4939e-05,0
2.7995,3.8605e-06,0
2.8,-7.5532e-06,0
2.8005,-4.5319e-06,0
2.801,5.7069e-06,0
2.8015,9.9031e-06,0
2.802,1.1582e-05,0
2.8025,2.1317e-05,0
2.803,3.0716e-05,0
2.8035,1.8463e-05,0
2.804,-1.1246e-05,0
2.8045,-3.6591e-05,0
2.805,-5.2537e-05,0
2.8055,-5.7908e-05,0
2.806,-4.7501e-05,0
2.8065,-2.4506e-05,0
2.807,5.2033e-06,0
2.8075,2.7359e-05,0
2.808,3.7262e-05,0
2.8085,4.7333e-05,0
2.809,6.8147e-05,0
2.8095,9.9199e-05,0
2.81,0.00012975,0
2.8105,0.00013948,0
2.811,0.00011733,0
2.8115,7.6707e-05,0
2.812,3.4409e-05,0
2.8125,4.3641e-06,0
2.813,-1.0071e-06,0
2.8135,1.7288e-05,0
2.814,3.5752e-05,0
2.8145,4.5319e-05,0
2.815,4.8844e-05,0
2.8155,4.1459e-05,0
2.816,2.4338e-05,0
2.8165,7.8889e-06,0
2.817,-4.1962e-06,0
2.8175,-1.5946e-05,0
2.818,-3.0381e-05,0
2.8185,-4.1459e-05,0
2.819,-3.592e-05,0
2.8195,-1.4267e-05,0
2.82,2.182e-06,0
2.8205,6.2104e-06,0
2.821,-1.678e-07,0
2.8215,-1.0407e-05,0
2.822,-1.8128e-05,0
2.8225,-2.3163e-05,0
2.823,-2.7024e-05,0
2.8235,-3.3234e-05,0
2.824,-3.1724e-05,0
2.8245,-1.0071e-06,0
2.825,4.6494e-05,0
2.8255,8.1071e-05,0
2.826,9.1142e-05,0
2.8265,7.5532e-05,0
2.827,4.6159e-05,0
2.8275,2.8031e-05,0
2.828,2.3667e-05,0
2.8285,2.0981e-05,0
2.829,1.9638e-05,0
2.8295,2.5849e-05,0
2.83,3.8941e-05,0
2.8305,5.539e-05,0
2.831,6.4958e-05,0
2.8315,5.8579e-05,0
2.832,4.0452e-05,0
2.8325,1.6953e-05,0
2.833,-3.0213e-06,0
2.8335,-5.8747e-06,0
2.834,1.2253e-05,0
2.8345,4.4144e-05,0
2.835,6.479e-05,0
2.8355,5.2872e-05,0
2.836,2.0646e-05,0
2.8365,-4.5319e-06,0
2.837,-1.1582e-05,0
2.8375,-1.2924e-05,0
2.838,-1.8296e-05,0
2.8385,-2.7695e-05,0
2.839,-3.4745e-05,0
2.8395,-3.8941e-05,0
2.84,-3.4745e-05,0
2.8405,-2.2324e-05,0
2.841,-6.2104e-06,0
2.8415,5.8747e-06,0
2.842,1.091e-05,0
2.8425,1.1917e-05,0
2.843,8.2246e-06,0
2.8435,-2.3499e-06,0
2.844,-1.2924e-05,0
2.8445,-7.2175e-06,0
2.845,2.3499e-05,0
2.8455,6.7308e-05,0
2.846,9.9031e-05,0
2.8465,9.987e-05,0
2.847,8.1071e-05,0
2.8475,6.63e-05,0
2.848,6.244e-05,0
2.8485,5.5726e-05,0
2.849,3.9612e-05,0
2.8495,3.0045e-05,0
2.85,3.5752e-05,0
2.8505,4.3977e-05,0
2.851,4.0787e-05,0
2.8515,2.2324e-05,0
2.852,-6.5461e-06,0
2.8525,-2.5009e-05,0
2.853,-2.3667e-05,0
2.8535,-8.896e-06,0
2.854,1.5274e-05,0
2.8545,4.448e-05,0
2.855,6.8315e-05,0
2.8555,7.2679e-05,0
2.856,6.1601e-05,0
2.8565,6.2608e-05,0
2.857,8.5771e-05,0
2.8575,0.00011061,0
2.858,0.00011061,0
2.8585,6.6972e-05,0
2.859,-1.091e-05,0
2.8595,-8.9128e-05,0
2.86,-0.00013848,0
2.8605,-0.00014788,0
2.861,-0.00010172,0
2.8615,-2.0478e-05,0
2.862,4.1795e-05,0
2.8625,5.5558e-05,0
2.863,3.1052e-05,0
2.8635,3.1891e-06,0
2.864,5.539e-06,0
2.8645,3.4745e-05,0
2.865,6.5461e-05,0
2.8655,8.2582e-05,0
2.866,7.4021e-05,0
2.8665,3.5752e-05,0
2.867,-4.8676e-06,0
2.8675,-1.9303e-05,0
2.868,-7.2175e-06,0
2.8685,1.2589e-05,0
2.869,2.3331e-05,0
2.8695,2.417e-05,0
2.87,2.9877e-05,0
2.8705,4.0452e-05,0
2.871,4.0452e-05,0
2.8715,2.9877e-05,0
2.872,2.2995e-05,0
2.8725,1.8631e-05,0
2.873,3.1891e-06,0
2.8735,-1.8967e-05,0
2.874,-2.5177e-05,0
2.8745,-8.392e-07,0
2.875,3.9445e-05,0
2.8755,6.6636e-05,0
2.876,7.0664e-05,0
2.8765,6.8986e-05,0
2.877,6.2272e-05,0
2.8775,3.9277e-05,0
2.878,1.4603e-05,0
2.8785,3.357e-07,0
2.879,-5.0355e-06,0
2.8795,5.8747e-06,0
2.88,3.592e-05,0
2.8805,5.7069e-05,0
2.881,4.1459e-05,0
2.8815,-1.5106e-05,0
2.882,-7.8721e-05,0
2.8825,-0.00010759,0
2.883,-7.7211e-05,0
2.8835,3.357e-06,0
2.884,8.3757e-05,0
2.8845,0.00010423,0
2.885,6.1936e-05,0
2.8855,8.896e-06,0
2.886,-7.0497e-06,0
2.8865,1.2253e-05,0
2.887,3.4577e-05,0
2.8875,4.2634e-05,0
2.888,3.6759e-05,0
2.8885,1.9303e-05,0
2.889,-4.0284e-06,0
2.8895,-2.3163e-05,0
2.89,-3.3234e-05,0
2.8905,-3.122e-05,0
2.891,-2.1988e-05,0
2.8915,-9.5674e-06,0
2.892,-3.8605e-06,0
2.8925,-2.1653e-05,0
2.893,-5.4719e-05,0
2.8935,-7.6036e-05,0
2.894,-6.7475e-05,0
2.8945,-1.8967e-05,0
2.895,4.7333e-05,0
2.8955,8.3589e-05,0
2.896,8.3085e-05,0
2.8965,6.4286e-05,0
2.897,4.0116e-05,0
2.8975,1.7456e-05,0
2.898,-5.035e-07,0
2.8985,-9.7353e-06,0
2.899,-7.8889e-06,0
2.8995,-3.5248e-06,0
2.9,-1.6953e-05,0
2.9005,-4.4144e-05,0
2.901,-4.1291e-05,0
2.9015,6.0426e-06,0
2.902,6.6804e-05,0
2.9025,0.00010558,0
2.903,0.00012505,0
2.9035,0.00014334,0
2.904,0.00016634,0
2.9045,0.00018497,0
2.905,0.00018044,0
2.9055,0.00014301,0
2.906,8.5771e-05,0
2.9065,4.1291e-05,0
2.907,2.266e-05,0
2.9075,1.0407e-05,0
2.908,-1.0239e-05,0
2.9085,-2.2995e-05,0
2.909,3.5248e-06,0
2.9095,7.3686e-05,0
2.91,0.00013411,0
2.9105,0.00014553,0
2.911,0.00011934,0
2.9115,7.5029e-05,0
2.912,2.9038e-05,0
2.9125,-7.5532e-06,0
2.913,-2.7024e-05,0
2.9135,-3.6088e-05,0
2.914,-4.3641e-05,0
2.9145,-4.918e-05,0
2.915,-4.9348e-05,0
2.9155,-4.4144e-05,0
2.916,-4.2802e-05,0
2.9165,-5.1865e-05,0
2.917,-6.6468e-05,0
2.9175,-8.3421e-05,0
2.918,-9.1478e-05,0
2.9185,-7.6036e-05,0
2.919,-4.448e-05,0
2.9195,-2.0981e-05,0
2.92,-1.7792e-05,0
2.9205,-2.2492e-05,0
2.921,-1.6953e-05,0
2.9215,2.0142e-06,0
2.922,3.2731e-05,0
2.9225,6.4622e-05,0
2.923,8.0064e-05,0
2.9235,7.2175e-05,0
2.924,5.1865e-05,0
2.9245,3.0716e-05,0
2.925,1.6617e-05,0
2.9255,2.031e-05,0
2.926,4.4816e-05,0
2.9265,5.8915e-05,0
2.927,3.5416e-05,0
2.9275,-1.6785e-06,0
2.928,-1.8631e-05,0
2.9285,-6.8818e-06,0
2.929,2.4674e-05,0
2.9295,5.2201e-05,0
2.93,4.5487e-05,0
2.9305,-7.2175e-06,0
2.931,-7.8386e-05,0
2.9315,-0.00010977,0
2.932,-5.2537e-05,0
2.9325,6.5797e-05,0
2.933,0.00016466,0
2.9335,0.00019756,0
2.934,0.00017104,0
2.9345,0.00011598,0
2.935,6.2104e-05,0
2.9355,3.8102e-05,0
2.936,4.3473e-05,0
2.9365,4.5991e-05,0
2.937,2.6688e-05,0
2.9375,0,0
2.938,-2.8702e-05,0
2.9385,-5.6901e-05,0
2.939,-6.0258e-05,0
2.9395,-3.0381e-05,0
2.94,-1.6785e-06,0
2.9405,1.1749e-06,0
2.941,-7.5532e-06,0
2.9415,-5.539e-06,0
2.942,9.5674e-06,0
2.9425,3.0381e-05,0
2.943,6.4958e-05,0
2.9435,0.00010726,0
2.944,0.00012438,0
2.9445,0.00010088,0
2.945,5.3376e-05,0
2.9455,7.7211e-06,0
2.946,-2.2492e-05,0
2.9465,-3.2395e-05,0
2.947,-2.7359e-05,0
2.9475,-2.2995e-05,0
2.948,-2.8534e-05,0
2.9485,-3.3738e-05,0
2.949,-2.6688e-05,0
2.9495,-1.326e-05,0
2.95,-2.3499e-06,0
2.9505,-5.0355e-06,0
2.951,-1.9638e-05,0
2.9515,-3.2059e-05,0
2.952,-3.0549e-05,0
2.9525,-9.0639e-06,0
2.953,2.1317e-05,0
2.9535,4.5991e-05,0
2.954,5.5558e-05,0
2.9545,5.153e-05,0
2.955,4.683e-05,0
2.9555,4.9348e-05,0
2.956,4.8508e-05,0
2.9565,2.6352e-05,0
2.957,-1.561e-05,0
2.9575,-4.7166e-05,0
2.958,-3.7095e-05,0
2.9585,1.5274e-05,0
2.959,7.9057e-05,0
2.9595,0.00012119,0
2.96,0.00013462,0
2.9605,0.00012001,0
2.961,8.8457e-05,0
2.9615,6.0929e-05,0
2.962,4.2466e-05,0
2.9625,2.5345e-05,0
2.963,1.5778e-05,0
2.9635,2.1317e-05,0
2.964,2.8031e-05,0
2.9645,2.6184e-05,0
2.965,1.9974e-05,0
2.9655,2.0981e-05,0
2.966,3.9612e-05,0
2.9665,6.63e-05,0
2.967,7.3686e-05,0
2.9675,5.2369e-05,0
2.968,1.7288e-05,0
2.9685,-9.5674e-06,0
2.969,-1.4435e-05,0
2.9695,-5.2033e-06,0
2.97,0,0
2.9705,-7.0497e-06,0
2.971,-2.0981e-05,0
2.9715,-3.3402e-05,0
2.972,-4.1291e-05,0
2.9725,-6.4622e-05,0
2.973,-0.00012287,0
2.9735,-0.00017742,0
2.974,-0.00016936,0
2.9745,-9.601e-05,0
2.975,3.1891e-06,0
2.9755,7.1336e-05,0
2.976,7.6875e-05,0
2.9765,4.4816e-05,0
2.977,2.266e-05,0
2.9775,3.6927e-05,0
2.978,7.4357e-05,0
2.9785,0.00010457,0
2.979,0.00010289,0
2.9795,7.805e-05,0
2.98,6.949e-05,0
2.9805,9.0135e-05,0
2.981,0.00011128,0
2.9815,9.6345e-05,0
2.982,4.7166e-05,0
2.9825,5.8747e-06,0
2.983,-8.392e-07,0
2.9835,1.5946e-05,0
2.984,3.1052e-05,0
2.9845,3.9109e-05,0
2.985,4.7166e-05,0
2.9855,5.0858e-05,0
2.986,4.3137e-05,0
2.9865,2.7863e-05,0
2.987,1.2924e-05,0
2.9875,4.1962e-06,0
2.988,6.714e-07,0
2.9885,-3.5248e-06,0
2.989,-1.6281e-05,0
2.9895,-3.6423e-05,0
2.99,-4.1962e-05,0
2.9905,-1.3092e-05,0
2.991,2.6688e-05,0
2.9915,4.3137e-05,0
2.992,2.5513e-05,0
2.9925,2.5177e-06,0
2.993,-8.392e-07,0
2.9935,1.5106e-05,0
2.994,3.2059e-05,0
2.9945,3.508e-05,0
2.995,1.2421e-05,0
2.9955,-2.0981e-05,0
2.996,-3.7095e-05,0
2.9965,-2.6688e-05,0
2.997,1.1749e-06,0
2.9975,3.3738e-05,0
2.998,5.7404e-05,0
2.9985,6.4958e-05,0
2.999,5.623e-05,0
2.9995,3.8437e-05,0
3,2.9709e-05,0
3.0005,4.2802e-05,0
3.001,6.4286e-05,0
3.0015,7.3686e-05,0
3.002,7.1839e-05,0
3.0025,5.5894e-05,0
3.003,2.3667e-05,0
3.0035,-2.3499e-06,0
3.004,1.678e-07,0
3.0045,2.031e-05,0
3.005,3.592e-05,0
3.0055,4.9851e-05,0
3.006,7.3182e-05,0
3.0065,9.4835e-05,0
3.007,9.5171e-05,0
3.0075,6.63e-05,0
3.008,3.122e-05,0
3.0085,1.6953e-05,0
3.009,3.3738e-05,0
3.0095,6.5293e-05,0
3.01,8.2414e-05,0
3.0105,5.7572e-05,0
3.011,-1.5274e-05,0
3.0115,-9.6513e-05,0
3.012,-0.00013747,0
3.0125,-0.00011951,0
3.013,-6.2272e-05,0
3.0135,-8.5603e-06,0
3.014,5.2033e-06,0
3.0145,-2.8367e-05,0
3.015,-5.7572e-05,0
3.0155,-3.8102e-05,0
3.016,1.1749e-06,0
3.0165,2.2324e-05,0
3.017,2.5345e-05,0
3.0175,3.0213e-05,0
3.018,3.9445e-05,0
3.0185,4.5151e-05,0
3.019,4.5487e-05,0
3.0195,4.8508e-05,0
3.02,5.4887e-05,0
3.0205,4.4984e-05,0
3.021,2.7024e-05,0
3.0215,7.2175e-06,0
3.022,-2.031e-05,0
3.0225,-4.5823e-05,0
3.023,-6.7308e-05,0
3.0235,-8.6107e-05,0
3.024,-0.00011531,0
3.0245,-0.00016231,0
3.025,-0.00019605,0
3.0255,-0.00018228,0
3.026,-0.00012219,0
3.0265,-4.0787e-05,0
3.027,3.8773e-05,0
3.0275,0.00011128,0
3.028,0.0001655,0
3.0285,0.00018648,0
3.029,0.0001754,0
3.0295,0.00015291,0
3.03,0.00014485,0
3.0305,0.00015442,0
3.031,0.0001791,0
3.0315,0.00020696,0
3.032,0.00021854,0
3.0325,0.00020024,0
3.033,0.00015727,0
3.0335,0.00010256,0
3.034,5.1362e-05,0
3.0345,2.3163e-05,0
3.035,2.2492e-05,0
3.0355,2.8031e-05,0
3.036,1.2421e-05,0
3.0365,-2.2995e-05,0
3.037,-5.153e-05,0
3.0375,-5.6565e-05,0
3.038,-4.5319e-05,0
3.0385,-2.4338e-05,0
3.039,1.0575e-05,0
3.0395,2.9206e-05,0
3.04,7.8889e-06,0
3.0405,-3.1556e-05,0
3.041,-4.7837e-05,0
3.0415,-3.1052e-05,0
3.042,-6.3783e-06,0
3.0425,1.6785e-06,0
3.043,-1.1917e-05,0
3.0435,-2.7192e-05,0
3.044,-1.7792e-05,0
3.0445,8.896e-06,0
3.045,2.9038e-05,0
3.0455,3.8773e-05,0
3.046,3.9109e-05,0
3.0465,2.6688e-05,0
3.047,1.091e-05,0
3.0475,-1.091e-05,0
3.048,-4.5823e-05,0
3.0485,-6.8818e-05,0
3.049,-5.1362e-05,0
3.0495,-7.3854e-06,0
3.05,3.5752e-05,0
3.0505,6.1769e-05,0
3.051,6.5965e-05,0
3.0515,5.4383e-05,0
3.052,3.978e-05,0
3.0525,4.1459e-05,0
3.053,6.8482e-05,0
3.0535,0.00011263,0
3.054,0.00014183,0
3.0545,0.00012706,0
3.055,7.4693e-05,0
3.0555,1.0239e-05,0
3.056,-4.4984e-05,0
3.0565,-8.0735e-05,0
3.057,-9.6849e-05,0
3.0575,-9.0135e-05,0
3.058,-5.7908e-05,0
3.0585,-2.1653e-05,0
3.059,-1.8463e-06,0
3.0595,5.0355e-06,0
3.06,9.5674e-06,0
3.0605,1.0071e-05,0
3.061,9.5674e-06,0
3.0615,8.896e-06,0
3.062,1.2253e-05,0
3.0625,3.6423e-05,0
3.063,7.1e-05,0
3.0635,8.4764e-05,0
3.064,6.8818e-05,0
3.0645,1.7288e-05,0
3.065,-5.623e-05,0
3.0655,-9.9702e-05,0
3.066,-5.9251e-05,0
3.0665,4.4144e-05,0
3.067,0.0001237,0
3.0675,0.0001321,0
3.068,8.3085e-05,0
3.0685,1.7288e-05,0
3.069,-2.4674e-05,0
3.0695,-3.3738e-05,0
3.07,-2.2995e-05,0
3.0705,-1.0575e-05,0
3.071,-1.7288e-05,0
3.0715,-4.1459e-05,0
3.072,-5.623e-05,0
3.0725,-4.8676e-05,0
3.073,-2.9206e-05,0
3.0735,-1.6281e-05,0
3.074,-1.9974e-05,0
3.0745,-3.3402e-05,0
3.075,-3.1724e-05,0
3.0755,-2.8534e-06,0
3.076,3.0381e-05,0
3.0765,4.2802e-05,0
3.077,4.9348e-05,0
3.0775,7.1504e-05,0
3.078,8.8289e-05,0
3.0785,9.6345e-05,0
3.079,0.00011867,0
3.0795,0.00015929,0
3.08,0.00018984,0
3.0805,0.00017238,0
3.081,9.5506e-05,0
3.0815,-1.1246e-05,0
3.082,-8.896e-05,0
3.0825,-7.6707e-05,0
3.083,1.7792e-05,0
3.0835,0.00010188,0
3.084,0.0001274,0
3.0845,0.00010289,0
3.085,4.6998e-05,0
3.0855,-6.2104e-06,0
3.086,-2.3667e-05,0
3.0865,-1.2421e-05,0
3.087,-1.5106e-06,0
3.0875,-5.0355e-06,0
3.088,-2.031e-05,0
3.0885,-4.213e-05,0
3.089,-6.4958e-05,0
3.0895,-6.0594e-05,0
3.09,-5.7069e-06,0
3.0905,6.7643e-05,0
3.091,0.00010524,0
3.0915,9.1142e-05,0
3.092,5.7237e-05,0
3.0925,3.7766e-05,0
3.093,5.1865e-05,0
3.0935,8.4428e-05,0
3.094,9.7856e-05,0
3.0945,8.3757e-05,0
3.095,6.3951e-05,0
