0,0,0
0.0005,0,0
0.001,0,0
0.0015,0,0
0.002,0,0
0.0025,0,0
0.003,0,0
0.0035,0,0
0.004,0,0
0.0045,0,0
0.005,0,0
0.0055,0,0
0.006,0,0
0.0065,0,0
0.007,0,0
0.0075,0,0
0.008,0,0
0.0085,0,0
0.009,0,0
0.0095,0,0
0.01,0,0
0.0105,0,0
0.011,0,0
0.0115,0,0
0.012,0,0
0.0125,0,0
0.013,0,0
0.0135,0,0
0.014,0,0
0.0145,0,0
0.015,0,0
0.0155,0,0
0.016,0,0
0.0165,0,0
0.017,0,0
0.0175,0,0
0.018,0,0
0.0185,0,0
0.019,0,0
0.0195,0,0
0.02,0,0
0.0205,0,0
0.021,0,0
0.0215,0,0
0.022,0,0
0.0225,0,0
0.023,0,0
0.0235,0,0
0.024,0,0
0.0245,0,0
0.025,0,0
0.0255,0,0
0.026,0,0
0.0265,0,0
0.027,0,0
0.0275,0,0
0.028,0,0
0.0285,0,0
0.029,0,0
0.0295,0,0
0.03,0,0
0.0305,0,0
0.031,0,0
0.0315,0,0
0.032,0,0
0.0325,0,0
0.033,0,0
0.0335,0,0
0.034,0,0
0.0345,0,0
0.035,0,0
0.0355,0,0
0.036,0,0
0.0365,0,0
0.037,0,0
0.0375,0,0
0.038,0,0
0.0385,0,0
0.039,0,0
0.0395,0,0
0.04,0,0
0.0405,0,0
0.041,0,0
0.0415,0,0
0.042,0,0
0.0425,0,0
0.043,0,0
0.0435,0,0
0.044,0,0
0.0445,0,0
0.045,0,0
0.0455,0,0
0.046,0,0
0.0465,0,0
0.047,0,0
0.0475,0,0
0.048,0,0
0.0485,0,0
0.049,0,0
0.0495,0,0
0.05,0,0
0.0505,0,0
0.051,0,0
0.0515,0,0
0.052,2.4002e-05,0
0.0525,1.9974e-05,0
0.053,1.7288e-05,0
0.0535,1.796e-05,0
0.054,1.8296e-05,0
0.0545,1.6617e-05,0
0.055,1.2757e-05,0
0.0555,7.5532e-06,0
0.056,3.1891e-06,0
0.0565,4.3641e-06,0
0.057,7.5532e-06,0
0.0575,7.8889e-06,0
0.058,6.5461e-06,0
0.0585,7.8889e-06,0
0.059,1.1078e-05,0
0.0595,1.5274e-05,0
0.06,2.0646e-05,0
0.0605,2.4506e-05,0
0.061,2.6688e-05,0
0.0615,2.7024e-05,0
0.062,2.6688e-05,0
0.0625,2.7024e-05,0
0.063,2.7863e-05,0
0.0635,2.9374e-05,0
0.064,3.0716e-05,0
0.0645,3.2059e-05,0
0.065,3.1891e-05,0
0.0655,2.8534e-05,0
0.066,2.3667e-05,0
0.0665,1.8631e-05,0
0.067,1.5778e-05,0
0.0675,1.561e-05,0
0.068,1.3596e-05,0
0.0685,1.1749e-05,0
0.069,1.1246e-05,0
0.0695,9.3996e-06,0
0.07,6.5461e-06,0
0.0705,6.2104e-06,0
0.071,7.2175e-06,0
0.0715,1.0575e-05,0
0.072,1.6281e-05,0
0.0725,2.1317e-05,0
0.073,2.3667e-05,0
0.0735,2.4002e-05,0
0.074,2.4002e-05,0
0.0745,2.5345e-05,0
0.075,2.8702e-05,0
0.0755,3.2059e-05,0
0.076,3.3738e-05,0
0.0765,3.4073e-05,0
0.077,3.1388e-05,0
0.0775,2.8199e-05,0
0.078,2.8367e-05,0
0.0785,2.9709e-05,0
0.079,3.0716e-05,0
0.0795,3.1388e-05,0
0.08,3.2059e-05,0
0.0805,3.1724e-05,0
0.081,3.0381e-05,0
0.0815,2.8031e-05,0
0.082,2.5513e-05,0
0.0825,2.1149e-05,0
0.083,1.6617e-05,0
0.0835,1.5778e-05,0
0.084,1.5946e-05,0
0.0845,1.7121e-05,0
0.085,2.0981e-05,0
0.0855,2.3499e-05,0
0.086,2.5681e-05,0
0.0865,2.8031e-05,0
0.087,2.7359e-05,0
0.0875,2.5345e-05,0
0.088,2.4338e-05,0
0.0885,2.3331e-05,0
0.089,2.3835e-05,0
0.0895,2.3835e-05,0
0.09,2.2324e-05,0
0.0905,2.2492e-05,0
0.091,2.2828e-05,0
0.0915,2.0981e-05,0
0.092,1.7288e-05,0
0.0925,1.3764e-05,0
0.093,1.1246e-05,0
0.0935,9.5674e-06,0
0.094,8.5603e-06,0
0.0945,8.5603e-06,0
0.095,7.8889e-06,0
0.0955,9.2317e-06,0
0.096,1.3932e-05,0
0.0965,1.9303e-05,0
0.097,2.0478e-05,0
0.0975,1.8631e-05,0
0.098,1.6617e-05,0
0.0985,1.5778e-05,0
0.099,1.4435e-05,0
0.0995,1.3764e-05,0
0.1,1.5274e-05,0
0.1005,1.7792e-05,0
0.101,1.9638e-05,0
0.1015,1.9638e-05,0
0.102,1.8631e-05,0
0.1025,1.796e-05,0
0.103,1.8296e-05,0
0.1035,1.8967e-05,0
0.104,1.8967e-05,0
0.1045,1.8296e-05,0
0.105,1.8631e-05,0
0.1055,2.031e-05,0
0.106,2.1653e-05,0
0.1065,2.0478e-05,0
0.107,1.6953e-05,0
0.1075,1.5274e-05,0
0.108,1.7288e-05,0
0.1085,1.796e-05,0
0.109,1.7624e-05,0
0.1095,1.9135e-05,0
0.11,2.1317e-05,0
0.1105,2.182e-05,0
0.111,2.0142e-05,0
0.1115,1.8631e-05,0
0.112,1.9135e-05,0
0.1125,2.182e-05,0
0.113,2.6017e-05,0
0.1135,2.8367e-05,0
0.114,2.7527e-05,0
0.1145,2.5345e-05,0
0.115,2.5681e-05,0
0.1155,2.6017e-05,0
0.116,2.6688e-05,0
0.1165,2.6688e-05,0
0.117,2.4674e-05,0
0.1175,2.2324e-05,0
0.118,2.1988e-05,0
0.1185,2.0478e-05,0
0.119,1.796e-05,0
0.1195,1.7288e-05,0
0.12,1.561e-05,0
0.1205,1.2924e-05,0
0.121,1.2085e-05,0
0.1215,1.4603e-05,0
0.122,1.8296e-05,0
0.1225,2.1653e-05,0
0.123,2.2492e-05,0
0.1235,2.3331e-05,0
0.124,2.5009e-05,0
0.1245,2.6688e-05,0
0.125,2.6688e-05,0
0.1255,2.5681e-05,0
0.126,2.5177e-05,0
0.1265,2.5345e-05,0
0.127,2.4674e-05,0
0.1275,2.417e-05,0
0.128,2.4674e-05,0
0.1285,2.5849e-05,0
0.129,2.6017e-05,0
0.1295,2.5177e-05,0
0.13,2.5345e-05,0
0.1305,2.4842e-05,0
0.131,2.2995e-05,0
0.1315,2.266e-05,0
0.132,2.2995e-05,0
0.1325,2.266e-05,0
0.133,2.1317e-05,0
0.1335,1.8128e-05,0
0.134,1.5274e-05,0
0.1345,1.2253e-05,0
0.135,9.5674e-06,0
0.1355,8.5603e-06,0
0.136,7.2175e-06,0
0.1365,4.6998e-06,0
0.137,4.1962e-06,0
0.1375,5.2033e-06,0
0.138,6.8818e-06,0
0.1385,7.0497e-06,0
0.139,7.8889e-06,0
0.1395,1.1582e-05,0
0.14,1.4603e-05,0
0.1405,1.4939e-05,0
0.141,1.4603e-05,0
0.1415,1.5946e-05,0
0.142,1.9638e-05,0
0.1425,2.2492e-05,0
0.143,2.2324e-05,0
0.1435,2.1149e-05,0
0.144,2.1149e-05,0
0.1445,2.266e-05,0
0.145,2.4002e-05,0
0.1455,2.266e-05,0
0.146,1.9303e-05,0
0.1465,1.9303e-05,0
0.147,2.1988e-05,0
0.1475,2.5177e-05,0
0.148,2.652e-05,0
0.1485,2.7359e-05,0
0.149,3.0549e-05,0
0.1495,3.4073e-05,0
0.15,3.5416e-05,0
0.1505,3.6255e-05,0
0.151,3.6088e-05,0
0.1515,3.4745e-05,0
0.152,3.1724e-05,0
0.1525,2.6688e-05,0
0.153,2.1317e-05,0
0.1535,1.8128e-05,0
0.154,1.5946e-05,0
0.1545,1.5946e-05,0
0.155,1.6617e-05,0
0.1555,1.561e-05,0
0.156,1.3932e-05,0
0.1565,1.4603e-05,0
0.157,1.7792e-05,0
0.1575,1.9638e-05,0
0.158,1.8967e-05,0
0.1585,1.6617e-05,0
0.159,1.5106e-05,0
0.1595,1.5274e-05,0
0.16,1.5946e-05,0
0.1605,1.5946e-05,0
0.161,1.4771e-05,0
0.1615,1.561e-05,0
0.162,1.7288e-05,0
0.1625,1.8296e-05,0
0.163,1.8296e-05,0
0.1635,1.8463e-05,0
0.164,1.8799e-05,0
0.1645,1.947e-05,0
0.165,1.8631e-05,0
0.1655,1.5946e-05,0
0.166,1.2589e-05,0
0.1665,1.2253e-05,0
0.167,1.5946e-05,0
0.1675,2.031e-05,0
0.168,2.0981e-05,0
0.1685,2.0646e-05,0
0.169,1.9974e-05,0
0.1695,2.0646e-05,0
0.17,2.1317e-05,0
0.1705,2.0981e-05,0
0.171,2.031e-05,0
0.1715,2.031e-05,0
0.172,2.0478e-05,0
0.1725,2.0646e-05,0
0.173,2.0646e-05,0
0.1735,2.2156e-05,0
0.174,2.1988e-05,0
0.1745,2.0646e-05,0
0.175,1.8631e-05,0
0.1755,1.4771e-05,0
0.176,1.3932e-05,0
0.1765,1.6281e-05,0
0.177,2.031e-05,0
0.1775,2.266e-05,0
0.178,2.4842e-05,0
0.1785,2.6688e-05,0
0.179,2.7024e-05,0
0.1795,2.5849e-05,0
0.18,2.3331e-05,0
0.1805,2.031e-05,0
0.181,1.796e-05,0
0.1815,1.7288e-05,0
0.182,1.9806e-05,0
0.1825,2.2324e-05,0
0.183,2.2156e-05,0
0.1835,1.9638e-05,0
0.184,1.5778e-05,0
0.1845,1.2421e-05,0
0.185,1.0407e-05,0
0.1855,1.2253e-05,0
0.186,1.561e-05,0
0.1865,1.6617e-05,0
0.187,1.7624e-05,0
0.1875,1.9303e-05,0
0.188,1.9638e-05,0
0.1885,2.2324e-05,0
0.189,2.4338e-05,0
0.1895,2.2156e-05,0
0.19,2.0813e-05,0
0.1905,2.3331e-05,0
0.191,2.5345e-05,0
0.1915,2.5009e-05,0
0.192,2.5009e-05,0
0.1925,2.5345e-05,0
0.193,2.5345e-05,0
0.1935,2.6184e-05,0
0.194,2.7695e-05,0
0.1945,2.9206e-05,0
0.195,3.0884e-05,0
0.1955,3.122e-05,0
0.196,3.0716e-05,0
0.1965,3.0045e-05,0
0.197,2.9038e-05,0
0.1975,2.8031e-05,0
0.198,2.6688e-05,0
0.1985,2.5681e-05,0
0.199,2.3331e-05,0
0.1995,1.796e-05,0
0.2,1.1246e-05,0
0.2005,6.5461e-06,0
0.201,3.8605e-06,0
0.2015,3.5248e-06,0
0.202,5.8747e-06,0
0.2025,9.2317e-06,0
0.203,1.0407e-05,0
0.2035,7.0497e-06,0
0.204,4.5319e-06,0
0.2045,6.2104e-06,0
0.205,9.3996e-06,0
0.2055,1.1917e-05,0
0.206,1.4435e-05,0
0.2065,1.6785e-05,0
0.207,1.8631e-05,0
0.2075,2.0142e-05,0
0.208,2.0646e-05,0
0.2085,2.1317e-05,0
0.209,2.3835e-05,0
0.2095,2.5681e-05,0
0.21,2.6688e-05,0
0.2105,2.8031e-05,0
0.211,2.8031e-05,0
0.2115,2.4506e-05,0
0.212,2.2995e-05,0
0.2125,2.3835e-05,0
0.213,2.3835e-05,0
0.2135,2.4338e-05,0
0.214,2.3667e-05,0
0.2145,2.0981e-05,0
0.215,1.8631e-05,0
0.2155,1.8631e-05,0
0.216,1.9974e-05,0
0.2165,2.2324e-05,0
0.217,2.3331e-05,0
0.2175,2.3835e-05,0
0.218,2.5345e-05,0
0.2185,2.6352e-05,0
0.219,2.6017e-05,0
0.2195,2.4002e-05,0
0.22,2.2156e-05,0
0.2205,2.0646e-05,0
0.221,2.031e-05,0
0.2215,2.266e-05,0
0.222,2.4002e-05,0
0.2225,2.3499e-05,0
0.223,2.1317e-05,0
0.2235,1.9638e-05,0
0.224,1.6281e-05,0
0.2245,1.4435e-05,0
0.225,1.5106e-05,0
0.2255,1.4603e-05,0
0.226,1.2757e-05,0
0.2265,9.9031e-06,0
0.227,6.3783e-06,0
0.2275,2.182e-06,0
0.228,0,0
0.2285,4.3641e-06,0
0.229,1.091e-05,0
0.2295,1.6281e-05,0
0.23,1.7456e-05,0
0.2305,1.6953e-05,0
0.231,1.7624e-05,0
0.2315,1.7288e-05,0
0.232,1.6617e-05,0
0.2325,1.796e-05,0
0.233,2.0646e-05,0
0.2335,2.4674e-05,0
0.234,2.7359e-05,0
0.2345,2.7192e-05,0
0.235,2.4842e-05,0
0.2355,2.266e-05,0
0.236,2.0981e-05,0
0.2365,2.1317e-05,0
0.237,2.3835e-05,0
0.2375,2.7359e-05,0
0.238,3.0549e-05,0
0.2385,3.2059e-05,0
0.239,3.2059e-05,0
0.2395,3.0716e-05,0
0.24,2.9038e-05,0
0.2405,2.6017e-05,0
0.241,2.3331e-05,0
0.2415,2.182e-05,0
0.242,2.0478e-05,0
0.2425,1.9303e-05,0
0.243,1.9303e-05,0
0.2435,2.0478e-05,0
0.244,2.1317e-05,0
0.2445,1.947e-05,0
0.245,1.6617e-05,0
0.2455,1.5274e-05,0
0.246,1.561e-05,0
0.2465,1.6617e-05,0
0.247,1.7288e-05,0
0.2475,1.7121e-05,0
0.248,1.561e-05,0
0.2485,1.4939e-05,0
0.249,1.5274e-05,0
0.2495,1.6617e-05,0
0.25,1.8967e-05,0
0.2505,1.9806e-05,0
0.251,2.0646e-05,0
0.2515,2.0981e-05,0
0.252,2.2324e-05,0
0.2525,2.2324e-05,0
0.253,1.796e-05,0
0.2535,1.5778e-05,0
0.254,1.8967e-05,0
0.2545,2.3163e-05,0
0.255,2.4002e-05,0
0.2555,2.3331e-05,0
0.256,2.4674e-05,0
0.2565,2.5009e-05,0
0.257,2.2995e-05,0
0.2575,2.0646e-05,0
0.258,1.7624e-05,0
0.2585,1.6617e-05,0
0.259,1.6953e-05,0
0.2595,1.8128e-05,0
0.26,1.947e-05,0
0.2605,1.8631e-05,0
0.261,1.6617e-05,0
0.2615,1.5946e-05,0
0.262,1.5274e-05,0
0.2625,1.5274e-05,0
0.263,1.4603e-05,0
0.2635,1.5274e-05,0
0.264,1.6953e-05,0
0.2645,1.5946e-05,0
0.265,1.5946e-05,0
0.2655,1.9974e-05,0
0.266,2.1988e-05,0
0.2665,2.266e-05,0
0.267,2.6688e-05,0
0.2675,2.887e-05,0
0.268,2.8031e-05,0
0.2685,2.6688e-05,0
0.269,2.7527e-05,0
0.2695,2.8031e-05,0
0.27,2.5345e-05,0
0.2705,2.2324e-05,0
0.271,1.9303e-05,0
0.2715,1.8463e-05,0
0.272,1.7792e-05,0
0.2725,1.7288e-05,0
0.273,1.6281e-05,0
0.2735,1.5442e-05,0
0.274,1.7288e-05,0
0.2745,2.0813e-05,0
0.275,2.2995e-05,0
0.2755,2.4338e-05,0
0.276,2.4674e-05,0
0.2765,2.2995e-05,0
0.277,2.1149e-05,0
0.2775,2.1149e-05,0
0.278,2.3331e-05,0
0.2785,2.7527e-05,0
0.279,3.122e-05,0
0.2795,3.2059e-05,0
0.28,3.0716e-05,0
0.2805,2.8031e-05,0
0.281,2.5345e-05,0
0.2815,2.1317e-05,0
0.282,1.7288e-05,0
0.2825,1.5946e-05,0
0.283,1.7624e-05,0
0.2835,1.8296e-05,0
0.284,1.6953e-05,0
0.2845,1.5274e-05,0
0.285,1.6281e-05,0
0.2855,1.8631e-05,0
0.286,1.8799e-05,0
0.2865,1.8463e-05,0
0.287,1.7624e-05,0
0.2875,1.561e-05,0
0.288,1.2924e-05,0
0.2885,1.1917e-05,0
0.289,1.3932e-05,0
0.2895,1.5946e-05,0
0.29,1.6953e-05,0
0.2905,1.6281e-05,0
0.291,1.5946e-05,0
0.2915,1.7288e-05,0
0.292,1.8463e-05,0
0.2925,2.0981e-05,0
0.293,2.5009e-05,0
0.2935,2.5681e-05,0
0.294,2.4002e-05,0
0.2945,2.2995e-05,0
0.295,2.3835e-05,0
0.2955,2.4842e-05,0
0.296,2.5681e-05,0
0.2965,2.6017e-05,0
0.297,2.6352e-05,0
0.2975,2.6688e-05,0
0.298,2.7695e-05,0
0.2985,2.9374e-05,0
0.299,3.0045e-05,0
0.2995,2.9206e-05,0
0.3,2.8031e-05,0
0.3005,2.6688e-05,0
0.301,2.4674e-05,0
0.3015,2.266e-05,0
0.302,2.0142e-05,0
0.3025,1.796e-05,0
0.303,1.6953e-05,0
0.3035,1.3932e-05,0
0.304,9.3996e-06,0
0.3045,6.5461e-06,0
0.305,5.539e-06,0
0.3055,5.2033e-06,0
0.306,6.8818e-06,0
0.3065,9.9031e-06,0
0.307,1.1917e-05,0
0.3075,1.326e-05,0
0.308,1.3932e-05,0
0.3085,1.326e-05,0
0.309,1.4603e-05,0
0.3095,1.6785e-05,0
0.31,1.6785e-05,0
0.3105,1.5946e-05,0
0.311,1.561e-05,0
0.3115,1.6449e-05,0
0.312,1.7288e-05,0
0.3125,1.9303e-05,0
0.313,2.0142e-05,0
0.3135,2.031e-05,0
0.314,2.031e-05,0
0.3145,2.1317e-05,0
0.315,2.1988e-05,0
0.3155,2.1149e-05,0
0.316,1.9135e-05,0
0.3165,1.6953e-05,0
0.317,1.5274e-05,0
0.3175,1.4939e-05,0
0.318,1.4939e-05,0
0.3185,1.6785e-05,0
0.319,2.1317e-05,0
0.3195,2.5009e-05,0
0.32,2.6688e-05,0
0.3205,2.6688e-05,0
0.321,2.5345e-05,0
0.3215,2.3835e-05,0
0.322,2.4002e-05,0
0.3225,2.5345e-05,0
0.323,2.5345e-05,0
0.3235,2.5009e-05,0
0.324,2.6017e-05,0
0.3245,2.6352e-05,0
0.325,2.2324e-05,0
0.3255,1.8463e-05,0
0.326,1.8296e-05,0
0.3265,1.7792e-05,0
0.327,1.5274e-05,0
0.3275,1.3764e-05,0
0.328,1.4771e-05,0
0.3285,1.6617e-05,0
0.329,1.9303e-05,0
0.3295,2.2156e-05,0
0.33,2.4842e-05,0
0.3305,2.6017e-05,0
0.331,2.5513e-05,0
0.3315,2.4674e-05,0
0.332,2.4002e-05,0
0.3325,2.4002e-05,0
0.333,2.5009e-05,0
0.3335,2.7024e-05,0
0.334,2.8199e-05,0
0.3345,2.8367e-05,0
0.335,2.7863e-05,0
0.3355,2.7863e-05,0
0.336,2.8031e-05,0
0.3365,2.6688e-05,0
0.337,2.4002e-05,0
0.3375,1.8967e-05,0
0.338,1.4603e-05,0
0.3385,1.326e-05,0
0.339,1.3932e-05,0
0.3395,1.5442e-05,0
0.34,1.796e-05,0
0.3405,1.9806e-05,0
0.341,2.0646e-05,0
0.3415,2.2995e-05,0
0.342,2.5513e-05,0
0.3425,2.5345e-05,0
0.343,2.3667e-05,0
0.3435,2.266e-05,0
0.344,2.1149e-05,0
0.3445,1.796e-05,0
0.345,1.2924e-05,0
0.3455,9.2317e-06,0
0.346,6.2104e-06,0
0.3465,5.2033e-06,0
0.347,7.3854e-06,0
0.3475,9.5674e-06,0
0.348,1.3932e-05,0
0.3485,1.8631e-05,0
0.349,2.0646e-05,0
0.3495,2.0142e-05,0
0.35,1.8631e-05,0
0.3505,1.6617e-05,0
0.351,1.6281e-05,0
0.3515,1.6449e-05,0
0.352,1.8296e-05,0
0.3525,2.1317e-05,0
0.353,2.3331e-05,0
0.3535,2.266e-05,0
0.354,2.031e-05,0
0.3545,1.9974e-05,0
0.355,2.1317e-05,0
0.3555,2.182e-05,0
0.356,2.1653e-05,0
0.3565,2.3499e-05,0
0.357,2.5009e-05,0
0.3575,2.3163e-05,0
0.358,2.1149e-05,0
0.3585,2.0646e-05,0
0.359,2.0142e-05,0
0.3595,2.031e-05,0
0.36,2.1317e-05,0
0.3605,2.1317e-05,0
0.361,1.9974e-05,0
0.3615,1.9303e-05,0
0.362,1.9974e-05,0
0.3625,1.9638e-05,0
0.363,1.9974e-05,0
0.3635,2.2828e-05,0
0.364,2.6017e-05,0
0.3645,2.6688e-05,0
0.365,2.5345e-05,0
0.3655,2.3667e-05,0
0.366,2.1988e-05,0
0.3665,2.182e-05,0
0.367,2.1988e-05,0
0.3675,2.2324e-05,0
0.368,2.3163e-05,0
0.3685,2.3499e-05,0
0.369,2.3331e-05,0
0.3695,2.3163e-05,0
0.37,2.266e-05,0
0.3705,2.0981e-05,0
0.371,1.9974e-05,0
0.3715,1.8967e-05,0
0.372,1.9303e-05,0
0.3725,2.0646e-05,0
0.373,1.9974e-05,0
0.3735,1.8631e-05,0
0.374,1.8631e-05,0
0.3745,1.9303e-05,0
0.375,2.1149e-05,0
0.3755,2.1988e-05,0
0.376,2.266e-05,0
0.3765,2.1317e-05,0
0.377,1.9638e-05,0
0.3775,1.796e-05,0
0.378,1.7624e-05,0
0.3785,1.8296e-05,0
0.379,2.031e-05,0
0.3795,2.1317e-05,0
0.38,2.0813e-05,0
0.3805,1.9135e-05,0
0.381,1.7288e-05,0
0.3815,1.6785e-05,0
0.382,1.8296e-05,0
0.3825,2.0646e-05,0
0.383,2.0646e-05,0
0.3835,1.9303e-05,0
0.384,1.9135e-05,0
0.3845,1.9974e-05,0
0.385,1.9974e-05,0
0.3855,1.9806e-05,0
0.386,1.947e-05,0
0.3865,1.8967e-05,0
0.387,1.8296e-05,0
0.3875,1.8631e-05,0
0.388,1.8967e-05,0
0.3885,1.947e-05,0
0.389,1.8631e-05,0
0.3895,1.7624e-05,0
0.39,1.6617e-05,0
0.3905,1.561e-05,0
0.391,1.3764e-05,0
0.3915,1.3092e-05,0
0.392,1.326e-05,0
0.3925,1.4267e-05,0
0.393,1.3764e-05,0
0.3935,1.326e-05,0
0.394,1.4435e-05,0
0.3945,1.796e-05,0
0.395,2.1317e-05,0
0.3955,2.3163e-05,0
0.396,2.3835e-05,0
0.3965,2.4338e-05,0
0.397,2.5345e-05,0
0.3975,2.5849e-05,0
0.398,2.5513e-05,0
0.3985,2.2995e-05,0
0.399,1.9135e-05,0
0.3995,1.6617e-05,0
0.4,1.6617e-05,0
0.4005,1.796e-05,0
0.401,1.9638e-05,0
0.4015,2.0646e-05,0
0.402,2.031e-05,0
0.4025,2.1317e-05,0
0.403,2.266e-05,0
0.4035,2.0478e-05,0
0.404,1.6953e-05,0
0.4045,1.4939e-05,0
0.405,1.4603e-05,0
0.4055,1.6785e-05,0
0.406,1.9135e-05,0
0.4065,2.0981e-05,0
0.407,2.1653e-05,0
0.4075,1.9974e-05,0
0.408,1.7792e-05,0
0.4085,1.7624e-05,0
0.409,1.9303e-05,0
0.4095,2.0981e-05,0
0.41,2.1988e-05,0
0.4105,2.4002e-05,0
0.411,2.6352e-05,0
0.4115,2.6017e-05,0
0.412,2.5345e-05,0
0.4125,2.6352e-05,0
0.413,2.6017e-05,0
0.4135,2.4002e-05,0
0.414,2.4002e-05,0
0.4145,2.4506e-05,0
0.415,2.5681e-05,0
0.4155,2.9374e-05,0
0.416,3.2395e-05,0
0.4165,3.2059e-05,0
0.417,3.0381e-05,0
0.4175,2.9374e-05,0
0.418,2.9374e-05,0
0.4185,3.1556e-05,0
0.419,3.2731e-05,0
0.4195,3.2731e-05,0
0.42,3.2563e-05,0
0.4205,3.0716e-05,0
0.421,2.7359e-05,0
0.4215,2.3835e-05,0
0.422,1.8463e-05,0
0.4225,1.3092e-05,0
0.423,1.1078e-05,0
0.4235,8.896e-06,0
0.424,4.3641e-06,0
0.4245,1.1749e-06,0
0.425,5.035e-07,0
0.4255,-3.357e-07,0
0.426,-8.392e-07,0
0.4265,3.357e-07,0
0.427,2.8534e-06,0
0.4275,6.5461e-06,0
0.428,9.2317e-06,0
0.4285,1.091e-05,0
0.429,1.1246e-05,0
0.4295,1.1749e-05,0
0.43,1.4939e-05,0
0.4305,1.7121e-05,0
0.431,1.6281e-05,0
0.4315,1.7121e-05,0
0.432,1.8967e-05,0
0.4325,2.0478e-05,0
0.433,2.1317e-05,0
0.4335,2.2156e-05,0
0.434,2.4506e-05,0
0.4345,2.7359e-05,0
0.435,2.9374e-05,0
0.4355,3.1052e-05,0
0.436,3.2059e-05,0
0.4365,3.3402e-05,0
0.437,3.2731e-05,0
0.4375,3.0045e-05,0
0.438,2.5849e-05,0
0.4385,2.2324e-05,0
0.439,2.1317e-05,0
0.4395,1.9806e-05,0
0.44,1.4939e-05,0
0.4405,1.0239e-05,0
0.441,8.0568e-06,0
0.4415,8.2246e-06,0
0.442,9.2317e-06,0
0.4425,9.5674e-06,0
0.443,1.1246e-05,0
0.4435,1.3932e-05,0
0.444,1.4939e-05,0
0.4445,1.4267e-05,0
0.445,1.3596e-05,0
0.4455,1.3092e-05,0
0.446,1.1582e-05,0
0.4465,1.0575e-05,0
0.447,1.2757e-05,0
0.4475,1.561e-05,0
0.448,1.7624e-05,0
0.4485,1.9303e-05,0
0.449,2.1317e-05,0
0.4495,2.266e-05,0
0.45,2.2995e-05,0
0.4505,2.5177e-05,0
0.451,2.652e-05,0
0.4515,2.5681e-05,0
0.452,2.4338e-05,0
0.4525,2.3667e-05,0
0.453,2.266e-05,0
0.4535,2.1317e-05,0
0.454,2.1149e-05,0
0.4545,2.4842e-05,0
0.455,2.9038e-05,0
0.4555,3.0213e-05,0
0.456,2.9374e-05,0
0.4565,2.8367e-05,0
0.457,2.8199e-05,0
0.4575,2.652e-05,0
0.458,2.5513e-05,0
0.4585,2.5009e-05,0
0.459,2.5345e-05,0
0.4595,2.652e-05,0
0.46,2.6688e-05,0
0.4605,2.6688e-05,0
0.461,2.4674e-05,0
0.4615,2.1317e-05,0
0.462,2.1317e-05,0
0.4625,1.9806e-05,0
0.463,1.3932e-05,0
0.4635,8.5603e-06,0
0.464,8.5603e-06,0
0.4645,1.1414e-05,0
0.465,1.2085e-05,0
0.4655,1.2924e-05,0
0.466,1.5106e-05,0
0.4665,1.6281e-05,0
0.467,1.7624e-05,0
0.4675,1.796e-05,0
0.468,1.8631e-05,0
0.4685,1.9974e-05,0
0.469,2.0646e-05,0
0.4695,1.9974e-05,0
0.47,1.9135e-05,0
0.4705,1.9303e-05,0
0.471,2.1149e-05,0
0.4715,2.3331e-05,0
0.472,2.3835e-05,0
0.4725,2.3835e-05,0
0.473,2.4674e-05,0
0.4735,2.6017e-05,0
0.474,2.652e-05,0
0.4745,2.7695e-05,0
0.475,3.0716e-05,0
0.4755,3.2059e-05,0
0.476,3.122e-05,0
0.4765,3.0381e-05,0
0.477,3.1388e-05,0
0.4775,3.0716e-05,0
0.478,2.8534e-05,0
0.4785,2.6688e-05,0
0.479,2.5345e-05,0
0.4795,2.4674e-05,0
0.48,2.3331e-05,0
0.4805,2.0981e-05,0
0.481,1.7456e-05,0
0.4815,1.4267e-05,0
0.482,1.3092e-05,0
0.4825,1.1917e-05,0
0.483,1.1917e-05,0
0.4835,1.4603e-05,0
0.484,1.6953e-05,0
0.4845,1.7288e-05,0
0.485,1.561e-05,0
0.4855,1.2589e-05,0
0.486,1.2253e-05,0
0.4865,1.3764e-05,0
0.487,1.3596e-05,0
0.4875,1.4099e-05,0
0.488,1.4603e-05,0
0.4885,1.5274e-05,0
0.489,1.7121e-05,0
0.4895,1.8631e-05,0
0.49,1.9638e-05,0
0.4905,2.0142e-05,0
0.491,2.1317e-05,0
0.4915,2.1149e-05,0
0.492,1.9303e-05,0
0.4925,1.9303e-05,0
0.493,2.0478e-05,0
0.4935,2.1149e-05,0
0.494,2.0646e-05,0
0.4945,2.0646e-05,0
0.495,2.0981e-05,0
0.4955,2.2324e-05,0
0.496,2.1317e-05,0
0.4965,2.1988e-05,0
0.497,2.2156e-05,0
0.4975,2.031e-05,0
0.498,1.8967e-05,0
0.4985,1.8631e-05,0
0.499,1.8631e-05,0
0.4995,1.8296e-05,0
0.5,1.796e-05,0
0.5005,1.9303e-05,0
0.501,2.0981e-05,0
0.5015,2.0813e-05,0
0.502,1.9303e-05,0
0.5025,1.6617e-05,0
0.503,1.5946e-05,0
0.5035,1.5946e-05,0
0.504,1.6449e-05,0
0.5045,1.8296e-05,0
0.505,1.9303e-05,0
0.5055,2.0142e-05,0
0.506,2.2492e-05,0
0.5065,2.5513e-05,0
0.507,2.7359e-05,0
0.5075,2.6017e-05,0
0.508,2.3835e-05,0
0.5085,2.3835e-05,0
0.509,2.5177e-05,0
0.5095,2.5681e-05,0
0.51,2.3835e-05,0
0.5105,2.1149e-05,0
0.511,1.9638e-05,0
0.5115,1.9638e-05,0
0.512,1.8799e-05,0
0.5125,1.7288e-05,0
0.513,1.5946e-05,0
0.5135,1.6449e-05,0
0.514,1.796e-05,0
0.5145,1.9806e-05,0
0.515,2.1317e-05,0
0.5155,2.1653e-05,0
0.516,2.3667e-05,0
0.5165,2.7359e-05,0
0.517,2.8031e-05,0
0.5175,2.5849e-05,0
0.518,2.2995e-05,0
0.5185,2.2324e-05,0
0.519,2.2492e-05,0
0.5195,2.0142e-05,0
0.52,1.8296e-05,0
0.5205,1.7624e-05,0
0.521,1.7288e-05,0
0.5215,1.6449e-05,0
0.522,1.5106e-05,0
0.5225,1.5946e-05,0
0.523,1.6617e-05,0
0.5235,1.3932e-05,0
0.524,1.1246e-05,0
0.5245,1.326e-05,0
0.525,1.7624e-05,0
0.5255,2.1988e-05,0
0.526,2.5345e-05,0
0.5265,2.6688e-05,0
0.527,2.652e-05,0
0.5275,2.7024e-05,0
0.528,2.8031e-05,0
0.5285,2.7695e-05,0
0.529,2.6352e-05,0
0.5295,2.5009e-05,0
0.53,2.4842e-05,0
0.5305,2.2828e-05,0
0.531,1.9974e-05,0
0.5315,1.8631e-05,0
0.532,1.5106e-05,0
0.5325,1.1246e-05,0
0.533,9.7353e-06,0
0.5335,1.0575e-05,0
0.534,1.326e-05,0
0.5345,1.6281e-05,0
0.535,1.8128e-05,0
0.5355,1.9303e-05,0
0.536,1.9638e-05,0
0.5365,1.9974e-05,0
0.537,2.2324e-05,0
0.5375,2.4674e-05,0
0.538,2.4002e-05,0
0.5385,2.3163e-05,0
0.539,2.2995e-05,0
0.5395,2.2995e-05,0
0.54,2.4842e-05,0
0.5405,2.6688e-05,0
0.541,2.8367e-05,0
0.5415,2.9038e-05,0
0.542,2.8031e-05,0
0.5425,2.4674e-05,0
0.543,2.0813e-05,0
0.5435,1.8631e-05,0
0.544,1.7121e-05,0
0.5445,1.6617e-05,0
0.545,1.4603e-05,0
0.5455,1.1582e-05,0
0.546,9.3996e-06,0
0.5465,9.2317e-06,0
0.547,9.9031e-06,0
0.5475,1.0575e-05,0
0.548,1.0071e-05,0
0.5485,8.3925e-06,0
0.549,7.8889e-06,0
0.5495,1.2253e-05,0
0.55,1.6617e-05,0
0.5505,1.796e-05,0
0.551,1.7288e-05,0
0.5515,1.5778e-05,0
0.552,1.561e-05,0
0.5525,1.8296e-05,0
0.553,2.2324e-05,0
0.5535,2.4674e-05,0
0.554,2.6688e-05,0
0.5545,2.6352e-05,0
0.555,2.5681e-05,0
0.5555,2.6017e-05,0
0.556,2.6688e-05,0
0.5565,2.7359e-05,0
0.557,2.8534e-05,0
0.5575,2.8031e-05,0
0.558,2.6352e-05,0
0.5585,2.4506e-05,0
0.559,2.3331e-05,0
0.5595,2.1317e-05,0
0.56,1.9303e-05,0
0.5605,1.796e-05,0
0.561,1.796e-05,0
0.5615,2.1653e-05,0
0.562,2.4842e-05,0
0.5625,2.5681e-05,0
0.563,2.4506e-05,0
0.5635,2.266e-05,0
0.564,2.0981e-05,0
0.5645,1.9638e-05,0
0.565,1.9303e-05,0
0.5655,1.9806e-05,0
0.566,2.1317e-05,0
0.5665,2.266e-05,0
0.567,2.4338e-05,0
0.5675,2.7024e-05,0
0.568,2.4842e-05,0
0.5685,2.031e-05,0
0.569,1.6953e-05,0
0.5695,1.561e-05,0
0.57,1.326e-05,0
0.5705,1.1582e-05,0
0.571,1.1582e-05,0
0.5715,1.1246e-05,0
0.572,1.0575e-05,0
0.5725,1.2589e-05,0
0.573,1.5274e-05,0
0.5735,1.5442e-05,0
0.574,1.4267e-05,0
0.5745,1.5778e-05,0
0.575,1.8296e-05,0
0.5755,2.1149e-05,0
0.576,2.3163e-05,0
0.5765,2.1317e-05,0
0.577,1.8631e-05,0
0.5775,2.031e-05,0
0.578,2.2995e-05,0
0.5785,2.4002e-05,0
0.579,2.3667e-05,0
0.5795,2.2995e-05,0
0.58,2.3163e-05,0
0.5805,2.3331e-05,0
0.581,2.182e-05,0
0.5815,2.0478e-05,0
0.582,2.0142e-05,0
0.5825,2.031e-05,0
0.583,1.9806e-05,0
0.5835,1.9638e-05,0
0.584,2.0646e-05,0
0.5845,2.1988e-05,0
0.585,2.1317e-05,0
0.5855,1.8128e-05,0
0.586,1.6953e-05,0
0.5865,1.8296e-05,0
0.587,1.9638e-05,0
0.5875,1.9303e-05,0
0.588,1.7456e-05,0
0.5885,1.6449e-05,0
0.589,1.6281e-05,0
0.5895,1.5442e-05,0
0.59,1.5946e-05,0
0.5905,1.8967e-05,0
0.591,1.9135e-05,0
0.5915,1.9303e-05,0
0.592,2.2492e-05,0
0.5925,2.6184e-05,0
0.593,2.8199e-05,0
0.5935,2.9206e-05,0
0.594,2.9374e-05,0
0.5945,3.0716e-05,0
0.595,3.1891e-05,0
0.5955,2.9709e-05,0
0.596,2.6352e-05,0
0.5965,2.6017e-05,0
0.597,2.5849e-05,0
0.5975,2.6017e-05,0
0.598,2.6688e-05,0
0.5985,2.8199e-05,0
0.599,2.6688e-05,0
0.5995,2.5345e-05,0
0.6,2.6688e-05,0
0.6005,2.887e-05,0
0.601,2.7863e-05,0
0.6015,2.5345e-05,0
0.602,2.5345e-05,0
0.6025,2.6017e-05,0
0.603,2.6352e-05,0
0.6035,2.6184e-05,0
0.604,2.2828e-05,0
0.6045,1.6617e-05,0
0.605,1.1078e-05,0
0.6055,8.2246e-06,0
0.606,7.8889e-06,0
0.6065,8.5603e-06,0
0.607,9.5674e-06,0
0.6075,9.5674e-06,0
0.608,9.5674e-06,0
0.6085,1.0407e-05,0
0.609,1.1246e-05,0
0.6095,1.1582e-05,0
0.61,1.1246e-05,0
0.6105,1.1078e-05,0
0.611,1.2253e-05,0
0.6115,1.326e-05,0
0.612,1.3932e-05,0
0.6125,1.5106e-05,0
0.613,1.561e-05,0
0.6135,1.6785e-05,0
0.614,1.6953e-05,0
0.6145,1.5274e-05,0
0.615,1.4939e-05,0
0.6155,1.6281e-05,0
0.616,2.0142e-05,0
0.6165,2.5849e-05,0
0.617,2.7527e-05,0
0.6175,2.5849e-05,0
0.618,2.5345e-05,0
0.6185,2.4842e-05,0
0.619,2.3499e-05,0
0.6195,2.3331e-05,0
0.62,2.3331e-05,0
0.6205,2.1317e-05,0
0.621,2.1317e-05,0
0.6215,2.0646e-05,0
0.622,1.796e-05,0
0.6225,1.5778e-05,0
0.623,1.4267e-05,0
0.6235,1.4435e-05,0
0.624,1.6617e-05,0
0.6245,1.6785e-05,0
0.625,1.4603e-05,0
0.6255,1.1749e-05,0
0.626,9.2317e-06,0
0.6265,1.1078e-05,0
0.627,1.326e-05,0
0.6275,1.3092e-05,0
0.628,1.3428e-05,0
0.6285,1.5946e-05,0
0.629,1.947e-05,0
0.6295,2.2492e-05,0
0.63,2.4506e-05,0
0.6305,2.5681e-05,0
0.631,2.8534e-05,0
0.6315,3.1724e-05,0
0.632,3.2059e-05,0
0.6325,3.1052e-05,0
0.633,3.0716e-05,0
0.6335,3.0045e-05,0
0.634,2.7192e-05,0
0.6345,2.5177e-05,0
0.635,2.5513e-05,0
0.6355,2.4002e-05,0
0.636,2.2324e-05,0
0.6365,2.1149e-05,0
0.637,1.8967e-05,0
0.6375,1.6617e-05,0
0.638,1.5778e-05,0
0.6385,1.7624e-05,0
0.639,1.9806e-05,0
0.6395,2.1149e-05,0
0.64,2.266e-05,0
0.6405,2.4002e-05,0
0.641,2.4674e-05,0
0.6415,2.4002e-05,0
0.642,2.1317e-05,0
0.6425,2.1317e-05,0
0.643,2.2324e-05,0
0.6435,2.3163e-05,0
0.644,2.6017e-05,0
0.6445,2.6352e-05,0
0.645,2.2492e-05,0
0.6455,1.8967e-05,0
0.646,1.6785e-05,0
0.6465,1.7456e-05,0
0.647,1.9638e-05,0
0.6475,2.1149e-05,0
0.648,2.0478e-05,0
0.6485,1.8967e-05,0
0.649,1.8296e-05,0
0.6495,1.8296e-05,0
0.65,1.796e-05,0
0.6505,1.7624e-05,0
0.651,1.6953e-05,0
0.6515,1.4435e-05,0
0.652,1.2253e-05,0
0.6525,1.326e-05,0
0.653,1.3932e-05,0
0.6535,1.3596e-05,0
0.654,1.561e-05,0
0.6545,1.8296e-05,0
0.655,2.1653e-05,0
0.6555,2.5345e-05,0
0.656,2.6017e-05,0
0.6565,2.2492e-05,0
0.657,1.6953e-05,0
0.6575,1.2924e-05,0
0.658,1.1917e-05,0
0.6585,1.2253e-05,0
0.659,1.2924e-05,0
0.6595,1.3764e-05,0
0.66,1.5274e-05,0
0.6605,1.6785e-05,0
0.661,1.9303e-05,0
0.6615,2.1317e-05,0
0.662,2.266e-05,0
0.6625,2.4674e-05,0
0.663,2.5177e-05,0
0.6635,2.4002e-05,0
0.664,2.4002e-05,0
0.6645,2.3667e-05,0
0.665,2.0981e-05,0
0.6655,1.9303e-05,0
0.666,1.9638e-05,0
0.6665,2.031e-05,0
0.667,1.9806e-05,0
0.6675,1.9806e-05,0
0.668,2.0478e-05,0
0.6685,2.2828e-05,0
0.669,2.5009e-05,0
0.6695,2.6017e-05,0
0.67,2.7024e-05,0
0.6705,2.6017e-05,0
0.671,2.1317e-05,0
0.6715,1.7792e-05,0
0.672,1.7624e-05,0
0.6725,1.9303e-05,0
0.673,1.9806e-05,0
0.6735,1.9974e-05,0
0.674,2.1317e-05,0
0.6745,2.2995e-05,0
0.675,2.3163e-05,0
0.6755,2.1988e-05,0
0.676,2.0646e-05,0
0.6765,2.0478e-05,0
0.677,2.0813e-05,0
0.6775,1.8631e-05,0
0.678,1.6449e-05,0
0.6785,1.8128e-05,0
0.679,1.9974e-05,0
0.6795,2.1149e-05,0
0.68,2.2324e-05,0
0.6805,2.3667e-05,0
0.681,2.4842e-05,0
0.6815,2.7192e-05,0
0.682,2.9709e-05,0
0.6825,3.0213e-05,0
0.683,2.7695e-05,0
0.6835,2.5009e-05,0
0.684,2.5009e-05,0
0.6845,2.652e-05,0
0.685,2.4002e-05,0
0.6855,1.8967e-05,0
0.686,1.326e-05,0
0.6865,8.7282e-06,0
0.687,6.0426e-06,0
0.6875,7.0497e-06,0
0.688,9.0639e-06,0
0.6885,1.0575e-05,0
0.689,9.5674e-06,0
0.6895,7.5532e-06,0
0.69,7.8889e-06,0
0.6905,1.0071e-05,0
0.691,1.091e-05,0
0.6915,8.896e-06,0
0.692,9.5674e-06,0
0.6925,1.326e-05,0
0.693,1.796e-05,0
0.6935,2.0478e-05,0
0.694,2.1317e-05,0
0.6945,2.266e-05,0
0.695,2.3331e-05,0
0.6955,2.266e-05,0
0.696,2.1653e-05,0
0.6965,2.0142e-05,0
0.697,1.9806e-05,0
0.6975,2.0981e-05,0
0.698,2.3163e-05,0
0.6985,2.5849e-05,0
0.699,2.6688e-05,0
0.6995,2.5681e-05,0
0.7,2.4002e-05,0
0.7005,2.3331e-05,0
0.701,2.4674e-05,0
0.7015,2.5681e-05,0
0.702,2.6352e-05,0
0.7025,2.6352e-05,0
0.703,2.6688e-05,0
0.7035,2.6017e-05,0
0.704,2.1317e-05,0
0.7045,1.6953e-05,0
0.705,1.326e-05,0
0.7055,1.1246e-05,0
0.706,1.1078e-05,0
0.7065,1.3092e-05,0
0.707,1.5106e-05,0
0.7075,1.8631e-05,0
0.708,1.8967e-05,0
0.7085,1.5106e-05,0
0.709,1.1917e-05,0
0.7095,1.4939e-05,0
0.71,2.031e-05,0
0.7105,2.2324e-05,0
0.711,2.266e-05,0
0.7115,2.266e-05,0
0.712,2.4002e-05,0
0.7125,2.4002e-05,0
0.713,2.266e-05,0
0.7135,2.2156e-05,0
0.714,2.2156e-05,0
0.7145,2.2492e-05,0
0.715,2.2995e-05,0
0.7155,2.1988e-05,0
0.716,2.4338e-05,0
0.7165,2.8031e-05,0
0.717,2.8031e-05,0
0.7175,2.652e-05,0
0.718,2.5849e-05,0
0.7185,2.6688e-05,0
0.719,2.8367e-05,0
0.7195,2.7695e-05,0
0.72,2.5009e-05,0
0.7205,2.3499e-05,0
0.721,2.1317e-05,0
0.7215,1.8128e-05,0
0.722,1.796e-05,0
0.7225,1.9806e-05,0
0.723,1.8967e-05,0
0.7235,1.6617e-05,0
0.724,1.326e-05,0
0.7245,1.1582e-05,0
0.725,1.1917e-05,0
0.7255,1.326e-05,0
0.726,1.5778e-05,0
0.7265,1.8463e-05,0
0.727,2.031e-05,0
0.7275,2.2324e-05,0
0.728,2.2492e-05,0
0.7285,2.031e-05,0
0.729,1.9638e-05,0
0.7295,2.0478e-05,0
0.73,1.9303e-05,0
0.7305,1.9638e-05,0
0.731,2.0646e-05,0
0.7315,2.1317e-05,0
0.732,2.1317e-05,0
0.7325,2.1317e-05,0
0.733,2.3163e-05,0
0.7335,2.7695e-05,0
0.734,2.8702e-05,0
0.7345,2.7024e-05,0
0.735,2.5345e-05,0
0.7355,2.4506e-05,0
0.736,2.4506e-05,0
0.7365,2.3331e-05,0
0.737,2.1317e-05,0
0.7375,2.031e-05,0
0.738,1.9974e-05,0
0.7385,2.0646e-05,0
0.739,1.9974e-05,0
0.7395,2.1988e-05,0
0.74,2.3667e-05,0
0.7405,2.5345e-05,0
0.741,2.7527e-05,0
0.7415,2.6017e-05,0
0.742,2.266e-05,0
0.7425,2.1317e-05,0
0.743,2.1149e-05,0
0.7435,1.9135e-05,0
0.744,1.5274e-05,0
0.7445,1.3092e-05,0
0.745,1.3932e-05,0
0.7455,1.4939e-05,0
0.746,1.561e-05,0
0.7465,1.7288e-05,0
0.747,1.5946e-05,0
0.7475,1.561e-05,0
0.748,1.8463e-05,0
0.7485,2.2492e-05,0
0.749,2.5681e-05,0
0.7495,2.6184e-05,0
0.75,2.5849e-05,0
0.7505,2.6688e-05,0
0.751,2.9709e-05,0
0.7515,3.3234e-05,0
0.752,3.6088e-05,0
0.7525,3.4745e-05,0
0.753,2.9709e-05,0
0.7535,2.5849e-05,0
0.754,2.2995e-05,0
0.7545,1.9638e-05,0
0.755,1.6617e-05,0
0.7555,1.5778e-05,0
0.756,1.6953e-05,0
0.7565,1.6953e-05,0
0.757,1.3932e-05,0
0.7575,1.2421e-05,0
0.758,1.3596e-05,0
0.7585,1.4435e-05,0
0.759,1.2589e-05,0
0.7595,1.1917e-05,0
0.76,1.5946e-05,0
0.7605,1.9135e-05,0
0.761,1.6281e-05,0
0.7615,1.1246e-05,0
0.762,8.7282e-06,0
0.7625,1.0575e-05,0
0.763,1.326e-05,0
0.7635,1.326e-05,0
0.764,1.1582e-05,0
0.7645,1.326e-05,0
0.765,1.6449e-05,0
0.7655,1.8631e-05,0
0.766,1.9638e-05,0
0.7665,1.8631e-05,0
0.767,1.6617e-05,0
0.7675,1.6953e-05,0
0.768,1.9303e-05,0
0.7685,2.0981e-05,0
0.769,2.1317e-05,0
0.7695,2.1317e-05,0
0.77,2.2324e-05,0
0.7705,2.4002e-05,0
0.771,2.6688e-05,0
0.7715,2.9709e-05,0
0.772,3.1388e-05,0
0.7725,3.0381e-05,0
0.773,2.8702e-05,0
0.7735,2.6017e-05,0
0.774,2.1149e-05,0
0.7745,1.5106e-05,0
0.775,1.1749e-05,0
0.7755,1.4603e-05,0
0.776,1.9638e-05,0
0.7765,2.3499e-05,0
0.777,2.5177e-05,0
0.7775,2.5345e-05,0
0.778,2.4506e-05,0
0.7785,2.4002e-05,0
0.779,2.4674e-05,0
0.7795,2.3667e-05,0
0.78,2.2156e-05,0
0.7805,2.266e-05,0
0.781,2.3499e-05,0
0.7815,2.2995e-05,0
0.782,2.1988e-05,0
0.7825,2.2324e-05,0
0.783,2.266e-05,0
0.7835,2.0142e-05,0
0.784,1.6281e-05,0
0.7845,1.4267e-05,0
0.785,1.5274e-05,0
0.7855,1.796e-05,0
0.786,2.0813e-05,0
0.7865,2.266e-05,0
0.787,2.3667e-05,0
0.7875,2.4338e-05,0
0.788,2.2995e-05,0
0.7885,1.8967e-05,0
0.789,1.5274e-05,0
0.7895,1.4603e-05,0
0.79,1.561e-05,0
0.7905,1.7624e-05,0
0.791,1.8967e-05,0
0.7915,1.9303e-05,0
0.792,2.1149e-05,0
0.7925,2.2156e-05,0
0.793,2.1317e-05,0
0.7935,2.1317e-05,0
0.794,2.0813e-05,0
0.7945,2.0646e-05,0
0.795,1.9974e-05,0
0.7955,2.0813e-05,0
0.796,2.3667e-05,0
0.7965,2.5177e-05,0
0.797,2.3331e-05,0
0.7975,1.7456e-05,0
0.798,1.0742e-05,0
0.7985,4.1962e-06,0
0.799,-1.6785e-06,0
0.7995,-5.7069e-06,0
0.8,-4.5319e-06,0
0.8005,-1.678e-07,0
0.801,4.6998e-06,0
0.8015,9.9031e-06,0
0.802,1.4603e-05,0
0.8025,1.8296e-05,0
0.803,1.8631e-05,0
0.8035,1.9806e-05,0
0.804,2.266e-05,0
0.8045,2.6017e-05,0
0.805,2.8534e-05,0
0.8055,3.0716e-05,0
0.806,3.0716e-05,0
0.8065,3.1891e-05,0
0.807,3.2059e-05,0
0.8075,2.9877e-05,0
0.808,2.7863e-05,0
0.8085,2.7359e-05,0
0.809,2.7359e-05,0
0.8095,2.6017e-05,0
0.81,2.3667e-05,0
0.8105,1.9806e-05,0
0.811,1.4603e-05,0
0.8115,9.5674e-06,0
0.812,5.2033e-06,0
0.8125,2.5177e-06,0
0.813,2.6856e-06,0
0.8135,6.5461e-06,0
0.814,1.4267e-05,0
0.8145,2.1317e-05,0
0.815,2.4674e-05,0
0.8155,2.7695e-05,0
0.816,3.0213e-05,0
0.8165,3.0381e-05,0
0.817,2.9374e-05,0
0.8175,2.9374e-05,0
0.818,2.9877e-05,0
0.8185,3.0045e-05,0
0.819,3.0549e-05,0
0.8195,3.1724e-05,0
0.82,3.2059e-05,0
0.8205,2.9542e-05,0
0.821,2.4842e-05,0
0.8215,2.2995e-05,0
0.822,2.182e-05,0
0.8225,1.796e-05,0
0.823,1.4939e-05,0
0.8235,1.326e-05,0
0.824,1.4603e-05,0
0.8245,1.7288e-05,0
0.825,1.7288e-05,0
0.8255,1.326e-05,0
0.826,8.896e-06,0
0.8265,6.2104e-06,0
0.827,5.8747e-06,0
0.8275,8.5603e-06,0
0.828,1.3092e-05,0
0.8285,1.6617e-05,0
0.829,1.6617e-05,0
0.8295,1.6617e-05,0
0.83,1.8296e-05,0
0.8305,1.9974e-05,0
0.831,2.0646e-05,0
0.8315,2.1149e-05,0
0.832,2.3331e-05,0
0.8325,2.5681e-05,0
0.833,2.7695e-05,0
0.8335,2.9038e-05,0
0.834,2.8031e-05,0
0.8345,2.652e-05,0
0.835,2.7192e-05,0
0.8355,2.9206e-05,0
0.836,3.0884e-05,0
0.8365,3.2059e-05,0
0.837,3.1052e-05,0
0.8375,2.7527e-05,0
0.838,2.4842e-05,0
0.8385,2.1988e-05,0
0.839,2.0646e-05,0
0.8395,2.0981e-05,0
0.84,2.2324e-05,0
0.8405,2.0981e-05,0
0.841,1.561e-05,0
0.8415,9.7353e-06,0
0.842,6.8818e-06,0
0.8425,8.2246e-06,0
0.843,1.2421e-05,0
0.8435,1.5946e-05,0
0.844,1.6953e-05,0
0.8445,1.6617e-05,0
0.845,1.3764e-05,0
0.8455,9.9031e-06,0
0.846,6.8818e-06,0
0.8465,4.5319e-06,0
0.847,3.1891e-06,0
0.8475,6.2104e-06,0
0.848,1.1246e-05,0
0.8485,1.6281e-05,0
0.849,1.9303e-05,0
0.8495,2.1317e-05,0
0.85,2.1317e-05,0
0.8505,2.0646e-05,0
0.851,1.9974e-05,0
0.8515,2.1653e-05,0
0.852,2.4002e-05,0
0.8525,2.5345e-05,0
0.853,2.6017e-05,0
0.8535,2.8031e-05,0
0.854,3.1388e-05,0
0.8545,3.3402e-05,0
0.855,3.1724e-05,0
0.8555,3.0381e-05,0
0.856,3.0381e-05,0
0.8565,3.0716e-05,0
0.857,3.2059e-05,0
0.8575,3.2395e-05,0
0.858,3.0716e-05,0
0.8585,2.7527e-05,0
0.859,2.3499e-05,0
0.8595,1.8967e-05,0
0.86,1.5274e-05,0
0.8605,1.6953e-05,0
0.861,1.8631e-05,0
0.8615,1.5274e-05,0
0.862,1.1917e-05,0
0.8625,1.0575e-05,0
0.863,1.1917e-05,0
0.8635,1.5274e-05,0
0.864,1.7624e-05,0
0.8645,2.0478e-05,0
0.865,2.3835e-05,0
0.8655,2.5345e-05,0
0.866,2.1988e-05,0
0.8665,1.8128e-05,0
0.867,1.8128e-05,0
0.8675,2.0646e-05,0
0.868,2.2492e-05,0
0.8685,2.3331e-05,0
0.869,2.2492e-05,0
0.8695,1.9638e-05,0
0.87,1.6617e-05,0
0.8705,1.2924e-05,0
0.871,9.9031e-06,0
0.8715,8.2246e-06,0
0.872,7.2175e-06,0
0.8725,7.8889e-06,0
0.873,1.0575e-05,0
0.8735,1.4939e-05,0
0.874,1.9974e-05,0
0.8745,2.1653e-05,0
0.875,2.182e-05,0
0.8755,2.2995e-05,0
0.876,2.5345e-05,0
0.8765,2.8031e-05,0
0.877,2.9374e-05,0
0.8775,2.8534e-05,0
0.878,2.6688e-05,0
0.8785,2.4002e-05,0
0.879,2.2324e-05,0
0.8795,2.1317e-05,0
0.88,2.1988e-05,0
0.8805,2.4002e-05,0
0.881,2.5849e-05,0
0.8815,2.5849e-05,0
0.882,2.4674e-05,0
0.8825,2.3331e-05,0
0.883,2.1317e-05,0
0.8835,2.0981e-05,0
0.884,2.3667e-05,0
0.8845,2.4674e-05,0
0.885,2.2828e-05,0
0.8855,2.1988e-05,0
0.886,2.2492e-05,0
0.8865,2.0981e-05,0
0.887,1.947e-05,0
0.8875,1.9974e-05,0
0.888,2.3667e-05,0
0.8885,2.5681e-05,0
0.889,2.7024e-05,0
0.8895,3.0381e-05,0
0.89,3.3402e-05,0
0.8905,3.3066e-05,0
0.891,3.0549e-05,0
0.8915,2.6352e-05,0
0.892,2.1988e-05,0
0.8925,1.8967e-05,0
0.893,1.8463e-05,0
0.8935,2.0813e-05,0
0.894,2.1988e-05,0
0.8945,2.1988e-05,0
0.895,1.8799e-05,0
0.8955,1.326e-05,0
0.896,9.5674e-06,0
0.8965,8.2246e-06,0
0.897,6.2104e-06,0
0.8975,4.5319e-06,0
0.898,6.8818e-06,0
0.8985,1.1246e-05,0
0.899,1.5274e-05,0
0.8995,2.031e-05,0
0.9,2.5009e-05,0
0.9005,2.9374e-05,0
0.901,3.1556e-05,0
0.9015,2.9374e-05,0
0.902,2.4002e-05,0
0.9025,2.0646e-05,0
0.903,1.561e-05,0
0.9035,8.896e-06,0
0.904,3.8605e-06,0
0.9045,3.8605e-06,0
0.905,7.7211e-06,0
0.9055,1.1246e-05,0
0.906,1.1246e-05,0
0.9065,1.0575e-05,0
0.907,1.1078e-05,0
0.9075,1.2253e-05,0
0.908,1.5946e-05,0
0.9085,1.8631e-05,0
0.909,1.7288e-05,0
0.9095,1.5946e-05,0
0.91,1.6785e-05,0
0.9105,1.9638e-05,0
0.911,2.3835e-05,0
0.9115,2.6352e-05,0
0.912,2.5513e-05,0
0.9125,2.3835e-05,0
0.913,2.2492e-05,0
0.9135,2.2156e-05,0
0.914,2.3667e-05,0
0.9145,2.5345e-05,0
0.915,2.7359e-05,0
0.9155,3.0381e-05,0
0.916,2.9374e-05,0
0.9165,2.652e-05,0
0.917,2.5345e-05,0
0.9175,2.4002e-05,0
0.918,2.1317e-05,0
0.9185,1.8967e-05,0
0.919,1.6617e-05,0
0.9195,1.796e-05,0
0.92,2.1317e-05,0
0.9205,2.1653e-05,0
0.921,2.031e-05,0
0.9215,2.1317e-05,0
0.922,2.3667e-05,0
0.9225,2.6017e-05,0
0.923,2.7359e-05,0
0.9235,2.6688e-05,0
0.924,2.5009e-05,0
0.9245,2.031e-05,0
0.925,1.6953e-05,0
0.9255,1.6449e-05,0
0.926,1.6617e-05,0
0.9265,1.5274e-05,0
0.927,1.326e-05,0
0.9275,1.0575e-05,0
0.928,9.2317e-06,0
0.9285,8.5603e-06,0
0.929,8.3925e-06,0
0.9295,8.5603e-06,0
0.93,1.0239e-05,0
0.9305,1.326e-05,0
0.931,1.561e-05,0
0.9315,1.5274e-05,0
0.932,1.4603e-05,0
0.9325,1.6281e-05,0
0.933,1.8631e-05,0
0.9335,2.0142e-05,0
0.934,2.2324e-05,0
0.9345,2.3331e-05,0
0.935,2.1988e-05,0
0.9355,2.0142e-05,0
0.936,1.9806e-05,0
0.9365,1.9135e-05,0
0.937,2.1317e-05,0
0.9375,2.6017e-05,0
0.938,2.8031e-05,0
0.9385,2.8367e-05,0
0.939,2.9038e-05,0
0.9395,2.9038e-05,0
0.94,2.9542e-05,0
0.9405,3.122e-05,0
0.941,3.2395e-05,0
0.9415,3.2059e-05,0
0.942,3.0716e-05,0
0.9425,3.1388e-05,0
0.943,3.3738e-05,0
0.9435,3.3402e-05,0
0.944,3.0213e-05,0
0.9445,2.8031e-05,0
0.945,2.7359e-05,0
0.9455,2.6688e-05,0
0.946,2.4002e-05,0
0.9465,1.8967e-05,0
0.947,1.2924e-05,0
0.9475,6.5461e-06,0
0.948,2.8534e-06,0
0.9485,1.1749e-06,0
0.949,-3.357e-07,0
0.9495,0,0
0.95,1.5106e-06,0
0.9505,1.6785e-06,0
0.951,0,0
0.9515,-1.5106e-06,0
0.952,6.714e-07,0
0.9525,7.3854e-06,0
0.953,1.561e-05,0
0.9535,1.9638e-05,0
0.954,2.0981e-05,0
0.9545,2.3667e-05,0
0.955,2.5177e-05,0
0.9555,2.3499e-05,0
0.956,1.9974e-05,0
0.9565,1.8799e-05,0
0.957,2.2995e-05,0
0.9575,2.7359e-05,0
0.958,3.0045e-05,0
0.9585,3.1556e-05,0
0.959,3.1388e-05,0
0.9595,2.6352e-05,0
0.96,1.9303e-05,0
0.9605,1.3092e-05,0
0.961,8.2246e-06,0
0.9615,7.0497e-06,0
0.962,9.5674e-06,0
0.9625,1.4099e-05,0
0.963,1.8296e-05,0
0.9635,2.031e-05,0
0.964,2.182e-05,0
0.9645,2.4002e-05,0
0.965,2.7024e-05,0
0.9655,3.0045e-05,0
0.966,3.2059e-05,0
0.9665,3.2395e-05,0
0.967,3.2563e-05,0
0.9675,3.2059e-05,0
0.968,2.8031e-05,0
0.9685,2.5849e-05,0
0.969,2.4674e-05,0
0.9695,2.2995e-05,0
0.97,2.0646e-05,0
0.9705,2.031e-05,0
0.971,2.3163e-05,0
0.9715,2.5345e-05,0
0.972,2.6017e-05,0
0.9725,2.5345e-05,0
0.973,2.4002e-05,0
0.9735,2.3499e-05,0
0.974,2.2324e-05,0
0.9745,2.1653e-05,0
0.975,2.266e-05,0
0.9755,2.5177e-05,0
0.976,2.9206e-05,0
0.9765,3.2059e-05,0
0.977,3.2059e-05,0
0.9775,3.2395e-05,0
0.978,3.1724e-05,0
0.9785,2.8199e-05,0
0.979,2.5345e-05,0
0.9795,2.1653e-05,0
0.98,1.6953e-05,0
0.9805,1.4267e-05,0
0.981,1.1917e-05,0
0.9815,9.2317e-06,0
0.982,8.2246e-06,0
0.9825,8.3925e-06,0
0.983,7.8889e-06,0
0.9835,6.714e-06,0
0.984,5.2033e-06,0
0.9845,2.182e-06,0
0.985,1.6785e-06,0
0.9855,5.2033e-06,0
0.986,1.0239e-05,0
0.9865,1.2589e-05,0
0.987,1.3596e-05,0
0.9875,1.6449e-05,0
0.988,1.9303e-05,0
0.9885,2.031e-05,0
0.989,2.1149e-05,0
0.9895,2.2324e-05,0
0.99,2.266e-05,0
0.9905,2.3331e-05,0
0.991,2.3331e-05,0
0.9915,2.3331e-05,0
0.992,2.1988e-05,0
0.9925,2.0478e-05,0
0.993,2.1988e-05,0
0.9935,2.5009e-05,0
0.994,2.652e-05,0
0.9945,2.7359e-05,0
0.995,2.7359e-05,0
0.9955,2.8702e-05,0
0.996,2.9206e-05,0
0.9965,2.7695e-05,0
0.997,2.6352e-05,0
0.9975,2.4338e-05,0
0.998,2.2492e-05,0
0.9985,2.0981e-05,0
0.999,1.9303e-05,0
0.9995,1.947e-05,0
1,2.182e-05,0
1.0005,2.4002e-05,0
1.001,2.5009e-05,0
1.0015,2.4002e-05,0
1.002,2.1653e-05,0
1.0025,1.6953e-05,0
1.003,1.326e-05,0
1.0035,1.2924e-05,0
1.004,1.4603e-05,0
1.0045,1.561e-05,0
1.005,1.7792e-05,0
1.0055,2.1988e-05,0
1.006,2.4506e-05,0
1.0065,2.4842e-05,0
1.007,2.3667e-05,0
1.0075,2.182e-05,0
1.008,2.2828e-05,0
1.0085,2.6017e-05,0
1.009,2.9709e-05,0
1.0095,3.2898e-05,0
1.01,3.4241e-05,0
1.0105,3.3066e-05,0
1.011,3.2059e-05,0
1.0115,3.1388e-05,0
1.012,2.9374e-05,0
1.0125,2.4002e-05,0
1.013,1.9303e-05,0
1.0135,1.6953e-05,0
1.014,1.4771e-05,0
1.0145,1.1246e-05,0
1.015,5.8747e-06,0
1.0155,5.035e-07,0
1.016,-2.0142e-06,0
1.0165,1.0071e-06,0
1.017,6.3783e-06,0
1.0175,1.0575e-05,0
1.018,1.4603e-05,0
1.0185,1.8296e-05,0
1.019,2.0646e-05,0
1.0195,2.2995e-05,0
1.02,2.1988e-05,0
1.0205,1.8296e-05,0
1.021,1.4603e-05,0
1.0215,1.1078e-05,0
1.022,9.3996e-06,0
1.0225,1.1246e-05,0
1.023,1.5946e-05,0
1.0235,2.031e-05,0
1.024,2.2995e-05,0
1.0245,2.5177e-05,0
1.025,2.6688e-05,0
1.0255,2.7527e-05,0
1.026,2.7359e-05,0
1.0265,2.8031e-05,0
1.027,2.9206e-05,0
1.0275,2.9038e-05,0
1.028,2.7695e-05,0
1.0285,2.6017e-05,0
1.029,2.4338e-05,0
1.0295,2.266e-05,0
1.03,1.8296e-05,0
1.0305,1.1917e-05,0
1.031,8.5603e-06,0
1.0315,9.9031e-06,0
1.032,1.326e-05,0
1.0325,1.6449e-05,0
1.033,1.8296e-05,0
1.0335,1.9303e-05,0
1.034,2.1317e-05,0
1.0345,2.2995e-05,0
1.035,2.4002e-05,0
1.0355,2.4506e-05,0
1.036,2.3331e-05,0
1.0365,2.1317e-05,0
1.037,1.9806e-05,0
1.0375,1.947e-05,0
1.038,2.1653e-05,0
1.0385,2.2995e-05,0
1.039,2.0813e-05,0
1.0395,1.796e-05,0
1.04,1.796e-05,0
1.0405,2.031e-05,0
1.041,2.031e-05,0
1.0415,1.7624e-05,0
1.042,1.4603e-05,0
1.0425,1.5946e-05,0
1.043,1.7792e-05,0
1.0435,1.6617e-05,0
1.044,1.4267e-05,0
1.0445,1.1917e-05,0
1.045,1.091e-05,0
1.0455,1.3596e-05,0
1.046,1.5946e-05,0
1.0465,1.5274e-05,0
1.047,1.5106e-05,0
1.0475,1.7624e-05,0
1.048,2.0981e-05,0
1.0485,2.3331e-05,0
1.049,2.4002e-05,0
1.0495,2.4674e-05,0
1.05,2.7863e-05,0
1.0505,3.2059e-05,0
1.051,3.2059e-05,0
1.0515,2.7863e-05,0
1.052,2.2324e-05,0
1.0525,1.9638e-05,0
1.053,1.9638e-05,0
1.0535,1.9974e-05,0
1.054,1.9974e-05,0
1.0545,1.9638e-05,0
1.055,1.7792e-05,0
1.0555,1.5778e-05,0
1.056,1.6785e-05,0
1.0565,2.0646e-05,0
1.057,2.4338e-05,0
1.0575,2.5849e-05,0
1.058,2.6688e-05,0
1.0585,2.8031e-05,0
1.059,3.0045e-05,0
1.0595,3.0381e-05,0
1.06,3.1724e-05,0
1.0605,3.2898e-05,0
1.061,3.3234e-05,0
1.0615,3.357e-05,0
1.062,3.4409e-05,0
1.0625,3.0716e-05,0
1.063,2.5009e-05,0
1.0635,1.8296e-05,0
1.064,1.3932e-05,0
1.0645,1.2253e-05,0
1.065,1.1582e-05,0
1.0655,1.1749e-05,0
1.066,1.1749e-05,0
1.0665,1.2085e-05,0
1.067,1.3596e-05,0
1.0675,1.5946e-05,0
1.068,1.7456e-05,0
1.0685,1.8967e-05,0
1.069,1.9303e-05,0
1.0695,2.1317e-05,0
1.07,2.4674e-05,0
1.0705,2.6017e-05,0
1.071,2.5345e-05,0
1.0715,2.4674e-05,0
1.072,2.3499e-05,0
1.0725,2.1317e-05,0
1.073,1.6953e-05,0
1.0735,1.0239e-05,0
1.074,4.5319e-06,0
1.0745,0,0
1.075,-1.0071e-06,0
1.0755,3.1891e-06,0
1.076,9.0639e-06,0
1.0765,1.4939e-05,0
1.077,1.8967e-05,0
1.0775,1.9303e-05,0
1.078,1.9806e-05,0
1.0785,2.1988e-05,0
1.079,2.4338e-05,0
1.0795,2.4506e-05,0
1.08,2.3499e-05,0
1.0805,2.3835e-05,0
1.081,2.4338e-05,0
1.0815,2.4338e-05,0
1.082,2.2995e-05,0
1.0825,2.266e-05,0
1.083,2.266e-05,0
1.0835,2.0478e-05,0
1.084,1.7624e-05,0
1.0845,1.7792e-05,0
1.085,1.9974e-05,0
1.0855,2.182e-05,0
1.086,2.3667e-05,0
1.0865,2.4338e-05,0
1.087,2.3667e-05,0
1.0875,2.1317e-05,0
1.088,1.6785e-05,0
1.0885,1.2924e-05,0
1.089,1.2757e-05,0
1.0895,1.4603e-05,0
1.09,1.7288e-05,0
1.0905,1.796e-05,0
1.091,1.7288e-05,0
1.0915,1.9303e-05,0
1.092,2.2492e-05,0
1.0925,2.652e-05,0
1.093,2.8367e-05,0
1.0935,2.652e-05,0
1.094,2.4002e-05,0
1.0945,2.5177e-05,0
1.095,2.7192e-05,0
1.0955,2.7359e-05,0
1.096,2.6017e-05,0
1.0965,2.266e-05,0
1.097,1.6953e-05,0
1.0975,1.326e-05,0
1.098,1.0575e-05,0
1.0985,8.3925e-06,0
1.099,7.7211e-06,0
1.0995,1.0575e-05,0
1.1,1.561e-05,0
1.1005,1.6617e-05,0
1.101,1.5778e-05,0
1.1015,1.5946e-05,0
1.102,1.7288e-05,0
1.1025,1.7624e-05,0
1.103,1.6953e-05,0
1.1035,1.8128e-05,0
1.104,2.1653e-05,0
1.1045,2.4002e-05,0
1.105,2.5345e-05,0
1.1055,2.7527e-05,0
1.106,2.8702e-05,0
1.1065,2.887e-05,0
1.107,2.7192e-05,0
1.1075,2.6017e-05,0
1.108,2.6017e-05,0
1.1085,2.3163e-05,0
1.109,1.9135e-05,0
1.1095,1.796e-05,0
1.11,1.9806e-05,0
1.1105,2.0981e-05,0
1.111,2.1149e-05,0
1.1115,2.2324e-05,0
1.112,2.4506e-05,0
1.1125,2.5009e-05,0
1.113,2.3667e-05,0
1.1135,2.3835e-05,0
1.114,2.4674e-05,0
1.1145,2.4674e-05,0
1.115,2.5681e-05,0
1.1155,2.6184e-05,0
1.116,2.5345e-05,0
1.1165,2.3331e-05,0
1.117,2.1988e-05,0
1.1175,2.0981e-05,0
1.118,1.796e-05,0
1.1185,1.3932e-05,0
1.119,1.2589e-05,0
1.1195,1.1917e-05,0
1.12,1.1917e-05,0
1.1205,1.4099e-05,0
1.121,1.5274e-05,0
1.1215,1.5946e-05,0
1.122,1.6617e-05,0
1.1225,1.6785e-05,0
1.123,1.6281e-05,0
1.1235,1.5778e-05,0
1.124,1.6785e-05,0
1.1245,1.9638e-05,0
1.125,2.3331e-05,0
1.1255,2.4674e-05,0
1.126,2.266e-05,0
1.1265,1.9638e-05,0
1.127,1.8296e-05,0
1.1275,1.9974e-05,0
1.128,2.2492e-05,0
1.1285,2.3667e-05,0
1.129,2.2324e-05,0
1.1295,2.0981e-05,0
1.13,1.9638e-05,0
1.1305,1.8296e-05,0
1.131,1.7624e-05,0
1.1315,1.7624e-05,0
1.132,1.8631e-05,0
1.1325,1.9806e-05,0
1.133,2.182e-05,0
1.1335,2.5009e-05,0
1.134,2.6184e-05,0
1.1345,2.652e-05,0
1.135,2.887e-05,0
1.1355,3.0045e-05,0
1.136,2.8534e-05,0
1.1365,2.5009e-05,0
1.137,2.1149e-05,0
1.1375,1.8128e-05,0
1.138,1.6449e-05,0
1.1385,1.4939e-05,0
1.139,1.3932e-05,0
1.1395,1.4939e-05,0
1.14,1.8967e-05,0
1.1405,2.2324e-05,0
1.141,2.3163e-05,0
1.1415,2.2324e-05,0
1.142,2.1988e-05,0
1.1425,2.1988e-05,0
1.143,2.1317e-05,0
1.1435,1.9974e-05,0
1.144,1.9974e-05,0
1.1445,2.2324e-05,0
1.145,2.6352e-05,0
1.1455,2.9374e-05,0
1.146,2.8031e-05,0
1.1465,2.6352e-05,0
1.147,2.4002e-05,0
1.1475,2.1317e-05,0
1.148,2.0981e-05,0
1.1485,2.1317e-05,0
1.149,2.0981e-05,0
1.1495,1.9638e-05,0
1.15,1.796e-05,0
1.1505,1.8128e-05,0
1.151,1.9135e-05,0
1.1515,1.9806e-05,0
1.152,2.0478e-05,0
1.1525,2.2828e-05,0
1.153,2.7024e-05,0
1.1535,2.8702e-05,0
1.154,2.8031e-05,0
1.1545,2.5345e-05,0
1.155,2.3499e-05,0
1.1555,2.266e-05,0
1.156,1.9974e-05,0
1.1565,1.7121e-05,0
1.157,1.2589e-05,0
1.1575,6.3783e-06,0
1.158,1.8463e-06,0
1.1585,8.392e-07,0
1.159,3.1891e-06,0
1.1595,5.2033e-06,0
1.16,7.5532e-06,0
1.1605,1.0239e-05,0
1.161,1.326e-05,0
1.1615,1.5946e-05,0
1.162,1.6449e-05,0
1.1625,1.7288e-05,0
1.163,1.8296e-05,0
1.1635,1.8128e-05,0
1.164,1.7456e-05,0
1.1645,1.7288e-05,0
1.165,1.796e-05,0
1.1655,1.8631e-05,0
1.166,1.796e-05,0
1.1665,1.6617e-05,0
1.167,1.6617e-05,0
1.1675,1.6281e-05,0
1.168,1.6617e-05,0
1.1685,1.8631e-05,0
1.169,2.0478e-05,0
1.1695,2.1653e-05,0
1.17,2.4674e-05,0
1.1705,2.6688e-05,0
1.171,2.7192e-05,0
1.1715,2.5345e-05,0
1.172,2.2492e-05,0
1.1725,2.0478e-05,0
1.173,2.031e-05,0
1.1735,2.1317e-05,0
1.174,2.3163e-05,0
1.1745,2.4002e-05,0
1.175,2.2995e-05,0
1.1755,2.1317e-05,0
1.176,1.8296e-05,0
1.1765,1.5946e-05,0
1.177,1.5946e-05,0
1.1775,1.7624e-05,0
1.178,1.9638e-05,0
1.1785,2.182e-05,0
1.179,2.3163e-05,0
1.1795,2.0646e-05,0
1.18,1.5778e-05,0
1.1805,1.1582e-05,0
1.181,9.7353e-06,0
1.1815,1.2757e-05,0
1.182,1.7288e-05,0
1.1825,1.9135e-05,0
1.183,2.1317e-05,0
1.1835,2.4002e-05,0
1.184,2.6017e-05,0
1.1845,2.6017e-05,0
1.185,2.3835e-05,0
1.1855,2.1653e-05,0
1.186,2.1988e-05,0
1.1865,2.4506e-05,0
1.187,2.7192e-05,0
1.1875,2.7863e-05,0
1.188,2.7863e-05,0
1.1885,3.0045e-05,0
1.189,3.0716e-05,0
1.1895,2.6688e-05,0
1.19,2.0478e-05,0
1.1905,1.6449e-05,0
1.191,1.5946e-05,0
1.1915,1.7121e-05,0
1.192,1.8967e-05,0
1.1925,2.1317e-05,0
1.193,2.2156e-05,0
1.1935,2.1317e-05,0
1.194,2.1988e-05,0
1.1945,2.4002e-05,0
1.195,2.5009e-05,0
1.1955,2.4842e-05,0
1.196,2.5345e-05,0
1.1965,2.5345e-05,0
1.197,2.3667e-05,0
1.1975,2.3667e-05,0
1.198,2.5849e-05,0
1.1985,2.7863e-05,0
1.199,2.8534e-05,0
1.1995,2.9038e-05,0
1.2,2.7359e-05,0
1.2005,2.4674e-05,0
1.201,2.2828e-05,0
1.2015,2.1988e-05,0
1.202,1.9806e-05,0
1.2025,1.5106e-05,0
1.203,1.1917e-05,0
1.2035,1.1246e-05,0
1.204,8.3925e-06,0
1.2045,3.6927e-06,0
1.205,-5.035e-07,0
1.2055,-1.1749e-06,0
1.206,8.392e-07,0
1.2065,3.1891e-06,0
1.207,7.0497e-06,0
1.2075,1.091e-05,0
1.208,1.4603e-05,0
1.2085,1.7792e-05,0
1.209,1.9303e-05,0
1.2095,1.9638e-05,0
1.21,2.0478e-05,0
1.2105,2.2156e-05,0
1.211,2.4338e-05,0
1.2115,2.5009e-05,0
1.212,2.3835e-05,0
1.2125,2.5009e-05,0
1.213,2.8199e-05,0
1.2135,3.0884e-05,0
1.214,3.2059e-05,0
1.2145,3.3066e-05,0
1.215,3.2395e-05,0
1.2155,2.9877e-05,0
1.216,2.7863e-05,0
1.2165,2.652e-05,0
1.217,2.5345e-05,0
1.2175,2.4338e-05,0
1.218,2.3163e-05,0
1.2185,2.031e-05,0
1.219,1.8631e-05,0
1.2195,1.7624e-05,0
1.22,1.7288e-05,0
1.2205,1.796e-05,0
1.221,1.8463e-05,0
1.2215,1.796e-05,0
1.222,1.5946e-05,0
1.2225,1.326e-05,0
1.223,1.1917e-05,0
1.2235,1.1917e-05,0
1.224,1.3092e-05,0
1.2245,1.4435e-05,0
1.225,1.2924e-05,0
1.2255,1.1246e-05,0
1.226,1.2924e-05,0
1.2265,1.6449e-05,0
1.227,2.031e-05,0
1.2275,2.3667e-05,0
1.228,2.4002e-05,0
1.2285,2.2828e-05,0
1.229,2.266e-05,0
1.2295,2.2995e-05,0
1.23,2.266e-05,0
1.2305,2.031e-05,0
1.231,1.5778e-05,0
1.2315,1.3764e-05,0
1.232,1.3932e-05,0
1.2325,1.4435e-05,0
1.233,1.5946e-05,0
1.2335,1.9303e-05,0
1.234,2.1988e-05,0
1.2345,2.1653e-05,0
1.235,2.0646e-05,0
1.2355,2.031e-05,0
1.236,1.9974e-05,0
1.2365,1.9974e-05,0
1.237,2.0478e-05,0
1.2375,2.1317e-05,0
1.238,2.2156e-05,0
1.2385,2.0981e-05,0
1.239,1.9303e-05,0
1.2395,1.9974e-05,0
1.24,2.1988e-05,0
1.2405,2.182e-05,0
1.241,2.031e-05,0
1.2415,1.8296e-05,0
1.242,1.6617e-05,0
1.2425,1.7792e-05,0
1.243,2.031e-05,0
1.2435,2.2492e-05,0
1.244,2.4002e-05,0
1.2445,2.6352e-05,0
1.245,2.8702e-05,0
1.2455,2.7695e-05,0
1.246,2.5345e-05,0
1.2465,2.5345e-05,0
1.247,2.7359e-05,0
1.2475,2.6688e-05,0
1.248,2.4674e-05,0
1.2485,2.5177e-05,0
1.249,2.8534e-05,0
1.2495,3.1556e-05,0
1.25,3.0381e-05,0
1.2505,3.1388e-05,0
1.251,3.3234e-05,0
1.2515,3.3906e-05,0
1.252,3.4073e-05,0
1.2525,3.3738e-05,0
1.253,3.3066e-05,0
1.2535,3.2731e-05,0
1.254,2.8367e-05,0
1.2545,2.1317e-05,0
1.255,1.561e-05,0
1.2555,1.1917e-05,0
1.256,1.0239e-05,0
1.2565,1.0575e-05,0
1.257,1.1917e-05,0
1.2575,1.1246e-05,0
1.258,1.1246e-05,0
1.2585,1.1078e-05,0
1.259,1.0575e-05,0
1.2595,8.5603e-06,0
1.26,7.2175e-06,0
1.2605,7.2175e-06,0
1.261,7.8889e-06,0
1.2615,8.5603e-06,0
1.262,8.2246e-06,0
1.2625,7.7211e-06,0
1.263,6.5461e-06,0
1.2635,5.539e-06,0
1.264,7.2175e-06,0
1.2645,1.1917e-05,0
1.265,1.8128e-05,0
1.2655,2.266e-05,0
1.266,2.5177e-05,0
1.2665,2.7359e-05,0
1.267,2.8534e-05,0
1.2675,2.9038e-05,0
1.268,3.0716e-05,0
1.2685,3.0045e-05,0
1.269,2.887e-05,0
1.2695,2.8702e-05,0
1.27,2.9877e-05,0
1.2705,2.9374e-05,0
1.271,2.652e-05,0
1.2715,2.2324e-05,0
1.272,1.8631e-05,0
1.2725,1.561e-05,0
1.273,1.3932e-05,0
1.2735,1.5946e-05,0
1.274,1.9303e-05,0
1.2745,1.8296e-05,0
1.275,1.4267e-05,0
1.2755,1.0742e-05,0
1.276,9.0639e-06,0
1.2765,8.7282e-06,0
1.277,7.7211e-06,0
1.2775,5.539e-06,0
1.278,4.6998e-06,0
1.2785,5.2033e-06,0
1.279,8.3925e-06,0
1.2795,1.3092e-05,0
1.28,1.4435e-05,0
1.2805,1.3596e-05,0
1.281,1.5946e-05,0
1.2815,1.8799e-05,0
1.282,2.0981e-05,0
1.2825,2.1653e-05,0
1.283,2.266e-05,0
1.2835,2.2995e-05,0
1.284,2.2324e-05,0
1.2845,2.2828e-05,0
1.285,2.4842e-05,0
1.2855,2.7024e-05,0
1.286,2.9877e-05,0
1.2865,3.0716e-05,0
1.287,2.9374e-05,0
1.2875,2.8534e-05,0
1.288,2.9206e-05,0
1.2885,3.0213e-05,0
1.289,2.9374e-05,0
1.2895,2.6688e-05,0
1.29,2.5345e-05,0
1.2905,2.7695e-05,0
1.291,3.1556e-05,0
1.2915,3.2898e-05,0
1.292,3.0884e-05,0
1.2925,2.9709e-05,0
1.293,2.8031e-05,0
1.2935,2.5513e-05,0
1.294,2.2324e-05,0
1.2945,2.1149e-05,0
1.295,2.0981e-05,0
1.2955,1.9303e-05,0
1.296,1.8463e-05,0
1.2965,1.9135e-05,0
1.297,1.8128e-05,0
1.2975,1.561e-05,0
1.298,1.2253e-05,0
1.2985,1.1078e-05,0
1.299,1.1582e-05,0
1.2995,1.1246e-05,0
1.3,1.1582e-05,0
1.3005,1.4267e-05,0
1.301,1.8296e-05,0
1.3015,1.947e-05,0
1.302,1.8296e-05,0
1.3025,1.8631e-05,0
1.303,1.9303e-05,0
1.3035,1.9974e-05,0
1.304,2.1653e-05,0
1.3045,2.1988e-05,0
1.305,2.1317e-05,0
1.3055,2.3499e-05,0
1.306,2.6352e-05,0
1.3065,2.8031e-05,0
1.307,3.0213e-05,0
1.3075,3.1388e-05,0
1.308,2.9877e-05,0
1.3085,2.6017e-05,0
1.309,2.1317e-05,0
1.3095,1.6617e-05,0
1.31,1.4603e-05,0
1.3105,1.5106e-05,0
1.311,1.4267e-05,0
1.3115,1.4267e-05,0
1.312,1.3932e-05,0
1.3125,1.4267e-05,0
1.313,1.4603e-05,0
1.3135,1.6617e-05,0
1.314,1.9974e-05,0
1.3145,2.1988e-05,0
1.315,2.1317e-05,0
1.3155,2.031e-05,0
1.316,2.0813e-05,0
1.3165,2.2995e-05,0
1.317,2.6017e-05,0
1.3175,2.8031e-05,0
1.318,2.8031e-05,0
1.3185,2.8367e-05,0
1.319,2.6688e-05,0
1.3195,2.3331e-05,0
1.32,2.1317e-05,0
1.3205,2.0646e-05,0
1.321,2.0478e-05,0
1.3215,2.0646e-05,0
1.322,2.0813e-05,0
1.3225,1.8631e-05,0
1.323,1.6281e-05,0
1.3235,1.6785e-05,0
1.324,1.9303e-05,0
1.3245,2.1653e-05,0
1.325,2.182e-05,0
1.3255,2.0646e-05,0
1.326,1.7792e-05,0
1.3265,1.326e-05,0
1.327,7.8889e-06,0
1.3275,7.0497e-06,0
1.328,1.0575e-05,0
1.3285,1.5442e-05,0
1.329,1.8631e-05,0
1.3295,1.9806e-05,0
1.33,2.0478e-05,0
1.3305,1.9806e-05,0
1.331,1.7624e-05,0
1.3315,1.7288e-05,0
1.332,1.9974e-05,0
1.3325,2.2995e-05,0
1.333,2.4002e-05,0
1.3335,2.3667e-05,0
1.334,2.3331e-05,0
1.3345,2.2156e-05,0
1.335,2.0981e-05,0
1.3355,1.9974e-05,0
1.336,2.1317e-05,0
1.3365,2.2156e-05,0
1.337,1.9974e-05,0
1.3375,1.8799e-05,0
1.338,1.9303e-05,0
1.3385,1.9303e-05,0
1.339,1.8631e-05,0
1.3395,1.8631e-05,0
1.34,1.9303e-05,0
1.3405,1.9974e-05,0
1.341,2.1317e-05,0
1.3415,2.266e-05,0
1.342,2.2324e-05,0
1.3425,2.2492e-05,0
1.343,2.266e-05,0
1.3435,2.0981e-05,0
1.344,2.1317e-05,0
1.3445,2.4674e-05,0
1.345,2.7863e-05,0
1.3455,3.122e-05,0
1.346,3.357e-05,0
1.3465,3.3402e-05,0
1.347,3.1388e-05,0
1.3475,2.7359e-05,0
1.348,2.1988e-05,0
1.3485,1.5946e-05,0
1.349,1.2253e-05,0
1.3495,1.0071e-05,0
1.35,8.896e-06,0
1.3505,8.7282e-06,0
1.351,9.7353e-06,0
1.3515,1.0575e-05,0
1.352,1.1749e-05,0
1.3525,1.0575e-05,0
1.353,9.7353e-06,0
1.3535,1.1582e-05,0
1.354,1.326e-05,0
1.3545,1.4267e-05,0
1.355,1.5946e-05,0
1.3555,1.8631e-05,0
1.356,2.1988e-05,0
1.3565,2.266e-05,0
1.357,2.031e-05,0
1.3575,1.8128e-05,0
1.358,1.7121e-05,0
1.3585,1.7288e-05,0
1.359,1.9974e-05,0
1.3595,2.3499e-05,0
1.36,2.4506e-05,0
1.3605,2.3163e-05,0
1.361,2.266e-05,0
1.3615,2.6352e-05,0
1.362,3.0045e-05,0
1.3625,3.2395e-05,0
1.363,3.2395e-05,0
1.3635,3.122e-05,0
1.364,2.9709e-05,0
1.3645,2.8199e-05,0
1.365,2.4338e-05,0
1.3655,1.7624e-05,0
1.366,1.0071e-05,0
1.3665,2.8534e-06,0
1.367,-2.8534e-06,0
1.3675,-4.8676e-06,0
1.368,-3.0213e-06,0
1.3685,1.6785e-06,0
1.369,6.5461e-06,0
1.3695,1.0407e-05,0
1.37,1.5946e-05,0
1.3705,2.1317e-05,0
1.371,2.4674e-05,0
1.3715,2.5849e-05,0
1.372,2.7695e-05,0
1.3725,2.9374e-05,0
1.373,2.9709e-05,0
1.3735,2.9374e-05,0
1.374,2.8702e-05,0
1.3745,2.9206e-05,0
1.375,2.8534e-05,0
1.3755,2.8702e-05,0
1.376,2.9038e-05,0
1.3765,2.7695e-05,0
1.377,2.6184e-05,0
1.3775,2.652e-05,0
1.378,2.7024e-05,0
1.3785,2.8031e-05,0
1.379,3.0381e-05,0
1.3795,2.9374e-05,0
1.38,2.7359e-05,0
1.3805,2.7192e-05,0
1.381,2.6688e-05,0
1.3815,2.6017e-05,0
1.382,2.5009e-05,0
1.3825,2.4002e-05,0
1.383,2.2995e-05,0
1.3835,2.1988e-05,0
1.384,2.182e-05,0
1.3845,2.3667e-05,0
1.385,2.6017e-05,0
1.3855,2.6688e-05,0
1.386,2.6017e-05,0
1.3865,2.3499e-05,0
1.387,1.9806e-05,0
1.3875,1.7792e-05,0
1.388,1.6953e-05,0
1.3885,1.796e-05,0
1.389,1.9974e-05,0
1.3895,2.0646e-05,0
1.39,1.8463e-05,0
1.3905,1.4603e-05,0
1.391,1.1246e-05,0
1.3915,7.2175e-06,0
1.392,3.8605e-06,0
1.3925,4.5319e-06,0
1.393,6.3783e-06,0
1.3935,6.8818e-06,0
1.394,5.2033e-06,0
1.3945,4.3641e-06,0
1.395,4.8676e-06,0
1.3955,8.2246e-06,0
1.396,1.4099e-05,0
1.3965,2.1149e-05,0
1.397,2.4674e-05,0
1.3975,2.3835e-05,0
1.398,2.4674e-05,0
1.3985,2.7695e-05,0
1.399,2.9709e-05,0
1.3995,3.1388e-05,0
1.4,3.4409e-05,0
1.4005,3.6423e-05,0
1.401,3.7766e-05,0
1.4015,3.9109e-05,0
1.402,3.8102e-05,0
1.4025,3.2731e-05,0
1.403,2.4506e-05,0
1.4035,1.8296e-05,0
1.404,1.3932e-05,0
1.4045,1.2589e-05,0
1.405,1.5106e-05,0
1.4055,1.7121e-05,0
1.406,1.6449e-05,0
1.4065,1.4267e-05,0
1.407,1.0575e-05,0
1.4075,9.2317e-06,0
1.408,1.2757e-05,0
1.4085,1.4939e-05,0
1.409,1.4603e-05,0
1.4095,1.3764e-05,0
1.41,1.4435e-05,0
1.4105,1.5946e-05,0
1.411,1.8967e-05,0
1.4115,2.0478e-05,0
1.412,2.1653e-05,0
1.4125,2.1149e-05,0
1.413,2.0646e-05,0
1.4135,2.2492e-05,0
1.414,2.3667e-05,0
1.4145,2.2828e-05,0
1.415,2.1653e-05,0
1.4155,2.1653e-05,0
1.416,2.266e-05,0
1.4165,2.4002e-05,0
1.417,2.5345e-05,0
1.4175,2.6688e-05,0
1.418,2.9206e-05,0
1.4185,3.2059e-05,0
1.419,3.2395e-05,0
1.4195,3.1724e-05,0
1.42,3.0716e-05,0
1.4205,2.7192e-05,0
1.421,2.4338e-05,0
1.4215,2.3499e-05,0
1.422,2.266e-05,0
1.4225,2.0646e-05,0
1.423,1.6953e-05,0
1.4235,1.3764e-05,0
1.424,1.1414e-05,0
1.4245,7.8889e-06,0
1.425,3.5248e-06,0
1.4255,2.182e-06,0
1.426,3.8605e-06,0
1.4265,5.7069e-06,0
1.427,6.5461e-06,0
1.4275,8.3925e-06,0
1.428,1.1246e-05,0
1.4285,1.3932e-05,0
1.429,1.6449e-05,0
1.4295,1.8631e-05,0
1.43,1.9638e-05,0
1.4305,1.9974e-05,0
1.431,2.0646e-05,0
1.4315,2.1653e-05,0
1.432,2.182e-05,0
1.4325,2.0981e-05,0
1.433,2.0142e-05,0
1.4335,1.9638e-05,0
1.434,1.9974e-05,0
1.4345,2.0646e-05,0
1.435,1.9638e-05,0
1.4355,1.6617e-05,0
1.436,9.7353e-06,0
1.4365,3.8605e-06,0
1.437,2.5177e-06,0
1.4375,7.2175e-06,0
1.438,1.326e-05,0
1.4385,1.796e-05,0
1.439,2.0478e-05,0
1.4395,2.2324e-05,0
1.44,2.3163e-05,0
1.4405,2.5177e-05,0
1.441,2.6017e-05,0
1.4415,2.5849e-05,0
1.442,2.6688e-05,0
1.4425,2.8031e-05,0
1.443,2.7359e-05,0
1.4435,2.5009e-05,0
1.444,2.4002e-05,0
1.4445,2.5345e-05,0
1.445,2.5345e-05,0
1.4455,2.4506e-05,0
1.446,2.4002e-05,0
1.4465,2.4002e-05,0
1.447,2.5009e-05,0
1.4475,2.6352e-05,0
1.448,2.5345e-05,0
1.4485,2.2828e-05,0
1.449,2.182e-05,0
1.4495,2.2324e-05,0
1.45,2.3667e-05,0
1.4505,2.3667e-05,0
1.451,2.266e-05,0
1.4515,2.3331e-05,0
1.452,2.4002e-05,0
1.4525,2.3331e-05,0
1.453,2.1317e-05,0
1.4535,1.8463e-05,0
1.454,1.4603e-05,0
1.4545,1.3596e-05,0
1.455,1.5274e-05,0
1.4555,1.7624e-05,0
1.456,1.9638e-05,0
1.4565,2.266e-05,0
1.457,2.3499e-05,0
1.4575,2.1988e-05,0
1.458,2.2492e-05,0
1.4585,2.4002e-05,0
1.459,2.4002e-05,0
1.4595,2.0813e-05,0
1.46,1.5106e-05,0
1.4605,1.1246e-05,0
1.461,9.9031e-06,0
1.4615,9.5674e-06,0
1.462,9.2317e-06,0
1.4625,8.896e-06,0
1.463,1.0575e-05,0
1.4635,1.3596e-05,0
1.464,1.5778e-05,0
1.4645,1.7288e-05,0
1.465,2.0646e-05,0
1.4655,2.5681e-05,0
1.466,2.9374e-05,0
1.4665,3.0716e-05,0
1.467,2.9374e-05,0
1.4675,2.9206e-05,0
1.468,3.0381e-05,0
1.4685,3.1724e-05,0
1.469,3.1891e-05,0
1.4695,3.1556e-05,0
1.47,2.9877e-05,0
1.4705,2.6184e-05,0
1.471,1.9806e-05,0
1.4715,9.9031e-06,0
1.472,8.392e-07,0
1.4725,-3.8605e-06,0
1.473,-2.182e-06,0
1.4735,3.8605e-06,0
1.474,9.2317e-06,0
1.4745,1.2589e-05,0
1.475,1.4267e-05,0
1.4755,1.4267e-05,0
1.476,1.4267e-05,0
1.4765,1.5946e-05,0
1.477,1.9638e-05,0
1.4775,2.3331e-05,0
1.478,2.5681e-05,0
1.4785,2.8031e-05,0
1.479,2.8031e-05,0
1.4795,2.8534e-05,0
1.48,2.8367e-05,0
1.4805,2.7863e-05,0
1.481,2.7359e-05,0
1.4815,2.5345e-05,0
1.482,2.2828e-05,0
1.4825,2.1988e-05,0
1.483,2.2324e-05,0
1.4835,2.5009e-05,0
1.484,2.7695e-05,0
1.4845,2.8367e-05,0
1.485,2.5681e-05,0
1.4855,2.031e-05,0
1.486,1.7288e-05,0
1.4865,1.6785e-05,0
1.487,1.6785e-05,0
1.4875,1.6114e-05,0
1.488,1.4603e-05,0
1.4885,1.3092e-05,0
1.489,1.5946e-05,0
1.4895,2.0981e-05,0
1.49,2.2324e-05,0
1.4905,2.2828e-05,0
1.491,2.4674e-05,0
1.4915,2.6352e-05,0
1.492,2.5681e-05,0
1.4925,2.4842e-05,0
1.493,2.3331e-05,0
1.4935,2.0646e-05,0
1.494,1.9974e-05,0
1.4945,2.266e-05,0
1.495,2.5849e-05,0
1.4955,2.7695e-05,0
1.496,2.9709e-05,0
1.4965,3.0381e-05,0
1.497,3.0381e-05,0
1.4975,3.2059e-05,0
1.498,3.1724e-05,0
1.4985,2.8031e-05,0
1.499,2.6017e-05,0
1.4995,2.5681e-05,0
1.5,2.5177e-05,0
1.5005,2.6017e-05,0
1.501,2.652e-05,0
1.5015,2.4002e-05,0
1.502,2.0142e-05,0
1.5025,1.7288e-05,0
1.503,1.7288e-05,0
1.5035,1.561e-05,0
1.504,1.2589e-05,0
1.5045,1.1582e-05,0
1.505,1.4603e-05,0
1.5055,1.9303e-05,0
1.506,2.266e-05,0
1.5065,2.5177e-05,0
1.507,2.8534e-05,0
1.5075,3.2059e-05,0
1.508,3.3738e-05,0
1.5085,3.3066e-05,0
1.509,3.3066e-05,0
1.5095,3.1724e-05,0
1.51,2.4674e-05,0
1.5105,1.6281e-05,0
1.511,1.1917e-05,0
1.5115,1.326e-05,0
1.512,1.4939e-05,0
1.5125,1.2757e-05,0
1.513,7.5532e-06,0
1.5135,1.5106e-06,0
1.514,-4.1962e-06,0
1.5145,-6.2104e-06,0
1.515,-3.0213e-06,0
1.5155,3.1891e-06,0
1.516,8.5603e-06,0
1.5165,1.1246e-05,0
1.517,1.1246e-05,0
1.5175,1.0575e-05,0
1.518,1.1917e-05,0
1.5185,1.5274e-05,0
1.519,1.8128e-05,0
1.5195,2.0142e-05,0
1.52,2.1653e-05,0
1.5205,2.3331e-05,0
1.521,2.4338e-05,0
1.5215,2.4338e-05,0
1.522,2.5681e-05,0
1.5225,2.6017e-05,0
1.523,2.5513e-05,0
1.5235,2.6352e-05,0
1.524,2.5849e-05,0
1.5245,2.6688e-05,0
1.525,2.8702e-05,0
1.5255,2.9374e-05,0
1.526,2.9374e-05,0
1.5265,2.9374e-05,0
1.527,2.7359e-05,0
1.5275,2.4506e-05,0
1.528,2.266e-05,0
1.5285,2.266e-05,0
1.529,2.266e-05,0
1.5295,2.2324e-05,0
1.53,2.3331e-05,0
1.5305,2.4842e-05,0
1.531,2.4842e-05,0
1.5315,2.1653e-05,0
1.532,1.8967e-05,0
1.5325,1.7121e-05,0
1.533,1.5778e-05,0
1.5335,1.4603e-05,0
1.534,1.1414e-05,0
1.5345,8.2246e-06,0
1.535,7.8889e-06,0
1.5355,8.7282e-06,0
1.536,4.8676e-06,0
1.5365,2.0142e-06,0
1.537,2.5177e-06,0
1.5375,9.2317e-06,0
1.538,1.9135e-05,0
1.5385,2.6017e-05,0
1.539,2.8031e-05,0
1.5395,2.7695e-05,0
1.54,2.5345e-05,0
1.5405,2.2995e-05,0
1.541,2.266e-05,0
1.5415,2.3163e-05,0
1.542,2.4842e-05,0
1.5425,2.4842e-05,0
1.543,2.2324e-05,0
1.5435,2.2324e-05,0
1.544,2.4842e-05,0
1.5445,2.4674e-05,0
1.545,2.266e-05,0
1.5455,2.1653e-05,0
1.546,2.1317e-05,0
1.5465,2.1988e-05,0
1.547,2.2324e-05,0
1.5475,2.2995e-05,0
1.548,2.4506e-05,0
1.5485,2.3331e-05,0
1.549,1.7288e-05,0
1.5495,1.2924e-05,0
1.55,1.3596e-05,0
1.5505,1.8296e-05,0
1.551,2.1988e-05,0
1.5515,2.3667e-05,0
1.552,2.4674e-05,0
1.5525,2.5345e-05,0
1.553,2.5681e-05,0
1.5535,2.6017e-05,0
1.554,2.5345e-05,0
1.5545,2.3667e-05,0
1.555,2.0646e-05,0
1.5555,1.6953e-05,0
1.556,1.5274e-05,0
1.5565,1.6617e-05,0
1.557,1.7288e-05,0
1.5575,1.5946e-05,0
1.558,1.3932e-05,0
1.5585,1.4939e-05,0
1.559,1.8296e-05,0
1.5595,2.2995e-05,0
1.56,2.7359e-05,0
1.5605,2.9374e-05,0
1.561,2.9877e-05,0
1.5615,2.9374e-05,0
1.562,2.8031e-05,0
1.5625,2.887e-05,0
1.563,2.8534e-05,0
1.5635,2.5345e-05,0
1.564,2.0478e-05,0
1.5645,1.3764e-05,0
1.565,6.3783e-06,0
1.5655,2.5177e-06,0
1.566,3.0213e-06,0
1.5665,4.1962e-06,0
1.567,7.2175e-06,0
1.5675,1.1917e-05,0
1.568,1.3764e-05,0
1.5685,1.2924e-05,0
1.569,1.0407e-05,0
1.5695,7.7211e-06,0
1.57,6.5461e-06,0
1.5705,8.896e-06,0
1.571,1.2253e-05,0
1.5715,1.4603e-05,0
1.572,1.8967e-05,0
1.5725,2.417e-05,0
1.573,2.8031e-05,0
1.5735,2.8702e-05,0
1.574,2.6352e-05,0
1.5745,2.4338e-05,0
1.575,2.4338e-05,0
1.5755,2.6352e-05,0
1.576,2.9038e-05,0
1.5765,2.9374e-05,0
1.577,2.8702e-05,0
1.5775,2.5513e-05,0
1.578,1.947e-05,0
1.5785,1.3932e-05,0
1.579,9.7353e-06,0
1.5795,7.8889e-06,0
1.58,1.0575e-05,0
1.5805,1.5274e-05,0
1.581,1.9303e-05,0
1.5815,2.2828e-05,0
1.582,2.7192e-05,0
1.5825,2.9206e-05,0
1.583,2.8031e-05,0
1.5835,2.652e-05,0
1.584,2.6352e-05,0
1.5845,2.8031e-05,0
1.585,3.0549e-05,0
1.5855,2.9374e-05,0
1.586,2.5009e-05,0
1.5865,2.0646e-05,0
1.587,1.8631e-05,0
1.5875,2.031e-05,0
1.588,2.3331e-05,0
1.5885,2.5513e-05,0
1.589,2.5345e-05,0
1.5895,2.4506e-05,0
1.59,2.5177e-05,0
1.5905,2.6017e-05,0
1.591,2.5345e-05,0
1.5915,2.5849e-05,0
1.592,2.8031e-05,0
1.5925,2.8367e-05,0
1.593,2.5345e-05,0
1.5935,2.182e-05,0
1.594,1.9303e-05,0
1.5945,1.8128e-05,0
1.595,1.8128e-05,0
1.5955,1.7624e-05,0
1.596,1.5946e-05,0
1.5965,1.5778e-05,0
1.597,1.947e-05,0
1.5975,2.4002e-05,0
1.598,2.7359e-05,0
1.5985,2.9877e-05,0
1.599,3.2059e-05,0
1.5995,3.3402e-05,0
1.6,3.2731e-05,0
1.6005,3.1556e-05,0
1.601,3.1388e-05,0
1.6015,3.1891e-05,0
1.602,3.2563e-05,0
1.6025,3.1891e-05,0
1.603,3.0045e-05,0
1.6035,2.5177e-05,0
1.604,1.7121e-05,0
1.6045,9.9031e-06,0
1.605,1.5106e-06,0
1.6055,-6.5461e-06,0
1.606,-8.3925e-06,0
1.6065,-3.5248e-06,0
1.607,3.357e-06,0
1.6075,8.2246e-06,0
1.608,8.896e-06,0
1.6085,7.3854e-06,0
1.609,8.7282e-06,0
1.6095,1.2589e-05,0
1.61,1.6281e-05,0
1.6105,1.7456e-05,0
1.611,1.5946e-05,0
1.6115,1.4939e-05,0
1.612,1.3932e-05,0
1.6125,1.4099e-05,0
1.613,1.4267e-05,0
1.6135,1.326e-05,0
1.614,1.326e-05,0
1.6145,1.6281e-05,0
1.615,1.7288e-05,0
1.6155,1.4435e-05,0
1.616,1.2589e-05,0
1.6165,1.1917e-05,0
1.617,1.5442e-05,0
1.6175,2.0646e-05,0
1.618,2.5345e-05,0
1.6185,2.9374e-05,0
1.619,3.1724e-05,0
1.6195,3.3234e-05,0
1.62,3.3402e-05,0
1.6205,3.2059e-05,0
1.621,3.1388e-05,0
1.6215,3.0045e-05,0
1.622,2.7359e-05,0
1.6225,2.7024e-05,0
1.623,2.8702e-05,0
1.6235,2.9374e-05,0
1.624,2.7024e-05,0
1.6245,2.0981e-05,0
1.625,1.561e-05,0
1.6255,1.3764e-05,0
1.626,1.3596e-05,0
1.6265,1.3596e-05,0
1.627,1.3764e-05,0
1.6275,1.3764e-05,0
1.628,1.3932e-05,0
1.6285,1.2589e-05,0
1.629,9.3996e-06,0
1.6295,6.8818e-06,0
1.63,7.3854e-06,0
1.6305,9.9031e-06,0
1.631,1.1246e-05,0
1.6315,1.3932e-05,0
1.632,1.7624e-05,0
1.6325,2.1317e-05,0
1.633,2.2995e-05,0
1.6335,2.2324e-05,0
1.634,2.2995e-05,0
1.6345,2.5009e-05,0
1.635,2.7695e-05,0
1.6355,2.9877e-05,0
1.636,3.0716e-05,0
1.6365,2.9374e-05,0
1.637,2.7359e-05,0
1.6375,2.6352e-05,0
1.638,2.5681e-05,0
1.6385,2.6017e-05,0
1.639,2.6352e-05,0
1.6395,2.5849e-05,0
1.64,2.4002e-05,0
1.6405,2.1988e-05,0
1.641,1.8631e-05,0
1.6415,1.561e-05,0
1.642,1.4435e-05,0
1.6425,1.4603e-05,0
1.643,1.5274e-05,0
1.6435,1.7792e-05,0
1.644,2.1317e-05,0
1.6445,2.2324e-05,0
1.645,1.9974e-05,0
1.6455,1.9135e-05,0
1.646,1.9638e-05,0
1.6465,1.9974e-05,0
1.647,2.0646e-05,0
1.6475,2.266e-05,0
1.648,2.3667e-05,0
1.6485,2.182e-05,0
1.649,1.796e-05,0
1.6495,1.561e-05,0
1.65,1.4603e-05,0
1.6505,1.4267e-05,0
1.651,1.4603e-05,0
1.6515,1.4771e-05,0
1.652,1.4267e-05,0
1.6525,1.2757e-05,0
1.653,1.0575e-05,0
1.6535,1.3764e-05,0
1.654,1.9303e-05,0
1.6545,2.1988e-05,0
1.655,2.266e-05,0
1.6555,2.4674e-05,0
1.656,2.6688e-05,0
1.6565,2.9374e-05,0
1.657,2.9877e-05,0
1.6575,2.8031e-05,0
1.658,2.6688e-05,0
1.6585,2.5009e-05,0
1.659,2.182e-05,0
1.6595,1.8967e-05,0
1.66,1.9974e-05,0
1.6605,2.3835e-05,0
1.661,2.6017e-05,0
1.6615,2.4002e-05,0
1.662,1.947e-05,0
1.6625,1.6953e-05,0
1.663,1.5946e-05,0
1.6635,1.6281e-05,0
1.664,1.5946e-05,0
1.6645,1.6281e-05,0
1.665,1.5946e-05,0
1.6655,1.326e-05,0
1.666,1.2085e-05,0
1.6665,1.4603e-05,0
1.667,1.7624e-05,0
1.6675,1.947e-05,0
1.668,1.9806e-05,0
1.6685,1.9974e-05,0
1.669,2.1317e-05,0
1.6695,2.1988e-05,0
1.67,2.0981e-05,0
1.6705,1.947e-05,0
1.671,1.947e-05,0
1.6715,2.266e-05,0
1.672,2.5345e-05,0
1.6725,2.5345e-05,0
1.673,2.6352e-05,0
1.6735,2.8367e-05,0
1.674,3.0381e-05,0
1.6745,3.1556e-05,0
1.675,3.0045e-05,0
1.6755,3.0045e-05,0
1.676,3.122e-05,0
1.6765,3.2059e-05,0
1.677,3.0549e-05,0
1.6775,2.5849e-05,0
1.678,2.182e-05,0
1.6785,2.1988e-05,0
1.679,2.4338e-05,0
1.6795,2.5345e-05,0
1.68,2.4506e-05,0
1.6805,2.3331e-05,0
1.681,2.3499e-05,0
1.6815,2.6352e-05,0
1.682,2.8031e-05,0
1.6825,2.7695e-05,0
1.683,2.7695e-05,0
1.6835,2.9709e-05,0
1.684,3.2731e-05,0
1.6845,3.5752e-05,0
1.685,3.6088e-05,0
1.6855,3.3402e-05,0
1.686,2.8367e-05,0
1.6865,2.0646e-05,0
1.687,1.1917e-05,0
1.6875,1.8463e-06,0
1.688,-6.8818e-06,0
1.6885,-1.2924e-05,0
1.689,-1.5778e-05,0
1.6895,-1.4939e-05,0
1.69,-1.2253e-05,0
1.6905,-9.0639e-06,0
1.691,-4.1962e-06,0
1.6915,1.3428e-06,0
1.692,5.539e-06,0
1.6925,9.2317e-06,0
1.693,1.0575e-05,0
1.6935,1.0071e-05,0
1.694,9.2317e-06,0
1.6945,1.1582e-05,0
1.695,1.4603e-05,0
1.6955,1.7288e-05,0
1.696,1.8631e-05,0
1.6965,1.8967e-05,0
1.697,1.9303e-05,0
1.6975,2.0142e-05,0
1.698,2.1317e-05,0
1.6985,2.2492e-05,0
1.699,2.4002e-05,0
1.6995,2.4842e-05,0
1.7,2.5681e-05,0
1.7005,2.7863e-05,0
1.701,3.0381e-05,0
1.7015,3.3738e-05,0
1.702,3.5416e-05,0
1.7025,3.508e-05,0
1.703,3.4409e-05,0
1.7035,3.2731e-05,0
1.704,3.2059e-05,0
1.7045,3.3402e-05,0
1.705,3.2563e-05,0
1.7055,2.9038e-05,0
1.706,2.4338e-05,0
1.7065,1.8463e-05,0
1.707,1.4603e-05,0
1.7075,1.1917e-05,0
1.708,7.0497e-06,0
1.7085,4.5319e-06,0
1.709,7.2175e-06,0
1.7095,1.3092e-05,0
1.71,1.7456e-05,0
1.7105,1.9303e-05,0
1.711,1.9974e-05,0
1.7115,2.0646e-05,0
1.712,2.3331e-05,0
1.7125,2.5009e-05,0
1.713,2.7527e-05,0
1.7135,3.0045e-05,0
1.714,3.0045e-05,0
1.7145,2.6856e-05,0
1.715,2.2995e-05,0
1.7155,2.266e-05,0
1.716,2.4674e-05,0
1.7165,2.5681e-05,0
1.717,2.7863e-05,0
1.7175,2.9709e-05,0
1.718,2.9038e-05,0
1.7185,2.7359e-05,0
1.719,2.5177e-05,0
1.7195,2.3331e-05,0
1.72,2.2324e-05,0
1.7205,2.1653e-05,0
1.721,1.9638e-05,0
1.7215,1.5274e-05,0
1.722,9.9031e-06,0
1.7225,9.0639e-06,0
1.723,1.2924e-05,0
1.7235,1.6617e-05,0
1.724,1.8631e-05,0
1.7245,1.9806e-05,0
1.725,1.9806e-05,0
1.7255,2.1988e-05,0
1.726,2.6017e-05,0
1.7265,3.0716e-05,0
1.727,3.2059e-05,0
1.7275,2.9206e-05,0
1.728,2.652e-05,0
1.7285,2.5681e-05,0
1.729,2.5009e-05,0
1.7295,2.4002e-05,0
1.73,2.4002e-05,0
1.7305,2.182e-05,0
1.731,1.6617e-05,0
1.7315,1.1749e-05,0
1.732,8.896e-06,0
1.7325,6.5461e-06,0
1.733,3.8605e-06,0
1.7335,-1.5106e-06,0
1.734,-5.7069e-06,0
1.7345,-5.2033e-06,0
1.735,-1.5106e-06,0
1.7355,3.8605e-06,0
1.736,8.896e-06,0
1.7365,1.1414e-05,0
1.737,1.326e-05,0
1.7375,1.4939e-05,0
1.738,1.5946e-05,0
1.7385,1.7288e-05,0
1.739,1.9974e-05,0
1.7395,2.2324e-05,0
1.74,2.2995e-05,0
1.7405,2.266e-05,0
1.741,2.2324e-05,0
1.7415,2.5513e-05,0
1.742,3.0045e-05,0
1.7425,3.3906e-05,0
1.743,3.4577e-05,0
1.7435,3.2395e-05,0
1.744,3.0549e-05,0
1.7445,3.0884e-05,0
1.745,3.4073e-05,0
1.7455,3.8437e-05,0
1.746,4.213e-05,0
1.7465,4.213e-05,0
1.747,4.1795e-05,0
1.7475,4.2802e-05,0
1.748,4.1795e-05,0
1.7485,3.6759e-05,0
1.749,2.9374e-05,0
1.7495,2.1149e-05,0
1.75,1.326e-05,0
1.7505,7.5532e-06,0
1.751,7.0497e-06,0
1.7515,1.1749e-05,0
1.752,1.8967e-05,0
1.7525,2.1988e-05,0
1.753,2.0981e-05,0
1.7535,1.8631e-05,0
1.754,1.561e-05,0
1.7545,1.2589e-05,0
1.755,1.1078e-05,0
1.7555,1.326e-05,0
1.756,1.7121e-05,0
1.7565,1.9303e-05,0
1.757,1.796e-05,0
1.7575,1.3932e-05,0
1.758,8.3925e-06,0
1.7585,3.357e-06,0
1.759,1.5106e-06,0
1.7595,-8.392e-07,0
1.76,-4.8676e-06,0
1.7605,-6.3783e-06,0
1.761,-6.2104e-06,0
1.7615,-3.5248e-06,0
1.762,2.182e-06,0
1.7625,4.8676e-06,0
1.763,4.1962e-06,0
1.7635,4.3641e-06,0
1.764,7.2175e-06,0
1.7645,1.1749e-05,0
1.765,1.6281e-05,0
1.7655,2.182e-05,0
1.766,2.6017e-05,0
1.7665,2.9374e-05,0
1.767,3.5416e-05,0
1.7675,3.9277e-05,0
1.768,3.7095e-05,0
1.7685,3.2731e-05,0
1.769,2.9374e-05,0
1.7695,2.6017e-05,0
1.77,2.4002e-05,0
1.7705,2.5345e-05,0
1.771,2.7192e-05,0
1.7715,2.7192e-05,0
1.772,2.7527e-05,0
1.7725,2.8702e-05,0
1.773,3.0381e-05,0
1.7735,3.1052e-05,0
1.774,2.9038e-05,0
1.7745,2.6688e-05,0
1.775,2.8031e-05,0
1.7755,3.2731e-05,0
1.776,3.6088e-05,0
1.7765,3.6759e-05,0
1.777,3.592e-05,0
1.7775,3.4073e-05,0
1.778,3.2059e-05,0
1.7785,2.9877e-05,0
1.779,2.5009e-05,0
1.7795,1.9638e-05,0
1.78,1.9638e-05,0
1.7805,2.4338e-05,0
1.781,2.8702e-05,0
1.7815,3.0213e-05,0
1.782,3.0045e-05,0
1.7825,2.8702e-05,0
1.783,3.0381e-05,0
1.7835,3.4745e-05,0
1.784,3.7095e-05,0
1.7845,3.6088e-05,0
1.785,3.508e-05,0
1.7855,3.4745e-05,0
1.786,3.1724e-05,0
1.7865,2.8702e-05,0
1.787,2.6017e-05,0
1.7875,2.4002e-05,0
1.788,2.5849e-05,0
1.7885,2.6688e-05,0
1.789,2.3331e-05,0
1.7895,1.8128e-05,0
1.79,1.4267e-05,0
1.7905,1.0239e-05,0
1.791,3.8605e-06,0
1.7915,-2.8534e-06,0
1.792,-7.5532e-06,0
1.7925,-7.8889e-06,0
1.793,-4.1962e-06,0
1.7935,1.6785e-06,0
1.794,5.539e-06,0
1.7945,7.2175e-06,0
1.795,9.7353e-06,0
1.7955,1.3092e-05,0
1.796,1.5274e-05,0
1.7965,1.9974e-05,0
1.797,2.6017e-05,0
1.7975,3.3066e-05,0
1.798,3.8437e-05,0
1.7985,4.0619e-05,0
1.799,4.2802e-05,0
1.7995,4.6662e-05,0
1.8,4.8676e-05,0
1.8005,4.8005e-05,0
1.801,4.6159e-05,0
1.8015,4.2802e-05,0
1.802,3.827e-05,0
1.8025,3.3738e-05,0
1.803,2.7192e-05,0
1.8035,1.6617e-05,0
1.804,3.8605e-06,0
1.8045,-5.3712e-06,0
1.805,-8.2246e-06,0
1.8055,-6.8818e-06,0
1.806,-8.2246e-06,0
1.8065,-9.5674e-06,0
1.807,-5.0355e-06,0
1.8075,-5.035e-07,0
1.808,1.1749e-06,0
1.8085,1.1749e-06,0
1.809,-5.035e-07,0
1.8095,-2.0142e-06,0
1.81,-2.8534e-06,0
1.8105,3.357e-07,0
1.811,9.5674e-06,0
1.8115,2.0478e-05,0
1.812,2.6688e-05,0
1.8125,2.8367e-05,0
1.813,2.6017e-05,0
1.8135,2.1317e-05,0
1.814,1.7288e-05,0
1.8145,1.1582e-05,0
1.815,6.3783e-06,0
1.8155,5.2033e-06,0
1.816,7.5532e-06,0
1.8165,1.0407e-05,0
1.817,1.2589e-05,0
1.8175,1.3932e-05,0
1.818,1.4267e-05,0
1.8185,1.1582e-05,0
1.819,7.7211e-06,0
1.8195,8.2246e-06,0
1.82,1.091e-05,0
1.8205,1.326e-05,0
1.821,1.4267e-05,0
1.8215,1.1414e-05,0
1.822,5.7069e-06,0
1.8225,3.5248e-06,0
1.823,5.539e-06,0
1.8235,9.2317e-06,0
1.824,1.1917e-05,0
1.8245,1.326e-05,0
1.825,1.3764e-05,0
1.8255,1.4099e-05,0
1.826,1.2589e-05,0
1.8265,1.091e-05,0
1.827,1.1414e-05,0
1.8275,1.6281e-05,0
1.828,2.3331e-05,0
1.8285,2.7359e-05,0
1.829,2.6688e-05,0
1.8295,2.5681e-05,0
1.83,2.7024e-05,0
1.8305,2.8702e-05,0
1.831,2.7359e-05,0
1.8315,2.5849e-05,0
1.832,2.7527e-05,0
1.8325,3.0381e-05,0
1.833,3.2563e-05,0
1.8335,3.1724e-05,0
1.834,2.6688e-05,0
1.8345,1.9638e-05,0
1.835,1.3596e-05,0
1.8355,1.4603e-05,0
1.836,1.9974e-05,0
1.8365,2.4674e-05,0
1.837,2.8031e-05,0
1.8375,3.2059e-05,0
1.838,3.4745e-05,0
1.8385,3.5752e-05,0
1.839,3.6423e-05,0
1.8395,3.743e-05,0
1.84,3.7598e-05,0
1.8405,3.5416e-05,0
1.841,3.1052e-05,0
1.8415,2.4674e-05,0
1.842,1.9806e-05,0
1.8425,2.2995e-05,0
1.843,2.9374e-05,0
1.8435,3.0045e-05,0
1.844,2.4338e-05,0
1.8445,1.8296e-05,0
1.845,1.796e-05,0
1.8455,2.1317e-05,0
1.846,2.3667e-05,0
1.8465,2.266e-05,0
1.847,1.8296e-05,0
1.8475,1.4603e-05,0
1.848,1.2421e-05,0
1.8485,1.091e-05,0
1.849,9.9031e-06,0
1.8495,1.1582e-05,0
1.85,1.4435e-05,0
1.8505,1.8296e-05,0
1.851,2.266e-05,0
1.8515,2.5345e-05,0
1.852,2.7863e-05,0
1.8525,3.0381e-05,0
1.853,3.2395e-05,0
1.8535,3.4409e-05,0
1.854,3.8437e-05,0
1.8545,4.2802e-05,0
1.855,4.3473e-05,0
1.8555,4.213e-05,0
1.856,3.8773e-05,0
1.8565,3.4577e-05,0
1.857,3.2059e-05,0
1.8575,2.8702e-05,0
1.858,2.7695e-05,0
1.8585,2.9206e-05,0
1.859,3.0213e-05,0
1.8595,2.9038e-05,0
1.86,2.652e-05,0
1.8605,2.3667e-05,0
1.861,2.0981e-05,0
1.8615,1.9974e-05,0
1.862,2.1653e-05,0
1.8625,2.3667e-05,0
1.863,2.6688e-05,0
1.8635,2.9374e-05,0
1.864,3.0381e-05,0
1.8645,2.9038e-05,0
1.865,2.5345e-05,0
1.8655,1.9974e-05,0
1.866,1.5274e-05,0
1.8665,1.2253e-05,0
1.867,1.0575e-05,0
1.8675,7.3854e-06,0
1.868,5.2033e-06,0
1.8685,5.2033e-06,0
1.869,6.8818e-06,0
1.8695,1.091e-05,0
1.87,1.7624e-05,0
1.8705,2.2324e-05,0
1.871,2.2324e-05,0
1.8715,1.9638e-05,0
1.872,1.7792e-05,0
1.8725,1.6953e-05,0
1.873,1.7456e-05,0
1.8735,1.7456e-05,0
1.874,1.6281e-05,0
1.8745,1.6785e-05,0
1.875,1.796e-05,0
1.8755,1.8631e-05,0
1.876,2.0813e-05,0
1.8765,1.9806e-05,0
1.877,1.6281e-05,0
1.8775,1.5274e-05,0
1.878,1.4939e-05,0
1.8785,1.2757e-05,0
1.879,1.2253e-05,0
1.8795,1.4939e-05,0
1.88,1.5442e-05,0
1.8805,1.0239e-05,0
1.881,2.8534e-06,0
1.8815,-2.5177e-06,0
1.882,-6.2104e-06,0
1.8825,-8.3925e-06,0
1.883,-8.2246e-06,0
1.8835,-4.5319e-06,0
1.884,-1.678e-07,0
1.8845,5.2033e-06,0
1.885,1.1246e-05,0
1.8855,1.6953e-05,0
1.886,2.0478e-05,0
1.8865,2.2156e-05,0
1.887,2.3163e-05,0
1.8875,2.6017e-05,0
1.888,3.1388e-05,0
1.8885,3.5752e-05,0
1.889,3.9445e-05,0
1.8895,4.1795e-05,0
1.89,3.9445e-05,0
1.8905,3.4073e-05,0
1.891,2.6688e-05,0
1.8915,2.0981e-05,0
1.892,1.7121e-05,0
1.8925,1.3092e-05,0
1.893,1.0071e-05,0
1.8935,8.7282e-06,0
1.894,7.2175e-06,0
1.8945,5.7069e-06,0
1.895,6.2104e-06,0
1.8955,1.0575e-05,0
1.896,1.5946e-05,0
1.8965,2.031e-05,0
1.897,2.5345e-05,0
1.8975,2.9038e-05,0
1.898,2.8702e-05,0
1.8985,2.6352e-05,0
1.899,2.5681e-05,0
1.8995,2.7695e-05,0
1.9,2.8031e-05,0
1.9005,2.8367e-05,0
1.901,2.6688e-05,0
1.9015,2.3163e-05,0
1.902,1.8631e-05,0
1.9025,1.2589e-05,0
1.903,7.2175e-06,0
1.9035,4.8676e-06,0
1.904,2.5177e-06,0
1.9045,2.3499e-06,0
1.905,4.1962e-06,0
1.9055,3.1891e-06,0
1.906,-2.182e-06,0
1.9065,-5.539e-06,0
1.907,-5.7069e-06,0
1.9075,-5.8747e-06,0
1.908,-2.6856e-06,0
1.9085,7.3854e-06,0
1.909,1.8296e-05,0
1.9095,2.266e-05,0
1.91,2.3163e-05,0
1.9105,2.4506e-05,0
1.911,2.6352e-05,0
1.9115,2.9709e-05,0
1.912,3.5584e-05,0
1.9125,4.2802e-05,0
1.913,4.7166e-05,0
1.9135,4.7501e-05,0
1.914,4.6159e-05,0
1.9145,4.5823e-05,0
1.915,4.6662e-05,0
1.9155,4.6159e-05,0
1.916,4.6494e-05,0
1.9165,4.7837e-05,0
1.917,4.9012e-05,0
1.9175,4.8005e-05,0
1.918,4.5823e-05,0
1.9185,4.2802e-05,0
1.919,3.4745e-05,0
1.9195,2.3331e-05,0
1.92,1.326e-05,0
1.9205,8.5603e-06,0
1.921,8.896e-06,0
1.9215,9.9031e-06,0
1.922,1.0575e-05,0
1.9225,1.2924e-05,0
1.923,1.7288e-05,0
1.9235,2.2156e-05,0
1.924,2.4674e-05,0
1.9245,2.266e-05,0
1.925,2.031e-05,0
1.9255,1.9638e-05,0
1.926,1.7624e-05,0
1.9265,1.6617e-05,0
1.927,1.7624e-05,0
1.9275,1.9974e-05,0
1.928,2.3835e-05,0
1.9285,2.5009e-05,0
1.929,2.4338e-05,0
1.9295,2.4002e-05,0
1.93,2.1317e-05,0
1.9305,1.9303e-05,0
1.931,1.8631e-05,0
1.9315,1.8631e-05,0
1.932,1.796e-05,0
1.9325,1.4603e-05,0
1.933,1.0239e-05,0
1.9335,6.0426e-06,0
1.934,3.5248e-06,0
1.9345,3.1891e-06,0
1.935,4.0284e-06,0
1.9355,7.5532e-06,0
1.936,1.1917e-05,0
1.9365,1.5274e-05,0
1.937,1.9303e-05,0
1.9375,2.3667e-05,0
1.938,2.8534e-05,0
1.9385,3.4073e-05,0
1.939,3.5752e-05,0
1.9395,3.2898e-05,0
1.94,3.1052e-05,0
1.9405,3.1388e-05,0
1.941,3.2059e-05,0
1.9415,3.0045e-05,0
1.942,2.7024e-05,0
1.9425,2.2324e-05,0
1.943,1.561e-05,0
1.9435,8.3925e-06,0
1.944,7.2175e-06,0
1.9445,9.7353e-06,0
1.945,1.2589e-05,0
1.9455,1.6449e-05,0
1.946,1.9303e-05,0
1.9465,1.947e-05,0
1.947,1.7792e-05,0
1.9475,1.4603e-05,0
1.948,1.2253e-05,0
1.9485,1.2589e-05,0
1.949,1.4939e-05,0
1.9495,1.7121e-05,0
1.95,1.796e-05,0
1.9505,1.796e-05,0
1.951,1.6953e-05,0
1.9515,1.7624e-05,0
1.952,2.031e-05,0
1.9525,2.3331e-05,0
1.953,2.5177e-05,0
1.9535,2.4674e-05,0
1.954,2.266e-05,0
1.9545,1.8967e-05,0
1.955,1.6953e-05,0
1.9555,1.8463e-05,0
1.956,2.2324e-05,0
1.9565,2.7359e-05,0
1.957,3.2059e-05,0
1.9575,3.5248e-05,0
1.958,3.4745e-05,0
1.9585,2.9206e-05,0
1.959,2.1988e-05,0
1.9595,1.9135e-05,0
1.96,1.8967e-05,0
1.9605,1.7624e-05,0
1.961,1.6953e-05,0
1.9615,1.6953e-05,0
1.962,1.4939e-05,0
1.9625,1.2924e-05,0
1.963,1.2085e-05,0
1.9635,1.4435e-05,0
1.964,1.7624e-05,0
1.9645,1.7288e-05,0
1.965,1.4939e-05,0
1.9655,1.2589e-05,0
1.966,8.7282e-06,0
1.9665,7.5532e-06,0
1.967,1.0407e-05,0
1.9675,1.1414e-05,0
1.968,8.896e-06,0
1.9685,5.539e-06,0
1.969,3.8605e-06,0
1.9695,5.3712e-06,0
1.97,7.7211e-06,0
1.9705,1.091e-05,0
1.971,1.5946e-05,0
1.9715,1.9974e-05,0
1.972,2.2995e-05,0
1.9725,2.5513e-05,0
1.973,2.6688e-05,0
1.9735,2.9374e-05,0
1.974,3.4073e-05,0
1.9745,3.5752e-05,0
1.975,3.1388e-05,0
1.9755,2.8031e-05,0
1.976,2.8367e-05,0
1.9765,2.8031e-05,0
1.977,2.3331e-05,0
1.9775,1.796e-05,0
1.978,1.5274e-05,0
1.9785,1.4603e-05,0
1.979,1.4603e-05,0
1.9795,1.3932e-05,0
1.98,1.3764e-05,0
1.9805,1.2589e-05,0
1.981,1.2589e-05,0
1.9815,1.7624e-05,0
1.982,2.5345e-05,0
1.9825,3.0549e-05,0
1.983,3.3402e-05,0
1.9835,3.4409e-05,0
1.984,3.357e-05,0
1.9845,3.2731e-05,0
1.985,3.3402e-05,0
1.9855,3.2563e-05,0
1.986,3.0716e-05,0
1.9865,2.7192e-05,0
1.987,2.2995e-05,0
1.9875,1.8463e-05,0
1.988,1.6281e-05,0
1.9885,1.5778e-05,0
1.989,1.3596e-05,0
1.9895,1.1414e-05,0
1.99,1.1414e-05,0
1.9905,1.2924e-05,0
1.991,1.7288e-05,0
1.9915,2.3667e-05,0
1.992,2.8367e-05,0
1.9925,3.1556e-05,0
1.993,3.0716e-05,0
1.9935,2.7695e-05,0
1.994,2.4002e-05,0
1.9945,1.8296e-05,0
1.995,1.2253e-05,0
1.9955,8.2246e-06,0
1.996,1.6785e-06,0
1.9965,-2.8534e-06,0
1.997,-1.5106e-06,0
1.9975,2.8534e-06,0
1.998,8.5603e-06,0
1.9985,1.3932e-05,0
1.999,1.8463e-05,0
1.9995,2.1317e-05,0
2,2.2324e-05,0
2.0005,2.266e-05,0
2.001,2.2324e-05,0
2.0015,1.6953e-05,0
2.002,1.1582e-05,0
2.0025,1.1749e-05,0
2.003,1.6449e-05,0
2.0035,2.2995e-05,0
2.004,2.7863e-05,0
2.0045,3.2731e-05,0
2.005,3.508e-05,0
2.0055,3.4577e-05,0
2.006,3.2059e-05,0
2.0065,2.7192e-05,0
2.007,2.5009e-05,0
2.0075,2.7695e-05,0
2.008,3.1724e-05,0
2.0085,3.2731e-05,0
2.009,3.2395e-05,0
2.0095,3.2563e-05,0
2.01,3.1724e-05,0
2.0105,2.8199e-05,0
2.011,2.4338e-05,0
2.0115,2.3667e-05,0
2.012,2.2324e-05,0
2.0125,2.1317e-05,0
2.013,2.1653e-05,0
2.0135,1.9303e-05,0
2.014,1.2253e-05,0
2.0145,2.5177e-06,0
2.015,-2.182e-06,0
2.0155,-8.392e-07,0
2.016,5.2033e-06,0
2.0165,1.0742e-05,0
2.017,1.326e-05,0
2.0175,1.6617e-05,0
2.018,2.2324e-05,0
2.0185,2.6017e-05,0
2.019,2.9374e-05,0
2.0195,3.0549e-05,0
2.02,2.6688e-05,0
2.0205,2.1653e-05,0
2.021,1.8128e-05,0
2.0215,1.8967e-05,0
2.022,2.1149e-05,0
2.0225,2.1317e-05,0
2.023,2.0981e-05,0
2.0235,2.0646e-05,0
2.024,1.9638e-05,0
2.0245,1.7792e-05,0
2.025,1.4939e-05,0
2.0255,1.4267e-05,0
2.026,1.6953e-05,0
2.0265,2.1988e-05,0
2.027,2.4338e-05,0
2.0275,1.947e-05,0
2.028,1.0407e-05,0
2.0285,1.1749e-06,0
2.029,-4.5319e-06,0
2.0295,-6.714e-06,0
2.03,-5.2033e-06,0
2.0305,1.1749e-06,0
2.031,7.8889e-06,0
2.0315,1.091e-05,0
2.032,1.0575e-05,0
2.0325,1.3092e-05,0
2.033,2.266e-05,0
2.0335,3.3906e-05,0
2.034,3.8102e-05,0
2.0345,3.4745e-05,0
2.035,3.0045e-05,0
2.0355,2.5681e-05,0
2.036,2.2492e-05,0
2.0365,2.266e-05,0
2.037,2.7359e-05,0
2.0375,3.1388e-05,0
2.038,2.9374e-05,0
2.0385,2.652e-05,0
2.039,2.9038e-05,0
2.0395,3.4577e-05,0
2.04,3.8773e-05,0
2.0405,3.8773e-05,0
2.041,3.8102e-05,0
2.0415,3.8102e-05,0
2.042,3.743e-05,0
2.0425,3.743e-05,0
2.043,3.8773e-05,0
2.0435,3.9277e-05,0
2.044,3.6759e-05,0
2.0445,3.2059e-05,0
2.045,2.7695e-05,0
2.0455,2.3163e-05,0
2.046,1.7792e-05,0
2.0465,1.2589e-05,0
2.047,1.1749e-05,0
2.0475,1.2924e-05,0
2.048,1.5778e-05,0
2.0485,2.031e-05,0
2.049,2.4002e-05,0
2.0495,2.5513e-05,0
2.05,2.3331e-05,0
2.0505,1.7624e-05,0
2.051,1.326e-05,0
2.0515,1.4771e-05,0
2.052,2.031e-05,0
2.0525,2.266e-05,0
2.053,2.031e-05,0
2.0535,1.5442e-05,0
2.054,9.2317e-06,0
2.0545,7.5532e-06,0
2.055,1.3764e-05,0
2.0555,2.0142e-05,0
2.056,1.9638e-05,0
2.0565,1.7288e-05,0
2.057,1.6953e-05,0
2.0575,1.7624e-05,0
2.058,1.4267e-05,0
2.0585,9.0639e-06,0
2.059,7.3854e-06,0
2.0595,7.2175e-06,0
2.06,3.357e-06,0
2.0605,-2.182e-06,0
2.061,-4.8676e-06,0
2.0615,-6.5461e-06,0
2.062,-9.7353e-06,0
2.0625,-6.2104e-06,0
2.063,6.2104e-06,0
2.0635,1.7121e-05,0
2.064,2.3331e-05,0
2.0645,2.7359e-05,0
2.065,2.7359e-05,0
2.0655,2.0813e-05,0
2.066,1.4099e-05,0
2.0665,1.3932e-05,0
2.067,1.9638e-05,0
2.0675,2.7695e-05,0
2.068,3.4913e-05,0
2.0685,3.6759e-05,0
2.069,3.3066e-05,0
2.0695,2.9374e-05,0
2.07,2.7863e-05,0
2.0705,3.0381e-05,0
2.071,3.6088e-05,0
2.0715,4.1291e-05,0
2.072,4.5319e-05,0
2.0725,4.8676e-05,0
2.073,5.1194e-05,0
2.0735,5.1194e-05,0
2.074,5.0858e-05,0
2.0745,4.8508e-05,0
2.075,4.2298e-05,0
2.0755,3.508e-05,0
2.076,2.8367e-05,0
2.0765,1.947e-05,0
2.077,7.5532e-06,0
2.0775,-4.6998e-06,0
2.078,-1.561e-05,0
2.0785,-2.6352e-05,0
2.079,-3.3066e-05,0
2.0795,-3.3738e-05,0
2.08,-2.7695e-05,0
2.0805,-1.947e-05,0
2.081,-1.2924e-05,0
2.0815,-5.8747e-06,0
2.082,5.3712e-06,0
2.0825,1.8128e-05,0
2.083,2.7695e-05,0
2.0835,3.2395e-05,0
2.084,3.4745e-05,0
2.0845,3.2898e-05,0
2.085,2.8534e-05,0
2.0855,2.5009e-05,0
2.086,2.1149e-05,0
2.0865,1.8296e-05,0
2.087,1.6617e-05,0
2.0875,1.7288e-05,0
2.088,1.8967e-05,0
2.0885,2.0646e-05,0
2.089,2.2324e-05,0
2.0895,2.4338e-05,0
2.09,2.6688e-05,0
2.0905,2.9709e-05,0
2.091,3.0716e-05,0
2.0915,2.9374e-05,0
2.092,2.8199e-05,0
2.0925,3.0549e-05,0
2.093,3.4073e-05,0
2.0935,3.6088e-05,0
2.094,3.6255e-05,0
2.0945,3.7095e-05,0
2.095,3.508e-05,0
2.0955,2.3835e-05,0
2.096,6.8818e-06,0
2.0965,-5.539e-06,0
2.097,-7.3854e-06,0
2.0975,-1.5106e-06,0
2.098,4.6998e-06,0
2.0985,9.5674e-06,0
2.099,1.6449e-05,0
2.0995,2.5345e-05,0
2.1,3.7095e-05,0
2.1005,4.448e-05,0
2.101,4.3641e-05,0
2.1015,3.7095e-05,0
2.102,2.9374e-05,0
2.1025,2.2995e-05,0
2.103,1.8631e-05,0
2.1035,1.7288e-05,0
2.104,2.0478e-05,0
2.1045,2.5849e-05,0
2.105,2.887e-05,0
2.1055,2.9038e-05,0
2.106,2.7863e-05,0
2.1065,2.6184e-05,0
2.107,2.4674e-05,0
2.1075,2.5009e-05,0
2.108,2.8031e-05,0
2.1085,2.9038e-05,0
2.109,2.5681e-05,0
2.1095,1.9135e-05,0
2.11,1.4603e-05,0
2.1105,1.1246e-05,0
2.111,6.5461e-06,0
2.1115,3.6927e-06,0
2.112,4.8676e-06,0
2.1125,7.8889e-06,0
2.113,1.2757e-05,0
2.1135,1.5274e-05,0
2.114,1.3428e-05,0
2.1145,9.5674e-06,0
2.115,4.5319e-06,0
2.1155,0,0
2.116,-2.182e-06,0
2.1165,-3.0213e-06,0
2.117,-2.5177e-06,0
2.1175,-3.8605e-06,0
2.118,-4.1962e-06,0
2.1185,1.678e-07,0
2.119,8.896e-06,0
2.1195,1.7792e-05,0
2.12,2.4002e-05,0
2.1205,3.2059e-05,0
2.121,4.1459e-05,0
2.1215,4.683e-05,0
2.122,4.7501e-05,0
2.1225,4.683e-05,0
2.123,4.6159e-05,0
2.1235,4.5319e-05,0
2.124,4.5487e-05,0
2.1245,4.6159e-05,0
2.125,4.2634e-05,0
2.1255,3.6423e-05,0
2.126,3.2059e-05,0
2.1265,3.1724e-05,0
2.127,3.2395e-05,0
2.1275,3.1388e-05,0
2.128,2.6352e-05,0
2.1285,2.1317e-05,0
2.129,2.0646e-05,0
2.1295,2.1988e-05,0
2.13,2.266e-05,0
2.1305,2.1988e-05,0
2.131,1.9303e-05,0
2.1315,1.4939e-05,0
2.132,1.1582e-05,0
2.1325,1.4603e-05,0
2.133,2.031e-05,0
2.1335,2.2995e-05,0
2.134,2.4002e-05,0
2.1345,2.5177e-05,0
2.135,2.4506e-05,0
2.1355,2.1988e-05,0
2.136,1.9638e-05,0
2.1365,1.6785e-05,0
2.137,1.3596e-05,0
2.1375,1.2253e-05,0
2.138,1.2253e-05,0
2.1385,1.3596e-05,0
2.139,1.7121e-05,0
2.1395,2.2324e-05,0
2.14,2.7695e-05,0
2.1405,3.0381e-05,0
2.141,2.8367e-05,0
2.1415,2.6017e-05,0
2.142,2.5681e-05,0
2.1425,2.3667e-05,0
2.143,1.9303e-05,0
2.1435,1.091e-05,0
2.144,2.0142e-06,0
2.1445,-4.8676e-06,0
2.145,-9.5674e-06,0
2.1455,-1.2253e-05,0
2.146,-1.0239e-05,0
2.1465,-1.3428e-06,0
2.147,6.8818e-06,0
2.1475,9.2317e-06,0
2.148,6.5461e-06,0
2.1485,4.0284e-06,0
2.149,6.5461e-06,0
2.1495,1.3596e-05,0
2.15,1.9974e-05,0
2.1505,2.3331e-05,0
2.151,2.5345e-05,0
2.1515,2.7024e-05,0
2.152,3.2395e-05,0
2.1525,4.0452e-05,0
2.153,4.8173e-05,0
2.1535,5.2201e-05,0
2.154,5.069e-05,0
2.1545,4.4144e-05,0
2.155,3.5416e-05,0
2.1555,2.8702e-05,0
2.156,2.9374e-05,0
2.1565,3.592e-05,0
2.157,4.2802e-05,0
2.1575,4.9012e-05,0
2.158,4.8173e-05,0
2.1585,3.743e-05,0
2.159,2.5009e-05,0
2.1595,1.6953e-05,0
2.16,1.1246e-05,0
2.1605,5.539e-06,0
2.161,5.035e-07,0
2.1615,-3.1891e-06,0
2.162,-8.7282e-06,0
2.1625,-1.5274e-05,0
2.163,-1.9135e-05,0
2.1635,-1.9303e-05,0
2.164,-1.6617e-05,0
2.1645,-1.0407e-05,0
2.165,-3.1891e-06,0
2.1655,3.357e-07,0
2.166,-2.182e-06,0
2.1665,-5.539e-06,0
2.167,-4.3641e-06,0
2.1675,-8.392e-07,0
2.168,4.3641e-06,0
2.1685,1.2253e-05,0
2.169,2.031e-05,0
2.1695,2.4506e-05,0
2.17,2.7863e-05,0
2.1705,2.8367e-05,0
2.171,2.4002e-05,0
2.1715,2.4002e-05,0
2.172,3.0381e-05,0
2.1725,3.7095e-05,0
2.173,3.8102e-05,0
2.1735,3.508e-05,0
2.174,3.4073e-05,0
2.1745,3.7262e-05,0
2.175,3.8605e-05,0
2.1755,3.743e-05,0
2.176,3.6423e-05,0
2.1765,3.8437e-05,0
2.177,4.213e-05,0
2.1775,4.3305e-05,0
2.178,4.1291e-05,0
2.1785,3.978e-05,0
2.179,3.7095e-05,0
2.1795,3.0213e-05,0
2.18,2.266e-05,0
2.1805,1.7624e-05,0
2.181,1.2757e-05,0
2.1815,6.3783e-06,0
2.182,-8.392e-07,0
2.1825,-5.539e-06,0
2.183,-5.7069e-06,0
2.1835,-5.035e-07,0
2.184,7.8889e-06,0
2.1845,1.4939e-05,0
2.185,1.5946e-05,0
2.1855,1.4939e-05,0
2.186,1.5106e-05,0
2.1865,1.9135e-05,0
2.187,2.5345e-05,0
2.1875,3.0549e-05,0
2.188,3.3066e-05,0
2.1885,3.1891e-05,0
2.189,3.0716e-05,0
2.1895,3.2059e-05,0
2.19,3.3738e-05,0
2.1905,3.2731e-05,0
2.191,2.8702e-05,0
2.1915,2.4338e-05,0
2.192,2.2828e-05,0
2.1925,2.6017e-05,0
2.193,2.9877e-05,0
2.1935,3.1388e-05,0
2.194,2.5681e-05,0
2.1945,1.5946e-05,0
2.195,1.0239e-05,0
2.1955,1.1246e-05,0
2.196,1.1749e-05,0
2.1965,7.8889e-06,0
2.197,4.8676e-06,0
2.1975,7.8889e-06,0
2.198,1.6281e-05,0
2.1985,2.7024e-05,0
2.199,3.6088e-05,0
2.1995,4.0452e-05,0
2.2,3.9445e-05,0
2.2005,3.8102e-05,0
2.201,4.0116e-05,0
2.2015,3.8437e-05,0
2.202,3.5248e-05,0
2.2025,3.5752e-05,0
2.203,3.6759e-05,0
2.2035,3.4409e-05,0
2.204,3.0716e-05,0
2.2045,2.5009e-05,0
2.205,1.5946e-05,0
2.2055,9.5674e-06,0
2.206,8.5603e-06,0
2.2065,1.0575e-05,0
2.207,1.1246e-05,0
2.2075,8.2246e-06,0
2.208,4.8676e-06,0
2.2085,1.1749e-06,0
2.209,-2.5177e-06,0
2.2095,-4.5319e-06,0
2.21,-3.5248e-06,0
2.2105,-3.1891e-06,0
2.211,-3.5248e-06,0
2.2115,-1.6785e-06,0
2.212,0,0
2.2125,-1.678e-07,0
2.213,3.5248e-06,0
2.2135,1.1917e-05,0
2.214,1.9638e-05,0
2.2145,2.4674e-05,0
2.215,3.0381e-05,0
2.2155,3.978e-05,0
2.216,4.8005e-05,0
2.2165,4.8005e-05,0
2.217,4.3473e-05,0
2.2175,3.7766e-05,0
2.218,3.2731e-05,0
2.2185,2.7695e-05,0
2.219,2.3667e-05,0
2.2195,2.3499e-05,0
2.22,2.5177e-05,0
2.2205,2.6352e-05,0
2.221,2.652e-05,0
2.2215,2.6017e-05,0
2.222,2.4674e-05,0
2.2225,2.0981e-05,0
2.223,1.2924e-05,0
2.2235,5.035e-07,0
2.224,-1.1078e-05,0
2.2245,-1.7624e-05,0
2.225,-1.8296e-05,0
2.2255,-1.326e-05,0
2.226,-4.8676e-06,0
2.2265,5.539e-06,0
2.227,1.5946e-05,0
2.2275,2.2324e-05,0
2.228,2.4674e-05,0
2.2285,2.3835e-05,0
2.229,2.1317e-05,0
2.2295,1.9303e-05,0
2.23,1.7288e-05,0
2.2305,1.7288e-05,0
2.231,1.9638e-05,0
2.2315,2.4002e-05,0
2.232,3.0549e-05,0
2.2325,3.7095e-05,0
2.233,4.0787e-05,0
2.2335,4.1123e-05,0
2.234,4.0787e-05,0
2.2345,4.2802e-05,0
2.235,4.8173e-05,0
2.2355,4.9515e-05,0
2.236,4.4816e-05,0
2.2365,3.978e-05,0
2.237,3.7095e-05,0
2.2375,3.6088e-05,0
2.238,3.4745e-05,0
2.2385,2.9374e-05,0
2.239,2.3163e-05,0
2.2395,1.9974e-05,0
2.24,1.7288e-05,0
2.2405,1.5946e-05,0
2.241,2.0478e-05,0
2.2415,2.9038e-05,0
2.242,3.3066e-05,0
2.2425,3.2059e-05,0
2.243,2.9374e-05,0
2.2435,2.9877e-05,0
2.244,3.3402e-05,0
2.2445,3.4073e-05,0
2.245,2.6688e-05,0
2.2455,1.5946e-05,0
2.246,6.2104e-06,0
2.2465,2.5177e-06,0
2.247,2.3499e-06,0
2.2475,1.0071e-06,0
2.248,-2.182e-06,0
2.2485,-2.8534e-06,0
2.249,-2.8534e-06,0
2.2495,-4.8676e-06,0
2.25,-5.7069e-06,0
2.2505,-2.3499e-06,0
2.251,3.357e-06,0
2.2515,7.5532e-06,0
2.252,7.0497e-06,0
2.2525,3.5248e-06,0
2.253,2.182e-06,0
2.2535,5.7069e-06,0
2.254,1.2253e-05,0
2.2545,2.031e-05,0
2.255,2.3667e-05,0
2.2555,1.9806e-05,0
2.256,1.5946e-05,0
2.2565,1.9303e-05,0
2.257,2.4002e-05,0
2.2575,2.2156e-05,0
2.258,1.5946e-05,0
2.2585,1.3932e-05,0
2.259,1.6617e-05,0
2.2595,1.8128e-05,0
2.26,1.561e-05,0
2.2605,9.5674e-06,0
2.261,2.5177e-06,0
2.2615,2.0142e-06,0
2.262,7.5532e-06,0
2.2625,1.5946e-05,0
2.263,2.5681e-05,0
2.2635,3.3066e-05,0
2.264,3.6423e-05,0
2.2645,3.7934e-05,0
2.265,3.9445e-05,0
2.2655,3.8102e-05,0
2.266,3.4241e-05,0
2.2665,3.2563e-05,0
2.267,3.6088e-05,0
2.2675,4.2802e-05,0
2.268,4.5487e-05,0
2.2685,4.2802e-05,0
2.269,4.1459e-05,0
2.2695,4.6159e-05,0
2.27,5.1362e-05,0
2.2705,4.683e-05,0
2.271,3.1891e-05,0
2.2715,1.3596e-05,0
2.272,3.5248e-06,0
2.2725,1.1749e-06,0
2.273,2.0142e-06,0
2.2735,1.6785e-06,0
2.274,1.8463e-06,0
2.2745,3.8605e-06,0
2.275,5.0355e-06,0
2.2755,-1.5106e-06,0
2.276,-1.2589e-05,0
2.2765,-2.031e-05,0
2.277,-2.2156e-05,0
2.2775,-1.9638e-05,0
2.278,-1.5778e-05,0
2.2785,-1.0239e-05,0
2.279,-1.0071e-06,0
2.2795,1.1582e-05,0
2.28,2.4842e-05,0
2.2805,3.4913e-05,0
2.281,4.1123e-05,0
2.2815,4.6494e-05,0
2.282,5.7069e-05,0
2.2825,7.1672e-05,0
2.283,7.956e-05,0
2.2835,7.3686e-05,0
2.284,5.8076e-05,0
2.2845,4.2802e-05,0
2.285,3.2059e-05,0
2.2855,2.7527e-05,0
2.286,2.9038e-05,0
2.2865,3.2059e-05,0
2.287,3.4577e-05,0
2.2875,3.8102e-05,0
2.288,4.2634e-05,0
2.2885,4.5487e-05,0
2.289,4.6159e-05,0
2.2895,4.0787e-05,0
2.29,2.7024e-05,0
2.2905,1.5442e-05,0
2.291,1.2757e-05,0
2.2915,1.3932e-05,0
2.292,9.9031e-06,0
2.2925,-1.678e-07,0
2.293,-1.1582e-05,0
2.2935,-2.0981e-05,0
2.294,-2.7359e-05,0
2.2945,-3.2059e-05,0
2.295,-3.4409e-05,0
2.2955,-3.4577e-05,0
2.296,-3.1724e-05,0
2.2965,-2.2995e-05,0
2.297,-9.5674e-06,0
2.2975,3.357e-06,0
2.298,1.2757e-05,0
2.2985,1.8296e-05,0
2.299,2.0981e-05,0
2.2995,2.5513e-05,0
2.3,3.1052e-05,0
2.3005,3.4409e-05,0
2.301,3.743e-05,0
2.3015,3.743e-05,0
2.302,3.508e-05,0
2.3025,3.5416e-05,0
2.303,3.6927e-05,0
2.3035,3.8605e-05,0
2.304,3.8437e-05,0
2.3045,3.743e-05,0
2.305,3.6927e-05,0
2.3055,3.2059e-05,0
2.306,2.3667e-05,0
2.3065,1.4435e-05,0
2.307,3.0213e-06,0
2.3075,-7.0497e-06,0
2.308,-8.896e-06,0
2.3085,-6.5461e-06,0
2.309,-5.539e-06,0
2.3095,-6.714e-06,0
2.31,-7.2175e-06,0
2.3105,-4.8676e-06,0
2.311,8.392e-07,0
2.3115,1.1917e-05,0
2.312,2.6017e-05,0
2.3125,3.8102e-05,0
2.313,4.7501e-05,0
2.3135,5.304e-05,0
2.314,5.388e-05,0
2.3145,5.2872e-05,0
2.315,5.2201e-05,0
2.3155,5.2201e-05,0
2.316,5.2201e-05,0
2.3165,5.2537e-05,0
2.317,5.1865e-05,0
2.3175,5.0187e-05,0
2.318,4.8173e-05,0
2.3185,4.448e-05,0
2.319,3.743e-05,0
2.3195,3.3066e-05,0
2.32,3.2059e-05,0
2.3205,3.1388e-05,0
2.321,3.0716e-05,0
2.3215,2.9206e-05,0
2.322,2.5177e-05,0
2.3225,1.9638e-05,0
2.323,1.8631e-05,0
2.3235,2.5009e-05,0
2.324,3.1891e-05,0
2.3245,3.3906e-05,0
2.325,3.4745e-05,0
2.3255,3.508e-05,0
2.326,3.2059e-05,0
2.3265,2.7359e-05,0
2.327,2.182e-05,0
2.3275,1.6617e-05,0
2.328,1.4939e-05,0
2.3285,1.1582e-05,0
2.329,3.5248e-06,0
2.3295,-2.0142e-06,0
2.33,-3.357e-07,0
2.3305,6.5461e-06,0
2.331,1.0575e-05,0
2.3315,2.5177e-06,0
2.332,-1.2924e-05,0
2.3325,-2.5345e-05,0
2.333,-3.6759e-05,0
2.3335,-4.8676e-05,0
2.334,-5.4215e-05,0
2.3345,-5.1194e-05,0
2.335,-4.0452e-05,0
2.3355,-2.182e-05,0
2.336,-5.2033e-06,0
2.3365,5.2033e-06,0
2.337,1.1582e-05,0
2.3375,1.7792e-05,0
2.338,2.8534e-05,0
2.3385,4.1123e-05,0
2.339,4.5487e-05,0
2.3395,3.8941e-05,0
2.34,2.8367e-05,0
2.3405,1.8296e-05,0
2.341,1.1582e-05,0
2.3415,1.091e-05,0
2.342,1.2421e-05,0
2.3425,1.4267e-05,0
2.343,1.7792e-05,0
2.3435,2.4506e-05,0
2.344,3.6759e-05,0
2.3445,4.683e-05,0
2.345,5.1194e-05,0
2.3455,6.0258e-05,0
2.346,8.1743e-05,0
2.3465,0.00010507,0
2.347,0.00011313,0
2.3475,0.00010356,0
2.348,8.4093e-05,0
2.3485,6.4958e-05,0
2.349,4.7501e-05,0
2.3495,2.7527e-05,0
2.35,1.4603e-05,0
2.3505,1.2924e-05,0
2.351,1.5274e-05,0
2.3515,1.4435e-05,0
2.352,7.2175e-06,0
2.3525,-6.5461e-06,0
2.353,-2.0981e-05,0
2.3535,-2.9038e-05,0
2.354,-3.1724e-05,0
2.3545,-2.5849e-05,0
2.355,-1.4939e-05,0
2.3555,-1.5106e-06,0
2.356,9.5674e-06,0
2.3565,1.3932e-05,0
2.357,1.7792e-05,0
2.3575,2.3331e-05,0
2.358,3.2395e-05,0
2.3585,4.0619e-05,0
2.359,4.2466e-05,0
2.3595,3.8437e-05,0
2.36,3.3738e-05,0
2.3605,2.7863e-05,0
2.361,1.7792e-05,0
2.3615,4.1962e-06,0
2.362,-9.7353e-06,0
2.3625,-1.8631e-05,0
2.363,-2.2995e-05,0
2.3635,-2.0981e-05,0
2.364,-1.9303e-05,0
2.3645,-2.2156e-05,0
2.365,-2.4674e-05,0
2.3655,-1.7792e-05,0
2.366,-1.6785e-06,0
2.3665,1.2757e-05,0
2.367,1.6953e-05,0
2.3675,1.9974e-05,0
2.368,2.9709e-05,0
2.3685,3.9445e-05,0
2.369,4.0116e-05,0
2.3695,3.5752e-05,0
2.37,2.9877e-05,0
2.3705,2.4842e-05,0
2.371,2.1317e-05,0
2.3715,2.3163e-05,0
2.372,3.0045e-05,0
2.3725,3.6423e-05,0
2.373,3.6759e-05,0
2.3735,3.508e-05,0
2.374,3.2898e-05,0
2.3745,2.652e-05,0
2.375,1.1582e-05,0
2.3755,-8.2246e-06,0
2.376,-2.031e-05,0
2.3765,-1.6114e-05,0
2.377,-8.392e-07,0
2.3775,1.9638e-05,0
2.378,3.4913e-05,0
2.3785,3.9109e-05,0
2.379,3.6759e-05,0
2.3795,3.4745e-05,0
2.38,3.6927e-05,0
2.3805,3.9445e-05,0
2.381,3.9445e-05,0
2.3815,4.0116e-05,0
2.382,4.213e-05,0
2.3825,4.2802e-05,0
2.383,4.3809e-05,0
2.3835,4.7166e-05,0
2.384,5.069e-05,0
2.3845,5.1865e-05,0
2.385,5.1865e-05,0
2.3855,5.069e-05,0
2.386,4.9515e-05,0
2.3865,4.4816e-05,0
2.387,3.4409e-05,0
2.3875,2.0478e-05,0
2.388,8.896e-06,0
2.3885,1.8463e-06,0
2.389,-4.5319e-06,0
2.3895,-1.1246e-05,0
2.39,-1.6281e-05,0
2.3905,-1.5778e-05,0
2.391,-7.3854e-06,0
2.3915,5.539e-06,0
2.392,1.6281e-05,0
2.3925,1.8128e-05,0
2.393,1.3428e-05,0
2.3935,8.2246e-06,0
2.394,5.539e-06,0
2.3945,5.8747e-06,0
2.395,7.8889e-06,0
2.3955,1.1582e-05,0
2.396,1.5778e-05,0
2.3965,2.1317e-05,0
2.397,2.4506e-05,0
2.3975,2.4338e-05,0
2.398,2.266e-05,0
2.3985,2.0981e-05,0
2.399,2.3499e-05,0
2.3995,3.3738e-05,0
2.4,4.7501e-05,0
2.4005,5.8579e-05,0
2.401,6.4958e-05,0
2.4015,6.6972e-05,0
2.402,6.5629e-05,0
2.4025,6.1601e-05,0
2.403,5.4215e-05,0
2.4035,4.7669e-05,0
2.404,4.213e-05,0
2.4045,3.3906e-05,0
2.405,2.1149e-05,0
2.4055,7.2175e-06,0
2.406,-3.5248e-06,0
2.4065,-1.1078e-05,0
2.407,-1.6281e-05,0
2.4075,-1.6617e-05,0
2.408,-1.4435e-05,0
2.4085,-1.3596e-05,0
2.409,-1.1246e-05,0
2.4095,-8.2246e-06,0
2.41,-3.0213e-06,0
2.4105,3.5248e-06,0
2.411,8.3925e-06,0
2.4115,1.0575e-05,0
2.412,1.1749e-05,0
2.4125,1.4603e-05,0
2.413,1.6953e-05,0
2.4135,1.5946e-05,0
2.414,1.0575e-05,0
2.4145,4.5319e-06,0
2.415,3.8605e-06,0
2.4155,9.9031e-06,0
2.416,1.5106e-05,0
2.4165,1.6281e-05,0
2.417,2.0646e-05,0
2.4175,3.1556e-05,0
2.418,4.3305e-05,0
2.4185,4.6494e-05,0
2.419,4.0787e-05,0
2.4195,3.1388e-05,0
2.42,2.0646e-05,0
2.4205,1.1917e-05,0
2.421,7.8889e-06,0
2.4215,8.0568e-06,0
2.422,1.3596e-05,0
2.4225,2.2324e-05,0
2.423,3.0716e-05,0
2.4235,3.9612e-05,0
2.424,4.7166e-05,0
2.4245,4.5655e-05,0
2.425,3.743e-05,0
2.4255,2.7863e-05,0
2.426,2.0646e-05,0
2.4265,1.7624e-05,0
2.427,1.9638e-05,0
2.4275,2.6017e-05,0
2.428,3.6088e-05,0
2.4285,4.448e-05,0
2.429,4.2802e-05,0
2.4295,3.3738e-05,0
2.43,2.4842e-05,0
2.4305,1.9974e-05,0
2.431,1.7288e-05,0
2.4315,1.5946e-05,0
2.432,1.6953e-05,0
2.4325,1.6785e-05,0
2.433,1.5946e-05,0
2.4335,1.7624e-05,0
2.434,1.8799e-05,0
2.4345,1.5946e-05,0
2.435,1.0575e-05,0
2.4355,7.2175e-06,0
2.436,4.8676e-06,0
2.4365,8.392e-07,0
2.437,-5.2033e-06,0
2.4375,-5.539e-06,0
2.438,5.0355e-06,0
2.4385,1.6281e-05,0
2.439,2.0478e-05,0
2.4395,1.9806e-05,0
2.44,1.8631e-05,0
2.4405,2.2995e-05,0
2.441,3.1724e-05,0
2.4415,3.7766e-05,0
2.442,3.9445e-05,0
2.4425,3.6423e-05,0
2.443,2.6688e-05,0
2.4435,1.4603e-05,0
2.444,4.1962e-06,0
2.4445,-8.392e-07,0
2.445,-1.8463e-06,0
2.4455,-8.392e-07,0
2.446,-2.182e-06,0
2.4465,-3.5248e-06,0
2.447,-1.3428e-06,0
2.4475,2.5177e-06,0
2.448,5.8747e-06,0
2.4485,6.2104e-06,0
2.449,2.5177e-06,0
2.4495,1.1749e-06,0
2.45,5.539e-06,0
2.4505,1.4603e-05,0
2.451,2.7695e-05,0
2.4515,4.6159e-05,0
2.452,6.4118e-05,0
2.4525,7.1336e-05,0
2.453,6.3951e-05,0
2.4535,4.8844e-05,0
2.454,3.5584e-05,0
2.4545,2.8031e-05,0
2.455,2.2324e-05,0
2.4555,1.8967e-05,0
2.456,2.266e-05,0
2.4565,3.0884e-05,0
2.457,3.7262e-05,0
2.4575,3.978e-05,0
2.458,4.0116e-05,0
2.4585,3.6759e-05,0
2.459,3.0716e-05,0
2.4595,2.7024e-05,0
2.46,2.8367e-05,0
2.4605,3.0381e-05,0
2.461,2.9877e-05,0
2.4615,2.7863e-05,0
2.462,2.6352e-05,0
2.4625,2.4674e-05,0
2.463,1.9974e-05,0
2.4635,1.3764e-05,0
2.464,9.9031e-06,0
2.4645,1.0239e-05,0
2.465,9.3996e-06,0
2.4655,3.8605e-06,0
2.466,-1.6785e-06,0
2.4665,-1.5106e-06,0
2.467,2.8534e-06,0
2.4675,7.2175e-06,0
2.468,9.2317e-06,0
2.4685,1.1414e-05,0
2.469,1.561e-05,0
2.4695,2.0478e-05,0
2.47,2.4338e-05,0
2.4705,2.4842e-05,0
2.471,2.3499e-05,0
2.4715,2.0142e-05,0
2.472,1.1917e-05,0
2.4725,2.8534e-06,0
2.473,-2.5177e-06,0
2.4735,-3.5248e-06,0
2.474,-3.357e-07,0
2.4745,8.3925e-06,0
2.475,1.9806e-05,0
2.4755,2.8367e-05,0
2.476,2.9709e-05,0
2.4765,2.4674e-05,0
2.477,1.7288e-05,0
2.4775,1.091e-05,0
2.478,7.8889e-06,0
2.4785,1.0239e-05,0
2.479,1.5106e-05,0
2.4795,1.9806e-05,0
2.48,2.5513e-05,0
2.4805,2.9038e-05,0
2.481,2.8367e-05,0
2.4815,2.5681e-05,0
2.482,2.1988e-05,0
2.4825,1.8296e-05,0
2.483,1.561e-05,0
2.4835,1.326e-05,0
2.484,1.0071e-05,0
2.4845,7.8889e-06,0
2.485,1.2085e-05,0
2.4855,1.7792e-05,0
2.486,1.9135e-05,0
2.4865,1.5946e-05,0
2.487,1.3596e-05,0
2.4875,1.3764e-05,0
2.488,1.6449e-05,0
2.4885,1.9974e-05,0
2.489,2.1988e-05,0
2.4895,2.1653e-05,0
2.49,2.1149e-05,0
2.4905,2.2156e-05,0
2.491,2.4338e-05,0
2.4915,2.8031e-05,0
2.492,3.2563e-05,0
2.4925,3.4577e-05,0
2.493,3.3906e-05,0
2.4935,3.1724e-05,0
2.494,3.0045e-05,0
2.4945,2.9709e-05,0
2.495,2.9709e-05,0
2.4955,2.9038e-05,0
2.496,2.6352e-05,0
2.4965,2.266e-05,0
2.497,1.9974e-05,0
2.4975,1.8296e-05,0
2.498,1.8631e-05,0
2.4985,2.0646e-05,0
2.499,1.9638e-05,0
2.4995,1.5946e-05,0
2.5,1.2421e-05,0
2.5005,9.2317e-06,0
2.501,7.2175e-06,0
2.5015,7.0497e-06,0
2.502,7.8889e-06,0
2.5025,1.0575e-05,0
2.503,1.5946e-05,0
2.5035,2.4338e-05,0
2.504,2.7695e-05,0
2.5045,2.1988e-05,0
2.505,1.3932e-05,0
2.5055,1.2421e-05,0
2.506,1.5946e-05,0
2.5065,2.0478e-05,0
2.507,2.266e-05,0
2.5075,1.8631e-05,0
2.508,1.0407e-05,0
2.5085,5.8747e-06,0
2.509,7.7211e-06,0
2.5095,1.2589e-05,0
2.51,1.8296e-05,0
2.5105,2.4674e-05,0
2.511,2.9374e-05,0
2.5115,3.3402e-05,0
2.512,3.4073e-05,0
2.5125,3.5584e-05,0
2.513,4.213e-05,0
2.5135,4.9515e-05,0
2.514,5.304e-05,0
2.5145,5.1194e-05,0
2.515,4.4816e-05,0
2.5155,3.6591e-05,0
2.516,2.8702e-05,0
2.5165,2.266e-05,0
2.517,1.6449e-05,0
2.5175,1.1078e-05,0
2.518,7.5532e-06,0
2.5185,3.6927e-06,0
2.519,1.5106e-06,0
2.5195,5.2033e-06,0
2.52,1.2421e-05,0
2.5205,1.8296e-05,0
2.521,2.1317e-05,0
2.5215,2.4338e-05,0
2.522,2.6688e-05,0
2.5225,2.6688e-05,0
2.523,2.5009e-05,0
2.5235,2.4002e-05,0
2.524,2.182e-05,0
2.5245,1.5946e-05,0
2.525,7.2175e-06,0
2.5255,8.392e-07,0
2.526,-1.5106e-06,0
2.5265,-5.7069e-06,0
2.527,-1.0407e-05,0
2.5275,-5.539e-06,0
2.528,4.1962e-06,0
2.5285,9.5674e-06,0
2.529,1.326e-05,0
2.5295,2.1653e-05,0
2.53,3.3738e-05,0
2.5305,5.0523e-05,0
2.531,6.4958e-05,0
2.5315,6.8986e-05,0
2.532,6.1936e-05,0
2.5325,4.6494e-05,0
2.533,3.3066e-05,0
2.5335,2.8534e-05,0
2.534,2.8031e-05,0
2.5345,2.7359e-05,0
2.535,2.4506e-05,0
2.5355,1.9974e-05,0
2.536,1.6114e-05,0
2.5365,1.5106e-05,0
2.537,1.4939e-05,0
2.5375,1.1078e-05,0
2.538,2.3499e-06,0
2.5385,-5.539e-06,0
2.539,-4.5319e-06,0
2.5395,4.6998e-06,0
2.54,1.4435e-05,0
2.5405,1.9638e-05,0
2.541,1.7624e-05,0
2.5415,1.2421e-05,0
2.542,1.0071e-05,0
2.5425,1.2253e-05,0
2.543,1.7624e-05,0
2.5435,2.1988e-05,0
2.544,2.4338e-05,0
2.5445,2.4506e-05,0
2.545,2.5177e-05,0
2.5455,2.6688e-05,0
2.546,2.7024e-05,0
2.5465,2.5681e-05,0
2.547,2.4002e-05,0
2.5475,2.031e-05,0
2.548,1.6281e-05,0
2.5485,1.3932e-05,0
2.549,1.2421e-05,0
2.5495,1.091e-05,0
2.55,4.5319e-06,0
2.5505,-2.3499e-06,0
2.551,-3.0213e-06,0
2.5515,-8.392e-07,0
2.552,-1.0071e-06,0
2.5525,-5.8747e-06,0
2.553,-1.1246e-05,0
2.5535,-1.2253e-05,0
2.554,-1.0575e-05,0
2.5545,-5.3712e-06,0
2.555,1.8463e-06,0
2.5555,7.5532e-06,0
2.556,1.4099e-05,0
2.5565,2.6352e-05,0
2.557,4.3977e-05,0
2.5575,5.9419e-05,0
2.558,6.5461e-05,0
2.5585,6.2272e-05,0
2.559,5.8747e-05,0
2.5595,5.8747e-05,0
2.56,5.9754e-05,0
2.5605,5.7572e-05,0
2.561,5.0523e-05,0
2.5615,4.2802e-05,0
2.562,3.4913e-05,0
2.5625,2.9038e-05,0
2.563,2.4002e-05,0
2.5635,1.796e-05,0
2.564,1.1246e-05,0
2.5645,1.4435e-05,0
2.565,2.6688e-05,0
2.5655,3.7095e-05,0
2.566,3.8773e-05,0
2.5665,3.4745e-05,0
2.567,2.7024e-05,0
2.5675,1.9638e-05,0
2.568,1.6617e-05,0
2.5685,1.8296e-05,0
2.569,1.9638e-05,0
2.5695,1.9135e-05,0
2.57,1.5778e-05,0
2.5705,1.0239e-05,0
2.571,5.0355e-06,0
2.5715,1.1749e-06,0
2.572,-1.5106e-06,0
2.5725,-1.1749e-06,0
2.573,8.392e-07,0
2.5735,5.035e-07,0
2.574,-1.0071e-06,0
2.5745,5.035e-07,0
2.575,2.182e-06,0
2.5755,3.1891e-06,0
2.576,5.539e-06,0
2.5765,1.091e-05,0
2.577,1.8967e-05,0
2.5775,2.6017e-05,0
2.578,2.8534e-05,0
2.5785,2.7527e-05,0
2.579,2.8031e-05,0
2.5795,3.0716e-05,0
2.58,3.2059e-05,0
2.5805,3.0716e-05,0
2.581,3.1556e-05,0
2.5815,3.6088e-05,0
2.582,4.0787e-05,0
2.5825,4.1795e-05,0
2.583,3.6088e-05,0
2.5835,2.7863e-05,0
2.584,2.0478e-05,0
2.5845,1.8296e-05,0
2.585,1.5778e-05,0
2.5855,1.0575e-05,0
2.586,5.7069e-06,0
2.5865,1.1749e-06,0
2.587,-3.5248e-06,0
2.5875,-2.8534e-06,0
2.588,6.3783e-06,0
2.5885,1.8296e-05,0
2.589,2.4338e-05,0
2.5895,2.6352e-05,0
2.59,2.7359e-05,0
2.5905,2.9374e-05,0
2.591,3.3906e-05,0
2.5915,3.6423e-05,0
2.592,3.2059e-05,0
2.5925,2.4338e-05,0
2.593,1.4603e-05,0
2.5935,5.8747e-06,0
2.594,3.5248e-06,0
2.5945,5.8747e-06,0
2.595,1.2589e-05,0
2.5955,2.3667e-05,0
2.596,3.2395e-05,0
2.5965,3.4409e-05,0
2.597,3.3066e-05,0
2.5975,3.1052e-05,0
2.598,2.7695e-05,0
2.5985,2.2492e-05,0
2.599,1.9806e-05,0
2.5995,2.3499e-05,0
2.6,3.4409e-05,0
2.6005,4.683e-05,0
2.601,5.5222e-05,0
2.6015,5.623e-05,0
2.602,5.2369e-05,0
2.6025,4.918e-05,0
2.603,4.4144e-05,0
2.6035,3.8437e-05,0
2.604,3.4241e-05,0
2.6045,2.7527e-05,0
2.605,1.6617e-05,0
2.6055,5.8747e-06,0
2.606,-1.678e-07,0
2.6065,-3.357e-06,0
2.607,-5.0355e-06,0
2.6075,-4.8676e-06,0
2.608,-2.5177e-06,0
2.6085,-1.8463e-06,0
2.609,-3.357e-06,0
2.6095,-6.8818e-06,0
2.61,-1.091e-05,0
2.6105,-7.7211e-06,0
2.611,2.6856e-06,0
2.6115,1.326e-05,0
2.612,2.2492e-05,0
2.6125,3.0213e-05,0
2.613,3.4745e-05,0
2.6135,3.4409e-05,0
2.614,2.2995e-05,0
2.6145,1.6785e-06,0
2.615,-1.8128e-05,0
2.6155,-2.8031e-05,0
2.616,-3.2898e-05,0
2.6165,-3.2395e-05,0
2.617,-2.6184e-05,0
2.6175,-2.031e-05,0
2.618,-1.6281e-05,0
2.6185,-9.5674e-06,0
2.619,-1.678e-07,0
2.6195,5.7069e-06,0
2.62,6.8818e-06,0
2.6205,6.2104e-06,0
2.621,4.8676e-06,0
2.6215,4.5319e-06,0
2.622,9.9031e-06,0
2.6225,2.3163e-05,0
2.623,3.8773e-05,0
2.6235,5.1362e-05,0
2.624,6.2272e-05,0
2.6245,6.7811e-05,0
2.625,6.3951e-05,0
2.6255,5.7572e-05,0
2.626,5.5894e-05,0
2.6265,6.0929e-05,0
2.627,6.8315e-05,0
2.6275,6.9657e-05,0
2.628,6.63e-05,0
2.6285,6.3951e-05,0
2.629,5.8915e-05,0
2.6295,4.4648e-05,0
2.63,2.0981e-05,0
2.6305,-4.1962e-06,0
2.631,-2.031e-05,0
2.6315,-2.6017e-05,0
2.632,-2.2995e-05,0
2.6325,-1.3932e-05,0
2.633,-8.392e-07,0
2.6335,1.0575e-05,0
2.634,1.796e-05,0
2.6345,2.1988e-05,0
2.635,2.417e-05,0
2.6355,2.4506e-05,0
2.636,2.6017e-05,0
2.6365,2.8199e-05,0
2.637,2.5345e-05,0
2.6375,1.7288e-05,0
2.638,7.7211e-06,0
2.6385,3.357e-06,0
2.639,7.8889e-06,0
2.6395,1.8967e-05,0
2.64,3.3738e-05,0
2.6405,4.5319e-05,0
2.641,4.4816e-05,0
2.6415,4.1123e-05,0
2.642,3.8605e-05,0
2.6425,3.5752e-05,0
2.643,3.0045e-05,0
2.6435,2.5681e-05,0
2.644,2.6352e-05,0
2.6445,2.9038e-05,0
2.645,2.4506e-05,0
2.6455,1.0575e-05,0
2.646,8.392e-07,0
2.6465,5.2033e-06,0
2.647,1.8631e-05,0
2.6475,3.1556e-05,0
2.648,3.5752e-05,0
2.6485,3.0716e-05,0
2.649,2.1149e-05,0
2.6495,9.9031e-06,0
2.65,3.0213e-06,0
2.6505,3.0213e-06,0
2.651,6.2104e-06,0
2.6515,7.0497e-06,0
2.652,4.3641e-06,0
2.6525,3.1891e-06,0
2.653,5.2033e-06,0
2.6535,9.5674e-06,0
2.654,1.4267e-05,0
2.6545,2.031e-05,0
2.655,2.5177e-05,0
2.6555,2.7359e-05,0
2.656,2.8367e-05,0
2.6565,2.8367e-05,0
2.657,2.9374e-05,0
2.6575,3.1891e-05,0
2.658,3.1891e-05,0
2.6585,3.0045e-05,0
2.659,2.8031e-05,0
2.6595,2.9038e-05,0
2.66,3.3906e-05,0
2.6605,3.6423e-05,0
2.661,3.4577e-05,0
2.6615,3.508e-05,0
2.662,3.9277e-05,0
2.6625,4.0619e-05,0
2.663,3.743e-05,0
2.6635,3.3402e-05,0
2.664,2.9206e-05,0
2.6645,2.5345e-05,0
2.665,1.9974e-05,0
2.6655,9.7353e-06,0
2.666,-6.714e-07,0
2.6665,-7.5532e-06,0
2.667,-1.3092e-05,0
2.6675,-1.8463e-05,0
2.668,-2.1317e-05,0
2.6685,-1.7121e-05,0
2.669,-1.5106e-06,0
2.6695,1.6953e-05,0
2.67,3.0549e-05,0
2.6705,3.8773e-05,0
2.671,4.5151e-05,0
2.6715,5.2033e-05,0
2.672,5.8579e-05,0
2.6725,6.2272e-05,0
2.673,6.0258e-05,0
2.6735,5.1194e-05,0
2.674,4.1123e-05,0
2.6745,3.6088e-05,0
2.675,2.9709e-05,0
2.6755,2.1317e-05,0
2.676,1.5106e-05,0
2.6765,1.0239e-05,0
2.677,6.3783e-06,0
2.6775,4.6998e-06,0
2.678,5.8747e-06,0
2.6785,1.0239e-05,0
2.679,1.2589e-05,0
2.6795,1.0575e-05,0
2.68,9.2317e-06,0
2.6805,1.0575e-05,0
2.681,1.0575e-05,0
2.6815,8.5603e-06,0
2.682,4.5319e-06,0
2.6825,-2.182e-06,0
2.683,-1.0239e-05,0
2.6835,-1.2421e-05,0
2.684,-7.7211e-06,0
2.6845,8.392e-07,0
2.685,9.2317e-06,0
2.6855,1.2924e-05,0
2.686,1.4603e-05,0
2.6865,1.8463e-05,0
2.687,2.0813e-05,0
2.6875,2.1317e-05,0
2.688,2.5681e-05,0
2.6885,2.8199e-05,0
2.689,2.266e-05,0
2.6895,8.7282e-06,0
2.69,-7.5532e-06,0
2.6905,-1.8296e-05,0
2.691,-1.5946e-05,0
2.6915,3.6927e-06,0
2.692,3.1388e-05,0
2.6925,5.388e-05,0
2.693,6.6133e-05,0
2.6935,6.8818e-05,0
2.694,5.8915e-05,0
2.6945,3.7262e-05,0
2.695,1.7288e-05,0
2.6955,7.2175e-06,0
2.696,1.6785e-06,0
2.6965,-4.1962e-06,0
2.697,-7.8889e-06,0
2.6975,-9.9031e-06,0
2.698,-1.0071e-05,0
2.6985,-3.5248e-06,0
2.699,1.5946e-05,0
2.6995,4.9348e-05,0
2.7,8.3085e-05,0
2.7005,0.00010121,0
2.701,0.00010021,0
2.7015,8.745e-05,0
2.702,7.1839e-05,0
2.7025,5.3544e-05,0
2.703,3.1724e-05,0
2.7035,1.1414e-05,0
2.704,8.392e-07,0
2.7045,5.035e-07,0
2.705,-5.035e-07,0
2.7055,-5.2033e-06,0
2.706,-6.8818e-06,0
2.7065,-5.0355e-06,0
2.707,-2.8534e-06,0
2.7075,0,0
2.708,1.5106e-06,0
2.7085,-5.0355e-06,0
2.709,-1.6281e-05,0
2.7095,-2.5177e-05,0
2.71,-2.8702e-05,0
2.7105,-2.5849e-05,0
2.711,-1.8463e-05,0
2.7115,-8.0568e-06,0
2.712,0,0
2.7125,3.1891e-06,0
2.713,5.8747e-06,0
2.7135,1.091e-05,0
2.714,1.5946e-05,0
2.7145,1.4267e-05,0
2.715,9.5674e-06,0
2.7155,1.0575e-05,0
2.716,1.7624e-05,0
2.7165,2.4338e-05,0
2.717,3.2059e-05,0
2.7175,4.8508e-05,0
2.718,7.4021e-05,0
2.7185,9.0471e-05,0
2.719,8.3085e-05,0
2.7195,5.9922e-05,0
2.72,3.7262e-05,0
2.7205,1.9974e-05,0
2.721,2.182e-06,0
2.7215,-1.1917e-05,0
2.722,-1.7121e-05,0
2.7225,-1.3932e-05,0
2.723,-6.2104e-06,0
2.7235,1.8463e-06,0
2.724,4.3641e-06,0
2.7245,1.8463e-06,0
2.725,1.8463e-06,0
2.7255,8.5603e-06,0
2.726,2.0646e-05,0
2.7265,3.4913e-05,0
2.727,4.9851e-05,0
2.7275,5.9754e-05,0
2.728,6.0929e-05,0
2.7285,5.6901e-05,0
2.729,5.153e-05,0
2.7295,4.8173e-05,0
2.73,4.7501e-05,0
2.7305,4.7166e-05,0
2.731,4.2802e-05,0
2.7315,3.9445e-05,0
2.732,3.7766e-05,0
2.7325,3.7262e-05,0
2.733,3.6088e-05,0
2.7335,3.2563e-05,0
2.734,2.6688e-05,0
2.7345,2.2324e-05,0
2.735,2.3667e-05,0
2.7355,3.2059e-05,0
2.736,4.1962e-05,0
2.7365,4.7166e-05,0
2.737,4.6494e-05,0
2.7375,4.3473e-05,0
2.738,4.0787e-05,0
2.7385,3.8941e-05,0
2.739,3.7095e-05,0
2.7395,3.2395e-05,0
2.74,2.6352e-05,0
2.7405,1.9974e-05,0
2.741,1.1246e-05,0
2.7415,1.8463e-06,0
2.742,-4.8676e-06,0
2.7425,-9.5674e-06,0
2.743,-1.5274e-05,0
2.7435,-2.1988e-05,0
2.744,-3.0381e-05,0
2.7445,-3.9445e-05,0
2.745,-4.1962e-05,0
2.7455,-3.357e-05,0
2.746,-1.6449e-05,0
2.7465,-1.0071e-06,0
2.747,6.5461e-06,0
2.7475,1.2924e-05,0
2.748,2.4002e-05,0
2.7485,3.978e-05,0
2.749,5.5894e-05,0
2.7495,6.8818e-05,0
2.75,7.6371e-05,0
2.7505,7.7043e-05,0
2.751,7.7043e-05,0
2.7515,7.805e-05,0
2.752,7.5029e-05,0
2.7525,6.2944e-05,0
2.753,4.5319e-05,0
2.7535,3.0045e-05,0
2.754,1.6953e-05,0
2.7545,2.182e-06,0
2.755,-9.9031e-06,0
2.7555,-1.6449e-05,0
2.756,-1.7121e-05,0
2.7565,-1.326e-05,0
2.757,-9.7353e-06,0
2.7575,-6.8818e-06,0
2.758,-2.8534e-06,0
2.7585,-3.1891e-06,0
2.759,-1.1078e-05,0
2.7595,-1.5274e-05,0
2.76,-2.8534e-06,0
2.7605,2.2995e-05,0
2.761,4.2802e-05,0
2.7615,5.0187e-05,0
2.762,5.153e-05,0
2.7625,5.0858e-05,0
2.763,4.9515e-05,0
2.7635,4.6159e-05,0
2.764,4.2634e-05,0
2.7645,3.5584e-05,0
2.765,2.2995e-05,0
2.7655,7.8889e-06,0
2.766,-7.7211e-06,0
2.7665,-1.5778e-05,0
2.767,-7.7211e-06,0
2.7675,9.9031e-06,0
2.768,1.7792e-05,0
2.7685,1.0071e-05,0
2.769,3.1891e-06,0
2.7695,8.5603e-06,0
2.77,2.2156e-05,0
2.7705,3.8605e-05,0
2.771,4.8508e-05,0
2.7715,4.5487e-05,0
2.772,2.7359e-05,0
2.7725,1.8463e-06,0
2.773,-1.4603e-05,0
2.7735,-1.8463e-05,0
2.774,-1.4603e-05,0
2.7745,-1.1917e-05,0
2.775,-1.5946e-05,0
2.7755,-1.8631e-05,0
2.776,-8.2246e-06,0
2.7765,1.6617e-05,0
2.777,4.213e-05,0
2.7775,5.4887e-05,0
2.778,5.0187e-05,0
2.7785,3.3234e-05,0
2.779,1.4771e-05,0
2.7795,1.1749e-06,0
2.78,-8.2246e-06,0
2.7805,-1.4603e-05,0
2.781,-1.5106e-05,0
2.7815,-1.0575e-05,0
2.782,-2.8534e-06,0
2.7825,7.3854e-06,0
2.783,1.561e-05,0
2.7835,1.796e-05,0
2.784,1.6617e-05,0
2.7845,1.7288e-05,0
2.785,2.0813e-05,0
2.7855,2.4842e-05,0
2.786,2.9374e-05,0
2.7865,3.1891e-05,0
2.787,3.0381e-05,0
2.7875,3.122e-05,0
2.788,3.508e-05,0
2.7885,3.9612e-05,0
2.789,4.1459e-05,0
2.7895,3.743e-05,0
2.79,3.122e-05,0
2.7905,3.4073e-05,0
2.791,4.448e-05,0
2.7915,5.1362e-05,0
2.792,5.2537e-05,0
2.7925,5.0858e-05,0
2.793,4.5991e-05,0
2.7935,3.3738e-05,0
2.794,2.031e-05,0
2.7945,1.0407e-05,0
2.795,3.1891e-06,0
2.7955,1.1749e-06,0
2.796,2.8534e-06,0
2.7965,3.1891e-06,0
2.797,3.8605e-06,0
2.7975,6.2104e-06,0
2.798,2.0142e-06,0
2.7985,-9.9031e-06,0
2.799,-1.4771e-05,0
2.7995,-6.5461e-06,0
2.8,7.3854e-06,0
2.8005,2.6688e-05,0
2.801,4.3473e-05,0
2.8015,4.8508e-05,0
2.802,4.4816e-05,0
2.8025,3.8437e-05,0
2.803,3.3402e-05,0
2.8035,3.1052e-05,0
2.804,3.3738e-05,0
2.8045,4.1459e-05,0
2.805,4.683e-05,0
2.8055,4.6159e-05,0
2.806,4.3809e-05,0
2.8065,4.5823e-05,0
2.807,4.7333e-05,0
2.8075,4.1795e-05,0
2.808,3.3738e-05,0
2.8085,2.6688e-05,0
2.809,2.0646e-05,0
2.8095,1.1246e-05,0
2.81,-5.0355e-06,0
2.8105,-2.2828e-05,0
2.811,-3.6088e-05,0
2.8115,-3.978e-05,0
2.812,-3.3402e-05,0
2.8125,-2.7527e-05,0
2.813,-2.3667e-05,0
2.8135,-1.3596e-05,0
2.814,0,0
2.8145,2.182e-06,0
2.815,-8.5603e-06,0
2.8155,-1.3596e-05,0
2.816,6.3783e-06,0
2.8165,5.0187e-05,0
2.817,9.6178e-05,0
2.8175,0.00011733,0
2.818,0.00010574,0
2.8185,7.6875e-05,0
2.819,4.7501e-05,0
2.8195,2.7192e-05,0
2.82,1.5274e-05,0
2.8205,1.0239e-05,0
2.821,8.2246e-06,0
2.8215,1.326e-05,0
2.822,2.6017e-05,0
2.8225,3.5752e-05,0
2.823,3.508e-05,0
2.8235,2.4506e-05,0
2.824,1.0575e-05,0
2.8245,7.3854e-06,0
2.825,1.6617e-05,0
2.8255,2.9374e-05,0
2.826,3.4409e-05,0
2.8265,3.4745e-05,0
2.827,3.6423e-05,0
2.8275,3.6423e-05,0
2.828,3.5584e-05,0
2.8285,3.4073e-05,0
2.829,3.2395e-05,0
2.8295,3.3066e-05,0
2.83,3.978e-05,0
2.8305,4.5487e-05,0
2.831,4.7501e-05,0
2.8315,5.3544e-05,0
2.832,6.1601e-05,0
2.8325,6.2608e-05,0
2.833,5.623e-05,0
2.8335,5.0019e-05,0
2.834,4.6662e-05,0
2.8345,3.6759e-05,0
2.835,1.5106e-05,0
2.8355,-4.0284e-06,0
2.836,-7.7211e-06,0
2.8365,5.035e-07,0
2.837,5.539e-06,0
2.8375,-8.392e-07,0
2.838,-1.3932e-05,0
2.8385,-2.8199e-05,0
2.839,-4.0284e-05,0
2.8395,-5.153e-05,0
2.84,-6.1936e-05,0
2.8405,-6.6468e-05,0
2.841,-6.1936e-05,0
2.8415,-5.0187e-05,0
2.842,-3.0381e-05,0
2.8425,8.3925e-06,0
2.843,6.5461e-05,0
2.8435,0.00011397,0
2.844,0.00012471,0
2.8445,0.00010155,0
2.845,6.5629e-05,0
2.8455,2.9709e-05,0
2.846,4.5319e-06,0
2.8465,-3.1891e-06,0
2.847,1.8463e-06,0
2.8475,8.896e-06,0
2.848,1.2253e-05,0
2.8485,1.3428e-05,0
2.849,1.4099e-05,0
2.8495,1.0575e-05,0
2.85,3.5248e-06,0
2.8505,-2.182e-06,0
2.851,-2.8534e-06,0
2.8515,8.392e-07,0
2.852,-6.714e-07,0
2.8525,-1.0239e-05,0
2.853,-1.5106e-05,0
2.8535,-1.1917e-05,0
2.854,-8.896e-06,0
2.8545,-1.1749e-05,0
2.855,-1.6617e-05,0
2.8555,-1.5778e-05,0
2.856,-1.2589e-05,0
2.8565,-8.896e-06,0
2.857,4.1962e-06,0
2.8575,3.5248e-05,0
2.858,7.4357e-05,0
2.8585,9.5674e-05,0
2.859,9.0806e-05,0
2.8595,7.4357e-05,0
2.86,6.3279e-05,0
2.8605,5.9083e-05,0
2.861,5.5726e-05,0
2.8615,4.8173e-05,0
2.862,3.743e-05,0
2.8625,3.1388e-05,0
2.863,2.6688e-05,0
2.8635,1.6617e-05,0
2.864,-3.357e-07,0
2.8645,-1.2757e-05,0
2.865,-1.4603e-05,0
2.8655,-1.091e-05,0
2.866,-1.0239e-05,0
2.8665,-1.326e-05,0
2.867,-1.2924e-05,0
2.8675,-5.539e-06,0
2.868,7.0497e-06,0
2.8685,1.947e-05,0
2.869,3.0045e-05,0
2.8695,3.9445e-05,0
2.87,4.5655e-05,0
2.8705,4.8005e-05,0
2.871,5.0523e-05,0
2.8715,5.5222e-05,0
2.872,6.009e-05,0
2.8725,6.4958e-05,0
2.873,7.1839e-05,0
2.8735,7.8889e-05,0
2.874,8.2078e-05,0
2.8745,7.8386e-05,0
2.875,6.6972e-05,0
2.8755,5.0187e-05,0
2.876,3.2059e-05,0
2.8765,1.2589e-05,0
2.877,-6.5461e-06,0
2.8775,-2.6688e-05,0
2.878,-4.9348e-05,0
2.8785,-6.6133e-05,0
2.879,-7.2679e-05,0
2.8795,-6.9993e-05,0
2.88,-6.1601e-05,0
2.8805,-4.5487e-05,0
2.881,-2.4002e-05,0
2.8815,-4.1962e-06,0
2.882,7.7211e-06,0
2.8825,1.5442e-05,0
2.883,2.6184e-05,0
2.8835,3.7095e-05,0
2.884,3.592e-05,0
2.8845,2.2324e-05,0
2.885,1.7288e-05,0
2.8855,3.3402e-05,0
2.886,5.5894e-05,0
2.8865,6.8818e-05,0
2.887,7.2343e-05,0
2.8875,6.8315e-05,0
2.888,5.9587e-05,0
2.8885,5.3376e-05,0
2.889,5.6733e-05,0
2.8895,7.1336e-05,0
2.89,8.4764e-05,0
2.8905,7.805e-05,0
2.891,5.7237e-05,0
2.8915,3.7095e-05,0
2.892,1.9303e-05,0
2.8925,3.8605e-06,0
2.893,-1.4435e-05,0
2.8935,-3.4745e-05,0
2.894,-4.213e-05,0
2.8945,-2.8367e-05,0
2.895,-2.5177e-06,0
2.8955,1.6449e-05,0
2.896,2.0646e-05,0
2.8965,1.4771e-05,0
2.897,4.5319e-06,0
2.8975,-8.2246e-06,0
2.898,-1.9974e-05,0
2.8985,-3.1052e-05,0
2.899,-3.3066e-05,0
2.8995,-1.4603e-05,0
2.9,2.1317e-05,0
2.9005,5.3544e-05,0
2.901,6.9154e-05,0
2.9015,7.1336e-05,0
2.902,6.714e-05,0
2.9025,5.6901e-05,0
2.903,4.1962e-05,0
2.9035,3.4241e-05,0
2.904,3.8605e-05,0
2.9045,4.5823e-05,0
2.905,4.5151e-05,0
2.9055,3.6423e-05,0
2.906,2.3499e-05,0
2.9065,6.8818e-06,0
2.907,-6.5461e-06,0
2.9075,3.357e-07,0
2.908,2.3499e-05,0
2.9085,3.6423e-05,0
2.909,2.6352e-05,0
2.9095,3.8605e-06,0
2.91,-1.7288e-05,0
2.9105,-3.7766e-05,0
2.911,-5.388e-05,0
2.9115,-5.4719e-05,0
2.912,-3.7934e-05,0
2.9125,-6.3783e-06,0
2.913,2.4506e-05,0
2.9135,3.6423e-05,0
2.914,2.6688e-05,0
2.9145,1.0239e-05,0
2.915,6.8818e-06,0
2.9155,1.7288e-05,0
2.916,2.6017e-05,0
2.9165,2.4674e-05,0
2.917,1.8296e-05,0
2.9175,1.3596e-05,0
2.918,2.1988e-05,0
2.9185,4.8676e-05,0
2.919,7.7714e-05,0
2.9195,8.8457e-05,0
2.92,7.805e-05,0
2.9205,6.1936e-05,0
2.921,5.0187e-05,0
2.9215,4.1123e-05,0
2.922,4.1962e-05,0
2.9225,5.0187e-05,0
2.923,5.388e-05,0
2.9235,5.2033e-05,0
2.924,4.6159e-05,0
2.9245,3.743e-05,0
2.925,3.5416e-05,0
2.9255,3.7766e-05,0
2.926,3.3402e-05,0
2.9265,7.8889e-06,0
2.927,-4.3137e-05,0
2.9275,-9.6178e-05,0
2.928,-0.00012236,0
2.9285,-0.00011229,0
2.929,-7.9393e-05,0
2.9295,-4.5991e-05,0
2.93,-1.8296e-05,0
2.9305,4.1962e-06,0
2.931,2.1317e-05,0
2.9315,3.7766e-05,0
2.932,4.9515e-05,0
2.9325,4.3305e-05,0
2.933,2.1988e-05,0
2.9335,7.8889e-06,0
2.934,1.1078e-05,0
2.9345,2.6184e-05,0
2.935,4.6662e-05,0
2.9355,7.1e-05,0
2.936,9.2821e-05,0
2.9365,9.4163e-05,0
2.937,7.1672e-05,0
2.9375,3.8941e-05,0
2.938,6.5461e-06,0
2.9385,-2.3163e-05,0
2.939,-4.7166e-05,0
2.9395,-4.8005e-05,0
2.94,-1.8463e-05,0
2.9405,2.5345e-05,0
2.941,5.8244e-05,0
2.9415,7.1336e-05,0
2.942,7.1672e-05,0
2.9425,6.865e-05,0
2.943,6.7475e-05,0
2.9435,7.1e-05,0
2.944,7.57e-05,0
2.9445,7.9057e-05,0
2.945,7.7378e-05,0
2.9455,6.9657e-05,0
2.946,5.7572e-05,0
2.9465,4.4984e-05,0
2.947,3.8605e-05,0
2.9475,3.5248e-05,0
2.948,3.3402e-05,0
2.9485,3.2059e-05,0
2.949,3.1052e-05,0
2.9495,1.9303e-05,0
2.95,-1.2085e-05,0
2.9505,-4.9348e-05,0
2.951,-7.1504e-05,0
2.9515,-6.3447e-05,0
2.952,-4.4144e-05,0
2.9525,-3.4745e-05,0
2.953,-2.4674e-05,0
2.9535,0,0
2.954,2.6688e-05,0
2.9545,4.2298e-05,0
2.955,3.2731e-05,0
2.9555,1.5106e-06,0
2.956,-2.4338e-05,0
2.9565,-2.4674e-05,0
2.957,-4.8676e-06,0
2.9575,2.5681e-05,0
2.958,5.2201e-05,0
2.9585,5.7908e-05,0
2.959,3.4409e-05,0
2.9595,0,0
2.96,-2.3667e-05,0
2.9605,-3.7262e-05,0
2.961,-5.3208e-05,0
2.9615,-6.9993e-05,0
2.962,-7.0664e-05,0
2.9625,-3.8102e-05,0
2.963,7.3854e-06,0
2.9635,3.9445e-05,0
2.964,5.2201e-05,0
2.9645,5.153e-05,0
2.965,4.3809e-05,0
2.9655,3.4745e-05,0
2.966,2.8199e-05,0
2.9665,2.6688e-05,0
2.967,2.8367e-05,0
2.9675,3.508e-05,0
2.968,5.0523e-05,0
2.9685,6.63e-05,0
2.969,7.2175e-05,0
2.9695,6.6972e-05,0
2.97,5.6901e-05,0
2.9705,4.8508e-05,0
2.971,4.4144e-05,0
2.9715,4.683e-05,0
2.972,5.0355e-05,0
2.9725,5.4048e-05,0
2.973,6.0761e-05,0
2.9735,7.1e-05,0
2.974,8.1407e-05,0
2.9745,8.9296e-05,0
2.975,9.4835e-05,0
2.9755,9.5171e-05,0
2.976,8.7785e-05,0
2.9765,7.6371e-05,0
2.977,6.0258e-05,0
2.9775,4.3473e-05,0
2.978,3.6088e-05,0
2.9785,4.0787e-05,0
2.979,5.0858e-05,0
2.9795,5.1362e-05,0
2.98,3.0716e-05,0
2.9805,-1.091e-05,0
2.981,-5.623e-05,0
2.9815,-9.2989e-05,0
2.982,-0.00011514,0
2.9825,-0.00012387,0
2.983,-0.000118,0
2.9835,-9.5674e-05,0
2.984,-5.8915e-05,0
2.9845,-2.2324e-05,0
2.985,-6.0426e-06,0
2.9855,-1.1078e-05,0
2.986,-1.9974e-05,0
2.9865,-1.2924e-05,0
2.987,1.1078e-05,0
2.9875,3.5752e-05,0
2.988,5.153e-05,0
2.9885,6.0929e-05,0
2.989,6.1601e-05,0
2.9895,5.5222e-05,0
2.99,4.7669e-05,0
2.9905,3.8773e-05,0
2.991,2.5177e-05,0
2.9915,1.4603e-05,0
2.992,1.5946e-05,0
2.9925,2.266e-05,0
2.993,2.4002e-05,0
2.9935,1.9974e-05,0
2.994,1.0239e-05,0
2.9945,-8.392e-07,0
2.995,-2.182e-06,0
2.9955,2.3499e-06,0
2.996,5.7069e-06,0
2.9965,1.6785e-05,0
2.997,3.2059e-05,0
2.9975,4.213e-05,0
2.998,5.3208e-05,0
2.9985,6.6636e-05,0
2.999,6.2944e-05,0
2.9995,3.2395e-05,0
3,1.1749e-06,0
3.0005,-1.8463e-06,0
3.001,1.6785e-05,0
3.0015,3.592e-05,0
3.002,5.7404e-05,0
3.0025,8.2246e-05,0
3.003,9.2821e-05,0
3.0035,7.3014e-05,0
3.004,2.8199e-05,0
3.0045,-1.6281e-05,0
3.005,-4.213e-05,0
3.0055,-5.1362e-05,0
3.006,-5.5894e-05,0
3.0065,-5.5894e-05,0
3.007,-3.1724e-05,0
3.0075,2.0813e-05,0
3.008,7.1336e-05,0
3.0085,9.2989e-05,0
3.009,9.2149e-05,0
3.0095,8.9632e-05,0
3.01,8.9967e-05,0
3.0105,8.3757e-05,0
3.011,6.4958e-05,0
3.0115,4.2634e-05,0
3.012,2.4338e-05,0
3.0125,9.9031e-06,0
3.013,-5.0355e-06,0
3.0135,-9.3996e-06,0
3.014,5.0355e-06,0
3.0145,3.1388e-05,0
3.015,5.4551e-05,0
3.0155,5.8915e-05,0
3.016,4.1795e-05,0
3.0165,1.9303e-05,0
3.017,1.0071e-05,0
3.0175,2.0981e-05,0
3.018,4.5151e-05,0
3.0185,6.5293e-05,0
3.019,6.8315e-05,0
3.0195,5.623e-05,0
3.02,4.6662e-05,0
3.0205,5.623e-05,0
3.021,7.2007e-05,0
3.0215,6.4118e-05,0
3.022,2.9038e-05,0
3.0225,-6.5461e-06,0
3.023,-2.4506e-05,0
3.0235,-2.8031e-05,0
3.024,-2.7359e-05,0
3.0245,-2.4506e-05,0
3.025,-1.9806e-05,0
3.0255,-1.3596e-05,0
3.026,-1.6785e-06,0
3.0265,9.9031e-06,0
3.027,1.1917e-05,0
3.0275,2.5177e-06,0
3.028,-2.4338e-05,0
3.0285,-5.5055e-05,0
3.029,-5.9251e-05,0
3.0295,-3.7262e-05,0
3.03,-1.8967e-05,0
3.0305,-2.6688e-05,0
3.031,-5.6062e-05,0
3.0315,-9.0639e-05,0
3.032,-0.00011313,0
3.0325,-0.00011548,0
3.033,-0.00010541,0
3.0335,-7.5364e-05,0
3.034,-4.5319e-06,0
3.0345,8.1407e-05,0
3.035,0.00012689,0
3.0355,0.0001227,0
3.036,9.4667e-05,0
3.0365,6.9657e-05,0
3.037,5.5558e-05,0
3.0375,5.1194e-05,0
3.038,5.8076e-05,0
3.0385,7.1839e-05,0
3.039,7.6707e-05,0
3.0395,6.865e-05,0
3.04,6.1433e-05,0
3.0405,6.8315e-05,0
3.041,8.4932e-05,0
3.0415,9.6178e-05,0
3.042,9.1646e-05,0
3.0425,6.9322e-05,0
3.043,3.8437e-05,0
3.0435,1.9303e-05,0
3.044,1.9806e-05,0
3.0445,1.7624e-05,0
3.045,-1.4771e-05,0
3.0455,-6.3951e-05,0
3.046,-8.3085e-05,0
3.0465,-5.8412e-05,0
3.047,-2.1653e-05,0
3.0475,-6.714e-07,0
3.048,7.5532e-06,0
3.0485,1.9303e-05,0
3.049,4.1962e-05,0
3.0495,6.4286e-05,0
3.05,6.6972e-05,0
3.0505,5.2201e-05,0
3.051,3.7766e-05,0
3.0515,3.0213e-05,0
3.052,2.1317e-05,0
3.0525,3.8605e-06,0
3.053,-1.326e-05,0
3.0535,-1.7288e-05,0
3.054,-9.7353e-06,0
3.0545,-3.357e-06,0
3.055,-1.091e-05,0
3.0555,-3.1052e-05,0
3.056,-4.683e-05,0
3.0565,-3.7934e-05,0
3.057,-6.8818e-06,0
3.0575,2.2995e-05,0
3.058,3.5416e-05,0
3.0585,3.7934e-05,0
3.059,4.4144e-05,0
3.0595,5.3208e-05,0
3.06,5.5558e-05,0
3.0605,4.8173e-05,0
3.061,3.743e-05,0
3.0615,3.4073e-05,0
3.062,3.6759e-05,0
3.0625,4.1459e-05,0
3.063,4.9348e-05,0
3.0635,6.6133e-05,0
3.064,8.4764e-05,0
3.0645,8.661e-05,0
3.065,6.6972e-05,0
3.0655,4.0787e-05,0
3.066,1.8967e-05,0
3.0665,7.7211e-06,0
3.067,4.8676e-06,0
3.0675,1.678e-07,0
3.068,-6.2104e-06,0
3.0685,-8.896e-06,0
3.069,-1.3092e-05,0
3.0695,-2.2995e-05,0
3.07,-2.6688e-05,0
3.0705,-1.796e-05,0
3.071,-3.8605e-06,0
3.0715,1.4435e-05,0
3.072,4.1123e-05,0
3.0725,6.4286e-05,0
3.073,7.5029e-05,0
3.0735,7.2343e-05,0
3.074,6.0594e-05,0
3.0745,5.0523e-05,0
3.075,4.6326e-05,0
3.0755,4.0452e-05,0
3.076,2.9038e-05,0
3.0765,2.4002e-05,0
3.077,2.7695e-05,0
3.0775,3.0045e-05,0
3.078,2.652e-05,0
3.0785,2.5009e-05,0
3.079,2.6352e-05,0
3.0795,2.6017e-05,0
3.08,2.3163e-05,0
3.0805,1.8296e-05,0
3.081,9.7353e-06,0
3.0815,-2.8534e-06,0
3.082,-1.4939e-05,0
3.0825,-1.8128e-05,0
3.083,-7.8889e-06,0
3.0835,1.4771e-05,0
3.084,3.9445e-05,0
3.0845,4.5487e-05,0
3.085,3.6759e-05,0
3.0855,2.9374e-05,0
3.086,2.6688e-05,0
3.0865,2.266e-05,0
3.087,1.2085e-05,0
3.0875,1.8463e-06,0
3.088,-3.0213e-06,0
3.0885,-9.2317e-06,0
3.089,-1.9638e-05,0
3.0895,-2.8031e-05,0
3.09,-2.6352e-05,0
3.0905,-1.9135e-05,0
3.091,-1.7288e-05,0
3.0915,-7.7211e-06,0
3.092,1.3596e-05,0
3.0925,2.3667e-05,0
3.093,2.8534e-05,0
3.0935,4.1962e-05,0
3.094,5.5726e-05,0
3.0945,5.388e-05,0
3.095,3.8437e-05,0
3.0955,2.887e-05,0
3.096,3.1388e-05,0
3.0965,2.6688e-05,0
3.097,1.678e-07,0
3.0975,-2.6688e-05,0
3.098,-3.5752e-05,0
3.0985,-3.508e-05,0
3.099,-3.4913e-05,0
3.0995,-2.9709e-05,0
3.1,-1.6449e-05,0
3.1005,7.2175e-06,0
3.101,4.0955e-05,0
3.1015,6.5965e-05,0
3.102,6.63e-05,0
3.1025,4.5487e-05,0
3.103,2.266e-05,0
3.1035,3.1891e-06,0
3.104,-9.5674e-06,0
3.1045,-9.5674e-06,0
3.105,1.326e-05,0
3.1055,5.8915e-05,0
3.106,9.9199e-05,0
3.1065,0.00011044,0
3.107,9.8863e-05,0
3.1075,8.51e-05,0
3.108,8.3757e-05,0
3.1085,9.4835e-05,0
3.109,0.00010625,0
3.1095,0.00011196,0
3.11,0.00011464,0
3.1105,0.00011666,0
3.111,0.00010625,0
3.1115,6.9154e-05,0
3.112,7.5532e-06,0
3.1125,-6.6636e-05,0
3.113,-0.00012807,0
3.1135,-0.00014418,0
3.114,-0.00011263,0
3.1145,-5.9754e-05,0
3.115,-1.4603e-05,0
