0,0,0
0.0005,0,0
0.001,0,0
0.0015,0,0
0.002,0,0
0.0025,0,0
0.003,0,0
0.0035,0,0
0.004,0,0
0.0045,0,0
0.005,0,0
0.0055,0,0
0.006,0,0
0.0065,0,0
0.007,0,0
0.0075,0,0
0.008,0,0
0.0085,0,0
0.009,0,0
0.0095,0,0
0.01,0,0
0.0105,0,0
0.011,0,0
0.0115,0,0
0.012,0,0
0.0125,0,0
0.013,-5.2033e-06,0
0.0135,-1.1749e-06,0
0.014,4.1962e-06,0
0.0145,7.2175e-06,0
0.015,7.7211e-06,0
0.0155,1.561e-05,0
0.016,3.3402e-05,0
0.0165,4.3977e-05,0
0.017,4.1291e-05,0
0.0175,3.7095e-05,0
0.018,3.5416e-05,0
0.0185,3.8102e-05,0
0.019,4.2802e-05,0
0.0195,3.8605e-05,0
0.02,2.6184e-05,0
0.0205,1.6617e-05,0
0.021,1.5274e-05,0
0.0215,1.6617e-05,0
0.022,1.7624e-05,0
0.0225,1.3932e-05,0
0.023,1.0239e-05,0
0.0235,7.2175e-06,0
0.024,3.1891e-06,0
0.0245,-2.6856e-06,0
0.025,-9.7353e-06,0
0.0255,-1.2085e-05,0
0.026,-3.5248e-06,0
0.0265,2.1988e-05,0
0.027,5.3376e-05,0
0.0275,6.6804e-05,0
0.028,5.8747e-05,0
0.0285,4.9348e-05,0
0.029,3.978e-05,0
0.0295,2.7695e-05,0
0.03,1.5946e-05,0
0.0305,1.5106e-06,0
0.031,-7.5532e-06,0
0.0315,-1.1749e-06,0
0.032,3.357e-07,0
0.0325,-2.5177e-06,0
0.033,1.6785e-06,0
0.0335,1.0575e-05,0
0.034,2.2995e-05,0
0.0345,3.3402e-05,0
0.035,4.1795e-05,0
0.0355,5.2872e-05,0
0.036,6.4958e-05,0
0.0365,6.5965e-05,0
0.037,5.6565e-05,0
0.0375,4.8508e-05,0
0.038,4.1795e-05,0
0.0385,2.6688e-05,0
0.039,-1.0071e-06,0
0.0395,-3.4577e-05,0
0.04,-6.0761e-05,0
0.0405,-6.8986e-05,0
0.041,-5.6565e-05,0
0.0415,-3.2395e-05,0
0.042,-2.4002e-05,0
0.0425,-3.9948e-05,0
0.043,-5.9922e-05,0
0.0435,-7.0161e-05,0
0.044,-6.3279e-05,0
0.0445,-3.2563e-05,0
0.045,9.5674e-06,0
0.0455,4.918e-05,0
0.046,7.2511e-05,0
0.0465,9.0471e-05,0
0.047,0.00011968,0
0.0475,0.00014989,0
0.048,0.00015492,0
0.0485,0.00013193,0
0.049,9.752e-05,0
0.0495,6.8315e-05,0
0.05,4.8676e-05,0
0.0505,3.357e-05,0
0.051,2.0813e-05,0
0.0515,8.896e-06,0
0.052,0,0
0.0525,0,0
0.053,0,0
0.0535,0,0
0.054,0,0
0.0545,0,0
0.055,0,0
0.0555,0,0
0.056,0,0
0.0565,0,0
0.057,0,0
0.0575,0,0
0.058,0,0
0.0585,0,0
0.059,0,0
0.0595,0,0
0.06,0,0
0.0605,0,0
0.061,0,0
0.0615,0,0
0.062,0,0
0.0625,0,0
0.063,0,0
0.0635,0,0
0.064,0,0
0.0645,0,0
0.065,1.8296e-05,0
0.0655,2.182e-06,0
0.066,-4.0284e-06,0
0.0665,-1.1582e-05,0
0.067,-2.652e-05,0
0.0675,-3.2898e-05,0
0.068,-3.2731e-05,0
0.0685,-3.0381e-05,0
0.069,-2.4674e-05,0
0.0695,-2.0981e-05,0
0.07,-1.8967e-05,0
0.0705,-7.0497e-06,0
0.071,1.1078e-05,0
0.0715,2.4506e-05,0
0.072,3.0045e-05,0
0.0725,3.1052e-05,0
0.073,2.9038e-05,0
0.0735,1.947e-05,0
0.074,5.2033e-06,0
0.0745,-1.5106e-06,0
0.075,3.5248e-06,0
0.0755,1.4267e-05,0
0.076,2.266e-05,0
0.0765,2.7359e-05,0
0.077,3.3402e-05,0
0.0775,4.3809e-05,0
0.078,4.6159e-05,0
0.0785,3.7766e-05,0
0.079,3.3234e-05,0
0.0795,3.5416e-05,0
0.08,3.7934e-05,0
0.0805,3.5416e-05,0
0.081,2.5681e-05,0
0.0815,1.326e-05,0
0.082,7.8889e-06,0
0.0825,4.5319e-06,0
0.083,-4.5319e-06,0
0.0835,-7.5532e-06,0
0.084,-1.1749e-06,0
0.0845,8.5603e-06,0
0.085,1.6953e-05,0
0.0855,2.266e-05,0
0.086,2.7527e-05,0
0.0865,2.8534e-05,0
0.087,2.4674e-05,0
0.0875,2.0813e-05,0
0.088,1.8799e-05,0
0.0885,2.1317e-05,0
0.089,2.7359e-05,0
0.0895,2.9206e-05,0
0.09,2.5177e-05,0
0.0905,1.9303e-05,0
0.091,1.7624e-05,0
0.0915,2.3331e-05,0
0.092,3.2563e-05,0
0.0925,3.1052e-05,0
0.093,1.8631e-05,0
0.0935,1.1246e-05,0
0.094,1.1246e-05,0
0.0945,1.1246e-05,0
0.095,1.796e-05,0
0.0955,2.8702e-05,0
0.096,2.9038e-05,0
0.0965,2.266e-05,0
0.097,1.1917e-05,0
0.0975,3.6927e-06,0
0.098,1.0407e-05,0
0.0985,2.1988e-05,0
0.099,2.0981e-05,0
0.0995,1.2924e-05,0
0.1,2.3499e-06,0
0.1005,-9.7353e-06,0
0.101,-1.9135e-05,0
0.1015,-2.1317e-05,0
0.102,-1.8463e-05,0
0.1025,-1.2924e-05,0
0.103,-4.8676e-06,0
0.1035,6.2104e-06,0
0.104,1.6953e-05,0
0.1045,2.3835e-05,0
0.105,3.0381e-05,0
0.1055,4.4312e-05,0
0.106,7.4357e-05,0
0.1065,0.00010373,0
0.107,9.6849e-05,0
0.1075,6.5293e-05,0
0.108,4.5151e-05,0
0.1085,3.7262e-05,0
0.109,3.2731e-05,0
0.1095,3.4745e-05,0
0.11,3.8102e-05,0
0.1105,4.6662e-05,0
0.111,5.623e-05,0
0.1115,4.6159e-05,0
0.112,3.2563e-05,0
0.1125,4.0787e-05,0
0.113,5.6062e-05,0
0.1135,5.6733e-05,0
0.114,4.1123e-05,0
0.1145,1.9638e-05,0
0.115,1.1414e-05,0
0.1155,2.182e-05,0
0.116,3.0045e-05,0
0.1165,2.6017e-05,0
0.117,1.5946e-05,0
0.1175,9.9031e-06,0
0.118,1.5946e-05,0
0.1185,2.5009e-05,0
0.119,1.4603e-05,0
0.1195,-3.1891e-06,0
0.12,-1.2253e-05,0
0.1205,-1.5946e-05,0
0.121,-1.1414e-05,0
0.1215,5.8747e-06,0
0.122,2.2324e-05,0
0.1225,1.796e-05,0
0.123,-6.3783e-06,0
0.1235,-2.3835e-05,0
0.124,-1.8967e-05,0
0.1245,-2.3499e-06,0
0.125,1.091e-05,0
0.1255,1.2421e-05,0
0.126,5.2033e-06,0
0.1265,-5.035e-07,0
0.127,-2.8534e-06,0
0.1275,-3.5248e-06,0
0.128,-4.1962e-06,0
0.1285,-1.8463e-06,0
0.129,6.8818e-06,0
0.1295,1.326e-05,0
0.13,1.0575e-05,0
0.1305,7.5532e-06,0
0.131,1.1917e-05,0
0.1315,1.8631e-05,0
0.132,2.0142e-05,0
0.1325,2.652e-05,0
0.133,3.0213e-05,0
0.1335,2.5009e-05,0
0.134,1.947e-05,0
0.1345,1.5946e-05,0
0.135,1.5946e-05,0
0.1355,2.0142e-05,0
0.136,2.2156e-05,0
0.1365,2.0981e-05,0
0.137,2.7192e-05,0
0.1375,3.1388e-05,0
0.138,2.8031e-05,0
0.1385,2.2156e-05,0
0.139,1.8128e-05,0
0.1395,1.4771e-05,0
0.14,1.5442e-05,0
0.1405,1.7624e-05,0
0.141,2.0646e-05,0
0.1415,2.9374e-05,0
0.142,3.9445e-05,0
0.1425,3.743e-05,0
0.143,2.7024e-05,0
0.1435,2.0646e-05,0
0.144,2.0813e-05,0
0.1445,2.2995e-05,0
0.145,2.8702e-05,0
0.1455,4.0452e-05,0
0.146,4.1459e-05,0
0.1465,3.1388e-05,0
0.147,2.266e-05,0
0.1475,1.3596e-05,0
0.148,5.2033e-06,0
0.1485,8.3925e-06,0
0.149,1.4435e-05,0
0.1495,1.326e-05,0
0.15,1.3932e-05,0
0.1505,1.7288e-05,0
0.151,1.796e-05,0
0.1515,1.8128e-05,0
0.152,2.0478e-05,0
0.1525,2.2324e-05,0
0.153,2.1988e-05,0
0.1535,1.8631e-05,0
0.154,1.3932e-05,0
0.1545,8.7282e-06,0
0.155,6.714e-07,0
0.1555,-7.0497e-06,0
0.156,-9.7353e-06,0
0.1565,-7.5532e-06,0
0.157,-6.714e-07,0
0.1575,1.2253e-05,0
0.158,2.2324e-05,0
0.1585,3.2395e-05,0
0.159,3.743e-05,0
0.1595,3.508e-05,0
0.16,3.6759e-05,0
0.1605,3.5416e-05,0
0.161,3.0045e-05,0
0.1615,2.9877e-05,0
0.162,2.031e-05,0
0.1625,1.8463e-06,0
0.163,-1.0239e-05,0
0.1635,-7.3854e-06,0
0.164,5.539e-06,0
0.1645,2.0646e-05,0
0.165,2.4002e-05,0
0.1655,1.9638e-05,0
0.166,2.4002e-05,0
0.1665,3.3234e-05,0
0.167,4.1123e-05,0
0.1675,5.153e-05,0
0.168,5.623e-05,0
0.1685,4.5823e-05,0
0.169,2.8199e-05,0
0.1695,1.5442e-05,0
0.17,1.5778e-05,0
0.1705,1.9303e-05,0
0.171,2.4674e-05,0
0.1715,3.9948e-05,0
0.172,5.1194e-05,0
0.1725,5.0187e-05,0
0.173,4.2802e-05,0
0.1735,3.4241e-05,0
0.174,2.8031e-05,0
0.1745,3.3234e-05,0
0.175,3.743e-05,0
0.1755,3.357e-05,0
0.176,3.2731e-05,0
0.1765,2.7527e-05,0
0.177,1.2253e-05,0
0.1775,-5.035e-07,0
0.178,-5.539e-06,0
0.1785,-1.4267e-05,0
0.179,-3.0381e-05,0
0.1795,-5.1362e-05,0
0.18,-7.0664e-05,0
0.1805,-6.949e-05,0
0.181,-4.2466e-05,0
0.1815,-7.5532e-06,0
0.182,1.7288e-05,0
0.1825,3.0716e-05,0
0.183,3.6423e-05,0
0.1835,4.0452e-05,0
0.184,4.6494e-05,0
0.1845,6.2776e-05,0
0.185,7.6707e-05,0
0.1855,8.5771e-05,0
0.186,8.191e-05,0
0.1865,5.9587e-05,0
0.187,3.508e-05,0
0.1875,2.3331e-05,0
0.188,1.9135e-05,0
0.1885,2.0981e-05,0
0.189,2.9709e-05,0
0.1895,3.2395e-05,0
0.19,2.6688e-05,0
0.1905,1.8631e-05,0
0.191,1.7792e-05,0
0.1915,2.6352e-05,0
0.192,4.2802e-05,0
0.1925,5.9419e-05,0
0.193,6.0594e-05,0
0.1935,5.0019e-05,0
0.194,3.4745e-05,0
0.1945,1.6953e-05,0
0.195,0,0
0.1955,-1.0407e-05,0
0.196,-1.2924e-05,0
0.1965,-6.8818e-06,0
0.197,-2.182e-06,0
0.1975,-2.8534e-06,0
0.198,-1.3092e-05,0
0.1985,-2.1988e-05,0
0.199,-2.0981e-05,0
0.1995,-1.2253e-05,0
0.2,2.8534e-06,0
0.2005,1.796e-05,0
0.201,2.182e-05,0
0.2015,1.5946e-05,0
0.202,1.796e-05,0
0.2025,2.9038e-05,0
0.203,3.8773e-05,0
0.2035,3.8437e-05,0
0.204,2.5177e-05,0
0.2045,2.3499e-06,0
0.205,-1.6617e-05,0
0.2055,-1.796e-05,0
0.206,-8.896e-06,0
0.2065,-1.1749e-06,0
0.207,6.3783e-06,0
0.2075,1.4603e-05,0
0.208,2.4002e-05,0
0.2085,3.8437e-05,0
0.209,5.623e-05,0
0.2095,6.4286e-05,0
0.21,4.9851e-05,0
0.2105,2.7863e-05,0
0.211,1.4939e-05,0
0.2115,9.2317e-06,0
0.212,9.2317e-06,0
0.2125,1.3092e-05,0
0.213,1.9806e-05,0
0.2135,3.0716e-05,0
0.214,3.8605e-05,0
0.2145,4.683e-05,0
0.215,5.7908e-05,0
0.2155,5.1865e-05,0
0.216,2.8702e-05,0
0.2165,4.8676e-06,0
0.217,-9.5674e-06,0
0.2175,-1.4267e-05,0
0.218,-1.3596e-05,0
0.2185,-1.5106e-05,0
0.219,-1.9638e-05,0
0.2195,-1.3764e-05,0
0.22,1.0071e-06,0
0.2205,6.714e-06,0
0.221,-1.5106e-06,0
0.2215,-1.5106e-05,0
0.222,-1.561e-05,0
0.2225,3.6927e-06,0
0.223,2.266e-05,0
0.2235,3.2059e-05,0
0.224,2.9877e-05,0
0.2245,3.2563e-05,0
0.225,4.7501e-05,0
0.2255,5.4719e-05,0
0.226,5.5055e-05,0
0.2265,6.4958e-05,0
0.227,8.2078e-05,0
0.2275,9.2485e-05,0
0.228,8.4428e-05,0
0.2285,6.6972e-05,0
0.229,4.7501e-05,0
0.2295,2.3331e-05,0
0.23,4.8676e-06,0
0.2305,-4.1962e-06,0
0.231,-7.8889e-06,0
0.2315,-1.1917e-05,0
0.232,-1.8967e-05,0
0.2325,-2.266e-05,0
0.233,-1.3764e-05,0
0.2335,0,0
0.234,7.3854e-06,0
0.2345,3.8605e-06,0
0.235,3.6927e-06,0
0.2355,8.2246e-06,0
0.236,1.4603e-05,0
0.2365,3.0045e-05,0
0.237,4.5487e-05,0
0.2375,5.2537e-05,0
0.238,5.2201e-05,0
0.2385,3.8773e-05,0
0.239,1.9974e-05,0
0.2395,1.561e-05,0
0.24,1.8296e-05,0
0.2405,2.0478e-05,0
0.241,2.8031e-05,0
0.2415,3.2059e-05,0
0.242,2.6688e-05,0
0.2425,1.3764e-05,0
0.243,2.3499e-06,0
0.2435,3.357e-07,0
0.244,1.3428e-06,0
0.2445,-2.6856e-06,0
0.245,-8.2246e-06,0
0.2455,-4.8676e-06,0
0.246,1.5946e-05,0
0.2465,4.6159e-05,0
0.247,6.3615e-05,0
0.2475,6.1601e-05,0
0.248,4.918e-05,0
0.2485,3.6088e-05,0
0.249,2.9038e-05,0
0.2495,3.2898e-05,0
0.25,3.7766e-05,0
0.2505,3.8773e-05,0
0.251,3.9445e-05,0
0.2515,3.1052e-05,0
0.252,1.6281e-05,0
0.2525,1.0071e-05,0
0.253,7.2175e-06,0
0.2535,7.0497e-06,0
0.254,1.326e-05,0
0.2545,1.9135e-05,0
0.255,1.9303e-05,0
0.2555,7.8889e-06,0
0.256,-1.1414e-05,0
0.2565,-2.5345e-05,0
0.257,-2.8199e-05,0
0.2575,-2.266e-05,0
0.258,-2.4674e-05,0
0.2585,-3.9445e-05,0
0.259,-5.1865e-05,0
0.2595,-4.7166e-05,0
0.26,-3.0213e-05,0
0.2605,-1.2757e-05,0
0.261,1.6785e-06,0
0.2615,1.2421e-05,0
0.262,1.9303e-05,0
0.2625,3.3738e-05,0
0.263,4.7501e-05,0
0.2635,5.9587e-05,0
0.264,9.3492e-05,0
0.2645,0.00014553,0
0.265,0.00016902,0
0.2655,0.00013478,0
0.266,6.7643e-05,0
0.2665,2.2492e-05,0
0.267,1.5946e-05,0
0.2675,1.6449e-05,0
0.268,-6.714e-07,0
0.2685,-2.9709e-05,0
0.269,-4.7166e-05,0
0.2695,-4.5823e-05,0
0.27,-3.4409e-05,0
0.2705,-7.8889e-06,0
0.271,3.0716e-05,0
0.2715,5.8915e-05,0
0.272,5.2201e-05,0
0.2725,3.0381e-05,0
0.273,3.1556e-05,0
0.2735,4.7333e-05,0
0.274,5.4551e-05,0
0.2745,5.388e-05,0
0.275,5.0858e-05,0
0.2755,5.0858e-05,0
0.276,4.7501e-05,0
0.2765,3.9109e-05,0
0.277,2.7695e-05,0
0.2775,1.7792e-05,0
0.278,1.4435e-05,0
0.2785,1.7121e-05,0
0.279,9.9031e-06,0
0.2795,-9.5674e-06,0
0.28,-2.2995e-05,0
0.2805,-2.2324e-05,0
0.281,-1.5274e-05,0
0.2815,-8.5603e-06,0
0.282,-4.1962e-06,0
0.2825,-1.5106e-06,0
0.283,3.357e-06,0
0.2835,5.0355e-06,0
0.284,5.8747e-06,0
0.2845,1.3932e-05,0
0.285,2.4002e-05,0
0.2855,2.5177e-05,0
0.286,1.9135e-05,0
0.2865,3.5248e-06,0
0.287,-1.1582e-05,0
0.2875,-1.561e-05,0
0.288,-6.8818e-06,0
0.2885,1.4435e-05,0
0.289,3.9445e-05,0
0.2895,5.9754e-05,0
0.29,6.8315e-05,0
0.2905,6.1097e-05,0
0.291,5.2705e-05,0
0.2915,5.3208e-05,0
0.292,4.683e-05,0
0.2925,3.6423e-05,0
0.293,3.4745e-05,0
0.2935,3.5416e-05,0
0.294,2.7359e-05,0
0.2945,1.0239e-05,0
0.295,-8.7282e-06,0
0.2955,-1.9303e-05,0
0.296,-1.3932e-05,0
0.2965,-1.1749e-06,0
0.297,5.539e-06,0
0.2975,3.1891e-06,0
0.298,-1.5106e-06,0
0.2985,-5.2033e-06,0
0.299,-6.8818e-06,0
0.2995,-5.2033e-06,0
0.3,2.5177e-06,0
0.3005,5.0355e-06,0
0.301,-3.8605e-06,0
0.3015,-2.3499e-06,0
0.302,3.8605e-06,0
0.3025,4.8676e-06,0
0.303,6.714e-06,0
0.3035,3.5248e-06,0
0.304,-6.8818e-06,0
0.3045,-1.8967e-05,0
0.305,-2.9709e-05,0
0.3055,-2.9038e-05,0
0.306,-1.2085e-05,0
0.3065,3.5248e-06,0
0.307,1.4267e-05,0
0.3075,3.6759e-05,0
0.308,6.0929e-05,0
0.3085,6.0761e-05,0
0.309,4.9515e-05,0
0.3095,5.4215e-05,0
0.31,7.1e-05,0
0.3105,7.9057e-05,0
0.311,7.5029e-05,0
0.3115,6.9322e-05,0
0.312,6.7979e-05,0
0.3125,7.0329e-05,0
0.313,6.3951e-05,0
0.3135,4.7501e-05,0
0.314,3.6591e-05,0
0.3145,3.2059e-05,0
0.315,1.7792e-05,0
0.3155,0,0
0.316,-7.0497e-06,0
0.3165,-5.7069e-06,0
0.317,8.7282e-06,0
0.3175,2.8702e-05,0
0.318,3.0716e-05,0
0.3185,2.9374e-05,0
0.319,4.448e-05,0
0.3195,5.9251e-05,0
0.32,5.7237e-05,0
0.3205,4.0955e-05,0
0.321,2.031e-05,0
0.3215,-3.1891e-06,0
0.322,-3.1052e-05,0
0.3225,-5.5055e-05,0
0.323,-5.8915e-05,0
0.3235,-4.1123e-05,0
0.324,-1.7624e-05,0
0.3245,3.357e-06,0
0.325,3.4745e-05,0
0.3255,6.3615e-05,0
0.326,6.3951e-05,0
0.3265,4.1459e-05,0
0.327,2.5345e-05,0
0.3275,2.4674e-05,0
0.328,2.266e-05,0
0.3285,1.2924e-05,0
0.329,7.8889e-06,0
0.3295,1.1078e-05,0
0.33,1.561e-05,0
0.3305,2.1988e-05,0
0.331,2.7359e-05,0
0.3315,3.0381e-05,0
0.332,3.0716e-05,0
0.3325,3.122e-05,0
0.333,3.2395e-05,0
0.3335,2.9038e-05,0
0.334,2.2324e-05,0
0.3345,2.182e-05,0
0.335,2.652e-05,0
0.3355,3.0549e-05,0
0.336,3.0045e-05,0
0.3365,2.6688e-05,0
0.337,2.2995e-05,0
0.3375,2.4338e-05,0
0.338,3.2898e-05,0
0.3385,4.4144e-05,0
0.339,4.5991e-05,0
0.3395,3.6088e-05,0
0.34,2.0646e-05,0
0.3405,1.1582e-05,0
0.341,8.7282e-06,0
0.3415,1.1414e-05,0
0.342,2.4338e-05,0
0.3425,3.2059e-05,0
0.343,2.7695e-05,0
0.3435,2.3331e-05,0
0.344,2.1317e-05,0
0.3445,2.4338e-05,0
0.345,3.6423e-05,0
0.3455,4.8173e-05,0
0.346,4.5487e-05,0
0.3465,3.0716e-05,0
0.347,1.1246e-05,0
0.3475,-2.3499e-06,0
0.348,-5.2033e-06,0
0.3485,-7.5532e-06,0
0.349,-1.4603e-05,0
0.3495,-2.2995e-05,0
0.35,-3.2395e-05,0
0.3505,-4.0452e-05,0
0.351,-4.1123e-05,0
0.3515,-3.3402e-05,0
0.352,-2.0981e-05,0
0.3525,-1.1246e-05,0
0.353,-3.357e-06,0
0.3535,7.0497e-06,0
0.354,1.1582e-05,0
0.3545,1.2589e-05,0
0.355,2.031e-05,0
0.3555,2.652e-05,0
0.356,2.8031e-05,0
0.3565,2.9038e-05,0
0.357,2.6352e-05,0
0.3575,2.3667e-05,0
0.358,2.9038e-05,0
0.3585,3.8102e-05,0
0.359,4.5487e-05,0
0.3595,5.9587e-05,0
0.36,8.3085e-05,0
0.3605,9.5842e-05,0
0.361,8.6442e-05,0
0.3615,7.6707e-05,0
0.362,7.1e-05,0
0.3625,5.623e-05,0
0.363,3.2731e-05,0
0.3635,2.0981e-05,0
0.364,2.8031e-05,0
0.3645,4.0116e-05,0
0.365,4.2466e-05,0
0.3655,2.887e-05,0
0.366,1.0575e-05,0
0.3665,-2.3499e-06,0
0.367,-1.4939e-05,0
0.3675,-2.4842e-05,0
0.368,-2.7024e-05,0
0.3685,-2.7359e-05,0
0.369,-3.2563e-05,0
0.3695,-4.1291e-05,0
0.37,-4.8173e-05,0
0.3705,-4.3473e-05,0
0.371,-2.6184e-05,0
0.3715,-9.7353e-06,0
0.372,-2.8534e-06,0
0.3725,-3.5248e-06,0
0.373,-1.0239e-05,0
0.3735,-1.5778e-05,0
0.374,-9.9031e-06,0
0.3745,-1.8463e-06,0
0.375,-2.182e-06,0
0.3755,-5.8747e-06,0
0.376,-9.5674e-06,0
0.3765,-1.1078e-05,0
0.377,-9.9031e-06,0
0.3775,-1.3428e-06,0
0.378,1.7456e-05,0
0.3785,4.4144e-05,0
0.379,6.4958e-05,0
0.3795,7.335e-05,0
0.38,7.1672e-05,0
0.3805,8.04e-05,0
0.381,0.00010591,0
0.3815,0.0001284,0
0.382,0.00013193,0
0.3825,0.00011632,0
0.383,8.4428e-05,0
0.3835,4.7837e-05,0
0.384,1.7288e-05,0
0.3845,-6.2104e-06,0
0.385,-1.5946e-05,0
0.3855,-9.9031e-06,0
0.386,5.035e-07,0
0.3865,-1.678e-07,0
0.387,-1.1582e-05,0
0.3875,-1.2253e-05,0
0.388,9.9031e-06,0
0.3885,4.1123e-05,0
0.389,6.2944e-05,0
0.3895,6.3447e-05,0
0.39,4.5655e-05,0
0.3905,2.4674e-05,0
0.391,1.2253e-05,0
0.3915,-1.5106e-06,0
0.392,-1.9638e-05,0
0.3925,-2.3499e-05,0
0.393,-1.2924e-05,0
0.3935,-3.1891e-06,0
0.394,-1.5106e-06,0
0.3945,-1.678e-07,0
0.395,1.1414e-05,0
0.3955,3.3402e-05,0
0.396,4.9851e-05,0
0.3965,5.7237e-05,0
0.397,5.9251e-05,0
0.3975,4.7166e-05,0
0.398,2.266e-05,0
0.3985,1.1749e-06,0
0.399,-1.561e-05,0
0.3995,-2.9542e-05,0
0.4,-4.0619e-05,0
0.4005,-4.1962e-05,0
0.401,-3.6423e-05,0
0.4015,-3.0045e-05,0
0.402,-1.9135e-05,0
0.4025,1.3428e-06,0
0.403,2.9374e-05,0
0.4035,5.2201e-05,0
0.404,6.2608e-05,0
0.4045,6.4118e-05,0
0.405,6.7979e-05,0
0.4055,8.1743e-05,0
0.406,0.00010289,0
0.4065,0.00011901,0
0.407,0.00010726,0
0.4075,6.1936e-05,0
0.408,1.6449e-05,0
0.4085,-7.8889e-06,0
0.409,-1.9303e-05,0
0.4095,-2.031e-05,0
0.41,-1.326e-05,0
0.4105,-5.539e-06,0
0.411,1.1749e-06,0
0.4115,7.8889e-06,0
0.412,1.6785e-05,0
0.4125,2.7863e-05,0
0.413,3.9445e-05,0
0.4135,4.2634e-05,0
0.414,3.5248e-05,0
0.4145,3.8773e-05,0
0.415,5.6901e-05,0
0.4155,6.4286e-05,0
0.416,5.0523e-05,0
0.4165,2.9038e-05,0
0.417,1.8631e-05,0
0.4175,1.3092e-05,0
0.418,5.2033e-06,0
0.4185,6.5461e-06,0
0.419,1.0575e-05,0
0.4195,7.5532e-06,0
0.42,3.1891e-06,0
0.4205,-4.8676e-06,0
0.421,-6.8818e-06,0
0.4215,-8.392e-07,0
0.422,-3.6927e-06,0
0.4225,-1.4267e-05,0
0.423,-2.0646e-05,0
0.4235,-1.8296e-05,0
0.424,-1.561e-05,0
0.4245,-1.1246e-05,0
0.425,3.5248e-06,0
0.4255,3.1724e-05,0
0.426,5.5558e-05,0
0.4265,5.6901e-05,0
0.427,3.743e-05,0
0.4275,1.1917e-05,0
0.428,-7.2175e-06,0
0.4285,-1.1917e-05,0
0.429,-9.5674e-06,0
0.4295,-9.0639e-06,0
0.43,-7.7211e-06,0
0.4305,-6.8818e-06,0
0.431,-1.6953e-05,0
0.4315,-2.266e-05,0
0.432,-9.5674e-06,0
0.4325,1.4435e-05,0
0.433,3.6591e-05,0
0.4335,4.448e-05,0
0.434,4.5487e-05,0
0.4345,5.153e-05,0
0.435,5.5894e-05,0
0.4355,6.0761e-05,0
0.436,8.426e-05,0
0.4365,0.00010692,0
0.437,0.0001086,0
0.4375,9.2485e-05,0
0.438,6.7979e-05,0
0.4385,4.5487e-05,0
0.439,2.1988e-05,0
0.4395,-4.1962e-06,0
0.44,-2.3835e-05,0
0.4405,-3.5248e-05,0
0.441,-4.1459e-05,0
0.4415,-4.0452e-05,0
0.442,-3.0381e-05,0
0.4425,-2.1653e-05,0
0.443,-1.9303e-05,0
0.4435,-2.0646e-05,0
0.444,-1.8967e-05,0
0.4445,-4.6998e-06,0
0.445,8.896e-06,0
0.4455,1.2253e-05,0
0.446,1.2589e-05,0
0.4465,8.896e-06,0
0.447,9.0639e-06,0
0.4475,1.9303e-05,0
0.448,2.8031e-05,0
0.4485,3.7934e-05,0
0.449,5.4551e-05,0
0.4495,6.7308e-05,0
0.45,6.9657e-05,0
0.4505,6.2608e-05,0
0.451,5.069e-05,0
0.4515,3.9277e-05,0
0.452,3.0045e-05,0
0.4525,2.3499e-05,0
0.453,1.7456e-05,0
0.4535,1.3932e-05,0
0.454,1.8967e-05,0
0.4545,2.8367e-05,0
0.455,3.743e-05,0
0.4555,3.7598e-05,0
0.456,2.7359e-05,0
0.4565,1.1246e-05,0
0.457,-6.8818e-06,0
0.4575,-1.3428e-05,0
0.458,-1.4267e-05,0
0.4585,-1.5946e-05,0
0.459,-1.0071e-05,0
0.4595,-3.1891e-06,0
0.46,-1.5106e-06,0
0.4605,-2.3499e-06,0
0.461,-1.678e-07,0
0.4615,1.8631e-05,0
0.462,5.6062e-05,0
0.4625,8.4428e-05,0
0.463,8.426e-05,0
0.4635,6.9993e-05,0
0.464,5.3376e-05,0
0.4645,3.4409e-05,0
0.465,1.5946e-05,0
0.4655,3.1891e-06,0
0.466,-8.392e-07,0
0.4665,6.5461e-06,0
0.467,2.1317e-05,0
0.4675,3.1724e-05,0
0.468,3.2731e-05,0
0.4685,3.0716e-05,0
0.469,3.3066e-05,0
0.4695,4.4816e-05,0
0.47,5.7572e-05,0
0.4705,6.0258e-05,0
0.471,4.2802e-05,0
0.4715,1.326e-05,0
0.472,-6.2104e-06,0
0.4725,-1.4435e-05,0
0.473,-1.3932e-05,0
0.4735,-9.2317e-06,0
0.474,-1.5946e-05,0
0.4745,-2.3331e-05,0
0.475,-1.1749e-05,0
0.4755,1.2085e-05,0
0.476,3.2059e-05,0
0.4765,4.0116e-05,0
0.477,3.9445e-05,0
0.4775,4.2802e-05,0
0.478,5.5222e-05,0
0.4785,6.1265e-05,0
0.479,5.5894e-05,0
0.4795,4.3977e-05,0
0.48,3.2059e-05,0
0.4805,1.9638e-05,0
0.481,5.7069e-06,0
0.4815,-8.2246e-06,0
0.482,-1.7288e-05,0
0.4825,-2.8199e-05,0
0.483,-4.3473e-05,0
0.4835,-4.4648e-05,0
0.484,-3.3738e-05,0
0.4845,-2.5009e-05,0
0.485,-1.6281e-05,0
0.4855,-7.0497e-06,0
0.486,6.5461e-06,0
0.4865,2.8367e-05,0
0.487,4.3305e-05,0
0.4875,4.6662e-05,0
0.488,4.7501e-05,0
0.4885,5.2537e-05,0
0.489,5.9922e-05,0
0.4895,5.9922e-05,0
0.49,5.4719e-05,0
0.4905,4.4816e-05,0
0.491,2.5345e-05,0
0.4915,6.714e-06,0
0.492,2.182e-06,0
0.4925,9.7353e-06,0
0.493,1.8128e-05,0
0.4935,1.1917e-05,0
0.494,-8.392e-07,0
0.4945,5.035e-07,0
0.495,2.5345e-05,0
0.4955,4.4816e-05,0
0.496,3.4073e-05,0
0.4965,9.2317e-06,0
0.497,-1.8463e-06,0
0.4975,5.8747e-06,0
0.498,1.1246e-05,0
0.4985,2.182e-06,0
0.499,-1.091e-05,0
0.4995,-2.3667e-05,0
0.5,-2.2324e-05,0
0.5005,-1.0071e-06,0
0.501,2.9038e-05,0
0.5015,5.1865e-05,0
0.502,5.8244e-05,0
0.5025,5.4551e-05,0
0.503,5.6901e-05,0
0.5035,6.1936e-05,0
0.504,6.2944e-05,0
0.5045,6.2944e-05,0
0.505,6.1601e-05,0
0.5055,5.5055e-05,0
0.506,4.8844e-05,0
0.5065,4.213e-05,0
0.507,3.0045e-05,0
0.5075,7.5532e-06,0
0.508,-2.0478e-05,0
0.5085,-4.8844e-05,0
0.509,-6.949e-05,0
0.5095,-6.8818e-05,0
0.51,-5.4887e-05,0
0.5105,-3.3738e-05,0
0.511,1.678e-07,0
0.5115,3.1052e-05,0
0.512,4.4816e-05,0
0.5125,5.0858e-05,0
0.513,4.6159e-05,0
0.5135,3.5752e-05,0
0.514,3.9277e-05,0
0.5145,5.9251e-05,0
0.515,7.9057e-05,0
0.5155,8.5267e-05,0
0.516,7.3686e-05,0
0.5165,5.388e-05,0
0.517,3.8102e-05,0
0.5175,3.0884e-05,0
0.518,2.6352e-05,0
0.5185,1.8128e-05,0
0.519,9.7353e-06,0
0.5195,6.0426e-06,0
0.52,7.5532e-06,0
0.5205,6.8818e-06,0
0.521,5.0355e-06,0
0.5215,3.8605e-06,0
0.522,1.8463e-06,0
0.5225,5.2033e-06,0
0.523,9.2317e-06,0
0.5235,7.3854e-06,0
0.524,2.3499e-06,0
0.5245,-1.0407e-05,0
0.525,-2.4002e-05,0
0.5255,-2.1988e-05,0
0.526,-8.2246e-06,0
0.5265,5.035e-07,0
0.527,1.8463e-06,0
0.5275,-2.182e-06,0
0.528,-5.8747e-06,0
0.5285,-9.9031e-06,0
0.529,-1.4267e-05,0
0.5295,-1.7624e-05,0
0.53,-1.7456e-05,0
0.5305,-9.0639e-06,0
0.531,1.6785e-06,0
0.5315,7.8889e-06,0
0.532,2.2492e-05,0
0.5325,5.1362e-05,0
0.533,7.5029e-05,0
0.5335,7.1e-05,0
0.534,5.0355e-05,0
0.5345,3.1724e-05,0
0.535,1.4267e-05,0
0.5355,5.8747e-06,0
0.536,8.3925e-06,0
0.5365,1.6281e-05,0
0.537,2.6688e-05,0
0.5375,3.4073e-05,0
0.538,3.9612e-05,0
0.5385,5.3544e-05,0
0.539,6.4286e-05,0
0.5395,6.7475e-05,0
0.54,6.3615e-05,0
0.5405,5.8076e-05,0
0.541,5.5726e-05,0
0.5415,5.4551e-05,0
0.542,4.683e-05,0
0.5425,3.4409e-05,0
0.543,2.2492e-05,0
0.5435,7.3854e-06,0
0.544,-8.7282e-06,0
0.5445,-1.9974e-05,0
0.545,-2.0981e-05,0
0.5455,-1.5106e-05,0
0.546,-1.1414e-05,0
0.5465,-8.7282e-06,0
0.547,2.182e-06,0
0.5475,1.8967e-05,0
0.548,2.8702e-05,0
0.5485,3.978e-05,0
0.549,5.4048e-05,0
0.5495,6.63e-05,0
0.55,7.0832e-05,0
0.5505,6.5629e-05,0
0.551,6.0929e-05,0
0.5515,5.9587e-05,0
0.552,4.6494e-05,0
0.5525,2.4002e-05,0
0.553,9.2317e-06,0
0.5535,9.9031e-06,0
0.554,2.5681e-05,0
0.5545,4.3305e-05,0
0.555,5.4215e-05,0
0.5555,6.2608e-05,0
0.556,7.0329e-05,0
0.5565,6.7475e-05,0
0.557,3.6759e-05,0
0.5575,-1.5946e-05,0
0.558,-6.8482e-05,0
0.5585,-9.9535e-05,0
0.559,-0.0001133,0
0.5595,-0.00011531,0
0.56,-9.8695e-05,0
0.5605,-7.0329e-05,0
0.561,-3.6759e-05,0
0.5615,8.7282e-06,0
0.562,5.0858e-05,0
0.5625,7.1e-05,0
0.563,7.1336e-05,0
0.5635,5.6565e-05,0
0.564,3.6255e-05,0
0.5645,2.4002e-05,0
0.565,1.6953e-05,0
0.5655,1.7624e-05,0
0.566,2.6688e-05,0
0.5665,3.743e-05,0
0.567,4.2802e-05,0
0.5675,3.6927e-05,0
0.568,1.9135e-05,0
0.5685,-3.8605e-06,0
0.569,-1.9638e-05,0
0.5695,-1.9974e-05,0
0.57,-1.1078e-05,0
0.5705,-8.896e-06,0
0.571,-1.4099e-05,0
0.5715,-1.1582e-05,0
0.572,4.5319e-06,0
0.5725,2.3835e-05,0
0.573,4.2802e-05,0
0.5735,5.8747e-05,0
0.574,6.1433e-05,0
0.5745,6.009e-05,0
0.575,6.1936e-05,0
0.5755,6.4958e-05,0
0.576,5.8915e-05,0
0.5765,3.7766e-05,0
0.577,1.1917e-05,0
0.5775,0,0
0.578,5.0355e-06,0
0.5785,1.7792e-05,0
0.579,3.0716e-05,0
0.5795,3.9109e-05,0
0.58,3.3234e-05,0
0.5805,2.0142e-05,0
0.581,1.4603e-05,0
0.5815,2.2995e-05,0
0.582,3.978e-05,0
0.5825,4.9851e-05,0
0.583,4.2298e-05,0
0.5835,2.1317e-05,0
0.584,4.8676e-06,0
0.5845,-5.7069e-06,0
0.585,-1.4603e-05,0
0.5855,-1.5274e-05,0
0.586,-5.8747e-06,0
0.5865,6.714e-07,0
0.587,1.8463e-06,0
0.5875,1.3932e-05,0
0.588,3.3402e-05,0
0.5885,5.0858e-05,0
0.589,7.2679e-05,0
0.5895,8.5267e-05,0
0.59,7.7546e-05,0
0.5905,6.6636e-05,0
0.591,5.5558e-05,0
0.5915,4.9012e-05,0
0.592,5.2201e-05,0
0.5925,4.683e-05,0
0.593,2.8031e-05,0
0.5935,7.5532e-06,0
0.594,-5.7069e-06,0
0.5945,-3.6927e-06,0
0.595,8.5603e-06,0
0.5955,1.796e-05,0
0.596,2.7863e-05,0
0.5965,4.3137e-05,0
0.597,5.388e-05,0
0.5975,5.5894e-05,0
0.598,5.2369e-05,0
0.5985,4.683e-05,0
0.599,4.448e-05,0
0.5995,3.8773e-05,0
0.6,1.8296e-05,0
0.6005,-2.5177e-06,0
0.601,-1.6785e-05,0
0.6015,-2.4674e-05,0
0.602,-2.9709e-05,0
0.6025,-3.8102e-05,0
0.603,-4.1795e-05,0
0.6035,-3.9612e-05,0
0.604,-4.3137e-05,0
0.6045,-4.1123e-05,0
0.605,-2.6352e-05,0
0.6055,-6.3783e-06,0
0.606,6.5461e-06,0
0.6065,1.1582e-05,0
0.607,1.8967e-05,0
0.6075,2.6352e-05,0
0.608,3.0716e-05,0
0.6085,2.8199e-05,0
0.609,1.9303e-05,0
0.6095,1.4267e-05,0
0.61,2.3331e-05,0
0.6105,3.2059e-05,0
0.611,2.4506e-05,0
0.6115,1.0407e-05,0
0.612,5.035e-07,0
0.6125,-1.326e-05,0
0.613,-3.2395e-05,0
0.6135,-4.0787e-05,0
0.614,-4.5991e-05,0
0.6145,-5.5222e-05,0
0.615,-5.069e-05,0
0.6155,-2.9709e-05,0
0.616,-2.3499e-06,0
0.6165,2.6856e-05,0
0.617,4.6662e-05,0
0.6175,5.6565e-05,0
0.618,6.9993e-05,0
0.6185,8.9967e-05,0
0.619,0.00010977,0
0.6195,0.00011531,0
0.62,9.752e-05,0
0.6205,6.7308e-05,0
0.621,4.0116e-05,0
0.6215,2.1317e-05,0
0.622,1.3764e-05,0
0.6225,1.091e-05,0
0.623,1.091e-05,0
0.6235,6.5461e-06,0
0.624,0,0
0.6245,0,0
0.625,0,0
0.6255,0,0
0.626,0,0
0.6265,0,0
0.627,0,0
0.6275,0,0
0.628,0,0
0.6285,0,0
0.629,0,0
0.6295,0,0
0.63,0,0
0.6305,0,0
0.631,0,0
0.6315,0,0
0.632,0,0
0.6325,0,0
0.633,0,0
0.6335,0,0
0.634,0,0
0.6345,0,0
0.635,0,0
0.6355,0,0
0.636,0,0
0.6365,0,0
0.637,1.1749e-06,0
0.6375,-5.0355e-06,0
0.638,-1.1749e-06,0
0.6385,1.0575e-05,0
0.639,1.4939e-05,0
0.6395,1.5946e-05,0
0.64,1.6281e-05,0
0.6405,1.947e-05,0
0.641,3.1556e-05,0
0.6415,3.6088e-05,0
0.642,2.8031e-05,0
0.6425,1.4603e-05,0
0.643,1.678e-07,0
0.6435,-4.8676e-06,0
0.644,4.6998e-06,0
0.6445,2.6017e-05,0
0.645,5.0858e-05,0
0.6455,6.244e-05,0
0.646,5.2872e-05,0
0.6465,3.4073e-05,0
0.647,1.796e-05,0
0.6475,6.2104e-06,0
0.648,-5.035e-07,0
0.6485,-1.1749e-06,0
0.649,-3.357e-07,0
0.6495,-3.1891e-06,0
0.65,-8.896e-06,0
0.6505,-9.2317e-06,0
0.651,6.2104e-06,0
0.6515,2.4506e-05,0
0.652,3.1724e-05,0
0.6525,4.0619e-05,0
0.653,4.5319e-05,0
0.6535,4.213e-05,0
0.654,3.743e-05,0
0.6545,2.3835e-05,0
0.655,7.3854e-06,0
0.6555,-3.0213e-06,0
0.656,-1.8296e-05,0
0.6565,-2.887e-05,0
0.657,-1.4939e-05,0
0.6575,1.0575e-05,0
0.658,1.9806e-05,0
0.6585,9.5674e-06,0
0.659,2.182e-06,0
0.6595,-3.1891e-06,0
0.66,-1.4939e-05,0
0.6605,-2.4506e-05,0
0.661,-2.3667e-05,0
0.6615,-1.561e-05,0
0.662,-7.5532e-06,0
0.6625,-8.5603e-06,0
0.663,-1.5778e-05,0
0.6635,-1.1582e-05,0
0.664,2.031e-05,0
0.6645,6.0258e-05,0
0.665,7.0832e-05,0
0.6655,4.8844e-05,0
0.666,1.5946e-05,0
0.6665,-5.7069e-06,0
0.667,-1.4603e-05,0
0.6675,-2.2995e-05,0
0.668,-2.6017e-05,0
0.6685,-1.8296e-05,0
0.669,-1.2421e-05,0
0.6695,-9.5674e-06,0
0.67,-3.0213e-06,0
0.6705,6.3783e-06,0
0.671,1.5778e-05,0
0.6715,1.8631e-05,0
0.672,8.896e-06,0
0.6725,-4.5319e-06,0
0.673,-3.357e-06,0
0.6735,5.2033e-06,0
0.674,6.8818e-06,0
0.6745,5.539e-06,0
0.675,6.3783e-06,0
0.6755,9.0639e-06,0
0.676,1.1749e-05,0
0.6765,2.0478e-05,0
0.677,4.1123e-05,0
0.6775,5.8915e-05,0
0.678,6.2776e-05,0
0.6785,6.2272e-05,0
0.679,7.0161e-05,0
0.6795,8.1575e-05,0
0.68,9.0471e-05,0
0.6805,8.9799e-05,0
0.681,7.9896e-05,0
0.6815,7.3014e-05,0
0.682,6.8482e-05,0
0.6825,6.3951e-05,0
0.683,6.4958e-05,0
0.6835,6.6972e-05,0
0.684,6.4958e-05,0
0.6845,6.3615e-05,0
0.685,6.0258e-05,0
0.6855,4.8844e-05,0
0.686,3.1891e-05,0
0.6865,1.7792e-05,0
0.687,9.2317e-06,0
0.6875,3.1891e-06,0
0.688,-2.5177e-06,0
0.6885,-5.0355e-06,0
0.689,0,0
0.6895,0,0
0.69,0,0
0.6905,0,0
0.691,0,0
0.6915,0,0
0.692,0,0
0.6925,0,0
0.693,0,0
0.6935,0,0
0.694,0,0
0.6945,0,0
0.695,0,0
0.6955,0,0
0.696,0,0
0.6965,0,0
0.697,0,0
0.6975,0,0
0.698,0,0
0.6985,0,0
0.699,0,0
0.6995,0,0
0.7,0,0
0.7005,0,0
0.701,0,0
0.7015,0,0
0.702,1.6785e-06,0
0.7025,6.0426e-06,0
0.703,7.7211e-06,0
0.7035,9.2317e-06,0
0.704,6.5461e-06,0
0.7045,-4.8676e-06,0
0.705,-2.2324e-05,0
0.7055,-3.1388e-05,0
0.706,-2.1653e-05,0
0.7065,-1.1246e-05,0
0.707,-1.4267e-05,0
0.7075,-1.7624e-05,0
0.708,-1.0071e-05,0
0.7085,2.3499e-06,0
0.709,1.1078e-05,0
0.7095,1.5946e-05,0
0.71,2.2324e-05,0
0.7105,3.0549e-05,0
0.711,3.4073e-05,0
0.7115,2.9709e-05,0
0.712,2.1317e-05,0
0.7125,1.5274e-05,0
0.713,1.2085e-05,0
0.7135,5.539e-06,0
0.714,-5.0355e-06,0
0.7145,-9.2317e-06,0
0.715,-9.0639e-06,0
0.7155,-1.6953e-05,0
0.716,-2.3331e-05,0
0.7165,-2.1988e-05,0
0.717,-1.4939e-05,0
0.7175,-3.357e-07,0
0.718,8.0568e-06,0
0.7185,-6.5461e-06,0
0.719,-3.2395e-05,0
0.7195,-5.7237e-05,0
0.72,-7.8218e-05,0
0.7205,-7.9393e-05,0
0.721,-5.8244e-05,0
0.7215,-2.182e-05,0
0.722,1.561e-05,0
0.7225,2.7359e-05,0
0.723,1.6785e-05,0
0.7235,8.896e-06,0
0.724,1.5274e-05,0
0.7245,3.743e-05,0
0.725,6.8986e-05,0
0.7255,8.9296e-05,0
0.726,8.6442e-05,0
0.7265,7.7714e-05,0
0.727,8.6442e-05,0
0.7275,0.00010726,0
0.728,0.00011582,0
0.7285,0.00010188,0
0.729,7.956e-05,0
0.7295,5.7069e-05,0
0.73,4.1627e-05,0
0.7305,4.4816e-05,0
0.731,5.7069e-05,0
0.7315,6.1433e-05,0
0.732,5.6901e-05,0
0.7325,4.3809e-05,0
0.733,2.6688e-05,0
0.7335,1.6617e-05,0
0.734,1.326e-05,0
0.7345,1.3092e-05,0
0.735,1.8631e-05,0
0.7355,2.0981e-05,0
0.736,1.2757e-05,0
0.7365,-1.8463e-06,0
0.737,-1.561e-05,0
0.7375,-2.5513e-05,0
0.738,-3.1052e-05,0
0.7385,-2.887e-05,0
0.739,-1.4939e-05,0
0.7395,3.357e-06,0
0.74,1.3092e-05,0
0.7405,1.9303e-05,0
0.741,0,0
0.7415,0,0
0.742,0,0
0.7425,0,0
0.743,0,0
0.7435,0,0
0.744,0,0
0.7445,0,0
0.745,0,0
0.7455,0,0
0.746,0,0
0.7465,0,0
0.747,0,0
0.7475,0,0
0.748,0,0
0.7485,0,0
0.749,0,0
0.7495,0,0
0.75,0,0
0.7505,0,0
0.751,0,0
0.7515,0,0
0.752,0,0
0.7525,0,0
0.753,0,0
0.7535,0,0
0.754,5.0187e-05,0
0.7545,2.9206e-05,0
0.755,4.5319e-06,0
0.7555,-1.6953e-05,0
0.756,-2.8534e-05,0
0.7565,-2.0981e-05,0
0.757,-6.714e-07,0
0.7575,8.2246e-06,0
0.758,2.8534e-06,0
0.7585,-4.5319e-06,0
0.759,3.5248e-06,0
0.7595,2.1988e-05,0
0.76,2.652e-05,0
0.7605,1.5106e-05,0
0.761,9.2317e-06,0
0.7615,1.8296e-05,0
0.762,2.3667e-05,0
0.7625,1.9806e-05,0
0.763,2.2324e-05,0
0.7635,3.978e-05,0
0.764,5.0523e-05,0
0.7645,4.1459e-05,0
0.765,2.6352e-05,0
0.7655,1.4603e-05,0
0.766,3.0213e-06,0
0.7665,-7.8889e-06,0
0.767,-1.091e-05,0
0.7675,-6.714e-07,0
0.768,1.1582e-05,0
0.7685,1.0239e-05,0
0.769,1.1749e-06,0
0.7695,-2.5177e-06,0
0.77,-4.5319e-06,0
0.7705,-1.678e-07,0
0.771,8.5603e-06,0
0.7715,8.896e-06,0
0.772,7.8889e-06,0
0.7725,2.1317e-05,0
0.773,2.8031e-05,0
0.7735,1.0071e-05,0
0.774,-1.7624e-05,0
0.7745,-3.4073e-05,0
0.775,-2.4506e-05,0
0.7755,1.5106e-06,0
0.776,2.6352e-05,0
0.7765,4.3809e-05,0
0.777,5.2033e-05,0
0.7775,5.9251e-05,0
0.778,6.1265e-05,0
0.7785,5.5222e-05,0
0.779,5.2201e-05,0
0.7795,5.0187e-05,0
0.78,3.3738e-05,0
0.7805,9.2317e-06,0
0.781,-1.5106e-06,0
0.7815,4.6998e-06,0
0.782,1.9638e-05,0
0.7825,4.2466e-05,0
0.783,5.069e-05,0
0.7835,3.6088e-05,0
0.784,1.9638e-05,0
0.7845,7.2175e-06,0
0.785,3.357e-07,0
0.7855,4.8676e-06,0
0.786,1.1246e-05,0
0.7865,1.5274e-05,0
0.787,2.5177e-05,0
0.7875,3.8773e-05,0
0.788,4.6159e-05,0
0.7885,4.8173e-05,0
0.789,5.9754e-05,0
0.7895,7.956e-05,0
0.79,8.426e-05,0
0.7905,6.9657e-05,0
0.791,5.774e-05,0
0.7915,5.6901e-05,0
0.792,5.6062e-05,0
0.7925,4.8676e-05,0
0.793,3.743e-05,0
0.7935,2.2995e-05,0
0.794,1.4603e-05,0
0.7945,6.8818e-06,0
0.795,-9.9031e-06,0
0.7955,-2.1988e-05,0
0.796,-2.7024e-05,0
0.7965,-3.3738e-05,0
0.797,-3.4409e-05,0
0.7975,-2.6688e-05,0
0.798,-8.896e-06,0
0.7985,1.1917e-05,0
0.799,1.5442e-05,0
0.7995,3.5248e-06,0
0.8,-4.6998e-06,0
0.8005,-1.0071e-06,0
0.801,2.182e-06,0
0.8015,-3.8605e-06,0
0.802,-9.3996e-06,0
0.8025,-6.8818e-06,0
0.803,2.3499e-06,0
0.8035,1.6281e-05,0
0.804,3.3066e-05,0
0.8045,4.2802e-05,0
0.805,4.4816e-05,0
0.8055,4.2466e-05,0
0.806,4.1962e-05,0
0.8065,4.8508e-05,0
0.807,6.5293e-05,0
0.8075,7.3686e-05,0
0.808,5.8915e-05,0
0.8085,3.3402e-05,0
0.809,1.6785e-05,0
0.8095,1.7288e-05,0
0.81,3.3738e-05,0
0.8105,4.213e-05,0
0.811,3.2731e-05,0
0.8115,1.4267e-05,0
0.812,-1.6281e-05,0
0.8125,-4.683e-05,0
0.813,-5.5558e-05,0
0.8135,-3.9948e-05,0
0.814,-1.5274e-05,0
0.8145,-2.3499e-06,0
0.815,-5.0355e-06,0
0.8155,-1.4603e-05,0
0.816,-1.7792e-05,0
0.8165,-3.6927e-06,0
0.817,2.0478e-05,0
0.8175,4.0787e-05,0
0.818,4.9515e-05,0
0.8185,4.5151e-05,0
0.819,2.8534e-05,0
0.8195,1.0575e-05,0
0.82,5.2033e-06,0
0.8205,7.7211e-06,0
0.821,8.896e-06,0
0.8215,1.7624e-05,0
0.822,2.4674e-05,0
0.8225,2.6017e-05,0
0.823,3.4073e-05,0
0.8235,4.3473e-05,0
0.824,4.4144e-05,0
0.8245,3.8605e-05,0
0.825,3.0045e-05,0
0.8255,2.031e-05,0
0.826,1.2924e-05,0
0.8265,1.2085e-05,0
0.827,1.4603e-05,0
0.8275,1.1414e-05,0
0.828,9.0639e-06,0
0.8285,9.9031e-06,0
0.829,1.2589e-05,0
0.8295,1.7792e-05,0
0.83,1.796e-05,0
0.8305,1.4603e-05,0
0.831,1.6617e-05,0
0.8315,2.4506e-05,0
0.832,3.0213e-05,0
0.8325,3.122e-05,0
0.833,3.2059e-05,0
0.8335,3.1556e-05,0
0.834,2.5681e-05,0
0.8345,2.2324e-05,0
0.835,1.5274e-05,0
0.8355,4.6998e-06,0
0.836,4.1962e-06,0
0.8365,9.0639e-06,0
0.837,1.091e-05,0
0.8375,1.091e-05,0
0.838,1.0575e-05,0
0.8385,1.796e-05,0
0.839,3.0716e-05,0
0.8395,3.8437e-05,0
0.84,3.592e-05,0
0.8405,2.7359e-05,0
0.841,2.2156e-05,0
0.8415,2.266e-05,0
0.842,1.9638e-05,0
0.8425,1.5946e-05,0
0.843,2.3835e-05,0
0.8435,3.6088e-05,0
0.844,3.8605e-05,0
0.8445,3.3066e-05,0
0.845,3.8773e-05,0
0.8455,6.2776e-05,0
0.846,7.8386e-05,0
0.8465,5.8579e-05,0
0.847,1.9135e-05,0
0.8475,-3.5248e-06,0
0.848,-9.2317e-06,0
0.8485,-1.2085e-05,0
0.849,-1.0407e-05,0
0.8495,-1.7624e-05,0
0.85,-3.6759e-05,0
0.8505,-4.5151e-05,0
0.851,-4.0787e-05,0
0.8515,-2.9374e-05,0
0.852,-1.326e-05,0
0.8525,-1.3428e-06,0
0.853,4.8676e-06,0
0.8535,1.0407e-05,0
0.854,2.2492e-05,0
0.8545,4.3473e-05,0
0.855,6.5629e-05,0
0.8555,7.5364e-05,0
0.856,6.9322e-05,0
0.8565,6.2608e-05,0
0.857,6.5461e-05,0
0.8575,7.3014e-05,0
0.858,7.3686e-05,0
0.8585,6.6636e-05,0
0.859,5.8579e-05,0
0.8595,4.8005e-05,0
0.86,3.827e-05,0
0.8605,3.6759e-05,0
0.861,3.6088e-05,0
0.8615,3.5752e-05,0
0.862,3.7095e-05,0
0.8625,4.0452e-05,0
0.863,5.6565e-05,0
0.8635,6.865e-05,0
0.864,4.5487e-05,0
0.8645,8.896e-06,0
0.865,-6.8818e-06,0
0.8655,-9.0639e-06,0
0.866,-9.2317e-06,0
0.8665,-9.5674e-06,0
0.867,-9.2317e-06,0
0.8675,-1.0071e-05,0
0.868,-1.6785e-05,0
0.8685,-2.9038e-05,0
0.869,-3.1724e-05,0
0.8695,-2.1149e-05,0
0.87,-1.0407e-05,0
0.8705,-1.6785e-06,0
0.871,6.5461e-06,0
0.8715,1.1917e-05,0
0.872,1.9303e-05,0
0.8725,3.4073e-05,0
0.873,4.5991e-05,0
0.8735,4.918e-05,0
0.874,4.213e-05,0
0.8745,2.7695e-05,0
0.875,2.266e-05,0
0.8755,3.6759e-05,0
0.876,5.8747e-05,0
0.8765,5.8915e-05,0
0.877,1.8463e-05,0
0.8775,-3.8102e-05,0
0.878,-6.9657e-05,0
0.8785,-6.3447e-05,0
0.879,-3.9948e-05,0
0.8795,-2.4674e-05,0
0.88,-2.5009e-05,0
0.8805,-2.4842e-05,0
0.881,-1.1414e-05,0
0.8815,1.1917e-05,0
0.882,3.0381e-05,0
0.8825,3.8773e-05,0
0.883,3.7766e-05,0
0.8835,3.978e-05,0
0.884,4.7501e-05,0
0.8845,5.0858e-05,0
0.885,5.0019e-05,0
0.8855,4.4648e-05,0
0.886,3.5416e-05,0
0.8865,2.6352e-05,0
0.887,1.091e-05,0
0.8875,-4.1962e-06,0
0.888,-9.0639e-06,0
0.8885,-8.2246e-06,0
0.889,-2.182e-06,0
0.8895,1.6617e-05,0
0.89,3.3402e-05,0
0.8905,3.8773e-05,0
0.891,4.1459e-05,0
0.8915,4.6159e-05,0
0.892,5.153e-05,0
0.8925,5.4048e-05,0
0.893,5.4551e-05,0
0.8935,5.2872e-05,0
0.894,4.0787e-05,0
0.8945,1.8631e-05,0
0.895,2.8534e-06,0
0.8955,2.8534e-06,0
0.896,1.6953e-05,0
0.8965,3.5248e-05,0
0.897,4.5487e-05,0
0.8975,4.5991e-05,0
0.898,4.8173e-05,0
0.8985,5.069e-05,0
0.899,4.4816e-05,0
0.8995,3.9445e-05,0
0.9,3.0045e-05,0
0.9005,1.7456e-05,0
0.901,8.3925e-06,0
0.9015,-7.7211e-06,0
0.902,-2.652e-05,0
0.9025,-2.9709e-05,0
0.903,-2.9709e-05,0
0.9035,-3.4745e-05,0
0.904,-3.0045e-05,0
0.9045,-1.561e-05,0
0.905,-9.2317e-06,0
0.9055,-2.7192e-05,0
0.906,-4.5319e-05,0
0.9065,-3.8605e-05,0
0.907,-1.3596e-05,0
0.9075,1.2253e-05,0
0.908,2.8367e-05,0
0.9085,4.4144e-05,0
0.909,6.7308e-05,0
0.9095,9.9199e-05,0
0.91,0.00012639,0
0.9105,0.00013646,0
0.911,0.00013059,0
0.9115,0.00010558,0
0.912,6.0761e-05,0
0.9125,2.031e-05,0
0.913,2.182e-06,0
0.9135,-2.182e-06,0
0.914,-3.6927e-06,0
0.9145,-9.5674e-06,0
0.915,-1.5106e-05,0
0.9155,-7.5532e-06,0
0.916,1.091e-05,0
0.9165,3.3066e-05,0
0.917,5.2201e-05,0
0.9175,6.1936e-05,0
0.918,5.774e-05,0
0.9185,4.3305e-05,0
0.919,2.9038e-05,0
0.9195,2.0646e-05,0
0.92,1.4939e-05,0
0.9205,7.0497e-06,0
0.921,-1.0071e-06,0
0.9215,-4.3641e-06,0
0.922,0,0
0.9225,5.7069e-06,0
0.923,8.5603e-06,0
0.9235,3.8605e-06,0
0.924,-1.0071e-06,0
0.9245,3.357e-07,0
0.925,3.5248e-06,0
0.9255,6.3783e-06,0
0.926,6.2104e-06,0
0.9265,3.8605e-06,0
0.927,8.2246e-06,0
0.9275,1.2589e-05,0
0.928,9.0639e-06,0
0.9285,2.6856e-06,0
0.929,-3.0213e-06,0
0.9295,-6.8818e-06,0
0.93,-4.5319e-06,0
0.9305,-1.678e-07,0
0.931,4.5319e-06,0
0.9315,2.5177e-06,0
0.932,-1.561e-05,0
0.9325,-4.3641e-05,0
0.933,-5.8244e-05,0
0.9335,-4.2466e-05,0
0.934,-1.7792e-05,0
0.9345,-1.1078e-05,0
0.935,-8.896e-06,0
0.9355,5.8747e-06,0
0.936,3.1388e-05,0
0.9365,5.9251e-05,0
0.937,8.3421e-05,0
0.9375,8.8457e-05,0
0.938,7.3686e-05,0
0.9385,5.8915e-05,0
0.939,5.4215e-05,0
0.9395,6.1265e-05,0
0.94,7.1e-05,0
0.9405,5.9251e-05,0
0.941,2.6017e-05,0
0.9415,-2.182e-06,0
0.942,-1.326e-05,0
0.9425,-9.5674e-06,0
0.943,-1.6785e-06,0
0.9435,5.3712e-06,0
0.944,1.091e-05,0
0.9445,1.7792e-05,0
0.945,2.7024e-05,0
0.9455,4.2466e-05,0
0.946,6.1097e-05,0
0.9465,7.2007e-05,0
0.947,7.7714e-05,0
0.9475,8.0064e-05,0
0.948,7.1e-05,0
0.9485,5.3544e-05,0
0.949,3.8102e-05,0
0.9495,3.0716e-05,0
0.95,2.9038e-05,0
0.9505,1.796e-05,0
0.951,-4.5319e-06,0
0.9515,-1.0575e-05,0
0.952,9.7353e-06,0
0.9525,2.4674e-05,0
0.953,1.947e-05,0
0.9535,4.1962e-06,0
0.954,-1.2589e-05,0
0.9545,-2.6688e-05,0
0.955,-4.1123e-05,0
0.9555,-4.8508e-05,0
0.956,-3.5416e-05,0
0.9565,-1.091e-05,0
0.957,9.2317e-06,0
0.9575,2.5177e-05,0
0.958,3.9445e-05,0
0.9585,4.9348e-05,0
0.959,5.539e-05,0
0.9595,6.0929e-05,0
0.96,6.8315e-05,0
0.9605,7.2007e-05,0
0.961,6.6133e-05,0
0.9615,4.8005e-05,0
0.962,2.7359e-05,0
0.9625,1.1917e-05,0
0.963,1.5106e-06,0
0.9635,8.392e-07,0
0.964,1.4099e-05,0
0.9645,3.0045e-05,0
0.965,2.4338e-05,0
0.9655,5.035e-07,0
0.966,-1.2757e-05,0
0.9665,-1.2421e-05,0
0.967,-6.2104e-06,0
0.9675,3.0213e-06,0
0.968,1.4267e-05,0
0.9685,3.1388e-05,0
0.969,4.1962e-05,0
0.9695,3.743e-05,0
0.97,3.1388e-05,0
0.9705,2.7863e-05,0
0.971,2.6017e-05,0
0.9715,2.8702e-05,0
0.972,3.2059e-05,0
0.9725,3.4577e-05,0
0.973,3.5584e-05,0
0.9735,3.3738e-05,0
0.974,2.5681e-05,0
0.9745,1.9303e-05,0
0.975,1.9638e-05,0
0.9755,1.8631e-05,0
0.976,9.0639e-06,0
0.9765,-8.2246e-06,0
0.977,-1.5274e-05,0
0.9775,-4.1962e-06,0
0.978,4.8676e-06,0
0.9785,5.2033e-06,0
0.979,9.7353e-06,0
0.9795,1.3596e-05,0
0.98,1.0575e-05,0
0.9805,7.7211e-06,0
0.981,3.357e-07,0
0.9815,-5.2033e-06,0
0.982,3.357e-07,0
0.9825,9.5674e-06,0
0.983,7.7211e-06,0
0.9835,-1.5106e-06,0
0.984,1.0575e-05,0
0.9845,4.3473e-05,0
0.985,6.714e-05,0
0.9855,7.0329e-05,0
0.986,6.2272e-05,0
0.9865,4.5991e-05,0
0.987,2.7695e-05,0
0.9875,1.6281e-05,0
0.988,1.2589e-05,0
0.9885,1.2924e-05,0
0.989,8.392e-07,0
0.9895,-3.7262e-05,0
0.99,-7.4693e-05,0
0.9905,-7.9225e-05,0
0.991,-6.5965e-05,0
0.9915,-5.8579e-05,0
0.992,-5.4887e-05,0
0.9925,-4.0787e-05,0
0.993,-4.5319e-06,0
0.9935,3.9277e-05,0
0.994,6.2608e-05,0
0.9945,7.335e-05,0
0.995,9.0471e-05,0
0.9955,0.00010507,0
0.996,0.00010239,0
0.9965,9.5842e-05,0
0.997,8.9128e-05,0
0.9975,7.2343e-05,0
0.998,3.6759e-05,0
0.9985,-5.0355e-06,0
0.999,-3.122e-05,0
0.9995,-3.9277e-05,0
1,-3.508e-05,0
1.0005,-3.1724e-05,0
1.001,-2.2492e-05,0
1.0015,4.5319e-06,0
1.002,2.9709e-05,0
1.0025,3.1724e-05,0
1.003,1.9638e-05,0
1.0035,1.6617e-05,0
1.004,2.4002e-05,0
1.0045,3.743e-05,0
1.005,5.3544e-05,0
1.0055,5.623e-05,0
1.006,4.2802e-05,0
1.0065,3.3738e-05,0
1.007,3.2898e-05,0
1.0075,3.9445e-05,0
1.008,5.2537e-05,0
1.0085,5.9251e-05,0
1.009,5.1865e-05,0
1.0095,3.9948e-05,0
1.01,4.2802e-05,0
1.0105,6.3279e-05,0
1.011,8.5771e-05,0
1.0115,9.1646e-05,0
1.012,7.4189e-05,0
1.0125,4.213e-05,0
1.013,9.2317e-06,0
1.0135,-1.5274e-05,0
1.014,-2.5009e-05,0
1.0145,-1.9135e-05,0
1.015,5.539e-06,0
1.0155,3.1388e-05,0
1.016,3.7095e-05,0
1.0165,2.5345e-05,0
1.017,9.0639e-06,0
1.0175,-5.035e-07,0
1.018,3.357e-07,0
1.0185,-5.0355e-06,0
1.019,-1.2421e-05,0
1.0195,1.0071e-06,0
1.02,2.2995e-05,0
1.0205,3.5752e-05,0
1.021,3.7095e-05,0
1.0215,2.7863e-05,0
1.022,1.7792e-05,0
1.0225,1.1246e-05,0
1.023,4.5319e-06,0
1.0235,1.5106e-06,0
1.024,1.678e-07,0
1.0245,-3.5248e-06,0
1.025,-6.2104e-06,0
1.0255,-3.8605e-06,0
1.026,1.1749e-06,0
1.0265,4.5319e-06,0
1.027,9.3996e-06,0
1.0275,1.3764e-05,0
1.028,1.7624e-05,0
1.0285,1.7792e-05,0
1.029,1.6953e-05,0
1.0295,2.1149e-05,0
1.03,2.0981e-05,0
1.0305,1.5946e-05,0
1.031,1.1078e-05,0
1.0315,5.7069e-06,0
1.032,3.5248e-06,0
1.0325,1.2589e-05,0
1.033,2.0981e-05,0
1.0335,2.4506e-05,0
1.034,3.0549e-05,0
1.0345,3.6759e-05,0
1.035,3.6759e-05,0
1.0355,2.5009e-05,0
1.036,1.1246e-05,0
1.0365,1.0407e-05,0
1.037,2.266e-05,0
1.0375,3.2059e-05,0
1.038,2.9374e-05,0
1.0385,2.1988e-05,0
1.039,1.947e-05,0
1.0395,1.8967e-05,0
1.04,1.7288e-05,0
1.0405,1.5274e-05,0
1.041,1.1582e-05,0
1.0415,8.2246e-06,0
1.042,4.3641e-06,0
1.0425,3.357e-07,0
1.043,-1.5106e-06,0
1.0435,2.5177e-06,0
1.044,1.3428e-05,0
1.0445,1.6785e-05,0
1.045,1.1582e-05,0
1.0455,7.0497e-06,0
1.046,-8.392e-07,0
1.0465,-7.3854e-06,0
1.047,-1.6785e-06,0
1.0475,1.5274e-05,0
1.048,3.6759e-05,0
1.0485,5.5222e-05,0
1.049,5.7572e-05,0
1.0495,4.1123e-05,0
1.05,1.9974e-05,0
1.0505,5.2033e-06,0
1.051,2.5177e-06,0
1.0515,7.8889e-06,0
1.052,9.2317e-06,0
1.0525,8.3925e-06,0
1.053,8.2246e-06,0
1.0535,3.8605e-06,0
1.054,-8.392e-07,0
1.0545,-7.8889e-06,0
1.055,-1.9303e-05,0
1.0555,-1.0407e-05,0
1.056,1.7624e-05,0
1.0565,4.1459e-05,0
1.057,5.0523e-05,0
1.0575,4.5487e-05,0
1.058,3.6759e-05,0
1.0585,3.592e-05,0
1.059,4.2466e-05,0
1.0595,5.153e-05,0
1.06,6.3951e-05,0
1.0605,7.5196e-05,0
1.061,7.1e-05,0
1.0615,4.8173e-05,0
1.062,3.827e-05,0
1.0625,5.6901e-05,0
1.063,7.4693e-05,0
1.0635,6.6972e-05,0
1.064,4.3977e-05,0
1.0645,3.6423e-05,0
1.065,4.8173e-05,0
1.0655,5.2201e-05,0
1.066,4.0116e-05,0
1.0665,1.8631e-05,0
1.067,-1.0071e-06,0
1.0675,-2.2156e-05,0
1.068,-3.4913e-05,0
1.0685,-2.7359e-05,0
1.069,-2.1988e-05,0
1.0695,-2.2492e-05,0
1.07,-1.6953e-05,0
1.0705,-1.796e-05,0
1.071,-1.9638e-05,0
1.0715,-6.8818e-06,0
1.072,7.2175e-06,0
1.0725,1.8631e-05,0
1.073,3.6423e-05,0
1.0735,5.7237e-05,0
1.074,7.7211e-05,0
1.0745,8.5603e-05,0
1.075,7.6204e-05,0
1.0755,6.0258e-05,0
1.076,5.2872e-05,0
1.0765,4.9515e-05,0
1.077,4.5823e-05,0
1.0775,3.9612e-05,0
1.078,3.0716e-05,0
1.0785,2.0646e-05,0
1.079,9.5674e-06,0
1.0795,-3.1891e-06,0
1.08,-1.1246e-05,0
1.0805,-1.1246e-05,0
1.081,-4.8676e-06,0
1.0815,8.2246e-06,0
1.082,1.1917e-05,0
1.0825,8.392e-07,0
1.083,-1.091e-05,0
1.0835,-1.6449e-05,0
1.084,-1.3764e-05,0
1.0845,-1.1749e-06,0
1.085,8.7282e-06,0
1.0855,1.1582e-05,0
1.086,1.0575e-05,0
1.0865,-4.1962e-06,0
1.087,-1.9303e-05,0
1.0875,-2.031e-05,0
1.088,-7.7211e-06,0
1.0885,1.1246e-05,0
1.089,2.9206e-05,0
1.0895,3.8102e-05,0
1.09,3.6088e-05,0
1.0905,2.9374e-05,0
1.091,2.6352e-05,0
1.0915,3.3234e-05,0
1.092,3.9109e-05,0
1.0925,3.4745e-05,0
1.093,2.4002e-05,0
1.0935,7.3854e-06,0
1.094,-1.1078e-05,0
1.0945,-1.8296e-05,0
1.095,-1.7792e-05,0
1.0955,-1.2253e-05,0
1.096,2.8534e-06,0
1.0965,2.0478e-05,0
1.097,2.8702e-05,0
1.0975,3.508e-05,0
1.098,3.978e-05,0
1.0985,4.2466e-05,0
1.099,4.8676e-05,0
1.0995,4.7333e-05,0
1.1,4.2802e-05,0
1.1005,4.0619e-05,0
1.101,3.2898e-05,0
1.1015,1.8631e-05,0
1.102,4.0284e-06,0
1.1025,-2.182e-06,0
1.103,-1.6785e-06,0
1.1035,3.8605e-06,0
1.104,9.9031e-06,0
1.1045,1.8799e-05,0
1.105,3.1388e-05,0
1.1055,3.5752e-05,0
1.106,3.3066e-05,0
1.1065,3.0549e-05,0
1.107,2.5345e-05,0
1.1075,1.9974e-05,0
1.108,7.8889e-06,0
1.1085,-1.2589e-05,0
1.109,-2.4002e-05,0
1.1095,-2.6856e-05,0
1.11,-1.7792e-05,0
1.1105,8.7282e-06,0
1.111,2.8367e-05,0
1.1115,3.4409e-05,0
1.112,3.6423e-05,0
1.1125,3.8102e-05,0
1.113,4.3977e-05,0
1.1135,5.2872e-05,0
1.114,5.2537e-05,0
1.1145,4.5151e-05,0
1.115,5.2872e-05,0
1.1155,7.0832e-05,0
1.116,7.9393e-05,0
1.1165,7.5364e-05,0
1.117,6.6133e-05,0
1.1175,5.0858e-05,0
1.118,2.1988e-05,0
1.1185,-1.1078e-05,0
1.119,-2.4674e-05,0
1.1195,-2.031e-05,0
1.12,-1.561e-05,0
1.1205,-1.5778e-05,0
1.121,-2.8702e-05,0
1.1215,-4.213e-05,0
1.122,-3.592e-05,0
1.1225,-2.1317e-05,0
1.123,-1.091e-05,0
1.1235,-8.2246e-06,0
1.124,-1.9303e-05,0
1.1245,-3.0045e-05,0
1.125,-2.3835e-05,0
1.1255,-4.8676e-06,0
1.126,1.8463e-05,0
1.1265,3.7934e-05,0
1.127,4.3809e-05,0
1.1275,4.2466e-05,0
1.128,5.8579e-05,0
1.1285,8.5771e-05,0
1.129,0.00010054,0
1.1295,9.3828e-05,0
1.13,7.7714e-05,0
1.1305,6.0258e-05,0
1.131,3.978e-05,0
1.1315,2.5009e-05,0
1.132,2.0981e-05,0
1.1325,2.2492e-05,0
1.133,2.6688e-05,0
1.1335,2.7192e-05,0
1.134,1.6449e-05,0
1.1345,1.1917e-05,0
1.135,2.4002e-05,0
1.1355,2.9709e-05,0
1.136,1.9303e-05,0
1.1365,1.3428e-05,0
1.137,8.5603e-06,0
1.1375,5.035e-07,0
1.138,-3.5248e-06,0
1.1385,-1.091e-05,0
1.139,-1.8631e-05,0
1.1395,-1.5106e-05,0
1.14,4.8676e-06,0
1.1405,3.3738e-05,0
1.141,5.3376e-05,0
1.1415,6.1265e-05,0
1.142,6.0761e-05,0
1.1425,5.0187e-05,0
1.143,3.2563e-05,0
1.1435,1.3932e-05,0
1.144,1.8463e-06,0
1.1445,-6.2104e-06,0
1.145,-1.4939e-05,0
1.1455,-2.8702e-05,0
1.146,-3.4409e-05,0
1.1465,-1.3428e-05,0
1.147,1.796e-05,0
1.1475,3.7262e-05,0
1.148,4.6159e-05,0
1.1485,4.683e-05,0
1.149,4.7501e-05,0
1.1495,5.539e-05,0
1.15,5.8244e-05,0
1.1505,5.0523e-05,0
1.151,4.5151e-05,0
1.1515,4.3137e-05,0
1.152,3.1891e-05,0
1.1525,1.3932e-05,0
1.153,1.678e-07,0
1.1535,-6.0426e-06,0
1.154,-5.3712e-06,0
1.1545,-5.8747e-06,0
1.155,-5.8747e-06,0
1.1555,-3.357e-07,0
1.156,6.5461e-06,0
1.1565,7.8889e-06,0
1.157,6.0426e-06,0
1.1575,4.1962e-06,0
1.158,6.5461e-06,0
1.1585,1.3596e-05,0
1.159,2.4506e-05,0
1.1595,4.2802e-05,0
1.16,6.2272e-05,0
1.1605,6.4286e-05,0
1.161,5.0858e-05,0
1.1615,2.652e-05,0
1.162,4.1962e-06,0
1.1625,3.357e-07,0
1.163,5.8747e-06,0
1.1635,1.0407e-05,0
1.164,1.1246e-05,0
1.1645,6.2104e-06,0
1.165,0,0
1.1655,-8.392e-07,0
1.166,0,0
1.1665,-7.0497e-06,0
1.167,-1.9135e-05,0
1.1675,-2.3667e-05,0
1.168,-1.3596e-05,0
1.1685,5.035e-07,0
1.169,1.2924e-05,0
1.1695,2.2324e-05,0
1.17,2.7359e-05,0
1.1705,3.0549e-05,0
1.171,3.4745e-05,0
1.1715,3.6423e-05,0
1.172,3.0381e-05,0
1.1725,2.4674e-05,0
1.173,1.4603e-05,0
1.1735,-3.5248e-06,0
1.174,-1.6281e-05,0
1.1745,-2.182e-05,0
1.175,-1.4267e-05,0
1.1755,0,0
1.176,2.0142e-06,0
1.1765,-1.6785e-06,0
1.177,6.5461e-06,0
1.1775,2.4338e-05,0
1.178,4.3809e-05,0
1.1785,6.0258e-05,0
1.179,7.7211e-05,0
1.1795,9.3324e-05,0
1.18,9.7856e-05,0
1.1805,8.7785e-05,0
1.181,7.2679e-05,0
1.1815,5.9922e-05,0
1.182,4.7501e-05,0
1.1825,3.8437e-05,0
1.183,2.7359e-05,0
1.1835,1.0575e-05,0
1.184,-5.035e-07,0
1.1845,-6.2104e-06,0
1.185,-5.8747e-06,0
1.1855,4.3641e-06,0
1.186,7.0497e-06,0
1.1865,-1.8463e-06,0
1.187,-5.8747e-06,0
1.1875,-3.0213e-06,0
1.188,4.6998e-06,0
1.1885,1.9974e-05,0
1.189,2.887e-05,0
1.1895,2.8031e-05,0
1.19,3.1556e-05,0
1.1905,3.7766e-05,0
1.191,3.6591e-05,0
1.1915,3.3738e-05,0
1.192,4.0787e-05,0
1.1925,4.6494e-05,0
1.193,3.9445e-05,0
1.1935,2.3331e-05,0
1.194,7.8889e-06,0
1.1945,-2.8534e-06,0
1.195,-8.2246e-06,0
1.1955,-9.9031e-06,0
1.196,-1.3596e-05,0
1.1965,-1.8967e-05,0
1.197,-2.6017e-05,0
1.1975,-3.8773e-05,0
1.198,-4.8508e-05,0
1.1985,-4.6662e-05,0
1.199,-4.1795e-05,0
1.1995,-3.4409e-05,0
1.2,-1.0239e-05,0
1.2005,1.5778e-05,0
1.201,2.8031e-05,0
1.2015,3.6088e-05,0
1.202,3.8102e-05,0
1.2025,3.3906e-05,0
1.203,3.4073e-05,0
1.2035,3.4241e-05,0
1.204,2.4002e-05,0
1.2045,1.0407e-05,0
1.205,6.2104e-06,0
1.2055,1.5274e-05,0
1.206,3.5416e-05,0
1.2065,5.9587e-05,0
1.207,8.3589e-05,0
1.2075,0.00010709,0
1.208,0.00012169,0
1.2085,0.000118,0
1.209,0.00010256,0
1.2095,8.4764e-05,0
1.21,6.5629e-05,0
1.2105,5.0187e-05,0
1.211,3.743e-05,0
1.2115,2.7024e-05,0
1.212,1.4939e-05,0
1.2125,5.539e-06,0
1.213,7.8889e-06,0
1.2135,7.5532e-06,0
1.214,-2.8534e-06,0
1.2145,-1.1917e-05,0
1.215,-1.9303e-05,0
1.2155,-1.6953e-05,0
1.216,1.1917e-05,0
1.2165,5.1865e-05,0
1.217,6.5797e-05,0
1.2175,4.7166e-05,0
1.218,2.2995e-05,0
1.2185,1.1582e-05,0
1.219,8.5603e-06,0
1.2195,9.5674e-06,0
1.22,1.4603e-05,0
1.2205,2.3331e-05,0
1.221,3.7262e-05,0
1.2215,4.4144e-05,0
1.222,3.1724e-05,0
1.2225,3.0213e-06,0
1.223,-2.5513e-05,0
1.2235,-4.6326e-05,0
1.224,-5.7908e-05,0
1.2245,-5.4551e-05,0
1.225,-4.8676e-05,0
1.2255,-4.3977e-05,0
1.226,-3.3738e-05,0
1.2265,-2.3667e-05,0
1.227,-6.2104e-06,0
1.2275,2.182e-05,0
1.228,4.0955e-05,0
1.2285,4.4816e-05,0
1.229,4.683e-05,0
1.2295,4.7333e-05,0
1.23,4.9515e-05,0
1.2305,6.1097e-05,0
1.231,7.0161e-05,0
1.2315,7.0664e-05,0
1.232,6.4286e-05,0
1.2325,5.3544e-05,0
1.233,4.3473e-05,0
1.2335,3.9445e-05,0
1.234,4.2802e-05,0
1.2345,4.5487e-05,0
1.235,3.6423e-05,0
1.2355,1.3596e-05,0
1.236,-3.0213e-06,0
1.2365,-7.5532e-06,0
1.237,-8.2246e-06,0
1.2375,-9.0639e-06,0
1.238,-1.4267e-05,0
1.2385,-2.1653e-05,0
1.239,-2.2828e-05,0
1.2395,-2.1317e-05,0
1.24,-1.7792e-05,0
1.2405,-9.3996e-06,0
1.241,3.6927e-06,0
1.2415,3.1724e-05,0
1.242,6.0761e-05,0
1.2425,6.2944e-05,0
1.243,4.4816e-05,0
1.2435,3.1724e-05,0
1.244,3.1724e-05,0
1.2445,3.2898e-05,0
1.245,2.4674e-05,0
1.2455,1.1582e-05,0
1.246,8.2246e-06,0
1.2465,7.8889e-06,0
1.247,4.8676e-06,0
1.2475,4.5319e-06,0
1.248,1.0575e-05,0
1.2485,2.0981e-05,0
1.249,2.9374e-05,0
1.2495,2.9374e-05,0
1.25,2.5345e-05,0
1.2505,3.1724e-05,0
1.251,4.1291e-05,0
1.2515,4.448e-05,0
1.252,4.6494e-05,0
1.2525,4.1291e-05,0
1.253,3.1388e-05,0
1.2535,2.6352e-05,0
1.254,1.6617e-05,0
1.2545,5.2033e-06,0
1.255,6.714e-06,0
1.2555,1.4435e-05,0
1.256,1.9974e-05,0
1.2565,2.652e-05,0
1.257,2.6017e-05,0
1.2575,1.5946e-05,0
1.258,3.5248e-06,0
1.2585,-3.0213e-06,0
1.259,2.182e-06,0
1.2595,1.5946e-05,0
1.26,2.4002e-05,0
1.2605,2.2324e-05,0
1.261,2.031e-05,0
1.2615,1.9303e-05,0
1.262,1.5946e-05,0
1.2625,1.5274e-05,0
1.263,1.8463e-05,0
1.2635,1.9638e-05,0
1.264,6.2104e-06,0
1.2645,-1.2757e-05,0
1.265,-1.6785e-05,0
1.2655,-9.3996e-06,0
1.266,-5.8747e-06,0
1.2665,-2.5177e-06,0
1.267,6.2104e-06,0
1.2675,1.8463e-05,0
1.268,3.4745e-05,0
1.2685,4.683e-05,0
1.269,4.6159e-05,0
1.2695,3.4073e-05,0
1.27,1.9303e-05,0
1.2705,9.2317e-06,0
1.271,4.5319e-06,0
1.2715,4.1962e-06,0
1.272,1.091e-05,0
1.2725,1.4603e-05,0
1.273,1.2589e-05,0
1.2735,1.0575e-05,0
1.274,5.2033e-06,0
1.2745,-3.8605e-06,0
1.275,-4.1962e-06,0
1.2755,-3.0213e-06,0
1.276,-5.8747e-06,0
1.2765,2.5177e-06,0
1.277,1.2253e-05,0
1.2775,1.0575e-05,0
1.278,9.5674e-06,0
1.2785,2.5849e-05,0
1.279,6.0258e-05,0
1.2795,9.3828e-05,0
1.28,9.4499e-05,0
1.2805,6.4958e-05,0
1.281,4.0787e-05,0
1.2815,4.8173e-05,0
1.282,7.0329e-05,0
1.2825,6.6972e-05,0
1.283,3.2563e-05,0
1.2835,-2.8534e-06,0
1.284,-2.1653e-05,0
1.2845,-2.4842e-05,0
1.285,-1.5442e-05,0
1.2855,-3.0213e-06,0
1.286,9.9031e-06,0
1.2865,1.9974e-05,0
1.287,1.9806e-05,0
1.2875,2.5345e-05,0
1.288,5.4719e-05,0
1.2885,8.4093e-05,0
1.289,8.5435e-05,0
1.2895,6.8482e-05,0
1.29,4.3809e-05,0
1.2905,1.7624e-05,0
1.291,2.5177e-06,0
1.2915,-9.7353e-06,0
1.292,-2.3667e-05,0
1.2925,-2.4002e-05,0
1.293,-1.3596e-05,0
1.2935,-5.539e-06,0
1.294,2.5177e-06,0
1.2945,1.8631e-05,0
1.295,4.0116e-05,0
1.2955,5.2033e-05,0
1.296,4.6998e-05,0
1.2965,3.0716e-05,0
1.297,1.4099e-05,0
1.2975,8.896e-06,0
1.298,1.1582e-05,0
1.2985,1.5946e-05,0
1.299,1.6953e-05,0
1.2995,1.3932e-05,0
1.3,1.2421e-05,0
1.3005,1.0239e-05,0
1.301,2.182e-06,0
1.3015,-2.8534e-06,0
1.302,-1.8463e-06,0
1.3025,1.2924e-05,0
1.303,3.6423e-05,0
1.3035,5.5726e-05,0
1.304,6.8315e-05,0
1.3045,7.2343e-05,0
1.305,7.6875e-05,0
1.3055,8.3421e-05,0
1.306,7.6036e-05,0
1.3065,5.623e-05,0
1.307,4.0116e-05,0
1.3075,2.5345e-05,0
1.308,4.5319e-06,0
1.3085,-1.8967e-05,0
1.309,-3.2395e-05,0
1.3095,-4.0787e-05,0
1.31,-5.1362e-05,0
1.3105,-5.1698e-05,0
1.311,-3.1724e-05,0
1.3115,-8.5603e-06,0
1.312,1.5106e-06,0
1.3125,2.8534e-06,0
1.313,-1.0071e-06,0
1.3135,-6.8818e-06,0
1.314,-1.8463e-06,0
1.3145,8.7282e-06,0
1.315,1.796e-05,0
1.3155,2.8702e-05,0
1.316,3.4073e-05,0
1.3165,3.1388e-05,0
1.317,3.743e-05,0
1.3175,4.8508e-05,0
1.318,5.5894e-05,0
1.3185,5.7069e-05,0
1.319,4.4144e-05,0
1.3195,2.8031e-05,0
1.32,1.8631e-05,0
1.3205,6.2104e-06,0
1.321,-1.2589e-05,0
1.3215,-3.1388e-05,0
1.322,-3.743e-05,0
1.3225,-2.9877e-05,0
1.323,-2.4002e-05,0
1.3235,-1.7624e-05,0
1.324,5.035e-07,0
1.3245,2.5345e-05,0
1.325,4.4816e-05,0
1.3255,5.1698e-05,0
1.326,4.8005e-05,0
1.3265,4.0116e-05,0
1.327,3.8437e-05,0
1.3275,4.4144e-05,0
1.328,4.8173e-05,0
1.3285,5.8244e-05,0
1.329,7.7043e-05,0
1.3295,8.275e-05,0
1.33,6.8147e-05,0
1.3305,4.4144e-05,0
1.331,2.3667e-05,0
1.3315,1.326e-05,0
1.332,5.2033e-06,0
1.3325,-3.5248e-06,0
1.333,-2.5177e-06,0
1.3335,7.7211e-06,0
1.334,1.4603e-05,0
1.3345,8.2246e-06,0
1.335,-1.3428e-06,0
1.3355,-1.678e-07,0
1.336,1.1246e-05,0
1.3365,1.947e-05,0
1.337,1.5274e-05,0
1.3375,1.2924e-05,0
1.338,1.947e-05,0
1.3385,2.3331e-05,0
1.339,1.9303e-05,0
1.3395,1.6281e-05,0
1.34,2.3667e-05,0
1.3405,2.7359e-05,0
1.341,2.7192e-05,0
1.3415,2.7527e-05,0
1.342,1.2421e-05,0
1.3425,-1.5274e-05,0
1.343,-2.2156e-05,0
1.3435,-1.1078e-05,0
1.344,-3.5248e-06,0
1.3445,-6.8818e-06,0
1.345,-1.326e-05,0
1.3455,-6.5461e-06,0
1.346,1.7456e-05,0
1.3465,3.8773e-05,0
1.347,5.1865e-05,0
1.3475,6.5629e-05,0
1.348,8.1575e-05,0
1.3485,8.5771e-05,0
1.349,7.3854e-05,0
1.3495,5.8915e-05,0
1.35,4.8844e-05,0
1.3505,3.6255e-05,0
1.351,2.8031e-05,0
1.3515,3.1556e-05,0
1.352,3.9445e-05,0
1.3525,3.5416e-05,0
1.353,2.7359e-05,0
1.3535,1.4603e-05,0
1.354,8.2246e-06,0
1.3545,1.7288e-05,0
1.355,1.8631e-05,0
1.3555,1.0575e-05,0
1.356,1.0239e-05,0
1.3565,1.1582e-05,0
1.357,7.2175e-06,0
1.3575,5.7069e-06,0
1.358,3.1891e-06,0
1.3585,1.678e-07,0
1.359,1.5106e-06,0
1.3595,5.0355e-06,0
1.36,8.7282e-06,0
1.3605,1.091e-05,0
1.361,1.1078e-05,0
1.3615,9.3996e-06,0
1.362,5.7069e-06,0
1.3625,2.3499e-06,0
1.363,1.1749e-06,0
1.3635,8.392e-07,0
1.364,2.5177e-06,0
1.3645,-1.678e-07,0
1.365,-1.1078e-05,0
1.3655,-1.5274e-05,0
1.366,-5.2033e-06,0
1.3665,1.326e-05,0
1.367,3.0716e-05,0
1.3675,4.3977e-05,0
1.368,5.1362e-05,0
1.3685,5.8915e-05,0
1.369,6.9322e-05,0
1.3695,7.3686e-05,0
1.37,7.0664e-05,0
1.3705,6.1601e-05,0
1.371,4.2466e-05,0
1.3715,1.7288e-05,0
1.372,3.8605e-06,0
1.3725,9.2317e-06,0
1.373,1.8967e-05,0
1.3735,2.0981e-05,0
1.374,1.2421e-05,0
1.3745,8.392e-07,0
1.375,-7.7211e-06,0
1.3755,-9.2317e-06,0
1.376,-5.7069e-06,0
1.3765,-1.0575e-05,0
1.377,-2.7024e-05,0
1.3775,-3.9277e-05,0
1.378,-3.6759e-05,0
1.3785,-2.5849e-05,0
1.379,-1.2253e-05,0
1.3795,5.2033e-06,0
1.38,3.3234e-05,0
1.3805,6.3279e-05,0
1.381,6.2104e-05,0
1.3815,2.9038e-05,0
1.382,1.1749e-06,0
1.3825,-1.0407e-05,0
1.383,-1.4267e-05,0
1.3835,-9.5674e-06,0
1.384,-4.5319e-06,0
1.3845,-6.5461e-06,0
1.385,-1.561e-05,0
1.3855,-2.3163e-05,0
1.386,-8.896e-06,0
1.3865,2.4002e-05,0
1.387,4.0619e-05,0
1.3875,3.1388e-05,0
1.388,1.4099e-05,0
1.3885,-5.2033e-06,0
1.389,-1.1917e-05,0
1.3895,-3.5248e-06,0
1.39,9.9031e-06,0
1.3905,2.3163e-05,0
1.391,3.6088e-05,0
1.3915,5.9251e-05,0
1.392,9.0471e-05,0
1.3925,0.00011464,0
1.393,0.00012236,0
1.3935,0.00012404,0
1.394,0.0001133,0
1.3945,8.4764e-05,0
1.395,4.7837e-05,0
1.3955,1.8631e-05,0
1.396,5.2033e-06,0
1.3965,6.2104e-06,0
1.397,9.7353e-06,0
1.3975,1.6953e-05,0
1.398,3.3738e-05,0
1.3985,5.4048e-05,0
1.399,6.8315e-05,0
1.3995,7.0161e-05,0
1.4,5.8579e-05,0
1.4005,4.5487e-05,0
1.401,3.4073e-05,0
1.4015,2.5849e-05,0
1.402,2.3331e-05,0
1.4025,1.9303e-05,0
1.403,1.1246e-05,0
1.4035,5.2033e-06,0
1.404,3.0213e-06,0
1.4045,1.1749e-06,0
1.405,-3.5248e-06,0
1.4055,-9.2317e-06,0
1.406,-1.1917e-05,0
1.4065,-4.6998e-06,0
1.407,-4.8676e-06,0
1.4075,-1.2589e-05,0
1.408,-1.2757e-05,0
1.4085,-1.7288e-05,0
1.409,-2.4338e-05,0
1.4095,-1.2253e-05,0
1.41,1.3596e-05,0
1.4105,3.1388e-05,0
1.411,3.0716e-05,0
1.4115,2.0646e-05,0
1.412,1.0575e-05,0
1.4125,5.2033e-06,0
1.413,4.6998e-06,0
1.4135,9.5674e-06,0
1.414,2.3835e-05,0
1.4145,3.5752e-05,0
1.415,2.7359e-05,0
1.4155,2.8534e-06,0
1.416,-1.1582e-05,0
1.4165,-3.1891e-06,0
1.417,1.0575e-05,0
1.4175,1.2253e-05,0
1.418,7.2175e-06,0
1.4185,5.2033e-06,0
1.419,5.0355e-06,0
1.4195,1.0407e-05,0
1.42,1.5106e-05,0
1.4205,9.9031e-06,0
1.421,3.5248e-06,0
1.4215,-8.392e-07,0
1.422,-5.8747e-06,0
1.4225,-3.6927e-06,0
1.423,-2.182e-06,0
1.4235,-2.182e-06,0
1.424,1.2757e-05,0
1.4245,4.2466e-05,0
1.425,6.5797e-05,0
1.4255,6.6133e-05,0
1.426,4.9515e-05,0
1.4265,3.2059e-05,0
1.427,2.3499e-05,0
1.4275,2.5177e-05,0
1.428,2.7024e-05,0
1.4285,2.4338e-05,0
1.429,2.2324e-05,0
1.4295,1.7288e-05,0
1.43,9.7353e-06,0
1.4305,8.896e-06,0
1.431,1.8631e-05,0
1.4315,2.4674e-05,0
1.432,2.182e-05,0
1.4325,2.3331e-05,0
1.433,2.8702e-05,0
1.4335,4.0787e-05,0
1.434,6.1601e-05,0
1.4345,7.1336e-05,0
1.435,5.8915e-05,0
1.4355,4.0787e-05,0
1.436,1.5946e-05,0
1.4365,-7.5532e-06,0
1.437,-1.6953e-05,0
1.4375,-1.9303e-05,0
1.438,-1.6281e-05,0
1.4385,-9.5674e-06,0
1.439,-1.1414e-05,0
1.4395,-2.3499e-05,0
1.44,-3.5584e-05,0
1.4405,-4.0787e-05,0
1.441,-3.7095e-05,0
1.4415,-2.6352e-05,0
1.442,-1.2924e-05,0
1.4425,5.035e-07,0
1.443,1.1917e-05,0
1.4435,2.3331e-05,0
1.444,4.5151e-05,0
1.4445,7.3686e-05,0
1.445,9.2317e-05,0
1.4455,0.00010188,0
1.446,0.00010222,0
1.4465,9.3828e-05,0
1.447,8.4428e-05,0
1.4475,7.57e-05,0
1.448,7.0161e-05,0
1.4485,6.63e-05,0
1.449,5.539e-05,0
1.4495,4.2802e-05,0
1.45,4.7837e-05,0
1.4505,7.335e-05,0
1.451,9.6178e-05,0
1.4515,9.8192e-05,0
1.452,8.0735e-05,0
1.4525,5.3376e-05,0
1.453,2.3667e-05,0
1.4535,0,0
1.454,-1.5106e-05,0
1.4545,-2.652e-05,0
1.455,-3.8102e-05,0
1.4555,-5.8579e-05,0
1.456,-7.9057e-05,0
1.4565,-7.9393e-05,0
1.457,-5.7908e-05,0
1.4575,-3.3066e-05,0
1.458,-1.7456e-05,0
1.4585,-1.0575e-05,0
1.459,-6.8818e-06,0
1.4595,-1.678e-07,0
1.46,1.9303e-05,0
1.4605,4.4816e-05,0
1.461,6.0258e-05,0
1.4615,5.8579e-05,0
1.462,4.3473e-05,0
1.4625,2.7863e-05,0
1.463,2.0478e-05,0
1.4635,2.4674e-05,0
1.464,3.0045e-05,0
1.4645,2.8367e-05,0
1.465,3.0381e-05,0
1.4655,3.1724e-05,0
1.466,2.1653e-05,0
1.4665,1.0239e-05,0
1.467,5.2033e-06,0
1.4675,5.7069e-06,0
1.468,1.0575e-05,0
1.4685,1.2589e-05,0
1.469,8.2246e-06,0
1.4695,9.2317e-06,0
1.47,2.6017e-05,0
1.4705,4.448e-05,0
1.471,4.6494e-05,0
1.4715,4.3809e-05,0
1.472,4.3809e-05,0
1.4725,4.1459e-05,0
1.473,5.0019e-05,0
1.4735,5.9419e-05,0
1.474,5.9251e-05,0
1.4745,5.153e-05,0
1.475,3.2059e-05,0
1.4755,9.7353e-06,0
1.476,-3.0213e-06,0
1.4765,-1.3932e-05,0
1.477,-2.4674e-05,0
1.4775,-2.5177e-05,0
1.478,-1.6785e-05,0
1.4785,-9.5674e-06,0
1.479,-6.5461e-06,0
1.4795,-1.5106e-06,0
1.48,-2.5177e-06,0
1.4805,-1.2924e-05,0
1.481,-2.5009e-05,0
1.4815,-2.9877e-05,0
1.482,-2.4506e-05,0
1.4825,-1.1414e-05,0
1.483,8.3925e-06,0
1.4835,3.4073e-05,0
1.484,5.3376e-05,0
1.4845,6.7308e-05,0
1.485,6.8315e-05,0
1.4855,6.0929e-05,0
1.486,5.7572e-05,0
1.4865,4.3473e-05,0
1.487,1.9806e-05,0
1.4875,6.3783e-06,0
1.488,6.0426e-06,0
1.4885,6.2104e-06,0
1.489,1.0071e-06,0
1.4895,-5.2033e-06,0
1.49,-2.8534e-06,0
1.4905,0,0
1.491,-1.4603e-05,0
1.4915,-4.7166e-05,0
1.492,-7.6539e-05,0
1.4925,-8.4093e-05,0
1.493,-6.9993e-05,0
1.4935,-4.6494e-05,0
1.494,-2.1653e-05,0
1.4945,5.7069e-06,0
1.495,3.5752e-05,0
1.4955,6.2608e-05,0
1.496,9.2821e-05,0
1.4965,0.00012857,0
1.497,0.00014687,0
1.4975,0.00014754,0
1.498,0.00012924,0
1.4985,9.3492e-05,0
1.499,5.8244e-05,0
1.4995,3.8102e-05,0
1.5,2.9374e-05,0
1.5005,2.182e-05,0
1.501,8.2246e-06,0
1.5015,5.035e-07,0
1.502,1.7288e-05,0
1.5025,3.8102e-05,0
1.503,4.1459e-05,0
1.5035,3.5416e-05,0
1.504,3.4409e-05,0
1.5045,4.8173e-05,0
1.505,6.6636e-05,0
1.5055,6.8315e-05,0
1.506,5.6733e-05,0
1.5065,4.0787e-05,0
1.507,3.3402e-05,0
1.5075,4.1459e-05,0
1.508,5.3544e-05,0
1.5085,5.2705e-05,0
1.509,3.5416e-05,0
1.5095,3.8605e-06,0
1.51,-2.5177e-05,0
1.5105,-3.1724e-05,0
1.511,-2.9542e-05,0
1.5115,-2.8031e-05,0
1.512,-2.266e-05,0
1.5125,-1.8296e-05,0
1.513,-2.3835e-05,0
1.5135,-3.3066e-05,0
1.514,-4.683e-05,0
1.5145,-5.7404e-05,0
1.515,-5.5726e-05,0
1.5155,-3.7934e-05,0
1.516,-7.7211e-06,0
1.5165,1.6785e-05,0
1.517,2.652e-05,0
1.5175,2.8702e-05,0
1.518,3.6088e-05,0
1.5185,4.9348e-05,0
1.519,5.8579e-05,0
1.5195,7.1672e-05,0
1.52,9.0639e-05,0
1.5205,9.5171e-05,0
1.521,7.1336e-05,0
1.5215,3.0045e-05,0
1.522,-4.8676e-06,0
1.5225,-2.031e-05,0
1.523,-1.8296e-05,0
1.5235,-1.1749e-06,0
1.524,1.4603e-05,0
1.5245,1.5946e-05,0
1.525,7.2175e-06,0
1.5255,-8.7282e-06,0
1.526,-9.5674e-06,0
1.5265,1.2589e-05,0
1.527,2.5345e-05,0
1.5275,1.6281e-05,0
1.528,5.8747e-06,0
1.5285,4.5319e-06,0
1.529,6.5461e-06,0
1.5295,1.8463e-06,0
1.53,-4.8676e-06,0
1.5305,-3.5248e-06,0
1.531,-2.8534e-06,0
1.5315,-3.0213e-06,0
1.532,9.2317e-06,0
1.5325,3.1388e-05,0
1.533,4.2466e-05,0
1.5335,2.9877e-05,0
1.534,1.0575e-05,0
1.5345,1.0575e-05,0
1.535,3.5416e-05,0
1.5355,5.2201e-05,0
1.536,4.4312e-05,0
1.5365,3.2395e-05,0
1.537,2.5681e-05,0
1.5375,1.7288e-05,0
1.538,9.3996e-06,0
1.5385,-3.0213e-06,0
1.539,-1.3764e-05,0
1.5395,-1.4267e-05,0
1.54,-2.2492e-05,0
1.5405,-4.2298e-05,0
1.541,-4.7837e-05,0
1.5415,-3.7766e-05,0
1.542,-2.2828e-05,0
1.5425,1.1749e-06,0
1.543,2.7695e-05,0
1.5435,4.6159e-05,0
1.544,6.009e-05,0
1.5445,7.0329e-05,0
1.545,7.7714e-05,0
1.5455,7.9728e-05,0
1.546,8.0903e-05,0
1.5465,8.2582e-05,0
1.547,7.8721e-05,0
1.5475,7.0329e-05,0
1.548,6.7308e-05,0
1.5485,7.1336e-05,0
1.549,7.2847e-05,0
1.5495,7.7714e-05,0
1.55,8.0735e-05,0
1.5505,7.5029e-05,0
1.551,6.5965e-05,0
1.5515,4.8844e-05,0
1.552,2.7863e-05,0
1.5525,1.7121e-05,0
1.553,1.4939e-05,0
1.5535,1.5274e-05,0
1.554,1.5442e-05,0
1.5545,1.5274e-05,0
1.555,1.561e-05,0
1.5555,1.4939e-05,0
1.556,1.091e-05,0
1.5565,4.1962e-06,0
1.557,-2.182e-06,0
1.5575,-6.3783e-06,0
1.558,-7.8889e-06,0
1.5585,-8.896e-06,0
1.559,-7.2175e-06,0
1.5595,-7.2175e-06,0
1.56,-7.0497e-06,0
1.5605,-5.035e-07,0
1.561,1.1078e-05,0
1.5615,1.2757e-05,0
1.562,1.678e-07,0
1.5625,-1.4267e-05,0
1.563,-3.1724e-05,0
1.5635,-4.5487e-05,0
1.564,-3.9445e-05,0
1.5645,-1.8128e-05,0
1.565,-1.5106e-06,0
1.5655,7.5532e-06,0
1.566,1.3092e-05,0
1.5665,2.3331e-05,0
1.567,4.0116e-05,0
1.5675,5.1362e-05,0
1.568,5.0523e-05,0
1.5685,4.7669e-05,0
1.569,5.0019e-05,0
1.5695,5.0858e-05,0
1.57,4.0116e-05,0
1.5705,2.4002e-05,0
1.571,1.3932e-05,0
1.5715,9.3996e-06,0
1.572,2.5177e-06,0
1.5725,-4.5319e-06,0
1.573,-8.5603e-06,0
1.5735,-5.0355e-06,0
1.574,6.8818e-06,0
1.5745,1.4939e-05,0
1.575,8.896e-06,0
1.5755,3.5248e-06,0
1.576,2.5177e-06,0
1.5765,1.8463e-06,0
1.577,8.896e-06,0
1.5775,1.947e-05,0
1.578,2.6688e-05,0
1.5785,3.0381e-05,0
1.579,2.266e-05,0
1.5795,1.6449e-05,0
1.58,2.1988e-05,0
1.5805,2.4338e-05,0
1.581,1.2924e-05,0
1.5815,-2.8534e-06,0
1.582,-8.7282e-06,0
1.5825,-3.0213e-06,0
1.583,6.5461e-06,0
1.5835,8.2246e-06,0
1.584,8.5603e-06,0
1.5845,1.7288e-05,0
1.585,2.9709e-05,0
1.5855,4.2466e-05,0
1.586,5.6901e-05,0
1.5865,6.3951e-05,0
1.587,5.7069e-05,0
1.5875,3.8437e-05,0
1.588,2.3835e-05,0
1.5885,2.6017e-05,0
1.589,3.2898e-05,0
1.5895,3.122e-05,0
1.59,2.9709e-05,0
1.5905,2.7192e-05,0
1.591,1.8631e-05,0
1.5915,1.0407e-05,0
1.592,7.0497e-06,0
1.5925,1.0239e-05,0
1.593,1.6617e-05,0
1.5935,1.6953e-05,0
1.594,7.8889e-06,0
1.5945,-5.539e-06,0
1.595,-1.3428e-05,0
1.5955,-1.1582e-05,0
1.596,-3.5248e-06,0
1.5965,2.0142e-06,0
1.597,1.0071e-06,0
1.5975,-2.182e-06,0
1.598,3.0213e-06,0
1.5985,2.1317e-05,0
1.599,3.9277e-05,0
1.5995,3.6927e-05,0
1.6,2.0813e-05,0
1.6005,5.2033e-06,0
1.601,2.3499e-06,0
1.6015,2.031e-05,0
1.602,3.978e-05,0
1.6025,4.4144e-05,0
1.603,3.8437e-05,0
1.6035,2.8199e-05,0
1.604,3.7095e-05,0
1.6045,7.805e-05,0
1.605,0.00010222,0
1.6055,7.9057e-05,0
1.606,3.4745e-05,0
1.6065,6.0426e-06,0
1.607,8.5603e-06,0
1.6075,3.4745e-05,0
1.608,5.2033e-05,0
1.6085,4.5487e-05,0
1.609,2.7359e-05,0
1.6095,1.2924e-05,0
1.61,8.7282e-06,0
1.6105,1.947e-05,0
1.611,3.8102e-05,0
1.6115,5.5222e-05,0
1.612,6.5965e-05,0
1.6125,6.7643e-05,0
1.613,6.5629e-05,0
1.6135,6.63e-05,0
1.614,6.3279e-05,0
1.6145,5.774e-05,0
1.615,5.7572e-05,0
1.6155,6.2272e-05,0
1.616,6.4622e-05,0
1.6165,6.2608e-05,0
1.617,5.6901e-05,0
1.6175,4.683e-05,0
1.618,3.1052e-05,0
1.6185,1.6953e-05,0
1.619,1.3092e-05,0
1.6195,1.0575e-05,0
1.62,2.5177e-06,0
1.6205,-1.1582e-05,0
1.621,-2.7359e-05,0
1.6215,-4.1627e-05,0
1.622,-5.8579e-05,0
1.6225,-7.8721e-05,0
1.623,-8.9464e-05,0
1.6235,-8.4764e-05,0
1.624,-7.8553e-05,0
1.6245,-8.0735e-05,0
1.625,-8.275e-05,0
1.6255,-7.0161e-05,0
1.626,-3.743e-05,0
1.6265,6.0426e-06,0
1.627,3.743e-05,0
1.6275,5.5894e-05,0
1.628,7.1672e-05,0
1.6285,9.3492e-05,0
1.629,0.00010172,0
1.6295,7.5364e-05,0
1.63,3.6423e-05,0
1.6305,1.3596e-05,0
1.631,4.8676e-06,0
1.6315,5.0355e-06,0
1.632,1.5946e-05,0
1.6325,1.8463e-05,0
1.633,6.0426e-06,0
1.6335,-1.2924e-05,0
1.634,-3.3738e-05,0
1.6345,-3.9109e-05,0
1.635,-2.9709e-05,0
1.6355,-2.6352e-05,0
1.636,-3.3738e-05,0
1.6365,-3.1724e-05,0
1.637,-1.5946e-05,0
1.6375,3.0213e-06,0
1.638,1.9135e-05,0
1.6385,3.0381e-05,0
1.639,4.1459e-05,0
1.6395,5.8747e-05,0
1.64,7.7378e-05,0
1.6405,9.8192e-05,0
1.641,0.00011733,0
1.6415,0.0001133,0
1.642,8.1407e-05,0
1.6425,3.1388e-05,0
1.643,-1.0071e-05,0
1.6435,-2.5849e-05,0
1.644,-3.0381e-05,0
1.6445,-3.2059e-05,0
1.645,-2.8031e-05,0
1.6455,-2.2995e-05,0
1.646,-7.2175e-06,0
1.6465,3.9277e-05,0
1.647,0.00010608,0
1.6475,0.00014066,0
1.648,0.00012337,0
1.6485,8.51e-05,0
1.649,5.5726e-05,0
1.6495,3.4913e-05,0
1.65,1.8967e-05,0
1.6505,5.0355e-06,0
1.651,-8.2246e-06,0
1.6515,-1.9638e-05,0
1.652,-2.1988e-05,0
1.6525,-4.8676e-06,0
1.653,2.6352e-05,0
1.6535,5.8412e-05,0
1.654,7.6036e-05,0
1.6545,7.5029e-05,0
1.655,6.4958e-05,0
1.6555,4.8676e-05,0
1.656,3.7766e-05,0
1.6565,3.9445e-05,0
1.657,4.1962e-05,0
1.6575,3.4073e-05,0
1.658,1.7288e-05,0
1.6585,2.182e-06,0
1.659,-3.0213e-06,0
1.6595,-2.182e-06,0
1.66,-2.182e-06,0
1.6605,-3.5248e-06,0
1.661,-3.357e-06,0
1.6615,7.3854e-06,0
1.662,2.7192e-05,0
1.6625,4.683e-05,0
1.663,5.5894e-05,0
1.6635,4.1459e-05,0
1.664,7.8889e-06,0
1.6645,-2.0981e-05,0
1.665,-3.6423e-05,0
1.6655,-4.2634e-05,0
1.666,-3.4073e-05,0
1.6665,-1.2757e-05,0
1.667,-2.8534e-06,0
1.6675,-6.3783e-06,0
1.668,-6.5461e-06,0
1.6685,-3.1891e-06,0
1.669,5.7069e-06,0
1.6695,1.8296e-05,0
1.67,1.7624e-05,0
1.6705,3.5248e-06,0
1.671,-1.5778e-05,0
1.6715,-3.4073e-05,0
1.672,-3.3234e-05,0
1.6725,-1.1582e-05,0
1.673,1.3932e-05,0
1.6735,2.9877e-05,0
1.674,3.4409e-05,0
1.6745,2.8702e-05,0
1.675,1.7624e-05,0
1.6755,1.1749e-05,0
1.676,1.9135e-05,0
1.6765,3.978e-05,0
1.677,6.4958e-05,0
1.6775,8.4764e-05,0
1.678,9.3156e-05,0
1.6785,8.4764e-05,0
1.679,6.4958e-05,0
1.6795,4.8173e-05,0
1.68,3.4073e-05,0
1.6805,1.8296e-05,0
1.681,8.3925e-06,0
1.6815,-2.5177e-06,0
1.682,-2.3835e-05,0
1.6825,-4.2634e-05,0
1.683,-6.3951e-05,0
1.6835,-9.366e-05,0
1.684,-0.00011263,0
1.6845,-0.00010826,0
1.685,-8.8792e-05,0
1.6855,-6.2104e-05,0
1.686,-3.0045e-05,0
1.6865,8.7282e-06,0
1.687,5.4215e-05,0
1.6875,0.00010306,0
1.688,0.00014955,0
1.6885,0.00019051,0
1.689,0.00021401,0
1.6895,0.00020377,0
1.69,0.00016416,0
1.6905,0.00011833,0
1.691,7.0161e-05,0
1.6915,2.6688e-05,0
1.692,-6.2104e-06,0
1.6925,-2.7359e-05,0
1.693,-3.7766e-05,0
1.6935,-3.1891e-05,0
1.694,-1.1917e-05,0
1.6945,5.0355e-06,0
1.695,1.4267e-05,0
1.6955,2.3667e-05,0
1.696,3.4073e-05,0
1.6965,4.3809e-05,0
1.697,6.0929e-05,0
1.6975,7.6371e-05,0
1.698,6.9322e-05,0
1.6985,4.5823e-05,0
1.699,2.266e-05,0
1.6995,7.8889e-06,0
1.7,-3.0213e-06,0
1.7005,-1.1582e-05,0
1.701,-1.2924e-05,0
1.7015,-8.3925e-06,0
1.702,-8.392e-07,0
1.7025,5.2033e-06,0
1.703,1.4939e-05,0
1.7035,1.8631e-05,0
1.704,1.6785e-06,0
1.7045,-3.0716e-05,0
1.705,-5.388e-05,0
1.7055,-4.5319e-05,0
1.706,-2.2828e-05,0
1.7065,-1.4939e-05,0
1.707,-1.1749e-05,0
1.7075,-5.539e-06,0
1.708,-1.1749e-06,0
1.7085,2.0142e-06,0
1.709,-1.678e-07,0
1.7095,-2.0142e-06,0
1.71,6.5461e-06,0
1.7105,1.5274e-05,0
1.711,1.4267e-05,0
1.7115,1.5778e-05,0
1.712,1.9638e-05,0
1.7125,2.8031e-05,0
1.713,4.6159e-05,0
1.7135,6.5293e-05,0
1.714,7.9057e-05,0
1.7145,9.0806e-05,0
1.715,0.00010021,0
1.7155,0.00010524,0
1.716,0.00010155,0
1.7165,8.6946e-05,0
1.717,6.3783e-05,0
1.7175,3.6088e-05,0
1.718,1.8296e-05,0
1.7185,1.5274e-05,0
1.719,5.8747e-06,0
1.7195,-8.2246e-06,0
1.72,-1.091e-05,0
1.7205,-1.4939e-05,0
1.721,-3.0549e-05,0
1.7215,-3.2395e-05,0
1.722,-1.6617e-05,0
1.7225,-7.5532e-06,0
1.723,-1.091e-05,0
1.7235,-2.2995e-05,0
1.724,-3.2731e-05,0
1.7245,-3.6591e-05,0
1.725,-2.9206e-05,0
1.7255,-8.2246e-06,0
1.726,2.6688e-05,0
1.7265,6.5629e-05,0
1.727,8.9632e-05,0
1.7275,9.6178e-05,0
1.728,0.00011196,0
1.7285,0.00014452,0
1.729,0.00015392,0
1.7295,0.00010994,0
1.73,3.978e-05,0
1.7305,-8.896e-06,0
1.731,-8.896e-06,0
1.7315,2.652e-05,0
1.732,4.0116e-05,0
1.7325,1.4771e-05,0
1.733,-1.9135e-05,0
1.7335,-5.4719e-05,0
1.734,-8.4764e-05,0
1.7345,-8.1743e-05,0
1.735,-5.4551e-05,0
1.7355,-2.652e-05,0
1.736,-7.8889e-06,0
1.7365,2.5177e-06,0
1.737,1.0071e-05,0
1.7375,1.5946e-05,0
1.738,1.8296e-05,0
1.7385,2.3331e-05,0
1.739,3.2059e-05,0
1.7395,3.6088e-05,0
1.74,3.0381e-05,0
1.7405,2.031e-05,0
1.741,5.539e-06,0
1.7415,-5.0355e-06,0
1.742,5.539e-06,0
1.7425,2.8031e-05,0
1.743,3.1891e-05,0
1.7435,1.7288e-05,0
1.744,8.2246e-06,0
1.7445,1.2253e-05,0
1.745,5.2033e-06,0
1.7455,-1.9638e-05,0
1.746,-4.1962e-05,0
1.7465,-5.2033e-05,0
1.747,-4.5487e-05,0
1.7475,-2.1653e-05,0
1.748,-3.5248e-06,0
1.7485,-5.2033e-06,0
1.749,-3.5248e-06,0
1.7495,1.6953e-05,0
1.75,4.4816e-05,0
1.7505,6.6636e-05,0
1.751,8.191e-05,0
1.7515,9.6345e-05,0
1.752,0.00010826,0
1.7525,0.00011196,0
1.753,0.00010591,0
1.7535,9.1142e-05,0
1.754,7.3518e-05,0
1.7545,6.5293e-05,0
1.755,6.8986e-05,0
1.7555,6.5293e-05,0
1.756,4.4816e-05,0
1.7565,1.6449e-05,0
1.757,-6.8818e-06,0
1.7575,-1.7121e-05,0
1.758,-2.4002e-05,0
1.7585,-2.8702e-05,0
1.759,-1.9806e-05,0
1.7595,-7.2175e-06,0
1.76,1.8463e-06,0
1.7605,4.0284e-06,0
1.761,-1.1078e-05,0
1.7615,-3.1556e-05,0
1.762,-4.7166e-05,0
1.7625,-5.9251e-05,0
1.763,-6.8986e-05,0
1.7635,-7.5029e-05,0
1.764,-6.8818e-05,0
1.7645,-4.5991e-05,0
1.765,-1.4603e-05,0
1.7655,1.1246e-05,0
1.766,3.4577e-05,0
1.7665,6.7643e-05,0
1.767,0.00011431,0
1.7675,0.00016298,0
1.768,0.00017977,0
1.7685,0.00015023,0
1.769,0.0001044,0
1.7695,6.1097e-05,0
1.77,2.4674e-05,0
1.7705,7.8889e-06,0
1.771,4.5319e-06,0
1.7715,3.1891e-06,0
1.772,7.2175e-06,0
1.7725,2.0478e-05,0
1.773,3.0716e-05,0
1.7735,3.6423e-05,0
1.774,4.0452e-05,0
1.7745,4.9851e-05,0
1.775,5.6733e-05,0
1.7755,5.069e-05,0
1.776,3.5416e-05,0
1.7765,2.8534e-05,0
1.777,4.0452e-05,0
1.7775,5.4551e-05,0
1.778,5.153e-05,0
1.7785,3.5416e-05,0
1.779,1.5946e-05,0
1.7795,-4.5319e-06,0
1.78,-1.561e-05,0
1.7805,-7.0497e-06,0
1.781,1.0575e-05,0
1.7815,1.3764e-05,0
1.782,2.3499e-06,0
1.7825,-1.0239e-05,0
1.783,-1.6617e-05,0
1.7835,-1.3932e-05,0
1.784,-1.6281e-05,0
1.7845,-3.4073e-05,0
1.785,-6.3951e-05,0
1.7855,-9.8863e-05,0
1.786,-0.00011951,0
1.7865,-0.00010793,0
1.787,-7.7043e-05,0
1.7875,-3.8102e-05,0
1.788,1.8463e-06,0
1.7885,3.1388e-05,0
1.789,5.4048e-05,0
1.7895,7.0329e-05,0
1.79,8.2414e-05,0
1.7905,9.601e-05,0
1.791,0.00010726,0
1.7915,0.00010524,0
1.792,9.1814e-05,0
1.7925,7.4861e-05,0
1.793,6.3279e-05,0
1.7935,5.623e-05,0
1.794,4.2802e-05,0
1.7945,3.0716e-05,0
1.795,2.9206e-05,0
1.7955,2.6352e-05,0
1.796,1.4603e-05,0
1.7965,3.5248e-06,0
1.797,-9.9031e-06,0
1.7975,-1.9638e-05,0
1.798,-7.2175e-06,0
1.7985,1.2589e-05,0
1.799,2.5177e-05,0
1.7995,3.3066e-05,0
1.8,4.6662e-05,0
1.8005,7.0664e-05,0
1.801,8.0064e-05,0
1.8015,6.1601e-05,0
1.802,2.9709e-05,0
1.8025,5.035e-07,0
1.803,-2.4842e-05,0
1.8035,-3.9948e-05,0
1.804,-3.1724e-05,0
1.8045,-8.7282e-06,0
1.805,6.5461e-06,0
1.8055,1.678e-07,0
1.806,-2.266e-05,0
1.8065,-3.7262e-05,0
1.807,-3.0716e-05,0
1.8075,-2.0981e-05,0
1.808,-1.8631e-05,0
1.8085,-2.1653e-05,0
1.809,-2.4674e-05,0
1.8095,-2.0813e-05,0
1.81,-1.6617e-05,0
1.8105,-4.1962e-06,0
1.811,3.4073e-05,0
1.8115,7.2847e-05,0
1.812,8.4596e-05,0
1.8125,7.9057e-05,0
1.813,6.7475e-05,0
1.8135,5.3544e-05,0
1.814,3.978e-05,0
1.8145,3.0045e-05,0
1.815,2.4842e-05,0
1.8155,1.8631e-05,0
1.816,1.5442e-05,0
1.8165,2.5681e-05,0
1.817,4.6159e-05,0
1.8175,6.63e-05,0
1.818,6.6636e-05,0
1.8185,4.7501e-05,0
1.819,3.0045e-05,0
1.8195,1.2589e-05,0
1.82,-1.3596e-05,0
1.8205,-3.3738e-05,0
1.821,-3.5416e-05,0
1.8215,-3.1724e-05,0
1.822,-2.1988e-05,0
1.8225,-8.392e-07,0
1.823,2.2156e-05,0
1.8235,4.3473e-05,0
1.824,6.5965e-05,0
1.8245,6.2104e-05,0
1.825,2.7359e-05,0
1.8255,-4.3641e-06,0
1.826,-1.6449e-05,0
1.8265,-1.0239e-05,0
1.827,1.6953e-05,0
1.8275,5.0858e-05,0
1.828,6.9657e-05,0
1.8285,7.3686e-05,0
1.829,8.0903e-05,0
1.8295,9.601e-05,0
1.83,0.00010021,0
1.8305,8.6442e-05,0
1.831,6.009e-05,0
1.8315,3.2059e-05,0
1.832,1.3932e-05,0
1.8325,7.5532e-06,0
1.833,1.2589e-05,0
1.8335,2.5849e-05,0
1.834,3.8605e-05,0
1.8345,3.4913e-05,0
1.835,1.7624e-05,0
1.8355,8.392e-07,0
1.836,-1.1582e-05,0
1.8365,-2.6352e-05,0
1.837,-4.0452e-05,0
1.8375,-3.0045e-05,0
1.838,1.4267e-05,0
1.8385,6.9657e-05,0
1.839,0.0001039,0
1.8395,0.00010272,0
1.84,7.9728e-05,0
1.8405,4.8173e-05,0
1.841,2.7359e-05,0
1.8415,2.7024e-05,0
1.842,3.2731e-05,0
1.8425,3.1052e-05,0
1.843,2.1317e-05,0
1.8435,3.6927e-06,0
1.844,-1.6953e-05,0
1.8445,-2.5009e-05,0
1.845,-1.6281e-05,0
1.8455,-8.5603e-06,0
1.846,-1.2253e-05,0
1.8465,-2.2324e-05,0
1.847,-2.7024e-05,0
1.8475,-2.031e-05,0
1.848,-8.2246e-06,0
1.8485,5.035e-07,0
1.849,1.1749e-06,0
1.8495,-5.539e-06,0
1.85,-1.3596e-05,0
1.8505,-2.2995e-05,0
1.851,-2.4506e-05,0
1.8515,-1.4267e-05,0
1.852,-8.2246e-06,0
1.8525,-1.2757e-05,0
1.853,-1.8967e-05,0
1.8535,-1.3932e-05,0
1.854,1.1246e-05,0
1.8545,3.592e-05,0
1.855,4.7501e-05,0
1.8555,5.153e-05,0
1.856,4.8173e-05,0
1.8565,3.5752e-05,0
1.857,3.3738e-05,0
1.8575,4.5487e-05,0
1.858,4.683e-05,0
1.8585,3.0381e-05,0
1.859,2.2995e-05,0
1.8595,3.0381e-05,0
1.86,1.6114e-05,0
1.8605,-3.7598e-05,0
1.861,-9.2821e-05,0
1.8615,-0.00010457,0
1.862,-7.9393e-05,0
1.8625,-4.8005e-05,0
1.863,-1.5778e-05,0
1.8635,8.2246e-06,0
1.864,2.8702e-05,0
1.8645,6.2944e-05,0
1.865,0.00011179,0
1.8655,0.00014334,0
1.866,0.00012589,0
1.8665,7.6036e-05,0
1.867,2.8702e-05,0
1.8675,-1.5106e-06,0
1.868,-1.4099e-05,0
1.8685,-9.5674e-06,0
1.869,1.2589e-05,0
1.8695,4.3473e-05,0
1.87,6.6972e-05,0
1.8705,7.2847e-05,0
1.871,7.7546e-05,0
1.8715,9.366e-05,0
1.872,9.9199e-05,0
1.8725,7.57e-05,0
1.873,4.4984e-05,0
1.8735,2.7192e-05,0
1.874,2.4674e-05,0
1.8745,3.6591e-05,0
1.875,5.153e-05,0
1.8755,5.5726e-05,0
1.876,5.0355e-05,0
1.8765,3.5248e-05,0
1.877,1.8967e-05,0
1.8775,1.7792e-05,0
1.878,2.0142e-05,0
1.8785,1.9303e-05,0
1.879,2.4002e-05,0
1.8795,3.0716e-05,0
1.88,2.5345e-05,0
1.8805,1.7121e-05,0
1.881,1.3932e-05,0
1.8815,5.2033e-06,0
1.882,-9.2317e-06,0
1.8825,-2.0646e-05,0
1.883,-2.6352e-05,0
1.8835,-3.0716e-05,0
1.884,-2.7359e-05,0
1.8845,-1.2589e-05,0
1.885,9.5674e-06,0
1.8855,1.8296e-05,0
1.886,2.3499e-06,0
1.8865,-1.7288e-05,0
1.887,-1.8296e-05,0
1.8875,-1.678e-07,0
1.888,1.6617e-05,0
1.8885,2.266e-05,0
1.889,2.5177e-05,0
1.8895,2.1317e-05,0
1.89,6.2104e-06,0
1.8905,-7.7211e-06,0
1.891,-1.1749e-05,0
1.8915,-9.9031e-06,0
1.892,-6.2104e-06,0
1.8925,-1.678e-07,0
1.893,5.2033e-06,0
1.8935,7.0497e-06,0
1.894,3.8605e-06,0
1.8945,-9.2317e-06,0
1.895,-2.266e-05,0
1.8955,-2.3163e-05,0
1.896,-2.0478e-05,0
1.8965,-2.4002e-05,0
1.897,-3.0213e-05,0
1.8975,-3.122e-05,0
1.898,-3.122e-05,0
1.8985,-2.3163e-05,0
1.899,1.0071e-06,0
1.8995,3.0716e-05,0
1.9,5.3544e-05,0
1.9005,7.7378e-05,0
1.901,0.00011313,0
1.9015,0.00014838,0
1.902,0.00016147,0
1.9025,0.0001415,0
1.903,9.5842e-05,0
1.9035,5.0355e-05,0
1.904,2.652e-05,0
1.9045,2.887e-05,0
1.905,3.7095e-05,0
1.9055,3.2731e-05,0
1.906,2.4338e-05,0
1.9065,2.0646e-05,0
1.907,2.0142e-06,0
1.9075,-2.1653e-05,0
1.908,-1.6281e-05,0
1.9085,1.7624e-05,0
1.909,5.1865e-05,0
1.9095,7.805e-05,0
1.91,0.00010256,0
1.9105,0.00010961,0
1.911,9.0135e-05,0
1.9115,4.683e-05,0
1.912,3.0213e-06,0
1.9125,-3.4745e-05,0
1.913,-5.3544e-05,0
1.9135,-3.3234e-05,0
1.914,5.8747e-06,0
1.9145,3.0884e-05,0
1.915,3.7262e-05,0
1.9155,2.7695e-05,0
1.916,2.1317e-05,0
1.9165,3.0381e-05,0
1.917,2.6856e-05,0
1.9175,7.5532e-06,0
1.918,7.2175e-06,0
1.9185,2.5345e-05,0
1.919,3.2059e-05,0
1.9195,2.4002e-05,0
1.92,2.1317e-05,0
1.9205,3.0716e-05,0
1.921,4.5151e-05,0
1.9215,5.4551e-05,0
1.922,5.4887e-05,0
1.9225,4.5823e-05,0
1.923,2.7695e-05,0
1.9235,8.5603e-06,0
1.924,0,0
1.9245,0,0
1.925,0,0
1.9255,0,0
1.926,0,0
1.9265,0,0
1.927,0,0
1.9275,0,0
1.928,0,0
1.9285,0,0
1.929,0,0
1.9295,0,0
1.93,0,0
1.9305,0,0
1.931,0,0
1.9315,0,0
1.932,0,0
1.9325,0,0
1.933,0,0
1.9335,0,0
1.934,0,0
1.9345,0,0
1.935,0,0
1.9355,0,0
1.936,0,0
1.9365,0,0
1.937,6.2104e-06,0
1.9375,2.0646e-05,0
1.938,3.1388e-05,0
1.9385,3.4073e-05,0
1.939,2.5345e-05,0
1.9395,9.2317e-06,0
1.94,-2.8702e-05,0
1.9405,-8.2414e-05,0
1.941,-0.00011582,0
1.9415,-0.0001039,0
1.942,-6.1601e-05,0
1.9425,-1.6953e-05,0
1.943,9.3996e-06,0
1.9435,3.1724e-05,0
1.944,8.0735e-05,0
1.9445,0.00014821,0
1.945,0.00019756,0
1.9455,0.00020931,0
1.946,0.0001796,0
1.9465,0.00012471,0
1.947,7.2175e-05,0
1.9475,4.8173e-05,0
1.948,6.6636e-05,0
1.9485,0.00010457,0
1.949,0.00013747,0
1.9495,0.00014653,0
1.95,0.00012454,0
1.9505,7.8721e-05,0
1.951,9.7353e-06,0
1.9515,-5.9587e-05,0
1.952,-5.9587e-05,0
1.9525,1.0239e-05,0
1.953,3.7766e-05,0
1.9535,-2.0646e-05,0
1.954,-9.3324e-05,0
1.9545,-0.0001274,0
1.955,-0.000118,0
1.9555,-6.7308e-05,0
1.956,7.0497e-06,0
1.9565,7.2847e-05,0
1.957,0.00011229,0
1.9575,0.00011884,0
1.958,0.00010574,0
1.9585,8.7617e-05,0
1.959,6.8147e-05,0
1.9595,4.4984e-05,0
1.96,1.2757e-05,0
1.9605,-1.796e-05,0
1.961,-2.3667e-05,0
1.9615,-5.8747e-06,0
1.962,1.7288e-05,0
1.9625,2.8702e-05,0
1.963,2.6688e-05,0
1.9635,1.3932e-05,0
1.964,-7.2175e-06,0
1.9645,-1.5106e-05,0
1.965,3.0213e-06,0
1.9655,3.122e-05,0
1.966,3.8773e-05,0
1.9665,1.8296e-05,0
1.967,-4.1962e-06,0
1.9675,-1.0407e-05,0
1.968,5.539e-06,0
1.9685,2.9038e-05,0
1.969,3.3402e-05,0
1.9695,3.3402e-05,0
1.97,4.8508e-05,0
1.9705,6.0258e-05,0
1.971,5.2872e-05,0
1.9715,3.4577e-05,0
1.972,1.9303e-05,0
1.9725,1.3596e-05,0
1.973,1.1582e-05,0
1.9735,5.035e-07,0
1.974,-1.6785e-05,0
1.9745,-2.7695e-05,0
1.975,-2.9877e-05,0
1.9755,-2.4842e-05,0
1.976,-1.2253e-05,0
1.9765,-3.0213e-06,0
1.977,1.4771e-05,0
1.9775,4.2802e-05,0
1.978,5.2033e-05,0
1.9785,5.0187e-05,0
1.979,6.3615e-05,0
1.9795,7.7714e-05,0
1.98,6.9322e-05,0
1.9805,2.5681e-05,0
1.981,-3.7766e-05,0
1.9815,-7.4525e-05,0
1.982,-7.3014e-05,0
1.9825,-4.0284e-05,0
1.983,3.4409e-05,0
1.9835,9.3828e-05,0
1.984,7.8553e-05,0
1.9845,1.8296e-05,0
1.985,-2.7192e-05,0
1.9855,-3.2395e-05,0
1.986,-1.091e-05,0
1.9865,1.2589e-05,0
1.987,2.3331e-05,0
1.9875,2.4002e-05,0
1.988,1.6449e-05,0
1.9885,-1.1582e-05,0
1.989,-4.6494e-05,0
1.9895,-6.244e-05,0
1.99,-5.3208e-05,0
1.9905,-4.1795e-05,0
1.991,-4.6494e-05,0
1.9915,-5.4215e-05,0
1.992,-4.9851e-05,0
1.9925,-1.7624e-05,0
1.993,2.7359e-05,0
1.9935,2.9374e-05,0
1.994,-1.2421e-05,0
1.9945,-4.0452e-05,0
1.995,-3.743e-05,0
1.9955,-3.2731e-05,0
1.996,-5.0187e-05,0
1.9965,-8.3085e-05,0
1.997,-9.2821e-05,0
1.9975,-7.4693e-05,0
1.998,-4.4816e-05,0
1.9985,-8.896e-06,0
1.999,3.0716e-05,0
1.9995,5.5558e-05,0
2,5.8244e-05,0
2.0005,5.8915e-05,0
2.001,7.9057e-05,0
2.0015,0.00011582,0
2.002,0.00016147,0
2.0025,0.00020327,0
2.003,0.00022777,0
2.0035,0.00022542,0
2.004,0.00021065,0
2.0045,0.00019974,0
2.005,0.00017053,0
2.0055,0.00012454,0
2.006,8.3589e-05,0
2.0065,4.8676e-05,0
2.007,1.9638e-05,0
2.0075,6.0426e-06,0
2.008,2.8534e-06,0
2.0085,4.8676e-06,0
2.009,1.3932e-05,0
2.0095,2.7192e-05,0
2.01,4.7166e-05,0
2.0105,5.3544e-05,0
2.011,4.2802e-05,0
2.0115,3.4409e-05,0
2.012,2.7863e-05,0
2.0125,7.0497e-06,0
2.013,-2.3499e-05,0
2.0135,-4.0452e-05,0
2.014,-3.9109e-05,0
2.0145,-3.508e-05,0
2.015,-2.7527e-05,0
2.0155,3.0213e-06,0
2.016,5.8747e-05,0
2.0165,8.9967e-05,0
2.017,6.2608e-05,0
2.0175,1.796e-05,0
2.018,-1.6617e-05,0
2.0185,-3.2059e-05,0
2.019,-2.7024e-05,0
2.0195,-2.266e-05,0
2.02,-2.3163e-05,0
2.0205,-1.2924e-05,0
2.021,4.8676e-06,0
2.0215,1.9303e-05,0
2.022,3.827e-05,0
2.0225,6.7643e-05,0
2.023,8.5771e-05,0
2.0235,7.6371e-05,0
2.024,5.069e-05,0
2.0245,2.6688e-05,0
2.025,9.2317e-06,0
2.0255,3.1891e-06,0
2.026,-3.1891e-06,0
2.0265,-3.9445e-05,0
2.027,-0.00010121,0
2.0275,-0.00014989,0
2.028,-0.00015375,0
2.0285,-0.00012203,0
2.029,-8.0064e-05,0
2.0295,-4.8173e-05,0
2.03,-2.9374e-05,0
2.0305,-3.357e-06,0
2.031,3.3234e-05,0
2.0315,6.7643e-05,0
2.032,9.4163e-05,0
2.0325,9.9367e-05,0
2.033,8.745e-05,0
2.0335,7.4021e-05,0
2.034,6.0258e-05,0
2.0345,5.7237e-05,0
2.035,7.4861e-05,0
2.0355,9.0303e-05,0
2.036,6.2272e-05,0
2.0365,2.0813e-05,0
2.037,1.9974e-05,0
2.0375,3.5416e-05,0
2.038,1.9974e-05,0
2.0385,-9.0639e-06,0
2.039,-2.3331e-05,0
2.0395,-1.6617e-05,0
2.04,8.3925e-06,0
2.0405,2.8367e-05,0
2.041,3.5584e-05,0
2.0415,3.1052e-05,0
2.042,1.0575e-05,0
2.0425,-9.7353e-06,0
2.043,-8.392e-07,0
2.0435,3.2731e-05,0
2.044,3.978e-05,0
2.0445,1.4603e-05,0
2.045,-2.5177e-06,0
2.0455,1.326e-05,0
2.046,5.7908e-05,0
2.0465,0.00010809,0
2.047,0.00013764,0
2.0475,0.00013545,0
2.048,9.6513e-05,0
2.0485,2.6017e-05,0
2.049,-3.0381e-05,0
2.0495,-4.683e-05,0
2.05,-4.0955e-05,0
2.0505,-3.7095e-05,0
2.051,-4.0619e-05,0
2.0515,-4.4312e-05,0
2.052,-4.5823e-05,0
2.0525,-4.7837e-05,0
2.053,-4.3137e-05,0
2.0535,-2.8534e-05,0
2.054,-9.9031e-06,0
2.0545,5.8747e-06,0
2.055,3.978e-05,0
2.0555,8.9464e-05,0
2.056,0.00011867,0
2.0565,0.00011112,0
2.057,8.0064e-05,0
2.0575,4.2634e-05,0
2.058,2.3667e-05,0
2.0585,1.6449e-05,0
2.059,-2.5009e-05,0
2.0595,-8.51e-05,0
2.06,-0.00011582,0
2.0605,-0.00010222,0
2.061,-5.7908e-05,0
2.0615,-5.035e-07,0
2.062,6.3951e-05,0
2.0625,0.0001138,0
2.063,0.0001232,0
2.0635,8.04e-05,0
2.064,1.1917e-05,0
2.0645,-1.8967e-05,0
2.065,1.8463e-06,0
2.0655,3.4409e-05,0
2.066,4.448e-05,0
2.0665,3.3402e-05,0
2.067,2.6688e-05,0
2.0675,3.6423e-05,0
2.068,5.6901e-05,0
2.0685,8.8792e-05,0
2.069,0.00013344,0
2.0695,0.00017943,0
2.07,0.00018682,0
2.0705,0.00014284,0
2.071,7.805e-05,0
2.0715,2.9374e-05,0
2.072,1.8296e-05,0
2.0725,3.0381e-05,0
2.073,2.8367e-05,0
2.0735,1.1246e-05,0
2.074,5.2033e-06,0
2.0745,8.5603e-06,0
2.075,1.326e-05,0
2.0755,1.5442e-05,0
2.076,1.5274e-05,0
2.0765,1.8463e-06,0
2.077,-2.4506e-05,0
2.0775,-4.4648e-05,0
2.078,-3.7766e-05,0
2.0785,-8.5603e-06,0
2.079,1.5946e-05,0
2.0795,3.1724e-05,0
2.08,3.4409e-05,0
2.0805,1.2253e-05,0
2.081,-3.4577e-05,0
2.0815,-7.8553e-05,0
2.082,-0.00011397,0
2.0825,-0.00014435,0
2.083,-0.000165,0
2.0835,-0.00015795,0
2.084,-0.00011397,0
2.0845,-5.9587e-05,0
2.085,-1.9303e-05,0
2.0855,9.2317e-06,0
2.086,2.7359e-05,0
2.0865,4.1123e-05,0
2.087,5.4887e-05,0
2.0875,7.2679e-05,0
2.088,9.2989e-05,0
2.0885,9.8863e-05,0
2.089,8.1407e-05,0
2.0895,5.7572e-05,0
2.09,5.2537e-05,0
2.0905,5.9754e-05,0
2.091,6.3447e-05,0
2.0915,5.8579e-05,0
2.092,4.683e-05,0
2.0925,3.357e-05,0
2.093,2.1317e-05,0
2.0935,1.6281e-05,0
2.094,2.266e-05,0
2.0945,2.182e-05,0
2.095,1.2253e-05,0
2.0955,7.0497e-06,0
2.096,-4.5319e-06,0
2.0965,-2.4506e-05,0
2.097,-3.9109e-05,0
2.0975,-4.7501e-05,0
2.098,-3.978e-05,0
2.0985,-1.0239e-05,0
2.099,1.9638e-05,0
2.0995,3.8102e-05,0
2.1,4.6662e-05,0
2.1005,4.2802e-05,0
2.101,3.7095e-05,0
2.1015,3.743e-05,0
2.102,2.7192e-05,0
2.1025,3.1891e-06,0
2.103,-1.5274e-05,0
2.1035,-1.2589e-05,0
2.104,8.896e-06,0
2.1045,3.1388e-05,0
2.105,3.9612e-05,0
2.1055,3.6088e-05,0
2.106,3.743e-05,0
2.1065,7.8386e-05,0
2.107,0.00015023,0
2.1075,0.0001749,0
2.108,9.5338e-05,0
2.1085,-2.1317e-05,0
2.109,-8.1407e-05,0
2.1095,-7.9896e-05,0
2.11,-5.1194e-05,0
2.1105,-1.8631e-05,0
2.111,3.6423e-05,0
2.1115,9.8527e-05,0
2.112,0.00010121,0
2.1125,6.63e-05,0
2.113,8.1743e-05,0
2.1135,0.0001368,0
2.114,0.0001744,0
2.1145,0.00019454,0
2.115,0.00019773,0
2.1155,0.00015358,0
2.116,6.3447e-05,0
2.1165,-2.8199e-05,0
2.117,-8.0735e-05,0
2.1175,-0.00010054,0
2.118,-0.00010256,0
2.1185,-7.956e-05,0
2.119,-3.8102e-05,0
2.1195,-7.2175e-06,0
2.12,7.2175e-06,0
2.1205,2.031e-05,0
2.121,3.9612e-05,0
2.1215,5.7908e-05,0
2.122,5.9754e-05,0
2.1225,3.743e-05,0
2.123,1.7792e-05,0
2.1235,1.6617e-05,0
2.124,2.1988e-05,0
2.1245,1.7624e-05,0
2.125,5.8747e-06,0
2.1255,1.5106e-05,0
2.126,4.1962e-05,0
2.1265,4.5487e-05,0
2.127,1.2421e-05,0
2.1275,-1.5274e-05,0
2.128,1.8463e-05,0
2.1285,6.4118e-05,0
2.129,3.3738e-05,0
2.1295,-6.0761e-05,0
2.13,-0.000142,0
2.1305,-0.00018379,0
2.131,-0.0001984,0
2.1315,-0.00018782,0
2.132,-0.00015375,0
2.1325,-0.00011934,0
2.133,-8.6107e-05,0
2.1335,-4.7669e-05,0
2.134,-5.035e-07,0
2.1345,6.4118e-05,0
2.135,0.00012203,0
2.1355,0.00015224,0
2.136,0.00015123,0
2.1365,0.00011867,0
2.137,7.7714e-05,0
2.1375,5.4887e-05,0
2.138,5.7908e-05,0
2.1385,7.3686e-05,0
2.139,8.6946e-05,0
2.1395,9.4499e-05,0
2.14,9.9199e-05,0
2.1405,9.8527e-05,0
2.141,8.3085e-05,0
2.1415,5.6565e-05,0
2.142,2.6017e-05,0
2.1425,1.0239e-05,0
2.143,1.6449e-05,0
2.1435,2.9038e-05,0
2.144,3.5416e-05,0
2.1445,3.2731e-05,0
2.145,2.3331e-05,0
2.1455,1.326e-05,0
2.146,8.2246e-06,0
2.1465,4.1962e-06,0
2.147,-6.5461e-06,0
2.1475,-1.4939e-05,0
2.148,-1.6785e-05,0
2.1485,-1.4771e-05,0
2.149,-1.1917e-05,0
2.1495,-7.5532e-06,0
2.15,3.1891e-06,0
2.1505,1.6449e-05,0
2.151,1.796e-05,0
2.1515,1.561e-05,0
2.152,2.266e-05,0
2.1525,3.3402e-05,0
2.153,3.2059e-05,0
2.1535,2.266e-05,0
2.154,1.6953e-05,0
2.1545,1.3932e-05,0
2.155,9.9031e-06,0
2.1555,5.8747e-06,0
2.156,4.5319e-06,0
2.1565,2.5177e-06,0
2.157,1.1749e-06,0
2.1575,-3.6927e-06,0
2.158,-1.2757e-05,0
2.1585,1.7288e-05,0
2.159,6.9657e-05,0
2.1595,3.4745e-05,0
2.16,-9.1646e-05,0
2.1605,-0.00018312,0
2.161,-0.00020528,0
2.1615,-0.00020964,0
2.162,-0.00019722,0
2.1625,-0.00015258,0
2.163,-7.4861e-05,0
2.1635,1.2924e-05,0
2.164,8.1743e-05,0
2.1645,0.00014754,0
2.165,0.0002271,0
2.1655,0.0002788,0
2.166,0.00026839,0
2.1665,0.00022257,0
2.167,0.00017574,0
2.1675,0.00012186,0
2.168,5.5222e-05,0
2.1685,9.9031e-06,0
2.169,5.0355e-06,0
2.1695,1.9303e-05,0
2.17,3.978e-05,0
2.1705,6.7643e-05,0
2.171,7.6371e-05,0
2.1715,6.4286e-05,0
2.172,6.0258e-05,0
2.1725,6.8315e-05,0
2.173,6.5126e-05,0
2.1735,4.7501e-05,0
2.174,1.9135e-05,0
2.1745,3.8605e-06,0
2.175,2.2995e-05,0
2.1755,5.623e-05,0
2.176,8.04e-05,0
2.1765,7.6204e-05,0
2.177,3.3738e-05,0
2.1775,-2.1149e-05,0
2.178,-5.9251e-05,0
2.1785,-7.956e-05,0
2.179,-8.275e-05,0
2.1795,-7.4693e-05,0
2.18,-5.7572e-05,0
2.1805,-2.8534e-05,0
2.181,1.4603e-05,0
2.1815,7.4357e-05,0
2.182,0.00013378,0
2.1825,0.00016751,0
2.183,0.00016802,0
2.1835,0.00014032,0
2.184,9.7017e-05,0
2.1845,5.2705e-05,0
2.185,1.4603e-05,0
2.1855,-1.5946e-05,0
2.186,-3.9109e-05,0
2.1865,-4.6494e-05,0
2.187,-3.9445e-05,0
2.1875,-2.8031e-05,0
2.188,-1.8296e-05,0
2.1885,-4.0284e-06,0
2.189,1.6617e-05,0
2.1895,2.9709e-05,0
2.19,1.9974e-05,0
2.1905,-9.7353e-06,0
2.191,-3.8102e-05,0
2.1915,-4.8508e-05,0
2.192,-4.2802e-05,0
2.1925,-3.7766e-05,0
2.193,-3.8102e-05,0
2.1935,-3.9612e-05,0
2.194,-3.5248e-05,0
2.1945,-2.4002e-05,0
2.195,-1.3764e-05,0
2.1955,-9.0639e-06,0
2.196,-3.5248e-06,0
2.1965,5.8747e-06,0
2.197,1.3932e-05,0
2.1975,1.9135e-05,0
2.198,2.0813e-05,0
2.1985,3.0716e-05,0
2.199,4.7166e-05,0
2.1995,3.8437e-05,0
2.2,3.6927e-06,0
2.2005,-2.9709e-05,0
2.201,-5.153e-05,0
2.2015,-7.1672e-05,0
2.202,-8.275e-05,0
2.2025,-6.4958e-05,0
2.203,-3.3738e-05,0
2.2035,-1.1246e-05,0
2.204,1.1246e-05,0
2.2045,3.8773e-05,0
2.205,4.8173e-05,0
2.2055,3.4073e-05,0
2.206,3.4745e-05,0
2.2065,7.3014e-05,0
2.207,9.5674e-05,0
2.2075,6.4286e-05,0
2.208,2.6688e-05,0
2.2085,2.9038e-05,0
2.209,6.5126e-05,0
2.2095,0.00010272,0
2.21,0.00012941,0
2.2105,0.00014469,0
2.211,0.0001326,0
2.2115,7.1e-05,0
2.212,-3.1891e-06,0
2.2125,-3.7934e-05,0
2.213,-4.6662e-05,0
2.2135,-5.069e-05,0
2.214,-3.7766e-05,0
2.2145,-1.4603e-05,0
2.215,4.1962e-06,0
2.2155,3.6423e-05,0
2.216,8.2918e-05,0
2.2165,0.00011128,0
2.217,9.752e-05,0
2.2175,6.5293e-05,0
2.218,5.8076e-05,0
2.2185,6.8818e-05,0
2.219,6.479e-05,0
2.2195,4.6494e-05,0
2.22,2.5345e-05,0
2.2205,7.2175e-06,0
2.221,-3.0213e-06,0
2.2215,6.2104e-06,0
2.222,3.1724e-05,0
2.2225,4.9851e-05,0
2.223,3.592e-05,0
2.2235,1.8463e-06,0
2.224,-2.266e-05,0
2.2245,-3.5248e-05,0
2.225,-4.3977e-05,0
2.2255,-4.4144e-05,0
2.226,-3.9277e-05,0
2.2265,-3.122e-05,0
2.227,-1.6281e-05,0
2.2275,-3.0213e-06,0
2.228,3.6927e-06,0
2.2285,1.326e-05,0
2.229,2.7863e-05,0
2.2295,2.7695e-05,0
2.23,8.896e-06,0
2.2305,-1.091e-05,0
2.231,-2.5849e-05,0
2.2315,-2.7863e-05,0
2.232,2.2828e-05,0
2.2325,0.00011061,0
2.233,0.00013344,0
2.2335,8.5435e-05,0
2.234,4.4984e-05,0
2.2345,3.2059e-05,0
2.235,4.5319e-05,0
2.2355,5.9922e-05,0
2.236,6.1936e-05,0
2.2365,4.8844e-05,0
2.237,3.0045e-05,0
2.2375,2.5849e-05,0
2.238,5.304e-05,0
2.2385,8.9464e-05,0
2.239,9.752e-05,0
2.2395,0.00010692,0
2.24,0.00012874,0
2.2405,0.00010961,0
2.241,4.213e-05,0
2.2415,-1.1749e-05,0
2.242,-1.5946e-05,0
2.2425,2.031e-05,0
2.243,5.4215e-05,0
2.2435,2.9038e-05,0
2.244,-3.4073e-05,0
2.2445,-6.8147e-05,0
2.245,-5.1194e-05,0
2.2455,-1.4435e-05,0
2.246,1.4435e-05,0
2.2465,2.5849e-05,0
2.247,1.0575e-05,0
2.2475,-1.7624e-05,0
2.248,-3.7766e-05,0
2.2485,-3.8605e-05,0
2.249,-3.3234e-05,0
2.2495,-3.1052e-05,0
2.25,-2.8702e-05,0
2.2505,-2.8031e-05,0
2.251,-2.9877e-05,0
2.2515,-3.0884e-05,0
2.252,-3.9109e-05,0
2.2525,-4.6326e-05,0
2.253,-3.8437e-05,0
2.2535,-3.4577e-05,0
2.254,-4.1962e-05,0
2.2545,-4.448e-05,0
2.255,-4.5991e-05,0
2.2555,-5.0019e-05,0
2.256,-4.5823e-05,0
2.2565,-3.3402e-05,0
2.257,-1.4099e-05,0
2.2575,1.4435e-05,0
2.258,5.5894e-05,0
2.2585,7.2679e-05,0
2.259,2.1317e-05,0
2.2595,-4.9348e-05,0
2.26,-7.8553e-05,0
2.2605,-7.5364e-05,0
2.261,-6.2608e-05,0
2.2615,-3.6423e-05,0
2.262,5.035e-07,0
2.2625,2.8367e-05,0
2.263,5.3376e-05,0
2.2635,9.7017e-05,0
2.264,0.00014704,0
2.2645,0.00017171,0
2.265,0.00016332,0
2.2655,0.00014485,0
2.266,0.00012471,0
2.2665,7.8553e-05,0
2.267,6.8818e-06,0
2.2675,-4.7166e-05,0
2.268,-6.5965e-05,0
2.2685,-6.0594e-05,0
2.269,-3.743e-05,0
2.2695,2.182e-06,0
2.27,4.1795e-05,0
2.2705,7.3686e-05,0
2.271,0.00011632,0
2.2715,0.00016936,0
2.272,0.00020041,0
2.2725,0.00019252,0
2.273,0.00016365,0
2.2735,0.00013747,0
2.274,0.00011028,0
2.2745,7.5029e-05,0
2.275,4.1795e-05,0
2.2755,2.1988e-05,0
2.276,1.4267e-05,0
2.2765,5.8747e-06,0
2.277,-5.7069e-06,0
2.2775,-1.3596e-05,0
2.278,-1.9638e-05,0
2.2785,-2.4338e-05,0
2.279,-2.1653e-05,0
2.2795,-9.3996e-06,0
2.28,1.326e-05,0
2.2805,3.7262e-05,0
2.281,4.0787e-05,0
2.2815,2.7359e-05,0
2.282,1.2253e-05,0
2.2825,-6.8818e-06,0
2.283,-2.9709e-05,0
2.2835,-4.8844e-05,0
2.284,-6.4622e-05,0
2.2845,-8.6778e-05,0
2.285,-0.00011162,0
2.2855,-0.00010574,0
2.286,-8.2918e-05,0
2.2865,-5.9251e-05,0
2.287,-1.091e-05,0
2.2875,3.7262e-05,0
2.288,9.8863e-05,0
2.2885,0.00017003,0
2.289,0.00018648,0
2.2895,0.00014939,0
2.29,8.275e-05,0
2.2905,2.266e-05,0
2.291,6.5461e-06,0
2.2915,2.9374e-05,0
2.292,5.0858e-05,0
2.2925,3.0716e-05,0
2.293,-1.0071e-05,0
2.2935,-4.2466e-05,0
2.294,-8.5603e-05,0
2.2945,-0.00012236,0
2.295,-0.00012052,0
2.2955,-5.153e-05,0
2.296,4.0452e-05,0
2.2965,8.3421e-05,0
2.297,7.9728e-05,0
2.2975,8.1407e-05,0
2.298,0.00010843,0
2.2985,0.0001378,0
2.299,0.00013982,0
2.2995,0.00010625,0
2.3,5.2872e-05,0
2.3005,4.1962e-06,0
2.301,-3.978e-05,0
2.3015,-6.9322e-05,0
2.302,-5.2705e-05,0
2.3025,-1.5274e-05,0
2.303,-8.2246e-06,0
2.3035,-1.8631e-05,0
2.304,-2.8367e-05,0
2.3045,-2.5009e-05,0
2.305,-4.5319e-06,0
2.3055,2.3331e-05,0
2.306,4.1291e-05,0
2.3065,3.2395e-05,0
2.307,6.2104e-06,0
2.3075,-2.8534e-06,0
2.308,1.8463e-05,0
2.3085,4.6326e-05,0
2.309,6.2272e-05,0
2.3095,6.9657e-05,0
2.31,6.8986e-05,0
2.3105,6.1265e-05,0
2.311,5.3208e-05,0
2.3115,4.4648e-05,0
2.312,2.1653e-05,0
2.3125,-9.9031e-06,0
2.313,-1.796e-05,0
2.3135,8.3925e-06,0
2.314,4.4144e-05,0
2.3145,5.9922e-05,0
2.315,4.6159e-05,0
2.3155,1.7792e-05,0
2.316,-7.2175e-06,0
2.3165,-7.5532e-06,0
2.317,4.3641e-06,0
2.3175,4.3641e-06,0
2.318,-1.1749e-06,0
2.3185,-4.8676e-06,0
2.319,-5.8747e-06,0
2.3195,-9.0639e-06,0
2.32,-2.417e-05,0
2.3205,-3.3738e-05,0
2.321,-4.0116e-05,0
2.3215,-5.9083e-05,0
2.322,-8.7114e-05,0
2.3225,-0.00012001,0
2.323,-0.00013797,0
2.3235,-0.00012404,0
2.324,-8.5603e-05,0
2.3245,-2.8367e-05,0
2.325,4.7166e-05,0
2.3255,0.00012001,0
2.326,0.00017876,0
2.3265,0.0002177,0
2.327,0.00022609,0
2.3275,0.00019924,0
2.328,0.00015274,0
2.3285,9.4835e-05,0
2.329,3.357e-05,0
2.3295,-1.0071e-06,0
2.33,4.1962e-06,0
2.3305,2.1317e-05,0
2.331,2.3331e-05,0
2.3315,1.7121e-05,0
2.332,1.5778e-05,0
2.3325,2.5681e-05,0
2.333,4.2634e-05,0
2.3335,5.8915e-05,0
2.334,5.9419e-05,0
2.3345,3.6088e-05,0
2.335,3.1724e-05,0
2.3355,6.3783e-05,0
2.336,7.0329e-05,0
2.3365,1.5106e-05,0
2.337,-5.2872e-05,0
2.3375,-7.8218e-05,0
2.338,-6.5965e-05,0
2.3385,-1.796e-05,0
2.339,6.6468e-05,0
2.3395,0.00012908,0
2.34,0.00012505,0
2.3405,7.57e-05,0
2.341,2.266e-05,0
2.3415,-1.8631e-05,0
2.342,-4.0787e-05,0
2.3425,-2.2492e-05,0
2.343,2.7359e-05,0
2.3435,7.0329e-05,0
2.344,8.4932e-05,0
2.3445,6.4286e-05,0
2.345,2.6688e-05,0
2.3455,-1.1246e-05,0
2.346,-5.2033e-05,0
2.3465,-7.8721e-05,0
2.347,-6.6804e-05,0
2.3475,-3.2563e-05,0
2.348,-1.1246e-05,0
2.3485,-1.7288e-05,0
2.349,-2.7863e-05,0
2.3495,-2.2324e-05,0
2.35,-9.9031e-06,0
2.3505,-8.2246e-06,0
2.351,-1.5946e-05,0
2.3515,-2.3667e-05,0
2.352,-3.0045e-05,0
2.3525,-3.978e-05,0
2.353,-6.1601e-05,0
2.3535,-8.3253e-05,0
2.354,-0.00010692,0
2.3545,-0.00014368,0
2.355,-0.00017423,0
2.3555,-0.00017423,0
2.356,-0.00014083,0
2.3565,-7.57e-05,0
2.357,8.5603e-06,0
2.3575,0.00010272,0
2.358,0.00018917,0
2.3585,0.00024187,0
2.359,0.00024355,0
2.3595,0.00021468,0
2.36,0.00017171,0
2.3605,0.00010642,0
2.361,4.4312e-05,0
2.3615,6.3783e-06,0
2.362,-2.1149e-05,0
2.3625,-2.5009e-05,0
2.363,3.3402e-05,0
2.3635,0.00011833,0
2.364,0.00017037,0
2.3645,0.00019319,0
2.365,0.00019789,0
2.3655,0.00016483,0
2.366,0.00010994,0
2.3665,9.1814e-05,0
2.367,0.00011733,0
2.3675,0.00012589,0
2.368,7.4693e-05,0
2.3685,-1.3932e-05,0
2.369,-8.0064e-05,0
2.3695,-9.7353e-05,0
2.37,-6.8986e-05,0
2.3705,-2.8534e-05,0
2.371,1.8463e-06,0
2.3715,2.4002e-05,0
2.372,3.122e-05,0
2.3725,2.7359e-05,0
2.373,2.4338e-05,0
2.3735,2.4002e-05,0
2.374,1.5946e-05,0
2.3745,2.0142e-06,0
2.375,1.3764e-05,0
2.3755,2.6688e-05,0
2.376,2.0142e-06,0
2.3765,-3.5752e-05,0
2.377,-4.7837e-05,0
2.3775,-3.1388e-05,0
2.378,-1.2421e-05,0
2.3785,-8.896e-06,0
2.379,-2.1149e-05,0
2.3795,-2.2324e-05,0
2.38,1.4603e-05,0
2.3805,3.6423e-05,0
2.381,3.8605e-06,0
2.3815,-2.6184e-05,0
2.382,-2.0981e-05,0
2.3825,-9.9031e-06,0
2.383,1.678e-07,0
2.3835,5.7069e-06,0
2.384,1.4435e-05,0
2.3845,4.3473e-05,0
2.385,0.00010323,0
2.3855,0.0001707,0
2.386,0.00016869,0
2.3865,6.949e-05,0
2.387,-6.2104e-05,0
2.3875,-0.00014704,0
2.388,-0.00014838,0
2.3885,-9.7856e-05,0
2.389,-6.8986e-05,0
2.3895,-8.661e-05,0
2.39,-0.00010759,0
2.3905,-9.6849e-05,0
2.391,-4.683e-05,0
2.3915,1.1582e-05,0
2.392,5.4215e-05,0
2.3925,7.57e-05,0
2.393,6.0761e-05,0
2.3935,1.0575e-05,0
2.394,-4.1795e-05,0
2.3945,-6.1265e-05,0
2.395,-5.4048e-05,0
2.3955,-2.7024e-05,0
2.396,2.0646e-05,0
2.3965,6.1265e-05,0
2.397,9.1478e-05,0
2.3975,0.00011934,0
2.398,0.00014083,0
2.3985,0.00015828,0
2.399,0.00016835,0
2.3995,0.00015744,0
2.4,0.00011196,0
2.4005,4.2802e-05,0
2.401,-6.8818e-06,0
2.4015,-1.4267e-05,0
2.402,4.8676e-06,0
2.4025,2.1317e-05,0
2.403,2.7359e-05,0
2.4035,3.2059e-05,0
2.404,3.743e-05,0
2.4045,4.3809e-05,0
2.405,4.9348e-05,0
2.4055,5.3544e-05,0
2.406,5.153e-05,0
2.4065,4.6998e-05,0
2.407,4.0787e-05,0
2.4075,3.9612e-05,0
2.408,3.4745e-05,0
2.4085,1.7288e-05,0
2.409,-3.1891e-06,0
2.4095,-2.4674e-05,0
2.41,-5.9754e-05,0
2.4105,-0.0001138,0
2.411,-0.00019672,0
2.4115,-0.0002694,0
2.412,-0.00027242,0
2.4125,-0.00022626,0
2.413,-0.00019269,0
2.4135,-0.0001415,0
2.414,-3.6759e-05,0
2.4145,8.1071e-05,0
2.415,0.0001744,0
2.4155,0.00024825,0
2.416,0.00029256,0
2.4165,0.00028484,0
2.417,0.00023616,0
2.4175,0.00019722,0
2.418,0,0
2.4185,0,0
2.419,0,0
2.4195,0,0
2.42,0,0
2.4205,0,0
2.421,0,0
2.4215,0,0
2.422,0,0
2.4225,0,0
2.423,0,0
2.4235,0,0
2.424,0,0
2.4245,0,0
2.425,0,0
2.4255,0,0
2.426,0,0
2.4265,0,0
2.427,0,0
2.4275,0,0
2.428,0,0
2.4285,0,0
2.429,0,0
2.4295,0,0
2.43,0,0
2.4305,0,0
2.431,-3.3738e-05,0
2.4315,2.3331e-05,0
2.432,7.1e-05,0
2.4325,6.9993e-05,0
2.433,6.8818e-06,0
2.4335,-5.6565e-05,0
2.434,-8.2414e-05,0
2.4345,-9.2821e-05,0
2.435,-0.00010692,0
2.4355,-0.00011984,0
2.436,-0.00011397,0
2.4365,-9.4835e-05,0
2.437,-8.4764e-05,0
2.4375,-7.2175e-05,0
2.438,-4.0452e-05,0
2.4385,-7.7211e-06,0
2.439,1.6449e-05,0
2.4395,2.6017e-05,0
2.44,1.1749e-06,0
2.4405,-4.8341e-05,0
2.441,-0.00010037,0
2.4415,-0.00013915,0
2.442,-0.00015308,0
2.4425,-0.0001373,0
2.443,-0.00011028,0
2.4435,-8.1575e-05,0
2.444,-4.5655e-05,0
2.4445,1.678e-07,0
2.445,5.3544e-05,0
2.4455,9.5842e-05,0
2.446,0.00010088,0
2.4465,7.6036e-05,0
2.447,4.1962e-05,0
2.4475,3.6423e-05,0
2.448,7.0161e-05,0
2.4485,8.0735e-05,0
2.449,4.9851e-05,0
2.4495,1.8296e-05,0
2.45,4.8676e-06,0
2.4505,1.4939e-05,0
2.451,5.5222e-05,0
2.4515,0.00010054,0
2.452,0.00012454,0
2.4525,0.00013159,0
2.453,0.00013881,0
2.4535,0.00014519,0
2.454,0.00012656,0
2.4545,8.2582e-05,0
2.455,4.8173e-05,0
2.4555,2.9038e-05,0
2.456,-1.4939e-05,0
2.4565,-7.3686e-05,0
2.457,-8.8457e-05,0
2.4575,-5.0355e-05,0
2.458,1.0575e-05,0
2.4585,6.7308e-05,0
2.459,0.00011666,0
2.4595,0.00017037,0
2.46,0.00020998,0
2.4605,0.00022542,0
2.461,0.00022072,0
2.4615,0.00020662,0
2.462,0.00021334,0
2.4625,0.00021535,0
2.463,0.00015879,0
2.4635,8.9464e-05,0
2.464,6.1265e-05,0
2.4645,5.8244e-05,0
2.465,5.0858e-05,0
2.4655,3.2731e-05,0
2.466,4.1962e-06,0
2.4665,-2.6017e-05,0
2.467,-4.5151e-05,0
2.4675,-5.8244e-05,0
2.468,-7.7882e-05,0
2.4685,-0.00010289,0
2.469,-0.00011833,0
2.4695,-0.00012303,0
2.47,-0.00011766,0
2.4705,-8.7114e-05,0
2.471,-2.182e-05,0
2.4715,5.4383e-05,0
2.472,9.3828e-05,0
2.4725,7.2343e-05,0
2.473,-1.1582e-05,0
2.4735,-0.00011363,0
2.474,-0.00016567,0
2.4745,-0.00014519,0
2.475,-0.00010272,0
2.4755,-1.9135e-05,0
2.476,0.00011263,0
2.4765,0.0001697,0
2.477,8.3757e-05,0
2.4775,-5.3208e-05,0
2.478,-0.00013562,0
2.4785,-0.00016936,0
2.479,-0.0001937,0
2.4795,-0.00019957,0
2.48,-0.00017339,0
2.4805,-0.00012992,0
2.481,-6.0761e-05,0
2.4815,2.3331e-05,0
2.482,9.1814e-05,0
2.4825,0.00013931,0
2.483,0.00017087,0
2.4835,0.00018094,0
2.484,0.00019974,0
2.4845,0.00023885,0
2.485,0.00024506,0
2.4855,0.00020629,0
2.486,0.00016097,0
2.4865,0.00013713,0
2.487,0.00011095,0
2.4875,4.9515e-05,0
2.488,-3.0045e-05,0
2.4885,-9.2821e-05,0
2.489,-0.00010961,0
2.4895,-8.2582e-05,0
2.49,-4.5151e-05,0
2.4905,-2.8702e-05,0
2.491,-3.2731e-05,0
2.4915,-3.4745e-05,0
2.492,-1.3092e-05,0
2.4925,3.1052e-05,0
2.493,6.3279e-05,0
2.4935,6.2272e-05,0
2.494,4.3305e-05,0
2.4945,3.1388e-05,0
2.495,3.0716e-05,0
2.4955,2.9206e-05,0
2.496,2.9374e-05,0
2.4965,2.9877e-05,0
2.497,2.1317e-05,0
2.4975,1.678e-07,0
2.498,-4.0452e-05,0
2.4985,-6.6636e-05,0
2.499,-8.4428e-05,0
2.4995,-0.00012522,0
2.5,-0.00014284,0
2.5005,-0.00011044,0
2.501,-5.1194e-05,0
2.5015,1.326e-05,0
2.502,7.0832e-05,0
2.5025,0.00010793,0
2.503,0.00011028,0
2.5035,0.00011598,0
2.504,0.00014401,0
2.5045,0.00012471,0
2.505,4.8173e-05,0
2.5055,-3.1052e-05,0
2.506,-7.8889e-05,0
2.5065,-9.6345e-05,0
2.507,-0.00011565,0
2.5075,-0.00013109,0
2.508,-0.00010692,0
2.5085,-2.4674e-05,0
2.509,8.0232e-05,0
2.5095,0.00015526,0
2.51,0.00018648,0
2.5105,0.00016667,0
2.511,0.0001373,0
2.5115,0.00015761,0
2.512,0.00020192,0
2.5125,0.00021065,0
2.513,0.00018312,0
2.5135,0.00014737,0
2.514,0.00011582,0
2.5145,7.5029e-05,0
2.515,1.2924e-05,0
2.5155,-3.2395e-05,0
2.516,-1.5274e-05,0
2.5165,4.7837e-05,0
2.517,0.00010037,0
2.5175,0.00010977,0
2.518,7.805e-05,0
2.5185,2.6688e-05,0
2.519,-2.6017e-05,0
2.5195,-6.5293e-05,0
2.52,-7.8386e-05,0
2.5205,-6.479e-05,0
2.521,-4.0619e-05,0
2.5215,-1.1749e-05,0
2.522,2.2828e-05,0
2.5225,6.6636e-05,0
2.523,0.00010323,0
2.5235,0.00010289,0
2.524,5.6901e-05,0
2.5245,3.1891e-06,0
2.525,-3.0045e-05,0
2.5255,-2.7359e-05,0
2.526,1.8463e-06,0
2.5265,2.5345e-05,0
2.527,5.153e-05,0
2.5275,6.0258e-05,0
2.528,-6.3783e-06,0
2.5285,-9.987e-05,0
2.529,-0.0001462,0
2.5295,-0.00014804,0
2.53,-0.00013394,0
2.5305,-0.00011112,0
2.531,-6.5293e-05,0
2.5315,-1.0239e-05,0
2.532,1.3764e-05,0
2.5325,1.1414e-05,0
2.533,1.4267e-05,0
2.5335,1.0239e-05,0
2.534,1.091e-05,0
2.5345,4.1795e-05,0
2.535,6.8986e-05,0
2.5355,1.7792e-05,0
2.536,-9.4835e-05,0
2.5365,-0.00018413,0
2.537,-0.00020897,0
2.5375,-0.00019789,0
2.538,-0.00017473,0
2.5385,-0.00010726,0
2.539,-6.8818e-06,0
2.5395,6.0594e-05,0
2.54,0.00010591,0
2.5405,0.00019118,0
2.541,0.00027645,0
2.5415,0.00029726,0
2.542,0.00025211,0
2.5425,0.00019857,0
2.543,0.00017372,0
2.5435,0.00013747,0
2.544,6.4958e-05,0
2.5445,-3.978e-05,0
2.545,-0.00013864,0
2.5455,-0.00017792,0
2.546,-0.00014234,0
2.5465,-6.9993e-05,0
2.547,8.392e-07,0
2.5475,4.1123e-05,0
2.548,5.0019e-05,0
2.5485,5.7572e-05,0
2.549,8.2078e-05,0
2.5495,0.00011531,0
2.55,0.00011699,0
2.5505,8.275e-05,0
2.551,3.6759e-05,0
2.5515,3.1891e-06,0
2.552,-9.2317e-06,0
2.5525,-2.9709e-05,0
2.553,-5.6062e-05,0
2.5535,-6.949e-05,0
2.554,-8.2078e-05,0
2.5545,-8.0735e-05,0
2.555,-4.683e-05,0
2.5555,-8.392e-07,0
2.556,4.5151e-05,0
2.5565,9.5003e-05,0
2.557,0.00014066,0
2.5575,0.00017607,0
2.558,0.00018648,0
2.5585,0.00017104,0
2.559,0.0001556,0
2.5595,0.00012555,0
2.56,6.8315e-05,0
2.5605,3.4073e-05,0
2.561,1.4267e-05,0
2.5615,-4.3641e-05,0
2.562,-0.00010793,0
2.5625,-0.00013646,0
2.563,-0.00014116,0
2.5635,-0.00012522,0
2.564,-8.2414e-05,0
2.5645,-1.5274e-05,0
2.565,5.7572e-05,0
2.5655,0.00011095,0
2.566,0.00014485,0
2.5665,0.00015492,0
2.567,0.00013411,0
2.5675,0.00010256,0
2.568,6.9993e-05,0
2.5685,3.1388e-05,0
2.569,2.8534e-06,0
2.5695,-5.7069e-06,0
2.57,-8.896e-06,0
2.5705,-2.1988e-05,0
2.571,-3.9612e-05,0
2.5715,-4.3137e-05,0
2.572,-2.652e-05,0
2.5725,1.1246e-05,0
2.573,5.539e-05,0
2.5735,0.00011112,0
2.574,0.00017171,0
2.5745,0.0001702,0
2.575,8.9632e-05,0
2.5755,-5.2033e-06,0
2.576,-6.6133e-05,0
2.5765,-8.4093e-05,0
2.577,-8.9128e-05,0
2.5775,-0.00013445,0
2.578,-0.00019655,0
2.5785,-0.00021703,0
2.579,-0.00016432,0
2.5795,-3.0045e-05,0
2.58,0.00013814,0
2.5805,0.00026738,0
2.581,0.00029155,0
2.5815,0.00023952,0
2.582,0.00019857,0
2.5825,0.00019017,0
2.583,0.00016449,0
2.5835,7.335e-05,0
2.584,-4.8508e-05,0
2.5845,-0.00012438,0
2.585,-0.00011934,0
2.5855,-7.9057e-05,0
2.586,-5.1865e-05,0
2.5865,-3.592e-05,0
2.587,-2.031e-05,0
2.5875,-1.4435e-05,0
2.588,-2.4002e-05,0
2.5885,-4.3473e-05,0
2.589,-8.1239e-05,0
2.5895,-0.00013713,0
2.59,-0.00019118,0
2.5905,-0.0002219,0
2.591,-0.00022391,0
2.5915,-0.00020293,0
2.592,-0.00015341,0
2.5925,-6.3279e-05,0
2.593,5.9419e-05,0
2.5935,0.00017238,0
2.594,0.00022274,0
2.5945,0.00020259,0
2.595,0.00015023,0
2.5955,0.00011464,0
2.596,8.745e-05,0
2.5965,4.3641e-05,0
2.597,4.8676e-06,0
2.5975,-1.0071e-05,0
2.598,1.5106e-06,0
2.5985,5.2705e-05,0
2.599,0.00014418,0
2.5995,0.00021602,0
2.6,0.00020276,0
2.6005,0.00013646,0
2.601,0.00010642,0
2.6015,0.000118,0
2.602,0.00010994,0
2.6025,6.479e-05,0
2.603,2.0142e-06,0
2.6035,-4.5823e-05,0
2.604,-7.5364e-05,0
2.6045,-9.6849e-05,0
2.605,-0.00010407,0
2.6055,-9.5003e-05,0
2.606,-7.4525e-05,0
2.6065,-4.4984e-05,0
2.607,-1.091e-05,0
2.6075,2.0646e-05,0
2.608,3.8605e-05,0
2.6085,4.1795e-05,0
2.609,2.8702e-05,0
2.6095,3.6927e-06,0
2.61,1.9806e-05,0
2.6105,7.7714e-05,0
2.611,0.00012874,0
2.6115,0.0001227,0
2.612,5.5558e-05,0
2.6125,-5.0355e-06,0
2.613,-1.7792e-05,0
2.6135,-8.7282e-06,0
2.614,-9.5674e-06,0
2.6145,-1.8296e-05,0
2.615,-1.326e-05,0
2.6155,4.2298e-05,0
2.616,9.5842e-05,0
2.6165,8.5771e-05,0
2.617,6.0761e-05,0
2.6175,7.1e-05,0
2.618,0.00011179,0
2.6185,0.00014754,0
2.619,0.00017339,0
2.6195,0.00020528,0
2.62,0.00018581,0
2.6205,9.7017e-05,0
2.621,-1.8128e-05,0
2.6215,-0.00012589,0
2.622,-0.00018296,0
2.6225,-0.00016852,0
2.623,-0.00013143,0
2.6235,-0.00010474,0
2.624,-8.5435e-05,0
2.6245,-5.9419e-05,0
2.625,-5.035e-07,0
2.6255,5.0858e-05,0
2.626,-3.357e-07,0
2.6265,-0.00013126,0
2.627,-0.00022072,0
2.6275,-0.00020948,0
2.628,-0.00012908,0
2.6285,-3.4409e-05,0
2.629,3.5248e-05,0
2.6295,5.5558e-05,0
2.63,5.1865e-05,0
2.6305,6.8986e-05,0
2.631,0.00011061,0
2.6315,0.0001326,0
2.632,0.0001227,0
2.6325,0.00011884,0
2.633,0.00013814,0
2.6335,0.00015375,0
2.634,0.00013931,0
2.6345,0.00012303,0
2.635,0.00012454,0
2.6355,0.00012253,0
2.636,0.00010356,0
2.6365,8.8457e-05,0
2.637,8.6275e-05,0
2.6375,7.4861e-05,0
2.638,4.3305e-05,0
2.6385,2.7359e-05,0
2.639,3.743e-05,0
2.6395,3.0716e-05,0
2.64,1.1749e-06,0
2.6405,-2.0981e-05,0
2.641,-3.4073e-05,0
2.6415,-4.3137e-05,0
2.642,-5.1194e-05,0
2.6425,-5.4719e-05,0
2.643,-5.8747e-05,0
2.6435,-6.3615e-05,0
2.644,-6.2104e-05,0
2.6445,-5.3376e-05,0
2.645,-4.6159e-05,0
2.6455,-3.4577e-05,0
2.646,-2.0646e-05,0
2.6465,-2.5009e-05,0
2.647,-4.6662e-05,0
2.6475,-5.8412e-05,0
2.648,-2.7695e-05,0
2.6485,7.2343e-05,0
2.649,0.00018346,0
2.6495,0.00020175,0
2.65,0.00013814,0
2.6505,7.1e-05,0
2.651,5.6733e-05,0
2.6515,9.3828e-05,0
2.652,0.00012874,0
2.6525,0.00011313,0
2.653,4.213e-05,0
2.6535,-4.2466e-05,0
2.654,-9.0303e-05,0
2.6545,-0.00010423,0
2.655,-0.00013848,0
2.6555,-0.0002041,0
2.656,-0.0002464,0
2.6565,-0.00022794,0
2.657,-0.00015895,0
2.6575,-5.388e-05,0
2.658,4.8844e-05,0
2.6585,0.00013092,0
2.659,0.00020629,0
2.6595,0.00023986,0
2.66,0.00018212,0
2.6605,7.3014e-05,0
2.661,-1.091e-05,0
2.6615,-4.5151e-05,0
2.662,-3.4745e-05,0
2.6625,7.7211e-06,0
2.663,5.3208e-05,0
2.6635,7.8218e-05,0
2.664,6.7643e-05,0
2.6645,3.2395e-05,0
2.665,-8.392e-07,0
2.6655,-3.0716e-05,0
2.666,-5.304e-05,0
2.6665,-4.7501e-05,0
2.667,-9.5674e-06,0
2.6675,5.6565e-05,0
2.668,0.000118,0
2.6685,0.00013814,0
2.669,0.00014855,0
2.6695,0.00016349,0
2.67,0.00015862,0
2.6705,8.191e-05,0
2.671,-3.3066e-05,0
2.6715,-4.5823e-05,0
2.672,2.1317e-05,0
2.6725,3.1724e-05,0
2.673,-2.2324e-05,0
2.6735,-6.7308e-05,0
2.674,-9.2485e-05,0
2.6745,-0.00013948,0
2.675,-0.00017389,0
2.6755,-0.00014099,0
2.676,-4.918e-05,0
2.6765,6.6636e-05,0
2.677,0.00019286,0
2.6775,0.00029055,0
2.678,0.00031102,0
2.6785,0.00026839,0
2.679,0.00022744,0
2.6795,0.00018883,0
2.68,0.00012773,0
2.6805,7.3014e-05,0
2.681,6.1265e-05,0
2.6815,7.7043e-05,0
2.682,7.5029e-05,0
2.6825,3.8437e-05,0
2.683,-1.1078e-05,0
2.6835,-4.0116e-05,0
2.684,-5.5726e-05,0
2.6845,-7.4357e-05,0
2.685,-8.6442e-05,0
2.6855,-6.9322e-05,0
2.686,-5.2537e-05,0
2.6865,-7.8386e-05,0
2.687,-0.0001331,0
2.6875,-0.0001509,0
2.688,-9.4499e-05,0
2.6885,-1.796e-05,0
2.689,3.0716e-05,0
2.6895,4.8173e-05,0
2.69,2.5009e-05,0
2.6905,-2.1317e-05,0
2.691,-5.5222e-05,0
2.6915,-7.1e-05,0
2.692,-8.0903e-05,0
2.6925,-8.7617e-05,0
2.693,-8.3757e-05,0
2.6935,-5.3544e-05,0
2.694,-1.8463e-05,0
2.6945,-2.3499e-06,0
2.695,9.0639e-06,0
2.6955,1.4603e-05,0
2.696,6.2104e-06,0
2.6965,-1.1917e-05,0
2.697,-4.2466e-05,0
2.6975,-6.7308e-05,0
2.698,-6.1097e-05,0
2.6985,-3.9277e-05,0
2.699,-5.6565e-05,0
2.6995,-0.0001185,0
2.7,-0.00012941,0
2.7005,-3.7095e-05,0
2.701,5.3376e-05,0
2.7015,4.6494e-05,0
2.702,-1.4099e-05,0
2.7025,-5.1865e-05,0
2.703,-1.561e-05,0
2.7035,9.4499e-05,0
2.704,0.00021451,0
2.7045,0.00027007,0
2.705,0.00024405,0
2.7055,0.00018447,0
2.706,0.00012908,0
2.7065,8.9799e-05,0
2.707,7.3182e-05,0
2.7075,9.3324e-05,0
2.708,0.00013948,0
2.7085,0.00019571,0
2.709,0.00022945,0
2.7095,0.00020629,0
2.71,0.00014553,0
2.7105,0.00011632,0
2.711,0.00011229,0
2.7115,8.3757e-05,0
2.712,8.2246e-06,0
2.7125,-9.7017e-05,0
2.713,-0.00018816,0
2.7135,-0.00022391,0
2.714,-0.00013999,0
2.7145,3.8773e-05,0
2.715,0.00015341,0
2.7155,0.00014284,0
2.716,7.0161e-05,0
2.7165,-2.182e-06,0
2.717,-6.1265e-05,0
2.7175,-0.00012152,0
2.718,-0.00015694,0
2.7185,-0.00015811,0
2.719,-0.00011179,0
2.7195,-1.9806e-05,0
2.72,5.1865e-05,0
2.7205,7.2343e-05,0
2.721,6.4454e-05,0
2.7215,5.3208e-05,0
2.722,4.9348e-05,0
2.7225,3.7095e-05,0
2.723,-9.5674e-06,0
2.7235,-7.956e-05,0
2.724,-0.00012035,0
2.7245,-7.2679e-05,0
2.725,4.5823e-05,0
2.7255,0.00012874,0
2.726,0.0001368,0
2.7265,0.00011078,0
2.727,9.3492e-05,0
2.7275,6.6972e-05,0
2.728,-2.1317e-05,0
2.7285,-0.00013579,0
2.729,-0.00020629,0
2.7295,-0.00021099,0
2.73,-0.00015879,0
2.7305,-4.3137e-05,0
2.731,0.00011565,0
2.7315,0.00022072,0
2.732,0.00021468,0
2.7325,0.0001608,0
2.733,0.00013243,0
2.7335,0.00013462,0
2.734,0.00014754,0
2.7345,0.00012706,0
2.735,4.8676e-05,0
2.7355,-3.3066e-05,0
2.736,-4.3977e-05,0
2.7365,5.1194e-05,0
2.737,0.00016567,0
2.7375,0.00017423,0
2.738,9.8695e-05,0
2.7385,4.7333e-05,0
2.739,3.978e-05,0
2.7395,2.7695e-05,0
2.74,-8.3925e-06,0
2.7405,-4.0452e-05,0
2.741,-3.1388e-05,0
2.7415,1.326e-05,0
2.742,4.9851e-05,0
2.7425,8.5771e-05,0
2.743,0.00015207,0
2.7435,0.00016886,0
2.744,8.51e-05,0
2.7445,-3.4745e-05,0
2.745,-7.9393e-05,0
2.7455,-3.1388e-05,0
2.746,-1.1582e-05,0
2.7465,-5.388e-05,0
2.747,-8.1239e-05,0
2.7475,-0.0001232,0
2.748,-0.00018967,0
2.7485,-0.00018279,0
2.749,-0.00015392,0
2.7495,-0.00014368,0
2.75,-0.00010222,0
2.7505,-5.0355e-06,0
2.751,0.00010826,0
2.7515,0.00015224,0
2.752,0.00014083,0
2.7525,0.00012874,0
2.753,9.5171e-05,0
2.7535,3.0213e-05,0
2.754,-1.6785e-05,0
2.7545,-3.3738e-05,0
2.755,-4.7166e-05,0
2.7555,-5.5894e-05,0
2.756,-4.3473e-05,0
2.7565,-2.2995e-05,0
2.757,-6.2104e-06,0
2.7575,2.2156e-05,0
2.758,5.0523e-05,0
2.7585,6.3279e-05,0
2.759,6.6972e-05,0
2.7595,5.9251e-05,0
2.76,4.1123e-05,0
2.7605,3.2059e-05,0
2.761,3.0045e-05,0
2.7615,1.1246e-05,0
2.762,-2.1653e-05,0
2.7625,-3.3402e-05,0
2.763,-3.7934e-05,0
2.7635,-8.9296e-05,0
2.764,-0.00013378,0
2.7645,-0.00013143,0
2.765,-0.00013478,0
2.7655,-0.00014217,0
2.766,-0.00010457,0
2.7665,-2.7192e-05,0
2.767,4.8005e-05,0
2.7675,0.00011901,0
2.768,0.0001801,0
2.7685,0.00021736,0
2.769,0.00019722,0
2.7695,9.7185e-05,0
2.77,-1.0071e-06,0
2.7705,-3.508e-05,0
2.771,-3.5248e-05,0
2.7715,-4.5823e-05,0
2.772,-6.63e-05,0
2.7725,-7.5029e-05,0
2.773,-5.4551e-05,0
2.7735,-8.3925e-06,0
2.774,4.7837e-05,0
2.7745,0.00010373,0
2.775,0.00014385,0
2.7755,0.00015795,0
2.776,0.0001603,0
2.7765,0.00015962,0
2.777,0.00015106,0
2.7775,0.00015828,0
2.778,0.00020897,0
2.7785,0.00025026,0
2.779,0.00023616,0
2.7795,0.00023012,0
2.78,0.00028853,0
2.7805,0.0003456,0
2.781,0.00035567,0
2.7815,0.00031002,0
2.782,0.0002318,0
2.7825,0.00015073,0
2.783,3.8437e-05,0
2.7835,-0.00015207,0
2.784,-0.00036944,0
2.7845,-0.00047871,0
2.785,-0.00044178,0
2.7855,-0.00035148,0
2.786,-0.00024086,0
2.7865,-0.00011934,0
2.787,-6.2776e-05,0
2.7875,-8.0735e-05,0
2.788,-9.5171e-05,0
2.7885,-0.00011498,0
2.789,-0.00019538,0
2.7895,-0.00025177,0
2.79,-0.00017977,0
2.7905,-3.7934e-05,0
2.791,7.4693e-05,0
2.7915,0.00013747,0
2.792,0.00018564,0
2.7925,0.00024472,0
2.793,0.00030398,0
2.7935,0.00031539,0
2.794,0.00026302,0
2.7945,0.00017708,0
2.795,9.6345e-05,0
2.7955,4.7166e-05,0
2.796,3.0716e-05,0
2.7965,2.5681e-05,0
2.797,1.2589e-05,0
2.7975,-6.8818e-06,0
2.798,-3.3906e-05,0
2.7985,-7.0832e-05,0
2.799,-0.00010054,0
2.7995,-0.00011212,0
2.8,-0.00010642,0
2.8005,-7.9896e-05,0
2.801,-4.683e-05,0
2.8015,-1.2757e-05,0
2.802,2.8031e-05,0
2.8025,6.5629e-05,0
2.803,7.4021e-05,0
2.8035,3.8773e-05,0
2.804,-2.1149e-05,0
2.8045,-7.1504e-05,0
2.805,-0.00010239,0
2.8055,-0.00011296,0
2.806,-9.9367e-05,0
2.8065,-5.0187e-05,0
2.807,2.182e-05,0
2.8075,9.0639e-05,0
2.808,0.00014015,0
2.8085,0.00016735,0
2.809,0.00017708,0
2.8095,0.00013948,0
2.81,6.0594e-05,0
2.8105,1.5106e-06,0
2.811,-1.947e-05,0
2.8115,-5.9587e-05,0
2.812,-0.00012454,0
2.8125,-0.00020092,0
2.813,-0.0002276,0
2.8135,-0.00023801,0
2.814,-0.00028048,0
2.8145,-0.00029978,0
2.815,-0.00026571,0
2.8155,-0.00018144,0
2.816,-5.7908e-05,0
2.8165,6.6636e-05,0
2.817,0.0001801,0
2.8175,0.00029256,0
2.818,0.0003973,0
2.8185,0.00046175,0
2.819,0.00045739,0
2.8195,0.00041576,0
2.82,0.00037581,0
2.8205,0.00030196,0
2.821,0.00019051,0
2.8215,0.00010507,0
2.822,7.7378e-05,0
2.8225,7.2175e-05,0
2.823,5.3544e-05,0
2.8235,3.5416e-05,0
2.824,3.1388e-05,0
2.8245,2.9709e-05,0
2.825,2.4506e-05,0
2.8255,9.9031e-06,0
2.826,-1.1917e-05,0
2.8265,-3.3234e-05,0
2.827,-4.5655e-05,0
2.8275,-5.388e-05,0
2.828,-6.865e-05,0
2.8285,-9.366e-05,0
2.829,-0.00013462,0
2.8295,-0.00019051,0
2.83,-0.00025647,0
2.8305,-0.00031002,0
2.831,-0.00031405,0
2.8315,-0.00026033,0
2.832,-0.0001744,0
2.8325,-6.9993e-05,0
2.833,5.5894e-05,0
2.8335,0.00018178,0
2.834,0.00026218,0
2.8345,0.00026571,0
2.835,0.00018782,0
2.8355,6.8315e-05,0
2.836,-2.266e-05,0
2.8365,-5.7237e-05,0
2.837,-5.7237e-05,0
2.8375,-3.9612e-05,0
2.838,4.3641e-06,0
2.8385,6.4118e-05,0
2.839,0.00012673,0
2.8395,0.00020175,0
2.84,0.00029474,0
2.8405,0.00037783,0
2.841,0.00038387,0
2.8415,0.00031203,0
2.842,0.00023717,0
2.8425,0.00012824,0
2.843,-5.6901e-05,0
2.8435,-0.00024489,0
2.844,-0.00034577,0
2.8445,-0.0003503,0
2.845,-0.00030398,0
2.8455,-0.00022895,0
2.846,-0.00010071,0
2.8465,2.3499e-06,0
2.847,-5.2033e-05,0
2.8475,-0.00019034,0
2.848,-0.00025127,0
2.8485,-0.0001984,0
2.849,-8.7114e-05,0
2.8495,4.5487e-05,0
2.85,0.00016869,0
2.8505,0.00025614,0
2.851,0.00030263,0
2.8515,0.00030867,0
2.852,0.0002647,0
2.8525,0.00016835,0
2.853,4.5151e-05,0
2.8535,-4.6494e-05,0
2.854,-6.9657e-05,0
2.8545,-3.2059e-05,0
2.855,4.3305e-05,0
2.8555,0.00015895,0
2.856,0.00029122,0
2.8565,0.00036843,0
2.857,0.00035467,0
2.8575,0.0002412,0
2.858,6.0594e-05,0
2.8585,-0.00010809,0
2.859,-0.00023784,0
2.8595,-0.00031908,0
2.86,-0.00031757,0
2.8605,-0.00023616,0
2.861,-0.00013243,0
2.8615,-5.1865e-05,0
2.862,1.0575e-05,0
2.8625,4.8005e-05,0
2.863,3.6088e-05,0
2.8635,5.8747e-06,0
2.864,4.5319e-06,0
2.8645,5.623e-05,0
2.865,0.00012975,0
2.8655,0.00017675,0
2.866,0.00018984,0
2.8665,0.00011666,0
2.867,-3.2059e-05,0
2.8675,-0.00016533,0
2.868,-0.00023717,0
2.8685,-0.00025866,0
2.869,-0.00021569,0
2.8695,-8.275e-05,0
2.87,8.7114e-05,0
2.8705,0.00018379,0
2.871,0.00011884,0
2.8715,-3.3738e-05,0
2.872,-0.00013579,0
2.8725,-0.00013999,0
2.873,-7.9393e-05,0
2.8735,-3.0213e-06,0
2.874,6.5629e-05,0
2.8745,0.00012253,0
2.875,0.0001937,0
2.8755,0.00028669,0
2.876,0.00035836,0
2.8765,0.00035232,0
2.877,0.00025312,0
2.8775,9.987e-05,0
2.878,-1.8967e-05,0
2.8785,-6.479e-05,0
2.879,-7.0497e-05,0
2.8795,-7.2679e-05,0
2.88,-9.5338e-05,0
2.8805,-0.00011548,0
2.881,-8.275e-05,0
2.8815,6.5461e-06,0
2.882,0.00010105,0
2.8825,0.00015358,0
2.883,0.00015627,0
2.8835,0.00012018,0
2.884,5.8915e-05,0
2.8845,7.3854e-06,0
2.885,0,0
2.8855,1.1749e-05,0
2.886,-7.0497e-06,0
2.8865,-5.1865e-05,0
2.887,-8.0232e-05,0
2.8875,-7.6875e-05,0
2.888,-5.7908e-05,0
2.8885,-2.8534e-05,0
2.889,-2.3499e-06,0
2.8895,7.8889e-06,0
2.89,1.0575e-05,0
2.8905,7.5532e-06,0
2.891,8.392e-07,0
2.8915,-2.5009e-05,0
2.892,-8.04e-05,0
2.8925,-0.0001326,0
2.893,-0.00013881,0
2.8935,-9.5674e-05,0
2.894,-2.0142e-05,0
2.8945,9.2149e-05,0
2.895,0.00019705,0
2.8955,0.00021669,0
2.896,0.00016701,0
2.8965,8.4932e-05,0
2.897,-2.6017e-05,0
2.8975,-8.7282e-05,0
2.898,-8.4093e-05,0
2.8985,-0.00010726,0
2.899,-0.00014553,0
2.8995,-0.00014989,0
2.9,-0.0001462,0
2.9005,-0.00017322,0
2.901,-0.0002078,0
2.9015,-0.00016332,0
2.902,-4.1962e-06,0
2.9025,0.00019857,0
2.903,0.00034997,0
2.9035,0.00040636,0
2.904,0.00041123,0
2.9045,0.00039864,0
2.905,0.00034325,0
2.9055,0.00024086,0
2.906,0.00013713,0
2.9065,7.5029e-05,0
2.907,5.623e-05,0
2.9075,5.0187e-05,0
2.908,3.743e-05,0
2.9085,2.266e-05,0
2.909,4.8676e-06,0
2.9095,-2.0142e-05,0
2.91,-4.5487e-05,0
2.9105,-7.57e-05,0
2.911,-9.8192e-05,0
2.9115,-0.00010289,0
2.912,-9.6513e-05,0
2.9125,-7.9896e-05,0
2.913,-6.009e-05,0
2.9135,-5.0019e-05,0
2.914,-6.4622e-05,0
2.9145,-6.714e-05,0
2.915,-2.2156e-05,0
2.9155,6.6636e-05,0
2.916,0.00013109,0
2.9165,0.0001133,0
2.917,4.3809e-05,0
2.9175,2.0981e-05,0
2.918,3.0213e-05,0
2.9185,-2.9542e-05,0
2.919,-0.00016768,0
2.9195,-0.00028803,0
2.92,-0.00031724,0
2.9205,-0.00026973,0
2.921,-0.00019538,0
2.9215,-0.00011833,0
2.922,-6.8818e-06,0
2.9225,0.00017675,0
2.923,0.00038035,0
2.9235,0.00048962,0
2.924,0.00045101,0
2.9245,0.00031942,0
2.925,0.0001368,0
2.9255,-5.9922e-05,0
2.926,-0.00018682,0
2.9265,-0.00019705,0
2.927,-0.00012924,0
2.9275,-4.0787e-05,0
2.928,2.8031e-05,0
2.9285,7.5868e-05,0
2.929,8.6778e-05,0
2.9295,5.5558e-05,0
2.93,-1.2924e-05,0
2.9305,-0.00010759,0
2.931,-0.00017037,0
2.9315,-0.00014536,0
2.932,-3.8102e-05,0
2.9325,6.479e-05,0
2.933,0.00011464,0
2.9335,0.00015727,0
2.934,0.00022072,0
2.9345,0.00026453,0
2.935,0.00024858,0
2.9355,0.00018514,0
2.936,0.00011766,0
2.9365,9.7856e-05,0
2.937,0.00013982,0
2.9375,0.00016332,0
2.938,0.00010793,0
2.9385,1.5274e-05,0
2.939,-4.9348e-05,0
2.9395,-8.0064e-05,0
2.94,-0.00010356,0
2.9405,-0.0001227,0
2.941,-0.00013948,0
2.9415,-0.0001425,0
2.942,-0.00011229,0
2.9425,-7.7043e-05,0
2.943,-6.9322e-05,0
2.9435,-8.4428e-05,0
2.944,-0.00010776,0
2.9445,-0.00016617,0
2.945,-0.00029793,0
2.9455,-0.00041526,0
2.946,-0.00041157,0
2.9465,-0.00027175,0
2.947,-7.4693e-05,0
2.9475,8.4093e-05,0
2.948,0.00017305,0
2.9485,0.00022542,0
2.949,0.00030666,0
2.9495,0.0003973,0
2.95,0.00041744,0
2.9505,0.00031841,0
2.951,0.00015425,0
2.9515,4.2802e-05,0
2.952,1.4603e-05,0
2.9525,2.7024e-05,0
2.953,5.0858e-05,0
2.9535,8.9632e-05,0
2.954,0.00016332,0
2.9545,0.00018581,0
2.955,7.6371e-05,0
2.9555,-6.63e-05,0
2.956,-0.00013982,0
2.9565,-0.00017104,0
2.957,-0.0001754,0
2.9575,-0.00012152,0
2.958,1.8463e-06,0
2.9585,0.00016265,0
2.959,0.00029793,0
2.9595,0.00035668,0
2.96,0.00030062,0
2.9605,0.00013613,0
2.961,-7.6371e-05,0
2.9615,-0.00023583,0
2.962,-0.0002835,0
2.9625,-0.00023969,0
2.963,-0.00014049,0
2.9635,-9.5674e-06,0
2.964,0.0001378,0
2.9645,0.00023885,0
2.965,0.00022005,0
2.9655,9.9535e-05,0
2.966,-3.9277e-05,0
2.9665,-0.00011145,0
2.967,-0.00013764,0
2.9675,-0.00017758,0
2.968,-0.00020897,0
2.9685,-0.0001566,0
2.969,-5.0187e-05,0
2.9695,3.3738e-05,0
2.97,4.9851e-05,0
2.9705,-1.561e-05,0
2.971,-8.3589e-05,0
2.9715,-7.6371e-05,0
2.972,-2.3499e-06,0
2.9725,6.2944e-05,0
2.973,8.3757e-05,0
2.9735,7.0664e-05,0
2.974,6.6636e-05,0
2.9745,0.00011196,0
2.975,0.00014519,0
2.9755,0.00011666,0
2.976,8.2918e-05,0
2.9765,7.335e-05,0
2.977,7.3854e-05,0
2.9775,6.2776e-05,0
2.978,4.4816e-05,0
2.9785,8.0903e-05,0
2.979,0.00024623,0
2.9795,0.00043288,0
2.98,0.0004725,0
2.9805,0.00034627,0
2.981,0.00016835,0
2.9815,4.5319e-05,0
2.982,-3.5248e-06,0
2.9825,-2.5009e-05,0
2.983,-7.4525e-05,0
2.9835,-0.00012874,0
2.984,-0.00011229,0
2.9845,-3.2731e-05,0
2.985,3.3738e-05,0
2.9855,2.0981e-05,0
2.986,-7.2007e-05,0
2.9865,-0.00019252,0
2.987,-0.00025849,0
2.9875,-0.00023281,0
2.988,-0.00018279,0
2.9885,-0.00016902,0
2.989,-0.00017389,0
2.9895,-0.00014804,0
2.99,-5.388e-05,0
2.9905,9.6513e-05,0
2.991,0.00027645,0
2.9915,0.00038286,0
2.992,0.0003597,0
2.9925,0.00028081,0
2.993,0.00019051,0
2.9935,7.8386e-05,0
2.994,-1.9303e-05,0
2.9945,-6.7979e-05,0
2.995,-7.9393e-05,0
2.9955,-7.956e-05,0
2.996,-7.5364e-05,0
2.9965,-6.1433e-05,0
2.997,-3.9109e-05,0
2.9975,-2.9038e-05,0
2.998,-3.6591e-05,0
2.9985,-5.8915e-05,0
2.999,-8.1575e-05,0
2.9995,-0.00011699,0
3,-0.000189,0
3.0005,-0.00024472,0
3.001,-0.00023062,0
3.0015,-0.00016751,0
3.002,-8.6107e-05,0
3.0025,1.5778e-05,0
3.003,0.00010961,0
3.0035,0.00014469,0
3.004,0.00013411,0
3.0045,0.00013059,0
3.005,0.00015962,0
3.0055,0.00020461,0
3.006,0.00019219,0
3.0065,0.00012119,0
3.007,6.3279e-05,0
3.0075,4.0787e-05,0
3.008,3.2898e-05,0
3.0085,3.3234e-05,0
3.009,2.2324e-05,0
3.0095,-9.2317e-06,0
3.01,-2.1317e-05,0
3.0105,1.1749e-05,0
3.011,4.9515e-05,0
3.0115,4.8508e-05,0
3.012,7.8889e-06,0
3.0125,-8.1743e-05,0
3.013,-0.00019454,0
3.0135,-0.0002177,0
3.014,-6.6133e-05,0
3.0145,0.00013243,0
3.015,0.00019319,0
3.0155,0.00012102,0
3.016,4.683e-05,0
3.0165,3.4745e-05,0
3.017,6.9322e-05,0
3.0175,8.5771e-05,0
3.018,1.7121e-05,0
3.0185,-0.0001331,0
3.019,-0.00028132,0
3.0195,-0.00035584,0
3.02,-0.00035601,0
3.0205,-0.00030834,0
3.021,-0.00023952,0
3.0215,-0.00018547,0
3.022,-0.00013344,0
3.0225,-1.2924e-05,0
3.023,0.00017775,0
3.0235,0.00031489,0
3.024,0.00036239,0
3.0245,0.00039965,0
3.025,0.00044077,0
3.0255,0.0004641,0
3.026,0.00043154,0
3.0265,0.00031673,0
3.027,0.00012673,0
3.0275,-8.1239e-05,0
3.028,-0.00018144,0
3.0285,-0.00014066,0
3.029,-3.9277e-05,0
3.0295,0.00010088,0
3.03,0.00024372,0
3.0305,0.00028534,0
3.031,0.00023516,0
3.0315,0.00023751,0
3.032,0.00028988,0
3.0325,0.00020562,0
3.033,-1.561e-05,0
3.0335,-0.00023717,0
3.034,-0.00037917,0
3.0345,-0.00039294,0
3.035,-0.00028064,0
3.0355,-0.00010054,0
3.036,6.6972e-05,0
3.0365,0.0001707,0
3.037,0.00022274,0
3.0375,0.00025161,0
3.038,0.00024288,0
3.0385,0.00019588,0
3.039,0.00018144,0
3.0395,0.00021669,0
3.04,0.00019857,0
3.0405,9.7353e-05,0
3.041,-8.2246e-06,0
3.0415,-5.774e-05,0
3.042,-7.7546e-05,0
3.0425,-0.00011263,0
3.043,-0.00015946,0
3.0435,-0.00019487,0
3.044,-0.00021804,0
3.0445,-0.00024741,0
3.045,-0.00029575,0
3.0455,-0.00033855,0
3.046,-0.0003409,0
3.0465,-0.00029676,0
3.047,-0.00021401,0
3.0475,-0.00010491,0
3.048,3.1891e-06,0
3.0485,8.2918e-05,0
3.049,0.00012807,0
3.0495,0.00011867,0
3.05,6.9322e-05,0
3.0505,3.6759e-05,0
3.051,4.9012e-05,0
3.0515,9.2821e-05,0
3.052,0.00015459,0
3.0525,0.00021418,0
3.053,0.00025228,0
3.0535,0.00024825,0
3.054,0.00018547,0
3.0545,0.00010239,0
3.055,5.3544e-05,0
3.0555,4.0116e-05,0
3.056,3.7095e-05,0
3.0565,2.4674e-05,0
3.057,1.0071e-05,0
3.0575,1.0575e-05,0
3.058,1.3932e-05,0
3.0585,1.3764e-05,0
3.059,2.8702e-05,0
3.0595,7.2343e-05,0
3.06,0.00010692,0
3.0605,8.5435e-05,0
3.061,1.561e-05,0
3.0615,-4.5487e-05,0
3.062,-6.479e-05,0
3.0625,-5.9251e-05,0
3.063,-5.2872e-05,0
3.0635,-5.0187e-05,0
3.064,-6.1936e-05,0
3.0645,-6.4286e-05,0
3.065,-6.244e-05,0
3.0655,-0.00014754,0
3.066,-0.00027359,0
3.0665,-0.00034308,0
3.067,-0.0003216,0
3.0675,-0.00023046,0
3.068,-0.00012824,0
3.0685,-8.275e-05,0
3.069,-8.2078e-05,0
3.0695,-5.539e-06,0
3.07,0.00014553,0
3.0705,0.00024556,0
3.071,0.00020696,0
3.0715,9.3828e-05,0
3.072,2.2324e-05,0
3.0725,2.9709e-05,0
3.073,0.00011934,0
3.0735,0.00025211,0
3.074,0.00034795,0
3.0745,0.00037011,0
3.075,0.00033335,0
3.0755,0.00026168,0
3.076,0.00018447,0
3.0765,0.00011582,0
3.077,4.0452e-05,0
3.0775,-6.244e-05,0
3.078,-0.000142,0
3.0785,-0.00015778,0
3.079,-0.0001279,0
3.0795,-2.5849e-05,0
3.08,0.00014485,0
3.0805,0.00027611,0
3.081,0.00034543,0
3.0815,0.00038387,0
3.082,0.00039193,0
3.0825,0.00032512,0
3.083,0.00021233,0
3.0835,8.5771e-05,0
3.084,-8.4428e-05,0
3.0845,-0.00027863,0
3.085,-0.00041778,0
3.0855,-0.00044749,0
3.086,-0.000402,0
3.0865,-0.00034929,0
3.087,-0.00027041,0
3.0875,-0.00013143,0
3.088,2.2324e-05,0
3.0885,0.0001707,0
3.089,0.00029105,0
3.0895,0.0003597,0
3.09,0.00036507,0
3.0905,0.0002224,0
3.091,-1.4939e-05,0
3.0915,-0.00016835,0
3.092,-0.00013663,0
3.0925,2.8367e-05,0
3.093,0.00013042,0
3.0935,0.00010289,0
3.094,1.9135e-05,0
3.0945,-4.3305e-05,0
3.095,-9.0135e-05,0
3.0955,-0.00014234,0
