0,0,0
0.0005,0,0
0.001,0,0
0.0015,0,0
0.002,0,0
0.0025,0,0
0.003,0,0
0.0035,0,0
0.004,0,0
0.0045,0,0
0.005,0,0
0.0055,0,0
0.006,0,0
0.0065,0,0
0.007,0,0
0.0075,0,0
0.008,0,0
0.0085,0,0
0.009,0,0
0.0095,0,0
0.01,0,0
0.0105,0,0
0.011,0,0
0.0115,0,0
0.012,0,0
0.0125,0,0
0.013,0,0
0.0135,0,0
0.014,0,0
0.0145,0,0
0.015,0,0
0.0155,0,0
0.016,0,0
0.0165,0,0
0.017,0,0
0.0175,0,0
0.018,0,0
0.0185,0,0
0.019,0,0
0.0195,0,0
0.02,0,0
0.0205,0,0
0.021,0,0
0.0215,0,0
0.022,0,0
0.0225,0,0
0.023,0,0
0.0235,0,0
0.024,0,0
0.0245,0,0
0.025,0,0
0.0255,0,0
0.026,2.0981e-05,0
0.0265,2.8031e-05,0
0.027,3.743e-05,0
0.0275,3.7262e-05,0
0.028,2.6184e-05,0
0.0285,1.7288e-05,0
0.029,1.8296e-05,0
0.0295,2.0646e-05,0
0.03,1.9806e-05,0
0.0305,1.9135e-05,0
0.031,1.9638e-05,0
0.0315,1.5274e-05,0
0.032,7.3854e-06,0
0.0325,4.6998e-06,0
0.033,9.0639e-06,0
0.0335,1.1246e-05,0
0.034,9.7353e-06,0
0.0345,6.5461e-06,0
0.035,4.8676e-06,0
0.0355,1.5106e-06,0
0.036,1.678e-07,0
0.0365,3.5248e-06,0
0.037,8.5603e-06,0
0.0375,1.1582e-05,0
0.038,9.0639e-06,0
0.0385,8.7282e-06,0
0.039,1.1749e-05,0
0.0395,1.2589e-05,0
0.04,1.2924e-05,0
0.0405,1.1917e-05,0
0.041,1.0071e-05,0
0.0415,1.7288e-05,0
0.042,2.0981e-05,0
0.0425,1.561e-05,0
0.043,1.561e-05,0
0.0435,1.8967e-05,0
0.044,2.2324e-05,0
0.0445,2.7695e-05,0
0.045,2.3667e-05,0
0.0455,1.6281e-05,0
0.046,2.031e-05,0
0.0465,2.8367e-05,0
0.047,3.1724e-05,0
0.0475,2.9877e-05,0
0.048,2.5513e-05,0
0.0485,2.2828e-05,0
0.049,2.3163e-05,0
0.0495,2.5009e-05,0
0.05,2.2492e-05,0
0.0505,1.6785e-05,0
0.051,1.1414e-05,0
0.0515,1.2589e-05,0
0.052,1.796e-05,0
0.0525,1.7456e-05,0
0.053,1.4435e-05,0
0.0535,9.7353e-06,0
0.054,5.0355e-06,0
0.0545,1.1078e-05,0
0.055,1.4939e-05,0
0.0555,1.6281e-05,0
0.056,2.4338e-05,0
0.0565,2.417e-05,0
0.057,2.0813e-05,0
0.0575,2.5345e-05,0
0.058,2.5849e-05,0
0.0585,2.0646e-05,0
0.059,2.2492e-05,0
0.0595,2.5681e-05,0
0.06,2.2324e-05,0
0.0605,1.8631e-05,0
0.061,1.9638e-05,0
0.0615,2.4002e-05,0
0.062,2.3163e-05,0
0.0625,2.1317e-05,0
0.063,2.2324e-05,0
0.0635,2.3331e-05,0
0.064,2.266e-05,0
0.0645,2.7527e-05,0
0.065,3.4073e-05,0
0.0655,3.3402e-05,0
0.066,2.6017e-05,0
0.0665,1.7121e-05,0
0.067,8.896e-06,0
0.0675,1.0575e-05,0
0.068,1.2253e-05,0
0.0685,1.1749e-05,0
0.069,1.6281e-05,0
0.0695,1.4939e-05,0
0.07,9.7353e-06,0
0.0705,8.3925e-06,0
0.071,3.6927e-06,0
0.0715,3.8605e-06,0
0.072,1.6617e-05,0
0.0725,3.0381e-05,0
0.073,3.1724e-05,0
0.0735,2.8367e-05,0
0.074,3.2731e-05,0
0.0745,3.8102e-05,0
0.075,3.6591e-05,0
0.0755,3.1388e-05,0
0.076,2.7695e-05,0
0.0765,2.8367e-05,0
0.077,3.0381e-05,0
0.0775,3.0716e-05,0
0.078,2.6184e-05,0
0.0785,2.1317e-05,0
0.079,2.2156e-05,0
0.0795,1.7624e-05,0
0.08,7.8889e-06,0
0.0805,8.5603e-06,0
0.081,1.3932e-05,0
0.0815,1.4267e-05,0
0.082,1.4771e-05,0
0.0825,1.0407e-05,0
0.083,5.2033e-06,0
0.0835,7.5532e-06,0
0.084,6.5461e-06,0
0.0845,8.2246e-06,0
0.085,2.031e-05,0
0.0855,2.9877e-05,0
0.086,3.2059e-05,0
0.0865,3.122e-05,0
0.087,3.0549e-05,0
0.0875,3.0045e-05,0
0.088,2.8367e-05,0
0.0885,2.6688e-05,0
0.089,2.9374e-05,0
0.0895,3.0716e-05,0
0.09,2.3667e-05,0
0.0905,1.796e-05,0
0.091,1.9806e-05,0
0.0915,1.9303e-05,0
0.092,1.8128e-05,0
0.0925,1.5946e-05,0
0.093,1.1582e-05,0
0.0935,1.6785e-05,0
0.094,1.5778e-05,0
0.0945,9.5674e-06,0
0.095,1.1749e-05,0
0.0955,9.5674e-06,0
0.096,3.8605e-06,0
0.0965,5.539e-06,0
0.097,5.8747e-06,0
0.0975,5.7069e-06,0
0.098,1.1917e-05,0
0.0985,1.5106e-05,0
0.099,1.4267e-05,0
0.0995,1.5778e-05,0
0.1,1.9806e-05,0
0.1005,2.3163e-05,0
0.101,2.266e-05,0
0.1015,2.0813e-05,0
0.102,1.5946e-05,0
0.1025,1.1917e-05,0
0.103,1.1749e-05,0
0.1035,1.6953e-05,0
0.104,2.3331e-05,0
0.1045,2.5345e-05,0
0.105,2.5513e-05,0
0.1055,2.3835e-05,0
0.106,1.9806e-05,0
0.1065,2.6017e-05,0
0.107,3.0381e-05,0
0.1075,3.0045e-05,0
0.108,3.4745e-05,0
0.1085,3.1556e-05,0
0.109,2.5345e-05,0
0.1095,2.9709e-05,0
0.11,2.9374e-05,0
0.1105,2.5849e-05,0
0.111,2.7863e-05,0
0.1115,3.0716e-05,0
0.112,2.5849e-05,0
0.1125,1.8967e-05,0
0.113,2.031e-05,0
0.1135,2.3331e-05,0
0.114,2.1317e-05,0
0.1145,1.561e-05,0
0.115,1.1917e-05,0
0.1155,1.3092e-05,0
0.116,1.5946e-05,0
0.1165,1.6617e-05,0
0.117,1.4267e-05,0
0.1175,1.2421e-05,0
0.118,1.7288e-05,0
0.1185,2.0981e-05,0
0.119,2.1149e-05,0
0.1195,2.6184e-05,0
0.12,2.4002e-05,0
0.1205,1.8799e-05,0
0.121,2.7863e-05,0
0.1215,3.6088e-05,0
0.122,3.8773e-05,0
0.1225,4.3473e-05,0
0.123,3.508e-05,0
0.1235,2.2828e-05,0
0.124,2.3331e-05,0
0.1245,2.9877e-05,0
0.125,3.1388e-05,0
0.1255,2.9709e-05,0
0.126,2.8702e-05,0
0.1265,2.9206e-05,0
0.127,3.0884e-05,0
0.1275,2.8199e-05,0
0.128,2.4338e-05,0
0.1285,2.4674e-05,0
0.129,2.9374e-05,0
0.1295,3.5584e-05,0
0.13,3.357e-05,0
0.1305,2.1988e-05,0
0.131,1.3932e-05,0
0.1315,8.5603e-06,0
0.132,6.2104e-06,0
0.1325,1.3596e-05,0
0.133,1.1917e-05,0
0.1335,3.357e-06,0
0.134,5.0355e-06,0
0.1345,9.2317e-06,0
0.135,1.3092e-05,0
0.1355,1.9135e-05,0
0.136,1.5442e-05,0
0.1365,1.0239e-05,0
0.137,1.1917e-05,0
0.1375,1.4267e-05,0
0.138,1.3092e-05,0
0.1385,1.2253e-05,0
0.139,1.1582e-05,0
0.1395,1.1917e-05,0
0.14,1.0575e-05,0
0.1405,1.2253e-05,0
0.141,1.7288e-05,0
0.1415,1.6785e-05,0
0.142,1.0575e-05,0
0.1425,5.2033e-06,0
0.143,7.0497e-06,0
0.1435,1.1582e-05,0
0.144,1.6281e-05,0
0.1445,1.6114e-05,0
0.145,1.1246e-05,0
0.1455,1.5274e-05,0
0.146,1.7121e-05,0
0.1465,1.3932e-05,0
0.147,1.3596e-05,0
0.1475,9.7353e-06,0
0.148,7.5532e-06,0
0.1485,1.5106e-05,0
0.149,1.4603e-05,0
0.1495,9.2317e-06,0
0.15,1.5946e-05,0
0.1505,2.6017e-05,0
0.151,3.1724e-05,0
0.1515,3.3738e-05,0
0.152,3.5248e-05,0
0.1525,3.4409e-05,0
0.153,3.3066e-05,0
0.1535,3.2059e-05,0
0.154,3.0716e-05,0
0.1545,2.5345e-05,0
0.155,1.796e-05,0
0.1555,1.4939e-05,0
0.156,1.8296e-05,0
0.1565,1.8631e-05,0
0.157,1.326e-05,0
0.1575,3.6927e-06,0
0.158,-2.182e-06,0
0.1585,8.896e-06,0
0.159,1.7121e-05,0
0.1595,1.4099e-05,0
0.16,1.3596e-05,0
0.1605,9.9031e-06,0
0.161,6.8818e-06,0
0.1615,1.4267e-05,0
0.162,1.4603e-05,0
0.1625,5.0355e-06,0
0.163,3.8605e-06,0
0.1635,1.2589e-05,0
0.164,1.9974e-05,0
0.1645,2.1988e-05,0
0.165,1.9974e-05,0
0.1655,1.4603e-05,0
0.166,1.4267e-05,0
0.1665,2.0142e-05,0
0.167,2.6688e-05,0
0.1675,3.2395e-05,0
0.168,3.3402e-05,0
0.1685,3.2731e-05,0
0.169,3.3066e-05,0
0.1695,2.7192e-05,0
0.17,2.1988e-05,0
0.1705,1.9303e-05,0
0.171,1.8296e-05,0
0.1715,2.3835e-05,0
0.172,2.2156e-05,0
0.1725,1.326e-05,0
0.173,1.4939e-05,0
0.1735,1.7288e-05,0
0.174,1.6953e-05,0
0.1745,1.796e-05,0
0.175,1.5106e-05,0
0.1755,1.326e-05,0
0.176,1.796e-05,0
0.1765,2.4674e-05,0
0.177,2.6688e-05,0
0.1775,2.5681e-05,0
0.178,2.4002e-05,0
0.1785,2.3163e-05,0
0.179,2.3667e-05,0
0.1795,2.4002e-05,0
0.18,2.5849e-05,0
0.1805,3.1052e-05,0
0.181,3.6423e-05,0
0.1815,3.8102e-05,0
0.182,4.1291e-05,0
0.1825,4.2802e-05,0
0.183,3.7766e-05,0
0.1835,2.6017e-05,0
0.184,1.5106e-05,0
0.1845,1.796e-05,0
0.185,2.1317e-05,0
0.1855,2.0142e-05,0
0.186,2.5009e-05,0
0.1865,2.9374e-05,0
0.187,2.8534e-05,0
0.1875,2.8367e-05,0
0.188,2.652e-05,0
0.1885,2.4002e-05,0
0.189,2.7024e-05,0
0.1895,2.8702e-05,0
0.19,2.6352e-05,0
0.1905,2.1317e-05,0
0.191,1.9974e-05,0
0.1915,1.9974e-05,0
0.192,2.1317e-05,0
0.1925,2.2156e-05,0
0.193,1.6953e-05,0
0.1935,8.896e-06,0
0.194,7.8889e-06,0
0.1945,1.0575e-05,0
0.195,1.2253e-05,0
0.1955,1.5946e-05,0
0.196,1.6449e-05,0
0.1965,1.1246e-05,0
0.197,9.5674e-06,0
0.1975,2.3331e-05,0
0.198,3.1724e-05,0
0.1985,2.8702e-05,0
0.199,2.9709e-05,0
0.1995,2.7359e-05,0
0.2,2.031e-05,0
0.2005,2.0478e-05,0
0.201,2.0981e-05,0
0.2015,2.182e-05,0
0.202,2.9206e-05,0
0.2025,3.508e-05,0
0.203,3.1556e-05,0
0.2035,2.4338e-05,0
0.204,2.266e-05,0
0.2045,2.1988e-05,0
0.205,1.7288e-05,0
0.2055,1.326e-05,0
0.206,1.326e-05,0
0.2065,1.4603e-05,0
0.207,1.4603e-05,0
0.2075,1.6617e-05,0
0.208,2.031e-05,0
0.2085,1.9638e-05,0
0.209,1.6953e-05,0
0.2095,7.5532e-06,0
0.21,-4.1962e-06,0
0.2105,1.678e-07,0
0.211,7.2175e-06,0
0.2115,7.2175e-06,0
0.212,9.5674e-06,0
0.2125,7.7211e-06,0
0.213,5.2033e-06,0
0.2135,1.1917e-05,0
0.214,1.1582e-05,0
0.2145,3.1891e-06,0
0.215,3.6927e-06,0
0.2155,1.3764e-05,0
0.216,1.796e-05,0
0.2165,1.6449e-05,0
0.217,1.7792e-05,0
0.2175,2.0646e-05,0
0.218,2.4002e-05,0
0.2185,2.9877e-05,0
0.219,3.2563e-05,0
0.2195,2.8031e-05,0
0.22,2.182e-05,0
0.2205,2.0813e-05,0
0.221,2.2324e-05,0
0.2215,1.9135e-05,0
0.222,1.5274e-05,0
0.2225,1.2757e-05,0
0.223,7.8889e-06,0
0.2235,6.5461e-06,0
0.224,2.182e-06,0
0.2245,-3.8605e-06,0
0.225,1.8463e-06,0
0.2255,8.5603e-06,0
0.226,5.539e-06,0
0.2265,3.5248e-06,0
0.227,-1.1749e-06,0
0.2275,-5.035e-07,0
0.228,9.7353e-06,0
0.2285,1.6953e-05,0
0.229,2.3163e-05,0
0.2295,2.9877e-05,0
0.23,3.4745e-05,0
0.2305,3.4073e-05,0
0.231,3.1724e-05,0
0.2315,3.1724e-05,0
0.232,3.4745e-05,0
0.2325,3.6088e-05,0
0.233,3.1052e-05,0
0.2335,2.7863e-05,0
0.234,2.8031e-05,0
0.2345,2.6688e-05,0
0.235,2.4506e-05,0
0.2355,2.182e-05,0
0.236,1.9806e-05,0
0.2365,2.6688e-05,0
0.237,2.6688e-05,0
0.2375,2.1988e-05,0
0.238,2.7192e-05,0
0.2385,3.1724e-05,0
0.239,2.7192e-05,0
0.2395,2.6184e-05,0
0.24,2.1988e-05,0
0.2405,1.8128e-05,0
0.241,2.4002e-05,0
0.2415,3.2731e-05,0
0.242,3.6591e-05,0
0.2425,3.4073e-05,0
0.243,2.7695e-05,0
0.2435,2.4674e-05,0
0.244,2.4338e-05,0
0.2445,2.4338e-05,0
0.245,2.7359e-05,0
0.2455,2.9709e-05,0
0.246,2.4338e-05,0
0.2465,1.8631e-05,0
0.247,1.6449e-05,0
0.2475,1.6281e-05,0
0.248,2.0981e-05,0
0.2485,2.182e-05,0
0.249,2.031e-05,0
0.2495,2.5345e-05,0
0.25,2.7695e-05,0
0.2505,2.5009e-05,0
0.251,2.4338e-05,0
0.2515,1.9974e-05,0
0.252,1.7121e-05,0
0.2525,2.2492e-05,0
0.253,1.9806e-05,0
0.2535,9.5674e-06,0
0.254,8.896e-06,0
0.2545,1.326e-05,0
0.255,1.2253e-05,0
0.2555,8.3925e-06,0
0.256,8.5603e-06,0
0.2565,1.0575e-05,0
0.257,1.3932e-05,0
0.2575,1.326e-05,0
0.258,1.2589e-05,0
0.2585,1.5946e-05,0
0.259,1.9303e-05,0
0.2595,1.7456e-05,0
0.26,1.7792e-05,0
0.2605,2.1988e-05,0
0.261,2.5681e-05,0
0.2615,2.0981e-05,0
0.262,1.2085e-05,0
0.2625,1.8631e-05,0
0.263,2.5177e-05,0
0.2635,2.0646e-05,0
0.264,2.1317e-05,0
0.2645,2.1653e-05,0
0.265,2.0646e-05,0
0.2655,2.9038e-05,0
0.266,3.0716e-05,0
0.2665,2.4002e-05,0
0.267,2.031e-05,0
0.2675,2.1988e-05,0
0.268,2.652e-05,0
0.2685,3.122e-05,0
0.269,3.0045e-05,0
0.2695,2.6184e-05,0
0.27,2.2995e-05,0
0.2705,2.2156e-05,0
0.271,2.6017e-05,0
0.2715,2.8031e-05,0
0.272,2.7695e-05,0
0.2725,2.7192e-05,0
0.273,2.6352e-05,0
0.2735,2.5849e-05,0
0.274,2.5345e-05,0
0.2745,2.3667e-05,0
0.275,1.7792e-05,0
0.2755,1.796e-05,0
0.276,1.7792e-05,0
0.2765,1.3092e-05,0
0.277,1.326e-05,0
0.2775,8.2246e-06,0
0.278,1.5106e-06,0
0.2785,5.2033e-06,0
0.279,5.0355e-06,0
0.2795,-1.0071e-06,0
0.28,2.8534e-06,0
0.2805,1.7288e-05,0
0.281,2.7359e-05,0
0.2815,2.7359e-05,0
0.282,2.5345e-05,0
0.2825,2.4338e-05,0
0.283,2.4002e-05,0
0.2835,2.5513e-05,0
0.284,2.3667e-05,0
0.2845,1.8128e-05,0
0.285,1.4603e-05,0
0.2855,1.3596e-05,0
0.286,1.1582e-05,0
0.2865,1.0407e-05,0
0.287,1.2085e-05,0
0.2875,8.3925e-06,0
0.288,3.8605e-06,0
0.2885,7.8889e-06,0
0.289,1.0575e-05,0
0.2895,8.5603e-06,0
0.29,1.2421e-05,0
0.2905,1.5442e-05,0
0.291,1.326e-05,0
0.2915,1.8296e-05,0
0.292,2.0478e-05,0
0.2925,2.0478e-05,0
0.293,2.2995e-05,0
0.2935,2.3163e-05,0
0.294,2.4338e-05,0
0.2945,2.8031e-05,0
0.295,2.7695e-05,0
0.2955,2.5513e-05,0
0.296,2.2156e-05,0
0.2965,1.796e-05,0
0.297,1.947e-05,0
0.2975,2.3667e-05,0
0.298,2.4674e-05,0
0.2985,2.1653e-05,0
0.299,2.1317e-05,0
0.2995,1.9974e-05,0
0.3,2.0646e-05,0
0.3005,1.8967e-05,0
0.301,1.4267e-05,0
0.3015,1.7792e-05,0
0.302,1.6785e-05,0
0.3025,1.4603e-05,0
0.303,2.4002e-05,0
0.3035,2.7863e-05,0
0.304,2.3667e-05,0
0.3045,2.5681e-05,0
0.305,2.5009e-05,0
0.3055,2.1317e-05,0
0.306,2.2995e-05,0
0.3065,2.5513e-05,0
0.307,2.2324e-05,0
0.3075,1.7624e-05,0
0.308,1.8967e-05,0
0.3085,2.1988e-05,0
0.309,2.0646e-05,0
0.3095,1.6617e-05,0
0.31,1.4771e-05,0
0.3105,1.7792e-05,0
0.311,2.3667e-05,0
0.3115,2.5345e-05,0
0.312,2.5849e-05,0
0.3125,2.9374e-05,0
0.313,3.2059e-05,0
0.3135,2.7359e-05,0
0.314,2.0981e-05,0
0.3145,2.4674e-05,0
0.315,2.7695e-05,0
0.3155,2.8031e-05,0
0.316,3.8102e-05,0
0.3165,3.978e-05,0
0.317,3.2731e-05,0
0.3175,3.2059e-05,0
0.318,3.0716e-05,0
0.3185,2.8031e-05,0
0.319,3.0884e-05,0
0.3195,3.6423e-05,0
0.32,4.0787e-05,0
0.3205,3.978e-05,0
0.321,3.3402e-05,0
0.3215,2.3667e-05,0
0.322,1.561e-05,0
0.3225,1.3092e-05,0
0.323,1.6281e-05,0
0.3235,1.9638e-05,0
0.324,1.7288e-05,0
0.3245,9.9031e-06,0
0.325,2.5177e-06,0
0.3255,2.0142e-06,0
0.326,9.9031e-06,0
0.3265,1.2253e-05,0
0.327,7.5532e-06,0
0.3275,1.1246e-05,0
0.328,1.3596e-05,0
0.3285,1.2253e-05,0
0.329,1.7288e-05,0
0.3295,1.5274e-05,0
0.33,1.1078e-05,0
0.3305,1.5946e-05,0
0.331,1.2253e-05,0
0.3315,1.1749e-06,0
0.332,5.035e-07,0
0.3325,8.896e-06,0
0.333,1.5442e-05,0
0.3335,1.7288e-05,0
0.334,1.8631e-05,0
0.3345,1.7288e-05,0
0.335,1.561e-05,0
0.3355,1.6617e-05,0
0.336,1.6449e-05,0
0.3365,1.4267e-05,0
0.337,1.4267e-05,0
0.3375,1.561e-05,0
0.338,1.6281e-05,0
0.3385,1.561e-05,0
0.339,1.4603e-05,0
0.3395,5.7069e-06,0
0.34,-5.2033e-06,0
0.3405,-1.8463e-06,0
0.341,1.678e-07,0
0.3415,-1.1749e-06,0
0.342,4.5319e-06,0
0.3425,7.5532e-06,0
0.343,7.8889e-06,0
0.3435,1.1582e-05,0
0.344,1.326e-05,0
0.3445,1.6953e-05,0
0.345,2.652e-05,0
0.3455,3.2731e-05,0
0.346,3.1388e-05,0
0.3465,2.8031e-05,0
0.347,2.7695e-05,0
0.3475,3.0213e-05,0
0.348,3.3738e-05,0
0.3485,3.4409e-05,0
0.349,3.5416e-05,0
0.3495,3.9109e-05,0
0.35,3.9612e-05,0
0.3505,3.6255e-05,0
0.351,3.2059e-05,0
0.3515,2.8031e-05,0
0.352,2.3667e-05,0
0.3525,2.031e-05,0
0.353,2.0142e-05,0
0.3535,2.7192e-05,0
0.354,2.6017e-05,0
0.3545,2.2492e-05,0
0.355,2.8702e-05,0
0.3555,2.9374e-05,0
0.356,2.266e-05,0
0.3565,2.5009e-05,0
0.357,2.5345e-05,0
0.3575,2.3835e-05,0
0.358,3.0381e-05,0
0.3585,3.6423e-05,0
0.359,3.5752e-05,0
0.3595,3.4577e-05,0
0.36,3.3738e-05,0
0.3605,3.2731e-05,0
0.361,2.7359e-05,0
0.3615,2.182e-05,0
0.362,2.0646e-05,0
0.3625,1.9638e-05,0
0.363,1.9303e-05,0
0.3635,2.031e-05,0
0.364,1.9303e-05,0
0.3645,1.8128e-05,0
0.365,2.0981e-05,0
0.3655,2.1149e-05,0
0.366,1.6785e-05,0
0.3665,1.9974e-05,0
0.367,2.0981e-05,0
0.3675,1.4603e-05,0
0.368,1.3932e-05,0
0.3685,1.2253e-05,0
0.369,5.2033e-06,0
0.3695,2.8534e-06,0
0.37,-3.5248e-06,0
0.3705,-1.4435e-05,0
0.371,-1.2085e-05,0
0.3715,-2.3499e-06,0
0.372,3.6927e-06,0
0.3725,9.7353e-06,0
0.373,1.2589e-05,0
0.3735,1.3932e-05,0
0.374,1.326e-05,0
0.3745,9.9031e-06,0
0.375,1.0575e-05,0
0.3755,1.4939e-05,0
0.376,1.9303e-05,0
0.3765,2.2828e-05,0
0.377,2.3163e-05,0
0.3775,2.266e-05,0
0.378,2.652e-05,0
0.3785,2.8031e-05,0
0.379,2.4674e-05,0
0.3795,2.8031e-05,0
0.38,2.9877e-05,0
0.3805,2.3163e-05,0
0.381,2.1149e-05,0
0.3815,1.947e-05,0
0.382,1.8296e-05,0
0.3825,2.1317e-05,0
0.383,1.7456e-05,0
0.3835,7.2175e-06,0
0.384,4.8676e-06,0
0.3845,6.8818e-06,0
0.385,8.5603e-06,0
0.3855,1.1917e-05,0
0.386,1.9638e-05,0
0.3865,2.2995e-05,0
0.387,2.0142e-05,0
0.3875,1.5946e-05,0
0.388,1.6449e-05,0
0.3885,1.9638e-05,0
0.389,2.5513e-05,0
0.3895,3.3738e-05,0
0.39,3.6088e-05,0
0.3905,3.3738e-05,0
0.391,3.5584e-05,0
0.3915,3.4073e-05,0
0.392,2.7695e-05,0
0.3925,2.9374e-05,0
0.393,3.0381e-05,0
0.3935,3.0045e-05,0
0.394,3.3906e-05,0
0.3945,3.1052e-05,0
0.395,2.5345e-05,0
0.3955,2.4674e-05,0
0.396,2.182e-05,0
0.3965,2.1653e-05,0
0.397,2.9709e-05,0
0.3975,3.5416e-05,0
0.398,3.3402e-05,0
0.3985,2.6017e-05,0
0.399,2.0478e-05,0
0.3995,2.5513e-05,0
0.4,3.5584e-05,0
0.4005,4.1123e-05,0
0.401,4.1962e-05,0
0.4015,4.3473e-05,0
0.402,4.213e-05,0
0.4025,3.7934e-05,0
0.403,3.1724e-05,0
0.4035,2.5345e-05,0
0.404,2.5177e-05,0
0.4045,2.266e-05,0
0.405,1.1582e-05,0
0.4055,6.2104e-06,0
0.406,1.3428e-06,0
0.4065,-5.2033e-06,0
0.407,-5.8747e-06,0
0.4075,-1.0071e-05,0
0.408,-1.2589e-05,0
0.4085,-2.5177e-06,0
0.409,2.182e-06,0
0.4095,2.8534e-06,0
0.41,8.7282e-06,0
0.4105,1.2253e-05,0
0.411,1.1582e-05,0
0.4115,9.7353e-06,0
0.412,9.5674e-06,0
0.4125,1.1749e-05,0
0.413,1.8631e-05,0
0.4135,2.3331e-05,0
0.414,2.2324e-05,0
0.4145,2.0981e-05,0
0.415,1.9974e-05,0
0.4155,1.7624e-05,0
0.416,1.3932e-05,0
0.4165,9.0639e-06,0
0.417,8.5603e-06,0
0.4175,6.2104e-06,0
0.418,1.678e-07,0
0.4185,3.0213e-06,0
0.419,7.5532e-06,0
0.4195,8.7282e-06,0
0.42,1.3932e-05,0
0.4205,1.8967e-05,0
0.421,2.266e-05,0
0.4215,3.1052e-05,0
0.422,3.4409e-05,0
0.4225,3.5416e-05,0
0.423,4.1123e-05,0
0.4235,4.4144e-05,0
0.424,4.5823e-05,0
0.4245,4.5487e-05,0
0.425,4.2466e-05,0
0.4255,3.9109e-05,0
0.426,3.6088e-05,0
0.4265,3.4409e-05,0
0.427,2.7863e-05,0
0.4275,2.3667e-05,0
0.428,2.3331e-05,0
0.4285,2.1988e-05,0
0.429,1.7288e-05,0
0.4295,1.4435e-05,0
0.43,1.561e-05,0
0.4305,1.4267e-05,0
0.431,1.0071e-05,0
0.4315,1.4267e-05,0
0.432,1.2253e-05,0
0.4325,3.1891e-06,0
0.433,2.182e-06,0
0.4335,1.5106e-06,0
0.434,-3.5248e-06,0
0.4345,-2.6856e-06,0
0.435,-1.6785e-06,0
0.4355,-5.2033e-06,0
0.436,-4.5319e-06,0
0.4365,1.8463e-06,0
0.437,8.7282e-06,0
0.4375,1.0575e-05,0
0.438,9.2317e-06,0
0.4385,5.8747e-06,0
0.439,7.2175e-06,0
0.4395,1.1246e-05,0
0.44,1.5946e-05,0
0.4405,2.5681e-05,0
0.441,3.1388e-05,0
0.4415,3.2059e-05,0
0.442,3.122e-05,0
0.4425,2.5009e-05,0
0.443,2.4338e-05,0
0.4435,2.3331e-05,0
0.444,1.796e-05,0
0.4445,2.5681e-05,0
0.445,3.0045e-05,0
0.4455,2.3331e-05,0
0.446,2.4506e-05,0
0.4465,2.5681e-05,0
0.447,2.3667e-05,0
0.4475,2.7695e-05,0
0.448,2.5849e-05,0
0.4485,2.1317e-05,0
0.449,2.5009e-05,0
0.4495,2.7695e-05,0
0.45,2.5849e-05,0
0.4505,2.3835e-05,0
0.451,2.5681e-05,0
0.4515,2.9709e-05,0
0.452,3.2059e-05,0
0.4525,2.9038e-05,0
0.453,2.5009e-05,0
0.4535,2.6017e-05,0
0.454,2.8031e-05,0
0.4545,2.4674e-05,0
0.455,2.1317e-05,0
0.4555,2.3499e-05,0
0.456,2.7359e-05,0
0.4565,2.1317e-05,0
0.457,1.1582e-05,0
0.4575,1.326e-05,0
0.458,1.6449e-05,0
0.4585,1.3932e-05,0
0.459,1.5778e-05,0
0.4595,1.4939e-05,0
0.46,8.896e-06,0
0.4605,1.2589e-05,0
0.461,1.8967e-05,0
0.4615,1.9303e-05,0
0.462,2.182e-05,0
0.4625,2.4002e-05,0
0.463,2.4506e-05,0
0.4635,2.7024e-05,0
0.464,2.9206e-05,0
0.4645,2.2995e-05,0
0.465,1.4603e-05,0
0.4655,1.4939e-05,0
0.466,1.8631e-05,0
0.4665,1.9974e-05,0
0.467,2.0478e-05,0
0.4675,2.0478e-05,0
0.468,1.9638e-05,0
0.4685,1.796e-05,0
0.469,2.3331e-05,0
0.4695,2.7695e-05,0
0.47,2.2492e-05,0
0.4705,2.0478e-05,0
0.471,2.031e-05,0
0.4715,2.2995e-05,0
0.472,3.0381e-05,0
0.4725,2.5681e-05,0
0.473,1.4939e-05,0
0.4735,1.8631e-05,0
0.474,2.5009e-05,0
0.4745,2.8534e-05,0
0.475,3.4745e-05,0
0.4755,3.8102e-05,0
0.476,4.0452e-05,0
0.4765,4.3809e-05,0
0.477,4.3137e-05,0
0.4775,4.1459e-05,0
0.478,3.9445e-05,0
0.4785,3.6088e-05,0
0.479,3.0381e-05,0
0.4795,2.6184e-05,0
0.48,2.3499e-05,0
0.4805,2.1988e-05,0
0.481,1.9974e-05,0
0.4815,1.4099e-05,0
0.482,7.3854e-06,0
0.4825,5.035e-07,0
0.483,1.8463e-06,0
0.4835,1.6281e-05,0
0.484,2.1653e-05,0
0.4845,1.1078e-05,0
0.485,8.0568e-06,0
0.4855,1.0071e-05,0
0.486,1.0239e-05,0
0.4865,1.4603e-05,0
0.487,1.561e-05,0
0.4875,1.1917e-05,0
0.488,1.1917e-05,0
0.4885,1.5946e-05,0
0.489,1.6953e-05,0
0.4895,1.5946e-05,0
0.49,1.796e-05,0
0.4905,2.2324e-05,0
0.491,2.4002e-05,0
0.4915,2.4338e-05,0
0.492,2.7695e-05,0
0.4925,2.7024e-05,0
0.493,2.4674e-05,0
0.4935,2.5345e-05,0
0.494,2.8031e-05,0
0.4945,2.7359e-05,0
0.495,2.3331e-05,0
0.4955,1.5946e-05,0
0.496,8.3925e-06,0
0.4965,6.5461e-06,0
0.497,4.8676e-06,0
0.4975,2.8534e-06,0
0.498,3.5248e-06,0
0.4985,-1.678e-07,0
0.499,-2.8534e-06,0
0.4995,-3.357e-07,0
0.5,2.8534e-06,0
0.5005,7.8889e-06,0
0.501,1.796e-05,0
0.5015,1.9638e-05,0
0.502,1.0575e-05,0
0.5025,6.8818e-06,0
0.503,9.9031e-06,0
0.5035,1.3092e-05,0
0.504,1.7288e-05,0
0.5045,2.2324e-05,0
0.505,2.652e-05,0
0.5055,3.1052e-05,0
0.506,3.3738e-05,0
0.5065,3.1891e-05,0
0.507,2.6184e-05,0
0.5075,2.1317e-05,0
0.508,2.2324e-05,0
0.5085,2.3331e-05,0
0.509,1.8799e-05,0
0.5095,1.8631e-05,0
0.51,1.561e-05,0
0.5105,9.0639e-06,0
0.511,1.5274e-05,0
0.5115,2.4338e-05,0
0.512,2.8031e-05,0
0.5125,3.4073e-05,0
0.513,3.3402e-05,0
0.5135,2.5009e-05,0
0.514,2.0646e-05,0
0.5145,2.1653e-05,0
0.515,2.3331e-05,0
0.5155,2.4002e-05,0
0.516,2.266e-05,0
0.5165,2.4002e-05,0
0.517,2.2156e-05,0
0.5175,2.031e-05,0
0.518,2.1317e-05,0
0.5185,1.8967e-05,0
0.519,1.2253e-05,0
0.5195,4.5319e-06,0
0.52,-6.714e-07,0
0.5205,-3.6927e-06,0
0.521,2.5177e-06,0
0.5215,1.0575e-05,0
0.522,1.2924e-05,0
0.5225,1.8967e-05,0
0.523,2.1317e-05,0
0.5235,1.947e-05,0
0.524,2.5345e-05,0
0.5245,2.9038e-05,0
0.525,3.2395e-05,0
0.5255,3.6927e-05,0
0.526,3.0045e-05,0
0.5265,1.8967e-05,0
0.527,1.9974e-05,0
0.5275,2.5009e-05,0
0.528,2.1988e-05,0
0.5285,1.6785e-05,0
0.529,1.6281e-05,0
0.5295,1.8631e-05,0
0.53,1.9638e-05,0
0.5305,1.7624e-05,0
0.531,1.947e-05,0
0.5315,2.182e-05,0
0.532,2.1988e-05,0
0.5325,2.1317e-05,0
0.533,1.8296e-05,0
0.5335,1.7288e-05,0
0.534,2.031e-05,0
0.5345,2.0142e-05,0
0.535,1.8296e-05,0
0.5355,2.3331e-05,0
0.536,2.7024e-05,0
0.5365,2.7695e-05,0
0.537,3.3906e-05,0
0.5375,3.357e-05,0
0.538,2.9374e-05,0
0.5385,3.1724e-05,0
0.539,2.9374e-05,0
0.5395,2.6688e-05,0
0.54,3.0381e-05,0
0.5405,3.3906e-05,0
0.541,3.3738e-05,0
0.5415,2.9206e-05,0
0.542,2.1653e-05,0
0.5425,1.8128e-05,0
0.543,1.6617e-05,0
0.5435,1.1246e-05,0
0.544,6.5461e-06,0
0.5445,5.539e-06,0
0.545,4.8676e-06,0
0.5455,7.3854e-06,0
0.546,1.0575e-05,0
0.5465,1.1414e-05,0
0.547,1.2924e-05,0
0.5475,9.3996e-06,0
0.548,5.7069e-06,0
0.5485,1.4939e-05,0
0.549,2.3667e-05,0
0.5495,2.6352e-05,0
0.55,3.1724e-05,0
0.5505,3.2059e-05,0
0.551,3.0045e-05,0
0.5515,3.2395e-05,0
0.552,2.5681e-05,0
0.5525,1.2589e-05,0
0.553,1.0575e-05,0
0.5535,1.7288e-05,0
0.554,2.031e-05,0
0.5545,2.1317e-05,0
0.555,2.3331e-05,0
0.5555,2.5513e-05,0
0.556,2.5345e-05,0
0.5565,2.031e-05,0
0.557,1.4939e-05,0
0.5575,1.3596e-05,0
0.558,1.6785e-05,0
0.5585,2.182e-05,0
0.559,2.266e-05,0
0.5595,1.7792e-05,0
0.56,1.9974e-05,0
0.5605,2.0646e-05,0
0.561,1.3596e-05,0
0.5615,1.5106e-05,0
0.562,1.3932e-05,0
0.5625,9.2317e-06,0
0.563,1.3932e-05,0
0.5635,1.5946e-05,0
0.564,1.6617e-05,0
0.5645,2.3835e-05,0
0.565,2.1988e-05,0
0.5655,1.4603e-05,0
0.566,1.6953e-05,0
0.5665,2.652e-05,0
0.567,2.9877e-05,0
0.5675,2.5177e-05,0
0.568,2.2995e-05,0
0.5685,2.3331e-05,0
0.569,2.7359e-05,0
0.5695,2.6017e-05,0
0.57,1.8463e-05,0
0.5705,1.6617e-05,0
0.571,1.9638e-05,0
0.5715,1.6449e-05,0
0.572,1.1749e-05,0
0.5725,1.1246e-05,0
0.573,1.7288e-05,0
0.5735,1.9806e-05,0
0.574,1.4603e-05,0
0.5745,1.9638e-05,0
0.575,2.3331e-05,0
0.5755,1.6449e-05,0
0.576,1.3596e-05,0
0.5765,1.4267e-05,0
0.577,1.6281e-05,0
0.5775,2.1317e-05,0
0.578,1.561e-05,0
0.5785,9.2317e-06,0
0.579,1.6953e-05,0
0.5795,2.8031e-05,0
0.58,3.4409e-05,0
0.5805,3.5584e-05,0
0.581,3.4073e-05,0
0.5815,3.2898e-05,0
0.582,3.4073e-05,0
0.5825,3.6759e-05,0
0.583,3.6088e-05,0
0.5835,3.0213e-05,0
0.584,3.0213e-05,0
0.5845,3.5416e-05,0
0.585,3.8773e-05,0
0.5855,3.2059e-05,0
0.586,2.2492e-05,0
0.5865,1.6785e-05,0
0.587,1.4099e-05,0
0.5875,1.7456e-05,0
0.588,1.7121e-05,0
0.5885,1.2589e-05,0
0.589,1.4099e-05,0
0.5895,1.0575e-05,0
0.59,6.8818e-06,0
0.5905,1.5106e-05,0
0.591,1.8631e-05,0
0.5915,1.3596e-05,0
0.592,1.326e-05,0
0.5925,1.7288e-05,0
0.593,2.031e-05,0
0.5935,2.0646e-05,0
0.594,1.8967e-05,0
0.5945,1.9303e-05,0
0.595,1.8967e-05,0
0.5955,1.9974e-05,0
0.596,2.6352e-05,0
0.5965,3.122e-05,0
0.597,3.0716e-05,0
0.5975,2.7024e-05,0
0.598,1.9638e-05,0
0.5985,1.1582e-05,0
0.599,1.0575e-05,0
0.5995,8.0568e-06,0
0.6,-1.3428e-06,0
0.6005,-3.0213e-06,0
0.601,-3.6927e-06,0
0.6015,-4.1962e-06,0
0.602,3.6927e-06,0
0.6025,9.7353e-06,0
0.603,1.2421e-05,0
0.6035,1.796e-05,0
0.604,1.9806e-05,0
0.6045,2.2995e-05,0
0.605,3.3738e-05,0
0.6055,3.7766e-05,0
0.606,3.2731e-05,0
0.6065,2.6184e-05,0
0.607,2.5681e-05,0
0.6075,2.6688e-05,0
0.608,2.1988e-05,0
0.6085,1.4267e-05,0
0.609,1.0575e-05,0
0.6095,1.4603e-05,0
0.61,1.796e-05,0
0.6105,1.9806e-05,0
0.611,1.9303e-05,0
0.6115,1.4939e-05,0
0.612,1.326e-05,0
0.6125,1.2253e-05,0
0.613,1.4771e-05,0
0.6135,2.3331e-05,0
0.614,2.4842e-05,0
0.6145,2.3163e-05,0
0.615,2.6688e-05,0
0.6155,2.3667e-05,0
0.616,1.8296e-05,0
0.6165,2.3331e-05,0
0.617,2.4002e-05,0
0.6175,1.561e-05,0
0.618,1.2253e-05,0
0.6185,1.091e-05,0
0.619,8.5603e-06,0
0.6195,9.2317e-06,0
0.62,1.1246e-05,0
0.6205,1.2253e-05,0
0.621,1.3932e-05,0
0.6215,1.7624e-05,0
0.622,2.0478e-05,0
0.6225,1.6281e-05,0
0.623,1.091e-05,0
0.6235,1.091e-05,0
0.624,1.2924e-05,0
0.6245,1.3932e-05,0
0.625,1.7456e-05,0
0.6255,1.6281e-05,0
0.626,6.8818e-06,0
0.6265,6.5461e-06,0
0.627,9.2317e-06,0
0.6275,9.5674e-06,0
0.628,1.5946e-05,0
0.6285,1.6953e-05,0
0.629,1.7288e-05,0
0.6295,2.3331e-05,0
0.63,2.4506e-05,0
0.6305,2.3835e-05,0
0.631,2.9374e-05,0
0.6315,3.2395e-05,0
0.632,2.9374e-05,0
0.6325,2.7024e-05,0
0.633,2.4842e-05,0
0.6335,2.3835e-05,0
0.634,2.2492e-05,0
0.6345,2.266e-05,0
0.635,2.4002e-05,0
0.6355,2.5681e-05,0
0.636,3.0716e-05,0
0.6365,3.1556e-05,0
0.637,2.8367e-05,0
0.6375,2.5681e-05,0
0.638,2.6017e-05,0
0.6385,2.4842e-05,0
0.639,2.4002e-05,0
0.6395,3.1388e-05,0
0.64,3.0716e-05,0
0.6405,2.5681e-05,0
0.641,2.6688e-05,0
0.6415,2.7695e-05,0
0.642,2.4002e-05,0
0.6425,2.4842e-05,0
0.643,2.3331e-05,0
0.6435,2.0981e-05,0
0.644,2.4338e-05,0
0.6445,2.7192e-05,0
0.645,2.1988e-05,0
0.6455,1.6281e-05,0
0.646,1.8631e-05,0
0.6465,2.2828e-05,0
0.647,2.182e-05,0
0.6475,1.9303e-05,0
0.648,2.4002e-05,0
0.6485,3.1556e-05,0
0.649,3.2059e-05,0
0.6495,2.3835e-05,0
0.65,1.2421e-05,0
0.6505,9.2317e-06,0
0.651,1.326e-05,0
0.6515,1.0575e-05,0
0.652,3.8605e-06,0
0.6525,7.3854e-06,0
0.653,1.2253e-05,0
0.6535,1.3092e-05,0
0.654,1.6449e-05,0
0.6545,1.5946e-05,0
0.655,1.3092e-05,0
0.6555,1.4603e-05,0
0.656,1.4939e-05,0
0.6565,1.6281e-05,0
0.657,2.5681e-05,0
0.6575,3.0213e-05,0
0.658,2.4506e-05,0
0.6585,1.9135e-05,0
0.659,1.7792e-05,0
0.6595,1.5274e-05,0
0.66,1.4603e-05,0
0.6605,1.796e-05,0
0.661,2.1317e-05,0
0.6615,2.0646e-05,0
0.662,2.1149e-05,0
0.6625,1.9974e-05,0
0.663,1.8128e-05,0
0.6635,2.182e-05,0
0.664,2.9038e-05,0
0.6645,2.8702e-05,0
0.665,2.4002e-05,0
0.6655,2.9374e-05,0
0.666,3.2731e-05,0
0.6665,3.1388e-05,0
0.667,3.4409e-05,0
0.6675,3.3234e-05,0
0.668,2.887e-05,0
0.6685,2.8031e-05,0
0.669,2.3331e-05,0
0.6695,1.7288e-05,0
0.67,2.1988e-05,0
0.6705,2.8534e-05,0
0.671,2.7359e-05,0
0.6715,2.2995e-05,0
0.672,2.1317e-05,0
0.6725,2.266e-05,0
0.673,2.5849e-05,0
0.6735,2.887e-05,0
0.674,2.9206e-05,0
0.6745,2.5009e-05,0
0.675,2.0813e-05,0
0.6755,2.3499e-05,0
0.676,2.6017e-05,0
0.6765,1.8631e-05,0
0.677,9.2317e-06,0
0.6775,1.1749e-06,0
0.678,-3.0213e-06,0
0.6785,3.1891e-06,0
0.679,6.8818e-06,0
0.6795,4.6998e-06,0
0.68,9.3996e-06,0
0.6805,9.3996e-06,0
0.681,7.2175e-06,0
0.6815,1.2924e-05,0
0.682,1.1582e-05,0
0.6825,6.5461e-06,0
0.683,1.0407e-05,0
0.6835,1.8967e-05,0
0.684,2.5009e-05,0
0.6845,2.7024e-05,0
0.685,2.8031e-05,0
0.6855,2.8702e-05,0
0.686,2.4842e-05,0
0.6865,1.6617e-05,0
0.687,1.1917e-05,0
0.6875,1.561e-05,0
0.688,2.1317e-05,0
0.6885,2.1988e-05,0
0.689,1.9974e-05,0
0.6895,1.7288e-05,0
0.69,2.031e-05,0
0.6905,1.9303e-05,0
0.691,1.0575e-05,0
0.6915,1.5274e-05,0
0.692,1.8463e-05,0
0.6925,1.2253e-05,0
0.693,1.2421e-05,0
0.6935,1.0575e-05,0
0.694,7.8889e-06,0
0.6945,1.091e-05,0
0.695,1.1246e-05,0
0.6955,1.1246e-05,0
0.696,2.0813e-05,0
0.6965,2.8702e-05,0
0.697,3.1052e-05,0
0.6975,2.7695e-05,0
0.698,2.3331e-05,0
0.6985,2.1317e-05,0
0.699,2.1149e-05,0
0.6995,2.1988e-05,0
0.7,2.1317e-05,0
0.7005,1.8631e-05,0
0.701,1.9806e-05,0
0.7015,2.6688e-05,0
0.702,3.3066e-05,0
0.7025,3.1724e-05,0
0.703,2.6352e-05,0
0.7035,1.8631e-05,0
0.704,1.4267e-05,0
0.7045,2.4002e-05,0
0.705,2.8534e-05,0
0.7055,2.3163e-05,0
0.706,2.1317e-05,0
0.7065,1.2924e-05,0
0.707,3.8605e-06,0
0.7075,7.5532e-06,0
0.708,6.2104e-06,0
0.7085,1.5106e-06,0
0.709,8.5603e-06,0
0.7095,1.5946e-05,0
0.71,1.9974e-05,0
0.7105,2.3331e-05,0
0.711,2.4002e-05,0
0.7115,2.1317e-05,0
0.712,1.8128e-05,0
0.7125,2.0646e-05,0
0.713,2.266e-05,0
0.7135,2.0478e-05,0
0.714,2.0142e-05,0
0.7145,2.182e-05,0
0.715,2.1317e-05,0
0.7155,1.796e-05,0
0.716,1.7624e-05,0
0.7165,1.6617e-05,0
0.717,1.326e-05,0
0.7175,1.7121e-05,0
0.718,2.2324e-05,0
0.7185,2.2156e-05,0
0.719,2.6017e-05,0
0.7195,2.5345e-05,0
0.72,2.1988e-05,0
0.7205,2.6017e-05,0
0.721,2.5345e-05,0
0.7215,2.0981e-05,0
0.722,1.8296e-05,0
0.7225,1.796e-05,0
0.723,1.9303e-05,0
0.7235,1.947e-05,0
0.724,1.6953e-05,0
0.7245,1.561e-05,0
0.725,1.8296e-05,0
0.7255,1.9638e-05,0
0.726,1.9303e-05,0
0.7265,2.1653e-05,0
0.727,2.266e-05,0
0.7275,2.3163e-05,0
0.728,2.4002e-05,0
0.7285,2.0478e-05,0
0.729,1.8631e-05,0
0.7295,1.8631e-05,0
0.73,2.0646e-05,0
0.7305,2.6688e-05,0
0.731,2.8031e-05,0
0.7315,2.8367e-05,0
0.732,3.4073e-05,0
0.7325,3.4073e-05,0
0.733,2.887e-05,0
0.7335,3.0045e-05,0
0.734,3.1724e-05,0
0.7345,2.8702e-05,0
0.735,2.3499e-05,0
0.7355,1.796e-05,0
0.736,1.561e-05,0
0.7365,2.1149e-05,0
0.737,2.5849e-05,0
0.7375,2.5849e-05,0
0.738,2.4674e-05,0
0.7385,2.3331e-05,0
0.739,2.4674e-05,0
0.7395,2.6352e-05,0
0.74,2.8031e-05,0
0.7405,2.9709e-05,0
0.741,2.9709e-05,0
0.7415,2.7527e-05,0
0.742,2.8367e-05,0
0.7425,2.8199e-05,0
0.743,2.266e-05,0
0.7435,2.1317e-05,0
0.744,1.9638e-05,0
0.7445,1.5946e-05,0
0.745,1.6281e-05,0
0.7455,1.091e-05,0
0.746,6.8818e-06,0
0.7465,1.326e-05,0
0.747,8.0568e-06,0
0.7475,-4.1962e-06,0
0.748,-4.1962e-06,0
0.7485,4.3641e-06,0
0.749,8.3925e-06,0
0.7495,5.539e-06,0
0.75,2.0142e-06,0
0.7505,3.0213e-06,0
0.751,7.7211e-06,0
0.7515,1.1246e-05,0
0.752,1.2589e-05,0
0.7525,1.5274e-05,0
0.753,1.9806e-05,0
0.7535,2.1317e-05,0
0.754,1.796e-05,0
0.7545,1.3596e-05,0
0.755,1.6281e-05,0
0.7555,1.9135e-05,0
0.756,1.5274e-05,0
0.7565,2.0813e-05,0
0.757,2.5513e-05,0
0.7575,2.0646e-05,0
0.758,2.4506e-05,0
0.7585,2.9709e-05,0
0.759,2.8367e-05,0
0.7595,2.7863e-05,0
0.76,2.3667e-05,0
0.7605,1.9638e-05,0
0.761,2.2324e-05,0
0.7615,2.7359e-05,0
0.762,2.6184e-05,0
0.7625,2.1317e-05,0
0.763,1.8296e-05,0
0.7635,2.0142e-05,0
0.764,2.1317e-05,0
0.7645,1.8296e-05,0
0.765,1.8631e-05,0
0.7655,2.4002e-05,0
0.766,2.266e-05,0
0.7665,1.9974e-05,0
0.767,1.796e-05,0
0.7675,1.5946e-05,0
0.768,1.5106e-05,0
0.7685,1.0239e-05,0
0.769,3.5248e-06,0
0.7695,8.5603e-06,0
0.77,1.4603e-05,0
0.7705,1.5778e-05,0
0.771,1.9806e-05,0
0.7715,2.0478e-05,0
0.772,1.796e-05,0
0.7725,1.796e-05,0
0.773,1.326e-05,0
0.7735,8.896e-06,0
0.774,1.7456e-05,0
0.7745,2.7695e-05,0
0.775,3.1052e-05,0
0.7755,2.8367e-05,0
0.776,2.4674e-05,0
0.7765,2.652e-05,0
0.777,3.0716e-05,0
0.7775,3.0549e-05,0
0.778,2.5345e-05,0
0.7785,2.2995e-05,0
0.779,2.4002e-05,0
0.7795,2.3331e-05,0
0.78,2.3835e-05,0
0.7805,2.1988e-05,0
0.781,1.9135e-05,0
0.7815,1.7288e-05,0
0.782,1.6953e-05,0
0.7825,2.2828e-05,0
0.783,2.3331e-05,0
0.7835,1.7456e-05,0
0.784,2.2995e-05,0
0.7845,2.652e-05,0
0.785,2.2492e-05,0
0.7855,2.4506e-05,0
0.786,2.6688e-05,0
0.7865,2.4002e-05,0
0.787,2.4674e-05,0
0.7875,2.7024e-05,0
0.788,2.3835e-05,0
0.7885,2.0646e-05,0
0.789,2.182e-05,0
0.7895,2.3163e-05,0
0.79,2.1317e-05,0
0.7905,1.7121e-05,0
0.791,1.8296e-05,0
0.7915,2.5009e-05,0
0.792,2.8702e-05,0
0.7925,2.7863e-05,0
0.793,2.5345e-05,0
0.7935,2.0813e-05,0
0.794,1.9303e-05,0
0.7945,1.7288e-05,0
0.795,1.326e-05,0
0.7955,1.7288e-05,0
0.796,2.1317e-05,0
0.7965,2.3667e-05,0
0.797,2.8702e-05,0
0.7975,2.2995e-05,0
0.798,1.2924e-05,0
0.7985,1.561e-05,0
0.799,1.8967e-05,0
0.7995,1.9638e-05,0
0.8,2.4506e-05,0
0.8005,2.5681e-05,0
0.801,1.8631e-05,0
0.8015,1.3092e-05,0
0.802,1.7624e-05,0
0.8025,2.266e-05,0
0.803,2.2492e-05,0
0.8035,2.1317e-05,0
0.804,2.3331e-05,0
0.8045,2.6017e-05,0
0.805,2.7359e-05,0
0.8055,2.4842e-05,0
0.806,2.1317e-05,0
0.8065,1.9135e-05,0
0.807,1.7624e-05,0
0.8075,1.6281e-05,0
0.808,1.9303e-05,0
0.8085,3.1388e-05,0
0.809,3.4409e-05,0
0.8095,2.6688e-05,0
0.81,2.9709e-05,0
0.8105,3.4745e-05,0
0.811,3.0716e-05,0
0.8115,3.0716e-05,0
0.812,2.7695e-05,0
0.8125,2.2995e-05,0
0.813,2.5009e-05,0
0.8135,2.7695e-05,0
0.814,2.5681e-05,0
0.8145,2.2995e-05,0
0.815,1.8463e-05,0
0.8155,1.561e-05,0
0.816,1.7792e-05,0
0.8165,1.8296e-05,0
0.817,1.5274e-05,0
0.8175,9.5674e-06,0
0.818,3.5248e-06,0
0.8185,-1.8463e-06,0
0.819,-4.5319e-06,0
0.8195,-6.2104e-06,0
0.82,-5.0355e-06,0
0.8205,-6.2104e-06,0
0.821,-8.2246e-06,0
0.8215,-2.0142e-06,0
0.822,1.678e-07,0
0.8225,1.8463e-06,0
0.823,1.5274e-05,0
0.8235,2.031e-05,0
0.824,1.3932e-05,0
0.8245,1.4435e-05,0
0.825,1.4603e-05,0
0.8255,1.1246e-05,0
0.826,1.2253e-05,0
0.8265,1.5778e-05,0
0.827,2.1149e-05,0
0.8275,2.8031e-05,0
0.828,3.0884e-05,0
0.8285,3.1052e-05,0
0.829,3.122e-05,0
0.8295,2.7359e-05,0
0.83,2.3163e-05,0
0.8305,2.7024e-05,0
0.831,2.8702e-05,0
0.8315,2.4338e-05,0
0.832,1.8463e-05,0
0.8325,1.5274e-05,0
0.833,1.6617e-05,0
0.8335,1.7288e-05,0
0.834,1.5946e-05,0
0.8345,1.9974e-05,0
0.835,2.1317e-05,0
0.8355,1.7288e-05,0
0.836,1.4939e-05,0
0.8365,1.3932e-05,0
0.837,1.4267e-05,0
0.8375,2.0981e-05,0
0.838,1.947e-05,0
0.8385,1.3596e-05,0
0.839,1.7288e-05,0
0.8395,2.2995e-05,0
0.84,2.4842e-05,0
0.8405,2.4002e-05,0
0.841,2.4002e-05,0
0.8415,2.5009e-05,0
0.842,2.9038e-05,0
0.8425,2.9374e-05,0
0.843,2.5345e-05,0
0.8435,2.2828e-05,0
0.844,2.5345e-05,0
0.8445,3.0381e-05,0
0.845,2.9374e-05,0
0.8455,2.1317e-05,0
0.846,1.796e-05,0
0.8465,1.796e-05,0
0.847,1.4267e-05,0
0.8475,1.5946e-05,0
0.848,1.3932e-05,0
0.8485,1.0575e-05,0
0.849,1.8296e-05,0
0.8495,1.9638e-05,0
0.85,1.1917e-05,0
0.8505,1.0575e-05,0
0.851,1.326e-05,0
0.8515,1.1582e-05,0
0.852,1.4099e-05,0
0.8525,2.2492e-05,0
0.853,2.6688e-05,0
0.8535,2.266e-05,0
0.854,1.8296e-05,0
0.8545,2.1317e-05,0
0.855,2.9206e-05,0
0.8555,3.5752e-05,0
0.856,3.6423e-05,0
0.8565,3.508e-05,0
0.857,3.3234e-05,0
0.8575,3.2059e-05,0
0.858,3.2563e-05,0
0.8585,2.9038e-05,0
0.859,2.8367e-05,0
0.8595,2.9374e-05,0
0.86,3.2059e-05,0
0.8605,3.7262e-05,0
0.861,3.3402e-05,0
0.8615,2.5345e-05,0
0.862,2.4506e-05,0
0.8625,1.9303e-05,0
0.863,1.4099e-05,0
0.8635,1.6281e-05,0
0.864,1.4603e-05,0
0.8645,9.2317e-06,0
0.865,9.5674e-06,0
0.8655,1.091e-05,0
0.866,1.2757e-05,0
0.8665,1.4603e-05,0
0.867,1.6281e-05,0
0.8675,1.9135e-05,0
0.868,2.266e-05,0
0.8685,2.5177e-05,0
0.869,2.7695e-05,0
0.8695,2.8702e-05,0
0.87,2.8367e-05,0
0.8705,2.8031e-05,0
0.871,3.0381e-05,0
0.8715,3.0381e-05,0
0.872,2.3331e-05,0
0.8725,1.6281e-05,0
0.873,1.5442e-05,0
0.8735,2.3331e-05,0
0.874,2.2995e-05,0
0.8745,1.4603e-05,0
0.875,1.0071e-05,0
0.8755,2.8534e-06,0
0.876,-4.8676e-06,0
0.8765,-6.8818e-06,0
0.877,-6.5461e-06,0
0.8775,-5.539e-06,0
0.878,-1.1749e-06,0
0.8785,2.3499e-06,0
0.879,2.0142e-06,0
0.8795,4.3641e-06,0
0.88,9.2317e-06,0
0.8805,1.091e-05,0
0.881,1.2924e-05,0
0.8815,1.2757e-05,0
0.882,1.3092e-05,0
0.8825,1.5106e-05,0
0.883,1.9638e-05,0
0.8835,1.9974e-05,0
0.884,1.5106e-05,0
0.8845,1.1246e-05,0
0.885,1.4603e-05,0
0.8855,1.8967e-05,0
0.886,1.9303e-05,0
0.8865,2.266e-05,0
0.887,2.1988e-05,0
0.8875,1.9303e-05,0
0.888,2.4338e-05,0
0.8885,2.5009e-05,0
0.889,2.1317e-05,0
0.8895,2.6017e-05,0
0.89,2.887e-05,0
0.8905,2.5009e-05,0
0.891,2.1653e-05,0
0.8915,2.3163e-05,0
0.892,2.5345e-05,0
0.8925,2.5345e-05,0
0.893,2.4506e-05,0
0.8935,2.3835e-05,0
0.894,2.5849e-05,0
0.8945,2.7695e-05,0
0.895,2.9038e-05,0
0.8955,2.9038e-05,0
0.896,2.8031e-05,0
0.8965,2.7192e-05,0
0.897,2.8031e-05,0
0.8975,2.7695e-05,0
0.898,3.0884e-05,0
0.8985,3.0716e-05,0
0.899,2.6688e-05,0
0.8995,3.0045e-05,0
0.9,2.7863e-05,0
0.9005,1.9135e-05,0
0.901,2.0646e-05,0
0.9015,2.1317e-05,0
0.902,1.8296e-05,0
0.9025,1.9806e-05,0
0.903,1.6617e-05,0
0.9035,1.1414e-05,0
0.904,1.4603e-05,0
0.9045,1.8128e-05,0
0.905,1.7121e-05,0
0.9055,1.7624e-05,0
0.906,2.0478e-05,0
0.9065,1.9974e-05,0
0.907,1.9303e-05,0
0.9075,1.9135e-05,0
0.908,2.0646e-05,0
0.9085,2.1317e-05,0
0.909,2.5681e-05,0
0.9095,2.7695e-05,0
0.91,2.4674e-05,0
0.9105,1.7624e-05,0
0.911,1.5946e-05,0
0.9115,1.8463e-05,0
0.912,1.6953e-05,0
0.9125,1.4435e-05,0
0.913,1.2589e-05,0
0.9135,1.561e-05,0
0.914,2.4002e-05,0
0.9145,2.2324e-05,0
0.915,1.5274e-05,0
0.9155,1.8296e-05,0
0.916,2.1988e-05,0
0.9165,2.6352e-05,0
0.917,3.5752e-05,0
0.9175,4.0116e-05,0
0.918,3.8102e-05,0
0.9185,3.2731e-05,0
0.919,2.8199e-05,0
0.9195,2.7024e-05,0
0.92,2.9038e-05,0
0.9205,3.122e-05,0
0.921,2.9709e-05,0
0.9215,2.6352e-05,0
0.922,2.6352e-05,0
0.9225,2.8031e-05,0
0.923,2.6688e-05,0
0.9235,2.3835e-05,0
0.924,2.4506e-05,0
0.9245,2.3331e-05,0
0.925,1.7624e-05,0
0.9255,1.9303e-05,0
0.926,2.0981e-05,0
0.9265,1.7624e-05,0
0.927,1.947e-05,0
0.9275,1.4603e-05,0
0.928,6.8818e-06,0
0.9285,1.1582e-05,0
0.929,1.3596e-05,0
0.9295,1.2421e-05,0
0.93,2.0646e-05,0
0.9305,2.8702e-05,0
0.931,2.8534e-05,0
0.9315,2.6688e-05,0
0.932,2.4674e-05,0
0.9325,2.2156e-05,0
0.933,1.9638e-05,0
0.9335,1.0239e-05,0
0.934,1.6785e-06,0
0.9345,-1.1749e-06,0
0.935,1.5106e-06,0
0.9355,3.5248e-06,0
0.936,3.0213e-06,0
0.9365,1.5106e-06,0
0.937,5.035e-07,0
0.9375,-4.3641e-06,0
0.938,-8.896e-06,0
0.9385,-5.539e-06,0
0.939,-5.2033e-06,0
0.9395,-7.5532e-06,0
0.94,1.3428e-06,0
0.9405,9.7353e-06,0
0.941,1.2757e-05,0
0.9415,1.6953e-05,0
0.942,1.3932e-05,0
0.9425,1.0239e-05,0
0.943,2.0646e-05,0
0.9435,3.1052e-05,0
0.944,2.9374e-05,0
0.9445,2.7359e-05,0
0.945,2.9877e-05,0
0.9455,3.1556e-05,0
0.946,3.0716e-05,0
0.9465,3.3066e-05,0
0.947,3.4745e-05,0
0.9475,3.0716e-05,0
0.948,2.7863e-05,0
0.9485,2.6352e-05,0
0.949,2.2828e-05,0
0.9495,1.9806e-05,0
0.95,1.9303e-05,0
0.9505,1.7624e-05,0
0.951,1.561e-05,0
0.9515,2.2828e-05,0
0.952,2.4338e-05,0
0.9525,2.0813e-05,0
0.953,2.2324e-05,0
0.9535,1.947e-05,0
0.954,1.4435e-05,0
0.9545,1.8631e-05,0
0.955,2.0142e-05,0
0.9555,1.6617e-05,0
0.956,1.9974e-05,0
0.9565,2.7192e-05,0
0.957,2.9038e-05,0
0.9575,2.5345e-05,0
0.958,2.6352e-05,0
0.9585,3.2731e-05,0
0.959,3.592e-05,0
0.9595,3.1724e-05,0
0.96,2.6688e-05,0
0.9605,2.3499e-05,0
0.961,2.266e-05,0
0.9615,2.3667e-05,0
0.962,2.4674e-05,0
0.9625,2.3667e-05,0
0.963,2.266e-05,0
0.9635,1.7792e-05,0
0.964,1.1917e-05,0
0.9645,1.7456e-05,0
0.965,2.2492e-05,0
0.9655,1.9638e-05,0
0.966,1.9974e-05,0
0.9665,1.947e-05,0
0.967,1.8967e-05,0
0.9675,2.7359e-05,0
0.968,3.1388e-05,0
0.9685,3.0045e-05,0
0.969,3.2059e-05,0
0.9695,3.3234e-05,0
0.97,2.7863e-05,0
0.9705,2.0478e-05,0
0.971,1.7121e-05,0
0.9715,1.5274e-05,0
0.972,1.2253e-05,0
0.9725,4.6998e-06,0
0.973,-5.035e-07,0
0.9735,2.5177e-06,0
0.974,9.2317e-06,0
0.9745,1.4603e-05,0
0.975,1.796e-05,0
0.9755,2.0981e-05,0
0.976,2.3331e-05,0
0.9765,2.0981e-05,0
0.977,2.0478e-05,0
0.9775,2.8031e-05,0
0.978,2.4002e-05,0
0.9785,1.5778e-05,0
0.979,1.8296e-05,0
0.9795,1.796e-05,0
0.98,1.0575e-05,0
0.9805,5.8747e-06,0
0.981,1.1749e-06,0
0.9815,-2.182e-06,0
0.982,5.7069e-06,0
0.9825,1.8296e-05,0
0.983,2.0142e-05,0
0.9835,1.7288e-05,0
0.984,1.947e-05,0
0.9845,2.4842e-05,0
0.985,2.7359e-05,0
0.9855,2.6352e-05,0
0.986,2.5513e-05,0
0.9865,2.1988e-05,0
0.987,1.8631e-05,0
0.9875,2.3331e-05,0
0.988,3.3066e-05,0
0.9885,3.8605e-05,0
0.989,4.1459e-05,0
0.9895,3.7934e-05,0
0.99,2.887e-05,0
0.9905,3.3906e-05,0
0.991,3.6255e-05,0
0.9915,3.0549e-05,0
0.992,3.0045e-05,0
0.9925,2.652e-05,0
0.993,1.6953e-05,0
0.9935,1.0575e-05,0
0.994,1.5106e-06,0
0.9945,-5.539e-06,0
0.995,3.6927e-06,0
0.9955,1.4099e-05,0
0.996,1.4603e-05,0
0.9965,1.3092e-05,0
0.997,1.5946e-05,0
0.9975,2.0813e-05,0
0.998,2.266e-05,0
0.9985,2.1317e-05,0
0.999,1.9806e-05,0
0.9995,1.6281e-05,0
1,1.2924e-05,0
1.0005,1.6281e-05,0
1.001,2.2324e-05,0
1.0015,2.0981e-05,0
1.002,1.4939e-05,0
1.0025,5.2033e-06,0
1.003,5.035e-07,0
1.0035,1.0407e-05,0
1.004,1.4939e-05,0
1.0045,9.2317e-06,0
1.005,6.8818e-06,0
1.0055,3.5248e-06,0
1.006,5.035e-07,0
1.0065,5.0355e-06,0
1.007,8.5603e-06,0
1.0075,9.3996e-06,0
1.008,1.796e-05,0
1.0085,2.5849e-05,0
1.009,2.0981e-05,0
1.0095,1.5274e-05,0
1.01,2.031e-05,0
1.0105,2.6184e-05,0
1.011,2.6184e-05,0
1.0115,2.2156e-05,0
1.012,1.9974e-05,0
1.0125,1.9974e-05,0
1.013,1.9974e-05,0
1.0135,1.8631e-05,0
1.014,1.6953e-05,0
1.0145,1.5946e-05,0
1.015,2.1653e-05,0
1.0155,2.4674e-05,0
1.016,1.6617e-05,0
1.0165,1.7288e-05,0
1.017,2.1317e-05,0
1.0175,2.266e-05,0
1.018,2.6352e-05,0
1.0185,2.5345e-05,0
1.019,2.4338e-05,0
1.0195,2.8534e-05,0
1.02,3.1556e-05,0
1.0205,3.3906e-05,0
1.021,3.8102e-05,0
1.0215,4.0619e-05,0
1.022,4.2298e-05,0
1.0225,4.0619e-05,0
1.023,3.6423e-05,0
1.0235,3.4577e-05,0
1.024,3.6088e-05,0
1.0245,3.3738e-05,0
1.025,2.9709e-05,0
1.0255,2.6352e-05,0
1.026,2.1317e-05,0
1.0265,1.8463e-05,0
1.027,2.031e-05,0
1.0275,2.1149e-05,0
1.028,2.3163e-05,0
1.0285,1.8128e-05,0
1.029,9.2317e-06,0
1.0295,1.1414e-05,0
1.03,1.326e-05,0
1.0305,1.2924e-05,0
1.031,2.031e-05,0
1.0315,2.0478e-05,0
1.032,1.5106e-05,0
1.0325,1.8799e-05,0
1.033,1.9974e-05,0
1.0335,1.5946e-05,0
1.034,1.326e-05,0
1.0345,1.1749e-05,0
1.035,8.2246e-06,0
1.0355,8.3925e-06,0
1.036,1.1917e-05,0
1.0365,1.326e-05,0
1.037,1.2924e-05,0
1.0375,1.4267e-05,0
1.038,1.4267e-05,0
1.0385,1.2757e-05,0
1.039,1.4603e-05,0
1.0395,2.031e-05,0
1.04,2.4506e-05,0
1.0405,2.2995e-05,0
1.041,2.0646e-05,0
1.0415,1.9806e-05,0
1.042,1.9806e-05,0
1.0425,2.3835e-05,0
1.043,2.1149e-05,0
1.0435,1.3596e-05,0
1.044,1.5946e-05,0
1.0445,2.1149e-05,0
1.045,2.1988e-05,0
1.0455,2.2324e-05,0
1.046,1.9303e-05,0
1.0465,1.6617e-05,0
1.047,2.1653e-05,0
1.0475,2.4338e-05,0
1.048,2.3667e-05,0
1.0485,2.4002e-05,0
1.049,2.7192e-05,0
1.0495,3.1891e-05,0
1.05,3.6423e-05,0
1.0505,3.6927e-05,0
1.051,3.6927e-05,0
1.0515,3.7262e-05,0
1.052,3.1052e-05,0
1.0525,2.4002e-05,0
1.053,2.4002e-05,0
1.0535,2.2828e-05,0
1.054,2.031e-05,0
1.0545,1.5946e-05,0
1.055,9.7353e-06,0
1.0555,1.5274e-05,0
1.056,1.9135e-05,0
1.0565,1.7624e-05,0
1.057,2.4674e-05,0
1.0575,2.5849e-05,0
1.058,1.8296e-05,0
1.0585,1.4939e-05,0
1.059,7.5532e-06,0
1.0595,-1.3428e-06,0
1.06,-8.392e-07,0
1.0605,7.0497e-06,0
1.061,1.326e-05,0
1.0615,1.3764e-05,0
1.062,1.2421e-05,0
1.0625,1.2253e-05,0
1.063,1.1078e-05,0
1.0635,1.3932e-05,0
1.064,1.7121e-05,0
1.0645,1.4603e-05,0
1.065,1.1917e-05,0
1.0655,1.0239e-05,0
1.066,1.0239e-05,0
1.0665,9.2317e-06,0
1.067,1.326e-05,0
1.0675,1.5946e-05,0
1.068,1.4771e-05,0
1.0685,2.1317e-05,0
1.069,2.5513e-05,0
1.0695,2.4002e-05,0
1.07,2.2324e-05,0
1.0705,1.6953e-05,0
1.071,1.1246e-05,0
1.0715,1.326e-05,0
1.072,1.326e-05,0
1.0725,1.2589e-05,0
1.073,1.796e-05,0
1.0735,2.1988e-05,0
1.074,2.2995e-05,0
1.0745,2.1317e-05,0
1.075,2.1317e-05,0
1.0755,2.3499e-05,0
1.076,2.0981e-05,0
1.0765,1.7792e-05,0
1.077,1.9638e-05,0
1.0775,2.2492e-05,0
1.078,2.4338e-05,0
1.0785,2.5345e-05,0
1.079,2.4506e-05,0
1.0795,2.0981e-05,0
1.08,2.2156e-05,0
1.0805,2.4002e-05,0
1.081,2.3331e-05,0
1.0815,2.9206e-05,0
1.082,3.1891e-05,0
1.0825,3.1052e-05,0
1.083,3.743e-05,0
1.0835,3.6927e-05,0
1.084,2.9374e-05,0
1.0845,3.1891e-05,0
1.085,3.3066e-05,0
1.0855,2.6017e-05,0
1.086,2.6017e-05,0
1.0865,3.2563e-05,0
1.087,3.6591e-05,0
1.0875,3.1724e-05,0
1.088,2.3331e-05,0
1.0885,2.1149e-05,0
1.089,2.1149e-05,0
1.0895,2.1317e-05,0
1.09,2.3163e-05,0
1.0905,2.4002e-05,0
1.091,2.1317e-05,0
1.0915,1.7288e-05,0
1.092,1.0575e-05,0
1.0925,4.6998e-06,0
1.093,7.2175e-06,0
1.0935,5.2033e-06,0
1.094,2.182e-06,0
1.0945,9.2317e-06,0
1.095,1.4267e-05,0
1.0955,1.6617e-05,0
1.096,2.4842e-05,0
1.0965,2.4674e-05,0
1.097,2.031e-05,0
1.0975,2.5345e-05,0
1.098,2.8367e-05,0
1.0985,2.8702e-05,0
1.099,3.122e-05,0
1.0995,3.4745e-05,0
1.1,3.5248e-05,0
1.1005,3.1556e-05,0
1.101,2.652e-05,0
1.1015,2.2324e-05,0
1.102,1.9974e-05,0
1.1025,2.0813e-05,0
1.103,2.182e-05,0
1.1035,2.1988e-05,0
1.104,2.4002e-05,0
1.1045,2.7192e-05,0
1.105,2.6352e-05,0
1.1055,2.1988e-05,0
1.106,1.9974e-05,0
1.1065,1.3764e-05,0
1.107,3.6927e-06,0
1.1075,5.8747e-06,0
1.108,1.1582e-05,0
1.1085,1.1582e-05,0
1.109,1.8296e-05,0
1.1095,1.9303e-05,0
1.11,1.5442e-05,0
1.1105,1.9303e-05,0
1.111,2.2324e-05,0
1.1115,1.8296e-05,0
1.112,1.5946e-05,0
1.1125,1.4603e-05,0
1.113,1.3932e-05,0
1.1135,1.6617e-05,0
1.114,2.1149e-05,0
1.1145,2.1653e-05,0
1.115,1.6617e-05,0
1.1155,1.0239e-05,0
1.116,1.0239e-05,0
1.1165,1.5274e-05,0
1.117,1.796e-05,0
1.1175,1.561e-05,0
1.118,9.9031e-06,0
1.1185,4.8676e-06,0
1.119,8.5603e-06,0
1.1195,1.091e-05,0
1.12,9.2317e-06,0
1.1205,1.3596e-05,0
1.121,1.6617e-05,0
1.1215,1.4099e-05,0
1.122,1.2757e-05,0
1.1225,1.1246e-05,0
1.123,1.1749e-05,0
1.1235,1.7288e-05,0
1.124,1.6617e-05,0
1.1245,1.326e-05,0
1.125,2.1149e-05,0
1.1255,3.0381e-05,0
1.126,3.1388e-05,0
1.1265,2.2492e-05,0
1.127,1.3092e-05,0
1.1275,1.5946e-05,0
1.128,1.9806e-05,0
1.1285,1.5274e-05,0
1.129,7.5532e-06,0
1.1295,6.5461e-06,0
1.13,1.2253e-05,0
1.1305,1.6449e-05,0
1.131,1.4267e-05,0
1.1315,1.4603e-05,0
1.132,2.3331e-05,0
1.1325,2.9038e-05,0
1.133,2.6352e-05,0
1.1335,2.7695e-05,0
1.134,2.5009e-05,0
1.1345,2.0981e-05,0
1.135,2.7192e-05,0
1.1355,3.0884e-05,0
1.136,3.0045e-05,0
1.1365,3.0716e-05,0
1.137,2.3667e-05,0
1.1375,1.7792e-05,0
1.138,2.266e-05,0
1.1385,2.8031e-05,0
1.139,2.9038e-05,0
1.1395,2.6184e-05,0
1.14,1.947e-05,0
1.1405,1.4939e-05,0
1.141,1.2757e-05,0
1.1415,1.0407e-05,0
1.142,1.2253e-05,0
1.1425,1.561e-05,0
1.143,1.7121e-05,0
1.1435,1.8799e-05,0
1.144,2.2324e-05,0
1.1445,2.2324e-05,0
1.145,1.6953e-05,0
1.1455,1.3596e-05,0
1.146,1.4603e-05,0
1.1465,2.5345e-05,0
1.147,3.0716e-05,0
1.1475,2.7024e-05,0
1.148,2.7359e-05,0
1.1485,2.2492e-05,0
1.149,1.9303e-05,0
1.1495,2.5345e-05,0
1.15,2.8031e-05,0
1.1505,3.0045e-05,0
1.151,3.4409e-05,0
1.1515,3.3402e-05,0
1.152,3.1388e-05,0
1.1525,3.0716e-05,0
1.153,2.9374e-05,0
1.1535,2.9206e-05,0
1.154,2.7359e-05,0
1.1545,2.3331e-05,0
1.155,2.2324e-05,0
1.1555,2.3667e-05,0
1.156,2.2324e-05,0
1.1565,2.182e-05,0
1.157,2.1317e-05,0
1.1575,1.8799e-05,0
1.158,1.7624e-05,0
1.1585,1.3596e-05,0
1.159,7.0497e-06,0
1.1595,9.3996e-06,0
1.16,9.3996e-06,0
1.1605,3.1891e-06,0
1.161,5.8747e-06,0
1.1615,9.2317e-06,0
1.162,7.8889e-06,0
1.1625,1.1917e-05,0
1.163,1.1078e-05,0
1.1635,1.0575e-05,0
1.164,1.8463e-05,0
1.1645,2.1317e-05,0
1.165,1.8463e-05,0
1.1655,1.4603e-05,0
1.166,1.5274e-05,0
1.1665,1.796e-05,0
1.167,1.7792e-05,0
1.1675,1.4939e-05,0
1.168,1.1917e-05,0
1.1685,1.3764e-05,0
1.169,2.031e-05,0
1.1695,2.8702e-05,0
1.17,3.1388e-05,0
1.1705,2.4002e-05,0
1.171,1.6281e-05,0
1.1715,1.2253e-05,0
1.172,9.5674e-06,0
1.1725,1.7456e-05,0
1.173,1.9974e-05,0
1.1735,1.1749e-05,0
1.174,1.0575e-05,0
1.1745,1.1582e-05,0
1.175,1.2589e-05,0
1.1755,1.9806e-05,0
1.176,2.1317e-05,0
1.1765,1.7624e-05,0
1.177,2.0981e-05,0
1.1775,2.7024e-05,0
1.178,2.8367e-05,0
1.1785,2.8534e-05,0
1.179,3.0045e-05,0
1.1795,3.2395e-05,0
1.18,3.3402e-05,0
1.1805,3.122e-05,0
1.181,2.9038e-05,0
1.1815,2.6688e-05,0
1.182,2.3331e-05,0
1.1825,2.2156e-05,0
1.183,2.1317e-05,0
1.1835,1.6617e-05,0
1.184,1.6617e-05,0
1.1845,1.561e-05,0
1.185,1.326e-05,0
1.1855,1.7288e-05,0
1.186,1.6617e-05,0
1.1865,1.5946e-05,0
1.187,2.266e-05,0
1.1875,1.9806e-05,0
1.188,9.9031e-06,0
1.1885,9.2317e-06,0
1.189,8.896e-06,0
1.1895,5.7069e-06,0
1.19,7.7211e-06,0
1.1905,1.0575e-05,0
1.191,1.1246e-05,0
1.1915,1.3092e-05,0
1.192,1.6617e-05,0
1.1925,1.7456e-05,0
1.193,1.6953e-05,0
1.1935,1.6785e-05,0
1.194,1.9638e-05,0
1.1945,2.0142e-05,0
1.195,1.8463e-05,0
1.1955,1.796e-05,0
1.196,1.8296e-05,0
1.1965,1.7456e-05,0
1.197,1.561e-05,0
1.1975,1.3428e-05,0
1.198,1.3092e-05,0
1.1985,2.3499e-05,0
1.199,2.9038e-05,0
1.1995,2.4674e-05,0
1.2,2.9374e-05,0
1.2005,3.2395e-05,0
1.201,3.0381e-05,0
1.2015,3.2059e-05,0
1.202,2.9038e-05,0
1.2025,1.9135e-05,0
1.203,1.561e-05,0
1.2035,2.1317e-05,0
1.204,2.6352e-05,0
1.2045,2.8031e-05,0
1.205,2.5345e-05,0
1.2055,2.1653e-05,0
1.206,1.6281e-05,0
1.2065,1.4267e-05,0
1.207,1.4099e-05,0
1.2075,1.3932e-05,0
1.208,1.3092e-05,0
1.2085,1.5274e-05,0
1.209,2.3331e-05,0
1.2095,2.7863e-05,0
1.21,2.6352e-05,0
1.2105,2.4338e-05,0
1.211,2.4506e-05,0
1.2115,3.2898e-05,0
1.212,3.3906e-05,0
1.2125,2.8702e-05,0
1.213,3.1388e-05,0
1.2135,3.1052e-05,0
1.214,2.7359e-05,0
1.2145,2.6352e-05,0
1.215,1.796e-05,0
1.2155,9.0639e-06,0
1.216,1.2757e-05,0
1.2165,2.031e-05,0
1.217,2.1653e-05,0
1.2175,1.9638e-05,0
1.218,1.7624e-05,0
1.2185,1.8296e-05,0
1.219,1.9974e-05,0
1.2195,2.031e-05,0
1.22,1.9303e-05,0
1.2205,1.6617e-05,0
1.221,1.4603e-05,0
1.2215,1.6114e-05,0
1.222,1.8463e-05,0
1.2225,1.8631e-05,0
1.223,1.947e-05,0
1.2235,1.7288e-05,0
1.224,1.796e-05,0
1.2245,2.9038e-05,0
1.225,2.7359e-05,0
1.2255,1.8296e-05,0
1.226,1.947e-05,0
1.2265,2.3667e-05,0
1.227,2.7359e-05,0
1.2275,3.2731e-05,0
1.228,3.0884e-05,0
1.2285,2.8534e-05,0
1.229,3.2731e-05,0
1.2295,3.6088e-05,0
1.23,3.4577e-05,0
1.2305,3.2059e-05,0
1.231,3.1556e-05,0
1.2315,2.6688e-05,0
1.232,2.031e-05,0
1.2325,1.6281e-05,0
1.233,1.6281e-05,0
1.2335,1.9638e-05,0
1.234,2.2156e-05,0
1.2345,2.0646e-05,0
1.235,1.1246e-05,0
1.2355,1.1749e-06,0
1.236,2.5177e-06,0
1.2365,2.3499e-06,0
1.237,-6.5461e-06,0
1.2375,-8.2246e-06,0
1.238,-7.2175e-06,0
1.2385,-7.2175e-06,0
1.239,-8.392e-07,0
1.2395,6.5461e-06,0
1.24,1.1917e-05,0
1.2405,2.0646e-05,0
1.241,2.031e-05,0
1.2415,1.6617e-05,0
1.242,2.3163e-05,0
1.2425,3.2731e-05,0
1.243,3.743e-05,0
1.2435,3.7934e-05,0
1.244,3.5416e-05,0
1.2445,3.2059e-05,0
1.245,2.6352e-05,0
1.2455,2.4338e-05,0
1.246,2.3499e-05,0
1.2465,2.1988e-05,0
1.247,2.4674e-05,0
1.2475,2.6017e-05,0
1.248,2.0981e-05,0
1.2485,1.3596e-05,0
1.249,1.2924e-05,0
1.2495,1.3596e-05,0
1.25,6.5461e-06,0
1.2505,5.539e-06,0
1.251,9.2317e-06,0
1.2515,9.5674e-06,0
1.252,1.2421e-05,0
1.2525,1.4435e-05,0
1.253,1.6953e-05,0
1.2535,2.3667e-05,0
1.254,2.2995e-05,0
1.2545,2.3835e-05,0
1.255,3.3738e-05,0
1.2555,3.9277e-05,0
1.256,3.743e-05,0
1.2565,3.6088e-05,0
1.257,3.743e-05,0
1.2575,3.3402e-05,0
1.258,3.0045e-05,0
1.2585,3.1052e-05,0
1.259,3.1891e-05,0
1.2595,3.0213e-05,0
1.26,2.3835e-05,0
1.2605,1.4435e-05,0
1.261,8.3925e-06,0
1.2615,7.0497e-06,0
1.262,7.2175e-06,0
1.2625,2.5177e-06,0
1.263,-2.8534e-06,0
1.2635,5.7069e-06,0
1.264,1.5274e-05,0
1.2645,1.7288e-05,0
1.265,2.1317e-05,0
1.2655,2.0142e-05,0
1.266,1.4267e-05,0
1.2665,1.4939e-05,0
1.267,1.4939e-05,0
1.2675,1.2924e-05,0
1.268,1.4603e-05,0
1.2685,1.8128e-05,0
1.269,1.9638e-05,0
1.2695,1.9638e-05,0
1.27,1.6449e-05,0
1.2705,1.561e-05,0
1.271,2.031e-05,0
1.2715,2.0646e-05,0
1.272,1.6617e-05,0
1.2725,1.6617e-05,0
1.273,1.9638e-05,0
1.2735,2.2156e-05,0
1.274,2.3667e-05,0
1.2745,2.4842e-05,0
1.275,3.0045e-05,0
1.2755,3.0716e-05,0
1.276,2.7359e-05,0
1.2765,2.7695e-05,0
1.277,2.5681e-05,0
1.2775,2.2492e-05,0
1.278,2.417e-05,0
1.2785,2.2995e-05,0
1.279,2.0142e-05,0
1.2795,2.3163e-05,0
1.28,2.266e-05,0
1.2805,2.0646e-05,0
1.281,2.2324e-05,0
1.2815,2.1988e-05,0
1.282,1.947e-05,0
1.2825,1.6617e-05,0
1.283,1.5778e-05,0
1.2835,1.8296e-05,0
1.284,2.1317e-05,0
1.2845,1.8463e-05,0
1.285,8.896e-06,0
1.2855,3.0213e-06,0
1.286,1.5106e-06,0
1.2865,1.1749e-06,0
1.287,4.8676e-06,0
1.2875,9.0639e-06,0
1.288,1.1582e-05,0
1.2885,9.0639e-06,0
1.289,6.8818e-06,0
1.2895,1.5106e-05,0
1.29,2.0646e-05,0
1.2905,2.1653e-05,0
1.291,2.8702e-05,0
1.2915,3.2563e-05,0
1.292,3.4577e-05,0
1.2925,3.978e-05,0
1.293,3.7095e-05,0
1.2935,3.2731e-05,0
1.294,3.827e-05,0
1.2945,4.2802e-05,0
1.295,3.8773e-05,0
1.2955,3.1724e-05,0
1.296,2.182e-05,0
1.2965,1.326e-05,0
1.297,1.0575e-05,0
1.2975,9.2317e-06,0
1.298,5.2033e-06,0
1.2985,2.5177e-06,0
1.299,2.6856e-06,0
1.2995,1.8463e-06,0
1.3,7.3854e-06,0
1.3005,1.3596e-05,0
1.301,1.5946e-05,0
1.3015,1.3596e-05,0
1.302,1.0575e-05,0
1.3025,1.4603e-05,0
1.303,1.4771e-05,0
1.3035,1.4603e-05,0
1.304,2.3331e-05,0
1.3045,2.6688e-05,0
1.305,2.5849e-05,0
1.3055,2.9374e-05,0
1.306,3.1052e-05,0
1.3065,3.1052e-05,0
1.307,3.3402e-05,0
1.3075,3.6255e-05,0
1.308,3.7095e-05,0
1.3085,3.5248e-05,0
1.309,3.2563e-05,0
1.3095,3.0381e-05,0
1.31,2.9374e-05,0
1.3105,2.9038e-05,0
1.311,2.8367e-05,0
1.3115,2.7024e-05,0
1.312,2.2324e-05,0
1.3125,2.2324e-05,0
1.313,2.3667e-05,0
1.3135,2.031e-05,0
1.314,2.0646e-05,0
1.3145,2.0142e-05,0
1.315,1.3092e-05,0
1.3155,1.2589e-05,0
1.316,1.091e-05,0
1.3165,6.5461e-06,0
1.317,1.0071e-05,0
1.3175,1.326e-05,0
1.318,1.3596e-05,0
1.3185,1.5946e-05,0
1.319,1.3764e-05,0
1.3195,1.0575e-05,0
1.32,1.7624e-05,0
1.3205,2.8702e-05,0
1.321,3.5416e-05,0
1.3215,3.6088e-05,0
1.322,3.2731e-05,0
1.3225,2.7527e-05,0
1.323,2.1317e-05,0
1.3235,1.7624e-05,0
1.324,1.9806e-05,0
1.3245,2.1149e-05,0
1.325,2.182e-05,0
1.3255,2.4338e-05,0
1.326,2.3331e-05,0
1.3265,1.8296e-05,0
1.327,1.6617e-05,0
1.3275,1.4435e-05,0
1.328,9.2317e-06,0
1.3285,1.2924e-05,0
1.329,1.561e-05,0
1.3295,1.5274e-05,0
1.33,1.9974e-05,0
1.3305,1.8967e-05,0
1.331,1.2924e-05,0
1.3315,1.6617e-05,0
1.332,1.8296e-05,0
1.3325,1.1917e-05,0
1.333,1.091e-05,0
1.3335,1.5946e-05,0
1.334,2.1317e-05,0
1.3345,2.2492e-05,0
1.335,2.1988e-05,0
1.3355,2.5345e-05,0
1.336,2.9374e-05,0
1.3365,2.4842e-05,0
1.337,1.9303e-05,0
1.3375,1.8631e-05,0
1.338,2.1653e-05,0
1.3385,2.2324e-05,0
1.339,2.0981e-05,0
1.3395,1.8463e-05,0
1.34,1.8967e-05,0
1.3405,2.2492e-05,0
1.341,2.3667e-05,0
1.3415,2.8534e-05,0
1.342,2.8702e-05,0
1.3425,2.1317e-05,0
1.343,1.8631e-05,0
1.3435,1.5946e-05,0
1.344,1.326e-05,0
1.3445,1.5778e-05,0
1.345,1.1582e-05,0
1.3455,7.3854e-06,0
1.346,1.3596e-05,0
1.3465,1.8631e-05,0
1.347,2.0478e-05,0
1.3475,1.8296e-05,0
1.348,9.2317e-06,0
1.3485,-5.035e-07,0
1.349,-7.5532e-06,0
1.3495,-8.896e-06,0
1.35,-6.714e-06,0
1.3505,-2.8534e-06,0
1.351,-1.5106e-06,0
1.3515,0,0
1.352,5.2033e-06,0
1.3525,8.7282e-06,0
1.353,1.5106e-05,0
1.3535,1.8967e-05,0
1.354,1.7456e-05,0
1.3545,2.2324e-05,0
1.355,2.6017e-05,0
1.3555,2.5345e-05,0
1.356,2.6688e-05,0
1.3565,2.3331e-05,0
1.357,2.1317e-05,0
1.3575,3.1724e-05,0
1.358,3.5416e-05,0
1.3585,3.0045e-05,0
1.359,2.6688e-05,0
1.3595,2.5849e-05,0
1.36,2.5849e-05,0
1.3605,3.0381e-05,0
1.361,3.4745e-05,0
1.3615,3.6088e-05,0
1.362,3.4409e-05,0
1.3625,3.3066e-05,0
1.363,3.2059e-05,0
1.3635,3.1556e-05,0
1.364,3.0716e-05,0
1.3645,2.6688e-05,0
1.365,2.7359e-05,0
1.3655,2.8534e-05,0
1.366,3.0549e-05,0
1.3665,2.8367e-05,0
1.367,2.031e-05,0
1.3675,2.1653e-05,0
1.368,2.6688e-05,0
1.3685,2.6688e-05,0
1.369,2.6352e-05,0
1.3695,2.1317e-05,0
1.37,1.8128e-05,0
1.3705,2.2324e-05,0
1.371,2.1988e-05,0
1.3715,2.266e-05,0
1.372,3.1556e-05,0
1.3725,3.4073e-05,0
1.373,2.5177e-05,0
1.3735,1.9974e-05,0
1.374,2.3331e-05,0
1.3745,2.7359e-05,0
1.375,2.9374e-05,0
1.3755,2.8031e-05,0
1.376,2.4002e-05,0
1.3765,2.1317e-05,0
1.377,2.031e-05,0
1.3775,1.8631e-05,0
1.378,1.4603e-05,0
1.3785,7.3854e-06,0
1.379,5.539e-06,0
1.3795,5.539e-06,0
1.38,6.2104e-06,0
1.3805,1.4267e-05,0
1.381,1.561e-05,0
1.3815,7.8889e-06,0
1.382,5.2033e-06,0
1.3825,4.3641e-06,0
1.383,1.6785e-06,0
1.3835,2.5177e-06,0
1.384,-5.035e-07,0
1.3845,-2.182e-06,0
1.385,5.2033e-06,0
1.3855,1.3932e-05,0
1.386,1.9303e-05,0
1.3865,1.6449e-05,0
1.387,9.0639e-06,0
1.3875,5.8747e-06,0
1.388,9.0639e-06,0
1.3885,1.3932e-05,0
1.389,1.796e-05,0
1.3895,2.0646e-05,0
1.39,2.3163e-05,0
1.3905,2.5177e-05,0
1.391,2.4506e-05,0
1.3915,2.5009e-05,0
1.392,2.8534e-05,0
1.3925,2.5849e-05,0
1.393,2.1149e-05,0
1.3935,2.182e-05,0
1.394,1.9806e-05,0
1.3945,1.6953e-05,0
1.395,2.0981e-05,0
1.3955,2.1653e-05,0
1.396,2.1317e-05,0
1.3965,2.8031e-05,0
1.397,2.6688e-05,0
1.3975,2.3331e-05,0
1.398,2.5345e-05,0
1.3985,2.8367e-05,0
1.399,2.7024e-05,0
1.3995,2.182e-05,0
1.4,1.6617e-05,0
1.4005,1.1917e-05,0
1.401,1.1917e-05,0
1.4015,1.8296e-05,0
1.402,2.4674e-05,0
1.4025,2.8367e-05,0
1.403,3.0381e-05,0
1.4035,3.122e-05,0
1.404,2.9374e-05,0
1.4045,2.5513e-05,0
1.405,2.266e-05,0
1.4055,1.796e-05,0
1.406,9.7353e-06,0
1.4065,8.896e-06,0
1.407,8.7282e-06,0
1.4075,8.5603e-06,0
1.408,1.3932e-05,0
1.4085,1.3932e-05,0
1.409,1.2253e-05,0
1.4095,2.0646e-05,0
1.41,2.3163e-05,0
1.4105,1.7121e-05,0
1.411,1.6617e-05,0
1.4115,1.9303e-05,0
1.412,2.4002e-05,0
1.4125,3.0549e-05,0
1.413,2.9374e-05,0
1.4135,2.0478e-05,0
1.414,1.6785e-05,0
1.4145,1.7288e-05,0
1.415,1.4603e-05,0
1.4155,1.326e-05,0
1.416,1.561e-05,0
1.4165,1.326e-05,0
1.417,1.0239e-05,0
1.4175,1.1246e-05,0
1.418,1.7288e-05,0
1.4185,1.9638e-05,0
1.419,1.5946e-05,0
1.4195,2.1317e-05,0
1.42,2.1317e-05,0
1.4205,1.6953e-05,0
1.421,2.5345e-05,0
1.4215,3.1556e-05,0
1.422,3.0549e-05,0
1.4225,3.508e-05,0
1.423,3.3906e-05,0
1.4235,3.1052e-05,0
1.424,4.0116e-05,0
1.4245,4.9515e-05,0
1.425,4.9515e-05,0
1.4255,4.7669e-05,0
1.426,4.6998e-05,0
1.4265,4.3809e-05,0
1.427,3.6088e-05,0
1.4275,3.0884e-05,0
1.428,2.8031e-05,0
1.4285,2.2156e-05,0
1.429,1.5106e-05,0
1.4295,1.3092e-05,0
1.43,1.2924e-05,0
1.4305,1.1582e-05,0
1.431,1.091e-05,0
1.4315,9.7353e-06,0
1.432,2.5177e-06,0
1.4325,3.1891e-06,0
1.433,5.2033e-06,0
1.4335,7.3854e-06,0
1.434,1.0407e-05,0
1.4345,4.5319e-06,0
1.435,1.678e-07,0
1.4355,6.8818e-06,0
1.436,6.2104e-06,0
1.4365,1.1749e-06,0
1.437,5.2033e-06,0
1.4375,1.6617e-05,0
1.438,2.4002e-05,0
1.4385,2.5345e-05,0
1.439,2.4002e-05,0
1.4395,2.7024e-05,0
1.44,3.2731e-05,0
1.4405,3.743e-05,0
1.441,3.8773e-05,0
1.4415,3.6423e-05,0
1.442,3.1891e-05,0
1.4425,2.6017e-05,0
1.443,1.8463e-05,0
1.4435,1.1749e-05,0
1.444,1.1078e-05,0
1.4445,1.0239e-05,0
1.445,5.2033e-06,0
1.4455,4.8676e-06,0
1.446,5.539e-06,0
1.4465,2.5177e-06,0
1.447,3.5248e-06,0
1.4475,-5.035e-07,0
1.448,-8.2246e-06,0
1.4485,-7.0497e-06,0
1.449,-6.0426e-06,0
1.4495,-6.3783e-06,0
1.45,-1.3428e-06,0
1.4505,6.5461e-06,0
1.451,1.091e-05,0
1.4515,1.2253e-05,0
1.452,1.4267e-05,0
1.4525,1.8631e-05,0
1.453,2.3835e-05,0
1.4535,2.6017e-05,0
1.454,2.6688e-05,0
1.4545,2.8702e-05,0
1.455,2.9206e-05,0
1.4555,3.2059e-05,0
1.456,3.5752e-05,0
1.4565,3.2395e-05,0
1.457,2.8031e-05,0
1.4575,2.5681e-05,0
1.458,2.3667e-05,0
1.4585,2.6352e-05,0
1.459,2.5345e-05,0
1.4595,2.2492e-05,0
1.46,2.8534e-05,0
1.4605,2.9206e-05,0
1.461,2.3667e-05,0
1.4615,2.4674e-05,0
1.462,2.4002e-05,0
1.4625,1.8631e-05,0
1.463,2.4506e-05,0
1.4635,3.6423e-05,0
1.464,4.1459e-05,0
1.4645,3.8773e-05,0
1.465,3.6759e-05,0
1.4655,3.6423e-05,0
1.466,3.5248e-05,0
1.4665,3.5248e-05,0
1.467,3.7095e-05,0
1.4675,3.6927e-05,0
1.468,3.2059e-05,0
1.4685,2.7359e-05,0
1.469,2.4002e-05,0
1.4695,1.9303e-05,0
1.47,1.9303e-05,0
1.4705,1.7121e-05,0
1.471,9.9031e-06,0
1.4715,1.0239e-05,0
1.472,8.896e-06,0
1.4725,4.6998e-06,0
1.473,8.5603e-06,0
1.4735,5.2033e-06,0
1.474,-5.035e-07,0
1.4745,6.3783e-06,0
1.475,9.9031e-06,0
1.4755,8.7282e-06,0
1.476,1.5778e-05,0
1.4765,2.5681e-05,0
1.477,2.7359e-05,0
1.4775,2.4842e-05,0
1.478,1.9135e-05,0
1.4785,1.3428e-05,0
1.479,1.8296e-05,0
1.4795,2.6688e-05,0
1.48,3.2059e-05,0
1.4805,3.1052e-05,0
1.481,2.9206e-05,0
1.4815,3.0716e-05,0
1.482,2.9374e-05,0
1.4825,2.4674e-05,0
1.483,2.2995e-05,0
1.4835,2.1317e-05,0
1.484,2.1317e-05,0
1.4845,2.8702e-05,0
1.485,2.6352e-05,0
1.4855,1.8631e-05,0
1.486,2.1988e-05,0
1.4865,2.4002e-05,0
1.487,1.8967e-05,0
1.4875,1.9638e-05,0
1.488,1.9303e-05,0
1.4885,1.9135e-05,0
1.489,2.5849e-05,0
1.4895,3.4073e-05,0
1.49,3.6423e-05,0
1.4905,3.4241e-05,0
1.491,3.2059e-05,0
1.4915,2.4674e-05,0
1.492,1.796e-05,0
1.4925,1.8128e-05,0
1.493,1.9974e-05,0
1.4935,2.3835e-05,0
1.494,2.9206e-05,0
1.4945,3.1891e-05,0
1.495,2.6688e-05,0
1.4955,1.9638e-05,0
1.496,1.5778e-05,0
1.4965,1.091e-05,0
1.497,9.7353e-06,0
1.4975,1.8463e-05,0
1.498,2.1317e-05,0
1.4985,1.9806e-05,0
1.499,2.3331e-05,0
1.4995,2.1988e-05,0
1.5,1.947e-05,0
1.5005,2.2324e-05,0
1.501,2.0646e-05,0
1.5015,1.6617e-05,0
1.502,1.8296e-05,0
1.5025,1.8631e-05,0
1.503,1.091e-05,0
1.5035,3.5248e-06,0
1.504,1.1749e-06,0
1.5045,1.1749e-06,0
1.505,-8.392e-07,0
1.5055,1.5106e-06,0
1.506,8.896e-06,0
1.5065,1.4267e-05,0
1.507,1.4267e-05,0
1.5075,1.2421e-05,0
1.508,9.7353e-06,0
1.5085,1.0071e-06,0
1.509,-3.1891e-06,0
1.5095,1.678e-07,0
1.51,3.1891e-06,0
1.5105,8.5603e-06,0
1.511,1.0239e-05,0
1.5115,6.2104e-06,0
1.512,6.714e-06,0
1.5125,7.8889e-06,0
1.513,6.3783e-06,0
1.5135,1.4603e-05,0
1.514,1.9974e-05,0
1.5145,1.9638e-05,0
1.515,2.1653e-05,0
1.5155,2.266e-05,0
1.516,2.5345e-05,0
1.5165,2.1653e-05,0
1.517,1.4603e-05,0
1.5175,1.3932e-05,0
1.518,1.8631e-05,0
1.5185,2.4842e-05,0
1.519,2.887e-05,0
1.5195,3.0213e-05,0
1.52,2.9038e-05,0
1.5205,3.0045e-05,0
1.521,3.1556e-05,0
1.5215,2.9374e-05,0
1.522,2.6688e-05,0
1.5225,1.8799e-05,0
1.523,1.0575e-05,0
1.5235,1.8296e-05,0
1.524,2.7695e-05,0
1.5245,2.9877e-05,0
1.525,3.4241e-05,0
1.5255,3.3234e-05,0
1.526,2.8702e-05,0
1.5265,2.887e-05,0
1.527,2.3331e-05,0
1.5275,2.031e-05,0
1.528,2.5681e-05,0
1.5285,2.8367e-05,0
1.529,2.5345e-05,0
1.5295,2.182e-05,0
1.53,2.3667e-05,0
1.5305,2.6184e-05,0
1.531,2.3667e-05,0
1.5315,2.0813e-05,0
1.532,2.4338e-05,0
1.5325,2.5009e-05,0
1.533,2.3835e-05,0
1.5335,2.7695e-05,0
1.534,3.2059e-05,0
1.5345,3.4073e-05,0
1.535,3.3906e-05,0
1.5355,2.9038e-05,0
1.536,2.2995e-05,0
1.5365,2.6017e-05,0
1.537,2.4842e-05,0
1.5375,2.0142e-05,0
1.538,2.8031e-05,0
1.5385,3.1388e-05,0
1.539,2.2156e-05,0
1.5395,1.796e-05,0
1.54,1.1749e-05,0
1.5405,1.8463e-06,0
1.541,-1.1749e-06,0
1.5415,-1.1749e-06,0
1.542,4.8676e-06,0
1.5425,1.0575e-05,0
1.543,1.4267e-05,0
1.5435,1.326e-05,0
1.544,9.9031e-06,0
1.5445,7.8889e-06,0
1.545,9.5674e-06,0
1.5455,1.2253e-05,0
1.546,1.326e-05,0
1.5465,1.0575e-05,0
1.547,7.5532e-06,0
1.5475,8.896e-06,0
1.548,1.4771e-05,0
1.5485,1.2589e-05,0
1.549,5.539e-06,0
1.5495,1.091e-05,0
1.55,1.8463e-05,0
1.5505,1.6114e-05,0
1.551,1.2421e-05,0
1.5515,8.3925e-06,0
1.552,8.896e-06,0
1.5525,1.6785e-05,0
1.553,1.9974e-05,0
1.5535,2.1317e-05,0
1.554,2.6017e-05,0
1.5545,2.8702e-05,0
1.555,2.6017e-05,0
1.5555,2.3835e-05,0
1.556,2.4674e-05,0
1.5565,2.6017e-05,0
1.557,2.5681e-05,0
1.5575,2.3331e-05,0
1.558,1.7624e-05,0
1.5585,1.5946e-05,0
1.559,1.8128e-05,0
1.5595,2.0478e-05,0
1.56,2.3835e-05,0
1.5605,2.031e-05,0
1.561,1.8296e-05,0
1.5615,1.8967e-05,0
1.562,1.8631e-05,0
1.5625,2.6688e-05,0
1.563,2.7192e-05,0
1.5635,1.8631e-05,0
1.564,1.9135e-05,0
1.5645,2.3667e-05,0
1.565,2.9374e-05,0
1.5655,3.8773e-05,0
1.566,3.4073e-05,0
1.5665,2.3835e-05,0
1.567,2.3331e-05,0
1.5675,2.6184e-05,0
1.568,2.7695e-05,0
1.5685,2.5177e-05,0
1.569,2.1317e-05,0
1.5695,1.8296e-05,0
1.57,1.4939e-05,0
1.5705,1.6953e-05,0
1.571,2.2995e-05,0
1.5715,2.6017e-05,0
1.572,2.8367e-05,0
1.5725,2.6352e-05,0
1.573,1.6449e-05,0
1.5735,9.2317e-06,0
1.574,1.2421e-05,0
1.5745,1.1749e-05,0
1.575,6.714e-06,0
1.5755,1.2924e-05,0
1.576,2.0646e-05,0
1.5765,2.4338e-05,0
1.577,3.2059e-05,0
1.5775,3.4241e-05,0
1.578,3.0716e-05,0
1.5785,3.8102e-05,0
1.579,4.6326e-05,0
1.5795,4.7669e-05,0
1.58,5.0523e-05,0
1.5805,5.623e-05,0
1.581,5.7908e-05,0
1.5815,5.1362e-05,0
1.582,4.3977e-05,0
1.5825,3.743e-05,0
1.583,3.1052e-05,0
1.5835,2.3331e-05,0
1.584,1.3932e-05,0
1.5845,8.3925e-06,0
1.585,6.8818e-06,0
1.5855,6.5461e-06,0
1.586,1.1749e-06,0
1.5865,-6.5461e-06,0
1.587,-7.8889e-06,0
1.5875,-9.5674e-06,0
1.588,-1.5778e-05,0
1.5885,-1.2253e-05,0
1.589,-5.8747e-06,0
1.5895,-5.3712e-06,0
1.59,-2.182e-06,0
1.5905,-1.3428e-06,0
1.591,-4.1962e-06,0
1.5915,-1.0071e-06,0
1.592,-1.8463e-06,0
1.5925,-4.3641e-06,0
1.593,1.6785e-06,0
1.5935,7.8889e-06,0
1.594,1.0575e-05,0
1.5945,1.5946e-05,0
1.595,2.266e-05,0
1.5955,2.6017e-05,0
1.596,2.6688e-05,0
1.5965,2.5177e-05,0
1.597,2.2995e-05,0
1.5975,2.3667e-05,0
1.598,2.5345e-05,0
1.5985,2.6352e-05,0
1.599,2.9206e-05,0
1.5995,3.3066e-05,0
1.6,3.4409e-05,0
1.6005,3.0381e-05,0
1.601,2.5513e-05,0
1.6015,2.8031e-05,0
1.602,2.6184e-05,0
1.6025,2.266e-05,0
1.603,2.887e-05,0
1.6035,3.0549e-05,0
1.604,2.7359e-05,0
1.6045,2.4674e-05,0
1.605,1.9303e-05,0
1.6055,1.6617e-05,0
1.606,2.5345e-05,0
1.6065,3.2059e-05,0
1.607,3.0381e-05,0
1.6075,2.9709e-05,0
1.608,3.4577e-05,0
1.6085,3.6759e-05,0
1.609,3.2731e-05,0
1.6095,2.5849e-05,0
1.61,1.947e-05,0
1.6105,1.5778e-05,0
1.611,1.7624e-05,0
1.6115,2.3667e-05,0
1.612,2.9038e-05,0
1.6125,2.9374e-05,0
1.613,2.8031e-05,0
1.6135,2.5345e-05,0
1.614,2.266e-05,0
1.6145,2.7359e-05,0
1.615,2.887e-05,0
1.6155,2.8031e-05,0
1.616,3.1724e-05,0
1.6165,2.9877e-05,0
1.617,2.3667e-05,0
1.6175,2.2324e-05,0
1.618,1.9974e-05,0
1.6185,1.6953e-05,0
1.619,2.2995e-05,0
1.6195,2.5513e-05,0
1.62,1.9638e-05,0
1.6205,1.8631e-05,0
1.621,2.0646e-05,0
1.6215,2.2492e-05,0
1.622,2.4002e-05,0
1.6225,2.1653e-05,0
1.623,1.4939e-05,0
1.6235,1.0407e-05,0
1.624,1.0575e-05,0
1.6245,1.1582e-05,0
1.625,1.5778e-05,0
1.6255,1.8296e-05,0
1.626,1.6617e-05,0
1.6265,7.5532e-06,0
1.627,1.1749e-06,0
1.6275,1.1246e-05,0
1.628,1.7121e-05,0
1.6285,1.6953e-05,0
1.629,2.266e-05,0
1.6295,2.1149e-05,0
1.63,1.5946e-05,0
1.6305,2.266e-05,0
1.631,2.7863e-05,0
1.6315,2.5681e-05,0
1.632,2.7024e-05,0
1.6325,3.0716e-05,0
1.633,3.0716e-05,0
1.6335,3.2731e-05,0
1.634,3.0884e-05,0
1.6345,2.5177e-05,0
1.635,2.4002e-05,0
1.6355,2.4338e-05,0
1.636,2.182e-05,0
1.6365,2.0646e-05,0
1.637,2.266e-05,0
1.6375,2.3163e-05,0
1.638,2.0813e-05,0
1.6385,1.2421e-05,0
1.639,5.539e-06,0
1.6395,5.035e-07,0
1.64,-2.3499e-06,0
1.6405,5.8747e-06,0
1.641,8.3925e-06,0
1.6415,-5.035e-07,0
1.642,-4.8676e-06,0
1.6425,-5.7069e-06,0
1.643,-5.2033e-06,0
1.6435,2.5177e-06,0
1.644,3.6927e-06,0
1.6445,1.678e-07,0
1.645,5.8747e-06,0
1.6455,1.4603e-05,0
1.646,1.8296e-05,0
1.6465,1.8463e-05,0
1.647,2.182e-05,0
1.6475,2.7695e-05,0
1.648,2.9709e-05,0
1.6485,2.9709e-05,0
1.649,3.1891e-05,0
1.6495,3.592e-05,0
1.65,3.5752e-05,0
1.6505,3.0381e-05,0
1.651,3.0045e-05,0
1.6515,3.3402e-05,0
1.652,3.4409e-05,0
1.6525,2.7695e-05,0
1.653,1.9974e-05,0
1.6535,2.1988e-05,0
1.654,1.7792e-05,0
1.6545,7.8889e-06,0
1.655,6.3783e-06,0
1.6555,6.5461e-06,0
1.656,5.8747e-06,0
1.6565,1.1246e-05,0
1.657,9.9031e-06,0
1.6575,3.0213e-06,0
1.658,5.8747e-06,0
1.6585,1.4939e-05,0
1.659,1.8631e-05,0
1.6595,1.8631e-05,0
1.66,1.8799e-05,0
1.6605,1.9638e-05,0
1.661,2.1988e-05,0
1.6615,2.4674e-05,0
1.662,2.5681e-05,0
1.6625,2.3835e-05,0
1.663,2.2156e-05,0
1.6635,2.4338e-05,0
1.664,2.266e-05,0
1.6645,1.7792e-05,0
1.665,1.7792e-05,0
1.6655,1.7288e-05,0
1.666,1.561e-05,0
1.6665,2.1317e-05,0
1.667,2.2156e-05,0
1.6675,1.5946e-05,0
1.668,1.8296e-05,0
1.6685,2.031e-05,0
1.669,1.8631e-05,0
1.6695,2.5681e-05,0
1.67,3.2395e-05,0
1.6705,3.0045e-05,0
1.671,2.3331e-05,0
1.6715,2.1988e-05,0
1.672,2.7192e-05,0
1.6725,3.2059e-05,0
1.673,3.5248e-05,0
1.6735,3.508e-05,0
1.674,3.0716e-05,0
1.6745,2.4002e-05,0
1.675,1.9303e-05,0
1.6755,1.796e-05,0
1.676,2.031e-05,0
1.6765,2.2324e-05,0
1.677,1.8631e-05,0
1.6775,1.5106e-05,0
1.678,1.9638e-05,0
1.6785,1.9303e-05,0
1.679,9.2317e-06,0
1.6795,9.7353e-06,0
1.68,1.3764e-05,0
1.6805,1.326e-05,0
1.681,2.1653e-05,0
1.6815,2.652e-05,0
1.682,2.5009e-05,0
1.6825,2.6688e-05,0
1.683,2.4506e-05,0
1.6835,2.4674e-05,0
1.684,3.1052e-05,0
1.6845,3.7766e-05,0
1.685,3.827e-05,0
1.6855,3.6088e-05,0
1.686,3.3906e-05,0
1.6865,2.6688e-05,0
1.687,2.031e-05,0
1.6875,1.7456e-05,0
1.688,1.6617e-05,0
1.6885,1.6449e-05,0
1.689,1.2421e-05,0
1.6895,8.392e-07,0
1.69,-7.8889e-06,0
1.6905,-7.2175e-06,0
1.691,1.1749e-06,0
1.6915,7.2175e-06,0
1.692,8.5603e-06,0
1.6925,1.8967e-05,0
1.693,2.7359e-05,0
1.6935,2.3667e-05,0
1.694,2.266e-05,0
1.6945,2.266e-05,0
1.695,1.9974e-05,0
1.6955,2.1149e-05,0
1.696,1.6953e-05,0
1.6965,8.896e-06,0
1.697,1.0575e-05,0
1.6975,1.8631e-05,0
1.698,2.031e-05,0
1.6985,1.8631e-05,0
1.699,1.7288e-05,0
1.6995,1.5946e-05,0
1.7,1.9135e-05,0
1.7005,2.1988e-05,0
1.701,2.266e-05,0
1.7015,2.5009e-05,0
1.702,2.4674e-05,0
1.7025,2.2492e-05,0
1.703,2.031e-05,0
1.7035,1.5274e-05,0
1.704,1.5946e-05,0
1.7045,1.7792e-05,0
1.705,1.5778e-05,0
1.7055,2.182e-05,0
1.706,2.5681e-05,0
1.7065,2.6688e-05,0
1.707,3.0716e-05,0
1.7075,3.0045e-05,0
1.708,2.6184e-05,0
1.7085,3.2059e-05,0
1.709,3.592e-05,0
1.7095,3.122e-05,0
1.71,2.9374e-05,0
1.7105,3.4073e-05,0
1.711,3.508e-05,0
1.7115,3.2059e-05,0
1.712,3.2395e-05,0
1.7125,3.4409e-05,0
1.713,3.357e-05,0
1.7135,2.9709e-05,0
1.714,2.887e-05,0
1.7145,2.8031e-05,0
1.715,2.7863e-05,0
1.7155,2.652e-05,0
1.716,2.0813e-05,0
1.7165,1.1246e-05,0
1.717,7.8889e-06,0
1.7175,3.5248e-06,0
1.718,-1.5106e-06,0
1.7185,4.5319e-06,0
1.719,9.7353e-06,0
1.7195,1.326e-05,0
1.72,1.9974e-05,0
1.7205,1.561e-05,0
1.721,3.8605e-06,0
1.7215,1.6785e-06,0
1.722,3.1891e-06,0
1.7225,5.035e-07,0
1.723,2.5177e-06,0
1.7235,9.5674e-06,0
1.724,1.3092e-05,0
1.7245,1.1078e-05,0
1.725,8.896e-06,0
1.7255,1.1917e-05,0
1.726,1.8296e-05,0
1.7265,2.3667e-05,0
1.727,2.652e-05,0
1.7275,2.4674e-05,0
1.728,2.6017e-05,0
1.7285,3.0716e-05,0
1.729,3.0381e-05,0
1.7295,2.5345e-05,0
1.73,2.7359e-05,0
1.7305,3.1052e-05,0
1.731,2.9038e-05,0
1.7315,3.1052e-05,0
1.732,2.6017e-05,0
1.7325,1.8631e-05,0
1.733,2.2995e-05,0
1.7335,2.1149e-05,0
1.734,1.4267e-05,0
1.7345,1.7288e-05,0
1.735,2.031e-05,0
1.7355,2.0646e-05,0
1.736,2.5177e-05,0
1.7365,2.6184e-05,0
1.737,2.1988e-05,0
1.7375,1.8967e-05,0
1.738,1.5106e-05,0
1.7385,1.4435e-05,0
1.739,1.4603e-05,0
1.7395,1.1917e-05,0
1.74,1.3932e-05,0
1.7405,1.8296e-05,0
1.741,1.9303e-05,0
1.7415,1.7121e-05,0
1.742,1.6617e-05,0
1.7425,1.4099e-05,0
1.743,1.1078e-05,0
1.7435,1.0407e-05,0
1.744,1.0575e-05,0
1.7445,1.5946e-05,0
1.745,1.5442e-05,0
1.7455,8.896e-06,0
1.746,1.0575e-05,0
1.7465,1.2421e-05,0
1.747,1.1749e-05,0
1.7475,1.2589e-05,0
1.748,1.0575e-05,0
1.7485,1.0239e-05,0
1.749,1.9303e-05,0
1.7495,2.7695e-05,0
1.75,3.0213e-05,0
1.7505,3.3402e-05,0
1.751,3.7766e-05,0
1.7515,3.4241e-05,0
1.752,2.6688e-05,0
1.7525,2.4002e-05,0
1.753,2.3331e-05,0
1.7535,2.5177e-05,0
1.754,2.7863e-05,0
1.7545,2.6688e-05,0
1.755,2.2324e-05,0
1.7555,1.5274e-05,0
1.756,1.3596e-05,0
1.7565,7.0497e-06,0
1.757,-4.5319e-06,0
1.7575,-4.0284e-06,0
1.758,1.678e-07,0
1.7585,-5.035e-07,0
1.759,2.5177e-06,0
1.7595,5.2033e-06,0
1.76,8.896e-06,0
1.7605,1.9303e-05,0
1.761,1.8296e-05,0
1.7615,7.8889e-06,0
1.762,8.896e-06,0
1.7625,1.5274e-05,0
1.763,1.9638e-05,0
1.7635,2.4674e-05,0
1.764,3.1052e-05,0
1.7645,3.4745e-05,0
1.765,3.508e-05,0
1.7655,3.0045e-05,0
1.766,2.5681e-05,0
1.7665,2.7695e-05,0
1.767,3.4745e-05,0
1.7675,4.1123e-05,0
1.768,4.1291e-05,0
1.7685,3.6088e-05,0
1.769,3.743e-05,0
1.7695,3.743e-05,0
1.77,3.2059e-05,0
1.7705,3.4913e-05,0
1.771,3.3066e-05,0
1.7715,2.4674e-05,0
1.772,2.3667e-05,0
1.7725,2.266e-05,0
1.773,1.9974e-05,0
1.7735,2.9709e-05,0
1.774,3.4409e-05,0
1.7745,3.1052e-05,0
1.775,3.1724e-05,0
1.7755,3.6423e-05,0
1.776,3.9948e-05,0
1.7765,3.8102e-05,0
1.777,3.0716e-05,0
1.7775,2.3163e-05,0
1.778,1.9974e-05,0
1.7785,1.5442e-05,0
1.779,8.2246e-06,0
1.7795,4.0284e-06,0
1.78,3.6927e-06,0
1.7805,1.0071e-06,0
1.781,-9.2317e-06,0
1.7815,-1.2589e-05,0
1.782,-2.5177e-06,0
1.7825,4.5319e-06,0
1.783,-5.035e-07,0
1.7835,-2.182e-06,0
1.784,-4.5319e-06,0
1.7845,-9.0639e-06,0
1.785,-3.5248e-06,0
1.7855,1.0071e-06,0
1.786,-1.1749e-06,0
1.7865,-5.035e-07,0
1.787,-1.8463e-06,0
1.7875,-1.6785e-06,0
1.788,7.8889e-06,0
1.7885,1.9806e-05,0
1.789,2.266e-05,0
1.7895,1.9638e-05,0
1.79,1.796e-05,0
1.7905,2.4506e-05,0
1.791,3.3906e-05,0
1.7915,4.1123e-05,0
1.792,4.5823e-05,0
1.7925,5.0523e-05,0
1.793,5.3208e-05,0
1.7935,5.5222e-05,0
1.794,5.539e-05,0
1.7945,5.069e-05,0
1.795,4.8173e-05,0
1.7955,4.2802e-05,0
1.796,3.2059e-05,0
1.7965,2.8367e-05,0
1.797,2.182e-05,0
1.7975,1.1917e-05,0
1.798,1.3092e-05,0
1.7985,1.2589e-05,0
1.799,1.5106e-06,0
1.7995,-6.2104e-06,0
1.8,-9.9031e-06,0
1.8005,-1.091e-05,0
1.801,-3.5248e-06,0
1.8015,7.7211e-06,0
1.802,1.6785e-05,0
1.8025,1.9974e-05,0
1.803,1.6617e-05,0
1.8035,1.6617e-05,0
1.804,1.9303e-05,0
1.8045,2.0478e-05,0
1.805,2.3667e-05,0
1.8055,2.8031e-05,0
1.806,3.2059e-05,0
1.8065,3.2059e-05,0
1.807,2.7024e-05,0
1.8075,1.5106e-05,0
1.808,6.5461e-06,0
1.8085,2.5177e-06,0
1.809,-2.3499e-06,0
1.8095,1.5106e-06,0
1.81,1.5106e-06,0
1.8105,-6.2104e-06,0
1.811,-2.8534e-06,0
1.8115,5.7069e-06,0
1.812,1.3428e-05,0
1.8125,2.2156e-05,0
1.813,2.182e-05,0
1.8135,1.9303e-05,0
1.814,1.9974e-05,0
1.8145,1.8128e-05,0
1.815,2.1988e-05,0
1.8155,3.3402e-05,0
1.816,4.1459e-05,0
1.8165,4.1459e-05,0
1.817,3.9109e-05,0
1.8175,3.9948e-05,0
1.818,4.1459e-05,0
1.8185,4.213e-05,0
1.819,4.7501e-05,0
1.8195,5.5222e-05,0
1.82,6.3951e-05,0
1.8205,6.4286e-05,0
1.821,5.9587e-05,0
1.8215,5.3544e-05,0
1.822,4.7837e-05,0
1.8225,4.9515e-05,0
1.823,4.2802e-05,0
1.8235,2.8031e-05,0
1.824,2.0646e-05,0
1.8245,1.561e-05,0
1.825,9.9031e-06,0
1.8255,8.7282e-06,0
1.826,5.2033e-06,0
1.8265,2.8534e-06,0
1.827,8.5603e-06,0
1.8275,1.326e-05,0
1.828,1.2421e-05,0
1.8285,5.2033e-06,0
1.829,-3.5248e-06,0
1.8295,-6.8818e-06,0
1.83,-8.896e-06,0
1.8305,-1.0071e-05,0
1.831,-7.3854e-06,0
1.8315,-8.392e-07,0
1.832,8.5603e-06,0
1.8325,1.1078e-05,0
1.833,6.5461e-06,0
1.8335,1.3428e-06,0
1.834,2.182e-06,0
1.8345,5.8747e-06,0
1.835,5.7069e-06,0
1.8355,8.5603e-06,0
1.836,7.7211e-06,0
1.8365,4.5319e-06,0
1.837,1.1749e-05,0
1.8375,1.796e-05,0
1.838,2.1317e-05,0
1.8385,3.2563e-05,0
1.839,3.6927e-05,0
1.8395,3.4409e-05,0
1.84,3.9109e-05,0
1.8405,4.8844e-05,0
1.841,5.3208e-05,0
1.8415,5.0187e-05,0
1.842,4.2802e-05,0
1.8425,3.5416e-05,0
1.843,2.8031e-05,0
1.8435,2.2324e-05,0
1.844,2.266e-05,0
1.8445,2.3331e-05,0
1.845,1.7288e-05,0
1.8455,1.1582e-05,0
1.846,1.1917e-05,0
1.8465,1.4939e-05,0
1.847,1.5946e-05,0
1.8475,9.3996e-06,0
1.848,5.539e-06,0
1.8485,1.9638e-05,0
1.849,3.1388e-05,0
1.8495,3.5248e-05,0
1.85,4.8173e-05,0
1.8505,5.5894e-05,0
1.851,5.3544e-05,0
1.8515,5.4887e-05,0
1.852,5.7069e-05,0
1.8525,5.7237e-05,0
1.853,5.3544e-05,0
1.8535,3.9445e-05,0
1.854,2.031e-05,0
1.8545,8.5603e-06,0
1.855,5.8747e-06,0
1.8555,5.0355e-06,0
1.856,1.6785e-06,0
1.8565,-2.8534e-06,0
1.857,-5.539e-06,0
1.8575,-4.8676e-06,0
1.858,-4.8676e-06,0
1.8585,-4.1962e-06,0
1.859,-1.8463e-06,0
1.8595,5.035e-07,0
1.86,7.3854e-06,0
1.8605,9.5674e-06,0
1.861,8.392e-07,0
1.8615,1.678e-07,0
1.862,5.2033e-06,0
1.8625,5.0355e-06,0
1.863,1.1582e-05,0
1.8635,1.6281e-05,0
1.864,1.2757e-05,0
1.8645,1.326e-05,0
1.865,1.6953e-05,0
1.8655,2.4338e-05,0
1.866,3.3906e-05,0
1.8665,3.7262e-05,0
1.867,3.6088e-05,0
1.8675,3.592e-05,0
1.868,3.4745e-05,0
1.8685,3.5416e-05,0
1.869,4.0116e-05,0
1.8695,4.2634e-05,0
1.87,4.1627e-05,0
1.8705,3.9109e-05,0
1.871,3.743e-05,0
1.8715,3.5248e-05,0
1.872,3.4073e-05,0
1.8725,3.7598e-05,0
1.873,4.0116e-05,0
1.8735,3.5752e-05,0
1.874,2.4674e-05,0
1.8745,1.9974e-05,0
1.875,1.947e-05,0
1.8755,1.6953e-05,0
1.876,2.3331e-05,0
1.8765,2.5681e-05,0
1.877,2.1317e-05,0
1.8775,2.1653e-05,0
1.878,1.9303e-05,0
1.8785,1.5946e-05,0
1.879,2.0646e-05,0
1.8795,2.7695e-05,0
1.88,3.1724e-05,0
1.8805,3.3234e-05,0
1.881,3.3402e-05,0
1.8815,3.122e-05,0
1.882,2.4002e-05,0
1.8825,1.6953e-05,0
1.883,1.4435e-05,0
1.8835,1.0575e-05,0
1.884,5.2033e-06,0
1.8845,-3.357e-07,0
1.885,-5.8747e-06,0
1.8855,-1.1749e-05,0
1.886,-1.1917e-05,0
1.8865,-1.1582e-05,0
1.887,-1.1582e-05,0
1.8875,-2.5177e-06,0
1.888,3.8605e-06,0
1.8885,3.5248e-06,0
1.889,9.9031e-06,0
1.8895,1.4603e-05,0
1.89,1.4099e-05,0
1.8905,2.0478e-05,0
1.891,1.8128e-05,0
1.8915,1.2253e-05,0
1.892,1.5778e-05,0
1.8925,2.0981e-05,0
1.893,2.1317e-05,0
1.8935,1.7288e-05,0
1.894,1.0239e-05,0
1.8945,3.6927e-06,0
1.895,-8.5603e-06,0
1.8955,-2.182e-05,0
1.896,-2.6352e-05,0
1.8965,-2.2995e-05,0
1.897,-1.8631e-05,0
1.8975,-1.2589e-05,0
1.898,-3.5248e-06,0
1.8985,8.392e-07,0
1.899,1.3428e-06,0
1.8995,-8.392e-07,0
1.9,2.182e-06,0
1.9005,1.8463e-05,0
1.901,3.3066e-05,0
1.9015,3.9109e-05,0
1.902,4.5319e-05,0
1.9025,4.2466e-05,0
1.903,3.7766e-05,0
1.9035,4.4816e-05,0
1.904,4.7837e-05,0
1.9045,4.2634e-05,0
1.905,3.8773e-05,0
1.9055,3.6759e-05,0
1.906,4.1123e-05,0
1.9065,4.6159e-05,0
1.907,4.3641e-05,0
1.9075,3.743e-05,0
1.908,3.3402e-05,0
1.9085,2.9877e-05,0
1.909,2.3499e-05,0
1.9095,1.8967e-05,0
1.91,1.9303e-05,0
1.9105,1.6281e-05,0
1.911,9.2317e-06,0
1.9115,6.5461e-06,0
1.912,1.2589e-05,0
1.9125,9.3996e-06,0
1.913,-8.3925e-06,0
1.9135,-2.3331e-05,0
1.914,-3.3066e-05,0
1.9145,-3.6759e-05,0
1.915,-3.1052e-05,0
1.9155,-2.9038e-05,0
1.916,-2.6352e-05,0
1.9165,-1.6953e-05,0
1.917,-9.5674e-06,0
1.9175,-4.1962e-06,0
1.918,8.5603e-06,0
1.9185,2.266e-05,0
1.919,3.0045e-05,0
1.9195,3.2395e-05,0
1.92,3.6759e-05,0
1.9205,4.5151e-05,0
1.921,5.2201e-05,0
1.9215,5.0187e-05,0
1.922,4.2802e-05,0
1.9225,4.1291e-05,0
1.923,4.448e-05,0
1.9235,4.4816e-05,0
1.924,4.5151e-05,0
1.9245,4.1627e-05,0
1.925,3.2395e-05,0
1.9255,2.1653e-05,0
1.926,1.1917e-05,0
1.9265,1.0575e-05,0
1.927,1.2924e-05,0
1.9275,1.326e-05,0
1.928,1.7288e-05,0
1.9285,1.7288e-05,0
1.929,1.8967e-05,0
1.9295,3.0381e-05,0
1.93,3.2731e-05,0
1.9305,2.4002e-05,0
1.931,2.3331e-05,0
1.9315,3.1052e-05,0
1.932,3.978e-05,0
1.9325,4.448e-05,0
1.933,4.5487e-05,0
1.9335,4.7333e-05,0
1.934,4.8173e-05,0
1.9345,4.683e-05,0
1.935,4.4144e-05,0
1.9355,4.2634e-05,0
1.936,4.7501e-05,0
1.9365,4.918e-05,0
1.937,4.2802e-05,0
1.9375,3.743e-05,0
1.938,4.213e-05,0
1.9385,4.3977e-05,0
1.939,3.6759e-05,0
1.9395,3.8605e-05,0
1.94,4.4144e-05,0
1.9405,4.1123e-05,0
1.941,3.7766e-05,0
1.9415,3.1052e-05,0
1.942,2.5345e-05,0
1.9425,2.7359e-05,0
1.943,2.6688e-05,0
1.9435,2.182e-05,0
1.944,2.2156e-05,0
1.9445,1.9303e-05,0
1.945,7.8889e-06,0
1.9455,3.1891e-06,0
1.946,8.2246e-06,0
1.9465,1.5946e-05,0
1.947,1.9303e-05,0
1.9475,1.3932e-05,0
1.948,7.5532e-06,0
1.9485,9.9031e-06,0
1.949,2.4674e-05,0
1.9495,4.8173e-05,0
1.95,6.6972e-05,0
1.9505,6.865e-05,0
1.951,6.2608e-05,0
1.9515,5.5894e-05,0
1.952,4.8173e-05,0
1.9525,5.3376e-05,0
1.953,6.1936e-05,0
1.9535,5.9754e-05,0
1.954,4.5823e-05,0
1.9545,1.9135e-05,0
1.955,-3.5248e-06,0
1.9555,-6.0426e-06,0
1.956,-8.5603e-06,0
1.9565,-1.4939e-05,0
1.957,-1.6617e-05,0
1.9575,-1.9303e-05,0
1.958,-2.5345e-05,0
1.9585,-2.9206e-05,0
1.959,-3.2395e-05,0
1.9595,-3.2395e-05,0
1.96,-2.7527e-05,0
1.9605,-2.2492e-05,0
1.961,-2.2995e-05,0
1.9615,-2.3667e-05,0
1.962,-1.796e-05,0
1.9625,-9.5674e-06,0
1.963,-3.1891e-06,0
1.9635,2.0142e-06,0
1.964,9.9031e-06,0
1.9645,1.0239e-05,0
1.965,-2.8534e-06,0
1.9655,-1.8296e-05,0
1.966,-4.1795e-05,0
1.9665,-5.7908e-05,0
1.967,-4.9012e-05,0
1.9675,-3.7262e-05,0
1.968,-3.1724e-05,0
1.9685,-1.6449e-05,0
1.969,-1.6785e-06,0
1.9695,7.8889e-06,0
1.97,1.5274e-05,0
1.9705,1.5946e-05,0
1.971,1.7288e-05,0
1.9715,2.3331e-05,0
1.972,3.0549e-05,0
1.9725,3.1724e-05,0
1.973,2.6352e-05,0
1.9735,2.1988e-05,0
1.974,2.4506e-05,0
1.9745,3.0381e-05,0
1.975,3.743e-05,0
1.9755,4.1459e-05,0
1.976,3.978e-05,0
1.9765,4.0116e-05,0
1.977,5.0187e-05,0
1.9775,6.0761e-05,0
1.978,6.865e-05,0
1.9785,7.9728e-05,0
1.979,7.9728e-05,0
1.9795,7.2343e-05,0
1.98,6.9322e-05,0
1.9805,6.1433e-05,0
1.981,4.9515e-05,0
1.9815,4.0116e-05,0
1.982,2.5345e-05,0
1.9825,1.2253e-05,0
1.983,1.0071e-05,0
1.9835,8.2246e-06,0
1.984,5.3712e-06,0
1.9845,3.0213e-06,0
1.985,8.392e-07,0
1.9855,1.8463e-06,0
1.986,4.8676e-06,0
1.9865,5.2033e-06,0
1.987,2.8534e-06,0
1.9875,1.1749e-06,0
1.988,2.8534e-06,0
1.9885,6.2104e-06,0
1.989,1.0575e-05,0
1.9895,1.5946e-05,0
1.99,2.266e-05,0
1.9905,2.1317e-05,0
1.991,1.7624e-05,0
1.9915,2.7192e-05,0
1.992,3.5752e-05,0
1.9925,3.5584e-05,0
1.993,3.5248e-05,0
1.9935,3.0213e-05,0
1.994,2.3835e-05,0
1.9945,2.9374e-05,0
1.995,3.4745e-05,0
1.9955,3.6088e-05,0
1.996,4.3473e-05,0
1.9965,5.2705e-05,0
1.997,5.7572e-05,0
1.9975,6.0426e-05,0
1.998,6.2272e-05,0
1.9985,6.3951e-05,0
1.999,6.3615e-05,0
1.9995,6.2272e-05,0
2,5.8915e-05,0
2.0005,5.4383e-05,0
2.001,5.1026e-05,0
2.0015,4.8005e-05,0
2.002,4.9851e-05,0
2.0025,5.4887e-05,0
2.003,6.2104e-05,0
2.0035,6.2776e-05,0
2.004,5.8915e-05,0
2.0045,6.244e-05,0
2.005,6.3447e-05,0
2.0055,6.1601e-05,0
2.006,6.3951e-05,0
2.0065,6.4286e-05,0
2.007,5.8915e-05,0
2.0075,5.0858e-05,0
2.008,3.4409e-05,0
2.0085,2.182e-05,0
2.009,2.3835e-05,0
2.0095,2.031e-05,0
2.01,4.5319e-06,0
2.0105,-8.2246e-06,0
2.011,-1.0239e-05,0
2.0115,-8.2246e-06,0
2.012,-1.2085e-05,0
2.0125,-2.2995e-05,0
2.013,-3.0381e-05,0
2.0135,-3.122e-05,0
2.014,-2.7863e-05,0
2.0145,-2.5345e-05,0
2.015,-2.4842e-05,0
2.0155,-2.266e-05,0
2.016,-1.6953e-05,0
2.0165,-1.3932e-05,0
2.017,-1.2421e-05,0
2.0175,-6.2104e-06,0
2.018,-7.5532e-06,0
2.0185,-1.6281e-05,0
2.019,-1.5274e-05,0
2.0195,-1.0742e-05,0
2.02,-7.0497e-06,0
2.0205,3.6927e-06,0
2.021,9.9031e-06,0
2.0215,5.8747e-06,0
2.022,6.2104e-06,0
2.0225,1.1917e-05,0
2.023,1.8631e-05,0
2.0235,2.266e-05,0
2.024,2.5345e-05,0
2.0245,2.8702e-05,0
2.025,2.8031e-05,0
2.0255,2.4002e-05,0
2.026,1.8631e-05,0
2.0265,1.5946e-05,0
2.027,1.6953e-05,0
2.0275,2.0813e-05,0
2.028,2.4842e-05,0
2.0285,2.3667e-05,0
2.029,2.0646e-05,0
2.0295,1.3932e-05,0
2.03,7.0497e-06,0
2.0305,1.3932e-05,0
2.031,1.9806e-05,0
2.0315,1.7792e-05,0
2.032,2.1988e-05,0
2.0325,2.5177e-05,0
2.033,2.8702e-05,0
2.0335,3.978e-05,0
2.034,4.8173e-05,0
2.0345,4.7166e-05,0
2.035,4.1795e-05,0
2.0355,3.508e-05,0
2.036,2.5345e-05,0
2.0365,1.4267e-05,0
2.037,4.0284e-06,0
2.0375,5.035e-07,0
2.038,3.0213e-06,0
2.0385,5.0355e-06,0
2.039,-8.392e-07,0
2.0395,-1.1917e-05,0
2.04,-2.1988e-05,0
2.0405,-2.9709e-05,0
2.041,-3.3402e-05,0
2.0415,-3.1052e-05,0
2.042,-2.652e-05,0
2.0425,-2.7527e-05,0
2.043,-2.7359e-05,0
2.0435,-1.0575e-05,0
2.044,7.7211e-06,0
2.0445,1.6617e-05,0
2.045,1.9974e-05,0
2.0455,2.182e-05,0
2.046,2.8702e-05,0
2.0465,3.7934e-05,0
2.047,3.1724e-05,0
2.0475,1.947e-05,0
2.048,1.7624e-05,0
2.0485,2.4506e-05,0
2.049,2.6688e-05,0
2.0495,2.2995e-05,0
2.05,2.2995e-05,0
2.0505,2.5681e-05,0
2.051,2.417e-05,0
2.0515,2.1317e-05,0
2.052,2.5177e-05,0
2.0525,2.9374e-05,0
2.053,2.9877e-05,0
2.0535,3.1891e-05,0
2.054,3.5248e-05,0
2.0545,3.3738e-05,0
2.055,3.1052e-05,0
2.0555,2.3667e-05,0
2.056,1.3764e-05,0
2.0565,1.8967e-05,0
2.057,2.6688e-05,0
2.0575,2.5681e-05,0
2.058,3.0716e-05,0
2.0585,3.2059e-05,0
2.059,3.2395e-05,0
2.0595,4.2634e-05,0
2.06,4.683e-05,0
2.0605,3.8773e-05,0
2.061,3.2059e-05,0
2.0615,2.8199e-05,0
2.062,2.2324e-05,0
2.0625,2.2995e-05,0
2.063,3.0549e-05,0
2.0635,3.4577e-05,0
2.064,3.1388e-05,0
2.0645,2.7192e-05,0
2.065,2.6352e-05,0
2.0655,2.5177e-05,0
2.066,1.8463e-05,0
2.0665,8.896e-06,0
2.067,-1.5106e-06,0
2.0675,-1.1414e-05,0
2.068,-1.9638e-05,0
2.0685,-2.3163e-05,0
2.069,-2.2156e-05,0
2.0695,-1.5274e-05,0
2.07,-1.326e-05,0
2.0705,-1.5778e-05,0
2.071,-1.091e-05,0
2.0715,-8.7282e-06,0
2.072,-6.3783e-06,0
2.0725,7.7211e-06,0
2.073,2.2995e-05,0
2.0735,3.3738e-05,0
2.074,4.5487e-05,0
2.0745,5.3544e-05,0
2.075,5.2872e-05,0
2.0755,4.7837e-05,0
2.076,4.3809e-05,0
2.0765,4.6159e-05,0
2.077,5.2033e-05,0
2.0775,5.4887e-05,0
2.078,4.9012e-05,0
2.0785,3.6255e-05,0
2.079,2.6688e-05,0
2.0795,2.3667e-05,0
2.08,2.4002e-05,0
2.0805,2.8534e-05,0
2.081,3.3738e-05,0
2.0815,3.357e-05,0
2.082,2.7527e-05,0
2.0825,2.8702e-05,0
2.083,2.5849e-05,0
2.0835,2.1988e-05,0
2.084,2.8199e-05,0
2.0845,3.122e-05,0
2.085,2.5345e-05,0
2.0855,2.1317e-05,0
2.086,1.4603e-05,0
2.0865,7.2175e-06,0
2.087,1.3764e-05,0
2.0875,2.8031e-05,0
2.088,3.5752e-05,0
2.0885,3.4745e-05,0
2.089,3.2731e-05,0
2.0895,3.0045e-05,0
2.09,2.3163e-05,0
2.0905,1.5946e-05,0
2.091,1.1246e-05,0
2.0915,1.1582e-05,0
2.092,1.8631e-05,0
2.0925,2.2995e-05,0
2.093,1.9638e-05,0
2.0935,2.0646e-05,0
2.094,3.1556e-05,0
2.0945,4.1795e-05,0
2.095,4.8844e-05,0
2.0955,5.8244e-05,0
2.096,5.7572e-05,0
2.0965,5.2872e-05,0
2.097,5.7572e-05,0
2.0975,5.2872e-05,0
2.098,3.7262e-05,0
2.0985,2.2324e-05,0
2.099,-1.0071e-06,0
2.0995,-2.9038e-05,0
2.1,-4.9515e-05,0
2.1005,-5.4719e-05,0
2.101,-4.8844e-05,0
2.1015,-4.5991e-05,0
2.102,-5.3544e-05,0
2.1025,-5.8412e-05,0
2.103,-5.304e-05,0
2.1035,-3.9109e-05,0
2.104,-2.0981e-05,0
2.1045,-3.8605e-06,0
2.105,1.2253e-05,0
2.1055,2.8031e-05,0
2.106,4.213e-05,0
2.1065,5.5894e-05,0
2.107,7.0329e-05,0
2.1075,7.3686e-05,0
2.108,6.6133e-05,0
2.1085,6.2272e-05,0
2.109,5.8915e-05,0
2.1095,4.9683e-05,0
2.11,3.743e-05,0
2.1105,1.7288e-05,0
2.111,-1.0575e-05,0
2.1115,-3.6255e-05,0
2.112,-5.388e-05,0
2.1125,-5.539e-05,0
2.113,-4.0619e-05,0
2.1135,-2.5345e-05,0
2.114,-1.5274e-05,0
2.1145,-1.2924e-05,0
2.115,-1.796e-05,0
2.1155,-1.8296e-05,0
2.116,-1.1414e-05,0
2.1165,-3.5248e-06,0
2.117,6.5461e-06,0
2.1175,2.0646e-05,0
2.118,3.5752e-05,0
2.1185,5.3376e-05,0
2.119,6.7475e-05,0
2.1195,7.2175e-05,0
2.12,6.9993e-05,0
2.1205,6.0594e-05,0
2.121,5.3208e-05,0
2.1215,5.623e-05,0
2.122,5.2033e-05,0
2.1225,3.8437e-05,0
2.123,3.0045e-05,0
2.1235,1.9974e-05,0
2.124,1.2924e-05,0
2.1245,2.1149e-05,0
2.125,3.1556e-05,0
2.1255,3.827e-05,0
2.126,4.448e-05,0
2.1265,4.4144e-05,0
2.127,3.827e-05,0
2.1275,3.508e-05,0
2.128,3.6088e-05,0
2.1285,3.8102e-05,0
2.129,3.9445e-05,0
2.1295,4.1123e-05,0
2.13,4.2802e-05,0
2.1305,4.0787e-05,0
2.131,4.0116e-05,0
2.1315,4.213e-05,0
2.132,4.5487e-05,0
2.1325,4.2802e-05,0
2.133,4.2802e-05,0
2.1335,3.9445e-05,0
2.134,2.9038e-05,0
2.1345,2.6352e-05,0
2.135,2.4674e-05,0
2.1355,1.8463e-05,0
2.136,2.0646e-05,0
2.1365,2.652e-05,0
2.137,3.3402e-05,0
2.1375,4.2298e-05,0
2.138,4.3977e-05,0
2.1385,4.3137e-05,0
2.139,4.3809e-05,0
2.1395,3.9109e-05,0
2.14,3.1724e-05,0
2.1405,2.4002e-05,0
2.141,1.4939e-05,0
2.1415,2.5177e-06,0
2.142,-1.2589e-05,0
2.1425,-2.5681e-05,0
2.143,-2.7863e-05,0
2.1435,-1.9638e-05,0
2.144,-1.0575e-05,0
2.1445,-5.8747e-06,0
2.145,-3.0213e-06,0
2.1455,-5.8747e-06,0
2.146,-8.3925e-06,0
2.1465,-7.3854e-06,0
2.147,-1.0239e-05,0
2.1475,-2.8534e-06,0
2.148,1.3428e-05,0
2.1485,2.3331e-05,0
2.149,2.7359e-05,0
2.1495,2.3667e-05,0
2.15,2.2995e-05,0
2.1505,3.6088e-05,0
2.151,4.2802e-05,0
2.1515,4.1123e-05,0
2.152,4.3641e-05,0
2.1525,5.069e-05,0
2.153,5.153e-05,0
2.1535,4.5487e-05,0
2.154,4.1459e-05,0
2.1545,4.448e-05,0
2.155,4.3473e-05,0
2.1555,2.5345e-05,0
2.156,6.5461e-06,0
2.1565,4.1962e-06,0
2.157,1.5274e-05,0
2.1575,2.4506e-05,0
2.158,2.1317e-05,0
2.1585,8.3925e-06,0
2.159,1.8463e-06,0
2.1595,-2.3499e-06,0
2.16,-3.1891e-06,0
2.1605,1.2757e-05,0
2.161,2.8534e-05,0
2.1615,2.8702e-05,0
2.162,2.9374e-05,0
2.1625,3.6088e-05,0
2.163,4.4816e-05,0
2.1635,5.9922e-05,0
2.164,7.2007e-05,0
2.1645,7.9057e-05,0
2.165,8.5771e-05,0
2.1655,8.7282e-05,0
2.166,8.2078e-05,0
2.1665,7.2847e-05,0
2.167,6.1936e-05,0
2.1675,4.683e-05,0
2.168,3.2059e-05,0
2.1685,2.031e-05,0
2.169,1.0071e-05,0
2.1695,6.2104e-06,0
2.17,7.5532e-06,0
2.1705,4.8676e-06,0
2.171,-8.2246e-06,0
2.1715,-2.5345e-05,0
2.172,-3.5416e-05,0
2.1725,-4.1795e-05,0
2.173,-3.8773e-05,0
2.1735,-1.7288e-05,0
2.174,-7.7211e-06,0
2.1745,-2.0478e-05,0
2.175,-3.0549e-05,0
2.1755,-3.6255e-05,0
2.176,-4.1123e-05,0
2.1765,-4.213e-05,0
2.177,-4.8005e-05,0
2.1775,-5.153e-05,0
2.178,-4.1795e-05,0
2.1785,-2.9709e-05,0
2.179,-2.266e-05,0
2.1795,-2.0981e-05,0
2.18,-2.2324e-05,0
2.1805,-2.2828e-05,0
2.181,-1.6953e-05,0
2.1815,-7.0497e-06,0
2.182,5.2033e-06,0
2.1825,2.1149e-05,0
2.183,3.6088e-05,0
2.1835,5.3544e-05,0
2.184,7.7714e-05,0
2.1845,9.5171e-05,0
2.185,0.00010726,0
2.1855,0.00011196,0
2.186,0.0001086,0
2.1865,0.00010256,0
2.187,8.7785e-05,0
2.1875,6.949e-05,0
2.188,6.1601e-05,0
2.1885,5.4383e-05,0
2.189,4.7501e-05,0
2.1895,5.3208e-05,0
2.19,6.0761e-05,0
2.1905,6.4286e-05,0
2.191,6.9993e-05,0
2.1915,7.0329e-05,0
2.192,5.7572e-05,0
2.1925,3.3906e-05,0
2.193,1.1749e-05,0
2.1935,-8.392e-07,0
2.194,-9.2317e-06,0
2.1945,-2.1988e-05,0
2.195,-3.9109e-05,0
2.1955,-5.1865e-05,0
2.196,-5.2033e-05,0
2.1965,-4.2634e-05,0
2.197,-3.4409e-05,0
2.1975,-2.6688e-05,0
2.198,-1.6281e-05,0
2.1985,-6.0426e-06,0
2.199,-3.1891e-06,0
2.1995,-8.392e-07,0
2.2,-4.8676e-06,0
2.2005,-1.7288e-05,0
2.201,-1.9806e-05,0
2.2015,-1.6953e-05,0
2.202,-1.8296e-05,0
2.2025,-2.1653e-05,0
2.203,-2.8031e-05,0
2.2035,-2.6352e-05,0
2.204,-1.3596e-05,0
2.2045,-2.182e-06,0
2.205,4.1962e-06,0
2.2055,1.9638e-05,0
2.206,3.5752e-05,0
2.2065,4.213e-05,0
2.207,5.0858e-05,0
2.2075,6.479e-05,0
2.208,7.2175e-05,0
2.2085,6.6636e-05,0
2.209,4.9515e-05,0
2.2095,2.5177e-05,0
2.21,2.182e-06,0
2.2105,-1.0239e-05,0
2.211,-1.2924e-05,0
2.2115,-1.5274e-05,0
2.212,-2.0646e-05,0
2.2125,-1.796e-05,0
2.213,-1.1917e-05,0
2.2135,-1.2085e-05,0
2.214,-7.2175e-06,0
2.2145,-3.8605e-06,0
2.215,-4.1962e-06,0
2.2155,4.3641e-06,0
2.216,1.3428e-05,0
2.2165,2.2324e-05,0
2.217,3.3066e-05,0
2.2175,4.0452e-05,0
2.218,4.448e-05,0
2.2185,4.5823e-05,0
2.219,4.7837e-05,0
2.2195,5.153e-05,0
2.22,5.4215e-05,0
2.2205,5.8412e-05,0
2.221,6.244e-05,0
2.2215,6.4286e-05,0
2.222,6.8147e-05,0
2.2225,7.4021e-05,0
2.223,7.7378e-05,0
2.2235,7.8386e-05,0
2.224,8.2078e-05,0
2.2245,8.3085e-05,0
2.225,7.3686e-05,0
2.2255,6.4958e-05,0
2.226,5.8747e-05,0
2.2265,5.3208e-05,0
2.227,4.9515e-05,0
2.2275,4.5823e-05,0
2.228,4.4144e-05,0
2.2285,4.0284e-05,0
2.229,2.9709e-05,0
2.2295,2.3667e-05,0
2.23,2.6688e-05,0
2.2305,3.0381e-05,0
2.231,2.4002e-05,0
2.2315,1.5274e-05,0
2.232,1.4603e-05,0
2.2325,2.5849e-05,0
2.233,4.4648e-05,0
2.2335,5.8076e-05,0
2.234,5.7908e-05,0
2.2345,4.6494e-05,0
2.235,3.0716e-05,0
2.2355,1.2253e-05,0
2.236,-7.0497e-06,0
2.2365,-2.2156e-05,0
2.237,-2.7695e-05,0
2.2375,-2.6017e-05,0
2.238,-1.7121e-05,0
2.2385,-1.678e-07,0
2.239,1.1582e-05,0
2.2395,1.2924e-05,0
2.24,1.5946e-05,0
2.2405,1.2421e-05,0
2.241,5.539e-06,0
2.2415,7.7211e-06,0
2.242,2.8534e-06,0
2.2425,-9.5674e-06,0
2.243,-1.4267e-05,0
2.2435,-9.2317e-06,0
2.244,-7.2175e-06,0
2.2445,-1.796e-05,0
2.245,-3.2395e-05,0
2.2455,-4.2466e-05,0
2.246,-5.0858e-05,0
2.2465,-5.4215e-05,0
2.247,-5.5558e-05,0
2.2475,-5.069e-05,0
2.248,-3.0381e-05,0
2.2485,-4.8676e-06,0
2.249,1.2757e-05,0
2.2495,2.0813e-05,0
2.25,3.3402e-05,0
2.2505,4.8844e-05,0
2.251,5.3544e-05,0
2.2515,5.4887e-05,0
2.252,4.9515e-05,0
2.2525,3.6759e-05,0
2.253,2.7359e-05,0
2.2535,2.0981e-05,0
2.254,2.1317e-05,0
2.2545,3.1388e-05,0
2.255,3.3402e-05,0
2.2555,3.6423e-05,0
2.256,5.623e-05,0
2.2565,8.3085e-05,0
2.257,0.00010021,0
2.2575,0.00011095,0
2.258,0.00011649,0
2.2585,0.00011699,0
2.259,0.00010994,0
2.2595,9.1142e-05,0
2.26,7.2343e-05,0
2.2605,5.9251e-05,0
2.261,4.4144e-05,0
2.2615,2.1317e-05,0
2.262,-3.1891e-06,0
2.2625,-2.9038e-05,0
2.263,-4.8508e-05,0
2.2635,-5.388e-05,0
2.264,-4.7837e-05,0
2.2645,-3.2059e-05,0
2.265,-2.5849e-05,0
2.2655,-2.5681e-05,0
2.266,-1.4771e-05,0
2.2665,-3.5248e-06,0
2.267,6.714e-06,0
2.2675,1.9303e-05,0
2.268,2.2156e-05,0
2.2685,1.6617e-05,0
2.269,1.4603e-05,0
2.2695,2.2156e-05,0
2.27,3.743e-05,0
2.2705,4.4816e-05,0
2.271,4.5151e-05,0
2.2715,4.8844e-05,0
2.272,5.3208e-05,0
2.2725,5.7572e-05,0
2.273,6.3279e-05,0
2.2735,7.3014e-05,0
2.274,8.2246e-05,0
2.2745,8.5771e-05,0
2.275,8.6946e-05,0
2.2755,7.6371e-05,0
2.276,5.1194e-05,0
2.2765,1.9974e-05,0
2.277,1.5106e-06,0
2.2775,-2.182e-06,0
2.278,-1.5946e-05,0
2.2785,-4.6326e-05,0
2.279,-7.7714e-05,0
2.2795,-0.0001044,0
2.28,-0.00011867,0
2.2805,-0.00011682,0
2.281,-0.000118,0
2.2815,-0.00011984,0
2.282,-0.00010742,0
2.2825,-8.8457e-05,0
2.283,-6.9322e-05,0
2.2835,-4.7333e-05,0
2.284,-2.3163e-05,0
2.2845,-1.5106e-06,0
2.285,1.0575e-05,0
2.2855,1.6617e-05,0
2.286,2.2995e-05,0
2.2865,2.8702e-05,0
2.287,3.2731e-05,0
2.2875,3.3906e-05,0
2.288,3.743e-05,0
2.2885,4.5991e-05,0
2.289,5.7404e-05,0
2.2895,5.7237e-05,0
2.29,5.3376e-05,0
2.2905,6.0258e-05,0
2.291,6.7308e-05,0
2.2915,6.8315e-05,0
2.292,6.63e-05,0
2.2925,5.7237e-05,0
2.293,5.4215e-05,0
2.2935,5.9251e-05,0
2.294,5.7572e-05,0
2.2945,5.2537e-05,0
2.295,4.683e-05,0
2.2955,3.9612e-05,0
2.296,3.508e-05,0
2.2965,3.6088e-05,0
2.297,4.3809e-05,0
2.2975,6.0929e-05,0
2.298,7.3014e-05,0
2.2985,7.2679e-05,0
2.299,7.0497e-05,0
2.2995,6.3783e-05,0
2.3,5.4719e-05,0
2.3005,4.6662e-05,0
2.301,3.6591e-05,0
2.3015,2.1988e-05,0
2.302,7.5532e-06,0
2.3025,-6.8818e-06,0
2.303,-2.0813e-05,0
2.3035,-2.3667e-05,0
2.304,-2.1653e-05,0
2.3045,-2.2156e-05,0
2.305,-1.9806e-05,0
2.3055,-2.2492e-05,0
2.306,-2.031e-05,0
2.3065,0,0
2.307,2.2828e-05,0
2.3075,3.8773e-05,0
2.308,5.6565e-05,0
2.3085,7.5029e-05,0
2.309,8.7785e-05,0
2.3095,9.3828e-05,0
2.31,9.6513e-05,0
2.3105,9.5842e-05,0
2.311,8.6107e-05,0
2.3115,6.6972e-05,0
2.312,3.9109e-05,0
2.3125,1.3092e-05,0
2.313,-2.8534e-06,0
2.3135,-9.5674e-06,0
2.314,-6.5461e-06,0
2.3145,-8.7282e-06,0
2.315,-1.6617e-05,0
2.3155,-2.3835e-05,0
2.316,-3.1052e-05,0
2.3165,-2.5177e-05,0
2.317,-1.7624e-05,0
2.3175,-2.1653e-05,0
2.318,-2.6352e-05,0
2.3185,-3.1891e-05,0
2.319,-3.4745e-05,0
2.3195,-2.8534e-05,0
2.32,-2.2995e-05,0
2.3205,-1.8463e-05,0
2.321,-9.2317e-06,0
2.3215,-2.8534e-06,0
2.322,-6.2104e-06,0
2.3225,-1.2421e-05,0
2.323,-1.1749e-05,0
2.3235,-3.0213e-06,0
2.324,1.1917e-05,0
2.3245,3.0716e-05,0
2.325,5.2705e-05,0
2.3255,7.3518e-05,0
2.326,9.1646e-05,0
2.3265,0.00010323,0
2.327,0.0001039,0
2.3275,9.987e-05,0
2.328,0.00010188,0
2.3285,9.5171e-05,0
2.329,7.6371e-05,0
2.3295,6.7643e-05,0
2.33,6.6804e-05,0
2.3305,6.5965e-05,0
2.331,6.4958e-05,0
2.3315,5.5222e-05,0
2.332,4.448e-05,0
2.3325,4.0787e-05,0
2.333,2.6352e-05,0
2.3335,2.3499e-06,0
2.334,-2.0478e-05,0
2.3345,-4.0452e-05,0
2.335,-4.8173e-05,0
2.3355,-5.2201e-05,0
2.336,-6.3951e-05,0
2.3365,-7.4525e-05,0
2.337,-7.805e-05,0
2.3375,-7.6204e-05,0
2.338,-7.0664e-05,0
2.3385,-5.9251e-05,0
2.339,-4.2466e-05,0
2.3395,-2.7359e-05,0
2.34,-1.8463e-05,0
2.3405,-9.5674e-06,0
2.341,1.091e-05,0
2.3415,3.2395e-05,0
2.342,4.2802e-05,0
2.3425,4.9012e-05,0
2.343,4.683e-05,0
2.3435,3.7934e-05,0
2.344,3.3738e-05,0
2.3445,2.4338e-05,0
2.345,1.5274e-05,0
2.3455,1.9806e-05,0
2.346,2.4506e-05,0
2.3465,2.8702e-05,0
2.347,3.3906e-05,0
2.3475,4.1291e-05,0
2.348,5.2033e-05,0
2.3485,6.1769e-05,0
2.349,7.0664e-05,0
2.3495,8.3085e-05,0
2.35,9.0471e-05,0
2.3505,8.6946e-05,0
2.351,7.5364e-05,0
2.3515,6.2776e-05,0
2.352,5.4215e-05,0
2.3525,4.1795e-05,0
2.353,2.4002e-05,0
2.3535,2.4338e-05,0
2.354,4.1962e-05,0
2.3545,5.1362e-05,0
2.355,4.9515e-05,0
2.3555,5.9251e-05,0
2.356,6.4286e-05,0
2.3565,5.7908e-05,0
2.357,5.4215e-05,0
2.3575,3.9948e-05,0
2.358,1.9638e-05,0
2.3585,4.5319e-06,0
2.359,-1.326e-05,0
2.3595,-2.2492e-05,0
2.36,-1.5778e-05,0
2.3605,-1.0239e-05,0
2.361,-1.5946e-05,0
2.3615,-2.0142e-05,0
2.362,-9.9031e-06,0
2.3625,1.2253e-05,0
2.363,3.1724e-05,0
2.3635,4.2802e-05,0
2.364,5.4887e-05,0
2.3645,7.3182e-05,0
2.365,8.8457e-05,0
2.3655,9.0806e-05,0
2.366,8.2414e-05,0
2.3665,7.0664e-05,0
2.367,5.7908e-05,0
2.3675,4.6159e-05,0
2.368,3.8605e-05,0
2.3685,3.6423e-05,0
2.369,2.031e-05,0
2.3695,-1.5274e-05,0
2.37,-4.9515e-05,0
2.3705,-7.1336e-05,0
2.371,-7.2343e-05,0
2.3715,-5.4215e-05,0
2.372,-4.4816e-05,0
2.3725,-5.0355e-05,0
2.373,-5.5222e-05,0
2.3735,-5.6901e-05,0
2.374,-5.2537e-05,0
2.3745,-3.6088e-05,0
2.375,-1.1246e-05,0
2.3755,9.0639e-06,0
2.376,1.796e-05,0
2.3765,2.1317e-05,0
2.377,2.7695e-05,0
2.3775,3.4745e-05,0
2.378,3.8773e-05,0
2.3785,3.9612e-05,0
2.379,3.6423e-05,0
2.3795,3.5752e-05,0
2.38,4.1123e-05,0
2.3805,4.448e-05,0
2.381,4.2802e-05,0
2.3815,4.3977e-05,0
2.382,4.2802e-05,0
2.3825,3.9109e-05,0
2.383,3.8102e-05,0
2.3835,3.0045e-05,0
2.384,1.5106e-05,0
2.3845,6.0426e-06,0
2.385,-8.392e-07,0
2.3855,-6.0426e-06,0
2.386,-4.6998e-06,0
2.3865,-6.714e-07,0
2.387,3.1891e-06,0
2.3875,1.0239e-05,0
2.388,1.5946e-05,0
2.3885,1.3596e-05,0
2.389,6.8818e-06,0
2.3895,4.1962e-06,0
2.39,7.2175e-06,0
2.3905,1.326e-05,0
2.391,2.1988e-05,0
2.3915,2.6017e-05,0
2.392,2.3667e-05,0
2.3925,1.8631e-05,0
2.393,2.0478e-05,0
2.3935,2.6688e-05,0
2.394,2.7695e-05,0
2.3945,3.5416e-05,0
2.395,4.2802e-05,0
2.3955,4.5151e-05,0
2.396,5.2033e-05,0
2.3965,6.3279e-05,0
2.397,7.9728e-05,0
2.3975,9.8863e-05,0
2.398,0.00010239,0
2.3985,9.0974e-05,0
2.399,8.7785e-05,0
2.3995,9.8527e-05,0
2.4,0.00011431,0
2.4005,0.00012035,0
2.401,0.00011128,0
2.4015,9.6849e-05,0
2.402,8.275e-05,0
2.4025,7.0161e-05,0
2.403,4.683e-05,0
2.4035,9.2317e-06,0
2.404,-2.7024e-05,0
2.4045,-4.3977e-05,0
2.405,-4.1795e-05,0
2.4055,-3.4745e-05,0
2.406,-2.9709e-05,0
2.4065,-3.9612e-05,0
2.407,-5.7404e-05,0
2.4075,-6.5293e-05,0
2.408,-7.0161e-05,0
2.4085,-7.2847e-05,0
2.409,-7.4525e-05,0
2.4095,-8.3085e-05,0
2.41,-8.6107e-05,0
2.4105,-6.6972e-05,0
2.411,-4.0787e-05,0
2.4115,-2.031e-05,0
2.412,1.5106e-06,0
2.4125,2.4338e-05,0
2.413,4.213e-05,0
2.4135,5.7237e-05,0
2.414,6.8986e-05,0
2.4145,7.1168e-05,0
2.415,6.8315e-05,0
2.4155,5.8579e-05,0
2.416,4.1795e-05,0
2.4165,2.1149e-05,0
2.417,-1.8463e-06,0
2.4175,-2.3835e-05,0
2.418,-4.448e-05,0
2.4185,-5.7572e-05,0
2.419,-6.1936e-05,0
2.4195,-6.6636e-05,0
2.42,-7.1336e-05,0
2.4205,-6.3279e-05,0
2.421,-5.0019e-05,0
2.4215,-3.4241e-05,0
2.422,-1.2924e-05,0
2.4225,1.5106e-06,0
2.423,1.2589e-05,0
2.4235,3.3738e-05,0
2.424,4.8844e-05,0
2.4245,5.5222e-05,0
2.425,5.9587e-05,0
2.4255,6.2272e-05,0
2.426,6.1769e-05,0
2.4265,5.8747e-05,0
2.427,5.9922e-05,0
2.4275,6.5965e-05,0
2.428,7.5029e-05,0
2.4285,8.1071e-05,0
2.429,8.3589e-05,0
2.4295,8.5603e-05,0
2.43,8.5771e-05,0
2.4305,8.0903e-05,0
2.431,7.2007e-05,0
2.4315,5.8915e-05,0
2.432,4.3473e-05,0
2.4325,2.7192e-05,0
2.433,1.2924e-05,0
2.4335,8.5603e-06,0
2.434,-8.2246e-06,0
2.4345,-4.0452e-05,0
2.435,-5.8412e-05,0
2.4355,-6.4958e-05,0
2.436,-6.3279e-05,0
2.4365,-4.6494e-05,0
2.437,-2.7863e-05,0
2.4375,-1.091e-05,0
2.438,1.0071e-05,0
2.4385,2.9877e-05,0
2.439,4.2802e-05,0
2.4395,4.9851e-05,0
2.44,5.2705e-05,0
2.4405,6.0258e-05,0
2.441,8.4428e-05,0
2.4415,0.00011229,0
2.442,0.00012723,0
2.4425,0.00012085,0
2.443,0.00010155,0
2.4435,8.4093e-05,0
2.444,7.3686e-05,0
2.4445,6.3951e-05,0
2.445,5.6565e-05,0
2.4455,4.0452e-05,0
2.446,1.2085e-05,0
2.4465,-1.2421e-05,0
2.447,-3.5584e-05,0
2.4475,-5.6901e-05,0
2.448,-6.1936e-05,0
2.4485,-6.1265e-05,0
2.449,-6.009e-05,0
2.4495,-5.4383e-05,0
2.45,-4.9851e-05,0
2.4505,-4.0787e-05,0
2.451,-2.2995e-05,0
2.4515,-8.2246e-06,0
2.452,-8.392e-07,0
2.4525,1.3428e-06,0
2.453,3.0213e-06,0
2.4535,5.539e-06,0
2.454,7.5532e-06,0
2.4545,2.5177e-06,0
2.455,-2.182e-06,0
2.4555,7.0497e-06,0
2.456,4.0787e-05,0
2.4565,9.6178e-05,0
2.457,0.00014687,0
2.4575,0.00017003,0
2.458,0.00017171,0
2.4585,0.00016332,0
2.459,0.0001556,0
2.4595,0.00015795,0
2.46,0.00015828,0
2.4605,0.00014519,0
2.461,0.00012287,0
2.4615,8.7114e-05,0
2.462,3.827e-05,0
2.4625,-3.5248e-06,0
2.463,-3.4409e-05,0
2.4635,-6.1601e-05,0
2.464,-8.745e-05,0
2.4645,-0.00010692,0
2.465,-0.00011397,0
2.4655,-0.00010793,0
2.466,-9.5171e-05,0
2.4665,-7.6036e-05,0
2.467,-5.3544e-05,0
2.4675,-3.0381e-05,0
2.468,-8.5603e-06,0
2.4685,8.5603e-06,0
2.469,2.7192e-05,0
2.4695,4.5991e-05,0
2.47,5.2872e-05,0
2.4705,3.8773e-05,0
2.471,1.5442e-05,0
2.4715,-6.5461e-06,0
2.472,-2.5009e-05,0
2.4725,-2.8367e-05,0
2.473,-1.8631e-05,0
2.4735,-1.678e-07,0
2.474,2.1988e-05,0
2.4745,2.5345e-05,0
2.475,1.2253e-05,0
2.4755,4.1962e-06,0
2.476,-1.5106e-06,0
2.4765,1.3428e-06,0
2.477,1.9135e-05,0
2.4775,3.3402e-05,0
2.478,3.3738e-05,0
2.4785,2.8031e-05,0
2.479,2.4674e-05,0
2.4795,2.1317e-05,0
2.48,1.8631e-05,0
2.4805,1.796e-05,0
2.481,1.6617e-05,0
2.4815,1.9135e-05,0
2.482,2.9877e-05,0
2.4825,4.4144e-05,0
2.483,4.7333e-05,0
2.4835,3.5416e-05,0
2.484,2.0646e-05,0
2.4845,1.326e-05,0
2.485,1.561e-05,0
2.4855,2.266e-05,0
2.486,1.561e-05,0
2.4865,-6.5461e-06,0
2.487,-2.6352e-05,0
2.4875,-4.448e-05,0
2.488,-5.5894e-05,0
2.4885,-5.6565e-05,0
2.489,-5.388e-05,0
2.4895,-4.2466e-05,0
2.49,-3.0045e-05,0
2.4905,-3.6088e-05,0
2.491,-4.918e-05,0
2.4915,-5.8915e-05,0
2.492,-6.6636e-05,0
2.4925,-7.2343e-05,0
2.493,-7.1839e-05,0
2.4935,-6.5293e-05,0
2.494,-5.6062e-05,0
2.4945,-4.1795e-05,0
2.495,-2.1149e-05,0
2.4955,-6.0426e-06,0
2.496,-8.392e-07,0
2.4965,1.678e-07,0
2.497,6.5461e-06,0
2.4975,1.4939e-05,0
2.498,1.4267e-05,0
2.4985,1.1246e-05,0
2.499,8.896e-06,0
2.4995,1.8967e-05,0
2.5,4.5487e-05,0
2.5005,6.4958e-05,0
2.501,7.7546e-05,0
2.5015,9.2485e-05,0
2.502,9.9702e-05,0
2.5025,9.8863e-05,0
2.503,9.6513e-05,0
2.5035,9.3492e-05,0
2.504,9.1142e-05,0
2.5045,9.4835e-05,0
2.505,0.00010457,0
2.5055,0.00011095,0
2.506,0.00010457,0
2.5065,9.3828e-05,0
2.507,8.4764e-05,0
2.5075,7.57e-05,0
2.508,5.9587e-05,0
2.5085,4.3473e-05,0
2.509,4.213e-05,0
2.5095,5.7069e-05,0
2.51,7.3686e-05,0
2.5105,7.8721e-05,0
2.511,8.0064e-05,0
2.5115,9.1814e-05,0
2.512,0.00010423,0
2.5125,0.00011447,0
2.513,0.00013361,0
2.5135,0.0001514,0
2.514,0.00017037,0
2.5145,0.00020293,0
2.515,0.00022458,0
2.5155,0.00020897,0
2.516,0.00016097,0
2.5165,0.00010994,0
2.517,6.9993e-05,0
2.5175,4.2802e-05,0
2.518,3.3402e-05,0
2.5185,3.3402e-05,0
2.519,2.8702e-05,0
2.5195,1.5778e-05,0
2.52,-2.3499e-06,0
2.5205,-2.2156e-05,0
2.521,-3.9445e-05,0
2.5215,-4.8508e-05,0
2.522,-5.2705e-05,0
2.5225,-6.5965e-05,0
2.523,-8.2078e-05,0
2.5235,-9.6178e-05,0
2.524,-0.00011263,0
2.5245,-0.00012186,0
2.525,-0.00012706,0
2.5255,-0.00012555,0
2.526,-0.00011565,0
2.5265,-9.8527e-05,0
2.527,-7.4021e-05,0
2.5275,-5.3208e-05,0
2.528,-5.1865e-05,0
2.5285,-5.539e-05,0
2.529,-4.5151e-05,0
2.5295,-3.1052e-05,0
2.53,-1.7624e-05,0
2.5305,-6.0426e-06,0
2.531,-3.357e-06,0
2.5315,-7.5532e-06,0
2.532,-1.2085e-05,0
2.5325,-2.2156e-05,0
2.533,-2.7024e-05,0
2.5335,-1.1246e-05,0
2.534,1.6617e-05,0
2.5345,3.9612e-05,0
2.535,5.5222e-05,0
2.5355,7.7043e-05,0
2.536,0.00010037,0
2.5365,0.0001133,0
2.537,0.00012253,0
2.5375,0.00013881,0
2.538,0.00015694,0
2.5385,0.000165,0
2.539,0.00016483,0
2.5395,0.00014888,0
2.54,0.00012471,0
2.5405,0.00010558,0
2.541,7.8721e-05,0
2.5415,4.8844e-05,0
2.542,2.4002e-05,0
2.5425,-9.0639e-06,0
2.543,-5.9251e-05,0
2.5435,-0.00011917,0
2.544,-0.00016181,0
2.5445,-0.0001744,0
2.545,-0.00016265,0
2.5455,-0.0001368,0
2.546,-0.00010457,0
2.5465,-7.5364e-05,0
2.547,-5.3208e-05,0
2.5475,-3.7766e-05,0
2.548,-3.508e-05,0
2.5485,-4.2634e-05,0
2.549,-4.4312e-05,0
2.5495,-4.0452e-05,0
2.55,-1.8128e-05,0
2.5505,3.1052e-05,0
2.551,7.57e-05,0
2.5515,9.5171e-05,0
2.552,0.00010726,0
2.5525,0.00011531,0
2.553,0.00010692,0
2.5535,9.2485e-05,0
2.554,8.9632e-05,0
2.5545,0.00010373,0
2.555,0.0001232,0
2.5555,0.00012656,0
2.556,0.00011246,0
2.5565,9.7353e-05,0
2.557,8.5771e-05,0
2.5575,7.3686e-05,0
2.558,5.4215e-05,0
2.5585,2.7359e-05,0
2.559,-4.5319e-06,0
2.5595,-3.2563e-05,0
2.56,-4.918e-05,0
2.5605,-5.8244e-05,0
2.561,-6.4622e-05,0
2.5615,-6.2272e-05,0
2.562,-4.4648e-05,0
2.5625,-3.1052e-05,0
2.563,-3.122e-05,0
2.5635,-2.5009e-05,0
2.564,-1.5946e-05,0
2.5645,-1.3596e-05,0
2.565,-6.8818e-06,0
2.5655,2.0142e-06,0
2.566,4.1962e-06,0
2.5665,5.7069e-06,0
2.567,1.326e-05,0
2.5675,3.3234e-05,0
2.568,5.5894e-05,0
2.5685,6.7308e-05,0
2.569,6.2272e-05,0
2.5695,5.0523e-05,0
2.57,4.7166e-05,0
2.5705,5.2201e-05,0
2.571,5.4551e-05,0
2.5715,5.1026e-05,0
2.572,4.9851e-05,0
2.5725,4.2802e-05,0
2.573,1.1246e-05,0
2.5735,-5.3208e-05,0
2.574,-0.00012169,0
2.5745,-0.00015341,0
2.575,-0.00013059,0
2.5755,-7.3686e-05,0
2.576,-1.0407e-05,0
2.5765,5.8915e-05,0
2.577,0.00010927,0
2.5775,0.0001279,0
2.578,0.00013344,0
2.5785,0.00013646,0
2.579,0.00014485,0
2.5795,0.00015627,0
2.58,0.00015425,0
2.5805,0.00013898,0
2.581,0.00011666,0
2.5815,9.5171e-05,0
2.582,7.4861e-05,0
2.5825,4.683e-05,0
2.583,1.8631e-05,0
2.5835,-2.5177e-06,0
2.584,-1.0239e-05,0
2.5845,-5.539e-06,0
2.585,1.2924e-05,0
2.5855,4.3473e-05,0
2.586,7.2007e-05,0
2.5865,8.1407e-05,0
2.587,7.6371e-05,0
2.5875,5.6733e-05,0
2.588,1.7792e-05,0
2.5885,-3.3234e-05,0
2.589,-7.8721e-05,0
2.5895,-9.9199e-05,0
2.59,-0.00011212,0
2.5905,-0.00012303,0
2.591,-0.00011548,0
2.5915,-9.836e-05,0
2.592,-7.6371e-05,0
2.5925,-4.6494e-05,0
2.593,-2.8534e-05,0
2.5935,-1.9303e-05,0
2.594,3.357e-07,0
2.5945,2.1317e-05,0
2.595,3.1891e-05,0
2.5955,4.0619e-05,0
2.596,5.3544e-05,0
2.5965,7.1336e-05,0
2.597,9.7856e-05,0
2.5975,0.00013008,0
2.598,0.00015157,0
2.5985,0.00014318,0
2.599,0.00010642,0
2.5995,5.7237e-05,0
2.6,1.5946e-05,0
2.6005,4.5319e-06,0
2.601,2.5009e-05,0
2.6015,4.5487e-05,0
2.602,5.1698e-05,0
2.6025,6.0258e-05,0
2.603,6.3783e-05,0
2.6035,4.6662e-05,0
2.604,2.3667e-05,0
2.6045,6.5461e-06,0
2.605,-3.8605e-06,0
2.6055,-1.0239e-05,0
2.606,-2.9038e-05,0
2.6065,-4.5823e-05,0
2.607,-4.6159e-05,0
2.6075,-3.9445e-05,0
2.608,-2.3835e-05,0
2.6085,9.3996e-06,0
2.609,5.3376e-05,0
2.6095,0.00010105,0
2.61,0.0001378,0
2.6105,0.00013596,0
2.611,0.00010306,0
2.6115,7.1336e-05,0
2.612,4.6159e-05,0
2.6125,3.1388e-05,0
2.613,2.8367e-05,0
2.6135,2.7863e-05,0
2.614,1.9135e-05,0
2.6145,-4.1962e-06,0
2.615,-2.2324e-05,0
2.6155,-7.8889e-06,0
2.616,1.5946e-05,0
2.6165,2.5345e-05,0
2.617,1.9638e-05,0
2.6175,-2.0142e-06,0
2.618,-3.3738e-05,0
2.6185,-6.5461e-05,0
2.619,-9.9702e-05,0
2.6195,-0.00012538,0
2.62,-0.00013579,0
2.6205,-0.00014217,0
2.621,-0.00014418,0
2.6215,-0.00013596,0
2.622,-0.00011649,0
2.6225,-9.1142e-05,0
2.623,-6.2776e-05,0
2.6235,-2.9038e-05,0
2.624,1.1917e-05,0
2.6245,5.4048e-05,0
2.625,9.6178e-05,0
2.6255,0.00013176,0
2.626,0.00015023,0
2.6265,0.00015224,0
2.627,0.00014553,0
2.6275,0.00012404,0
2.628,8.9464e-05,0
2.6285,5.4215e-05,0
2.629,2.031e-05,0
2.6295,-1.3596e-05,0
2.63,-3.508e-05,0
2.6305,-5.8579e-05,0
2.631,-9.0974e-05,0
2.6315,-0.00011833,0
2.632,-0.00014217,0
2.6325,-0.00014267,0
2.633,-0.00010793,0
2.6335,-5.4887e-05,0
2.634,-8.2246e-06,0
2.6345,2.3667e-05,0
2.635,3.9109e-05,0
2.6355,3.9445e-05,0
2.636,3.0213e-05,0
2.6365,1.8967e-05,0
2.637,1.3092e-05,0
2.6375,1.4939e-05,0
2.638,2.0478e-05,0
2.6385,2.6352e-05,0
2.639,3.5752e-05,0
2.6395,4.0452e-05,0
2.64,3.8605e-05,0
2.6405,3.2898e-05,0
2.641,3.122e-05,0
2.6415,3.6591e-05,0
2.642,3.2731e-05,0
2.6425,2.9877e-05,0
2.643,4.5823e-05,0
2.6435,6.3951e-05,0
2.644,7.1e-05,0
2.6445,8.1743e-05,0
2.645,9.3492e-05,0
2.6455,0.0001039,0
2.646,0.00011867,0
2.6465,0.0001331,0
2.647,0.00014385,0
2.6475,0.00014687,0
2.648,0.00013814,0
2.6485,0.00012136,0
2.649,0.0001133,0
2.6495,0.00011397,0
2.65,0.00010977,0
2.6505,0.00010256,0
2.651,9.6513e-05,0
2.6515,9.1142e-05,0
2.652,8.4932e-05,0
2.6525,7.1e-05,0
2.653,5.3376e-05,0
2.6535,3.8102e-05,0
2.654,1.1246e-05,0
2.6545,-2.9374e-05,0
2.655,-6.5797e-05,0
2.6555,-7.4021e-05,0
2.656,-5.9587e-05,0
2.6565,-5.1698e-05,0
2.657,-3.8102e-05,0
2.6575,-7.3854e-06,0
2.658,3.0213e-06,0
2.6585,-2.6688e-05,0
2.659,-6.2776e-05,0
2.6595,-7.956e-05,0
2.66,-8.3085e-05,0
2.6605,-7.0329e-05,0
2.661,-3.5248e-05,0
2.6615,-4.1962e-06,0
2.662,3.5248e-06,0
2.6625,8.3925e-06,0
2.663,2.5345e-05,0
2.6635,5.4215e-05,0
2.664,9.1981e-05,0
2.6645,0.00012102,0
2.665,0.00013059,0
2.6655,0.00012924,0
2.666,0.0001274,0
2.6665,0.00010893,0
2.667,6.4286e-05,0
2.6675,2.1988e-05,0
2.668,-5.0355e-06,0
2.6685,-1.7288e-05,0
2.669,-1.1582e-05,0
2.6695,2.5177e-06,0
2.67,2.266e-05,0
2.6705,4.2802e-05,0
2.671,4.4984e-05,0
2.6715,3.6759e-05,0
2.672,4.4984e-05,0
2.6725,7.2847e-05,0
2.673,0.00010272,0
2.6735,0.00012538,0
2.674,0.00012555,0
2.6745,9.987e-05,0
2.675,6.7979e-05,0
2.6755,3.8102e-05,0
2.676,1.2589e-05,0
2.6765,-1.9638e-05,0
2.677,-7.7378e-05,0
2.6775,-0.00013579,0
2.678,-0.0001613,0
2.6785,-0.00015962,0
2.679,-0.00014536,0
2.6795,-0.00013579,0
2.68,-0.00014284,0
2.6805,-0.00016063,0
2.681,-0.00018883,0
2.6815,-0.00020511,0
2.682,-0.0001848,0
2.6825,-0.00014569,0
2.683,-0.00012236,0
2.6835,-0.00011699,0
2.684,-0.00011296,0
2.6845,-9.1478e-05,0
2.685,-5.153e-05,0
2.6855,-1.2757e-05,0
2.686,2.1317e-05,0
2.6865,5.6901e-05,0
2.687,8.1743e-05,0
2.6875,0.00010054,0
2.688,0.00012656,0
2.6885,0.00015996,0
2.689,0.00019588,0
2.6895,0.00021401,0
2.69,0.00020864,0
2.6905,0.00018984,0
2.691,0.00016097,0
2.6915,0.00013277,0
2.692,0.00011984,0
2.6925,0.00011179,0
2.693,0.00010591,0
2.6935,0.00010457,0
2.694,8.8457e-05,0
2.6945,5.9251e-05,0
2.695,4.0787e-05,0
2.6955,2.9374e-05,0
2.696,2.2156e-05,0
2.6965,2.3331e-05,0
2.697,1.5946e-05,0
2.6975,-1.678e-07,0
2.698,-3.1891e-06,0
2.6985,6.8818e-06,0
2.699,1.7121e-05,0
2.6995,1.6114e-05,0
2.7,1.6617e-05,0
2.7005,3.0045e-05,0
2.701,3.9948e-05,0
2.7015,4.0619e-05,0
2.702,5.0523e-05,0
2.7025,7.5029e-05,0
2.703,9.5171e-05,0
2.7035,8.7785e-05,0
2.704,4.5487e-05,0
2.7045,-2.5177e-06,0
2.705,-1.1582e-05,0
2.7055,1.5274e-05,0
2.706,4.918e-05,0
2.7065,7.7546e-05,0
2.707,8.3085e-05,0
2.7075,7.1504e-05,0
2.708,6.3783e-05,0
2.7085,6.6133e-05,0
2.709,8.51e-05,0
2.7095,9.9199e-05,0
2.71,6.7979e-05,0
2.7105,1.3596e-05,0
2.711,-3.2898e-05,0
2.7115,-5.623e-05,0
2.712,-4.1291e-05,0
2.7125,7.2175e-06,0
2.713,6.009e-05,0
2.7135,9.1646e-05,0
2.714,9.987e-05,0
2.7145,9.9199e-05,0
2.715,0.00010356,0
2.7155,0.00010188,0
2.716,6.865e-05,0
2.7165,1.0575e-05,0
2.717,-3.7095e-05,0
2.7175,-5.7237e-05,0
2.718,-6.3783e-05,0
2.7185,-8.4428e-05,0
2.719,-0.00012001,0
2.7195,-0.00014586,0
2.72,-0.00016634,0
2.7205,-0.00017087,0
2.721,-0.00014015,0
2.7215,-0.00010138,0
2.722,-8.0064e-05,0
2.7225,-7.3686e-05,0
2.723,-8.51e-05,0
2.7235,-9.5842e-05,0
2.724,-8.8457e-05,0
2.7245,-7.9057e-05,0
2.725,-6.7979e-05,0
2.7255,-4.6494e-05,0
2.726,-1.2253e-05,0
2.7265,2.7695e-05,0
2.727,5.7069e-05,0
2.7275,6.63e-05,0
2.728,6.3447e-05,0
2.7285,6.1601e-05,0
2.729,7.2679e-05,0
2.7295,9.0135e-05,0
2.73,0.00010826,0
2.7305,0.0001227,0
2.731,0.00012673,0
2.7315,0.00011414,0
2.732,9.3828e-05,0
2.7325,8.3085e-05,0
2.733,8.5771e-05,0
2.7335,9.366e-05,0
2.734,9.7856e-05,0
2.7345,8.6946e-05,0
2.735,6.479e-05,0
2.7355,4.5319e-05,0
2.736,3.0213e-05,0
2.7365,3.5416e-05,0
2.737,4.8005e-05,0
2.7375,3.3402e-05,0
2.738,0,0
2.7385,-3.3066e-05,0
2.739,-5.7908e-05,0
2.7395,-6.0426e-05,0
2.74,-3.9109e-05,0
2.7405,-1.1749e-05,0
2.741,1.1582e-05,0
2.7415,2.8367e-05,0
2.742,3.8605e-05,0
2.7425,4.4816e-05,0
2.743,4.3305e-05,0
2.7435,3.4577e-05,0
2.744,3.1724e-05,0
2.7445,3.122e-05,0
2.745,3.4073e-05,0
2.7455,5.2201e-05,0
2.746,6.6972e-05,0
2.7465,7.6707e-05,0
2.747,9.4835e-05,0
2.7475,0.0001086,0
2.748,0.00011095,0
2.7485,0.00011464,0
2.749,0.00011565,0
2.7495,0.00011128,0
2.75,0.00010037,0
2.7505,7.805e-05,0
2.751,4.2634e-05,0
2.7515,9.2317e-06,0
2.752,-1.2253e-05,0
2.7525,-2.1988e-05,0
2.753,-2.9709e-05,0
2.7535,-3.978e-05,0
2.754,-4.2802e-05,0
2.7545,-4.5823e-05,0
2.755,-5.0858e-05,0
2.7555,-4.0955e-05,0
2.756,-1.9135e-05,0
2.7565,-1.3764e-05,0
2.757,-3.1052e-05,0
2.7575,-5.8747e-05,0
2.758,-8.0735e-05,0
2.7585,-8.0064e-05,0
2.759,-7.0664e-05,0
2.7595,-5.9419e-05,0
2.76,-4.3641e-05,0
2.7605,-3.1052e-05,0
2.761,-1.2253e-05,0
2.7615,2.5345e-05,0
2.762,6.4286e-05,0
2.7625,9.6513e-05,0
2.763,0.00011699,0
2.7635,0.00012203,0
2.764,0.00011464,0
2.7645,9.4163e-05,0
2.765,6.4958e-05,0
2.7655,3.3738e-05,0
2.766,-1.1749e-06,0
2.7665,-2.7024e-05,0
2.767,-3.743e-05,0
2.7675,-3.6423e-05,0
2.768,-2.8031e-05,0
2.7685,-2.6017e-05,0
2.769,-3.4241e-05,0
2.7695,-4.1291e-05,0
2.77,-3.6759e-05,0
2.7705,-3.2395e-05,0
2.771,-3.0381e-05,0
2.7715,-1.9974e-05,0
2.772,-6.8818e-06,0
2.7725,7.5532e-06,0
2.773,2.031e-05,0
2.7735,1.5946e-05,0
2.774,3.5248e-06,0
2.7745,-3.0213e-06,0
2.775,-1.1749e-05,0
2.7755,-1.4603e-05,0
2.776,-7.5532e-06,0
2.7765,-1.0407e-05,0
2.777,-2.2492e-05,0
2.7775,-3.7766e-05,0
2.778,-6.9322e-05,0
2.7785,-0.00011061,0
2.779,-0.00011833,0
2.7795,-7.57e-05,0
2.78,-1.7624e-05,0
2.7805,2.8702e-05,0
2.781,7.1336e-05,0
2.7815,0.00011397,0
2.782,0.00014217,0
2.7825,0.0001556,0
2.783,0.00016265,0
2.7835,0.00014754,0
2.784,0.00012908,0
2.7845,0.0001462,0
2.785,0.00017943,0
2.7855,0.00019991,0
2.786,0.00020797,0
2.7865,0.00019454,0
2.787,0.00016097,0
2.7875,0.00012001,0
2.788,8.04e-05,0
2.7885,5.3544e-05,0
2.789,5.4719e-05,0
2.7895,7.335e-05,0
2.79,8.2582e-05,0
2.7905,7.5029e-05,0
2.791,6.3447e-05,0
2.7915,5.2537e-05,0
2.792,3.6927e-05,0
2.7925,1.8631e-05,0
2.793,-8.392e-07,0
2.7935,-2.1317e-05,0
2.794,-3.4409e-05,0
2.7945,-4.5487e-05,0
2.795,-5.9251e-05,0
2.7955,-7.335e-05,0
2.796,-8.1407e-05,0
2.7965,-9.1142e-05,0
2.797,-9.836e-05,0
2.7975,-8.8121e-05,0
2.798,-7.7882e-05,0
2.7985,-7.805e-05,0
2.799,-7.57e-05,0
2.7995,-6.949e-05,0
2.8,-5.8747e-05,0
2.8005,-3.9109e-05,0
2.801,-2.5009e-05,0
2.8015,-1.8631e-05,0
2.802,-8.2246e-06,0
2.8025,9.2317e-06,0
2.803,2.4002e-05,0
2.8035,3.4745e-05,0
2.804,3.9109e-05,0
2.8045,3.5752e-05,0
2.805,3.2731e-05,0
2.8055,3.592e-05,0
2.806,3.1388e-05,0
2.8065,8.2246e-06,0
2.807,-1.6785e-05,0
2.8075,-2.0981e-05,0
2.808,-5.539e-06,0
2.8085,1.796e-05,0
2.809,3.2059e-05,0
2.8095,2.2324e-05,0
2.81,-2.8534e-06,0
2.8105,-1.0575e-05,0
2.811,-1.678e-07,0
2.8115,2.2324e-05,0
2.812,5.2872e-05,0
2.8125,7.0664e-05,0
2.813,6.9657e-05,0
2.8135,5.5894e-05,0
2.814,3.122e-05,0
2.8145,1.2253e-05,0
2.815,1.4939e-05,0
2.8155,2.4674e-05,0
2.816,3.2563e-05,0
2.8165,4.2802e-05,0
2.817,5.623e-05,0
2.8175,6.9657e-05,0
2.818,7.6371e-05,0
2.8185,7.2847e-05,0
2.819,5.4887e-05,0
2.8195,2.5513e-05,0
2.82,-5.539e-06,0
2.8205,-3.7095e-05,0
2.821,-6.3279e-05,0
2.8215,-6.9322e-05,0
2.822,-5.2872e-05,0
2.8225,-3.6423e-05,0
2.823,-2.9877e-05,0
2.8235,-1.6953e-05,0
2.824,1.678e-07,0
2.8245,1.5274e-05,0
2.825,4.213e-05,0
2.8255,7.4189e-05,0
2.826,0.00010289,0
2.8265,0.00012639,0
2.827,0.00012589,0
2.8275,0.00011514,0
2.828,0.00012219,0
2.8285,0.00013378,0
2.829,0.00012941,0
2.8295,0.0001133,0
2.83,0.00010054,0
2.8305,9.0974e-05,0
2.831,7.2175e-05,0
2.8315,5.0019e-05,0
2.832,2.6017e-05,0
2.8325,1.1582e-05,0
2.833,2.031e-05,0
2.8335,4.213e-05,0
2.834,4.5823e-05,0
2.8345,2.0813e-05,0
2.835,-1.1749e-05,0
2.8355,-3.8773e-05,0
2.836,-6.1769e-05,0
2.8365,-6.9993e-05,0
2.837,-6.0258e-05,0
2.8375,-3.7095e-05,0
2.838,-4.3641e-06,0
2.8385,1.2421e-05,0
2.839,1.5778e-05,0
2.8395,2.5681e-05,0
2.84,3.3066e-05,0
2.8405,2.887e-05,0
2.841,2.266e-05,0
2.8415,1.1917e-05,0
2.842,-4.5319e-06,0
2.8425,-2.5009e-05,0
2.843,-4.7501e-05,0
2.8435,-7.57e-05,0
2.844,-0.00010155,0
2.8445,-0.00010843,0
2.845,-9.6178e-05,0
2.8455,-8.1407e-05,0
2.846,-6.7308e-05,0
2.8465,-4.448e-05,0
2.847,-1.6617e-05,0
2.8475,3.6927e-06,0
2.848,1.1749e-06,0
2.8485,-1.9303e-05,0
2.849,-2.3331e-05,0
2.8495,7.0497e-06,0
2.85,4.0955e-05,0
2.8505,6.6972e-05,0
2.851,9.5171e-05,0
2.8515,0.00011531,0
2.852,0.0001326,0
2.8525,0.0001608,0
2.853,0.0001843,0
2.8535,0.00019168,0
2.854,0.00019185,0
2.8545,0.00017826,0
2.855,0.00014166,0
2.8555,8.1071e-05,0
2.856,9.7353e-06,0
2.8565,-4.3305e-05,0
2.857,-5.6565e-05,0
2.8575,-4.2466e-05,0
2.858,-2.7192e-05,0
2.8585,-2.7024e-05,0
2.859,-3.6591e-05,0
2.8595,-3.9948e-05,0
2.86,-3.6759e-05,0
2.8605,-3.0381e-05,0
2.861,-2.5009e-05,0
2.8615,-2.3667e-05,0
2.862,-2.8367e-05,0
2.8625,-4.2466e-05,0
2.863,-7.9728e-05,0
2.8635,-0.00010625,0
2.864,-8.9128e-05,0
2.8645,-5.774e-05,0
2.865,-3.7766e-05,0
2.8655,-1.796e-05,0
2.866,-1.1749e-06,0
2.8665,1.1917e-05,0
2.867,2.5681e-05,0
2.8675,3.743e-05,0
2.868,3.743e-05,0
2.8685,2.3835e-05,0
2.869,1.0407e-05,0
2.8695,7.2175e-06,0
2.87,1.1582e-05,0
2.8705,1.796e-05,0
2.871,2.4002e-05,0
2.8715,3.6423e-05,0
2.872,5.2872e-05,0
2.8725,7.3182e-05,0
2.873,8.9464e-05,0
2.8735,9.0303e-05,0
2.874,8.3589e-05,0
2.8745,7.2343e-05,0
2.875,5.5894e-05,0
2.8755,4.8005e-05,0
2.876,4.1459e-05,0
2.8765,4.3473e-05,0
2.877,7.5868e-05,0
2.8775,0.00011196,0
2.878,0.00011632,0
2.8785,8.3757e-05,0
2.879,2.7695e-05,0
2.8795,-1.1917e-05,0
2.88,-4.3641e-06,0
2.8805,3.4073e-05,0
2.881,6.6972e-05,0
2.8815,6.9657e-05,0
2.882,3.978e-05,0
2.8825,-1.8463e-06,0
2.883,-3.1891e-05,0
2.8835,-3.122e-05,0
2.884,-1.7288e-05,0
2.8845,-2.6352e-05,0
2.885,-6.009e-05,0
2.8855,-0.00010642,0
2.886,-0.00015593,0
2.8865,-0.00019236,0
2.887,-0.0001749,0
2.8875,-0.0001039,0
2.888,-2.8367e-05,0
2.8885,4.213e-05,0
2.889,0.00010893,0
2.8895,0.000165,0
2.89,0.0002036,0
2.8905,0.00020545,0
2.891,0.00017272,0
2.8915,0.00013613,0
2.892,0.00010356,0
2.8925,6.6804e-05,0
2.893,2.7192e-05,0
2.8935,-9.0639e-06,0
2.894,-3.7766e-05,0
2.8945,-5.5726e-05,0
2.895,-6.1601e-05,0
2.8955,-4.6494e-05,0
2.896,-1.6785e-05,0
2.8965,6.714e-07,0
2.897,2.8534e-06,0
2.8975,9.7353e-06,0
2.898,2.4002e-05,0
2.8985,3.3402e-05,0
2.899,2.4002e-05,0
2.8995,5.035e-07,0
2.9,-9.5674e-06,0
2.9005,-5.0355e-06,0
2.901,-8.392e-07,0
2.9015,6.8818e-06,0
2.902,6.0426e-06,0
2.9025,-3.1891e-06,0
2.903,4.3641e-06,0
2.9035,1.7288e-05,0
2.904,1.947e-05,0
2.9045,2.8702e-05,0
2.905,3.0716e-05,0
2.9055,8.7282e-06,0
2.906,-7.2175e-06,0
2.9065,8.392e-07,0
2.907,2.7192e-05,0
2.9075,6.4958e-05,0
2.908,9.7856e-05,0
2.9085,0.00010407,0
2.909,8.3925e-05,0
2.9095,5.623e-05,0
2.91,3.3906e-05,0
2.9105,1.9806e-05,0
2.911,1.1749e-06,0
2.9115,-2.2156e-05,0
2.912,-3.9948e-05,0
2.9125,-5.2201e-05,0
2.913,-4.8173e-05,0
2.9135,-2.0478e-05,0
2.914,2.3499e-05,0
2.9145,6.5797e-05,0
2.915,8.1743e-05,0
2.9155,7.5029e-05,0
2.916,6.865e-05,0
2.9165,5.9922e-05,0
2.917,4.3977e-05,0
2.9175,3.3906e-05,0
2.918,2.652e-05,0
2.9185,2.2995e-05,0
2.919,2.6017e-05,0
2.9195,2.2995e-05,0
2.92,1.947e-05,0
2.9205,3.0045e-05,0
2.921,5.623e-05,0
2.9215,8.745e-05,0
2.922,0.00011095,0
2.9225,0.00012136,0
2.923,0.00012303,0
2.9235,0.00011632,0
2.924,0.0001039,0
2.9245,8.3085e-05,0
2.925,5.4719e-05,0
2.9255,2.7359e-05,0
2.926,1.1582e-05,0
2.9265,2.5177e-06,0
2.927,-6.714e-07,0
2.9275,4.8676e-06,0
2.928,4.1962e-06,0
2.9285,-2.8534e-06,0
2.929,-4.0284e-06,0
2.9295,-1.6785e-06,0
2.93,3.1891e-06,0
2.9305,1.8631e-05,0
2.931,3.6088e-05,0
2.9315,4.5151e-05,0
2.932,4.1795e-05,0
2.9325,3.0716e-05,0
2.933,2.6688e-05,0
2.9335,2.2324e-05,0
2.934,4.8676e-06,0
2.9345,-1.7624e-05,0
2.935,-3.0381e-05,0
2.9355,-2.8534e-05,0
2.936,-1.561e-05,0
2.9365,1.8463e-06,0
2.937,2.3667e-05,0
2.9375,5.2201e-05,0
2.938,8.8457e-05,0
2.9385,0.00012438,0
2.939,0.00014401,0
2.9395,0.00014183,0
2.94,0.00012656,0
2.9405,0.00011531,0
2.941,0.00010188,0
2.9415,7.6204e-05,0
2.942,4.3809e-05,0
2.9425,6.714e-06,0
2.943,-4.3137e-05,0
2.9435,-9.1814e-05,0
2.944,-0.00011716,0
2.9445,-0.00011162,0
2.945,-8.8792e-05,0
2.9455,-7.1672e-05,0
2.946,-7.4861e-05,0
2.9465,-9.2149e-05,0
2.947,-0.00011145,0
2.9475,-0.00012303,0
2.948,-0.00011901,0
2.9485,-0.00010105,0
2.949,-8.275e-05,0
2.9495,-6.7979e-05,0
2.95,-5.6901e-05,0
2.9505,-5.3376e-05,0
2.951,-5.153e-05,0
2.9515,-3.2898e-05,0
2.952,0,0
2.9525,1.4099e-05,0
2.953,-2.5177e-06,0
2.9535,-2.5345e-05,0
2.954,-3.6759e-05,0
2.9545,-3.6255e-05,0
2.955,-3.0381e-05,0
2.9555,-3.1388e-05,0
2.956,-3.2059e-05,0
2.9565,-3.0213e-05,0
2.957,-4.4312e-05,0
2.9575,-6.1601e-05,0
2.958,-5.2537e-05,0
2.9585,-2.1653e-05,0
2.959,6.2104e-06,0
2.9595,1.6953e-05,0
2.96,2.1988e-05,0
2.9605,3.4745e-05,0
2.961,5.5894e-05,0
2.9615,9.2149e-05,0
2.962,0.00013948,0
2.9625,0.00017574,0
2.963,0.00019185,0
2.9635,0.00018614,0
2.964,0.0001556,0
2.9645,0.00011615,0
2.965,0.00010021,0
2.9655,0.00010726,0
2.966,0.00011296,0
2.9665,0.00010591,0
2.967,7.57e-05,0
2.9675,4.0787e-05,0
2.968,3.5248e-05,0
2.9685,4.2802e-05,0
2.969,4.1459e-05,0
2.9695,3.4745e-05,0
2.97,1.5106e-06,0
2.9705,-4.0116e-05,0
2.971,-5.0523e-05,0
2.9715,-3.508e-05,0
2.972,-1.7288e-05,0
2.9725,-1.6114e-05,0
2.973,-2.652e-05,0
2.9735,-3.6423e-05,0
2.974,-3.8437e-05,0
2.9745,-3.1388e-05,0
2.975,-1.6449e-05,0
2.9755,-2.5177e-06,0
2.976,1.0071e-06,0
2.9765,-9.5674e-06,0
2.977,-2.1317e-05,0
2.9775,-3.3402e-05,0
2.978,-5.4551e-05,0
2.9785,-8.1407e-05,0
2.979,-9.6849e-05,0
2.9795,-7.7043e-05,0
2.98,-3.3738e-05,0
2.9805,4.8676e-06,0
2.981,3.3066e-05,0
2.9815,4.1459e-05,0
2.982,3.6423e-05,0
2.9825,3.1724e-05,0
2.983,1.3596e-05,0
2.9835,-8.5603e-06,0
2.984,-1.2253e-05,0
2.9845,-8.7282e-06,0
2.985,-1.5106e-06,0
2.9855,2.6688e-05,0
2.986,7.4189e-05,0
2.9865,0.00011598,0
2.987,0.00012706,0
2.9875,0.00011632,0
2.988,0.00010692,0
2.9885,9.9199e-05,0
2.989,8.7785e-05,0
2.9895,8.5267e-05,0
2.99,0.00010054,0
2.9905,0.00012807,0
2.991,0.00014653,0
2.9915,0.0001556,0
2.992,0.0001791,0
2.9925,0.00024154,0
2.993,0.00030599,0
2.9935,0.00034359,0
2.994,0.00034762,0
2.9945,0.00030297,0
2.995,0.00022744,0
2.9955,0.00015492,0
2.996,8.7282e-05,0
2.9965,1.7288e-05,0
2.997,-5.0187e-05,0
2.9975,-0.000118,0
2.998,-0.00017708,0
2.9985,-0.00020931,0
2.999,-0.00021451,0
2.9995,-0.00019219,0
3,-0.00014519,0
3.0005,-8.7617e-05,0
3.001,-4.1291e-05,0
3.0015,-7.5532e-06,0
3.002,2.8367e-05,0
3.0025,6.949e-05,0
3.003,0.00010037,0
3.0035,0.00011061,0
3.004,0.00011128,0
3.0045,0.00010726,0
3.005,9.0806e-05,0
3.0055,6.9657e-05,0
3.006,4.5823e-05,0
3.0065,5.8747e-06,0
3.007,-2.7024e-05,0
3.0075,-3.1052e-05,0
3.008,-1.0071e-05,0
3.0085,2.4674e-05,0
3.009,4.8173e-05,0
3.0095,4.7501e-05,0
3.01,3.3738e-05,0
3.0105,1.326e-05,0
3.011,-1.3092e-05,0
3.0115,-5.2201e-05,0
3.012,-0.00010289,0
3.0125,-0.00013629,0
3.013,-0.00014687,0
3.0135,-0.00015358,0
3.014,-0.00013915,0
3.0145,-9.6849e-05,0
3.015,-5.1194e-05,0
3.0155,-1.2253e-05,0
3.016,1.6281e-05,0
3.0165,2.8534e-05,0
3.017,3.743e-05,0
3.0175,5.3544e-05,0
3.018,8.3085e-05,0
3.0185,0.00011498,0
3.019,0.00012068,0
3.0195,0.00010692,0
3.02,9.7856e-05,0
3.0205,9.8192e-05,0
3.021,9.6513e-05,0
3.0215,6.8986e-05,0
3.022,6.714e-07,0
3.0225,-7.3686e-05,0
3.023,-0.00012236,0
3.0235,-0.00015056,0
3.024,-0.0001566,0
3.0245,-0.00013445,0
3.025,-0.00010222,0
3.0255,-7.8553e-05,0
3.026,-5.0523e-05,0
3.0265,-3.1891e-06,0
3.027,3.978e-05,0
3.0275,5.4215e-05,0
3.028,4.7837e-05,0
3.0285,3.6088e-05,0
3.029,2.4002e-05,0
3.0295,1.2589e-05,0
3.03,1.1749e-06,0
3.0305,-1.1246e-05,0
3.031,-1.4939e-05,0
3.0315,-1.0071e-06,0
3.032,1.2253e-05,0
3.0325,1.326e-05,0
3.033,1.6449e-05,0
3.0335,3.0045e-05,0
3.034,4.5487e-05,0
3.0345,6.4286e-05,0
3.035,7.3686e-05,0
3.0355,5.8579e-05,0
3.036,2.9709e-05,0
3.0365,1.1749e-06,0
3.037,-1.8128e-05,0
3.0375,-1.5778e-05,0
3.038,6.5461e-06,0
3.0385,2.7024e-05,0
3.039,3.6591e-05,0
3.0395,4.2802e-05,0
3.04,4.7166e-05,0
3.0405,4.8508e-05,0
3.041,4.6159e-05,0
3.0415,3.5416e-05,0
3.042,1.2589e-05,0
3.0425,-7.2175e-06,0
3.043,-5.7069e-06,0
3.0435,9.5674e-06,0
3.044,2.2995e-05,0
3.0445,4.0452e-05,0
3.045,5.7572e-05,0
3.0455,6.9322e-05,0
3.046,8.0232e-05,0
3.0465,7.1168e-05,0
3.047,4.3977e-05,0
3.0475,1.9806e-05,0
3.048,-2.5177e-06,0
3.0485,-1.5946e-05,0
3.049,-2.5177e-06,0
3.0495,3.2059e-05,0
3.05,7.0664e-05,0
3.0505,0.00011716,0
3.051,0.00016466,0
3.0515,0.00019454,0
3.052,0.00019907,0
3.0525,0.00018514,0
3.053,0.00015862,0
3.0535,0.00010759,0
3.054,2.9038e-05,0
3.0545,-4.2634e-05,0
3.055,-6.6804e-05,0
3.0555,-5.623e-05,0
3.056,-3.3234e-05,0
3.0565,-1.947e-05,0
3.057,-2.6688e-05,0
3.0575,-3.1724e-05,0
3.058,-3.0381e-05,0
3.0585,-3.978e-05,0
3.059,-5.0019e-05,0
3.0595,-4.3809e-05,0
3.06,-1.947e-05,0
3.0605,0,0
3.061,-1.091e-05,0
3.0615,-4.1123e-05,0
3.062,-5.5894e-05,0
3.0625,-3.2563e-05,0
3.063,1.4603e-05,0
3.0635,4.4816e-05,0
3.064,3.9109e-05,0
3.0645,5.539e-06,0
3.065,-4.213e-05,0
3.0655,-8.3421e-05,0
3.066,-0.00010507,0
3.0665,-0.00010625,0
3.067,-8.8624e-05,0
3.0675,-5.6901e-05,0
3.068,-1.7624e-05,0
3.0685,1.6449e-05,0
3.069,3.9109e-05,0
3.0695,4.9851e-05,0
3.07,5.6565e-05,0
3.0705,8.1743e-05,0
3.071,0.00011061,0
3.0715,0.00013109,0
3.072,0.00014318,0
3.0725,0.00013059,0
3.073,8.9128e-05,0
3.0735,2.7527e-05,0
3.074,-6.4958e-05,0
3.0745,-0.00016953,0
3.075,-0.00022257,0
3.0755,-0.00021199,0
3.076,-0.0001702,0
3.0765,-0.00012924,0
3.077,-9.9702e-05,0
3.0775,-7.57e-05,0
3.078,-5.1194e-05,0
3.0785,-7.7211e-06,0
3.079,6.2272e-05,0
3.0795,0.00014318,0
3.08,0.00020931,0
3.0805,0.0002454,0
3.081,0.00024959,0
3.0815,0.00023465,0
3.082,0.00020595,0
3.0825,0.00015879,0
3.083,0.00011078,0
3.0835,8.8792e-05,0
3.084,6.865e-05,0
3.0845,3.1388e-05,0
3.085,8.7282e-06,0
3.0855,1.4603e-05,0
3.086,3.2059e-05,0
3.0865,4.3473e-05,0
3.087,2.8534e-05,0
3.0875,-5.539e-06,0
3.088,-3.2395e-05,0
3.0885,-5.1362e-05,0
3.089,-6.8818e-05,0
3.0895,-7.9896e-05,0
3.09,-8.8121e-05,0
3.0905,-9.2821e-05,0
3.091,-7.805e-05,0
