0,-1.1749e-05,0
0.0005,-2.0478e-05,0
0.001,-2.3835e-05,0
0.0015,-1.7288e-05,0
0.002,-6.2104e-06,0
0.0025,2.182e-06,0
0.003,8.5603e-06,0
0.0035,1.6281e-05,0
0.004,2.3835e-05,0
0.0045,2.8534e-05,0
0.005,3.592e-05,0
0.0055,5.0355e-05,0
0.006,6.2272e-05,0
0.0065,6.0761e-05,0
0.007,4.8173e-05,0
0.0075,3.9948e-05,0
0.008,4.4144e-05,0
0.0085,5.1698e-05,0
0.009,5.9251e-05,0
0.0095,6.5461e-05,0
0.01,7.3686e-05,0
0.0105,8.9296e-05,0
0.011,9.9535e-05,0
0.0115,9.5003e-05,0
0.012,8.0735e-05,0
0.0125,6.7308e-05,0
0.013,5.8244e-05,0
0.0135,4.8844e-05,0
0.014,3.6423e-05,0
0.0145,2.266e-05,0
0.015,1.1749e-06,0
0.0155,-2.8367e-05,0
0.016,-4.5823e-05,0
0.0165,-3.508e-05,0
0.017,-1.4267e-05,0
0.0175,-9.2317e-06,0
0.018,-1.8631e-05,0
0.0185,-2.7024e-05,0
0.019,-2.7024e-05,0
0.0195,-1.8967e-05,0
0.02,-1.1749e-05,0
0.0205,-8.7282e-06,0
0.021,-2.182e-06,0
0.0215,-8.392e-07,0
0.022,-1.4939e-05,0
0.0225,-3.2395e-05,0
0.023,-3.508e-05,0
0.0235,-2.2324e-05,0
0.024,-8.392e-07,0
0.0245,2.1988e-05,0
0.025,3.6088e-05,0
0.0255,3.7934e-05,0
0.026,3.2395e-05,0
0.0265,2.7024e-05,0
0.027,1.9974e-05,0
0.0275,1.2253e-05,0
0.028,5.539e-06,0
0.0285,2.5177e-06,0
0.029,4.6998e-06,0
0.0295,1.1917e-05,0
0.03,2.4338e-05,0
0.0305,3.9445e-05,0
0.031,4.3641e-05,0
0.0315,3.2059e-05,0
0.032,2.1653e-05,0
0.0325,2.0646e-05,0
0.033,1.4939e-05,0
0.0335,-9.2317e-06,0
0.034,-3.3066e-05,0
0.0345,-3.8437e-05,0
0.035,-2.9038e-05,0
0.0355,-1.4435e-05,0
0.036,-1.5106e-06,0
0.0365,7.3854e-06,0
0.037,1.3932e-05,0
0.0375,1.6449e-05,0
0.038,1.5778e-05,0
0.0385,2.0646e-05,0
0.039,3.8102e-05,0
0.0395,5.623e-05,0
0.04,6.009e-05,0
0.0405,5.1865e-05,0
0.041,4.1459e-05,0
0.0415,3.2059e-05,0
0.042,1.9974e-05,0
0.0425,4.8676e-06,0
0.043,-4.5319e-06,0
0.0435,-4.1962e-06,0
0.044,3.8605e-06,0
0.0445,1.4267e-05,0
0.045,2.5009e-05,0
0.0455,3.1388e-05,0
0.046,3.2731e-05,0
0.0465,3.2395e-05,0
0.047,3.2059e-05,0
0.0475,3.743e-05,0
0.048,5.0858e-05,0
0.0485,6.1601e-05,0
0.049,5.9587e-05,0
0.0495,5.0858e-05,0
0.05,4.213e-05,0
0.0505,3.6423e-05,0
0.051,4.0787e-05,0
0.0515,5.4215e-05,0
0.052,6.4286e-05,0
0.0525,6.9154e-05,0
0.053,7.8218e-05,0
0.0535,8.1239e-05,0
0.054,6.3615e-05,0
0.0545,3.9445e-05,0
0.055,2.7024e-05,0
0.0555,2.5681e-05,0
0.056,2.4674e-05,0
0.0565,1.6449e-05,0
0.057,1.0071e-06,0
0.0575,-1.3428e-05,0
0.058,-1.561e-05,0
0.0585,0,0
0.059,1.947e-05,0
0.0595,3.0716e-05,0
0.06,3.8605e-05,0
0.0605,4.213e-05,0
0.061,3.3066e-05,0
0.0615,1.0575e-05,0
0.062,-1.4603e-05,0
0.0625,-3.4073e-05,0
0.063,-4.6494e-05,0
0.0635,-4.9851e-05,0
0.064,-4.6998e-05,0
0.0645,-4.213e-05,0
0.065,-3.9109e-05,0
0.0655,-3.978e-05,0
0.066,-4.0787e-05,0
0.0665,-3.8773e-05,0
0.067,-3.7095e-05,0
0.0675,-3.592e-05,0
0.068,-3.1052e-05,0
0.0685,-2.1988e-05,0
0.069,-1.1582e-05,0
0.0695,-1.5106e-06,0
0.07,7.8889e-06,0
0.0705,1.561e-05,0
0.071,2.3163e-05,0
0.0715,3.0213e-05,0
0.072,3.5416e-05,0
0.0725,3.4409e-05,0
0.073,2.7359e-05,0
0.0735,2.0981e-05,0
0.074,2.0142e-05,0
0.0745,2.9374e-05,0
0.075,4.683e-05,0
0.0755,6.5797e-05,0
0.076,8.3757e-05,0
0.0765,0.00010323,0
0.077,0.00011464,0
0.0775,0.00010726,0
0.078,8.6946e-05,0
0.0785,6.6972e-05,0
0.079,4.918e-05,0
0.0795,3.1052e-05,0
0.08,1.561e-05,0
0.0805,1.1917e-05,0
0.081,2.2324e-05,0
0.0815,4.4144e-05,0
0.082,6.6468e-05,0
0.0825,7.4021e-05,0
0.083,6.5293e-05,0
0.0835,4.8173e-05,0
0.084,2.266e-05,0
0.0845,-4.3641e-06,0
0.085,-1.8463e-05,0
0.0855,-1.9806e-05,0
0.086,-1.6281e-05,0
0.0865,-1.2757e-05,0
0.087,-8.896e-06,0
0.0875,-8.392e-07,0
0.088,8.2246e-06,0
0.0885,1.5778e-05,0
0.089,2.0142e-05,0
0.0895,2.1317e-05,0
0.09,2.031e-05,0
0.0905,1.796e-05,0
0.091,1.3932e-05,0
0.0915,5.539e-06,0
0.092,-1.3428e-06,0
0.0925,-3.357e-06,0
0.093,-6.714e-07,0
0.0935,6.5461e-06,0
0.094,1.1582e-05,0
0.0945,7.2175e-06,0
0.095,1.678e-07,0
0.0955,-2.8534e-06,0
0.096,8.392e-07,0
0.0965,9.5674e-06,0
0.097,1.326e-05,0
0.0975,9.5674e-06,0
0.098,5.2033e-06,0
0.0985,4.3641e-06,0
0.099,5.8747e-06,0
0.0995,7.2175e-06,0
0.1,5.8747e-06,0
0.1005,1.8463e-06,0
0.101,0,0
0.1015,1.6785e-06,0
0.102,6.8818e-06,0
0.1025,1.4603e-05,0
0.103,2.3331e-05,0
0.1035,3.2059e-05,0
0.104,4.1291e-05,0
0.1045,4.8676e-05,0
0.105,6.0594e-05,0
0.1055,7.9225e-05,0
0.106,9.8192e-05,0
0.1065,0.00011514,0
0.107,0.00012807,0
0.1075,0.00013478,0
0.108,0.00013629,0
0.1085,0.00013411,0
0.109,0.00012924,0
0.1095,0.00011044,0
0.11,7.0664e-05,0
0.1105,1.9638e-05,0
0.111,-2.887e-05,0
0.1115,-6.479e-05,0
0.112,-8.3757e-05,0
0.1125,-8.2078e-05,0
0.113,-6.865e-05,0
0.1135,-5.9419e-05,0
0.114,-5.8244e-05,0
0.1145,-5.8244e-05,0
0.115,-5.9754e-05,0
0.1155,-6.9993e-05,0
0.116,-8.5435e-05,0
0.1165,-9.7856e-05,0
0.117,-9.2989e-05,0
0.1175,-6.3783e-05,0
0.118,-1.561e-05,0
0.1185,3.4745e-05,0
0.119,7.2343e-05,0
0.1195,9.3156e-05,0
0.12,9.6513e-05,0
0.1205,8.6442e-05,0
0.121,6.7643e-05,0
0.1215,4.5487e-05,0
0.122,3.743e-05,0
0.1225,4.6159e-05,0
0.123,5.0858e-05,0
0.1235,4.1459e-05,0
0.124,2.7359e-05,0
0.1245,1.1749e-05,0
0.125,-1.0239e-05,0
0.1255,-3.4409e-05,0
0.126,-4.8341e-05,0
0.1265,-5.3208e-05,0
0.127,-5.6565e-05,0
0.1275,-5.8579e-05,0
0.128,-5.3208e-05,0
0.1285,-3.508e-05,0
0.129,-1.0239e-05,0
0.1295,5.8747e-06,0
0.13,7.5532e-06,0
0.1305,5.8747e-06,0
0.131,1.1246e-05,0
0.1315,2.5345e-05,0
0.132,4.3305e-05,0
0.1325,6.2272e-05,0
0.133,6.9825e-05,0
0.1335,6.1769e-05,0
0.134,5.0187e-05,0
0.1345,4.6326e-05,0
0.135,4.6159e-05,0
0.1355,3.978e-05,0
0.136,2.6017e-05,0
0.1365,1.7288e-05,0
0.137,1.5442e-05,0
0.1375,1.3932e-05,0
0.138,9.9031e-06,0
0.1385,8.3925e-06,0
0.139,9.9031e-06,0
0.1395,1.4267e-05,0
0.14,2.3331e-05,0
0.1405,3.3906e-05,0
0.141,4.1123e-05,0
0.1415,4.3977e-05,0
0.142,4.5991e-05,0
0.1425,4.6662e-05,0
0.143,4.6159e-05,0
0.1435,4.4816e-05,0
0.144,4.5151e-05,0
0.1445,4.683e-05,0
0.145,4.4816e-05,0
0.1455,3.743e-05,0
0.146,2.9038e-05,0
0.1465,2.6352e-05,0
0.147,3.0716e-05,0
0.1475,3.7095e-05,0
0.148,3.7766e-05,0
0.1485,3.6759e-05,0
0.149,3.6423e-05,0
0.1495,3.3906e-05,0
0.15,3.2731e-05,0
0.1505,3.592e-05,0
0.151,3.9109e-05,0
0.1515,3.8437e-05,0
0.152,3.508e-05,0
0.1525,3.2059e-05,0
0.153,3.3906e-05,0
0.1535,4.448e-05,0
0.154,6.5126e-05,0
0.1545,8.6442e-05,0
0.155,9.752e-05,0
0.1555,9.8527e-05,0
0.156,9.6513e-05,0
0.1565,8.7114e-05,0
0.157,6.6804e-05,0
0.1575,4.3473e-05,0
0.158,2.1317e-05,0
0.1585,-8.392e-07,0
0.159,-2.1653e-05,0
0.1595,-3.3402e-05,0
0.16,-3.5584e-05,0
0.1605,-3.4409e-05,0
0.161,-3.2563e-05,0
0.1615,-3.122e-05,0
0.162,-2.8702e-05,0
0.1625,-2.8367e-05,0
0.163,-3.2731e-05,0
0.1635,-3.3906e-05,0
0.164,-2.5681e-05,0
0.1645,-8.2246e-06,0
0.165,1.5946e-05,0
0.1655,4.1795e-05,0
0.166,6.0929e-05,0
0.1665,6.7308e-05,0
0.167,5.8747e-05,0
0.1675,3.9277e-05,0
0.168,2.1317e-05,0
0.1685,1.3764e-05,0
0.169,1.3092e-05,0
0.1695,1.1582e-05,0
0.17,1.0071e-06,0
0.1705,-1.6617e-05,0
0.171,-3.122e-05,0
0.1715,-3.827e-05,0
0.172,-4.2466e-05,0
0.1725,-4.6159e-05,0
0.173,-4.7166e-05,0
0.1735,-3.9948e-05,0
0.174,-1.6617e-05,0
0.1745,1.8631e-05,0
0.175,4.6494e-05,0
0.1755,6.6972e-05,0
0.176,9.2149e-05,0
0.1765,0.00011229,0
0.177,0.00010692,0
0.1775,8.0064e-05,0
0.178,5.0858e-05,0
0.1785,2.5345e-05,0
0.179,3.6927e-06,0
0.1795,-8.5603e-06,0
0.18,-1.1246e-05,0
0.1805,-1.2085e-05,0
0.181,-1.7121e-05,0
0.1815,-3.0549e-05,0
0.182,-4.9851e-05,0
0.1825,-6.7643e-05,0
0.183,-7.8721e-05,0
0.1835,-7.9728e-05,0
0.184,-5.4551e-05,0
0.1845,1.6785e-06,0
0.185,5.5558e-05,0
0.1855,7.7378e-05,0
0.186,7.4021e-05,0
0.1865,5.6565e-05,0
0.187,2.6688e-05,0
0.1875,-1.8463e-06,0
0.188,-1.6281e-05,0
0.1885,-1.6953e-05,0
0.189,-9.7353e-06,0
0.1895,-1.1749e-06,0
0.19,5.7069e-06,0
0.1905,2.0478e-05,0
0.191,4.2802e-05,0
0.1915,5.4887e-05,0
0.192,4.7501e-05,0
0.1925,3.0213e-05,0
0.193,1.4603e-05,0
0.1935,6.2104e-06,0
0.194,2.0142e-06,0
0.1945,3.357e-07,0
0.195,2.5177e-06,0
0.1955,1.1246e-05,0
0.196,2.2156e-05,0
0.1965,2.7359e-05,0
0.197,2.6352e-05,0
0.1975,3.2731e-05,0
0.198,5.5558e-05,0
0.1985,8.0735e-05,0
0.199,0.00010323,0
0.1995,0.00011901,0
0.2,0.00012253,0
0.2005,0.00011716,0
0.201,0.00012001,0
0.2015,0.00012337,0
0.202,0.00011313,0
0.2025,9.9199e-05,0
0.203,8.5771e-05,0
0.2035,7.4525e-05,0
0.204,7.1e-05,0
0.2045,7.0329e-05,0
0.205,6.0426e-05,0
0.2055,3.3402e-05,0
0.206,-2.182e-06,0
0.2065,-4.0116e-05,0
0.207,-7.5029e-05,0
0.2075,-9.2485e-05,0
0.208,-9.7856e-05,0
0.2085,-0.00010625,0
0.209,-0.00011514,0
0.2095,-0.00012253,0
0.21,-0.00013159,0
0.2105,-0.00013411,0
0.211,-0.0001237,0
0.2115,-9.987e-05,0
0.212,-6.865e-05,0
0.2125,-3.9277e-05,0
0.213,-1.6281e-05,0
0.2135,1.6785e-06,0
0.214,1.1917e-05,0
0.2145,1.5946e-05,0
0.215,2.6017e-05,0
0.2155,4.4144e-05,0
0.216,6.0929e-05,0
0.2165,7.335e-05,0
0.217,9.1142e-05,0
0.2175,0.00011397,0
0.218,0.00013445,0
0.2185,0.00014955,0
0.219,0.00016164,0
0.2195,0.00016835,0
0.22,0.00016231,0
0.2205,0.000142,0
0.221,0.00011061,0
0.2215,7.3686e-05,0
0.222,3.1556e-05,0
0.2225,-1.2924e-05,0
0.223,-5.8915e-05,0
0.2235,-0.00010138,0
0.224,-0.00013294,0
0.2245,-0.00014922,0
0.225,-0.00014217,0
0.2255,-0.00010877,0
0.226,-7.5029e-05,0
0.2265,-5.9754e-05,0
0.227,-5.3208e-05,0
0.2275,-4.1627e-05,0
0.228,-2.3163e-05,0
0.2285,-3.8605e-06,0
0.229,1.6449e-05,0
0.2295,4.0619e-05,0
0.23,6.2944e-05,0
0.2305,7.4189e-05,0
0.231,7.0832e-05,0
0.2315,6.0929e-05,0
0.232,5.2537e-05,0
0.2325,4.8508e-05,0
0.233,4.9683e-05,0
0.2335,5.2369e-05,0
0.234,5.5558e-05,0
0.2345,5.623e-05,0
0.235,5.9251e-05,0
0.2355,6.1936e-05,0
0.236,5.623e-05,0
0.2365,4.8844e-05,0
0.237,4.5487e-05,0
0.2375,4.4144e-05,0
0.238,4.4144e-05,0
0.2385,4.3977e-05,0
0.239,4.5319e-05,0
0.2395,5.0858e-05,0
0.24,5.623e-05,0
0.2405,5.4887e-05,0
0.241,4.8005e-05,0
0.2415,3.827e-05,0
0.242,2.7527e-05,0
0.2425,1.9638e-05,0
0.243,1.5778e-05,0
0.2435,1.2924e-05,0
0.244,9.0639e-06,0
0.2445,6.5461e-06,0
0.245,9.5674e-06,0
0.2455,1.5946e-05,0
0.246,2.1149e-05,0
0.2465,2.3835e-05,0
0.247,2.5513e-05,0
0.2475,2.8367e-05,0
0.248,3.0381e-05,0
0.2485,2.9709e-05,0
0.249,2.5009e-05,0
0.2495,2.266e-05,0
0.25,2.5345e-05,0
0.2505,2.7863e-05,0
0.251,3.0549e-05,0
0.2515,3.3066e-05,0
0.252,3.4745e-05,0
0.2525,3.2059e-05,0
0.253,2.9038e-05,0
0.2535,2.8367e-05,0
0.254,2.6688e-05,0
0.2545,2.3499e-05,0
0.255,2.2492e-05,0
0.2555,3.0213e-05,0
0.256,4.3977e-05,0
0.2565,6.0258e-05,0
0.257,7.4357e-05,0
0.2575,7.7378e-05,0
0.258,7.1672e-05,0
0.2585,6.6972e-05,0
0.259,6.63e-05,0
0.2595,5.539e-05,0
0.26,3.6423e-05,0
0.2605,2.6352e-05,0
0.261,3.1891e-05,0
0.2615,4.213e-05,0
0.262,4.6494e-05,0
0.2625,4.7333e-05,0
0.263,4.213e-05,0
0.2635,3.3738e-05,0
0.264,3.1891e-05,0
0.2645,2.9542e-05,0
0.265,1.7624e-05,0
0.2655,-3.1891e-06,0
0.266,-2.4002e-05,0
0.2665,-3.9948e-05,0
0.267,-5.0858e-05,0
0.2675,-5.9922e-05,0
0.268,-7.4021e-05,0
0.2685,-9.6849e-05,0
0.269,-0.00011733,0
0.2695,-0.0001237,0
0.27,-0.00011749,0
0.2705,-0.0001039,0
0.271,-8.5435e-05,0
0.2715,-6.9993e-05,0
0.272,-6.2272e-05,0
0.2725,-5.2201e-05,0
0.273,-3.2059e-05,0
0.2735,-5.2033e-06,0
0.274,2.1317e-05,0
0.2745,4.1795e-05,0
0.275,6.0594e-05,0
0.2755,8.04e-05,0
0.276,9.5506e-05,0
0.2765,9.2821e-05,0
0.277,7.1336e-05,0
0.2775,4.2802e-05,0
0.278,1.8463e-05,0
0.2785,5.2033e-06,0
0.279,4.5319e-06,0
0.2795,1.2253e-05,0
0.28,1.9974e-05,0
0.2805,2.266e-05,0
0.281,2.4338e-05,0
0.2815,3.1556e-05,0
0.282,4.1795e-05,0
0.2825,4.3641e-05,0
0.283,3.7934e-05,0
0.2835,3.2731e-05,0
0.284,3.6759e-05,0
0.2845,4.5151e-05,0
0.285,5.0355e-05,0
0.2855,5.069e-05,0
0.286,5.2201e-05,0
0.2865,6.2608e-05,0
0.287,7.8218e-05,0
0.2875,8.9128e-05,0
0.288,9.1646e-05,0
0.2885,8.7785e-05,0
0.289,7.6707e-05,0
0.2895,5.5726e-05,0
0.29,1.8296e-05,0
0.2905,-3.0381e-05,0
0.291,-6.2104e-05,0
0.2915,-5.8747e-05,0
0.292,-3.3906e-05,0
0.2925,-9.5674e-06,0
0.293,3.1891e-06,0
0.2935,3.0213e-06,0
0.294,-9.5674e-06,0
0.2945,-3.1388e-05,0
0.295,-5.5222e-05,0
0.2955,-6.8986e-05,0
0.296,-6.5965e-05,0
0.2965,-4.7669e-05,0
0.297,-1.6953e-05,0
0.2975,1.4603e-05,0
0.298,3.9109e-05,0
0.2985,5.5894e-05,0
0.299,5.9251e-05,0
0.2995,4.9515e-05,0
0.3,3.8437e-05,0
0.3005,3.5752e-05,0
0.301,3.9277e-05,0
0.3015,4.8173e-05,0
0.302,6.1769e-05,0
0.3025,7.1e-05,0
0.303,6.7475e-05,0
0.3035,5.0858e-05,0
0.304,3.1724e-05,0
0.3045,2.7695e-05,0
0.305,4.2466e-05,0
0.3055,5.8747e-05,0
0.306,6.6636e-05,0
0.3065,6.7475e-05,0
0.307,6.5629e-05,0
0.3075,6.4286e-05,0
0.308,6.0594e-05,0
0.3085,4.8173e-05,0
0.309,3.1724e-05,0
0.3095,1.2924e-05,0
0.31,-4.0284e-06,0
0.3105,-1.4267e-05,0
0.311,-2.1653e-05,0
0.3115,-2.887e-05,0
0.312,-2.9709e-05,0
0.3125,-2.182e-05,0
0.313,-1.0742e-05,0
0.3135,-5.8747e-06,0
0.314,-7.8889e-06,0
0.3145,-1.1078e-05,0
0.315,-1.6449e-05,0
0.3155,-2.031e-05,0
0.316,-2.1653e-05,0
0.3165,-2.7024e-05,0
0.317,-3.4409e-05,0
0.3175,-2.7695e-05,0
0.318,-5.2033e-06,0
0.3185,2.031e-05,0
0.319,4.1962e-05,0
0.3195,6.1601e-05,0
0.32,8.0064e-05,0
0.3205,9.1142e-05,0
0.321,9.0303e-05,0
0.3215,8.5603e-05,0
0.322,8.4932e-05,0
0.3225,7.9393e-05,0
0.323,6.2944e-05,0
0.3235,4.448e-05,0
0.324,3.8605e-05,0
0.3245,4.918e-05,0
0.325,5.623e-05,0
0.3255,3.9109e-05,0
0.326,7.0497e-06,0
0.3265,-2.7024e-05,0
0.327,-5.5894e-05,0
0.3275,-7.3518e-05,0
0.328,-7.2847e-05,0
0.3285,-5.2872e-05,0
0.329,-2.8031e-05,0
0.3295,-1.5778e-05,0
0.33,-1.0407e-05,0
0.3305,-3.1891e-06,0
0.331,9.7353e-06,0
0.3315,3.1052e-05,0
0.332,5.8412e-05,0
0.3325,7.9057e-05,0
0.333,8.2414e-05,0
0.3335,6.9657e-05,0
0.334,5.2872e-05,0
0.3345,4.0452e-05,0
0.335,3.1891e-05,0
0.3355,2.5849e-05,0
0.336,2.3667e-05,0
0.3365,1.8296e-05,0
0.337,-1.5106e-06,0
0.3375,-2.887e-05,0
0.338,-4.9851e-05,0
0.3385,-5.9419e-05,0
0.339,-5.9251e-05,0
0.3395,-5.3208e-05,0
0.34,-4.5655e-05,0
0.3405,-3.5752e-05,0
0.341,-2.2995e-05,0
0.3415,-6.714e-06,0
0.342,9.7353e-06,0
0.3425,1.947e-05,0
0.343,2.1317e-05,0
0.3435,2.0646e-05,0
0.344,2.3835e-05,0
0.3445,3.0045e-05,0
0.345,3.3738e-05,0
0.3455,3.3738e-05,0
0.346,3.2395e-05,0
0.3465,3.4409e-05,0
0.347,3.9109e-05,0
0.3475,4.4312e-05,0
0.348,5.0355e-05,0
0.3485,5.5726e-05,0
0.349,6.0258e-05,0
0.3495,6.2608e-05,0
0.35,6.0594e-05,0
0.3505,5.5055e-05,0
0.351,4.7837e-05,0
0.3515,4.5487e-05,0
0.352,4.8508e-05,0
0.3525,4.7501e-05,0
0.353,3.978e-05,0
0.3535,2.7024e-05,0
0.354,8.5603e-06,0
0.3545,-4.1962e-06,0
0.355,-5.035e-07,0
0.3555,1.9974e-05,0
0.356,5.1194e-05,0
0.3565,8.2246e-05,0
0.357,9.6345e-05,0
0.3575,9.0974e-05,0
0.358,7.6707e-05,0
0.3585,5.8244e-05,0
0.359,3.9612e-05,0
0.3595,2.8031e-05,0
0.36,2.4002e-05,0
0.3605,2.6017e-05,0
0.361,2.8534e-05,0
0.3615,3.2395e-05,0
0.362,3.5752e-05,0
0.3625,3.2059e-05,0
0.363,2.5681e-05,0
0.3635,2.1149e-05,0
0.364,1.6281e-05,0
0.3645,1.2421e-05,0
0.365,1.5106e-05,0
0.3655,2.1317e-05,0
0.366,1.8463e-05,0
0.3665,8.5603e-06,0
0.367,2.0142e-06,0
0.3675,-4.5319e-06,0
0.368,-8.2246e-06,0
0.3685,-6.0426e-06,0
0.369,-6.714e-06,0
0.3695,-1.2253e-05,0
0.37,-1.6281e-05,0
0.3705,-1.8967e-05,0
0.371,-2.1653e-05,0
0.3715,-2.2995e-05,0
0.372,-2.0813e-05,0
0.3725,-1.2589e-05,0
0.373,6.8818e-06,0
0.3735,3.2059e-05,0
0.374,4.9348e-05,0
0.3745,5.1362e-05,0
0.375,4.6159e-05,0
0.3755,4.4816e-05,0
0.376,4.2298e-05,0
0.3765,3.8773e-05,0
0.377,4.9348e-05,0
0.3775,7.0329e-05,0
0.378,7.9393e-05,0
0.3785,6.9657e-05,0
0.379,5.0187e-05,0
0.3795,2.8534e-05,0
0.38,5.2033e-06,0
0.3805,-1.8967e-05,0
0.381,-3.827e-05,0
0.3815,-5.4048e-05,0
0.382,-6.9322e-05,0
0.3825,-7.9728e-05,0
0.383,-7.6707e-05,0
0.3835,-5.8076e-05,0
0.384,-3.1388e-05,0
0.3845,-1.6953e-05,0
0.385,-2.1317e-05,0
0.3855,-3.3402e-05,0
0.386,-3.9612e-05,0
0.3865,-3.7766e-05,0
0.387,-2.7527e-05,0
0.3875,-5.539e-06,0
0.388,2.5513e-05,0
0.3885,5.623e-05,0
0.389,7.805e-05,0
0.3895,8.9632e-05,0
0.39,9.3492e-05,0
0.3905,9.4163e-05,0
0.391,9.3828e-05,0
0.3915,8.5771e-05,0
0.392,6.9154e-05,0
0.3925,5.5558e-05,0
0.393,4.3641e-05,0
0.3935,3.1052e-05,0
0.394,2.5513e-05,0
0.3945,2.9038e-05,0
0.395,2.1149e-05,0
0.3955,-9.9031e-06,0
0.396,-4.4984e-05,0
0.3965,-7.2007e-05,0
0.397,-8.9464e-05,0
0.3975,-9.1478e-05,0
0.398,-7.7211e-05,0
0.3985,-5.388e-05,0
0.399,-2.9206e-05,0
0.3995,-7.2175e-06,0
0.4,1.6785e-05,0
0.4005,4.8676e-05,0
0.401,8.1071e-05,0
0.4015,9.9199e-05,0
0.402,0.00010289,0
0.4025,0.00010121,0
0.403,9.3828e-05,0
0.4035,7.6036e-05,0
0.404,5.2201e-05,0
0.4045,3.1724e-05,0
0.405,2.1317e-05,0
0.4055,2.5009e-05,0
0.406,3.4409e-05,0
0.4065,3.3402e-05,0
0.407,2.5681e-05,0
0.4075,1.8296e-05,0
0.408,1.2589e-05,0
0.4085,6.5461e-06,0
0.409,4.1962e-06,0
0.4095,7.2175e-06,0
0.41,8.5603e-06,0
0.4105,8.5603e-06,0
0.411,1.2924e-05,0
0.4115,1.9135e-05,0
0.412,1.8967e-05,0
0.4125,1.2253e-05,0
0.413,4.3641e-06,0
0.4135,1.678e-07,0
0.414,-1.5106e-06,0
0.4145,-5.8747e-06,0
0.415,-1.3764e-05,0
0.4155,-2.3835e-05,0
0.416,-2.8702e-05,0
0.4165,-1.9303e-05,0
0.417,-2.182e-06,0
0.4175,1.0407e-05,0
0.418,1.326e-05,0
0.4185,1.6785e-05,0
0.419,2.5345e-05,0
0.4195,3.1724e-05,0
0.42,3.508e-05,0
0.4205,3.978e-05,0
0.421,4.3809e-05,0
0.4215,4.2802e-05,0
0.422,3.3066e-05,0
0.4225,1.9974e-05,0
0.423,1.1246e-05,0
0.4235,1.5106e-05,0
0.424,3.0716e-05,0
0.4245,5.4048e-05,0
0.425,7.7043e-05,0
0.4255,9.0303e-05,0
0.426,9.5506e-05,0
0.4265,9.5003e-05,0
0.427,8.7617e-05,0
0.4275,7.3014e-05,0
0.428,5.623e-05,0
0.4285,3.9445e-05,0
0.429,2.1317e-05,0
0.4295,9.2317e-06,0
0.43,6.8818e-06,0
0.4305,1.326e-05,0
0.431,2.6688e-05,0
0.4315,4.0787e-05,0
0.432,4.2802e-05,0
0.4325,3.4577e-05,0
0.433,2.5849e-05,0
0.4335,2.2324e-05,0
0.434,1.9974e-05,0
0.4345,1.4267e-05,0
0.435,9.5674e-06,0
0.4355,9.9031e-06,0
0.436,1.4603e-05,0
0.4365,1.9974e-05,0
0.437,2.6017e-05,0
0.4375,3.0213e-05,0
0.438,2.8702e-05,0
0.4385,2.6017e-05,0
0.439,3.1388e-05,0
0.4395,4.4648e-05,0
0.44,5.623e-05,0
0.4405,5.9587e-05,0
0.441,5.3544e-05,0
0.4415,4.1962e-05,0
0.442,2.8702e-05,0
0.4425,1.326e-05,0
0.443,-2.8534e-06,0
0.4435,-1.7792e-05,0
0.444,-2.9374e-05,0
0.4445,-3.3066e-05,0
0.445,-3.508e-05,0
0.4455,-4.2466e-05,0
0.446,-5.2537e-05,0
0.4465,-6.2608e-05,0
0.447,-7.0329e-05,0
0.4475,-6.6804e-05,0
0.448,-4.7166e-05,0
0.4485,-1.5274e-05,0
0.449,3.3234e-05,0
0.4495,0.00010809,0
0.45,0.00017708,0
0.4505,0.00019924,0
0.451,0.00018111,0
0.4515,0.00014989,0
0.452,0.00011044,0
0.4525,5.9754e-05,0
0.453,7.8889e-06,0
0.4535,-3.1052e-05,0
0.454,-5.388e-05,0
0.4545,-6.8482e-05,0
0.455,-7.9393e-05,0
0.4555,-8.5939e-05,0
0.456,-8.5603e-05,0
0.4565,-7.9225e-05,0
0.457,-7.4021e-05,0
0.4575,-7.5029e-05,0
0.458,-8.4093e-05,0
0.4585,-9.4835e-05,0
0.459,-0.00010021,0
0.4595,-9.4331e-05,0
0.46,-6.7979e-05,0
0.4605,-2.5345e-05,0
0.461,1.6785e-05,0
0.4615,4.6494e-05,0
0.462,6.1936e-05,0
0.4625,6.4286e-05,0
0.463,6.4118e-05,0
0.4635,6.6636e-05,0
0.464,6.5293e-05,0
0.4645,5.5558e-05,0
0.465,4.1459e-05,0
0.4655,3.4073e-05,0
0.466,3.6759e-05,0
0.4665,4.2466e-05,0
0.467,4.2634e-05,0
0.4675,3.3066e-05,0
0.468,1.5946e-05,0
0.4685,8.5603e-06,0
0.469,3.1388e-05,0
0.4695,7.7714e-05,0
0.47,0.00011011,0
0.4705,0.00010054,0
0.471,5.9922e-05,0
0.4715,1.6953e-05,0
0.472,-1.2924e-05,0
0.4725,-2.7695e-05,0
0.473,-3.3066e-05,0
0.4735,-3.2395e-05,0
0.474,-2.7695e-05,0
0.4745,-2.4674e-05,0
0.475,-2.031e-05,0
0.4755,-9.3996e-06,0
0.476,2.5177e-06,0
0.4765,6.5461e-06,0
0.477,4.5319e-06,0
0.4775,5.2033e-06,0
0.478,1.3596e-05,0
0.4785,2.8031e-05,0
0.479,4.0452e-05,0
0.4795,4.9348e-05,0
0.48,5.5558e-05,0
0.4805,5.8076e-05,0
0.481,5.0858e-05,0
0.4815,3.743e-05,0
0.482,2.5681e-05,0
0.4825,2.0646e-05,0
0.483,2.1988e-05,0
0.4835,2.5009e-05,0
0.484,3.2395e-05,0
0.4845,4.0787e-05,0
0.485,4.7837e-05,0
0.4855,5.4887e-05,0
0.486,6.0426e-05,0
0.4865,6.0258e-05,0
0.487,5.1865e-05,0
0.4875,4.0452e-05,0
0.488,3.4409e-05,0
0.4885,3.3066e-05,0
0.489,3.2059e-05,0
0.4895,2.6017e-05,0
0.49,1.9974e-05,0
0.4905,1.796e-05,0
0.491,1.8128e-05,0
0.4915,1.8631e-05,0
0.492,1.8631e-05,0
0.4925,2.1317e-05,0
0.493,2.5177e-05,0
0.4935,2.266e-05,0
0.494,2.5177e-05,0
0.4945,3.4409e-05,0
0.495,4.2634e-05,0
0.4955,4.7501e-05,0
0.496,4.683e-05,0
0.4965,4.4144e-05,0
0.497,4.3473e-05,0
0.4975,4.3305e-05,0
0.498,4.2802e-05,0
0.4985,3.8437e-05,0
0.499,3.4073e-05,0
0.4995,3.2898e-05,0
0.5,3.1052e-05,0
0.5005,3.4409e-05,0
0.501,4.7837e-05,0
0.5015,6.5629e-05,0
0.502,8.4428e-05,0
0.5025,0.00010356,0
0.503,0.00011682,0
0.5035,0.00011867,0
0.504,0.00010893,0
0.5045,9.1142e-05,0
0.505,7.2847e-05,0
0.5055,6.4118e-05,0
0.506,6.2944e-05,0
0.5065,5.3544e-05,0
0.507,2.9709e-05,0
0.5075,-4.8676e-06,0
0.508,-4.1795e-05,0
0.5085,-7.335e-05,0
0.509,-9.5171e-05,0
0.5095,-0.00010558,0
0.51,-0.0001133,0
0.5105,-0.00012404,0
0.511,-0.00012689,0
0.5115,-0.00012303,0
0.512,-0.00012001,0
0.5125,-0.00011229,0
0.513,-0.00010256,0
0.5135,-9.4331e-05,0
0.514,-8.6275e-05,0
0.5145,-7.6204e-05,0
0.515,-6.1936e-05,0
0.5155,-4.3809e-05,0
0.516,-2.5009e-05,0
0.5165,-8.5603e-06,0
0.517,5.8747e-06,0
0.5175,1.9974e-05,0
0.518,3.0716e-05,0
0.5185,3.6591e-05,0
0.519,3.8773e-05,0
0.5195,4.4816e-05,0
0.52,5.5222e-05,0
0.5205,6.7308e-05,0
0.521,7.9057e-05,0
0.5215,8.5603e-05,0
0.522,8.7114e-05,0
0.5225,8.8792e-05,0
0.523,9.6178e-05,0
0.5235,0.00011179,0
0.524,0.00012068,0
0.5245,0.00011128,0
0.525,9.2821e-05,0
0.5255,7.7211e-05,0
0.526,6.7643e-05,0
0.5265,6.3615e-05,0
0.527,6.2608e-05,0
0.5275,6.3951e-05,0
0.528,6.6636e-05,0
0.5285,5.8915e-05,0
0.529,3.978e-05,0
0.5295,2.3667e-05,0
0.53,1.2589e-05,0
0.5305,-1.678e-07,0
0.531,-1.7288e-05,0
0.5315,-2.7695e-05,0
0.532,-2.9374e-05,0
0.5325,-3.0045e-05,0
0.533,-3.2731e-05,0
0.5335,-3.6088e-05,0
0.534,-3.2563e-05,0
0.5345,-2.3667e-05,0
0.535,-1.5778e-05,0
0.5355,-1.1749e-05,0
0.536,-1.2924e-05,0
0.5365,-1.6281e-05,0
0.537,-1.2253e-05,0
0.5375,-2.182e-06,0
0.538,5.8747e-06,0
0.5385,1.4267e-05,0
0.539,2.7024e-05,0
0.5395,4.213e-05,0
0.54,5.2872e-05,0
0.5405,5.8412e-05,0
0.541,6.0761e-05,0
0.5415,5.9922e-05,0
0.542,5.7069e-05,0
0.5425,5.0858e-05,0
0.543,4.1291e-05,0
0.5435,3.827e-05,0
0.544,4.6159e-05,0
0.5445,5.4887e-05,0
0.545,5.0355e-05,0
0.5455,3.3234e-05,0
0.546,1.5274e-05,0
0.5465,1.1749e-06,0
0.547,-6.8818e-06,0
0.5475,-9.3996e-06,0
0.548,-6.5461e-06,0
0.5485,-3.357e-07,0
0.549,3.1891e-06,0
0.5495,6.8818e-06,0
0.55,1.091e-05,0
0.5505,1.4939e-05,0
0.551,1.796e-05,0
0.5515,2.1988e-05,0
0.552,2.4674e-05,0
0.5525,1.8967e-05,0
0.553,1.1246e-05,0
0.5535,1.326e-05,0
0.554,3.0716e-05,0
0.5545,5.8244e-05,0
0.555,9.1478e-05,0
0.5555,0.00011666,0
0.556,0.00011128,0
0.5565,7.9057e-05,0
0.557,4.0116e-05,0
0.5575,4.8676e-06,0
0.558,-2.182e-05,0
0.5585,-3.1388e-05,0
0.559,-2.6184e-05,0
0.5595,-2.2156e-05,0
0.56,-2.7695e-05,0
0.5605,-3.3234e-05,0
0.561,-3.0549e-05,0
0.5615,-1.6953e-05,0
0.562,3.1891e-06,0
0.5625,1.2924e-05,0
0.563,2.8534e-06,0
0.5635,-1.8296e-05,0
0.564,-3.7934e-05,0
0.5645,-5.2201e-05,0
0.565,-6.0761e-05,0
0.5655,-5.304e-05,0
0.566,-3.3066e-05,0
0.5665,-2.1988e-05,0
0.567,-2.0981e-05,0
0.5675,-1.5274e-05,0
0.568,-2.182e-06,0
0.5685,1.5946e-05,0
0.569,3.3402e-05,0
0.5695,4.0116e-05,0
0.57,3.0716e-05,0
0.5705,1.5274e-05,0
0.571,8.5603e-06,0
0.5715,9.9031e-06,0
0.572,8.2246e-06,0
0.5725,6.714e-07,0
0.573,-4.5319e-06,0
0.5735,-2.8534e-06,0
0.574,2.5177e-06,0
0.5745,9.2317e-06,0
0.575,1.6281e-05,0
0.5755,1.9303e-05,0
0.576,1.5274e-05,0
0.5765,1.0239e-05,0
0.577,1.4603e-05,0
0.5775,2.9542e-05,0
0.578,4.1627e-05,0
0.5785,4.7669e-05,0
0.579,5.153e-05,0
0.5795,5.7572e-05,0
0.58,6.7308e-05,0
0.5805,7.9057e-05,0
0.581,8.8457e-05,0
0.5815,9.4499e-05,0
0.582,0.00010289,0
0.5825,0.00011431,0
0.583,0.00012136,0
0.5835,0.00011934,0
0.584,0.00010776,0
0.5845,8.9799e-05,0
0.585,6.9154e-05,0
0.5855,5.0187e-05,0
0.586,3.6088e-05,0
0.5865,2.9038e-05,0
0.587,2.1653e-05,0
0.5875,1.2757e-05,0
0.588,6.5461e-06,0
0.5885,1.678e-07,0
0.589,-1.0071e-05,0
0.5895,-2.266e-05,0
0.59,-3.0549e-05,0
0.5905,-3.0381e-05,0
0.591,-2.7863e-05,0
0.5915,-2.3163e-05,0
0.592,-1.8296e-05,0
0.5925,-1.1582e-05,0
0.593,-1.1749e-06,0
0.5935,1.0071e-05,0
0.594,2.3667e-05,0
0.5945,3.6088e-05,0
0.595,4.1795e-05,0
0.5955,3.8102e-05,0
0.596,3.2731e-05,0
0.5965,3.1052e-05,0
0.597,3.1891e-05,0
0.5975,2.9374e-05,0
0.598,2.2995e-05,0
0.5985,1.4099e-05,0
0.599,1.1414e-05,0
0.5995,1.9974e-05,0
0.6,3.0716e-05,0
0.6005,3.9948e-05,0
0.601,4.8676e-05,0
0.6015,5.4551e-05,0
0.602,5.6901e-05,0
0.6025,5.7908e-05,0
0.603,5.7908e-05,0
0.6035,5.9922e-05,0
0.604,6.6972e-05,0
0.6045,7.7211e-05,0
0.605,8.1071e-05,0
0.6055,6.63e-05,0
0.606,4.0116e-05,0
0.6065,1.7792e-05,0
0.607,-2.3499e-06,0
0.6075,-2.1149e-05,0
0.608,-3.508e-05,0
0.6085,-4.1962e-05,0
0.609,-4.6159e-05,0
0.6095,-4.9515e-05,0
0.61,-5.3712e-05,0
0.6105,-6.0258e-05,0
0.611,-6.5293e-05,0
0.6115,-6.3951e-05,0
0.612,-6.1433e-05,0
0.6125,-6.5629e-05,0
0.613,-7.4021e-05,0
0.6135,-7.6204e-05,0
0.614,-6.714e-05,0
0.6145,-4.9851e-05,0
0.615,-2.8031e-05,0
0.6155,1.0071e-06,0
0.616,3.8605e-05,0
0.6165,7.4693e-05,0
0.617,9.987e-05,0
0.6175,0.00011699,0
0.618,0.00012605,0
0.6185,0.00012136,0
0.619,0.00010121,0
0.6195,8.04e-05,0
0.62,7.0329e-05,0
0.6205,6.7979e-05,0
0.621,6.7979e-05,0
0.6215,7.0329e-05,0
0.622,8.1743e-05,0
0.6225,9.7688e-05,0
0.623,9.5171e-05,0
0.6235,6.4118e-05,0
0.624,2.266e-05,0
0.6245,-1.6281e-05,0
0.625,-5.1194e-05,0
0.6255,-8.1575e-05,0
0.626,-9.7353e-05,0
0.6265,-9.2149e-05,0
0.627,-7.8721e-05,0
0.6275,-6.4622e-05,0
0.628,-4.9851e-05,0
0.6285,-3.1891e-05,0
0.629,-1.4435e-05,0
0.6295,-2.8534e-06,0
0.63,3.0213e-06,0
0.6305,8.3925e-06,0
0.631,1.2757e-05,0
0.6315,1.2589e-05,0
0.632,1.4603e-05,0
0.6325,3.0549e-05,0
0.633,5.539e-05,0
0.6335,7.3686e-05,0
0.634,8.04e-05,0
0.6345,8.3757e-05,0
0.635,8.04e-05,0
0.6355,6.3615e-05,0
0.636,3.5584e-05,0
0.6365,1.5778e-05,0
0.637,1.2924e-05,0
0.6375,1.4435e-05,0
0.638,1.3932e-05,0
0.6385,1.2924e-05,0
0.639,9.9031e-06,0
0.6395,7.0497e-06,0
0.64,1.1582e-05,0
0.6405,2.031e-05,0
0.641,2.6184e-05,0
0.6415,3.0549e-05,0
0.642,3.2395e-05,0
0.6425,2.7024e-05,0
0.643,1.5946e-05,0
0.6435,6.5461e-06,0
0.644,-6.2104e-06,0
0.6445,-2.887e-05,0
0.645,-5.2872e-05,0
0.6455,-6.5293e-05,0
0.646,-6.6804e-05,0
0.6465,-6.3783e-05,0
0.647,-5.7572e-05,0
0.6475,-4.448e-05,0
0.648,-2.1988e-05,0
0.6485,1.0575e-05,0
0.649,4.9515e-05,0
0.6495,7.8386e-05,0
0.65,8.3757e-05,0
0.6505,7.3182e-05,0
0.651,6.009e-05,0
0.6515,4.8844e-05,0
0.652,4.1795e-05,0
0.6525,4.0955e-05,0
0.653,4.4984e-05,0
0.6535,4.7837e-05,0
0.654,5.0523e-05,0
0.6545,5.9587e-05,0
0.655,7.0329e-05,0
0.6555,7.4357e-05,0
0.656,6.6972e-05,0
0.6565,5.2705e-05,0
0.657,3.743e-05,0
0.6575,2.6688e-05,0
0.658,1.9135e-05,0
0.6585,1.5946e-05,0
0.659,1.6281e-05,0
0.6595,1.2589e-05,0
0.66,4.8676e-06,0
0.6605,-1.0071e-06,0
0.661,-1.1749e-06,0
0.6615,5.2033e-06,0
0.662,1.4603e-05,0
0.6625,2.7695e-05,0
0.663,4.1291e-05,0
0.6635,4.9851e-05,0
0.664,5.3544e-05,0
0.6645,5.5055e-05,0
0.665,5.0019e-05,0
0.6655,4.1795e-05,0
0.666,4.1123e-05,0
0.6665,4.5319e-05,0
0.667,4.8005e-05,0
0.6675,5.0523e-05,0
0.668,5.4551e-05,0
0.6685,5.8579e-05,0
0.669,5.9922e-05,0
0.6695,5.5894e-05,0
0.67,4.8173e-05,0
0.6705,3.9445e-05,0
0.671,2.7527e-05,0
0.6715,1.0575e-05,0
0.672,-5.539e-06,0
0.6725,-1.3596e-05,0
0.673,-1.2085e-05,0
0.6735,-1.0575e-05,0
0.674,-1.4939e-05,0
0.6745,-2.266e-05,0
0.675,-3.1388e-05,0
0.6755,-4.3137e-05,0
0.676,-5.9251e-05,0
0.6765,-6.4622e-05,0
0.677,-5.1698e-05,0
0.6775,-3.0549e-05,0
0.678,-1.3596e-05,0
0.6785,-2.0142e-06,0
0.679,8.7282e-06,0
0.6795,1.9638e-05,0
0.68,2.6688e-05,0
0.6805,2.8367e-05,0
0.681,3.0381e-05,0
0.6815,4.5151e-05,0
0.682,7.2007e-05,0
0.6825,0.00010289,0
0.683,0.0001331,0
0.6835,0.00014519,0
0.684,0.0001227,0
0.6845,7.5029e-05,0
0.685,2.7024e-05,0
0.6855,-1.0407e-05,0
0.686,-3.1388e-05,0
0.6865,-3.357e-05,0
0.687,-2.1988e-05,0
0.6875,-6.2104e-06,0
0.688,3.5248e-06,0
0.6885,6.5461e-06,0
0.689,5.539e-06,0
0.6895,3.8605e-06,0
0.69,4.1962e-06,0
0.6905,3.8605e-06,0
0.691,-3.0213e-06,0
0.6915,-1.2924e-05,0
0.692,-2.1317e-05,0
0.6925,-2.6352e-05,0
0.693,-2.0981e-05,0
0.6935,-6.2104e-06,0
0.694,4.8676e-06,0
0.6945,3.8605e-06,0
0.695,-8.392e-07,0
0.6955,6.3783e-06,0
0.696,2.3667e-05,0
0.6965,3.5752e-05,0
0.697,4.2802e-05,0
0.6975,5.5558e-05,0
0.698,6.63e-05,0
0.6985,6.5293e-05,0
0.699,5.8076e-05,0
0.6995,6.0929e-05,0
0.7,7.0832e-05,0
0.7005,7.5029e-05,0
0.701,6.63e-05,0
0.7015,5.0858e-05,0
0.702,3.6423e-05,0
0.7025,1.9638e-05,0
0.703,-5.035e-07,0
0.7035,-2.266e-05,0
0.704,-4.8844e-05,0
0.7045,-6.9657e-05,0
0.705,-6.8315e-05,0
0.7055,-5.0187e-05,0
0.706,-3.743e-05,0
0.7065,-4.213e-05,0
0.707,-5.1865e-05,0
0.7075,-5.3208e-05,0
0.708,-4.6494e-05,0
0.7085,-4.213e-05,0
0.709,-4.0116e-05,0
0.7095,-3.4745e-05,0
0.71,-2.4842e-05,0
0.7105,-1.5106e-05,0
0.711,-7.8889e-06,0
0.7115,-5.035e-07,0
0.712,9.9031e-06,0
0.7125,2.1988e-05,0
0.713,3.1388e-05,0
0.7135,3.6423e-05,0
0.714,3.8605e-05,0
0.7145,4.0452e-05,0
0.715,4.3137e-05,0
0.7155,5.1865e-05,0
0.716,6.6972e-05,0
0.7165,7.8721e-05,0
0.717,7.7043e-05,0
0.7175,6.3951e-05,0
0.718,4.4816e-05,0
0.7185,3.0045e-05,0
0.719,2.9374e-05,0
0.7195,3.8605e-05,0
0.72,4.7166e-05,0
0.7205,5.3544e-05,0
0.721,5.7237e-05,0
0.7215,5.8412e-05,0
0.722,5.9587e-05,0
0.7225,6.2608e-05,0
0.723,6.3951e-05,0
0.7235,5.6062e-05,0
0.724,3.8437e-05,0
0.7245,2.1988e-05,0
0.725,1.4603e-05,0
0.7255,1.2757e-05,0
0.726,1.1078e-05,0
0.7265,1.0071e-05,0
0.727,1.6449e-05,0
0.7275,2.8031e-05,0
0.728,4.1123e-05,0
0.7285,5.4887e-05,0
0.729,6.1601e-05,0
0.7295,5.7237e-05,0
0.73,4.5487e-05,0
0.7305,3.3234e-05,0
0.731,2.8702e-05,0
0.7315,3.6255e-05,0
0.732,4.5991e-05,0
0.7325,4.683e-05,0
0.733,3.9445e-05,0
0.7335,2.8702e-05,0
0.734,1.7624e-05,0
0.7345,3.5248e-06,0
0.735,-1.1917e-05,0
0.7355,-2.0478e-05,0
0.736,-1.6281e-05,0
0.7365,-1.8463e-06,0
0.737,9.5674e-06,0
0.7375,1.2085e-05,0
0.738,1.8296e-05,0
0.7385,4.0619e-05,0
0.739,6.0426e-05,0
0.7395,5.7572e-05,0
0.74,3.8102e-05,0
0.7405,1.9135e-05,0
0.741,1.0575e-05,0
0.7415,1.4603e-05,0
0.742,2.3835e-05,0
0.7425,2.6352e-05,0
0.743,1.7624e-05,0
0.7435,3.0213e-06,0
0.744,-9.7353e-06,0
0.7445,-1.6953e-05,0
0.745,-1.9974e-05,0
0.7455,-2.182e-05,0
0.746,-2.7192e-05,0
0.7465,-3.2395e-05,0
0.747,-3.2563e-05,0
0.7475,-2.7863e-05,0
0.748,-2.1485e-05,0
0.7485,-2.1149e-05,0
0.749,-2.8031e-05,0
0.7495,-3.5752e-05,0
0.75,-4.0452e-05,0
0.7505,-3.9445e-05,0
0.751,-3.0549e-05,0
0.7515,-1.3764e-05,0
0.752,5.7069e-06,0
0.7525,2.0813e-05,0
0.753,2.9709e-05,0
0.7535,3.4409e-05,0
0.754,4.1795e-05,0
0.7545,5.0187e-05,0
0.755,4.7333e-05,0
0.7555,3.7766e-05,0
0.756,3.4745e-05,0
0.7565,4.1459e-05,0
0.757,4.7333e-05,0
0.7575,4.8173e-05,0
0.758,4.8173e-05,0
0.7585,4.7501e-05,0
0.759,4.4144e-05,0
0.7595,4.2466e-05,0
0.76,4.2634e-05,0
0.7605,4.2466e-05,0
0.761,4.0787e-05,0
0.7615,3.8773e-05,0
0.762,3.4745e-05,0
0.7625,3.6759e-05,0
0.763,4.213e-05,0
0.7635,4.0116e-05,0
0.764,3.3906e-05,0
0.7645,3.3906e-05,0
0.765,3.743e-05,0
0.7655,3.9612e-05,0
0.766,4.0787e-05,0
0.7665,4.7501e-05,0
0.767,5.8915e-05,0
0.7675,7.0497e-05,0
0.768,8.04e-05,0
0.7685,8.8457e-05,0
0.769,0.00010256,0
0.7695,0.00012673,0
0.77,0.00014553,0
0.7705,0.0001415,0
0.771,0.00011632,0
0.7715,8.4093e-05,0
0.772,5.5055e-05,0
0.7725,3.4745e-05,0
0.773,1.7792e-05,0
0.7735,8.392e-07,0
0.774,-1.5106e-05,0
0.7745,-3.4745e-05,0
0.775,-5.9754e-05,0
0.7755,-8.3085e-05,0
0.776,-0.00010021,0
0.7765,-0.00011464,0
0.777,-0.00013059,0
0.7775,-0.00014351,0
0.778,-0.00014301,0
0.7785,-0.00012572,0
0.779,-9.9535e-05,0
0.7795,-7.7882e-05,0
0.78,-6.5293e-05,0
0.7805,-5.2369e-05,0
0.781,-3.2395e-05,0
0.7815,-7.7211e-06,0
0.782,1.1917e-05,0
0.7825,2.5345e-05,0
0.783,3.4745e-05,0
0.7835,3.6423e-05,0
0.784,3.1556e-05,0
0.7845,2.6688e-05,0
0.785,2.5345e-05,0
0.7855,2.5849e-05,0
0.786,2.3331e-05,0
0.7865,2.0813e-05,0
0.787,2.1988e-05,0
0.7875,2.4002e-05,0
0.788,2.4338e-05,0
0.7885,2.6688e-05,0
0.789,3.2898e-05,0
0.7895,3.8605e-05,0
0.79,4.2466e-05,0
0.7905,4.9851e-05,0
0.791,5.9587e-05,0
0.7915,6.8986e-05,0
0.792,7.3014e-05,0
0.7925,6.9657e-05,0
0.793,6.0594e-05,0
0.7935,4.8173e-05,0
0.794,3.9445e-05,0
0.7945,3.4073e-05,0
0.795,3.1388e-05,0
0.7955,3.5752e-05,0
0.796,3.978e-05,0
0.7965,3.8773e-05,0
0.797,3.8773e-05,0
0.7975,3.7095e-05,0
0.798,3.5752e-05,0
0.7985,4.1291e-05,0
0.799,5.153e-05,0
0.7995,5.7908e-05,0
0.8,5.8579e-05,0
0.8005,5.8915e-05,0
0.801,6.9657e-05,0
0.8015,7.9728e-05,0
0.802,7.4021e-05,0
0.8025,5.5894e-05,0
0.803,4.1459e-05,0
0.8035,3.7934e-05,0
0.804,3.508e-05,0
0.8045,2.4338e-05,0
0.805,1.1917e-05,0
0.8055,7.8889e-06,0
0.806,8.7282e-06,0
0.8065,9.0639e-06,0
0.807,7.8889e-06,0
0.8075,7.2175e-06,0
0.808,1.2757e-05,0
0.8085,3.1052e-05,0
0.809,5.388e-05,0
0.8095,6.2944e-05,0
0.81,5.3208e-05,0
0.8105,2.7024e-05,0
0.811,-7.3854e-06,0
0.8115,-3.5248e-05,0
0.812,-4.9851e-05,0
0.8125,-5.0858e-05,0
0.813,-4.5823e-05,0
0.8135,-3.8773e-05,0
0.814,-3.2059e-05,0
0.8145,-2.7527e-05,0
0.815,-2.5345e-05,0
0.8155,-2.266e-05,0
0.816,-2.2156e-05,0
0.8165,-2.5009e-05,0
0.817,-2.5177e-05,0
0.8175,-2.182e-05,0
0.818,-2.0646e-05,0
0.8185,-2.1317e-05,0
0.819,-2.2324e-05,0
0.8195,-2.1653e-05,0
0.82,-1.6953e-05,0
0.8205,-1.1917e-05,0
0.821,-1.2085e-05,0
0.8215,-1.2253e-05,0
0.822,-7.2175e-06,0
0.8225,1.1749e-06,0
0.823,9.5674e-06,0
0.8235,1.5274e-05,0
0.824,2.0981e-05,0
0.8245,3.2059e-05,0
0.825,4.6159e-05,0
0.8255,5.4048e-05,0
0.826,5.2872e-05,0
0.8265,5.3544e-05,0
0.827,6.949e-05,0
0.8275,9.5506e-05,0
0.828,0.00011968,0
0.8285,0.0001368,0
0.829,0.0001462,0
0.8295,0.00014351,0
0.83,0.00013059,0
0.8305,0.00010558,0
0.831,6.5629e-05,0
0.8315,2.0813e-05,0
0.832,0,0
0.8325,0,0
0.833,0,0
0.8335,0,0
0.834,0,0
0.8345,0,0
0.835,0,0
0.8355,0,0
0.836,0,0
0.8365,0,0
0.837,0,0
0.8375,0,0
0.838,0,0
0.8385,0,0
0.839,0,0
0.8395,0,0
0.84,0,0
0.8405,0,0
0.841,0,0
0.8415,0,0
0.842,0,0
0.8425,0,0
0.843,0,0
0.8435,0,0
0.844,0,0
0.8445,0,0
0.845,9.4667e-05,0
0.8455,0.00015526,0
0.846,0.00019252,0
0.8465,0.00019303,0
0.847,0.0001613,0
0.8475,0.00011514,0
0.848,6.9657e-05,0
0.8485,3.4577e-05,0
0.849,1.2924e-05,0
0.8495,4.1962e-06,0
0.85,2.5177e-06,0
0.8505,1.1749e-06,0
0.851,-1.0071e-06,0
0.8515,-1.091e-05,0
0.852,-3.3402e-05,0
0.8525,-5.8747e-05,0
0.853,-7.8386e-05,0
0.8535,-9.1478e-05,0
0.854,-9.366e-05,0
0.8545,-7.8386e-05,0
0.855,-5.4048e-05,0
0.8555,-3.2731e-05,0
0.856,-1.6617e-05,0
0.8565,-2.8534e-06,0
0.857,1.2589e-05,0
0.8575,2.9206e-05,0
0.858,4.3809e-05,0
0.8585,5.2201e-05,0
0.859,5.153e-05,0
0.8595,4.3473e-05,0
0.86,3.4745e-05,0
0.8605,3.2563e-05,0
0.861,3.6759e-05,0
0.8615,4.3305e-05,0
0.862,4.6662e-05,0
0.8625,4.3809e-05,0
0.863,3.357e-05,0
0.8635,2.0813e-05,0
0.864,8.5603e-06,0
0.8645,-5.035e-07,0
0.865,-6.8818e-06,0
0.8655,-1.1749e-05,0
0.866,-1.1414e-05,0
0.8665,-3.1891e-06,0
0.867,6.0426e-06,0
0.8675,1.3932e-05,0
0.868,2.6017e-05,0
0.8685,3.9277e-05,0
0.869,4.8173e-05,0
0.8695,5.539e-05,0
0.87,6.8315e-05,0
0.8705,8.3421e-05,0
0.871,8.9128e-05,0
0.8715,8.1239e-05,0
0.872,6.5629e-05,0
0.8725,4.7837e-05,0
0.873,3.4073e-05,0
0.8735,2.7527e-05,0
0.874,2.5681e-05,0
0.8745,2.0981e-05,0
0.875,9.5674e-06,0
0.8755,-1.6785e-06,0
0.876,-9.2317e-06,0
0.8765,-1.3596e-05,0
0.877,-1.7792e-05,0
0.8775,-2.7024e-05,0
0.878,-3.6591e-05,0
0.8785,-3.8941e-05,0
0.879,-3.3402e-05,0
0.8795,-2.4338e-05,0
0.88,-1.0239e-05,0
0.8805,9.9031e-06,0
0.881,3.1052e-05,0
0.8815,4.1795e-05,0
0.882,3.8773e-05,0
0.8825,3.508e-05,0
0.883,4.448e-05,0
0.8835,6.6972e-05,0
0.884,9.0135e-05,0
0.8845,0.00010155,0
0.885,0.0001044,0
0.8855,0.00010272,0
0.886,9.2821e-05,0
0.8865,7.3518e-05,0
0.887,4.6159e-05,0
0.8875,1.8631e-05,0
0.888,-4.1962e-06,0
0.8885,-2.1317e-05,0
0.889,-3.2898e-05,0
0.8895,-4.0284e-05,0
0.89,-4.9348e-05,0
0.8905,-5.7069e-05,0
0.891,-5.8915e-05,0
0.8915,-5.774e-05,0
0.892,-5.4048e-05,0
0.8925,-4.5319e-05,0
0.893,-2.7024e-05,0
0.8935,5.2033e-06,0
0.894,4.0787e-05,0
0.8945,5.7572e-05,0
0.895,5.2201e-05,0
0.8955,4.3977e-05,0
0.896,4.0787e-05,0
0.8965,3.2059e-05,0
0.897,1.8296e-05,0
0.8975,5.2033e-06,0
0.898,-3.5248e-06,0
0.8985,-4.8676e-06,0
0.899,-4.1962e-06,0
0.8995,1.678e-07,0
0.9,4.1962e-06,0
0.9005,4.5319e-06,0
0.901,9.9031e-06,0
0.9015,2.0646e-05,0
0.902,3.2563e-05,0
0.9025,4.2298e-05,0
0.903,4.5991e-05,0
0.9035,4.7837e-05,0
0.904,5.7908e-05,0
0.9045,7.2007e-05,0
0.905,7.8553e-05,0
0.9055,7.4693e-05,0
0.906,6.5126e-05,0
0.9065,5.1194e-05,0
0.907,3.6927e-05,0
0.9075,2.5849e-05,0
0.908,1.6617e-05,0
0.9085,6.8818e-06,0
0.909,-5.2033e-06,0
0.9095,-1.4603e-05,0
0.91,-1.5106e-05,0
0.9105,6.714e-07,0
0.911,2.4842e-05,0
0.9115,3.978e-05,0
0.912,3.827e-05,0
0.9125,2.6017e-05,0
0.913,1.0407e-05,0
0.9135,4.0284e-06,0
0.914,1.8631e-05,0
0.9145,4.448e-05,0
0.915,6.6636e-05,0
0.9155,8.2582e-05,0
0.916,8.9464e-05,0
0.9165,8.0735e-05,0
0.917,5.774e-05,0
0.9175,3.0381e-05,0
0.918,4.5319e-06,0
0.9185,-1.3932e-05,0
0.919,-2.4002e-05,0
0.9195,-3.0381e-05,0
0.92,-3.3906e-05,0
0.9205,-3.508e-05,0
0.921,-3.7095e-05,0
0.9215,-4.6494e-05,0
0.922,-5.9251e-05,0
0.9225,-6.2944e-05,0
0.923,-5.7908e-05,0
0.9235,-4.8508e-05,0
0.924,-3.508e-05,0
0.9245,-1.8296e-05,0
0.925,-3.8605e-06,0
0.9255,1.091e-05,0
0.926,2.7024e-05,0
0.9265,3.8102e-05,0
0.927,4.3473e-05,0
0.9275,4.6494e-05,0
0.928,4.8005e-05,0
0.9285,4.6662e-05,0
0.929,4.2802e-05,0
0.9295,4.1459e-05,0
0.93,5.0523e-05,0
0.9305,6.6804e-05,0
0.931,8.3085e-05,0
0.9315,9.3492e-05,0
0.932,9.3156e-05,0
0.9325,8.5603e-05,0
0.933,9.0806e-05,0
0.9335,0.00011666,0
0.934,0.00014301,0
0.9345,0.0001556,0
0.935,0.00015174,0
0.9355,0.00013008,0
0.936,9.7856e-05,0
0.9365,5.9251e-05,0
0.937,2.031e-05,0
0.9375,-1.2589e-05,0
0.938,-3.8773e-05,0
0.9385,-5.5055e-05,0
0.939,-5.9251e-05,0
0.9395,-6.3951e-05,0
0.94,-7.4693e-05,0
0.9405,-8.4093e-05,0
0.941,-8.8792e-05,0
0.9415,-9.987e-05,0
0.942,-0.00011565,0
0.9425,-0.000118,0
0.943,-9.9535e-05,0
0.9435,-7.1e-05,0
0.944,-4.3977e-05,0
0.9445,-2.6017e-05,0
0.945,-1.6281e-05,0
0.9455,-1.2589e-05,0
0.946,-1.2924e-05,0
0.9465,-1.091e-05,0
0.947,-3.5248e-06,0
0.9475,4.1962e-06,0
0.948,9.3996e-06,0
0.9485,1.1749e-05,0
0.949,1.2421e-05,0
0.9495,1.3764e-05,0
0.95,1.8631e-05,0
0.9505,1.9974e-05,0
0.951,1.7288e-05,0
0.9515,1.4939e-05,0
0.952,1.3932e-05,0
0.9525,1.5274e-05,0
0.953,2.4002e-05,0
0.9535,4.2802e-05,0
0.954,6.3447e-05,0
0.9545,7.805e-05,0
0.955,8.6946e-05,0
0.9555,9.4499e-05,0
0.956,9.7185e-05,0
0.9565,8.8289e-05,0
0.957,7.0161e-05,0
0.9575,5.5222e-05,0
0.958,5.0019e-05,0
0.9585,5.8076e-05,0
0.959,7.0664e-05,0
0.9595,8.6946e-05,0
0.96,0.00010524,0
0.9605,0.0001091,0
0.961,9.4163e-05,0
0.9615,7.1e-05,0
0.962,4.9683e-05,0
0.9625,3.3066e-05,0
0.963,1.5274e-05,0
0.9635,2.8534e-06,0
0.964,1.1749e-06,0
0.9645,6.5461e-06,0
0.965,1.0575e-05,0
0.9655,6.714e-06,0
0.966,-4.1962e-06,0
0.9665,-1.8631e-05,0
0.967,-3.1388e-05,0
0.9675,-3.978e-05,0
0.968,-4.6494e-05,0
0.9685,-4.9348e-05,0
0.969,-4.7166e-05,0
0.9695,-3.7262e-05,0
0.97,-2.5009e-05,0
0.9705,-1.5778e-05,0
0.971,-1.0239e-05,0
0.9715,-6.5461e-06,0
0.972,-2.3499e-06,0
0.9725,3.0213e-06,0
0.973,1.0071e-05,0
0.9735,1.9806e-05,0
0.974,2.8031e-05,0
0.9745,3.2731e-05,0
0.975,3.6759e-05,0
0.9755,3.8605e-05,0
0.976,3.9612e-05,0
0.9765,4.1459e-05,0
0.977,4.1123e-05,0
0.9775,3.743e-05,0
0.978,3.6591e-05,0
0.9785,3.8941e-05,0
0.979,3.8941e-05,0
0.9795,3.7095e-05,0
0.98,3.743e-05,0
0.9805,3.7934e-05,0
0.981,3.6423e-05,0
0.9815,3.4409e-05,0
0.982,3.4073e-05,0
0.9825,3.3402e-05,0
0.983,3.1388e-05,0
0.9835,3.1388e-05,0
0.984,3.3738e-05,0
0.9845,3.4577e-05,0
0.985,3.2563e-05,0
0.9855,3.0716e-05,0
0.986,3.2731e-05,0
0.9865,3.5584e-05,0
0.987,3.4409e-05,0
0.9875,3.122e-05,0
0.988,2.9709e-05,0
0.9885,2.8367e-05,0
0.989,2.6017e-05,0
0.9895,2.6017e-05,0
0.99,2.7192e-05,0
0.9905,3.0381e-05,0
0.991,3.5248e-05,0
0.9915,3.6759e-05,0
0.992,3.3906e-05,0
0.9925,2.8702e-05,0
0.993,2.3667e-05,0
0.9935,2.182e-05,0
0.994,1.8631e-05,0
0.9945,1.2085e-05,0
0.995,8.5603e-06,0
0.9955,9.2317e-06,0
0.996,7.3854e-06,0
0.9965,3.8605e-06,0
0.997,-1.5106e-06,0
0.9975,-6.2104e-06,0
0.998,-6.5461e-06,0
0.9985,-4.6998e-06,0
0.999,-4.6998e-06,0
0.9995,-6.0426e-06,0
1,-3.8605e-06,0
1.0005,1.8463e-06,0
1.001,7.3854e-06,0
1.0015,1.1246e-05,0
1.002,1.5946e-05,0
1.0025,2.2324e-05,0
1.003,2.7695e-05,0
1.0035,3.2563e-05,0
1.004,3.4409e-05,0
1.0045,2.7359e-05,0
1.005,1.8128e-05,0
1.0055,1.2757e-05,0
1.006,7.7211e-06,0
1.0065,6.8818e-06,0
1.007,1.0407e-05,0
1.0075,1.2924e-05,0
1.008,1.4435e-05,0
1.0085,1.6281e-05,0
1.009,2.1149e-05,0
1.0095,2.8534e-05,0
1.01,3.5416e-05,0
1.0105,4.2802e-05,0
1.011,5.1698e-05,0
1.0115,6.0258e-05,0
1.012,6.6468e-05,0
1.0125,6.865e-05,0
1.013,6.9657e-05,0
1.0135,7.335e-05,0
1.014,7.7043e-05,0
1.0145,7.1168e-05,0
1.015,5.2872e-05,0
1.0155,3.3066e-05,0
1.016,3.0716e-05,0
1.0165,5.0858e-05,0
1.017,6.7643e-05,0
1.0175,6.5965e-05,0
1.018,5.1865e-05,0
1.0185,2.9206e-05,0
1.019,-2.182e-06,0
1.0195,-3.6423e-05,0
1.02,-6.5797e-05,0
1.0205,-9.0135e-05,0
1.021,-0.00011061,0
1.0215,-0.00012589,0
1.022,-0.00013848,0
1.0225,-0.0001467,0
1.023,-0.0001514,0
1.0235,-0.00014955,0
1.024,-0.00013243,0
1.0245,-9.7353e-05,0
1.025,-5.4551e-05,0
1.0255,-6.714e-06,0
1.026,4.3473e-05,0
1.0265,7.1672e-05,0
1.027,7.1672e-05,0
1.0275,5.7237e-05,0
1.028,4.0619e-05,0
1.0285,3.1388e-05,0
1.029,2.1653e-05,0
1.0295,1.0575e-05,0
1.03,3.5248e-06,0
1.0305,5.0355e-06,0
1.031,1.2589e-05,0
1.0315,1.9303e-05,0
1.032,2.5177e-05,0
1.0325,2.4674e-05,0
1.033,1.6617e-05,0
1.0335,7.3854e-06,0
1.034,2.182e-06,0
1.0345,3.6927e-06,0
1.035,9.9031e-06,0
1.0355,1.5946e-05,0
1.036,2.6688e-05,0
1.0365,4.7166e-05,0
1.037,6.8315e-05,0
1.0375,8.1071e-05,0
1.038,8.4093e-05,0
1.0385,7.6371e-05,0
1.039,6.0929e-05,0
1.0395,4.6494e-05,0
1.04,3.9612e-05,0
1.0405,4.1795e-05,0
1.041,4.8508e-05,0
1.0415,5.5726e-05,0
1.042,5.9587e-05,0
1.0425,6.3951e-05,0
1.043,6.6804e-05,0
1.0435,6.4958e-05,0
1.044,5.5558e-05,0
1.0445,4.2802e-05,0
1.045,3.4241e-05,0
1.0455,3.1052e-05,0
1.046,3.1556e-05,0
1.0465,3.6423e-05,0
1.047,4.3641e-05,0
1.0475,4.7501e-05,0
1.048,4.448e-05,0
1.0485,4.0116e-05,0
1.049,4.1459e-05,0
1.0495,4.6159e-05,0
1.05,4.8844e-05,0
1.0505,4.8173e-05,0
1.051,4.448e-05,0
1.0515,4.0955e-05,0
1.052,3.8605e-05,0
1.0525,3.9445e-05,0
1.053,3.978e-05,0
1.0535,3.5752e-05,0
1.054,3.0716e-05,0
1.0545,3.0045e-05,0
1.055,3.122e-05,0
1.0555,2.8199e-05,0
1.056,2.182e-05,0
1.0565,1.8296e-05,0
1.057,2.0478e-05,0
1.0575,2.8031e-05,0
1.058,3.2059e-05,0
1.0585,2.9709e-05,0
1.059,2.7359e-05,0
1.0595,2.8534e-05,0
1.06,3.3738e-05,0
1.0605,4.0452e-05,0
1.061,4.6159e-05,0
1.0615,4.8005e-05,0
1.062,4.4816e-05,0
1.0625,3.8102e-05,0
1.063,2.3667e-05,0
1.0635,3.1891e-06,0
1.064,-1.7792e-05,0
1.0645,-3.8773e-05,0
1.065,-5.1865e-05,0
1.0655,-4.9851e-05,0
1.066,-4.0619e-05,0
1.0665,-3.0549e-05,0
1.067,-1.8296e-05,0
1.0675,-8.3925e-06,0
1.068,-4.1962e-06,0
1.0685,-1.3428e-06,0
1.069,2.182e-06,0
1.0695,6.0426e-06,0
1.07,4.1962e-06,0
1.0705,-3.1891e-06,0
1.071,-7.2175e-06,0
1.0715,-3.357e-07,0
1.072,1.3932e-05,0
1.0725,3.3066e-05,0
1.073,5.7908e-05,0
1.0735,8.0064e-05,0
1.074,8.3085e-05,0
1.0745,6.5629e-05,0
1.075,4.6494e-05,0
1.0755,3.6423e-05,0
1.076,2.4842e-05,0
1.0765,3.1891e-06,0
1.077,-2.3331e-05,0
1.0775,-4.4144e-05,0
1.078,-5.3376e-05,0
1.0785,-5.6901e-05,0
1.079,-6.1936e-05,0
1.0795,-6.1936e-05,0
1.08,-5.304e-05,0
1.0805,-4.448e-05,0
1.081,-4.4312e-05,0
1.0815,-4.2969e-05,0
1.082,-3.3402e-05,0
1.0825,-2.031e-05,0
1.083,-8.2246e-06,0
1.0835,6.8818e-06,0
1.084,2.7192e-05,0
1.0845,5.304e-05,0
1.085,7.5029e-05,0
1.0855,8.3085e-05,0
1.086,8.04e-05,0
1.0865,6.949e-05,0
1.087,6.009e-05,0
1.0875,5.7908e-05,0
1.088,5.2872e-05,0
1.0885,4.1291e-05,0
1.089,3.0549e-05,0
1.0895,2.5345e-05,0
1.09,2.5177e-05,0
1.0905,2.6688e-05,0
1.091,3.1052e-05,0
1.0915,3.2059e-05,0
1.092,2.6688e-05,0
1.0925,1.8463e-05,0
1.093,1.1582e-05,0
1.0935,8.5603e-06,0
1.094,8.3925e-06,0
1.0945,1.326e-05,0
1.095,1.4939e-05,0
1.0955,6.3783e-06,0
1.096,-3.357e-06,0
1.0965,-4.8676e-06,0
1.097,1.5106e-06,0
1.0975,1.2589e-05,0
1.098,2.5345e-05,0
1.0985,3.3402e-05,0
1.099,3.5248e-05,0
1.0995,3.8102e-05,0
1.1,4.2802e-05,0
1.1005,4.5823e-05,0
1.101,4.5151e-05,0
1.1015,4.3305e-05,0
1.102,4.1459e-05,0
1.1025,3.8605e-05,0
1.103,3.6759e-05,0
1.1035,3.827e-05,0
1.104,4.0619e-05,0
1.1045,4.2802e-05,0
1.105,4.4648e-05,0
1.1055,4.3473e-05,0
1.106,3.978e-05,0
1.1065,2.9206e-05,0
1.107,1.6617e-05,0
1.1075,1.2924e-05,0
1.108,1.8967e-05,0
1.1085,2.7359e-05,0
1.109,3.6088e-05,0
1.1095,3.8102e-05,0
1.11,3.2395e-05,0
1.1105,2.5681e-05,0
1.111,2.4674e-05,0
1.1115,3.0213e-05,0
1.112,3.9109e-05,0
1.1125,4.683e-05,0
1.113,5.9587e-05,0
1.1135,7.5532e-05,0
1.114,7.805e-05,0
1.1145,6.5965e-05,0
1.115,4.7333e-05,0
1.1155,2.2492e-05,0
1.116,-4.1962e-06,0
1.1165,-2.2156e-05,0
1.117,-3.0716e-05,0
1.1175,-3.4745e-05,0
1.118,-3.508e-05,0
1.1185,-3.4073e-05,0
1.119,-3.4745e-05,0
1.1195,-3.5416e-05,0
1.12,-3.4745e-05,0
1.1205,-3.0381e-05,0
1.121,-2.4842e-05,0
1.1215,-2.1653e-05,0
1.122,-2.0813e-05,0
1.1225,-1.9974e-05,0
1.123,-1.9303e-05,0
1.1235,-1.6617e-05,0
1.124,-1.6785e-05,0
1.1245,-2.3835e-05,0
1.125,-1.9806e-05,0
1.1255,3.0213e-06,0
1.126,2.4674e-05,0
1.1265,3.2395e-05,0
1.127,3.743e-05,0
1.1275,5.2872e-05,0
1.128,7.3686e-05,0
1.1285,9.1814e-05,0
1.129,0.00010054,0
1.1295,9.5842e-05,0
1.13,8.4596e-05,0
1.1305,7.3518e-05,0
1.131,6.2608e-05,0
1.1315,4.8508e-05,0
1.132,3.4073e-05,0
1.1325,2.9374e-05,0
1.133,3.0045e-05,0
1.1335,2.7359e-05,0
1.134,1.5778e-05,0
1.1345,5.035e-07,0
1.135,-9.5674e-06,0
1.1355,-2.1653e-05,0
1.136,-4.3137e-05,0
1.1365,-5.6733e-05,0
1.137,-5.0187e-05,0
1.1375,-3.2059e-05,0
1.138,-1.5274e-05,0
1.1385,-2.8534e-06,0
1.139,7.2175e-06,0
1.1395,1.2589e-05,0
1.14,1.0575e-05,0
1.1405,3.8605e-06,0
1.141,2.5177e-06,0
1.1415,1.1582e-05,0
1.142,2.182e-05,0
1.1425,2.4002e-05,0
1.143,1.796e-05,0
1.1435,5.8747e-06,0
1.144,-6.0426e-06,0
1.1445,-8.3925e-06,0
1.145,-1.678e-07,0
1.1455,1.5946e-05,0
1.146,3.743e-05,0
1.1465,5.7908e-05,0
1.147,7.7043e-05,0
1.1475,9.5842e-05,0
1.148,0.00010356,0
1.1485,9.1142e-05,0
1.149,7.1672e-05,0
1.1495,5.7404e-05,0
1.15,4.1795e-05,0
1.1505,1.9974e-05,0
1.151,1.678e-07,0
1.1515,-1.2421e-05,0
1.152,-1.5106e-05,0
1.1525,-1.2589e-05,0
1.153,-1.3932e-05,0
1.1535,-1.7121e-05,0
1.154,-1.9638e-05,0
1.1545,-2.3331e-05,0
1.155,-2.7024e-05,0
1.1555,-2.4338e-05,0
1.156,-9.9031e-06,0
1.1565,1.1917e-05,0
1.157,2.7695e-05,0
1.1575,3.2059e-05,0
1.158,3.3402e-05,0
1.1585,3.827e-05,0
1.159,4.0452e-05,0
1.1595,3.6759e-05,0
1.16,3.2059e-05,0
1.1605,2.8702e-05,0
1.161,2.7359e-05,0
1.1615,2.8702e-05,0
1.162,2.9038e-05,0
1.1625,2.7863e-05,0
1.163,2.5513e-05,0
1.1635,2.5177e-05,0
1.164,2.7695e-05,0
1.1645,3.0716e-05,0
1.165,4.2466e-05,0
1.1655,6.4286e-05,0
1.166,7.956e-05,0
1.1665,8.5435e-05,0
1.167,8.6946e-05,0
1.1675,7.5029e-05,0
1.168,5.0019e-05,0
1.1685,2.7863e-05,0
1.169,1.6449e-05,0
1.1695,1.3596e-05,0
1.17,1.4267e-05,0
1.1705,8.5603e-06,0
1.171,-2.182e-06,0
1.1715,-9.9031e-06,0
1.172,-1.6785e-05,0
1.1725,-1.9303e-05,0
1.173,-1.6281e-05,0
1.1735,-8.5603e-06,0
1.174,2.182e-06,0
1.1745,8.896e-06,0
1.175,3.8605e-06,0
1.1755,-4.5319e-06,0
1.176,-6.5461e-06,0
1.1765,-5.539e-06,0
1.177,-5.8747e-06,0
1.1775,-4.8676e-06,0
1.178,-1.5106e-06,0
1.1785,2.182e-06,0
1.179,5.2033e-06,0
1.1795,8.7282e-06,0
1.18,1.1078e-05,0
1.1805,1.2253e-05,0
1.181,1.4603e-05,0
1.1815,1.796e-05,0
1.182,2.182e-05,0
1.1825,2.266e-05,0
1.183,2.266e-05,0
1.1835,2.6352e-05,0
1.184,3.122e-05,0
1.1845,3.6759e-05,0
1.185,4.3305e-05,0
1.1855,5.153e-05,0
1.186,5.4887e-05,0
1.1865,5.1194e-05,0
1.187,4.7501e-05,0
1.1875,5.2201e-05,0
1.188,6.3111e-05,0
1.1885,7.3686e-05,0
1.189,7.4021e-05,0
1.1895,6.1601e-05,0
1.19,4.4984e-05,0
1.1905,2.9374e-05,0
1.191,1.2757e-05,0
1.1915,-7.3854e-06,0
1.192,-1.9303e-05,0
1.1925,-1.5274e-05,0
1.193,-3.6927e-06,0
1.1935,6.5461e-06,0
1.194,1.4939e-05,0
1.1945,2.0813e-05,0
1.195,2.3667e-05,0
1.1955,2.0646e-05,0
1.196,1.2924e-05,0
1.1965,6.5461e-06,0
1.197,4.1962e-06,0
1.1975,5.539e-06,0
1.198,5.2033e-06,0
1.1985,3.8605e-06,0
1.199,2.182e-06,0
1.1995,-2.8534e-06,0
1.2,-1.2253e-05,0
1.2005,-1.9974e-05,0
1.201,-1.8967e-05,0
1.2015,-1.091e-05,0
1.202,-5.8747e-06,0
1.2025,-4.1962e-06,0
1.203,-8.392e-07,0
1.2035,3.8605e-06,0
1.204,7.2175e-06,0
1.2045,1.0575e-05,0
1.205,1.8631e-05,0
1.2055,2.9877e-05,0
1.206,4.448e-05,0
1.2065,5.7404e-05,0
1.207,6.3447e-05,0
1.2075,6.6636e-05,0
1.208,7.2343e-05,0
1.2085,7.7714e-05,0
1.209,8.1743e-05,0
1.2095,7.9728e-05,0
1.21,7.2343e-05,0
1.2105,6.1601e-05,0
1.211,5.0523e-05,0
1.2115,4.4144e-05,0
1.212,4.1459e-05,0
1.2125,3.827e-05,0
1.213,3.3066e-05,0
1.2135,2.5009e-05,0
1.214,1.561e-05,0
1.2145,-8.392e-07,0
1.215,-2.5681e-05,0
1.2155,-4.8173e-05,0
1.216,-5.9251e-05,0
1.2165,-6.0594e-05,0
1.217,-6.1097e-05,0
1.2175,-6.0426e-05,0
1.218,-5.1194e-05,0
1.2185,-3.2059e-05,0
1.219,-1.2589e-05,0
1.2195,-4.8676e-06,0
1.22,-8.5603e-06,0
1.2205,-7.7211e-06,0
1.221,7.0497e-06,0
1.2215,2.5345e-05,0
1.222,3.5416e-05,0
1.2225,3.8773e-05,0
1.223,3.7934e-05,0
1.2235,3.592e-05,0
1.224,3.2731e-05,0
1.2245,2.7192e-05,0
1.225,2.1317e-05,0
1.2255,1.6953e-05,0
1.226,1.5274e-05,0
1.2265,2.3499e-05,0
1.227,3.1388e-05,0
1.2275,2.4002e-05,0
1.228,-8.392e-07,0
1.2285,-3.3738e-05,0
1.229,-5.7908e-05,0
1.2295,-6.9154e-05,0
1.23,-6.9154e-05,0
1.2305,-5.6062e-05,0
1.231,-3.2395e-05,0
1.2315,-6.8818e-06,0
1.232,1.561e-05,0
1.2325,3.5752e-05,0
1.233,4.8676e-05,0
1.2335,5.623e-05,0
1.234,5.9251e-05,0
1.2345,6.0929e-05,0
1.235,0,0
1.2355,0,0
1.236,0,0
1.2365,0,0
1.237,0,0
1.2375,0,0
1.238,0,0
1.2385,0,0
1.239,0,0
1.2395,0,0
1.24,0,0
1.2405,0,0
1.241,0,0
1.2415,0,0
1.242,0,0
1.2425,0,0
1.243,0,0
1.2435,0,0
1.244,0,0
1.2445,0,0
1.245,0,0
1.2455,0,0
1.246,0,0
1.2465,0,0
1.247,0,0
1.2475,0,0
1.248,8.392e-07,0
1.2485,-6.714e-07,0
1.249,1.1749e-06,0
1.2495,4.5319e-06,0
1.25,7.5532e-06,0
1.2505,1.0575e-05,0
1.251,1.4603e-05,0
1.2515,2.3667e-05,0
1.252,3.8605e-05,0
1.2525,5.1194e-05,0
1.253,5.1194e-05,0
1.2535,3.8437e-05,0
1.254,1.9303e-05,0
1.2545,2.8534e-06,0
1.255,-4.8676e-06,0
1.2555,-2.0142e-06,0
1.256,7.8889e-06,0
1.2565,1.6953e-05,0
1.257,2.0646e-05,0
1.2575,2.2324e-05,0
1.258,2.1149e-05,0
1.2585,1.6281e-05,0
1.259,9.7353e-06,0
1.2595,2.8534e-06,0
1.26,-1.678e-07,0
1.2605,3.357e-07,0
1.261,3.8605e-06,0
1.2615,7.0497e-06,0
1.262,1.1749e-05,0
1.2625,1.796e-05,0
1.263,2.1988e-05,0
1.2635,2.4674e-05,0
1.264,2.6184e-05,0
1.2645,2.6017e-05,0
1.265,2.9206e-05,0
1.2655,3.4745e-05,0
1.266,3.9109e-05,0
1.2665,3.9445e-05,0
1.267,3.8773e-05,0
1.2675,3.6423e-05,0
1.268,3.6088e-05,0
1.2685,3.4577e-05,0
1.269,2.7863e-05,0
1.2695,2.0646e-05,0
1.27,1.7624e-05,0
1.2705,1.8296e-05,0
1.271,2.1988e-05,0
1.2715,2.7527e-05,0
1.272,3.0716e-05,0
1.2725,2.266e-05,0
1.273,7.5532e-06,0
1.2735,-2.8534e-06,0
1.274,-4.6998e-06,0
1.2745,-5.0355e-06,0
1.275,-4.6998e-06,0
1.2755,5.035e-07,0
1.276,8.2246e-06,0
1.2765,1.8463e-05,0
1.277,3.122e-05,0
1.2775,4.2802e-05,0
1.278,5.0523e-05,0
1.2785,5.1865e-05,0
1.279,4.9515e-05,0
1.2795,4.683e-05,0
1.28,4.0452e-05,0
1.2805,3.1388e-05,0
1.281,2.7863e-05,0
1.2815,2.8031e-05,0
1.282,2.7359e-05,0
1.2825,3.2731e-05,0
1.283,4.3473e-05,0
1.2835,5.0858e-05,0
1.284,4.7501e-05,0
1.2845,3.0381e-05,0
1.285,9.9031e-06,0
1.2855,-4.1962e-06,0
1.286,-6.5461e-06,0
1.2865,1.0071e-06,0
1.287,0,0
1.2875,0,0
1.288,0,0
1.2885,0,0
1.289,0,0
1.2895,0,0
1.29,0,0
1.2905,0,0
1.291,0,0
1.2915,0,0
1.292,0,0
1.2925,0,0
1.293,0,0
1.2935,0,0
1.294,0,0
1.2945,0,0
1.295,0,0
1.2955,0,0
1.296,0,0
1.2965,0,0
1.297,0,0
1.2975,0,0
1.298,0,0
1.2985,0,0
1.299,0,0
1.2995,0,0
1.3,0.00013378,0
1.3005,0.00012538,0
1.301,0.00010088,0
1.3015,6.7979e-05,0
1.302,3.1891e-05,0
1.3025,1.5106e-06,0
1.303,-1.4603e-05,0
1.3035,-1.2253e-05,0
1.304,-5.0355e-06,0
1.3045,-8.2246e-06,0
1.305,-1.9135e-05,0
1.3055,-3.357e-05,0
1.306,-5.7237e-05,0
1.3065,-8.7953e-05,0
1.307,-0.00011279,0
1.3075,-0.00012119,0
1.308,-0.00011363,0
1.3085,-9.6513e-05,0
1.309,-7.5029e-05,0
1.3095,-5.539e-05,0
1.31,-3.8102e-05,0
1.3105,-1.8967e-05,0
1.311,-4.1962e-06,0
1.3115,3.357e-06,0
1.312,8.5603e-06,0
1.3125,1.6449e-05,0
1.313,2.9374e-05,0
1.3135,4.7837e-05,0
1.314,6.6804e-05,0
1.3145,7.8218e-05,0
1.315,8.1575e-05,0
1.3155,8.1071e-05,0
1.316,7.57e-05,0
1.3165,6.4286e-05,0
1.317,4.9012e-05,0
1.3175,3.4409e-05,0
1.318,2.1317e-05,0
1.3185,1.2924e-05,0
1.319,1.1246e-05,0
1.3195,1.4603e-05,0
1.32,1.7792e-05,0
1.3205,1.9303e-05,0
1.321,2.2492e-05,0
1.3215,2.8534e-05,0
1.322,3.827e-05,0
1.3225,4.8173e-05,0
1.323,4.9851e-05,0
1.3235,4.1795e-05,0
1.324,3.2227e-05,0
1.3245,2.6688e-05,0
1.325,2.7359e-05,0
1.3255,2.9709e-05,0
1.326,0,0
1.3265,0,0
1.327,0,0
1.3275,0,0
1.328,0,0
1.3285,0,0
1.329,0,0
1.3295,0,0
1.33,0,0
1.3305,0,0
1.331,0,0
1.3315,0,0
1.332,0,0
1.3325,0,0
1.333,0,0
1.3335,0,0
1.334,0,0
1.3345,0,0
1.335,0,0
1.3355,0,0
1.336,0,0
1.3365,0,0
1.337,0,0
1.3375,0,0
1.338,0,0
1.3385,0,0
1.339,8.896e-05,0
1.3395,0.00010054,0
1.34,9.8863e-05,0
1.3405,8.8457e-05,0
1.341,7.4357e-05,0
1.3415,5.8579e-05,0
1.342,4.3641e-05,0
1.3425,3.1052e-05,0
1.343,2.2324e-05,0
1.3435,1.1917e-05,0
1.344,-3.357e-07,0
1.3445,-9.2317e-06,0
1.345,-1.2924e-05,0
1.3455,-1.1414e-05,0
1.346,-8.896e-06,0
1.3465,-1.1917e-05,0
1.347,-1.8967e-05,0
1.3475,-2.1149e-05,0
1.348,-1.5778e-05,0
1.3485,-7.5532e-06,0
1.349,3.0213e-06,0
1.3495,1.4603e-05,0
1.35,2.2324e-05,0
1.3505,2.7359e-05,0
1.351,3.2395e-05,0
1.3515,4.3977e-05,0
1.352,6.6636e-05,0
1.3525,8.7785e-05,0
1.353,9.6513e-05,0
1.3535,0.00010323,0
1.354,0.00010826,0
1.3545,0.00010239,0
1.355,8.5771e-05,0
1.3555,7.2343e-05,0
1.356,6.2776e-05,0
1.3565,4.9348e-05,0
1.357,3.5416e-05,0
1.3575,2.5513e-05,0
1.358,1.6281e-05,0
1.3585,2.5177e-06,0
1.359,-1.9303e-05,0
1.3595,-5.4887e-05,0
1.36,-9.7688e-05,0
1.3605,-0.00013109,0
1.361,-0.00014754,0
1.3615,-0.00015106,0
1.362,-0.00014452,0
1.3625,-0.00012018,0
1.363,-8.04e-05,0
1.3635,-4.1962e-05,0
1.364,-4.5319e-06,0
1.3645,4.4648e-05,0
1.365,8.6778e-05,0
1.3655,9.601e-05,0
1.366,8.4428e-05,0
1.3665,7.1e-05,0
1.367,5.5558e-05,0
1.3675,3.2059e-05,0
1.368,3.6927e-06,0
1.3685,-1.3596e-05,0
1.369,-1.2253e-05,0
1.3695,-7.3854e-06,0
1.37,-1.3764e-05,0
1.3705,-2.8534e-05,0
1.371,-4.3977e-05,0
1.3715,-5.7237e-05,0
1.372,-6.5126e-05,0
1.3725,-6.1601e-05,0
1.373,-4.918e-05,0
1.3735,-3.6088e-05,0
1.374,-1.9638e-05,0
1.3745,-1.8463e-06,0
1.375,1.3932e-05,0
1.3755,2.8031e-05,0
1.376,3.6423e-05,0
1.3765,3.6759e-05,0
1.377,3.3906e-05,0
1.3775,3.1891e-05,0
1.378,3.4913e-05,0
1.3785,4.1291e-05,0
1.379,4.4984e-05,0
1.3795,4.448e-05,0
1.38,4.213e-05,0
1.3805,4.213e-05,0
1.381,4.5319e-05,0
1.3815,5.0019e-05,0
1.382,5.4383e-05,0
1.3825,5.2872e-05,0
1.383,4.5151e-05,0
1.3835,4.1291e-05,0
1.384,4.4144e-05,0
1.3845,4.9012e-05,0
1.385,5.2033e-05,0
1.3855,5.6901e-05,0
1.386,6.2608e-05,0
1.3865,6.5965e-05,0
1.387,6.5461e-05,0
1.3875,6.1097e-05,0
1.388,5.6901e-05,0
1.3885,5.5222e-05,0
1.389,5.5894e-05,0
1.3895,5.5558e-05,0
1.39,5.7237e-05,0
1.3905,5.8915e-05,0
1.391,6.0761e-05,0
1.3915,6.1265e-05,0
1.392,5.9587e-05,0
1.3925,5.9922e-05,0
1.393,6.0258e-05,0
1.3935,6.1265e-05,0
1.394,6.3279e-05,0
1.3945,6.4118e-05,0
1.395,5.9251e-05,0
1.3955,4.7166e-05,0
1.396,3.5752e-05,0
1.3965,3.1724e-05,0
1.397,3.4577e-05,0
1.3975,3.7262e-05,0
1.398,3.3066e-05,0
1.3985,2.1988e-05,0
1.399,9.3996e-06,0
1.3995,-1.5106e-06,0
1.4,-2.8534e-06,0
1.4005,5.7069e-06,0
1.401,1.1582e-05,0
1.4015,7.0497e-06,0
1.402,-3.5248e-06,0
1.4025,-1.4939e-05,0
1.403,-2.6017e-05,0
1.4035,-3.1724e-05,0
1.404,-3.1388e-05,0
1.4045,-2.7695e-05,0
1.405,-2.4842e-05,0
1.4055,-2.6688e-05,0
1.406,-2.9877e-05,0
1.4065,-2.8367e-05,0
1.407,-2.5681e-05,0
1.4075,-2.5009e-05,0
1.408,-2.5513e-05,0
1.4085,-2.8367e-05,0
1.409,-2.7695e-05,0
1.4095,-1.9303e-05,0
1.41,-1.2085e-05,0
1.4105,-7.0497e-06,0
1.411,7.7211e-06,0
1.4115,3.357e-05,0
1.412,6.3951e-05,0
1.4125,9.6513e-05,0
1.413,0.00012387,0
1.4135,0.0001368,0
1.414,0.00012874,0
1.4145,0.00010121,0
1.415,6.8147e-05,0
1.4155,3.9445e-05,0
1.416,1.6617e-05,0
1.4165,2.5177e-06,0
1.417,-2.3499e-06,0
1.4175,-3.1891e-06,0
1.418,-4.1962e-06,0
1.4185,-8.5603e-06,0
1.419,-1.4435e-05,0
1.4195,-2.1988e-05,0
1.42,-3.5416e-05,0
1.4205,-5.153e-05,0
1.421,-6.2272e-05,0
1.4215,-6.2272e-05,0
1.422,-4.5655e-05,0
1.4225,-1.4603e-05,0
1.423,9.2317e-06,0
1.4235,1.2924e-05,0
1.424,3.0213e-06,0
1.4245,-2.8534e-06,0
1.425,5.2033e-06,0
1.4255,1.7288e-05,0
1.426,2.9206e-05,0
1.4265,4.3473e-05,0
1.427,5.2872e-05,0
1.4275,4.4816e-05,0
1.428,2.7359e-05,0
1.4285,1.2589e-05,0
1.429,5.8747e-06,0
1.4295,8.3925e-06,0
1.43,1.1917e-05,0
1.4305,1.4267e-05,0
1.431,2.2324e-05,0
1.4315,3.6759e-05,0
1.432,4.2802e-05,0
1.4325,3.0716e-05,0
1.433,1.0575e-05,0
1.4335,-3.1891e-06,0
1.434,-7.3854e-06,0
1.4345,-7.0497e-06,0
1.435,-4.8676e-06,0
1.4355,-5.0355e-06,0
1.436,-9.5674e-06,0
1.4365,-1.1582e-05,0
1.437,-3.5248e-06,0
1.4375,1.3596e-05,0
1.438,2.6688e-05,0
1.4385,2.2324e-05,0
1.439,8.7282e-06,0
1.4395,3.0213e-06,0
1.44,1.1582e-05,0
1.4405,2.7192e-05,0
1.441,3.827e-05,0
1.4415,3.743e-05,0
1.442,2.8367e-05,0
1.4425,2.1317e-05,0
1.443,2.1317e-05,0
1.4435,2.7695e-05,0
1.444,3.5752e-05,0
1.4445,4.0619e-05,0
1.445,4.1962e-05,0
1.4455,4.1459e-05,0
1.446,4.0116e-05,0
1.4465,4.213e-05,0
1.447,4.2634e-05,0
1.4475,3.6927e-05,0
1.448,3.1388e-05,0
1.4485,2.9374e-05,0
1.449,2.6184e-05,0
1.4495,1.9303e-05,0
1.45,9.5674e-06,0
1.4505,1.678e-07,0
1.451,-9.7353e-06,0
1.4515,-1.4939e-05,0
1.452,-9.9031e-06,0
1.4525,5.539e-06,0
1.453,2.3331e-05,0
1.4535,3.8773e-05,0
1.454,5.8244e-05,0
1.4545,9.5171e-05,0
1.455,0.00014015,0
1.4555,0.00016214,0
1.456,0.00014989,0
1.4565,0.00011968,0
1.457,8.4428e-05,0
1.4575,4.2466e-05,0
1.458,-2.182e-06,0
1.4585,-3.2731e-05,0
1.459,-4.0787e-05,0
1.4595,-3.5416e-05,0
1.46,-2.4002e-05,0
1.4605,-9.3996e-06,0
1.461,3.8605e-06,0
1.4615,9.2317e-06,0
1.462,4.3641e-06,0
1.4625,-4.6998e-06,0
1.463,-7.7211e-06,0
1.4635,-4.5319e-06,0
1.464,-1.5106e-06,0
1.4645,5.035e-07,0
1.465,2.8534e-06,0
1.4655,5.539e-06,0
1.466,7.8889e-06,0
1.4665,8.7282e-06,0
1.467,8.0568e-06,0
1.4675,7.7211e-06,0
1.468,1.0575e-05,0
1.4685,1.9303e-05,0
1.469,2.7192e-05,0
1.4695,2.6184e-05,0
1.47,1.9638e-05,0
1.4705,2.031e-05,0
1.471,2.9206e-05,0
1.4715,3.9277e-05,0
1.472,4.918e-05,0
1.4725,5.9251e-05,0
1.473,7.0329e-05,0
1.4735,7.6036e-05,0
1.474,7.4357e-05,0
1.4745,7.2343e-05,0
1.475,6.8986e-05,0
1.4755,6.0929e-05,0
1.476,4.8173e-05,0
1.4765,3.2059e-05,0
1.477,1.8463e-05,0
1.4775,1.0239e-05,0
1.478,6.8818e-06,0
1.4785,1.3428e-06,0
1.479,-7.0497e-06,0
1.4795,-1.1917e-05,0
1.48,-3.5248e-06,0
1.4805,2.6352e-05,0
1.481,6.0929e-05,0
1.4815,7.8386e-05,0
1.482,7.6036e-05,0
1.4825,5.774e-05,0
1.483,3.0045e-05,0
1.4835,5.8747e-06,0
1.484,-4.1962e-06,0
1.4845,-3.0213e-06,0
1.485,-1.6785e-06,0
1.4855,-5.539e-06,0
1.486,-1.7288e-05,0
1.4865,-3.7095e-05,0
1.487,-5.7069e-05,0
1.4875,-7.2511e-05,0
1.488,-8.191e-05,0
1.4885,-8.7114e-05,0
1.489,-9.3828e-05,0
1.4895,-0.0001039,0
1.49,-0.00011128,0
1.4905,-0.00010306,0
1.491,-8.0064e-05,0
1.4915,-5.623e-05,0
1.492,-4.1123e-05,0
1.4925,-3.0045e-05,0
1.493,-1.6617e-05,0
1.4935,6.5461e-06,0
1.494,3.3234e-05,0
1.4945,4.683e-05,0
1.495,4.9515e-05,0
1.4955,5.5894e-05,0
1.496,5.9587e-05,0
1.4965,5.3208e-05,0
1.497,4.5823e-05,0
1.4975,5.0019e-05,0
1.498,6.3951e-05,0
1.4985,7.8553e-05,0
1.499,8.5771e-05,0
1.4995,8.4764e-05,0
1.5,7.57e-05,0
1.5005,6.3615e-05,0
1.501,5.4048e-05,0
1.5015,4.7166e-05,0
1.502,3.9445e-05,0
1.5025,3.2059e-05,0
1.503,2.8367e-05,0
1.5035,2.8702e-05,0
1.504,3.3402e-05,0
1.5045,3.8437e-05,0
1.505,3.5416e-05,0
1.5055,2.5345e-05,0
1.506,1.3092e-05,0
1.5065,1.0071e-06,0
1.507,-6.8818e-06,0
1.5075,-3.5248e-06,0
1.508,7.8889e-06,0
1.5085,2.266e-05,0
1.509,4.2634e-05,0
1.5095,6.4286e-05,0
1.51,7.8386e-05,0
1.5105,8.2078e-05,0
1.511,8.1743e-05,0
1.5115,8.5435e-05,0
1.512,9.2317e-05,0
1.5125,9.4667e-05,0
1.513,9.0135e-05,0
1.5135,8.3085e-05,0
1.514,7.5029e-05,0
1.5145,6.4286e-05,0
1.515,4.8173e-05,0
1.5155,3.3066e-05,0
1.516,2.4002e-05,0
1.5165,1.9806e-05,0
1.517,1.0575e-05,0
1.5175,-5.0355e-06,0
1.518,-1.2924e-05,0
1.5185,-1.091e-05,0
1.519,-4.8676e-06,0
1.5195,1.3428e-06,0
1.52,6.3783e-06,0
1.5205,5.539e-06,0
1.521,-1.6785e-06,0
1.5215,-1.1749e-05,0
1.522,-1.6281e-05,0
1.5225,-1.561e-05,0
1.523,-1.8128e-05,0
1.5235,-2.4002e-05,0
1.524,-3.2898e-05,0
1.5245,-4.0619e-05,0
1.525,-4.5151e-05,0
1.5255,-4.5655e-05,0
1.526,-4.3305e-05,0
1.5265,-3.508e-05,0
1.527,-2.5345e-05,0
1.5275,-2.1988e-05,0
1.528,-2.2324e-05,0
1.5285,-1.9135e-05,0
1.529,-2.182e-06,0
1.5295,3.743e-05,0
1.53,8.2918e-05,0
1.5305,0.00010692,0
1.531,0.00010793,0
1.5315,0.00010457,0
1.532,0.00010591,0
1.5325,9.9535e-05,0
1.533,7.6371e-05,0
1.5335,4.4816e-05,0
1.534,1.6617e-05,0
1.5345,-3.5248e-06,0
1.535,-1.8463e-05,0
1.5355,-2.8534e-05,0
1.536,-3.3738e-05,0
1.5365,-4.0955e-05,0
1.537,-4.918e-05,0
1.5375,-5.1362e-05,0
1.538,-4.2969e-05,0
1.5385,-3.0045e-05,0
1.539,-1.8967e-05,0
1.5395,-1.1246e-05,0
1.54,-1.0239e-05,0
1.5405,-1.5442e-05,0
1.541,-1.4435e-05,0
1.5415,-1.5106e-06,0
1.542,1.326e-05,0
1.5425,1.8296e-05,0
1.543,1.9303e-05,0
1.5435,2.182e-05,0
1.544,2.8702e-05,0
1.5445,3.8102e-05,0
1.545,4.4648e-05,0
1.5455,4.5487e-05,0
1.546,4.1291e-05,0
1.5465,3.592e-05,0
1.547,3.357e-05,0
1.5475,3.5416e-05,0
1.548,3.7934e-05,0
1.5485,3.9948e-05,0
1.549,4.2802e-05,0
1.5495,5.4887e-05,0
1.55,7.3518e-05,0
1.5505,8.5603e-05,0
1.551,8.4764e-05,0
1.5515,7.4357e-05,0
1.552,5.7908e-05,0
1.5525,3.743e-05,0
1.553,1.5778e-05,0
1.5535,-1.1749e-06,0
1.554,-9.7353e-06,0
1.5545,-9.9031e-06,0
1.555,-4.0284e-06,0
1.5555,4.5319e-06,0
1.556,1.2589e-05,0
1.5565,1.947e-05,0
1.557,3.2059e-05,0
1.5575,5.5558e-05,0
1.558,7.335e-05,0
1.5585,7.4189e-05,0
1.559,7.3014e-05,0
1.5595,7.3014e-05,0
1.56,6.8986e-05,0
1.5605,7.2175e-05,0
1.561,7.9225e-05,0
1.5615,7.5868e-05,0
1.562,6.0929e-05,0
1.5625,4.9851e-05,0
1.563,4.5487e-05,0
1.5635,3.9948e-05,0
1.564,2.5849e-05,0
1.5645,-2.182e-06,0
1.565,-4.0452e-05,0
1.5655,-7.4861e-05,0
1.566,-9.1478e-05,0
1.5665,-8.8457e-05,0
1.567,-7.335e-05,0
1.5675,-5.6901e-05,0
1.568,-4.7669e-05,0
1.5685,-4.6159e-05,0
1.569,-4.1459e-05,0
1.5695,-3.3066e-05,0
1.57,-2.7192e-05,0
1.5705,-2.8199e-05,0
1.571,-3.4577e-05,0
1.5715,-4.213e-05,0
1.572,-3.743e-05,0
1.5725,-1.5274e-05,0
1.573,7.5532e-06,0
1.5735,1.9638e-05,0
1.574,2.8031e-05,0
1.5745,3.5584e-05,0
1.575,3.4745e-05,0
1.5755,2.4506e-05,0
1.576,1.2589e-05,0
1.5765,9.2317e-06,0
1.577,1.8296e-05,0
1.5775,3.6088e-05,0
1.578,5.4215e-05,0
1.5785,6.2944e-05,0
1.579,6.2272e-05,0
1.5795,5.7237e-05,0
1.58,5.1865e-05,0
1.5805,4.8005e-05,0
1.581,4.2466e-05,0
1.5815,3.9109e-05,0
1.582,3.8773e-05,0
1.5825,4.0452e-05,0
1.583,4.0452e-05,0
1.5835,3.4073e-05,0
1.584,2.9038e-05,0
1.5845,2.6688e-05,0
1.585,2.6352e-05,0
1.5855,2.2324e-05,0
1.586,1.5778e-05,0
1.5865,1.0575e-05,0
1.587,1.1078e-05,0
1.5875,1.6953e-05,0
1.588,2.3331e-05,0
1.5885,2.6688e-05,0
1.589,2.5345e-05,0
1.5895,2.266e-05,0
1.59,2.1149e-05,0
1.5905,2.0981e-05,0
1.591,2.3331e-05,0
1.5915,2.7359e-05,0
1.592,2.6688e-05,0
1.5925,2.1317e-05,0
1.593,1.561e-05,0
1.5935,1.1917e-05,0
1.594,1.3932e-05,0
1.5945,1.796e-05,0
1.595,2.031e-05,0
1.5955,2.5177e-05,0
1.596,3.5752e-05,0
1.5965,4.7837e-05,0
1.597,5.623e-05,0
1.5975,6.1601e-05,0
1.598,6.0761e-05,0
1.5985,5.5894e-05,0
1.599,5.0523e-05,0
1.5995,4.2802e-05,0
1.6,3.4073e-05,0
1.6005,2.5681e-05,0
1.601,2.0981e-05,0
1.6015,2.6184e-05,0
1.602,4.1795e-05,0
1.6025,5.8915e-05,0
1.603,7.1672e-05,0
1.6035,7.5029e-05,0
1.604,6.3951e-05,0
1.6045,4.1795e-05,0
1.605,1.5946e-05,0
1.6055,-4.1962e-06,0
1.606,-1.5442e-05,0
1.6065,-2.3331e-05,0
1.607,-2.652e-05,0
1.6075,-2.4338e-05,0
1.608,-2.0813e-05,0
1.6085,-1.796e-05,0
1.609,-1.6449e-05,0
1.6095,-1.5274e-05,0
1.61,-1.561e-05,0
1.6105,-1.7792e-05,0
1.611,-1.7288e-05,0
1.6115,-1.6617e-05,0
1.612,-2.0981e-05,0
1.6125,-2.7695e-05,0
1.613,-2.9877e-05,0
1.6135,-3.0381e-05,0
1.614,-3.4745e-05,0
1.6145,-3.4073e-05,0
1.615,-2.5009e-05,0
1.6155,-1.3092e-05,0
1.616,-2.8534e-06,0
1.6165,5.8747e-06,0
1.617,1.4939e-05,0
1.6175,3.1052e-05,0
1.618,4.9515e-05,0
1.6185,6.2104e-05,0
1.619,6.63e-05,0
1.6195,6.4118e-05,0
1.62,6.4286e-05,0
1.6205,6.8315e-05,0
1.621,7.0161e-05,0
1.6215,6.7643e-05,0
1.622,7.4021e-05,0
1.6225,9.2653e-05,0
1.623,0.00011632,0
1.6235,0.00013613,0
1.624,0.00015023,0
1.6245,0.00016181,0
1.625,0.00016298,0
1.6255,0.0001415,0
1.626,0.00010961,0
1.6265,8.3421e-05,0
1.627,5.4887e-05,0
1.6275,2.266e-05,0
1.628,-5.0355e-06,0
1.6285,-2.2324e-05,0
1.629,-3.827e-05,0
1.6295,-5.8244e-05,0
1.63,-8.1575e-05,0
1.6305,-0.00010088,0
1.631,-0.00011431,0
1.6315,-0.00011649,0
1.632,-0.00010558,0
1.6325,-8.9632e-05,0
1.633,-8.3421e-05,0
1.6335,-8.9967e-05,0
1.634,-9.8527e-05,0
1.6345,-0.00010188,0
1.635,-0.00010105,0
1.6355,-9.752e-05,0
1.636,-8.745e-05,0
1.6365,-7.0329e-05,0
1.637,-5.069e-05,0
1.6375,-2.8702e-05,0
1.638,-6.0426e-06,0
1.6385,1.2253e-05,0
1.639,2.3163e-05,0
1.6395,3.3402e-05,0
1.64,4.7501e-05,0
1.6405,6.0258e-05,0
1.641,6.5293e-05,0
1.6415,6.4118e-05,0
1.642,5.8244e-05,0
1.6425,5.1194e-05,0
1.643,4.918e-05,0
1.6435,5.388e-05,0
1.644,6.1601e-05,0
1.6445,6.865e-05,0
1.645,7.3686e-05,0
1.6455,7.5029e-05,0
1.646,7.1672e-05,0
1.6465,6.5293e-05,0
1.647,6.0258e-05,0
1.6475,5.5894e-05,0
1.648,5.4887e-05,0
1.6485,6.1097e-05,0
1.649,6.7979e-05,0
1.6495,6.1936e-05,0
1.65,4.5991e-05,0
1.6505,3.2059e-05,0
1.651,2.2324e-05,0
1.6515,9.9031e-06,0
1.652,1.3428e-06,0
1.6525,5.2033e-06,0
1.653,1.6617e-05,0
1.6535,3.4913e-05,0
1.654,5.539e-05,0
1.6545,6.8315e-05,0
1.655,7.1672e-05,0
1.6555,6.8818e-05,0
1.656,6.5965e-05,0
1.6565,6.1097e-05,0
1.657,5.1865e-05,0
1.6575,3.827e-05,0
1.658,2.3499e-05,0
1.6585,1.796e-05,0
1.659,3.0045e-05,0
1.6595,4.683e-05,0
1.66,5.5222e-05,0
1.6605,5.0523e-05,0
1.661,3.743e-05,0
1.6615,2.4674e-05,0
1.662,1.6953e-05,0
1.6625,1.2253e-05,0
1.663,6.5461e-06,0
1.6635,1.0071e-06,0
1.664,-3.1891e-06,0
1.6645,-1.1582e-05,0
1.665,-2.3331e-05,0
1.6655,-3.3906e-05,0
1.666,-4.6662e-05,0
1.6665,-5.8076e-05,0
1.667,-6.1433e-05,0
1.6675,-5.2033e-05,0
1.668,-2.9542e-05,0
1.6685,-4.6998e-06,0
1.669,1.1749e-05,0
1.6695,1.9303e-05,0
1.67,2.0981e-05,0
1.6705,2.2995e-05,0
1.671,2.9374e-05,0
1.6715,3.7095e-05,0
1.672,4.1291e-05,0
1.6725,4.4144e-05,0
1.673,4.4816e-05,0
1.6735,4.448e-05,0
1.674,4.8676e-05,0
1.6745,5.3544e-05,0
1.675,4.4816e-05,0
1.6755,1.796e-05,0
1.676,-1.7624e-05,0
1.6765,-4.6326e-05,0
1.677,-5.0858e-05,0
1.6775,-2.6352e-05,0
1.678,1.7456e-05,0
1.6785,5.6733e-05,0
1.679,7.7714e-05,0
1.6795,8.9799e-05,0
1.68,0.00010843,0
1.6805,0.00012639,0
1.681,0.00012706,0
1.6815,0.00010726,0
1.682,8.1407e-05,0
1.6825,5.7572e-05,0
1.683,3.1388e-05,0
1.6835,4.5319e-06,0
1.684,-1.8967e-05,0
1.6845,-3.8102e-05,0
1.685,-5.2369e-05,0
1.6855,-6.1265e-05,0
1.686,-6.6972e-05,0
1.6865,-7.3182e-05,0
1.687,-8.426e-05,0
1.6875,-9.3828e-05,0
1.688,-9.6513e-05,0
1.6885,-9.0974e-05,0
1.689,-7.8721e-05,0
1.6895,-6.2608e-05,0
1.69,-4.3137e-05,0
1.6905,-2.1653e-05,0
1.691,-1.0071e-06,0
1.6915,1.4603e-05,0
1.692,2.266e-05,0
1.6925,2.9374e-05,0
1.693,3.8437e-05,0
1.6935,5.0187e-05,0
1.694,6.7643e-05,0
1.6945,9.0303e-05,0
1.695,0.00010591,0
1.6955,0.00010188,0
1.696,8.2582e-05,0
1.6965,6.5461e-05,0
1.697,5.5558e-05,0
1.6975,4.6159e-05,0
1.698,3.8437e-05,0
1.6985,3.9277e-05,0
1.699,4.5151e-05,0
1.6995,4.5487e-05,0
1.7,4.0787e-05,0
1.7005,4.2802e-05,0
1.701,5.8915e-05,0
1.7015,7.7546e-05,0
1.702,7.9728e-05,0
1.7025,6.7308e-05,0
1.703,4.6662e-05,0
1.7035,1.947e-05,0
1.704,-3.357e-06,0
1.7045,-1.3932e-05,0
1.705,-1.4939e-05,0
1.7055,-9.2317e-06,0
1.706,1.1749e-06,0
1.7065,1.5274e-05,0
1.707,3.4409e-05,0
1.7075,5.0187e-05,0
1.708,5.069e-05,0
1.7085,4.0619e-05,0
1.709,2.6688e-05,0
1.7095,1.091e-05,0
1.71,-3.1891e-06,0
1.7105,-1.1246e-05,0
1.711,-1.4267e-05,0
1.7115,-2.031e-05,0
1.712,-3.1388e-05,0
1.7125,-4.1459e-05,0
1.713,-4.2802e-05,0
1.7135,-3.5416e-05,0
1.714,-2.5681e-05,0
1.7145,-1.9303e-05,0
1.715,-1.5778e-05,0
1.7155,-1.0575e-05,0
1.716,-1.0071e-06,0
1.7165,1.3764e-05,0
1.717,2.6688e-05,0
1.7175,3.5584e-05,0
1.718,4.3305e-05,0
1.7185,5.0355e-05,0
1.719,5.304e-05,0
1.7195,4.918e-05,0
1.72,4.2802e-05,0
1.7205,4.0452e-05,0
1.721,3.978e-05,0
1.7215,3.8941e-05,0
1.722,3.6927e-05,0
1.7225,3.743e-05,0
1.723,4.8844e-05,0
1.7235,7.3686e-05,0
1.724,9.5674e-05,0
1.7245,9.4163e-05,0
1.725,7.3014e-05,0
1.7255,4.6326e-05,0
1.726,2.2995e-05,0
1.7265,7.2175e-06,0
1.727,7.2175e-06,0
1.7275,2.2995e-05,0
1.728,3.9109e-05,0
1.7285,4.7333e-05,0
1.729,4.9348e-05,0
1.7295,4.8676e-05,0
1.73,4.1291e-05,0
1.7305,2.6184e-05,0
1.731,1.0239e-05,0
1.7315,1.0071e-06,0
1.732,1.0071e-06,0
1.7325,3.8605e-06,0
1.733,3.6927e-06,0
1.7335,-3.357e-06,0
1.734,-1.9303e-05,0
1.7345,-3.6927e-05,0
1.735,-4.1459e-05,0
1.7355,-3.7766e-05,0
1.736,-3.6759e-05,0
1.7365,-3.8941e-05,0
1.737,-3.508e-05,0
1.7375,-1.0407e-05,0
1.738,2.5345e-05,0
1.7385,4.8173e-05,0
1.739,5.3544e-05,0
1.7395,5.3208e-05,0
1.74,4.7837e-05,0
1.7405,3.0045e-05,0
1.741,4.1962e-06,0
1.7415,-1.7624e-05,0
1.742,-3.1052e-05,0
1.7425,-3.743e-05,0
1.743,-3.978e-05,0
1.7435,-3.7766e-05,0
1.744,-2.9709e-05,0
1.7445,-1.091e-05,0
1.745,1.2085e-05,0
1.7455,3.9612e-05,0
1.746,8.8121e-05,0
1.7465,0.00015677,0
1.747,0.00020797,0
1.7475,0.00021367,0
1.748,0.0001848,0
1.7485,0.00013948,0
1.749,8.9799e-05,0
1.7495,3.9445e-05,0
1.75,-5.539e-06,0
1.7505,-3.7766e-05,0
1.751,-5.9587e-05,0
1.7515,-7.9393e-05,0
1.752,-9.6178e-05,0
1.7525,-0.00010675,0
1.753,-0.00010793,0
1.7535,-0.00010037,0
1.754,-9.2149e-05,0
1.7545,-9.2317e-05,0
1.755,-9.0135e-05,0
1.7555,-7.6539e-05,0
1.756,-5.7404e-05,0
1.7565,-3.9109e-05,0
1.757,-1.8296e-05,0
1.7575,4.5319e-06,0
1.758,2.266e-05,0
1.7585,3.3066e-05,0
1.759,4.1291e-05,0
1.7595,5.0858e-05,0
1.76,5.4887e-05,0
1.7605,5.9922e-05,0
1.761,8.6778e-05,0
1.7615,0.00013747,0
1.762,0.00017708,0
1.7625,0.00017574,0
1.763,0.0001462,0
1.7635,0.00010893,0
1.764,7.4021e-05,0
1.7645,4.3641e-05,0
1.765,2.1317e-05,0
1.7655,9.0639e-06,0
1.766,3.5248e-06,0
1.7665,-1.678e-07,0
1.767,-2.8534e-06,0
1.7675,-5.3712e-06,0
1.768,-7.5532e-06,0
1.7685,-1.2924e-05,0
1.769,-2.182e-05,0
1.7695,-2.9038e-05,0
1.77,-3.2731e-05,0
1.7705,-2.7695e-05,0
1.771,-1.5778e-05,0
1.7715,-7.2175e-06,0
1.772,-5.7069e-06,0
1.7725,-8.3925e-06,0
1.773,-8.7282e-06,0
1.7735,-5.2033e-06,0
1.774,-6.714e-07,0
1.7745,3.1891e-06,0
1.775,7.2175e-06,0
1.7755,1.1078e-05,0
1.776,1.7288e-05,0
1.7765,2.9877e-05,0
1.777,4.5151e-05,0
1.7775,5.1698e-05,0
1.778,5.0019e-05,0
1.7785,5.4719e-05,0
1.779,7.1168e-05,0
1.7795,8.4428e-05,0
1.78,9.0303e-05,0
1.7805,9.1814e-05,0
1.781,8.4764e-05,0
1.7815,6.6972e-05,0
1.782,4.3977e-05,0
1.7825,2.0646e-05,0
1.783,6.5461e-06,0
1.7835,8.392e-07,0
1.784,-1.5106e-06,0
1.7845,-4.6998e-06,0
1.785,-7.8889e-06,0
1.7855,-1.0407e-05,0
1.786,-1.1582e-05,0
1.7865,-5.539e-06,0
1.787,1.8463e-06,0
1.7875,4.6998e-06,0
1.788,1.4939e-05,0
1.7885,4.0619e-05,0
1.789,6.865e-05,0
1.7895,8.7785e-05,0
1.79,9.3492e-05,0
1.7905,8.3925e-05,0
1.791,6.1601e-05,0
1.7915,4.1627e-05,0
1.792,4.0955e-05,0
1.7925,5.8076e-05,0
1.793,6.9657e-05,0
1.7935,6.6468e-05,0
1.794,5.7237e-05,0
1.7945,4.9348e-05,0
1.795,4.0116e-05,0
1.7955,2.6688e-05,0
1.796,1.4603e-05,0
1.7965,1.5946e-05,0
1.797,2.1317e-05,0
1.7975,1.5946e-05,0
1.798,2.0142e-06,0
1.7985,-1.1582e-05,0
1.799,-2.5009e-05,0
1.7995,-4.213e-05,0
1.8,-6.7308e-05,0
1.8005,-0.00010054,0
1.801,-0.00012773,0
1.8015,-0.00013243,0
1.802,-0.00012102,0
1.8025,-0.00010558,0
1.803,-8.8457e-05,0
1.8035,-6.7643e-05,0
1.804,-5.0187e-05,0
1.8045,-2.9709e-05,0
1.805,1.5946e-05,0
1.8055,7.4021e-05,0
1.806,0.00010726,0
1.8065,0.0001091,0
1.807,0.00010524,0
1.8075,0.00010323,0
1.808,9.0471e-05,0
1.8085,6.2272e-05,0
1.809,3.2563e-05,0
1.8095,1.0239e-05,0
1.81,-3.357e-06,0
1.8105,-7.5532e-06,0
1.811,3.8605e-06,0
1.8115,2.6184e-05,0
1.812,4.2802e-05,0
1.8125,4.8173e-05,0
1.813,4.9348e-05,0
1.8135,4.8844e-05,0
1.814,4.7501e-05,0
1.8145,4.5151e-05,0
1.815,4.3137e-05,0
1.8155,3.9948e-05,0
1.816,3.2059e-05,0
1.8165,1.6953e-05,0
1.817,-3.5248e-06,0
1.8175,-2.031e-05,0
1.818,-2.7192e-05,0
1.8185,-2.6688e-05,0
1.819,-2.4674e-05,0
1.8195,-1.9638e-05,0
1.82,-3.5248e-06,0
1.8205,2.0646e-05,0
1.821,4.0787e-05,0
1.8215,4.7837e-05,0
1.822,4.213e-05,0
1.8225,3.0381e-05,0
1.823,1.5274e-05,0
1.8235,2.0142e-06,0
1.824,-2.5177e-06,0
1.8245,-2.182e-06,0
1.825,8.392e-07,0
1.8255,9.9031e-06,0
1.826,2.182e-05,0
1.8265,4.4648e-05,0
1.827,7.3686e-05,0
1.8275,9.0303e-05,0
1.828,8.8457e-05,0
1.8285,8.0064e-05,0
1.829,7.1336e-05,0
1.8295,5.8915e-05,0
1.83,4.448e-05,0
1.8305,2.9374e-05,0
1.831,1.8967e-05,0
1.8315,1.7456e-05,0
1.832,2.031e-05,0
1.8325,2.0478e-05,0
1.833,1.2589e-05,0
1.8335,-2.0142e-06,0
1.834,-1.561e-05,0
1.8345,-2.4338e-05,0
1.835,-3.0381e-05,0
1.8355,-3.0381e-05,0
1.836,-2.4506e-05,0
1.8365,-1.7624e-05,0
1.837,-1.1246e-05,0
1.8375,4.5319e-06,0
1.838,4.5991e-05,0
1.8385,0.00010558,0
1.839,0.00014821,0
1.8395,0.0001556,0
1.84,0.00014452,0
1.8405,0.00012773,0
1.841,9.9199e-05,0
1.8415,6.0258e-05,0
1.842,2.7359e-05,0
1.8425,7.8889e-06,0
1.843,-3.5248e-06,0
1.8435,-1.2253e-05,0
1.844,-1.8967e-05,0
1.8445,-1.6953e-05,0
1.845,-8.392e-07,0
1.8455,1.5442e-05,0
1.846,4.8676e-06,0
1.8465,-3.3738e-05,0
1.847,-7.4021e-05,0
1.8475,-9.8695e-05,0
1.848,-9.9535e-05,0
1.8485,-8.0735e-05,0
1.849,-5.9419e-05,0
1.8495,-4.3641e-05,0
1.85,-2.9038e-05,0
1.8505,-1.8463e-05,0
1.851,-1.5946e-05,0
1.8515,-1.1582e-05,0
1.852,5.035e-07,0
1.8525,9.2317e-06,0
1.853,7.0497e-06,0
1.8535,-2.0142e-06,0
1.854,-6.8818e-06,0
1.8545,3.1891e-06,0
1.855,2.3835e-05,0
1.8555,3.827e-05,0
1.856,3.8773e-05,0
1.8565,3.1388e-05,0
1.857,2.4002e-05,0
1.8575,2.0981e-05,0
1.858,1.5946e-05,0
1.8585,8.896e-06,0
1.859,7.3854e-06,0
1.8595,1.0575e-05,0
1.86,1.3092e-05,0
1.8605,1.5442e-05,0
1.861,2.0142e-05,0
1.8615,2.9877e-05,0
1.862,3.9277e-05,0
1.8625,4.683e-05,0
1.863,5.2033e-05,0
1.8635,5.0523e-05,0
1.864,4.3977e-05,0
1.8645,3.4577e-05,0
1.865,2.6688e-05,0
1.8655,2.5849e-05,0
1.866,3.6759e-05,0
1.8665,5.4551e-05,0
1.867,6.6804e-05,0
1.8675,7.2679e-05,0
1.868,7.9057e-05,0
1.8685,8.5603e-05,0
1.869,8.7785e-05,0
1.8695,8.3757e-05,0
1.87,7.4357e-05,0
1.8705,6.3615e-05,0
1.871,5.8579e-05,0
1.8715,5.9587e-05,0
1.872,5.8244e-05,0
1.8725,5.7069e-05,0
1.873,6.1936e-05,0
1.8735,6.2608e-05,0
1.874,5.1362e-05,0
1.8745,3.4577e-05,0
1.875,1.6281e-05,0
1.8755,-5.8747e-06,0
1.876,-3.0716e-05,0
1.8765,-5.0019e-05,0
1.877,-5.7572e-05,0
1.8775,-5.4383e-05,0
1.878,-4.683e-05,0
1.8785,-4.3305e-05,0
1.879,-3.8437e-05,0
1.8795,-2.3667e-05,0
1.88,-2.0142e-06,0
1.8805,1.8631e-05,0
1.881,3.9109e-05,0
1.8815,5.9587e-05,0
1.882,6.7308e-05,0
1.8825,6.2608e-05,0
1.883,5.8412e-05,0
1.8835,6.1601e-05,0
1.884,6.4286e-05,0
1.8845,5.304e-05,0
1.885,3.3906e-05,0
1.8855,3.0213e-05,0
1.886,5.5558e-05,0
1.8865,9.0135e-05,0
1.887,0.0001039,0
1.8875,8.6107e-05,0
1.888,4.448e-05,0
1.8885,-6.2104e-06,0
1.889,-4.4984e-05,0
1.8895,-6.3783e-05,0
1.89,-6.0594e-05,0
1.8905,-4.9012e-05,0
1.891,-3.978e-05,0
1.8915,-2.8702e-05,0
1.892,-1.5106e-05,0
1.8925,-5.539e-06,0
1.893,-1.0407e-05,0
1.8935,-2.5681e-05,0
1.894,-3.1724e-05,0
1.8945,-9.5674e-06,0
1.895,5.388e-05,0
1.8955,0.00012589,0
1.896,0.0001556,0
1.8965,0.00013646,0
1.897,9.4499e-05,0
1.8975,5.153e-05,0
1.898,9.2317e-06,0
1.8985,-2.9709e-05,0
1.899,-5.9251e-05,0
1.8995,-7.7211e-05,0
1.9,-8.6778e-05,0
1.9005,-8.6778e-05,0
1.901,-8.1407e-05,0
1.9015,-7.6707e-05,0
1.902,-7.6707e-05,0
1.9025,-8.1407e-05,0
1.903,-9.0974e-05,0
1.9035,-0.00010004,0
1.904,-0.00010071,0
1.9045,-9.1142e-05,0
1.905,-7.7043e-05,0
1.9055,-6.3447e-05,0
1.906,-4.918e-05,0
1.9065,-3.2395e-05,0
1.907,-1.5946e-05,0
1.9075,-3.8605e-06,0
1.908,9.2317e-06,0
1.9085,2.8031e-05,0
1.909,4.5823e-05,0
1.9095,6.1433e-05,0
1.91,7.7714e-05,0
1.9105,9.0471e-05,0
1.911,9.987e-05,0
1.9115,0.00010927,0
1.912,0.00011514,0
1.9125,0.00011531,0
1.913,0.00011196,0
1.9135,0.00010961,0
1.914,0.00010793,0
1.9145,0.00010172,0
1.915,9.4331e-05,0
1.9155,8.9632e-05,0
1.916,8.4093e-05,0
1.9165,7.7714e-05,0
1.917,7.3014e-05,0
1.9175,7.4357e-05,0
1.918,7.4021e-05,0
1.9185,6.2776e-05,0
1.919,5.1194e-05,0
1.9195,4.1962e-05,0
1.92,2.8031e-05,0
1.9205,1.0575e-05,0
1.921,-2.182e-06,0
1.9215,-4.5319e-06,0
1.922,2.5177e-06,0
1.9225,1.796e-05,0
1.923,4.5151e-05,0
1.9235,7.3686e-05,0
1.924,8.9128e-05,0
1.9245,8.6442e-05,0
1.925,7.1336e-05,0
1.9255,5.1194e-05,0
1.926,3.4409e-05,0
1.9265,2.182e-05,0
1.927,9.0639e-06,0
1.9275,-4.8676e-06,0
1.928,-1.3428e-05,0
1.9285,-1.4939e-05,0
1.929,-1.3764e-05,0
1.9295,-1.6953e-05,0
1.93,-2.7527e-05,0
1.9305,-4.2466e-05,0
1.931,-5.6565e-05,0
1.9315,-6.1601e-05,0
1.932,-5.9922e-05,0
1.9325,-5.2201e-05,0
1.933,-3.978e-05,0
1.9335,-2.7024e-05,0
1.934,-1.7624e-05,0
1.9345,-8.3925e-06,0
1.935,2.5177e-06,0
1.9355,1.3092e-05,0
1.936,2.0646e-05,0
1.9365,2.9374e-05,0
1.937,4.0787e-05,0
1.9375,5.7237e-05,0
1.938,8.0735e-05,0
1.9385,9.987e-05,0
1.939,0.00010675,0
1.9395,9.6178e-05,0
1.94,5.7572e-05,0
1.9405,-4.0284e-06,0
1.941,-5.7572e-05,0
1.9415,-8.275e-05,0
1.942,-7.9057e-05,0
1.9425,-5.2537e-05,0
1.943,-1.6617e-05,0
1.9435,1.2924e-05,0
1.944,3.3402e-05,0
1.9445,5.4048e-05,0
1.945,7.3014e-05,0
1.9455,7.3686e-05,0
1.946,5.3544e-05,0
1.9465,2.8031e-05,0
1.947,1.4099e-05,0
1.9475,2.1988e-05,0
1.948,4.9851e-05,0
1.9485,8.5771e-05,0
1.949,0.00011179,0
1.9495,0.0001227,0
1.95,0.00012673,0
1.9505,0.00011531,0
1.951,8.9632e-05,0
1.9515,6.7308e-05,0
1.952,5.2537e-05,0
1.9525,3.5416e-05,0
1.953,9.5674e-06,0
1.9535,-1.2253e-05,0
1.954,-1.8296e-05,0
1.9545,-1.6449e-05,0
1.955,-1.7624e-05,0
1.9555,-2.2156e-05,0
1.956,-2.9038e-05,0
1.9565,-3.6591e-05,0
1.957,-4.8844e-05,0
1.9575,-7.2007e-05,0
1.958,-9.9367e-05,0
1.9585,-0.00010977,0
1.959,-9.6178e-05,0
1.9595,-7.5364e-05,0
1.96,-6.2272e-05,0
1.9605,-5.4048e-05,0
1.961,-4.213e-05,0
1.9615,-2.2324e-05,0
1.962,-4.1962e-06,0
1.9625,-3.357e-07,0
1.963,-4.1962e-06,0
1.9635,-3.6927e-06,0
1.964,4.5319e-06,0
1.9645,1.7288e-05,0
1.965,2.9206e-05,0
1.9655,3.743e-05,0
1.966,4.2466e-05,0
1.9665,4.8173e-05,0
1.967,5.9419e-05,0
1.9675,7.0832e-05,0
1.968,8.04e-05,0
1.9685,8.5771e-05,0
1.969,8.1575e-05,0
1.9695,6.8986e-05,0
1.97,5.7908e-05,0
1.9705,5.1194e-05,0
1.971,5.539e-05,0
1.9715,6.7643e-05,0
1.972,7.2847e-05,0
1.9725,7.4693e-05,0
1.973,8.4428e-05,0
1.9735,9.2485e-05,0
1.974,7.7378e-05,0
1.9745,4.5487e-05,0
1.975,1.8799e-05,0
1.9755,8.896e-06,0
1.976,1.1582e-05,0
1.9765,1.8296e-05,0
1.977,2.6688e-05,0
1.9775,3.2731e-05,0
1.978,3.0716e-05,0
1.9785,2.2828e-05,0
1.979,1.7288e-05,0
1.9795,1.6281e-05,0
1.98,1.8128e-05,0
1.9805,1.9974e-05,0
1.981,2.0981e-05,0
1.9815,1.8128e-05,0
1.982,6.3783e-06,0
1.9825,-1.1414e-05,0
1.983,-2.3163e-05,0
1.9835,-1.7624e-05,0
1.984,-5.7069e-06,0
1.9845,1.2085e-05,0
1.985,4.3977e-05,0
1.9855,6.5629e-05,0
1.986,5.1698e-05,0
1.9865,2.1317e-05,0
1.987,1.6785e-06,0
1.9875,-5.0355e-06,0
1.988,-4.8676e-06,0
1.9885,-1.8463e-06,0
1.989,4.1962e-06,0
1.9895,1.4771e-05,0
1.99,1.9806e-05,0
1.9905,1.4603e-05,0
1.991,1.8463e-06,0
1.9915,-1.4267e-05,0
1.992,-3.508e-05,0
1.9925,-5.8747e-05,0
1.993,-8.2918e-05,0
1.9935,-0.00011028,0
1.994,-0.00013008,0
1.9945,-0.00013059,0
1.995,-0.00011901,0
1.9955,-9.6345e-05,0
1.996,-5.8915e-05,0
1.9965,-1.091e-05,0
1.997,3.6423e-05,0
1.9975,7.4693e-05,0
1.998,9.7353e-05,0
1.9985,0.00010373,0
1.999,9.7856e-05,0
1.9995,8.745e-05,0
2,7.9057e-05,0
2.0005,7.2679e-05,0
2.001,6.9657e-05,0
2.0015,7.335e-05,0
2.002,8.6442e-05,0
2.0025,0.00010524,0
2.003,0.00012454,0
2.0035,0.00013277,0
2.004,0.00012169,0
2.0045,0.00011397,0
2.005,0.00013545,0
2.0055,0.00016197,0
2.006,0.00015744,0
2.0065,0.00012068,0
2.007,7.57e-05,0
2.0075,4.1291e-05,0
2.008,7.2175e-06,0
2.0085,-2.8367e-05,0
2.009,-4.4648e-05,0
2.0095,-4.2634e-05,0
2.01,-3.1388e-05,0
2.0105,-2.1653e-05,0
2.011,-1.9806e-05,0
2.0115,-3.0045e-05,0
2.012,-5.3712e-05,0
2.0125,-8.4596e-05,0
2.013,-0.00011095,0
2.0135,-0.00012589,0
2.014,-0.00012589,0
2.0145,-0.00010826,0
2.015,0,0
2.0155,0,0
2.016,0,0
2.0165,0,0
2.017,0,0
2.0175,0,0
2.018,0,0
2.0185,0,0
2.019,0,0
2.0195,0,0
2.02,0,0
2.0205,0,0
2.021,0,0
2.0215,0,0
2.022,0,0
2.0225,0,0
2.023,0,0
2.0235,0,0
2.024,0,0
2.0245,0,0
2.025,0,0
2.0255,0,0
2.026,0,0
2.0265,0,0
2.027,0,0
2.0275,0,0
2.028,3.2059e-05,0
2.0285,4.0116e-05,0
2.029,5.0858e-05,0
2.0295,7.0161e-05,0
2.03,0.00010977,0
2.0305,0.00016063,0
2.031,0.00019185,0
2.0315,0.00019773,0
2.032,0.00019101,0
2.0325,0.00016953,0
2.033,0.00012992,0
2.0335,7.8386e-05,0
2.034,2.9877e-05,0
2.0345,1.6785e-06,0
2.035,1.5106e-06,0
2.0355,2.4506e-05,0
2.036,7.6875e-05,0
2.0365,0.00014351,0
2.037,0.00016735,0
2.0375,0.00013042,0
2.038,7.335e-05,0
2.0385,2.4674e-05,0
2.039,-1.796e-05,0
2.0395,-5.6565e-05,0
2.04,-9.3156e-05,0
2.0405,-0.00011917,0
2.041,-0.0001274,0
2.0415,-0.00012068,0
2.042,-0.00011397,0
2.0425,-0.00011296,0
2.043,-0.00011716,0
2.0435,-0.00012152,0
2.044,-0.00012555,0
2.0445,-0.00012807,0
2.045,-0.00012136,0
2.0455,-0.00010826,0
2.046,-9.2989e-05,0
2.0465,-7.5364e-05,0
2.047,-5.7572e-05,0
2.0475,-4.213e-05,0
2.048,-2.652e-05,0
2.0485,-8.896e-06,0
2.049,1.6617e-05,0
2.0495,4.5319e-05,0
2.05,6.949e-05,0
2.0505,7.9728e-05,0
2.051,7.2343e-05,0
2.0515,5.7908e-05,0
2.052,4.6494e-05,0
2.0525,4.448e-05,0
2.053,5.6901e-05,0
2.0535,7.5029e-05,0
2.054,9.5171e-05,0
2.0545,0.00011044,0
2.055,0.00011095,0
2.0555,9.6513e-05,0
2.056,7.4861e-05,0
2.0565,6.1433e-05,0
2.057,6.9657e-05,0
2.0575,9.5171e-05,0
2.058,0.00012404,0
2.0585,0.0001462,0
2.059,0.00015543,0
2.0595,0.00015744,0
2.06,0.00015274,0
2.0605,0.00012807,0
2.061,8.6778e-05,0
2.0615,4.0452e-05,0
2.062,-6.714e-06,0
2.0625,-5.2369e-05,0
2.063,-8.3757e-05,0
2.0635,-9.5674e-05,0
2.064,-9.4163e-05,0
2.0645,-9.0806e-05,0
2.065,-8.745e-05,0
2.0655,-8.0064e-05,0
2.066,-6.6636e-05,0
2.0665,-5.2537e-05,0
2.067,-3.6759e-05,0
2.0675,-1.1749e-05,0
2.068,1.7624e-05,0
2.0685,3.5248e-05,0
2.069,3.0716e-05,0
2.0695,1.8463e-05,0
2.07,1.0407e-05,0
2.0705,9.0639e-06,0
2.071,1.4099e-05,0
2.0715,2.2995e-05,0
2.072,3.3234e-05,0
2.0725,4.683e-05,0
2.073,6.5461e-05,0
2.0735,8.5771e-05,0
2.074,0.00010289,0
2.0745,0.00010843,0
2.075,0.00011179,0
2.0755,0.00013881,0
2.076,0.00017809,0
2.0765,0.0001744,0
2.077,0.00011632,0
2.0775,4.3977e-05,0
2.078,-4.3641e-06,0
2.0785,-2.3331e-05,0
2.079,-2.9038e-05,0
2.0795,-2.7024e-05,0
2.08,-7.2175e-06,0
2.0805,2.4674e-05,0
2.081,2.7359e-05,0
2.0815,-4.5319e-06,0
2.082,-4.5487e-05,0
2.0825,-7.8386e-05,0
2.083,-0.00010793,0
2.0835,-0.00013176,0
2.084,-0.00014116,0
2.0845,-0.00012908,0
2.085,-9.4163e-05,0
2.0855,-5.1865e-05,0
2.086,-1.7288e-05,0
2.0865,-3.1891e-06,0
2.087,-1.1414e-05,0
2.0875,-3.0381e-05,0
2.088,-4.7669e-05,0
2.0885,-5.9922e-05,0
2.089,-6.4958e-05,0
2.0895,-6.0594e-05,0
2.09,-4.7837e-05,0
2.0905,-2.7359e-05,0
2.091,-4.0284e-06,0
2.0915,1.5946e-05,0
2.092,2.8031e-05,0
2.0925,3.1724e-05,0
2.093,3.2395e-05,0
2.0935,4.2802e-05,0
2.094,6.865e-05,0
2.0945,9.6849e-05,0
2.095,0.0001086,0
2.0955,0.0001039,0
2.096,9.4163e-05,0
2.0965,8.04e-05,0
2.097,7.4189e-05,0
2.0975,7.8386e-05,0
2.098,8.04e-05,0
2.0985,7.2847e-05,0
2.099,6.0594e-05,0
2.0995,5.0858e-05,0
2.1,4.3473e-05,0
2.1005,3.1388e-05,0
2.101,2.0813e-05,0
2.1015,1.9638e-05,0
2.102,2.5009e-05,0
2.1025,3.2059e-05,0
2.103,3.3906e-05,0
2.1035,3.0045e-05,0
2.104,2.6688e-05,0
2.1045,1.9974e-05,0
2.105,7.8889e-06,0
2.1055,-2.8534e-06,0
2.106,-1.678e-07,0
2.1065,1.561e-05,0
2.107,3.978e-05,0
2.1075,6.244e-05,0
2.108,7.7378e-05,0
2.1085,8.2414e-05,0
2.109,8.0232e-05,0
2.1095,7.956e-05,0
2.11,8.1743e-05,0
2.1105,7.9728e-05,0
2.111,7.4021e-05,0
2.1115,7.2679e-05,0
2.112,7.57e-05,0
2.1125,7.4861e-05,0
2.113,7.0329e-05,0
2.1135,6.1601e-05,0
2.114,5.0355e-05,0
2.1145,4.1291e-05,0
2.115,3.1556e-05,0
2.1155,1.3764e-05,0
2.116,-1.6281e-05,0
2.1165,-4.7837e-05,0
2.117,-6.5293e-05,0
2.1175,-4.8508e-05,0
2.118,3.1891e-06,0
2.1185,5.2872e-05,0
2.119,7.4357e-05,0
2.1195,8.1575e-05,0
2.12,8.0735e-05,0
2.1205,5.9419e-05,0
2.121,2.266e-05,0
2.1215,-8.2246e-06,0
2.122,-2.3835e-05,0
2.1225,-2.5345e-05,0
2.123,-1.8631e-05,0
2.1235,-1.1414e-05,0
2.124,-1.091e-05,0
2.1245,-1.5946e-05,0
2.125,-2.3835e-05,0
2.1255,-3.5248e-05,0
2.126,-4.5487e-05,0
2.1265,-5.0858e-05,0
2.127,-5.3544e-05,0
2.1275,-5.3544e-05,0
2.128,-4.9012e-05,0
2.1285,-3.8773e-05,0
2.129,-2.3163e-05,0
2.1295,-5.0355e-06,0
2.13,2.8702e-05,0
2.1305,8.4093e-05,0
2.131,0.00013462,0
2.1315,0.00015123,0
2.132,0.00014183,0
2.1325,0.00011867,0
2.133,8.7953e-05,0
2.1335,5.9587e-05,0
2.134,3.9109e-05,0
2.1345,2.2324e-05,0
2.135,5.2033e-06,0
2.1355,-1.1582e-05,0
2.136,-2.3835e-05,0
2.1365,-3.2395e-05,0
2.137,-4.5823e-05,0
2.1375,-6.4622e-05,0
2.138,-8.1239e-05,0
2.1385,-8.0064e-05,0
2.139,-8.0735e-05,0
2.1395,-0.00010574,0
2.14,-0.00012488,0
2.1405,-0.00011296,0
2.141,-9.366e-05,0
2.1415,-7.2847e-05,0
2.142,-3.7766e-05,0
2.1425,2.182e-06,0
2.143,2.3667e-05,0
2.1435,2.6352e-05,0
2.144,1.9135e-05,0
2.1445,1.5442e-05,0
2.145,2.0142e-05,0
2.1455,2.4674e-05,0
2.146,2.652e-05,0
2.1465,2.7024e-05,0
2.147,2.0646e-05,0
2.1475,9.3996e-06,0
2.148,7.8889e-06,0
2.1485,2.1149e-05,0
2.149,4.6494e-05,0
2.1495,6.7811e-05,0
2.15,7.6371e-05,0
2.1505,7.9393e-05,0
2.151,8.3421e-05,0
2.1515,9.5506e-05,0
2.152,0.00011414,0
2.1525,0.00011447,0
2.153,8.3757e-05,0
2.1535,3.2731e-05,0
2.154,-2.5849e-05,0
2.1545,-7.0329e-05,0
2.155,-9.2485e-05,0
2.1555,-9.3492e-05,0
2.156,-6.8818e-05,0
2.1565,-1.6281e-05,0
2.157,4.8005e-05,0
2.1575,0.00011229,0
2.158,0.00018312,0
2.1585,0.00025681,0
2.159,0.00029491,0
2.1595,0.00026806,0
2.16,0.00020276,0
2.1605,0.00014553,0
2.161,0.00010726,0
2.1615,6.7979e-05,0
2.162,1.7792e-05,0
2.1625,-2.0478e-05,0
2.163,-3.7095e-05,0
2.1635,-4.6494e-05,0
2.164,-5.8915e-05,0
2.1645,-7.4021e-05,0
2.165,-9.0974e-05,0
2.1655,-0.00011011,0
2.166,-0.00013696,0
2.1665,-0.00017053,0
2.167,-0.00018782,0
2.1675,-0.00017842,0
2.168,-0.00015106,0
2.1685,-0.00011028,0
2.169,-6.63e-05,0
2.1695,-3.122e-05,0
2.17,-7.7211e-06,0
2.1705,4.5319e-06,0
2.171,1.4099e-05,0
2.1715,2.5345e-05,0
2.172,3.5416e-05,0
2.1725,3.7262e-05,0
2.173,3.978e-05,0
2.1735,5.4887e-05,0
2.174,7.805e-05,0
2.1745,0.00010256,0
2.175,0.00012035,0
2.1755,0.000118,0
2.176,9.8527e-05,0
2.1765,7.6539e-05,0
2.177,5.6565e-05,0
2.1775,3.0549e-05,0
2.178,2.182e-06,0
2.1785,-7.2175e-06,0
2.179,3.357e-06,0
2.1795,2.4002e-05,0
2.18,5.1194e-05,0
2.1805,7.9057e-05,0
2.181,0.00011061,0
2.1815,0.00013629,0
2.182,0.00013948,0
2.1825,0.00012992,0
2.183,0.00012136,0
2.1835,0.00010121,0
2.184,6.8147e-05,0
2.1845,4.0452e-05,0
2.185,3.592e-05,0
2.1855,4.6159e-05,0
2.186,5.6565e-05,0
2.1865,5.8244e-05,0
2.187,4.5151e-05,0
2.1875,1.947e-05,0
2.188,-6.8818e-06,0
2.1885,-3.0381e-05,0
2.189,-5.3376e-05,0
2.1895,-6.9154e-05,0
2.19,-7.5868e-05,0
2.1905,-7.57e-05,0
2.191,-6.5965e-05,0
2.1915,-4.9348e-05,0
2.192,-3.2898e-05,0
2.1925,-2.1317e-05,0
2.193,-1.5106e-06,0
2.1935,3.0045e-05,0
2.194,6.3615e-05,0
2.1945,8.1071e-05,0
2.195,7.3014e-05,0
2.1955,5.3544e-05,0
2.196,4.0116e-05,0
2.1965,4.2802e-05,0
2.197,7.1672e-05,0
2.1975,0.00012941,0
2.198,0.00019319,0
2.1985,0.00020998,0
2.199,0.00017826,0
2.1995,0.00014049,0
2.2,0.00011464,0
2.2005,8.8457e-05,0
2.201,5.3544e-05,0
2.2015,1.326e-05,0
2.202,-2.4674e-05,0
2.2025,-5.3544e-05,0
2.203,-7.57e-05,0
2.2035,-9.9702e-05,0
2.204,-0.00013848,0
2.2045,-0.00018346,0
2.205,-0.00018967,0
2.2055,-0.00013445,0
2.206,-6.8315e-05,0
2.2065,-5.3544e-05,0
2.207,-9.1478e-05,0
2.2075,-0.00013663,0
2.208,-0.00016768,0
2.2085,-0.00018648,0
2.209,-0.00017322,0
2.2095,-0.00012807,0
2.21,-7.6036e-05,0
2.2105,-2.3331e-05,0
2.211,2.2995e-05,0
2.2115,5.1865e-05,0
2.212,6.2944e-05,0
2.2125,5.9754e-05,0
2.213,4.7501e-05,0
2.2135,3.6088e-05,0
2.214,3.3402e-05,0
2.2145,4.4648e-05,0
2.215,6.8818e-05,0
2.2155,9.6513e-05,0
2.216,0.00010793,0
2.2165,0.00010423,0
2.217,0.00010021,0
2.2175,0.00010037,0
2.218,0.00010121,0
2.2185,9.7856e-05,0
2.219,9.6178e-05,0
2.2195,0.00010977,0
2.22,0.00013277,0
2.2205,0.0001326,0
2.221,0.00010625,0
2.2215,7.8889e-05,0
2.222,4.7501e-05,0
2.2225,4.1962e-06,0
2.223,0,0
2.2235,0,0
2.224,0,0
2.2245,0,0
2.225,0,0
2.2255,0,0
2.226,0,0
2.2265,0,0
2.227,0,0
2.2275,0,0
2.228,0,0
2.2285,0,0
2.229,0,0
2.2295,0,0
2.23,0,0
2.2305,0,0
2.231,0,0
2.2315,0,0
2.232,0,0
2.2325,0,0
2.233,0,0
2.2335,0,0
2.234,0,0
2.2345,0,0
2.235,0,0
2.2355,0,0
2.236,-4.0452e-05,0
2.2365,-2.6688e-05,0
2.237,1.326e-05,0
2.2375,4.0452e-05,0
2.238,3.2731e-05,0
2.2385,7.7211e-06,0
2.239,-1.1246e-05,0
2.2395,-1.4939e-05,0
2.24,5.8747e-06,0
2.2405,3.6423e-05,0
2.241,4.0955e-05,0
2.2415,1.9303e-05,0
2.242,3.357e-07,0
2.2425,3.8605e-06,0
2.243,2.3835e-05,0
2.2435,3.6423e-05,0
2.244,3.4409e-05,0
2.2445,2.7695e-05,0
2.245,2.3331e-05,0
2.2455,2.2995e-05,0
2.246,2.3331e-05,0
2.2465,1.8128e-05,0
2.247,8.2246e-06,0
2.2475,-9.3996e-06,0
2.248,-2.7695e-05,0
2.2485,-2.8031e-05,0
2.249,2.0646e-05,0
2.2495,0.00011934,0
2.25,0.00019756,0
2.2505,0.00020729,0
2.251,0.0001603,0
2.2515,0.00010105,0
2.252,5.7572e-05,0
2.2525,3.2059e-05,0
2.253,1.8631e-05,0
2.2535,9.9031e-06,0
2.254,1.678e-07,0
2.2545,-1.3596e-05,0
2.255,-2.9206e-05,0
2.2555,-3.8437e-05,0
2.256,-3.0716e-05,0
2.2565,-1.9806e-05,0
2.257,-3.2563e-05,0
2.2575,-6.1601e-05,0
2.258,-6.5629e-05,0
2.2585,-3.3066e-05,0
2.259,8.392e-07,0
2.2595,1.5274e-05,0
2.26,1.561e-05,0
2.2605,-4.5319e-06,0
2.261,-4.2802e-05,0
2.2615,-4.8508e-05,0
2.262,-2.6017e-05,0
2.2625,-2.3331e-05,0
2.263,-3.3738e-05,0
2.2635,-3.2059e-05,0
2.264,-2.6017e-05,0
2.2645,-1.7624e-05,0
2.265,1.0071e-05,0
2.2655,5.0187e-05,0
2.266,6.1265e-05,0
2.2665,2.5849e-05,0
2.267,-2.8367e-05,0
2.2675,-6.6972e-05,0
2.268,-7.5364e-05,0
2.2685,-5.5894e-05,0
2.269,-1.5442e-05,0
2.2695,1.947e-05,0
2.27,3.1052e-05,0
2.2705,4.1123e-05,0
2.271,5.8244e-05,0
2.2715,7.5029e-05,0
2.272,8.6442e-05,0
2.2725,8.3085e-05,0
2.273,6.3447e-05,0
2.2735,3.6927e-05,0
2.274,9.5674e-06,0
2.2745,-1.5946e-05,0
2.275,-4.3305e-05,0
2.2755,-6.4622e-05,0
2.276,-7.3518e-05,0
2.2765,-7.2007e-05,0
2.277,-6.8315e-05,0
2.2775,-6.009e-05,0
2.278,-4.6494e-05,0
2.2785,-3.508e-05,0
2.279,-2.6352e-05,0
2.2795,-1.4939e-05,0
2.28,6.5461e-06,0
2.2805,3.4409e-05,0
2.281,5.8915e-05,0
2.2815,7.4189e-05,0
2.282,8.1575e-05,0
2.2825,8.1071e-05,0
2.283,8.0903e-05,0
2.2835,8.3085e-05,0
2.284,8.275e-05,0
2.2845,8.0232e-05,0
2.285,7.6875e-05,0
2.2855,7.3686e-05,0
2.286,6.865e-05,0
2.2865,6.2776e-05,0
2.287,5.7908e-05,0
2.2875,5.304e-05,0
2.288,4.6662e-05,0
2.2885,4.0787e-05,0
2.289,3.978e-05,0
2.2895,5.2872e-05,0
2.29,7.6036e-05,0
2.2905,9.4499e-05,0
2.291,9.9199e-05,0
2.2915,0.00010121,0
2.292,0.00010188,0
2.2925,9.1142e-05,0
2.293,7.4861e-05,0
2.2935,6.9657e-05,0
2.294,7.7211e-05,0
2.2945,0.00010994,0
2.295,0.00016902,0
2.2955,0.00020394,0
2.296,0.0001791,0
2.2965,0.00010726,0
2.297,1.4603e-05,0
2.2975,-8.0064e-05,0
2.298,-0.0001509,0
2.2985,-0.00017842,0
2.299,-0.00016533,0
2.2995,-0.00013143,0
2.3,-9.3492e-05,0
2.3005,-4.5487e-05,0
2.301,1.1749e-05,0
2.3015,5.3208e-05,0
2.302,8.4428e-05,0
2.3025,0.00011061,0
2.303,0.00011061,0
2.3035,8.1071e-05,0
2.304,3.5248e-05,0
2.3045,-6.714e-06,0
2.305,-3.5752e-05,0
2.3055,-4.7501e-05,0
2.306,-4.213e-05,0
2.3065,-2.8367e-05,0
2.307,-2.0981e-05,0
2.3075,-2.1485e-05,0
2.308,-2.8031e-05,0
2.3085,-4.0619e-05,0
2.309,-3.1724e-05,0
2.3095,1.7288e-05,0
2.31,5.2201e-05,0
2.3105,3.508e-05,0
2.311,3.0213e-06,0
2.3115,-2.1653e-05,0
2.312,-4.9851e-05,0
2.3125,-7.805e-05,0
2.313,-9.6345e-05,0
2.3135,-0.00011179,0
2.314,-0.00012773,0
2.3145,-0.00013411,0
2.315,-0.00012136,0
2.3155,-8.4764e-05,0
2.316,-3.7598e-05,0
2.3165,-5.2033e-06,0
2.317,7.5532e-06,0
2.3175,1.8296e-05,0
2.318,3.6088e-05,0
2.3185,4.0116e-05,0
2.319,2.5681e-05,0
2.3195,1.9303e-05,0
2.32,3.122e-05,0
2.3205,5.8244e-05,0
2.321,0.00010726,0
2.3215,0.00015761,0
2.322,0.00017087,0
2.3225,0.00014653,0
2.323,0.00010642,0
2.3235,6.7308e-05,0
2.324,3.4073e-05,0
2.3245,7.0497e-06,0
2.325,-7.7211e-06,0
2.3255,-8.0568e-06,0
2.326,3.8605e-06,0
2.3265,3.0716e-05,0
2.327,5.9587e-05,0
2.3275,7.5029e-05,0
2.328,7.2175e-05,0
2.3285,6.8147e-05,0
2.329,8.3421e-05,0
2.3295,0.00012001,0
2.33,0.0001556,0
2.3305,0.00016701,0
2.331,0.00015341,0
2.3315,0.00012689,0
2.332,9.5842e-05,0
2.3325,6.4118e-05,0
2.333,3.1052e-05,0
2.3335,-3.6927e-06,0
2.334,-4.0955e-05,0
2.3345,-7.5364e-05,0
2.335,-0.00010591,0
2.3355,-0.0001331,0
2.336,-0.00013848,0
2.3365,-8.1239e-05,0
2.337,7.0497e-06,0
2.3375,4.8508e-05,0
2.338,4.1795e-05,0
2.3385,2.9206e-05,0
2.339,1.1917e-05,0
2.3395,-1.9638e-05,0
2.34,-4.4816e-05,0
2.3405,-4.0619e-05,0
2.341,1.8463e-06,0
2.3415,7.6371e-05,0
2.342,0.00014519,0
2.3425,0.00016231,0
2.343,0.00013008,0
2.3435,7.9057e-05,0
2.344,1.9638e-05,0
2.3445,-5.2033e-05,0
2.345,-0.00011447,0
2.3455,-0.00014284,0
2.346,-0.00012404,0
2.3465,-7.0161e-05,0
2.347,-1.9974e-05,0
2.3475,1.3932e-05,0
2.348,4.0787e-05,0
2.3485,6.1265e-05,0
2.349,6.9657e-05,0
2.3495,5.153e-05,0
2.35,1.7456e-05,0
2.3505,3.357e-06,0
2.351,2.0813e-05,0
2.3515,4.9348e-05,0
2.352,6.0929e-05,0
2.3525,5.3544e-05,0
2.353,3.4073e-05,0
2.3535,6.8818e-06,0
2.354,-1.9638e-05,0
2.3545,-3.9445e-05,0
2.355,-4.9515e-05,0
2.3555,-4.9851e-05,0
2.356,-4.918e-05,0
2.3565,-5.2369e-05,0
2.357,-5.4215e-05,0
2.3575,-5.1194e-05,0
2.358,-3.508e-05,0
2.3585,8.5603e-06,0
2.359,5.8915e-05,0
2.3595,8.2582e-05,0
2.36,8.275e-05,0
2.3605,8.0903e-05,0
2.361,7.5364e-05,0
2.3615,6.5126e-05,0
2.362,6.9154e-05,0
2.3625,9.2485e-05,0
2.363,0.00010239,0
2.3635,7.7714e-05,0
2.364,4.5655e-05,0
2.3645,3.508e-05,0
2.365,4.5487e-05,0
2.3655,6.0258e-05,0
2.366,6.5461e-05,0
2.3665,5.539e-05,0
2.367,3.0381e-05,0
2.3675,-6.714e-07,0
2.368,-1.9638e-05,0
2.3685,-1.9303e-05,0
2.369,-9.2317e-06,0
2.3695,-1.6785e-06,0
2.37,-2.8534e-06,0
2.3705,-1.8631e-05,0
2.371,-4.0619e-05,0
2.3715,-5.1362e-05,0
2.372,-4.683e-05,0
2.3725,-3.3906e-05,0
2.373,-2.3835e-05,0
2.3735,-1.1917e-05,0
2.374,1.4771e-05,0
2.3745,5.5558e-05,0
2.375,9.2317e-05,0
2.3755,0.00010524,0
2.376,9.1142e-05,0
2.3765,6.5965e-05,0
2.377,5.7572e-05,0
2.3775,7.1672e-05,0
2.378,8.9632e-05,0
2.3785,8.5435e-05,0
2.379,5.4887e-05,0
2.3795,1.9303e-05,0
2.38,3.357e-07,0
2.3805,9.9031e-06,0
2.381,4.4816e-05,0
2.3815,0.00013378,0
2.382,0.00025899,0
2.3825,0.00031002,0
2.383,0.00025698,0
2.3835,0.0001603,0
2.384,5.069e-05,0
2.3845,-7.0832e-05,0
2.385,-0.00017792,0
2.3855,-0.00022777,0
2.386,-0.00021602,0
2.3865,-0.00019286,0
2.387,-0.00018698,0
2.3875,-0.00018413,0
2.388,-0.00016936,0
2.3885,-0.00014687,0
2.389,-0.00012068,0
2.3895,-9.2317e-05,0
2.39,-7.5029e-05,0
2.3905,-6.2776e-05,0
2.391,-4.8005e-05,0
2.3915,-3.3738e-05,0
2.392,-1.5274e-05,0
2.3925,1.4939e-05,0
2.393,5.8244e-05,0
2.3935,9.8192e-05,0
2.394,0.00011783,0
2.3945,0.00012773,0
2.395,0.0001378,0
2.3955,0.0001425,0
2.396,0.00014418,0
2.3965,0.00014049,0
2.397,0.00012287,0
2.3975,9.6849e-05,0
2.398,7.1672e-05,0
2.3985,4.7333e-05,0
2.399,1.8799e-05,0
2.3995,-9.2317e-06,0
2.4,-2.6017e-05,0
2.4005,-3.3234e-05,0
2.401,-3.122e-05,0
2.4015,-2.7695e-05,0
2.402,-3.5416e-05,0
2.4025,-5.1026e-05,0
2.403,-6.8818e-05,0
2.4035,-8.3589e-05,0
2.404,-8.4764e-05,0
2.4045,-6.4958e-05,0
2.405,-2.6017e-05,0
2.4055,3.5416e-05,0
2.406,0.00010457,0
2.4065,0.00015023,0
2.407,0.00016617,0
2.4075,0.00016701,0
2.408,0.00015425,0
2.4085,0.00012136,0
2.409,5.9419e-05,0
2.4095,5.8747e-06,0
2.41,-3.5248e-06,0
2.4105,2.4842e-05,0
2.411,7.0832e-05,0
2.4115,0.00011044,0
2.412,0.00012068,0
2.4125,9.0806e-05,0
2.413,4.3473e-05,0
2.4135,1.0575e-05,0
2.414,-3.0213e-06,0
2.4145,-1.4435e-05,0
2.415,-2.9542e-05,0
2.4155,-4.1123e-05,0
2.416,-4.7837e-05,0
2.4165,-5.1865e-05,0
2.417,-4.8508e-05,0
2.4175,-3.6759e-05,0
2.418,-2.6184e-05,0
2.4185,-1.8463e-05,0
2.419,-3.357e-07,0
2.4195,3.2563e-05,0
2.42,5.7572e-05,0
2.4205,6.1769e-05,0
2.421,5.7237e-05,0
2.4215,5.8412e-05,0
2.422,5.8915e-05,0
2.4225,4.5487e-05,0
2.423,2.2492e-05,0
2.4235,1.8463e-06,0
2.424,-1.4435e-05,0
2.4245,-2.182e-05,0
2.425,-1.2589e-05,0
2.4255,5.2033e-06,0
2.426,2.7024e-05,0
2.4265,6.0761e-05,0
2.427,9.752e-05,0
2.4275,0.0001279,0
2.428,0.00013999,0
2.4285,0.00012706,0
2.429,9.3156e-05,0
2.4295,4.4144e-05,0
2.43,2.182e-06,0
2.4305,-1.5946e-05,0
2.431,-1.5778e-05,0
2.4315,-1.2253e-05,0
2.432,-8.896e-06,0
2.4325,-6.3783e-06,0
2.433,-1.796e-05,0
2.4335,-4.1627e-05,0
2.434,-6.4958e-05,0
2.4345,-7.2343e-05,0
2.435,-2.7024e-05,0
2.4355,6.4958e-05,0
2.436,0.00012236,0
2.4365,0.00010961,0
2.437,7.335e-05,0
2.4375,4.4144e-05,0
2.438,8.2246e-06,0
2.4385,-3.4409e-05,0
2.439,-5.4887e-05,0
2.4395,-3.8773e-05,0
2.44,-1.5106e-06,0
2.4405,3.7766e-05,0
2.441,5.8579e-05,0
2.4415,5.9587e-05,0
2.442,5.3376e-05,0
2.4425,3.2563e-05,0
2.443,-5.2033e-06,0
2.4435,-4.3809e-05,0
2.444,-6.8818e-05,0
2.4445,-7.3686e-05,0
2.445,-5.1194e-05,0
2.4455,-7.0497e-06,0
2.446,4.683e-05,0
2.4465,0.00010373,0
2.447,0.00016432,0
2.4475,0.00021233,0
2.448,0.00021199,0
2.4485,0.00015895,0
2.449,8.2414e-05,0
2.4495,2.1149e-05,0
2.45,-4.8676e-06,0
2.4505,-5.2033e-06,0
2.451,1.8463e-06,0
2.4515,2.0142e-06,0
2.452,-1.6785e-05,0
2.4525,-5.3544e-05,0
2.453,-0.00010793,0
2.4535,-0.00016567,0
2.454,-0.000189,0
2.4545,-0.00017507,0
2.455,-0.00016013,0
2.4555,-0.00015845,0
2.456,-0.00014536,0
2.4565,-0.0001227,0
2.457,-0.00011363,0
2.4575,-0.00011766,0
2.458,-0.00011229,0
2.4585,-7.3014e-05,0
2.459,-2.4674e-05,0
2.4595,9.5674e-06,0
2.46,4.9515e-05,0
2.4605,0.00010222,0
2.461,0.00014284,0
2.4615,0.00015996,0
2.462,0.00016835,0
2.4625,0.00016768,0
2.463,0.00015425,0
2.4635,0.00014166,0
2.464,0.00013126,0
2.4645,0.00012438,0
2.465,0.00012572,0
2.4655,0.00011783,0
2.466,7.9728e-05,0
2.4665,2.8031e-05,0
2.467,-1.7624e-05,0
2.4675,-5.304e-05,0
2.468,-6.9322e-05,0
2.4685,-6.1433e-05,0
2.469,-4.7501e-05,0
2.4695,-3.8437e-05,0
2.47,-3.2395e-05,0
2.4705,-2.5681e-05,0
2.471,-1.1246e-05,0
2.4715,9.5674e-06,0
2.472,3.2059e-05,0
2.4725,5.0858e-05,0
2.473,5.0858e-05,0
2.4735,2.7359e-05,0
2.474,-8.5603e-06,0
2.4745,-3.5248e-05,0
2.475,-4.0116e-05,0
2.4755,-2.3667e-05,0
2.476,6.0426e-06,0
2.4765,4.1795e-05,0
2.477,7.5532e-05,0
2.4775,9.6513e-05,0
2.478,0.00011128,0
2.4785,0.0001368,0
2.479,0.00017205,0
2.4795,0.00019689,0
2.48,0.00020964,0
2.4805,0.00022878,0
2.481,0.00022542,0
2.4815,0.0001796,0
2.482,0.0001274,0
2.4825,9.0135e-05,0
2.483,5.2201e-05,0
2.4835,6.2104e-06,0
2.484,-3.0716e-05,0
2.4845,-4.9515e-05,0
2.485,-6.3951e-05,0
2.4855,-8.3589e-05,0
2.486,-0.00010306,0
2.4865,-0.000118,0
2.487,-0.00013411,0
2.4875,-0.00016432,0
2.488,-0.0002078,0
2.4885,-0.00024523,0
2.489,-0.00025127,0
2.4895,-0.00021585,0
2.49,-0.00015912,0
2.4905,-0.00011078,0
2.491,-8.0232e-05,0
2.4915,-6.2272e-05,0
2.492,-4.4144e-05,0
2.4925,-1.2757e-05,0
2.493,2.4674e-05,0
2.4935,5.7237e-05,0
2.494,8.2414e-05,0
2.4945,0.00010289,0
2.495,0.00011666,0
2.4955,0.00013529,0
2.496,0.00017842,0
2.4965,0.00022374,0
2.497,0.00024422,0
2.4975,0.00023079,0
2.498,0.00018816,0
2.4985,0.0001368,0
2.499,0.0001086,0
2.4995,0.00010491,0
2.5,0.00010591,0
2.5005,0.00011128,0
2.501,0.00011347,0
2.5015,9.5171e-05,0
2.502,7.0832e-05,0
2.5025,7.2343e-05,0
2.503,0.00011061,0
2.5035,0.00014687,0
2.504,0.00014334,0
2.5045,0.00010961,0
2.505,6.7475e-05,0
2.5055,4.1123e-05,0
2.506,3.0045e-05,0
2.5065,2.182e-06,0
2.507,-5.4719e-05,0
2.5075,-0.00010809,0
2.508,-0.00012924,0
2.5085,-0.00011884,0
2.509,0,0
2.5095,0,0
2.51,0,0
2.5105,0,0
2.511,0,0
2.5115,0,0
2.512,0,0
2.5125,0,0
2.513,0,0
2.5135,0,0
2.514,0,0
2.5145,0,0
2.515,0,0
2.5155,0,0
2.516,0,0
2.5165,0,0
2.517,0,0
2.5175,0,0
2.518,0,0
2.5185,0,0
2.519,0,0
2.5195,0,0
2.52,0,0
2.5205,0,0
2.521,0,0
2.5215,0,0
2.522,6.949e-05,0
2.5225,8.7282e-05,0
2.523,7.7714e-05,0
2.5235,2.5177e-05,0
2.524,-5.1194e-05,0
2.5245,-0.00012102,0
2.525,-0.00017826,0
2.5255,-0.00023935,0
2.526,-0.00029021,0
2.5265,-0.00029877,0
2.527,-0.00026722,0
2.5275,-0.00022106,0
2.528,-0.00018144,0
2.5285,-0.00015123,0
2.529,-0.00012505,0
2.5295,-9.4163e-05,0
2.53,-5.7069e-05,0
2.5305,-2.182e-05,0
2.531,9.9031e-06,0
2.5315,4.9515e-05,0
2.532,8.8121e-05,0
2.5325,9.9535e-05,0
2.533,9.0806e-05,0
2.5335,8.4428e-05,0
2.534,9.2821e-05,0
2.5345,0.00010491,0
2.535,0.00011162,0
2.5355,0.0001227,0
2.536,0.00013814,0
2.5365,0.00015224,0
2.537,0.0001697,0
2.5375,0.00019387,0
2.538,0.00021787,0
2.5385,0.00022844,0
2.539,0.00021468,0
2.5395,0.00016768,0
2.54,9.2989e-05,0
2.5405,2.6017e-05,0
2.541,-6.5461e-06,0
2.5415,-4.6998e-06,0
2.542,2.2492e-05,0
2.5425,6.8482e-05,0
2.543,0.00012706,0
2.5435,0.00016164,0
2.544,0.00015862,0
2.5445,0.00013344,0
2.545,0.00010289,0
2.5455,7.3686e-05,0
2.546,4.4648e-05,0
2.5465,1.6449e-05,0
2.547,-1.8463e-05,0
2.5475,-5.4551e-05,0
2.548,-7.0161e-05,0
2.5485,-7.3686e-05,0
2.549,-6.9993e-05,0
2.5495,-4.7166e-05,0
2.55,-2.9709e-05,0
2.5505,-4.7837e-05,0
2.551,-8.275e-05,0
2.5515,-9.8863e-05,0
2.552,-8.5435e-05,0
2.5525,-5.2537e-05,0
2.553,-2.4674e-05,0
2.5535,-2.3499e-06,0
2.554,2.4002e-05,0
2.5545,3.6088e-05,0
2.555,1.8967e-05,0
2.5555,-1.6953e-05,0
2.556,-5.0355e-05,0
2.5565,-6.8818e-05,0
2.557,-7.4525e-05,0
2.5575,-6.7475e-05,0
2.558,-4.4144e-05,0
2.5585,-9.9031e-06,0
2.559,3.5248e-05,0
2.5595,8.5771e-05,0
2.56,0.0001133,0
2.5605,0.00011397,0
2.561,9.8192e-05,0
2.5615,6.6636e-05,0
2.562,3.3234e-05,0
2.5625,1.5946e-05,0
2.563,2.266e-05,0
2.5635,4.6662e-05,0
2.564,7.4357e-05,0
2.5645,0.00010172,0
2.565,0.00012689,0
2.5655,0.00012975,0
2.566,8.7617e-05,0
2.5665,1.0575e-05,0
2.567,-7.6371e-05,0
2.5675,-0.00014553,0
2.568,-0.00017977,0
2.5685,-0.0001791,0
2.569,-0.00013327,0
2.5695,-3.3402e-05,0
2.57,7.8386e-05,0
2.5705,0.00013495,0
2.571,0.00012471,0
2.5715,8.3421e-05,0
2.572,2.7359e-05,0
2.5725,-4.0452e-05,0
2.573,-9.1478e-05,0
2.5735,-9.836e-05,0
2.574,-7.335e-05,0
2.5745,-3.0884e-05,0
2.575,2.7359e-05,0
2.5755,8.1743e-05,0
2.576,9.7856e-05,0
2.5765,6.5629e-05,0
2.577,-1.1749e-05,0
2.5775,-9.2653e-05,0
2.578,-0.00012236,0
2.5785,-0.00010524,0
2.579,-6.2272e-05,0
2.5795,-2.0142e-06,0
2.58,6.3783e-05,0
2.5805,0.00013277,0
2.581,0.00018027,0
2.5815,0.0001801,0
2.582,0.00014955,0
2.5825,0.00012052,0
2.583,0.00012203,0
2.5835,0.00014452,0
2.584,0.00013764,0
2.5845,8.7785e-05,0
2.585,2.6352e-05,0
2.5855,-1.9974e-05,0
2.586,-5.5726e-05,0
2.5865,-7.7546e-05,0
2.587,-7.335e-05,0
2.5875,-4.9851e-05,0
2.588,-3.2395e-05,0
2.5885,-3.3066e-05,0
2.589,-3.7766e-05,0
2.5895,-2.5681e-05,0
2.59,3.8605e-06,0
2.5905,4.5319e-05,0
2.591,7.4861e-05,0
2.5915,6.2272e-05,0
2.592,1.9806e-05,0
2.5925,1.1749e-06,0
2.593,2.8367e-05,0
2.5935,6.8482e-05,0
2.594,0.00011263,0
2.5945,0.00015761,0
2.595,0.00017305,0
2.5955,0.00015526,0
2.596,0.00013143,0
2.5965,8.7114e-05,0
2.597,-8.2246e-06,0
2.5975,-0.00010524,0
2.598,-0.00013613,0
2.5985,-8.8457e-05,0
2.599,-1.4603e-05,0
2.5995,3.4745e-05,0
2.6,6.4622e-05,0
2.6005,0.00010356,0
2.601,0.00013143,0
2.6015,0.00012337,0
2.602,9.1981e-05,0
2.6025,5.5558e-05,0
2.603,-3.8605e-06,0
2.6035,-8.8121e-05,0
2.604,-0.000166,0
2.6045,-0.00021602,0
2.605,-0.00023935,0
2.6055,-0.00023012,0
2.606,-0.00015392,0
2.6065,-6.5461e-06,0
2.607,0.00013562,0
2.6075,0.00019722,0
2.608,0.00017104,0
2.6085,9.2821e-05,0
2.609,1.8463e-06,0
2.6095,-8.4093e-05,0
2.61,-0.00014166,0
2.6105,-0.00016667,0
2.611,-0.0001613,0
2.6115,-0.00012119,0
2.612,-4.6326e-05,0
2.6125,3.6423e-05,0
2.613,0.00011196,0
2.6135,0.00014939,0
2.614,0.00013243,0
2.6145,9.4331e-05,0
2.615,6.5461e-05,0
2.6155,3.9445e-05,0
2.616,1.6281e-05,0
2.6165,1.326e-05,0
2.617,2.5345e-05,0
2.6175,3.2059e-05,0
2.618,2.2995e-05,0
2.6185,3.357e-07,0
2.619,-2.5177e-05,0
2.6195,-4.1291e-05,0
2.62,-3.8773e-05,0
2.6205,-2.6352e-05,0
2.621,-1.8296e-05,0
2.6215,-1.1917e-05,0
2.622,8.3925e-06,0
2.6225,5.6062e-05,0
2.623,0.00012001,0
2.6235,0.00016332,0
2.624,0.00016902,0
2.6245,0.00014855,0
2.625,0.00011363,0
2.6255,8.2078e-05,0
2.626,7.5029e-05,0
2.6265,9.2485e-05,0
2.627,0.00010457,0
2.6275,8.8121e-05,0
2.628,5.3544e-05,0
2.6285,2.8367e-05,0
2.629,1.7288e-05,0
2.6295,-5.035e-07,0
2.63,-4.1123e-05,0
2.6305,-8.0903e-05,0
2.631,-8.3757e-05,0
2.6315,-3.3066e-05,0
2.632,6.4118e-05,0
2.6325,0.00017574,0
2.633,0.00026503,0
2.6335,0.00030297,0
2.634,0.00030767,0
2.6345,0.00029189,0
2.635,0.00023818,0
2.6355,0.0001655,0
2.636,0.00010054,0
2.6365,2.7024e-05,0
2.637,-5.6901e-05,0
2.6375,-0.00011649,0
2.638,-0.00013915,0
2.6385,-0.00014788,0
2.639,-0.00016667,0
2.6395,-0.00019705,0
2.64,-0.00022509,0
2.6405,-0.00023398,0
2.641,-0.0002229,0
2.6415,-0.00020226,0
2.642,-0.00017725,0
2.6425,-0.00014804,0
2.643,-0.00011447,0
2.6435,-7.7378e-05,0
2.644,-4.1795e-05,0
2.6445,-7.0497e-06,0
2.645,3.0045e-05,0
2.6455,7.2007e-05,0
2.646,0.0001086,0
2.6465,0.00013411,0
2.647,0.0001603,0
2.6475,0.00017171,0
2.648,0.00014418,0
2.6485,8.8792e-05,0
2.649,4.7333e-05,0
2.6495,2.9038e-05,0
2.65,1.796e-05,0
2.6505,1.561e-05,0
2.651,3.0213e-05,0
2.6515,5.5894e-05,0
2.652,8.5771e-05,0
2.6525,0.00012119,0
2.653,0.00013999,0
2.6535,0.00012488,0
2.654,9.3492e-05,0
2.6545,5.7908e-05,0
2.655,1.1917e-05,0
2.6555,-2.887e-05,0
2.656,-4.8173e-05,0
2.6565,-4.9851e-05,0
2.657,-3.0884e-05,0
2.6575,1.678e-07,0
2.658,8.896e-06,0
2.6585,-1.0575e-05,0
2.659,-3.1052e-05,0
2.6595,-3.1052e-05,0
2.66,-1.561e-05,0
2.6605,-1.1749e-06,0
2.661,-4.1962e-06,0
2.6615,-3.3906e-05,0
2.662,-7.805e-05,0
2.6625,-0.00010692,0
2.663,-0.0001133,0
2.6635,-0.00011179,0
2.664,-0.00010541,0
2.6645,-8.8457e-05,0
2.665,-6.1936e-05,0
2.6655,-3.3402e-05,0
2.666,-8.392e-07,0
2.6665,6.6972e-05,0
2.667,0.00015409,0
2.6675,0.0002031,0
2.668,0.00020729,0
2.6685,0.00021837,0
2.669,0.0002553,0
2.6695,0.00027443,0
2.67,0.00025698,0
2.6705,0.00022358,0
2.671,0.00016634,0
2.6715,7.6875e-05,0
2.672,-2.0646e-05,0
2.6725,-6.9322e-05,0
2.673,-5.1865e-05,0
2.6735,-8.392e-07,0
2.674,2.3499e-05,0
2.6745,-1.0071e-06,0
2.675,-4.6326e-05,0
2.6755,-9.3828e-05,0
2.676,-0.00013864,0
2.6765,-0.00017087,0
2.677,-0.00017691,0
2.6775,-0.00015425,0
2.678,-0.00011716,0
2.6785,-7.805e-05,0
2.679,-4.2969e-05,0
2.6795,-2.5177e-05,0
2.68,-3.2395e-05,0
2.6805,-5.0858e-05,0
2.681,-6.7811e-05,0
2.6815,-7.0664e-05,0
2.682,-4.7333e-05,0
2.6825,-1.7624e-05,0
2.683,7.2175e-06,0
2.6835,2.4338e-05,0
2.684,3.1891e-05,0
2.6845,4.3473e-05,0
2.685,4.918e-05,0
2.6855,2.5345e-05,0
2.686,-1.3764e-05,0
2.6865,-3.7095e-05,0
2.687,-1.9638e-05,0
2.6875,3.5248e-05,0
2.688,9.8527e-05,0
2.6885,0.00013931,0
2.689,0.0001509,0
2.6895,0.00014217,0
2.69,0.00011968,0
2.6905,9.3492e-05,0
2.691,7.6371e-05,0
2.6915,8.6442e-05,0
2.692,0.00012136,0
2.6925,0.00014855,0
2.693,0.00013008,0
2.6935,6.1769e-05,0
2.694,-6.3783e-06,0
2.6945,-4.5487e-05,0
2.695,-6.9657e-05,0
2.6955,-8.8792e-05,0
2.696,-8.9799e-05,0
2.6965,-6.4118e-05,0
2.697,-3.0045e-05,0
2.6975,-6.8818e-06,0
2.698,2.2995e-05,0
2.6985,0.00010591,0
2.699,0.00022341,0
2.6995,0.00029055,0
2.7,0.00029223,0
2.7005,0.00027041,0
2.701,0.00023415,0
2.7015,0.00016886,0
2.702,8.9464e-05,0
2.7025,2.266e-05,0
2.703,-2.0981e-05,0
2.7035,-5.0858e-05,0
2.704,-7.2175e-05,0
2.7045,-8.2582e-05,0
2.705,-8.6107e-05,0
2.7055,-9.2149e-05,0
2.706,-0.00010289,0
2.7065,-0.00011044,0
2.707,-9.1814e-05,0
2.7075,-4.0787e-05,0
2.708,5.539e-06,0
2.7085,1.2589e-05,0
2.709,-8.896e-06,0
2.7095,-4.0452e-05,0
2.71,-6.2272e-05,0
2.7105,-6.5629e-05,0
2.711,-5.304e-05,0
2.7115,-3.9612e-05,0
2.712,-3.122e-05,0
2.7125,-1.8967e-05,0
2.713,3.8605e-06,0
2.7135,2.5009e-05,0
2.714,2.9542e-05,0
2.7145,2.266e-05,0
2.715,1.1917e-05,0
2.7155,-3.0213e-06,0
2.716,-8.5603e-06,0
2.7165,-2.8534e-06,0
2.717,9.7353e-06,0
2.7175,1.0575e-05,0
2.718,-1.1917e-05,0
2.7185,-3.1052e-05,0
2.719,-2.1653e-05,0
2.7195,2.1988e-05,0
2.72,8.4932e-05,0
2.7205,0.00013747,0
2.721,0.0001556,0
2.7215,0.00014485,0
2.722,0.00013176,0
2.7225,0.00012404,0
2.723,0.00010793,0
2.7235,7.9057e-05,0
2.724,4.4144e-05,0
2.7245,1.4603e-05,0
2.725,-6.3783e-06,0
2.7255,-2.9038e-05,0
2.726,-5.4048e-05,0
2.7265,-9.1142e-05,0
2.727,-0.0001415,0
2.7275,-0.00015879,0
2.728,-0.00011229,0
2.7285,-3.4745e-05,0
2.729,2.7024e-05,0
2.7295,6.4958e-05,0
2.73,8.0735e-05,0
2.7305,7.5868e-05,0
2.731,5.4719e-05,0
2.7315,2.1653e-05,0
2.732,4.8676e-06,0
2.7325,2.9374e-05,0
2.733,7.3686e-05,0
2.7335,9.5003e-05,0
2.734,9.6178e-05,0
2.7345,9.9535e-05,0
2.735,9.1478e-05,0
2.7355,6.3279e-05,0
2.736,5.8244e-05,0
2.7365,8.6778e-05,0
2.737,0.00014049,0
2.7375,0.0002271,0
2.738,0.00028853,0
2.7385,0.0002882,0
2.739,0.00024456,0
2.7395,0.00015828,0
2.74,2.4674e-05,0
2.7405,-0.00011095,0
2.741,-0.00020897,0
2.7415,-0.00026688,0
2.742,-0.00029038,0
2.7425,-0.00028434,0
2.743,-0.00025228,0
2.7435,-0.00020713,0
2.744,-0.00016852,0
2.7445,-0.00013881,0
2.745,-0.00010893,0
2.7455,-7.9728e-05,0
2.746,-5.7572e-05,0
2.7465,-4.0452e-05,0
2.747,-2.2995e-05,0
2.7475,5.539e-06,0
2.748,3.4745e-05,0
2.7485,5.1865e-05,0
2.749,5.7404e-05,0
2.7495,4.2466e-05,0
2.75,8.3925e-06,0
2.7505,-1.9974e-05,0
2.751,-2.0813e-05,0
2.7515,-5.539e-06,0
2.752,-6.8818e-06,0
2.7525,-3.6088e-05,0
2.753,-6.9154e-05,0
2.7535,-7.6707e-05,0
2.754,-4.8005e-05,0
2.7545,-1.1749e-06,0
2.755,4.448e-05,0
2.7555,9.8192e-05,0
2.756,0.00016365,0
2.7565,0.00022928,0
2.757,0.00027158,0
2.7575,0.00028518,0
2.758,0.00027762,0
2.7585,0.00025261,0
2.759,0.00020763,0
2.7595,0.00014955,0
2.76,9.2317e-05,0
2.7605,3.978e-05,0
2.761,-1.5106e-06,0
2.7615,-1.8631e-05,0
2.762,-1.4435e-05,0
2.7625,-2.0813e-05,0
2.763,-4.3809e-05,0
2.7635,-5.7908e-05,0
2.764,-4.7166e-05,0
2.7645,-2.182e-05,0
2.765,5.539e-06,0
2.7655,4.9683e-05,0
2.766,0.00010726,0
2.7665,0.00014838,0
2.767,0.00015006,0
2.7675,0.00011128,0
2.768,4.9012e-05,0
2.7685,-1.2757e-05,0
2.769,-4.9348e-05,0
2.7695,-4.2802e-05,0
2.77,3.4745e-05,0
2.7705,0.0001556,0
2.771,0.00025312,0
2.7715,0.00028249,0
2.772,0.00024422,0
2.7725,0.00015929,0
2.773,5.3376e-05,0
2.7735,-4.2466e-05,0
2.774,-9.601e-05,0
2.7745,-0.00011397,0
2.775,-0.00012773,0
2.7755,-0.00014804,0
2.776,-0.00015962,0
2.7765,-0.00016516,0
2.777,-0.00017691,0
2.7775,-0.00014536,0
2.778,-8.275e-05,0
2.7785,-5.3208e-05,0
2.779,-5.6565e-05,0
2.7795,-6.2272e-05,0
2.78,-6.5629e-05,0
2.7805,-6.4622e-05,0
2.781,-4.4816e-05,0
2.7815,-1.3764e-05,0
2.782,6.3783e-06,0
2.7825,-3.357e-07,0
2.783,-2.652e-05,0
2.7835,-5.0858e-05,0
2.784,-6.8986e-05,0
2.7845,-8.4428e-05,0
2.785,-9.3828e-05,0
2.7855,-9.0806e-05,0
2.786,-7.2343e-05,0
2.7865,-4.7837e-05,0
2.787,-2.4674e-05,0
2.7875,-7.8889e-06,0
2.788,4.8676e-06,0
2.7885,1.9135e-05,0
2.789,3.4073e-05,0
2.7895,4.3641e-05,0
2.79,5.0019e-05,0
2.7905,5.8579e-05,0
2.791,7.1336e-05,0
2.7915,9.4499e-05,0
2.792,0.00011464,0
2.7925,0.00011347,0
2.793,8.9799e-05,0
2.7935,7.6204e-05,0
2.794,7.9057e-05,0
2.7945,7.4693e-05,0
2.795,6.2104e-05,0
2.7955,5.8244e-05,0
2.796,6.9993e-05,0
2.7965,8.4428e-05,0
2.797,9.2317e-05,0
2.7975,9.8192e-05,0
2.798,0.00010591,0
2.7985,0.00011632,0
2.799,0.00012706,0
2.7995,0.00012874,0
2.8,0.00011901,0
2.8005,0.00010541,0
2.801,8.2078e-05,0
2.8015,4.0787e-05,0
2.802,-6.2104e-06,0
2.8025,-4.6494e-05,0
2.803,-6.7979e-05,0
2.8035,-6.2944e-05,0
2.804,-4.3305e-05,0
2.8045,-2.6184e-05,0
2.805,-1.2253e-05,0
2.8055,5.539e-06,0
2.806,2.5177e-05,0
2.8065,4.0116e-05,0
2.807,5.2872e-05,0
2.8075,6.4622e-05,0
2.808,7.1672e-05,0
2.8085,7.2007e-05,0
2.809,7.3182e-05,0
2.8095,8.9632e-05,0
2.81,0.00012203,0
2.8105,0.00017943,0
2.811,0.00026705,0
2.8115,0.00030599,0
2.812,0.00024758,0
2.8125,0.00014401,0
2.813,5.0858e-05,0
2.8135,-3.4745e-05,0
2.814,-8.7953e-05,0
2.8145,-7.4021e-05,0
2.815,-3.0381e-05,0
2.8155,3.1891e-06,0
2.816,1.4939e-05,0
2.8165,5.8747e-06,0
2.817,-3.8605e-06,0
2.8175,-1.6281e-05,0
2.818,-6.8147e-05,0
2.8185,-0.00014871,0
2.819,-0.00019756,0
2.8195,-0.00019017,0
2.82,-0.00014989,0
2.8205,-0.00010591,0
2.821,-8.275e-05,0
2.8215,-8.4428e-05,0
2.822,-8.0735e-05,0
2.8225,-5.388e-05,0
2.823,-2.266e-05,0
2.8235,-1.2924e-05,0
2.824,-3.7766e-05,0
2.8245,-7.7714e-05,0
2.825,-0.00010491,0
2.8255,-0.00012102,0
2.826,-0.0001368,0
2.8265,-0.00014267,0
2.827,-0.00012438,0
2.8275,-9.0135e-05,0
2.828,-5.9251e-05,0
2.8285,-4.0452e-05,0
2.829,-2.6688e-05,0
2.8295,-1.1917e-05,0
2.83,8.2246e-06,0
2.8305,5.1194e-05,0
2.831,0.00011867,0
2.8315,0.00016936,0
2.832,0.00018195,0
2.8325,0.00017523,0
2.833,0.00016147,0
2.8335,0.00013881,0
2.834,0.00011095,0
2.8345,9.2485e-05,0
2.835,9.8863e-05,0
2.8355,0.00012236,0
2.836,0.00013747,0
2.8365,0.00014351,0
2.837,0.00015392,0
2.8375,0.00015023,0
2.838,0.00011044,0
2.8385,5.1194e-05,0
2.839,-1.8463e-06,0
2.8395,-4.0619e-05,0
2.84,-7.6707e-05,0
2.8405,-9.8863e-05,0
2.841,-8.0232e-05,0
2.8415,-2.4674e-05,0
2.842,2.9709e-05,0
2.8425,5.0187e-05,0
2.843,4.4984e-05,0
2.8435,3.2059e-05,0
2.844,1.2421e-05,0
2.8445,-2.266e-05,0
2.845,-6.9993e-05,0
2.8455,-0.00011011,0
2.846,-0.00012438,0
2.8465,-0.00010558,0
2.847,-6.8818e-05,0
2.8475,-3.5248e-05,0
2.848,5.2033e-06,0
2.8485,8.3757e-05,0
2.849,0.00018245,0
2.8495,0.00023616,0
2.85,0.00023146,0
2.8505,0.00019672,0
2.851,0.00013864,0
2.8515,6.7475e-05,0
2.852,9.9031e-06,0
2.8525,-3.0884e-05,0
2.853,-5.7908e-05,0
2.8535,-5.1865e-05,0
2.854,-2.1653e-05,0
2.8545,9.2317e-06,0
2.855,1.2421e-05,0
2.8555,-2.1317e-05,0
2.856,-6.3279e-05,0
2.8565,-5.2369e-05,0
2.857,2.266e-05,0
2.8575,0.00011934,0
2.858,0.00016097,0
2.8585,0.00012303,0
2.859,5.1865e-05,0
2.8595,-8.392e-07,0
2.86,-2.2492e-05,0
2.8605,-3.0213e-05,0
2.861,-3.6423e-05,0
2.8615,-3.8102e-05,0
2.862,-3.6591e-05,0
2.8625,-3.8102e-05,0
2.863,-5.1362e-05,0
2.8635,-7.57e-05,0
2.864,-9.9535e-05,0
2.8645,-0.00010692,0
2.865,-9.1478e-05,0
2.8655,-6.5126e-05,0
2.866,-3.9948e-05,0
2.8665,-2.031e-05,0
2.867,-6.2104e-06,0
2.8675,2.3499e-06,0
2.868,8.5603e-06,0
2.8685,1.8463e-05,0
2.869,3.0716e-05,0
2.8695,3.9948e-05,0
2.87,5.1362e-05,0
2.8705,7.1672e-05,0
2.871,9.4499e-05,0
2.8715,0.0001133,0
2.872,0.00012186,0
2.8725,0.00012001,0
2.873,0.00011263,0
2.8735,0.00010121,0
2.874,9.8024e-05,0
2.8745,0.0001237,0
2.875,0.0001744,0
2.8755,0.00020964,0
2.876,0.00019487,0
2.8765,0.00013411,0
2.877,7.2679e-05,0
2.8775,3.1891e-05,0
2.878,-5.7069e-06,0
2.8785,-3.8437e-05,0
2.879,-5.0858e-05,0
2.8795,-4.2466e-05,0
2.88,-3.0045e-05,0
2.8805,-2.4674e-05,0
2.881,-2.8534e-05,0
2.8815,-4.1962e-05,0
2.882,-4.1795e-05,0
2.8825,-1.7792e-05,0
2.883,1.5106e-05,0
2.8835,3.978e-05,0
2.884,3.4073e-05,0
2.8845,-1.0071e-06,0
2.885,-3.9109e-05,0
2.8855,-6.0929e-05,0
2.886,-6.4622e-05,0
2.8865,-5.3376e-05,0
2.887,-2.9206e-05,0
2.8875,3.8605e-06,0
2.888,4.213e-05,0
2.8885,8.0232e-05,0
2.889,0.00010994,0
2.8895,0.00013143,0
2.89,0.00014452,0
2.8905,0.00017104,0
2.891,0.00018648,0
2.8915,0.00015258,0
2.892,0.00010239,0
2.8925,7.6875e-05,0
2.893,5.9922e-05,0
2.8935,3.6423e-05,0
2.894,2.3331e-05,0
2.8945,2.1317e-05,0
2.895,9.2317e-06,0
2.8955,-1.5778e-05,0
2.896,-4.3137e-05,0
2.8965,-6.9657e-05,0
2.897,-9.2149e-05,0
2.8975,-0.00011414,0
2.898,-0.00014788,0
2.8985,-0.00019554,0
2.899,-0.00024204,0
2.8995,-0.00025983,0
2.9,-0.00023835,0
2.9005,-0.00019319,0
2.901,-0.00014485,0
2.9015,-0.00010591,0
2.902,-7.335e-05,0
2.9025,-3.7766e-05,0
2.903,8.392e-07,0
2.9035,3.4409e-05,0
2.904,5.623e-05,0
2.9045,6.4622e-05,0
2.905,7.3014e-05,0
2.9055,0.00012404,0
2.906,0.00020897,0
2.9065,0.00024825,0
2.907,0.00021401,0
2.9075,0.00015644,0
2.908,0.0001274,0
2.9085,0.00012706,0
2.909,0.00012605,0
2.9095,0.0001133,0
2.91,9.5674e-05,0
2.9105,8.5267e-05,0
2.911,8.3085e-05,0
2.9115,7.0664e-05,0
2.912,3.7095e-05,0
2.9125,-1.4603e-05,0
2.913,-7.0832e-05,0
2.9135,-0.00010323,0
2.914,-0.0001034,0
2.9145,-9.5003e-05,0
2.915,-9.7688e-05,0
2.9155,-9.7856e-05,0
2.916,-8.1407e-05,0
2.9165,-5.8915e-05,0
2.917,-3.4409e-05,0
2.9175,-6.714e-07,0
2.918,4.2802e-05,0
2.9185,8.1743e-05,0
2.919,9.6513e-05,0
2.9195,9.0974e-05,0
2.92,8.0064e-05,0
2.9205,6.5293e-05,0
2.921,4.918e-05,0
2.9215,3.9277e-05,0
2.922,3.743e-05,0
2.9225,3.7766e-05,0
2.923,3.3234e-05,0
2.9235,3.2731e-05,0
2.924,6.1433e-05,0
2.9245,0.00011498,0
2.925,0.00014788,0
2.9255,0.00013193,0
2.926,8.7785e-05,0
2.9265,5.8244e-05,0
2.927,5.3544e-05,0
2.9275,6.8315e-05,0
2.928,0.00011464,0
2.9285,0.00019756,0
2.929,0.00027041,0
2.9295,0.00029256,0
2.93,0.00026571,0
2.9305,0.00020125,0
2.931,9.7856e-05,0
2.9315,-3.7766e-05,0
2.932,-0.00016281,0
2.9325,-0.00024036,0
2.933,-0.00027225,0
2.9335,-0.00026889,0
2.934,-0.00023667,0
2.9345,-0.00019084,0
2.935,-0.00015492,0
2.9355,-0.00014015,0
2.936,-0.00013176,0
2.9365,-0.0001133,0
2.937,-8.51e-05,0
2.9375,-5.4551e-05,0
2.938,-2.4674e-05,0
2.9385,5.539e-06,0
2.939,3.3402e-05,0
2.9395,4.5991e-05,0
2.94,4.3137e-05,0
2.9405,2.9374e-05,0
2.941,6.3783e-06,0
2.9415,-1.1749e-05,0
2.942,-1.8463e-05,0
2.9425,-2.5681e-05,0
2.943,-4.0452e-05,0
2.9435,-4.9515e-05,0
2.944,-3.9109e-05,0
2.9445,-1.3092e-05,0
2.945,1.326e-05,0
2.9455,3.0045e-05,0
2.946,3.4073e-05,0
2.9465,2.4674e-05,0
2.947,7.2175e-06,0
2.9475,-2.5177e-06,0
2.948,6.3783e-06,0
2.9485,3.743e-05,0
2.949,7.6371e-05,0
2.9495,0.00010759,0
2.95,0.00014116,0
2.9505,0.00017339,0
2.951,0.00017574,0
2.9515,0.00014855,0
2.952,0.00011867,0
2.9525,0.00010726,0
2.953,0.00011263,0
2.9535,0.00013797,0
2.954,0.0001754,0
2.9545,0.00019118,0
2.955,0.00016751,0
2.9555,0.00010927,0
2.956,5.2872e-05,0
2.9565,3.6088e-05,0
2.957,4.8173e-05,0
2.9575,4.4816e-05,0
2.958,1.4099e-05,0
2.9585,4.8676e-06,0
2.959,4.7166e-05,0
2.9595,9.6513e-05,0
2.96,0.00011531,0
2.9605,8.8457e-05,0
2.961,3.5416e-05,0
2.9615,-3.5248e-06,0
2.962,-2.4674e-05,0
2.9625,-4.683e-05,0
2.963,-7.5196e-05,0
2.9635,-8.04e-05,0
2.964,-6.6468e-05,0
2.9645,-4.918e-05,0
2.965,-3.5752e-05,0
2.9655,-3.2059e-05,0
2.966,-5.9251e-05,0
2.9665,-0.0001086,0
2.967,-0.00012404,0
2.9675,-8.4093e-05,0
2.968,-3.2395e-05,0
2.9685,1.6281e-05,0
2.969,5.9754e-05,0
2.9695,5.9754e-05,0
2.97,7.2175e-06,0
2.9705,-6.0761e-05,0
2.971,-0.00010793,0
2.9715,-0.00011582,0
2.972,-9.4499e-05,0
2.9725,-6.8986e-05,0
2.973,-4.9851e-05,0
2.9735,-4.213e-05,0
2.974,-4.5823e-05,0
2.9745,-5.6062e-05,0
2.975,-6.3111e-05,0
2.9755,-5.7404e-05,0
2.976,-3.8605e-05,0
2.9765,-1.9638e-05,0
2.977,-2.2156e-05,0
2.9775,-3.4073e-05,0
2.978,-2.266e-05,0
2.9785,1.1582e-05,0
2.979,4.6159e-05,0
2.9795,8.2246e-05,0
2.98,0.00011666,0
2.9805,0.00014066,0
2.981,0.00014401,0
2.9815,0.00011984,0
2.982,8.0735e-05,0
2.9825,5.0523e-05,0
2.983,3.4409e-05,0
2.9835,3.0716e-05,0
2.984,3.2395e-05,0
2.9845,2.5009e-05,0
2.985,1.0407e-05,0
2.9855,1.1749e-06,0
2.986,8.896e-06,0
2.9865,1.8967e-05,0
2.987,2.7024e-05,0
2.9875,3.8605e-05,0
2.988,6.8818e-05,0
2.9885,0.00011061,0
2.989,0.00015006,0
2.9895,0.00017893,0
2.99,0,0
2.9905,0,0
2.991,0,0
2.9915,0,0
2.992,0,0
2.9925,0,0
2.993,0,0
2.9935,0,0
2.994,0,0
2.9945,0,0
2.995,0,0
2.9955,0,0
2.996,0,0
2.9965,0,0
2.997,0,0
2.9975,0,0
2.998,0,0
2.9985,0,0
2.999,0,0
2.9995,0,0
3,0,0
3.0005,0,0
3.001,0,0
3.0015,0,0
3.002,0,0
3.0025,0,0
3.003,-2.7024e-05,0
3.0035,-5.9922e-05,0
3.004,-8.4764e-05,0
3.0045,-0.00011833,0
3.005,-0.00014821,0
3.0055,-0.00015056,0
3.006,-0.00012303,0
3.0065,-8.8121e-05,0
3.007,-7.1504e-05,0
3.0075,-7.1672e-05,0
3.008,-7.3854e-05,0
3.0085,-7.2343e-05,0
3.009,-6.6804e-05,0
3.0095,-4.7837e-05,0
3.01,-9.7353e-06,0
3.0105,4.683e-05,0
3.011,0.00010188,0
3.0115,0.00012874,0
3.012,0.00012958,0
3.0125,0.00011833,0
3.013,9.6513e-05,0
3.0135,6.479e-05,0
3.014,3.4577e-05,0
3.0145,1.4603e-05,0
3.015,6.8818e-06,0
3.0155,1.2421e-05,0
3.016,2.7359e-05,0
3.0165,5.153e-05,0
3.017,9.2317e-05,0
3.0175,0.00015425,0
3.018,0.00020931,0
3.0185,0.00020847,0
3.019,0.00013562,0
3.0195,3.9948e-05,0
3.02,-2.1317e-05,0
3.0205,-5.8579e-05,0
3.021,-0.0001091,0
3.0215,-0.00015274,0
3.022,-0.00015274,0
3.0225,-0.00011615,0
3.023,-7.0329e-05,0
3.0235,-3.4073e-05,0
3.024,-8.2246e-06,0
3.0245,1.7792e-05,0
3.025,4.4816e-05,0
3.0255,6.9657e-05,0
3.026,9.2149e-05,0
3.0265,0.0001133,0
3.027,0.0001467,0
3.0275,0.00018849,0
3.028,0.00019907,0
3.0285,0.00016936,0
3.029,0.00012001,0
3.0295,6.009e-05,0
3.03,-3.357e-07,0
3.0305,-3.2731e-05,0
3.031,-2.9709e-05,0
3.0315,-9.0639e-06,0
3.032,1.1246e-05,0
3.0325,3.1556e-05,0
3.033,4.8173e-05,0
3.0335,5.3208e-05,0
3.034,5.1362e-05,0
3.0345,4.8844e-05,0
3.035,5.4048e-05,0
3.0355,4.4144e-05,0
3.036,-7.8889e-06,0
3.0365,-7.5868e-05,0
3.037,-0.00011514,0
3.0375,-0.00010994,0
3.038,-7.5868e-05,0
3.0385,-1.5106e-05,0
3.039,6.6133e-05,0
3.0395,0.00013109,0
3.04,0.00015157,0
3.0405,0.00013025,0
3.041,7.0832e-05,0
3.0415,-2.0646e-05,0
3.042,-0.00011363,0
3.0425,-0.00017775,0
3.043,-0.00019722,0
3.0435,-0.00016634,0
3.044,-0.00010927,0
3.0445,-5.2872e-05,0
3.045,-1.6953e-05,0
3.0455,-1.3932e-05,0
3.046,-3.3906e-05,0
3.0465,-5.0355e-05,0
3.047,-5.0187e-05,0
3.0475,-3.8941e-05,0
3.048,-3.1724e-05,0
3.0485,-2.887e-05,0
3.049,-2.031e-05,0
3.0495,-1.1078e-05,0
3.05,-7.8889e-06,0
3.0505,-6.0426e-06,0
3.051,4.0284e-06,0
3.0515,3.1388e-05,0
3.052,7.2343e-05,0
3.0525,0.00011061,0
3.053,0.00011498,0
3.0535,8.275e-05,0
3.054,5.5894e-05,0
3.0545,4.6326e-05,0
3.055,3.5752e-05,0
3.0555,3.4745e-05,0
3.056,5.4551e-05,0
3.0565,8.04e-05,0
3.057,9.9702e-05,0
3.0575,0.00010793,0
3.058,9.0303e-05,0
3.0585,4.8173e-05,0
3.059,1.8463e-06,0
3.0595,-3.0381e-05,0
3.06,-4.2802e-05,0
3.0605,-3.6759e-05,0
3.061,-8.896e-06,0
3.0615,3.5752e-05,0
3.062,7.9225e-05,0
3.0625,0.00010407,0
3.063,0.00012035,0
3.0635,0.0001321,0
3.064,0.00013075,0
3.0645,0.0001331,0
3.065,0.00014083,0
3.0655,0.0001279,0
3.066,9.752e-05,0
3.0665,8.5771e-05,0
3.067,8.0064e-05,0
3.0675,5.2369e-05,0
3.068,1.7288e-05,0
3.0685,-6.2104e-06,0
3.069,-2.2995e-05,0
3.0695,-3.8773e-05,0
3.07,-4.5151e-05,0
3.0705,-3.357e-05,0
3.071,-2.6856e-06,0
3.0715,2.031e-05,0
3.072,1.8463e-05,0
3.0725,1.7624e-05,0
3.073,5.6901e-05,0
3.0735,0.00012253,0
3.074,0.00015341,0
3.0745,0.00013848,0
3.075,0.0001039,0
3.0755,6.0929e-05,0
3.076,8.0568e-06,0
3.0765,-4.7333e-05,0
3.077,-8.7617e-05,0
3.0775,-0.00010709,0
3.078,-0.00012874,0
3.0785,-0.00014771,0
3.079,-0.00014351,0
3.0795,-0.00013445,0
3.08,-0.0001556,0
3.0805,-0.00018631,0
3.081,-0.00019722,0
3.0815,-0.00018497,0
3.082,-0.0001467,0
3.0825,-8.745e-05,0
3.083,-2.5345e-05,0
3.0835,2.6688e-05,0
3.084,6.3279e-05,0
3.0845,8.1743e-05,0
3.085,8.8792e-05,0
3.0855,9.9031e-05,0
3.086,0.00010507,0
3.0865,8.7114e-05,0
3.087,4.6159e-05,0
3.0875,1.4939e-05,0
3.088,1.0575e-05,0
3.0885,1.0575e-05,0
3.089,1.2924e-05,0
3.0895,3.8605e-05,0
3.09,7.3686e-05,0
3.0905,9.6178e-05,0
3.091,0.00010457,0
3.0915,0.00010491,0
3.092,9.9199e-05,0
3.0925,8.0064e-05,0
3.093,6.4118e-05,0
3.0935,7.2175e-05,0
3.094,8.4093e-05,0
3.0945,8.7114e-05,0
3.095,7.8721e-05,0
3.0955,5.4887e-05,0
3.096,2.6688e-05,0
3.0965,1.3596e-05,0
3.097,1.8631e-05,0
3.0975,2.5009e-05,0
