0,0,0
0.0005,0,0
0.001,0,0
0.0015,0,0
0.002,0,0
0.0025,0,0
0.003,0,0
0.0035,0,0
0.004,0,0
0.0045,0,0
0.005,0,0
0.0055,0,0
0.006,0,0
0.0065,0,0
0.007,0,0
0.0075,0,0
0.008,0,0
0.0085,0,0
0.009,0,0
0.0095,0,0
0.01,0,0
0.0105,0,0
0.011,0,0
0.0115,0,0
0.012,0,0
0.0125,0,0
0.013,2.9206e-05,0
0.0135,2.9374e-05,0
0.014,2.8702e-05,0
0.0145,3.0716e-05,0
0.015,3.4073e-05,0
0.0155,3.2731e-05,0
0.016,2.9709e-05,0
0.0165,2.8702e-05,0
0.017,2.7527e-05,0
0.0175,2.6017e-05,0
0.018,2.5009e-05,0
0.0185,2.4338e-05,0
0.019,2.4338e-05,0
0.0195,2.3667e-05,0
0.02,2.0981e-05,0
0.0205,1.796e-05,0
0.021,1.4435e-05,0
0.0215,1.1917e-05,0
0.022,1.091e-05,0
0.0225,9.0639e-06,0
0.023,7.2175e-06,0
0.0235,6.5461e-06,0
0.024,6.3783e-06,0
0.0245,6.0426e-06,0
0.025,4.8676e-06,0
0.0255,5.8747e-06,0
0.026,9.7353e-06,0
0.0265,1.0407e-05,0
0.027,8.896e-06,0
0.0275,8.3925e-06,0
0.028,1.1582e-05,0
0.0285,1.4267e-05,0
0.029,1.2924e-05,0
0.0295,1.4603e-05,0
0.03,2.0646e-05,0
0.0305,2.2324e-05,0
0.031,2.1317e-05,0
0.0315,2.3331e-05,0
0.032,2.2156e-05,0
0.0325,1.796e-05,0
0.033,1.5946e-05,0
0.0335,1.8631e-05,0
0.034,2.3667e-05,0
0.0345,2.4674e-05,0
0.035,2.1317e-05,0
0.0355,2.1317e-05,0
0.036,2.3667e-05,0
0.0365,2.2492e-05,0
0.037,2.1317e-05,0
0.0375,2.4674e-05,0
0.038,2.7863e-05,0
0.0385,2.9374e-05,0
0.039,3.1724e-05,0
0.0395,3.4409e-05,0
0.04,3.6088e-05,0
0.0405,3.6255e-05,0
0.041,3.4409e-05,0
0.0415,3.3402e-05,0
0.042,3.2731e-05,0
0.0425,3.2563e-05,0
0.043,3.3738e-05,0
0.0435,3.5752e-05,0
0.044,3.6927e-05,0
0.0445,3.743e-05,0
0.045,3.5584e-05,0
0.0455,3.2731e-05,0
0.046,2.9374e-05,0
0.0465,2.4674e-05,0
0.047,2.1317e-05,0
0.0475,1.7792e-05,0
0.048,1.4603e-05,0
0.0485,1.4603e-05,0
0.049,1.561e-05,0
0.0495,1.4939e-05,0
0.05,1.2757e-05,0
0.0505,1.0575e-05,0
0.051,8.896e-06,0
0.0515,7.3854e-06,0
0.052,6.3783e-06,0
0.0525,6.8818e-06,0
0.053,1.0239e-05,0
0.0535,1.3092e-05,0
0.054,1.4939e-05,0
0.0545,1.6281e-05,0
0.055,1.6953e-05,0
0.0555,1.6617e-05,0
0.056,1.4939e-05,0
0.0565,1.3932e-05,0
0.057,1.5778e-05,0
0.0575,1.7624e-05,0
0.058,1.9638e-05,0
0.0585,2.3835e-05,0
0.059,2.8367e-05,0
0.0595,3.2059e-05,0
0.06,3.4745e-05,0
0.0605,3.5584e-05,0
0.061,3.7262e-05,0
0.0615,3.8605e-05,0
0.062,3.743e-05,0
0.0625,3.5752e-05,0
0.063,3.3402e-05,0
0.0635,3.2395e-05,0
0.064,3.3066e-05,0
0.0645,3.3234e-05,0
0.065,3.122e-05,0
0.0655,2.9206e-05,0
0.066,2.6352e-05,0
0.0665,2.3331e-05,0
0.067,1.9303e-05,0
0.0675,1.7624e-05,0
0.068,1.6617e-05,0
0.0685,1.6617e-05,0
0.069,1.9638e-05,0
0.0695,2.266e-05,0
0.07,2.4506e-05,0
0.0705,2.5345e-05,0
0.071,2.5177e-05,0
0.0715,2.6688e-05,0
0.072,3.1891e-05,0
0.0725,3.5752e-05,0
0.073,3.4745e-05,0
0.0735,3.2395e-05,0
0.074,3.0549e-05,0
0.0745,2.9542e-05,0
0.075,2.5849e-05,0
0.0755,1.9974e-05,0
0.076,1.6449e-05,0
0.0765,1.5442e-05,0
0.077,1.7792e-05,0
0.0775,2.0981e-05,0
0.078,2.031e-05,0
0.0785,1.6953e-05,0
0.079,1.1749e-05,0
0.0795,7.2175e-06,0
0.08,6.0426e-06,0
0.0805,5.8747e-06,0
0.081,4.5319e-06,0
0.0815,4.0284e-06,0
0.082,6.8818e-06,0
0.0825,1.1246e-05,0
0.083,1.2757e-05,0
0.0835,1.091e-05,0
0.084,8.896e-06,0
0.0845,7.5532e-06,0
0.085,7.2175e-06,0
0.0855,9.2317e-06,0
0.086,1.1917e-05,0
0.0865,1.2421e-05,0
0.087,1.2924e-05,0
0.0875,1.326e-05,0
0.088,1.5106e-05,0
0.0885,1.5946e-05,0
0.089,1.3596e-05,0
0.0895,9.9031e-06,0
0.09,3.5248e-06,0
0.0905,-1.678e-07,0
0.091,3.357e-07,0
0.0915,1.6785e-06,0
0.092,1.678e-07,0
0.0925,-2.3499e-06,0
0.093,-1.8463e-06,0
0.0935,2.3499e-06,0
0.094,6.0426e-06,0
0.0945,6.3783e-06,0
0.095,3.8605e-06,0
0.0955,3.6927e-06,0
0.096,7.2175e-06,0
0.0965,1.0239e-05,0
0.097,1.0575e-05,0
0.0975,1.0575e-05,0
0.098,1.3092e-05,0
0.0985,1.5274e-05,0
0.099,1.6785e-05,0
0.0995,2.031e-05,0
0.1,2.3667e-05,0
0.1005,2.4002e-05,0
0.101,2.4002e-05,0
0.1015,2.4002e-05,0
0.102,2.4002e-05,0
0.1025,2.3331e-05,0
0.103,2.266e-05,0
0.1035,2.1317e-05,0
0.104,1.8967e-05,0
0.1045,1.7288e-05,0
0.105,1.7792e-05,0
0.1055,1.5946e-05,0
0.106,1.2085e-05,0
0.1065,1.1917e-05,0
0.107,1.4099e-05,0
0.1075,1.5274e-05,0
0.108,1.6281e-05,0
0.1085,1.7121e-05,0
0.109,1.9806e-05,0
0.1095,2.1317e-05,0
0.11,2.0142e-05,0
0.1105,1.8631e-05,0
0.111,1.7288e-05,0
0.1115,1.7121e-05,0
0.112,1.8463e-05,0
0.1125,1.8967e-05,0
0.113,2.2324e-05,0
0.1135,2.5009e-05,0
0.114,2.2492e-05,0
0.1145,2.0981e-05,0
0.115,2.1988e-05,0
0.1155,2.3667e-05,0
0.116,2.6017e-05,0
0.1165,2.7192e-05,0
0.117,2.6688e-05,0
0.1175,2.5849e-05,0
0.118,2.3667e-05,0
0.1185,2.0142e-05,0
0.119,1.7456e-05,0
0.1195,1.6449e-05,0
0.12,1.4603e-05,0
0.1205,1.4939e-05,0
0.121,1.5106e-05,0
0.1215,1.3092e-05,0
0.122,1.1917e-05,0
0.1225,1.1749e-05,0
0.123,1.0575e-05,0
0.1235,1.0575e-05,0
0.124,1.1917e-05,0
0.1245,1.3932e-05,0
0.125,1.561e-05,0
0.1255,1.6281e-05,0
0.126,1.6449e-05,0
0.1265,1.6617e-05,0
0.127,1.6953e-05,0
0.1275,1.7624e-05,0
0.128,2.0646e-05,0
0.1285,2.5345e-05,0
0.129,2.8367e-05,0
0.1295,2.9038e-05,0
0.13,2.7527e-05,0
0.1305,2.4338e-05,0
0.131,2.2156e-05,0
0.1315,2.266e-05,0
0.132,2.4674e-05,0
0.1325,2.7359e-05,0
0.133,2.6688e-05,0
0.1335,2.7695e-05,0
0.134,3.0045e-05,0
0.1345,3.1556e-05,0
0.135,3.2059e-05,0
0.1355,3.5248e-05,0
0.136,3.7095e-05,0
0.1365,3.4073e-05,0
0.137,3.1388e-05,0
0.1375,3.0549e-05,0
0.138,2.6688e-05,0
0.1385,2.2156e-05,0
0.139,2.1317e-05,0
0.1395,2.0478e-05,0
0.14,1.5106e-05,0
0.1405,7.5532e-06,0
0.141,-1.6785e-06,0
0.1415,-9.9031e-06,0
0.142,-1.1582e-05,0
0.1425,-8.5603e-06,0
0.143,-4.1962e-06,0
0.1435,1.1749e-06,0
0.144,6.5461e-06,0
0.1445,1.2253e-05,0
0.145,1.9806e-05,0
0.1455,2.4674e-05,0
0.146,2.6017e-05,0
0.1465,2.6856e-05,0
0.147,3.0045e-05,0
0.1475,3.2563e-05,0
0.148,3.3066e-05,0
0.1485,3.2059e-05,0
0.149,3.2563e-05,0
0.1495,3.4073e-05,0
0.15,3.357e-05,0
0.1505,2.9374e-05,0
0.151,2.7024e-05,0
0.1515,2.7192e-05,0
0.152,2.9038e-05,0
0.1525,3.3066e-05,0
0.153,3.5584e-05,0
0.1535,3.4745e-05,0
0.154,3.1891e-05,0
0.1545,2.7863e-05,0
0.155,2.5009e-05,0
0.1555,2.266e-05,0
0.156,2.3331e-05,0
0.1565,2.4338e-05,0
0.157,2.652e-05,0
0.1575,2.9542e-05,0
0.158,3.0716e-05,0
0.1585,3.1724e-05,0
0.159,3.0716e-05,0
0.1595,2.7192e-05,0
0.16,2.4506e-05,0
0.1605,2.5345e-05,0
0.161,2.6017e-05,0
0.1615,2.5345e-05,0
0.162,2.4506e-05,0
0.1625,2.4002e-05,0
0.163,2.4506e-05,0
0.1635,2.4002e-05,0
0.164,2.266e-05,0
0.1645,2.4674e-05,0
0.165,2.9709e-05,0
0.1655,3.2731e-05,0
0.166,3.3402e-05,0
0.1665,3.4409e-05,0
0.167,3.5416e-05,0
0.1675,3.3738e-05,0
0.168,2.9542e-05,0
0.1685,2.5681e-05,0
0.169,2.3667e-05,0
0.1695,2.1653e-05,0
0.17,1.8631e-05,0
0.1705,1.4435e-05,0
0.171,1.2085e-05,0
0.1715,1.2253e-05,0
0.172,1.1246e-05,0
0.1725,8.5603e-06,0
0.173,4.3641e-06,0
0.1735,1.8463e-06,0
0.174,1.8463e-06,0
0.1745,3.1891e-06,0
0.175,2.8534e-06,0
0.1755,2.182e-06,0
0.176,2.5177e-06,0
0.1765,2.5177e-06,0
0.177,3.0213e-06,0
0.1775,5.539e-06,0
0.178,7.2175e-06,0
0.1785,8.7282e-06,0
0.179,1.2924e-05,0
0.1795,1.5778e-05,0
0.18,1.6953e-05,0
0.1805,1.7624e-05,0
0.181,1.5946e-05,0
0.1815,1.796e-05,0
0.182,1.9974e-05,0
0.1825,1.7288e-05,0
0.183,1.326e-05,0
0.1835,1.326e-05,0
0.184,1.7792e-05,0
0.1845,2.2995e-05,0
0.185,2.4506e-05,0
0.1855,2.4002e-05,0
0.186,2.4002e-05,0
0.1865,2.4002e-05,0
0.187,2.4338e-05,0
0.1875,2.4002e-05,0
0.188,2.266e-05,0
0.1885,2.266e-05,0
0.189,2.266e-05,0
0.1895,2.182e-05,0
0.19,2.0646e-05,0
0.1905,2.031e-05,0
0.191,2.0646e-05,0
0.1915,1.8967e-05,0
0.192,1.5778e-05,0
0.1925,1.2924e-05,0
0.193,1.0575e-05,0
0.1935,1.1917e-05,0
0.194,1.3596e-05,0
0.1945,1.4603e-05,0
0.195,1.5106e-05,0
0.1955,1.2924e-05,0
0.196,1.1917e-05,0
0.1965,1.2589e-05,0
0.197,1.4939e-05,0
0.1975,1.6617e-05,0
0.198,1.4099e-05,0
0.1985,1.2589e-05,0
0.199,1.3764e-05,0
0.1995,1.1917e-05,0
0.2,8.3925e-06,0
0.2005,8.2246e-06,0
0.201,1.1582e-05,0
0.2015,1.4771e-05,0
0.202,1.7456e-05,0
0.2025,1.8967e-05,0
0.203,1.8463e-05,0
0.2035,1.9303e-05,0
0.204,2.031e-05,0
0.2045,1.947e-05,0
0.205,1.8463e-05,0
0.2055,2.0478e-05,0
0.206,2.266e-05,0
0.2065,2.5009e-05,0
0.207,2.9206e-05,0
0.2075,3.2059e-05,0
0.208,3.3234e-05,0
0.2085,3.4745e-05,0
0.209,3.6088e-05,0
0.2095,3.4409e-05,0
0.21,3.1052e-05,0
0.2105,3.2563e-05,0
0.211,3.3066e-05,0
0.2115,3.0884e-05,0
0.212,3.122e-05,0
0.2125,3.4241e-05,0
0.213,3.4073e-05,0
0.2135,3.2059e-05,0
0.214,3.1388e-05,0
0.2145,3.3066e-05,0
0.215,3.6927e-05,0
0.2155,3.6927e-05,0
0.216,3.4409e-05,0
0.2165,3.2059e-05,0
0.217,3.2059e-05,0
0.2175,3.2059e-05,0
0.218,2.9709e-05,0
0.2185,2.7863e-05,0
0.219,2.8534e-05,0
0.2195,2.9374e-05,0
0.22,2.7695e-05,0
0.2205,2.4506e-05,0
0.221,2.2324e-05,0
0.2215,1.6953e-05,0
0.222,1.1917e-05,0
0.2225,1.1749e-05,0
0.223,1.2589e-05,0
0.2235,1.0407e-05,0
0.224,7.2175e-06,0
0.2245,2.5177e-06,0
0.225,-3.5248e-06,0
0.2255,-7.5532e-06,0
0.226,-8.3925e-06,0
0.2265,-9.3996e-06,0
0.227,-9.2317e-06,0
0.2275,-5.8747e-06,0
0.228,-1.8463e-06,0
0.2285,-3.357e-07,0
0.229,-1.3428e-06,0
0.2295,1.0071e-06,0
0.23,5.2033e-06,0
0.2305,5.0355e-06,0
0.231,3.6927e-06,0
0.2315,6.5461e-06,0
0.232,1.1246e-05,0
0.2325,1.4939e-05,0
0.233,1.5442e-05,0
0.2335,1.3596e-05,0
0.234,1.3764e-05,0
0.2345,1.6449e-05,0
0.235,2.0142e-05,0
0.2355,2.1988e-05,0
0.236,2.3331e-05,0
0.2365,2.4338e-05,0
0.237,2.4674e-05,0
0.2375,2.4002e-05,0
0.238,2.4506e-05,0
0.2385,2.5345e-05,0
0.239,2.6184e-05,0
0.2395,2.7192e-05,0
0.24,2.6688e-05,0
0.2405,2.7359e-05,0
0.241,3.0045e-05,0
0.2415,3.0549e-05,0
0.242,2.7695e-05,0
0.2425,2.4674e-05,0
0.243,2.3667e-05,0
0.2435,2.5177e-05,0
0.244,2.5345e-05,0
0.2445,2.3499e-05,0
0.245,1.9638e-05,0
0.2455,1.7624e-05,0
0.246,1.7288e-05,0
0.2465,1.6953e-05,0
0.247,1.7121e-05,0
0.2475,1.6785e-05,0
0.248,1.5946e-05,0
0.2485,1.6953e-05,0
0.249,1.7624e-05,0
0.2495,1.9974e-05,0
0.25,2.182e-05,0
0.2505,2.1988e-05,0
0.251,2.1988e-05,0
0.2515,2.0981e-05,0
0.252,1.9638e-05,0
0.2525,1.8631e-05,0
0.253,1.8631e-05,0
0.2535,1.8296e-05,0
0.254,1.9638e-05,0
0.2545,2.1317e-05,0
0.255,2.0981e-05,0
0.2555,1.796e-05,0
0.256,1.5946e-05,0
0.2565,1.7792e-05,0
0.257,2.0981e-05,0
0.2575,2.2995e-05,0
0.258,2.4506e-05,0
0.2585,2.4674e-05,0
0.259,2.7024e-05,0
0.2595,3.0884e-05,0
0.26,3.2059e-05,0
0.2605,3.0045e-05,0
0.261,2.7527e-05,0
0.2615,2.652e-05,0
0.262,2.7024e-05,0
0.2625,2.7695e-05,0
0.263,2.6688e-05,0
0.2635,2.5009e-05,0
0.264,2.2492e-05,0
0.2645,1.9806e-05,0
0.265,1.7624e-05,0
0.2655,1.5274e-05,0
0.266,1.2924e-05,0
0.2665,1.1917e-05,0
0.267,1.4603e-05,0
0.2675,1.7624e-05,0
0.268,1.796e-05,0
0.2685,1.6953e-05,0
0.269,1.6617e-05,0
0.2695,1.8631e-05,0
0.27,2.2156e-05,0
0.2705,2.4842e-05,0
0.271,2.5681e-05,0
0.2715,2.4674e-05,0
0.272,2.266e-05,0
0.2725,1.9638e-05,0
0.273,1.6281e-05,0
0.2735,1.4099e-05,0
0.274,1.3428e-05,0
0.2745,9.9031e-06,0
0.275,5.8747e-06,0
0.2755,5.0355e-06,0
0.276,4.8676e-06,0
0.2765,6.2104e-06,0
0.277,9.3996e-06,0
0.2775,1.2924e-05,0
0.278,1.4939e-05,0
0.2785,1.8463e-05,0
0.279,2.1317e-05,0
0.2795,1.9974e-05,0
0.28,1.9974e-05,0
0.2805,2.2995e-05,0
0.281,2.4674e-05,0
0.2815,2.6352e-05,0
0.282,2.6688e-05,0
0.2825,2.6017e-05,0
0.283,2.5681e-05,0
0.2835,2.266e-05,0
0.284,1.8967e-05,0
0.2845,1.8296e-05,0
0.285,1.8967e-05,0
0.2855,1.8296e-05,0
0.286,1.796e-05,0
0.2865,2.0142e-05,0
0.287,2.266e-05,0
0.2875,2.2156e-05,0
0.288,2.0981e-05,0
0.2885,2.1317e-05,0
0.289,2.2324e-05,0
0.2895,2.266e-05,0
0.29,2.0981e-05,0
0.2905,1.8631e-05,0
0.291,1.9806e-05,0
0.2915,2.1317e-05,0
0.292,2.0646e-05,0
0.2925,2.031e-05,0
0.293,1.9135e-05,0
0.2935,1.5274e-05,0
0.294,8.5603e-06,0
0.2945,1.3428e-06,0
0.295,-3.5248e-06,0
0.2955,-3.8605e-06,0
0.296,1.678e-07,0
0.2965,2.182e-06,0
0.297,2.3499e-06,0
0.2975,5.0355e-06,0
0.298,8.5603e-06,0
0.2985,1.1078e-05,0
0.299,1.5106e-05,0
0.2995,1.5946e-05,0
0.3,1.4435e-05,0
0.3005,1.561e-05,0
0.301,2.0981e-05,0
0.3015,2.7359e-05,0
0.302,2.9038e-05,0
0.3025,2.7695e-05,0
0.303,2.5849e-05,0
0.3035,2.4674e-05,0
0.304,2.5009e-05,0
0.3045,2.5849e-05,0
0.305,2.3835e-05,0
0.3055,1.9638e-05,0
0.306,1.947e-05,0
0.3065,2.0646e-05,0
0.307,2.0142e-05,0
0.3075,1.9135e-05,0
0.308,1.9303e-05,0
0.3085,2.1149e-05,0
0.309,2.0646e-05,0
0.3095,1.5106e-05,0
0.31,1.0071e-05,0
0.3105,9.0639e-06,0
0.311,1.4267e-05,0
0.3115,1.9135e-05,0
0.312,1.7624e-05,0
0.3125,1.2924e-05,0
0.313,1.1582e-05,0
0.3135,1.1414e-05,0
0.314,7.8889e-06,0
0.3145,6.8818e-06,0
0.315,9.2317e-06,0
0.3155,9.5674e-06,0
0.316,7.8889e-06,0
0.3165,1.0071e-05,0
0.317,1.796e-05,0
0.3175,2.266e-05,0
0.318,2.0981e-05,0
0.3185,1.6785e-05,0
0.319,1.6281e-05,0
0.3195,1.8967e-05,0
0.32,2.2995e-05,0
0.3205,2.4674e-05,0
0.321,2.4002e-05,0
0.3215,2.3331e-05,0
0.322,2.2995e-05,0
0.3225,2.2156e-05,0
0.323,1.9303e-05,0
0.3235,1.5946e-05,0
0.324,1.2757e-05,0
0.3245,1.1246e-05,0
0.325,1.0407e-05,0
0.3255,1.0575e-05,0
0.326,1.326e-05,0
0.3265,1.7121e-05,0
0.327,1.7624e-05,0
0.3275,1.5946e-05,0
0.328,1.4603e-05,0
0.3285,1.5778e-05,0
0.329,2.2324e-05,0
0.3295,2.8367e-05,0
0.33,3.2059e-05,0
0.3305,3.3906e-05,0
0.331,3.4577e-05,0
0.3315,3.6423e-05,0
0.332,3.7095e-05,0
0.3325,3.5416e-05,0
0.333,3.2059e-05,0
0.3335,2.7695e-05,0
0.334,2.5009e-05,0
0.3345,2.4506e-05,0
0.335,2.6017e-05,0
0.3355,2.8534e-05,0
0.336,2.9038e-05,0
0.3365,2.7695e-05,0
0.337,2.6352e-05,0
0.3375,2.652e-05,0
0.338,2.7863e-05,0
0.3385,2.9038e-05,0
0.339,2.8702e-05,0
0.3395,2.7359e-05,0
0.34,2.8702e-05,0
0.3405,3.2059e-05,0
0.341,3.6591e-05,0
0.3415,4.0452e-05,0
0.342,4.213e-05,0
0.3425,4.2802e-05,0
0.343,4.5319e-05,0
0.3435,4.7333e-05,0
0.344,4.5151e-05,0
0.3445,4.0116e-05,0
0.345,3.6423e-05,0
0.3455,3.4073e-05,0
0.346,2.9877e-05,0
0.3465,2.6688e-05,0
0.347,2.5681e-05,0
0.3475,2.3499e-05,0
0.348,2.1317e-05,0
0.3485,1.9303e-05,0
0.349,1.5946e-05,0
0.3495,1.091e-05,0
0.35,7.8889e-06,0
0.3505,5.8747e-06,0
0.351,3.1891e-06,0
0.3515,1.3428e-06,0
0.352,3.5248e-06,0
0.3525,6.8818e-06,0
0.353,7.5532e-06,0
0.3535,7.5532e-06,0
0.354,7.8889e-06,0
0.3545,9.2317e-06,0
0.355,1.1582e-05,0
0.3555,1.0239e-05,0
0.356,8.2246e-06,0
0.3565,8.7282e-06,0
0.357,1.1582e-05,0
0.3575,1.4435e-05,0
0.358,1.7624e-05,0
0.3585,2.1149e-05,0
0.359,2.3667e-05,0
0.3595,2.2995e-05,0
0.36,1.9806e-05,0
0.3605,1.8463e-05,0
0.361,1.947e-05,0
0.3615,2.0478e-05,0
0.362,2.2995e-05,0
0.3625,2.5345e-05,0
0.363,2.5009e-05,0
0.3635,2.5849e-05,0
0.364,2.8031e-05,0
0.3645,2.7863e-05,0
0.365,2.7024e-05,0
0.3655,2.6688e-05,0
0.366,2.6688e-05,0
0.3665,2.8031e-05,0
0.367,2.9709e-05,0
0.3675,3.0045e-05,0
0.368,2.7527e-05,0
0.3685,2.5177e-05,0
0.369,2.4506e-05,0
0.3695,2.6688e-05,0
0.37,2.8031e-05,0
0.3705,2.652e-05,0
0.371,2.2156e-05,0
0.3715,1.5778e-05,0
0.372,1.2924e-05,0
0.3725,1.5778e-05,0
0.373,1.6953e-05,0
0.3735,1.5946e-05,0
0.374,1.3932e-05,0
0.3745,9.9031e-06,0
0.375,6.0426e-06,0
0.3755,4.8676e-06,0
0.376,4.5319e-06,0
0.3765,4.1962e-06,0
0.377,1.8463e-06,0
0.3775,-4.1962e-06,0
0.378,-7.5532e-06,0
0.3785,-4.8676e-06,0
0.379,-5.035e-07,0
0.3795,1.8463e-06,0
0.38,2.5177e-06,0
0.3805,1.8463e-06,0
0.381,-1.1749e-06,0
0.3815,-3.357e-06,0
0.382,-2.8534e-06,0
0.3825,-6.714e-07,0
0.383,8.392e-07,0
0.3835,3.8605e-06,0
0.384,9.2317e-06,0
0.3845,1.6281e-05,0
0.385,1.9303e-05,0
0.3855,2.0813e-05,0
0.386,2.5009e-05,0
0.3865,2.6017e-05,0
0.387,2.4338e-05,0
0.3875,2.4338e-05,0
0.388,2.7359e-05,0
0.3885,3.1388e-05,0
0.389,3.1724e-05,0
0.3895,2.9709e-05,0
0.39,2.7359e-05,0
0.3905,2.5009e-05,0
0.391,2.0813e-05,0
0.3915,1.796e-05,0
0.392,1.6953e-05,0
0.3925,1.6617e-05,0
0.393,1.7288e-05,0
0.3935,1.8296e-05,0
0.394,1.796e-05,0
0.3945,1.561e-05,0
0.395,1.5442e-05,0
0.3955,1.8799e-05,0
0.396,2.2324e-05,0
0.3965,2.5345e-05,0
0.397,2.8534e-05,0
0.3975,3.3066e-05,0
0.398,3.5416e-05,0
0.3985,3.6759e-05,0
0.399,4.0116e-05,0
0.3995,4.1123e-05,0
0.4,3.7766e-05,0
0.4005,3.3066e-05,0
0.401,3.0213e-05,0
0.4015,2.8367e-05,0
0.402,3.0045e-05,0
0.4025,3.1724e-05,0
0.403,3.2059e-05,0
0.4035,3.1724e-05,0
0.404,3.1388e-05,0
0.4045,3.0045e-05,0
0.405,2.8702e-05,0
0.4055,3.1388e-05,0
0.406,3.2898e-05,0
0.4065,3.1388e-05,0
0.407,2.9206e-05,0
0.4075,2.4842e-05,0
0.408,2.3667e-05,0
0.4085,2.6184e-05,0
0.409,2.652e-05,0
0.4095,2.266e-05,0
0.41,1.9974e-05,0
0.4105,2.0478e-05,0
0.411,2.0646e-05,0
0.4115,1.8631e-05,0
0.412,1.4603e-05,0
0.4125,1.091e-05,0
0.413,8.5603e-06,0
0.4135,8.3925e-06,0
0.414,7.5532e-06,0
0.4145,5.0355e-06,0
0.415,2.3499e-06,0
0.4155,-1.0071e-06,0
0.416,-1.5106e-06,0
0.4165,-1.5106e-06,0
0.417,-6.714e-07,0
0.4175,5.035e-07,0
0.418,-2.182e-06,0
0.4185,-5.8747e-06,0
0.419,-6.8818e-06,0
0.4195,-4.8676e-06,0
0.42,0,0
0.4205,4.8676e-06,0
0.421,9.5674e-06,0
0.4215,1.326e-05,0
0.422,1.5274e-05,0
0.4225,1.5106e-05,0
0.423,1.8967e-05,0
0.4235,2.4002e-05,0
0.424,2.4002e-05,0
0.4245,2.031e-05,0
0.425,1.7792e-05,0
0.4255,1.8631e-05,0
0.426,2.182e-05,0
0.4265,2.5345e-05,0
0.427,2.5345e-05,0
0.4275,2.2995e-05,0
0.428,2.2324e-05,0
0.4285,2.4338e-05,0
0.429,2.4002e-05,0
0.4295,2.3331e-05,0
0.43,2.3835e-05,0
0.4305,2.2995e-05,0
0.431,1.9303e-05,0
0.4315,1.7456e-05,0
0.432,1.9303e-05,0
0.4325,2.031e-05,0
0.433,1.9303e-05,0
0.4335,1.6617e-05,0
0.434,1.7624e-05,0
0.4345,1.796e-05,0
0.435,1.2589e-05,0
0.4355,6.714e-06,0
0.436,6.8818e-06,0
0.4365,9.5674e-06,0
0.437,1.2589e-05,0
0.4375,1.5274e-05,0
0.438,1.7456e-05,0
0.4385,1.8967e-05,0
0.439,2.0813e-05,0
0.4395,2.0981e-05,0
0.44,1.6617e-05,0
0.4405,1.2421e-05,0
0.441,1.326e-05,0
0.4415,1.4099e-05,0
0.442,1.3596e-05,0
0.4425,1.3092e-05,0
0.443,1.326e-05,0
0.4435,1.3932e-05,0
0.444,1.2924e-05,0
0.4445,1.1749e-05,0
0.445,1.0575e-05,0
0.4455,1.0575e-05,0
0.446,1.0239e-05,0
0.4465,7.8889e-06,0
0.447,6.5461e-06,0
0.4475,6.3783e-06,0
0.448,5.8747e-06,0
0.4485,9.2317e-06,0
0.449,1.5778e-05,0
0.4495,2.0981e-05,0
0.45,2.3331e-05,0
0.4505,2.4002e-05,0
0.451,2.5345e-05,0
0.4515,3.0549e-05,0
0.452,3.3402e-05,0
0.4525,3.2731e-05,0
0.453,3.4073e-05,0
0.4535,3.7262e-05,0
0.454,3.9445e-05,0
0.4545,3.9948e-05,0
0.455,3.9445e-05,0
0.4555,4.0116e-05,0
0.456,4.213e-05,0
0.4565,4.1795e-05,0
0.457,3.743e-05,0
0.4575,3.2731e-05,0
0.458,2.7863e-05,0
0.4585,2.4002e-05,0
0.459,2.5009e-05,0
0.4595,2.4002e-05,0
0.46,1.9974e-05,0
0.4605,1.7624e-05,0
0.461,1.8296e-05,0
0.4615,2.2324e-05,0
0.462,2.7024e-05,0
0.4625,2.9206e-05,0
0.463,2.6688e-05,0
0.4635,2.5681e-05,0
0.464,2.6017e-05,0
0.4645,2.6688e-05,0
0.465,2.8031e-05,0
0.4655,3.1052e-05,0
0.466,3.3906e-05,0
0.4665,3.3066e-05,0
0.467,3.0045e-05,0
0.4675,3.0045e-05,0
0.468,3.1724e-05,0
0.4685,3.122e-05,0
0.469,2.9374e-05,0
0.4695,2.6688e-05,0
0.47,2.5681e-05,0
0.4705,2.6017e-05,0
0.471,2.3667e-05,0
0.4715,2.0981e-05,0
0.472,2.031e-05,0
0.4725,1.8967e-05,0
0.473,1.8296e-05,0
0.4735,2.0813e-05,0
0.474,2.4002e-05,0
0.4745,2.8367e-05,0
0.475,3.2059e-05,0
0.4755,3.1388e-05,0
0.476,2.5681e-05,0
0.4765,1.9638e-05,0
0.477,1.5946e-05,0
0.4775,1.5778e-05,0
0.478,1.5946e-05,0
0.4785,1.6953e-05,0
0.479,1.6281e-05,0
0.4795,1.4267e-05,0
0.48,1.1917e-05,0
0.4805,1.2421e-05,0
0.481,1.5274e-05,0
0.4815,1.6449e-05,0
0.482,1.5946e-05,0
0.4825,1.4939e-05,0
0.483,1.561e-05,0
0.4835,1.9303e-05,0
0.484,2.182e-05,0
0.4845,1.9974e-05,0
0.485,1.6449e-05,0
0.4855,1.561e-05,0
0.486,1.3596e-05,0
0.4865,9.0639e-06,0
0.487,3.6927e-06,0
0.4875,2.5177e-06,0
0.488,2.8534e-06,0
0.4885,3.5248e-06,0
0.489,3.1891e-06,0
0.4895,1.6785e-06,0
0.49,1.8463e-06,0
0.4905,3.1891e-06,0
0.491,2.8534e-06,0
0.4915,2.5177e-06,0
0.492,6.0426e-06,0
0.4925,1.1917e-05,0
0.493,1.5442e-05,0
0.4935,1.7624e-05,0
0.494,1.8631e-05,0
0.4945,1.947e-05,0
0.495,2.1653e-05,0
0.4955,2.0981e-05,0
0.496,1.7792e-05,0
0.4965,1.5946e-05,0
0.497,1.4771e-05,0
0.4975,1.5274e-05,0
0.498,1.6953e-05,0
0.4985,1.7792e-05,0
0.499,1.7624e-05,0
0.4995,1.6617e-05,0
0.5,1.6953e-05,0
0.5005,1.8631e-05,0
0.501,2.1317e-05,0
0.5015,2.266e-05,0
0.502,2.1988e-05,0
0.5025,2.2492e-05,0
0.503,2.1988e-05,0
0.5035,1.9638e-05,0
0.504,1.7288e-05,0
0.5045,1.5946e-05,0
0.505,1.6953e-05,0
0.5055,1.7624e-05,0
0.506,1.796e-05,0
0.5065,1.9638e-05,0
0.507,2.1653e-05,0
0.5075,2.4674e-05,0
0.508,2.7359e-05,0
0.5085,2.9374e-05,0
0.509,3.1388e-05,0
0.5095,3.4073e-05,0
0.51,3.4409e-05,0
0.5105,3.508e-05,0
0.511,3.6927e-05,0
0.5115,3.8437e-05,0
0.512,3.7934e-05,0
0.5125,3.743e-05,0
0.513,3.6591e-05,0
0.5135,3.6927e-05,0
0.514,3.9445e-05,0
0.5145,4.0452e-05,0
0.515,4.0619e-05,0
0.5155,3.9612e-05,0
0.516,3.8102e-05,0
0.5165,3.7095e-05,0
0.517,3.743e-05,0
0.5175,3.7095e-05,0
0.518,3.3738e-05,0
0.5185,2.9038e-05,0
0.519,2.6352e-05,0
0.5195,2.3667e-05,0
0.52,1.9974e-05,0
0.5205,1.8631e-05,0
0.521,1.9974e-05,0
0.5215,2.1653e-05,0
0.522,2.3331e-05,0
0.5225,2.3331e-05,0
0.523,2.0981e-05,0
0.5235,1.796e-05,0
0.524,1.5946e-05,0
0.5245,1.7121e-05,0
0.525,1.7624e-05,0
0.5255,1.8463e-05,0
0.526,1.796e-05,0
0.5265,1.7288e-05,0
0.527,1.947e-05,0
0.5275,2.2492e-05,0
0.528,2.4338e-05,0
0.5285,2.5849e-05,0
0.529,2.7192e-05,0
0.5295,2.7527e-05,0
0.53,2.6184e-05,0
0.5305,2.4674e-05,0
0.531,2.2156e-05,0
0.5315,1.8967e-05,0
0.532,1.561e-05,0
0.5325,1.326e-05,0
0.533,1.3092e-05,0
0.5335,1.2085e-05,0
0.534,1.1246e-05,0
0.5345,8.2246e-06,0
0.535,3.1891e-06,0
0.5355,1.5106e-06,0
0.536,2.3499e-06,0
0.5365,2.8534e-06,0
0.537,4.3641e-06,0
0.5375,2.8534e-06,0
0.538,-2.182e-06,0
0.5385,-5.539e-06,0
0.539,-2.182e-06,0
0.5395,1.8463e-06,0
0.54,1.1749e-06,0
0.5405,-1.5106e-06,0
0.541,-2.182e-06,0
0.5415,-3.357e-07,0
0.542,1.5106e-06,0
0.5425,2.5177e-06,0
0.543,1.6785e-06,0
0.5435,-1.1749e-06,0
0.544,-3.357e-06,0
0.5445,-1.6785e-06,0
0.545,-8.392e-07,0
0.5455,-1.8463e-06,0
0.546,-3.1891e-06,0
0.5465,-2.5177e-06,0
0.547,-3.1891e-06,0
0.5475,-6.3783e-06,0
0.548,-6.714e-06,0
0.5485,-4.6998e-06,0
0.549,-3.1891e-06,0
0.5495,-6.714e-07,0
0.55,2.5177e-06,0
0.5505,4.6998e-06,0
0.551,4.1962e-06,0
0.5515,4.3641e-06,0
0.552,3.5248e-06,0
0.5525,2.8534e-06,0
0.553,4.8676e-06,0
0.5535,9.5674e-06,0
0.554,1.2924e-05,0
0.5545,1.5274e-05,0
0.555,1.8967e-05,0
0.5555,2.1317e-05,0
0.556,2.266e-05,0
0.5565,2.4002e-05,0
0.557,2.5009e-05,0
0.5575,2.5513e-05,0
0.558,2.8367e-05,0
0.5585,3.2731e-05,0
0.559,3.592e-05,0
0.5595,3.4745e-05,0
0.56,3.3738e-05,0
0.5605,3.3402e-05,0
0.561,3.1724e-05,0
0.5615,3.0716e-05,0
0.562,2.9542e-05,0
0.5625,2.9038e-05,0
0.563,2.9374e-05,0
0.5635,3.0045e-05,0
0.564,3.2059e-05,0
0.5645,3.3738e-05,0
0.565,3.2059e-05,0
0.5655,3.0381e-05,0
0.566,3.1724e-05,0
0.5665,3.3906e-05,0
0.567,3.5416e-05,0
0.5675,3.4073e-05,0
0.568,3.2731e-05,0
0.5685,3.3066e-05,0
0.569,3.1724e-05,0
0.5695,2.7359e-05,0
0.57,2.2995e-05,0
0.5705,2.0981e-05,0
0.571,1.8631e-05,0
0.5715,1.5274e-05,0
0.572,1.2589e-05,0
0.5725,1.3596e-05,0
0.573,1.4435e-05,0
0.5735,1.2924e-05,0
0.574,1.561e-05,0
0.5745,2.1317e-05,0
0.575,2.5345e-05,0
0.5755,2.5345e-05,0
0.576,2.6184e-05,0
0.5765,2.9374e-05,0
0.577,3.2059e-05,0
0.5775,3.1052e-05,0
0.578,2.7192e-05,0
0.5785,2.6017e-05,0
0.579,2.7863e-05,0
0.5795,2.9542e-05,0
0.58,3.0045e-05,0
0.5805,3.122e-05,0
0.581,3.2059e-05,0
0.5815,3.1724e-05,0
0.582,2.8031e-05,0
0.5825,2.1988e-05,0
0.583,1.8463e-05,0
0.5835,1.796e-05,0
0.584,1.9303e-05,0
0.5845,1.947e-05,0
0.585,1.8799e-05,0
0.5855,2.0646e-05,0
0.586,2.4002e-05,0
0.5865,2.6352e-05,0
0.587,3.0716e-05,0
0.5875,3.592e-05,0
0.588,3.6759e-05,0
0.5885,3.4745e-05,0
0.589,3.3402e-05,0
0.5895,3.3234e-05,0
0.59,3.4577e-05,0
0.5905,3.4745e-05,0
0.591,3.1052e-05,0
0.5915,2.6688e-05,0
0.592,2.8199e-05,0
0.5925,3.3066e-05,0
0.593,3.6927e-05,0
0.5935,3.6088e-05,0
0.594,3.1724e-05,0
0.5945,2.6184e-05,0
0.595,2.1317e-05,0
0.5955,1.7288e-05,0
0.596,1.4099e-05,0
0.5965,1.3092e-05,0
0.597,1.4771e-05,0
0.5975,2.1317e-05,0
0.598,2.887e-05,0
0.5985,3.2731e-05,0
0.599,3.122e-05,0
0.5995,3.0549e-05,0
0.6,3.0549e-05,0
0.6005,2.9374e-05,0
0.601,2.6688e-05,0
0.6015,2.4674e-05,0
0.602,2.3331e-05,0
0.6025,2.0646e-05,0
0.603,1.6953e-05,0
0.6035,1.5946e-05,0
0.604,1.4939e-05,0
0.6045,1.5106e-05,0
0.605,1.5274e-05,0
0.6055,1.4603e-05,0
0.606,1.1917e-05,0
0.6065,8.5603e-06,0
0.607,8.2246e-06,0
0.6075,9.2317e-06,0
0.608,1.1917e-05,0
0.6085,1.3764e-05,0
0.609,1.2589e-05,0
0.6095,1.0239e-05,0
0.61,5.2033e-06,0
0.6105,-8.392e-07,0
0.611,-4.3641e-06,0
0.6115,-5.539e-06,0
0.612,-6.5461e-06,0
0.6125,-9.0639e-06,0
0.613,-1.091e-05,0
0.6135,-8.5603e-06,0
0.614,-4.8676e-06,0
0.6145,-2.5177e-06,0
0.615,-2.6856e-06,0
0.6155,-3.1891e-06,0
0.616,-1.1749e-06,0
0.6165,5.3712e-06,0
0.617,9.7353e-06,0
0.6175,1.1246e-05,0
0.618,1.1078e-05,0
0.6185,1.4435e-05,0
0.619,1.8463e-05,0
0.6195,1.8296e-05,0
0.62,1.3596e-05,0
0.6205,8.7282e-06,0
0.621,5.539e-06,0
0.6215,6.2104e-06,0
0.622,6.2104e-06,0
0.6225,6.3783e-06,0
0.623,8.3925e-06,0
0.6235,1.2085e-05,0
0.624,1.5274e-05,0
0.6245,1.6281e-05,0
0.625,1.5946e-05,0
0.6255,1.4603e-05,0
0.626,1.3764e-05,0
0.6265,1.4267e-05,0
0.627,1.561e-05,0
0.6275,1.8967e-05,0
0.628,2.2995e-05,0
0.6285,2.3667e-05,0
0.629,2.0813e-05,0
0.6295,1.9638e-05,0
0.63,2.1317e-05,0
0.6305,2.3163e-05,0
0.631,2.3667e-05,0
0.6315,2.2324e-05,0
0.632,2.1317e-05,0
0.6325,1.9638e-05,0
0.633,1.7288e-05,0
0.6335,1.6281e-05,0
0.634,1.9135e-05,0
0.6345,2.182e-05,0
0.635,2.2492e-05,0
0.6355,2.2324e-05,0
0.636,2.1988e-05,0
0.6365,2.1149e-05,0
0.637,1.8631e-05,0
0.6375,1.6953e-05,0
0.638,1.5274e-05,0
0.6385,1.3764e-05,0
0.639,1.3428e-05,0
0.6395,1.4099e-05,0
0.64,1.4603e-05,0
0.6405,1.7624e-05,0
0.641,2.182e-05,0
0.6415,2.182e-05,0
0.642,1.796e-05,0
0.6425,1.5946e-05,0
0.643,1.4603e-05,0
0.6435,1.5442e-05,0
0.644,1.7288e-05,0
0.6445,1.9638e-05,0
0.645,2.031e-05,0
0.6455,1.6953e-05,0
0.646,1.3764e-05,0
0.6465,1.3596e-05,0
0.647,1.2253e-05,0
0.6475,1.1246e-05,0
0.648,1.2253e-05,0
0.6485,1.4603e-05,0
0.649,1.8296e-05,0
0.6495,2.2324e-05,0
0.65,2.5345e-05,0
0.6505,2.7863e-05,0
0.651,2.9206e-05,0
0.6515,2.9374e-05,0
0.652,3.0716e-05,0
0.6525,2.9877e-05,0
0.653,2.5681e-05,0
0.6535,2.182e-05,0
0.654,2.2995e-05,0
0.6545,2.7024e-05,0
0.655,2.8031e-05,0
0.6555,2.8367e-05,0
0.656,2.7527e-05,0
0.6565,2.5345e-05,0
0.657,2.4674e-05,0
0.6575,2.5681e-05,0
0.658,2.9038e-05,0
0.6585,3.2731e-05,0
0.659,3.508e-05,0
0.6595,3.6423e-05,0
0.66,3.7262e-05,0
0.6605,3.7095e-05,0
0.661,3.5416e-05,0
0.6615,3.3402e-05,0
0.662,3.122e-05,0
0.6625,3.0381e-05,0
0.663,3.0213e-05,0
0.6635,2.7359e-05,0
0.664,2.4842e-05,0
0.6645,2.0981e-05,0
0.665,1.5778e-05,0
0.6655,1.2924e-05,0
0.666,1.326e-05,0
0.6665,1.2757e-05,0
0.667,1.091e-05,0
0.6675,9.9031e-06,0
0.668,1.1582e-05,0
0.6685,1.3596e-05,0
0.669,1.3596e-05,0
0.6695,1.326e-05,0
0.67,1.3092e-05,0
0.6705,1.3596e-05,0
0.671,1.6281e-05,0
0.6715,1.7121e-05,0
0.672,1.5946e-05,0
0.6725,1.7121e-05,0
0.673,2.1317e-05,0
0.6735,2.652e-05,0
0.674,3.2059e-05,0
0.6745,3.508e-05,0
0.675,3.5752e-05,0
0.6755,3.4577e-05,0
0.676,3.1052e-05,0
0.6765,2.9374e-05,0
0.677,3.2059e-05,0
0.6775,3.3906e-05,0
0.678,3.5416e-05,0
0.6785,3.7766e-05,0
0.679,3.9109e-05,0
0.6795,3.978e-05,0
0.68,4.1962e-05,0
0.6805,4.2802e-05,0
0.681,4.0619e-05,0
0.6815,3.6759e-05,0
0.682,3.2395e-05,0
0.6825,2.9374e-05,0
0.683,2.7192e-05,0
0.6835,2.4002e-05,0
0.684,2.0981e-05,0
0.6845,1.8631e-05,0
0.685,1.5778e-05,0
0.6855,1.2589e-05,0
0.686,1.1749e-05,0
0.6865,1.1582e-05,0
0.687,9.9031e-06,0
0.6875,5.8747e-06,0
0.688,2.0142e-06,0
0.6885,1.1749e-06,0
0.689,6.714e-07,0
0.6895,1.5106e-06,0
0.69,4.5319e-06,0
0.6905,9.2317e-06,0
0.691,1.6281e-05,0
0.6915,2.0981e-05,0
0.692,1.8296e-05,0
0.6925,1.3596e-05,0
0.693,1.2253e-05,0
0.6935,1.1078e-05,0
0.694,8.3925e-06,0
0.6945,4.5319e-06,0
0.695,3.357e-07,0
0.6955,-2.8534e-06,0
0.696,-3.8605e-06,0
0.6965,-5.0355e-06,0
0.697,-5.539e-06,0
0.6975,-4.1962e-06,0
0.698,-2.182e-06,0
0.6985,-1.1749e-06,0
0.699,-1.0071e-06,0
0.6995,0,0
0.7,1.5106e-06,0
0.7005,2.182e-06,0
0.701,3.6927e-06,0
0.7015,6.5461e-06,0
0.702,9.2317e-06,0
0.7025,1.1078e-05,0
0.703,1.1078e-05,0
0.7035,1.2253e-05,0
0.704,1.6617e-05,0
0.7045,2.1988e-05,0
0.705,2.6017e-05,0
0.7055,2.9374e-05,0
0.706,3.2731e-05,0
0.7065,3.4409e-05,0
0.707,3.508e-05,0
0.7075,3.5416e-05,0
0.708,3.4745e-05,0
0.7085,3.6088e-05,0
0.709,3.743e-05,0
0.7095,3.743e-05,0
0.71,3.8773e-05,0
0.7105,4.2802e-05,0
0.711,4.3473e-05,0
0.7115,4.0452e-05,0
0.712,4.0619e-05,0
0.7125,4.3473e-05,0
0.713,4.2634e-05,0
0.7135,3.743e-05,0
0.714,3.4073e-05,0
0.7145,3.3738e-05,0
0.715,3.4745e-05,0
0.7155,3.5248e-05,0
0.716,3.3738e-05,0
0.7165,3.0045e-05,0
0.717,2.9206e-05,0
0.7175,3.2059e-05,0
0.718,3.4073e-05,0
0.7185,3.4073e-05,0
0.719,3.508e-05,0
0.7195,3.508e-05,0
0.72,3.3738e-05,0
0.7205,3.122e-05,0
0.721,2.4002e-05,0
0.7215,1.8631e-05,0
0.722,1.6281e-05,0
0.7225,1.2924e-05,0
0.723,7.2175e-06,0
0.7235,1.6785e-06,0
0.724,-2.3499e-06,0
0.7245,-3.0213e-06,0
0.725,-2.5177e-06,0
0.7255,-1.5106e-06,0
0.726,1.1749e-06,0
0.7265,4.8676e-06,0
0.727,6.2104e-06,0
0.7275,3.8605e-06,0
0.728,2.5177e-06,0
0.7285,4.1962e-06,0
0.729,5.2033e-06,0
0.7295,4.8676e-06,0
0.73,3.5248e-06,0
0.7305,6.2104e-06,0
0.731,1.4603e-05,0
0.7315,2.1988e-05,0
0.732,2.5009e-05,0
0.7325,2.2995e-05,0
0.733,2.0981e-05,0
0.7335,2.1988e-05,0
0.734,2.1317e-05,0
0.7345,1.9135e-05,0
0.735,1.9974e-05,0
0.7355,2.4506e-05,0
0.736,2.7359e-05,0
0.7365,2.8031e-05,0
0.737,3.1052e-05,0
0.7375,3.4409e-05,0
0.738,3.592e-05,0
0.7385,3.6088e-05,0
0.739,3.6423e-05,0
0.7395,3.7766e-05,0
0.74,3.9109e-05,0
0.7405,3.8102e-05,0
0.741,3.508e-05,0
0.7415,3.3738e-05,0
0.742,3.2898e-05,0
0.7425,2.9877e-05,0
0.743,2.5345e-05,0
0.7435,2.1317e-05,0
0.744,2.031e-05,0
0.7445,2.0813e-05,0
0.745,2.0981e-05,0
0.7455,2.1988e-05,0
0.746,2.1317e-05,0
0.7465,1.7624e-05,0
0.747,1.3932e-05,0
0.7475,1.3596e-05,0
0.748,1.3932e-05,0
0.7485,1.2924e-05,0
0.749,1.2757e-05,0
0.7495,1.3932e-05,0
0.75,1.4603e-05,0
0.7505,1.4939e-05,0
0.751,1.5778e-05,0
0.7515,1.7288e-05,0
0.752,1.8631e-05,0
0.7525,1.6617e-05,0
0.753,1.1917e-05,0
0.7535,1.0071e-05,0
0.754,1.0575e-05,0
0.7545,1.3596e-05,0
0.755,1.6281e-05,0
0.7555,1.4603e-05,0
0.756,1.1917e-05,0
0.7565,1.2924e-05,0
0.757,1.3932e-05,0
0.7575,1.326e-05,0
0.758,1.2589e-05,0
0.7585,1.1582e-05,0
0.759,1.0575e-05,0
0.7595,1.0575e-05,0
0.76,8.5603e-06,0
0.7605,3.8605e-06,0
0.761,-6.714e-07,0
0.7615,-5.035e-07,0
0.762,1.5106e-06,0
0.7625,3.5248e-06,0
0.763,5.0355e-06,0
0.7635,8.3925e-06,0
0.764,1.1582e-05,0
0.7645,1.326e-05,0
0.765,1.4435e-05,0
0.7655,1.3932e-05,0
0.766,1.3764e-05,0
0.7665,1.3428e-05,0
0.767,1.326e-05,0
0.7675,1.5274e-05,0
0.768,1.7624e-05,0
0.7685,1.7288e-05,0
0.769,1.5106e-05,0
0.7695,1.326e-05,0
0.77,1.2421e-05,0
0.7705,1.5946e-05,0
0.771,2.0478e-05,0
0.7715,2.2492e-05,0
0.772,2.5345e-05,0
0.7725,2.8534e-05,0
0.773,2.9038e-05,0
0.7735,2.8702e-05,0
0.774,3.122e-05,0
0.7745,3.3066e-05,0
0.775,3.1556e-05,0
0.7755,2.8534e-05,0
0.776,2.5681e-05,0
0.7765,2.6688e-05,0
0.777,2.9709e-05,0
0.7775,3.2059e-05,0
0.778,3.2731e-05,0
0.7785,3.2395e-05,0
0.779,3.1724e-05,0
0.7795,2.8702e-05,0
0.78,2.5009e-05,0
0.7805,2.1317e-05,0
0.781,1.9638e-05,0
0.7815,1.8631e-05,0
0.782,1.7792e-05,0
0.7825,1.6449e-05,0
0.783,1.6281e-05,0
0.7835,1.796e-05,0
0.784,1.9974e-05,0
0.7845,2.1317e-05,0
0.785,2.182e-05,0
0.7855,2.1317e-05,0
0.786,1.8631e-05,0
0.7865,1.8631e-05,0
0.787,1.9135e-05,0
0.7875,1.8463e-05,0
0.788,1.8128e-05,0
0.7885,2.1317e-05,0
0.789,2.4842e-05,0
0.7895,2.6352e-05,0
0.79,2.8031e-05,0
0.7905,2.8031e-05,0
0.791,2.6688e-05,0
0.7915,2.652e-05,0
0.792,2.5345e-05,0
0.7925,2.3667e-05,0
0.793,2.2156e-05,0
0.7935,1.8631e-05,0
0.794,1.3932e-05,0
0.7945,9.7353e-06,0
0.795,8.2246e-06,0
0.7955,7.2175e-06,0
0.796,5.8747e-06,0
0.7965,5.7069e-06,0
0.797,5.539e-06,0
0.7975,5.8747e-06,0
0.798,9.3996e-06,0
0.7985,1.3596e-05,0
0.799,1.3932e-05,0
0.7995,1.3932e-05,0
0.8,1.8631e-05,0
0.8005,2.5345e-05,0
0.801,2.5345e-05,0
0.8015,2.2156e-05,0
0.802,1.9806e-05,0
0.8025,1.947e-05,0
0.803,2.1149e-05,0
0.8035,2.3835e-05,0
0.804,2.4002e-05,0
0.8045,2.182e-05,0
0.805,1.9135e-05,0
0.8055,1.947e-05,0
0.806,1.9974e-05,0
0.8065,1.8631e-05,0
0.807,1.8631e-05,0
0.8075,1.9806e-05,0
0.808,2.0813e-05,0
0.8085,2.2324e-05,0
0.809,2.3499e-05,0
0.8095,2.4002e-05,0
0.81,2.2995e-05,0
0.8105,2.031e-05,0
0.811,1.8967e-05,0
0.8115,2.0646e-05,0
0.812,2.266e-05,0
0.8125,2.4002e-05,0
0.813,2.5681e-05,0
0.8135,2.7024e-05,0
0.814,2.5177e-05,0
0.8145,2.3667e-05,0
0.815,2.2156e-05,0
0.8155,1.8967e-05,0
0.816,1.5106e-05,0
0.8165,1.1246e-05,0
0.817,9.7353e-06,0
0.8175,1.0575e-05,0
0.818,1.2589e-05,0
0.8185,1.3932e-05,0
0.819,1.4603e-05,0
0.8195,1.5778e-05,0
0.82,1.561e-05,0
0.8205,1.4435e-05,0
0.821,1.2924e-05,0
0.8215,1.091e-05,0
0.822,9.2317e-06,0
0.8225,9.9031e-06,0
0.823,1.2253e-05,0
0.8235,1.091e-05,0
0.824,6.5461e-06,0
0.8245,4.8676e-06,0
0.825,5.8747e-06,0
0.8255,8.7282e-06,0
0.826,1.2421e-05,0
0.8265,1.6617e-05,0
0.827,1.8631e-05,0
0.8275,1.9303e-05,0
0.828,1.9303e-05,0
0.8285,2.1317e-05,0
0.829,2.4002e-05,0
0.8295,2.4842e-05,0
0.83,2.182e-05,0
0.8305,1.9806e-05,0
0.831,2.1317e-05,0
0.8315,2.4338e-05,0
0.832,2.6352e-05,0
0.8325,2.4674e-05,0
0.833,2.2995e-05,0
0.8335,2.4002e-05,0
0.834,2.7863e-05,0
0.8345,3.2059e-05,0
0.835,3.3234e-05,0
0.8355,3.2059e-05,0
0.836,3.2059e-05,0
0.8365,3.2563e-05,0
0.837,3.1724e-05,0
0.8375,3.3402e-05,0
0.838,3.3738e-05,0
0.8385,3.1052e-05,0
0.839,2.7695e-05,0
0.8395,2.5345e-05,0
0.84,2.1988e-05,0
0.8405,2.0981e-05,0
0.841,2.3667e-05,0
0.8415,2.6688e-05,0
0.842,2.8367e-05,0
0.8425,2.8031e-05,0
0.843,2.7192e-05,0
0.8435,2.6688e-05,0
0.844,2.6184e-05,0
0.8445,2.4842e-05,0
0.845,2.5345e-05,0
0.8455,2.7024e-05,0
0.846,3.0549e-05,0
0.8465,3.3402e-05,0
0.847,3.3738e-05,0
0.8475,3.4913e-05,0
0.848,3.827e-05,0
0.8485,3.978e-05,0
0.849,3.5416e-05,0
0.8495,2.8702e-05,0
0.85,2.6688e-05,0
0.8505,2.7527e-05,0
0.851,2.7527e-05,0
0.8515,2.7359e-05,0
0.852,2.3835e-05,0
0.8525,1.8799e-05,0
0.853,1.5274e-05,0
0.8535,1.0407e-05,0
0.854,5.0355e-06,0
0.8545,1.6785e-06,0
0.855,2.182e-06,0
0.8555,4.8676e-06,0
0.856,7.0497e-06,0
0.8565,7.8889e-06,0
0.857,8.5603e-06,0
0.8575,1.0239e-05,0
0.858,1.1246e-05,0
0.8585,1.1246e-05,0
0.859,1.1917e-05,0
0.8595,1.3596e-05,0
0.86,1.2589e-05,0
0.8605,1.1246e-05,0
0.861,1.1078e-05,0
0.8615,1.0071e-05,0
0.862,9.9031e-06,0
0.8625,9.0639e-06,0
0.863,8.896e-06,0
0.8635,1.1078e-05,0
0.864,1.1917e-05,0
0.8645,1.326e-05,0
0.865,1.6617e-05,0
0.8655,1.5946e-05,0
0.866,1.1749e-05,0
0.8665,7.8889e-06,0
0.867,7.2175e-06,0
0.8675,6.3783e-06,0
0.868,5.8747e-06,0
0.8685,6.8818e-06,0
0.869,8.5603e-06,0
0.8695,1.2421e-05,0
0.87,1.6449e-05,0
0.8705,1.6617e-05,0
0.871,1.1246e-05,0
0.8715,6.8818e-06,0
0.872,6.5461e-06,0
0.8725,5.7069e-06,0
0.873,4.5319e-06,0
0.8735,6.8818e-06,0
0.874,1.091e-05,0
0.8745,1.2421e-05,0
0.875,1.1582e-05,0
0.8755,9.9031e-06,0
0.876,7.8889e-06,0
0.8765,4.8676e-06,0
0.877,3.5248e-06,0
0.8775,3.8605e-06,0
0.878,7.8889e-06,0
0.8785,1.1582e-05,0
0.879,1.4603e-05,0
0.8795,1.6953e-05,0
0.88,1.8967e-05,0
0.8805,1.8631e-05,0
0.881,1.8631e-05,0
0.8815,1.9974e-05,0
0.882,2.1653e-05,0
0.8825,2.1988e-05,0
0.883,1.9638e-05,0
0.8835,1.9638e-05,0
0.884,2.3499e-05,0
0.8845,2.7024e-05,0
0.885,2.7695e-05,0
0.8855,2.652e-05,0
0.886,2.5009e-05,0
0.8865,2.4674e-05,0
0.887,2.5009e-05,0
0.8875,2.5345e-05,0
0.888,2.8031e-05,0
0.8885,2.9038e-05,0
0.889,2.8367e-05,0
0.8895,2.9206e-05,0
0.89,3.0549e-05,0
0.8905,2.9374e-05,0
0.891,2.9038e-05,0
0.8915,2.7192e-05,0
0.892,2.417e-05,0
0.8925,2.4506e-05,0
0.893,2.3163e-05,0
0.8935,1.796e-05,0
0.894,1.2253e-05,0
0.8945,7.8889e-06,0
0.895,6.5461e-06,0
0.8955,8.896e-06,0
0.896,1.1414e-05,0
0.8965,1.2589e-05,0
0.897,1.326e-05,0
0.8975,1.4267e-05,0
0.898,1.5442e-05,0
0.8985,1.6617e-05,0
0.899,1.5946e-05,0
0.8995,1.326e-05,0
0.9,1.0407e-05,0
0.9005,9.7353e-06,0
0.901,1.326e-05,0
0.9015,1.8296e-05,0
0.902,2.182e-05,0
0.9025,2.2995e-05,0
0.903,2.1317e-05,0
0.9035,2.0646e-05,0
0.904,2.3667e-05,0
0.9045,2.6688e-05,0
0.905,2.6017e-05,0
0.9055,2.3835e-05,0
0.906,2.2995e-05,0
0.9065,2.2995e-05,0
0.907,2.1988e-05,0
0.9075,2.1988e-05,0
0.908,2.266e-05,0
0.9085,2.5009e-05,0
0.909,2.8367e-05,0
0.9095,3.1724e-05,0
0.91,3.2059e-05,0
0.9105,3.2731e-05,0
0.911,3.0381e-05,0
0.9115,2.8031e-05,0
0.912,3.0884e-05,0
0.9125,3.5248e-05,0
0.913,3.5752e-05,0
0.9135,3.3066e-05,0
0.914,3.1388e-05,0
0.9145,3.0213e-05,0
0.915,2.9374e-05,0
0.9155,2.887e-05,0
0.916,2.5681e-05,0
0.9165,2.0142e-05,0
0.917,1.7121e-05,0
0.9175,1.8631e-05,0
0.918,2.1317e-05,0
0.9185,2.182e-05,0
0.919,2.031e-05,0
0.9195,1.7456e-05,0
0.92,1.326e-05,0
0.9205,1.1582e-05,0
0.921,1.5946e-05,0
0.9215,2.4002e-05,0
0.922,2.9709e-05,0
0.9225,2.8702e-05,0
0.923,2.5009e-05,0
0.9235,2.5009e-05,0
0.924,2.6352e-05,0
0.9245,2.7527e-05,0
0.925,2.8367e-05,0
0.9255,2.8702e-05,0
0.926,3.122e-05,0
0.9265,3.2059e-05,0
0.927,3.0716e-05,0
0.9275,3.1388e-05,0
0.928,3.1388e-05,0
0.9285,3.2563e-05,0
0.929,3.3906e-05,0
0.9295,3.2395e-05,0
0.93,2.9038e-05,0
0.9305,2.8367e-05,0
0.931,3.0045e-05,0
0.9315,3.122e-05,0
0.932,3.1388e-05,0
0.9325,3.0045e-05,0
0.933,2.7192e-05,0
0.9335,2.6688e-05,0
0.934,2.8031e-05,0
0.9345,2.8031e-05,0
0.935,2.8534e-05,0
0.9355,2.8367e-05,0
0.936,2.8367e-05,0
0.9365,2.8702e-05,0
0.937,3.1891e-05,0
0.9375,3.6088e-05,0
0.938,3.6423e-05,0
0.9385,3.4073e-05,0
0.939,3.122e-05,0
0.9395,2.8702e-05,0
0.94,2.6688e-05,0
0.9405,2.2324e-05,0
0.941,1.7121e-05,0
0.9415,1.3596e-05,0
0.942,9.2317e-06,0
0.9425,6.0426e-06,0
0.943,5.2033e-06,0
0.9435,5.0355e-06,0
0.944,8.392e-07,0
0.9445,-5.8747e-06,0
0.945,-1.1582e-05,0
0.9455,-1.4267e-05,0
0.946,-1.6281e-05,0
0.9465,-1.7624e-05,0
0.947,-1.7288e-05,0
0.9475,-1.4939e-05,0
0.948,-1.4435e-05,0
0.9485,-1.6114e-05,0
0.949,-1.5946e-05,0
0.9495,-1.4603e-05,0
0.95,-1.2253e-05,0
0.9505,-1.091e-05,0
0.951,-1.2253e-05,0
0.9515,-1.326e-05,0
0.952,-9.5674e-06,0
0.9525,-2.8534e-06,0
0.953,3.8605e-06,0
0.9535,6.8818e-06,0
0.954,7.2175e-06,0
0.9545,8.5603e-06,0
0.955,1.1246e-05,0
0.9555,1.4939e-05,0
0.956,1.8128e-05,0
0.9565,2.2492e-05,0
0.957,2.8367e-05,0
0.9575,3.0716e-05,0
0.958,2.9542e-05,0
0.9585,2.9877e-05,0
0.959,3.1388e-05,0
0.9595,2.9709e-05,0
0.96,2.8367e-05,0
0.9605,2.7359e-05,0
0.961,2.7024e-05,0
0.9615,2.5681e-05,0
0.962,2.1653e-05,0
0.9625,1.7288e-05,0
0.963,1.4267e-05,0
0.9635,1.1246e-05,0
0.964,8.2246e-06,0
0.9645,7.8889e-06,0
0.965,8.3925e-06,0
0.9655,9.2317e-06,0
0.966,1.1917e-05,0
0.9665,1.8631e-05,0
0.967,2.4002e-05,0
0.9675,2.7192e-05,0
0.968,2.7024e-05,0
0.9685,2.6688e-05,0
0.969,2.8702e-05,0
0.9695,2.9709e-05,0
0.97,2.8534e-05,0
0.9705,2.6017e-05,0
0.971,2.4002e-05,0
0.9715,2.3331e-05,0
0.972,2.3835e-05,0
0.9725,2.2324e-05,0
0.973,1.9974e-05,0
0.9735,1.9303e-05,0
0.974,2.0981e-05,0
0.9745,2.417e-05,0
0.975,2.7527e-05,0
0.9755,2.9709e-05,0
0.976,2.9374e-05,0
0.9765,2.9038e-05,0
0.977,2.7527e-05,0
0.9775,2.7863e-05,0
0.978,2.5681e-05,0
0.9785,2.0478e-05,0
0.979,1.5946e-05,0
0.9795,1.4267e-05,0
0.98,1.2421e-05,0
0.9805,9.5674e-06,0
0.981,4.8676e-06,0
0.9815,1.8463e-06,0
0.982,2.182e-06,0
0.9825,1.5106e-06,0
0.983,-8.392e-07,0
0.9835,-2.3499e-06,0
0.984,-2.5177e-06,0
0.9845,-3.6927e-06,0
0.985,-3.1891e-06,0
0.9855,5.035e-07,0
0.986,4.0284e-06,0
0.9865,7.5532e-06,0
0.987,9.2317e-06,0
0.9875,7.8889e-06,0
0.988,4.0284e-06,0
0.9885,5.035e-07,0
0.989,5.035e-07,0
0.9895,2.8534e-06,0
0.99,4.8676e-06,0
0.9905,8.3925e-06,0
0.991,1.0239e-05,0
0.9915,1.4267e-05,0
0.992,2.0646e-05,0
0.9925,2.5177e-05,0
0.993,2.6017e-05,0
0.9935,2.6688e-05,0
0.994,3.0045e-05,0
0.9945,3.3738e-05,0
0.995,3.5416e-05,0
0.9955,3.6088e-05,0
0.996,3.7095e-05,0
0.9965,3.743e-05,0
0.997,3.5752e-05,0
0.9975,3.2563e-05,0
0.998,3.0045e-05,0
0.9985,2.7695e-05,0
0.999,2.5849e-05,0
0.9995,2.5009e-05,0
1,2.3667e-05,0
1.0005,2.3835e-05,0
1.001,2.7863e-05,0
1.0015,3.3066e-05,0
1.002,3.6759e-05,0
1.0025,3.8437e-05,0
1.003,3.9445e-05,0
1.0035,4.2802e-05,0
1.004,4.8173e-05,0
1.0045,5.2705e-05,0
1.005,5.4887e-05,0
1.0055,5.4887e-05,0
1.006,5.6397e-05,0
1.0065,5.7237e-05,0
1.007,5.3544e-05,0
1.0075,4.8173e-05,0
1.008,4.3809e-05,0
1.0085,3.9109e-05,0
1.009,3.5752e-05,0
1.0095,3.4745e-05,0
1.01,3.4073e-05,0
1.0105,3.4577e-05,0
1.011,3.4409e-05,0
1.0115,3.2731e-05,0
1.012,3.2059e-05,0
1.0125,3.122e-05,0
1.013,2.7024e-05,0
1.0135,2.2492e-05,0
1.014,1.947e-05,0
1.0145,1.8631e-05,0
1.015,1.8631e-05,0
1.0155,2.031e-05,0
1.016,2.1149e-05,0
1.0165,2.1988e-05,0
1.017,2.3331e-05,0
1.0175,2.266e-05,0
1.018,2.0478e-05,0
1.0185,1.6953e-05,0
1.019,1.4603e-05,0
1.0195,1.326e-05,0
1.02,1.1582e-05,0
1.0205,1.1749e-05,0
1.021,1.1917e-05,0
1.0215,9.9031e-06,0
1.022,8.0568e-06,0
1.0225,1.1246e-05,0
1.023,1.1246e-05,0
1.0235,6.8818e-06,0
1.024,2.5177e-06,0
1.0245,-3.357e-07,0
1.025,-1.6785e-06,0
1.0255,-1.8463e-06,0
1.026,-1.5106e-06,0
1.0265,-1.1749e-06,0
1.027,-2.182e-06,0
1.0275,-4.5319e-06,0
1.028,-6.2104e-06,0
1.0285,-5.7069e-06,0
1.029,-6.8818e-06,0
1.0295,-7.0497e-06,0
1.03,-4.8676e-06,0
1.0305,-2.182e-06,0
1.031,1.8463e-06,0
1.0315,5.2033e-06,0
1.032,8.3925e-06,0
1.0325,1.2924e-05,0
1.033,1.7456e-05,0
1.0335,2.0646e-05,0
1.034,2.4338e-05,0
1.0345,3.0045e-05,0
1.035,3.6255e-05,0
1.0355,3.8605e-05,0
1.036,3.9109e-05,0
1.0365,3.827e-05,0
1.037,3.5416e-05,0
1.0375,3.3066e-05,0
1.038,3.4073e-05,0
1.0385,3.5752e-05,0
1.039,3.4745e-05,0
1.0395,3.0381e-05,0
1.04,2.5345e-05,0
1.0405,2.0981e-05,0
1.041,1.8631e-05,0
1.0415,1.796e-05,0
1.042,1.9638e-05,0
1.0425,2.266e-05,0
1.043,2.2156e-05,0
1.0435,1.8967e-05,0
1.044,1.7288e-05,0
1.0445,1.5442e-05,0
1.045,1.2253e-05,0
1.0455,1.1582e-05,0
1.046,1.3932e-05,0
1.0465,1.6953e-05,0
1.047,1.8631e-05,0
1.0475,1.9638e-05,0
1.048,2.1317e-05,0
1.0485,2.1988e-05,0
1.049,1.8463e-05,0
1.0495,1.5946e-05,0
1.05,1.8967e-05,0
1.0505,2.2492e-05,0
1.051,2.6017e-05,0
1.0515,2.9709e-05,0
1.052,3.2059e-05,0
1.0525,3.3738e-05,0
1.053,3.3402e-05,0
1.0535,3.1052e-05,0
1.054,2.9038e-05,0
1.0545,2.7359e-05,0
1.055,2.5009e-05,0
1.0555,2.2324e-05,0
1.056,1.796e-05,0
1.0565,1.2589e-05,0
1.057,6.8818e-06,0
1.0575,1.3428e-06,0
1.058,-1.678e-07,0
1.0585,1.678e-07,0
1.059,-1.8463e-06,0
1.0595,-5.539e-06,0
1.06,-4.5319e-06,0
1.0605,-2.0142e-06,0
1.061,8.392e-07,0
1.0615,3.0213e-06,0
1.062,6.0426e-06,0
1.0625,1.0407e-05,0
1.063,1.561e-05,0
1.0635,2.1653e-05,0
1.064,2.5345e-05,0
1.0645,2.7695e-05,0
1.065,3.0045e-05,0
1.0655,3.1891e-05,0
1.066,3.0716e-05,0
1.0665,2.7359e-05,0
1.067,2.6688e-05,0
1.0675,2.6688e-05,0
1.068,2.7359e-05,0
1.0685,3.0381e-05,0
1.069,3.3234e-05,0
1.0695,3.1556e-05,0
1.07,2.8534e-05,0
1.0705,2.6352e-05,0
1.071,2.2324e-05,0
1.0715,1.796e-05,0
1.072,1.326e-05,0
1.0725,9.9031e-06,0
1.073,7.3854e-06,0
1.0735,5.0355e-06,0
1.074,3.5248e-06,0
1.0745,4.8676e-06,0
1.075,8.2246e-06,0
1.0755,1.2421e-05,0
1.076,1.5778e-05,0
1.0765,1.8296e-05,0
1.077,2.1317e-05,0
1.0775,2.4002e-05,0
1.078,2.3331e-05,0
1.0785,2.1317e-05,0
1.079,2.0478e-05,0
1.0795,1.9638e-05,0
1.08,1.7624e-05,0
1.0805,1.6617e-05,0
1.081,1.7792e-05,0
1.0815,2.0813e-05,0
1.082,2.3331e-05,0
1.0825,2.4506e-05,0
1.083,2.3499e-05,0
1.0835,1.9303e-05,0
1.084,1.2589e-05,0
1.0845,8.3925e-06,0
1.085,7.2175e-06,0
1.0855,9.2317e-06,0
1.086,1.3764e-05,0
1.0865,1.5946e-05,0
1.087,1.6953e-05,0
1.0875,1.9135e-05,0
1.088,1.8967e-05,0
1.0885,1.5274e-05,0
1.089,1.4771e-05,0
1.0895,1.6617e-05,0
1.09,1.9135e-05,0
1.0905,2.031e-05,0
1.091,1.947e-05,0
1.0915,1.8631e-05,0
1.092,1.7456e-05,0
1.0925,1.6785e-05,0
1.093,2.031e-05,0
1.0935,2.4002e-05,0
1.094,2.4842e-05,0
1.0945,2.6856e-05,0
1.095,2.9374e-05,0
1.0955,2.7192e-05,0
1.096,2.2995e-05,0
1.0965,1.9974e-05,0
1.097,1.796e-05,0
1.0975,1.8799e-05,0
1.098,1.9974e-05,0
1.0985,1.9974e-05,0
1.099,1.7624e-05,0
1.0995,1.3764e-05,0
1.1,1.1414e-05,0
1.1005,1.2589e-05,0
1.101,1.4603e-05,0
1.1015,1.7288e-05,0
1.102,2.031e-05,0
1.1025,2.3331e-05,0
1.103,2.6688e-05,0
1.1035,3.1891e-05,0
1.104,3.8437e-05,0
1.1045,4.3977e-05,0
1.105,4.5151e-05,0
1.1055,4.0116e-05,0
1.106,3.5248e-05,0
1.1065,3.3066e-05,0
1.107,3.0045e-05,0
1.1075,2.7527e-05,0
1.108,2.6688e-05,0
1.1085,2.3163e-05,0
1.109,1.9135e-05,0
1.1095,1.8296e-05,0
1.11,1.8631e-05,0
1.1105,2.0646e-05,0
1.111,2.031e-05,0
1.1115,1.6953e-05,0
1.112,1.561e-05,0
1.1125,1.8799e-05,0
1.113,2.2995e-05,0
1.1135,2.3835e-05,0
1.114,2.3163e-05,0
1.1145,2.3667e-05,0
1.115,2.7024e-05,0
1.1155,3.2059e-05,0
1.116,3.6423e-05,0
1.1165,3.6759e-05,0
1.117,3.3402e-05,0
1.1175,3.0213e-05,0
1.118,2.7359e-05,0
1.1185,2.6352e-05,0
1.119,2.6352e-05,0
1.1195,2.2995e-05,0
1.12,1.9135e-05,0
1.1205,1.8631e-05,0
1.121,1.8296e-05,0
1.1215,1.6617e-05,0
1.122,1.3932e-05,0
1.1225,9.9031e-06,0
1.123,8.5603e-06,0
1.1235,1.0575e-05,0
1.124,1.2253e-05,0
1.1245,1.5274e-05,0
1.125,1.6785e-05,0
1.1255,1.5442e-05,0
1.126,1.4603e-05,0
1.1265,1.5946e-05,0
1.127,1.6281e-05,0
1.1275,1.5106e-05,0
1.128,1.5946e-05,0
1.1285,1.7288e-05,0
1.129,1.8128e-05,0
1.1295,2.0646e-05,0
1.13,2.266e-05,0
1.1305,2.031e-05,0
1.131,1.8463e-05,0
1.1315,1.8967e-05,0
1.132,1.947e-05,0
1.1325,1.9303e-05,0
1.133,1.9135e-05,0
1.1335,1.9638e-05,0
1.134,2.1317e-05,0
1.1345,2.5681e-05,0
1.135,3.0045e-05,0
1.1355,3.0381e-05,0
1.136,2.8031e-05,0
1.1365,2.7359e-05,0
1.137,2.7192e-05,0
1.1375,2.5345e-05,0
1.138,2.4338e-05,0
1.1385,2.2492e-05,0
1.139,2.0646e-05,0
1.1395,1.8463e-05,0
1.14,1.5946e-05,0
1.1405,1.561e-05,0
1.141,1.7456e-05,0
1.1415,1.8967e-05,0
1.142,1.7624e-05,0
1.1425,1.4603e-05,0
1.143,1.2589e-05,0
1.1435,1.1917e-05,0
1.144,1.2589e-05,0
1.1445,1.3092e-05,0
1.145,1.3596e-05,0
1.1455,1.5778e-05,0
1.146,1.796e-05,0
1.1465,2.266e-05,0
1.147,2.5009e-05,0
1.1475,2.6184e-05,0
1.148,2.5681e-05,0
1.1485,2.0646e-05,0
1.149,1.5274e-05,0
1.1495,1.2757e-05,0
1.15,1.091e-05,0
1.1505,9.7353e-06,0
1.151,1.1246e-05,0
1.1515,8.896e-06,0
1.152,3.8605e-06,0
1.1525,3.6927e-06,0
1.153,4.5319e-06,0
1.1535,4.5319e-06,0
1.154,5.8747e-06,0
1.1545,9.5674e-06,0
1.155,1.4267e-05,0
1.1555,2.0142e-05,0
1.156,2.3835e-05,0
1.1565,2.031e-05,0
1.157,1.5274e-05,0
1.1575,1.1749e-05,0
1.158,1.0239e-05,0
1.1585,8.896e-06,0
1.159,4.8676e-06,0
1.1595,-5.035e-07,0
1.16,-4.5319e-06,0
1.1605,-6.0426e-06,0
1.161,-3.5248e-06,0
1.1615,1.3428e-06,0
1.162,7.2175e-06,0
1.1625,1.2253e-05,0
1.163,1.4603e-05,0
1.1635,1.6617e-05,0
1.164,1.9974e-05,0
1.1645,2.1988e-05,0
1.165,2.2324e-05,0
1.1655,2.2492e-05,0
1.166,2.2324e-05,0
1.1665,2.2156e-05,0
1.167,2.1317e-05,0
1.1675,2.1149e-05,0
1.168,2.3667e-05,0
1.1685,3.0045e-05,0
1.169,3.6927e-05,0
1.1695,4.3137e-05,0
1.17,4.8005e-05,0
1.1705,5.069e-05,0
1.171,5.3208e-05,0
1.1715,5.3208e-05,0
1.172,5.069e-05,0
1.1725,4.8173e-05,0
1.173,4.7166e-05,0
1.1735,4.4144e-05,0
1.174,3.8102e-05,0
1.1745,3.2563e-05,0
1.175,2.9374e-05,0
1.1755,2.6352e-05,0
1.176,2.1317e-05,0
1.1765,1.7288e-05,0
1.177,1.561e-05,0
1.1775,1.6281e-05,0
1.178,1.8128e-05,0
1.1785,1.9135e-05,0
1.179,2.0478e-05,0
1.1795,1.9974e-05,0
1.18,1.9303e-05,0
1.1805,2.0981e-05,0
1.181,2.3667e-05,0
1.1815,2.5009e-05,0
1.182,2.2995e-05,0
1.1825,1.8296e-05,0
1.183,1.4939e-05,0
1.1835,1.326e-05,0
1.184,1.3932e-05,0
1.1845,1.5946e-05,0
1.185,1.5946e-05,0
1.1855,1.2757e-05,0
1.186,1.1246e-05,0
1.1865,1.1582e-05,0
1.187,9.9031e-06,0
1.1875,5.2033e-06,0
1.188,-1.1749e-06,0
1.1885,-3.8605e-06,0
1.189,-3.1891e-06,0
1.1895,0,0
1.19,6.5461e-06,0
1.1905,1.3092e-05,0
1.191,1.5442e-05,0
1.1915,1.3764e-05,0
1.192,1.0407e-05,0
1.1925,1.0071e-05,0
1.193,1.1414e-05,0
1.1935,1.1917e-05,0
1.194,1.0575e-05,0
1.1945,7.7211e-06,0
1.195,5.8747e-06,0
1.1955,5.0355e-06,0
1.196,6.5461e-06,0
1.1965,8.896e-06,0
1.197,1.1246e-05,0
1.1975,1.3932e-05,0
1.198,1.5946e-05,0
1.1985,1.796e-05,0
1.199,2.031e-05,0
1.1995,2.1988e-05,0
1.2,2.2156e-05,0
1.2005,2.0981e-05,0
1.201,2.031e-05,0
1.2015,2.2828e-05,0
1.202,2.6688e-05,0
1.2025,3.0045e-05,0
1.203,3.1052e-05,0
1.2035,2.7695e-05,0
1.204,2.266e-05,0
1.2045,1.9638e-05,0
1.205,1.7624e-05,0
1.2055,1.7288e-05,0
1.206,1.5946e-05,0
1.2065,1.4099e-05,0
1.207,1.2924e-05,0
1.2075,1.0239e-05,0
1.208,8.2246e-06,0
1.2085,8.896e-06,0
1.209,9.2317e-06,0
1.2095,8.3925e-06,0
1.21,1.0407e-05,0
1.2105,1.3764e-05,0
1.211,1.4099e-05,0
1.2115,1.3596e-05,0
1.212,1.2924e-05,0
1.2125,1.3596e-05,0
1.213,1.326e-05,0
1.2135,1.2589e-05,0
1.214,1.1246e-05,0
1.2145,1.0575e-05,0
1.215,1.2421e-05,0
1.2155,1.2589e-05,0
1.216,1.0407e-05,0
1.2165,6.8818e-06,0
1.217,4.5319e-06,0
1.2175,6.3783e-06,0
1.218,7.2175e-06,0
1.2185,7.3854e-06,0
1.219,9.5674e-06,0
1.2195,9.9031e-06,0
1.22,7.8889e-06,0
1.2205,6.8818e-06,0
1.221,5.539e-06,0
1.2215,5.8747e-06,0
1.222,9.9031e-06,0
1.2225,1.4435e-05,0
1.223,1.8296e-05,0
1.2235,1.9303e-05,0
1.224,1.8631e-05,0
1.2245,1.9135e-05,0
1.225,1.9974e-05,0
1.2255,2.0981e-05,0
1.226,2.3499e-05,0
1.2265,2.7695e-05,0
1.227,3.4745e-05,0
1.2275,4.0452e-05,0
1.228,4.1123e-05,0
1.2285,4.2802e-05,0
1.229,4.7669e-05,0
1.2295,5.1698e-05,0
1.23,5.3544e-05,0
1.2305,5.2705e-05,0
1.231,5.153e-05,0
1.2315,5.4887e-05,0
1.232,6.0258e-05,0
1.2325,6.4286e-05,0
1.233,6.479e-05,0
1.2335,6.2944e-05,0
1.234,5.8915e-05,0
1.2345,5.3208e-05,0
1.235,4.683e-05,0
1.2355,4.2802e-05,0
1.236,4.213e-05,0
1.2365,4.0787e-05,0
1.237,3.7934e-05,0
1.2375,3.6088e-05,0
1.238,3.4073e-05,0
1.2385,3.2563e-05,0
1.239,3.1891e-05,0
1.2395,2.8702e-05,0
1.24,2.4002e-05,0
1.2405,1.9974e-05,0
1.241,1.5442e-05,0
1.2415,1.1246e-05,0
1.242,9.7353e-06,0
1.2425,9.2317e-06,0
1.243,7.8889e-06,0
1.2435,5.8747e-06,0
1.244,8.392e-07,0
1.2445,-2.8534e-06,0
1.245,-3.0213e-06,0
1.2455,-2.8534e-06,0
1.246,-5.8747e-06,0
1.2465,-7.5532e-06,0
1.247,-6.8818e-06,0
1.2475,-6.2104e-06,0
1.248,-5.2033e-06,0
1.2485,-3.5248e-06,0
1.249,-2.0142e-06,0
1.2495,-1.0071e-06,0
1.25,-1.8463e-06,0
1.2505,-3.357e-06,0
1.251,-3.357e-06,0
1.2515,1.678e-07,0
1.252,5.2033e-06,0
1.2525,7.8889e-06,0
1.253,7.8889e-06,0
1.2535,9.7353e-06,0
1.254,1.1582e-05,0
1.2545,1.3932e-05,0
1.255,1.5946e-05,0
1.2555,1.6281e-05,0
1.256,1.4435e-05,0
1.2565,1.4267e-05,0
1.257,1.5442e-05,0
1.2575,1.8128e-05,0
1.258,2.1988e-05,0
1.2585,2.6184e-05,0
1.259,2.9374e-05,0
1.2595,2.9374e-05,0
1.26,2.652e-05,0
1.2605,2.4506e-05,0
1.261,2.5681e-05,0
1.2615,2.652e-05,0
1.262,2.6688e-05,0
1.2625,2.4674e-05,0
1.263,2.2324e-05,0
1.2635,2.1988e-05,0
1.264,2.0981e-05,0
1.2645,1.8296e-05,0
1.265,1.4267e-05,0
1.2655,7.8889e-06,0
1.266,1.678e-07,0
1.2665,-6.8818e-06,0
1.267,-1.091e-05,0
1.2675,-1.1246e-05,0
1.268,-1.091e-05,0
1.2685,-1.2253e-05,0
1.269,-1.561e-05,0
1.2695,-1.8128e-05,0
1.27,-1.8967e-05,0
1.2705,-1.6281e-05,0
1.271,-1.1749e-05,0
1.2715,-8.2246e-06,0
1.272,-6.5461e-06,0
1.2725,-3.8605e-06,0
1.273,1.1749e-06,0
1.2735,7.8889e-06,0
1.274,1.326e-05,0
1.2745,1.8296e-05,0
1.275,2.3331e-05,0
1.2755,2.7359e-05,0
1.276,3.0884e-05,0
1.2765,3.508e-05,0
1.277,3.8437e-05,0
1.2775,4.213e-05,0
1.278,4.6159e-05,0
1.2785,4.8005e-05,0
1.279,4.9515e-05,0
1.2795,5.2872e-05,0
1.28,5.4887e-05,0
1.2805,5.3208e-05,0
1.281,5.0858e-05,0
1.2815,4.7501e-05,0
1.282,4.2298e-05,0
1.2825,3.6088e-05,0
1.283,3.0045e-05,0
1.2835,2.4674e-05,0
1.284,1.9806e-05,0
1.2845,1.5946e-05,0
1.285,1.3932e-05,0
1.2855,1.3596e-05,0
1.286,1.326e-05,0
1.2865,1.1749e-05,0
1.287,1.2421e-05,0
1.2875,1.8463e-05,0
1.288,2.5345e-05,0
1.2885,2.9374e-05,0
1.289,3.0549e-05,0
1.2895,3.1724e-05,0
1.29,3.2731e-05,0
1.2905,3.3906e-05,0
1.291,3.4073e-05,0
1.2915,3.4073e-05,0
1.292,3.6088e-05,0
1.2925,3.9612e-05,0
1.293,3.9612e-05,0
1.2935,4.213e-05,0
1.294,5.0187e-05,0
1.2945,5.623e-05,0
1.295,5.5558e-05,0
1.2955,5.1865e-05,0
1.296,5.153e-05,0
1.2965,5.4887e-05,0
1.297,5.7237e-05,0
1.2975,5.4551e-05,0
1.298,5.153e-05,0
1.2985,5.2033e-05,0
1.299,5.3544e-05,0
1.2995,5.4551e-05,0
1.3,5.2201e-05,0
1.3005,4.5991e-05,0
1.301,3.9948e-05,0
1.3015,3.743e-05,0
1.302,3.7095e-05,0
1.3025,3.5752e-05,0
1.303,3.122e-05,0
1.3035,2.5681e-05,0
1.304,2.4002e-05,0
1.3045,2.182e-05,0
1.305,1.7121e-05,0
1.3055,1.2589e-05,0
1.306,1.0071e-05,0
1.3065,9.5674e-06,0
1.307,9.9031e-06,0
1.3075,1.0575e-05,0
1.308,1.0239e-05,0
1.3085,6.5461e-06,0
1.309,2.5177e-06,0
1.3095,8.392e-07,0
1.31,1.678e-07,0
1.3105,-2.182e-06,0
1.311,-8.2246e-06,0
1.3115,-1.091e-05,0
1.312,-9.9031e-06,0
1.3125,-7.8889e-06,0
1.313,-6.0426e-06,0
1.3135,-7.7211e-06,0
1.314,-1.0407e-05,0
1.3145,-9.7353e-06,0
1.315,-7.5532e-06,0
1.3155,-4.8676e-06,0
1.316,-3.8605e-06,0
1.3165,-1.1749e-06,0
1.317,2.182e-06,0
1.3175,1.8463e-06,0
1.318,-2.3499e-06,0
1.3185,-5.7069e-06,0
1.319,-8.2246e-06,0
1.3195,-6.5461e-06,0
1.32,-2.0142e-06,0
1.3205,-1.3428e-06,0
1.321,-3.1891e-06,0
1.3215,-8.392e-07,0
1.322,5.2033e-06,0
1.3225,9.7353e-06,0
1.323,1.2253e-05,0
1.3235,1.5946e-05,0
1.324,2.0646e-05,0
1.3245,2.4338e-05,0
1.325,2.6017e-05,0
1.3255,2.887e-05,0
1.326,3.1891e-05,0
1.3265,3.1556e-05,0
1.327,2.8702e-05,0
1.3275,2.5009e-05,0
1.328,2.1317e-05,0
1.3285,2.1988e-05,0
1.329,2.1988e-05,0
1.3295,2.031e-05,0
1.33,2.0646e-05,0
1.3305,2.1317e-05,0
1.331,2.1149e-05,0
1.3315,2.0478e-05,0
1.332,1.796e-05,0
1.3325,1.2589e-05,0
1.333,9.0639e-06,0
1.3335,1.0239e-05,0
1.334,1.2589e-05,0
1.3345,1.3596e-05,0
1.335,1.3932e-05,0
1.3355,1.5778e-05,0
1.336,1.9974e-05,0
1.3365,2.4002e-05,0
1.337,2.6017e-05,0
1.3375,2.6688e-05,0
1.338,2.7863e-05,0
1.3385,2.7359e-05,0
1.339,2.5849e-05,0
1.3395,2.5345e-05,0
1.34,2.6017e-05,0
1.3405,2.5345e-05,0
1.341,2.4338e-05,0
1.3415,2.3331e-05,0
1.342,1.9135e-05,0
1.3425,1.3764e-05,0
1.343,8.0568e-06,0
1.3435,4.5319e-06,0
1.344,1.8463e-06,0
1.3445,0,0
1.345,-5.035e-07,0
1.3455,1.1749e-06,0
1.346,3.1891e-06,0
1.3465,4.1962e-06,0
1.347,6.2104e-06,0
1.3475,8.5603e-06,0
1.348,1.0575e-05,0
1.3485,1.0575e-05,0
1.349,9.9031e-06,0
1.3495,1.2589e-05,0
1.35,1.9638e-05,0
1.3505,2.3499e-05,0
1.351,2.2492e-05,0
1.3515,1.9638e-05,0
1.352,1.9303e-05,0
1.3525,1.9974e-05,0
1.353,1.9638e-05,0
1.3535,1.9303e-05,0
1.354,2.031e-05,0
1.3545,2.1317e-05,0
1.355,2.0478e-05,0
1.3555,2.1317e-05,0
1.356,2.3667e-05,0
1.3565,2.2324e-05,0
1.357,2.1653e-05,0
1.3575,2.2492e-05,0
1.358,2.2156e-05,0
1.3585,2.3163e-05,0
1.359,2.7359e-05,0
1.3595,3.2731e-05,0
1.36,3.6088e-05,0
1.3605,3.8773e-05,0
1.361,4.1291e-05,0
1.3615,4.2298e-05,0
1.362,3.978e-05,0
1.3625,3.508e-05,0
1.363,3.0381e-05,0
1.3635,2.7695e-05,0
1.364,2.8534e-05,0
1.3645,3.0045e-05,0
1.365,3.2395e-05,0
1.3655,3.5416e-05,0
1.366,3.8773e-05,0
1.3665,4.1123e-05,0
1.367,4.2466e-05,0
1.3675,4.0619e-05,0
1.368,3.6759e-05,0
1.3685,3.2898e-05,0
1.369,2.8367e-05,0
1.3695,2.4338e-05,0
1.37,1.9974e-05,0
1.3705,1.5946e-05,0
1.371,1.5946e-05,0
1.3715,1.8631e-05,0
1.372,1.8967e-05,0
1.3725,1.7456e-05,0
1.373,1.796e-05,0
1.3735,2.1653e-05,0
1.374,2.5345e-05,0
1.3745,2.6017e-05,0
1.375,2.4506e-05,0
1.3755,2.3331e-05,0
1.376,2.266e-05,0
1.3765,2.1149e-05,0
1.377,1.9303e-05,0
1.3775,1.796e-05,0
1.378,1.6617e-05,0
1.3785,1.6281e-05,0
1.379,1.796e-05,0
1.3795,2.1317e-05,0
1.38,2.4002e-05,0
1.3805,2.5849e-05,0
1.381,2.6688e-05,0
1.3815,2.652e-05,0
1.382,2.5345e-05,0
1.3825,2.2995e-05,0
1.383,1.8967e-05,0
1.3835,1.5442e-05,0
1.384,1.2589e-05,0
1.3845,9.0639e-06,0
1.385,5.2033e-06,0
1.3855,1.5106e-06,0
1.386,-3.6927e-06,0
1.3865,-9.5674e-06,0
1.387,-1.3764e-05,0
1.3875,-1.4939e-05,0
1.388,-1.3932e-05,0
1.3885,-1.2421e-05,0
1.389,-8.5603e-06,0
1.3895,-3.8605e-06,0
1.39,-3.0213e-06,0
1.3905,-4.1962e-06,0
1.391,-3.357e-06,0
1.3915,8.392e-07,0
1.392,3.8605e-06,0
1.3925,3.5248e-06,0
1.393,4.3641e-06,0
1.3935,1.1582e-05,0
1.394,1.947e-05,0
1.3945,2.1149e-05,0
1.395,1.8296e-05,0
1.3955,1.6953e-05,0
1.396,1.8296e-05,0
1.3965,1.9135e-05,0
1.397,1.9303e-05,0
1.3975,2.0981e-05,0
1.398,2.6688e-05,0
1.3985,3.3066e-05,0
1.399,3.6927e-05,0
1.3995,3.6759e-05,0
1.4,3.592e-05,0
1.4005,3.6255e-05,0
1.401,3.7095e-05,0
1.4015,3.6591e-05,0
1.402,3.6088e-05,0
1.4025,3.4745e-05,0
1.403,3.2898e-05,0
1.4035,2.9374e-05,0
1.404,2.6017e-05,0
1.4045,2.4674e-05,0
1.405,2.6688e-05,0
1.4055,2.8031e-05,0
1.406,2.8534e-05,0
1.4065,3.0549e-05,0
1.407,3.4073e-05,0
1.4075,3.6591e-05,0
1.408,3.5416e-05,0
1.4085,3.2563e-05,0
1.409,3.2563e-05,0
1.4095,3.3738e-05,0
1.41,3.1052e-05,0
1.4105,2.9038e-05,0
1.411,3.2563e-05,0
1.4115,3.6088e-05,0
1.412,3.6591e-05,0
1.4125,3.4745e-05,0
1.413,3.2731e-05,0
1.4135,3.2059e-05,0
1.414,3.1724e-05,0
1.4145,2.9374e-05,0
1.415,2.7359e-05,0
1.4155,2.5345e-05,0
1.416,2.2492e-05,0
1.4165,2.1317e-05,0
1.417,2.3163e-05,0
1.4175,2.5849e-05,0
1.418,2.5681e-05,0
1.4185,2.2995e-05,0
1.419,2.4002e-05,0
1.4195,3.0045e-05,0
1.42,3.357e-05,0
1.4205,3.2731e-05,0
1.421,3.1891e-05,0
1.4215,3.122e-05,0
1.422,3.122e-05,0
1.4225,3.0549e-05,0
1.423,2.7695e-05,0
1.4235,2.5177e-05,0
1.424,2.4338e-05,0
1.4245,2.5009e-05,0
1.425,2.5009e-05,0
1.4255,2.5345e-05,0
1.426,2.3667e-05,0
1.4265,1.947e-05,0
1.427,1.6281e-05,0
1.4275,1.5778e-05,0
1.428,1.4603e-05,0
1.4285,1.0239e-05,0
1.429,4.1962e-06,0
1.4295,-2.5177e-06,0
1.43,-9.0639e-06,0
1.4305,-1.326e-05,0
1.431,-1.4939e-05,0
1.4315,-1.6281e-05,0
1.432,-1.4771e-05,0
1.4325,-9.9031e-06,0
1.433,-5.539e-06,0
1.4335,-4.1962e-06,0
1.434,-3.1891e-06,0
1.4345,-1.0071e-06,0
1.435,1.3428e-06,0
1.4355,1.0071e-06,0
1.436,-2.182e-06,0
1.4365,-3.8605e-06,0
1.437,-4.5319e-06,0
1.4375,-6.2104e-06,0
1.438,-3.5248e-06,0
1.4385,1.0071e-06,0
1.439,3.1891e-06,0
1.4395,2.3499e-06,0
1.44,-1.8463e-06,0
1.4405,-3.6927e-06,0
1.441,1.678e-07,0
1.4415,4.5319e-06,0
1.442,4.1962e-06,0
1.4425,5.2033e-06,0
1.443,1.0575e-05,0
1.4435,1.6953e-05,0
1.444,1.7624e-05,0
1.4445,1.6785e-05,0
1.445,1.8631e-05,0
1.4455,2.1317e-05,0
1.446,2.5009e-05,0
1.4465,2.8199e-05,0
1.447,3.0716e-05,0
1.4475,3.1388e-05,0
1.448,3.0549e-05,0
1.4485,2.8534e-05,0
1.449,2.652e-05,0
1.4495,2.7359e-05,0
1.45,3.0549e-05,0
1.4505,3.3738e-05,0
1.451,3.6591e-05,0
1.4515,3.8773e-05,0
1.452,4.1795e-05,0
1.4525,4.2802e-05,0
1.453,4.4648e-05,0
1.4535,4.8173e-05,0
1.454,5.2201e-05,0
1.4545,5.539e-05,0
1.455,5.5894e-05,0
1.4555,5.5894e-05,0
1.456,5.4551e-05,0
1.4565,5.0523e-05,0
1.457,4.3473e-05,0
1.4575,3.743e-05,0
1.458,3.2731e-05,0
1.4585,3.1052e-05,0
1.459,2.8534e-05,0
1.4595,2.4338e-05,0
1.46,2.3499e-05,0
1.4605,2.6017e-05,0
1.461,2.7359e-05,0
1.4615,2.4674e-05,0
1.462,2.1653e-05,0
1.4625,2.0981e-05,0
1.463,2.2995e-05,0
1.4635,2.1988e-05,0
1.464,1.8967e-05,0
1.4645,1.8463e-05,0
1.465,1.7288e-05,0
1.4655,1.2924e-05,0
1.466,1.1917e-05,0
1.4665,1.4939e-05,0
1.467,2.031e-05,0
1.4675,2.5009e-05,0
1.468,2.6688e-05,0
1.4685,2.6184e-05,0
1.469,2.3163e-05,0
1.4695,2.1317e-05,0
1.47,1.8631e-05,0
1.4705,1.5274e-05,0
1.471,1.2924e-05,0
1.4715,1.2253e-05,0
1.472,1.1246e-05,0
1.4725,9.2317e-06,0
1.473,7.7211e-06,0
1.4735,7.0497e-06,0
1.474,8.5603e-06,0
1.4745,1.3092e-05,0
1.475,1.3932e-05,0
1.4755,1.2253e-05,0
1.476,1.0575e-05,0
1.4765,9.5674e-06,0
1.477,7.5532e-06,0
1.4775,5.7069e-06,0
1.478,3.357e-06,0
1.4785,8.392e-07,0
1.479,-3.8605e-06,0
1.4795,-8.5603e-06,0
1.48,-8.896e-06,0
1.4805,-6.2104e-06,0
1.481,-5.2033e-06,0
1.4815,-5.8747e-06,0
1.482,-6.5461e-06,0
1.4825,-6.3783e-06,0
1.483,-3.1891e-06,0
1.4835,-6.714e-07,0
1.484,2.0142e-06,0
1.4845,4.3641e-06,0
1.485,7.7211e-06,0
1.4855,1.1078e-05,0
1.486,1.4267e-05,0
1.4865,1.5946e-05,0
1.487,1.5274e-05,0
1.4875,1.5946e-05,0
1.488,1.9303e-05,0
1.4885,2.0981e-05,0
1.489,2.1317e-05,0
1.4895,2.1988e-05,0
1.49,2.1988e-05,0
1.4905,2.4002e-05,0
1.491,2.7024e-05,0
1.4915,2.5345e-05,0
1.492,2.2828e-05,0
1.4925,2.4002e-05,0
1.493,2.652e-05,0
1.4935,2.5345e-05,0
1.494,1.947e-05,0
1.4945,1.091e-05,0
1.495,3.8605e-06,0
1.4955,1.0071e-06,0
1.496,1.678e-07,0
1.4965,-1.6785e-06,0
1.497,-1.8463e-06,0
1.4975,3.0213e-06,0
1.498,9.2317e-06,0
1.4985,1.5274e-05,0
1.499,1.9303e-05,0
1.4995,1.9806e-05,0
1.5,1.796e-05,0
1.5005,1.8631e-05,0
1.501,1.9974e-05,0
1.5015,2.0646e-05,0
1.502,2.3835e-05,0
1.5025,2.8702e-05,0
1.503,3.0045e-05,0
1.5035,2.6688e-05,0
1.504,2.5849e-05,0
1.5045,2.8702e-05,0
1.505,3.3402e-05,0
1.5055,3.743e-05,0
1.506,3.9277e-05,0
1.5065,3.8773e-05,0
1.507,3.5416e-05,0
1.5075,3.4745e-05,0
1.508,3.6591e-05,0
1.5085,3.8102e-05,0
1.509,3.7766e-05,0
1.5095,3.592e-05,0
1.51,3.5416e-05,0
1.5105,3.6759e-05,0
1.511,3.7095e-05,0
1.5115,3.7095e-05,0
1.512,3.6759e-05,0
1.5125,3.743e-05,0
1.513,3.8773e-05,0
1.5135,3.978e-05,0
1.514,3.8773e-05,0
1.5145,3.7766e-05,0
1.515,3.743e-05,0
1.5155,3.5416e-05,0
1.516,3.2059e-05,0
1.5165,3.1891e-05,0
1.517,3.2059e-05,0
1.5175,3.122e-05,0
1.518,2.8031e-05,0
1.5185,2.3667e-05,0
1.519,1.8967e-05,0
1.5195,1.6617e-05,0
1.52,1.4099e-05,0
1.5205,1.1246e-05,0
1.521,9.5674e-06,0
1.5215,1.1582e-05,0
1.522,1.5946e-05,0
1.5225,1.9974e-05,0
1.523,2.0981e-05,0
1.5235,1.9974e-05,0
1.524,1.8631e-05,0
1.5245,1.6281e-05,0
1.525,1.6114e-05,0
1.5255,1.6953e-05,0
1.526,1.7624e-05,0
1.5265,1.7121e-05,0
1.527,1.2757e-05,0
1.5275,7.5532e-06,0
1.528,1.1749e-06,0
1.5285,-3.8605e-06,0
1.529,-4.1962e-06,0
1.5295,-2.5177e-06,0
1.53,-3.357e-06,0
1.5305,-5.539e-06,0
1.531,-9.2317e-06,0
1.5315,-1.1749e-05,0
1.532,-1.2757e-05,0
1.5325,-9.3996e-06,0
1.533,-4.6998e-06,0
1.5335,-2.182e-06,0
1.534,-2.6856e-06,0
1.5345,-4.3641e-06,0
1.535,-4.1962e-06,0
1.5355,-6.3783e-06,0
1.536,-9.2317e-06,0
1.5365,-8.3925e-06,0
1.537,-6.2104e-06,0
1.5375,-3.5248e-06,0
1.538,3.357e-07,0
1.5385,5.2033e-06,0
1.539,9.2317e-06,0
1.5395,1.1246e-05,0
1.54,1.2589e-05,0
1.5405,1.6617e-05,0
1.541,2.1653e-05,0
1.5415,2.5513e-05,0
1.542,3.0045e-05,0
1.5425,3.6927e-05,0
1.543,4.0619e-05,0
1.5435,4.0116e-05,0
1.544,3.827e-05,0
1.5445,3.8437e-05,0
1.545,3.8773e-05,0
1.5455,3.8437e-05,0
1.546,3.8437e-05,0
1.5465,3.6759e-05,0
1.547,3.4745e-05,0
1.5475,3.4073e-05,0
1.548,3.5584e-05,0
1.5485,3.8437e-05,0
1.549,4.0116e-05,0
1.5495,4.2802e-05,0
1.55,4.5487e-05,0
1.5505,4.6662e-05,0
1.551,4.7669e-05,0
1.5515,4.8173e-05,0
1.552,5.0858e-05,0
1.5525,5.3208e-05,0
1.553,5.0858e-05,0
1.5535,4.5151e-05,0
1.554,4.1459e-05,0
1.5545,3.9445e-05,0
1.555,3.7095e-05,0
1.5555,3.3066e-05,0
1.556,2.9709e-05,0
1.5565,2.9374e-05,0
1.557,3.0213e-05,0
1.5575,3.0045e-05,0
1.558,2.7863e-05,0
1.5585,2.4002e-05,0
1.559,2.1988e-05,0
1.5595,2.0646e-05,0
1.56,2.0478e-05,0
1.5605,2.0646e-05,0
1.561,2.0646e-05,0
1.5615,2.1317e-05,0
1.562,2.1988e-05,0
1.5625,2.2492e-05,0
1.563,2.1149e-05,0
1.5635,1.947e-05,0
1.564,1.8799e-05,0
1.5645,1.796e-05,0
1.565,1.561e-05,0
1.5655,1.2589e-05,0
1.566,8.5603e-06,0
1.5665,8.7282e-06,0
1.567,1.1078e-05,0
1.5675,1.4939e-05,0
1.568,1.8631e-05,0
1.5685,2.3667e-05,0
1.569,2.7527e-05,0
1.5695,2.9038e-05,0
1.57,3.1052e-05,0
1.5705,3.2059e-05,0
1.571,3.1052e-05,0
1.5715,2.7192e-05,0
1.572,2.1988e-05,0
1.5725,1.9303e-05,0
1.573,1.796e-05,0
1.5735,1.5778e-05,0
1.574,1.2589e-05,0
1.5745,9.9031e-06,0
1.575,7.5532e-06,0
1.5755,7.0497e-06,0
1.576,8.5603e-06,0
1.5765,9.9031e-06,0
1.577,1.2589e-05,0
1.5775,1.4435e-05,0
1.578,1.4267e-05,0
1.5785,1.6281e-05,0
1.579,2.0981e-05,0
1.5795,2.4002e-05,0
1.58,2.5009e-05,0
1.5805,2.4002e-05,0
1.581,2.1149e-05,0
1.5815,1.6953e-05,0
1.582,1.7792e-05,0
1.5825,2.266e-05,0
1.583,2.6184e-05,0
1.5835,2.3163e-05,0
1.584,1.7121e-05,0
1.5845,1.4603e-05,0
1.585,1.3596e-05,0
1.5855,1.1582e-05,0
1.586,1.1582e-05,0
1.5865,1.1078e-05,0
1.587,9.2317e-06,0
1.5875,7.5532e-06,0
1.588,8.5603e-06,0
1.5885,1.326e-05,0
1.589,1.4603e-05,0
1.5895,1.1582e-05,0
1.59,9.5674e-06,0
1.5905,1.1078e-05,0
1.591,1.091e-05,0
1.5915,8.2246e-06,0
1.592,5.0355e-06,0
1.5925,5.0355e-06,0
1.593,6.5461e-06,0
1.5935,8.5603e-06,0
1.594,9.0639e-06,0
1.5945,6.8818e-06,0
1.595,3.1891e-06,0
1.5955,2.5177e-06,0
1.596,4.1962e-06,0
1.5965,4.8676e-06,0
1.597,2.3499e-06,0
1.5975,-3.357e-06,0
1.598,-8.3925e-06,0
1.5985,-1.3092e-05,0
1.599,-1.8296e-05,0
1.5995,-2.3163e-05,0
1.6,-2.5009e-05,0
1.6005,-2.4674e-05,0
1.601,-2.4674e-05,0
1.6015,-2.3667e-05,0
1.602,-2.1653e-05,0
1.6025,-1.8463e-05,0
1.603,-1.2253e-05,0
1.6035,-6.2104e-06,0
1.604,-2.8534e-06,0
1.6045,-8.392e-07,0
1.605,3.357e-07,0
1.6055,2.8534e-06,0
1.606,6.8818e-06,0
1.6065,8.896e-06,0
1.607,9.3996e-06,0
1.6075,8.5603e-06,0
1.608,6.5461e-06,0
1.6085,5.2033e-06,0
1.609,4.3641e-06,0
1.6095,6.0426e-06,0
1.61,9.2317e-06,0
1.6105,1.1917e-05,0
1.611,1.3932e-05,0
1.6115,1.5946e-05,0
1.612,1.9974e-05,0
1.6125,2.4674e-05,0
1.613,2.8031e-05,0
1.6135,3.1388e-05,0
1.614,3.6423e-05,0
1.6145,3.9948e-05,0
1.615,4.0116e-05,0
1.6155,4.3809e-05,0
1.616,5.0355e-05,0
1.6165,5.2201e-05,0
1.617,5.2537e-05,0
1.6175,5.4719e-05,0
1.618,5.8076e-05,0
1.6185,5.8915e-05,0
1.619,5.6901e-05,0
1.6195,5.4215e-05,0
1.62,5.2537e-05,0
1.6205,5.2872e-05,0
1.621,5.1026e-05,0
1.6215,4.8844e-05,0
1.622,4.9348e-05,0
1.6225,4.9515e-05,0
1.623,4.6159e-05,0
1.6235,4.2802e-05,0
1.624,4.1627e-05,0
1.6245,4.0955e-05,0
1.625,3.9109e-05,0
1.6255,3.9445e-05,0
1.626,3.9445e-05,0
1.6265,3.827e-05,0
1.627,3.508e-05,0
1.6275,3.3738e-05,0
1.628,3.2731e-05,0
1.6285,3.1388e-05,0
1.629,3.2059e-05,0
1.6295,3.2731e-05,0
1.63,3.1724e-05,0
1.6305,3.1388e-05,0
1.631,3.1724e-05,0
1.6315,3.2059e-05,0
1.632,3.4241e-05,0
1.6325,3.7262e-05,0
1.633,3.8773e-05,0
1.6335,4.0284e-05,0
1.634,3.9445e-05,0
1.6345,3.4745e-05,0
1.635,3.1556e-05,0
1.6355,2.8367e-05,0
1.636,2.3499e-05,0
1.6365,1.7288e-05,0
1.637,1.1749e-05,0
1.6375,8.2246e-06,0
1.638,5.2033e-06,0
1.6385,3.0213e-06,0
1.639,2.5177e-06,0
1.6395,1.1749e-06,0
1.64,5.035e-07,0
1.6405,2.182e-06,0
1.641,5.0355e-06,0
1.6415,8.896e-06,0
1.642,1.1917e-05,0
1.6425,1.2253e-05,0
1.643,1.2085e-05,0
1.6435,1.4603e-05,0
1.644,1.7792e-05,0
1.6445,2.031e-05,0
1.645,2.0646e-05,0
1.6455,1.796e-05,0
1.646,1.3596e-05,0
1.6465,1.2589e-05,0
1.647,1.4603e-05,0
1.6475,1.4267e-05,0
1.648,1.3932e-05,0
1.6485,1.7121e-05,0
1.649,1.8631e-05,0
1.6495,1.7792e-05,0
1.65,1.5946e-05,0
1.6505,1.6281e-05,0
1.651,1.796e-05,0
1.6515,1.9135e-05,0
1.652,1.8967e-05,0
1.6525,1.6785e-05,0
1.653,1.6281e-05,0
1.6535,2.2156e-05,0
1.654,2.6688e-05,0
1.6545,2.7024e-05,0
1.655,2.9709e-05,0
1.6555,3.3402e-05,0
1.656,3.5416e-05,0
1.6565,3.6759e-05,0
1.657,3.3738e-05,0
1.6575,2.7359e-05,0
1.658,2.4338e-05,0
1.6585,2.4338e-05,0
1.659,2.6688e-05,0
1.6595,3.0549e-05,0
1.66,3.0549e-05,0
1.6605,2.7863e-05,0
1.661,2.7359e-05,0
1.6615,2.9374e-05,0
1.662,3.2731e-05,0
1.6625,3.5416e-05,0
1.663,3.3402e-05,0
1.6635,3.0381e-05,0
1.664,2.7863e-05,0
1.6645,2.4674e-05,0
1.665,2.2156e-05,0
1.6655,1.947e-05,0
1.666,1.6449e-05,0
1.6665,1.2924e-05,0
1.667,7.2175e-06,0
1.6675,3.1891e-06,0
1.668,5.2033e-06,0
1.6685,6.5461e-06,0
1.669,2.182e-06,0
1.6695,-2.5177e-06,0
1.67,-3.5248e-06,0
1.6705,-1.5106e-06,0
1.671,-2.182e-06,0
1.6715,-5.539e-06,0
1.672,-6.8818e-06,0
1.6725,-4.5319e-06,0
1.673,-1.1749e-06,0
1.6735,4.1962e-06,0
1.674,6.8818e-06,0
1.6745,6.8818e-06,0
1.675,5.539e-06,0
1.6755,7.8889e-06,0
1.676,1.3932e-05,0
1.6765,2.0981e-05,0
1.677,2.4674e-05,0
1.6775,2.3331e-05,0
1.678,2.4002e-05,0
1.6785,2.8031e-05,0
1.679,2.9374e-05,0
1.6795,2.6184e-05,0
1.68,2.1988e-05,0
1.6805,2.1317e-05,0
1.681,2.0646e-05,0
1.6815,1.8128e-05,0
1.682,1.8463e-05,0
1.6825,2.4338e-05,0
1.683,3.1724e-05,0
1.6835,3.7262e-05,0
1.684,3.9612e-05,0
1.6845,3.978e-05,0
1.685,3.9612e-05,0
1.6855,4.0116e-05,0
1.686,3.9445e-05,0
1.6865,3.9109e-05,0
1.687,4.0619e-05,0
1.6875,4.1795e-05,0
1.688,4.0955e-05,0
1.6885,3.6423e-05,0
1.689,2.9374e-05,0
1.6895,2.1149e-05,0
1.69,1.1917e-05,0
1.6905,4.5319e-06,0
1.691,4.1962e-06,0
1.6915,9.0639e-06,0
1.692,1.3764e-05,0
1.6925,1.4603e-05,0
1.693,1.1917e-05,0
1.6935,9.5674e-06,0
1.694,8.7282e-06,0
1.6945,9.5674e-06,0
1.695,1.1749e-05,0
1.6955,1.2589e-05,0
1.696,1.0239e-05,0
1.6965,8.7282e-06,0
1.697,6.5461e-06,0
1.6975,4.8676e-06,0
1.698,2.3499e-06,0
1.6985,-3.357e-07,0
1.699,-8.392e-07,0
1.6995,1.1749e-06,0
1.7,1.5106e-06,0
1.7005,-1.5106e-06,0
1.701,-4.6998e-06,0
1.7015,-5.2033e-06,0
1.702,-4.1962e-06,0
1.7025,-3.8605e-06,0
1.703,-3.8605e-06,0
1.7035,-2.3499e-06,0
1.704,-3.357e-07,0
1.7045,-6.714e-07,0
1.705,-1.8463e-06,0
1.7055,-8.392e-07,0
1.706,2.3499e-06,0
1.7065,6.8818e-06,0
1.707,1.0071e-05,0
1.7075,1.326e-05,0
1.708,1.9303e-05,0
1.7085,2.5009e-05,0
1.709,2.266e-05,0
1.7095,1.6281e-05,0
1.71,9.9031e-06,0
1.7105,7.8889e-06,0
1.711,1.2589e-05,0
1.7115,1.8967e-05,0
1.712,1.9303e-05,0
1.7125,1.7121e-05,0
1.713,1.5778e-05,0
1.7135,1.5946e-05,0
1.714,1.8631e-05,0
1.7145,2.4002e-05,0
1.715,3.0716e-05,0
1.7155,3.8102e-05,0
1.716,4.4144e-05,0
1.7165,4.5823e-05,0
1.717,4.448e-05,0
1.7175,3.978e-05,0
1.718,3.5416e-05,0
1.7185,3.4409e-05,0
1.719,3.2395e-05,0
1.7195,2.8534e-05,0
1.72,2.5177e-05,0
1.7205,2.3667e-05,0
1.721,2.417e-05,0
1.7215,2.417e-05,0
1.722,2.0646e-05,0
1.7225,1.7121e-05,0
1.723,1.6281e-05,0
1.7235,1.7288e-05,0
1.724,1.9135e-05,0
1.7245,2.3331e-05,0
1.725,2.5009e-05,0
1.7255,2.3163e-05,0
1.726,2.2995e-05,0
1.7265,2.5345e-05,0
1.727,2.7024e-05,0
1.7275,2.3667e-05,0
1.728,1.9806e-05,0
1.7285,1.8631e-05,0
1.729,1.796e-05,0
1.7295,1.6953e-05,0
1.73,1.3428e-05,0
1.7305,7.2175e-06,0
1.731,-8.392e-07,0
1.7315,-7.5532e-06,0
1.732,-1.1917e-05,0
1.7325,-1.4435e-05,0
1.733,-1.1749e-05,0
1.7335,-5.8747e-06,0
1.734,0,0
1.7345,7.8889e-06,0
1.735,1.5274e-05,0
1.7355,2.1149e-05,0
1.736,2.2324e-05,0
1.7365,2.1149e-05,0
1.737,2.266e-05,0
1.7375,2.4842e-05,0
1.738,2.8031e-05,0
1.7385,3.2731e-05,0
1.739,3.508e-05,0
1.7395,3.357e-05,0
1.74,3.1724e-05,0
1.7405,3.2059e-05,0
1.741,3.3066e-05,0
1.7415,3.0549e-05,0
1.742,2.7359e-05,0
1.7425,2.8367e-05,0
1.743,2.887e-05,0
1.7435,2.5345e-05,0
1.744,1.9303e-05,0
1.7445,1.6785e-05,0
1.745,1.6617e-05,0
1.7455,1.7624e-05,0
1.746,2.182e-05,0
1.7465,2.4674e-05,0
1.747,2.4002e-05,0
1.7475,2.4338e-05,0
1.748,2.652e-05,0
1.7485,3.1052e-05,0
1.749,3.6423e-05,0
1.7495,3.8437e-05,0
1.75,3.592e-05,0
1.7505,3.2563e-05,0
1.751,2.8031e-05,0
1.7515,2.266e-05,0
1.752,2.266e-05,0
1.7525,2.7024e-05,0
1.753,3.0884e-05,0
1.7535,3.2395e-05,0
1.754,2.8031e-05,0
1.7545,2.3331e-05,0
1.755,2.266e-05,0
1.7555,2.6017e-05,0
1.756,3.0045e-05,0
1.7565,3.2731e-05,0
1.757,3.3738e-05,0
1.7575,3.508e-05,0
1.758,3.357e-05,0
1.7585,2.8702e-05,0
1.759,2.5513e-05,0
1.7595,2.1653e-05,0
1.76,1.6281e-05,0
1.7605,1.4939e-05,0
1.761,1.6449e-05,0
1.7615,1.8128e-05,0
1.762,1.7121e-05,0
1.7625,1.7288e-05,0
1.763,1.8967e-05,0
1.7635,2.031e-05,0
1.764,2.1988e-05,0
1.7645,2.4674e-05,0
1.765,2.8702e-05,0
1.7655,3.2059e-05,0
1.766,3.3234e-05,0
1.7665,3.3066e-05,0
1.767,2.9374e-05,0
1.7675,2.3835e-05,0
1.768,1.7288e-05,0
1.7685,1.3596e-05,0
1.769,1.1246e-05,0
1.7695,9.0639e-06,0
1.77,8.3925e-06,0
1.7705,8.3925e-06,0
1.771,5.2033e-06,0
1.7715,1.678e-07,0
1.772,-3.1891e-06,0
1.7725,-4.8676e-06,0
1.773,-3.8605e-06,0
1.7735,-5.035e-07,0
1.774,1.5106e-06,0
1.7745,4.6998e-06,0
1.775,1.1246e-05,0
1.7755,1.7121e-05,0
1.776,2.0981e-05,0
1.7765,2.2995e-05,0
1.777,2.2828e-05,0
1.7775,2.1653e-05,0
1.778,2.0981e-05,0
1.7785,2.2156e-05,0
1.779,2.6352e-05,0
1.7795,3.1388e-05,0
1.78,3.6088e-05,0
1.7805,3.5752e-05,0
1.781,2.7359e-05,0
1.7815,1.4267e-05,0
1.782,3.1891e-06,0
1.7825,-2.8534e-06,0
1.783,-2.8534e-06,0
1.7835,2.182e-06,0
1.784,8.2246e-06,0
1.7845,1.326e-05,0
1.785,1.4939e-05,0
1.7855,1.1917e-05,0
1.786,1.1582e-05,0
1.7865,1.7121e-05,0
1.787,1.9974e-05,0
1.7875,1.9806e-05,0
1.788,2.1653e-05,0
1.7885,2.6184e-05,0
1.789,3.0213e-05,0
1.7895,3.122e-05,0
1.79,2.9374e-05,0
1.7905,2.7192e-05,0
1.791,2.1988e-05,0
1.7915,1.3596e-05,0
1.792,2.3499e-06,0
1.7925,-5.0355e-06,0
1.793,-4.5319e-06,0
1.7935,2.5177e-06,0
1.794,1.0239e-05,0
1.7945,1.2924e-05,0
1.795,1.1917e-05,0
1.7955,1.0575e-05,0
1.796,1.1078e-05,0
1.7965,1.1582e-05,0
1.797,9.5674e-06,0
1.7975,9.0639e-06,0
1.798,1.3764e-05,0
1.7985,1.9638e-05,0
1.799,2.5177e-05,0
1.7995,2.8031e-05,0
1.8,2.6017e-05,0
1.8005,2.1653e-05,0
1.801,1.796e-05,0
1.8015,1.561e-05,0
1.802,1.4435e-05,0
1.8025,1.1078e-05,0
1.803,7.3854e-06,0
1.8035,8.2246e-06,0
1.804,1.2421e-05,0
1.8045,1.326e-05,0
1.805,1.1917e-05,0
1.8055,1.1582e-05,0
1.806,1.2589e-05,0
1.8065,1.8631e-05,0
1.807,2.9542e-05,0
1.8075,3.9277e-05,0
1.808,4.6494e-05,0
1.8085,5.0858e-05,0
1.809,5.3208e-05,0
1.8095,5.3544e-05,0
1.81,5.0187e-05,0
1.8105,4.1123e-05,0
1.811,3.1052e-05,0
1.8115,2.4002e-05,0
1.812,1.8463e-05,0
1.8125,1.4771e-05,0
1.813,1.5106e-05,0
1.8135,1.6953e-05,0
1.814,1.9303e-05,0
1.8145,1.8967e-05,0
1.815,1.9303e-05,0
1.8155,2.1317e-05,0
1.816,1.9806e-05,0
1.8165,1.8296e-05,0
1.817,2.1988e-05,0
1.8175,2.9877e-05,0
1.818,3.8773e-05,0
1.8185,4.5487e-05,0
1.819,5.0858e-05,0
1.8195,5.8244e-05,0
1.82,6.3447e-05,0
1.8205,6.2944e-05,0
1.821,6.1936e-05,0
1.8215,6.009e-05,0
1.822,5.6733e-05,0
1.8225,5.4887e-05,0
1.823,5.4551e-05,0
1.8235,5.2201e-05,0
1.824,5.0355e-05,0
1.8245,4.7837e-05,0
1.825,4.4144e-05,0
1.8255,4.0116e-05,0
1.826,3.7598e-05,0
1.8265,3.5752e-05,0
1.827,3.0045e-05,0
1.8275,2.0646e-05,0
1.828,1.1917e-05,0
1.8285,7.2175e-06,0
1.829,5.0355e-06,0
1.8295,3.1891e-06,0
1.83,1.1749e-06,0
1.8305,-2.8534e-06,0
1.831,-6.2104e-06,0
1.8315,-6.8818e-06,0
1.832,-6.3783e-06,0
1.8325,-7.2175e-06,0
1.833,-1.1414e-05,0
1.8335,-1.6281e-05,0
1.834,-1.6953e-05,0
1.8345,-1.2924e-05,0
1.835,-8.2246e-06,0
1.8355,-3.8605e-06,0
1.836,-3.5248e-06,0
1.8365,-6.5461e-06,0
1.837,-8.7282e-06,0
1.8375,-1.0239e-05,0
1.838,-9.5674e-06,0
1.8385,-7.2175e-06,0
1.839,-5.2033e-06,0
1.8395,-1.5106e-06,0
1.84,1.6785e-06,0
1.8405,4.5319e-06,0
1.841,8.0568e-06,0
1.8415,1.1917e-05,0
1.842,1.2421e-05,0
1.8425,1.0407e-05,0
1.843,1.0575e-05,0
1.8435,1.1246e-05,0
1.844,1.0239e-05,0
1.8445,8.3925e-06,0
1.845,7.7211e-06,0
1.8455,5.7069e-06,0
1.846,2.182e-06,0
1.8465,-2.182e-06,0
1.847,-5.7069e-06,0
1.8475,-1.0407e-05,0
1.848,-1.2421e-05,0
1.8485,-8.5603e-06,0
1.849,-2.182e-06,0
1.8495,7.2175e-06,0
1.85,1.3932e-05,0
1.8505,1.2924e-05,0
1.851,1.0575e-05,0
1.8515,1.3596e-05,0
1.852,1.8631e-05,0
1.8525,2.4338e-05,0
1.853,3.0716e-05,0
1.8535,3.7766e-05,0
1.854,4.213e-05,0
1.8545,4.1459e-05,0
1.855,3.8605e-05,0
1.8555,3.6759e-05,0
1.856,3.2731e-05,0
1.8565,2.8367e-05,0
1.857,2.4002e-05,0
1.8575,2.1317e-05,0
1.858,2.0646e-05,0
1.8585,2.1317e-05,0
1.859,2.4674e-05,0
1.8595,2.6017e-05,0
1.86,1.9806e-05,0
1.8605,1.1917e-05,0
1.861,1.1917e-05,0
1.8615,1.9638e-05,0
1.862,2.5681e-05,0
1.8625,2.8702e-05,0
1.863,3.1388e-05,0
1.8635,3.3066e-05,0
1.864,3.2059e-05,0
1.8645,3.1388e-05,0
1.865,2.6017e-05,0
1.8655,1.5442e-05,0
1.866,1.6785e-06,0
1.8665,-9.7353e-06,0
1.867,-1.4267e-05,0
1.8675,-1.1078e-05,0
1.868,-8.392e-07,0
1.8685,1.4267e-05,0
1.869,3.0716e-05,0
1.8695,4.1962e-05,0
1.87,4.4816e-05,0
1.8705,4.1962e-05,0
1.871,3.8102e-05,0
1.8715,3.592e-05,0
1.872,3.3738e-05,0
1.8725,3.0045e-05,0
1.873,2.7863e-05,0
1.8735,2.7024e-05,0
1.874,2.5177e-05,0
1.8745,2.3667e-05,0
1.875,2.3163e-05,0
1.8755,2.3835e-05,0
1.876,2.5345e-05,0
1.8765,2.7695e-05,0
1.877,3.0549e-05,0
1.8775,3.6927e-05,0
1.878,4.2466e-05,0
1.8785,4.4144e-05,0
1.879,4.1123e-05,0
1.8795,3.6423e-05,0
1.88,3.1052e-05,0
1.8805,2.5513e-05,0
1.881,1.9974e-05,0
1.8815,1.6617e-05,0
1.882,1.4267e-05,0
1.8825,9.9031e-06,0
1.883,6.714e-06,0
1.8835,9.2317e-06,0
1.884,1.2085e-05,0
1.8845,1.1246e-05,0
1.885,1.2589e-05,0
1.8855,1.7792e-05,0
1.886,2.2995e-05,0
1.8865,2.5681e-05,0
1.887,2.8031e-05,0
1.8875,3.2731e-05,0
1.888,3.7095e-05,0
1.8885,3.5416e-05,0
1.889,3.0045e-05,0
1.8895,2.5177e-05,0
1.89,2.4674e-05,0
1.8905,2.8031e-05,0
1.891,3.1388e-05,0
1.8915,3.4745e-05,0
1.892,3.9445e-05,0
1.8925,4.1123e-05,0
1.893,4.0116e-05,0
1.8935,3.8605e-05,0
1.894,3.8437e-05,0
1.8945,3.8102e-05,0
1.895,3.6591e-05,0
1.8955,3.2059e-05,0
1.896,2.4002e-05,0
1.8965,1.7456e-05,0
1.897,1.5946e-05,0
1.8975,1.8631e-05,0
1.898,2.1149e-05,0
1.8985,2.1317e-05,0
1.899,1.9303e-05,0
1.8995,1.8631e-05,0
1.9,1.6617e-05,0
1.9005,7.8889e-06,0
1.901,-7.3854e-06,0
1.9015,-1.947e-05,0
1.902,-2.6352e-05,0
1.9025,-3.2731e-05,0
1.903,-3.2395e-05,0
1.9035,-2.2492e-05,0
1.904,-1.0575e-05,0
1.9045,-4.1962e-06,0
1.905,-1.6785e-06,0
1.9055,1.1749e-06,0
1.906,4.1962e-06,0
1.9065,7.8889e-06,0
1.907,1.3932e-05,0
1.9075,2.0981e-05,0
1.908,2.5681e-05,0
1.9085,2.7863e-05,0
1.909,2.7359e-05,0
1.9095,2.4674e-05,0
1.91,2.2492e-05,0
1.9105,2.2324e-05,0
1.911,2.2995e-05,0
1.9115,2.4842e-05,0
1.912,2.8031e-05,0
1.9125,2.9206e-05,0
1.913,2.7863e-05,0
1.9135,2.5681e-05,0
1.914,2.6017e-05,0
1.9145,2.8367e-05,0
1.915,3.0716e-05,0
1.9155,3.2059e-05,0
1.916,3.0716e-05,0
1.9165,2.7863e-05,0
1.917,2.2156e-05,0
1.9175,1.796e-05,0
1.918,1.6449e-05,0
1.9185,1.6953e-05,0
1.919,1.9638e-05,0
1.9195,2.3667e-05,0
1.92,2.7527e-05,0
1.9205,2.887e-05,0
1.921,2.6688e-05,0
1.9215,2.1317e-05,0
1.922,1.1246e-05,0
1.9225,3.8605e-06,0
1.923,7.0497e-06,0
1.9235,1.2589e-05,0
1.924,1.326e-05,0
1.9245,1.2253e-05,0
1.925,1.4435e-05,0
1.9255,1.8128e-05,0
1.926,1.9806e-05,0
1.9265,2.1317e-05,0
1.927,2.3835e-05,0
1.9275,2.3667e-05,0
1.928,2.4002e-05,0
1.9285,2.1988e-05,0
1.929,1.8967e-05,0
1.9295,1.7792e-05,0
1.93,1.3596e-05,0
1.9305,6.5461e-06,0
1.931,1.8463e-06,0
1.9315,-2.182e-06,0
1.932,-4.1962e-06,0
1.9325,-3.1891e-06,0
1.933,0,0
1.9335,3.357e-06,0
1.934,4.8676e-06,0
1.9345,4.1962e-06,0
1.935,4.1962e-06,0
1.9355,3.5248e-06,0
1.936,1.8463e-06,0
1.9365,5.035e-07,0
1.937,5.035e-07,0
1.9375,8.392e-07,0
1.938,-1.6785e-06,0
1.9385,-5.539e-06,0
1.939,-9.9031e-06,0
1.9395,-1.2924e-05,0
1.94,-1.4603e-05,0
1.9405,-1.1582e-05,0
1.941,-6.3783e-06,0
1.9415,-6.8818e-06,0
1.942,-9.3996e-06,0
1.9425,-6.8818e-06,0
1.943,-1.8463e-06,0
1.9435,1.8463e-06,0
1.944,3.8605e-06,0
1.9445,6.2104e-06,0
1.945,1.0575e-05,0
1.9455,1.796e-05,0
1.946,2.3331e-05,0
1.9465,2.5681e-05,0
1.947,2.652e-05,0
1.9475,2.4674e-05,0
1.948,2.4674e-05,0
1.9485,2.7192e-05,0
1.949,3.0716e-05,0
1.9495,3.7262e-05,0
1.95,4.3977e-05,0
1.9505,4.8173e-05,0
1.951,5.2201e-05,0
1.9515,5.8412e-05,0
1.952,6.4286e-05,0
1.9525,7.1672e-05,0
1.953,7.7546e-05,0
1.9535,7.9393e-05,0
1.954,7.7882e-05,0
1.9545,7.5029e-05,0
1.955,7.1672e-05,0
1.9555,7.1504e-05,0
1.956,7.0329e-05,0
1.9565,6.3279e-05,0
1.957,5.4551e-05,0
1.9575,4.8173e-05,0
1.958,4.1962e-05,0
1.9585,3.3738e-05,0
1.959,2.5681e-05,0
1.9595,1.7456e-05,0
1.96,9.5674e-06,0
1.9605,5.8747e-06,0
1.961,7.8889e-06,0
1.9615,1.2924e-05,0
1.962,1.7456e-05,0
1.9625,1.6785e-05,0
1.963,1.3596e-05,0
1.9635,1.5778e-05,0
1.964,2.266e-05,0
1.9645,2.8367e-05,0
1.965,3.2059e-05,0
1.9655,3.6759e-05,0
1.966,4.1459e-05,0
1.9665,4.683e-05,0
1.967,5.0858e-05,0
1.9675,4.7333e-05,0
1.968,3.8773e-05,0
1.9685,3.2059e-05,0
1.969,3.2898e-05,0
1.9695,3.8773e-05,0
1.97,4.213e-05,0
1.9705,4.1291e-05,0
1.971,3.9277e-05,0
1.9715,3.6759e-05,0
1.972,3.0884e-05,0
1.9725,2.2995e-05,0
1.973,1.5274e-05,0
1.9735,8.896e-06,0
1.974,4.5319e-06,0
1.9745,2.5177e-06,0
1.975,3.5248e-06,0
1.9755,3.1891e-06,0
1.976,3.357e-07,0
1.9765,-2.6856e-06,0
1.977,-2.5177e-06,0
1.9775,-2.182e-06,0
1.978,-4.1962e-06,0
1.9785,-6.0426e-06,0
1.979,-6.8818e-06,0
1.9795,-5.0355e-06,0
1.98,5.035e-07,0
1.9805,5.0355e-06,0
1.981,8.0568e-06,0
1.9815,1.2924e-05,0
1.982,1.7288e-05,0
1.9825,1.8631e-05,0
1.983,1.947e-05,0
1.9835,2.0813e-05,0
1.984,1.9974e-05,0
1.9845,1.5946e-05,0
1.985,1.1414e-05,0
1.9855,9.0639e-06,0
1.986,9.9031e-06,0
1.9865,1.1414e-05,0
1.987,1.2924e-05,0
1.9875,1.2924e-05,0
1.988,1.091e-05,0
1.9885,5.539e-06,0
1.989,-1.5106e-06,0
1.9895,-4.8676e-06,0
1.99,-3.8605e-06,0
1.9905,8.392e-07,0
1.991,8.896e-06,0
1.9915,1.5274e-05,0
1.992,1.5946e-05,0
1.9925,1.5274e-05,0
1.993,1.2253e-05,0
1.9935,6.8818e-06,0
1.994,4.8676e-06,0
1.9945,5.8747e-06,0
1.995,5.2033e-06,0
1.9955,6.5461e-06,0
1.996,9.2317e-06,0
1.9965,1.1917e-05,0
1.997,1.5274e-05,0
1.9975,1.5946e-05,0
1.998,1.2589e-05,0
1.9985,9.5674e-06,0
1.999,9.2317e-06,0
1.9995,7.8889e-06,0
2,7.3854e-06,0
2.0005,1.1582e-05,0
2.001,1.6953e-05,0
2.0015,2.1317e-05,0
2.002,2.7024e-05,0
2.0025,2.8702e-05,0
2.003,2.4002e-05,0
2.0035,1.7288e-05,0
2.004,1.1917e-05,0
2.0045,7.2175e-06,0
2.005,3.1891e-06,0
2.0055,3.8605e-06,0
2.006,8.2246e-06,0
2.0065,1.0575e-05,0
2.007,9.9031e-06,0
2.0075,1.0575e-05,0
2.008,1.2253e-05,0
2.0085,1.6281e-05,0
2.009,2.1149e-05,0
2.0095,2.6017e-05,0
2.01,2.8031e-05,0
2.0105,2.887e-05,0
2.011,3.1052e-05,0
2.0115,3.1388e-05,0
2.012,2.8199e-05,0
2.0125,2.3835e-05,0
2.013,2.1317e-05,0
2.0135,2.3331e-05,0
2.014,2.4674e-05,0
2.0145,2.0646e-05,0
2.015,1.2757e-05,0
2.0155,7.7211e-06,0
2.016,7.8889e-06,0
2.0165,1.326e-05,0
2.017,1.6617e-05,0
2.0175,1.6953e-05,0
2.018,2.0646e-05,0
2.0185,2.6352e-05,0
2.019,3.0381e-05,0
2.0195,3.2059e-05,0
2.02,3.3066e-05,0
2.0205,3.6927e-05,0
2.021,3.8773e-05,0
2.0215,3.508e-05,0
2.022,3.2059e-05,0
2.0225,2.7192e-05,0
2.023,1.8631e-05,0
2.0235,1.326e-05,0
2.024,1.091e-05,0
2.0245,9.5674e-06,0
2.025,1.0407e-05,0
2.0255,1.3596e-05,0
2.026,2.0478e-05,0
2.0265,2.9877e-05,0
2.027,3.827e-05,0
2.0275,4.1627e-05,0
2.028,4.0787e-05,0
2.0285,3.8773e-05,0
2.029,3.743e-05,0
2.0295,3.6423e-05,0
2.03,3.4745e-05,0
2.0305,3.5416e-05,0
2.031,3.9109e-05,0
2.0315,4.0787e-05,0
2.032,3.9445e-05,0
2.0325,3.5416e-05,0
2.033,3.0045e-05,0
2.0335,2.3331e-05,0
2.034,1.1582e-05,0
2.0345,-5.035e-07,0
2.035,-5.0355e-06,0
2.0355,-1.678e-07,0
2.036,1.0575e-05,0
2.0365,1.5106e-05,0
2.037,1.0575e-05,0
2.0375,6.8818e-06,0
2.038,1.1414e-05,0
2.0385,1.9303e-05,0
2.039,2.4002e-05,0
2.0395,2.4002e-05,0
2.04,2.031e-05,0
2.0405,1.5946e-05,0
2.041,1.1582e-05,0
2.0415,9.2317e-06,0
2.042,8.0568e-06,0
2.0425,5.7069e-06,0
2.043,3.5248e-06,0
2.0435,3.8605e-06,0
2.044,6.5461e-06,0
2.0445,9.2317e-06,0
2.045,1.5274e-05,0
2.0455,1.9974e-05,0
2.046,2.0981e-05,0
2.0465,2.3331e-05,0
2.047,2.7527e-05,0
2.0475,3.2059e-05,0
2.048,3.5752e-05,0
2.0485,3.5752e-05,0
2.049,3.357e-05,0
2.0495,3.122e-05,0
2.05,2.9374e-05,0
2.0505,2.9709e-05,0
2.051,2.9374e-05,0
2.0515,2.8702e-05,0
2.052,3.0213e-05,0
2.0525,3.122e-05,0
2.053,3.0716e-05,0
2.0535,2.8367e-05,0
2.054,2.5513e-05,0
2.0545,2.2995e-05,0
2.055,1.9974e-05,0
2.0555,1.5946e-05,0
2.056,1.2085e-05,0
2.0565,1.0239e-05,0
2.057,7.8889e-06,0
2.0575,5.3712e-06,0
2.058,5.8747e-06,0
2.0585,7.3854e-06,0
2.059,1.1246e-05,0
2.0595,1.6281e-05,0
2.06,1.7288e-05,0
2.0605,1.7288e-05,0
2.061,1.9806e-05,0
2.0615,2.1988e-05,0
2.062,2.0813e-05,0
2.0625,2.1317e-05,0
2.063,2.7024e-05,0
2.0635,3.0884e-05,0
2.064,3.3738e-05,0
2.0645,3.508e-05,0
2.065,3.2731e-05,0
2.0655,2.8702e-05,0
2.066,2.6688e-05,0
2.0665,2.7359e-05,0
2.067,2.6352e-05,0
2.0675,2.3163e-05,0
2.068,2.2995e-05,0
2.0685,2.9038e-05,0
2.069,3.5416e-05,0
2.0695,4.0116e-05,0
2.07,4.1962e-05,0
2.0705,4.213e-05,0
2.071,4.1459e-05,0
2.0715,3.9445e-05,0
2.072,3.8437e-05,0
2.0725,3.9109e-05,0
2.073,3.6088e-05,0
2.0735,2.7359e-05,0
2.074,1.8967e-05,0
2.0745,1.0407e-05,0
2.075,3.8605e-06,0
2.0755,-1.678e-07,0
2.076,-1.0071e-06,0
2.0765,1.5106e-06,0
2.077,6.5461e-06,0
2.0775,1.2924e-05,0
2.078,1.6617e-05,0
2.0785,1.3596e-05,0
2.079,9.2317e-06,0
2.0795,9.7353e-06,0
2.08,1.2421e-05,0
2.0805,1.2085e-05,0
2.081,1.1749e-05,0
2.0815,1.0575e-05,0
2.082,9.9031e-06,0
2.0825,1.1582e-05,0
2.083,1.0239e-05,0
2.0835,6.8818e-06,0
2.084,8.5603e-06,0
2.0845,1.1246e-05,0
2.085,9.5674e-06,0
2.0855,6.5461e-06,0
2.086,5.0355e-06,0
2.0865,4.5319e-06,0
2.087,2.3499e-06,0
2.0875,-2.0142e-06,0
2.088,-5.8747e-06,0
2.0885,-6.2104e-06,0
2.089,-3.0213e-06,0
2.0895,-8.392e-07,0
2.09,-1.6785e-06,0
2.0905,-3.0213e-06,0
2.091,-2.5177e-06,0
2.0915,-3.8605e-06,0
2.092,-3.5248e-06,0
2.0925,2.0142e-06,0
2.093,1.091e-05,0
2.0935,1.7121e-05,0
2.094,1.7288e-05,0
2.0945,1.5106e-05,0
2.095,1.5946e-05,0
2.0955,1.947e-05,0
2.096,1.8967e-05,0
2.0965,1.4267e-05,0
2.097,1.1582e-05,0
2.0975,1.0575e-05,0
2.098,9.7353e-06,0
2.0985,1.1246e-05,0
2.099,1.326e-05,0
2.0995,1.5778e-05,0
2.1,1.9974e-05,0
2.1005,2.5009e-05,0
2.101,3.2395e-05,0
2.1015,3.9109e-05,0
2.102,4.0284e-05,0
2.1025,3.6759e-05,0
2.103,3.3738e-05,0
2.1035,3.3402e-05,0
2.104,3.6759e-05,0
2.1045,4.0955e-05,0
2.105,3.9948e-05,0
2.1055,3.1891e-05,0
2.106,1.8631e-05,0
2.1065,6.5461e-06,0
2.107,-2.8534e-06,0
2.1075,-1.091e-05,0
2.108,-1.4435e-05,0
2.1085,-9.9031e-06,0
2.109,8.392e-07,0
2.1095,1.326e-05,0
2.11,2.3163e-05,0
2.1105,2.5681e-05,0
2.111,2.2324e-05,0
2.1115,2.0981e-05,0
2.112,2.5177e-05,0
2.1125,2.9877e-05,0
2.113,3.1388e-05,0
2.1135,3.1724e-05,0
2.114,3.2059e-05,0
2.1145,3.3738e-05,0
2.115,3.6088e-05,0
2.1155,3.7262e-05,0
2.116,3.743e-05,0
2.1165,3.827e-05,0
2.117,3.9445e-05,0
2.1175,4.1291e-05,0
2.118,4.5151e-05,0
2.1185,5.2033e-05,0
2.119,5.7572e-05,0
2.1195,6.1265e-05,0
2.12,6.3783e-05,0
2.1205,6.5629e-05,0
2.121,6.4958e-05,0
2.1215,6.4286e-05,0
2.122,6.5126e-05,0
2.1225,6.5629e-05,0
2.123,6.4958e-05,0
2.1235,6.5293e-05,0
2.124,6.7308e-05,0
2.1245,6.5126e-05,0
2.125,5.8244e-05,0
2.1255,5.1865e-05,0
2.126,5.0187e-05,0
2.1265,4.6998e-05,0
2.127,3.7262e-05,0
2.1275,2.5681e-05,0
2.128,1.6953e-05,0
2.1285,1.6449e-05,0
2.129,2.1653e-05,0
2.1295,2.4674e-05,0
2.13,1.7456e-05,0
2.1305,2.0142e-06,0
2.131,-1.3932e-05,0
2.1315,-2.5849e-05,0
2.132,-3.4745e-05,0
2.1325,-4.0116e-05,0
2.133,-4.0787e-05,0
2.1335,-3.7598e-05,0
2.134,-3.3234e-05,0
2.1345,-3.1724e-05,0
2.135,-3.3738e-05,0
2.1355,-3.2731e-05,0
2.136,-2.8702e-05,0
2.1365,-2.9038e-05,0
2.137,-3.508e-05,0
2.1375,-3.9948e-05,0
2.138,-4.1962e-05,0
2.1385,-3.9445e-05,0
2.139,-2.9877e-05,0
2.1395,-1.796e-05,0
2.14,-7.0497e-06,0
2.1405,5.035e-07,0
2.141,2.0142e-06,0
2.1415,4.1962e-06,0
2.142,1.326e-05,0
2.1425,2.3667e-05,0
2.143,2.7863e-05,0
2.1435,2.8534e-05,0
2.144,2.8702e-05,0
2.1445,2.8702e-05,0
2.145,2.6688e-05,0
2.1455,2.5009e-05,0
2.146,2.7192e-05,0
2.1465,3.5416e-05,0
2.147,4.4648e-05,0
2.1475,4.9515e-05,0
2.148,4.7837e-05,0
2.1485,4.1459e-05,0
2.149,3.4913e-05,0
2.1495,3.0381e-05,0
2.15,2.6184e-05,0
2.1505,2.5345e-05,0
2.151,2.6184e-05,0
2.1515,2.4674e-05,0
2.152,2.1653e-05,0
2.1525,1.8631e-05,0
2.153,1.4771e-05,0
2.1535,1.0575e-05,0
2.154,8.7282e-06,0
2.1545,8.896e-06,0
2.155,1.0407e-05,0
2.1555,1.1246e-05,0
2.156,1.2253e-05,0
2.1565,1.2589e-05,0
2.157,1.2757e-05,0
2.1575,1.2924e-05,0
2.158,1.326e-05,0
2.1585,1.5946e-05,0
2.159,2.031e-05,0
2.1595,2.1988e-05,0
2.16,2.3835e-05,0
2.1605,2.7359e-05,0
2.161,2.6688e-05,0
2.1615,2.4002e-05,0
2.162,1.8967e-05,0
2.1625,1.2253e-05,0
2.163,1.1917e-05,0
2.1635,2.031e-05,0
2.164,2.5513e-05,0
2.1645,2.266e-05,0
2.165,2.4002e-05,0
2.1655,2.8367e-05,0
2.166,2.7695e-05,0
2.1665,1.9303e-05,0
2.167,9.5674e-06,0
2.1675,7.5532e-06,0
2.168,1.3932e-05,0
2.1685,2.2324e-05,0
2.169,2.7863e-05,0
2.1695,3.1388e-05,0
2.17,3.2059e-05,0
2.1705,3.0716e-05,0
2.171,2.4338e-05,0
2.1715,1.8631e-05,0
2.172,1.4435e-05,0
2.1725,1.0239e-05,0
2.173,9.5674e-06,0
2.1735,1.4267e-05,0
2.174,1.8296e-05,0
2.1745,2.0981e-05,0
2.175,2.7024e-05,0
2.1755,3.5752e-05,0
2.176,4.1962e-05,0
2.1765,4.213e-05,0
2.177,3.5248e-05,0
2.1775,2.7024e-05,0
2.178,1.9303e-05,0
2.1785,1.326e-05,0
2.179,1.326e-05,0
2.1795,1.5778e-05,0
2.18,1.2924e-05,0
2.1805,8.896e-06,0
2.181,1.0575e-05,0
2.1815,1.8631e-05,0
2.182,2.8702e-05,0
2.1825,3.6759e-05,0
2.183,4.3641e-05,0
2.1835,4.7837e-05,0
2.184,4.8844e-05,0
2.1845,4.7501e-05,0
2.185,4.6159e-05,0
2.1855,4.4816e-05,0
2.186,4.2466e-05,0
2.1865,4.1123e-05,0
2.187,3.7766e-05,0
2.1875,2.9709e-05,0
2.188,2.4002e-05,0
2.1885,2.3667e-05,0
2.189,3.0381e-05,0
2.1895,3.508e-05,0
2.19,3.3066e-05,0
2.1905,3.0381e-05,0
2.191,3.5248e-05,0
2.1915,4.4144e-05,0
2.192,5.0523e-05,0
2.1925,4.9851e-05,0
2.193,4.1795e-05,0
2.1935,3.0381e-05,0
2.194,1.947e-05,0
2.1945,9.9031e-06,0
2.195,-5.2033e-06,0
2.1955,-1.796e-05,0
2.196,-1.9974e-05,0
2.1965,-1.8967e-05,0
2.197,-1.9974e-05,0
2.1975,-2.0813e-05,0
2.198,-1.6281e-05,0
2.1985,-9.7353e-06,0
2.199,-4.8676e-06,0
2.1995,-1.8463e-06,0
2.2,-2.182e-06,0
2.2005,-3.8605e-06,0
2.201,-3.5248e-06,0
2.2015,-3.0213e-06,0
2.202,-3.1891e-06,0
2.2025,-2.8534e-06,0
2.203,-6.2104e-06,0
2.2035,-1.0071e-05,0
2.204,-6.5461e-06,0
2.2045,1.678e-07,0
2.205,7.2175e-06,0
2.2055,1.326e-05,0
2.206,1.7121e-05,0
2.2065,1.9974e-05,0
2.207,2.4002e-05,0
2.2075,2.8031e-05,0
2.208,3.1052e-05,0
2.2085,3.2563e-05,0
2.209,3.3402e-05,0
2.2095,3.4745e-05,0
2.21,3.743e-05,0
2.2105,3.7934e-05,0
2.211,3.4241e-05,0
2.2115,2.9709e-05,0
2.212,3.1724e-05,0
2.2125,3.7766e-05,0
2.213,4.1962e-05,0
2.2135,4.3641e-05,0
2.214,4.4648e-05,0
2.2145,4.5487e-05,0
2.215,4.3809e-05,0
2.2155,3.9612e-05,0
2.216,3.4409e-05,0
2.2165,2.8534e-05,0
2.217,2.182e-05,0
2.2175,1.5778e-05,0
2.218,1.2589e-05,0
2.2185,1.0575e-05,0
2.219,6.5461e-06,0
2.2195,3.1891e-06,0
2.22,3.1891e-06,0
2.2205,5.2033e-06,0
2.221,6.0426e-06,0
2.2215,4.5319e-06,0
2.222,3.8605e-06,0
2.2225,4.5319e-06,0
2.223,4.6998e-06,0
2.2235,7.2175e-06,0
2.224,1.3596e-05,0
2.2245,2.1988e-05,0
2.225,2.6352e-05,0
2.2255,2.9038e-05,0
2.226,3.1724e-05,0
2.2265,3.2898e-05,0
2.227,3.1388e-05,0
2.2275,2.8367e-05,0
2.228,2.5345e-05,0
2.2285,2.3835e-05,0
2.229,2.1653e-05,0
2.2295,1.8631e-05,0
2.23,1.5946e-05,0
2.2305,1.4939e-05,0
2.231,1.5946e-05,0
2.2315,1.7624e-05,0
2.232,1.8631e-05,0
2.2325,2.1149e-05,0
2.233,2.6017e-05,0
2.2335,2.8702e-05,0
2.234,2.4002e-05,0
2.2345,1.796e-05,0
2.235,2.266e-05,0
2.2355,3.6591e-05,0
2.236,5.3208e-05,0
2.2365,6.3951e-05,0
2.237,6.6804e-05,0
2.2375,6.2776e-05,0
2.238,5.4887e-05,0
2.2385,4.7166e-05,0
2.239,3.7766e-05,0
2.2395,2.0646e-05,0
2.24,-2.6856e-06,0
2.2405,-2.5177e-05,0
2.241,-3.1891e-05,0
2.2415,-1.5946e-05,0
2.242,2.5177e-06,0
2.2425,8.3925e-06,0
2.243,5.2033e-06,0
2.2435,4.3641e-06,0
2.244,6.8818e-06,0
2.2445,9.9031e-06,0
2.245,1.1917e-05,0
2.2455,1.2924e-05,0
2.246,1.2924e-05,0
2.2465,1.0407e-05,0
2.247,7.8889e-06,0
2.2475,6.2104e-06,0
2.248,5.539e-06,0
2.2485,7.5532e-06,0
2.249,1.2253e-05,0
2.2495,1.4603e-05,0
2.25,1.4435e-05,0
2.2505,1.3932e-05,0
2.251,1.0407e-05,0
2.2515,7.5532e-06,0
2.252,6.714e-06,0
2.2525,1.3428e-06,0
2.253,-7.7211e-06,0
2.2535,-1.091e-05,0
2.254,-5.8747e-06,0
2.2545,5.035e-07,0
2.255,1.5106e-06,0
2.2555,0,0
2.256,-2.8534e-06,0
2.2565,-8.392e-07,0
2.257,5.3712e-06,0
2.2575,1.0575e-05,0
2.258,1.6617e-05,0
2.2585,2.4002e-05,0
2.259,3.1388e-05,0
2.2595,3.3906e-05,0
2.26,3.122e-05,0
2.2605,2.7527e-05,0
2.261,2.5681e-05,0
2.2615,2.5849e-05,0
2.262,2.7695e-05,0
2.2625,2.8367e-05,0
2.263,2.9038e-05,0
2.2635,3.4073e-05,0
2.264,4.1459e-05,0
2.2645,4.3809e-05,0
2.265,3.9277e-05,0
2.2655,3.4745e-05,0
2.266,3.3402e-05,0
2.2665,2.9374e-05,0
2.267,2.4002e-05,0
2.2675,2.3835e-05,0
2.268,2.9206e-05,0
2.2685,3.7262e-05,0
2.269,4.2802e-05,0
2.2695,4.1459e-05,0
2.27,4.1123e-05,0
2.2705,4.1459e-05,0
2.271,3.4241e-05,0
2.2715,2.8031e-05,0
2.272,2.7695e-05,0
2.2725,3.0716e-05,0
2.273,3.1052e-05,0
2.2735,2.5009e-05,0
2.274,2.0813e-05,0
2.2745,2.031e-05,0
2.275,1.6617e-05,0
2.2755,8.7282e-06,0
2.276,2.0142e-06,0
2.2765,5.035e-07,0
2.277,-8.392e-07,0
2.2775,-1.5106e-06,0
2.278,-3.8605e-06,0
2.2785,-6.8818e-06,0
2.279,-8.3925e-06,0
2.2795,-4.1962e-06,0
2.28,2.8534e-06,0
2.2805,6.0426e-06,0
2.281,1.8463e-06,0
2.2815,-4.5319e-06,0
2.282,-5.7069e-06,0
2.2825,-2.182e-06,0
2.283,3.8605e-06,0
2.2835,8.3925e-06,0
2.284,9.5674e-06,0
2.2845,1.1917e-05,0
2.285,1.6449e-05,0
2.2855,2.1653e-05,0
2.286,2.7527e-05,0
2.2865,3.4409e-05,0
2.287,3.9445e-05,0
2.2875,4.0619e-05,0
2.288,4.0116e-05,0
2.2885,3.743e-05,0
2.289,3.3066e-05,0
2.2895,2.5849e-05,0
2.29,1.8463e-05,0
2.2905,1.7121e-05,0
2.291,1.9135e-05,0
2.2915,2.3331e-05,0
2.292,2.8702e-05,0
2.2925,3.1388e-05,0
2.293,2.7527e-05,0
2.2935,2.0478e-05,0
2.294,1.8128e-05,0
2.2945,2.4338e-05,0
2.295,3.2059e-05,0
2.2955,3.4577e-05,0
2.296,3.508e-05,0
2.2965,4.0452e-05,0
2.297,4.8508e-05,0
2.2975,5.2872e-05,0
2.298,5.3544e-05,0
2.2985,5.5222e-05,0
2.299,5.9922e-05,0
2.2995,6.0929e-05,0
2.3,5.4551e-05,0
2.3005,4.4816e-05,0
2.301,3.8605e-05,0
2.3015,3.0716e-05,0
2.302,2.0981e-05,0
2.3025,1.7288e-05,0
2.303,2.1317e-05,0
2.3035,2.5513e-05,0
2.304,2.3331e-05,0
2.3045,1.7288e-05,0
2.305,1.5946e-05,0
2.3055,1.6617e-05,0
2.306,1.3596e-05,0
2.3065,8.5603e-06,0
2.307,1.0071e-06,0
2.3075,-5.539e-06,0
2.308,-1.0575e-05,0
2.3085,-1.091e-05,0
2.309,-5.539e-06,0
2.3095,-4.3641e-06,0
2.31,-9.9031e-06,0
2.3105,-1.2589e-05,0
2.311,-9.9031e-06,0
2.3115,-5.2033e-06,0
2.312,-1.6785e-06,0
2.3125,6.5461e-06,0
2.313,1.5442e-05,0
2.3135,2.031e-05,0
2.314,2.2324e-05,0
2.3145,2.4506e-05,0
2.315,3.1388e-05,0
2.3155,3.9612e-05,0
2.316,4.4816e-05,0
2.3165,4.7166e-05,0
2.317,4.4816e-05,0
2.3175,3.8773e-05,0
2.318,3.4409e-05,0
2.3185,3.2731e-05,0
2.319,3.0884e-05,0
2.3195,3.3402e-05,0
2.32,3.827e-05,0
2.3205,4.2466e-05,0
2.321,4.2298e-05,0
2.3215,3.6591e-05,0
2.322,2.3835e-05,0
2.3225,7.2175e-06,0
2.323,-7.5532e-06,0
2.3235,-1.6281e-05,0
2.324,-1.9135e-05,0
2.3245,-1.2924e-05,0
2.325,-3.5248e-06,0
2.3255,-2.182e-06,0
2.326,-6.8818e-06,0
2.3265,-1.0239e-05,0
2.327,-3.5248e-06,0
2.3275,1.0407e-05,0
2.328,2.3163e-05,0
2.3285,2.9038e-05,0
2.329,2.8367e-05,0
2.3295,2.3667e-05,0
2.33,1.4435e-05,0
2.3305,3.6927e-06,0
2.331,-5.7069e-06,0
2.3315,-1.0575e-05,0
2.332,-9.9031e-06,0
2.3325,-8.5603e-06,0
2.333,-7.8889e-06,0
2.3335,-4.6998e-06,0
2.334,2.182e-06,0
2.3345,8.7282e-06,0
2.335,1.326e-05,0
2.3355,1.9638e-05,0
2.336,2.6017e-05,0
2.3365,3.0381e-05,0
2.337,3.4745e-05,0
2.3375,4.0619e-05,0
2.338,4.5823e-05,0
2.3385,4.6494e-05,0
2.339,4.9515e-05,0
2.3395,5.5558e-05,0
2.34,5.9587e-05,0
2.3405,6.1433e-05,0
2.341,5.9251e-05,0
2.3415,5.2201e-05,0
2.342,4.3305e-05,0
2.3425,3.6255e-05,0
2.343,2.9038e-05,0
2.3435,2.266e-05,0
2.344,1.9974e-05,0
2.3445,1.6449e-05,0
2.345,9.2317e-06,0
2.3455,-4.0284e-06,0
2.346,-2.3667e-05,0
2.3465,-3.743e-05,0
2.347,-3.8437e-05,0
2.3475,-3.6423e-05,0
2.348,-3.9445e-05,0
2.3485,-4.5151e-05,0
2.349,-4.6159e-05,0
2.3495,-4.1795e-05,0
2.35,-3.3066e-05,0
2.3505,-2.1653e-05,0
2.351,-1.3932e-05,0
2.3515,-1.0071e-05,0
2.352,-2.5177e-06,0
2.3525,1.2421e-05,0
2.353,2.8031e-05,0
2.3535,3.6759e-05,0
2.354,3.7934e-05,0
2.3545,3.4577e-05,0
2.355,3.122e-05,0
2.3555,3.5584e-05,0
2.356,4.0116e-05,0
2.3565,3.827e-05,0
2.357,3.2059e-05,0
2.3575,2.6017e-05,0
2.358,1.9303e-05,0
2.3585,1.4267e-05,0
2.359,9.5674e-06,0
2.3595,3.5248e-06,0
2.36,-1.8463e-06,0
2.3605,-6.2104e-06,0
2.361,-7.0497e-06,0
2.3615,-1.1749e-06,0
2.362,7.0497e-06,0
2.3625,1.3596e-05,0
2.363,1.8631e-05,0
2.3635,2.2324e-05,0
2.364,2.9374e-05,0
2.3645,3.7095e-05,0
2.365,4.2802e-05,0
2.3655,4.8676e-05,0
2.366,5.623e-05,0
2.3665,6.1265e-05,0
2.367,6.8147e-05,0
2.3675,7.9057e-05,0
2.368,8.6275e-05,0
2.3685,8.745e-05,0
2.369,8.6442e-05,0
2.3695,8.6107e-05,0
2.37,8.661e-05,0
2.3705,8.1071e-05,0
2.371,6.3447e-05,0
2.3715,3.8102e-05,0
2.372,1.8296e-05,0
2.3725,1.7792e-05,0
2.373,2.7695e-05,0
2.3735,3.1052e-05,0
2.374,2.6352e-05,0
2.3745,1.6281e-05,0
2.375,5.2033e-06,0
2.3755,-2.8534e-06,0
2.376,-4.3641e-06,0
2.3765,1.5106e-06,0
2.377,8.5603e-06,0
2.3775,1.2589e-05,0
2.378,1.1414e-05,0
2.3785,7.7211e-06,0
2.379,8.0568e-06,0
2.3795,1.091e-05,0
2.38,7.5532e-06,0
2.3805,3.0213e-06,0
2.381,5.539e-06,0
2.3815,1.4603e-05,0
2.382,2.0478e-05,0
2.3825,2.0813e-05,0
2.383,1.9974e-05,0
2.3835,1.9303e-05,0
2.384,1.9806e-05,0
2.3845,2.4842e-05,0
2.385,3.0381e-05,0
2.3855,3.8102e-05,0
2.386,5.0523e-05,0
2.3865,6.2608e-05,0
2.387,6.6636e-05,0
2.3875,6.2944e-05,0
2.388,5.623e-05,0
2.3885,4.9012e-05,0
2.389,4.0452e-05,0
2.3895,3.1388e-05,0
2.39,2.6017e-05,0
2.3905,2.1149e-05,0
2.391,1.4603e-05,0
2.3915,1.2757e-05,0
2.392,1.6617e-05,0
2.3925,1.8631e-05,0
2.393,1.9806e-05,0
2.3935,2.182e-05,0
2.394,2.5681e-05,0
2.3945,2.8031e-05,0
2.395,2.5177e-05,0
2.3955,1.8967e-05,0
2.396,1.561e-05,0
2.3965,2.0646e-05,0
2.397,3.4409e-05,0
2.3975,4.448e-05,0
2.398,4.0955e-05,0
2.3985,3.0549e-05,0
2.399,2.0646e-05,0
2.3995,1.7624e-05,0
2.4,1.7121e-05,0
2.4005,1.1917e-05,0
2.401,2.5177e-06,0
2.4015,-5.539e-06,0
2.402,-9.2317e-06,0
2.4025,-1.561e-05,0
2.403,-2.9709e-05,0
2.4035,-4.3473e-05,0
2.404,-4.918e-05,0
2.4045,-4.8005e-05,0
2.405,-4.5151e-05,0
2.4055,-3.8102e-05,0
2.406,-2.8702e-05,0
2.4065,-1.9638e-05,0
2.407,-8.2246e-06,0
2.4075,2.182e-06,0
2.408,4.6998e-06,0
2.4085,5.2033e-06,0
2.409,5.0355e-06,0
2.4095,-1.678e-07,0
2.41,-5.539e-06,0
2.4105,-9.7353e-06,0
2.411,-1.5274e-05,0
2.4115,-1.9974e-05,0
2.412,-2.031e-05,0
2.4125,-1.8967e-05,0
2.413,-1.6617e-05,0
2.4135,-1.2589e-05,0
2.414,-3.5248e-06,0
2.4145,9.3996e-06,0
2.415,1.7792e-05,0
2.4155,2.2324e-05,0
2.416,2.4506e-05,0
2.4165,2.4002e-05,0
2.417,2.266e-05,0
2.4175,2.1317e-05,0
2.418,1.9974e-05,0
2.4185,1.9638e-05,0
2.419,1.9303e-05,0
2.4195,1.8463e-05,0
2.42,1.9974e-05,0
2.4205,2.6688e-05,0
2.421,3.2731e-05,0
2.4215,3.6927e-05,0
2.422,3.8437e-05,0
2.4225,3.9109e-05,0
2.423,3.592e-05,0
2.4235,2.8702e-05,0
2.424,2.1149e-05,0
2.4245,1.9303e-05,0
2.425,2.182e-05,0
2.4255,2.3331e-05,0
2.426,2.1317e-05,0
2.4265,2.1653e-05,0
2.427,2.5009e-05,0
2.4275,2.6352e-05,0
2.428,3.1388e-05,0
2.4285,3.8437e-05,0
2.429,3.9109e-05,0
2.4295,3.592e-05,0
2.43,3.5416e-05,0
2.4305,3.8437e-05,0
2.431,3.8773e-05,0
2.4315,3.1891e-05,0
2.432,1.9974e-05,0
2.4325,7.2175e-06,0
2.433,-6.2104e-06,0
2.4335,-1.9806e-05,0
2.434,-2.8031e-05,0
2.4345,-2.7192e-05,0
2.435,-2.3835e-05,0
2.4355,-2.5009e-05,0
2.436,-2.6688e-05,0
2.4365,-2.4338e-05,0
2.437,-2.0646e-05,0
2.4375,-1.7288e-05,0
2.438,-1.1749e-05,0
2.4385,-5.2033e-06,0
2.439,-3.357e-06,0
2.4395,-9.2317e-06,0
2.44,-1.4771e-05,0
2.4405,-1.3932e-05,0
2.441,-8.5603e-06,0
2.4415,-1.0071e-06,0
2.442,5.539e-06,0
2.4425,1.1582e-05,0
2.443,1.7288e-05,0
2.4435,2.4338e-05,0
2.444,3.3066e-05,0
2.4445,3.7766e-05,0
2.445,3.6088e-05,0
2.4455,3.2731e-05,0
2.446,3.2563e-05,0
2.4465,3.8773e-05,0
2.447,4.918e-05,0
2.4475,5.8412e-05,0
2.448,6.2944e-05,0
2.4485,6.6804e-05,0
2.449,6.7308e-05,0
2.4495,6.1097e-05,0
2.45,5.304e-05,0
2.4505,4.8508e-05,0
2.451,4.9515e-05,0
2.4515,5.0858e-05,0
2.452,4.7837e-05,0
2.4525,4.3305e-05,0
2.453,4.3977e-05,0
2.4535,5.153e-05,0
2.454,6.5965e-05,0
2.4545,7.7714e-05,0
2.455,8.1239e-05,0
2.4555,7.9728e-05,0
2.456,7.8889e-05,0
2.4565,7.956e-05,0
2.457,8.2918e-05,0
2.4575,8.1071e-05,0
2.458,7.1e-05,0
2.4585,5.6733e-05,0
2.459,4.4144e-05,0
2.4595,3.7934e-05,0
2.46,3.9948e-05,0
2.4605,4.8844e-05,0
2.461,6.0929e-05,0
2.4615,6.5293e-05,0
2.462,6.4118e-05,0
2.4625,6.7811e-05,0
2.463,7.7546e-05,0
2.4635,8.4932e-05,0
2.464,8.3589e-05,0
2.4645,7.6204e-05,0
2.465,7.0161e-05,0
2.4655,6.1936e-05,0
2.466,4.2802e-05,0
2.4665,2.6017e-05,0
2.467,2.5849e-05,0
2.4675,3.1891e-05,0
2.468,2.5345e-05,0
2.4685,8.392e-07,0
2.469,-2.7024e-05,0
2.4695,-4.3473e-05,0
2.47,-4.5487e-05,0
2.4705,-4.0116e-05,0
2.471,-3.9445e-05,0
2.4715,-4.6494e-05,0
2.472,-4.7333e-05,0
2.4725,-3.2898e-05,0
2.473,-1.2253e-05,0
2.4735,1.6785e-06,0
2.474,5.3712e-06,0
2.4745,1.5106e-06,0
2.475,-2.6856e-06,0
2.4755,1.5106e-06,0
2.476,1.0575e-05,0
2.4765,1.8463e-05,0
2.477,1.9806e-05,0
2.4775,1.326e-05,0
2.478,2.8534e-06,0
2.4785,-7.0497e-06,0
2.479,-1.5442e-05,0
2.4795,-2.031e-05,0
2.48,-2.031e-05,0
2.4805,-1.6953e-05,0
2.481,-8.896e-06,0
2.4815,3.1891e-06,0
2.482,1.091e-05,0
2.4825,1.1582e-05,0
2.483,9.7353e-06,0
2.4835,1.091e-05,0
2.484,1.1246e-05,0
2.4845,9.5674e-06,0
2.485,9.2317e-06,0
2.4855,1.1078e-05,0
2.486,1.1414e-05,0
2.4865,1.0239e-05,0
2.487,7.3854e-06,0
2.4875,-5.035e-07,0
2.488,-9.7353e-06,0
2.4885,-1.2589e-05,0
2.489,-4.8676e-06,0
2.4895,9.2317e-06,0
2.49,1.9806e-05,0
2.4905,2.2995e-05,0
2.491,2.6352e-05,0
2.4915,3.0716e-05,0
2.492,3.1052e-05,0
2.4925,2.4674e-05,0
2.493,1.0239e-05,0
2.4935,-5.0355e-06,0
2.494,-7.7211e-06,0
2.4945,2.5177e-06,0
2.495,1.1749e-05,0
2.4955,9.9031e-06,0
2.496,2.5177e-06,0
2.4965,-2.182e-06,0
2.497,-3.8605e-06,0
2.4975,-5.8747e-06,0
2.498,-6.714e-06,0
2.4985,-3.5248e-06,0
2.499,8.392e-07,0
2.4995,5.2033e-06,0
2.5,1.1749e-05,0
2.5005,2.266e-05,0
2.501,3.4241e-05,0
2.5015,4.0619e-05,0
2.502,4.3473e-05,0
2.5025,4.5319e-05,0
2.503,4.4816e-05,0
2.5035,4.3473e-05,0
2.504,4.5487e-05,0
2.5045,4.918e-05,0
2.505,5.0858e-05,0
2.5055,4.7501e-05,0
2.506,4.2298e-05,0
2.5065,3.7934e-05,0
2.507,3.2059e-05,0
2.5075,2.8031e-05,0
2.508,2.9374e-05,0
2.5085,3.6759e-05,0
2.509,4.2802e-05,0
2.5095,4.5991e-05,0
2.51,5.4551e-05,0
2.5105,6.6972e-05,0
2.511,7.5029e-05,0
2.5115,7.3014e-05,0
2.512,6.4286e-05,0
2.5125,5.0858e-05,0
2.513,3.3402e-05,0
2.5135,1.3596e-05,0
2.514,-3.0213e-06,0
2.5145,-1.326e-05,0
2.515,-2.4338e-05,0
2.5155,-3.2395e-05,0
2.516,-3.2395e-05,0
2.5165,-2.8367e-05,0
2.517,-2.4338e-05,0
2.5175,-2.1149e-05,0
2.518,-1.8967e-05,0
2.5185,-1.9303e-05,0
2.519,-2.266e-05,0
2.5195,-2.3163e-05,0
2.52,-1.8296e-05,0
2.5205,-8.3925e-06,0
2.521,2.182e-06,0
2.5215,3.5248e-06,0
2.522,1.5106e-06,0
2.5225,8.7282e-06,0
2.523,1.9638e-05,0
2.5235,2.6017e-05,0
2.524,2.9374e-05,0
2.5245,3.592e-05,0
2.525,4.2466e-05,0
2.5255,4.2802e-05,0
2.526,3.978e-05,0
2.5265,3.743e-05,0
2.527,3.827e-05,0
2.5275,4.0619e-05,0
2.528,3.7095e-05,0
2.5285,3.1891e-05,0
2.529,3.3066e-05,0
2.5295,3.7934e-05,0
2.53,3.9445e-05,0
2.5305,3.743e-05,0
2.531,3.4745e-05,0
2.5315,3.2731e-05,0
2.532,3.0716e-05,0
2.5325,2.6688e-05,0
2.533,2.2324e-05,0
2.5335,1.5106e-05,0
2.534,7.0497e-06,0
2.5345,3.8605e-06,0
2.535,6.2104e-06,0
2.5355,1.1078e-05,0
2.536,1.7288e-05,0
2.5365,2.5513e-05,0
2.537,3.4577e-05,0
2.5375,3.8605e-05,0
2.538,3.5752e-05,0
2.5385,2.8534e-05,0
2.539,2.4002e-05,0
2.5395,2.3499e-05,0
2.54,2.266e-05,0
2.5405,1.9638e-05,0
2.541,1.9303e-05,0
2.5415,2.2828e-05,0
2.542,2.4338e-05,0
2.5425,2.031e-05,0
2.543,1.3596e-05,0
2.5435,1.2589e-05,0
2.544,1.9638e-05,0
2.5445,2.7359e-05,0
2.545,3.1052e-05,0
2.5455,3.2059e-05,0
2.546,2.9038e-05,0
2.5465,1.9638e-05,0
2.547,8.896e-06,0
2.5475,-2.8534e-06,0
2.548,-1.5442e-05,0
2.5485,-2.2324e-05,0
2.549,-2.1149e-05,0
2.5495,-1.6449e-05,0
2.55,-9.3996e-06,0
2.5505,1.5106e-06,0
2.551,1.1078e-05,0
2.5515,1.9303e-05,0
2.552,2.7359e-05,0
2.5525,3.357e-05,0
2.553,3.7095e-05,0
2.5535,3.743e-05,0
2.554,3.743e-05,0
2.5545,3.8773e-05,0
2.555,4.1123e-05,0
2.5555,4.3305e-05,0
2.556,4.448e-05,0
2.5565,4.8173e-05,0
2.557,5.7572e-05,0
2.5575,6.7308e-05,0
2.558,6.949e-05,0
2.5585,6.4958e-05,0
2.559,5.6901e-05,0
2.5595,4.9348e-05,0
2.56,5.0187e-05,0
2.5605,5.8915e-05,0
2.561,6.4286e-05,0
2.5615,5.7908e-05,0
2.562,4.4144e-05,0
2.5625,3.2059e-05,0
2.563,2.4002e-05,0
2.5635,1.7288e-05,0
2.564,1.0575e-05,0
2.5645,1.1917e-05,0
2.565,1.8296e-05,0
2.5655,1.8296e-05,0
2.566,1.4603e-05,0
2.5665,9.7353e-06,0
2.567,-1.8463e-06,0
2.5675,-1.3596e-05,0
2.568,-1.5946e-05,0
2.5685,-1.0575e-05,0
2.569,-9.0639e-06,0
2.5695,-1.6281e-05,0
2.57,-2.5009e-05,0
2.5705,-2.9038e-05,0
2.571,-2.9877e-05,0
2.5715,-3.2563e-05,0
2.572,-3.7766e-05,0
2.5725,-3.5752e-05,0
2.573,-2.1653e-05,0
2.5735,-1.5106e-06,0
2.574,1.2253e-05,0
2.5745,1.9135e-05,0
2.575,2.7192e-05,0
2.5755,3.7934e-05,0
2.576,4.4984e-05,0
2.5765,4.7166e-05,0
2.577,4.6662e-05,0
2.5775,5.3544e-05,0
2.578,6.6133e-05,0
2.5785,7.0664e-05,0
2.579,6.2944e-05,0
2.5795,5.0523e-05,0
2.58,4.3641e-05,0
2.5805,4.3977e-05,0
2.581,4.3473e-05,0
2.5815,3.743e-05,0
2.582,2.4506e-05,0
2.5825,1.0239e-05,0
2.583,1.8463e-06,0
2.5835,2.5177e-06,0
2.584,9.9031e-06,0
2.5845,1.9806e-05,0
2.585,2.3499e-05,0
2.5855,1.8967e-05,0
2.586,1.1246e-05,0
2.5865,5.0355e-06,0
2.587,2.5177e-06,0
2.5875,4.5319e-06,0
2.588,6.3783e-06,0
2.5885,3.8605e-06,0
2.589,-3.8605e-06,0
2.5895,-1.3932e-05,0
2.59,-1.8631e-05,0
2.5905,-1.5946e-05,0
2.591,-1.2757e-05,0
2.5915,-8.0568e-06,0
2.592,-8.392e-07,0
2.5925,6.5461e-06,0
2.593,1.1582e-05,0
2.5935,1.8296e-05,0
2.594,2.652e-05,0
2.5945,2.9709e-05,0
2.595,2.8031e-05,0
2.5955,2.3667e-05,0
2.596,1.4603e-05,0
2.5965,7.7211e-06,0
2.597,1.1246e-05,0
2.5975,2.1317e-05,0
2.598,2.7863e-05,0
2.5985,2.8367e-05,0
2.599,2.5345e-05,0
2.5995,1.9638e-05,0
2.6,1.4939e-05,0
2.6005,1.7624e-05,0
2.601,2.5849e-05,0
2.6015,2.9206e-05,0
2.602,2.6352e-05,0
2.6025,2.0142e-05,0
2.603,1.0071e-05,0
2.6035,3.5248e-06,0
2.604,7.5532e-06,0
2.6045,1.1582e-05,0
2.605,9.9031e-06,0
2.6055,1.0071e-06,0
2.606,-8.5603e-06,0
2.6065,-7.7211e-06,0
2.607,-5.539e-06,0
2.6075,-1.1582e-05,0
2.608,-2.5681e-05,0
2.6085,-3.4409e-05,0
2.609,-2.2828e-05,0
2.6095,5.539e-06,0
2.61,3.3738e-05,0
2.6105,5.153e-05,0
2.611,5.9922e-05,0
2.6115,6.2944e-05,0
2.612,6.2272e-05,0
2.6125,5.8915e-05,0
2.613,5.1194e-05,0
2.6135,3.8773e-05,0
2.614,2.5345e-05,0
2.6145,8.5603e-06,0
2.615,-1.4267e-05,0
2.6155,-3.2731e-05,0
2.616,-3.6591e-05,0
2.6165,-2.6017e-05,0
2.617,-1.1582e-05,0
2.6175,1.1749e-06,0
2.618,1.326e-05,0
2.6185,2.2324e-05,0
2.619,1.8631e-05,0
2.6195,7.0497e-06,0
2.62,5.2033e-06,0
2.6205,1.9806e-05,0
2.621,3.8773e-05,0
2.6215,5.1865e-05,0
2.622,5.8915e-05,0
2.6225,5.7572e-05,0
2.623,3.978e-05,0
2.6235,1.5274e-05,0
2.624,3.5248e-06,0
2.6245,5.8747e-06,0
2.625,5.539e-06,0
2.6255,-6.3783e-06,0
2.626,-1.7624e-05,0
2.6265,-1.7624e-05,0
2.627,-8.896e-06,0
2.6275,6.714e-07,0
2.628,7.8889e-06,0
2.6285,1.7121e-05,0
2.629,2.3163e-05,0
2.6295,1.8967e-05,0
2.63,5.539e-06,0
2.6305,-1.1246e-05,0
2.631,-2.3331e-05,0
2.6315,-2.3835e-05,0
2.632,-1.4603e-05,0
2.6325,0,0
2.633,2.0478e-05,0
2.6335,3.9445e-05,0
2.634,4.8173e-05,0
2.6345,4.6998e-05,0
2.635,4.3305e-05,0
2.6355,3.9109e-05,0
2.636,3.2059e-05,0
2.6365,2.3667e-05,0
2.637,1.6617e-05,0
2.6375,1.8296e-05,0
2.638,2.6352e-05,0
2.6385,3.2059e-05,0
2.639,3.5584e-05,0
2.6395,4.1123e-05,0
2.64,4.5487e-05,0
2.6405,4.6494e-05,0
2.641,4.8676e-05,0
2.6415,5.623e-05,0
2.642,6.4958e-05,0
2.6425,6.7979e-05,0
2.643,6.1433e-05,0
2.6435,5.1194e-05,0
2.644,4.4648e-05,0
2.6445,4.3809e-05,0
2.645,4.2802e-05,0
2.6455,3.8102e-05,0
2.646,3.0045e-05,0
2.6465,1.8296e-05,0
2.647,3.8605e-06,0
2.6475,-6.2104e-06,0
2.648,-9.5674e-06,0
2.6485,-7.5532e-06,0
2.649,-3.8605e-06,0
2.6495,3.0213e-06,0
2.65,1.5946e-05,0
2.6505,3.1891e-05,0
2.651,4.1459e-05,0
2.6515,4.5991e-05,0
2.652,4.7669e-05,0
2.6525,4.6494e-05,0
2.653,4.5487e-05,0
2.6535,4.7333e-05,0
2.654,5.2705e-05,0
2.6545,5.9419e-05,0
2.655,5.9587e-05,0
2.6555,5.4383e-05,0
2.656,4.918e-05,0
2.6565,4.6494e-05,0
2.657,4.8005e-05,0
2.6575,5.1194e-05,0
2.658,4.8844e-05,0
2.6585,4.5319e-05,0
2.659,4.5151e-05,0
2.6595,4.1962e-05,0
2.66,3.2059e-05,0
2.6605,1.9135e-05,0
2.661,9.9031e-06,0
2.6615,8.896e-06,0
2.662,1.4267e-05,0
2.6625,2.0646e-05,0
2.663,2.1988e-05,0
2.6635,1.9135e-05,0
2.664,1.4435e-05,0
2.6645,1.2253e-05,0
2.665,1.3932e-05,0
2.6655,1.4603e-05,0
2.666,1.3428e-05,0
2.6665,1.091e-05,0
2.667,7.3854e-06,0
2.6675,7.7211e-06,0
2.668,1.326e-05,0
2.6685,2.0478e-05,0
2.669,2.5345e-05,0
2.6695,3.1556e-05,0
2.67,4.4648e-05,0
2.6705,5.5558e-05,0
2.671,5.8747e-05,0
2.6715,6.1936e-05,0
2.672,7.1336e-05,0
2.6725,8.275e-05,0
2.673,9.0806e-05,0
2.6735,9.1142e-05,0
2.674,8.275e-05,0
2.6745,6.3951e-05,0
2.675,2.7024e-05,0
2.6755,-2.4674e-05,0
2.676,-6.2944e-05,0
2.6765,-7.2679e-05,0
2.677,-6.7475e-05,0
2.6775,-6.1097e-05,0
2.678,-6.0594e-05,0
2.6785,-5.9251e-05,0
2.679,-4.8844e-05,0
2.6795,-3.4745e-05,0
2.68,-2.7024e-05,0
2.6805,-2.7359e-05,0
2.681,-3.4745e-05,0
2.6815,-4.683e-05,0
2.682,-5.6062e-05,0
2.6825,-5.4887e-05,0
2.683,-4.5487e-05,0
2.6835,-3.3066e-05,0
2.684,-1.8631e-05,0
2.6845,-5.0355e-06,0
2.685,8.896e-06,0
2.6855,2.266e-05,0
2.686,3.2395e-05,0
2.6865,3.4745e-05,0
2.687,3.0381e-05,0
2.6875,2.3163e-05,0
2.688,2.4674e-05,0
2.6885,3.592e-05,0
2.689,4.2634e-05,0
2.6895,3.6088e-05,0
2.69,2.1988e-05,0
2.6905,9.2317e-06,0
2.691,-1.678e-07,0
2.6915,-2.8534e-06,0
2.692,3.0213e-06,0
2.6925,9.7353e-06,0
2.693,1.1582e-05,0
2.6935,1.7288e-05,0
2.694,2.5009e-05,0
2.6945,2.3835e-05,0
2.695,1.9303e-05,0
2.6955,2.0981e-05,0
2.696,3.0045e-05,0
2.6965,3.9445e-05,0
2.697,4.1459e-05,0
2.6975,4.213e-05,0
2.698,4.4648e-05,0
2.6985,4.3641e-05,0
2.699,3.1052e-05,0
2.6995,1.0407e-05,0
2.7,-2.182e-06,0
2.7005,-1.6785e-06,0
2.701,4.8676e-06,0
2.7015,1.1246e-05,0
2.702,1.3764e-05,0
2.7025,1.3932e-05,0
2.703,1.5106e-05,0
2.7035,1.7792e-05,0
2.704,2.1653e-05,0
2.7045,2.2324e-05,0
2.705,1.9974e-05,0
2.7055,1.6953e-05,0
2.706,1.0575e-05,0
2.7065,6.2104e-06,0
2.707,7.7211e-06,0
2.7075,1.2924e-05,0
2.708,1.5106e-05,0
2.7085,1.1917e-05,0
2.709,1.2924e-05,0
2.7095,2.6688e-05,0
2.71,4.683e-05,0
2.7105,6.0258e-05,0
2.711,5.7908e-05,0
2.7115,4.2802e-05,0
2.712,3.2059e-05,0
2.7125,3.9445e-05,0
2.713,5.8076e-05,0
2.7135,7.3686e-05,0
2.714,8.3085e-05,0
2.7145,8.7282e-05,0
2.715,8.4428e-05,0
2.7155,7.0329e-05,0
2.716,5.0355e-05,0
2.7165,3.2731e-05,0
2.717,2.266e-05,0
2.7175,1.6617e-05,0
2.718,1.5274e-05,0
2.7185,2.2995e-05,0
2.719,3.5416e-05,0
2.7195,4.2802e-05,0
2.72,4.5487e-05,0
2.7205,4.9348e-05,0
2.721,5.7069e-05,0
2.7215,6.4958e-05,0
2.722,6.7979e-05,0
2.7225,5.9754e-05,0
2.723,4.2466e-05,0
2.7235,3.4577e-05,0
2.724,3.9109e-05,0
2.7245,3.6088e-05,0
2.725,1.9135e-05,0
2.7255,5.8747e-06,0
2.726,4.5319e-06,0
2.7265,7.0497e-06,0
2.727,3.357e-07,0
2.7275,-1.7121e-05,0
2.728,-3.2059e-05,0
2.7285,-2.6017e-05,0
2.729,-1.0239e-05,0
2.7295,-8.392e-07,0
2.73,3.1891e-06,0
2.7305,7.8889e-06,0
2.731,1.0407e-05,0
2.7315,8.2246e-06,0
2.732,4.1962e-06,0
2.7325,-1.1749e-06,0
2.733,-4.1962e-06,0
2.7335,-7.0497e-06,0
2.734,-1.6449e-05,0
2.7345,-2.7359e-05,0
2.735,-3.0045e-05,0
2.7355,-2.3667e-05,0
2.736,-1.2421e-05,0
2.7365,-6.714e-07,0
2.737,5.2033e-06,0
2.7375,2.8534e-06,0
2.738,5.035e-07,0
2.7385,2.8534e-06,0
2.739,5.539e-06,0
2.7395,5.2033e-06,0
2.74,2.5177e-06,0
2.7405,4.0284e-06,0
2.741,1.1582e-05,0
2.7415,1.9303e-05,0
2.742,1.9974e-05,0
2.7425,1.1917e-05,0
2.743,4.5319e-06,0
2.7435,3.8605e-06,0
2.744,6.2104e-06,0
2.7445,6.2104e-06,0
2.745,9.2317e-06,0
2.7455,1.5778e-05,0
2.746,2.0478e-05,0
2.7465,2.4002e-05,0
2.747,2.6184e-05,0
2.7475,2.4674e-05,0
2.748,2.3331e-05,0
2.7485,2.9374e-05,0
2.749,4.2802e-05,0
2.7495,5.2201e-05,0
2.75,5.774e-05,0
2.7505,5.8915e-05,0
2.751,5.8244e-05,0
2.7515,6.1601e-05,0
2.752,6.4958e-05,0
2.7525,5.9587e-05,0
2.753,4.5823e-05,0
2.7535,3.0045e-05,0
2.754,1.5946e-05,0
2.7545,2.8534e-06,0
2.755,-1.0407e-05,0
2.7555,-2.182e-05,0
2.756,-2.4002e-05,0
2.7565,-1.4939e-05,0
2.757,-2.5177e-06,0
2.7575,7.0497e-06,0
2.758,1.1917e-05,0
2.7585,6.0426e-06,0
2.759,-8.3925e-06,0
2.7595,-2.4002e-05,0
2.76,-3.4409e-05,0
2.7605,-3.5248e-05,0
2.761,-2.8367e-05,0
2.7615,-1.9638e-05,0
2.762,-1.4939e-05,0
2.7625,-5.2033e-06,0
2.763,6.714e-06,0
2.7635,1.4435e-05,0
2.764,2.1653e-05,0
2.7645,2.9374e-05,0
2.765,3.8102e-05,0
2.7655,4.8173e-05,0
2.766,5.7237e-05,0
2.7665,6.3615e-05,0
2.767,6.6468e-05,0
2.7675,6.6636e-05,0
2.768,6.6133e-05,0
2.7685,5.7908e-05,0
2.769,4.7837e-05,0
2.7695,5.0858e-05,0
2.77,6.4286e-05,0
2.7705,7.6707e-05,0
2.771,8.6107e-05,0
2.7715,8.8792e-05,0
2.772,7.9728e-05,0
2.7725,6.865e-05,0
2.773,5.3544e-05,0
2.7735,2.8534e-05,0
2.774,0,0
2.7745,-2.7024e-05,0
2.775,-4.8844e-05,0
2.7755,-5.2537e-05,0
2.776,-4.1459e-05,0
2.7765,-2.6184e-05,0
2.777,-1.1582e-05,0
2.7775,-1.678e-07,0
2.778,3.5248e-06,0
2.7785,8.392e-07,0
2.779,-2.6856e-06,0
2.7795,-5.539e-06,0
2.78,-6.2104e-06,0
2.7805,-7.2175e-06,0
2.781,-1.6281e-05,0
2.7815,-3.2395e-05,0
2.782,-3.978e-05,0
2.7825,-3.357e-05,0
2.783,-2.4842e-05,0
2.7835,-2.0646e-05,0
2.784,-2.0981e-05,0
2.7845,-1.7792e-05,0
2.785,-1.091e-05,0
2.7855,-1.1078e-05,0
2.786,-1.9303e-05,0
2.7865,-2.7527e-05,0
2.787,-2.7695e-05,0
2.7875,-1.8631e-05,0
2.788,-6.2104e-06,0
2.7885,4.5319e-06,0
2.789,1.4603e-05,0
2.7895,2.5681e-05,0
2.79,3.7934e-05,0
2.7905,4.9683e-05,0
2.791,5.3544e-05,0
2.7915,4.9515e-05,0
2.792,4.448e-05,0
2.7925,4.3305e-05,0
2.793,4.0787e-05,0
2.7935,3.2898e-05,0
2.794,2.4002e-05,0
2.7945,1.9303e-05,0
2.795,1.9303e-05,0
2.7955,2.0646e-05,0
2.796,2.9877e-05,0
2.7965,5.0858e-05,0
2.797,7.4861e-05,0
2.7975,9.2485e-05,0
2.798,0.00010239,0
2.7985,0.00010356,0
2.799,9.5506e-05,0
2.7995,8.6107e-05,0
2.8,8.6442e-05,0
2.8005,8.7282e-05,0
2.801,7.6204e-05,0
2.8015,5.0187e-05,0
2.802,4.5319e-06,0
2.8025,-4.7837e-05,0
2.803,-6.6468e-05,0
2.8035,-3.5584e-05,0
2.804,1.4603e-05,0
2.8045,4.8676e-05,0
2.805,5.6901e-05,0
2.8055,4.8844e-05,0
2.806,3.8437e-05,0
2.8065,4.2802e-05,0
2.807,5.7572e-05,0
2.8075,6.0258e-05,0
2.808,4.7837e-05,0
2.8085,3.5752e-05,0
2.809,3.1556e-05,0
2.8095,3.4409e-05,0
2.81,3.978e-05,0
2.8105,4.213e-05,0
2.811,3.3234e-05,0
2.8115,1.796e-05,0
2.812,6.2104e-06,0
2.8125,-8.392e-07,0
2.813,-1.6785e-06,0
2.8135,3.8605e-06,0
2.814,1.0575e-05,0
2.8145,1.4267e-05,0
2.815,1.2589e-05,0
2.8155,6.2104e-06,0
2.816,-5.2033e-06,0
2.8165,-1.1917e-05,0
2.817,-4.8676e-06,0
2.8175,1.3764e-05,0
2.818,3.3906e-05,0
2.8185,4.9348e-05,0
2.819,5.7908e-05,0
2.8195,5.3376e-05,0
2.82,3.8102e-05,0
2.8205,2.7024e-05,0
2.821,2.3331e-05,0
2.8215,1.6953e-05,0
2.822,1.6281e-05,0
2.8225,2.9206e-05,0
2.823,4.8173e-05,0
2.8235,6.2944e-05,0
2.824,6.7643e-05,0
2.8245,6.2944e-05,0
2.825,5.539e-05,0
2.8255,4.3641e-05,0
2.826,2.9709e-05,0
2.8265,2.0478e-05,0
2.827,1.8631e-05,0
2.8275,2.2995e-05,0
2.828,2.5177e-05,0
2.8285,1.7288e-05,0
2.829,5.539e-06,0
2.8295,-2.3499e-06,0
2.83,-8.2246e-06,0
2.8305,-1.5274e-05,0
2.831,-2.1988e-05,0
2.8315,-2.2324e-05,0
2.832,-1.7288e-05,0
2.8325,-1.2757e-05,0
2.833,-8.2246e-06,0
2.8335,-3.0213e-06,0
2.834,2.5177e-06,0
2.8345,1.0575e-05,0
2.835,2.3835e-05,0
2.8355,3.3402e-05,0
2.836,3.122e-05,0
2.8365,2.4674e-05,0
2.837,2.266e-05,0
2.8375,2.9374e-05,0
2.838,4.1459e-05,0
2.8385,5.2872e-05,0
2.839,5.9922e-05,0
2.8395,6.2272e-05,0
2.84,5.6901e-05,0
2.8405,4.448e-05,0
2.841,2.9374e-05,0
2.8415,1.3932e-05,0
2.842,3.5248e-06,0
2.8425,5.035e-07,0
2.843,-3.6927e-06,0
2.8435,-1.5946e-05,0
2.844,-3.0381e-05,0
2.8445,-4.4984e-05,0
2.845,-5.9083e-05,0
2.8455,-6.8315e-05,0
2.846,-6.3279e-05,0
2.8465,-4.3473e-05,0
2.847,-2.6017e-05,0
2.8475,-2.0646e-05,0
2.848,-1.6953e-05,0
2.8485,-3.6927e-06,0
2.849,1.5778e-05,0
2.8495,3.1891e-05,0
2.85,4.213e-05,0
2.8505,4.918e-05,0
2.851,5.4215e-05,0
2.8515,5.5222e-05,0
2.852,5.3208e-05,0
2.8525,5.7237e-05,0
2.853,6.3447e-05,0
2.8535,6.4958e-05,0
2.854,6.3615e-05,0
2.8545,5.9587e-05,0
2.855,5.4215e-05,0
2.8555,4.6159e-05,0
2.856,3.5584e-05,0
2.8565,2.4002e-05,0
2.857,1.0575e-05,0
2.8575,-1.8463e-06,0
2.858,-6.714e-07,0
2.8585,6.2104e-06,0
2.859,2.5177e-06,0
2.8595,-1.5106e-06,0
2.86,8.896e-06,0
2.8605,2.8367e-05,0
2.861,4.6159e-05,0
2.8615,5.8915e-05,0
2.862,7.1e-05,0
2.8625,8.9128e-05,0
2.863,0.00010776,0
2.8635,0.00011766,0
2.864,0.00011565,0
2.8645,0.00010726,0
2.865,0.00010457,0
2.8655,0.00010289,0
2.866,8.3421e-05,0
2.8665,5.0187e-05,0
2.867,2.7359e-05,0
2.8675,1.6953e-05,0
2.868,-5.035e-07,0
2.8685,-3.7766e-05,0
2.869,-8.2246e-05,0
2.8695,-0.00011347,0
2.87,-0.00013797,0
2.8705,-0.00016046,0
2.871,-0.00015862,0
2.8715,-0.00013042,0
2.872,-9.9367e-05,0
2.8725,-8.04e-05,0
2.873,-7.4189e-05,0
2.8735,-7.335e-05,0
2.874,-6.6804e-05,0
2.8745,-4.683e-05,0
2.875,-1.4939e-05,0
2.8755,1.2757e-05,0
2.876,2.5681e-05,0
2.8765,3.1388e-05,0
2.877,4.1123e-05,0
2.8775,5.4551e-05,0
2.878,6.5126e-05,0
2.8785,6.4118e-05,0
2.879,5.0858e-05,0
2.8795,3.7766e-05,0
2.88,2.6017e-05,0
2.8805,1.4939e-05,0
2.881,1.2421e-05,0
2.8815,1.8463e-05,0
2.882,2.5009e-05,0
2.8825,2.7359e-05,0
2.883,3.0045e-05,0
2.8835,3.5752e-05,0
2.884,3.9277e-05,0
2.8845,4.0452e-05,0
2.885,4.6494e-05,0
2.8855,5.6901e-05,0
2.886,6.6468e-05,0
2.8865,7.0664e-05,0
2.887,6.5629e-05,0
2.8875,5.4383e-05,0
2.888,4.9012e-05,0
2.8885,5.1698e-05,0
2.889,4.3809e-05,0
2.8895,1.5946e-05,0
2.89,-9.5674e-06,0
2.8905,-7.5532e-06,0
2.891,7.5532e-06,0
2.8915,1.2757e-05,0
2.892,9.7353e-06,0
2.8925,1.1917e-05,0
2.893,1.8296e-05,0
2.8935,1.9974e-05,0
2.894,1.4435e-05,0
2.8945,9.3996e-06,0
2.895,6.5461e-06,0
2.8955,4.3641e-06,0
2.896,7.8889e-06,0
2.8965,1.326e-05,0
2.897,1.4603e-05,0
2.8975,1.6281e-05,0
2.898,1.796e-05,0
2.8985,1.2589e-05,0
2.899,-1.8463e-06,0
2.8995,-1.5946e-05,0
2.9,-1.7624e-05,0
2.9005,-3.5248e-06,0
2.901,1.6953e-05,0
2.9015,2.7695e-05,0
2.902,2.7359e-05,0
2.9025,2.8702e-05,0
2.903,4.1459e-05,0
2.9035,5.8244e-05,0
2.904,6.5629e-05,0
2.9045,6.5293e-05,0
2.905,6.2608e-05,0
2.9055,6.244e-05,0
2.906,6.2104e-05,0
2.9065,5.9419e-05,0
2.907,5.6062e-05,0
2.9075,5.5894e-05,0
2.908,6.0258e-05,0
2.9085,6.2272e-05,0
2.909,6.1936e-05,0
2.9095,6.63e-05,0
2.91,7.2343e-05,0
2.9105,7.4357e-05,0
2.911,7.2679e-05,0
2.9115,7.0329e-05,0
2.912,6.865e-05,0
2.9125,6.3951e-05,0
2.913,5.7572e-05,0
2.9135,5.0858e-05,0
2.914,4.6494e-05,0
2.9145,3.4409e-05,0
2.915,7.2175e-06,0
2.9155,-2.5177e-05,0
2.916,-5.9419e-05,0
2.9165,-8.6107e-05,0
2.917,-8.3421e-05,0
2.9175,-5.2537e-05,0
2.918,-1.8967e-05,0
2.9185,7.5532e-06,0
2.919,2.6184e-05,0
2.9195,3.0045e-05,0
2.92,2.4002e-05,0
2.9205,2.1317e-05,0
2.921,2.0813e-05,0
2.9215,1.4603e-05,0
2.922,7.7211e-06,0
2.9225,-8.392e-07,0
2.923,-1.1582e-05,0
2.9235,-9.9031e-06,0
2.924,4.5319e-06,0
2.9245,8.5603e-06,0
2.925,-1.5442e-05,0
2.9255,-5.153e-05,0
2.926,-7.5532e-05,0
2.9265,-8.04e-05,0
2.927,-7.2007e-05,0
2.9275,-5.7908e-05,0
2.928,-3.9445e-05,0
2.9285,-2.0478e-05,0
2.929,-2.8534e-06,0
2.9295,1.3932e-05,0
2.93,2.5681e-05,0
2.9305,2.9374e-05,0
2.931,2.7192e-05,0
2.9315,2.7192e-05,0
2.932,3.1556e-05,0
2.9325,3.827e-05,0
2.933,4.5487e-05,0
2.9335,5.3208e-05,0
2.934,6.2104e-05,0
2.9345,7.1e-05,0
2.935,7.4357e-05,0
2.9355,7.3518e-05,0
2.936,6.8818e-05,0
2.9365,5.7404e-05,0
2.937,4.6159e-05,0
2.9375,4.6998e-05,0
2.938,5.4887e-05,0
2.9385,5.1865e-05,0
2.939,3.8102e-05,0
2.9395,2.7527e-05,0
2.94,2.5345e-05,0
2.9405,2.2995e-05,0
2.941,1.5274e-05,0
2.9415,6.2104e-06,0
2.942,3.1891e-06,0
2.9425,9.7353e-06,0
2.943,1.5274e-05,0
2.9435,1.0239e-05,0
2.944,-3.1891e-06,0
2.9445,-1.7288e-05,0
2.945,-1.947e-05,0
2.9455,-6.2104e-06,0
2.946,1.1246e-05,0
2.9465,2.5009e-05,0
2.947,3.4745e-05,0
2.9475,4.1291e-05,0
2.948,4.7166e-05,0
2.9485,5.0019e-05,0
2.949,4.6326e-05,0
2.9495,3.978e-05,0
2.95,3.3066e-05,0
2.9505,2.4506e-05,0
2.951,1.2421e-05,0
2.9515,-4.5319e-06,0
2.952,-2.4338e-05,0
2.9525,-3.3066e-05,0
2.953,-2.3835e-05,0
2.9535,-5.8747e-06,0
2.954,6.5461e-06,0
2.9545,1.0575e-05,0
2.955,5.8747e-06,0
2.9555,-4.5319e-06,0
2.956,-1.3092e-05,0
2.9565,-1.7624e-05,0
2.957,-1.8631e-05,0
2.9575,-1.8967e-05,0
2.958,-1.8967e-05,0
2.9585,-2.1317e-05,0
2.959,-2.4338e-05,0
2.9595,-2.266e-05,0
2.96,-1.2085e-05,0
2.9605,-1.678e-07,0
2.961,7.8889e-06,0
2.9615,1.5946e-05,0
2.962,2.8367e-05,0
2.9625,4.6159e-05,0
2.963,6.2272e-05,0
2.9635,6.8315e-05,0
2.964,6.4622e-05,0
2.9645,5.3208e-05,0
2.965,4.3473e-05,0
2.9655,3.8773e-05,0
2.966,4.1795e-05,0
2.9665,5.0355e-05,0
2.967,5.2201e-05,0
2.9675,4.6159e-05,0
2.968,4.1123e-05,0
2.9685,3.9948e-05,0
2.969,4.0955e-05,0
2.9695,3.9948e-05,0
2.97,3.4241e-05,0
2.9705,1.6785e-05,0
2.971,-9.2317e-06,0
2.9715,-2.6856e-05,0
2.972,-3.0716e-05,0
2.9725,-2.031e-05,0
2.973,5.035e-07,0
2.9735,1.5946e-05,0
2.974,1.9638e-05,0
2.9745,1.0575e-05,0
2.975,-8.896e-06,0
2.9755,-2.1653e-05,0
2.976,-1.1078e-05,0
2.9765,1.2085e-05,0
2.977,3.0213e-05,0
2.9775,3.743e-05,0
2.978,3.6423e-05,0
2.9785,2.6688e-05,0
2.979,1.2253e-05,0
2.9795,1.091e-05,0
2.98,2.3331e-05,0
2.9805,3.4241e-05,0
2.981,3.7766e-05,0
2.9815,3.6591e-05,0
2.982,3.6759e-05,0
2.9825,3.3234e-05,0
2.983,3.0045e-05,0
2.9835,3.9445e-05,0
2.984,6.4286e-05,0
2.9845,8.8457e-05,0
2.985,9.4835e-05,0
2.9855,8.51e-05,0
2.986,7.57e-05,0
2.9865,7.8721e-05,0
2.987,8.4093e-05,0
2.9875,7.9057e-05,0
2.988,6.7979e-05,0
2.9885,6.0258e-05,0
2.989,5.0019e-05,0
2.9895,3.0549e-05,0
2.99,6.714e-06,0
2.9905,-8.2246e-06,0
2.991,-1.0575e-05,0
2.9915,-2.182e-06,0
2.992,1.1582e-05,0
2.9925,1.6449e-05,0
2.993,7.2175e-06,0
2.9935,-2.0142e-06,0
2.994,-2.0142e-06,0
2.9945,-2.8534e-06,0
2.995,-1.2589e-05,0
2.9955,-3.1724e-05,0
2.996,-5.2369e-05,0
2.9965,-5.9922e-05,0
2.997,-5.8412e-05,0
2.9975,-5.0187e-05,0
2.998,-2.8367e-05,0
2.9985,-1.1749e-06,0
2.999,1.8967e-05,0
2.9995,2.652e-05,0
3,2.4002e-05,0
3.0005,1.9303e-05,0
3.001,2.182e-05,0
3.0015,2.6017e-05,0
3.002,2.7695e-05,0
3.0025,3.1052e-05,0
3.003,3.3234e-05,0
3.0035,3.1388e-05,0
3.004,3.6759e-05,0
3.0045,5.3544e-05,0
3.005,7.3014e-05,0
3.0055,8.745e-05,0
3.006,9.3492e-05,0
3.0065,9.0806e-05,0
3.007,7.6371e-05,0
3.0075,5.8915e-05,0
3.008,5.2537e-05,0
3.0085,5.5558e-05,0
3.009,6.2272e-05,0
3.0095,6.8818e-05,0
3.01,7.1839e-05,0
3.0105,7.1e-05,0
3.011,6.4958e-05,0
3.0115,5.0355e-05,0
3.012,4.683e-05,0
3.0125,6.7308e-05,0
3.013,9.0806e-05,0
3.0135,9.3156e-05,0
3.014,6.4622e-05,0
3.0145,1.7288e-05,0
3.015,-2.9038e-05,0
3.0155,-5.5726e-05,0
3.016,-5.9251e-05,0
3.0165,-5.388e-05,0
3.017,-5.9251e-05,0
3.0175,-8.1071e-05,0
3.018,-9.7688e-05,0
3.0185,-9.5171e-05,0
3.019,-8.0064e-05,0
3.0195,-6.0761e-05,0
3.02,-4.4144e-05,0
3.0205,-3.0381e-05,0
3.021,-1.4267e-05,0
3.0215,3.357e-07,0
3.022,5.8747e-06,0
3.0225,1.0575e-05,0
3.023,2.0646e-05,0
3.0235,3.508e-05,0
3.024,5.1194e-05,0
3.0245,6.6972e-05,0
3.025,7.6707e-05,0
3.0255,7.8889e-05,0
3.026,8.1407e-05,0
3.0265,8.2582e-05,0
3.027,6.9322e-05,0
3.0275,4.1291e-05,0
3.028,1.091e-05,0
3.0285,-9.2317e-06,0
3.029,-2.1149e-05,0
3.0295,-2.652e-05,0
3.03,-1.561e-05,0
3.0305,7.0497e-06,0
3.031,1.9638e-05,0
3.0315,1.5946e-05,0
3.032,7.0497e-06,0
3.0325,-2.5177e-06,0
3.033,-1.4435e-05,0
3.0335,-1.4771e-05,0
3.034,3.1891e-06,0
3.0345,2.5681e-05,0
3.035,4.0452e-05,0
3.0355,5.7572e-05,0
3.036,7.8889e-05,0
3.0365,9.0471e-05,0
3.037,8.3757e-05,0
3.0375,6.5293e-05,0
3.038,4.2634e-05,0
3.0385,1.4939e-05,0
3.039,-1.0071e-05,0
3.0395,-1.1246e-05,0
3.04,9.7353e-06,0
3.0405,2.3331e-05,0
3.041,1.1246e-05,0
3.0415,-1.6281e-05,0
3.042,-3.6088e-05,0
3.0425,-4.8508e-05,0
3.043,-5.6733e-05,0
3.0435,-5.6901e-05,0
3.044,-4.8508e-05,0
3.0445,-3.2563e-05,0
3.045,-1.5274e-05,0
3.0455,-5.3712e-06,0
3.046,-3.8605e-06,0
3.0465,-4.5319e-06,0
3.047,5.2033e-06,0
3.0475,2.5681e-05,0
3.048,4.5151e-05,0
3.0485,5.7572e-05,0
3.049,5.8915e-05,0
3.0495,5.4887e-05,0
3.05,5.1194e-05,0
3.0505,4.4144e-05,0
3.051,3.5416e-05,0
3.0515,3.5584e-05,0
3.052,4.2466e-05,0
3.0525,5.2201e-05,0
3.053,6.0761e-05,0
3.0535,5.9419e-05,0
3.054,5.2201e-05,0
3.0545,4.683e-05,0
3.055,3.8102e-05,0
3.0555,2.652e-05,0
3.056,1.5106e-05,0
3.0565,1.8463e-06,0
3.057,-1.9135e-05,0
3.0575,-4.4648e-05,0
3.058,-5.7069e-05,0
3.0585,-5.2872e-05,0
3.059,-3.3738e-05,0
3.0595,-3.5248e-06,0
3.06,2.6688e-05,0
3.0605,5.5222e-05,0
3.061,7.5029e-05,0
3.0615,8.2918e-05,0
3.062,8.0232e-05,0
3.0625,7.1672e-05,0
3.063,6.1601e-05,0
3.0635,5.8915e-05,0
3.064,6.2104e-05,0
3.0645,6.2944e-05,0
3.065,5.2369e-05,0
3.0655,2.2324e-05,0
3.066,-2.0478e-05,0
3.0665,-5.2872e-05,0
3.067,-6.6468e-05,0
3.0675,-7.1504e-05,0
3.068,-7.0664e-05,0
3.0685,-6.0761e-05,0
3.069,-4.2298e-05,0
3.0695,-2.4338e-05,0
3.07,-2.0646e-05,0
3.0705,-2.266e-05,0
3.071,-1.4939e-05,0
3.0715,-2.3499e-06,0
3.072,4.5319e-06,0
3.0725,1.1246e-05,0
3.073,1.9638e-05,0
3.0735,2.5345e-05,0
3.074,3.4241e-05,0
3.0745,4.683e-05,0
3.075,5.2537e-05,0
3.0755,4.3473e-05,0
3.076,2.4002e-05,0
3.0765,6.714e-06,0
3.077,-8.392e-07,0
3.0775,-2.0142e-06,0
3.078,3.8605e-06,0
3.0785,1.3764e-05,0
3.079,2.3331e-05,0
3.0795,3.8102e-05,0
3.08,5.9251e-05,0
3.0805,7.6036e-05,0
3.081,8.5603e-05,0
3.0815,8.9967e-05,0
3.082,9.4499e-05,0
3.0825,0.00010524,0
3.083,0.00010977,0
3.0835,9.9031e-05,0
3.084,8.3085e-05,0
3.0845,6.7643e-05,0
3.085,4.9515e-05,0
3.0855,3.8102e-05,0
3.086,4.213e-05,0
3.0865,5.0858e-05,0
3.087,5.5222e-05,0
3.0875,5.1194e-05,0
3.088,4.3473e-05,0
3.0885,3.6423e-05,0
3.089,2.6352e-05,0
