0,0,0
0.0005,0,0
0.001,0,0
0.0015,0,0
0.002,0,0
0.0025,0,0
0.003,0,0
0.0035,0,0
0.004,0,0
0.0045,0,0
0.005,0,0
0.0055,0,0
0.006,0,0
0.0065,0,0
0.007,0,0
0.0075,0,0
0.008,0,0
0.0085,0,0
0.009,0,0
0.0095,0,0
0.01,0,0
0.0105,0,0
0.011,0,0
0.0115,0,0
0.012,0,0
0.0125,0,0
0.013,2.5681e-05,0
0.0135,2.5345e-05,0
0.014,2.6352e-05,0
0.0145,2.8031e-05,0
0.015,3.1052e-05,0
0.0155,3.4745e-05,0
0.016,3.6088e-05,0
0.0165,3.2731e-05,0
0.017,2.6017e-05,0
0.0175,2.2324e-05,0
0.018,2.0646e-05,0
0.0185,2.1317e-05,0
0.019,2.2995e-05,0
0.0195,2.3331e-05,0
0.02,2.0981e-05,0
0.0205,2.0646e-05,0
0.021,2.1653e-05,0
0.0215,1.9135e-05,0
0.022,1.4267e-05,0
0.0225,1.0575e-05,0
0.023,1.3932e-05,0
0.0235,1.9303e-05,0
0.024,1.9638e-05,0
0.0245,1.7456e-05,0
0.025,1.4939e-05,0
0.0255,1.6953e-05,0
0.026,1.9135e-05,0
0.0265,1.4939e-05,0
0.027,1.0239e-05,0
0.0275,2.182e-06,0
0.028,-1.0071e-06,0
0.0285,8.5603e-06,0
0.029,9.9031e-06,0
0.0295,4.6998e-06,0
0.03,9.9031e-06,0
0.0305,1.2924e-05,0
0.031,1.2924e-05,0
0.0315,1.796e-05,0
0.032,1.7121e-05,0
0.0325,1.3596e-05,0
0.033,1.796e-05,0
0.0335,2.2995e-05,0
0.034,2.1988e-05,0
0.0345,2.1988e-05,0
0.035,2.4338e-05,0
0.0355,2.5345e-05,0
0.036,2.6352e-05,0
0.0365,2.7695e-05,0
0.037,2.7527e-05,0
0.0375,2.8367e-05,0
0.038,2.7695e-05,0
0.0385,2.4002e-05,0
0.039,1.8296e-05,0
0.0395,1.4267e-05,0
0.04,1.8296e-05,0
0.0405,1.8631e-05,0
0.041,1.5274e-05,0
0.0415,2.031e-05,0
0.042,1.9806e-05,0
0.0425,1.6281e-05,0
0.043,2.5681e-05,0
0.0435,2.9038e-05,0
0.044,2.5009e-05,0
0.0445,2.6352e-05,0
0.045,2.4338e-05,0
0.0455,2.0646e-05,0
0.046,2.3331e-05,0
0.0465,2.8367e-05,0
0.047,3.0213e-05,0
0.0475,3.0045e-05,0
0.048,3.1388e-05,0
0.0485,3.508e-05,0
0.049,3.7095e-05,0
0.0495,3.6759e-05,0
0.05,3.508e-05,0
0.0505,3.1388e-05,0
0.051,2.9709e-05,0
0.0515,3.0549e-05,0
0.052,3.2059e-05,0
0.0525,3.3234e-05,0
0.053,3.5752e-05,0
0.0535,3.3402e-05,0
0.054,3.0716e-05,0
0.0545,3.1388e-05,0
0.055,2.3667e-05,0
0.0555,1.9638e-05,0
0.056,2.4674e-05,0
0.0565,1.7624e-05,0
0.057,9.3996e-06,0
0.0575,1.4603e-05,0
0.058,1.3428e-05,0
0.0585,7.2175e-06,0
0.059,7.8889e-06,0
0.0595,1.1582e-05,0
0.06,9.9031e-06,0
0.0605,4.5319e-06,0
0.061,3.8605e-06,0
0.0615,7.8889e-06,0
0.062,9.5674e-06,0
0.0625,7.2175e-06,0
0.063,4.5319e-06,0
0.0635,4.6998e-06,0
0.064,7.8889e-06,0
0.0645,1.091e-05,0
0.065,1.091e-05,0
0.0655,7.8889e-06,0
0.066,8.5603e-06,0
0.0665,4.5319e-06,0
0.067,5.035e-07,0
0.0675,7.2175e-06,0
0.068,1.1917e-05,0
0.0685,1.3764e-05,0
0.069,1.8296e-05,0
0.0695,1.1414e-05,0
0.07,5.8747e-06,0
0.0705,1.3092e-05,0
0.071,1.6953e-05,0
0.0715,1.7792e-05,0
0.072,2.0981e-05,0
0.0725,2.1317e-05,0
0.073,1.8296e-05,0
0.0735,1.6281e-05,0
0.074,1.9638e-05,0
0.0745,2.1317e-05,0
0.075,2.0813e-05,0
0.0755,2.2995e-05,0
0.076,2.4338e-05,0
0.0765,1.8631e-05,0
0.077,1.4099e-05,0
0.0775,1.6617e-05,0
0.078,1.9303e-05,0
0.0785,1.9135e-05,0
0.079,2.4674e-05,0
0.0795,2.5009e-05,0
0.08,1.7792e-05,0
0.0805,1.796e-05,0
0.081,1.9974e-05,0
0.0815,2.0646e-05,0
0.082,2.9038e-05,0
0.0825,2.8702e-05,0
0.083,2.2324e-05,0
0.0835,2.7359e-05,0
0.084,2.9709e-05,0
0.0845,2.6688e-05,0
0.085,2.4506e-05,0
0.0855,1.7624e-05,0
0.086,1.3764e-05,0
0.0865,1.4939e-05,0
0.087,2.0646e-05,0
0.0875,2.2995e-05,0
0.088,2.0478e-05,0
0.0885,1.9806e-05,0
0.089,2.182e-05,0
0.0895,2.266e-05,0
0.09,1.8631e-05,0
0.0905,1.7288e-05,0
0.091,2.266e-05,0
0.0915,2.7695e-05,0
0.092,2.7359e-05,0
0.0925,1.8967e-05,0
0.093,1.3932e-05,0
0.0935,1.796e-05,0
0.094,1.7121e-05,0
0.0945,1.3932e-05,0
0.095,1.8296e-05,0
0.0955,1.947e-05,0
0.096,1.9974e-05,0
0.0965,2.4842e-05,0
0.097,2.4338e-05,0
0.0975,1.947e-05,0
0.098,1.947e-05,0
0.0985,1.9974e-05,0
0.099,2.2995e-05,0
0.0995,2.7359e-05,0
0.1,2.8031e-05,0
0.1005,2.182e-05,0
0.101,1.7121e-05,0
0.1015,2.1317e-05,0
0.102,2.8031e-05,0
0.1025,2.887e-05,0
0.103,2.9206e-05,0
0.1035,2.9877e-05,0
0.104,2.5009e-05,0
0.1045,1.8128e-05,0
0.105,1.7121e-05,0
0.1055,1.5274e-05,0
0.106,9.9031e-06,0
0.1065,1.1078e-05,0
0.107,1.326e-05,0
0.1075,1.4603e-05,0
0.108,1.8463e-05,0
0.1085,1.5274e-05,0
0.109,1.326e-05,0
0.1095,1.9806e-05,0
0.11,2.1317e-05,0
0.1105,1.6449e-05,0
0.111,1.6281e-05,0
0.1115,2.5009e-05,0
0.112,3.0213e-05,0
0.1125,2.9374e-05,0
0.113,2.6184e-05,0
0.1135,2.6017e-05,0
0.114,3.2059e-05,0
0.1145,3.4409e-05,0
0.115,2.8702e-05,0
0.1155,2.5345e-05,0
0.116,3.0381e-05,0
0.1165,3.5416e-05,0
0.117,3.2059e-05,0
0.1175,2.4002e-05,0
0.118,2.266e-05,0
0.1185,2.3331e-05,0
0.119,2.2156e-05,0
0.1195,2.8367e-05,0
0.12,2.9542e-05,0
0.1205,2.5009e-05,0
0.121,2.3667e-05,0
0.1215,1.7624e-05,0
0.122,1.2589e-05,0
0.1225,1.6953e-05,0
0.123,1.5946e-05,0
0.1235,1.326e-05,0
0.124,1.3932e-05,0
0.1245,1.4939e-05,0
0.125,1.4267e-05,0
0.1255,1.3932e-05,0
0.126,1.4939e-05,0
0.1265,1.5274e-05,0
0.127,1.1414e-05,0
0.1275,8.896e-06,0
0.128,1.091e-05,0
0.1285,1.326e-05,0
0.129,1.2253e-05,0
0.1295,9.9031e-06,0
0.13,1.1917e-05,0
0.1305,1.4435e-05,0
0.131,1.9974e-05,0
0.1315,2.2324e-05,0
0.132,1.7624e-05,0
0.1325,1.8463e-05,0
0.133,1.4099e-05,0
0.1335,8.896e-06,0
0.134,1.1246e-05,0
0.1345,9.2317e-06,0
0.135,8.896e-06,0
0.1355,1.7288e-05,0
0.136,1.8296e-05,0
0.1365,1.6617e-05,0
0.137,2.3667e-05,0
0.1375,3.2395e-05,0
0.138,3.4409e-05,0
0.1385,2.9374e-05,0
0.139,2.7192e-05,0
0.1395,2.5681e-05,0
0.14,2.2492e-05,0
0.1405,2.2324e-05,0
0.141,2.3667e-05,0
0.1415,1.8967e-05,0
0.142,1.4939e-05,0
0.1425,1.4771e-05,0
0.143,1.1917e-05,0
0.1435,8.2246e-06,0
0.144,1.091e-05,0
0.1445,1.091e-05,0
0.145,9.2317e-06,0
0.1455,1.4939e-05,0
0.146,1.3092e-05,0
0.1465,5.2033e-06,0
0.147,8.896e-06,0
0.1475,1.4603e-05,0
0.148,2.4002e-05,0
0.1485,3.6088e-05,0
0.149,3.3234e-05,0
0.1495,2.5009e-05,0
0.15,3.0045e-05,0
0.1505,3.4745e-05,0
0.151,3.3402e-05,0
0.1515,2.9709e-05,0
0.152,2.8702e-05,0
0.1525,2.8702e-05,0
0.153,2.6184e-05,0
0.1535,2.0646e-05,0
0.154,1.6785e-05,0
0.1545,2.1317e-05,0
0.155,2.6352e-05,0
0.1555,3.0716e-05,0
0.156,3.1556e-05,0
0.1565,2.4506e-05,0
0.157,1.9303e-05,0
0.1575,1.326e-05,0
0.158,7.2175e-06,0
0.1585,1.1078e-05,0
0.159,1.3764e-05,0
0.1595,9.9031e-06,0
0.16,1.2253e-05,0
0.1605,1.1917e-05,0
0.161,1.0575e-05,0
0.1615,1.5274e-05,0
0.162,1.1414e-05,0
0.1625,6.8818e-06,0
0.163,1.0575e-05,0
0.1635,1.6449e-05,0
0.164,2.1988e-05,0
0.1645,2.5345e-05,0
0.165,2.6017e-05,0
0.1655,2.6017e-05,0
0.166,2.5177e-05,0
0.1665,2.4842e-05,0
0.167,2.6017e-05,0
0.1675,2.7024e-05,0
0.168,2.652e-05,0
0.1685,2.2492e-05,0
0.169,1.7792e-05,0
0.1695,1.9638e-05,0
0.17,2.3331e-05,0
0.1705,1.8296e-05,0
0.171,1.2589e-05,0
0.1715,1.5946e-05,0
0.172,1.4603e-05,0
0.1725,1.4603e-05,0
0.173,2.182e-05,0
0.1735,2.0646e-05,0
0.174,1.6617e-05,0
0.1745,1.9135e-05,0
0.175,1.6785e-05,0
0.1755,1.4771e-05,0
0.176,2.1653e-05,0
0.1765,2.7359e-05,0
0.177,2.6688e-05,0
0.1775,2.652e-05,0
0.178,3.0381e-05,0
0.1785,3.3066e-05,0
0.179,3.3402e-05,0
0.1795,3.0213e-05,0
0.18,2.6352e-05,0
0.1805,2.6017e-05,0
0.181,2.8367e-05,0
0.1815,3.0716e-05,0
0.182,2.9374e-05,0
0.1825,2.4338e-05,0
0.183,2.2492e-05,0
0.1835,1.6617e-05,0
0.184,8.896e-06,0
0.1845,1.5946e-05,0
0.185,2.0646e-05,0
0.1855,1.7288e-05,0
0.186,2.0646e-05,0
0.1865,1.796e-05,0
0.187,1.4435e-05,0
0.1875,1.8967e-05,0
0.188,1.5274e-05,0
0.1885,9.0639e-06,0
0.189,1.2421e-05,0
0.1895,1.4939e-05,0
0.19,1.4603e-05,0
0.1905,1.8296e-05,0
0.191,1.9974e-05,0
0.1915,1.8967e-05,0
0.192,1.7792e-05,0
0.1925,1.7624e-05,0
0.193,2.0813e-05,0
0.1935,2.3667e-05,0
0.194,2.6017e-05,0
0.1945,2.7359e-05,0
0.195,2.2828e-05,0
0.1955,1.8631e-05,0
0.196,2.3163e-05,0
0.1965,2.6017e-05,0
0.197,2.266e-05,0
0.1975,2.2995e-05,0
0.198,1.6785e-05,0
0.1985,9.9031e-06,0
0.199,1.5946e-05,0
0.1995,2.2156e-05,0
0.2,1.8296e-05,0
0.2005,1.1246e-05,0
0.201,7.2175e-06,0
0.2015,9.0639e-06,0
0.202,1.5946e-05,0
0.2025,1.7121e-05,0
0.203,1.3932e-05,0
0.2035,1.4267e-05,0
0.204,1.6281e-05,0
0.2045,1.7121e-05,0
0.205,1.7624e-05,0
0.2055,1.8463e-05,0
0.206,1.7121e-05,0
0.2065,9.9031e-06,0
0.207,5.0355e-06,0
0.2075,8.5603e-06,0
0.208,1.1917e-05,0
0.2085,1.1078e-05,0
0.209,1.4603e-05,0
0.2095,1.6449e-05,0
0.21,1.7624e-05,0
0.2105,2.5009e-05,0
0.211,2.5849e-05,0
0.2115,2.0813e-05,0
0.212,2.4506e-05,0
0.2125,2.8031e-05,0
0.213,2.7863e-05,0
0.2135,3.0381e-05,0
0.214,2.7359e-05,0
0.2145,2.4506e-05,0
0.215,3.2563e-05,0
0.2155,4.0116e-05,0
0.216,3.5416e-05,0
0.2165,2.6688e-05,0
0.217,2.6017e-05,0
0.2175,2.8367e-05,0
0.218,2.8031e-05,0
0.2185,2.7024e-05,0
0.219,2.5345e-05,0
0.2195,2.2828e-05,0
0.22,2.031e-05,0
0.2205,1.9135e-05,0
0.221,1.8967e-05,0
0.2215,1.9303e-05,0
0.222,2.1317e-05,0
0.2225,1.7121e-05,0
0.223,8.5603e-06,0
0.2235,1.1414e-05,0
0.224,1.5778e-05,0
0.2245,1.7456e-05,0
0.225,2.2828e-05,0
0.2255,2.1317e-05,0
0.226,1.9638e-05,0
0.2265,2.4002e-05,0
0.227,2.0981e-05,0
0.2275,1.7792e-05,0
0.228,2.182e-05,0
0.2285,2.6017e-05,0
0.229,2.6184e-05,0
0.2295,2.4002e-05,0
0.23,2.2995e-05,0
0.2305,2.266e-05,0
0.231,2.7192e-05,0
0.2315,3.2059e-05,0
0.232,3.1388e-05,0
0.2325,3.122e-05,0
0.233,2.9374e-05,0
0.2335,2.3835e-05,0
0.234,1.7288e-05,0
0.2345,1.5946e-05,0
0.235,1.9638e-05,0
0.2355,1.9135e-05,0
0.236,1.4939e-05,0
0.2365,1.7792e-05,0
0.237,1.7288e-05,0
0.2375,1.3932e-05,0
0.238,1.9303e-05,0
0.2385,2.1988e-05,0
0.239,2.1317e-05,0
0.2395,2.5849e-05,0
0.24,2.2156e-05,0
0.2405,1.8296e-05,0
0.241,2.3163e-05,0
0.2415,2.5681e-05,0
0.242,2.4002e-05,0
0.2425,2.5345e-05,0
0.243,2.7863e-05,0
0.2435,2.7695e-05,0
0.244,2.4842e-05,0
0.2445,2.0981e-05,0
0.245,1.8128e-05,0
0.2455,1.8296e-05,0
0.246,1.796e-05,0
0.2465,1.6785e-05,0
0.247,1.3092e-05,0
0.2475,7.2175e-06,0
0.248,1.0071e-05,0
0.2485,1.2589e-05,0
0.249,9.0639e-06,0
0.2495,9.5674e-06,0
0.25,7.5532e-06,0
0.2505,5.539e-06,0
0.251,1.3092e-05,0
0.2515,1.5442e-05,0
0.252,1.2589e-05,0
0.2525,1.5946e-05,0
0.253,1.4603e-05,0
0.2535,1.4267e-05,0
0.254,2.0478e-05,0
0.2545,2.0981e-05,0
0.255,1.8296e-05,0
0.2555,1.6449e-05,0
0.256,1.4771e-05,0
0.2565,1.5946e-05,0
0.257,2.0981e-05,0
0.2575,2.266e-05,0
0.258,2.0142e-05,0
0.2585,1.7624e-05,0
0.259,2.2156e-05,0
0.2595,2.6688e-05,0
0.26,2.6017e-05,0
0.2605,2.0981e-05,0
0.261,1.8296e-05,0
0.2615,1.3428e-05,0
0.262,1.2589e-05,0
0.2625,1.9638e-05,0
0.263,1.9638e-05,0
0.2635,1.4603e-05,0
0.264,1.6617e-05,0
0.2645,1.3764e-05,0
0.265,1.4603e-05,0
0.2655,2.2995e-05,0
0.266,2.1988e-05,0
0.2665,1.8631e-05,0
0.267,2.1988e-05,0
0.2675,2.7024e-05,0
0.268,3.2731e-05,0
0.2685,3.2731e-05,0
0.269,2.6688e-05,0
0.2695,2.2156e-05,0
0.27,1.9806e-05,0
0.2705,1.8631e-05,0
0.271,1.7288e-05,0
0.2715,1.4771e-05,0
0.272,1.5946e-05,0
0.2725,2.266e-05,0
0.273,2.8702e-05,0
0.2735,2.7695e-05,0
0.274,2.887e-05,0
0.2745,3.0045e-05,0
0.275,2.6017e-05,0
0.2755,2.7695e-05,0
0.276,2.5177e-05,0
0.2765,1.8296e-05,0
0.277,2.0981e-05,0
0.2775,2.5345e-05,0
0.278,2.3499e-05,0
0.2785,2.1653e-05,0
0.279,1.8296e-05,0
0.2795,1.4603e-05,0
0.28,1.7288e-05,0
0.2805,2.1317e-05,0
0.281,2.031e-05,0
0.2815,1.7792e-05,0
0.282,1.8296e-05,0
0.2825,1.5946e-05,0
0.283,1.3932e-05,0
0.2835,1.8631e-05,0
0.284,2.5681e-05,0
0.2845,2.6688e-05,0
0.285,2.0981e-05,0
0.2855,1.6953e-05,0
0.286,1.6953e-05,0
0.2865,1.4435e-05,0
0.287,1.326e-05,0
0.2875,1.091e-05,0
0.288,6.8818e-06,0
0.2885,1.0575e-05,0
0.289,1.1917e-05,0
0.2895,1.326e-05,0
0.29,2.1988e-05,0
0.2905,2.0646e-05,0
0.291,1.4939e-05,0
0.2915,1.7792e-05,0
0.292,1.6449e-05,0
0.2925,1.6281e-05,0
0.293,2.266e-05,0
0.2935,2.7695e-05,0
0.294,2.7024e-05,0
0.2945,2.652e-05,0
0.295,2.8534e-05,0
0.2955,2.8367e-05,0
0.296,2.5849e-05,0
0.2965,2.5009e-05,0
0.297,2.5009e-05,0
0.2975,1.8296e-05,0
0.298,1.4603e-05,0
0.2985,1.7288e-05,0
0.299,1.796e-05,0
0.2995,1.561e-05,0
0.3,1.3764e-05,0
0.3005,9.2317e-06,0
0.301,7.7211e-06,0
0.3015,1.2924e-05,0
0.302,1.1917e-05,0
0.3025,1.3596e-05,0
0.303,2.3667e-05,0
0.3035,2.5345e-05,0
0.304,2.4338e-05,0
0.3045,2.6688e-05,0
0.305,1.9135e-05,0
0.3055,1.1917e-05,0
0.306,1.9303e-05,0
0.3065,3.0045e-05,0
0.307,2.7863e-05,0
0.3075,1.6953e-05,0
0.308,1.5274e-05,0
0.3085,2.0981e-05,0
0.309,2.2324e-05,0
0.3095,2.2324e-05,0
0.31,2.5177e-05,0
0.3105,2.7359e-05,0
0.311,2.6352e-05,0
0.3115,2.6352e-05,0
0.312,3.2059e-05,0
0.3125,3.4745e-05,0
0.313,3.1388e-05,0
0.3135,2.4338e-05,0
0.314,1.9638e-05,0
0.3145,2.7695e-05,0
0.315,2.7359e-05,0
0.3155,1.9303e-05,0
0.316,1.8296e-05,0
0.3165,1.6617e-05,0
0.317,1.4771e-05,0
0.3175,1.8296e-05,0
0.318,1.5274e-05,0
0.3185,1.2421e-05,0
0.319,1.6617e-05,0
0.3195,1.947e-05,0
0.32,1.6114e-05,0
0.3205,1.1078e-05,0
0.321,1.0575e-05,0
0.3215,1.6281e-05,0
0.322,2.0478e-05,0
0.3225,1.6617e-05,0
0.323,1.3764e-05,0
0.3235,1.561e-05,0
0.324,1.2924e-05,0
0.3245,5.2033e-06,0
0.325,5.7069e-06,0
0.3255,9.9031e-06,0
0.326,1.2589e-05,0
0.3265,9.7353e-06,0
0.327,9.9031e-06,0
0.3275,1.8463e-05,0
0.328,2.0478e-05,0
0.3285,1.8631e-05,0
0.329,2.5345e-05,0
0.3295,2.4506e-05,0
0.33,1.9303e-05,0
0.3305,2.2995e-05,0
0.331,2.3835e-05,0
0.3315,2.3163e-05,0
0.332,2.8031e-05,0
0.3325,3.1388e-05,0
0.333,2.7359e-05,0
0.3335,2.3667e-05,0
0.334,2.4002e-05,0
0.3345,2.9709e-05,0
0.335,3.3402e-05,0
0.3355,2.5345e-05,0
0.336,1.7624e-05,0
0.3365,1.6617e-05,0
0.337,1.6953e-05,0
0.3375,2.031e-05,0
0.338,2.5681e-05,0
0.3385,2.5177e-05,0
0.339,2.1317e-05,0
0.3395,1.326e-05,0
0.34,4.5319e-06,0
0.3405,9.7353e-06,0
0.341,1.1414e-05,0
0.3415,8.2246e-06,0
0.342,1.5106e-05,0
0.3425,1.7624e-05,0
0.343,1.7121e-05,0
0.3435,2.4338e-05,0
0.344,2.6017e-05,0
0.3445,2.3331e-05,0
0.345,2.7863e-05,0
0.3455,3.6088e-05,0
0.346,4.1291e-05,0
0.3465,3.9109e-05,0
0.347,3.4745e-05,0
0.3475,3.122e-05,0
0.348,2.8367e-05,0
0.3485,2.8031e-05,0
0.349,2.6688e-05,0
0.3495,2.417e-05,0
0.35,2.2995e-05,0
0.3505,2.2492e-05,0
0.351,1.8296e-05,0
0.3515,1.4435e-05,0
0.352,1.796e-05,0
0.3525,1.796e-05,0
0.353,1.4939e-05,0
0.3535,1.6617e-05,0
0.354,1.8631e-05,0
0.3545,2.1988e-05,0
0.355,3.0549e-05,0
0.3555,2.7863e-05,0
0.356,2.1317e-05,0
0.3565,2.5849e-05,0
0.357,2.4002e-05,0
0.3575,1.6449e-05,0
0.358,1.5274e-05,0
0.3585,1.8463e-05,0
0.359,1.9974e-05,0
0.3595,1.8967e-05,0
0.36,1.7624e-05,0
0.3605,1.8296e-05,0
0.361,1.796e-05,0
0.3615,1.5946e-05,0
0.362,1.9638e-05,0
0.3625,2.8367e-05,0
0.363,3.1388e-05,0
0.3635,2.5177e-05,0
0.364,2.3667e-05,0
0.3645,2.2995e-05,0
0.365,1.7288e-05,0
0.3655,8.7282e-06,0
0.366,5.7069e-06,0
0.3665,1.0575e-05,0
0.367,7.0497e-06,0
0.3675,3.8605e-06,0
0.368,1.0575e-05,0
0.3685,1.1917e-05,0
0.369,1.326e-05,0
0.3695,1.9806e-05,0
0.37,1.9974e-05,0
0.3705,1.7288e-05,0
0.371,2.266e-05,0
0.3715,2.8534e-05,0
0.372,2.9877e-05,0
0.3725,2.6184e-05,0
0.373,2.1149e-05,0
0.3735,1.9974e-05,0
0.374,2.1317e-05,0
0.3745,2.3331e-05,0
0.375,1.9303e-05,0
0.3755,1.2757e-05,0
0.376,1.0575e-05,0
0.3765,1.1749e-05,0
0.377,1.5442e-05,0
0.3775,1.6281e-05,0
0.378,1.1414e-05,0
0.3785,2.0142e-06,0
0.379,-1.8463e-06,0
0.3795,6.714e-06,0
0.38,1.2085e-05,0
0.3805,1.326e-05,0
0.381,1.9806e-05,0
0.3815,2.0981e-05,0
0.382,2.1988e-05,0
0.3825,2.5345e-05,0
0.383,1.7288e-05,0
0.3835,1.1749e-05,0
0.384,1.8631e-05,0
0.3845,2.2995e-05,0
0.385,2.031e-05,0
0.3855,1.7288e-05,0
0.386,1.4435e-05,0
0.3865,1.326e-05,0
0.387,2.031e-05,0
0.3875,2.8031e-05,0
0.388,3.3738e-05,0
0.3885,3.7766e-05,0
0.389,3.5584e-05,0
0.3895,3.0381e-05,0
0.39,2.6688e-05,0
0.3905,2.7359e-05,0
0.391,2.7024e-05,0
0.3915,2.2324e-05,0
0.392,2.0646e-05,0
0.3925,2.8031e-05,0
0.393,2.7359e-05,0
0.3935,2.1317e-05,0
0.394,2.5513e-05,0
0.3945,2.8367e-05,0
0.395,2.6352e-05,0
0.3955,2.8031e-05,0
0.396,2.2324e-05,0
0.3965,1.5778e-05,0
0.397,1.5946e-05,0
0.3975,1.2757e-05,0
0.398,4.1962e-06,0
0.3985,-3.0213e-06,0
0.399,-3.357e-07,0
0.3995,7.7211e-06,0
0.4,1.2085e-05,0
0.4005,7.8889e-06,0
0.401,3.5248e-06,0
0.4015,3.1891e-06,0
0.402,6.5461e-06,0
0.4025,1.3932e-05,0
0.403,1.8631e-05,0
0.4035,1.4939e-05,0
0.404,1.1246e-05,0
0.4045,8.5603e-06,0
0.405,5.8747e-06,0
0.4055,1.3932e-05,0
0.406,1.6953e-05,0
0.4065,1.796e-05,0
0.407,2.7024e-05,0
0.4075,2.6688e-05,0
0.408,2.5177e-05,0
0.4085,3.1556e-05,0
0.409,3.0045e-05,0
0.4095,2.7192e-05,0
0.41,3.0716e-05,0
0.4105,3.4073e-05,0
0.411,3.8605e-05,0
0.4115,4.1291e-05,0
0.412,3.743e-05,0
0.4125,3.2731e-05,0
0.413,3.1556e-05,0
0.4135,2.652e-05,0
0.414,2.4674e-05,0
0.4145,3.0716e-05,0
0.415,3.4073e-05,0
0.4155,2.7695e-05,0
0.416,2.266e-05,0
0.4165,2.1317e-05,0
0.417,2.4842e-05,0
0.4175,2.3331e-05,0
0.418,1.6785e-05,0
0.4185,1.9806e-05,0
0.419,2.3835e-05,0
0.4195,2.3331e-05,0
0.42,2.6017e-05,0
0.4205,2.3835e-05,0
0.421,2.182e-05,0
0.4215,2.8367e-05,0
0.422,2.5681e-05,0
0.4225,2.0813e-05,0
0.423,2.2995e-05,0
0.4235,2.0646e-05,0
0.424,1.4939e-05,0
0.4245,1.0407e-05,0
0.425,9.2317e-06,0
0.4255,1.091e-05,0
0.426,1.1582e-05,0
0.4265,1.1246e-05,0
0.427,1.326e-05,0
0.4275,1.796e-05,0
0.428,2.2995e-05,0
0.4285,2.4002e-05,0
0.429,2.1149e-05,0
0.4295,1.9638e-05,0
0.43,2.0478e-05,0
0.4305,1.2589e-05,0
0.431,5.8747e-06,0
0.4315,1.1749e-05,0
0.432,1.3428e-05,0
0.4325,1.1917e-05,0
0.433,2.0981e-05,0
0.4335,2.266e-05,0
0.434,1.4603e-05,0
0.4345,1.6953e-05,0
0.435,1.8463e-05,0
0.4355,1.5946e-05,0
0.436,1.9806e-05,0
0.4365,2.2492e-05,0
0.437,2.6017e-05,0
0.4375,2.9374e-05,0
0.438,2.6352e-05,0
0.4385,2.3835e-05,0
0.439,2.5681e-05,0
0.4395,2.9374e-05,0
0.44,2.8367e-05,0
0.4405,2.5177e-05,0
0.441,2.2995e-05,0
0.4415,2.5681e-05,0
0.442,2.7024e-05,0
0.4425,2.3667e-05,0
0.443,2.031e-05,0
0.4435,1.6617e-05,0
0.444,1.3932e-05,0
0.4445,1.7121e-05,0
0.445,1.3596e-05,0
0.4455,9.7353e-06,0
0.446,1.4939e-05,0
0.4465,1.4771e-05,0
0.447,1.1917e-05,0
0.4475,1.7288e-05,0
0.448,1.4939e-05,0
0.4485,8.896e-06,0
0.449,1.5106e-05,0
0.4495,2.3667e-05,0
0.45,2.652e-05,0
0.4505,3.0045e-05,0
0.451,2.8702e-05,0
0.4515,2.1317e-05,0
0.452,1.8967e-05,0
0.4525,2.2995e-05,0
0.453,2.6184e-05,0
0.4535,2.4002e-05,0
0.454,2.3499e-05,0
0.4545,2.2324e-05,0
0.455,1.8463e-05,0
0.4555,1.4603e-05,0
0.456,1.5946e-05,0
0.4565,1.2924e-05,0
0.457,1.0407e-05,0
0.4575,1.6953e-05,0
0.458,1.6617e-05,0
0.4585,1.1246e-05,0
0.459,1.6617e-05,0
0.4595,1.9303e-05,0
0.46,1.8631e-05,0
0.4605,2.4674e-05,0
0.461,2.652e-05,0
0.4615,2.7695e-05,0
0.462,3.5416e-05,0
0.4625,3.9445e-05,0
0.463,3.5416e-05,0
0.4635,2.8031e-05,0
0.464,2.5009e-05,0
0.4645,2.1653e-05,0
0.465,1.9303e-05,0
0.4655,2.1149e-05,0
0.466,2.3499e-05,0
0.4665,2.182e-05,0
0.467,1.7288e-05,0
0.4675,1.2589e-05,0
0.468,1.0239e-05,0
0.4685,8.5603e-06,0
0.469,1.1917e-05,0
0.4695,1.2253e-05,0
0.47,1.0071e-05,0
0.4705,1.6953e-05,0
0.471,1.5778e-05,0
0.4715,9.3996e-06,0
0.472,1.8128e-05,0
0.4725,2.182e-05,0
0.473,1.7792e-05,0
0.4735,1.561e-05,0
0.474,1.1917e-05,0
0.4745,9.2317e-06,0
0.475,1.2589e-05,0
0.4755,1.3932e-05,0
0.476,1.2589e-05,0
0.4765,1.6281e-05,0
0.477,2.3331e-05,0
0.4775,2.5009e-05,0
0.478,1.9303e-05,0
0.4785,1.4603e-05,0
0.479,1.326e-05,0
0.4795,1.5946e-05,0
0.48,1.6281e-05,0
0.4805,1.1917e-05,0
0.481,6.3783e-06,0
0.4815,5.0355e-06,0
0.482,1.0575e-05,0
0.4825,9.9031e-06,0
0.483,9.9031e-06,0
0.4835,1.8631e-05,0
0.484,1.9303e-05,0
0.4845,1.8128e-05,0
0.485,2.1988e-05,0
0.4855,2.2995e-05,0
0.486,2.266e-05,0
0.4865,2.6017e-05,0
0.487,2.3331e-05,0
0.4875,2.182e-05,0
0.488,2.9709e-05,0
0.4885,3.3066e-05,0
0.489,3.1724e-05,0
0.4895,3.4073e-05,0
0.49,3.2731e-05,0
0.4905,2.7359e-05,0
0.491,2.5009e-05,0
0.4915,2.5009e-05,0
0.492,2.7695e-05,0
0.4925,3.2731e-05,0
0.493,3.3402e-05,0
0.4935,2.9374e-05,0
0.494,2.4002e-05,0
0.4945,1.9303e-05,0
0.495,2.1317e-05,0
0.4955,1.9974e-05,0
0.496,1.6617e-05,0
0.4965,2.1988e-05,0
0.497,2.5345e-05,0
0.4975,2.4338e-05,0
0.498,2.5345e-05,0
0.4985,2.2995e-05,0
0.499,2.0478e-05,0
0.4995,2.4506e-05,0
0.5,2.5009e-05,0
0.5005,2.266e-05,0
0.501,2.7527e-05,0
0.5015,3.4073e-05,0
0.502,3.4409e-05,0
0.5025,2.7359e-05,0
0.503,2.3667e-05,0
0.5035,2.3331e-05,0
0.504,2.6688e-05,0
0.5045,3.1556e-05,0
0.505,3.1052e-05,0
0.5055,2.5009e-05,0
0.506,2.031e-05,0
0.5065,2.1317e-05,0
0.507,2.4674e-05,0
0.5075,2.4338e-05,0
0.508,2.182e-05,0
0.5085,1.9135e-05,0
0.509,1.8631e-05,0
0.5095,2.5513e-05,0
0.51,2.3499e-05,0
0.5105,1.6617e-05,0
0.511,2.0646e-05,0
0.5115,2.0478e-05,0
0.512,1.4267e-05,0
0.5125,1.5946e-05,0
0.513,1.6617e-05,0
0.5135,1.2924e-05,0
0.514,1.5946e-05,0
0.5145,2.5681e-05,0
0.515,2.8031e-05,0
0.5155,2.2492e-05,0
0.516,1.9638e-05,0
0.5165,1.8296e-05,0
0.517,2.031e-05,0
0.5175,2.3835e-05,0
0.518,2.5177e-05,0
0.5185,2.4506e-05,0
0.519,2.2995e-05,0
0.5195,2.4842e-05,0
0.52,2.6688e-05,0
0.5205,2.7024e-05,0
0.521,2.9877e-05,0
0.5215,2.5345e-05,0
0.522,1.9303e-05,0
0.5225,2.4002e-05,0
0.523,2.5009e-05,0
0.5235,1.9638e-05,0
0.524,1.8463e-05,0
0.5245,1.2253e-05,0
0.525,6.5461e-06,0
0.5255,1.1749e-05,0
0.526,1.0575e-05,0
0.5265,6.8818e-06,0
0.527,1.1246e-05,0
0.5275,1.5946e-05,0
0.528,1.5946e-05,0
0.5285,1.2253e-05,0
0.529,1.0575e-05,0
0.5295,1.0575e-05,0
0.53,1.0239e-05,0
0.5305,1.3932e-05,0
0.531,1.9806e-05,0
0.5315,1.796e-05,0
0.532,1.4939e-05,0
0.5325,1.3092e-05,0
0.533,7.8889e-06,0
0.5335,3.6927e-06,0
0.534,4.5319e-06,0
0.5345,1.8463e-06,0
0.535,1.678e-07,0
0.5355,1.0239e-05,0
0.536,1.326e-05,0
0.5365,9.5674e-06,0
0.537,1.6785e-05,0
0.5375,2.031e-05,0
0.538,1.5274e-05,0
0.5385,1.6449e-05,0
0.539,1.7456e-05,0
0.5395,1.561e-05,0
0.54,1.5946e-05,0
0.5405,1.9303e-05,0
0.541,2.0981e-05,0
0.5415,2.0646e-05,0
0.542,2.1988e-05,0
0.5425,2.5009e-05,0
0.543,2.4842e-05,0
0.5435,2.3835e-05,0
0.544,2.5513e-05,0
0.5445,2.8534e-05,0
0.545,3.1556e-05,0
0.5455,3.3402e-05,0
0.546,3.3402e-05,0
0.5465,3.0045e-05,0
0.547,2.5345e-05,0
0.5475,1.5778e-05,0
0.548,9.2317e-06,0
0.5485,1.5442e-05,0
0.549,2.0478e-05,0
0.5495,1.8799e-05,0
0.55,1.9806e-05,0
0.5505,1.6617e-05,0
0.551,1.326e-05,0
0.5515,1.7121e-05,0
0.552,1.6449e-05,0
0.5525,1.8631e-05,0
0.553,2.6688e-05,0
0.5535,2.9877e-05,0
0.554,2.9374e-05,0
0.5545,2.6688e-05,0
0.555,2.3835e-05,0
0.5555,2.3331e-05,0
0.556,2.3331e-05,0
0.5565,2.1653e-05,0
0.557,2.182e-05,0
0.5575,2.1317e-05,0
0.558,2.0981e-05,0
0.5585,2.2492e-05,0
0.559,2.2492e-05,0
0.5595,2.2995e-05,0
0.56,2.5513e-05,0
0.5605,2.1317e-05,0
0.561,1.6785e-05,0
0.5615,2.417e-05,0
0.562,2.6688e-05,0
0.5625,2.2324e-05,0
0.563,2.3835e-05,0
0.5635,2.2995e-05,0
0.564,2.417e-05,0
0.5645,3.1724e-05,0
0.565,2.8367e-05,0
0.5655,1.8463e-05,0
0.566,2.0813e-05,0
0.5665,2.9374e-05,0
0.567,2.9038e-05,0
0.5675,1.8967e-05,0
0.568,1.1917e-05,0
0.5685,1.7624e-05,0
0.569,2.3331e-05,0
0.5695,2.1653e-05,0
0.57,1.8296e-05,0
0.5705,1.947e-05,0
0.571,1.9638e-05,0
0.5715,1.7792e-05,0
0.572,1.7288e-05,0
0.5725,1.6953e-05,0
0.573,1.947e-05,0
0.5735,1.9135e-05,0
0.574,1.796e-05,0
0.5745,2.5849e-05,0
0.575,2.4002e-05,0
0.5755,1.7288e-05,0
0.576,1.9303e-05,0
0.5765,1.8296e-05,0
0.577,1.6953e-05,0
0.5775,2.266e-05,0
0.578,2.1317e-05,0
0.5785,1.8967e-05,0
0.579,2.3667e-05,0
0.5795,2.8367e-05,0
0.58,3.0045e-05,0
0.5805,2.4002e-05,0
0.581,1.5274e-05,0
0.5815,1.326e-05,0
0.582,1.2589e-05,0
0.5825,8.2246e-06,0
0.583,6.5461e-06,0
0.5835,1.1246e-05,0
0.584,1.5946e-05,0
0.5845,1.8128e-05,0
0.585,1.6953e-05,0
0.5855,1.3092e-05,0
0.586,1.2253e-05,0
0.5865,1.1917e-05,0
0.587,9.3996e-06,0
0.5875,1.1078e-05,0
0.588,9.7353e-06,0
0.5885,1.091e-05,0
0.589,1.8296e-05,0
0.5895,1.5106e-05,0
0.59,6.8818e-06,0
0.5905,1.0239e-05,0
0.591,1.5946e-05,0
0.5915,1.7624e-05,0
0.592,2.0142e-05,0
0.5925,2.1317e-05,0
0.593,2.266e-05,0
0.5935,2.4002e-05,0
0.594,2.5345e-05,0
0.5945,2.5009e-05,0
0.595,2.6352e-05,0
0.5955,3.2059e-05,0
0.596,3.3234e-05,0
0.5965,2.9709e-05,0
0.597,2.9709e-05,0
0.5975,3.2563e-05,0
0.598,3.4409e-05,0
0.5985,2.9709e-05,0
0.599,2.7192e-05,0
0.5995,2.7192e-05,0
0.6,2.5345e-05,0
0.6005,2.6017e-05,0
0.601,2.0646e-05,0
0.6015,1.4099e-05,0
0.602,1.8631e-05,0
0.6025,1.9974e-05,0
0.603,1.9303e-05,0
0.6035,2.3331e-05,0
0.604,1.796e-05,0
0.6045,1.326e-05,0
0.605,2.1988e-05,0
0.6055,2.8702e-05,0
0.606,2.7024e-05,0
0.6065,2.6688e-05,0
0.607,2.8702e-05,0
0.6075,2.6688e-05,0
0.608,2.6352e-05,0
0.6085,3.0381e-05,0
0.609,3.3402e-05,0
0.6095,3.2059e-05,0
0.61,2.7863e-05,0
0.6105,2.4002e-05,0
0.611,2.4338e-05,0
0.6115,2.7359e-05,0
0.612,2.7695e-05,0
0.6125,1.4939e-05,0
0.613,1.1749e-06,0
0.6135,6.714e-06,0
0.614,1.1246e-05,0
0.6145,1.1246e-05,0
0.615,1.326e-05,0
0.6155,1.0575e-05,0
0.616,7.0497e-06,0
0.6165,1.2589e-05,0
0.617,1.3932e-05,0
0.6175,1.4099e-05,0
0.618,2.0981e-05,0
0.6185,2.4338e-05,0
0.619,2.2995e-05,0
0.6195,2.1149e-05,0
0.62,1.9638e-05,0
0.6205,2.0478e-05,0
0.621,2.0478e-05,0
0.6215,1.8463e-05,0
0.622,1.5946e-05,0
0.6225,1.4267e-05,0
0.623,1.4939e-05,0
0.6235,1.561e-05,0
0.624,1.3596e-05,0
0.6245,8.2246e-06,0
0.625,7.8889e-06,0
0.6255,9.5674e-06,0
0.626,1.091e-05,0
0.6265,1.561e-05,0
0.627,1.2421e-05,0
0.6275,1.1582e-05,0
0.628,1.9303e-05,0
0.6285,1.9303e-05,0
0.629,1.5106e-05,0
0.6295,1.8296e-05,0
0.63,1.8967e-05,0
0.6305,1.7121e-05,0
0.631,2.4338e-05,0
0.6315,3.4745e-05,0
0.632,3.8437e-05,0
0.6325,3.4745e-05,0
0.633,2.9038e-05,0
0.6335,2.5849e-05,0
0.634,2.5345e-05,0
0.6345,2.6017e-05,0
0.635,2.5681e-05,0
0.6355,2.4002e-05,0
0.636,2.1317e-05,0
0.6365,1.9303e-05,0
0.637,1.8296e-05,0
0.6375,1.9303e-05,0
0.638,1.8967e-05,0
0.6385,1.3932e-05,0
0.639,1.0239e-05,0
0.6395,1.7288e-05,0
0.64,1.7288e-05,0
0.6405,1.0575e-05,0
0.641,1.2589e-05,0
0.6415,1.4939e-05,0
0.642,1.8631e-05,0
0.6425,2.7192e-05,0
0.643,2.5345e-05,0
0.6435,1.8463e-05,0
0.644,2.266e-05,0
0.6445,3.0045e-05,0
0.645,2.9206e-05,0
0.6455,2.5849e-05,0
0.646,2.4002e-05,0
0.6465,2.4002e-05,0
0.647,2.4674e-05,0
0.6475,2.2324e-05,0
0.648,1.8631e-05,0
0.6485,1.8967e-05,0
0.649,2.1988e-05,0
0.6495,2.4674e-05,0
0.65,2.6184e-05,0
0.6505,2.3331e-05,0
0.651,2.1317e-05,0
0.6515,1.7288e-05,0
0.652,1.5106e-05,0
0.6525,2.5681e-05,0
0.653,3.1052e-05,0
0.6535,2.6184e-05,0
0.654,2.3499e-05,0
0.6545,1.6449e-05,0
0.655,1.2085e-05,0
0.6555,1.9974e-05,0
0.656,2.0646e-05,0
0.6565,1.796e-05,0
0.657,2.1317e-05,0
0.6575,2.4338e-05,0
0.658,2.3499e-05,0
0.6585,2.0478e-05,0
0.659,1.9303e-05,0
0.6595,1.9974e-05,0
0.66,1.6281e-05,0
0.6605,1.2253e-05,0
0.661,1.2589e-05,0
0.6615,1.7288e-05,0
0.662,2.0813e-05,0
0.6625,1.9974e-05,0
0.663,1.6281e-05,0
0.6635,1.4267e-05,0
0.664,1.8296e-05,0
0.6645,1.8967e-05,0
0.665,1.561e-05,0
0.6655,1.7288e-05,0
0.666,1.1078e-05,0
0.6665,2.5177e-06,0
0.667,6.8818e-06,0
0.6675,9.9031e-06,0
0.668,7.7211e-06,0
0.6685,5.8747e-06,0
0.669,1.5106e-06,0
0.6695,3.8605e-06,0
0.67,9.7353e-06,0
0.6705,1.1749e-05,0
0.671,1.3764e-05,0
0.6715,1.8967e-05,0
0.672,2.4002e-05,0
0.6725,2.1653e-05,0
0.673,1.7624e-05,0
0.6735,1.4267e-05,0
0.674,1.1078e-05,0
0.6745,9.9031e-06,0
0.675,1.4435e-05,0
0.6755,1.9303e-05,0
0.676,1.8631e-05,0
0.6765,1.7792e-05,0
0.677,2.1317e-05,0
0.6775,1.9974e-05,0
0.678,1.7288e-05,0
0.6785,2.4842e-05,0
0.679,2.4338e-05,0
0.6795,1.8967e-05,0
0.68,2.1317e-05,0
0.6805,2.1653e-05,0
0.681,2.5513e-05,0
0.6815,3.4745e-05,0
0.682,3.0045e-05,0
0.6825,1.8631e-05,0
0.683,1.9303e-05,0
0.6835,2.5849e-05,0
0.684,3.0381e-05,0
0.6845,3.1724e-05,0
0.685,2.8702e-05,0
0.6855,2.4674e-05,0
0.686,2.2324e-05,0
0.6865,2.0646e-05,0
0.687,1.947e-05,0
0.6875,1.7792e-05,0
0.688,1.6281e-05,0
0.6885,1.7792e-05,0
0.689,1.8463e-05,0
0.6895,1.561e-05,0
0.69,1.3764e-05,0
0.6905,6.8818e-06,0
0.691,5.0355e-06,0
0.6915,1.9974e-05,0
0.692,2.7359e-05,0
0.6925,2.3331e-05,0
0.693,2.0813e-05,0
0.6935,1.5946e-05,0
0.694,1.8631e-05,0
0.6945,3.0716e-05,0
0.695,3.1388e-05,0
0.6955,2.5345e-05,0
0.696,2.652e-05,0
0.6965,2.8367e-05,0
0.697,2.5849e-05,0
0.6975,2.3163e-05,0
0.698,2.1149e-05,0
0.6985,1.8631e-05,0
0.699,1.8128e-05,0
0.6995,1.8799e-05,0
0.7,1.8631e-05,0
0.7005,1.6281e-05,0
0.701,1.561e-05,0
0.7015,1.5274e-05,0
0.702,1.326e-05,0
0.7025,1.4435e-05,0
0.703,1.8463e-05,0
0.7035,1.6953e-05,0
0.704,1.0071e-05,0
0.7045,1.4771e-05,0
0.705,1.9303e-05,0
0.7055,1.8631e-05,0
0.706,1.9638e-05,0
0.7065,1.326e-05,0
0.707,1.1749e-05,0
0.7075,1.9638e-05,0
0.708,1.3596e-05,0
0.7085,6.5461e-06,0
0.709,1.6785e-05,0
0.7095,3.2059e-05,0
0.71,3.4073e-05,0
0.7105,3.3234e-05,0
0.711,3.1724e-05,0
0.7115,2.9206e-05,0
0.712,3.2059e-05,0
0.7125,3.7934e-05,0
0.713,3.9445e-05,0
0.7135,3.6759e-05,0
0.714,3.3234e-05,0
0.7145,2.8031e-05,0
0.715,2.266e-05,0
0.7155,2.1988e-05,0
0.716,2.5681e-05,0
0.7165,2.5345e-05,0
0.717,2.2828e-05,0
0.7175,2.7863e-05,0
0.718,3.1724e-05,0
0.7185,2.8367e-05,0
0.719,2.5177e-05,0
0.7195,2.1317e-05,0
0.72,2.0478e-05,0
0.7205,2.5177e-05,0
0.721,1.9974e-05,0
0.7215,1.3092e-05,0
0.722,1.7792e-05,0
0.7225,2.2324e-05,0
0.723,2.2995e-05,0
0.7235,2.417e-05,0
0.724,2.4002e-05,0
0.7245,1.7792e-05,0
0.725,1.0575e-05,0
0.7255,8.896e-06,0
0.726,1.3932e-05,0
0.7265,1.6953e-05,0
0.727,1.8296e-05,0
0.7275,2.2492e-05,0
0.728,2.1317e-05,0
0.7285,1.9303e-05,0
0.729,2.1317e-05,0
0.7295,1.796e-05,0
0.73,1.4099e-05,0
0.7305,2.1988e-05,0
0.731,2.0981e-05,0
0.7315,1.5778e-05,0
0.732,1.8463e-05,0
0.7325,1.8967e-05,0
0.733,2.0142e-05,0
0.7335,2.6352e-05,0
0.734,1.9638e-05,0
0.7345,9.3996e-06,0
0.735,1.1246e-05,0
0.7355,1.4771e-05,0
0.736,1.3596e-05,0
0.7365,1.2589e-05,0
0.737,1.1749e-05,0
0.7375,1.3764e-05,0
0.738,1.6617e-05,0
0.7385,1.561e-05,0
0.739,1.5274e-05,0
0.7395,1.9806e-05,0
0.74,2.6017e-05,0
0.7405,2.8367e-05,0
0.741,2.6352e-05,0
0.7415,2.5345e-05,0
0.742,3.0716e-05,0
0.7425,2.7359e-05,0
0.743,1.8463e-05,0
0.7435,2.0478e-05,0
0.744,2.1988e-05,0
0.7445,2.2995e-05,0
0.745,2.9038e-05,0
0.7455,2.4506e-05,0
0.746,1.6617e-05,0
0.7465,1.6449e-05,0
0.747,1.4939e-05,0
0.7475,1.1582e-05,0
0.748,1.4939e-05,0
0.7485,1.7288e-05,0
0.749,1.326e-05,0
0.7495,9.2317e-06,0
0.75,9.7353e-06,0
0.7505,1.1582e-05,0
0.751,1.2589e-05,0
0.7515,1.3764e-05,0
0.752,1.4939e-05,0
0.7525,1.5946e-05,0
0.753,1.3932e-05,0
0.7535,1.2757e-05,0
0.754,1.326e-05,0
0.7545,1.4939e-05,0
0.755,1.8128e-05,0
0.7555,9.2317e-06,0
0.756,-3.357e-07,0
0.7565,7.8889e-06,0
0.757,1.3764e-05,0
0.7575,1.091e-05,0
0.758,1.5778e-05,0
0.7585,1.5946e-05,0
0.759,1.4267e-05,0
0.7595,2.4674e-05,0
0.76,2.887e-05,0
0.7605,2.3835e-05,0
0.761,2.2324e-05,0
0.7615,2.6017e-05,0
0.762,3.122e-05,0
0.7625,3.4745e-05,0
0.763,3.1891e-05,0
0.7635,2.7527e-05,0
0.764,3.0045e-05,0
0.7645,3.4409e-05,0
0.765,3.1052e-05,0
0.7655,2.182e-05,0
0.766,2.1149e-05,0
0.7665,2.8534e-05,0
0.767,3.1052e-05,0
0.7675,2.4506e-05,0
0.768,1.9974e-05,0
0.7685,1.6617e-05,0
0.769,1.5442e-05,0
0.7695,1.9974e-05,0
0.77,1.561e-05,0
0.7705,7.5532e-06,0
0.771,1.1917e-05,0
0.7715,1.3596e-05,0
0.772,1.3764e-05,0
0.7725,2.3499e-05,0
0.773,2.4338e-05,0
0.7735,2.0478e-05,0
0.774,2.5009e-05,0
0.7745,3.0381e-05,0
0.775,3.2731e-05,0
0.7755,3.4745e-05,0
0.776,3.3738e-05,0
0.7765,3.1724e-05,0
0.777,3.2395e-05,0
0.7775,3.4409e-05,0
0.778,3.3402e-05,0
0.7785,2.7527e-05,0
0.779,2.266e-05,0
0.7795,2.2492e-05,0
0.78,2.266e-05,0
0.7805,1.796e-05,0
0.781,1.4603e-05,0
0.7815,7.2175e-06,0
0.782,1.5106e-06,0
0.7825,1.0575e-05,0
0.783,1.5442e-05,0
0.7835,1.2253e-05,0
0.784,1.4603e-05,0
0.7845,1.7288e-05,0
0.785,1.6617e-05,0
0.7855,1.7792e-05,0
0.786,1.5946e-05,0
0.7865,1.6617e-05,0
0.787,2.3331e-05,0
0.7875,2.4674e-05,0
0.788,2.1317e-05,0
0.7885,1.796e-05,0
0.789,1.5946e-05,0
0.7895,1.6953e-05,0
0.79,2.1317e-05,0
0.7905,2.6352e-05,0
0.791,3.0549e-05,0
0.7915,3.0381e-05,0
0.792,2.7863e-05,0
0.7925,2.5681e-05,0
0.793,2.4674e-05,0
0.7935,2.5009e-05,0
0.794,2.9038e-05,0
0.7945,2.1988e-05,0
0.795,1.326e-05,0
0.7955,1.5778e-05,0
0.796,1.5946e-05,0
0.7965,1.5946e-05,0
0.797,1.9303e-05,0
0.7975,1.3764e-05,0
0.798,8.2246e-06,0
0.7985,1.4435e-05,0
0.799,1.5106e-05,0
0.7995,1.0575e-05,0
0.8,1.1078e-05,0
0.8005,1.326e-05,0
0.801,1.5946e-05,0
0.8015,2.031e-05,0
0.802,2.0981e-05,0
0.8025,1.8463e-05,0
0.803,1.9974e-05,0
0.8035,2.6352e-05,0
0.804,2.8534e-05,0
0.8045,2.417e-05,0
0.805,1.5946e-05,0
0.8055,1.4603e-05,0
0.806,1.8967e-05,0
0.8065,2.0142e-05,0
0.807,2.5009e-05,0
0.8075,2.5345e-05,0
0.808,2.266e-05,0
0.8085,2.6688e-05,0
0.809,2.6688e-05,0
0.8095,2.7359e-05,0
0.81,3.0045e-05,0
0.8105,2.5849e-05,0
0.811,2.4338e-05,0
0.8115,3.0381e-05,0
0.812,2.8702e-05,0
0.8125,2.2324e-05,0
0.813,2.0981e-05,0
0.8135,2.2324e-05,0
0.814,2.182e-05,0
0.8145,1.6785e-05,0
0.815,9.9031e-06,0
0.8155,9.9031e-06,0
0.816,1.1917e-05,0
0.8165,7.5532e-06,0
0.817,3.5248e-06,0
0.8175,4.1962e-06,0
0.818,3.8605e-06,0
0.8185,1.1749e-06,0
0.819,-1.0071e-06,0
0.8195,2.5177e-06,0
0.82,1.1246e-05,0
0.8205,1.0575e-05,0
0.821,5.2033e-06,0
0.8215,1.0239e-05,0
0.822,1.4435e-05,0
0.8225,1.5274e-05,0
0.823,2.1988e-05,0
0.8235,2.5009e-05,0
0.824,2.4506e-05,0
0.8245,2.8367e-05,0
0.825,2.7695e-05,0
0.8255,2.7024e-05,0
0.826,3.0045e-05,0
0.8265,3.3066e-05,0
0.827,3.1724e-05,0
0.8275,2.8367e-05,0
0.828,3.0716e-05,0
0.8285,3.1724e-05,0
0.829,2.8367e-05,0
0.8295,2.3667e-05,0
0.83,2.2324e-05,0
0.8305,2.3331e-05,0
0.831,1.8631e-05,0
0.8315,1.4603e-05,0
0.832,1.7288e-05,0
0.8325,2.2492e-05,0
0.833,2.5345e-05,0
0.8335,1.9974e-05,0
0.834,1.1078e-05,0
0.8345,1.5274e-05,0
0.835,1.5946e-05,0
0.8355,1.1414e-05,0
0.836,1.7624e-05,0
0.8365,1.9974e-05,0
0.837,2.0981e-05,0
0.8375,2.7192e-05,0
0.838,2.3667e-05,0
0.8385,1.9135e-05,0
0.839,2.5681e-05,0
0.8395,3.3066e-05,0
0.84,2.9038e-05,0
0.8405,2.3667e-05,0
0.841,2.266e-05,0
0.8415,2.7359e-05,0
0.842,2.8702e-05,0
0.8425,2.8534e-05,0
0.843,3.1556e-05,0
0.8435,3.4073e-05,0
0.844,3.4409e-05,0
0.8445,3.2563e-05,0
0.845,2.8367e-05,0
0.8455,2.0646e-05,0
0.846,1.4267e-05,0
0.8465,6.8818e-06,0
0.847,2.8534e-06,0
0.8475,1.1414e-05,0
0.848,1.326e-05,0
0.8485,8.3925e-06,0
0.849,1.1582e-05,0
0.8495,1.1078e-05,0
0.85,8.5603e-06,0
0.8505,1.7624e-05,0
0.851,2.182e-05,0
0.8515,1.6617e-05,0
0.852,1.5946e-05,0
0.8525,2.0478e-05,0
0.853,2.5177e-05,0
0.8535,2.7359e-05,0
0.854,2.9709e-05,0
0.8545,3.2563e-05,0
0.855,3.2563e-05,0
0.8555,2.9877e-05,0
0.856,2.8702e-05,0
0.8565,2.7695e-05,0
0.857,2.5345e-05,0
0.8575,2.6017e-05,0
0.858,2.8367e-05,0
0.8585,2.9206e-05,0
0.859,2.9038e-05,0
0.8595,2.3667e-05,0
0.86,1.9638e-05,0
0.8605,2.7359e-05,0
0.861,2.9374e-05,0
0.8615,2.4674e-05,0
0.862,2.2492e-05,0
0.8625,1.5946e-05,0
0.863,1.2924e-05,0
0.8635,2.0646e-05,0
0.864,2.0813e-05,0
0.8645,1.8631e-05,0
0.865,2.2492e-05,0
0.8655,2.266e-05,0
0.866,1.7456e-05,0
0.8665,1.4099e-05,0
0.867,1.5946e-05,0
0.8675,1.7792e-05,0
0.868,2.1317e-05,0
0.8685,2.7863e-05,0
0.869,3.1388e-05,0
0.8695,2.7192e-05,0
0.87,2.5345e-05,0
0.8705,3.0716e-05,0
0.871,3.4241e-05,0
0.8715,2.7863e-05,0
0.872,2.031e-05,0
0.8725,1.5946e-05,0
0.873,1.5274e-05,0
0.8735,2.031e-05,0
0.874,1.8463e-05,0
0.8745,1.1917e-05,0
0.875,1.3932e-05,0
0.8755,1.5946e-05,0
0.876,1.6953e-05,0
0.8765,2.2995e-05,0
0.877,1.7624e-05,0
0.8775,6.8818e-06,0
0.878,5.2033e-06,0
0.8785,1.0239e-05,0
0.879,1.6449e-05,0
0.8795,1.9303e-05,0
0.88,1.5946e-05,0
0.8805,1.2924e-05,0
0.881,1.4267e-05,0
0.8815,1.5106e-05,0
0.882,1.1414e-05,0
0.8825,9.0639e-06,0
0.883,1.1917e-05,0
0.8835,1.6785e-05,0
0.884,2.0478e-05,0
0.8845,1.947e-05,0
0.885,2.0142e-05,0
0.8855,1.7288e-05,0
0.886,1.1414e-05,0
0.8865,1.3764e-05,0
0.887,1.3092e-05,0
0.8875,6.0426e-06,0
0.888,1.0239e-05,0
0.8885,1.326e-05,0
0.889,1.0239e-05,0
0.8895,1.3932e-05,0
0.89,1.9303e-05,0
0.8905,2.0981e-05,0
0.891,2.1988e-05,0
0.8915,2.0646e-05,0
0.892,1.9135e-05,0
0.8925,1.8463e-05,0
0.893,1.7288e-05,0
0.8935,1.796e-05,0
0.894,2.031e-05,0
0.8945,1.947e-05,0
0.895,1.9638e-05,0
0.8955,2.1988e-05,0
0.896,2.2156e-05,0
0.8965,1.8631e-05,0
0.897,1.561e-05,0
0.8975,1.326e-05,0
0.898,1.4435e-05,0
0.8985,1.2253e-05,0
0.899,9.5674e-06,0
0.8995,1.1246e-05,0
0.9,7.5532e-06,0
0.9005,5.0355e-06,0
0.901,1.1749e-05,0
0.9015,1.4603e-05,0
0.902,1.4939e-05,0
0.9025,2.0646e-05,0
0.903,2.1149e-05,0
0.9035,2.0981e-05,0
0.904,2.2492e-05,0
0.9045,1.7792e-05,0
0.905,1.3932e-05,0
0.9055,1.4099e-05,0
0.906,1.4939e-05,0
0.9065,1.8631e-05,0
0.907,2.4506e-05,0
0.9075,2.3835e-05,0
0.908,1.4267e-05,0
0.9085,2.8534e-06,0
0.909,-3.357e-07,0
0.9095,5.7069e-06,0
0.91,1.3764e-05,0
0.9105,1.4771e-05,0
0.911,1.5778e-05,0
0.9115,1.4435e-05,0
0.912,1.4267e-05,0
0.9125,2.6688e-05,0
0.913,3.2731e-05,0
0.9135,2.652e-05,0
0.914,2.1317e-05,0
0.9145,1.9135e-05,0
0.915,2.2995e-05,0
0.9155,3.2731e-05,0
0.916,3.3402e-05,0
0.9165,2.7863e-05,0
0.917,2.8702e-05,0
0.9175,3.0716e-05,0
0.918,2.8702e-05,0
0.9185,2.9038e-05,0
0.919,3.3402e-05,0
0.9195,3.5416e-05,0
0.92,3.2395e-05,0
0.9205,3.2731e-05,0
0.921,3.6255e-05,0
0.9215,3.5248e-05,0
0.922,3.1724e-05,0
0.9225,3.1724e-05,0
0.923,3.357e-05,0
0.9235,3.0884e-05,0
0.924,2.5345e-05,0
0.9245,1.7288e-05,0
0.925,1.1246e-05,0
0.9255,1.8967e-05,0
0.926,2.266e-05,0
0.9265,1.6953e-05,0
0.927,1.561e-05,0
0.9275,1.3596e-05,0
0.928,1.5946e-05,0
0.9285,2.3163e-05,0
0.929,1.9806e-05,0
0.9295,1.091e-05,0
0.93,1.3092e-05,0
0.9305,1.8463e-05,0
0.931,1.8631e-05,0
0.9315,2.1317e-05,0
0.932,2.0646e-05,0
0.9325,1.561e-05,0
0.933,1.3596e-05,0
0.9335,1.4603e-05,0
0.934,1.0575e-05,0
0.9345,1.0575e-05,0
0.935,1.8631e-05,0
0.9355,2.8534e-05,0
0.936,2.8702e-05,0
0.9365,2.3667e-05,0
0.937,2.1317e-05,0
0.9375,1.7288e-05,0
0.938,1.4099e-05,0
0.9385,2.1149e-05,0
0.939,2.5345e-05,0
0.9395,2.3499e-05,0
0.94,2.5009e-05,0
0.9405,2.3835e-05,0
0.941,2.1317e-05,0
0.9415,2.3163e-05,0
0.942,2.1317e-05,0
0.9425,1.8799e-05,0
0.943,1.9806e-05,0
0.9435,2.3499e-05,0
0.944,2.266e-05,0
0.9445,1.796e-05,0
0.945,1.4267e-05,0
0.9455,1.326e-05,0
0.946,1.4099e-05,0
0.9465,1.4939e-05,0
0.947,1.5778e-05,0
0.9475,1.5946e-05,0
0.948,1.4939e-05,0
0.9485,1.2924e-05,0
0.949,1.5778e-05,0
0.9495,1.9974e-05,0
0.95,2.4002e-05,0
0.9505,2.0646e-05,0
0.951,1.3932e-05,0
0.9515,1.7792e-05,0
0.952,1.9135e-05,0
0.9525,1.561e-05,0
0.953,2.0478e-05,0
0.9535,2.1317e-05,0
0.954,1.796e-05,0
0.9545,1.9135e-05,0
0.955,1.9638e-05,0
0.9555,2.0981e-05,0
0.956,2.8031e-05,0
0.9565,3.0213e-05,0
0.957,2.7527e-05,0
0.9575,2.652e-05,0
0.958,2.7359e-05,0
0.9585,2.6688e-05,0
0.959,2.5009e-05,0
0.9595,2.6017e-05,0
0.96,2.7359e-05,0
0.9605,2.6017e-05,0
0.961,2.3331e-05,0
0.9615,2.266e-05,0
0.962,2.1988e-05,0
0.9625,1.8967e-05,0
0.963,1.8799e-05,0
0.9635,1.3932e-05,0
0.964,8.5603e-06,0
0.9645,1.4939e-05,0
0.965,1.9974e-05,0
0.9655,1.9806e-05,0
0.966,2.2492e-05,0
0.9665,1.7288e-05,0
0.967,1.0575e-05,0
0.9675,1.3092e-05,0
0.968,1.1749e-05,0
0.9685,9.2317e-06,0
0.969,1.5778e-05,0
0.9695,2.1149e-05,0
0.97,1.7792e-05,0
0.9705,1.3932e-05,0
0.971,1.4771e-05,0
0.9715,1.2924e-05,0
0.972,9.3996e-06,0
0.9725,8.5603e-06,0
0.973,9.5674e-06,0
0.9735,1.2253e-05,0
0.974,1.8631e-05,0
0.9745,2.4674e-05,0
0.975,2.6688e-05,0
0.9755,2.182e-05,0
0.976,2.0981e-05,0
0.9765,2.1317e-05,0
0.977,2.0813e-05,0
0.9775,2.5345e-05,0
0.978,2.2156e-05,0
0.9785,1.8631e-05,0
0.979,2.266e-05,0
0.9795,2.2324e-05,0
0.98,2.0981e-05,0
0.9805,2.8534e-05,0
0.981,3.2731e-05,0
0.9815,2.9206e-05,0
0.982,2.5009e-05,0
0.9825,2.8367e-05,0
0.983,3.2731e-05,0
0.9835,2.5177e-05,0
0.984,1.6449e-05,0
0.9845,1.5778e-05,0
0.985,1.2589e-05,0
0.9855,9.3996e-06,0
0.986,1.3092e-05,0
0.9865,1.5946e-05,0
0.987,1.9303e-05,0
0.9875,2.8031e-05,0
0.988,3.3066e-05,0
0.9885,2.7695e-05,0
0.989,1.947e-05,0
0.9895,1.1749e-05,0
0.99,1.1078e-05,0
0.9905,2.1653e-05,0
0.991,2.1988e-05,0
0.9915,1.3596e-05,0
0.992,1.5946e-05,0
0.9925,1.796e-05,0
0.993,1.7288e-05,0
0.9935,2.5345e-05,0
0.994,2.7695e-05,0
0.9945,2.6017e-05,0
0.995,2.9877e-05,0
0.9955,3.3738e-05,0
0.996,3.2395e-05,0
0.9965,2.6352e-05,0
0.997,2.0646e-05,0
0.9975,2.266e-05,0
0.998,2.4506e-05,0
0.9985,2.6017e-05,0
0.999,2.9374e-05,0
0.9995,2.8031e-05,0
1,2.3667e-05,0
1.0005,2.0646e-05,0
1.001,1.6953e-05,0
1.0015,1.7121e-05,0
1.002,2.3163e-05,0
1.0025,2.0981e-05,0
1.003,1.2421e-05,0
1.0035,1.8631e-05,0
1.004,2.266e-05,0
1.0045,2.031e-05,0
1.005,2.5345e-05,0
1.0055,2.2995e-05,0
1.006,1.9303e-05,0
1.0065,2.3331e-05,0
1.007,1.9638e-05,0
1.0075,1.3596e-05,0
1.008,1.7624e-05,0
1.0085,2.3331e-05,0
1.009,2.5009e-05,0
1.0095,2.417e-05,0
1.01,2.4506e-05,0
1.0105,2.1988e-05,0
1.011,1.6281e-05,0
1.0115,1.326e-05,0
1.012,1.7121e-05,0
1.0125,2.4002e-05,0
1.013,2.8702e-05,0
1.0135,2.7863e-05,0
1.014,2.3667e-05,0
1.0145,2.0813e-05,0
1.015,2.4002e-05,0
1.0155,2.1317e-05,0
1.016,1.4267e-05,0
1.0165,1.8967e-05,0
1.017,2.1988e-05,0
1.0175,2.0981e-05,0
1.018,2.2324e-05,0
1.0185,1.5274e-05,0
1.019,1.0575e-05,0
1.0195,1.6785e-05,0
1.02,1.7121e-05,0
1.0205,1.3764e-05,0
1.021,1.8631e-05,0
1.0215,2.4674e-05,0
1.022,2.1988e-05,0
1.0225,1.947e-05,0
1.023,2.182e-05,0
1.0235,2.1317e-05,0
1.024,1.8631e-05,0
1.0245,1.6953e-05,0
1.025,1.6617e-05,0
1.0255,1.7792e-05,0
1.026,1.7288e-05,0
1.0265,1.5778e-05,0
1.027,1.2589e-05,0
1.0275,9.0639e-06,0
1.028,9.2317e-06,0
1.0285,9.9031e-06,0
1.029,1.0071e-05,0
1.0295,1.4267e-05,0
1.03,1.6617e-05,0
1.0305,1.8631e-05,0
1.031,2.7359e-05,0
1.0315,2.4674e-05,0
1.032,1.5106e-05,0
1.0325,1.561e-05,0
1.033,1.3596e-05,0
1.0335,1.1246e-05,0
1.034,1.5946e-05,0
1.0345,1.5778e-05,0
1.035,1.5274e-05,0
1.0355,1.6953e-05,0
1.036,1.8631e-05,0
1.0365,2.0981e-05,0
1.037,2.0813e-05,0
1.0375,1.9974e-05,0
1.038,2.1988e-05,0
1.0385,2.266e-05,0
1.039,1.7121e-05,0
1.0395,1.3596e-05,0
1.04,1.8631e-05,0
1.0405,2.266e-05,0
1.041,2.6017e-05,0
1.0415,2.3331e-05,0
1.042,1.5946e-05,0
1.0425,2.0478e-05,0
1.043,2.1317e-05,0
1.0435,1.7288e-05,0
1.044,1.9974e-05,0
1.0445,2.2324e-05,0
1.045,2.0646e-05,0
1.0455,2.3499e-05,0
1.046,2.3667e-05,0
1.0465,2.6688e-05,0
1.047,3.2898e-05,0
1.0475,3.592e-05,0
1.048,3.3402e-05,0
1.0485,3.0716e-05,0
1.049,3.2563e-05,0
1.0495,3.0716e-05,0
1.05,2.417e-05,0
1.0505,1.9638e-05,0
1.051,1.7792e-05,0
1.0515,1.5106e-05,0
1.052,1.1246e-05,0
1.0525,8.7282e-06,0
1.053,9.9031e-06,0
1.0535,9.7353e-06,0
1.054,8.5603e-06,0
1.0545,5.2033e-06,0
1.055,1.3428e-06,0
1.0555,7.2175e-06,0
1.056,9.2317e-06,0
1.0565,8.896e-06,0
1.057,9.2317e-06,0
1.0575,3.5248e-06,0
1.058,2.182e-06,0
1.0585,1.2924e-05,0
1.059,1.8296e-05,0
1.0595,1.8631e-05,0
1.06,2.3331e-05,0
1.0605,2.8534e-05,0
1.061,2.9374e-05,0
1.0615,2.8702e-05,0
1.062,2.8031e-05,0
1.0625,2.8702e-05,0
1.063,3.0213e-05,0
1.0635,3.3066e-05,0
1.064,3.5416e-05,0
1.0645,3.4409e-05,0
1.065,3.3402e-05,0
1.0655,3.1052e-05,0
1.066,2.7527e-05,0
1.0665,2.5681e-05,0
1.067,2.6352e-05,0
1.0675,2.2492e-05,0
1.068,1.3596e-05,0
1.0685,1.8631e-05,0
1.069,2.4506e-05,0
1.0695,2.266e-05,0
1.07,2.4002e-05,0
1.0705,2.0646e-05,0
1.071,1.6785e-05,0
1.0715,2.0478e-05,0
1.072,1.8631e-05,0
1.0725,1.3932e-05,0
1.073,1.4603e-05,0
1.0735,1.561e-05,0
1.074,1.4939e-05,0
1.0745,1.8631e-05,0
1.075,2.5009e-05,0
1.0755,2.652e-05,0
1.076,2.1317e-05,0
1.0765,1.6953e-05,0
1.077,1.5946e-05,0
1.0775,2.031e-05,0
1.078,2.5009e-05,0
1.0785,2.5345e-05,0
1.079,2.3835e-05,0
1.0795,2.266e-05,0
1.08,2.3835e-05,0
1.0805,1.6449e-05,0
1.081,6.2104e-06,0
1.0815,1.1078e-05,0
1.082,1.7624e-05,0
1.0825,2.031e-05,0
1.083,2.7359e-05,0
1.0835,2.4506e-05,0
1.084,2.031e-05,0
1.0845,2.3667e-05,0
1.085,1.8296e-05,0
1.0855,1.4603e-05,0
1.086,2.1317e-05,0
1.0865,2.5345e-05,0
1.087,2.0981e-05,0
1.0875,1.796e-05,0
1.088,1.9974e-05,0
1.0885,2.6017e-05,0
1.089,3.1891e-05,0
1.0895,3.0381e-05,0
1.09,2.9709e-05,0
1.0905,2.8702e-05,0
1.091,2.4674e-05,0
1.0915,2.5009e-05,0
1.092,2.6017e-05,0
1.0925,2.7359e-05,0
1.093,2.9709e-05,0
1.0935,2.8199e-05,0
1.094,2.9038e-05,0
1.0945,3.508e-05,0
1.095,3.0045e-05,0
1.0955,2.1317e-05,0
1.096,2.5177e-05,0
1.0965,2.4338e-05,0
1.097,1.947e-05,0
1.0975,2.1317e-05,0
1.098,2.031e-05,0
1.0985,1.7288e-05,0
1.099,1.9806e-05,0
1.0995,2.1317e-05,0
1.1,1.8967e-05,0
1.1005,2.0478e-05,0
1.101,2.266e-05,0
1.1015,2.031e-05,0
1.102,1.5946e-05,0
1.1025,1.0407e-05,0
1.103,6.3783e-06,0
1.1035,6.5461e-06,0
1.104,1.1078e-05,0
1.1045,1.5946e-05,0
1.105,1.561e-05,0
1.1055,8.896e-06,0
1.106,7.8889e-06,0
1.1065,1.0239e-05,0
1.107,1.1917e-05,0
1.1075,1.8296e-05,0
1.108,1.796e-05,0
1.1085,1.7624e-05,0
1.109,2.4002e-05,0
1.1095,2.6352e-05,0
1.11,2.5345e-05,0
1.1105,2.6352e-05,0
1.111,2.1988e-05,0
1.1115,1.8631e-05,0
1.112,2.4002e-05,0
1.1125,3.1724e-05,0
1.113,3.2731e-05,0
1.1135,2.5849e-05,0
1.114,1.6617e-05,0
1.1145,1.4099e-05,0
1.115,1.6617e-05,0
1.1155,1.5946e-05,0
1.116,1.5946e-05,0
1.1165,1.4939e-05,0
1.117,9.7353e-06,0
1.1175,9.2317e-06,0
1.118,1.1246e-05,0
1.1185,1.1078e-05,0
1.119,1.3932e-05,0
1.1195,1.3596e-05,0
1.12,7.2175e-06,0
1.1205,7.2175e-06,0
1.121,3.8605e-06,0
1.1215,-1.1749e-06,0
1.122,3.1891e-06,0
1.1225,1.678e-07,0
1.123,-5.035e-07,0
1.1235,1.0575e-05,0
1.124,1.3092e-05,0
1.1245,7.3854e-06,0
1.125,8.5603e-06,0
1.1255,1.4939e-05,0
1.126,1.9303e-05,0
1.1265,1.8463e-05,0
1.127,2.0646e-05,0
1.1275,2.4674e-05,0
1.128,2.7359e-05,0
1.1285,2.7024e-05,0
1.129,2.6352e-05,0
1.1295,2.6688e-05,0
1.13,3.0716e-05,0
1.1305,3.4913e-05,0
1.131,3.7766e-05,0
1.1315,3.5416e-05,0
1.132,3.2059e-05,0
1.1325,2.8031e-05,0
1.133,2.3331e-05,0
1.1335,2.4002e-05,0
1.134,2.5849e-05,0
1.1345,2.7024e-05,0
1.135,2.7192e-05,0
1.1355,2.4002e-05,0
1.136,1.7121e-05,0
1.1365,1.5442e-05,0
1.137,1.4267e-05,0
1.1375,1.5274e-05,0
1.138,2.2324e-05,0
1.1385,2.7359e-05,0
1.139,2.7527e-05,0
1.1395,2.8702e-05,0
1.14,2.8702e-05,0
1.1405,2.7863e-05,0
1.141,2.7192e-05,0
1.1415,2.7359e-05,0
1.142,3.0045e-05,0
1.1425,3.0381e-05,0
1.143,2.6688e-05,0
1.1435,1.9806e-05,0
1.144,1.326e-05,0
1.1445,1.2253e-05,0
1.145,1.7288e-05,0
1.1455,1.4435e-05,0
1.146,6.8818e-06,0
1.1465,7.5532e-06,0
1.147,8.0568e-06,0
1.1475,1.1414e-05,0
1.148,1.796e-05,0
1.1485,1.326e-05,0
1.149,7.7211e-06,0
1.1495,1.0575e-05,0
1.15,9.3996e-06,0
1.1505,1.0071e-05,0
1.151,1.9303e-05,0
1.1515,2.5849e-05,0
1.152,2.4674e-05,0
1.1525,2.266e-05,0
1.153,2.6184e-05,0
1.1535,2.6184e-05,0
1.154,2.3835e-05,0
1.1545,2.1317e-05,0
1.155,1.9303e-05,0
1.1555,1.7624e-05,0
1.156,1.6617e-05,0
1.1565,1.6617e-05,0
1.157,2.0142e-05,0
1.1575,2.1317e-05,0
1.158,2.3331e-05,0
1.1585,2.1317e-05,0
1.159,1.9303e-05,0
1.1595,2.9374e-05,0
1.16,3.5584e-05,0
1.1605,3.0045e-05,0
1.161,2.7024e-05,0
1.1615,2.4338e-05,0
1.162,2.2324e-05,0
1.1625,2.6688e-05,0
1.163,2.3667e-05,0
1.1635,2.182e-05,0
1.164,2.4002e-05,0
1.1645,2.3331e-05,0
1.165,2.3331e-05,0
1.1655,2.4674e-05,0
1.166,2.9374e-05,0
1.1665,3.2059e-05,0
1.167,2.7192e-05,0
1.1675,1.9303e-05,0
1.168,1.7792e-05,0
1.1685,1.947e-05,0
1.169,1.6449e-05,0
1.1695,1.4939e-05,0
1.17,1.2757e-05,0
1.1705,1.091e-05,0
1.171,1.5778e-05,0
1.1715,1.6449e-05,0
1.172,1.2924e-05,0
1.1725,1.7792e-05,0
1.173,2.1149e-05,0
1.1735,2.0813e-05,0
1.174,2.9038e-05,0
1.1745,3.2059e-05,0
1.175,3.2395e-05,0
1.1755,4.0116e-05,0
1.176,3.6423e-05,0
1.1765,2.6688e-05,0
1.177,2.7863e-05,0
1.1775,2.9374e-05,0
1.178,2.0981e-05,0
1.1785,1.2085e-05,0
1.179,7.8889e-06,0
1.1795,9.5674e-06,0
1.18,1.0575e-05,0
1.1805,5.3712e-06,0
1.181,-4.1962e-06,0
1.1815,-7.5532e-06,0
1.182,-3.8605e-06,0
1.1825,2.3499e-06,0
1.183,4.3641e-06,0
1.1835,5.2033e-06,0
1.184,8.2246e-06,0
1.1845,3.0213e-06,0
1.185,-2.8534e-06,0
1.1855,7.8889e-06,0
1.186,1.8631e-05,0
1.1865,2.031e-05,0
1.187,2.1653e-05,0
1.1875,2.0813e-05,0
1.188,2.1317e-05,0
1.1885,3.1052e-05,0
1.189,3.3906e-05,0
1.1895,3.0716e-05,0
1.19,3.1388e-05,0
1.1905,3.0716e-05,0
1.191,3.0716e-05,0
1.1915,3.4409e-05,0
1.192,3.7766e-05,0
1.1925,3.8605e-05,0
1.193,3.7766e-05,0
1.1935,3.357e-05,0
1.194,2.7192e-05,0
1.1945,1.9638e-05,0
1.195,1.4267e-05,0
1.1955,7.8889e-06,0
1.196,1.0071e-06,0
1.1965,-6.8818e-06,0
1.197,-9.5674e-06,0
1.1975,-8.3925e-06,0
1.198,-6.2104e-06,0
1.1985,7.5532e-06,0
1.199,1.5778e-05,0
1.1995,1.3092e-05,0
1.2,1.1917e-05,0
1.2005,5.8747e-06,0
1.201,-2.182e-06,0
1.2015,-6.714e-07,0
1.202,-1.678e-07,0
1.2025,1.678e-07,0
1.203,3.5248e-06,0
1.2035,6.0426e-06,0
1.204,1.4099e-05,0
1.2045,2.6352e-05,0
1.205,3.508e-05,0
1.2055,3.9445e-05,0
1.206,4.1123e-05,0
1.2065,4.1459e-05,0
1.207,4.2802e-05,0
1.2075,4.3809e-05,0
1.208,4.3473e-05,0
1.2085,4.1123e-05,0
1.209,3.8437e-05,0
1.2095,3.743e-05,0
1.21,3.9445e-05,0
1.2105,3.1388e-05,0
1.211,1.8296e-05,0
1.2115,1.8296e-05,0
1.212,1.9303e-05,0
1.2125,1.5946e-05,0
1.213,1.3932e-05,0
1.2135,8.3925e-06,0
1.214,5.8747e-06,0
1.2145,1.2589e-05,0
1.215,1.1917e-05,0
1.2155,6.5461e-06,0
1.216,1.326e-05,0
1.2165,2.5681e-05,0
1.217,3.0716e-05,0
1.2175,2.8702e-05,0
1.218,2.4506e-05,0
1.2185,2.1317e-05,0
1.219,2.266e-05,0
1.2195,2.4002e-05,0
1.22,2.3331e-05,0
1.2205,2.2324e-05,0
1.221,2.6017e-05,0
1.2215,3.4409e-05,0
1.222,4.0619e-05,0
1.2225,4.213e-05,0
1.223,4.5319e-05,0
1.2235,4.2802e-05,0
1.224,3.4409e-05,0
1.2245,3.6759e-05,0
1.225,3.7934e-05,0
1.2255,3.3738e-05,0
1.226,3.5752e-05,0
1.2265,3.3906e-05,0
1.227,3.3066e-05,0
1.2275,3.743e-05,0
1.228,2.9374e-05,0
1.2285,1.8967e-05,0
1.229,2.0478e-05,0
1.2295,1.9806e-05,0
1.23,7.2175e-06,0
1.2305,-4.1962e-06,0
1.231,-7.2175e-06,0
1.2315,-5.539e-06,0
1.232,-8.392e-07,0
1.2325,1.5106e-06,0
1.233,3.6927e-06,0
1.2335,6.8818e-06,0
1.234,8.5603e-06,0
1.2345,1.0239e-05,0
1.235,9.9031e-06,0
1.2355,4.3641e-06,0
1.236,5.8747e-06,0
1.2365,9.5674e-06,0
1.237,1.1078e-05,0
1.2375,1.9806e-05,0
1.238,2.0981e-05,0
1.2385,1.7288e-05,0
1.239,2.2156e-05,0
1.2395,2.3667e-05,0
1.24,2.2995e-05,0
1.2405,3.0381e-05,0
1.241,3.2059e-05,0
1.2415,3.1556e-05,0
1.242,3.7262e-05,0
1.2425,4.0452e-05,0
1.243,3.8941e-05,0
1.2435,4.1291e-05,0
1.244,4.2802e-05,0
1.2445,3.6759e-05,0
1.245,3.1556e-05,0
1.2455,3.5752e-05,0
1.246,4.1459e-05,0
1.2465,4.213e-05,0
1.247,3.8437e-05,0
1.2475,3.4745e-05,0
1.248,3.1891e-05,0
1.2485,2.5345e-05,0
1.249,2.6688e-05,0
1.2495,3.0213e-05,0
1.25,2.9542e-05,0
1.2505,3.3402e-05,0
1.251,2.8702e-05,0
1.2515,1.6449e-05,0
1.252,9.9031e-06,0
1.2525,-6.714e-07,0
1.253,-5.539e-06,0
1.2535,2.182e-06,0
1.254,4.5319e-06,0
1.2545,2.182e-06,0
1.255,2.3499e-06,0
1.2555,4.3641e-06,0
1.256,1.1749e-06,0
1.2565,-3.8605e-06,0
1.257,-6.714e-07,0
1.2575,5.2033e-06,0
1.258,4.6998e-06,0
1.2585,1.5106e-06,0
1.259,2.0142e-06,0
1.2595,8.392e-07,0
1.26,-5.2033e-06,0
1.2605,-1.0407e-05,0
1.261,-8.896e-06,0
1.2615,-1.678e-07,0
1.262,9.2317e-06,0
1.2625,1.1749e-05,0
1.263,1.1246e-05,0
1.2635,2.1317e-05,0
1.264,3.2059e-05,0
1.2645,3.6423e-05,0
1.265,3.9277e-05,0
1.2655,3.3066e-05,0
1.266,2.8702e-05,0
1.2665,3.3234e-05,0
1.267,3.1724e-05,0
1.2675,2.4674e-05,0
1.268,1.8631e-05,0
1.2685,1.091e-05,0
1.269,2.5177e-06,0
1.2695,2.5177e-06,0
1.27,1.0407e-05,0
1.2705,1.091e-05,0
1.271,3.1891e-06,0
1.2715,-4.1962e-06,0
1.272,-8.7282e-06,0
1.2725,-9.7353e-06,0
1.273,-1.091e-05,0
1.2735,-1.4267e-05,0
1.274,-8.3925e-06,0
1.2745,3.6927e-06,0
1.275,1.091e-05,0
1.2755,6.8818e-06,0
1.276,3.6927e-06,0
1.2765,7.8889e-06,0
1.277,4.5319e-06,0
1.2775,3.357e-07,0
1.278,5.2033e-06,0
1.2785,9.5674e-06,0
1.279,1.091e-05,0
1.2795,1.326e-05,0
1.28,9.0639e-06,0
1.2805,4.0284e-06,0
1.281,9.5674e-06,0
1.2815,1.4267e-05,0
1.282,1.1582e-05,0
1.2825,5.8747e-06,0
1.283,4.5319e-06,0
1.2835,8.3925e-06,0
1.284,1.4435e-05,0
1.2845,1.7624e-05,0
1.285,2.1653e-05,0
1.2855,2.6017e-05,0
1.286,3.1388e-05,0
1.2865,3.7934e-05,0
1.287,4.1291e-05,0
1.2875,4.4144e-05,0
1.288,5.623e-05,0
1.2885,6.5965e-05,0
1.289,6.8482e-05,0
1.2895,7.1839e-05,0
1.29,6.5965e-05,0
1.2905,6.0258e-05,0
1.291,6.4118e-05,0
1.2915,6.0929e-05,0
1.292,5.623e-05,0
1.2925,5.8915e-05,0
1.293,5.5222e-05,0
1.2935,5.069e-05,0
1.294,5.4719e-05,0
1.2945,5.7404e-05,0
1.295,5.4383e-05,0
1.2955,5.1698e-05,0
1.296,5.3208e-05,0
1.2965,5.5894e-05,0
1.297,5.1865e-05,0
1.2975,4.7166e-05,0
1.298,4.7166e-05,0
1.2985,4.8005e-05,0
1.299,4.213e-05,0
1.2995,3.3066e-05,0
1.3,3.0549e-05,0
1.3005,3.2395e-05,0
1.301,3.508e-05,0
1.3015,2.9206e-05,0
1.302,1.8463e-05,0
1.3025,2.0813e-05,0
1.303,2.3835e-05,0
1.3035,2.0646e-05,0
1.304,2.1317e-05,0
1.3045,1.7288e-05,0
1.305,1.796e-05,0
1.3055,2.4002e-05,0
1.306,2.0142e-05,0
1.3065,1.1582e-05,0
1.307,1.1917e-05,0
1.3075,1.4267e-05,0
1.308,1.0239e-05,0
1.3085,1.8463e-06,0
1.309,-8.896e-06,0
1.3095,-1.8463e-05,0
1.31,-2.2995e-05,0
1.3105,-2.182e-05,0
1.311,-1.9303e-05,0
1.3115,-2.2324e-05,0
1.312,-2.8031e-05,0
1.3125,-3.1052e-05,0
1.313,-2.9877e-05,0
1.3135,-2.7024e-05,0
1.314,-1.9303e-05,0
1.3145,-1.4939e-05,0
1.315,-1.1917e-05,0
1.3155,1.3428e-06,0
1.316,8.5603e-06,0
1.3165,1.1414e-05,0
1.317,2.4338e-05,0
1.3175,3.4073e-05,0
1.318,3.6088e-05,0
1.3185,3.8773e-05,0
1.319,3.8773e-05,0
1.3195,4.1123e-05,0
1.32,4.8676e-05,0
1.3205,5.304e-05,0
1.321,5.3376e-05,0
1.3215,4.8844e-05,0
1.322,4.4984e-05,0
1.3225,4.448e-05,0
1.323,4.4144e-05,0
1.3235,4.0619e-05,0
1.324,3.743e-05,0
1.3245,3.4745e-05,0
1.325,2.9877e-05,0
1.3255,2.4002e-05,0
1.326,2.0646e-05,0
1.3265,1.6449e-05,0
1.327,1.4603e-05,0
1.3275,9.9031e-06,0
1.328,4.8676e-06,0
1.3285,8.2246e-06,0
1.329,5.2033e-06,0
1.3295,-2.182e-06,0
1.33,5.035e-07,0
1.3305,1.8463e-06,0
1.331,0,0
1.3315,1.1749e-06,0
1.332,-7.2175e-06,0
1.3325,-1.6281e-05,0
1.333,-8.896e-06,0
1.3335,6.8818e-06,0
1.334,1.7288e-05,0
1.3345,1.5946e-05,0
1.335,7.7211e-06,0
1.3355,1.5106e-06,0
1.336,6.714e-07,0
1.3365,3.357e-06,0
1.337,8.5603e-06,0
1.3375,9.9031e-06,0
1.338,1.2085e-05,0
1.3385,1.7624e-05,0
1.339,1.947e-05,0
1.3395,1.7624e-05,0
1.34,1.8967e-05,0
1.3405,1.4603e-05,0
1.341,7.5532e-06,0
1.3415,1.4939e-05,0
1.342,2.0646e-05,0
1.3425,1.9135e-05,0
1.343,2.1653e-05,0
1.3435,2.2995e-05,0
1.344,2.7024e-05,0
1.3445,3.4409e-05,0
1.345,2.887e-05,0
1.3455,2.3667e-05,0
1.346,2.7192e-05,0
1.3465,3.4745e-05,0
1.347,3.6255e-05,0
1.3475,3.3066e-05,0
1.348,3.1388e-05,0
1.3485,3.3402e-05,0
1.349,3.5416e-05,0
1.3495,3.9612e-05,0
1.35,4.6494e-05,0
1.3505,5.2537e-05,0
1.351,5.6901e-05,0
1.3515,5.8915e-05,0
1.352,5.7908e-05,0
1.3525,5.4215e-05,0
1.353,5.0858e-05,0
1.3535,4.1627e-05,0
1.354,3.5416e-05,0
1.3545,4.0955e-05,0
1.355,4.1627e-05,0
1.3555,3.3738e-05,0
1.356,2.7024e-05,0
1.3565,1.4939e-05,0
1.357,6.5461e-06,0
1.3575,1.0575e-05,0
1.358,1.0407e-05,0
1.3585,6.8818e-06,0
1.359,7.8889e-06,0
1.3595,9.3996e-06,0
1.36,1.4939e-05,0
1.3605,1.9638e-05,0
1.361,1.5946e-05,0
1.3615,9.0639e-06,0
1.362,8.7282e-06,0
1.3625,1.2589e-05,0
1.363,1.5106e-05,0
1.3635,1.5946e-05,0
1.364,1.9135e-05,0
1.3645,2.3667e-05,0
1.365,2.4842e-05,0
1.3655,2.1988e-05,0
1.366,2.1149e-05,0
1.3665,1.6953e-05,0
1.367,9.2317e-06,0
1.3675,1.2924e-05,0
1.368,1.1917e-05,0
1.3685,3.5248e-06,0
1.369,3.5248e-06,0
1.3695,-2.8534e-06,0
1.37,-1.1414e-05,0
1.3705,-8.896e-06,0
1.371,-7.7211e-06,0
1.3715,-1.3596e-05,0
1.372,-1.9135e-05,0
1.3725,-2.3331e-05,0
1.373,-3.1052e-05,0
1.3735,-3.5752e-05,0
1.374,-3.6423e-05,0
1.3745,-3.4577e-05,0
1.375,-2.8702e-05,0
1.3755,-2.1653e-05,0
1.376,-1.3932e-05,0
1.3765,-6.0426e-06,0
1.377,1.5106e-06,0
1.3775,6.5461e-06,0
1.378,9.5674e-06,0
1.3785,1.4435e-05,0
1.379,2.1317e-05,0
1.3795,2.2995e-05,0
1.38,2.1653e-05,0
1.3805,2.8702e-05,0
1.381,3.1724e-05,0
1.3815,3.2563e-05,0
1.382,3.592e-05,0
1.3825,3.508e-05,0
1.383,3.592e-05,0
1.3835,4.3977e-05,0
1.384,4.2466e-05,0
1.3845,3.9445e-05,0
1.385,4.3809e-05,0
1.3855,4.8173e-05,0
1.386,5.2537e-05,0
1.3865,5.4215e-05,0
1.387,4.8844e-05,0
1.3875,4.2802e-05,0
1.388,4.1459e-05,0
1.3885,4.7166e-05,0
1.389,5.0187e-05,0
1.3895,4.1795e-05,0
1.39,3.4409e-05,0
1.3905,3.3234e-05,0
1.391,3.0381e-05,0
1.3915,2.2324e-05,0
1.392,1.7792e-05,0
1.3925,1.6281e-05,0
1.393,1.5778e-05,0
1.3935,2.3331e-05,0
1.394,2.8031e-05,0
1.3945,2.7863e-05,0
1.395,3.2059e-05,0
1.3955,2.6688e-05,0
1.396,2.1988e-05,0
1.3965,2.8702e-05,0
1.397,3.2059e-05,0
1.3975,3.4241e-05,0
1.398,4.213e-05,0
1.3985,4.683e-05,0
1.399,4.3473e-05,0
1.3995,3.9445e-05,0
1.4,4.2634e-05,0
1.4005,5.0858e-05,0
1.401,5.623e-05,0
1.4015,5.5894e-05,0
1.402,5.153e-05,0
1.4025,4.8844e-05,0
1.403,4.4984e-05,0
1.4035,3.8102e-05,0
1.404,3.1388e-05,0
1.4045,2.2492e-05,0
1.405,1.4603e-05,0
1.4055,6.5461e-06,0
1.406,5.0355e-06,0
1.4065,1.7288e-05,0
1.407,1.9303e-05,0
1.4075,1.0575e-05,0
1.408,6.8818e-06,0
1.4085,1.5106e-06,0
1.409,1.5106e-06,0
1.4095,1.1582e-05,0
1.41,1.5274e-05,0
1.4105,1.6617e-05,0
1.411,2.0981e-05,0
1.4115,2.1149e-05,0
1.412,2.1149e-05,0
1.4125,2.266e-05,0
1.413,2.2156e-05,0
1.4135,1.9974e-05,0
1.414,1.8631e-05,0
1.4145,1.8967e-05,0
1.415,1.8967e-05,0
1.4155,1.8967e-05,0
1.416,1.7792e-05,0
1.4165,1.5946e-05,0
1.417,1.5778e-05,0
1.4175,1.6281e-05,0
1.418,1.7624e-05,0
1.4185,1.6449e-05,0
1.419,1.4603e-05,0
1.4195,2.5009e-05,0
1.42,3.0045e-05,0
1.4205,2.8367e-05,0
1.421,2.7527e-05,0
1.4215,1.8631e-05,0
1.422,1.2085e-05,0
1.4225,1.5442e-05,0
1.423,1.2924e-05,0
1.4235,7.5532e-06,0
1.424,8.896e-06,0
1.4245,1.091e-05,0
1.425,1.091e-05,0
1.4255,8.3925e-06,0
1.426,3.5248e-06,0
1.4265,0,0
1.427,-2.8534e-06,0
1.4275,-4.6998e-06,0
1.428,-4.5319e-06,0
1.4285,-2.3499e-06,0
1.429,0,0
1.4295,1.0071e-06,0
1.43,3.357e-07,0
1.4305,-1.678e-07,0
1.431,5.539e-06,0
1.4315,4.5319e-06,0
1.432,-3.8605e-06,0
1.4325,5.035e-07,0
1.433,8.5603e-06,0
1.4335,1.2757e-05,0
1.434,1.8631e-05,0
1.4345,1.5106e-05,0
1.435,5.2033e-06,0
1.4355,2.8534e-06,0
1.436,-1.678e-07,0
1.4365,-1.0071e-06,0
1.437,5.8747e-06,0
1.4375,9.7353e-06,0
1.438,5.8747e-06,0
1.4385,0,0
1.439,-2.182e-06,0
1.4395,-2.3499e-06,0
1.44,3.357e-07,0
1.4405,5.8747e-06,0
1.441,9.2317e-06,0
1.4415,6.5461e-06,0
1.442,4.1962e-06,0
1.4425,2.5177e-06,0
1.443,1.6785e-06,0
1.4435,-5.035e-07,0
1.444,5.7069e-06,0
1.4445,1.3428e-05,0
1.445,2.0646e-05,0
1.4455,3.4409e-05,0
1.446,4.3305e-05,0
1.4465,4.7166e-05,0
1.447,5.8915e-05,0
1.4475,6.479e-05,0
1.448,6.3783e-05,0
1.4485,6.479e-05,0
1.449,5.7404e-05,0
1.4495,4.448e-05,0
1.45,4.1962e-05,0
1.4505,4.6159e-05,0
1.451,4.918e-05,0
1.4515,4.7166e-05,0
1.452,4.1123e-05,0
1.4525,3.7095e-05,0
1.453,3.1724e-05,0
1.4535,2.6352e-05,0
1.454,1.9303e-05,0
1.4545,1.3932e-05,0
1.455,1.4603e-05,0
1.4555,2.2492e-05,0
1.456,2.9038e-05,0
1.4565,2.7024e-05,0
1.457,2.3835e-05,0
1.4575,1.947e-05,0
1.458,1.5274e-05,0
1.4585,1.8296e-05,0
1.459,1.5106e-05,0
1.4595,1.2421e-05,0
1.46,1.9806e-05,0
1.4605,1.9806e-05,0
1.461,1.6953e-05,0
1.4615,2.6017e-05,0
1.462,3.0045e-05,0
1.4625,2.9374e-05,0
1.463,3.4745e-05,0
1.4635,3.8773e-05,0
1.464,3.8773e-05,0
1.4645,3.8605e-05,0
1.465,3.6088e-05,0
1.4655,3.8102e-05,0
1.466,4.1962e-05,0
1.4665,4.1459e-05,0
1.467,3.743e-05,0
1.4675,3.8941e-05,0
1.468,4.5151e-05,0
1.4685,5.1194e-05,0
1.469,4.8508e-05,0
1.4695,3.6591e-05,0
1.47,2.4674e-05,0
1.4705,1.3932e-05,0
1.471,6.8818e-06,0
1.4715,1.1917e-05,0
1.472,1.3596e-05,0
1.4725,1.326e-05,0
1.473,1.796e-05,0
1.4735,1.326e-05,0
1.474,3.6927e-06,0
1.4745,3.8605e-06,0
1.475,5.2033e-06,0
1.4755,3.8605e-06,0
1.476,3.1891e-06,0
1.4765,8.392e-07,0
1.477,-2.0142e-06,0
1.4775,-4.0284e-06,0
1.478,-5.2033e-06,0
1.4785,-2.5177e-06,0
1.479,4.5319e-06,0
1.4795,1.2421e-05,0
1.48,1.6281e-05,0
1.4805,1.796e-05,0
1.481,1.7288e-05,0
1.4815,1.7121e-05,0
1.482,1.5946e-05,0
1.4825,1.2589e-05,0
1.483,9.7353e-06,0
1.4835,5.2033e-06,0
1.484,3.1891e-06,0
1.4845,1.3092e-05,0
1.485,1.796e-05,0
1.4855,1.7121e-05,0
1.486,2.031e-05,0
1.4865,1.5946e-05,0
1.487,7.8889e-06,0
1.4875,4.8676e-06,0
1.488,-9.2317e-06,0
1.4885,-2.1988e-05,0
1.489,-1.8296e-05,0
1.4895,-7.8889e-06,0
1.49,-6.714e-07,0
1.4905,-1.6785e-06,0
1.491,-1.5106e-06,0
1.4915,6.8818e-06,0
1.492,1.6449e-05,0
1.4925,1.9806e-05,0
1.493,2.4002e-05,0
1.4935,3.0549e-05,0
1.494,3.4241e-05,0
1.4945,3.4745e-05,0
1.495,3.5416e-05,0
1.4955,3.0381e-05,0
1.496,2.7359e-05,0
1.4965,2.266e-05,0
1.497,2.266e-05,0
1.4975,3.508e-05,0
1.498,4.0787e-05,0
1.4985,3.6423e-05,0
1.499,3.4073e-05,0
1.4995,2.7863e-05,0
1.5,1.6953e-05,0
1.5005,9.7353e-06,0
1.501,4.8676e-06,0
1.5015,3.5248e-06,0
1.502,3.6927e-06,0
1.5025,1.1749e-06,0
1.503,-4.0284e-06,0
1.5035,-6.8818e-06,0
1.504,-4.5319e-06,0
1.5045,-3.5248e-06,0
1.505,1.8463e-06,0
1.5055,1.4939e-05,0
1.506,2.9038e-05,0
1.5065,4.0116e-05,0
1.507,4.4144e-05,0
1.5075,4.6159e-05,0
1.508,4.8676e-05,0
1.5085,4.7333e-05,0
1.509,4.3809e-05,0
1.5095,3.7766e-05,0
1.51,3.6088e-05,0
1.5105,3.8102e-05,0
1.511,2.8031e-05,0
1.5115,1.3932e-05,0
1.512,1.1246e-05,0
1.5125,9.7353e-06,0
1.513,5.7069e-06,0
1.5135,-1.5106e-06,0
1.514,-2.1149e-05,0
1.5145,-4.0452e-05,0
1.515,-4.1459e-05,0
1.5155,-3.743e-05,0
1.516,-3.8773e-05,0
1.5165,-3.3066e-05,0
1.517,-1.561e-05,0
1.5175,5.035e-07,0
1.518,7.3854e-06,0
1.5185,1.0407e-05,0
1.519,1.2421e-05,0
1.5195,2.2492e-05,0
1.52,4.0116e-05,0
1.5205,5.4215e-05,0
1.521,6.0594e-05,0
1.5215,6.0258e-05,0
1.522,6.2944e-05,0
1.5225,6.4118e-05,0
1.523,6.63e-05,0
1.5235,7.6371e-05,0
1.524,7.6707e-05,0
1.5245,7.4189e-05,0
1.525,8.51e-05,0
1.5255,9.0974e-05,0
1.526,8.4932e-05,0
1.5265,7.7546e-05,0
1.527,6.2608e-05,0
1.5275,4.8508e-05,0
1.528,4.2298e-05,0
1.5285,3.9277e-05,0
1.529,4.0116e-05,0
1.5295,4.9515e-05,0
1.53,6.0258e-05,0
1.5305,6.5126e-05,0
1.531,6.4286e-05,0
1.5315,5.8747e-05,0
1.532,5.2537e-05,0
1.5325,5.2537e-05,0
1.533,5.3208e-05,0
1.5335,4.8173e-05,0
1.534,3.743e-05,0
1.5345,2.5009e-05,0
1.535,1.7792e-05,0
1.5355,7.8889e-06,0
1.536,-2.8534e-06,0
1.5365,-4.1962e-06,0
1.537,-4.3641e-06,0
1.5375,-3.1891e-06,0
1.538,2.8534e-06,0
1.5385,-3.357e-07,0
1.539,-6.2104e-06,0
1.5395,-2.3499e-06,0
1.54,-5.035e-07,0
1.5405,2.5177e-06,0
1.541,1.1749e-05,0
1.5415,1.7121e-05,0
1.542,1.326e-05,0
1.5425,7.5532e-06,0
1.543,-1.0071e-06,0
1.5435,-1.2757e-05,0
1.544,-1.6953e-05,0
1.5445,-9.9031e-06,0
1.545,1.1749e-06,0
1.5455,7.7211e-06,0
1.546,5.8747e-06,0
1.5465,-1.3428e-06,0
1.547,-7.7211e-06,0
1.5475,-9.2317e-06,0
1.548,-2.5177e-06,0
1.5485,3.357e-07,0
1.549,-1.5106e-06,0
1.5495,9.5674e-06,0
1.55,2.3331e-05,0
1.5505,3.2059e-05,0
1.551,3.9612e-05,0
1.5515,3.9948e-05,0
1.552,3.3402e-05,0
1.5525,2.7695e-05,0
1.553,1.9303e-05,0
1.5535,8.3925e-06,0
1.554,7.0497e-06,0
1.5545,9.0639e-06,0
1.555,1.1078e-05,0
1.5555,8.3925e-06,0
1.556,3.1891e-06,0
1.5565,1.5106e-06,0
1.557,5.035e-07,0
1.5575,5.035e-07,0
1.558,2.0142e-06,0
1.5585,4.1962e-06,0
1.559,4.0284e-06,0
1.5595,8.3925e-06,0
1.56,1.7288e-05,0
1.5605,2.5345e-05,0
1.561,3.743e-05,0
1.5615,4.5151e-05,0
1.562,4.0619e-05,0
1.5625,4.4144e-05,0
1.563,5.4383e-05,0
1.5635,6.0258e-05,0
1.564,6.8315e-05,0
1.5645,6.5629e-05,0
1.565,5.0858e-05,0
1.5655,3.9445e-05,0
1.566,2.8031e-05,0
1.5665,2.3331e-05,0
1.567,2.6017e-05,0
1.5675,2.0478e-05,0
1.568,7.8889e-06,0
1.5685,-4.5319e-06,0
1.569,-8.2246e-06,0
1.5695,-8.2246e-06,0
1.57,-1.9638e-05,0
1.5705,-3.6088e-05,0
1.571,-4.7837e-05,0
1.5715,-5.4719e-05,0
1.572,-5.2201e-05,0
1.5725,-4.4816e-05,0
1.573,-3.508e-05,0
1.5735,-2.8534e-05,0
1.574,-2.5009e-05,0
1.5745,-2.1149e-05,0
1.575,-1.3932e-05,0
1.5755,-2.8534e-06,0
1.576,-2.5177e-06,0
1.5765,-8.392e-07,0
1.577,1.3932e-05,0
1.5775,2.266e-05,0
1.578,2.7695e-05,0
1.5785,4.1291e-05,0
1.579,4.5823e-05,0
1.5795,4.4144e-05,0
1.58,4.683e-05,0
1.5805,4.7166e-05,0
1.581,4.9515e-05,0
1.5815,6.0258e-05,0
1.582,7.5868e-05,0
1.5825,8.5771e-05,0
1.583,8.9128e-05,0
1.5835,8.5771e-05,0
1.584,7.9393e-05,0
1.5845,7.4693e-05,0
1.585,7.4189e-05,0
1.5855,7.2175e-05,0
1.586,6.865e-05,0
1.5865,5.9419e-05,0
1.587,5.0858e-05,0
1.5875,4.1123e-05,0
1.588,3.2563e-05,0
1.5885,3.7934e-05,0
1.589,3.8437e-05,0
1.5895,3.0549e-05,0
1.59,3.1052e-05,0
1.5905,3.122e-05,0
1.591,2.8702e-05,0
1.5915,3.2731e-05,0
1.592,2.8031e-05,0
1.5925,2.031e-05,0
1.593,2.266e-05,0
1.5935,3.0716e-05,0
1.594,3.743e-05,0
1.5945,4.1962e-05,0
1.595,3.8773e-05,0
1.5955,2.6688e-05,0
1.596,2.1317e-05,0
1.5965,2.2995e-05,0
1.597,2.5177e-05,0
1.5975,3.3738e-05,0
1.598,3.9445e-05,0
1.5985,3.4745e-05,0
1.599,2.7359e-05,0
1.5995,1.8631e-05,0
1.6,1.5274e-05,0
1.6005,9.7353e-06,0
1.601,-5.035e-07,0
1.6015,-4.5319e-06,0
1.602,-9.9031e-06,0
1.6025,-1.5274e-05,0
1.603,-1.2589e-05,0
1.6035,-1.4099e-05,0
1.604,-1.6617e-05,0
1.6045,-8.896e-06,0
1.605,-4.8676e-06,0
1.6055,-6.8818e-06,0
1.606,-4.1962e-06,0
1.6065,-2.8534e-06,0
1.607,-6.8818e-06,0
1.6075,-1.0071e-05,0
1.608,-5.8747e-06,0
1.6085,3.1891e-06,0
1.609,5.2033e-06,0
1.6095,-1.1582e-05,0
1.61,-3.0381e-05,0
1.6105,-3.4577e-05,0
1.611,-2.9877e-05,0
1.6115,-2.2828e-05,0
1.612,-1.2924e-05,0
1.6125,-5.0355e-06,0
1.613,6.2104e-06,0
1.6135,1.1749e-05,0
1.614,3.8605e-06,0
1.6145,-1.0071e-06,0
1.615,-3.357e-07,0
1.6155,4.1962e-06,0
1.616,8.3925e-06,0
1.6165,3.357e-06,0
1.617,3.357e-07,0
1.6175,6.8818e-06,0
1.618,7.0497e-06,0
1.6185,6.5461e-06,0
1.619,1.7121e-05,0
1.6195,3.0716e-05,0
1.62,4.0116e-05,0
1.6205,4.8844e-05,0
1.621,5.6901e-05,0
1.6215,6.0258e-05,0
1.622,5.9251e-05,0
1.6225,5.8747e-05,0
1.623,5.9587e-05,0
1.6235,6.1601e-05,0
1.624,5.8915e-05,0
1.6245,4.8173e-05,0
1.625,3.1891e-05,0
1.6255,1.4267e-05,0
1.626,4.8676e-06,0
1.6265,-4.8676e-06,0
1.627,-1.2253e-05,0
1.6275,-1.0575e-05,0
1.628,-1.4099e-05,0
1.6285,-1.6953e-05,0
1.629,-5.2033e-06,0
1.6295,-1.1749e-06,0
1.63,-5.8747e-06,0
1.6305,-2.8534e-06,0
1.631,-2.182e-06,0
1.6315,-2.0142e-06,0
1.632,6.2104e-06,0
1.6325,1.6449e-05,0
1.633,2.3331e-05,0
1.6335,2.6688e-05,0
1.634,2.8031e-05,0
1.6345,2.9206e-05,0
1.635,3.0045e-05,0
1.6355,2.8702e-05,0
1.636,2.5009e-05,0
1.6365,3.2059e-05,0
1.637,4.7333e-05,0
1.6375,5.7237e-05,0
1.638,5.6733e-05,0
1.6385,5.8244e-05,0
1.639,6.5461e-05,0
1.6395,6.2272e-05,0
1.64,5.0858e-05,0
1.6405,4.3809e-05,0
1.641,3.3906e-05,0
1.6415,2.9374e-05,0
1.642,3.2731e-05,0
1.6425,2.5345e-05,0
1.643,1.0407e-05,0
1.6435,2.5177e-06,0
1.644,-1.1246e-05,0
1.6445,-1.9974e-05,0
1.645,-1.1749e-05,0
1.6455,-4.5319e-06,0
1.646,-2.8534e-06,0
1.6465,0,0
1.647,2.182e-06,0
1.6475,5.539e-06,0
1.648,1.4267e-05,0
1.6485,2.2492e-05,0
1.649,2.3163e-05,0
1.6495,1.5946e-05,0
1.65,7.3854e-06,0
1.6505,4.3641e-06,0
1.651,1.091e-05,0
1.6515,2.4674e-05,0
1.652,4.1291e-05,0
1.6525,5.2537e-05,0
1.653,6.0426e-05,0
1.6535,7.4693e-05,0
1.654,7.9896e-05,0
1.6545,7.7714e-05,0
1.655,7.9057e-05,0
1.6555,7.6036e-05,0
1.656,7.5868e-05,0
1.6565,8.2078e-05,0
1.657,7.4021e-05,0
1.6575,5.9587e-05,0
1.658,5.2537e-05,0
1.6585,4.2466e-05,0
1.659,3.0716e-05,0
1.6595,2.652e-05,0
1.66,2.8702e-05,0
1.6605,3.122e-05,0
1.661,3.0381e-05,0
1.6615,2.5849e-05,0
1.662,2.1988e-05,0
1.6625,2.1317e-05,0
1.663,1.7288e-05,0
1.6635,1.1917e-05,0
1.664,7.0497e-06,0
1.6645,6.714e-07,0
1.665,-8.2246e-06,0
1.6655,-2.4338e-05,0
1.666,-3.5752e-05,0
1.6665,-3.7095e-05,0
1.667,-4.3137e-05,0
1.6675,-5.2201e-05,0
1.668,-4.9515e-05,0
1.6685,-4.5151e-05,0
1.669,-4.2802e-05,0
1.6695,-3.5248e-05,0
1.67,-3.5248e-05,0
1.6705,-3.3738e-05,0
1.671,-2.1653e-05,0
1.6715,-5.2033e-06,0
1.672,1.1078e-05,0
1.6725,2.7695e-05,0
1.673,4.2802e-05,0
1.6735,5.1865e-05,0
1.674,5.5726e-05,0
1.6745,5.8244e-05,0
1.675,6.4118e-05,0
1.6755,6.8147e-05,0
1.676,6.5629e-05,0
1.6765,5.7908e-05,0
1.677,5.0858e-05,0
1.6775,4.6494e-05,0
1.678,4.5487e-05,0
1.6785,4.1459e-05,0
1.679,3.978e-05,0
1.6795,4.8173e-05,0
1.68,4.918e-05,0
1.6805,4.1795e-05,0
1.681,3.8102e-05,0
1.6815,3.1891e-05,0
1.682,2.8367e-05,0
1.6825,2.7695e-05,0
1.683,1.6617e-05,0
1.6835,1.091e-05,0
1.684,2.1317e-05,0
1.6845,3.2059e-05,0
1.685,3.5416e-05,0
1.6855,2.9709e-05,0
1.686,2.1317e-05,0
1.6865,1.561e-05,0
1.687,1.326e-05,0
1.6875,9.9031e-06,0
1.688,5.2033e-06,0
1.6885,-2.0142e-06,0
1.689,-7.8889e-06,0
1.6895,-1.1078e-05,0
1.69,-1.6281e-05,0
1.6905,-2.3163e-05,0
1.691,-2.6688e-05,0
1.6915,-3.7095e-05,0
1.692,-4.5151e-05,0
1.6925,-3.6759e-05,0
1.693,-2.9374e-05,0
1.6935,-2.4338e-05,0
1.694,-8.5603e-06,0
1.6945,-3.5248e-06,0
1.695,-8.2246e-06,0
1.6955,-3.1891e-06,0
1.696,-2.0142e-06,0
1.6965,-1.678e-07,0
1.697,1.1749e-05,0
1.6975,2.3163e-05,0
1.698,3.0045e-05,0
1.6985,3.1052e-05,0
1.699,2.3163e-05,0
1.6995,1.0407e-05,0
1.7,-3.0213e-06,0
1.7005,-7.5532e-06,0
1.701,0,0
1.7015,7.8889e-06,0
1.702,1.2253e-05,0
1.7025,1.796e-05,0
1.703,2.3667e-05,0
1.7035,2.6017e-05,0
1.704,3.1724e-05,0
1.7045,3.8102e-05,0
1.705,4.5487e-05,0
1.7055,5.8579e-05,0
1.706,5.7404e-05,0
1.7065,4.6494e-05,0
1.707,4.4144e-05,0
1.7075,4.7837e-05,0
1.708,5.539e-05,0
1.7085,6.7643e-05,0
1.709,7.0664e-05,0
1.7095,6.6972e-05,0
1.71,6.2272e-05,0
1.7105,5.153e-05,0
1.711,4.2466e-05,0
1.7115,4.2634e-05,0
1.712,4.683e-05,0
1.7125,5.0523e-05,0
1.713,5.2201e-05,0
1.7135,5.2201e-05,0
1.714,4.3473e-05,0
1.7145,2.5513e-05,0
1.715,9.2317e-06,0
1.7155,8.392e-07,0
1.716,-3.357e-06,0
1.7165,-8.896e-06,0
1.717,-1.1917e-05,0
1.7175,-1.6953e-05,0
1.718,-1.8631e-05,0
1.7185,-5.2033e-06,0
1.719,3.8605e-06,0
1.7195,4.3641e-06,0
1.72,1.0407e-05,0
1.7205,1.3932e-05,0
1.721,1.3764e-05,0
1.7215,1.1078e-05,0
1.722,2.0142e-06,0
1.7225,-3.1891e-06,0
1.723,3.1891e-06,0
1.7235,9.3996e-06,0
1.724,1.091e-05,0
1.7245,1.6953e-05,0
1.725,2.7695e-05,0
1.7255,3.9445e-05,0
1.726,5.0187e-05,0
1.7265,5.9754e-05,0
1.727,6.63e-05,0
1.7275,6.4286e-05,0
1.728,4.8844e-05,0
1.7285,2.4674e-05,0
1.729,2.8534e-06,0
1.7295,-6.8818e-06,0
1.73,-4.1962e-06,0
1.7305,-1.6785e-06,0
1.731,4.1962e-06,0
1.7315,2.1317e-05,0
1.732,3.6088e-05,0
1.7325,4.2466e-05,0
1.733,4.6662e-05,0
1.7335,4.448e-05,0
1.734,4.6494e-05,0
1.7345,5.2537e-05,0
1.735,4.4144e-05,0
1.7355,2.8702e-05,0
1.736,2.1988e-05,0
1.7365,2.1988e-05,0
1.737,1.561e-05,0
1.7375,6.3783e-06,0
1.738,5.2033e-06,0
1.7385,9.3996e-06,0
1.739,9.5674e-06,0
1.7395,5.2033e-06,0
1.74,3.5248e-06,0
1.7405,1.1414e-05,0
1.741,2.1317e-05,0
1.7415,2.4002e-05,0
1.742,2.2995e-05,0
1.7425,2.1317e-05,0
1.743,2.1988e-05,0
1.7435,1.947e-05,0
1.744,1.6449e-05,0
1.7445,2.5009e-05,0
1.745,3.0716e-05,0
1.7455,3.2059e-05,0
1.746,3.2898e-05,0
1.7465,2.266e-05,0
1.747,1.7456e-05,0
1.7475,2.3667e-05,0
1.748,2.3331e-05,0
1.7485,2.0646e-05,0
1.749,2.6352e-05,0
1.7495,3.357e-05,0
1.75,3.3402e-05,0
1.7505,3.3066e-05,0
1.751,3.2731e-05,0
1.7515,3.2059e-05,0
1.752,2.9374e-05,0
1.7525,2.266e-05,0
1.753,1.7288e-05,0
1.7535,1.4435e-05,0
1.754,1.1917e-05,0
1.7545,9.5674e-06,0
1.755,2.8534e-06,0
1.7555,-2.182e-06,0
1.756,-1.1749e-06,0
1.7565,3.8605e-06,0
1.757,1.0575e-05,0
1.7575,2.3667e-05,0
1.758,2.6352e-05,0
1.7585,2.1149e-05,0
1.759,2.7024e-05,0
1.7595,2.8367e-05,0
1.76,1.8967e-05,0
1.7605,1.2757e-05,0
1.761,6.5461e-06,0
1.7615,7.2175e-06,0
1.762,1.7624e-05,0
1.7625,2.4002e-05,0
1.763,2.0813e-05,0
1.7635,1.326e-05,0
1.764,8.3925e-06,0
1.7645,1.0239e-05,0
1.765,1.6617e-05,0
1.7655,1.6953e-05,0
1.766,8.896e-06,0
1.7665,1.678e-07,0
1.767,-1.8463e-06,0
1.7675,2.182e-06,0
1.768,8.5603e-06,0
1.7685,1.1582e-05,0
1.769,1.4603e-05,0
1.7695,1.326e-05,0
1.77,7.7211e-06,0
1.7705,8.896e-06,0
1.771,7.7211e-06,0
1.7715,6.5461e-06,0
1.772,1.4267e-05,0
1.7725,1.4435e-05,0
1.773,9.9031e-06,0
1.7735,1.1582e-05,0
1.774,6.2104e-06,0
1.7745,2.5177e-06,0
1.775,8.7282e-06,0
1.7755,1.4603e-05,0
1.776,1.6449e-05,0
1.7765,1.8631e-05,0
1.777,1.9135e-05,0
1.7775,1.7121e-05,0
1.778,1.6281e-05,0
1.7785,1.8296e-05,0
1.779,2.266e-05,0
1.7795,2.7695e-05,0
1.78,2.8367e-05,0
1.7805,2.6017e-05,0
1.781,2.1988e-05,0
1.7815,1.8296e-05,0
1.782,2.182e-05,0
1.7825,2.5681e-05,0
1.783,2.5009e-05,0
1.7835,2.6688e-05,0
1.784,2.1988e-05,0
1.7845,1.8128e-05,0
1.785,1.8631e-05,0
1.7855,1.1414e-05,0
1.786,3.6927e-06,0
1.7865,3.1891e-06,0
1.787,-7.3854e-06,0
1.7875,-2.2492e-05,0
1.788,-2.6688e-05,0
1.7885,-2.5681e-05,0
1.789,-2.5009e-05,0
1.7895,-2.6688e-05,0
1.79,-3.0716e-05,0
1.7905,-3.2563e-05,0
1.791,-2.887e-05,0
1.7915,-2.2995e-05,0
1.792,-1.091e-05,0
1.7925,1.0407e-05,0
1.793,3.0549e-05,0
1.7935,4.4984e-05,0
1.794,5.6901e-05,0
1.7945,6.3951e-05,0
1.795,6.9154e-05,0
1.7955,7.0329e-05,0
1.796,6.7979e-05,0
1.7965,7.1336e-05,0
1.797,7.335e-05,0
1.7975,7.2007e-05,0
1.798,7.4189e-05,0
1.7985,7.335e-05,0
1.799,6.8315e-05,0
1.7995,7.2007e-05,0
1.8,7.1e-05,0
1.8005,5.9587e-05,0
1.801,5.3544e-05,0
1.8015,5.7572e-05,0
1.802,5.6901e-05,0
1.8025,4.0116e-05,0
1.803,1.9638e-05,0
1.8035,7.8889e-06,0
1.804,8.2246e-06,0
1.8045,5.2033e-06,0
1.805,-7.2175e-06,0
1.8055,-1.5946e-05,0
1.806,-1.4267e-05,0
1.8065,-8.896e-06,0
1.807,-5.539e-06,0
1.8075,-3.357e-06,0
1.808,5.8747e-06,0
1.8085,1.4435e-05,0
1.809,2.3163e-05,0
1.8095,4.1627e-05,0
1.81,5.0355e-05,0
1.8105,4.918e-05,0
1.811,5.1865e-05,0
1.8115,5.2705e-05,0
1.812,5.2201e-05,0
1.8125,5.1194e-05,0
1.813,4.2466e-05,0
1.8135,3.7095e-05,0
1.814,4.5487e-05,0
1.8145,5.5558e-05,0
1.815,5.8412e-05,0
1.8155,5.8915e-05,0
1.816,6.0594e-05,0
1.8165,6.2776e-05,0
1.817,6.009e-05,0
1.8175,5.9419e-05,0
1.818,6.8315e-05,0
1.8185,7.4357e-05,0
1.819,6.5126e-05,0
1.8195,4.2802e-05,0
1.82,2.1149e-05,0
1.8205,1.3932e-05,0
1.821,1.6953e-05,0
1.8215,1.2085e-05,0
1.822,5.539e-06,0
1.8225,5.8747e-06,0
1.823,2.182e-06,0
1.8235,1.0071e-06,0
1.824,1.1078e-05,0
1.8245,1.0575e-05,0
1.825,-6.714e-07,0
1.8255,-5.539e-06,0
1.826,-1.2757e-05,0
1.8265,-2.2156e-05,0
1.827,-2.4674e-05,0
1.8275,-3.1724e-05,0
1.828,-4.6662e-05,0
1.8285,-5.5222e-05,0
1.829,-4.8676e-05,0
1.8295,-3.3738e-05,0
1.83,-2.0646e-05,0
1.8305,-9.3996e-06,0
1.831,2.6856e-06,0
1.8315,1.2589e-05,0
1.832,1.561e-05,0
1.8325,1.5778e-05,0
1.833,2.0981e-05,0
1.8335,2.9877e-05,0
1.834,3.4241e-05,0
1.8345,2.5345e-05,0
1.835,1.6953e-05,0
1.8355,2.3667e-05,0
1.836,2.2995e-05,0
1.8365,1.0575e-05,0
1.837,1.0071e-05,0
1.8375,1.091e-05,0
1.838,7.8889e-06,0
1.8385,6.8818e-06,0
1.839,-8.392e-07,0
1.8395,-1.1917e-05,0
1.84,-1.2421e-05,0
1.8405,1.1749e-06,0
1.841,2.0646e-05,0
1.8415,2.9709e-05,0
1.842,3.0381e-05,0
1.8425,3.4409e-05,0
1.843,4.1962e-05,0
1.8435,5.153e-05,0
1.844,5.5894e-05,0
1.8445,5.1698e-05,0
1.845,4.5319e-05,0
1.8455,3.743e-05,0
1.846,3.0213e-05,0
1.8465,2.3331e-05,0
1.847,2.4002e-05,0
1.8475,2.3499e-05,0
1.848,2.1149e-05,0
1.8485,2.5513e-05,0
1.849,2.3667e-05,0
1.8495,1.6953e-05,0
1.85,1.5442e-05,0
1.8505,8.896e-06,0
1.851,4.5319e-06,0
1.8515,7.5532e-06,0
1.852,-1.1749e-06,0
1.8525,-1.2589e-05,0
1.853,-1.3596e-05,0
1.8535,-1.6281e-05,0
1.854,-2.2324e-05,0
1.8545,-2.6688e-05,0
1.855,-3.2059e-05,0
1.8555,-3.3066e-05,0
1.856,-2.8702e-05,0
1.8565,-1.9303e-05,0
1.857,-8.5603e-06,0
1.8575,-1.1749e-06,0
1.858,4.8676e-06,0
1.8585,1.5274e-05,0
1.859,3.1724e-05,0
1.8595,4.4144e-05,0
1.86,4.918e-05,0
1.8605,4.8508e-05,0
1.861,4.9012e-05,0
1.8615,6.0594e-05,0
1.862,6.3279e-05,0
1.8625,5.0858e-05,0
1.863,4.4144e-05,0
1.8635,4.918e-05,0
1.864,6.0929e-05,0
1.8645,6.7308e-05,0
1.865,4.8173e-05,0
1.8655,2.1317e-05,0
1.866,1.6953e-05,0
1.8665,2.5681e-05,0
1.867,3.1891e-05,0
1.8675,3.6088e-05,0
1.868,4.1962e-05,0
1.8685,4.683e-05,0
1.869,4.5655e-05,0
1.8695,4.2802e-05,0
1.87,4.2802e-05,0
1.8705,4.5487e-05,0
1.871,4.3137e-05,0
1.8715,3.508e-05,0
1.872,2.4674e-05,0
1.8725,1.4435e-05,0
1.873,1.2253e-05,0
1.8735,1.2421e-05,0
1.874,1.2924e-05,0
1.8745,1.8967e-05,0
1.875,2.2492e-05,0
1.8755,2.7695e-05,0
1.876,3.6591e-05,0
1.8765,3.0549e-05,0
1.877,2.0478e-05,0
1.8775,2.7863e-05,0
1.878,3.3234e-05,0
1.8785,3.1891e-05,0
1.879,3.1052e-05,0
1.8795,2.6688e-05,0
1.88,1.4267e-05,0
1.8805,-7.0497e-06,0
1.881,-2.2156e-05,0
1.8815,-2.9038e-05,0
1.882,-3.6759e-05,0
1.8825,-4.5151e-05,0
1.883,-5.3544e-05,0
1.8835,-5.4048e-05,0
1.884,-4.7501e-05,0
1.8845,-4.0619e-05,0
1.885,-4.1123e-05,0
1.8855,-4.3977e-05,0
1.886,-3.5248e-05,0
1.8865,-1.947e-05,0
1.887,-1.1749e-06,0
1.8875,2.652e-05,0
1.888,5.0523e-05,0
1.8885,6.63e-05,0
1.889,7.8386e-05,0
1.8895,7.3182e-05,0
1.89,6.4286e-05,0
1.8905,6.8147e-05,0
1.891,7.1e-05,0
1.8915,7.6204e-05,0
1.892,8.7785e-05,0
1.8925,9.5171e-05,0
1.893,8.8457e-05,0
1.8935,6.9657e-05,0
1.894,5.5558e-05,0
1.8945,5.3544e-05,0
1.895,5.8579e-05,0
1.8955,5.8244e-05,0
1.896,5.2537e-05,0
1.8965,4.5487e-05,0
1.897,4.1459e-05,0
1.8975,3.9277e-05,0
1.898,3.7095e-05,0
1.8985,3.8102e-05,0
1.899,4.1795e-05,0
1.8995,4.1123e-05,0
1.9,4.213e-05,0
1.9005,4.9012e-05,0
1.901,4.3137e-05,0
1.9015,3.6927e-05,0
1.902,4.3305e-05,0
1.9025,3.592e-05,0
1.903,2.1317e-05,0
1.9035,2.0981e-05,0
1.904,1.6953e-05,0
1.9045,7.7211e-06,0
1.905,7.5532e-06,0
1.9055,5.8747e-06,0
1.906,-8.392e-07,0
1.9065,-5.8747e-06,0
1.907,-7.8889e-06,0
1.9075,-3.8605e-06,0
1.908,1.5106e-06,0
1.9085,6.714e-07,0
1.909,-2.5177e-06,0
1.9095,-2.8534e-06,0
1.91,-3.357e-07,0
1.9105,1.0071e-06,0
1.911,-2.3499e-06,0
1.9115,-8.3925e-06,0
1.912,-1.3092e-05,0
1.9125,-2.417e-05,0
1.913,-3.4745e-05,0
1.9135,-3.4409e-05,0
1.914,-4.1795e-05,0
1.9145,-5.539e-05,0
1.915,-5.8579e-05,0
1.9155,-6.8986e-05,0
1.916,-8.2246e-05,0
1.9165,-8.275e-05,0
1.917,-8.3421e-05,0
1.9175,-9.2485e-05,0
1.918,-0.00010222,0
1.9185,-0.00010323,0
1.919,-9.2485e-05,0
1.9195,-7.3518e-05,0
1.92,-5.0858e-05,0
1.9205,-2.8367e-05,0
1.921,-9.7353e-06,0
1.9215,-3.357e-07,0
1.922,1.0239e-05,0
1.9225,2.9038e-05,0
1.923,4.9515e-05,0
1.9235,6.5293e-05,0
1.924,7.5364e-05,0
1.9245,8.6442e-05,0
1.925,9.9031e-05,0
1.9255,0.00010121,0
1.926,9.6513e-05,0
1.9265,9.8192e-05,0
1.927,0.00010054,0
1.9275,0.00010558,0
1.928,0.0001138,0
1.9285,0.00011263,0
1.929,0.0001086,0
1.9295,0.00011229,0
1.93,0.00011733,0
1.9305,0.00012522,0
1.931,0.00013613,0
1.9315,0.00014066,0
1.932,0.00013713,0
1.9325,0.00013243,0
1.933,0.00013008,0
1.9335,0.00012639,0
1.934,0.0001133,0
1.9345,9.6178e-05,0
1.935,8.4428e-05,0
1.9355,7.6371e-05,0
1.936,6.7643e-05,0
1.9365,5.5558e-05,0
1.937,3.7766e-05,0
1.9375,1.796e-05,0
1.938,2.5177e-06,0
1.9385,-1.3596e-05,0
1.939,-3.4241e-05,0
1.9395,-5.2201e-05,0
1.94,-6.479e-05,0
1.9405,-6.9322e-05,0
1.941,-7.7043e-05,0
1.9415,-9.9702e-05,0
1.942,-0.00011699,0
1.9425,-0.00011582,0
1.943,-0.00011061,0
1.9435,-0.00010222,0
1.944,-8.0064e-05,0
1.9445,-4.9851e-05,0
1.945,-2.3163e-05,0
1.9455,-4.5319e-06,0
1.946,9.9031e-06,0
1.9465,2.0478e-05,0
1.947,3.3738e-05,0
1.9475,5.0858e-05,0
1.948,6.4958e-05,0
1.9485,7.5029e-05,0
1.949,8.04e-05,0
1.9495,8.4093e-05,0
1.95,8.3757e-05,0
1.9505,7.7546e-05,0
1.951,7.1672e-05,0
1.9515,7.0497e-05,0
1.952,7.2175e-05,0
1.9525,7.6036e-05,0
1.953,7.1504e-05,0
1.9535,6.1601e-05,0
1.954,5.8579e-05,0
1.9545,5.3208e-05,0
1.955,4.6326e-05,0
1.9555,4.213e-05,0
1.956,2.8199e-05,0
1.9565,1.7624e-05,0
1.957,2.3331e-05,0
1.9575,3.2395e-05,0
1.958,2.9877e-05,0
1.9585,1.9638e-05,0
1.959,1.091e-05,0
1.9595,3.1891e-06,0
1.96,5.035e-07,0
1.9605,-1.1749e-06,0
1.961,-2.8534e-06,0
1.9615,-8.392e-07,0
1.962,1.1749e-06,0
1.9625,1.8463e-06,0
1.963,-1.678e-07,0
1.9635,-4.5319e-06,0
1.964,-6.0426e-06,0
1.9645,-9.9031e-06,0
1.965,-1.4435e-05,0
1.9655,-1.4267e-05,0
1.966,-1.796e-05,0
1.9665,-2.2995e-05,0
1.967,-1.8967e-05,0
1.9675,-1.7624e-05,0
1.968,-1.9303e-05,0
1.9685,-1.2253e-05,0
1.969,-6.0426e-06,0
1.9695,-4.1962e-06,0
1.97,-1.678e-07,0
1.9705,2.8534e-06,0
1.971,7.3854e-06,0
1.9715,1.6281e-05,0
1.972,2.0646e-05,0
1.9725,1.7121e-05,0
1.973,1.0575e-05,0
1.9735,4.1962e-06,0
1.974,8.392e-07,0
1.9745,5.035e-07,0
1.975,2.5177e-06,0
1.9755,5.7069e-06,0
1.976,6.2104e-06,0
1.9765,5.8747e-06,0
1.977,1.2924e-05,0
1.9775,1.9974e-05,0
1.978,2.8031e-05,0
1.9785,4.3305e-05,0
1.979,4.5823e-05,0
1.9795,3.4073e-05,0
1.98,2.8367e-05,0
1.9805,2.4338e-05,0
1.981,2.031e-05,0
1.9815,2.266e-05,0
1.982,1.6449e-05,0
1.9825,5.8747e-06,0
1.983,6.2104e-06,0
1.9835,9.9031e-06,0
1.984,6.2104e-06,0
1.9845,2.182e-06,0
1.985,-4.1962e-06,0
1.9855,-1.8631e-05,0
1.986,-3.4913e-05,0
1.9865,-5.5726e-05,0
1.987,-8.1071e-05,0
1.9875,-9.6178e-05,0
1.988,-9.5171e-05,0
1.9885,-8.2918e-05,0
1.989,-6.4286e-05,0
1.9895,-4.3137e-05,0
1.99,-1.9638e-05,0
1.9905,-6.5461e-06,0
1.991,-8.392e-07,0
1.9915,8.5603e-06,0
1.992,1.4267e-05,0
1.9925,2.7527e-05,0
1.993,5.2201e-05,0
1.9935,6.2608e-05,0
1.994,6.0594e-05,0
1.9945,6.3615e-05,0
1.995,6.7475e-05,0
1.9955,7.5029e-05,0
1.996,8.4428e-05,0
1.9965,8.9464e-05,0
1.997,9.8192e-05,0
1.9975,0.00011061,0
1.998,0.00011263,0
1.9985,0.00010726,0
1.999,0.00010088,0
1.9995,8.6946e-05,0
2,6.5629e-05,0
2.0005,5.0858e-05,0
2.001,4.6998e-05,0
2.0015,3.6759e-05,0
2.002,1.9974e-05,0
2.0025,1.7624e-05,0
2.003,2.9374e-05,0
2.0035,2.9709e-05,0
2.004,2.4338e-05,0
2.0045,3.6927e-05,0
2.005,5.388e-05,0
2.0055,6.6804e-05,0
2.006,8.3085e-05,0
2.0065,9.4499e-05,0
2.007,9.987e-05,0
2.0075,0.00010625,0
2.008,9.987e-05,0
2.0085,8.3085e-05,0
2.009,7.9057e-05,0
2.0095,8.7114e-05,0
2.01,9.4499e-05,0
2.0105,9.3828e-05,0
2.011,8.0735e-05,0
2.0115,6.1936e-05,0
2.012,4.8508e-05,0
2.0125,4.5991e-05,0
2.013,5.0858e-05,0
2.0135,5.8915e-05,0
2.014,5.9922e-05,0
2.0145,5.3544e-05,0
2.015,4.5319e-05,0
2.0155,3.5416e-05,0
2.016,2.9374e-05,0
2.0165,1.9303e-05,0
2.017,3.5248e-06,0
2.0175,1.6785e-06,0
2.018,5.0355e-06,0
2.0185,2.5177e-06,0
2.019,3.357e-07,0
2.0195,-1.0071e-05,0
2.02,-2.3499e-05,0
2.0205,-2.7024e-05,0
2.021,-3.5416e-05,0
2.0215,-4.3809e-05,0
2.022,-3.5752e-05,0
2.0225,-2.1317e-05,0
2.023,-1.5274e-05,0
2.0235,-1.7624e-05,0
2.024,-1.9303e-05,0
2.0245,-1.6953e-05,0
2.025,-1.6953e-05,0
2.0255,-2.3331e-05,0
2.026,-2.8534e-05,0
2.0265,-3.0381e-05,0
2.027,-3.4073e-05,0
2.0275,-4.0787e-05,0
2.028,-4.7166e-05,0
2.0285,-4.8508e-05,0
2.029,-4.8508e-05,0
2.0295,-5.8076e-05,0
2.03,-6.6133e-05,0
2.0305,-5.8244e-05,0
2.031,-5.0523e-05,0
2.0315,-5.1026e-05,0
2.032,-4.4816e-05,0
2.0325,-3.7095e-05,0
2.033,-2.9877e-05,0
2.0335,-2.3163e-05,0
2.034,-2.5009e-05,0
2.0345,-2.2995e-05,0
2.035,-1.1749e-05,0
2.0355,-8.392e-07,0
2.036,4.5319e-06,0
2.0365,4.8676e-06,0
2.037,3.8605e-06,0
2.0375,4.1962e-06,0
2.038,8.5603e-06,0
2.0385,1.6617e-05,0
2.039,2.7192e-05,0
2.0395,3.2731e-05,0
2.04,2.8702e-05,0
2.0405,2.4002e-05,0
2.041,3.2731e-05,0
2.0415,4.448e-05,0
2.042,4.448e-05,0
2.0425,1.796e-05,0
2.043,-1.2253e-05,0
2.0435,-2.1317e-05,0
2.044,-2.6352e-05,0
2.0445,-2.3667e-05,0
2.045,-4.1962e-06,0
2.0455,5.0355e-06,0
2.046,-8.392e-07,0
2.0465,-3.5248e-06,0
2.047,1.678e-07,0
2.0475,1.0575e-05,0
2.048,3.1052e-05,0
2.0485,5.6901e-05,0
2.049,7.9728e-05,0
2.0495,9.8527e-05,0
2.05,9.5842e-05,0
2.0505,6.865e-05,0
2.051,4.3473e-05,0
2.0515,3.4745e-05,0
2.052,4.448e-05,0
2.0525,6.479e-05,0
2.053,8.1071e-05,0
2.0535,9.3828e-05,0
2.054,0.00010239,0
2.0545,0.00010105,0
2.055,9.5171e-05,0
2.0555,8.1407e-05,0
2.056,6.6972e-05,0
2.0565,6.4286e-05,0
2.057,6.1433e-05,0
2.0575,5.5894e-05,0
2.058,5.4887e-05,0
2.0585,4.683e-05,0
2.059,3.5416e-05,0
2.0595,3.743e-05,0
2.06,4.448e-05,0
2.0605,4.2802e-05,0
2.061,3.9109e-05,0
2.0615,3.743e-05,0
2.062,3.8437e-05,0
2.0625,3.8773e-05,0
2.063,3.6088e-05,0
2.0635,3.1388e-05,0
2.064,2.7024e-05,0
2.0645,2.4002e-05,0
2.065,2.0981e-05,0
2.0655,2.0142e-05,0
2.066,2.031e-05,0
2.0665,2.182e-05,0
2.067,2.182e-05,0
2.0675,2.1317e-05,0
2.068,2.3835e-05,0
2.0685,2.1317e-05,0
2.069,1.7288e-05,0
2.0695,2.3499e-05,0
2.07,2.4674e-05,0
2.0705,1.8631e-05,0
2.071,1.7288e-05,0
2.0715,1.7624e-05,0
2.072,1.6281e-05,0
2.0725,2.031e-05,0
2.073,1.8128e-05,0
2.0735,1.0575e-05,0
2.074,7.5532e-06,0
2.0745,6.5461e-06,0
2.075,2.0142e-06,0
2.0755,-4.3641e-06,0
2.076,-1.7624e-05,0
2.0765,-3.9109e-05,0
2.077,-5.6901e-05,0
2.0775,-5.8579e-05,0
2.078,-4.8844e-05,0
2.0785,-4.5151e-05,0
2.079,-4.0619e-05,0
2.0795,-3.0716e-05,0
2.08,-2.031e-05,0
2.0805,-1.0239e-05,0
2.081,6.3783e-06,0
2.0815,1.8631e-05,0
2.082,1.8631e-05,0
2.0825,1.8631e-05,0
2.083,1.4099e-05,0
2.0835,1.3932e-05,0
2.084,3.1556e-05,0
2.0845,4.6159e-05,0
2.085,5.623e-05,0
2.0855,6.5293e-05,0
2.086,5.623e-05,0
2.0865,4.0116e-05,0
2.087,3.2898e-05,0
2.0875,2.8199e-05,0
2.088,2.3667e-05,0
2.0885,1.7792e-05,0
2.089,1.1917e-05,0
2.0895,1.4771e-05,0
2.09,2.0981e-05,0
2.0905,2.3667e-05,0
2.091,3.1388e-05,0
2.0915,4.9515e-05,0
2.092,6.2104e-05,0
2.0925,4.448e-05,0
2.093,8.7282e-06,0
2.0935,-1.8128e-05,0
2.094,-4.0955e-05,0
2.0945,-7.0161e-05,0
2.095,-8.1407e-05,0
2.0955,-5.5726e-05,0
2.096,-2.2324e-05,0
2.0965,6.5461e-06,0
2.097,2.9206e-05,0
2.0975,3.7095e-05,0
2.098,4.4648e-05,0
2.0985,6.1936e-05,0
2.099,6.4622e-05,0
2.0995,5.8915e-05,0
2.1,6.3615e-05,0
2.1005,6.5629e-05,0
2.101,5.7572e-05,0
2.1015,4.8005e-05,0
2.102,4.3473e-05,0
2.1025,4.3809e-05,0
2.103,4.448e-05,0
2.1035,4.6159e-05,0
2.104,5.2033e-05,0
2.1045,5.7237e-05,0
2.105,5.0187e-05,0
2.1055,2.6688e-05,0
2.106,-1.3428e-06,0
2.1065,-2.0813e-05,0
2.107,-2.0981e-05,0
2.1075,-1.2757e-05,0
2.108,2.5177e-06,0
2.1085,3.6088e-05,0
2.109,6.2272e-05,0
2.1095,7.6707e-05,0
2.11,8.5603e-05,0
2.1105,7.6875e-05,0
2.111,6.4958e-05,0
2.1115,7.335e-05,0
2.112,7.9728e-05,0
2.1125,7.57e-05,0
2.113,7.2175e-05,0
2.1135,6.7979e-05,0
2.114,6.6636e-05,0
2.1145,6.6636e-05,0
2.115,6.3279e-05,0
2.1155,5.8412e-05,0
2.116,5.7572e-05,0
2.1165,5.4215e-05,0
2.117,4.7669e-05,0
2.1175,3.9109e-05,0
2.118,3.4409e-05,0
2.1185,3.4073e-05,0
2.119,2.9038e-05,0
2.1195,1.7288e-05,0
2.12,2.5177e-06,0
2.1205,-1.7792e-05,0
2.121,-3.1388e-05,0
2.1215,-2.9374e-05,0
2.122,-2.6688e-05,0
2.1225,-2.5681e-05,0
2.123,-1.6449e-05,0
2.1235,-1.091e-05,0
2.124,-7.7211e-06,0
2.1245,-3.5248e-06,0
2.125,-9.5674e-06,0
2.1255,-1.5274e-05,0
2.126,-1.2085e-05,0
2.1265,-5.2033e-06,0
2.127,-5.035e-07,0
2.1275,-1.6785e-06,0
2.128,-5.035e-07,0
2.1285,2.8534e-06,0
2.129,2.182e-06,0
2.1295,-6.2104e-06,0
2.13,-1.0407e-05,0
2.1305,-8.2246e-06,0
2.131,-3.6927e-06,0
2.1315,-8.392e-07,0
2.132,1.6785e-06,0
2.1325,-8.392e-07,0
2.133,-3.1891e-06,0
2.1335,-5.0355e-06,0
2.134,-1.8463e-06,0
2.1345,1.1246e-05,0
2.135,1.8463e-05,0
2.1355,1.9806e-05,0
2.136,2.6688e-05,0
2.1365,3.0381e-05,0
2.137,2.887e-05,0
2.1375,3.0716e-05,0
2.138,2.5177e-05,0
2.1385,1.326e-05,0
2.139,1.8463e-06,0
2.1395,-8.0568e-06,0
2.14,-2.0142e-05,0
2.1405,-3.1556e-05,0
2.141,-4.1123e-05,0
2.1415,-5.1362e-05,0
2.142,-5.8915e-05,0
2.1425,-5.6733e-05,0
2.143,-4.6159e-05,0
2.1435,-3.2563e-05,0
2.144,-1.3932e-05,0
2.1445,5.539e-06,0
2.145,1.6281e-05,0
2.1455,1.9303e-05,0
2.146,2.8702e-05,0
2.1465,3.6759e-05,0
2.147,3.5416e-05,0
2.1475,3.5584e-05,0
2.148,3.6759e-05,0
2.1485,3.5752e-05,0
2.149,3.3234e-05,0
2.1495,2.0646e-05,0
2.15,7.7211e-06,0
2.1505,9.5674e-06,0
2.151,1.4939e-05,0
2.1515,2.0981e-05,0
2.152,3.743e-05,0
2.1525,5.5222e-05,0
2.153,6.8147e-05,0
2.1535,7.335e-05,0
2.154,7.3014e-05,0
2.1545,7.6875e-05,0
2.155,7.8721e-05,0
2.1555,6.6133e-05,0
2.156,3.9445e-05,0
2.1565,6.2104e-06,0
2.157,-2.8367e-05,0
2.1575,-6.0594e-05,0
2.158,-7.7378e-05,0
2.1585,-6.9322e-05,0
2.159,-3.9277e-05,0
2.1595,-5.8747e-06,0
2.16,2.3331e-05,0
2.1605,5.2537e-05,0
2.161,6.63e-05,0
2.1615,7.7378e-05,0
2.162,9.8527e-05,0
2.1625,0.00011263,0
2.163,0.0001237,0
2.1635,0.0001368,0
2.164,0.00013747,0
2.1645,0.00012807,0
2.165,0.00012186,0
2.1655,0.00011582,0
2.166,0.00010726,0
2.1665,9.5506e-05,0
2.167,8.1071e-05,0
2.1675,6.4286e-05,0
2.168,5.0858e-05,0
2.1685,4.5823e-05,0
2.169,4.6159e-05,0
2.1695,4.8844e-05,0
2.17,4.0116e-05,0
2.1705,1.4099e-05,0
2.171,-1.1582e-05,0
2.1715,-2.9709e-05,0
2.172,-3.9277e-05,0
2.1725,-5.0523e-05,0
2.173,-6.5293e-05,0
2.1735,-6.009e-05,0
2.174,-5.1362e-05,0
2.1745,-4.3809e-05,0
2.175,-3.2563e-05,0
2.1755,-3.0045e-05,0
2.176,-3.0716e-05,0
2.1765,-2.3331e-05,0
2.177,-2.2156e-05,0
2.1775,-2.3331e-05,0
2.178,-9.0639e-06,0
2.1785,1.561e-05,0
2.179,3.5416e-05,0
2.1795,4.6662e-05,0
2.18,4.9851e-05,0
2.1805,5.2537e-05,0
2.181,5.2201e-05,0
2.1815,4.9515e-05,0
2.182,4.9348e-05,0
2.1825,5.2872e-05,0
2.183,5.5894e-05,0
2.1835,5.6062e-05,0
2.184,5.153e-05,0
2.1845,3.9612e-05,0
2.185,3.0381e-05,0
2.1855,2.4338e-05,0
2.186,1.5946e-05,0
2.1865,8.2246e-06,0
2.187,-3.8605e-06,0
2.1875,-1.1582e-05,0
2.188,-7.5532e-06,0
2.1885,-1.1414e-05,0
2.189,-2.5681e-05,0
2.1895,-3.4409e-05,0
2.19,-3.8773e-05,0
2.1905,-4.0619e-05,0
2.191,-3.9277e-05,0
2.1915,-4.2466e-05,0
2.192,-3.7095e-05,0
2.1925,-2.5681e-05,0
2.193,-2.3163e-05,0
2.1935,-3.3738e-05,0
2.194,-4.5823e-05,0
2.1945,-4.5823e-05,0
2.195,-3.508e-05,0
2.1955,-1.6785e-05,0
2.196,-8.896e-06,0
2.1965,-2.4506e-05,0
2.197,-4.3137e-05,0
2.1975,-4.3641e-05,0
2.198,-1.9303e-05,0
2.1985,7.0497e-06,0
2.199,1.5274e-05,0
2.1995,2.5177e-05,0
2.2,3.8941e-05,0
2.2005,5.3208e-05,0
2.201,6.9322e-05,0
2.2015,7.6707e-05,0
2.202,7.7714e-05,0
2.2025,7.57e-05,0
2.203,6.9657e-05,0
2.2035,7.0664e-05,0
2.204,8.0903e-05,0
2.2045,8.7114e-05,0
2.205,8.7785e-05,0
2.2055,8.8457e-05,0
2.206,9.5842e-05,0
2.2065,0.00011464,0
2.207,0.00012924,0
2.2075,0.00013277,0
2.208,0.00013378,0
2.2085,0.00013143,0
2.209,0.00012236,0
2.2095,0.0001086,0
2.21,9.2821e-05,0
2.2105,7.5029e-05,0
2.211,5.623e-05,0
2.2115,3.6759e-05,0
2.212,1.326e-05,0
2.2125,-1.7121e-05,0
2.213,-5.4719e-05,0
2.2135,-7.805e-05,0
2.214,-7.8889e-05,0
2.2145,-8.4596e-05,0
2.215,-8.6107e-05,0
2.2155,-6.6636e-05,0
2.216,-4.5487e-05,0
2.2165,-2.6352e-05,0
2.217,1.3428e-06,0
2.2175,3.0716e-05,0
2.218,4.3809e-05,0
2.2185,4.4816e-05,0
2.219,4.9851e-05,0
2.2195,5.8915e-05,0
2.22,6.0594e-05,0
2.2205,5.2033e-05,0
2.221,4.2466e-05,0
2.2215,3.4745e-05,0
2.222,3.2563e-05,0
2.2225,3.0884e-05,0
2.223,2.0646e-05,0
2.2235,7.5532e-06,0
2.224,4.5319e-06,0
2.2245,8.2246e-06,0
2.225,1.2421e-05,0
2.2255,1.9974e-05,0
2.226,1.9806e-05,0
2.2265,1.6281e-05,0
2.227,1.947e-05,0
2.2275,2.1317e-05,0
2.228,2.7527e-05,0
2.2285,4.3305e-05,0
2.229,4.9515e-05,0
2.2295,4.683e-05,0
2.23,3.5752e-05,0
2.2305,1.1246e-05,0
2.231,-1.4603e-05,0
2.2315,-2.7192e-05,0
2.232,-3.508e-05,0
2.2325,-4.5319e-05,0
2.233,-5.2537e-05,0
2.2335,-5.153e-05,0
2.234,-3.8437e-05,0
2.2345,-1.8631e-05,0
2.235,-7.7211e-06,0
2.2355,-1.8967e-05,0
2.236,-4.8173e-05,0
2.2365,-6.7643e-05,0
2.237,-6.5629e-05,0
2.2375,-6.1936e-05,0
2.238,-6.1433e-05,0
2.2385,-5.5726e-05,0
2.239,-5.388e-05,0
2.2395,-6.0761e-05,0
2.24,-7.3518e-05,0
2.2405,-8.6946e-05,0
2.241,-8.275e-05,0
2.2415,-5.1194e-05,0
2.242,-1.2924e-05,0
2.2425,2.5345e-05,0
2.243,5.9419e-05,0
2.2435,8.2918e-05,0
2.244,9.6513e-05,0
2.2445,0.00010037,0
2.245,0.00010272,0
2.2455,0.00011061,0
2.246,0.00012622,0
2.2465,0.00013613,0
2.247,0.00013545,0
2.2475,0.00013277,0
2.248,0.0001331,0
2.2485,0.00012169,0
2.249,9.3996e-05,0
2.2495,6.7308e-05,0
2.25,5.8915e-05,0
2.2505,5.8747e-05,0
2.251,5.9587e-05,0
2.2515,6.8482e-05,0
2.252,6.9657e-05,0
2.2525,6.3279e-05,0
2.253,6.1601e-05,0
2.2535,5.4887e-05,0
2.254,4.8005e-05,0
2.2545,3.8437e-05,0
2.255,1.9974e-05,0
2.2555,1.2589e-05,0
2.256,3.1891e-05,0
2.2565,5.5558e-05,0
2.257,6.0594e-05,0
2.2575,5.8579e-05,0
2.258,6.7475e-05,0
2.2585,8.2414e-05,0
2.259,9.1814e-05,0
2.2595,8.4764e-05,0
2.26,6.1433e-05,0
2.2605,3.8102e-05,0
2.261,2.2324e-05,0
2.2615,1.1917e-05,0
2.262,5.0355e-06,0
2.2625,-2.182e-06,0
2.263,-5.539e-06,0
2.2635,-1.0407e-05,0
2.264,-1.4603e-05,0
2.2645,-9.5674e-06,0
2.265,-6.714e-06,0
2.2655,-6.8818e-06,0
2.266,-6.3783e-06,0
2.2665,-1.326e-05,0
2.267,-2.0646e-05,0
2.2675,-1.8631e-05,0
2.268,-1.7288e-05,0
2.2685,-1.7792e-05,0
2.269,-1.5946e-05,0
2.2695,-1.8296e-05,0
2.27,-2.3331e-05,0
2.2705,-2.2492e-05,0
2.271,-1.6449e-05,0
2.2715,-1.2253e-05,0
2.272,-1.2085e-05,0
2.2725,-1.4603e-05,0
2.273,-1.947e-05,0
2.2735,-2.9709e-05,0
2.274,-4.1962e-05,0
2.2745,-5.5558e-05,0
2.275,-5.9922e-05,0
2.2755,-4.9515e-05,0
2.276,-3.3066e-05,0
2.2765,-3.0381e-05,0
2.277,-3.743e-05,0
2.2775,-3.1052e-05,0
2.278,-1.796e-05,0
2.2785,-7.2175e-06,0
2.279,1.1917e-05,0
2.2795,3.0045e-05,0
2.28,4.1795e-05,0
2.2805,4.9348e-05,0
2.281,4.5487e-05,0
2.2815,4.1962e-05,0
2.282,4.5487e-05,0
2.2825,4.3473e-05,0
2.283,3.6759e-05,0
2.2835,3.2059e-05,0
2.284,2.9038e-05,0
2.2845,2.8367e-05,0
2.285,3.0213e-05,0
2.2855,3.0045e-05,0
2.286,2.6017e-05,0
2.2865,2.5681e-05,0
2.287,3.5416e-05,0
2.2875,3.8773e-05,0
2.288,2.4002e-05,0
2.2885,3.1891e-06,0
2.289,-8.896e-06,0
2.2895,-1.9135e-05,0
2.29,-2.6352e-05,0
2.2905,-2.8534e-05,0
2.291,-3.5584e-05,0
2.2915,-5.5726e-05,0
2.292,-8.0232e-05,0
2.2925,-9.4499e-05,0
2.293,-8.4764e-05,0
2.2935,-6.2944e-05,0
2.294,-5.5726e-05,0
2.2945,-5.3208e-05,0
2.295,-5.0523e-05,0
2.2955,-4.8173e-05,0
2.296,-4.1459e-05,0
2.2965,-3.1052e-05,0
2.297,-1.4939e-05,0
2.2975,6.3783e-06,0
2.298,3.1891e-05,0
2.2985,6.5629e-05,0
2.299,0.00010961,0
2.2995,0.00014586,0
2.3,0.00015761,0
2.3005,0.00015677,0
2.301,0.00015946,0
2.3015,0.00016634,0
2.302,0.00017406,0
2.3025,0.00017423,0
2.303,0.00016416,0
2.3035,0.00016063,0
2.304,0.00014972,0
2.3045,0.00013075,0
2.305,0.0001237,0
2.3055,0.00011867,0
2.306,0.00011699,0
2.3065,0.00011934,0
2.307,9.4667e-05,0
2.3075,5.3544e-05,0
2.308,3.1556e-05,0
2.3085,2.7359e-05,0
2.309,2.3331e-05,0
2.3095,1.3932e-05,0
2.31,8.896e-06,0
2.3105,2.4002e-05,0
2.311,5.3544e-05,0
2.3115,8.3085e-05,0
2.312,9.2989e-05,0
2.3125,8.4932e-05,0
2.313,7.9393e-05,0
2.3135,8.5771e-05,0
2.314,9.5171e-05,0
2.3145,9.0639e-05,0
2.315,7.2007e-05,0
2.3155,4.4144e-05,0
2.316,1.9303e-05,0
2.3165,6.5461e-06,0
2.317,-1.0575e-05,0
2.3175,-2.9374e-05,0
2.318,-4.0452e-05,0
2.3185,-5.4215e-05,0
2.319,-7.2343e-05,0
2.3195,-8.3757e-05,0
2.32,-0.00010155,0
2.3205,-0.00011968,0
2.321,-0.00012236,0
2.3215,-0.00011582,0
2.322,-0.00010356,0
2.3225,-8.661e-05,0
2.323,-7.1336e-05,0
2.3235,-5.8244e-05,0
2.324,-4.3137e-05,0
2.3245,-2.7863e-05,0
2.325,-2.1317e-05,0
2.3255,-2.4674e-05,0
2.326,-3.3402e-05,0
2.3265,-3.9445e-05,0
2.327,-3.8437e-05,0
2.3275,-3.2563e-05,0
2.328,-1.8967e-05,0
2.3285,-4.6998e-06,0
2.329,-1.1078e-05,0
2.3295,-3.6423e-05,0
2.33,-7.2175e-05,0
2.3305,-0.00010709,0
2.331,-0.00012522,0
2.3315,-0.00012538,0
2.332,-0.00010709,0
2.3325,-7.7714e-05,0
2.333,-5.5222e-05,0
2.3335,-2.5849e-05,0
2.334,1.7288e-05,0
2.3345,6.0929e-05,0
2.335,9.1142e-05,0
2.3355,0.00010726,0
2.336,0.00011766,0
2.3365,0.0001279,0
2.337,0.00013848,0
2.3375,0.00014603,0
2.338,0.00014687,0
2.3385,0.00013663,0
2.339,0.0001227,0
2.3395,0.00011766,0
2.34,0.00012337,0
2.3405,0.00013613,0
2.341,0.00014083,0
2.3415,0.00012186,0
2.342,8.3421e-05,0
2.3425,5.0858e-05,0
2.343,2.3331e-05,0
2.3435,4.5319e-06,0
2.344,5.035e-07,0
2.3445,5.035e-07,0
2.345,1.1246e-05,0
2.3455,4.2466e-05,0
2.346,7.0161e-05,0
2.3465,8.9128e-05,0
2.347,0.00010121,0
2.3475,0.00010256,0
2.348,9.7856e-05,0
2.3485,8.7785e-05,0
2.349,7.5532e-05,0
2.3495,6.4286e-05,0
2.35,5.4215e-05,0
2.3505,4.6159e-05,0
2.351,4.3977e-05,0
2.3515,4.3977e-05,0
2.352,4.0116e-05,0
2.3525,3.1388e-05,0
2.353,2.5345e-05,0
2.3535,2.266e-05,0
2.354,2.3499e-05,0
2.3545,1.7288e-05,0
2.355,-5.035e-07,0
2.3555,-1.1917e-05,0
2.356,-2.1988e-05,0
2.3565,-2.7695e-05,0
2.357,-1.8463e-05,0
2.3575,-1.4099e-05,0
2.358,-1.947e-05,0
2.3585,-2.182e-05,0
2.359,-2.5513e-05,0
2.3595,-2.7695e-05,0
2.36,-2.652e-05,0
2.3605,-3.1556e-05,0
2.361,-4.3809e-05,0
2.3615,-4.5151e-05,0
2.362,-3.2059e-05,0
2.3625,-2.7359e-05,0
2.363,-4.1291e-05,0
2.3635,-5.4048e-05,0
2.364,-5.0187e-05,0
2.3645,-3.5752e-05,0
2.365,-1.8128e-05,0
2.3655,-5.8747e-06,0
2.366,2.5177e-06,0
2.3665,6.2104e-06,0
2.367,0,0
2.3675,-1.3932e-05,0
2.368,-2.9038e-05,0
2.3685,-3.5248e-05,0
2.369,-4.213e-05,0
2.3695,-6.4118e-05,0
2.37,-9.4163e-05,0
2.3705,-0.00011934,0
2.371,-0.00011498,0
2.3715,-7.7714e-05,0
2.372,-4.3809e-05,0
2.3725,-2.1653e-05,0
2.373,-4.8676e-06,0
2.3735,3.8605e-06,0
2.374,1.8967e-05,0
2.3745,4.3977e-05,0
2.375,6.3447e-05,0
2.3755,7.3014e-05,0
2.376,8.0232e-05,0
2.3765,8.3757e-05,0
2.377,8.04e-05,0
2.3775,7.7714e-05,0
2.378,8.3757e-05,0
2.3785,9.2485e-05,0
2.379,9.4667e-05,0
2.3795,9.0471e-05,0
2.38,9.0135e-05,0
2.3805,8.8792e-05,0
2.381,7.9057e-05,0
2.3815,6.3951e-05,0
2.382,5.1865e-05,0
2.3825,5.9922e-05,0
2.383,8.3757e-05,0
2.3835,9.3828e-05,0
2.384,9.6178e-05,0
2.3845,0.00010457,0
2.385,0.0001044,0
2.3855,9.5171e-05,0
2.386,8.8457e-05,0
2.3865,7.8721e-05,0
2.387,7.2007e-05,0
2.3875,6.8986e-05,0
2.388,7.2007e-05,0
2.3885,7.3686e-05,0
2.389,6.6972e-05,0
2.3895,4.918e-05,0
2.39,2.5345e-05,0
2.3905,9.5674e-06,0
2.391,1.6785e-06,0
2.3915,-1.0575e-05,0
2.392,-2.5849e-05,0
2.3925,-3.3066e-05,0
2.393,-3.5248e-05,0
2.3935,-5.3544e-05,0
2.394,-8.0064e-05,0
2.3945,-8.5435e-05,0
2.395,-7.4861e-05,0
2.3955,-6.4286e-05,0
2.396,-6.009e-05,0
2.3965,-6.9657e-05,0
2.397,-7.5364e-05,0
2.3975,-5.2033e-05,0
2.398,-1.8967e-05,0
2.3985,1.091e-05,0
2.399,3.6088e-05,0
2.3995,5.2201e-05,0
2.4,6.5293e-05,0
2.4005,7.7043e-05,0
2.401,7.6371e-05,0
2.4015,6.5293e-05,0
2.402,5.6901e-05,0
2.4025,5.2705e-05,0
2.403,5.2033e-05,0
2.4035,5.4383e-05,0
2.404,5.6901e-05,0
2.4045,7.0161e-05,0
2.405,8.8792e-05,0
2.4055,8.9967e-05,0
2.406,7.2679e-05,0
2.4065,4.4144e-05,0
2.407,2.0981e-05,0
2.4075,2.0981e-05,0
2.408,2.3163e-05,0
2.4085,1.9806e-05,0
2.409,2.1317e-05,0
2.4095,1.5946e-05,0
2.41,4.3641e-06,0
2.4105,-3.0213e-06,0
2.411,-1.1246e-05,0
2.4115,-1.5946e-05,0
2.412,-8.896e-06,0
2.4125,0,0
2.413,-6.714e-07,0
2.4135,-1.0239e-05,0
2.414,-1.5274e-05,0
2.4145,-1.0239e-05,0
2.415,-2.0142e-06,0
2.4155,6.2104e-06,0
2.416,4.3641e-06,0
2.4165,-1.947e-05,0
2.417,-4.8844e-05,0
2.4175,-6.7979e-05,0
2.418,-6.8986e-05,0
2.4185,-5.7237e-05,0
2.419,-4.3305e-05,0
2.4195,-4.1795e-05,0
2.42,-4.5319e-05,0
2.4205,-3.7095e-05,0
2.421,-2.0981e-05,0
2.4215,1.8463e-06,0
2.422,2.6017e-05,0
2.4225,3.4745e-05,0
2.423,3.3402e-05,0
2.4235,4.1459e-05,0
2.424,4.5151e-05,0
2.4245,4.7333e-05,0
2.425,5.5726e-05,0
2.4255,6.4958e-05,0
2.426,7.9896e-05,0
2.4265,9.9199e-05,0
2.427,0.000118,0
2.4275,0.00012454,0
2.428,9.6513e-05,0
2.4285,4.6494e-05,0
2.429,5.7069e-06,0
2.4295,-1.1582e-05,0
2.43,-7.3854e-06,0
2.4305,5.8747e-06,0
2.431,1.4435e-05,0
2.4315,9.5674e-06,0
2.432,9.9031e-06,0
2.4325,2.266e-05,0
2.433,3.3906e-05,0
2.4335,5.0858e-05,0
2.434,6.63e-05,0
2.4345,5.6901e-05,0
2.435,1.561e-05,0
2.4355,-4.213e-05,0
2.436,-7.8889e-05,0
2.4365,-7.3014e-05,0
2.437,-4.5823e-05,0
2.4375,-1.4267e-05,0
2.438,1.6617e-05,0
2.4385,5.5894e-05,0
2.439,0.00010037,0
2.4395,0.00013008,0
2.44,0.00013864,0
2.4405,0.00013478,0
2.441,0.00012522,0
2.4415,0.00010658,0
2.442,8.7617e-05,0
2.4425,7.9057e-05,0
2.443,7.5029e-05,0
2.4435,6.3951e-05,0
2.444,4.448e-05,0
2.4445,2.2995e-05,0
2.445,4.3641e-06,0
2.4455,-1.3092e-05,0
2.446,-1.6785e-05,0
2.4465,2.6856e-06,0
2.447,1.5946e-05,0
2.4475,7.5532e-06,0
2.448,-4.1962e-06,0
2.4485,-1.7792e-05,0
2.449,-3.3402e-05,0
2.4495,-3.5752e-05,0
2.45,-2.9206e-05,0
2.4505,-9.5674e-06,0
2.451,2.4506e-05,0
2.4515,4.4816e-05,0
2.452,4.213e-05,0
2.4525,3.2395e-05,0
2.453,3.1891e-05,0
2.4535,4.6326e-05,0
2.454,6.865e-05,0
2.4545,8.426e-05,0
2.455,9.0135e-05,0
2.4555,8.5435e-05,0
2.456,7.8721e-05,0
2.4565,7.6204e-05,0
2.457,5.7908e-05,0
2.4575,2.6352e-05,0
2.458,3.357e-07,0
2.4585,-1.8967e-05,0
2.459,-2.7192e-05,0
2.4595,-2.652e-05,0
2.46,-3.3066e-05,0
2.4605,-4.0787e-05,0
2.461,-4.1795e-05,0
2.4615,-3.9109e-05,0
2.462,-2.9709e-05,0
2.4625,-1.6785e-05,0
2.463,-2.7192e-05,0
2.4635,-4.6494e-05,0
2.464,-4.4816e-05,0
2.4645,-3.0213e-05,0
2.465,-2.1988e-05,0
2.4655,-2.4338e-05,0
2.466,-3.0884e-05,0
2.4665,-3.3738e-05,0
2.467,-2.7863e-05,0
2.4675,-1.2757e-05,0
2.468,8.896e-06,0
2.4685,2.7695e-05,0
2.469,3.5416e-05,0
2.4695,2.9206e-05,0
2.47,1.7121e-05,0
2.4705,1.3428e-05,0
2.471,2.2828e-05,0
2.4715,3.3738e-05,0
2.472,4.0284e-05,0
2.4725,4.8508e-05,0
2.473,5.153e-05,0
2.4735,4.4648e-05,0
2.474,3.8102e-05,0
2.4745,2.6688e-05,0
2.475,1.796e-05,0
2.4755,1.5778e-05,0
2.476,9.2317e-06,0
2.4765,9.7353e-06,0
2.477,1.9638e-05,0
2.4775,1.9806e-05,0
2.478,1.1078e-05,0
2.4785,3.8605e-06,0
2.479,2.5177e-06,0
2.4795,-1.5106e-06,0
2.48,-1.947e-05,0
2.4805,-3.7766e-05,0
2.481,-3.743e-05,0
2.4815,-3.6423e-05,0
2.482,-4.5823e-05,0
2.4825,-5.069e-05,0
2.483,-3.1891e-05,0
2.4835,3.1891e-06,0
2.484,3.4745e-05,0
2.4845,4.5487e-05,0
2.485,4.8173e-05,0
2.4855,6.4286e-05,0
2.486,8.0735e-05,0
2.4865,8.5771e-05,0
2.487,8.9799e-05,0
2.4875,9.1646e-05,0
2.488,9.7185e-05,0
2.4885,0.000118,0
2.489,0.00013545,0
2.4895,0.00014217,0
2.49,0.00014553,0
2.4905,0.00012908,0
2.491,8.9464e-05,0
2.4915,5.3544e-05,0
2.492,3.1052e-05,0
2.4925,1.1749e-05,0
2.493,-1.8463e-06,0
2.4935,-7.8889e-06,0
2.494,-6.2104e-06,0
2.4945,1.4771e-05,0
2.495,5.388e-05,0
2.4955,7.4021e-05,0
2.496,6.5629e-05,0
2.4965,4.9515e-05,0
2.497,4.1291e-05,0
2.4975,3.7095e-05,0
2.498,2.887e-05,0
2.4985,2.0646e-05,0
2.499,1.8463e-06,0
2.4995,-2.4674e-05,0
2.5,-4.1291e-05,0
2.5005,-5.388e-05,0
2.501,-5.5055e-05,0
2.5015,-3.7766e-05,0
2.502,-2.031e-05,0
2.5025,-5.035e-07,0
2.503,1.8463e-05,0
2.5035,1.8296e-05,0
2.504,-1.8463e-06,0
2.5045,-2.5849e-05,0
2.505,-2.9542e-05,0
2.5055,-6.8818e-06,0
2.506,2.652e-05,0
2.5065,4.7501e-05,0
2.507,5.623e-05,0
2.5075,6.0929e-05,0
2.508,6.1433e-05,0
2.5085,5.5222e-05,0
2.509,4.7333e-05,0
2.5095,4.2802e-05,0
2.51,4.1459e-05,0
2.5105,3.4073e-05,0
2.511,1.9974e-05,0
2.5115,1.7792e-05,0
2.512,1.7288e-05,0
2.5125,1.4435e-05,0
2.513,1.2421e-05,0
2.5135,9.0639e-06,0
2.514,7.7211e-06,0
2.5145,1.5106e-05,0
2.515,2.1317e-05,0
2.5155,1.796e-05,0
2.516,1.678e-07,0
2.5165,-2.8367e-05,0
2.517,-5.388e-05,0
2.5175,-6.7308e-05,0
2.518,-7.0497e-05,0
2.5185,-6.9993e-05,0
2.519,-6.8147e-05,0
2.5195,-5.9587e-05,0
2.52,-4.8844e-05,0
2.5205,-3.4073e-05,0
2.521,-1.5946e-05,0
2.5215,1.678e-07,0
2.522,1.1414e-05,0
2.5225,1.796e-05,0
2.523,2.2995e-05,0
2.5235,2.2324e-05,0
2.524,2.3667e-05,0
2.5245,3.743e-05,0
2.525,3.8773e-05,0
2.5255,2.4002e-05,0
2.526,1.6449e-05,0
2.5265,1.4267e-05,0
2.527,1.4603e-05,0
2.5275,1.6953e-05,0
2.528,7.8889e-06,0
2.5285,-1.6785e-06,0
2.529,1.8463e-06,0
2.5295,7.8889e-06,0
2.53,5.539e-06,0
2.5305,0,0
2.531,3.357e-07,0
2.5315,5.2033e-06,0
2.532,1.091e-05,0
2.5325,1.8296e-05,0
2.533,2.5009e-05,0
2.5335,3.3402e-05,0
2.534,4.448e-05,0
2.5345,5.5558e-05,0
2.535,5.8244e-05,0
2.5355,4.4144e-05,0
2.536,3.4409e-05,0
2.5365,4.8844e-05,0
2.537,7.8889e-05,0
2.5375,8.7785e-05,0
2.538,5.5726e-05,0
2.5385,2.2324e-05,0
2.539,2.3667e-05,0
2.5395,4.3305e-05,0
2.54,6.5293e-05,0
2.5405,8.0232e-05,0
2.541,7.6707e-05,0
2.5415,7.2679e-05,0
2.542,7.6371e-05,0
2.5425,7.6539e-05,0
2.543,7.3014e-05,0
2.5435,6.7643e-05,0
2.544,6.4622e-05,0
2.5445,5.7237e-05,0
2.545,4.7501e-05,0
2.5455,4.0619e-05,0
2.546,3.0045e-05,0
2.5465,2.3331e-05,0
2.547,3.2731e-05,0
2.5475,5.4887e-05,0
2.548,8.191e-05,0
2.5485,9.4163e-05,0
2.549,8.8457e-05,0
2.5495,7.1e-05,0
2.55,4.4816e-05,0
2.5505,1.9638e-05,0
2.551,-3.357e-07,0
2.5515,-1.0407e-05,0
2.552,-1.5274e-05,0
2.5525,-1.561e-05,0
2.553,-7.8889e-06,0
2.5535,-1.6785e-06,0
2.554,-2.2995e-05,0
2.5545,-5.7404e-05,0
2.555,-7.1672e-05,0
2.5555,-6.009e-05,0
2.556,-4.1291e-05,0
2.5565,-2.9038e-05,0
2.557,-2.6184e-05,0
2.5575,-3.0381e-05,0
2.558,-3.3234e-05,0
2.5585,-2.3331e-05,0
2.559,-3.357e-06,0
2.5595,1.0575e-05,0
2.56,1.8799e-05,0
2.5605,3.1891e-05,0
2.561,4.5991e-05,0
2.5615,5.3208e-05,0
2.562,5.8076e-05,0
2.5625,6.1601e-05,0
2.563,6.2944e-05,0
2.5635,6.5629e-05,0
2.564,6.0258e-05,0
2.5645,4.3641e-05,0
2.565,1.9974e-05,0
2.5655,-7.2175e-06,0
2.566,-1.9974e-05,0
2.5665,-5.2033e-06,0
2.567,7.0497e-06,0
2.5675,5.2033e-06,0
2.568,7.7211e-06,0
2.5685,1.3596e-05,0
2.569,2.3499e-05,0
2.5695,3.9445e-05,0
2.57,5.388e-05,0
2.5705,5.8747e-05,0
2.571,5.7908e-05,0
2.5715,6.3951e-05,0
2.572,7.4021e-05,0
2.5725,7.6371e-05,0
2.573,6.5629e-05,0
2.5735,4.8005e-05,0
2.574,3.5248e-05,0
2.5745,3.1724e-05,0
2.575,3.7095e-05,0
2.5755,3.6423e-05,0
2.576,2.7863e-05,0
2.5765,2.887e-05,0
2.577,2.5849e-05,0
2.5775,1.5946e-05,0
2.578,9.2317e-06,0
2.5785,1.3428e-06,0
2.579,1.678e-07,0
2.5795,8.5603e-06,0
2.58,6.2104e-06,0
2.5805,-1.8463e-06,0
2.581,-1.2421e-05,0
2.5815,-2.7024e-05,0
2.582,-3.5752e-05,0
2.5825,-4.7837e-05,0
2.583,-6.6133e-05,0
2.5835,-8.2246e-05,0
2.584,-8.661e-05,0
2.5845,-8.1743e-05,0
2.585,-7.7043e-05,0
2.5855,-7.1e-05,0
2.586,-6.0929e-05,0
2.5865,-5.4551e-05,0
2.587,-4.9348e-05,0
2.5875,-3.2731e-05,0
2.588,-1.678e-07,0
2.5885,3.0045e-05,0
2.589,5.5222e-05,0
2.5895,8.2582e-05,0
2.59,0.00010037,0
2.5905,0.0001086,0
2.591,0.00012068,0
2.5915,0.00012605,0
2.592,0.00012488,0
2.5925,0.0001274,0
2.593,0.00011464,0
2.5935,8.9128e-05,0
2.594,7.5868e-05,0
2.5945,7.57e-05,0
2.595,7.2679e-05,0
2.5955,6.3615e-05,0
2.596,5.0858e-05,0
2.5965,3.0716e-05,0
2.597,6.5461e-06,0
2.5975,-1.0239e-05,0
2.598,-1.3932e-05,0
2.5985,-1.1917e-05,0
2.599,-1.3428e-05,0
2.5995,-1.7288e-05,0
2.6,-2.7863e-05,0
2.6005,-5.1698e-05,0
2.601,-6.7308e-05,0
2.6015,-6.7308e-05,0
2.602,-5.388e-05,0
2.6025,-2.3667e-05,0
2.603,-3.1891e-06,0
2.6035,-8.5603e-06,0
2.604,-1.326e-05,0
2.6045,-1.1917e-05,0
2.605,-9.5674e-06,0
2.6055,-4.1962e-06,0
2.606,-8.392e-07,0
2.6065,8.2246e-06,0
2.607,2.8031e-05,0
2.6075,4.4648e-05,0
2.608,5.153e-05,0
2.6085,5.7404e-05,0
2.609,6.5293e-05,0
2.6095,7.1504e-05,0
2.61,6.4286e-05,0
2.6105,4.683e-05,0
2.611,2.6352e-05,0
2.6115,4.6998e-06,0
2.612,-1.6785e-05,0
2.6125,-2.9038e-05,0
2.613,-2.9374e-05,0
2.6135,-2.031e-05,0
2.614,-5.035e-07,0
2.6145,1.6953e-05,0
2.615,2.6688e-05,0
2.6155,3.4241e-05,0
2.616,2.7695e-05,0
2.6165,1.7624e-05,0
2.617,1.9974e-05,0
2.6175,1.6449e-05,0
2.618,2.182e-06,0
2.6185,-1.5106e-06,0
2.619,5.2033e-06,0
2.6195,1.7288e-05,0
2.62,3.1556e-05,0
2.6205,4.1291e-05,0
2.621,4.5991e-05,0
2.6215,4.0116e-05,0
2.622,2.5345e-05,0
2.6225,1.796e-05,0
2.623,1.8631e-05,0
2.6235,1.8631e-05,0
2.624,1.561e-05,0
2.6245,1.4771e-05,0
2.625,1.6617e-05,0
2.6255,1.9974e-05,0
2.626,2.3163e-05,0
2.6265,2.6352e-05,0
2.627,3.0381e-05,0
2.6275,2.2995e-05,0
2.628,1.1582e-05,0
2.6285,1.561e-05,0
2.629,2.4674e-05,0
2.6295,3.8773e-05,0
2.63,4.8844e-05,0
2.6305,3.1724e-05,0
2.631,5.2033e-06,0
2.6315,-2.182e-06,0
2.632,-7.2175e-06,0
2.6325,-1.796e-05,0
2.633,-2.182e-05,0
2.6335,-1.7624e-05,0
2.634,-9.2317e-06,0
2.6345,-5.2033e-06,0
2.635,-1.1582e-05,0
2.6355,-1.8296e-05,0
2.636,-2.5681e-05,0
2.6365,-3.1724e-05,0
2.637,-2.0478e-05,0
2.6375,3.1891e-06,0
2.638,2.7359e-05,0
2.6385,5.1698e-05,0
2.639,7.4861e-05,0
2.6395,8.9799e-05,0
2.64,0.00010323,0
2.6405,0.00011397,0
2.641,0.00012102,0
2.6415,0.00012337,0
2.642,0.00011061,0
2.6425,9.6178e-05,0
2.643,9.5506e-05,0
2.6435,8.7617e-05,0
2.644,7.4021e-05,0
2.6445,7.2175e-05,0
2.645,7.4189e-05,0
2.6455,8.0568e-05,0
2.646,9.3828e-05,0
2.6465,0.00010306,0
2.647,0.00010491,0
2.6475,9.7185e-05,0
2.648,8.2918e-05,0
2.6485,6.7308e-05,0
2.649,5.3208e-05,0
2.6495,3.7262e-05,0
2.65,2.5681e-05,0
2.6505,2.4338e-05,0
2.651,1.7288e-05,0
2.6515,-1.091e-05,0
2.652,-4.6494e-05,0
2.6525,-6.7643e-05,0
2.653,-6.9993e-05,0
2.6535,-7.2343e-05,0
2.654,-7.6539e-05,0
2.6545,-6.5965e-05,0
2.655,-5.4551e-05,0
2.6555,-4.4984e-05,0
2.656,-3.357e-05,0
2.6565,-3.4409e-05,0
2.657,-3.2563e-05,0
2.6575,-8.3925e-06,0
2.658,8.7282e-06,0
2.6585,8.896e-06,0
2.659,1.1414e-05,0
2.6595,1.8799e-05,0
2.66,2.5681e-05,0
2.6605,2.7863e-05,0
2.661,3.508e-05,0
2.6615,3.7934e-05,0
2.662,2.7863e-05,0
2.6625,1.1749e-05,0
2.663,-2.0142e-06,0
2.6635,-3.5248e-06,0
2.664,9.0639e-06,0
2.6645,3.2395e-05,0
2.665,5.6397e-05,0
2.6655,7.3014e-05,0
2.666,7.6371e-05,0
2.6665,7.0664e-05,0
2.667,7.0329e-05,0
2.6675,7.7378e-05,0
2.668,7.2343e-05,0
2.6685,6.2608e-05,0
2.669,6.1265e-05,0
2.6695,5.3208e-05,0
2.67,3.508e-05,0
2.6705,2.5681e-05,0
2.671,2.1317e-05,0
2.6715,1.561e-05,0
2.672,1.561e-05,0
2.6725,2.2492e-05,0
2.673,2.8702e-05,0
2.6735,2.5681e-05,0
2.674,1.8967e-05,0
2.6745,1.6617e-05,0
2.675,1.796e-05,0
2.6755,2.0813e-05,0
2.676,1.8967e-05,0
2.6765,1.1078e-05,0
2.677,3.357e-07,0
2.6775,-6.0426e-06,0
2.678,-7.0497e-06,0
2.6785,-1.326e-05,0
2.679,-2.031e-05,0
2.6795,-2.9709e-05,0
2.68,-3.7934e-05,0
2.6805,-3.3066e-05,0
2.681,-3.5248e-05,0
2.6815,-5.0019e-05,0
2.682,-5.069e-05,0
2.6825,-4.5487e-05,0
2.683,-3.8773e-05,0
2.6835,-2.4674e-05,0
2.684,-1.7624e-05,0
2.6845,-1.8128e-05,0
2.685,-1.561e-05,0
2.6855,-6.2104e-06,0
2.686,9.9031e-06,0
2.6865,2.4506e-05,0
2.687,3.1388e-05,0
2.6875,3.5248e-05,0
2.688,3.9109e-05,0
2.6885,4.448e-05,0
2.689,5.5558e-05,0
2.6895,6.1936e-05,0
2.69,6.244e-05,0
2.6905,5.2537e-05,0
2.691,2.7359e-05,0
2.6915,-4.5319e-06,0
2.692,-2.7695e-05,0
2.6925,-4.1291e-05,0
2.693,-5.1865e-05,0
2.6935,-4.9515e-05,0
2.694,-3.978e-05,0
2.6945,-2.7192e-05,0
2.695,-1.3764e-05,0
2.6955,-1.5778e-05,0
2.696,-3.7095e-05,0
2.6965,-6.1769e-05,0
2.697,-7.956e-05,0
2.6975,-9.2485e-05,0
2.698,-9.9367e-05,0
2.6985,-0.00010172,0
2.699,-8.745e-05,0
2.6995,-4.7333e-05,0
2.7,3.8605e-06,0
2.7005,4.7669e-05,0
2.701,7.6539e-05,0
2.7015,9.8863e-05,0
2.702,0.00010994,0
2.7025,0.00011313,0
2.703,0.00011447,0
2.7035,0.00011733,0
2.704,0.00012471,0
2.7045,0.00013462,0
2.705,0.00015224,0
2.7055,0.00016533,0
2.706,0.00016768,0
2.7065,0.00017305,0
2.707,0.00017507,0
2.7075,0.00017372,0
2.708,0.00016634,0
2.7085,0.00014166,0
2.709,0.00011968,0
2.7095,0.00011044,0
2.71,9.1981e-05,0
2.7105,6.6972e-05,0
2.711,5.1194e-05,0
2.7115,3.6927e-05,0
2.712,1.8296e-05,0
2.7125,1.1749e-06,0
2.713,-1.2253e-05,0
2.7135,-2.1653e-05,0
2.714,-2.652e-05,0
2.7145,-2.3667e-05,0
2.715,-1.2253e-05,0
2.7155,5.2033e-06,0
2.716,2.031e-05,0
2.7165,2.7527e-05,0
2.717,2.2995e-05,0
2.7175,9.2317e-06,0
2.718,-3.8605e-06,0
2.7185,-1.2924e-05,0
2.719,-1.796e-05,0
2.7195,-1.1749e-05,0
2.72,-5.539e-06,0
2.7205,-5.2033e-06,0
2.721,-2.5177e-06,0
2.7215,-7.5532e-06,0
2.722,-1.4267e-05,0
2.7225,-1.0071e-05,0
2.723,-7.0497e-06,0
2.7235,-9.5674e-06,0
2.724,-6.8818e-06,0
2.7245,-4.5319e-06,0
2.725,-1.4939e-05,0
2.7255,-3.4745e-05,0
2.726,-4.5487e-05,0
2.7265,-5.153e-05,0
2.727,-6.8818e-05,0
2.7275,-8.1407e-05,0
2.728,-7.0832e-05,0
2.7285,-4.7837e-05,0
2.729,-2.7024e-05,0
2.7295,-7.2175e-06,0
2.73,4.1962e-06,0
2.7305,-6.714e-07,0
2.731,-7.3854e-06,0
2.7315,-9.5674e-06,0
2.732,-2.182e-06,0
2.7325,2.182e-06,0
2.733,-1.9303e-05,0
2.7335,-4.5319e-05,0
2.734,-5.388e-05,0
2.7345,-5.3712e-05,0
2.735,-4.4816e-05,0
2.7355,-2.9709e-05,0
2.736,-1.561e-05,0
2.7365,2.0142e-06,0
2.737,3.3234e-05,0
2.7375,7.6204e-05,0
2.738,0.00011565,0
2.7385,0.00013646,0
2.739,0.00014066,0
2.7395,0.00013948,0
2.74,0.00014083,0
2.7405,0.00015023,0
2.741,0.0001556,0
2.7415,0.0001556,0
2.742,0.00014553,0
2.7425,0.00011464,0
2.743,8.2246e-05,0
2.7435,6.6636e-05,0
2.744,6.4622e-05,0
2.7445,5.7237e-05,0
2.745,4.5823e-05,0
2.7455,3.3402e-05,0
2.746,1.678e-07,0
2.7465,-3.8102e-05,0
2.747,-5.2872e-05,0
2.7475,-5.8244e-05,0
2.748,-6.2608e-05,0
2.7485,-5.6062e-05,0
2.749,-4.7166e-05,0
2.7495,-4.3641e-05,0
2.75,-3.9109e-05,0
2.7505,-3.1891e-05,0
2.751,-2.7024e-05,0
2.7515,-2.4338e-05,0
2.752,-1.8967e-05,0
2.7525,-5.539e-06,0
2.753,1.1246e-05,0
2.7535,2.2995e-05,0
2.754,1.5946e-05,0
2.7545,-4.1962e-06,0
2.755,-2.8199e-05,0
2.7555,-3.9445e-05,0
2.756,-2.9374e-05,0
2.7565,-1.8128e-05,0
2.757,-2.7527e-05,0
2.7575,-6.3447e-05,0
2.758,-0.00011431,0
2.7585,-0.00013562,0
2.759,-0.00011598,0
2.7595,-6.5629e-05,0
2.76,-4.8676e-06,0
2.7605,3.2898e-05,0
2.761,5.1194e-05,0
2.7615,7.3686e-05,0
2.762,8.3757e-05,0
2.7625,9.2485e-05,0
2.763,0.00012068,0
2.7635,0.00015258,0
2.764,0.00017221,0
2.7645,0.00017977,0
2.765,0.00017171,0
2.7655,0.00015207,0
2.766,0.00013814,0
2.7665,0.00013948,0
2.767,0.00014217,0
2.7675,0.00014754,0
2.768,0.00016533,0
2.7685,0.00017557,0
2.769,0.00015727,0
2.7695,0.00011833,0
2.77,8.4428e-05,0
2.7705,5.7237e-05,0
2.771,3.4073e-05,0
2.7715,2.4002e-05,0
2.772,1.1582e-05,0
2.7725,-3.5248e-06,0
2.773,-6.3783e-06,0
2.7735,-8.5603e-06,0
2.774,-1.3596e-05,0
2.7745,-1.6281e-05,0
2.775,-2.8367e-05,0
2.7755,-4.3137e-05,0
2.776,-5.4551e-05,0
2.7765,-6.3279e-05,0
2.777,-6.5293e-05,0
2.7775,-6.479e-05,0
2.778,-6.1265e-05,0
2.7785,-4.9851e-05,0
2.779,-3.8102e-05,0
2.7795,-3.1052e-05,0
2.78,-3.1052e-05,0
2.7805,-4.7669e-05,0
2.781,-7.8889e-05,0
2.7815,-0.00010994,0
2.782,-0.00011783,0
2.7825,-9.987e-05,0
2.783,-7.0329e-05,0
2.7835,-4.9515e-05,0
2.784,-4.5319e-05,0
2.7845,-4.5487e-05,0
2.785,-3.8437e-05,0
2.7855,-1.5778e-05,0
2.786,1.326e-05,0
2.7865,2.4674e-05,0
2.787,6.2104e-06,0
2.7875,-3.508e-05,0
2.788,-7.4189e-05,0
2.7885,-7.57e-05,0
2.789,-3.3066e-05,0
2.7895,2.5345e-05,0
2.79,7.1839e-05,0
2.7905,0.00010692,0
2.791,0.00014183,0
2.7915,0.00017658,0
2.792,0.00020276,0
2.7925,0.00020897,0
2.793,0.00019487,0
2.7935,0.00017641,0
2.794,0.00016097,0
2.7945,0.00014754,0
2.795,0.00013814,0
2.7955,0.00012454,0
2.796,0.00010726,0
2.7965,9.2149e-05,0
2.797,8.6946e-05,0
2.7975,9.3156e-05,0
2.798,8.0064e-05,0
2.7985,4.9851e-05,0
2.799,2.8702e-05,0
2.7995,1.4267e-05,0
2.8,4.8676e-06,0
2.8005,-1.2924e-05,0
2.801,-4.4648e-05,0
2.8015,-6.0426e-05,0
2.802,-5.2033e-05,0
2.8025,-3.4409e-05,0
2.803,-1.1246e-05,0
2.8035,9.2317e-06,0
2.804,2.7359e-05,0
2.8045,4.7837e-05,0
2.805,6.1601e-05,0
2.8055,5.6565e-05,0
2.806,4.0452e-05,0
2.8065,3.6088e-05,0
2.807,4.1795e-05,0
2.8075,4.5823e-05,0
2.808,4.683e-05,0
2.8085,3.4073e-05,0
2.809,1.8463e-06,0
2.8095,-3.1052e-05,0
2.81,-4.4144e-05,0
2.8105,-3.7262e-05,0
2.811,-4.3809e-05,0
2.8115,-5.9251e-05,0
2.812,-6.009e-05,0
2.8125,-6.2608e-05,0
2.813,-6.6636e-05,0
2.8135,-6.2272e-05,0
2.814,-5.7908e-05,0
2.8145,-5.7908e-05,0
2.815,-5.2369e-05,0
2.8155,-4.2802e-05,0
2.816,-3.4073e-05,0
2.8165,-2.5009e-05,0
2.817,-1.8463e-05,0
2.8175,-1.2589e-05,0
2.818,-8.5603e-06,0
2.8185,-1.091e-05,0
2.819,-1.1246e-05,0
2.8195,-4.5319e-06,0
2.82,5.2033e-06,0
2.8205,1.0575e-05,0
2.821,1.0071e-05,0
2.8215,2.5177e-06,0
2.822,-7.8889e-06,0
2.8225,-2.1149e-05,0
2.823,-2.8534e-05,0
2.8235,-2.3331e-05,0
2.824,-1.7456e-05,0
2.8245,-1.4099e-05,0
2.825,-8.5603e-06,0
2.8255,-1.4099e-05,0
2.826,-2.2995e-05,0
2.8265,-1.5442e-05,0
2.827,-7.8889e-06,0
2.8275,-2.7359e-05,0
2.828,-6.9993e-05,0
2.8285,-9.987e-05,0
2.829,-9.4835e-05,0
2.8295,-6.7643e-05,0
2.83,-5.0019e-05,0
2.8305,-5.1194e-05,0
2.831,-3.4745e-05,0
2.8315,4.5319e-06,0
2.832,4.1123e-05,0
2.8325,6.865e-05,0
2.833,9.3828e-05,0
2.8335,0.00010323,0
2.834,0.00010071,0
2.8345,0.00010591,0
2.835,0.00011229,0
2.8355,0.00011246,0
2.836,0.000118,0
2.8365,0.00013126,0
2.837,0.00014083,0
2.8375,0.0001514,0
2.838,0.0001603,0
2.8385,0.0001378,0
2.839,9.2485e-05,0
2.8395,5.7237e-05,0
2.84,4.8844e-05,0
2.8405,8.2414e-05,0
2.841,0.00013277,0
2.8415,0.00016902,0
2.842,0.0001937,0
2.8425,0.00021015,0
2.843,0.00021669,0
2.8435,0.00021267,0
2.844,0.00019017,0
2.8445,0.00016013,0
2.845,0.0001321,0
2.8455,9.4163e-05,0
2.846,4.0619e-05,0
2.8465,-1.6785e-05,0
2.847,-6.6972e-05,0
2.8475,-9.836e-05,0
2.848,-0.00010709,0
2.8485,-0.0001039,0
2.849,-9.5171e-05,0
2.8495,-7.9225e-05,0
2.85,-6.9993e-05,0
2.8505,-7.1839e-05,0
2.851,-9.8527e-05,0
2.8515,-0.00014435,0
2.852,-0.00016231,0
2.8525,-0.00014066,0
2.853,-0.00011699,0
2.8535,-9.5171e-05,0
2.854,-6.7643e-05,0
2.8545,-4.6662e-05,0
2.855,-3.3066e-05,0
2.8555,-2.2492e-05,0
2.856,-5.7069e-06,0
2.8565,8.2246e-06,0
2.857,2.1317e-05,0
2.8575,4.1123e-05,0
2.858,6.949e-05,0
2.8585,9.5506e-05,0
2.859,0.0001133,0
2.8595,0.00012035,0
2.86,0.00012001,0
2.8605,0.00012471,0
2.861,0.00013462,0
2.8615,0.00014888,0
2.862,0.00016365,0
2.8625,0.00016365,0
2.863,0.0001331,0
2.8635,9.6178e-05,0
2.864,8.5435e-05,0
2.8645,8.2246e-05,0
2.865,7.7714e-05,0
2.8655,8.04e-05,0
2.866,9.0471e-05,0
2.8665,9.4667e-05,0
2.867,8.2414e-05,0
2.8675,5.5558e-05,0
2.868,3.3402e-05,0
2.8685,2.1988e-05,0
2.869,6.8818e-06,0
2.8695,-1.796e-05,0
2.87,-4.3809e-05,0
2.8705,-5.6062e-05,0
2.871,-5.4719e-05,0
2.8715,-4.2466e-05,0
2.872,-2.031e-05,0
2.8725,8.392e-07,0
2.873,8.7282e-06,0
2.8735,-5.8747e-06,0
2.874,-3.2395e-05,0
2.8745,-5.5222e-05,0
2.875,-5.7404e-05,0
2.8755,-3.9612e-05,0
2.876,-3.4745e-05,0
2.8765,-5.4719e-05,0
2.877,-7.3014e-05,0
2.8775,-7.4021e-05,0
2.878,-6.3279e-05,0
2.8785,-5.6901e-05,0
2.879,-5.8244e-05,0
2.8795,-4.5487e-05,0
2.88,-1.6953e-05,0
2.8805,1.0071e-05,0
2.881,2.8367e-05,0
2.8815,3.3402e-05,0
2.882,3.3234e-05,0
2.8825,4.0787e-05,0
2.883,4.8173e-05,0
2.8835,3.3402e-05,0
2.884,-2.182e-06,0
2.8845,-3.2898e-05,0
2.885,-4.3137e-05,0
2.8855,-3.8437e-05,0
2.886,-2.7527e-05,0
2.8865,-1.8967e-05,0
2.887,-1.2253e-05,0
2.8875,-9.9031e-06,0
2.888,-7.7211e-06,0
2.8885,1.678e-07,0
2.889,3.6927e-06,0
2.8895,6.2104e-06,0
2.89,8.2246e-06,0
2.8905,-5.035e-07,0
2.891,-5.8747e-06,0
2.8915,3.5248e-06,0
2.892,1.0407e-05,0
2.8925,2.0646e-05,0
2.893,3.9948e-05,0
2.8935,5.6565e-05,0
2.894,6.5629e-05,0
2.8945,6.9322e-05,0
2.895,4.9515e-05,0
2.8955,1.0575e-05,0
2.896,-1.8631e-05,0
2.8965,-2.0478e-05,0
2.897,-6.714e-06,0
2.8975,8.392e-07,0
2.898,-5.035e-07,0
2.8985,4.3641e-06,0
2.899,1.1749e-06,0
2.8995,-2.2324e-05,0
2.9,-4.5991e-05,0
2.9005,-5.0187e-05,0
2.901,-2.8702e-05,0
2.9015,2.0142e-06,0
2.902,1.0575e-05,0
2.9025,5.539e-06,0
2.903,9.7353e-06,0
2.9035,2.266e-05,0
2.904,5.1865e-05,0
2.9045,9.0135e-05,0
2.905,0.000118,0
2.9055,0.00014049,0
2.906,0.00016835,0
2.9065,0.00018782,0
2.907,0.00017507,0
2.9075,0.0001321,0
2.908,9.2989e-05,0
2.9085,8.4428e-05,0
2.909,0.00010138,0
2.9095,0.00011229,0
2.91,0.00010054,0
2.9105,7.6371e-05,0
2.911,5.069e-05,0
2.9115,2.266e-05,0
2.912,-4.1962e-06,0
2.9125,-2.7024e-05,0
2.913,-3.9109e-05,0
2.9135,-4.2466e-05,0
2.914,-3.9109e-05,0
2.9145,-2.9374e-05,0
2.915,-2.6352e-05,0
2.9155,-3.0381e-05,0
2.916,-2.4506e-05,0
2.9165,-8.7282e-06,0
2.917,1.1582e-05,0
2.9175,2.652e-05,0
2.918,2.2324e-05,0
2.9185,2.0981e-05,0
2.919,3.3066e-05,0
2.9195,4.1291e-05,0
2.92,2.3163e-05,0
2.9205,-1.2421e-05,0
2.921,-3.1052e-05,0
2.9215,-1.4435e-05,0
2.922,1.6953e-05,0
2.9225,3.8437e-05,0
2.923,4.8173e-05,0
2.9235,5.3544e-05,0
2.924,5.8915e-05,0
2.9245,7.5532e-05,0
2.925,0.00010021,0
2.9255,0.00010927,0
2.926,0.00010272,0
2.9265,7.9393e-05,0
2.927,4.2634e-05,0
2.9275,1.2589e-05,0
2.928,-1.091e-05,0
2.9285,-2.7192e-05,0
2.929,-2.0981e-05,0
2.9295,6.5461e-06,0
2.93,4.6159e-05,0
2.9305,8.4932e-05,0
2.931,9.5842e-05,0
2.9315,8.3085e-05,0
2.932,7.3014e-05,0
2.9325,7.3518e-05,0
2.933,7.6204e-05,0
2.9335,7.4357e-05,0
2.934,6.5293e-05,0
2.9345,5.2872e-05,0
2.935,4.0116e-05,0
2.9355,2.5849e-05,0
2.936,7.7211e-06,0
2.9365,-6.2104e-06,0
2.937,-9.9031e-06,0
2.9375,-1.2757e-05,0
2.938,-2.0813e-05,0
2.9385,-3.1052e-05,0
2.939,-3.6423e-05,0
2.9395,-4.3137e-05,0
2.94,-4.8341e-05,0
2.9405,-4.2298e-05,0
2.941,-3.8605e-05,0
2.9415,-3.6088e-05,0
2.942,-3.1052e-05,0
2.9425,-3.592e-05,0
2.943,-5.1865e-05,0
2.9435,-5.7572e-05,0
2.944,-6.2944e-05,0
2.9445,-6.9993e-05,0
2.945,-6.3279e-05,0
2.9455,-4.1795e-05,0
2.946,-1.8296e-05,0
2.9465,-6.2104e-06,0
2.947,-1.4099e-05,0
2.9475,-3.2898e-05,0
2.948,-4.7333e-05,0
2.9485,-5.4551e-05,0
2.949,-5.6565e-05,0
2.9495,-5.623e-05,0
2.95,-4.8005e-05,0
2.9505,-3.122e-05,0
2.951,-1.9974e-05,0
2.9515,-1.2924e-05,0
2.952,-5.8747e-06,0
2.9525,-4.8676e-06,0
2.953,2.0142e-06,0
2.9535,2.0813e-05,0
2.954,2.182e-05,0
2.9545,1.5778e-05,0
2.955,3.2395e-05,0
2.9555,5.9251e-05,0
2.956,8.0735e-05,0
2.9565,9.3828e-05,0
2.957,7.4021e-05,0
2.9575,3.4241e-05,0
2.958,6.2104e-06,0
2.9585,-8.392e-07,0
2.959,8.5603e-06,0
2.9595,1.8967e-05,0
2.96,7.8889e-06,0
2.9605,-2.417e-05,0
2.961,-5.388e-05,0
2.9615,-6.7643e-05,0
2.962,-6.2272e-05,0
2.9625,-4.0452e-05,0
2.963,-1.1917e-05,0
2.9635,1.2253e-05,0
2.964,2.1149e-05,0
2.9645,1.8631e-05,0
2.965,3.9948e-05,0
2.9655,8.3085e-05,0
2.966,0.00011044,0
2.9665,0.00011934,0
2.967,0.00011263,0
2.9675,0.00010256,0
2.968,0.00010054,0
2.9685,9.7185e-05,0
2.969,0.00010222,0
2.9695,0.00011934,0
2.97,0.00012924,0
2.9705,0.00011766,0
2.971,9.4499e-05,0
2.9715,9.1981e-05,0
2.972,0.00011128,0
2.9725,0.00012723,0
2.973,0.00012807,0
2.9735,0.00011498,0
2.974,9.9199e-05,0
2.9745,9.5506e-05,0
2.975,0.00010155,0
2.9755,0.00010323,0
2.976,9.7688e-05,0
2.9765,8.7953e-05,0
2.977,7.0664e-05,0
2.9775,5.0355e-05,0
2.978,4.2466e-05,0
2.9785,3.6591e-05,0
2.979,2.6017e-05,0
2.9795,2.3331e-05,0
2.98,2.0646e-05,0
2.9805,1.8296e-05,0
2.981,2.0646e-05,0
2.9815,1.5106e-06,0
2.982,-3.6759e-05,0
2.9825,-7.2679e-05,0
2.983,-0.00010155,0
2.9835,-0.00011112,0
2.984,-0.00010423,0
2.9845,-9.3156e-05,0
2.985,-6.8315e-05,0
2.9855,-3.6088e-05,0
2.986,-1.3428e-05,0
2.9865,2.8534e-06,0
2.987,2.7359e-05,0
2.9875,5.2033e-05,0
2.988,6.5629e-05,0
2.9885,7.6204e-05,0
2.989,9.0806e-05,0
2.9895,9.5842e-05,0
2.99,8.5603e-05,0
2.9905,6.9657e-05,0
2.991,6.1265e-05,0
2.9915,5.9922e-05,0
2.992,5.8915e-05,0
2.9925,5.5894e-05,0
2.993,3.9109e-05,0
2.9935,1.9638e-05,0
2.994,1.2757e-05,0
2.9945,5.2033e-06,0
2.995,-4.8676e-06,0
2.9955,-1.5106e-05,0
2.996,-3.1052e-05,0
2.9965,-4.0619e-05,0
2.997,-3.7095e-05,0
2.9975,-3.0549e-05,0
2.998,-2.8702e-05,0
2.9985,-2.9542e-05,0
2.999,-2.9038e-05,0
2.9995,-3.1052e-05,0
3,-3.5248e-05,0
3.0005,-3.8102e-05,0
3.001,-3.9109e-05,0
3.0015,-3.5584e-05,0
3.002,-2.9206e-05,0
3.0025,-2.4338e-05,0
3.003,-1.8799e-05,0
3.0035,-1.2589e-05,0
3.004,-1.8463e-06,0
3.0045,1.1414e-05,0
3.005,2.2995e-05,0
3.0055,3.5752e-05,0
3.006,3.2731e-05,0
3.0065,1.2924e-05,0
3.007,-6.5461e-06,0
3.0075,-1.8128e-05,0
3.008,-1.5442e-05,0
3.0085,-5.8747e-06,0
3.009,-5.539e-06,0
3.0095,-5.8747e-06,0
3.01,-3.6927e-06,0
3.0105,-5.539e-06,0
3.011,-1.091e-05,0
3.0115,-3.4409e-05,0
3.012,-7.6204e-05,0
3.0125,-0.00010491,0
3.013,-0.00011212,0
3.0135,-0.00010574,0
3.014,-8.3589e-05,0
3.0145,-5.0355e-05,0
3.015,-2.3667e-05,0
3.0155,-8.2246e-06,0
3.016,7.8889e-06,0
3.0165,3.2898e-05,0
3.017,5.9754e-05,0
3.0175,7.57e-05,0
3.018,8.7785e-05,0
3.0185,0.00010323,0
3.019,0.00010256,0
3.0195,9.5506e-05,0
3.02,9.5674e-05,0
3.0205,9.0974e-05,0
3.021,9.1981e-05,0
3.0215,0.00010423,0
3.022,0.00010054,0
3.0225,8.4932e-05,0
3.023,7.6204e-05,0
3.0235,6.5126e-05,0
3.024,3.8102e-05,0
3.0245,1.4771e-05,0
3.025,6.8818e-06,0
3.0255,1.1749e-06,0
3.026,-1.1917e-05,0
3.0265,-1.8631e-05,0
3.027,-1.3092e-05,0
3.0275,1.8463e-06,0
3.028,1.9974e-05,0
3.0285,3.6423e-05,0
3.029,5.4887e-05,0
3.0295,7.0664e-05,0
3.03,7.6707e-05,0
3.0305,6.9657e-05,0
3.031,6.3279e-05,0
3.0315,6.8315e-05,0
3.032,6.9322e-05,0
3.0325,6.4286e-05,0
3.033,6.1936e-05,0
3.0335,6.1936e-05,0
3.034,7.2847e-05,0
3.0345,9.9199e-05,0
3.035,0.00010893,0
3.0355,9.2149e-05,0
3.036,6.8986e-05,0
3.0365,4.4816e-05,0
3.037,2.182e-05,0
3.0375,1.2253e-05,0
3.038,1.561e-05,0
3.0385,1.8463e-05,0
3.039,1.9638e-05,0
3.0395,2.6688e-05,0
3.04,2.417e-05,0
3.0405,3.0213e-06,0
3.041,-3.2395e-05,0
3.0415,-7.4189e-05,0
3.042,-0.00012001,0
3.0425,-0.00016281,0
3.043,-0.00019907,0
3.0435,-0.00022391,0
3.044,-0.0002036,0
3.0445,-0.00012119,0
3.045,-2.7863e-05,0
3.0455,4.0116e-05,0
3.046,9.601e-05,0
3.0465,0.00013512,0
3.047,0.00015828,0
3.0475,0.00018346,0
3.048,0.00020528,0
3.0485,0.00020528,0
3.049,0.00017926,0
3.0495,0.00013848,0
3.05,0.00010927,0
3.0505,9.987e-05,0
3.051,8.8792e-05,0
3.0515,6.5293e-05,0
3.052,6.0594e-05,0
3.0525,7.9393e-05,0
3.053,9.9199e-05,0
3.0535,0.00010423,0
3.054,9.1142e-05,0
3.0545,7.5029e-05,0
3.055,6.865e-05,0
3.0555,7.0832e-05,0
3.056,8.2414e-05,0
3.0565,7.7714e-05,0
3.057,5.1865e-05,0
3.0575,2.7359e-05,0
3.058,7.2175e-06,0
3.0585,-1.5106e-06,0
3.059,3.0213e-06,0
3.0595,6.3783e-06,0
3.06,8.2246e-06,0
3.0605,9.5674e-06,0
3.061,-8.392e-07,0
3.0615,-1.2757e-05,0
3.062,-2.0646e-05,0
3.0625,-2.8031e-05,0
3.063,-3.3066e-05,0
3.0635,-3.5416e-05,0
3.064,-4.0619e-05,0
3.0645,-4.8844e-05,0
3.065,-5.4383e-05,0
3.0655,-5.9251e-05,0
3.066,-6.865e-05,0
3.0665,-8.1071e-05,0
3.067,-8.7953e-05,0
3.0675,-8.8457e-05,0
3.068,-8.4764e-05,0
3.0685,-7.6875e-05,0
3.069,-6.5293e-05,0
3.0695,-6.2104e-05,0
3.07,-6.2608e-05,0
3.0705,-5.9587e-05,0
3.071,-6.1601e-05,0
3.0715,-6.0426e-05,0
3.072,-4.3137e-05,0
3.0725,-2.1149e-05,0
3.073,-8.0568e-06,0
3.0735,-6.714e-07,0
3.074,-2.0142e-06,0
3.0745,-3.6927e-06,0
3.075,9.0639e-06,0
3.0755,2.5009e-05,0
3.076,3.0716e-05,0
3.0765,3.4745e-05,0
3.077,4.3809e-05,0
3.0775,5.2369e-05,0
3.078,6.1097e-05,0
3.0785,6.6636e-05,0
3.079,6.6804e-05,0
3.0795,6.0594e-05,0
3.08,5.0187e-05,0
