0,2.2324e-05,0
0.0005,4.0787e-05,0
0.001,4.8173e-05,0
0.0015,3.6759e-05,0
0.002,2.4338e-05,0
0.0025,2.3331e-05,0
0.003,2.9374e-05,0
0.0035,3.1052e-05,0
0.004,2.6017e-05,0
0.0045,1.8967e-05,0
0.005,1.2924e-05,0
0.0055,8.3925e-06,0
0.006,5.2033e-06,0
0.0065,6.5461e-06,0
0.007,1.1917e-05,0
0.0075,1.4939e-05,0
0.008,1.4435e-05,0
0.0085,1.5946e-05,0
0.009,1.8631e-05,0
0.0095,1.9303e-05,0
0.01,1.6617e-05,0
0.0105,1.4939e-05,0
0.011,1.7288e-05,0
0.0115,1.9135e-05,0
0.012,1.8128e-05,0
0.0125,1.561e-05,0
0.013,1.4603e-05,0
0.0135,1.5442e-05,0
0.014,1.8463e-05,0
0.0145,1.9303e-05,0
0.015,1.8631e-05,0
0.0155,1.8631e-05,0
0.016,1.8967e-05,0
0.0165,1.8296e-05,0
0.017,1.8463e-05,0
0.0175,1.9303e-05,0
0.018,1.8128e-05,0
0.0185,1.7456e-05,0
0.019,1.6617e-05,0
0.0195,1.5946e-05,0
0.02,1.4939e-05,0
0.0205,1.4939e-05,0
0.021,1.4939e-05,0
0.0215,1.4603e-05,0
0.022,1.5274e-05,0
0.0225,1.4771e-05,0
0.023,1.2757e-05,0
0.0235,1.2589e-05,0
0.024,1.2757e-05,0
0.0245,1.1917e-05,0
0.025,1.326e-05,0
0.0255,1.5946e-05,0
0.026,1.5106e-05,0
0.0265,1.1917e-05,0
0.027,9.7353e-06,0
0.0275,1.1246e-05,0
0.028,1.4939e-05,0
0.0285,1.5946e-05,0
0.029,1.6449e-05,0
0.0295,1.7624e-05,0
0.03,1.8128e-05,0
0.0305,2.0646e-05,0
0.031,2.6352e-05,0
0.0315,3.0381e-05,0
0.032,3.1388e-05,0
0.0325,3.2059e-05,0
0.033,3.0716e-05,0
0.0335,2.7695e-05,0
0.034,2.4506e-05,0
0.0345,2.3331e-05,0
0.035,2.266e-05,0
0.0355,2.1149e-05,0
0.036,1.9974e-05,0
0.0365,1.9806e-05,0
0.037,1.8631e-05,0
0.0375,1.5274e-05,0
0.038,1.2085e-05,0
0.0385,1.2924e-05,0
0.039,1.6953e-05,0
0.0395,1.8296e-05,0
0.04,1.6281e-05,0
0.0405,1.5274e-05,0
0.041,1.7121e-05,0
0.0415,1.8296e-05,0
0.042,1.3764e-05,0
0.0425,5.2033e-06,0
0.043,1.8463e-06,0
0.0435,2.5177e-06,0
0.044,1.3428e-06,0
0.0445,-2.3499e-06,0
0.045,-2.5177e-06,0
0.0455,5.8747e-06,0
0.046,1.8631e-05,0
0.0465,3.0549e-05,0
0.047,3.6591e-05,0
0.0475,3.978e-05,0
0.048,4.3305e-05,0
0.0485,4.2802e-05,0
0.049,3.7095e-05,0
0.0495,3.0549e-05,0
0.05,2.5681e-05,0
0.0505,2.4674e-05,0
0.051,2.6688e-05,0
0.0515,2.7192e-05,0
0.052,2.6688e-05,0
0.0525,2.7024e-05,0
0.053,2.5009e-05,0
0.0535,1.8631e-05,0
0.054,1.2924e-05,0
0.0545,1.4435e-05,0
0.055,2.3331e-05,0
0.0555,3.0045e-05,0
0.056,2.7695e-05,0
0.0565,1.7288e-05,0
0.057,5.3712e-06,0
0.0575,-1.6785e-06,0
0.058,-2.182e-06,0
0.0585,3.5248e-06,0
0.059,1.2253e-05,0
0.0595,1.3596e-05,0
0.06,1.3596e-05,0
0.0605,2.4338e-05,0
0.061,4.0452e-05,0
0.0615,5.0187e-05,0
0.062,5.153e-05,0
0.0625,4.4144e-05,0
0.063,2.6352e-05,0
0.0635,5.2033e-06,0
0.064,-2.3499e-06,0
0.0645,4.8676e-06,0
0.065,1.1582e-05,0
0.0655,8.7282e-06,0
0.066,5.0355e-06,0
0.0665,1.796e-05,0
0.067,4.2802e-05,0
0.0675,5.3376e-05,0
0.068,4.7501e-05,0
0.0685,4.1123e-05,0
0.069,3.743e-05,0
0.0695,3.592e-05,0
0.07,3.1724e-05,0
0.0705,2.5849e-05,0
0.071,2.3331e-05,0
0.0715,2.2492e-05,0
0.072,2.031e-05,0
0.0725,1.8463e-05,0
0.073,1.7792e-05,0
0.0735,1.9135e-05,0
0.074,1.9974e-05,0
0.0745,1.796e-05,0
0.075,1.3932e-05,0
0.0755,1.0239e-05,0
0.076,8.3925e-06,0
0.0765,6.3783e-06,0
0.077,4.5319e-06,0
0.0775,7.7211e-06,0
0.078,1.3764e-05,0
0.0785,1.6953e-05,0
0.079,1.3932e-05,0
0.0795,9.7353e-06,0
0.08,9.9031e-06,0
0.0805,1.3932e-05,0
0.081,1.6281e-05,0
0.0815,1.5946e-05,0
0.082,1.3932e-05,0
0.0825,1.3932e-05,0
0.083,1.4603e-05,0
0.0835,1.1582e-05,0
0.084,4.8676e-06,0
0.0845,6.714e-07,0
0.085,-1.6785e-06,0
0.0855,-2.182e-06,0
0.086,-3.1891e-06,0
0.0865,-2.5177e-06,0
0.087,2.3499e-06,0
0.0875,6.5461e-06,0
0.088,5.8747e-06,0
0.0885,5.2033e-06,0
0.089,6.0426e-06,0
0.0895,1.0575e-05,0
0.09,2.3331e-05,0
0.0905,3.8941e-05,0
0.091,4.3809e-05,0
0.0915,3.8437e-05,0
0.092,3.3066e-05,0
0.0925,3.0045e-05,0
0.093,2.9374e-05,0
0.0935,3.0716e-05,0
0.094,2.8702e-05,0
0.0945,2.3835e-05,0
0.095,1.9638e-05,0
0.0955,1.7624e-05,0
0.096,1.6617e-05,0
0.0965,1.5442e-05,0
0.097,1.2757e-05,0
0.0975,8.2246e-06,0
0.098,5.8747e-06,0
0.0985,6.3783e-06,0
0.099,9.2317e-06,0
0.0995,1.2253e-05,0
0.1,1.2421e-05,0
0.1005,1.3092e-05,0
0.101,1.3596e-05,0
0.1015,1.3932e-05,0
0.102,1.6449e-05,0
0.1025,1.7624e-05,0
0.103,1.7792e-05,0
0.1035,2.266e-05,0
0.104,2.8534e-05,0
0.1045,3.1556e-05,0
0.105,3.0045e-05,0
0.1055,2.5681e-05,0
0.106,2.4002e-05,0
0.1065,2.8367e-05,0
0.107,3.3066e-05,0
0.1075,3.2563e-05,0
0.108,2.8367e-05,0
0.1085,2.6017e-05,0
0.109,2.8031e-05,0
0.1095,2.9374e-05,0
0.11,2.7695e-05,0
0.1105,2.4506e-05,0
0.111,2.2156e-05,0
0.1115,2.3163e-05,0
0.112,2.4674e-05,0
0.1125,2.3163e-05,0
0.113,2.0813e-05,0
0.1135,2.031e-05,0
0.114,2.0646e-05,0
0.1145,1.8296e-05,0
0.115,1.4939e-05,0
0.1155,1.326e-05,0
0.116,1.4435e-05,0
0.1165,1.6617e-05,0
0.117,1.4267e-05,0
0.1175,1.1749e-05,0
0.118,1.7624e-05,0
0.1185,2.3835e-05,0
0.119,2.0646e-05,0
0.1195,1.1078e-05,0
0.12,5.7069e-06,0
0.1205,5.7069e-06,0
0.121,6.2104e-06,0
0.1215,4.1962e-06,0
0.122,1.8463e-06,0
0.1225,8.5603e-06,0
0.123,2.1317e-05,0
0.1235,3.2731e-05,0
0.124,4.3473e-05,0
0.1245,4.9515e-05,0
0.125,4.8173e-05,0
0.1255,4.2802e-05,0
0.126,3.743e-05,0
0.1265,3.1724e-05,0
0.127,2.4002e-05,0
0.1275,1.8296e-05,0
0.128,2.266e-05,0
0.1285,3.1724e-05,0
0.129,3.3066e-05,0
0.1295,2.5177e-05,0
0.13,1.7792e-05,0
0.1305,1.5274e-05,0
0.131,1.3596e-05,0
0.1315,1.1078e-05,0
0.132,7.3854e-06,0
0.1325,2.5177e-06,0
0.133,-3.1891e-06,0
0.1335,-6.5461e-06,0
0.134,-9.9031e-06,0
0.1345,-1.6281e-05,0
0.135,-1.5778e-05,0
0.1355,-8.392e-07,0
0.136,2.0981e-05,0
0.1365,3.978e-05,0
0.137,4.9515e-05,0
0.1375,4.8005e-05,0
0.138,4.1459e-05,0
0.1385,3.7095e-05,0
0.139,3.4577e-05,0
0.1395,3.2563e-05,0
0.14,3.0884e-05,0
0.1405,2.7192e-05,0
0.141,2.1149e-05,0
0.1415,1.561e-05,0
0.142,1.1582e-05,0
0.1425,9.2317e-06,0
0.143,5.539e-06,0
0.1435,1.5106e-06,0
0.144,-1.0071e-06,0
0.1445,-1.8463e-06,0
0.145,-3.8605e-06,0
0.1455,3.357e-07,0
0.146,1.3764e-05,0
0.1465,2.5009e-05,0
0.147,2.3667e-05,0
0.1475,1.7121e-05,0
0.148,1.6281e-05,0
0.1485,2.2156e-05,0
0.149,2.8031e-05,0
0.1495,3.0549e-05,0
0.15,2.9374e-05,0
0.1505,2.6017e-05,0
0.151,2.182e-05,0
0.1515,1.7792e-05,0
0.152,1.4939e-05,0
0.1525,1.3596e-05,0
0.153,1.3092e-05,0
0.1535,1.2421e-05,0
0.154,9.9031e-06,0
0.1545,4.8676e-06,0
0.155,1.8463e-06,0
0.1555,-1.678e-07,0
0.156,-2.182e-06,0
0.1565,-7.5532e-06,0
0.157,-1.4267e-05,0
0.1575,-1.7624e-05,0
0.158,-8.2246e-06,0
0.1585,1.2924e-05,0
0.159,3.1891e-05,0
0.1595,4.4816e-05,0
0.16,5.4215e-05,0
0.1605,5.8915e-05,0
0.161,5.6062e-05,0
0.1615,4.7837e-05,0
0.162,3.978e-05,0
0.1625,3.4745e-05,0
0.163,3.3402e-05,0
0.1635,3.1891e-05,0
0.164,3.1388e-05,0
0.1645,3.1724e-05,0
0.165,3.122e-05,0
0.1655,3.1388e-05,0
0.166,3.0549e-05,0
0.1665,2.8031e-05,0
0.167,2.5681e-05,0
0.1675,2.4338e-05,0
0.168,2.2995e-05,0
0.1685,2.0646e-05,0
0.169,1.7624e-05,0
0.1695,1.6281e-05,0
0.17,1.4771e-05,0
0.1705,1.3596e-05,0
0.171,1.4267e-05,0
0.1715,1.4603e-05,0
0.172,1.1917e-05,0
0.1725,9.5674e-06,0
0.173,9.7353e-06,0
0.1735,1.1582e-05,0
0.174,1.326e-05,0
0.1745,1.561e-05,0
0.175,1.6785e-05,0
0.1755,1.7121e-05,0
0.176,1.5274e-05,0
0.1765,1.091e-05,0
0.177,7.0497e-06,0
0.1775,6.2104e-06,0
0.178,7.8889e-06,0
0.1785,8.3925e-06,0
0.179,4.6998e-06,0
0.1795,2.8534e-06,0
0.18,8.0568e-06,0
0.1805,1.4603e-05,0
0.181,1.4939e-05,0
0.1815,1.326e-05,0
0.182,1.6281e-05,0
0.1825,2.0478e-05,0
0.183,2.0813e-05,0
0.1835,1.9638e-05,0
0.184,1.5274e-05,0
0.1845,9.2317e-06,0
0.185,7.5532e-06,0
0.1855,1.2757e-05,0
0.186,2.4674e-05,0
0.1865,3.6088e-05,0
0.187,3.827e-05,0
0.1875,3.2731e-05,0
0.188,3.0549e-05,0
0.1885,3.4241e-05,0
0.189,3.6088e-05,0
0.1895,3.1891e-05,0
0.19,2.6017e-05,0
0.1905,2.3163e-05,0
0.191,2.3163e-05,0
0.1915,2.4674e-05,0
0.192,2.6352e-05,0
0.1925,2.652e-05,0
0.193,2.4002e-05,0
0.1935,2.1317e-05,0
0.194,1.9974e-05,0
0.1945,1.9806e-05,0
0.195,1.8631e-05,0
0.1955,1.7792e-05,0
0.196,1.5946e-05,0
0.1965,1.3764e-05,0
0.197,1.1078e-05,0
0.1975,1.091e-05,0
0.198,1.3092e-05,0
0.1985,1.4435e-05,0
0.199,1.3596e-05,0
0.1995,1.326e-05,0
0.2,1.4435e-05,0
0.2005,1.5946e-05,0
0.201,1.7288e-05,0
0.2015,1.8296e-05,0
0.202,1.6785e-05,0
0.2025,1.2421e-05,0
0.203,8.896e-06,0
0.2035,9.0639e-06,0
0.204,1.1917e-05,0
0.2045,1.2253e-05,0
0.205,7.2175e-06,0
0.2055,-1.5106e-06,0
0.206,-6.714e-06,0
0.2065,-8.2246e-06,0
0.207,-7.2175e-06,0
0.2075,-2.5177e-06,0
0.208,4.5319e-06,0
0.2085,1.5274e-05,0
0.209,3.4073e-05,0
0.2095,5.2537e-05,0
0.21,5.2201e-05,0
0.2105,3.5752e-05,0
0.211,2.4002e-05,0
0.2115,2.7863e-05,0
0.212,3.6591e-05,0
0.2125,3.743e-05,0
0.213,3.0716e-05,0
0.2135,2.7359e-05,0
0.214,2.6688e-05,0
0.2145,2.6184e-05,0
0.215,2.4338e-05,0
0.2155,2.2828e-05,0
0.216,2.0646e-05,0
0.2165,1.8631e-05,0
0.217,1.7121e-05,0
0.2175,1.3596e-05,0
0.218,1.0239e-05,0
0.2185,8.3925e-06,0
0.219,6.5461e-06,0
0.2195,5.0355e-06,0
0.22,2.3499e-06,0
0.2205,-1.3428e-06,0
0.221,-2.5177e-06,0
0.2215,3.357e-06,0
0.222,1.5778e-05,0
0.2225,2.8367e-05,0
0.223,3.4745e-05,0
0.2235,3.2563e-05,0
0.224,2.3331e-05,0
0.2245,1.4939e-05,0
0.225,9.2317e-06,0
0.2255,2.3499e-06,0
0.226,-2.8534e-06,0
0.2265,-2.5177e-06,0
0.227,2.8534e-06,0
0.2275,5.539e-06,0
0.228,9.0639e-06,0
0.2285,2.5009e-05,0
0.229,5.0523e-05,0
0.2295,7.0664e-05,0
0.23,7.0664e-05,0
0.2305,5.5055e-05,0
0.231,3.6088e-05,0
0.2315,2.1149e-05,0
0.232,9.9031e-06,0
0.2325,1.5106e-06,0
0.233,-6.3783e-06,0
0.2335,-8.2246e-06,0
0.234,1.1749e-05,0
0.2345,4.0452e-05,0
0.235,4.9515e-05,0
0.2355,4.1795e-05,0
0.236,3.2395e-05,0
0.2365,2.3163e-05,0
0.237,1.4939e-05,0
0.2375,1.5274e-05,0
0.238,2.031e-05,0
0.2385,2.2324e-05,0
0.239,2.1988e-05,0
0.2395,2.1988e-05,0
0.24,2.1653e-05,0
0.2405,1.8967e-05,0
0.241,1.7288e-05,0
0.2415,1.796e-05,0
0.242,1.9974e-05,0
0.2425,2.0981e-05,0
0.243,1.9974e-05,0
0.2435,1.796e-05,0
0.244,1.561e-05,0
0.2445,1.2924e-05,0
0.245,1.5274e-05,0
0.2455,2.3499e-05,0
0.246,2.9206e-05,0
0.2465,2.887e-05,0
0.247,2.5177e-05,0
0.2475,2.1149e-05,0
0.248,1.5946e-05,0
0.2485,1.0071e-05,0
0.249,5.2033e-06,0
0.2495,3.0213e-06,0
0.25,2.5177e-06,0
0.2505,1.8463e-06,0
0.251,-1.1749e-06,0
0.2515,-5.2033e-06,0
0.252,-5.3712e-06,0
0.2525,5.035e-07,0
0.253,7.2175e-06,0
0.2535,9.7353e-06,0
0.254,1.3092e-05,0
0.2545,1.8967e-05,0
0.255,2.3667e-05,0
0.2555,2.5513e-05,0
0.256,2.7359e-05,0
0.2565,2.8367e-05,0
0.257,2.652e-05,0
0.2575,2.2995e-05,0
0.258,2.0981e-05,0
0.2585,2.266e-05,0
0.259,2.2995e-05,0
0.2595,1.6953e-05,0
0.26,1.1582e-05,0
0.2605,9.9031e-06,0
0.261,9.0639e-06,0
0.2615,1.326e-05,0
0.262,2.2324e-05,0
0.2625,3.357e-05,0
0.263,4.3305e-05,0
0.2635,4.2802e-05,0
0.264,3.4745e-05,0
0.2645,2.7359e-05,0
0.265,2.5681e-05,0
0.2655,2.5345e-05,0
0.266,2.2995e-05,0
0.2665,2.1149e-05,0
0.267,1.9974e-05,0
0.2675,1.8967e-05,0
0.268,1.6281e-05,0
0.2685,1.326e-05,0
0.269,1.0239e-05,0
0.2695,7.5532e-06,0
0.27,6.5461e-06,0
0.2705,6.0426e-06,0
0.271,5.2033e-06,0
0.2715,4.8676e-06,0
0.272,8.3925e-06,0
0.2725,2.1317e-05,0
0.273,3.978e-05,0
0.2735,4.6326e-05,0
0.274,3.827e-05,0
0.2745,2.5849e-05,0
0.275,1.5106e-05,0
0.2755,8.3925e-06,0
0.276,5.8747e-06,0
0.2765,1.0071e-05,0
0.277,1.9974e-05,0
0.2775,2.9709e-05,0
0.278,2.6688e-05,0
0.2785,1.2253e-05,0
0.279,8.392e-07,0
0.2795,-1.8463e-06,0
0.28,1.1749e-06,0
0.2805,-3.1891e-06,0
0.281,-1.326e-05,0
0.2815,-7.7211e-06,0
0.282,1.796e-05,0
0.2825,4.5487e-05,0
0.283,5.7908e-05,0
0.2835,5.4551e-05,0
0.284,4.5823e-05,0
0.2845,3.743e-05,0
0.285,3.0716e-05,0
0.2855,2.6688e-05,0
0.286,2.6352e-05,0
0.2865,2.652e-05,0
0.287,2.6352e-05,0
0.2875,2.7024e-05,0
0.288,2.8031e-05,0
0.2885,2.5849e-05,0
0.289,2.2995e-05,0
0.2895,2.3835e-05,0
0.29,2.8702e-05,0
0.2905,3.0045e-05,0
0.291,2.5345e-05,0
0.2915,2.1317e-05,0
0.292,1.9806e-05,0
0.2925,1.9303e-05,0
0.293,2.2324e-05,0
0.2935,2.266e-05,0
0.294,1.8631e-05,0
0.2945,1.3932e-05,0
0.295,1.1414e-05,0
0.2955,9.9031e-06,0
0.296,7.8889e-06,0
0.2965,8.3925e-06,0
0.297,1.1414e-05,0
0.2975,1.4939e-05,0
0.298,1.2757e-05,0
0.2985,7.8889e-06,0
0.299,9.2317e-06,0
0.2995,1.4267e-05,0
0.3,1.7288e-05,0
0.3005,1.6617e-05,0
0.301,1.1414e-05,0
0.3015,4.1962e-06,0
0.302,-4.1962e-06,0
0.3025,-1.0239e-05,0
0.303,-1.2924e-05,0
0.3035,-1.4939e-05,0
0.304,-1.3596e-05,0
0.3045,-9.5674e-06,0
0.305,-5.539e-06,0
0.3055,-5.8747e-06,0
0.306,-1.1246e-05,0
0.3065,-6.8818e-06,0
0.307,1.4939e-05,0
0.3075,4.1123e-05,0
0.308,6.1601e-05,0
0.3085,7.3518e-05,0
0.309,7.7378e-05,0
0.3095,7.2175e-05,0
0.31,6.1097e-05,0
0.3105,5.3376e-05,0
0.311,5.0858e-05,0
0.3115,4.5151e-05,0
0.312,3.592e-05,0
0.3125,2.7695e-05,0
0.313,2.3331e-05,0
0.3135,2.0478e-05,0
0.314,1.8631e-05,0
0.3145,1.8128e-05,0
0.315,1.796e-05,0
0.3155,1.796e-05,0
0.316,1.5946e-05,0
0.3165,1.2757e-05,0
0.317,9.9031e-06,0
0.3175,8.896e-06,0
0.318,6.3783e-06,0
0.3185,-5.035e-07,0
0.319,-8.0568e-06,0
0.3195,-9.5674e-06,0
0.32,-8.392e-07,0
0.3205,1.326e-05,0
0.321,3.0381e-05,0
0.3215,4.2802e-05,0
0.322,4.5487e-05,0
0.3225,4.213e-05,0
0.323,3.6423e-05,0
0.3235,2.8534e-05,0
0.324,1.9638e-05,0
0.3245,1.4435e-05,0
0.325,1.1246e-05,0
0.3255,9.0639e-06,0
0.326,8.896e-06,0
0.3265,1.2253e-05,0
0.327,1.8631e-05,0
0.3275,2.5345e-05,0
0.328,2.8367e-05,0
0.3285,2.7527e-05,0
0.329,2.4002e-05,0
0.3295,1.8631e-05,0
0.33,1.326e-05,0
0.3305,1.1246e-05,0
0.331,1.0575e-05,0
0.3315,9.0639e-06,0
0.332,6.5461e-06,0
0.3325,2.182e-06,0
0.333,-2.182e-06,0
0.3335,-3.5248e-06,0
0.334,-3.357e-07,0
0.3345,1.5106e-06,0
0.335,2.8534e-06,0
0.3355,1.3596e-05,0
0.336,2.8702e-05,0
0.3365,3.4073e-05,0
0.337,3.1556e-05,0
0.3375,2.9038e-05,0
0.338,2.9374e-05,0
0.3385,3.4073e-05,0
0.339,3.6423e-05,0
0.3395,3.5248e-05,0
0.34,3.2059e-05,0
0.3405,2.8199e-05,0
0.341,2.3667e-05,0
0.3415,1.8463e-05,0
0.342,1.326e-05,0
0.3425,9.5674e-06,0
0.343,9.2317e-06,0
0.3435,1.326e-05,0
0.344,1.4267e-05,0
0.3445,9.2317e-06,0
0.345,1.1749e-06,0
0.3455,-6.5461e-06,0
0.346,-8.7282e-06,0
0.3465,3.1891e-06,0
0.347,2.4002e-05,0
0.3475,3.5248e-05,0
0.348,3.6423e-05,0
0.3485,3.9445e-05,0
0.349,4.2466e-05,0
0.3495,3.6927e-05,0
0.35,2.5345e-05,0
0.3505,1.8463e-05,0
0.351,1.8631e-05,0
0.3515,2.0981e-05,0
0.352,2.2324e-05,0
0.3525,1.7288e-05,0
0.353,7.0497e-06,0
0.3535,1.6785e-06,0
0.354,7.3854e-06,0
0.3545,1.091e-05,0
0.355,3.6927e-06,0
0.3555,1.1749e-06,0
0.356,1.2924e-05,0
0.3565,3.3066e-05,0
0.357,4.683e-05,0
0.3575,4.8173e-05,0
0.358,3.743e-05,0
0.3585,1.9135e-05,0
0.359,4.3641e-06,0
0.3595,-1.0071e-06,0
0.36,6.2104e-06,0
0.3605,1.8463e-05,0
0.361,2.3163e-05,0
0.3615,2.4842e-05,0
0.362,3.4073e-05,0
0.3625,4.7166e-05,0
0.363,5.2201e-05,0
0.3635,4.8844e-05,0
0.364,4.6494e-05,0
0.3645,4.7501e-05,0
0.365,4.7166e-05,0
0.3655,4.2802e-05,0
0.366,3.5416e-05,0
0.3665,2.8031e-05,0
0.367,2.266e-05,0
0.3675,1.7288e-05,0
0.368,1.0575e-05,0
0.3685,3.1891e-06,0
0.369,-4.1962e-06,0
0.3695,-1.1749e-05,0
0.37,-1.8128e-05,0
0.3705,-2.1317e-05,0
0.371,-2.4002e-05,0
0.3715,-2.3667e-05,0
0.372,-1.3932e-05,0
0.3725,1.0575e-05,0
0.373,3.6591e-05,0
0.3735,4.8844e-05,0
0.374,4.7837e-05,0
0.3745,4.0116e-05,0
0.375,3.1891e-05,0
0.3755,2.7359e-05,0
0.376,2.8031e-05,0
0.3765,3.0045e-05,0
0.377,2.6352e-05,0
0.3775,1.9806e-05,0
0.378,1.6281e-05,0
0.3785,1.5106e-05,0
0.379,1.5946e-05,0
0.3795,1.6449e-05,0
0.38,1.4267e-05,0
0.3805,1.326e-05,0
0.381,1.1917e-05,0
0.3815,1.1917e-05,0
0.382,1.1749e-05,0
0.3825,1.0575e-05,0
0.383,9.0639e-06,0
0.3835,7.5532e-06,0
0.384,5.0355e-06,0
0.3845,3.1891e-06,0
0.385,2.5177e-06,0
0.3855,3.5248e-06,0
0.386,7.5532e-06,0
0.3865,1.4267e-05,0
0.387,1.9638e-05,0
0.3875,2.031e-05,0
0.388,1.7121e-05,0
0.3885,1.2253e-05,0
0.389,1.0071e-05,0
0.3895,1.0407e-05,0
0.39,1.1582e-05,0
0.3905,1.2253e-05,0
0.391,9.9031e-06,0
0.3915,6.2104e-06,0
0.392,7.0497e-06,0
0.3925,8.7282e-06,0
0.393,7.3854e-06,0
0.3935,4.5319e-06,0
0.394,4.1962e-06,0
0.3945,6.2104e-06,0
0.395,8.5603e-06,0
0.3955,1.2421e-05,0
0.396,1.4267e-05,0
0.3965,1.5274e-05,0
0.397,1.4603e-05,0
0.3975,1.5274e-05,0
0.398,2.266e-05,0
0.3985,3.6927e-05,0
0.399,4.3641e-05,0
0.3995,4.5151e-05,0
0.4,4.6159e-05,0
0.4005,3.978e-05,0
0.401,2.9877e-05,0
0.4015,2.2156e-05,0
0.402,1.561e-05,0
0.4025,7.5532e-06,0
0.403,1.6785e-06,0
0.4035,-5.035e-07,0
0.404,1.1749e-06,0
0.4045,5.2033e-06,0
0.405,4.3641e-06,0
0.4055,-1.5106e-06,0
0.406,3.0213e-06,0
0.4065,1.9974e-05,0
0.407,3.2898e-05,0
0.4075,3.6591e-05,0
0.408,4.2298e-05,0
0.4085,4.3977e-05,0
0.409,3.5416e-05,0
0.4095,2.8367e-05,0
0.41,3.1388e-05,0
0.4105,3.9445e-05,0
0.411,4.3305e-05,0
0.4115,4.1123e-05,0
0.412,3.4745e-05,0
0.4125,2.6688e-05,0
0.413,2.031e-05,0
0.4135,1.6281e-05,0
0.414,1.3932e-05,0
0.4145,1.1582e-05,0
0.415,9.7353e-06,0
0.4155,1.2253e-05,0
0.416,2.4674e-05,0
0.4165,3.743e-05,0
0.417,3.9109e-05,0
0.4175,3.3906e-05,0
0.418,2.8702e-05,0
0.4185,2.4002e-05,0
0.419,1.9806e-05,0
0.4195,1.0575e-05,0
0.42,-1.3428e-06,0
0.4205,-4.1962e-06,0
0.421,9.7353e-06,0
0.4215,2.5009e-05,0
0.422,2.6017e-05,0
0.4225,1.326e-05,0
0.423,-1.5106e-06,0
0.4235,-5.2033e-06,0
0.424,3.8605e-06,0
0.4245,1.7288e-05,0
0.425,2.5345e-05,0
0.4255,2.6352e-05,0
0.426,2.7192e-05,0
0.4265,2.8702e-05,0
0.427,2.6352e-05,0
0.4275,1.947e-05,0
0.428,1.2589e-05,0
0.4285,8.2246e-06,0
0.429,1.1246e-05,0
0.4295,2.2995e-05,0
0.43,2.8702e-05,0
0.4305,2.4002e-05,0
0.431,1.796e-05,0
0.4315,1.326e-05,0
0.432,7.2175e-06,0
0.4325,2.182e-06,0
0.433,1.678e-07,0
0.4335,1.0071e-06,0
0.434,7.5532e-06,0
0.4345,2.0478e-05,0
0.435,3.3738e-05,0
0.4355,3.9948e-05,0
0.436,3.6088e-05,0
0.4365,2.4002e-05,0
0.437,1.5946e-05,0
0.4375,1.6785e-05,0
0.438,1.8631e-05,0
0.4385,1.796e-05,0
0.439,2.031e-05,0
0.4395,2.5177e-05,0
0.44,3.0381e-05,0
0.4405,3.2731e-05,0
0.441,2.9709e-05,0
0.4415,2.3331e-05,0
0.442,2.2324e-05,0
0.4425,2.5681e-05,0
0.443,2.6688e-05,0
0.4435,2.5009e-05,0
0.444,2.0646e-05,0
0.4445,1.5946e-05,0
0.445,1.2924e-05,0
0.4455,1.326e-05,0
0.446,1.6953e-05,0
0.4465,1.8967e-05,0
0.447,1.6281e-05,0
0.4475,1.4603e-05,0
0.448,1.8967e-05,0
0.4485,1.9638e-05,0
0.449,1.326e-05,0
0.4495,6.5461e-06,0
0.45,5.539e-06,0
0.4505,7.8889e-06,0
0.451,1.1078e-05,0
0.4515,9.9031e-06,0
0.452,4.3641e-06,0
0.4525,-2.8534e-06,0
0.453,-5.539e-06,0
0.4535,-1.5106e-06,0
0.454,5.2033e-06,0
0.4545,1.6617e-05,0
0.455,2.5009e-05,0
0.4555,3.0716e-05,0
0.456,3.7766e-05,0
0.4565,3.7934e-05,0
0.457,3.1052e-05,0
0.4575,2.5009e-05,0
0.458,2.182e-05,0
0.4585,2.4338e-05,0
0.459,2.7359e-05,0
0.4595,2.266e-05,0
0.46,1.0071e-05,0
0.4605,-3.5248e-06,0
0.461,-2.182e-06,0
0.4615,2.5345e-05,0
0.462,5.623e-05,0
0.4625,6.0929e-05,0
0.463,4.213e-05,0
0.4635,2.0142e-05,0
0.464,1.1749e-05,0
0.4645,1.5274e-05,0
0.465,1.1246e-05,0
0.4655,3.5248e-06,0
0.466,1.1582e-05,0
0.4665,2.7024e-05,0
0.467,3.0716e-05,0
0.4675,2.0646e-05,0
0.468,1.0407e-05,0
0.4685,8.896e-06,0
0.469,1.1749e-05,0
0.4695,1.0575e-05,0
0.47,1.4099e-05,0
0.4705,3.6423e-05,0
0.471,5.6901e-05,0
0.4715,6.2272e-05,0
0.472,6.1936e-05,0
0.4725,5.4383e-05,0
0.473,3.6423e-05,0
0.4735,2.1317e-05,0
0.474,1.3596e-05,0
0.4745,1.0239e-05,0
0.475,1.1246e-05,0
0.4755,1.3092e-05,0
0.476,1.7792e-05,0
0.4765,2.4674e-05,0
0.477,2.652e-05,0
0.4775,1.7288e-05,0
0.478,7.0497e-06,0
0.4785,2.3499e-06,0
0.479,2.8534e-06,0
0.4795,5.2033e-06,0
0.48,6.5461e-06,0
0.4805,6.3783e-06,0
0.481,6.5461e-06,0
0.4815,7.8889e-06,0
0.482,9.9031e-06,0
0.4825,1.3932e-05,0
0.483,1.8799e-05,0
0.4835,1.8463e-05,0
0.484,1.1917e-05,0
0.4845,2.3499e-06,0
0.485,-6.2104e-06,0
0.4855,2.5177e-06,0
0.486,3.508e-05,0
0.4865,6.3279e-05,0
0.487,6.4958e-05,0
0.4875,5.0858e-05,0
0.488,3.5584e-05,0
0.4885,2.4002e-05,0
0.489,1.5778e-05,0
0.4895,1.1078e-05,0
0.49,1.091e-05,0
0.4905,1.2589e-05,0
0.491,1.326e-05,0
0.4915,1.1414e-05,0
0.492,1.0407e-05,0
0.4925,1.1917e-05,0
0.493,1.2924e-05,0
0.4935,1.0575e-05,0
0.494,7.5532e-06,0
0.4945,5.2033e-06,0
0.495,3.6927e-06,0
0.4955,4.5319e-06,0
0.496,5.2033e-06,0
0.4965,1.0071e-06,0
0.497,-6.3783e-06,0
0.4975,-6.714e-06,0
0.498,4.1962e-06,0
0.4985,1.9135e-05,0
0.499,3.508e-05,0
0.4995,4.6494e-05,0
0.5,4.3305e-05,0
0.5005,3.0549e-05,0
0.501,1.7288e-05,0
0.5015,7.8889e-06,0
0.502,5.2033e-06,0
0.5025,7.2175e-06,0
0.503,9.2317e-06,0
0.5035,8.5603e-06,0
0.504,7.0497e-06,0
0.5045,1.0071e-06,0
0.505,-1.1582e-05,0
0.5055,-2.3667e-05,0
0.506,-2.9709e-05,0
0.5065,-2.4674e-05,0
0.507,-2.1653e-05,0
0.5075,-2.9709e-05,0
0.508,-3.508e-05,0
0.5085,-1.6114e-05,0
0.509,2.6017e-05,0
0.5095,7.1336e-05,0
0.51,9.8527e-05,0
0.5105,0.00010356,0
0.511,8.9799e-05,0
0.5115,6.3951e-05,0
0.512,4.213e-05,0
0.5125,4.0787e-05,0
0.513,5.4215e-05,0
0.5135,7.1672e-05,0
0.514,8.2414e-05,0
0.5145,8.04e-05,0
0.515,6.865e-05,0
0.5155,5.4215e-05,0
0.516,4.3305e-05,0
0.5165,3.7095e-05,0
0.517,3.3066e-05,0
0.5175,2.9206e-05,0
0.518,2.182e-05,0
0.5185,1.3932e-05,0
0.519,9.2317e-06,0
0.5195,5.2033e-06,0
0.52,2.0142e-06,0
0.5205,2.5177e-06,0
0.521,5.2033e-06,0
0.5215,5.539e-06,0
0.522,5.2033e-06,0
0.5225,7.2175e-06,0
0.523,9.0639e-06,0
0.5235,7.2175e-06,0
0.524,1.8463e-06,0
0.5245,-1.0071e-06,0
0.525,-8.392e-07,0
0.5255,-5.035e-07,0
0.526,-1.5106e-06,0
0.5265,-2.182e-06,0
0.527,8.392e-07,0
0.5275,6.2104e-06,0
0.528,6.8818e-06,0
0.5285,1.8463e-06,0
0.529,1.5106e-06,0
0.5295,8.7282e-06,0
0.53,1.796e-05,0
0.5305,1.9974e-05,0
0.531,1.4267e-05,0
0.5315,8.896e-06,0
0.532,1.091e-05,0
0.5325,1.7456e-05,0
0.533,2.1317e-05,0
0.5335,2.1149e-05,0
0.534,2.2324e-05,0
0.5345,2.652e-05,0
0.535,2.6352e-05,0
0.5355,1.9135e-05,0
0.536,9.9031e-06,0
0.5365,6.3783e-06,0
0.537,6.5461e-06,0
0.5375,6.3783e-06,0
0.538,8.2246e-06,0
0.5385,7.8889e-06,0
0.539,2.182e-06,0
0.5395,-5.0355e-06,0
0.54,-8.5603e-06,0
0.5405,-3.8605e-06,0
0.541,8.2246e-06,0
0.5415,1.6785e-05,0
0.542,1.5946e-05,0
0.5425,8.5603e-06,0
0.543,4.0284e-06,0
0.5435,1.6953e-05,0
0.544,4.7837e-05,0
0.5445,7.335e-05,0
0.545,7.6371e-05,0
0.5455,6.4958e-05,0
0.546,5.1865e-05,0
0.5465,4.1795e-05,0
0.547,3.4409e-05,0
0.5475,3.0045e-05,0
0.548,2.5345e-05,0
0.5485,2.0646e-05,0
0.549,1.6785e-05,0
0.5495,1.561e-05,0
0.55,1.5778e-05,0
0.5505,1.6785e-05,0
0.551,1.5946e-05,0
0.5515,9.9031e-06,0
0.552,5.2033e-06,0
0.5525,8.2246e-06,0
0.553,1.326e-05,0
0.5535,1.6617e-05,0
0.554,2.1988e-05,0
0.5545,2.8702e-05,0
0.555,2.9206e-05,0
0.5555,2.1317e-05,0
0.556,1.4099e-05,0
0.5565,1.6617e-05,0
0.557,2.2324e-05,0
0.5575,2.1317e-05,0
0.558,1.7121e-05,0
0.5585,1.6281e-05,0
0.559,1.9135e-05,0
0.5595,2.0646e-05,0
0.56,1.7288e-05,0
0.5605,9.0639e-06,0
0.561,3.357e-07,0
0.5615,-3.5248e-06,0
0.562,-5.035e-07,0
0.5625,1.1078e-05,0
0.563,3.3234e-05,0
0.5635,5.0019e-05,0
0.564,4.8173e-05,0
0.5645,3.3738e-05,0
0.565,2.0646e-05,0
0.5655,1.561e-05,0
0.566,1.2924e-05,0
0.5665,1.0575e-05,0
0.567,1.0575e-05,0
0.5675,1.0575e-05,0
0.568,8.896e-06,0
0.5685,8.2246e-06,0
0.569,1.2253e-05,0
0.5695,1.7288e-05,0
0.57,2.0646e-05,0
0.5705,1.9974e-05,0
0.571,1.4603e-05,0
0.5715,7.8889e-06,0
0.572,6.714e-07,0
0.5725,-8.392e-07,0
0.573,7.2175e-06,0
0.5735,1.7288e-05,0
0.574,2.266e-05,0
0.5745,2.4674e-05,0
0.575,2.7359e-05,0
0.5755,2.9206e-05,0
0.576,2.4506e-05,0
0.5765,9.9031e-06,0
0.577,-1.0407e-05,0
0.5775,-2.5009e-05,0
0.578,-1.9974e-05,0
0.5785,3.8605e-06,0
0.579,3.508e-05,0
0.5795,5.5726e-05,0
0.58,6.4286e-05,0
0.5805,6.8315e-05,0
0.581,6.7979e-05,0
0.5815,5.9419e-05,0
0.582,4.8844e-05,0
0.5825,3.9948e-05,0
0.583,3.1052e-05,0
0.5835,2.4674e-05,0
0.584,2.1988e-05,0
0.5845,1.8631e-05,0
0.585,1.5946e-05,0
0.5855,1.4939e-05,0
0.586,1.4267e-05,0
0.5865,1.4603e-05,0
0.587,1.4267e-05,0
0.5875,1.3932e-05,0
0.588,1.4267e-05,0
0.5885,1.2253e-05,0
0.589,1.0407e-05,0
0.5895,9.9031e-06,0
0.59,1.0575e-05,0
0.5905,1.1582e-05,0
0.591,1.1246e-05,0
0.5915,9.7353e-06,0
0.592,8.2246e-06,0
0.5925,8.2246e-06,0
0.593,8.0568e-06,0
0.5935,7.5532e-06,0
0.594,5.7069e-06,0
0.5945,5.539e-06,0
0.595,6.5461e-06,0
0.5955,7.2175e-06,0
0.596,7.5532e-06,0
0.5965,9.2317e-06,0
0.597,9.2317e-06,0
0.5975,5.2033e-06,0
0.598,5.539e-06,0
0.5985,1.1917e-05,0
0.599,1.5946e-05,0
0.5995,1.5442e-05,0
0.6,1.4435e-05,0
0.6005,1.9638e-05,0
0.601,2.9709e-05,0
0.6015,3.6927e-05,0
0.602,3.7934e-05,0
0.6025,3.2059e-05,0
0.603,3.0381e-05,0
0.6035,3.508e-05,0
0.604,3.6255e-05,0
0.6045,3.3738e-05,0
0.605,3.0213e-05,0
0.6055,2.6688e-05,0
0.606,2.3331e-05,0
0.6065,2.1149e-05,0
0.607,2.2324e-05,0
0.6075,2.1317e-05,0
0.608,1.7288e-05,0
0.6085,1.1917e-05,0
0.609,9.7353e-06,0
0.6095,1.1246e-05,0
0.61,1.4099e-05,0
0.6105,1.326e-05,0
0.611,1.0407e-05,0
0.6115,1.1582e-05,0
0.612,1.7288e-05,0
0.6125,1.6617e-05,0
0.613,6.2104e-06,0
0.6135,-4.5319e-06,0
0.614,-5.7069e-06,0
0.6145,8.392e-07,0
0.615,4.5319e-06,0
0.6155,1.5106e-06,0
0.616,2.182e-06,0
0.6165,9.9031e-06,0
0.617,1.7792e-05,0
0.6175,2.1149e-05,0
0.618,2.3331e-05,0
0.6185,2.7695e-05,0
0.619,2.8199e-05,0
0.6195,2.2324e-05,0
0.62,1.5946e-05,0
0.6205,9.2317e-06,0
0.621,4.1962e-06,0
0.6215,5.8747e-06,0
0.622,8.2246e-06,0
0.6225,6.5461e-06,0
0.623,8.0568e-06,0
0.6235,2.266e-05,0
0.624,3.978e-05,0
0.6245,4.6159e-05,0
0.625,4.5487e-05,0
0.6255,4.6494e-05,0
0.626,4.918e-05,0
0.6265,5.623e-05,0
0.627,6.5629e-05,0
0.6275,6.63e-05,0
0.628,5.4048e-05,0
0.6285,3.8773e-05,0
0.629,2.9877e-05,0
0.6295,2.6688e-05,0
0.63,2.6352e-05,0
0.6305,2.5345e-05,0
0.631,2.4002e-05,0
0.6315,2.4002e-05,0
0.632,2.4002e-05,0
0.6325,2.2324e-05,0
0.633,1.5946e-05,0
0.6335,7.8889e-06,0
0.634,1.1749e-06,0
0.6345,-5.8747e-06,0
0.635,-1.6449e-05,0
0.6355,-2.5345e-05,0
0.636,-2.5345e-05,0
0.6365,-1.7288e-05,0
0.637,-1.3428e-05,0
0.6375,-1.1078e-05,0
0.638,7.3854e-06,0
0.6385,3.8102e-05,0
0.639,5.6565e-05,0
0.6395,4.9515e-05,0
0.64,3.0884e-05,0
0.6405,2.5345e-05,0
0.641,2.9374e-05,0
0.6415,2.6688e-05,0
0.642,1.8967e-05,0
0.6425,1.326e-05,0
0.643,1.1414e-05,0
0.6435,1.326e-05,0
0.644,1.9638e-05,0
0.6445,2.4506e-05,0
0.645,2.4338e-05,0
0.6455,2.182e-05,0
0.646,1.7792e-05,0
0.6465,1.1917e-05,0
0.647,1.1246e-05,0
0.6475,1.8296e-05,0
0.648,2.9709e-05,0
0.6485,4.0116e-05,0
0.649,4.2802e-05,0
0.6495,3.6088e-05,0
0.65,2.8031e-05,0
0.6505,2.182e-05,0
0.651,1.7624e-05,0
0.6515,1.4939e-05,0
0.652,1.2589e-05,0
0.6525,1.1917e-05,0
0.653,1.2924e-05,0
0.6535,1.2421e-05,0
0.654,1.3932e-05,0
0.6545,1.9974e-05,0
0.655,2.4338e-05,0
0.6555,2.266e-05,0
0.656,1.7624e-05,0
0.6565,1.5442e-05,0
0.657,1.561e-05,0
0.6575,1.2924e-05,0
0.658,1.0575e-05,0
0.6585,9.9031e-06,0
0.659,7.8889e-06,0
0.6595,5.7069e-06,0
0.66,8.2246e-06,0
0.6605,1.3932e-05,0
0.661,1.6785e-05,0
0.6615,1.3932e-05,0
0.662,6.5461e-06,0
0.6625,-3.5248e-06,0
0.663,-1.4099e-05,0
0.6635,-2.1653e-05,0
0.664,-2.6688e-05,0
0.6645,-2.2995e-05,0
0.665,-4.1962e-06,0
0.6655,1.8296e-05,0
0.666,2.9374e-05,0
0.6665,3.4409e-05,0
0.667,4.0787e-05,0
0.6675,4.3305e-05,0
0.668,4.5823e-05,0
0.6685,5.1194e-05,0
0.669,5.0523e-05,0
0.6695,4.2298e-05,0
0.67,3.3906e-05,0
0.6705,3.0549e-05,0
0.671,2.7695e-05,0
0.6715,2.3835e-05,0
0.672,2.1988e-05,0
0.6725,2.1317e-05,0
0.673,2.0646e-05,0
0.6735,1.7624e-05,0
0.674,1.1582e-05,0
0.6745,4.8676e-06,0
0.675,8.392e-07,0
0.6755,-5.035e-07,0
0.676,-2.0142e-06,0
0.6765,-6.2104e-06,0
0.677,-7.2175e-06,0
0.6775,3.1891e-06,0
0.678,1.6617e-05,0
0.6785,2.3331e-05,0
0.679,2.5009e-05,0
0.6795,2.9709e-05,0
0.68,4.6159e-05,0
0.6805,5.8412e-05,0
0.681,5.623e-05,0
0.6815,4.4144e-05,0
0.682,3.2395e-05,0
0.6825,2.8031e-05,0
0.683,3.0884e-05,0
0.6835,3.3234e-05,0
0.684,2.8702e-05,0
0.6845,2.2995e-05,0
0.685,2.4002e-05,0
0.6855,2.9374e-05,0
0.686,3.1891e-05,0
0.6865,2.8534e-05,0
0.687,2.3163e-05,0
0.6875,1.796e-05,0
0.688,1.6449e-05,0
0.6885,1.6953e-05,0
0.689,1.5106e-05,0
0.6895,1.3764e-05,0
0.69,1.2589e-05,0
0.6905,1.091e-05,0
0.691,1.091e-05,0
0.6915,1.1917e-05,0
0.692,1.0575e-05,0
0.6925,6.5461e-06,0
0.693,1.6785e-06,0
0.6935,-8.392e-07,0
0.694,-1.6785e-06,0
0.6945,-4.3641e-06,0
0.695,-5.0355e-06,0
0.6955,-2.8534e-06,0
0.696,-1.5106e-06,0
0.6965,8.392e-07,0
0.697,7.8889e-06,0
0.6975,2.1988e-05,0
0.698,4.1123e-05,0
0.6985,5.5222e-05,0
0.699,5.7908e-05,0
0.6995,5.153e-05,0
0.7,4.2634e-05,0
0.7005,3.4409e-05,0
0.701,2.9038e-05,0
0.7015,2.6352e-05,0
0.702,2.4674e-05,0
0.7025,2.2828e-05,0
0.703,2.2492e-05,0
0.7035,2.2995e-05,0
0.704,2.2324e-05,0
0.7045,2.1317e-05,0
0.705,1.9974e-05,0
0.7055,1.8631e-05,0
0.706,1.561e-05,0
0.7065,1.1078e-05,0
0.707,7.7211e-06,0
0.7075,5.2033e-06,0
0.708,2.5177e-06,0
0.7085,2.5177e-06,0
0.709,1.5442e-05,0
0.7095,3.0549e-05,0
0.71,3.4577e-05,0
0.7105,3.2059e-05,0
0.711,2.8702e-05,0
0.7115,2.266e-05,0
0.712,1.6281e-05,0
0.7125,1.326e-05,0
0.713,1.326e-05,0
0.7135,1.1749e-05,0
0.714,8.3925e-06,0
0.7145,7.8889e-06,0
0.715,1.1246e-05,0
0.7155,1.5946e-05,0
0.716,1.9303e-05,0
0.7165,1.8967e-05,0
0.717,1.561e-05,0
0.7175,1.5106e-05,0
0.718,1.9303e-05,0
0.7185,2.1988e-05,0
0.719,1.9135e-05,0
0.7195,1.2421e-05,0
0.72,9.5674e-06,0
0.7205,1.1246e-05,0
0.721,1.0575e-05,0
0.7215,1.1582e-05,0
0.722,1.5106e-05,0
0.7225,2.5345e-05,0
0.723,3.6927e-05,0
0.7235,3.8941e-05,0
0.724,3.2059e-05,0
0.7245,2.3667e-05,0
0.725,2.9038e-05,0
0.7255,4.3977e-05,0
0.726,4.8173e-05,0
0.7265,4.0116e-05,0
0.727,3.1052e-05,0
0.7275,2.5345e-05,0
0.728,2.1317e-05,0
0.7285,1.7624e-05,0
0.729,1.4435e-05,0
0.7295,9.5674e-06,0
0.73,3.1891e-06,0
0.7305,-3.8605e-06,0
0.731,-1.1078e-05,0
0.7315,-1.8296e-05,0
0.732,-2.5345e-05,0
0.7325,-3.2731e-05,0
0.733,-3.508e-05,0
0.7335,-2.4674e-05,0
0.734,1.8463e-06,0
0.7345,3.2731e-05,0
0.735,4.918e-05,0
0.7355,4.9851e-05,0
0.736,4.1459e-05,0
0.7365,2.8031e-05,0
0.737,1.3596e-05,0
0.7375,1.5106e-06,0
0.738,-4.3641e-06,0
0.7385,7.8889e-06,0
0.739,3.4577e-05,0
0.7395,5.3208e-05,0
0.74,5.2872e-05,0
0.7405,4.2802e-05,0
0.741,3.3906e-05,0
0.7415,2.417e-05,0
0.742,1.326e-05,0
0.7425,8.3925e-06,0
0.743,8.2246e-06,0
0.7435,1.2253e-05,0
0.744,1.7792e-05,0
0.7445,2.7359e-05,0
0.745,3.3066e-05,0
0.7455,2.6017e-05,0
0.746,1.7624e-05,0
0.7465,1.7288e-05,0
0.747,2.1317e-05,0
0.7475,2.5849e-05,0
0.748,2.7024e-05,0
0.7485,2.5345e-05,0
0.749,2.3163e-05,0
0.7495,2.2828e-05,0
0.75,2.417e-05,0
0.7505,2.6017e-05,0
0.751,2.5849e-05,0
0.7515,2.0981e-05,0
0.752,1.4603e-05,0
0.7525,1.2589e-05,0
0.753,1.326e-05,0
0.7535,1.3596e-05,0
0.754,1.1246e-05,0
0.7545,7.8889e-06,0
0.755,2.182e-06,0
0.7555,-8.392e-07,0
0.756,-2.6856e-06,0
0.7565,-4.1962e-06,0
0.757,-5.539e-06,0
0.7575,-6.2104e-06,0
0.758,-5.539e-06,0
0.7585,1.5106e-06,0
0.759,1.4435e-05,0
0.7595,2.4002e-05,0
0.76,2.6688e-05,0
0.7605,3.0381e-05,0
0.761,3.5248e-05,0
0.7615,3.508e-05,0
0.762,3.0884e-05,0
0.7625,2.5009e-05,0
0.763,2.1317e-05,0
0.7635,1.9974e-05,0
0.764,1.9638e-05,0
0.7645,2.0646e-05,0
0.765,2.4338e-05,0
0.7655,2.5345e-05,0
0.766,2.6688e-05,0
0.7665,2.9542e-05,0
0.767,3.0716e-05,0
0.7675,2.6352e-05,0
0.768,2.0478e-05,0
0.7685,2.1317e-05,0
0.769,2.5849e-05,0
0.7695,3.0045e-05,0
0.77,3.3402e-05,0
0.7705,3.2059e-05,0
0.771,2.4842e-05,0
0.7715,2.1988e-05,0
0.772,2.6688e-05,0
0.7725,3.2731e-05,0
0.773,3.3066e-05,0
0.7735,2.8031e-05,0
0.774,1.9303e-05,0
0.7745,1.1917e-05,0
0.775,9.0639e-06,0
0.7755,7.2175e-06,0
0.776,7.5532e-06,0
0.7765,1.1246e-05,0
0.777,1.4435e-05,0
0.7775,1.1582e-05,0
0.778,3.357e-06,0
0.7785,-6.2104e-06,0
0.779,-7.8889e-06,0
0.7795,1.678e-07,0
0.78,1.1414e-05,0
0.7805,1.947e-05,0
0.781,2.4674e-05,0
0.7815,2.8031e-05,0
0.782,2.4002e-05,0
0.7825,1.5442e-05,0
0.783,6.2104e-06,0
0.7835,-8.392e-07,0
0.784,2.182e-06,0
0.7845,1.6281e-05,0
0.785,4.0787e-05,0
0.7855,6.6804e-05,0
0.786,7.4021e-05,0
0.7865,6.0929e-05,0
0.787,4.3641e-05,0
0.7875,3.2731e-05,0
0.788,2.6017e-05,0
0.7885,1.9303e-05,0
0.789,1.2757e-05,0
0.7895,5.8747e-06,0
0.79,3.1891e-06,0
0.7905,6.0426e-06,0
0.791,7.5532e-06,0
0.7915,8.5603e-06,0
0.792,1.0575e-05,0
0.7925,8.2246e-06,0
0.793,3.357e-06,0
0.7935,5.035e-07,0
0.794,-1.6785e-06,0
0.7945,-3.5248e-06,0
0.795,3.0213e-06,0
0.7955,2.3163e-05,0
0.796,4.3641e-05,0
0.7965,5.7572e-05,0
0.797,5.9587e-05,0
0.7975,4.8844e-05,0
0.798,3.4409e-05,0
0.7985,2.4506e-05,0
0.799,1.7792e-05,0
0.7995,1.0742e-05,0
0.8,6.8818e-06,0
0.8005,8.5603e-06,0
0.801,1.4435e-05,0
0.8015,2.0981e-05,0
0.802,2.3835e-05,0
0.8025,2.652e-05,0
0.803,3.3906e-05,0
0.8035,4.2634e-05,0
0.804,4.683e-05,0
0.8045,4.1962e-05,0
0.805,3.2059e-05,0
0.8055,2.4674e-05,0
0.806,2.266e-05,0
0.8065,2.1988e-05,0
0.807,2.1317e-05,0
0.8075,1.8967e-05,0
0.808,1.4603e-05,0
0.8085,1.1917e-05,0
0.809,1.0407e-05,0
0.8095,9.9031e-06,0
0.81,8.0568e-06,0
0.8105,3.5248e-06,0
0.811,-1.6785e-06,0
0.8115,-2.182e-06,0
0.812,2.5177e-06,0
0.8125,5.2033e-06,0
0.813,4.8676e-06,0
0.8135,6.8818e-06,0
0.814,1.4435e-05,0
0.8145,2.1988e-05,0
0.815,2.5345e-05,0
0.8155,2.3667e-05,0
0.816,1.8463e-05,0
0.8165,1.3596e-05,0
0.817,1.1582e-05,0
0.8175,1.091e-05,0
0.818,1.091e-05,0
0.8185,8.896e-06,0
0.819,6.2104e-06,0
0.8195,5.2033e-06,0
0.82,5.8747e-06,0
0.8205,9.0639e-06,0
0.821,1.2421e-05,0
0.8215,1.4267e-05,0
0.822,1.4603e-05,0
0.8225,1.1582e-05,0
0.823,8.7282e-06,0
0.8235,5.7069e-06,0
0.824,2.8534e-06,0
0.8245,2.182e-06,0
0.825,6.0426e-06,0
0.8255,1.1414e-05,0
0.826,1.0239e-05,0
0.8265,3.0213e-06,0
0.827,1.8463e-06,0
0.8275,1.0575e-05,0
0.828,1.3764e-05,0
0.8285,9.2317e-06,0
0.829,1.9135e-05,0
0.8295,3.9109e-05,0
0.83,4.8173e-05,0
0.8305,4.213e-05,0
0.831,2.7359e-05,0
0.8315,1.5778e-05,0
0.832,1.2757e-05,0
0.8325,1.7456e-05,0
0.833,2.9374e-05,0
0.8335,4.4816e-05,0
0.834,5.8747e-05,0
0.8345,6.6972e-05,0
0.835,6.5629e-05,0
0.8355,5.623e-05,0
0.836,4.5823e-05,0
0.8365,3.743e-05,0
0.837,3.1052e-05,0
0.8375,2.6017e-05,0
0.838,2.2324e-05,0
0.8385,2.0142e-05,0
0.839,1.9135e-05,0
0.8395,1.7624e-05,0
0.84,1.5106e-05,0
0.8405,1.1917e-05,0
0.841,5.2033e-06,0
0.8415,-3.1891e-06,0
0.842,-9.5674e-06,0
0.8425,-1.1917e-05,0
0.843,-1.6449e-05,0
0.8435,-2.3667e-05,0
0.844,-3.3738e-05,0
0.8445,-4.1123e-05,0
0.845,-2.8534e-05,0
0.8455,6.5461e-06,0
0.846,3.9445e-05,0
0.8465,5.153e-05,0
0.847,5.0858e-05,0
0.8475,5.0187e-05,0
0.848,4.5823e-05,0
0.8485,3.2059e-05,0
0.849,1.5946e-05,0
0.8495,7.7211e-06,0
0.85,1.9303e-05,0
0.8505,4.8173e-05,0
0.851,7.1504e-05,0
0.8515,7.4021e-05,0
0.852,6.2272e-05,0
0.8525,4.8508e-05,0
0.853,3.8437e-05,0
0.8535,2.4338e-05,0
0.854,8.2246e-06,0
0.8545,5.8747e-06,0
0.855,1.5274e-05,0
0.8555,1.7121e-05,0
0.856,8.5603e-06,0
0.8565,-1.678e-07,0
0.857,5.035e-07,0
0.8575,9.7353e-06,0
0.858,1.561e-05,0
0.8585,1.326e-05,0
0.859,9.2317e-06,0
0.8595,9.2317e-06,0
0.86,1.4099e-05,0
0.8605,1.9638e-05,0
0.861,2.1653e-05,0
0.8615,1.7624e-05,0
0.862,7.7211e-06,0
0.8625,-6.0426e-06,0
0.863,-2.1653e-05,0
0.8635,-2.6352e-05,0
0.864,-9.9031e-06,0
0.8645,2.266e-05,0
0.865,4.7669e-05,0
0.8655,5.0355e-05,0
0.866,3.4241e-05,0
0.8665,1.2589e-05,0
0.867,2.182e-06,0
0.8675,1.2421e-05,0
0.868,2.9709e-05,0
0.8685,3.8437e-05,0
0.869,3.7766e-05,0
0.8695,3.3234e-05,0
0.87,2.8031e-05,0
0.8705,2.266e-05,0
0.871,1.6449e-05,0
0.8715,1.1917e-05,0
0.872,1.2085e-05,0
0.8725,1.8296e-05,0
0.873,2.3835e-05,0
0.8735,2.5681e-05,0
0.874,2.2828e-05,0
0.8745,1.8463e-05,0
0.875,1.4099e-05,0
0.8755,9.3996e-06,0
0.876,3.6927e-06,0
0.8765,-3.6927e-06,0
0.877,-1.561e-05,0
0.8775,-2.266e-05,0
0.878,-2.3331e-05,0
0.8785,-2.0981e-05,0
0.879,-1.3596e-05,0
0.8795,1.678e-07,0
0.88,2.0142e-05,0
0.8805,4.1795e-05,0
0.881,6.0761e-05,0
0.8815,7.0664e-05,0
0.882,6.4286e-05,0
0.8825,5.2872e-05,0
0.883,4.4144e-05,0
0.8835,3.4745e-05,0
0.884,2.6184e-05,0
0.8845,2.2828e-05,0
0.885,2.7359e-05,0
0.8855,3.3738e-05,0
0.886,3.6088e-05,0
0.8865,3.7095e-05,0
0.887,3.6759e-05,0
0.8875,3.2395e-05,0
0.888,2.6688e-05,0
0.8885,2.2492e-05,0
0.889,1.9638e-05,0
0.8895,1.7288e-05,0
0.89,1.3596e-05,0
0.8905,9.2317e-06,0
0.891,4.8676e-06,0
0.8915,3.1891e-06,0
0.892,3.5248e-06,0
0.8925,2.182e-06,0
0.893,-5.035e-07,0
0.8935,0,0
0.894,3.8605e-06,0
0.8945,7.5532e-06,0
0.895,4.8676e-06,0
0.8955,1.678e-07,0
0.896,4.1962e-06,0
0.8965,1.2924e-05,0
0.897,1.3092e-05,0
0.8975,6.2104e-06,0
0.898,3.5248e-06,0
0.8985,7.3854e-06,0
0.899,1.2589e-05,0
0.8995,1.9303e-05,0
0.9,2.4002e-05,0
0.9005,2.4842e-05,0
0.901,2.2995e-05,0
0.9015,2.6688e-05,0
0.902,3.6088e-05,0
0.9025,4.5823e-05,0
0.903,4.7501e-05,0
0.9035,4.0116e-05,0
0.904,3.0045e-05,0
0.9045,2.2995e-05,0
0.905,1.8967e-05,0
0.9055,1.5442e-05,0
0.906,1.1582e-05,0
0.9065,1.0575e-05,0
0.907,1.2253e-05,0
0.9075,1.326e-05,0
0.908,1.3596e-05,0
0.9085,1.7624e-05,0
0.909,2.0646e-05,0
0.9095,1.9806e-05,0
0.91,1.7121e-05,0
0.9105,1.5946e-05,0
0.911,1.5274e-05,0
0.9115,1.5946e-05,0
0.912,1.7792e-05,0
0.9125,1.8631e-05,0
0.913,1.9135e-05,0
0.9135,1.9974e-05,0
0.914,1.8967e-05,0
0.9145,1.7121e-05,0
0.915,1.4435e-05,0
0.9155,1.1917e-05,0
0.916,1.0239e-05,0
0.9165,1.0239e-05,0
0.917,1.1917e-05,0
0.9175,1.3764e-05,0
0.918,1.4267e-05,0
0.9185,1.6953e-05,0
0.919,2.4338e-05,0
0.9195,3.2059e-05,0
0.92,3.1388e-05,0
0.9205,2.4002e-05,0
0.921,1.8463e-05,0
0.9215,1.9303e-05,0
0.922,2.1317e-05,0
0.9225,2.2324e-05,0
0.923,2.0813e-05,0
0.9235,1.796e-05,0
0.924,1.5274e-05,0
0.9245,1.2924e-05,0
0.925,1.1749e-05,0
0.9255,1.3596e-05,0
0.926,1.3764e-05,0
0.9265,1.091e-05,0
0.927,1.2924e-05,0
0.9275,2.266e-05,0
0.928,3.1724e-05,0
0.9285,3.6255e-05,0
0.929,3.743e-05,0
0.9295,3.8437e-05,0
0.93,3.978e-05,0
0.9305,3.8773e-05,0
0.931,3.3402e-05,0
0.9315,2.7695e-05,0
0.932,2.1653e-05,0
0.9325,1.7792e-05,0
0.933,1.7121e-05,0
0.9335,1.8296e-05,0
0.934,1.8967e-05,0
0.9345,1.8799e-05,0
0.935,1.796e-05,0
0.9355,1.5946e-05,0
0.936,1.5946e-05,0
0.9365,1.7288e-05,0
0.937,1.8128e-05,0
0.9375,1.7624e-05,0
0.938,1.4603e-05,0
0.9385,1.4939e-05,0
0.939,1.796e-05,0
0.9395,1.7792e-05,0
0.94,1.2589e-05,0
0.9405,6.3783e-06,0
0.941,2.8534e-06,0
0.9415,-5.035e-07,0
0.942,-2.3499e-06,0
0.9425,-5.035e-07,0
0.943,2.8534e-06,0
0.9435,3.1891e-06,0
0.944,3.6927e-06,0
0.9445,8.896e-06,0
0.945,1.7792e-05,0
0.9455,1.9806e-05,0
0.946,1.326e-05,0
0.9465,9.2317e-06,0
0.947,1.3428e-05,0
0.9475,2.0813e-05,0
0.948,2.9877e-05,0
0.9485,3.508e-05,0
0.949,3.6591e-05,0
0.9495,4.0787e-05,0
0.95,4.4816e-05,0
0.9505,4.6159e-05,0
0.951,4.6494e-05,0
0.9515,4.4816e-05,0
0.952,3.8773e-05,0
0.9525,3.1388e-05,0
0.953,2.8031e-05,0
0.9535,2.5681e-05,0
0.954,2.0981e-05,0
0.9545,1.561e-05,0
0.955,1.326e-05,0
0.9555,1.7121e-05,0
0.956,2.1317e-05,0
0.9565,1.9974e-05,0
0.957,1.2924e-05,0
0.9575,3.8605e-06,0
0.958,-1.5106e-06,0
0.9585,-1.5106e-06,0
0.959,-5.035e-07,0
0.9595,3.357e-06,0
0.96,5.8747e-06,0
0.9605,8.0568e-06,0
0.961,1.8631e-05,0
0.9615,3.1388e-05,0
0.962,3.6088e-05,0
0.9625,3.1891e-05,0
0.963,2.6688e-05,0
0.9635,2.5009e-05,0
0.964,2.417e-05,0
0.9645,2.5849e-05,0
0.965,2.6352e-05,0
0.9655,2.1653e-05,0
0.966,1.5274e-05,0
0.9665,1.2924e-05,0
0.967,1.326e-05,0
0.9675,1.2757e-05,0
0.968,1.1246e-05,0
0.9685,1.1246e-05,0
0.969,1.2253e-05,0
0.9695,9.9031e-06,0
0.97,6.5461e-06,0
0.9705,9.0639e-06,0
0.971,1.6281e-05,0
0.9715,2.1317e-05,0
0.972,2.182e-05,0
0.9725,2.2995e-05,0
0.973,2.4002e-05,0
0.9735,2.3667e-05,0
0.974,2.266e-05,0
0.9745,2.0981e-05,0
0.975,1.9974e-05,0
0.9755,1.8631e-05,0
0.976,2.0478e-05,0
0.9765,2.4338e-05,0
0.977,2.5681e-05,0
0.9775,2.2828e-05,0
0.978,1.9638e-05,0
0.9785,1.796e-05,0
0.979,1.8967e-05,0
0.9795,1.8296e-05,0
0.98,1.5778e-05,0
0.9805,1.4771e-05,0
0.981,1.4939e-05,0
0.9815,1.3932e-05,0
0.982,9.9031e-06,0
0.9825,6.8818e-06,0
0.983,6.2104e-06,0
0.9835,3.5248e-06,0
0.984,-1.3428e-06,0
0.9845,-7.2175e-06,0
0.985,-9.5674e-06,0
0.9855,-3.8605e-06,0
0.986,9.3996e-06,0
0.9865,3.1556e-05,0
0.987,5.0858e-05,0
0.9875,5.6565e-05,0
0.988,5.5222e-05,0
0.9885,5.4383e-05,0
0.989,5.0858e-05,0
0.9895,4.4816e-05,0
0.99,3.743e-05,0
0.9905,3.1388e-05,0
0.991,2.6017e-05,0
0.9915,2.1317e-05,0
0.992,1.8631e-05,0
0.9925,1.8296e-05,0
0.993,1.8967e-05,0
0.9935,1.8799e-05,0
0.994,1.5946e-05,0
0.9945,1.3932e-05,0
0.995,1.2924e-05,0
0.9955,1.3428e-05,0
0.996,1.5274e-05,0
0.9965,1.5946e-05,0
0.997,1.6449e-05,0
0.9975,1.4939e-05,0
0.998,1.1749e-05,0
0.9985,1.0575e-05,0
0.999,1.1917e-05,0
0.9995,1.3764e-05,0
1,1.6449e-05,0
1.0005,1.8296e-05,0
1.001,1.5946e-05,0
1.0015,1.091e-05,0
1.002,8.896e-06,0
1.0025,6.3783e-06,0
1.003,8.392e-07,0
1.0035,-3.357e-06,0
1.004,-5.539e-06,0
1.0045,-4.5319e-06,0
1.005,-2.8534e-06,0
1.0055,3.8605e-06,0
1.006,1.7456e-05,0
1.0065,2.6688e-05,0
1.007,2.5009e-05,0
1.0075,2.031e-05,0
1.008,1.5274e-05,0
1.0085,2.6856e-06,0
1.009,-5.2033e-06,0
1.0095,2.8534e-06,0
1.01,2.1317e-05,0
1.0105,3.6591e-05,0
1.011,3.9445e-05,0
1.0115,3.827e-05,0
1.012,4.0787e-05,0
1.0125,4.683e-05,0
1.013,4.8173e-05,0
1.0135,4.1962e-05,0
1.014,3.4745e-05,0
1.0145,2.9374e-05,0
1.015,2.8031e-05,0
1.0155,2.7695e-05,0
1.016,2.4338e-05,0
1.0165,2.1317e-05,0
1.017,2.1988e-05,0
1.0175,2.266e-05,0
1.018,2.266e-05,0
1.0185,2.031e-05,0
1.019,1.6785e-05,0
1.0195,1.4267e-05,0
1.02,1.1414e-05,0
1.0205,1.0239e-05,0
1.021,1.0407e-05,0
1.0215,1.091e-05,0
1.022,1.1078e-05,0
1.0225,1.0575e-05,0
1.023,9.7353e-06,0
1.0235,7.5532e-06,0
1.024,6.2104e-06,0
1.0245,7.7211e-06,0
1.025,9.3996e-06,0
1.0255,7.8889e-06,0
1.026,8.2246e-06,0
1.0265,1.2924e-05,0
1.027,1.6281e-05,0
1.0275,1.3596e-05,0
1.028,5.7069e-06,0
1.0285,1.1749e-06,0
1.029,5.539e-06,0
1.0295,1.326e-05,0
1.03,2.2324e-05,0
1.0305,2.8031e-05,0
1.031,2.5345e-05,0
1.0315,2.0981e-05,0
1.032,2.2156e-05,0
1.0325,2.5177e-05,0
1.033,2.3499e-05,0
1.0335,2.0813e-05,0
1.034,2.4506e-05,0
1.0345,2.887e-05,0
1.035,3.0549e-05,0
1.0355,3.0045e-05,0
1.036,2.9374e-05,0
1.0365,2.7863e-05,0
1.037,2.4674e-05,0
1.0375,2.2492e-05,0
1.038,2.2492e-05,0
1.0385,2.0981e-05,0
1.039,1.796e-05,0
1.0395,1.8631e-05,0
1.04,2.031e-05,0
1.0405,2.1149e-05,0
1.041,2.0142e-05,0
1.0415,1.8967e-05,0
1.042,1.7288e-05,0
1.0425,1.4771e-05,0
1.043,1.2421e-05,0
1.0435,1.1078e-05,0
1.044,9.7353e-06,0
1.0445,8.3925e-06,0
1.045,6.8818e-06,0
1.0455,6.5461e-06,0
1.046,8.5603e-06,0
1.0465,1.4099e-05,0
1.047,2.2324e-05,0
1.0475,2.6352e-05,0
1.048,2.2492e-05,0
1.0485,1.4939e-05,0
1.049,1.0239e-05,0
1.0495,9.9031e-06,0
1.05,1.2757e-05,0
1.0505,1.5946e-05,0
1.051,1.796e-05,0
1.0515,1.796e-05,0
1.052,1.7288e-05,0
1.0525,1.9638e-05,0
1.053,2.7024e-05,0
1.0535,3.5416e-05,0
1.054,3.8773e-05,0
1.0545,3.4073e-05,0
1.055,2.6352e-05,0
1.0555,2.2995e-05,0
1.056,2.4002e-05,0
1.0565,2.4002e-05,0
1.057,2.1317e-05,0
1.0575,2.4506e-05,0
1.058,2.8534e-05,0
1.0585,2.8031e-05,0
1.059,2.4674e-05,0
1.0595,2.2156e-05,0
1.06,1.8967e-05,0
1.0605,1.326e-05,0
1.061,8.5603e-06,0
1.0615,6.2104e-06,0
1.062,3.8605e-06,0
1.0625,3.8605e-06,0
1.063,9.7353e-06,0
1.0635,1.6281e-05,0
1.064,2.0646e-05,0
1.0645,2.5345e-05,0
1.065,3.2898e-05,0
1.0655,4.0116e-05,0
1.066,4.2634e-05,0
1.0665,4.0116e-05,0
1.067,3.7766e-05,0
1.0675,3.5416e-05,0
1.068,3.0213e-05,0
1.0685,2.3499e-05,0
1.069,1.9303e-05,0
1.0695,1.8631e-05,0
1.07,1.9303e-05,0
1.0705,1.9974e-05,0
1.071,2.182e-05,0
1.0715,2.3331e-05,0
1.072,2.2156e-05,0
1.0725,1.9303e-05,0
1.073,1.7288e-05,0
1.0735,1.6617e-05,0
1.074,1.3596e-05,0
1.0745,9.9031e-06,0
1.075,7.3854e-06,0
1.0755,7.8889e-06,0
1.076,7.8889e-06,0
1.0765,7.7211e-06,0
1.077,9.9031e-06,0
1.0775,1.1582e-05,0
1.078,1.2421e-05,0
1.0785,1.2924e-05,0
1.079,1.0575e-05,0
1.0795,6.0426e-06,0
1.08,3.1891e-06,0
1.0805,3.8605e-06,0
1.081,8.5603e-06,0
1.0815,1.6953e-05,0
1.082,2.5345e-05,0
1.0825,3.0716e-05,0
1.083,3.1388e-05,0
1.0835,2.9038e-05,0
1.084,2.7024e-05,0
1.0845,2.6017e-05,0
1.085,2.2492e-05,0
1.0855,1.6953e-05,0
1.086,1.5778e-05,0
1.0865,1.9135e-05,0
1.087,2.0981e-05,0
1.0875,2.0981e-05,0
1.088,2.0142e-05,0
1.0885,1.8631e-05,0
1.089,1.7624e-05,0
1.0895,1.9303e-05,0
1.09,1.9974e-05,0
1.0905,1.796e-05,0
1.091,1.5442e-05,0
1.0915,1.3596e-05,0
1.092,1.4939e-05,0
1.0925,1.4603e-05,0
1.093,1.1246e-05,0
1.0935,9.2317e-06,0
1.094,1.0575e-05,0
1.0945,1.2253e-05,0
1.095,1.1917e-05,0
1.0955,1.1414e-05,0
1.096,1.091e-05,0
1.0965,1.0239e-05,0
1.097,1.091e-05,0
1.0975,1.326e-05,0
1.098,1.5442e-05,0
1.0985,1.8631e-05,0
1.099,2.1317e-05,0
1.0995,1.9974e-05,0
1.1,1.561e-05,0
1.1005,1.4267e-05,0
1.101,1.5274e-05,0
1.1015,1.8296e-05,0
1.102,2.266e-05,0
1.1025,2.5009e-05,0
1.103,2.3331e-05,0
1.1035,2.0478e-05,0
1.104,1.8631e-05,0
1.1045,1.8631e-05,0
1.105,1.9135e-05,0
1.1055,1.9638e-05,0
1.106,2.1317e-05,0
1.1065,2.4002e-05,0
1.107,2.5345e-05,0
1.1075,2.6017e-05,0
1.108,2.7192e-05,0
1.1085,2.6688e-05,0
1.109,2.3667e-05,0
1.1095,2.1149e-05,0
1.11,2.0981e-05,0
1.1105,2.1317e-05,0
1.111,1.9303e-05,0
1.1115,1.5946e-05,0
1.112,1.4267e-05,0
1.1125,1.4603e-05,0
1.113,1.561e-05,0
1.1135,1.6953e-05,0
1.114,1.7288e-05,0
1.1145,1.561e-05,0
1.115,1.4603e-05,0
1.1155,1.4603e-05,0
1.116,1.4603e-05,0
1.1165,1.3764e-05,0
1.117,1.326e-05,0
1.1175,1.326e-05,0
1.118,1.326e-05,0
1.1185,1.2253e-05,0
1.119,1.0407e-05,0
1.1195,9.7353e-06,0
1.12,1.0575e-05,0
1.1205,1.1582e-05,0
1.121,9.9031e-06,0
1.1215,8.3925e-06,0
1.122,9.9031e-06,0
1.1225,1.2421e-05,0
1.123,1.5946e-05,0
1.1235,1.7792e-05,0
1.124,1.9638e-05,0
1.1245,2.5009e-05,0
1.125,3.0381e-05,0
1.1255,3.2059e-05,0
1.126,2.9374e-05,0
1.1265,2.0646e-05,0
1.127,1.1414e-05,0
1.1275,5.539e-06,0
1.128,5.035e-07,0
1.1285,-2.182e-06,0
1.129,1.6785e-06,0
1.1295,1.2589e-05,0
1.13,1.9303e-05,0
1.1305,1.6281e-05,0
1.131,1.3092e-05,0
1.1315,1.947e-05,0
1.132,3.4577e-05,0
1.1325,4.918e-05,0
1.133,5.6565e-05,0
1.1335,5.6565e-05,0
1.134,5.1194e-05,0
1.1345,4.5151e-05,0
1.135,3.978e-05,0
1.1355,3.4073e-05,0
1.136,2.9709e-05,0
1.1365,2.7024e-05,0
1.137,2.5681e-05,0
1.1375,2.5345e-05,0
1.138,2.3667e-05,0
1.1385,2.1653e-05,0
1.139,2.0981e-05,0
1.1395,1.8967e-05,0
1.14,1.8967e-05,0
1.1405,2.1317e-05,0
1.141,2.3331e-05,0
1.1415,2.5177e-05,0
1.142,2.5513e-05,0
1.1425,2.4338e-05,0
1.143,2.2324e-05,0
1.1435,1.9974e-05,0
1.144,1.6953e-05,0
1.1445,1.5274e-05,0
1.145,1.5946e-05,0
1.1455,1.5274e-05,0
1.146,9.9031e-06,0
1.1465,4.1962e-06,0
1.147,1.678e-07,0
1.1475,-2.8534e-06,0
1.148,-2.8534e-06,0
1.1485,3.357e-06,0
1.149,1.561e-05,0
1.1495,2.652e-05,0
1.15,3.0213e-05,0
1.1505,2.9374e-05,0
1.151,2.7192e-05,0
1.1515,2.4002e-05,0
1.152,2.0478e-05,0
1.1525,1.6785e-05,0
1.153,1.4435e-05,0
1.1535,1.6617e-05,0
1.154,1.9974e-05,0
1.1545,2.182e-05,0
1.155,2.0646e-05,0
1.1555,1.8631e-05,0
1.156,1.7456e-05,0
1.1565,1.7624e-05,0
1.157,1.8463e-05,0
1.1575,1.6449e-05,0
1.158,1.3764e-05,0
1.1585,1.2589e-05,0
1.159,1.0239e-05,0
1.1595,9.2317e-06,0
1.16,1.0239e-05,0
1.1605,1.091e-05,0
1.161,1.1078e-05,0
1.1615,1.1582e-05,0
1.162,1.2589e-05,0
1.1625,1.1582e-05,0
1.163,8.896e-06,0
1.1635,1.0575e-05,0
1.164,1.6785e-05,0
1.1645,2.1149e-05,0
1.165,2.0981e-05,0
1.1655,1.8631e-05,0
1.166,1.6281e-05,0
1.1665,1.4603e-05,0
1.167,1.4939e-05,0
1.1675,1.4939e-05,0
1.168,1.8631e-05,0
1.1685,2.4506e-05,0
1.169,2.8367e-05,0
1.1695,2.652e-05,0
1.17,1.9974e-05,0
1.1705,1.561e-05,0
1.171,1.4939e-05,0
1.1715,1.6617e-05,0
1.172,1.7792e-05,0
1.1725,1.8463e-05,0
1.173,1.7624e-05,0
1.1735,1.8128e-05,0
1.174,1.947e-05,0
1.1745,1.9806e-05,0
1.175,2.0646e-05,0
1.1755,2.031e-05,0
1.176,1.9135e-05,0
1.1765,1.8296e-05,0
1.177,1.796e-05,0
1.1775,1.796e-05,0
1.178,1.6953e-05,0
1.1785,1.5778e-05,0
1.179,1.5946e-05,0
1.1795,1.6953e-05,0
1.18,1.7624e-05,0
1.1805,1.796e-05,0
1.181,1.5946e-05,0
1.1815,1.3092e-05,0
1.182,1.0575e-05,0
1.1825,8.7282e-06,0
1.183,9.5674e-06,0
1.1835,1.2085e-05,0
1.184,1.6617e-05,0
1.1845,2.2828e-05,0
1.185,2.8367e-05,0
1.1855,3.1724e-05,0
1.186,3.1891e-05,0
1.1865,3.0716e-05,0
1.187,2.8367e-05,0
1.1875,2.4002e-05,0
1.188,2.031e-05,0
1.1885,1.9974e-05,0
1.189,2.1988e-05,0
1.1895,2.5009e-05,0
1.19,2.7359e-05,0
1.1905,2.9038e-05,0
1.191,2.8031e-05,0
1.1915,2.6017e-05,0
1.192,2.4002e-05,0
1.1925,2.3331e-05,0
1.193,2.3331e-05,0
1.1935,2.4002e-05,0
1.194,2.5681e-05,0
1.1945,2.5177e-05,0
1.195,2.3667e-05,0
1.1955,2.1317e-05,0
1.196,1.8296e-05,0
1.1965,1.5946e-05,0
1.197,1.561e-05,0
1.1975,1.6114e-05,0
1.198,1.4939e-05,0
1.1985,1.3596e-05,0
1.199,1.0575e-05,0
1.1995,7.8889e-06,0
1.2,9.0639e-06,0
1.2005,1.1749e-05,0
1.201,1.4939e-05,0
1.2015,1.8296e-05,0
1.202,1.9303e-05,0
1.2025,1.8967e-05,0
1.203,2.0981e-05,0
1.2035,2.2324e-05,0
1.204,2.182e-05,0
1.2045,2.2156e-05,0
1.205,2.4002e-05,0
1.2055,2.5009e-05,0
1.206,2.2156e-05,0
1.2065,1.6449e-05,0
1.207,9.9031e-06,0
1.2075,6.5461e-06,0
1.208,4.3641e-06,0
1.2085,3.0213e-06,0
1.209,9.5674e-06,0
1.2095,2.0478e-05,0
1.21,2.1317e-05,0
1.2105,1.7792e-05,0
1.211,1.9974e-05,0
1.2115,2.266e-05,0
1.212,2.0813e-05,0
1.2125,1.796e-05,0
1.213,1.6449e-05,0
1.2135,1.8463e-05,0
1.214,2.6688e-05,0
1.2145,3.3402e-05,0
1.215,3.1052e-05,0
1.2155,2.4002e-05,0
1.216,1.7624e-05,0
1.2165,1.8631e-05,0
1.217,2.6688e-05,0
1.2175,3.3402e-05,0
1.218,3.4241e-05,0
1.2185,2.8702e-05,0
1.219,2.3667e-05,0
1.2195,2.1317e-05,0
1.22,2.0478e-05,0
1.2205,1.9806e-05,0
1.221,1.8967e-05,0
1.2215,1.7624e-05,0
1.222,1.561e-05,0
1.2225,1.5106e-05,0
1.223,1.6617e-05,0
1.2235,1.796e-05,0
1.224,1.6281e-05,0
1.2245,1.1917e-05,0
1.225,8.896e-06,0
1.2255,8.896e-06,0
1.226,1.1749e-05,0
1.2265,1.2924e-05,0
1.227,1.326e-05,0
1.2275,1.3092e-05,0
1.228,1.2757e-05,0
1.2285,1.4267e-05,0
1.229,1.796e-05,0
1.2295,2.031e-05,0
1.23,1.9806e-05,0
1.2305,1.8128e-05,0
1.231,1.6953e-05,0
1.2315,1.5946e-05,0
1.232,1.3596e-05,0
1.2325,1.2253e-05,0
1.233,1.326e-05,0
1.2335,1.5442e-05,0
1.234,1.8296e-05,0
1.2345,2.1317e-05,0
1.235,2.2324e-05,0
1.2355,2.0981e-05,0
1.236,2.1653e-05,0
1.2365,2.3331e-05,0
1.237,2.182e-05,0
1.2375,1.7288e-05,0
1.238,1.3596e-05,0
1.2385,1.6281e-05,0
1.239,2.0646e-05,0
1.2395,2.1653e-05,0
1.24,1.7792e-05,0
1.2405,1.2253e-05,0
1.241,1.1246e-05,0
1.2415,1.2253e-05,0
1.242,9.5674e-06,0
1.2425,5.8747e-06,0
1.243,8.2246e-06,0
1.2435,1.4603e-05,0
1.244,2.3163e-05,0
1.2445,3.0549e-05,0
1.245,3.2059e-05,0
1.2455,2.7863e-05,0
1.246,2.6688e-05,0
1.2465,2.9374e-05,0
1.247,3.1556e-05,0
1.2475,3.122e-05,0
1.248,3.0045e-05,0
1.2485,2.7024e-05,0
1.249,2.1988e-05,0
1.2495,2.1149e-05,0
1.25,2.5009e-05,0
1.2505,2.8367e-05,0
1.251,2.6017e-05,0
1.2515,2.1653e-05,0
1.252,1.8463e-05,0
1.2525,1.6617e-05,0
1.253,1.5946e-05,0
1.2535,1.561e-05,0
1.254,1.3764e-05,0
1.2545,1.2253e-05,0
1.255,1.2253e-05,0
1.2555,1.1917e-05,0
1.256,1.1246e-05,0
1.2565,1.1582e-05,0
1.257,1.2924e-05,0
1.2575,1.3092e-05,0
1.258,1.2253e-05,0
1.2585,1.2589e-05,0
1.259,1.1414e-05,0
1.2595,9.2317e-06,0
1.26,7.8889e-06,0
1.2605,7.8889e-06,0
1.261,8.896e-06,0
1.2615,1.0239e-05,0
1.262,1.0575e-05,0
1.2625,1.2924e-05,0
1.263,1.8967e-05,0
1.2635,2.6688e-05,0
1.264,3.1891e-05,0
1.2645,3.1556e-05,0
1.265,2.7527e-05,0
1.2655,2.4674e-05,0
1.266,2.4002e-05,0
1.2665,2.2324e-05,0
1.267,1.9135e-05,0
1.2675,1.6617e-05,0
1.268,1.7121e-05,0
1.2685,1.9638e-05,0
1.269,2.3331e-05,0
1.2695,2.9374e-05,0
1.27,3.3402e-05,0
1.2705,3.1052e-05,0
1.271,2.5345e-05,0
1.2715,2.1149e-05,0
1.272,2.0646e-05,0
1.2725,2.0646e-05,0
1.273,1.8463e-05,0
1.2735,1.6785e-05,0
1.274,1.6449e-05,0
1.2745,1.6281e-05,0
1.275,1.6617e-05,0
1.2755,1.6617e-05,0
1.276,1.5778e-05,0
1.2765,1.326e-05,0
1.277,1.2757e-05,0
1.2775,1.3764e-05,0
1.278,1.3932e-05,0
1.2785,1.2924e-05,0
1.279,1.3764e-05,0
1.2795,1.4603e-05,0
1.28,1.3764e-05,0
1.2805,1.1246e-05,0
1.281,7.7211e-06,0
1.2815,3.8605e-06,0
1.282,5.0355e-06,0
1.2825,6.8818e-06,0
1.283,4.1962e-06,0
1.2835,2.182e-06,0
1.284,2.5177e-06,0
1.2845,4.1962e-06,0
1.285,8.2246e-06,0
1.2855,1.4603e-05,0
1.286,2.182e-05,0
1.2865,2.6017e-05,0
1.287,2.8702e-05,0
1.2875,2.9038e-05,0
1.288,2.6352e-05,0
1.2885,2.4002e-05,0
1.289,2.4674e-05,0
1.2895,2.3163e-05,0
1.29,2.1317e-05,0
1.2905,3.1052e-05,0
1.291,4.1795e-05,0
1.2915,4.2298e-05,0
1.292,3.6423e-05,0
1.2925,2.9038e-05,0
1.293,2.0981e-05,0
1.2935,1.5946e-05,0
1.294,1.3764e-05,0
1.2945,1.9303e-05,0
1.295,3.1388e-05,0
1.2955,3.7934e-05,0
1.296,3.3066e-05,0
1.2965,2.7359e-05,0
1.297,2.6856e-05,0
1.2975,2.652e-05,0
1.298,2.4002e-05,0
1.2985,2.1149e-05,0
1.299,2.031e-05,0
1.2995,1.8631e-05,0
1.3,1.4939e-05,0
1.3005,1.2589e-05,0
1.301,1.1917e-05,0
1.3015,1.1917e-05,0
1.302,1.0575e-05,0
1.3025,9.7353e-06,0
1.303,9.7353e-06,0
1.3035,1.0071e-05,0
1.304,9.9031e-06,0
1.3045,1.1749e-05,0
1.305,1.3932e-05,0
1.3055,1.4267e-05,0
1.306,1.1749e-05,0
1.3065,8.3925e-06,0
1.307,5.8747e-06,0
1.3075,7.8889e-06,0
1.308,1.5946e-05,0
1.3085,2.4338e-05,0
1.309,2.7192e-05,0
1.3095,2.3667e-05,0
1.31,1.6449e-05,0
1.3105,7.8889e-06,0
1.311,4.8676e-06,0
1.3115,1.2421e-05,0
1.312,2.4002e-05,0
1.3125,3.3402e-05,0
1.313,3.6088e-05,0
1.3135,3.0884e-05,0
1.314,2.2156e-05,0
1.3145,1.6617e-05,0
1.315,1.6617e-05,0
1.3155,2.0478e-05,0
1.316,2.6017e-05,0
1.3165,2.8031e-05,0
1.317,2.4002e-05,0
1.3175,1.947e-05,0
1.318,1.8631e-05,0
1.3185,1.9974e-05,0
1.319,1.9135e-05,0
1.3195,1.7288e-05,0
1.32,1.6617e-05,0
1.3205,1.7624e-05,0
1.321,2.031e-05,0
1.3215,2.0981e-05,0
1.322,1.8967e-05,0
1.3225,1.8463e-05,0
1.323,1.8631e-05,0
1.3235,1.9974e-05,0
1.324,2.0478e-05,0
1.3245,2.0646e-05,0
1.325,1.8631e-05,0
1.3255,1.5274e-05,0
1.326,1.326e-05,0
1.3265,1.3596e-05,0
1.327,1.2589e-05,0
1.3275,1.0239e-05,0
1.328,7.3854e-06,0
1.3285,2.5177e-06,0
1.329,-5.035e-07,0
1.3295,4.5319e-06,0
1.33,1.4435e-05,0
1.3305,2.1317e-05,0
1.331,2.2995e-05,0
1.3315,2.652e-05,0
1.332,2.9877e-05,0
1.3325,3.1388e-05,0
1.333,3.3402e-05,0
1.3335,3.5416e-05,0
1.334,3.2731e-05,0
1.3345,2.6017e-05,0
1.335,2.1317e-05,0
1.3355,2.2324e-05,0
1.336,2.7527e-05,0
1.3365,3.0381e-05,0
1.337,2.7863e-05,0
1.3375,2.266e-05,0
1.338,1.8967e-05,0
1.3385,1.796e-05,0
1.339,1.5946e-05,0
1.3395,1.2589e-05,0
1.34,1.2757e-05,0
1.3405,1.5778e-05,0
1.341,1.6953e-05,0
1.3415,1.5946e-05,0
1.342,1.4939e-05,0
1.3425,1.5946e-05,0
1.343,1.6281e-05,0
1.3435,1.4939e-05,0
1.344,1.2757e-05,0
1.3445,1.3092e-05,0
1.345,1.2924e-05,0
1.3455,1.1414e-05,0
1.346,1.091e-05,0
1.3465,1.2421e-05,0
1.347,1.4771e-05,0
1.3475,1.6617e-05,0
1.348,1.5274e-05,0
1.3485,1.1917e-05,0
1.349,1.2924e-05,0
1.3495,1.5778e-05,0
1.35,1.6617e-05,0
1.3505,1.6449e-05,0
1.351,1.5946e-05,0
1.3515,1.6449e-05,0
1.352,1.5946e-05,0
1.3525,1.2589e-05,0
1.353,7.8889e-06,0
1.3535,7.5532e-06,0
1.354,7.2175e-06,0
1.3545,5.7069e-06,0
1.355,3.6927e-06,0
1.3555,1.3428e-06,0
1.356,-5.035e-07,0
1.3565,2.182e-06,0
1.357,1.1917e-05,0
1.3575,2.2492e-05,0
1.358,2.3499e-05,0
1.3585,1.5274e-05,0
1.359,6.8818e-06,0
1.3595,1.0575e-05,0
1.36,2.6688e-05,0
1.3605,4.448e-05,0
1.361,5.6062e-05,0
1.3615,5.9587e-05,0
1.362,5.6062e-05,0
1.3625,4.9515e-05,0
1.363,4.2802e-05,0
1.3635,3.5752e-05,0
1.364,2.9038e-05,0
1.3645,2.7695e-05,0
1.365,2.9877e-05,0
1.3655,2.7192e-05,0
1.366,2.2324e-05,0
1.3665,2.1149e-05,0
1.367,2.1317e-05,0
1.3675,2.1317e-05,0
1.368,2.2324e-05,0
1.3685,2.4002e-05,0
1.369,2.2492e-05,0
1.3695,1.8631e-05,0
1.37,1.7456e-05,0
1.3705,1.796e-05,0
1.371,1.561e-05,0
1.3715,1.2589e-05,0
1.372,1.2589e-05,0
1.3725,1.3428e-05,0
1.373,1.2589e-05,0
1.3735,1.1246e-05,0
1.374,1.1246e-05,0
1.3745,1.2085e-05,0
1.375,1.4267e-05,0
1.3755,1.5946e-05,0
1.376,1.4603e-05,0
1.3765,1.3932e-05,0
1.377,1.4603e-05,0
1.3775,1.561e-05,0
1.378,1.5946e-05,0
1.3785,1.7121e-05,0
1.379,1.8799e-05,0
1.3795,1.9303e-05,0
1.38,1.8463e-05,0
1.3805,1.9135e-05,0
1.381,1.8463e-05,0
1.3815,1.5442e-05,0
1.382,1.326e-05,0
1.3825,9.2317e-06,0
1.383,6.8818e-06,0
1.3835,6.8818e-06,0
1.384,6.5461e-06,0
1.3845,4.5319e-06,0
1.385,2.5177e-06,0
1.3855,4.5319e-06,0
1.386,1.2757e-05,0
1.3865,1.7288e-05,0
1.387,1.7121e-05,0
1.3875,1.7288e-05,0
1.388,1.8463e-05,0
1.3885,1.9303e-05,0
1.389,2.1988e-05,0
1.3895,2.2156e-05,0
1.39,2.2324e-05,0
1.3905,2.5681e-05,0
1.391,2.6352e-05,0
1.3915,2.4002e-05,0
1.392,2.4002e-05,0
1.3925,2.5009e-05,0
1.393,2.4674e-05,0
1.3935,2.3667e-05,0
1.394,2.2156e-05,0
1.3945,2.3163e-05,0
1.395,2.6352e-05,0
1.3955,2.9206e-05,0
1.396,2.9038e-05,0
1.3965,2.6017e-05,0
1.397,2.182e-05,0
1.3975,1.8967e-05,0
1.398,1.796e-05,0
1.3985,1.8631e-05,0
1.399,1.9135e-05,0
1.3995,1.8631e-05,0
1.4,1.9974e-05,0
1.4005,2.1988e-05,0
1.401,2.1317e-05,0
1.4015,1.6449e-05,0
1.402,1.2589e-05,0
1.4025,1.2924e-05,0
1.403,1.4603e-05,0
1.4035,1.4603e-05,0
1.404,1.1414e-05,0
1.4045,9.2317e-06,0
1.405,9.9031e-06,0
1.4055,1.2253e-05,0
1.406,1.2589e-05,0
1.4065,1.1582e-05,0
1.407,1.0239e-05,0
1.4075,1.2924e-05,0
1.408,2.266e-05,0
1.4085,3.2059e-05,0
1.409,3.5248e-05,0
1.4095,3.5752e-05,0
1.41,3.6759e-05,0
1.4105,3.9948e-05,0
1.411,4.1291e-05,0
1.4115,3.7934e-05,0
1.412,3.2395e-05,0
1.4125,2.5681e-05,0
1.413,1.9638e-05,0
1.4135,1.9135e-05,0
1.414,2.0646e-05,0
1.4145,1.9303e-05,0
1.415,1.796e-05,0
1.4155,1.9638e-05,0
1.416,2.0813e-05,0
1.4165,2.1653e-05,0
1.417,2.2156e-05,0
1.4175,2.0478e-05,0
1.418,1.7456e-05,0
1.4185,1.5946e-05,0
1.419,1.6281e-05,0
1.4195,1.6617e-05,0
1.42,1.5106e-05,0
1.4205,1.2589e-05,0
1.421,9.3996e-06,0
1.4215,8.5603e-06,0
1.422,8.3925e-06,0
1.4225,7.8889e-06,0
1.423,5.8747e-06,0
1.4235,3.8605e-06,0
1.424,3.8605e-06,0
1.4245,3.6927e-06,0
1.425,3.1891e-06,0
1.4255,4.6998e-06,0
1.426,7.8889e-06,0
1.4265,1.0239e-05,0
1.427,9.9031e-06,0
1.4275,9.7353e-06,0
1.428,1.0575e-05,0
1.4285,9.9031e-06,0
1.429,6.3783e-06,0
1.4295,8.0568e-06,0
1.43,1.9135e-05,0
1.4305,3.5416e-05,0
1.431,4.3977e-05,0
1.4315,3.8437e-05,0
1.432,2.8534e-05,0
1.4325,2.4002e-05,0
1.433,2.3667e-05,0
1.4335,2.266e-05,0
1.434,2.0478e-05,0
1.4345,1.8631e-05,0
1.435,1.8631e-05,0
1.4355,1.7624e-05,0
1.436,1.5778e-05,0
1.4365,1.6449e-05,0
1.437,1.9638e-05,0
1.4375,2.1317e-05,0
1.438,2.031e-05,0
1.4385,1.796e-05,0
1.439,1.9303e-05,0
1.4395,2.417e-05,0
1.44,2.652e-05,0
1.4405,2.266e-05,0
1.441,1.7288e-05,0
1.4415,1.2757e-05,0
1.442,1.2924e-05,0
1.4425,1.6281e-05,0
1.443,1.6617e-05,0
1.4435,1.3932e-05,0
1.444,1.326e-05,0
1.4445,1.4435e-05,0
1.445,1.2757e-05,0
1.4455,1.0575e-05,0
1.446,1.0071e-05,0
1.4465,1.0407e-05,0
1.447,1.1246e-05,0
1.4475,1.3764e-05,0
1.448,1.7624e-05,0
1.4485,2.2995e-05,0
1.449,2.3835e-05,0
1.4495,2.1653e-05,0
1.45,2.0478e-05,0
1.4505,2.0981e-05,0
1.451,2.3331e-05,0
1.4515,2.3667e-05,0
1.452,1.8463e-05,0
1.4525,1.4939e-05,0
1.453,1.5946e-05,0
1.4535,1.6617e-05,0
1.454,1.7121e-05,0
1.4545,1.7288e-05,0
1.455,1.9974e-05,0
1.4555,2.4674e-05,0
1.456,2.6184e-05,0
1.4565,2.9542e-05,0
1.457,3.6088e-05,0
1.4575,4.0787e-05,0
1.458,3.9109e-05,0
1.4585,3.2898e-05,0
1.459,2.7695e-05,0
1.4595,2.7359e-05,0
1.46,2.7359e-05,0
1.4605,2.5345e-05,0
1.461,2.4842e-05,0
1.4615,2.4002e-05,0
1.462,2.1317e-05,0
1.4625,1.8631e-05,0
1.463,1.796e-05,0
1.4635,1.8967e-05,0
1.464,2.031e-05,0
1.4645,1.9974e-05,0
1.465,1.7792e-05,0
1.4655,1.4939e-05,0
1.466,1.4099e-05,0
1.4665,1.4435e-05,0
1.467,1.4603e-05,0
1.4675,1.6617e-05,0
1.468,1.7288e-05,0
1.4685,1.6449e-05,0
1.469,1.561e-05,0
1.4695,1.4435e-05,0
1.47,1.1917e-05,0
1.4705,1.1582e-05,0
1.471,1.326e-05,0
1.4715,1.7624e-05,0
1.472,1.9638e-05,0
1.4725,1.5946e-05,0
1.473,1.0575e-05,0
1.4735,7.7211e-06,0
1.474,7.8889e-06,0
1.4745,9.9031e-06,0
1.475,1.2253e-05,0
1.4755,1.4603e-05,0
1.476,1.796e-05,0
1.4765,1.9806e-05,0
1.477,1.7792e-05,0
1.4775,1.5778e-05,0
1.478,1.5274e-05,0
1.4785,1.4435e-05,0
1.479,1.1917e-05,0
1.4795,8.896e-06,0
1.48,4.3641e-06,0
1.4805,8.392e-07,0
1.481,8.392e-07,0
1.4815,5.539e-06,0
1.482,8.5603e-06,0
1.4825,7.5532e-06,0
1.483,3.8605e-06,0
1.4835,4.3641e-06,0
1.484,1.4603e-05,0
1.4845,2.8367e-05,0
1.485,3.9277e-05,0
1.4855,4.7501e-05,0
1.486,5.2872e-05,0
1.4865,5.153e-05,0
1.487,4.4984e-05,0
1.4875,3.8437e-05,0
1.488,3.2731e-05,0
1.4885,2.7695e-05,0
1.489,2.3331e-05,0
1.4895,2.2995e-05,0
1.49,2.5009e-05,0
1.4905,2.4002e-05,0
1.491,2.031e-05,0
1.4915,1.561e-05,0
1.492,1.3932e-05,0
1.4925,1.5106e-05,0
1.493,1.5274e-05,0
1.4935,1.5946e-05,0
1.494,1.7624e-05,0
1.4945,1.8631e-05,0
1.495,1.9303e-05,0
1.4955,1.6785e-05,0
1.496,1.2589e-05,0
1.4965,9.7353e-06,0
1.497,1.2421e-05,0
1.4975,1.7456e-05,0
1.498,1.8463e-05,0
1.4985,1.6449e-05,0
1.499,1.9974e-05,0
1.4995,2.8367e-05,0
1.5,3.1052e-05,0
1.5005,2.6688e-05,0
1.501,1.9638e-05,0
1.5015,1.3428e-05,0
1.502,1.0575e-05,0
1.5025,1.1414e-05,0
1.503,1.2421e-05,0
1.5035,1.2085e-05,0
1.504,1.3092e-05,0
1.5045,1.5946e-05,0
1.505,1.9974e-05,0
1.5055,2.0478e-05,0
1.506,1.6953e-05,0
1.5065,1.4603e-05,0
1.507,1.5274e-05,0
1.5075,1.6281e-05,0
1.508,1.5946e-05,0
1.5085,1.4939e-05,0
1.509,1.1917e-05,0
1.5095,7.8889e-06,0
1.51,5.2033e-06,0
1.5105,3.6927e-06,0
1.511,3.8605e-06,0
1.5115,3.357e-06,0
1.512,5.0355e-06,0
1.5125,1.7121e-05,0
1.513,3.0549e-05,0
1.5135,3.5416e-05,0
1.514,3.122e-05,0
1.5145,2.5681e-05,0
1.515,2.2995e-05,0
1.5155,2.0981e-05,0
1.516,1.6785e-05,0
1.5165,1.3932e-05,0
1.517,1.9638e-05,0
1.5175,2.9709e-05,0
1.518,3.743e-05,0
1.5185,3.6759e-05,0
1.519,3.2731e-05,0
1.5195,3.3066e-05,0
1.52,3.508e-05,0
1.5205,3.3234e-05,0
1.521,3.0381e-05,0
1.5215,3.0045e-05,0
1.522,2.7359e-05,0
1.5225,2.1653e-05,0
1.523,1.8296e-05,0
1.5235,1.6617e-05,0
1.524,1.4267e-05,0
1.5245,1.3428e-05,0
1.525,1.326e-05,0
1.5255,1.1414e-05,0
1.526,8.896e-06,0
1.5265,7.0497e-06,0
1.527,6.5461e-06,0
1.5275,7.8889e-06,0
1.528,7.5532e-06,0
1.5285,5.2033e-06,0
1.529,2.8534e-06,0
1.5295,3.0213e-06,0
1.53,6.5461e-06,0
1.5305,1.4771e-05,0
1.531,2.6688e-05,0
1.5315,3.3402e-05,0
1.532,2.9374e-05,0
1.5325,1.9806e-05,0
1.533,1.326e-05,0
1.5335,1.1078e-05,0
1.534,1.1078e-05,0
1.5345,1.561e-05,0
1.535,2.3163e-05,0
1.5355,2.7359e-05,0
1.536,2.6017e-05,0
1.5365,2.0981e-05,0
1.537,1.3596e-05,0
1.5375,1.0071e-05,0
1.538,1.1582e-05,0
1.5385,1.4267e-05,0
1.539,1.5946e-05,0
1.5395,1.4939e-05,0
1.54,1.1917e-05,0
1.5405,7.7211e-06,0
1.541,6.5461e-06,0
1.5415,1.1917e-05,0
1.542,1.2924e-05,0
1.5425,7.2175e-06,0
1.543,4.1962e-06,0
1.5435,9.3996e-06,0
1.544,2.3667e-05,0
1.5445,3.9109e-05,0
1.545,4.7501e-05,0
1.5455,4.683e-05,0
1.546,4.0787e-05,0
1.5465,3.7766e-05,0
1.547,3.743e-05,0
1.5475,3.5416e-05,0
1.548,3.2731e-05,0
1.5485,2.9206e-05,0
1.549,2.6352e-05,0
1.5495,2.5513e-05,0
1.55,2.4002e-05,0
1.5505,2.2324e-05,0
1.551,2.031e-05,0
1.5515,1.7624e-05,0
1.552,1.6617e-05,0
1.5525,1.7792e-05,0
1.553,1.8631e-05,0
1.5535,1.8128e-05,0
1.554,1.6114e-05,0
1.5545,1.4267e-05,0
1.555,1.2924e-05,0
1.5555,9.3996e-06,0
1.556,7.2175e-06,0
1.5565,8.2246e-06,0
1.557,9.2317e-06,0
1.5575,8.5603e-06,0
1.558,9.9031e-06,0
1.5585,1.9638e-05,0
1.559,3.0716e-05,0
1.5595,3.122e-05,0
1.56,2.3331e-05,0
1.5605,1.5274e-05,0
1.561,1.1917e-05,0
1.5615,1.0407e-05,0
1.562,7.5532e-06,0
1.5625,2.5177e-06,0
1.563,8.392e-07,0
1.5635,6.0426e-06,0
1.564,9.9031e-06,0
1.5645,3.0213e-06,0
1.565,-7.7211e-06,0
1.5655,-1.0407e-05,0
1.566,-7.5532e-06,0
1.5665,-2.0142e-06,0
1.567,5.7069e-06,0
1.5675,1.0575e-05,0
1.568,1.6617e-05,0
1.5685,2.9374e-05,0
1.569,4.5487e-05,0
1.5695,5.623e-05,0
1.57,5.7908e-05,0
1.5705,5.2033e-05,0
1.571,4.5319e-05,0
1.5715,4.0452e-05,0
1.572,3.8102e-05,0
1.5725,3.5752e-05,0
1.573,3.4745e-05,0
1.5735,3.6759e-05,0
1.574,3.9445e-05,0
1.5745,4.0116e-05,0
1.575,3.6423e-05,0
1.5755,3.2059e-05,0
1.576,3.0549e-05,0
1.5765,3.0045e-05,0
1.577,2.8702e-05,0
1.5775,2.5513e-05,0
1.578,2.0981e-05,0
1.5785,1.7288e-05,0
1.579,1.8296e-05,0
1.5795,2.182e-05,0
1.58,2.4002e-05,0
1.5805,2.4002e-05,0
1.581,2.1317e-05,0
1.5815,1.8463e-05,0
1.582,1.4267e-05,0
1.5825,8.896e-06,0
1.583,1.0071e-06,0
1.5835,-9.3996e-06,0
1.584,-1.3596e-05,0
1.5845,-9.2317e-06,0
1.585,-3.5248e-06,0
1.5855,-1.6785e-06,0
1.586,0,0
1.5865,4.8676e-06,0
1.587,1.1078e-05,0
1.5875,1.6617e-05,0
1.588,2.5681e-05,0
1.5885,4.0116e-05,0
1.589,5.4048e-05,0
1.5895,6.4958e-05,0
1.59,7.5364e-05,0
1.5905,8.426e-05,0
1.591,9.0135e-05,0
1.5915,9.2317e-05,0
1.592,9.2317e-05,0
1.5925,9.3828e-05,0
1.593,9.3828e-05,0
1.5935,8.6778e-05,0
1.594,6.9322e-05,0
1.5945,4.2802e-05,0
1.595,1.4435e-05,0
1.5955,-1.0071e-05,0
1.596,-3.0381e-05,0
1.5965,-4.4648e-05,0
1.597,-5.388e-05,0
1.5975,-5.9922e-05,0
1.598,-6.7979e-05,0
1.5985,-7.4021e-05,0
1.599,-6.714e-05,0
1.5995,-4.7837e-05,0
1.6,-2.1988e-05,0
1.6005,-2.8534e-06,0
1.601,9.9031e-06,0
1.6015,2.6017e-05,0
1.602,4.2298e-05,0
1.6025,5.1194e-05,0
1.603,4.7837e-05,0
1.6035,3.0549e-05,0
1.604,1.1246e-05,0
1.6045,-1.5106e-06,0
1.605,-1.2589e-05,0
1.6055,-2.1653e-05,0
1.606,-2.7527e-05,0
1.6065,-3.7095e-05,0
1.607,-5.4383e-05,0
1.6075,-7.0329e-05,0
1.608,-7.7714e-05,0
1.6085,-7.8721e-05,0
1.609,-7.7043e-05,0
1.6095,-7.1336e-05,0
1.61,-6.0761e-05,0
1.6105,-4.7669e-05,0
1.611,-3.5416e-05,0
1.6115,-2.7695e-05,0
1.612,-2.4338e-05,0
1.6125,-2.2828e-05,0
1.613,-1.8631e-05,0
1.6135,-9.2317e-06,0
1.614,5.2033e-06,0
1.6145,1.8296e-05,0
1.615,2.5681e-05,0
1.6155,3.1724e-05,0
1.616,3.8773e-05,0
1.6165,4.4816e-05,0
1.617,5.0858e-05,0
1.6175,6.7979e-05,0
1.618,9.7688e-05,0
1.6185,0.00012404,0
1.619,0.00013143,0
1.6195,0.00012052,0
1.62,0.00010306,0
1.6205,9.8527e-05,0
1.621,0.000118,0
1.6215,0.00014351,0
1.622,0.00015341,0
1.6225,0.00014687,0
1.623,0.0001326,0
1.6235,0.00011196,0
1.624,8.2414e-05,0
1.6245,5.4383e-05,0
1.625,3.1052e-05,0
1.6255,6.0426e-06,0
1.626,-2.031e-05,0
1.6265,-4.1627e-05,0
1.627,-5.388e-05,0
1.6275,-6.3447e-05,0
1.628,-7.5029e-05,0
1.6285,-8.191e-05,0
1.629,-7.805e-05,0
1.6295,-6.9657e-05,0
1.63,-6.1936e-05,0
1.6305,-4.7669e-05,0
1.631,-2.4842e-05,0
1.6315,-1.6785e-06,0
1.632,1.4939e-05,0
1.6325,2.7863e-05,0
1.633,3.1891e-05,0
1.6335,2.8702e-05,0
1.634,2.6184e-05,0
1.6345,2.8702e-05,0
1.635,3.1052e-05,0
1.6355,3.1052e-05,0
1.636,2.5681e-05,0
1.6365,1.9974e-05,0
1.637,1.8631e-05,0
1.6375,1.3764e-05,0
1.638,8.392e-07,0
1.6385,-1.4939e-05,0
1.639,-2.4674e-05,0
1.6395,-1.7624e-05,0
1.64,1.0575e-05,0
1.6405,5.0523e-05,0
1.641,8.0903e-05,0
1.6415,9.8527e-05,0
1.642,0.00011044,0
1.6425,0.00011565,0
1.643,0.00011531,0
1.6435,0.0001091,0
1.644,9.8527e-05,0
1.6445,8.7785e-05,0
1.645,7.805e-05,0
1.6455,6.7643e-05,0
1.646,5.1865e-05,0
1.6465,3.2898e-05,0
1.647,1.6953e-05,0
1.6475,4.0284e-06,0
1.648,-4.3641e-06,0
1.6485,-5.8747e-06,0
1.649,-9.2317e-06,0
1.6495,-1.5946e-05,0
1.65,-2.4338e-05,0
1.6505,-3.0381e-05,0
1.651,-2.2492e-05,0
1.6515,6.714e-07,0
1.652,2.9374e-05,0
1.6525,5.2033e-05,0
1.653,6.6972e-05,0
1.6535,8.1071e-05,0
1.654,9.4331e-05,0
1.6545,0.00010239,0
1.655,9.7688e-05,0
1.6555,8.0232e-05,0
1.656,5.623e-05,0
1.6565,3.2059e-05,0
1.657,7.8889e-06,0
1.6575,-1.6281e-05,0
1.658,-4.1459e-05,0
1.6585,-6.6636e-05,0
1.659,-9.2317e-05,0
1.6595,-0.00011514,0
1.66,-0.00012438,0
1.6605,-0.00011901,0
1.661,-0.00010088,0
1.6615,-6.9993e-05,0
1.662,-3.2395e-05,0
1.6625,-4.1962e-06,0
1.663,9.2317e-06,0
1.6635,1.8631e-05,0
1.664,3.9948e-05,0
1.6645,7.5029e-05,0
1.665,0.00011263,0
1.6655,0.00014485,0
1.666,0.00017322,0
1.6665,0.0002036,0
1.667,0.00022408,0
1.6675,0.00022408,0
1.668,0.00020394,0
1.6685,0.00016667,0
1.669,0.00012136,0
1.6695,7.3182e-05,0
1.67,1.9303e-05,0
1.6705,-3.7766e-05,0
1.671,-9.2149e-05,0
1.6715,-0.0001472,0
1.672,-0.00019907,0
1.6725,-0.00023751,0
1.673,-0.00025278,0
1.6735,-0.00024254,0
1.674,-0.0002078,0
1.6745,-0.00015862,0
1.675,-0.00010927,0
1.6755,-7.2679e-05,0
1.676,-4.8005e-05,0
1.6765,-2.1653e-05,0
1.677,1.2421e-05,0
1.6775,5.1865e-05,0
1.678,9.3828e-05,0
1.6785,0.00012673,0
1.679,0.0001472,0
1.6795,0.00016298,0
1.68,0.00017372,0
1.6805,0.00017288,0
1.681,0.00016097,0
1.6815,0.00014267,0
1.682,0.00012001,0
1.6825,9.5171e-05,0
1.683,7.1168e-05,0
1.6835,4.5487e-05,0
1.684,1.0575e-05,0
1.6845,-3.5752e-05,0
1.685,-7.4861e-05,0
1.6855,-8.1743e-05,0
1.686,-6.2104e-05,0
1.6865,-3.508e-05,0
1.687,-9.7353e-06,0
1.6875,7.0497e-06,0
1.688,3.0213e-06,0
1.6885,-1.7288e-05,0
1.689,-3.2227e-05,0
1.6895,-2.9038e-05,0
1.69,-1.4939e-05,0
1.6905,-8.5603e-06,0
1.691,-1.3092e-05,0
1.6915,-2.1653e-05,0
1.692,-3.0716e-05,0
1.6925,-4.0955e-05,0
1.693,-5.1865e-05,0
1.6935,-5.9587e-05,0
1.694,-6.6636e-05,0
1.6945,-7.0832e-05,0
1.695,-6.6972e-05,0
1.6955,-4.7333e-05,0
1.696,-1.561e-05,0
1.6965,1.5442e-05,0
1.697,3.1388e-05,0
1.6975,3.4745e-05,0
1.698,3.3234e-05,0
1.6985,3.2731e-05,0
1.699,4.1291e-05,0
1.6995,5.4887e-05,0
1.7,6.8986e-05,0
1.7005,8.04e-05,0
1.701,8.0064e-05,0
1.7015,6.6468e-05,0
1.702,5.0858e-05,0
1.7025,3.9948e-05,0
1.703,4.1291e-05,0
1.7035,5.7237e-05,0
1.704,7.7043e-05,0
1.7045,8.9632e-05,0
1.705,9.2317e-05,0
1.7055,8.5603e-05,0
1.706,6.5797e-05,0
1.7065,3.743e-05,0
1.707,1.6785e-05,0
1.7075,7.2175e-06,0
1.708,-2.6856e-06,0
1.7085,-2.0142e-05,0
1.709,-3.978e-05,0
1.7095,-5.0187e-05,0
1.71,-4.6494e-05,0
1.7105,-3.5752e-05,0
1.711,-2.2156e-05,0
1.7115,2.8534e-06,0
1.712,3.1052e-05,0
1.7125,4.1795e-05,0
1.713,3.8102e-05,0
1.7135,2.7527e-05,0
1.714,1.3092e-05,0
1.7145,1.678e-07,0
1.715,-7.2175e-06,0
1.7155,-8.896e-06,0
1.716,-6.3783e-06,0
1.7165,-5.035e-07,0
1.717,8.5603e-06,0
1.7175,2.2995e-05,0
1.718,4.213e-05,0
1.7185,5.6062e-05,0
1.719,5.6901e-05,0
1.7195,5.2201e-05,0
1.72,5.5222e-05,0
1.7205,6.5293e-05,0
1.721,7.4357e-05,0
1.7215,7.6204e-05,0
1.722,6.9657e-05,0
1.7225,5.9587e-05,0
1.723,5.2872e-05,0
1.7235,6.1601e-05,0
1.724,8.4093e-05,0
1.7245,0.00010658,0
1.725,0.00011498,0
1.7255,0.00011162,0
1.726,0.00010558,0
1.7265,9.8192e-05,0
1.727,9.0471e-05,0
1.7275,8.9799e-05,0
1.728,9.5171e-05,0
1.7285,9.5171e-05,0
1.729,8.2414e-05,0
1.7295,6.63e-05,0
1.73,5.4048e-05,0
1.7305,4.0116e-05,0
1.731,2.0142e-05,0
1.7315,1.8463e-06,0
1.732,-7.0497e-06,0
1.7325,-6.2104e-06,0
1.733,1.678e-07,0
1.7335,7.8889e-06,0
1.734,1.0239e-05,0
1.7345,5.539e-06,0
1.735,6.714e-07,0
1.7355,-3.357e-07,0
1.736,1.1749e-06,0
1.7365,1.8463e-06,0
1.737,-8.392e-07,0
1.7375,-5.0355e-06,0
1.738,-1.2085e-05,0
1.7385,-1.8967e-05,0
1.739,-1.5274e-05,0
1.7395,7.8889e-06,0
1.74,4.5487e-05,0
1.7405,8.3925e-05,0
1.741,0.00010893,0
1.7415,0.00011934,0
1.742,0.00013126,0
1.7425,0.00014603,0
1.743,0.00014955,0
1.7435,0.00013579,0
1.744,0.00010726,0
1.7445,7.1e-05,0
1.745,2.8367e-05,0
1.7455,-2.1653e-05,0
1.746,-7.2679e-05,0
1.7465,-0.00011431,0
1.747,-0.00013445,0
1.7475,-0.00012438,0
1.748,-0.00010306,0
1.7485,-9.1478e-05,0
1.749,-8.0064e-05,0
1.7495,-6.3615e-05,0
1.75,-4.3977e-05,0
1.7505,-1.9638e-05,0
1.751,8.5603e-06,0
1.7515,3.3738e-05,0
1.752,5.3544e-05,0
1.7525,6.009e-05,0
1.753,5.7404e-05,0
1.7535,4.7501e-05,0
1.754,2.7863e-05,0
1.7545,0,0
1.755,-3.2395e-05,0
1.7555,-6.6636e-05,0
1.756,-0.00010105,0
1.7565,-0.00014049,0
1.757,-0.00018598,0
1.7575,-0.00022895,0
1.758,-0.00025782,0
1.7585,-0.00026168,0
1.759,-0.00023616,0
1.7595,-0.00019219,0
1.76,-0.00014267,0
1.7605,-9.2149e-05,0
1.761,-4.5487e-05,0
1.7615,-1.0239e-05,0
1.762,1.5946e-05,0
1.7625,3.4409e-05,0
1.763,4.3641e-05,0
1.7635,4.3977e-05,0
1.764,4.0787e-05,0
1.7645,4.3977e-05,0
1.765,5.9754e-05,0
1.7655,8.0064e-05,0
1.766,9.0135e-05,0
1.7665,8.4596e-05,0
1.767,7.9057e-05,0
1.7675,8.1575e-05,0
1.768,8.7114e-05,0
1.7685,9.5506e-05,0
1.769,0.00010188,0
1.7695,9.836e-05,0
1.77,8.3085e-05,0
1.7705,6.5629e-05,0
1.771,5.2872e-05,0
1.7715,4.5151e-05,0
1.772,3.7934e-05,0
1.7725,3.2731e-05,0
1.773,3.2059e-05,0
1.7735,3.0045e-05,0
1.774,3.1388e-05,0
1.7745,4.4144e-05,0
1.775,6.1433e-05,0
1.7755,7.1504e-05,0
1.776,6.9657e-05,0
1.7765,6.5965e-05,0
1.777,6.6972e-05,0
1.7775,6.4958e-05,0
1.778,5.5558e-05,0
1.7785,4.8844e-05,0
1.779,5.3208e-05,0
1.7795,6.479e-05,0
1.78,7.57e-05,0
1.7805,8.6946e-05,0
1.781,0.0001039,0
1.7815,0.00011716,0
1.782,0.00013277,0
1.7825,0.00016617,0
1.783,0.0001984,0
1.7835,0.00021317,0
1.784,0.00021267,0
1.7845,0.00020394,0
1.785,0.00018161,0
1.7855,0.00013243,0
1.786,6.3447e-05,0
1.7865,-8.3925e-06,0
1.787,-7.3518e-05,0
1.7875,-0.00012706,0
1.788,-0.00016298,0
1.7885,-0.0001791,0
1.789,-0.00017473,0
1.7895,-0.00015291,0
1.79,-0.00012874,0
1.7905,-0.00010877,0
1.791,-8.3757e-05,0
1.7915,-4.6494e-05,0
1.792,-8.2246e-06,0
1.7925,1.3764e-05,0
1.793,1.7288e-05,0
1.7935,1.5946e-05,0
1.794,1.3092e-05,0
1.7945,7.8889e-06,0
1.795,5.2033e-06,0
1.7955,3.1891e-06,0
1.796,0,0
1.7965,5.8747e-06,0
1.797,1.0575e-05,0
1.7975,3.1891e-06,0
1.798,-4.5319e-06,0
1.7985,-5.035e-07,0
1.799,1.3596e-05,0
1.7995,3.0045e-05,0
1.8,3.5416e-05,0
1.8005,3.0045e-05,0
1.801,2.0981e-05,0
1.8015,1.1917e-05,0
1.802,1.2253e-05,0
1.8025,2.7359e-05,0
1.803,5.3376e-05,0
1.8035,7.7211e-05,0
1.804,9.5171e-05,0
1.8045,0.000118,0
1.805,0.00014687,0
1.8055,0.00017641,0
1.806,0.00021132,0
1.8065,0.00024825,0
1.807,0.00027645,0
1.8075,0.0002798,0
1.808,0.00025194,0
1.8085,0.00020478,0
1.809,0.00015023,0
1.8095,8.7785e-05,0
1.81,1.9974e-05,0
1.8105,-4.2969e-05,0
1.811,-9.3492e-05,0
1.8115,-0.00011968,0
1.812,-0.0001232,0
1.8125,-0.00011229,0
1.813,-7.6707e-05,0
1.8135,-3.0716e-05,0
1.814,-9.5674e-06,0
1.8145,-1.6281e-05,0
1.815,-1.6449e-05,0
1.8155,7.5532e-06,0
1.816,3.0213e-05,0
1.8165,4.3641e-06,0
1.817,-7.5029e-05,0
1.8175,-0.00017523,0
1.818,-0.00026168,0
1.8185,-0.00032261,0
1.819,-0.00035702,0
1.8195,-0.0003592,0
1.82,-0.00033201,0
1.8205,-0.0002835,0
1.821,-0.00021971,0
1.8215,-0.00015325,0
1.822,-9.5506e-05,0
1.8225,-4.8844e-05,0
1.823,-1.4603e-05,0
1.8235,4.3641e-06,0
1.824,1.0575e-05,0
1.8245,1.0575e-05,0
1.825,1.2421e-05,0
1.8255,1.9638e-05,0
1.826,2.4002e-05,0
1.8265,1.9303e-05,0
1.827,1.0239e-05,0
1.8275,8.5603e-06,0
1.828,1.8967e-05,0
1.8285,3.0213e-05,0
1.829,3.8102e-05,0
1.8295,4.213e-05,0
1.83,4.7501e-05,0
1.8305,6.1601e-05,0
1.831,8.0735e-05,0
1.8315,9.9702e-05,0
1.832,0.00011196,0
1.8325,0.00011531,0
1.833,0.00011531,0
1.8335,0.00011464,0
1.834,0.00011598,0
1.8345,0.000118,0
1.835,0.00012018,0
1.8355,0.0001227,0
1.836,0.00012438,0
1.8365,0.00012471,0
1.837,0.00012253,0
1.8375,0.00011733,0
1.838,0.00011263,0
1.8385,0.00010944,0
1.839,0.00010658,0
1.8395,0.00010054,0
1.84,9.0303e-05,0
1.8405,8.04e-05,0
1.841,7.5868e-05,0
1.8415,7.6036e-05,0
1.842,7.57e-05,0
1.8425,7.57e-05,0
1.843,7.9057e-05,0
1.8435,8.04e-05,0
1.844,7.4693e-05,0
1.8445,6.1936e-05,0
1.845,4.7501e-05,0
1.8455,3.743e-05,0
1.846,3.743e-05,0
1.8465,5.0858e-05,0
1.847,7.1504e-05,0
1.8475,8.7114e-05,0
1.848,9.8192e-05,0
1.8485,0.0001185,0
1.849,0.00014754,0
1.8495,0.00016751,0
1.85,0.00017171,0
1.8505,0.00016365,0
1.851,0.00014318,0
1.8515,0.00011145,0
1.852,6.8315e-05,0
1.8525,1.4267e-05,0
1.853,-3.9612e-05,0
1.8535,-8.6275e-05,0
1.854,-0.00012589,0
1.8545,-0.00014704,0
1.855,-0.0001378,0
1.8555,-0.00010004,0
1.856,-6.9322e-05,0
1.8565,-7.3854e-05,0
1.857,-9.5338e-05,0
1.8575,-0.00010893,0
1.858,-0.00010625,0
1.8585,-9.131e-05,0
1.859,-7.5029e-05,0
1.8595,-6.2608e-05,0
1.86,-5.069e-05,0
1.8605,-3.9612e-05,0
1.861,-3.1891e-05,0
1.8615,-2.8367e-05,0
1.862,-2.5345e-05,0
1.8625,-1.4603e-05,0
1.863,-3.357e-07,0
1.8635,1.3092e-05,0
1.864,2.8367e-05,0
1.8645,3.827e-05,0
1.865,3.3738e-05,0
1.8655,2.5849e-05,0
1.866,3.0381e-05,0
1.8665,4.1459e-05,0
1.867,5.623e-05,0
1.8675,8.04e-05,0
1.868,9.9702e-05,0
1.8685,0.00010289,0
1.869,8.7114e-05,0
1.8695,5.9251e-05,0
1.87,3.978e-05,0
1.8705,4.4144e-05,0
1.871,5.153e-05,0
1.8715,3.4409e-05,0
1.872,-1.2757e-05,0
1.8725,-7.4189e-05,0
1.873,-0.00012589,0
1.8735,-0.00015241,0
1.874,-0.00015224,0
1.8745,-0.00013814,0
1.875,-0.00011934,0
1.8755,-8.9464e-05,0
1.876,-4.2634e-05,0
1.8765,6.8818e-06,0
1.877,4.213e-05,0
1.8775,5.8412e-05,0
1.878,5.6901e-05,0
1.8785,4.6159e-05,0
1.879,3.4073e-05,0
1.8795,2.5681e-05,0
1.88,2.266e-05,0
1.8805,1.5946e-05,0
1.881,3.1891e-06,0
1.8815,-8.7282e-06,0
1.882,1.1749e-06,0
1.8825,4.9515e-05,0
1.883,0.00011565,0
1.8835,0.00016231,0
1.884,0.00018312,0
1.8845,0.00018782,0
1.885,0.00017372,0
1.8855,0.00014989,0
1.886,0.00013008,0
1.8865,0.00010138,0
1.887,5.2537e-05,0
1.8875,-5.539e-06,0
1.888,-6.2608e-05,0
1.8885,-0.00010793,0
1.889,-0.00013713,0
1.8895,-0.00015828,0
1.89,-0.00017607,0
1.8905,-0.00018497,0
1.891,-0.00018279,0
1.8915,-0.00016835,0
1.892,-0.00014015,0
1.8925,-9.8527e-05,0
1.893,-4.3305e-05,0
1.8935,2.2324e-05,0
1.894,9.4499e-05,0
1.8945,0.00016432,0
1.895,0.00021099,0
1.8955,0.00023247,0
1.896,0.00023751,0
1.8965,0.00022811,0
1.897,0.00020461,0
1.8975,0.00016365,0
1.898,0.00010843,0
1.8985,4.4648e-05,0
1.899,-1.9806e-05,0
1.8995,-7.1e-05,0
1.9,-0.00010188,0
1.9005,-0.00011447,0
1.901,-0.00011565,0
1.9015,-0.00010088,0
1.902,-7.1336e-05,0
1.9025,-3.5752e-05,0
1.903,1.678e-07,0
1.9035,2.8031e-05,0
1.904,4.4144e-05,0
1.9045,5.5558e-05,0
1.905,6.5629e-05,0
1.9055,6.5293e-05,0
1.906,4.5823e-05,0
1.9065,8.7282e-06,0
1.907,-3.4073e-05,0
1.9075,-7.3686e-05,0
1.908,-0.00010289,0
1.9085,-0.00011666,0
1.909,-0.00011095,0
1.9095,-8.3589e-05,0
1.91,-3.9948e-05,0
1.9105,9.5674e-06,0
1.911,5.623e-05,0
1.9115,0.00010188,0
1.912,0.00014955,0
1.9125,0.00019823,0
1.913,0.00023616,0
1.9135,0.00024422,0
1.914,0.00021669,0
1.9145,0.00017137,0
1.915,0.00012605,0
1.9155,8.0735e-05,0
1.916,2.9374e-05,0
1.9165,-2.0478e-05,0
1.917,-6.009e-05,0
1.9175,-9.1142e-05,0
1.918,-0.0001138,0
1.9185,-0.00011128,0
1.919,-7.57e-05,0
1.9195,-3.4409e-05,0
1.92,-1.5106e-06,0
1.9205,2.5681e-05,0
1.921,5.2033e-05,0
1.9215,8.1407e-05,0
1.922,0.00010306,0
1.9225,0.00010927,0
1.923,0.00010188,0
1.9235,9.1814e-05,0
1.924,8.1575e-05,0
1.9245,7.1504e-05,0
1.925,6.5293e-05,0
1.9255,5.4048e-05,0
1.926,3.4409e-05,0
1.9265,1.8967e-05,0
1.927,9.2317e-06,0
1.9275,0,0
1.928,-5.539e-06,0
1.9285,-4.3641e-06,0
1.929,-2.6856e-06,0
1.9295,-7.5532e-06,0
1.93,-1.2253e-05,0
1.9305,-7.2175e-06,0
1.931,2.182e-06,0
1.9315,2.182e-06,0
1.932,-5.539e-06,0
1.9325,-7.3854e-06,0
1.933,1.0407e-05,0
1.9335,4.2466e-05,0
1.934,6.4286e-05,0
1.9345,5.1865e-05,0
1.935,8.5603e-06,0
1.9355,-3.978e-05,0
1.936,-7.4189e-05,0
1.9365,-8.7282e-05,0
1.937,-7.805e-05,0
1.9375,-5.3208e-05,0
1.938,-2.266e-05,0
1.9385,7.7211e-06,0
1.939,3.8437e-05,0
1.9395,6.6972e-05,0
1.94,9.4835e-05,0
1.9405,0.00012572,0
1.941,0.00015123,0
1.9415,0.00016265,0
1.942,0.0001744,0
1.9425,0.00020024,0
1.943,0.00022676,0
1.9435,0.00021988,0
1.944,0.00017876,0
1.9445,0.0001284,0
1.945,8.3589e-05,0
1.9455,3.1052e-05,0
1.946,-4.3137e-05,0
1.9465,-0.00010776,0
1.947,-0.00013764,0
1.9475,-0.00015543,0
1.948,-0.00017876,0
1.9485,-0.00018866,0
1.949,-0.00017591,0
1.9495,-0.00015056,0
1.95,-0.00012152,0
1.9505,-8.7114e-05,0
1.951,-5.6062e-05,0
1.9515,-4.5823e-05,0
1.952,-5.4887e-05,0
1.9525,-7.0329e-05,0
1.953,-9.3156e-05,0
1.9535,-0.00011565,0
1.954,-0.00011598,0
1.9545,-9.3156e-05,0
1.955,-6.244e-05,0
1.9555,-2.7527e-05,0
1.956,1.5946e-05,0
1.9565,5.8579e-05,0
1.957,8.3085e-05,0
1.9575,7.9225e-05,0
1.958,5.5558e-05,0
1.9585,4.1459e-05,0
1.959,5.623e-05,0
1.9595,8.8792e-05,0
1.96,0.00010994,0
1.9605,0.00011531,0
1.961,0.00012219,0
1.9615,0.00013075,0
1.962,0.00014788,0
1.9625,0.00018514,0
1.963,0.00023214,0
1.9635,0.00026537,0
1.964,0.00027376,0
1.9645,0.00024422,0
1.965,0.00018782,0
1.9655,0.00013613,0
1.966,9.836e-05,0
1.9665,5.3544e-05,0
1.967,-1.5274e-05,0
1.9675,-0.00011531,0
1.968,-0.00023616,0
1.9685,-0.00032882,0
1.969,-0.0003597,0
1.9695,-0.00035467,0
1.97,-0.0003362,0
1.9705,-0.00028333,0
1.971,-0.00016684,0
1.9715,-2.7863e-05,0
1.972,7.2007e-05,0
1.9725,0.00012975,0
1.973,0.0001697,0
1.9735,0.00019303,0
1.974,0.00019084,0
1.9745,0.00016365,0
1.975,0.00011867,0
1.9755,6.5629e-05,0
1.976,1.5946e-05,0
1.9765,-2.2324e-05,0
1.977,-4.9851e-05,0
1.9775,-6.7308e-05,0
1.978,-7.0832e-05,0
1.9785,-5.2705e-05,0
1.979,-8.5603e-06,0
1.9795,4.7333e-05,0
1.98,9.4499e-05,0
1.9805,0.00011682,0
1.981,0.00011397,0
1.9815,8.8121e-05,0
1.982,3.827e-05,0
1.9825,-2.7024e-05,0
1.983,-7.7546e-05,0
1.9835,-8.0064e-05,0
1.984,-3.4241e-05,0
1.9845,2.5681e-05,0
1.985,6.3447e-05,0
1.9855,7.0664e-05,0
1.986,5.4719e-05,0
1.9865,2.7863e-05,0
1.987,1.1246e-05,0
1.9875,1.1414e-05,0
1.988,1.6449e-05,0
1.9885,2.3835e-05,0
1.989,4.0787e-05,0
1.9895,6.2944e-05,0
1.99,7.7043e-05,0
1.9905,8.0064e-05,0
1.991,0.00010054,0
1.9915,0.0001744,0
1.992,0.00027443,0
1.9925,0.00033788,0
1.993,0.00032512,0
1.9935,0.00024657,0
1.994,0.0001472,0
1.9945,6.1601e-05,0
1.995,-1.0239e-05,0
1.9955,-8.3253e-05,0
1.996,-0.0001608,0
1.9965,-0.000213,0
1.997,-0.00020024,0
1.9975,-0.00013797,0
1.998,-7.6707e-05,0
1.9985,-3.8941e-05,0
1.999,-1.0575e-05,0
1.9995,8.896e-06,0
2,1.5106e-05,0
2.0005,1.796e-05,0
2.001,2.266e-05,0
2.0015,1.2253e-05,0
2.002,-7.8889e-06,0
2.0025,-2.8199e-05,0
2.003,-5.0858e-05,0
2.0035,-7.6707e-05,0
2.004,-9.2485e-05,0
2.0045,-7.7714e-05,0
2.005,-4.1123e-05,0
2.0055,-2.3163e-05,0
2.006,-4.6494e-05,0
2.0065,-8.6442e-05,0
2.007,-0.0001138,0
2.0075,-0.00014217,0
2.008,-0.00017288,0
2.0085,-0.00018715,0
2.009,-0.00017339,0
2.0095,-0.00013008,0
2.01,-7.7378e-05,0
2.0105,-2.4842e-05,0
2.011,4.2466e-05,0
2.0115,0.00012136,0
2.012,0.00017977,0
2.0125,0.00020528,0
2.013,0.00021267,0
2.0135,0.00021703,0
2.014,0.0002271,0
2.0145,0.00024758,0
2.015,0.00026772,0
2.0155,0.00028417,0
2.016,0.00029693,0
2.0165,0.00028719,0
2.017,0.00024019,0
2.0175,0.00016466,0
2.018,8.9128e-05,0
2.0185,2.2324e-05,0
2.019,-4.448e-05,0
2.0195,-0.00011296,0
2.02,-0.00018698,0
2.0205,-0.00025899,0
2.021,-0.00031086,0
2.0215,-0.00032982,0
2.022,-0.00031136,0
2.0225,-0.00025614,0
2.023,-0.00017742,0
2.0235,-9.5506e-05,0
2.024,-2.8031e-05,0
2.0245,2.5177e-05,0
2.025,7.8889e-05,0
2.0255,0.00013848,0
2.026,0.00019655,0
2.0265,0.00024875,0
2.027,0.00028383,0
2.0275,0.00028635,0
2.028,0.00025765,0
2.0285,0.00020797,0
2.029,0.00013814,0
2.0295,6.244e-05,0
2.03,-1.1749e-06,0
2.0305,-5.1194e-05,0
2.031,-0.00010491,0
2.0315,-0.00015677,0
2.032,-0.00016869,0
2.0325,-0.00010776,0
2.033,-1.0071e-05,0
2.0335,6.5461e-05,0
2.034,9.5842e-05,0
2.0345,8.7953e-05,0
2.035,8.04e-05,0
2.0355,0.00011263,0
2.036,0.00018245,0
2.0365,0.00028064,0
2.037,0.00037581,0
2.0375,0.00040804,0
2.038,0.00036205,0
2.0385,0.00027611,0
2.039,0.00020645,0
2.0395,0.00017708,0
2.04,0.00017675,0
2.0405,0.00016265,0
2.041,7.3686e-05,0
2.0415,-8.9296e-05,0
2.042,-0.00026252,0
2.0425,-0.00039109,0
2.043,-0.00045252,0
2.0435,-0.00045151,0
2.044,-0.00043238,0
2.0445,-0.00043322,0
2.045,-0.00044799,0
2.0455,-0.00044916,0
2.046,-0.0004302,0
2.0465,-0.00039998,0
2.047,-0.00032479,0
2.0475,-0.00018212,0
2.048,-2.8534e-05,0
2.0485,8.4932e-05,0
2.049,0.00015425,0
2.0495,0.00018833,0
2.05,0.00019991,0
2.0505,0.00019756,0
2.051,0.00017272,0
2.0515,0.00012035,0
2.052,5.7572e-05,0
2.0525,7.8889e-06,0
2.053,-2.1653e-05,0
2.0535,-3.0381e-05,0
2.054,-3.8605e-06,0
2.0545,6.2272e-05,0
2.055,0.00016835,0
2.0555,0.00025966,0
2.056,0.00027745,0
2.0565,0.00025597,0
2.057,0.00025631,0
2.0575,0.00029122,0
2.058,0.00032378,0
2.0585,0.00032882,0
2.059,0.00031002,0
2.0595,0.00024556,0
2.06,0.00014586,0
2.0605,5.153e-05,0
2.061,-4.3641e-05,0
2.0615,-0.00014401,0
2.062,-0.00021837,0
2.0625,-0.00026537,0
2.063,-0.00031975,0
2.0635,-0.0003639,0
2.064,-0.00035584,0
2.0645,-0.00029726,0
2.065,-0.00021938,0
2.0655,-0.00015375,0
2.066,-0.00011162,0
2.0665,-6.8315e-05,0
2.067,-4.8676e-06,0
2.0675,6.2944e-05,0
2.068,0.00011431,0
2.0685,0.00014049,0
2.069,0.00015627,0
2.0695,0.00016886,0
2.07,0.00016735,0
2.0705,0.00014871,0
2.071,0.00010491,0
2.0715,4.9851e-05,0
2.072,1.0407e-05,0
2.0725,-1.947e-05,0
2.073,-4.5151e-05,0
2.0735,-6.1265e-05,0
2.074,-5.1194e-05,0
2.0745,1.7456e-05,0
2.075,0.00012941,0
2.0755,0.00023684,0
2.076,0.00030867,0
2.0765,0.0003258,0
2.077,0.00029323,0
2.0775,0.00024388,0
2.078,0.00020008,0
2.0785,0.00016332,0
2.079,0.00012673,0
2.0795,9.5171e-05,0
2.08,6.8986e-05,0
2.0805,4.0116e-05,0
2.081,2.1653e-05,0
2.0815,3.2731e-05,0
2.082,6.9154e-05,0
2.0825,0.00011112,0
2.083,0.00014418,0
2.0835,0.00016332,0
2.084,0.00017406,0
2.0845,0.00016701,0
2.085,0.00012824,0
2.0855,6.8315e-05,0
2.086,5.2033e-06,0
2.0865,-3.7766e-05,0
2.087,-6.949e-05,0
2.0875,-0.00010289,0
2.088,-0.00011733,0
2.0885,-0.00011431,0
2.089,-0.00012706,0
2.0895,-0.00017037,0
2.09,-0.00023046,0
2.0905,-0.00027175,0
2.091,-0.00025966,0
2.0915,-0.00020847,0
2.092,-0.0001378,0
2.0925,-4.7166e-05,0
2.093,3.9109e-05,0
2.0935,0.00010121,0
2.094,0.00012992,0
2.0945,0.00013042,0
2.095,0.00011028,0
2.0955,7.335e-05,0
2.096,2.7024e-05,0
2.0965,-2.0478e-05,0
2.097,-7.1504e-05,0
2.0975,-0.00012807,0
2.098,-0.00017221,0
2.0985,-0.00018883,0
2.099,-0.0001848,0
2.0995,-0.00015627,0
2.1,-9.752e-05,0
2.1005,-2.6688e-05,0
2.101,3.5752e-05,0
2.1015,9.987e-05,0
2.102,0.0001519,0
2.1025,0.00015962,0
2.103,0.00013075,0
2.1035,0.00010289,0
2.104,7.3686e-05,0
2.1045,2.6017e-05,0
2.105,-1.2085e-05,0
2.1055,-2.0646e-05,0
2.106,-2.0646e-05,0
2.1065,-3.5248e-06,0
2.107,4.4816e-05,0
2.1075,9.2149e-05,0
2.108,0.00011934,0
2.1085,0.00012589,0
2.109,0.00011649,0
2.1095,8.7785e-05,0
2.11,3.7934e-05,0
2.1105,-2.266e-05,0
2.111,-8.5435e-05,0
2.1115,-0.00014502,0
2.112,-0.00018849,0
2.1125,-0.00020813,0
2.113,-0.00021317,0
2.1135,-0.00020729,0
2.114,-0.00019101,0
2.1145,-0.00017003,0
2.115,-0.00014653,0
2.1155,-0.00011733,0
2.116,-7.0161e-05,0
2.1165,-2.3499e-06,0
2.117,7.9393e-05,0
2.1175,0.00017641,0
2.118,0.00029323,0
2.1185,0.00041576,0
2.119,0.00050338,0
2.1195,0.00052889,0
2.12,0.00049599,0
2.1205,0.00040922,0
2.121,0.00028031,0
2.1215,0.00013545,0
2.122,-6.0426e-06,0
2.1225,-0.00012354,0
2.123,-0.00021552,0
2.1235,-0.00026201,0
2.124,-0.00024321,0
2.1245,-0.00019655,0
2.125,-0.00015929,0
2.1255,-0.00013042,0
2.126,-8.7282e-05,0
2.1265,-4.1795e-05,0
2.127,-3.3738e-05,0
2.1275,-6.479e-05,0
2.128,-0.00011179,0
2.1285,-0.00015761,0
2.129,-0.00018648,0
2.1295,-0.00018447,0
2.13,-0.00014401,0
2.1305,-6.9993e-05,0
2.131,1.9303e-05,0
2.1315,9.9031e-05,0
2.132,0.00016466,0
2.1325,0.00021367,0
2.133,0.00021804,0
2.1335,0.00017238,0
2.134,0.00012236,0
2.1345,0.00011531,0
2.135,0.00013378,0
2.1355,0.00012773,0
2.136,7.4357e-05,0
2.1365,3.357e-06,0
2.137,-2.9709e-05,0
2.1375,-8.392e-07,0
2.138,5.8244e-05,0
2.1385,0.00011531,0
2.139,0.00016365,0
2.1395,0.00019504,0
2.14,0.00020226,0
2.1405,0.00017557,0
2.141,0.00012471,0
2.1415,8.2246e-05,0
2.142,4.5823e-05,0
2.1425,-8.3925e-06,0
2.143,-8.3085e-05,0
2.1435,-0.00016483,0
2.144,-0.00021871,0
2.1445,-0.00020729,0
2.145,-0.00014217,0
2.1455,-9.366e-05,0
2.146,-8.8624e-05,0
2.1465,-8.5603e-05,0
2.147,-5.1194e-05,0
2.1475,1.1749e-06,0
2.148,4.3137e-05,0
2.1485,6.5293e-05,0
2.149,7.2511e-05,0
2.1495,7.3014e-05,0
2.15,7.9057e-05,0
2.1505,9.0471e-05,0
2.151,0.00010188,0
2.1515,0.00013143,0
2.152,0.00020394,0
2.1525,0.0002939,0
2.153,0.00035819,0
2.1535,0.00037028,0
2.154,0.00034191,0
2.1545,0.0003023,0
2.155,0.00024926,0
2.1555,0.00016097,0
2.156,3.743e-05,0
2.1565,-9.3324e-05,0
2.157,-0.00019454,0
2.1575,-0.00024271,0
2.158,-0.00024976,0
2.1585,-0.0002365,0
2.159,-0.00021871,0
2.1595,-0.00019571,0
2.16,-0.00015727,0
2.1605,-0.00012337,0
2.161,-0.00011582,0
2.1615,-0.00013663,0
2.162,-0.00017372,0
2.1625,-0.00019152,0
2.163,-0.00015459,0
2.1635,-6.1769e-05,0
2.164,2.9374e-05,0
2.1645,7.3518e-05,0
2.165,7.4357e-05,0
2.1655,6.1601e-05,0
2.166,5.153e-05,0
2.1665,3.4409e-05,0
2.167,1.7792e-05,0
2.1675,2.7024e-05,0
2.168,6.3951e-05,0
2.1685,0.0001185,0
2.169,0.00018413,0
2.1695,0.00025597,0
2.17,0.00034308,0
2.1705,0.00043221,0
2.171,0.00045907,0
2.1715,0.00038286,0
2.172,0.00022878,0
2.1725,4.4144e-05,0
2.173,-0.00012169,0
2.1735,-0.00024221,0
2.174,-0.00031421,0
2.1745,-0.0003503,0
2.175,-0.00035534,0
2.1755,-0.00030666,0
2.176,-0.00019286,0
2.1765,-2.9877e-05,0
2.177,0.00012303,0
2.1775,0.00020041,0
2.178,0.00019722,0
2.1785,0.00013864,0
2.179,5.7237e-05,0
2.1795,-2.7359e-05,0
2.18,-0.00012572,0
2.1805,-0.00024405,0
2.181,-0.00033385,0
2.1815,-0.0003592,0
2.182,-0.00036172,0
2.1825,-0.00035399,0
2.183,-0.0002882,0
2.1835,-0.00012706,0
2.184,8.1575e-05,0
2.1845,0.00023616,0
2.185,0.00028988,0
2.1855,0.00026084,0
2.186,0.00018715,0
2.1865,0.00011565,0
2.187,5.5894e-05,0
2.1875,-1.5946e-05,0
2.188,-0.00010658,0
2.1885,-0.00019168,0
2.189,-0.0002219,0
2.1895,-0.00015375,0
2.19,7.8889e-06,0
2.1905,0.00020259,0
2.191,0.00034745,0
2.1915,0.00041476,0
2.192,0.00042583,0
2.1925,0.00039562,0
2.193,0.00033251,0
2.1935,0.00025161,0
2.194,0.00015593,0
2.1945,5.774e-05,0
2.195,-1.9303e-05,0
2.1955,-6.5965e-05,0
2.196,-8.6946e-05,0
2.1965,-8.745e-05,0
2.197,-8.5435e-05,0
2.1975,-8.4428e-05,0
2.198,-6.3783e-05,0
2.1985,-2.0813e-05,0
2.199,3.7934e-05,0
2.1995,0.00014334,0
2.2,0.00032143,0
2.2005,0.00050069,0
2.201,0.00057522,0
2.2015,0.00055474,0
2.202,0.00051681,0
2.2025,0.00046947,0
2.203,0.00034963,0
2.2035,0.00012538,0
2.204,-0.0001566,0
2.2045,-0.00041039,0
2.205,-0.00060258,0
2.2055,-0.00073216,0
2.206,-0.00077781,0
2.2065,-0.00073249,0
2.207,-0.00063716,0
2.2075,-0.00052738,0
2.208,-0.00038672,0
2.2085,-0.00022425,0
2.209,-0.00010272,0
2.2095,-4.4816e-05,0
2.21,-1.9303e-05,0
2.2105,1.3932e-05,0
2.211,5.9587e-05,0
2.2115,9.4163e-05,0
2.212,0.00010105,0
2.2125,9.0471e-05,0
2.213,8.9464e-05,0
2.2135,0.00012203,0
2.214,0.00018581,0
2.2145,0.00026973,0
2.215,0.00034627,0
2.2155,0.0004025,0
2.216,0.00045907,0
2.2165,0.00048492,0
2.217,0.00045705,0
2.2175,0.00041173,0
2.218,0.00036088,0
2.2185,0.000284,0
2.219,0.00018279,0
2.2195,8.745e-05,0
2.22,-1.1246e-05,0
2.2205,-0.00012035,0
2.221,-0.00023751,0
2.2215,-0.00034057,0
2.222,-0.00039428,0
2.2225,-0.00040452,0
2.223,-0.00041207,0
2.2235,-0.00041828,0
2.224,-0.00038085,0
2.2245,-0.00028786,0
2.225,-0.00017238,0
2.2255,-5.8747e-05,0
2.226,2.9374e-05,0
2.2265,7.6371e-05,0
2.227,8.9128e-05,0
2.2275,9.3156e-05,0
2.228,9.3324e-05,0
2.2285,9.6513e-05,0
2.229,0.00011061,0
2.2295,0.00013411,0
2.23,0.00016063,0
2.2305,0.00018245,0
2.231,0.00020797,0
2.2315,0.00020729,0
2.232,0.0001556,0
2.2325,9.0974e-05,0
2.233,5.3376e-05,0
2.2335,3.9277e-05,0
2.234,2.4338e-05,0
2.2345,-3.5248e-06,0
2.235,-2.5345e-05,0
2.2355,-3.4073e-05,0
2.236,-2.5009e-05,0
2.2365,2.9374e-05,0
2.237,0.00010726,0
2.2375,0.0001462,0
2.238,0.00014955,0
2.2385,0.00013344,0
2.239,9.987e-05,0
2.2395,6.865e-05,0
2.24,4.7501e-05,0
2.2405,1.7121e-05,0
2.241,-2.5009e-05,0
2.2415,-3.5584e-05,0
2.242,-1.3596e-05,0
2.2425,3.5248e-06,0
2.243,3.0716e-05,0
2.2435,8.6778e-05,0
2.244,0.0001462,0
2.2445,0.00019168,0
2.245,0.00021854,0
2.2455,0.00021602,0
2.246,0.00016063,0
2.2465,7.0832e-05,0
2.247,-1.8799e-05,0
2.2475,-9.1981e-05,0
2.248,-0.00012572,0
2.2485,-0.00010306,0
2.249,-5.9419e-05,0
2.2495,-3.5416e-05,0
2.25,-1.7456e-05,0
2.2505,4.1962e-06,0
2.251,2.5681e-05,0
2.2515,6.4118e-05,0
2.252,0.00013143,0
2.2525,0.00023079,0
2.253,0.00030196,0
2.2535,0.00028266,0
2.254,0.00018296,0
2.2545,6.3447e-05,0
2.255,-4.2634e-05,0
2.2555,-0.00014855,0
2.256,-0.00025866,0
2.2565,-0.00034543,0
2.257,-0.00042902,0
2.2575,-0.00050842,0
2.258,-0.00051748,0
2.2585,-0.00040015,0
2.259,-0.0001984,0
2.2595,-2.7024e-05,0
2.26,4.5991e-05,0
2.2605,4.6662e-05,0
2.261,4.3473e-05,0
2.2615,6.8818e-05,0
2.262,8.0064e-05,0
2.2625,4.448e-05,0
2.263,6.0426e-06,0
2.2635,-9.7353e-06,0
2.264,-1.1917e-05,0
2.2645,-7.7211e-06,0
2.265,-3.1891e-06,0
2.2655,1.1749e-06,0
2.266,1.3932e-05,0
2.2665,4.0955e-05,0
2.267,7.805e-05,0
2.2675,0.00013545,0
2.268,0.00022492,0
2.2685,0.00033083,0
2.269,0.00042751,0
2.2695,0.00048122,0
2.27,0.00045772,0
2.2705,0.0003832,0
2.271,0.00030867,0
2.2715,0.0002412,0
2.272,0.00014922,0
2.2725,-1.4099e-05,0
2.273,-0.00022962,0
2.2735,-0.00040922,0
2.274,-0.00049868,0
2.2745,-0.00051496,0
2.275,-0.00049482,0
2.2755,-0.0004119,0
2.276,-0.00024187,0
2.2765,-6.0258e-05,0
2.277,3.3738e-05,0
2.2775,3.508e-05,0
2.278,9.5674e-06,0
2.2785,-1.5778e-05,0
2.279,-5.1194e-05,0
2.2795,-7.2847e-05,0
2.28,-3.7934e-05,0
2.2805,1.4603e-05,0
2.281,4.4648e-05,0
2.2815,7.4693e-05,0
2.282,0.00013193,0
2.2825,0.00016701,0
2.283,0.00015392,0
2.2835,0.00011867,0
2.284,8.1239e-05,0
2.2845,5.4719e-05,0
2.285,4.1962e-05,0
2.2855,7.7378e-05,0
2.286,0.00018111,0
2.2865,0.00030666,0
2.287,0.00038656,0
2.2875,0.00039596,0
2.288,0.00032747,0
2.2885,0.00019202,0
2.289,3.2898e-05,0
2.2895,-0.0001138,0
2.29,-0.00020797,0
2.2905,-0.00023096,0
2.291,-0.00023297,0
2.2915,-0.00024321,0
2.292,-0.00023365,0
2.2925,-0.00015576,0
2.293,-8.2246e-06,0
2.2935,0.00010793,0
2.294,0.00013948,0
2.2945,0.00014922,0
2.295,0.00017238,0
2.2955,0.00018363,0
2.296,0.00014922,0
2.2965,6.5965e-05,0
2.297,-2.4506e-05,0
2.2975,-9.5171e-05,0
2.298,-0.00015694,0
2.2985,-0.00020729,0
2.299,-0.00021485,0
2.2995,-0.00015056,0
2.3,-3.1724e-05,0
2.3005,8.0903e-05,0
2.301,0.00014586,0
2.3015,0.00016231,0
2.302,0.0001744,0
2.3025,0.00020729,0
2.303,0.00023348,0
2.3035,0.00023818,0
2.304,0.00024019,0
2.3045,0.00023012,0
2.305,0.00018111,0
2.3055,8.6778e-05,0
2.306,-5.8747e-06,0
2.3065,-5.6901e-05,0
2.307,-8.6275e-05,0
2.3075,-0.00012572,0
2.308,-0.00018984,0
2.3085,-0.00024623,0
2.309,-0.00026352,0
2.3095,-0.00024523,0
2.31,-0.00022223,0
2.3105,-0.00020914,0
2.311,-0.00018111,0
2.3115,-0.00012874,0
2.312,-5.0858e-05,0
2.3125,3.0716e-05,0
2.313,8.1743e-05,0
2.3135,9.6178e-05,0
2.314,8.8792e-05,0
2.3145,7.7714e-05,0
2.315,8.8792e-05,0
2.3155,0.00012287,0
2.316,0.00013864,0
2.3165,0.00015962,0
2.317,0.0002751,0
2.3175,0.00047753,0
2.318,0.00064169,0
2.3185,0.00063699,0
2.319,0.0004725,0
2.3195,0.00027897,0
2.32,0.00012119,0
2.3205,-2.5009e-05,0
2.321,-0.00016667,0
2.3215,-0.00028618,0
2.322,-0.00037951,0
2.3225,-0.00043842,0
2.323,-0.00046192,0
2.3235,-0.00041576,0
2.324,-0.00030498,0
2.3245,-0.00019538,0
2.325,-0.00012102,0
2.3255,-7.2511e-05,0
2.326,1.1749e-06,0
2.3265,0.00013512,0
2.327,0.00029928,0
2.3275,0.00044128,0
2.328,0.00049935,0
2.3285,0.00045303,0
2.329,0.0003305,0
2.3295,0.00016634,0
2.33,-1.9806e-05,0
2.3305,-0.00019303,0
2.331,-0.00032093,0
2.3315,-0.00040536,0
2.332,-0.00043339,0
2.3325,-0.00040787,0
2.333,-0.00034778,0
2.3335,-0.0002511,0
2.334,-0.00012203,0
2.3345,-4.8676e-06,0
2.335,7.6371e-05,0
2.3355,0.00014083,0
2.336,0.0002318,0
2.3365,0.00036826,0
2.337,0.00049297,0
2.3375,0.00052587,0
2.338,0.00044564,0
2.3385,0.00028165,0
2.339,8.6275e-05,0
2.3395,-8.9128e-05,0
2.34,-0.00019303,0
2.3405,-0.00022693,0
2.341,-0.0002318,0
2.3415,-0.00020914,0
2.342,-0.00017758,0
2.3425,-0.00014989,0
2.343,-7.3518e-05,0
2.3435,8.51e-05,0
2.344,0.00020864,0
2.3445,0.00023281,0
2.345,0.00021149,0
2.3455,0.00018379,0
2.346,0.00016869,0
2.3465,0.00019504,0
2.347,0.00025194,0
2.3475,0.00025261,0
2.348,0.00013814,0
2.3485,-5.6565e-05,0
2.349,-0.00027276,0
2.3495,-0.00045286,0
2.35,-0.00055911,0
2.3505,-0.00059402,0
2.351,-0.00058647,0
2.3515,-0.00054971,0
2.352,-0.00041946,0
2.3525,-0.00018346,0
2.353,4.1962e-05,0
2.3535,0.00014536,0
2.354,0.00012975,0
2.3545,7.5364e-05,0
2.355,2.9709e-05,0
2.3555,-7.5532e-06,0
2.356,-4.3809e-05,0
2.3565,-6.3447e-05,0
2.357,-5.2201e-05,0
2.3575,-2.6688e-05,0
2.358,-2.8534e-06,0
2.3585,2.8702e-05,0
2.359,8.7617e-05,0
2.3595,0.00017977,0
2.36,0.00027427,0
2.3605,0.00032412,0
2.361,0.00032747,0
2.3615,0.00030784,0
2.362,0.00025899,0
2.3625,0.00018379,0
2.363,0.00011514,0
2.3635,8.0064e-05,0
2.364,9.2821e-05,0
2.3645,0.00014972,0
2.365,0.0002125,0
2.3655,0.00026671,0
2.366,0.00030011,0
2.3665,0.00031002,0
2.367,0.00028283,0
2.3675,0.00021233,0
2.368,0.0001274,0
2.3685,3.7095e-05,0
2.369,-3.6759e-05,0
2.3695,-7.8721e-05,0
2.37,-0.00010692,0
2.3705,-0.00012068,0
2.371,-0.00012136,0
2.3715,-0.00010071,0
2.372,-7.2343e-05,0
2.3725,-6.7475e-05,0
2.373,-4.683e-05,0
2.3735,2.5345e-05,0
2.374,9.8527e-05,0
2.3745,0.00013277,0
2.375,0.0001556,0
2.3755,0.0001895,0
2.376,0.00018564,0
2.3765,0.0001133,0
2.377,2.2156e-05,0
2.3775,-6.009e-05,0
2.378,-0.00014469,0
2.3785,-0.0002172,0
2.379,-0.00022895,0
2.3795,-9.0303e-05,0
2.38,0.00021032,0
2.3805,0.00048458,0
2.381,0.00061013,0
2.3815,0.00060409,0
2.382,0.00048592,0
2.3825,0.0002892,0
2.383,6.7979e-05,0
2.3835,-0.0001556,0
2.384,-0.00037447,0
2.3845,-0.00052403,0
2.385,-0.00050539,0
2.3855,-0.00034308,0
2.386,-0.00019135,0
2.3865,-0.00012908,0
2.387,-0.00014603,0
2.3875,-0.00023029,0
2.388,-0.00033989,0
2.3885,-0.00041979,0
2.389,-0.00044933,0
2.3895,-0.0004208,0
2.39,-0.00033066,0
2.3905,-0.00022576,0
2.391,-0.00013663,0
2.3915,-3.3906e-05,0
2.392,5.5894e-05,0
2.3925,8.8121e-05,0
2.393,8.2078e-05,0
2.3935,6.6133e-05,0
2.394,5.2201e-05,0
2.3945,5.1194e-05,0
2.395,7.2007e-05,0
2.3955,0.00011531,0
2.396,0.00014972,0
2.3965,0.00016533,0
2.397,0.00015862,0
2.3975,0.000118,0
2.398,6.9154e-05,0
2.3985,5.4215e-05,0
2.399,7.1672e-05,0
2.3995,6.7475e-05,0
2.4,2.9877e-05,0
2.4005,2.9038e-05,0
2.401,7.9393e-05,0
2.4015,0.00011464,0
2.402,0.00011229,0
2.4025,0.00010826,0
2.403,0.00011431,0
2.4035,0.00011749,0
2.404,0.00011263,0
2.4045,0.00010793,0
2.405,0.00011666,0
2.4055,0.0001472,0
2.406,0.00016936,0
2.4065,0.00014939,0
2.407,0.00010054,0
2.4075,6.3111e-05,0
2.408,5.3208e-05,0
2.4085,6.1936e-05,0
2.409,8.1071e-05,0
2.4095,0.00013814,0
2.41,0.00022257,0
2.4105,0.00032865,0
2.411,0.00044883,0
2.4115,0.00050707,0
2.412,0.00049784,0
2.4125,0.00043154,0
2.413,0.00026017,0
2.4135,4.3641e-06,0
2.414,-0.00023784,0
2.4145,-0.00039394,0
2.415,-0.00040737,0
2.4155,-0.00034342,0
2.416,-0.00029575,0
2.4165,-0.00022425,0
2.417,-6.9993e-05,0
2.4175,0.00011145,0
2.418,0.00025144,0
2.4185,0.00034157,0
2.419,0.00032076,0
2.4195,0.00018715,0
2.42,1.9974e-05,0
2.4205,-0.00015023,0
2.421,-0.00031724,0
2.4215,-0.00046914,0
2.422,-0.00056565,0
2.4225,-0.00057388,0
2.423,-0.00053275,0
2.4235,-0.00046142,0
2.424,-0.00032949,0
2.4245,-0.00015258,0
2.425,3.2059e-05,0
2.4255,0.00018665,0
2.426,0.00029021,0
2.4265,0.00035164,0
2.427,0.00034191,0
2.4275,0.00024086,0
2.428,0.00010423,0
2.4285,-2.5009e-05,0
2.429,-0.0001331,0
2.4295,-0.0002219,0
2.43,-0.0003117,0
2.4305,-0.00038572,0
2.431,-0.00038437,0
2.4315,-0.00026806,0
2.432,-5.153e-05,0
2.4325,0.00017876,0
2.433,0.00033906,0
2.4335,0.00040703,0
2.434,0.00039193,0
2.4345,0.00030968,0
2.435,0.00019857,0
2.4355,0.00014485,0
2.436,0.00018782,0
2.4365,0.00023079,0
2.437,0.00023684,0
2.4375,0.00021166,0
2.438,0.00012052,0
2.4385,-4.9851e-05,0
2.439,-0.00026755,0
2.4395,-0.00047753,0
2.44,-0.00062608,0
2.4405,-0.00064555,0
2.441,-0.00055055,0
2.4415,-0.00040435,0
2.442,-0.00022962,0
2.4425,-4.0787e-05,0
2.443,0.00012689,0
2.4435,0.00023751,0
2.444,0.00029592,0
2.4445,0.00033217,0
2.445,0.00033603,0
2.4455,0.00028014,0
2.446,0.00019084,0
2.4465,0.00012454,0
2.447,8.5771e-05,0
2.4475,5.7572e-05,0
2.448,6.4286e-05,0
2.4485,0.00014972,0
2.449,0.00027175,0
2.4495,0.00035668,0
2.45,0.00039294,0
2.4505,0.00036507,0
2.451,0.00028316,0
2.4515,0.00016365,0
2.452,4.2634e-05,0
2.4525,-4.7837e-05,0
2.453,-8.7617e-05,0
2.4535,-7.3854e-05,0
2.454,-2.6352e-05,0
2.4545,2.8367e-05,0
2.455,6.2272e-05,0
2.4555,6.0761e-05,0
2.456,3.6759e-05,0
2.4565,1.4603e-05,0
2.457,1.9806e-05,0
2.4575,5.4551e-05,0
2.458,9.3324e-05,0
2.4585,0.00012807,0
2.459,0.00015879,0
2.4595,0.00015996,0
2.46,0.00011699,0
2.4605,3.8773e-05,0
2.461,-5.5558e-05,0
2.4615,-0.00013075,0
2.462,-0.00011749,0
2.4625,1.678e-07,0
2.463,0.00016365,0
2.4635,0.00029928,0
2.464,0.00032261,0
2.4645,0.00022542,0
2.465,8.4596e-05,0
2.4655,-5.388e-05,0
2.466,-0.00018883,0
2.4665,-0.00031237,0
2.467,-0.00040468,0
2.4675,-0.0004265,0
2.468,-0.00037363,0
2.4685,-0.00029424,0
2.469,-0.00022307,0
2.4695,-0.00015509,0
2.47,-8.04e-05,0
2.4705,-2.5345e-05,0
2.471,-6.8818e-06,0
2.4715,-9.5674e-06,0
2.472,-1.2589e-05,0
2.4725,-1.1917e-05,0
2.473,6.5461e-06,0
2.4735,7.1e-05,0
2.474,0.00018581,0
2.4745,0.00035164,0
2.475,0.00054232,0
2.4755,0.00064773,0
2.476,0.00059335,0
2.4765,0.00039461,0
2.477,0.00013814,0
2.4775,-8.7617e-05,0
2.478,-0.0002266,0
2.4785,-0.00028853,0
2.479,-0.0002699,0
2.4795,-0.00011363,0
2.48,0.00016751,0
2.4805,0.00040334,0
2.481,0.00040267,0
2.4815,0.00022274,0
2.482,-8.7282e-06,0
2.4825,-0.00027208,0
2.483,-0.00053175,0
2.4835,-0.00067979,0
2.484,-0.00065579,0
2.4845,-0.00054215,0
2.485,-0.00042332,0
2.4855,-0.00028434,0
2.486,-0.00011934,0
2.4865,6.2944e-05,0
2.487,0.00026906,0
2.4875,0.00043221,0
2.488,0.00045068,0
2.4885,0.00032126,0
2.489,0.0001425,0
2.4895,-1.5274e-05,0
2.49,-0.00016013,0
2.4905,-0.00026336,0
2.491,-0.00029306,0
2.4915,-0.00027494,0
2.492,-0.00021367,0
2.4925,-0.00013478,0
2.493,-8.2414e-05,0
2.4935,-6.244e-05,0
2.494,-4.5823e-05,0
2.4945,-3.2731e-05,0
2.495,-2.1988e-05,0
2.4955,4.9348e-05,0
2.496,0.00016332,0
2.4965,0.00023549,0
2.497,0.00021921,0
2.4975,0.00013495,0
2.498,3.9445e-05,0
2.4985,-6.2104e-06,0
2.499,8.2246e-06,0
2.4995,2.652e-05,0
2.5,4.3809e-05,0
2.5005,0.00016097,0
2.501,0.00037162,0
2.5015,0.00055273,0
2.502,0.00065109,0
2.5025,0.00066586,0
2.503,0.00056649,0
2.5035,0.00036591,0
2.504,0.00010692,0
2.5045,-0.00017607,0
2.505,-0.00042315,0
2.5055,-0.00053678,0
2.506,-0.00048206,0
2.5065,-0.0003404,0
2.507,-0.00021871,0
2.5075,-0.00016181,0
2.508,-0.0001697,0
2.5085,-0.00020041,0
2.509,-0.0002088,0
2.5095,-0.00017742,0
2.51,-0.00011699,0
2.5105,-5.6901e-05,0
2.511,8.5603e-06,0
2.5115,7.9728e-05,0
2.512,0.00012572,0
2.5125,0.00013243,0
2.513,0.00011984,0
2.5135,0.00011464,0
2.514,0.00013629,0
2.5145,0.00019756,0
2.515,0.00028887,0
2.5155,0.00036591,0
2.516,0.00039361,0
2.5165,0.00037044,0
2.517,0.00029776,0
2.5175,0.00017003,0
2.518,4.8173e-05,0
2.5185,2.8534e-05,0
2.519,0.00013747,0
2.5195,0.0003597,0
2.52,0.00059939,0
2.5205,0.00076338,0
2.521,0.00077043,0
2.5215,0.0005247,0
2.522,0.00016802,0
2.5225,-8.0064e-05,0
2.523,-0.00020629,0
2.5235,-0.00024791,0
2.524,-0.00026017,0
2.5245,-0.00029223,0
2.525,-0.00035114,0
2.5255,-0.00045017,0
2.526,-0.00056246,0
2.5265,-0.00064974,0
2.527,-0.00065444,0
2.5275,-0.00056716,0
2.528,-0.00048005,0
2.5285,-0.00043792,0
2.529,-0.00040385,0
2.5295,-0.0003456,0
2.53,-0.00027124,0
2.5305,-0.00020713,0
2.531,-0.00018279,0
2.5315,-0.00017171,0
2.532,-0.00013663,0
2.5325,-9.5003e-05,0
2.533,-4.7669e-05,0
2.5335,1.8631e-05,0
2.534,8.6778e-05,0
2.5345,0.0001331,0
2.535,0.00015492,0
2.5355,0.00016332,0
2.536,0.00017607,0
2.5365,0.00020763,0
2.537,0.00024691,0
2.5375,0.00027443,0
2.538,0.00028652,0
2.5385,0.00028769,0
2.539,0.00029357,0
2.5395,0.00032076,0
2.54,0.00034124,0
2.5405,0.00030297,0
2.541,0.00022274,0
2.5415,0.00018094,0
2.542,0.00021099,0
2.5425,0.00028568,0
2.543,0.00038656,0
2.5435,0.00055961,0
2.544,0.00080954,0
2.5445,0.00094717,0
2.545,0.00077865,0
2.5455,0.00041274,0
2.546,1.2757e-05,0
2.5465,-0.00033587,0
2.547,-0.00060006,0
2.5475,-0.00077546,0
2.548,-0.0008285,0
2.5485,-0.00072242,0
2.549,-0.00049969,0
2.5495,-0.00030028,0
2.55,-0.00019068,0
2.5505,-0.00015325,0
2.551,-0.00014603,0
2.5515,-0.00017053,0
2.552,-0.00023684,0
2.5525,-0.00031337,0
2.553,-0.0003258,0
2.5535,-0.00020679,0
2.554,-3.5752e-05,0
2.5545,7.0497e-05,0
2.555,0.00013881,0
2.5555,0.00022811,0
2.556,0.00034829,0
2.5565,0.00050271,0
2.557,0.00064169,0
2.5575,0.00066552,0
2.558,0.00050103,0
2.5585,0.00021736,0
2.559,-3.743e-05,0
2.5595,-0.00024472,0
2.56,-0.00042969,0
2.5605,-0.00058932,0
2.561,-0.00066502,0
2.5615,-0.0005868,0
2.562,-0.00041157,0
2.5625,-0.00023667,0
2.563,-0.00010642,0
2.5635,-9.2317e-06,0
2.564,5.153e-05,0
2.5645,8.7114e-05,0
2.565,0.00017339,0
2.5655,0.00034191,0
2.566,0.00047988,0
2.5665,0.00048391,0
2.567,0.0004067,0
2.5675,0.00031942,0
2.568,0.00023868,0
2.5685,0.00015946,0
2.569,8.4428e-05,0
2.5695,1.9806e-05,0
2.57,-1.4939e-05,0
2.5705,-9.5674e-06,0
2.571,7.8889e-06,0
2.5715,-1.8967e-05,0
2.572,-8.3589e-05,0
2.5725,-0.00012505,0
2.573,-0.00012522,0
2.5735,-0.00011984,0
2.574,-9.1814e-05,0
2.5745,-4.2466e-05,0
2.575,-1.6785e-06,0
2.5755,4.1459e-05,0
2.576,8.6275e-05,0
2.5765,9.5842e-05,0
2.577,6.949e-05,0
2.5775,6.2608e-05,0
2.578,8.5603e-05,0
2.5785,0.00011414,0
2.579,0.00013243,0
2.5795,0.00011934,0
2.58,8.5771e-05,0
2.5805,8.0232e-05,0
2.581,6.8986e-05,0
2.5815,4.4816e-05,0
2.582,5.9922e-05,0
2.5825,7.7714e-05,0
2.583,5.8076e-05,0
2.5835,8.0064e-05,0
2.584,0.00017607,0
2.5845,0.00026537,0
2.585,0.00030733,0
2.5855,0.00034728,0
2.586,0.00051144,0
2.5865,0.00078134,0
2.587,0.00088742,0
2.5875,0.00068701,0
2.588,0.00026,0
2.5885,-0.00021736,0
2.589,-0.00061735,0
2.5895,-0.00094197,0
2.59,-0.0011964,0
2.5905,-0.0012783,0
2.591,-0.0011843,0
2.5915,-0.0010017,0
2.592,-0.00075163,0
2.5925,-0.00047216,0
2.593,-0.00024405,0
2.5935,-0.0001044,0
2.594,-3.4745e-05,0
2.5945,1.0239e-05,0
2.595,5.5558e-05,0
2.5955,0.00010256,0
2.596,0.00014788,0
2.5965,0.0001895,0
2.597,0.00023415,0
2.5975,0.00027729,0
2.598,0.0002929,0
2.5985,0.0002751,0
2.599,0.00025093,0
2.5995,0.0002454,0
2.6,0.00025631,0
2.6005,0.00026973,0
2.601,0.00026906,0
2.6015,0.00025396,0
2.602,0.00024456,0
2.6025,0.0002746,0
2.603,0.00035332,0
2.6035,0.00046612,0
2.604,0.00059469,0
2.6045,0.00069389,0
2.605,0.00067794,0
2.6055,0.00049868,0
2.606,0.00019857,0
2.6065,-0.00010574,0
2.607,-0.00029743,0
2.6075,-0.00033385,0
2.608,-0.00023247,0
2.6085,1.796e-05,0
2.609,0.00031975,0
2.6095,0.00043742,0
2.61,0.0002835,0
2.6105,-3.4409e-05,0
2.611,-0.0003926,0
2.6115,-0.00066955,0
2.612,-0.00078419,0
2.6125,-0.00077613,0
2.613,-0.0006761,0
2.6135,-0.00048643,0
2.614,-0.00025664,0
2.6145,-4.2802e-05,0
2.615,0.00012169,0
2.6155,0.00023465,0
2.616,0.00029911,0
2.6165,0.00030985,0
2.617,0.00027108,0
2.6175,0.00020746,0
2.618,0.00014183,0
2.6185,5.4048e-05,0
2.619,-7.9393e-05,0
2.6195,-0.00022039,0
2.62,-0.00029592,0
2.6205,-0.00028786,0
2.621,-0.00025312,0
2.6215,-0.00020377,0
2.622,-7.3518e-05,0
2.6225,0.00011766,0
2.623,0.00030062,0
2.6235,0.00045537,0
2.624,0.00054769,0
2.6245,0.00055138,0
2.625,0.0004678,0
2.6255,0.00028182,0
2.626,4.3473e-05,0
2.6265,-0.00012102,0
2.627,-0.00018144,0
2.6275,-0.00017188,0
2.628,-6.9322e-05,0
2.6285,8.0232e-05,0
2.629,0.00021636,0
2.6295,0.00025228,0
2.63,0.000118,0
2.6305,-0.00016248,0
2.631,-0.00046175,0
2.6315,-0.00067778,0
2.632,-0.00076052,0
2.6325,-0.00067778,0
2.633,-0.00051026,0
2.6335,-0.00033687,0
2.634,-0.00017305,0
2.6345,-4.6326e-05,0
2.635,2.2995e-05,0
2.6355,5.8915e-05,0
2.636,8.8457e-05,0
2.6365,0.00011867,0
2.637,0.00014469,0
2.6375,0.0001608,0
2.638,0.00016735,0
2.6385,0.00017305,0
2.639,0.00017876,0
2.6395,0.00018144,0
2.64,0.00018111,0
2.6405,0.00018111,0
2.641,0.00018984,0
2.6415,0.00020461,0
2.642,0.00021032,0
2.6425,0.00020192,0
2.643,0.00019857,0
2.6435,0.00023432,0
2.644,0.00027897,0
2.6445,0.00027309,0
2.645,0.00022995,0
2.6455,0.00020864,0
2.646,0.00023583,0
2.6465,0.00030632,0
2.647,0.00039327,0
2.6475,0.00046847,0
2.648,0.00051379,0
2.6485,0.00051681,0
2.649,0.00040905,0
2.6495,0.00018581,0
2.65,-4.1291e-05,0
2.6505,-0.00016953,0
2.651,-0.00022626,0
2.6515,-0.00028702,0
2.652,-0.00041341,0
2.6525,-0.00055323,0
2.653,-0.00056851,0
2.6535,-0.00044631,0
2.654,-0.00030817,0
2.6545,-0.0002031,0
2.655,-6.7979e-05,0
2.6555,9.6345e-05,0
2.656,0.00018984,0
2.6565,0.00017104,0
2.657,5.1865e-05,0
2.6575,-0.00012102,0
2.658,-0.00029508,0
2.6585,-0.00039092,0
2.659,-0.00039629,0
2.6595,-0.00031421,0
2.66,-0.00016852,0
2.6605,-0.00010507,0
2.661,-0.00016735,0
2.6615,-0.00020964,0
2.662,-0.00019353,0
2.6625,-0.00016953,0
2.663,-0.00010675,0
2.6635,0.0001039,0
2.664,0.00048122,0
2.6645,0.00082699,0
2.665,0.00090538,0
2.6655,0.00074491,0
2.666,0.00053745,0
2.6665,0.00040972,0
2.667,0.00039277,0
2.6675,0.00039579,0
2.668,0.0003258,0
2.6685,0.00015492,0
2.669,-0.00011179,0
2.6695,-0.00044245,0
2.67,-0.00076707,0
2.6705,-0.0010581,0
2.671,-0.0012031,0
2.6715,-0.0010595,0
2.672,-0.00075767,0
2.6725,-0.00052503,0
2.673,-0.00036658,0
2.6735,-0.00020209,0
2.674,-3.8102e-05,0
2.6745,7.7043e-05,0
2.675,0.00013613,0
2.6755,0.00016533,0
2.676,0.00018732,0
2.6765,0.00020763,0
2.677,0.00022425,0
2.6775,0.00023549,0
2.678,0.0002454,0
2.6785,0.00025429,0
2.679,0.00026403,0
2.6795,0.0002929,0
2.68,0.00034359,0
2.6805,0.00043221,0
2.681,0.00055172,0
2.6815,0.00060996,0
2.682,0.00056112,0
2.6825,0.00042852,0
2.683,0.00026033,0
2.6835,0.00010809,0
2.684,9.5674e-06,0
2.6845,-7.1e-05,0
2.685,-0.00016751,0
2.6855,-0.00019319,0
2.686,-0.00011531,0
2.6865,1.2085e-05,0
2.687,0.00014166,0
2.6875,0.00021132,0
2.688,0.00021837,0
2.6885,0.00021065,0
2.689,0.00018061,0
2.6895,9.3492e-05,0
2.69,1.1582e-05,0
2.6905,2.4002e-05,0
2.691,8.4428e-05,0
2.6915,0.00013143,0
2.692,0.00015962,0
2.6925,0.00014385,0
2.693,0.00011128,0
2.6935,9.5674e-05,0
2.694,3.7934e-05,0
2.6945,-0.00012102,0
2.695,-0.00033687,0
2.6955,-0.00046545,0
2.696,-0.00043909,0
2.6965,-0.00040015,0
2.697,-0.00044396,0
2.6975,-0.00046259,0
2.698,-0.00039646,0
2.6985,-0.00029894,0
2.699,-0.00021971,0
2.6995,-0.00012404,0
2.7,4.683e-05,0
2.7005,0.00022911,0
2.701,0.00027376,0
2.7015,0.00017557,0
2.702,9.2317e-05,0
2.7025,0.00011783,0
2.703,0.00024926,0
2.7035,0.00049986,0
2.704,0.0007377,0
2.7045,0.00076992,0
2.705,0.00062423,0
2.7055,0.0004255,0
2.706,0.00020159,0
2.7065,-2.4842e-05,0
2.707,-0.00024959,0
2.7075,-0.00048626,0
2.708,-0.00064186,0
2.7085,-0.00066603,0
2.709,-0.00054668,0
2.7095,-0.00023851,0
2.71,0.00015627,0
2.7105,0.00038286,0
2.711,0.00036239,0
2.7115,0.000189,0
2.712,-3.2059e-05,0
2.7125,-0.00023482,0
2.713,-0.0003738,0
2.7135,-0.00039797,0
2.714,-0.00018698,0
2.7145,0.00025866,0
2.715,0.00072158,0
2.7155,0.00095657,0
2.716,0.00082934,0
2.7165,0.00042953,0
2.717,-5.6062e-05,0
2.7175,-0.00052805,0
2.718,-0.00091243,0
2.7185,-0.0010481,0
2.719,-0.00087517,0
2.7195,-0.0005539,0
2.72,-0.00027091,0
2.7205,-4.6159e-05,0
2.721,0.00011061,0
2.7215,0.0001378,0
2.722,5.304e-05,0
2.7225,-4.0787e-05,0
2.723,-6.5629e-05,0
2.7235,-3.6759e-05,0
2.724,-3.6423e-05,0
2.7245,-5.7237e-05,0
2.725,4.1962e-06,0
2.7255,0.00014267,0
2.726,0.00023818,0
2.7265,0.00022542,0
2.727,0.00015358,0
2.7275,9.4163e-05,0
2.728,7.1336e-05,0
2.7285,9.6513e-05,0
2.729,0.00022811,0
2.7295,0.00046444,0
2.73,0.00064706,0
2.7305,0.00065377,0
2.731,0.00051815,0
2.7315,0.00031942,0
2.732,9.8527e-05,0
2.7325,-0.00010172,0
2.733,-0.0002229,0
2.7335,-0.00019773,0
2.734,-7.2511e-05,0
2.7345,5.153e-05,0
2.735,0.00015828,0
2.7355,0.00023449,0
2.736,0.00023717,0
2.7365,0.00014217,0
2.737,3.508e-05,0
2.7375,5.9922e-05,0
2.738,0.00017641,0
2.7385,0.00014855,0
2.739,-5.6565e-05,0
2.7395,-0.00024237,0
2.74,-0.00034376,0
2.7405,-0.00042298,0
2.741,-0.00051614,0
2.7415,-0.00060879,0
2.742,-0.00059251,0
2.7425,-0.00040401,0
2.743,-0.00016886,0
2.7435,-2.4842e-05,0
2.744,3.357e-06,0
2.7445,-6.5461e-06,0
2.745,3.0381e-05,0
2.7455,8.9128e-05,0
2.746,0.00011833,0
2.7465,0.00013462,0
2.747,0.00018917,0
2.7475,0.0002939,0
2.748,0.00038589,0
2.7485,0.00045437,0
2.749,0.00049264,0
2.7495,0.00045537,0
2.75,0.00039596,0
2.7505,0.00039059,0
2.751,0.000355,0
2.7515,0.0001707,0
2.752,-9.7353e-05,0
2.7525,-0.00028853,0
2.753,-0.00033721,0
2.7535,-0.00025765,0
2.754,-7.3182e-05,0
2.7545,8.7953e-05,0
2.755,9.0471e-05,0
2.7555,-5.0523e-05,0
2.756,-0.00024154,0
2.7565,-0.00039864,0
2.757,-0.00049734,0
2.7575,-0.0005774,0
2.758,-0.00059838,0
2.7585,-0.00050573,0
2.759,-0.00031186,0
2.7595,-6.4622e-05,0
2.76,0.00014217,0
2.7605,0.0002219,0
2.761,0.00018312,0
2.7615,0.00012639,0
2.762,0.0001566,0
2.7625,0.00029894,0
2.763,0.00046444,0
2.7635,0.00052621,0
2.764,0.00046444,0
2.7645,0.00032193,0
2.765,0.0001415,0
2.7655,-3.1388e-05,0
2.766,-0.00018447,0
2.7665,-0.00028098,0
2.767,-0.00021283,0
2.7675,-3.1891e-05,0
2.768,8.7953e-05,0
2.7685,8.2918e-05,0
2.769,2.1653e-05,0
2.7695,-3.5416e-05,0
2.77,-6.2272e-05,0
2.7705,-5.6901e-05,0
2.771,-3.2395e-05,0
2.7715,-2.182e-06,0
2.772,2.5009e-05,0
2.7725,3.3066e-05,0
2.773,-1.8631e-05,0
2.7735,-5.2537e-05,0
2.774,0.00012538,0
2.7745,0.00048727,0
2.775,0.00074777,0
2.7755,0.0007424,0
2.776,0.00056851,0
2.7765,0.00046511,0
2.777,0.00057388,0
2.7775,0.00066116,0
2.778,0.00045101,0
2.7785,3.4241e-05,0
2.779,-0.00033234,0
2.7795,-0.00056246,0
2.78,-0.00077949,0
2.7805,-0.0010182,0
2.781,-0.0010212,0
2.7815,-0.00066435,0
2.782,-0.00019303,0
2.7825,0.00011498,0
2.783,0.00020327,0
2.7835,0.0001603,0
2.784,0.00010172,0
2.7845,5.4719e-05,0
2.785,-6.8818e-06,0
2.7855,-2.5849e-05,0
2.786,4.6494e-05,0
2.7865,0.00019823,0
2.787,0.00043624,0
2.7875,0.00066787,0
2.788,0.00067727,0
2.7885,0.0003973,0
2.789,-9.0135e-05,0
2.7895,-0.00059637,0
2.79,-0.00093576,0
2.7905,-0.0010521,0
2.791,-0.0010024,0
2.7915,-0.00072914,0
2.792,-0.00024388,0
2.7925,0.00018296,0
2.793,0.00032277,0
2.7935,0.0002088,0
2.794,1.4939e-05,0
2.7945,-0.00011212,0
2.795,-0.00013042,0
2.7955,-1.1078e-05,0
2.796,0.00024405,0
2.7965,0.00049197,0
2.797,0.00057824,0
2.7975,0.0004725,0
2.798,0.0002506,0
2.7985,2.9374e-05,0
2.799,-0.00012924,0
2.7995,-0.0002412,0
2.8,-0.00026839,0
2.8005,-0.00016332,0
2.801,1.6617e-05,0
2.8015,0.00014015,0
2.802,0.00017087,0
2.8025,0.00016567,0
2.803,0.00017037,0
2.8035,0.00017104,0
2.804,0.00014334,0
2.8045,0.00010893,0
2.805,6.6804e-05,0
2.8055,1.8631e-05,0
2.806,2.7359e-05,0
2.8065,0.00013176,0
2.807,0.00030314,0
2.8075,0.00047417,0
2.808,0.00058932,0
2.8085,0.0006014,0
2.809,0.00046041,0
2.8095,0.00025295,0
2.81,0.00022542,0
2.8105,0.00036641,0
2.811,0.00040401,0
2.8115,0.00023616,0
2.812,-1.8296e-05,0
2.8125,-0.00022744,0
2.813,-0.0003926,0
2.8135,-0.00057589,0
2.814,-0.00077714,0
2.8145,-0.0008191,0
2.815,-0.00059553,0
2.8155,-0.00029122,0
2.816,-0.00012639,0
2.8165,-0.00010608,0
2.817,-0.00011817,0
2.8175,-0.00012438,0
2.818,-0.00014318,0
2.8185,-0.00011699,0
2.819,4.918e-05,0
2.8195,0.0003023,0
2.82,0.00043758,0
2.8205,0.00039042,0
2.821,0.00027779,0
2.8215,0.00020243,0
2.822,0.0001744,0
2.8225,0.00012136,0
2.823,-2.3499e-05,0
2.8235,-0.00015627,0
2.824,-0.00013462,0
2.8245,7.0497e-06,0
2.825,0.00015325,0
2.8255,0.00027578,0
2.826,0.00033553,0
2.8265,0.00026268,0
2.827,3.7095e-05,0
2.8275,-0.00021015,0
2.828,-0.00027544,0
2.8285,-0.00016399,0
2.829,-7.5029e-05,0
2.8295,-7.3518e-05,0
2.83,-4.448e-05,0
2.8305,8.2414e-05,0
2.831,0.00023079,0
2.8315,0.0003174,0
2.832,0.0003456,0
2.8325,0.00027544,0
2.833,6.0929e-05,0
2.8335,-0.00024875,0
2.834,-0.00052436,0
2.8345,-0.00071386,0
2.835,-0.00081608,0
2.8355,-0.00081071,0
2.836,-0.00063984,0
2.8365,-0.00030431,0
2.837,-8.2246e-06,0
2.8375,9.0135e-05,0
2.838,6.1097e-05,0
2.8385,4.5151e-05,0
2.839,2.652e-05,0
2.8395,-1.8296e-05,0
2.84,6.9657e-05,0
2.8405,0.00029961,0
2.841,0.0004448,0
2.8415,0.00037783,0
2.842,0.00018463,0
2.8425,3.5248e-06,0
2.843,-9.987e-05,0
2.8435,-0.00010423,0
2.844,-3.5416e-05,0
2.8445,5.8244e-05,0
2.845,0.00015627,0
2.8455,0.00020327,0
2.846,0.00014351,0
2.8465,4.1962e-05,0
2.847,3.1052e-05,0
2.8475,0.00012857,0
2.848,0.00018245,0
2.8485,0.0001133,0
2.849,1.1078e-05,0
2.8495,-1.7288e-05,0
2.85,1.3764e-05,0
2.8505,4.5823e-05,0
2.851,5.3376e-05,0
2.8515,4.8844e-05,0
2.852,6.5461e-05,0
2.8525,0.00010524,0
2.853,0.00015023,0
2.8535,0.00018682,0
2.854,0.00020159,0
2.8545,0.0001796,0
2.855,0.00013512,0
2.8555,9.3828e-05,0
2.856,7.0329e-05,0
2.8565,6.6636e-05,0
2.857,6.3615e-05,0
2.8575,5.8244e-05,0
2.858,6.244e-05,0
2.8585,7.9057e-05,0
2.859,0.00012152,0
2.8595,0.00020494,0
2.86,0.00028988,0
2.8605,0.00032395,0
2.861,0.00030465,0
2.8615,0.00024691,0
2.862,0.00016768,0
2.8625,0.00013176,0
2.863,0.00022257,0
2.8635,0.00038035,0
2.864,0.0004589,0
2.8645,0.00038857,0
2.865,0.00019387,0
2.8655,-9.9031e-06,0
2.866,-0.00017037,0
2.8665,-0.00034946,0
2.867,-0.00051261,0
2.8675,-0.0005628,0
2.868,-0.00047384,0
2.8685,-0.0003451,0
2.869,-0.00032496,0
2.8695,-0.00042298,0
2.87,-0.00050103,0
2.8705,-0.00047048,0
2.871,-0.00034191,0
2.8715,-0.00018296,0
2.872,-2.2492e-05,0
2.8725,0.00013982,0
2.873,0.00024019,0
2.8735,0.00020931,0
2.874,7.2343e-05,0
2.8745,-5.9587e-05,0
2.875,-0.00012068,0
2.8755,-0.00014955,0
2.876,-0.00016701,0
2.8765,-0.00014653,0
2.877,-6.9993e-05,0
2.8775,1.8799e-05,0
2.878,6.5126e-05,0
2.8785,6.1265e-05,0
2.879,5.7404e-05,0
2.8795,0.00013579,0
2.88,0.00027846,0
2.8805,0.00037447,0
2.881,0.00037212,0
2.8815,0.00031304,0
2.882,0.00022139,0
2.8825,0.00012538,0
2.883,5.388e-05,0
2.8835,-1.091e-05,0
2.884,-6.7979e-05,0
2.8845,-0.00011263,0
2.885,-0.00016634,0
2.8855,-0.00020226,0
2.886,-0.00018363,0
2.8865,-0.00012857,0
2.887,-7.3014e-05,0
2.8875,-3.8773e-05,0
2.888,-2.4674e-05,0
2.8885,-1.1246e-05,0
2.889,1.326e-05,0
2.8895,4.5823e-05,0
2.89,7.57e-05,0
2.8905,9.6178e-05,0
2.891,0.00010776,0
2.8915,0.00011078,0
2.892,0.00010507,0
2.8925,9.3828e-05,0
2.893,8.7785e-05,0
2.8935,9.3324e-05,0
2.894,0.00010004,0
2.8945,9.7353e-05,0
2.895,9.7856e-05,0
2.8955,0.00010961,0
2.896,0.00011867,0
2.8965,0.00012068,0
2.897,0.0001368,0
2.8975,0.00017943,0
2.898,0.00021199,0
2.8985,0.00018917,0
2.899,0.0001034,0
2.8995,7.7211e-06,0
2.9,-5.623e-05,0
2.9005,-9.0471e-05,0
2.901,-0.00010558,0
2.9015,-5.1865e-05,0
2.902,0.00016063,0
2.9025,0.00046847,0
2.903,0.00071588,0
2.9035,0.00073703,0
2.904,0.00050002,0
2.9045,0.00015795,0
2.905,-0.00018514,0
2.9055,-0.00053242,0
2.906,-0.00080803,0
2.9065,-0.0009131,0
2.907,-0.00081222,0
2.9075,-0.00058882,0
2.908,-0.00038253,0
2.9085,-0.00026117,0
2.909,-0.00017003,0
2.9095,-3.6423e-05,0
2.91,9.1646e-05,0
2.9105,0.00013478,0
2.911,0.00016432,0
2.9115,0.00023415,0
2.912,0.00030448,0
2.9125,0.00037028,0
2.913,0.00041878,0
2.9135,0.00041341,0
2.914,0.00031673,0
2.9145,0.00013713,0
2.915,-7.7211e-05,0
2.9155,-0.00025899,0
2.916,-0.0003409,0
2.9165,-0.00031656,0
2.917,-0.0002365,0
2.9175,-0.0001467,0
2.918,-8.8792e-05,0
2.9185,-5.1194e-05,0
2.919,1.6785e-06,0
2.9195,6.2608e-05,0
2.92,0.00010457,0
2.9205,0.00012605,0
2.921,0.0001368,0
2.9215,0.00011128,0
2.922,3.122e-05,0
2.9225,-5.7908e-05,0
2.923,-0.00010961,0
2.9235,-0.00012773,0
2.924,-0.00012874,0
2.9245,-9.7856e-05,0
2.925,-5.388e-05,0
2.9255,-2.3499e-05,0
2.926,1.6617e-05,0
2.9265,7.3014e-05,0
2.927,0.00011028,0
2.9275,0.00011078,0
2.928,9.5842e-05,0
2.9285,8.7617e-05,0
2.929,8.5435e-05,0
2.9295,8.1743e-05,0
2.93,0.00010491,0
2.9305,0.00019857,0
2.931,0.00034879,0
2.9315,0.00048122,0
2.932,0.00051781,0
2.9325,0.00045772,0
2.933,0.00032731,0
2.9335,0.00015543,0
2.934,1.9638e-05,0
2.9345,-2.8199e-05,0
2.935,-4.7501e-05,0
2.9355,-0.00010961,0
2.936,-0.00018094,0
2.9365,-0.00020024,0
2.937,-0.00013143,0
2.9375,7.8889e-06,0
2.938,0.00015224,0
2.9385,0.00021988,0
2.939,0.00016097,0
2.9395,-2.2324e-05,0
2.94,-0.000308,0
2.9405,-0.00060493,0
2.941,-0.00076371,0
2.9415,-0.00074055,0
2.942,-0.00060761,0
2.9425,-0.00041845,0
2.943,-0.00022559,0
2.9435,-8.3421e-05,0
2.944,9.5674e-06,0
2.9445,5.3208e-05,0
2.945,4.1962e-05,0
2.9455,2.5345e-05,0
2.946,6.9657e-05,0
2.9465,0.00015862,0
2.947,0.00022475,0
2.9475,0.0002506,0
2.948,0.00025127,0
2.9485,0.00024154,0
2.949,0.00026285,0
2.9495,0.00035433,0
2.95,0.00047317,0
2.9505,0.00048592,0
2.951,0.00034594,0
2.9515,0.00016483,0
2.952,1.2924e-05,0
2.9525,-0.00011749,0
2.953,-0.00020629,0
2.9535,-0.00021904,0
2.954,-0.0001603,0
2.9545,-9.836e-05,0
2.955,-4.5319e-06,0
2.9555,0.00026033,0
2.956,0.00068063,0
2.9565,0.0010042,0
2.957,0.00099887,0
2.9575,0.0006625,0
2.958,0.00016634,0
2.9585,-0.00030448,0
2.959,-0.00066921,0
2.9595,-0.00092384,0
2.96,-0.000993,0
2.9605,-0.0008332,0
2.961,-0.00056515,0
2.9615,-0.00032697,0
2.962,-0.00017607,0
2.9625,-0.00010239,0
2.963,-6.2104e-05,0
2.9635,-1.8967e-05,0
2.964,2.6184e-05,0
2.9645,5.7908e-05,0
2.965,7.57e-05,0
2.9655,9.3828e-05,0
2.966,0.00011196,0
2.9665,0.00011397,0
2.967,0.00010256,0
2.9675,9.7856e-05,0
2.968,9.6513e-05,0
2.9685,8.3421e-05,0
2.969,8.7785e-05,0
2.9695,0.00013948,0
2.97,0.00020461,0
2.9705,0.00024808,0
2.971,0.00026973,0
2.9715,0.00026503,0
2.972,0.00022274,0
2.9725,0.00015442,0
2.973,7.0497e-05,0
2.9735,-4.3641e-06,0
2.974,-3.508e-05,0
2.9745,-2.266e-05,0
2.975,1.1749e-06,0
2.9755,1.1246e-05,0
2.976,6.2104e-06,0
2.9765,-1.678e-07,0
2.977,1.6617e-05,0
2.9775,7.0329e-05,0
2.978,0.00011984,0
2.9785,0.00014217,0
2.979,0.00014821,0
2.9795,0.00015023,0
2.98,0.00018212,0
2.9805,0.00025765,0
2.981,0.00027846,0
2.9815,0.00018564,0
2.982,3.743e-05,0
2.9825,-0.00012538,0
2.983,-0.00026352,0
2.9835,-0.00035248,0
2.984,-0.0003691,0
2.9845,-0.00029625,0
2.985,-0.00018279,0
2.9855,-0.00010054,0
2.986,-6.2272e-05,0
2.9865,-3.4745e-05,0
2.987,-5.539e-06,0
2.9875,2.266e-05,0
2.988,5.1362e-05,0
2.9885,8.0735e-05,0
2.989,0.00010927,0
2.9895,0.00017557,0
2.99,0.00030398,0
2.9905,0.00047216,0
2.991,0.00067492,0
2.9915,0.00077328,0
2.992,0.00062423,0
2.9925,0.00027057,0
2.993,-0.00018144,0
2.9935,-0.00061802,0
2.994,-0.00085805,0
2.9945,-0.0008379,0
2.995,-0.00065595,0
2.9955,-0.00040116,0
2.996,-0.00015341,0
2.9965,-7.5532e-06,0
2.997,8.2246e-06,0
2.9975,-3.9445e-05,0
2.998,-9.5171e-05,0
2.9985,-0.0001331,0
2.999,-0.00012941,0
2.9995,-8.191e-05,0
3,-1.0239e-05,0
3.0005,8.0064e-05,0
3.001,0.00019504,0
3.0015,0.0002798,0
3.002,0.00027208,0
3.0025,0.00019504,0
3.003,0.00011733,0
3.0035,5.4887e-05,0
3.004,-2.9877e-05,0
3.0045,-0.00012908,0
3.005,-0.00015308,0
3.0055,-6.63e-05,0
3.006,4.8844e-05,0
3.0065,0.0001091,0
3.007,0.00010961,0
3.0075,8.0064e-05,0
3.008,2.6352e-05,0
3.0085,-1.8296e-05,0
3.009,-2.8534e-06,0
3.0095,7.9728e-05,0
3.01,0.00018111,0
3.0105,0.00027645,0
3.011,0.00037313,0
3.0115,0.00039596,0
3.012,0.00029575,0
3.0125,0.00016097,0
3.013,6.1601e-05,0
3.0135,-2.6184e-05,0
3.014,-8.8792e-05,0
3.0145,-9.1478e-05,0
3.015,-3.122e-05,0
3.0155,9.4163e-05,0
3.016,0.00029659,0
3.0165,0.00051261,0
3.017,0.00067106,0
3.0175,0.0006625,0
3.018,0.0003879,0
3.0185,-5.6901e-05,0
3.019,-0.00043188,0
3.0195,-0.00063951,0
3.02,-0.00074441,0
3.0205,-0.00073988,0
3.021,-0.00062843,0
3.0215,-0.00046679,0
3.022,-0.00030498,0
3.0225,-0.00015727,0
3.023,7.7882e-05,0
3.0235,0.00040368,0
3.024,0.00058395,0
3.0245,0.0004819,0
3.025,0.00018766,0
3.0255,-0.00015375,0
3.026,-0.00041845,0
3.0265,-0.00060308,0
3.027,-0.00071604,0
3.0275,-0.00068952,0
3.028,-0.0005064,0
3.0285,-0.00025933,0
3.029,-4.4816e-05,0
3.0295,0.00012102,0
3.03,0.00024103,0
3.0305,0.0002976,0
3.031,0.0003127,0
3.0315,0.00030297,0
3.032,0.00025026,0
3.0325,0.00016466,0
3.033,7.4021e-05,0
3.0335,2.9374e-05,0
3.034,8.5771e-05,0
3.0345,0.00019789,0
3.035,0.00027427,0
3.0355,0.00026973,0
3.036,0.00020964,0
3.0365,0.00014553,0
3.037,0.00010524,0
3.0375,9.9535e-05,0
3.038,0.00013948,0
3.0385,0.00024691,0
3.039,0.00033822,0
3.0395,0.00032378,0
3.04,0.00022072,0
3.0405,4.0787e-05,0
3.041,-0.00017658,0
3.0415,-0.00036809,0
3.042,-0.00045722,0
3.0425,-0.00040116,0
3.043,-0.00023415,0
3.0435,-6.0258e-05,0
3.044,3.9109e-05,0
3.0445,7.6875e-05,0
3.045,0.00010021,0
3.0455,0.00010642,0
3.046,8.2414e-05,0
3.0465,4.0955e-05,0
3.047,2.5177e-06,0
3.0475,-1.8463e-06,0
3.048,3.357e-05,0
3.0485,0.0001284,0
3.049,0.00030112,0
3.0495,0.00047703,0
3.05,0.00055138,0
3.0505,0.00051144,0
3.051,0.00038857,0
3.0515,0.00021535,0
3.052,8.5603e-06,0
3.0525,-0.00020729,0
3.053,-0.00034678,0
3.0535,-0.00034292,0
3.054,-0.00026923,0
3.0545,-0.0002224,0
3.055,-0.0001989,0
3.0555,-0.00016869,0
3.056,-0.00011833,0
3.0565,-4.0452e-05,0
3.057,5.8244e-05,0
3.0575,0.00013277,0
3.058,0.00015224,0
3.0585,0.00017171,0
3.059,0.00021199,0
3.0595,0.00017943,0
3.06,5.3544e-05,0
3.0605,-6.865e-05,0
3.061,-0.00012421,0
3.0615,-0.00012975,0
3.062,-0.00011162,0
3.0625,-6.5965e-05,0
3.063,4.0116e-05,0
3.0635,0.00019756,0
3.064,0.00030062,0
3.0645,0.0003033,0
3.065,0.00028383,0
3.0655,0.0002845,0
3.066,0.00021938,0
3.0665,5.6565e-05,0
3.067,-0.00010524,0
3.0675,-0.00014469,0
3.068,-6.8986e-05,0
3.0685,-1.7288e-05,0
3.069,3.5752e-05,0
