0,0,0
0.0005,0,0
0.001,0,0
0.0015,0,0
0.002,0,0
0.0025,0,0
0.003,0,0
0.0035,0,0
0.004,0,0
0.0045,0,0
0.005,0,0
0.0055,0,0
0.006,0,0
0.0065,0,0
0.007,0,0
0.0075,0,0
0.008,0,0
0.0085,0,0
0.009,0,0
0.0095,0,0
0.01,0,0
0.0105,0,0
0.011,0,0
0.0115,0,0
0.012,0,0
0.0125,0,0
0.013,7.2679e-05,0
0.0135,4.683e-05,0
0.014,2.6184e-05,0
0.0145,1.1246e-05,0
0.015,2.0142e-06,0
0.0155,2.182e-06,0
0.016,1.0239e-05,0
0.0165,2.031e-05,0
0.017,2.7359e-05,0
0.0175,2.3163e-05,0
0.018,1.1246e-05,0
0.0185,4.5319e-06,0
0.019,9.9031e-06,0
0.0195,1.6953e-05,0
0.02,1.4267e-05,0
0.0205,7.5532e-06,0
0.021,1.0239e-05,0
0.0215,2.4002e-05,0
0.022,3.7262e-05,0
0.0225,3.9445e-05,0
0.023,2.9206e-05,0
0.0235,2.1317e-05,0
0.024,2.0813e-05,0
0.0245,2.8534e-05,0
0.025,3.8773e-05,0
0.0255,3.4073e-05,0
0.026,2.031e-05,0
0.0265,1.1078e-05,0
0.027,1.1917e-05,0
0.0275,1.4603e-05,0
0.028,1.7121e-05,0
0.0285,1.6953e-05,0
0.029,4.8676e-06,0
0.0295,-1.7624e-05,0
0.03,-3.4745e-05,0
0.0305,-4.1795e-05,0
0.031,-4.7501e-05,0
0.0315,-5.5558e-05,0
0.032,-6.7979e-05,0
0.0325,-7.6036e-05,0
0.033,-8.2414e-05,0
0.0335,-9.5003e-05,0
0.034,-9.9031e-05,0
0.0345,-7.0161e-05,0
0.035,-1.4939e-05,0
0.0355,3.8605e-05,0
0.036,6.9657e-05,0
0.0365,8.426e-05,0
0.037,8.7114e-05,0
0.0375,8.5771e-05,0
0.038,9.0974e-05,0
0.0385,9.4667e-05,0
0.039,8.1071e-05,0
0.0395,5.3544e-05,0
0.04,2.5681e-05,0
0.0405,-2.6856e-06,0
0.041,-2.4338e-05,0
0.0415,-2.7695e-05,0
0.042,-1.4267e-05,0
0.0425,3.8605e-06,0
0.043,5.8747e-06,0
0.0435,-1.9806e-05,0
0.044,-5.2537e-05,0
0.0445,-6.5797e-05,0
0.045,-5.7237e-05,0
0.0455,-3.3738e-05,0
0.046,-2.182e-06,0
0.0465,2.4674e-05,0
0.047,4.0452e-05,0
0.0475,4.5823e-05,0
0.048,4.5487e-05,0
0.0485,3.6927e-05,0
0.049,3.0213e-05,0
0.0495,3.8773e-05,0
0.05,5.304e-05,0
0.0505,6.0929e-05,0
0.051,5.5726e-05,0
0.0515,3.4577e-05,0
0.052,1.326e-05,0
0.0525,3.6927e-06,0
0.053,4.6998e-06,0
0.0535,1.6617e-05,0
0.054,4.448e-05,0
0.0545,8.0232e-05,0
0.055,0.00010054,0
0.0555,0.0001086,0
0.056,0.00012303,0
0.0565,0.0001462,0
0.057,0.00016365,0
0.0575,0.00015056,0
0.058,0.00010356,0
0.0585,4.9851e-05,0
0.059,1.7624e-05,0
0.0595,1.4267e-05,0
0.06,3.1724e-05,0
0.0605,4.2802e-05,0
0.061,3.0045e-05,0
0.0615,2.182e-06,0
0.062,-1.4267e-05,0
0.0625,-1.9303e-05,0
0.063,-2.652e-05,0
0.0635,-3.9948e-05,0
0.064,-5.4048e-05,0
0.0645,-6.4958e-05,0
0.065,-7.7714e-05,0
0.0655,-9.1814e-05,0
0.066,-9.3492e-05,0
0.0665,-7.6875e-05,0
0.067,-4.5655e-05,0
0.0675,-8.896e-06,0
0.068,1.3932e-05,0
0.0685,2.031e-05,0
0.069,2.5849e-05,0
0.0695,3.2059e-05,0
0.07,3.5416e-05,0
0.0705,3.7095e-05,0
0.071,3.5248e-05,0
0.0715,3.2731e-05,0
0.072,3.0045e-05,0
0.0725,1.4603e-05,0
0.073,-9.5674e-06,0
0.0735,-2.4674e-05,0
0.074,-3.6759e-05,0
0.0745,-4.5151e-05,0
0.075,-4.9851e-05,0
0.0755,-6.2944e-05,0
0.076,-8.2246e-05,0
0.0765,-8.9632e-05,0
0.077,-7.3854e-05,0
0.0775,-4.6494e-05,0
0.078,-3.1556e-05,0
0.0785,-2.1653e-05,0
0.079,8.5603e-06,0
0.0795,6.3447e-05,0
0.08,0.00012874,0
0.0805,0.00018715,0
0.081,0.00022408,0
0.0815,0.00024019,0
0.082,0.00022811,0
0.0825,0.00018614,0
0.083,0.00013512,0
0.0835,9.9199e-05,0
0.084,7.5364e-05,0
0.0845,5.2537e-05,0
0.085,3.1724e-05,0
0.0855,2.2492e-05,0
0.086,2.1988e-05,0
0.0865,2.0646e-05,0
0.087,1.6617e-05,0
0.0875,1.1414e-05,0
0.088,5.035e-07,0
0.0885,-2.1653e-05,0
0.089,-4.5823e-05,0
0.0895,-6.1936e-05,0
0.09,-6.0594e-05,0
0.0905,-4.6326e-05,0
0.091,-3.7095e-05,0
0.0915,-3.8941e-05,0
0.092,-4.0787e-05,0
0.0925,-4.5655e-05,0
0.093,-4.9683e-05,0
0.0935,-3.592e-05,0
0.094,-2.0142e-06,0
0.0945,4.213e-05,0
0.095,7.5868e-05,0
0.0955,8.5771e-05,0
0.096,8.0064e-05,0
0.0965,7.0329e-05,0
0.097,6.5126e-05,0
0.0975,6.3279e-05,0
0.098,5.5894e-05,0
0.0985,4.1123e-05,0
0.099,2.7359e-05,0
0.0995,1.8631e-05,0
0.1,1.4267e-05,0
0.1005,1.561e-05,0
0.101,1.6617e-05,0
0.1015,1.3932e-05,0
0.102,1.5274e-05,0
0.1025,2.5177e-05,0
0.103,3.6088e-05,0
0.1035,3.978e-05,0
0.104,3.6088e-05,0
0.1045,2.9709e-05,0
0.105,2.3331e-05,0
0.1055,1.5274e-05,0
0.106,1.0407e-05,0
0.1065,1.1246e-05,0
0.107,5.8747e-06,0
0.1075,-8.2246e-06,0
0.108,-1.9135e-05,0
0.1085,-2.2995e-05,0
0.109,-1.8631e-05,0
0.1095,-1.2589e-05,0
0.11,-1.1414e-05,0
0.1105,-5.2033e-06,0
0.111,1.1582e-05,0
0.1115,2.9038e-05,0
0.112,3.5248e-05,0
0.1125,3.3066e-05,0
0.113,3.4745e-05,0
0.1135,4.5151e-05,0
0.114,6.2608e-05,0
0.1145,7.9728e-05,0
0.115,8.1743e-05,0
0.1155,5.5726e-05,0
0.116,1.6953e-05,0
0.1165,-1.091e-05,0
0.117,-1.8128e-05,0
0.1175,-1.6953e-05,0
0.118,-1.7624e-05,0
0.1185,-1.9638e-05,0
0.119,-1.9303e-05,0
0.1195,-1.4099e-05,0
0.12,-7.7211e-06,0
0.1205,-4.8676e-06,0
0.121,-1.1749e-06,0
0.1215,4.1962e-06,0
0.122,9.7353e-06,0
0.1225,1.5106e-05,0
0.123,8.5603e-06,0
0.1235,-1.1917e-05,0
0.124,-2.7192e-05,0
0.1245,-2.8367e-05,0
0.125,-2.0813e-05,0
0.1255,-1.0239e-05,0
0.126,1.8463e-06,0
0.1265,1.2253e-05,0
0.127,1.5442e-05,0
0.1275,1.8463e-05,0
0.128,2.7024e-05,0
0.1285,4.2802e-05,0
0.129,6.4286e-05,0
0.1295,8.04e-05,0
0.13,8.4093e-05,0
0.1305,7.5364e-05,0
0.131,5.6565e-05,0
0.1315,3.8437e-05,0
0.132,3.0549e-05,0
0.1325,3.2059e-05,0
0.133,3.6423e-05,0
0.1335,4.2802e-05,0
0.134,4.7837e-05,0
0.1345,4.213e-05,0
0.135,2.8031e-05,0
0.1355,1.2589e-05,0
0.136,-1.1749e-06,0
0.1365,-5.539e-06,0
0.137,5.8747e-06,0
0.1375,1.9303e-05,0
0.138,1.6617e-05,0
0.1385,1.8463e-06,0
0.139,-2.6856e-06,0
0.1395,1.1246e-05,0
0.14,2.5345e-05,0
0.1405,2.8031e-05,0
0.141,2.652e-05,0
0.1415,2.9038e-05,0
0.142,3.8605e-05,0
0.1425,4.8508e-05,0
0.143,5.8076e-05,0
0.1435,7.0329e-05,0
0.144,7.8386e-05,0
0.1445,7.5029e-05,0
0.145,6.2944e-05,0
0.1455,4.3977e-05,0
0.146,2.0142e-05,0
0.1465,5.0355e-06,0
0.147,-8.392e-07,0
0.1475,-1.1917e-05,0
0.148,-2.4002e-05,0
0.1485,-2.4674e-05,0
0.149,-2.0981e-05,0
0.1495,-1.9638e-05,0
0.15,-1.7121e-05,0
0.1505,-1.2589e-05,0
0.151,-7.3854e-06,0
0.1515,-5.2033e-06,0
0.152,-1.2253e-05,0
0.1525,-3.1052e-05,0
0.153,-5.7572e-05,0
0.1535,-7.7546e-05,0
0.154,-8.0735e-05,0
0.1545,-6.6468e-05,0
0.155,-4.0452e-05,0
0.1555,-3.6927e-06,0
0.156,3.7766e-05,0
0.1565,6.6972e-05,0
0.157,7.3686e-05,0
0.1575,6.8147e-05,0
0.158,5.7908e-05,0
0.1585,3.7095e-05,0
0.159,6.714e-06,0
0.1595,-2.0478e-05,0
0.16,-2.8702e-05,0
0.1605,-1.8128e-05,0
0.161,3.5248e-06,0
0.1615,2.8031e-05,0
0.162,5.4887e-05,0
0.1625,8.1575e-05,0
0.163,0.00010289,0
0.1635,0.00011716,0
0.164,0.00012656,0
0.1645,0.00013059,0
0.165,0.00013075,0
0.1655,0.00012673,0
0.166,0.00011431,0
0.1665,9.7856e-05,0
0.167,8.0903e-05,0
0.1675,4.213e-05,0
0.168,-3.0045e-05,0
0.1685,-0.00010172,0
0.169,-0.00014066,0
0.1695,-0.00014788,0
0.17,-0.00012807,0
0.1705,-8.5435e-05,0
0.171,-2.9877e-05,0
0.1715,2.4674e-05,0
0.172,5.7069e-05,0
0.1725,6.7308e-05,0
0.173,7.9057e-05,0
0.1735,9.752e-05,0
0.174,0.00010961,0
0.1745,0.00010054,0
0.175,7.2007e-05,0
0.1755,4.5151e-05,0
0.176,2.5177e-05,0
0.1765,6.8818e-06,0
0.177,-5.2033e-06,0
0.1775,-1.1582e-05,0
0.178,-2.2324e-05,0
0.1785,-3.2059e-05,0
0.179,-3.6759e-05,0
0.1795,-3.978e-05,0
0.18,-3.4745e-05,0
0.1805,-6.8818e-06,0
0.181,3.5416e-05,0
0.1815,7.0329e-05,0
0.182,8.5771e-05,0
0.1825,8.7785e-05,0
0.183,8.0064e-05,0
0.1835,6.0929e-05,0
0.184,3.3402e-05,0
0.1845,7.2175e-06,0
0.185,-1.9806e-05,0
0.1855,-5.539e-05,0
0.186,-8.5267e-05,0
0.1865,-9.1814e-05,0
0.187,-7.1672e-05,0
0.1875,-3.2898e-05,0
0.188,1.1582e-05,0
0.1885,5.7069e-05,0
0.189,9.7353e-05,0
0.1895,0.00013042,0
0.19,0.0001566,0
0.1905,0.00017037,0
0.191,0.00015862,0
0.1915,0.00012001,0
0.192,7.5029e-05,0
0.1925,4.448e-05,0
0.193,2.0142e-05,0
0.1935,-6.0426e-06,0
0.194,-3.9612e-05,0
0.1945,-7.2343e-05,0
0.195,-8.5771e-05,0
0.1955,-7.1672e-05,0
0.196,-4.2466e-05,0
0.1965,-2.1653e-05,0
0.197,-1.5778e-05,0
0.1975,-1.0071e-05,0
0.198,1.6785e-06,0
0.1985,1.3092e-05,0
0.199,1.5946e-05,0
0.1995,6.5461e-06,0
0.2,-8.3925e-06,0
0.2005,-2.1988e-05,0
0.201,-3.2395e-05,0
0.2015,-3.6088e-05,0
0.202,-3.1052e-05,0
0.2025,-1.4939e-05,0
0.203,1.4267e-05,0
0.2035,4.2802e-05,0
0.204,5.7237e-05,0
0.2045,6.1936e-05,0
0.205,5.9419e-05,0
0.2055,4.7166e-05,0
0.206,2.5849e-05,0
0.2065,5.2033e-06,0
0.207,-4.8676e-06,0
0.2075,-7.5532e-06,0
0.208,-7.5532e-06,0
0.2085,-1.0071e-05,0
0.209,-7.5532e-06,0
0.2095,1.678e-07,0
0.21,1.0575e-05,0
0.2105,2.182e-05,0
0.211,1.9806e-05,0
0.2115,9.2317e-06,0
0.212,5.7069e-06,0
0.2125,1.0239e-05,0
0.213,2.1317e-05,0
0.2135,3.122e-05,0
0.214,2.9206e-05,0
0.2145,1.9638e-05,0
0.215,1.6281e-05,0
0.2155,2.1317e-05,0
0.216,2.9709e-05,0
0.2165,3.743e-05,0
0.217,4.5823e-05,0
0.2175,5.2872e-05,0
0.218,5.5558e-05,0
0.2185,5.5894e-05,0
0.219,5.5894e-05,0
0.2195,5.7237e-05,0
0.22,5.3544e-05,0
0.2205,4.1123e-05,0
0.221,2.5345e-05,0
0.2215,1.2589e-05,0
0.222,4.6998e-06,0
0.2225,1.678e-07,0
0.223,-1.5106e-06,0
0.2235,4.0284e-06,0
0.224,1.1246e-05,0
0.2245,1.6449e-05,0
0.225,2.0646e-05,0
0.2255,2.031e-05,0
0.226,1.1749e-05,0
0.2265,3.357e-07,0
0.227,-8.3925e-06,0
0.2275,-1.561e-05,0
0.228,-2.7527e-05,0
0.2285,-4.5319e-05,0
0.229,-5.9754e-05,0
0.2295,-5.7572e-05,0
0.23,-3.3906e-05,0
0.2305,1.1749e-06,0
0.231,3.7262e-05,0
0.2315,6.949e-05,0
0.232,9.2485e-05,0
0.2325,9.3828e-05,0
0.233,7.7882e-05,0
0.2335,6.4286e-05,0
0.234,5.9754e-05,0
0.2345,5.2201e-05,0
0.235,3.0045e-05,0
0.2355,4.0284e-06,0
0.236,-2.182e-06,0
0.2365,9.2317e-06,0
0.237,1.9806e-05,0
0.2375,2.887e-05,0
0.238,4.8676e-05,0
0.2385,7.1839e-05,0
0.239,8.51e-05,0
0.2395,9.5506e-05,0
0.24,0.0001039,0
0.2405,0.00010491,0
0.241,9.1142e-05,0
0.2415,7.1e-05,0
0.242,6.1936e-05,0
0.2425,6.865e-05,0
0.243,6.8147e-05,0
0.2435,5.2872e-05,0
0.244,3.3402e-05,0
0.2445,1.7456e-05,0
0.245,7.7211e-06,0
0.2455,-8.392e-07,0
0.246,-9.5674e-06,0
0.2465,-1.5106e-05,0
0.247,-2.2156e-05,0
0.2475,-3.978e-05,0
0.248,-5.9251e-05,0
0.2485,-7.0664e-05,0
0.249,-6.6972e-05,0
0.2495,-3.8605e-05,0
0.25,3.5248e-06,0
0.2505,4.5991e-05,0
0.251,8.3589e-05,0
0.2515,0.00010726,0
0.252,0.0001133,0
0.2525,0.00010356,0
0.253,7.1336e-05,0
0.2535,1.561e-05,0
0.254,-3.6927e-05,0
0.2545,-6.7643e-05,0
0.255,-7.6707e-05,0
0.2555,-6.63e-05,0
0.256,-4.5823e-05,0
0.2565,-2.2995e-05,0
0.257,-7.2175e-06,0
0.2575,-3.8605e-06,0
0.258,1.678e-07,0
0.2585,1.3932e-05,0
0.259,2.9038e-05,0
0.2595,3.5416e-05,0
0.26,2.5681e-05,0
0.2605,3.6927e-06,0
0.261,-1.4099e-05,0
0.2615,-1.8463e-05,0
0.262,-1.6281e-05,0
0.2625,-1.0407e-05,0
0.263,-5.539e-06,0
0.2635,-2.8534e-06,0
0.264,1.5106e-06,0
0.2645,6.2104e-06,0
0.265,9.2317e-06,0
0.2655,7.5532e-06,0
0.266,-2.8534e-06,0
0.2665,-1.5442e-05,0
0.267,-2.5681e-05,0
0.2675,-2.8367e-05,0
0.268,-1.6281e-05,0
0.2685,1.0239e-05,0
0.269,2.9877e-05,0
0.2695,3.1724e-05,0
0.27,2.4674e-05,0
0.2705,2.0646e-05,0
0.271,2.8031e-05,0
0.2715,4.9515e-05,0
0.272,7.6707e-05,0
0.2725,9.7856e-05,0
0.273,0.00010726,0
0.2735,0.00010726,0
0.274,0.00010054,0
0.2745,8.3085e-05,0
0.275,5.4215e-05,0
0.2755,1.2924e-05,0
0.276,-4.5151e-05,0
0.2765,-0.00010323,0
0.277,-0.00013176,0
0.2775,-0.00012488,0
0.278,-9.9367e-05,0
0.2785,-7.2679e-05,0
0.279,-5.539e-05,0
0.2795,-3.7262e-05,0
0.28,-5.8747e-06,0
0.2805,3.4745e-05,0
0.281,7.8218e-05,0
0.2815,0.00011061,0
0.282,0.00011162,0
0.2825,8.6442e-05,0
0.283,5.2705e-05,0
0.2835,3.1724e-05,0
0.284,3.7095e-05,0
0.2845,5.6733e-05,0
0.285,7.3854e-05,0
0.2855,8.2246e-05,0
0.286,8.5771e-05,0
0.2865,9.4835e-05,0
0.287,0.0001086,0
0.2875,0.00011666,0
0.288,0.00011196,0
0.2885,9.6178e-05,0
0.289,6.5293e-05,0
0.2895,2.6017e-05,0
0.29,-5.539e-06,0
0.2905,-1.8967e-05,0
0.291,-1.7624e-05,0
0.2915,-6.8818e-06,0
0.292,1.6785e-06,0
0.2925,5.539e-06,0
0.293,1.3764e-05,0
0.2935,2.1317e-05,0
0.294,1.6449e-05,0
0.2945,-5.035e-07,0
0.295,-1.326e-05,0
0.2955,-1.6281e-05,0
0.296,-1.2253e-05,0
0.2965,-6.8818e-06,0
0.297,1.678e-07,0
0.2975,1.2253e-05,0
0.298,2.2156e-05,0
0.2985,1.7288e-05,0
0.299,-1.6785e-06,0
0.2995,-1.7792e-05,0
0.3,-1.561e-05,0
0.3005,0,0
0.301,2.031e-05,0
0.3015,4.1123e-05,0
0.302,4.9851e-05,0
0.3025,4.8173e-05,0
0.303,4.5655e-05,0
0.3035,3.7934e-05,0
0.304,2.182e-05,0
0.3045,6.5461e-06,0
0.305,-4.8676e-06,0
0.3055,-1.5106e-06,0
0.306,2.7359e-05,0
0.3065,5.539e-05,0
0.307,4.8005e-05,0
0.3075,1.8631e-05,0
0.308,5.035e-07,0
0.3085,2.8534e-06,0
0.309,9.0639e-06,0
0.3095,1.1246e-05,0
0.31,4.5319e-06,0
0.3105,-9.7353e-06,0
0.311,-2.7863e-05,0
0.3115,-4.9851e-05,0
0.312,-6.1936e-05,0
0.3125,-5.5222e-05,0
0.313,-3.8773e-05,0
0.3135,-2.0646e-05,0
0.314,6.0426e-06,0
0.3145,4.4816e-05,0
0.315,8.1071e-05,0
0.3155,0.00010004,0
0.316,9.6513e-05,0
0.3165,7.0161e-05,0
0.317,3.978e-05,0
0.3175,3.0381e-05,0
0.318,3.2059e-05,0
0.3185,2.8031e-05,0
0.319,2.4674e-05,0
0.3195,3.3234e-05,0
0.32,5.4215e-05,0
0.3205,7.2343e-05,0
0.321,7.4525e-05,0
0.3215,6.1601e-05,0
0.322,3.9948e-05,0
0.3225,1.1917e-05,0
0.323,-1.6953e-05,0
0.3235,-3.978e-05,0
0.324,-6.2104e-05,0
0.3245,-8.6778e-05,0
0.325,-0.00010373,0
0.3255,-0.00010591,0
0.326,-8.7785e-05,0
0.3265,-4.5151e-05,0
0.327,9.2317e-06,0
0.3275,4.8173e-05,0
0.328,6.1097e-05,0
0.3285,6.3279e-05,0
0.329,7.2343e-05,0
0.3295,8.6778e-05,0
0.33,9.8192e-05,0
0.3305,9.5171e-05,0
0.331,6.5629e-05,0
0.3315,2.3163e-05,0
0.332,-1.7624e-05,0
0.3325,-5.0019e-05,0
0.333,-6.7475e-05,0
0.3335,-5.6733e-05,0
0.334,-2.6688e-05,0
0.3345,-3.357e-06,0
0.335,7.5532e-06,0
0.3355,1.4939e-05,0
0.336,2.5681e-05,0
0.3365,3.9612e-05,0
0.337,5.5558e-05,0
0.3375,7.3014e-05,0
0.338,8.6442e-05,0
0.3385,9.2821e-05,0
0.339,9.2149e-05,0
0.3395,7.805e-05,0
0.34,5.623e-05,0
0.3405,4.7837e-05,0
0.341,5.7572e-05,0
0.3415,6.9993e-05,0
0.342,6.1936e-05,0
0.3425,2.1149e-05,0
0.343,-2.9206e-05,0
0.3435,-4.918e-05,0
0.344,-4.1459e-05,0
0.3445,-2.4338e-05,0
0.345,-5.035e-07,0
0.3455,3.2563e-05,0
0.346,6.6636e-05,0
0.3465,8.51e-05,0
0.347,7.4357e-05,0
0.3475,4.1459e-05,0
0.348,6.8818e-06,0
0.3485,-9.2317e-06,0
0.349,2.5177e-06,0
0.3495,4.6159e-05,0
0.35,9.9199e-05,0
0.3505,0.00012387,0
0.351,0.00011061,0
0.3515,6.8818e-05,0
0.352,1.5946e-05,0
0.3525,-1.9806e-05,0
0.353,-2.8702e-05,0
0.3535,-2.4338e-05,0
0.354,-2.1317e-05,0
0.3545,-2.2995e-05,0
0.355,-2.4674e-05,0
0.3555,-2.8534e-05,0
0.356,-3.1052e-05,0
0.3565,-1.8967e-05,0
0.357,1.8463e-06,0
0.3575,1.8631e-05,0
0.358,2.1149e-05,0
0.3585,1.5106e-06,0
0.359,-3.4073e-05,0
0.3595,-6.0258e-05,0
0.36,-6.2944e-05,0
0.3605,-4.4816e-05,0
0.361,-1.7792e-05,0
0.3615,-6.714e-07,0
0.362,-1.1246e-05,0
0.3625,-2.5345e-05,0
0.363,-1.3596e-05,0
0.3635,-3.8605e-06,0
0.364,-1.3596e-05,0
0.3645,-1.0742e-05,0
0.365,2.2492e-05,0
0.3655,6.6636e-05,0
0.366,0.00010256,0
0.3665,0.00012874,0
0.367,0.00014318,0
0.3675,0.0001608,0
0.368,0.00018279,0
0.3685,0.00016634,0
0.369,8.8121e-05,0
0.3695,-5.7069e-06,0
0.37,-6.6972e-05,0
0.3705,-8.9464e-05,0
0.371,-7.8553e-05,0
0.3715,-5.2033e-05,0
0.372,-2.6184e-05,0
0.3725,7.5532e-06,0
0.373,4.8676e-05,0
0.3735,7.2343e-05,0
0.374,6.8315e-05,0
0.3745,4.9851e-05,0
0.375,3.8102e-05,0
0.3755,3.4409e-05,0
0.376,3.0045e-05,0
0.3765,2.4338e-05,0
0.377,2.6352e-05,0
0.3775,3.6088e-05,0
0.378,4.0787e-05,0
0.3785,2.8367e-05,0
0.379,1.0071e-05,0
0.3795,3.0213e-06,0
0.38,6.5461e-06,0
0.3805,1.4939e-05,0
0.381,2.3499e-05,0
0.3815,2.5345e-05,0
0.382,1.6953e-05,0
0.3825,-1.6617e-05,0
0.383,-8.3421e-05,0
0.3835,-0.00014351,0
0.384,-0.00016164,0
0.3845,-0.00014519,0
0.385,-0.00012438,0
0.3855,-0.00011884,0
0.386,-0.00011733,0
0.3865,-9.1478e-05,0
0.387,-2.3331e-05,0
0.3875,6.0929e-05,0
0.388,0.00011263,0
0.3885,0.00011229,0
0.389,9.5842e-05,0
0.3895,9.3156e-05,0
0.39,0.00010054,0
0.3905,0.00011498,0
0.391,0.00013227,0
0.3915,0.00014351,0
0.392,0.00015023,0
0.3925,0.00015425,0
0.393,0.00014603,0
0.3935,0.0001279,0
0.394,0.00011464,0
0.3945,0.00010558,0
0.395,9.3492e-05,0
0.3955,7.8386e-05,0
0.396,5.4551e-05,0
0.3965,2.7359e-05,0
0.397,3.8605e-06,0
0.3975,-2.3499e-05,0
0.398,-5.9251e-05,0
0.3985,-8.3421e-05,0
0.399,-7.6204e-05,0
0.3995,-5.2705e-05,0
0.4,-2.9709e-05,0
0.4005,1.1749e-06,0
0.401,4.3473e-05,0
0.4015,7.5029e-05,0
0.402,8.6778e-05,0
0.4025,8.9799e-05,0
0.403,8.6442e-05,0
0.4035,6.8147e-05,0
0.404,3.7095e-05,0
0.4045,6.8818e-06,0
0.405,-2.0981e-05,0
0.4055,-5.1194e-05,0
0.406,-7.805e-05,0
0.4065,-8.9799e-05,0
0.407,-7.2679e-05,0
0.4075,-3.7095e-05,0
0.408,-1.2421e-05,0
0.4085,-3.357e-07,0
0.409,4.8676e-06,0
0.4095,1.1414e-05,0
0.41,2.4674e-05,0
0.4105,3.7262e-05,0
0.411,4.4144e-05,0
0.4115,4.6662e-05,0
0.412,3.8605e-05,0
0.4125,1.5946e-05,0
0.413,-7.7211e-06,0
0.4135,-1.8967e-05,0
0.414,-2.3331e-05,0
0.4145,-2.5345e-05,0
0.415,-2.5681e-05,0
0.4155,-2.8367e-05,0
0.416,-3.0045e-05,0
0.4165,-2.652e-05,0
0.417,-1.6953e-05,0
0.4175,-6.8818e-06,0
0.418,8.392e-07,0
0.4185,7.5532e-06,0
0.419,1.1582e-05,0
0.4195,1.2589e-05,0
0.42,1.2924e-05,0
0.4205,1.1582e-05,0
0.421,9.7353e-06,0
0.4215,1.1582e-05,0
0.422,1.5106e-05,0
0.4225,2.031e-05,0
0.423,2.6352e-05,0
0.4235,2.8031e-05,0
0.424,2.8534e-05,0
0.4245,3.0381e-05,0
0.425,3.0716e-05,0
0.4255,2.4506e-05,0
0.426,1.0575e-05,0
0.4265,-5.035e-07,0
0.427,-3.1891e-06,0
0.4275,-2.182e-06,0
0.428,3.1891e-06,0
0.4285,1.1078e-05,0
0.429,1.1078e-05,0
0.4295,1.678e-07,0
0.43,-1.0239e-05,0
0.4305,-1.1582e-05,0
0.431,-2.0142e-06,0
0.4315,1.8631e-05,0
0.432,4.2634e-05,0
0.4325,6.2272e-05,0
0.433,8.0903e-05,0
0.4335,8.8457e-05,0
0.434,8.3085e-05,0
0.4345,6.9993e-05,0
0.435,4.8844e-05,0
0.4355,1.561e-05,0
0.436,-1.5442e-05,0
0.4365,-2.887e-05,0
0.437,-2.5849e-05,0
0.4375,-1.7288e-05,0
0.438,-7.8889e-06,0
0.4385,9.5674e-06,0
0.439,3.9109e-05,0
0.4395,7.7882e-05,0
0.44,0.000118,0
0.4405,0.00013915,0
0.441,0.00012874,0
0.4415,0.0001044,0
0.442,8.3421e-05,0
0.4425,6.8315e-05,0
0.443,6.0761e-05,0
0.4435,5.1362e-05,0
0.444,3.7766e-05,0
0.4445,3.2059e-05,0
0.445,3.3234e-05,0
0.4455,3.592e-05,0
0.446,3.508e-05,0
0.4465,2.5849e-05,0
0.447,1.5274e-05,0
0.4475,9.2317e-06,0
0.448,-1.1414e-05,0
0.4485,-5.2201e-05,0
0.449,-9.5506e-05,0
0.4495,-0.00011464,0
0.45,-0.00010188,0
0.4505,-6.7979e-05,0
0.451,-2.417e-05,0
0.4515,2.3331e-05,0
0.452,7.1336e-05,0
0.4525,0.00011128,0
0.453,0.00013277,0
0.4535,0.00013814,0
0.454,0.00013327,0
0.4545,0.0001232,0
0.455,0.00010658,0
0.4555,8.191e-05,0
0.456,5.9922e-05,0
0.4565,4.4816e-05,0
0.457,3.4745e-05,0
0.4575,2.6017e-05,0
0.458,1.1414e-05,0
0.4585,-5.8747e-06,0
0.459,-1.8296e-05,0
0.4595,-1.9974e-05,0
0.46,-1.8463e-06,0
0.4605,3.4073e-05,0
0.461,6.479e-05,0
0.4615,7.4189e-05,0
0.462,6.4286e-05,0
0.4625,4.3473e-05,0
0.463,1.7792e-05,0
0.4635,-1.2421e-05,0
0.464,-3.7766e-05,0
0.4645,-4.1459e-05,0
0.465,-3.8102e-05,0
0.4655,-5.0187e-05,0
0.466,-6.3279e-05,0
0.4665,-5.8747e-05,0
0.467,-4.1459e-05,0
0.4675,-1.8463e-05,0
0.468,3.8605e-06,0
0.4685,1.1078e-05,0
0.469,-2.182e-06,0
0.4695,-2.0981e-05,0
0.47,-2.6184e-05,0
0.4705,-1.4939e-05,0
0.471,-3.6927e-06,0
0.4715,-3.8605e-06,0
0.472,-1.4603e-05,0
0.4725,-3.0716e-05,0
0.473,-3.8437e-05,0
0.4735,-3.3066e-05,0
0.474,-2.6017e-05,0
0.4745,-2.6688e-05,0
0.475,-3.1724e-05,0
0.4755,-3.3402e-05,0
0.476,-3.2898e-05,0
0.4765,-3.2059e-05,0
0.477,-2.9038e-05,0
0.4775,-2.4338e-05,0
0.478,-1.2589e-05,0
0.4785,5.2033e-06,0
0.479,1.8296e-05,0
0.4795,2.8031e-05,0
0.48,4.213e-05,0
0.4805,6.1601e-05,0
0.481,7.9057e-05,0
0.4815,8.7785e-05,0
0.482,8.9464e-05,0
0.4825,8.3421e-05,0
0.483,6.3447e-05,0
0.4835,3.1388e-05,0
0.484,-1.9806e-05,0
0.4845,-7.5364e-05,0
0.485,-9.9199e-05,0
0.4855,-8.8457e-05,0
0.486,-6.0594e-05,0
0.4865,-2.182e-05,0
0.487,2.0142e-05,0
0.4875,6.2608e-05,0
0.488,0.00010692,0
0.4885,0.00014687,0
0.489,0.0001801,0
0.4895,0.00020192,0
0.49,0.00019974,0
0.4905,0.00017272,0
0.491,0.00013478,0
0.4915,9.2821e-05,0
0.492,5.0523e-05,0
0.4925,1.5778e-05,0
0.493,-6.3783e-06,0
0.4935,-1.3932e-05,0
0.494,-6.8818e-06,0
0.4945,5.8747e-06,0
0.495,1.6953e-05,0
0.4955,2.4674e-05,0
0.496,3.6088e-05,0
0.4965,5.4048e-05,0
0.497,6.2272e-05,0
0.4975,5.623e-05,0
0.498,5.3544e-05,0
0.4985,5.9419e-05,0
0.499,6.1265e-05,0
0.4995,5.2201e-05,0
0.5,3.4409e-05,0
0.5005,2.0981e-05,0
0.501,1.8631e-05,0
0.5015,1.8631e-05,0
0.502,1.2085e-05,0
0.5025,-2.5177e-06,0
0.503,-2.2995e-05,0
0.5035,-4.683e-05,0
0.504,-5.7237e-05,0
0.5045,-5.4551e-05,0
0.505,-5.1194e-05,0
0.5055,-4.7837e-05,0
0.506,-3.7766e-05,0
0.5065,-1.9638e-05,0
0.507,-7.2175e-06,0
0.5075,-1.3764e-05,0
0.508,-3.0213e-05,0
0.5085,-4.3809e-05,0
0.509,-5.3208e-05,0
0.5095,-5.6565e-05,0
0.51,-5.1194e-05,0
0.5105,-2.5009e-05,0
0.511,2.5009e-05,0
0.5115,6.5629e-05,0
0.512,7.2679e-05,0
0.5125,6.5293e-05,0
0.513,7.3014e-05,0
0.5135,9.2821e-05,0
0.514,9.6178e-05,0
0.5145,6.0929e-05,0
0.515,9.9031e-06,0
0.5155,-2.0813e-05,0
0.516,-3.0045e-05,0
0.5165,-3.1724e-05,0
0.517,-2.3499e-05,0
0.5175,-1.8463e-06,0
0.518,2.7024e-05,0
0.5185,5.0858e-05,0
0.519,5.3544e-05,0
0.5195,3.4745e-05,0
0.52,1.796e-05,0
0.5205,1.326e-05,0
0.521,1.3092e-05,0
0.5215,1.091e-05,0
0.522,8.896e-06,0
0.5225,1.1414e-05,0
0.523,1.0575e-05,0
0.5235,7.2175e-06,0
0.524,1.3092e-05,0
0.5245,2.4002e-05,0
0.525,3.0045e-05,0
0.5255,3.743e-05,0
0.526,4.8676e-05,0
0.5265,5.153e-05,0
0.527,3.9445e-05,0
0.5275,1.8463e-05,0
0.528,-5.035e-07,0
0.5285,-1.5106e-05,0
0.529,-2.5681e-05,0
0.5295,-2.4842e-05,0
0.53,-1.0071e-05,0
0.5305,9.7353e-06,0
0.531,2.7359e-05,0
0.5315,3.0213e-05,0
0.532,3.6927e-06,0
0.5325,-3.357e-05,0
0.533,-5.6565e-05,0
0.5335,-6.8818e-05,0
0.534,-8.1071e-05,0
0.5345,-8.4764e-05,0
0.535,-8.1575e-05,0
0.5355,-6.7475e-05,0
0.536,-3.5584e-05,0
0.5365,1.9806e-05,0
0.537,9.1646e-05,0
0.5375,0.00014955,0
0.538,0.00016902,0
0.5385,0.00017305,0
0.539,0.00016533,0
0.5395,0.00013394,0
0.54,9.1142e-05,0
0.5405,6.9322e-05,0
0.541,7.4861e-05,0
0.5415,9.0806e-05,0
0.542,0.00010524,0
0.5425,0.00011128,0
0.543,0.00011162,0
0.5435,0.00011464,0
0.544,0.00010927,0
0.5445,7.8721e-05,0
0.545,2.266e-05,0
0.5455,-4.4144e-05,0
0.546,-9.1981e-05,0
0.5465,-0.00010893,0
0.547,-9.7688e-05,0
0.5475,-6.7979e-05,0
0.548,-3.0884e-05,0
0.5485,4.8676e-06,0
0.549,2.7695e-05,0
0.5495,3.6759e-05,0
0.55,3.7262e-05,0
0.5505,2.9374e-05,0
0.551,2.0646e-05,0
0.5515,1.8631e-05,0
0.552,1.5946e-05,0
0.5525,1.0575e-05,0
0.553,1.0575e-05,0
0.5535,1.7121e-05,0
0.554,2.5849e-05,0
0.5545,3.8437e-05,0
0.555,5.2033e-05,0
0.5555,6.1601e-05,0
0.556,6.6804e-05,0
0.5565,6.4958e-05,0
0.557,5.8579e-05,0
0.5575,5.2201e-05,0
0.558,4.5487e-05,0
0.5585,3.6927e-05,0
0.559,2.3667e-05,0
0.5595,1.0575e-05,0
0.56,-1.5106e-06,0
0.5605,-1.1414e-05,0
0.561,-1.1414e-05,0
0.5615,-4.5319e-06,0
0.562,-6.5461e-06,0
0.5625,-1.6953e-05,0
0.563,-4.0284e-05,0
0.5635,-8.2414e-05,0
0.564,-0.00012085,0
0.5645,-0.00013126,0
0.565,-0.00011666,0
0.5655,-8.8289e-05,0
0.566,-4.8005e-05,0
0.5665,-2.182e-06,0
0.567,3.5584e-05,0
0.5675,6.009e-05,0
0.568,7.3686e-05,0
0.5685,7.9896e-05,0
0.569,8.2414e-05,0
0.5695,7.6371e-05,0
0.57,5.623e-05,0
0.5705,3.0716e-05,0
0.571,1.6281e-05,0
0.5715,1.8631e-05,0
0.572,2.0646e-05,0
0.5725,1.2421e-05,0
0.573,7.8889e-06,0
0.5735,1.5778e-05,0
0.574,2.5177e-05,0
0.5745,2.8702e-05,0
0.575,2.3667e-05,0
0.5755,2.2828e-05,0
0.576,2.9206e-05,0
0.5765,2.6017e-05,0
0.577,1.1917e-05,0
0.5775,-2.8534e-06,0
0.578,-1.4771e-05,0
0.5785,-1.8296e-05,0
0.579,-1.2421e-05,0
0.5795,-8.896e-06,0
0.58,-1.8967e-05,0
0.5805,-3.2731e-05,0
0.581,-3.1724e-05,0
0.5815,-6.8818e-06,0
0.582,3.1556e-05,0
0.5825,5.9251e-05,0
0.583,5.8915e-05,0
0.5835,4.7501e-05,0
0.584,4.1795e-05,0
0.5845,4.4144e-05,0
0.585,4.3473e-05,0
0.5855,3.7934e-05,0
0.586,4.0619e-05,0
0.5865,5.1194e-05,0
0.587,5.8915e-05,0
0.5875,6.1601e-05,0
0.588,5.4551e-05,0
0.5885,4.2466e-05,0
0.589,3.4073e-05,0
0.5895,3.1891e-05,0
0.59,3.4577e-05,0
0.5905,4.1627e-05,0
0.591,4.3473e-05,0
0.5915,3.4913e-05,0
0.592,2.6017e-05,0
0.5925,2.1653e-05,0
0.593,2.8031e-05,0
0.5935,4.1123e-05,0
0.594,4.9012e-05,0
0.5945,4.4648e-05,0
0.595,1.8967e-05,0
0.5955,-3.508e-05,0
0.596,-9.8695e-05,0
0.5965,-0.00014368,0
0.597,-0.00015996,0
0.5975,-0.00015106,0
0.598,-0.0001227,0
0.5985,-7.4525e-05,0
0.599,-2.182e-06,0
0.5995,7.9728e-05,0
0.6,0.0001472,0
0.6005,0.00019487,0
0.601,0.00021736,0
0.6015,0.00022072,0
0.602,0.00020377,0
0.6025,0.0001467,0
0.603,6.5629e-05,0
0.6035,1.8463e-06,0
0.604,-3.1052e-05,0
0.6045,-4.2634e-05,0
0.605,-3.7934e-05,0
0.6055,-1.8967e-05,0
0.606,6.3783e-06,0
0.6065,3.0549e-05,0
0.607,5.3544e-05,0
0.6075,7.8721e-05,0
0.608,0.00010004,0
0.6085,0.0001039,0
0.609,8.661e-05,0
0.6095,5.7908e-05,0
0.61,3.3066e-05,0
0.6105,1.8967e-05,0
0.611,1.1078e-05,0
0.6115,3.357e-06,0
0.612,-1.8463e-06,0
0.6125,-3.1891e-06,0
0.613,-3.1891e-06,0
0.6135,1.678e-07,0
0.614,4.0284e-06,0
0.6145,1.0407e-05,0
0.615,2.1653e-05,0
0.6155,1.4939e-05,0
0.616,-1.091e-05,0
0.6165,-3.508e-05,0
0.617,-4.5823e-05,0
0.6175,-4.7166e-05,0
0.618,-4.4648e-05,0
0.6185,-3.4745e-05,0
0.619,-1.5106e-05,0
0.6195,6.714e-06,0
0.62,1.8967e-05,0
0.6205,1.7121e-05,0
0.621,1.4939e-05,0
0.6215,1.6617e-05,0
0.622,1.4603e-05,0
0.6225,9.2317e-06,0
0.623,7.3854e-06,0
0.6235,1.6281e-05,0
0.624,3.1388e-05,0
0.6245,3.9612e-05,0
0.625,3.5752e-05,0
0.6255,1.0575e-05,0
0.626,-2.7359e-05,0
0.6265,-5.4719e-05,0
0.627,-5.623e-05,0
0.6275,-2.4338e-05,0
0.628,1.8967e-05,0
0.6285,3.6759e-05,0
0.629,3.0716e-05,0
0.6295,2.182e-05,0
0.63,1.2589e-05,0
0.6305,7.2175e-06,0
0.631,1.091e-05,0
0.6315,1.8967e-05,0
0.632,2.1317e-05,0
0.6325,1.9638e-05,0
0.633,1.9638e-05,0
0.6335,1.9303e-05,0
0.634,1.6785e-05,0
0.6345,1.3596e-05,0
0.635,1.1917e-05,0
0.6355,1.4267e-05,0
0.636,2.0646e-05,0
0.6365,2.652e-05,0
0.637,2.4506e-05,0
0.6375,1.8631e-05,0
0.638,1.796e-05,0
0.6385,1.9974e-05,0
0.639,2.1149e-05,0
0.6395,2.6352e-05,0
0.64,3.0213e-05,0
0.6405,2.9038e-05,0
0.641,2.8534e-05,0
0.6415,2.5345e-05,0
0.642,1.9303e-05,0
0.6425,2.0646e-05,0
0.643,3.2395e-05,0
0.6435,4.3641e-05,0
0.644,4.3809e-05,0
0.6445,3.0716e-05,0
0.645,1.561e-05,0
0.6455,5.7069e-06,0
0.646,1.678e-07,0
0.6465,5.539e-06,0
0.647,1.5946e-05,0
0.6475,1.561e-05,0
0.648,6.2104e-06,0
0.6485,6.0426e-06,0
0.649,2.7863e-05,0
0.6495,6.5629e-05,0
0.65,0.00010188,0
0.6505,0.00011934,0
0.651,0.00011246,0
0.6515,9.4667e-05,0
0.652,7.2007e-05,0
0.6525,4.918e-05,0
0.653,2.6856e-05,0
0.6535,3.8605e-06,0
0.654,-1.6281e-05,0
0.6545,-3.3066e-05,0
0.655,-5.1194e-05,0
0.6555,-7.6204e-05,0
0.656,-0.00010709,0
0.6565,-0.00013394,0
0.657,-0.00013982,0
0.6575,-0.00011733,0
0.658,-8.6107e-05,0
0.6585,-7.2847e-05,0
0.659,-7.1168e-05,0
0.6595,-5.9251e-05,0
0.66,-2.4674e-05,0
0.6605,2.6688e-05,0
0.661,7.7378e-05,0
0.6615,0.00011867,0
0.662,0.00014653,0
0.6625,0.00015425,0
0.663,0.00014553,0
0.6635,0.00013646,0
0.664,0.00013545,0
0.6645,0.00014351,0
0.665,0.00015123,0
0.6655,0.00014653,0
0.666,0.00011968,0
0.6665,8.3757e-05,0
0.667,6.0929e-05,0
0.6675,4.8005e-05,0
0.668,3.5752e-05,0
0.6685,3.2731e-05,0
0.669,3.3906e-05,0
0.6695,3.5752e-05,0
0.67,3.7766e-05,0
0.6705,2.4002e-05,0
0.671,3.8605e-06,0
0.6715,-3.0213e-06,0
0.672,0,0
0.6725,5.0355e-06,0
0.673,1.3764e-05,0
0.6735,2.5849e-05,0
0.674,3.2898e-05,0
0.6745,2.9374e-05,0
0.675,1.7624e-05,0
0.6755,3.1891e-06,0
0.676,-1.1749e-05,0
0.6765,-2.8534e-05,0
0.677,-4.3137e-05,0
0.6775,-5.2537e-05,0
0.678,-5.6062e-05,0
0.6785,-4.8508e-05,0
0.679,-3.4409e-05,0
0.6795,-1.7624e-05,0
0.68,8.392e-07,0
0.6805,1.0239e-05,0
0.681,9.9031e-06,0
0.6815,1.1246e-05,0
0.682,1.561e-05,0
0.6825,1.7288e-05,0
0.683,1.7121e-05,0
0.6835,1.3932e-05,0
0.684,6.8818e-06,0
0.6845,-8.896e-06,0
0.685,-4.1291e-05,0
0.6855,-7.1839e-05,0
0.686,-8.0735e-05,0
0.6865,-7.0161e-05,0
0.687,-5.1194e-05,0
0.6875,-3.0716e-05,0
0.688,-4.8676e-06,0
0.6885,3.0381e-05,0
0.689,6.4286e-05,0
0.6895,7.6371e-05,0
0.69,7.4357e-05,0
0.6905,7.4357e-05,0
0.691,8.2414e-05,0
0.6915,9.1814e-05,0
0.692,9.0303e-05,0
0.6925,8.3421e-05,0
0.693,7.9896e-05,0
0.6935,7.4189e-05,0
0.694,6.0929e-05,0
0.6945,4.0787e-05,0
0.695,1.2421e-05,0
0.6955,-1.2253e-05,0
0.696,-2.0478e-05,0
0.6965,-9.7353e-06,0
0.697,7.3854e-06,0
0.6975,1.4603e-05,0
0.698,1.1582e-05,0
0.6985,2.5177e-06,0
0.699,-7.0497e-06,0
0.6995,-7.2175e-06,0
0.7,4.6998e-06,0
0.7005,2.3331e-05,0
0.701,3.5752e-05,0
0.7015,3.0045e-05,0
0.702,1.5274e-05,0
0.7025,5.2033e-06,0
0.703,3.357e-06,0
0.7035,5.2033e-06,0
0.704,3.6927e-06,0
0.7045,1.5106e-06,0
0.705,-5.035e-07,0
0.7055,2.5177e-06,0
0.706,1.3596e-05,0
0.7065,2.3835e-05,0
0.707,3.1052e-05,0
0.7075,3.6088e-05,0
0.708,3.3402e-05,0
0.7085,2.5009e-05,0
0.709,1.6617e-05,0
0.7095,1.3932e-05,0
0.71,1.2924e-05,0
0.7105,8.392e-07,0
0.711,-2.4338e-05,0
0.7115,-4.3809e-05,0
0.712,-4.2466e-05,0
0.7125,-2.6688e-05,0
0.713,-3.0213e-06,0
0.7135,2.4002e-05,0
0.714,4.6159e-05,0
0.7145,5.9587e-05,0
0.715,6.5461e-05,0
0.7155,6.3783e-05,0
0.716,5.1194e-05,0
0.7165,1.796e-05,0
0.717,-2.5681e-05,0
0.7175,-5.5558e-05,0
0.718,-6.6636e-05,0
0.7185,-6.7979e-05,0
0.719,-5.9922e-05,0
0.7195,-4.6494e-05,0
0.72,-2.652e-05,0
0.7205,6.5461e-06,0
0.721,4.4648e-05,0
0.7215,7.9393e-05,0
0.722,0.0001044,0
0.7225,0.0001185,0
0.723,0.00012924,0
0.7235,0.0001373,0
0.724,0.00013277,0
0.7245,0.00011296,0
0.725,8.7785e-05,0
0.7255,6.7979e-05,0
0.726,5.7572e-05,0
0.7265,5.3544e-05,0
0.727,5.2201e-05,0
0.7275,4.7669e-05,0
0.728,3.7934e-05,0
0.7285,3.1556e-05,0
0.729,3.4913e-05,0
0.7295,3.9109e-05,0
0.73,3.6759e-05,0
0.7305,3.2059e-05,0
0.731,2.7359e-05,0
0.7315,1.7624e-05,0
0.732,-1.678e-07,0
0.7325,-2.5345e-05,0
0.733,-4.4648e-05,0
0.7335,-5.153e-05,0
0.734,-6.3279e-05,0
0.7345,-8.7114e-05,0
0.735,-0.00011565,0
0.7355,-0.00014485,0
0.736,-0.00016466,0
0.7365,-0.000166,0
0.737,-0.00013646,0
0.7375,-7.5532e-05,0
0.738,-2.3499e-06,0
0.7385,6.5629e-05,0
0.739,0.00011733,0
0.7395,0.00014553,0
0.74,0.00014519,0
0.7405,0.00012824,0
0.741,0.00010188,0
0.7415,6.5293e-05,0
0.742,2.8702e-05,0
0.7425,1.0071e-05,0
0.743,7.3854e-06,0
0.7435,6.2104e-06,0
0.744,6.5461e-06,0
0.7445,2.7024e-05,0
0.745,7.1e-05,0
0.7455,0.00011263,0
0.746,0.00013462,0
0.7465,0.00014351,0
0.747,0.00014871,0
0.7475,0.00015291,0
0.748,0.00014519,0
0.7485,0.00011934,0
0.749,8.745e-05,0
0.7495,6.2272e-05,0
0.75,5.0187e-05,0
0.7505,4.6494e-05,0
0.751,3.1052e-05,0
0.7515,2.5177e-06,0
0.752,-2.4338e-05,0
0.7525,-3.6255e-05,0
0.753,-3.7095e-05,0
0.7535,-3.8437e-05,0
0.754,-4.3641e-05,0
0.7545,-4.7333e-05,0
0.755,-4.2802e-05,0
0.7555,-4.1123e-05,0
0.756,-4.9515e-05,0
0.7565,-6.4622e-05,0
0.757,-8.2078e-05,0
0.7575,-8.661e-05,0
0.758,-6.6636e-05,0
0.7585,-4.4816e-05,0
0.759,-3.4745e-05,0
0.7595,-2.2995e-05,0
0.76,8.392e-07,0
0.7605,3.8102e-05,0
0.761,7.0497e-05,0
0.7615,8.8289e-05,0
0.762,9.752e-05,0
0.7625,0.00010188,0
0.763,9.8695e-05,0
0.7635,8.7114e-05,0
0.764,6.8315e-05,0
0.7645,5.153e-05,0
0.765,4.1459e-05,0
0.7655,3.1556e-05,0
0.766,1.9974e-05,0
0.7665,7.0497e-06,0
0.767,-4.5319e-06,0
0.7675,-1.2757e-05,0
0.768,-1.5778e-05,0
0.7685,-1.5778e-05,0
0.769,-1.4435e-05,0
0.7695,-6.8818e-06,0
0.77,-5.539e-06,0
0.7705,-1.4267e-05,0
0.771,-2.4338e-05,0
0.7715,-2.8702e-05,0
0.772,-2.031e-05,0
0.7725,-3.357e-07,0
0.773,1.7288e-05,0
0.7735,2.1149e-05,0
0.774,1.8128e-05,0
0.7745,1.4603e-05,0
0.775,1.0239e-05,0
0.7755,3.5248e-06,0
0.776,-1.8463e-06,0
0.7765,-4.8676e-06,0
0.777,-3.1891e-06,0
0.7775,-1.0071e-06,0
0.778,1.5106e-06,0
0.7785,8.5603e-06,0
0.779,1.8631e-05,0
0.7795,2.6688e-05,0
0.78,2.8367e-05,0
0.7805,2.5009e-05,0
0.781,2.4674e-05,0
0.7815,3.0716e-05,0
0.782,4.4144e-05,0
0.7825,6.63e-05,0
0.783,8.5603e-05,0
0.7835,9.8863e-05,0
0.784,9.987e-05,0
0.7845,8.2078e-05,0
0.785,5.7237e-05,0
0.7855,3.7095e-05,0
0.786,1.947e-05,0
0.7865,3.357e-07,0
0.787,-1.6785e-05,0
0.7875,-2.7024e-05,0
0.788,-2.8031e-05,0
0.7885,-2.3835e-05,0
0.789,-1.8967e-05,0
0.7895,-1.4267e-05,0
0.79,-9.5674e-06,0
0.7905,-3.1891e-06,0
0.791,1.1246e-05,0
0.7915,2.8534e-05,0
0.792,3.978e-05,0
0.7925,4.7837e-05,0
0.793,5.3208e-05,0
0.7935,5.304e-05,0
0.794,4.2802e-05,0
0.7945,2.6352e-05,0
0.795,1.4939e-05,0
0.7955,1.4603e-05,0
0.796,1.796e-05,0
0.7965,1.326e-05,0
0.797,3.1891e-06,0
0.7975,-8.2246e-06,0
0.798,-1.8631e-05,0
0.7985,-2.7024e-05,0
0.799,-3.2059e-05,0
0.7995,-3.1891e-05,0
0.8,-2.6856e-05,0
0.8005,-2.2324e-05,0
0.801,-2.5345e-05,0
0.8015,-4.2466e-05,0
0.802,-6.5965e-05,0
0.8025,-7.9057e-05,0
0.803,-7.5029e-05,0
0.8035,-5.7908e-05,0
0.804,-4.1459e-05,0
0.8045,-3.6423e-05,0
0.805,-3.4073e-05,0
0.8055,-2.7527e-05,0
0.806,-1.2253e-05,0
0.8065,1.9638e-05,0
0.807,6.5461e-05,0
0.8075,0.00010843,0
0.808,0.00013596,0
0.8085,0.00015895,0
0.809,0.00017154,0
0.8095,0.0001566,0
0.81,0.00013243,0
0.8105,0.00012052,0
0.811,0.00010155,0
0.8115,6.4286e-05,0
0.812,2.9709e-05,0
0.8125,1.9974e-05,0
0.813,3.5248e-05,0
0.8135,6.3279e-05,0
0.814,8.7617e-05,0
0.8145,0.00010457,0
0.815,0.00011447,0
0.8155,0.00011766,0
0.816,0.00012068,0
0.8165,0.00012236,0
0.817,0.00011733,0
0.8175,9.9031e-05,0
0.818,6.6133e-05,0
0.8185,3.4745e-05,0
0.819,1.1246e-05,0
0.8195,-3.8605e-06,0
0.82,-1.091e-05,0
0.8205,-1.1582e-05,0
0.821,-1.1078e-05,0
0.8215,-1.2589e-05,0
0.822,-2.7192e-05,0
0.8225,-4.7837e-05,0
0.823,-6.4286e-05,0
0.8235,-7.1336e-05,0
0.824,-6.7811e-05,0
0.8245,-5.8076e-05,0
0.825,-5.6062e-05,0
0.8255,-5.9922e-05,0
0.826,-5.9251e-05,0
0.8265,-4.8676e-05,0
0.827,-2.9709e-05,0
0.8275,-7.8889e-06,0
0.828,1.0575e-05,0
0.8285,2.2324e-05,0
0.829,2.7527e-05,0
0.8295,2.4002e-05,0
0.83,1.561e-05,0
0.8305,1.0239e-05,0
0.831,9.7353e-06,0
0.8315,5.539e-06,0
0.832,-1.8463e-06,0
0.8325,-5.539e-06,0
0.833,-2.5177e-06,0
0.8335,2.182e-06,0
0.834,4.3641e-06,0
0.8345,1.1917e-05,0
0.835,2.266e-05,0
0.8355,3.2395e-05,0
0.836,3.5416e-05,0
0.8365,2.7192e-05,0
0.837,1.6953e-05,0
0.8375,1.8967e-05,0
0.838,2.5345e-05,0
0.8385,2.5345e-05,0
0.839,9.9031e-06,0
0.8395,-1.5274e-05,0
0.84,-2.7359e-05,0
0.8405,-2.3499e-05,0
0.841,-5.8747e-06,0
0.8415,2.0478e-05,0
0.842,4.2802e-05,0
0.8425,5.4551e-05,0
0.843,5.6901e-05,0
0.8435,5.623e-05,0
0.844,5.6733e-05,0
0.8445,5.7908e-05,0
0.845,5.9587e-05,0
0.8455,5.8747e-05,0
0.846,5.153e-05,0
0.8465,4.0452e-05,0
0.847,3.7934e-05,0
0.8475,4.7166e-05,0
0.848,5.0187e-05,0
0.8485,3.5416e-05,0
0.849,6.714e-06,0
0.8495,-3.4409e-05,0
0.85,-8.04e-05,0
0.8505,-0.00012438,0
0.851,-0.00015341,0
0.8515,-0.00014955,0
0.852,-0.0001133,0
0.8525,-5.5726e-05,0
0.853,1.0575e-05,0
0.8535,5.9251e-05,0
0.854,8.1743e-05,0
0.8545,9.9199e-05,0
0.855,0.00013277,0
0.8555,0.00017406,0
0.856,0.0001942,0
0.8565,0.00017977,0
0.857,0.00014586,0
0.8575,0.00011112,0
0.858,7.2343e-05,0
0.8585,3.6591e-05,0
0.859,1.5778e-05,0
0.8595,6.2104e-06,0
0.86,-6.2104e-06,0
0.8605,-2.4002e-05,0
0.861,-4.5151e-05,0
0.8615,-5.6901e-05,0
0.862,-4.6159e-05,0
0.8625,-2.6184e-05,0
0.863,-1.3596e-05,0
0.8635,-1.5106e-06,0
0.864,1.8463e-05,0
0.8645,4.3137e-05,0
0.865,7.0832e-05,0
0.8655,8.6778e-05,0
0.866,7.4861e-05,0
0.8665,5.2201e-05,0
0.867,3.743e-05,0
0.8675,4.1627e-05,0
0.868,5.4887e-05,0
0.8685,5.4215e-05,0
0.869,4.1459e-05,0
0.8695,3.122e-05,0
0.87,2.6017e-05,0
0.8705,2.7359e-05,0
0.871,3.6759e-05,0
0.8715,4.683e-05,0
0.872,5.0858e-05,0
0.8725,4.4816e-05,0
0.873,3.3234e-05,0
0.8735,1.3764e-05,0
0.874,-1.9135e-05,0
0.8745,-4.683e-05,0
0.875,-4.7837e-05,0
0.8755,-2.8031e-05,0
0.876,-5.539e-06,0
0.8765,-1.5106e-06,0
0.877,-1.1078e-05,0
0.8775,-8.3925e-06,0
0.878,4.6998e-06,0
0.8785,3.0213e-06,0
0.879,-1.6953e-05,0
0.8795,-3.7095e-05,0
0.88,-4.3137e-05,0
0.8805,-4.0452e-05,0
0.881,-3.8437e-05,0
0.8815,-2.8534e-05,0
0.882,-5.8747e-06,0
0.8825,1.3932e-05,0
0.883,1.6449e-05,0
0.8835,-1.0071e-06,0
0.884,-3.4745e-05,0
0.8845,-6.8315e-05,0
0.885,-7.4693e-05,0
0.8855,-5.4383e-05,0
0.886,-2.6017e-05,0
0.8865,3.1891e-06,0
0.887,2.652e-05,0
0.8875,4.0787e-05,0
0.888,4.5991e-05,0
0.8885,4.683e-05,0
0.889,5.2537e-05,0
0.8895,6.1601e-05,0
0.89,6.0258e-05,0
0.8905,5.0187e-05,0
0.891,4.2802e-05,0
0.8915,3.8102e-05,0
0.892,4.1291e-05,0
0.8925,5.5558e-05,0
0.893,7.9057e-05,0
0.8935,0.0001086,0
0.894,0.00012656,0
0.8945,0.00011431,0
0.895,8.9632e-05,0
0.8955,7.2175e-05,0
0.896,5.623e-05,0
0.8965,4.2802e-05,0
0.897,3.2563e-05,0
0.8975,5.035e-07,0
0.898,-5.2537e-05,0
0.8985,-9.5674e-05,0
0.899,-0.00010843,0
0.8995,-8.6107e-05,0
0.9,-4.4816e-05,0
0.9005,-9.7353e-06,0
0.901,6.5461e-06,0
0.9015,-1.6785e-06,0
0.902,-1.8967e-05,0
0.9025,-1.6953e-05,0
0.903,8.5603e-06,0
0.9035,3.9277e-05,0
0.904,5.8915e-05,0
0.9045,6.8315e-05,0
0.905,7.2679e-05,0
0.9055,7.3014e-05,0
0.906,6.7979e-05,0
0.9065,6.6804e-05,0
0.907,6.7979e-05,0
0.9075,6.3615e-05,0
0.908,5.2537e-05,0
0.9085,3.9109e-05,0
0.909,2.9038e-05,0
0.9095,2.3667e-05,0
0.91,1.947e-05,0
0.9105,1.4099e-05,0
0.911,1.0407e-05,0
0.9115,5.8747e-06,0
0.912,-1.1749e-06,0
0.9125,-4.1962e-06,0
0.913,-2.5177e-06,0
0.9135,5.035e-07,0
0.914,6.2104e-06,0
0.9145,1.1749e-05,0
0.915,1.796e-05,0
0.9155,1.796e-05,0
0.916,1.678e-07,0
0.9165,-2.266e-05,0
0.917,-2.9038e-05,0
0.9175,-1.9638e-05,0
0.918,-1.1749e-05,0
0.9185,-8.2246e-06,0
0.919,7.2175e-06,0
0.9195,3.3234e-05,0
0.92,5.8915e-05,0
0.9205,7.6036e-05,0
0.921,8.5435e-05,0
0.9215,8.8792e-05,0
0.922,8.6442e-05,0
0.9225,7.956e-05,0
0.923,7.2007e-05,0
0.9235,5.8915e-05,0
0.924,3.3402e-05,0
0.9245,-1.5106e-06,0
0.925,-2.9374e-05,0
0.9255,-4.1962e-05,0
0.926,-4.8676e-05,0
0.9265,-4.4816e-05,0
0.927,-2.2492e-05,0
0.9275,-3.357e-06,0
0.928,-3.6927e-06,0
0.9285,-1.5778e-05,0
0.929,-2.7863e-05,0
0.9295,-2.031e-05,0
0.93,1.0575e-05,0
0.9305,4.448e-05,0
0.931,6.2776e-05,0
0.9315,6.8986e-05,0
0.932,7.1336e-05,0
0.9325,7.0832e-05,0
0.933,6.63e-05,0
0.9335,5.8915e-05,0
0.934,5.153e-05,0
0.9345,4.5991e-05,0
0.935,3.8102e-05,0
0.9355,2.7695e-05,0
0.936,1.326e-05,0
0.9365,-5.539e-06,0
0.937,-1.9638e-05,0
0.9375,-2.031e-05,0
0.938,-1.4603e-05,0
0.9385,-1.3764e-05,0
0.939,-1.9974e-05,0
0.9395,-2.9709e-05,0
0.94,-3.2731e-05,0
0.9405,-2.0646e-05,0
0.941,5.2033e-06,0
0.9415,3.7262e-05,0
0.942,6.3951e-05,0
0.9425,7.8218e-05,0
0.943,7.6204e-05,0
0.9435,6.3951e-05,0
0.944,5.1698e-05,0
0.9445,4.1123e-05,0
0.945,3.5584e-05,0
0.9455,3.4073e-05,0
0.946,3.3738e-05,0
0.9465,3.3738e-05,0
0.947,3.4409e-05,0
0.9475,3.4241e-05,0
0.948,3.4241e-05,0
0.9485,2.3667e-05,0
0.949,-5.035e-07,0
0.9495,-2.3667e-05,0
0.95,-3.2731e-05,0
0.9505,-2.7695e-05,0
0.951,-1.091e-05,0
0.9515,1.4603e-05,0
0.952,3.2059e-05,0
0.9525,3.8437e-05,0
0.953,4.5151e-05,0
0.9535,5.1194e-05,0
0.954,5.153e-05,0
0.9545,3.7766e-05,0
0.955,1.2589e-05,0
0.9555,-1.326e-05,0
0.956,-3.7095e-05,0
0.9565,-6.6133e-05,0
0.957,-9.1981e-05,0
0.9575,-0.00010893,0
0.958,-0.00012169,0
0.9585,-0.0001279,0
0.959,-0.00011968,0
0.9595,-8.6107e-05,0
0.96,-2.8534e-05,0
0.9605,2.7359e-05,0
0.961,4.8005e-05,0
0.9615,3.1891e-05,0
0.962,6.2104e-06,0
0.9625,-6.714e-06,0
0.963,1.0071e-06,0
0.9635,2.266e-05,0
0.964,5.2705e-05,0
0.9645,8.51e-05,0
0.965,0.00010927,0
0.9655,0.00012673,0
0.966,0.00014804,0
0.9665,0.00017272,0
0.967,0.0001942,0
0.9675,0.00020175,0
0.968,0.0001848,0
0.9685,0.00014821,0
0.969,0.00010222,0
0.9695,5.6733e-05,0
0.97,3.357e-05,0
0.9705,3.743e-05,0
0.971,4.3137e-05,0
0.9715,3.5248e-05,0
0.972,2.031e-05,0
0.9725,7.5532e-06,0
0.973,3.357e-07,0
0.9735,-4.3641e-06,0
0.974,-5.2033e-06,0
0.9745,-1.1749e-06,0
0.975,6.5461e-06,0
0.9755,1.0407e-05,0
0.976,9.2317e-06,0
0.9765,4.5319e-06,0
0.977,1.5106e-06,0
0.9775,1.1749e-06,0
0.978,-6.8818e-06,0
0.9785,-2.3331e-05,0
0.979,-3.4409e-05,0
0.9795,-3.2395e-05,0
0.98,-2.3835e-05,0
0.9805,-1.9806e-05,0
0.981,-2.5681e-05,0
0.9815,-3.6927e-05,0
0.982,-4.1795e-05,0
0.9825,-3.2731e-05,0
0.983,-1.3596e-05,0
0.9835,4.8676e-06,0
0.984,1.9303e-05,0
0.9845,3.3402e-05,0
0.985,4.4816e-05,0
0.9855,4.7166e-05,0
0.986,4.1291e-05,0
0.9865,4.0787e-05,0
0.987,5.388e-05,0
0.9875,6.3783e-05,0
0.988,5.5222e-05,0
0.9885,3.3906e-05,0
0.989,1.4939e-05,0
0.9895,2.182e-06,0
0.99,-3.5248e-06,0
0.9905,-2.182e-06,0
0.991,-4.6998e-06,0
0.9915,-1.4939e-05,0
0.992,-2.4338e-05,0
0.9925,-2.4842e-05,0
0.993,-1.8967e-05,0
0.9935,-9.7353e-06,0
0.994,-8.392e-07,0
0.9945,3.0213e-06,0
0.995,5.2033e-06,0
0.9955,8.0568e-06,0
0.996,1.5442e-05,0
0.9965,2.0646e-05,0
0.997,1.4939e-05,0
0.9975,-1.678e-07,0
0.998,-1.4939e-05,0
0.9985,-2.3667e-05,0
0.999,-2.2995e-05,0
0.9995,-1.0407e-05,0
1,9.0639e-06,0
1.0005,3.1388e-05,0
1.001,5.623e-05,0
1.0015,8.7282e-05,0
1.002,0.0001284,0
1.0025,0.00015862,0
1.003,0.00014788,0
1.0035,0.00010323,0
1.004,4.9683e-05,0
1.0045,5.2033e-06,0
1.005,-2.0981e-05,0
1.0055,-3.4241e-05,0
1.006,-3.8773e-05,0
1.0065,-3.5248e-05,0
1.007,-3.6255e-05,0
1.0075,-4.6159e-05,0
1.008,-4.918e-05,0
1.0085,-3.6423e-05,0
1.009,-1.4939e-05,0
1.0095,4.8676e-06,0
1.01,1.7792e-05,0
1.0105,2.6017e-05,0
1.011,2.9374e-05,0
1.0115,2.6017e-05,0
1.012,1.9974e-05,0
1.0125,1.6785e-05,0
1.013,1.8296e-05,0
1.0135,1.9974e-05,0
1.014,1.7121e-05,0
1.0145,1.3932e-05,0
1.015,1.3092e-05,0
1.0155,1.0071e-05,0
1.016,5.0355e-06,0
1.0165,2.3499e-06,0
1.017,1.3428e-06,0
1.0175,8.0568e-06,0
1.018,2.5513e-05,0
1.0185,4.0116e-05,0
1.019,4.5823e-05,0
1.0195,5.0187e-05,0
1.02,5.4048e-05,0
1.0205,5.4887e-05,0
1.021,5.3208e-05,0
1.0215,4.8676e-05,0
1.022,4.0787e-05,0
1.0225,2.3835e-05,0
1.023,-5.539e-06,0
1.0235,-3.8437e-05,0
1.024,-6.9657e-05,0
1.0245,-0.00010205,0
1.025,-0.00012337,0
1.0255,-0.0001326,0
1.026,-0.00012018,0
1.0265,-8.2414e-05,0
1.027,-3.0381e-05,0
1.0275,2.2995e-05,0
1.028,7.8218e-05,0
1.0285,0.00013646,0
1.029,0.00019319,0
1.0295,0.00024154,0
1.03,0.00026285,0
1.0305,0.00025144,0
1.031,0.00022139,0
1.0315,0.0001744,0
1.032,0.00012102,0
1.0325,8.8792e-05,0
1.033,7.8553e-05,0
1.0335,5.1865e-05,0
1.034,-7.5532e-06,0
1.0345,-6.5126e-05,0
1.035,-8.3421e-05,0
1.0355,-6.9322e-05,0
1.036,-4.918e-05,0
1.0365,-3.3738e-05,0
1.037,-1.6953e-05,0
1.0375,2.8534e-06,0
1.038,2.2324e-05,0
1.0385,3.4745e-05,0
1.039,3.6423e-05,0
1.0395,3.2898e-05,0
1.04,3.3066e-05,0
1.0405,3.3402e-05,0
1.041,2.2995e-05,0
1.0415,6.3783e-06,0
1.042,-1.6785e-06,0
1.0425,2.182e-06,0
1.043,3.8605e-06,0
1.0435,3.1891e-06,0
1.044,7.5532e-06,0
1.0445,1.091e-05,0
1.045,1.2924e-05,0
1.0455,7.8889e-06,0
1.046,-6.3783e-06,0
1.0465,-1.5778e-05,0
1.047,-1.0239e-05,0
1.0475,-6.714e-07,0
1.048,5.7069e-06,0
1.0485,1.1246e-05,0
1.049,1.4603e-05,0
1.0495,1.0239e-05,0
1.05,-8.392e-07,0
1.0505,-9.2317e-06,0
1.051,-6.0426e-06,0
1.0515,1.3596e-05,0
1.052,4.2298e-05,0
1.0525,5.7237e-05,0
1.053,4.1795e-05,0
1.0535,1.1246e-05,0
1.054,-6.8818e-06,0
1.0545,-8.2246e-06,0
1.055,0,0
1.0555,1.0575e-05,0
1.056,1.091e-05,0
1.0565,5.2033e-06,0
1.057,1.8463e-06,0
1.0575,3.357e-07,0
1.058,2.5177e-06,0
1.0585,6.8818e-06,0
1.059,6.8818e-06,0
1.0595,2.8534e-06,0
1.06,1.1749e-06,0
1.0605,3.6927e-06,0
1.061,6.0426e-06,0
1.0615,9.2317e-06,0
1.062,1.5778e-05,0
1.0625,2.5513e-05,0
1.063,3.2731e-05,0
1.0635,3.5248e-05,0
1.064,3.1891e-05,0
1.0645,2.1317e-05,0
1.065,1.1582e-05,0
1.0655,9.0639e-06,0
1.066,4.1962e-06,0
1.0665,-1.3092e-05,0
1.067,-3.4745e-05,0
1.0675,-4.7501e-05,0
1.068,-4.7501e-05,0
1.0685,-3.9612e-05,0
1.069,-2.6352e-05,0
1.0695,-8.3925e-06,0
1.07,1.2421e-05,0
1.0705,2.6184e-05,0
1.071,3.0045e-05,0
1.0715,3.5416e-05,0
1.072,5.2872e-05,0
1.0725,8.5771e-05,0
1.073,0.00012001,0
1.0735,0.00013143,0
1.074,0.00011598,0
1.0745,8.7617e-05,0
1.075,6.3783e-05,0
1.0755,5.3208e-05,0
1.076,4.5655e-05,0
1.0765,3.4073e-05,0
1.077,2.1653e-05,0
1.0775,1.4603e-05,0
1.078,1.4939e-05,0
1.0785,2.266e-05,0
1.079,3.5752e-05,0
1.0795,4.448e-05,0
1.08,4.3977e-05,0
1.0805,3.6759e-05,0
1.081,3.4073e-05,0
1.0815,2.8031e-05,0
1.082,5.539e-06,0
1.0825,-2.1988e-05,0
1.083,-3.9277e-05,0
1.0835,-4.3137e-05,0
1.084,-3.7095e-05,0
1.0845,-3.1556e-05,0
1.085,-3.1388e-05,0
1.0855,-2.7192e-05,0
1.086,-9.5674e-06,0
1.0865,2.182e-05,0
1.087,6.3951e-05,0
1.0875,9.8695e-05,0
1.088,9.3828e-05,0
1.0885,5.9419e-05,0
1.089,4.6494e-05,0
1.0895,6.5797e-05,0
1.09,8.8792e-05,0
1.0905,9.2485e-05,0
1.091,7.9728e-05,0
1.0915,6.0258e-05,0
1.092,4.3473e-05,0
1.0925,3.2059e-05,0
1.093,2.0646e-05,0
1.0935,4.6998e-06,0
1.094,-1.091e-05,0
1.0945,-2.1988e-05,0
1.095,-2.9709e-05,0
1.0955,-3.5416e-05,0
1.096,-3.6591e-05,0
1.0965,-3.1724e-05,0
1.097,-2.3667e-05,0
1.0975,-2.0478e-05,0
1.098,-2.5681e-05,0
1.0985,-2.7024e-05,0
1.099,-1.5442e-05,0
1.0995,-1.6785e-06,0
1.1,3.8605e-06,0
1.1005,2.182e-06,0
1.101,1.678e-07,0
1.1015,1.8463e-06,0
1.102,5.2033e-06,0
1.1025,8.5603e-06,0
1.103,1.1582e-05,0
1.1035,1.326e-05,0
1.104,1.5946e-05,0
1.1045,1.6617e-05,0
1.105,1.4099e-05,0
1.1055,8.896e-06,0
1.106,7.2175e-06,0
1.1065,8.896e-06,0
1.107,1.1582e-05,0
1.1075,1.5946e-05,0
1.108,1.796e-05,0
1.1085,2.2492e-05,0
1.109,3.2059e-05,0
1.1095,3.508e-05,0
1.11,3.1052e-05,0
1.1105,2.4674e-05,0
1.111,1.0575e-05,0
1.1115,-6.0426e-06,0
1.112,-9.3996e-06,0
1.1125,1.1749e-06,0
1.113,7.8889e-06,0
1.1135,-6.8818e-06,0
1.114,-3.3738e-05,0
1.1145,-4.7166e-05,0
1.115,-3.7934e-05,0
1.1155,-1.2924e-05,0
1.116,1.7624e-05,0
1.1165,5.0187e-05,0
1.117,8.4932e-05,0
1.1175,0.00011128,0
1.118,0.00011766,0
1.1185,0.00011196,0
1.119,0.00011246,0
1.1195,0.00011934,0
1.12,0.00011044,0
1.1205,8.0735e-05,0
1.121,4.2466e-05,0
1.1215,8.2246e-06,0
1.122,-1.796e-05,0
1.1225,-4.448e-05,0
1.123,-7.1839e-05,0
1.1235,-8.661e-05,0
1.124,-8.1407e-05,0
1.1245,-5.5558e-05,0
1.125,-1.8463e-05,0
1.1255,1.8128e-05,0
1.126,5.153e-05,0
1.1265,7.6371e-05,0
1.127,8.5771e-05,0
1.1275,8.51e-05,0
1.128,8.0903e-05,0
1.1285,6.949e-05,0
1.129,5.069e-05,0
1.1295,3.122e-05,0
1.13,1.4603e-05,0
1.1305,3.357e-07,0
1.131,-1.1582e-05,0
1.1315,-1.8967e-05,0
1.132,-2.0813e-05,0
1.1325,-2.031e-05,0
1.133,-1.5274e-05,0
1.1335,3.0213e-06,0
1.134,2.8199e-05,0
1.1345,5.0187e-05,0
1.135,6.6133e-05,0
1.1355,7.1e-05,0
1.136,6.8986e-05,0
1.1365,6.6972e-05,0
1.137,5.8747e-05,0
1.1375,4.3473e-05,0
1.138,2.9038e-05,0
1.1385,2.031e-05,0
1.139,1.6617e-05,0
1.1395,1.3932e-05,0
1.14,1.0239e-05,0
1.1405,6.5461e-06,0
1.141,-1.5106e-06,0
1.1415,-1.4603e-05,0
1.142,-2.4338e-05,0
1.1425,-2.2324e-05,0
1.143,-1.2589e-05,0
1.1435,2.5177e-06,0
1.144,2.2995e-05,0
1.1445,3.8437e-05,0
1.145,4.2802e-05,0
1.1455,4.3809e-05,0
1.146,4.8676e-05,0
1.1465,5.2033e-05,0
1.147,4.0116e-05,0
1.1475,1.7288e-05,0
1.148,-2.8534e-06,0
1.1485,-1.7288e-05,0
1.149,-2.5009e-05,0
1.1495,-1.9806e-05,0
1.15,-8.896e-06,0
1.1505,3.357e-07,0
1.151,1.326e-05,0
1.1515,2.1317e-05,0
1.152,1.5274e-05,0
1.1525,6.8818e-06,0
1.153,1.0575e-05,0
1.1535,9.5674e-06,0
1.154,-1.1749e-05,0
1.1545,-3.3738e-05,0
1.155,-4.918e-05,0
1.1555,-5.8076e-05,0
1.156,-5.8915e-05,0
1.1565,-4.918e-05,0
1.157,-2.8534e-05,0
1.1575,4.5319e-06,0
1.158,4.5487e-05,0
1.1585,8.3757e-05,0
1.159,0.0001039,0
1.1595,0.00010457,0
1.16,9.4835e-05,0
1.1605,9.3828e-05,0
1.161,9.7017e-05,0
1.1615,8.5435e-05,0
1.162,6.63e-05,0
1.1625,5.4719e-05,0
1.163,4.3305e-05,0
1.1635,2.6017e-05,0
1.164,1.0575e-05,0
1.1645,2.5177e-06,0
1.165,-1.6785e-06,0
1.1655,-9.7353e-06,0
1.166,-1.7624e-05,0
1.1665,-1.3428e-05,0
1.167,3.0213e-06,0
1.1675,2.1988e-05,0
1.168,4.2802e-05,0
1.1685,6.0929e-05,0
1.169,6.2272e-05,0
1.1695,4.1627e-05,0
1.17,1.0575e-05,0
1.1705,-1.3596e-05,0
1.171,-1.9135e-05,0
1.1715,-7.8889e-06,0
1.172,5.2033e-06,0
1.1725,8.5603e-06,0
1.173,9.0639e-06,0
1.1735,1.7121e-05,0
1.174,3.2731e-05,0
1.1745,4.7837e-05,0
1.175,5.7237e-05,0
1.1755,6.4286e-05,0
1.176,6.63e-05,0
1.1765,5.7237e-05,0
1.177,4.2466e-05,0
1.1775,2.6688e-05,0
1.178,1.2589e-05,0
1.1785,1.5106e-06,0
1.179,-3.6927e-06,0
1.1795,1.678e-07,0
1.18,3.8605e-06,0
1.1805,-8.392e-07,0
1.181,-8.2246e-06,0
1.1815,-1.2924e-05,0
1.182,-1.3764e-05,0
1.1825,-8.7282e-06,0
1.183,6.5461e-06,0
1.1835,2.266e-05,0
1.184,2.4674e-05,0
1.1845,1.091e-05,0
1.185,-5.2033e-06,0
1.1855,-5.7069e-06,0
1.186,5.7069e-06,0
1.1865,1.3932e-05,0
1.187,1.9135e-05,0
1.1875,1.8967e-05,0
1.188,1.6617e-05,0
1.1885,1.9135e-05,0
1.189,1.8967e-05,0
1.1895,1.326e-05,0
1.19,9.5674e-06,0
1.1905,8.896e-06,0
1.191,9.5674e-06,0
1.1915,7.7211e-06,0
1.192,1.5106e-06,0
1.1925,-5.539e-06,0
1.193,-9.5674e-06,0
1.1935,-9.0639e-06,0
1.194,-4.5319e-06,0
1.1945,3.0213e-06,0
1.195,1.2924e-05,0
1.1955,2.2995e-05,0
1.196,2.7359e-05,0
1.1965,2.6688e-05,0
1.197,3.1052e-05,0
1.1975,3.6423e-05,0
1.198,3.1052e-05,0
1.1985,1.796e-05,0
1.199,2.6856e-06,0
1.1995,-6.5461e-06,0
1.2,-1.5106e-06,0
1.2005,1.0239e-05,0
1.201,1.9303e-05,0
1.2015,1.8967e-05,0
1.202,6.2104e-06,0
1.2025,2.5177e-06,0
1.203,1.6449e-05,0
1.2035,3.0884e-05,0
1.204,3.9277e-05,0
1.2045,4.683e-05,0
1.205,5.4887e-05,0
1.2055,5.7908e-05,0
1.206,5.7404e-05,0
1.2065,5.8412e-05,0
1.207,5.6733e-05,0
1.2075,5.0523e-05,0
1.208,4.2298e-05,0
1.2085,2.9374e-05,0
1.209,1.5106e-06,0
1.2095,-3.9109e-05,0
1.21,-6.6133e-05,0
1.2105,-7.2007e-05,0
1.211,-6.4286e-05,0
1.2115,-3.9109e-05,0
1.212,-5.8747e-06,0
1.2125,2.4002e-05,0
1.213,5.0858e-05,0
1.2135,7.2175e-05,0
1.214,8.9799e-05,0
1.2145,0.00010726,0
1.215,0.00011464,0
1.2155,0.0001086,0
1.216,9.2485e-05,0
1.2165,6.4286e-05,0
1.217,3.5752e-05,0
1.2175,1.9974e-05,0
1.218,1.1582e-05,0
1.2185,-2.8534e-06,0
1.219,-2.2156e-05,0
1.2195,-3.7095e-05,0
1.22,-3.6088e-05,0
1.2205,-2.2828e-05,0
1.221,-6.2104e-06,0
1.2215,9.0639e-06,0
1.222,1.7456e-05,0
1.2225,1.5274e-05,0
1.223,1.326e-05,0
1.2235,1.947e-05,0
1.224,2.8367e-05,0
1.2245,4.2802e-05,0
1.225,6.2944e-05,0
1.2255,8.1743e-05,0
1.226,8.8121e-05,0
1.2265,6.9657e-05,0
1.227,4.0619e-05,0
1.2275,1.796e-05,0
1.228,8.3925e-06,0
1.2285,1.0071e-05,0
1.229,1.3596e-05,0
1.2295,1.561e-05,0
1.23,1.2757e-05,0
1.2305,0,0
1.231,-2.3835e-05,0
1.2315,-4.2802e-05,0
1.232,-4.4312e-05,0
1.2325,-3.1724e-05,0
1.233,-1.6617e-05,0
1.2335,-1.678e-07,0
1.234,2.2324e-05,0
1.2345,4.3137e-05,0
1.235,5.3208e-05,0
1.2355,5.4887e-05,0
1.236,5.6901e-05,0
1.2365,5.5222e-05,0
1.237,4.6662e-05,0
1.2375,3.2059e-05,0
1.238,1.2253e-05,0
1.2385,-8.392e-07,0
1.239,3.357e-07,0
1.2395,7.5532e-06,0
1.24,1.3596e-05,0
1.2405,1.3764e-05,0
1.241,5.035e-07,0
1.2415,-1.1917e-05,0
1.242,-1.2253e-05,0
1.2425,-1.3428e-06,0
1.243,1.3932e-05,0
1.2435,2.9877e-05,0
1.244,3.7766e-05,0
1.2445,2.8702e-05,0
1.245,1.4771e-05,0
1.2455,1.0575e-05,0
1.246,1.5946e-05,0
1.2465,2.1317e-05,0
1.247,2.6017e-05,0
1.2475,3.0549e-05,0
1.248,3.2731e-05,0
1.2485,2.7024e-05,0
1.249,1.4267e-05,0
1.2495,1.6785e-06,0
1.25,-4.6998e-06,0
1.2505,3.6927e-06,0
1.251,2.2324e-05,0
1.2515,4.0619e-05,0
1.252,5.0858e-05,0
1.2525,4.8676e-05,0
1.253,4.0116e-05,0
1.2535,3.1388e-05,0
1.254,1.9303e-05,0
1.2545,9.0639e-06,0
1.255,6.3783e-06,0
1.2555,7.2175e-06,0
1.256,8.5603e-06,0
1.2565,1.0239e-05,0
1.257,1.2757e-05,0
1.2575,1.8631e-05,0
1.258,2.7863e-05,0
1.2585,3.743e-05,0
1.259,4.5823e-05,0
1.2595,4.8844e-05,0
1.26,4.7837e-05,0
1.2605,4.2634e-05,0
1.261,3.2898e-05,0
1.2615,1.5274e-05,0
1.262,-7.8889e-06,0
1.2625,-3.3234e-05,0
1.263,-5.4215e-05,0
1.2635,-5.6565e-05,0
1.264,-4.4648e-05,0
1.2645,-2.7024e-05,0
1.265,-4.5319e-06,0
1.2655,1.7121e-05,0
1.266,3.2059e-05,0
1.2665,4.4144e-05,0
1.267,4.918e-05,0
1.2675,4.6494e-05,0
1.268,4.1795e-05,0
1.2685,3.4073e-05,0
1.269,2.5009e-05,0
1.2695,1.7121e-05,0
1.27,9.2317e-06,0
1.2705,2.3499e-06,0
1.271,2.182e-06,0
1.2715,1.1917e-05,0
1.272,2.2492e-05,0
1.2725,2.0813e-05,0
1.273,9.9031e-06,0
1.2735,2.5177e-06,0
1.274,3.357e-06,0
1.2745,1.1246e-05,0
1.275,2.3331e-05,0
1.2755,3.3906e-05,0
1.276,4.0116e-05,0
1.2765,4.683e-05,0
1.277,5.153e-05,0
1.2775,5.2537e-05,0
1.278,5.2201e-05,0
1.2785,4.5319e-05,0
1.279,3.1388e-05,0
1.2795,1.8296e-05,0
1.28,8.896e-06,0
1.2805,5.2033e-06,0
1.281,7.5532e-06,0
1.2815,1.2924e-05,0
1.282,1.6953e-05,0
1.2825,1.9806e-05,0
1.283,2.3667e-05,0
1.2835,2.4674e-05,0
1.284,1.796e-05,0
1.2845,-6.714e-07,0
1.285,-2.0981e-05,0
1.2855,-3.0884e-05,0
1.286,-3.1724e-05,0
1.2865,-3.4409e-05,0
1.287,-4.0452e-05,0
1.2875,-3.978e-05,0
1.288,-2.6352e-05,0
1.2885,-5.2033e-06,0
1.289,1.9974e-05,0
1.2895,5.2201e-05,0
1.29,8.5771e-05,0
1.2905,0.00011128,0
1.291,0.00012337,0
1.2915,0.00012119,0
1.292,0.00011128,0
1.2925,0.00010172,0
1.293,8.7785e-05,0
1.2935,5.6733e-05,0
1.294,1.4939e-05,0
1.2945,-1.3932e-05,0
1.295,-1.7624e-05,0
1.2955,-3.1891e-06,0
1.296,1.1078e-05,0
1.2965,1.7121e-05,0
1.297,1.8128e-05,0
1.2975,1.4771e-05,0
1.298,8.5603e-06,0
1.2985,2.8534e-06,0
1.299,-1.1749e-06,0
1.2995,-7.2175e-06,0
1.3,-1.2589e-05,0
1.3005,-1.4603e-05,0
1.301,-1.2253e-05,0
1.3015,-1.1582e-05,0
1.302,-1.1917e-05,0
1.3025,-9.0639e-06,0
1.303,-7.3854e-06,0
1.3035,-7.2175e-06,0
1.304,-3.8605e-06,0
1.3045,1.678e-07,0
1.305,5.2033e-06,0
1.3055,1.4435e-05,0
1.306,1.8296e-05,0
1.3065,1.2757e-05,0
1.307,9.7353e-06,0
1.3075,1.5946e-05,0
1.308,2.4842e-05,0
1.3085,3.122e-05,0
1.309,3.6423e-05,0
1.3095,4.4648e-05,0
1.31,5.4215e-05,0
1.3105,5.4887e-05,0
1.311,3.6088e-05,0
1.3115,-3.1891e-06,0
1.312,-4.9851e-05,0
1.3125,-8.4596e-05,0
1.313,-9.6849e-05,0
1.3135,-9.1478e-05,0
1.314,-8.1071e-05,0
1.3145,-6.9154e-05,0
1.315,-4.2466e-05,0
1.3155,4.1962e-06,0
1.316,4.9515e-05,0
1.3165,7.7378e-05,0
1.317,9.4667e-05,0
1.3175,0.00011615,0
1.318,0.00014318,0
1.3185,0.00016231,0
1.319,0.0001608,0
1.3195,0.0001368,0
1.32,0.00010457,0
1.3205,8.04e-05,0
1.321,6.865e-05,0
1.3215,6.1936e-05,0
1.322,5.4887e-05,0
1.3225,4.7166e-05,0
1.323,4.3137e-05,0
1.3235,4.5151e-05,0
1.324,4.8844e-05,0
1.3245,5.153e-05,0
1.325,5.3544e-05,0
1.3255,5.0858e-05,0
1.326,4.4984e-05,0
1.3265,3.8941e-05,0
1.327,3.0213e-05,0
1.3275,1.6953e-05,0
1.328,2.5177e-06,0
1.3285,-4.8676e-06,0
1.329,-6.8818e-06,0
1.3295,-9.7353e-06,0
1.33,-8.896e-06,0
1.3305,-5.8747e-06,0
1.331,-8.2246e-06,0
1.3315,-7.8889e-06,0
1.332,-6.714e-06,0
1.3325,-7.2175e-06,0
1.333,-8.0568e-06,0
1.3335,-1.1078e-05,0
1.334,-1.5274e-05,0
1.3345,-1.7288e-05,0
1.335,-1.2589e-05,0
1.3355,-4.5319e-06,0
1.336,-1.1749e-06,0
1.3365,-5.539e-06,0
1.337,-9.9031e-06,0
1.3375,-9.5674e-06,0
1.338,-5.0355e-06,0
1.3385,3.0213e-06,0
1.339,1.1917e-05,0
1.3395,1.8296e-05,0
1.34,1.561e-05,0
1.3405,-2.8534e-06,0
1.341,-2.4338e-05,0
1.3415,-3.1052e-05,0
1.342,-2.4506e-05,0
1.3425,-1.4939e-05,0
1.343,-4.1962e-06,0
1.3435,8.392e-07,0
1.344,1.5106e-06,0
1.3445,1.5106e-06,0
1.345,-2.3499e-06,0
1.3455,-1.2421e-05,0
1.346,-2.9709e-05,0
1.3465,-5.9419e-05,0
1.347,-8.7785e-05,0
1.3475,-9.3492e-05,0
1.348,-6.1769e-05,0
1.3485,3.1891e-06,0
1.349,7.3182e-05,0
1.3495,0.00012605,0
1.35,0.00015828,0
1.3505,0.00017641,0
1.351,0.00018111,0
1.3515,0.00016349,0
1.352,0.00012941,0
1.3525,9.5842e-05,0
1.353,7.0161e-05,0
1.3535,4.683e-05,0
1.354,2.2995e-05,0
1.3545,3.357e-06,0
1.355,-1.561e-05,0
1.3555,-3.5248e-05,0
1.356,-4.3137e-05,0
1.3565,-3.4073e-05,0
1.357,-2.1653e-05,0
1.3575,-2.5513e-05,0
1.358,-4.448e-05,0
1.3585,-4.9515e-05,0
1.359,-2.5681e-05,0
1.3595,1.0071e-05,0
1.36,3.8437e-05,0
1.3605,4.9348e-05,0
1.361,5.2201e-05,0
1.3615,5.4215e-05,0
1.362,5.623e-05,0
1.3625,5.9922e-05,0
1.363,6.6636e-05,0
1.3635,6.5965e-05,0
1.364,5.3376e-05,0
1.3645,4.0452e-05,0
1.365,3.1388e-05,0
1.3655,1.6281e-05,0
1.366,-8.2246e-06,0
1.3665,-2.6688e-05,0
1.367,-2.6352e-05,0
1.3675,-9.2317e-06,0
1.368,6.5461e-06,0
1.3685,1.7624e-05,0
1.369,3.0213e-05,0
1.3695,3.7766e-05,0
1.37,3.508e-05,0
1.3705,2.4002e-05,0
1.371,9.5674e-06,0
1.3715,2.5177e-06,0
1.372,4.5319e-06,0
1.3725,8.392e-07,0
1.373,-7.8889e-06,0
1.3735,-1.4267e-05,0
1.374,-2.2828e-05,0
1.3745,-3.0213e-05,0
1.375,-2.8367e-05,0
1.3755,-1.6281e-05,0
1.376,8.392e-07,0
1.3765,1.8631e-05,0
1.377,2.9374e-05,0
1.3775,3.3738e-05,0
1.378,3.7095e-05,0
1.3785,4.5151e-05,0
1.379,5.4215e-05,0
1.3795,6.009e-05,0
1.38,6.3447e-05,0
1.3805,6.2104e-05,0
1.381,4.6494e-05,0
1.3815,1.3764e-05,0
1.382,-2.0646e-05,0
1.3825,-4.1795e-05,0
1.383,-4.1459e-05,0
1.3835,-2.1149e-05,0
1.384,3.0213e-06,0
1.3845,2.4338e-05,0
1.385,4.4312e-05,0
1.3855,6.0258e-05,0
1.386,7.4021e-05,0
1.3865,8.9128e-05,0
1.387,9.5842e-05,0
1.3875,8.8121e-05,0
1.388,6.6468e-05,0
1.3885,4.2802e-05,0
1.389,2.4002e-05,0
1.3895,1.0575e-05,0
1.39,4.3641e-06,0
1.3905,2.8534e-06,0
1.391,3.1891e-06,0
1.3915,2.8534e-06,0
1.392,3.5248e-06,0
1.3925,3.8605e-06,0
1.393,2.8534e-06,0
1.3935,5.539e-06,0
1.394,9.5674e-06,0
1.3945,1.326e-05,0
1.395,1.8631e-05,0
1.3955,2.0142e-05,0
1.396,1.8631e-05,0
1.3965,1.3092e-05,0
1.397,-4.1962e-06,0
1.3975,-2.0646e-05,0
1.398,-2.3667e-05,0
1.3985,-1.8631e-05,0
1.399,-1.3596e-05,0
1.3995,-1.1078e-05,0
1.4,-4.1962e-06,0
1.4005,4.8676e-06,0
1.401,9.2317e-06,0
1.4015,7.7211e-06,0
1.402,1.0071e-05,0
1.4025,2.4506e-05,0
1.403,4.5487e-05,0
1.4035,6.0258e-05,0
1.404,6.5126e-05,0
1.4045,6.3111e-05,0
1.405,5.9419e-05,0
1.4055,5.4551e-05,0
1.406,5.0019e-05,0
1.4065,4.918e-05,0
1.407,4.0116e-05,0
1.4075,2.4002e-05,0
1.408,1.3596e-05,0
1.4085,-4.0284e-06,0
1.409,-3.2059e-05,0
1.4095,-4.8173e-05,0
1.41,-4.6326e-05,0
1.4105,-3.3906e-05,0
1.411,-1.9303e-05,0
1.4115,-8.5603e-06,0
1.412,1.5106e-06,0
1.4125,1.5274e-05,0
1.413,2.8702e-05,0
1.4135,3.7598e-05,0
1.414,3.9277e-05,0
1.4145,3.6255e-05,0
1.415,3.2059e-05,0
1.4155,2.6688e-05,0
1.416,2.1317e-05,0
1.4165,1.7792e-05,0
1.417,1.7288e-05,0
1.4175,1.9974e-05,0
1.418,2.8534e-05,0
1.4185,3.7766e-05,0
1.419,4.2634e-05,0
1.4195,4.1962e-05,0
1.42,3.8773e-05,0
1.4205,3.6759e-05,0
1.421,3.4409e-05,0
1.4215,2.1317e-05,0
1.422,8.2246e-06,0
1.4225,6.2104e-06,0
1.423,3.1891e-06,0
1.4235,-3.1891e-06,0
1.424,-1.1749e-06,0
1.4245,2.5177e-06,0
1.425,-3.1891e-06,0
1.4255,-1.2589e-05,0
1.426,-1.2421e-05,0
1.4265,2.182e-06,0
1.427,2.4002e-05,0
1.4275,4.2802e-05,0
1.428,5.1865e-05,0
1.4285,5.2201e-05,0
1.429,4.9348e-05,0
1.4295,4.5487e-05,0
1.43,4.213e-05,0
1.4305,4.1459e-05,0
1.431,4.7837e-05,0
1.4315,5.4215e-05,0
1.432,4.5319e-05,0
1.4325,2.5681e-05,0
1.433,5.0355e-06,0
1.4335,-3.8605e-06,0
1.434,1.1749e-06,0
1.4345,-1.1749e-06,0
1.435,-1.4603e-05,0
1.4355,-3.9109e-05,0
1.436,-7.4189e-05,0
1.4365,-9.987e-05,0
1.437,-9.752e-05,0
1.4375,-7.3014e-05,0
1.438,-3.9948e-05,0
1.4385,5.035e-07,0
1.439,5.8244e-05,0
1.4395,0.00012438,0
1.44,0.00017758,0
1.4405,0.00020259,0
1.441,0.00018866,0
1.4415,0.00015258,0
1.442,0.00011263,0
1.4425,7.8386e-05,0
1.443,5.4887e-05,0
1.4435,3.8605e-05,0
1.444,2.1317e-05,0
1.4445,4.8676e-06,0
1.445,-5.7069e-06,0
1.4455,-2.5681e-05,0
1.446,-5.9251e-05,0
1.4465,-8.2246e-05,0
1.447,-7.3014e-05,0
1.4475,-3.8437e-05,0
1.448,2.3499e-06,0
1.4485,3.2731e-05,0
1.449,4.7166e-05,0
1.4495,5.6397e-05,0
1.45,6.7643e-05,0
1.4505,7.805e-05,0
1.451,7.9896e-05,0
1.4515,7.0329e-05,0
1.452,5.1194e-05,0
1.4525,3.6759e-05,0
1.453,3.5248e-05,0
1.4535,3.4745e-05,0
1.454,3.0045e-05,0
1.4545,3.1724e-05,0
1.455,4.0284e-05,0
1.4555,4.1627e-05,0
1.456,3.2059e-05,0
1.4565,2.2492e-05,0
1.457,2.2324e-05,0
1.4575,1.796e-05,0
1.458,2.182e-06,0
1.4585,-1.2924e-05,0
1.459,-2.1988e-05,0
1.4595,-2.6184e-05,0
1.46,-2.5009e-05,0
1.4605,-2.3667e-05,0
1.461,-2.031e-05,0
1.4615,-1.8296e-05,0
1.462,-2.4002e-05,0
1.4625,-2.8367e-05,0
1.463,-2.6017e-05,0
1.4635,-2.0981e-05,0
1.464,-1.8967e-05,0
1.4645,-1.9638e-05,0
1.465,-1.9806e-05,0
1.4655,-1.6281e-05,0
1.466,-1.5274e-05,0
1.4665,-1.7121e-05,0
1.467,-1.9638e-05,0
1.4675,-1.8296e-05,0
1.468,-9.2317e-06,0
1.4685,7.8889e-06,0
1.469,2.6017e-05,0
1.4695,3.5248e-05,0
1.47,3.5416e-05,0
1.4705,2.9709e-05,0
1.471,2.4338e-05,0
1.4715,2.5009e-05,0
1.472,2.2324e-05,0
1.4725,1.2589e-05,0
1.473,1.5106e-06,0
1.4735,-1.5106e-06,0
1.474,1.0575e-05,0
1.4745,3.3066e-05,0
1.475,5.2201e-05,0
1.4755,6.63e-05,0
1.476,7.6036e-05,0
1.4765,7.57e-05,0
1.477,5.539e-05,0
1.4775,1.1917e-05,0
1.478,-3.8605e-05,0
1.4785,-7.6707e-05,0
1.479,-9.0806e-05,0
1.4795,-8.2078e-05,0
1.48,-5.8244e-05,0
1.4805,-2.9374e-05,0
1.481,4.0284e-06,0
1.4815,3.9277e-05,0
1.482,6.4286e-05,0
1.4825,7.6204e-05,0
1.483,7.7378e-05,0
1.4835,7.1504e-05,0
1.484,6.1601e-05,0
1.4845,5.9587e-05,0
1.485,6.8315e-05,0
1.4855,8.191e-05,0
1.486,8.896e-05,0
1.4865,7.8386e-05,0
1.487,6.1601e-05,0
1.4875,5.5726e-05,0
1.488,4.7501e-05,0
1.4885,2.887e-05,0
1.489,1.7288e-05,0
1.4895,1.6953e-05,0
1.49,1.4771e-05,0
1.4905,3.1891e-06,0
1.491,-1.5442e-05,0
1.4915,-3.2563e-05,0
1.492,-4.0619e-05,0
1.4925,-3.9109e-05,0
1.493,-2.7359e-05,0
1.4935,-5.8747e-06,0
1.494,2.3667e-05,0
1.4945,5.1865e-05,0
1.495,6.9322e-05,0
1.4955,7.4021e-05,0
1.496,6.5293e-05,0
1.4965,4.2802e-05,0
1.497,2.0813e-05,0
1.4975,1.9303e-05,0
1.498,3.4745e-05,0
1.4985,5.153e-05,0
1.499,5.623e-05,0
1.4995,4.5823e-05,0
1.5,3.1052e-05,0
1.5005,2.652e-05,0
1.501,3.2563e-05,0
1.5015,4.8173e-05,0
1.502,6.1601e-05,0
1.5025,5.0187e-05,0
1.503,2.2324e-05,0
1.5035,5.2033e-06,0
1.504,1.2589e-05,0
1.5045,3.357e-05,0
1.505,5.0019e-05,0
1.5055,5.2872e-05,0
1.506,4.213e-05,0
1.5065,2.7695e-05,0
1.507,1.2924e-05,0
1.5075,-1.5106e-06,0
1.508,-6.8818e-06,0
1.5085,0,0
1.509,1.0071e-05,0
1.5095,1.2589e-05,0
1.51,8.392e-07,0
1.5105,-1.1582e-05,0
1.511,-1.6281e-05,0
1.5115,-1.8463e-05,0
1.512,-2.266e-05,0
1.5125,-2.6352e-05,0
1.513,-2.9038e-05,0
1.5135,-2.8367e-05,0
1.514,-2.3835e-05,0
1.5145,-1.3092e-05,0
1.515,-5.035e-07,0
1.5155,3.8605e-06,0
1.516,2.5177e-06,0
1.5165,-2.8534e-06,0
1.517,-2.0981e-05,0
1.5175,-3.978e-05,0
1.518,-3.9445e-05,0
1.5185,-2.0646e-05,0
1.519,8.392e-07,0
1.5195,1.7288e-05,0
1.52,2.9038e-05,0
1.5205,3.3738e-05,0
1.521,3.0381e-05,0
1.5215,3.0716e-05,0
1.522,4.0955e-05,0
1.5225,5.0858e-05,0
1.523,5.6565e-05,0
1.5235,5.4048e-05,0
1.524,2.9374e-05,0
1.5245,-2.8534e-06,0
1.525,-7.5532e-06,0
1.5255,1.1917e-05,0
1.526,3.5416e-05,0
1.5265,5.2537e-05,0
1.527,5.2033e-05,0
1.5275,4.1459e-05,0
1.528,4.918e-05,0
1.5285,7.956e-05,0
1.529,0.0001086,0
1.5295,0.00011666,0
1.53,0.00010356,0
1.5305,7.8721e-05,0
1.531,5.8412e-05,0
1.5315,4.4144e-05,0
1.532,3.508e-05,0
1.5325,2.9038e-05,0
1.533,1.9974e-05,0
1.5335,8.7282e-06,0
1.534,-4.5319e-06,0
1.5345,-1.4939e-05,0
1.535,-2.266e-05,0
1.5355,-3.7766e-05,0
1.536,-5.7908e-05,0
1.5365,-7.1e-05,0
1.537,-7.7043e-05,0
1.5375,-8.2078e-05,0
1.538,-8.2414e-05,0
1.5385,-7.1839e-05,0
1.539,-4.5487e-05,0
1.5395,-1.5106e-06,0
1.54,4.7837e-05,0
1.5405,9.3492e-05,0
1.541,0.00012857,0
1.5415,0.0001472,0
1.542,0.00015392,0
1.5425,0.0001462,0
1.543,0.00011598,0
1.5435,5.8579e-05,0
1.544,-8.3925e-06,0
1.5445,-5.388e-05,0
1.545,-6.1769e-05,0
1.5455,-4.1962e-05,0
1.546,-1.2924e-05,0
1.5465,7.3854e-06,0
1.547,1.8296e-05,0
1.5475,2.887e-05,0
1.548,3.8437e-05,0
1.5485,3.6591e-05,0
1.549,2.3835e-05,0
1.5495,1.3932e-05,0
1.55,6.2104e-06,0
1.5505,-2.5177e-06,0
1.551,-3.1891e-06,0
1.5515,-1.0239e-05,0
1.552,-2.8031e-05,0
1.5525,-3.8102e-05,0
1.553,-3.5248e-05,0
1.5535,-2.5177e-05,0
1.554,-1.6953e-05,0
1.5545,-1.4267e-05,0
1.555,-7.5532e-06,0
1.5555,5.8747e-06,0
1.556,2.1317e-05,0
1.5565,4.1291e-05,0
1.557,6.0426e-05,0
1.5575,7.805e-05,0
1.558,9.4163e-05,0
1.5585,0.00010105,0
1.559,9.6513e-05,0
1.5595,8.6946e-05,0
1.56,7.6204e-05,0
1.5605,6.6636e-05,0
1.561,5.8747e-05,0
1.5615,4.3641e-05,0
1.562,1.7792e-05,0
1.5625,-9.5674e-06,0
1.563,-3.2059e-05,0
1.5635,-4.448e-05,0
1.564,-4.9851e-05,0
1.5645,-5.3376e-05,0
1.565,-4.8508e-05,0
1.5655,-3.3234e-05,0
1.566,-1.7792e-05,0
1.5665,-5.0355e-06,0
1.567,1.091e-05,0
1.5675,3.2059e-05,0
1.568,5.2033e-05,0
1.5685,6.0929e-05,0
1.569,5.7404e-05,0
1.5695,4.9348e-05,0
1.57,3.4073e-05,0
1.5705,9.0639e-06,0
1.571,-1.2253e-05,0
1.5715,-2.266e-05,0
1.572,-2.0981e-05,0
1.5725,-1.2253e-05,0
1.573,-1.3428e-06,0
1.5735,1.0575e-05,0
1.574,2.8367e-05,0
1.5745,4.7166e-05,0
1.575,5.7572e-05,0
1.5755,6.4286e-05,0
1.576,6.7643e-05,0
1.5765,6.865e-05,0
1.577,6.6972e-05,0
1.5775,4.683e-05,0
1.578,1.7624e-05,0
1.5785,-3.5248e-06,0
1.579,-1.3428e-05,0
1.5795,-1.1582e-05,0
1.58,8.392e-07,0
1.5805,1.7121e-05,0
1.581,2.9206e-05,0
1.5815,3.1556e-05,0
1.582,3.2731e-05,0
1.5825,3.1052e-05,0
1.583,2.2156e-05,0
1.5835,7.2175e-06,0
1.584,-8.5603e-06,0
1.5845,-3.122e-05,0
1.585,-6.7643e-05,0
1.5855,-0.00010054,0
1.586,-0.00010256,0
1.5865,-6.4286e-05,0
1.587,-9.5674e-06,0
1.5875,4.4816e-05,0
1.588,9.4163e-05,0
1.5885,0.00012673,0
1.589,0.00012303,0
1.5895,8.9799e-05,0
1.59,7.1672e-05,0
1.5905,8.04e-05,0
1.591,8.6442e-05,0
1.5915,6.7475e-05,0
1.592,3.2059e-05,0
1.5925,8.2246e-06,0
1.593,5.7069e-06,0
1.5935,1.796e-05,0
1.594,5.069e-05,0
1.5945,9.6513e-05,0
1.595,0.00012488,0
1.5955,0.00012236,0
1.596,0.00011246,0
1.5965,0.00011246,0
1.597,0.00010961,0
1.5975,8.5603e-05,0
1.598,4.0452e-05,0
1.5985,-8.5603e-06,0
1.599,-5.0523e-05,0
1.5995,-8.1575e-05,0
1.6,-9.6345e-05,0
1.6005,-9.5003e-05,0
1.601,-7.9896e-05,0
1.6015,-5.2537e-05,0
1.602,-1.6617e-05,0
1.6025,1.5946e-05,0
1.603,3.8605e-05,0
1.6035,4.8844e-05,0
1.604,4.8173e-05,0
1.6045,4.6494e-05,0
1.605,4.2466e-05,0
1.6055,2.0478e-05,0
1.606,-2.1149e-05,0
1.6065,-6.1097e-05,0
1.607,-7.7211e-05,0
1.6075,-7.335e-05,0
1.608,-6.1769e-05,0
1.6085,-5.2033e-05,0
1.609,-4.9515e-05,0
1.6095,-5.2705e-05,0
1.61,-5.3544e-05,0
1.6105,-5.5726e-05,0
1.611,-6.3111e-05,0
1.6115,-7.0329e-05,0
1.612,-7.4693e-05,0
1.6125,-7.1e-05,0
1.613,-4.7166e-05,0
1.6135,-1.3764e-05,0
1.614,1.4939e-05,0
1.6145,3.5584e-05,0
1.615,4.7166e-05,0
1.6155,5.7908e-05,0
1.616,7.6204e-05,0
1.6165,9.5842e-05,0
1.617,0.00010658,0
1.6175,0.00010222,0
1.618,8.2414e-05,0
1.6185,7.1672e-05,0
1.619,8.8121e-05,0
1.6195,0.00011212,0
1.62,0.00012035,0
1.6205,0.00011397,0
1.621,0.00010105,0
1.6215,9.0303e-05,0
1.622,7.6371e-05,0
1.6225,5.4048e-05,0
1.623,3.4073e-05,0
1.6235,2.4002e-05,0
1.624,1.8296e-05,0
1.6245,6.2104e-06,0
1.625,-1.4267e-05,0
1.6255,-3.2059e-05,0
1.626,-3.4577e-05,0
1.6265,-2.7863e-05,0
1.627,-2.1317e-05,0
1.6275,-1.4267e-05,0
1.628,-1.7121e-05,0
1.6285,-3.3234e-05,0
1.629,-3.8941e-05,0
1.6295,-2.4338e-05,0
1.63,-5.035e-07,0
1.6305,1.8631e-05,0
1.631,2.8702e-05,0
1.6315,3.9948e-05,0
1.632,6.0929e-05,0
1.6325,8.5771e-05,0
1.633,0.0001138,0
1.6335,0.00014217,0
1.634,0.00015392,0
1.6345,0.00013143,0
1.635,8.04e-05,0
1.6355,2.7359e-05,0
1.636,-6.714e-06,0
1.6365,-9.2317e-06,0
1.637,-5.035e-07,0
1.6375,2.8534e-06,0
1.638,7.5532e-06,0
1.6385,2.0646e-05,0
1.639,3.6927e-05,0
1.6395,4.9515e-05,0
1.64,6.2608e-05,0
1.6405,7.5532e-05,0
1.641,8.426e-05,0
1.6415,9.3828e-05,0
1.642,9.2821e-05,0
1.6425,7.0832e-05,0
1.643,4.5487e-05,0
1.6435,2.6352e-05,0
1.644,1.6785e-06,0
1.6445,-3.8605e-05,0
1.645,-8.896e-05,0
1.6455,-0.00012706,0
1.646,-0.00012538,0
1.6465,-9.3492e-05,0
1.647,-6.3447e-05,0
1.6475,-4.9012e-05,0
1.648,-3.7766e-05,0
1.6485,-2.2995e-05,0
1.649,-1.7121e-05,0
1.6495,-2.5009e-05,0
1.65,-3.6759e-05,0
1.6505,-4.9851e-05,0
1.651,-7.3014e-05,0
1.6515,-9.6513e-05,0
1.652,-0.00010172,0
1.6525,-9.1478e-05,0
1.653,-7.3686e-05,0
1.6535,-4.4984e-05,0
1.654,-1.561e-05,0
1.6545,1.0239e-05,0
1.655,3.3402e-05,0
1.6555,5.3208e-05,0
1.656,7.6036e-05,0
1.6565,0.00010356,0
1.657,0.00012874,0
1.6575,0.0001519,0
1.658,0.00017288,0
1.6585,0.00018447,0
1.659,0.00017574,0
1.6595,0.00014284,0
1.66,9.4163e-05,0
1.6605,3.743e-05,0
1.661,-3.1724e-05,0
1.6615,-9.9199e-05,0
1.662,-0.00012857,0
1.6625,-0.00011179,0
1.663,-7.4357e-05,0
1.6635,-3.7766e-05,0
1.664,-7.2175e-06,0
1.6645,1.7288e-05,0
1.665,3.4073e-05,0
1.6655,5.2872e-05,0
1.666,8.426e-05,0
1.6665,0.00011498,0
1.667,0.00011565,0
1.6675,9.9535e-05,0
1.668,0.00010188,0
1.6685,0.00012186,0
1.669,0.00014318,0
1.6695,0.00012874,0
1.67,7.3518e-05,0
1.6705,2.9374e-05,0
1.671,1.7121e-05,0
1.6715,8.5603e-06,0
1.672,-1.3764e-05,0
1.6725,-2.9206e-05,0
1.673,-1.8296e-05,0
1.6735,5.2033e-06,0
1.674,2.8031e-05,0
1.6745,4.3641e-05,0
1.675,4.1459e-05,0
1.6755,1.2589e-05,0
1.676,-3.3066e-05,0
1.6765,-6.0929e-05,0
1.677,-4.9851e-05,0
1.6775,-1.2253e-05,0
1.678,3.3738e-05,0
1.6785,6.6133e-05,0
1.679,7.335e-05,0
1.6795,7.8889e-05,0
1.68,9.8863e-05,0
1.6805,0.00011649,0
1.681,0.00011145,0
1.6815,8.1407e-05,0
1.682,5.0019e-05,0
1.6825,2.8534e-05,0
1.683,1.0407e-05,0
1.6835,-8.0568e-06,0
1.684,-2.5009e-05,0
1.6845,-4.3473e-05,0
1.685,-7.0832e-05,0
1.6855,-9.6849e-05,0
1.686,-0.00011095,0
1.6865,-0.00011313,0
1.687,-0.00010105,0
1.6875,-7.1839e-05,0
1.688,-3.7262e-05,0
1.6885,-1.3092e-05,0
1.689,-1.0071e-06,0
1.6895,6.5461e-06,0
1.69,1.2589e-05,0
1.6905,2.1988e-05,0
1.691,2.9374e-05,0
1.6915,2.0646e-05,0
1.692,5.2033e-06,0
1.6925,-1.2589e-05,0
1.693,-5.9754e-05,0
1.6935,-0.00013613,0
1.694,-0.00019722,0
1.6945,-0.00023113,0
1.695,-0.00022676,0
1.6955,-0.00019101,0
1.696,-0.00013512,0
1.6965,-6.1265e-05,0
1.697,1.3596e-05,0
1.6975,7.5868e-05,0
1.698,0.00011531,0
1.6985,0.00014485,0
1.699,0.0001848,0
1.6995,0.00021535,0
1.7,0.00020797,0
1.7005,0.00016197,0
1.701,9.7353e-05,0
1.7015,4.0619e-05,0
1.702,1.1917e-05,0
1.7025,-5.7069e-06,0
1.703,-1.1246e-05,0
1.7035,3.1891e-06,0
1.704,2.7359e-05,0
1.7045,5.6901e-05,0
1.705,9.5674e-05,0
1.7055,0.00014234,0
1.706,0.00020259,0
1.7065,0.0002788,0
1.707,0.00032982,0
1.7075,0.00032009,0
1.708,0.00026705,0
1.7085,0.00021115,0
1.709,0.00015828,0
1.7095,8.7785e-05,0
1.71,5.539e-06,0
1.7105,-4.9851e-05,0
1.711,-6.5629e-05,0
1.7115,-6.2776e-05,0
1.712,-6.2272e-05,0
1.7125,-7.2343e-05,0
1.713,-8.5939e-05,0
1.7135,-7.5029e-05,0
1.714,-4.2298e-05,0
1.7145,-1.8463e-06,0
1.715,3.8605e-05,0
1.7155,7.3686e-05,0
1.716,9.3828e-05,0
1.7165,9.0806e-05,0
1.717,6.9657e-05,0
1.7175,3.743e-05,0
1.718,7.3854e-06,0
1.7185,-2.1988e-05,0
1.719,-5.9587e-05,0
1.7195,-8.6442e-05,0
1.72,-9.1981e-05,0
1.7205,-8.896e-05,0
1.721,-9.9535e-05,0
1.7215,-0.00013025,0
1.722,-0.00017473,0
1.7225,-0.00023113,0
1.723,-0.00030095,0
1.7235,-0.00036759,0
1.724,-0.00039747,0
1.7245,-0.00036927,0
1.725,-0.00029592,0
1.7255,-0.00020243,0
1.726,-7.5868e-05,0
1.7265,9.8863e-05,0
1.727,0.00028299,0
1.7275,0.00043339,0
1.728,0.00052755,0
1.7285,0.00054199,0
1.729,0.00048659,0
1.7295,0.00041979,0
1.73,0.0003644,0
1.7305,0.00030985,0
1.731,0.00026101,0
1.7315,0.00020595,0
1.732,0.00011498,0
1.7325,-1.1246e-05,0
1.733,-0.00012673,0
1.7335,-0.00019017,0
1.734,-0.00020377,0
1.7345,-0.00020377,0
1.735,-0.00019823,0
1.7355,-0.00016214,0
1.736,-8.8457e-05,0
1.7365,2.182e-06,0
1.737,9.6513e-05,0
1.7375,0.00019773,0
1.738,0.00026755,0
1.7385,0.00026134,0
1.739,0.00019236,0
1.7395,0.00010172,0
1.74,2.1317e-05,0
1.7405,-2.9374e-05,0
1.741,-5.3208e-05,0
1.7415,-6.479e-05,0
1.742,-8.3421e-05,0
1.7425,-0.00012102,0
1.743,-0.00015946,0
1.7435,-0.00019135,0
1.744,-0.00021837,0
1.7445,-0.00022173,0
1.745,-0.0002031,0
1.7455,-0.00018228,0
1.746,-0.00015308,0
1.7465,-0.00010742,0
1.747,-4.3809e-05,0
1.7475,2.7024e-05,0
1.748,9.7856e-05,0
1.7485,0.0001613,0
1.749,0.00020914,0
1.7495,0.00023818,0
1.75,0.00024422,0
1.7505,0.00023281,0
1.751,0.00020461,0
1.7515,0.00015341,0
1.752,0.00010239,0
1.7525,7.8386e-05,0
1.753,4.4816e-05,0
1.7535,-3.2395e-05,0
1.754,-0.00012052,0
1.7545,-0.000166,0
1.755,-0.00015291,0
1.7555,-0.00011196,0
1.756,-6.7643e-05,0
1.7565,-3.8102e-05,0
1.757,-2.8199e-05,0
1.7575,-3.8941e-05,0
1.758,-4.6159e-05,0
1.7585,-3.8605e-05,0
1.759,-3.508e-05,0
1.7595,-3.9612e-05,0
1.76,-3.8437e-05,0
1.7605,-2.7192e-05,0
1.761,-8.896e-06,0
1.7615,3.4409e-05,0
1.762,0.00011028,0
1.7625,0.00018346,0
1.763,0.00023079,0
1.7635,0.00026638,0
1.764,0.00029021,0
1.7645,0.00027477,0
1.765,0.00021166,0
1.7655,0.00013646,0
1.766,6.9322e-05,0
1.7665,1.5946e-05,0
1.767,-1.1414e-05,0
1.7675,-2.4002e-05,0
1.768,-4.6494e-05,0
1.7685,-7.9225e-05,0
1.769,-0.00010088,0
1.7695,-9.836e-05,0
1.77,-9.3156e-05,0
1.7705,-0.00010642,0
1.771,-0.00011833,0
1.7715,-8.6778e-05,0
1.772,-1.3764e-05,0
1.7725,5.388e-05,0
1.773,8.9632e-05,0
1.7735,9.6513e-05,0
1.774,6.2944e-05,0
1.7745,4.8676e-06,0
1.775,-3.5416e-05,0
1.7755,-3.9109e-05,0
1.776,-3.3402e-05,0
1.7765,-4.2298e-05,0
1.777,-6.2608e-05,0
1.7775,-7.4357e-05,0
1.778,-5.7572e-05,0
1.7785,-1.6785e-05,0
1.779,2.5345e-05,0
1.7795,4.7501e-05,0
1.78,6.1433e-05,0
1.7805,7.7714e-05,0
1.781,7.9057e-05,0
1.7815,6.2608e-05,0
1.782,5.0858e-05,0
1.7825,5.5558e-05,0
1.783,6.6468e-05,0
1.7835,7.57e-05,0
1.784,6.6972e-05,0
1.7845,4.6159e-05,0
1.785,2.4002e-05,0
1.7855,-1.6617e-05,0
1.786,-8.8792e-05,0
1.7865,-0.0001749,0
1.787,-0.00024305,0
1.7875,-0.00030095,0
1.788,-0.00035349,0
1.7885,-0.00035332,0
1.789,-0.00027762,0
1.7895,-0.00017943,0
1.79,-9.2821e-05,0
1.7905,5.539e-06,0
1.791,0.00013008,0
1.7915,0.00024825,0
1.792,0.00032714,0
1.7925,0.00037111,0
1.793,0.00040267,0
1.7935,0.00041929,0
1.794,0.00040401,0
1.7945,0.00033822,0
1.795,0.00023751,0
1.7955,0.00015106,0
1.796,0.00010188,0
1.7965,7.5364e-05,0
1.797,5.4887e-05,0
1.7975,5.2705e-05,0
1.798,6.8986e-05,0
1.7985,8.0735e-05,0
1.799,8.7114e-05,0
1.7995,0.00011699,0
1.8,0.00015946,0
1.8005,0.0001749,0
1.801,0.00013764,0
1.8015,7.4693e-05,0
1.802,2.7359e-05,0
1.8025,1.8463e-06,0
1.803,-1.8967e-05,0
1.8035,-4.2802e-05,0
1.804,-5.8579e-05,0
1.8045,-6.3615e-05,0
1.805,-6.63e-05,0
1.8055,-6.7979e-05,0
1.806,-7.3854e-05,0
1.8065,-8.6946e-05,0
1.807,-0.00011363,0
1.8075,-0.00014485,0
1.808,-0.00014989,0
1.8085,-0.00012891,0
1.809,-0.00010742,0
1.8095,-9.601e-05,0
1.81,-8.3589e-05,0
1.8105,-5.8076e-05,0
1.811,-1.796e-05,0
1.8115,7.3854e-06,0
1.812,6.714e-07,0
1.8125,-1.796e-05,0
1.813,-2.6352e-05,0
1.8135,-2.1485e-05,0
1.814,-1.6617e-05,0
1.8145,-2.182e-05,0
1.815,-2.9038e-05,0
1.8155,-3.4745e-05,0
1.816,-4.5151e-05,0
1.8165,-5.8579e-05,0
1.817,-6.3279e-05,0
1.8175,-5.9251e-05,0
1.818,-6.4286e-05,0
1.8185,-7.8721e-05,0
1.819,-9.8695e-05,0
1.8195,-0.0001331,0
1.82,-0.00016214,0
1.8205,-0.00015459,0
1.821,-0.00010709,0
1.8215,-2.2324e-05,0
1.822,8.5435e-05,0
1.8225,0.00017842,0
1.823,0.00022525,0
1.8235,0.00021837,0
1.824,0.00017624,0
1.8245,0.00012689,0
1.825,8.4428e-05,0
1.8255,6.7979e-05,0
1.826,7.1e-05,0
1.8265,5.7572e-05,0
1.827,9.5674e-06,0
1.8275,-7.4189e-05,0
1.828,-0.0001561,0
1.8285,-0.00017372,0
1.829,-0.00010793,0
1.8295,-5.2033e-06,0
1.83,9.0806e-05,0
1.8305,0.00016197,0
1.831,0.00020931,0
1.8315,0.00024338,0
1.832,0.00027594,0
1.8325,0.00031304,0
1.833,0.00033956,0
1.8335,0.00033083,0
1.834,0.00028484,0
1.8345,0.00021921,0
1.835,0.00016365,0
1.8355,0.00012874,0
1.836,7.0329e-05,0
1.8365,-2.1653e-05,0
1.837,-8.4764e-05,0
1.8375,-0.00010356,0
1.838,-0.00011044,0
1.8385,-9.8695e-05,0
1.839,-3.2395e-05,0
1.8395,6.7308e-05,0
1.84,0.00012941,0
1.8405,0.00015644,0
1.841,0.00016063,0
1.8415,0.00012253,0
1.842,4.1627e-05,0
1.8425,-1.8463e-05,0
1.843,-4.0284e-06,0
1.8435,5.388e-05,0
1.844,0.00010021,0
1.8445,0.00010088,0
1.845,5.9083e-05,0
1.8455,2.8031e-05,0
1.846,2.3667e-05,0
1.8465,1.3764e-05,0
1.847,-2.9542e-05,0
1.8475,-9.3156e-05,0
1.848,-0.00012941,0
1.8485,-0.00010994,0
1.849,-5.6901e-05,0
1.8495,-1.5946e-05,0
1.85,-1.8463e-06,0
1.8505,4.8676e-06,0
1.851,1.8296e-05,0
1.8515,3.2731e-05,0
1.852,3.0045e-05,0
1.8525,-6.8818e-06,0
1.853,-7.4693e-05,0
1.8535,-0.00014955,0
1.854,-0.00020343,0
1.8545,-0.00022173,0
1.855,-0.00020931,0
1.8555,-0.00018379,0
1.856,-0.00015291,0
1.8565,-0.00012992,0
1.857,-0.00012605,0
1.8575,-0.0001373,0
1.858,-0.00014888,0
1.8585,-0.00014015,0
1.859,-0.00012152,0
1.8595,-0.00011028,0
1.86,-8.6107e-05,0
1.8605,-5.7404e-05,0
1.861,-3.8102e-05,0
1.8615,-1.7456e-05,0
1.862,1.6281e-05,0
1.8625,6.0929e-05,0
1.863,0.00011028,0
1.8635,0.00015409,0
1.864,0.00018245,0
1.8645,0.00017842,0
1.865,0.00013478,0
1.8655,6.8315e-05,0
1.866,9.0639e-06,0
1.8665,-2.5681e-05,0
1.867,-6.7979e-05,0
1.8675,-0.00011968,0
1.868,-0.00015409,0
1.8685,-0.0001613,0
1.869,-0.00011632,0
1.8695,-4.6998e-06,0
1.87,0.00014502,0
1.8705,0.00027108,0
1.871,0.00033285,0
1.8715,0.00034627,0
1.872,0.00036423,0
1.8725,0.00040066,0
1.873,0.00041341,0
1.8735,0.00035903,0
1.874,0.00025463,0
1.8745,0.00014553,0
1.875,5.6733e-05,0
1.8755,5.035e-07,0
1.876,-1.7288e-05,0
1.8765,5.8747e-06,0
1.877,6.3447e-05,0
1.8775,0.00011833,0
1.878,0.000118,0
1.8785,6.2776e-05,0
1.879,-3.2731e-05,0
1.8795,-0.00012505,0
1.88,-0.00018598,0
1.8805,-0.0001989,0
1.881,-0.0001707,0
1.8815,-0.00012169,0
1.882,-6.3615e-05,0
1.8825,-5.539e-06,0
1.883,4.8676e-05,0
1.8835,9.0471e-05,0
1.884,0.00010054,0
1.8845,8.2414e-05,0
1.885,5.5055e-05,0
1.8855,2.7192e-05,0
1.886,-1.8296e-05,0
1.8865,-9.0639e-05,0
1.887,-0.00016852,0
1.8875,-0.00021988,0
1.888,-0.00022475,0
1.8885,-0.00018413,0
1.889,-0.00013243,0
1.8895,-9.5506e-05,0
1.89,-5.3376e-05,0
1.8905,-9.9031e-06,0
1.891,2.0142e-05,0
1.8915,3.6591e-05,0
1.892,5.5726e-05,0
1.8925,8.0735e-05,0
1.893,9.5171e-05,0
1.8935,8.275e-05,0
1.894,3.8102e-05,0
1.8945,-1.0239e-05,0
1.895,-3.5248e-06,0
1.8955,4.448e-05,0
1.896,4.6159e-05,0
1.8965,-1.8463e-06,0
1.897,-3.9277e-05,0
1.8975,-3.6591e-05,0
1.898,1.0575e-05,0
1.8985,8.6275e-05,0
1.899,0.00015627,0
1.8995,0.0002078,0
1.9,0.00022744,0
1.9005,0.00019789,0
1.901,0.00012136,0
1.9015,2.8534e-05,0
1.902,-3.2731e-05,0
1.9025,-5.7237e-05,0
1.903,-5.304e-05,0
1.9035,9.3996e-06,0
1.904,0.00011666,0
1.9045,0.00020964,0
1.905,0.00023952,0
1.9055,0.00021401,0
1.906,0.00015962,0
1.9065,8.5771e-05,0
1.907,5.2033e-06,0
1.9075,-3.6759e-05,0
1.908,-4.5319e-06,0
1.9085,4.7501e-05,0
1.909,5.8076e-05,0
1.9095,3.0045e-05,0
1.91,-1.4267e-05,0
1.9105,-6.4286e-05,0
1.911,-0.00010793,0
1.9115,-0.00014267,0
1.912,-0.0001697,0
1.9125,-0.00017154,0
1.913,-0.00016432,0
1.9135,-0.0001848,0
1.914,-0.00022223,0
1.9145,-0.0002417,0
1.915,-0.0002318,0
1.9155,-0.00019957,0
1.916,-0.0001425,0
1.9165,-5.7237e-05,0
1.917,4.8508e-05,0
1.9175,0.00016449,0
1.918,0.00025765,0
1.9185,0.00030532,0
1.919,0.00031472,0
1.9195,0.00026705,0
1.92,0.00016332,0
1.9205,3.4745e-05,0
1.921,-7.8386e-05,0
1.9215,-0.00013848,0
1.922,-0.00012706,0
1.9225,-5.2201e-05,0
1.923,5.5558e-05,0
1.9235,0.000166,0
1.924,0.00026419,0
1.9245,0.0003258,0
1.925,0.00031908,0
1.9255,0.00024741,0
1.926,0.00013411,0
1.9265,1.1246e-05,0
1.927,-9.2821e-05,0
1.9275,-0.00016936,0
1.928,-0.00021971,0
1.9285,-0.00025245,0
1.929,-0.00025194,0
1.9295,-0.00022374,0
1.93,-0.00020813,0
1.9305,-0.00019773,0
1.931,-0.00013931,0
1.9315,-3.1388e-05,0
1.932,9.0806e-05,0
1.9325,0.00020041,0
1.933,0.00028115,0
1.9335,0.00030784,0
1.934,0.00028551,0
1.9345,0.00022811,0
1.935,0.00017305,0
1.9355,0.00015123,0
1.936,0.00013277,0
1.9365,9.6513e-05,0
1.937,3.978e-05,0
1.9375,3.357e-07,0
1.938,2.3331e-05,0
1.9385,7.5029e-05,0
1.939,0.00010021,0
1.9395,8.9464e-05,0
1.94,4.0116e-05,0
1.9405,-2.3835e-05,0
1.941,-5.9922e-05,0
1.9415,-6.8482e-05,0
1.942,-8.2918e-05,0
1.9425,-9.2989e-05,0
1.943,-8.8289e-05,0
1.9435,-8.7953e-05,0
1.944,-0.00010306,0
1.9445,-0.00011514,0
1.945,-0.00012622,0
1.9455,-0.00014183,0
1.946,-0.00013931,0
1.9465,-0.00012018,0
1.947,-0.00011246,0
1.9475,-0.00011901,0
1.948,-0.00011363,0
1.9485,-7.805e-05,0
1.949,-1.7624e-05,0
1.9495,3.8102e-05,0
1.95,7.5029e-05,0
1.9505,0.00010188,0
1.951,0.00013008,0
1.9515,0.00014603,0
1.952,0.00012656,0
1.9525,7.335e-05,0
1.953,-1.0071e-06,0
1.9535,-7.6204e-05,0
1.954,-0.00013529,0
1.9545,-0.00016365,0
1.955,-0.00011766,0
1.9555,7.2175e-06,0
1.956,0.00013243,0
1.9565,0.00020092,0
1.957,0.00021199,0
1.9575,0.000165,0
1.958,5.304e-05,0
1.9585,-7.0329e-05,0
1.959,-0.00012975,0
1.9595,-0.0001185,0
1.96,-5.6565e-05,0
1.9605,2.3331e-05,0
1.961,0.00011263,0
1.9615,0.0002271,0
1.962,0.00033016,0
1.9625,0.00036641,0
1.963,0.00033889,0
1.9635,0.00031388,0
1.964,0.0003117,0
1.9645,0.00029306,0
1.965,0.00023751,0
1.9655,0.0001697,0
1.966,0.00011128,0
1.9665,5.623e-05,0
1.967,-5.035e-07,0
1.9675,-6.63e-05,0
1.968,-0.0001462,0
1.9685,-0.00023247,0
1.969,-0.00030112,0
1.9695,-0.00032143,0
1.97,-0.00028048,0
1.9705,-0.00021418,0
1.971,-0.00014737,0
1.9715,-6.949e-05,0
1.972,2.6352e-05,0
1.9725,0.00011044,0
1.973,0.00015425,0
1.9735,0.00014553,0
1.974,6.9322e-05,0
1.9745,-3.8773e-05,0
1.975,-9.987e-05,0
1.9755,-0.00010893,0
1.976,-9.8024e-05,0
1.9765,-6.5965e-05,0
1.977,4.5319e-06,0
1.9775,9.4835e-05,0
1.978,0.00017842,0
1.9785,0.00025647,0
1.979,0.00031304,0
1.9795,0.00033419,0
1.98,0.00030062,0
1.9805,0.00020629,0
1.981,9.8024e-05,0
1.9815,2.1317e-05,0
1.982,-3.1052e-05,0
1.9825,-8.6442e-05,0
1.983,-0.00011246,0
1.9835,-8.9632e-05,0
1.984,-6.244e-05,0
1.9845,-8.9464e-05,0
1.985,-0.00014687,0
1.9855,-0.00015795,0
1.986,-0.00012001,0
1.9865,-7.0161e-05,0
1.987,-2.2995e-05,0
1.9875,1.9638e-05,0
1.988,3.592e-05,0
1.9885,1.7624e-05,0
1.989,4.1962e-06,0
1.9895,1.5778e-05,0
1.99,4.0116e-05,0
1.9905,5.2033e-05,0
1.991,7.2175e-05,0
1.9915,0.00011598,0
1.992,0.0001462,0
1.9925,0.00013193,0
1.993,7.7714e-05,0
1.9935,1.4603e-05,0
1.994,-2.7695e-05,0
1.9945,-4.683e-05,0
1.995,-5.0523e-05,0
1.9955,-5.5558e-05,0
1.996,-7.5029e-05,0
1.9965,-9.4499e-05,0
1.997,-9.2485e-05,0
1.9975,-6.9657e-05,0
1.998,-4.8508e-05,0
1.9985,-4.4144e-05,0
1.999,-5.1865e-05,0
1.9995,-5.9922e-05,0
2,-6.5126e-05,0
2.0005,-6.7979e-05,0
2.001,-6.7308e-05,0
2.0015,-5.4048e-05,0
2.002,-2.3667e-05,0
2.0025,6.0426e-06,0
2.003,2.5345e-05,0
2.0035,3.2563e-05,0
2.004,2.0981e-05,0
2.0045,6.2104e-06,0
2.005,7.8889e-06,0
2.0055,2.9206e-05,0
2.006,4.683e-05,0
2.0065,2.887e-05,0
2.007,-1.2757e-05,0
2.0075,-3.2395e-05,0
2.008,-1.0239e-05,0
2.0085,2.3667e-05,0
2.009,3.9445e-05,0
2.0095,3.8102e-05,0
2.01,3.7934e-05,0
2.0105,4.5319e-05,0
2.011,4.0619e-05,0
2.0115,2.887e-05,0
2.012,2.7695e-05,0
2.0125,2.652e-05,0
2.013,1.2421e-05,0
2.0135,1.6953e-05,0
2.014,5.304e-05,0
2.0145,8.04e-05,0
2.015,5.2369e-05,0
2.0155,-1.9974e-05,0
2.016,-9.9031e-05,0
2.0165,-0.00018296,0
2.017,-0.00022811,0
2.0175,-0.00018195,0
2.018,-8.3757e-05,0
2.0185,1.1917e-05,0
2.019,9.5003e-05,0
2.0195,0.00016332,0
2.02,0.00023616,0
2.0205,0.00033083,0
2.021,0.00044497,0
2.0215,0.0005388,0
2.022,0.00055944,0
2.0225,0.00050942,0
2.023,0.00043523,0
2.0235,0.00036104,0
2.024,0.00027544,0
2.0245,0.00018279,0
2.025,8.1071e-05,0
2.0255,-3.8437e-05,0
2.026,-0.00013915,0
2.0265,-0.00017574,0
2.027,-0.00015845,0
2.0275,-0.00012572,0
2.028,-0.00011464,0
2.0285,-0.0001373,0
2.029,-0.00016835,0
2.0295,-0.00017842,0
2.03,-0.00017037,0
2.0305,-0.00015929,0
2.031,-0.00013042,0
2.0315,-7.956e-05,0
2.032,-3.0716e-05,0
2.0325,2.8534e-06,0
2.033,2.8031e-05,0
2.0335,5.388e-05,0
2.034,6.0594e-05,0
2.0345,4.1123e-05,0
2.035,3.743e-05,0
2.0355,7.8721e-05,0
2.036,0.00014049,0
2.0365,0.00016533,0
2.037,0.00012992,0
2.0375,6.9657e-05,0
2.038,2.8199e-05,0
2.0385,1.7792e-05,0
2.039,1.8463e-06,0
2.0395,-4.9348e-05,0
2.04,-0.00010021,0
2.0405,-0.00012219,0
2.041,-0.00015157,0
2.0415,-0.00022727,0
2.042,-0.00034224,0
2.0425,-0.0004589,0
2.043,-0.00053074,0
2.0435,-0.00052335,0
2.044,-0.00049264,0
2.0445,-0.0004923,0
2.045,-0.00045537,0
2.0455,-0.00030767,0
2.046,-4.5487e-05,0
2.0465,0.00025966,0
2.047,0.00051546,0
2.0475,0.0006766,0
2.048,0.00075113,0
2.0485,0.00075314,0
2.049,0.00070883,0
2.0495,0.00060476,0
2.05,0.0004349,0
2.0505,0.00029122,0
2.051,0.00023146,0
2.0515,0.00020192,0
2.052,0.00016634,0
2.0525,0.00013344,0
2.053,9.8527e-05,0
2.0535,4.1459e-05,0
2.054,-2.9206e-05,0
2.0545,-9.8192e-05,0
2.055,-0.00016214,0
2.0555,-0.00021401,0
2.056,-0.00024053,0
2.0565,-0.0002365,0
2.057,-0.00021535,0
2.0575,-0.00018379,0
2.058,-0.00014855,0
2.0585,-0.00012706,0
2.059,-0.00012605,0
2.0595,-0.00014972,0
2.06,-0.0001702,0
2.0605,-0.00019017,0
2.061,-0.00023801,0
2.0615,-0.00029525,0
2.062,-0.00032294,0
2.0625,-0.00033385,0
2.063,-0.00033133,0
2.0635,-0.00029491,0
2.064,-0.00024254,0
2.0645,-0.00017943,0
2.065,-7.9225e-05,0
2.0655,7.8218e-05,0
2.066,0.00027443,0
2.0665,0.00047434,0
2.067,0.00063027,0
2.0675,0.00069808,0
2.068,0.00069808,0
2.0685,0.0006484,0
2.069,0.0005294,0
2.0695,0.00035366,0
2.07,0.00017607,0
2.0705,7.1e-05,0
2.071,5.9251e-05,0
2.0715,9.5171e-05,0
2.072,0.00013713,0
2.0725,0.00017238,0
2.073,0.00018849,0
2.0735,0.00016147,0
2.074,8.426e-05,0
2.0745,-1.796e-05,0
2.075,-0.00012018,0
2.0755,-0.00019319,0
2.076,-0.00021468,0
2.0765,-0.00021871,0
2.077,-0.00025731,0
2.0775,-0.00032026,0
2.078,-0.00034073,0
2.0785,-0.00028484,0
2.079,-0.00018917,0
2.0795,-9.6849e-05,0
2.08,-2.6688e-05,0
2.0805,3.5248e-05,0
2.081,0.00010088,0
2.0815,0.0001415,0
2.082,0.00012807,0
2.0825,7.5532e-05,0
2.083,1.091e-05,0
2.0835,-3.8941e-05,0
2.084,-6.0594e-05,0
2.0845,-5.8915e-05,0
2.085,-3.9277e-05,0
2.0855,-2.1653e-05,0
2.086,-3.1724e-05,0
2.0865,-5.5558e-05,0
2.087,-6.3615e-05,0
2.0875,-5.4551e-05,0
2.088,-4.2298e-05,0
2.0885,-3.1052e-05,0
2.089,-2.3163e-05,0
2.0895,-2.7359e-05,0
2.09,-2.7024e-05,0
2.0905,-6.714e-06,0
2.091,1.5274e-05,0
2.0915,2.266e-05,0
2.092,2.182e-05,0
2.0925,2.031e-05,0
2.093,1.1246e-05,0
2.0935,-6.714e-07,0
2.094,-6.2104e-06,0
2.0945,-1.6953e-05,0
2.095,-3.1724e-05,0
2.0955,-2.5513e-05,0
2.096,-3.0213e-06,0
2.0965,3.2731e-05,0
2.097,6.9154e-05,0
2.0975,7.3014e-05,0
2.098,3.0213e-06,0
2.0985,-0.00017171,0
2.099,-0.0003696,0
2.0995,-0.00050909,0
2.1,-0.00063195,0
2.1005,-0.0007476,0
2.101,-0.00076909,0
2.1015,-0.00058579,0
2.102,-0.00020293,0
2.1025,0.00024825,0
2.103,0.00063867,0
2.1035,0.00092367,0
2.104,0.0011197,0
2.1045,0.001247,0
2.105,0.0012137,0
2.1055,0.00095926,0
2.106,0.00061752,0
2.1065,0.00036205,0
2.107,0.00023079,0
2.1075,0.00015123,0
2.108,7.7714e-05,0
2.1085,2.7695e-05,0
2.109,2.0478e-05,0
2.1095,4.6662e-05,0
2.11,6.5629e-05,0
2.1105,5.2201e-05,0
2.111,1.4267e-05,0
2.1115,-3.0381e-05,0
2.112,-6.7308e-05,0
2.1125,-9.0806e-05,0
2.113,-9.6345e-05,0
2.1135,-9.1646e-05,0
2.114,-8.9799e-05,0
2.1145,-8.8792e-05,0
2.115,-8.2582e-05,0
2.1155,-7.4693e-05,0
2.116,-6.4958e-05,0
2.1165,-5.8915e-05,0
2.117,-6.3279e-05,0
2.1175,-9.2821e-05,0
2.118,-0.00013931,0
2.1185,-0.00017037,0
2.119,-0.00020125,0
2.1195,-0.00028081,0
2.12,-0.00037615,0
2.1205,-0.00042768,0
2.121,-0.00043574,0
2.1215,-0.00042298,0
2.122,-0.00036574,0
2.1225,-0.00024758,0
2.123,-9.0135e-05,0
2.1235,6.3447e-05,0
2.124,0.00020662,0
2.1245,0.00034862,0
2.125,0.00042416,0
2.1255,0.00032848,0
2.126,9.7185e-05,0
2.1265,-0.00010323,0
2.127,-0.00018883,0
2.1275,-0.00018061,0
2.128,-0.00010961,0
2.1285,1.1749e-06,0
2.129,0.00013646,0
2.1295,0.00027678,0
2.13,0.00039193,0
2.1305,0.0004547,0
2.131,0.0004584,0
2.1315,0.00040267,0
2.132,0.00031673,0
2.1325,0.0002266,0
2.133,0.0001331,0
2.1335,4.5151e-05,0
2.134,-1.561e-05,0
2.1345,-3.743e-05,0
2.135,-3.9277e-05,0
2.1355,-3.8437e-05,0
2.136,-4.2802e-05,0
2.1365,-5.1194e-05,0
2.137,-5.5894e-05,0
2.1375,-5.9251e-05,0
2.138,-6.5629e-05,0
2.1385,-7.0664e-05,0
2.139,-6.8818e-05,0
2.1395,-6.5629e-05,0
2.14,-6.479e-05,0
2.1405,-6.5965e-05,0
2.141,-6.6468e-05,0
2.1415,-6.2104e-05,0
2.142,-5.5222e-05,0
2.1425,-5.0187e-05,0
2.143,-4.5823e-05,0
2.1435,-4.1291e-05,0
2.144,-3.508e-05,0
2.1445,-2.5345e-05,0
2.145,-1.5274e-05,0
2.1455,-8.2246e-06,0
2.146,-6.5461e-06,0
2.1465,-2.0981e-05,0
2.147,-4.1291e-05,0
2.1475,-4.7166e-05,0
2.148,-5.2872e-05,0
2.1485,-7.3518e-05,0
2.149,-0.00010188,0
2.1495,-0.00012337,0
2.15,-0.00014267,0
2.1505,-0.00016365,0
2.151,-0.00016751,0
2.1515,-0.00016735,0
2.152,-0.00019571,0
2.1525,-0.00024825,0
2.153,-0.00028786,0
2.1535,-0.00028115,0
2.154,-0.00021384,0
2.1545,-9.8192e-05,0
2.155,5.623e-05,0
2.1555,0.00025631,0
2.156,0.00046947,0
2.1565,0.00063363,0
2.157,0.00071286,0
2.1575,0.00071084,0
2.158,0.0006249,0
2.1585,0.0004772,0
2.159,0.00035366,0
2.1595,0.00029793,0
2.16,0.00027578,0
2.1605,0.00025161,0
2.161,0.00021065,0
2.1615,0.00015392,0
2.162,9.2149e-05,0
2.1625,3.4073e-05,0
2.163,-1.8967e-05,0
2.1635,-7.6707e-05,0
2.164,-0.00013562,0
2.1645,-0.00016281,0
2.165,-0.00015224,0
2.1655,-0.00013445,0
2.166,-0.0001284,0
2.1665,-0.00012773,0
2.167,-0.00012337,0
2.1675,-0.00011766,0
2.168,-0.00011901,0
2.1685,-0.00013613,0
2.169,-0.00017641,0
2.1695,-0.00020511,0
2.17,-0.00019873,0
2.1705,-0.00017305,0
2.171,-0.00014083,0
2.1715,-9.6849e-05,0
2.172,-3.6423e-05,0
2.1725,3.2563e-05,0
2.173,9.1478e-05,0
2.1735,0.00012454,0
2.174,0.0001227,0
2.1745,0.00010088,0
2.175,7.0664e-05,0
2.1755,3.0716e-05,0
2.176,-1.1749e-06,0
2.1765,-9.5674e-06,0
2.177,-4.5319e-06,0
2.1775,1.0071e-06,0
2.178,5.2033e-06,0
2.1785,7.8889e-06,0
2.179,6.8818e-06,0
2.1795,2.8534e-06,0
2.18,2.182e-06,0
2.1805,4.1962e-06,0
2.181,4.6998e-06,0
2.1815,2.5177e-06,0
2.182,3.1891e-06,0
2.1825,6.5461e-06,0
2.183,8.2246e-06,0
2.1835,6.5461e-06,0
2.184,6.3783e-06,0
2.1845,5.539e-06,0
2.185,3.0213e-06,0
2.1855,1.5106e-06,0
2.186,2.5177e-06,0
2.1865,7.8889e-06,0
2.187,1.2924e-05,0
2.1875,1.7792e-05,0
2.188,2.5009e-05,0
2.1885,3.2059e-05,0
2.189,3.8102e-05,0
2.1895,3.1052e-05,0
2.19,9.2317e-06,0
2.1905,-7.8889e-06,0
2.191,-1.947e-05,0
2.1915,-2.9877e-05,0
2.192,-2.3499e-05,0
2.1925,7.2175e-06,0
2.193,4.9515e-05,0
2.1935,8.0903e-05,0
2.194,9.7185e-05,0
2.1945,0.00010054,0
2.195,8.9632e-05,0
2.1955,5.7069e-05,0
2.196,1.4435e-05,0
2.1965,-2.4674e-05,0
2.197,-5.1865e-05,0
2.1975,-6.3447e-05,0
2.198,-5.3208e-05,0
2.1985,-2.266e-05,0
2.199,1.6281e-05,0
2.1995,5.6565e-05,0
2.2,9.5171e-05,0
2.2005,0.0001279,0
2.201,0.00014301,0
2.2015,0.0001274,0
2.202,9.6513e-05,0
2.2025,7.4189e-05,0
2.203,6.3951e-05,0
2.2035,6.1433e-05,0
2.204,5.8244e-05,0
2.2045,4.0955e-05,0
2.205,2.7695e-05,0
2.2055,3.8437e-05,0
2.206,6.2776e-05,0
2.2065,6.5293e-05,0
2.207,3.4409e-05,0
2.2075,-1.3428e-06,0
2.208,-1.326e-05,0
2.2085,-9.2317e-06,0
2.209,-2.182e-06,0
2.2095,2.3499e-06,0
2.21,-1.6617e-05,0
2.2105,-8.0735e-05,0
2.211,-0.00018027,0
2.2115,-0.0002746,0
2.212,-0.00031572,0
2.2125,-0.00028266,0
2.213,-0.00019001,0
2.2135,-5.4383e-05,0
2.214,0.00010239,0
2.2145,0.00024758,0
2.215,0.00036138,0
2.2155,0.00043188,0
2.216,0.00044799,0
2.2165,0.0004161,0
2.217,0.000355,0
2.2175,0.00027846,0
2.218,0.00020259,0
2.2185,0.00014687,0
2.219,0.00012404,0
2.2195,0.0001185,0
2.22,0.00010977,0
2.2205,8.7785e-05,0
2.221,5.8915e-05,0
2.2215,2.0478e-05,0
2.222,-5.153e-05,0
2.2225,-0.00018245,0
2.223,-0.00031438,0
2.2235,-0.00039579,0
2.224,-0.00044413,0
2.2245,-0.00045101,0
2.225,-0.00037313,0
2.2255,-0.0001989,0
2.226,9.7353e-06,0
2.2265,0.00017339,0
2.227,0.00026738,0
2.2275,0.00033822,0
2.228,0.00042046,0
2.2285,0.00046159,0
2.229,0.00040804,0
2.2295,0.00026923,0
2.23,0.0001039,0
2.2305,-8.2246e-06,0
2.231,-5.6565e-05,0
2.2315,-8.896e-05,0
2.232,-0.00011682,0
2.2325,-0.00013613,0
2.233,-0.00014922,0
2.2335,-0.00014821,0
2.234,-0.00011766,0
2.2345,-5.7237e-05,0
2.235,1.1582e-05,0
2.2355,4.6494e-05,0
2.236,1.5778e-05,0
2.2365,-6.4958e-05,0
2.237,-0.00014804,0
2.2375,-0.00025765,0
2.238,-0.00038706,0
2.2385,-0.00047736,0
2.239,-0.00050523,0
2.2395,-0.00047485,0
2.24,-0.00037212,0
2.2405,-0.00019823,0
2.241,2.0813e-05,0
2.2415,0.00023146,0
2.242,0.00029424,0
2.2425,0.00011481,0
2.243,-0.00023113,0
2.2435,-0.0005304,0
2.244,-0.00063984,0
2.2445,-0.00054467,0
2.245,-0.00031069,0
2.2455,3.1891e-06,0
2.246,0.00037179,0
2.2465,0.00074827,0
2.247,0.001019,0
2.2475,0.0010868,0
2.248,0.0009841,0
2.2485,0.00080215,0
2.249,0.00063363,0
2.2495,0.00050036,0
2.25,0.00035299,0
2.2505,0.00020243,0
2.251,9.0471e-05,0
2.2515,2.9038e-05,0
2.252,6.2104e-06,0
2.2525,-1.3932e-05,0
2.253,-5.5894e-05,0
2.2535,-0.00011431,0
2.254,-0.00016667,0
2.2545,-0.00018497,0
2.255,-0.000166,0
2.2555,-0.00013915,0
2.256,-0.0001368,0
2.2565,-0.00018447,0
2.257,-0.00028064,0
2.2575,-0.00037346,0
2.258,-0.00040871,0
2.2585,-0.00039092,0
2.259,-0.00035668,0
2.2595,-0.00030968,0
2.26,-0.00022928,0
2.2605,-8.7114e-05,0
2.261,0.00011162,0
2.2615,0.00027477,0
2.262,0.00034191,0
2.2625,0.00033654,0
2.263,0.00030935,0
2.2635,0.0002788,0
2.264,0.00022945,0
2.2645,0.00016147,0
2.265,9.2485e-05,0
2.2655,3.7095e-05,0
2.266,-1.4939e-05,0
2.2665,-6.4118e-05,0
2.267,-7.6036e-05,0
2.2675,-7.6707e-05,0
2.268,-0.00013596,0
2.2685,-0.00020847,0
2.269,-0.00021334,0
2.2695,-0.00013445,0
2.27,-1.9638e-05,0
2.2705,7.5029e-05,0
2.271,0.00014083,0
2.2715,0.00018984,0
2.272,0.00019857,0
2.2725,0.0001556,0
2.273,9.5171e-05,0
2.2735,5.7908e-05,0
2.274,4.7166e-05,0
2.2745,4.1795e-05,0
2.275,2.9374e-05,0
2.2755,6.5461e-06,0
2.276,-1.6785e-05,0
2.2765,-3.1052e-05,0
2.277,-3.3234e-05,0
2.2775,-2.7359e-05,0
2.278,-2.2324e-05,0
2.2785,-2.0142e-05,0
2.279,-1.7288e-05,0
2.2795,-1.8296e-05,0
2.28,-2.031e-05,0
2.2805,-1.561e-05,0
2.281,-1.4939e-05,0
2.2815,-1.561e-05,0
2.282,-9.9031e-06,0
2.2825,-3.357e-07,0
2.283,6.5461e-06,0
2.2835,8.3925e-06,0
2.284,7.8889e-06,0
2.2845,6.3783e-06,0
2.285,7.8889e-06,0
2.2855,1.1246e-05,0
2.286,1.326e-05,0
2.2865,1.1917e-05,0
2.287,1.0239e-05,0
2.2875,8.7282e-06,0
2.288,3.357e-06,0
2.2885,-2.5177e-06,0
2.289,-5.035e-07,0
2.2895,5.8747e-06,0
2.29,3.8605e-06,0
2.2905,-5.539e-06,0
2.291,-1.0407e-05,0
2.2915,-1.8463e-06,0
2.292,1.1749e-05,0
2.2925,2.1988e-05,0
2.293,1.6953e-05,0
2.2935,2.182e-06,0
2.294,-8.392e-07,0
2.2945,1.2421e-05,0
2.295,3.7262e-05,0
2.2955,6.8986e-05,0
2.296,8.04e-05,0
2.2965,7.0161e-05,0
2.297,4.9515e-05,0
2.2975,2.5681e-05,0
2.298,6.5461e-06,0
2.2985,-1.6449e-05,0
2.299,-3.6927e-05,0
2.2995,-1.561e-05,0
2.3,4.1123e-05,0
2.3005,9.6849e-05,0
2.301,0.00011347,0
2.3015,5.4048e-05,0
2.302,-9.0135e-05,0
2.3025,-0.00027242,0
2.303,-0.00037565,0
2.3035,-0.00033335,0
2.304,-0.00020427,0
2.3045,-5.0858e-05,0
2.305,0.00012908,0
2.3055,0.00031942,0
2.306,0.00049398,0
2.3065,0.00061852,0
2.307,0.00059939,0
2.3075,0.00042768,0
2.308,0.00019857,0
2.3085,-2.5177e-06,0
2.309,-0.0001514,0
2.3095,-0.00020696,0
2.31,-0.00012673,0
2.3105,6.0929e-05,0
2.311,0.00026218,0
2.3115,0.00036641,0
2.312,0.00031455,0
2.3125,0.00019068,0
2.313,6.6468e-05,0
2.3135,-7.4021e-05,0
2.314,-0.00018984,0
2.3145,-0.00021048,0
2.315,-0.00014737,0
2.3155,-5.5558e-05,0
2.316,4.2634e-05,0
2.3165,0.0001415,0
2.317,0.00024691,0
2.3175,0.00033788,0
2.318,0.00035433,0
2.3185,0.00029592,0
2.319,0.00019554,0
2.3195,9.2485e-05,0
2.32,2.9709e-05,0
2.3205,3.743e-05,0
2.321,9.9535e-05,0
2.3215,0.00019001,0
2.322,0.00028887,0
2.3225,0.00033989,0
2.323,0.00028585,0
2.3235,0.00014452,0
2.324,-2.1653e-05,0
2.3245,-0.00015576,0
2.325,-0.00023415,0
2.3255,-0.00026638,0
2.326,-0.00027645,0
2.3265,-0.00028769,0
2.327,-0.00031371,0
2.3275,-0.00034543,0
2.328,-0.00038119,0
2.3285,-0.00045655,0
2.329,-0.00056213,0
2.3295,-0.00063732,0
2.33,-0.00061903,0
2.3305,-0.0004871,0
2.331,-0.0002986,0
2.3315,-0.00011984,0
2.332,3.3738e-05,0
2.3325,0.00015862,0
2.333,0.0002271,0
2.3335,0.00022844,0
2.334,0.00022072,0
2.3345,0.00025345,0
2.335,0.00029424,0
2.3355,0.00028685,0
2.336,0.00023214,0
2.3365,0.00016197,0
2.337,0.00013143,0
2.3375,0.00017121,0
2.338,0.00025144,0
2.3385,0.00030565,0
2.339,0.00029844,0
2.3395,0.00024892,0
2.34,0.00019504,0
2.3405,0.0001519,0
2.341,0.00010994,0
2.3415,5.5894e-05,0
2.342,-4.5319e-06,0
2.3425,-5.4215e-05,0
2.343,-8.6778e-05,0
2.3435,-0.00011028,0
2.344,-0.0001331,0
2.3445,-0.00015291,0
2.345,-0.00016399,0
2.3455,-0.00016114,0
2.346,-0.00014469,0
2.3465,-0.00012102,0
2.347,-0.00010524,0
2.3475,-0.00011833,0
2.348,-0.00015795,0
2.3485,-0.00020243,0
2.349,-0.00023381,0
2.3495,-0.00025396,0
2.35,-0.0002647,0
2.3505,-0.00024909,0
2.351,-0.00019034,0
2.3515,-9.9535e-05,0
2.352,4.3641e-06,0
2.3525,0.00011011,0
2.353,0.00019269,0
2.3535,0.00018296,0
2.354,8.661e-05,0
2.3545,-2.3667e-05,0
2.355,-8.7617e-05,0
2.3555,-8.51e-05,0
2.356,-3.6759e-05,0
2.3565,2.3499e-05,0
2.357,0.00010591,0
2.3575,0.00022458,0
2.358,0.00033822,0
2.3585,0.00038656,0
2.359,0.00035131,0
2.3595,0.00028383,0
2.36,0.00024472,0
2.3605,0.00021518,0
2.361,0.00016466,0
2.3615,0.00010256,0
2.362,1.9303e-05,0
2.3625,-6.1769e-05,0
2.363,-8.3925e-05,0
2.3635,-4.8508e-05,0
2.364,-9.5674e-06,0
2.3645,3.5248e-06,0
2.365,-1.5442e-05,0
2.3655,-2.5177e-05,0
2.366,-2.1317e-05,0
2.3665,-5.1194e-05,0
2.367,-0.00010692,0
2.3675,-0.00010977,0
2.368,-1.8967e-05,0
2.3685,9.3828e-05,0
2.369,0.00013881,0
2.3695,0.00012807,0
2.37,0.00013529,0
2.3705,0.0001556,0
2.371,0.00012673,0
2.3715,5.4551e-05,0
2.372,8.896e-06,0
2.3725,1.9974e-05,0
2.373,4.683e-05,0
2.3735,6.4622e-05,0
2.374,0.00010423,0
2.3745,0.00018581,0
2.375,0.00028115,0
2.3755,0.00034359,0
2.376,0.00035886,0
2.3765,0.00033117,0
2.377,0.00025731,0
2.3775,0.00015727,0
2.378,7.6204e-05,0
2.3785,2.1317e-05,0
2.379,-1.8967e-05,0
2.3795,-4.3809e-05,0
2.38,-5.6565e-05,0
2.3805,-6.0426e-05,0
2.381,-5.2201e-05,0
2.3815,-4.1459e-05,0
2.382,-4.8005e-05,0
2.3825,-6.5629e-05,0
2.383,-7.805e-05,0
2.3835,-9.1814e-05,0
2.384,-0.00010524,0
2.3845,-0.00011095,0
2.385,-0.00011783,0
2.3855,-0.00012236,0
2.386,-0.00011632,0
2.3865,-0.00011833,0
2.387,-0.00013999,0
2.3875,-0.0001697,0
2.388,-0.00019286,0
2.3885,-0.00020964,0
2.389,-0.00023986,0
2.3895,-0.00027393,0
2.39,-0.00027242,0
2.3905,-0.0002318,0
2.391,-0.00017154,0
2.3915,-9.6178e-05,0
2.392,-2.0981e-05,0
2.3925,4.2802e-05,0
2.393,9.8192e-05,0
2.3935,6.1601e-05,0
2.394,-0.00013092,0
2.3945,-0.00039847,0
2.395,-0.00063195,0
2.3955,-0.00074995,0
2.396,-0.00067576,0
2.3965,-0.00041711,0
2.397,-6.1097e-05,0
2.3975,0.00031539,0
2.398,0.00064605,0
2.3985,0.00088608,0
2.399,0.0010195,0
2.3995,0.0010679,0
2.4,0.001058,0
2.4005,0.00096463,0
2.401,0.00075952,0
2.4015,0.00050103,0
2.402,0.00027376,0
2.4025,0.00013814,0
2.403,8.5771e-05,0
2.4035,5.6565e-05,0
2.404,-4.9348e-05,0
2.4045,-0.0002454,0
2.405,-0.00041006,0
2.4055,-0.00047518,0
2.406,-0.00043523,0
2.4065,-0.00032143,0
2.407,-0.00017977,0
2.4075,-4.4648e-05,0
2.408,9.9702e-05,0
2.4085,0.00026705,0
2.409,0.00041862,0
2.4095,0.00047015,0
2.41,0.00040166,0
2.4105,0.00027057,0
2.411,0.00012857,0
2.4115,1.2421e-05,0
2.412,-5.8579e-05,0
2.4125,-9.6849e-05,0
2.413,-0.00011196,0
2.4135,-0.00011112,0
2.414,-0.00010843,0
2.4145,-0.00011028,0
2.415,-0.00011162,0
2.4155,-0.00010893,0
2.416,-0.00010893,0
2.4165,-0.00012538,0
2.417,-0.00016332,0
2.4175,-0.00020192,0
2.418,-0.00021367,0
2.4185,-0.00019588,0
2.419,-0.0001801,0
2.4195,-0.00018396,0
2.42,-0.00019185,0
2.4205,-0.00018732,0
2.421,-0.0001744,0
2.4215,-0.00017473,0
2.422,-0.00024187,0
2.4225,-0.00037917,0
2.423,-0.0005064,0
2.4235,-0.00056229,0
2.424,-0.00056867,0
2.4245,-0.00050825,0
2.425,-0.00031925,0
2.4255,-8.5603e-06,0
2.426,0.00031539,0
2.4265,0.00055441,0
2.427,0.00067727,0
2.4275,0.00069943,0
2.428,0.0006625,0
2.4285,0.00060308,0
2.429,0.00051916,0
2.4295,0.00038454,0
2.43,0.00022139,0
2.4305,9.3492e-05,0
2.431,3.8437e-05,0
2.4315,3.4577e-05,0
2.432,4.1795e-05,0
2.4325,3.9277e-05,0
2.433,3.0213e-05,0
2.4335,2.3667e-05,0
2.434,1.561e-05,0
2.4345,1.0071e-06,0
2.435,-1.6953e-05,0
2.4355,-3.3738e-05,0
2.436,-3.9445e-05,0
2.4365,-3.5416e-05,0
2.437,-3.6423e-05,0
2.4375,-4.0116e-05,0
2.438,-3.8437e-05,0
2.4385,-3.2395e-05,0
2.439,-2.4002e-05,0
2.4395,-1.3596e-05,0
2.44,2.182e-06,0
2.4405,2.266e-05,0
2.441,3.743e-05,0
2.4415,4.0787e-05,0
2.442,2.6688e-05,0
2.4425,-1.3596e-05,0
2.443,-7.3686e-05,0
2.4435,-0.00014536,0
2.444,-0.00020461,0
2.4445,-0.00023516,0
2.445,-0.00024137,0
2.4455,-0.00024607,0
2.446,-0.00027494,0
2.4465,-0.00031405,0
2.447,-0.00034258,0
2.4475,-0.00033285,0
2.448,-0.00028803,0
2.4485,-0.00020494,0
2.449,-5.623e-05,0
2.4495,9.5171e-05,0
2.45,0.00013881,0
2.4505,0.00013797,0
2.451,0.00020713,0
2.4515,0.00031589,0
2.452,0.00039931,0
2.4525,0.00045907,0
2.453,0.00054501,0
2.4535,0.0006813,0
2.454,0.00081424,0
2.4545,0.00086761,0
2.455,0.00081021,0
2.4555,0.00066586,0
2.456,0.00049734,0
2.4565,0.00033016,0
2.457,0.00017137,0
2.4575,4.9683e-05,0
2.458,-8.9128e-05,0
2.4585,-0.00026453,0
2.459,-0.00043439,0
2.4595,-0.00052873,0
2.46,-0.00050523,0
2.4605,-0.00038907,0
2.461,-0.00023532,0
2.4615,-8.3085e-05,0
2.462,5.4048e-05,0
2.4625,0.00018547,0
2.463,0.00030381,0
2.4635,0.00035399,0
2.464,0.00029827,0
2.4645,0.00017977,0
2.465,7.7378e-05,0
2.4655,1.6449e-05,0
2.466,-2.266e-05,0
2.4665,-5.9754e-05,0
2.467,-9.1478e-05,0
2.4675,-0.00010021,0
2.468,-0.00010239,0
2.4685,-0.0001368,0
2.469,-0.00018799,0
2.4695,-0.00022223,0
2.47,-0.00024154,0
2.4705,-0.00028484,0
2.471,-0.00035937,0
2.4715,-0.0004067,0
2.472,-0.00039327,0
2.4725,-0.00032898,0
2.473,-0.00024623,0
2.4735,-0.00015879,0
2.474,-5.7069e-05,0
2.4745,7.5029e-05,0
2.475,0.0002266,0
2.4755,0.00032982,0
2.476,0.00031002,0
2.4765,0.00019387,0
2.477,5.4383e-05,0
2.4775,-4.5991e-05,0
2.478,-0.00010642,0
2.4785,-0.00019638,0
2.479,-0.00029995,0
2.4795,-0.00035433,0
2.48,-0.00034124,0
2.4805,-0.00027208,0
2.481,-0.00015996,0
2.4815,-1.796e-05,0
2.482,0.00012673,0
2.4825,0.00025026,0
2.483,0.00036373,0
2.4835,0.00045437,0
2.484,0.00047048,0
2.4845,0.00041643,0
2.485,0.00034997,0
2.4855,0.00030196,0
2.486,0.00024993,0
2.4865,0.00018044,0
2.487,0.00010675,0
2.4875,4.9515e-05,0
2.488,1.4099e-05,0
2.4885,-2.8534e-06,0
2.489,-8.896e-06,0
2.4895,0,0
2.49,1.1246e-05,0
2.4905,5.2033e-06,0
2.491,-1.2757e-05,0
2.4915,-2.9374e-05,0
2.492,-3.9109e-05,0
2.4925,-4.5319e-05,0
2.493,-5.8915e-05,0
2.4935,-7.7378e-05,0
2.494,-8.9967e-05,0
2.4945,-9.1646e-05,0
2.495,-8.7114e-05,0
2.4955,-6.865e-05,0
2.496,-3.7262e-05,0
2.4965,-1.3764e-05,0
2.497,-4.6998e-06,0
2.4975,1.1749e-06,0
2.498,1.1749e-05,0
2.4985,1.9638e-05,0
2.499,1.9638e-05,0
2.4995,2.2995e-05,0
2.5,3.4241e-05,0
2.5005,2.9374e-05,0
2.501,-7.2175e-06,0
2.5015,-5.153e-05,0
2.502,-8.3757e-05,0
2.5025,-9.9535e-05,0
2.503,-8.4764e-05,0
2.5035,-5.9587e-05,0
2.504,-8.5771e-05,0
2.5045,-0.00014855,0
2.505,-0.00019655,0
2.5055,-0.00025899,0
2.506,-0.00033301,0
2.5065,-0.00038337,0
2.507,-0.00038471,0
2.5075,-0.00030498,0
2.508,-0.00017053,0
2.5085,-3.4073e-05,0
2.509,9.0974e-05,0
2.5095,0.00020075,0
2.51,0.00030398,0
2.5105,0.00043758,0
2.511,0.0006061,0
2.5115,0.0007659,0
2.512,0.00084764,0
2.5125,0.00080954,0
2.513,0.00067257,0
2.5135,0.00049532,0
2.514,0.00032848,0
2.5145,0.00019957,0
2.515,9.8192e-05,0
2.5155,1.8631e-05,0
2.516,-3.1388e-05,0
2.5165,-6.6468e-05,0
2.517,-0.00010205,0
2.5175,-0.0001326,0
2.518,-0.00015476,0
2.5185,-0.00017221,0
2.519,-0.00018144,0
2.5195,-0.00017356,0
2.52,-0.00015912,0
2.5205,-0.00015627,0
2.521,-0.00015828,0
2.5215,-0.00017003,0
2.522,-0.00021636,0
2.5225,-0.00027729,0
2.523,-0.00033016,0
2.5235,-0.00038068,0
2.524,-0.00040938,0
2.5245,-0.00038672,0
2.525,-0.00029609,0
2.5255,-0.00013747,0
2.526,4.683e-05,0
2.5265,0.00019705,0
2.527,0.00031237,0
2.5275,0.00040536,0
2.528,0.000449,0
2.5285,0.00042264,0
2.529,0.00033956,0
2.5295,0.00024338,0
2.53,0.00018883,0
2.5305,0.00019521,0
2.531,0.00021132,0
2.5315,0.0001425,0
2.532,-7.3854e-06,0
2.5325,-0.00014452,0
2.533,-0.0002182,0
2.5335,-0.00027175,0
2.534,-0.00030851,0
2.5345,-0.00031438,0
2.535,-0.00031438,0
2.5355,-0.0002929,0
2.536,-0.00022441,0
2.5365,-9.836e-05,0
2.537,6.8315e-05,0
2.5375,0.00024758,0
2.538,0.00042768,0
2.5385,0.00059066,0
2.539,0.00068869,0
2.5395,0.00067123,0
2.54,0.00055944,0
2.5405,0.00039025,0
2.541,0.00017624,0
2.5415,-2.0646e-05,0
2.542,-0.00013613,0
2.5425,-0.00016701,0
2.543,-0.00016651,0
2.5435,-0.00018027,0
2.544,-0.00019739,0
2.5445,-0.00018648,0
2.545,-0.00014452,0
2.5455,-9.1142e-05,0
2.546,-7.7211e-05,0
2.5465,-0.00011766,0
2.547,-0.00014133,0
2.5475,-0.00010658,0
2.548,-3.7262e-05,0
2.5485,2.7359e-05,0
2.549,6.5965e-05,0
2.5495,7.57e-05,0
2.55,7.3014e-05,0
2.5505,7.7043e-05,0
2.551,8.7114e-05,0
2.5515,8.896e-05,0
2.552,7.4357e-05,0
2.5525,4.683e-05,0
2.553,1.5946e-05,0
2.5535,-1.2253e-05,0
2.554,-3.6088e-05,0
2.5545,-4.5823e-05,0
2.555,-4.448e-05,0
2.5555,-4.448e-05,0
2.556,-4.448e-05,0
2.5565,-4.1291e-05,0
2.557,-3.8437e-05,0
2.5575,-3.5248e-05,0
2.558,-3.0045e-05,0
2.5585,-2.9206e-05,0
2.559,-3.7766e-05,0
2.5595,-5.2201e-05,0
2.56,-6.7643e-05,0
2.5605,-8.4093e-05,0
2.561,-0.00010088,0
2.5615,-0.00012287,0
2.562,-0.00015442,0
2.5625,-0.00017473,0
2.563,-0.00016365,0
2.5635,-0.00012605,0
2.564,-7.6036e-05,0
2.5645,-2.5009e-05,0
2.565,3.3234e-05,0
2.5655,8.9464e-05,0
2.566,0.000118,0
2.5665,0.00010877,0
2.567,7.8218e-05,0
2.5675,4.1459e-05,0
2.568,9.7353e-06,0
2.5685,-8.392e-07,0
2.569,1.3932e-05,0
2.5695,4.4648e-05,0
2.57,7.4021e-05,0
2.5705,9.2149e-05,0
2.571,9.752e-05,0
2.5715,8.9128e-05,0
2.572,5.623e-05,0
2.5725,-8.7282e-06,0
2.573,-6.3279e-05,0
2.5735,-7.0832e-05,0
2.574,-7.2343e-05,0
2.5745,-0.00010474,0
2.575,-0.00012874,0
2.5755,-0.00012605,0
2.576,-0.00012572,0
2.5765,-0.00010927,0
2.577,-3.4241e-05,0
2.5775,0.00010088,0
2.578,0.00026235,0
2.5785,0.00039109,0
2.579,0.00044799,0
2.5795,0.00044094,0
2.58,0.00039864,0
2.5805,0.0003508,0
2.581,0.00031254,0
2.5815,0.00028702,0
2.582,0.00027041,0
2.5825,0.000237,0
2.583,0.00015862,0
2.5835,5.9922e-05,0
2.584,-7.7211e-06,0
2.5845,-2.3667e-05,0
2.585,-6.714e-06,0
2.5855,9.2317e-06,0
2.586,4.8676e-06,0
2.5865,-5.7069e-06,0
2.587,-1.3932e-05,0
2.5875,-2.3163e-05,0
2.588,-3.2395e-05,0
2.5885,-3.7766e-05,0
2.589,-3.6088e-05,0
2.5895,-3.3066e-05,0
2.59,-3.9109e-05,0
2.5905,-6.1433e-05,0
2.591,-0.00010961,0
2.5915,-0.00017809,0
2.592,-0.00024959,0
2.5925,-0.00031069,0
2.593,-0.00034426,0
2.5935,-0.00032345,0
2.594,-0.00024204,0
2.5945,-0.00013462,0
2.595,-3.6423e-05,0
2.5955,4.8844e-05,0
2.596,0.00013075,0
2.5965,0.0002135,0
2.597,0.00026755,0
2.5975,0.00026604,0
2.598,0.00016298,0
2.5985,-5.5222e-05,0
2.599,-0.00025614,0
2.5995,-0.00034745,0
2.6,-0.00035618,0
2.6005,-0.0003409,0
2.601,-0.00030028,0
2.6015,-0.00021703,0
2.602,-8.8792e-05,0
2.6025,6.5126e-05,0
2.603,0.00020511,0
2.6035,0.00032445,0
2.604,0.00043993,0
2.6045,0.00050002,0
2.605,0.00046746,0
2.6055,0.00039528,0
2.606,0.00032345,0
2.6065,0.00025631,0
2.607,0.00017842,0
2.6075,9.8863e-05,0
2.608,6.009e-05,0
2.6085,7.57e-05,0
2.609,0.00012874,0
2.6095,0.00018346,0
2.61,0.00020092,0
2.6105,0.00017305,0
2.611,0.0001274,0
2.6115,8.1575e-05,0
2.612,3.2731e-05,0
2.6125,-1.4435e-05,0
2.613,-4.8676e-05,0
2.6135,-7.1e-05,0
2.614,-8.5603e-05,0
2.6145,-9.8863e-05,0
2.615,-0.0001086,0
2.6155,-0.00010507,0
2.616,-8.3085e-05,0
2.6165,-5.1698e-05,0
2.617,-4.1123e-05,0
2.6175,-6.5293e-05,0
2.618,-0.00010105,0
2.6185,-0.00011447,0
2.619,-0.00010423,0
2.6195,-8.5435e-05,0
2.62,-5.6062e-05,0
2.6205,-1.6281e-05,0
2.621,-4.1962e-06,0
2.6215,-4.7837e-05,0
2.622,-0.00011498,0
2.6225,-0.00015795,0
2.623,-0.00017574,0
2.6235,-0.00019152,0
2.624,-0.00019873,0
2.6245,-0.00018279,0
2.625,-0.00012505,0
2.6255,-2.417e-05,0
2.626,9.4331e-05,0
2.6265,0.00018296,0
2.627,0.00021099,0
2.6275,0.00017238,0
2.628,8.9128e-05,0
2.6285,2.5177e-06,0
2.629,-6.7811e-05,0
2.6295,-0.00010692,0
2.63,-0.00010558,0
2.6305,-6.865e-05,0
2.631,-1.0071e-06,0
2.6315,8.51e-05,0
2.632,0.00016667,0
2.6325,0.00022744,0
2.633,0.00026101,0
2.6335,0.00027108,0
2.634,0.00023616,0
2.6345,0.00014687,0
2.635,5.0858e-05,0
2.6355,-1.8296e-05,0
2.636,-7.1839e-05,0
2.6365,-0.0001227,0
2.637,-0.00016231,0
2.6375,-0.00017272,0
2.638,-0.00015258,0
2.6385,-0.00011565,0
2.639,-8.1071e-05,0
2.6395,-7.5868e-05,0
2.64,-0.00010961,0
2.6405,-0.00011162,0
2.641,-3.0045e-05,0
2.6415,0.00010021,0
2.642,0.00021669,0
2.6425,0.00029961,0
2.643,0.00032949,0
2.6435,0.00031522,0
2.644,0.00029911,0
2.6445,0.00028249,0
2.645,0.00024019,0
2.6455,0.00019319,0
2.646,0.00016667,0
2.6465,0.00014351,0
2.647,0.00010692,0
2.6475,5.2201e-05,0
2.648,-9.0639e-06,0
2.6485,-5.5894e-05,0
2.649,-7.4357e-05,0
2.6495,-7.8553e-05,0
2.65,-9.8527e-05,0
2.6505,-0.00011833,0
2.651,-0.00011296,0
2.6515,-9.5842e-05,0
2.652,-9.7688e-05,0
2.6525,-0.00010491,0
2.653,-7.9393e-05,0
2.6535,-3.7934e-05,0
2.654,-1.7624e-05,0
2.6545,-7.8889e-06,0
2.655,3.1891e-06,0
2.6555,1.0575e-05,0
2.656,-1.1749e-06,0
2.6565,-3.9445e-05,0
2.657,-7.805e-05,0
2.6575,-0.0001091,0
2.658,-0.00014636,0
2.6585,-0.00021099,0
2.659,-0.00030985,0
2.6595,-0.00042399,0
2.66,-0.00050976,0
2.6605,-0.00051966,0
2.661,-0.00045084,0
2.6615,-0.00032378,0
2.662,-0.00015375,0
2.6625,4.5487e-05,0
2.663,0.00023885,0
2.6635,0.00040603,0
2.664,0.00051916,0
2.6645,0.00056179,0
2.665,0.00056582,0
2.6655,0.00056918,0
2.666,0.00058328,0
2.6665,0.00057858,0
2.667,0.00051546,0
2.6675,0.00040787,0
2.668,0.00028618,0
2.6685,0.00018111,0
2.669,0.00010977,0
2.6695,4.9851e-05,0
2.67,-1.3764e-05,0
2.6705,-7.4021e-05,0
2.671,-0.0001237,0
2.6715,-0.0001509,0
2.672,-0.00014603,0
2.6725,-0.00011061,0
2.673,-6.6636e-05,0
2.6735,-5.7237e-05,0
2.674,-8.3085e-05,0
2.6745,-0.00011733,0
2.675,-0.00013193,0
2.6755,-0.00010944,0
2.676,-5.3544e-05,0
2.6765,7.3854e-06,0
2.677,5.069e-05,0
2.6775,7.6707e-05,0
2.678,8.3085e-05,0
2.6785,7.805e-05,0
2.679,6.0258e-05,0
2.6795,1.4435e-05,0
2.68,-5.7908e-05,0
2.6805,-0.00011901,0
2.681,-0.00020008,0
2.6815,-0.00034191,0
2.682,-0.00046947,0
2.6825,-0.00049851,0
2.683,-0.0004312,0
2.6835,-0.00035517,0
2.684,-0.00029558,0
2.6845,-0.00017675,0
2.685,4.4144e-05,0
2.6855,0.00028316,0
2.686,0.00043355,0
2.6865,0.00047854,0
2.687,0.00046612,0
2.6875,0.00041878,0
2.688,0.00033285,0
2.6885,0.00021971,0
2.689,8.1071e-05,0
2.6895,-3.9612e-05,0
2.69,-7.3182e-05,0
2.6905,-4.5151e-05,0
2.691,-2.0981e-05,0
2.6915,-1.0407e-05,0
2.692,0,0
2.6925,1.0575e-05,0
2.693,2.5345e-05,0
2.6935,3.8437e-05,0
2.694,3.2898e-05,0
2.6945,2.4506e-05,0
2.695,3.1388e-05,0
2.6955,3.2395e-05,0
2.696,2.8031e-05,0
2.6965,4.2466e-05,0
2.697,7.3854e-05,0
2.6975,9.7185e-05,0
2.698,9.7185e-05,0
2.6985,6.4286e-05,0
2.699,1.0407e-05,0
2.6995,-2.8367e-05,0
2.7,-5.1865e-05,0
2.7005,-7.1672e-05,0
2.701,-8.6107e-05,0
2.7015,-0.00010222,0
2.702,-0.00012236,0
2.7025,-0.00012639,0
2.703,-9.9535e-05,0
2.7035,-5.304e-05,0
2.704,-1.678e-07,0
2.7045,5.6901e-05,0
2.705,0.00010457,0
2.7055,0.00013042,0
2.706,0.00014401,0
2.7065,0.00014972,0
2.707,0.00014217,0
2.7075,0.00012018,0
2.708,9.2317e-05,0
2.7085,5.8244e-05,0
2.709,1.3932e-05,0
2.7095,-2.8702e-05,0
2.71,-7.2343e-05,0
2.7105,-0.00010977,0
2.711,-0.00013529,0
2.7115,-0.00016046,0
2.712,-0.00017607,0
2.7125,-0.00019789,0
2.713,-0.00023549,0
2.7135,-0.00024825,0
2.714,-0.00023096,0
2.7145,-0.00019336,0
2.715,-0.00013445,0
2.7155,-4.1459e-05,0
2.716,7.6875e-05,0
2.7165,0.00020394,0
2.717,0.00032042,0
2.7175,0.00039579,0
2.718,0.0004312,0
2.7185,0.00042953,0
2.719,0.00038907,0
2.7195,0.0003211,0
2.72,0.00022358,0
2.7205,0.00011464,0
2.721,2.0981e-05,0
2.7215,-5.623e-05,0
2.722,-0.00011112,0
2.7225,-0.00012555,0
2.723,-9.2485e-05,0
2.7235,-1.3932e-05,0
2.724,9.5842e-05,0
2.7245,0.00019454,0
2.725,0.00023465,0
2.7255,0.00020964,0
2.726,0.0001462,0
2.7265,7.3686e-05,0
2.727,2.6017e-05,0
2.7275,2.0142e-06,0
2.728,-4.3137e-05,0
2.7285,-0.00013008,0
2.729,-0.00021837,0
2.7295,-0.00023348,0
2.73,-0.00014586,0
2.7305,-4.3641e-06,0
2.731,0.00010423,0
2.7315,0.00013915,0
2.732,0.00013411,0
2.7325,0.0001509,0
2.733,0.00019722,0
2.7335,0.00024288,0
2.734,0.00026738,0
2.7345,0.00025077,0
2.735,0.00019051,0
2.7355,0.00013126,0
2.736,9.9702e-05,0
2.7365,9.5003e-05,0
2.737,8.6275e-05,0
2.7375,5.0858e-05,0
2.738,6.2104e-06,0
2.7385,-2.9877e-05,0
2.739,-5.9251e-05,0
2.7395,-9.1478e-05,0
2.74,-0.00013613,0
2.7405,-0.00020377,0
2.741,-0.00028837,0
2.7415,-0.00034073,0
2.742,-0.00034577,0
2.7425,-0.00034224,0
2.743,-0.00032697,0
2.7435,-0.00029088,0
2.744,-0.00025983,0
2.7445,-0.00022676,0
2.745,-0.00015727,0
2.7455,-3.4409e-05,0
2.746,0.00011229,0
2.7465,0.00022307,0
2.747,0.00029793,0
2.7475,0.00037111,0
2.748,0.00042785,0
2.7485,0.00043154,0
2.749,0.0003644,0
2.7495,0.00026571,0
2.75,0.00019722,0
2.7505,0.00016365,0
2.751,0.00013277,0
2.7515,9.2149e-05,0
2.752,5.2201e-05,0
2.7525,1.8967e-05,0
2.753,-1.796e-05,0
2.7535,-4.9012e-05,0
2.754,-5.5222e-05,0
2.7545,-4.3809e-05,0
2.755,-3.8605e-05,0
2.7555,-5.0355e-05,0
2.756,-6.5797e-05,0
2.7565,-7.0497e-05,0
2.757,-6.865e-05,0
2.7575,-6.9993e-05,0
2.758,-7.1336e-05,0
2.7585,-6.4286e-05,0
2.759,-4.2298e-05,0
2.7595,-1.2253e-05,0
2.76,1.0575e-05,0
2.7605,1.6953e-05,0
2.761,1.3932e-05,0
2.7615,9.5674e-06,0
2.762,-1.8296e-05,0
2.7625,-8.661e-05,0
2.763,-0.00016684,0
2.7635,-0.00022895,0
2.764,-0.00025933,0
2.7645,-0.00025429,0
2.765,-0.0002172,0
2.7655,-0.00014569,0
2.766,-3.978e-05,0
2.7665,8.0903e-05,0
2.767,0.00017238,0
2.7675,0.00021334,0
2.768,0.00022072,0
2.7685,0.00022106,0
2.769,0.00022206,0
2.7695,0.00021955,0
2.77,0.00018984,0
2.7705,0.00012975,0
2.771,8.1575e-05,0
2.7715,5.4215e-05,0
2.772,-1.3932e-05,0
2.7725,-0.00011028,0
2.773,-0.00017742,0
2.7735,-0.00021283,0
2.774,-0.00022777,0
2.7745,-0.0002266,0
2.775,-0.00021669,0
2.7755,-0.00017977,0
2.776,-0.0001133,0
2.7765,-6.479e-05,0
2.777,-5.9754e-05,0
2.7775,-6.2608e-05,0
2.778,-1.9638e-05,0
2.7785,5.7404e-05,0
2.779,0.00012874,0
2.7795,0.00019588,0
2.78,0.00026839,0
2.7805,0.00033217,0
2.781,0.00035785,0
2.7815,0.00034762,0
2.782,0.00031405,0
2.7825,0.00026973,0
2.783,0.00023146,0
2.7835,0.00020159,0
2.784,0.00016214,0
2.7845,0.0001185,0
2.785,7.5029e-05,0
2.7855,1.8631e-05,0
2.786,-4.8173e-05,0
2.7865,-9.5842e-05,0
2.787,-0.00011246,0
2.7875,-0.00010658,0
2.788,-9.1478e-05,0
2.7885,-8.9296e-05,0
2.789,-9.5842e-05,0
2.7895,-8.5435e-05,0
2.79,-4.683e-05,0
2.7905,1.7288e-05,0
2.791,8.7953e-05,0
2.7915,0.00013596,0
2.792,0.00014804,0
2.7925,0.00014485,0
2.793,0.00012287,0
2.7935,4.9851e-05,0
2.794,-5.5222e-05,0
2.7945,-0.00014653,0
2.795,-0.00020713,0
2.7955,-0.00024036,0
2.796,-0.00023935,0
2.7965,-0.0001994,0
2.797,-0.00013008,0
2.7975,-4.5487e-05,0
2.798,2.0646e-05,0
2.7985,5.1362e-05,0
2.799,5.3208e-05,0
2.7995,2.1653e-05,0
2.8,-2.5513e-05,0
2.8005,-5.7572e-05,0
2.801,-6.0761e-05,0
2.8015,-4.0955e-05,0
2.802,2.182e-06,0
2.8025,6.2272e-05,0
2.803,0.00010155,0
2.8035,0.00010507,0
2.804,9.9535e-05,0
2.8045,9.6178e-05,0
2.805,9.0471e-05,0
2.8055,0.00010037,0
2.806,0.00013797,0
2.8065,0.00017943,0
2.807,0.00019017,0
2.8075,0.00016584,0
2.808,0.00012102,0
2.8085,7.4189e-05,0
2.809,3.6591e-05,0
2.8095,-5.035e-07,0
2.81,-2.9877e-05,0
2.8105,-3.5752e-05,0
2.811,-2.5681e-05,0
2.8115,-7.3854e-06,0
2.812,2.182e-05,0
2.8125,4.6159e-05,0
2.813,4.7501e-05,0
2.8135,1.0239e-05,0
2.814,-5.6397e-05,0
2.8145,-0.0001086,0
2.815,-0.0001232,0
2.8155,-0.00011145,0
2.816,-8.6442e-05,0
2.8165,-4.3137e-05,0
2.817,1.5778e-05,0
2.8175,7.4525e-05,0
2.818,0.00013646,0
2.8185,0.00019773,0
2.819,0.00022089,0
2.8195,0.00020024,0
2.82,0.00016231,0
2.8205,9.0639e-05,0
2.821,-1.8463e-05,0
2.8215,-0.00012404,0
2.822,-0.00019554,0
2.8225,-0.00021703,0
2.823,-0.00019571,0
2.8235,-0.00014083,0
2.824,-6.9993e-05,0
2.8245,-6.8818e-06,0
2.825,3.1891e-05,0
2.8255,5.9419e-05,0
2.826,8.0903e-05,0
2.8265,5.1865e-05,0
2.827,-2.4842e-05,0
2.8275,-6.0929e-05,0
2.828,-1.6617e-05,0
2.8285,5.1698e-05,0
2.829,9.7185e-05,0
2.8295,0.00013277,0
2.83,0.00018044,0
2.8305,0.000236,0
2.831,0.00026906,0
2.8315,0.00025396,0
2.832,0.00019017,0
2.8325,0.00010793,0
2.833,4.3473e-05,0
2.8335,-1.8463e-06,0
2.834,-3.5752e-05,0
2.8345,-5.6565e-05,0
2.835,-6.3279e-05,0
2.8355,-6.1936e-05,0
2.836,-5.7237e-05,0
2.8365,-5.2872e-05,0
2.837,-4.8844e-05,0
2.8375,-3.508e-05,0
2.838,-1.947e-05,0
2.8385,-2.2995e-05,0
2.839,-4.6159e-05,0
2.8395,-7.8218e-05,0
2.84,-0.00010961,0
2.8405,-0.00012773,0
2.841,-0.00012757,0
2.8415,-0.00011296,0
2.842,-8.275e-05,0
2.8425,-4.5151e-05,0
2.843,-1.4267e-05,0
2.8435,1.4267e-05,0
2.844,5.8915e-05,0
2.8445,0.00010138,0
2.845,0.00010323,0
2.8455,6.4286e-05,0
2.846,3.2059e-05,0
2.8465,3.1724e-05,0
2.847,4.8173e-05,0
2.8475,6.2272e-05,0
2.848,7.5364e-05,0
2.8485,8.9128e-05,0
2.849,8.745e-05,0
2.8495,4.7501e-05,0
2.85,-2.031e-05,0
2.8505,-7.8721e-05,0
2.851,-9.6849e-05,0
2.8515,-6.5461e-05,0
2.852,-1.2757e-05,0
2.8525,3.122e-05,0
2.853,6.5126e-05,0
2.8535,0.00011498,0
2.854,0.00016298,0
2.8545,0.0001472,0
2.855,4.4144e-05,0
2.8555,-7.57e-05,0
2.856,-0.00014452,0
2.8565,-0.00017104,0
2.857,-0.00017775,0
2.8575,-0.00016533,0
2.858,-0.00012102,0
2.8585,-5.6062e-05,0
2.859,-1.2757e-05,0
2.8595,-1.2924e-05,0
2.86,-2.5681e-05,0
2.8605,-1.6617e-05,0
2.861,1.5778e-05,0
2.8615,7.3014e-05,0
2.862,0.00011078,0
2.8625,8.6946e-05,0
2.863,5.9922e-05,0
2.8635,0.00010457,0
2.864,0.00020192,0
2.8645,0.00027846,0
2.865,0.00031673,0
2.8655,0.00034963,0
2.866,0.00038723,0
2.8665,0.00039864,0
2.867,0.00033956,0
2.8675,0.00021468,0
2.868,8.8457e-05,0
2.8685,0,0
2.869,-8.4596e-05,0
2.8695,-0.00017322,0
2.87,-0.00023516,0
2.8705,-0.00025748,0
2.871,-0.0002459,0
2.8715,-0.00021048,0
2.872,-0.00014788,0
2.8725,-7.4525e-05,0
2.873,-1.3932e-05,0
2.8735,2.9709e-05,0
2.874,4.1459e-05,0
2.8745,2.3331e-05,0
2.875,-3.5248e-06,0
2.8755,-2.1317e-05,0
2.876,-2.4338e-05,0
2.8765,6.2104e-06,0
2.877,7.9057e-05,0
2.8775,0.00016869,0
2.878,0.0002219,0
2.8785,0.00020528,0
2.879,0.00012605,0
2.8795,3.0381e-05,0
2.88,-2.9374e-05,0
2.8805,-4.0787e-05,0
2.881,-2.7024e-05,0
2.8815,-1.7624e-05,0
2.882,-1.8631e-05,0
2.8825,5.035e-07,0
2.883,5.7572e-05,0
2.8835,0.00012874,0
2.884,0.00016701,0
2.8845,0.00013394,0
2.885,6.2944e-05,0
2.8855,6.5461e-06,0
2.886,-4.7837e-05,0
2.8865,-0.00010944,0
2.887,-0.00014737,0
2.8875,-0.0001467,0
2.888,-0.00011347,0
2.8885,-6.1936e-05,0
2.889,-1.7121e-05,0
2.8895,2.2492e-05,0
2.89,6.3951e-05,0
2.8905,8.8457e-05,0
2.891,9.3828e-05,0
2.8915,9.8192e-05,0
2.892,9.3828e-05,0
2.8925,5.6565e-05,0
2.893,-8.392e-07,0
2.8935,-3.9109e-05,0
2.894,-4.8508e-05,0
2.8945,-4.6159e-05,0
2.895,-3.0381e-05,0
2.8955,3.5248e-06,0
2.896,4.0619e-05,0
2.8965,6.479e-05,0
2.897,7.6875e-05,0
2.8975,7.6539e-05,0
2.898,5.1362e-05,0
2.8985,2.5177e-06,0
2.899,-5.4383e-05,0
2.8995,-0.00010877,0
2.9,-0.00015459,0
2.9005,-0.00018849,0
2.901,-0.00020696,0
2.9015,-0.0002036,0
2.902,-0.00019588,0
2.9025,-0.00018329,0
2.903,-0.00015526,0
2.9035,-0.00013277,0
2.904,-0.00012169,0
2.9045,-9.4499e-05,0
2.905,-3.1052e-05,0
2.9055,7.0832e-05,0
2.906,0.00019521,0
2.9065,0.00030431,0
2.907,0.00035567,0
2.9075,0.00031673,0
2.908,0.00020629,0
2.9085,9.5171e-05,0
2.909,3.9445e-05,0
2.9095,2.9877e-05,0
2.91,5.388e-05,0
2.9105,0.00011061,0
2.911,0.00019588,0
2.9115,0.00029525,0
2.912,0.00037011,0
2.9125,0.00037246,0
2.913,0.0002939,0
2.9135,0.00016902,0
2.914,4.4816e-05,0
2.9145,-5.388e-05,0
2.915,-0.0001284,0
2.9155,-0.00016902,0
2.916,-0.00016768,0
2.9165,-0.00013797,0
2.917,-8.51e-05,0
2.9175,-1.7624e-05,0
2.918,3.7095e-05,0
2.9185,6.7979e-05,0
2.919,7.7546e-05,0
2.9195,5.0187e-05,0
2.92,-7.5532e-06,0
2.9205,-6.9322e-05,0
2.921,-0.00011363,0
2.9215,-0.0001237,0
2.922,-0.00010222,0
2.9225,-6.1936e-05,0
2.923,-2.0981e-05,0
2.9235,4.8676e-06,0
2.924,1.4267e-05,0
2.9245,5.2033e-06,0
2.925,-2.1653e-05,0
2.9255,-5.1698e-05,0
2.926,-6.0929e-05,0
2.9265,-3.827e-05,0
2.927,4.8676e-06,0
2.9275,5.1194e-05,0
2.928,8.5771e-05,0
2.9285,0.00010692,0
2.929,0.00012052,0
2.9295,0.0001274,0
2.93,0.00012471,0
2.9305,0.00010776,0
2.931,7.3686e-05,0
2.9315,3.9445e-05,0
2.932,1.8631e-05,0
2.9325,7.8889e-06,0
2.933,-5.035e-07,0
2.9335,-7.5532e-06,0
2.934,-1.5946e-05,0
2.9345,-2.5849e-05,0
2.935,-3.0381e-05,0
2.9355,-2.6352e-05,0
2.936,-1.5274e-05,0
2.9365,-7.7211e-06,0
2.937,-5.8747e-06,0
2.9375,-3.8605e-06,0
2.938,-1.6785e-06,0
2.9385,-3.0213e-06,0
2.939,0,0
2.9395,3.8605e-06,0
2.94,1.5106e-06,0
2.9405,-4.6998e-06,0
2.941,-1.3932e-05,0
2.9415,-2.4338e-05,0
2.942,-2.6017e-05,0
2.9425,-2.4338e-05,0
2.943,-2.0142e-05,0
2.9435,-8.896e-06,0
2.944,3.6927e-06,0
2.9445,2.3331e-05,0
2.945,3.978e-05,0
2.9455,3.6088e-05,0
2.946,2.4338e-05,0
2.9465,2.0813e-05,0
2.947,2.3667e-05,0
2.9475,2.1149e-05,0
2.948,8.7282e-06,0
2.9485,-6.714e-06,0
2.949,-2.1653e-05,0
2.9495,-3.9948e-05,0
2.95,-5.0523e-05,0
2.9505,-3.827e-05,0
2.951,-9.0639e-06,0
2.9515,1.6617e-05,0
2.952,2.4002e-05,0
2.9525,1.5442e-05,0
2.953,5.2033e-06,0
2.9535,7.8889e-06,0
2.954,2.7192e-05,0
2.9545,5.1194e-05,0
2.955,6.5461e-05,0
2.9555,7.4861e-05,0
2.956,9.2485e-05,0
2.9565,0.00010642,0
2.957,9.6513e-05,0
2.9575,7.1336e-05,0
2.958,5.4551e-05,0
2.9585,4.4312e-05,0
2.959,3.5248e-05,0
2.9595,1.8296e-05,0
2.96,-1.6449e-05,0
2.9605,-5.1865e-05,0
2.961,-8.4428e-05,0
2.9615,-0.00014066,0
2.962,-0.00022811,0
2.9625,-0.00031035,0
2.963,-0.00034728,0
2.9635,-0.00032512,0
2.964,-0.00025782,0
2.9645,-0.00014318,0
2.965,3.0549e-05,0
2.9655,0.00022911,0
2.966,0.00039445,0
2.9665,0.00049398,0
2.967,0.00051546,0
2.9675,0.00044497,0
2.968,0.00031136,0
2.9685,0.0001754,0
2.969,7.9057e-05,0
2.9695,4.3473e-05,0
2.97,6.4958e-05,0
2.9705,0.00011666,0
2.971,0.00017473,0
2.9715,0.00022928,0
2.972,0.00026419,0
2.9725,0.00025631,0
2.973,0.00019051,0
2.9735,9.7856e-05,0
2.974,3.5584e-05,0
2.9745,1.4939e-05,0
2.975,1.1749e-06,0
2.9755,-2.0813e-05,0
2.976,-3.8773e-05,0
2.9765,-4.6662e-05,0
2.977,-4.918e-05,0
2.9775,-5.6565e-05,0
2.978,-6.9825e-05,0
2.9785,-8.6442e-05,0
2.979,-0.00013042,0
2.9795,-0.00019571,0
2.98,-0.00023566,0
2.9805,-0.0002365,0
2.981,-0.00021434,0
2.9815,-0.0001749,0
2.982,-0.00010977,0
2.9825,-2.8199e-05,0
2.983,5.4551e-05,0
2.9835,0.00013596,0
2.984,0.00019252,0
2.9845,0.00019051,0
2.985,0.00013545,0
2.9855,6.1433e-05,0
2.986,-6.714e-07,0
2.9865,-2.5345e-05,0
2.987,-1.0742e-05,0
2.9875,1.8296e-05,0
2.988,5.2201e-05,0
2.9885,8.4093e-05,0
2.989,8.6275e-05,0
2.9895,3.9948e-05,0
2.99,-4.7837e-05,0
2.9905,-0.00013881,0
2.991,-0.00019001,0
2.9915,-0.00018984,0
2.992,-0.00014418,0
2.9925,-6.0929e-05,0
2.993,4.2802e-05,0
2.9935,0.00014385,0
2.994,0.00020763,0
2.9945,0.00021233,0
2.995,0.00017104,0
2.9955,0.000118,0
2.996,6.63e-05,0
2.9965,2.5681e-05,0
2.997,1.5106e-06,0
2.9975,-1.5274e-05,0
2.998,-3.3066e-05,0
2.9985,-4.5991e-05,0
2.999,-5.0019e-05,0
2.9995,-4.3305e-05,0
3,-2.1149e-05,0
3.0005,6.5461e-06,0
3.001,6.8818e-06,0
3.0015,-1.8967e-05,0
3.002,-3.2395e-05,0
3.0025,-1.9974e-05,0
3.003,1.8463e-06,0
3.0035,2.6017e-05,0
3.004,5.6062e-05,0
3.0045,9.2485e-05,0
3.005,0.00012001,0
3.0055,0.00012337,0
3.006,8.3925e-05,0
3.0065,-1.1749e-06,0
3.007,-8.745e-05,0
3.0075,-0.00013478,0
3.008,-0.00013999,0
3.0085,-0.00011733,0
3.009,-0.00010054,0
3.0095,-9.7353e-05,0
3.01,-7.3014e-05,0
3.0105,-1.9303e-05,0
3.011,3.4913e-05,0
3.0115,6.7979e-05,0
3.012,8.9464e-05,0
3.0125,0.00010658,0
3.013,0.00011313,0
3.0135,0.00010457,0
3.014,9.4499e-05,0
3.0145,8.2414e-05,0
3.015,5.8747e-05,0
3.0155,2.266e-05,0
3.016,-2.5009e-05,0
3.0165,-7.5364e-05,0
3.017,-0.0001034,0
3.0175,-9.366e-05,0
3.018,-5.1362e-05,0
3.0185,3.357e-06,0
3.019,4.4816e-05,0
3.0195,6.6133e-05,0
3.02,7.4693e-05,0
3.0205,8.3757e-05,0
3.021,9.8192e-05,0
3.0215,0.00010726,0
3.022,0.00010591,0
3.0225,9.4331e-05,0
3.023,7.805e-05,0
3.0235,5.6565e-05,0
3.024,2.3667e-05,0
3.0245,-5.8747e-06,0
3.025,-1.9135e-05,0
3.0255,-1.8463e-05,0
3.026,-7.2175e-06,0
3.0265,1.0575e-05,0
3.027,3.0045e-05,0
3.0275,5.7237e-05,0
3.028,8.3085e-05,0
3.0285,8.5435e-05,0
3.029,7.1168e-05,0
3.0295,5.1865e-05,0
3.03,1.9974e-05,0
3.0305,-1.7121e-05,0
3.031,-2.5009e-05,0
3.0315,1.678e-07,0
3.032,2.5681e-05,0
3.0325,3.2059e-05,0
3.033,3.0716e-05,0
3.0335,3.6591e-05,0
3.034,5.7572e-05,0
3.0345,7.7714e-05,0
3.035,6.5461e-05,0
3.0355,1.9974e-05,0
3.036,-3.5248e-05,0
3.0365,-7.1672e-05,0
3.037,-7.805e-05,0
3.0375,-7.2343e-05,0
3.038,-7.0664e-05,0
3.0385,-7.6036e-05,0
3.039,-8.0568e-05,0
3.0395,-7.5029e-05,0
3.04,-6.3951e-05,0
3.0405,-5.3544e-05,0
3.041,-4.2802e-05,0
3.0415,-2.4674e-05,0
3.042,-5.3712e-06,0
3.0425,-1.3092e-05,0
3.043,-4.0787e-05,0
3.0435,-4.0452e-05,0
3.044,6.5461e-06,0
3.0445,6.4286e-05,0
3.045,0.00011028,0
3.0455,0.00015828,0
3.046,0.00021199,0
3.0465,0.00021619,0
3.047,0.00015761,0
3.0475,7.335e-05,0
