0,1.1246e-05,0
0.0005,1.5946e-05,0
0.001,1.9974e-05,0
0.0015,1.8631e-05,0
0.002,1.5106e-05,0
0.0025,1.326e-05,0
0.003,1.326e-05,0
0.0035,1.326e-05,0
0.004,1.4939e-05,0
0.0045,1.5946e-05,0
0.005,1.6617e-05,0
0.0055,1.8463e-05,0
0.006,1.9974e-05,0
0.0065,1.9303e-05,0
0.007,1.796e-05,0
0.0075,1.8296e-05,0
0.008,1.947e-05,0
0.0085,2.2995e-05,0
0.009,2.5345e-05,0
0.0095,2.3835e-05,0
0.01,1.9638e-05,0
0.0105,1.561e-05,0
0.011,1.7288e-05,0
0.0115,1.7624e-05,0
0.012,1.4603e-05,0
0.0125,1.1078e-05,0
0.013,9.2317e-06,0
0.0135,1.0575e-05,0
0.014,1.0575e-05,0
0.0145,9.5674e-06,0
0.015,9.2317e-06,0
0.0155,1.5778e-05,0
0.016,2.0478e-05,0
0.0165,1.796e-05,0
0.017,1.7288e-05,0
0.0175,1.8631e-05,0
0.018,1.7456e-05,0
0.0185,1.6617e-05,0
0.019,1.6449e-05,0
0.0195,1.9303e-05,0
0.02,2.6352e-05,0
0.0205,2.8702e-05,0
0.021,2.4002e-05,0
0.0215,2.266e-05,0
0.022,2.7359e-05,0
0.0225,2.8534e-05,0
0.023,2.3667e-05,0
0.0235,2.0646e-05,0
0.024,2.1317e-05,0
0.0245,2.3667e-05,0
0.025,2.5345e-05,0
0.0255,2.3667e-05,0
0.026,2.2995e-05,0
0.0265,2.3835e-05,0
0.027,2.266e-05,0
0.0275,1.7288e-05,0
0.028,1.0239e-05,0
0.0285,1.1582e-05,0
0.029,1.326e-05,0
0.0295,1.3932e-05,0
0.03,1.8631e-05,0
0.0305,1.8631e-05,0
0.031,1.7624e-05,0
0.0315,2.031e-05,0
0.032,1.4939e-05,0
0.0325,9.3996e-06,0
0.033,1.3932e-05,0
0.0335,2.182e-05,0
0.034,2.7024e-05,0
0.0345,2.8534e-05,0
0.035,2.6017e-05,0
0.0355,1.9974e-05,0
0.036,1.4939e-05,0
0.0365,1.2253e-05,0
0.037,1.1917e-05,0
0.0375,1.4267e-05,0
0.038,1.6617e-05,0
0.0385,1.3932e-05,0
0.039,9.0639e-06,0
0.0395,7.2175e-06,0
0.04,1.091e-05,0
0.0405,1.3428e-05,0
0.041,1.1917e-05,0
0.0415,1.2589e-05,0
0.042,1.1917e-05,0
0.0425,1.1246e-05,0
0.043,1.561e-05,0
0.0435,1.6617e-05,0
0.044,1.326e-05,0
0.0445,1.326e-05,0
0.045,1.2589e-05,0
0.0455,1.1749e-05,0
0.046,1.5106e-05,0
0.0465,1.3932e-05,0
0.047,1.1582e-05,0
0.0475,1.5778e-05,0
0.048,2.5513e-05,0
0.0485,2.9877e-05,0
0.049,2.6688e-05,0
0.0495,2.1988e-05,0
0.05,1.9303e-05,0
0.0505,1.8967e-05,0
0.051,1.8128e-05,0
0.0515,1.6449e-05,0
0.052,1.3596e-05,0
0.0525,1.091e-05,0
0.053,1.2924e-05,0
0.0535,1.4099e-05,0
0.054,1.1749e-05,0
0.0545,1.326e-05,0
0.055,1.2589e-05,0
0.0555,9.9031e-06,0
0.056,1.5946e-05,0
0.0565,1.9974e-05,0
0.057,2.2995e-05,0
0.0575,2.4674e-05,0
0.058,1.9638e-05,0
0.0585,1.7121e-05,0
0.059,2.031e-05,0
0.0595,2.3835e-05,0
0.06,2.6352e-05,0
0.0605,2.8031e-05,0
0.061,2.8367e-05,0
0.0615,2.7359e-05,0
0.062,2.6688e-05,0
0.0625,2.887e-05,0
0.063,3.1052e-05,0
0.0635,3.0381e-05,0
0.064,2.7527e-05,0
0.0645,2.6184e-05,0
0.065,2.5345e-05,0
0.0655,2.0646e-05,0
0.066,1.6281e-05,0
0.0665,1.326e-05,0
0.067,1.0407e-05,0
0.0675,1.3932e-05,0
0.068,2.1317e-05,0
0.0685,2.5009e-05,0
0.069,2.9038e-05,0
0.0695,2.8367e-05,0
0.07,2.4842e-05,0
0.0705,2.2995e-05,0
0.071,2.031e-05,0
0.0715,1.7624e-05,0
0.072,1.8296e-05,0
0.0725,1.9303e-05,0
0.073,2.3835e-05,0
0.0735,2.7359e-05,0
0.074,2.2324e-05,0
0.0745,1.8296e-05,0
0.075,1.9303e-05,0
0.0755,2.1988e-05,0
0.076,2.0813e-05,0
0.0765,1.8296e-05,0
0.077,1.7121e-05,0
0.0775,1.8296e-05,0
0.078,2.0646e-05,0
0.0785,2.031e-05,0
0.079,1.561e-05,0
0.0795,1.0071e-05,0
0.08,5.8747e-06,0
0.0805,7.8889e-06,0
0.081,1.2924e-05,0
0.0815,1.8967e-05,0
0.082,2.5009e-05,0
0.0825,2.1317e-05,0
0.083,1.5106e-05,0
0.0835,1.561e-05,0
0.084,1.561e-05,0
0.0845,1.6449e-05,0
0.085,2.0478e-05,0
0.0855,2.031e-05,0
0.086,1.8296e-05,0
0.0865,1.8631e-05,0
0.087,2.266e-05,0
0.0875,2.3667e-05,0
0.088,2.1317e-05,0
0.0885,2.266e-05,0
0.089,2.6017e-05,0
0.0895,2.6017e-05,0
0.09,2.0142e-05,0
0.0905,1.4603e-05,0
0.091,1.4603e-05,0
0.0915,1.8967e-05,0
0.092,2.3331e-05,0
0.0925,2.7192e-05,0
0.093,2.9206e-05,0
0.0935,3.0381e-05,0
0.094,2.5681e-05,0
0.0945,1.8799e-05,0
0.095,2.0813e-05,0
0.0955,2.266e-05,0
0.096,1.9638e-05,0
0.0965,2.0813e-05,0
0.097,2.5009e-05,0
0.0975,2.7192e-05,0
0.098,2.7024e-05,0
0.0985,2.4674e-05,0
0.099,2.2324e-05,0
0.0995,2.2828e-05,0
0.1,2.3331e-05,0
0.1005,2.1988e-05,0
0.101,2.3331e-05,0
0.1015,2.7695e-05,0
0.102,3.0213e-05,0
0.1025,2.4002e-05,0
0.103,2.0813e-05,0
0.1035,2.1317e-05,0
0.104,2.2324e-05,0
0.1045,2.0478e-05,0
0.105,1.4939e-05,0
0.1055,9.7353e-06,0
0.106,4.5319e-06,0
0.1065,3.0213e-06,0
0.107,3.8605e-06,0
0.1075,3.1891e-06,0
0.108,6.714e-06,0
0.1085,8.3925e-06,0
0.109,1.1246e-05,0
0.1095,1.9638e-05,0
0.11,2.1317e-05,0
0.1105,1.6449e-05,0
0.111,1.5106e-05,0
0.1115,1.7121e-05,0
0.112,1.6449e-05,0
0.1125,1.2924e-05,0
0.113,1.1582e-05,0
0.1135,1.1917e-05,0
0.114,1.2421e-05,0
0.1145,1.561e-05,0
0.115,2.0478e-05,0
0.1155,2.1149e-05,0
0.116,2.1988e-05,0
0.1165,2.4674e-05,0
0.117,2.4002e-05,0
0.1175,1.947e-05,0
0.118,1.6953e-05,0
0.1185,1.4939e-05,0
0.119,1.2589e-05,0
0.1195,1.3932e-05,0
0.12,1.4267e-05,0
0.1205,1.2589e-05,0
0.121,1.5274e-05,0
0.1215,1.8631e-05,0
0.122,2.266e-05,0
0.1225,2.6688e-05,0
0.123,2.6688e-05,0
0.1235,2.4002e-05,0
0.124,2.2995e-05,0
0.1245,2.3331e-05,0
0.125,2.5009e-05,0
0.1255,2.7359e-05,0
0.126,2.6688e-05,0
0.1265,2.6688e-05,0
0.127,2.5345e-05,0
0.1275,2.0478e-05,0
0.128,1.5946e-05,0
0.1285,1.5946e-05,0
0.129,1.8463e-05,0
0.1295,1.8967e-05,0
0.13,1.8296e-05,0
0.1305,1.6617e-05,0
0.131,1.6617e-05,0
0.1315,1.326e-05,0
0.132,8.2246e-06,0
0.1325,9.9031e-06,0
0.133,1.1246e-05,0
0.1335,9.9031e-06,0
0.134,1.2421e-05,0
0.1345,1.5106e-05,0
0.135,1.5946e-05,0
0.1355,1.6617e-05,0
0.136,1.2924e-05,0
0.1365,1.2589e-05,0
0.137,1.6953e-05,0
0.1375,1.8631e-05,0
0.138,1.7288e-05,0
0.1385,1.6617e-05,0
0.139,1.6617e-05,0
0.1395,1.5946e-05,0
0.14,1.6953e-05,0
0.1405,2.031e-05,0
0.141,2.4002e-05,0
0.1415,2.6017e-05,0
0.142,2.2324e-05,0
0.1425,1.8631e-05,0
0.143,1.6953e-05,0
0.1435,1.6953e-05,0
0.144,1.7792e-05,0
0.1445,1.7456e-05,0
0.145,1.7288e-05,0
0.1455,2.0646e-05,0
0.146,1.9974e-05,0
0.1465,1.7624e-05,0
0.147,1.8631e-05,0
0.1475,2.1149e-05,0
0.148,2.3499e-05,0
0.1485,2.3163e-05,0
0.149,1.8967e-05,0
0.1495,1.9303e-05,0
0.15,2.8031e-05,0
0.1505,3.1388e-05,0
0.151,2.7359e-05,0
0.1515,2.5681e-05,0
0.152,2.652e-05,0
0.1525,2.8702e-05,0
0.153,3.2059e-05,0
0.1535,3.5416e-05,0
0.154,3.4577e-05,0
0.1545,3.0716e-05,0
0.155,2.7359e-05,0
0.1555,2.6352e-05,0
0.156,2.266e-05,0
0.1565,1.6785e-05,0
0.157,1.2589e-05,0
0.1575,9.2317e-06,0
0.158,7.0497e-06,0
0.1585,1.1246e-05,0
0.159,1.2757e-05,0
0.1595,1.326e-05,0
0.16,2.1149e-05,0
0.1605,2.5345e-05,0
0.161,2.5009e-05,0
0.1615,2.2995e-05,0
0.162,1.7288e-05,0
0.1625,1.326e-05,0
0.163,1.6449e-05,0
0.1635,2.031e-05,0
0.164,2.1149e-05,0
0.1645,1.9303e-05,0
0.165,2.1988e-05,0
0.1655,2.4338e-05,0
0.166,2.3667e-05,0
0.1665,2.1653e-05,0
0.167,1.9974e-05,0
0.1675,1.9638e-05,0
0.168,1.9974e-05,0
0.1685,1.8967e-05,0
0.169,2.031e-05,0
0.1695,1.9974e-05,0
0.17,2.1149e-05,0
0.1705,1.8296e-05,0
0.171,1.1917e-05,0
0.1715,1.4435e-05,0
0.172,1.8967e-05,0
0.1725,1.6953e-05,0
0.173,1.2253e-05,0
0.1735,7.0497e-06,0
0.174,5.8747e-06,0
0.1745,1.0071e-05,0
0.175,1.2253e-05,0
0.1755,1.5442e-05,0
0.176,2.0478e-05,0
0.1765,2.0478e-05,0
0.177,1.8631e-05,0
0.1775,1.7624e-05,0
0.178,1.4267e-05,0
0.1785,1.2924e-05,0
0.179,1.561e-05,0
0.1795,1.9303e-05,0
0.18,1.9638e-05,0
0.1805,1.7288e-05,0
0.181,1.7288e-05,0
0.1815,1.7288e-05,0
0.182,1.796e-05,0
0.1825,1.9638e-05,0
0.183,2.0981e-05,0
0.1835,2.0981e-05,0
0.184,2.2492e-05,0
0.1845,2.4002e-05,0
0.185,2.0981e-05,0
0.1855,1.9303e-05,0
0.186,2.1149e-05,0
0.1865,2.0142e-05,0
0.187,1.9638e-05,0
0.1875,2.031e-05,0
0.188,1.9974e-05,0
0.1885,1.9638e-05,0
0.189,2.4002e-05,0
0.1895,2.9374e-05,0
0.19,2.8702e-05,0
0.1905,2.4002e-05,0
0.191,2.031e-05,0
0.1915,2.031e-05,0
0.192,2.1317e-05,0
0.1925,2.266e-05,0
0.193,2.4674e-05,0
0.1935,2.5009e-05,0
0.194,2.2492e-05,0
0.1945,2.2828e-05,0
0.195,2.5009e-05,0
0.1955,2.2324e-05,0
0.196,1.6281e-05,0
0.1965,1.0575e-05,0
0.197,7.0497e-06,0
0.1975,9.2317e-06,0
0.198,1.0239e-05,0
0.1985,9.2317e-06,0
0.199,1.3596e-05,0
0.1995,1.7121e-05,0
0.2,1.3764e-05,0
0.2005,1.326e-05,0
0.201,1.326e-05,0
0.2015,1.3596e-05,0
0.202,1.8296e-05,0
0.2025,2.1317e-05,0
0.203,1.9303e-05,0
0.2035,1.8967e-05,0
0.204,2.1317e-05,0
0.2045,1.947e-05,0
0.205,1.7624e-05,0
0.2055,1.796e-05,0
0.206,1.8463e-05,0
0.2065,1.7288e-05,0
0.207,1.7121e-05,0
0.2075,1.8631e-05,0
0.208,1.947e-05,0
0.2085,1.8631e-05,0
0.209,1.7624e-05,0
0.2095,1.5946e-05,0
0.21,1.3092e-05,0
0.2105,1.3932e-05,0
0.211,1.326e-05,0
0.2115,1.0575e-05,0
0.212,1.326e-05,0
0.2125,1.3596e-05,0
0.213,1.3932e-05,0
0.2135,1.9638e-05,0
0.214,2.0813e-05,0
0.2145,2.0813e-05,0
0.215,2.4002e-05,0
0.2155,2.6688e-05,0
0.216,2.5681e-05,0
0.2165,2.3331e-05,0
0.217,2.2492e-05,0
0.2175,2.1149e-05,0
0.218,2.266e-05,0
0.2185,2.7695e-05,0
0.219,3.0549e-05,0
0.2195,2.8367e-05,0
0.22,2.6688e-05,0
0.2205,2.7527e-05,0
0.221,2.9709e-05,0
0.2215,2.7695e-05,0
0.222,2.1317e-05,0
0.2225,1.4939e-05,0
0.223,1.1246e-05,0
0.2235,1.2421e-05,0
0.224,1.1749e-05,0
0.2245,9.0639e-06,0
0.225,1.0407e-05,0
0.2255,1.3932e-05,0
0.226,1.7624e-05,0
0.2265,2.1149e-05,0
0.227,2.0981e-05,0
0.2275,1.8631e-05,0
0.228,1.9303e-05,0
0.2285,2.5009e-05,0
0.229,2.6184e-05,0
0.2295,2.2492e-05,0
0.23,2.1149e-05,0
0.2305,2.182e-05,0
0.231,2.2995e-05,0
0.2315,2.266e-05,0
0.232,2.1653e-05,0
0.2325,1.8631e-05,0
0.233,1.5946e-05,0
0.2335,1.1749e-05,0
0.234,7.5532e-06,0
0.2345,7.5532e-06,0
0.235,9.2317e-06,0
0.2355,8.5603e-06,0
0.236,6.5461e-06,0
0.2365,1.1414e-05,0
0.237,1.4603e-05,0
0.2375,1.3092e-05,0
0.238,1.8967e-05,0
0.2385,2.652e-05,0
0.239,2.6688e-05,0
0.2395,2.8702e-05,0
0.24,2.6688e-05,0
0.2405,2.0646e-05,0
0.241,1.9974e-05,0
0.2415,2.3667e-05,0
0.242,2.652e-05,0
0.2425,2.5513e-05,0
0.243,2.2324e-05,0
0.2435,2.0981e-05,0
0.244,2.1653e-05,0
0.2445,2.4002e-05,0
0.245,2.3331e-05,0
0.2455,1.8296e-05,0
0.246,1.6953e-05,0
0.2465,1.8631e-05,0
0.247,1.7624e-05,0
0.2475,1.6785e-05,0
0.248,2.1317e-05,0
0.2485,2.0981e-05,0
0.249,1.4267e-05,0
0.2495,1.3932e-05,0
0.25,1.4603e-05,0
0.2505,1.326e-05,0
0.251,1.5946e-05,0
0.2515,1.8631e-05,0
0.252,1.947e-05,0
0.2525,2.4506e-05,0
0.253,2.4842e-05,0
0.2535,2.266e-05,0
0.254,2.031e-05,0
0.2545,1.8463e-05,0
0.255,1.7624e-05,0
0.2555,1.8128e-05,0
0.256,1.9974e-05,0
0.2565,1.8967e-05,0
0.257,1.7792e-05,0
0.2575,1.6281e-05,0
0.258,1.4771e-05,0
0.2585,1.6449e-05,0
0.259,1.796e-05,0
0.2595,1.9806e-05,0
0.26,2.2995e-05,0
0.2605,2.3331e-05,0
0.261,2.0981e-05,0
0.2615,1.6953e-05,0
0.262,1.4435e-05,0
0.2625,1.8296e-05,0
0.263,1.8631e-05,0
0.2635,1.8296e-05,0
0.264,2.0981e-05,0
0.2645,1.9974e-05,0
0.265,1.5442e-05,0
0.2655,1.3596e-05,0
0.266,1.1917e-05,0
0.2665,1.3932e-05,0
0.267,2.0646e-05,0
0.2675,2.1988e-05,0
0.268,1.796e-05,0
0.2685,1.796e-05,0
0.269,2.0646e-05,0
0.2695,1.7456e-05,0
0.27,1.6617e-05,0
0.2705,1.8463e-05,0
0.271,2.1653e-05,0
0.2715,2.5009e-05,0
0.272,2.7695e-05,0
0.2725,3.0045e-05,0
0.273,2.6856e-05,0
0.2735,2.2995e-05,0
0.274,2.2156e-05,0
0.2745,2.0981e-05,0
0.275,1.9974e-05,0
0.2755,2.4338e-05,0
0.276,2.6688e-05,0
0.2765,2.7359e-05,0
0.277,2.9374e-05,0
0.2775,2.3499e-05,0
0.278,1.1078e-05,0
0.2785,8.5603e-06,0
0.279,9.5674e-06,0
0.2795,9.5674e-06,0
0.28,1.1414e-05,0
0.2805,1.2421e-05,0
0.281,1.091e-05,0
0.2815,1.0575e-05,0
0.282,1.0575e-05,0
0.2825,1.4603e-05,0
0.283,1.6617e-05,0
0.2835,1.796e-05,0
0.284,2.1988e-05,0
0.2845,2.1317e-05,0
0.285,1.6281e-05,0
0.2855,1.2589e-05,0
0.286,1.3932e-05,0
0.2865,1.5442e-05,0
0.287,1.6953e-05,0
0.2875,1.4603e-05,0
0.288,9.2317e-06,0
0.2885,1.1246e-05,0
0.289,1.2421e-05,0
0.2895,1.1917e-05,0
0.29,1.7288e-05,0
0.2905,2.0646e-05,0
0.291,1.9974e-05,0
0.2915,2.4002e-05,0
0.292,2.3499e-05,0
0.2925,1.8631e-05,0
0.293,1.947e-05,0
0.2935,2.3835e-05,0
0.294,2.5345e-05,0
0.2945,2.4338e-05,0
0.295,2.4002e-05,0
0.2955,2.2995e-05,0
0.296,2.3331e-05,0
0.2965,2.2324e-05,0
0.297,1.9303e-05,0
0.2975,1.796e-05,0
0.298,1.8967e-05,0
0.2985,1.8799e-05,0
0.299,2.0646e-05,0
0.2995,2.0478e-05,0
0.3,1.8296e-05,0
0.3005,1.8296e-05,0
0.301,1.5946e-05,0
0.3015,1.4771e-05,0
0.302,1.326e-05,0
0.3025,1.1917e-05,0
0.303,1.9303e-05,0
0.3035,2.5849e-05,0
0.304,2.7192e-05,0
0.3045,2.5009e-05,0
0.305,2.2492e-05,0
0.3055,2.4506e-05,0
0.306,3.122e-05,0
0.3065,3.6423e-05,0
0.307,3.592e-05,0
0.3075,3.1891e-05,0
0.308,2.7695e-05,0
0.3085,2.4506e-05,0
0.309,2.3331e-05,0
0.3095,2.3835e-05,0
0.31,2.3667e-05,0
0.3105,1.9303e-05,0
0.311,1.326e-05,0
0.3115,1.0575e-05,0
0.312,1.091e-05,0
0.3125,1.1078e-05,0
0.313,1.5946e-05,0
0.3135,1.6785e-05,0
0.314,1.326e-05,0
0.3145,1.7288e-05,0
0.315,1.796e-05,0
0.3155,1.2924e-05,0
0.316,1.4603e-05,0
0.3165,1.9638e-05,0
0.317,2.2492e-05,0
0.3175,2.4002e-05,0
0.318,2.3835e-05,0
0.3185,2.266e-05,0
0.319,2.031e-05,0
0.3195,1.9303e-05,0
0.32,2.031e-05,0
0.3205,2.3331e-05,0
0.321,2.652e-05,0
0.3215,2.3667e-05,0
0.322,1.9303e-05,0
0.3225,1.6617e-05,0
0.323,1.4435e-05,0
0.3235,1.2589e-05,0
0.324,1.326e-05,0
0.3245,1.5946e-05,0
0.325,1.5946e-05,0
0.3255,1.0575e-05,0
0.326,8.2246e-06,0
0.3265,7.5532e-06,0
0.327,5.2033e-06,0
0.3275,7.7211e-06,0
0.328,1.1917e-05,0
0.3285,1.6617e-05,0
0.329,2.1317e-05,0
0.3295,2.3331e-05,0
0.33,2.266e-05,0
0.3305,2.3331e-05,0
0.331,2.0478e-05,0
0.3315,1.8967e-05,0
0.332,2.2324e-05,0
0.3325,2.4002e-05,0
0.333,2.2995e-05,0
0.3335,2.2995e-05,0
0.334,2.4674e-05,0
0.3345,2.5849e-05,0
0.335,2.182e-05,0
0.3355,2.0478e-05,0
0.336,2.1317e-05,0
0.3365,2.2324e-05,0
0.337,2.1988e-05,0
0.3375,2.1653e-05,0
0.338,1.8463e-05,0
0.3385,1.1414e-05,0
0.339,1.1749e-05,0
0.3395,1.5946e-05,0
0.34,1.8967e-05,0
0.3405,2.1988e-05,0
0.341,2.1317e-05,0
0.3415,2.031e-05,0
0.342,2.3331e-05,0
0.3425,2.5009e-05,0
0.343,2.3331e-05,0
0.3435,1.9974e-05,0
0.344,9.5674e-06,0
0.3445,4.1962e-06,0
0.345,9.2317e-06,0
0.3455,1.8631e-05,0
0.346,2.2995e-05,0
0.3465,2.182e-05,0
0.347,2.0646e-05,0
0.3475,1.8967e-05,0
0.348,1.7121e-05,0
0.3485,1.4603e-05,0
0.349,1.2589e-05,0
0.3495,1.5274e-05,0
0.35,2.2324e-05,0
0.3505,2.6688e-05,0
0.351,2.5849e-05,0
0.3515,2.5009e-05,0
0.352,2.7359e-05,0
0.3525,2.6688e-05,0
0.353,2.1317e-05,0
0.3535,2.1317e-05,0
0.354,2.1653e-05,0
0.3545,2.266e-05,0
0.355,2.7695e-05,0
0.3555,2.7192e-05,0
0.356,2.1149e-05,0
0.3565,1.9638e-05,0
0.357,2.3331e-05,0
0.3575,2.5681e-05,0
0.358,2.4506e-05,0
0.3585,2.1317e-05,0
0.359,1.8631e-05,0
0.3595,2.0646e-05,0
0.36,2.266e-05,0
0.3605,2.4674e-05,0
0.361,2.3835e-05,0
0.3615,2.4002e-05,0
0.362,2.4674e-05,0
0.3625,2.5345e-05,0
0.363,2.8367e-05,0
0.3635,2.7695e-05,0
0.364,2.2995e-05,0
0.3645,2.0478e-05,0
0.365,1.6785e-05,0
0.3655,1.1917e-05,0
0.366,9.9031e-06,0
0.3665,1.326e-05,0
0.367,1.4267e-05,0
0.3675,1.4603e-05,0
0.368,1.5946e-05,0
0.3685,1.1749e-05,0
0.369,5.7069e-06,0
0.3695,9.9031e-06,0
0.37,1.7288e-05,0
0.3705,1.9974e-05,0
0.371,1.8296e-05,0
0.3715,1.2924e-05,0
0.372,1.0575e-05,0
0.3725,1.1246e-05,0
0.373,1.1078e-05,0
0.3735,1.2924e-05,0
0.374,1.3764e-05,0
0.3745,1.3932e-05,0
0.375,1.326e-05,0
0.3755,1.3596e-05,0
0.376,1.561e-05,0
0.3765,1.6449e-05,0
0.377,1.9638e-05,0
0.3775,2.3163e-05,0
0.378,2.5009e-05,0
0.3785,2.2995e-05,0
0.379,1.5778e-05,0
0.3795,1.5442e-05,0
0.38,1.9974e-05,0
0.3805,2.0981e-05,0
0.381,2.266e-05,0
0.3815,2.3331e-05,0
0.382,2.1317e-05,0
0.3825,2.182e-05,0
0.383,2.0478e-05,0
0.3835,1.7121e-05,0
0.384,2.031e-05,0
0.3845,2.4338e-05,0
0.385,2.5009e-05,0
0.3855,2.6184e-05,0
0.386,2.6352e-05,0
0.3865,2.266e-05,0
0.387,1.7121e-05,0
0.3875,1.326e-05,0
0.388,1.3764e-05,0
0.3885,1.6281e-05,0
0.389,1.6953e-05,0
0.3895,1.6785e-05,0
0.39,1.8128e-05,0
0.3905,2.1988e-05,0
0.391,2.4002e-05,0
0.3915,2.1317e-05,0
0.392,1.6953e-05,0
0.3925,1.7121e-05,0
0.393,1.7456e-05,0
0.3935,1.2253e-05,0
0.394,9.2317e-06,0
0.3945,7.8889e-06,0
0.395,6.2104e-06,0
0.3955,6.5461e-06,0
0.396,7.8889e-06,0
0.3965,1.1078e-05,0
0.397,1.8296e-05,0
0.3975,2.182e-05,0
0.398,1.9135e-05,0
0.3985,1.4603e-05,0
0.399,1.2589e-05,0
0.3995,1.5778e-05,0
0.4,1.9974e-05,0
0.4005,2.1988e-05,0
0.401,1.9638e-05,0
0.4015,1.8128e-05,0
0.402,1.9806e-05,0
0.4025,2.4674e-05,0
0.403,2.9374e-05,0
0.4035,2.7695e-05,0
0.404,2.4674e-05,0
0.4045,2.031e-05,0
0.405,1.7792e-05,0
0.4055,1.9806e-05,0
0.406,2.182e-05,0
0.4065,2.5177e-05,0
0.407,2.8031e-05,0
0.4075,2.0981e-05,0
0.408,1.4267e-05,0
0.4085,2.031e-05,0
0.409,2.4674e-05,0
0.4095,1.9974e-05,0
0.41,1.8631e-05,0
0.4105,2.3331e-05,0
0.411,2.4842e-05,0
0.4115,2.1988e-05,0
0.412,1.9638e-05,0
0.4125,1.7121e-05,0
0.413,1.3764e-05,0
0.4135,1.2757e-05,0
0.414,1.8967e-05,0
0.4145,2.266e-05,0
0.415,1.7456e-05,0
0.4155,1.1917e-05,0
0.416,1.3596e-05,0
0.4165,1.8296e-05,0
0.417,2.1988e-05,0
0.4175,2.031e-05,0
0.418,1.6449e-05,0
0.4185,1.8967e-05,0
0.419,2.0646e-05,0
0.4195,2.3667e-05,0
0.42,2.4338e-05,0
0.4205,1.8967e-05,0
0.421,1.4603e-05,0
0.4215,1.3932e-05,0
0.422,1.1749e-05,0
0.4225,9.2317e-06,0
0.423,9.2317e-06,0
0.4235,1.1582e-05,0
0.424,1.326e-05,0
0.4245,1.2757e-05,0
0.425,9.9031e-06,0
0.4255,1.1582e-05,0
0.426,1.7624e-05,0
0.4265,2.1317e-05,0
0.427,2.1317e-05,0
0.4275,1.9303e-05,0
0.428,1.7121e-05,0
0.4285,1.796e-05,0
0.429,2.2828e-05,0
0.4295,2.3331e-05,0
0.43,2.031e-05,0
0.4305,1.561e-05,0
0.431,1.4771e-05,0
0.4315,2.2492e-05,0
0.432,2.4506e-05,0
0.4325,1.947e-05,0
0.433,1.8463e-05,0
0.4335,1.9974e-05,0
0.434,1.9135e-05,0
0.4345,2.2995e-05,0
0.435,2.5345e-05,0
0.4355,2.5009e-05,0
0.436,2.5681e-05,0
0.4365,2.7359e-05,0
0.437,2.6017e-05,0
0.4375,2.2995e-05,0
0.438,1.9974e-05,0
0.4385,1.5946e-05,0
0.439,1.4939e-05,0
0.4395,1.7288e-05,0
0.44,1.8799e-05,0
0.4405,1.8631e-05,0
0.441,1.8296e-05,0
0.4415,1.9974e-05,0
0.442,2.2492e-05,0
0.4425,2.1988e-05,0
0.443,1.9974e-05,0
0.4435,1.6281e-05,0
0.444,1.0407e-05,0
0.4445,7.7211e-06,0
0.445,6.2104e-06,0
0.4455,6.2104e-06,0
0.446,8.5603e-06,0
0.4465,9.5674e-06,0
0.447,1.091e-05,0
0.4475,1.6281e-05,0
0.448,1.8631e-05,0
0.4485,1.7288e-05,0
0.449,2.0646e-05,0
0.4495,2.3667e-05,0
0.45,2.266e-05,0
0.4505,2.1988e-05,0
0.451,2.4338e-05,0
0.4515,2.8031e-05,0
0.452,2.8031e-05,0
0.4525,2.6017e-05,0
0.453,2.5345e-05,0
0.4535,2.5177e-05,0
0.454,2.4338e-05,0
0.4545,2.7192e-05,0
0.455,3.3906e-05,0
0.4555,3.743e-05,0
0.456,3.743e-05,0
0.4565,3.3234e-05,0
0.457,2.5009e-05,0
0.4575,2.4002e-05,0
0.458,2.5345e-05,0
0.4585,2.1317e-05,0
0.459,1.796e-05,0
0.4595,1.4435e-05,0
0.46,1.2924e-05,0
0.4605,1.9135e-05,0
0.461,2.182e-05,0
0.4615,2.0142e-05,0
0.462,2.4338e-05,0
0.4625,2.887e-05,0
0.463,2.9374e-05,0
0.4635,2.6688e-05,0
0.464,2.3163e-05,0
0.4645,2.031e-05,0
0.465,2.0981e-05,0
0.4655,2.1988e-05,0
0.466,2.2995e-05,0
0.4665,1.796e-05,0
0.467,1.0239e-05,0
0.4675,6.3783e-06,0
0.468,7.5532e-06,0
0.4685,9.7353e-06,0
0.469,1.1749e-05,0
0.4695,1.2924e-05,0
0.47,9.9031e-06,0
0.4705,1.1749e-05,0
0.471,1.6449e-05,0
0.4715,1.8631e-05,0
0.472,2.1653e-05,0
0.4725,1.9303e-05,0
0.473,1.6785e-05,0
0.4735,1.947e-05,0
0.474,1.8631e-05,0
0.4745,1.6617e-05,0
0.475,1.9135e-05,0
0.4755,2.6017e-05,0
0.476,2.8199e-05,0
0.4765,2.266e-05,0
0.477,1.796e-05,0
0.4775,1.561e-05,0
0.478,1.4939e-05,0
0.4785,1.4939e-05,0
0.479,1.4603e-05,0
0.4795,1.2924e-05,0
0.48,1.2757e-05,0
0.4805,1.4267e-05,0
0.481,1.7288e-05,0
0.4815,1.7792e-05,0
0.482,1.9303e-05,0
0.4825,2.0813e-05,0
0.483,2.0813e-05,0
0.4835,2.1653e-05,0
0.484,2.182e-05,0
0.4845,1.8799e-05,0
0.485,2.0142e-05,0
0.4855,1.8296e-05,0
0.486,1.7624e-05,0
0.4865,2.1317e-05,0
0.487,1.9806e-05,0
0.4875,1.7288e-05,0
0.488,2.031e-05,0
0.4885,2.1653e-05,0
0.489,1.7288e-05,0
0.4895,1.4267e-05,0
0.49,1.6617e-05,0
0.4905,2.1317e-05,0
0.491,2.4002e-05,0
0.4915,2.2156e-05,0
0.492,1.8631e-05,0
0.4925,1.6617e-05,0
0.493,1.6953e-05,0
0.4935,1.8296e-05,0
0.494,1.9974e-05,0
0.4945,1.9303e-05,0
0.495,1.5946e-05,0
0.4955,1.0575e-05,0
0.496,6.5461e-06,0
0.4965,8.7282e-06,0
0.497,1.1246e-05,0
0.4975,9.2317e-06,0
0.498,1.1917e-05,0
0.4985,1.5274e-05,0
0.499,1.4603e-05,0
0.4995,1.8967e-05,0
0.5,2.2492e-05,0
0.5005,2.266e-05,0
0.501,2.0981e-05,0
0.5015,1.7624e-05,0
0.502,1.6449e-05,0
0.5025,1.8128e-05,0
0.503,1.8463e-05,0
0.5035,2.0981e-05,0
0.504,2.4842e-05,0
0.5045,2.6856e-05,0
0.505,2.4338e-05,0
0.5055,1.9638e-05,0
0.506,2.1988e-05,0
0.5065,2.7359e-05,0
0.507,2.9709e-05,0
0.5075,3.0213e-05,0
0.508,2.9709e-05,0
0.5085,2.5849e-05,0
0.509,1.8967e-05,0
0.5095,2.0981e-05,0
0.51,2.3331e-05,0
0.5105,2.1317e-05,0
0.511,2.266e-05,0
0.5115,2.5009e-05,0
0.512,2.4338e-05,0
0.5125,2.5345e-05,0
0.513,2.1149e-05,0
0.5135,1.6953e-05,0
0.514,1.8296e-05,0
0.5145,1.6281e-05,0
0.515,1.3764e-05,0
0.5155,1.4603e-05,0
0.516,1.5946e-05,0
0.5165,1.7792e-05,0
0.517,2.0646e-05,0
0.5175,2.182e-05,0
0.518,2.031e-05,0
0.5185,1.9303e-05,0
0.519,1.7624e-05,0
0.5195,1.7792e-05,0
0.52,1.6785e-05,0
0.5205,1.2253e-05,0
0.521,9.5674e-06,0
0.5215,7.2175e-06,0
0.522,5.8747e-06,0
0.5225,1.0575e-05,0
0.523,1.1414e-05,0
0.5235,9.2317e-06,0
0.524,1.091e-05,0
0.5245,1.1414e-05,0
0.525,1.1582e-05,0
0.5255,1.7288e-05,0
0.526,2.031e-05,0
0.5265,1.8463e-05,0
0.527,1.5274e-05,0
0.5275,1.0575e-05,0
0.528,8.5603e-06,0
0.5285,9.3996e-06,0
0.529,1.0071e-05,0
0.5295,1.326e-05,0
0.53,1.8631e-05,0
0.5305,2.031e-05,0
0.531,1.8128e-05,0
0.5315,2.1149e-05,0
0.532,2.6352e-05,0
0.5325,2.4506e-05,0
0.533,1.9974e-05,0
0.5335,1.6953e-05,0
0.534,1.796e-05,0
0.5345,1.9638e-05,0
0.535,1.8967e-05,0
0.5355,1.9303e-05,0
0.536,1.8631e-05,0
0.5365,1.7792e-05,0
0.537,2.2324e-05,0
0.5375,2.5345e-05,0
0.538,2.5009e-05,0
0.5385,2.5345e-05,0
0.539,2.4674e-05,0
0.5395,2.4338e-05,0
0.54,2.5345e-05,0
0.5405,2.3835e-05,0
0.541,2.0646e-05,0
0.5415,2.0981e-05,0
0.542,2.3331e-05,0
0.5425,2.4842e-05,0
0.543,2.2828e-05,0
0.5435,1.9974e-05,0
0.544,1.7456e-05,0
0.5445,1.5274e-05,0
0.545,1.4603e-05,0
0.5455,1.8296e-05,0
0.546,2.1317e-05,0
0.5465,1.9638e-05,0
0.547,1.796e-05,0
0.5475,1.8296e-05,0
0.548,1.796e-05,0
0.5485,2.3331e-05,0
0.549,2.266e-05,0
0.5495,1.6281e-05,0
0.55,1.6617e-05,0
0.5505,1.8463e-05,0
0.551,1.9974e-05,0
0.5515,2.4506e-05,0
0.552,2.4674e-05,0
0.5525,2.1988e-05,0
0.553,2.4674e-05,0
0.5535,3.0381e-05,0
0.554,3.2059e-05,0
0.5545,3.0716e-05,0
0.555,3.0716e-05,0
0.5555,3.2731e-05,0
0.556,3.122e-05,0
0.5565,2.7359e-05,0
0.557,2.2995e-05,0
0.5575,1.6449e-05,0
0.558,1.1582e-05,0
0.5585,8.7282e-06,0
0.559,9.9031e-06,0
0.5595,1.1582e-05,0
0.56,9.9031e-06,0
0.5605,6.8818e-06,0
0.561,7.8889e-06,0
0.5615,1.3932e-05,0
0.562,1.6449e-05,0
0.5625,1.3764e-05,0
0.563,1.2757e-05,0
0.5635,9.9031e-06,0
0.564,8.0568e-06,0
0.5645,1.561e-05,0
0.565,2.0646e-05,0
0.5655,1.8631e-05,0
0.566,1.796e-05,0
0.5665,2.0981e-05,0
0.567,2.5009e-05,0
0.5675,2.6688e-05,0
0.568,2.8031e-05,0
0.5685,3.0716e-05,0
0.569,3.0716e-05,0
0.5695,2.9038e-05,0
0.57,2.4002e-05,0
0.5705,1.8967e-05,0
0.571,1.7792e-05,0
0.5715,2.2324e-05,0
0.572,2.7863e-05,0
0.5725,2.8534e-05,0
0.573,2.4674e-05,0
0.5735,1.8631e-05,0
0.574,1.326e-05,0
0.5745,1.5274e-05,0
0.575,1.561e-05,0
0.5755,1.2757e-05,0
0.576,1.3932e-05,0
0.5765,1.3596e-05,0
0.577,1.1917e-05,0
0.5775,1.5106e-05,0
0.578,1.7624e-05,0
0.5785,1.9303e-05,0
0.579,2.1317e-05,0
0.5795,2.2156e-05,0
0.58,2.0646e-05,0
0.5805,1.8631e-05,0
0.581,1.8463e-05,0
0.5815,1.7624e-05,0
0.582,1.6953e-05,0
0.5825,1.8967e-05,0
0.583,2.1653e-05,0
0.5835,2.2995e-05,0
0.584,1.8128e-05,0
0.5845,1.2421e-05,0
0.585,1.1749e-05,0
0.5855,1.1246e-05,0
0.586,9.2317e-06,0
0.5865,7.7211e-06,0
0.587,9.9031e-06,0
0.5875,1.561e-05,0
0.588,1.4939e-05,0
0.5885,1.1582e-05,0
0.589,1.5778e-05,0
0.5895,1.5778e-05,0
0.59,1.3932e-05,0
0.5905,2.0981e-05,0
0.591,2.3331e-05,0
0.5915,1.9303e-05,0
0.592,1.9974e-05,0
0.5925,2.3163e-05,0
0.593,2.5345e-05,0
0.5935,2.5513e-05,0
0.594,2.4674e-05,0
0.5945,2.5681e-05,0
0.595,2.8534e-05,0
0.5955,2.8702e-05,0
0.596,2.2828e-05,0
0.5965,1.8296e-05,0
0.597,1.6953e-05,0
0.5975,1.7288e-05,0
0.598,1.9135e-05,0
0.5985,1.7288e-05,0
0.599,1.5274e-05,0
0.5995,1.7288e-05,0
0.6,1.7288e-05,0
0.6005,1.7456e-05,0
0.601,1.561e-05,0
0.6015,1.5946e-05,0
0.602,1.9974e-05,0
0.6025,1.7288e-05,0
0.603,1.3932e-05,0
0.6035,2.031e-05,0
0.604,2.5177e-05,0
0.6045,2.3667e-05,0
0.605,2.1317e-05,0
0.6055,1.9303e-05,0
0.606,2.0646e-05,0
0.6065,2.1988e-05,0
0.607,2.1317e-05,0
0.6075,1.8463e-05,0
0.608,1.3764e-05,0
0.6085,1.4099e-05,0
0.609,1.8296e-05,0
0.6095,1.7288e-05,0
0.61,1.3932e-05,0
0.6105,1.5946e-05,0
0.611,2.266e-05,0
0.6115,2.8031e-05,0
0.612,2.8367e-05,0
0.6125,2.2156e-05,0
0.613,1.4099e-05,0
0.6135,1.4435e-05,0
0.614,1.6617e-05,0
0.6145,1.4939e-05,0
0.615,1.3932e-05,0
0.6155,1.1414e-05,0
0.616,1.1582e-05,0
0.6165,1.8463e-05,0
0.617,1.9806e-05,0
0.6175,1.326e-05,0
0.618,1.3764e-05,0
0.6185,1.6617e-05,0
0.619,1.4603e-05,0
0.6195,1.2757e-05,0
0.62,1.561e-05,0
0.6205,1.7792e-05,0
0.621,1.8296e-05,0
0.6215,2.0981e-05,0
0.622,2.6184e-05,0
0.6225,2.9038e-05,0
0.623,2.9374e-05,0
0.6235,2.8031e-05,0
0.624,2.3331e-05,0
0.6245,1.5946e-05,0
0.625,1.1917e-05,0
0.6255,9.9031e-06,0
0.626,9.2317e-06,0
0.6265,1.4939e-05,0
0.627,1.8296e-05,0
0.6275,1.4603e-05,0
0.628,1.3596e-05,0
0.6285,1.3596e-05,0
0.629,1.5274e-05,0
0.6295,1.796e-05,0
0.63,1.4267e-05,0
0.6305,1.326e-05,0
0.631,2.0646e-05,0
0.6315,2.6688e-05,0
0.632,2.9038e-05,0
0.6325,2.9374e-05,0
0.633,2.9038e-05,0
0.6335,2.5681e-05,0
0.634,2.2995e-05,0
0.6345,2.6688e-05,0
0.635,3.1724e-05,0
0.6355,3.2059e-05,0
0.636,3.0381e-05,0
0.6365,2.7527e-05,0
0.637,2.7359e-05,0
0.6375,2.6017e-05,0
0.638,2.5345e-05,0
0.6385,2.3331e-05,0
0.639,2.0981e-05,0
0.6395,2.1317e-05,0
0.64,2.0478e-05,0
0.6405,1.796e-05,0
0.641,1.8631e-05,0
0.6415,1.561e-05,0
0.642,8.896e-06,0
0.6425,6.8818e-06,0
0.643,7.8889e-06,0
0.6435,9.5674e-06,0
0.644,1.561e-05,0
0.6445,1.9638e-05,0
0.645,2.0813e-05,0
0.6455,1.9974e-05,0
0.646,2.0646e-05,0
0.6465,2.0478e-05,0
0.647,2.0646e-05,0
0.6475,2.4338e-05,0
0.648,2.6352e-05,0
0.6485,2.2492e-05,0
0.649,1.8631e-05,0
0.6495,2.0981e-05,0
0.65,2.4002e-05,0
0.6505,2.1317e-05,0
0.651,1.6449e-05,0
0.6515,1.2924e-05,0
0.652,1.1582e-05,0
0.6525,1.1078e-05,0
0.653,8.5603e-06,0
0.6535,7.0497e-06,0
0.654,1.0239e-05,0
0.6545,1.4267e-05,0
0.655,1.9303e-05,0
0.6555,2.266e-05,0
0.656,2.0646e-05,0
0.6565,1.8631e-05,0
0.657,1.8463e-05,0
0.6575,1.7288e-05,0
0.658,1.9303e-05,0
0.6585,2.266e-05,0
0.659,2.266e-05,0
0.6595,1.9638e-05,0
0.66,1.947e-05,0
0.6605,2.266e-05,0
0.661,2.0646e-05,0
0.6615,1.5946e-05,0
0.662,1.4099e-05,0
0.6625,1.561e-05,0
0.663,1.8631e-05,0
0.6635,1.6953e-05,0
0.664,1.3596e-05,0
0.6645,7.8889e-06,0
0.665,3.1891e-06,0
0.6655,1.0407e-05,0
0.666,1.6953e-05,0
0.6665,1.5274e-05,0
0.667,1.4603e-05,0
0.6675,1.6281e-05,0
0.668,1.6785e-05,0
0.6685,1.8463e-05,0
0.669,1.5778e-05,0
0.6695,1.5946e-05,0
0.67,2.2995e-05,0
0.6705,2.7024e-05,0
0.671,2.5009e-05,0
0.6715,2.3331e-05,0
0.672,2.6184e-05,0
0.6725,3.0381e-05,0
0.673,3.2731e-05,0
0.6735,3.1052e-05,0
0.674,2.8031e-05,0
0.6745,2.5177e-05,0
0.675,2.0981e-05,0
0.6755,1.7792e-05,0
0.676,2.031e-05,0
0.6765,2.3331e-05,0
0.677,2.5345e-05,0
0.6775,2.2492e-05,0
0.678,1.7288e-05,0
0.6785,1.9303e-05,0
0.679,1.947e-05,0
0.6795,1.4771e-05,0
0.68,1.7121e-05,0
0.6805,2.182e-05,0
0.681,2.266e-05,0
0.6815,1.6953e-05,0
0.682,7.2175e-06,0
0.6825,4.5319e-06,0
0.683,1.1917e-05,0
0.6835,2.0478e-05,0
0.684,2.4842e-05,0
0.6845,2.5177e-05,0
0.685,2.2492e-05,0
0.6855,1.8631e-05,0
0.686,1.796e-05,0
0.6865,2.4842e-05,0
0.687,3.2059e-05,0
0.6875,3.2059e-05,0
0.688,2.6688e-05,0
0.6885,2.3331e-05,0
0.689,2.1149e-05,0
0.6895,1.9135e-05,0
0.69,1.9974e-05,0
0.6905,1.796e-05,0
0.691,1.5946e-05,0
0.6915,1.8463e-05,0
0.692,1.6953e-05,0
0.6925,1.3932e-05,0
0.693,1.6617e-05,0
0.6935,1.5946e-05,0
0.694,1.4099e-05,0
0.6945,1.6114e-05,0
0.695,1.6953e-05,0
0.6955,1.7624e-05,0
0.696,2.266e-05,0
0.6965,2.652e-05,0
0.697,2.5681e-05,0
0.6975,2.3667e-05,0
0.698,2.1317e-05,0
0.6985,1.9638e-05,0
0.699,1.8463e-05,0
0.6995,1.9303e-05,0
0.7,1.7792e-05,0
0.7005,1.3932e-05,0
0.701,1.3932e-05,0
0.7015,1.8463e-05,0
0.702,1.8631e-05,0
0.7025,1.2085e-05,0
0.703,9.2317e-06,0
0.7035,8.896e-06,0
0.704,6.2104e-06,0
0.7045,1.091e-05,0
0.705,1.3764e-05,0
0.7055,1.1078e-05,0
0.706,8.896e-06,0
0.7065,5.8747e-06,0
0.707,4.6998e-06,0
0.7075,8.5603e-06,0
0.708,9.5674e-06,0
0.7085,1.0239e-05,0
0.709,1.3932e-05,0
0.7095,1.6953e-05,0
0.71,1.8631e-05,0
0.7105,1.7288e-05,0
0.711,1.6617e-05,0
0.7115,2.182e-05,0
0.712,2.6184e-05,0
0.7125,2.6688e-05,0
0.713,2.6017e-05,0
0.7135,2.3331e-05,0
0.714,2.266e-05,0
0.7145,2.3331e-05,0
0.715,1.9303e-05,0
0.7155,1.4267e-05,0
0.716,1.2421e-05,0
0.7165,1.1917e-05,0
0.717,1.2589e-05,0
0.7175,1.7288e-05,0
0.718,1.8631e-05,0
0.7185,1.9303e-05,0
0.719,2.417e-05,0
0.7195,2.4002e-05,0
0.72,2.0646e-05,0
0.7205,2.5345e-05,0
0.721,2.7192e-05,0
0.7215,2.2324e-05,0
0.722,2.031e-05,0
0.7225,1.8631e-05,0
0.723,1.8296e-05,0
0.7235,1.8296e-05,0
0.724,2.0478e-05,0
0.7245,2.1317e-05,0
0.725,2.266e-05,0
0.7255,2.4338e-05,0
0.726,2.5681e-05,0
0.7265,2.5345e-05,0
0.727,2.266e-05,0
0.7275,2.266e-05,0
0.728,2.6184e-05,0
0.7285,2.7192e-05,0
0.729,2.3163e-05,0
0.7295,1.9638e-05,0
0.73,1.8967e-05,0
0.7305,2.3331e-05,0
0.731,2.1988e-05,0
0.7315,1.8967e-05,0
0.732,2.1149e-05,0
0.7325,1.796e-05,0
0.733,1.1246e-05,0
0.7335,1.2421e-05,0
0.734,1.3932e-05,0
0.7345,1.2253e-05,0
0.735,1.6953e-05,0
0.7355,2.3667e-05,0
0.736,2.5009e-05,0
0.7365,2.2492e-05,0
0.737,2.1149e-05,0
0.7375,2.2324e-05,0
0.738,2.8367e-05,0
0.7385,3.2563e-05,0
0.739,3.0381e-05,0
0.7395,2.6688e-05,0
0.74,2.3499e-05,0
0.7405,2.1317e-05,0
0.741,1.9135e-05,0
0.7415,1.4603e-05,0
0.742,1.2085e-05,0
0.7425,1.4267e-05,0
0.743,1.796e-05,0
0.7435,2.266e-05,0
0.744,2.182e-05,0
0.7445,1.947e-05,0
0.745,2.1317e-05,0
0.7455,2.1653e-05,0
0.746,2.4002e-05,0
0.7465,3.2059e-05,0
0.747,3.3066e-05,0
0.7475,2.6688e-05,0
0.748,2.4842e-05,0
0.7485,3.0045e-05,0
0.749,3.3402e-05,0
0.7495,2.9038e-05,0
0.75,2.2995e-05,0
0.7505,1.9974e-05,0
0.751,1.9974e-05,0
0.7515,2.0981e-05,0
0.752,2.0478e-05,0
0.7525,1.7624e-05,0
0.753,1.6449e-05,0
0.7535,1.5946e-05,0
0.754,1.5274e-05,0
0.7545,1.6953e-05,0
0.755,1.7288e-05,0
0.7555,8.5603e-06,0
0.756,2.5177e-06,0
0.7565,6.5461e-06,0
0.757,8.896e-06,0
0.7575,7.8889e-06,0
0.758,9.7353e-06,0
0.7585,8.5603e-06,0
0.759,6.3783e-06,0
0.7595,9.0639e-06,0
0.76,8.896e-06,0
0.7605,1.1582e-05,0
0.761,1.7121e-05,0
0.7615,1.8967e-05,0
0.762,1.7624e-05,0
0.7625,1.561e-05,0
0.763,1.4939e-05,0
0.7635,1.7288e-05,0
0.764,2.0646e-05,0
0.7645,2.1149e-05,0
0.765,2.1317e-05,0
0.7655,2.4002e-05,0
0.766,2.4506e-05,0
0.7665,2.0981e-05,0
0.767,1.4939e-05,0
0.7675,9.2317e-06,0
0.768,1.1582e-05,0
0.7685,1.5778e-05,0
0.769,1.7288e-05,0
0.7695,2.182e-05,0
0.77,2.266e-05,0
0.7705,2.031e-05,0
0.771,2.0981e-05,0
0.7715,2.1317e-05,0
0.772,2.3667e-05,0
0.7725,2.7695e-05,0
0.773,2.1988e-05,0
0.7735,1.4603e-05,0
0.774,1.2589e-05,0
0.7745,1.3596e-05,0
0.775,1.5106e-05,0
0.7755,1.8631e-05,0
0.776,2.0478e-05,0
0.7765,1.9303e-05,0
0.777,1.7121e-05,0
0.7775,1.6617e-05,0
0.778,2.031e-05,0
0.7785,2.3331e-05,0
0.779,2.5177e-05,0
0.7795,2.6352e-05,0
0.78,2.8367e-05,0
0.7805,2.4674e-05,0
0.781,1.9303e-05,0
0.7815,1.4939e-05,0
0.782,9.9031e-06,0
0.7825,1.2253e-05,0
0.783,1.4939e-05,0
0.7835,1.6953e-05,0
0.784,2.182e-05,0
0.7845,2.5177e-05,0
0.785,2.417e-05,0
0.7855,2.1988e-05,0
0.786,1.5442e-05,0
0.7865,1.091e-05,0
0.787,1.561e-05,0
0.7875,1.8967e-05,0
0.788,1.5946e-05,0
0.7885,1.4267e-05,0
0.789,1.4603e-05,0
0.7895,1.7792e-05,0
0.79,2.0646e-05,0
0.7905,2.1317e-05,0
0.791,1.8631e-05,0
0.7915,1.1917e-05,0
0.792,4.3641e-06,0
0.7925,2.5177e-06,0
0.793,6.0426e-06,0
0.7935,9.9031e-06,0
0.794,1.3764e-05,0
0.7945,1.4939e-05,0
0.795,1.5274e-05,0
0.7955,1.8631e-05,0
0.796,2.1317e-05,0
0.7965,1.9974e-05,0
0.797,2.266e-05,0
0.7975,2.6017e-05,0
0.798,2.6184e-05,0
0.7985,2.5681e-05,0
0.799,2.3163e-05,0
0.7995,2.2828e-05,0
0.8,2.6017e-05,0
0.8005,2.9374e-05,0
0.801,3.0381e-05,0
0.8015,2.9206e-05,0
0.802,2.4002e-05,0
0.8025,1.7121e-05,0
0.803,1.4603e-05,0
0.8035,1.5946e-05,0
0.804,1.8296e-05,0
0.8045,1.7288e-05,0
0.805,1.5778e-05,0
0.8055,1.4267e-05,0
0.806,1.1917e-05,0
0.8065,1.3764e-05,0
0.807,1.6953e-05,0
0.8075,1.7288e-05,0
0.808,1.7288e-05,0
0.8085,2.2492e-05,0
0.809,2.4002e-05,0
0.8095,2.266e-05,0
0.81,2.6017e-05,0
0.8105,2.5681e-05,0
0.811,2.1317e-05,0
0.8115,2.4338e-05,0
0.812,2.8367e-05,0
0.8125,2.3667e-05,0
0.813,1.7624e-05,0
0.8135,1.5106e-05,0
0.814,1.6281e-05,0
0.8145,1.5778e-05,0
0.815,1.4603e-05,0
0.8155,1.5778e-05,0
0.816,2.1317e-05,0
0.8165,2.5681e-05,0
0.817,2.6017e-05,0
0.8175,2.6017e-05,0
0.818,2.5345e-05,0
0.8185,2.3667e-05,0
0.819,2.0981e-05,0
0.8195,1.7624e-05,0
0.82,1.8128e-05,0
0.8205,1.947e-05,0
0.821,1.947e-05,0
0.8215,2.1653e-05,0
0.822,2.4506e-05,0
0.8225,2.4338e-05,0
0.823,2.1988e-05,0
0.8235,1.9974e-05,0
0.824,2.1317e-05,0
0.8245,2.8367e-05,0
0.825,2.7695e-05,0
0.8255,1.9806e-05,0
0.826,1.796e-05,0
0.8265,2.2324e-05,0
0.827,2.5513e-05,0
0.8275,2.4338e-05,0
0.828,2.031e-05,0
0.8285,1.7288e-05,0
0.829,1.8631e-05,0
0.8295,2.3667e-05,0
0.83,2.2828e-05,0
0.8305,1.796e-05,0
0.831,1.6617e-05,0
0.8315,1.6953e-05,0
0.832,1.6953e-05,0
0.8325,1.561e-05,0
0.833,1.3596e-05,0
0.8335,1.561e-05,0
0.834,1.6617e-05,0
0.8345,1.7456e-05,0
0.835,1.5442e-05,0
0.8355,1.2924e-05,0
0.836,1.6281e-05,0
0.8365,1.7624e-05,0
0.837,1.6281e-05,0
0.8375,1.796e-05,0
0.838,1.4939e-05,0
0.8385,1.2253e-05,0
0.839,1.796e-05,0
0.8395,2.417e-05,0
0.84,2.3331e-05,0
0.8405,1.9303e-05,0
0.841,1.7624e-05,0
0.8415,1.6785e-05,0
0.842,1.6953e-05,0
0.8425,1.4939e-05,0
0.843,1.2924e-05,0
0.8435,1.3596e-05,0
0.844,1.6617e-05,0
0.8445,2.0646e-05,0
0.845,2.2324e-05,0
0.8455,1.9638e-05,0
0.846,1.6617e-05,0
0.8465,1.2757e-05,0
0.847,1.4267e-05,0
0.8475,2.3331e-05,0
0.848,2.5345e-05,0
0.8485,1.6617e-05,0
0.849,1.5106e-05,0
0.8495,2.0646e-05,0
0.85,2.5009e-05,0
0.8505,2.8031e-05,0
0.851,2.5009e-05,0
0.8515,2.2156e-05,0
0.852,2.8367e-05,0
0.8525,3.3738e-05,0
0.853,3.0045e-05,0
0.8535,2.2828e-05,0
0.854,1.796e-05,0
0.8545,1.8967e-05,0
0.855,2.266e-05,0
0.8555,2.4674e-05,0
0.856,2.417e-05,0
0.8565,1.9303e-05,0
0.857,1.1582e-05,0
0.8575,1.0742e-05,0
0.858,1.5274e-05,0
0.8585,1.2589e-05,0
0.859,9.2317e-06,0
0.8595,1.1917e-05,0
0.86,1.5778e-05,0
0.8605,1.8967e-05,0
0.861,1.7288e-05,0
0.8615,1.3764e-05,0
0.862,1.5106e-05,0
0.8625,1.2421e-05,0
0.863,6.8818e-06,0
0.8635,8.2246e-06,0
0.864,8.896e-06,0
0.8645,8.2246e-06,0
0.865,1.3932e-05,0
0.8655,2.1317e-05,0
0.866,2.4338e-05,0
0.8665,2.3667e-05,0
0.867,2.4002e-05,0
0.8675,2.3331e-05,0
0.868,2.1317e-05,0
0.8685,1.9974e-05,0
0.869,2.1149e-05,0
0.8695,2.6184e-05,0
0.87,2.9709e-05,0
0.8705,2.5345e-05,0
0.871,2.0981e-05,0
0.8715,2.0478e-05,0
0.872,2.2492e-05,0
0.8725,2.0646e-05,0
0.873,1.5946e-05,0
0.8735,1.7456e-05,0
0.874,1.7624e-05,0
0.8745,1.5778e-05,0
0.875,1.796e-05,0
0.8755,1.7624e-05,0
0.876,1.7288e-05,0
0.8765,2.3331e-05,0
0.877,2.5345e-05,0
0.8775,2.1317e-05,0
0.878,1.8631e-05,0
0.8785,1.7288e-05,0
0.879,2.1317e-05,0
0.8795,2.7192e-05,0
0.88,2.7695e-05,0
0.8805,2.4002e-05,0
0.881,1.9638e-05,0
0.8815,1.7288e-05,0
0.882,1.4099e-05,0
0.8825,1.2085e-05,0
0.883,1.2924e-05,0
0.8835,1.5442e-05,0
0.884,1.5274e-05,0
0.8845,1.4939e-05,0
0.885,1.6785e-05,0
0.8855,1.5442e-05,0
0.886,1.3092e-05,0
0.8865,1.8296e-05,0
0.887,1.9638e-05,0
0.8875,1.2421e-05,0
0.888,9.2317e-06,0
0.8885,7.5532e-06,0
0.889,4.3641e-06,0
0.8895,6.8818e-06,0
0.89,9.0639e-06,0
0.8905,1.2757e-05,0
0.891,1.9135e-05,0
0.8915,2.3499e-05,0
0.892,2.5009e-05,0
0.8925,2.4338e-05,0
0.893,2.3667e-05,0
0.8935,2.7695e-05,0
0.894,2.8031e-05,0
0.8945,2.3163e-05,0
0.895,1.7792e-05,0
0.8955,1.7288e-05,0
0.896,1.8296e-05,0
0.8965,1.7288e-05,0
0.897,1.4435e-05,0
0.8975,1.3596e-05,0
0.898,1.5778e-05,0
0.8985,1.7288e-05,0
0.899,1.4939e-05,0
0.8995,1.3932e-05,0
0.9,1.3932e-05,0
0.9005,1.2589e-05,0
0.901,1.7624e-05,0
0.9015,2.4338e-05,0
0.902,2.7359e-05,0
0.9025,3.0884e-05,0
0.903,2.7192e-05,0
0.9035,1.9303e-05,0
0.904,1.9974e-05,0
0.9045,2.266e-05,0
0.905,1.9638e-05,0
0.9055,1.5946e-05,0
0.906,1.9974e-05,0
0.9065,2.7359e-05,0
0.907,2.8534e-05,0
0.9075,2.3163e-05,0
0.908,1.8631e-05,0
0.9085,1.9135e-05,0
0.909,2.1988e-05,0
0.9095,2.1988e-05,0
0.91,1.8296e-05,0
0.9105,1.4435e-05,0
0.911,1.4939e-05,0
0.9115,1.6449e-05,0
0.912,1.7624e-05,0
0.9125,1.8631e-05,0
0.913,1.7624e-05,0
0.9135,1.7288e-05,0
0.914,2.0646e-05,0
0.9145,1.7792e-05,0
0.915,1.326e-05,0
0.9155,1.5274e-05,0
0.916,1.6617e-05,0
0.9165,1.9974e-05,0
0.917,2.7527e-05,0
0.9175,2.7863e-05,0
0.918,2.1653e-05,0
0.9185,1.561e-05,0
0.919,1.3092e-05,0
0.9195,1.3932e-05,0
0.92,1.7624e-05,0
0.9205,2.0142e-05,0
0.921,1.9974e-05,0
0.9215,2.1317e-05,0
0.922,2.2492e-05,0
0.9225,2.1149e-05,0
0.923,2.1988e-05,0
0.9235,2.7359e-05,0
0.924,3.122e-05,0
0.9245,2.7359e-05,0
0.925,2.031e-05,0
0.9255,2.0813e-05,0
0.926,2.3163e-05,0
0.9265,2.0813e-05,0
0.927,1.796e-05,0
0.9275,1.3596e-05,0
0.928,1.1917e-05,0
0.9285,1.2924e-05,0
0.929,1.1582e-05,0
0.9295,1.3092e-05,0
0.93,1.6953e-05,0
0.9305,1.3596e-05,0
0.931,8.2246e-06,0
0.9315,8.896e-06,0
0.932,1.3428e-05,0
0.9325,1.5778e-05,0
0.933,1.5946e-05,0
0.9335,1.7288e-05,0
0.934,1.9303e-05,0
0.9345,1.9974e-05,0
0.935,1.8967e-05,0
0.9355,1.6953e-05,0
0.936,1.4603e-05,0
0.9365,1.2589e-05,0
0.937,1.2253e-05,0
0.9375,1.1582e-05,0
0.938,7.8889e-06,0
0.9385,9.9031e-06,0
0.939,1.4771e-05,0
0.9395,1.7288e-05,0
0.94,2.2492e-05,0
0.9405,2.6017e-05,0
0.941,2.5849e-05,0
0.9415,2.8031e-05,0
0.942,2.5849e-05,0
0.9425,2.1317e-05,0
0.943,2.4002e-05,0
0.9435,2.8031e-05,0
0.944,2.7863e-05,0
0.9445,2.4002e-05,0
0.945,2.2324e-05,0
0.9455,2.4842e-05,0
0.946,2.7359e-05,0
0.9465,2.5009e-05,0
0.947,2.3499e-05,0
0.9475,2.6017e-05,0
0.948,2.6017e-05,0
0.9485,2.3667e-05,0
0.949,2.1317e-05,0
0.9495,1.9638e-05,0
0.95,1.6281e-05,0
0.9505,1.091e-05,0
0.951,1.0071e-05,0
0.9515,1.7288e-05,0
0.952,2.266e-05,0
0.9525,2.3835e-05,0
0.953,2.3499e-05,0
0.9535,1.7624e-05,0
0.954,1.1414e-05,0
0.9545,1.6449e-05,0
0.955,1.9974e-05,0
0.9555,2.1317e-05,0
0.956,2.6017e-05,0
0.9565,2.7024e-05,0
0.957,2.4002e-05,0
0.9575,2.031e-05,0
0.958,1.9303e-05,0
0.9585,1.8463e-05,0
0.959,1.561e-05,0
0.9595,1.2253e-05,0
0.96,1.0575e-05,0
0.9605,1.0407e-05,0
0.961,9.5674e-06,0
0.9615,1.0239e-05,0
0.962,1.091e-05,0
0.9625,1.1414e-05,0
0.963,1.4099e-05,0
0.9635,1.2253e-05,0
0.964,8.2246e-06,0
0.9645,1.1917e-05,0
0.965,1.6114e-05,0
0.9655,1.7288e-05,0
0.966,2.3835e-05,0
0.9665,2.8367e-05,0
0.967,2.8702e-05,0
0.9675,3.2059e-05,0
0.968,3.2731e-05,0
0.9685,3.0045e-05,0
0.969,3.0045e-05,0
0.9695,3.1052e-05,0
0.97,2.9877e-05,0
0.9705,2.6184e-05,0
0.971,1.9303e-05,0
0.9715,1.4603e-05,0
0.972,1.5274e-05,0
0.9725,2.0142e-05,0
0.973,2.4506e-05,0
0.9735,2.2156e-05,0
0.974,1.7288e-05,0
0.9745,1.5946e-05,0
0.975,1.4603e-05,0
0.9755,9.9031e-06,0
0.976,7.5532e-06,0
0.9765,1.0575e-05,0
0.977,1.1917e-05,0
0.9775,1.5274e-05,0
0.978,1.796e-05,0
0.9785,1.7288e-05,0
0.979,1.6281e-05,0
0.9795,1.5946e-05,0
0.98,1.8463e-05,0
0.9805,2.2995e-05,0
0.981,2.266e-05,0
0.9815,2.0142e-05,0
0.982,2.1317e-05,0
0.9825,2.4002e-05,0
0.983,2.4842e-05,0
0.9835,2.4002e-05,0
0.984,2.1653e-05,0
0.9845,1.796e-05,0
0.985,1.5946e-05,0
0.9855,1.5946e-05,0
0.986,1.7288e-05,0
0.9865,1.8631e-05,0
0.987,2.1317e-05,0
0.9875,2.3835e-05,0
0.988,2.3835e-05,0
0.9885,2.4002e-05,0
0.989,2.5009e-05,0
0.9895,2.2324e-05,0
0.99,1.7792e-05,0
0.9905,1.8631e-05,0
0.991,1.6785e-05,0
0.9915,1.0575e-05,0
0.992,5.539e-06,0
0.9925,2.8534e-06,0
0.993,7.2175e-06,0
0.9935,1.7121e-05,0
0.994,1.8463e-05,0
0.9945,1.2924e-05,0
0.995,1.2589e-05,0
0.9955,1.3932e-05,0
0.996,1.4771e-05,0
0.9965,1.6953e-05,0
0.997,2.1317e-05,0
0.9975,2.4002e-05,0
0.998,2.3163e-05,0
0.9985,1.8631e-05,0
0.999,1.7456e-05,0
0.9995,2.1317e-05,0
1,2.8031e-05,0
1.0005,2.9206e-05,0
1.001,2.1317e-05,0
1.0015,1.8128e-05,0
1.002,2.3499e-05,0
1.0025,2.4674e-05,0
1.003,1.8463e-05,0
1.0035,1.4603e-05,0
1.004,1.4603e-05,0
1.0045,1.4939e-05,0
1.005,1.7624e-05,0
1.0055,1.7121e-05,0
1.006,1.6617e-05,0
1.0065,2.3163e-05,0
1.007,2.4002e-05,0
1.0075,1.6281e-05,0
1.008,1.091e-05,0
1.0085,1.0407e-05,0
1.009,1.4099e-05,0
1.0095,1.7288e-05,0
1.01,1.6953e-05,0
1.0105,1.7288e-05,0
1.011,1.8631e-05,0
1.0115,1.9303e-05,0
1.012,1.9806e-05,0
1.0125,2.2324e-05,0
1.013,2.5177e-05,0
1.0135,2.7527e-05,0
1.014,2.9374e-05,0
1.0145,2.8702e-05,0
1.015,2.5345e-05,0
1.0155,1.7288e-05,0
1.016,1.091e-05,0
1.0165,1.3932e-05,0
1.017,1.326e-05,0
1.0175,7.5532e-06,0
1.018,9.9031e-06,0
1.0185,1.561e-05,0
1.019,2.182e-05,0
1.0195,2.8702e-05,0
1.02,2.6856e-05,0
1.0205,1.7288e-05,0
1.021,1.3932e-05,0
1.0215,1.9638e-05,0
1.022,2.7192e-05,0
1.0225,2.8367e-05,0
1.023,2.5513e-05,0
1.0235,2.4002e-05,0
1.024,2.6017e-05,0
1.0245,2.7695e-05,0
1.025,2.5345e-05,0
1.0255,2.4674e-05,0
1.026,2.6688e-05,0
1.0265,2.7359e-05,0
1.027,2.4674e-05,0
1.0275,2.1988e-05,0
1.028,2.2995e-05,0
1.0285,2.182e-05,0
1.029,1.9974e-05,0
1.0295,2.5681e-05,0
1.03,2.8367e-05,0
1.0305,2.2324e-05,0
1.031,2.1317e-05,0
1.0315,2.2828e-05,0
1.032,2.4842e-05,0
1.0325,2.9709e-05,0
1.033,2.8031e-05,0
1.0335,2.3835e-05,0
1.034,2.3163e-05,0
1.0345,2.266e-05,0
1.035,2.0981e-05,0
1.0355,1.9135e-05,0
1.036,1.9135e-05,0
1.0365,1.6953e-05,0
1.037,1.2421e-05,0
1.0375,1.1749e-05,0
1.038,1.4099e-05,0
1.0385,1.5946e-05,0
1.039,1.5946e-05,0
1.0395,1.4435e-05,0
1.04,1.1414e-05,0
1.0405,5.8747e-06,0
1.041,6.5461e-06,0
1.0415,9.0639e-06,0
1.042,4.8676e-06,0
1.0425,4.6998e-06,0
1.043,4.1962e-06,0
1.0435,-1.678e-07,0
1.044,2.3499e-06,0
1.0445,6.5461e-06,0
1.045,9.2317e-06,0
1.0455,1.2924e-05,0
1.046,1.5442e-05,0
1.0465,1.7624e-05,0
1.047,2.266e-05,0
1.0475,2.652e-05,0
1.048,2.5849e-05,0
1.0485,2.6688e-05,0
1.049,2.8534e-05,0
1.0495,2.7695e-05,0
1.05,2.3163e-05,0
1.0505,1.8631e-05,0
1.051,1.8631e-05,0
1.0515,2.1988e-05,0
1.052,2.4674e-05,0
1.0525,2.7695e-05,0
1.053,2.9038e-05,0
1.0535,2.5345e-05,0
1.054,2.031e-05,0
1.0545,1.5946e-05,0
1.055,1.4939e-05,0
1.0555,1.8631e-05,0
1.056,1.5442e-05,0
1.0565,1.1749e-05,0
1.057,1.9806e-05,0
1.0575,2.5345e-05,0
1.058,2.3331e-05,0
1.0585,2.2324e-05,0
1.059,2.1988e-05,0
1.0595,2.3499e-05,0
1.06,2.5009e-05,0
1.0605,2.1317e-05,0
1.061,1.796e-05,0
1.0615,1.5946e-05,0
1.062,1.326e-05,0
1.0625,1.2253e-05,0
1.063,1.4939e-05,0
1.0635,1.6953e-05,0
1.064,1.5946e-05,0
1.0645,1.6449e-05,0
1.065,1.9303e-05,0
1.0655,2.1149e-05,0
1.066,1.561e-05,0
1.0665,9.9031e-06,0
1.067,9.5674e-06,0
1.0675,7.7211e-06,0
1.068,3.5248e-06,0
1.0685,4.3641e-06,0
1.069,4.3641e-06,0
1.0695,7.7211e-06,0
1.07,1.4435e-05,0
1.0705,1.4939e-05,0
1.071,1.326e-05,0
1.0715,1.8128e-05,0
1.072,2.0981e-05,0
1.0725,2.1149e-05,0
1.073,2.2995e-05,0
1.0735,2.3667e-05,0
1.074,2.4674e-05,0
1.0745,2.8702e-05,0
1.075,2.887e-05,0
1.0755,2.3331e-05,0
1.076,2.031e-05,0
1.0765,1.9974e-05,0
1.077,1.9974e-05,0
1.0775,2.2324e-05,0
1.078,2.0646e-05,0
1.0785,1.7624e-05,0
1.079,1.9974e-05,0
1.0795,2.1988e-05,0
1.08,2.1317e-05,0
1.0805,2.0813e-05,0
1.081,2.0981e-05,0
1.0815,2.652e-05,0
1.082,2.7695e-05,0
1.0825,2.3331e-05,0
1.083,2.3163e-05,0
1.0835,2.5345e-05,0
1.084,2.6688e-05,0
1.0845,2.9877e-05,0
1.085,2.6352e-05,0
1.0855,1.8463e-05,0
1.086,1.8967e-05,0
1.0865,2.3331e-05,0
1.087,2.2324e-05,0
1.0875,1.9638e-05,0
1.088,1.9638e-05,0
1.0885,2.0478e-05,0
1.089,2.1317e-05,0
1.0895,2.1988e-05,0
1.09,1.7288e-05,0
1.0905,1.6281e-05,0
1.091,1.9638e-05,0
1.0915,2.0142e-05,0
1.092,1.947e-05,0
1.0925,1.5946e-05,0
1.093,1.2253e-05,0
1.0935,6.714e-06,0
1.094,4.8676e-06,0
1.0945,1.2421e-05,0
1.095,1.796e-05,0
1.0955,1.4603e-05,0
1.096,1.326e-05,0
1.0965,1.3932e-05,0
1.097,1.2757e-05,0
1.0975,1.326e-05,0
1.098,1.5274e-05,0
1.0985,1.7456e-05,0
1.099,2.0142e-05,0
1.0995,2.1317e-05,0
1.1,2.3499e-05,0
1.1005,2.8031e-05,0
1.101,2.8702e-05,0
1.1015,2.7863e-05,0
1.102,2.5009e-05,0
1.1025,2.1317e-05,0
1.103,2.1317e-05,0
1.1035,2.4338e-05,0
1.104,2.3499e-05,0
1.1045,2.031e-05,0
1.105,1.796e-05,0
1.1055,1.7624e-05,0
1.106,2.031e-05,0
1.1065,1.6281e-05,0
1.107,1.1246e-05,0
1.1075,1.3764e-05,0
1.108,1.2924e-05,0
1.1085,9.9031e-06,0
1.109,1.326e-05,0
1.1095,1.6617e-05,0
1.11,1.7288e-05,0
1.1105,1.9135e-05,0
1.111,1.796e-05,0
1.1115,1.4603e-05,0
1.112,1.6617e-05,0
1.1125,2.1988e-05,0
1.113,2.3499e-05,0
1.1135,2.2995e-05,0
1.114,2.2828e-05,0
1.1145,2.0646e-05,0
1.115,2.0981e-05,0
1.1155,2.7359e-05,0
1.116,3.4577e-05,0
1.1165,3.508e-05,0
1.117,3.2059e-05,0
1.1175,3.1388e-05,0
1.118,3.122e-05,0
1.1185,2.7527e-05,0
1.119,2.2156e-05,0
1.1195,1.9806e-05,0
1.12,1.947e-05,0
1.1205,2.4338e-05,0
1.121,2.4506e-05,0
1.1215,1.9974e-05,0
1.122,1.9135e-05,0
1.1225,1.8631e-05,0
1.123,1.7456e-05,0
1.1235,1.8631e-05,0
1.124,1.6449e-05,0
1.1245,1.6281e-05,0
1.125,1.8967e-05,0
1.1255,2.1653e-05,0
1.126,2.3499e-05,0
1.1265,2.1149e-05,0
1.127,1.5274e-05,0
1.1275,1.2924e-05,0
1.128,1.6953e-05,0
1.1285,2.3835e-05,0
1.129,2.4674e-05,0
1.1295,2.1317e-05,0
1.13,2.4002e-05,0
1.1305,2.7695e-05,0
1.131,2.652e-05,0
1.1315,2.3331e-05,0
1.132,2.182e-05,0
1.1325,2.0478e-05,0
1.133,1.7288e-05,0
1.1335,1.8631e-05,0
1.134,1.7456e-05,0
1.1345,1.4267e-05,0
1.135,1.8296e-05,0
1.1355,1.9303e-05,0
1.136,1.2085e-05,0
1.1365,9.2317e-06,0
1.137,1.091e-05,0
1.1375,1.4099e-05,0
1.138,1.8296e-05,0
1.1385,2.0813e-05,0
1.139,2.2492e-05,0
1.1395,2.0478e-05,0
1.14,1.5274e-05,0
1.1405,1.4099e-05,0
1.141,1.4435e-05,0
1.1415,1.4939e-05,0
1.142,1.5442e-05,0
1.1425,1.4603e-05,0
1.143,1.5946e-05,0
1.1435,1.6617e-05,0
1.144,1.2253e-05,0
1.1445,6.714e-06,0
1.145,5.2033e-06,0
1.1455,3.1891e-06,0
1.146,1.678e-07,0
1.1465,3.6927e-06,0
1.147,6.8818e-06,0
1.1475,8.5603e-06,0
1.148,1.4939e-05,0
1.1485,1.5946e-05,0
1.149,1.4267e-05,0
1.1495,1.796e-05,0
1.15,2.0981e-05,0
1.1505,2.0646e-05,0
1.151,2.2324e-05,0
1.1515,2.6017e-05,0
1.152,2.6688e-05,0
1.1525,2.3163e-05,0
1.153,2.0981e-05,0
1.1535,2.2995e-05,0
1.154,2.6688e-05,0
1.1545,2.7024e-05,0
1.155,2.4002e-05,0
1.1555,2.0981e-05,0
1.156,1.6953e-05,0
1.1565,1.2924e-05,0
1.157,8.3925e-06,0
1.1575,8.5603e-06,0
1.158,1.4435e-05,0
1.1585,1.796e-05,0
1.159,1.9135e-05,0
1.1595,2.4002e-05,0
1.16,2.5681e-05,0
1.1605,2.2492e-05,0
1.161,2.3331e-05,0
1.1615,2.1988e-05,0
1.162,1.6281e-05,0
1.1625,1.5946e-05,0
1.163,1.7792e-05,0
1.1635,1.5946e-05,0
1.164,1.6449e-05,0
1.1645,2.0981e-05,0
1.165,2.5681e-05,0
1.1655,2.6184e-05,0
1.166,2.5849e-05,0
1.1665,2.3331e-05,0
1.167,1.9303e-05,0
1.1675,1.5946e-05,0
1.168,1.4603e-05,0
1.1685,1.8631e-05,0
1.169,2.6688e-05,0
1.1695,2.8702e-05,0
1.17,2.266e-05,0
1.1705,1.5274e-05,0
1.171,1.091e-05,0
1.1715,5.2033e-06,0
1.172,3.1891e-06,0
1.1725,1.1917e-05,0
1.173,1.9974e-05,0
1.1735,2.5009e-05,0
1.174,2.8534e-05,0
1.1745,2.4506e-05,0
1.175,1.9135e-05,0
1.1755,2.3331e-05,0
1.176,2.5849e-05,0
1.1765,2.0813e-05,0
1.177,1.8296e-05,0
1.1775,1.9135e-05,0
1.178,1.8296e-05,0
1.1785,1.6281e-05,0
1.179,1.5778e-05,0
1.1795,1.7792e-05,0
1.18,2.2995e-05,0
1.1805,2.5849e-05,0
1.181,2.5009e-05,0
1.1815,2.6017e-05,0
1.182,2.6688e-05,0
1.1825,2.4674e-05,0
1.183,1.9303e-05,0
1.1835,1.5946e-05,0
1.184,1.6617e-05,0
1.1845,1.5442e-05,0
1.185,1.1917e-05,0
1.1855,1.2421e-05,0
1.186,1.091e-05,0
1.1865,7.2175e-06,0
1.187,1.0239e-05,0
1.1875,1.3932e-05,0
1.188,1.3428e-05,0
1.1885,1.5274e-05,0
1.189,1.3596e-05,0
1.1895,8.5603e-06,0
1.19,1.1917e-05,0
1.1905,2.1317e-05,0
1.191,2.2492e-05,0
1.1915,1.7288e-05,0
1.192,1.2253e-05,0
1.1925,1.2589e-05,0
1.193,1.9303e-05,0
1.1935,2.182e-05,0
1.194,2.0646e-05,0
1.1945,2.031e-05,0
1.195,2.1317e-05,0
1.1955,2.266e-05,0
1.196,2.182e-05,0
1.1965,2.0142e-05,0
1.197,2.031e-05,0
1.1975,1.8128e-05,0
1.198,1.7288e-05,0
1.1985,2.6688e-05,0
1.199,2.9374e-05,0
1.1995,2.031e-05,0
1.2,1.6785e-05,0
1.2005,1.326e-05,0
1.201,7.0497e-06,0
1.2015,5.8747e-06,0
1.202,4.5319e-06,0
1.2025,2.182e-06,0
1.203,9.5674e-06,0
1.2035,1.7792e-05,0
1.204,1.8967e-05,0
1.2045,1.8967e-05,0
1.205,2.1317e-05,0
1.2055,2.5345e-05,0
1.206,2.6688e-05,0
1.2065,2.4674e-05,0
1.207,2.4338e-05,0
1.2075,2.4002e-05,0
1.208,2.266e-05,0
1.2085,2.5177e-05,0
1.209,3.1724e-05,0
1.2095,3.4073e-05,0
1.21,3.0549e-05,0
1.2105,2.4674e-05,0
1.211,1.947e-05,0
1.2115,2.3331e-05,0
1.212,3.0884e-05,0
1.2125,3.0549e-05,0
1.213,2.9206e-05,0
1.2135,2.7863e-05,0
1.214,2.3331e-05,0
1.2145,2.1988e-05,0
1.215,2.1988e-05,0
1.2155,2.2828e-05,0
1.216,2.7359e-05,0
1.2165,3.0716e-05,0
1.217,2.7695e-05,0
1.2175,2.4338e-05,0
1.218,1.9303e-05,0
1.2185,1.5442e-05,0
1.219,1.7624e-05,0
1.2195,2.0646e-05,0
1.22,2.1317e-05,0
1.2205,2.1317e-05,0
1.221,2.3835e-05,0
1.2215,2.3163e-05,0
1.222,1.6617e-05,0
1.2225,1.1917e-05,0
1.223,1.3596e-05,0
1.2235,1.5946e-05,0
1.224,1.561e-05,0
1.2245,1.8463e-05,0
1.225,2.031e-05,0
1.2255,2.031e-05,0
1.226,2.4002e-05,0
1.2265,2.2156e-05,0
1.227,1.5778e-05,0
1.2275,1.561e-05,0
1.228,1.4603e-05,0
1.2285,1.5946e-05,0
1.229,1.947e-05,0
1.2295,2.0478e-05,0
1.23,2.0646e-05,0
1.2305,1.9974e-05,0
1.231,1.6617e-05,0
1.2315,1.091e-05,0
1.232,9.2317e-06,0
1.2325,1.1917e-05,0
1.233,1.326e-05,0
1.2335,1.2924e-05,0
1.234,1.326e-05,0
1.2345,1.5274e-05,0
1.235,1.5274e-05,0
1.2355,1.2757e-05,0
1.236,1.796e-05,0
1.2365,2.3331e-05,0
1.237,1.8967e-05,0
1.2375,1.561e-05,0
1.238,1.4603e-05,0
1.2385,1.326e-05,0
1.239,1.796e-05,0
1.2395,2.1988e-05,0
1.24,2.266e-05,0
1.2405,2.4002e-05,0
1.241,2.4002e-05,0
1.2415,2.2324e-05,0
1.242,2.2995e-05,0
1.2425,2.5849e-05,0
1.243,2.4002e-05,0
1.2435,2.031e-05,0
1.244,1.8463e-05,0
1.2445,1.5274e-05,0
1.245,1.5274e-05,0
1.2455,1.796e-05,0
1.246,2.0981e-05,0
1.2465,1.7624e-05,0
1.247,1.1246e-05,0
1.2475,6.8818e-06,0
1.248,3.1891e-06,0
1.2485,5.2033e-06,0
1.249,1.1582e-05,0
1.2495,1.1749e-05,0
1.25,6.8818e-06,0
1.2505,8.5603e-06,0
1.251,8.2246e-06,0
1.2515,2.3499e-06,0
1.252,5.2033e-06,0
1.2525,1.4435e-05,0
1.253,1.9638e-05,0
1.2535,2.1988e-05,0
1.254,1.9135e-05,0
1.2545,1.4603e-05,0
1.255,1.8296e-05,0
1.2555,2.2492e-05,0
1.256,2.3163e-05,0
1.2565,2.266e-05,0
1.257,2.266e-05,0
1.2575,2.3331e-05,0
1.258,2.1149e-05,0
1.2585,1.7121e-05,0
1.259,1.5442e-05,0
1.2595,1.5946e-05,0
1.26,2.0142e-05,0
1.2605,2.4002e-05,0
1.261,2.4002e-05,0
1.2615,2.4002e-05,0
1.262,2.4002e-05,0
1.2625,1.8631e-05,0
1.263,1.2924e-05,0
1.2635,1.5946e-05,0
1.264,1.7121e-05,0
1.2645,1.5442e-05,0
1.265,2.1317e-05,0
1.2655,2.5513e-05,0
1.266,1.9638e-05,0
1.2665,1.5274e-05,0
1.267,1.6617e-05,0
1.2675,2.0981e-05,0
1.268,2.6352e-05,0
1.2685,2.6688e-05,0
1.269,2.4002e-05,0
1.2695,2.2156e-05,0
1.27,1.8463e-05,0
1.2705,1.3596e-05,0
1.271,1.4267e-05,0
1.2715,2.0646e-05,0
1.272,2.4674e-05,0
1.2725,2.0646e-05,0
1.273,1.7624e-05,0
1.2735,2.0142e-05,0
1.274,1.9638e-05,0
1.2745,1.4939e-05,0
1.275,1.5106e-05,0
1.2755,2.0478e-05,0
1.276,2.2828e-05,0
1.2765,2.1988e-05,0
1.277,1.8296e-05,0
1.2775,1.6785e-05,0
1.278,2.0981e-05,0
1.2785,2.0813e-05,0
1.279,1.6617e-05,0
1.2795,1.9303e-05,0
1.28,2.2995e-05,0
1.2805,2.4674e-05,0
1.281,2.6688e-05,0
1.2815,2.8031e-05,0
1.282,2.8031e-05,0
1.2825,2.7359e-05,0
1.283,2.4674e-05,0
1.2835,2.0478e-05,0
1.284,1.9303e-05,0
1.2845,2.1317e-05,0
1.285,2.5345e-05,0
1.2855,2.6352e-05,0
1.286,2.4506e-05,0
1.2865,2.4002e-05,0
1.287,2.2828e-05,0
1.2875,2.031e-05,0
1.288,2.0478e-05,0
1.2885,1.7121e-05,0
1.289,1.1078e-05,0
1.2895,1.3596e-05,0
1.29,1.796e-05,0
1.2905,1.9135e-05,0
1.291,2.0981e-05,0
1.2915,1.8296e-05,0
1.292,1.5778e-05,0
1.2925,1.796e-05,0
1.293,1.8631e-05,0
1.2935,2.0142e-05,0
1.294,2.5009e-05,0
1.2945,2.8367e-05,0
1.295,2.7192e-05,0
1.2955,2.1317e-05,0
1.296,1.6953e-05,0
1.2965,1.6617e-05,0
1.297,2.2324e-05,0
1.2975,2.8031e-05,0
1.298,2.7695e-05,0
1.2985,2.4842e-05,0
1.299,2.3163e-05,0
1.2995,2.1988e-05,0
1.3,1.8296e-05,0
1.3005,1.3596e-05,0
1.301,1.0239e-05,0
1.3015,3.5248e-06,0
1.302,-1.678e-07,0
1.3025,1.8463e-06,0
1.303,4.6998e-06,0
1.3035,9.0639e-06,0
1.304,1.8631e-05,0
1.3045,2.4002e-05,0
1.305,2.5009e-05,0
1.3055,2.9374e-05,0
1.306,3.1724e-05,0
1.3065,3.0549e-05,0
1.307,3.2395e-05,0
1.3075,3.4073e-05,0
1.308,2.9709e-05,0
1.3085,2.4002e-05,0
1.309,2.1988e-05,0
1.3095,2.3331e-05,0
1.31,2.1317e-05,0
1.3105,1.6953e-05,0
1.311,1.2924e-05,0
1.3115,1.2924e-05,0
1.312,1.6785e-05,0
1.3125,1.8296e-05,0
1.313,1.2924e-05,0
1.3135,7.8889e-06,0
1.314,7.5532e-06,0
1.3145,5.8747e-06,0
1.315,3.5248e-06,0
1.3155,9.5674e-06,0
1.316,1.5274e-05,0
1.3165,1.2924e-05,0
1.317,1.2589e-05,0
1.3175,1.561e-05,0
1.318,1.8631e-05,0
1.3185,2.1317e-05,0
1.319,1.8967e-05,0
1.3195,1.9135e-05,0
1.32,2.3667e-05,0
1.3205,2.5009e-05,0
1.321,2.2995e-05,0
1.3215,2.2156e-05,0
1.322,2.3499e-05,0
1.3225,2.3163e-05,0
1.323,2.0646e-05,0
1.3235,1.6953e-05,0
1.324,1.5946e-05,0
1.3245,1.6281e-05,0
1.325,1.8296e-05,0
1.3255,2.1317e-05,0
1.326,2.0478e-05,0
1.3265,1.5946e-05,0
1.327,1.3092e-05,0
1.3275,9.5674e-06,0
1.328,6.5461e-06,0
1.3285,1.3932e-05,0
1.329,1.9974e-05,0
1.3295,1.8631e-05,0
1.33,1.6449e-05,0
1.3305,1.4099e-05,0
1.331,1.6449e-05,0
1.3315,1.9806e-05,0
1.332,1.326e-05,0
1.3325,9.0639e-06,0
1.333,1.5946e-05,0
1.3335,2.031e-05,0
1.334,1.8967e-05,0
1.3345,1.8296e-05,0
1.335,2.2156e-05,0
1.3355,2.2995e-05,0
1.336,2.266e-05,0
1.3365,2.5009e-05,0
1.337,2.6352e-05,0
1.3375,2.6688e-05,0
1.338,2.8702e-05,0
1.3385,2.9374e-05,0
1.339,2.7863e-05,0
1.3395,2.3667e-05,0
1.34,2.031e-05,0
1.3405,2.266e-05,0
1.341,2.7024e-05,0
1.3415,2.9374e-05,0
1.342,2.1988e-05,0
1.3425,1.5946e-05,0
1.343,2.2156e-05,0
1.3435,2.5345e-05,0
1.344,1.9303e-05,0
1.3445,1.9303e-05,0
1.345,2.0646e-05,0
1.3455,1.7792e-05,0
1.346,1.6281e-05,0
1.3465,1.6281e-05,0
1.347,1.796e-05,0
1.3475,1.8631e-05,0
1.348,1.6785e-05,0
1.3485,1.3596e-05,0
1.349,7.8889e-06,0
1.3495,5.539e-06,0
1.35,9.5674e-06,0
1.3505,1.0239e-05,0
1.351,1.0407e-05,0
1.3515,1.6617e-05,0
1.352,2.4002e-05,0
1.3525,2.2324e-05,0
1.353,1.7624e-05,0
1.3535,1.7121e-05,0
1.354,1.8128e-05,0
1.3545,2.0813e-05,0
1.355,1.9638e-05,0
1.3555,1.6281e-05,0
1.356,2.0478e-05,0
1.3565,2.5513e-05,0
1.357,2.4506e-05,0
1.3575,2.4002e-05,0
1.358,1.947e-05,0
1.3585,1.3764e-05,0
1.359,1.4267e-05,0
1.3595,1.8128e-05,0
1.36,2.266e-05,0
1.3605,2.4674e-05,0
1.361,2.3667e-05,0
1.3615,2.2995e-05,0
1.362,2.3331e-05,0
1.3625,2.266e-05,0
1.363,2.3331e-05,0
1.3635,2.4338e-05,0
1.364,2.2156e-05,0
1.3645,1.7288e-05,0
1.365,1.326e-05,0
1.3655,1.2589e-05,0
1.366,1.5106e-05,0
1.3665,1.4603e-05,0
1.367,1.3932e-05,0
1.3675,1.6785e-05,0
1.368,1.5946e-05,0
1.3685,1.4099e-05,0
1.369,1.796e-05,0
1.3695,1.8463e-05,0
1.37,1.7288e-05,0
1.3705,2.1317e-05,0
1.371,2.6352e-05,0
1.3715,2.9038e-05,0
1.372,3.1388e-05,0
1.3725,3.1556e-05,0
1.373,2.9374e-05,0
1.3735,2.4002e-05,0
1.374,2.1317e-05,0
1.3745,2.1317e-05,0
1.375,1.8631e-05,0
1.3755,1.561e-05,0
1.376,1.5274e-05,0
1.3765,1.4939e-05,0
1.377,1.4435e-05,0
1.3775,1.3764e-05,0
1.378,1.0239e-05,0
1.3785,6.8818e-06,0
1.379,7.5532e-06,0
1.3795,9.5674e-06,0
1.38,1.2421e-05,0
1.3805,1.6449e-05,0
1.381,1.561e-05,0
1.3815,1.6114e-05,0
1.382,2.0981e-05,0
1.3825,1.8631e-05,0
1.383,1.3932e-05,0
1.3835,1.5274e-05,0
1.384,1.6953e-05,0
1.3845,2.1149e-05,0
1.385,2.9206e-05,0
1.3855,3.0045e-05,0
1.386,2.6688e-05,0
1.3865,2.8031e-05,0
1.387,2.8702e-05,0
1.3875,2.7192e-05,0
1.388,2.4002e-05,0
1.3885,2.1988e-05,0
1.389,1.7624e-05,0
1.3895,1.1749e-05,0
1.39,8.5603e-06,0
1.3905,9.5674e-06,0
1.391,1.6617e-05,0
1.3915,1.8967e-05,0
1.392,1.6617e-05,0
1.3925,1.7624e-05,0
1.393,1.796e-05,0
1.3935,1.7792e-05,0
1.394,1.5946e-05,0
1.3945,1.5946e-05,0
1.395,1.9974e-05,0
1.3955,2.0813e-05,0
1.396,1.8631e-05,0
1.3965,1.796e-05,0
1.397,1.5274e-05,0
1.3975,1.4939e-05,0
1.398,1.8631e-05,0
1.3985,2.031e-05,0
1.399,2.0646e-05,0
1.3995,2.0142e-05,0
1.4,1.7288e-05,0
1.4005,1.7288e-05,0
1.401,1.9974e-05,0
1.4015,1.947e-05,0
1.402,1.8631e-05,0
1.4025,2.031e-05,0
1.403,2.0981e-05,0
1.4035,2.0646e-05,0
1.404,2.3331e-05,0
1.4045,2.6184e-05,0
1.405,2.7024e-05,0
1.4055,2.4338e-05,0
1.406,2.266e-05,0
1.4065,2.4338e-05,0
1.407,2.4674e-05,0
1.4075,2.3331e-05,0
1.408,2.4338e-05,0
1.4085,2.2324e-05,0
1.409,1.7792e-05,0
1.4095,1.8631e-05,0
1.41,1.7624e-05,0
1.4105,1.6449e-05,0
1.411,2.3331e-05,0
1.4115,3.1388e-05,0
1.412,3.4073e-05,0
1.4125,3.1052e-05,0
1.413,2.7527e-05,0
1.4135,2.3667e-05,0
1.414,1.8967e-05,0
1.4145,1.7456e-05,0
1.415,1.947e-05,0
1.4155,1.6953e-05,0
1.416,1.326e-05,0
1.4165,1.4267e-05,0
1.417,1.4939e-05,0
1.4175,1.4939e-05,0
1.418,1.9135e-05,0
1.4185,2.4002e-05,0
1.419,2.031e-05,0
1.4195,1.3932e-05,0
1.42,6.2104e-06,0
1.4205,1.5106e-06,0
1.421,6.714e-06,0
1.4215,1.3596e-05,0
1.422,1.5946e-05,0
1.4225,1.7456e-05,0
1.423,1.5274e-05,0
1.4235,1.1414e-05,0
1.424,1.1078e-05,0
1.4245,1.2253e-05,0
1.425,1.4771e-05,0
1.4255,1.5778e-05,0
1.426,1.3596e-05,0
1.4265,1.1749e-05,0
1.427,1.2253e-05,0
1.4275,1.3764e-05,0
1.428,1.6953e-05,0
1.4285,2.1149e-05,0
1.429,2.3331e-05,0
1.4295,2.3667e-05,0
1.43,2.2324e-05,0
1.4305,1.7624e-05,0
1.431,1.6953e-05,0
1.4315,1.5946e-05,0
1.432,1.1582e-05,0
1.4325,1.2253e-05,0
1.433,1.3596e-05,0
1.4335,1.0575e-05,0
1.434,9.9031e-06,0
1.4345,1.1246e-05,0
1.435,1.6617e-05,0
1.4355,2.4338e-05,0
1.436,2.3667e-05,0
1.4365,1.8631e-05,0
1.437,1.8631e-05,0
1.4375,2.0981e-05,0
1.438,1.9974e-05,0
1.4385,1.5946e-05,0
1.439,1.3092e-05,0
1.4395,1.561e-05,0
1.44,2.2492e-05,0
1.4405,2.7695e-05,0
1.441,2.7695e-05,0
1.4415,2.6688e-05,0
1.442,2.7359e-05,0
1.4425,2.8367e-05,0
1.443,2.9374e-05,0
1.4435,2.7192e-05,0
1.444,2.2995e-05,0
1.4445,2.182e-05,0
1.445,2.2324e-05,0
1.4455,2.1653e-05,0
1.446,1.6953e-05,0
1.4465,1.2253e-05,0
1.447,1.4939e-05,0
1.4475,1.8967e-05,0
1.448,2.2156e-05,0
1.4485,2.4002e-05,0
1.449,2.1317e-05,0
1.4495,2.266e-05,0
1.45,2.6352e-05,0
1.4505,2.6184e-05,0
1.451,2.6184e-05,0
1.4515,2.9374e-05,0
1.452,3.2059e-05,0
1.4525,2.9877e-05,0
1.453,2.266e-05,0
1.4535,1.4939e-05,0
1.454,1.4939e-05,0
1.4545,1.8631e-05,0
1.455,1.8967e-05,0
1.4555,1.5946e-05,0
1.456,1.3596e-05,0
1.4565,1.2924e-05,0
1.457,1.326e-05,0
1.4575,1.1917e-05,0
1.458,9.3996e-06,0
1.4585,1.561e-05,0
1.459,2.031e-05,0
1.4595,1.8296e-05,0
1.46,2.031e-05,0
1.4605,1.9638e-05,0
1.461,1.561e-05,0
1.4615,1.9974e-05,0
1.462,2.0981e-05,0
1.4625,1.7792e-05,0
1.463,1.9806e-05,0
1.4635,2.4338e-05,0
1.464,2.6017e-05,0
1.4645,2.5009e-05,0
1.465,2.3331e-05,0
1.4655,2.1317e-05,0
1.466,2.031e-05,0
1.4665,2.1149e-05,0
1.467,2.1149e-05,0
1.4675,1.7624e-05,0
1.468,1.6953e-05,0
1.4685,1.9303e-05,0
1.469,1.5778e-05,0
1.4695,7.5532e-06,0
1.47,4.8676e-06,0
1.4705,1.0407e-05,0
1.471,1.5274e-05,0
1.4715,2.0478e-05,0
1.472,2.2828e-05,0
1.4725,1.9303e-05,0
1.473,1.7624e-05,0
1.4735,1.5946e-05,0
1.474,1.5946e-05,0
1.4745,1.796e-05,0
1.475,1.5106e-05,0
1.4755,1.1749e-05,0
1.476,1.5274e-05,0
1.4765,2.266e-05,0
1.477,2.6017e-05,0
1.4775,2.4674e-05,0
1.478,2.3163e-05,0
1.4785,2.4674e-05,0
1.479,2.8031e-05,0
1.4795,2.9709e-05,0
1.48,2.9038e-05,0
1.4805,2.7359e-05,0
1.481,2.1988e-05,0
1.4815,1.6617e-05,0
1.482,1.5442e-05,0
1.4825,1.6953e-05,0
1.483,1.7624e-05,0
1.4835,1.3596e-05,0
1.484,6.2104e-06,0
1.4845,4.1962e-06,0
1.485,3.8605e-06,0
1.4855,6.5461e-06,0
1.486,1.2589e-05,0
1.4865,1.4603e-05,0
1.487,1.4435e-05,0
1.4875,1.9303e-05,0
1.488,2.0646e-05,0
1.4885,1.7624e-05,0
1.489,1.7288e-05,0
1.4895,1.9974e-05,0
1.49,2.1653e-05,0
1.4905,2.1317e-05,0
1.491,2.1149e-05,0
1.4915,1.8463e-05,0
1.492,1.8296e-05,0
1.4925,2.2492e-05,0
1.493,2.5345e-05,0
1.4935,2.2828e-05,0
1.494,2.1317e-05,0
1.4945,2.2995e-05,0
1.495,2.3835e-05,0
1.4955,2.6352e-05,0
1.496,2.6688e-05,0
1.4965,1.947e-05,0
1.497,1.2589e-05,0
1.4975,1.326e-05,0
1.498,1.4435e-05,0
1.4985,1.5946e-05,0
1.499,2.0981e-05,0
1.4995,1.8967e-05,0
1.5,1.2924e-05,0
1.5005,1.2924e-05,0
1.501,1.3764e-05,0
1.5015,1.2589e-05,0
1.502,1.1749e-05,0
1.5025,1.2421e-05,0
1.503,1.4435e-05,0
1.5035,1.8631e-05,0
1.504,2.1317e-05,0
1.5045,2.1317e-05,0
1.505,1.796e-05,0
1.5055,1.5946e-05,0
1.506,1.5946e-05,0
1.5065,1.6449e-05,0
1.507,1.9638e-05,0
1.5075,2.2995e-05,0
1.508,2.5849e-05,0
1.5085,2.9374e-05,0
1.509,2.9877e-05,0
1.5095,2.4674e-05,0
1.51,2.1317e-05,0
1.5105,2.2995e-05,0
1.511,2.266e-05,0
1.5115,2.0981e-05,0
1.512,2.1317e-05,0
1.5125,1.7288e-05,0
1.513,1.3932e-05,0
1.5135,1.7624e-05,0
1.514,1.7121e-05,0
1.5145,1.5946e-05,0
1.515,2.0981e-05,0
1.5155,2.5681e-05,0
1.516,2.5513e-05,0
1.5165,2.0813e-05,0
1.517,1.7288e-05,0
1.5175,1.7624e-05,0
1.518,2.1317e-05,0
1.5185,2.3667e-05,0
1.519,2.8367e-05,0
1.5195,2.9709e-05,0
1.52,2.4674e-05,0
1.5205,2.1988e-05,0
1.521,2.4002e-05,0
1.5215,2.1149e-05,0
1.522,1.6953e-05,0
1.5225,1.2757e-05,0
1.523,1.2253e-05,0
1.5235,1.8463e-05,0
1.524,1.6449e-05,0
1.5245,1.0071e-05,0
1.525,1.2253e-05,0
1.5255,1.2757e-05,0
1.526,4.6998e-06,0
1.5265,5.035e-07,0
1.527,-1.1749e-06,0
1.5275,-5.035e-07,0
1.528,5.8747e-06,0
1.5285,1.326e-05,0
1.529,1.6953e-05,0
1.5295,1.6953e-05,0
1.53,1.8463e-05,0
1.5305,1.9638e-05,0
1.531,1.6617e-05,0
1.5315,1.4267e-05,0
1.532,1.561e-05,0
1.5325,2.0142e-05,0
1.533,2.031e-05,0
1.5335,1.7792e-05,0
1.534,1.9303e-05,0
1.5345,2.2828e-05,0
1.535,2.3331e-05,0
1.5355,2.2324e-05,0
1.536,1.9135e-05,0
1.5365,1.796e-05,0
1.537,1.7624e-05,0
1.5375,1.3764e-05,0
1.538,1.3596e-05,0
1.5385,1.5946e-05,0
1.539,1.9638e-05,0
1.5395,2.5849e-05,0
1.54,2.6688e-05,0
1.5405,2.6352e-05,0
1.541,2.6688e-05,0
1.5415,2.7024e-05,0
1.542,2.5345e-05,0
1.5425,2.2995e-05,0
1.543,2.3499e-05,0
1.5435,2.7192e-05,0
1.544,2.9038e-05,0
1.5445,2.7863e-05,0
1.545,2.6688e-05,0
1.5455,2.7192e-05,0
1.546,3.0716e-05,0
1.5465,3.2059e-05,0
1.547,3.1388e-05,0
1.5475,2.5177e-05,0
1.548,1.9638e-05,0
1.5485,1.8631e-05,0
1.549,2.0646e-05,0
1.5495,2.4002e-05,0
1.55,2.1149e-05,0
1.5505,1.8296e-05,0
1.551,2.4002e-05,0
1.5515,2.5849e-05,0
1.552,2.3163e-05,0
1.5525,2.1317e-05,0
1.553,1.5106e-05,0
1.5535,1.0575e-05,0
1.554,1.3596e-05,0
1.5545,1.7288e-05,0
1.555,1.7121e-05,0
1.5555,1.4771e-05,0
1.556,1.3932e-05,0
1.5565,1.326e-05,0
1.557,1.2924e-05,0
1.5575,1.2421e-05,0
1.558,1.3596e-05,0
1.5585,1.8799e-05,0
1.559,2.2156e-05,0
1.5595,2.1988e-05,0
1.56,1.7624e-05,0
1.5605,1.4267e-05,0
1.561,1.5946e-05,0
1.5615,1.5274e-05,0
1.562,1.0575e-05,0
1.5625,1.1917e-05,0
1.563,1.561e-05,0
1.5635,1.8631e-05,0
1.564,2.1988e-05,0
1.5645,1.9135e-05,0
1.565,1.7121e-05,0
1.5655,2.2156e-05,0
1.566,2.0646e-05,0
1.5665,1.3764e-05,0
1.567,1.4099e-05,0
1.5675,2.266e-05,0
1.568,2.6688e-05,0
1.5685,2.5177e-05,0
1.569,2.031e-05,0
1.5695,1.4099e-05,0
1.57,9.7353e-06,0
1.5705,6.8818e-06,0
1.571,5.0355e-06,0
1.5715,5.0355e-06,0
1.572,8.5603e-06,0
1.5725,1.2253e-05,0
1.573,1.1582e-05,0
1.5735,7.3854e-06,0
1.574,7.0497e-06,0
1.5745,8.0568e-06,0
1.575,1.2757e-05,0
1.5755,2.5009e-05,0
1.576,2.8534e-05,0
1.5765,2.3835e-05,0
1.577,2.4674e-05,0
1.5775,2.5009e-05,0
1.578,2.5681e-05,0
1.5785,2.8702e-05,0
1.579,2.7863e-05,0
1.5795,2.4002e-05,0
1.58,2.2995e-05,0
1.5805,2.1988e-05,0
1.581,2.0478e-05,0
1.5815,2.2492e-05,0
1.582,2.5009e-05,0
1.5825,2.5345e-05,0
1.583,2.2995e-05,0
1.5835,2.031e-05,0
1.584,1.9135e-05,0
1.5845,2.0478e-05,0
1.585,2.652e-05,0
1.5855,3.0884e-05,0
1.586,3.1052e-05,0
1.5865,3.3066e-05,0
1.587,3.743e-05,0
1.5875,3.6423e-05,0
1.588,3.1556e-05,0
1.5885,3.1388e-05,0
1.589,2.9374e-05,0
1.5895,2.4002e-05,0
1.59,2.5849e-05,0
1.5905,3.122e-05,0
1.591,3.3402e-05,0
1.5915,3.3234e-05,0
1.592,2.6688e-05,0
1.5925,1.6281e-05,0
1.593,1.1414e-05,0
1.5935,1.1414e-05,0
1.594,1.0575e-05,0
1.5945,6.3783e-06,0
1.595,4.6998e-06,0
1.5955,5.2033e-06,0
1.596,5.2033e-06,0
1.5965,6.8818e-06,0
1.597,1.326e-05,0
1.5975,2.0981e-05,0
1.598,2.1485e-05,0
1.5985,1.561e-05,0
1.599,9.3996e-06,0
1.5995,7.7211e-06,0
1.6,8.896e-06,0
1.6005,8.5603e-06,0
1.601,5.8747e-06,0
1.6015,6.8818e-06,0
1.602,8.896e-06,0
1.6025,9.5674e-06,0
1.603,1.0575e-05,0
1.6035,9.0639e-06,0
1.604,8.5603e-06,0
1.6045,1.4267e-05,0
1.605,1.6617e-05,0
1.6055,1.4603e-05,0
1.606,1.6617e-05,0
1.6065,2.1317e-05,0
1.607,2.0478e-05,0
1.6075,1.4603e-05,0
1.608,1.5946e-05,0
1.6085,2.4506e-05,0
1.609,2.6017e-05,0
1.6095,2.0981e-05,0
1.61,1.8631e-05,0
1.6105,2.266e-05,0
1.611,2.7359e-05,0
1.6115,2.7359e-05,0
1.612,2.3331e-05,0
1.6125,1.8296e-05,0
1.613,1.8631e-05,0
1.6135,1.6617e-05,0
1.614,1.2253e-05,0
1.6145,1.4435e-05,0
1.615,1.6785e-05,0
1.6155,1.6953e-05,0
1.616,1.5106e-05,0
1.6165,1.4603e-05,0
1.617,1.8631e-05,0
1.6175,2.3331e-05,0
1.618,2.1317e-05,0
1.6185,1.7792e-05,0
1.619,1.9974e-05,0
1.6195,2.0142e-05,0
1.62,1.7288e-05,0
1.6205,1.4939e-05,0
1.621,1.6114e-05,0
1.6215,2.1149e-05,0
1.622,2.5345e-05,0
1.6225,2.5345e-05,0
1.623,1.9974e-05,0
1.6235,1.4603e-05,0
1.624,1.326e-05,0
1.6245,1.3932e-05,0
1.625,1.5442e-05,0
1.6255,1.561e-05,0
1.626,1.4603e-05,0
1.6265,1.2589e-05,0
1.627,1.2589e-05,0
1.6275,1.5106e-05,0
1.628,1.3596e-05,0
1.6285,7.8889e-06,0
1.629,7.8889e-06,0
1.6295,8.5603e-06,0
1.63,4.5319e-06,0
1.6305,3.8605e-06,0
1.631,5.539e-06,0
1.6315,1.0575e-05,0
1.632,2.182e-05,0
1.6325,3.2059e-05,0
1.633,3.4745e-05,0
1.6335,3.2059e-05,0
1.634,3.4073e-05,0
1.6345,3.7934e-05,0
1.635,3.6088e-05,0
1.6355,3.122e-05,0
1.636,2.9374e-05,0
1.6365,3.2731e-05,0
1.637,3.5752e-05,0
1.6375,3.743e-05,0
1.638,3.9109e-05,0
1.6385,3.9445e-05,0
1.639,3.9948e-05,0
1.6395,3.4409e-05,0
1.64,2.7863e-05,0
1.6405,2.7359e-05,0
1.641,2.5345e-05,0
1.6415,2.031e-05,0
1.642,2.1317e-05,0
1.6425,2.5009e-05,0
1.643,2.8534e-05,0
1.6435,2.9374e-05,0
1.644,2.2995e-05,0
1.6445,2.1317e-05,0
1.645,2.887e-05,0
1.6455,3.3402e-05,0
1.646,3.0213e-05,0
1.6465,2.6352e-05,0
1.647,2.6688e-05,0
1.6475,2.4674e-05,0
1.648,2.0981e-05,0
1.6485,2.0981e-05,0
1.649,2.1317e-05,0
1.6495,1.7456e-05,0
1.65,7.8889e-06,0
1.6505,-2.8534e-06,0
1.651,-1.0239e-05,0
1.6515,-1.3596e-05,0
1.652,-1.0575e-05,0
1.6525,-6.8818e-06,0
1.653,-4.6998e-06,0
1.6535,1.1749e-06,0
1.654,2.8534e-06,0
1.6545,-6.714e-07,0
1.655,3.0213e-06,0
1.6555,5.2033e-06,0
1.656,5.2033e-06,0
1.6565,1.0239e-05,0
1.657,1.2589e-05,0
1.6575,1.2757e-05,0
1.658,1.9974e-05,0
1.6585,2.9374e-05,0
1.659,3.2395e-05,0
1.6595,3.1052e-05,0
1.66,3.1724e-05,0
1.6605,3.3402e-05,0
1.661,3.2395e-05,0
1.6615,2.7359e-05,0
1.662,2.2492e-05,0
1.6625,1.8296e-05,0
1.663,1.9303e-05,0
1.6635,2.1317e-05,0
1.664,1.9974e-05,0
1.6645,1.8128e-05,0
1.665,1.8967e-05,0
1.6655,1.9638e-05,0
1.666,1.9303e-05,0
1.6665,2.266e-05,0
1.667,2.2492e-05,0
1.6675,2.031e-05,0
1.668,2.1653e-05,0
1.6685,1.9974e-05,0
1.669,1.8631e-05,0
1.6695,2.1317e-05,0
1.67,2.2995e-05,0
1.6705,2.4338e-05,0
1.671,2.4842e-05,0
1.6715,2.5849e-05,0
1.672,2.652e-05,0
1.6725,2.6017e-05,0
1.673,2.7024e-05,0
1.6735,2.5681e-05,0
1.674,1.9303e-05,0
1.6745,1.4939e-05,0
1.675,1.326e-05,0
1.6755,1.5778e-05,0
1.676,1.4267e-05,0
1.6765,1.1414e-05,0
1.677,1.1749e-05,0
1.6775,1.2421e-05,0
1.678,1.326e-05,0
1.6785,1.091e-05,0
1.679,9.5674e-06,0
1.6795,1.4435e-05,0
1.68,1.6449e-05,0
1.6805,1.561e-05,0
1.681,1.5274e-05,0
1.6815,1.5946e-05,0
1.682,2.031e-05,0
1.6825,2.5345e-05,0
1.683,2.1988e-05,0
1.6835,1.7288e-05,0
1.684,2.031e-05,0
1.6845,2.4002e-05,0
1.685,2.7359e-05,0
1.6855,3.0716e-05,0
1.686,3.2731e-05,0
1.6865,3.3234e-05,0
1.687,3.1388e-05,0
1.6875,2.8702e-05,0
1.688,2.7863e-05,0
1.6885,2.8702e-05,0
1.689,2.4674e-05,0
1.6895,1.8296e-05,0
1.69,1.4435e-05,0
1.6905,1.3596e-05,0
1.691,1.6617e-05,0
1.6915,1.9638e-05,0
1.692,1.7121e-05,0
1.6925,1.9806e-05,0
1.693,2.2492e-05,0
1.6935,1.9974e-05,0
1.694,2.1317e-05,0
1.6945,2.1317e-05,0
1.695,1.7624e-05,0
1.6955,1.326e-05,0
1.696,4.5319e-06,0
1.6965,0,0
1.697,3.1891e-06,0
1.6975,3.1891e-06,0
1.698,2.5177e-06,0
1.6985,4.8676e-06,0
1.699,9.0639e-06,0
1.6995,1.2253e-05,0
1.7,1.3092e-05,0
1.7005,1.3428e-05,0
1.701,1.2253e-05,0
1.7015,1.1749e-05,0
1.702,1.2924e-05,0
1.7025,1.796e-05,0
1.703,2.266e-05,0
1.7035,2.4338e-05,0
1.704,2.3835e-05,0
1.7045,1.8631e-05,0
1.705,1.4267e-05,0
1.7055,1.5946e-05,0
1.706,1.4603e-05,0
1.7065,9.3996e-06,0
1.707,1.1917e-05,0
1.7075,1.5946e-05,0
1.708,1.6785e-05,0
1.7085,2.1317e-05,0
1.709,2.1988e-05,0
1.7095,1.5778e-05,0
1.71,1.326e-05,0
1.7105,1.6449e-05,0
1.711,1.9303e-05,0
1.7115,2.4674e-05,0
1.712,3.1388e-05,0
1.7125,3.6088e-05,0
1.713,3.9277e-05,0
1.7135,4.0284e-05,0
1.714,4.0787e-05,0
1.7145,3.7766e-05,0
1.715,3.3234e-05,0
1.7155,3.3234e-05,0
1.716,3.5248e-05,0
1.7165,3.5248e-05,0
1.717,3.3066e-05,0
1.7175,3.0549e-05,0
1.718,2.6688e-05,0
1.7185,2.6688e-05,0
1.719,2.4842e-05,0
1.7195,1.9303e-05,0
1.72,1.7624e-05,0
1.7205,1.5946e-05,0
1.721,8.896e-06,0
1.7215,3.8605e-06,0
1.722,6.714e-07,0
1.7225,-3.357e-07,0
1.723,4.3641e-06,0
1.7235,7.3854e-06,0
1.724,7.8889e-06,0
1.7245,7.8889e-06,0
1.725,9.9031e-06,0
1.7255,1.2589e-05,0
1.726,1.1917e-05,0
1.7265,8.2246e-06,0
1.727,6.8818e-06,0
1.7275,1.1078e-05,0
1.728,1.6785e-05,0
1.7285,1.6449e-05,0
1.729,1.2253e-05,0
1.7295,1.0239e-05,0
1.73,1.1917e-05,0
1.7305,8.5603e-06,0
1.731,-1.1749e-06,0
1.7315,-5.8747e-06,0
1.732,-1.1749e-06,0
1.7325,9.2317e-06,0
1.733,1.8463e-05,0
1.7335,1.8631e-05,0
1.734,1.5946e-05,0
1.7345,1.9974e-05,0
1.735,2.0646e-05,0
1.7355,1.8296e-05,0
1.736,2.1149e-05,0
1.7365,2.4506e-05,0
1.737,2.3835e-05,0
1.7375,2.3331e-05,0
1.738,2.5009e-05,0
1.7385,2.7024e-05,0
1.739,2.5681e-05,0
1.7395,2.2324e-05,0
1.74,2.1149e-05,0
1.7405,1.9974e-05,0
1.741,1.9806e-05,0
1.7415,2.0981e-05,0
1.742,2.3163e-05,0
1.7425,2.3331e-05,0
1.743,2.6017e-05,0
1.7435,2.8031e-05,0
1.744,2.6352e-05,0
1.7445,2.4842e-05,0
1.745,2.2828e-05,0
1.7455,2.8031e-05,0
1.746,4.0452e-05,0
1.7465,4.5487e-05,0
1.747,4.4816e-05,0
1.7475,4.7669e-05,0
1.748,4.7501e-05,0
1.7485,3.9109e-05,0
1.749,2.9877e-05,0
1.7495,2.4002e-05,0
1.75,1.9638e-05,0
1.7505,1.2757e-05,0
1.751,7.5532e-06,0
1.7515,6.5461e-06,0
1.752,6.8818e-06,0
1.7525,7.7211e-06,0
1.753,9.7353e-06,0
1.7535,1.0575e-05,0
1.754,1.1917e-05,0
1.7545,1.4099e-05,0
1.755,1.7121e-05,0
1.7555,1.9974e-05,0
1.756,2.3331e-05,0
1.7565,2.4002e-05,0
1.757,1.796e-05,0
1.7575,1.3932e-05,0
1.758,1.2253e-05,0
1.7585,1.2589e-05,0
1.759,2.0646e-05,0
1.7595,2.5345e-05,0
1.76,2.4842e-05,0
1.7605,2.7863e-05,0
1.761,2.6017e-05,0
1.7615,1.9135e-05,0
1.762,1.9974e-05,0
1.7625,2.4338e-05,0
1.763,2.4002e-05,0
1.7635,2.031e-05,0
1.764,1.4099e-05,0
1.7645,6.5461e-06,0
1.765,0,0
1.7655,-6.2104e-06,0
1.766,-1.0407e-05,0
1.7665,-1.1582e-05,0
1.767,-5.2033e-06,0
1.7675,-3.357e-07,0
1.768,-3.0213e-06,0
1.7685,-5.0355e-06,0
1.769,1.678e-07,0
1.7695,8.7282e-06,0
1.77,1.2085e-05,0
1.7705,1.6953e-05,0
1.771,2.1653e-05,0
1.7715,2.2492e-05,0
1.772,2.7359e-05,0
1.7725,3.2395e-05,0
1.773,3.743e-05,0
1.7735,4.1795e-05,0
1.774,3.8773e-05,0
1.7745,3.6088e-05,0
1.775,3.8773e-05,0
1.7755,3.9948e-05,0
1.776,4.2466e-05,0
1.7765,4.8173e-05,0
1.777,5.4215e-05,0
1.7775,5.3544e-05,0
1.778,5.0355e-05,0
1.7785,4.683e-05,0
1.779,4.7837e-05,0
1.7795,5.304e-05,0
1.78,5.6062e-05,0
1.7805,5.2705e-05,0
1.781,4.6662e-05,0
1.7815,3.5752e-05,0
1.782,2.2324e-05,0
1.7825,7.3854e-06,0
1.783,-5.539e-06,0
1.7835,-5.539e-06,0
1.784,5.035e-07,0
1.7845,9.7353e-06,0
1.785,1.9806e-05,0
1.7855,2.266e-05,0
1.786,1.9974e-05,0
1.7865,1.7624e-05,0
1.787,9.2317e-06,0
1.7875,2.182e-06,0
1.788,-1.678e-07,0
1.7885,5.035e-07,0
1.789,-1.8463e-06,0
1.7895,-1.0071e-05,0
1.79,-1.7624e-05,0
1.7905,-1.6281e-05,0
1.791,-6.3783e-06,0
1.7915,0,0
1.792,3.6927e-06,0
1.7925,7.7211e-06,0
1.793,1.2589e-05,0
1.7935,1.4099e-05,0
1.794,1.326e-05,0
1.7945,8.2246e-06,0
1.795,-3.357e-07,0
1.7955,-9.2317e-06,0
1.796,-1.091e-05,0
1.7965,-3.5248e-06,0
1.797,1.678e-07,0
1.7975,-3.8605e-06,0
1.798,-1.1917e-05,0
1.7985,-2.0981e-05,0
1.799,-2.6017e-05,0
1.7995,-2.3667e-05,0
1.8,-1.8631e-05,0
1.8005,-1.2924e-05,0
1.801,-5.035e-07,0
1.8015,1.326e-05,0
1.802,1.8967e-05,0
1.8025,2.2324e-05,0
1.803,2.9038e-05,0
1.8035,3.5416e-05,0
1.804,3.7095e-05,0
1.8045,3.4577e-05,0
1.805,3.5416e-05,0
1.8055,4.0452e-05,0
1.806,5.069e-05,0
1.8065,6.2944e-05,0
1.807,6.9657e-05,0
1.8075,6.6468e-05,0
1.808,5.8915e-05,0
1.8085,5.1865e-05,0
1.809,4.3137e-05,0
1.8095,3.743e-05,0
1.81,3.3234e-05,0
1.8105,3.0045e-05,0
1.811,2.7863e-05,0
1.8115,2.0981e-05,0
1.812,1.6114e-05,0
1.8125,2.5345e-05,0
1.813,3.8605e-05,0
1.8135,4.6662e-05,0
1.814,4.6998e-05,0
1.8145,4.2802e-05,0
1.815,3.6759e-05,0
1.8155,3.3906e-05,0
1.816,3.4241e-05,0
1.8165,3.2898e-05,0
1.817,2.266e-05,0
1.8175,6.2104e-06,0
1.818,-1.0575e-05,0
1.8185,-1.9974e-05,0
1.819,-1.8967e-05,0
1.8195,-1.561e-05,0
1.82,-1.9303e-05,0
1.8205,-2.1988e-05,0
1.821,-1.2253e-05,0
1.8215,-8.392e-07,0
1.822,4.5319e-06,0
1.8225,1.0575e-05,0
1.823,1.5946e-05,0
1.8235,2.4674e-05,0
1.824,3.7262e-05,0
1.8245,3.827e-05,0
1.825,2.9374e-05,0
1.8255,2.6688e-05,0
1.826,2.6184e-05,0
1.8265,2.8367e-05,0
1.827,3.0716e-05,0
1.8275,2.7695e-05,0
1.828,2.1988e-05,0
1.8285,2.4338e-05,0
1.829,3.0716e-05,0
1.8295,3.4409e-05,0
1.83,3.7262e-05,0
1.8305,4.2802e-05,0
1.831,5.0523e-05,0
1.8315,5.7237e-05,0
1.832,5.9587e-05,0
1.8325,6.0594e-05,0
1.833,6.0594e-05,0
1.8335,5.4887e-05,0
1.834,4.7837e-05,0
1.8345,4.7837e-05,0
1.835,5.2033e-05,0
1.8355,5.0187e-05,0
1.836,3.9445e-05,0
1.8365,2.8031e-05,0
1.837,1.6617e-05,0
1.8375,-7.0497e-06,0
1.838,-3.6759e-05,0
1.8385,-5.4719e-05,0
1.839,-5.9922e-05,0
1.8395,-5.4215e-05,0
1.84,-4.3977e-05,0
1.8405,-3.9612e-05,0
1.841,-3.8437e-05,0
1.8415,-3.6088e-05,0
1.842,-3.0716e-05,0
1.8425,-1.6785e-05,0
1.843,2.182e-06,0
1.8435,1.3932e-05,0
1.844,1.4939e-05,0
1.8445,1.2589e-05,0
1.845,1.561e-05,0
1.8455,2.182e-05,0
1.846,2.5345e-05,0
1.8465,2.4002e-05,0
1.847,2.1653e-05,0
1.8475,1.8967e-05,0
1.848,2.2828e-05,0
1.8485,3.4745e-05,0
1.849,4.213e-05,0
1.8495,4.1459e-05,0
1.85,4.1795e-05,0
1.8505,3.9109e-05,0
1.851,3.4913e-05,0
1.8515,4.1123e-05,0
1.852,4.4144e-05,0
1.8525,3.8102e-05,0
1.853,3.508e-05,0
1.8535,3.6927e-05,0
1.854,4.0116e-05,0
1.8545,4.1459e-05,0
1.855,3.8773e-05,0
1.8555,3.2059e-05,0
1.856,2.8534e-05,0
1.8565,2.7192e-05,0
1.857,2.8367e-05,0
1.8575,2.9374e-05,0
1.858,2.9374e-05,0
1.8585,2.8031e-05,0
1.859,2.7695e-05,0
1.8595,2.5345e-05,0
1.86,2.2324e-05,0
1.8605,1.9135e-05,0
1.861,1.9135e-05,0
1.8615,2.6688e-05,0
1.862,3.1388e-05,0
1.8625,2.6688e-05,0
1.863,2.1317e-05,0
1.8635,1.4603e-05,0
1.864,8.5603e-06,0
1.8645,7.0497e-06,0
1.865,5.539e-06,0
1.8655,5.8747e-06,0
1.866,6.0426e-06,0
1.8665,3.1891e-06,0
1.867,-2.0142e-06,0
1.8675,-4.8676e-06,0
1.868,-2.5177e-06,0
1.8685,5.7069e-06,0
1.869,1.6449e-05,0
1.8695,2.6017e-05,0
1.87,2.9709e-05,0
1.8705,3.1724e-05,0
1.871,3.7095e-05,0
1.8715,4.6159e-05,0
1.872,5.304e-05,0
1.8725,5.0187e-05,0
1.873,4.4816e-05,0
1.8735,3.9109e-05,0
1.874,3.3402e-05,0
1.8745,3.2563e-05,0
1.875,3.0213e-05,0
1.8755,2.5009e-05,0
1.876,2.0646e-05,0
1.8765,1.6281e-05,0
1.877,1.7121e-05,0
1.8775,2.5345e-05,0
1.878,3.0045e-05,0
1.8785,2.7192e-05,0
1.879,2.5177e-05,0
1.8795,2.6688e-05,0
1.88,2.6352e-05,0
1.8805,3.0549e-05,0
1.881,4.4816e-05,0
1.8815,5.0858e-05,0
1.882,4.2634e-05,0
1.8825,2.8367e-05,0
1.883,1.5274e-05,0
1.8835,6.2104e-06,0
1.884,-3.5248e-06,0
1.8845,-1.6953e-05,0
1.885,-3.0549e-05,0
1.8855,-3.7095e-05,0
1.886,-2.8367e-05,0
1.8865,-1.2589e-05,0
1.887,-2.6856e-06,0
1.8875,3.1891e-06,0
1.888,-2.182e-06,0
1.8885,-1.4435e-05,0
1.889,-1.7288e-05,0
1.8895,-1.6617e-05,0
1.89,-1.8296e-05,0
1.8905,-2.7527e-05,0
1.891,-4.1459e-05,0
1.8915,-4.1459e-05,0
1.892,-2.8199e-05,0
1.8925,-1.6953e-05,0
1.893,-1.3596e-05,0
1.8935,-1.6281e-05,0
1.894,-1.6785e-05,0
1.8945,-1.3596e-05,0
1.895,-8.3925e-06,0
1.8955,-2.182e-06,0
1.896,7.0497e-06,0
1.8965,1.8967e-05,0
1.897,2.6017e-05,0
1.8975,3.122e-05,0
1.898,3.743e-05,0
1.8985,4.0619e-05,0
1.899,3.8773e-05,0
1.8995,3.6591e-05,0
1.9,3.8102e-05,0
1.9005,4.5151e-05,0
1.901,5.1698e-05,0
1.9015,5.6901e-05,0
1.902,6.5293e-05,0
1.9025,6.5965e-05,0
1.903,5.8244e-05,0
1.9035,5.4215e-05,0
1.904,4.9851e-05,0
1.9045,4.6494e-05,0
1.905,5.2537e-05,0
1.9055,5.5558e-05,0
1.906,5.0858e-05,0
1.9065,4.448e-05,0
1.907,3.7095e-05,0
1.9075,3.1052e-05,0
1.908,2.5849e-05,0
1.9085,1.9135e-05,0
1.909,1.1246e-05,0
1.9095,7.7211e-06,0
1.91,5.8747e-06,0
1.9105,-1.3428e-06,0
1.911,-1.5274e-05,0
1.9115,-3.0716e-05,0
1.912,-3.5752e-05,0
1.9125,-3.2563e-05,0
1.913,-2.5009e-05,0
1.9135,-9.9031e-06,0
1.914,4.1962e-06,0
1.9145,1.3596e-05,0
1.915,2.2995e-05,0
1.9155,2.4338e-05,0
1.916,1.6617e-05,0
1.9165,8.7282e-06,0
1.917,9.2317e-06,0
1.9175,2.1988e-05,0
1.918,3.9612e-05,0
1.9185,4.918e-05,0
1.919,5.2537e-05,0
1.9195,5.8915e-05,0
1.92,6.7308e-05,0
1.9205,7.2343e-05,0
1.921,7.6539e-05,0
1.9215,8.2414e-05,0
1.922,8.2078e-05,0
1.9225,7.6036e-05,0
1.923,6.5293e-05,0
1.9235,4.8844e-05,0
1.924,2.6352e-05,0
1.9245,6.3783e-06,0
1.925,-1.0575e-05,0
1.9255,-2.5177e-05,0
1.926,-3.3738e-05,0
1.9265,-2.4674e-05,0
1.927,-1.4939e-05,0
1.9275,-1.5442e-05,0
1.928,-1.7288e-05,0
1.9285,-2.0981e-05,0
1.929,-2.6352e-05,0
1.9295,-2.9374e-05,0
1.93,-2.9374e-05,0
1.9305,-1.9974e-05,0
1.931,-2.8534e-06,0
1.9315,9.0639e-06,0
1.932,1.2253e-05,0
1.9325,1.3092e-05,0
1.933,1.4939e-05,0
1.9335,1.9974e-05,0
1.934,2.8031e-05,0
1.9345,3.6088e-05,0
1.935,3.978e-05,0
1.9355,4.1962e-05,0
1.936,4.5823e-05,0
1.9365,4.8508e-05,0
1.937,4.6494e-05,0
1.9375,4.0619e-05,0
1.938,3.6088e-05,0
1.9385,3.2563e-05,0
1.939,2.7192e-05,0
1.9395,3.0716e-05,0
1.94,3.6759e-05,0
1.9405,4.3809e-05,0
1.941,5.5726e-05,0
1.9415,6.0929e-05,0
1.942,5.4215e-05,0
1.9425,4.8844e-05,0
1.943,4.4312e-05,0
1.9435,3.3234e-05,0
1.944,1.9974e-05,0
1.9445,7.7211e-06,0
1.945,-2.8534e-06,0
1.9455,-1.0742e-05,0
1.946,-1.1917e-05,0
1.9465,-5.8747e-06,0
1.947,3.1891e-06,0
1.9475,1.2924e-05,0
1.948,2.1317e-05,0
1.9485,3.1724e-05,0
1.949,4.1962e-05,0
1.9495,4.5319e-05,0
1.95,4.2298e-05,0
1.9505,3.5752e-05,0
1.951,3.2059e-05,0
1.9515,2.8031e-05,0
1.952,2.1317e-05,0
1.9525,2.182e-05,0
1.953,2.2324e-05,0
1.9535,1.796e-05,0
1.954,1.4603e-05,0
1.9545,7.2175e-06,0
1.955,5.035e-07,0
1.9555,5.2033e-06,0
1.956,1.0407e-05,0
1.9565,1.2253e-05,0
1.957,1.561e-05,0
1.9575,1.9303e-05,0
1.958,1.8631e-05,0
1.9585,1.5946e-05,0
1.959,1.8463e-05,0
1.9595,2.2156e-05,0
1.96,2.0981e-05,0
1.9605,1.326e-05,0
1.961,7.2175e-06,0
1.9615,3.1891e-06,0
1.962,3.1891e-06,0
1.9625,9.7353e-06,0
1.963,1.7288e-05,0
1.9635,1.9303e-05,0
1.964,2.266e-05,0
1.9645,2.4506e-05,0
1.965,1.8967e-05,0
1.9655,1.091e-05,0
1.966,-1.8463e-06,0
1.9665,-1.091e-05,0
1.967,-1.0071e-05,0
1.9675,-8.3925e-06,0
1.968,-8.2246e-06,0
1.9685,-3.0213e-06,0
1.969,2.182e-06,0
1.9695,6.714e-06,0
1.97,1.5778e-05,0
1.9705,2.5681e-05,0
1.971,3.3738e-05,0
1.9715,3.743e-05,0
1.972,3.8102e-05,0
1.9725,4.1962e-05,0
1.973,4.7166e-05,0
1.9735,4.8173e-05,0
1.974,4.683e-05,0
1.9745,4.213e-05,0
1.975,3.6255e-05,0
1.9755,3.1388e-05,0
1.976,3.0213e-05,0
1.9765,3.0213e-05,0
1.977,3.2731e-05,0
1.9775,3.4577e-05,0
1.978,3.2395e-05,0
1.9785,3.6759e-05,0
1.979,4.8173e-05,0
1.9795,6.1265e-05,0
1.98,7.335e-05,0
1.9805,7.335e-05,0
1.981,6.1433e-05,0
1.9815,4.6159e-05,0
1.982,2.6017e-05,0
1.9825,5.539e-06,0
1.983,-9.9031e-06,0
1.9835,-1.9806e-05,0
1.984,-2.5177e-05,0
1.9845,-2.8031e-05,0
1.985,-2.7695e-05,0
1.9855,-2.0646e-05,0
1.986,-1.4099e-05,0
1.9865,-7.0497e-06,0
1.987,9.7353e-06,0
1.9875,3.2395e-05,0
1.988,4.8844e-05,0
1.9885,5.4887e-05,0
1.989,5.4887e-05,0
1.9895,5.2705e-05,0
1.99,4.7837e-05,0
1.9905,4.8676e-05,0
1.991,5.4887e-05,0
1.9915,5.5222e-05,0
1.992,4.7501e-05,0
1.9925,4.8005e-05,0
1.993,5.9251e-05,0
1.9935,6.1097e-05,0
1.994,4.3473e-05,0
1.9945,1.9638e-05,0
1.995,-6.3783e-06,0
1.9955,-3.827e-05,0
1.996,-7.5029e-05,0
1.9965,-0.00011598,0
1.997,-0.00015492,0
1.9975,-0.00018379,0
1.998,-0.00019504,0
1.9985,-0.00018614,0
1.999,-0.00016265,0
1.9995,-0.00012169,0
2,-6.3279e-05,0
2.0005,-5.539e-06,0
2.001,3.1052e-05,0
2.0015,4.6494e-05,0
2.002,5.0523e-05,0
2.0025,5.4383e-05,0
2.003,5.9587e-05,0
2.0035,5.7237e-05,0
2.004,4.6326e-05,0
2.0045,4.1795e-05,0
2.005,4.1795e-05,0
2.0055,4.4816e-05,0
2.006,5.2537e-05,0
2.0065,5.6733e-05,0
2.007,5.5222e-05,0
2.0075,5.3208e-05,0
2.008,5.2033e-05,0
2.0085,5.5055e-05,0
2.009,6.1936e-05,0
2.0095,6.4958e-05,0
2.01,6.4286e-05,0
2.0105,6.2944e-05,0
2.011,6.1097e-05,0
2.0115,5.623e-05,0
2.012,5.3544e-05,0
2.0125,5.7908e-05,0
2.013,6.1936e-05,0
2.0135,6.1265e-05,0
2.014,5.623e-05,0
2.0145,5.3544e-05,0
2.015,5.0858e-05,0
2.0155,3.7766e-05,0
2.016,2.1317e-05,0
2.0165,1.1749e-05,0
2.017,1.0239e-05,0
2.0175,1.3764e-05,0
2.018,1.4267e-05,0
2.0185,9.2317e-06,0
2.019,8.3925e-06,0
2.0195,1.1917e-05,0
2.02,1.8967e-05,0
2.0205,3.0045e-05,0
2.021,3.5248e-05,0
2.0215,3.7095e-05,0
2.022,3.5416e-05,0
2.0225,3.0381e-05,0
2.023,3.3738e-05,0
2.0235,4.6326e-05,0
2.024,5.5558e-05,0
2.0245,6.2272e-05,0
2.025,7.1336e-05,0
2.0255,8.275e-05,0
2.026,9.3492e-05,0
2.0265,0.00010155,0
2.027,0.00010776,0
2.0275,0.00011179,0
2.028,0.00010004,0
2.0285,7.1504e-05,0
2.029,3.5416e-05,0
2.0295,-3.0213e-06,0
2.03,-3.3066e-05,0
2.0305,-4.8844e-05,0
2.031,-6.1433e-05,0
2.0315,-6.1433e-05,0
2.032,-3.8941e-05,0
2.0325,-1.1078e-05,0
2.033,8.2246e-06,0
2.0335,2.5177e-05,0
2.034,3.7934e-05,0
2.0345,3.743e-05,0
2.035,3.3402e-05,0
2.0355,3.1388e-05,0
2.036,2.5681e-05,0
2.0365,1.6114e-05,0
2.037,4.6998e-06,0
2.0375,-1.0407e-05,0
2.038,-1.3596e-05,0
2.0385,-4.0284e-06,0
2.039,1.678e-07,0
2.0395,-6.8818e-06,0
2.04,-2.2828e-05,0
2.0405,-4.1459e-05,0
2.041,-6.1936e-05,0
2.0415,-7.956e-05,0
2.042,-9.4163e-05,0
2.0425,-0.00010877,0
2.043,-0.00011397,0
2.0435,-9.4499e-05,0
2.044,-6.5293e-05,0
2.0445,-4.2466e-05,0
2.045,-1.9303e-05,0
2.0455,8.5603e-06,0
2.046,4.5991e-05,0
2.0465,8.1407e-05,0
2.047,9.2317e-05,0
2.0475,8.4093e-05,0
2.048,7.8721e-05,0
2.0485,7.8386e-05,0
2.049,7.6371e-05,0
2.0495,6.8986e-05,0
2.05,6.0929e-05,0
2.0505,5.6901e-05,0
2.051,5.8076e-05,0
2.0515,5.8244e-05,0
2.052,5.4215e-05,0
2.0525,4.5151e-05,0
2.053,3.2395e-05,0
2.0535,2.031e-05,0
2.054,1.5274e-05,0
2.0545,1.3596e-05,0
2.055,1.4267e-05,0
2.0555,1.3764e-05,0
2.056,1.2924e-05,0
2.0565,1.3596e-05,0
2.057,1.0575e-05,0
2.0575,1.091e-05,0
2.058,1.8296e-05,0
2.0585,2.031e-05,0
2.059,2.0478e-05,0
2.0595,2.8367e-05,0
2.06,3.2731e-05,0
2.0605,3.1052e-05,0
2.061,2.6352e-05,0
2.0615,1.5442e-05,0
2.062,2.3499e-06,0
2.0625,-2.5177e-06,0
2.063,-4.8676e-06,0
2.0635,-1.2757e-05,0
2.064,-2.1988e-05,0
2.0645,-2.3667e-05,0
2.065,-1.8967e-05,0
2.0655,-9.5674e-06,0
2.066,5.035e-07,0
2.0665,1.1078e-05,0
2.067,2.031e-05,0
2.0675,2.3835e-05,0
2.068,2.7695e-05,0
2.0685,3.4577e-05,0
2.069,3.8437e-05,0
2.0695,3.7095e-05,0
2.07,2.8031e-05,0
2.0705,2.031e-05,0
2.071,1.796e-05,0
2.0715,1.561e-05,0
2.072,1.7624e-05,0
2.0725,2.9038e-05,0
2.073,3.7095e-05,0
2.0735,3.827e-05,0
2.074,3.4577e-05,0
2.0745,2.9206e-05,0
2.075,3.1724e-05,0
2.0755,4.4144e-05,0
2.076,5.3544e-05,0
2.0765,5.623e-05,0
2.077,5.623e-05,0
2.0775,5.6901e-05,0
2.078,5.7404e-05,0
2.0785,5.4048e-05,0
2.079,5.1865e-05,0
2.0795,5.4551e-05,0
2.08,6.2608e-05,0
2.0805,6.8986e-05,0
2.081,7.1839e-05,0
2.0815,7.1336e-05,0
2.082,7.8218e-05,0
2.0825,0.00010272,0
2.083,0.0001232,0
2.0835,0.00012454,0
2.084,0.00011699,0
2.0845,0.00010809,0
2.085,9.2149e-05,0
2.0855,6.2944e-05,0
2.086,1.8296e-05,0
2.0865,-2.9709e-05,0
2.087,-6.6636e-05,0
2.0875,-0.00010373,0
2.088,-0.00014704,0
2.0885,-0.00017557,0
2.089,-0.0001848,0
2.0895,-0.00018413,0
2.09,-0.00016197,0
2.0905,-0.00011263,0
2.091,-6.865e-05,0
2.0915,-5.069e-05,0
2.092,-4.3137e-05,0
2.0925,-2.266e-05,0
2.093,1.326e-05,0
2.0935,5.0858e-05,0
2.094,7.9225e-05,0
2.0945,9.4835e-05,0
2.095,0.00010356,0
2.0955,0.00010826,0
2.096,9.8863e-05,0
2.0965,7.3014e-05,0
2.097,3.8773e-05,0
2.0975,1.5106e-06,0
2.098,-2.5681e-05,0
2.0985,-3.9445e-05,0
2.099,-4.918e-05,0
2.0995,-4.2802e-05,0
2.1,-6.5461e-06,0
2.1005,4.8005e-05,0
2.101,8.6946e-05,0
2.1015,8.5267e-05,0
2.102,5.623e-05,0
2.1025,2.031e-05,0
2.103,-1.0575e-05,0
2.1035,-2.6352e-05,0
2.104,-3.0716e-05,0
2.1045,-2.7863e-05,0
2.105,-1.9303e-05,0
2.1055,-1.6281e-05,0
2.106,-2.0478e-05,0
2.1065,-2.2995e-05,0
2.107,-2.031e-05,0
2.1075,-1.6281e-05,0
2.108,-1.6617e-05,0
2.1085,-1.3092e-05,0
2.109,-3.8605e-06,0
2.1095,1.091e-05,0
2.11,2.8199e-05,0
2.1105,3.6088e-05,0
2.111,3.6088e-05,0
2.1115,3.8437e-05,0
2.112,4.3473e-05,0
2.1125,4.9851e-05,0
2.113,5.623e-05,0
2.1135,5.6565e-05,0
2.114,5.3208e-05,0
2.1145,4.7669e-05,0
2.115,4.1795e-05,0
2.1155,4.1795e-05,0
2.116,4.2802e-05,0
2.1165,4.0619e-05,0
2.117,3.9109e-05,0
2.1175,4.1123e-05,0
2.118,4.7333e-05,0
2.1185,6.0929e-05,0
2.119,7.5364e-05,0
2.1195,8.661e-05,0
2.12,9.6513e-05,0
2.1205,0.00010323,0
2.121,0.00010994,0
2.1215,0.00011867,0
2.122,0.00011514,0
2.1225,9.4331e-05,0
2.123,6.3447e-05,0
2.1235,2.0813e-05,0
2.124,-2.4002e-05,0
2.1245,-5.4887e-05,0
2.125,-7.6707e-05,0
2.1255,-9.2653e-05,0
2.126,-8.8121e-05,0
2.1265,-6.3951e-05,0
2.127,-3.9109e-05,0
2.1275,-2.5009e-05,0
2.128,-1.8128e-05,0
2.1285,-1.1749e-05,0
2.129,-8.2246e-06,0
2.1295,-8.2246e-06,0
2.13,-3.357e-06,0
2.1305,7.0497e-06,0
2.131,1.7288e-05,0
2.1315,2.3667e-05,0
2.132,3.2059e-05,0
2.1325,4.0787e-05,0
2.133,4.3641e-05,0
2.1335,4.0619e-05,0
2.134,3.9445e-05,0
2.1345,4.8173e-05,0
2.135,5.4887e-05,0
2.1355,5.5726e-05,0
2.136,6.1433e-05,0
2.1365,6.9657e-05,0
2.137,7.7882e-05,0
2.1375,8.5435e-05,0
2.138,8.745e-05,0
2.1385,8.8289e-05,0
2.139,9.3828e-05,0
2.1395,9.6513e-05,0
2.14,8.7617e-05,0
2.1405,7.3014e-05,0
2.141,6.4286e-05,0
2.1415,6.5126e-05,0
2.142,6.5965e-05,0
2.1425,6.3447e-05,0
2.143,6.4118e-05,0
2.1435,6.2104e-05,0
2.144,4.8173e-05,0
2.1445,2.5009e-05,0
2.145,-6.8818e-06,0
2.1455,-4.1459e-05,0
2.146,-6.5629e-05,0
2.1465,-7.2679e-05,0
2.147,-6.5629e-05,0
2.1475,-5.8579e-05,0
2.148,-7.0161e-05,0
2.1485,-9.4331e-05,0
2.149,-0.00011128,0
2.1495,-0.00011917,0
2.15,-0.00011531,0
2.1505,-8.7617e-05,0
2.151,-4.1459e-05,0
2.1515,8.5603e-06,0
2.152,5.623e-05,0
2.1525,8.5771e-05,0
2.153,9.4499e-05,0
2.1535,9.1142e-05,0
2.154,8.0064e-05,0
2.1545,5.9922e-05,0
2.155,3.1891e-05,0
2.1555,1.1749e-06,0
2.156,-3.2731e-05,0
2.1565,-6.2944e-05,0
2.157,-8.9296e-05,0
2.1575,-0.00011414,0
2.158,-0.00013411,0
2.1585,-0.00014066,0
2.159,-0.00011531,0
2.1595,-6.5629e-05,0
2.16,-9.7353e-06,0
2.1605,3.7095e-05,0
2.161,5.9251e-05,0
2.1615,6.4958e-05,0
2.162,7.6707e-05,0
2.1625,9.2485e-05,0
2.163,0.00010289,0
2.1635,0.00010961,0
2.164,0.00010574,0
2.1645,9.4499e-05,0
2.165,8.6778e-05,0
2.1655,7.335e-05,0
2.166,4.6662e-05,0
2.1665,1.091e-05,0
2.167,-2.4506e-05,0
2.1675,-4.5487e-05,0
2.168,-3.8941e-05,0
2.1685,-1.4267e-05,0
2.169,8.0568e-06,0
2.1695,2.2995e-05,0
2.17,3.7095e-05,0
2.1705,4.9515e-05,0
2.171,5.3544e-05,0
2.1715,5.3544e-05,0
2.172,5.5222e-05,0
2.1725,5.3544e-05,0
2.173,4.6662e-05,0
2.1735,4.6159e-05,0
2.174,4.9515e-05,0
2.1745,5.0858e-05,0
2.175,5.3544e-05,0
2.1755,4.7166e-05,0
2.176,3.2563e-05,0
2.1765,1.796e-05,0
2.177,2.8534e-06,0
2.1775,-5.0355e-06,0
2.178,2.5177e-06,0
2.1785,1.561e-05,0
2.179,2.6017e-05,0
2.1795,3.0716e-05,0
2.18,3.0045e-05,0
2.1805,2.6688e-05,0
2.181,1.9806e-05,0
2.1815,1.6281e-05,0
2.182,2.1988e-05,0
2.1825,2.5345e-05,0
2.183,2.3331e-05,0
2.1835,2.652e-05,0
2.184,3.6088e-05,0
2.1845,5.2201e-05,0
2.185,7.0664e-05,0
2.1855,8.04e-05,0
2.186,8.3757e-05,0
2.1865,8.3085e-05,0
2.187,6.9322e-05,0
2.1875,5.0858e-05,0
2.188,4.1795e-05,0
2.1885,3.743e-05,0
2.189,3.5584e-05,0
2.1895,3.2059e-05,0
2.19,1.1917e-05,0
2.1905,-2.1317e-05,0
2.191,-5.4719e-05,0
2.1915,-8.4428e-05,0
2.192,-9.7353e-05,0
2.1925,-8.4093e-05,0
2.193,-5.3376e-05,0
2.1935,-2.2995e-05,0
2.194,-3.5248e-06,0
2.1945,2.8534e-06,0
2.195,8.392e-07,0
2.1955,-6.714e-07,0
2.196,1.678e-07,0
2.1965,3.6927e-06,0
2.197,1.2253e-05,0
2.1975,2.0646e-05,0
2.198,2.7863e-05,0
2.1985,3.2395e-05,0
2.199,3.4745e-05,0
2.1995,3.8605e-05,0
2.2,3.6088e-05,0
2.2005,3.3402e-05,0
2.201,4.8173e-05,0
2.2015,7.4357e-05,0
2.202,0.00010054,0
2.2025,0.0001237,0
2.203,0.0001378,0
2.2035,0.00014519,0
2.204,0.00014888,0
2.2045,0.00014217,0
2.205,0.0001232,0
2.2055,9.8527e-05,0
2.206,6.4286e-05,0
2.2065,2.1149e-05,0
2.207,-2.0981e-05,0
2.2075,-6.1601e-05,0
2.208,-9.366e-05,0
2.2085,-9.3492e-05,0
2.209,-6.0258e-05,0
2.2095,-1.1246e-05,0
2.21,2.7024e-05,0
2.2105,3.3066e-05,0
2.211,1.8631e-05,0
2.2115,-6.714e-07,0
2.212,-9.0639e-06,0
2.2125,-3.0213e-06,0
2.213,-6.5461e-06,0
2.2135,-2.8367e-05,0
2.214,-5.3544e-05,0
2.2145,-7.1672e-05,0
2.215,-7.4357e-05,0
2.2155,-6.7308e-05,0
2.216,-6.244e-05,0
2.2165,-5.4551e-05,0
2.217,-3.5416e-05,0
2.2175,-1.4939e-05,0
2.218,-1.0239e-05,0
2.2185,-1.9974e-05,0
2.219,-3.3906e-05,0
2.2195,-4.2634e-05,0
2.22,-4.0452e-05,0
2.2205,-3.2563e-05,0
2.221,-1.796e-05,0
2.2215,7.2175e-06,0
2.222,3.7766e-05,0
2.2225,5.4048e-05,0
2.223,5.0187e-05,0
2.2235,4.4984e-05,0
2.224,5.8076e-05,0
2.2245,7.2847e-05,0
2.225,7.3854e-05,0
2.2255,7.4693e-05,0
2.226,7.8386e-05,0
2.2265,8.4093e-05,0
2.227,9.3492e-05,0
2.2275,9.0806e-05,0
2.228,7.4693e-05,0
2.2285,5.7237e-05,0
2.229,3.8773e-05,0
2.2295,1.947e-05,0
2.23,1.0239e-05,0
2.2305,8.5603e-06,0
2.231,1.326e-05,0
2.2315,3.0381e-05,0
2.232,5.0858e-05,0
2.2325,5.7237e-05,0
2.233,4.3137e-05,0
2.2335,2.2995e-05,0
2.234,7.7211e-06,0
2.2345,5.0355e-06,0
2.235,1.1246e-05,0
2.2355,1.7624e-05,0
2.236,2.0142e-05,0
2.2365,1.947e-05,0
2.237,1.2085e-05,0
2.2375,-1.7288e-05,0
2.238,-6.5629e-05,0
2.2385,-9.8192e-05,0
2.239,-9.9535e-05,0
2.2395,-8.5435e-05,0
2.24,-7.1336e-05,0
2.2405,-6.0929e-05,0
2.241,-4.6494e-05,0
2.2415,-2.266e-05,0
2.242,1.5106e-06,0
2.2425,1.8631e-05,0
2.243,3.0045e-05,0
2.2435,4.213e-05,0
2.244,5.623e-05,0
2.2445,6.9657e-05,0
2.245,7.4021e-05,0
2.2455,7.3518e-05,0
2.246,7.5029e-05,0
2.2465,7.7043e-05,0
2.247,8.0064e-05,0
2.2475,8.8457e-05,0
2.248,0.00010373,0
2.2485,0.00011531,0
2.249,0.00011598,0
2.2495,0.00010457,0
2.25,9.4835e-05,0
2.2505,9.1142e-05,0
2.251,9.3492e-05,0
2.2515,9.987e-05,0
2.252,9.1814e-05,0
2.2525,6.0761e-05,0
2.253,1.8631e-05,0
2.2535,-3.3402e-05,0
2.254,-8.1407e-05,0
2.2545,-0.00010793,0
2.255,-0.00010054,0
2.2555,-6.4622e-05,0
2.256,-2.9374e-05,0
2.2565,-1.0407e-05,0
2.257,-2.182e-06,0
2.2575,1.678e-07,0
2.258,7.2175e-06,0
2.2585,1.7456e-05,0
2.259,2.3163e-05,0
2.2595,2.5345e-05,0
2.26,2.5009e-05,0
2.2605,1.7456e-05,0
2.261,9.9031e-06,0
2.2615,6.2104e-06,0
2.262,5.8747e-06,0
2.2625,1.1582e-05,0
2.263,1.4939e-05,0
2.2635,1.0239e-05,0
2.264,4.1962e-06,0
2.2645,5.8747e-06,0
2.265,1.326e-05,0
2.2655,2.3163e-05,0
2.266,3.508e-05,0
2.2665,4.1627e-05,0
2.267,3.9445e-05,0
2.2675,2.9038e-05,0
2.268,1.6281e-05,0
2.2685,1.4603e-05,0
2.269,1.9974e-05,0
2.2695,1.3596e-05,0
2.27,-3.357e-06,0
2.2705,-1.3596e-05,0
2.271,-1.1078e-05,0
2.2715,-1.6785e-06,0
2.272,1.4939e-05,0
2.2725,3.1724e-05,0
2.273,4.6159e-05,0
2.2735,5.3376e-05,0
2.274,5.0523e-05,0
2.2745,4.2298e-05,0
2.275,4.0452e-05,0
2.2755,4.448e-05,0
2.276,4.5487e-05,0
2.2765,3.743e-05,0
2.277,2.4002e-05,0
2.2775,1.1749e-05,0
2.278,3.1891e-06,0
2.2785,8.5603e-06,0
2.279,2.887e-05,0
2.2795,5.2201e-05,0
2.28,7.6371e-05,0
2.2805,0.00010071,0
2.281,0.00010726,0
2.2815,8.7114e-05,0
2.282,4.7837e-05,0
2.2825,5.035e-07,0
2.283,-5.2872e-05,0
2.2835,-0.00010423,0
2.284,-0.0001331,0
2.2845,-0.00013848,0
2.285,-0.00011615,0
2.2855,-6.1433e-05,0
2.286,3.8605e-06,0
2.2865,5.3544e-05,0
2.287,7.57e-05,0
2.2875,7.2679e-05,0
2.288,5.6062e-05,0
2.2885,3.978e-05,0
2.289,3.4409e-05,0
2.2895,4.3473e-05,0
2.29,5.4887e-05,0
2.2905,6.3279e-05,0
2.291,6.2104e-05,0
2.2915,5.539e-05,0
2.292,5.0355e-05,0
2.2925,5.1194e-05,0
2.293,6.865e-05,0
2.2935,9.4163e-05,0
2.294,0.00010306,0
2.2945,8.9128e-05,0
2.295,5.3544e-05,0
2.2955,-4.5319e-06,0
2.296,-7.1336e-05,0
2.2965,-0.00012471,0
2.297,-0.00015291,0
2.2975,-0.00014704,0
2.298,-0.00011917,0
2.2985,-8.8457e-05,0
2.299,-5.6901e-05,0
2.2995,-2.1317e-05,0
2.3,1.2085e-05,0
2.3005,2.887e-05,0
2.301,3.0884e-05,0
2.3015,3.4073e-05,0
2.302,4.3977e-05,0
2.3025,4.6662e-05,0
2.303,4.7166e-05,0
2.3035,5.8579e-05,0
2.304,7.4693e-05,0
2.3045,9.3828e-05,0
2.305,0.00011196,0
2.3055,0.00010726,0
2.306,8.426e-05,0
2.3065,6.8818e-05,0
2.307,5.2872e-05,0
2.3075,2.2324e-05,0
2.308,-1.7624e-05,0
2.3085,-4.8508e-05,0
2.309,-5.3208e-05,0
2.3095,-3.8773e-05,0
2.31,-2.2828e-05,0
2.3105,-1.6785e-05,0
2.311,-2.1317e-05,0
2.3115,-2.6856e-05,0
2.312,-2.4842e-05,0
2.3125,-1.6281e-05,0
2.313,2.182e-06,0
2.3135,3.2731e-05,0
2.314,6.4958e-05,0
2.3145,8.1743e-05,0
2.315,8.0735e-05,0
2.3155,6.7475e-05,0
2.316,5.153e-05,0
2.3165,4.2802e-05,0
2.317,3.7095e-05,0
2.3175,2.2995e-05,0
2.318,1.0239e-05,0
2.3185,2.0142e-06,0
2.319,7.3854e-06,0
2.3195,3.2059e-05,0
2.32,6.5629e-05,0
2.3205,9.5842e-05,0
2.321,0.00010407,0
2.3215,7.4357e-05,0
2.322,2.652e-05,0
2.3225,-1.326e-05,0
2.323,-2.7024e-05,0
2.3235,-7.7211e-06,0
2.324,1.7288e-05,0
2.3245,2.3331e-05,0
2.325,1.2924e-05,0
2.3255,3.0213e-06,0
2.326,7.5532e-06,0
2.3265,1.3596e-05,0
2.327,3.8605e-06,0
2.3275,-1.2253e-05,0
2.328,-1.8967e-05,0
2.3285,-2.2995e-05,0
2.329,-3.0381e-05,0
2.3295,-3.3066e-05,0
2.33,-2.9709e-05,0
2.3305,-2.417e-05,0
2.331,-9.5674e-06,0
2.3315,4.8676e-06,0
2.332,8.5603e-06,0
2.3325,1.3764e-05,0
2.333,1.9974e-05,0
2.3335,2.4338e-05,0
2.334,3.4073e-05,0
2.3345,4.448e-05,0
2.335,4.9348e-05,0
2.3355,5.5222e-05,0
2.336,5.8915e-05,0
2.3365,5.4215e-05,0
2.337,4.213e-05,0
2.3375,2.8702e-05,0
2.338,1.7121e-05,0
2.3385,1.1917e-05,0
2.339,1.5946e-05,0
2.3395,2.1317e-05,0
2.34,2.4002e-05,0
2.3405,2.3331e-05,0
2.341,2.0478e-05,0
2.3415,1.326e-05,0
2.342,5.7069e-06,0
2.3425,7.0497e-06,0
2.343,1.5274e-05,0
2.3435,2.1317e-05,0
2.344,2.2995e-05,0
2.3445,2.266e-05,0
2.345,2.9038e-05,0
2.3455,3.978e-05,0
2.346,4.1459e-05,0
2.3465,3.8102e-05,0
2.347,3.9109e-05,0
2.3475,3.8605e-05,0
2.348,3.1724e-05,0
2.3485,2.0981e-05,0
2.349,1.5274e-05,0
2.3495,1.796e-05,0
2.35,1.8296e-05,0
2.3505,1.3764e-05,0
2.351,1.1246e-05,0
2.3515,7.8889e-06,0
2.352,4.1962e-06,0
2.3525,7.3854e-06,0
2.353,1.4603e-05,0
2.3535,1.326e-05,0
2.354,1.2253e-05,0
2.3545,2.2828e-05,0
2.355,3.8773e-05,0
2.3555,5.153e-05,0
2.356,5.8244e-05,0
2.3565,6.6972e-05,0
2.357,8.0232e-05,0
2.3575,8.8121e-05,0
2.358,8.8457e-05,0
2.3585,7.9225e-05,0
2.359,5.3208e-05,0
2.3595,1.5274e-05,0
2.36,-2.1653e-05,0
2.3605,-4.5823e-05,0
2.361,-4.7501e-05,0
2.3615,-2.652e-05,0
2.362,5.2033e-06,0
2.3625,3.5752e-05,0
2.363,5.8915e-05,0
2.3635,7.1336e-05,0
2.364,7.3854e-05,0
2.3645,7.0664e-05,0
2.365,6.1601e-05,0
2.3655,5.3544e-05,0
2.366,4.8844e-05,0
2.3665,3.8773e-05,0
2.367,1.6953e-05,0
2.3675,-1.9638e-05,0
2.368,-5.6565e-05,0
2.3685,-7.4525e-05,0
2.369,-7.7546e-05,0
2.3695,-6.8986e-05,0
2.37,-5.304e-05,0
2.3705,-4.5991e-05,0
2.371,-4.5991e-05,0
2.3715,-4.0452e-05,0
2.372,-3.0381e-05,0
2.3725,-1.561e-05,0
2.373,1.0071e-06,0
2.3735,5.2033e-06,0
2.374,-1.0071e-06,0
2.3745,-1.0071e-06,0
2.375,7.8889e-06,0
2.3755,1.3092e-05,0
2.376,5.8747e-06,0
2.3765,-9.2317e-06,0
2.377,-1.7288e-05,0
2.3775,-1.1917e-05,0
2.378,1.8463e-06,0
2.3785,7.8889e-06,0
2.379,3.357e-06,0
2.3795,6.5461e-06,0
2.38,2.3331e-05,0
2.3805,4.5151e-05,0
2.381,6.5126e-05,0
2.3815,8.661e-05,0
2.382,0.0001086,0
2.3825,0.00012689,0
2.383,0.00014015,0
2.3835,0.00013713,0
2.384,0.00011028,0
2.3845,7.9393e-05,0
2.385,6.8986e-05,0
2.3855,7.9728e-05,0
2.386,0.00010138,0
2.3865,0.00011901,0
2.387,0.00011397,0
2.3875,9.4499e-05,0
2.388,6.9657e-05,0
2.3885,2.7863e-05,0
2.389,-3.3234e-05,0
2.3895,-0.00010507,0
2.39,-0.00016315,0
2.3905,-0.00018648,0
2.391,-0.00018917,0
2.3915,-0.00020276,0
2.392,-0.00021149,0
2.3925,-0.0001754,0
2.393,-9.3156e-05,0
2.3935,-1.4939e-05,0
2.394,2.3331e-05,0
2.3945,2.9877e-05,0
2.395,9.2317e-06,0
2.3955,-2.0646e-05,0
2.396,-2.8534e-05,0
2.3965,-1.8128e-05,0
2.397,-3.8605e-06,0
2.3975,1.5274e-05,0
2.398,3.508e-05,0
2.3985,5.1362e-05,0
2.399,6.9154e-05,0
2.3995,8.0735e-05,0
2.4,7.9057e-05,0
2.4005,7.4021e-05,0
2.401,7.3686e-05,0
2.4015,7.7714e-05,0
2.402,8.426e-05,0
2.4025,9.0471e-05,0
2.403,8.8457e-05,0
2.4035,8.04e-05,0
2.404,8.0735e-05,0
2.4045,0.00010037,0
2.405,0.00012404,0
2.4055,0.00012673,0
2.406,0.00011666,0
2.4065,0.00010306,0
2.407,8.9632e-05,0
2.4075,6.8482e-05,0
2.408,3.0045e-05,0
2.4085,-1.5274e-05,0
2.409,-4.7669e-05,0
2.4095,-6.4118e-05,0
2.41,-7.1e-05,0
2.4105,-7.1e-05,0
2.411,-6.7811e-05,0
2.4115,-5.5558e-05,0
2.412,-2.6017e-05,0
2.4125,2.4002e-05,0
2.413,7.4357e-05,0
2.4135,9.6513e-05,0
2.414,9.5842e-05,0
2.4145,9.4499e-05,0
2.415,0.00010272,0
2.4155,0.00011145,0
2.416,0.0001086,0
2.4165,9.4499e-05,0
2.417,7.5029e-05,0
2.4175,4.9851e-05,0
2.418,9.5674e-06,0
2.4185,-4.6998e-05,0
2.419,-0.00010021,0
2.4195,-0.00011414,0
2.42,-7.9393e-05,0
2.4205,-1.6953e-05,0
2.421,4.1627e-05,0
2.4215,8.4428e-05,0
2.422,0.00011934,0
2.4225,0.00013814,0
2.423,0.00013243,0
2.4235,0.00010558,0
2.424,6.009e-05,0
2.4245,5.2033e-06,0
2.425,-6.0426e-05,0
2.4255,-0.00012337,0
2.426,-0.0001462,0
2.4265,-0.00012152,0
2.427,-7.6204e-05,0
2.4275,-4.1459e-05,0
2.428,-3.7766e-05,0
2.4285,-5.1194e-05,0
2.429,-4.8508e-05,0
2.4295,-2.7695e-05,0
2.43,-8.0568e-06,0
2.4305,7.2175e-06,0
2.431,3.1388e-05,0
2.4315,5.9754e-05,0
2.432,7.2343e-05,0
2.4325,5.8747e-05,0
2.433,2.6017e-05,0
2.4335,-3.5248e-06,0
2.434,-1.5778e-05,0
2.4345,-1.5106e-06,0
2.435,2.9374e-05,0
2.4355,5.2872e-05,0
2.436,7.4021e-05,0
2.4365,0.00010457,0
2.437,0.00013143,0
2.4375,0.00013881,0
2.438,0.00013764,0
2.4385,0.00014217,0
2.439,0.00014553,0
2.4395,0.0001415,0
2.44,0.00012454,0
2.4405,9.2149e-05,0
2.441,4.4816e-05,0
2.4415,-1.2924e-05,0
2.442,-6.5629e-05,0
2.4425,-0.00010272,0
2.443,-0.00010088,0
2.4435,-4.918e-05,0
2.444,2.4338e-05,0
2.4445,8.2078e-05,0
2.445,0.0001133,0
2.4455,0.00012303,0
2.446,0.00011128,0
2.4465,8.4428e-05,0
2.447,3.9109e-05,0
2.4475,-1.7624e-05,0
2.448,-7.1168e-05,0
2.4485,-0.00010491,0
2.449,-0.00012136,0
2.4495,-0.00012924,0
2.45,-0.00012169,0
2.4505,-0.00010172,0
2.451,-8.2582e-05,0
2.4515,-6.0594e-05,0
2.452,-2.9877e-05,0
2.4525,-1.1749e-06,0
2.453,1.4099e-05,0
2.4535,1.8967e-05,0
2.454,2.2995e-05,0
2.4545,3.1052e-05,0
2.455,3.8102e-05,0
2.4555,4.4816e-05,0
2.456,5.2537e-05,0
2.4565,6.0594e-05,0
2.457,6.6972e-05,0
2.4575,6.9993e-05,0
2.458,7.0664e-05,0
2.4585,6.4286e-05,0
2.459,5.1865e-05,0
2.4595,3.7766e-05,0
2.46,1.561e-05,0
2.4605,-1.0071e-05,0
2.461,-1.7288e-05,0
2.4615,-4.8676e-06,0
2.462,2.5177e-06,0
2.4625,-8.5603e-06,0
2.463,-9.5674e-06,0
2.4635,2.7192e-05,0
2.464,7.8721e-05,0
2.4645,0.00011263,0
2.465,0.00012287,0
2.4655,0.0001227,0
2.466,0.0001284,0
2.4665,0.00013814,0
2.467,0.00014267,0
2.4675,0.00013663,0
2.468,0.00011464,0
2.4685,7.6036e-05,0
2.469,2.4842e-05,0
2.4695,-2.3835e-05,0
2.47,-5.069e-05,0
2.4705,-4.0452e-05,0
2.471,-7.0497e-06,0
2.4715,1.1246e-05,0
2.472,-6.5461e-06,0
2.4725,-4.8508e-05,0
2.473,-9.9367e-05,0
2.4735,-0.00013344,0
2.474,-0.00014519,0
2.4745,-0.00015879,0
2.475,-0.00017876,0
2.4755,-0.00019252,0
2.476,-0.00018077,0
2.4765,-0.0001321,0
2.477,-7.1504e-05,0
2.4775,-2.9374e-05,0
2.478,-4.1962e-06,0
2.4785,1.326e-05,0
2.479,2.6017e-05,0
2.4795,3.7262e-05,0
2.48,5.623e-05,0
2.4805,8.4932e-05,0
2.481,0.00011498,0
2.4815,0.00013663,0
2.482,0.00014922,0
2.4825,0.00016231,0
2.483,0.00017574,0
2.4835,0.00018161,0
2.484,0.00015811,0
2.4845,8.5771e-05,0
2.485,-2.7024e-05,0
2.4855,-0.0001331,0
2.486,-0.00019353,0
2.4865,-0.00019655,0
2.487,-0.0001519,0
2.4875,-9.3156e-05,0
2.488,-3.508e-05,0
2.4885,2.3835e-05,0
2.489,5.8244e-05,0
2.4895,6.009e-05,0
2.49,6.2944e-05,0
2.4905,8.3085e-05,0
2.491,0.00010457,0
2.4915,0.00011565,0
2.492,0.0001227,0
2.4925,0.00012874,0
2.493,0.00012605,0
2.4935,0.00010558,0
2.494,6.5965e-05,0
2.4945,6.8818e-06,0
2.495,-6.2776e-05,0
2.4955,-0.00011716,0
2.496,-0.00012857,0
2.4965,-8.8121e-05,0
2.497,-1.4435e-05,0
2.4975,5.0355e-05,0
2.498,8.7114e-05,0
2.4985,0.00011598,0
2.499,0.0001425,0
2.4995,0.00015358,0
2.5,0.00013864,0
2.5005,8.8792e-05,0
2.501,1.2253e-05,0
2.5015,-4.683e-05,0
2.502,-5.3376e-05,0
2.5025,-6.2104e-06,0
2.503,6.9322e-05,0
2.5035,0.00012387,0
2.504,0.00013797,0
2.5045,0.00013059,0
2.505,0.00012287,0
2.5055,0.00011263,0
2.506,8.745e-05,0
2.5065,5.4887e-05,0
2.507,2.2492e-05,0
2.5075,-2.9542e-05,0
2.508,-0.00011212,0
2.5085,-0.00020377,0
2.509,-0.00024321,0
2.5095,-0.0001989,0
2.51,-0.00011867,0
2.5105,-6.1265e-05,0
2.511,-3.2059e-05,0
2.5115,3.5248e-06,0
2.512,5.1865e-05,0
2.5125,9.7856e-05,0
2.513,0.0001284,0
2.5135,0.00013008,0
2.514,0.00011699,0
2.5145,9.6513e-05,0
2.515,5.6733e-05,0
2.5155,9.2317e-06,0
2.516,-2.4842e-05,0
2.5165,-3.9445e-05,0
2.517,-3.3066e-05,0
2.5175,-1.8631e-05,0
2.518,-2.652e-05,0
2.5185,-6.5965e-05,0
2.519,-0.00010809,0
2.5195,-0.00012622,0
2.52,-0.00011766,0
2.5205,-8.0735e-05,0
2.521,-3.2395e-05,0
2.5215,-3.5248e-06,0
2.522,-3.8605e-06,0
2.5225,-1.1582e-05,0
2.523,2.182e-06,0
2.5235,1.7121e-05,0
2.524,7.2175e-06,0
2.5245,-8.392e-07,0
2.525,1.0071e-05,0
2.5255,3.6088e-05,0
2.526,7.5029e-05,0
2.5265,0.00010759,0
2.527,0.000118,0
2.5275,0.00011028,0
2.528,8.896e-05,0
2.5285,5.4551e-05,0
2.529,2.8367e-05,0
2.5295,2.7359e-05,0
2.53,5.2201e-05,0
2.5305,8.1743e-05,0
2.531,0.00010021,0
2.5315,0.00010591,0
2.532,9.6178e-05,0
2.5325,7.7378e-05,0
2.533,6.9657e-05,0
2.5335,8.9296e-05,0
2.534,0.00012689,0
2.5345,0.00015828,0
2.535,0.00017171,0
2.5355,0.0001603,0
2.536,0.00011582,0
2.5365,5.2705e-05,0
2.537,2.182e-06,0
2.5375,-9.2317e-06,0
2.538,3.8437e-05,0
2.5385,0.00012572,0
2.539,0.00020662,0
2.5395,0.00023331,0
2.54,0.00020125,0
2.5405,0.00011951,0
2.541,-1.561e-05,0
2.5415,-0.0001801,0
2.542,-0.00031203,0
2.5425,-0.0003498,0
2.543,-0.00027947,0
2.5435,-0.00015325,0
2.544,-4.2634e-05,0
2.5445,2.4338e-05,0
2.545,5.2872e-05,0
2.5455,5.2872e-05,0
2.546,4.448e-05,0
2.5465,4.4816e-05,0
2.547,6.3615e-05,0
2.5475,9.0135e-05,0
2.548,7.6036e-05,0
2.5485,5.2033e-06,0
2.549,-7.7378e-05,0
2.5495,-0.00014418,0
2.55,-0.0001984,0
2.5505,-0.0002271,0
2.551,-0.00021703,0
2.5515,-0.00016667,0
2.552,-9.1646e-05,0
2.5525,-2.3835e-05,0
2.553,2.0646e-05,0
2.5535,4.8844e-05,0
2.554,6.9993e-05,0
2.5545,9.3492e-05,0
2.555,0.00012337,0
2.5555,0.00015023,0
2.556,0.00017003,0
2.5565,0.00017574,0
2.557,0.00015828,0
2.5575,0.00012605,0
2.558,9.1814e-05,0
2.5585,5.3544e-05,0
2.559,1.3764e-05,0
2.5595,-2.1653e-05,0
2.56,-5.1194e-05,0
2.5605,-7.1672e-05,0
2.561,-0.00010239,0
2.5615,-0.00017809,0
2.562,-0.00027024,0
2.5625,-0.00027611,0
2.563,-0.00016852,0
2.5635,-3.0884e-05,0
2.564,5.2201e-05,0
2.5645,6.7979e-05,0
2.565,5.0187e-05,0
2.5655,1.8296e-05,0
2.566,-1.8296e-05,0
2.5665,-2.8534e-05,0
2.567,-4.5319e-06,0
2.5675,3.743e-05,0
2.568,6.6972e-05,0
2.5685,5.9251e-05,0
2.569,2.0981e-05,0
2.5695,-1.2253e-05,0
2.57,6.714e-07,0
2.5705,5.2872e-05,0
2.571,9.5506e-05,0
2.5715,9.987e-05,0
2.572,6.6972e-05,0
2.5725,2.0142e-05,0
2.573,2.5177e-06,0
2.5735,4.7501e-05,0
2.574,0.00012203,0
2.5745,0.00017272,0
2.575,0.00019319,0
2.5755,0.00019252,0
2.576,0.00018027,0
2.5765,0.0001613,0
2.577,0.00011716,0
2.5775,6.3783e-05,0
2.578,4.213e-05,0
2.5785,5.4551e-05,0
2.579,8.5603e-05,0
2.5795,0.00011061,0
2.58,9.8527e-05,0
2.5805,6.0929e-05,0
2.581,3.0381e-05,0
2.5815,-1.1414e-05,0
2.582,-9.1646e-05,0
2.5825,-0.00016953,0
2.583,-0.00019387,0
2.5835,-0.00016634,0
2.584,-0.00011598,0
2.5845,-5.3544e-05,0
2.585,1.7288e-05,0
2.5855,7.4357e-05,0
2.586,0.00010692,0
2.5865,0.00012673,0
2.587,0.00014133,0
2.5875,0.00015056,0
2.588,0.00014871,0
2.5885,0.0001331,0
2.589,0.00010944,0
2.5895,8.6442e-05,0
2.59,3.2563e-05,0
2.5905,-6.6636e-05,0
2.591,-0.00016164,0
2.5915,-0.00021233,0
2.592,-0.00020864,0
2.5925,-0.00016432,0
2.593,-0.00010726,0
2.5935,-4.4984e-05,0
2.594,1.4939e-05,0
2.5945,5.6901e-05,0
2.595,7.805e-05,0
2.5955,8.1407e-05,0
2.596,7.57e-05,0
2.5965,6.3951e-05,0
2.597,5.1362e-05,0
2.5975,5.1362e-05,0
2.598,6.9322e-05,0
2.5985,8.51e-05,0
2.599,7.6036e-05,0
2.5995,4.0452e-05,0
2.6,8.2246e-06,0
2.6005,6.2104e-06,0
2.601,2.4674e-05,0
2.6015,2.887e-05,0
2.602,1.1749e-05,0
2.6025,-2.5177e-06,0
2.603,-1.091e-05,0
2.6035,-1.5274e-05,0
2.604,-7.7211e-06,0
2.6045,9.0639e-06,0
2.605,2.2492e-05,0
2.6055,2.7863e-05,0
2.606,1.2757e-05,0
2.6065,-9.5674e-06,0
2.607,-4.8676e-06,0
2.6075,2.0478e-05,0
2.608,4.6159e-05,0
2.6085,7.5029e-05,0
2.609,0.00011464,0
2.6095,0.00016349,0
2.61,0.00020528,0
2.6105,0.00022911,0
2.611,0.00023684,0
2.6115,0.00022274,0
2.612,0.0001519,0
2.6125,3.8773e-05,0
2.613,-5.8579e-05,0
2.6135,-0.00012287,0
2.614,-0.00014385,0
2.6145,-0.00012673,0
2.615,-8.6442e-05,0
2.6155,-3.3738e-05,0
2.616,-4.1962e-06,0
2.6165,-3.1556e-05,0
2.617,-0.00010138,0
2.6175,-0.00016097,0
2.618,-0.00017288,0
2.6185,-0.000142,0
2.619,-8.745e-05,0
2.6195,-2.9206e-05,0
2.62,1.9806e-05,0
2.6205,5.5222e-05,0
2.621,7.805e-05,0
2.6215,8.275e-05,0
2.622,5.4551e-05,0
2.6225,8.2246e-06,0
2.623,-1.2924e-05,0
2.6235,1.9303e-05,0
2.624,9.3156e-05,0
2.6245,0.00015996,0
2.625,0.00017809,0
2.6255,0.00014687,0
2.626,0.00010121,0
2.6265,8.2918e-05,0
2.627,9.1814e-05,0
2.6275,9.6345e-05,0
2.628,6.0594e-05,0
2.6285,3.357e-07,0
2.629,-4.3137e-05,0
2.6295,-5.8244e-05,0
2.63,-7.5532e-05,0
2.6305,-0.00010726,0
2.631,-0.00011514,0
2.6315,-7.8386e-05,0
2.632,-2.5009e-05,0
2.6325,2.0981e-05,0
2.633,4.8173e-05,0
2.6335,6.0258e-05,0
2.634,5.4719e-05,0
2.6345,2.5681e-05,0
2.635,-1.8463e-05,0
2.6355,-5.1698e-05,0
2.636,-6.2776e-05,0
2.6365,-6.2608e-05,0
2.637,-5.8747e-05,0
2.6375,-4.2466e-05,0
2.638,-1.7456e-05,0
2.6385,1.8463e-06,0
2.639,1.4939e-05,0
2.6395,2.8367e-05,0
2.64,3.4073e-05,0
2.6405,2.0646e-05,0
2.641,3.8605e-06,0
2.6415,9.9031e-06,0
2.642,2.7695e-05,0
2.6425,4.3809e-05,0
2.643,6.0594e-05,0
2.6435,7.2175e-05,0
2.644,7.6875e-05,0
2.6445,8.3757e-05,0
2.645,9.3324e-05,0
2.6455,0.00011162,0
2.646,0.00013478,0
2.6465,0.0001556,0
2.647,0.0001697,0
2.6475,0.00016231,0
2.648,0.00013529,0
2.6485,0.00012236,0
2.649,0.00013176,0
2.6495,0.0001415,0
2.65,0.00010927,0
2.6505,3.0716e-05,0
2.651,-4.0955e-05,0
2.6515,-7.9057e-05,0
2.652,-8.0232e-05,0
2.6525,-5.1194e-05,0
2.653,-2.6017e-05,0
2.6535,-6.8818e-06,0
2.654,2.9709e-05,0
2.6545,8.1071e-05,0
2.655,0.00013478,0
2.6555,0.00016869,0
2.656,0.00018245,0
2.6565,0.00018077,0
2.657,0.00016768,0
2.6575,0.00012068,0
2.658,1.3596e-05,0
2.6585,-0.00013428,0
2.659,-0.00026503,0
2.6595,-0.00030246,0
2.66,-0.00022391,0
2.6605,-0.00011363,0
2.661,-6.8986e-05,0
2.6615,-6.9993e-05,0
2.662,-5.9419e-05,0
2.6625,-2.6352e-05,0
2.663,1.8463e-05,0
2.6635,4.1962e-05,0
2.664,1.5778e-05,0
2.6645,-4.1795e-05,0
2.665,-9.601e-05,0
2.6655,-0.00012136,0
2.666,-0.00010524,0
2.6665,-5.7069e-05,0
2.667,1.6785e-06,0
2.6675,4.8508e-05,0
2.668,5.7404e-05,0
2.6685,2.5009e-05,0
2.669,-1.1246e-05,0
2.6695,-1.3428e-05,0
2.67,1.0575e-05,0
2.6705,1.3932e-05,0
2.671,-8.5603e-06,0
2.6715,-1.091e-05,0
2.672,1.6617e-05,0
2.6725,3.8437e-05,0
2.673,4.2298e-05,0
2.6735,2.9374e-05,0
2.674,1.2757e-05,0
2.6745,1.8128e-05,0
2.675,5.153e-05,0
2.6755,8.9128e-05,0
2.676,0.00012203,0
2.6765,0.0001561,0
2.677,0.00017977,0
2.6775,0.00017826,0
2.678,0.00015291,0
2.6785,0.00012538,0
2.679,0.00010423,0
2.6795,4.7166e-05,0
2.68,-3.8437e-05,0
2.6805,-8.275e-05,0
2.681,-7.0664e-05,0
2.6815,-3.8102e-05,0
2.682,-3.0716e-05,0
2.6825,-7.1336e-05,0
2.683,-0.00011397,0
2.6835,-9.5003e-05,0
2.684,-4.4816e-05,0
2.6845,-2.0981e-05,0
2.685,-2.4338e-05,0
2.6855,-2.031e-05,0
2.686,1.2589e-05,0
2.6865,6.2608e-05,0
2.687,0.00010289,0
2.6875,0.00011716,0
2.688,0.00011128,0
2.6885,9.1142e-05,0
2.689,6.1601e-05,0
2.6895,3.5416e-05,0
2.69,3.6759e-05,0
2.6905,8.2918e-05,0
2.691,0.00014687,0
2.6915,0.00015341,0
2.692,7.7378e-05,0
2.6925,-1.2253e-05,0
2.693,-8.2246e-06,0
2.6935,8.9128e-05,0
2.694,0.00016902,0
2.6945,0.00018296,0
2.695,0.0001472,0
2.6955,7.7714e-05,0
2.696,-2.031e-05,0
2.6965,-0.00013126,0
2.697,-0.00021904,0
2.6975,-0.00025463,0
2.698,-0.00023532,0
2.6985,-0.00018379,0
2.699,-0.00013378,0
2.6995,-9.9031e-05,0
2.7,-7.3014e-05,0
2.7005,-4.3137e-05,0
2.701,-1.5946e-05,0
2.7015,2.182e-06,0
2.702,7.7211e-06,0
2.7025,6.5461e-06,0
2.703,7.2175e-06,0
2.7035,1.3932e-05,0
2.704,3.2059e-05,0
2.7045,6.0258e-05,0
2.705,8.2582e-05,0
2.7055,8.3757e-05,0
2.706,7.3686e-05,0
2.7065,6.8818e-05,0
2.707,5.8915e-05,0
2.7075,4.7166e-05,0
2.708,6.0258e-05,0
2.7085,0.00010088,0
2.709,0.00013613,0
2.7095,0.00013915,0
2.71,0.00012236,0
2.7105,0.00011095,0
2.711,0.00010726,0
2.7115,0.00010407,0
2.712,7.7043e-05,0
2.7125,1.4435e-05,0
2.713,-4.3473e-05,0
2.7135,-7.2679e-05,0
2.714,-8.3589e-05,0
2.7145,-8.4093e-05,0
2.715,-7.7211e-05,0
2.7155,-5.9419e-05,0
2.716,-2.8031e-05,0
2.7165,-8.392e-07,0
2.717,1.796e-05,0
2.7175,2.6688e-05,0
2.718,2.6017e-05,0
2.7185,2.4002e-05,0
2.719,3.6423e-05,0
2.7195,7.5029e-05,0
2.72,0.00012001,0
2.7205,0.0001561,0
2.721,0.00017339,0
2.7215,0.00015023,0
2.722,9.2149e-05,0
2.7225,1.4603e-05,0
2.723,-2.7695e-05,0
2.7235,8.392e-07,0
2.724,4.9515e-05,0
2.7245,5.2705e-05,0
2.725,5.2033e-06,0
2.7255,-3.4745e-05,0
2.726,-2.1988e-05,0
2.7265,2.9374e-05,0
2.727,7.335e-05,0
2.7275,7.9393e-05,0
2.728,6.7979e-05,0
2.7285,6.6804e-05,0
2.729,8.1071e-05,0
2.7295,9.3828e-05,0
2.73,9.0806e-05,0
2.7305,6.9993e-05,0
2.731,2.9877e-05,0
2.7315,-2.0142e-05,0
2.732,-3.8773e-05,0
2.7325,-1.9135e-05,0
2.733,-2.7359e-05,0
2.7335,-6.949e-05,0
2.734,-7.6204e-05,0
2.7345,-2.5345e-05,0
2.735,5.4719e-05,0
2.7355,0.0001279,0
2.736,0.00016667,0
2.7365,0.00012874,0
2.737,-1.6449e-05,0
2.7375,-0.00021367,0
2.738,-0.00033167,0
2.7385,-0.00029088,0
2.739,-0.00014771,0
2.7395,-1.0575e-05,0
2.74,7.2343e-05,0
2.7405,0.00011363,0
2.741,0.00012975,0
2.7415,0.00010927,0
2.742,1.561e-05,0
2.7425,-0.00014485,0
2.743,-0.00030532,0
2.7435,-0.00034443,0
2.744,-0.00022844,0
2.7445,-9.1814e-05,0
2.745,-5.5055e-05,0
2.7455,-6.1601e-05,0
2.746,-2.9542e-05,0
2.7465,3.7262e-05,0
2.747,0.00010155,0
2.7475,0.00014217,0
2.748,0.0001655,0
2.7485,0.00019017,0
2.749,0.00021032,0
2.7495,0.0002083,0
2.75,0.00018447,0
2.7505,0.00013881,0
2.751,7.335e-05,0
2.7515,3.8605e-05,0
2.752,6.4286e-05,0
2.7525,0.00012068,0
2.753,0.0001801,0
2.7535,0.00020864,0
2.754,0.00014553,0
2.7545,-1.6953e-05,0
2.755,-0.00016953,0
2.7555,-0.00024372,0
2.756,-0.00024623,0
2.7565,-0.00018849,0
2.757,-0.00010105,0
2.7575,-4.4816e-05,0
2.758,-3.3906e-05,0
2.7585,-5.7069e-06,0
2.759,5.2872e-05,0
2.7595,9.6178e-05,0
2.76,0.00012471,0
2.7605,0.00015526,0
2.761,0.00017809,0
2.7615,0.00018094,0
2.762,0.00013948,0
2.7625,2.031e-05,0
2.763,-0.00012891,0
2.7635,-0.0001937,0
2.764,-0.00014083,0
2.7645,-4.8508e-05,0
2.765,-1.2924e-05,0
2.7655,-3.1724e-05,0
2.766,-3.3906e-05,0
2.7665,-6.714e-07,0
2.767,2.9709e-05,0
2.7675,2.9877e-05,0
2.768,1.8967e-05,0
2.7685,2.031e-05,0
2.769,1.3596e-05,0
2.7695,-1.796e-05,0
2.77,-4.1795e-05,0
2.7705,-4.9683e-05,0
2.771,-5.8747e-05,0
2.7715,-5.8747e-05,0
2.772,-3.508e-05,0
2.7725,1.0239e-05,0
2.773,6.6804e-05,0
2.7735,0.00010524,0
2.774,0.00011582,0
2.7745,0.00011598,0
2.775,0.00011582,0
2.7755,0.00011867,0
2.776,0.00012303,0
2.7765,0.00011884,0
2.777,0.00011246,0
2.7775,9.8192e-05,0
2.778,4.7669e-05,0
2.7785,-1.6281e-05,0
2.779,-3.357e-05,0
2.7795,1.0575e-05,0
2.78,6.7979e-05,0
2.7805,9.7017e-05,0
2.781,0.00010524,0
2.7815,0.00010826,0
2.782,0.0001086,0
2.7825,0.00011313,0
2.783,0.00012068,0
2.7835,0.000118,0
2.784,0.00010776,0
2.7845,0.00010591,0
2.785,9.6513e-05,0
2.7855,7.1504e-05,0
2.786,3.8773e-05,0
2.7865,3.0213e-06,0
2.787,-1.4939e-05,0
2.7875,1.0071e-05,0
2.788,5.5055e-05,0
2.7885,8.6107e-05,0
2.789,7.2175e-05,0
2.7895,-1.1749e-06,0
2.79,-7.4021e-05,0
2.7905,-0.00010491,0
2.791,-9.5674e-05,0
2.7915,-5.9754e-05,0
2.792,-1.2924e-05,0
2.7925,3.0716e-05,0
2.793,6.7643e-05,0
2.7935,9.752e-05,0
2.794,0.00012471,0
2.7945,0.00014922,0
2.795,0.0001462,0
2.7955,0.00012354,0
2.796,0.00010944,0
2.7965,9.1142e-05,0
2.797,6.6972e-05,0
2.7975,5.7404e-05,0
2.798,7.4021e-05,0
2.7985,0.00010658,0
2.799,8.5267e-05,0
2.7995,-2.8367e-05,0
2.8,-0.00014284,0
2.8005,-0.0002229,0
2.801,-0.00029659,0
2.8015,-0.00030632,0
2.802,-0.00022341,0
2.8025,-0.00012505,0
2.803,-8.5435e-05,0
2.8035,-0.00010843,0
2.804,-0.00011917,0
2.8045,-8.6778e-05,0
2.805,-4.3473e-05,0
2.8055,-1.326e-05,0
2.806,-1.1246e-05,0
2.8065,-4.683e-05,0
2.807,-0.00011531,0
2.8075,-0.00015258,0
2.808,-0.00011833,0
2.8085,-6.1265e-05,0
2.809,-3.7598e-05,0
2.8095,-3.6423e-05,0
2.81,-1.4435e-05,0
2.8105,3.2731e-05,0
2.811,7.0329e-05,0
2.8115,7.8553e-05,0
2.812,5.9587e-05,0
2.8125,3.1388e-05,0
2.813,2.2995e-05,0
2.8135,3.8605e-05,0
2.814,6.0761e-05,0
2.8145,8.7785e-05,0
2.815,9.836e-05,0
2.8155,6.7643e-05,0
2.816,2.6184e-05,0
2.8165,6.5461e-06,0
2.817,5.0355e-06,0
2.8175,1.3596e-05,0
2.818,3.2731e-05,0
2.8185,5.2033e-05,0
2.819,7.0161e-05,0
2.8195,9.5506e-05,0
2.82,0.0001279,0
2.8205,0.0001519,0
2.821,0.00014955,0
2.8215,0.00013008,0
2.822,0.00010692,0
2.8225,6.6972e-05,0
2.823,-4.1962e-06,0
2.8235,-6.6133e-05,0
2.824,-7.5364e-05,0
2.8245,-6.7475e-05,0
2.825,-5.5558e-05,0
2.8255,-1.4267e-05,0
2.826,5.4215e-05,0
2.8265,0.00011179,0
2.827,0.00012035,0
2.8275,8.1575e-05,0
2.828,2.652e-05,0
2.8285,-5.7069e-06,0
2.829,-2.182e-06,0
2.8295,1.326e-05,0
2.83,2.9038e-05,0
2.8305,4.6662e-05,0
2.831,4.683e-05,0
2.8315,3.0716e-05,0
2.832,2.3835e-05,0
2.8325,3.122e-05,0
2.833,4.2298e-05,0
2.8335,4.8005e-05,0
2.834,4.2466e-05,0
2.8345,3.0549e-05,0
2.835,2.5345e-05,0
2.8355,6.2104e-05,0
2.836,0.00012421,0
2.8365,0.00015459,0
2.837,9.3492e-05,0
2.8375,1.678e-07,0
2.838,1.4603e-05,0
2.8385,0.00013143,0
2.839,0.00023717,0
2.8395,0.00023885,0
2.84,7.5364e-05,0
2.8405,-0.00016953,0
2.841,-0.0002892,0
2.8415,-0.00021804,0
2.842,-8.1575e-05,0
2.8425,1.1749e-06,0
2.843,9.2317e-06,0
2.8435,-2.7863e-05,0
2.844,-5.153e-05,0
2.8445,-2.5009e-05,0
2.845,2.8367e-05,0
2.8455,5.623e-05,0
2.846,5.9922e-05,0
2.8465,8.1071e-05,0
2.847,0.00011162,0
2.8475,9.752e-05,0
2.848,5.2705e-05,0
2.8485,2.7695e-05,0
2.849,5.0355e-06,0
2.8495,-3.3234e-05,0
2.85,-5.9587e-05,0
2.8505,-7.9225e-05,0
2.851,-0.00011162,0
2.8515,-0.00013512,0
2.852,-0.00012706,0
2.8525,-8.7953e-05,0
2.853,-4.6159e-05,0
2.8535,-8.5603e-06,0
2.854,2.5345e-05,0
2.8545,3.5416e-05,0
2.855,1.9806e-05,0
2.8555,-5.035e-07,0
2.856,-4.3641e-06,0
2.8565,-7.0497e-06,0
2.857,-1.1582e-05,0
2.8575,6.8818e-06,0
2.858,4.5991e-05,0
2.8585,7.7378e-05,0
2.859,9.366e-05,0
2.8595,9.7017e-05,0
2.86,8.6946e-05,0
2.8605,5.9754e-05,0
2.861,2.9709e-05,0
2.8615,9.5674e-06,0
2.862,3.1891e-06,0
2.8625,1.2589e-05,0
2.863,1.5274e-05,0
2.8635,2.8534e-06,0
2.864,-8.5603e-06,0
2.8645,-8.2246e-06,0
2.865,1.3932e-05,0
2.8655,4.6662e-05,0
2.866,5.3544e-05,0
2.8665,3.4409e-05,0
2.867,1.7624e-05,0
2.8675,2.031e-05,0
2.868,4.5991e-05,0
2.8685,8.04e-05,0
2.869,9.2989e-05,0
2.8695,7.1e-05,0
2.87,2.6184e-05,0
2.8705,-1.2924e-05,0
2.871,-3.122e-05,0
2.8715,-5.2537e-05,0
2.872,-7.1504e-05,0
2.8725,-3.5752e-05,0
2.873,5.2705e-05,0
2.8735,0.00014536,0
2.874,0.00020595,0
2.8745,0.00021971,0
2.875,0.0001942,0
2.8755,0.00016617,0
2.876,0.00014788,0
2.8765,0.00013663,0
2.877,0.00013545,0
2.8775,0.00012337,0
2.878,0.00011884,0
2.8785,0.00010793,0
2.879,1.947e-05,0
2.8795,-9.9535e-05,0
2.88,-0.00016617,0
2.8805,-0.00019789,0
2.881,-0.0001994,0
2.8815,-0.000166,0
2.882,-0.00015761,0
2.8825,-0.00019353,0
2.883,-0.00020528,0
2.8835,-0.00015929,0
2.884,-9.6178e-05,0
2.8845,-4.8676e-05,0
2.885,-2.2324e-05,0
2.8855,-5.8747e-06,0
2.886,1.7288e-05,0
2.8865,5.1865e-05,0
2.887,9.4499e-05,0
2.8875,0.00012605,0
2.888,0.00012068,0
2.8885,8.2582e-05,0
2.889,4.8844e-05,0
2.8895,7.0832e-05,0
2.89,0.00011934,0
2.8905,9.987e-05,0
2.891,2.2828e-05,0
2.8915,-1.9303e-05,0
2.892,-3.357e-06,0
2.8925,3.2563e-05,0
2.893,7.2847e-05,0
2.8935,0.00012186,0
2.894,0.00017977,0
2.8945,0.0002177,0
2.895,0.00019655,0
2.8955,0.0001462,0
2.896,0.00013227,0
2.8965,0.00015962,0
2.897,0.00016214,0
2.8975,0.00010088,0
2.898,-2.2156e-05,0
2.8985,-0.0001697,0
2.899,-0.00025664,0
2.8995,-0.00024053,0
2.9,-0.00014385,0
2.9005,-3.2395e-05,0
2.901,2.6688e-05,0
2.9015,2.0646e-05,0
2.902,4.1962e-06,0
2.9025,3.0884e-05,0
2.903,6.5965e-05,0
2.9035,4.4984e-05,0
2.904,-2.4842e-05,0
2.9045,-7.9393e-05,0
2.905,-6.4958e-05,0
2.9055,0,0
2.906,4.2802e-05,0
2.9065,2.6184e-05,0
2.907,-4.5319e-06,0
2.9075,-4.1962e-06,0
2.908,2.0646e-05,0
2.9085,3.5416e-05,0
2.909,2.5345e-05,0
2.9095,4.5151e-05,0
2.91,0.0001039,0
2.9105,0.000118,0
2.911,5.9922e-05,0
2.9115,2.266e-05,0
2.912,7.1672e-05,0
2.9125,0.00016449,0
2.913,0.00020696,0
2.9135,0.00015828,0
2.914,4.8844e-05,0
2.9145,-0.00010037,0
2.915,-0.00025463,0
2.9155,-0.00032261,0
2.916,-0.00025966,0
2.9165,-0.00014418,0
2.917,-7.2175e-05,0
2.9175,-2.7527e-05,0
2.918,1.7288e-05,0
2.9185,5.623e-05,0
2.919,8.0064e-05,0
2.9195,8.9799e-05,0
2.92,0.00010289,0
2.9205,0.00010793,0
2.921,8.2414e-05,0
2.9215,4.9515e-05,0
2.922,2.2492e-05,0
2.9225,1.1414e-05,0
2.923,1.9638e-05,0
2.9235,-5.0355e-06,0
2.924,-6.3447e-05,0
2.9245,-8.4596e-05,0
2.925,-4.6326e-05,0
2.9255,5.539e-06,0
2.926,3.2731e-05,0
2.9265,2.3667e-05,0
2.927,-5.539e-06,0
2.9275,-1.2589e-05,0
2.928,1.5778e-05,0
2.9285,6.3951e-05,0
2.929,0.00011632,0
2.9295,0.00015392,0
2.93,0.00016248,0
2.9305,0.00012807,0
2.931,6.1601e-05,0
2.9315,2.887e-05,0
2.932,6.7475e-05,0
2.9325,0.00013747,0
2.933,0.0001697,0
2.9335,0.00012572,0
2.934,1.7288e-05,0
2.9345,-8.3085e-05,0
2.935,-0.00014922,0
2.9355,-0.00018128,0
2.936,-0.00014553,0
2.9365,-6.714e-05,0
2.937,-1.9638e-05,0
2.9375,-3.4577e-05,0
2.938,-4.2634e-05,0
2.9385,1.796e-05,0
2.939,0.00010289,0
2.9395,0.00014855,0
2.94,0.00017037,0
2.9405,0.00020864,0
2.941,0.0002365,0
2.9415,0.00021703,0
2.942,0.00017624,0
2.9425,0.00016046,0
2.943,0.00017121,0
2.9435,0.00014485,0
2.944,4.8508e-05,0
2.9445,-4.683e-05,0
2.945,-8.8457e-05,0
2.9455,-0.00016214,0
2.946,-0.00031891,0
2.9465,-0.00041627,0
2.947,-0.00030632,0
2.9475,-4.5151e-05,0
2.948,0.0001843,0
2.9485,0.00023986,0
2.949,0.00010054,0
2.9495,-0.00010423,0
2.95,-0.00021267,0
2.9505,-0.00017137,0
2.951,-1.7624e-05,0
2.9515,0.00012706,0
2.952,0.0001697,0
2.9525,0.00012857,0
2.953,5.623e-05,0
2.9535,-1.6785e-05,0
2.954,-4.448e-05,0
2.9545,-2.9206e-05,0
2.955,-2.417e-05,0
2.9555,-5.6565e-05,0
2.956,-9.5506e-05,0
2.9565,-9.5506e-05,0
2.957,-8.5771e-05,0
2.9575,-7.5868e-05,0
2.958,-3.2563e-05,0
2.9585,2.6688e-05,0
2.959,4.0787e-05,0
2.9595,2.1653e-05,0
2.96,3.9109e-05,0
2.9605,8.4428e-05,0
2.961,0.00010726,0
2.9615,9.9535e-05,0
2.962,8.426e-05,0
2.9625,8.0903e-05,0
2.963,8.8457e-05,0
2.9635,8.8792e-05,0
2.964,7.1168e-05,0
2.9645,6.7643e-05,0
2.965,9.0806e-05,0
2.9655,6.3279e-05,0
2.966,-1.796e-05,0
2.9665,-2.5849e-05,0
2.967,5.1698e-05,0
2.9675,0.00011363,0
2.968,0.00011867,0
2.9685,0.00010356,0
2.969,8.9799e-05,0
2.9695,7.2007e-05,0
2.97,2.031e-05,0
2.9705,-7.3518e-05,0
2.971,-0.00013478,0
2.9715,-0.00010088,0
2.972,-2.1653e-05,0
2.9725,2.031e-05,0
2.973,2.266e-05,0
2.9735,8.5603e-06,0
2.974,5.2033e-06,0
2.9745,3.978e-05,0
2.975,8.3589e-05,0
2.9755,7.8386e-05,0
2.976,2.3331e-05,0
2.9765,-2.1988e-05,0
2.977,-1.3596e-05,0
2.9775,-5.035e-07,0
2.978,-3.6423e-05,0
2.9785,-0.00011833,0
2.979,-0.00018279,0
2.9795,-0.00015795,0
2.98,-7.8721e-05,0
2.9805,-3.9109e-05,0
2.981,-2.7359e-05,0
2.9815,-3.6927e-06,0
2.982,2.0981e-05,0
2.9825,2.266e-05,0
2.983,-2.3499e-06,0
2.9835,-2.1653e-05,0
2.984,-1.4939e-05,0
2.9845,6.5461e-06,0
2.985,3.5752e-05,0
2.9855,9.0806e-05,0
2.986,0.00017507,0
2.9865,0.00025933,0
2.987,0.00031572,0
2.9875,0.000355,0
2.988,0.00038303,0
2.9885,0.00038119,0
2.989,0.00036272,0
2.9895,0.00033117,0
2.99,0.00023684,0
2.9905,8.0903e-05,0
2.991,-8.8792e-05,0
2.9915,-0.00021653,0
2.992,-0.00026285,0
2.9925,-0.00027796,0
2.993,-0.00029592,0
2.9935,-0.00023348,0
2.994,-8.661e-05,0
2.9945,-5.0355e-06,0
2.995,-7.1672e-05,0
2.9955,-0.00016802,0
2.996,-0.00016617,0
2.9965,-8.9464e-05,0
2.997,-1.0239e-05,0
2.9975,4.5991e-05,0
2.998,5.1362e-05,0
2.9985,-1.2924e-05,0
2.999,-8.275e-05,0
2.9995,-6.4622e-05,0
3,1.9135e-05,0
3.0005,8.04e-05,0
3.001,7.57e-05,0
3.0015,-1.9135e-05,0
3.002,-0.00014737,0
3.0025,-0.00016802,0
3.003,-7.7043e-05,0
3.0035,1.1582e-05,0
3.004,2.4002e-05,0
3.0045,-3.0213e-06,0
3.005,-5.035e-07,0
3.0055,9.0639e-06,0
3.006,-1.1582e-05,0
3.0065,-3.3906e-05,0
3.007,-3.0045e-05,0
3.0075,-9.9031e-06,0
3.008,1.0575e-05,0
3.0085,3.0381e-05,0
3.009,5.2537e-05,0
3.0095,6.0426e-05,0
3.01,7.4357e-05,0
3.0105,0.00011632,0
3.011,0.00015106,0
3.0115,0.00013848,0
3.012,0.00010239,0
3.0125,0.00012018,0
3.013,0.00018816,0
3.0135,0.0002078,0
3.014,0.00014015,0
3.0145,5.0523e-05,0
3.015,2.5177e-06,0
3.0155,1.4603e-05,0
3.016,6.3111e-05,0
3.0165,0.00011716,0
3.017,0.00016768,0
3.0175,0.00021434,0
3.018,0.00027041,0
3.0185,0.00033922,0
3.019,0.000379,0
3.0195,0.0003258,0
3.02,0.00018044,0
3.0205,6.7308e-05,0
3.021,6.63e-05,0
3.0215,7.6707e-05,0
3.022,-8.3925e-05,0
3.0225,-0.00034057,0
3.023,-0.00047367,0
3.0235,-0.00044883,0
3.024,-0.00035483,0
3.0245,-0.00026117,0
3.025,-0.00018967,0
3.0255,-0.00012857,0
3.026,-7.8721e-05,0
3.0265,-5.0187e-05,0
3.027,-4.4144e-05,0
3.0275,-5.1194e-05,0
3.028,-4.1123e-05,0
3.0285,-4.8676e-06,0
3.029,5.2033e-06,0
3.0295,-2.9709e-05,0
3.03,-4.1459e-05,0
3.0305,-1.091e-05,0
3.031,1.9974e-05,0
3.0315,3.4073e-05,0
3.032,2.3331e-05,0
3.0325,2.3499e-06,0
3.033,2.3835e-05,0
3.0335,8.0064e-05,0
3.034,0.00012673,0
3.0345,0.00013646,0
3.035,0.00011464,0
3.0355,0.00010692,0
3.036,0.00013663,0
3.0365,0.00016281,0
3.037,8.3925e-05,0
3.0375,-8.3421e-05,0
3.038,-0.00015862,0
3.0385,-0.00010608,0
3.039,4.3641e-06,0
3.0395,0.00011901,0
3.04,0.00020327,0
3.0405,0.00025127,0
3.041,0.00024724,0
3.0415,0.00015358,0
3.042,2.7024e-05,0
3.0425,-4.8676e-05,0
3.043,-7.6371e-05,0
3.0435,-0.0001091,0
3.044,-0.00011028,0
3.0445,-3.0045e-05,0
3.045,6.6636e-05,0
3.0455,0.00010826,0
3.046,0.00010726,0
3.0465,8.5771e-05,0
3.047,2.4002e-05,0
3.0475,-7.7546e-05,0
3.048,-0.00012992,0
3.0485,-7.2007e-05,0
3.049,5.7069e-05,0
3.0495,0.00017171,0
3.05,0.00018312,0
3.0505,7.0832e-05,0
3.051,-6.2272e-05,0
3.0515,-0.00011095,0
3.052,-8.8121e-05,0
3.0525,-6.1936e-05,0
3.053,-4.4144e-05,0
3.0535,-2.9374e-05,0
3.054,-1.8967e-05,0
3.0545,-1.5106e-05,0
3.055,5.035e-07,0
3.0555,1.5778e-05,0
3.056,2.3331e-05,0
3.0565,6.8986e-05,0
3.057,0.00016533,0
3.0575,0.00024825,0
3.058,0.00021703,0
3.0585,4.0116e-05,0
3.059,-0.0001227,0
3.0595,-0.00010524,0
3.06,-2.6856e-06,0
3.0605,1.2924e-05,0
3.061,-4.3305e-05,0
3.0615,-4.2802e-05,0
3.062,3.3066e-05,0
3.0625,8.1743e-05,0
3.063,6.4958e-05,0
3.0635,1.947e-05,0
3.064,-2.8367e-05,0
3.0645,-7.3686e-05,0
3.065,-8.6946e-05,0
3.0655,-5.1865e-05,0
3.066,-9.7353e-06,0
3.0665,3.8605e-06,0
3.067,-2.8534e-06,0
3.0675,3.5248e-06,0
3.068,3.1388e-05,0
3.0685,5.1362e-05,0
3.069,3.1388e-05,0
3.0695,-2.5177e-06,0
3.07,1.326e-05,0
3.0705,8.0064e-05,0
3.071,0.0001415,0
3.0715,0.00017406,0
3.072,0.00018883,0
3.0725,0.00018547,0
3.073,0.00013931,0
3.0735,6.8315e-05,0
3.074,-1.2421e-05,0
3.0745,-6.4622e-05,0
3.075,-1.9303e-05,0
3.0755,9.0806e-05,0
3.076,0.00014418,0
3.0765,8.6442e-05,0
3.077,-2.3331e-05,0
3.0775,-7.0497e-05,0
3.078,-2.031e-05,0
3.0785,3.6759e-05,0
3.079,1.1749e-06,0
3.0795,-9.1814e-05,0
3.08,-0.00014049,0
3.0805,-0.00012303,0
3.081,-7.2007e-05,0
3.0815,-5.3544e-05,0
3.082,-8.9632e-05,0
