0,0,0
0.0005,0,0
0.001,0,0
0.0015,0,0
0.002,0,0
0.0025,0,0
0.003,0,0
0.0035,0,0
0.004,0,0
0.0045,0,0
0.005,0,0
0.0055,0,0
0.006,0,0
0.0065,0,0
0.007,0,0
0.0075,0,0
0.008,0,0
0.0085,0,0
0.009,0,0
0.0095,0,0
0.01,0,0
0.0105,0,0
0.011,0,0
0.0115,0,0
0.012,0,0
0.0125,0,0
0.013,0,0
0.0135,0,0
0.014,0,0
0.0145,0,0
0.015,0,0
0.0155,0,0
0.016,0,0
0.0165,0,0
0.017,0,0
0.0175,0,0
0.018,0,0
0.0185,0,0
0.019,0,0
0.0195,0,0
0.02,0,0
0.0205,0,0
0.021,0,0
0.0215,0,0
0.022,0,0
0.0225,0,0
0.023,0,0
0.0235,0,0
0.024,0,0
0.0245,0,0
0.025,0,0
0.0255,0,0
0.026,1.5106e-06,0
0.0265,6.714e-06,0
0.027,1.0239e-05,0
0.0275,1.3428e-05,0
0.028,1.7288e-05,0
0.0285,2.0478e-05,0
0.029,2.5849e-05,0
0.0295,3.1724e-05,0
0.03,3.508e-05,0
0.0305,3.5416e-05,0
0.031,3.5248e-05,0
0.0315,3.508e-05,0
0.032,3.6759e-05,0
0.0325,3.6759e-05,0
0.033,3.3402e-05,0
0.0335,2.887e-05,0
0.034,2.5849e-05,0
0.0345,2.4842e-05,0
0.035,2.5345e-05,0
0.0355,2.7863e-05,0
0.036,3.3234e-05,0
0.0365,3.8437e-05,0
0.037,4.1962e-05,0
0.0375,4.2802e-05,0
0.038,4.3305e-05,0
0.0385,4.2466e-05,0
0.039,3.7766e-05,0
0.0395,2.8031e-05,0
0.04,1.2253e-05,0
0.0405,-1.6785e-06,0
0.041,-6.8818e-06,0
0.0415,1.678e-07,0
0.042,1.1582e-05,0
0.0425,1.9303e-05,0
0.043,2.2156e-05,0
0.0435,2.2324e-05,0
0.044,2.4338e-05,0
0.0445,3.0381e-05,0
0.045,3.5248e-05,0
0.0455,3.5752e-05,0
0.046,3.3402e-05,0
0.0465,3.122e-05,0
0.047,2.5681e-05,0
0.0475,1.6785e-05,0
0.048,8.5603e-06,0
0.0485,7.3854e-06,0
0.049,1.1917e-05,0
0.0495,1.6449e-05,0
0.05,1.6449e-05,0
0.0505,1.5274e-05,0
0.051,1.1749e-05,0
0.0515,5.7069e-06,0
0.052,2.8534e-06,0
0.0525,2.182e-06,0
0.053,3.8605e-06,0
0.0535,9.0639e-06,0
0.054,1.7288e-05,0
0.0545,2.417e-05,0
0.055,1.9638e-05,0
0.0555,1.0575e-05,0
0.056,1.1246e-05,0
0.0565,1.796e-05,0
0.057,2.2995e-05,0
0.0575,2.8534e-05,0
0.058,3.4745e-05,0
0.0585,3.827e-05,0
0.059,4.1459e-05,0
0.0595,4.683e-05,0
0.06,4.9348e-05,0
0.0605,4.3809e-05,0
0.061,3.5752e-05,0
0.0615,2.5513e-05,0
0.062,1.0575e-05,0
0.0625,-4.3641e-06,0
0.063,-1.8967e-05,0
0.0635,-2.8199e-05,0
0.064,-2.5849e-05,0
0.0645,-1.5778e-05,0
0.065,-2.5177e-06,0
0.0655,7.8889e-06,0
0.066,1.326e-05,0
0.0665,1.796e-05,0
0.067,2.2995e-05,0
0.0675,2.7192e-05,0
0.068,2.9709e-05,0
0.0685,3.2059e-05,0
0.069,3.2563e-05,0
0.0695,3.0045e-05,0
0.07,2.9709e-05,0
0.0705,3.3402e-05,0
0.071,3.4577e-05,0
0.0715,3.4745e-05,0
0.072,3.592e-05,0
0.0725,3.6423e-05,0
0.073,3.3738e-05,0
0.0735,2.9206e-05,0
0.074,2.6688e-05,0
0.0745,2.5345e-05,0
0.075,2.4002e-05,0
0.0755,2.4506e-05,0
0.076,2.4002e-05,0
0.0765,2.4674e-05,0
0.077,2.5345e-05,0
0.0775,2.6688e-05,0
0.078,2.887e-05,0
0.0785,3.0045e-05,0
0.079,2.6688e-05,0
0.0795,2.2324e-05,0
0.08,2.0981e-05,0
0.0805,2.1988e-05,0
0.081,1.9974e-05,0
0.0815,1.5106e-05,0
0.082,1.1917e-05,0
0.0825,9.9031e-06,0
0.083,7.2175e-06,0
0.0835,4.1962e-06,0
0.084,-1.3428e-06,0
0.0845,-2.5177e-06,0
0.085,3.8605e-06,0
0.0855,1.0239e-05,0
0.086,1.3092e-05,0
0.0865,1.561e-05,0
0.087,1.8799e-05,0
0.0875,2.2828e-05,0
0.088,2.4842e-05,0
0.0885,2.266e-05,0
0.089,1.8296e-05,0
0.0895,1.3596e-05,0
0.09,8.3925e-06,0
0.0905,5.7069e-06,0
0.091,6.5461e-06,0
0.0915,7.5532e-06,0
0.092,9.9031e-06,0
0.0925,1.4603e-05,0
0.093,1.5946e-05,0
0.0935,1.2589e-05,0
0.094,1.0575e-05,0
0.0945,1.6449e-05,0
0.095,2.5681e-05,0
0.0955,3.0884e-05,0
0.096,3.7766e-05,0
0.0965,5.1865e-05,0
0.097,6.1601e-05,0
0.0975,5.8915e-05,0
0.098,5.069e-05,0
0.0985,4.1291e-05,0
0.099,2.8367e-05,0
0.0995,1.1749e-05,0
0.1,-6.8818e-06,0
0.1005,-2.4338e-05,0
0.101,-3.5416e-05,0
0.1015,-3.5752e-05,0
0.102,-2.9877e-05,0
0.1025,-2.6688e-05,0
0.103,-2.1653e-05,0
0.1035,-7.7211e-06,0
0.104,6.8818e-06,0
0.1045,1.6449e-05,0
0.105,2.0646e-05,0
0.1055,2.182e-05,0
0.106,2.0646e-05,0
0.1065,2.1317e-05,0
0.107,2.3667e-05,0
0.1075,2.6352e-05,0
0.108,2.8367e-05,0
0.1085,2.9374e-05,0
0.109,2.8702e-05,0
0.1095,2.7359e-05,0
0.11,2.7359e-05,0
0.1105,2.3667e-05,0
0.111,1.6617e-05,0
0.1115,1.326e-05,0
0.112,1.3932e-05,0
0.1125,1.8128e-05,0
0.113,2.4674e-05,0
0.1135,2.9038e-05,0
0.114,3.1388e-05,0
0.1145,3.5416e-05,0
0.115,3.8437e-05,0
0.1155,3.7262e-05,0
0.116,3.3738e-05,0
0.1165,3.2059e-05,0
0.117,3.2059e-05,0
0.1175,3.1052e-05,0
0.118,2.8702e-05,0
0.1185,2.6688e-05,0
0.119,2.2492e-05,0
0.1195,1.7288e-05,0
0.12,1.6617e-05,0
0.1205,2.0813e-05,0
0.121,2.8367e-05,0
0.1215,3.4745e-05,0
0.122,3.743e-05,0
0.1225,3.7766e-05,0
0.123,3.743e-05,0
0.1235,3.5752e-05,0
0.124,3.1388e-05,0
0.1245,2.3667e-05,0
0.125,1.6449e-05,0
0.1255,1.6281e-05,0
0.126,2.031e-05,0
0.1265,2.4002e-05,0
0.127,2.7024e-05,0
0.1275,3.1556e-05,0
0.128,3.5752e-05,0
0.1285,3.6423e-05,0
0.129,2.9038e-05,0
0.1295,1.5106e-05,0
0.13,5.2033e-06,0
0.1305,2.5177e-06,0
0.131,4.1962e-06,0
0.1315,6.3783e-06,0
0.132,1.0407e-05,0
0.1325,1.4099e-05,0
0.133,1.3932e-05,0
0.1335,1.1917e-05,0
0.134,1.4099e-05,0
0.1345,2.1317e-05,0
0.135,3.2059e-05,0
0.1355,4.3305e-05,0
0.136,5.069e-05,0
0.1365,5.0523e-05,0
0.137,4.8508e-05,0
0.1375,4.7501e-05,0
0.138,4.4816e-05,0
0.1385,3.978e-05,0
0.139,3.4409e-05,0
0.1395,3.0716e-05,0
0.14,2.4338e-05,0
0.1405,1.2924e-05,0
0.141,-1.0071e-06,0
0.1415,-7.5532e-06,0
0.142,-3.5248e-06,0
0.1425,1.678e-07,0
0.143,-1.0071e-06,0
0.1435,-6.8818e-06,0
0.144,-1.1917e-05,0
0.1445,-1.4099e-05,0
0.145,-1.4435e-05,0
0.1455,-1.091e-05,0
0.146,-3.357e-06,0
0.1465,2.182e-06,0
0.147,5.0355e-06,0
0.1475,6.2104e-06,0
0.148,1.091e-05,0
0.1485,1.9974e-05,0
0.149,2.7359e-05,0
0.1495,3.0716e-05,0
0.15,3.2059e-05,0
0.1505,3.1052e-05,0
0.151,2.9877e-05,0
0.1515,3.1724e-05,0
0.152,3.3234e-05,0
0.1525,3.2059e-05,0
0.153,2.9374e-05,0
0.1535,2.7024e-05,0
0.154,2.3163e-05,0
0.1545,1.7288e-05,0
0.155,1.091e-05,0
0.1555,8.5603e-06,0
0.156,1.1749e-05,0
0.1565,1.561e-05,0
0.157,1.7792e-05,0
0.1575,1.9638e-05,0
0.158,2.0646e-05,0
0.1585,1.7792e-05,0
0.159,9.7353e-06,0
0.1595,5.539e-06,0
0.16,1.2421e-05,0
0.1605,2.1653e-05,0
0.161,2.6352e-05,0
0.1615,3.2059e-05,0
0.162,4.0116e-05,0
0.1625,4.1627e-05,0
0.163,3.3234e-05,0
0.1635,1.8463e-05,0
0.164,3.5248e-06,0
0.1645,-5.539e-06,0
0.165,-6.5461e-06,0
0.1655,-5.0355e-06,0
0.166,8.392e-07,0
0.1665,1.0575e-05,0
0.167,1.7288e-05,0
0.1675,2.7192e-05,0
0.168,4.1795e-05,0
0.1685,5.5558e-05,0
0.169,6.5293e-05,0
0.1695,6.4958e-05,0
0.17,5.2705e-05,0
0.1705,3.0549e-05,0
0.171,1.1582e-05,0
0.1715,3.6927e-06,0
0.172,1.1749e-06,0
0.1725,-3.1891e-06,0
0.173,-1.1582e-05,0
0.1735,-1.8967e-05,0
0.174,-1.9638e-05,0
0.1745,-1.4267e-05,0
0.175,-9.2317e-06,0
0.1755,-6.2104e-06,0
0.176,-6.714e-07,0
0.1765,9.2317e-06,0
0.177,1.8463e-05,0
0.1775,2.417e-05,0
0.178,2.7695e-05,0
0.1785,3.0213e-05,0
0.179,3.1388e-05,0
0.1795,3.1891e-05,0
0.18,3.1724e-05,0
0.1805,2.9374e-05,0
0.181,2.5681e-05,0
0.1815,2.3667e-05,0
0.182,2.5009e-05,0
0.1825,2.6688e-05,0
0.183,2.887e-05,0
0.1835,3.2059e-05,0
0.184,3.743e-05,0
0.1845,4.5487e-05,0
0.185,5.0858e-05,0
0.1855,5.0523e-05,0
0.186,4.6494e-05,0
0.1865,4.2466e-05,0
0.187,3.9277e-05,0
0.1875,3.8773e-05,0
0.188,3.6759e-05,0
0.1885,2.8367e-05,0
0.189,1.8631e-05,0
0.1895,8.896e-06,0
0.19,5.035e-07,0
0.1905,-3.5248e-06,0
0.191,-8.392e-07,0
0.1915,6.5461e-06,0
0.192,1.5946e-05,0
0.1925,2.4674e-05,0
0.193,3.122e-05,0
0.1935,3.6759e-05,0
0.194,3.743e-05,0
0.1945,2.8702e-05,0
0.195,1.8631e-05,0
0.1955,1.7288e-05,0
0.196,1.9974e-05,0
0.1965,1.8296e-05,0
0.197,9.2317e-06,0
0.1975,-6.714e-07,0
0.198,-2.5177e-06,0
0.1985,3.5248e-06,0
0.199,1.0575e-05,0
0.1995,1.4771e-05,0
0.2,1.7624e-05,0
0.2005,1.8296e-05,0
0.201,1.1749e-05,0
0.2015,5.8747e-06,0
0.202,1.091e-05,0
0.2025,1.7624e-05,0
0.203,1.8463e-05,0
0.2035,1.9974e-05,0
0.204,3.0549e-05,0
0.2045,4.6662e-05,0
0.205,5.6565e-05,0
0.2055,5.3544e-05,0
0.206,4.7501e-05,0
0.2065,4.7501e-05,0
0.207,5.3544e-05,0
0.2075,6.0258e-05,0
0.208,6.3615e-05,0
0.2085,5.8747e-05,0
0.209,3.8437e-05,0
0.2095,9.2317e-06,0
0.21,-1.4267e-05,0
0.2105,-1.7792e-05,0
0.211,-1.2589e-05,0
0.2115,-1.4603e-05,0
0.212,-2.4002e-05,0
0.2125,-3.1724e-05,0
0.213,-3.0716e-05,0
0.2135,-2.3331e-05,0
0.214,-1.6617e-05,0
0.2145,-8.2246e-06,0
0.215,0,0
0.2155,5.2033e-06,0
0.216,7.2175e-06,0
0.2165,9.5674e-06,0
0.217,1.2253e-05,0
0.2175,1.4267e-05,0
0.218,1.5946e-05,0
0.2185,1.8631e-05,0
0.219,1.9303e-05,0
0.2195,1.8631e-05,0
0.22,1.8967e-05,0
0.2205,2.1988e-05,0
0.221,2.4674e-05,0
0.2215,2.8031e-05,0
0.222,3.1388e-05,0
0.2225,3.122e-05,0
0.223,2.7024e-05,0
0.2235,2.1317e-05,0
0.224,1.8631e-05,0
0.2245,1.8631e-05,0
0.225,1.6953e-05,0
0.2255,1.091e-05,0
0.226,6.5461e-06,0
0.2265,9.9031e-06,0
0.227,1.8296e-05,0
0.2275,2.266e-05,0
0.228,2.4842e-05,0
0.2285,2.7024e-05,0
0.229,3.0381e-05,0
0.2295,3.5752e-05,0
0.23,4.2298e-05,0
0.2305,4.683e-05,0
0.231,4.6998e-05,0
0.2315,4.5151e-05,0
0.232,4.213e-05,0
0.2325,4.0116e-05,0
0.233,3.9612e-05,0
0.2335,3.6591e-05,0
0.234,2.9709e-05,0
0.2345,2.0981e-05,0
0.235,1.2924e-05,0
0.2355,5.2033e-06,0
0.236,-3.357e-06,0
0.2365,-5.539e-06,0
0.237,1.5106e-06,0
0.2375,1.2589e-05,0
0.238,2.1988e-05,0
0.2385,2.5345e-05,0
0.239,2.6017e-05,0
0.2395,2.7359e-05,0
0.24,2.9206e-05,0
0.2405,2.8199e-05,0
0.241,2.3667e-05,0
0.2415,1.9135e-05,0
0.242,1.4435e-05,0
0.2425,1.0239e-05,0
0.243,9.9031e-06,0
0.2435,1.4603e-05,0
0.244,2.0813e-05,0
0.2445,2.266e-05,0
0.245,1.9303e-05,0
0.2455,1.9303e-05,0
0.246,2.5177e-05,0
0.2465,3.0213e-05,0
0.247,2.9709e-05,0
0.2475,2.6688e-05,0
0.248,2.5009e-05,0
0.2485,2.182e-05,0
0.249,1.4603e-05,0
0.2495,5.8747e-06,0
0.25,-6.714e-07,0
0.2505,1.1749e-06,0
0.251,8.7282e-06,0
0.2515,1.2924e-05,0
0.252,1.0407e-05,0
0.2525,9.2317e-06,0
0.253,1.2085e-05,0
0.2535,1.7624e-05,0
0.254,2.0646e-05,0
0.2545,2.1317e-05,0
0.255,2.2156e-05,0
0.2555,2.4338e-05,0
0.256,2.9206e-05,0
0.2565,3.5752e-05,0
0.257,4.3473e-05,0
0.2575,5.2537e-05,0
0.258,6.0929e-05,0
0.2585,6.4286e-05,0
0.259,6.2944e-05,0
0.2595,5.9922e-05,0
0.26,5.4215e-05,0
0.2605,4.5991e-05,0
0.261,3.2395e-05,0
0.2615,1.326e-05,0
0.262,-8.2246e-06,0
0.2625,-2.6352e-05,0
0.263,-3.9445e-05,0
0.2635,-4.4144e-05,0
0.264,-4.0116e-05,0
0.2645,-3.4745e-05,0
0.265,-2.9038e-05,0
0.2655,-1.7624e-05,0
0.266,-2.182e-06,0
0.2665,1.3092e-05,0
0.267,2.652e-05,0
0.2675,3.743e-05,0
0.268,4.4984e-05,0
0.2685,5.0523e-05,0
0.269,5.4551e-05,0
0.2695,5.7237e-05,0
0.27,5.5726e-05,0
0.2705,4.9515e-05,0
0.271,4.1627e-05,0
0.2715,3.1724e-05,0
0.272,2.2828e-05,0
0.2725,1.8463e-05,0
0.273,1.5274e-05,0
0.2735,9.3996e-06,0
0.274,1.6785e-06,0
0.2745,-1.091e-05,0
0.275,-2.9877e-05,0
0.2755,-4.3305e-05,0
0.276,-3.7095e-05,0
0.2765,-1.6617e-05,0
0.277,1.1749e-06,0
0.2775,9.3996e-06,0
0.278,1.3596e-05,0
0.2785,2.0646e-05,0
0.279,2.652e-05,0
0.2795,2.7863e-05,0
0.28,2.7863e-05,0
0.2805,2.4338e-05,0
0.281,1.8463e-05,0
0.2815,1.4939e-05,0
0.282,1.5442e-05,0
0.2825,2.1149e-05,0
0.283,3.1724e-05,0
0.2835,3.978e-05,0
0.284,4.4144e-05,0
0.2845,4.5823e-05,0
0.285,4.3809e-05,0
0.2855,3.6759e-05,0
0.286,2.4674e-05,0
0.2865,1.2924e-05,0
0.287,5.0355e-06,0
0.2875,1.8463e-06,0
0.288,8.392e-07,0
0.2885,3.6927e-06,0
0.289,1.0575e-05,0
0.2895,2.031e-05,0
0.29,2.7863e-05,0
0.2905,2.8702e-05,0
0.291,3.1052e-05,0
0.2915,3.9109e-05,0
0.292,4.6662e-05,0
0.2925,5.0019e-05,0
0.293,4.7501e-05,0
0.2935,4.0452e-05,0
0.294,3.4409e-05,0
0.2945,2.9709e-05,0
0.295,2.6017e-05,0
0.2955,2.0646e-05,0
0.296,9.9031e-06,0
0.2965,-3.5248e-06,0
0.297,-8.2246e-06,0
0.2975,1.8463e-06,0
0.298,1.9303e-05,0
0.2985,3.1052e-05,0
0.299,3.1556e-05,0
0.2995,2.5345e-05,0
0.3,2.1149e-05,0
0.3005,1.9974e-05,0
0.301,1.7288e-05,0
0.3015,1.6449e-05,0
0.302,1.4603e-05,0
0.3025,8.5603e-06,0
0.303,2.8534e-06,0
0.3035,1.6785e-06,0
0.304,9.2317e-06,0
0.3045,2.031e-05,0
0.305,2.5849e-05,0
0.3055,2.5681e-05,0
0.306,2.5849e-05,0
0.3065,2.7359e-05,0
0.307,2.8534e-05,0
0.3075,3.0213e-05,0
0.308,3.1724e-05,0
0.3085,3.1388e-05,0
0.309,3.0045e-05,0
0.3095,3.2395e-05,0
0.31,3.6423e-05,0
0.3105,3.7262e-05,0
0.311,3.4409e-05,0
0.3115,3.3066e-05,0
0.312,3.3066e-05,0
0.3125,3.4577e-05,0
0.313,3.7095e-05,0
0.3135,3.827e-05,0
0.314,3.7262e-05,0
0.3145,3.4241e-05,0
0.315,2.9374e-05,0
0.3155,2.4002e-05,0
0.316,2.0478e-05,0
0.3165,1.6953e-05,0
0.317,1.2924e-05,0
0.3175,1.0575e-05,0
0.318,6.8818e-06,0
0.3185,3.357e-06,0
0.319,3.8605e-06,0
0.3195,8.896e-06,0
0.32,1.5106e-05,0
0.3205,1.7121e-05,0
0.321,1.5946e-05,0
0.3215,1.326e-05,0
0.322,1.2253e-05,0
0.3225,1.4435e-05,0
0.323,2.0478e-05,0
0.3235,2.8702e-05,0
0.324,3.5752e-05,0
0.3245,3.8102e-05,0
0.325,3.9445e-05,0
0.3255,4.3305e-05,0
0.326,4.9012e-05,0
0.3265,5.0523e-05,0
0.327,4.5991e-05,0
0.3275,3.743e-05,0
0.328,2.3667e-05,0
0.3285,4.5319e-06,0
0.329,-1.0239e-05,0
0.3295,-1.8967e-05,0
0.33,-2.3835e-05,0
0.3305,-2.652e-05,0
0.331,-3.1052e-05,0
0.3315,-3.2395e-05,0
0.332,-2.6352e-05,0
0.3325,-1.561e-05,0
0.333,-7.2175e-06,0
0.3335,-1.1749e-06,0
0.334,1.1749e-06,0
0.3345,1.5106e-06,0
0.335,-1.5106e-06,0
0.3355,-3.8605e-06,0
0.336,-6.714e-07,0
0.3365,6.8818e-06,0
0.337,1.326e-05,0
0.3375,1.8296e-05,0
0.338,2.4338e-05,0
0.3385,2.7359e-05,0
0.339,2.2324e-05,0
0.3395,9.0639e-06,0
0.34,-3.5248e-06,0
0.3405,-5.3712e-06,0
0.341,2.182e-06,0
0.3415,1.2253e-05,0
0.342,1.9974e-05,0
0.3425,2.4674e-05,0
0.343,2.7695e-05,0
0.3435,3.5584e-05,0
0.344,4.6662e-05,0
0.3445,5.0858e-05,0
0.345,4.2802e-05,0
0.3455,3.0716e-05,0
0.346,2.3835e-05,0
0.3465,2.3667e-05,0
0.347,2.3667e-05,0
0.3475,2.1988e-05,0
0.348,2.0981e-05,0
0.3485,2.0142e-05,0
0.349,1.9806e-05,0
0.3495,2.3499e-05,0
0.35,3.2898e-05,0
0.3505,4.213e-05,0
0.351,4.5151e-05,0
0.3515,4.1962e-05,0
0.352,3.5248e-05,0
0.3525,2.9038e-05,0
0.353,2.5177e-05,0
0.3535,2.2995e-05,0
0.354,1.5106e-05,0
0.3545,3.1891e-06,0
0.355,-1.0071e-06,0
0.3555,3.5248e-06,0
0.356,1.0575e-05,0
0.3565,1.9303e-05,0
0.357,2.8702e-05,0
0.3575,4.0452e-05,0
0.358,5.0523e-05,0
0.3585,5.2872e-05,0
0.359,5.3544e-05,0
0.3595,6.0761e-05,0
0.36,6.3783e-05,0
0.3605,5.6565e-05,0
0.361,5.0355e-05,0
0.3615,4.8676e-05,0
0.362,4.4144e-05,0
0.3625,3.4073e-05,0
0.363,2.3163e-05,0
0.3635,1.2589e-05,0
0.364,-2.8534e-06,0
0.3645,-2.2324e-05,0
0.365,-3.8773e-05,0
0.3655,-4.4816e-05,0
0.366,-3.7766e-05,0
0.3665,-2.0981e-05,0
0.367,-7.8889e-06,0
0.3675,-1.6785e-06,0
0.368,3.8605e-06,0
0.3685,9.5674e-06,0
0.369,1.4603e-05,0
0.3695,2.0142e-05,0
0.37,2.3163e-05,0
0.3705,2.4674e-05,0
0.371,2.9038e-05,0
0.3715,3.2898e-05,0
0.372,3.2731e-05,0
0.3725,3.1052e-05,0
0.373,3.0045e-05,0
0.3735,2.887e-05,0
0.374,2.417e-05,0
0.3745,1.561e-05,0
0.375,8.896e-06,0
0.3755,1.1749e-05,0
0.376,1.9135e-05,0
0.3765,2.417e-05,0
0.377,2.5177e-05,0
0.3775,2.5009e-05,0
0.378,2.4842e-05,0
0.3785,2.2324e-05,0
0.379,1.8296e-05,0
0.3795,1.6114e-05,0
0.38,1.5274e-05,0
0.3805,1.8631e-05,0
0.381,2.4674e-05,0
0.3815,2.8702e-05,0
0.382,3.0045e-05,0
0.3825,3.3066e-05,0
0.383,3.5248e-05,0
0.3835,3.4409e-05,0
0.384,3.1388e-05,0
0.3845,2.8534e-05,0
0.385,2.6184e-05,0
0.3855,2.3667e-05,0
0.386,1.8463e-05,0
0.3865,1.1749e-05,0
0.387,7.5532e-06,0
0.3875,7.5532e-06,0
0.388,9.2317e-06,0
0.3885,1.091e-05,0
0.389,1.0575e-05,0
0.3895,1.0575e-05,0
0.39,1.1917e-05,0
0.3905,1.8967e-05,0
0.391,3.1724e-05,0
0.3915,4.3137e-05,0
0.392,4.448e-05,0
0.3925,3.6088e-05,0
0.393,2.4842e-05,0
0.3935,1.9974e-05,0
0.394,1.947e-05,0
0.3945,1.9303e-05,0
0.395,1.9638e-05,0
0.3955,2.0646e-05,0
0.396,2.1149e-05,0
0.3965,1.8296e-05,0
0.397,1.5106e-05,0
0.3975,1.8631e-05,0
0.398,2.7695e-05,0
0.3985,3.3906e-05,0
0.399,3.3066e-05,0
0.3995,3.0381e-05,0
0.4,3.0716e-05,0
0.4005,2.8367e-05,0
0.401,2.2156e-05,0
0.4015,1.4939e-05,0
0.402,9.2317e-06,0
0.4025,6.0426e-06,0
0.403,5.035e-07,0
0.4035,-6.8818e-06,0
0.404,-1.1917e-05,0
0.4045,-9.2317e-06,0
0.405,-1.1749e-06,0
0.4055,1.1582e-05,0
0.406,2.0646e-05,0
0.4065,2.5849e-05,0
0.407,2.887e-05,0
0.4075,2.4506e-05,0
0.408,1.4939e-05,0
0.4085,1.1749e-05,0
0.409,1.4267e-05,0
0.4095,1.8463e-05,0
0.41,2.2324e-05,0
0.4105,2.5009e-05,0
0.411,2.5345e-05,0
0.4115,2.5009e-05,0
0.412,2.3163e-05,0
0.4125,2.2828e-05,0
0.413,2.6017e-05,0
0.4135,2.6688e-05,0
0.414,1.947e-05,0
0.4145,7.7211e-06,0
0.415,3.1891e-06,0
0.4155,7.2175e-06,0
0.416,1.1078e-05,0
0.4165,8.2246e-06,0
0.417,4.3641e-06,0
0.4175,2.8534e-06,0
0.418,3.1891e-06,0
0.4185,7.8889e-06,0
0.419,1.5106e-05,0
0.4195,2.2492e-05,0
0.42,3.0884e-05,0
0.4205,3.743e-05,0
0.421,4.213e-05,0
0.4215,4.8173e-05,0
0.422,5.2201e-05,0
0.4225,5.1194e-05,0
0.423,4.918e-05,0
0.4235,5.0858e-05,0
0.424,5.0523e-05,0
0.4245,4.5487e-05,0
0.425,4.0116e-05,0
0.4255,3.8773e-05,0
0.426,3.6423e-05,0
0.4265,2.8031e-05,0
0.427,1.5946e-05,0
0.4275,3.1891e-06,0
0.428,-1.091e-05,0
0.4285,-2.4338e-05,0
0.429,-3.0045e-05,0
0.4295,-2.887e-05,0
0.43,-2.3163e-05,0
0.4305,-1.6617e-05,0
0.431,-1.1917e-05,0
0.4315,-8.0568e-06,0
0.432,-5.2033e-06,0
0.4325,-3.5248e-06,0
0.433,-1.678e-07,0
0.4335,3.5248e-06,0
0.434,1.1749e-05,0
0.4345,2.4002e-05,0
0.435,3.4241e-05,0
0.4355,4.0787e-05,0
0.436,4.6159e-05,0
0.4365,4.8005e-05,0
0.437,4.5319e-05,0
0.4375,4.0787e-05,0
0.438,4.0787e-05,0
0.4385,4.2802e-05,0
0.439,4.3809e-05,0
0.4395,4.0955e-05,0
0.44,3.2731e-05,0
0.4405,2.6184e-05,0
0.441,2.3331e-05,0
0.4415,1.5946e-05,0
0.442,5.539e-06,0
0.4425,6.714e-07,0
0.443,4.8676e-06,0
0.4435,1.1917e-05,0
0.444,1.2253e-05,0
0.4445,5.539e-06,0
0.445,-4.3641e-06,0
0.4455,-8.2246e-06,0
0.446,-1.5106e-06,0
0.4465,8.896e-06,0
0.447,1.6281e-05,0
0.4475,2.1988e-05,0
0.448,2.5681e-05,0
0.4485,2.7695e-05,0
0.449,3.1388e-05,0
0.4495,3.4745e-05,0
0.45,3.6591e-05,0
0.4505,3.6759e-05,0
0.451,3.508e-05,0
0.4515,3.8102e-05,0
0.452,4.5319e-05,0
0.4525,4.8173e-05,0
0.453,4.9515e-05,0
0.4535,5.1362e-05,0
0.454,5.0187e-05,0
0.4545,4.9348e-05,0
0.455,4.918e-05,0
0.4555,4.8844e-05,0
0.456,4.0787e-05,0
0.4565,2.266e-05,0
0.457,3.357e-06,0
0.4575,-1.0239e-05,0
0.458,-1.7624e-05,0
0.4585,-2.1653e-05,0
0.459,-1.8967e-05,0
0.4595,-1.561e-05,0
0.46,-1.9638e-05,0
0.4605,-2.4842e-05,0
0.461,-2.3499e-05,0
0.4615,-1.326e-05,0
0.462,5.035e-07,0
0.4625,1.0742e-05,0
0.463,1.6617e-05,0
0.4635,2.182e-05,0
0.464,3.1388e-05,0
0.4645,4.213e-05,0
0.465,4.7333e-05,0
0.4655,4.683e-05,0
0.466,4.5487e-05,0
0.4665,4.4984e-05,0
0.467,4.4144e-05,0
0.4675,4.0116e-05,0
0.468,3.9277e-05,0
0.4685,4.3473e-05,0
0.469,4.918e-05,0
0.4695,4.918e-05,0
0.47,3.7262e-05,0
0.4705,2.182e-05,0
0.471,1.0575e-05,0
0.4715,7.3854e-06,0
0.472,8.7282e-06,0
0.4725,1.2589e-05,0
0.473,9.7353e-06,0
0.4735,-8.392e-07,0
0.474,-1.091e-05,0
0.4745,-1.4939e-05,0
0.475,-1.091e-05,0
0.4755,-5.8747e-06,0
0.476,-2.182e-06,0
0.4765,1.8463e-06,0
0.477,4.5319e-06,0
0.4775,7.0497e-06,0
0.478,1.1246e-05,0
0.4785,1.5274e-05,0
0.479,1.5946e-05,0
0.4795,1.796e-05,0
0.48,2.1317e-05,0
0.4805,2.4002e-05,0
0.481,2.6688e-05,0
0.4815,3.0716e-05,0
0.482,3.3738e-05,0
0.4825,3.4577e-05,0
0.483,3.4073e-05,0
0.4835,3.508e-05,0
0.484,3.3402e-05,0
0.4845,2.9374e-05,0
0.485,2.8702e-05,0
0.4855,2.8031e-05,0
0.486,2.8702e-05,0
0.4865,3.1052e-05,0
0.487,2.8702e-05,0
0.4875,2.4002e-05,0
0.488,2.1317e-05,0
0.4885,2.0981e-05,0
0.489,2.0646e-05,0
0.4895,2.1653e-05,0
0.49,2.4674e-05,0
0.4905,2.5345e-05,0
0.491,2.2492e-05,0
0.4915,1.8631e-05,0
0.492,1.6953e-05,0
0.4925,1.7288e-05,0
0.493,1.8631e-05,0
0.4935,2.4002e-05,0
0.494,3.1052e-05,0
0.4945,3.4745e-05,0
0.495,3.6088e-05,0
0.4955,3.6088e-05,0
0.496,3.4073e-05,0
0.4965,3.4073e-05,0
0.497,3.5248e-05,0
0.4975,3.2059e-05,0
0.498,2.6352e-05,0
0.4985,2.0142e-05,0
0.499,1.3092e-05,0
0.4995,8.896e-06,0
0.5,5.8747e-06,0
0.5005,6.2104e-06,0
0.501,1.2589e-05,0
0.5015,1.9135e-05,0
0.502,2.1653e-05,0
0.5025,2.3835e-05,0
0.503,2.5345e-05,0
0.5035,2.1653e-05,0
0.504,1.3596e-05,0
0.5045,5.539e-06,0
0.505,-4.0284e-06,0
0.5055,-1.091e-05,0
0.506,-7.5532e-06,0
0.5065,1.3428e-06,0
0.507,6.8818e-06,0
0.5075,6.8818e-06,0
0.508,7.2175e-06,0
0.5085,1.1414e-05,0
0.509,1.9303e-05,0
0.5095,2.8031e-05,0
0.51,3.1052e-05,0
0.5105,2.5849e-05,0
0.511,2.1653e-05,0
0.5115,2.0813e-05,0
0.512,1.8967e-05,0
0.5125,1.6953e-05,0
0.513,1.3596e-05,0
0.5135,1.0575e-05,0
0.514,1.2253e-05,0
0.5145,1.4939e-05,0
0.515,1.6785e-05,0
0.5155,2.031e-05,0
0.516,2.6856e-05,0
0.5165,3.6088e-05,0
0.517,4.3305e-05,0
0.5175,4.3473e-05,0
0.518,3.6088e-05,0
0.5185,2.266e-05,0
0.519,8.7282e-06,0
0.5195,-5.7069e-06,0
0.52,-1.6281e-05,0
0.5205,-1.6281e-05,0
0.521,-1.2924e-05,0
0.5215,-9.5674e-06,0
0.522,-2.8534e-06,0
0.5225,3.8605e-06,0
0.523,5.539e-06,0
0.5235,4.5319e-06,0
0.524,1.2253e-05,0
0.5245,2.8031e-05,0
0.525,4.0116e-05,0
0.5255,4.1459e-05,0
0.526,3.6591e-05,0
0.5265,3.9948e-05,0
0.527,5.0858e-05,0
0.5275,5.8244e-05,0
0.528,5.6397e-05,0
0.5285,4.8676e-05,0
0.529,4.2802e-05,0
0.5295,3.7934e-05,0
0.53,3.0045e-05,0
0.5305,2.0813e-05,0
0.531,1.5946e-05,0
0.5315,1.1749e-05,0
0.532,3.0213e-06,0
0.5325,-1.0071e-05,0
0.533,-2.1653e-05,0
0.5335,-2.4506e-05,0
0.534,-1.796e-05,0
0.5345,-6.714e-06,0
0.535,3.1891e-06,0
0.5355,1.3596e-05,0
0.536,2.6688e-05,0
0.5365,4.0619e-05,0
0.537,4.683e-05,0
0.5375,4.0116e-05,0
0.538,3.2898e-05,0
0.5385,3.4745e-05,0
0.539,3.8605e-05,0
0.5395,3.7934e-05,0
0.54,3.2898e-05,0
0.5405,2.8367e-05,0
0.541,2.1317e-05,0
0.5415,7.0497e-06,0
0.542,-7.5532e-06,0
0.5425,-1.2589e-05,0
0.543,-7.8889e-06,0
0.5435,-3.0213e-06,0
0.544,2.3499e-06,0
0.5445,1.1246e-05,0
0.545,2.0478e-05,0
0.5455,2.5345e-05,0
0.546,2.5177e-05,0
0.5465,2.2995e-05,0
0.547,2.4002e-05,0
0.5475,2.6688e-05,0
0.548,3.1052e-05,0
0.5485,3.8437e-05,0
0.549,4.2298e-05,0
0.5495,3.9948e-05,0
0.55,3.743e-05,0
0.5505,3.592e-05,0
0.551,3.508e-05,0
0.5515,3.7095e-05,0
0.552,3.6088e-05,0
0.5525,3.3402e-05,0
0.553,3.1556e-05,0
0.5535,2.9542e-05,0
0.554,2.7863e-05,0
0.5545,2.7192e-05,0
0.555,2.6352e-05,0
0.5555,2.6352e-05,0
0.556,2.3667e-05,0
0.5565,1.8967e-05,0
0.557,1.4771e-05,0
0.5575,1.091e-05,0
0.558,6.8818e-06,0
0.5585,2.5177e-06,0
0.559,-2.5177e-06,0
0.5595,-3.8605e-06,0
0.56,-8.392e-07,0
0.5605,3.357e-06,0
0.561,6.5461e-06,0
0.5615,1.1582e-05,0
0.562,1.8967e-05,0
0.5625,2.5009e-05,0
0.563,2.9038e-05,0
0.5635,3.1388e-05,0
0.564,3.3402e-05,0
0.5645,3.7766e-05,0
0.565,4.2466e-05,0
0.5655,4.1962e-05,0
0.566,3.8773e-05,0
0.5665,3.4409e-05,0
0.567,2.8534e-05,0
0.5675,2.1317e-05,0
0.568,1.3596e-05,0
0.5685,8.2246e-06,0
0.569,4.0284e-06,0
0.5695,-1.5106e-06,0
0.57,-6.3783e-06,0
0.5705,-8.2246e-06,0
0.571,-7.2175e-06,0
0.5715,-3.357e-06,0
0.572,3.1891e-06,0
0.5725,6.5461e-06,0
0.573,5.8747e-06,0
0.5735,6.5461e-06,0
0.574,1.326e-05,0
0.5745,2.6352e-05,0
0.575,3.5416e-05,0
0.5755,3.592e-05,0
0.576,3.2059e-05,0
0.5765,2.8199e-05,0
0.577,2.6688e-05,0
0.5775,2.8031e-05,0
0.578,2.887e-05,0
0.5785,3.0716e-05,0
0.579,3.4745e-05,0
0.5795,3.2731e-05,0
0.58,2.2995e-05,0
0.5805,1.0071e-05,0
0.581,0,0
0.5815,-2.0142e-06,0
0.582,3.5248e-06,0
0.5825,1.0239e-05,0
0.583,1.2589e-05,0
0.5835,1.326e-05,0
0.584,1.2924e-05,0
0.5845,1.1246e-05,0
0.585,1.0575e-05,0
0.5855,1.1917e-05,0
0.586,1.7792e-05,0
0.5865,2.8367e-05,0
0.587,3.9277e-05,0
0.5875,4.5487e-05,0
0.588,4.5487e-05,0
0.5885,4.1123e-05,0
0.589,3.5416e-05,0
0.5895,3.3066e-05,0
0.59,3.0884e-05,0
0.5905,3.0213e-05,0
0.591,2.9206e-05,0
0.5915,2.8199e-05,0
0.592,2.8031e-05,0
0.5925,2.6688e-05,0
0.593,2.4842e-05,0
0.5935,2.9709e-05,0
0.594,4.3473e-05,0
0.5945,5.3544e-05,0
0.595,5.1865e-05,0
0.5955,4.1291e-05,0
0.596,3.0549e-05,0
0.5965,2.0646e-05,0
0.597,1.0575e-05,0
0.5975,-1.6785e-06,0
0.598,-1.3092e-05,0
0.5985,-1.9806e-05,0
0.599,-2.0981e-05,0
0.5995,-1.8631e-05,0
0.6,-1.2924e-05,0
0.6005,-6.714e-07,0
0.601,1.2924e-05,0
0.6015,2.182e-05,0
0.602,2.1653e-05,0
0.6025,1.4939e-05,0
0.603,1.0239e-05,0
0.6035,1.326e-05,0
0.604,1.9638e-05,0
0.6045,2.1149e-05,0
0.605,2.0478e-05,0
0.6055,2.3499e-05,0
0.606,3.1891e-05,0
0.6065,3.9948e-05,0
0.607,4.2802e-05,0
0.6075,4.4816e-05,0
0.608,4.6159e-05,0
0.6085,4.8508e-05,0
0.609,5.3208e-05,0
0.6095,5.7237e-05,0
0.61,5.5894e-05,0
0.6105,4.918e-05,0
0.611,3.8437e-05,0
0.6115,2.4002e-05,0
0.612,1.3764e-05,0
0.6125,1.1246e-05,0
0.613,9.5674e-06,0
0.6135,4.6998e-06,0
0.614,-5.8747e-06,0
0.6145,-2.2828e-05,0
0.615,-3.9445e-05,0
0.6155,-4.8173e-05,0
0.616,-4.8005e-05,0
0.6165,-3.9948e-05,0
0.617,-3.0549e-05,0
0.6175,-2.1988e-05,0
0.618,-1.2253e-05,0
0.6185,-1.8463e-06,0
0.619,7.5532e-06,0
0.6195,1.4603e-05,0
0.62,2.0478e-05,0
0.6205,2.6017e-05,0
0.621,3.1388e-05,0
0.6215,3.3402e-05,0
0.622,3.1724e-05,0
0.6225,2.9206e-05,0
0.623,2.8702e-05,0
0.6235,3.0884e-05,0
0.624,3.5416e-05,0
0.6245,3.9445e-05,0
0.625,4.213e-05,0
0.6255,4.5487e-05,0
0.626,4.8173e-05,0
0.6265,4.918e-05,0
0.627,4.7333e-05,0
0.6275,4.448e-05,0
0.628,4.3977e-05,0
0.6285,4.1123e-05,0
0.629,3.2731e-05,0
0.6295,2.4002e-05,0
0.63,2.1149e-05,0
0.6305,2.5849e-05,0
0.631,3.4073e-05,0
0.6315,3.6088e-05,0
0.632,3.1556e-05,0
0.6325,2.7359e-05,0
0.633,2.4002e-05,0
0.6335,1.947e-05,0
0.634,1.4939e-05,0
0.6345,1.4939e-05,0
0.635,1.8967e-05,0
0.6355,2.3331e-05,0
0.636,2.5345e-05,0
0.6365,2.4338e-05,0
0.637,2.4002e-05,0
0.6375,2.5009e-05,0
0.638,2.652e-05,0
0.6385,2.9206e-05,0
0.639,3.1724e-05,0
0.6395,3.0213e-05,0
0.64,2.5177e-05,0
0.6405,1.8631e-05,0
0.641,1.0071e-05,0
0.6415,1.1749e-06,0
0.642,-2.5177e-06,0
0.6425,4.8676e-06,0
0.643,1.8296e-05,0
0.6435,2.8031e-05,0
0.644,3.1052e-05,0
0.6445,3.0381e-05,0
0.645,2.887e-05,0
0.6455,2.8702e-05,0
0.646,2.887e-05,0
0.6465,2.3835e-05,0
0.647,1.2589e-05,0
0.6475,-1.0071e-06,0
0.648,-1.3092e-05,0
0.6485,-1.8296e-05,0
0.649,-1.3596e-05,0
0.6495,-2.8534e-06,0
0.65,9.0639e-06,0
0.6505,1.5778e-05,0
0.651,1.3596e-05,0
0.6515,8.896e-06,0
0.652,9.3996e-06,0
0.6525,1.2757e-05,0
0.653,1.4435e-05,0
0.6535,1.4603e-05,0
0.654,1.3764e-05,0
0.6545,7.2175e-06,0
0.655,-4.1962e-06,0
0.6555,-9.7353e-06,0
0.656,-4.8676e-06,0
0.6565,4.8676e-06,0
0.657,1.5946e-05,0
0.6575,2.652e-05,0
0.658,3.4073e-05,0
0.6585,3.4745e-05,0
0.659,2.887e-05,0
0.6595,2.3331e-05,0
0.66,2.3835e-05,0
0.6605,2.7024e-05,0
0.661,2.8031e-05,0
0.6615,2.7527e-05,0
0.662,3.122e-05,0
0.6625,3.8102e-05,0
0.663,3.978e-05,0
0.6635,3.2395e-05,0
0.664,2.3667e-05,0
0.6645,2.031e-05,0
0.665,2.0478e-05,0
0.6655,2.1317e-05,0
0.666,2.3667e-05,0
0.6665,2.5345e-05,0
0.667,2.6856e-05,0
0.6675,2.7863e-05,0
0.668,3.0716e-05,0
0.6685,3.6759e-05,0
0.669,3.7598e-05,0
0.6695,3.3234e-05,0
0.67,3.1891e-05,0
0.6705,3.2731e-05,0
0.671,3.5416e-05,0
0.6715,3.5416e-05,0
0.672,2.7192e-05,0
0.6725,1.1917e-05,0
0.673,-3.8605e-06,0
0.6735,-1.5274e-05,0
0.674,-2.2156e-05,0
0.6745,-2.652e-05,0
0.675,-2.8534e-05,0
0.6755,-2.8031e-05,0
0.676,-2.7024e-05,0
0.6765,-2.3331e-05,0
0.677,-1.1414e-05,0
0.6775,3.1891e-06,0
0.678,1.4939e-05,0
0.6785,2.2324e-05,0
0.679,2.7695e-05,0
0.6795,3.4577e-05,0
0.68,4.4648e-05,0
0.6805,5.4215e-05,0
0.681,6.1097e-05,0
0.6815,6.4286e-05,0
0.682,5.9251e-05,0
0.6825,5.3208e-05,0
0.683,5.2201e-05,0
0.6835,4.8844e-05,0
0.684,4.0116e-05,0
0.6845,2.6352e-05,0
0.685,1.2757e-05,0
0.6855,1.8463e-06,0
0.686,-6.0426e-06,0
0.6865,-1.091e-05,0
0.687,-7.5532e-06,0
0.6875,3.0213e-06,0
0.688,9.0639e-06,0
0.6885,4.8676e-06,0
0.689,-5.035e-07,0
0.6895,-5.035e-07,0
0.69,3.8605e-06,0
0.6905,9.2317e-06,0
0.691,1.2757e-05,0
0.6915,1.6785e-05,0
0.692,2.266e-05,0
0.6925,2.6688e-05,0
0.693,3.1724e-05,0
0.6935,3.4745e-05,0
0.694,3.5752e-05,0
0.6945,3.5416e-05,0
0.695,3.508e-05,0
0.6955,3.8437e-05,0
0.696,4.5319e-05,0
0.6965,4.8844e-05,0
0.697,4.4816e-05,0
0.6975,3.8437e-05,0
0.698,3.4745e-05,0
0.6985,3.3234e-05,0
0.699,2.9206e-05,0
0.6995,2.1317e-05,0
0.7,1.2757e-05,0
0.7005,6.5461e-06,0
0.701,4.3641e-06,0
0.7015,5.8747e-06,0
0.702,7.8889e-06,0
0.7025,5.7069e-06,0
0.703,3.357e-07,0
0.7035,-2.6856e-06,0
0.704,-5.035e-07,0
0.7045,8.2246e-06,0
0.705,1.796e-05,0
0.7055,2.3835e-05,0
0.706,2.7192e-05,0
0.7065,2.7359e-05,0
0.707,2.6688e-05,0
0.7075,2.5849e-05,0
0.708,2.4002e-05,0
0.7085,2.3331e-05,0
0.709,2.3667e-05,0
0.7095,2.1149e-05,0
0.71,1.7288e-05,0
0.7105,1.4603e-05,0
0.711,1.091e-05,0
0.7115,1.091e-05,0
0.712,1.6953e-05,0
0.7125,2.5849e-05,0
0.713,3.0716e-05,0
0.7135,2.9374e-05,0
0.714,2.6352e-05,0
0.7145,2.4674e-05,0
0.715,2.4506e-05,0
0.7155,2.4002e-05,0
0.716,2.3667e-05,0
0.7165,2.5009e-05,0
0.717,2.0646e-05,0
0.7175,1.3764e-05,0
0.718,9.5674e-06,0
0.7185,8.2246e-06,0
0.719,1.1917e-05,0
0.7195,1.5442e-05,0
0.72,1.5778e-05,0
0.7205,1.4099e-05,0
0.721,9.9031e-06,0
0.7215,5.2033e-06,0
0.722,4.5319e-06,0
0.7225,9.2317e-06,0
0.723,1.6449e-05,0
0.7235,2.1317e-05,0
0.724,2.1317e-05,0
0.7245,1.6785e-05,0
0.725,1.0575e-05,0
0.7255,8.2246e-06,0
0.726,1.2421e-05,0
0.7265,2.1988e-05,0
0.727,3.1891e-05,0
0.7275,3.1724e-05,0
0.728,2.266e-05,0
0.7285,1.3596e-05,0
0.729,1.2589e-05,0
0.7295,1.6617e-05,0
0.73,2.2324e-05,0
0.7305,2.9877e-05,0
0.731,3.8102e-05,0
0.7315,4.3809e-05,0
0.732,4.5487e-05,0
0.7325,4.4984e-05,0
0.733,4.448e-05,0
0.7335,4.7669e-05,0
0.734,4.6159e-05,0
0.7345,4.1123e-05,0
0.735,3.6088e-05,0
0.7355,3.2731e-05,0
0.736,2.5849e-05,0
0.7365,1.9303e-05,0
0.737,1.796e-05,0
0.7375,1.8631e-05,0
0.738,1.9974e-05,0
0.7385,2.0813e-05,0
0.739,1.3428e-05,0
0.7395,0,0
0.74,-4.5319e-06,0
0.7405,1.1749e-06,0
0.741,7.0497e-06,0
0.7415,4.5319e-06,0
0.742,-3.8605e-06,0
0.7425,-1.1582e-05,0
0.743,-1.4267e-05,0
0.7435,-1.2421e-05,0
0.744,-1.2924e-05,0
0.7445,-1.4603e-05,0
0.745,-8.5603e-06,0
0.7455,1.8463e-06,0
0.746,6.5461e-06,0
0.7465,6.5461e-06,0
0.747,7.5532e-06,0
0.7475,1.1917e-05,0
0.748,1.9638e-05,0
0.7485,2.7527e-05,0
0.749,3.1556e-05,0
0.7495,3.2059e-05,0
0.75,3.0716e-05,0
0.7505,2.8031e-05,0
0.751,2.7695e-05,0
0.7515,3.743e-05,0
0.752,5.4215e-05,0
0.7525,6.4286e-05,0
0.753,6.5293e-05,0
0.7535,6.6133e-05,0
0.754,6.7979e-05,0
0.7545,6.7643e-05,0
0.755,6.5126e-05,0
0.7555,5.8579e-05,0
0.756,4.5487e-05,0
0.7565,2.4002e-05,0
0.757,-4.8676e-06,0
0.7575,-3.3402e-05,0
0.758,-4.8676e-05,0
0.7585,-4.8508e-05,0
0.759,-4.3137e-05,0
0.7595,-3.6423e-05,0
0.76,-2.5345e-05,0
0.7605,-1.0575e-05,0
0.761,5.2033e-06,0
0.7615,1.6953e-05,0
0.762,2.3667e-05,0
0.7625,2.7359e-05,0
0.763,2.8534e-05,0
0.7635,2.8367e-05,0
0.764,2.9374e-05,0
0.7645,3.0716e-05,0
0.765,2.7359e-05,0
0.7655,2.031e-05,0
0.766,1.6449e-05,0
0.7665,1.9135e-05,0
0.767,2.6017e-05,0
0.7675,3.2563e-05,0
0.768,3.7766e-05,0
0.7685,3.978e-05,0
0.769,3.9277e-05,0
0.7695,3.978e-05,0
0.77,3.9277e-05,0
0.7705,3.7095e-05,0
0.771,3.827e-05,0
0.7715,3.9948e-05,0
0.772,4.213e-05,0
0.7725,4.918e-05,0
0.773,5.5222e-05,0
0.7735,5.2705e-05,0
0.774,4.2802e-05,0
0.7745,2.9374e-05,0
0.775,1.3596e-05,0
0.7755,4.5319e-06,0
0.776,6.2104e-06,0
0.7765,8.2246e-06,0
0.777,7.0497e-06,0
0.7775,3.6927e-06,0
0.778,-3.6927e-06,0
0.7785,-1.2924e-05,0
0.779,-1.561e-05,0
0.7795,-6.3783e-06,0
0.78,8.3925e-06,0
0.7805,1.8128e-05,0
0.781,2.0646e-05,0
0.7815,1.9638e-05,0
0.782,1.9135e-05,0
0.7825,1.796e-05,0
0.783,1.5106e-05,0
0.7835,1.326e-05,0
0.784,1.4267e-05,0
0.7845,1.4939e-05,0
0.785,1.4267e-05,0
0.7855,1.3932e-05,0
0.786,1.326e-05,0
0.7865,1.1246e-05,0
0.787,1.1246e-05,0
0.7875,1.2589e-05,0
0.788,1.3932e-05,0
0.7885,1.5946e-05,0
0.789,1.9974e-05,0
0.7895,2.4506e-05,0
0.79,2.652e-05,0
0.7905,2.7359e-05,0
0.791,2.4002e-05,0
0.7915,1.7288e-05,0
0.792,1.4939e-05,0
0.7925,1.8296e-05,0
0.793,2.2324e-05,0
0.7935,2.3835e-05,0
0.794,2.4506e-05,0
0.7945,2.652e-05,0
0.795,3.0381e-05,0
0.7955,3.4241e-05,0
0.796,3.3402e-05,0
0.7965,2.9374e-05,0
0.797,2.652e-05,0
0.7975,2.7024e-05,0
0.798,2.9709e-05,0
0.7985,3.4073e-05,0
0.799,3.6423e-05,0
0.7995,3.5416e-05,0
0.8,3.5248e-05,0
0.8005,3.508e-05,0
0.801,3.5752e-05,0
0.8015,3.508e-05,0
0.802,3.3066e-05,0
0.8025,3.0716e-05,0
0.803,2.8534e-05,0
0.8035,2.5009e-05,0
0.804,1.9135e-05,0
0.8045,1.7624e-05,0
0.805,2.1317e-05,0
0.8055,2.4338e-05,0
0.806,2.5345e-05,0
0.8065,2.8031e-05,0
0.807,3.2059e-05,0
0.8075,3.3738e-05,0
0.808,2.9038e-05,0
0.8085,1.8631e-05,0
0.809,7.3854e-06,0
0.8095,-1.678e-07,0
0.81,-3.1891e-06,0
0.8105,-1.5106e-06,0
0.811,5.2033e-06,0
0.8115,1.561e-05,0
0.812,2.3331e-05,0
0.8125,2.5009e-05,0
0.813,2.5681e-05,0
0.8135,2.8702e-05,0
0.814,3.0381e-05,0
0.8145,2.8031e-05,0
0.815,2.3331e-05,0
0.8155,1.7121e-05,0
0.816,8.896e-06,0
0.8165,2.5177e-06,0
0.817,-8.2246e-06,0
0.8175,-1.9303e-05,0
0.818,-1.7624e-05,0
0.8185,-5.539e-06,0
0.819,4.6998e-06,0
0.8195,1.0239e-05,0
0.82,1.6281e-05,0
0.8205,2.2324e-05,0
0.821,2.5345e-05,0
0.8215,2.4674e-05,0
0.822,2.4506e-05,0
0.8225,2.5009e-05,0
0.823,2.266e-05,0
0.8235,1.8128e-05,0
0.824,1.326e-05,0
0.8245,1.2924e-05,0
0.825,1.7792e-05,0
0.8255,2.5009e-05,0
0.826,3.3402e-05,0
0.8265,4.1459e-05,0
0.827,4.3641e-05,0
0.8275,3.9948e-05,0
0.828,3.7766e-05,0
0.8285,4.1123e-05,0
0.829,4.6494e-05,0
0.8295,4.6159e-05,0
0.83,3.7262e-05,0
0.8305,2.5345e-05,0
0.831,1.4099e-05,0
0.8315,3.1891e-06,0
0.832,-5.8747e-06,0
0.8325,-1.1582e-05,0
0.833,-1.3092e-05,0
0.8335,-1.6617e-05,0
0.834,-1.9303e-05,0
0.8345,-1.5778e-05,0
0.835,-1.0407e-05,0
0.8355,-5.2033e-06,0
0.836,3.6927e-06,0
0.8365,1.5274e-05,0
0.837,2.3835e-05,0
0.8375,2.5849e-05,0
0.838,1.9303e-05,0
0.8385,1.1917e-05,0
0.839,8.5603e-06,0
0.8395,7.5532e-06,0
0.84,9.5674e-06,0
0.8405,1.561e-05,0
0.841,2.9709e-05,0
0.8415,4.2466e-05,0
0.842,4.5319e-05,0
0.8425,4.3809e-05,0
0.843,4.2466e-05,0
0.8435,3.508e-05,0
0.844,2.3331e-05,0
0.8445,1.6785e-05,0
0.845,1.6449e-05,0
0.8455,1.7792e-05,0
0.846,1.3596e-05,0
0.8465,1.8463e-06,0
0.847,-1.0071e-05,0
0.8475,-5.539e-06,0
0.848,1.2924e-05,0
0.8485,2.7695e-05,0
0.849,3.2563e-05,0
0.8495,2.8702e-05,0
0.85,2.182e-05,0
0.8505,1.8463e-05,0
0.851,1.4603e-05,0
0.8515,1.0407e-05,0
0.852,1.1749e-05,0
0.8525,1.4939e-05,0
0.853,1.6617e-05,0
0.8535,1.8967e-05,0
0.854,2.2995e-05,0
0.8545,2.6688e-05,0
0.855,2.7192e-05,0
0.8555,2.5345e-05,0
0.856,2.5177e-05,0
0.8565,2.652e-05,0
0.857,2.6352e-05,0
0.8575,2.4674e-05,0
0.858,2.6017e-05,0
0.8585,2.9038e-05,0
0.859,3.122e-05,0
0.8595,3.0045e-05,0
0.86,2.5009e-05,0
0.8605,2.1149e-05,0
0.861,2.0981e-05,0
0.8615,2.2492e-05,0
0.862,2.4002e-05,0
0.8625,2.2995e-05,0
0.863,2.0478e-05,0
0.8635,2.2995e-05,0
0.864,2.7695e-05,0
0.8645,3.122e-05,0
0.865,3.5584e-05,0
0.8655,4.0787e-05,0
0.866,4.4312e-05,0
0.8665,4.683e-05,0
0.867,4.6662e-05,0
0.8675,4.448e-05,0
0.868,4.3977e-05,0
0.8685,5.0187e-05,0
0.869,5.6397e-05,0
0.8695,5.7908e-05,0
0.87,5.304e-05,0
0.8705,4.3473e-05,0
0.871,3.3738e-05,0
0.8715,2.0478e-05,0
0.872,2.182e-06,0
0.8725,-1.8967e-05,0
0.873,-3.1052e-05,0
0.8735,-2.9374e-05,0
0.874,-2.7695e-05,0
0.8745,-3.0884e-05,0
0.875,-3.508e-05,0
0.8755,-3.0045e-05,0
0.876,-1.6953e-05,0
0.8765,-4.1962e-06,0
0.877,1.678e-07,0
0.8775,5.2033e-06,0
0.878,1.5778e-05,0
0.8785,2.4338e-05,0
0.879,2.6688e-05,0
0.8795,2.652e-05,0
0.88,2.9374e-05,0
0.8805,3.508e-05,0
0.881,4.0452e-05,0
0.8815,4.6159e-05,0
0.882,4.683e-05,0
0.8825,3.9277e-05,0
0.883,2.6688e-05,0
0.8835,1.3596e-05,0
0.884,4.1962e-06,0
0.8845,-1.1749e-06,0
0.885,-1.5106e-06,0
0.8855,1.5106e-06,0
0.886,3.8605e-06,0
0.8865,3.6927e-06,0
0.887,5.0355e-06,0
0.8875,9.9031e-06,0
0.888,1.6953e-05,0
0.8885,2.0478e-05,0
0.889,1.7288e-05,0
0.8895,1.326e-05,0
0.89,1.1749e-05,0
0.8905,1.091e-05,0
0.891,1.1917e-05,0
0.8915,1.2924e-05,0
0.892,1.5778e-05,0
0.8925,2.1317e-05,0
0.893,2.7527e-05,0
0.8935,3.3738e-05,0
0.894,3.9445e-05,0
0.8945,4.3809e-05,0
0.895,4.8005e-05,0
0.8955,4.7333e-05,0
0.896,4.4984e-05,0
0.8965,4.1291e-05,0
0.897,3.2563e-05,0
0.8975,2.0478e-05,0
0.898,9.9031e-06,0
0.8985,3.8605e-06,0
0.899,1.678e-07,0
0.8995,2.182e-06,0
0.9,7.3854e-06,0
0.9005,6.2104e-06,0
0.901,1.3428e-06,0
0.9015,6.714e-07,0
0.902,5.2033e-06,0
0.9025,1.3764e-05,0
0.903,2.1317e-05,0
0.9035,2.6688e-05,0
0.904,3.0213e-05,0
0.9045,3.1891e-05,0
0.905,3.4745e-05,0
0.9055,3.9277e-05,0
0.906,4.0116e-05,0
0.9065,3.4577e-05,0
0.907,2.8367e-05,0
0.9075,2.3667e-05,0
0.908,1.6617e-05,0
0.9085,9.7353e-06,0
0.909,3.1891e-06,0
0.9095,-5.539e-06,0
0.91,-1.0407e-05,0
0.9105,-8.2246e-06,0
0.911,1.1749e-06,0
0.9115,1.0239e-05,0
0.912,1.2757e-05,0
0.9125,1.5274e-05,0
0.913,1.796e-05,0
0.9135,1.5106e-05,0
0.914,1.0575e-05,0
0.9145,9.3996e-06,0
0.915,9.7353e-06,0
0.9155,1.0575e-05,0
0.916,1.1246e-05,0
0.9165,1.5106e-05,0
0.917,2.0478e-05,0
0.9175,2.6184e-05,0
0.918,3.0381e-05,0
0.9185,3.1388e-05,0
0.919,3.0045e-05,0
0.9195,2.9877e-05,0
0.92,3.4409e-05,0
0.9205,4.1459e-05,0
0.921,4.3473e-05,0
0.9215,3.827e-05,0
0.922,3.2059e-05,0
0.9225,3.0716e-05,0
0.923,3.2059e-05,0
0.9235,3.4745e-05,0
0.924,3.8102e-05,0
0.9245,4.0452e-05,0
0.925,3.978e-05,0
0.9255,4.0619e-05,0
0.926,4.4144e-05,0
0.9265,4.5823e-05,0
0.927,4.3977e-05,0
0.9275,3.743e-05,0
0.928,2.9038e-05,0
0.9285,2.031e-05,0
0.929,9.9031e-06,0
0.9295,2.3499e-06,0
0.93,2.0142e-06,0
0.9305,2.5177e-06,0
0.931,2.8534e-06,0
0.9315,4.8676e-06,0
0.932,6.3783e-06,0
0.9325,6.8818e-06,0
0.933,8.2246e-06,0
0.9335,9.7353e-06,0
0.934,1.091e-05,0
0.9345,1.2253e-05,0
0.935,1.326e-05,0
0.9355,1.326e-05,0
0.936,1.2421e-05,0
0.9365,1.0407e-05,0
0.937,9.9031e-06,0
0.9375,1.2421e-05,0
0.938,1.6281e-05,0
0.9385,2.0981e-05,0
0.939,2.6184e-05,0
0.9395,3.2395e-05,0
0.94,4.0116e-05,0
0.9405,4.3641e-05,0
0.941,4.0452e-05,0
0.9415,3.8102e-05,0
0.942,3.743e-05,0
0.9425,3.6088e-05,0
0.943,3.2395e-05,0
0.9435,2.1317e-05,0
0.944,3.357e-06,0
0.9445,-1.3932e-05,0
0.945,-2.2156e-05,0
0.9455,-2.1317e-05,0
0.946,-1.3596e-05,0
0.9465,-4.1962e-06,0
0.947,2.182e-06,0
0.9475,6.8818e-06,0
0.948,1.1582e-05,0
0.9485,1.5274e-05,0
0.949,2.1149e-05,0
0.9495,2.7024e-05,0
0.95,3.3906e-05,0
0.9505,4.4144e-05,0
0.951,5.4048e-05,0
0.9515,5.9754e-05,0
0.952,5.8747e-05,0
0.9525,5.4048e-05,0
0.953,5.0858e-05,0
0.9535,4.7837e-05,0
0.954,4.3641e-05,0
0.9545,3.8437e-05,0
0.955,3.0716e-05,0
0.9555,1.8296e-05,0
0.956,1.1749e-06,0
0.9565,-1.8631e-05,0
0.957,-3.508e-05,0
0.9575,-3.7262e-05,0
0.958,-2.7863e-05,0
0.9585,-1.7121e-05,0
0.959,-7.0497e-06,0
0.9595,4.3641e-06,0
0.96,1.5946e-05,0
0.9605,2.2828e-05,0
0.961,2.3331e-05,0
0.9615,2.1317e-05,0
0.962,2.1317e-05,0
0.9625,2.6017e-05,0
0.963,3.0716e-05,0
0.9635,3.0381e-05,0
0.964,2.6688e-05,0
0.9645,2.4506e-05,0
0.965,2.266e-05,0
0.9655,2.1653e-05,0
0.966,2.3163e-05,0
0.9665,2.3331e-05,0
0.967,2.266e-05,0
0.9675,2.5177e-05,0
0.968,2.652e-05,0
0.9685,2.7192e-05,0
0.969,2.7863e-05,0
0.9695,2.7359e-05,0
0.97,2.8199e-05,0
0.9705,3.0045e-05,0
0.971,3.4409e-05,0
0.9715,3.978e-05,0
0.972,4.1123e-05,0
0.9725,3.6423e-05,0
0.973,3.2395e-05,0
0.9735,3.3066e-05,0
0.974,3.743e-05,0
0.9745,4.2802e-05,0
0.975,4.9683e-05,0
0.9755,5.5558e-05,0
0.976,5.6733e-05,0
0.9765,5.2201e-05,0
0.977,4.5823e-05,0
0.9775,4.2466e-05,0
0.978,3.7095e-05,0
0.9785,2.0813e-05,0
0.979,-3.1891e-06,0
0.9795,-2.8702e-05,0
0.98,-4.7333e-05,0
0.9805,-5.2705e-05,0
0.981,-4.6494e-05,0
0.9815,-3.508e-05,0
0.982,-2.6856e-05,0
0.9825,-2.2995e-05,0
0.983,-1.3596e-05,0
0.9835,-1.6785e-06,0
0.984,6.3783e-06,0
0.9845,1.1917e-05,0
0.985,1.5946e-05,0
0.9855,2.1317e-05,0
0.986,2.9709e-05,0
0.9865,3.8102e-05,0
0.987,4.213e-05,0
0.9875,4.1123e-05,0
0.988,3.6423e-05,0
0.9885,2.9374e-05,0
0.989,2.1988e-05,0
0.9895,1.5274e-05,0
0.99,1.1582e-05,0
0.9905,1.326e-05,0
0.991,1.1917e-05,0
0.9915,6.714e-06,0
0.992,6.2104e-06,0
0.9925,8.896e-06,0
0.993,1.0407e-05,0
0.9935,1.4267e-05,0
0.994,1.9135e-05,0
0.9945,2.5009e-05,0
0.995,3.0716e-05,0
0.9955,3.3402e-05,0
0.996,3.4073e-05,0
0.9965,3.3906e-05,0
0.997,3.2563e-05,0
0.9975,2.9374e-05,0
0.998,2.5849e-05,0
0.9985,2.4338e-05,0
0.999,2.5177e-05,0
0.9995,2.5009e-05,0
1,2.0813e-05,0
1.0005,1.7121e-05,0
1.001,1.8296e-05,0
1.0015,2.2995e-05,0
1.002,2.8702e-05,0
1.0025,3.1388e-05,0
1.003,3.1891e-05,0
1.0035,3.3738e-05,0
1.004,3.2898e-05,0
1.0045,2.7359e-05,0
1.005,2.0981e-05,0
1.0055,1.6617e-05,0
1.006,1.6281e-05,0
1.0065,2.0478e-05,0
1.007,2.0142e-05,0
1.0075,1.4603e-05,0
1.008,1.2421e-05,0
1.0085,1.7288e-05,0
1.009,2.4674e-05,0
1.0095,2.7695e-05,0
1.01,2.5513e-05,0
1.0105,2.1317e-05,0
1.011,1.7121e-05,0
1.0115,1.2757e-05,0
1.012,8.5603e-06,0
1.0125,5.7069e-06,0
1.013,6.3783e-06,0
1.0135,1.2421e-05,0
1.014,1.9303e-05,0
1.0145,2.4338e-05,0
1.015,2.7527e-05,0
1.0155,2.9709e-05,0
1.016,3.4073e-05,0
1.0165,4.0116e-05,0
1.017,4.1459e-05,0
1.0175,3.5752e-05,0
1.018,2.7863e-05,0
1.0185,2.0646e-05,0
1.019,1.4603e-05,0
1.0195,1.0575e-05,0
1.02,7.5532e-06,0
1.0205,6.3783e-06,0
1.021,8.3925e-06,0
1.0215,1.2757e-05,0
1.022,1.5946e-05,0
1.0225,1.7456e-05,0
1.023,1.6617e-05,0
1.0235,1.4435e-05,0
1.024,1.326e-05,0
1.0245,1.1414e-05,0
1.025,1.0071e-05,0
1.0255,1.1582e-05,0
1.026,1.2589e-05,0
1.0265,1.2589e-05,0
1.027,1.4267e-05,0
1.0275,1.8463e-05,0
1.028,2.0646e-05,0
1.0285,1.9303e-05,0
1.029,1.5274e-05,0
1.0295,1.1749e-05,0
1.03,1.0407e-05,0
1.0305,1.2085e-05,0
1.031,1.8631e-05,0
1.0315,2.5009e-05,0
1.032,2.9038e-05,0
1.0325,3.4073e-05,0
1.033,3.743e-05,0
1.0335,3.8773e-05,0
1.034,3.7262e-05,0
1.0345,3.1891e-05,0
1.035,2.1988e-05,0
1.0355,1.2589e-05,0
1.036,5.8747e-06,0
1.0365,3.8605e-06,0
1.037,8.5603e-06,0
1.0375,1.1917e-05,0
1.038,1.1246e-05,0
1.0385,5.8747e-06,0
1.039,1.0071e-06,0
1.0395,2.5177e-06,0
1.04,8.7282e-06,0
1.0405,1.4603e-05,0
1.041,1.796e-05,0
1.0415,2.031e-05,0
1.042,2.1988e-05,0
1.0425,2.5177e-05,0
1.043,2.887e-05,0
1.0435,3.0045e-05,0
1.044,3.0884e-05,0
1.0445,3.1891e-05,0
1.045,3.0884e-05,0
1.0455,2.9374e-05,0
1.046,2.8702e-05,0
1.0465,3.1388e-05,0
1.047,3.6088e-05,0
1.0475,3.9612e-05,0
1.048,4.0452e-05,0
1.0485,3.743e-05,0
1.049,3.2059e-05,0
1.0495,2.8031e-05,0
1.05,2.8367e-05,0
1.0505,3.1724e-05,0
1.051,3.1891e-05,0
1.0515,2.7527e-05,0
1.052,2.3667e-05,0
1.0525,2.0981e-05,0
1.053,1.6617e-05,0
1.0535,9.5674e-06,0
1.054,4.6998e-06,0
1.0545,4.3641e-06,0
1.055,6.8818e-06,0
1.0555,1.1078e-05,0
1.056,1.4771e-05,0
1.0565,1.5274e-05,0
1.057,1.1246e-05,0
1.0575,7.2175e-06,0
1.058,1.0071e-05,0
1.0585,2.031e-05,0
1.059,2.9877e-05,0
1.0595,3.4577e-05,0
1.06,3.5248e-05,0
1.0605,3.2731e-05,0
1.061,2.8702e-05,0
1.0615,2.3163e-05,0
1.062,1.8463e-05,0
1.0625,1.5106e-05,0
1.063,1.3764e-05,0
1.0635,1.4939e-05,0
1.064,1.8631e-05,0
1.0645,2.1317e-05,0
1.065,1.9135e-05,0
1.0655,1.561e-05,0
1.066,1.796e-05,0
1.0665,2.5849e-05,0
1.067,3.1724e-05,0
1.0675,3.3234e-05,0
1.068,2.9709e-05,0
1.0685,2.4842e-05,0
1.069,2.2828e-05,0
1.0695,2.3667e-05,0
1.07,2.4002e-05,0
1.0705,2.1149e-05,0
1.071,1.8631e-05,0
1.0715,1.5106e-05,0
1.072,3.8605e-06,0
1.0725,-6.714e-06,0
1.073,-4.1962e-06,0
1.0735,1.0239e-05,0
1.074,2.0813e-05,0
1.0745,2.0142e-05,0
1.075,1.2421e-05,0
1.0755,4.6998e-06,0
1.076,-1.678e-07,0
1.0765,-7.2175e-06,0
1.077,-1.6281e-05,0
1.0775,-1.8631e-05,0
1.078,-6.2104e-06,0
1.0785,1.3596e-05,0
1.079,2.6017e-05,0
1.0795,3.1052e-05,0
1.08,3.2731e-05,0
1.0805,3.3738e-05,0
1.081,3.5752e-05,0
1.0815,3.8437e-05,0
1.082,4.1459e-05,0
1.0825,4.3809e-05,0
1.083,3.7095e-05,0
1.0835,1.9806e-05,0
1.084,3.0213e-06,0
1.0845,-6.8818e-06,0
1.085,-7.7211e-06,0
1.0855,-2.6856e-06,0
1.086,2.3499e-06,0
1.0865,5.0355e-06,0
1.087,6.2104e-06,0
1.0875,7.5532e-06,0
1.088,1.3092e-05,0
1.0885,2.031e-05,0
1.089,2.7359e-05,0
1.0895,3.3402e-05,0
1.09,3.8102e-05,0
1.0905,4.0116e-05,0
1.091,3.592e-05,0
1.0915,2.652e-05,0
1.092,1.8296e-05,0
1.0925,1.1078e-05,0
1.093,4.5319e-06,0
1.0935,-1.8463e-06,0
1.094,-5.035e-07,0
1.0945,1.8967e-05,0
1.095,4.3473e-05,0
1.0955,5.5558e-05,0
1.096,5.3376e-05,0
1.0965,4.6159e-05,0
1.097,4.0116e-05,0
1.0975,3.4745e-05,0
1.098,2.652e-05,0
1.0985,1.7624e-05,0
1.099,1.0575e-05,0
1.0995,-1.8463e-06,0
1.1,-1.8631e-05,0
1.1005,-3.1052e-05,0
1.101,-3.508e-05,0
1.1015,-3.0381e-05,0
1.102,-1.9303e-05,0
1.1025,-5.3712e-06,0
1.103,1.0575e-05,0
1.1035,2.4002e-05,0
1.104,3.1052e-05,0
1.1045,3.0716e-05,0
1.105,2.887e-05,0
1.1055,2.8702e-05,0
1.106,3.0716e-05,0
1.1065,3.1556e-05,0
1.107,3.1388e-05,0
1.1075,3.3066e-05,0
1.108,3.6255e-05,0
1.1085,3.9445e-05,0
1.109,4.3473e-05,0
1.1095,4.8005e-05,0
1.11,5.2705e-05,0
1.1105,5.5558e-05,0
1.111,5.4887e-05,0
1.1115,5.1194e-05,0
1.112,4.683e-05,0
1.1125,3.9445e-05,0
1.113,2.8534e-05,0
1.1135,1.9303e-05,0
1.114,1.1582e-05,0
1.1145,7.5532e-06,0
1.115,7.2175e-06,0
1.1155,1.0575e-05,0
1.116,1.5274e-05,0
1.1165,1.7288e-05,0
1.117,1.9974e-05,0
1.1175,2.6352e-05,0
1.118,3.3402e-05,0
1.1185,3.8605e-05,0
1.119,4.1627e-05,0
1.1195,3.9612e-05,0
1.12,3.3906e-05,0
1.1205,3.1388e-05,0
1.121,3.2731e-05,0
1.1215,3.1556e-05,0
1.122,2.8031e-05,0
1.1225,1.9974e-05,0
1.123,1.0407e-05,0
1.1235,7.2175e-06,0
1.124,8.2246e-06,0
1.1245,1.1078e-05,0
1.125,1.2589e-05,0
1.1255,1.3764e-05,0
1.126,1.7624e-05,0
1.1265,2.0813e-05,0
1.127,1.6953e-05,0
1.1275,9.9031e-06,0
1.128,4.3641e-06,0
1.1285,3.357e-07,0
1.129,-7.8889e-06,0
1.1295,-1.5274e-05,0
1.13,-1.4267e-05,0
1.1305,-8.3925e-06,0
1.131,-3.5248e-06,0
1.1315,3.5248e-06,0
1.132,1.2924e-05,0
1.1325,2.0478e-05,0
1.133,2.3331e-05,0
1.1335,2.4002e-05,0
1.134,2.9877e-05,0
1.1345,3.978e-05,0
1.135,4.2802e-05,0
1.1355,3.8605e-05,0
1.136,3.4409e-05,0
1.1365,3.6591e-05,0
1.137,4.4144e-05,0
1.1375,5.2537e-05,0
1.138,5.4887e-05,0
1.1385,5.2033e-05,0
1.139,4.8676e-05,0
1.1395,4.2466e-05,0
1.14,3.2059e-05,0
1.1405,1.7456e-05,0
1.141,4.6998e-06,0
1.1415,-1.6785e-06,0
1.142,-4.1962e-06,0
1.1425,-1.2421e-05,0
1.143,-2.4674e-05,0
1.1435,-3.2395e-05,0
1.144,-3.2395e-05,0
1.1445,-2.9206e-05,0
1.145,-2.4002e-05,0
1.1455,-1.4435e-05,0
1.146,-1.1749e-06,0
1.1465,1.2421e-05,0
1.147,1.8967e-05,0
1.1475,1.7456e-05,0
1.148,1.3428e-05,0
1.1485,1.2589e-05,0
1.149,1.4939e-05,0
1.1495,2.1317e-05,0
1.15,2.6017e-05,0
1.1505,2.4002e-05,0
1.151,2.182e-05,0
1.1515,2.3667e-05,0
1.152,2.5009e-05,0
1.1525,2.266e-05,0
1.153,2.0813e-05,0
1.1535,2.3667e-05,0
1.154,2.9206e-05,0
1.1545,2.9709e-05,0
1.155,2.0478e-05,0
1.1555,1.0575e-05,0
1.156,7.7211e-06,0
1.1565,7.7211e-06,0
1.157,1.0575e-05,0
1.1575,1.796e-05,0
1.158,2.6688e-05,0
1.1585,3.4241e-05,0
1.159,3.6591e-05,0
1.1595,3.6423e-05,0
1.16,3.743e-05,0
1.1605,4.2466e-05,0
1.161,4.8173e-05,0
1.1615,4.7837e-05,0
1.162,4.0116e-05,0
1.1625,3.4073e-05,0
1.163,3.1724e-05,0
1.1635,3.2731e-05,0
1.164,3.2395e-05,0
1.1645,2.9542e-05,0
1.165,2.5345e-05,0
1.1655,2.0478e-05,0
1.166,1.3932e-05,0
1.1665,7.7211e-06,0
1.167,7.8889e-06,0
1.1675,1.4603e-05,0
1.168,2.1988e-05,0
1.1685,2.5009e-05,0
1.169,2.4338e-05,0
1.1695,2.2492e-05,0
1.17,1.9974e-05,0
1.1705,1.6281e-05,0
1.171,1.5106e-05,0
1.1715,1.8296e-05,0
1.172,2.0478e-05,0
1.1725,2.0813e-05,0
1.173,2.4338e-05,0
1.1735,2.9374e-05,0
1.174,3.122e-05,0
1.1745,3.1052e-05,0
1.175,3.3738e-05,0
1.1755,3.592e-05,0
1.176,2.8534e-05,0
1.1765,1.2924e-05,0
1.177,-2.0142e-06,0
1.1775,-9.0639e-06,0
1.178,-1.0575e-05,0
1.1785,-9.5674e-06,0
1.179,-1.0239e-05,0
1.1795,-1.1246e-05,0
1.18,-6.3783e-06,0
1.1805,2.0142e-06,0
1.181,6.8818e-06,0
1.1815,1.4603e-05,0
1.182,3.122e-05,0
1.1825,4.4144e-05,0
1.183,4.7166e-05,0
1.1835,4.683e-05,0
1.184,4.8844e-05,0
1.1845,4.9515e-05,0
1.185,4.7166e-05,0
1.1855,4.4144e-05,0
1.186,3.8773e-05,0
1.1865,2.6688e-05,0
1.187,1.091e-05,0
1.1875,-3.1891e-06,0
1.188,-1.6449e-05,0
1.1885,-2.8031e-05,0
1.189,-3.3402e-05,0
1.1895,-2.8367e-05,0
1.19,-1.2924e-05,0
1.1905,2.182e-06,0
1.191,1.0239e-05,0
1.1915,1.1246e-05,0
1.192,8.5603e-06,0
1.1925,9.2317e-06,0
1.193,1.6617e-05,0
1.1935,2.3667e-05,0
1.194,2.6352e-05,0
1.1945,2.7863e-05,0
1.195,3.0716e-05,0
1.1955,3.2059e-05,0
1.196,3.1388e-05,0
1.1965,3.0045e-05,0
1.197,2.7024e-05,0
1.1975,2.1317e-05,0
1.198,1.9303e-05,0
1.1985,2.2995e-05,0
1.199,2.7024e-05,0
1.1995,2.8031e-05,0
1.2,2.9206e-05,0
1.2005,3.2059e-05,0
1.201,3.5248e-05,0
1.2015,3.743e-05,0
1.202,3.8102e-05,0
1.2025,3.7262e-05,0
1.203,3.6423e-05,0
1.2035,3.5752e-05,0
1.204,3.4073e-05,0
1.2045,3.592e-05,0
1.205,4.683e-05,0
1.2055,5.6062e-05,0
1.206,5.1194e-05,0
1.2065,3.6423e-05,0
1.207,2.5177e-05,0
1.2075,2.3331e-05,0
1.208,2.4002e-05,0
1.2085,2.4842e-05,0
1.209,2.5177e-05,0
1.2095,2.1988e-05,0
1.21,1.8967e-05,0
1.2105,2.0142e-05,0
1.211,2.5513e-05,0
1.2115,3.1891e-05,0
1.212,3.1891e-05,0
1.2125,2.2995e-05,0
1.213,1.1917e-05,0
1.2135,3.1891e-06,0
1.214,-4.0284e-06,0
1.2145,-6.0426e-06,0
1.215,-1.0071e-06,0
1.2155,2.8534e-06,0
1.216,-8.392e-07,0
1.2165,-9.7353e-06,0
1.217,-1.6281e-05,0
1.2175,-1.1246e-05,0
1.218,3.0213e-06,0
1.2185,1.3596e-05,0
1.219,1.4603e-05,0
1.2195,1.2589e-05,0
1.22,1.5946e-05,0
1.2205,2.4506e-05,0
1.221,3.2731e-05,0
1.2215,3.6088e-05,0
1.222,3.7095e-05,0
1.2225,3.743e-05,0
1.223,3.4241e-05,0
1.2235,2.7024e-05,0
1.224,2.1149e-05,0
1.2245,2.1653e-05,0
1.225,2.4002e-05,0
1.2255,2.4674e-05,0
1.226,2.3331e-05,0
1.2265,2.266e-05,0
1.227,2.2324e-05,0
1.2275,2.266e-05,0
1.228,2.2492e-05,0
1.2285,2.1988e-05,0
1.229,2.266e-05,0
1.2295,2.0646e-05,0
1.23,1.4603e-05,0
1.2305,1.0239e-05,0
1.231,8.5603e-06,0
1.2315,2.6856e-06,0
1.232,-8.2246e-06,0
1.2325,-1.5778e-05,0
1.233,-1.3596e-05,0
1.2335,-3.5248e-06,0
1.234,1.0071e-05,0
1.2345,1.796e-05,0
1.235,1.796e-05,0
1.2355,1.4603e-05,0
1.236,1.561e-05,0
1.2365,1.8631e-05,0
1.237,2.1317e-05,0
1.2375,2.3163e-05,0
1.238,2.266e-05,0
1.2385,2.2156e-05,0
1.239,2.1653e-05,0
1.2395,2.4002e-05,0
1.24,3.2059e-05,0
1.2405,3.9445e-05,0
1.241,4.1123e-05,0
1.2415,3.978e-05,0
1.242,3.9109e-05,0
1.2425,3.8773e-05,0
1.243,3.6759e-05,0
1.2435,3.1891e-05,0
1.244,2.7024e-05,0
1.2445,2.6017e-05,0
1.245,3.0381e-05,0
1.2455,3.4241e-05,0
1.246,3.7766e-05,0
1.2465,3.9948e-05,0
1.247,3.7262e-05,0
1.2475,2.9206e-05,0
1.248,2.0646e-05,0
1.2485,1.4939e-05,0
1.249,6.3783e-06,0
1.2495,-5.0355e-06,0
1.25,-1.091e-05,0
1.2505,-9.3996e-06,0
1.251,-4.1962e-06,0
1.2515,4.5319e-06,0
1.252,1.3932e-05,0
1.2525,1.9974e-05,0
1.253,2.266e-05,0
1.2535,2.4674e-05,0
1.254,2.266e-05,0
1.2545,1.5778e-05,0
1.255,1.1246e-05,0
1.2555,1.2421e-05,0
1.256,1.4603e-05,0
1.2565,1.4267e-05,0
1.257,1.0239e-05,0
1.2575,8.5603e-06,0
1.258,8.5603e-06,0
1.2585,1.2421e-05,0
1.259,2.1317e-05,0
1.2595,3.2898e-05,0
1.26,4.2802e-05,0
1.2605,4.683e-05,0
1.261,4.9012e-05,0
1.2615,4.9515e-05,0
1.262,4.6159e-05,0
1.2625,3.9109e-05,0
1.263,2.7359e-05,0
1.2635,1.4771e-05,0
1.264,4.8676e-06,0
1.2645,-1.8463e-06,0
1.265,-8.5603e-06,0
1.2655,-1.796e-05,0
1.266,-1.9974e-05,0
1.2665,-1.1749e-05,0
1.267,-1.8463e-06,0
1.2675,6.2104e-06,0
1.268,1.2421e-05,0
1.2685,1.8631e-05,0
1.269,2.5009e-05,0
1.2695,2.7695e-05,0
1.27,2.9374e-05,0
1.2705,3.1388e-05,0
1.271,3.0045e-05,0
1.2715,2.5345e-05,0
1.272,2.3835e-05,0
1.2725,2.5345e-05,0
1.273,2.5849e-05,0
1.2735,2.4674e-05,0
1.274,2.266e-05,0
1.2745,2.1317e-05,0
1.275,2.2324e-05,0
1.2755,2.4506e-05,0
1.276,2.3835e-05,0
1.2765,2.4506e-05,0
1.277,2.5681e-05,0
1.2775,2.652e-05,0
1.278,2.6352e-05,0
1.2785,2.652e-05,0
1.279,2.6352e-05,0
1.2795,2.4002e-05,0
1.28,1.7456e-05,0
1.2805,1.1917e-05,0
1.281,1.1414e-05,0
1.2815,1.3092e-05,0
1.282,1.0575e-05,0
1.2825,8.896e-06,0
1.283,1.4267e-05,0
1.2835,2.7192e-05,0
1.284,3.8102e-05,0
1.2845,3.9109e-05,0
1.285,3.2731e-05,0
1.2855,2.3667e-05,0
1.286,1.561e-05,0
1.2865,1.091e-05,0
1.287,1.0239e-05,0
1.2875,8.3925e-06,0
1.288,2.5177e-06,0
1.2885,-5.539e-06,0
1.289,-1.0071e-05,0
1.2895,-6.0426e-06,0
1.29,2.8534e-06,0
1.2905,1.091e-05,0
1.291,1.3932e-05,0
1.2915,9.0639e-06,0
1.292,2.8534e-06,0
1.2925,3.1891e-06,0
1.293,7.0497e-06,0
1.2935,1.3764e-05,0
1.294,2.1317e-05,0
1.2945,2.6352e-05,0
1.295,3.0045e-05,0
1.2955,3.4577e-05,0
1.296,4.0955e-05,0
1.2965,4.3641e-05,0
1.297,3.9109e-05,0
1.2975,3.4409e-05,0
1.298,3.5416e-05,0
1.2985,3.7095e-05,0
1.299,3.5416e-05,0
1.2995,3.3234e-05,0
1.3,3.0381e-05,0
1.3005,2.7359e-05,0
1.301,3.1052e-05,0
1.3015,3.5752e-05,0
1.302,3.122e-05,0
1.3025,2.3499e-05,0
1.303,1.9303e-05,0
1.3035,1.6953e-05,0
1.304,1.2924e-05,0
1.3045,3.5248e-06,0
1.305,-5.8747e-06,0
1.3055,-5.2033e-06,0
1.306,1.1749e-06,0
1.3065,3.0213e-06,0
1.307,3.8605e-06,0
1.3075,1.1078e-05,0
1.308,1.9974e-05,0
1.3085,2.5345e-05,0
1.309,2.5177e-05,0
1.3095,2.3835e-05,0
1.31,2.5849e-05,0
1.3105,3.0381e-05,0
1.311,3.2395e-05,0
1.3115,2.9374e-05,0
1.312,2.4506e-05,0
1.3125,2.2324e-05,0
1.313,2.2828e-05,0
1.3135,2.7024e-05,0
1.314,3.508e-05,0
1.3145,4.1459e-05,0
1.315,4.2466e-05,0
1.3155,4.0452e-05,0
1.316,3.592e-05,0
1.3165,3.1724e-05,0
1.317,3.122e-05,0
1.3175,3.3402e-05,0
1.318,3.4745e-05,0
1.3185,3.1388e-05,0
1.319,2.3499e-05,0
1.3195,1.7624e-05,0
1.32,1.5442e-05,0
1.3205,9.9031e-06,0
1.321,1.678e-07,0
1.3215,-6.2104e-06,0
1.322,-7.0497e-06,0
1.3225,-6.8818e-06,0
1.323,-5.0355e-06,0
1.3235,-1.8463e-06,0
1.324,3.5248e-06,0
1.3245,8.896e-06,0
1.325,1.091e-05,0
1.3255,1.091e-05,0
1.326,1.091e-05,0
1.3265,1.1917e-05,0
1.327,1.326e-05,0
1.3275,1.326e-05,0
1.328,1.2421e-05,0
1.3285,1.326e-05,0
1.329,1.4099e-05,0
1.3295,1.4267e-05,0
1.33,1.5442e-05,0
1.3305,1.8296e-05,0
1.331,2.031e-05,0
1.3315,2.1317e-05,0
1.332,2.2324e-05,0
1.3325,2.5681e-05,0
1.333,3.3402e-05,0
1.3335,4.683e-05,0
1.334,6.2776e-05,0
1.3345,7.3014e-05,0
1.335,7.1839e-05,0
1.3355,6.5629e-05,0
1.336,6.4286e-05,0
1.3365,6.479e-05,0
1.337,5.9587e-05,0
1.3375,4.683e-05,0
1.338,2.6017e-05,0
1.3385,1.5106e-06,0
1.339,-1.9303e-05,0
1.3395,-3.3738e-05,0
1.34,-4.4144e-05,0
1.3405,-4.7837e-05,0
1.341,-4.4144e-05,0
1.3415,-3.7262e-05,0
1.342,-3.1052e-05,0
1.3425,-2.2324e-05,0
1.343,-7.0497e-06,0
1.3435,8.2246e-06,0
1.344,1.7288e-05,0
1.3445,2.1317e-05,0
1.345,2.0646e-05,0
1.3455,1.5946e-05,0
1.346,1.2421e-05,0
1.3465,1.0575e-05,0
1.347,1.2589e-05,0
1.3475,1.8631e-05,0
1.348,2.4506e-05,0
1.3485,2.8534e-05,0
1.349,3.2395e-05,0
1.3495,3.6088e-05,0
1.35,3.9109e-05,0
1.3505,3.9445e-05,0
1.351,3.4745e-05,0
1.3515,2.887e-05,0
1.352,2.5345e-05,0
1.3525,2.0478e-05,0
1.353,1.2421e-05,0
1.3535,5.8747e-06,0
1.354,5.8747e-06,0
1.3545,1.1917e-05,0
1.355,1.8631e-05,0
1.3555,2.3163e-05,0
1.356,2.5681e-05,0
1.3565,2.6352e-05,0
1.357,2.6017e-05,0
1.3575,2.4674e-05,0
1.358,2.3163e-05,0
1.3585,2.2324e-05,0
1.359,2.2995e-05,0
1.3595,2.5345e-05,0
1.36,2.7695e-05,0
1.3605,2.7359e-05,0
1.361,2.7359e-05,0
1.3615,2.8199e-05,0
1.362,2.7359e-05,0
1.3625,2.4002e-05,0
1.363,2.1317e-05,0
1.3635,2.1317e-05,0
1.364,2.4002e-05,0
1.3645,2.9374e-05,0
1.365,3.8773e-05,0
1.3655,5.1698e-05,0
1.366,6.3447e-05,0
1.3665,6.9154e-05,0
1.367,7.1336e-05,0
1.3675,7.2343e-05,0
1.368,6.7979e-05,0
1.3685,5.7572e-05,0
1.369,4.8508e-05,0
1.3695,3.8941e-05,0
1.37,2.4002e-05,0
1.3705,7.0497e-06,0
1.371,-1.1749e-05,0
1.3715,-2.9709e-05,0
1.372,-4.4816e-05,0
1.3725,-4.7166e-05,0
1.373,-3.8605e-05,0
1.3735,-2.9709e-05,0
1.374,-2.4674e-05,0
1.3745,-1.9806e-05,0
1.375,-9.9031e-06,0
1.3755,4.1962e-06,0
1.376,1.561e-05,0
1.3765,2.182e-05,0
1.377,2.6688e-05,0
1.3775,2.887e-05,0
1.378,2.6688e-05,0
1.3785,2.6017e-05,0
1.379,2.7527e-05,0
1.3795,2.5849e-05,0
1.38,1.6953e-05,0
1.3805,5.7069e-06,0
1.381,-4.1962e-06,0
1.3815,-1.0071e-05,0
1.382,-8.5603e-06,0
1.3825,-8.392e-07,0
1.383,8.896e-06,0
1.3835,1.8296e-05,0
1.384,2.4338e-05,0
1.3845,2.7863e-05,0
1.385,3.2731e-05,0
1.3855,3.5752e-05,0
1.386,3.4073e-05,0
1.3865,3.1388e-05,0
1.387,3.1388e-05,0
1.3875,3.4745e-05,0
1.388,3.743e-05,0
1.3885,4.0452e-05,0
1.389,4.2466e-05,0
1.3895,4.0452e-05,0
1.39,3.2898e-05,0
1.3905,1.8128e-05,0
1.391,4.8676e-06,0
1.3915,2.5177e-06,0
1.392,1.0239e-05,0
1.3925,1.8631e-05,0
1.393,2.1317e-05,0
1.3935,2.2995e-05,0
1.394,2.652e-05,0
1.3945,3.1556e-05,0
1.395,3.1556e-05,0
1.3955,2.5177e-05,0
1.396,2.0646e-05,0
1.3965,2.5009e-05,0
1.397,3.3234e-05,0
1.3975,3.7934e-05,0
1.398,3.9612e-05,0
1.3985,3.8773e-05,0
1.399,3.7262e-05,0
1.3995,3.7766e-05,0
1.4,3.978e-05,0
1.4005,3.978e-05,0
1.401,3.3402e-05,0
1.4015,2.266e-05,0
1.402,1.5946e-05,0
1.4025,1.2924e-05,0
1.403,1.0239e-05,0
1.4035,8.5603e-06,0
1.404,6.8818e-06,0
1.4045,5.539e-06,0
1.405,7.7211e-06,0
1.4055,1.4267e-05,0
1.406,2.4842e-05,0
1.4065,3.2395e-05,0
1.407,3.508e-05,0
1.4075,3.7095e-05,0
1.408,4.1123e-05,0
1.4085,3.978e-05,0
1.409,3.122e-05,0
1.4095,2.5345e-05,0
1.41,2.2995e-05,0
1.4105,2.1988e-05,0
1.411,2.182e-05,0
1.4115,2.266e-05,0
1.412,2.2324e-05,0
1.4125,2.0646e-05,0
1.413,1.947e-05,0
1.4135,1.8296e-05,0
1.414,1.7792e-05,0
1.4145,1.796e-05,0
1.415,1.6449e-05,0
1.4155,1.2924e-05,0
1.416,9.2317e-06,0
1.4165,3.5248e-06,0
1.417,-3.5248e-06,0
1.4175,-1.2589e-05,0
1.418,-1.9806e-05,0
1.4185,-2.0981e-05,0
1.419,-1.8128e-05,0
1.4195,-1.3596e-05,0
1.42,-6.714e-06,0
1.4205,3.1891e-06,0
1.421,1.3932e-05,0
1.4215,2.1317e-05,0
1.422,2.7192e-05,0
1.4225,3.3738e-05,0
1.423,3.9445e-05,0
1.4235,4.1962e-05,0
1.424,4.1459e-05,0
1.4245,3.5752e-05,0
1.425,2.652e-05,0
1.4255,1.6449e-05,0
1.426,7.8889e-06,0
1.4265,1.5106e-06,0
1.427,3.357e-07,0
1.4275,8.3925e-06,0
1.428,2.1149e-05,0
1.4285,2.8031e-05,0
1.429,2.5513e-05,0
1.4295,1.6281e-05,0
1.43,1.0071e-05,0
1.4305,8.896e-06,0
1.431,1.2421e-05,0
1.4315,1.4939e-05,0
1.432,1.7121e-05,0
1.4325,2.0646e-05,0
1.433,1.9638e-05,0
1.4335,1.326e-05,0
1.434,1.0407e-05,0
1.4345,1.7456e-05,0
1.435,2.7024e-05,0
1.4355,3.1724e-05,0
1.436,2.9374e-05,0
1.4365,2.5681e-05,0
1.437,2.266e-05,0
1.4375,2.0142e-05,0
1.438,1.9974e-05,0
1.4385,2.2995e-05,0
1.439,2.4002e-05,0
1.4395,2.1653e-05,0
1.44,1.8463e-05,0
1.4405,1.7288e-05,0
1.441,1.9638e-05,0
1.4415,2.3667e-05,0
1.442,3.0213e-05,0
1.4425,3.8437e-05,0
1.443,4.7166e-05,0
1.4435,5.153e-05,0
1.444,4.9012e-05,0
1.4445,4.3473e-05,0
1.445,3.6759e-05,0
1.4455,2.9374e-05,0
1.446,2.0646e-05,0
1.4465,1.0071e-05,0
1.447,8.392e-07,0
1.4475,-5.8747e-06,0
1.448,-6.5461e-06,0
1.4485,-3.8605e-06,0
1.449,-8.2246e-06,0
1.4495,-1.4939e-05,0
1.45,-1.4099e-05,0
1.4505,-5.0355e-06,0
1.451,9.5674e-06,0
1.4515,2.1317e-05,0
1.452,2.4842e-05,0
1.4525,2.2828e-05,0
1.453,1.8631e-05,0
1.4535,1.3764e-05,0
1.454,1.2253e-05,0
1.4545,1.6114e-05,0
1.455,1.9638e-05,0
1.4555,2.0981e-05,0
1.456,1.9135e-05,0
1.4565,1.7121e-05,0
1.457,1.947e-05,0
1.4575,2.4674e-05,0
1.458,2.6688e-05,0
1.4585,2.5177e-05,0
1.459,2.2324e-05,0
1.4595,2.1317e-05,0
1.46,2.1317e-05,0
1.4605,1.8296e-05,0
1.461,1.326e-05,0
1.4615,1.1246e-05,0
1.462,1.2589e-05,0
1.4625,1.3596e-05,0
1.463,1.0575e-05,0
1.4635,4.8676e-06,0
1.464,3.5248e-06,0
1.4645,1.0575e-05,0
1.465,2.0142e-05,0
1.4655,2.4674e-05,0
1.466,2.5849e-05,0
1.4665,2.9206e-05,0
1.467,3.2059e-05,0
1.4675,3.508e-05,0
1.468,3.9277e-05,0
1.4685,4.0116e-05,0
1.469,3.6591e-05,0
1.4695,3.3066e-05,0
1.47,3.3402e-05,0
1.4705,3.592e-05,0
1.471,3.8102e-05,0
1.4715,4.0787e-05,0
1.472,4.213e-05,0
1.4725,4.3305e-05,0
1.473,4.2298e-05,0
1.4735,3.8102e-05,0
1.474,3.3402e-05,0
1.4745,3.1724e-05,0
1.475,2.5513e-05,0
1.4755,1.561e-05,0
1.476,9.7353e-06,0
1.4765,7.3854e-06,0
1.477,1.1749e-06,0
1.4775,-6.3783e-06,0
1.478,-7.8889e-06,0
1.4785,-2.3499e-06,0
1.479,4.8676e-06,0
1.4795,1.0239e-05,0
1.48,1.3596e-05,0
1.4805,1.7288e-05,0
1.481,1.9638e-05,0
1.4815,1.6953e-05,0
1.482,1.561e-05,0
1.4825,1.7624e-05,0
1.483,2.031e-05,0
1.4835,2.3667e-05,0
1.484,3.0716e-05,0
1.4845,4.1962e-05,0
1.485,4.9515e-05,0
1.4855,4.8844e-05,0
1.486,4.4816e-05,0
1.4865,4.1795e-05,0
1.487,3.6423e-05,0
1.4875,2.7695e-05,0
1.488,1.3932e-05,0
1.4885,-1.8463e-06,0
1.489,-1.5274e-05,0
1.4895,-2.6017e-05,0
1.49,-2.8367e-05,0
1.4905,-1.6449e-05,0
1.491,5.035e-07,0
1.4915,7.2175e-06,0
1.492,2.8534e-06,0
1.4925,5.035e-07,0
1.493,4.1962e-06,0
1.4935,9.9031e-06,0
1.494,1.1582e-05,0
1.4945,1.1078e-05,0
1.495,1.2085e-05,0
1.4955,1.5946e-05,0
1.496,2.2995e-05,0
1.4965,3.2059e-05,0
1.497,4.0452e-05,0
1.4975,4.9348e-05,0
1.498,5.6733e-05,0
1.4985,6.1265e-05,0
1.499,6.2944e-05,0
1.4995,5.8579e-05,0
1.5,4.8173e-05,0
1.5005,3.6759e-05,0
1.501,2.652e-05,0
1.5015,1.8128e-05,0
1.502,1.1246e-05,0
1.5025,1.8463e-06,0
1.503,-9.5674e-06,0
1.5035,-1.6953e-05,0
1.504,-1.6449e-05,0
1.5045,-1.0239e-05,0
1.505,-2.182e-06,0
1.5055,5.539e-06,0
1.506,1.091e-05,0
1.5065,1.2253e-05,0
1.507,9.5674e-06,0
1.5075,7.8889e-06,0
1.508,1.1582e-05,0
1.5085,1.796e-05,0
1.509,2.1988e-05,0
1.5095,2.0478e-05,0
1.51,1.7624e-05,0
1.5105,2.031e-05,0
1.511,2.652e-05,0
1.5115,3.2898e-05,0
1.512,3.7934e-05,0
1.5125,3.8941e-05,0
1.513,3.7598e-05,0
1.5135,3.8605e-05,0
1.514,3.6088e-05,0
1.5145,2.7695e-05,0
1.515,1.796e-05,0
1.5155,1.326e-05,0
1.516,1.326e-05,0
1.5165,1.2757e-05,0
1.517,1.4267e-05,0
1.5175,2.0142e-05,0
1.518,2.7695e-05,0
1.5185,3.3066e-05,0
1.519,3.4409e-05,0
1.5195,3.4073e-05,0
1.52,3.5752e-05,0
1.5205,3.9109e-05,0
1.521,4.1123e-05,0
1.5215,3.9445e-05,0
1.522,3.7934e-05,0
1.5225,3.8102e-05,0
1.523,3.6591e-05,0
1.5235,3.3066e-05,0
1.524,2.5681e-05,0
1.5245,1.796e-05,0
1.525,1.1078e-05,0
1.5255,4.1962e-06,0
1.526,1.5106e-06,0
1.5265,3.5248e-06,0
1.527,6.8818e-06,0
1.5275,1.1414e-05,0
1.528,1.7624e-05,0
1.5285,1.8296e-05,0
1.529,1.2421e-05,0
1.5295,4.8676e-06,0
1.53,-1.1749e-06,0
1.5305,-3.1891e-06,0
1.531,2.3499e-06,0
1.5315,1.2757e-05,0
1.532,1.8967e-05,0
1.5325,1.9638e-05,0
1.533,2.2995e-05,0
1.5335,3.5416e-05,0
1.534,5.623e-05,0
1.5345,7.335e-05,0
1.535,7.6707e-05,0
1.5355,6.63e-05,0
1.536,4.6159e-05,0
1.5365,1.8967e-05,0
1.537,-4.5319e-06,0
1.5375,-1.7624e-05,0
1.538,-1.8967e-05,0
1.5385,-1.7456e-05,0
1.539,-1.8967e-05,0
1.5395,-1.9806e-05,0
1.54,-2.031e-05,0
1.5405,-1.326e-05,0
1.541,2.5177e-06,0
1.5415,1.5274e-05,0
1.542,1.6449e-05,0
1.5425,1.1749e-05,0
1.543,6.2104e-06,0
1.5435,2.5177e-06,0
1.544,2.6856e-06,0
1.5445,5.0355e-06,0
1.545,6.714e-06,0
1.5455,1.0575e-05,0
1.546,1.9974e-05,0
1.5465,3.0549e-05,0
1.547,3.7766e-05,0
1.5475,3.8102e-05,0
1.548,3.3738e-05,0
1.5485,3.0213e-05,0
1.549,3.0213e-05,0
1.5495,3.1388e-05,0
1.55,3.1052e-05,0
1.5505,2.9709e-05,0
1.551,2.8367e-05,0
1.5515,2.5849e-05,0
1.552,2.1317e-05,0
1.5525,2.0142e-05,0
1.553,2.2324e-05,0
1.5535,2.5345e-05,0
1.554,2.6017e-05,0
1.5545,2.266e-05,0
1.555,1.5106e-05,0
1.5555,8.5603e-06,0
1.556,9.7353e-06,0
1.5565,2.1317e-05,0
1.557,3.2059e-05,0
1.5575,3.5248e-05,0
1.558,3.2898e-05,0
1.5585,2.9374e-05,0
1.559,1.9974e-05,0
1.5595,1.0071e-05,0
1.56,7.5532e-06,0
1.5605,9.5674e-06,0
1.561,1.1414e-05,0
1.5615,1.0575e-05,0
1.562,1.3932e-05,0
1.5625,2.1317e-05,0
1.563,2.4674e-05,0
1.5635,2.4506e-05,0
1.564,2.7359e-05,0
1.5645,3.3234e-05,0
1.565,3.7095e-05,0
1.5655,4.0116e-05,0
1.566,4.3473e-05,0
1.5665,4.4984e-05,0
1.567,4.2802e-05,0
1.5675,4.1291e-05,0
1.568,3.9277e-05,0
1.5685,3.2563e-05,0
1.569,2.2828e-05,0
1.5695,1.7792e-05,0
1.57,1.326e-05,0
1.5705,5.7069e-06,0
1.571,-5.0355e-06,0
1.5715,-1.5274e-05,0
1.572,-1.8967e-05,0
1.5725,-1.561e-05,0
1.573,-8.896e-06,0
1.5735,-5.2033e-06,0
1.574,-4.8676e-06,0
1.5745,-4.3641e-06,0
1.575,-4.1962e-06,0
1.5755,-5.035e-07,0
1.576,8.5603e-06,0
1.5765,1.8463e-05,0
1.577,2.2324e-05,0
1.5775,2.1988e-05,0
1.578,2.1149e-05,0
1.5785,2.1317e-05,0
1.579,2.3667e-05,0
1.5795,2.6184e-05,0
1.58,2.8534e-05,0
1.5805,2.8702e-05,0
1.581,2.9038e-05,0
1.5815,3.1388e-05,0
1.582,3.6088e-05,0
1.5825,3.8605e-05,0
1.583,4.2466e-05,0
1.5835,4.918e-05,0
1.584,5.4551e-05,0
1.5845,5.3544e-05,0
1.585,5.0355e-05,0
1.5855,5.0523e-05,0
1.586,5.069e-05,0
1.5865,4.4984e-05,0
1.587,3.6759e-05,0
1.5875,2.8702e-05,0
1.588,1.8631e-05,0
1.5885,7.8889e-06,0
1.589,-5.2033e-06,0
1.5895,-1.6953e-05,0
1.59,-1.9638e-05,0
1.5905,-1.5442e-05,0
1.591,-1.3092e-05,0
1.5915,-1.0239e-05,0
1.592,-3.1891e-06,0
1.5925,6.0426e-06,0
1.593,1.3596e-05,0
1.5935,1.8631e-05,0
1.594,2.3331e-05,0
1.5945,2.8367e-05,0
1.595,3.2059e-05,0
1.5955,3.8437e-05,0
1.596,4.4144e-05,0
1.5965,4.683e-05,0
1.597,4.8508e-05,0
1.5975,5.1698e-05,0
1.598,5.3208e-05,0
1.5985,4.8005e-05,0
1.599,3.7598e-05,0
1.5995,2.9374e-05,0
1.6,2.5681e-05,0
1.6005,2.182e-05,0
1.601,1.8631e-05,0
1.6015,1.7624e-05,0
1.602,2.031e-05,0
1.6025,2.4002e-05,0
1.603,2.266e-05,0
1.6035,1.3092e-05,0
1.604,5.035e-07,0
1.6045,-7.7211e-06,0
1.605,-9.5674e-06,0
1.6055,-7.5532e-06,0
1.606,-6.3783e-06,0
1.6065,-7.5532e-06,0
1.607,-1.3932e-05,0
1.6075,-2.7359e-05,0
1.608,-4.1795e-05,0
1.6085,-4.2802e-05,0
1.609,-2.6352e-05,0
1.6095,-6.8818e-06,0
1.61,2.8534e-06,0
1.6105,3.8605e-06,0
1.611,5.2033e-06,0
1.6115,1.1582e-05,0
1.612,1.7288e-05,0
1.6125,1.561e-05,0
1.613,7.8889e-06,0
1.6135,4.3641e-06,0
1.614,5.2033e-06,0
1.6145,8.7282e-06,0
1.615,1.4939e-05,0
1.6155,2.2828e-05,0
1.616,3.0381e-05,0
1.6165,3.6423e-05,0
1.617,4.0452e-05,0
1.6175,4.9348e-05,0
1.618,5.9419e-05,0
1.6185,6.2944e-05,0
1.619,5.9419e-05,0
1.6195,5.153e-05,0
1.62,4.448e-05,0
1.6205,4.0116e-05,0
1.621,3.6759e-05,0
1.6215,3.5752e-05,0
1.622,3.3402e-05,0
1.6225,2.7863e-05,0
1.623,2.5009e-05,0
1.6235,2.3667e-05,0
1.624,2.0142e-05,0
1.6245,1.7624e-05,0
1.625,1.7792e-05,0
1.6255,2.0981e-05,0
1.626,2.9374e-05,0
1.6265,3.8437e-05,0
1.627,4.5151e-05,0
1.6275,5.0858e-05,0
1.628,5.2537e-05,0
1.6285,5.2537e-05,0
1.629,5.8915e-05,0
1.6295,6.63e-05,0
1.63,6.8147e-05,0
1.6305,5.8915e-05,0
1.631,4.0452e-05,0
1.6315,2.031e-05,0
1.632,3.6927e-06,0
1.6325,-4.1962e-06,0
1.633,-5.539e-06,0
1.6335,-6.0426e-06,0
1.634,-1.0575e-05,0
1.6345,-2.0478e-05,0
1.635,-3.0549e-05,0
1.6355,-3.1052e-05,0
1.636,-2.2995e-05,0
1.6365,-1.4099e-05,0
1.637,-7.5532e-06,0
1.6375,3.357e-07,0
1.638,1.091e-05,0
1.6385,2.266e-05,0
1.639,3.2059e-05,0
1.6395,3.4577e-05,0
1.64,2.8534e-05,0
1.6405,1.9303e-05,0
1.641,1.4603e-05,0
1.6415,1.2589e-05,0
1.642,1.1246e-05,0
1.6425,1.0575e-05,0
1.643,1.2421e-05,0
1.6435,1.5106e-05,0
1.644,1.8296e-05,0
1.6445,2.2324e-05,0
1.645,2.0813e-05,0
1.6455,1.3092e-05,0
1.646,7.0497e-06,0
1.6465,5.8747e-06,0
1.647,9.0639e-06,0
1.6475,1.4267e-05,0
1.648,1.8631e-05,0
1.6485,2.3667e-05,0
1.649,2.7359e-05,0
1.6495,2.6017e-05,0
1.65,2.182e-05,0
1.6505,1.9303e-05,0
1.651,1.796e-05,0
1.6515,2.0646e-05,0
1.652,2.8534e-05,0
1.6525,3.5416e-05,0
1.653,3.4745e-05,0
1.6535,2.8367e-05,0
1.654,1.9974e-05,0
1.6545,1.3092e-05,0
1.655,6.0426e-06,0
1.6555,-4.5319e-06,0
1.656,-1.3764e-05,0
1.6565,-1.2253e-05,0
1.657,-2.8534e-06,0
1.6575,7.8889e-06,0
1.658,1.5778e-05,0
1.6585,1.9806e-05,0
1.659,1.9303e-05,0
1.6595,2.0646e-05,0
1.66,2.6017e-05,0
1.6605,2.9709e-05,0
1.661,3.2731e-05,0
1.6615,3.7934e-05,0
1.662,4.2298e-05,0
1.6625,4.5991e-05,0
1.663,4.9851e-05,0
1.6635,5.4887e-05,0
1.664,5.7069e-05,0
1.6645,5.1362e-05,0
1.665,4.5151e-05,0
1.6655,4.6662e-05,0
1.666,5.0858e-05,0
1.6665,5.1865e-05,0
1.667,4.7837e-05,0
1.6675,4.0116e-05,0
1.668,3.2898e-05,0
1.6685,2.4674e-05,0
1.669,1.9806e-05,0
1.6695,2.4674e-05,0
1.67,2.9877e-05,0
1.6705,2.6688e-05,0
1.671,1.8799e-05,0
1.6715,1.2589e-05,0
1.672,9.9031e-06,0
1.6725,9.2317e-06,0
1.673,9.5674e-06,0
1.6735,7.5532e-06,0
1.674,-1.3428e-06,0
1.6745,-9.5674e-06,0
1.675,-8.5603e-06,0
1.6755,-5.035e-07,0
1.676,4.5319e-06,0
1.6765,7.5532e-06,0
1.677,1.2421e-05,0
1.6775,1.5946e-05,0
1.678,1.4939e-05,0
1.6785,7.5532e-06,0
1.679,-3.0213e-06,0
1.6795,-9.9031e-06,0
1.68,-1.2421e-05,0
1.6805,-1.1246e-05,0
1.681,-1.6785e-06,0
1.6815,1.1246e-05,0
1.682,2.1317e-05,0
1.6825,2.5849e-05,0
1.683,2.8031e-05,0
1.6835,3.1388e-05,0
1.684,3.4745e-05,0
1.6845,3.743e-05,0
1.685,3.4409e-05,0
1.6855,2.6017e-05,0
1.686,1.8631e-05,0
1.6865,2.0646e-05,0
1.687,2.8031e-05,0
1.6875,2.6352e-05,0
1.688,1.9135e-05,0
1.6885,1.326e-05,0
1.689,8.896e-06,0
1.6895,9.3996e-06,0
1.69,1.6281e-05,0
1.6905,2.2324e-05,0
1.691,2.182e-05,0
1.6915,1.561e-05,0
1.692,1.091e-05,0
1.6925,1.1917e-05,0
1.693,1.7624e-05,0
1.6935,2.4506e-05,0
1.694,2.887e-05,0
1.6945,3.1891e-05,0
1.695,3.743e-05,0
1.6955,4.4816e-05,0
1.696,4.8508e-05,0
1.6965,4.9683e-05,0
1.697,5.388e-05,0
1.6975,6.1936e-05,0
1.698,6.4958e-05,0
1.6985,5.6062e-05,0
1.699,3.6927e-05,0
1.6995,1.4267e-05,0
1.7,-4.6998e-06,0
1.7005,-1.4603e-05,0
1.701,-1.7624e-05,0
1.7015,-1.561e-05,0
1.702,-1.2589e-05,0
1.7025,-1.2589e-05,0
1.703,-1.9638e-05,0
1.7035,-2.3667e-05,0
1.704,-1.2253e-05,0
1.7045,3.1891e-06,0
1.705,9.0639e-06,0
1.7055,9.9031e-06,0
1.706,1.1414e-05,0
1.7065,1.4099e-05,0
1.707,1.8631e-05,0
1.7075,2.3163e-05,0
1.708,2.4338e-05,0
1.7085,2.5681e-05,0
1.709,2.7863e-05,0
1.7095,2.7192e-05,0
1.71,2.6688e-05,0
1.7105,2.6688e-05,0
1.711,2.4338e-05,0
1.7115,1.796e-05,0
1.712,1.2421e-05,0
1.7125,1.4267e-05,0
1.713,2.3499e-05,0
1.7135,3.7095e-05,0
1.714,4.8508e-05,0
1.7145,5.304e-05,0
1.715,4.9851e-05,0
1.7155,4.1795e-05,0
1.716,3.1052e-05,0
1.7165,2.2995e-05,0
1.717,1.8631e-05,0
1.7175,1.8631e-05,0
1.718,1.9974e-05,0
1.7185,1.6617e-05,0
1.719,3.8605e-06,0
1.7195,-1.3764e-05,0
1.72,-2.182e-05,0
1.7205,-1.6281e-05,0
1.721,-4.5319e-06,0
1.7215,5.8747e-06,0
1.722,1.4435e-05,0
1.7225,2.1317e-05,0
1.723,3.0213e-05,0
1.7235,4.2802e-05,0
1.724,5.4887e-05,0
1.7245,5.8915e-05,0
1.725,5.4887e-05,0
1.7255,5.0019e-05,0
1.726,4.8173e-05,0
1.7265,4.8173e-05,0
1.727,4.683e-05,0
1.7275,4.1459e-05,0
1.728,3.0884e-05,0
1.7285,2.0981e-05,0
1.729,9.2317e-06,0
1.7295,-4.5319e-06,0
1.73,-1.6449e-05,0
1.7305,-2.1988e-05,0
1.731,-1.8967e-05,0
1.7315,-8.7282e-06,0
1.732,2.5177e-06,0
1.7325,1.326e-05,0
1.733,2.6688e-05,0
1.7335,4.0787e-05,0
1.734,5.0187e-05,0
1.7345,5.4215e-05,0
1.735,4.918e-05,0
1.7355,3.8102e-05,0
1.736,3.0045e-05,0
1.7365,2.3835e-05,0
1.737,1.796e-05,0
1.7375,1.6617e-05,0
1.738,1.6617e-05,0
1.7385,1.326e-05,0
1.739,7.5532e-06,0
1.7395,1.678e-07,0
1.74,-3.5248e-06,0
1.7405,5.8747e-06,0
1.741,2.1988e-05,0
1.7415,3.1052e-05,0
1.742,2.8031e-05,0
1.7425,1.9806e-05,0
1.743,1.561e-05,0
1.7435,1.8967e-05,0
1.744,2.6017e-05,0
1.7445,3.0549e-05,0
1.745,2.8534e-05,0
1.7455,2.1988e-05,0
1.746,1.561e-05,0
1.7465,8.3925e-06,0
1.747,1.5106e-06,0
1.7475,-2.5177e-06,0
1.748,-5.539e-06,0
1.7485,-5.8747e-06,0
1.749,-2.8534e-06,0
1.7495,8.392e-07,0
1.75,4.8676e-06,0
1.7505,6.714e-06,0
1.751,5.2033e-06,0
1.7515,5.2033e-06,0
1.752,1.0071e-05,0
1.7525,1.5274e-05,0
1.753,2.0981e-05,0
1.7535,2.6184e-05,0
1.754,2.7527e-05,0
1.7545,2.5177e-05,0
1.755,2.4002e-05,0
1.7555,2.5849e-05,0
1.756,2.7527e-05,0
1.7565,2.5849e-05,0
1.757,2.6688e-05,0
1.7575,3.5584e-05,0
1.758,4.5991e-05,0
1.7585,4.9515e-05,0
1.759,4.5487e-05,0
1.7595,3.978e-05,0
1.76,3.7934e-05,0
1.7605,3.8605e-05,0
1.761,3.6088e-05,0
1.7615,2.8702e-05,0
1.762,1.5946e-05,0
1.7625,-1.678e-07,0
1.763,-1.3596e-05,0
1.7635,-2.1653e-05,0
1.764,-2.182e-05,0
1.7645,-1.3764e-05,0
1.765,-3.1891e-06,0
1.7655,3.6927e-06,0
1.766,9.0639e-06,0
1.7665,1.7624e-05,0
1.767,2.887e-05,0
1.7675,3.4745e-05,0
1.768,3.0549e-05,0
1.7685,2.7359e-05,0
1.769,2.9877e-05,0
1.7695,3.3738e-05,0
1.77,3.4241e-05,0
1.7705,3.1052e-05,0
1.771,2.182e-05,0
1.7715,1.0239e-05,0
1.772,3.1891e-06,0
1.7725,1.5106e-06,0
1.773,2.5177e-06,0
1.7735,1.2253e-05,0
1.774,2.4506e-05,0
1.7745,2.9877e-05,0
1.775,2.4338e-05,0
1.7755,1.4603e-05,0
1.776,8.2246e-06,0
1.7765,3.1891e-06,0
1.777,-2.3499e-06,0
1.7775,-3.8605e-06,0
1.778,2.3499e-06,0
1.7785,8.2246e-06,0
1.779,6.2104e-06,0
1.7795,3.5248e-06,0
1.78,6.5461e-06,0
1.7805,1.326e-05,0
1.781,2.031e-05,0
1.7815,2.7192e-05,0
1.782,3.3066e-05,0
1.7825,3.8102e-05,0
1.783,4.2634e-05,0
1.7835,4.8508e-05,0
1.784,5.5558e-05,0
1.7845,5.9587e-05,0
1.785,5.7572e-05,0
1.7855,5.2033e-05,0
1.786,4.6662e-05,0
1.7865,4.1962e-05,0
1.787,3.5752e-05,0
1.7875,2.9374e-05,0
1.788,2.5345e-05,0
1.7885,2.0646e-05,0
1.789,1.6449e-05,0
1.7895,1.5106e-05,0
1.79,1.2421e-05,0
1.7905,7.2175e-06,0
1.791,8.3925e-06,0
1.7915,1.561e-05,0
1.792,2.1317e-05,0
1.7925,2.2492e-05,0
1.793,2.2995e-05,0
1.7935,2.4506e-05,0
1.794,2.7359e-05,0
1.7945,3.0045e-05,0
1.795,3.1724e-05,0
1.7955,3.3906e-05,0
1.796,3.6591e-05,0
1.7965,4.1123e-05,0
1.797,4.3137e-05,0
1.7975,4.213e-05,0
1.798,3.9277e-05,0
1.7985,3.2563e-05,0
1.799,2.3667e-05,0
1.7995,2.0646e-05,0
1.8,1.9638e-05,0
1.8005,1.8128e-05,0
1.801,1.796e-05,0
1.8015,1.5274e-05,0
1.802,9.2317e-06,0
1.8025,4.5319e-06,0
1.803,5.2033e-06,0
1.8035,6.5461e-06,0
1.804,5.2033e-06,0
1.8045,1.5106e-06,0
1.805,-1.8463e-06,0
1.8055,-5.035e-07,0
1.806,2.0142e-06,0
1.8065,2.182e-06,0
1.807,-2.5177e-06,0
1.8075,-9.9031e-06,0
1.808,-1.326e-05,0
1.8085,-9.9031e-06,0
1.809,-2.8534e-06,0
1.8095,3.6927e-06,0
1.81,8.5603e-06,0
1.8105,1.6785e-05,0
1.811,2.5681e-05,0
1.8115,2.8702e-05,0
1.812,3.0381e-05,0
1.8125,3.0716e-05,0
1.813,2.7359e-05,0
1.8135,2.8031e-05,0
1.814,3.9109e-05,0
1.8145,4.8508e-05,0
1.815,4.683e-05,0
1.8155,3.9612e-05,0
1.816,3.5416e-05,0
1.8165,3.4073e-05,0
1.817,3.122e-05,0
1.8175,2.6688e-05,0
1.818,2.417e-05,0
1.8185,2.3835e-05,0
1.819,2.266e-05,0
1.8195,2.1317e-05,0
1.82,1.7456e-05,0
1.8205,1.1917e-05,0
1.821,2.5177e-06,0
1.8215,-8.896e-06,0
1.822,-1.6281e-05,0
1.8225,-2.1317e-05,0
1.823,-2.5849e-05,0
1.8235,-2.5009e-05,0
1.824,-1.6617e-05,0
1.8245,-6.8818e-06,0
1.825,4.1962e-06,0
1.8255,2.1988e-05,0
1.826,3.8437e-05,0
1.8265,4.6662e-05,0
1.827,5.0019e-05,0
1.8275,5.4887e-05,0
1.828,6.2608e-05,0
1.8285,6.8315e-05,0
1.829,6.3615e-05,0
1.8295,4.6159e-05,0
1.83,2.1988e-05,0
1.8305,1.678e-07,0
1.831,-1.0239e-05,0
1.8315,-1.1749e-05,0
1.832,-1.3764e-05,0
1.8325,-1.5106e-05,0
1.833,-1.7288e-05,0
1.8335,-2.1988e-05,0
1.834,-2.4338e-05,0
1.8345,-1.8296e-05,0
1.835,-7.8889e-06,0
1.8355,-8.392e-07,0
1.836,3.0213e-06,0
1.8365,1.3764e-05,0
1.837,3.0716e-05,0
1.8375,4.2466e-05,0
1.838,4.8173e-05,0
1.8385,5.3208e-05,0
1.839,5.4719e-05,0
1.8395,5.4048e-05,0
1.84,5.4215e-05,0
1.8405,5.6901e-05,0
1.841,5.7237e-05,0
1.8415,5.4719e-05,0
1.842,5.1865e-05,0
1.8425,4.4144e-05,0
1.843,3.4409e-05,0
1.8435,2.5681e-05,0
1.844,1.9135e-05,0
1.8445,1.8967e-05,0
1.845,2.6688e-05,0
1.8455,3.5248e-05,0
1.846,3.4409e-05,0
1.8465,2.2492e-05,0
1.847,5.2033e-06,0
1.8475,-8.3925e-06,0
1.848,-1.6281e-05,0
1.8485,-1.8296e-05,0
1.849,-1.8631e-05,0
1.8495,-1.4939e-05,0
1.85,-8.0568e-06,0
1.8505,-5.035e-07,0
1.851,7.2175e-06,0
1.8515,1.5442e-05,0
1.852,2.2324e-05,0
1.8525,2.4674e-05,0
1.853,2.5009e-05,0
1.8535,2.4674e-05,0
1.854,2.5681e-05,0
1.8545,3.1388e-05,0
1.855,3.6591e-05,0
1.8555,3.3402e-05,0
1.856,2.3331e-05,0
1.8565,1.5442e-05,0
1.857,1.5442e-05,0
1.8575,2.5009e-05,0
1.858,3.8773e-05,0
1.8585,4.8173e-05,0
1.859,5.2033e-05,0
1.8595,4.8508e-05,0
1.86,4.0955e-05,0
1.8605,3.5416e-05,0
1.861,3.2059e-05,0
1.8615,3.1388e-05,0
1.862,2.8702e-05,0
1.8625,1.9974e-05,0
1.863,3.8605e-06,0
1.8635,-9.9031e-06,0
1.864,-1.3596e-05,0
1.8645,-1.091e-05,0
1.865,-1.091e-05,0
1.8655,-1.1582e-05,0
1.866,-6.3783e-06,0
1.8665,4.3641e-06,0
1.867,1.4939e-05,0
1.8675,2.031e-05,0
1.868,2.2156e-05,0
1.8685,2.4842e-05,0
1.869,2.8031e-05,0
1.8695,2.7192e-05,0
1.87,2.6184e-05,0
1.8705,2.6352e-05,0
1.871,2.4842e-05,0
1.8715,2.1149e-05,0
1.872,1.7121e-05,0
1.8725,1.5778e-05,0
1.873,1.8296e-05,0
1.8735,2.3835e-05,0
1.874,2.9038e-05,0
1.8745,3.2059e-05,0
1.875,3.122e-05,0
1.8755,2.5009e-05,0
1.876,1.947e-05,0
1.8765,1.7792e-05,0
1.877,1.796e-05,0
1.8775,1.9974e-05,0
1.878,2.3667e-05,0
1.8785,2.9038e-05,0
1.879,3.4745e-05,0
1.8795,3.7095e-05,0
1.88,3.5416e-05,0
1.8805,3.2731e-05,0
1.881,2.9038e-05,0
1.8815,2.7527e-05,0
1.882,2.9038e-05,0
1.8825,2.8031e-05,0
1.883,2.6017e-05,0
1.8835,2.4002e-05,0
1.884,2.3667e-05,0
1.8845,2.1317e-05,0
1.885,1.5946e-05,0
1.8855,1.5442e-05,0
1.886,1.9974e-05,0
1.8865,1.9303e-05,0
1.887,9.5674e-06,0
1.8875,-1.6785e-06,0
1.888,-1.0071e-05,0
1.8885,-1.2589e-05,0
1.889,-7.5532e-06,0
1.8895,1.678e-07,0
1.89,6.8818e-06,0
1.8905,1.2253e-05,0
1.891,1.5778e-05,0
1.8915,2.0646e-05,0
1.892,2.8031e-05,0
1.8925,3.978e-05,0
1.893,5.2201e-05,0
1.8935,5.7572e-05,0
1.894,5.0858e-05,0
1.8945,3.4745e-05,0
1.895,1.947e-05,0
1.8955,9.2317e-06,0
1.896,3.8605e-06,0
1.8965,4.8676e-06,0
1.897,3.5248e-06,0
1.8975,-1.0071e-06,0
1.898,3.357e-07,0
1.8985,7.8889e-06,0
1.899,1.5946e-05,0
1.8995,1.9135e-05,0
1.9,1.1917e-05,0
1.9005,4.5319e-06,0
1.901,6.5461e-06,0
1.9015,1.2253e-05,0
1.902,1.2589e-05,0
1.9025,7.5532e-06,0
1.903,7.3854e-06,0
1.9035,1.7624e-05,0
1.904,3.0716e-05,0
1.9045,3.9109e-05,0
1.905,4.2802e-05,0
1.9055,4.0787e-05,0
1.906,3.4073e-05,0
1.9065,2.9374e-05,0
1.907,2.9374e-05,0
1.9075,3.1388e-05,0
1.908,3.1052e-05,0
1.9085,2.7863e-05,0
1.909,2.6017e-05,0
1.9095,2.8199e-05,0
1.91,3.1388e-05,0
1.9105,3.3402e-05,0
1.911,3.4745e-05,0
1.9115,3.6927e-05,0
1.912,3.6088e-05,0
1.9125,3.3402e-05,0
1.913,2.9206e-05,0
1.9135,2.4674e-05,0
1.914,2.0646e-05,0
1.9145,1.6617e-05,0
1.915,9.7353e-06,0
1.9155,-1.1749e-06,0
1.916,-1.2924e-05,0
1.9165,-1.6281e-05,0
1.917,-8.7282e-06,0
1.9175,-5.035e-07,0
1.918,2.182e-06,0
1.9185,2.182e-06,0
1.919,7.2175e-06,0
1.9195,1.9974e-05,0
1.92,3.4073e-05,0
1.9205,4.8676e-05,0
1.921,6.2272e-05,0
1.9215,6.7643e-05,0
1.922,6.1601e-05,0
1.9225,4.9851e-05,0
1.923,3.7934e-05,0
1.9235,2.4002e-05,0
1.924,5.2033e-06,0
1.9245,-1.2757e-05,0
1.925,-1.8967e-05,0
1.9255,-1.2924e-05,0
1.926,-5.539e-06,0
1.9265,-2.0142e-06,0
1.927,-3.1891e-06,0
1.9275,-1.678e-07,0
1.928,1.1917e-05,0
1.9285,2.5849e-05,0
1.929,3.2731e-05,0
1.9295,3.743e-05,0
1.93,4.3305e-05,0
1.9305,4.683e-05,0
1.931,4.9515e-05,0
1.9315,5.1865e-05,0
1.932,5.0523e-05,0
1.9325,4.4816e-05,0
1.933,3.3234e-05,0
1.9335,1.5946e-05,0
1.934,2.0142e-06,0
1.9345,-1.5106e-06,0
1.935,-3.5248e-06,0
1.9355,-1.091e-05,0
1.936,-1.2421e-05,0
1.9365,5.7069e-06,0
1.937,3.357e-05,0
1.9375,5.1865e-05,0
1.938,5.8244e-05,0
1.9385,5.8244e-05,0
1.939,5.153e-05,0
1.9395,4.0787e-05,0
1.94,2.8702e-05,0
1.9405,1.9135e-05,0
1.941,1.2924e-05,0
1.9415,1.6785e-06,0
1.942,-1.9974e-05,0
1.9425,-4.4816e-05,0
1.943,-6.5965e-05,0
1.9435,-7.5196e-05,0
1.944,-6.4286e-05,0
1.9445,-3.743e-05,0
1.945,-7.7211e-06,0
1.9455,1.5946e-05,0
1.946,2.8702e-05,0
1.9465,2.9038e-05,0
1.947,2.6352e-05,0
1.9475,2.5009e-05,0
1.948,2.5177e-05,0
1.9485,2.7695e-05,0
1.949,3.2731e-05,0
1.9495,3.5248e-05,0
1.95,3.1891e-05,0
1.9505,2.7695e-05,0
1.951,2.6017e-05,0
1.9515,2.1317e-05,0
1.952,9.9031e-06,0
1.9525,1.8463e-06,0
1.953,1.3428e-06,0
1.9535,9.3996e-06,0
1.954,1.7792e-05,0
1.9545,1.6953e-05,0
1.955,1.326e-05,0
1.9555,1.8631e-05,0
1.956,2.8031e-05,0
1.9565,3.4745e-05,0
1.957,4.0452e-05,0
1.9575,5.1362e-05,0
1.958,6.2776e-05,0
1.9585,6.3951e-05,0
1.959,5.388e-05,0
1.9595,4.2802e-05,0
1.96,3.6759e-05,0
1.9605,3.592e-05,0
1.961,3.6423e-05,0
1.9615,3.5248e-05,0
1.962,3.2898e-05,0
1.9625,3.2059e-05,0
1.963,3.4409e-05,0
1.9635,3.5416e-05,0
1.964,3.4745e-05,0
1.9645,3.508e-05,0
1.965,3.1724e-05,0
1.9655,2.1317e-05,0
1.966,5.0355e-06,0
1.9665,-6.8818e-06,0
1.967,-1.2924e-05,0
1.9675,-1.6281e-05,0
1.968,-1.4603e-05,0
1.9685,-6.2104e-06,0
1.969,5.0355e-06,0
1.9695,1.4939e-05,0
1.97,2.4674e-05,0
1.9705,3.1891e-05,0
1.971,3.6591e-05,0
1.9715,4.0787e-05,0
1.972,4.3809e-05,0
1.9725,4.8173e-05,0
1.973,5.4383e-05,0
1.9735,5.8244e-05,0
1.974,5.8915e-05,0
1.9745,5.5222e-05,0
1.975,4.8844e-05,0
1.9755,3.9445e-05,0
1.976,2.7527e-05,0
1.9765,1.6281e-05,0
1.977,3.6927e-06,0
1.9775,-7.2175e-06,0
1.978,-1.4267e-05,0
1.9785,-1.8967e-05,0
1.979,-2.1988e-05,0
1.9795,-2.0142e-05,0
1.98,-1.0239e-05,0
1.9805,-4.8676e-06,0
1.981,-1.2253e-05,0
1.9815,-2.1149e-05,0
1.982,-1.8967e-05,0
1.9825,-7.5532e-06,0
1.983,2.5177e-06,0
1.9835,1.0407e-05,0
1.984,1.8631e-05,0
1.9845,2.4842e-05,0
1.985,2.5009e-05,0
1.9855,1.9974e-05,0
1.986,2.1317e-05,0
1.9865,2.8534e-05,0
1.987,3.1891e-05,0
1.9875,3.2059e-05,0
1.988,3.3234e-05,0
1.9885,3.6759e-05,0
1.989,4.1459e-05,0
1.9895,4.8173e-05,0
1.99,5.9251e-05,0
1.9905,6.9657e-05,0
1.991,7.4357e-05,0
1.9915,7.57e-05,0
1.992,6.8986e-05,0
1.9925,5.3544e-05,0
1.993,3.4073e-05,0
1.9935,1.0575e-05,0
1.994,-6.3783e-06,0
1.9945,-7.5532e-06,0
1.995,-3.0213e-06,0
1.9955,-5.0355e-06,0
1.996,-7.3854e-06,0
1.9965,-4.5319e-06,0
1.997,4.5319e-06,0
1.9975,1.796e-05,0
1.998,3.0045e-05,0
1.9985,3.4409e-05,0
1.999,3.0716e-05,0
1.9995,2.6688e-05,0
2,2.7024e-05,0
2.0005,3.1052e-05,0
2.001,3.1891e-05,0
2.0015,2.1317e-05,0
2.002,3.6927e-06,0
2.0025,-1.2589e-05,0
2.003,-2.2995e-05,0
2.0035,-2.8702e-05,0
2.004,-3.2227e-05,0
2.0045,-2.8031e-05,0
2.005,-1.5106e-05,0
2.0055,-3.357e-07,0
2.006,1.1582e-05,0
2.0065,2.2324e-05,0
2.007,3.743e-05,0
2.0075,5.069e-05,0
2.008,5.3544e-05,0
2.0085,4.7166e-05,0
2.009,3.9445e-05,0
2.0095,3.4745e-05,0
2.01,3.508e-05,0
2.0105,3.6759e-05,0
2.011,3.3234e-05,0
2.0115,1.8463e-05,0
2.012,0,0
2.0125,-1.4939e-05,0
2.013,-2.887e-05,0
2.0135,-3.3402e-05,0
2.014,-2.4002e-05,0
2.0145,-8.896e-06,0
2.015,2.0142e-06,0
2.0155,7.8889e-06,0
2.016,1.8631e-05,0
2.0165,3.2059e-05,0
2.017,3.8773e-05,0
2.0175,3.8773e-05,0
2.018,3.9445e-05,0
2.0185,4.7837e-05,0
2.019,5.5222e-05,0
2.0195,5.3544e-05,0
2.02,4.8173e-05,0
2.0205,4.8844e-05,0
2.021,5.3208e-05,0
2.0215,5.7069e-05,0
2.022,5.1194e-05,0
2.0225,3.122e-05,0
2.023,1.5778e-05,0
2.0235,1.1582e-05,0
2.024,5.8747e-06,0
2.0245,-4.5319e-06,0
2.025,-1.3428e-05,0
2.0255,-9.5674e-06,0
2.026,1.2421e-05,0
2.0265,3.6759e-05,0
2.027,4.3305e-05,0
2.0275,3.3738e-05,0
2.028,2.8367e-05,0
2.0285,4.1459e-05,0
2.029,6.6972e-05,0
2.0295,8.745e-05,0
2.03,8.8792e-05,0
2.0305,7.3854e-05,0
2.031,5.4551e-05,0
2.0315,3.5752e-05,0
2.032,2.031e-05,0
2.0325,4.1962e-06,0
2.033,-1.4603e-05,0
2.0335,-3.2563e-05,0
2.034,-5.2872e-05,0
2.0345,-7.1504e-05,0
2.035,-6.4118e-05,0
2.0355,-2.1317e-05,0
2.036,3.7262e-05,0
2.0365,7.335e-05,0
2.037,7.9057e-05,0
2.0375,7.9057e-05,0
2.038,8.1407e-05,0
2.0385,6.865e-05,0
2.039,3.592e-05,0
2.0395,7.3854e-06,0
2.04,-6.8818e-06,0
2.0405,-2.2324e-05,0
2.041,-4.1795e-05,0
2.0415,-7.2511e-05,0
2.042,-0.00011716,0
2.0425,-0.00013646,0
2.043,-0.00011884,0
2.0435,-9.3492e-05,0
2.044,-6.9657e-05,0
2.0445,-4.1123e-05,0
2.045,-1.7624e-05,0
2.0455,-1.0239e-05,0
2.046,-7.7211e-06,0
2.0465,3.8605e-06,0
2.047,2.4506e-05,0
2.0475,4.7166e-05,0
2.048,6.5293e-05,0
2.0485,8.0064e-05,0
2.049,9.2149e-05,0
2.0495,0.00010172,0
2.05,0.00010692,0
2.0505,0.0001086,0
2.051,0.00010423,0
2.0515,8.5435e-05,0
2.052,5.0858e-05,0
2.0525,2.0981e-05,0
2.053,6.8818e-06,0
2.0535,1.1749e-06,0
2.054,3.1891e-06,0
2.0545,2.182e-05,0
2.055,4.8173e-05,0
2.0555,6.5629e-05,0
2.056,6.8315e-05,0
2.0565,6.2272e-05,0
2.057,5.6062e-05,0
2.0575,6.2776e-05,0
2.058,7.6371e-05,0
2.0585,7.5029e-05,0
2.059,6.0929e-05,0
2.0595,4.5991e-05,0
2.06,3.1388e-05,0
2.0605,1.3764e-05,0
2.061,2.8534e-06,0
2.0615,1.1749e-06,0
2.062,2.5177e-06,0
2.0625,2.182e-06,0
2.063,-1.1749e-06,0
2.0635,-6.2104e-06,0
2.064,-5.8747e-06,0
2.0645,-7.7211e-06,0
2.065,-2.0981e-05,0
2.0655,-3.3906e-05,0
2.066,-3.6423e-05,0
2.0665,-3.0716e-05,0
2.067,-2.8199e-05,0
2.0675,-3.4409e-05,0
2.068,-4.1459e-05,0
2.0685,-4.0787e-05,0
2.069,-3.0381e-05,0
2.0695,-1.796e-05,0
2.07,-9.0639e-06,0
2.0705,-2.182e-06,0
2.071,7.2175e-06,0
2.0715,2.0646e-05,0
2.072,3.6088e-05,0
2.0725,4.7501e-05,0
2.073,5.069e-05,0
2.0735,5.4887e-05,0
2.074,5.9419e-05,0
2.0745,5.7572e-05,0
2.075,4.7166e-05,0
2.0755,3.2059e-05,0
2.076,1.8631e-05,0
2.0765,1.6617e-05,0
2.077,2.5681e-05,0
2.0775,3.5584e-05,0
2.078,3.8773e-05,0
2.0785,3.592e-05,0
2.079,2.9542e-05,0
2.0795,2.7863e-05,0
2.08,3.6759e-05,0
2.0805,4.8173e-05,0
2.081,5.0858e-05,0
2.0815,4.5319e-05,0
2.082,3.8437e-05,0
2.0825,3.5248e-05,0
2.083,3.6759e-05,0
2.0835,4.0619e-05,0
2.084,4.3473e-05,0
2.0845,3.9612e-05,0
2.085,3.0213e-05,0
2.0855,2.3331e-05,0
2.086,1.9806e-05,0
2.0865,1.8967e-05,0
2.087,2.0981e-05,0
2.0875,2.2324e-05,0
2.088,2.7024e-05,0
2.0885,4.1459e-05,0
2.089,6.2272e-05,0
2.0895,7.7378e-05,0
2.09,7.6707e-05,0
2.0905,6.3951e-05,0
2.091,5.4215e-05,0
2.0915,4.8508e-05,0
2.092,3.978e-05,0
2.0925,3.4745e-05,0
2.093,3.3738e-05,0
2.0935,2.7863e-05,0
2.094,1.4435e-05,0
2.0945,-8.2246e-06,0
2.095,-3.2395e-05,0
2.0955,-3.6423e-05,0
2.096,-2.266e-05,0
2.0965,-8.0568e-06,0
2.097,-4.0284e-06,0
2.0975,-1.1246e-05,0
2.098,-1.4267e-05,0
2.0985,-6.0426e-06,0
2.099,1.5274e-05,0
2.0995,4.4144e-05,0
2.1,6.6133e-05,0
2.1005,7.1336e-05,0
2.101,5.7908e-05,0
2.1015,3.7766e-05,0
2.102,2.182e-05,0
2.1025,2.182e-06,0
2.103,-2.182e-05,0
2.1035,-3.7262e-05,0
2.104,-3.5416e-05,0
2.1045,-2.7192e-05,0
2.105,-2.182e-05,0
2.1055,-1.5442e-05,0
2.106,-1.5106e-06,0
2.1065,1.6617e-05,0
2.107,2.9374e-05,0
2.1075,3.1388e-05,0
2.108,2.5009e-05,0
2.1085,1.4939e-05,0
2.109,8.392e-07,0
2.1095,-1.8967e-05,0
2.11,-3.9445e-05,0
2.1105,-5.388e-05,0
2.111,-5.4719e-05,0
2.1115,-3.9948e-05,0
2.112,-1.796e-05,0
2.1125,5.2033e-06,0
2.113,2.6688e-05,0
2.1135,4.4816e-05,0
2.114,6.865e-05,0
2.1145,0.00010222,0
2.115,0.00012186,0
2.1155,0.00010491,0
2.116,7.4357e-05,0
2.1165,5.4887e-05,0
2.117,3.4745e-05,0
2.1175,1.0407e-05,0
2.118,-4.1962e-06,0
2.1185,-8.0568e-06,0
2.119,-1.5946e-05,0
2.1195,-3.0381e-05,0
2.12,-3.8102e-05,0
2.1205,-3.6088e-05,0
2.121,-2.9709e-05,0
2.1215,-1.4267e-05,0
2.122,1.091e-05,0
2.1225,3.5248e-05,0
2.123,4.8005e-05,0
2.1235,5.0523e-05,0
2.124,4.7333e-05,0
2.1245,3.7095e-05,0
2.125,2.3667e-05,0
2.1255,9.0639e-06,0
2.126,-6.8818e-06,0
2.1265,-1.6281e-05,0
2.127,-1.1917e-05,0
2.1275,5.035e-07,0
2.128,1.6281e-05,0
2.1285,3.7095e-05,0
2.129,6.3951e-05,0
2.1295,8.5771e-05,0
2.13,9.4163e-05,0
2.1305,9.2485e-05,0
2.131,9.0639e-05,0
2.1315,8.8457e-05,0
2.132,8.7114e-05,0
2.1325,8.3421e-05,0
2.133,7.0664e-05,0
2.1335,5.2033e-05,0
2.134,3.2059e-05,0
2.1345,1.2924e-05,0
2.135,-5.035e-07,0
2.1355,7.7211e-06,0
2.136,3.5752e-05,0
2.1365,5.623e-05,0
2.137,5.9587e-05,0
2.1375,4.7501e-05,0
2.138,2.2828e-05,0
2.1385,-8.392e-07,0
2.139,-1.6617e-05,0
2.1395,-3.5416e-05,0
2.14,-6.1433e-05,0
2.1405,-8.2582e-05,0
2.141,-8.6778e-05,0
2.1415,-7.3518e-05,0
2.142,-5.5558e-05,0
2.1425,-4.4312e-05,0
2.143,-2.9038e-05,0
2.1435,4.1962e-06,0
2.144,4.7669e-05,0
2.1445,8.0064e-05,0
2.145,9.6178e-05,0
2.1455,0.00010323,0
2.146,0.00010642,0
2.1465,0.00010356,0
2.147,9.1142e-05,0
2.1475,7.2343e-05,0
2.148,5.4887e-05,0
2.1485,4.1123e-05,0
2.149,1.6449e-05,0
2.1495,-2.0478e-05,0
2.15,-4.2298e-05,0
2.1505,-3.2227e-05,0
2.151,-9.7353e-06,0
2.1515,2.0142e-06,0
2.152,3.6927e-06,0
2.1525,6.2104e-06,0
2.153,8.5603e-06,0
2.1535,-2.182e-06,0
2.154,-2.9877e-05,0
2.1545,-5.388e-05,0
2.155,-6.2104e-05,0
2.1555,-6.3951e-05,0
2.156,-6.8315e-05,0
2.1565,-6.2944e-05,0
2.157,-3.6927e-05,0
2.1575,-3.6927e-06,0
2.158,2.2492e-05,0
2.1585,4.213e-05,0
2.159,5.2537e-05,0
2.1595,4.9683e-05,0
2.16,4.2802e-05,0
2.1605,4.3473e-05,0
2.161,4.9348e-05,0
2.1615,5.2537e-05,0
2.162,4.448e-05,0
2.1625,2.182e-05,0
2.163,-1.8463e-06,0
2.1635,-4.8676e-06,0
2.164,9.9031e-06,0
2.1645,3.2059e-05,0
2.165,4.7501e-05,0
2.1655,5.1698e-05,0
2.166,5.304e-05,0
2.1665,5.9251e-05,0
2.167,6.4454e-05,0
2.1675,6.1601e-05,0
2.168,5.1194e-05,0
2.1685,3.9109e-05,0
2.169,3.2563e-05,0
2.1695,3.2731e-05,0
2.17,3.592e-05,0
2.1705,3.9109e-05,0
2.171,3.5416e-05,0
2.1715,2.5345e-05,0
2.172,2.0142e-05,0
2.1725,2.4842e-05,0
2.173,3.6927e-05,0
2.1735,5.153e-05,0
2.174,6.2272e-05,0
2.1745,6.4286e-05,0
2.175,5.7404e-05,0
2.1755,4.9012e-05,0
2.176,4.5319e-05,0
2.1765,4.4144e-05,0
2.177,3.8102e-05,0
2.1775,2.3667e-05,0
2.178,-1.1749e-06,0
2.1785,-2.7359e-05,0
2.179,-4.1962e-05,0
2.1795,-4.4984e-05,0
2.18,-3.9109e-05,0
2.1805,-3.5584e-05,0
2.181,-4.5823e-05,0
2.1815,-5.8076e-05,0
2.182,-6.0258e-05,0
2.1825,-4.9515e-05,0
2.183,-2.2995e-05,0
2.1835,2.7695e-05,0
2.184,0.00010054,0
2.1845,0.00016097,0
2.185,0.00017775,0
2.1855,0.00015929,0
2.186,0.00012538,0
2.1865,8.9128e-05,0
2.187,5.8076e-05,0
2.1875,3.5752e-05,0
2.188,1.4939e-05,0
2.1885,-1.326e-05,0
2.189,-4.9683e-05,0
2.1895,-8.2918e-05,0
2.19,-0.00010155,0
2.1905,-0.00010054,0
2.191,-8.191e-05,0
2.1915,-5.5558e-05,0
2.192,-3.3906e-05,0
2.1925,-2.1653e-05,0
2.193,-1.326e-05,0
2.1935,-4.1962e-06,0
2.194,7.2175e-06,0
2.1945,1.5946e-05,0
2.195,2.266e-05,0
2.1955,3.5584e-05,0
2.196,5.623e-05,0
2.1965,6.6972e-05,0
2.197,6.2272e-05,0
2.1975,5.1698e-05,0
2.198,4.4816e-05,0
2.1985,4.9012e-05,0
2.199,5.5558e-05,0
2.1995,5.4719e-05,0
2.2,4.5487e-05,0
2.2005,3.2731e-05,0
2.201,2.4002e-05,0
2.2015,1.7792e-05,0
2.202,1.5946e-05,0
2.2025,1.7288e-05,0
2.203,1.5274e-05,0
2.2035,6.8818e-06,0
2.204,-1.1749e-06,0
2.2045,-1.8463e-06,0
2.205,1.5106e-06,0
2.2055,4.5319e-06,0
2.206,8.5603e-06,0
2.2065,2.2324e-05,0
2.207,4.2802e-05,0
2.2075,5.8244e-05,0
2.208,6.0929e-05,0
2.2085,5.4215e-05,0
2.209,4.5151e-05,0
2.2095,3.3066e-05,0
2.21,1.6953e-05,0
2.2105,4.1962e-06,0
2.211,8.392e-07,0
2.2115,2.3499e-06,0
2.212,8.392e-07,0
2.2125,4.8676e-06,0
2.213,1.561e-05,0
2.2135,2.5177e-05,0
2.214,3.1388e-05,0
2.2145,3.9445e-05,0
2.215,5.4048e-05,0
2.2155,7.3686e-05,0
2.216,8.51e-05,0
2.2165,8.3421e-05,0
2.217,7.6036e-05,0
2.2175,5.7908e-05,0
2.218,2.1988e-05,0
2.2185,-1.5442e-05,0
2.219,-3.6423e-05,0
2.2195,-4.0284e-05,0
2.22,-2.3331e-05,0
2.2205,1.3428e-06,0
2.221,1.2421e-05,0
2.2215,5.8747e-06,0
2.222,-1.8463e-06,0
2.2225,2.182e-06,0
2.223,1.6617e-05,0
2.2235,2.4842e-05,0
2.224,6.3783e-06,0
2.2245,-2.7359e-05,0
2.225,-4.5991e-05,0
2.2255,-4.3305e-05,0
2.226,-3.508e-05,0
2.2265,-2.5177e-05,0
2.227,-6.5461e-06,0
2.2275,1.6617e-05,0
2.228,3.3402e-05,0
2.2285,5.3544e-05,0
2.229,8.0232e-05,0
2.2295,9.987e-05,0
2.23,0.00010709,0
2.2305,9.9031e-05,0
2.231,7.3686e-05,0
2.2315,4.2466e-05,0
2.232,2.4338e-05,0
2.2325,2.7359e-05,0
2.233,3.3906e-05,0
2.2335,2.6688e-05,0
2.234,-1.3428e-06,0
2.2345,-3.2059e-05,0
2.235,-4.683e-05,0
2.2355,-5.2537e-05,0
2.236,-5.388e-05,0
2.2365,-5.2201e-05,0
2.237,-3.9277e-05,0
2.2375,-1.561e-05,0
2.238,3.8605e-06,0
2.2385,1.2253e-05,0
2.239,1.8296e-05,0
2.2395,3.1052e-05,0
2.24,5.3544e-05,0
2.2405,7.0497e-05,0
2.241,6.5629e-05,0
2.2415,5.8244e-05,0
2.242,6.6804e-05,0
2.2425,7.0329e-05,0
2.243,4.9515e-05,0
2.2435,1.091e-05,0
2.244,-2.4002e-05,0
2.2445,-3.7766e-05,0
2.245,-3.6927e-05,0
2.2455,-2.9374e-05,0
2.246,-2.2156e-05,0
2.2465,-2.0981e-05,0
2.247,-2.4002e-05,0
2.2475,-2.3331e-05,0
2.248,-1.7624e-05,0
2.2485,-4.1962e-06,0
2.249,1.1414e-05,0
2.2495,1.4771e-05,0
2.25,5.8747e-06,0
2.2505,-2.182e-06,0
2.251,-3.5248e-06,0
2.2515,-8.392e-07,0
2.252,3.357e-06,0
2.2525,9.3996e-06,0
2.253,2.9709e-05,0
2.2535,5.7908e-05,0
2.254,7.57e-05,0
2.2545,8.51e-05,0
2.255,8.7785e-05,0
2.2555,8.7785e-05,0
2.256,8.5435e-05,0
2.2565,8.2582e-05,0
2.257,7.7714e-05,0
2.2575,6.8986e-05,0
2.258,6.479e-05,0
2.2585,6.6636e-05,0
2.259,5.3544e-05,0
2.2595,2.0646e-05,0
2.26,-1.1582e-05,0
2.2605,-2.8702e-05,0
2.261,-2.9709e-05,0
2.2615,-1.8128e-05,0
2.262,-1.8463e-06,0
2.2625,1.5778e-05,0
2.263,2.9374e-05,0
2.2635,3.5584e-05,0
2.264,3.827e-05,0
2.2645,4.2802e-05,0
2.265,4.6326e-05,0
2.2655,4.7837e-05,0
2.266,5.2872e-05,0
2.2665,6.5965e-05,0
2.267,7.8721e-05,0
2.2675,8.2246e-05,0
2.268,7.1504e-05,0
2.2685,5.6901e-05,0
2.269,4.8844e-05,0
2.2695,4.5487e-05,0
2.27,5.3376e-05,0
2.2705,6.4286e-05,0
2.271,6.3615e-05,0
2.2715,5.1362e-05,0
2.272,3.8941e-05,0
2.2725,3.6759e-05,0
2.273,4.9515e-05,0
2.2735,7.1e-05,0
2.274,9.2821e-05,0
2.2745,0.00010692,0
2.275,0.00010826,0
2.2755,9.987e-05,0
2.276,7.4357e-05,0
2.2765,3.2395e-05,0
2.277,-8.3925e-06,0
2.2775,-3.122e-05,0
2.278,-4.9012e-05,0
2.2785,-8.0064e-05,0
2.279,-0.00011833,0
2.2795,-0.00015862,0
2.28,-0.00020914,0
2.2805,-0.00025631,0
2.281,-0.00027527,0
2.2815,-0.00025798,0
2.282,-0.00020343,0
2.2825,-0.00012992,0
2.283,-6.5126e-05,0
2.2835,-1.6617e-05,0
2.284,1.796e-05,0
2.2845,3.7095e-05,0
2.285,4.448e-05,0
2.2855,4.6494e-05,0
2.286,5.0523e-05,0
2.2865,6.2776e-05,0
2.287,8.1743e-05,0
2.2875,9.8863e-05,0
2.288,0.00010961,0
2.2885,0.00011397,0
2.289,0.00010893,0
2.2895,9.3492e-05,0
2.29,7.5029e-05,0
2.2905,6.7308e-05,0
2.291,7.8553e-05,0
2.2915,0.0001044,0
2.292,0.00011934,0
2.2925,0.00010356,0
2.293,7.9057e-05,0
2.2935,7.0664e-05,0
2.294,8.3421e-05,0
2.2945,0.00010826,0
2.295,0.00010726,0
2.2955,8.1407e-05,0
2.296,6.0258e-05,0
2.2965,4.7501e-05,0
2.297,2.7359e-05,0
2.2975,-3.6927e-06,0
2.298,-3.2395e-05,0
2.2985,-5.6397e-05,0
2.299,-8.4596e-05,0
2.2995,-0.00010759,0
2.3,-0.00011229,0
2.3005,-9.4835e-05,0
2.301,-5.5222e-05,0
2.3015,-1.9135e-05,0
2.302,-1.8463e-06,0
2.3025,1.1917e-05,0
2.303,3.0381e-05,0
2.3035,5.0858e-05,0
2.304,7.2343e-05,0
2.3045,8.9128e-05,0
2.305,9.752e-05,0
2.3055,0.00010491,0
2.306,0.00011565,0
2.3065,0.00012119,0
2.307,0.00010457,0
2.3075,7.0161e-05,0
2.308,3.7766e-05,0
2.3085,1.5778e-05,0
2.309,3.6927e-06,0
2.3095,5.035e-07,0
2.31,9.2317e-06,0
2.3105,2.4002e-05,0
2.311,3.6927e-05,0
2.3115,3.8773e-05,0
2.312,1.9303e-05,0
2.3125,-1.6953e-05,0
2.313,-4.6326e-05,0
2.3135,-4.9851e-05,0
2.314,-4.9851e-05,0
2.3145,-6.3279e-05,0
2.315,-7.0832e-05,0
2.3155,-6.5965e-05,0
2.316,-8.0903e-05,0
2.3165,-0.00010977,0
2.317,-0.00011078,0
2.3175,-7.0497e-05,0
2.318,-1.0239e-05,0
2.3185,3.9445e-05,0
2.319,6.2608e-05,0
2.3195,6.1601e-05,0
2.32,5.0858e-05,0
2.3205,5.1194e-05,0
2.321,6.8315e-05,0
2.3215,8.04e-05,0
2.322,8.0064e-05,0
2.3225,7.1e-05,0
2.323,5.2201e-05,0
2.3235,2.5345e-05,0
2.324,1.0575e-05,0
2.3245,4.0116e-05,0
2.325,0.00010188,0
2.3255,0.00014083,0
2.326,0.00012908,0
2.3265,7.7546e-05,0
2.327,1.4939e-05,0
2.3275,-3.3738e-05,0
2.328,-5.3376e-05,0
2.3285,-5.4551e-05,0
2.329,-5.0355e-05,0
2.3295,-3.7262e-05,0
2.33,-5.2033e-06,0
2.3305,4.213e-05,0
2.331,6.63e-05,0
2.3315,5.774e-05,0
2.332,5.623e-05,0
2.3325,8.1071e-05,0
2.333,0.00011313,0
2.3335,0.00012538,0
2.334,0.00011397,0
2.3345,8.9799e-05,0
2.335,6.1097e-05,0
2.3355,1.561e-05,0
2.336,-5.3544e-05,0
2.3365,-0.0001133,0
2.337,-0.00013512,0
2.3375,-0.00012824,0
2.338,-0.00010323,0
2.3385,-5.4887e-05,0
2.339,-4.5319e-06,0
2.3395,1.8631e-05,0
2.34,1.8631e-05,0
2.3405,1.8967e-05,0
2.341,2.7527e-05,0
2.3415,3.6423e-05,0
2.342,5.1865e-05,0
2.3425,8.3757e-05,0
2.343,0.00010843,0
2.3435,9.2485e-05,0
2.344,3.9948e-05,0
2.3445,-1.4267e-05,0
2.345,-4.5823e-05,0
2.3455,-5.1362e-05,0
2.346,-3.978e-05,0
2.3465,-2.1653e-05,0
2.347,-2.8534e-06,0
2.3475,9.0639e-06,0
2.348,8.2246e-06,0
2.3485,8.5603e-06,0
2.349,2.3331e-05,0
2.3495,4.4648e-05,0
2.35,5.8244e-05,0
2.3505,7.2007e-05,0
2.351,8.2414e-05,0
2.3515,7.9728e-05,0
2.352,6.5293e-05,0
2.3525,4.2466e-05,0
2.353,1.2253e-05,0
2.3535,-1.0742e-05,0
2.354,-2.1317e-05,0
2.3545,-1.326e-05,0
2.355,1.2589e-05,0
2.3555,4.4816e-05,0
2.356,7.3686e-05,0
2.3565,9.3828e-05,0
2.357,9.5674e-05,0
2.3575,7.0329e-05,0
2.358,3.7766e-05,0
2.3585,2.4338e-05,0
2.359,2.5681e-05,0
2.3595,2.5345e-05,0
2.36,2.1653e-05,0
2.3605,1.2589e-05,0
2.361,-1.678e-07,0
2.3615,-8.5603e-06,0
2.362,-1.5946e-05,0
2.3625,-2.7695e-05,0
2.363,-3.3066e-05,0
2.3635,-2.1653e-05,0
2.364,1.1749e-06,0
2.3645,2.6017e-05,0
2.365,5.0019e-05,0
2.3655,6.9154e-05,0
2.366,7.7043e-05,0
2.3665,6.9993e-05,0
2.367,5.539e-05,0
2.3675,5.388e-05,0
2.368,7.5029e-05,0
2.3685,0.00010893,0
2.369,0.00012337,0
2.3695,9.836e-05,0
2.37,4.8173e-05,0
2.3705,3.0213e-06,0
2.371,-1.3932e-05,0
2.3715,-2.0142e-06,0
2.372,2.1988e-05,0
2.3725,3.7262e-05,0
2.373,1.5778e-05,0
2.3735,-3.8605e-05,0
2.374,-9.1142e-05,0
2.3745,-0.00010961,0
2.375,-9.6178e-05,0
2.3755,-8.0735e-05,0
2.376,-7.7714e-05,0
2.3765,-6.9825e-05,0
2.377,-4.0452e-05,0
2.3775,-3.5248e-06,0
2.378,1.8128e-05,0
2.3785,2.2995e-05,0
2.379,2.2492e-05,0
2.3795,3.3234e-05,0
2.38,6.3783e-05,0
2.3805,9.9702e-05,0
2.381,0.0001237,0
2.3815,0.00013948,0
2.382,0.00014217,0
2.3825,0.00011649,0
2.383,6.1433e-05,0
2.3835,5.7069e-06,0
2.384,-1.2085e-05,0
2.3845,3.8605e-06,0
2.385,1.4435e-05,0
2.3855,4.8676e-06,0
2.386,-6.5461e-06,0
2.3865,-1.4267e-05,0
2.387,-1.7121e-05,0
2.3875,-2.8534e-06,0
2.388,3.3738e-05,0
2.3885,6.3615e-05,0
2.389,5.4719e-05,0
2.3895,6.2104e-06,0
2.39,-4.9851e-05,0
2.3905,-7.335e-05,0
2.391,-4.1459e-05,0
2.3915,2.652e-05,0
2.392,7.6371e-05,0
2.3925,8.0064e-05,0
2.393,5.0523e-05,0
2.3935,7.8889e-06,0
2.394,-3.7766e-05,0
2.3945,-7.0664e-05,0
2.395,-7.8386e-05,0
2.3955,-7.5364e-05,0
2.396,-7.8386e-05,0
2.3965,-8.8792e-05,0
2.397,-0.00010793,0
2.3975,-0.00010961,0
2.398,-7.3014e-05,0
2.3985,-2.1988e-05,0
2.399,1.0071e-05,0
2.3995,3.1724e-05,0
2.4,6.4286e-05,0
2.4005,0.00010037,0
2.401,0.00011984,0
2.4015,0.00012253,0
2.402,0.00011716,0
2.4025,0.00010423,0
2.403,8.04e-05,0
2.4035,4.6159e-05,0
2.404,1.1749e-05,0
2.4045,-1.6785e-06,0
2.405,1.0575e-05,0
2.4055,1.0239e-05,0
2.406,-1.4267e-05,0
2.4065,-2.3331e-05,0
2.407,-1.4939e-05,0
2.4075,-1.5442e-05,0
2.408,-2.887e-05,0
2.4085,-3.5416e-05,0
2.409,-2.1317e-05,0
2.4095,5.8747e-06,0
2.41,2.3667e-05,0
2.4105,2.7192e-05,0
2.411,2.2492e-05,0
2.4115,1.4939e-05,0
2.412,1.8631e-05,0
2.4125,3.8102e-05,0
2.413,7.5532e-05,0
2.4135,0.00012001,0
2.414,0.00013864,0
2.4145,0.00012538,0
2.415,0.00010658,0
2.4155,0.00010037,0
2.416,9.752e-05,0
2.4165,8.745e-05,0
2.417,6.6972e-05,0
2.4175,3.7766e-05,0
2.418,1.326e-05,0
2.4185,-5.035e-07,0
2.419,-1.3764e-05,0
2.4195,-2.3163e-05,0
2.42,-1.1582e-05,0
2.4205,1.5946e-05,0
2.421,4.4648e-05,0
2.4215,7.4357e-05,0
2.422,9.4163e-05,0
2.4225,9.9199e-05,0
2.423,0.00010105,0
2.4235,0.00010927,0
2.424,0.00012471,0
2.4245,0.00013948,0
2.425,0.00013529,0
2.4255,9.9367e-05,0
2.426,3.8605e-05,0
2.4265,-1.4939e-05,0
2.427,-4.2466e-05,0
2.4275,-6.714e-05,0
2.428,-9.7185e-05,0
2.4285,-0.00011414,0
2.429,-0.00010491,0
2.4295,-6.3447e-05,0
2.43,-1.4267e-05,0
2.4305,4.8676e-06,0
2.431,-1.0575e-05,0
2.4315,-3.9445e-05,0
2.432,-4.448e-05,0
2.4325,-1.3092e-05,0
2.433,3.2731e-05,0
2.4335,5.4551e-05,0
2.434,4.8173e-05,0
2.4345,4.3809e-05,0
2.435,5.6901e-05,0
2.4355,5.9922e-05,0
2.436,3.4745e-05,0
2.4365,-2.5177e-06,0
2.437,-4.448e-05,0
2.4375,-9.3828e-05,0
2.438,-0.00012622,0
2.4385,-0.00011783,0
2.439,-7.8218e-05,0
2.4395,-4.1291e-05,0
2.44,-1.8967e-05,0
2.4405,0,0
2.441,2.0646e-05,0
2.4415,4.0116e-05,0
2.442,4.9851e-05,0
2.4425,4.6494e-05,0
2.443,3.3066e-05,0
2.4435,2.3331e-05,0
2.444,2.3835e-05,0
2.4445,3.2059e-05,0
2.445,4.5319e-05,0
2.4455,6.0258e-05,0
2.446,7.6875e-05,0
2.4465,0.00010692,0
2.447,0.00014015,0
2.4475,0.00015123,0
2.448,0.00012404,0
2.4485,5.0187e-05,0
2.449,-3.1891e-05,0
2.4495,-6.8315e-05,0
2.45,-7.805e-05,0
2.4505,-0.00010423,0
2.451,-0.00012773,0
2.4515,-0.00012673,0
2.452,-0.00012119,0
2.4525,-0.00010793,0
2.453,-7.0329e-05,0
2.4535,-2.266e-05,0
2.454,1.0575e-05,0
2.4545,2.7024e-05,0
2.455,2.8031e-05,0
2.4555,2.4002e-05,0
2.456,4.1459e-05,0
2.4565,9.1814e-05,0
2.457,0.0001425,0
2.4575,0.00015811,0
2.458,0.00013948,0
2.4585,0.0001133,0
2.459,9.9535e-05,0
2.4595,9.6513e-05,0
2.46,0.00010373,0
2.4605,0.00012068,0
2.461,0.0001237,0
2.4615,9.2821e-05,0
2.462,5.623e-05,0
2.4625,5.1865e-05,0
2.463,7.0329e-05,0
2.4635,8.5435e-05,0
2.464,9.4499e-05,0
2.4645,9.5842e-05,0
2.465,7.2343e-05,0
2.4655,2.031e-05,0
2.466,-3.7095e-05,0
2.4665,-6.8986e-05,0
2.467,-7.5532e-05,0
2.4675,-7.8721e-05,0
2.468,-8.6442e-05,0
2.4685,-9.3828e-05,0
2.469,-9.601e-05,0
2.4695,-9.7017e-05,0
2.47,-9.5842e-05,0
2.4705,-7.57e-05,0
2.471,-2.1653e-05,0
2.4715,6.4622e-05,0
2.472,0.00018245,0
2.4725,0.00027628,0
2.473,0.00029021,0
2.4735,0.00023012,0
2.474,0.0001514,0
2.4745,0.00010944,0
2.475,9.3156e-05,0
2.4755,5.8915e-05,0
2.476,-8.896e-06,0
2.4765,-8.5771e-05,0
2.477,-0.00016584,0
2.4775,-0.00025631,0
2.478,-0.00032529,0
2.4785,-0.00032747,0
2.479,-0.0002548,0
2.4795,-0.00016097,0
2.48,-9.3492e-05,0
2.4805,-5.6901e-05,0
2.481,-3.6088e-05,0
2.4815,-1.6785e-05,0
2.482,8.2246e-06,0
2.4825,3.0716e-05,0
2.483,4.8508e-05,0
2.4835,7.5364e-05,0
2.484,0.00010306,0
2.4845,0.0001185,0
2.485,0.00012673,0
2.4855,0.00013915,0
2.486,0.00015946,0
2.4865,0.00017993,0
2.487,0.00018581,0
2.4875,0.00017893,0
2.488,0.00015996,0
2.4885,0.00012505,0
2.489,7.335e-05,0
2.4895,2.0981e-05,0
2.49,-3.8605e-06,0
2.4905,-6.8818e-06,0
2.491,-9.0639e-06,0
2.4915,-8.5603e-06,0
2.492,-3.1891e-06,0
2.4925,-3.8605e-06,0
2.493,-1.2589e-05,0
2.4935,-1.5106e-06,0
2.494,4.3473e-05,0
2.4945,9.2821e-05,0
2.495,0.00010524,0
2.4955,8.2246e-05,0
2.496,5.8244e-05,0
2.4965,4.7166e-05,0
2.497,4.5487e-05,0
2.4975,4.5991e-05,0
2.498,3.508e-05,0
2.4985,4.8676e-06,0
2.499,-4.0116e-05,0
2.4995,-8.4764e-05,0
2.5,-0.00011397,0
2.5005,-0.00011078,0
2.501,-7.6707e-05,0
2.5015,-2.7695e-05,0
2.502,-1.5106e-06,0
2.5025,-1.6953e-05,0
2.503,-3.978e-05,0
2.5035,-3.7095e-05,0
2.504,-1.7624e-05,0
2.5045,1.2924e-05,0
2.505,6.5293e-05,0
2.5055,0.00011229,0
2.506,0.00012773,0
2.5065,0.0001227,0
2.507,0.00010927,0
2.5075,8.0735e-05,0
2.508,4.918e-05,0
2.5085,3.1388e-05,0
2.509,2.9374e-05,0
2.5095,3.8102e-05,0
2.51,6.9657e-05,0
2.5105,0.00013344,0
2.511,0.00018514,0
2.5115,0.00020562,0
2.512,0.00020729,0
2.5125,0.00018245,0
2.513,0.00013797,0
2.5135,9.7017e-05,0
2.514,6.6804e-05,0
2.5145,4.3137e-05,0
2.515,1.326e-05,0
2.5155,-4.9851e-05,0
2.516,-0.00013445,0
2.5165,-0.00018883,0
2.517,-0.00020209,0
2.5175,-0.00020562,0
2.518,-0.00020024,0
2.5185,-0.00016902,0
2.519,-0.00012975,0
2.5195,-0.00010524,0
2.52,-6.2104e-05,0
2.5205,1.4603e-05,0
2.521,6.9322e-05,0
2.5215,6.4286e-05,0
2.522,3.2059e-05,0
2.5225,2.4674e-05,0
2.523,2.4674e-05,0
2.5235,-6.8818e-06,0
2.524,-7.7378e-05,0
2.5245,-0.00016197,0
2.525,-0.00023247,0
2.5255,-0.00025715,0
2.526,-0.0002271,0
2.5265,-0.00016902,0
2.527,-0.00011481,0
2.5275,-7.2343e-05,0
2.528,-2.4338e-05,0
2.5285,3.7095e-05,0
2.529,0.00010105,0
2.5295,0.00014385,0
2.53,0.00016164,0
2.5305,0.00017406,0
2.531,0.0001848,0
2.5315,0.00019252,0
2.532,0.00019185,0
2.5325,0.00017675,0
2.533,0.00015023,0
2.5335,0.00012438,0
2.534,0.00010927,0
2.5345,8.5771e-05,0
2.535,4.2634e-05,0
2.5355,-3.5248e-06,0
2.536,-3.2898e-05,0
2.5365,-3.122e-05,0
2.537,-1.1078e-05,0
2.5375,8.896e-06,0
2.538,3.0213e-05,0
2.5385,5.3544e-05,0
2.539,7.2343e-05,0
2.5395,7.6707e-05,0
2.54,8.2414e-05,0
2.5405,0.00011196,0
2.541,0.00015123,0
2.5415,0.00018228,0
2.542,0.00019789,0
2.5425,0.00019622,0
2.543,0.00018379,0
2.5435,0.000165,0
2.544,0.00013143,0
2.5445,7.3014e-05,0
2.545,-4.0284e-06,0
2.5455,-8.2414e-05,0
2.546,-0.00014401,0
2.5465,-0.00017406,0
2.547,-0.00019084,0
2.5475,-0.00020125,0
2.548,-0.00016919,0
2.5485,-8.6107e-05,0
2.549,-1.561e-05,0
2.5495,1.3596e-05,0
2.55,2.5009e-05,0
2.5505,3.2059e-05,0
2.551,3.4073e-05,0
2.5515,2.7024e-05,0
2.552,1.0575e-05,0
2.5525,-5.0355e-06,0
2.553,-1.2085e-05,0
2.5535,-1.4267e-05,0
2.554,-1.6785e-05,0
2.5545,2.0142e-06,0
2.555,4.683e-05,0
2.5555,8.0735e-05,0
2.556,7.6036e-05,0
2.5565,6.6133e-05,0
2.557,7.3014e-05,0
2.5575,6.6468e-05,0
2.558,3.3066e-05,0
2.5585,-1.8463e-06,0
2.559,-1.1917e-05,0
2.5595,-3.5248e-06,0
2.56,-5.035e-07,0
2.5605,-2.1653e-05,0
2.561,-5.8244e-05,0
2.5615,-9.7185e-05,0
2.562,-0.00012992,0
2.5625,-0.00012723,0
2.563,-7.2007e-05,0
2.5635,3.357e-07,0
2.564,4.8173e-05,0
2.5645,7.0161e-05,0
2.565,8.896e-05,0
2.5655,0.00011263,0
2.566,0.0001237,0
2.5665,0.00011833,0
2.567,0.00011531,0
2.5675,0.00011531,0
2.568,0.00010642,0
2.5685,9.4331e-05,0
2.569,0.00011514,0
2.5695,0.00016953,0
2.57,0.00021032,0
2.5705,0.00020461,0
2.571,0.00017288,0
2.5715,0.00014116,0
2.572,0.00011884,0
2.5725,9.752e-05,0
2.573,6.63e-05,0
2.5735,2.6688e-05,0
2.574,-3.8437e-05,0
2.5745,-0.0001373,0
2.575,-0.00023516,0
2.5755,-0.00027863,0
2.576,-0.00026503,0
2.5765,-0.00022676,0
2.577,-0.0001848,0
2.5775,-0.00012454,0
2.578,-3.508e-05,0
2.5785,3.3906e-05,0
2.579,4.2802e-05,0
2.5795,2.4002e-05,0
2.58,2.2324e-05,0
2.5805,4.5487e-05,0
2.581,6.0929e-05,0
2.5815,4.6494e-05,0
2.582,3.4073e-05,0
2.5825,4.2298e-05,0
2.583,3.1388e-05,0
2.5835,-1.4939e-05,0
2.584,-5.4887e-05,0
2.5845,-5.2537e-05,0
2.585,-3.0045e-05,0
2.5855,-2.5849e-05,0
2.586,-3.9109e-05,0
2.5865,-3.1052e-05,0
2.587,5.2033e-06,0
2.5875,3.8773e-05,0
2.588,4.683e-05,0
2.5885,3.3738e-05,0
2.589,1.0575e-05,0
2.5895,-1.7624e-05,0
2.59,-4.4984e-05,0
2.5905,-5.2201e-05,0
2.591,-3.0549e-05,0
2.5915,3.8605e-06,0
2.592,3.3234e-05,0
2.5925,5.3544e-05,0
2.593,6.6972e-05,0
2.5935,7.4693e-05,0
2.594,7.9393e-05,0
2.5945,8.04e-05,0
2.595,7.6036e-05,0
2.5955,7.2343e-05,0
2.596,7.7378e-05,0
2.5965,8.5771e-05,0
2.597,8.9799e-05,0
2.5975,9.2821e-05,0
2.598,9.9031e-05,0
2.5985,0.0001138,0
2.599,0.00013529,0
2.5995,0.00014301,0
2.6,0.00013361,0
2.6005,0.00012253,0
2.601,0.00010558,0
2.6015,8.8457e-05,0
2.602,9.4163e-05,0
2.6025,0.00012236,0
2.603,0.00014217,0
2.6035,0.00012303,0
2.604,7.3518e-05,0
2.6045,2.6688e-05,0
2.605,7.5532e-06,0
2.6055,9.3996e-06,0
2.606,9.9031e-06,0
2.6065,-9.3996e-06,0
2.607,-4.6159e-05,0
2.6075,-7.805e-05,0
2.608,-0.00010491,0
2.6085,-0.0001185,0
2.609,-0.00011145,0
2.6095,-9.8863e-05,0
2.61,-7.6036e-05,0
2.6105,-5.3208e-05,0
2.611,-4.6159e-05,0
2.6115,-4.448e-05,0
2.612,-3.5752e-05,0
2.6125,-2.1653e-05,0
2.613,-1.3596e-05,0
2.6135,-1.6449e-05,0
2.614,1.678e-07,0
2.6145,6.63e-05,0
2.615,0.00012673,0
2.6155,0.0001279,0
2.616,9.1814e-05,0
2.6165,5.0187e-05,0
2.617,2.0646e-05,0
2.6175,1.0239e-05,0
2.618,1.4267e-05,0
2.6185,1.4939e-05,0
2.619,-1.1246e-05,0
2.6195,-6.6636e-05,0
2.62,-0.00011229,0
2.6205,-0.00011951,0
2.621,-0.00010608,0
2.6215,-9.2989e-05,0
2.622,-7.6707e-05,0
2.6225,-5.5222e-05,0
2.623,-4.3137e-05,0
2.6235,-4.1459e-05,0
2.624,-2.6688e-05,0
2.6245,8.5603e-06,0
2.625,5.0523e-05,0
2.6255,9.3492e-05,0
2.626,0.00013042,0
2.6265,0.00017003,0
2.627,0.00022744,0
2.6275,0.00027678,0
2.628,0.00028165,0
2.6285,0.00023214,0
2.629,0.00015509,0
2.6295,8.4428e-05,0
2.63,5.4215e-05,0
2.6305,6.1433e-05,0
2.631,6.4622e-05,0
2.6315,3.2395e-05,0
2.632,-3.5584e-05,0
2.6325,-0.00010474,0
2.633,-0.0001326,0
2.6335,-0.00012404,0
2.634,-0.00010423,0
2.6345,-6.8986e-05,0
2.635,-2.3667e-05,0
2.6355,6.8818e-06,0
2.636,2.5345e-05,0
2.6365,6.5965e-05,0
2.637,0.00011783,0
2.6375,0.00014888,0
2.638,0.0001556,0
2.6385,0.00015392,0
2.639,0.00012656,0
2.6395,4.7501e-05,0
2.64,-6.1936e-05,0
2.6405,-0.00015056,0
2.641,-0.00020092,0
2.6415,-0.00022458,0
2.642,-0.00024103,0
2.6425,-0.00023801,0
2.643,-0.00020729,0
2.6435,-0.00017574,0
2.644,-0.00015962,0
2.6445,-0.00013663,0
2.645,-8.275e-05,0
2.6455,-1.2421e-05,0
2.646,3.4073e-05,0
2.6465,5.2872e-05,0
2.647,5.9754e-05,0
2.6475,5.1194e-05,0
2.648,4.1459e-05,0
2.6485,6.009e-05,0
2.649,0.00011464,0
2.6495,0.00016634,0
2.65,0.0001791,0
2.6505,0.00016013,0
2.651,0.00012723,0
2.6515,9.4163e-05,0
2.652,6.5797e-05,0
2.6525,4.1123e-05,0
2.653,1.9638e-05,0
2.6535,8.5603e-06,0
2.654,1.1582e-05,0
2.6545,2.5345e-05,0
2.655,5.2872e-05,0
2.6555,8.1071e-05,0
2.656,0.00010658,0
2.6565,0.00013109,0
2.657,0.00013579,0
2.6575,0.00014083,0
2.658,0.00015006,0
2.6585,0.00014318,0
2.659,0.00012471,0
2.6595,0.00011565,0
2.66,0.00012639,0
2.6605,0.00016751,0
2.661,0.0001942,0
2.6615,0.00015895,0
2.662,9.1142e-05,0
2.6625,1.7121e-05,0
2.663,-3.7766e-05,0
2.6635,-6.714e-05,0
2.664,-9.5506e-05,0
2.6645,-0.0001378,0
2.665,-0.00018564,0
2.6655,-0.00023331,0
2.666,-0.00026033,0
2.6665,-0.00023398,0
2.667,-0.00016936,0
2.6675,-0.00010507,0
2.668,-5.7572e-05,0
2.6685,-2.5849e-05,0
2.669,-6.714e-07,0
2.6695,1.6281e-05,0
2.67,2.1317e-05,0
2.6705,2.2828e-05,0
2.671,2.5849e-05,0
2.6715,3.508e-05,0
2.672,4.4648e-05,0
2.6725,4.2466e-05,0
2.673,3.0716e-05,0
2.6735,1.2924e-05,0
2.674,-1.091e-05,0
2.6745,-2.7024e-05,0
2.675,-1.4267e-05,0
2.6755,3.357e-05,0
2.676,8.4932e-05,0
2.6765,0.00011229,0
2.677,0.00013344,0
2.6775,0.00016365,0
2.678,0.00018379,0
2.6785,0.00018665,0
2.679,0.00017977,0
2.6795,0.00015459,0
2.68,0.00013646,0
2.6805,0.00017037,0
2.681,0.00021267,0
2.6815,0.00019974,0
2.682,0.00014166,0
2.6825,6.9993e-05,0
2.683,5.2033e-06,0
2.6835,-4.9515e-05,0
2.684,-9.6513e-05,0
2.6845,-0.00012857,0
2.685,-0.00015879,0
2.6855,-0.00020696,0
2.686,-0.00026201,0
2.6865,-0.00027242,0
2.687,-0.00021283,0
2.6875,-0.00012857,0
2.688,-7.5364e-05,0
2.6885,-5.2872e-05,0
2.689,-3.4073e-05,0
2.6895,-7.7211e-06,0
2.69,1.8463e-05,0
2.6905,3.4745e-05,0
2.691,4.4144e-05,0
2.6915,5.6901e-05,0
2.692,8.426e-05,0
2.6925,0.00014217,0
2.693,0.00021938,0
2.6935,0.00026604,0
2.694,0.00025093,0
2.6945,0.00019991,0
2.695,0.0001566,0
2.6955,0.00012706,0
2.696,0.00011061,0
2.6965,0.00010423,0
2.697,8.4428e-05,0
2.6975,5.3208e-05,0
2.698,5.8244e-05,0
2.6985,0.00011028,0
2.699,0.00012454,0
2.6995,6.6133e-05,0
2.7,6.714e-07,0
2.7005,-3.1052e-05,0
2.701,-4.7669e-05,0
2.7015,-7.3014e-05,0
2.702,-8.0232e-05,0
2.7025,-6.3615e-05,0
2.703,-7.7882e-05,0
2.7035,-0.00013747,0
2.704,-0.0001754,0
2.7045,-0.00016751,0
2.705,-0.00015023,0
2.7055,-0.00014234,0
2.706,-0.00014083,0
2.7065,-0.00012303,0
2.707,-9.6849e-05,0
2.7075,-8.661e-05,0
2.708,-8.3757e-05,0
2.7085,-7.3854e-05,0
2.709,-4.7837e-05,0
2.7095,-1.5106e-06,0
2.71,4.1459e-05,0
2.7105,6.63e-05,0
2.711,9.0471e-05,0
2.7115,0.000118,0
2.712,0.00013109,0
2.7125,0.00013915,0
2.713,0.00015157,0
2.7135,0.00015409,0
2.714,0.00013411,0
2.7145,9.4163e-05,0
2.715,4.8844e-05,0
2.7155,9.9031e-06,0
2.716,-2.5177e-05,0
2.7165,-6.6133e-05,0
2.717,-0.00010893,0
2.7175,-0.00013596,0
2.718,-0.00013176,0
2.7185,-8.4596e-05,0
2.719,-1.4267e-05,0
2.7195,3.6591e-05,0
2.72,4.3305e-05,0
2.7205,3.3738e-05,0
2.721,4.3641e-05,0
2.7215,8.1743e-05,0
2.722,0.00010642,0
2.7225,9.1142e-05,0
2.723,7.8386e-05,0
2.7235,9.2485e-05,0
2.724,0.00011397,0
2.7245,0.00012673,0
2.725,0.00013478,0
2.7255,0.00014855,0
2.726,0.00016164,0
2.7265,0.00015358,0
2.727,0.00012874,0
2.7275,0.00010188,0
2.728,7.6371e-05,0
2.7285,4.8508e-05,0
2.729,1.9303e-05,0
2.7295,-4.1962e-06,0
2.73,-2.8534e-06,0
2.7305,1.0575e-05,0
2.731,5.2033e-06,0
2.7315,-1.5274e-05,0
2.732,-2.9206e-05,0
2.7325,-3.2731e-05,0
2.733,-2.7359e-05,0
2.7335,-1.796e-05,0
2.734,-1.3092e-05,0
2.7345,-1.3428e-05,0
2.735,-1.3428e-06,0
2.7355,2.9709e-05,0
2.736,7.8721e-05,0
2.7365,0.00011968,0
2.737,0.0001133,0
2.7375,8.0064e-05,0
2.738,7.1e-05,0
2.7385,0.00011917,0
2.739,0.00019185,0
2.7395,0.00019554,0
2.74,0.00010491,0
2.7405,4.3641e-06,0
2.741,-4.6159e-05,0
2.7415,-8.0903e-05,0
2.742,-0.00012975,0
2.7425,-0.00016735,0
2.743,-0.00018581,0
2.7435,-0.00021401,0
2.744,-0.00025194,0
2.7445,-0.00026806,0
2.745,-0.00024036,0
2.7455,-0.000165,0
2.746,-6.4622e-05,0
2.7465,2.5009e-05,0
2.747,7.4021e-05,0
2.7475,8.7617e-05,0
2.748,9.9535e-05,0
2.7485,0.00012236,0
2.749,0.00014888,0
2.7495,0.00016147,0
2.75,0.00017507,0
2.7505,0.00021149,0
2.751,0.0002464,0
2.7515,0.00024372,0
2.752,0.00019655,0
2.7525,0.00014687,0
2.753,0.00012052,0
2.7535,8.7785e-05,0
2.754,2.266e-05,0
2.7545,-7.6539e-05,0
2.755,-0.0001937,0
2.7555,-0.00030481,0
2.756,-0.00037313,0
2.7565,-0.00036222,0
2.757,-0.00028719,0
2.7575,-0.00019605,0
2.758,-0.00012236,0
2.7585,-7.1e-05,0
2.759,-3.2563e-05,0
2.7595,5.035e-07,0
2.76,3.3234e-05,0
2.7605,6.4286e-05,0
2.761,8.8121e-05,0
2.7615,0.00010356,0
2.762,0.00011397,0
2.7625,0.00011968,0
2.763,0.00013881,0
2.7635,0.00017641,0
2.764,0.00020058,0
2.7645,0.00018782,0
2.765,0.00015157,0
2.7655,0.00010692,0
2.766,6.3615e-05,0
2.7665,2.3835e-05,0
2.767,-1.0575e-05,0
2.7675,-3.3066e-05,0
2.768,-4.1459e-05,0
2.7685,-3.1388e-05,0
2.769,-1.678e-07,0
2.7695,4.6159e-05,0
2.77,9.3828e-05,0
2.7705,0.00012169,0
2.771,0.00012874,0
2.7715,0.00012723,0
2.772,0.00011397,0
2.7725,8.9464e-05,0
2.773,5.8915e-05,0
2.7735,2.8031e-05,0
2.774,3.0045e-05,0
2.7745,5.0523e-05,0
2.775,3.6759e-05,0
2.7755,-1.0575e-05,0
2.776,-5.2872e-05,0
2.7765,-3.8102e-05,0
2.777,1.8128e-05,0
2.7775,5.5726e-05,0
2.778,4.2466e-05,0
2.7785,-2.8534e-06,0
2.779,-4.8173e-05,0
2.7795,-7.0497e-05,0
2.78,-5.8244e-05,0
2.7805,-2.9709e-05,0
2.781,-2.182e-06,0
2.7815,3.8437e-05,0
2.782,7.805e-05,0
2.7825,7.8889e-05,0
2.783,4.8844e-05,0
2.7835,2.8031e-05,0
2.784,3.6591e-05,0
2.7845,5.2872e-05,0
2.785,6.865e-05,0
2.7855,7.5029e-05,0
2.786,4.1962e-05,0
2.7865,-2.8199e-05,0
2.787,-9.836e-05,0
2.7875,-0.00013344,0
2.788,-0.00011598,0
2.7885,-4.8676e-05,0
2.789,3.6927e-05,0
2.7895,9.5674e-05,0
2.79,0.00011128,0
2.7905,0.00010323,0
2.791,8.9799e-05,0
2.7915,7.2343e-05,0
2.792,4.7333e-05,0
2.7925,5.7069e-06,0
2.793,-5.9251e-05,0
2.7935,-0.00012673,0
2.794,-0.00015106,0
2.7945,-0.00012656,0
2.795,-9.9199e-05,0
2.7955,-7.335e-05,0
2.796,-1.9638e-05,0
2.7965,3.9612e-05,0
2.797,6.1601e-05,0
2.7975,3.4241e-05,0
2.798,-2.2995e-05,0
2.7985,-6.5965e-05,0
2.799,-6.7475e-05,0
2.7995,-4.2634e-05,0
2.8,-2.3331e-05,0
2.8005,-1.8799e-05,0
2.801,-4.8676e-06,0
2.8015,2.0981e-05,0
2.802,5.8244e-05,0
2.8025,0.00010356,0
2.803,0.0001368,0
2.8035,0.00015106,0
2.804,0.00014922,0
2.8045,0.00013344,0
2.805,0.0001232,0
2.8055,0.00013277,0
2.806,0.00015962,0
2.8065,0.00019991,0
2.807,0.00020998,0
2.8075,0.00016634,0
2.808,9.1814e-05,0
2.8085,1.1414e-05,0
2.809,-2.4506e-05,0
2.8095,-1.4099e-05,0
2.81,8.5603e-06,0
2.8105,1.8967e-05,0
2.811,-7.2175e-06,0
2.8115,-5.2537e-05,0
2.812,-6.7308e-05,0
2.8125,-5.5894e-05,0
2.813,-5.5222e-05,0
2.8135,-7.6539e-05,0
2.814,-0.00010843,0
2.8145,-0.0001378,0
2.815,-0.00014133,0
2.8155,-0.00011296,0
2.816,-7.2679e-05,0
2.8165,-2.8702e-05,0
2.817,2.7863e-05,0
2.8175,9.4163e-05,0
2.818,0.0001368,0
2.8185,0.00015627,0
2.819,0.00014855,0
2.8195,0.00012673,0
2.82,0.00012723,0
2.8205,0.00013948,0
2.821,0.00014183,0
2.8215,0.00013327,0
2.822,0.00013243,0
2.8225,0.00011934,0
2.823,7.0329e-05,0
2.8235,2.4674e-05,0
2.824,2.5177e-06,0
2.8245,-4.0452e-05,0
2.825,-0.00012203,0
2.8255,-0.00018027,0
2.826,-0.00017758,0
2.8265,-0.00013545,0
2.827,-0.00010088,0
2.8275,-8.0064e-05,0
2.828,-6.4622e-05,0
2.8285,-7.805e-05,0
2.829,-0.00011766,0
2.8295,-0.00015375,0
2.83,-0.00015123,0
2.8305,-9.7688e-05,0
2.831,-3.2227e-05,0
2.8315,8.896e-06,0
2.832,2.5009e-05,0
2.8325,3.0549e-05,0
2.833,4.5823e-05,0
2.8335,7.8553e-05,0
2.834,0.00010323,0
2.8345,0.00011766,0
2.835,0.0001331,0
2.8355,0.00015073,0
2.836,0.0001754,0
2.8365,0.00019907,0
2.837,0.00019705,0
2.8375,0.000165,0
2.838,0.00011397,0
2.8385,6.2944e-05,0
2.839,5.153e-05,0
2.8395,8.3085e-05,0
2.84,8.2078e-05,0
2.8405,2.031e-05,0
2.841,-4.5655e-05,0
2.8415,-6.865e-05,0
2.842,-7.2679e-05,0
2.8425,-8.4428e-05,0
2.843,-6.3279e-05,0
2.8435,-8.392e-07,0
2.844,4.8508e-05,0
2.8445,5.7572e-05,0
2.845,6.0929e-05,0
2.8455,7.8553e-05,0
2.846,8.6442e-05,0
2.8465,6.0258e-05,0
2.847,1.5274e-05,0
2.8475,-1.8967e-05,0
2.848,-5.0019e-05,0
2.8485,-9.3828e-05,0
2.849,-0.00013512,0
2.8495,-0.00015358,0
2.85,-0.00015056,0
2.8505,-0.00013243,0
2.851,-9.7017e-05,0
2.8515,-3.8102e-05,0
2.852,4.3641e-05,0
2.8525,0.00016567,0
2.853,0.00028753,0
2.8535,0.00035433,0
2.854,0.000355,0
2.8545,0.00028551,0
2.855,0.00017238,0
2.8555,6.0594e-05,0
2.856,-3.2563e-05,0
2.8565,-0.00011666,0
2.857,-0.00017826,0
2.8575,-0.00019236,0
2.858,-0.00015258,0
2.8585,-6.244e-05,0
2.859,2.7695e-05,0
2.8595,6.63e-05,0
2.86,6.3447e-05,0
2.8605,4.448e-05,0
2.861,3.0549e-05,0
2.8615,1.6953e-05,0
2.862,-6.2104e-06,0
2.8625,-3.357e-05,0
2.863,-4.3641e-05,0
2.8635,-8.3925e-06,0
2.864,5.8747e-05,0
2.8645,0.00011246,0
2.865,0.00014401,0
2.8655,0.00016634,0
2.866,0.00015946,0
2.8665,0.0001138,0
2.867,6.4454e-05,0
2.8675,4.2802e-05,0
2.868,2.3835e-05,0
2.8685,-1.8967e-05,0
2.869,-5.0858e-05,0
2.8695,-6.7979e-05,0
2.87,-9.601e-05,0
2.8705,-9.2317e-05,0
2.871,-4.0452e-05,0
2.8715,-3.8605e-06,0
2.872,-3.4409e-05,0
2.8725,-9.4499e-05,0
2.873,-0.00011901,0
2.8735,-9.8192e-05,0
2.874,-9.3156e-05,0
2.8745,-0.00012505,0
2.875,-0.00013109,0
2.8755,-8.8289e-05,0
2.876,-3.5752e-05,0
2.8765,2.3835e-05,0
2.877,8.3085e-05,0
2.8775,0.00010558,0
2.878,9.7017e-05,0
2.8785,9.7353e-05,0
2.879,0.00012874,0
2.8795,0.00014469,0
2.88,0.00011565,0
2.8805,9.3156e-05,0
2.881,0.00010608,0
2.8815,0.00011749,0
2.882,8.5771e-05,0
2.8825,2.7695e-05,0
2.883,-1.2589e-05,0
2.8835,-2.3835e-05,0
2.884,-1.1078e-05,0
2.8845,1.4267e-05,0
2.885,4.5487e-05,0
2.8855,6.9657e-05,0
2.886,7.0161e-05,0
2.8865,5.153e-05,0
2.887,6.0929e-05,0
2.8875,0.00011179,0
2.888,0.00013545,0
2.8885,0.00010054,0
2.889,5.2705e-05,0
2.8895,3.4073e-05,0
2.89,5.1194e-05,0
2.8905,8.1407e-05,0
2.891,8.745e-05,0
2.8915,2.5345e-05,0
2.892,-9.2317e-05,0
2.8925,-0.00017893,0
2.893,-0.00019084,0
2.8935,-0.00017238,0
2.894,-0.00016332,0
2.8945,-0.00013579,0
2.895,-7.9057e-05,0
2.8955,-3.0381e-05,0
2.896,-2.5177e-06,0
2.8965,2.3331e-05,0
2.897,5.2705e-05,0
2.8975,9.3492e-05,0
2.898,0.00013109,0
2.8985,0.00012572,0
2.899,9.0806e-05,0
2.8995,7.5532e-05,0
2.9,7.4525e-05,0
2.9005,4.8173e-05,0
2.901,7.5532e-06,0
2.9015,1.9974e-05,0
2.902,8.3085e-05,0
2.9025,0.00014989,0
2.903,0.00019588,0
2.9035,0.00018363,0
2.904,0.00013411,0
2.9045,9.0974e-05,0
2.905,5.5222e-05,0
2.9055,2.3499e-05,0
2.906,-8.2246e-06,0
2.9065,-7.0497e-05,0
2.907,-0.00012908,0
2.9075,-0.00012236,0
2.908,-5.4215e-05,0
2.9085,2.5513e-05,0
2.909,0.0001039,0
2.9095,0.00017826,0
2.91,0.00019487,0
2.9105,0.00013948,0
2.911,7.1e-05,0
2.9115,1.6785e-05,0
2.912,-4.8508e-05,0
2.9125,-0.00015006,0
2.913,-0.0002652,0
2.9135,-0.00033117,0
2.914,-0.00032512,0
2.9145,-0.00025631,0
2.915,-0.00013075,0
2.9155,-1.5106e-06,0
2.916,7.3182e-05,0
2.9165,9.5506e-05,0
2.917,8.745e-05,0
2.9175,7.1168e-05,0
2.918,4.9515e-05,0
2.9185,2.1988e-05,0
2.919,-1.2924e-05,0
2.9195,-5.4551e-05,0
2.92,-8.7617e-05,0
2.9205,-9.0974e-05,0
2.921,-3.1724e-05,0
2.9215,6.2776e-05,0
2.922,0.00012874,0
2.9225,0.00015224,0
2.923,0.00012773,0
2.9235,8.275e-05,0
2.924,5.7237e-05,0
2.9245,7.5364e-05,0
2.925,0.00012874,0
2.9255,0.00014284,0
2.926,8.4093e-05,0
2.9265,-5.8747e-06,0
2.927,-6.4118e-05,0
2.9275,-5.7069e-05,0
2.928,-2.3331e-05,0
2.9285,-5.539e-06,0
2.929,4.8676e-06,0
2.9295,1.3596e-05,0
2.93,2.6688e-05,0
2.9305,3.7766e-05,0
2.931,3.8773e-05,0
2.9315,4.5151e-05,0
2.932,5.9754e-05,0
2.9325,7.0329e-05,0
2.933,6.949e-05,0
2.9335,5.7572e-05,0
2.934,4.0452e-05,0
2.9345,3.0381e-05,0
2.935,3.3738e-05,0
2.9355,4.5991e-05,0
2.936,7.4861e-05,0
2.9365,0.00011649,0
2.937,0.00016164,0
2.9375,0.00021468,0
2.938,0.00025966,0
2.9385,0.00025866,0
2.939,0.00018917,0
2.9395,7.7043e-05,0
2.94,-2.0142e-05,0
2.9405,-9.4163e-05,0
2.941,-0.00017288,0
2.9415,-0.00023969,0
2.942,-0.00027594,0
2.9425,-0.00026906,0
2.943,-0.00019403,0
2.9435,-8.5267e-05,0
2.944,-3.5248e-06,0
2.9445,3.3738e-05,0
2.945,5.9587e-05,0
2.9455,9.3828e-05,0
2.946,0.00011716,0
2.9465,9.8024e-05,0
2.947,7.4189e-05,0
2.9475,7.5029e-05,0
2.948,0.00011078,0
2.9485,0.00013478,0
2.949,0.00011565,0
2.9495,7.57e-05,0
2.95,5.9251e-05,0
2.9505,7.3014e-05,0
2.951,7.3014e-05,0
2.9515,7.7714e-05,0
2.952,0.00016332,0
2.9525,0.00025211,0
2.953,0.00025631,0
2.9535,0.00018312,0
2.954,7.4357e-05,0
2.9545,-4.7333e-05,0
2.955,-0.00015425,0
2.9555,-0.00023801,0
2.956,-0.00031539,0
2.9565,-0.00036323,0
2.957,-0.00035064,0
2.9575,-0.00030951,0
2.958,-0.00025765,0
2.9585,-0.00018648,0
2.959,-9.8695e-05,0
2.9595,-2.5177e-06,0
2.96,7.7043e-05,0
2.9605,0.00011246,0
2.961,0.00010423,0
2.9615,7.9728e-05,0
2.962,6.7811e-05,0
2.9625,6.5126e-05,0
2.963,5.5726e-05,0
2.9635,5.153e-05,0
2.964,6.8315e-05,0
2.9645,9.6849e-05,0
2.965,0.00011296,0
2.9655,0.00012807,0
2.966,0.00016802,0
2.9665,0.00021048,0
2.967,0.00019252,0
2.9675,0.00013848,0
2.968,9.7185e-05,0
2.9685,6.6468e-05,0
2.969,2.3667e-05,0
2.9695,-3.3066e-05,0
2.97,-8.04e-05,0
2.9705,-8.9967e-05,0
2.971,-9.0135e-05,0
2.9715,-0.00010256,0
2.972,-0.00012052,0
2.9725,-0.0001284,0
2.973,-7.6036e-05,0
2.9735,1.796e-05,0
2.974,6.4622e-05,0
2.9745,5.8244e-05,0
2.975,4.4144e-05,0
2.9755,3.5416e-05,0
2.976,2.4842e-05,0
2.9765,1.3092e-05,0
2.977,3.1891e-06,0
2.9775,-6.8818e-06,0
2.978,-1.4099e-05,0
2.9785,-9.5674e-06,0
2.979,1.2253e-05,0
2.9795,4.4816e-05,0
2.98,7.4021e-05,0
2.9805,8.1575e-05,0
2.981,9.7185e-05,0
2.9815,0.0001274,0
2.982,0.00012605,0
2.9825,8.4428e-05,0
2.983,3.3906e-05,0
2.9835,1.5274e-05,0
2.984,5.8579e-05,0
2.9845,0.00017053,0
2.985,0.00030733,0
2.9855,0.00037783,0
2.986,0.00038572,0
2.9865,0.00039998,0
2.987,0.00041845,0
2.9875,0.00038119,0
2.988,0.00025429,0
2.9885,4.5151e-05,0
2.989,-0.00017842,0
2.9895,-0.00031958,0
2.99,-0.000379,0
2.9905,-0.00041173,0
2.991,-0.00041106,0
2.9915,-0.00034829,0
2.992,-0.00026722,0
2.9925,-0.00021535,0
2.993,-0.00019974,0
2.9935,-0.00019252,0
2.994,-0.00016634,0
2.9945,-0.00012303,0
2.995,-8.2414e-05,0
2.9955,-5.1194e-05,0
2.996,-3.6759e-05,0
2.9965,-4.0955e-05,0
2.997,-3.0045e-05,0
2.9975,1.2924e-05,0
2.998,6.7643e-05,0
2.9985,0.00011934,0
2.999,0.00018312,0
2.9995,0.00021199,0
3,0.00019857,0
3.0005,0.00020058,0
3.001,0.00021132,0
3.0015,0.00021317,0
3.002,0.00020645,0
3.0025,0.00017473,0
3.003,8.9967e-05,0
3.0035,-3.0549e-05,0
3.004,-0.00012337,0
3.0045,-0.00018329,0
3.005,-0.00025194,0
3.0055,-0.00030163,0
3.006,-0.00026722,0
3.0065,-0.0001843,0
3.007,-0.00012505,0
3.0075,-0.00010037,0
3.008,-8.0568e-05,0
3.0085,-3.4073e-05,0
3.009,3.827e-05,0
3.0095,0.00010457,0
3.01,0.00015325,0
3.0105,0.00017842,0
3.011,0.00018648,0
3.0115,0.00019252,0
3.012,0.00019571,0
3.0125,0.00017977,0
3.013,0.00013881,0
3.0135,9.4835e-05,0
3.014,7.1e-05,0
3.0145,5.4719e-05,0
3.015,3.1556e-05,0
3.0155,1.4099e-05,0
3.016,9.2317e-06,0
3.0165,9.2317e-06,0
3.017,9.9031e-06,0
3.0175,2.0646e-05,0
3.018,3.9612e-05,0
3.0185,6.3447e-05,0
3.019,0.00010843,0
3.0195,0.00015761,0
3.02,0.00017624,0
3.0205,0.00018749,0
3.021,0.00020645,0
3.0215,0.00018715,0
3.022,0.00010423,0
3.0225,5.8747e-06,0
3.023,-5.2537e-05,0
3.0235,-9.5171e-05,0
3.024,-0.00016634,0
3.0245,-0.00022828,0
3.025,-0.00020545,0
3.0255,-9.5171e-05,0
3.026,4.4984e-05,0
3.0265,0.00013243,0
3.027,0.00013764,0
3.0275,9.836e-05,0
3.028,5.3208e-05,0
3.0285,1.0575e-05,0
3.029,7.8889e-06,0
3.0295,5.0523e-05,0
3.03,0.00010239,0
3.0305,0.00012605,0
3.031,9.7688e-05,0
3.0315,4.448e-05,0
3.032,-6.714e-07,0
3.0325,-3.7766e-05,0
3.033,-8.6107e-05,0
3.0335,-0.00014166,0
3.034,-0.00014166,0
3.0345,-6.7811e-05,0
3.035,2.2995e-05,0
3.0355,8.5771e-05,0
3.036,0.00012169,0
3.0365,0.00013797,0
3.037,0.00013462,0
3.0375,0.00010726,0
3.038,6.0594e-05,0
3.0385,8.5603e-06,0
3.039,-7.0497e-06,0
3.0395,2.7863e-05,0
3.04,5.5558e-05,0
3.0405,4.0116e-05,0
3.041,-2.4002e-05,0
3.0415,-0.00010457,0
3.042,-0.00016147,0
3.0425,-0.00018531,0
3.043,-0.00019286,0
3.0435,-0.00019017,0
3.044,-0.0001707,0
3.0445,-0.00013143,0
3.045,-8.2414e-05,0
3.0455,-5.4887e-05,0
3.046,-4.7501e-05,0
3.0465,-3.6088e-05,0
3.047,-1.091e-05,0
3.0475,2.5681e-05,0
3.048,5.4551e-05,0
3.0485,4.448e-05,0
3.049,-1.1749e-06,0
3.0495,-3.5416e-05,0
3.05,-1.5106e-06,0
3.0505,0.00011128,0
3.051,0.00025966,0
3.0515,0.00034493,0
3.052,0.0003409,0
3.0525,0.00031673,0
3.053,0.00029558,0
3.0535,0.00025043,0
3.054,0.00017507,0
3.0545,8.2414e-05,0
3.055,-2.9206e-05,0
3.0555,-0.00015711,0
3.056,-0.00025362,0
3.0565,-0.00027997,0
3.057,-0.00024892,0
3.0575,-0.00018732,0
3.058,-0.00011867,0
3.0585,-6.0594e-05,0
3.059,-1.796e-05,0
3.0595,1.4603e-05,0
3.06,4.2802e-05,0
3.0605,6.3783e-05,0
3.061,8.0064e-05,0
3.0615,0.00012522,0
3.062,0.00019588,0
3.0625,0.00025429,0
3.063,0.00029055,0
3.0635,0.00030398,0
3.064,0.00028367,0
3.0645,0.00022542,0
3.065,0.0001331,0
3.0655,1.4267e-05,0
3.066,-0.00012639,0
3.0665,-0.00026873,0
3.067,-0.00034711,0
3.0675,-0.00034023,0
3.068,-0.00029995,0
3.0685,-0.00022425,0
3.069,-0.00011699,0
3.0695,-3.8773e-05,0
3.07,-1.2924e-05,0
3.0705,-1.7456e-05,0
3.071,-2.4002e-05,0
3.0715,-1.5106e-06,0
3.072,6.4286e-05,0
3.0725,0.00013143,0
3.073,0.00015106,0
3.0735,0.00013445,0
3.074,0.00010692,0
3.0745,7.4021e-05,0
3.075,3.978e-05,0
3.0755,1.5946e-05,0
3.076,4.1962e-06,0
3.0765,7.8889e-06,0
3.077,2.266e-05,0
3.0775,5.7237e-05,0
3.078,9.0471e-05,0
3.0785,9.3156e-05,0
3.079,8.2246e-05,0
3.0795,8.04e-05,0
3.08,9.1981e-05,0
3.0805,0.00011162,0
3.081,0.0001697,0
3.0815,0.00024237,0
