0,0,0
0.0005,0,0
0.001,0,0
0.0015,0,0
0.002,0,0
0.0025,0,0
0.003,0,0
0.0035,0,0
0.004,0,0
0.0045,0,0
0.005,0,0
0.0055,0,0
0.006,0,0
0.0065,0,0
0.007,0,0
0.0075,0,0
0.008,0,0
0.0085,0,0
0.009,0,0
0.0095,0,0
0.01,0,0
0.0105,0,0
0.011,0,0
0.0115,0,0
0.012,0,0
0.0125,0,0
0.013,0,0
0.0135,0,0
0.014,0,0
0.0145,0,0
0.015,0,0
0.0155,0,0
0.016,0,0
0.0165,0,0
0.017,0,0
0.0175,0,0
0.018,0,0
0.0185,0,0
0.019,0,0
0.0195,0,0
0.02,0,0
0.0205,0,0
0.021,0,0
0.0215,0,0
0.022,0,0
0.0225,0,0
0.023,0,0
0.0235,0,0
0.024,0,0
0.0245,0,0
0.025,0,0
0.0255,0,0
0.026,1.0575e-05,0
0.0265,1.0407e-05,0
0.027,1.0575e-05,0
0.0275,1.1246e-05,0
0.028,1.3764e-05,0
0.0285,1.7792e-05,0
0.029,2.3331e-05,0
0.0295,2.6017e-05,0
0.03,2.4842e-05,0
0.0305,2.4506e-05,0
0.031,2.5345e-05,0
0.0315,2.5849e-05,0
0.032,2.7695e-05,0
0.0325,2.7863e-05,0
0.033,2.5345e-05,0
0.0335,2.1653e-05,0
0.034,1.8799e-05,0
0.0345,1.8631e-05,0
0.035,2.0478e-05,0
0.0355,2.0981e-05,0
0.036,1.7624e-05,0
0.0365,1.2589e-05,0
0.037,8.3925e-06,0
0.0375,7.0497e-06,0
0.038,9.5674e-06,0
0.0385,1.4603e-05,0
0.039,2.0646e-05,0
0.0395,2.4338e-05,0
0.04,2.2324e-05,0
0.0405,1.947e-05,0
0.041,1.9806e-05,0
0.0415,2.0478e-05,0
0.042,1.8631e-05,0
0.0425,1.5946e-05,0
0.043,1.6449e-05,0
0.0435,1.6617e-05,0
0.044,1.4267e-05,0
0.0445,1.4099e-05,0
0.045,1.6281e-05,0
0.0455,1.7121e-05,0
0.046,1.7624e-05,0
0.0465,1.7624e-05,0
0.047,1.796e-05,0
0.0475,1.7624e-05,0
0.048,1.796e-05,0
0.0485,2.031e-05,0
0.049,2.4002e-05,0
0.0495,2.4002e-05,0
0.05,2.1317e-05,0
0.0505,2.0646e-05,0
0.051,2.1317e-05,0
0.0515,2.0813e-05,0
0.052,1.7792e-05,0
0.0525,1.6617e-05,0
0.053,1.7624e-05,0
0.0535,1.796e-05,0
0.054,1.6617e-05,0
0.0545,1.5946e-05,0
0.055,1.5442e-05,0
0.0555,1.4435e-05,0
0.056,1.4939e-05,0
0.0565,1.6617e-05,0
0.057,1.796e-05,0
0.0575,1.8296e-05,0
0.058,1.8463e-05,0
0.0585,1.796e-05,0
0.059,1.796e-05,0
0.0595,1.6281e-05,0
0.06,1.4603e-05,0
0.0605,1.4267e-05,0
0.061,1.4099e-05,0
0.0615,1.3092e-05,0
0.062,1.1414e-05,0
0.0625,1.0071e-05,0
0.063,9.2317e-06,0
0.0635,9.5674e-06,0
0.064,1.0575e-05,0
0.0645,1.2253e-05,0
0.065,1.3596e-05,0
0.0655,1.4603e-05,0
0.066,1.5946e-05,0
0.0665,1.5946e-05,0
0.067,1.5946e-05,0
0.0675,1.796e-05,0
0.068,1.9974e-05,0
0.0685,2.031e-05,0
0.069,2.0478e-05,0
0.0695,2.1653e-05,0
0.07,2.1988e-05,0
0.0705,2.1485e-05,0
0.071,1.8631e-05,0
0.0715,1.6953e-05,0
0.072,1.8631e-05,0
0.0725,2.0981e-05,0
0.073,2.1317e-05,0
0.0735,2.031e-05,0
0.074,1.9638e-05,0
0.0745,2.0646e-05,0
0.075,2.0646e-05,0
0.0755,1.9638e-05,0
0.076,1.9974e-05,0
0.0765,2.0646e-05,0
0.077,1.9638e-05,0
0.0775,1.9303e-05,0
0.078,1.9974e-05,0
0.0785,2.1653e-05,0
0.079,2.1988e-05,0
0.0795,2.1988e-05,0
0.08,2.1988e-05,0
0.0805,2.2156e-05,0
0.081,2.2492e-05,0
0.0815,2.1317e-05,0
0.082,2.0646e-05,0
0.0825,2.031e-05,0
0.083,1.9974e-05,0
0.0835,1.9303e-05,0
0.084,1.7624e-05,0
0.0845,1.6281e-05,0
0.085,1.5946e-05,0
0.0855,1.6953e-05,0
0.086,1.796e-05,0
0.0865,1.9806e-05,0
0.087,2.0646e-05,0
0.0875,2.1317e-05,0
0.088,2.5009e-05,0
0.0885,2.7359e-05,0
0.089,2.6017e-05,0
0.0895,2.3331e-05,0
0.09,2.0981e-05,0
0.0905,1.9638e-05,0
0.091,1.9806e-05,0
0.0915,2.0813e-05,0
0.092,2.2156e-05,0
0.0925,2.2995e-05,0
0.093,2.2995e-05,0
0.0935,2.3331e-05,0
0.094,2.3331e-05,0
0.0945,2.1988e-05,0
0.095,1.9974e-05,0
0.0955,2.0478e-05,0
0.096,2.182e-05,0
0.0965,2.2324e-05,0
0.097,2.1317e-05,0
0.0975,1.8631e-05,0
0.098,1.6617e-05,0
0.0985,1.5946e-05,0
0.099,1.7288e-05,0
0.0995,2.0478e-05,0
0.1,2.266e-05,0
0.1005,2.3331e-05,0
0.101,2.3835e-05,0
0.1015,2.2995e-05,0
0.102,2.266e-05,0
0.1025,2.266e-05,0
0.103,2.2995e-05,0
0.1035,2.2995e-05,0
0.104,2.2324e-05,0
0.1045,2.0981e-05,0
0.105,2.0646e-05,0
0.1055,1.947e-05,0
0.106,1.8296e-05,0
0.1065,1.9135e-05,0
0.107,1.9638e-05,0
0.1075,1.8631e-05,0
0.108,1.7288e-05,0
0.1085,1.7288e-05,0
0.109,1.8296e-05,0
0.1095,1.9974e-05,0
0.11,2.1149e-05,0
0.1105,2.1988e-05,0
0.111,2.182e-05,0
0.1115,2.1653e-05,0
0.112,2.1988e-05,0
0.1125,2.182e-05,0
0.113,2.0646e-05,0
0.1135,1.796e-05,0
0.114,1.6953e-05,0
0.1145,1.5778e-05,0
0.115,1.4771e-05,0
0.1155,1.5274e-05,0
0.116,1.6785e-05,0
0.1165,1.8967e-05,0
0.117,2.0478e-05,0
0.1175,2.0646e-05,0
0.118,2.1149e-05,0
0.1185,2.266e-05,0
0.119,2.1317e-05,0
0.1195,1.8967e-05,0
0.12,1.7624e-05,0
0.1205,1.7624e-05,0
0.121,1.8967e-05,0
0.1215,2.1317e-05,0
0.122,2.3331e-05,0
0.1225,2.4338e-05,0
0.123,2.182e-05,0
0.1235,1.8631e-05,0
0.124,1.8296e-05,0
0.1245,1.8631e-05,0
0.125,1.8296e-05,0
0.1255,1.7624e-05,0
0.126,1.5274e-05,0
0.1265,1.4435e-05,0
0.127,1.4939e-05,0
0.1275,1.5778e-05,0
0.128,1.7624e-05,0
0.1285,1.9135e-05,0
0.129,1.9974e-05,0
0.1295,1.8967e-05,0
0.13,1.6114e-05,0
0.1305,1.4939e-05,0
0.131,1.5106e-05,0
0.1315,1.5106e-05,0
0.132,1.5274e-05,0
0.1325,1.6449e-05,0
0.133,1.7624e-05,0
0.1335,1.7288e-05,0
0.134,1.7288e-05,0
0.1345,1.796e-05,0
0.135,1.8631e-05,0
0.1355,2.0142e-05,0
0.136,2.0646e-05,0
0.1365,2.0646e-05,0
0.137,2.1317e-05,0
0.1375,2.0813e-05,0
0.138,2.0646e-05,0
0.1385,2.266e-05,0
0.139,2.4002e-05,0
0.1395,2.266e-05,0
0.14,1.8296e-05,0
0.1405,1.326e-05,0
0.141,1.1582e-05,0
0.1415,1.1917e-05,0
0.142,1.1917e-05,0
0.1425,1.0575e-05,0
0.143,9.2317e-06,0
0.1435,8.5603e-06,0
0.144,1.0742e-05,0
0.1445,1.4267e-05,0
0.145,1.4603e-05,0
0.1455,1.7121e-05,0
0.146,2.1149e-05,0
0.1465,2.5009e-05,0
0.147,2.7024e-05,0
0.1475,2.6017e-05,0
0.148,2.417e-05,0
0.1485,2.4338e-05,0
0.149,2.4506e-05,0
0.1495,2.3499e-05,0
0.15,2.2828e-05,0
0.1505,2.3835e-05,0
0.151,2.4002e-05,0
0.1515,2.0813e-05,0
0.152,1.7288e-05,0
0.1525,1.7624e-05,0
0.153,1.8631e-05,0
0.1535,2.0981e-05,0
0.154,2.1149e-05,0
0.1545,2.0981e-05,0
0.155,2.0478e-05,0
0.1555,1.8631e-05,0
0.156,1.796e-05,0
0.1565,1.796e-05,0
0.157,1.6449e-05,0
0.1575,1.561e-05,0
0.158,1.5778e-05,0
0.1585,1.7288e-05,0
0.159,1.7456e-05,0
0.1595,1.6785e-05,0
0.16,1.9638e-05,0
0.1605,2.2324e-05,0
0.161,1.9974e-05,0
0.1615,1.561e-05,0
0.162,1.326e-05,0
0.1625,1.3596e-05,0
0.163,1.5274e-05,0
0.1635,1.6449e-05,0
0.164,1.8128e-05,0
0.1645,1.9303e-05,0
0.165,2.031e-05,0
0.1655,1.9135e-05,0
0.166,1.7624e-05,0
0.1665,1.796e-05,0
0.167,1.7792e-05,0
0.1675,1.6449e-05,0
0.168,1.6281e-05,0
0.1685,1.6449e-05,0
0.169,1.561e-05,0
0.1695,1.5946e-05,0
0.17,1.561e-05,0
0.1705,1.4267e-05,0
0.171,1.3092e-05,0
0.1715,1.326e-05,0
0.172,1.3092e-05,0
0.1725,1.2253e-05,0
0.173,1.3596e-05,0
0.1735,1.561e-05,0
0.174,1.6785e-05,0
0.1745,1.6953e-05,0
0.175,1.7121e-05,0
0.1755,1.6953e-05,0
0.176,1.7288e-05,0
0.1765,1.8631e-05,0
0.177,2.1317e-05,0
0.1775,2.4506e-05,0
0.178,2.6352e-05,0
0.1785,2.5345e-05,0
0.179,2.2995e-05,0
0.1795,2.266e-05,0
0.18,2.4338e-05,0
0.1805,2.5345e-05,0
0.181,2.3331e-05,0
0.1815,2.1317e-05,0
0.182,2.1653e-05,0
0.1825,2.1988e-05,0
0.183,2.3331e-05,0
0.1835,2.3331e-05,0
0.184,2.2492e-05,0
0.1845,2.1988e-05,0
0.185,2.3331e-05,0
0.1855,2.3667e-05,0
0.186,2.2995e-05,0
0.1865,2.182e-05,0
0.187,2.1149e-05,0
0.1875,1.9974e-05,0
0.188,1.8967e-05,0
0.1885,1.7456e-05,0
0.189,1.9135e-05,0
0.1895,2.1317e-05,0
0.19,1.9974e-05,0
0.1905,1.8296e-05,0
0.191,1.8128e-05,0
0.1915,1.8631e-05,0
0.192,1.796e-05,0
0.1925,1.7288e-05,0
0.193,1.6114e-05,0
0.1935,1.5274e-05,0
0.194,1.561e-05,0
0.1945,1.5946e-05,0
0.195,1.5778e-05,0
0.1955,1.5778e-05,0
0.196,1.5946e-05,0
0.1965,1.6617e-05,0
0.197,1.5442e-05,0
0.1975,1.6281e-05,0
0.198,1.7624e-05,0
0.1985,1.9974e-05,0
0.199,2.1988e-05,0
0.1995,2.1988e-05,0
0.2,2.031e-05,0
0.2005,1.9806e-05,0
0.201,1.947e-05,0
0.2015,1.9974e-05,0
0.202,1.8631e-05,0
0.2025,1.8967e-05,0
0.203,2.0478e-05,0
0.2035,2.031e-05,0
0.204,1.9638e-05,0
0.2045,1.9806e-05,0
0.205,2.2492e-05,0
0.2055,2.4842e-05,0
0.206,2.4002e-05,0
0.2065,2.1988e-05,0
0.207,2.2324e-05,0
0.2075,2.3331e-05,0
0.208,2.266e-05,0
0.2085,2.1317e-05,0
0.209,2.0646e-05,0
0.2095,1.9974e-05,0
0.21,1.947e-05,0
0.2105,1.9303e-05,0
0.211,1.9135e-05,0
0.2115,1.796e-05,0
0.212,1.6617e-05,0
0.2125,1.6114e-05,0
0.213,1.6953e-05,0
0.2135,1.7456e-05,0
0.214,1.8463e-05,0
0.2145,1.9806e-05,0
0.215,2.1317e-05,0
0.2155,2.0981e-05,0
0.216,1.7792e-05,0
0.2165,1.5274e-05,0
0.217,1.5274e-05,0
0.2175,1.4603e-05,0
0.218,1.2589e-05,0
0.2185,1.2253e-05,0
0.219,1.4603e-05,0
0.2195,1.6281e-05,0
0.22,1.5946e-05,0
0.2205,1.5946e-05,0
0.221,1.7288e-05,0
0.2215,1.7624e-05,0
0.222,1.7624e-05,0
0.2225,1.6449e-05,0
0.223,1.3596e-05,0
0.2235,1.3932e-05,0
0.224,1.5946e-05,0
0.2245,1.6953e-05,0
0.225,1.8967e-05,0
0.2255,2.0981e-05,0
0.226,2.0646e-05,0
0.2265,1.947e-05,0
0.227,1.7288e-05,0
0.2275,1.6449e-05,0
0.228,1.7288e-05,0
0.2285,1.9974e-05,0
0.229,2.182e-05,0
0.2295,2.0981e-05,0
0.23,1.9303e-05,0
0.2305,1.8967e-05,0
0.231,1.9974e-05,0
0.2315,2.2324e-05,0
0.232,2.4002e-05,0
0.2325,2.2828e-05,0
0.233,2.0813e-05,0
0.2335,2.182e-05,0
0.234,2.4506e-05,0
0.2345,2.5177e-05,0
0.235,2.4338e-05,0
0.2355,2.3163e-05,0
0.236,2.1317e-05,0
0.2365,2.1317e-05,0
0.237,2.1317e-05,0
0.2375,1.947e-05,0
0.238,1.8296e-05,0
0.2385,1.796e-05,0
0.239,1.8631e-05,0
0.2395,2.2324e-05,0
0.24,2.4002e-05,0
0.2405,2.2492e-05,0
0.241,2.1317e-05,0
0.2415,2.1988e-05,0
0.242,2.3667e-05,0
0.2425,2.5345e-05,0
0.243,2.5009e-05,0
0.2435,2.3331e-05,0
0.244,2.2324e-05,0
0.2445,2.182e-05,0
0.245,2.1149e-05,0
0.2455,1.9638e-05,0
0.246,1.8296e-05,0
0.2465,1.7624e-05,0
0.247,1.5442e-05,0
0.2475,1.2421e-05,0
0.248,1.1078e-05,0
0.2485,1.091e-05,0
0.249,1.1582e-05,0
0.2495,1.1917e-05,0
0.25,1.2253e-05,0
0.2505,1.3764e-05,0
0.251,1.7121e-05,0
0.2515,1.8296e-05,0
0.252,1.9303e-05,0
0.2525,2.1317e-05,0
0.253,2.266e-05,0
0.2535,2.2324e-05,0
0.254,2.2995e-05,0
0.2545,2.4002e-05,0
0.255,2.3835e-05,0
0.2555,2.2492e-05,0
0.256,2.2156e-05,0
0.2565,2.0981e-05,0
0.257,1.9303e-05,0
0.2575,1.8631e-05,0
0.258,1.8967e-05,0
0.2585,1.7288e-05,0
0.259,1.5778e-05,0
0.2595,1.6449e-05,0
0.26,1.796e-05,0
0.2605,1.8631e-05,0
0.261,1.796e-05,0
0.2615,1.796e-05,0
0.262,1.9638e-05,0
0.2625,2.1149e-05,0
0.263,1.8967e-05,0
0.2635,1.6449e-05,0
0.264,1.7121e-05,0
0.2645,1.8799e-05,0
0.265,1.9806e-05,0
0.2655,2.0646e-05,0
0.266,2.0478e-05,0
0.2665,1.9303e-05,0
0.267,1.9806e-05,0
0.2675,2.0981e-05,0
0.268,2.0646e-05,0
0.2685,1.8296e-05,0
0.269,1.6281e-05,0
0.2695,1.6281e-05,0
0.27,1.6953e-05,0
0.2705,1.8967e-05,0
0.271,1.9974e-05,0
0.2715,2.0646e-05,0
0.272,2.0646e-05,0
0.2725,2.0478e-05,0
0.273,2.0142e-05,0
0.2735,1.9135e-05,0
0.274,1.8296e-05,0
0.2745,1.8631e-05,0
0.275,1.9303e-05,0
0.2755,1.8631e-05,0
0.276,1.796e-05,0
0.2765,1.7792e-05,0
0.277,1.7288e-05,0
0.2775,1.6281e-05,0
0.278,1.5274e-05,0
0.2785,1.5106e-05,0
0.279,1.4435e-05,0
0.2795,1.5442e-05,0
0.28,1.7121e-05,0
0.2805,1.7121e-05,0
0.281,1.6281e-05,0
0.2815,1.6785e-05,0
0.282,1.9303e-05,0
0.2825,2.1317e-05,0
0.283,2.182e-05,0
0.2835,2.1317e-05,0
0.284,2.0478e-05,0
0.2845,1.9303e-05,0
0.285,1.9303e-05,0
0.2855,2.266e-05,0
0.286,2.7359e-05,0
0.2865,2.9374e-05,0
0.287,2.6688e-05,0
0.2875,2.3163e-05,0
0.288,1.9974e-05,0
0.2885,1.796e-05,0
0.289,1.8631e-05,0
0.2895,1.9303e-05,0
0.29,1.9974e-05,0
0.2905,1.8799e-05,0
0.291,1.6617e-05,0
0.2915,1.561e-05,0
0.292,1.6953e-05,0
0.2925,1.9135e-05,0
0.293,2.1317e-05,0
0.2935,2.1988e-05,0
0.294,2.0478e-05,0
0.2945,1.6617e-05,0
0.295,1.3932e-05,0
0.2955,1.3764e-05,0
0.296,1.4603e-05,0
0.2965,1.6449e-05,0
0.297,1.8296e-05,0
0.2975,1.8967e-05,0
0.298,1.7624e-05,0
0.2985,1.6617e-05,0
0.299,1.796e-05,0
0.2995,2.031e-05,0
0.3,2.0981e-05,0
0.3005,2.0813e-05,0
0.301,1.8967e-05,0
0.3015,1.7624e-05,0
0.302,1.5946e-05,0
0.3025,1.6114e-05,0
0.303,1.8799e-05,0
0.3035,2.1149e-05,0
0.304,2.0478e-05,0
0.3045,1.8967e-05,0
0.305,1.8128e-05,0
0.3055,1.7456e-05,0
0.306,1.8631e-05,0
0.3065,2.1988e-05,0
0.307,2.6352e-05,0
0.3075,2.8702e-05,0
0.308,2.9374e-05,0
0.3085,2.9877e-05,0
0.309,2.8367e-05,0
0.3095,2.6352e-05,0
0.31,2.5345e-05,0
0.3105,2.3667e-05,0
0.311,2.1988e-05,0
0.3115,2.1653e-05,0
0.312,2.2492e-05,0
0.3125,2.1988e-05,0
0.313,2.1317e-05,0
0.3135,2.266e-05,0
0.314,2.2324e-05,0
0.3145,2.031e-05,0
0.315,1.9303e-05,0
0.3155,1.8967e-05,0
0.316,1.9135e-05,0
0.3165,2.031e-05,0
0.317,1.9974e-05,0
0.3175,1.8631e-05,0
0.318,1.5946e-05,0
0.3185,1.3932e-05,0
0.319,1.2924e-05,0
0.3195,1.1917e-05,0
0.32,1.0575e-05,0
0.3205,1.2253e-05,0
0.321,1.3764e-05,0
0.3215,1.3596e-05,0
0.322,1.2757e-05,0
0.3225,1.4267e-05,0
0.323,1.8296e-05,0
0.3235,2.1149e-05,0
0.324,2.2156e-05,0
0.3245,2.2492e-05,0
0.325,2.3499e-05,0
0.3255,2.4002e-05,0
0.326,2.1653e-05,0
0.3265,1.6617e-05,0
0.327,1.3092e-05,0
0.3275,1.4435e-05,0
0.328,1.5946e-05,0
0.3285,1.5778e-05,0
0.329,1.4603e-05,0
0.3295,1.4603e-05,0
0.33,1.6785e-05,0
0.3305,2.1149e-05,0
0.331,2.1317e-05,0
0.3315,1.9638e-05,0
0.332,1.9974e-05,0
0.3325,2.3667e-05,0
0.333,2.6688e-05,0
0.3335,2.7695e-05,0
0.334,2.7527e-05,0
0.3345,2.6688e-05,0
0.335,2.5681e-05,0
0.3355,2.4506e-05,0
0.336,2.3331e-05,0
0.3365,2.3331e-05,0
0.337,2.2995e-05,0
0.3375,2.2492e-05,0
0.338,2.1317e-05,0
0.3385,2.1653e-05,0
0.339,2.1988e-05,0
0.3395,2.0646e-05,0
0.34,1.8967e-05,0
0.3405,1.6953e-05,0
0.341,1.6449e-05,0
0.3415,1.6281e-05,0
0.342,1.6953e-05,0
0.3425,1.7624e-05,0
0.343,1.561e-05,0
0.3435,1.4267e-05,0
0.344,1.3596e-05,0
0.3445,1.3764e-05,0
0.345,1.4099e-05,0
0.3455,1.4267e-05,0
0.346,1.4267e-05,0
0.3465,1.3932e-05,0
0.347,1.3932e-05,0
0.3475,1.5946e-05,0
0.348,1.6785e-05,0
0.3485,1.6449e-05,0
0.349,1.6953e-05,0
0.3495,1.7456e-05,0
0.35,1.5778e-05,0
0.3505,1.326e-05,0
0.351,1.091e-05,0
0.3515,9.2317e-06,0
0.352,9.5674e-06,0
0.3525,1.2253e-05,0
0.353,1.1917e-05,0
0.3535,1.2421e-05,0
0.354,1.5106e-05,0
0.3545,1.4435e-05,0
0.355,1.1917e-05,0
0.3555,1.1246e-05,0
0.356,1.2085e-05,0
0.3565,1.4267e-05,0
0.357,1.5274e-05,0
0.3575,1.5274e-05,0
0.358,1.7288e-05,0
0.3585,2.0646e-05,0
0.359,2.266e-05,0
0.3595,2.182e-05,0
0.36,1.9974e-05,0
0.3605,1.8799e-05,0
0.361,1.8631e-05,0
0.3615,1.9806e-05,0
0.362,2.1317e-05,0
0.3625,2.2995e-05,0
0.363,2.3835e-05,0
0.3635,2.4674e-05,0
0.364,2.5849e-05,0
0.3645,2.5345e-05,0
0.365,2.2995e-05,0
0.3655,2.1988e-05,0
0.366,2.0981e-05,0
0.3665,2.0142e-05,0
0.367,1.9974e-05,0
0.3675,1.9974e-05,0
0.368,2.1317e-05,0
0.3685,2.0646e-05,0
0.369,1.8296e-05,0
0.3695,1.796e-05,0
0.37,1.8967e-05,0
0.3705,2.0646e-05,0
0.371,2.182e-05,0
0.3715,2.031e-05,0
0.372,1.6617e-05,0
0.3725,1.5778e-05,0
0.373,1.7288e-05,0
0.3735,1.9974e-05,0
0.374,2.0142e-05,0
0.3745,1.8799e-05,0
0.375,1.6785e-05,0
0.3755,1.4603e-05,0
0.376,1.2421e-05,0
0.3765,1.0575e-05,0
0.377,1.1078e-05,0
0.3775,1.2924e-05,0
0.378,1.5106e-05,0
0.3785,1.7288e-05,0
0.379,1.8463e-05,0
0.3795,2.0646e-05,0
0.38,2.2156e-05,0
0.3805,2.266e-05,0
0.381,2.2995e-05,0
0.3815,2.2324e-05,0
0.382,1.9638e-05,0
0.3825,1.796e-05,0
0.383,1.8296e-05,0
0.3835,1.9135e-05,0
0.384,1.8967e-05,0
0.3845,1.8631e-05,0
0.385,1.7456e-05,0
0.3855,1.5274e-05,0
0.386,1.2421e-05,0
0.3865,1.1246e-05,0
0.387,1.4939e-05,0
0.3875,1.7288e-05,0
0.388,1.4603e-05,0
0.3885,9.0639e-06,0
0.389,8.896e-06,0
0.3895,1.4435e-05,0
0.39,2.0142e-05,0
0.3905,2.2324e-05,0
0.391,2.1988e-05,0
0.3915,2.2324e-05,0
0.392,2.1653e-05,0
0.3925,1.9806e-05,0
0.393,1.7792e-05,0
0.3935,1.5274e-05,0
0.394,1.4267e-05,0
0.3945,1.5274e-05,0
0.395,1.6281e-05,0
0.3955,1.9135e-05,0
0.396,2.3499e-05,0
0.3965,2.7527e-05,0
0.397,3.0045e-05,0
0.3975,2.7024e-05,0
0.398,2.3331e-05,0
0.3985,2.3667e-05,0
0.399,2.6688e-05,0
0.3995,2.6688e-05,0
0.4,2.5681e-05,0
0.4005,2.6017e-05,0
0.401,2.6017e-05,0
0.4015,2.5009e-05,0
0.402,2.3331e-05,0
0.4025,2.0646e-05,0
0.403,1.8296e-05,0
0.4035,1.6449e-05,0
0.404,1.4939e-05,0
0.4045,1.561e-05,0
0.405,1.8463e-05,0
0.4055,1.9974e-05,0
0.406,1.8631e-05,0
0.4065,1.7121e-05,0
0.407,1.5946e-05,0
0.4075,1.5106e-05,0
0.408,1.4603e-05,0
0.4085,1.7288e-05,0
0.409,1.9638e-05,0
0.4095,1.9974e-05,0
0.41,1.8631e-05,0
0.4105,1.7624e-05,0
0.411,1.8296e-05,0
0.4115,1.8631e-05,0
0.412,1.9638e-05,0
0.4125,2.0813e-05,0
0.413,2.2492e-05,0
0.4135,2.2324e-05,0
0.414,1.9806e-05,0
0.4145,1.7288e-05,0
0.415,1.6953e-05,0
0.4155,1.8128e-05,0
0.416,1.796e-05,0
0.4165,1.561e-05,0
0.417,1.326e-05,0
0.4175,1.4267e-05,0
0.418,1.6449e-05,0
0.4185,1.796e-05,0
0.419,1.9303e-05,0
0.4195,1.9974e-05,0
0.42,1.9303e-05,0
0.4205,1.8128e-05,0
0.421,1.9135e-05,0
0.4215,2.0981e-05,0
0.422,2.0981e-05,0
0.4225,2.0646e-05,0
0.423,2.0981e-05,0
0.4235,1.9638e-05,0
0.424,1.6617e-05,0
0.4245,1.6617e-05,0
0.425,1.7792e-05,0
0.4255,1.8631e-05,0
0.426,1.947e-05,0
0.4265,2.031e-05,0
0.427,2.1317e-05,0
0.4275,2.2995e-05,0
0.428,2.3499e-05,0
0.4285,2.266e-05,0
0.429,2.1988e-05,0
0.4295,2.266e-05,0
0.43,2.4338e-05,0
0.4305,2.6688e-05,0
0.431,2.7695e-05,0
0.4315,2.7695e-05,0
0.432,2.417e-05,0
0.4325,1.8296e-05,0
0.433,1.6449e-05,0
0.4335,1.9135e-05,0
0.434,2.2995e-05,0
0.4345,2.5177e-05,0
0.435,2.4002e-05,0
0.4355,2.1317e-05,0
0.436,2.0646e-05,0
0.4365,1.8967e-05,0
0.437,1.6785e-05,0
0.4375,1.6617e-05,0
0.438,1.6281e-05,0
0.4385,1.561e-05,0
0.439,1.6617e-05,0
0.4395,1.8296e-05,0
0.44,1.9135e-05,0
0.4405,1.9974e-05,0
0.441,2.0813e-05,0
0.4415,2.1317e-05,0
0.442,2.3499e-05,0
0.4425,2.4674e-05,0
0.443,2.3499e-05,0
0.4435,2.0646e-05,0
0.444,1.796e-05,0
0.4445,1.8631e-05,0
0.445,2.0142e-05,0
0.4455,1.9303e-05,0
0.446,1.8296e-05,0
0.4465,1.9135e-05,0
0.447,1.9303e-05,0
0.4475,2.031e-05,0
0.448,1.9135e-05,0
0.4485,1.5946e-05,0
0.449,1.326e-05,0
0.4495,1.326e-05,0
0.45,1.326e-05,0
0.4505,1.3428e-05,0
0.451,1.2589e-05,0
0.4515,1.2085e-05,0
0.452,1.2924e-05,0
0.4525,1.5274e-05,0
0.453,1.7121e-05,0
0.4535,1.8631e-05,0
0.454,1.7624e-05,0
0.4545,1.5274e-05,0
0.455,1.561e-05,0
0.4555,1.8463e-05,0
0.456,1.8631e-05,0
0.4565,1.8463e-05,0
0.457,1.8631e-05,0
0.4575,2.0646e-05,0
0.458,1.9638e-05,0
0.4585,1.7624e-05,0
0.459,1.5946e-05,0
0.4595,1.5274e-05,0
0.46,1.3596e-05,0
0.4605,1.3932e-05,0
0.461,1.5778e-05,0
0.4615,1.561e-05,0
0.462,1.561e-05,0
0.4625,1.6953e-05,0
0.463,1.6281e-05,0
0.4635,1.4267e-05,0
0.464,1.3932e-05,0
0.4645,1.561e-05,0
0.465,1.561e-05,0
0.4655,1.5274e-05,0
0.466,1.4603e-05,0
0.4665,1.561e-05,0
0.467,1.796e-05,0
0.4675,1.9638e-05,0
0.468,1.9135e-05,0
0.4685,1.8631e-05,0
0.469,1.947e-05,0
0.4695,2.0646e-05,0
0.47,2.031e-05,0
0.4705,1.9303e-05,0
0.471,1.9135e-05,0
0.4715,2.0981e-05,0
0.472,2.3499e-05,0
0.4725,2.5849e-05,0
0.473,2.8367e-05,0
0.4735,2.887e-05,0
0.474,2.8031e-05,0
0.4745,2.6688e-05,0
0.475,2.5345e-05,0
0.4755,2.6017e-05,0
0.476,2.5345e-05,0
0.4765,2.2156e-05,0
0.477,1.9974e-05,0
0.4775,1.9303e-05,0
0.478,1.796e-05,0
0.4785,1.8631e-05,0
0.479,2.266e-05,0
0.4795,2.7695e-05,0
0.48,2.7024e-05,0
0.4805,2.266e-05,0
0.481,1.9974e-05,0
0.4815,2.0646e-05,0
0.482,2.3163e-05,0
0.4825,2.3667e-05,0
0.483,2.1317e-05,0
0.4835,1.8967e-05,0
0.484,1.796e-05,0
0.4845,1.8296e-05,0
0.485,1.9638e-05,0
0.4855,2.0981e-05,0
0.486,2.0813e-05,0
0.4865,2.0478e-05,0
0.487,1.9974e-05,0
0.4875,1.7624e-05,0
0.488,1.6281e-05,0
0.4885,1.5946e-05,0
0.489,1.6617e-05,0
0.4895,1.6953e-05,0
0.49,1.5274e-05,0
0.4905,1.5106e-05,0
0.491,1.5946e-05,0
0.4915,1.4939e-05,0
0.492,1.4939e-05,0
0.4925,1.5946e-05,0
0.493,1.4603e-05,0
0.4935,1.4603e-05,0
0.494,1.5778e-05,0
0.4945,1.5274e-05,0
0.495,1.5442e-05,0
0.4955,1.8631e-05,0
0.496,2.2995e-05,0
0.4965,2.5177e-05,0
0.497,2.5345e-05,0
0.4975,2.4506e-05,0
0.498,2.4002e-05,0
0.4985,2.4002e-05,0
0.499,2.4842e-05,0
0.4995,2.4002e-05,0
0.5,2.266e-05,0
0.5005,2.5009e-05,0
0.501,2.7695e-05,0
0.5015,2.9709e-05,0
0.502,2.8702e-05,0
0.5025,2.5681e-05,0
0.503,2.3163e-05,0
0.5035,2.1149e-05,0
0.504,1.8463e-05,0
0.5045,1.7288e-05,0
0.505,1.8128e-05,0
0.5055,1.8967e-05,0
0.506,1.8296e-05,0
0.5065,1.6281e-05,0
0.507,1.5778e-05,0
0.5075,1.5778e-05,0
0.508,1.5946e-05,0
0.5085,1.5778e-05,0
0.509,1.4267e-05,0
0.5095,1.3764e-05,0
0.51,1.2924e-05,0
0.5105,1.1414e-05,0
0.511,1.326e-05,0
0.5115,1.561e-05,0
0.512,1.5274e-05,0
0.5125,1.3932e-05,0
0.513,1.3932e-05,0
0.5135,1.3764e-05,0
0.514,1.3932e-05,0
0.5145,1.5442e-05,0
0.515,1.6281e-05,0
0.5155,1.5442e-05,0
0.516,1.3932e-05,0
0.5165,1.4099e-05,0
0.517,1.6281e-05,0
0.5175,1.7624e-05,0
0.518,1.8631e-05,0
0.5185,1.9638e-05,0
0.519,1.8631e-05,0
0.5195,1.6953e-05,0
0.52,1.6114e-05,0
0.5205,1.5946e-05,0
0.521,1.5778e-05,0
0.5215,1.5778e-05,0
0.522,1.6449e-05,0
0.5225,1.8296e-05,0
0.523,1.8296e-05,0
0.5235,1.796e-05,0
0.524,1.8296e-05,0
0.5245,1.8631e-05,0
0.525,1.8967e-05,0
0.5255,1.9974e-05,0
0.526,2.0142e-05,0
0.5265,1.8128e-05,0
0.527,1.7288e-05,0
0.5275,1.8128e-05,0
0.528,1.9974e-05,0
0.5285,2.1149e-05,0
0.529,2.1149e-05,0
0.5295,2.1317e-05,0
0.53,2.2995e-05,0
0.5305,2.4338e-05,0
0.531,2.2324e-05,0
0.5315,1.9303e-05,0
0.532,1.8296e-05,0
0.5325,1.9303e-05,0
0.533,1.9303e-05,0
0.5335,1.9303e-05,0
0.534,1.9638e-05,0
0.5345,1.796e-05,0
0.535,1.5946e-05,0
0.5355,1.8296e-05,0
0.536,2.0478e-05,0
0.5365,2.0646e-05,0
0.537,2.0646e-05,0
0.5375,2.1988e-05,0
0.538,2.2995e-05,0
0.5385,2.3163e-05,0
0.539,2.2995e-05,0
0.5395,2.3331e-05,0
0.54,2.4506e-05,0
0.5405,2.6017e-05,0
0.541,2.7359e-05,0
0.5415,2.6352e-05,0
0.542,2.4674e-05,0
0.5425,2.2995e-05,0
0.543,2.266e-05,0
0.5435,2.0981e-05,0
0.544,1.8296e-05,0
0.5445,1.7288e-05,0
0.545,1.7456e-05,0
0.5455,1.796e-05,0
0.546,1.8631e-05,0
0.5465,1.8128e-05,0
0.547,1.7624e-05,0
0.5475,1.6953e-05,0
0.548,1.5442e-05,0
0.5485,1.4939e-05,0
0.549,1.6281e-05,0
0.5495,1.7792e-05,0
0.55,1.7288e-05,0
0.5505,1.3932e-05,0
0.551,1.326e-05,0
0.5515,1.4939e-05,0
0.552,1.561e-05,0
0.5525,1.561e-05,0
0.553,1.6617e-05,0
0.5535,1.6953e-05,0
0.554,1.5274e-05,0
0.5545,1.4603e-05,0
0.555,1.5946e-05,0
0.5555,1.8631e-05,0
0.556,2.1317e-05,0
0.5565,2.2492e-05,0
0.557,2.2492e-05,0
0.5575,2.182e-05,0
0.558,2.1653e-05,0
0.5585,2.1317e-05,0
0.559,2.0478e-05,0
0.5595,2.1317e-05,0
0.56,2.4002e-05,0
0.5605,2.4674e-05,0
0.561,2.3163e-05,0
0.5615,2.1149e-05,0
0.562,2.031e-05,0
0.5625,1.8967e-05,0
0.563,1.6617e-05,0
0.5635,1.4603e-05,0
0.564,1.3596e-05,0
0.5645,1.3596e-05,0
0.565,1.3932e-05,0
0.5655,1.4603e-05,0
0.566,1.6281e-05,0
0.5665,1.7456e-05,0
0.567,1.8631e-05,0
0.5675,1.9806e-05,0
0.568,2.1317e-05,0
0.5685,2.0981e-05,0
0.569,1.796e-05,0
0.5695,1.7121e-05,0
0.57,1.8967e-05,0
0.5705,2.2324e-05,0
0.571,2.3331e-05,0
0.5715,2.2156e-05,0
0.572,2.1988e-05,0
0.5725,2.0142e-05,0
0.573,1.796e-05,0
0.5735,1.7288e-05,0
0.574,1.8631e-05,0
0.5745,2.0646e-05,0
0.575,2.031e-05,0
0.5755,1.9638e-05,0
0.576,1.8967e-05,0
0.5765,1.6953e-05,0
0.577,1.4939e-05,0
0.5775,1.6449e-05,0
0.578,1.8631e-05,0
0.5785,1.796e-05,0
0.579,1.5778e-05,0
0.5795,1.561e-05,0
0.58,1.7121e-05,0
0.5805,1.7624e-05,0
0.581,1.6953e-05,0
0.5815,1.7624e-05,0
0.582,1.8631e-05,0
0.5825,1.8631e-05,0
0.583,1.8296e-05,0
0.5835,1.8967e-05,0
0.584,1.9303e-05,0
0.5845,1.9638e-05,0
0.585,1.9974e-05,0
0.5855,1.947e-05,0
0.586,2.0981e-05,0
0.5865,2.0646e-05,0
0.587,1.6953e-05,0
0.5875,1.561e-05,0
0.588,1.6953e-05,0
0.5885,1.7792e-05,0
0.589,1.6281e-05,0
0.5895,1.326e-05,0
0.59,1.2924e-05,0
0.5905,1.5106e-05,0
0.591,1.796e-05,0
0.5915,1.9303e-05,0
0.592,2.0478e-05,0
0.5925,2.1149e-05,0
0.593,2.1317e-05,0
0.5935,2.182e-05,0
0.594,2.182e-05,0
0.5945,2.0142e-05,0
0.595,1.9135e-05,0
0.5955,2.031e-05,0
0.596,2.0981e-05,0
0.5965,2.0981e-05,0
0.597,2.1317e-05,0
0.5975,2.3163e-05,0
0.598,2.4338e-05,0
0.5985,2.266e-05,0
0.599,2.1988e-05,0
0.5995,2.2995e-05,0
0.6,2.3667e-05,0
0.6005,2.4842e-05,0
0.601,2.5681e-05,0
0.6015,2.5009e-05,0
0.602,2.1988e-05,0
0.6025,2.0646e-05,0
0.603,2.0981e-05,0
0.6035,2.1317e-05,0
0.604,2.1317e-05,0
0.6045,2.1317e-05,0
0.605,2.0981e-05,0
0.6055,1.8967e-05,0
0.606,1.5946e-05,0
0.6065,1.4939e-05,0
0.607,1.561e-05,0
0.6075,1.5946e-05,0
0.608,1.5778e-05,0
0.6085,1.5274e-05,0
0.609,1.561e-05,0
0.6095,1.6449e-05,0
0.61,1.7288e-05,0
0.6105,1.7456e-05,0
0.611,1.8296e-05,0
0.6115,1.947e-05,0
0.612,1.9974e-05,0
0.6125,1.9974e-05,0
0.613,1.6953e-05,0
0.6135,1.1917e-05,0
0.614,9.5674e-06,0
0.6145,1.0239e-05,0
0.615,1.2253e-05,0
0.6155,1.3596e-05,0
0.616,1.5106e-05,0
0.6165,1.5106e-05,0
0.617,1.5274e-05,0
0.6175,1.5946e-05,0
0.618,1.7288e-05,0
0.6185,1.8463e-05,0
0.619,1.8631e-05,0
0.6195,1.8967e-05,0
0.62,1.8967e-05,0
0.6205,1.8296e-05,0
0.621,1.7624e-05,0
0.6215,1.8631e-05,0
0.622,2.0478e-05,0
0.6225,2.0646e-05,0
0.623,2.0478e-05,0
0.6235,2.1149e-05,0
0.624,2.1317e-05,0
0.6245,2.1317e-05,0
0.625,2.0646e-05,0
0.6255,1.9638e-05,0
0.626,1.8631e-05,0
0.6265,1.9638e-05,0
0.627,1.9806e-05,0
0.6275,1.796e-05,0
0.628,1.7288e-05,0
0.6285,1.8631e-05,0
0.629,1.9638e-05,0
0.6295,2.1149e-05,0
0.63,2.0981e-05,0
0.6305,1.9638e-05,0
0.631,1.8296e-05,0
0.6315,1.796e-05,0
0.632,1.8128e-05,0
0.6325,1.8631e-05,0
0.633,2.0646e-05,0
0.6335,2.2828e-05,0
0.634,2.3163e-05,0
0.6345,2.3163e-05,0
0.635,2.266e-05,0
0.6355,2.1317e-05,0
0.636,1.947e-05,0
0.6365,1.8463e-05,0
0.637,1.9135e-05,0
0.6375,2.1317e-05,0
0.638,2.0478e-05,0
0.6385,2.0142e-05,0
0.639,2.2995e-05,0
0.6395,2.3667e-05,0
0.64,2.1149e-05,0
0.6405,2.0813e-05,0
0.641,2.2492e-05,0
0.6415,2.182e-05,0
0.642,1.8967e-05,0
0.6425,1.6617e-05,0
0.643,1.5946e-05,0
0.6435,1.5946e-05,0
0.644,1.561e-05,0
0.6445,1.5946e-05,0
0.645,1.796e-05,0
0.6455,1.8967e-05,0
0.646,1.947e-05,0
0.6465,2.1317e-05,0
0.647,2.2995e-05,0
0.6475,2.2995e-05,0
0.648,2.4002e-05,0
0.6485,2.4002e-05,0
0.649,2.3667e-05,0
0.6495,2.2324e-05,0
0.65,2.0142e-05,0
0.6505,1.9135e-05,0
0.651,1.9638e-05,0
0.6515,1.8463e-05,0
0.652,1.6617e-05,0
0.6525,1.5946e-05,0
0.653,1.6617e-05,0
0.6535,1.7792e-05,0
0.654,1.8296e-05,0
0.6545,1.7624e-05,0
0.655,1.7624e-05,0
0.6555,1.796e-05,0
0.656,1.5946e-05,0
0.6565,1.4267e-05,0
0.657,1.5274e-05,0
0.6575,1.6617e-05,0
0.658,1.4603e-05,0
0.6585,1.1246e-05,0
0.659,1.1246e-05,0
0.6595,1.2421e-05,0
0.66,1.2253e-05,0
0.6605,1.1917e-05,0
0.661,1.1582e-05,0
0.6615,1.2589e-05,0
0.662,1.4603e-05,0
0.6625,1.7288e-05,0
0.663,1.9806e-05,0
0.6635,2.182e-05,0
0.664,2.2324e-05,0
0.6645,2.2156e-05,0
0.665,2.0981e-05,0
0.6655,2.1317e-05,0
0.666,2.3331e-05,0
0.6665,2.182e-05,0
0.667,1.8631e-05,0
0.6675,1.6617e-05,0
0.668,1.7792e-05,0
0.6685,2.0142e-05,0
0.669,2.0646e-05,0
0.6695,2.1988e-05,0
0.67,2.4002e-05,0
0.6705,2.4002e-05,0
0.671,2.1988e-05,0
0.6715,1.9806e-05,0
0.672,1.8296e-05,0
0.6725,1.796e-05,0
0.673,1.8128e-05,0
0.6735,1.9135e-05,0
0.674,1.9135e-05,0
0.6745,1.8967e-05,0
0.675,1.8296e-05,0
0.6755,1.7288e-05,0
0.676,1.7792e-05,0
0.6765,1.796e-05,0
0.677,1.8296e-05,0
0.6775,1.796e-05,0
0.678,1.6953e-05,0
0.6785,1.5442e-05,0
0.679,1.4267e-05,0
0.6795,1.4939e-05,0
0.68,1.6785e-05,0
0.6805,1.9303e-05,0
0.681,1.9303e-05,0
0.6815,1.8631e-05,0
0.682,1.8128e-05,0
0.6825,1.796e-05,0
0.683,1.9974e-05,0
0.6835,2.3835e-05,0
0.684,2.5345e-05,0
0.6845,2.5177e-05,0
0.685,2.3667e-05,0
0.6855,2.266e-05,0
0.686,2.266e-05,0
0.6865,2.182e-05,0
0.687,1.947e-05,0
0.6875,1.8296e-05,0
0.688,1.8967e-05,0
0.6885,1.9638e-05,0
0.689,1.9638e-05,0
0.6895,1.947e-05,0
0.69,1.9974e-05,0
0.6905,2.0646e-05,0
0.691,2.0813e-05,0
0.6915,2.1317e-05,0
0.692,2.0981e-05,0
0.6925,2.0646e-05,0
0.693,2.0478e-05,0
0.6935,1.9806e-05,0
0.694,1.7121e-05,0
0.6945,1.5106e-05,0
0.695,1.6617e-05,0
0.6955,1.8631e-05,0
0.696,1.9135e-05,0
0.6965,1.8967e-05,0
0.697,1.9638e-05,0
0.6975,1.9974e-05,0
0.698,1.9806e-05,0
0.6985,2.031e-05,0
0.699,2.0981e-05,0
0.6995,1.9638e-05,0
0.7,1.8631e-05,0
0.7005,1.8296e-05,0
0.701,1.7288e-05,0
0.7015,1.6449e-05,0
0.702,1.5274e-05,0
0.7025,1.5274e-05,0
0.703,1.4939e-05,0
0.7035,1.5442e-05,0
0.704,1.4939e-05,0
0.7045,1.4939e-05,0
0.705,1.4603e-05,0
0.7055,1.5778e-05,0
0.706,2.0981e-05,0
0.7065,2.5345e-05,0
0.707,2.5345e-05,0
0.7075,2.3835e-05,0
0.708,2.3331e-05,0
0.7085,2.3331e-05,0
0.709,2.1653e-05,0
0.7095,2.031e-05,0
0.71,2.0646e-05,0
0.7105,2.0813e-05,0
0.711,2.0646e-05,0
0.7115,2.182e-05,0
0.712,2.1317e-05,0
0.7125,1.8967e-05,0
0.713,1.5274e-05,0
0.7135,1.4939e-05,0
0.714,1.7792e-05,0
0.7145,1.9974e-05,0
0.715,2.0646e-05,0
0.7155,1.9806e-05,0
0.716,1.8296e-05,0
0.7165,1.8799e-05,0
0.717,1.9638e-05,0
0.7175,1.9638e-05,0
0.718,1.8128e-05,0
0.7185,1.7288e-05,0
0.719,1.7624e-05,0
0.7195,1.7288e-05,0
0.72,1.5946e-05,0
0.7205,1.561e-05,0
0.721,1.6785e-05,0
0.7215,1.8296e-05,0
0.722,1.9638e-05,0
0.7225,2.1149e-05,0
0.723,2.182e-05,0
0.7235,2.0813e-05,0
0.724,1.7792e-05,0
0.7245,1.5946e-05,0
0.725,1.561e-05,0
0.7255,1.5946e-05,0
0.726,1.561e-05,0
0.7265,1.3932e-05,0
0.727,1.3932e-05,0
0.7275,1.4771e-05,0
0.728,1.5778e-05,0
0.7285,1.5946e-05,0
0.729,1.6617e-05,0
0.7295,2.1149e-05,0
0.73,2.6352e-05,0
0.7305,2.7527e-05,0
0.731,2.6688e-05,0
0.7315,2.652e-05,0
0.732,2.8031e-05,0
0.7325,2.8702e-05,0
0.733,2.8702e-05,0
0.7335,2.652e-05,0
0.734,2.1988e-05,0
0.7345,2.0478e-05,0
0.735,2.182e-05,0
0.7355,2.1317e-05,0
0.736,1.9806e-05,0
0.7365,1.9135e-05,0
0.737,1.8128e-05,0
0.7375,1.6617e-05,0
0.738,1.5946e-05,0
0.7385,1.7288e-05,0
0.739,1.9303e-05,0
0.7395,1.9303e-05,0
0.74,1.7288e-05,0
0.7405,1.5442e-05,0
0.741,1.4603e-05,0
0.7415,1.4939e-05,0
0.742,1.6281e-05,0
0.7425,1.7288e-05,0
0.743,1.8128e-05,0
0.7435,1.8967e-05,0
0.744,1.8967e-05,0
0.7445,1.9638e-05,0
0.745,1.9303e-05,0
0.7455,1.8296e-05,0
0.746,1.7121e-05,0
0.7465,1.4603e-05,0
0.747,1.2253e-05,0
0.7475,1.1917e-05,0
0.748,1.2253e-05,0
0.7485,1.2924e-05,0
0.749,1.2589e-05,0
0.7495,1.1582e-05,0
0.75,1.1246e-05,0
0.7505,1.1246e-05,0
0.751,1.2253e-05,0
0.7515,1.3596e-05,0
0.752,1.4603e-05,0
0.7525,1.4267e-05,0
0.753,1.4267e-05,0
0.7535,1.5106e-05,0
0.754,1.796e-05,0
0.7545,2.0646e-05,0
0.755,2.0813e-05,0
0.7555,1.9303e-05,0
0.756,1.8296e-05,0
0.7565,1.9806e-05,0
0.757,2.182e-05,0
0.7575,2.2995e-05,0
0.758,2.4002e-05,0
0.7585,2.5177e-05,0
0.759,2.5009e-05,0
0.7595,2.4674e-05,0
0.76,2.2995e-05,0
0.7605,2.1317e-05,0
0.761,2.1317e-05,0
0.7615,2.2995e-05,0
0.762,2.4674e-05,0
0.7625,2.5345e-05,0
0.763,2.5345e-05,0
0.7635,2.5849e-05,0
0.764,2.6688e-05,0
0.7645,2.5849e-05,0
0.765,2.3331e-05,0
0.7655,1.9974e-05,0
0.766,1.9974e-05,0
0.7665,2.1988e-05,0
0.767,2.2324e-05,0
0.7675,1.947e-05,0
0.768,1.7624e-05,0
0.7685,1.7624e-05,0
0.769,1.8631e-05,0
0.7695,1.8631e-05,0
0.77,1.5946e-05,0
0.7705,1.2421e-05,0
0.771,1.0239e-05,0
0.7715,1.0575e-05,0
0.772,1.3932e-05,0
0.7725,1.7288e-05,0
0.773,1.5946e-05,0
0.7735,1.2589e-05,0
0.774,1.1582e-05,0
0.7745,1.4267e-05,0
0.775,1.8296e-05,0
0.7755,1.7288e-05,0
0.776,1.4939e-05,0
0.7765,1.4435e-05,0
0.777,1.6617e-05,0
0.7775,1.6617e-05,0
0.778,1.5778e-05,0
0.7785,1.6281e-05,0
0.779,1.6953e-05,0
0.7795,1.796e-05,0
0.78,1.796e-05,0
0.7805,1.6281e-05,0
0.781,1.3596e-05,0
0.7815,1.1582e-05,0
0.782,1.3764e-05,0
0.7825,1.8296e-05,0
0.783,1.9974e-05,0
0.7835,2.0478e-05,0
0.784,2.3331e-05,0
0.7845,2.7863e-05,0
0.785,3.0213e-05,0
0.7855,2.7695e-05,0
0.786,2.2324e-05,0
0.7865,1.8631e-05,0
0.787,1.796e-05,0
0.7875,2.0646e-05,0
0.788,2.3163e-05,0
0.7885,2.4674e-05,0
0.789,2.5345e-05,0
0.7895,2.3835e-05,0
0.79,2.182e-05,0
0.7905,2.0646e-05,0
0.791,2.1988e-05,0
0.7915,2.5009e-05,0
0.792,2.5177e-05,0
0.7925,2.266e-05,0
0.793,2.3667e-05,0
0.7935,2.4674e-05,0
0.794,2.1653e-05,0
0.7945,1.7624e-05,0
0.795,1.5946e-05,0
0.7955,1.7624e-05,0
0.796,1.7288e-05,0
0.7965,1.4603e-05,0
0.797,1.4435e-05,0
0.7975,1.561e-05,0
0.798,1.561e-05,0
0.7985,1.5106e-05,0
0.799,1.561e-05,0
0.7995,1.5946e-05,0
0.8,1.6449e-05,0
0.8005,1.7456e-05,0
0.801,2.0142e-05,0
0.8015,2.0981e-05,0
0.802,2.1149e-05,0
0.8025,2.1317e-05,0
0.803,2.1317e-05,0
0.8035,2.1317e-05,0
0.804,2.1149e-05,0
0.8045,2.0478e-05,0
0.805,2.0981e-05,0
0.8055,2.2492e-05,0
0.806,2.266e-05,0
0.8065,1.9638e-05,0
0.807,1.796e-05,0
0.8075,1.947e-05,0
0.808,2.2324e-05,0
0.8085,2.4002e-05,0
0.809,2.2156e-05,0
0.8095,1.9974e-05,0
0.81,2.0142e-05,0
0.8105,2.1988e-05,0
0.811,2.182e-05,0
0.8115,2.1317e-05,0
0.812,2.0478e-05,0
0.8125,2.1317e-05,0
0.813,2.4002e-05,0
0.8135,2.4002e-05,0
0.814,2.2995e-05,0
0.8145,2.182e-05,0
0.815,2.031e-05,0
0.8155,1.9806e-05,0
0.816,1.9974e-05,0
0.8165,1.9303e-05,0
0.817,1.7288e-05,0
0.8175,1.5442e-05,0
0.818,1.4603e-05,0
0.8185,1.4267e-05,0
0.819,1.4099e-05,0
0.8195,1.4603e-05,0
0.82,1.5946e-05,0
0.8205,1.6953e-05,0
0.821,1.6281e-05,0
0.8215,1.8631e-05,0
0.822,2.1653e-05,0
0.8225,2.4338e-05,0
0.823,2.6688e-05,0
0.8235,2.7695e-05,0
0.824,2.8367e-05,0
0.8245,2.9206e-05,0
0.825,2.6688e-05,0
0.8255,2.2995e-05,0
0.826,2.1653e-05,0
0.8265,2.182e-05,0
0.827,2.1317e-05,0
0.8275,1.9974e-05,0
0.828,1.8967e-05,0
0.8285,1.5778e-05,0
0.829,1.2924e-05,0
0.8295,1.2589e-05,0
0.83,1.2924e-05,0
0.8305,1.2253e-05,0
0.831,1.2589e-05,0
0.8315,1.2421e-05,0
0.832,1.1414e-05,0
0.8325,1.1246e-05,0
0.833,1.3428e-05,0
0.8335,1.4771e-05,0
0.834,1.3596e-05,0
0.8345,1.3596e-05,0
0.835,1.561e-05,0
0.8355,1.6449e-05,0
0.836,1.4603e-05,0
0.8365,1.2589e-05,0
0.837,1.3932e-05,0
0.8375,1.6449e-05,0
0.838,1.7121e-05,0
0.8385,1.7624e-05,0
0.839,2.0646e-05,0
0.8395,2.266e-05,0
0.84,2.1317e-05,0
0.8405,2.1988e-05,0
0.841,2.266e-05,0
0.8415,2.1653e-05,0
0.842,1.8967e-05,0
0.8425,1.6617e-05,0
0.843,1.5946e-05,0
0.8435,1.8631e-05,0
0.844,2.0646e-05,0
0.8445,2.031e-05,0
0.845,1.9974e-05,0
0.8455,1.9638e-05,0
0.846,1.8631e-05,0
0.8465,1.8128e-05,0
0.847,1.6953e-05,0
0.8475,1.6953e-05,0
0.848,1.7121e-05,0
0.8485,1.7288e-05,0
0.849,1.7288e-05,0
0.8495,1.7288e-05,0
0.85,1.6617e-05,0
0.8505,1.7288e-05,0
0.851,1.6953e-05,0
0.8515,1.6953e-05,0
0.852,1.796e-05,0
0.8525,1.9974e-05,0
0.853,2.1317e-05,0
0.8535,2.0646e-05,0
0.854,1.8631e-05,0
0.8545,1.7624e-05,0
0.855,1.8463e-05,0
0.8555,1.947e-05,0
0.856,2.031e-05,0
0.8565,1.9303e-05,0
0.857,1.6785e-05,0
0.8575,1.5946e-05,0
0.858,1.6281e-05,0
0.8585,1.5778e-05,0
0.859,1.4939e-05,0
0.8595,1.561e-05,0
0.86,1.6785e-05,0
0.8605,1.6617e-05,0
0.861,1.5274e-05,0
0.8615,1.5106e-05,0
0.862,1.561e-05,0
0.8625,1.4771e-05,0
0.863,1.3092e-05,0
0.8635,1.2757e-05,0
0.864,1.3428e-05,0
0.8645,1.4267e-05,0
0.865,1.5946e-05,0
0.8655,1.9303e-05,0
0.866,2.0981e-05,0
0.8665,2.1988e-05,0
0.867,2.182e-05,0
0.8675,2.1988e-05,0
0.868,2.3331e-05,0
0.8685,2.3331e-05,0
0.869,2.3331e-05,0
0.8695,2.266e-05,0
0.87,2.2492e-05,0
0.8705,2.1317e-05,0
0.871,1.9806e-05,0
0.8715,1.796e-05,0
0.872,1.6785e-05,0
0.8725,1.4771e-05,0
0.873,1.2924e-05,0
0.8735,1.2589e-05,0
0.874,1.3092e-05,0
0.8745,1.326e-05,0
0.875,1.3764e-05,0
0.8755,1.561e-05,0
0.876,1.7456e-05,0
0.8765,1.8631e-05,0
0.877,1.9974e-05,0
0.8775,2.3331e-05,0
0.878,2.7359e-05,0
0.8785,2.887e-05,0
0.879,2.8702e-05,0
0.8795,2.7192e-05,0
0.88,2.6017e-05,0
0.8805,2.6017e-05,0
0.881,2.5345e-05,0
0.8815,2.4674e-05,0
0.882,2.3499e-05,0
0.8825,2.2492e-05,0
0.883,1.947e-05,0
0.8835,1.7624e-05,0
0.884,1.796e-05,0
0.8845,1.9974e-05,0
0.885,2.3499e-05,0
0.8855,2.5681e-05,0
0.886,2.3163e-05,0
0.8865,2.031e-05,0
0.887,2.031e-05,0
0.8875,1.9974e-05,0
0.888,1.9974e-05,0
0.8885,1.8967e-05,0
0.889,1.7624e-05,0
0.8895,1.7792e-05,0
0.89,1.6785e-05,0
0.8905,1.5946e-05,0
0.891,1.8631e-05,0
0.8915,2.031e-05,0
0.892,2.0646e-05,0
0.8925,1.9974e-05,0
0.893,1.9638e-05,0
0.8935,2.1988e-05,0
0.894,2.3499e-05,0
0.8945,2.3331e-05,0
0.895,2.1317e-05,0
0.8955,1.8463e-05,0
0.896,1.7288e-05,0
0.8965,1.9806e-05,0
0.897,1.9974e-05,0
0.8975,1.7121e-05,0
0.898,1.561e-05,0
0.8985,1.561e-05,0
0.899,1.5946e-05,0
0.8995,1.5946e-05,0
0.9,1.3932e-05,0
0.9005,1.326e-05,0
0.901,1.4939e-05,0
0.9015,1.6449e-05,0
0.902,1.796e-05,0
0.9025,1.8631e-05,0
0.903,1.8463e-05,0
0.9035,1.796e-05,0
0.904,1.8296e-05,0
0.9045,1.7624e-05,0
0.905,1.8296e-05,0
0.9055,1.9974e-05,0
0.906,2.0646e-05,0
0.9065,2.0478e-05,0
0.907,1.8631e-05,0
0.9075,1.6953e-05,0
0.908,1.6449e-05,0
0.9085,1.6953e-05,0
0.909,1.9806e-05,0
0.9095,2.417e-05,0
0.91,2.5681e-05,0
0.9105,2.5849e-05,0
0.911,2.6017e-05,0
0.9115,2.5345e-05,0
0.912,2.1317e-05,0
0.9125,1.796e-05,0
0.913,1.7792e-05,0
0.9135,1.8967e-05,0
0.914,1.9974e-05,0
0.9145,1.8128e-05,0
0.915,1.5946e-05,0
0.9155,1.5778e-05,0
0.916,1.6617e-05,0
0.9165,1.7288e-05,0
0.917,1.8128e-05,0
0.9175,1.8631e-05,0
0.918,1.9638e-05,0
0.9185,1.8967e-05,0
0.919,1.7288e-05,0
0.9195,1.7792e-05,0
0.92,2.031e-05,0
0.9205,2.1317e-05,0
0.921,2.1317e-05,0
0.9215,2.0981e-05,0
0.922,1.9806e-05,0
0.9225,1.9806e-05,0
0.923,2.1653e-05,0
0.9235,2.266e-05,0
0.924,2.1988e-05,0
0.9245,2.1149e-05,0
0.925,2.1149e-05,0
0.9255,1.8967e-05,0
0.926,1.5778e-05,0
0.9265,1.4099e-05,0
0.927,1.3932e-05,0
0.9275,1.4603e-05,0
0.928,1.5106e-05,0
0.9285,1.4267e-05,0
0.929,1.0239e-05,0
0.9295,7.5532e-06,0
0.93,9.2317e-06,0
0.9305,1.1582e-05,0
0.931,1.1582e-05,0
0.9315,1.091e-05,0
0.932,1.0239e-05,0
0.9325,1.0575e-05,0
0.933,1.1414e-05,0
0.9335,1.2421e-05,0
0.934,1.2589e-05,0
0.9345,1.2421e-05,0
0.935,1.2589e-05,0
0.9355,1.4939e-05,0
0.936,1.6953e-05,0
0.9365,1.6785e-05,0
0.937,1.6785e-05,0
0.9375,1.8631e-05,0
0.938,1.9974e-05,0
0.9385,2.1149e-05,0
0.939,2.1653e-05,0
0.9395,2.182e-05,0
0.94,2.266e-05,0
0.9405,2.2995e-05,0
0.941,2.2324e-05,0
0.9415,2.1317e-05,0
0.942,1.8463e-05,0
0.9425,1.5274e-05,0
0.943,1.3596e-05,0
0.9435,1.561e-05,0
0.944,1.7792e-05,0
0.9445,1.796e-05,0
0.945,1.9303e-05,0
0.9455,2.0981e-05,0
0.946,2.3163e-05,0
0.9465,2.4002e-05,0
0.947,2.3499e-05,0
0.9475,2.2324e-05,0
0.948,2.1988e-05,0
0.9485,2.2492e-05,0
0.949,2.1653e-05,0
0.9495,2.0646e-05,0
0.95,2.1317e-05,0
0.9505,2.1988e-05,0
0.951,2.0142e-05,0
0.9515,2.0478e-05,0
0.952,2.1317e-05,0
0.9525,2.1317e-05,0
0.953,2.2324e-05,0
0.9535,2.2492e-05,0
0.954,2.1988e-05,0
0.9545,2.2324e-05,0
0.955,2.3331e-05,0
0.9555,2.4338e-05,0
0.956,2.6017e-05,0
0.9565,2.6688e-05,0
0.957,2.5849e-05,0
0.9575,2.4002e-05,0
0.958,2.1988e-05,0
0.9585,2.0981e-05,0
0.959,2.1317e-05,0
0.9595,2.1149e-05,0
0.96,2.2156e-05,0
0.9605,2.2492e-05,0
0.961,2.182e-05,0
0.9615,2.1317e-05,0
0.962,2.1149e-05,0
0.9625,2.182e-05,0
0.963,2.1988e-05,0
0.9635,2.1988e-05,0
0.964,2.3163e-05,0
0.9645,2.4506e-05,0
0.965,2.3331e-05,0
0.9655,2.1988e-05,0
0.966,2.2492e-05,0
0.9665,2.2492e-05,0
0.967,2.2324e-05,0
0.9675,2.266e-05,0
0.968,2.0813e-05,0
0.9685,1.8463e-05,0
0.969,1.8463e-05,0
0.9695,1.9638e-05,0
0.97,2.0646e-05,0
0.9705,2.0142e-05,0
0.971,1.8631e-05,0
0.9715,1.6785e-05,0
0.972,1.4771e-05,0
0.9725,1.3596e-05,0
0.973,1.326e-05,0
0.9735,1.2924e-05,0
0.974,1.1917e-05,0
0.9745,1.1246e-05,0
0.975,1.326e-05,0
0.9755,1.5778e-05,0
0.976,1.561e-05,0
0.9765,1.4939e-05,0
0.977,1.561e-05,0
0.9775,1.7288e-05,0
0.978,1.8967e-05,0
0.9785,2.0142e-05,0
0.979,1.8799e-05,0
0.9795,1.5274e-05,0
0.98,1.3932e-05,0
0.9805,1.5946e-05,0
0.981,1.7624e-05,0
0.9815,1.6449e-05,0
0.982,1.561e-05,0
0.9825,1.6785e-05,0
0.983,1.6449e-05,0
0.9835,1.5442e-05,0
0.984,1.5274e-05,0
0.9845,1.4603e-05,0
0.985,1.2085e-05,0
0.9855,1.0407e-05,0
0.986,1.2085e-05,0
0.9865,1.4939e-05,0
0.987,1.5946e-05,0
0.9875,1.6449e-05,0
0.988,1.8967e-05,0
0.9885,2.2324e-05,0
0.989,2.2995e-05,0
0.9895,2.0981e-05,0
0.99,1.9806e-05,0
0.9905,2.2156e-05,0
0.991,2.2492e-05,0
0.9915,2.0646e-05,0
0.992,2.1317e-05,0
0.9925,2.3667e-05,0
0.993,2.5009e-05,0
0.9935,2.6352e-05,0
0.994,2.6688e-05,0
0.9945,2.7863e-05,0
0.995,2.9206e-05,0
0.9955,2.7024e-05,0
0.996,2.5345e-05,0
0.9965,2.7527e-05,0
0.997,2.8367e-05,0
0.9975,2.6688e-05,0
0.998,2.4674e-05,0
0.9985,2.3667e-05,0
0.999,2.1988e-05,0
0.9995,1.9974e-05,0
1,1.8967e-05,0
1.0005,1.8967e-05,0
1.001,1.9974e-05,0
1.0015,1.9135e-05,0
1.002,1.6953e-05,0
1.0025,1.5778e-05,0
1.003,1.4267e-05,0
1.0035,1.4939e-05,0
1.004,1.5442e-05,0
1.0045,1.3932e-05,0
1.005,1.326e-05,0
1.0055,1.4603e-05,0
1.006,1.561e-05,0
1.0065,1.6617e-05,0
1.007,1.7792e-05,0
1.0075,1.7624e-05,0
1.008,1.8128e-05,0
1.0085,1.9638e-05,0
1.009,1.8967e-05,0
1.0095,2.031e-05,0
1.01,2.1988e-05,0
1.0105,2.1149e-05,0
1.011,1.947e-05,0
1.0115,1.9135e-05,0
1.012,1.7792e-05,0
1.0125,1.6617e-05,0
1.013,1.7288e-05,0
1.0135,1.796e-05,0
1.014,1.7288e-05,0
1.0145,1.6785e-05,0
1.015,1.6617e-05,0
1.0155,1.4771e-05,0
1.016,1.2253e-05,0
1.0165,1.2757e-05,0
1.017,1.4099e-05,0
1.0175,1.3764e-05,0
1.018,1.1917e-05,0
1.0185,1.1917e-05,0
1.019,1.3932e-05,0
1.0195,1.5946e-05,0
1.02,1.5946e-05,0
1.0205,1.5106e-05,0
1.021,1.7121e-05,0
1.0215,1.8967e-05,0
1.022,2.031e-05,0
1.0225,1.9974e-05,0
1.023,1.796e-05,0
1.0235,1.796e-05,0
1.024,2.0478e-05,0
1.0245,2.2492e-05,0
1.025,2.3163e-05,0
1.0255,2.4002e-05,0
1.026,2.4674e-05,0
1.0265,2.3667e-05,0
1.027,2.1988e-05,0
1.0275,2.0646e-05,0
1.028,2.0142e-05,0
1.0285,1.9135e-05,0
1.029,1.7624e-05,0
1.0295,1.8296e-05,0
1.03,1.9303e-05,0
1.0305,1.8799e-05,0
1.031,1.9303e-05,0
1.0315,1.8631e-05,0
1.032,1.7288e-05,0
1.0325,1.5274e-05,0
1.033,1.4939e-05,0
1.0335,1.8296e-05,0
1.034,2.0478e-05,0
1.0345,1.9638e-05,0
1.035,1.8631e-05,0
1.0355,1.8631e-05,0
1.036,1.9974e-05,0
1.0365,2.0981e-05,0
1.037,1.9303e-05,0
1.0375,1.6281e-05,0
1.038,1.5274e-05,0
1.0385,1.561e-05,0
1.039,1.6281e-05,0
1.0395,1.8967e-05,0
1.04,2.1317e-05,0
1.0405,2.1988e-05,0
1.041,2.3163e-05,0
1.0415,2.6184e-05,0
1.042,2.8031e-05,0
1.0425,2.5681e-05,0
1.043,2.4338e-05,0
1.0435,2.5849e-05,0
1.044,2.5849e-05,0
1.0445,2.4002e-05,0
1.045,2.3331e-05,0
1.0455,2.3499e-05,0
1.046,2.2828e-05,0
1.0465,2.1653e-05,0
1.047,1.9806e-05,0
1.0475,1.8967e-05,0
1.048,1.9806e-05,0
1.0485,1.9806e-05,0
1.049,1.8631e-05,0
1.0495,1.8631e-05,0
1.05,1.8631e-05,0
1.0505,1.9303e-05,0
1.051,1.9974e-05,0
1.0515,1.8296e-05,0
1.052,1.7288e-05,0
1.0525,1.4603e-05,0
1.053,1.1246e-05,0
1.0535,1.1749e-05,0
1.054,1.6281e-05,0
1.0545,1.947e-05,0
1.055,1.8631e-05,0
1.0555,1.8967e-05,0
1.056,2.1317e-05,0
1.0565,2.3331e-05,0
1.057,2.3835e-05,0
1.0575,2.2324e-05,0
1.058,2.1317e-05,0
1.0585,1.9974e-05,0
1.059,1.8631e-05,0
1.0595,1.9638e-05,0
1.06,2.1988e-05,0
1.0605,2.4002e-05,0
1.061,2.2995e-05,0
1.0615,2.2156e-05,0
1.062,2.1653e-05,0
1.0625,2.1317e-05,0
1.063,1.8631e-05,0
1.0635,1.5946e-05,0
1.064,1.6617e-05,0
1.0645,1.8128e-05,0
1.065,1.8296e-05,0
1.0655,1.6953e-05,0
1.066,1.4603e-05,0
1.0665,1.5106e-05,0
1.067,1.6281e-05,0
1.0675,1.5274e-05,0
1.068,1.2924e-05,0
1.0685,1.1582e-05,0
1.069,1.091e-05,0
1.0695,1.0239e-05,0
1.07,1.1246e-05,0
1.0705,1.3764e-05,0
1.071,1.5946e-05,0
1.0715,1.8463e-05,0
1.072,1.8967e-05,0
1.0725,1.7624e-05,0
1.073,1.8296e-05,0
1.0735,1.9303e-05,0
1.074,1.9974e-05,0
1.0745,2.182e-05,0
1.075,2.2324e-05,0
1.0755,2.1149e-05,0
1.076,1.796e-05,0
1.0765,1.6617e-05,0
1.077,1.8128e-05,0
1.0775,1.8463e-05,0
1.078,1.8631e-05,0
1.0785,1.9135e-05,0
1.079,1.9806e-05,0
1.0795,2.0646e-05,0
1.08,2.1317e-05,0
1.0805,2.2324e-05,0
1.081,2.0646e-05,0
1.0815,1.9303e-05,0
1.082,1.947e-05,0
1.0825,1.9638e-05,0
1.083,1.9974e-05,0
1.0835,1.8631e-05,0
1.084,1.5442e-05,0
1.0845,1.3764e-05,0
1.085,1.326e-05,0
1.0855,1.3092e-05,0
1.086,1.2757e-05,0
1.0865,1.1078e-05,0
1.087,1.0575e-05,0
1.0875,1.3764e-05,0
1.088,1.7456e-05,0
1.0885,1.9974e-05,0
1.089,1.9135e-05,0
1.0895,1.4603e-05,0
1.09,1.1246e-05,0
1.0905,1.1246e-05,0
1.091,1.1582e-05,0
1.0915,1.2421e-05,0
1.092,1.4939e-05,0
1.0925,1.5946e-05,0
1.093,1.5274e-05,0
1.0935,1.561e-05,0
1.094,1.6281e-05,0
1.0945,1.6449e-05,0
1.095,1.7456e-05,0
1.0955,1.947e-05,0
1.096,2.1988e-05,0
1.0965,2.2324e-05,0
1.097,2.1149e-05,0
1.0975,2.2324e-05,0
1.098,2.3667e-05,0
1.0985,2.266e-05,0
1.099,2.1988e-05,0
1.0995,2.4002e-05,0
1.1,2.5681e-05,0
1.1005,2.4338e-05,0
1.101,2.266e-05,0
1.1015,2.2492e-05,0
1.102,2.3331e-05,0
1.1025,2.3331e-05,0
1.103,2.2156e-05,0
1.1035,2.031e-05,0
1.104,1.8967e-05,0
1.1045,1.8296e-05,0
1.105,2.0646e-05,0
1.1055,2.0813e-05,0
1.106,1.9638e-05,0
1.1065,1.947e-05,0
1.107,1.8631e-05,0
1.1075,2.031e-05,0
1.108,2.1317e-05,0
1.1085,2.031e-05,0
1.109,1.9135e-05,0
1.1095,1.796e-05,0
1.11,1.8296e-05,0
1.1105,1.9135e-05,0
1.111,1.8463e-05,0
1.1115,1.6449e-05,0
1.112,1.3596e-05,0
1.1125,1.091e-05,0
1.113,8.2246e-06,0
1.1135,7.3854e-06,0
1.114,9.5674e-06,0
1.1145,1.3428e-05,0
1.115,1.5946e-05,0
1.1155,1.6953e-05,0
1.116,1.7121e-05,0
1.1165,1.6785e-05,0
1.117,1.6281e-05,0
1.1175,1.5946e-05,0
1.118,1.5778e-05,0
1.1185,1.8463e-05,0
1.119,2.2492e-05,0
1.1195,2.4674e-05,0
1.12,2.5177e-05,0
1.1205,2.4674e-05,0
1.121,2.5177e-05,0
1.1215,2.5849e-05,0
1.122,2.7024e-05,0
1.1225,2.8199e-05,0
1.123,2.8031e-05,0
1.1235,2.8031e-05,0
1.124,2.7695e-05,0
1.1245,2.6688e-05,0
1.125,2.652e-05,0
1.1255,2.7024e-05,0
1.126,2.7359e-05,0
1.1265,2.8534e-05,0
1.127,3.0884e-05,0
1.1275,3.0716e-05,0
1.128,2.7863e-05,0
1.1285,2.6688e-05,0
1.129,2.6352e-05,0
1.1295,2.4002e-05,0
1.13,2.3667e-05,0
1.1305,2.4674e-05,0
1.131,2.4842e-05,0
1.1315,2.4674e-05,0
1.132,2.4842e-05,0
1.1325,2.3331e-05,0
1.133,2.1317e-05,0
1.1335,2.0813e-05,0
1.134,2.0478e-05,0
1.1345,2.0981e-05,0
1.135,2.0981e-05,0
1.1355,1.9806e-05,0
1.136,1.947e-05,0
1.1365,2.1317e-05,0
1.137,2.1988e-05,0
1.1375,1.9638e-05,0
1.138,1.796e-05,0
1.1385,1.7624e-05,0
1.139,1.6617e-05,0
1.1395,1.6449e-05,0
1.14,1.5946e-05,0
1.1405,1.6953e-05,0
1.141,1.9303e-05,0
1.1415,2.0478e-05,0
1.142,1.9638e-05,0
1.1425,1.9974e-05,0
1.143,2.1317e-05,0
1.1435,2.1653e-05,0
1.144,2.0646e-05,0
1.1445,1.9303e-05,0
1.145,1.8631e-05,0
1.1455,1.8296e-05,0
1.146,1.8463e-05,0
1.1465,1.9638e-05,0
1.147,2.0981e-05,0
1.1475,1.8296e-05,0
1.148,1.5946e-05,0
1.1485,1.7456e-05,0
1.149,2.0646e-05,0
1.1495,2.3163e-05,0
1.15,2.1988e-05,0
1.1505,1.9638e-05,0
1.151,1.7624e-05,0
1.1515,1.6953e-05,0
1.152,1.6617e-05,0
1.1525,1.7288e-05,0
1.153,1.9303e-05,0
1.1535,1.8967e-05,0
1.154,1.7624e-05,0
1.1545,1.6617e-05,0
1.155,1.561e-05,0
1.1555,1.5946e-05,0
1.156,1.6953e-05,0
1.1565,1.5946e-05,0
1.157,1.3764e-05,0
1.1575,1.5274e-05,0
1.158,1.9638e-05,0
1.1585,2.266e-05,0
1.159,2.2995e-05,0
1.1595,2.4002e-05,0
1.16,2.6017e-05,0
1.1605,2.6688e-05,0
1.161,2.7359e-05,0
1.1615,2.4842e-05,0
1.162,2.1317e-05,0
1.1625,1.8967e-05,0
1.163,1.7288e-05,0
1.1635,1.4603e-05,0
1.164,1.1246e-05,0
1.1645,1.0407e-05,0
1.165,1.2589e-05,0
1.1655,1.4435e-05,0
1.166,1.326e-05,0
1.1665,1.1749e-05,0
1.167,1.1917e-05,0
1.1675,1.2924e-05,0
1.168,1.5106e-05,0
1.1685,1.4435e-05,0
1.169,9.9031e-06,0
1.1695,8.2246e-06,0
1.17,9.5674e-06,0
1.1705,9.9031e-06,0
1.171,1.0239e-05,0
1.1715,1.0239e-05,0
1.172,1.0239e-05,0
1.1725,1.1414e-05,0
1.173,1.2253e-05,0
1.1735,1.1917e-05,0
1.174,1.1246e-05,0
1.1745,1.0575e-05,0
1.175,8.896e-06,0
1.1755,8.2246e-06,0
1.176,9.2317e-06,0
1.1765,1.1414e-05,0
1.177,1.5778e-05,0
1.1775,1.9135e-05,0
1.178,2.1149e-05,0
1.1785,2.182e-05,0
1.179,2.182e-05,0
1.1795,2.2324e-05,0
1.18,2.2324e-05,0
1.1805,2.1317e-05,0
1.181,2.2324e-05,0
1.1815,2.3331e-05,0
1.182,2.4338e-05,0
1.1825,2.5345e-05,0
1.183,2.4002e-05,0
1.1835,2.2324e-05,0
1.184,2.1988e-05,0
1.1845,2.0478e-05,0
1.185,1.8463e-05,0
1.1855,2.0478e-05,0
1.186,2.4002e-05,0
1.1865,2.5009e-05,0
1.187,2.4674e-05,0
1.1875,2.3667e-05,0
1.188,2.0142e-05,0
1.1885,1.6953e-05,0
1.189,1.5946e-05,0
1.1895,1.6953e-05,0
1.19,1.8967e-05,0
1.1905,2.1317e-05,0
1.191,2.1317e-05,0
1.1915,1.9303e-05,0
1.192,1.9303e-05,0
1.1925,2.0142e-05,0
1.193,1.8967e-05,0
1.1935,1.7624e-05,0
1.194,1.7121e-05,0
1.1945,1.6617e-05,0
1.195,1.6449e-05,0
1.1955,1.5778e-05,0
1.196,1.6281e-05,0
1.1965,1.9638e-05,0
1.197,2.031e-05,0
1.1975,1.7624e-05,0
1.198,1.4603e-05,0
1.1985,1.4099e-05,0
1.199,1.5274e-05,0
1.1995,1.5106e-05,0
1.2,1.561e-05,0
1.2005,1.6617e-05,0
1.201,1.6785e-05,0
1.2015,1.7456e-05,0
1.202,1.8296e-05,0
1.2025,1.796e-05,0
1.203,1.7456e-05,0
1.2035,1.8128e-05,0
1.204,1.8296e-05,0
1.2045,1.7456e-05,0
1.205,1.6617e-05,0
1.2055,1.8128e-05,0
1.206,1.947e-05,0
1.2065,1.9303e-05,0
1.207,1.9974e-05,0
1.2075,2.2492e-05,0
1.208,2.5681e-05,0
1.2085,2.652e-05,0
1.209,2.5849e-05,0
1.2095,2.6352e-05,0
1.21,2.7192e-05,0
1.2105,2.652e-05,0
1.211,2.417e-05,0
1.2115,2.4338e-05,0
1.212,2.4338e-05,0
1.2125,2.2156e-05,0
1.213,1.9303e-05,0
1.2135,1.5946e-05,0
1.214,1.4435e-05,0
1.2145,1.3932e-05,0
1.215,1.3092e-05,0
1.2155,1.326e-05,0
1.216,1.6449e-05,0
1.2165,1.8799e-05,0
1.217,1.8296e-05,0
1.2175,1.7792e-05,0
1.218,1.8967e-05,0
1.2185,2.0813e-05,0
1.219,2.0813e-05,0
1.2195,1.9974e-05,0
1.22,1.8967e-05,0
1.2205,1.8631e-05,0
1.221,2.031e-05,0
1.2215,2.1317e-05,0
1.222,2.031e-05,0
1.2225,1.9303e-05,0
1.223,1.9974e-05,0
1.2235,2.0646e-05,0
1.224,1.9303e-05,0
1.2245,1.8631e-05,0
1.225,1.8296e-05,0
1.2255,1.8631e-05,0
1.226,2.0142e-05,0
1.2265,2.0813e-05,0
1.227,1.9303e-05,0
1.2275,1.6953e-05,0
1.228,1.5946e-05,0
1.2285,1.6449e-05,0
1.229,1.6281e-05,0
1.2295,1.5442e-05,0
1.23,1.5778e-05,0
1.2305,1.6449e-05,0
1.231,1.7456e-05,0
1.2315,1.8128e-05,0
1.232,1.8128e-05,0
1.2325,1.8631e-05,0
1.233,1.8799e-05,0
1.2335,1.8463e-05,0
1.234,1.9303e-05,0
1.2345,2.1317e-05,0
1.235,2.2828e-05,0
1.2355,2.3667e-05,0
1.236,2.4674e-05,0
1.2365,2.4506e-05,0
1.237,2.2995e-05,0
1.2375,2.3667e-05,0
1.238,2.4506e-05,0
1.2385,2.4842e-05,0
1.239,2.4338e-05,0
1.2395,2.2995e-05,0
1.24,2.2492e-05,0
1.2405,2.1988e-05,0
1.241,1.8967e-05,0
1.2415,1.5274e-05,0
1.242,1.5778e-05,0
1.2425,2.1317e-05,0
1.243,2.5345e-05,0
1.2435,2.5009e-05,0
1.244,2.3499e-05,0
1.2445,2.2324e-05,0
1.245,2.1653e-05,0
1.2455,2.1149e-05,0
1.246,1.8631e-05,0
1.2465,1.6953e-05,0
1.247,1.6953e-05,0
1.2475,1.7288e-05,0
1.248,1.6281e-05,0
1.2485,1.4603e-05,0
1.249,1.4603e-05,0
1.2495,1.6281e-05,0
1.25,1.796e-05,0
1.2505,1.796e-05,0
1.251,1.7456e-05,0
1.2515,1.7624e-05,0
1.252,1.8296e-05,0
1.2525,1.8631e-05,0
1.253,1.8631e-05,0
1.2535,1.8967e-05,0
1.254,1.796e-05,0
1.2545,1.4603e-05,0
1.255,1.1749e-05,0
1.2555,1.2421e-05,0
1.256,1.4267e-05,0
1.2565,1.4267e-05,0
1.257,1.2757e-05,0
1.2575,1.326e-05,0
1.258,1.4771e-05,0
1.2585,1.4939e-05,0
1.259,1.3764e-05,0
1.2595,1.3092e-05,0
1.26,1.3428e-05,0
1.2605,1.3596e-05,0
1.261,1.3596e-05,0
1.2615,1.3596e-05,0
1.262,1.2253e-05,0
1.2625,1.1917e-05,0
1.263,1.0575e-05,0
1.2635,9.5674e-06,0
1.264,1.1749e-05,0
1.2645,1.4603e-05,0
1.265,1.6953e-05,0
1.2655,1.8296e-05,0
1.266,2.031e-05,0
1.2665,2.2995e-05,0
1.267,2.5009e-05,0
1.2675,2.6017e-05,0
1.268,2.7192e-05,0
1.2685,2.8534e-05,0
1.269,2.9374e-05,0
1.2695,3.0549e-05,0
1.27,2.9877e-05,0
1.2705,2.7527e-05,0
1.271,2.4002e-05,0
1.2715,2.0981e-05,0
1.272,1.9135e-05,0
1.2725,1.8631e-05,0
1.273,1.8631e-05,0
1.2735,1.8967e-05,0
1.274,1.7624e-05,0
1.2745,1.5778e-05,0
1.275,1.7121e-05,0
1.2755,1.796e-05,0
1.276,1.6785e-05,0
1.2765,1.7624e-05,0
1.277,1.8631e-05,0
1.2775,1.8967e-05,0
1.278,1.9303e-05,0
1.2785,1.8967e-05,0
1.279,1.8631e-05,0
1.2795,1.8296e-05,0
1.28,1.8296e-05,0
1.2805,1.9806e-05,0
1.281,2.1317e-05,0
1.2815,2.0813e-05,0
1.282,1.9806e-05,0
1.2825,1.947e-05,0
1.283,1.8967e-05,0
1.2835,2.0646e-05,0
1.284,2.1317e-05,0
1.2845,2.0981e-05,0
1.285,2.0981e-05,0
1.2855,1.9974e-05,0
1.286,1.9303e-05,0
1.2865,1.9974e-05,0
1.287,2.2995e-05,0
1.2875,2.4674e-05,0
1.288,2.3835e-05,0
1.2885,2.2324e-05,0
1.289,2.1317e-05,0
1.2895,2.2828e-05,0
1.29,2.5849e-05,0
1.2905,2.7695e-05,0
1.291,2.6688e-05,0
1.2915,2.5345e-05,0
1.292,2.5345e-05,0
1.2925,2.5009e-05,0
1.293,2.2324e-05,0
1.2935,1.947e-05,0
1.294,1.7624e-05,0
1.2945,1.7288e-05,0
1.295,1.796e-05,0
1.2955,1.8631e-05,0
1.296,1.8967e-05,0
1.2965,1.8128e-05,0
1.297,1.7288e-05,0
1.2975,1.796e-05,0
1.298,1.8631e-05,0
1.2985,1.9135e-05,0
1.299,2.031e-05,0
1.2995,2.3163e-05,0
1.3,2.5009e-05,0
1.3005,2.266e-05,0
1.301,1.9303e-05,0
1.3015,1.796e-05,0
1.302,1.7121e-05,0
1.3025,1.4771e-05,0
1.303,1.3092e-05,0
1.3035,1.1749e-05,0
1.304,9.9031e-06,0
1.3045,8.896e-06,0
1.305,7.5532e-06,0
1.3055,9.0639e-06,0
1.306,1.3092e-05,0
1.3065,1.7624e-05,0
1.307,2.031e-05,0
1.3075,1.9303e-05,0
1.308,1.8463e-05,0
1.3085,1.9638e-05,0
1.309,2.1317e-05,0
1.3095,2.1653e-05,0
1.31,2.0142e-05,0
1.3105,1.9303e-05,0
1.311,1.9806e-05,0
1.3115,2.0646e-05,0
1.312,1.9974e-05,0
1.3125,1.7624e-05,0
1.313,1.6281e-05,0
1.3135,1.6449e-05,0
1.314,1.6953e-05,0
1.3145,1.6449e-05,0
1.315,1.5778e-05,0
1.3155,1.6617e-05,0
1.316,1.8631e-05,0
1.3165,1.9974e-05,0
1.317,1.9638e-05,0
1.3175,1.6785e-05,0
1.318,1.5778e-05,0
1.3185,1.7121e-05,0
1.319,1.7624e-05,0
1.3195,1.7121e-05,0
1.32,1.7121e-05,0
1.3205,1.7121e-05,0
1.321,1.6617e-05,0
1.3215,1.7624e-05,0
1.322,1.8296e-05,0
1.3225,1.7288e-05,0
1.323,1.8296e-05,0
1.3235,2.266e-05,0
1.324,2.6688e-05,0
1.3245,2.6352e-05,0
1.325,2.5345e-05,0
1.3255,2.4002e-05,0
1.326,2.3331e-05,0
1.3265,2.4842e-05,0
1.327,2.6688e-05,0
1.3275,2.7359e-05,0
1.328,2.5345e-05,0
1.3285,2.266e-05,0
1.329,2.0646e-05,0
1.3295,1.9974e-05,0
1.33,1.9974e-05,0
1.3305,1.9974e-05,0
1.331,1.8967e-05,0
1.3315,1.561e-05,0
1.332,1.326e-05,0
1.3325,1.4267e-05,0
1.333,1.7456e-05,0
1.3335,1.9135e-05,0
1.334,1.8967e-05,0
1.3345,1.8631e-05,0
1.335,1.796e-05,0
1.3355,1.7288e-05,0
1.336,1.7624e-05,0
1.3365,1.8967e-05,0
1.337,1.7792e-05,0
1.3375,1.4099e-05,0
1.338,1.1246e-05,0
1.3385,9.9031e-06,0
1.339,8.7282e-06,0
1.3395,8.2246e-06,0
1.34,9.3996e-06,0
1.3405,1.1749e-05,0
1.341,1.3596e-05,0
1.3415,1.4603e-05,0
1.342,1.6449e-05,0
1.3425,1.8631e-05,0
1.343,2.0478e-05,0
1.3435,2.1317e-05,0
1.344,2.3163e-05,0
1.3445,2.4674e-05,0
1.345,2.3835e-05,0
1.3455,2.1317e-05,0
1.346,1.9974e-05,0
1.3465,2.0646e-05,0
1.347,2.0981e-05,0
1.3475,1.9974e-05,0
1.348,1.6617e-05,0
1.3485,1.5778e-05,0
1.349,1.8631e-05,0
1.3495,2.0981e-05,0
1.35,2.1317e-05,0
1.3505,1.947e-05,0
1.351,1.8296e-05,0
1.3515,1.9303e-05,0
1.352,2.182e-05,0
1.3525,2.2324e-05,0
1.353,2.0646e-05,0
1.3535,2.031e-05,0
1.354,2.2156e-05,0
1.3545,2.3667e-05,0
1.355,2.4338e-05,0
1.3555,2.5345e-05,0
1.356,2.4674e-05,0
1.3565,2.3331e-05,0
1.357,2.266e-05,0
1.3575,2.1317e-05,0
1.358,1.9974e-05,0
1.3585,1.8631e-05,0
1.359,1.7624e-05,0
1.3595,1.796e-05,0
1.36,2.0478e-05,0
1.3605,2.182e-05,0
1.361,2.1317e-05,0
1.3615,2.031e-05,0
1.362,2.0646e-05,0
1.3625,2.0981e-05,0
1.363,2.1149e-05,0
1.3635,2.031e-05,0
1.364,2.031e-05,0
1.3645,2.0981e-05,0
1.365,2.1317e-05,0
1.3655,2.0813e-05,0
1.366,2.0478e-05,0
1.3665,2.031e-05,0
1.367,1.796e-05,0
1.3675,1.7456e-05,0
1.368,1.796e-05,0
1.3685,1.7792e-05,0
1.369,1.9806e-05,0
1.3695,2.182e-05,0
1.37,2.0646e-05,0
1.3705,1.9303e-05,0
1.371,1.7624e-05,0
1.3715,1.5106e-05,0
1.372,1.326e-05,0
1.3725,1.326e-05,0
1.373,1.5274e-05,0
1.3735,1.7121e-05,0
1.374,1.7624e-05,0
1.3745,1.6449e-05,0
1.375,1.4267e-05,0
1.3755,1.2253e-05,0
1.376,1.1078e-05,0
1.3765,1.1917e-05,0
1.377,1.6617e-05,0
1.3775,2.1149e-05,0
1.378,2.1653e-05,0
1.3785,2.0646e-05,0
1.379,1.9806e-05,0
1.3795,1.9638e-05,0
1.38,1.8631e-05,0
1.3805,1.6785e-05,0
1.381,1.5946e-05,0
1.3815,1.7288e-05,0
1.382,1.8128e-05,0
1.3825,1.6953e-05,0
1.383,1.5106e-05,0
1.3835,1.3092e-05,0
1.384,1.1246e-05,0
1.3845,1.1582e-05,0
1.385,1.4099e-05,0
1.3855,1.6281e-05,0
1.386,1.796e-05,0
1.3865,1.8967e-05,0
1.387,1.9974e-05,0
1.3875,2.1317e-05,0
1.388,2.4002e-05,0
1.3885,2.5513e-05,0
1.389,2.5849e-05,0
1.3895,2.4338e-05,0
1.39,2.0813e-05,0
1.3905,1.9638e-05,0
1.391,2.4002e-05,0
1.3915,2.6688e-05,0
1.392,2.4674e-05,0
1.3925,2.2995e-05,0
1.393,2.266e-05,0
1.3935,2.266e-05,0
1.394,2.1653e-05,0
1.3945,1.947e-05,0
1.395,1.8631e-05,0
1.3955,1.6953e-05,0
1.396,1.5778e-05,0
1.3965,1.6449e-05,0
1.397,1.796e-05,0
1.3975,1.9806e-05,0
1.398,2.1317e-05,0
1.3985,2.1988e-05,0
1.399,2.2324e-05,0
1.3995,2.4338e-05,0
1.4,2.3667e-05,0
1.4005,2.031e-05,0
1.401,1.6953e-05,0
1.4015,1.5946e-05,0
1.402,1.7624e-05,0
1.4025,1.9303e-05,0
1.403,1.9135e-05,0
1.4035,1.8128e-05,0
1.404,1.7456e-05,0
1.4045,1.7121e-05,0
1.405,1.6617e-05,0
1.4055,1.6449e-05,0
1.406,1.5442e-05,0
1.4065,1.5274e-05,0
1.407,1.6281e-05,0
1.4075,1.796e-05,0
1.408,1.9974e-05,0
1.4085,1.9303e-05,0
1.409,1.796e-05,0
1.4095,1.7456e-05,0
1.41,1.5274e-05,0
1.4105,1.2589e-05,0
1.411,1.3092e-05,0
1.4115,1.2253e-05,0
1.412,9.0639e-06,0
1.4125,1.0071e-05,0
1.413,1.3764e-05,0
1.4135,1.6449e-05,0
1.414,1.7288e-05,0
1.4145,1.7288e-05,0
1.415,1.8463e-05,0
1.4155,1.8631e-05,0
1.416,1.5778e-05,0
1.4165,1.326e-05,0
1.417,1.326e-05,0
1.4175,1.4603e-05,0
1.418,1.4435e-05,0
1.4185,1.326e-05,0
1.419,1.2757e-05,0
1.4195,1.4267e-05,0
1.42,1.4771e-05,0
1.4205,1.4939e-05,0
1.421,1.7792e-05,0
1.4215,1.9135e-05,0
1.422,1.8631e-05,0
1.4225,1.9303e-05,0
1.423,1.9135e-05,0
1.4235,2.0981e-05,0
1.424,2.4674e-05,0
1.4245,2.7359e-05,0
1.425,2.7192e-05,0
1.4255,2.4338e-05,0
1.426,2.2324e-05,0
1.4265,2.1317e-05,0
1.427,2.266e-05,0
1.4275,2.3835e-05,0
1.428,2.4674e-05,0
1.4285,2.4674e-05,0
1.429,2.3835e-05,0
1.4295,2.2995e-05,0
1.43,2.1988e-05,0
1.4305,2.1317e-05,0
1.431,2.266e-05,0
1.4315,2.4002e-05,0
1.432,2.266e-05,0
1.4325,2.1653e-05,0
1.433,2.2492e-05,0
1.4335,2.4002e-05,0
1.434,2.5849e-05,0
1.4345,2.8031e-05,0
1.435,2.8031e-05,0
1.4355,2.652e-05,0
1.436,2.417e-05,0
1.4365,2.2492e-05,0
1.437,2.1317e-05,0
1.4375,2.031e-05,0
1.438,2.0646e-05,0
1.4385,2.2324e-05,0
1.439,2.4674e-05,0
1.4395,2.4674e-05,0
1.44,2.3667e-05,0
1.4405,2.1988e-05,0
1.441,1.8631e-05,0
1.4415,1.561e-05,0
1.442,1.6449e-05,0
1.4425,1.9638e-05,0
1.443,1.9974e-05,0
1.4435,1.796e-05,0
1.444,1.6449e-05,0
1.4445,1.561e-05,0
1.445,1.5442e-05,0
1.4455,1.5946e-05,0
1.446,1.5946e-05,0
1.4465,1.7624e-05,0
1.447,2.0142e-05,0
1.4475,1.8967e-05,0
1.448,1.8967e-05,0
1.4485,2.0981e-05,0
1.449,2.0646e-05,0
1.4495,1.8967e-05,0
1.45,1.796e-05,0
1.4505,1.7624e-05,0
1.451,1.796e-05,0
1.4515,1.7792e-05,0
1.452,1.8463e-05,0
1.4525,1.9638e-05,0
1.453,1.9806e-05,0
1.4535,1.8967e-05,0
1.454,1.7288e-05,0
1.4545,1.6953e-05,0
1.455,1.6785e-05,0
1.4555,1.5274e-05,0
1.456,1.3596e-05,0
1.4565,1.3932e-05,0
1.457,1.7288e-05,0
1.4575,1.9806e-05,0
1.458,1.8799e-05,0
1.4585,1.8967e-05,0
1.459,1.8463e-05,0
1.4595,1.5946e-05,0
1.46,1.5274e-05,0
1.4605,1.4603e-05,0
1.461,1.4267e-05,0
1.4615,1.4603e-05,0
1.462,1.561e-05,0
1.4625,1.5274e-05,0
1.463,1.5946e-05,0
1.4635,1.7121e-05,0
1.464,1.8296e-05,0
1.4645,1.8799e-05,0
1.465,1.8967e-05,0
1.4655,1.9638e-05,0
1.466,2.1317e-05,0
1.4665,2.1149e-05,0
1.467,1.8631e-05,0
1.4675,1.7624e-05,0
1.468,1.9303e-05,0
1.4685,1.8967e-05,0
1.469,1.4939e-05,0
1.4695,1.1246e-05,0
1.47,1.1246e-05,0
1.4705,1.3764e-05,0
1.471,1.4267e-05,0
1.4715,1.4267e-05,0
1.472,1.4267e-05,0
1.4725,1.4939e-05,0
1.473,1.7624e-05,0
1.4735,2.1653e-05,0
1.474,2.3499e-05,0
1.4745,2.2156e-05,0
1.475,1.9303e-05,0
1.4755,1.8631e-05,0
1.476,2.0142e-05,0
1.4765,1.9806e-05,0
1.477,1.9638e-05,0
1.4775,1.9303e-05,0
1.478,1.9303e-05,0
1.4785,1.9303e-05,0
1.479,1.9135e-05,0
1.4795,1.8128e-05,0
1.48,1.8967e-05,0
1.4805,2.1988e-05,0
1.481,2.4002e-05,0
1.4815,2.1317e-05,0
1.482,1.8631e-05,0
1.4825,1.8631e-05,0
1.483,1.8799e-05,0
1.4835,1.9974e-05,0
1.484,2.1653e-05,0
1.4845,2.2492e-05,0
1.485,2.0981e-05,0
1.4855,1.9974e-05,0
1.486,2.0813e-05,0
1.4865,2.1317e-05,0
1.487,1.9303e-05,0
1.4875,1.8296e-05,0
1.488,1.6617e-05,0
1.4885,1.8631e-05,0
1.489,2.3499e-05,0
1.4895,2.7024e-05,0
1.49,2.7024e-05,0
1.4905,2.5681e-05,0
1.491,2.4674e-05,0
1.4915,2.3331e-05,0
1.492,2.0981e-05,0
1.4925,1.9638e-05,0
1.493,1.947e-05,0
1.4935,2.0142e-05,0
1.494,2.182e-05,0
1.4945,2.1317e-05,0
1.495,2.0646e-05,0
1.4955,2.1149e-05,0
1.496,2.1653e-05,0
1.4965,2.182e-05,0
1.497,2.0981e-05,0
1.4975,1.9974e-05,0
1.498,1.8967e-05,0
1.4985,1.8631e-05,0
1.499,1.8463e-05,0
1.4995,1.561e-05,0
1.5,1.2589e-05,0
1.5005,1.4267e-05,0
1.501,1.7792e-05,0
1.5015,2.0646e-05,0
1.502,2.1988e-05,0
1.5025,2.1317e-05,0
1.503,1.8967e-05,0
1.5035,1.7288e-05,0
1.504,1.796e-05,0
1.5045,1.9303e-05,0
1.505,1.7624e-05,0
1.5055,1.5442e-05,0
1.506,1.561e-05,0
1.5065,1.796e-05,0
1.507,1.9806e-05,0
1.5075,1.9974e-05,0
1.508,1.9135e-05,0
1.5085,1.8463e-05,0
1.509,1.9303e-05,0
1.5095,2.0478e-05,0
1.51,1.9303e-05,0
1.5105,2.0142e-05,0
1.511,2.0981e-05,0
1.5115,2.266e-05,0
1.512,2.4674e-05,0
1.5125,2.5849e-05,0
1.513,2.5177e-05,0
1.5135,2.5681e-05,0
1.514,2.5009e-05,0
1.5145,2.2324e-05,0
1.515,2.1653e-05,0
1.5155,2.2156e-05,0
1.516,2.266e-05,0
1.5165,2.2995e-05,0
1.517,2.3331e-05,0
1.5175,2.4002e-05,0
1.518,2.2995e-05,0
1.5185,2.0981e-05,0
1.519,1.9638e-05,0
1.5195,1.8463e-05,0
1.52,1.5946e-05,0
1.5205,1.3596e-05,0
1.521,1.4603e-05,0
1.5215,1.8128e-05,0
1.522,1.9974e-05,0
1.5225,1.8296e-05,0
1.523,1.6617e-05,0
1.5235,1.6281e-05,0
1.524,1.6953e-05,0
1.5245,1.6953e-05,0
1.525,1.5442e-05,0
1.5255,1.5106e-05,0
1.526,1.5946e-05,0
1.5265,1.5778e-05,0
1.527,1.4603e-05,0
1.5275,1.4435e-05,0
1.528,1.6281e-05,0
1.5285,1.6617e-05,0
1.529,1.561e-05,0
1.5295,1.3596e-05,0
1.53,1.326e-05,0
1.5305,1.3596e-05,0
1.531,1.2589e-05,0
1.5315,1.2757e-05,0
1.532,1.561e-05,0
1.5325,1.796e-05,0
1.533,2.0646e-05,0
1.5335,2.266e-05,0
1.534,2.2492e-05,0
1.5345,2.182e-05,0
1.535,2.266e-05,0
1.5355,2.3835e-05,0
1.536,2.4338e-05,0
1.5365,2.4338e-05,0
1.537,2.266e-05,0
1.5375,2.2324e-05,0
1.538,2.266e-05,0
1.5385,2.1988e-05,0
1.539,2.0981e-05,0
1.5395,2.1317e-05,0
1.54,2.0981e-05,0
1.5405,1.8967e-05,0
1.541,1.796e-05,0
1.5415,1.8631e-05,0
1.542,2.0646e-05,0
1.5425,2.031e-05,0
1.543,1.9135e-05,0
1.5435,1.8631e-05,0
1.544,1.9303e-05,0
1.5445,2.1317e-05,0
1.545,2.1317e-05,0
1.5455,1.9638e-05,0
1.546,2.0646e-05,0
1.5465,2.3667e-05,0
1.547,2.4002e-05,0
1.5475,2.1988e-05,0
1.548,1.9806e-05,0
1.5485,1.9303e-05,0
1.549,1.796e-05,0
1.5495,1.5946e-05,0
1.55,1.4939e-05,0
1.5505,1.3932e-05,0
1.551,1.3932e-05,0
1.5515,1.4939e-05,0
1.552,1.6617e-05,0
1.5525,1.6953e-05,0
1.553,1.5106e-05,0
1.5535,1.4603e-05,0
1.554,1.7121e-05,0
1.5545,1.9135e-05,0
1.555,1.8296e-05,0
1.5555,1.7792e-05,0
1.556,1.8631e-05,0
1.5565,1.9974e-05,0
1.557,2.0981e-05,0
1.5575,2.0646e-05,0
1.558,1.947e-05,0
1.5585,1.8296e-05,0
1.559,1.7121e-05,0
1.5595,1.5946e-05,0
1.56,1.7121e-05,0
1.5605,1.9303e-05,0
1.561,1.9303e-05,0
1.5615,1.8631e-05,0
1.562,1.8463e-05,0
1.5625,1.9303e-05,0
1.563,1.8967e-05,0
1.5635,1.6785e-05,0
1.564,1.561e-05,0
1.5645,1.5778e-05,0
1.565,1.6617e-05,0
1.5655,1.7792e-05,0
1.566,1.6281e-05,0
1.5665,1.5442e-05,0
1.567,1.6953e-05,0
1.5675,1.796e-05,0
1.568,1.7121e-05,0
1.5685,1.7288e-05,0
1.569,1.8296e-05,0
1.5695,1.9806e-05,0
1.57,1.9974e-05,0
1.5705,1.8967e-05,0
1.571,1.796e-05,0
1.5715,1.6281e-05,0
1.572,1.5274e-05,0
1.5725,1.7624e-05,0
1.573,1.9974e-05,0
1.5735,1.9806e-05,0
1.574,1.8296e-05,0
1.5745,1.7792e-05,0
1.575,2.0478e-05,0
1.5755,2.3163e-05,0
1.576,2.1653e-05,0
1.5765,1.8967e-05,0
1.577,1.9303e-05,0
1.5775,2.0478e-05,0
1.578,1.9974e-05,0
1.5785,1.7456e-05,0
1.579,1.4939e-05,0
1.5795,1.3092e-05,0
1.58,1.3932e-05,0
1.5805,1.5274e-05,0
1.581,1.4603e-05,0
1.5815,1.4939e-05,0
1.582,1.5946e-05,0
1.5825,1.6281e-05,0
1.583,1.5946e-05,0
1.5835,1.5274e-05,0
1.584,1.5778e-05,0
1.5845,1.7288e-05,0
1.585,1.796e-05,0
1.5855,1.9303e-05,0
1.586,1.8967e-05,0
1.5865,1.5274e-05,0
1.587,1.4267e-05,0
1.5875,1.5442e-05,0
1.588,1.4603e-05,0
1.5885,1.2924e-05,0
1.589,1.0575e-05,0
1.5895,1.0239e-05,0
1.59,1.2589e-05,0
1.5905,1.6953e-05,0
1.591,1.8631e-05,0
1.5915,1.8296e-05,0
1.592,1.8631e-05,0
1.5925,1.8967e-05,0
1.593,1.796e-05,0
1.5935,1.6617e-05,0
1.594,1.6449e-05,0
1.5945,1.7288e-05,0
1.595,1.8296e-05,0
1.5955,1.8967e-05,0
1.596,1.947e-05,0
1.5965,1.8296e-05,0
1.597,1.7288e-05,0
1.5975,1.7288e-05,0
1.598,1.6953e-05,0
1.5985,1.5946e-05,0
1.599,1.5946e-05,0
1.5995,1.6617e-05,0
1.6,1.8631e-05,0
1.6005,1.9974e-05,0
1.601,1.9303e-05,0
1.6015,2.031e-05,0
1.602,2.1317e-05,0
1.6025,1.9974e-05,0
1.603,1.5946e-05,0
1.6035,1.1749e-05,0
1.604,1.0239e-05,0
1.6045,1.1749e-05,0
1.605,1.326e-05,0
1.6055,1.5946e-05,0
1.606,1.9638e-05,0
1.6065,2.2324e-05,0
1.607,2.4002e-05,0
1.6075,2.5345e-05,0
1.608,2.6352e-05,0
1.6085,2.6688e-05,0
1.609,2.8534e-05,0
1.6095,3.1388e-05,0
1.61,3.3066e-05,0
1.6105,3.2731e-05,0
1.611,3.0213e-05,0
1.6115,2.7359e-05,0
1.612,2.5681e-05,0
1.6125,2.4002e-05,0
1.613,2.3667e-05,0
1.6135,2.4674e-05,0
1.614,2.4338e-05,0
1.6145,2.5345e-05,0
1.615,2.6688e-05,0
1.6155,2.6688e-05,0
1.616,2.6184e-05,0
1.6165,2.5009e-05,0
1.617,2.4674e-05,0
1.6175,2.5009e-05,0
1.618,2.4002e-05,0
1.6185,2.266e-05,0
1.619,2.266e-05,0
1.6195,2.1653e-05,0
1.62,2.0646e-05,0
1.6205,1.9638e-05,0
1.621,1.9303e-05,0
1.6215,2.0646e-05,0
1.622,2.1317e-05,0
1.6225,1.9974e-05,0
1.623,1.7792e-05,0
1.6235,1.5274e-05,0
1.624,1.2924e-05,0
1.6245,1.1917e-05,0
1.625,1.3764e-05,0
1.6255,1.6617e-05,0
1.626,1.9638e-05,0
1.6265,1.9806e-05,0
1.627,1.9638e-05,0
1.6275,2.0813e-05,0
1.628,2.1149e-05,0
1.6285,1.8967e-05,0
1.629,1.6617e-05,0
1.6295,1.4603e-05,0
1.63,1.4603e-05,0
1.6305,1.5778e-05,0
1.631,1.6449e-05,0
1.6315,1.6953e-05,0
1.632,1.8631e-05,0
1.6325,2.0981e-05,0
1.633,2.1149e-05,0
1.6335,2.0981e-05,0
1.634,2.0981e-05,0
1.6345,2.0646e-05,0
1.635,2.031e-05,0
1.6355,1.8967e-05,0
1.636,1.6449e-05,0
1.6365,1.6449e-05,0
1.637,1.8296e-05,0
1.6375,1.8631e-05,0
1.638,1.6617e-05,0
1.6385,1.5778e-05,0
1.639,1.6281e-05,0
1.6395,1.8296e-05,0
1.64,1.9638e-05,0
1.6405,2.031e-05,0
1.641,1.9638e-05,0
1.6415,1.796e-05,0
1.642,1.6617e-05,0
1.6425,1.4603e-05,0
1.643,1.2589e-05,0
1.6435,1.326e-05,0
1.644,1.3932e-05,0
1.6445,1.326e-05,0
1.645,1.5274e-05,0
1.6455,1.8296e-05,0
1.646,1.8128e-05,0
1.6465,1.5946e-05,0
1.647,1.5442e-05,0
1.6475,1.8296e-05,0
1.648,2.1317e-05,0
1.6485,2.4338e-05,0
1.649,2.5009e-05,0
1.6495,2.3835e-05,0
1.65,2.5681e-05,0
1.6505,2.8031e-05,0
1.651,2.7695e-05,0
1.6515,2.6688e-05,0
1.652,2.5177e-05,0
1.6525,2.3331e-05,0
1.653,2.3835e-05,0
1.6535,2.7695e-05,0
1.654,2.9374e-05,0
1.6545,2.7695e-05,0
1.655,2.3163e-05,0
1.6555,1.9974e-05,0
1.656,1.8631e-05,0
1.6565,1.7624e-05,0
1.657,1.8631e-05,0
1.6575,2.031e-05,0
1.658,2.031e-05,0
1.6585,1.796e-05,0
1.659,1.6114e-05,0
1.6595,1.561e-05,0
1.66,1.7288e-05,0
1.6605,2.031e-05,0
1.661,2.0981e-05,0
1.6615,1.9135e-05,0
1.662,1.7121e-05,0
1.6625,1.5946e-05,0
1.663,1.6281e-05,0
1.6635,1.7288e-05,0
1.664,1.796e-05,0
1.6645,1.7121e-05,0
1.665,1.6617e-05,0
1.6655,1.796e-05,0
1.666,2.0981e-05,0
1.6665,2.1149e-05,0
1.667,1.8631e-05,0
1.6675,1.6281e-05,0
1.668,1.6617e-05,0
1.6685,1.6953e-05,0
1.669,1.6449e-05,0
1.6695,1.561e-05,0
1.67,1.4939e-05,0
1.6705,1.4267e-05,0
1.671,1.4603e-05,0
1.6715,1.5274e-05,0
1.672,1.4939e-05,0
1.6725,1.3932e-05,0
1.673,1.5778e-05,0
1.6735,1.7288e-05,0
1.674,1.7456e-05,0
1.6745,1.9135e-05,0
1.675,2.0646e-05,0
1.6755,1.9303e-05,0
1.676,1.6617e-05,0
1.6765,1.5778e-05,0
1.677,1.7624e-05,0
1.6775,1.8463e-05,0
1.678,1.7288e-05,0
1.6785,1.6953e-05,0
1.679,1.7288e-05,0
1.6795,1.8296e-05,0
1.68,1.9638e-05,0
1.6805,1.9135e-05,0
1.681,1.8463e-05,0
1.6815,1.8631e-05,0
1.682,1.9135e-05,0
1.6825,1.8296e-05,0
1.683,1.7792e-05,0
1.6835,1.8631e-05,0
1.684,1.9303e-05,0
1.6845,1.8296e-05,0
1.685,1.8128e-05,0
1.6855,1.796e-05,0
1.686,1.796e-05,0
1.6865,1.7624e-05,0
1.687,1.796e-05,0
1.6875,1.796e-05,0
1.688,1.9303e-05,0
1.6885,2.1653e-05,0
1.689,2.3163e-05,0
1.6895,2.3667e-05,0
1.69,2.1653e-05,0
1.6905,1.796e-05,0
1.691,1.6449e-05,0
1.6915,1.6785e-05,0
1.692,1.7121e-05,0
1.6925,1.6617e-05,0
1.693,1.561e-05,0
1.6935,1.5442e-05,0
1.694,1.5274e-05,0
1.6945,1.4603e-05,0
1.695,1.4603e-05,0
1.6955,1.5778e-05,0
1.696,1.7288e-05,0
1.6965,1.9974e-05,0
1.697,2.2324e-05,0
1.6975,2.1653e-05,0
1.698,2.0142e-05,0
1.6985,2.0981e-05,0
1.699,2.3835e-05,0
1.6995,2.5681e-05,0
1.7,2.4506e-05,0
1.7005,2.1317e-05,0
1.701,2.0478e-05,0
1.7015,2.2324e-05,0
1.702,2.6017e-05,0
1.7025,2.9038e-05,0
1.703,2.9709e-05,0
1.7035,2.8031e-05,0
1.704,2.6688e-05,0
1.7045,2.5849e-05,0
1.705,2.3835e-05,0
1.7055,2.1653e-05,0
1.706,1.9135e-05,0
1.7065,1.6785e-05,0
1.707,1.6449e-05,0
1.7075,1.7792e-05,0
1.708,1.8128e-05,0
1.7085,1.8631e-05,0
1.709,1.9303e-05,0
1.7095,1.9303e-05,0
1.71,2.0142e-05,0
1.7105,1.9974e-05,0
1.711,1.947e-05,0
1.7115,2.1149e-05,0
1.712,2.4338e-05,0
1.7125,2.4674e-05,0
1.713,2.2995e-05,0
1.7135,2.182e-05,0
1.714,2.1988e-05,0
1.7145,1.9638e-05,0
1.715,1.6281e-05,0
1.7155,1.4939e-05,0
1.716,1.5106e-05,0
1.7165,1.5946e-05,0
1.717,1.8296e-05,0
1.7175,1.9135e-05,0
1.718,1.8128e-05,0
1.7185,1.6953e-05,0
1.719,1.6617e-05,0
1.7195,1.6449e-05,0
1.72,1.8463e-05,0
1.7205,1.9974e-05,0
1.721,1.9638e-05,0
1.7215,1.8631e-05,0
1.722,1.8296e-05,0
1.7225,1.8296e-05,0
1.723,1.8463e-05,0
1.7235,1.8631e-05,0
1.724,1.9303e-05,0
1.7245,1.9303e-05,0
1.725,1.8967e-05,0
1.7255,1.9303e-05,0
1.726,2.031e-05,0
1.7265,2.1317e-05,0
1.727,2.1317e-05,0
1.7275,1.9135e-05,0
1.728,1.6281e-05,0
1.7285,1.6281e-05,0
1.729,1.796e-05,0
1.7295,1.9303e-05,0
1.73,1.9303e-05,0
1.7305,2.031e-05,0
1.731,2.266e-05,0
1.7315,2.417e-05,0
1.732,2.3667e-05,0
1.7325,2.2324e-05,0
1.733,2.2156e-05,0
1.7335,2.031e-05,0
1.734,1.6617e-05,0
1.7345,1.561e-05,0
1.735,1.5946e-05,0
1.7355,1.6449e-05,0
1.736,1.6449e-05,0
1.7365,1.6953e-05,0
1.737,1.8631e-05,0
1.7375,1.9974e-05,0
1.738,2.0646e-05,0
1.7385,2.0813e-05,0
1.739,1.9135e-05,0
1.7395,1.6449e-05,0
1.74,1.5106e-05,0
1.7405,1.4435e-05,0
1.741,1.4267e-05,0
1.7415,1.5946e-05,0
1.742,1.7121e-05,0
1.7425,1.6617e-05,0
1.743,1.5946e-05,0
1.7435,1.561e-05,0
1.744,1.4771e-05,0
1.7445,1.561e-05,0
1.745,1.7288e-05,0
1.7455,1.796e-05,0
1.746,1.796e-05,0
1.7465,1.5946e-05,0
1.747,1.4939e-05,0
1.7475,1.5946e-05,0
1.748,1.7288e-05,0
1.7485,1.8631e-05,0
1.749,1.8128e-05,0
1.7495,1.6617e-05,0
1.75,1.5274e-05,0
1.7505,1.6281e-05,0
1.751,1.8631e-05,0
1.7515,1.9303e-05,0
1.752,1.8631e-05,0
1.7525,1.6953e-05,0
1.753,1.5778e-05,0
1.7535,1.4603e-05,0
1.754,1.4435e-05,0
1.7545,1.561e-05,0
1.755,1.7624e-05,0
1.7555,1.796e-05,0
1.756,1.7624e-05,0
1.7565,1.9974e-05,0
1.757,2.4002e-05,0
1.7575,2.7024e-05,0
1.758,2.7024e-05,0
1.7585,2.4506e-05,0
1.759,2.1653e-05,0
1.7595,1.9135e-05,0
1.76,1.7624e-05,0
1.7605,1.7288e-05,0
1.761,1.6953e-05,0
1.7615,1.5778e-05,0
1.762,1.6617e-05,0
1.7625,1.7792e-05,0
1.763,1.7624e-05,0
1.7635,1.796e-05,0
1.764,1.947e-05,0
1.7645,2.031e-05,0
1.765,2.1149e-05,0
1.7655,2.2492e-05,0
1.766,2.2324e-05,0
1.7665,2.0981e-05,0
1.767,2.0478e-05,0
1.7675,1.8631e-05,0
1.768,1.7792e-05,0
1.7685,1.7121e-05,0
1.769,1.4939e-05,0
1.7695,1.3092e-05,0
1.77,1.326e-05,0
1.7705,1.3596e-05,0
1.771,1.561e-05,0
1.7715,1.7792e-05,0
1.772,1.9974e-05,0
1.7725,1.9974e-05,0
1.773,1.7624e-05,0
1.7735,1.4939e-05,0
1.774,1.2924e-05,0
1.7745,1.3764e-05,0
1.775,1.6785e-05,0
1.7755,1.9303e-05,0
1.776,1.9638e-05,0
1.7765,1.9303e-05,0
1.777,2.1317e-05,0
1.7775,2.4002e-05,0
1.778,2.5009e-05,0
1.7785,2.266e-05,0
1.779,2.0981e-05,0
1.7795,2.0981e-05,0
1.78,2.2492e-05,0
1.7805,2.4002e-05,0
1.781,2.4506e-05,0
1.7815,2.2995e-05,0
1.782,2.0813e-05,0
1.7825,1.8631e-05,0
1.783,1.6785e-05,0
1.7835,1.5442e-05,0
1.784,1.4603e-05,0
1.7845,1.4939e-05,0
1.785,1.4771e-05,0
1.7855,1.3764e-05,0
1.786,1.3932e-05,0
1.7865,1.5778e-05,0
1.787,1.5946e-05,0
1.7875,1.6617e-05,0
1.788,1.6953e-05,0
1.7885,1.6617e-05,0
1.789,1.7121e-05,0
1.7895,1.9135e-05,0
1.79,2.2156e-05,0
1.7905,2.2995e-05,0
1.791,2.1317e-05,0
1.7915,2.0981e-05,0
1.792,2.1317e-05,0
1.7925,2.0646e-05,0
1.793,1.9135e-05,0
1.7935,1.8631e-05,0
1.794,2.0478e-05,0
1.7945,2.3667e-05,0
1.795,2.5009e-05,0
1.7955,2.2324e-05,0
1.796,1.9303e-05,0
1.7965,1.9638e-05,0
1.797,1.9974e-05,0
1.7975,2.0813e-05,0
1.798,2.1317e-05,0
1.7985,2.1317e-05,0
1.799,1.9974e-05,0
1.7995,1.8631e-05,0
1.8,1.7288e-05,0
1.8005,1.8296e-05,0
1.801,1.9974e-05,0
1.8015,2.266e-05,0
1.802,2.5681e-05,0
1.8025,2.7192e-05,0
1.803,2.6352e-05,0
1.8035,2.5177e-05,0
1.804,2.4002e-05,0
1.8045,2.182e-05,0
1.805,1.9974e-05,0
1.8055,1.947e-05,0
1.806,1.9638e-05,0
1.8065,1.8296e-05,0
1.807,1.6281e-05,0
1.8075,1.561e-05,0
1.808,1.5946e-05,0
1.8085,1.7121e-05,0
1.809,1.8631e-05,0
1.8095,2.1317e-05,0
1.81,2.4674e-05,0
1.8105,2.5849e-05,0
1.811,2.5009e-05,0
1.8115,2.2995e-05,0
1.812,1.9974e-05,0
1.8125,1.8631e-05,0
1.813,1.9303e-05,0
1.8135,1.9806e-05,0
1.814,1.9303e-05,0
1.8145,1.7288e-05,0
1.815,1.4267e-05,0
1.8155,1.1917e-05,0
1.816,1.0407e-05,0
1.8165,1.1414e-05,0
1.817,1.4267e-05,0
1.8175,1.6953e-05,0
1.818,1.8128e-05,0
1.8185,1.7456e-05,0
1.819,1.5946e-05,0
1.8195,1.5274e-05,0
1.82,1.7288e-05,0
1.8205,1.9303e-05,0
1.821,2.1317e-05,0
1.8215,2.3331e-05,0
1.822,2.3331e-05,0
1.8225,2.3667e-05,0
1.823,2.2492e-05,0
1.8235,2.2156e-05,0
1.824,2.2324e-05,0
1.8245,2.3331e-05,0
1.825,2.2995e-05,0
1.8255,2.1317e-05,0
1.826,2.0981e-05,0
1.8265,2.2995e-05,0
1.827,2.4002e-05,0
1.8275,2.266e-05,0
1.828,1.9303e-05,0
1.8285,1.6617e-05,0
1.829,1.7121e-05,0
1.8295,1.9303e-05,0
1.83,2.1149e-05,0
1.8305,2.0646e-05,0
1.831,2.031e-05,0
1.8315,1.9135e-05,0
1.832,1.7121e-05,0
1.8325,1.5778e-05,0
1.833,1.3428e-05,0
1.8335,1.091e-05,0
1.834,1.1246e-05,0
1.8345,1.2924e-05,0
1.835,1.2253e-05,0
1.8355,1.091e-05,0
1.836,1.0575e-05,0
1.8365,1.0575e-05,0
1.837,9.7353e-06,0
1.8375,1.0575e-05,0
1.838,1.2253e-05,0
1.8385,1.3932e-05,0
1.839,1.8296e-05,0
1.8395,2.3163e-05,0
1.84,2.7863e-05,0
1.8405,3.0213e-05,0
1.841,3.0716e-05,0
1.8415,3.122e-05,0
1.842,3.0716e-05,0
1.8425,2.7863e-05,0
1.843,2.5009e-05,0
1.8435,2.3331e-05,0
1.844,2.1317e-05,0
1.8445,1.8631e-05,0
1.845,1.7288e-05,0
1.8455,1.796e-05,0
1.846,1.8128e-05,0
1.8465,1.5778e-05,0
1.847,1.1917e-05,0
1.8475,1.091e-05,0
1.848,1.1917e-05,0
1.8485,1.2589e-05,0
1.849,1.1582e-05,0
1.8495,1.0575e-05,0
1.85,1.2253e-05,0
1.8505,1.4939e-05,0
1.851,1.9303e-05,0
1.8515,2.4674e-05,0
1.852,2.7192e-05,0
1.8525,2.8031e-05,0
1.853,3.1052e-05,0
1.8535,3.6591e-05,0
1.854,3.9109e-05,0
1.8545,3.7262e-05,0
1.855,3.1891e-05,0
1.8555,2.4674e-05,0
1.856,1.561e-05,0
1.8565,9.2317e-06,0
1.857,8.7282e-06,0
1.8575,1.3596e-05,0
1.858,1.8799e-05,0
1.8585,1.9303e-05,0
1.859,1.8799e-05,0
1.8595,1.8128e-05,0
1.86,1.6953e-05,0
1.8605,1.4771e-05,0
1.861,1.0239e-05,0
1.8615,7.7211e-06,0
1.862,6.714e-06,0
1.8625,1.0071e-05,0
1.863,1.5274e-05,0
1.8635,1.9303e-05,0
1.864,2.3163e-05,0
1.8645,2.7695e-05,0
1.865,3.0549e-05,0
1.8655,2.7359e-05,0
1.866,2.0981e-05,0
1.8665,1.4267e-05,0
1.867,1.0239e-05,0
1.8675,1.2589e-05,0
1.868,1.7792e-05,0
1.8685,1.8631e-05,0
1.869,1.6281e-05,0
1.8695,1.4603e-05,0
1.87,1.796e-05,0
1.8705,2.0981e-05,0
1.871,2.1317e-05,0
1.8715,2.0981e-05,0
1.872,1.9638e-05,0
1.8725,1.6617e-05,0
1.873,1.2757e-05,0
1.8735,1.1917e-05,0
1.874,1.4099e-05,0
1.8745,1.7456e-05,0
1.875,1.8463e-05,0
1.8755,1.7288e-05,0
1.876,1.6617e-05,0
1.8765,1.6785e-05,0
1.877,1.8463e-05,0
1.8775,2.1988e-05,0
1.878,2.2995e-05,0
1.8785,2.2828e-05,0
1.879,2.1317e-05,0
1.8795,1.8967e-05,0
1.88,1.5946e-05,0
1.8805,1.5442e-05,0
1.881,1.8128e-05,0
1.8815,2.3667e-05,0
1.882,2.7359e-05,0
1.8825,2.8367e-05,0
1.883,2.8702e-05,0
1.8835,2.9374e-05,0
1.884,2.9709e-05,0
1.8845,2.6352e-05,0
1.885,2.1485e-05,0
1.8855,1.796e-05,0
1.886,1.8296e-05,0
1.8865,1.8631e-05,0
1.887,1.8967e-05,0
1.8875,2.1149e-05,0
1.888,2.266e-05,0
1.8885,2.182e-05,0
1.889,1.947e-05,0
1.8895,1.6617e-05,0
1.89,1.5442e-05,0
1.8905,1.4939e-05,0
1.891,1.3932e-05,0
1.8915,1.3092e-05,0
1.892,1.2924e-05,0
1.8925,1.4099e-05,0
1.893,1.4939e-05,0
1.8935,1.5106e-05,0
1.894,1.4267e-05,0
1.8945,1.3596e-05,0
1.895,1.1917e-05,0
1.8955,9.2317e-06,0
1.896,6.3783e-06,0
1.8965,5.539e-06,0
1.897,7.8889e-06,0
1.8975,1.1246e-05,0
1.898,1.326e-05,0
1.8985,1.3764e-05,0
1.899,1.4603e-05,0
1.8995,1.6785e-05,0
1.9,1.8799e-05,0
1.9005,1.9135e-05,0
1.901,1.8463e-05,0
1.9015,1.7456e-05,0
1.902,1.796e-05,0
1.9025,1.796e-05,0
1.903,1.4939e-05,0
1.9035,1.1246e-05,0
1.904,8.896e-06,0
1.9045,9.9031e-06,0
1.905,1.7121e-05,0
1.9055,2.9038e-05,0
1.906,4.1962e-05,0
1.9065,4.9683e-05,0
1.907,4.918e-05,0
1.9075,4.4144e-05,0
1.908,3.9948e-05,0
1.9085,3.9948e-05,0
1.909,4.1123e-05,0
1.9095,3.6759e-05,0
1.91,2.8031e-05,0
1.9105,1.9135e-05,0
1.911,1.2924e-05,0
1.9115,9.9031e-06,0
1.912,7.8889e-06,0
1.9125,4.6998e-06,0
1.913,8.392e-07,0
1.9135,-1.8463e-06,0
1.914,-4.1962e-06,0
1.9145,-2.8534e-06,0
1.915,3.1891e-06,0
1.9155,8.5603e-06,0
1.916,1.1246e-05,0
1.9165,1.4099e-05,0
1.917,1.5946e-05,0
1.9175,1.5274e-05,0
1.918,1.796e-05,0
1.9185,2.5849e-05,0
1.919,3.7934e-05,0
1.9195,4.9515e-05,0
1.92,5.623e-05,0
1.9205,5.4215e-05,0
1.921,4.5151e-05,0
1.9215,3.8102e-05,0
1.922,3.508e-05,0
1.9225,3.122e-05,0
1.923,2.5513e-05,0
1.9235,2.0981e-05,0
1.924,1.6617e-05,0
1.9245,1.1246e-05,0
1.925,4.3641e-06,0
1.9255,-3.1891e-06,0
1.926,-8.2246e-06,0
1.9265,-1.4099e-05,0
1.927,-2.0981e-05,0
1.9275,-2.7024e-05,0
1.928,-3.0716e-05,0
1.9285,-2.9542e-05,0
1.929,-2.4506e-05,0
1.9295,-1.7624e-05,0
1.93,-1.2253e-05,0
1.9305,-6.3783e-06,0
1.931,2.182e-06,0
1.9315,1.0575e-05,0
1.932,1.5274e-05,0
1.9325,1.6617e-05,0
1.933,1.4939e-05,0
1.9335,1.2589e-05,0
1.934,1.1414e-05,0
1.9345,1.2924e-05,0
1.935,1.3092e-05,0
1.9355,1.3596e-05,0
1.936,1.9303e-05,0
1.9365,2.7024e-05,0
1.937,3.2227e-05,0
1.9375,3.5752e-05,0
1.938,4.2466e-05,0
1.9385,5.5558e-05,0
1.939,7.2343e-05,0
1.9395,8.0735e-05,0
1.94,7.6036e-05,0
1.9405,6.4622e-05,0
1.941,5.4048e-05,0
1.9415,4.5991e-05,0
1.942,3.7766e-05,0
1.9425,2.9206e-05,0
1.943,2.4002e-05,0
1.9435,2.0981e-05,0
1.944,1.9303e-05,0
1.9445,2.4002e-05,0
1.945,3.2731e-05,0
1.9455,3.8773e-05,0
1.946,4.0116e-05,0
1.9465,3.6759e-05,0
1.947,3.0716e-05,0
1.9475,2.2324e-05,0
1.948,1.4267e-05,0
1.9485,8.5603e-06,0
1.949,5.539e-06,0
1.9495,3.1891e-06,0
1.95,1.1749e-06,0
1.9505,8.392e-07,0
1.951,8.392e-07,0
1.9515,2.5177e-06,0
1.952,7.0497e-06,0
1.9525,1.5274e-05,0
1.953,2.2156e-05,0
1.9535,2.5345e-05,0
1.954,2.8702e-05,0
1.9545,3.2395e-05,0
1.955,3.2898e-05,0
1.9555,2.9374e-05,0
1.956,2.652e-05,0
1.9565,3.3402e-05,0
1.957,4.4144e-05,0
1.9575,4.6662e-05,0
1.958,3.9277e-05,0
1.9585,3.0549e-05,0
1.959,2.8702e-05,0
1.9595,2.9038e-05,0
1.96,2.5849e-05,0
1.9605,2.1149e-05,0
1.961,1.9806e-05,0
1.9615,2.2324e-05,0
1.962,2.4002e-05,0
1.9625,2.2324e-05,0
1.963,1.8463e-05,0
1.9635,1.561e-05,0
1.964,1.5442e-05,0
1.9645,1.4603e-05,0
1.965,1.1246e-05,0
1.9655,1.0407e-05,0
1.966,1.4435e-05,0
1.9665,1.8631e-05,0
1.967,1.6953e-05,0
1.9675,8.896e-06,0
1.968,1.8463e-06,0
1.9685,5.035e-07,0
1.969,2.182e-06,0
1.9695,4.5319e-06,0
1.97,7.7211e-06,0
1.9705,1.1246e-05,0
1.971,2.0981e-05,0
1.9715,3.5416e-05,0
1.972,4.4312e-05,0
1.9725,4.448e-05,0
1.973,4.5151e-05,0
1.9735,5.5222e-05,0
1.974,6.8315e-05,0
1.9745,7.0329e-05,0
1.975,6.2104e-05,0
1.9755,5.2537e-05,0
1.976,3.8102e-05,0
1.9765,1.8296e-05,0
1.977,1.8463e-06,0
1.9775,-6.5461e-06,0
1.978,-1.4267e-05,0
1.9785,-2.4002e-05,0
1.979,-3.2731e-05,0
1.9795,-3.7262e-05,0
1.98,-3.6423e-05,0
1.9805,-3.6759e-05,0
1.981,-4.3305e-05,0
1.9815,-5.4383e-05,0
1.982,-6.6636e-05,0
1.9825,-7.4021e-05,0
1.983,-6.9657e-05,0
1.9835,-5.4048e-05,0
1.984,-3.4241e-05,0
1.9845,-2.4002e-05,0
1.985,-2.2995e-05,0
1.9855,-1.5274e-05,0
1.986,4.1962e-06,0
1.9865,3.2731e-05,0
1.987,7.0161e-05,0
1.9875,9.9199e-05,0
1.988,0.00010541,0
1.9885,9.3156e-05,0
1.989,8.04e-05,0
1.9895,7.4357e-05,0
1.99,6.8986e-05,0
1.9905,5.7572e-05,0
1.991,3.8773e-05,0
1.9915,2.0646e-05,0
1.992,1.1917e-05,0
1.9925,1.0071e-05,0
1.993,1.1246e-05,0
1.9935,6.5461e-06,0
1.994,-4.8676e-06,0
1.9945,-1.2757e-05,0
1.995,-1.5274e-05,0
1.9955,-1.9806e-05,0
1.996,-2.6856e-05,0
1.9965,-2.6688e-05,0
1.997,-1.6281e-05,0
1.9975,8.392e-07,0
1.998,1.7288e-05,0
1.9985,3.2059e-05,0
1.999,4.1962e-05,0
1.9995,4.4144e-05,0
2,4.1795e-05,0
2.0005,4.2466e-05,0
2.001,4.4984e-05,0
2.0015,4.3977e-05,0
2.002,4.1627e-05,0
2.0025,4.1459e-05,0
2.003,4.3473e-05,0
2.0035,4.4648e-05,0
2.004,3.978e-05,0
2.0045,3.3066e-05,0
2.005,3.3906e-05,0
2.0055,3.6423e-05,0
2.006,3.4073e-05,0
2.0065,2.4674e-05,0
2.007,1.1582e-05,0
2.0075,3.1891e-06,0
2.008,-2.5177e-06,0
2.0085,-9.2317e-06,0
2.009,-1.561e-05,0
2.0095,-1.3596e-05,0
2.01,-5.539e-06,0
2.0105,-1.3428e-06,0
2.011,-3.1891e-06,0
2.0115,-2.0142e-06,0
2.012,3.8605e-06,0
2.0125,9.2317e-06,0
2.013,1.2924e-05,0
2.0135,1.9303e-05,0
2.014,2.3667e-05,0
2.0145,2.1317e-05,0
2.015,1.5946e-05,0
2.0155,1.326e-05,0
2.016,1.326e-05,0
2.0165,1.5946e-05,0
2.017,2.031e-05,0
2.0175,2.3667e-05,0
2.018,2.4842e-05,0
2.0185,2.8534e-05,0
2.019,3.3906e-05,0
2.0195,3.6759e-05,0
2.02,3.6088e-05,0
2.0205,3.4409e-05,0
2.021,3.508e-05,0
2.0215,4.2634e-05,0
2.022,5.3544e-05,0
2.0225,5.7908e-05,0
2.023,5.1865e-05,0
2.0235,4.0116e-05,0
2.024,3.0716e-05,0
2.0245,2.6688e-05,0
2.025,3.0549e-05,0
2.0255,4.4144e-05,0
2.026,5.6901e-05,0
2.0265,6.3615e-05,0
2.027,6.5629e-05,0
2.0275,6.6804e-05,0
2.028,6.7475e-05,0
2.0285,6.9657e-05,0
2.029,7.2847e-05,0
2.0295,7.1e-05,0
2.03,6.5629e-05,0
2.0305,6.009e-05,0
2.031,5.3544e-05,0
2.0315,4.5487e-05,0
2.032,3.6088e-05,0
2.0325,2.9374e-05,0
2.033,2.9709e-05,0
2.0335,3.2731e-05,0
2.034,3.6088e-05,0
2.0345,3.3738e-05,0
2.035,2.4674e-05,0
2.0355,1.9303e-05,0
2.036,2.6184e-05,0
2.0365,3.6255e-05,0
2.037,3.5416e-05,0
2.0375,2.2324e-05,0
2.038,6.2104e-06,0
2.0385,-4.5319e-06,0
2.039,-1.4603e-05,0
2.0395,-2.7695e-05,0
2.04,-4.0452e-05,0
2.0405,-5.2872e-05,0
2.041,-6.9993e-05,0
2.0415,-8.5267e-05,0
2.042,-8.7114e-05,0
2.0425,-7.4357e-05,0
2.043,-4.9851e-05,0
2.0435,-2.1149e-05,0
2.044,-6.8818e-06,0
2.0445,-7.8889e-06,0
2.045,-8.392e-07,0
2.0455,1.9303e-05,0
2.046,3.6423e-05,0
2.0465,4.2466e-05,0
2.047,3.978e-05,0
2.0475,3.827e-05,0
2.048,3.5752e-05,0
2.0485,2.9374e-05,0
2.049,2.6688e-05,0
2.0495,2.5849e-05,0
2.05,2.0813e-05,0
2.0505,1.0239e-05,0
2.051,-3.6927e-06,0
2.0515,-1.7121e-05,0
2.052,-2.3163e-05,0
2.0525,-2.2828e-05,0
2.053,-2.4338e-05,0
2.0535,-2.1653e-05,0
2.054,-5.2033e-06,0
2.0545,2.1653e-05,0
2.055,4.3641e-05,0
2.0555,4.8844e-05,0
2.056,4.1291e-05,0
2.0565,2.6017e-05,0
2.057,1.0239e-05,0
2.0575,1.5106e-06,0
2.058,3.1891e-06,0
2.0585,9.2317e-06,0
2.059,9.9031e-06,0
2.0595,8.2246e-06,0
2.06,1.0071e-05,0
2.0605,1.326e-05,0
2.061,1.1246e-05,0
2.0615,5.2033e-06,0
2.062,-6.8818e-06,0
2.0625,-2.7192e-05,0
2.063,-5.069e-05,0
2.0635,-6.4622e-05,0
2.064,-6.0761e-05,0
2.0645,-4.683e-05,0
2.065,-3.1052e-05,0
2.0655,-2.0981e-05,0
2.066,-1.3092e-05,0
2.0665,1.1749e-06,0
2.067,2.2995e-05,0
2.0675,4.1627e-05,0
2.068,5.1194e-05,0
2.0685,5.153e-05,0
2.069,4.4816e-05,0
2.0695,4.0116e-05,0
2.07,4.0116e-05,0
2.0705,4.1291e-05,0
2.071,4.6159e-05,0
2.0715,5.4383e-05,0
2.072,6.0594e-05,0
2.0725,6.1936e-05,0
2.073,6.1265e-05,0
2.0735,6.0761e-05,0
2.074,5.8915e-05,0
2.0745,5.8244e-05,0
2.075,5.8915e-05,0
2.0755,6.1433e-05,0
2.076,7.1504e-05,0
2.0765,9.1142e-05,0
2.077,0.00011397,0
2.0775,0.00012337,0
2.078,0.00011464,0
2.0785,9.6178e-05,0
2.079,8.04e-05,0
2.0795,6.8315e-05,0
2.08,5.8915e-05,0
2.0805,5.623e-05,0
2.081,5.8076e-05,0
2.0815,6.1769e-05,0
2.082,7.2175e-05,0
2.0825,8.8289e-05,0
2.083,9.9199e-05,0
2.0835,9.2821e-05,0
2.084,6.2776e-05,0
2.0845,2.1317e-05,0
2.085,-1.7792e-05,0
2.0855,-4.3641e-05,0
2.086,-4.9851e-05,0
2.0865,-3.978e-05,0
2.087,-2.6017e-05,0
2.0875,-1.6953e-05,0
2.088,-1.4939e-05,0
2.0885,-1.3932e-05,0
2.089,-1.0071e-06,0
2.0895,2.2156e-05,0
2.09,3.4745e-05,0
2.0905,2.4674e-05,0
2.091,4.6998e-06,0
2.0915,-1.1246e-05,0
2.092,-2.1653e-05,0
2.0925,-1.9638e-05,0
2.093,-9.2317e-06,0
2.0935,-1.1749e-06,0
2.094,-7.7211e-06,0
2.0945,-3.1724e-05,0
2.095,-4.6326e-05,0
2.0955,-3.7095e-05,0
2.096,-2.2156e-05,0
2.0965,-1.326e-05,0
2.097,-6.8818e-06,0
2.0975,-2.5177e-06,0
2.098,2.8534e-06,0
2.0985,1.5946e-05,0
2.099,3.8437e-05,0
2.0995,6.5293e-05,0
2.1,8.3757e-05,0
2.1005,7.7714e-05,0
2.101,4.5991e-05,0
2.1015,6.5461e-06,0
2.102,-1.9806e-05,0
2.1025,-2.7359e-05,0
2.103,-2.652e-05,0
2.1035,-2.9709e-05,0
2.104,-3.6759e-05,0
2.1045,-3.0381e-05,0
2.105,-2.182e-06,0
2.1055,3.743e-05,0
2.106,6.7308e-05,0
2.1065,7.7714e-05,0
2.107,7.8386e-05,0
2.1075,7.6371e-05,0
2.108,6.4958e-05,0
2.1085,4.7333e-05,0
2.109,2.8534e-05,0
2.1095,1.8296e-05,0
2.11,1.4939e-05,0
2.1105,4.8676e-06,0
2.111,-1.4099e-05,0
2.1115,-4.2466e-05,0
2.112,-7.5029e-05,0
2.1125,-0.0001039,0
2.113,-0.00012303,0
2.1135,-0.00011884,0
2.114,-9.2485e-05,0
2.1145,-6.4622e-05,0
2.115,-4.7501e-05,0
2.1155,-3.7262e-05,0
2.116,-2.3331e-05,0
2.1165,-2.182e-06,0
2.117,1.9135e-05,0
2.1175,3.5752e-05,0
2.118,4.0116e-05,0
2.1185,3.2731e-05,0
2.119,2.0646e-05,0
2.1195,1.3428e-05,0
2.12,1.561e-05,0
2.1205,2.0646e-05,0
2.121,2.2324e-05,0
2.1215,2.8031e-05,0
2.122,3.9445e-05,0
2.1225,4.7501e-05,0
2.123,5.4551e-05,0
2.1235,6.2776e-05,0
2.124,6.9657e-05,0
2.1245,7.6371e-05,0
2.125,8.04e-05,0
2.1255,7.9225e-05,0
2.126,6.8315e-05,0
2.1265,5.1865e-05,0
2.127,3.8437e-05,0
2.1275,3.1556e-05,0
2.128,2.6688e-05,0
2.1285,2.1988e-05,0
2.129,2.5849e-05,0
2.1295,4.1459e-05,0
2.13,5.8915e-05,0
2.1305,7.4693e-05,0
2.131,8.4093e-05,0
2.1315,8.275e-05,0
2.132,7.7211e-05,0
2.1325,7.4861e-05,0
2.133,6.9993e-05,0
2.1335,6.5629e-05,0
2.134,7.1336e-05,0
2.1345,8.7114e-05,0
2.135,9.7688e-05,0
2.1355,9.3156e-05,0
2.136,7.805e-05,0
2.1365,5.9251e-05,0
2.137,5.0858e-05,0
2.1375,5.3208e-05,0
2.138,5.6565e-05,0
2.1385,6.63e-05,0
2.139,8.04e-05,0
2.1395,8.3757e-05,0
2.14,7.2847e-05,0
2.1405,5.9922e-05,0
2.141,5.0523e-05,0
2.1415,3.8102e-05,0
2.142,1.6281e-05,0
2.1425,-2.0478e-05,0
2.143,-6.1601e-05,0
2.1435,-9.5171e-05,0
2.144,-0.00011901,0
2.1445,-0.00014083,0
2.145,-0.00015862,0
2.1455,-0.00016214,0
2.146,-0.00015795,0
2.1465,-0.00015727,0
2.147,-0.0001509,0
2.1475,-0.0001279,0
2.148,-9.3996e-05,0
2.1485,-6.1433e-05,0
2.149,-3.4577e-05,0
2.1495,-6.8818e-06,0
2.15,2.3667e-05,0
2.1505,4.7501e-05,0
2.151,5.4215e-05,0
2.1515,5.2872e-05,0
2.152,5.5894e-05,0
2.1525,6.6468e-05,0
2.153,7.7882e-05,0
2.1535,8.04e-05,0
2.154,7.5029e-05,0
2.1545,6.7475e-05,0
2.155,5.9587e-05,0
2.1555,5.6565e-05,0
2.156,6.2944e-05,0
2.1565,7.956e-05,0
2.157,9.5171e-05,0
2.1575,0.00010188,0
2.158,0.00010172,0
2.1585,9.4499e-05,0
2.159,8.2414e-05,0
2.1595,6.6972e-05,0
2.16,4.4816e-05,0
2.1605,1.9135e-05,0
2.161,-1.5106e-06,0
2.1615,-1.1246e-05,0
2.162,-9.5674e-06,0
2.1625,-2.5177e-06,0
2.163,-1.5106e-06,0
2.1635,-7.8889e-06,0
2.164,-1.6617e-05,0
2.1645,-1.4939e-05,0
2.165,4.1962e-06,0
2.1655,3.6423e-05,0
2.166,5.8244e-05,0
2.1665,5.2033e-05,0
2.167,4.0116e-05,0
2.1675,4.2634e-05,0
2.168,5.1194e-05,0
2.1685,4.683e-05,0
2.169,3.4409e-05,0
2.1695,2.5345e-05,0
2.17,2.182e-05,0
2.1705,2.2492e-05,0
2.171,1.9638e-05,0
2.1715,5.7069e-06,0
2.172,-1.2253e-05,0
2.1725,-3.1724e-05,0
2.173,-4.9851e-05,0
2.1735,-5.7908e-05,0
2.174,-5.5894e-05,0
2.1745,-4.8173e-05,0
2.175,-2.8367e-05,0
2.1755,-2.3499e-06,0
2.176,1.6281e-05,0
2.1765,2.3331e-05,0
2.177,2.8367e-05,0
2.1775,3.7262e-05,0
2.178,4.7669e-05,0
2.1785,5.7237e-05,0
2.179,7.7378e-05,0
2.1795,0.00010994,0
2.18,0.00013948,0
2.1805,0.00014821,0
2.181,0.00013378,0
2.1815,0.00010692,0
2.182,7.57e-05,0
2.1825,4.4144e-05,0
2.183,1.8463e-05,0
2.1835,1.8463e-06,0
2.184,-6.3783e-06,0
2.1845,-8.2246e-06,0
2.185,-3.0213e-06,0
2.1855,5.8747e-06,0
2.186,9.9031e-06,0
2.1865,3.0213e-06,0
2.187,-1.8967e-05,0
2.1875,-4.6494e-05,0
2.188,-6.3951e-05,0
2.1885,-7.3686e-05,0
2.189,-7.8553e-05,0
2.1895,-6.6636e-05,0
2.19,-3.9948e-05,0
2.1905,-9.5674e-06,0
2.191,1.8128e-05,0
2.1915,3.4577e-05,0
2.192,3.2395e-05,0
2.1925,1.8967e-05,0
2.193,5.2033e-06,0
2.1935,-2.8534e-06,0
2.194,-5.539e-06,0
2.1945,1.8463e-06,0
2.195,1.3932e-05,0
2.1955,1.6114e-05,0
2.196,4.5319e-06,0
2.1965,-1.1246e-05,0
2.197,-2.031e-05,0
2.1975,-2.1653e-05,0
2.198,-1.6449e-05,0
2.1985,3.0213e-06,0
2.199,4.2466e-05,0
2.1995,8.3757e-05,0
2.2,0.00010457,0
2.2005,0.00010021,0
2.201,7.9728e-05,0
2.2015,6.0426e-05,0
2.202,4.9851e-05,0
2.2025,4.683e-05,0
2.203,4.2802e-05,0
2.2035,3.2395e-05,0
2.204,1.947e-05,0
2.2045,7.2175e-06,0
2.205,-5.2033e-06,0
2.2055,-2.6017e-05,0
2.206,-5.0187e-05,0
2.2065,-5.4551e-05,0
2.207,-3.7766e-05,0
2.2075,-9.7353e-06,0
2.208,1.5442e-05,0
2.2085,2.9374e-05,0
2.209,3.6423e-05,0
2.2095,4.1795e-05,0
2.21,4.2466e-05,0
2.2105,3.9612e-05,0
2.211,3.4745e-05,0
2.2115,2.4674e-05,0
2.212,1.3932e-05,0
2.2125,1.6617e-05,0
2.213,3.3738e-05,0
2.2135,5.7572e-05,0
2.214,7.57e-05,0
2.2145,8.1743e-05,0
2.215,7.7714e-05,0
2.2155,6.3951e-05,0
2.216,4.6662e-05,0
2.2165,3.4409e-05,0
2.217,2.2995e-05,0
2.2175,5.2033e-06,0
2.218,-2.0646e-05,0
2.2185,-4.4816e-05,0
2.219,-5.9922e-05,0
2.2195,-6.2272e-05,0
2.22,-4.8844e-05,0
2.2205,-1.8463e-05,0
2.221,8.2246e-06,0
2.2215,1.8631e-05,0
2.222,1.9806e-05,0
2.2225,2.0981e-05,0
2.223,2.2995e-05,0
2.2235,2.3331e-05,0
2.224,2.3667e-05,0
2.2245,3.4745e-05,0
2.225,4.9515e-05,0
2.2255,5.0187e-05,0
2.226,4.0619e-05,0
2.2265,3.3066e-05,0
2.227,1.6617e-05,0
2.2275,-1.7624e-05,0
2.228,-4.918e-05,0
2.2285,-5.4551e-05,0
2.229,-2.3499e-05,0
2.2295,4.448e-05,0
2.23,0.00011632,0
2.2305,0.00015929,0
2.231,0.00015895,0
2.2315,0.0001133,0
2.232,4.7837e-05,0
2.2325,-3.357e-07,0
2.233,-1.6953e-05,0
2.2335,-1.4771e-05,0
2.234,-1.3932e-05,0
2.2345,-2.4506e-05,0
2.235,-3.8102e-05,0
2.2355,-4.1795e-05,0
2.236,-4.0452e-05,0
2.2365,-4.5487e-05,0
2.237,-5.4719e-05,0
2.2375,-6.0594e-05,0
2.238,-6.0761e-05,0
2.2385,-5.4551e-05,0
2.239,-3.9445e-05,0
2.2395,-2.4506e-05,0
2.24,-1.4099e-05,0
2.2405,-5.539e-06,0
2.241,1.1749e-06,0
2.2415,8.896e-06,0
2.242,1.8631e-05,0
2.2425,2.9038e-05,0
2.243,3.7095e-05,0
2.2435,4.1795e-05,0
2.244,4.2802e-05,0
2.2445,4.2802e-05,0
2.245,4.3305e-05,0
2.2455,4.4816e-05,0
2.246,4.7166e-05,0
2.2465,4.9515e-05,0
2.247,5.1194e-05,0
2.2475,5.0858e-05,0
2.248,5.2033e-05,0
2.2485,5.5558e-05,0
2.249,6.0258e-05,0
2.2495,6.3615e-05,0
2.25,6.6804e-05,0
2.2505,6.949e-05,0
2.251,6.8818e-05,0
2.2515,6.5293e-05,0
2.252,6.1097e-05,0
2.2525,5.5558e-05,0
2.253,5.0858e-05,0
2.2535,4.7166e-05,0
2.254,4.4648e-05,0
2.2545,5.0858e-05,0
2.255,6.63e-05,0
2.2555,7.4693e-05,0
2.256,7.1e-05,0
2.2565,6.6636e-05,0
2.257,6.7308e-05,0
2.2575,6.9993e-05,0
2.258,7.1e-05,0
2.2585,6.6133e-05,0
2.259,5.7908e-05,0
2.2595,4.8005e-05,0
2.26,3.3402e-05,0
2.2605,1.4267e-05,0
2.261,0,0
2.2615,-1.1749e-06,0
2.262,6.8818e-06,0
2.2625,1.1917e-05,0
2.263,2.5009e-05,0
2.2635,4.3977e-05,0
2.264,4.0787e-05,0
2.2645,8.3925e-06,0
2.265,-2.7695e-05,0
2.2655,-4.8508e-05,0
2.266,-5.1362e-05,0
2.2665,-3.4073e-05,0
2.267,2.182e-06,0
2.2675,5.2201e-05,0
2.268,0.0001044,0
2.2685,0.00013931,0
2.269,0.00014083,0
2.2695,0.00011095,0
2.27,6.6133e-05,0
2.2705,1.8967e-05,0
2.271,-2.5513e-05,0
2.2715,-6.0426e-05,0
2.272,-6.3951e-05,0
2.2725,-3.1724e-05,0
2.273,2.8534e-06,0
2.2735,1.2253e-05,0
2.274,-6.714e-07,0
2.2745,-1.2924e-05,0
2.275,-1.9638e-05,0
2.2755,-3.4409e-05,0
2.276,-6.1265e-05,0
2.2765,-8.2582e-05,0
2.277,-8.0735e-05,0
2.2775,-5.8915e-05,0
2.278,-3.357e-05,0
2.2785,-2.7695e-05,0
2.279,-4.1459e-05,0
2.2795,-5.8747e-05,0
2.28,-6.7979e-05,0
2.2805,-6.5293e-05,0
2.281,-5.0523e-05,0
2.2815,-3.508e-05,0
2.282,-3.3234e-05,0
2.2825,-3.4577e-05,0
2.283,-1.5274e-05,0
2.2835,3.7095e-05,0
2.284,0.00011095,0
2.2845,0.00016634,0
2.285,0.00018682,0
2.2855,0.00020058,0
2.286,0.00020092,0
2.2865,0.00015929,0
2.287,8.3589e-05,0
2.2875,6.5461e-06,0
2.288,-4.8341e-05,0
2.2885,-6.4286e-05,0
2.289,-4.9515e-05,0
2.2895,-2.5009e-05,0
2.29,-8.896e-06,0
2.2905,-2.6184e-05,0
2.291,-8.7282e-05,0
2.2915,-0.00016147,0
2.292,-0.00020327,0
2.2925,-0.00019118,0
2.293,-0.00014922,0
2.2935,-0.00011296,0
2.294,-9.3996e-05,0
2.2945,-7.7546e-05,0
2.295,-5.539e-05,0
2.2955,-3.2395e-05,0
2.296,-1.947e-05,0
2.2965,-2.1653e-05,0
2.297,-3.4073e-05,0
2.2975,-4.1123e-05,0
2.298,-3.2059e-05,0
2.2985,-1.6281e-05,0
2.299,7.8889e-06,0
2.2995,4.8844e-05,0
2.3,9.3156e-05,0
2.3005,0.00012337,0
2.301,0.00012924,0
2.3015,0.00011548,0
2.302,9.9031e-05,0
2.3025,9.5003e-05,0
2.303,0.00010625,0
2.3035,0.00011766,0
2.304,0.00011531,0
2.3045,0.00011162,0
2.305,0.00011716,0
2.3055,0.00011766,0
2.306,9.9702e-05,0
2.3065,7.4693e-05,0
2.307,5.2537e-05,0
2.3075,3.4073e-05,0
2.308,2.3835e-05,0
2.3085,2.887e-05,0
2.309,4.0787e-05,0
2.3095,5.388e-05,0
2.31,6.0258e-05,0
2.3105,5.7908e-05,0
2.311,5.9587e-05,0
2.3115,8.4428e-05,0
2.312,0.00012337,0
2.3125,0.00014536,0
2.313,0.00014318,0
2.3135,0.00013478,0
2.314,0.0001284,0
2.3145,0.00011833,0
2.315,9.3492e-05,0
2.3155,4.9515e-05,0
2.316,3.8605e-06,0
2.3165,-2.1653e-05,0
2.317,-2.1653e-05,0
2.3175,-1.3764e-05,0
2.318,-2.0981e-05,0
2.3185,-4.4984e-05,0
2.319,-6.7979e-05,0
2.3195,-8.51e-05,0
2.32,-9.6345e-05,0
2.3205,-8.9967e-05,0
2.321,-5.6901e-05,0
2.3215,-7.8889e-06,0
2.322,2.4002e-05,0
2.3225,2.4842e-05,0
2.323,8.7282e-06,0
2.3235,-9.9031e-06,0
2.324,-1.9303e-05,0
2.3245,-1.5106e-05,0
2.325,3.0213e-06,0
2.3255,3.0549e-05,0
2.326,4.3473e-05,0
2.3265,3.0716e-05,0
2.327,1.8631e-05,0
2.3275,3.1388e-05,0
2.328,5.6062e-05,0
2.3285,8.3757e-05,0
2.329,0.00013529,0
2.3295,0.00022206,0
2.33,0.0002986,0
2.3305,0.00030414,0
2.331,0.00023751,0
2.3315,0.00015425,0
2.332,0.00010088,0
2.3325,7.0664e-05,0
2.333,4.1123e-05,0
2.3335,1.5274e-05,0
2.334,-7.2175e-06,0
2.3345,-5.1865e-05,0
2.335,-0.00010692,0
2.3355,-0.0001378,0
2.336,-0.00014737,0
2.3365,-0.00014049,0
2.337,-0.000118,0
2.3375,-0.00010155,0
2.338,-0.00010138,0
2.3385,-9.8192e-05,0
2.339,-7.9057e-05,0
2.3395,-6.8315e-05,0
2.34,-8.191e-05,0
2.3405,-0.00010658,0
2.341,-0.00012136,0
2.3415,-0.00012169,0
2.342,-0.00011649,0
2.3425,-0.00011901,0
2.343,-0.0001321,0
2.3435,-0.00013629,0
2.344,-0.00010491,0
2.3445,-4.5655e-05,0
2.345,8.392e-07,0
2.3455,1.6617e-05,0
2.346,1.6281e-05,0
2.3465,1.796e-05,0
2.347,2.6688e-05,0
2.3475,4.0452e-05,0
2.348,5.4887e-05,0
2.3485,6.4958e-05,0
2.349,6.8818e-05,0
2.3495,6.714e-05,0
2.35,6.0929e-05,0
2.3505,5.0858e-05,0
2.351,4.2802e-05,0
2.3515,4.1459e-05,0
2.352,5.0523e-05,0
2.3525,6.8986e-05,0
2.353,8.4428e-05,0
2.3535,8.9632e-05,0
2.354,9.6345e-05,0
2.3545,0.00012639,0
2.355,0.00016768,0
2.3555,0.00018682,0
2.356,0.00017775,0
2.3565,0.00015862,0
2.357,0.00015291,0
2.3575,0.00015291,0
2.358,0.00013294,0
2.3585,9.6345e-05,0
2.359,6.8986e-05,0
2.3595,6.0258e-05,0
2.36,4.9012e-05,0
2.3605,2.4002e-05,0
2.361,-9.5674e-06,0
2.3615,-4.0284e-05,0
2.362,-5.0019e-05,0
2.3625,-3.1891e-05,0
2.363,-9.5674e-06,0
2.3635,-1.5106e-06,0
2.364,-1.5106e-06,0
2.3645,-6.5461e-06,0
2.365,-2.5681e-05,0
2.3655,-5.4887e-05,0
2.366,-7.8889e-05,0
2.3665,-7.7714e-05,0
2.367,-5.4551e-05,0
2.3675,-2.417e-05,0
2.368,5.539e-06,0
2.3685,2.7863e-05,0
2.369,3.4409e-05,0
2.3695,3.8102e-05,0
2.37,5.9251e-05,0
2.3705,8.8289e-05,0
2.371,9.5842e-05,0
2.3715,7.4357e-05,0
2.372,3.9948e-05,0
2.3725,1.0407e-05,0
2.373,-4.3641e-06,0
2.3735,-1.3932e-05,0
2.374,-2.5345e-05,0
2.3745,-3.592e-05,0
2.375,-3.9109e-05,0
2.3755,-3.2731e-05,0
2.376,-2.0646e-05,0
2.3765,-1.6281e-05,0
2.377,-2.7695e-05,0
2.3775,-3.3738e-05,0
2.378,-6.714e-06,0
2.3785,2.7359e-05,0
2.379,4.3473e-05,0
2.3795,4.9515e-05,0
2.38,5.2872e-05,0
2.3805,4.4144e-05,0
2.381,2.3163e-05,0
2.3815,3.1891e-06,0
2.382,-3.5248e-06,0
2.3825,6.8818e-06,0
2.383,1.6953e-05,0
2.3835,2.0142e-05,0
2.384,2.1653e-05,0
2.3845,2.031e-05,0
2.385,1.6449e-05,0
2.3855,1.2253e-05,0
2.386,3.1891e-06,0
2.3865,-2.8534e-06,0
2.387,5.7069e-06,0
2.3875,1.561e-05,0
2.388,1.4603e-05,0
2.3885,1.2589e-05,0
2.389,1.326e-05,0
2.3895,1.7624e-05,0
2.39,3.592e-05,0
2.3905,5.153e-05,0
2.391,4.1962e-05,0
2.3915,9.5674e-06,0
2.392,-1.9806e-05,0
2.3925,-1.091e-05,0
2.393,5.1194e-05,0
2.3935,0.00012102,0
2.394,0.00014217,0
2.3945,0.000118,0
2.395,8.1743e-05,0
2.3955,5.5894e-05,0
2.396,4.1459e-05,0
2.3965,1.8128e-05,0
2.397,-1.7288e-05,0
2.3975,-3.4409e-05,0
2.398,-1.4267e-05,0
2.3985,1.4267e-05,0
2.399,1.5946e-05,0
2.3995,-1.8128e-05,0
2.4,-6.8482e-05,0
2.4005,-9.7017e-05,0
2.401,-9.6178e-05,0
2.4015,-8.896e-05,0
2.402,-7.8218e-05,0
2.4025,-5.0523e-05,0
2.403,-1.678e-07,0
2.4035,4.4648e-05,0
2.404,5.9922e-05,0
2.4045,6.1936e-05,0
2.405,6.6972e-05,0
2.4055,6.865e-05,0
2.406,5.5894e-05,0
2.4065,3.4577e-05,0
2.407,2.7359e-05,0
2.4075,5.1698e-05,0
2.408,0.00010591,0
2.4085,0.00016097,0
2.409,0.00017977,0
2.4095,0.0001603,0
2.41,0.00013411,0
2.4105,0.0001321,0
2.411,0.00014083,0
2.4115,0.00012505,0
2.412,7.805e-05,0
2.4125,1.9974e-05,0
2.413,-3.0213e-05,0
2.4135,-7.335e-05,0
2.414,-0.00013126,0
2.4145,-0.00020259,0
2.415,-0.00025429,0
2.4155,-0.00026688,0
2.416,-0.00024321,0
2.4165,-0.00020327,0
2.417,-0.00016516,0
2.4175,-0.00011783,0
2.418,-6.6972e-05,0
2.4185,-3.0045e-05,0
2.419,-9.2317e-06,0
2.4195,7.7211e-06,0
2.42,2.7695e-05,0
2.4205,3.978e-05,0
2.421,4.0116e-05,0
2.4215,4.4312e-05,0
2.422,5.153e-05,0
2.4225,5.6901e-05,0
2.423,6.4118e-05,0
2.4235,7.9057e-05,0
2.424,9.6513e-05,0
2.4245,9.9199e-05,0
2.425,9.0639e-05,0
2.4255,8.4764e-05,0
2.426,8.7617e-05,0
2.4265,9.9031e-05,0
2.427,0.00010843,0
2.4275,0.00010356,0
2.428,8.4093e-05,0
2.4285,6.0594e-05,0
2.429,4.683e-05,0
2.4295,5.2201e-05,0
2.43,6.63e-05,0
2.4305,7.1336e-05,0
2.431,5.9251e-05,0
2.4315,3.827e-05,0
2.432,2.5345e-05,0
2.4325,3.5248e-05,0
2.433,5.5894e-05,0
2.4335,6.5629e-05,0
2.434,6.8315e-05,0
2.4345,7.8218e-05,0
2.435,9.3492e-05,0
2.4355,0.00010222,0
2.436,9.366e-05,0
2.4365,7.0329e-05,0
2.437,3.8773e-05,0
2.4375,8.896e-06,0
2.438,5.035e-07,0
2.4385,3.5416e-05,0
2.439,9.752e-05,0
2.4395,0.00013747,0
2.44,0.00012874,0
2.4405,8.7785e-05,0
2.441,4.2466e-05,0
2.4415,8.3925e-06,0
2.442,-1.3596e-05,0
2.4425,-3.0045e-05,0
2.443,-4.3137e-05,0
2.4435,-4.8508e-05,0
2.444,-4.9515e-05,0
2.4445,-5.5558e-05,0
2.445,-7.9728e-05,0
2.4455,-0.00011699,0
2.446,-0.00013075,0
2.4465,-0.00010658,0
2.447,-6.9322e-05,0
2.4475,-4.3809e-05,0
2.448,-3.2059e-05,0
2.4485,-3.1724e-05,0
2.449,-3.5752e-05,0
2.4495,-2.5849e-05,0
2.45,7.8889e-06,0
2.4505,5.3544e-05,0
2.451,9.0806e-05,0
2.4515,0.00010994,0
2.452,0.00011766,0
2.4525,0.00012337,0
2.453,0.00013411,0
2.4535,0.00015694,0
2.454,0.00019051,0
2.4545,0.00021602,0
2.455,0.00019319,0
2.4555,0.00011733,0
2.456,4.0619e-05,0
2.4565,-2.182e-06,0
2.457,-3.122e-05,0
2.4575,-6.479e-05,0
2.458,-9.6345e-05,0
2.4585,-0.00011128,0
2.459,-0.00010642,0
2.4595,-9.6345e-05,0
2.46,-0.00010239,0
2.4605,-0.00011766,0
2.461,-0.00011749,0
2.4615,-0.00010021,0
2.462,-8.275e-05,0
2.4625,-6.9154e-05,0
2.463,-5.539e-05,0
2.4635,-4.4144e-05,0
2.464,-3.592e-05,0
2.4645,-2.2995e-05,0
2.465,-6.714e-07,0
2.4655,2.7359e-05,0
2.466,5.3208e-05,0
2.4665,7.335e-05,0
2.467,7.6875e-05,0
2.4675,5.9587e-05,0
2.468,5.3544e-05,0
2.4685,6.8315e-05,0
2.469,7.6036e-05,0
2.4695,6.63e-05,0
2.47,4.5823e-05,0
2.4705,2.3331e-05,0
2.471,9.9031e-06,0
2.4715,5.2033e-06,0
2.472,3.6927e-06,0
2.4725,1.326e-05,0
2.473,3.9445e-05,0
2.4735,7.7043e-05,0
2.474,9.4667e-05,0
2.4745,7.5029e-05,0
2.475,4.2298e-05,0
2.4755,2.1317e-05,0
2.476,1.2253e-05,0
2.4765,7.2175e-06,0
2.477,8.2246e-06,0
2.4775,9.0639e-06,0
2.478,2.3499e-06,0
2.4785,-1.1749e-06,0
2.479,2.8534e-06,0
2.4795,4.5319e-06,0
2.48,-6.8818e-06,0
2.4805,-1.6281e-05,0
2.481,-6.2104e-06,0
2.4815,1.326e-05,0
2.482,2.0981e-05,0
2.4825,1.2924e-05,0
2.483,-2.182e-06,0
2.4835,-1.947e-05,0
2.484,-3.3906e-05,0
2.4845,-3.4409e-05,0
2.485,-1.8296e-05,0
2.4855,4.5319e-06,0
2.486,1.9135e-05,0
2.4865,2.3667e-05,0
2.487,2.7359e-05,0
2.4875,4.213e-05,0
2.488,5.9251e-05,0
2.4885,5.9922e-05,0
2.489,4.3809e-05,0
2.4895,2.4338e-05,0
2.49,1.1078e-05,0
2.4905,-1.8463e-06,0
2.491,-1.7121e-05,0
2.4915,-2.7695e-05,0
2.492,-2.4506e-05,0
2.4925,-6.2104e-06,0
2.493,1.3092e-05,0
2.4935,1.5946e-05,0
2.494,8.392e-07,0
2.4945,-9.2317e-06,0
2.495,-4.5319e-06,0
2.4955,1.8967e-05,0
2.496,7.7546e-05,0
2.4965,0.00016197,0
2.497,0.00022609,0
2.4975,0.00023851,0
2.498,0.00021736,0
2.4985,0.00019051,0
2.499,0.00016365,0
2.4995,0.00013193,0
2.5,9.6513e-05,0
2.5005,6.479e-05,0
2.501,4.5487e-05,0
2.5015,3.7766e-05,0
2.502,2.266e-05,0
2.5025,-1.0575e-05,0
2.503,-5.5222e-05,0
2.5035,-0.00010356,0
2.504,-0.00013646,0
2.5045,-0.00013008,0
2.505,-8.4764e-05,0
2.5055,-3.2563e-05,0
2.506,-6.5461e-06,0
2.5065,-8.7282e-06,0
2.507,-1.6281e-05,0
2.5075,-1.2589e-05,0
2.508,-8.3925e-06,0
2.5085,-1.5442e-05,0
2.509,-3.2563e-05,0
2.5095,-5.304e-05,0
2.51,-6.2104e-05,0
2.5105,-5.7069e-05,0
2.511,-5.3544e-05,0
2.5115,-5.6062e-05,0
2.512,-4.1962e-05,0
2.5125,4.3641e-06,0
2.513,5.774e-05,0
2.5135,8.6107e-05,0
2.514,9.0806e-05,0
2.5145,9.3492e-05,0
2.515,0.00010121,0
2.5155,9.9535e-05,0
2.516,0.00010239,0
2.5165,0.00012001,0
2.517,0.00014083,0
2.5175,0.00015962,0
2.518,0.00016231,0
2.5185,0.00013579,0
2.519,8.0735e-05,0
2.5195,2.3163e-05,0
2.52,-3.1891e-06,0
2.5205,-1.7456e-05,0
2.521,-4.683e-05,0
2.5215,-7.6371e-05,0
2.522,-8.4764e-05,0
2.5225,-7.9728e-05,0
2.523,-7.6204e-05,0
2.5235,-7.4357e-05,0
2.524,-6.2608e-05,0
2.5245,-3.9109e-05,0
2.525,-1.1246e-05,0
2.5255,1.326e-05,0
2.526,2.8367e-05,0
2.5265,3.3402e-05,0
2.527,2.6184e-05,0
2.5275,1.796e-05,0
2.528,1.326e-05,0
2.5285,3.8605e-06,0
2.529,-2.0142e-05,0
2.5295,-4.3473e-05,0
2.53,-3.9277e-05,0
2.5305,-7.5532e-06,0
2.531,1.8631e-05,0
2.5315,2.4002e-05,0
2.532,2.8031e-05,0
2.5325,3.5752e-05,0
2.533,2.6688e-05,0
2.5335,7.5532e-06,0
2.534,-4.5319e-06,0
2.5345,-1.6281e-05,0
2.535,-1.9974e-05,0
2.5355,-2.0142e-06,0
2.536,1.8631e-05,0
2.5365,2.5513e-05,0
2.537,2.1317e-05,0
2.5375,1.3428e-05,0
2.538,-2.182e-06,0
2.5385,-2.7024e-05,0
2.539,-4.1795e-05,0
2.5395,-3.743e-05,0
2.54,-1.7288e-05,0
2.5405,1.5106e-05,0
2.541,4.9012e-05,0
2.5415,6.9322e-05,0
2.542,7.1672e-05,0
2.5425,5.8244e-05,0
2.543,4.3473e-05,0
2.5435,4.8676e-05,0
2.544,7.0664e-05,0
2.5445,8.9799e-05,0
2.545,9.5171e-05,0
2.5455,9.4835e-05,0
2.546,9.5506e-05,0
2.5465,9.1142e-05,0
2.547,7.5029e-05,0
2.5475,4.0284e-05,0
2.548,-5.7069e-06,0
2.5485,-4.4144e-05,0
2.549,-5.6733e-05,0
2.5495,-5.1362e-05,0
2.55,-4.4312e-05,0
2.5505,-2.1988e-05,0
2.551,1.5442e-05,0
2.5515,4.2802e-05,0
2.552,4.683e-05,0
2.5525,3.5416e-05,0
2.553,1.9806e-05,0
2.5535,9.0639e-06,0
2.554,1.0575e-05,0
2.5545,1.6953e-05,0
2.555,1.7792e-05,0
2.5555,2.7024e-05,0
2.556,5.8915e-05,0
2.5565,9.8527e-05,0
2.557,0.00011531,0
2.5575,0.00010306,0
2.558,8.4093e-05,0
2.5585,7.57e-05,0
2.559,7.57e-05,0
2.5595,8.1239e-05,0
2.56,8.4596e-05,0
2.5605,7.3518e-05,0
2.561,4.918e-05,0
2.5615,2.1317e-05,0
2.562,3.1891e-06,0
2.5625,-1.1749e-05,0
2.563,-3.9109e-05,0
2.5635,-5.9251e-05,0
2.564,-5.4215e-05,0
2.5645,-4.213e-05,0
2.565,-3.9948e-05,0
2.5655,-4.2298e-05,0
2.566,-3.3738e-05,0
2.5665,2.3499e-06,0
2.567,6.3951e-05,0
2.5675,0.00010642,0
2.568,9.8863e-05,0
2.5685,6.63e-05,0
2.569,4.5823e-05,0
2.5695,4.0955e-05,0
2.57,3.0716e-05,0
2.5705,9.0639e-06,0
2.571,-1.0407e-05,0
2.5715,-1.4267e-05,0
2.572,-1.6281e-05,0
2.5725,-3.1388e-05,0
2.573,-5.0523e-05,0
2.5735,-5.5894e-05,0
2.574,-3.1388e-05,0
2.5745,9.3996e-06,0
2.575,2.9206e-05,0
2.5755,2.5345e-05,0
2.576,2.3667e-05,0
2.5765,3.1891e-05,0
2.577,4.7166e-05,0
2.5775,5.3544e-05,0
2.578,4.9515e-05,0
2.5785,3.7934e-05,0
2.579,1.5778e-05,0
2.5795,-1.561e-05,0
2.58,-4.448e-05,0
2.5805,-6.4622e-05,0
2.581,-7.5364e-05,0
2.5815,-7.7378e-05,0
2.582,-7.3686e-05,0
2.5825,-6.7979e-05,0
2.583,-5.3376e-05,0
2.5835,-3.0716e-05,0
2.584,-7.5532e-06,0
2.5845,1.8631e-05,0
2.585,5.0858e-05,0
2.5855,7.7378e-05,0
2.586,8.4932e-05,0
2.5865,7.2343e-05,0
2.587,5.0858e-05,0
2.5875,4.5151e-05,0
2.588,7.0161e-05,0
2.5885,9.1478e-05,0
2.589,8.2414e-05,0
2.5895,5.8579e-05,0
2.59,3.6423e-05,0
2.5905,1.3596e-05,0
2.591,-1.0239e-05,0
2.5915,-3.7095e-05,0
2.592,-6.2104e-05,0
2.5925,-5.7908e-05,0
2.593,-1.561e-05,0
2.5935,2.887e-05,0
2.594,3.9109e-05,0
2.5945,1.7288e-05,0
2.595,-2.5177e-06,0
2.5955,6.714e-07,0
2.596,1.796e-05,0
2.5965,3.6591e-05,0
2.597,4.6159e-05,0
2.5975,4.9348e-05,0
2.598,5.6565e-05,0
2.5985,7.6036e-05,0
2.599,9.6513e-05,0
2.5995,9.3492e-05,0
2.6,7.8218e-05,0
2.6005,7.8889e-05,0
2.601,9.366e-05,0
2.6015,9.4835e-05,0
2.602,6.7811e-05,0
2.6025,3.0045e-05,0
2.603,3.8605e-06,0
2.6035,-1.4435e-05,0
2.604,-3.6759e-05,0
2.6045,-5.6565e-05,0
2.605,-6.5126e-05,0
2.6055,-5.2201e-05,0
2.606,-3.5248e-06,0
2.6065,5.7404e-05,0
2.607,8.5435e-05,0
2.6075,6.865e-05,0
2.608,3.5248e-05,0
2.6085,1.4267e-05,0
2.609,6.5461e-06,0
2.6095,5.8747e-06,0
2.61,1.9638e-05,0
2.6105,4.7501e-05,0
2.611,6.2944e-05,0
2.6115,5.3376e-05,0
2.612,2.7695e-05,0
2.6125,6.8818e-06,0
2.613,-5.0355e-06,0
2.6135,-1.7624e-05,0
2.614,-2.4002e-05,0
2.6145,-1.9303e-05,0
2.615,-1.0407e-05,0
2.6155,-1.5106e-06,0
2.616,4.8676e-06,0
2.6165,-2.8534e-06,0
2.617,-3.0381e-05,0
2.6175,-6.6972e-05,0
2.618,-8.745e-05,0
2.6185,-7.3182e-05,0
2.619,-3.3402e-05,0
2.6195,1.1414e-05,0
2.62,5.0187e-05,0
2.6205,7.4357e-05,0
2.621,7.5029e-05,0
2.6215,5.4887e-05,0
2.622,2.3667e-05,0
2.6225,-4.1962e-06,0
2.623,-1.4603e-05,0
2.6235,1.6785e-06,0
2.624,3.3402e-05,0
2.6245,5.2201e-05,0
2.625,4.448e-05,0
2.6255,3.1052e-05,0
2.626,4.9515e-05,0
2.6265,9.8695e-05,0
2.627,0.00014485,0
2.6275,0.00015593,0
2.628,0.00012538,0
2.6285,7.0161e-05,0
2.629,1.5106e-05,0
2.6295,-1.2253e-05,0
2.63,-3.1891e-06,0
2.6305,1.9303e-05,0
2.631,2.4002e-05,0
2.6315,4.0284e-06,0
2.632,-1.6449e-05,0
2.6325,-2.1653e-05,0
2.633,-2.7024e-05,0
2.6335,-3.9109e-05,0
2.634,-4.3473e-05,0
2.6345,-4.448e-05,0
2.635,-4.7166e-05,0
2.6355,-4.3473e-05,0
2.636,-3.0381e-05,0
2.6365,-1.326e-05,0
2.637,4.1962e-06,0
2.6375,1.561e-05,0
2.638,2.1149e-05,0
2.6385,1.8631e-05,0
2.639,1.6617e-05,0
2.6395,3.0549e-05,0
2.64,5.5222e-05,0
2.6405,7.8218e-05,0
2.641,9.0471e-05,0
2.6415,8.5771e-05,0
2.642,7.8386e-05,0
2.6425,9.6513e-05,0
2.643,0.00012303,0
2.6435,0.0001086,0
2.644,5.2537e-05,0
2.6445,-1.3428e-06,0
2.645,-1.9303e-05,0
2.6455,-2.0478e-05,0
2.646,-4.4144e-05,0
2.6465,-9.6849e-05,0
2.647,-0.00014099,0
2.6475,-0.00014922,0
2.648,-0.00013478,0
2.6485,-0.00012438,0
2.649,-0.0001237,0
2.6495,-0.00011481,0
2.65,-7.5868e-05,0
2.6505,-1.6617e-05,0
2.651,3.0381e-05,0
2.6515,5.7908e-05,0
2.652,6.5629e-05,0
2.6525,5.7572e-05,0
2.653,4.8676e-05,0
2.6535,4.7669e-05,0
2.654,4.4312e-05,0
2.6545,3.7095e-05,0
2.655,3.3066e-05,0
2.6555,2.6688e-05,0
2.656,2.1317e-05,0
2.6565,3.743e-05,0
2.657,8.04e-05,0
2.6575,0.00012505,0
2.658,0.00015157,0
2.6585,0.00016197,0
2.659,0.00015593,0
2.6595,0.00013931,0
2.66,0.00013898,0
2.6605,0.00016399,0
2.661,0.00018077,0
2.6615,0.00015778,0
2.662,0.00010927,0
2.6625,6.1265e-05,0
2.663,3.2059e-05,0
2.6635,3.6591e-05,0
2.664,6.2944e-05,0
2.6645,7.8721e-05,0
2.665,6.9322e-05,0
2.6655,4.2466e-05,0
2.666,1.1917e-05,0
2.6665,-1.3932e-05,0
2.667,-4.0955e-05,0
2.6675,-6.2608e-05,0
2.668,-4.9348e-05,0
2.6685,1.9974e-05,0
2.669,0.00011514,0
2.6695,0.0001603,0
2.67,0.00011498,0
2.6705,4.2466e-05,0
2.671,1.1749e-06,0
2.6715,-1.5778e-05,0
2.672,-3.1891e-05,0
2.6725,-5.5558e-05,0
2.673,-6.9657e-05,0
2.6735,-6.479e-05,0
2.674,-8.0735e-05,0
2.6745,-0.00013394,0
2.675,-0.00019521,0
2.6755,-0.00022576,0
2.676,-0.00020125,0
2.6765,-0.00013948,0
2.677,-8.3421e-05,0
2.6775,-6.0761e-05,0
2.678,-7.2679e-05,0
2.6785,-9.2149e-05,0
2.679,-8.191e-05,0
2.6795,-3.8102e-05,0
2.68,1.2757e-05,0
2.6805,4.6159e-05,0
2.681,5.6901e-05,0
2.6815,5.0187e-05,0
2.682,2.3667e-05,0
2.6825,-9.7353e-06,0
2.683,-1.4939e-05,0
2.6835,2.1149e-05,0
2.684,7.2679e-05,0
2.6845,0.00010172,0
2.685,0.00011179,0
2.6855,0.0001368,0
2.686,0.00017859,0
2.6865,0.00019756,0
2.687,0.00016617,0
2.6875,0.00011531,0
2.688,8.1575e-05,0
2.6885,7.1e-05,0
2.689,6.4958e-05,0
2.6895,4.8844e-05,0
2.69,4.6159e-05,0
2.6905,6.3615e-05,0
2.691,8.04e-05,0
2.6915,7.7882e-05,0
2.692,5.2705e-05,0
2.6925,1.7288e-05,0
2.693,-2.8534e-06,0
2.6935,1.5778e-05,0
2.694,6.0594e-05,0
2.6945,8.4428e-05,0
2.695,5.153e-05,0
2.6955,-1.7121e-05,0
2.696,-8.8792e-05,0
2.6965,-0.00014351,0
2.697,-0.00015425,0
2.6975,-0.00012706,0
2.698,-9.9199e-05,0
2.6985,-7.805e-05,0
2.699,-3.1556e-05,0
2.6995,5.1194e-05,0
2.7,0.00013545,0
2.7005,0.00019538,0
2.701,0.0002219,0
2.7015,0.00019705,0
2.702,0.00012522,0
2.7025,3.3066e-05,0
2.703,-5.4215e-05,0
2.7035,-0.00010457,0
2.704,-0.00011833,0
2.7045,-0.00013025,0
2.705,-0.00014972,0
2.7055,-0.00016735,0
2.706,-0.00016617,0
2.7065,-0.00013059,0
2.707,-8.9128e-05,0
2.7075,-5.9754e-05,0
2.708,-8.2246e-06,0
2.7085,5.4215e-05,0
2.709,8.3589e-05,0
2.7095,8.896e-05,0
2.71,9.3828e-05,0
2.7105,0.00010994,0
2.711,0.00013075,0
2.7115,0.00014133,0
2.712,0.00014586,0
2.7125,0.00014888,0
2.713,0.00014838,0
2.7135,0.0001326,0
2.714,0.00010188,0
2.7145,6.9657e-05,0
2.715,3.7095e-05,0
2.7155,5.2033e-06,0
2.716,-2.0142e-05,0
2.7165,-3.7598e-05,0
2.717,-5.153e-05,0
2.7175,-6.0761e-05,0
2.718,-6.9993e-05,0
2.7185,-8.0064e-05,0
2.719,-7.6707e-05,0
2.7195,-4.448e-05,0
2.72,-1.2253e-05,0
2.7205,-1.2253e-05,0
2.721,-2.5681e-05,0
2.7215,-2.2995e-05,0
2.722,-5.539e-06,0
2.7225,9.3996e-06,0
2.723,1.7288e-05,0
2.7235,2.2324e-05,0
2.724,2.266e-05,0
2.7245,1.6953e-05,0
2.725,1.6617e-05,0
2.7255,3.2059e-05,0
2.726,8.4093e-05,0
2.7265,0.000165,0
2.727,0.00021032,0
2.7275,0.00018312,0
2.728,0.00012119,0
2.7285,7.5029e-05,0
2.729,4.9851e-05,0
2.7295,2.6017e-05,0
2.73,-1.1749e-06,0
2.7305,-2.0646e-05,0
2.731,-2.1988e-05,0
2.7315,-9.7353e-06,0
2.732,-5.2033e-06,0
2.7325,-2.5177e-05,0
2.733,-5.3712e-05,0
2.7335,-5.6901e-05,0
2.734,-3.3738e-05,0
2.7345,-5.8747e-06,0
2.735,2.1317e-05,0
2.7355,4.1795e-05,0
2.736,4.8173e-05,0
2.7365,4.683e-05,0
2.737,5.2033e-05,0
2.7375,6.3783e-05,0
2.738,8.3757e-05,0
2.7385,0.000118,0
2.739,0.00014855,0
2.7395,0.0001556,0
2.74,0.00014318,0
2.7405,0.00012001,0
2.741,8.3925e-05,0
2.7415,5.0858e-05,0
2.742,4.5991e-05,0
2.7425,5.8915e-05,0
2.743,5.9587e-05,0
2.7435,4.1795e-05,0
2.744,2.8367e-05,0
2.7445,2.8367e-05,0
2.745,2.1149e-05,0
2.7455,-8.3925e-06,0
2.746,-5.3208e-05,0
2.7465,-8.7282e-05,0
2.747,-0.00010256,0
2.7475,-0.00010121,0
2.748,-6.7643e-05,0
2.7485,-4.1962e-06,0
2.749,5.4215e-05,0
2.7495,8.9799e-05,0
2.75,8.9128e-05,0
2.7505,4.5151e-05,0
2.751,-1.3596e-05,0
2.7515,-6.3279e-05,0
2.752,-9.7688e-05,0
2.7525,-0.00011078,0
2.753,-0.00010692,0
2.7535,-9.4499e-05,0
2.754,-8.745e-05,0
2.7545,-9.7185e-05,0
2.755,-0.0001284,0
2.7555,-0.00015425,0
2.756,-0.00014603,0
2.7565,-0.00010877,0
2.757,-7.6707e-05,0
2.7575,-6.8818e-05,0
2.758,-7.5364e-05,0
2.7585,-7.1672e-05,0
2.759,-4.4144e-05,0
2.7595,-1.678e-07,0
2.76,3.1388e-05,0
2.7605,3.5416e-05,0
2.761,3.508e-05,0
2.7615,6.1936e-05,0
2.762,0.00010289,0
2.7625,0.0001185,0
2.763,0.00010726,0
2.7635,9.3156e-05,0
2.764,8.3757e-05,0
2.7645,9.1142e-05,0
2.765,0.0001509,0
2.7655,0.00023784,0
2.766,0.00029424,0
2.7665,0.00030582,0
2.767,0.00028081,0
2.7675,0.00021938,0
2.768,0.0001368,0
2.7685,6.244e-05,0
2.769,3.1891e-06,0
2.7695,-2.5345e-05,0
2.77,-3.6255e-05,0
2.7705,-7.0664e-05,0
2.771,-0.00012203,0
2.7715,-0.00014788,0
2.772,-0.0001373,0
2.7725,-0.00012169,0
2.773,-0.00011867,0
2.7735,-0.00011565,0
2.774,-9.366e-05,0
2.7745,-5.4551e-05,0
2.775,-2.4338e-05,0
2.7755,3.8605e-06,0
2.776,5.4215e-05,0
2.7765,0.00011934,0
2.777,0.00016298,0
2.7775,0.00014888,0
2.778,9.3828e-05,0
2.7785,4.4144e-05,0
2.779,1.5946e-05,0
2.7795,0,0
2.78,-8.2246e-06,0
2.7805,-9.2317e-06,0
2.781,-7.5532e-06,0
2.7815,-1.5778e-05,0
2.782,-2.8031e-05,0
2.7825,-1.5274e-05,0
2.783,3.9445e-05,0
2.7835,0.00010793,0
2.784,0.00014385,0
2.7845,0.0001378,0
2.785,0.00010054,0
2.7855,6.1936e-05,0
2.786,4.8844e-05,0
2.7865,2.6017e-05,0
2.787,-3.9109e-05,0
2.7875,-0.00010776,0
2.788,-0.00013495,0
2.7885,-0.00012538,0
2.789,-0.00010289,0
2.7895,-7.4357e-05,0
2.79,-3.4409e-05,0
2.7905,9.2317e-06,0
2.791,3.3234e-05,0
2.7915,2.9374e-05,0
2.792,2.7359e-05,0
2.7925,4.9515e-05,0
2.793,7.7378e-05,0
2.7935,7.8889e-05,0
2.794,6.1601e-05,0
2.7945,5.0523e-05,0
2.795,4.8005e-05,0
2.7955,5.5558e-05,0
2.796,8.6946e-05,0
2.7965,0.00012992,0
2.797,0.00015761,0
2.7975,0.00016164,0
2.798,0.00014032,0
2.7985,0.00010457,0
2.799,8.5435e-05,0
2.7995,8.6275e-05,0
2.8,7.9896e-05,0
2.8005,4.2802e-05,0
2.801,-1.326e-05,0
2.8015,-5.7237e-05,0
2.802,-5.623e-05,0
2.8025,-6.3783e-06,0
2.803,3.743e-05,0
2.8035,4.5487e-05,0
2.804,3.1556e-05,0
2.8045,3.0716e-05,0
2.805,6.7643e-05,0
2.8055,9.2149e-05,0
2.806,5.9419e-05,0
2.8065,-5.539e-06,0
2.807,-6.1936e-05,0
2.8075,-9.4835e-05,0
2.808,-8.5939e-05,0
2.8085,-9.0639e-06,0
2.809,0.00010155,0
2.8095,0.00016701,0
2.81,0.00017288,0
2.8105,0.00014704,0
2.811,8.2918e-05,0
2.8115,-2.417e-05,0
2.812,-0.00011833,0
2.8125,-0.00016533,0
2.813,-0.00018447,0
2.8135,-0.00019454,0
2.814,-0.00020125,0
2.8145,-0.00020914,0
2.815,-0.00020259,0
2.8155,-0.00014519,0
2.816,-3.5752e-05,0
2.8165,6.6636e-05,0
2.817,9.1814e-05,0
2.8175,4.5823e-05,0
2.818,-9.9031e-06,0
2.8185,-2.9206e-05,0
2.819,-1.9638e-05,0
2.8195,-1.7792e-05,0
2.82,-2.6352e-05,0
2.8205,-2.8702e-05,0
2.821,-3.4577e-05,0
2.8215,-4.3809e-05,0
2.822,-2.9038e-05,0
2.8225,2.0646e-05,0
2.823,9.3828e-05,0
2.8235,0.00017171,0
2.824,0.00021938,0
2.8245,0.00021233,0
2.825,0.00015694,0
2.8255,0.00010289,0
2.826,9.0303e-05,0
2.8265,8.896e-05,0
2.827,6.1601e-05,0
2.8275,1.0071e-05,0
2.828,-4.683e-05,0
2.8285,-0.00010222,0
2.829,-0.00012639,0
2.8295,-8.4428e-05,0
2.83,-1.091e-05,0
2.8305,3.8941e-05,0
2.831,5.0523e-05,0
2.8315,4.7166e-05,0
2.832,5.1865e-05,0
2.8325,5.1865e-05,0
2.833,3.8102e-05,0
2.8335,3.4409e-05,0
2.834,5.5222e-05,0
2.8345,7.1504e-05,0
2.835,5.7572e-05,0
2.8355,2.1317e-05,0
2.836,4.8676e-06,0
2.8365,5.153e-05,0
2.837,0.00014116,0
2.8375,0.00019823,0
2.838,0.00020058,0
2.8385,0.0001519,0
2.839,7.4189e-05,0
2.8395,1.0071e-06,0
2.84,-4.7166e-05,0
2.8405,-6.5965e-05,0
2.841,-6.8818e-05,0
2.8415,-7.5868e-05,0
2.842,-0.00010054,0
2.8425,-0.00013814,0
2.843,-0.00016214,0
2.8435,-0.00015593,0
2.844,-0.00012807,0
2.8445,-9.1814e-05,0
2.845,-6.5293e-05,0
2.8455,-5.3712e-05,0
2.846,-4.8676e-05,0
2.8465,-4.3473e-05,0
2.847,-2.4338e-05,0
2.8475,1.8631e-05,0
2.848,6.6972e-05,0
2.8485,0.00010172,0
2.849,0.00013193,0
2.8495,0.0001707,0
2.85,0.00019118,0
2.8505,0.00018111,0
2.851,0.00017305,0
2.8515,0.00018312,0
2.852,0.00017372,0
2.8525,0.00013243,0
2.853,9.4499e-05,0
2.8535,8.04e-05,0
2.854,7.4021e-05,0
2.8545,5.7069e-05,0
2.855,3.5416e-05,0
2.8555,2.0981e-05,0
2.856,3.0213e-06,0
2.8565,-2.1988e-05,0
2.857,-4.1123e-05,0
2.8575,-3.592e-05,0
2.858,-1.6953e-05,0
2.8585,2.5177e-06,0
2.859,6.2944e-05,0
2.8595,0.00017574,0
2.86,0.00025177,0
2.8605,0.00020327,0
2.861,6.9657e-05,0
2.8615,-3.2731e-05,0
2.862,-5.2872e-05,0
2.8625,-2.4338e-05,0
2.863,-1.6281e-05,0
2.8635,-4.7333e-05,0
2.864,-8.51e-05,0
2.8645,-0.00011028,0
2.865,-0.00011833,0
2.8655,-0.00010843,0
2.866,-9.3492e-05,0
2.8665,-7.8218e-05,0
2.867,-6.0594e-05,0
2.8675,-4.8005e-05,0
2.868,-4.3809e-05,0
2.8685,-5.069e-05,0
2.869,-5.9587e-05,0
2.8695,-4.8005e-05,0
2.87,-1.6785e-05,0
2.8705,1.7288e-05,0
2.871,5.8244e-05,0
2.8715,0.00011464,0
2.872,0.00016298,0
2.8725,0.0001707,0
2.873,0.00014217,0
2.8735,0.00010793,0
2.874,8.3085e-05,0
2.8745,5.9587e-05,0
2.875,2.8367e-05,0
2.8755,2.5177e-06,0
2.876,-2.182e-06,0
2.8765,1.4939e-05,0
2.877,1.9303e-05,0
2.8775,-2.182e-06,0
2.878,-3.6759e-05,0
2.8785,-5.2872e-05,0
2.879,-3.9109e-05,0
2.8795,-2.7695e-05,0
2.88,-4.2634e-05,0
2.8805,-6.7308e-05,0
2.881,-9.4331e-05,0
2.8815,-0.00012689,0
2.882,-0.00014704,0
2.8825,-0.00013747,0
2.883,-0.00011028,0
2.8835,-8.2414e-05,0
2.884,-4.1123e-05,0
2.8845,2.4506e-05,0
2.885,9.0135e-05,0
2.8855,0.000118,0
2.886,0.00010726,0
2.8865,8.3085e-05,0
2.887,5.9754e-05,0
2.8875,3.592e-05,0
2.888,1.8296e-05,0
2.8885,2.2324e-05,0
2.889,3.1724e-05,0
2.8895,3.122e-05,0
2.89,2.1988e-05,0
2.8905,5.3712e-06,0
2.891,6.8818e-06,0
2.8915,3.7095e-05,0
2.892,5.9251e-05,0
2.8925,5.7572e-05,0
2.893,7.3014e-05,0
2.8935,0.0001321,0
2.894,0.00018228,0
2.8945,0.00018614,0
2.895,0.00016936,0
2.8955,0.00015627,0
2.896,0.00013797,0
2.8965,0.00010726,0
2.897,7.9728e-05,0
2.8975,6.1601e-05,0
2.898,4.8676e-05,0
2.8985,3.6927e-05,0
2.899,3.6255e-05,0
2.8995,4.9515e-05,0
2.9,3.8605e-05,0
2.9005,-1.3596e-05,0
2.901,-6.2776e-05,0
2.9015,-8.1407e-05,0
2.902,-9.6849e-05,0
2.9025,-0.00012438,0
2.903,-0.00013109,0
2.9035,-0.00010222,0
2.904,-5.3208e-05,0
2.9045,2.182e-06,0
2.905,3.9109e-05,0
2.9055,6.4622e-05,0
2.906,0.00010105,0
2.9065,0.00014334,0
2.907,0.00013478,0
2.9075,6.479e-05,0
2.908,-7.0497e-06,0
2.9085,-4.3473e-05,0
2.909,-5.4887e-05,0
2.9095,-6.5461e-05,0
2.91,-6.8482e-05,0
2.9105,-6.3783e-05,0
2.911,-5.7908e-05,0
2.9115,-5.2537e-05,0
2.912,-4.4816e-05,0
2.9125,-2.6352e-05,0
2.913,-4.0284e-06,0
2.9135,1.0071e-05,0
2.914,3.5248e-05,0
2.9145,0.00010121,0
2.915,0.00015459,0
2.9155,0.00013915,0
2.916,7.57e-05,0
2.9165,1.561e-05,0
2.917,-6.3783e-06,0
2.9175,1.6281e-05,0
2.918,4.2802e-05,0
2.9185,3.743e-05,0
2.919,7.2175e-06,0
2.9195,-1.5274e-05,0
2.92,-1.3596e-05,0
2.9205,1.7121e-05,0
2.921,6.9657e-05,0
2.9215,0.0001368,0
2.922,0.00019554,0
2.9225,0.00018044,0
2.923,7.3014e-05,0
2.9235,-5.0523e-05,0
2.924,-0.00011884,0
2.9245,-0.0001274,0
2.925,-0.00010692,0
2.9255,-8.1743e-05,0
2.926,-6.865e-05,0
2.9265,-8.1239e-05,0
2.927,-0.00011649,0
2.9275,-0.00015392,0
2.928,-0.00014972,0
2.9285,-6.7979e-05,0
2.929,4.8508e-05,0
2.9295,0.00012136,0
2.93,0.00011481,0
2.9305,6.5965e-05,0
2.931,3.6088e-05,0
2.9315,6.009e-05,0
2.932,0.00011951,0
2.9325,0.00016869,0
2.933,0.00016449,0
2.9335,0.00010977,0
2.934,3.978e-05,0
2.9345,-1.6281e-05,0
2.935,-4.4312e-05,0
2.9355,-3.9445e-05,0
2.936,-2.0142e-06,0
2.9365,3.1052e-05,0
2.937,1.9974e-05,0
2.9375,-7.7211e-06,0
2.938,-1.6449e-05,0
2.9385,-2.0813e-05,0
2.939,-3.4745e-05,0
2.9395,-3.3066e-05,0
2.94,1.7121e-05,0
2.9405,0.00011615,0
2.941,0.00019152,0
2.9415,0.00017154,0
2.942,8.5771e-05,0
2.9425,-8.0568e-06,0
2.943,-7.0161e-05,0
2.9435,-9.601e-05,0
2.944,-8.9632e-05,0
2.9445,-7.2679e-05,0
2.945,-7.4525e-05,0
2.9455,-7.9057e-05,0
2.946,-5.4048e-05,0
2.9465,-1.326e-05,0
2.947,2.1317e-05,0
2.9475,6.6972e-05,0
2.948,0.00014015,0
2.9485,0.00023432,0
2.949,0.00029978,0
2.9495,0.00028148,0
2.95,0.00019689,0
2.9505,0.00011733,0
2.951,8.04e-05,0
2.9515,8.5267e-05,0
2.952,0.00013445,0
2.9525,0.0001791,0
2.953,0.0001556,0
2.9535,6.7979e-05,0
2.954,-2.4002e-05,0
2.9545,-7.8218e-05,0
2.955,-0.00010893,0
2.9555,-0.00013243,0
2.956,-0.00014704,0
2.9565,-0.00016147,0
2.957,-0.00019101,0
2.9575,-0.00020797,0
2.958,-0.00018346,0
2.9585,-0.00012421,0
2.959,-7.0497e-05,0
2.9595,-4.1627e-05,0
2.96,-9.9031e-06,0
2.9605,2.5345e-05,0
2.961,3.6423e-05,0
2.9615,3.743e-05,0
2.962,5.4215e-05,0
2.9625,7.57e-05,0
2.963,8.1743e-05,0
2.9635,7.4861e-05,0
2.964,6.5293e-05,0
2.9645,4.0452e-05,0
2.965,-6.0426e-06,0
2.9655,-5.069e-05,0
2.966,-5.2537e-05,0
2.9665,-1.326e-05,0
2.967,2.1317e-05,0
2.9675,2.652e-05,0
2.968,1.0575e-05,0
2.9685,1.6785e-06,0
2.969,2.3499e-06,0
2.9695,-1.1917e-05,0
2.97,-2.7024e-05,0
2.9705,-9.9031e-06,0
2.971,2.1988e-05,0
2.9715,2.9374e-05,0
2.972,1.2757e-05,0
2.9725,-1.1749e-06,0
2.973,-3.1891e-06,0
2.9735,-2.182e-06,0
2.974,1.2589e-05,0
2.9745,5.539e-05,0
2.975,0.00010457,0
2.9755,0.00015341,0
2.976,0.00020998,0
2.9765,0.00026806,0
2.977,0.00028031,0
2.9775,0.00021736,0
2.978,0.00010625,0
2.9785,-1.2421e-05,0
2.979,-0.00010289,0
2.9795,-0.00014049,0
2.98,-0.00013075,0
2.9805,-8.426e-05,0
2.981,-2.4002e-05,0
2.9815,1.326e-05,0
2.982,3.0381e-05,0
2.9825,3.9948e-05,0
2.983,3.4409e-05,0
2.9835,-3.6927e-06,0
2.984,-2.7863e-05,0
2.9845,-8.2246e-06,0
2.985,1.0575e-05,0
2.9855,1.5442e-05,0
2.986,2.5009e-05,0
2.9865,4.9348e-05,0
2.987,9.2149e-05,0
2.9875,0.00014485,0
2.988,0.00017876,0
2.9885,0.00018111,0
2.989,0.00018379,0
2.9895,0.00018648,0
2.99,0.00012941,0
2.9905,2.4002e-05,0
2.991,-5.9587e-05,0
2.9915,-9.1478e-05,0
2.992,-0.00010037,0
2.9925,-0.00010642,0
2.993,-9.9702e-05,0
2.9935,-8.0064e-05,0
2.994,-4.7166e-05,0
2.9945,2.182e-05,0
2.995,0.00012102,0
2.9955,0.00019185,0
2.996,0.00017775,0
2.9965,0.00012673,0
2.997,0.00010423,0
2.9975,8.7617e-05,0
2.998,3.6255e-05,0
2.9985,-2.8367e-05,0
2.999,-7.5364e-05,0
2.9995,-9.9702e-05,0
3,-8.191e-05,0
3.0005,-4.9348e-05,0
3.001,-5.8412e-05,0
3.0015,-0.00011095,0
3.002,-0.00017758,0
3.0025,-0.00022072,0
3.003,-0.00021636,0
3.0035,-0.0001791,0
3.004,-0.00013562,0
3.0045,-0.00011212,0
3.005,-0.00011498,0
3.0055,-0.00012941,0
3.006,-0.00012673,0
3.0065,-8.3253e-05,0
3.007,-2.2156e-05,0
3.0075,2.3499e-05,0
3.008,5.6062e-05,0
3.0085,7.5532e-05,0
3.009,7.2343e-05,0
3.0095,5.9419e-05,0
3.01,4.7333e-05,0
3.0105,2.7192e-05,0
3.011,4.5319e-06,0
3.0115,8.2246e-06,0
3.012,5.2872e-05,0
3.0125,0.00011313,0
3.013,0.00015492,0
3.0135,0.00017826,0
3.014,0.00018044,0
3.0145,0.00015224,0
3.015,0.00010356,0
3.0155,6.8315e-05,0
3.016,5.6901e-05,0
3.0165,6.4118e-05,0
3.017,8.6778e-05,0
3.0175,0.00012773,0
3.018,0.00019135,0
3.0185,0.00023684,0
3.019,0.00022676,0
3.0195,0.00016147,0
3.02,8.5771e-05,0
3.0205,4.7166e-05,0
3.021,6.2776e-05,0
3.0215,0.00011632,0
3.022,0.00014821,0
3.0225,9.6178e-05,0
3.023,-9.0639e-06,0
3.0235,-7.8218e-05,0
3.024,-9.2485e-05,0
3.0245,-0.00010692,0
3.025,-0.00013747,0
3.0255,-0.0001613,0
3.026,-0.00017221,0
3.0265,-0.00017876,0
3.027,-0.00017523,0
3.0275,-0.00014267,0
3.028,-8.661e-05,0
3.0285,-3.7766e-05,0
3.029,-3.8437e-05,0
3.0295,-7.6036e-05,0
3.03,-9.7353e-05,0
3.0305,-8.3421e-05,0
3.031,-4.0955e-05,0
3.0315,1.6953e-05,0
3.032,5.1194e-05,0
3.0325,4.8844e-05,0
3.033,3.9109e-05,0
3.0335,5.623e-05,0
3.034,0.0001091,0
3.0345,0.00015727,0
3.035,0.00015996,0
3.0355,0.00015392,0
3.036,0.00020192,0
3.0365,0.00024741,0
3.037,0.00021535,0
3.0375,0.0001368,0
3.038,7.1e-05,0
3.0385,3.592e-05,0
3.039,2.031e-05,0
3.0395,1.7121e-05,0
3.04,1.3932e-05,0
3.0405,-3.6927e-06,0
3.041,-3.0045e-05,0
3.0415,-4.3473e-05,0
3.042,-4.5151e-05,0
3.0425,-4.7333e-05,0
3.043,-4.2802e-05,0
3.0435,-3.3906e-05,0
3.044,-4.4648e-05,0
3.0445,-5.6565e-05,0
3.045,-5.0019e-05,0
3.0455,-3.6759e-05,0
3.046,-2.2324e-05,0
3.0465,-3.357e-07,0
3.047,2.9709e-05,0
3.0475,6.1601e-05,0
3.048,8.9799e-05,0
3.0485,9.9199e-05,0
3.049,8.7785e-05,0
3.0495,6.865e-05,0
3.05,5.1865e-05,0
3.0505,3.0884e-05,0
3.051,2.3499e-06,0
3.0515,-1.947e-05,0
3.052,-3.3402e-05,0
3.0525,-4.8508e-05,0
3.053,-5.4215e-05,0
3.0535,-3.9612e-05,0
3.054,-2.2995e-05,0
3.0545,-2.4506e-05,0
3.055,-3.4073e-05,0
3.0555,-2.9709e-05,0
3.056,-7.8889e-06,0
3.0565,1.5442e-05,0
3.057,2.1317e-05,0
3.0575,1.0071e-05,0
3.058,-4.8676e-06,0
3.0585,-6.8818e-06,0
3.059,4.1962e-06,0
3.0595,1.5106e-05,0
3.06,2.4002e-05,0
3.0605,3.2898e-05,0
3.061,4.7837e-05,0
3.0615,9.5171e-05,0
3.062,0.00017137,0
3.0625,0.00021367,0
3.063,0.00017691,0
3.0635,9.3492e-05,0
3.064,3.4577e-05,0
3.0645,2.0813e-05,0
3.065,1.8631e-05,0
3.0655,1.6785e-05,0
3.066,1.2589e-05,0
3.0665,-7.7211e-06,0
3.067,-3.508e-05,0
3.0675,-4.213e-05,0
3.068,-2.1317e-05,0
3.0685,-8.0568e-06,0
3.069,-2.2492e-05,0
3.0695,-4.2466e-05,0
3.07,-3.2059e-05,0
3.0705,2.0142e-06,0
3.071,1.9135e-05,0
3.0715,2.5849e-05,0
3.072,4.7333e-05,0
3.0725,6.4286e-05,0
3.073,6.2944e-05,0
3.0735,6.7979e-05,0
3.074,7.2007e-05,0
3.0745,5.7572e-05,0
3.075,3.2731e-05,0
3.0755,-8.392e-07,0
3.076,-1.5442e-05,0
3.0765,1.1078e-05,0
3.077,3.2059e-05,0
3.0775,1.2253e-05,0
3.078,-8.896e-06,0
3.0785,-1.0071e-06,0
3.079,5.8747e-06,0
3.0795,-8.5603e-06,0
3.08,-1.2589e-05,0
3.0805,2.0646e-05,0
3.081,5.8412e-05,0
3.0815,5.153e-05,0
3.082,2.8702e-05,0
3.0825,3.2395e-05,0
3.083,5.2705e-05,0
3.0835,7.4357e-05,0
3.084,7.805e-05,0
3.0845,5.5558e-05,0
3.085,2.1317e-05,0
3.0855,-1.6617e-05,0
3.086,-5.153e-05,0
3.0865,-7.4357e-05,0
3.087,-8.04e-05,0
3.0875,-8.6107e-05,0
3.088,-7.2343e-05,0
3.0885,-4.1123e-05,0
3.089,-2.266e-05,0
3.0895,-9.2317e-06,0
3.09,2.4842e-05,0
3.0905,0.00011766,0
3.091,0.00026101,0
3.0915,0.00031875,0
3.092,0.00022744,0
3.0925,7.1839e-05,0
3.093,-4.1459e-05,0
3.0935,-8.4596e-05,0
